timestamp,emg1,emg2,emg3,emg4,emg5,emg6,emg7,emg8
1520336529808835,-2,-1,1,-3,-3,4,3,1
1520336529808835,0,-25,1,15,3,0,-3,-17
1520336529809837,11,32,-16,-22,-12,-9,-3,51
1520336529809837,0,6,-8,-40,-6,1,0,-1
1520336529810843,-14,-8,11,44,8,-1,-2,15
1520336529810843,10,7,29,13,3,2,-1,-20
1520336529811851,-1,-43,7,22,18,4,-2,-25
1520336529811851,14,48,-20,-30,-18,-5,2,47
1520336529822872,-14,0,-12,-27,-5,3,-1,-15
1520336529822872,73,-10,-5,9,5,0,0,-36
1520336529831896,-84,15,12,2,-8,-5,1,25
1520336529831896,34,-19,3,18,14,2,1,-9
1520336529837912,12,3,3,-9,-8,-6,-3,-8
1520336529837912,-28,9,-6,-2,2,3,0,20
1520336529851949,32,-3,1,6,1,1,0,-20
1520336529851949,-34,-13,-4,7,-1,10,-1,-12
1520336529860999,-2,0,1,-7,-7,5,2,8
1520336529860999,-12,17,0,-14,-10,-6,-2,1
1520336529877020,6,-6,-2,5,-8,-4,-3,-10
1520336529877020,-14,-4,-4,-1,23,6,0,4
1520336529883032,2,-6,-12,-4,-1,3,2,0
1520336529883032,-13,27,28,2,0,6,-1,15
1520336529897069,10,-6,6,22,2,1,1,-5
1520336529897069,22,-11,12,16,-3,-2,-1,-16
1520336529939181,-61,24,-15,-17,-8,-3,1,45
1520336529939181,6,12,6,0,2,1,5,23
1520336529939181,14,-13,-2,2,3,0,-5,-55
1520336529939181,-9,-3,3,4,3,3,4,3
1520336529943193,23,-8,5,8,4,-6,0,4
1520336529943193,-10,-1,-2,2,1,-1,-1,-2
1520336529944195,-10,6,-3,-5,-4,-2,-1,11
1520336529944195,4,-1,1,1,-13,4,1,-11
1520336529949208,23,6,5,-2,6,-3,-1,10
1520336529949208,-2,-4,-7,-1,-1,4,-3,-2
1520336529957229,-9,-14,-1,5,-2,-5,2,-1
1520336529957229,-11,-2,-9,-7,3,-4,-4,0
1520336529966253,-2,-10,-7,-4,-5,2,-1,-9
1520336529966253,13,-4,7,9,-3,-3,-2,-5
1520336529980290,-13,21,-8,-17,-3,3,4,32
1520336529980290,-13,-11,-6,-4,1,2,-4,-16
1520336529987309,-2,-16,4,5,-1,-2,-3,-9
1520336529987309,10,5,-2,-13,-4,-9,-2,1
1520336530010370,-21,29,-1,18,-4,1,0,11
1520336530010370,11,-5,6,-2,10,3,-2,-21
1520336530012376,27,9,-1,6,4,1,2,7
1520336530012376,-49,-19,2,2,-7,0,2,14
1520336530025410,21,-4,7,1,11,-2,0,7
1520336530025410,-12,11,-4,-3,-3,-1,1,9
1520336530032430,-9,-13,4,10,5,1,-1,-12
1520336530032430,22,17,-9,-17,-10,-1,-1,13
1520336530048472,-15,-18,2,0,3,0,-1,-23
1520336530048472,24,5,-7,-2,-7,-7,-5,22
1520336530049475,-35,13,2,-9,-5,4,-1,8
1520336530049475,-12,-2,-1,7,-3,11,-3,-3
1520336530070531,31,13,6,-3,6,2,-3,-10
1520336530070531,-11,-4,-10,-8,-7,-14,1,1
1520336530072536,21,4,8,11,0,-4,-3,-8
1520336530072536,-26,-9,-1,0,0,-5,-4,-12
1520336530085570,14,-2,2,-2,-1,5,-1,5
1520336530085570,-27,-24,-3,8,4,3,-3,-26
1520336530091587,35,33,-5,-14,-13,-6,-1,31
1520336530091587,-27,-19,1,-8,1,0,1,-20
1520336530108632,-3,20,5,9,-17,-1,-3,26
1520336530108632,13,-27,-1,8,28,1,1,-26
1520336530109635,15,14,-5,-2,-2,-6,-1,24
1520336530109635,10,-9,0,1,5,-2,-2,-26
1520336530130691,-6,-6,-4,-2,-5,4,4,-6
1520336530130691,-9,11,4,-13,-12,2,2,23
1520336530132696,-23,-12,4,12,3,2,1,-16
1520336530132696,4,-6,-4,14,9,-9,-3,-8
1520336530144728,24,12,-6,-12,-3,-9,1,13
1520336530144728,-21,-23,1,1,-4,5,-4,-21
1520336530170799,0,3,-2,2,-11,-6,-5,13
1520336530170799,-33,21,-4,-15,22,10,3,35
1520336530170799,1,-17,10,-6,0,3,-2,-25
1520336530170799,-4,-2,-8,12,5,-5,-3,4
1520336530174808,20,3,28,6,-7,2,2,-17
1520336530174808,2,-16,-10,0,-15,1,1,-26
1520336530190851,15,19,-8,-14,-9,-12,1,32
1520336530190851,4,8,-4,-8,2,8,-2,11
1520336530192856,-11,-16,-4,0,0,-1,-3,-9
1520336530192856,-9,6,8,8,33,1,1,8
1520336530205891,5,-17,-1,6,-3,1,-3,-13
1520336530205891,-7,10,-2,-9,-8,-11,3,13
1520336530213912,-20,-2,6,6,16,15,0,0
1520336530213912,25,1,-4,-6,-11,-15,-1,-2
1520336530227949,-11,-11,-8,-3,18,11,-6,-13
1520336530227949,0,4,15,17,-4,-2,0,5
1520336530229955,7,-7,-4,-3,4,-1,1,-6
1520336530229955,9,12,-5,-17,-28,-5,1,-1
1520336530251011,-17,-14,-7,-2,-4,1,1,-3
1520336530251011,7,0,-8,-7,0,6,-6,17
1520336530252013,27,-3,-3,-2,-4,-11,0,-20
1520336530252013,-39,-6,-1,3,-11,2,-2,20
1520336530264045,1,4,3,-4,-13,-8,1,3
1520336530264045,11,16,9,7,13,8,1,6
1520336530273069,-10,-19,-11,-17,-22,-17,-1,-17
1520336530273069,47,-5,-3,18,29,8,-9,-31
1520336530288109,-28,2,-20,-30,-43,-31,-4,-2
1520336530288109,5,9,14,26,0,9,2,19
1520336530290115,-7,0,-3,1,54,17,4,-6
1520336530290115,5,-1,4,1,-6,1,0,-2
1520336530311171,-4,-25,2,-2,-4,-7,-3,-19
1520336530311171,12,24,-6,-3,-14,-2,3,9
1520336530312174,-33,-13,-9,0,23,5,-3,1
1520336530312174,11,40,13,2,-3,8,2,18
1520336530324206,2,-16,-6,5,5,3,-4,-1
1520336530324206,-5,-9,5,-8,-19,-17,0,5
1520336530333229,-25,-14,-12,-6,-6,3,-5,-5
1520336530333229,0,-10,-2,-3,-2,-1,4,-13
1520336530348270,6,3,-5,2,1,-8,-1,14
1520336530348270,7,-13,1,-5,4,-6,-3,-13
1520336530350275,-7,20,-1,-12,-27,3,-1,11
1520336530350275,5,-26,-12,-1,4,-1,-1,-21
1520336530370328,6,9,2,7,-5,1,2,-6
1520336530370328,-34,0,-4,-1,32,1,0,26
1520336530372334,22,-15,-6,-19,-55,-5,-4,-27
1520336530372334,-11,13,7,34,15,-4,-2,28
1520336530384366,-1,-19,-4,7,24,21,4,-24
1520336530384366,2,-1,-5,-9,12,3,1,-20
1520336530393390,14,-7,-2,6,-3,-3,1,12
1520336530393390,34,12,15,-5,-28,-2,-4,13
1520336530408429,-52,4,-19,-21,-6,-1,1,18
1520336530408429,10,-4,-1,1,-9,-8,0,-8
1520336530409432,-26,-20,4,7,1,16,3,-30
1520336530409432,60,20,2,-2,0,-22,1,25
1520336530430488,-25,3,-4,-11,-14,5,-3,19
1520336530430488,19,5,9,11,15,1,2,-11
1520336530432494,-14,-9,2,5,17,-1,1,-22
1520336530432494,-11,-33,-2,3,-5,3,-2,-31
1520336530444526,51,69,2,-22,-6,3,-4,59
1520336530444526,-14,3,-7,-16,-19,0,-1,-1
1520336530453549,8,-3,10,33,4,-12,-6,3
1520336530453549,-22,8,17,14,24,-9,1,7
1520336530468590,15,-11,10,33,26,10,-1,-7
1520336530468590,-7,-15,-17,-14,29,16,2,-31
1520336530469592,2,25,-1,-4,-5,10,6,42
1520336530469592,6,-6,-4,-19,-36,-29,-5,-4
1520336530490648,-30,-18,2,3,-22,-11,-5,-19
1520336530490648,8,-12,-1,6,-5,-8,-3,-4
1520336530492654,36,23,3,-1,0,-4,2,16
1520336530492654,-42,9,-28,-37,-24,-1,-6,18
1520336530504685,6,-16,8,13,19,8,3,-29
1520336530504685,10,-4,-7,0,-4,-8,-3,-11
1520336530513710,-1,-9,3,-5,-6,-1,1,-10
1520336530513710,-1,-2,-1,13,10,12,5,-7
1520336530527747,7,10,0,-8,12,-7,-2,6
1520336530527747,1,-6,7,10,-11,1,1,5
1520336530534766,0,8,4,-21,-33,-19,-4,23
1520336530534766,4,15,-2,9,12,19,5,3
1520336530550808,-11,-12,9,20,9,3,0,-9
1520336530550808,19,9,4,11,-17,-4,-8,-3
1520336530552814,-3,-15,-12,-18,43,-9,-2,-14
1520336530552814,0,-8,9,26,21,11,-4,-6
1520336530564846,8,16,0,-22,-22,0,2,6
1520336530564846,-39,-12,-10,-8,-22,-3,-2,-2
1520336530573870,19,27,4,5,-1,-2,-2,13
1520336530573870,-8,-29,-10,-20,-19,2,-1,-23
1520336530587907,-1,-19,0,8,14,0,2,-17
1520336530587907,24,22,-2,-8,-2,-6,-3,26
1520336530589913,-29,-8,-8,3,-1,5,-2,-14
1520336530589913,1,-12,-15,-11,2,2,3,-15
1520336530610968,-1,7,1,-1,-4,0,-1,0
1520336530610968,-8,3,-4,-9,-7,-3,3,7
1520336530611971,1,-2,2,3,-27,-8,-1,-5
1520336530611971,-14,-21,-6,-25,-3,-5,-5,-25
1520336530624003,27,26,3,33,28,13,-7,26
1520336530624003,-1,-10,-3,-13,-12,-8,3,-21
1520336530633027,-3,-13,-7,-11,-26,11,2,-16
1520336530633027,-14,-8,-5,5,31,-3,-2,-1
1520336530648067,-21,-20,-8,3,-15,-12,1,-19
1520336530648067,10,16,11,3,-4,3,-2,20
1520336530650073,8,-19,-9,-3,12,2,0,-11
1520336530650073,-5,19,-3,-14,-35,-4,-1,15
1520336530671128,-6,-30,-5,-4,2,4,1,-26
1520336530671128,23,24,-2,1,6,-4,0,14
1520336530672132,-22,-2,-2,3,3,4,0,3
1520336530672132,24,11,8,9,1,3,-3,10
1520336530684163,8,-11,-2,2,8,-11,-1,-9
1520336530684163,-16,-8,-7,-13,-5,-7,-3,-15
1520336530693187,19,12,2,13,12,2,1,8
1520336530693187,-8,3,1,-9,-12,-3,3,5
1520336530708227,1,-6,-8,-1,-2,20,1,-1
1520336530708227,10,-12,-4,-4,-3,-13,0,-12
1520336530710233,-7,2,-3,14,20,-8,-7,10
1520336530710233,-4,-28,-17,-2,15,3,-2,-32
1520336530730286,6,7,7,-5,-33,-17,1,3
1520336530730286,15,5,-12,-16,-2,7,-5,30
1520336530732291,-41,4,-1,-3,18,9,-1,-12
1520336530732291,3,5,11,6,-2,-2,2,-5
1520336530744323,2,-9,-5,0,3,-10,-3,-10
1520336530744323,-13,-23,12,18,6,5,-2,-25
1520336530753347,64,43,5,-6,-12,-12,4,66
1520336530753347,-50,-6,-2,3,7,9,-2,16
1520336530767384,-6,-5,5,-4,3,-1,-2,-13
1520336530767384,6,1,2,8,4,5,-1,-6
1520336530774404,-10,-11,-2,-3,-4,-6,-3,-9
1520336530774404,28,10,6,-7,-18,-2,0,5
1520336530791459,-4,9,8,4,9,-1,4,17
1520336530791459,-10,0,9,21,27,13,2,0
1520336530792452,-3,-13,-9,-5,-36,-17,-7,-20
1520336530792452,20,-6,-6,2,67,14,5,-4
1520336530813507,-17,7,-6,-15,-12,-8,-2,10
1520336530813507,5,11,5,-1,-11,10,1,11
1520336530814510,-5,-17,-10,-11,-17,-12,1,-22
1520336530814510,-5,-1,6,-1,-21,-1,1,2
1520336530827545,3,-2,4,10,10,-3,-2,-5
1520336530827545,-24,10,-9,-15,-1,2,5,63
1520336530834563,-30,2,10,10,9,12,-3,-37
1520336530834563,8,-8,-12,-10,-19,-15,-3,-5
1520336530850606,28,-13,5,10,15,4,-2,-20
1520336530850606,-6,25,-6,-6,-18,-6,0,20
1520336530852611,-36,5,-6,-19,2,5,-2,30
1520336530852611,23,-15,-10,-3,-10,-4,-1,-26
1520336530873667,-14,-12,-13,-18,-9,-3,-7,-3
1520336530873667,17,-7,10,17,3,0,-1,-17
1520336530874670,5,-7,-4,-8,11,-3,-1,-5
1520336530874670,-17,4,4,10,-11,-2,-1,4
1520336530886702,-12,-4,-2,-12,-16,1,1,1
1520336530886702,12,18,-12,-23,-16,-2,-2,-4
1520336530895726,-22,-14,-7,12,30,16,4,-11
1520336530895726,-2,-1,7,-1,-27,-21,6,20
1520336530909763,-9,-10,11,29,49,21,4,3
1520336530909763,16,-1,12,1,-27,-12,-5,-14
1520336530918787,-3,-4,-1,3,9,0,1,-1
1520336530918787,7,30,-9,-19,-5,3,-2,16
1520336530932824,-4,18,4,-6,-14,-10,1,32
1520336530932824,-1,-22,-2,2,2,-2,-1,-27
1520336530934830,-2,-39,-2,15,5,0,-2,-26
1520336530934830,43,50,-5,-15,-8,-5,-6,40
1520336530955886,-32,-18,-3,-8,-6,5,0,-15
1520336530955886,9,-2,-2,8,15,2,-4,2
1520336530957891,-32,-16,-3,1,-11,-3,-2,-8
1520336530957891,12,-15,3,6,6,-4,1,-22
1520336530969923,14,13,-9,-7,-12,0,0,6
1520336530969923,-26,-14,-2,-11,10,-1,-1,-22
1520336530977945,55,37,11,11,-8,3,5,26
1520336530977945,-24,-24,10,20,19,12,1,-22
1520336530992985,14,36,-9,-15,-7,-7,-5,29
1520336530992985,-33,-23,-4,2,-2,-1,1,-18
1520336530994990,45,4,3,1,0,-4,-1,10
1520336530994990,-54,-13,-5,-2,2,4,-4,4
1520336531016046,30,10,7,3,-4,-5,1,6
1520336531016046,10,1,-3,0,0,-1,1,16
1520336531017048,-20,-13,-7,0,-4,0,0,-6
1520336531017048,14,-4,-1,-1,3,4,1,-6
1520336531029080,-4,-19,-1,-1,-7,-12,-8,-16
1520336531029080,-19,-11,-7,-13,-17,-5,-5,-14
1520336531038105,32,21,-7,-8,5,-12,2,14
1520336531038105,-17,-5,-1,-6,-14,16,-5,0
1520336531053144,-10,-18,-9,12,40,-9,1,-25
1520336531053144,0,-4,-1,9,-36,-15,-5,-16
1520336531055150,33,14,-5,-1,42,2,-5,5
1520336531055150,9,10,4,1,-15,-5,-2,-2
1520336531076206,12,26,3,-11,-19,2,-1,17
1520336531076206,-48,-29,-22,-17,2,3,1,-10
1520336531077209,-11,-20,0,-2,-13,-1,0,-13
1520336531077209,8,7,1,0,8,-2,-1,0
1520336531089240,-1,-7,-3,-4,-3,3,-2,-11
1520336531089240,19,5,10,10,13,0,1,5
1520336531098265,-40,3,-13,-16,-19,4,-3,-9
1520336531098265,19,15,-4,-10,1,-8,-4,25
1520336531112303,-24,-1,-4,-6,-11,2,3,-3
1520336531112303,-7,-7,2,9,14,3,0,-7
1520336531119320,5,0,3,1,-2,1,-2,1
1520336531119320,11,-12,4,5,0,-3,-2,-15
1520336531135363,-10,4,-1,-4,-10,-3,1,6
1520336531135363,31,20,11,11,20,0,0,24
1520336531137368,-30,-5,4,-13,-20,2,-3,10
1520336531137368,6,4,-5,8,3,-4,4,5
1520336531149400,-2,0,7,14,31,4,-3,13
1520336531149400,-1,-14,9,12,16,5,-4,-23
1520336531158425,-11,16,-10,-11,-27,-4,-2,9
1520336531158425,20,12,-1,-7,-2,0,2,-4
1520336531172462,-13,-19,11,7,-14,-2,-3,-17
1520336531172462,-9,14,-9,-12,-3,0,-2,22
1520336531179481,2,-14,4,3,5,3,-1,-15
1520336531179481,-10,-11,1,7,1,-7,-2,0
1520336531195523,-17,3,-7,-13,-2,3,1,-13
1520336531195523,22,4,-2,-1,3,-3,3,12
1520336531197529,1,16,6,1,-4,4,4,13
1520336531197529,-24,-12,3,11,12,13,2,-6
1520336531209561,17,-11,-4,3,0,-12,-3,-2
1520336531209561,-6,-16,-4,-3,-7,-7,-2,-10
1520336531218585,33,34,3,0,-17,-6,-1,32
1520336531218585,-38,-6,-1,-13,19,1,-2,6
1520336531233624,-34,-15,3,21,22,10,1,-8
1520336531233624,22,-9,-2,6,0,2,2,-5
1520336531234627,31,38,5,-4,-2,-8,0,13
1520336531234627,5,-9,6,0,-28,-6,-1,-9
1520336531255683,-3,9,-5,-5,13,4,-1,-6
1520336531255683,-17,-20,-9,-5,-2,-1,-3,5
1520336531257689,-2,-8,5,7,10,6,1,-20
1520336531257689,23,-11,-4,0,-3,-6,-1,-1
1520336531278745,-6,17,-13,-22,-20,-3,0,24
1520336531278745,-30,1,11,9,4,6,2,-12
1520336531279756,9,-6,-8,-5,-3,-15,-7,-1
1520336531279756,-14,1,-13,-20,-2,2,-2,-4
1520336531293785,21,-10,4,12,-2,-3,0,-11
1520336531293785,6,1,6,9,5,-3,-5,11
1520336531294797,7,4,-10,-9,-11,0,4,7
1520336531294797,-27,-18,-2,21,21,5,0,-26
1520336531315843,1,-3,2,-8,-5,-6,-3,14
1520336531315843,48,41,-4,-10,-15,-1,4,30
1520336531317849,-42,-45,-7,-4,0,1,-1,-20
1520336531317849,15,16,-2,-6,-13,-6,1,3
1520336531337902,-3,-15,-4,-6,-14,0,-3,-19
1520336531337902,7,-4,7,6,5,-2,-2,-11
1520336531339907,6,-12,-9,-3,2,-3,-3,-10
1520336531339907,8,1,-9,-8,-14,4,2,3
1520336531352942,3,-5,-3,3,13,-3,-3,7
1520336531352942,-26,22,4,-13,-42,-11,-2,-1
1520336531358958,3,-10,2,3,-3,2,0,-7
1520336531358958,-10,0,5,8,57,10,0,11
1520336531376003,23,14,10,14,42,6,5,1
1520336531376003,-7,-20,-16,-4,-6,-4,0,-13
1520336531377006,4,9,-12,-18,-31,3,1,-7
1520336531377006,11,7,14,24,26,-8,-2,4
1520336531398062,-5,5,13,3,-29,9,2,21
1520336531398062,-6,0,-2,-8,3,-6,3,3
1520336531400068,-13,-45,-6,1,-3,-13,-5,-14
1520336531400068,27,22,1,-5,-23,-2,-1,-6
1520336531413102,6,19,-12,-7,-2,8,2,3
1520336531413102,-38,-20,-2,1,5,11,0,-24
1520336531419118,53,37,10,1,9,-4,0,35
1520336531419118,-31,-32,-13,-7,-3,4,-1,-2
1520336531436163,0,-15,1,-2,-9,-11,-1,-3
1520336531436163,10,15,3,4,1,-1,-3,1
1520336531437166,-2,-25,4,15,24,1,1,-26
1520336531437166,-26,-21,-15,-14,-28,3,-3,11
1520336531458222,11,20,-7,-25,-38,-14,-7,6
1520336531458222,-1,-19,-11,24,48,10,3,-18
1520336531460228,-3,3,5,10,28,-4,-2,5
1520336531460228,9,20,18,2,-71,19,8,2
1520336531472259,-37,-14,-21,-18,-1,-11,-9,4
1520336531472259,21,1,-16,-16,21,-16,-4,-11
1520336531481283,4,4,15,6,-23,8,-1,-4
1520336531481283,-20,-24,-7,-8,4,-11,-2,-11
1520336531495321,45,20,11,18,3,1,1,18
1520336531495321,-7,13,-12,-24,-26,1,-1,6
1520336531497327,-14,-5,-2,6,21,3,-1,-12
1520336531497327,-6,-16,-7,-10,-14,-10,-1,0
1520336531518382,-4,-11,7,12,6,5,1,-13
1520336531518382,20,9,6,9,6,-6,-6,10
1520336531520387,-19,6,2,-24,-40,7,1,13
1520336531520387,13,20,5,31,62,-1,-2,13
1520336531532419,-10,-21,-4,-4,-15,-4,-1,-6
1520336531532419,-30,3,4,-17,-33,15,1,23
1520336531541444,-5,-11,-9,6,-5,-17,-4,-24
1520336531541444,13,9,-2,-1,-13,-14,-2,-4
1520336531555481,-26,-25,-8,0,55,13,6,-29
1520336531555481,51,30,7,-8,-21,-4,-3,30
1520336531557486,-54,-32,-17,-12,1,9,-1,-9
1520336531557486,1,5,7,-1,-18,-10,1,-9
1520336531578542,5,-2,-5,-1,-22,6,5,4
1520336531578542,1,-3,15,11,2,5,-2,-6
1520336531579545,11,-7,-12,-11,6,-27,0,-16
1520336531579545,-33,9,-5,2,20,-3,1,6
1520336531591577,-18,28,4,-11,-21,8,-1,5
1520336531591577,7,-3,5,9,7,-3,0,8
1520336531600601,-6,0,0,3,6,16,2,4
1520336531600601,2,-18,4,10,9,4,-3,-16
1520336531614638,7,-2,-5,-10,-34,-21,0,6
1520336531614638,2,11,8,10,-7,4,4,16
1520336531621657,15,-12,-9,26,108,16,4,-17
1520336531621657,12,-5,-10,-2,-17,-14,-3,-13
1520336531638702,0,5,9,-6,-16,3,1,14
1520336531638702,19,16,3,3,-35,-7,1,-1
1520336531639705,-31,-23,-3,-6,-3,-3,0,13
1520336531639705,12,15,9,-2,2,-5,-4,20
1520336531651737,22,13,-2,16,23,5,2,-20
1520336531651737,-20,-20,-5,-8,18,1,-3,-10
1520336531660761,21,2,6,8,-11,0,0,1
1520336531660761,-16,-11,-16,-24,-23,-1,0,1
1520336531675801,2,11,5,0,-15,-8,-5,-9
1520336531675801,-15,-18,-11,-4,9,1,-1,-7
1520336531677806,6,11,-2,-3,-12,3,4,-5
1520336531677806,7,3,2,0,-7,-1,-2,8
1520336531697859,-4,0,10,5,13,-2,0,6
1520336531697859,-16,-8,-8,-18,-32,-1,-1,-8
1520336531699865,-17,-12,0,20,33,12,1,-10
1520336531699865,29,20,-2,-19,5,0,1,4
1520336531711897,-9,2,8,20,20,-5,2,32
1520336531711897,-2,-11,-2,6,5,6,0,-15
1520336531720921,-4,16,9,1,-26,-7,-6,17
1520336531720921,6,2,4,8,13,6,4,-6
1520336531734958,-1,-15,-13,-7,-17,-4,-4,-7
1520336531734958,18,2,12,3,6,-13,0,2
1520336531741977,-22,-30,-16,-2,-8,3,0,3
1520336531741977,-20,44,-9,-22,0,2,-5,18
1520336531758020,13,-17,-10,-8,-3,-6,-4,-14
1520336531758020,-5,-14,-8,-1,-9,-7,-5,-28
1520336531760025,29,-8,5,8,0,-2,1,-24
1520336531760025,-53,-31,-18,-18,-16,11,0,-5
1520336531781081,21,18,1,-4,-24,-5,4,15
1520336531781081,-13,-19,-11,-11,15,10,-4,-2
1520336531782084,17,5,-8,-14,6,-12,0,-30
1520336531782084,20,-20,-3,26,13,2,2,-13
1520336531795118,-3,14,8,-12,-38,-11,1,6
1520336531795118,-6,-5,-2,10,-2,7,1,8
1520336531802137,16,8,-3,-11,-8,4,-3,-6
1520336531802137,6,3,10,5,21,6,3,22
1520336531818180,-17,-22,-15,11,36,1,-3,-38
1520336531818180,7,11,-3,-9,14,3,5,4
1520336531824196,-4,17,11,-4,-76,-14,-7,24
1520336531824196,0,-6,7,15,41,7,1,-2
1520336531832217,-2,-1,-9,-13,-10,8,-1,9
1520336531832217,15,18,0,-2,5,-3,3,24
1520336531841241,-15,-8,4,2,-3,0,3,8
1520336531841241,16,-6,2,0,-10,-12,-3,-24
1520336531855278,-4,-4,3,4,13,4,0,0
1520336531855278,-8,-23,-4,5,1,-4,-1,-28
1520336531862297,11,32,-10,-20,-8,5,3,21
1520336531862297,12,-13,-4,-8,-23,3,0,-16
1520336531878340,2,-1,1,9,22,-5,-7,-1
1520336531878340,-8,-1,0,-2,-43,-7,2,-10
1520336531880345,5,-15,-8,-3,-5,-5,-2,-14
1520336531880345,-2,0,-2,4,18,5,-1,6
1520336531900398,7,1,-8,-6,-12,3,-4,-9
1520336531900398,-6,-12,-5,-1,16,0,4,12
1520336531902404,-4,-3,-5,-10,-8,-15,-4,1
1520336531902404,30,23,14,14,-24,-10,0,5
1520336531914436,-44,-36,-14,-9,1,3,2,-10
1520336531914436,9,-6,-7,-4,4,-2,-2,10
1520336531923460,16,35,28,18,5,16,1,6
1520336531923460,-31,-26,-25,-22,-5,-10,-8,-32
1520336531938500,42,22,17,19,13,3,1,28
1520336531938500,-15,16,-7,-12,3,6,-4,-1
1520336531939502,-17,-26,-10,0,14,4,-1,-15
1520336531939502,7,5,3,1,-4,-1,-1,4
1520336531951534,-10,-6,14,7,0,-3,0,2
1520336531951534,-10,2,-2,2,-8,-1,-4,1
1520336531960558,13,10,-2,-11,-26,-11,-2,10
1520336531960558,-13,-3,4,6,23,8,-3,4
1520336531975598,1,-1,-14,3,14,-8,-1,-8
1520336531975598,10,6,4,19,62,-9,2,-2
1520336531981614,-5,-4,-4,-5,-16,-1,0,-1
1520336531981614,2,0,3,5,-25,-3,-3,2
1520336531998660,0,8,-4,-13,-10,3,-3,4
1520336531998660,-21,3,0,2,0,4,1,-1
1520336531999662,25,-5,0,6,11,-2,1,-2
1520336531999662,-19,-3,-5,-13,-2,-5,2,-8
1520336532011694,27,-2,1,0,-24,3,-4,-7
1520336532011694,-8,-9,-2,0,16,-4,1,1
1520336532020718,-16,-26,-10,-5,15,3,3,-40
1520336532020718,19,19,-1,-5,-9,-1,2,13
1520336532034755,-7,-1,5,2,-1,0,1,6
1520336532034755,14,-13,-9,-15,-36,-7,-4,-14
1520336532041774,-1,3,0,5,-1,1,-3,-1
1520336532041774,9,-2,1,1,-1,-2,2,4
1520336532057817,-15,-2,-2,3,0,4,5,-5
1520336532057817,15,7,-2,2,16,-1,-4,-2
1520336532059823,-11,3,5,5,-1,-5,-1,13
1520336532059823,-2,-4,-1,-9,-48,-4,2,-4
1520336532080878,-2,0,-3,10,71,12,4,-5
1520336532080878,-8,4,4,-1,-9,-5,-3,-3
1520336532082884,-2,5,-4,-3,5,9,-1,6
1520336532082884,-11,-6,5,5,-10,-6,-2,2
1520336532094916,16,14,-3,-4,-4,-8,2,16
1520336532094916,4,-10,-5,-3,-3,4,-5,-18
1520336532101934,10,17,2,-3,8,3,2,0
1520336532101934,-18,-3,4,2,1,-3,-4,2
1520336532117977,-10,-15,-6,-8,-28,-3,-2,-8
1520336532117977,-2,0,8,9,-6,8,0,-7
1520336532119982,4,4,-13,-11,33,-1,-4,19
1520336532119982,13,-9,-7,-1,4,-1,-5,-19
1520336532132014,13,4,4,0,8,-2,-2,-2
1520336532132014,-22,-9,-2,-5,-24,-9,4,1
1520336532141039,-29,-6,1,-8,7,20,-8,9
1520336532141039,46,15,-1,15,11,-17,0,17
1520336532156078,-19,-9,-7,-16,-15,-14,-5,-16
1520336532156078,8,8,7,9,1,-9,2,8
1520336532157081,2,-11,-4,0,23,5,3,-16
1520336532157081,-18,1,7,5,-8,11,1,15
1520336532178137,0,-10,-1,-2,2,2,2,-13
1520336532178137,16,17,2,2,-11,9,-1,21
1520336532180143,7,-13,-11,-8,3,-16,4,-17
1520336532180143,7,-12,-1,4,-1,4,-3,-24
1520336532192174,-21,9,-2,-8,-9,-3,-1,17
1520336532192174,22,7,-1,-3,8,4,2,-4
1520336532201199,-3,9,2,3,-18,0,1,16
1520336532201199,11,-9,3,1,1,-8,-1,-10
1520336532216239,-26,-6,-17,-13,3,12,-2,-10
1520336532216239,8,-7,-3,-4,0,-11,-6,-2
1520336532217241,4,0,1,4,-17,-19,-3,-3
1520336532217241,-7,-3,-7,-3,18,21,-2,-3
1520336532238297,13,-2,6,1,-3,-9,5,-2
1520336532238297,-8,-1,-5,-1,3,11,4,10
1520336532240302,-2,-9,-3,-1,-16,-7,-2,-9
1520336532240302,-9,6,-1,-8,2,-14,-4,8
1520336532260356,7,-8,-5,1,11,-6,-1,-8
1520336532260356,-27,-2,-2,-2,-3,3,-1,-15
1520336532262361,39,10,7,13,3,3,-7,15
1520336532262361,-22,-9,-10,-12,-2,0,5,-4
1520336532275396,-8,1,3,2,-12,1,-3,2
1520336532275396,3,-4,4,9,12,-1,1,-16
1520336532277402,28,5,2,4,-8,1,4,7
1520336532277402,-31,-1,-10,-16,-7,0,2,6
1520336532298457,5,3,8,7,1,0,1,-2
1520336532298457,-10,-7,-3,-2,2,3,1,-9
1520336532299460,-17,-2,7,9,7,9,1,-1
1520336532299460,18,8,1,4,10,-5,0,6
1520336532320516,-2,13,7,4,-9,-9,-3,11
1520336532320516,-5,6,9,0,-11,1,-2,11
1520336532327535,-5,-6,-13,-9,1,-8,-5,-8
1520336532327535,-7,-3,-1,2,-1,-4,-4,-11
1520336532335556,-5,-1,-3,0,-22,6,1,9
1520336532335556,-2,5,2,1,12,-5,2,7
1520336532341572,9,6,3,6,-11,1,1,-2
1520336532341572,-10,-1,-1,4,70,14,3,1
1520336532358617,4,-5,4,3,-12,-10,-4,-5
1520336532358617,4,0,-6,-4,-1,7,-2,2
1520336532359623,-17,-19,-8,-7,-10,-4,0,-23
1520336532359623,19,23,4,3,-18,-6,-2,19
1520336532380676,4,-4,4,1,0,3,-2,0
1520336532380676,-32,-11,-13,-15,-1,-3,1,-12
1520336532382681,-3,4,0,-1,2,12,2,-3
1520336532382681,-3,-14,0,-2,-12,-12,3,12
1520336532394713,-10,-3,2,7,12,-2,2,6
1520336532394713,26,7,0,-2,-11,-3,-2,6
1520336532401732,-8,-4,6,2,3,0,1,-7
1520336532401732,-2,0,0,1,-4,-2,-2,-6
1520336532418777,11,13,2,1,5,4,1,8
1520336532418777,-14,-21,2,8,-1,4,-5,-8
1520336532419780,14,8,-4,0,12,-7,2,20
1520336532419780,-12,-16,-7,-4,-9,-1,-3,-16
1520336532440836,8,8,-1,-4,-5,-4,1,5
1520336532440836,-3,3,1,-1,-4,-7,-2,2
1520336532442843,-23,-12,-3,-1,0,0,0,-21
1520336532442843,3,-10,-9,-6,-14,-3,-2,-8
1520336532454873,13,-6,-5,-5,3,-2,0,-5
1520336532454873,10,3,-6,-2,-4,-7,1,-4
1520336532461892,-8,8,-5,-11,-5,5,0,2
1520336532461892,5,-8,6,7,4,3,0,-11
1520336532477935,-9,0,8,6,3,10,0,23
1520336532477935,-33,-11,-14,-11,-5,-12,-2,5
1520336532479940,12,5,3,3,-14,-2,-2,3
1520336532479940,2,3,2,-1,11,11,-1,11
1520336532500996,8,-2,-6,1,-33,-14,4,3
1520336532500996,0,-4,6,8,50,23,-3,6
1520336532501999,-16,-10,-5,-4,0,-6,-2,-10
1520336532501999,-19,-16,5,12,-2,3,-1,-19
1520336532515033,8,34,-6,-16,-16,-5,-7,27
1520336532515033,20,-6,3,2,-22,-15,0,-11
1520336532522052,-17,-9,9,8,29,4,-1,18
1520336532522052,66,40,3,3,4,-4,1,21
1520336532538095,-28,-18,0,-2,5,6,-4,-14
1520336532538095,-12,-10,-3,1,-10,-2,3,-18
1520336532540100,22,25,6,3,7,1,3,26
1520336532540100,-14,-6,-2,-10,-21,-9,-5,-11
1520336532561156,14,5,10,9,16,9,2,2
1520336532561156,13,10,1,0,-6,-2,-1,15
1520336532562159,-25,-18,1,6,-2,-5,1,-2
1520336532562159,24,2,-4,-3,-8,-5,-5,-5
1520336532575193,-6,0,-7,-6,4,-7,-3,-4
1520336532575193,-24,-8,-3,-4,1,5,1,-5
1520336532582212,10,3,-5,-5,-12,-5,-3,-10
1520336532582212,-4,7,0,-5,-17,-5,-2,8
1520336532598255,-15,-7,-1,0,-4,0,-2,-7
1520336532598255,-8,-3,-4,-1,31,-2,0,-6
1520336532600260,3,9,-9,-12,-11,1,-4,3
1520336532600260,7,24,3,-5,0,4,1,18
1520336532620313,11,-17,8,11,0,-5,-1,-16
1520336532620313,6,-11,-6,0,-7,0,-2,-24
1520336532622319,-19,21,-14,-16,-11,-5,-4,23
1520336532622319,-20,-26,-1,6,12,5,2,-10
1520336532635353,-11,-11,11,13,7,3,-2,-17
1520336532635353,32,40,8,2,-6,1,6,34
1520336532642372,7,-23,3,-2,-8,-4,0,-19
1520336532642372,-15,-10,1,9,2,-2,1,-10
1520336532658415,3,0,-8,-6,12,-1,-4,8
1520336532658415,-21,-5,1,-3,-14,4,3,-4
1520336532659418,10,-26,13,16,13,-1,-3,-25
1520336532659418,25,58,-19,-28,-23,-10,2,47
1520336532680473,-24,-18,9,19,-5,8,2,-3
1520336532680473,33,9,-5,0,27,-1,-7,12
1520336532682479,-21,-13,-6,-10,-12,9,2,-19
1520336532682479,33,-30,9,19,6,-4,-4,1
1520336532694511,-40,4,-12,-22,-15,3,2,-3
1520336532694511,2,12,7,-4,-22,-8,-5,3
1520336532703535,19,2,-7,-3,-8,-8,-7,2
1520336532703535,-20,-22,0,5,17,0,-2,-18
1520336532718576,0,1,0,5,7,-1,0,-2
1520336532718576,14,8,2,3,-7,-6,-1,26
1520336532719578,-4,2,-4,-8,2,4,3,-2
1520336532719578,-26,-14,-3,-9,0,-8,-2,-12
1520336532740633,-3,13,-1,-8,-31,-5,-3,0
1520336532740633,-23,-35,-1,10,67,2,-2,-22
1520336532742639,15,45,-4,-14,-45,-2,3,43
1520336532742639,-24,-14,-1,7,47,15,1,-10
1520336532754671,-12,-10,2,6,19,6,2,-21
1520336532754671,67,36,13,2,-31,-18,-4,30
1520336532763695,-11,-20,2,6,4,3,-2,-13
1520336532763695,-9,12,-3,-7,-18,0,2,-1
1520336532778735,9,9,5,-6,1,-7,-6,14
1520336532778735,-13,-20,-10,-2,-11,2,2,-23
1520336532779738,-9,-15,-1,5,23,-5,-1,-4
1520336532779738,5,12,2,-5,-21,-5,0,3
1520336532800793,12,-4,-1,9,21,1,-1,-3
1520336532800793,22,17,9,0,-16,1,-1,-3
1520336532802799,-30,-25,-20,-23,-49,-7,-3,9
1520336532802799,8,-12,-3,22,67,16,1,-19
1520336532814831,3,8,-12,-6,6,-2,-2,6
1520336532814831,-26,4,-3,-10,-10,1,2,-4
1520336532823855,46,-2,12,16,7,-2,1,-21
1520336532823855,-49,-22,-11,-16,-35,-3,1,-6
1520336532837892,36,6,-12,-4,-5,-5,-6,20
1520336532837892,-26,6,-11,-15,-3,2,0,1
1520336532839897,19,0,15,24,17,11,-1,-6
1520336532839897,-10,1,-10,-11,-10,-2,-1,4
1520336532860954,9,-13,3,3,3,-11,-2,-22
1520336532860954,-21,-12,-8,-3,-10,1,-2,0
1520336532861956,18,20,10,3,10,-1,0,-2
1520336532861956,-1,-3,3,2,2,0,2,11
1520336532873988,-24,-2,-6,-26,-30,-1,-4,5
1520336532873988,30,-10,-2,27,39,3,1,1
1520336532883012,-46,-1,5,4,-20,-2,0,7
1520336532883012,26,9,5,9,45,8,1,-3
1520336532898052,-3,2,0,-7,-14,-4,1,-2
1520336532898052,-9,-6,1,-7,-24,-4,1,-4
1520336532900057,-1,-3,-8,1,27,2,0,-16
1520336532900057,1,2,2,-1,-31,-7,-2,12
1520336532921114,25,16,-2,-7,3,4,-2,15
1520336532921114,-17,-18,3,1,-16,-1,0,-12
1520336532922116,-15,-7,-10,0,16,3,0,-15
1520336532922116,3,-3,4,3,-21,-19,-10,7
1520336532934148,-3,21,-3,-3,18,-5,3,3
1520336532934148,-2,-11,-10,-8,-12,2,-1,-5
1520336532943172,15,6,2,-11,2,-4,2,10
1520336532943172,-8,-21,1,15,-8,0,-2,-19
1520336532958212,15,-7,-6,-1,-3,0,1,-11
1520336532958212,-25,24,-1,-19,-14,-6,-2,17
1520336532960218,4,-28,-11,6,12,2,1,-24
1520336532960218,3,9,10,-1,-1,9,1,-2
1520336532981274,3,6,8,13,27,-1,-1,3
1520336532981274,-9,-15,-4,1,-19,2,0,-8
1520336532982277,-2,12,-4,-7,7,1,2,10
1520336532982277,6,11,-2,-4,-11,-6,-4,6
1520336532994308,0,-9,5,2,-10,0,-2,-7
1520336532994308,8,8,-3,-3,14,-1,-2,6
1520336533003333,-8,-12,-3,-9,-5,-4,0,-1
1520336533003333,-2,25,6,1,-3,0,3,-2
1520336533018372,1,3,-1,3,4,2,1,3
1520336533018372,3,-13,-3,3,2,0,-1,-5
1520336533020377,-4,25,-7,-13,-7,-5,-6,15
1520336533020377,0,0,6,0,-7,3,3,8
1520336533040431,-5,-17,9,11,2,3,-1,-6
1520336533040431,8,4,1,-13,-13,-9,-1,-3
1520336533042437,3,-1,1,25,7,-3,-2,6
1520336533042437,-7,-15,-17,-26,-12,-8,-6,-31
1520336533054468,-10,2,6,7,3,-1,3,6
1520336533054468,10,-7,-3,6,10,7,-1,-14
1520336533063492,-40,-12,-9,-16,-7,-3,1,-3
1520336533063492,17,30,9,-11,-18,-1,5,26
1520336533077530,-11,-15,-3,5,28,4,-1,-11
1520336533077530,-1,5,-4,16,2,-2,-1,11
1520336533085551,13,-10,20,19,8,3,-1,-11
1520336533085551,-18,2,-11,-17,-14,-2,-6,-7
1520336533100591,-22,-1,-1,-5,-17,-2,-1,5
1520336533100591,7,2,10,6,11,2,0,-9
1520336533102597,38,5,-10,-8,1,-3,0,5
1520336533102597,-6,-12,-11,-1,-1,1,-1,8
1520336533114628,-12,4,9,0,-5,6,-6,-5
1520336533114628,-7,-3,-14,-23,-16,-7,0,0
1520336533123652,6,-2,8,20,23,2,-2,-7
1520336533123652,-3,17,23,10,3,1,1,15
1520336533137690,-4,-8,-12,-1,7,2,0,-9
1520336533137690,4,-6,6,-8,-4,-8,1,7
1520336533144708,-10,-3,-5,-9,-51,-16,-2,-11
1520336533144708,18,-4,-6,7,17,5,1,-3
1520336533160751,2,13,-12,-12,-6,-4,0,10
1520336533160751,-17,4,8,3,-5,-1,-1,-5
1520336533162757,20,8,4,-3,13,2,0,12
1520336533162757,-31,-10,-17,-15,-12,-3,-1,-11
1520336533183812,26,14,13,5,-25,-11,-1,23
1520336533183812,24,-14,-10,-2,32,6,-4,-23
1520336533184815,-17,-6,-3,-7,-7,1,1,7
1520336533184815,16,4,6,6,9,0,-1,5
1520336533197850,4,-6,-3,0,-3,-1,0,-1
1520336533197850,-15,-19,7,10,1,3,-2,-11
1520336533204868,-8,25,-7,-18,-10,-1,-2,7
1520336533204868,6,-15,3,18,16,-1,-2,-12
1520336533220912,-16,-3,-11,-12,-3,-5,-4,2
1520336533220912,-11,2,1,0,-46,-13,1,2
1520336533222916,14,-11,-2,28,66,19,4,-13
1520336533222916,-11,-3,-4,-12,-11,-5,2,2
1520336533242970,-9,3,5,-6,-9,4,2,1
1520336533242970,7,8,6,24,-3,-2,-1,11
1520336533244975,-1,1,-6,-13,2,-3,-8,1
1520336533244975,-17,-10,-4,-5,-7,-1,-2,-14
1520336533258009,-9,-28,-2,0,4,-1,1,-20
1520336533258009,62,32,4,1,4,1,2,18
1520336533264026,-66,-27,-13,-19,-33,-3,0,1
1520336533264026,33,28,2,6,16,1,0,15
1520336533281071,-9,-12,-1,-7,-4,-5,-5,-16
1520336533281071,-2,-19,-7,0,1,3,-2,-15
1520336533282074,13,-14,-6,6,6,-1,0,-19
1520336533282074,1,-12,-6,-5,-3,-3,-3,-8
1520336533303130,-4,0,-5,-10,-20,-6,-3,5
1520336533303130,-10,7,-6,3,33,7,-1,4
1520336533305135,13,9,10,0,4,0,-1,5
1520336533305135,-20,-8,8,11,1,-3,-1,3
1520336533317167,8,19,3,7,-37,-2,2,18
1520336533317167,-18,6,3,12,76,12,-2,4
1520336533326192,6,0,0,-10,-34,-9,-5,-23
1520336533326192,0,0,3,-2,8,-1,-1,5
1520336533341231,-2,-6,3,19,20,6,4,-19
1520336533341231,10,-21,-14,-26,-27,-5,1,34
1520336533342234,-23,30,-1,5,-2,5,-1,2
1520336533342234,15,-5,1,-3,-1,3,-1,-6
1520336533363290,-5,17,4,-4,-1,-1,1,2
1520336533363290,-8,-23,-3,0,-8,-3,-3,-25
1520336533365295,7,-8,-1,1,7,-1,4,11
1520336533365295,-3,-10,-13,-6,-14,2,-1,-18
1520336533377327,13,-20,-9,0,5,-6,-3,-13
1520336533377327,-4,0,3,4,10,-3,-2,-28
1520336533386351,-1,26,-13,-19,-14,-3,2,37
1520336533386351,-8,8,9,-10,-12,-5,-2,9
1520336533400389,6,-6,2,25,28,5,-3,1
1520336533400389,-14,6,-3,-1,-22,-4,-1,3
1520336533402394,23,7,9,10,15,-3,-1,-3
1520336533402394,-17,-14,-1,4,-8,-2,-1,-3
1520336533423450,-4,18,1,-16,-3,1,0,13
1520336533423450,-9,-7,-6,-8,-17,-1,-3,0
1520336533424453,31,-14,14,22,5,4,1,-5
1520336533424453,-34,-5,-19,-19,-3,1,-2,8
1520336533437487,-5,24,7,-2,6,-1,0,13
1520336533437487,-1,42,-2,-11,-10,3,-1,3
1520336533445508,-13,-27,1,3,1,1,-2,-10
1520336533445508,3,-4,7,8,5,-6,-4,-11
1520336533460549,17,-5,-5,0,0,-5,-3,-7
1520336533460549,-21,-21,-4,3,2,3,1,-13
1520336533462554,12,20,4,-13,-12,-6,-2,19
1520336533462554,-3,6,-4,-2,3,-2,2,18
1520336533483610,-30,-10,4,-2,1,2,-2,1
1520336533483610,9,8,4,-11,-20,-11,-2,8
1520336533484613,-5,-30,-10,28,36,7,0,-34
1520336533484613,18,-6,9,16,-1,-1,0,-1
1520336533496645,6,15,-13,-18,0,0,2,12
1520336533496645,-1,9,4,-9,-13,-1,-1,8
1520336533505668,-12,-14,0,-1,-5,-1,-1,-8
1520336533505668,4,31,7,4,8,-3,3,13
1520336533520708,9,-27,-5,6,-1,3,-2,-13
1520336533520708,-2,-5,2,4,7,0,-2,-2
1520336533522714,-25,-4,-8,-10,-7,-4,-1,2
1520336533522714,37,90,17,5,2,1,0,13
1520336533543770,9,-7,5,-3,-6,-4,-1,4
1520336533543770,-9,-9,3,4,1,-3,0,-12
1520336533544773,7,-8,-10,-12,-7,-1,-2,5
1520336533544773,-19,-38,-5,4,1,-2,-2,-28
1520336533556805,15,7,0,1,1,-7,0,17
1520336533556805,-15,0,-7,-14,-5,1,-2,7
1520336533565829,3,-1,5,-1,-5,-2,-1,-7
1520336533565829,31,-25,-6,8,5,-3,-2,-4
1520336533580869,-46,-5,-7,-10,-1,10,2,10
1520336533580869,8,-12,-5,6,4,1,-2,-17
1520336533582874,-3,16,-3,-9,-6,-5,1,12
1520336533582874,-21,-37,1,2,-15,3,-4,-37
1520336533602927,34,34,-2,-10,4,-10,-3,39
1520336533602927,-28,-6,-21,-7,10,7,2,-15
1520336533604933,17,-5,2,0,-8,2,-1,-17
1520336533604933,-6,-19,-6,0,-1,-2,-1,-6
1520336533616965,-11,-9,2,0,-11,1,2,-18
1520336533616965,22,31,7,-4,-11,-10,-3,34
1520336533625989,-1,5,-3,-4,3,-3,-1,0
1520336533625989,2,-9,-4,-7,3,0,0,3
1520336533641029,3,-1,3,-11,-39,-11,-3,-8
1520336533641029,14,-16,-6,21,26,5,2,-25
1520336533642031,-4,2,-3,-9,4,2,-3,7
1520336533642031,-15,0,0,9,8,0,2,2
1520336533663087,-15,0,-3,-5,6,3,-2,-9
1520336533663087,23,18,0,-12,-11,-5,2,11
1520336533665093,-1,-11,4,7,-8,0,-1,-7
1520336533665093,26,2,-7,-14,-11,2,1,13
1520336533677125,-5,3,-10,-1,14,0,-5,6
1520336533677125,8,-13,11,12,2,-1,-1,-24
1520336533686149,-18,-3,-11,-4,-4,-1,1,9
1520336533686149,40,35,6,-2,3,1,-2,30
1520336533701188,-28,-35,4,7,0,4,-2,-22
1520336533701188,-1,6,3,-7,1,-3,-1,19
1520336533702192,14,10,6,27,29,0,0,-8
1520336533702192,-31,-20,-5,-20,-30,-5,-2,-13
1520336533723248,27,26,11,43,72,4,1,12
1520336533723248,-23,-8,0,-13,-30,1,1,-1
1520336533725253,-5,12,7,-25,-9,-15,-7,17
1520336533725253,-10,-8,-12,7,-4,14,8,4
1520336533737285,-7,-5,4,6,21,-9,-2,-10
1520336533737285,17,-13,2,16,2,1,-1,-8
1520336533746309,-13,1,-5,6,13,5,0,-12
1520336533746309,-1,-1,2,2,0,-5,-2,2
1520336533760346,19,4,4,-8,-27,-1,2,4
1520336533760346,-42,-24,-16,-11,4,2,-1,-4
1520336533762352,9,-19,-6,-3,-13,-2,0,-2
1520336533762352,0,23,1,-8,0,-5,-2,7
1520336533783407,-27,-17,-3,-7,-26,4,1,-15
1520336533783407,16,-2,-8,5,14,-7,-8,-2
1520336533785413,3,-3,-1,-3,-4,1,0,5
1520336533785413,-14,-3,5,11,23,-1,0,-8
1520336533797445,5,5,3,-12,-14,0,0,14
1520336533797445,7,4,-5,-12,-30,-6,-1,-9
1520336533806469,3,-3,-15,-17,-24,-5,-3,-34
1520336533806469,2,-8,-2,13,30,-2,0,-11
1520336533820506,9,-2,-7,-1,-6,-1,0,-10
1520336533820506,-26,-7,1,-14,-8,0,3,17
1520336533822511,3,8,4,-1,-15,-2,1,9
1520336533822511,13,34,8,0,-1,-4,-1,17
1520336533843567,-5,-21,-5,-1,-5,3,1,17
1520336533843567,-1,27,4,6,9,4,1,-21
1520336533844570,-9,-28,-1,6,-1,3,-2,-8
1520336533844570,6,9,5,5,3,-2,-3,-4
1520336533856602,-9,27,-9,-31,-41,-7,-1,36
1520336533856602,20,-26,-9,10,15,1,0,-5
1520336533865626,8,-17,-17,0,26,0,-3,-7
1520336533865626,2,-11,-6,11,41,4,-6,-53
1520336533880666,-6,-1,-6,-43,-92,-12,-5,-34
1520336533880666,-1,3,8,25,12,-1,5,11
1520336533882671,12,6,-3,23,18,7,4,5
1520336533882671,0,-19,-15,-20,4,-3,-3,-6
1520336533903727,8,-5,0,25,46,0,4,-16
1520336533903727,-10,18,13,-17,-14,-1,-4,17
1520336533904730,-22,-8,6,-4,-23,-2,-1,-23
1520336533904730,30,9,0,-6,-31,-3,2,54
1520336533916762,-25,7,-12,-13,10,0,1,2
1520336533916762,5,-3,6,-3,-10,-2,-1,-2
1520336533925787,-1,0,3,2,8,-2,2,11
1520336533925787,-12,-3,3,2,-6,-1,-1,-2
1520336533939823,13,-3,6,9,13,0,-3,-6
1520336533939823,4,5,1,12,22,9,0,4
1520336533946842,1,-2,-2,-12,-17,-7,-1,-2
1520336533946842,-4,21,5,-10,-2,-4,-4,22
1520336533962885,-6,2,8,9,-8,-1,0,8
1520336533962885,-3,4,5,20,57,5,4,9
1520336533964890,-20,9,13,16,3,3,-3,7
1520336533964890,-15,3,0,-15,-47,-2,2,14
1520336533985946,4,-6,-11,12,55,3,-2,-14
1520336533985946,-1,3,2,-7,-12,-5,0,6
1520336533986949,19,13,18,10,3,1,1,10
1520336533986949,-29,-19,-16,-13,-8,-4,-2,-4
1520336533999984,22,4,-11,-7,-38,-4,-2,3
1520336533999984,2,4,-3,-14,12,2,-1,-2
1520336534007002,15,-4,-4,-3,7,2,0,-9
1520336534007002,-13,-12,1,6,-5,0,0,-20
1520336534024047,10,-24,-4,6,15,5,-1,-14
1520336534024047,4,27,-3,-12,-33,-6,3,24
1520336534026053,-17,6,-3,-4,-1,4,0,11
1520336534026053,6,-5,6,6,25,0,-1,4
1520336534046106,-1,-8,2,16,12,-2,0,-10
1520336534046106,4,-6,-3,-6,-25,2,1,-11
1520336534047109,6,6,-3,-3,-3,-1,2,13
1520336534047109,-13,15,15,17,57,4,1,13
1520336534059142,0,4,9,31,24,3,-2,-8
1520336534059142,-5,-2,2,6,9,5,-1,-2
1520336534069167,-2,1,-7,-15,-3,-12,-4,-2
1520336534069167,-3,-14,-1,-4,-35,-1,2,1
1520336534082202,-1,-12,-6,-7,-15,-8,-1,-11
1520336534082202,-25,1,-11,-10,10,-1,-2,4
1520336534083205,-9,9,-7,-14,-16,2,-4,4
1520336534083205,4,-13,-7,3,1,-2,1,-12
1520336534106266,-5,-9,-6,-12,-4,-2,-6,-12
1520336534106266,19,-15,-3,4,-14,-7,-1,-20
1520336534107270,-3,-7,-4,0,2,-1,1,-2
1520336534107270,0,-3,-7,-13,-18,-1,0,5
1520336534120303,-1,29,22,25,30,6,4,26
1520336534120303,1,-12,-10,-6,-23,0,-7,-18
1520336534127322,13,-2,-5,-8,-20,-8,0,-11
1520336534127322,8,3,5,-1,15,3,3,6
1520336534143365,3,-15,-17,-15,-1,-3,-1,-27
1520336534143365,4,2,0,24,11,3,3,13
1520336534145370,0,-1,-1,7,28,5,3,5
1520336534145370,-9,-8,-4,-8,-52,-7,-4,-12
1520336534165423,3,16,2,-7,4,-5,-2,14
1520336534165423,-17,-13,-10,-15,-7,-5,-1,-9
1520336534165423,-6,1,-2,-4,-13,5,0,3
1520336534165423,0,-8,2,12,12,-10,-3,-15
1520336534179461,-1,5,-7,-16,-10,-5,-1,9
1520336534179461,-1,9,11,4,5,2,-3,-1
1520336534187482,-8,3,4,4,0,9,0,4
1520336534187482,9,-7,-7,-10,14,-20,-2,-11
1520336534202522,-4,4,15,29,7,2,-1,7
1520336534202522,4,-7,-10,-23,5,18,-3,-7
1520336534203525,-13,-9,-9,-15,-39,-27,-4,-9
1520336534203525,10,1,-3,6,4,4,-2,-7
1520336534225585,-6,2,4,-19,-52,-11,1,9
1520336534225585,-2,7,7,6,22,5,4,9
1520336534225585,1,0,-4,-13,-32,1,-3,-3
1520336534225585,-3,13,16,39,35,15,4,18
1520336534248645,-1,-12,-16,-20,-3,-9,-5,-19
1520336534248645,-2,1,1,0,-12,-7,-3,-3
1520336534248645,11,-6,-4,-1,17,-2,-3,-2
1520336534248645,-16,-3,-7,-16,-38,-1,-5,-5
1520336534262682,5,-7,4,8,12,11,0,-1
1520336534262682,-7,12,-10,-10,-5,-11,-3,11
1520336534263685,-7,10,11,7,10,2,3,6
1520336534263685,2,-3,-4,-7,-7,-1,-1,1
1520336534284741,-8,10,15,26,38,10,2,-2
1520336534284741,6,-22,-13,-9,-11,-3,-3,-14
1520336534285743,3,11,12,12,20,0,-1,2
1520336534285743,-18,9,5,0,-12,3,-1,21
1520336534299781,16,1,-7,-1,24,-5,1,-1
1520336534299781,-11,-3,6,-15,-51,-7,-1,4
1520336534307802,4,1,2,36,52,5,1,-5
1520336534307802,1,-17,-2,2,19,18,0,-10
1520336534322842,4,9,-5,-23,-37,-16,-2,22
1520336534322842,-2,4,-1,0,2,0,0,-2
1520336534323845,-8,-12,-6,-13,-11,-2,-8,-22
1520336534323845,30,2,1,5,-2,-1,-1,-16
1520336534344901,-28,-19,-2,5,1,5,-1,-9
1520336534344901,-19,17,-8,-10,-3,-3,-2,29
1520336534345904,3,-5,4,-7,-13,-3,-2,7
1520336534345904,8,-8,-10,-7,-5,-10,0,1
1520336534367962,11,-3,0,-6,-14,3,-2,-12
1520336534367962,24,-10,10,26,19,-4,1,-3
1520336534367962,-30,-3,-5,-15,-8,-2,-2,-14
1520336534367962,-11,2,-7,-16,-14,0,-4,6
1520336534383002,26,3,2,-3,-13,3,4,3
1520336534383002,-2,2,2,20,46,9,2,6
1520336534383002,0,11,1,-11,-14,-5,-3,1
1520336534383002,-55,-34,-5,7,10,-2,-2,-12
1520336534405061,10,28,6,-1,4,2,-2,8
1520336534405061,2,13,3,0,-6,-3,2,19
1520336534406064,1,-8,-1,-6,-17,-14,-7,-4
1520336534406064,16,6,-1,7,33,17,4,-13
1520336534427119,-37,-18,3,5,-3,-3,-3,-7
1520336534427119,13,-8,-7,-11,-12,-6,-2,-28
1520336534428122,6,16,-11,0,3,1,4,29
1520336534428122,8,-2,10,-2,-19,-5,-2,12
1520336534442160,6,-12,-7,0,8,4,1,-14
1520336534442160,-9,-12,-1,-9,-10,13,-2,-23
1520336534443162,42,-13,2,-3,-10,-13,1,-5
1520336534443162,-9,12,-2,23,50,4,2,14
1520336534465221,-21,-11,-2,3,2,1,-3,-18
1520336534465221,45,7,1,0,-13,-9,1,4
1520336534466224,0,7,0,-4,-2,10,-1,18
1520336534466224,3,-3,2,-6,-15,-5,-2,-2
1520336534479258,-12,1,3,2,0,-4,2,0
1520336534479258,-12,-23,1,7,-1,-5,-1,-20
1520336534487280,11,3,-7,2,11,3,2,11
1520336534487280,7,7,-8,-15,-14,-9,0,3
1520336534502320,-15,-5,-1,4,8,5,-1,-2
1520336534502320,16,15,4,-2,-7,-6,-5,2
1520336534503322,-34,-16,1,-2,0,12,6,-8
1520336534503322,-27,9,-8,-2,7,-5,1,4
1520336534525382,14,-15,6,6,3,-2,-2,-7
1520336534525382,6,16,-6,-15,-12,-3,0,18
1520336534526384,-22,-19,2,18,27,3,-1,-32
1520336534526384,68,15,0,-9,-21,-14,-3,20
1520336534539418,-54,-5,-15,-16,-6,4,1,10
1520336534539418,13,-17,-2,14,5,2,-2,-8
1520336534547439,-1,-18,0,12,1,0,-1,-16
1520336534547439,-8,17,-2,-9,-9,5,-3,10
1520336534562480,14,5,5,0,-1,-3,1,18
1520336534562480,9,-7,5,4,-4,-5,-3,-4
1520336534563483,-33,15,-13,-18,-11,-1,-1,5
1520336534563483,20,-13,16,20,7,-1,1,-13
1520336534585541,11,15,-7,-14,-4,-1,-1,19
1520336534585541,-46,-20,-1,2,8,2,-2,-12
1520336534585541,32,-1,10,7,5,2,-3,-9
1520336534585541,-19,14,-4,-4,-7,1,3,13
1520336534599579,-10,10,-7,-18,-12,3,0,6
1520336534599579,5,-4,7,15,21,-1,0,-1
1520336534607599,13,8,4,5,8,1,0,1
1520336534607599,15,-4,2,2,-5,-1,-3,-20
1520336534622640,-19,-7,-7,-1,-7,-5,2,7
1520336534622640,-6,10,-3,-10,-7,10,3,9
1520336534623643,7,4,4,4,2,-6,-1,13
1520336534623643,-21,-7,1,-3,-7,5,-4,-14
1520336534644699,24,-3,1,9,4,-7,-2,-2
1520336534644699,-12,-6,-13,-20,-14,-10,-3,-7
1520336534645702,-7,10,2,-3,-2,2,0,10
1520336534645702,8,-6,2,-1,-3,-1,0,-2
1520336534659739,-8,2,5,6,6,3,-4,-10
1520336534659739,-22,6,-10,-14,-9,-4,0,16
1520336534667760,10,-8,2,4,-3,-1,-5,-9
1520336534667760,-23,15,-10,-19,-11,-6,-4,16
1520336534682800,20,-7,1,5,5,3,0,-14
1520336534682800,3,5,2,3,5,-1,1,-4
1520336534683803,-8,-15,-4,0,0,3,-1,-13
1520336534683803,-1,-18,-4,1,6,-6,0,-19
1520336534704858,4,31,5,-1,-4,2,5,21
1520336534704858,-4,-8,2,2,3,-2,-5,-4
1520336534705861,-1,4,0,9,17,0,-2,8
1520336534705861,-6,-4,7,0,-8,15,6,-13
1520336534727921,18,6,2,2,2,-12,-3,3
1520336534727921,-13,-7,0,6,8,-2,-2,-6
1520336534728923,13,20,3,-6,-18,-2,-2,14
1520336534728923,30,0,0,2,6,4,5,17
1520336534742960,-20,-20,-6,0,-2,-7,-6,-11
1520336534742960,11,10,-4,-6,-8,-1,1,0
1520336534743963,-5,-7,4,2,2,-2,-2,-29
1520336534743963,-9,-17,3,11,5,-4,-2,0
1520336534765018,1,11,-17,-17,-10,5,-1,25
1520336534765018,-31,-10,1,0,2,1,-2,-26
1520336534766021,29,16,-8,-9,-6,-3,0,42
1520336534766021,-42,-13,-8,-8,-3,2,-5,-34
1520336534796101,22,-11,11,18,9,1,0,7
1520336534796101,-11,-12,-11,-11,-5,-2,3,2
1520336534797104,-15,-10,6,3,-1,-1,1,-14
1520336534797104,8,-2,-5,-1,-5,-3,-3,-9
1520336534802117,-3,5,-5,-7,2,1,-2,7
1520336534802117,11,5,9,2,-3,-9,-6,3
1520336534803120,-2,-12,-13,-3,8,9,4,-13
1520336534803120,6,6,8,2,-6,-5,-1,10
1520336534825178,-1,2,0,3,15,-6,-1,3
1520336534825178,5,-4,-5,-6,-18,4,-2,0
1520336534826181,-9,-6,7,-3,2,0,-2,-25
1520336534826181,7,7,4,8,-2,-1,-7,40
1520336534847237,-35,-4,-11,-21,-3,13,3,5
1520336534847237,2,-4,0,2,2,-5,0,-5
1520336534848240,1,2,-2,-2,0,-4,-1,19
1520336534848240,-19,1,-1,-1,-4,-4,-1,-36
1520336534862277,12,-10,0,2,-9,-1,-4,-9
1520336534862277,8,5,-8,-2,6,2,3,19
1520336534863280,-9,7,2,-1,-1,1,1,9
1520336534863280,8,-7,-4,-2,-5,-8,-2,-24
1520336534885338,8,6,3,5,0,1,1,-16
1520336534885338,5,-6,4,5,3,3,-2,-19
1520336534886341,-2,5,5,-6,-24,-11,-4,32
1520336534886341,-5,12,-7,-11,-24,6,-2,16
1520336534907397,7,-3,4,12,70,8,-2,4
1520336534907397,17,9,7,12,-2,-5,3,10
1520336534908400,-13,-7,-11,0,13,-4,-10,-31
1520336534908400,-9,-8,-2,-1,-16,-7,1,9
1520336534922437,8,8,20,10,-36,-9,-5,-4
1520336534922437,-26,-5,-25,-32,-18,5,-1,-4
1520336534923440,4,3,5,0,-7,0,3,4
1520336534923440,-8,-6,-1,3,8,1,-7,2
1520336534945499,13,6,-6,-12,1,-5,-1,-46
1520336534945499,1,1,13,15,17,-5,5,44
1520336534946501,0,6,2,-4,-9,3,-2,16
1520336534946501,-14,-1,-1,-2,14,3,1,-17
1520336534967557,14,-5,-3,0,-11,2,3,-15
1520336534967557,0,5,4,1,2,1,-5,-6
1520336534968560,-13,3,-6,-11,-7,-5,-1,0
1520336534968560,9,6,11,8,6,-6,0,5
1520336534982597,-5,-14,-15,-16,-32,-21,-11,-28
1520336534982597,10,7,13,17,23,11,3,-3
1520336534983600,0,-10,-2,2,-2,-2,0,-22
1520336534983600,-10,0,1,-1,15,4,-1,29
1520336535004656,19,13,-1,-4,-28,4,5,6
1520336535004656,-7,3,-7,-12,11,2,-7,-12
1520336535005659,-7,-6,-7,-1,3,-6,-2,-6
1520336535005659,10,-7,2,2,2,-4,2,-9
1520336535027717,-14,0,1,1,-11,-1,-2,14
1520336535027717,0,-5,-1,0,-8,1,-2,10
1520336535028720,7,9,3,3,6,0,-2,-4
1520336535028720,-7,4,-5,-3,-4,-6,0,-4
1520336535042758,-5,-9,-3,0,2,1,-6,6
1520336535042758,-3,-12,-7,-3,-1,-24,-1,1
1520336535043760,7,5,3,7,20,9,0,6
1520336535043760,-12,7,-4,-9,-16,-7,2,1
1520336535064816,-8,-10,-2,-3,-4,6,1,9
1520336535064816,4,-3,6,6,-19,-6,-2,-5
1520336535065819,-1,6,4,-1,27,26,1,14
1520336535065819,-5,-8,-15,-1,31,-12,-4,-5
1520336535087877,3,-6,0,8,0,5,-2,-14
1520336535087877,-9,-10,-3,-6,-16,-5,-6,-21
1520336535088880,5,-18,5,8,-13,-7,-2,4
1520336535088880,35,44,-4,-17,-16,2,4,54
1520336535102917,-46,-25,5,9,22,14,2,5
1520336535102917,21,5,-8,-6,4,-2,-2,-12
1520336535103920,-2,7,-7,-10,-11,-7,-3,0
1520336535103920,6,-11,7,6,12,6,1,-25
1520336535124976,-2,-2,-2,-1,-10,-11,-1,11
1520336535124976,-7,-8,-3,2,-2,16,1,-7
1520336535125979,3,3,-1,-3,-2,-21,-3,-8
1520336535125979,-9,6,11,9,6,5,3,19
1520336535148037,4,6,0,0,23,4,9,-4
1520336535148037,4,2,8,6,3,19,1,0
1520336535148037,-2,-3,-3,-1,-3,-20,-3,3
1520336535148037,-6,1,0,-14,-36,5,-1,-6
1520336535162075,-5,7,11,13,13,-4,-3,17
1520336535162075,20,-7,-15,-5,-21,-2,5,-17
1520336535170096,-11,-8,14,17,25,9,2,16
1520336535170096,-12,20,-17,-11,11,1,-5,8
1520336535185136,5,-7,-4,-11,-30,-5,-2,-11
1520336535185136,-8,2,3,-3,16,-8,-3,5
1520336535186139,-1,2,7,5,-26,0,1,-2
1520336535186139,-22,-32,-8,-3,-11,-6,-3,-24
1520336535207195,24,30,-5,-8,12,6,-3,15
1520336535207195,-3,-4,1,-2,-6,2,-2,-3
1520336535208197,-11,-1,4,2,1,2,3,-8
1520336535208197,5,-7,2,12,19,10,-5,8
1520336535222235,11,1,0,4,-7,-10,8,1
1520336535222235,-9,4,6,8,30,-5,0,8
1520336535230257,5,15,3,-5,-22,3,3,-2
1520336535230257,6,0,10,9,35,11,3,2
1520336535245296,-19,-6,6,18,-4,-4,2,-3
1520336535245296,-2,8,0,-7,13,5,1,9
1520336535246299,14,6,-2,-16,-43,-20,3,37
1520336535246299,-15,-9,-3,13,56,21,5,-15
1520336535267355,-1,-16,-6,-10,-7,-13,-7,-22
1520336535267355,-5,0,-1,3,10,1,-2,-1
1520336535268357,14,-7,-7,-5,-8,-3,-3,-10
1520336535268357,0,10,0,-18,-50,-13,-1,12
1520336535282395,-15,-7,3,3,23,15,5,6
1520336535282395,20,-11,-12,-5,-17,-7,0,-15
1520336535283398,-10,1,0,1,3,4,-2,-1
1520336535283398,11,0,5,6,-10,-9,-5,0
1520336535305456,-4,-3,-11,-6,6,1,-1,-8
1520336535305456,-9,6,9,4,-18,-4,-4,7
1520336535306459,-3,2,-1,3,8,4,-2,0
1520336535306459,1,6,5,8,33,3,2,-3
1520336535327515,-3,-8,-8,-15,-42,-15,-4,-8
1520336535327515,6,5,18,23,46,22,4,25
1520336535328518,-22,21,-21,-32,-24,-9,-5,7
1520336535328518,1,-22,-2,-1,-18,-9,-6,-17
1520336535342555,18,1,2,5,3,1,2,-7
1520336535342555,-11,-8,-2,8,-21,-10,-4,-7
1520336535343558,19,0,-5,12,43,22,5,-13
1520336535343558,-13,-7,-20,-25,-31,-20,-11,-2
1520336535365616,-9,11,6,-6,-13,-14,-3,8
1520336535365616,-6,-3,-4,-6,-19,2,-2,-12
1520336535365616,25,3,12,15,8,-11,-1,21
1520336535365616,-14,-5,-3,-4,-4,4,1,-9
1520336535387675,5,-6,-4,3,7,1,-1,-5
1520336535387675,-12,-1,-2,-9,-4,-5,-1,4
1520336535388677,1,-9,-4,1,2,1,-1,-6
1520336535388677,7,-5,-2,-6,-13,0,-1,-15
1520336535401712,-3,3,0,-3,8,6,-3,9
1520336535401712,0,1,0,2,-2,-7,-2,2
1520336535409734,-17,-9,-9,-22,-42,-7,-6,-10
1520336535409734,19,-5,1,17,43,5,4,-3
1520336535424773,-4,-4,3,11,16,17,1,2
1520336535424773,20,11,10,-1,-7,-18,-2,1
1520336535425777,-4,-9,-12,-10,-10,-4,1,4
1520336535425777,4,23,5,-4,-15,1,-1,16
1520336535447835,-14,-11,-5,-2,-1,-1,1,7
1520336535447835,10,0,-6,-1,5,6,2,-3
1520336535448838,-7,-7,12,16,17,-3,-1,-6
1520336535448838,10,6,5,3,-8,10,2,-16
1520336535470896,-2,-14,-13,-16,-6,-10,-6,-9
1520336535470896,16,9,-7,-8,-9,2,-1,-11
1520336535471899,-26,-5,-3,2,10,4,0,-3
1520336535471899,2,-2,5,6,4,-10,1,10
1520336535484933,7,1,-4,-13,-23,4,-1,-10
1520336535484933,-10,-7,-6,-4,-15,-9,-1,2
1520336535485936,5,-12,-11,-4,32,6,-3,-19
1520336535485936,3,0,3,11,-6,-4,1,8
1520336535507995,9,7,8,9,12,-1,-1,-1
1520336535507995,-14,3,-4,-13,-20,-6,-2,13
1520336535507995,-6,10,2,6,5,10,1,-2
1520336535507995,-8,-3,-5,-5,8,-3,-4,0
1520336535522032,17,-9,2,5,4,-3,0,-2
1520336535522032,-48,-15,-9,-3,8,5,-3,-7
1520336535530054,18,2,8,7,0,-3,-1,9
1520336535530054,-1,-4,-5,-2,-4,-9,-4,-2
1520336535546096,-5,9,1,5,3,8,2,-8
1520336535546096,11,-3,1,-2,10,5,-3,-11
1520336535553115,-12,-23,-5,6,0,-2,-2,-3
1520336535553115,-15,13,-2,-16,-14,0,2,33
1520336535568155,7,9,-5,-8,-8,-12,-5,14
1520336535568155,-6,3,5,8,-1,6,3,4
1520336535568155,3,-2,-6,1,21,3,0,-10
1520336535568155,11,-11,3,6,-15,-2,-2,-20
1520336535582192,-16,-6,-6,2,13,2,0,-4
1520336535582192,10,3,7,2,15,-1,-3,-6
1520336535590214,-4,1,-10,-15,-26,-3,3,26
1520336535590214,12,-1,-10,-13,-11,0,-4,-39
1520336535605254,-1,0,4,2,9,-1,-4,1
1520336535605254,-11,-24,-8,-3,3,-6,1,-1
1520336535606256,15,-8,9,13,3,0,-3,-27
1520336535606256,5,37,-5,-13,-11,-1,2,48
1520336535627312,-12,-6,-2,-4,-8,5,0,-6
1520336535627312,-2,2,5,7,6,2,0,-5
1520336535628315,-6,-4,2,5,5,1,2,22
1520336535628315,7,-16,-6,0,-11,-6,-5,-41
1520336535642353,9,5,1,2,6,9,2,11
1520336535642353,6,0,-6,-4,0,-3,-3,16
1520336535650374,-10,3,5,-1,-16,-6,0,-6
1520336535650374,4,-17,-3,8,24,4,-2,0
1520336535665414,-5,-2,-8,0,0,-3,-1,4
1520336535665414,-4,1,-2,-3,-6,0,1,-7
1520336535666416,14,6,0,-5,-7,0,0,11
1520336535666416,-17,-7,7,8,2,-1,0,13
1520336535687472,20,3,-4,-10,-7,-5,-5,-19
1520336535687472,-13,-15,-2,10,1,2,-1,-13
1520336535688475,13,47,5,-9,1,-4,-1,15
1520336535688475,-4,-6,6,2,0,0,3,7
1520336535701510,-3,4,-3,0,-1,3,-2,-6
1520336535701510,-2,2,2,1,3,-3,-2,-28
1520336535717552,-9,-3,6,6,-10,2,0,-1
1520336535717552,3,-4,5,4,6,-8,0,11
1520336535725574,20,7,1,-2,-3,0,5,32
1520336535725574,-1,19,8,4,-1,2,0,17
1520336535725574,-16,-5,1,-2,-1,0,1,5
1520336535725574,1,13,7,7,-3,3,1,12
1520336535747632,-3,-11,-5,-1,-6,-5,-3,-6
1520336535747632,-1,-4,-1,-3,1,-3,-1,1
1520336535748635,13,0,-4,-5,1,-1,-1,6
1520336535748635,-7,-18,-5,-4,-2,5,3,15
1520336535761670,-8,2,0,2,-2,-2,-3,-17
1520336535761670,-2,-4,-7,-4,2,3,0,0
1520336535769691,-3,0,6,6,6,1,0,11
1520336535769691,-5,-9,-6,-3,-9,-4,-3,2
1520336535784731,4,-4,-2,2,10,4,5,7
1520336535784731,-19,3,2,-6,-9,0,2,18
1520336535785734,-1,0,5,8,5,1,-2,-8
1520336535785734,3,-6,-9,-1,-3,-8,-2,-17
1520336535807792,11,4,3,4,2,0,1,0
1520336535807792,6,1,-7,-12,-9,-7,-7,1
1520336535808795,0,-11,-2,-4,-7,6,3,6
1520336535808795,-4,3,-2,-1,17,4,-4,-36
1520336535829851,-2,-21,-14,-19,-23,-16,-11,-40
1520336535829851,6,2,0,3,5,4,2,7
1520336535830854,1,-2,-6,-4,-5,-4,-3,-8
1520336535830854,2,-6,0,0,-7,3,-1,-5
1520336535844891,-4,1,3,6,13,5,3,14
1520336535844891,5,-2,-5,-6,-6,-4,-3,-22
1520336535845894,-7,-13,-13,-13,-6,-6,-6,-15
1520336535845894,11,14,3,-2,-1,4,3,14
1520336535867952,5,-1,-3,-6,-4,-1,4,0
1520336535867952,16,0,0,7,-1,-4,-3,5
1520336535867952,-25,-11,1,3,4,3,-2,-29
1520336535867952,1,3,5,6,0,0,-2,0
1520336535890011,-3,-9,-6,-1,5,1,-2,-1
1520336535890011,-3,15,2,-4,-11,-2,0,31
1520336535891014,4,0,-3,1,13,1,2,10
1520336535891014,-3,8,10,7,-5,-7,-2,-4
1520336535905051,-9,-1,3,0,-3,0,0,0
1520336535905051,5,-8,1,2,4,1,1,-3
1520336535906054,2,2,0,-3,-5,0,-3,-8
1520336535906054,-2,-8,-9,-5,-5,-3,-2,2
1520336535928112,6,0,-2,-1,-6,1,-3,-1
1520336535928112,11,-26,-16,-5,18,0,0,-5
1520336535928112,-15,10,-1,-1,-8,-4,0,5
1520336535928112,-2,20,6,-1,7,10,0,-13
1520336535950171,2,-8,5,3,-6,-8,-3,-14
1520336535950171,-13,-1,0,-6,-7,0,0,15
1520336535951174,11,-18,-10,-1,3,5,-4,-15
1520336535951174,-12,-2,-2,-3,-3,-9,-7,-20
1520336535965211,-18,25,7,0,3,-1,2,25
1520336535965211,-5,0,5,0,-1,2,0,-19
1520336535966214,6,-4,-2,4,2,-5,-2,1
1520336535966214,13,-11,-5,-4,-3,4,-1,-16
1520336535987270,-28,-1,-4,-5,2,-4,2,24
1520336535987270,11,5,5,3,-2,-2,-2,1
1520336535988272,-3,-2,3,-2,-4,-6,-5,-6
1520336535988272,17,-14,-7,4,3,2,-2,-15
1520336536010331,19,-3,-2,-2,-3,2,-1,15
1520336536010331,-49,9,1,1,-1,-1,1,-17
1520336536011334,19,17,-4,-10,-6,-3,-2,27
1520336536011334,0,-14,2,6,5,3,1,-7
1520336536024368,-43,2,-3,-2,0,3,2,34
1520336536024368,10,8,10,6,-2,-3,-11,-34
1520336536032390,20,0,1,7,2,-1,0,-7
1520336536032390,-12,-10,4,5,1,-3,3,5
1520336536047430,21,-1,-2,3,0,-3,1,2
1520336536047430,-13,13,-6,-12,-3,2,0,31
1520336536048432,-10,-3,11,7,6,2,1,-20
1520336536048432,7,22,-1,-9,-10,3,1,57
1520336536070491,27,1,14,10,19,12,3,-20
1520336536070491,30,-24,10,18,-5,-7,-1,-38
1520336536071494,2,49,-16,-29,-20,-5,2,80
1520336536071494,-19,-5,-4,15,21,3,-1,-26
1520336536085531,-8,-7,-4,4,-2,3,-2,-24
1520336536085531,10,-10,-4,-1,1,0,-1,9
1520336536085531,6,-27,3,7,-4,-3,-1,-29
1520336536085531,-5,28,6,-7,-10,-2,3,16
1520336536107590,0,8,-7,-10,-6,-8,-2,-5
1520336536107590,8,-3,-2,5,5,4,2,2
1520336536108593,29,-15,3,10,4,2,2,-34
1520336536108593,-89,-20,-13,-10,-1,2,1,12
1520336536130651,51,11,-8,-7,-6,-15,-5,0
1520336536130651,-16,2,11,4,9,8,6,13
1520336536130651,-10,-16,0,3,2,1,-5,-41
1520336536130651,30,4,-3,-4,-7,-10,2,7
1520336536144689,-11,0,1,5,-5,2,-1,0
1520336536144689,12,8,-2,-5,-2,4,2,5
1520336536145691,-15,-11,-16,-9,0,-13,-9,1
1520336536145691,13,-11,3,4,-3,-4,1,-7
1520336536167750,-12,-11,-3,0,1,4,-5,-13
1520336536167750,29,36,-3,-11,6,2,6,45
1520336536168753,-33,-11,4,2,-8,-3,-1,-10
1520336536168753,26,-18,-1,3,2,-2,-5,-31
1520336536189808,-20,13,-2,-5,-7,-4,3,31
1520336536189808,-19,-22,-19,-15,-20,-17,-14,-12
1520336536190812,35,1,3,9,23,-1,2,16
1520336536190812,-34,-15,-7,-12,-6,10,0,-8
1520336536204849,9,8,9,17,5,-7,-1,-36
1520336536204849,-26,8,-17,-15,-4,2,1,13
1520336536205851,3,-2,6,1,-5,3,0,-3
1520336536205851,11,1,-9,-8,-7,-8,-5,0
1520336536227910,9,-27,-3,2,7,2,-4,-20
1520336536227910,-8,7,4,2,-3,-3,-1,11
1520336536228913,-5,8,0,-3,1,3,-1,1
1520336536228913,7,-3,3,3,5,-1,1,15
1520336536249969,4,1,1,-1,-2,-2,-3,5
1520336536249969,-34,-11,0,5,3,-3,2,-3
1520336536250972,-15,7,-4,0,-6,-5,1,13
1520336536250972,26,11,2,-5,-11,2,1,17
1520336536265009,0,-4,1,1,2,2,0,-12
1520336536265009,29,4,7,8,1,-2,0,-5
1520336536266012,-9,-6,-4,-10,-5,0,1,7
1520336536266012,-4,-6,-1,14,11,0,0,7
1520336536288070,-8,17,2,-5,-5,11,-5,-19
1520336536288070,11,-25,0,7,8,1,-1,-25
1520336536288070,0,-4,-4,-4,-4,-1,0,-9
1520336536288070,19,23,1,-5,-5,-4,-2,20
1520336536310129,-16,-7,-6,-13,-3,5,3,0
1520336536310129,12,-7,6,8,-4,-9,-4,-23
1520336536311131,15,9,4,4,8,4,3,15
1520336536311131,-34,-1,-17,-21,-8,-2,-3,-7
1520336536325169,6,-6,4,3,-2,-3,-2,-4
1520336536325169,0,-9,0,4,3,4,-2,-26
1520336536326171,-7,8,-7,-8,-9,-10,-5,6
1520336536326171,-5,-2,3,4,2,0,1,0
1520336536347227,-5,15,0,-1,2,-2,-2,9
1520336536347227,-30,-23,1,7,2,2,1,-26
1520336536348230,20,36,1,3,0,-2,1,34
1520336536348230,-38,-7,-8,-9,-2,1,-2,-1
1520336536370288,1,-5,-4,-12,-10,-2,3,28
1520336536370288,-19,-8,7,14,6,-2,-1,-11
1520336536371291,26,7,-5,0,-4,-1,2,29
1520336536371291,38,11,11,3,-6,-4,-2,3
1520336536385329,-47,-22,-6,-3,0,-6,0,-7
1520336536385329,5,7,-5,-4,3,1,0,6
1520336536386331,13,-13,-2,4,-2,-7,-5,-39
1520336536386331,-17,-10,3,14,11,2,3,-8
1520336536407387,-12,3,-10,-18,-9,-2,-3,29
1520336536407387,47,21,12,6,-3,-1,-1,35
1520336536408391,6,-24,5,33,15,8,1,-36
1520336536408391,-62,-1,-13,-18,3,-2,-2,20
1520336536430449,-4,5,8,3,2,7,1,-19
1520336536430449,-4,-5,3,1,1,-14,-2,-15
1520336536431451,49,21,-2,-13,-25,4,3,45
1520336536431451,24,-1,13,17,25,1,-5,-48
1520336536453510,-59,-5,-12,-8,-24,-2,2,28
1520336536453510,13,30,-2,-18,10,4,-4,25
1520336536454513,-45,-24,0,-9,0,-4,2,-29
1520336536454513,26,12,10,22,4,1,-1,-9
1520336536467547,11,8,11,10,0,19,-2,2
1520336536467547,58,-10,-5,-16,-27,-31,-1,10
1520336536468550,-78,-1,-7,-2,7,3,-5,-19
1520336536468550,30,10,-6,-29,-30,-3,1,31
1520336536490609,5,-12,14,38,72,4,0,-28
1520336536490609,-38,-4,-14,-13,-32,11,5,-2
1520336536490609,7,10,14,21,33,-17,-12,10
1520336536490609,27,-3,-12,-15,-20,-4,5,-1
1520336536504646,-4,-11,2,15,7,-10,-2,-12
1520336536504646,9,2,10,-6,1,6,1,-7
1520336536505649,22,37,-6,-22,-20,2,2,41
1520336536505649,-43,-18,-8,-11,-21,2,-8,-14
1520336536527707,46,4,6,-1,-10,-14,2,-8
1520336536527707,-9,-10,-8,15,28,13,-2,-11
1520336536528710,-9,-13,0,-3,-8,3,-2,-15
1520336536528710,20,3,7,19,15,-5,1,5
1520336536549766,-30,-19,-7,-14,-16,12,4,-35
1520336536549766,63,64,-2,-19,-15,-12,-4,70
1520336536550769,-44,-36,-9,-8,-10,1,4,-25
1520336536550769,-2,-9,-5,3,9,-1,1,-19
1520336536564806,-2,-1,2,4,10,-1,-4,6
1520336536564806,-10,-19,10,17,2,15,5,-11
1520336536565809,2,33,-2,-18,-19,-13,-1,23
1520336536565809,-10,-3,3,-4,-2,5,0,5
1520336536587867,15,-14,1,20,13,-11,-5,-40
1520336536587867,19,6,0,-1,-12,-3,4,10
1520336536588870,-25,9,1,-4,13,6,-1,0
1520336536588870,-1,-16,-3,11,4,-2,-5,-35
1520336536609926,-7,12,1,-7,-11,-1,-1,10
1520336536609926,-9,-11,-8,-13,-5,-2,0,-16
1520336536610929,3,-24,-14,-3,4,-1,-1,-27
1520336536610929,2,17,9,1,-6,-2,5,31
1520336536624968,-16,-5,-13,-13,-13,1,-3,-9
1520336536624968,-32,-4,-3,-6,-3,-5,-2,-1
1520336536640006,7,-4,5,12,7,3,-3,-25
1520336536640006,15,-19,10,17,18,6,0,-28
1520336536648027,2,38,-24,-40,-24,-8,4,42
1520336536648027,-37,-13,-1,-3,-4,-6,-5,2
1520336536648027,5,1,11,-7,-11,-3,0,17
1520336536648027,0,-8,1,37,31,5,0,-26
1520336536670086,52,7,10,7,-1,-4,-4,-5
1520336536670086,-80,-19,-21,-13,-18,4,-1,-3
1520336536671089,8,-3,-3,-20,-3,-4,-2,-21
1520336536671089,13,14,-1,-2,12,2,-3,13
1520336536684123,1,-6,0,-3,-10,-5,4,27
1520336536684123,11,9,5,24,-1,9,-7,-39
1520336536693148,-1,-21,-8,-14,31,-16,1,1
1520336536693148,-15,11,4,-13,-33,-13,-1,9
1520336536707185,16,-10,-8,10,27,9,0,-10
1520336536707185,-3,-1,8,-3,1,0,-2,3
1520336536708188,-12,-7,3,18,-3,9,1,-19
1520336536708188,52,9,2,-5,-8,-8,-3,35
1520336536730246,-56,-2,-12,-26,-22,-6,-3,1
1520336536730246,11,0,8,11,11,-5,0,-8
1520336536731249,19,4,2,8,-4,8,0,-7
1520336536731249,-43,-16,-1,-4,4,0,1,1
1520336536753307,-13,-3,4,1,-13,-1,-1,-9
1520336536753307,21,12,-2,1,25,6,6,31
1520336536754311,-16,5,7,5,-1,11,1,12
1520336536754311,5,-2,-9,-16,-25,-25,-7,-6
1520336536767345,5,13,16,33,60,6,3,0
1520336536767345,-17,2,0,-13,-12,-7,-3,4
1520336536768349,2,16,12,18,-38,2,-4,4
1520336536768349,-6,15,5,4,58,32,2,51
1520336536790406,9,-4,-2,-5,-4,-36,-5,-4
1520336536790406,5,-18,-6,9,27,-9,-3,-18
1520336536791409,-3,2,2,-2,-7,3,2,14
1520336536791409,-20,-5,0,-5,-32,4,-2,-19
1520336536812465,51,22,4,-8,-14,8,3,26
1520336536812465,-6,-22,-20,-17,-18,-3,2,5
1520336536813468,-16,5,0,-3,2,-11,-2,-7
1520336536813468,-9,2,-2,-4,-16,-2,0,-6
1520336536827505,31,4,10,12,23,0,-2,-2
1520336536827505,-24,-18,-11,-9,-11,2,-2,-22
1520336536828508,19,7,2,8,15,6,5,17
1520336536828508,-3,8,6,-1,-1,-8,1,21
1520336536850566,-15,-9,-10,-17,-34,-5,-6,-34
1520336536850566,13,-4,-4,9,-14,3,-1,-12
1520336536850566,-16,-10,1,10,33,2,-1,0
1520336536850566,5,-7,-16,-19,-3,-6,-9,-38
1520336536872625,-6,-1,-1,-9,-51,-5,-3,19
1520336536872625,-5,5,4,13,33,6,3,-3
1520336536873628,1,-3,1,1,-18,13,3,-9
1520336536873628,20,-13,-11,-4,34,-10,-3,-8
1520336536887665,-22,-17,-4,-4,-5,5,1,-6
1520336536887665,15,17,2,-11,-16,-3,-3,23
1520336536888668,-8,10,-3,-4,-3,-5,-4,11
1520336536888668,3,10,10,5,-6,-3,-2,-5
1520336536909723,-25,-24,-5,0,10,1,1,-8
1520336536909723,6,9,10,8,2,-2,-1,1
1520336536910727,6,1,-2,-6,-6,-8,-1,10
1520336536910727,-3,0,1,0,-8,6,3,0
1520336536933787,8,-3,-6,4,13,6,0,-10
1520336536933787,7,0,4,-3,-4,-10,-2,-6
1520336536933787,-8,-7,-1,-1,2,8,2,3
1520336536933787,12,8,-6,-12,-20,-12,-3,-6
1520336536947825,-9,5,7,16,19,1,0,7
1520336536947825,-4,-4,-6,-7,-5,3,2,7
1520336536948828,-2,-1,10,10,8,-18,-5,-15
1520336536948828,-17,-22,-10,2,1,2,6,-21
1520336536969883,37,7,3,-2,-15,9,4,1
1520336536969883,-24,6,-8,-11,14,-8,-5,12
1520336536970886,17,-9,2,1,-9,-3,0,7
1520336536970886,-23,5,-9,-12,-22,-7,-9,6
1520336536992945,13,-9,-5,1,7,0,0,-14
1520336536992945,0,-2,8,14,-3,0,1,-6
1520336536992945,-4,-10,-2,-1,-14,1,0,-25
1520336536992945,64,4,4,5,12,2,3,18
1520336537007985,-34,1,-15,-18,-9,-7,-2,16
1520336537007985,10,-3,6,4,-2,-5,1,-10
1520336537007985,2,6,-8,-8,3,8,0,9
1520336537007985,-27,-6,1,3,-10,8,-2,-14
1520336537030044,10,-2,-2,1,-6,-11,-6,-12
1520336537030044,2,-3,0,2,13,-1,-1,-9
1520336537031047,-10,-1,-8,-4,-4,-7,-6,1
1520336537031047,22,-4,3,3,-7,4,2,4
1520336537061127,-14,9,-16,-18,4,5,-4,17
1520336537061127,-1,-4,6,5,-4,-1,-3,-36
1520336537062129,-4,-2,-5,-4,-4,2,0,13
1520336537062129,-7,-12,-5,-1,4,-14,-1,-22
1520336537068145,2,-9,-3,-1,-5,-3,-3,-20
1520336537068145,55,16,9,3,-13,-2,2,12
1520336537068145,-15,6,3,9,20,14,0,23
1520336537068145,-62,8,-1,-3,7,5,8,19
1520336537090204,45,16,23,19,-1,1,4,30
1520336537090204,-25,-2,-1,-7,4,4,0,-2
1520336537091206,28,-9,4,6,-8,-1,3,-19
1520336537091206,4,1,-3,-1,0,0,-2,-6
1520336537112263,-9,-11,-10,-3,10,3,-1,-5
1520336537112263,4,-7,-3,-1,5,-5,-2,-14
1520336537113265,1,4,0,-3,-1,-7,-3,0
1520336537113265,-2,1,-3,1,2,4,-2,19
1520336537127302,-26,-6,-1,-8,-5,2,-2,0
1520336537127302,4,-5,-4,6,-3,1,-1,-15
1520336537128306,-19,-8,-7,-4,3,-6,-3,-50
1520336537128306,22,-11,-9,-6,2,3,-5,6
1520336537150364,7,21,4,-5,-14,1,1,12
1520336537150364,-5,6,6,3,8,6,0,50
1520336537151367,-22,-13,-5,3,9,5,1,-34
1520336537151367,-5,-7,0,5,-9,-7,1,2
1520336537172423,0,-6,7,5,8,7,0,-20
1520336537172423,6,15,-6,-8,-9,-3,1,18
1520336537173425,3,2,-3,-9,-7,-3,-2,11
1520336537173425,3,0,5,3,1,3,-3,-12
1520336537187462,-28,-11,-1,3,4,1,0,-1
1520336537187462,0,9,-3,-5,-3,-1,-1,10
1520336537188465,15,-4,3,1,0,-2,-1,18
1520336537188465,-22,25,0,-11,-3,-1,-1,14
1520336537210524,18,0,16,12,7,-3,-2,-6
1520336537210524,-26,-6,-1,1,-3,2,-1,-12
1520336537210524,31,5,-1,-7,-1,-4,0,24
1520336537210524,-15,-6,1,1,0,-3,-1,-12
1520336537232582,-45,-13,-10,-3,-1,-2,-1,-15
1520336537232582,40,10,-1,0,-1,-4,0,52
1520336537233585,1,6,6,-2,-4,1,-2,-7
1520336537233585,-30,-11,3,8,1,-2,0,-12
1520336537247622,12,22,-18,-25,-10,-5,-4,-7
1520336537247622,-16,-26,-5,7,1,0,-1,-31
1520336537248625,-7,-2,-5,-5,-1,1,-1,1
1520336537248625,28,9,3,-1,0,4,-1,-3
1520336537269681,1,-15,12,16,9,0,-1,-18
1520336537269681,-8,7,-11,-15,-8,-1,-8,-7
1520336537270684,-18,3,0,0,1,-6,0,14
1520336537270684,38,11,11,10,-1,2,-1,-8
1520336537293745,5,7,-12,-14,-2,-2,3,23
1520336537293745,-21,-12,-3,2,0,-1,-2,-3
1520336537293745,5,-10,9,14,7,4,3,-4
1520336537293745,0,-1,2,0,-3,0,0,1
1520336537315804,65,-14,15,28,9,2,-3,-36
1520336537315804,-14,31,-21,-27,-11,-10,2,29
1520336537316807,-34,0,-7,-13,-11,-2,0,4
1520336537316807,10,-11,4,7,4,-1,1,-5
1520336537329841,-6,-2,-2,-6,-7,-4,-2,-10
1520336537329841,-8,-7,3,8,6,7,1,-21
1520336537330844,3,-11,2,12,3,-3,-1,-11
1520336537330844,27,14,-14,-18,-8,-4,-3,9
1520336537352902,-29,-17,0,6,2,0,0,3
1520336537352902,29,13,5,2,-12,0,0,-10
1520336537353905,-20,9,-17,-19,5,2,-2,8
1520336537353905,-6,-13,10,12,7,-8,2,-25
1520336537367943,-3,8,2,1,-4,-5,-2,-5
1520336537367943,-6,-13,-7,-8,-2,4,-6,26
1520336537368945,7,-10,-3,-1,-8,-11,-6,-21
1520336537368945,1,-4,-7,1,3,1,0,-5
1520336537390001,5,14,-10,-14,-8,1,2,11
1520336537390001,-6,-1,12,9,0,9,1,-9
1520336537391004,26,4,-9,-10,-4,-8,-3,-4
1520336537391004,-68,-36,-7,1,6,-2,-1,-31
1520336537413063,68,9,-2,4,-2,-6,0,49
1520336537413063,-48,-2,-7,-15,-7,9,1,0
1520336537413063,20,-9,-3,3,0,-5,-6,-5
1520336537413063,-10,-10,-12,-11,-2,-6,-2,-14
1520336537427100,-16,-18,9,14,5,0,0,-11
1520336537427100,-2,-23,-20,-17,-4,-7,-2,-30
1520336537435121,-2,-5,2,-1,-4,5,-3,3
1520336537435121,33,20,7,11,-4,-2,1,25
1520336537450161,-29,-7,-6,-8,2,2,2,-7
1520336537450161,19,-7,11,14,8,1,-2,15
1520336537451164,-24,8,-8,-10,-8,-9,3,13
1520336537451164,20,12,-4,-11,-7,-2,-4,9
1520336537472220,-20,0,0,1,0,3,0,5
1520336537472220,31,16,6,6,4,-5,0,14
1520336537473223,-30,-19,-8,-4,-2,7,1,-8
1520336537473223,-2,2,0,-2,2,4,1,10
1520336537487260,2,4,2,1,-2,-2,-1,-15
1520336537487260,6,-33,13,20,13,-5,-1,-27
1520336537495281,-41,4,-15,-11,-3,2,4,-4
1520336537495281,47,46,3,-5,-10,1,1,45
1520336537510321,-26,-7,2,-6,-1,10,-3,1
1520336537510321,-2,-16,0,3,2,-10,-1,-22
1520336537511324,20,-8,2,6,5,-1,0,-6
1520336537511324,-18,-6,-1,4,3,-1,0,-12
1520336537532380,-6,-5,-7,-6,-7,0,-3,-2
1520336537532380,5,14,4,-3,-2,1,-3,5
1520336537533383,18,18,4,0,-1,-3,0,13
1520336537533383,-41,-20,-6,-6,-3,2,-1,-7
1520336537547420,28,12,-2,0,-2,-4,-4,19
1520336537547420,-19,-2,-8,-5,-2,4,0,-15
1520336537555441,16,1,8,7,5,-5,0,-8
1520336537555441,-8,14,0,-9,-4,-6,-2,9
1520336537570481,-18,-2,1,-7,-4,3,-1,4
1520336537570481,-4,-12,0,7,5,-1,-1,-16
1520336537571484,25,-20,9,26,11,1,1,-2
1520336537571484,-11,36,-21,-33,-16,1,-5,39
1520336537592540,-6,-9,5,2,0,-7,-2,-13
1520336537592540,-1,12,0,3,2,1,-2,4
1520336537593543,8,-12,3,5,6,6,0,-7
1520336537593543,0,-15,0,12,5,-2,-1,-17
1520336537606577,2,7,1,-3,-2,1,3,13
1520336537606577,-29,-23,0,4,0,4,-1,-16
1520336537615601,43,40,-1,-14,-9,-6,0,25
1520336537615601,-19,-26,0,-4,-3,2,-3,-9
1520336537630642,-12,-3,2,10,9,1,0,-2
1520336537630642,3,-5,1,1,0,-9,1,2
1520336537630642,10,5,3,0,-3,-3,-2,-1
1520336537630642,-1,-3,4,-5,-3,5,1,-2
1520336537652700,3,8,-7,-5,3,-8,-2,6
1520336537652700,3,6,2,1,-5,-2,-1,0
1520336537653703,-19,-8,-5,-2,4,2,-2,0
1520336537653703,0,-17,-2,1,0,-1,0,-19
1520336537666737,20,-9,6,19,14,1,-2,-2
1520336537666737,14,41,-7,-23,-14,-2,0,30
1520336537674759,-25,-2,-3,-10,-9,1,-3,8
1520336537674759,5,-12,1,11,7,-1,-3,-13
1520336537689799,6,-9,-8,-11,-12,-3,-1,-8
1520336537689799,5,1,4,1,2,-1,0,-1
1520336537690801,3,3,2,1,3,0,1,1
1520336537690801,-8,-16,-1,-3,-7,2,3,-1
1520336537712860,-5,14,-4,-6,-12,-6,-1,-2
1520336537712860,7,-10,-14,-10,11,-3,-1,-13
1520336537713863,-22,-2,-1,8,-4,3,3,-8
1520336537713863,17,-7,9,21,7,8,-4,-5
1520336537726897,-33,9,-14,-31,-22,-15,-4,-4
1520336537726897,13,-3,1,-1,0,-13,0,14
1520336537734919,9,1,3,-3,-2,3,-2,-2
1520336537734919,-10,-3,-1,-7,-5,-4,-1,-2
1520336537749959,1,-3,6,6,2,5,3,-1
1520336537749959,-26,-24,-13,-7,-5,5,-4,-19
1520336537750962,7,27,2,-7,-3,-7,0,22
1520336537750962,-5,1,-5,-6,-4,-4,-2,-6
1520336537773020,1,-1,7,16,17,6,3,-4
1520336537773020,0,-2,4,9,6,2,2,-7
1520336537773020,-3,-8,1,2,-5,-6,-5,0
1520336537773020,-2,12,2,-10,-11,0,0,21
1520336537787058,2,-5,-11,-2,6,4,2,-20
1520336537787058,6,6,2,6,-1,-1,-1,8
1520336537795079,1,-7,-3,3,11,3,0,-6
1520336537795079,2,6,4,-6,-23,-6,1,-1
1520336537810119,-8,-6,-4,0,1,1,-4,-6
1520336537810119,8,0,-2,10,13,7,3,2
1520336537811122,3,-7,5,1,-10,3,-1,2
1520336537811122,-10,-5,-7,0,17,-1,0,-3
1520336537833180,3,-3,7,-2,-10,-1,3,8
1520336537833180,2,11,-1,-1,-4,1,-3,9
1520336537833180,-16,-17,-3,0,0,2,1,-4
1520336537833180,30,10,6,7,6,-6,1,-12
1520336537856241,-28,-25,-11,-6,1,2,-3,-22
1520336537856241,-9,17,1,-10,-7,1,1,5
1520336537856241,2,1,-2,-6,-2,-2,-1,-6
1520336537856241,9,-9,-1,2,-1,-3,1,0
1520336537870279,2,4,4,0,-3,1,-2,7
1520336537870279,-7,-3,7,2,1,-3,-3,-8
1520336537871281,2,2,-7,-3,-3,-4,-3,-3
1520336537871281,-8,-2,1,3,-4,7,-1,7
1520336537892339,19,1,-2,3,20,-3,-1,5
1520336537892339,-1,2,-2,-3,-9,-8,-3,-19
1520336537893341,-10,2,4,0,-1,1,-4,-9
1520336537893341,-21,-20,-5,2,1,0,1,-10
1520336537915399,30,37,7,-5,-24,-7,-4,15
1520336537915399,-2,-3,-9,-10,9,6,2,28
1520336537916402,-2,-12,-6,-6,-8,-7,-1,-12
1520336537916402,10,-1,1,9,15,-2,-1,5
1520336537930439,-5,-4,5,3,-7,0,0,4
1520336537930439,11,0,0,-1,-4,-1,2,10
1520336537931442,-2,11,7,3,-3,0,2,12
1520336537931442,-3,-4,-1,5,8,5,1,3
1520336537952497,1,2,3,3,3,-2,0,10
1520336537952497,1,1,-2,-8,-16,-6,-3,-2
1520336537953500,-7,-10,-2,6,14,3,-1,-4
1520336537953500,7,2,-6,-13,-10,-7,-3,-6
1520336537975559,-3,-1,-1,6,10,-2,0,0
1520336537975559,-3,-3,5,10,30,4,1,14
1520336537976562,-16,4,5,8,-5,0,-2,-8
1520336537976562,11,-5,-6,0,11,0,-2,-16
1520336537990599,4,5,-6,-16,-19,-4,4,26
1520336537990599,-9,-12,0,1,-8,-1,-3,3
1520336537990599,11,4,-6,-3,-9,-10,-5,-14
1520336537990599,1,-4,-7,-6,-4,3,1,1
1520336538012658,-5,-5,6,12,9,2,0,4
1520336538012658,0,8,4,-3,-14,-7,-1,-3
1520336538013660,0,-6,-2,-1,9,8,1,8
1520336538013660,-1,5,0,5,0,0,-1,8
1520336538034716,-8,4,-1,-7,-5,-1,-1,-2
1520336538034716,1,-3,0,-4,-7,-5,0,0
1520336538035719,-9,6,-1,-4,1,2,-1,9
1520336538035719,-3,6,8,-3,4,-6,0,22
1520336538049756,-1,-11,-7,16,25,4,1,-30
1520336538049756,-9,-5,-2,-1,-1,8,2,-4
1520336538050759,10,-3,4,1,4,2,4,15
1520336538050759,12,18,6,-3,-4,-6,-4,-1
1520336538072817,-8,0,-1,-12,-11,0,0,32
1520336538072817,-6,0,1,-2,-6,-5,-5,-29
1520336538073820,-1,-17,-5,3,3,3,1,1
1520336538073820,-22,12,-4,-6,-4,3,-1,-2
1520336538094876,7,-8,-7,-7,-9,-6,-2,-6
1520336538094876,14,3,4,9,3,-6,1,13
1520336538095879,-4,3,4,-3,-13,-3,-1,-13
1520336538095879,7,-3,2,8,20,7,4,9
1520336538109917,-9,10,5,4,6,0,-4,-9
1520336538109917,-11,4,1,-2,-4,0,0,5
1520336538110919,0,4,0,-3,-6,-6,-5,-19
1520336538110919,1,-9,-5,-1,-15,-2,0,-11
1520336538132977,-9,-2,6,4,26,4,-4,-14
1520336538132977,4,-14,-12,-6,-39,-10,-4,-16
1520336538133980,-5,5,4,1,37,7,0,18
1520336538133980,-8,-5,-3,2,-2,2,-3,-20
1520336538155036,9,14,11,2,1,2,5,9
1520336538155036,-5,-6,-9,-11,-3,1,-5,-5
1520336538156039,9,4,4,0,-12,-6,0,7
1520336538156039,-13,15,10,2,-15,5,1,9
1520336538170076,4,-18,-22,-17,-17,-17,-9,-11
1520336538170076,1,-6,-6,-1,4,1,-11,-18
1520336538171079,-1,-5,-5,-2,3,7,4,-3
1520336538171079,14,-10,-4,-4,2,-15,-2,-7
1520336538193138,-19,0,5,3,-11,6,1,-5
1520336538193138,-6,22,4,-6,-5,3,7,28
1520336538193138,0,-14,-8,-3,6,-9,-4,-8
1520336538193138,-8,1,-7,-6,0,4,-5,-10
1520336538215196,12,-3,2,-1,-4,-6,3,8
1520336538215196,-15,7,7,14,14,11,4,9
1520336538216199,0,-2,-5,-8,-18,7,0,-5
1520336538216199,28,-9,-4,0,3,0,0,-3
1520336538230237,-33,23,-7,-12,-5,-9,-2,17
1520336538230237,8,-2,11,8,15,12,7,3
1520336538231239,-1,15,15,9,-17,5,3,19
1520336538231239,2,-13,-10,-6,14,4,-7,-5
1520336538252295,3,-10,1,3,-9,-2,0,-22
1520336538252295,-3,11,6,5,13,-1,0,19
1520336538253297,-4,5,-4,-7,-6,-10,-4,9
1520336538253297,-10,-11,5,5,-2,2,3,0
1520336538275357,8,14,-3,-7,-1,-2,1,5
1520336538275357,-8,-5,0,-1,-2,-5,-4,-8
1520336538276359,4,-8,-1,4,4,1,-3,-24
1520336538276359,-4,3,3,3,-2,-4,-3,-4
1520336538290396,6,-23,-12,-7,-2,0,-4,-10
1520336538290396,4,8,3,1,-1,-4,-3,0
1520336538291399,-12,2,-8,-7,1,-9,-1,2
1520336538291399,-3,-14,-16,-15,-10,-5,-4,-17
1520336538312455,-2,-6,2,1,1,-2,0,11
1520336538312455,21,9,10,5,-1,-2,-4,9
1520336538313458,-18,-2,-1,0,2,4,3,-6
1520336538313458,-16,15,3,-3,-1,-4,2,30
1520336538335517,4,2,6,2,3,9,4,2
1520336538335517,4,-13,-5,-3,-4,-4,-6,-20
1520336538336519,6,-7,-5,-3,0,-12,-3,6
1520336538336519,1,-9,-7,-3,-6,5,-3,-12
1520336538350556,8,-14,-5,-2,0,-2,0,1
1520336538350556,-4,21,9,4,7,3,0,-5
1520336538350556,-21,-6,-3,-3,0,1,0,-11
1520336538350556,2,10,11,11,0,1,5,13
1520336538372615,14,19,6,1,-8,-3,-2,22
1520336538372615,10,-7,-4,-5,-1,-7,-1,-14
1520336538373618,1,-3,-6,-7,-2,3,-5,0
1520336538373618,-10,-4,9,16,16,0,1,-14
1520336538395676,19,4,3,7,2,3,-2,-28
1520336538395676,-13,-9,-5,-1,-3,-2,4,26
1520336538396679,11,11,-2,-7,-10,0,-1,-7
1520336538396679,4,-2,1,-2,-5,0,0,-18
1520336538410716,-2,-17,-21,-15,8,-5,4,-3
1520336538410716,-3,-3,2,0,0,-1,-3,-15
1520336538410716,1,-1,-3,2,0,-4,-1,-2
1520336538410716,3,-8,1,5,-6,6,-4,-14
1520336538432775,10,5,3,5,8,5,-5,-5
1520336538432775,2,8,-12,-21,-12,-22,-2,-4
1520336538433778,12,-8,0,5,6,4,0,5
1520336538433778,-7,12,1,-5,-2,-4,0,19
1520336538454834,-40,-18,10,9,-6,6,-3,-6
1520336538454834,24,-6,-3,0,0,5,2,14
1520336538455837,21,12,4,4,-3,-4,-1,2
1520336538455837,0,2,-7,-8,-7,-4,0,2
1520336538469874,5,-4,7,9,2,-2,-1,-4
1520336538469874,-15,-16,1,5,2,5,4,-19
1520336538470876,13,12,-5,-4,-1,0,0,6
1520336538470876,-20,14,-3,-13,0,5,1,23
1520336538492935,-2,-2,-3,-2,0,2,-2,-10
1520336538492935,17,-5,4,8,-2,-5,-2,-13
1520336538493938,-32,-39,-11,-1,4,8,-5,-10
1520336538493938,41,41,6,-2,4,-20,4,5
1520336538514994,-1,-2,16,11,-1,11,4,0
1520336538514994,-17,19,-11,-21,-11,-7,-4,24
1520336538515997,-5,-6,0,7,10,-1,-2,4
1520336538515997,18,-13,1,8,-11,-2,-3,-8
1520336538530034,-27,1,-6,-9,-1,-6,0,1
1520336538530034,-2,-1,3,7,23,7,1,2
1520336538538055,-12,4,8,0,-7,3,0,5
1520336538538055,-6,-12,1,8,6,2,-1,16
1520336538553095,1,-6,3,5,-5,-1,5,0
1520336538553095,18,24,-3,-13,-14,-2,0,11
1520336538553095,-17,-14,-5,-6,-1,-5,-2,61
1520336538553095,19,-26,3,14,5,0,-1,-20
1520336538575154,-25,44,-23,-42,-22,-3,-8,18
1520336538575154,-9,-27,-5,8,5,1,-3,-6
1520336538576157,9,-2,0,0,1,-6,2,-26
1520336538576157,-22,-28,-7,-4,0,5,-3,-46
1520336538598215,21,2,-3,6,0,-14,-4,13
1520336538598215,1,-8,-7,-6,-7,0,-6,-11
1520336538599218,-22,-3,7,3,-2,-2,-2,-18
1520336538599218,-8,6,-19,-20,1,-3,0,4
1520336538612253,15,3,17,18,15,7,5,-1
1520336538612253,-30,-13,0,2,-3,2,-1,3
1520336538613255,21,16,2,1,-3,-4,-2,-13
1520336538613255,-21,-6,-3,-5,-1,3,2,2
1520336538635314,29,4,9,14,5,2,2,22
1520336538635314,0,-7,0,0,-3,-1,1,2
1520336538636317,-22,-7,-15,-13,-1,3,-1,8
1520336538636317,9,6,0,0,1,-3,-2,1
1520336538649351,-16,-15,-3,0,-2,-2,-2,-17
1520336538649351,-12,-20,-3,11,9,8,4,9
1520336538657373,43,32,-3,-13,-15,-13,-6,-9
1520336538657373,-15,5,-3,-8,0,-2,1,10
1520336538672412,4,-29,0,9,1,-1,-3,-14
1520336538672412,-7,12,-8,-13,-3,2,2,0
1520336538673416,-6,-7,6,10,4,3,0,-12
1520336538673416,19,16,0,4,3,1,0,21
1520336538695474,-11,-5,2,-3,-8,-8,0,-1
1520336538695474,-18,3,2,4,4,4,-2,2
1520336538696477,13,-8,-1,2,1,-4,0,0
1520336538696477,-10,5,6,2,-2,-3,-4,0
1520336538709511,5,9,-1,-4,-2,3,1,-6
1520336538709511,26,13,9,6,-3,3,0,6
1520336538717533,-22,-9,-4,-2,4,-16,3,-9
1520336538717533,14,-17,-5,-1,-7,-7,-2,0
1520336538732573,-19,10,-2,-2,11,1,0,-3
1520336538732573,3,3,12,4,-3,1,-1,-9
1520336538733576,7,8,5,5,1,10,1,-7
1520336538733576,3,6,8,7,-1,0,-2,-8
1520336538755634,-24,1,-23,-22,-13,-2,-4,11
1520336538755634,-4,2,2,-5,-4,-3,2,-6
1520336538755634,-8,-12,-1,0,1,2,1,-6
1520336538755634,6,-5,3,13,1,-3,-3,5
1520336538769671,16,0,2,2,22,0,-4,5
1520336538769671,1,-4,-8,-6,-6,-5,-5,-13
1520336538777693,-19,-13,6,5,7,5,-6,-8
1520336538777693,30,39,3,-12,-15,-5,1,27
1520336538792733,-17,-12,3,8,0,2,1,-4
1520336538792733,11,-10,-5,-2,-3,-3,-4,15
1520336538793736,-30,21,3,2,8,3,0,4
1520336538793736,2,0,12,10,-2,11,-3,-12
1520336538814791,-9,-1,-10,-5,-2,11,2,3
1520336538814791,1,1,2,0,-1,-11,-1,2
1520336538815794,19,-12,-8,0,11,-2,-3,-13
1520336538815794,-23,-9,-4,-5,-3,-1,-2,-5
1520336538838856,12,1,5,4,-4,-2,-2,-1
1520336538838856,-16,-32,-2,4,-5,1,0,-37
1520336538838856,39,55,-12,-21,-27,0,4,46
1520336538838856,-31,-5,-2,-12,-10,-1,-2,4
1520336538852892,13,-21,4,9,46,0,0,-14
1520336538852892,-12,-21,-6,1,-1,-3,-4,-9
1520336538853896,21,11,15,17,10,1,2,-9
1520336538853896,-12,-23,-9,-5,-7,0,0,-17
1520336538874952,-3,36,-6,-23,-43,-11,-4,29
1520336538874952,13,6,3,16,29,5,8,8
1520336538875954,-5,-13,-1,-1,1,5,0,-4
1520336538875954,-7,-10,-5,-3,-3,-4,-3,-2
1520336538898013,18,-12,10,14,-2,-4,-1,-16
1520336538898013,-32,24,-12,-29,-16,-1,-3,6
1520336538899016,8,-13,6,8,-2,-2,-4,3
1520336538899016,-9,-10,-7,-4,11,3,-2,-7
1520336538913053,16,-5,-4,2,2,-4,2,-8
1520336538913053,-15,-6,-4,-2,-5,-3,-5,-11
1520336538913053,19,-15,6,12,2,-5,1,-2
1520336538913053,1,29,-21,-29,-5,-2,2,17
1520336538935111,0,-9,-2,1,-6,-7,0,-10
1520336538935111,-1,-3,0,7,1,1,4,-1
1520336538936114,-5,-22,-7,-5,-4,-2,0,-12
1520336538936114,15,-5,0,2,2,-1,-3,-2
1520336538958173,-7,-1,-10,-9,-5,4,-2,-2
1520336538958173,5,0,-1,2,-2,-8,-2,-1
1520336538959176,-2,-5,-4,4,11,3,-2,-5
1520336538959176,1,2,2,4,-3,-2,1,2
1520336538972210,-18,-10,-4,0,-5,1,-3,-11
1520336538972210,3,3,1,-9,-5,2,0,4
1520336538973213,-8,6,-2,-5,-8,-2,0,-1
1520336538973213,-2,-6,-3,-1,2,-2,1,-4
1520336538995272,-20,-21,-1,5,1,-3,-1,-17
1520336538995272,-5,22,-2,-7,-2,-1,-2,13
1520336538996274,3,4,-8,-8,-10,-6,-5,-6
1520336538996274,-11,-4,4,1,8,-1,3,-5
1520336539018333,11,5,5,3,0,0,1,1
1520336539018333,2,3,1,4,4,-1,2,-1
1520336539019336,-15,-2,-5,-7,-7,0,-3,4
1520336539019336,13,-17,-5,5,7,1,-5,-12
1520336539032370,7,-4,-9,-4,1,-12,0,1
1520336539032370,-9,12,4,3,-3,-1,-1,3
1520336539033373,1,-7,0,-1,-2,1,2,-2
1520336539033373,7,1,3,4,1,0,2,2
1520336539055431,0,4,2,-4,-7,0,-2,0
1520336539055431,1,-15,-7,-3,3,0,1,-2
1520336539056434,-2,11,4,-1,-3,1,-1,10
1520336539056434,-8,-11,5,6,2,-2,3,1
1520336539078493,-18,15,-7,-11,-5,4,-2,1
1520336539078493,23,-10,7,16,9,3,-1,-5
1520336539079496,-4,26,-2,-14,-10,-3,0,18
1520336539079496,-16,-11,0,1,1,-1,0,-7
1520336539092530,-4,-11,-1,4,-6,2,-1,2
1520336539092530,3,1,8,11,11,3,-2,-3
1520336539093533,-4,-8,-5,4,1,5,3,-8
1520336539093533,8,2,-8,-8,-4,-3,-3,-5
1520336539115592,-17,-2,2,1,-1,3,2,13
1520336539115592,3,2,3,-4,-11,0,0,6
1520336539115592,-4,0,-1,-7,-25,-6,-5,6
1520336539115592,4,6,6,15,60,0,1,-9
1520336539138653,7,-2,2,2,-10,1,-1,3
1520336539138653,1,-1,-6,-6,-4,-7,-1,-5
1520336539139656,8,-8,1,0,0,-2,3,0
1520336539139656,-2,4,-3,-10,-19,1,-2,-4
1520336539152690,1,3,-3,7,5,5,-5,-6
1520336539152690,29,32,2,-8,-1,-5,3,25
1520336539153693,-18,-25,1,4,6,0,-2,-8
1520336539153693,-2,8,0,-2,-10,-5,-1,-6
1520336539174749,3,5,6,3,11,1,4,2
1520336539174749,-2,-29,-7,-2,-16,-4,1,-8
1520336539175752,-12,5,-6,-8,4,-1,-2,2
1520336539175752,14,0,8,-1,-43,-1,2,-9
1520336539198813,-18,11,-7,-8,22,-1,-4,5
1520336539198813,10,-30,-18,6,29,4,-3,-29
1520336539198813,8,4,6,9,-12,5,4,1
1520336539198813,-8,-5,-1,1,10,1,-2,6
1520336539212850,2,10,10,14,-19,-7,0,9
1520336539212850,-7,4,2,-1,7,-1,0,12
1520336539213853,-1,-13,-9,-1,22,0,0,-20
1520336539213853,4,30,0,-7,-21,-2,1,17
1520336539234909,12,-4,6,-10,-9,-4,-2,7
1520336539234909,-6,-3,2,4,-1,-1,-4,-2
1520336539235912,-10,-5,-1,-2,-2,0,0,-1
1520336539235912,7,-11,3,10,5,-1,0,-11
1520336539257971,25,13,-5,-9,0,-4,4,10
1520336539257971,4,14,-2,-10,-11,1,-3,9
1520336539258973,10,-13,-7,-5,-9,-3,-3,-16
1520336539258973,-4,-20,-13,-3,5,-1,-4,-13
1520336539273010,4,-8,-4,-2,4,4,0,-17
1520336539273010,-9,5,10,10,-15,-2,-1,3
1520336539273010,-5,2,0,-10,6,-4,1,3
1520336539273010,7,-4,0,10,21,7,0,7
1520336539295069,8,1,-10,-15,-16,-15,-2,-2
1520336539295069,-17,-4,0,18,33,5,4,-1
1520336539296072,-2,7,4,7,2,-4,-3,-5
1520336539296072,-15,-10,-4,-4,-44,-4,-2,-6
1520336539318130,-1,3,2,0,30,7,-2,-5
1520336539318130,11,-11,-5,-7,-14,-5,1,-2
1520336539318130,37,19,-3,-6,-8,-2,-3,-21
1520336539318130,-34,-23,-12,-13,4,1,2,24
1520336539333170,-4,3,-3,-1,-22,-6,-4,-17
1520336539333170,8,-2,5,-2,-2,-4,-3,-16
1520336539333170,18,-3,2,6,15,4,2,23
1520336539333170,-9,8,0,-2,-6,-7,-6,-17
1520336539355229,-26,-16,-12,-16,-26,10,2,7
1520336539355229,-11,-14,-8,6,43,-1,1,-11
1520336539356232,15,7,3,8,-6,5,4,1
1520336539356232,9,-2,-2,-4,10,-3,-4,-2
1520336539377288,-7,-1,10,7,5,3,3,13
1520336539377288,4,6,2,-1,-21,7,-1,3
1520336539378290,-21,6,8,1,15,3,4,14
1520336539378290,4,7,1,14,2,-5,-2,10
1520336539392328,3,-11,-4,3,15,-3,-2,-9
1520336539392328,11,10,3,-6,-21,-3,-5,-19
1520336539393331,-11,-2,1,2,1,-1,-3,5
1520336539393331,8,-8,-3,-3,-14,2,4,6
1520336539415389,10,-13,-2,4,-5,-9,-2,-7
1520336539415389,-14,14,-1,-7,-8,-4,-1,7
1520336539416392,11,-15,-4,1,-1,-4,-4,-8
1520336539416392,-4,10,-6,-6,12,6,-1,-2
1520336539438450,-6,-10,-5,-2,-8,2,-3,-3
1520336539438450,6,-2,3,4,8,-2,1,4
1520336539439453,-13,-1,-4,0,-7,-5,-1,-12
1520336539439453,23,-1,10,6,9,7,-1,-1
1520336539452487,-3,11,-3,-5,0,-4,0,12
1520336539452487,-20,3,1,-9,-16,1,1,4
1520336539460509,-6,4,-7,-10,-15,-1,-5,14
1520336539460509,-10,-11,-1,8,30,4,-2,-8
1520336539475549,-1,-2,0,11,19,-1,-1,-10
1520336539475549,-4,-6,-4,-6,-5,-3,2,1
1520336539475549,-3,-7,-5,0,-7,-1,-2,-9
1520336539475549,2,3,-1,-3,-13,0,6,5
1520336539498610,1,6,9,2,6,3,-1,-4
1520336539498610,3,13,-1,-1,2,-4,-3,-7
1520336539499613,-7,-6,-4,-3,-2,2,1,3
1520336539499613,-4,-7,1,-3,-8,5,5,-2
1520336539511645,-2,-11,-5,-2,1,-4,2,-2
1520336539511645,4,1,-4,-1,-3,-5,-3,-1
1520336539520669,14,7,2,-4,-3,1,3,4
1520336539520669,0,4,9,5,2,-2,-3,-4
1520336539535709,-3,-6,2,5,-1,1,1,-5
1520336539535709,6,-24,-13,-7,-5,0,-4,-12
1520336539535709,-6,1,0,8,8,-1,-1,4
1520336539535709,2,17,2,-4,-4,-4,-3,3
1520336539558770,-9,-10,-7,-6,-4,0,-4,-3
1520336539558770,7,-1,-1,-3,-6,-10,0,-5
1520336539558770,-8,-3,7,7,-1,3,1,3
1520336539558770,-3,-4,-4,-12,9,-5,-3,-4
1520336539571805,-4,2,5,13,-6,3,0,-13
1520336539571805,-3,0,-1,2,13,-4,-5,5
1520336539579826,2,-8,-9,-10,-8,-5,-2,-4
1520336539579826,6,9,1,-3,-5,-2,3,25
1520336539594867,-7,-4,-1,-2,-1,-1,-4,-28
1520336539594867,3,-5,2,2,-4,2,1,7
1520336539595869,0,-8,-2,2,-1,-3,1,5
1520336539595869,-4,1,-2,-4,-8,-4,-8,-23
1520336539617928,4,4,2,2,2,3,1,6
1520336539617928,1,10,5,5,-4,0,1,7
1520336539618930,-7,-7,-7,-7,4,5,-4,-12
1520336539618930,5,-12,-8,2,1,-13,-1,-10
1520336539631965,4,16,7,0,1,0,1,18
1520336539631965,-10,0,7,6,-1,4,-3,-2
1520336539639986,3,-2,-8,-6,-7,-2,1,1
1520336539639986,-1,-2,3,9,6,4,0,-13
1520336539655026,-11,13,17,17,23,8,3,11
1520336539655026,6,11,-2,-10,-8,-5,2,39
1520336539656029,2,0,2,9,7,-4,-3,-26
1520336539656029,13,-18,-3,4,-2,6,0,-8
1520336539678088,5,17,-21,-26,-14,-10,-1,20
1520336539678088,-38,-13,2,4,1,4,-1,-13
1520336539678088,24,8,5,3,2,1,0,8
1520336539678088,-12,-6,-2,2,-8,-2,-3,-9
1520336539692125,13,-10,-7,-5,-6,1,-1,-20
1520336539692125,14,-4,-1,-2,-3,5,2,-5
1520336539700146,-39,0,-4,-3,13,2,1,-14
1520336539700146,5,11,5,3,6,3,0,27
1520336539715187,3,0,-2,-9,-40,-9,-4,2
1520336539715187,-10,2,5,7,28,3,1,6
1520336539716189,9,-5,1,2,2,-2,-2,14
1520336539716189,-8,2,-2,-4,8,11,1,-21
1520336539737245,2,-3,5,3,-23,-7,1,-6
1520336539737245,19,-6,0,3,25,-3,-1,-2
1520336539738248,3,2,7,4,-7,-6,2,0
1520336539738248,27,5,-4,-2,-1,-2,-3,2
1520336539752286,-22,-6,-8,-8,-2,0,0,-8
1520336539752286,8,1,-1,-1,-18,0,0,4
1520336539760306,-18,-10,-7,-7,-2,3,0,-8
1520336539760306,0,-7,-3,-3,-2,-9,-4,-4
1520336539775347,11,-22,-13,-5,3,-6,-1,-17
1520336539775347,12,6,2,3,2,-2,1,8
1520336539776350,-1,-16,-12,-10,-8,-6,-3,-16
1520336539776350,-4,16,-5,-11,-15,-3,1,24
1520336539797405,-4,0,4,6,8,0,-5,-9
1520336539797405,-7,-1,0,-1,-3,2,2,-10
1520336539798408,-1,-7,0,-1,1,-2,-3,5
1520336539798408,-24,-1,-6,-6,-4,-5,-1,8
1520336539821469,6,-1,4,6,16,3,-2,4
1520336539821469,-15,0,1,-2,-8,-4,-6,-15
1520336539821469,18,10,6,4,1,0,-3,-4
1520336539821469,-12,-7,0,0,-8,2,-2,2
1520336539835507,6,0,-5,-4,21,0,0,12
1520336539835507,-3,2,-1,-1,-12,-1,1,-7
1520336539836510,-2,4,4,1,2,-3,2,13
1520336539836510,-6,-8,1,2,-1,-2,2,-12
1520336539857565,9,8,2,2,-2,0,2,0
1520336539857565,1,-8,3,5,4,6,-1,-3
1520336539858568,-33,14,-12,-21,-11,-6,-5,28
1520336539858568,0,-6,-2,-1,4,-1,3,-10
1520336539880627,0,-1,7,4,-3,1,-3,-2
1520336539880627,11,-9,-1,4,4,0,2,-16
1520336539881629,30,7,6,9,3,0,3,4
1520336539881629,-55,-4,-6,-12,-6,-2,-2,7
1520336539895667,-8,-2,-1,1,-2,5,-1,12
1520336539895667,-7,-4,-9,-11,-5,-6,-4,-18
1520336539895667,15,-18,-10,-1,-3,1,-4,-13
1520336539895667,21,9,-4,-2,1,-1,1,-2
1520336539917725,0,3,2,4,-3,-1,0,5
1520336539917725,-20,-10,-5,-8,-7,-4,-3,-5
1520336539918728,1,14,-4,-7,-6,-4,0,16
1520336539918728,8,1,8,5,-4,5,5,-8
1520336539940788,-7,-6,-2,-1,21,3,-3,12
1520336539940788,-4,5,2,0,-7,-1,-1,11
1520336539941789,11,-10,1,4,6,3,1,-23
1520336539941789,-30,-4,-1,-1,-4,-3,1,22
1520336539954824,16,-6,1,2,-5,-2,-1,-14
1520336539954824,-9,19,-11,-19,-12,0,-1,8
1520336539955827,12,-4,1,-3,6,3,0,-12
1520336539955827,20,5,2,4,1,0,-2,-9
1520336539977885,-21,-17,-6,-6,-1,2,2,-13
1520336539977885,13,13,11,11,3,-4,0,19
1520336539978888,-11,-7,-1,1,-6,-2,2,-12
1520336539978888,-16,-6,-13,-8,-1,-1,-3,3
1520336540000947,15,5,8,8,4,3,2,-4
1520336540000947,-33,-3,2,1,4,8,1,17
1520336540001949,47,30,8,2,2,-2,2,17
1520336540001949,5,-2,6,5,-1,-8,-5,-17
1520336540014984,-37,-11,-13,-11,-2,4,-3,5
1520336540014984,6,-12,-9,-5,-1,-5,-2,-19
1520336540015987,-37,-15,3,5,0,9,-3,-9
1520336540015987,34,9,0,4,16,-1,0,8
1520336540038045,-10,6,-1,-5,-12,-4,-3,-3
1520336540038045,23,13,6,3,2,3,3,13
1520336540038045,-19,-16,0,4,1,-2,-3,3
1520336540038045,11,17,-1,-4,-3,4,-1,5
1520336540061107,-6,-8,5,10,3,-2,2,-11
1520336540061107,29,13,-8,-7,-6,-7,-1,29
1520336540062110,-26,-2,-1,-9,-6,0,-3,6
1520336540062110,-6,-26,-10,-11,-7,-9,-10,-11
1520336540075144,16,2,-5,3,-2,-9,-4,-1
1520336540075144,-6,-6,3,4,1,2,0,-4
1520336540076147,1,-1,-2,1,10,1,-1,-12
1520336540076147,8,0,7,9,3,4,0,9
1520336540098206,8,7,-10,-15,-19,-9,0,0
1520336540098206,-16,-10,-8,-5,3,-2,-4,-10
1520336540098206,-1,0,-8,-6,-2,-1,2,4
1520336540098206,5,-10,4,5,5,0,-2,-17
1520336540121267,-27,0,-2,-4,-8,2,-3,6
1520336540121267,5,4,-1,-7,1,1,-2,1
1520336540121267,-7,-6,-2,3,-1,-5,-2,-2
1520336540121267,-8,0,1,4,4,3,1,2
1520336540135304,28,0,2,2,0,-4,-3,-8
1520336540135304,-20,-5,-7,-10,-5,-5,-1,10
1520336540136307,-1,6,-1,1,-1,0,0,-3
1520336540136307,0,-7,2,0,-2,0,1,-11
1520336540157363,11,11,3,0,4,0,3,2
1520336540157363,1,-4,-2,-3,-3,2,0,-1
1520336540158366,0,-7,-3,0,0,-1,-2,-2
1520336540158366,-13,-9,-3,1,0,-7,-1,2
1520336540180424,33,5,10,12,2,0,1,20
1520336540180424,-42,-18,-11,-4,0,12,-4,-13
1520336540181427,-3,4,-8,-13,-7,-1,0,-6
1520336540181427,-5,1,-5,-10,-3,-5,-5,-5
1520336540195464,-22,-7,17,21,10,-1,-1,-12
1520336540195464,39,12,-2,-12,-59,-16,1,2
1520336540196467,-22,5,7,7,20,12,-1,13
1520336540196467,15,-26,-22,-9,16,-1,2,-41
1520336540218525,-11,6,-9,-17,-14,-5,-4,6
1520336540218525,10,-8,8,12,12,-1,2,-18
1520336540218525,2,4,-1,-7,-36,-10,-2,3
1520336540218525,6,12,5,0,-10,-1,1,15
1520336540240584,-8,-3,-6,-5,12,2,0,-12
1520336540240584,5,-16,1,5,0,0,-1,0
1520336540241587,15,17,7,0,-1,-6,-2,-1
1520336540241587,-46,-13,-2,-3,4,5,0,-13
1520336540255624,48,18,-2,0,4,6,2,13
1520336540255624,-16,-7,6,8,12,-3,-5,-6
1520336540255624,-8,-11,-5,0,5,-2,-2,-4
1520336540255624,25,11,7,5,-7,-2,-4,9
1520336540277683,-20,-7,-1,-2,-9,0,-3,-6
1520336540277683,-4,30,-1,-12,4,1,-2,12
1520336540278686,21,-6,2,9,10,3,1,-6
1520336540278686,-16,6,0,-7,-14,-2,3,19
1520336540300744,-3,-16,4,2,-2,2,2,0
1520336540300744,-3,-14,-6,5,10,4,-1,-19
1520336540301747,30,-3,-10,-5,4,-16,-1,5
1520336540301747,-4,24,10,-9,-11,-1,1,18
1520336540314782,5,-15,-10,-2,-20,-5,-3,-11
1520336540314782,-6,-14,-9,-5,0,7,1,-9
1520336540315784,-10,-4,1,-1,-14,-1,-4,-26
1520336540315784,8,2,3,7,8,1,2,8
1520336540337843,-11,2,-3,-11,-4,-6,-5,9
1520336540337843,-10,-6,4,7,6,-1,-1,2
1520336540338846,8,-1,-4,0,3,2,0,-3
1520336540338846,1,8,4,3,-2,4,3,-2
1520336540360904,11,6,-2,-9,-7,-14,-3,4
1520336540360904,4,-1,-5,-1,2,1,1,-4
1520336540361907,-24,-4,4,1,4,4,1,-4
1520336540361907,-25,-22,-10,1,1,1,-2,-8
1520336540374942,11,39,8,3,0,0,0,1
1520336540374942,-26,-5,-7,-12,-4,0,1,10
1520336540375945,-2,-14,-6,-6,-10,-5,-6,-3
1520336540375945,8,-11,0,5,18,-2,-2,-5
1520336540398003,1,-20,-3,5,7,3,-3,-8
1520336540398003,10,6,-5,-7,-8,-4,-1,3
1520336540399006,-19,9,11,2,-13,3,-1,-1
1520336540399006,22,0,-2,6,-12,-8,-5,3
1520336540420062,-27,-1,4,10,9,7,0,19
1520336540420062,24,12,1,6,25,0,3,6
1520336540421064,-5,-7,1,-2,-7,-4,0,1
1520336540421064,-8,-5,3,6,12,3,-1,-23
1520336540434099,8,21,1,-10,-18,-7,1,21
1520336540434099,21,9,-2,-7,-10,1,0,4
1520336540443123,4,-11,0,9,6,1,0,10
1520336540443123,6,4,-5,-7,-11,-2,1,0
1520336540458163,-1,-6,-3,5,8,0,1,-14
1520336540458163,-10,-16,-6,-3,-5,-3,-1,-20
1520336540458163,33,-2,1,5,11,-1,0,7
1520336540458163,-48,22,-6,-16,-14,1,-2,10
1520336540480222,10,-18,-8,-1,2,3,-4,-16
1520336540480222,10,-6,4,11,12,-4,0,-5
1520336540481224,-29,-10,-5,-6,-2,1,-3,-9
1520336540481224,25,-9,-3,2,-5,-7,-2,8
1520336540494259,-28,-7,-4,0,6,4,0,-21
1520336540494259,10,8,-5,-15,-34,-4,-1,-4
1520336540502280,6,-16,-12,-1,7,-1,-1,-6
1520336540502280,-12,12,-2,0,24,-3,1,9
1520336540517320,15,8,1,-4,-5,0,1,4
1520336540517320,-5,-19,-3,4,-3,-1,-2,-11
1520336540518323,-12,-16,-2,-2,-7,0,2,-3
1520336540518323,32,14,7,0,-11,0,2,13
1520336540541384,-18,-10,-3,4,3,-7,1,-7
1520336540541384,-5,8,-2,-6,-4,-3,-6,-4
1520336540541384,10,15,-5,-1,2,3,2,6
1520336540541384,6,-1,1,2,0,-2,-3,-13
1520336540554419,-1,2,4,2,6,0,-1,4
1520336540554419,3,-6,8,11,4,2,1,13
1520336540562440,-11,13,-4,-6,2,3,-2,0
1520336540562440,-5,-7,-3,-6,-9,1,-1,-6
1520336540577480,6,-6,-5,-13,-21,-9,-2,-2
1520336540577480,-10,-3,-3,5,17,5,0,0
1520336540578483,7,5,8,15,20,1,1,-8
1520336540578483,7,-16,-4,6,-11,-3,-5,-12
1520336540600542,-9,19,-3,-16,2,2,0,24
1520336540600542,-6,-9,-3,-5,-12,-8,-4,-25
1520336540601544,6,-11,0,-4,-7,-2,-1,10
1520336540601544,-28,-2,0,6,1,4,2,-4
1520336540614579,9,-6,-3,4,3,3,1,-36
1520336540614579,-18,9,-4,-2,-7,-4,-3,6
1520336540622600,-20,8,-3,-9,1,6,1,2
1520336540622600,2,-16,-10,-11,-10,-6,-5,-7
1520336540637640,6,2,7,6,4,1,1,2
1520336540637640,8,2,-2,-3,6,-2,1,3
1520336540638643,-15,-6,1,3,-4,-4,1,9
1520336540638643,12,-6,-5,-6,-4,2,-4,-2
1520336540660702,-6,-13,-8,7,4,-3,-1,-6
1520336540660702,0,-8,-3,-3,3,-2,0,-3
1520336540661704,-9,18,2,-11,-5,0,-1,5
1520336540661704,2,8,7,10,-25,3,7,12
1520336540674740,-1,-8,-2,10,27,10,3,-11
1520336540674740,-1,-4,1,3,42,4,0,-10
1520336540682760,13,12,-7,-14,-17,-7,-4,4
1520336540682760,2,12,7,-3,4,-2,-1,-23
1520336540697801,-15,-14,-6,-7,-25,-2,-1,0
1520336540697801,0,-14,-2,3,-12,3,0,1
1520336540698803,11,-5,1,3,9,0,-1,-9
1520336540698803,3,6,-4,-8,-1,3,-3,-5
1520336540719859,-4,30,-1,-7,-23,-8,0,31
1520336540719859,25,9,12,0,23,3,1,-2
1520336540720862,0,-18,-6,-2,-4,-8,1,-4
1520336540720862,-1,-13,-10,-7,-18,-3,-7,-16
1520336540743923,5,-7,5,6,17,1,3,-1
1520336540743923,5,-9,-12,-6,-3,2,1,-6
1520336540743923,10,-1,-7,0,-10,-9,-5,-19
1520336540743923,-8,-11,0,4,22,-3,1,1
1520336540757961,23,-7,0,-2,6,4,-1,-4
1520336540757961,-25,11,-12,-20,-34,-5,-4,-1
1520336540758963,-5,8,6,6,4,5,4,5
1520336540758963,10,0,0,2,-8,-5,3,24
1520336540780019,-11,-5,1,3,-14,-1,-2,-17
1520336540780019,2,-2,2,10,30,-11,-2,7
1520336540781022,3,7,6,6,31,12,2,9
1520336540781022,-5,6,8,3,-5,-16,-1,12
1520336540803080,5,-4,-11,-11,-14,-3,0,19
1520336540803080,1,7,11,10,-8,2,2,-2
1520336540804083,-7,0,0,-7,-34,6,1,33
1520336540804083,7,1,2,6,38,-6,3,-6
1520336540818121,-17,3,9,12,14,4,1,12
1520336540818121,10,-24,-24,-17,-23,-8,-10,-41
1520336540818121,4,13,-3,-2,-5,0,1,0
1520336540818121,-3,6,6,2,2,8,3,19
1520336540840179,-10,14,11,6,-10,-1,-1,18
1520336540840179,-10,-54,-29,-15,1,-10,-14,-58
1520336540841182,29,7,2,6,7,-8,0,-11
1520336540841182,-9,-2,-9,-11,-8,5,-5,-18
1520336540863240,-22,2,10,2,7,1,1,-5
1520336540863240,25,7,0,2,-13,0,1,22
1520336540864243,-8,-8,5,3,-3,-4,-3,-6
1520336540864243,9,-12,-18,-12,-41,-12,-3,2
1520336540877278,6,1,3,8,76,7,1,31
1520336540877278,0,8,6,8,-4,1,1,0
1520336540878281,-7,-21,-18,-12,-14,-3,-9,-54
1520336540878281,7,1,0,6,11,11,6,2
1520336540900340,7,-4,0,-3,-17,-12,-2,3
1520336540900340,-12,-14,1,2,-2,3,4,25
1520336540901342,-1,5,-5,-1,6,-2,2,-3
1520336540901342,-10,26,-9,-15,-7,3,-6,-4
1520336540923400,21,-14,-8,-6,-13,1,-1,-32
1520336540923400,12,7,7,8,13,2,3,17
1520336540924403,-23,-19,-5,1,-6,-2,-1,4
1520336540924403,-6,-41,-5,9,8,-7,-7,-37
1520336540937438,34,26,0,7,4,-1,2,34
1520336540937438,-24,25,-10,-29,-30,-4,3,30
1520336540938441,7,-2,15,17,26,9,-2,-15
1520336540938441,-8,13,4,0,1,-3,-6,-9
1520336540960499,-9,-19,4,6,3,2,-1,-21
1520336540960499,0,6,13,17,5,3,2,23
1520336540961502,27,30,-3,-13,-12,-6,0,38
1520336540961502,-45,-16,5,6,14,6,4,0
1520336540983560,-15,-2,-16,-14,-24,-3,-5,-23
1520336540983560,9,14,4,1,14,1,4,23
1520336540984563,6,-27,-9,-6,3,-7,1,4
1520336540984563,-2,49,18,5,0,2,0,13
1520336540997598,15,-17,-7,-4,-8,-8,-4,-24
1520336540997598,11,1,5,8,5,6,-2,-20
1520336540998601,-2,-6,-3,0,-8,-6,1,3
1520336540998601,53,23,-1,-7,-2,-5,1,51
1520336541020659,-44,-1,2,0,-1,9,-2,-11
1520336541020659,19,-15,11,18,7,2,-3,-27
1520336541020659,-32,16,-9,-15,-3,0,3,33
1520336541020659,4,-9,15,14,-3,12,0,-19
1520336541043721,-12,16,6,3,25,-3,0,14
1520336541043721,1,-15,0,6,-6,-10,-1,-19
1520336541043721,1,0,5,19,35,5,2,-5
1520336541043721,-19,-3,-7,-5,7,4,1,1
1520336541057758,10,3,6,4,-2,5,-2,20
1520336541057758,1,4,-18,-22,-19,-3,-5,-28
1520336541058761,-17,-20,1,1,-10,-4,-6,-26
1520336541058761,23,2,-20,-11,1,-5,2,21
1520336541079817,-4,-10,-4,-9,-14,-3,-1,-34
1520336541079817,7,10,6,5,5,0,1,13
1520336541080819,-29,-2,-6,-9,-11,0,-3,-1
1520336541080819,19,-30,1,12,9,3,-1,-31
1520336541103881,-1,-2,-21,-14,-17,-5,-6,14
1520336541103881,-8,-1,-4,-5,-4,-10,-3,6
1520336541103881,22,-6,-1,-3,-7,-10,-1,-18
1520336541103881,-15,-5,1,2,8,2,-1,0
1520336541117918,2,-1,-1,-6,-27,4,2,-11
1520336541117918,-24,15,10,3,-4,4,-3,16
1520336541118921,1,-16,-2,8,39,20,0,-20
1520336541118921,30,-5,-9,-4,-33,-16,-2,-1
1520336541139977,-6,-6,-16,-18,12,-8,0,-1
1520336541139977,-4,-17,-13,-12,-15,22,-2,-21
1520336541140979,-5,1,1,11,-4,2,2,-7
1520336541140979,1,-2,10,11,17,0,2,-4
1520336541163038,33,-3,9,13,-7,-2,1,2
1520336541163038,-68,23,-10,-28,-19,-5,2,23
1520336541164041,16,-11,-7,-7,-10,0,-4,25
1520336541164041,-11,-9,-7,-10,8,5,-1,26
1520336541178078,9,-16,0,7,6,-15,3,-7
1520336541178078,16,-5,2,7,12,0,-1,3
1520336541178078,-3,26,18,2,-5,-2,-1,-7
1520336541178078,-21,-4,0,1,-6,1,-1,-18
1520336541200137,-11,11,3,3,1,8,1,10
1520336541200137,23,-19,-15,-2,16,2,-2,-34
1520336541201139,-7,5,1,-2,-24,-7,-1,3
1520336541201139,6,-3,-3,-3,3,0,-4,-4
1520336541223198,0,-5,-8,-4,13,3,1,-11
1520336541223198,-4,-1,-5,-1,-5,-6,4,7
1520336541224201,0,-1,2,2,-5,1,-3,-15
1520336541224201,-8,4,-1,-1,1,-3,-1,2
1520336541237235,-6,-3,0,-4,-4,-1,-4,6
1520336541237235,3,0,11,13,3,-3,-2,5
1520336541238238,28,8,-8,-12,7,8,1,9
1520336541238238,-14,-4,-4,-1,-4,10,6,-10
1520336541260297,-5,-1,3,3,-2,-4,-5,-1
1520336541260297,4,11,16,13,7,10,7,25
1520336541261299,11,-17,-10,-5,-9,-12,-6,-34
1520336541261299,5,4,4,1,5,-5,0,-15
1520336541283358,-9,-8,-5,-5,-7,0,-5,-7
1520336541283358,19,-4,6,19,1,8,2,-10
1520336541284361,3,18,-1,-8,5,-1,3,17
1520336541284361,-29,-10,-10,-14,-10,-1,-5,-7
1520336541297395,6,0,11,15,5,-9,-1,-25
1520336541297395,2,10,-13,-17,-9,-9,1,18
1520336541298398,-11,-4,5,6,0,-1,-1,-21
1520336541298398,18,-5,-3,0,2,-6,1,9
1520336541320457,-9,0,-4,0,-5,5,0,-3
1520336541320457,17,0,6,9,1,-4,-3,3
1520336541321460,-17,25,-5,-11,-4,0,0,24
1520336541321460,0,5,-1,-12,-2,-2,-2,13
1520336541343518,24,8,5,12,3,1,1,1
1520336541343518,-24,-24,3,5,4,-7,-5,-19
1520336541344521,-2,-16,-11,-4,8,-2,-2,-20
1520336541344521,-26,-1,9,13,-7,-1,2,-2
1520336541357556,13,21,-12,-20,2,6,5,18
1520336541357556,-21,-12,-4,-10,-6,-13,-4,6
1520336541365577,-9,-22,0,11,5,2,2,7
1520336541365577,14,16,-3,-7,-1,0,-3,12
1520336541380617,-10,-16,3,3,3,2,1,-2
1520336541380617,-6,7,7,2,-1,4,3,9
1520336541380617,2,-5,7,5,-5,2,-1,-19
1520336541380617,17,-13,-9,3,3,-3,-2,-16
1520336541403678,-13,6,-5,-6,-5,-5,-4,4
1520336541403678,-12,4,-2,-6,1,-1,-3,-3
1520336541404681,12,-12,-5,-1,-4,-4,-7,-16
1520336541404681,-2,-5,-7,-9,-1,-3,0,-1
1520336541416713,-29,-10,2,1,0,-1,-1,-16
1520336541416713,26,11,-2,2,6,4,5,1
1520336541425737,-17,13,-10,-19,-5,-6,-3,26
1520336541425737,4,1,7,9,0,-7,-3,-13
1520336541440777,-13,-21,3,19,5,10,4,-10
1520336541440777,-5,-7,6,5,3,2,3,-16
1520336541440777,10,15,1,-3,-8,1,1,-22
1520336541440777,-1,-3,-7,-10,-2,3,-1,11
1520336541463838,4,-9,-4,-3,-5,-13,-3,-15
1520336541463838,29,2,5,12,3,-5,-1,9
1520336541463838,14,30,-14,-24,-11,-2,0,20
1520336541463838,-20,-1,-2,-5,0,-1,-1,-11
1520336541476873,10,4,10,4,5,4,1,-1
1520336541476873,-11,-8,-10,-10,-8,-5,-9,-19
1520336541484894,16,-9,9,15,8,3,0,0
1520336541484894,-5,-16,-4,4,-1,7,-1,-11
1520336541499934,-4,26,1,-2,-2,-2,2,32
1520336541499934,12,1,-4,-8,-2,-7,0,-2
1520336541500937,-23,5,14,20,-11,15,-1,24
1520336541500937,6,-2,3,3,36,-1,0,-19
1520336541522995,-3,-6,1,-4,-13,-9,-5,-12
1520336541522995,3,9,-3,-4,-16,1,3,7
1520336541523999,-17,-22,1,8,23,2,3,-25
1520336541523999,14,18,-5,-7,-17,-8,-3,30
1520336541537033,1,17,0,-7,0,0,-6,4
1520336541537033,-1,-7,-4,-4,-6,0,0,-14
1520336541545054,-1,-20,-2,2,-3,-3,1,-39
1520336541545054,-4,-7,7,14,6,3,3,34
1520336541560094,1,-9,-28,-30,-12,-9,-11,-3
1520336541560094,5,5,2,-3,-4,2,-1,37
1520336541561097,-7,-11,3,3,-3,-4,1,3
1520336541561097,2,-16,-5,3,25,2,-3,-32
1520336541583155,6,-4,-5,-2,-15,-4,2,-4
1520336541583155,-1,4,1,3,8,-7,-1,24
1520336541584158,7,4,1,-6,-59,-4,-10,29
1520336541584158,-4,1,-6,2,66,-6,3,-6
1520336541597193,2,3,10,8,6,4,3,-5
1520336541597193,-23,3,-4,-3,6,3,-4,-26
1520336541605214,6,-5,-5,-7,-12,-11,-1,-22
1520336541605214,0,11,0,-7,-28,3,-2,17
1520336541620254,-5,-7,4,8,-27,3,4,-14
1520336541620254,11,-8,-2,13,72,7,0,0
1520336541621257,-7,0,-15,-25,-15,-18,-1,6
1520336541621257,-3,4,-2,-5,-23,2,0,-6
1520336541642313,-6,-8,-5,0,12,2,0,-4
1520336541642313,-2,-7,8,5,-29,0,0,-16
1520336541643316,-8,2,4,8,23,4,1,8
1520336541643316,15,-3,-1,-4,-6,3,-1,8
1520336541657353,6,3,-2,-5,-3,-8,-2,18
1520336541657353,-11,2,-4,-4,-13,-3,-8,5
1520336541665374,-3,0,-4,-4,11,-7,-2,16
1520336541665374,-4,2,3,-1,-43,-5,-2,-6
1520336541680414,6,-7,-5,13,59,24,6,-1
1520336541680414,-14,-8,-3,-8,-27,-12,3,-15
1520336541681417,21,21,10,6,17,7,5,23
1520336541681417,-8,10,10,0,-20,-1,-6,2
1520336541702473,9,-2,4,17,22,1,-10,10
1520336541702473,-12,2,1,-2,1,1,-1,-7
1520336541703476,-3,-13,-5,-5,-23,-9,-5,-22
1520336541703476,1,4,3,2,8,4,4,18
1520336541725534,4,17,2,-11,-6,0,0,-3
1520336541725534,-1,-15,-10,-8,-10,-7,-7,-22
1520336541726537,-2,-1,5,2,-5,-6,0,2
1520336541726537,5,-6,0,3,15,11,4,-11
1520336541740574,2,-16,-14,-16,-19,0,1,-14
1520336541740574,8,-7,-8,-2,8,-12,2,-1
1520336541740574,1,0,5,3,11,8,2,-11
1520336541740574,-13,11,-4,-8,0,-11,-5,5
1520336541763636,-1,-3,7,4,-14,-12,0,-6
1520336541763636,0,4,-3,-7,-13,11,-2,23
1520336541764638,-4,-15,-8,-1,21,15,4,-17
1520336541764638,3,2,16,16,5,-8,-1,10
1520336541785694,9,12,-6,-10,10,5,-1,-2
1520336541785694,-3,-7,-6,-10,-19,-5,1,-17
1520336541786697,-6,17,11,13,24,8,-4,32
1520336541786697,5,-11,-10,0,-11,8,-3,-38
1520336541799732,0,-3,-9,-4,-2,-15,4,7
1520336541799732,14,15,2,-3,-1,7,-2,2
1520336541800734,-4,-17,-12,-17,-8,6,-5,37
1520336541800734,-7,-3,-1,-2,-10,-18,-1,-32
1520336541823796,-5,1,6,7,8,-2,-3,6
1520336541823796,5,-2,0,2,4,11,1,-7
1520336541823796,-8,-15,-17,-11,-19,-14,-2,-15
1520336541823796,11,5,14,14,24,4,2,29
1520336541845854,-26,8,-4,-13,-11,1,-8,20
1520336541845854,-24,8,8,-2,-20,-10,1,10
1520336541846857,-3,17,17,24,27,11,8,19
1520336541846857,1,-25,-23,-18,9,13,-10,-20
1520336541859892,4,-7,-3,-7,-9,-16,2,-14
1520336541859892,1,14,7,12,13,6,-1,15
1520336541860895,-2,0,-4,-6,-14,-18,-9,-32
1520336541860895,4,-2,-1,-1,-6,0,7,35
1520336541882953,-15,7,4,3,3,-2,-9,-49
1520336541882953,22,-6,8,6,11,10,3,12
1520336541883956,12,21,-8,-10,1,-14,2,4
1520336541883956,-4,-1,7,2,-18,-5,0,22
1520336541906014,2,-6,1,2,4,4,1,0
1520336541906014,-1,4,10,17,21,14,-4,-12
1520336541907019,2,-6,4,8,14,1,-4,-15
1520336541907019,-12,16,-3,-9,-13,-1,-2,-16
1520336541920052,-1,-18,-6,-11,-18,8,8,12
1520336541920052,-2,7,2,2,0,-12,-4,-16
1520336541928073,0,-5,-8,-5,-9,3,-2,6
1520336541928073,1,-8,-11,-5,-1,-3,-2,-14
1520336541943113,-2,1,2,4,-2,-6,-7,-71
1520336541943113,-4,3,1,1,-22,-8,3,19
1520336541943113,-10,-15,-16,-16,25,7,-8,-18
1520336541943113,1,2,7,7,-4,-9,-1,0
1520336541966174,-1,9,2,0,-2,-1,-1,22
1520336541966174,21,-7,-14,-16,-11,-5,-1,-16
1520336541967177,-20,-1,7,5,-7,1,1,-4
1520336541967177,-11,-8,-9,-7,-1,1,-4,-2
1520336541980212,13,-4,6,1,-4,-3,-3,26
1520336541980212,3,-7,-7,-6,-2,-9,-4,-23
1520336541981215,0,0,-1,-6,-7,0,1,2
1520336541981215,6,-6,-12,-9,3,1,-2,-28
1520336542002270,-13,6,0,0,-6,3,-2,-3
1520336542002270,-6,1,7,7,4,2,2,24
1520336542003273,13,4,-1,1,4,5,8,23
1520336542003273,-8,5,13,6,-2,0,1,6
1520336542026334,1,4,-1,-2,-3,-9,-3,5
1520336542026334,-27,-17,-12,-8,-6,10,-2,-19
1520336542026334,18,1,7,10,26,1,0,-4
1520336542026334,10,10,10,12,-2,-6,0,15
1520336542040372,-10,-6,-7,-10,0,0,2,18
1520336542040372,-9,-16,-17,-15,-5,-7,-5,-8
1520336542041375,17,10,12,11,-12,-3,0,9
1520336542041375,-13,5,-1,-6,2,6,4,4
1520336542062430,2,-2,-4,-4,-5,-7,-2,2
1520336542062430,-2,3,-3,0,3,-8,-2,-8
1520336542063434,-3,-19,-12,-11,-6,-2,-1,-1
1520336542063434,-7,-2,4,15,4,2,-3,-33
1520336542085492,-13,22,10,4,-1,-1,1,5
1520336542085492,-7,6,4,1,9,6,3,16
1520336542086494,-2,-5,-8,-7,-18,-11,-6,0
1520336542086494,11,-20,-18,-17,-12,-6,-3,6
1520336542100532,21,-12,5,15,13,11,1,-10
1520336542100532,-2,39,0,-9,-3,-9,-2,7
1520336542101535,-19,1,-1,-8,-8,4,-1,-1
1520336542101535,4,-4,0,-2,-6,-5,-2,7
1520336542122590,-5,-14,-4,6,-2,-3,-2,18
1520336542122590,30,-13,5,9,8,-1,0,-8
1520336542123593,-11,1,1,4,-8,-3,-4,-40
1520336542123593,9,11,5,0,9,3,3,5
1520336542145652,7,-12,-4,3,-5,-4,0,-4
1520336542145652,-9,11,3,-1,0,3,-3,5
1520336542146654,-21,-15,-5,-5,-5,-2,1,-7
1520336542146654,9,-15,-4,1,-5,-2,1,8
1520336542160692,1,1,-7,-10,-3,3,0,-9
1520336542160692,1,4,1,-1,2,0,5,4
1520336542160692,0,-14,4,11,2,4,0,-14
1520336542160692,13,16,-6,-14,-11,-3,-6,-6
1520336542182750,-13,0,5,-1,-1,-7,-3,23
1520336542182750,-5,-17,-13,0,-3,-2,-3,-26
1520336542183753,5,-5,0,6,2,3,-1,-2
1520336542183753,6,-6,2,8,13,0,3,0
1520336542205812,-6,2,0,0,-2,3,-2,10
1520336542205812,3,18,4,-6,1,-3,-1,22
1520336542206815,17,-16,-1,1,-2,3,7,39
1520336542206815,-28,12,6,3,8,-5,-4,-16
1520336542219849,9,-28,-5,2,-1,-1,1,-4
1520336542219849,-14,-41,-13,-1,4,2,5,2
1520336542220852,-24,31,-4,-7,-5,1,2,4
1520336542220852,22,-2,2,-5,-2,2,-1,-1
1520336542242911,-30,11,-7,-15,-7,0,1,12
1520336542242911,45,-25,8,19,7,4,-2,-28
1520336542243913,-3,3,-8,-8,-12,-17,-1,20
1520336542243913,-21,-1,-1,-7,-8,-1,-4,0
1520336542265972,19,-3,3,6,13,-3,1,-16
1520336542265972,12,-11,-8,-5,-10,4,-2,-8
1520336542266975,7,12,7,-2,-7,-6,-3,-12
1520336542266975,6,-7,-2,6,14,3,0,-13
1520336542280009,-8,3,-2,7,1,6,6,34
1520336542280009,-48,3,-4,-6,1,-2,0,16
1520336542281012,13,-5,7,11,-2,0,-5,-27
1520336542281012,3,39,-7,-14,-10,1,7,27
1520336542303071,-4,-13,5,-5,-1,3,-1,-24
1520336542303071,39,12,0,8,-1,-1,0,-5
1520336542303071,-20,-19,-6,-1,5,2,0,2
1520336542303071,-7,-38,-2,5,-4,-2,0,-18
1520336542326132,27,72,-3,-15,-10,-1,-1,28
1520336542326132,-6,-3,3,-2,0,1,-2,-9
1520336542327135,3,-9,-7,-4,3,-1,-1,5
1520336542327135,17,3,-1,2,-4,-6,-2,-6
1520336542339167,-7,-19,-1,3,2,0,-1,-24
1520336542339167,4,10,-6,-8,-2,1,2,0
1520336542348190,-35,9,4,5,4,9,3,18
1520336542348190,-18,-8,-7,-9,-16,-3,-2,14
1520336542363231,-15,-26,-7,11,5,-6,-4,-28
1520336542363231,25,20,7,-1,3,1,2,20
1520336542363231,7,-1,0,-3,-3,-6,3,-10
1520336542363231,-40,-9,-5,-3,2,-4,-1,-25
1520336542386292,-21,-4,3,13,1,0,0,2
1520336542386292,-20,22,-13,-15,-1,0,-2,27
1520336542386292,0,-15,-1,-1,2,8,0,-9
1520336542386292,15,-23,-3,1,-13,-17,-6,-3
1520336542399327,13,27,2,-7,-4,-1,2,1
1520336542399327,-32,-7,-1,-1,-2,-3,-3,0
1520336542407348,-11,0,-4,-6,-1,5,-2,-20
1520336542407348,41,9,9,9,9,8,2,4
1520336542422388,-22,-9,-9,-11,-7,-4,-2,13
1520336542422388,-20,-5,-3,-6,-13,-2,-1,3
1520336542423392,15,5,-1,4,5,-8,-5,-12
1520336542423392,-13,-4,7,1,-12,5,1,-2
1520336542446452,27,-7,4,8,23,-7,-2,0
1520336542446452,-11,-1,-2,3,0,3,3,-3
1520336542446452,-16,1,3,-3,3,-1,-2,1
1520336542446452,4,21,23,24,35,17,7,20
1520336542459487,8,8,-9,-4,-14,-10,4,10
1520336542459487,-10,-12,2,-7,-11,-2,-4,-18
1520336542467508,39,-21,7,24,2,3,2,-16
1520336542467508,-22,31,-10,-26,-12,0,-2,22
1520336542482548,17,-3,2,0,-3,6,0,8
1520336542482548,-39,-14,-5,-4,4,-4,-1,-11
1520336542483551,1,-4,1,-5,-10,-3,0,-4
1520336542483551,3,4,-7,-1,-5,-5,-4,10
1520336542505609,9,-8,-2,1,0,-1,-3,-22
1520336542505609,2,2,0,5,6,1,2,-16
1520336542506613,10,10,0,-4,-5,-8,-1,45
1520336542506613,2,4,-6,-3,-6,0,0,-36
1520336542519647,1,-15,-6,-7,-3,-6,-7,-16
1520336542519647,8,1,11,5,-13,7,1,1
1520336542527668,-20,-5,-11,-4,25,1,-4,-8
1520336542527668,42,-2,1,8,0,-1,1,12
1520336542542708,-24,20,12,-1,-21,1,2,27
1520336542542708,25,-8,5,2,10,-1,1,-36
1520336542543711,-18,9,-9,-10,-5,-4,3,3
1520336542543711,-19,-15,3,12,-9,3,1,24
1520336542565769,-3,2,-10,-13,0,-3,-2,10
1520336542565769,13,7,2,6,-1,-9,-1,11
1520336542566772,13,-12,0,2,2,3,-1,-10
1520336542566772,-26,-7,-4,-4,-3,-2,-3,-17
1520336542579807,-1,5,9,3,-2,10,2,-3
1520336542579807,12,-3,2,6,11,2,3,15
1520336542587828,-17,-2,-6,-10,-18,-16,-11,-10
1520336542587828,9,-7,1,0,23,-2,-4,-9
1520336542602868,1,-12,10,2,2,-5,-1,-15
1520336542602868,5,-2,-1,1,-13,-2,0,-34
1520336542603871,11,9,-5,-5,-9,6,0,51
1520336542603871,-28,-13,-4,3,-4,-3,-6,-18
1520336542625929,6,14,-1,10,27,2,2,31
1520336542625929,-29,-1,-11,-10,-5,4,1,-7
1520336542626932,19,22,7,0,-9,-4,-1,-1
1520336542626932,-1,-10,0,-6,-10,-8,-7,2
1520336542647988,-7,-10,8,5,-4,3,2,-14
1520336542647988,4,-11,-10,-1,-6,-5,-4,4
1520336542648991,33,4,-2,6,8,1,4,4
1520336542648991,-1,-3,-16,-9,-6,-3,-2,0
1520336542663028,1,-15,-23,-8,-18,7,2,-18
1520336542663028,1,3,-5,12,31,-7,-6,-7
1520336542664031,-8,-16,-8,2,3,4,5,-16
1520336542664031,17,3,-11,-3,-1,-10,-2,-19
1520336542686089,-8,1,1,-6,-30,-3,-2,-12
1520336542686089,-18,-11,1,-12,-20,-12,-10,17
1520336542687092,3,25,25,19,47,20,17,17
1520336542687092,3,-6,-4,-7,20,11,-1,4
1520336542708148,-15,16,16,1,-18,1,2,-8
1520336542708148,9,-32,-28,-10,22,-8,-23,-34
1520336542709151,-3,-11,5,2,-35,-13,-3,-13
1520336542709151,12,45,-15,-29,-7,-9,6,42
1520336542723188,3,-28,-6,1,5,1,3,-21
1520336542723188,13,1,4,-1,-25,6,7,-9
1520336542723188,-7,3,-5,-1,14,1,-6,5
1520336542723188,-1,-9,4,10,10,9,1,-14
1520336542746249,-8,4,6,5,-4,-10,-7,27
1520336542746249,5,-2,-10,-14,0,11,1,-6
1520336542746249,4,-25,-19,-13,-26,-4,-3,-19
1520336542746249,-5,1,10,12,18,4,2,-7
1520336542768308,2,6,5,7,5,3,2,1
1520336542768308,13,10,18,12,-14,8,8,23
1520336542769311,-17,-13,-17,-16,32,-8,-10,-9
1520336542769311,-3,-22,-7,6,-20,-9,-3,-9
1520336542782345,4,25,1,-15,-18,2,7,18
1520336542782345,-9,1,-2,2,8,26,6,20
1520336542783348,0,-9,-5,-3,-1,-22,-11,-38
1520336542783348,-10,6,4,3,-3,-2,-2,6
1520336542806409,3,-18,-5,4,10,-6,-2,-12
1520336542806409,6,4,5,2,-16,-15,1,36
1520336542806409,-16,-15,12,19,7,19,8,-15
1520336542806409,-8,44,-33,-51,-40,-14,-3,12
1520336542828468,-8,-19,0,4,-9,-2,-8,-22
1520336542828468,11,7,3,3,30,-4,-1,2
1520336542829471,-25,-7,2,-11,-31,-9,-4,-12
1520336542829471,10,-18,8,19,19,21,-4,-1
1520336542842506,10,3,-12,-8,14,-8,3,11
1520336542842506,-17,14,12,5,-12,-18,16,8
1520336542843508,21,3,-7,4,2,2,10,5
1520336542843508,-8,-11,10,1,-32,-4,0,-9
1520336542865567,20,23,-4,-1,23,3,-8,10
1520336542865567,-6,-35,-22,-10,-8,5,-2,-35
1520336542865567,10,17,2,-7,-11,-4,3,15
1520336542865567,1,-10,11,18,21,-1,-7,-3
1520336542888628,-31,-6,2,-1,-9,3,4,-4
1520336542888628,3,30,6,-1,4,-15,-3,12
1520336542889631,-13,1,8,7,4,22,1,14
1520336542889631,13,17,8,5,17,8,4,9
1520336542902666,22,-30,-15,-2,1,-9,-6,-19
1520336542902666,-9,32,11,-1,-4,-3,0,32
1520336542903668,-17,-5,-5,-13,-25,-9,-8,-9
1520336542903668,-3,-9,9,13,3,8,0,2
1520336542925727,-8,-31,-21,-8,12,-7,-3,-35
1520336542925727,-6,8,13,8,3,5,0,6
1520336542926730,19,13,9,3,-2,-7,-1,8
1520336542926730,-14,-11,-6,-20,-78,-34,2,-8
1520336542948788,-7,21,22,21,23,49,-11,41
1520336542948788,18,-27,-14,-5,9,7,5,-32
1520336542948788,-34,-21,-19,-1,65,-11,-5,-17
1520336542948788,32,7,8,5,8,4,10,8
1520336542962826,-24,17,3,-12,-24,-2,7,9
1520336542962826,3,-20,8,11,-19,-5,7,-14
1520336542963828,30,47,4,-4,-13,3,6,43
1520336542963828,-21,-12,0,-2,7,4,-1,-3
1520336542984884,18,1,7,6,-9,-15,-4,0
1520336542984884,-21,-15,-2,2,12,12,-8,-9
1520336542985887,41,11,-1,-1,1,1,-2,-3
1520336542985887,-12,-8,-26,-26,-4,-3,-3,-1
1520336543008948,11,-2,0,3,-8,-14,1,1
1520336543008948,9,-8,-8,-24,-43,-19,-8,-18
1520336543008948,-13,10,23,22,2,6,1,22
1520336543008948,6,-4,-7,-4,-58,2,0,2
1520336543022986,-16,-3,5,16,110,36,-10,-4
1520336543022986,-10,0,9,21,53,25,-3,14
1520336543023988,12,18,6,0,-9,9,6,20
1520336543023988,-7,-5,-3,-5,-38,-31,-7,-12
1520336543045044,-10,2,20,4,-56,-19,0,-10
1520336543045044,21,35,5,15,42,8,-9,14
1520336543046048,-12,-25,-21,-13,7,-9,-4,-6
1520336543046048,8,4,8,13,29,17,-2,-30
1520336543068106,-9,-4,0,-1,-15,-6,2,-29
1520336543068106,12,-18,-37,-37,-38,-22,-2,0
1520336543069108,-4,-3,6,2,-13,8,1,-17
1520336543069108,-9,-14,-2,6,33,0,-3,1
1520336543083146,1,-11,-13,-10,-8,-11,1,2
1520336543083146,3,17,9,9,11,8,7,2
1520336543083146,9,-19,-14,-9,-20,-5,-7,-24
1520336543083146,21,10,7,5,12,-2,26,-5
1520336543105204,-19,0,-15,-9,3,8,24,12
1520336543105204,-6,7,9,8,-6,-22,13,15
1520336543106207,-8,-23,-18,-15,-5,6,-1,-10
1520336543106207,-4,6,14,15,19,1,-10,-19
1520336543128266,14,-15,-6,-3,-8,-8,-20,-6
1520336543128266,-30,6,-2,-6,-29,-16,-11,5
1520336543129268,13,14,12,14,15,22,-9,44
1520336543129268,-22,-8,2,-1,16,-1,-9,5
1520336543142303,25,0,-3,6,28,6,-1,20
1520336543142303,-31,-11,-5,-11,-12,0,-15,-20
1520336543150325,-1,5,15,10,-3,-16,-3,26
1520336543150325,9,0,-14,-6,-24,2,-2,-26
1520336543165364,21,-4,-7,-8,14,-2,-7,-26
1520336543165364,-27,-17,8,13,11,7,0,18
1520336543166367,-32,-1,-14,-11,-5,-4,2,-5
1520336543166367,5,-1,-1,-3,0,-5,-4,19
1520336543188426,7,2,-6,-7,-21,-3,-4,6
1520336543188426,22,-13,-7,-6,2,1,-4,-35
1520336543189428,8,9,13,16,4,-2,2,-10
1520336543189428,0,-1,-12,-13,-5,-6,-8,15
1520336543202463,-13,-4,-7,-18,-16,0,1,-13
1520336543202463,29,9,16,17,15,2,5,20
1520336543210485,-23,-2,-15,-16,-16,-2,-3,-21
1520336543210485,3,6,13,15,14,-1,-7,4
1520336543225524,18,4,-2,-2,-24,-9,0,12
1520336543225524,-7,-12,-14,-10,11,9,2,-43
1520336543226527,-1,0,11,6,1,0,3,-17
1520336543226527,25,-6,-3,22,33,3,5,13
1520336543248586,-24,8,1,-1,-11,17,1,44
1520336543248586,-28,2,7,6,0,-9,-3,-1
1520336543249589,25,-13,0,1,-6,-4,-1,1
1520336543249589,-26,12,1,-7,6,11,6,2
1520336543261620,-45,12,-2,-5,-3,-6,4,11
1520336543261620,22,5,9,10,1,9,0,-6
1520336543270645,-3,8,-6,-5,3,-3,-3,5
1520336543270645,-9,-17,0,-2,-11,-8,-8,5
1520336543285684,26,-13,-8,-3,-2,-6,0,-38
1520336543285684,-4,-8,-15,-14,-11,-6,3,-7
1520336543285684,-11,-4,5,1,-2,-4,-4,-6
1520336543285684,3,5,6,6,12,8,4,6
1520336543308746,14,-7,-12,-17,-27,-14,-7,-14
1520336543308746,4,7,5,8,16,9,-1,15
1520336543308746,19,-6,-3,-1,-7,-6,5,3
1520336543308746,-4,14,-1,-10,-11,0,4,19
1520336543321780,-4,4,16,25,3,0,-7,-1
1520336543321780,-1,-30,-20,-13,-3,-4,1,-56
1520336543329802,2,27,0,-7,-10,-1,2,16
1520336543329802,4,-6,3,-1,17,5,1,1
1520336543344842,23,-18,-3,-3,-19,-3,5,-6
1520336543344842,-18,10,-8,-13,-10,-2,0,12
1520336543345845,-3,1,9,10,8,-2,-2,-30
1520336543345845,-4,-16,-20,-11,-13,-2,-5,-15
1520336543368906,-7,0,3,3,15,-4,-2,-14
1520336543368906,43,5,7,5,-4,-1,-5,35
1520336543368906,7,-15,-14,-21,-3,2,3,-16
1520336543368906,-4,-21,-15,-14,-17,-11,-2,-18
1520336543381940,0,13,8,12,25,9,3,1
1520336543381940,3,17,25,24,11,5,-4,20
1520336543397983,-36,-25,-23,-20,-31,-17,-7,-11
1520336543397983,-9,4,-4,-4,7,7,2,5
1520336543405002,-9,-3,-4,-1,12,2,4,3
1520336543405002,7,4,-1,-7,-13,3,1,-17
1520336543406005,0,-15,5,16,13,13,6,-14
1520336543406005,33,8,8,11,-4,-1,0,16
1520336543428063,-68,-4,-13,-20,-27,-1,-3,6
1520336543428063,-17,-2,0,4,54,5,-1,-11
1520336543429066,21,15,1,0,-8,3,0,4
1520336543429066,3,-10,5,8,9,-2,1,-8
1520336543442101,22,6,5,-2,-14,-8,2,6
1520336543442101,13,4,-1,-8,-26,-3,-2,-5
1520336543450122,-28,-13,5,12,19,2,-5,-16
1520336543450122,-6,18,-8,-8,-2,-2,7,25
1520336543465162,4,-5,-6,-9,1,-2,-4,-1
1520336543465162,27,-1,2,1,-9,4,1,1
1520336543466165,-58,-36,-12,2,7,-11,-7,1
1520336543466165,46,43,23,8,-8,-3,-2,0
1520336543488223,4,19,10,1,-4,9,5,1
1520336543488223,-25,-16,-8,4,-21,-6,0,41
1520336543489226,0,7,4,5,39,0,-6,-24
1520336543489226,-2,-19,-5,7,2,9,1,-35
1520336543502261,-3,-14,-4,5,13,-1,-1,-11
1520336543502261,30,7,3,-7,-14,-5,1,4
1520336543510282,16,-6,0,-3,-18,-7,-4,-1
1520336543510282,-48,5,-12,-13,-5,-3,-3,26
1520336543525322,10,-2,1,-2,13,0,-6,3
1520336543525322,11,-5,-4,-6,-8,2,1,4
1520336543526325,5,-16,1,3,-3,0,-3,-32
1520336543526325,67,17,5,4,10,-5,-1,16
1520336543548383,-25,21,-6,-14,-13,0,-1,27
1520336543548383,-17,-26,-6,-1,8,4,-2,-25
1520336543549386,15,19,-5,-13,-15,-3,1,32
1520336543549386,-46,-36,-5,0,-1,-1,-7,-26
1520336543562421,15,-2,5,9,2,1,-1,-17
1520336543562421,-23,14,-2,-21,-19,-15,-7,20
1520336543570442,34,20,13,36,19,6,5,14
1520336543570442,-42,-22,-5,-3,2,2,-2,-17
1520336543585482,-14,-10,-3,6,4,-1,-1,21
1520336543585482,44,20,8,1,7,0,0,6
1520336543586485,-11,-7,7,-1,-45,6,-7,-47
1520336543586485,-21,7,-16,-6,24,8,4,22
1520336543608543,-40,2,-9,-14,-3,-2,1,14
1520336543608543,-4,-20,10,7,3,-3,-5,-24
1520336543609546,21,28,-9,-20,-9,-4,3,30
1520336543609546,17,-7,9,3,-11,1,-1,-28
1520336543630602,32,6,6,15,11,-2,-2,-20
1520336543630602,-3,22,-13,-12,-9,-5,1,51
1520336543631605,-10,2,1,-6,9,6,3,4
1520336543631605,0,-10,2,1,-2,1,0,-13
1520336543645642,16,-12,-5,-2,-2,-14,-2,-12
1520336543645642,-2,-22,-2,6,-21,-7,-4,-31
1520336543645642,12,15,-3,-3,7,-1,0,38
1520336543645642,-9,-5,7,-2,25,-2,-5,5
1520336543668703,-14,-4,-4,7,1,5,1,2
1520336543668703,-10,10,-5,-6,4,-7,0,23
1520336543669706,16,-7,1,2,-1,-4,0,3
1520336543669706,-22,-3,1,0,-16,-3,-3,-2
1520336543690762,39,-8,8,14,4,0,-2,-9
1520336543690762,-68,-21,-11,-6,2,5,4,-5
1520336543691765,35,36,-1,-13,-3,1,3,36
1520336543691765,-18,-2,1,-5,-12,-7,-3,4
1520336543704799,12,-12,2,6,7,3,-2,-19
1520336543704799,27,-5,0,6,4,-7,-7,-14
1520336543705802,-36,-6,-19,-19,-5,-2,-1,-3
1520336543705802,-5,7,-7,-10,-21,-3,-1,0
1520336543728863,1,-6,-9,-7,21,2,0,-14
1520336543728863,-24,-9,21,-6,-17,-2,-1,-26
1520336543728863,29,5,0,46,33,0,1,12
1520336543728863,11,13,-10,-15,18,17,8,11
1520336543750922,-51,-9,2,4,0,-8,0,-12
1520336543750922,17,4,-8,2,2,-8,2,0
1520336543751925,8,5,4,-16,-29,-10,-5,8
1520336543751925,10,-1,4,6,-7,-1,2,0
1520336543764959,-13,-12,-6,3,-3,4,-3,3
1520336543764959,-21,23,-4,-9,2,7,1,9
1520336543765962,17,-17,3,3,0,-6,-5,-7
1520336543765962,0,0,-5,2,5,1,1,-2
1520336543788021,13,10,1,-6,-6,-2,0,4
1520336543788021,-10,-5,-11,-8,-5,1,0,-2
1520336543789024,-23,-17,7,11,15,13,6,-19
1520336543789024,21,-5,1,4,-4,-12,-3,7
1520336543811082,18,0,10,2,-9,-11,-7,-18
1520336543811082,20,-2,-10,4,10,8,3,17
1520336543812085,-37,15,-9,-22,-7,9,4,24
1520336543812085,3,-6,11,13,1,-5,-8,-16
1520336543826122,-33,-21,-3,-1,-11,2,5,-30
1520336543826122,58,43,-2,-1,21,-17,-3,42
1520336543833141,-39,-25,-4,-8,-6,1,-4,-23
1520336543833141,48,-2,21,29,13,-2,-3,-9
1520336543848181,-60,2,-26,-33,-31,-2,2,38
1520336543848181,-28,-2,6,0,3,14,3,-17
1520336543849183,34,5,0,-2,-3,-5,-3,11
1520336543849183,-13,13,-10,-23,-15,-4,-2,-5
1520336543871242,34,-14,7,17,9,0,1,-27
1520336543871242,-38,-32,-12,-6,-6,2,-2,-19
1520336543872245,-25,-1,2,4,3,-6,-2,-3
1520336543872245,21,-10,-3,12,2,-2,1,4
1520336543885279,18,44,-2,-22,-6,2,2,38
1520336543885279,-26,-20,-3,4,-4,-2,-1,-19
1520336543886282,5,8,3,-7,-10,-8,-8,-10
1520336543886282,1,-6,1,1,6,-5,1,-8
1520336543908341,29,21,4,7,17,-6,-1,24
1520336543908341,-17,5,3,1,2,7,-1,12
1520336543909344,-6,10,-1,-15,-7,-3,0,7
1520336543909344,-9,-19,2,8,-16,0,-3,-15
1520336543931402,38,12,10,7,26,2,-6,-8
1520336543931402,-57,-71,-15,13,15,3,0,-55
1520336543931402,71,66,-10,-21,-22,-8,0,63
1520336543931402,-29,14,3,-13,-9,4,0,1
1520336543945439,-10,-17,3,4,-2,3,-2,-15
1520336543945439,18,9,11,12,-2,1,-2,-18
1520336543946442,22,-25,-1,9,6,-9,-2,5
1520336543946442,-70,-5,2,-7,1,7,0,6
1520336543968501,21,11,-9,-14,-8,-3,-2,-5
1520336543968501,0,8,9,6,0,-3,-1,4
1520336543969504,-3,-21,5,12,8,2,-1,-12
1520336543969504,-4,13,-3,-6,-4,-6,1,11
1520336543990560,-20,-10,6,5,-5,-3,-5,-5
1520336543990560,30,10,-6,11,29,7,2,-8
1520336543991562,-19,-13,1,0,-6,2,5,10
1520336543991562,2,19,10,0,2,-3,-3,14
1520336544005599,9,-12,-6,3,16,7,2,-5
1520336544005599,18,18,1,-11,-21,-15,-3,14
1520336544006602,-9,-14,2,9,22,5,-2,-47
1520336544006602,-8,-22,-14,-8,-11,-5,-3,-19
1520336544028661,3,-6,-2,0,-6,0,0,9
1520336544028661,23,34,0,-15,-9,3,0,-19
1520336544029664,-48,-36,0,7,2,2,-3,-32
1520336544029664,39,28,2,-5,-9,-2,1,32
1520336544050720,-44,-9,-6,-10,-6,5,-2,-13
1520336544050720,1,-6,7,3,2,2,1,27
1520336544051722,2,-9,1,-4,-18,-3,-3,-20
1520336544051722,-6,1,-13,-7,17,-3,-3,2
1520336544065760,17,-1,-1,1,-9,-2,2,-7
1520336544065760,8,-5,0,11,9,6,3,1
1520336544065760,-15,8,9,7,5,2,1,7
1520336544065760,7,-21,-9,-7,-50,-20,-3,-8
1520336544088821,5,18,2,-4,9,2,-3,15
1520336544088821,-6,-8,-7,3,40,10,3,0
1520336544089825,-1,2,2,10,-3,-2,-1,-2
1520336544089825,-6,-9,-8,-3,5,9,3,-9
1520336544110880,-10,-10,-4,-6,-27,-17,0,-18
1520336544110880,38,18,7,-5,-30,-7,-3,21
1520336544111883,6,11,1,-3,13,4,0,17
1520336544111883,-15,-1,-6,-6,-1,4,-2,4
1520336544124917,6,-6,-2,5,6,5,-2,-10
1520336544124917,-6,-3,5,2,4,1,-2,3
1520336544125920,-5,0,1,4,1,0,0,0
1520336544125920,-12,-5,-10,-5,0,-4,-6,-48
1520336544147978,13,0,-1,1,6,0,2,2
1520336544147978,-10,-4,-3,-6,-9,-5,-1,-6
1520336544148981,-8,4,-1,2,-7,3,-1,-5
1520336544148981,3,1,0,-15,-59,-16,1,12
1520336544171040,-6,7,16,28,49,19,-1,33
1520336544171040,4,-18,-24,8,34,6,-5,-68
1520336544172043,-4,-6,-11,-1,57,4,1,3
1520336544172043,-1,-9,4,8,48,7,1,-8
1520336544185077,-2,12,6,-9,-58,-16,-1,21
1520336544185077,18,28,5,-16,-61,-8,6,69
1520336544186080,-9,-2,3,5,13,8,-4,-62
1520336544186080,0,-8,12,21,-18,8,-2,-19
1520336544208138,6,3,-18,-8,48,-6,3,8
1520336544208138,-10,-2,14,10,1,-4,-17,10
1520336544208138,9,-6,-17,-19,-5,-25,1,4
1520336544208138,-6,-9,-7,-3,-3,-4,5,3
1520336544231200,1,-11,-3,-1,-26,-1,1,-27
1520336544231200,-6,-3,5,4,13,7,2,7
1520336544232202,-2,-1,-8,-9,-14,2,7,15
1520336544232202,8,3,2,8,-10,1,0,1
1520336544244234,3,-4,-4,-2,28,4,-4,27
1520336544244234,-13,2,-1,-15,-48,-8,2,-4
1520336544253258,-1,0,2,1,-65,17,4,17
1520336544253258,9,-5,-15,5,89,-15,2,-12
1520336544268298,3,-5,-3,-2,-5,-4,-3,-23
1520336544268298,-11,-2,-8,-8,-9,-11,-5,-8
1520336544268298,-10,-6,3,-1,-26,-6,-3,-9
1520336544268298,-9,35,18,0,-19,14,11,31
1520336544291360,-19,-16,-12,-6,9,22,0,-32
1520336544291360,15,-1,-3,-7,2,-9,0,15
1520336544291360,3,-18,-8,3,11,-7,-3,-6
1520336544291360,-16,-7,-10,-8,-4,-2,-6,-14
1520336544304394,4,2,4,3,-6,-3,2,21
1520336544304394,-7,2,5,5,0,11,3,-4
1520336544320437,3,4,9,-9,-26,6,1,12
1520336544320437,15,8,12,16,67,3,-11,11
1520336544327456,2,-6,-3,-3,-4,-10,1,-28
1520336544327456,3,-4,6,9,6,-10,-5,-2
1520336544328459,0,16,1,-1,7,-2,-1,11
1520336544328459,11,-26,-18,-13,-56,2,-2,-38
1520336544351520,-5,6,10,13,70,-7,-4,28
1520336544351520,-5,-9,-8,-8,-5,-1,5,-10
1520336544351520,-16,-6,2,4,3,-4,-2,-15
1520336544351520,40,13,2,1,-14,0,1,29
1520336544364554,-36,9,-8,-24,-44,-3,-4,1
1520336544364554,-34,-14,-8,-8,-1,3,1,5
1520336544372576,10,-6,-1,3,12,1,-3,-46
1520336544372576,-1,-14,-5,1,-1,0,-1,12
1520336544387616,34,2,1,2,-20,1,4,-15
1520336544387616,5,-6,-11,-8,7,4,-2,-12
1520336544388618,14,-7,-13,-13,-8,-27,-20,12
1520336544388618,-26,1,0,0,10,-3,-1,-8
1520336544410677,3,10,13,8,-24,-5,-1,5
1520336544410677,7,-3,-2,-4,-20,8,-6,30
1520336544411680,10,6,11,16,33,3,0,12
1520336544411680,-23,-5,2,6,51,3,3,-2
1520336544424714,13,2,-4,1,-10,-2,1,23
1520336544424714,-9,8,10,-5,-17,-10,-3,-16
1520336544432736,20,1,-7,-9,-19,-12,6,21
1520336544432736,-16,3,-2,1,-29,16,0,5
1520336544447776,0,-34,-13,-10,-2,-9,3,-61
1520336544447776,6,-4,3,9,13,2,3,-9
1520336544448779,-15,13,-2,-5,2,0,-1,-17
1520336544448779,11,-6,-9,-7,-14,3,-2,-7
1520336544470837,-29,-3,-6,-5,-8,3,3,23
1520336544470837,8,-1,4,4,4,-2,-1,-17
1520336544471840,-9,-4,-3,-3,1,19,3,0
1520336544471840,13,-8,2,3,9,4,1,-13
