timestamp,emg1,emg2,emg3,emg4,emg5,emg6,emg7,emg8
1576746142151852,-3,5,0,11,-1,0,-5,-8
1576746142151852,-2,-1,-5,10,0,0,-1,-3
1576746142152888,2,-5,-1,-10,0,0,2,5
1576746142152888,-3,2,-1,-8,0,-2,-5,-2
1576746142154949,1,1,-2,4,-3,1,-3,-7
1576746142154949,-2,0,-3,9,-2,0,0,-5
1576746142155888,-6,-1,-1,-1,-1,-1,5,8
1576746142155888,0,-2,1,-7,0,-4,-2,1
1576746142161845,-8,1,-1,3,-1,-3,-4,-5
1576746142161845,-2,-1,-1,7,-5,-1,-2,-4
1576746142168810,5,-4,-1,-8,1,-2,1,2
1576746142168810,-1,-3,0,-7,0,2,-1,1
1576746142179782,-5,2,1,6,-2,-2,-1,-2
1576746142179782,-1,3,-1,5,-1,-2,0,-3
1576746142191750,2,-4,-1,-7,0,-3,-3,2
1576746142191750,-1,-3,1,-7,0,-2,0,-1
1576746142199729,0,0,-4,7,-3,-1,2,-2
1576746142199729,-1,0,0,3,-1,0,-2,-2
1576746142213788,3,1,1,-4,0,0,-3,-3
1576746142213788,2,1,0,-2,-3,-2,0,-3
1576746142223662,-4,-1,-3,4,-1,0,0,-2
1576746142223662,-3,-1,-2,2,-2,0,1,2
1576746142260610,3,-5,2,-15,1,-3,1,4
1576746142260610,0,1,1,1,-2,0,-2,-2
1576746142261593,-7,5,-3,13,-5,0,-1,-6
1576746142261593,0,-2,-2,-3,-1,1,2,5
1576746142263558,2,-4,2,-6,0,-1,-1,3
1576746142263558,-6,1,2,-2,0,-1,-2,-5
1576746142265649,-2,3,-2,9,1,-1,-1,-7
1576746142265649,2,-3,-4,0,1,-1,1,1
1576746142273634,-4,-1,-3,-8,-1,0,2,1
1576746142273634,0,-1,0,-6,-2,-1,-5,-3
1576746142282506,-5,1,-3,8,-2,-4,-3,-6
1576746142282506,0,-5,-2,2,1,-1,1,3
1576746142288610,2,-1,1,-8,2,2,-3,3
1576746142288610,-4,0,-1,0,-1,1,-3,-4
1576746142303551,-2,3,0,9,-4,0,-1,-1
1576746142303551,5,-3,0,-2,1,-3,0,1
1576746142310471,-1,-2,2,-8,0,-4,-1,1
1576746142310471,-2,1,-3,2,0,-1,-2,-4
1576746142334366,-1,-2,-3,6,-2,2,-2,-2
1576746142334366,-4,-2,-2,-3,-1,0,-1,1
1576746142334366,0,1,0,-3,1,-1,1,2
1576746142334366,-2,0,-1,1,-2,0,0,-1
1576746142348431,-2,-1,-2,1,-1,0,-1,-2
1576746142348431,4,-1,0,-3,-1,1,-4,-1
1576746142349324,1,-1,-2,-3,1,2,-4,1
1576746142349324,4,2,0,-1,-3,0,2,-2
1576746142371371,0,2,0,1,-3,-1,0,0
1576746142371371,1,-1,0,-3,-1,-1,-2,0
1576746142372270,0,1,0,-2,0,0,-1,-1
1576746142372270,1,-4,-1,-1,-3,-2,0,0
1576746142394206,-2,-1,-4,-1,-3,-2,1,-1
1576746142394206,1,-4,1,-1,-2,0,2,1
1576746142394206,-3,0,-1,0,0,0,3,1
1576746142394206,-1,0,-3,-1,1,-3,-1,-2
1576746142409262,3,0,1,3,0,-3,1,-1
1576746142409262,0,-3,-3,-2,0,0,1,3
1576746142409262,0,-3,-2,-3,1,-2,-4,0
1576746142409262,-1,1,0,-1,-2,2,-2,-1
1576746142431107,1,1,1,1,0,3,-2,1
1576746142431107,0,2,-2,-2,-1,-1,-1,-2
1576746142432106,0,-2,-2,2,-1,-2,0,-1
1576746142432106,1,-1,-2,2,0,-3,-5,0
1576746142454099,5,-5,-1,-1,1,-2,0,-2
1576746142454099,1,0,0,0,0,1,3,0
1576746142455041,0,-1,0,-2,-2,1,-2,-3
1576746142455041,1,-2,2,-2,1,0,0,1
1576746142469056,-2,-1,0,-4,-2,0,-1,-4
1576746142469056,0,1,0,-2,0,-2,3,0
1576746142470032,-2,-2,-2,-1,0,-3,0,0
1576746142470032,0,-1,-2,2,-1,-2,0,0
1576746142490993,1,2,-3,-2,0,-2,-1,-2
1576746142490993,-2,-1,-1,-2,0,-1,0,0
1576746142491944,3,-2,1,-1,-1,0,2,1
1576746142491944,-1,-1,1,0,-1,0,0,-2
1576746142513938,-2,1,-1,4,0,-1,2,2
1576746142513938,0,-4,-1,-2,-2,0,-3,-1
1576746142514886,1,1,-1,-3,-1,-1,-1,-2
1576746142514886,-1,2,0,1,-2,1,-1,-3
1576746142528843,3,-2,1,3,-2,0,0,1
1576746142528843,-4,-1,-3,-2,-1,-1,3,-3
1576746142529843,-4,2,0,1,0,3,-1,-1
1576746142529843,2,0,-1,1,-2,-2,1,0
1576746142551806,-2,1,-1,0,-2,-1,-1,-2
1576746142551806,3,-2,1,0,1,-3,0,1
1576746142551806,-3,4,0,-1,0,1,-1,-1
1576746142551806,2,-2,-1,-2,0,-1,0,-2
1576746142573775,-3,-5,-3,-2,0,0,-2,-2
1576746142573775,-1,-1,-3,1,-2,4,-5,0
1576746142574747,1,-2,-1,0,0,0,-1,-3
1576746142574747,-4,2,-2,-2,0,0,-1,-2
1576746142588715,2,-1,0,-3,0,-3,-1,-2
1576746142588715,0,-1,1,2,-2,0,-1,3
1576746142589718,-3,0,0,-2,-2,-2,-1,-3
1576746142589718,-3,-1,-1,2,1,-4,2,2
1576746142611670,0,-1,-1,2,-1,0,2,-1
1576746142611670,-4,1,0,-4,0,-1,-1,-1
1576746142612620,-2,-2,-1,0,-1,-3,0,-1
1576746142612620,-1,-1,-1,2,0,0,-3,0
1576746142633597,0,0,0,-1,1,2,0,-2
1576746142633597,-1,0,-2,-2,1,0,0,5
1576746142634563,1,-2,-2,1,-2,-2,-1,0
1576746142634563,-4,-2,-2,0,-4,0,2,0
1576746142648574,0,0,-1,-2,0,-4,-4,-2
1576746142648574,-3,-3,-1,-1,0,0,-1,-8
1576746142649523,3,0,0,1,-3,-1,-3,-1
1576746142649523,-3,-1,-1,3,-1,1,0,0
1576746142671498,-1,-1,-1,1,-3,-2,1,-2
1576746142671498,-2,0,1,-1,0,-6,1,-1
1576746142672494,-2,-1,1,-1,-3,2,1,0
1576746142672494,0,1,0,-1,2,-2,-2,0
1576746142693406,-1,-3,0,0,1,1,-2,1
1576746142693406,1,0,-1,-1,-1,0,1,0
1576746142694405,-1,-1,-2,-1,-1,-1,-2,-3
1576746142694405,1,-5,1,0,0,1,-1,-1
1576746142708407,-6,1,-1,0,-2,0,-1,3
1576746142708407,-3,-2,-1,0,0,-3,3,-2
1576746142709365,-3,-2,-1,0,0,-1,-1,-5
1576746142709365,3,-2,0,0,1,1,0,-2
1576746142731349,2,-2,0,-4,-2,0,-2,-3
1576746142731349,-1,-1,1,-3,-1,1,-2,-3
1576746142732304,-2,-1,-2,-5,1,-1,0,0
1576746142732304,0,-2,-2,-1,-1,-2,-3,-1
1576746142754250,-4,0,-1,-2,-1,-1,-2,3
1576746142754250,4,2,-1,3,-2,1,0,4
1576746142754250,0,0,-1,2,0,1,1,1
1576746142754250,2,-1,-3,1,-1,-2,1,-3
1576746142768204,1,-3,-1,-1,0,-3,0,1
1576746142768204,1,-3,-1,-4,-1,0,0,-3
1576746142776183,-4,0,-2,-1,-1,-1,1,0
1576746142776183,1,0,1,2,-2,-1,1,-3
1576746142791187,2,-1,1,0,-1,1,3,-3
1576746142791187,2,-1,1,-3,1,-2,-3,2
1576746142792144,1,-2,-1,1,-1,-1,-3,0
1576746142792144,-1,-2,-1,-1,-1,2,-1,0
1576746142814082,0,0,-3,0,1,-2,0,-2
1576746142814082,3,-2,-3,-3,-1,0,-4,-6
1576746142815088,-2,1,0,-1,-2,0,0,0
1576746142815088,-3,0,0,1,-2,-3,-4,0
1576746142828078,1,0,0,0,1,0,2,-2
1576746142828078,0,-2,-1,0,2,-2,0,-1
1576746142836066,4,-3,-1,3,-2,-1,1,3
1576746142836066,-1,3,-1,-2,-1,0,-2,-1
1576746142850985,0,-3,0,-1,-1,2,1,-1
1576746142850985,0,1,-1,-1,-2,-2,3,-3
1576746142851983,-1,0,0,0,1,-4,-1,0
1576746142851983,1,0,-2,3,0,-2,0,-1
1576746142874025,2,-2,-2,1,-1,-1,-2,4
1576746142874025,-1,1,1,-3,-1,1,-2,0
1576746142874955,0,-2,-1,0,1,0,2,3
1576746142874955,-2,0,-1,0,1,0,-3,-1
1576746142887984,0,-1,2,-5,0,-3,-3,-3
1576746142887984,-4,1,1,1,-2,0,-1,4
1576746142896908,-1,-4,0,-1,-1,-1,-2,2
1576746142896908,-1,-2,-2,-3,-2,2,2,-3
1576746142911866,1,-1,-2,0,1,1,-2,1
1576746142911866,0,-1,0,2,-1,-5,-3,-1
1576746142911866,3,-1,-3,0,2,2,-4,0
1576746142911866,0,-2,0,-2,-2,0,2,2
1576746142933764,-1,0,-1,-2,0,-2,-3,0
1576746142933764,-3,-1,-1,1,-1,1,-1,3
1576746142934788,0,-2,0,1,-2,-2,-3,-2
1576746142934788,-3,0,-1,0,-2,-1,-3,-2
1576746142948727,0,-2,-2,-2,1,0,2,-2
1576746142948727,2,0,1,-3,2,-1,-3,-4
1576746142956817,-3,-1,-1,0,0,-1,-2,-3
1576746142956817,-1,1,-3,2,-1,2,-1,-2
1576746142971777,-3,-4,-1,2,-1,-1,-3,1
1576746142971777,-2,1,-3,-3,-1,-2,-2,-2
1576746142971777,0,-1,-2,-1,-1,0,1,-2
1576746142971777,2,-2,-1,1,-2,-3,1,0
1576746142993637,-3,0,-2,0,-2,1,-1,0
1576746142993637,3,-6,-3,2,-1,1,-1,2
1576746142994622,-2,2,0,1,1,-2,2,-4
1576746142994622,3,2,-1,2,2,0,-3,1
1576746143008577,0,-2,0,-2,0,-1,-3,-1
1576746143008577,2,1,1,-2,-1,-1,-1,-2
1576746143016584,2,0,-3,0,-1,-2,0,-2
1576746143016584,-5,-2,-3,2,-4,-1,-1,-1
1576746143031545,0,-1,-3,0,0,1,1,1
1576746143031545,-1,0,-1,-3,-1,-1,0,-3
1576746143032501,-1,1,3,-2,0,3,-1,-1
1576746143032501,-5,1,-1,-1,-2,0,-1,-1
1576746143053488,2,-1,1,-2,-3,-2,-2,0
1576746143053488,-1,-1,2,1,2,-1,-3,-4
1576746143054442,-2,0,-1,0,-4,0,-1,-1
1576746143054442,3,2,-2,1,-1,-1,1,-4
1576746143068445,-2,-1,-1,0,-1,-3,2,-3
1576746143068445,3,-3,-1,-2,0,-2,2,3
1576746143076381,-1,-1,0,0,-1,-3,-5,-2
1576746143076381,-2,0,0,1,-3,-1,0,1
1576746143091374,1,2,-2,0,1,-1,0,1
1576746143091374,-2,-2,-1,-1,-2,0,0,3
1576746143092372,-1,-3,-2,0,-1,1,1,-3
1576746143092372,2,-2,-2,-1,3,-3,0,-2
1576746143113281,0,1,0,-4,-2,4,0,0
1576746143113281,-4,-1,0,0,-1,-1,2,-1
1576746143114279,-3,-4,-1,0,0,-1,0,-1
1576746143114279,1,-1,0,0,-1,0,0,-1
1576746143128242,-1,-2,-1,1,-2,-1,3,0
1576746143128242,1,-2,-2,-1,0,-2,-3,0
1576746143136221,0,-2,-1,1,-2,-2,0,-1
1576746143136221,-2,-1,-1,-1,0,-1,-1,-2
1576746143151179,1,1,-1,1,-3,-5,0,1
1576746143151179,2,2,0,2,2,4,0,5
1576746143152178,0,4,-3,0,0,3,0,-2
1576746143152178,1,-1,-1,2,-1,0,-5,-1
1576746143174119,1,-2,2,1,1,2,2,4
1576746143174119,-4,-1,-1,-2,-1,-4,2,-4
1576746143175116,3,0,0,-1,0,0,0,3
1576746143175116,-7,0,0,3,-1,-3,1,4
1576746143197058,-3,-4,-1,-2,-2,0,-6,-4
1576746143197058,4,0,-2,-1,0,-1,-1,-3
1576746143198055,1,-1,-1,0,-1,-2,-1,1
1576746143198055,-2,0,-2,-3,-1,-1,1,-3
1576746143211021,-2,-2,1,0,0,0,1,4
1576746143211021,2,-4,-1,-6,0,2,-1,-2
1576746143212020,2,-2,-1,-1,-3,-2,0,-4
1576746143212020,0,0,-1,-1,1,0,-4,-2
1576746143233959,-2,-2,0,-3,-2,-2,-4,-2
1576746143233959,-2,-2,0,-3,-3,-5,-3,-3
1576746143234956,-1,0,0,0,0,-1,-1,-3
1576746143234956,-1,0,-2,3,0,-1,1,-1
1576746143256898,4,-3,-1,-4,2,-4,-2,-2
1576746143256898,1,-3,-1,-2,-1,0,2,0
1576746143257903,1,-1,-2,4,-2,-1,-3,1
1576746143257903,-1,-1,-1,-2,-1,-1,-1,-4
1576746143279837,3,0,-4,0,0,-1,1,1
1576746143279837,-1,-1,0,0,0,-1,-1,0
1576746143279837,3,-3,-1,1,-1,0,-1,-3
1576746143279837,-2,1,-3,-2,-2,0,1,-4
1576746143293808,0,0,-1,1,1,-2,-3,1
1576746143293808,-2,1,2,0,-1,1,0,-1
1576746143294804,1,0,-2,-1,-3,-1,1,0
1576746143294804,-4,2,-1,3,0,-1,2,2
1576746143316740,1,-2,-3,-2,0,-2,2,-3
1576746143316740,-3,2,-2,0,-1,0,-5,0
1576746143317734,-1,-2,1,2,-1,-1,0,2
1576746143317734,4,-2,2,0,-2,2,-3,-1
1576746143339678,3,-2,0,0,-2,0,0,2
1576746143339678,-1,0,-1,3,1,-3,1,1
1576746143340675,-1,-1,-1,-3,-4,-2,-1,-1
1576746143340675,-1,1,0,-2,0,-3,2,-3
1576746143353638,1,1,-1,0,-2,1,3,2
1576746143353638,4,-3,0,-5,-1,-1,0,-1
1576746143361618,-1,-1,-2,1,0,0,-3,0
1576746143361618,-3,-3,-2,0,-1,-4,-1,-1
1576746143376578,1,-1,0,0,-1,-1,-3,-3
1576746143376578,-4,1,-3,0,0,-1,-1,-4
1576746143377574,3,0,1,-1,1,0,0,-5
1576746143377574,0,-2,-1,0,-1,-3,-1,2
1576746143399537,-1,-1,-4,-6,-1,-1,-1,0
1576746143399537,-1,1,0,0,-1,-2,-2,1
1576746143400516,-2,0,0,-1,-1,-1,-3,-1
1576746143400516,1,1,-1,3,0,0,-1,-1
1576746143413480,-4,-2,1,-2,0,-3,0,0
1576746143413480,-5,-1,-3,0,-1,-1,-1,1
1576746143421491,-4,-2,-1,0,1,-1,-1,-1
1576746143421491,-1,0,-2,3,-3,0,-1,2
1576746143436422,-3,-2,0,-1,-3,0,-3,0
1576746143436422,1,0,-2,-1,-2,1,1,0
1576746143437416,1,-1,0,1,1,-4,-2,-1
1576746143437416,-1,-2,-3,-3,2,-1,-3,-4
1576746143459357,0,0,-2,-1,1,2,2,3
1576746143459357,1,-4,0,-1,-1,1,-1,-1
1576746143460354,-2,1,-1,0,-2,0,-1,-1
1576746143460354,-2,1,2,1,-1,0,0,-1
1576746143473325,2,0,-1,-3,0,-5,-2,-1
1576746143473325,0,0,1,-3,-1,0,2,-4
1576746143481303,2,0,0,1,-1,1,0,-2
1576746143481303,0,0,-2,4,-3,-2,-1,3
1576746143496257,2,0,-1,-1,-2,-1,2,0
1576746143496257,1,0,1,-1,-2,1,-5,1
1576746143497255,-2,-1,0,1,-1,-3,0,1
1576746143497255,-1,-5,-1,-1,-1,1,1,-2
1576746143519198,-1,0,-2,-3,-1,-1,-1,-3
1576746143519198,-1,-1,0,1,-1,-3,1,1
1576746143520195,-1,2,0,2,-1,1,0,-2
1576746143520195,-1,0,-1,0,0,-2,0,-3
1576746143533192,-1,-1,-1,-1,0,1,-2,1
1576746143533192,-4,-3,-5,-7,1,-2,-1,-1
1576746143541171,-3,-1,-1,1,-1,-2,0,2
1576746143541171,-1,-3,1,0,-2,-2,1,0
1576746143556133,-1,0,1,-1,-2,-1,1,1
1576746143556133,0,0,-1,-1,-3,2,-1,-3
1576746143557129,-1,0,0,2,-1,-2,3,1
1576746143557129,1,-2,-1,-3,-3,2,-2,-2
1576746143579037,2,-3,-1,-5,-2,-2,-2,-2
1576746143579037,0,-2,-1,1,0,-2,0,-2
1576746143580033,3,-2,-3,-2,-1,1,-1,-3
1576746143580033,4,1,-1,1,0,0,-3,-1
1576746143592998,-1,-4,-1,-4,-1,1,-1,-3
1576746143592998,3,1,-1,-2,-4,0,-2,5
1576746143601011,-1,-4,1,-2,-2,-1,0,-3
1576746143601011,-3,-1,-2,-1,-1,-1,1,-3
1576746143615991,5,0,2,1,0,0,0,0
1576746143615991,0,-2,1,-2,1,-2,-1,-2
1576746143616937,1,-1,-2,0,0,-1,-6,3
1576746143616937,1,2,0,-3,0,0,3,0
1576746143639878,-2,0,-3,0,-2,-2,-1,-4
1576746143639878,1,0,0,0,0,-2,3,1
1576746143639878,0,1,-1,-2,-1,-1,0,-3
1576746143639878,1,1,0,1,0,-3,-1,0
1576746143652840,0,0,-3,0,1,1,0,2
1576746143652840,0,-4,-1,-1,-1,-2,0,2
1576746143661819,-1,-2,-2,-1,-2,2,-1,0
1576746143661819,-2,-2,0,-3,-2,-2,-3,2
1576746143676775,3,1,1,-1,1,-1,-1,-3
1576746143676775,2,0,1,-5,-2,1,-1,-1
1576746143676775,3,2,-2,1,0,-1,0,1
1576746143676775,1,-5,-4,-2,-1,0,-2,-3
1576746143699718,-2,-1,0,1,1,-2,4,0
1576746143699718,-2,0,1,-4,0,-1,0,-3
1576746143700718,-2,-2,1,0,-2,2,-2,1
1576746143700718,1,-1,-1,1,-1,-1,-4,0
1576746143721660,2,-2,0,0,-3,-1,-1,1
1576746143721660,3,1,-3,-1,-2,-3,2,0
1576746143722657,0,-2,-2,0,2,0,2,-4
1576746143722657,-1,-2,-2,0,1,0,0,0
1576746143736620,-2,-4,0,-4,-2,1,-1,2
1576746143736620,0,1,-1,3,-1,-1,-2,1
1576746143736620,2,4,0,0,0,-3,2,0
1576746143736620,0,-1,0,0,-2,-1,-1,1
1576746143759554,2,0,-2,-1,1,-2,-2,-2
1576746143759554,0,1,-1,0,-1,3,-3,-2
1576746143760554,-1,-5,-2,0,-2,-3,-2,-3
1576746143760554,-1,0,-2,1,-1,1,1,1
1576746143782491,-5,0,1,1,-2,1,1,1
1576746143782491,0,-2,-1,-1,0,-3,-3,-4
1576746143782491,-6,1,-3,1,-2,1,0,-1
1576746143782491,3,2,0,-1,-1,-4,-3,-2
1576746143796492,4,-1,0,2,1,-2,-1,-2
1576746143796492,-1,-2,-1,-2,-1,0,-2,-5
1576746143797475,-2,-1,0,-3,-1,-1,-1,-3
1576746143797475,0,-2,0,1,-2,0,-1,-4
1576746143819395,2,-4,-1,-4,0,-1,0,0
1576746143819395,-3,-1,-1,0,0,-3,-1,0
1576746143820437,-3,-1,-1,0,1,-2,1,-1
1576746143820437,1,-1,-3,2,-2,-1,1,-1
1576746143842333,0,1,-2,-1,-2,1,-1,-2
1576746143842333,0,1,0,-1,0,1,0,2
1576746143842333,-1,-1,0,-2,-2,-1,0,3
1576746143842333,-2,-3,1,-3,-1,-2,-1,0
1576746143856339,-4,-1,-1,-3,-1,-2,-4,-2
1576746143856339,2,-3,-3,0,-1,-1,-1,-1
1576746143857301,-1,3,-1,0,-1,-1,1,0
1576746143857301,-1,0,-2,0,0,-1,1,-9
1576746143879236,5,-4,1,-5,0,-3,-3,1
1576746143879236,-4,-2,0,0,-2,-1,-1,1
1576746143880235,-2,-3,-1,0,0,-2,-1,-2
1576746143880235,-1,1,-2,-2,-2,0,1,-4
1576746143902277,0,0,-1,-2,0,1,4,0
1576746143902277,-1,-3,-1,-3,-1,-1,-1,-3
1576746143903216,2,-2,-1,1,-3,0,-3,2
1576746143903216,-1,-2,-1,-4,-1,-1,-1,-1
1576746143916157,-6,-1,1,1,-1,0,-3,-2
1576746143916157,-1,-1,-1,-2,0,1,1,-2
1576746143917136,2,-1,-2,0,-2,1,-4,-5
1576746143917136,1,0,-1,-2,-1,2,1,3
1576746143940070,-1,-1,0,-1,-1,-1,0,3
1576746143940070,2,-1,-2,1,0,-2,-1,-3
1576746143940070,1,-2,0,0,0,-1,-1,-1
1576746143940070,3,0,-1,3,1,0,1,3
1576746143962118,-1,-2,-4,-2,-2,-2,5,2
1576746143962118,-2,-3,-1,-3,0,-1,1,-3
1576746143963016,2,2,-1,2,-2,-1,2,1
1576746143963016,1,-2,2,0,-1,-1,-3,0
1576746143975976,-7,0,0,-1,0,0,-4,0
1576746143975976,-2,0,-1,1,-1,-1,0,3
1576746143976974,1,0,-3,-2,1,-3,1,0
1576746143976974,-1,0,-1,1,0,-2,1,4
1576746143999957,4,-2,3,-2,-1,-2,1,1
1576746143999957,3,-3,-1,-1,-1,0,3,-1
1576746143999957,-1,-1,-2,-1,-1,1,-3,-2
1576746143999957,3,-3,1,0,-1,-1,-2,-1
1576746144021958,1,0,-1,-2,-1,-2,-3,2
1576746144021958,-1,0,0,0,-2,-2,0,-2
1576746144022852,1,-2,-3,-1,-2,0,-4,-3
1576746144022852,-1,-1,-1,1,-1,2,-2,-2
1576746144036849,2,-1,-2,-1,0,2,1,-5
1576746144036849,-3,1,0,2,-1,-2,-2,4
1576746144036849,-2,-4,-1,-2,2,-2,-3,-2
1576746144036849,-6,0,0,2,-1,-3,0,2
1576746144059751,2,-2,-1,-2,-1,0,0,3
1576746144059751,0,0,0,-1,-1,-4,1,-4
1576746144060756,-5,1,-1,1,-1,-4,1,-1
1576746144060756,-1,-2,-2,-2,-2,-3,0,-2
1576746144081790,1,2,-4,-3,1,-2,1,1
1576746144081790,1,-3,0,-3,0,-3,-5,1
1576746144082689,-2,-1,0,4,0,0,0,1
1576746144082689,-4,-3,0,0,1,-1,-1,-2
1576746144096752,5,3,1,-2,-1,1,0,-1
1576746144096752,0,2,-1,-4,0,-1,1,1
1576746144097649,-3,-1,2,1,-2,2,-3,-2
1576746144097649,1,1,-1,3,-1,1,1,0
1576746144119695,2,-2,-1,-2,-2,0,0,1
1576746144119695,-2,-3,-3,-3,0,1,0,-2
1576746144120623,0,0,1,0,-3,-1,0,-1
1576746144120623,-2,-1,-1,-2,0,-2,-1,0
1576746144142529,1,-3,-2,0,0,-4,0,0
1576746144142529,-5,-2,-1,1,-1,-2,-2,-2
1576746144142529,1,-3,-1,-2,-2,-1,0,-3
1576746144142529,3,-1,-3,-3,-2,0,-2,0
1576746144156543,-4,-3,0,0,0,-3,-1,0
1576746144156543,0,-2,-1,0,-1,2,-2,-2
1576746144157511,-1,1,-1,-3,-1,-2,0,0
1576746144157511,-2,2,0,3,-1,-1,-2,4
1576746144179534,-5,0,0,0,-1,-3,0,2
1576746144179534,-1,-1,1,-2,0,-1,0,-1
1576746144180473,4,1,-1,1,-1,0,3,-1
1576746144180473,-1,0,-2,0,-2,-1,-2,0
1576746144202487,0,-5,-4,-6,0,1,0,-3
1576746144202487,2,1,-1,2,1,1,-2,-1
1576746144202487,0,-1,-2,-1,1,-1,-2,-3
1576746144202487,1,-1,-1,-2,-1,-3,0,-2
1576746144216377,-1,-4,1,1,0,2,-2,1
1576746144216377,2,2,-2,0,-1,0,0,-1
1576746144217335,0,-5,-2,-1,0,2,0,-2
1576746144217335,-1,0,-2,1,0,0,0,-6
1576746144239375,-1,-3,-1,-6,-3,-2,1,-2
1576746144239375,3,-1,-2,0,-3,0,-4,2
1576746144240273,0,2,0,3,-1,0,-3,-2
1576746144240273,-1,0,1,-2,0,1,0,3
1576746144262312,2,1,0,-1,0,3,2,-1
1576746144262312,2,-3,1,-3,0,-1,-1,-3
1576746144263209,4,0,-4,0,0,-1,-2,2
1576746144263209,0,1,-2,-3,-3,-4,0,0
1576746144276174,1,0,-1,0,-2,-3,-4,-3
1576746144276174,-1,0,1,-2,-2,1,-1,0
1576746144277174,-4,-2,-1,1,1,-3,0,-1
1576746144277174,4,0,-1,0,1,1,2,-1
1576746144299215,-1,0,-2,-2,-1,-2,-2,2
1576746144299215,1,3,-2,1,-1,0,-1,-3
1576746144300110,-2,-2,-1,1,-1,-1,-2,-4
1576746144300110,-1,-2,1,4,0,-1,2,2
1576746144322152,3,1,0,1,0,0,1,3
1576746144322152,-2,-1,-2,0,-1,1,1,-3
1576746144323081,-3,-1,0,0,-3,-1,1,1
1576746144323081,0,-3,-2,-2,-4,-1,0,-3
1576746144336129,0,0,-1,-2,-1,-1,3,2
1576746144336129,-1,-2,-1,3,1,0,0,8
1576746144344029,-2,1,0,-1,0,-2,-3,-1
1576746144344029,-1,-3,-1,-1,-2,0,-1,-3
1576746144359947,-1,-1,-1,-2,-2,2,3,0
1576746144359947,5,-2,1,-1,0,-2,1,-2
1576746144359947,0,-1,-1,-1,0,-1,-2,1
1576746144359947,0,0,-2,-3,-2,1,0,0
1576746144381992,0,0,-1,-2,0,-2,-2,0
1576746144381992,-1,-1,-1,2,-1,-1,1,-2
1576746144382889,3,1,1,0,-1,-1,2,-1
1576746144382889,-1,-2,-1,1,-1,1,-1,2
1576746144395853,-1,-2,-1,0,0,-1,-1,-2
1576746144395853,0,-2,-5,-3,-1,-2,0,1
1576746144403837,1,-2,0,1,1,-1,-1,0
1576746144403837,-1,0,-3,-3,-1,-1,0,-6
1576746144419836,3,-1,-3,0,-1,-1,-3,5
1576746144419836,-5,-2,1,-3,-2,-3,-1,-1
1576746144420786,0,0,-2,2,-2,0,1,-2
1576746144420786,-1,-1,-2,-1,0,-1,1,-1
1576746144441775,0,-1,2,-1,2,1,2,-1
1576746144441775,-2,-2,0,-1,2,1,-3,-3
1576746144442727,-2,0,-1,-3,-3,2,1,-5
1576746144442727,0,-1,-2,0,0,-1,0,1
1576746144455794,1,-1,0,0,-1,-2,-3,0
1576746144455794,-2,0,0,0,0,-1,-1,-2
1576746144463703,-4,0,0,-1,-1,-1,0,-3
1576746144463703,3,-2,0,2,-2,0,-5,1
1576746144479686,-5,0,-3,-1,-2,-2,2,1
1576746144479686,-3,-3,-1,-3,0,0,0,-2
1576746144480628,1,-2,-3,2,-2,-2,-1,-1
1576746144480628,-2,0,0,-1,0,-3,1,1
1576746144502614,0,0,1,-4,0,-3,-2,2
1576746144502614,-2,0,-1,2,-1,0,-3,-1
1576746144502614,-1,0,0,0,-2,-2,-1,0
1576746144502614,-1,1,0,-1,0,0,-2,2
1576746144515634,2,-1,1,-3,1,1,-4,-2
1576746144515634,0,3,-1,-2,-2,-1,-1,-2
1576746144524508,0,1,-2,-1,0,-1,-2,1
1576746144524508,4,-1,-1,1,0,-2,0,-1
1576746144539567,4,-4,-4,-3,-1,1,-1,-1
1576746144539567,0,0,-3,-2,-2,1,-1,-1
1576746144540468,-2,-2,-1,1,-1,-3,-3,-2
1576746144540468,0,-1,0,0,-1,1,-1,-3
1576746144562528,1,-3,-2,-4,1,0,-1,0
1576746144562528,2,0,2,-1,0,-2,-3,-1
1576746144562528,-2,0,-5,2,-2,-1,-3,0
1576746144562528,-3,-3,1,-2,0,-2,0,-1
1576746144575420,-1,1,-1,-1,-2,1,0,0
1576746144575420,-1,-3,2,0,0,-2,0,1
1576746144584395,0,3,1,1,-1,1,3,4
1576746144584395,1,-1,-1,0,-5,1,-2,-2
1576746144599411,0,-1,-2,-2,0,2,4,-1
1576746144599411,1,-1,-3,-1,-3,-1,-2,-1
1576746144600307,2,1,2,-2,-1,-2,-1,-3
1576746144600307,-2,-2,-2,-1,0,1,1,1
1576746144622351,-1,-3,2,1,0,-4,1,-2
1576746144622351,-2,0,-2,-1,0,0,0,-3
1576746144623278,1,-3,-2,-3,-1,0,0,-1
1576746144623278,0,-2,0,-3,-1,-2,0,-3
1576746144645186,0,-5,0,-4,-1,1,-3,2
1576746144645186,-1,1,2,-2,1,-2,-3,0
1576746144645186,-4,-1,-2,0,-3,1,-2,-2
1576746144645186,1,-5,0,-3,-1,-5,-2,0
1576746144658253,3,-2,1,-1,-1,1,-1,-1
1576746144658253,1,-3,-1,1,0,-2,-1,1
1576746144666227,2,-1,0,-1,-2,-1,1,1
1576746144666227,1,0,-3,-2,0,-1,2,-2
1576746144682190,-1,-1,-1,-2,0,0,2,-2
1576746144682190,-1,-1,-2,3,-5,-3,0,2
1576746144683120,0,1,1,-1,3,-1,-2,-2
1576746144683120,0,0,0,3,-2,-1,-1,1
1576746144705069,3,-1,0,-1,0,-2,-2,-3
1576746144705069,0,-1,-1,-2,0,1,2,-2
1576746144705069,-1,-3,0,-1,1,-2,-2,-3
1576746144705069,-4,-3,0,-1,1,0,0,-1
1576746144719092,0,-1,-1,-1,-3,1,0,-2
1576746144719092,-2,0,-1,0,1,1,-1,-1
1576746144720030,2,-1,-1,1,-3,-1,-2,-1
1576746144720030,1,2,-3,0,1,0,-2,0
1576746144742016,1,-1,-1,-2,0,-2,0,0
1576746144742016,-3,-2,-1,0,-3,-4,4,-1
1576746144742930,2,0,0,2,-1,2,1,1
1576746144742930,1,0,0,3,0,2,-1,1
1576746144764986,-2,-1,-1,-4,1,-2,-3,0
1576746144764986,1,-1,0,-2,0,0,0,0
1576746144764986,-1,0,0,-1,-3,0,-2,0
1576746144764986,0,-1,-3,-2,-3,0,0,0
1576746144778933,-2,-2,2,3,3,4,-1,-3
1576746144778933,1,-1,0,1,-4,-3,0,-1
1576746144779831,1,-2,-3,-2,1,-1,-3,-2
1576746144779831,0,0,-2,1,-1,0,-2,-4
1576746144801870,3,-4,-1,-3,2,-2,1,-1
1576746144801870,-4,1,-3,1,-1,2,-3,-4
1576746144802767,-1,0,-1,1,0,-2,3,-2
1576746144802767,0,0,-2,-1,-2,-3,0,-3
1576746144824805,1,0,-1,1,-2,2,0,1
1576746144824805,-1,-1,-2,-2,1,-1,0,0
1576746144825704,2,0,0,-2,-2,0,-4,-3
1576746144825704,0,-1,0,-3,0,-1,1,0
1576746144838768,-5,0,-1,0,0,-1,-4,1
1576746144838768,0,-1,1,0,0,-3,0,0
1576746144839668,-2,0,-3,4,-2,-1,-1,-4
1576746144839668,0,-2,-2,-1,1,-2,-1,4
1576746144862604,-3,1,-1,2,-1,-2,-3,-2
1576746144862604,0,-1,-3,0,0,1,-3,-2
1576746144862604,-4,2,-1,-1,0,0,1,-1
1576746144862604,0,-4,2,-3,-1,-3,-3,-3
1576746144884644,-2,-1,-3,-2,-1,1,1,-3
1576746144884644,-1,1,0,0,-4,-1,-3,0
1576746144885549,-4,-4,-4,-1,-2,-2,-1,-1
1576746144885549,-1,-5,0,-3,-1,-2,-4,-3
1576746144899505,-2,4,1,1,-2,-3,-3,2
1576746144899505,1,-3,-2,0,-1,-2,-2,0
1576746144899505,0,-1,-3,0,-3,0,1,1
1576746144899505,-1,1,-1,-2,-2,1,0,0
1576746144922518,1,-2,0,-1,-1,-1,-1,-1
1576746144922518,-4,0,-2,-1,-2,0,2,-4
1576746144922518,0,0,0,2,0,-1,-1,-1
1576746144922518,-1,4,-1,-2,1,-1,1,0
1576746144944488,-3,1,0,-2,-3,-5,0,1
1576746144944488,-2,-1,-1,0,-1,0,0,-3
1576746144945386,-1,-1,0,-1,0,1,-2,0
1576746144945386,-1,0,-2,1,2,1,0,-1
1576746144959346,-5,2,1,-2,0,0,-1,-5
1576746144959346,2,-2,0,0,-1,-1,0,1
1576746144959346,-3,0,-1,1,-1,-2,-1,0
1576746144959346,2,1,-2,-2,-3,0,-1,4
1576746144982387,-4,-3,-3,-1,-1,-3,0,5
1576746144982387,-1,1,0,0,-2,1,-2,-1
1576746144983313,1,-2,-2,-1,-2,-1,-3,-5
1576746144983313,-2,-2,0,-2,0,-1,0,0
1576746145004328,3,-1,-1,-1,0,-2,2,1
1576746145004328,-2,-1,-3,1,-2,-2,-3,-5
1576746145005223,-1,-2,0,-1,-3,-2,2,0
1576746145005223,0,-2,0,1,0,0,-1,3
1576746145019229,-4,-5,-3,-2,-1,-1,2,-1
1576746145019229,0,1,-1,-1,1,-1,-4,-1
1576746145019229,0,0,-1,2,-1,0,-3,1
1576746145019229,1,-6,-4,0,-1,-2,-3,-2
1576746145042124,3,0,2,-4,-2,1,-3,-2
1576746145042124,0,1,-1,-1,1,-1,-1,0
1576746145043128,-1,2,0,0,0,1,1,-3
1576746145043128,0,2,0,0,-2,3,1,1
1576746145064168,-1,-2,0,0,0,0,-2,-1
1576746145064168,-2,-3,-1,-1,-2,-3,1,-4
1576746145065062,-1,-2,-3,0,0,-3,0,-2
1576746145065062,4,0,0,2,-1,0,0,1
1576746145079131,-1,1,1,-2,0,-4,3,-4
1576746145079131,-4,0,0,0,-1,-2,-1,-1
1576746145080025,1,-1,0,-1,-3,3,-1,-1
1576746145080025,2,-3,0,0,-1,-3,0,-1
1576746145101968,-1,-1,-1,-1,-2,-3,1,-1
1576746145101968,0,-3,2,2,0,1,2,4
1576746145102965,-1,-3,-3,-1,1,-2,0,3
1576746145102965,1,-2,-1,-4,0,-5,-1,0
1576746145125016,0,0,-1,-4,-2,-1,3,0
1576746145125016,-3,2,-3,1,1,0,-3,2
1576746145125016,2,-3,0,1,-3,-2,-1,-2
1576746145125016,-4,1,-1,-2,2,-2,1,-2
1576746145138936,-3,-2,-1,2,0,2,-2,1
1576746145138936,-1,1,-1,-1,0,-1,3,-2
1576746145139907,-4,2,-1,-2,-2,-2,-1,-3
1576746145139907,0,-2,1,-2,-1,0,-2,-2
1576746145161847,-1,0,1,-3,0,-1,-3,-2
1576746145161847,-1,0,0,0,0,-2,1,0
1576746145162803,-3,-2,2,0,2,-3,-1,1
1576746145162803,-2,-2,-2,-1,0,-1,-1,-1
1576746145184846,-1,2,-5,4,1,0,2,1
1576746145184846,2,0,-1,0,-3,1,-2,2
1576746145185769,1,-2,0,1,-1,-2,2,0
1576746145185769,0,-1,-1,-1,-3,-2,-2,1
1576746145198705,-1,-1,-1,-2,-1,2,-1,2
1576746145198705,-1,0,-1,2,-2,0,1,-3
1576746145207681,0,0,1,1,-1,0,-4,-4
1576746145207681,-3,0,-3,-1,1,-1,-2,-4
1576746145221689,0,-1,1,-2,-1,-1,0,0
1576746145221689,0,0,-2,1,-1,-2,-2,2
1576746145222643,-2,-2,-3,-1,-1,1,-3,-1
1576746145222643,1,-2,-1,-2,0,-1,1,-4
1576746145244686,-1,-1,2,0,0,-1,-2,-3
1576746145244686,-1,0,-1,-2,0,-1,1,-3
1576746145246581,1,-1,-2,-2,-1,0,-1,-1
1576746145246581,0,-1,-1,-3,-1,0,1,-1
1576746145258591,0,2,0,0,0,-4,1,-1
1576746145258591,-3,-2,-2,-3,0,0,-3,-4
1576746145267581,-3,4,0,1,-1,0,-1,-2
1576746145267581,0,0,-3,0,0,0,-1,0
1576746145282549,1,-2,1,-1,0,2,-2,-3
1576746145282549,0,-1,0,1,-2,-1,-2,-2
1576746145283481,2,-5,-2,-2,-2,-1,1,-4
1576746145283481,-2,0,0,0,-1,-1,0,3
1576746145304525,-5,-1,-3,0,-2,-2,-4,1
1576746145304525,1,-1,-1,1,0,-3,0,0
1576746145306467,-1,2,1,-1,-1,-3,-2,-3
1576746145306467,-3,-2,0,0,-2,-3,0,2
1576746145318408,1,1,-1,2,-2,0,-1,2
1576746145318408,-2,0,-2,-2,0,1,-1,1
1576746145327365,-4,-1,0,-1,1,3,-3,-1
1576746145327365,0,0,-1,-3,0,-3,0,-2
1576746145342321,-3,-2,0,-2,0,0,-3,2
1576746145342321,2,2,-1,1,0,-2,1,-2
1576746145343321,1,0,-2,1,0,-3,4,-1
1576746145343321,-1,0,1,-1,0,1,-2,0
1576746145364367,2,-5,-3,-1,2,1,2,-1
1576746145364367,1,0,-2,0,-2,0,-3,-3
1576746145366262,-1,-3,-1,0,-3,-1,-2,2
1576746145366262,3,1,0,-1,-1,-1,2,0
1576746145378330,0,0,-3,1,-2,-4,2,1
1576746145378330,0,-2,1,-3,-2,0,0,-5
1576746145387204,-1,0,0,0,0,0,-2,0
1576746145387204,4,-1,-4,0,-2,1,-2,3
1576746145402214,1,-1,1,-6,1,-3,-3,-4
1576746145402214,0,-4,1,3,-1,-4,-2,-1
1576746145403188,1,-2,-3,-1,-2,-2,0,0
1576746145403188,-4,1,-1,0,-1,0,1,3
1576746145425146,0,-2,-1,1,2,-1,1,4
1576746145425146,-4,0,-4,-1,0,0,-2,-1
1576746145426104,0,-1,0,1,-1,-3,-2,1
1576746145426104,-1,-2,-1,-3,-2,-1,-1,-2
1576746145438170,-4,-2,0,-4,0,1,1,-3
1576746145438170,-3,0,-1,-3,-5,-2,-1,-3
1576746145447041,-4,0,-2,-1,-1,-1,-4,1
1576746145447041,2,-2,1,0,0,0,0,-2
1576746145462105,3,2,-3,-2,0,-2,-2,-1
1576746145462105,2,-1,-1,-1,-1,-1,-1,-1
1576746145463999,1,-2,0,-1,-2,2,0,-1
1576746145463999,-2,2,-3,-2,0,-2,-3,1
1576746145485042,1,1,-1,2,2,1,-1,0
1576746145485042,2,0,1,1,0,2,2,1
1576746145485938,0,-2,-2,-2,0,-1,0,-2
1576746145485938,3,-4,1,-2,-1,1,1,-2
1576746145498009,0,-4,1,-2,-2,-4,-1,-1
1576746145498009,2,-5,-1,-3,0,2,-3,-5
1576746145506928,0,-3,-2,1,0,1,0,-1
1576746145506928,1,-7,-1,-3,-2,3,-3,1
1576746145521946,-3,1,-1,-2,-3,-2,-1,-1
1576746145521946,1,-2,-1,-3,-2,-3,0,2
1576746145523838,3,1,2,-2,-1,-3,-3,-5
1576746145523838,1,-1,-2,-2,1,-2,1,-6
1576746145544879,0,-3,-2,-2,-2,0,-3,-2
1576746145544879,-1,-3,1,0,0,-1,1,2
1576746145545816,1,-1,-2,-1,1,2,0,4
1576746145545816,-2,-1,1,-3,-1,-4,0,0
1576746145557789,2,2,-2,-4,-4,-1,-1,-2
1576746145557789,1,-2,-1,2,1,0,0,0
1576746145566768,-2,-2,1,1,0,-3,-1,2
1576746145566768,1,-1,0,0,-1,-3,0,1
1576746145581703,-1,1,-1,0,0,-1,-3,0
1576746145581703,-3,1,2,-2,-3,-1,-2,-1
1576746145588679,-1,-1,-3,3,-1,3,3,0
1576746145588679,-2,-2,-1,1,-2,1,0,4
1576746145604667,1,-3,-1,-1,0,-1,-1,-3
1576746145604667,2,2,-2,0,-1,-1,-2,2
1576746145606613,-5,-3,0,0,-1,-2,1,-2
1576746145606613,1,-1,1,-3,0,-1,-4,-2
1576746145627572,-2,-4,1,0,2,0,0,1
1576746145627572,-1,1,-1,1,-1,1,-1,0
1576746145628557,3,1,-2,-1,-1,-2,0,1
1576746145628557,2,1,1,0,0,-1,-2,1
1576746145640577,0,-2,0,-1,0,1,-2,-5
1576746145640577,-3,-1,-3,0,-2,-2,-2,3
1576746145649506,-1,-1,-1,-2,1,-5,0,-4
1576746145649506,1,-5,-1,1,0,1,-3,3
1576746145664564,-3,-1,-2,-1,-2,0,-1,0
1576746145664564,-2,-1,-1,-2,0,-3,-1,-2
1576746145666456,3,-2,-1,-3,-2,-2,-5,-4
1576746145666456,-3,-1,0,1,-1,0,-3,-3
1576746145687520,-2,-2,1,-2,0,-1,-2,-1
1576746145687520,-1,1,-1,0,2,1,-2,-2
1576746145688396,-4,0,-2,-1,0,-4,-2,-1
1576746145688396,-1,-2,0,-2,-1,-3,0,-1
1576746145700467,-1,-1,-2,0,-1,-2,1,-4
1576746145700467,-2,0,-3,1,-2,0,-1,-1
1576746145709343,0,0,1,-1,0,4,-1,-4
1576746145709343,-6,0,-1,-1,-1,0,-1,-4
1576746145724404,3,-3,-1,-1,-2,-1,-2,0
1576746145724404,-1,-4,-1,1,0,0,-1,-5
1576746145726297,1,-1,0,-1,-2,0,-2,-2
1576746145726297,0,-2,-2,-2,0,1,0,-1
1576746145747343,0,0,2,0,-3,-2,2,1
1576746145747343,-3,-1,2,1,0,0,0,1
1576746145748301,-2,2,-3,2,-2,1,2,2
1576746145748301,2,1,-2,-1,0,-1,0,0
1576746145761214,1,0,-1,-2,-2,-1,-4,-2
1576746145761214,2,-4,0,1,-4,-3,-2,-1
1576746145769232,0,3,0,2,0,-1,1,-1
1576746145769232,0,0,-2,0,-1,1,-1,2
1576746145784191,-3,4,-1,0,1,-3,1,-3
1576746145784191,-4,1,-2,3,-1,0,-2,0
1576746145786136,-4,1,-2,-1,0,-2,-4,2
1576746145786136,0,-1,1,-2,-1,-2,-2,-2
1576746145807132,-2,1,-1,-3,2,1,0,-1
1576746145807132,-5,1,-2,-2,-1,-3,2,-4
1576746145809075,1,-2,-1,2,-1,-2,1,6
1576746145809075,-1,1,-2,-3,1,-2,2,-1
1576746145821095,0,-2,1,0,-3,-1,0,-1
1576746145821095,-1,0,2,-5,-2,2,-2,-1
1576746145830020,-3,-2,-2,3,-2,-1,-3,-2
1576746145830020,-1,0,-1,-2,-1,-1,2,-3
1576746145845128,-4,0,-3,1,-1,-1,-3,2
1576746145845128,1,2,-2,1,0,-2,-1,-4
1576746145846088,-1,0,0,-2,-3,-1,-3,-3
1576746145846088,-1,-4,-1,-1,1,0,0,2
1576746145867130,-3,-1,-1,0,0,0,1,-4
1576746145867130,0,-1,0,0,-2,-2,-1,1
1576746145869025,2,1,-4,-1,-2,-1,0,-4
1576746145869025,0,-1,1,0,-1,-1,0,0
1576746145881101,0,0,-2,-4,-2,0,2,1
1576746145881101,-2,1,0,1,0,-1,0,1
1576746145889967,-2,-3,0,-1,2,-1,-3,-4
1576746145889967,-1,-3,-1,-1,-2,0,0,0
1576746145905047,-1,2,-1,2,-1,0,-1,4
1576746145905047,0,-4,-2,-1,-3,-1,3,-7
1576746145905926,-1,-2,1,2,0,-4,-3,-3
1576746145905926,0,-6,-3,-1,1,-1,1,1
1576746145926959,-3,0,0,-2,1,0,-4,-5
1576746145926959,-3,1,-1,1,0,-2,-1,1
1576746145928863,2,-1,-1,-1,-2,4,2,-3
1576746145928863,-4,0,-2,0,1,1,-1,0
1576746145940935,3,-2,0,-1,-1,0,1,1
1576746145940935,-1,-1,0,-2,0,-1,-1,0
1576746145949812,0,2,-2,2,-1,-2,-2,2
1576746145949812,0,0,-2,-2,1,-1,0,3
1576746145964871,1,-3,-4,-1,-1,-2,-1,-2
1576746145964871,-1,1,1,2,-1,1,-3,2
1576746145965766,-1,-1,0,-2,-1,2,2,1
1576746145965766,-3,-2,-2,1,-2,2,-1,-4
1576746145986809,0,1,1,-1,0,-1,-3,-3
1576746145986809,1,-4,-2,1,0,-1,0,0
1576746145988702,-2,0,1,0,-2,1,1,0
1576746145988702,0,0,0,-3,-2,-2,-2,-1
1576746146000771,2,-4,0,-1,1,3,-1,1
1576746146000771,-1,1,-2,3,-3,0,-2,-4
1576746146009653,0,-1,0,-1,-2,-2,1,-2
1576746146009653,-1,0,-2,-1,0,0,1,-2
1576746146024705,-3,3,-1,1,-1,1,-4,1
1576746146024705,1,1,0,-2,1,-1,0,-3
1576746146026607,-1,-2,-2,-1,-1,-1,-2,-1
1576746146026607,-1,1,0,-1,1,0,-2,-3
1576746146046822,-2,0,-1,2,-1,-1,0,0
1576746146046822,0,-1,-2,-1,-1,-1,-2,-4
1576746146048722,-2,-1,-1,-1,0,-2,-1,-4
1576746146048722,1,-1,1,-1,-2,2,2,1
1576746146060786,-3,-3,0,-2,-2,-3,0,-4
1576746146060786,-1,-1,-2,-2,1,-1,-1,1
1576746146069664,-1,-3,-1,0,0,-3,-1,0
1576746146069664,-3,-1,-1,0,1,-1,0,1
1576746146084728,0,-2,1,-1,-1,-2,-1,1
1576746146084728,-1,0,-3,2,-2,-1,-1,2
1576746146086618,1,0,-1,0,0,-1,-3,2
1576746146086618,1,-3,0,3,0,-1,0,6
1576746146107607,0,2,2,-3,0,-1,0,-1
1576746146107607,-4,-1,1,1,-1,3,1,-2
1576746146108559,2,1,-2,-1,-1,0,1,-1
1576746146108559,-3,-1,1,-2,-3,-4,-1,0
1576746146120622,0,2,-1,-2,-1,-1,2,-1
1576746146120622,0,0,0,-2,-3,-2,0,-3
1576746146129502,1,0,-1,3,-1,3,-1,2
1576746146129502,3,-1,1,-5,-1,-2,-1,-3
1576746146144564,-3,0,-2,1,1,-3,-1,0
1576746146144564,1,1,0,-2,0,0,-2,-3
1576746146146460,-1,-3,-1,-3,-1,0,-2,-1
1576746146146460,0,-3,-2,0,-1,-4,-1,-1
1576746146167520,-3,-3,-1,-1,2,-1,-2,-3
1576746146167520,1,-5,0,0,0,-1,0,-2
1576746146168398,-2,-5,-1,-2,0,0,-1,0
1576746146168398,0,-1,0,-3,1,0,-1,2
1576746146180434,-1,-1,-2,-1,1,0,3,-3
1576746146180434,0,0,-1,-1,2,0,1,1
1576746146189418,-1,-2,-1,0,0,-2,-2,-2
1576746146189418,5,-1,-1,-1,0,-3,-2,1
1576746146204408,0,-2,-1,-2,-5,1,-2,1
1576746146204408,-3,1,-3,3,0,-1,0,2
1576746146206297,2,-1,2,-2,-1,-4,-3,-1
1576746146206297,0,0,0,-2,-1,-1,-2,-3
1576746146227343,1,-2,-1,1,-1,-1,-4,0
1576746146227343,1,0,-1,-1,-1,-1,0,-3
1576746146228295,1,-1,-1,-1,1,1,-1,-3
1576746146228295,-2,1,-2,0,-1,1,1,0
1576746146241252,-4,-1,-1,-1,-2,-1,2,-2
1576746146241252,-4,0,0,1,-3,0,0,0
1576746146250213,-1,0,-3,0,-2,-1,2,-1
1576746146250213,0,0,0,-1,0,0,-1,-2
1576746146265146,3,-3,1,3,0,-3,-3,0
1576746146265146,0,-4,-1,0,-1,-1,0,-3
1576746146266139,0,-1,0,0,0,-2,1,0
1576746146266139,4,-1,-2,-2,-2,0,-1,-1
1576746146287183,2,0,0,-1,-2,0,1,1
1576746146287183,-2,-2,0,0,1,1,-2,1
1576746146289078,-3,-1,1,-2,-1,2,-1,-1
1576746146289078,-5,0,-2,0,-1,-3,3,0
1576746146301165,-2,-3,-3,0,1,-3,-3,-1
1576746146301165,1,-1,0,0,1,-1,0,-1
1576746146310022,4,-1,-1,0,-1,-1,1,-1
1576746146310022,3,-2,0,-1,-1,0,0,2
1576746146324089,0,-1,-1,0,1,3,-2,0
1576746146324089,0,0,-2,-1,-3,-2,-2,1
1576746146331065,2,-1,0,1,1,-6,-1,-1
1576746146331065,2,0,1,-2,1,-1,-1,-2
1576746146347023,1,-3,1,-2,1,-1,-2,-3
1576746146347023,-1,2,-3,1,-2,1,-3,2
1576746146348959,-4,-1,0,-1,1,1,2,-3
1576746146348959,2,-1,0,1,1,0,1,-1
1576746146360916,-1,-1,-3,0,-3,1,1,-1
1576746146360916,0,-2,0,-4,-2,-4,-1,-1
1576746146369905,-2,0,0,0,0,-2,-3,0
1576746146369905,-1,-4,-3,-3,-2,-2,-2,-4
1576746146384924,0,-1,1,-1,0,-1,0,-3
1576746146384924,-1,0,-2,-1,0,-1,-1,-7
1576746146385851,0,-3,-1,3,1,-3,1,2
1576746146385851,-4,0,0,-2,0,1,-3,-1
1576746146406862,-5,0,-1,3,-1,-4,2,1
1576746146406862,-2,1,-2,1,-3,-2,-3,-2
1576746146408756,0,-2,0,-3,-3,3,0,-3
1576746146408756,1,-1,-1,-3,0,-1,-1,0
1576746146420823,-2,1,-3,-2,-2,-1,1,0
1576746146420823,-2,-1,1,-1,-3,-3,-2,-2
1576746146429701,-1,-1,-4,-2,0,-1,3,0
1576746146429701,-3,-3,-1,-3,-2,-3,-4,0
1576746146444760,-1,-1,1,-2,-1,0,-2,0
1576746146444760,1,0,0,3,3,-1,2,1
1576746146446658,-1,-1,-3,-1,-3,-2,-3,1
1576746146446658,-4,-1,-3,-5,-2,0,0,-1
1576746146467620,-5,2,0,-4,-1,-2,-3,-3
1576746146467620,-1,0,1,3,-1,0,-2,1
1576746146468598,0,0,-2,-1,-2,-3,-1,-2
1576746146468598,0,-3,0,1,0,0,2,2
1576746146480663,-2,2,-2,-2,-3,0,-1,-3
1576746146480663,0,-4,0,-1,-2,1,-1,2
1576746146489540,-1,0,-1,-2,-2,-1,0,1
1576746146489540,-2,-4,-1,-3,1,-2,1,-3
1576746146504604,0,1,-3,1,-2,-2,-3,1
1576746146504604,1,0,2,-1,-1,-3,2,-3
1576746146512480,-1,-1,-1,-1,1,1,-2,-3
1576746146512480,-1,-2,1,-1,-1,-1,-1,1
1576746146527503,-2,-4,0,-1,1,-3,-1,-1
1576746146527503,2,1,-4,-4,-1,-2,1,-3
1576746146528436,0,0,2,-1,0,-1,-4,-2
1576746146528436,1,-2,-2,-2,-2,-1,-2,3
1576746146549433,0,-2,0,1,1,0,1,-1
1576746146549433,1,0,-2,0,1,2,-4,-2
1576746146551405,2,-1,-2,-2,0,0,0,-5
1576746146551405,-1,0,-2,-5,-1,0,-2,0
1576746146564340,0,-3,-1,1,-2,0,0,3
1576746146564340,-1,-3,0,-2,-1,-3,-1,0
1576746146566335,-1,0,0,1,-3,0,3,3
1576746146566335,1,-3,-1,-1,0,-2,0,0
1576746146587334,1,-2,-1,-2,-1,0,0,-2
1576746146587334,2,-1,-3,3,0,-2,-4,0
1576746146588309,-3,-3,1,-3,1,-2,-1,1
1576746146588309,3,3,-1,1,-2,2,2,4
1576746146609220,-4,0,0,0,2,1,0,-3
1576746146609220,-1,-2,-2,-1,-3,1,-3,0
1576746146611217,3,0,-1,1,-3,-1,1,-1
1576746146611217,1,2,0,0,1,-3,-2,-2
1576746146624227,3,0,-1,-1,0,-1,1,0
1576746146624227,-5,-1,1,0,-1,3,0,-2
1576746146626177,-1,0,-2,1,2,-1,-1,-1
1576746146626177,-1,3,0,-1,2,0,0,-3
1576746146647169,0,1,1,1,-3,-3,-2,1
1576746146647169,-2,1,-3,1,-1,-2,-1,-3
1576746146649114,1,0,0,1,0,-1,-1,0
1576746146649114,-1,-2,-2,-2,-1,1,-4,-3
1576746146670059,-2,-3,-1,-3,0,-1,-2,1
1576746146670059,-2,-1,2,1,-1,-1,2,0
1576746146671055,-1,-2,-3,-1,0,0,-1,1
1576746146671055,-2,-4,0,-2,0,-1,0,0
1576746146684120,4,3,-2,1,-2,0,1,2
1576746146684120,-3,0,-2,-1,0,-2,-4,2
1576746146691107,-1,-4,-2,-2,-2,-2,3,-3
1576746146691107,-1,2,-1,-1,-2,0,-1,1
1576746146708029,-2,-1,-3,-1,0,0,-4,-3
1576746146708029,-4,0,-1,1,-1,-1,-1,0
1576746146708958,0,-3,1,0,-1,-1,-5,-3
1576746146708958,4,-1,-1,-2,-4,-4,3,-1
1576746146730016,-5,1,0,1,0,1,1,-1
1576746146730016,-1,-1,0,-3,0,-3,-3,-3
1576746146730894,-4,0,-2,1,-2,2,1,-1
1576746146730894,-1,-2,3,-3,0,-1,-2,0
1576746146743964,0,-1,-2,-3,-2,-1,-2,-6
1576746146743964,1,-2,0,0,-1,-1,0,-4
1576746146750942,0,0,-1,3,2,-2,-4,1
1576746146750942,-2,1,-3,-3,-3,2,1,1
1576746146766900,-1,1,1,-2,-1,-2,-2,-5
1576746146766900,-3,-1,-2,1,-2,-2,-3,-4
1576746146768794,-1,1,0,-2,1,-2,0,-2
1576746146768794,-2,0,-1,0,-2,1,0,1
1576746146789838,-3,-1,0,0,0,1,0,-3
1576746146789838,1,3,-2,-1,-1,1,-2,1
1576746146790780,2,0,-2,-3,-1,-2,-1,-1
1576746146790780,0,1,2,-1,2,1,-2,-6
1576746146803800,-1,-1,-5,-1,-2,-3,0,0
1576746146803800,-1,-1,-1,-1,-1,-1,1,1
1576746146810719,-2,-1,-2,2,-2,2,2,-2
1576746146810719,-1,-3,1,-3,1,0,-2,0
1576746146827636,-5,-1,0,3,0,-5,-4,-1
1576746146827636,-1,1,-2,2,-1,1,-1,-2
1576746146828641,-1,1,-1,-2,-2,1,0,-2
1576746146828641,0,0,0,-2,-3,-1,1,4
1576746146849677,-1,0,-1,0,0,1,-1,-3
1576746146849677,-1,-2,-2,-1,1,-5,1,-2
1576746146851625,0,-1,0,-1,-2,-1,-1,2
1576746146851625,-3,2,-2,0,-1,-1,-3,3
1576746146864539,-4,-1,1,-1,-3,-1,-2,-2
1576746146864539,-1,2,0,0,-2,1,-1,-2
1576746146870620,0,-4,0,-1,-1,-2,-1,0
1576746146870620,-2,-2,-2,0,0,-1,-2,1
1576746146887543,-2,-1,-1,-4,-3,0,-2,-3
1576746146887543,0,-1,-3,1,1,-1,0,-1
1576746146888475,0,0,-1,1,0,-2,0,2
1576746146888475,4,-3,-2,-5,-1,-2,-2,-6
1576746146909420,2,0,0,3,-1,-1,-1,5
1576746146909420,1,-2,1,1,-3,1,-3,0
1576746146911417,2,-3,-2,-3,-2,0,0,1
1576746146911417,-1,-2,-1,-1,0,-1,-3,-2
1576746146924377,-1,-1,-3,-2,-3,1,-1,0
1576746146924377,-2,-1,0,0,0,-5,1,0
1576746146931360,5,2,-1,-3,-2,-1,-8,0
1576746146931360,1,-2,-1,0,-1,-2,0,-1
1576746146947417,-2,0,-1,2,0,-1,-1,-3
1576746146947417,2,0,-2,0,-2,1,2,-1
1576746146948323,-1,-2,-2,-1,-2,-3,2,1
1576746146948323,-1,0,0,-4,-1,-2,3,-3
1576746146969357,-1,-2,-3,-1,-1,1,-4,-3
1576746146969357,0,-4,-1,-1,-1,-2,0,-2
1576746146971261,-1,0,0,1,-1,0,0,-1
1576746146971261,2,-2,1,-2,-1,-2,-4,2
1576746146984330,-4,2,-3,1,-1,1,1,2
1576746146984330,-1,2,-2,-4,0,0,-1,-2
1576746146991239,0,-3,0,-2,-1,1,0,-2
1576746146991239,-3,1,-1,0,1,-2,0,-2
1576746147006261,4,0,-2,-1,-4,-1,2,-3
1576746147006261,-2,1,0,2,-4,-1,-1,-1
1576746147015144,1,-2,0,1,0,-2,3,3
1576746147015144,3,-3,0,-3,-3,0,-2,-3
1576746147030134,-2,3,3,1,0,-2,1,-3
1576746147030134,0,-1,-3,2,0,-1,0,6
1576746147031103,-2,-1,-1,-2,-1,-1,3,-1
1576746147031103,-3,2,-2,0,1,-2,-2,0
1576746147043123,1,-4,-1,-3,-2,0,-1,1
1576746147043123,3,0,2,0,-1,1,0,1
1576746147052037,-1,-1,-2,2,0,1,-2,0
1576746147052037,3,-3,-2,-1,0,-2,1,2
1576746147067096,-3,2,0,-2,-1,-1,0,0
1576746147067096,-4,0,-1,3,-2,-1,-3,3
1576746147068996,-3,1,1,-2,-2,3,0,-2
1576746147068996,-1,0,1,-2,-3,-1,0,1
1576746147090049,-1,-2,0,-3,1,-1,-6,-5
1576746147090049,2,-4,-2,0,0,1,-3,-1
1576746147090934,1,-1,-2,-3,0,-2,-1,-2
1576746147090934,-1,-2,0,-1,0,-1,-1,-2
1576746147103003,2,1,0,0,0,-2,3,-6
1576746147103003,0,0,1,1,-2,2,-2,1
1576746147112881,3,-2,0,0,0,0,-2,-1
1576746147112881,0,1,-1,-2,0,0,-1,3
1576746147126872,-1,-1,0,0,-4,0,-3,-1
1576746147126872,-4,2,-1,2,0,-2,3,-4
1576746147128841,-2,-1,-2,0,-1,-2,1,1
1576746147128841,-4,-1,-1,-6,-1,3,-1,-3
1576746147149870,-2,-2,-3,2,-1,-3,-1,3
1576746147149870,0,-3,1,-3,0,2,0,-7
1576746147150818,-2,0,1,-2,-2,0,-2,-2
1576746147150818,-1,0,-1,0,1,0,-2,-1
1576746147163737,-1,-1,0,-1,-2,-1,-2,-4
1576746147163737,-1,-5,-4,-5,-1,-3,-2,-9
1576746147172713,0,-1,-1,0,-2,-1,0,3
1576746147172713,-2,-3,0,0,0,-1,-2,-1
1576746147187673,0,-2,1,2,-1,3,-1,-5
1576746147187673,1,1,-2,2,-1,-1,-2,1
1576746147188678,-1,0,-2,-2,0,2,-1,0
1576746147188678,-3,2,-2,0,-4,-1,1,6
1576746147209615,0,-1,1,0,1,-2,-1,5
1576746147209615,-3,1,0,2,0,-1,0,1
1576746147211621,0,-1,-1,-3,-1,-2,-2,-2
1576746147211621,-1,-1,0,-1,-2,0,1,-1
1576746147223638,0,1,0,0,1,-3,-4,-2
1576746147223638,1,0,-1,1,-3,-1,0,-1
1576746147232561,0,1,0,-2,0,-5,-1,-1
1576746147232561,-2,-3,-1,-2,0,-3,1,-7
1576746147247524,-2,-1,-2,1,-2,2,-1,1
1576746147247524,1,1,0,-3,0,0,-2,-3
1576746147248518,4,0,-1,3,0,0,0,-1
1576746147248518,2,-2,-2,1,0,-1,0,-1
1576746147269459,0,-2,-2,1,0,-4,5,2
1576746147269459,0,2,-2,2,0,-3,-1,2
1576746147271457,0,-3,-1,0,-1,0,2,2
1576746147271457,1,-2,0,-3,1,2,-5,-1
1576746147283423,-4,2,0,0,-1,-1,-1,-2
1576746147283423,-4,-2,0,-3,-1,-1,0,4
1576746147292391,0,-4,0,-2,-2,-2,-1,-2
1576746147292391,1,1,-1,0,-2,-3,0,5
1576746147307354,-5,-2,0,-3,-1,1,-4,-3
1576746147307354,1,-1,0,1,-1,-1,1,-3
1576746147308350,-2,1,0,-2,-1,0,0,1
1576746147308350,1,-3,-1,-1,-1,-1,-2,-1
1576746147329350,-2,2,0,-2,-1,-1,1,-2
1576746147329350,-2,-3,-2,1,-1,2,0,-2
1576746147331295,-1,-3,0,-3,1,-4,-2,-1
1576746147331295,5,-2,-1,-5,-3,-3,-4,-4
1576746147343309,0,-1,-1,-3,0,-3,-3,-3
1576746147343309,-1,-1,-1,3,-3,4,-2,-1
1576746147352252,2,0,2,-2,0,-1,0,-2
1576746147352252,-2,-1,-1,-3,-1,0,-1,0
1576746147367263,0,-3,-2,2,0,2,0,2
1576746147367263,-1,-2,-2,0,-2,-4,-1,0
1576746147369193,-3,-2,-1,-2,1,0,-1,1
1576746147369193,-1,-2,0,0,-2,1,-2,0
1576746147390139,2,-1,-1,1,-1,0,-1,-2
1576746147390139,-4,-1,-2,0,-1,-1,1,0
1576746147391139,3,-4,-2,-3,-1,0,-2,1
1576746147391139,-2,0,-2,1,1,-2,1,1
1576746147403199,0,0,-1,-2,-2,-2,0,-5
1576746147403199,3,1,-2,-1,-3,-3,-2,-5
1576746147412073,-5,0,-1,-3,-2,0,-1,0
1576746147412073,0,-2,0,0,0,-1,-1,0
1576746147427036,1,-3,-1,-1,-1,-1,-1,0
1576746147427036,2,1,0,-1,-3,-1,-2,0
1576746147429036,1,0,-1,1,-1,0,-1,3
1576746147429036,0,0,0,0,0,2,1,1
1576746147450039,2,1,0,0,1,0,-1,2
1576746147450039,0,-1,1,-4,1,-2,-2,-1
1576746147450970,-1,0,-1,0,-1,2,-2,-2
1576746147450970,-2,2,-2,-1,-2,-1,1,-3
1576746147463037,-3,0,0,-3,-2,-1,-4,-1
1576746147463037,-3,2,-1,0,-2,0,2,1
1576746147471933,0,1,-1,1,-1,-1,-5,5
1576746147471933,-4,-3,-2,-2,-2,-1,3,-2
1576746147486973,-5,2,1,1,0,-3,-1,-5
1576746147486973,1,2,-1,-3,-2,1,0,-4
1576746147488905,1,-3,-2,-1,0,0,4,0
1576746147488905,-1,2,-1,-4,-1,-1,-1,-1
1576746147509848,-5,-1,-3,2,0,-1,-2,4
1576746147509848,-3,-2,-1,2,-1,-1,-4,0
1576746147510818,-1,0,1,0,-2,-1,-1,-3
1576746147510818,2,-1,-1,-2,1,-1,-2,-4
1576746147531853,0,0,-1,0,-4,3,1,-2
1576746147531853,-2,1,0,3,1,0,-4,0
1576746147533755,-5,-3,-4,-1,-1,-1,-1,-1
1576746147533755,-1,-2,0,0,-1,-2,0,0
1576746147546809,0,-3,1,-2,-1,-2,0,-3
1576746147546809,-4,0,1,2,-1,2,0,-1
1576746147553735,-3,2,1,3,-3,0,-1,5
1576746147553735,-3,2,0,0,0,1,-2,1
1576746147569656,-1,-2,-1,1,-2,0,-2,0
1576746147569656,-1,0,-2,0,-1,-3,-1,-2
1576746147571683,1,-1,0,-3,0,-1,1,-3
1576746147571683,-5,-2,0,-3,0,0,-1,0
1576746147591594,-1,0,-5,0,3,-1,-3,-2
1576746147591594,-1,-3,-1,-1,-1,0,-3,1
1576746147593595,0,1,-2,-2,-3,1,-1,-5
1576746147593595,-2,-2,1,-2,0,-1,-3,1
1576746147606648,3,0,0,-2,1,-1,2,-3
1576746147606648,1,-2,0,-1,0,-1,-3,-4
1576746147613645,1,0,3,-1,3,-1,1,-3
1576746147613645,0,-1,-3,1,-4,-1,2,-2
1576746147629596,-4,-1,-1,2,-2,-1,-3,1
1576746147629596,2,-3,-1,-3,1,0,-2,-3
1576746147631492,3,-2,0,1,0,-3,0,2
1576746147631492,-3,0,0,-1,-2,-1,0,1
1576746147652541,-3,1,-3,-1,-1,-2,1,-1
1576746147652541,0,0,-1,-2,-1,0,3,0
1576746147653427,2,-3,0,-4,-1,-5,0,-1
1576746147653427,3,-2,-2,-2,-1,-1,-3,0
1576746147666495,3,-1,-2,0,1,-3,0,-1
1576746147666495,-6,0,-3,3,-3,1,-1,0
1576746147673474,-1,0,-2,-4,-1,1,0,-8
1576746147673474,1,1,1,-2,1,-3,0,-1
1576746147689433,0,3,1,-1,-2,0,-4,1
1576746147689433,1,-1,-1,2,-2,-2,-5,-2
1576746147691335,-4,0,0,-1,-1,1,0,-3
1576746147691335,1,-2,-3,-2,-1,0,-4,-3
1576746147712374,0,-2,-1,-3,-5,-1,1,-4
1576746147712374,1,1,-2,2,-2,-1,3,4
1576746147713279,-1,-2,-2,-2,1,0,0,4
1576746147713279,-2,0,0,-1,-2,1,1,-3
1576746147726302,-6,0,0,0,-1,-1,0,2
1576746147726302,-1,-4,-1,-1,-2,-1,0,-3
1576746147733317,-1,-1,1,-2,-2,0,-2,-1
1576746147733317,0,-2,-2,-1,-2,-2,-1,0
1576746147749274,1,-1,0,0,1,-1,-1,1
1576746147749274,-2,0,-1,-1,-1,2,-1,-4
1576746147751170,1,-2,-4,0,-1,0,-1,1
1576746147751170,0,-4,-2,0,0,-2,-1,-2
1576746147772206,-2,1,1,0,-3,0,-2,-2
1576746147772206,1,-1,1,-1,-1,-3,1,-2
1576746147774144,1,-2,-1,-2,1,0,-1,-3
1576746147774144,-4,-1,0,-1,-2,0,0,2
1576746147787072,-3,-3,0,0,-1,-2,-2,-1
1576746147787072,-1,0,-3,1,2,0,-1,1
1576746147793097,-2,-2,-2,-2,-3,-2,1,1
1576746147793097,-1,0,0,-1,1,0,-2,1
1576746147810012,0,1,1,-1,-2,1,1,-4
1576746147810012,-2,0,-2,0,1,-1,1,0
1576746147811014,-1,-2,1,-1,2,0,-2,-3
1576746147811014,1,2,-1,0,-2,0,-3,-2
1576746147831994,-2,-4,0,0,-3,-3,-4,-1
1576746147831994,-3,0,-1,1,-1,-4,-3,1
1576746147833985,-3,-1,-2,-1,-2,0,1,4
1576746147833985,1,1,-1,-1,-2,0,2,-1
1576746147846950,-1,1,-2,-2,0,2,1,-2
1576746147846950,1,-3,-2,0,-3,-2,-3,2
1576746147853894,3,1,0,-2,1,-2,-3,-1
1576746147853894,0,-3,1,1,0,-3,-2,2
1576746147869949,-2,3,-1,2,-1,-2,0,1
1576746147869949,0,-2,-2,-2,-1,0,-1,-6
1576746147870884,-1,-1,0,-3,-1,-2,3,0
1576746147870884,-3,-1,-1,-4,-2,0,-3,-1
1576746147891793,-3,2,-2,-1,-1,0,-2,-2
1576746147891793,-2,-2,0,2,1,-2,1,1
1576746147893789,1,-1,-1,-1,-2,2,-2,-1
1576746147893789,3,-2,-1,1,0,-1,3,1
1576746147906861,1,0,-2,0,2,1,-2,-2
1576746147906861,-1,-2,0,-1,-2,-2,-3,-2
1576746147913772,1,-3,-1,0,-1,1,-3,-4
1576746147913772,-4,1,-3,-4,-1,-2,-1,1
1576746147929785,-3,-1,0,1,0,1,0,-2
1576746147929785,-1,1,0,2,2,1,-5,-3
1576746147931691,-1,-4,-2,-1,0,-1,1,5
1576746147931691,-1,-3,-1,-2,-1,1,-1,-1
1576746147952648,-2,0,0,0,1,0,2,0
1576746147952648,-3,-1,-4,-2,-3,0,0,-2
1576746147953632,-3,-1,0,-2,-1,-3,0,0
1576746147953632,-3,2,0,2,1,-2,-1,2
1576746147966690,2,-4,1,-2,-2,-4,-5,-3
1576746147966690,2,0,-1,-1,-1,2,2,-2
1576746147973677,1,0,-2,1,-1,0,-4,1
1576746147973677,-2,-1,-1,-1,-1,1,0,-1
1576746147989624,-1,1,-2,1,0,-2,-2,1
1576746147989624,-3,2,-2,-2,-1,-2,1,-4
1576746147991525,1,0,1,-2,0,0,4,2
1576746147991525,2,-1,-1,-3,-4,-5,-1,-3
1576746148012557,-1,1,-1,0,0,2,-1,1
1576746148012557,1,1,-2,-3,-1,-1,2,-1
1576746148013468,3,-2,0,-1,-1,-1,-2,-1
1576746148013468,0,-3,-1,0,0,1,-3,0
1576746148025433,0,0,-1,-1,-3,-3,-1,0
1576746148025433,2,0,1,1,-1,0,-1,0
1576746148034450,0,-1,-1,-2,-2,2,-2,-5
1576746148034450,-2,-1,1,-1,0,-2,1,-1
1576746148049472,-1,-3,-3,-1,-1,0,1,-2
1576746148049472,0,0,2,0,0,-3,-2,-1
1576746148051373,0,1,-1,-2,-2,-1,2,-5
1576746148051373,4,-2,0,-3,-1,-1,-1,-1
1576746148072408,-1,-2,-2,-1,-3,-2,-3,-2
1576746148072408,0,0,0,3,-2,-2,2,0
1576746148073349,0,-2,0,-4,1,-1,0,2
1576746148073349,-2,-2,0,-1,1,0,-2,-5
1576746148086271,-2,-1,0,-1,1,-2,-1,1
1576746148086271,2,-1,-1,-4,0,-1,-2,-6
1576746148095255,0,-3,0,0,-1,0,-3,-3
1576746148095255,-3,-2,1,-1,1,1,-1,0
1576746148109213,-1,1,0,-2,-2,-2,0,-1
1576746148109213,-2,1,-3,1,-1,-1,0,0
1576746148111210,-2,0,-1,-6,-1,-3,1,4
1576746148111210,1,1,-1,0,-1,-1,-1,-1
1576746148132251,-3,0,1,-1,-2,0,1,-2
1576746148132251,-1,-3,0,1,0,0,-1,2
1576746148134150,-2,2,-2,1,1,1,2,5
1576746148134150,-1,0,-2,-1,-1,1,0,-1
1576746148146220,-2,2,0,2,0,2,-2,0
1576746148146220,-3,-2,0,-5,0,-1,-2,0
1576746148155125,1,-1,-3,0,1,1,-3,0
1576746148155125,-1,-3,0,-2,-4,-1,-1,-2
1576746148170090,1,-1,-1,-1,0,-1,-2,-1
1576746148170090,-1,-2,0,1,0,1,-2,-2
1576746148171046,0,-4,-1,-1,-1,-2,0,-2
1576746148171046,0,1,-1,1,0,-1,1,-2
1576746148191987,-1,-3,-2,0,-1,-1,0,-1
1576746148191987,1,1,-2,1,-3,0,2,-1
1576746148193986,0,-2,-1,0,-2,-1,-4,1
1576746148193986,0,-1,-4,-4,-2,-3,1,1
1576746148206050,-2,-2,0,1,-1,-3,0,-4
1576746148206050,-2,1,-2,-1,-1,1,0,2
1576746148214936,1,0,0,1,-1,-4,2,0
1576746148214936,0,1,-1,1,-3,1,0,1
1576746148229989,-1,-1,-2,-2,0,-1,-2,-1
1576746148229989,0,-1,0,-1,-4,0,-1,-2
1576746148230895,-1,-2,-2,-3,0,1,-1,-1
1576746148230895,1,-1,-2,1,0,0,-4,-2
1576746148251930,1,-1,0,0,-2,0,-3,-1
1576746148251930,2,-1,-1,3,0,0,-1,-4
1576746148253830,-2,-2,-1,-3,-3,-2,-2,0
1576746148253830,-2,0,0,0,0,0,-3,-3
1576746148265893,2,-4,0,2,-1,1,1,2
1576746148265893,-1,1,-1,-1,0,-4,-1,-5
1576746148274767,1,-1,0,0,1,-1,-1,1
1576746148274767,1,-1,-3,0,-2,-1,0,6
1576746148289824,-2,1,-1,2,-2,-3,-1,-3
1576746148289824,0,-4,0,-3,-2,-1,-1,3
1576746148291722,-3,1,1,-3,1,-2,0,0
1576746148291722,-5,1,-1,-1,-1,1,-1,-5
1576746148312669,0,3,-1,-1,-1,0,0,-4
1576746148312669,-3,-1,-1,3,0,-2,0,4
1576746148313671,1,0,-1,-5,0,-4,-2,-2
1576746148313671,-2,0,0,-2,2,-1,0,-5
1576746148325631,-3,-2,0,2,-1,-1,0,0
1576746148325631,-4,-1,0,0,-2,-1,-2,-4
1576746148334608,4,-2,-1,-1,-2,-1,-1,0
1576746148334608,-1,-1,0,-3,-1,1,-1,-3
1576746148349662,2,-3,-3,0,-1,1,0,-1
1576746148349662,3,-2,-1,-4,-1,-1,-3,-3
1576746148351569,0,-2,0,0,1,0,-2,-3
1576746148351569,3,-3,2,-3,-4,-1,-2,-3
1576746148372588,-1,0,0,1,1,-2,-3,-2
1576746148372588,3,0,1,0,-1,0,-1,1
1576746148373503,2,-1,-2,-4,-1,0,0,-3
1576746148373503,1,-3,-3,-2,-1,-2,2,-4
1576746148385570,-1,0,-1,2,0,-1,-1,-1
1576746148385570,-3,-2,0,-2,-1,-1,-2,-2
1576746148394487,-4,-2,0,-4,-2,1,1,-2
1576746148394487,-2,-2,2,-3,-3,2,-4,-1
1576746148409448,-2,2,-3,-1,-1,0,1,1
1576746148409448,1,1,-4,-1,1,0,-2,0
1576746148411430,1,-2,-2,0,0,-3,-1,-3
1576746148411430,1,0,-1,-1,2,-1,-1,0
1576746148432448,0,1,0,-3,-1,1,-2,0
1576746148432448,1,-2,0,2,-1,-1,-1,3
1576746148433365,7,-3,0,-4,-2,-1,-1,1
1576746148433365,1,-1,-3,0,-3,1,-2,2
1576746148454390,-3,-3,0,0,-1,-2,0,-2
1576746148454390,-2,-2,-1,-4,-3,-2,1,-5
1576746148456296,-4,-3,0,1,-1,1,1,-3
1576746148456296,1,0,-1,2,0,-6,-3,-1
1576746148469348,2,-1,-1,-1,-1,0,-2,-3
1576746148469348,-3,-3,-1,-2,-1,2,-1,-1
1576746148471277,1,-3,-2,-2,-1,-1,0,-3
1576746148471277,0,-3,0,-1,-1,0,1,-2
1576746148492185,2,-1,-1,0,-2,-2,-1,-1
1576746148492185,0,-1,1,-1,0,-2,1,-2
1576746148494180,-1,-2,0,-2,-1,-2,-1,3
1576746148494180,-1,-1,-2,0,0,0,-2,-2
1576746148515151,1,-1,0,1,-2,1,-3,2
1576746148515151,-1,-3,0,-1,-1,0,1,4
1576746148516131,-2,0,0,-1,0,0,-2,-1
1576746148516131,-4,-2,2,1,-1,-2,-1,1
1576746148530123,-6,0,1,1,-1,-1,2,0
1576746148530123,0,0,-3,0,-1,0,-2,-1
1576746148531092,0,1,-1,0,-2,1,-1,1
1576746148531092,0,-1,-1,-1,1,-2,0,0
1576746148553072,-1,-2,0,0,-1,2,-2,-2
1576746148553072,-3,-1,0,2,1,0,-3,3
1576746148554020,-3,0,1,-1,-1,1,-4,2
1576746148554020,-2,-1,-1,0,0,-2,1,1
1576746148575017,1,0,0,-2,-2,-5,-1,-2
1576746148575017,-2,1,-2,0,0,1,2,0
1576746148575961,-3,1,-3,0,-2,-1,2,5
1576746148575961,-1,1,-1,1,0,1,-4,-1
1576746148589029,1,-3,-1,-2,-1,-1,0,-3
1576746148589029,2,-2,-1,3,-5,-3,1,-3
1576746148596008,0,1,-1,1,1,3,0,1
1576746148596008,-1,2,-1,-1,0,-3,0,0
1576746148611965,-1,1,-1,-1,-3,-1,-4,3
1576746148611965,1,-1,-1,2,2,1,-2,-1
1576746148613868,-3,-2,-1,-1,-3,-3,1,-3
1576746148613868,3,1,0,1,0,2,0,0
1576746148634906,-3,-1,-4,-2,0,-1,-5,1
1576746148634906,2,1,2,2,-1,1,-1,0
1576746148635848,2,-2,-2,-3,-1,-4,-2,-2
1576746148635848,-2,-1,0,-2,1,-2,1,-1
1576746148648864,2,1,-1,2,2,1,2,-1
1576746148648864,1,1,0,1,-2,-5,1,0
1576746148655851,0,-3,1,-1,-1,0,-1,-4
1576746148655851,-3,0,-2,-1,-3,0,1,0
1576746148672703,-2,-1,0,0,0,1,-1,-6
1576746148672703,-5,-3,-5,-1,-2,0,-1,0
1576746148673708,-1,-2,0,1,0,-2,-5,1
1576746148673708,-4,2,-2,2,0,2,0,0
1576746148694743,-2,2,1,6,-2,-1,2,-2
1576746148694743,-1,0,-1,-2,0,-3,0,-2
1576746148696648,1,1,-1,-3,-2,-2,1,3
1576746148696648,-4,0,-2,0,-3,-1,-1,1
1576746148708608,1,-1,-3,-1,-1,0,-2,-2
1576746148708608,-1,2,-1,-1,2,1,2,-3
1576746148715687,0,-3,-2,-1,-1,2,4,-1
1576746148715687,-2,0,0,-1,1,-1,-3,-3
1576746148732555,-4,-1,-1,0,-1,-2,-3,1
1576746148732555,-3,-3,-2,-3,-2,1,-3,-7
1576746148733540,2,-4,-1,-1,-3,-1,-1,4
1576746148733540,0,0,0,-1,-1,-1,-1,-2
1576746148754522,-2,2,-2,0,0,-3,2,3
1576746148754522,3,0,2,0,-1,0,-2,1
1576746148756481,-1,1,1,-1,3,0,2,-3
1576746148756481,4,-3,-3,0,-5,-2,-2,0
1576746148769445,1,-1,-1,-1,0,-3,-2,-2
1576746148769445,1,-2,-2,2,0,-1,0,4
1576746148775428,1,-1,1,0,-1,0,-2,-2
1576746148775428,-3,0,0,0,1,0,1,1
1576746148792383,0,-1,-2,-1,-3,1,-1,1
1576746148792383,2,2,-2,0,1,-2,0,-1
1576746148793379,0,-1,-1,-1,0,0,-2,1
1576746148793379,1,-2,-3,-1,-2,-2,-1,-1
1576746148814359,-4,-2,0,-2,-2,0,3,-2
1576746148814359,-2,-2,1,-1,-1,-1,1,0
1576746148816326,0,0,-2,-1,0,-3,1,1
1576746148816326,0,-4,0,-4,-3,-3,-2,-5
1576746148828322,0,3,0,-1,-1,1,-2,-1
1576746148828322,-1,0,0,1,-3,1,-3,2
1576746148837268,1,-3,0,0,0,-1,-1,-6
1576746148837268,-1,0,-1,3,0,-1,6,6
1576746148852322,-3,-3,-3,-1,1,1,-4,-4
1576746148852322,-3,-3,1,-6,-4,-2,-2,-4
1576746148854250,-2,-3,-1,-1,0,-1,-1,3
1576746148854250,1,-1,-1,-1,1,-4,-4,-6
1576746148874280,1,-1,0,2,-1,0,1,1
1576746148874280,-3,-2,-2,-1,0,-2,2,-1
1576746148876165,-2,0,-1,-4,0,-1,-2,-1
1576746148876165,0,-2,2,-2,-1,0,-2,-2
1576746148889225,-2,3,-1,3,1,-2,-3,-1
1576746148889225,1,1,-1,0,-2,-1,3,-1
1576746148896193,0,2,-2,-1,-1,0,-1,-1
1576746148896193,-4,-2,-1,-3,0,-1,1,-4
1576746148912162,-3,-1,1,-3,0,-4,-1,-3
1576746148912162,2,2,-3,3,1,1,-5,-1
1576746148914061,0,1,0,-3,-1,-1,0,-2
1576746148914061,0,-1,0,-3,0,0,-3,-5
1576746148935039,-1,0,-1,0,-3,-1,-1,-5
1576746148935039,-1,-1,0,-1,-1,-5,2,1
1576746148935998,0,0,-2,-2,-2,0,-1,-2
1576746148935998,-4,-2,-1,0,-2,-1,0,2
1576746148948067,3,-1,-2,0,-3,-3,-2,-1
1576746148948067,-1,-2,-2,-1,-2,2,1,5
1576746148956982,-3,1,-1,-1,-2,1,-1,3
1576746148956982,-3,-2,0,1,-1,1,-1,0
1576746148972003,-2,1,0,-1,-2,2,1,2
1576746148972003,-1,1,-1,-1,-1,0,0,1
1576746148973906,-2,-1,1,-2,-1,-1,-2,0
1576746148973906,-2,-1,0,-1,-1,1,1,-2
1576746148994941,2,-4,-1,0,1,-4,1,-1
1576746148994941,-2,-3,-2,0,1,-1,-2,3
1576746148995848,-1,1,1,-5,-3,1,-1,-1
1576746148995848,0,2,-1,1,-1,-3,-1,3
1576746149008805,-5,-3,1,3,0,-1,-3,2
1576746149008805,-1,-2,-1,-3,-1,-1,-3,-9
1576746149017817,0,0,-2,-2,0,-2,-1,0
1576746149017817,0,2,-1,2,0,-1,-1,0
1576746149032741,0,-1,-1,-3,-3,0,-3,-2
1576746149032741,2,0,0,1,-1,-5,-2,3
1576746149033746,-2,-3,-2,-3,0,-1,0,-1
1576746149033746,1,3,0,0,0,-2,-1,-5
1576746149054776,-4,4,-3,-2,0,-1,-2,-5
1576746149054776,-1,-3,-1,-2,-2,-4,-3,1
1576746149056706,2,-1,0,-1,2,1,2,1
1576746149056706,-3,-3,-2,-3,-1,-4,-4,-1
1576746149068715,-1,0,2,0,0,0,-4,-2
1576746149068715,-1,1,0,0,-2,3,-1,-3
1576746149077627,-1,-4,-2,-1,0,-5,2,-1
1576746149077627,0,1,1,-3,0,3,-4,0
1576746149092611,0,-2,-3,-1,-1,2,0,-3
1576746149092611,-1,0,-2,2,0,2,1,3
1576746149093582,-1,-4,-1,-2,0,-1,0,1
1576746149093582,1,1,-1,-2,-1,-3,-4,-5
1576746149114530,-2,-2,-1,-3,-2,-3,0,-2
1576746149114530,0,-1,-1,0,-2,1,-2,2
1576746149116520,0,-1,0,4,0,1,3,1
1576746149116520,-2,-2,0,-1,-1,-3,0,5
1576746149128536,0,0,2,2,0,-1,0,0
1576746149128536,-1,-2,1,-1,1,0,2,-5
1576746149137515,2,-1,-2,1,-1,0,-5,-3
1576746149137515,0,0,-2,2,-2,-1,1,2
1576746149152530,2,0,-2,0,-2,-4,5,0
1576746149152530,2,0,0,-3,-2,-3,0,-4
1576746149153418,3,-3,0,1,-1,-3,-4,-1
1576746149153418,4,-2,0,0,-4,0,0,-3
1576746149174363,-2,-2,-1,0,-1,-1,-3,0
1576746149174363,-4,2,0,0,1,2,-2,-2
1576746149176359,-2,-1,-1,-1,-1,-1,1,1
1576746149176359,-3,-2,0,-4,0,3,-3,-1
1576746149188359,-2,2,0,0,-1,2,-1,-2
1576746149188359,2,-2,1,-4,-1,-1,-2,-5
1576746149197312,-1,0,0,-1,0,1,0,-4
1576746149197312,0,-2,0,0,0,0,-2,-2
1576746149212364,-3,-2,0,-1,-1,1,-2,-2
1576746149212364,-2,0,-2,-2,-1,-3,-2,2
1576746149213267,-2,0,-2,-1,0,1,-3,0
1576746149213267,3,1,-4,0,-4,2,0,-1
1576746149235199,-1,0,-1,2,-1,1,-2,-2
1576746149235199,2,-2,-1,0,-1,-4,0,1
1576746149236200,0,-3,-3,-6,-1,-3,0,-3
1576746149236200,0,0,-1,-1,2,-5,3,-3
1576746149248174,-6,0,0,-2,-2,2,-2,1
1576746149248174,-1,-2,0,-3,-1,-2,1,0
1576746149257143,-1,3,-2,0,1,-1,-3,-1
1576746149257143,-1,-3,-1,-2,1,0,-1,-4
1576746149272149,6,2,-1,1,-3,-1,-3,0
1576746149272149,4,-1,0,-2,-2,-2,0,-4
1576746149274101,-2,0,-1,-1,-1,0,1,3
1576746149274101,0,-1,0,0,-1,2,1,1
1576746149295115,-1,-1,-3,2,2,0,-1,-2
1576746149295115,-1,-2,-4,2,-1,3,0,0
1576746149296047,1,1,-2,-2,0,-4,-2,-2
1576746149296047,3,1,-2,-2,-3,-1,-4,0
1576746149308005,-1,-3,1,-1,-1,-4,-1,-3
1576746149308005,1,-2,-1,-1,-1,-1,-1,0
1576746149317020,-2,-5,1,-5,-2,4,0,0
1576746149317020,-3,-1,0,1,0,-3,-1,0
1576746149331979,-1,-2,-2,-3,-2,-4,-1,-2
1576746149331979,1,0,-1,0,-1,-2,-1,-1
1576746149338023,1,-1,-1,0,0,-3,-2,1
1576746149338023,-6,0,0,0,-1,1,-2,2
1576746149354974,-2,-1,-1,-1,-2,-2,1,0
1576746149354974,-3,-1,-1,-2,-2,-1,1,3
1576746149355912,3,-1,-1,-3,-2,-2,1,-3
1576746149355912,-2,0,1,1,-1,1,-2,-1
1576746149376923,0,0,-2,4,1,-1,-1,1
1576746149376923,-4,-2,0,-3,1,2,-1,-2
1576746149383841,-3,-2,-1,2,-3,-1,0,-2
1576746149383841,-1,0,-4,-1,0,0,-3,-1
1576746149391819,1,0,-1,1,-2,1,1,-1
1576746149391819,1,1,-4,1,-1,0,1,4
1576746149393782,1,-1,1,-1,0,-1,-2,2
1576746149393782,-2,2,0,0,-1,-1,1,-4
1576746149414774,-2,-2,0,0,-1,1,-1,-1
1576746149414774,-2,-1,-2,0,1,-1,-2,-5
1576746149416720,-2,1,0,-4,0,-3,-1,-2
1576746149416720,0,1,-1,2,1,0,0,-1
1576746149437656,-5,-1,-3,0,-1,-1,1,0
1576746149437656,-2,-2,1,-2,0,0,-3,-2
1576746149438662,-6,1,0,1,-2,1,1,1
1576746149438662,-3,-2,-3,0,0,0,-2,-5
1576746149452643,-3,1,0,-2,0,-2,-1,-4
1576746149452643,-2,-2,-2,-1,-2,-1,-2,0
1576746149453621,-1,1,0,1,2,-2,0,0
1576746149453621,-2,1,0,-3,-3,-4,-3,0
1576746149474558,-1,-3,-2,0,-1,-3,2,-1
1576746149474558,0,1,1,2,-2,3,2,2
1576746149476565,-3,-3,2,-3,-2,-1,-3,-1
1576746149476565,-1,-2,0,3,-2,1,-2,1
1576746149497549,0,1,-1,3,-1,1,-1,-1
1576746149497549,-2,-2,1,0,1,-1,-1,2
1576746149498504,3,-1,-4,-3,3,-1,-1,-3
1576746149498504,-2,-3,-1,-2,-3,2,3,-3
1576746149511495,1,-2,-1,0,-1,-1,-2,-2
1576746149511495,-1,-2,-2,0,-4,-4,-2,-3
1576746149518541,-2,1,1,0,0,0,-2,3
1576746149518541,0,-2,-1,0,-1,-1,3,3
1576746149534498,1,-1,0,0,1,1,-2,-1
1576746149534498,0,-3,1,-2,0,-3,0,-5
1576746149536401,2,-2,0,-4,-1,0,-3,-2
1576746149536401,0,2,-3,-2,0,-6,1,0
1576746149557449,-2,-3,-2,-3,-2,0,-3,0
1576746149557449,1,4,-2,-3,3,-3,-2,-1
1576746149558335,0,-1,-1,-3,-1,1,1,1
1576746149558335,0,0,1,-1,-3,-3,-1,-3
1576746149571402,3,3,0,1,1,-1,0,-1
1576746149571402,0,-1,-2,0,-3,-2,-1,2
1576746149578316,1,-1,0,-1,-1,1,0,1
1576746149578316,0,-1,-2,4,0,4,-2,6
1576746149594338,-1,-1,2,-3,-3,-3,-2,-2
1576746149594338,0,-1,0,0,0,-1,0,-1
1576746149596242,-3,0,0,-2,1,-1,-1,-3
1576746149596242,-2,1,0,3,-1,1,1,-2
1576746149617276,3,-2,-2,3,0,-2,0,0
1576746149617276,-3,0,-3,2,0,-1,4,1
1576746149619207,-2,-3,-3,-1,-2,1,0,0
1576746149619207,0,-2,1,-3,-1,-1,-2,-2
1576746149631193,-3,-3,-4,-1,-1,0,0,-2
1576746149631193,0,-2,1,0,0,1,-3,0
1576746149638220,3,1,-1,0,0,1,-3,-2
1576746149638220,-2,-5,0,-2,-1,-2,-5,-3
1576746149655116,-1,2,-2,1,-3,2,0,-3
1576746149655116,4,-1,0,-1,-2,0,-1,0
1576746149656081,-2,2,1,0,-2,-1,1,0
1576746149656081,1,-1,0,-3,1,0,-2,-6
1576746149677119,-4,0,-2,-1,0,-3,-1,-2
1576746149677119,-1,1,-3,-3,0,-1,1,0
1576746149679019,0,-3,-1,-5,1,-3,0,-2
1576746149679019,-1,2,0,-1,-2,-1,-1,-1
1576746149691985,-1,0,-1,1,0,2,-4,0
1576746149691985,0,-1,-1,-1,-1,0,-1,0
1576746149698061,-1,-2,-2,0,-2,0,-1,1
1576746149698061,0,0,0,0,0,-3,-1,-2
1576746149715030,-4,1,-1,0,-2,0,-2,1
1576746149715030,0,-1,1,-1,-3,-1,1,-2
1576746149715929,0,0,-1,-1,1,-2,-1,-3
1576746149715929,1,0,-3,-1,0,0,-2,-2
1576746149736958,-2,-1,-1,0,-1,0,-1,-1
1576746149736958,-3,1,0,1,-2,1,1,4
1576746149738859,3,-4,-1,-2,-2,-1,1,2
1576746149738859,-1,-1,-1,-2,0,0,-2,-2
1576746149751929,4,-1,2,0,-2,-2,-2,0
1576746149751929,-2,-3,-2,-2,-1,-2,-4,1
1576746149758802,2,-2,-2,0,1,-1,-2,-3
1576746149758802,-2,2,-2,6,-3,1,1,7
1576746149774756,0,-3,-1,-1,-3,-2,2,1
1576746149774756,0,0,1,0,2,0,-1,-4
1576746149776749,-1,2,-3,2,-3,-1,0,5
1576746149776749,-1,-3,-1,0,-1,0,0,-4
1576746149796792,0,-2,-2,-1,-1,1,-3,-4
1576746149796792,-3,-3,-3,-2,0,-2,-2,-2
1576746149798695,1,-1,0,-2,-1,0,-4,0
1576746149798695,-4,-2,-2,-2,-2,-4,-6,-4
1576746149811693,-5,1,1,2,0,-1,2,-1
1576746149811693,0,-1,0,-3,-1,-3,-1,-4
1576746149818638,-4,0,0,-2,-1,-2,-1,-2
1576746149818638,0,-1,1,0,-1,-2,2,-2
1576746149834698,-3,2,-1,-1,0,-1,-1,-1
1576746149834698,2,-3,-2,0,0,1,-2,0
1576746149836644,0,-2,-1,-1,-1,-3,1,-5
1576746149836644,1,0,1,-2,1,-1,0,-2
1576746149857550,-2,0,-2,1,0,-1,-1,-3
1576746149857550,-4,2,-1,-3,2,0,2,-1
1576746149858534,-3,0,0,-2,-3,0,-3,-1
1576746149858534,-3,-4,-2,0,-1,1,-3,-3
1576746149870600,2,0,0,1,-1,-3,-3,-4
1576746149870600,1,-1,0,-1,-1,1,-1,-2
1576746149879495,-2,-2,0,-3,0,-1,3,0
1576746149879495,1,1,0,-1,-3,-3,0,1
1576746149894537,-4,0,0,-1,-1,1,0,-1
1576746149894537,2,-4,-3,-1,-3,-2,-1,-2
1576746149896482,-1,1,-1,1,0,0,0,2
1576746149896482,-1,0,-1,0,0,0,-1,2
1576746149917475,-2,-2,1,-3,-3,-1,-3,-1
1576746149917475,-1,-2,-1,1,1,-1,-1,3
1576746149918415,0,0,-1,0,-1,0,-1,-1
1576746149918415,-2,-1,-2,1,-2,0,-1,2
1576746149939319,-1,3,-2,-2,-1,1,-1,2
1576746149939319,0,-2,0,-5,-1,-2,1,-1
1576746149941354,1,-2,-1,-1,0,-1,0,-1
1576746149941354,0,1,-2,0,0,-3,-2,1
1576746149955273,1,-2,-3,1,1,-3,0,-2
1576746149955273,-3,1,2,0,0,1,0,-1
1576746149956278,1,-1,-2,0,0,-3,-1,0
1576746149956278,0,3,-1,-1,-2,-1,0,-2
1576746149977313,-3,-4,0,1,-1,1,2,-3
1576746149977313,0,-1,-2,0,0,-1,1,6
1576746149979217,1,-1,-1,-3,2,-2,-3,-2
1576746149979217,-2,0,-1,3,0,-2,0,-3
1576746149991179,-3,-1,0,2,-2,1,-3,3
1576746149991179,1,1,0,-1,0,-2,2,-1
1576746150000205,1,-1,-1,-1,1,-2,-3,-4
1576746150000205,-6,-2,-1,-3,1,-1,2,-1
1576746150015151,1,0,-1,0,-1,1,0,4
1576746150015151,1,-3,0,3,-2,-1,-1,-3
1576746150016117,-2,-1,-1,2,-3,0,5,7
1576746150016117,1,-1,-2,1,-1,1,0,-2
1576746150037154,-3,1,-2,-1,1,0,-2,-4
1576746150037154,-4,3,0,0,0,1,-5,-2
1576746150039054,1,0,0,-4,0,0,-1,-3
1576746150039054,-2,1,-2,0,-1,-2,0,-2
1576746150051116,-3,-2,-2,-2,0,1,-1,-2
1576746150051116,-2,-1,-3,-2,0,-1,-3,2
1576746150060047,-2,-1,0,-2,-1,-1,-2,-1
1576746150060047,-1,-1,0,1,-3,2,0,-2
1576746150074954,0,-2,-1,3,-1,0,-1,-1
1576746150074954,1,0,-1,-2,-2,0,1,1
1576746150075949,-1,1,1,0,-1,-1,-3,0
1576746150075949,1,-1,0,-3,-2,-3,0,2
1576746150096995,0,-1,1,-3,0,-3,1,-1
1576746150096995,-1,1,-1,0,-1,0,0,2
1576746150098894,-3,-2,-3,-1,0,0,0,0
1576746150098894,2,-3,-2,-3,0,-3,-5,-3
1576746150110959,1,-1,-2,1,-2,-2,2,0
1576746150110959,4,-1,-1,0,-1,-1,-3,-1
1576746150119837,1,0,-1,-3,-2,-1,0,0
1576746150119837,-2,-2,0,1,-2,-1,-2,-1
1576746150134895,0,1,-2,2,1,-1,-1,-5
1576746150134895,-1,-2,-1,-1,0,-4,-4,0
1576746150136787,-3,-3,-3,2,0,-1,4,1
1576746150136787,-1,-2,0,-1,0,0,-2,0
1576746150156834,1,-1,2,0,-2,-3,0,0
1576746150156834,-1,-4,1,-3,0,0,0,-8
1576746150158729,-3,3,-3,-2,-2,0,-6,-2
1576746150158729,-3,-1,-1,2,1,-1,0,-2
1576746150170792,-2,-3,0,-1,-1,-2,-3,0
1576746150170792,-2,2,-2,-3,-2,-4,1,-1
1576746150179674,2,-2,-1,-2,0,2,-5,-3
1576746150179674,-2,3,-2,-2,1,0,3,0
1576746150194732,1,-1,1,-1,-3,1,0,-3
1576746150194732,-6,-1,-1,-3,-2,3,-2,-3
1576746150196636,-2,2,2,2,0,-2,0,0
1576746150196636,-2,-3,-1,-1,-2,-2,-3,-2
1576746150217612,-2,1,-2,0,0,0,4,0
1576746150217612,-2,-2,0,-5,0,-1,0,-2
1576746150218573,2,1,0,-1,-1,-1,-1,-2
1576746150218573,1,1,0,0,-2,1,-2,1
1576746150230634,2,1,1,-1,-2,-4,-6,-2
1576746150230634,4,-1,1,0,-1,3,0,0
1576746150239513,-4,2,0,-3,-1,-2,0,-1
1576746150239513,1,-1,-2,1,-2,-3,2,-1
1576746150254575,1,0,-1,0,-1,-3,-3,-2
1576746150254575,0,0,-2,0,0,0,-2,2
1576746150256504,2,-9,1,-2,-2,-3,1,0
1576746150256504,-2,0,0,0,-2,1,-2,-3
1576746150277449,-2,-1,-1,-1,-2,-3,2,2
1576746150277449,-2,0,-1,-1,-1,0,0,0
1576746150278417,-1,-2,-2,-2,0,-1,1,-1
1576746150278417,-1,0,-1,1,0,-1,-1,2
1576746150290476,-3,2,-1,1,0,3,-1,-2
1576746150290476,0,-1,-2,-3,0,-1,-1,0
1576746150299446,-1,-1,-1,1,-1,2,2,-1
1576746150299446,-1,1,-1,0,1,-3,-1,1
1576746150314413,-3,1,-1,1,-3,-1,-1,-2
1576746150314413,-3,-3,-1,-3,-1,1,-4,1
1576746150316325,2,1,-3,1,-1,-2,1,-2
1576746150316325,3,-3,0,-2,0,0,0,0
1576746150337354,-5,1,1,3,-1,0,1,1
1576746150337354,5,-2,0,3,0,-3,4,5
1576746150339247,-2,-3,-3,-3,-1,0,-2,7
1576746150339247,0,-1,-3,1,-3,1,-2,-3
1576746150360190,3,-2,-2,-4,0,0,-5,-3
1576746150360190,2,1,1,-3,0,-1,2,1
1576746150361196,2,0,0,2,-1,1,1,-1
1576746150361196,-2,2,0,1,1,-3,-2,-1
1576746150375149,2,-6,-3,-1,-2,2,-1,-1
1576746150375149,-2,-2,0,-2,1,0,-1,-2
1576746150376158,-1,-4,1,-3,-2,-1,-4,-6
1576746150376158,-3,-3,-3,1,-2,1,2,2
1576746150397191,-1,1,-3,0,-1,-2,1,-1
1576746150397191,2,-1,0,-2,-1,1,1,-1
1576746150399092,-5,0,-1,0,-1,-1,2,0
1576746150399092,1,0,1,0,-2,2,-3,-4
1576746150420072,-5,3,-2,3,-2,-3,-1,0
1576746150420072,2,-3,-2,2,-1,-4,0,-1
1576746150421027,-1,-1,-1,0,3,-4,0,-6
1576746150421027,-3,-2,-2,-3,1,1,-2,-6
1576746150435071,1,-1,2,-1,1,1,0,-2
1576746150435071,-2,-1,-1,-5,-2,-2,-2,-3
1576746150435987,-1,-2,0,-2,-1,0,-2,-2
1576746150435987,0,-1,-1,4,0,-2,-1,1
1576746150457035,-2,-2,-1,0,-2,1,1,-2
1576746150457035,-3,0,-2,-3,1,-2,-2,-2
1576746150458933,1,-1,-1,0,0,-1,-2,0
1576746150458933,0,2,1,-3,-3,2,0,-1
1576746150479970,-3,-1,-3,0,0,-1,-3,-5
1576746150479970,-3,0,-1,-2,-1,0,1,-2
1576746150480878,0,0,1,0,-2,0,1,-1
1576746150480878,-4,-5,-2,-4,-1,-2,-2,-2
1576746150493934,1,-6,0,-2,0,-1,0,4
1576746150493934,1,-1,1,1,-2,-1,0,1
1576746150500914,-1,2,-3,1,1,-1,-2,-1
1576746150500914,1,1,0,1,1,-2,-2,-1
1576746150517770,0,-1,-1,-2,0,1,-1,-4
1576746150517770,-1,-2,-1,-1,0,-2,-2,0
1576746150518802,0,-1,-1,0,-6,-1,-2,0
1576746150518802,-1,-1,-2,-2,-5,-3,-1,-1
1576746150539808,-2,0,0,0,-2,-4,-2,-1
1576746150539808,-3,-2,-3,0,0,2,1,-2
1576746150541704,-1,-1,-1,-1,0,-1,-1,-1
1576746150541704,0,2,0,1,-1,1,-4,-4
1576746150553767,4,1,-1,-2,0,-2,-4,-3
1576746150553767,-1,2,-1,-1,0,1,-3,1
1576746150560689,-5,1,-2,0,-2,1,1,3
1576746150560689,-5,-1,-1,0,-1,-2,0,1
1576746150577648,-4,4,-1,2,0,-1,0,1
1576746150577648,-1,0,-1,2,-3,0,0,0
1576746150578623,2,2,0,-1,1,-1,-3,-2
1576746150578623,-1,-2,-1,-2,0,-4,-1,0
1576746150599645,-5,2,-2,2,-4,-1,-1,1
1576746150599645,0,-1,-1,-2,-2,-2,-1,1
1576746150601553,-2,-1,1,-1,-1,2,-2,4
1576746150601553,1,-4,-2,2,0,-2,4,-1
1576746150614518,-2,-3,-1,0,1,0,0,5
1576746150614518,4,0,-2,-2,1,-3,0,2
1576746150620594,-3,-1,-2,-3,-2,-1,-2,-3
1576746150620594,0,0,1,-2,-3,-1,-4,-1
1576746150637561,1,-4,-1,2,0,-2,3,-3
1576746150637561,1,-1,0,0,0,0,-1,-1
1576746150638447,-1,-2,0,-2,1,0,-1,-6
1576746150638447,-3,1,-2,0,-2,-1,2,3
1576746150659427,-2,0,0,-3,0,0,-1,-4
1576746150659427,1,-2,-3,1,-1,0,-2,0
1576746150661393,-2,-1,-2,-1,-2,-3,-1,-1
1576746150661393,-2,-4,0,1,1,1,2,-2
1576746150674352,3,-2,0,1,1,-2,-2,-2
1576746150674352,0,-3,1,-3,-1,0,0,0
1576746150680437,-2,0,1,0,0,-2,-2,-1
1576746150680437,0,0,-1,-1,1,-1,-2,-2
1576746150697388,2,-1,-1,0,-2,-1,0,1
1576746150697388,-2,-2,0,-2,-1,-2,-3,-1
1576746150698296,0,-1,-1,-4,0,-1,-1,-1
1576746150698296,-2,1,0,3,-2,-1,0,5
1576746150720228,-5,0,-3,-1,2,1,-4,-3
1576746150720228,-2,-1,-2,-2,-1,-1,0,-1
1576746150721232,-3,-2,-1,-1,-1,1,0,-2
1576746150721232,1,1,-1,-2,-1,0,-3,-1
1576746150734290,-3,0,2,-1,-2,0,2,0
1576746150734290,-6,-1,-3,-1,-1,-1,3,-4
1576746150741171,1,0,-1,-1,1,-2,-1,-1
1576746150741171,-4,0,-2,2,0,-1,0,-6
1576746150757205,3,-1,-1,1,0,-1,-2,1
1576746150757205,-1,-1,1,-6,1,-1,-1,-7
1576746150759129,3,-2,0,-1,-2,-3,-1,-2
1576746150759129,-2,-2,-1,-1,0,-2,-3,-6
1576746150780066,-3,0,0,0,-1,-2,-2,-2
1576746150780066,0,-1,0,-2,-1,1,1,-2
1576746150781075,-1,-1,-3,0,-1,0,-1,-1
1576746150781075,-1,3,-2,1,-1,1,-3,-1
1576746150794066,-1,0,-3,1,-1,-4,-2,-1
1576746150794066,4,1,-1,-1,0,-1,-1,2
1576746150801112,-1,-1,0,0,0,-2,1,0
1576746150801112,-2,-2,-2,-4,0,-1,1,-3
1576746150817005,-3,2,0,-1,-2,1,1,-5
1576746150817005,-1,2,0,0,-2,-3,-2,5
1576746150818967,2,-3,-1,-2,3,1,2,0
1576746150818967,-1,2,1,-1,-1,0,0,-2
1576746150840021,-3,-4,-3,-2,-2,-1,-1,1
1576746150840021,-2,0,2,-2,-1,-2,-2,-2
1576746150840907,-3,-2,0,0,0,-1,0,2
1576746150840907,1,-1,-1,0,-3,1,-6,-1
1576746150853876,0,-2,-1,1,-1,1,3,4
1576746150853876,0,-1,-3,-1,-2,-2,0,-1
1576746150861927,1,0,0,-3,-2,0,-3,-7
1576746150861927,-2,0,0,1,0,0,1,1
1576746150876911,-3,3,-1,0,-2,1,-3,1
1576746150876911,-2,-1,-2,-3,-1,0,0,-2
1576746150878812,-2,1,0,2,0,-3,-2,1
1576746150878812,3,0,-3,1,0,0,-1,3
1576746150899847,1,0,-1,-1,2,-2,0,-2
1576746150899847,3,-3,0,-2,0,-2,-1,0
1576746150901750,-2,0,-1,-1,-1,-2,-1,-1
1576746150901750,-2,-2,0,0,-1,-5,-1,0
1576746150913797,-1,-1,-1,2,1,1,1,1
1576746150913797,-1,0,0,-2,0,-1,-1,-2
1576746150922737,-1,0,0,0,-2,0,-2,1
1576746150922737,-2,0,-3,1,0,-2,-5,0
1576746150937645,-3,-2,-2,1,-4,1,-4,-3
1576746150937645,-2,-2,-3,0,1,-2,-1,-2
1576746150938650,-2,2,-1,-2,-2,2,-1,-2
1576746150938650,0,-1,1,-2,-2,2,0,-3
1576746150959690,0,-2,-3,-1,1,1,0,0
1576746150959690,1,1,1,0,-1,-1,2,1
1576746150961590,-3,-1,-3,0,1,-3,-2,-1
1576746150961590,-2,1,-1,0,-2,-1,1,-5
1576746150973655,-1,1,1,1,-1,-3,-2,-3
1576746150973655,-2,-2,-1,-3,-1,1,-2,0
1576746150982562,-2,3,-2,-2,-2,-2,-1,-1
1576746150982562,2,2,-1,0,-1,-2,-1,-2
1576746150997580,2,-2,0,-3,-3,-1,2,0
1576746150997580,-2,0,-1,-2,0,3,0,3
1576746150998493,0,-3,-1,-3,0,3,2,-3
1576746150998493,1,-1,-2,0,-2,-3,-2,-2
1576746151019526,-3,-1,0,-1,0,0,0,-2
1576746151019526,0,-2,0,0,-1,0,-1,0
1576746151021431,2,-4,-1,-1,0,-2,-2,-3
1576746151021431,0,2,0,1,-2,1,1,0
1576746151033491,2,-1,-1,-1,2,-4,-4,-3
1576746151033491,-2,-2,-2,0,-1,-3,-2,3
1576746151042396,1,-1,-2,-3,-1,-1,-1,-4
1576746151042396,-1,-2,1,-1,2,-4,3,-3
1576746151057326,1,-3,-3,0,-1,1,-2,-1
1576746151057326,0,-2,0,-2,2,-2,-2,1
1576746151059320,-1,-3,2,0,-1,1,1,1
1576746151059320,-3,-2,0,-1,-2,0,-2,-1
1576746151080266,-1,-2,-1,-2,-1,-1,-3,-2
1576746151080266,1,-3,-2,-2,-2,-2,0,-4
1576746151081270,1,0,-3,0,-3,-2,-2,1
1576746151081270,-1,-2,1,1,-1,-1,2,-1
1576746151093329,-2,3,1,-1,-1,4,-2,2
1576746151093329,1,0,-3,0,-1,-1,-3,1
1576746151110192,0,2,-1,-1,1,-3,0,-2
1576746151110192,4,-4,0,-2,-4,-3,-3,-2
1576746151117265,1,0,0,0,-2,-3,2,-3
1576746151117265,3,0,-1,0,1,0,1,1
1576746151119204,-2,-2,-2,-1,-1,-1,-1,-3
1576746151119204,0,-1,-1,-4,2,0,-2,-1
1576746151140144,1,-1,1,0,-2,-1,2,2
1576746151140144,4,-4,-1,-3,0,0,-1,-2
1576746151141103,2,-2,-3,0,0,-1,0,0
1576746151141103,-3,0,0,0,0,2,1,-1
1576746151153172,-1,-2,-1,-3,-2,-3,-4,-2
1576746151153172,-3,-2,-1,-5,-2,-1,0,-4
1576746151162046,1,0,-1,1,-3,0,0,2
1576746151162046,-2,0,-1,1,0,-1,-1,1
1576746151177107,1,1,-1,-4,1,0,3,-2
1576746151177107,0,1,1,0,-3,1,4,0
1576746151179009,-1,-1,1,1,-2,0,-3,1
1576746151179009,2,-3,-2,1,0,0,0,-5
1576746151200054,-1,1,-3,-1,1,-2,-1,0
1576746151200054,0,-1,0,3,-1,-2,0,1
1576746151200953,0,1,-1,-4,-2,-1,0,-3
1576746151200953,-1,-2,-1,0,1,3,0,1
1576746151213009,2,-2,-2,0,0,2,-1,0
1576746151213009,-3,1,0,-3,0,-2,-2,-1
1576746151222884,3,-2,0,0,-4,-2,-1,-4
1576746151222884,-4,0,-1,-1,0,-1,-1,0
1576746151236945,-1,-2,-5,1,-1,0,0,-3
1576746151236945,1,-2,-1,0,0,1,1,0
1576746151238847,-4,-2,-1,-1,0,-1,0,0
1576746151238847,1,-1,-3,-1,0,-4,-3,1
1576746151259886,0,-2,0,0,0,-3,2,0
1576746151259886,1,-2,-5,-2,0,-2,0,3
1576746151261786,2,-1,1,-2,0,-1,-2,-2
1576746151261786,-4,-4,-3,3,-1,2,-3,1
1576746151281762,-3,-1,1,-4,-3,0,-1,-2
1576746151281762,-1,2,1,-1,1,-2,-3,-1
1576746151283728,0,1,-1,1,2,0,0,-1
1576746151283728,2,0,0,-3,-4,-2,2,-1
1576746151297684,-1,2,-2,1,1,-2,-1,-1
1576746151297684,-1,-2,-2,-3,-1,-3,0,-3
1576746151298689,-1,-3,2,-1,-1,2,-2,-3
1576746151298689,-4,0,-2,-1,0,0,-3,-3
1576746151319724,-3,0,-2,0,-2,1,-1,-1
1576746151319724,0,1,0,-1,-1,1,0,3
1576746151321661,-1,1,-2,-1,0,1,-4,-4
1576746151321661,2,2,-1,1,0,0,0,-6
1576746151342561,1,-3,-3,-2,-1,0,-4,-4
1576746151342561,-1,-2,-3,-2,1,3,0,1
1576746151343567,-1,-1,-3,-1,-2,-2,1,0
1576746151343567,0,1,0,0,-4,-2,2,0
1576746151357525,-3,-1,0,-2,0,-4,-2,-2
1576746151357525,1,-1,-1,-4,-1,-1,-2,-2
1576746151358522,-2,-3,-1,-2,-1,0,-2,2
1576746151358522,-1,0,0,-2,0,0,0,-2
1576746151379566,-2,2,0,1,-2,-1,-1,1
1576746151379566,-2,-1,2,1,0,-1,0,-1
1576746151381469,1,-2,-1,1,2,-4,0,4
1576746151381469,-4,-2,-3,-1,-4,0,-2,-2
1576746151402515,1,-3,-1,0,-3,-2,0,1
1576746151402515,-2,2,1,-2,-4,-1,0,-2
1576746151403410,-1,2,0,0,0,0,-2,0
1576746151403410,-2,0,-1,-1,-1,1,-1,0
1576746151416421,7,-1,-3,-1,1,1,-1,2
1576746151416421,0,-3,-1,0,-3,0,-3,-4
1576746151423447,0,-1,-2,3,-2,-2,2,2
1576746151423447,1,-1,-3,-1,-1,0,-2,-1
1576746151440309,-6,0,1,-1,0,-1,0,0
1576746151440309,-2,0,1,0,-1,-4,0,-1
1576746151441309,-1,1,0,-3,-1,-1,-1,-1
1576746151441309,-3,0,-2,2,-2,-1,-2,1
1576746151462340,1,-1,-1,-1,0,0,-1,-1
1576746151462340,-1,-1,-2,-3,0,0,0,0
1576746151464246,2,2,0,2,0,0,0,-4
1576746151464246,-4,-2,1,0,1,0,0,0
1576746151476306,3,-1,0,-1,-3,-2,2,-1
1576746151476306,0,-2,1,-1,1,0,0,-1
1576746151483289,-1,-2,-2,-2,-2,0,1,0
1576746151483289,1,-2,0,1,-1,-1,-2,0
1576746151500181,0,-3,0,-2,1,-1,-3,-3
1576746151500181,-1,-2,0,-1,-3,0,-2,1
1576746151501143,1,2,1,-1,-2,1,-1,1
1576746151501143,1,1,0,1,0,0,4,-3
1576746151522182,-1,-3,-2,-1,1,-1,0,-2
1576746151522182,0,-3,-1,-2,0,-1,1,1
1576746151524078,-3,0,0,1,-1,1,-4,-3
1576746151524078,2,3,-2,1,0,-1,0,3
1576746151537044,-1,0,-3,0,-4,0,0,3
1576746151537044,2,-1,-1,-1,2,-2,0,-4
1576746151543063,-2,-3,0,1,-3,-1,2,-3
1576746151543063,-2,-3,-1,0,0,-1,-3,-1
1576746151560087,-2,-1,0,0,0,0,-3,1
1576746151560087,-2,1,-1,-2,-2,-1,-1,-1
1576746151560988,2,-6,-2,-1,-1,-2,-4,-2
1576746151560988,1,0,-1,-1,-2,-2,1,-3
1576746151582026,-1,-1,1,1,-1,0,0,2
1576746151582026,-2,-2,-2,-4,1,2,-2,-4
1576746151583927,-3,-1,-2,1,0,-1,-4,0
1576746151583927,-3,0,-1,1,0,-2,-6,-1
1576746151596939,3,1,-1,2,-1,1,-2,-2
1576746151596939,0,-3,0,-1,-1,-1,1,2
1576746151603865,3,-1,0,1,-1,-1,-1,-3
1576746151603865,0,1,0,-1,-2,0,-1,-4
1576746151619921,-1,0,-2,-3,-1,-1,1,-1
1576746151619921,-1,3,0,-2,0,1,-4,-6
1576746151620856,0,0,-1,1,-1,-2,-1,1
1576746151620856,0,0,3,0,-1,-2,-1,-1
1576746151641799,-2,-2,1,-3,-1,-2,1,-3
1576746151641799,-2,-2,-1,0,-1,0,-3,5
1576746151643761,-2,-3,-2,-3,-2,-3,0,1
1576746151643761,-3,-2,-1,1,1,-3,1,-2
1576746151656821,-1,-2,-1,-1,-1,1,-1,2
1576746151656821,-2,-1,-1,0,2,-4,-2,0
1576746151663800,-2,1,0,-2,-1,-1,0,-1
1576746151663800,-1,-5,-1,2,-3,0,-2,-1
1576746151679758,-2,1,-2,2,0,0,-3,1
1576746151679758,-1,1,0,-1,-1,0,1,0
1576746151681710,0,1,-1,0,1,0,-2,-1
1576746151681710,1,0,-2,-2,1,-3,1,-1
1576746151702611,-7,0,-1,-1,0,-3,1,-1
1576746151702611,-3,0,-1,-1,0,2,-4,-1
1576746151703601,-2,2,-2,0,-1,2,0,0
1576746151703601,-3,1,-3,0,-2,0,-1,-3
1576746151716658,2,-4,-1,2,-1,-2,-1,1
1576746151716658,0,0,0,-2,1,-1,2,1
1576746151723642,-3,-3,-1,-3,-2,-2,-2,-6
1576746151723642,-2,-1,-1,-1,-3,0,2,-3
1576746151739603,2,1,-1,1,0,-5,-2,0
1576746151739603,-4,1,-2,1,-3,0,2,-3
1576746151741504,-2,0,0,-2,-1,-1,-1,-4
1576746151741504,-2,0,-2,-1,1,0,-1,1
1576746151762554,1,0,0,-2,0,-3,2,-2
1576746151762554,-1,2,-2,0,-2,2,0,2
1576746151763448,-1,1,1,-1,-2,2,-3,-1
1576746151763448,0,0,0,1,-2,-2,-2,3
1576746151776403,1,1,0,-1,-1,3,-2,-1
1576746151776403,1,-3,-3,-3,1,-3,1,-1
1576746151784442,-5,-1,-2,1,0,1,0,0
1576746151784442,2,1,-1,0,0,1,-1,0
1576746151799443,-1,0,-1,-6,-3,0,-2,-2
1576746151799443,1,-3,0,-3,-1,0,-1,-2
1576746151801384,3,-3,-1,-2,-1,-3,0,0
1576746151801384,-1,-1,1,-1,0,1,-2,-2
1576746151822285,0,-2,-2,-2,0,1,-1,-5
1576746151822285,2,1,0,-1,-1,-1,0,-1
1576746151824274,1,-1,-1,-2,0,-1,1,0
1576746151824274,-2,-3,-1,0,0,-1,-2,-4
1576746151836290,-1,0,1,0,-2,-2,0,-1
1576746151836290,2,-3,-1,0,-1,2,-1,0
1576746151845229,-1,0,-1,0,0,-2,-1,-3
1576746151845229,3,-3,-5,1,-3,-2,1,0
1576746151860179,-1,-2,-1,-1,-1,-2,-2,0
1576746151860179,-1,-3,-2,-1,-1,-2,-1,-3
1576746151861187,-4,1,3,-1,0,-1,1,0
1576746151861187,-3,-3,-2,-4,-1,2,-5,-7
1576746151882219,-3,-4,-3,-1,1,-1,-1,-1
1576746151882219,1,-2,0,-3,-1,1,-2,-3
1576746151884166,5,0,-3,2,-1,1,-3,-1
1576746151884166,-2,0,0,-2,-2,-2,-1,-2
1576746151905098,1,-2,-2,-1,0,0,4,-2
1576746151905098,-1,1,0,-1,0,-1,0,2
1576746151906056,-2,-2,-2,-2,0,-1,0,-3
1576746151906056,-1,2,1,0,0,1,-1,2
1576746151920022,-4,-1,-1,-2,0,-3,-3,1
1576746151920022,-1,1,1,0,-1,-3,-2,-3
1576746151921015,-3,-1,-2,3,0,-1,-2,1
1576746151921015,2,1,-2,-2,-3,1,1,1
1576746151941996,-2,0,-1,-1,0,3,1,-4
1576746151941996,-1,-1,0,0,0,-2,-1,1
1576746151943964,-2,0,0,-4,0,-3,-2,-1
1576746151943964,-2,2,-2,1,-2,-1,2,-3
1576746151956023,1,-1,-1,-1,-1,0,-1,3
1576746151956023,0,-1,-1,-4,0,1,-3,-1
1576746151964935,-3,0,-1,2,-1,-3,1,-1
1576746151964935,-1,2,0,0,-1,-2,0,0
1576746151979960,1,0,0,-1,-2,-1,-1,0
1576746151979960,0,-2,-1,-1,1,0,-1,-3
1576746151981861,3,-2,0,0,0,3,2,1
1576746151981861,-4,-2,1,0,-1,-4,-3,-1
1576746152002799,-3,2,-2,0,1,-1,0,0
1576746152002799,-2,2,-2,1,0,-3,-2,-3
1576746152003802,-2,0,-2,1,-3,-1,-3,-3
1576746152003802,0,-3,-1,1,1,0,-1,-1
1576746152015862,3,1,3,0,-1,2,-1,2
1576746152015862,-2,-2,0,-2,1,-1,-2,1
1576746152024740,1,1,-1,-1,-1,-2,0,-3
1576746152024740,1,-4,-3,-2,-2,-2,-4,0
1576746152039796,0,-2,-1,-3,-1,0,-4,-1
1576746152039796,-1,1,1,-2,0,-4,-2,-1
1576746152041701,-4,3,-2,-1,-1,-1,-1,3
1576746152041701,-4,0,0,3,0,1,0,-3
1576746152062672,1,-2,-1,-1,-1,-2,-2,-1
1576746152062672,-2,1,-2,1,-1,-2,2,0
1576746152063644,-1,1,-3,-3,-4,0,-3,-2
1576746152063644,-5,-2,-1,3,0,1,-2,1
1576746152075603,-4,-3,-1,-1,0,-3,-2,-1
1576746152075603,1,2,-1,2,0,-2,0,0
1576746152084578,-2,1,-2,0,0,1,2,0
1576746152084578,-3,-2,-2,-3,-2,0,1,-1
1576746152099635,-1,1,-1,0,-1,0,-3,-4
1576746152099635,-2,-5,0,-3,-1,-2,2,3
1576746152101549,2,0,0,0,0,-3,0,-1
1576746152101549,1,1,-2,-6,-4,-1,-1,0
1576746152122588,2,-2,0,2,-2,1,0,3
1576746152122588,-2,2,1,-1,-1,2,-2,-3
1576746152123478,-1,-1,1,1,0,0,1,3
1576746152123478,1,-2,-3,-1,0,-1,-3,-2
1576746152136442,5,0,2,-3,-1,2,-1,1
1576746152136442,4,-1,-3,-2,-2,1,0,2
1576746152144458,1,-1,-2,-1,-2,-1,-2,-3
1576746152144458,2,0,0,3,1,-2,-4,-3
1576746152159480,0,-3,0,-1,-1,-2,0,2
1576746152159480,-3,-2,-1,-1,-3,-3,0,-3
1576746152161384,-2,0,1,-1,0,0,0,-2
1576746152161384,-1,1,0,-1,-1,0,-4,-3
1576746152182420,-2,-4,-3,-1,-2,-2,-1,-3
1576746152182420,-1,0,1,-2,0,0,1,0
1576746152184313,1,-2,-2,0,0,1,-4,-1
1576746152184313,-2,2,2,-2,-4,0,1,-1
1576746152205257,2,0,0,-3,-2,-3,3,-3
1576746152205257,2,-1,-1,-4,0,-2,-1,-1
1576746152206261,-2,-1,0,-1,-2,-1,-1,-2
1576746152206261,1,-3,-1,2,0,-5,1,0
1576746152220225,3,-1,-2,-1,0,3,2,3
1576746152220225,1,-2,0,-2,0,1,0,-1
1576746152221221,3,-2,0,0,0,-1,-1,-2
1576746152221221,0,1,0,-4,0,0,0,-1
1576746152242160,-5,-3,-1,0,-1,-2,-1,3
1576746152242160,1,-3,-1,0,-1,-2,-1,-2
1576746152244158,5,-4,1,-1,-3,-1,-3,2
1576746152244158,1,1,-2,-2,-2,0,-1,-4
1576746152265139,-1,1,-4,-1,-1,-2,1,-1
1576746152265139,-2,-1,-2,-2,0,1,-1,1
1576746152266096,-5,0,-1,1,-1,0,-2,-2
1576746152266096,3,0,-1,2,2,-1,1,2
1576746152280114,-3,2,-2,-1,1,0,-2,-3
1576746152280114,-2,-2,-2,-1,0,-2,-2,0
1576746152281066,-1,1,-2,1,-4,0,1,-1
1576746152281066,-2,-1,-1,2,-1,-1,-2,3
1576746152302100,0,-1,1,-1,0,-3,-1,-3
1576746152302100,1,-1,-1,1,0,2,-1,0
1576746152303998,-3,0,1,0,0,-1,-1,-2
1576746152303998,-1,-1,0,-2,0,0,-1,-3
1576746152324939,-3,0,-1,-1,0,-1,-3,-2
1576746152324939,-1,-1,-1,-3,-3,-1,0,-3
1576746152325941,-2,0,-1,-2,2,-3,-1,-5
1576746152325941,-1,-1,-2,0,-1,2,-2,-1
1576746152340000,4,0,-2,-1,-1,0,2,2
1576746152340000,3,1,-1,0,-2,0,-4,-1
1576746152340901,-3,-3,-1,3,-1,1,-1,1
1576746152340901,-2,-1,-2,0,1,-2,1,0
1576746152361938,-7,-1,-1,-1,1,0,2,-5
1576746152361938,-2,3,1,2,0,-1,0,-1
1576746152363863,1,-2,-3,0,-1,-3,-4,0
1576746152363863,-3,0,-2,-2,-3,2,-1,1
1576746152384879,-2,0,-1,-1,-2,0,3,1
1576746152384879,-1,-7,0,-4,0,-1,-1,-1
1576746152386822,-1,-1,-1,1,1,1,0,-2
1576746152386822,-1,-1,-1,2,-1,-1,-2,-1
1576746152398839,7,-2,0,1,-2,-2,-4,-3
1576746152398839,-1,-3,0,-1,0,-3,-1,-2
1576746152405815,-1,-2,-2,0,0,-1,3,0
1576746152405815,-1,-1,-2,-1,-2,1,-1,-1
1576746152422691,-5,0,-2,0,0,1,-1,0
1576746152422691,-3,0,-2,-3,-1,1,-5,-3
1576746152423673,2,-2,-1,1,0,-1,-4,0
1576746152423673,0,-3,1,1,0,-3,1,0
1576746152444716,-3,-1,-1,0,-4,1,-3,-2
1576746152444716,-5,1,-2,-1,-1,-2,-1,2
1576746152446617,-3,1,-3,-6,-3,-2,-2,-3
1576746152446617,-1,-3,-1,-1,0,-1,0,-5
1576746152459577,1,0,-1,-1,0,0,-3,1
1576746152459577,-1,-2,0,1,0,-3,3,0
1576746152465595,1,1,1,-1,-1,0,2,-4
1576746152465595,-3,0,-1,1,0,0,-1,-1
1576746152482521,-3,-2,-1,-3,-1,0,-3,-1
1576746152482521,4,3,-1,-1,-1,-1,-1,0
1576746152483512,0,-1,-1,0,-2,0,-1,4
1576746152483512,-4,-2,0,4,-1,2,4,2
1576746152504559,-1,-2,0,-3,-3,-3,-1,-1
1576746152504559,-1,-1,-1,-1,-1,2,-5,0
1576746152506465,0,2,0,-1,-1,0,1,1
1576746152506465,-2,2,-2,-2,0,-1,-3,-4
1576746152519468,-3,-3,-2,1,1,0,2,2
1576746152519468,0,-3,2,-2,-2,1,0,-2
1576746152525444,2,-4,-2,0,0,0,2,-1
1576746152525444,0,2,2,-3,0,-1,-3,-2
1576746152542357,5,2,-1,1,1,-2,-3,0
1576746152542357,1,0,-3,1,-1,-4,2,-1
1576746152543361,-2,-3,0,0,-3,-2,-2,-4
1576746152543361,0,-2,-2,-2,-1,-1,2,-1
1576746152564395,-2,0,0,-2,-1,1,-3,-1
1576746152564395,-4,0,-1,-4,0,0,-2,-2
1576746152566293,-4,3,-2,2,-2,1,2,2
1576746152566293,0,-1,0,0,-2,-5,-2,1
1576746152579369,2,1,1,-5,-1,1,0,0
1576746152579369,-2,-2,-2,-2,-1,-2,-1,-1
1576746152586294,-1,0,-2,-2,0,-1,0,-5
1576746152586294,2,0,-1,0,0,1,-2,-1
1576746152602294,-1,0,-2,1,-1,1,2,-1
1576746152602294,0,-2,-2,-2,-1,4,0,-2
1576746152604205,-4,-1,-1,1,0,-1,-3,1
1576746152604205,-2,-1,-2,-2,-1,-2,-4,-4
1576746152625137,-1,-3,0,-2,-2,-3,-2,0
1576746152625137,-2,2,0,0,0,-1,-2,0
1576746152626137,-3,0,0,-2,-1,0,0,-3
1576746152626137,2,0,-1,1,-2,0,-1,-1
1576746152639195,1,0,0,-2,1,-2,5,0
1576746152639195,-1,0,-1,1,-3,1,-3,1
1576746152646187,1,0,0,0,-2,-2,1,4
1576746152646187,1,1,-1,1,1,0,-1,-2
1576746152662134,0,0,-2,0,0,-3,-2,-3
1576746152662134,0,-2,-1,2,0,-3,3,4
1576746152664033,3,1,-4,-1,0,1,-4,-2
1576746152664033,0,-3,1,0,-2,0,-2,1
1576746152685086,2,-3,0,-2,0,-1,0,1
1576746152685086,0,1,1,-1,-1,0,-2,0
1576746152685970,-1,0,-2,-1,0,-1,-3,0
1576746152685970,1,-2,-2,1,0,1,1,-2
1576746152698936,-3,0,-2,3,1,0,-1,2
1576746152698936,-1,-2,-1,-2,-1,-2,2,-4
1576746152706915,-1,0,-1,0,-1,-3,-1,-3
1576746152706915,-2,0,-1,0,-2,-3,-2,0
1576746152721878,-1,1,-1,-3,-2,0,-1,-3
1576746152721878,-2,1,-1,-2,-1,0,0,-2
1576746152723879,-1,-3,0,-1,0,-1,-1,-1
1576746152723879,-1,0,1,-3,1,-3,-1,-2
1576746152744914,-3,-2,-2,-4,-2,-1,-2,2
1576746152744914,-4,-2,0,-4,0,-1,-4,-1
1576746152746807,-1,-3,-1,1,-1,0,-2,-3
1576746152746807,-3,0,0,-1,-2,-1,1,2
1576746152758844,2,0,0,-1,-3,-1,-1,1
1576746152758844,-5,1,-2,1,0,-2,2,0
1576746152767789,2,-1,-1,-1,-3,1,-1,-3
1576746152767789,0,0,-1,0,-1,-2,0,1
1576746152782717,0,0,-1,-1,-1,-6,-2,1
1576746152782717,1,2,-3,0,0,-2,1,1
1576746152783719,-2,-1,-2,0,1,-2,-2,1
1576746152783719,3,-2,-2,0,-4,1,2,-4
1576746152804749,-7,-3,0,-3,-3,0,3,0
1576746152804749,0,0,0,-1,1,0,-3,0
1576746152806690,4,0,-1,-1,-1,-2,-1,-1
1576746152806690,-3,-3,-3,0,0,1,-4,-2
1576746152818651,-6,0,-3,0,1,0,-3,-2
1576746152818651,-2,-1,2,-2,-2,-1,-2,-4
1576746152827634,-5,0,-1,1,1,0,0,-3
1576746152827634,-5,2,-1,3,-1,0,1,2
1576746152842630,-6,-3,0,-1,0,-2,-1,-2
1576746152842630,1,-4,-1,-2,-2,0,-4,-1
1576746152843560,-6,2,2,1,-3,1,0,0
1576746152843560,4,-1,0,0,0,-1,-2,-3
1576746152864593,-3,0,-1,-2,1,3,-1,-3
1576746152864593,-3,1,-2,-1,0,2,0,-2
1576746152866496,-4,-1,1,-2,1,-2,0,-2
1576746152866496,1,1,-2,0,-4,-3,-2,0
1576746152878555,-2,-1,1,-1,-3,2,-3,1
1576746152878555,0,0,0,-1,-2,-3,4,-1
1576746152887472,1,-3,-1,0,1,-2,-2,-3
1576746152887472,-2,2,-1,-1,-1,-2,1,2
1576746152902429,7,-5,-1,-4,-1,4,-2,-4
1576746152902429,-3,-2,0,1,-1,-1,-3,0
1576746152903405,2,-1,-3,-2,-1,0,-3,1
1576746152903405,0,-2,1,0,0,-2,1,-5
1576746152924333,0,-1,-3,-1,1,-4,0,-1
1576746152924333,1,-1,-1,2,0,-3,-2,0
1576746152926335,0,-1,0,2,-1,-1,1,2
1576746152926335,0,-3,0,-5,1,-2,0,-1
1576746152938399,1,-2,1,1,2,0,1,5
1576746152938399,-3,-2,-1,-3,0,-1,-1,-4
1576746152947275,-4,-1,-2,0,-4,1,1,0
1576746152947275,-2,0,-2,2,-2,-1,0,2
1576746152962325,2,-1,0,-1,0,0,2,0
1576746152962325,2,0,1,-1,-2,-3,1,0
1576746152964235,3,-2,1,-1,-3,0,-2,0
1576746152964235,-2,-2,-3,-1,0,-1,-3,1
1576746152985209,0,-2,0,-1,-3,0,-2,-6
1576746152985209,1,1,-3,-1,0,1,0,-2
1576746152986180,-1,0,0,0,-2,-1,-4,-1
1576746152986180,-3,0,-1,-3,2,1,-1,-2
1576746152998235,-5,-1,-1,-1,-1,-1,-1,4
1576746152998235,-2,-1,1,-1,-3,-7,0,-3
1576746153007115,0,-1,-3,-1,3,-2,-3,-1
1576746153007115,1,-3,-1,1,1,1,0,-3
1576746153022173,0,0,1,0,-1,-2,1,5
1576746153022173,0,-1,-2,-1,-2,3,-1,1
1576746153024098,2,-1,-3,3,0,-2,0,0
1576746153024098,0,1,1,-2,-4,0,-2,-3
1576746153045088,2,0,1,0,0,-3,0,-2
1576746153045088,1,-1,0,2,-1,2,-3,4
1576746153046019,-2,-3,0,-2,-3,-1,0,0
1576746153046019,1,5,-2,0,-2,0,-1,2
1576746153058974,1,-2,-1,-1,-1,-1,-1,1
1576746153058974,2,-5,-2,-3,-1,3,1,-1
1576746153066991,-1,3,-1,1,0,-4,1,2
1576746153066991,0,-1,0,1,-1,-2,1,1
1576746153082016,0,-1,-2,-2,-1,0,-2,-1
1576746153082016,-2,2,-2,-2,-2,1,0,-2
1576746153083945,-2,-1,2,0,0,1,1,-1
1576746153083945,1,0,1,0,-1,-3,1,-3
1576746153104950,2,2,-4,-2,1,-1,-2,0
1576746153104950,-5,-2,1,1,1,-1,-2,-2
1576746153106845,-1,-1,-1,0,-1,-1,0,1
1576746153106845,1,0,1,0,1,-1,-3,-5
1576746153118853,-4,-3,-1,-3,-2,-2,-1,-6
1576746153118853,-5,-1,0,-1,0,-1,-1,0
1576746153127799,-4,-1,1,1,0,1,-1,-4
1576746153127799,-3,-3,-3,-2,-1,-1,1,0
1576746153142750,1,-1,-2,-2,-2,-1,0,2
1576746153142750,-2,-2,1,-2,1,-2,-1,-1
1576746153143756,0,1,-1,-1,-5,1,1,-3
1576746153143756,-1,0,-2,0,0,1,-3,0
1576746153164690,-2,-1,-1,-1,-1,0,1,-3
1576746153164690,-2,-1,-2,1,-1,-3,3,3
1576746153166739,3,-4,-1,-2,-2,1,-1,-2
1576746153166739,1,-1,-1,-1,1,-1,-1,-1
1576746153187668,3,-1,0,-2,2,-3,-4,-4
1576746153187668,2,-3,-2,1,-1,1,-1,-2
1576746153188631,-1,-1,-2,0,-1,-1,-3,-2
1576746153188631,-6,-1,-1,-1,-3,1,1,0
1576746153202632,-2,2,0,1,-1,0,-2,2
1576746153202632,-2,2,0,0,-2,-3,-1,-1
1576746153203588,-2,1,-4,3,2,0,0,1
1576746153203588,-2,-2,-2,0,0,1,0,0
1576746153224535,-3,1,-2,-1,-3,-1,-1,-1
1576746153224535,1,-3,-1,4,1,-1,-4,0
1576746153226525,-5,0,1,-2,-1,-3,1,0
1576746153226525,-2,1,-1,1,-1,-2,-3,2
1576746153247480,1,-2,1,-1,-1,0,-2,0
1576746153247480,3,-1,-2,-6,0,1,-1,-4
1576746153248485,-2,-3,-2,-1,-2,-1,-2,-5
1576746153248485,-1,0,1,-1,0,-2,-3,0
1576746153262531,-3,-4,1,-2,1,-1,0,-2
1576746153262531,-3,0,-2,-3,0,0,1,-1
1576746153263438,3,-1,0,1,0,0,-3,2
1576746153263438,0,0,-2,0,-2,-1,0,-3
1576746153284470,-1,0,1,-2,0,1,-1,-3
1576746153284470,0,-1,0,2,-4,0,-2,1
1576746153286372,1,-1,-1,1,-1,-1,2,0
1576746153286372,1,-1,-2,1,0,-4,1,0
1576746153307308,-1,0,-1,-2,-1,1,0,0
1576746153307308,0,1,-2,-2,-1,-2,0,2
1576746153308314,0,1,-2,-3,-3,1,0,-2
1576746153308314,0,-1,0,-1,0,0,1,-2
1576746153321375,0,-2,-2,-3,-1,-1,2,-1
1576746153321375,-2,-2,-1,0,-1,0,-3,-2
1576746153328353,0,-1,-1,-1,-2,-2,-5,0
1576746153328353,-5,-3,-2,0,0,0,0,-3
1576746153345207,-1,-2,-3,2,1,-4,3,-1
1576746153345207,-4,-1,-1,0,0,-1,-2,-1
1576746153346215,0,-1,0,-1,-1,-2,0,-4
1576746153346215,3,0,0,-1,-2,1,-1,0
1576746153367160,-5,-1,1,-2,-1,-1,-3,-2
1576746153367160,2,1,0,-1,-2,2,2,0
1576746153369195,-1,-1,-1,-1,0,0,-2,-2
1576746153369195,-2,-5,-1,1,-1,-1,-4,4
1576746153390088,4,-3,-1,-2,-1,1,0,-3
1576746153390088,-1,0,0,0,0,0,-1,2
1576746153391087,-5,1,0,0,1,-1,0,1
1576746153391087,1,-3,-1,0,-2,-2,-2,-1
1576746153405114,-2,1,-4,0,-2,0,0,1
1576746153405114,-1,-2,-1,-1,-2,0,-1,-2
1576746153406045,1,1,-2,0,-1,-1,2,-4
1576746153406045,-2,-1,1,-1,2,-1,-1,-1
1576746153427091,1,-1,1,-2,-2,0,2,2
1576746153427091,-1,2,2,-2,2,-3,-1,-4
1576746153429019,0,-1,0,-1,-1,-1,-1,2
1576746153429019,1,0,-3,-1,-3,-1,0,-2
1576746153442014,-1,-1,-1,-1,0,-2,-1,-4
1576746153442014,0,-3,1,1,-1,0,-1,0
1576746153448930,2,-1,-2,-1,-2,0,-2,0
1576746153448930,0,-1,-1,-2,1,-1,3,0
1576746153464991,2,-3,1,-4,1,0,-3,0
1576746153464991,-3,-2,-1,3,-2,-3,1,-1
1576746153466883,-3,1,0,1,-3,-1,-2,0
1576746153466883,-2,-1,-1,-3,-1,-2,-1,-4
1576746153486929,3,-1,-2,2,-2,0,0,3
1576746153486929,3,-1,-3,-3,-1,-2,0,-1
1576746153488832,-1,0,1,-2,1,0,0,-2
1576746153488832,3,1,1,-3,-1,-1,-2,-4
1576746153501892,-1,0,-1,-4,1,-2,-2,-1
1576746153501892,-3,-1,-1,1,-1,0,0,-3
1576746153508807,-3,-2,1,-1,-1,-1,-3,-4
1576746153508807,-1,0,-1,1,-1,0,-1,-2
1576746153524726,-4,-1,1,2,1,-3,2,3
1576746153524726,-1,3,-2,1,-2,-1,-4,1
1576746153526731,-1,-1,-5,3,0,0,2,2
1576746153526731,0,-2,1,0,-2,-1,-2,1
1576746153547677,0,-2,1,0,-1,-3,-3,1
1576746153547677,-1,0,1,-4,-2,1,-3,-2
1576746153548667,1,-1,0,1,-2,1,-4,0
1576746153548667,-3,-3,-2,2,-3,-3,-2,1
1576746153561731,-2,-3,-3,-3,-3,1,1,0
1576746153561731,-3,-1,-4,-2,2,-2,-2,-5
1576746153568713,-1,-1,-1,2,1,-1,-1,0
1576746153568713,-3,-2,-2,-2,-1,-2,-2,-2
1576746153584665,-1,0,-2,-2,-2,-1,-5,-1
1576746153584665,-1,-1,1,-1,-2,-1,-1,-7
1576746153586598,-1,-2,0,0,-1,-2,0,-4
1576746153586598,0,0,-1,0,-2,1,0,2
1576746153607506,-4,-1,-1,-2,0,7,0,-4
1576746153607506,0,-2,1,-3,-1,3,-2,0
1576746153608503,1,1,-1,3,2,-4,-2,2
1576746153608503,-3,0,0,-3,1,-2,2,-3
1576746153621571,1,0,2,-3,-3,-1,2,2
1576746153621571,-1,-4,0,-1,0,-1,3,1
1576746153628550,1,-2,-2,-2,-4,-1,0,-5
1576746153628550,0,-1,-1,0,-1,3,-4,1
1576746153644508,0,2,-4,-1,-1,-4,0,3
1576746153644508,-1,-1,0,2,-3,-1,-1,2
1576746153646455,-1,-2,0,-2,1,-2,0,-1
1576746153646455,0,1,0,1,-1,-2,1,2
1576746153667446,-1,-1,1,-1,0,1,0,-5
1576746153667446,5,0,-1,0,-1,1,0,-1
1576746153668398,0,-3,-1,-2,-4,-2,3,-2
1576746153668398,1,0,1,0,-2,0,0,1
1576746153681323,1,-2,-1,0,-1,-2,1,-2
1576746153681323,1,3,0,0,-1,-3,-3,-1
1576746153690287,-1,-1,-1,-1,-3,2,-4,-3
1576746153690287,2,0,0,0,-1,-2,0,-2
1576746153705245,1,-1,0,-1,-2,-2,-1,0
1576746153705245,-4,-2,-1,-4,-1,0,0,-3
1576746153706250,1,1,-1,1,-2,1,0,-1
1576746153706250,-1,-1,-1,2,1,1,2,-2
1576746153727286,-1,-5,-1,0,0,-2,2,-2
1576746153727286,-2,-3,0,0,1,-2,-1,2
1576746153729181,0,-1,1,-3,-2,-3,-1,4
1576746153729181,-1,1,1,-1,-2,-1,0,-1
1576746153741152,-2,-2,0,-2,0,-2,-2,1
1576746153741152,-3,3,0,0,-1,-2,0,2
1576746153750162,-2,-4,-3,1,-2,-1,-1,3
1576746153750162,3,-1,-2,0,1,-1,-2,-5
1576746153765143,3,-1,-1,-4,0,0,2,2
1576746153765143,-1,-2,-3,-2,-3,0,1,0
1576746153766095,2,-3,0,-1,1,-1,-2,1
1576746153766095,1,-2,1,-1,-2,-1,-3,-1
1576746153787126,-2,-2,2,0,0,-2,-3,-1
1576746153787126,0,-1,0,2,-2,-2,-2,0
1576746153789058,3,3,0,2,0,-1,0,-2
1576746153789058,1,0,-2,1,-1,-2,-1,3
1576746153801089,-1,0,1,-1,-1,1,0,-1
1576746153801089,0,-2,-1,-2,-1,0,2,1
1576746153810011,-1,2,-2,-1,-1,0,-1,-3
1576746153810011,2,-2,-2,-2,0,-2,-1,-2
1576746153824978,4,2,-3,0,1,0,-4,0
1576746153824978,1,0,-1,1,-1,-2,-2,-2
1576746153825930,-3,-4,0,4,0,2,0,1
1576746153825930,2,0,-1,-3,-4,-1,-1,-1
1576746153846918,-6,-2,-3,-2,-1,-1,0,-1
1576746153846918,0,-1,-1,1,0,3,-4,-1
1576746153848898,0,-1,-1,-1,-1,-4,0,-1
1576746153848898,-1,1,-1,0,1,2,-2,2
1576746153860831,-1,-3,0,-4,0,0,-3,-1
1576746153860831,2,0,-2,-2,-1,0,0,1
1576746153869812,-2,-2,0,-2,-2,0,-1,-4
1576746153869812,3,-4,0,0,-2,-2,1,-3
1576746153885764,0,2,-1,-1,-2,-1,-3,-1
1576746153885764,-2,-2,2,-1,0,1,2,0
1576746153886767,-1,-1,0,0,1,-1,-1,-1
1576746153886767,-2,0,-2,-1,0,-1,-1,0
1576746153907709,-2,-1,-3,1,0,-1,1,0
1576746153907709,1,-2,-2,2,-2,0,-4,-1
1576746153908705,-4,1,-1,-3,-3,0,-4,-3
1576746153908705,-1,-3,-1,0,0,0,0,-3
1576746153920764,-3,2,-1,-1,1,1,1,-1
1576746153920764,-3,-2,-1,-4,0,-2,-4,-1
1576746153929647,-4,4,-2,2,0,-2,-1,3
1576746153929647,0,-1,-2,-2,-3,-1,-2,0
1576746153944705,0,-2,-1,-1,-2,-3,0,-2
1576746153944705,-3,1,0,-1,-2,-3,-1,-1
1576746153946604,0,-2,-2,-1,-2,0,0,0
1576746153946604,-8,-1,-1,-3,1,-2,0,0
1576746153967593,0,1,-1,-2,-2,1,3,-2
1576746153967593,-2,-2,-1,-2,1,-7,-2,-1
1576746153968542,-1,0,-2,1,-1,-1,2,-4
1576746153968542,-2,-3,-1,0,0,-1,2,2
1576746153980518,0,0,-2,0,-3,-1,2,-2
1576746153980518,-3,2,0,1,-1,0,2,1
1576746153989525,-4,-4,0,2,0,2,-5,-1
1576746153989525,5,0,1,1,-1,-1,2,2
1576746154004548,-2,1,-1,0,-1,-2,-3,0
1576746154004548,3,2,1,0,-2,1,-3,1
1576746154006448,1,1,0,0,-1,-2,-1,-2
1576746154006448,0,-2,-1,-1,0,-1,-4,1
1576746154027423,-3,-1,0,-1,-1,-1,-3,0
1576746154027423,3,-2,-2,0,-2,0,0,-3
1576746154028391,4,-4,-2,-3,-2,-3,-2,1
1576746154028391,0,0,-3,1,0,-1,3,1
1576746154041345,0,-3,0,-2,1,-4,0,-1
1576746154041345,-2,-4,-2,-3,-1,-2,0,-1
1576746154050323,-1,-2,0,0,-1,-2,-2,-2
1576746154050323,-2,-5,-1,-3,-1,-3,1,-3
1576746154065282,1,-2,0,0,-1,-1,-4,2
1576746154065282,0,5,-1,0,1,3,-2,0
1576746154066287,2,-1,0,-1,-2,0,0,4
1576746154066287,-5,2,-1,-3,-4,0,-1,2
1576746154087262,-2,-4,-1,-1,-2,1,0,-1
1576746154087262,-1,1,-2,0,-1,-3,0,-3
1576746154089216,-2,2,-2,1,0,-2,0,-2
1576746154089216,-1,-1,0,-2,-1,2,-1,-5
1576746154110161,-2,-2,0,-2,0,0,-3,-1
1576746154110161,2,-1,-1,-1,-2,-2,-1,-1
1576746154111170,-4,-1,-1,-1,0,2,0,-4
1576746154111170,1,-6,1,0,-2,-1,-3,-1
1576746154125125,-2,1,-2,-3,-2,2,-2,-1
1576746154125125,-2,-4,-2,0,-3,-1,-1,0
1576746154126132,1,1,0,1,1,0,2,0
1576746154126132,1,2,-2,1,-1,1,-1,2
1576746154147113,-2,2,-1,1,-2,-1,1,2
1576746154147113,1,-1,0,1,2,-1,0,-2
1576746154149060,3,-2,-1,2,0,-2,0,-1
1576746154149060,-1,2,1,-2,-1,0,-1,1
1576746154170071,2,-3,0,-2,0,-1,3,0
1576746154170071,-6,-3,-3,-4,0,-2,-2,-1
1576746154170998,2,-2,-1,0,-3,-5,0,2
1576746154170998,-1,-1,-1,-2,-1,-1,2,1
1576746154185013,0,-1,1,-1,1,-1,-5,-4
1576746154185013,4,-2,1,3,2,-2,-3,2
1576746154185958,-3,-1,-1,-2,-2,2,0,-2
1576746154185958,-1,1,0,-3,-1,-3,1,-1
1576746154206902,1,-1,0,1,0,0,2,-1
1576746154206902,-5,-1,1,3,0,1,-3,-2
1576746154208899,1,1,-1,1,0,-2,0,-3
1576746154208899,2,-2,0,-1,-2,-3,-1,4
1576746154229841,-4,0,1,-1,-1,-4,-2,-3
1576746154229841,-1,0,0,-2,0,-1,1,-3
1576746154230879,-4,3,0,2,-1,1,0,-3
1576746154230879,2,-3,-1,0,1,0,2,-1
1576746154244907,3,0,-2,1,0,-3,-1,2
1576746154244907,-2,0,-1,1,1,0,-1,1
1576746154246798,0,3,-2,5,-2,-1,5,7
1576746154246798,0,-2,-2,-2,0,-2,-2,-1
1576746154266788,-4,1,1,-4,2,0,-2,-2
1576746154266788,-1,-1,0,1,-4,1,-2,-1
1576746154268741,-3,-1,-2,-2,-1,-2,-3,-4
1576746154268741,-3,0,-2,-1,-1,-1,-4,-2
1576746154289691,-2,-2,0,0,-1,2,2,3
1576746154289691,-1,0,-2,-3,-3,-1,4,-1
1576746154291679,-5,-4,-2,-2,-2,-1,-3,1
1576746154291679,2,-1,2,1,-1,-1,2,-3
1576746154303695,2,-2,-3,-2,0,-1,-3,-5
1576746154303695,-1,-1,-1,1,-1,-1,0,0
1576746154310681,0,0,2,-3,0,-2,0,-4
1576746154310681,-4,-2,-1,-2,1,0,-2,0
1576746154327614,-2,-2,-2,-1,-3,-1,1,2
1576746154327614,-1,2,-1,2,-2,1,-2,0
1576746154328578,-1,-2,0,3,0,-3,-2,-2
1576746154328578,-3,2,-3,-2,-2,1,1,-1
1576746154349621,-5,0,0,0,0,-2,1,-4
1576746154349621,-6,-1,1,1,-3,0,-1,0
1576746154351531,-4,-2,-1,0,0,-1,-3,-2
1576746154351531,-2,0,-1,-1,0,1,-2,1
1576746154364522,3,-1,0,-2,-2,0,-2,3
1576746154364522,-1,3,-2,-2,0,-2,2,0
1576746154370566,3,-2,-1,-2,-1,0,-3,-4
1576746154370566,0,-1,-2,-3,1,-1,-2,-5
1576746154387424,-1,-2,-2,-3,2,-2,-2,0
1576746154387424,1,-1,-3,-2,-1,-1,2,-4
1576746154388454,0,3,-1,-1,-1,-1,2,0
1576746154388454,1,-3,2,-3,-2,-3,-6,1
1576746154409461,3,1,-2,0,-3,-2,0,1
1576746154409461,1,0,-1,-1,0,-2,0,-3
1576746154411365,-1,-3,-3,-3,1,1,-2,-1
1576746154411365,0,-1,-1,0,-1,-2,3,3
1576746154424325,0,1,0,0,-3,-1,0,0
1576746154424325,1,-3,-3,2,-1,-3,0,-1
1576746154431342,2,-3,-1,1,-1,-2,-1,4
1576746154431342,-4,-2,-1,-1,-1,0,0,-1
1576746154447305,-2,-1,-1,-7,1,0,-4,-3
1576746154447305,2,-3,-1,0,-1,0,-1,-3
1576746154449292,-3,-4,-2,-3,0,-2,-2,-2
1576746154449292,3,1,-4,-1,-1,-1,-1,1
1576746154470199,-1,1,0,-2,-1,-2,-1,-2
1576746154470199,0,0,2,-2,-3,1,-5,-1
1576746154471204,-1,-2,1,0,-2,0,2,0
1576746154471204,2,-2,0,1,0,-3,0,-2
1576746154484262,0,-3,-2,-3,0,0,0,-5
1576746154484262,0,2,0,0,-1,0,-5,-1
1576746154491179,-1,-1,-1,3,0,-2,5,2
1576746154491179,2,-4,-1,0,-1,-1,0,-1
1576746154507101,-4,2,-2,0,2,1,-3,0
1576746154507101,0,-2,-2,1,-2,-1,0,-2
1576746154509103,0,-2,1,-2,-1,-2,-4,-2
1576746154509103,-1,-1,-1,0,0,1,0,1
1576746154530130,-2,1,-1,0,-2,-1,0,1
1576746154530130,-1,-2,0,-1,1,-1,1,0
1576746154531046,1,0,-2,-1,-3,-2,-2,-2
1576746154531046,0,-1,-1,0,1,1,0,-2
1576746154544106,-2,-6,1,-2,0,-1,0,-2
1576746154544106,-1,-1,-2,-2,-1,-4,0,-1
1576746154551028,-1,-2,1,0,-1,1,2,-2
1576746154551028,-1,-1,0,-2,-1,0,-3,-2
1576746154566985,-4,0,-3,1,-1,1,2,2
1576746154566985,0,3,0,0,0,-2,0,-5
1576746154568938,-1,-1,-1,-2,-2,-4,-1,-4
1576746154568938,1,-2,0,-3,-2,2,0,-1
1576746154589879,4,1,-2,0,-3,-2,-2,-2
1576746154589879,-4,-3,0,-2,0,0,-1,1
1576746154591880,1,2,1,1,0,0,-2,-1
1576746154591880,-2,-3,1,-1,-3,1,-1,-1
1576746154603873,0,-3,0,1,-2,1,3,2
1576746154603873,0,-2,-3,1,0,-1,-2,0
1576746154612828,-3,0,-1,-1,-1,5,-4,-6
1576746154612828,-2,-3,0,0,-2,0,1,-1
1576746154626883,-2,0,2,-1,1,-1,1,3
1576746154626883,-2,-2,0,-2,-1,-1,-2,-1
1576746154628778,-1,0,-2,2,-1,-1,2,3
1576746154628778,1,0,1,-1,0,-1,-1,-3
1576746154649814,-1,0,-1,-3,1,-1,-3,-3
1576746154649814,-1,-1,0,-2,-2,-3,-2,0
1576746154655800,0,-1,-2,1,-1,0,-1,0
1576746154655800,2,2,-1,1,0,0,-3,1
1576746154663788,-2,-3,-2,-1,0,-1,2,-3
1576746154663788,-5,3,0,-2,0,2,-6,-3
1576746154672696,-1,0,-3,0,-1,0,-4,-1
1576746154672696,-1,-2,-1,-2,-1,0,-1,-1
1576746154687667,1,-1,0,-2,-1,-4,-4,-4
1576746154687667,0,1,-2,2,-3,0,-1,-2
1576746154688615,-1,2,0,-2,-1,0,-1,-2
1576746154688615,-7,1,-1,-4,-2,-4,-2,1
1576746154709657,-2,-2,0,-1,-1,-2,-1,-2
1576746154709657,-4,-1,2,0,1,1,-2,-2
1576746154711561,1,2,-1,-1,0,-1,2,-3
1576746154711561,-3,-2,0,1,1,-3,-1,1
1576746154723522,-3,-1,0,0,1,1,-2,-3
1576746154723522,-4,-2,-2,-1,-1,-2,0,1
1576746154732540,-2,-3,-2,-1,-2,-3,0,-2
1576746154732540,-4,-1,-3,-2,-3,-2,-1,-1
1576746154747569,-1,3,0,-1,2,-1,-2,-1
1576746154747569,1,0,0,3,-1,-2,0,3
1576746154748464,-2,1,-1,-1,-1,1,-3,-2
1576746154748464,-1,-4,-1,-3,0,-2,-1,0
1576746154769500,-1,-3,1,-1,-3,1,-1,0
1576746154769500,-2,1,0,-2,-1,-2,0,-3
1576746154771402,2,-3,0,0,0,-4,-1,2
1576746154771402,4,1,-2,-4,-2,0,1,-2
1576746154783464,0,0,0,-4,0,0,-1,-1
1576746154783464,0,-5,0,2,-1,3,1,-3
1576746154792342,-1,-1,0,2,-2,-1,-1,0
1576746154792342,-5,-1,-2,3,0,-1,-2,2
1576746154807298,0,-4,-1,-1,0,-3,-2,3
1576746154807298,-3,0,-1,-2,-1,0,-1,-5
1576746154809301,4,-5,0,1,-1,1,-2,-2
1576746154809301,1,2,0,-3,2,-1,5,-1
1576746154830238,-6,2,-3,-1,-1,-2,1,0
1576746154830238,2,-3,0,2,-2,0,-2,-3
1576746154831240,-1,-1,-2,-1,-1,-3,-2,-1
1576746154831240,-2,-1,0,-2,1,-2,0,0
1576746154843238,-2,2,0,0,-1,1,1,0
1576746154843238,2,1,-1,-1,0,0,2,-1
1576746154852179,-4,2,-1,2,0,0,1,0
1576746154852179,1,-2,1,1,2,1,-4,-1
1576746154867237,-2,-1,-1,-2,-1,0,2,0
1576746154867237,-2,0,-3,1,-3,-3,0,-1
1576746154869137,0,-1,1,-1,-1,-2,0,0
1576746154869137,-1,-2,0,-1,-1,1,1,1
1576746154890077,0,-3,0,0,-2,-1,-4,-2
1576746154890077,-1,-2,1,-1,0,-1,-2,-1
1576746154891081,-1,-1,-3,-5,1,-2,0,-4
1576746154891081,-2,-3,-3,0,-3,-3,2,0
1576746154903144,1,-1,-1,-1,-1,-2,-2,-4
1576746154903144,-5,1,-2,-3,-2,0,-1,-2
1576746154912057,1,0,2,1,-2,0,-1,1
1576746154912057,-1,2,-2,3,-1,0,3,4
1576746154927080,3,-2,1,1,-1,-1,-2,-2
1576746154927080,1,2,0,3,-2,1,-1,2
1576746154928980,-7,0,-2,-1,-1,0,0,-2
1576746154928980,0,-2,-1,-2,-2,-2,-3,0
1576746154950016,0,-2,0,-4,-1,1,4,0
1576746154950016,-3,-1,-2,1,3,-2,-2,-3
1576746154950924,0,0,0,1,-1,-1,0,3
1576746154950924,1,1,2,-3,-1,-1,2,-1
1576746154963879,-2,0,-1,3,0,-2,-5,0
1576746154963879,0,-1,0,-1,0,-2,-1,-2
1576746154972871,4,-1,-2,1,0,-1,0,-2
1576746154972871,0,0,-1,-3,-1,-2,1,0
1576746154986918,2,0,-1,-2,-1,-1,0,1
1576746154986918,0,-1,2,-3,-1,-1,3,-6
1576746154988820,-6,-1,0,5,-2,0,2,1
1576746154988820,1,0,1,-2,-3,-3,-4,-5
1576746155009860,-1,1,-3,4,-1,-1,1,3
1576746155009860,2,-1,0,-1,-1,0,0,-3
1576746155011760,-1,0,1,-3,0,0,1,2
1576746155011760,-1,-1,-1,-3,0,-2,-6,-3
1576746155023719,-1,0,-1,3,-2,1,-2,-1
1576746155023719,0,-3,-2,0,1,0,-2,-2
1576746155032740,-2,-2,-2,0,-2,-5,-2,1
1576746155032740,-1,-2,0,-2,1,2,-1,-4
1576746155047694,-3,1,0,-4,-2,0,-5,-2
1576746155047694,-2,4,-3,1,-2,0,-1,3
1576746155048659,0,-1,-1,0,-1,-2,-3,1
1576746155048659,2,-4,-1,2,1,3,2,1
1576746155069696,0,-1,-1,-5,1,1,1,-1
1576746155069696,-5,0,-1,2,-1,-3,0,4
1576746155071596,5,-2,-1,0,-1,2,2,-3
1576746155071596,-3,2,-2,-1,0,0,1,2
1576746155092633,-1,-4,1,0,1,0,-4,-3
1576746155092633,-4,-2,-1,-2,-4,1,-1,-3
1576746155093544,-3,-2,-2,2,-2,1,-1,-2
1576746155093544,1,-1,0,-2,-2,-1,2,0
1576746155107499,0,-2,-2,-2,-1,-3,0,0
1576746155107499,-2,0,0,1,-2,-3,-3,1
1576746155108492,-2,-2,-3,-4,-1,0,-1,-1
1576746155108492,1,-3,-1,-1,0,-2,-5,0
1576746155129538,-4,1,-2,1,-1,-1,1,-2
1576746155129538,1,-2,-1,2,-2,0,-1,-4
1576746155131439,-2,0,-1,0,0,0,0,0
1576746155131439,-1,-2,0,-1,-1,-2,-1,3
1576746155152475,-3,-1,0,-3,-1,-1,-1,-1
1576746155152475,3,-1,-4,-1,1,1,0,-2
1576746155153418,1,1,-1,-1,-2,3,-3,-2
1576746155153418,1,-2,-2,-3,-1,-6,-4,-1
1576746155167372,3,2,3,4,0,0,0,0
1576746155167372,-3,-3,2,-3,-2,-2,-1,-2
1576746155168340,-2,-3,-1,-2,-1,-2,-2,-2
1576746155168340,2,-2,-2,-2,1,0,1,-2
1576746155189312,-2,1,-2,-3,-2,-2,0,1
1576746155189312,-2,3,-1,2,0,1,-2,-2
1576746155191279,0,-2,0,0,1,-1,0,1
1576746155191279,-2,1,1,-2,-2,-2,-2,1
1576746155212318,0,0,-2,-1,-2,-1,-2,-4
1576746155212318,3,1,1,-1,0,1,-1,2
1576746155214256,0,-2,-2,0,-3,-3,-2,-1
1576746155214256,-1,0,-3,-2,-3,4,1,-1
1576746155226214,0,-1,0,0,-1,-2,1,1
1576746155226214,4,-2,-1,1,-1,-2,2,-3
1576746155233261,3,2,0,0,0,1,0,-1
1576746155233261,1,-4,-1,-2,-1,-1,0,-1
1576746155250166,-2,0,-1,-2,-1,1,2,2
1576746155250166,-2,-2,0,-2,0,-4,-3,-3
1576746155251113,-3,-2,1,0,0,-2,0,-4
1576746155251113,-4,1,-3,0,-2,-1,-4,3
1576746155272159,1,-3,-2,-1,-2,3,1,-1
1576746155272159,-4,-4,0,-2,0,-1,-1,-1
1576746155274058,2,-2,-3,-3,-1,0,-2,-2
1576746155274058,-5,-1,1,-1,2,-2,-1,-2
1576746155287047,0,0,-1,-3,0,-3,-2,-6
1576746155287047,-1,-2,-3,2,0,-1,3,6
1576746155293035,0,2,0,1,-1,0,1,0
1576746155293035,0,-3,0,-1,-3,0,-2,2
1576746155310056,-1,2,-1,1,0,-1,-2,1
1576746155310056,0,0,-1,0,-2,1,-1,-1
1576746155312001,-2,-2,-1,-4,-1,-2,-1,-2
1576746155312001,4,1,-1,-2,3,-1,0,-2
1576746155331931,-2,-3,-1,-3,-3,0,1,-2
1576746155331931,-3,0,0,2,-1,-1,-2,-3
1576746155333898,0,-2,0,0,-3,1,-2,1
1576746155333898,-2,1,1,0,-1,-2,2,-4
1576746155346965,-1,0,-3,-1,-1,0,-2,-2
1576746155346965,2,2,-1,-2,0,-3,0,-5
1576746155353876,0,0,-1,2,3,-2,-1,3
1576746155353876,-4,-3,-2,-2,-1,-1,2,-2
1576746155369893,-2,-5,-2,-2,-2,0,-1,1
1576746155369893,-4,2,-2,0,0,-1,-1,-3
1576746155371809,-4,-1,0,-3,-2,2,-4,-3
1576746155371809,2,-2,-3,1,0,-2,-2,1
1576746155391737,-1,1,2,0,-1,0,-1,0
1576746155391737,1,0,-1,0,-2,0,1,-1
1576746155393735,1,-2,-3,0,-1,-4,-1,2
1576746155393735,-1,-1,-3,1,-2,2,-1,0
1576746155406695,-3,-2,2,0,-1,1,-3,-1
1576746155406695,-2,-2,0,0,1,-4,0,4
1576746155413757,0,-1,0,1,-1,-4,2,-4
1576746155413757,1,-1,-2,-3,1,1,0,3
1576746155429709,-3,0,-1,3,0,-3,-4,-1
1576746155429709,-3,0,-1,-1,-2,1,-2,2
1576746155431631,-4,3,-2,0,0,-2,1,0
1576746155431631,-3,1,0,-5,0,0,-3,-2
1576746155452663,-2,1,1,1,1,1,-1,-1
1576746155452663,-2,-1,-3,-2,0,-2,-1,-1
1576746155453570,-4,-2,0,-2,-2,-1,0,-5
1576746155453570,2,-1,0,-2,0,-2,0,-3
1576746155466630,-1,0,0,-3,0,0,1,0
1576746155466630,-2,-2,2,0,0,2,-3,-1
1576746155473518,1,4,-4,-1,-2,-2,-4,-3
1576746155473518,-3,2,1,-4,-1,0,1,-1
1576746155489479,-2,-3,-2,-1,-2,0,-3,-1
1576746155489479,0,-4,0,0,-1,-1,3,-1
1576746155491473,2,-2,0,0,-2,0,-1,1
1576746155491473,0,-3,0,-3,0,-2,-1,0
1576746155513420,0,1,-4,0,0,0,-6,-1
1576746155513420,0,0,-1,-3,-2,-4,-3,-1
1576746155514414,-4,-1,0,-1,1,1,0,3
1576746155514414,-1,-2,0,-2,-1,0,0,-2
1576746155526411,2,-3,0,-2,-1,-5,1,-3
1576746155526411,-2,-2,-1,1,-2,-3,1,-6
1576746155533459,2,0,-1,2,-1,-3,-1,4
1576746155533459,0,-1,-1,-2,-1,3,-2,-2
1576746155550312,-1,-1,-2,-3,0,-1,1,0
1576746155550312,0,-4,-2,1,-2,-1,-1,1
1576746155551316,-1,-1,1,0,0,0,0,-2
1576746155551316,-2,0,0,3,2,1,3,6
1576746155572353,1,2,-2,1,-2,-1,-2,-6
1576746155572353,0,1,-3,-1,0,0,-3,-1
1576746155574254,3,-2,-1,0,0,1,0,-2
1576746155574254,1,0,-2,-4,-1,-3,-3,-4
1576746155586304,-1,1,0,-2,2,-1,0,1
1576746155586304,-1,2,-1,-1,-2,3,-3,0
1576746155595200,-1,1,-1,-1,-2,-2,0,1
1576746155595200,2,-3,2,-4,-1,1,-1,-3
1576746155610191,-1,1,-3,-2,-2,-2,1,3
1576746155610191,0,-1,0,0,-1,-2,0,-1
1576746155611160,-2,0,-1,0,0,2,0,-3
1576746155611160,-1,0,-2,-2,-3,-1,-3,2
1576746155632194,-1,0,3,-1,1,-1,-1,0
1576746155632194,0,-2,-3,1,-1,-1,-3,-1
1576746155634091,0,-4,-1,-2,-4,0,-4,-2
1576746155634091,0,-2,-2,2,0,-5,3,0
1576746155646154,1,0,-1,1,-4,1,-2,-1
1576746155646154,-1,3,0,0,0,-3,1,0
1576746155655084,1,-1,-2,-5,0,-2,-2,-2
1576746155655084,2,-1,0,-2,2,1,-1,-6
1576746155670102,-2,0,-1,-2,0,-1,-1,0
1576746155670102,-1,1,1,3,-2,0,1,1
1576746155670988,0,-3,1,2,-1,2,2,1
1576746155670988,0,-2,-1,-4,1,-2,-2,-1
1576746155691985,-5,2,0,-1,-1,-3,-2,-3
1576746155691985,-2,-1,-1,-2,-1,-1,2,-3
1576746155693979,0,-6,-2,-4,0,0,-4,-6
1576746155693979,-1,-1,-1,0,-2,1,-1,0
1576746155706013,1,-2,2,0,0,-2,1,-1
1576746155706013,0,0,-3,-2,-3,1,-6,0
1576746155714877,-3,0,-1,2,-1,-3,3,1
1576746155714877,0,-3,0,-1,0,1,4,1
1576746155729931,0,0,-2,3,-3,2,1,6
1576746155729931,2,-3,0,-1,1,-2,-1,0
1576746155731833,1,-1,-1,-1,0,-2,0,-2
1576746155731833,1,0,-2,0,1,-2,-2,0
1576746155752770,-2,-2,-2,0,-1,2,1,-3
1576746155752770,0,-2,-2,1,0,-1,1,-1
1576746155753774,0,3,-1,2,-1,0,0,1
1576746155753774,-5,-2,-2,-1,-2,-1,1,4
1576746155765746,-2,-1,2,-2,1,-1,-5,-5
1576746155765746,-5,1,1,2,-1,-1,4,1
1576746155774723,-4,-1,-3,0,2,0,1,0
1576746155774723,-2,0,0,-2,0,-3,-3,2
1576746155789673,3,-3,-1,0,-3,-1,0,-1
1576746155789673,-1,-1,-1,0,-2,0,0,-1
1576746155791669,1,-1,1,0,0,-1,-1,0
1576746155791669,-2,1,-1,0,-2,-1,-2,-1
1576746155812649,-1,-1,-2,2,2,-3,-3,-2
1576746155812649,-2,1,0,0,-1,3,-2,-2
1576746155813608,-2,0,-4,-4,-2,0,-1,4
1576746155813608,-1,-1,0,-1,-1,1,0,-5
1576746155825612,-3,-1,2,-2,-3,0,-2,-2
1576746155825612,0,0,-1,1,-3,0,0,0
1576746155834590,-1,2,-1,-3,0,-1,-4,0
1576746155834590,-2,0,-1,-2,-1,-1,0,0
1576746155849521,-1,-2,-2,-2,-2,0,0,4
1576746155849521,-1,0,-1,0,0,1,0,-2
1576746155851515,0,-1,2,-1,-3,-2,-2,-3
1576746155851515,-3,0,-2,-1,0,-1,-3,3
1576746155872567,-5,0,-1,0,0,-1,3,-3
1576746155872567,-3,0,1,0,-1,0,-2,0
1576746155873449,-3,2,-1,-1,1,0,0,0
1576746155873449,-2,-4,-2,3,-2,0,0,4
1576746155886416,1,-2,-2,-1,-2,1,-2,-5
1576746155886416,-3,1,0,-1,-1,-3,-1,-1
1576746155894394,0,-5,2,1,-1,-1,2,-1
1576746155894394,1,-2,0,-5,-1,0,-2,-2
1576746155909451,1,0,-2,-2,3,-1,-1,0
1576746155909451,-1,-1,-2,1,-1,-3,-3,-1
1576746155911350,2,-2,0,0,-1,3,-1,-2
1576746155911350,6,-4,0,-2,0,-1,-2,-1
1576746155932391,-1,-2,-2,-1,-3,1,-1,-2
1576746155932391,0,0,-1,-2,0,-1,-5,-4
1576746155934298,-4,-1,-1,-1,-1,2,-2,1
1576746155934298,1,-1,0,-5,1,-4,-2,-5
1576746155946338,4,1,0,1,-3,-1,1,1
1576746155946338,0,0,0,0,-1,0,2,-1
1576746155955281,2,-1,1,-1,-2,-1,-1,-1
1576746155955281,-3,1,0,1,0,2,-1,-1
1576746155970215,-4,-2,-3,-3,0,-2,-3,2
1576746155970215,-1,2,0,0,1,0,-3,-2
1576746155971193,1,2,-2,1,-1,0,-1,1
1576746155971193,-1,-1,1,-1,0,-1,-2,2
1576746155992231,-1,-2,0,0,-1,-2,-2,0
1576746155992231,2,-3,1,-1,-1,0,0,-1
1576746155994132,2,-3,-3,-2,-1,-2,-2,1
1576746155994132,-1,0,-1,-5,-1,4,0,-3
1576746156015146,-2,0,-1,1,0,0,1,-2
1576746156015146,2,-4,-2,-2,-2,-3,0,-1
1576746156016066,0,-2,0,-1,-2,-3,-1,3
1576746156016066,0,2,2,-2,-2,0,0,1
1576746156030066,0,1,0,-2,-1,0,0,1
1576746156030066,0,-1,-3,0,-1,-1,-3,-3
1576746156031026,1,-2,0,0,0,0,1,-4
1576746156031026,3,-3,-2,2,1,-3,0,2
1576746156052072,-1,2,1,1,0,0,-3,-5
1576746156052072,0,1,-1,3,2,0,-2,0
1576746156053972,-1,-3,-2,-2,-3,0,-1,-3
1576746156053972,-3,-1,-2,-1,0,-2,-2,-4
1576746156075008,-2,-2,1,-1,-1,-3,-4,0
1576746156075008,2,-2,-1,-2,0,-2,2,2
1576746156075916,1,-1,1,-2,0,0,-6,-1
1576746156075916,0,0,-1,-2,-3,0,0,-2
1576746156089870,0,-3,-1,-2,-1,0,3,-1
1576746156089870,-2,-3,0,-1,-1,1,-4,-1
1576746156091872,-2,-1,0,1,1,-1,2,0
1576746156091872,-3,-2,1,-2,-1,-1,2,0
1576746156112808,-3,2,0,-1,0,-1,-2,0
1576746156112808,-3,-2,-1,-2,-2,-3,0,-3
1576746156113809,-1,-2,-2,-1,0,1,-1,1
1576746156113809,-2,-5,-2,-3,-3,-2,1,-1
1576746156134758,-3,1,-3,2,1,0,-1,-1
1576746156134758,-2,-1,0,2,-2,-1,3,0
1576746156136804,1,-2,-2,0,-2,-3,-3,-5
1576746156136804,3,-1,0,2,-1,-1,1,3
1576746156148808,-3,-3,-2,0,-2,-3,-1,0
1576746156148808,-1,1,0,0,-2,-2,-3,-1
1576746156155787,-1,0,-1,1,3,1,0,-2
1576746156155787,-3,-3,-1,-2,0,-1,-3,2
1576746156172653,1,0,0,-2,0,-2,-3,-3
1576746156172653,0,-2,-2,-1,1,-1,-3,-2
1576746156173645,-5,1,-2,0,-2,-1,0,0
1576746156173645,3,1,0,-4,0,1,1,-1
1576746156194688,-4,-2,-2,0,-1,-2,-3,-2
1576746156194688,-3,-2,-3,3,-3,1,1,4
1576746156196586,0,0,-2,-1,-3,-1,0,-2
1576746156196586,-5,-2,2,-2,2,0,-1,0
1576746156209549,3,-2,0,0,-1,0,-2,0
1576746156209549,1,-1,0,1,-2,-1,-5,-3
1576746156215627,-4,1,-2,0,1,-2,2,-2
1576746156215627,-2,0,-2,0,-3,-2,-2,-2
1576746156232601,-4,-3,-2,-2,1,2,0,1
1576746156232601,-1,0,-2,0,0,2,-3,-2
1576746156233484,0,1,0,-1,-1,0,-3,2
1576746156233484,1,1,-2,-1,-1,-3,1,-4
1576746156254530,-3,-2,0,0,-1,4,2,-3
1576746156254530,-1,-1,-4,-2,0,-4,-3,-5
1576746156256424,-1,0,-1,-2,-1,-2,-1,2
1576746156256424,3,-2,-1,-1,0,1,0,0
1576746156268490,4,2,-1,0,-3,-1,-5,2
1576746156268490,-3,1,1,-2,-1,1,0,-2
1576746156277371,1,-2,-1,1,-3,-1,-2,2
1576746156277371,-1,2,0,-3,0,2,0,-2
1576746156292426,-6,-3,0,-3,1,0,-1,-4
1576746156292426,0,-1,-1,-1,0,0,0,-1
1576746156294325,4,-2,0,2,0,2,1,-1
1576746156294325,1,-1,-1,-2,-2,-3,-4,1
1576746156315270,0,-1,0,-4,1,0,-2,-3
1576746156315270,0,-2,0,-3,0,1,0,-1
1576746156316271,-3,-2,-1,-1,0,-2,2,0
1576746156316271,0,-2,0,-2,-2,-1,1,-2
1576746156329331,-4,0,1,2,-3,-1,0,-3
1576746156329331,-1,-1,0,-1,2,-4,0,-2
1576746156336297,-1,-3,-3,-2,-1,-1,-1,-2
1576746156336297,-4,1,-2,0,0,3,-2,2
1576746156352267,-1,2,0,-1,0,-2,1,0
1576746156352267,-4,-5,-1,1,-1,1,1,0
1576746156354220,-2,0,0,-2,1,-2,-2,-3
1576746156354220,-1,-1,-1,-2,-1,-1,1,1
1576746156375187,0,1,-1,-2,-2,-2,-3,-3
1576746156375187,1,-2,0,0,-3,-1,-3,2
1576746156376113,-1,-5,-2,-3,-1,-1,-3,3
1576746156376113,-1,-3,-1,-1,0,1,-1,-4
1576746156389165,2,-1,0,-2,-1,-1,2,-1
1576746156389165,2,1,0,1,-3,-2,2,1
1576746156396150,-1,-3,-2,1,-1,0,1,-2
1576746156396150,3,-1,0,-1,-4,0,-2,6
1576746156412106,-2,-1,-1,2,1,0,-2,-2
1576746156412106,-2,-1,0,0,-2,3,-2,1
1576746156414004,-2,-1,0,0,0,1,2,4
1576746156414004,-3,-2,-1,-4,-1,-1,-2,-4
1576746156435047,-2,1,-1,-1,2,-1,-1,-3
1576746156435047,-4,0,-1,-1,-1,-2,0,-2
1576746156435948,0,2,-2,0,0,-2,-1,-2
1576746156435948,1,-1,0,-1,1,-2,-2,-2
1576746156449011,-1,-2,-2,1,-2,0,2,2
1576746156449011,-1,1,-2,-3,-1,-3,-4,-2
1576746156455912,2,-1,0,2,-2,-2,1,1
1576746156455912,-2,-4,-3,0,0,1,0,-3
1576746156471946,-2,0,-2,-2,-1,-2,-1,-1
1576746156471946,-2,-1,-2,1,-1,1,0,1
1576746156473842,2,-5,1,0,0,0,-3,1
1576746156473842,2,-2,0,-1,3,-1,-1,0
1576746156494885,2,-1,-1,1,-3,-1,-2,0
1576746156494885,-8,-1,1,1,-1,0,-1,-1
1576746156496787,1,1,-2,-5,-2,2,-2,-5
1576746156496787,-2,2,-1,2,2,-2,-2,2
1576746156508798,-4,-1,-1,-3,-1,-2,-1,-1
1576746156508798,0,2,-1,-1,-1,-2,-1,-3
1576746156517733,-4,-3,-3,-5,1,-1,0,-5
1576746156517733,0,-4,0,-1,-2,0,0,-1
1576746156532707,0,-2,-2,0,-1,-4,-1,-3
1576746156532707,0,-3,-2,3,-2,-2,1,1
1576746156533692,-2,1,3,-2,0,-1,2,-1
1576746156533692,-4,4,0,-1,-4,-1,1,-2
1576746156554727,-1,1,-3,-1,0,0,-1,-1
1576746156554727,-2,-2,2,-2,-2,-3,-2,0
1576746156556620,2,0,0,0,-1,-4,-1,2
1576746156556620,-4,-1,-1,-2,-1,-1,1,-2
1576746156568692,-5,-1,-2,0,-1,0,-1,-1
1576746156568692,0,-3,-1,-1,0,1,-3,-1
1576746156577618,1,-1,-5,0,0,-2,1,-2
1576746156577618,-2,3,0,-3,0,1,-1,2
1576746156592623,-2,2,-1,-2,-1,-2,-1,-4
1576746156592623,-2,2,-2,-1,0,0,0,-2
1576746156593531,-2,-1,1,2,-2,-2,-1,2
1576746156593531,-1,1,-1,-4,-2,0,-2,-3
1576746156614565,-1,1,-1,0,-1,0,0,0
1576746156614565,1,2,2,-1,0,1,0,-5
1576746156616468,-2,-2,0,1,-3,1,1,3
1576746156616468,1,-2,1,0,0,-4,2,-3
1576746156628528,-4,1,1,2,0,0,1,2
1576746156628528,2,-1,-3,0,-1,0,1,-2
1576746156637410,-2,0,0,-1,1,0,-5,-1
1576746156637410,-3,0,-3,0,-1,0,-4,2
1576746156652464,0,-2,0,2,-1,1,0,0
1576746156652464,-1,0,-2,-1,1,-2,4,-2
1576746156654359,1,0,-1,-2,1,-2,0,1
1576746156654359,0,-2,-1,0,0,-1,-2,-3
1576746156674360,2,2,1,-1,0,-6,-2,-2
1576746156674360,2,1,-1,-1,-3,0,-2,-2
1576746156676309,0,-1,1,1,-2,2,1,-1
1576746156676309,1,-2,-2,0,0,1,-3,3
1576746156688371,0,-4,-2,-1,-1,1,-3,-3
1576746156688371,4,-4,-3,-1,1,-2,0,2
1576746156697246,-1,2,-1,-5,-4,-3,0,-2
1576746156697246,-2,-3,0,-1,0,1,-1,1
1576746156712308,-1,-5,-2,0,-3,0,1,0
1576746156712308,-1,-1,-1,3,1,1,-1,1
1576746156714207,1,-2,0,-5,1,-1,0,-2
1576746156714207,1,-2,-1,-1,-2,-3,-2,0
1576746156735182,-1,1,1,-1,-3,-1,-2,-1
1576746156735182,-3,0,2,1,0,-2,1,2
1576746156736145,-1,-2,1,2,0,0,0,-2
1576746156736145,-3,-2,-2,-3,1,1,-1,-3
1576746156748207,-3,0,-3,3,-3,0,1,5
1576746156748207,1,-1,-2,1,-2,-2,-2,0
1576746156757083,-1,-3,-2,-1,0,-5,-1,-3
1576746156757083,-4,-1,-3,-3,-1,1,2,-1
1576746156772140,-2,0,0,0,-1,-2,1,-3
1576746156772140,-2,1,0,2,-3,0,-3,2
1576746156774044,2,-2,-2,-4,3,3,-1,-1
1576746156774044,0,-1,2,-1,-1,-2,-1,5
1576746156795093,0,-1,0,-1,1,3,-2,-1
1576746156795093,-3,0,-2,1,-2,-2,-1,-3
1576746156795983,0,1,-2,-2,-1,-2,-1,-1
1576746156795983,0,0,-1,-4,0,-3,0,-2
1576746156808001,0,0,1,-1,-1,-1,1,-5
1576746156808001,-3,-1,-1,-3,1,-3,-2,-3
1576746156816958,0,-1,-3,-1,-1,0,0,1
1576746156816958,-1,-3,-1,-3,1,0,1,-3
1576746156831987,3,1,-1,-3,0,-1,-2,-3
1576746156831987,0,-2,0,0,-4,1,-3,-1
1576746156833886,-2,-2,-1,-1,0,-1,-1,1
1576746156833886,1,-1,1,0,-1,-1,-1,-4
1576746156854925,-2,-1,-2,-1,-2,-4,-10,-1
1576746156854925,-1,-1,-3,1,-1,-1,3,-5
1576746156856818,3,1,1,-1,-2,2,-1,-1
1576746156856818,0,0,-1,-1,-2,0,-1,-3
1576746156877761,-1,1,0,0,0,-2,3,-1
1576746156877761,3,0,-3,-1,-1,1,-3,0
1576746156878769,-1,0,1,-1,-1,-1,-1,0
1576746156878769,1,0,-1,1,-1,1,-1,-2
1576746156892722,-3,1,1,0,-1,0,-1,-2
1576746156892722,-1,1,0,1,-2,-3,-1,-1
1576746156893724,1,0,-1,-1,1,0,3,-3
1576746156893724,0,-1,-1,-2,-2,-1,0,1
1576746156914761,1,0,-1,2,-2,-2,-4,0
1576746156914761,-5,-1,0,-2,2,0,0,-1
1576746156916661,-2,-2,0,-2,0,0,-4,3
1576746156916661,3,0,-1,2,-2,-3,-2,1
1576746156928725,-2,1,-3,-2,-2,-2,4,-3
1576746156928725,-2,2,-2,0,0,0,1,-2
1576746156937638,1,0,-2,-1,0,-2,2,-1
1576746156937638,-3,-2,-2,-3,-1,1,-6,-5
1576746156952629,-3,-4,-2,0,-2,0,-3,0
1576746156952629,0,-2,-3,0,-1,-1,-2,-1
1576746156953560,-2,-3,-1,-1,-1,-3,-1,0
1576746156953560,2,2,0,-1,-1,-1,1,0
1576746156974502,-3,-2,-4,1,2,-1,1,0
1576746156974502,-4,2,1,-1,0,-2,-1,-3
1576746156976506,-4,-4,-2,-1,-3,1,0,0
1576746156976506,-2,0,-1,-1,0,-2,-3,-2
1576746156997541,-2,0,-1,2,-3,0,-2,2
1576746156997541,4,1,-1,-4,1,-1,3,-4
1576746156998451,1,-2,-2,1,-1,-1,-1,2
1576746156998451,-4,-1,-1,-2,-1,-2,0,-4
1576746157012504,-3,-3,-1,-4,-1,3,1,-3
1576746157012504,0,1,-1,0,-1,-1,-4,-2
1576746157013408,3,0,-1,-3,-1,0,1,-1
1576746157013408,3,-2,-3,-2,2,-3,0,0
1576746157035342,-1,0,0,-1,-1,-1,-3,-2
1576746157035342,-1,-2,-1,2,-2,2,0,0
1576746157036345,-1,-2,-2,-2,0,-1,-1,-7
1576746157036345,1,-4,0,-2,2,-1,2,-3
1576746157057333,-2,0,-2,-3,-3,0,-4,-2
1576746157057333,3,-2,-1,6,0,0,1,5
1576746157059283,2,2,0,-1,-2,-1,0,0
1576746157059283,-5,2,-2,1,0,2,0,3
1576746157072334,5,-1,0,1,1,0,0,-1
1576746157072334,0,-3,-1,-3,0,-2,-2,-3
1576746157074242,-1,0,1,0,0,-2,-2,3
1576746157074242,0,-2,-1,0,-1,-4,3,3
1576746157095219,1,0,-2,1,0,0,1,-1
1576746157095219,-3,-1,-2,-1,0,0,0,-1
1576746157096192,0,-1,1,-1,0,1,1,-1
1576746157096192,0,1,-1,-1,-3,-2,-4,2
1576746157117221,-2,-1,-1,-2,0,0,-3,0
1576746157117221,3,-1,-2,1,-2,-2,-1,1
1576746157119168,2,-2,0,-3,-1,1,0,-4
1576746157119168,-2,1,-1,-1,0,-1,-1,-2
1576746157132092,-1,-1,-1,-1,-1,0,-2,-1
1576746157132092,0,0,0,-2,-3,-2,-1,1
1576746157138167,-1,-2,-1,0,-1,0,0,1
1576746157138167,0,0,0,-1,-1,1,-2,0
1576746157155131,1,-3,-1,2,-2,-2,2,-2
1576746157155131,-2,-1,-2,1,2,0,-4,0
1576746157156020,3,0,-3,-2,-3,-3,-2,1
1576746157156020,-1,-2,-1,-1,1,-1,-3,-1
1576746157176965,-2,-1,1,0,-2,-1,-1,-1
1576746157176965,-4,-3,-1,0,0,-1,0,-2
1576746157178960,-3,1,-1,-2,-1,-1,1,-3
1576746157178960,1,-2,-3,-3,0,-2,-2,-2
1576746157191923,2,0,-1,0,-1,-1,0,0
1576746157191923,-2,0,1,-2,-1,0,0,-2
1576746157198901,-2,0,-1,-1,1,-2,-4,0
1576746157198901,-1,-1,-2,-2,-1,-2,-1,-1
1576746157214932,0,4,-2,2,1,0,-2,1
1576746157214932,1,-1,-1,0,-5,-1,-1,0
1576746157215891,1,-2,-2,-2,-1,-4,-2,0
1576746157215891,3,0,0,-1,0,1,-2,-1
1576746157236864,-3,2,-2,3,-1,-1,1,0
1576746157236864,0,-1,0,-2,0,0,0,-3
1576746157238797,0,-5,-1,-1,-1,0,-1,-1
1576746157238797,-1,-1,0,-2,-3,2,-3,1
1576746157251863,0,-3,0,-3,-1,-3,-4,-6
1576746157251863,1,1,1,-1,-1,0,0,-5
1576746157258794,-2,1,-1,-1,-4,-2,2,2
1576746157258794,-1,1,1,2,-2,-1,1,1
1576746157274741,-4,-2,0,-1,1,-2,0,0
1576746157274741,-2,-2,-1,0,-1,-2,-1,1
1576746157276700,-1,-2,-1,-4,-2,0,0,1
1576746157276700,-2,-1,0,-4,-1,-2,-1,-3
1576746157297678,1,-2,0,-1,-1,0,-2,-5
1576746157297678,2,2,1,4,-1,1,0,1
1576746157298648,-2,0,-3,0,2,-1,0,-3
1576746157298648,-2,-4,-1,1,-1,0,0,-3
1576746157311701,-1,-1,2,0,1,-1,0,-2
1576746157311701,-1,-2,-3,0,-1,-3,-1,-3
1576746157318615,-1,0,-1,0,0,0,2,-1
1576746157318615,0,-3,-3,-1,-1,-1,0,1
1576746157334549,-1,2,1,2,-2,-2,-1,-1
1576746157334549,-5,0,1,1,-2,-2,-1,1
1576746157336570,-2,3,-3,1,1,0,-1,-1
1576746157336570,-3,0,-1,-2,-3,-3,-2,-5
1576746157357552,-5,0,-1,1,-1,0,2,0
1576746157357552,1,1,0,-3,0,-2,-2,-4
1576746157358475,-1,0,0,-4,-2,-1,-1,-2
1576746157358475,-5,0,-1,0,-2,1,0,0
1576746157371543,4,-2,0,-1,-3,-2,-1,-1
1576746157371543,-4,0,-3,1,0,0,0,3
1576746157378523,-1,-4,0,0,0,0,-1,-5
1576746157378523,3,2,0,-3,1,-3,0,-2
1576746157394481,0,-1,0,-1,-3,0,-3,-3
1576746157394481,-4,0,-2,-1,-1,0,0,-1
1576746157396384,3,-2,-2,-1,-1,-1,-2,3
1576746157396384,-1,-1,-1,-3,1,-1,-2,0
1576746157417418,-2,-3,-3,-3,-2,-2,1,1
1576746157417418,1,-3,0,-2,-2,2,-2,0
1576746157419312,3,3,-1,-3,-2,-2,0,4
1576746157419312,-1,-3,-1,3,-1,4,0,2
1576746157431380,-2,1,2,0,0,-2,-5,1
1576746157431380,1,-2,0,0,0,-2,0,0
1576746157438366,1,-3,-1,0,-1,0,-3,-1
1576746157438366,-3,1,-1,-1,-1,-1,1,-2
1576746157455256,-4,-2,-3,-2,-1,-1,1,0
1576746157455256,1,0,-1,-3,-2,0,-1,-4
1576746157456217,1,-4,-2,-1,0,-2,1,-2
1576746157456217,-1,2,1,-4,-1,-2,-4,-2
1576746157477258,-3,-1,-1,2,0,2,-1,-2
1576746157477258,1,-1,0,-1,-2,0,-2,-2
1576746157479162,-2,-2,-2,-4,0,1,-1,-2
1576746157479162,1,-1,-2,0,0,0,1,-4
1576746157491125,-2,0,-4,-1,-2,-4,0,-1
1576746157491125,-2,0,-2,-1,0,-1,2,1
1576746157500099,-2,-3,1,-2,-1,-1,3,1
1576746157500099,-3,-2,-1,-4,0,-2,-1,-3
1576746157515069,2,1,0,-1,-2,1,-1,-1
1576746157515069,0,-2,0,3,-1,0,-3,-3
1576746157516053,-4,1,0,-3,1,2,-2,-3
1576746157516053,0,-4,-3,-2,0,-4,-1,2
1576746157537098,0,1,0,0,1,0,-1,-1
1576746157537098,-1,-1,-2,1,0,-1,-1,6
1576746157539001,2,-1,2,0,-4,-1,-2,4
1576746157539001,0,-1,-1,-1,-1,0,-2,1
1576746157551060,-2,1,0,1,1,-3,-2,-3
1576746157551060,-2,-3,-2,-2,0,0,-2,-1
1576746157559991,-1,-2,-1,0,0,-4,3,-3
1576746157559991,1,-1,-1,0,0,-2,0,-3
1576746157574997,1,-3,-2,0,-2,-1,0,-1
1576746157574997,-2,1,-2,-1,-2,3,-1,0
1576746157575905,0,1,0,-2,-3,0,0,2
1576746157575905,-2,3,-1,1,-1,0,-2,-1
1576746157597837,-3,-4,-4,-1,-1,0,1,-4
1576746157597837,2,-3,-1,-1,-1,-3,1,-3
1576746157598841,0,-3,0,-3,1,2,-2,-3
1576746157598841,2,0,1,3,-3,-1,1,2
1576746157610903,-1,-1,2,0,0,0,0,0
1576746157610903,2,-2,-1,-1,-2,-2,-1,-2
1576746157619779,-2,1,-1,-3,-1,-3,-1,-3
1576746157619779,-1,-1,-1,-1,0,3,-4,-5
1576746157634840,-2,-3,-2,-2,-2,-1,-1,2
1576746157634840,-5,-4,-1,1,-2,-2,1,-3
1576746157636782,1,-2,0,1,-2,-2,0,3
1576746157636782,-2,-2,-1,-1,-1,0,-3,-1
1576746157657675,0,1,-3,0,0,0,-3,0
1576746157657675,-1,2,0,0,-1,1,-1,-3
1576746157658680,0,1,-1,2,0,-1,-1,1
1576746157658680,-4,-1,-1,-1,-2,-1,0,3
1576746157670741,-2,1,0,-3,-2,-1,-1,0
1576746157670741,3,0,-1,-2,-1,-2,1,0
1576746157679618,2,-1,0,0,0,0,-2,0
1576746157679618,0,0,-1,-2,-1,1,-1,-2
1576746157694678,0,-1,-1,0,0,0,1,-4
1576746157694678,-1,-2,0,1,0,0,-1,0
1576746157696580,1,-4,-3,-3,1,-3,-1,0
1576746157696580,-2,3,-1,2,-1,1,-2,-2
1576746157717620,-3,1,-3,2,0,-2,0,0
1576746157717620,-6,0,-1,-2,-3,-2,1,-2
1576746157718516,-1,-2,0,0,-2,1,1,-1
1576746157718516,-3,-1,2,0,-1,-2,-3,3
1576746157731480,-4,3,-1,2,-2,1,0,-4
1576746157731480,2,1,-2,1,0,-2,-2,1
1576746157739459,-1,-3,-1,-5,-2,-1,-3,-2
