timestamp,emg1,emg2,emg3,emg4,emg5,emg6,emg7,emg8
1527842219159258,-4,11,5,6,16,-2,1,-3
1527842219159258,11,-17,-1,7,8,10,7,-15
1527842219160255,-30,-14,-11,-3,-6,-1,2,15
1527842219160255,2,-2,-5,1,2,12,5,-4
1527842219182196,12,21,7,0,-1,-8,0,-2
1527842219182196,-11,-27,-14,-15,-11,-3,19,-1
1527842219183194,8,6,1,0,3,-22,-20,19
1527842219183194,-2,6,2,1,-4,14,1,-4
1527842219196165,51,15,10,15,15,10,13,10
1527842219196165,-51,-26,-10,-18,-18,-25,-13,4
1527842219204137,-10,-3,-4,-2,-6,11,-7,-39
1527842219204137,1,2,4,3,2,-2,1,0
1527842219220094,2,7,0,-5,5,24,16,-1
1527842219220094,19,-13,-3,2,1,13,2,10
1527842219220094,-34,-5,-8,-18,-25,-46,-34,-18
1527842219220094,23,2,2,11,4,-4,-5,-3
1527842219242036,-43,-14,-6,-7,-5,2,1,-17
1527842219242036,42,12,2,0,0,6,-11,13
1527842219243033,3,3,3,16,22,8,15,-20
1527842219243033,-32,-8,2,4,-4,-13,-40,-3
1527842219264974,4,10,1,-2,5,-22,13,5
1527842219264974,-22,-8,-6,-5,-10,4,-2,-5
1527842219265972,30,3,0,-3,-4,0,10,16
1527842219265972,-14,-4,-4,-5,-12,-2,-2,-25
1527842219279942,-8,4,2,3,13,16,-2,6
1527842219279942,4,-7,-3,0,4,-14,-5,0
1527842219279942,10,13,1,2,-4,3,-1,-18
1527842219279942,-19,-13,-10,-17,0,7,17,3
1527842219301876,-8,-4,3,13,2,-12,-33,4
1527842219301876,21,3,1,3,3,6,9,3
1527842219302874,-5,-2,0,5,2,0,0,6
1527842219302874,9,0,-4,-9,-2,1,1,2
1527842219324815,3,2,0,-2,-6,-7,1,-4
1527842219324815,5,0,0,3,7,12,1,11
1527842219325812,-7,-7,-2,-2,-7,3,-3,-4
1527842219325812,-3,-3,-3,-2,0,-9,1,-3
1527842219339775,8,10,4,1,-2,4,1,18
1527842219339775,-3,-5,-4,-1,-1,-2,-6,-11
1527842219340772,-12,-1,-3,-3,-4,2,5,7
1527842219340772,9,-4,-6,1,4,-5,1,-9
1527842219362718,3,5,3,-3,-3,1,-1,0
1527842219362718,-11,-4,-1,2,2,4,5,5
1527842219362718,-2,-15,-8,-5,-4,-2,-1,-12
1527842219362718,14,22,16,10,12,1,5,22
1527842219385652,7,-12,-5,-8,-8,5,3,-9
1527842219385652,-6,-2,-2,-4,-2,-5,-2,4
1527842219386650,-24,-8,-1,0,0,-2,-4,-3
1527842219386650,15,-7,-5,-5,-6,-7,-5,-3
1527842219399614,19,9,0,-1,-9,-5,-6,4
1527842219399614,-62,-54,-17,-3,5,0,0,-14
1527842219400612,24,38,7,-3,-13,-8,-5,7
1527842219400612,19,-43,-8,6,23,22,9,-9
1527842219422553,-9,11,2,0,17,22,12,11
1527842219422553,-27,10,2,-8,-41,-39,-27,-28
1527842219422553,5,-40,-15,11,17,-1,-6,-1
1527842219422553,53,92,65,17,23,32,36,55
1527842219444495,6,-58,-24,-25,-21,-13,-8,0
1527842219444495,-25,-4,-4,-1,5,1,0,-10
1527842219445492,32,-4,6,4,7,15,5,9
1527842219445492,-36,1,-16,1,-20,-41,-19,-14
1527842219459455,-5,16,4,7,11,29,1,-9
1527842219459455,-8,10,4,-2,-10,-11,-1,4
1527842219460452,-5,0,-5,-5,-10,-15,-2,-4
1527842219460452,42,3,-7,0,13,11,8,12
1527842219482393,-14,-5,0,-4,-7,-10,-2,-5
1527842219482393,17,-15,-9,-3,-2,-5,-2,-2
1527842219483391,-30,4,7,10,16,17,8,-9
1527842219483391,-15,-38,-21,-13,-13,-10,-7,11
1527842219504334,-1,25,8,3,1,2,3,-27
1527842219504334,27,23,8,0,2,7,2,10
1527842219505332,-9,-6,-3,-8,-11,-28,-11,-1
1527842219505332,2,0,3,12,7,32,6,-7
1527842219519295,-14,-7,-4,0,1,-5,-2,2
1527842219519295,23,3,4,19,19,-7,-10,11
1527842219520292,2,10,-2,-18,-25,-5,-5,5
1527842219520292,-20,-16,-9,-6,4,-35,-13,-26
1527842219542233,-15,-5,-2,0,-8,10,2,-4
1527842219542233,34,5,2,1,20,5,7,-1
1527842219543231,5,4,0,-12,-12,-3,4,13
1527842219543231,-36,-15,-6,-8,-12,-2,-9,-3
1527842219565172,16,-1,8,19,11,-5,-3,-11
1527842219565172,-3,11,1,-5,0,1,2,12
1527842219566170,11,3,3,6,0,-2,11,3
1527842219566170,-22,-3,-8,-19,-5,3,-4,-12
1527842219579135,28,5,10,18,4,-11,3,21
1527842219579135,-3,-9,-9,-16,-22,17,13,-1
1527842219580132,-15,9,4,4,5,-16,-12,12
1527842219580132,9,-5,-3,-4,3,-2,15,-17
1527842219602073,-9,-8,-3,-9,-18,5,-3,1
1527842219602073,22,12,5,12,21,13,-2,12
1527842219603071,7,-10,-2,3,1,9,12,-13
1527842219603071,-10,-1,-4,-3,-8,-14,-12,-2
1527842219625012,-18,-3,-5,-9,-2,28,11,6
1527842219625012,29,-4,-1,7,3,3,13,-6
1527842219626010,-17,2,-5,-14,-17,-1,-13,-3
1527842219626010,10,4,-1,4,-4,-15,-7,3
1527842219639972,-14,-1,0,5,7,-4,-4,-2
1527842219639972,-21,-6,0,-2,-2,-1,0,-14
1527842219639972,18,-2,5,8,11,12,12,13
1527842219639972,-15,-8,-4,-2,-5,1,-4,-4
1527842219661913,-3,5,-5,-8,-4,-9,-1,-1
1527842219661913,-6,-1,4,-1,-6,-2,-4,-3
1527842219662911,0,-13,-8,4,7,-11,-8,-15
1527842219662911,0,-2,2,-2,0,19,-1,8
1527842219684852,19,11,-1,-5,-3,-13,-8,-5
1527842219684852,-12,-2,2,1,8,7,1,-17
1527842219685850,-5,-6,-1,-5,-11,1,4,16
1527842219685850,-7,-11,-5,-1,1,0,-1,-2
1527842219698815,14,8,0,9,7,-5,-5,-5
1527842219698815,20,2,1,0,-3,-7,-5,-7
1527842219706793,-28,-8,-2,-5,0,5,8,4
1527842219706793,12,0,-5,-2,-8,-6,-7,-4
1527842219721753,-15,-19,-10,-8,-2,-12,-7,5
1527842219721753,0,2,0,-1,-3,2,1,4
1527842219722751,5,-4,0,7,4,6,-1,-9
1527842219722751,6,17,2,3,3,-3,4,6
1527842219744692,-10,-1,-2,-6,-3,-4,-8,-8
1527842219744692,-6,-5,-4,-5,-8,-9,-6,4
1527842219745690,-1,-1,1,5,7,4,-4,-15
1527842219745690,7,0,0,4,9,9,7,2
1527842219759652,1,1,1,-5,-7,-5,-3,-3
1527842219759652,-4,-3,2,3,-3,-2,1,8
1527842219760650,-10,-5,-10,-8,-1,-5,-10,-11
1527842219760650,3,6,2,-3,-11,-9,-1,7
1527842219781594,-3,-19,-3,-2,-5,-7,-2,0
1527842219781594,-14,10,-3,0,5,2,2,-10
1527842219782591,19,7,11,8,12,17,10,18
1527842219782591,-1,-22,-10,-8,0,13,9,-7
1527842219804532,-1,-2,-10,-7,-7,-4,0,-6
1527842219804532,-11,9,16,3,-18,-26,-17,6
1527842219805530,-23,-41,-17,-10,-13,-8,-12,-13
1527842219805530,10,23,11,11,22,14,11,-1
1527842219819492,21,-18,-5,1,19,12,12,16
1527842219819492,-23,-4,-4,-6,-8,0,8,9
1527842219820490,32,23,2,-3,-8,0,-1,4
1527842219820490,1,-8,-5,-10,-20,-25,-19,-13
1527842219842431,8,-5,1,3,5,12,7,4
1527842219842431,1,10,1,4,7,-8,0,3
1527842219842431,-46,0,5,2,6,12,11,-10
1527842219842431,58,-30,-19,-5,-1,-1,3,23
1527842219864372,-22,38,20,3,6,6,-3,-9
1527842219864372,15,-24,-16,-7,2,1,1,0
1527842219865370,12,50,27,2,-14,-20,-9,-7
1527842219865370,-40,-54,-16,1,13,17,10,3
1527842219887311,-3,34,24,14,9,-4,-7,-44
1527842219887311,51,-5,-11,-6,-17,-8,0,50
1527842219888308,-21,-12,-8,-2,3,1,0,-13
1527842219888308,-20,11,5,-14,-19,-11,0,-1
1527842219902271,13,0,0,17,22,-2,-22,5
1527842219902271,-19,-17,-8,-7,-3,14,24,-25
1527842219903268,13,3,2,7,10,-5,-14,7
1527842219903268,1,23,11,0,-13,-27,-20,-10
1527842219924212,2,-16,-17,-17,-10,11,2,6
1527842219924212,-1,11,3,-1,-9,-21,-1,12
1527842219925210,-2,-8,-1,7,9,30,14,-11
1527842219925210,12,7,2,3,5,1,-2,3
1527842219939172,-24,-7,-3,-4,-12,-16,-5,0
1527842219939172,-5,-4,2,0,8,6,-12,-10
1527842219947151,32,15,-3,-9,-19,-10,8,10
1527842219947151,-4,-1,2,7,10,6,1,1
1527842219962111,-12,-5,-6,-6,1,-17,3,-10
1527842219962111,-5,2,-2,-7,-22,7,-23,9
1527842219963109,-16,-12,-3,-1,8,-21,7,2
1527842219963109,-20,3,5,14,-1,16,0,-38
1527842219985050,28,-3,-6,-4,14,2,21,52
1527842219985050,13,1,5,13,12,17,4,-52
1527842219985050,-44,-4,-6,-18,-3,-13,-6,5
1527842219985050,65,18,4,-1,-33,10,5,8
1527842220007988,-13,-2,-3,-3,3,-8,-13,-14
1527842220007988,-15,-13,-5,-6,12,8,-7,-18
1527842220008986,11,-7,-1,3,-1,2,4,-1
1527842220008986,-19,16,2,-1,1,-13,-7,-7
1527842220021951,37,-2,-2,-4,-18,-5,-1,7
1527842220021951,0,2,1,5,11,8,1,-1
1527842220022948,-3,-5,-2,2,0,-2,-8,-3
1527842220022948,-5,-8,-2,-1,6,-5,-2,4
1527842220044890,-16,-3,-2,-7,-11,16,0,-2
1527842220044890,23,9,3,4,2,-22,-11,6
1527842220044890,14,-2,-1,1,2,10,5,3
1527842220044890,-35,-6,-2,-1,2,-4,0,-14
1527842220067828,4,8,2,3,0,-1,2,-2
1527842220067828,0,-5,1,10,7,-1,1,-4
1527842220068826,-7,-7,-4,-4,-6,-6,-7,-4
1527842220068826,9,16,2,4,8,3,2,27
1527842220081791,-1,-21,-8,-9,-12,-11,-9,-5
1527842220081791,-21,13,0,-9,-8,-2,2,9
1527842220082789,15,-1,5,8,5,6,2,-2
1527842220082789,-24,-10,-2,-4,3,0,-1,-5
1527842220104730,15,-12,-1,-1,-6,0,1,6
1527842220104730,-4,6,-4,-3,-1,-4,-2,-2
1527842220111711,-3,11,3,3,3,1,-4,3
1527842220111711,11,-9,-4,-5,1,-4,-1,-4
1527842220118692,-32,-6,1,-1,-5,-3,1,-1
1527842220118692,9,-4,-3,-1,1,5,9,10
1527842220126671,15,-5,1,3,-1,-2,-5,-11
1527842220126671,-29,-10,-3,-1,0,2,4,18
1527842220141631,8,5,2,4,16,5,4,-19
1527842220141631,-2,-13,-3,0,-5,1,-2,-14
1527842220142629,-10,-26,-14,-3,-6,-6,-12,-15
1527842220142629,13,78,28,12,1,-3,14,26
1527842220164570,-3,1,-7,-5,8,12,2,0
1527842220164570,10,2,10,3,23,17,13,9
1527842220165568,-16,-42,-21,-11,-27,-21,-8,0
1527842220165568,34,4,0,6,-4,-9,-13,-17
1527842220178533,-27,-24,8,2,-3,5,9,9
1527842220178533,30,-24,-12,-11,2,-2,-5,-4
1527842220187508,-22,-21,-9,-3,-6,-7,-1,5
1527842220187508,-50,-26,-22,-20,-6,-7,-11,-13
1527842220202468,39,24,8,13,9,-6,1,5
1527842220202468,-27,-3,4,3,-24,-10,-4,-9
1527842220202468,-1,-4,-2,-5,14,21,11,3
1527842220202468,43,12,4,2,4,3,1,5
1527842220224410,-49,-50,-22,-13,-18,-12,-13,-17
1527842220224410,22,63,34,15,5,-2,0,5
1527842220225407,5,36,10,-3,11,9,9,7
1527842220225407,3,-14,-5,-3,11,14,5,-4
1527842220239370,-7,-15,-10,-6,-12,-6,-4,-1
1527842220239370,-30,-32,-21,-18,-18,-15,-8,-1
1527842220247349,14,22,13,24,11,-1,0,8
1527842220247349,-18,-8,3,-3,-8,-17,-11,-16
1527842220262315,-4,1,0,1,9,22,16,10
1527842220262315,8,4,-3,-2,1,3,0,4
1527842220263307,38,20,1,-14,-6,5,-1,12
1527842220263307,-34,-22,-4,10,5,4,-4,-3
1527842220284250,24,19,3,-14,-25,-35,-2,6
1527842220284250,-16,8,3,23,23,23,-3,-8
1527842220285248,1,-9,-5,-10,-3,1,-3,1
1527842220285248,14,-10,-6,-8,-10,-23,-14,-6
1527842220308186,-1,12,5,-1,-3,29,7,-6
1527842220308186,-3,0,-4,-11,11,0,3,7
1527842220308186,-22,-10,-1,15,16,-11,-7,-9
1527842220308186,1,6,-1,-8,-28,-7,-1,-1
1527842220322149,11,15,7,14,31,17,14,-2
1527842220322149,-16,-14,-10,-11,2,-1,5,1
1527842220323147,21,11,6,-1,-2,-16,0,-21
1527842220323147,-6,-10,-2,2,-7,7,3,40
1527842220345087,-33,0,-7,-3,4,11,1,-34
1527842220345087,-13,-1,3,6,0,-1,19,20
1527842220345087,29,7,-1,-11,-7,15,-8,-9
1527842220345087,-12,-3,-1,-9,7,-2,-1,-12
1527842220368026,-13,-10,-1,9,-12,-17,9,21
1527842220368026,37,2,-1,5,-9,13,-24,-4
1527842220369023,-6,4,5,6,34,16,10,6
1527842220369023,-10,-11,-8,-7,-5,-3,1,-3
1527842220381988,9,10,8,14,12,5,-4,7
1527842220381988,-8,-5,-3,-7,-23,-38,-4,-9
1527842220382986,-17,-4,1,3,-10,13,-4,4
1527842220382986,43,4,-1,-1,0,-5,-9,-10
1527842220404927,-32,-6,0,-9,-4,-11,-10,-7
1527842220404927,20,11,1,-10,-6,8,-2,-1
1527842220404927,-28,-9,-3,9,14,3,-3,-9
1527842220404927,-15,5,6,9,3,1,-1,-10
1527842220427866,20,7,2,-2,0,-7,-7,2
1527842220427866,-8,-6,-7,-10,-11,-7,-2,-4
1527842220428864,8,3,0,-3,-8,-4,6,6
1527842220428864,28,2,-1,-2,2,5,2,1
1527842220441828,-26,-15,-6,-2,-6,-12,-8,4
1527842220441828,-9,-3,-1,-3,3,6,4,-20
1527842220442826,13,5,-3,0,-10,-11,-8,7
1527842220442826,-28,-15,-3,5,9,4,3,-4
1527842220464767,42,10,1,-5,-9,-2,-7,-3
1527842220464767,-22,-17,-5,-4,2,-4,-4,0
1527842220465765,-6,-7,1,9,-1,1,4,-2
1527842220465765,15,2,-1,-1,2,-1,-4,-5
1527842220487706,-20,-23,-7,-7,-6,-5,-9,-9
1527842220487706,7,26,11,12,11,8,6,1
1527842220488704,2,-5,-1,-5,-7,-4,-1,-13
1527842220488704,-4,-10,-3,-2,-6,-3,0,0
1527842220501669,29,17,-1,0,-6,-8,-4,9
1527842220501669,0,-9,0,0,14,9,10,20
1527842220502666,-35,-16,-7,-9,-13,-6,-4,-11
1527842220502666,-12,-6,-4,5,8,4,-2,-15
1527842220524607,8,-25,-13,-7,6,9,-1,-20
1527842220524607,28,34,12,1,-19,-23,-10,19
1527842220525605,-12,16,-2,-7,4,6,9,31
1527842220525605,16,11,5,0,5,4,17,13
1527842220547546,-23,-19,-11,-5,-7,-4,-13,4
1527842220547546,-16,3,1,4,10,17,0,-17
1527842220548544,32,4,6,3,-5,-5,5,0
1527842220548544,-30,-8,-3,-10,-17,-15,-8,-16
1527842220562507,38,20,7,4,-1,-2,4,0
1527842220562507,-13,-23,-10,-6,-12,-22,-7,-4
1527842220562507,-41,-14,-10,4,19,9,-19,-20
1527842220562507,39,11,4,-4,8,16,17,16
1527842220584447,-14,-6,0,-4,-3,-9,-8,-7
1527842220584447,-25,-43,-22,-15,-28,-18,-6,16
1527842220585445,26,30,15,-2,-11,-21,-17,-33
1527842220585445,-22,-18,7,18,35,36,21,20
1527842220615365,26,14,-2,-7,-8,1,4,7
1527842220615365,-20,8,1,1,-2,-4,-6,2
1527842220616362,14,-23,-10,-7,-20,-15,-3,-3
1527842220616362,-20,-4,2,1,4,-8,1,19
1527842220622346,-9,9,9,7,16,33,10,-6
1527842220622346,2,-13,-8,1,6,-9,-1,-15
1527842220623344,18,15,3,-1,-2,6,-11,7
1527842220623344,1,9,-1,-3,-5,0,-1,-3
1527842220644287,-17,0,3,0,-8,0,0,2
1527842220644287,6,7,1,5,7,1,10,-5
1527842220645289,30,-2,2,10,-3,-4,2,15
1527842220645289,-7,-3,-4,2,10,-1,-7,-18
1527842220668223,10,1,-4,-9,-19,-40,-14,3
1527842220668223,-45,-18,-5,-12,2,27,4,-20
1527842220668223,-8,7,2,0,-9,0,12,-6
1527842220668223,6,-5,-8,-1,1,-11,-7,-2
1527842220690165,-3,8,2,0,4,18,4,-3
1527842220690165,40,9,5,9,1,-7,-4,10
1527842220691162,-54,-20,-7,-6,1,1,1,-13
1527842220691162,46,18,-4,-9,-12,-2,-7,-3
1527842220704127,-8,7,4,-5,-2,-13,7,21
1527842220704127,-14,-6,-1,8,3,-3,-15,-22
1527842220705125,6,-3,0,7,23,16,25,22
1527842220705125,-6,-5,-3,-1,-21,-18,-31,-35
1527842220728063,8,-3,-5,-1,27,6,5,13
1527842220728063,19,4,2,-3,0,15,6,12
1527842220729061,-52,-7,-7,-6,-12,-22,1,-13
1527842220729061,17,-6,-4,7,10,14,-11,-5
1527842220741029,4,-1,0,1,-7,-21,-6,2
1527842220741029,-24,0,5,1,8,9,2,-9
1527842220750005,20,-2,0,5,1,10,0,7
1527842220750005,0,4,-3,-7,-8,-1,6,10
1527842220764966,-5,4,-3,-4,-9,5,-2,-7
1527842220764966,20,3,-3,-6,-2,-11,2,1
1527842220764966,-8,3,-1,-11,-8,-3,-4,10
1527842220764966,-22,-6,2,3,2,1,5,-10
1527842220787903,10,-3,2,8,5,5,1,9
1527842220787903,1,0,-2,-2,-4,-8,-5,-7
1527842220788901,18,5,2,2,2,5,-1,13
1527842220788901,-13,-6,-4,-11,-8,-6,4,-4
1527842220801866,-5,-4,0,7,0,-2,-6,-13
1527842220801866,3,4,5,10,12,10,5,3
1527842220809845,16,4,-3,-5,-1,1,-2,8
1527842220809845,-18,-7,-3,1,-3,-11,2,3
1527842220824805,-8,3,1,-7,-10,-3,0,-5
1527842220824805,1,-2,-1,2,1,0,0,-6
1527842220825804,20,13,4,5,4,2,-1,2
1527842220825804,-11,-12,-7,-11,-9,-8,-3,0
1527842220847743,4,18,8,9,4,3,1,-4
1527842220847743,-4,-6,-5,-4,0,2,-3,2
1527842220848741,8,-1,-4,-6,-1,0,3,5
1527842220848741,-7,-1,0,-1,-3,2,-3,-6
1527842220861706,-8,-9,-3,2,-2,1,-4,-3
1527842220861706,8,5,0,-5,-3,-3,0,4
1527842220869685,-6,-4,-3,-5,-6,-7,-2,-2
1527842220869685,8,3,-3,2,-1,1,0,3
1527842220884645,-12,-3,0,4,5,4,3,-9
1527842220884645,3,2,-1,-6,-11,-9,-2,10
1527842220885642,-2,-7,-5,3,9,9,9,4
1527842220885642,23,7,2,-2,-2,-4,-10,-8
1527842220906586,-12,-4,0,0,-1,1,2,13
1527842220906586,-14,-8,2,10,8,12,5,-4
1527842220907583,25,15,10,3,4,-8,-3,-2
1527842220907583,19,12,-2,-6,5,10,6,3
1527842220921546,10,-23,-12,-8,-12,-3,-1,20
1527842220921546,14,27,17,7,1,5,8,-1
1527842220929525,-28,-22,-8,-5,4,-2,-19,-36
1527842220929525,16,-6,-8,-3,-15,-16,-7,26
1527842220944485,17,31,24,9,4,5,8,-17
1527842220944485,-41,-9,-15,-17,-14,-28,-10,1
1527842220945483,-18,5,1,0,3,14,9,1
1527842220945483,-22,-26,-9,-1,-10,4,-16,-19
1527842220967423,-13,-16,-10,-1,8,0,4,3
1527842220967423,33,30,16,9,7,-7,-6,0
1527842220967423,30,-12,-8,-13,-22,-20,-18,2
1527842220967423,-79,-28,-10,-7,3,-2,4,-23
1527842220982384,64,21,12,12,5,8,4,18
1527842220982384,-27,-35,-9,-6,5,12,4,-23
1527842220989365,-11,-10,-7,-4,-7,-11,-5,13
1527842220989365,47,7,4,4,8,8,8,30
1527842221004325,-22,-23,-20,-14,-15,-14,-13,-24
1527842221004325,-2,33,10,0,-2,1,0,6
1527842221005322,6,2,2,4,-6,-10,-3,-15
1527842221005322,-27,-13,0,3,-2,2,4,-7
1527842221027264,-5,1,1,2,10,7,-13,-27
1527842221027264,58,2,-4,0,-2,-1,23,38
1527842221028261,-38,-18,-8,-9,-10,-2,-23,-8
1527842221028261,4,32,9,-12,-10,-24,6,3
1527842221041226,0,-11,1,17,23,18,6,-6
1527842221041226,-8,-9,-3,5,-1,11,-2,1
1527842221049205,19,8,-3,-15,-14,-11,8,4
1527842221049205,-5,1,5,16,0,-5,1,2
1527842221064165,-18,3,1,-4,10,13,-7,1
1527842221064165,-26,-29,-13,-6,-2,-10,-1,-7
1527842221065162,-4,5,5,0,9,30,11,3
1527842221065162,15,13,4,2,-23,-13,5,-3
1527842221087103,-32,-16,-10,-10,7,-17,-22,-7
1527842221087103,59,14,7,24,9,18,16,8
1527842221088101,-20,-1,-4,-10,-3,-4,9,6
1527842221088101,-9,-1,2,4,21,11,-11,0
1527842221110042,7,6,1,-3,-21,-15,4,11
1527842221110042,-24,-21,-8,-11,-5,-13,-20,-21
1527842221111040,-39,2,-1,-2,-4,-2,-6,-7
1527842221111040,55,15,6,9,11,10,8,5
1527842221125002,-19,-5,-2,-4,-3,7,7,-1
1527842221125002,-2,-5,-9,-13,-5,-12,-13,-7
1527842221125002,13,0,6,8,-1,21,27,3
1527842221125002,-30,-3,3,6,12,-25,-34,0
1527842221146944,34,1,3,18,3,-13,11,-5
1527842221146944,-8,7,-5,-14,-6,16,-5,9
1527842221147941,4,-3,3,6,6,11,5,-4
1527842221147941,-1,-2,-6,-14,-6,11,3,-3
1527842221169882,-15,-7,-4,-10,-15,-7,-2,0
1527842221169882,19,3,4,5,0,-4,3,12
1527842221170880,-1,-4,-1,2,3,-15,-8,8
1527842221170880,5,-1,-2,-4,1,9,7,-20
1527842221184842,-14,0,-1,-2,-6,-1,-7,1
1527842221184842,4,-1,0,-1,-2,-5,0,-5
1527842221185840,-4,-1,-2,2,6,-3,-5,-11
1527842221185840,13,2,0,-4,-3,1,2,6
1527842221206784,-5,3,0,0,-3,-1,3,-5
1527842221206784,-8,-4,-1,-1,2,1,-7,-8
1527842221207781,16,0,-1,6,4,-4,-4,-11
1527842221207781,-8,-5,-3,1,-1,2,-1,-1
1527842221230720,14,24,9,-6,-4,1,4,5
1527842221230720,-12,-12,-2,0,3,6,0,-2
1527842221230720,4,7,3,1,-3,-7,-4,3
1527842221230720,-7,-5,5,1,2,2,8,6
1527842221244682,5,-4,-8,-7,-2,-3,-7,0
1527842221244682,18,3,4,1,-6,-6,1,-6
1527842221245680,-32,-33,-10,6,5,-14,-8,-6
1527842221245680,-17,4,-4,-6,4,17,0,-14
1527842221266624,4,-10,-2,-3,-6,-1,2,13
1527842221266624,-3,23,5,-1,-7,-6,-1,-5
1527842221267621,24,2,2,1,1,1,4,16
1527842221267621,-15,-23,-8,-2,-3,-8,-2,0
1527842221290560,32,30,2,1,-8,-8,-8,-8
1527842221290560,10,5,16,12,22,14,3,-9
1527842221291558,-31,3,-1,2,23,24,14,4
1527842221291558,30,-6,-10,-6,-18,-8,5,41
1527842221304522,-70,-43,-16,-10,-22,-18,-14,-23
1527842221304522,55,22,13,3,14,14,12,19
1527842221305520,-20,7,4,5,-6,-6,-9,-17
1527842221305520,10,-23,-8,1,3,2,-4,-4
1527842221327461,-40,-3,-1,-2,-6,-17,3,-6
1527842221327461,54,15,-4,-1,-11,9,-3,21
1527842221327461,-18,18,2,-16,-6,-4,0,-4
1527842221327461,12,-3,-1,7,18,16,9,-7
1527842221350400,-13,-23,-5,7,10,9,-11,-6
1527842221350400,-60,-26,-10,-6,-5,-11,-4,-30
1527842221351397,43,-6,-4,5,5,17,7,22
1527842221351397,22,48,9,-11,-22,-24,-19,-13
1527842221364362,-6,-14,-1,-2,4,9,18,22
1527842221364362,-35,-21,-9,2,14,8,0,-13
1527842221365360,20,-13,-6,-7,-20,-26,-20,0
1527842221365360,-16,0,1,1,2,-1,3,-13
1527842221387301,13,17,7,0,2,2,-1,6
1527842221387301,-48,-8,-7,-8,-13,0,0,1
1527842221388299,33,-3,-3,-3,-2,-17,-13,2
1527842221388299,-25,5,6,3,6,-10,4,2
1527842221410239,-39,-9,-3,-3,2,29,-1,-6
1527842221410239,64,4,-6,-10,-13,-6,-1,8
1527842221411237,-21,6,2,-4,3,5,8,-9
1527842221411237,6,1,8,8,5,4,0,-8
1527842221424202,-3,-8,-6,-6,1,-7,-7,-17
1527842221424202,-2,1,-4,-4,-12,-16,10,8
1527842221425200,5,0,0,-5,3,-2,-30,1
1527842221425200,-26,-8,-9,2,5,11,13,-4
1527842221447141,39,5,3,4,1,0,14,8
1527842221447141,-40,-1,-5,-7,-11,-5,-9,-11
1527842221448139,9,8,8,12,7,-7,4,-8
1527842221448139,2,-10,-2,11,9,14,-1,-4
1527842221470080,-21,0,0,-1,5,5,-3,7
1527842221470080,15,1,-5,-9,-7,-11,-10,-3
1527842221471077,-15,-6,-2,-5,-14,-16,2,-8
1527842221471077,54,8,0,-3,-6,5,-3,1
1527842221484042,-18,3,-3,-7,1,-4,2,-5
1527842221484042,-11,-9,3,2,-8,0,-1,0
1527842221492021,16,0,0,7,5,11,18,11
1527842221492021,-18,-4,-4,-7,-1,-4,-13,-16
1527842221506981,27,12,5,3,0,-4,2,3
1527842221506981,-2,-3,-5,-18,-3,-8,-3,4
1527842221507979,-2,-2,6,29,15,14,5,-6
1527842221507979,-19,0,0,-8,-2,-4,6,6
1527842221529920,31,8,-2,-21,-29,-9,-5,13
1527842221529920,-34,-2,2,19,20,15,1,-8
1527842221530917,19,3,-1,-6,14,5,9,3
1527842221530917,11,2,4,9,-14,-4,2,7
1527842221544880,-4,0,-2,6,26,2,-2,-5
1527842221544880,2,-2,-3,-6,-8,1,9,2
1527842221544880,-20,-3,-7,-9,-13,-1,4,-5
1527842221544880,24,2,-4,-13,-11,-12,-8,11
1527842221566821,9,4,5,6,-3,-2,-2,-4
1527842221566821,-8,-5,-1,7,6,-6,-10,-8
1527842221567819,6,8,1,-3,-4,1,1,11
1527842221567819,-26,-26,-6,-4,2,0,-5,-16
1527842221590757,27,23,2,0,-2,3,5,15
1527842221590757,-5,-1,8,5,4,-1,-5,8
1527842221590757,-19,-16,-7,-4,-5,-3,-8,-38
1527842221590757,12,7,2,-2,-2,-2,-2,-3
1527842221604720,-17,-19,-10,-6,-6,-6,0,-10
1527842221604720,-10,-7,-5,0,0,-7,-10,-13
1527842221605717,6,15,3,-2,-2,9,16,28
1527842221605717,26,3,0,-2,0,-1,-4,-7
1527842221626661,11,-13,-3,6,4,-1,-8,-24
1527842221626661,-38,-36,-12,-5,-4,-1,4,10
1527842221627659,21,35,4,1,-12,-15,-20,-20
1527842221627659,-35,-31,4,-1,13,10,5,-3
1527842221650597,27,-10,-2,7,15,16,8,10
1527842221650597,-5,-28,-5,2,2,10,8,3
1527842221651595,-4,-14,-10,-13,-15,-14,-16,-24
1527842221651595,-12,29,2,3,-12,-14,-6,-3
1527842221664560,25,27,17,-6,-18,-14,-2,23
1527842221664560,-13,-21,-11,6,18,7,3,-9
1527842221665557,-4,6,7,16,24,12,11,5
1527842221665557,-14,11,4,-6,-10,-11,-1,10
1527842221687499,-1,-8,-8,-7,-7,8,-2,5
1527842221687499,61,25,2,-4,-13,4,4,-1
1527842221687499,-40,-13,3,-10,-15,-30,-37,-1
1527842221687499,18,2,-1,13,2,-5,3,-5
1527842221710437,-46,-56,-18,-1,16,12,10,-9
1527842221710437,36,40,12,2,-5,1,6,46
1527842221711435,19,35,20,4,5,13,10,1
1527842221711435,-5,-24,-14,-13,-9,-6,-8,5
1527842221724400,0,5,2,1,-8,-17,-11,-4
1527842221724400,-24,-21,-7,3,0,-9,-3,-12
1527842221725398,32,17,16,10,22,29,29,43
1527842221725398,-3,18,2,-1,1,3,-4,-5
1527842221747338,-8,1,-2,4,3,-2,4,-16
1527842221747338,-21,4,4,-6,-10,-3,-7,-18
1527842221748336,21,-15,-11,-5,-7,-14,-7,25
1527842221748336,-14,-2,2,-2,6,29,15,-2
1527842221770277,-22,8,1,5,8,-3,-1,1
1527842221770277,-13,-5,0,-4,-7,-19,-18,-9
1527842221771275,10,-10,-3,0,2,-21,-7,-5
1527842221771275,29,-2,-5,-3,1,44,26,13
1527842221784240,20,14,2,-1,-9,-8,0,23
1527842221784240,0,5,3,0,4,3,-1,-13
1527842221785238,-23,-17,-9,-4,-6,-10,2,-8
1527842221785238,-9,-3,-5,-7,-7,-27,-20,-7
1527842221807179,31,9,6,-1,6,47,18,18
1527842221807179,3,4,-1,11,10,-42,-42,-16
1527842221808176,-24,-20,-11,-12,-11,14,3,0
1527842221808176,9,-2,3,15,15,-3,4,9
1527842221830117,-1,-3,-4,-13,-14,-7,-9,-18
1527842221830117,4,9,-3,-12,2,-7,12,4
1527842221831115,14,-9,-5,2,-34,13,0,-2
1527842221831115,-4,1,4,8,45,4,10,14
1527842221844080,-48,-18,-6,-5,-14,-8,-8,-27
1527842221844080,46,15,9,1,11,14,21,23
1527842221852059,-33,-14,-7,6,4,-18,-8,-16
1527842221852059,4,0,0,-2,-18,4,-3,-6
1527842221867018,9,5,-1,-6,-5,-8,-7,-1
1527842221867018,-21,-9,0,-2,-8,-5,3,-2
1527842221868016,29,2,-1,-9,-2,20,16,8
1527842221868016,-37,-11,-8,-6,-7,-9,-12,-37
1527842221889957,35,9,3,4,4,-11,-2,10
1527842221889957,-23,-6,-4,-3,-9,0,-5,11
1527842221890955,-4,-1,-3,-10,-2,12,0,-14
1527842221890955,-18,-5,0,11,9,-18,-2,-1
1527842221903920,8,2,2,8,5,6,0,4
1527842221903920,-4,-2,-4,-11,-11,12,11,9
1527842221911899,13,4,8,22,16,-16,-17,4
1527842221911899,-9,0,-4,-21,-20,8,4,-5
1527842221926859,-13,-1,-1,6,11,1,7,-6
1527842221926859,21,5,4,11,4,13,2,16
1527842221927856,-15,-9,-9,-16,-5,-6,0,-10
1527842221927856,-10,-5,-2,1,-10,-11,-8,-3
1527842221950795,26,8,2,4,2,-6,-5,21
1527842221950795,-23,-16,-9,-4,1,4,-2,-31
1527842221950795,9,10,3,-3,-2,-6,0,18
1527842221950795,14,14,9,7,0,-5,-5,19
1527842221963760,-7,3,1,1,9,15,13,5
1527842221963760,-11,-13,-6,-5,-4,-4,-2,-14
1527842221971739,13,18,6,8,4,2,-1,5
1527842221971739,18,-2,2,-2,-9,-4,-1,18
1527842221986699,-28,-16,-10,-9,-7,-17,-9,-24
1527842221986699,-27,-9,-1,2,11,9,2,7
1527842221987696,58,16,10,4,15,17,16,12
1527842221987696,-72,-26,-8,-9,-9,-7,-10,-6
1527842222009638,21,9,0,-2,-8,-5,-3,4
1527842222009638,25,2,-4,8,-5,-16,-9,-6
1527842222010635,-23,-41,-11,-1,16,28,8,0
1527842222010635,41,63,14,1,-6,-10,-6,-3
1527842222023600,-15,-6,-1,2,-1,-1,2,-6
1527842222023600,23,38,26,11,15,12,6,4
1527842222032576,-2,-33,-14,-7,-1,3,6,11
1527842222032576,-8,2,2,-3,-9,-4,-12,-30
1527842222047536,-35,-14,-4,-5,-15,-9,4,36
1527842222047536,45,29,-2,-9,-12,-16,-9,-5
1527842222047536,-32,-10,-8,-6,-2,6,-4,-19
1527842222047536,-22,-32,-8,11,15,-7,9,2
1527842222069477,41,17,2,-7,2,2,-6,6
1527842222069477,-40,-40,-8,7,1,-4,-8,-6
1527842222070475,1,17,2,-2,-11,-12,-8,-27
1527842222070475,14,28,14,8,13,17,18,41
1527842222084437,-14,-16,-6,-3,-6,-2,-12,-31
1527842222084437,9,28,14,-1,-3,0,9,5
1527842222092416,-17,-24,-19,-14,-4,-5,-4,-5
1527842222092416,6,-7,-1,9,10,5,-2,4
1527842222107376,4,4,2,3,0,-6,-2,0
1527842222107376,-12,-23,-12,-5,-12,-14,-7,-8
1527842222108374,7,12,5,-4,-6,8,1,10
1527842222108374,14,-7,-1,3,3,3,-1,2
1527842222129317,-32,-13,-6,-3,-1,-2,-1,-9
1527842222129317,0,0,-3,-2,-3,0,-2,-10
1527842222130315,-2,12,3,-3,-3,-10,-2,10
1527842222130315,10,-9,-9,-11,-1,-2,-5,-12
1527842222144278,-9,-4,4,11,8,5,12,-8
1527842222144278,26,14,5,-2,-7,-6,-2,12
1527842222152256,-28,-4,-2,-5,-4,18,5,18
1527842222152256,1,-13,-11,-12,-12,-7,-6,-7
1527842222166219,-4,-1,5,11,8,-19,-9,-8
1527842222166219,7,8,6,24,17,37,29,15
1527842222174197,-10,-7,1,15,1,-29,-45,-14
1527842222174197,8,0,-8,-29,-24,-23,8,-2
1527842222189157,13,1,0,-9,-2,21,-9,5
1527842222189157,-23,-2,-3,3,-20,-15,4,-15
1527842222190155,-9,-3,3,16,37,30,15,13
1527842222190155,27,1,-6,-14,-11,-18,-15,-3
1527842222213093,-9,4,6,13,4,2,1,-9
1527842222213093,-12,-17,-10,-14,-5,0,-11,-20
1527842222214091,23,8,5,4,-9,-7,11,9
1527842222214091,-2,-1,-4,0,2,0,-10,9
1527842222227056,-5,7,1,-7,-6,4,15,14
1527842222227056,-2,-1,-1,-3,6,1,-10,0
1527842222228054,-27,-3,-1,-4,-4,-12,-4,-34
1527842222228054,18,-3,3,7,5,11,6,-2
1527842222249995,8,1,-4,-6,-6,-3,-2,2
1527842222249995,-27,-9,-3,-11,0,-1,2,1
1527842222249995,14,8,4,6,7,-3,-2,-8
1527842222249995,-17,-2,3,18,12,7,2,5
1527842222272933,4,-2,-9,-20,-20,-3,-10,-16
1527842222272933,4,1,7,24,29,2,3,0
1527842222273931,7,-3,-8,-14,-28,-11,1,-2
1527842222273931,-4,3,4,5,13,6,3,-12
1527842222286896,-28,-4,-4,-3,0,3,-10,2
1527842222286896,25,-7,-8,-18,-13,-3,0,2
1527842222287894,-10,-6,-4,-1,0,-8,-4,-18
1527842222287894,-16,-4,0,0,-3,1,3,3
1527842222309835,12,5,3,1,3,-2,0,-17
1527842222309835,-18,-6,-4,-7,-1,0,-3,2
1527842222310832,1,-2,3,4,2,-4,-1,-1
1527842222310832,-7,-21,-10,-4,-5,2,-8,-12
1527842222332774,28,36,17,8,6,3,6,-3
1527842222332774,-10,-7,-4,1,-2,1,-3,-2
1527842222333771,-1,5,-2,-5,-8,-11,-2,-1
1527842222333771,10,-4,-1,-4,-3,1,0,2
1527842222355712,-5,-7,-2,6,10,2,1,3
1527842222355712,-6,1,4,3,-2,1,3,-2
1527842222355712,6,0,-8,-7,-1,0,1,9
1527842222355712,6,-6,2,0,-2,2,-5,5
1527842222369675,11,-1,-7,-9,-6,-7,6,13
1527842222369675,-9,-26,-9,-4,-6,-6,-5,2
1527842222370672,22,76,23,4,-1,1,2,12
1527842222370672,-22,-27,-15,-7,-1,1,4,10
1527842222392613,43,10,10,14,26,21,12,-6
1527842222392613,-10,-28,-10,-8,1,-2,-4,-10
1527842222393611,17,19,-6,-2,-10,-5,-7,-7
1527842222393611,-31,-11,-3,-3,-6,2,-2,-2
1527842222407574,-6,-20,-6,-5,-7,-12,-8,-19
1527842222407574,9,13,14,1,-6,-5,-3,-2
1527842222407574,-15,-30,-9,-3,-18,-24,-9,-6
1527842222407574,-1,23,8,8,20,11,0,-35
1527842222429515,1,-20,-5,1,17,19,11,13
1527842222429515,13,7,-1,-3,-3,-2,-4,7
1527842222430512,-10,-13,-6,-7,-20,-27,-21,-1
1527842222430512,19,3,0,-2,-13,-16,-2,4
1527842222452454,-12,1,0,-2,-12,-11,-10,1
1527842222452454,-3,-1,-2,3,18,16,12,-7
1527842222453451,-17,0,2,0,10,13,13,12
1527842222453451,-8,2,-9,-7,-6,-1,-13,-17
1527842222467414,47,52,29,13,0,-5,7,22
1527842222467414,-17,-2,-4,-7,-13,-13,-16,-7
1527842222467414,-23,-38,-12,-5,-2,-1,-1,-6
1527842222467414,7,8,10,12,20,18,14,3
1527842222489355,-20,-15,-8,-7,-7,-7,-5,-11
1527842222489355,3,18,1,-3,-9,-5,-5,-18
1527842222490353,4,-10,0,-3,6,15,11,18
1527842222490353,2,5,-2,-2,-16,-24,-16,-13
1527842222513291,-33,-19,-11,-12,4,9,-5,-2
1527842222513291,17,8,-2,15,5,-4,3,8
1527842222513291,-6,-9,3,10,13,9,-11,-17
1527842222513291,5,7,2,-8,-10,-6,2,14
1527842222527254,18,-9,-7,0,-19,1,3,9
1527842222527254,-22,1,-1,2,27,11,13,-2
1527842222528251,2,-3,-1,-4,1,-3,-5,4
1527842222528251,1,-8,1,-4,-4,6,-2,1
1527842222549195,-28,3,0,5,-2,-9,-1,6
1527842222549195,18,4,-4,-5,-9,-4,-10,-11
1527842222550192,12,5,4,3,5,4,14,6
1527842222550192,-27,-6,-2,-2,3,-10,-9,-14
1527842222573131,-18,-17,-10,-7,-9,-2,-2,8
1527842222573131,27,14,4,-5,-13,7,17,16
1527842222573131,3,0,1,13,28,8,2,-10
1527842222573131,-1,-4,-3,-7,-8,-14,-7,1
1527842222595072,5,-1,-2,0,2,-8,3,-4
1527842222595072,-24,-7,2,2,-15,-3,-25,-7
1527842222596070,5,-1,-6,-17,-3,-11,0,5
1527842222596070,13,6,7,28,28,54,21,6
1527842222610032,0,-7,-4,-7,-12,-19,-5,-5
1527842222610032,-19,5,1,0,14,-10,0,11
1527842222610032,18,-1,-2,-10,-15,-9,2,-2
1527842222610032,-8,-1,-4,-8,-7,-2,-2,10
1527842222632971,29,7,0,-2,-2,12,3,-10
1527842222632971,-25,-10,-3,-6,-6,-3,-4,-7
1527842222633969,12,-7,-4,0,-3,-1,0,-4
1527842222633969,2,20,9,6,4,-2,7,0
1527842222646934,-14,-8,0,2,1,-6,-6,1
1527842222646934,12,10,-1,-8,-8,-2,0,14
1527842222654913,-18,-15,-4,1,0,4,-1,-20
1527842222654913,34,5,-1,8,6,-4,7,33
1527842222669872,-11,-7,-6,-11,-13,-2,-8,-24
1527842222669872,4,6,6,20,27,1,1,5
1527842222670870,-21,-9,-4,-4,-13,19,7,-4
1527842222670870,-6,-6,-6,-10,-9,1,-1,0
1527842222692811,7,9,3,5,6,-4,-1,4
1527842222692811,5,-3,-3,-8,-7,4,6,12
1527842222693809,8,-3,-4,0,-6,-9,0,7
1527842222693809,7,21,8,3,-1,-7,-6,-14
1527842222706774,0,3,2,4,9,6,-2,-3
1527842222706774,-29,-16,-8,-2,-9,-4,-4,-5
1527842222714752,-6,-10,-2,-1,3,-5,-5,-6
1527842222714752,12,11,0,-4,-3,1,-1,2
1527842222729712,-5,12,4,3,5,3,3,7
1527842222729712,23,-3,-3,-4,-5,2,-2,-16
1527842222730710,-7,1,0,3,1,1,-1,-3
1527842222730710,-19,-20,-9,-3,-4,-6,-3,-3
1527842222752651,10,5,1,2,-3,-6,-5,-2
1527842222752651,-4,1,3,1,-2,0,-3,6
1527842222753649,6,-1,-3,-2,2,0,1,-18
1527842222753649,-10,2,2,-2,1,4,8,-4
1527842222766614,-8,-20,-5,-3,16,13,7,8
1527842222766614,14,23,0,-3,-13,-8,-4,1
1527842222774593,-13,-3,0,-1,2,1,1,6
1527842222774593,15,-19,-5,1,6,1,0,5
1527842222789553,-21,-8,-8,1,-4,-7,-8,-17
1527842222789553,-26,-3,-1,2,12,16,8,11
1527842222790550,39,-10,3,2,-3,1,10,13
1527842222790550,-21,48,17,1,1,2,2,2
1527842222812491,-20,-35,-17,-8,-3,-1,-5,1
1527842222812491,45,-5,2,2,-5,-9,-5,2
1527842222813489,-44,6,2,7,-1,-6,-13,-12
1527842222813489,15,-18,-4,-3,-1,2,5,7
1527842222826454,-18,12,4,-1,-5,-15,-4,-6
1527842222826454,21,5,2,5,6,18,7,0
1527842222834432,8,11,6,3,4,6,4,16
1527842222834432,-5,-20,-12,-5,1,-5,-7,-11
1527842222849392,0,28,4,0,-1,-1,1,4
1527842222849392,10,5,-1,-8,-11,-14,-10,-24
1527842222850390,7,0,-2,-2,-2,-6,3,23
1527842222850390,-19,-21,-7,0,-3,-6,-11,-28
1527842222872331,7,4,2,3,0,4,6,13
1527842222872331,3,-12,-6,-8,1,1,-4,-11
1527842222873329,-12,-1,-6,5,8,-1,2,-11
1527842222873329,10,3,-3,-5,-19,-13,-10,-1
1527842222886294,1,2,3,-3,-3,9,3,14
1527842222886294,-16,-2,2,10,10,-3,-9,-7
1527842222894273,-3,3,-1,-3,-8,-4,3,-1
1527842222894273,7,-5,-3,-8,-6,-9,-1,-2
1527842222909233,19,3,4,6,8,1,5,5
1527842222909233,-32,-10,-6,-5,-3,-3,-5,-15
1527842222910230,-10,5,0,-3,-1,-14,0,5
1527842222910230,9,-1,3,-1,4,19,13,12
1527842222932171,11,6,-1,-6,-9,-7,-5,1
1527842222932171,-6,-5,-2,5,2,12,4,9
1527842222933169,22,12,3,-4,-5,-25,-3,26
1527842222933169,2,-1,-3,-6,-2,23,14,-6
1527842222955110,-1,-5,1,18,11,2,1,3
1527842222955110,-15,-5,-2,3,9,3,-2,1
1527842222956108,10,2,-1,-13,-22,8,-4,-10
1527842222956108,1,8,12,37,44,2,6,24
1527842222970070,-10,-9,-9,-17,-18,-10,0,-19
1527842222970070,23,3,3,-1,-3,-1,13,17
1527842222970070,4,2,-3,-1,-5,2,-5,-9
1527842222970070,-17,-9,-8,-17,-9,-2,-7,-19
1527842222992011,-1,3,4,10,5,6,-4,-4
1527842222992011,1,-1,1,0,-3,-13,3,-1
1527842222993009,16,-9,-2,-2,-9,7,-7,14
1527842222993009,6,8,2,5,20,-1,6,4
1527842223014950,-1,-12,-7,-16,-10,-8,6,-2
1527842223014950,6,7,0,3,-4,2,-17,-7
1527842223015947,-3,-2,3,7,21,20,8,-8
1527842223015947,-16,-1,-2,-7,-19,-17,-13,0
1527842223029910,25,-3,0,0,1,5,1,-6
1527842223029910,-4,0,-2,-5,-6,-3,21,14
1527842223030908,-20,-5,-4,-7,2,-3,-27,-30
1527842223030908,5,-4,3,9,-4,-2,-6,4
1527842223052849,2,2,-2,-2,6,-2,7,-3
1527842223052849,-24,-13,-8,-21,-23,-6,0,-2
1527842223053846,23,9,4,9,22,17,9,0
1527842223053846,-33,-7,0,19,0,-25,-5,-3
1527842223066811,9,-7,-6,-4,-5,2,-5,4
1527842223066811,11,4,1,0,1,3,-2,-6
1527842223074790,-19,-14,-12,-15,-11,-8,4,-1
1527842223074790,21,39,16,-7,-9,7,0,-6
1527842223089750,-13,-7,0,9,6,1,-4,-6
1527842223089750,-4,-6,-4,0,2,0,0,13
1527842223090748,4,1,0,-1,-2,-5,-11,-17
1527842223090748,10,-6,-9,-8,-11,-5,4,11
1527842223112689,-3,7,4,4,0,-1,0,-2
1527842223112689,-4,-9,-2,-4,0,-2,-3,-7
1527842223113686,-10,6,-1,3,-1,2,-3,-1
1527842223113686,4,-13,-5,-1,-2,-2,-3,2
1527842223135627,-5,1,0,-4,-5,-7,-9,-7
1527842223135627,4,-2,-3,-2,-2,0,-5,-7
1527842223135627,-10,-8,5,8,5,1,11,41
1527842223135627,28,27,9,1,-8,0,0,-4
1527842223149590,-3,-12,-5,-15,-5,-3,-5,-8
1527842223149590,-18,-3,0,8,8,-4,5,9
1527842223150587,7,-11,0,17,14,9,-12,-24
1527842223150587,-36,-27,-15,-18,-11,-3,-2,-1
1527842223172528,15,-1,2,3,-2,3,-4,-10
1527842223172528,36,-2,-4,-4,-7,-8,-4,2
1527842223173526,2,29,6,-7,-10,-10,1,-12
1527842223173526,-18,-45,-11,-6,-6,-4,-2,5
1527842223195467,-21,9,-3,8,7,-5,-8,0
1527842223195467,34,2,3,4,17,19,11,13
1527842223196465,-7,-4,-3,-6,-4,-3,1,-25
1527842223196465,-1,-2,-8,-7,-10,-17,-16,-15
1527842223209430,-10,-7,1,0,-1,-7,4,15
1527842223209430,-7,2,3,5,3,21,3,0
1527842223210428,-5,13,7,0,4,11,12,13
1527842223210428,21,-1,-2,5,0,-10,-4,-7
1527842223232369,11,1,2,2,-4,-4,1,-5
1527842223232369,1,-4,-5,-6,8,-1,-6,2
1527842223233366,-29,-15,-4,-1,1,6,-5,-12
1527842223233366,20,-11,-7,-5,-2,1,-7,-17
1527842223255307,-17,-9,5,-2,-6,-3,3,22
1527842223255307,-21,9,-2,-1,-10,-15,-8,-29
1527842223256305,26,24,10,-1,-7,-6,5,6
1527842223256305,-13,17,0,4,7,4,3,5
1527842223269270,29,10,-1,4,9,11,-1,-6
1527842223269270,-23,-23,-8,-3,-7,-5,-5,-9
1527842223270268,-28,-7,-5,-7,-8,-9,-3,6
1527842223270268,10,4,3,-2,-6,4,1,1
1527842223292209,0,8,0,-1,-4,-12,-3,-1
1527842223292209,4,12,3,1,9,31,12,6
1527842223293207,5,-13,-7,13,4,-30,-15,-6
1527842223293207,-2,1,8,3,14,36,20,7
1527842223315147,-2,-5,-8,-8,-1,4,-11,2
1527842223315147,4,-3,0,4,-4,-24,-11,1
1527842223316145,-11,-2,-2,-14,-11,-12,3,-7
1527842223316145,-6,4,1,4,-8,-5,4,1
1527842223329110,1,-9,-5,-14,-2,12,1,0
1527842223329110,3,5,0,10,12,3,-6,-3
1527842223330107,9,-8,1,9,11,13,6,-14
1527842223330107,-14,-2,-4,-5,-7,-10,-6,2
1527842223352049,-18,2,-1,0,-1,2,4,-7
1527842223352049,50,19,0,-16,-14,-4,7,27
1527842223353046,-11,-9,-8,-12,-10,-5,-10,-3
1527842223353046,-10,-5,7,19,22,10,7,-5
1527842223374987,-2,-1,-4,-7,-15,-1,6,13
1527842223374987,-5,2,6,9,15,1,-1,-11
1527842223375985,-4,-1,-1,-1,-5,-12,6,-2
1527842223375985,16,9,-4,-12,-5,-9,-28,6
1527842223389948,-7,-1,4,19,21,14,2,-4
1527842223389948,-11,-6,-1,-7,-30,-12,-2,-3
1527842223389948,9,2,-1,-2,6,21,10,-2
1527842223389948,-3,-7,-4,-8,-6,-22,-15,-7
1527842223411889,23,17,5,1,-8,-9,-1,-6
1527842223411889,-18,-9,-2,-6,-1,-8,-8,-3
1527842223412887,3,-6,-4,3,4,2,-6,-3
1527842223412887,-30,-3,1,-3,-3,7,6,-10
1527842223435825,-2,-5,1,3,0,-8,-11,-13
1527842223435825,4,2,-2,6,2,-3,2,-12
1527842223435825,5,-2,-1,-2,-2,3,4,31
1527842223435825,7,2,-1,-5,0,0,7,-1
1527842223449787,17,3,4,17,13,-1,3,5
1527842223449787,-22,-7,-2,-5,-5,9,0,1
1527842223450785,4,3,2,1,1,0,-5,-1
1527842223450785,-13,-6,-6,-21,-20,-3,-3,-6
1527842223471729,-7,1,-1,2,1,-4,0,2
1527842223471729,14,-2,2,15,17,-3,5,10
1527842223472726,6,-3,-3,-7,-7,3,-8,-6
1527842223472726,-13,-3,-1,3,-2,0,-4,-3
1527842223495665,9,-5,-6,-14,-15,-7,2,-15
1527842223495665,-1,28,10,-2,-7,-4,1,8
1527842223495665,4,-8,-5,1,-1,-5,-2,16
1527842223495665,6,0,2,4,4,6,5,-12
1527842223509627,5,9,8,0,0,3,2,9
1527842223509627,-22,-30,-13,-5,-7,-7,-9,-14
1527842223510625,10,28,9,2,0,1,2,-2
1527842223510625,10,-9,-2,3,4,4,3,15
1527842223532566,-4,8,-3,-2,1,-3,-7,0
1527842223532566,15,16,11,2,3,2,2,9
1527842223532566,-36,-7,-3,-2,-4,-1,-4,-2
1527842223532566,24,0,-1,0,-3,-7,-6,-20
1527842223555505,-15,-13,-6,-3,0,-3,-2,11
1527842223555505,13,-20,-16,-9,-12,-5,-2,-1
1527842223556502,-5,11,19,8,2,3,7,9
1527842223556502,4,6,0,11,33,28,25,1
1527842223569468,-5,-25,-13,-8,-11,0,-4,7
1527842223569468,-13,9,2,-6,-13,-15,-13,-12
1527842223570465,-6,-39,-18,-2,-6,-7,-3,0
1527842223570465,8,44,23,13,11,3,0,8
1527842223592406,-1,-5,-5,-2,-1,2,6,-12
1527842223592406,-11,-26,-10,-6,1,-4,9,13
1527842223592406,4,7,0,-6,-15,-5,-7,4
1527842223592406,36,7,4,2,-8,-5,-4,-7
1527842223615345,-55,-20,-7,-1,4,-4,-2,14
1527842223615345,24,9,7,12,13,8,8,11
1527842223616343,-6,-13,-6,-10,-5,-11,-5,-34
1527842223616343,8,-11,-10,2,11,11,9,21
1527842223629307,18,23,10,-3,1,15,1,12
1527842223629307,-21,-10,-6,-10,-22,-21,-16,-11
1527842223630305,15,1,-5,-2,4,6,4,10
1527842223630305,-29,0,-3,-3,0,-9,-3,-3
1527842223652246,26,-11,-2,0,-5,-4,-5,-27
1527842223652246,-6,13,0,-1,1,7,4,-1
1527842223653244,5,8,6,2,-3,-13,-4,11
1527842223653244,6,-12,-8,-7,-10,5,-22,-4
1527842223675185,-43,-5,-1,-2,4,-7,10,-9
1527842223675185,16,1,3,9,3,2,-5,-8
1527842223676182,9,6,0,-11,-10,5,4,-2
1527842223676182,1,-16,-13,-3,1,-24,-11,1
1527842223689148,4,9,4,-2,0,8,1,-5
1527842223689148,-16,-8,-4,3,1,12,2,-5
1527842223690145,23,0,-1,1,-1,-22,-7,5
1527842223690145,-21,-1,1,0,-6,2,-5,-18
1527842223712086,-5,-1,-3,-9,-8,10,-8,-5
1527842223712086,1,-3,-1,1,3,-12,16,14
1527842223713084,-16,1,-7,-19,-5,22,-19,-9
1527842223713084,11,4,8,18,-1,-27,-1,3
1527842223735025,2,0,2,6,5,-12,-9,-2
1527842223735025,-52,-4,6,1,11,15,1,-14
1527842223736023,70,9,0,4,5,18,15,3
1527842223736023,-35,-12,-5,-18,-22,-23,-15,8
1527842223748988,-10,-7,-1,0,-3,-5,-1,6
1527842223748988,19,8,-1,3,-6,15,7,-7
1527842223756966,-13,-8,-1,-4,-2,-23,-6,11
1527842223756966,5,-2,-3,-6,-2,14,0,-17
1527842223771926,10,3,2,9,11,-2,14,5
1527842223771926,-15,-4,-5,-14,-10,-5,-8,-3
1527842223772924,2,3,2,15,10,10,7,4
1527842223772924,-4,-1,-3,-6,-5,-7,4,-4
1527842223794865,21,6,-1,-5,-4,4,-1,13
1527842223794865,-2,-3,-1,3,3,2,9,-7
1527842223795862,-20,-5,0,-2,5,1,0,-5
1527842223795862,-6,-2,-2,-11,-9,0,4,6
1527842223808828,-10,-3,2,10,1,-1,1,3
1527842223808828,60,13,-1,-9,0,1,-5,14
1527842223816806,-28,-2,-1,2,0,-4,-6,-10
1527842223816806,-20,-7,-1,3,2,4,8,12
1527842223831766,12,-7,-2,-3,-3,2,-5,-2
1527842223831766,1,8,2,0,2,-3,-5,-30
1527842223832764,-3,1,-2,-3,-7,-1,8,11
1527842223832764,1,-2,-2,0,2,8,-2,8
1527842223855702,-10,-9,-8,-4,1,-5,-7,-13
1527842223855702,15,7,5,11,4,-7,-1,18
1527842223855702,1,-2,-3,0,2,9,-2,-11
1527842223855702,-12,-3,-2,-5,-13,1,3,-8
1527842223868668,4,9,2,-5,11,-5,-7,-8
1527842223868668,7,-5,0,4,3,0,-1,10
1527842223877644,-16,-2,-6,-5,-3,-8,-8,-15
1527842223877644,6,-4,-3,-3,-4,3,-6,-1
1527842223892604,-6,-14,-5,-2,-9,1,5,-1
1527842223892604,11,31,14,1,2,-3,-6,-10
1527842223892604,-6,-10,-4,4,8,1,3,18
1527842223892604,16,21,7,-1,-4,-2,2,7
1527842223915542,11,-2,-5,0,-10,-9,-2,13
1527842223915542,-2,-14,-2,-3,3,2,-2,-4
1527842223916540,25,16,5,5,7,5,-1,1
1527842223916540,-33,-18,-5,-1,8,8,8,-3
1527842223928508,24,8,3,1,-10,-8,-7,-14
1527842223928508,-58,-24,-13,-8,-3,1,-2,-1
1527842223937484,25,8,1,-2,-8,-4,5,5
1527842223937484,13,21,5,7,2,1,-3,-12
1527842223952444,27,38,15,6,4,5,3,-4
1527842223952444,-26,-17,-1,-2,-7,-5,-3,0
1527842223952444,11,18,8,4,1,0,3,-14
1527842223952444,-24,-17,-7,-7,5,-1,-2,-18
1527842223975382,-12,-29,-9,-5,-6,5,0,5
1527842223975382,29,13,2,1,-4,-2,-1,14
1527842223976380,-33,-10,-5,-4,-2,10,4,2
1527842223976380,13,-12,-4,-2,-5,-15,-2,14
1527842223998321,-18,-7,-1,3,5,11,9,3
1527842223998321,-10,-8,-6,-6,-6,-11,-4,-5
1527842223998321,-32,-14,-4,2,9,7,-3,-6
1527842223998321,60,38,0,0,-3,0,-2,9
1527842224012284,-49,-18,-6,-7,-3,-7,-6,-16
1527842224012284,11,-8,-3,-2,3,2,17,24
1527842224013281,-1,-4,-6,-9,-23,-21,-33,-14
1527842224013281,-23,-19,-2,1,12,12,7,5
1527842224035223,17,11,2,-1,0,-1,-3,-12
1527842224035223,6,10,-1,-5,-7,-11,0,4
1527842224036220,-13,-13,3,12,13,17,16,-14
1527842224036220,13,-8,-4,-5,-6,-3,8,14
1527842224058161,3,8,4,4,3,8,12,7
1527842224058161,8,-2,-5,-6,-3,1,-7,-7
1527842224058161,-14,0,-2,-1,-2,-4,2,1
1527842224058161,16,10,7,-3,-6,0,2,-1
1527842224072124,-5,6,4,7,1,-5,3,4
1527842224072124,-31,-8,-7,0,6,-5,-17,-19
1527842224073122,24,3,5,18,18,1,13,11
1527842224073122,-32,-3,0,2,-2,26,-15,1
1527842224095062,7,-5,-1,-7,-6,-20,-7,3
1527842224095062,37,2,-5,-11,-8,3,2,4
1527842224096060,-16,-3,-1,-3,-15,-13,0,-9
1527842224096060,-16,-8,-2,3,10,-3,5,-3
1527842224118002,-16,3,5,20,14,9,-19,-26
1527842224118002,-11,1,1,7,16,7,18,3
1527842224118999,50,8,-4,-11,-7,4,-3,6
1527842224118999,-17,-2,-2,-14,-12,-30,-10,-5
1527842224131964,-12,1,-3,-5,-4,20,2,-13
1527842224131964,-4,-2,4,1,-7,-9,0,12
1527842224132961,16,-7,-7,-1,3,-8,-8,-22
1527842224132961,-14,-7,-1,-4,-4,12,0,-8
1527842224154903,4,5,1,-3,0,-3,1,28
1527842224154903,-8,-8,-5,2,0,-1,-11,-16
1527842224155900,22,4,0,-8,-4,-1,6,19
1527842224155900,-5,-6,-1,7,1,-9,-1,-3
1527842224177841,1,3,-2,-2,1,1,4,3
1527842224177841,28,1,1,-3,-2,-3,-8,-10
1527842224178839,-5,8,2,-9,-5,-3,5,21
1527842224178839,8,0,1,15,8,-5,-9,-4
1527842224191804,-11,-7,0,-2,-3,3,4,-10
1527842224191804,-17,-3,-2,-6,1,8,1,-17
1527842224192802,-8,-7,-6,-4,-5,-10,-3,2
1527842224192802,15,-1,-2,-1,-1,5,4,-3
1527842224214743,17,2,-2,-11,-13,-13,-1,7
1527842224214743,-6,0,0,7,8,0,-7,-19
1527842224221724,-13,-1,3,6,5,3,0,9
1527842224221724,-6,-5,-3,-5,-4,-12,-7,-6
1527842224237681,13,-1,-2,-2,-4,-4,3,-4
1527842224237681,6,4,1,-4,-5,5,5,16
1527842224238679,-31,-4,1,2,4,3,-13,-26
1527842224238679,-3,-11,-7,2,0,-1,6,3
1527842224251644,15,20,5,-6,-3,-3,-8,-9
1527842224251644,-8,-8,-5,-2,-5,-5,3,-2
1527842224252641,-3,-7,-4,-3,-3,-2,-4,-5
1527842224252641,3,5,0,-1,2,8,5,-15
1527842224275580,-5,-3,-3,-2,1,-7,-7,-4
1527842224275580,0,-3,-7,2,11,11,5,15
1527842224276577,-1,-7,2,-2,-7,-6,-5,-8
1527842224276577,20,21,8,0,-6,-6,-8,1
1527842224297521,-9,-15,-8,2,5,6,12,14
1527842224297521,-1,4,-1,-4,-6,-8,-11,-12
1527842224298519,9,-2,-11,-11,-3,0,0,2
1527842224298519,-6,11,4,3,2,-6,4,5
1527842224312481,10,-17,-3,-8,-10,-6,2,32
1527842224312481,10,21,6,8,9,14,1,-13
1527842224312481,-32,-18,-6,3,3,9,6,-5
1527842224312481,11,12,-4,-15,-15,-20,-7,16
1527842224334423,-15,-11,-5,2,6,2,-6,-24
1527842224334423,0,-2,3,9,-4,-5,1,2
1527842224335420,3,-20,-12,-9,-7,-6,2,11
1527842224335420,-16,20,13,2,-2,-5,-6,-12
1527842224357361,25,3,5,6,15,18,10,10
1527842224357361,-17,-10,-6,-11,-5,-3,-7,-15
1527842224358359,-3,0,-1,1,-1,-6,-6,-2
1527842224358359,-2,-16,-5,1,0,5,3,-4
1527842224372321,-5,3,-1,-3,-5,-4,-4,-10
1527842224372321,4,-5,3,-3,-4,-23,2,28
1527842224373319,8,10,2,2,9,35,0,-6
1527842224373319,-3,-10,-5,-2,0,19,29,6
1527842224394263,0,5,1,8,-1,-48,-60,-15
1527842224394263,-5,-5,0,-3,-5,-7,4,7
1527842224395260,4,14,5,4,-1,-11,2,-5
1527842224395260,-6,-8,-2,1,6,14,-5,16
1527842224418199,8,-1,-4,-11,-9,-3,8,-11
1527842224418199,-7,-1,0,7,2,15,7,13
1527842224418199,-5,4,5,-3,-1,-8,-8,-4
1527842224418199,-3,-17,-5,2,4,9,1,-12
1527842224432161,12,14,0,0,-5,1,22,25
1527842224432161,-4,-8,-2,-5,-9,-10,-12,-6
1527842224433159,-9,8,2,-3,1,6,1,-10
1527842224433159,4,-4,-6,-5,0,-4,5,9
1527842224455100,-17,-8,2,9,7,1,0,-13
1527842224455100,6,6,1,3,-2,0,-10,-13
1527842224455100,18,5,8,15,9,3,27,22
1527842224455100,12,-2,-2,-2,3,-29,-35,-9
1527842224478039,-17,4,-5,-5,-7,5,-2,-4
1527842224478039,-14,0,-3,-7,0,22,7,-8
1527842224479036,-20,-2,1,-1,0,-1,3,-9
1527842224479036,-3,-8,-2,2,-1,-8,6,5
1527842224499980,23,5,0,-3,3,0,7,17
1527842224499980,-20,-7,-2,1,4,-8,-8,-9
1527842224500978,-1,3,-6,-13,-16,-14,-21,-2
1527842224500978,6,3,3,3,-3,6,1,9
1527842224514940,-9,-6,1,0,-1,2,1,-7
1527842224514940,19,5,1,-6,-1,2,3,8
1527842224515938,-4,-7,-1,5,4,-1,0,15
1527842224515938,11,5,1,-3,-2,-4,0,-8
1527842224537879,-13,-6,-2,0,0,8,0,1
1527842224537879,2,-3,-6,-5,-8,-8,-6,1
1527842224538876,43,5,1,0,3,-2,2,2
1527842224538876,-38,-3,2,17,14,8,4,-4
1527842224560818,-11,-5,-5,-10,-12,-2,2,0
1527842224560818,21,3,0,-1,2,-3,0,-5
1527842224560818,-15,-5,-4,-4,-5,-2,-7,-7
1527842224560818,3,-5,0,-3,-5,0,0,-7
1527842224574780,3,-10,-8,-4,8,7,5,-14
1527842224574780,2,34,7,5,-1,-4,-3,7
1527842224575777,-1,-16,-3,-3,1,2,-4,-7
1527842224575777,8,-16,-7,-3,-1,-1,0,6
1527842224597719,-25,-2,-3,-2,-6,-4,-5,-32
1527842224597719,12,-8,-2,0,1,1,7,21
1527842224598716,-12,-6,-3,0,-4,-7,-2,1
1527842224598716,9,13,2,-1,-2,2,-2,-8
1527842224611681,6,-17,-6,-1,8,3,3,6
1527842224611681,-18,-9,-1,1,-1,5,2,-4
1527842224612679,7,-2,-2,-1,-15,-27,-14,-7
1527842224612679,12,23,14,6,4,4,5,5
1527842224634620,29,-6,-1,-3,5,12,3,22
1527842224634620,-25,-12,-2,2,3,-14,-7,-14
1527842224635618,-20,-16,-6,-1,14,20,3,-7
1527842224635618,57,29,2,-2,1,1,7,12
1527842224657559,-39,-19,-11,-11,-26,-24,-15,-1
1527842224657559,34,-5,6,6,5,6,-2,-15
1527842224658556,-30,-9,-11,-3,4,6,7,13
1527842224658556,-19,16,2,-5,-6,-3,-5,-2
1527842224671522,36,18,8,6,5,4,5,12
1527842224671522,-33,-30,-14,-9,-9,-11,-11,-21
1527842224679500,51,22,7,8,-3,-12,-3,1
1527842224679500,-6,-9,-4,2,5,13,-1,-4
1527842224694460,-23,4,3,2,-7,-12,-3,2
1527842224694460,-2,-16,-2,0,3,17,13,3
1527842224695458,33,57,22,13,20,27,16,14
1527842224695458,-30,-27,-14,-17,-5,-15,3,-9
1527842224717399,0,0,-3,-5,-13,-9,-31,-15
1527842224717399,1,-2,0,13,17,19,13,12
1527842224718397,-5,-2,-1,-6,-13,-14,-6,1
1527842224718397,9,-14,-3,0,-4,-1,0,4
1527842224731362,-11,8,-1,-9,-1,-7,1,-2
1527842224731362,20,14,3,1,5,11,-5,-2
1527842224739340,20,-4,-3,-5,-15,-17,6,11
1527842224739340,-42,-13,-4,0,2,5,-5,-18
1527842224754300,-2,-4,3,3,6,24,18,3
1527842224754300,8,13,-1,-5,-6,-25,-27,15
1527842224755298,-16,-7,-4,-5,-6,-10,-4,-22
1527842224755298,2,1,1,11,5,-1,0,-2
1527842224778236,13,7,4,-11,3,16,9,-2
1527842224778236,3,7,1,10,-5,-5,-7,4
1527842224778236,5,-4,2,3,26,16,-3,2
1527842224778236,2,-1,-2,-11,-32,-20,8,-4
1527842224791202,-16,-3,2,7,7,17,7,7
1527842224791202,8,6,2,-4,1,13,18,-2
1527842224800178,2,1,-4,-4,-6,-5,-10,-30
1527842224800178,-15,-1,0,8,16,-7,1,3
1527842224815138,17,2,0,-4,-11,6,1,-1
1527842224815138,-11,1,-5,-19,-19,-3,11,12
1527842224815138,-22,1,4,18,12,8,-3,-4
1527842224815138,16,-6,-2,-7,-3,2,-7,-4
1527842224838076,-15,4,-4,1,-16,-20,2,23
1527842224838076,9,0,-2,-4,0,-5,-9,-30
1527842224839074,13,-3,-8,-13,-10,-6,1,7
1527842224839074,-6,-4,-1,-2,-6,-5,-7,14
1527842224860017,7,5,5,12,26,11,-4,-12
1527842224860017,-10,-3,-3,-6,-15,-21,18,13
1527842224861015,-18,-10,-4,0,-7,5,-23,-26
1527842224861015,8,-6,0,0,5,7,2,5
1527842224874977,-1,7,-7,-13,-8,-6,2,4
1527842224874977,-4,-8,0,15,6,-11,0,-12
1527842224874977,-2,-1,0,0,4,23,8,-2
1527842224874977,7,9,4,2,5,-12,1,30
1527842224897916,-20,-5,-4,0,1,-14,-18,-19
1527842224897916,-4,-7,-6,-5,-6,1,-6,-8
1527842224898914,-14,-9,-3,-7,-5,-8,-1,12
1527842224898914,-12,0,-3,-4,-2,7,-4,-20
1527842224919858,20,2,2,6,-6,-2,2,4
1527842224919858,8,-2,1,-4,16,-1,0,20
1527842224920855,-5,11,-2,-1,-5,-6,-6,-34
1527842224920855,-14,-12,2,0,4,18,4,6
1527842224934818,-10,1,-1,1,2,-11,-2,-11
1527842224934818,17,6,5,3,2,5,-5,-2
1527842224935815,-4,-9,-5,-1,-4,-2,10,36
1527842224935815,-2,-4,-4,-1,-3,-5,-7,-23
1527842224957756,5,11,-1,-3,-1,-1,1,9
1527842224957756,-15,-13,-4,2,1,4,-6,-13
1527842224958754,5,20,8,3,0,-3,5,13
1527842224958754,45,-3,-2,-8,-9,-12,-6,0
1527842224980695,0,-10,2,17,17,-11,-4,5
1527842224980695,-20,2,-2,-1,-8,14,4,-12
1527842224982690,-19,-10,-2,4,6,-13,-8,4
1527842224982690,-9,6,-1,-6,-9,0,-3,-6
1527842224994658,3,-4,-2,-6,-5,-11,-4,-2
1527842224994658,36,5,-2,-2,-3,-9,-1,6
1527842224995656,0,6,9,5,4,11,6,2
1527842224995656,-5,-3,-8,-3,-2,-1,2,5
1527842225017596,-9,-9,-3,-2,0,0,-1,-2
1527842225017596,-16,-8,-6,-7,-3,-4,-6,0
1527842225018594,11,24,9,2,-1,2,-2,-17
1527842225018594,-19,-3,-3,-2,2,-4,-6,-10
1527842225040535,28,-24,-11,-3,7,11,5,6
1527842225040535,-43,3,-1,-2,-3,-1,-13,-27
1527842225041533,-4,-13,-8,-13,-13,-13,0,10
1527842225041533,9,16,7,10,5,8,7,-1
1527842225054498,11,-9,-3,-4,-10,-6,-3,-6
1527842225054498,-2,-5,3,4,7,-4,0,10
1527842225055495,-1,-22,-10,-6,0,5,0,7
1527842225055495,2,35,10,-3,-11,-15,-13,-2
1527842225077436,-9,-7,-2,0,9,20,3,0
1527842225077436,29,13,2,1,0,-7,-1,2
1527842225078434,3,-12,-8,-9,-16,-15,-4,12
1527842225078434,-38,-47,-18,-3,3,-2,-3,-8
1527842225100375,40,19,7,2,-1,-1,-6,14
1527842225100375,-37,37,19,-2,3,3,0,-31
1527842225101373,-26,-19,-7,3,10,6,4,1
1527842225101373,2,-10,-3,-5,-7,-5,-4,-9
1527842225114338,13,1,0,0,-8,-9,-1,-2
1527842225114338,-13,-16,-10,-10,-14,-5,-7,4
1527842225115336,35,9,5,3,6,-9,9,24
1527842225115336,-30,-3,-2,-6,-8,5,-6,-15
1527842225138274,-27,1,3,8,21,11,-2,-7
1527842225138274,18,-3,0,8,5,20,14,19
1527842225138274,8,4,3,1,-5,-12,-21,-16
1527842225138274,-10,-11,-2,-1,0,-3,-12,8
1527842225160215,18,11,-2,-8,-12,-11,9,14
1527842225160215,6,-6,-6,-11,-5,-26,-17,-4
1527842225161213,-4,0,0,1,0,8,6,-24
1527842225161213,-17,0,-1,-6,-9,16,10,13
1527842225174178,29,12,6,4,-5,9,4,0
1527842225174178,-29,-16,2,32,37,11,9,-11
1527842225175176,14,9,-4,-17,-11,-7,-3,11
1527842225175176,27,-4,1,5,1,-5,-9,-3
1527842225198114,7,7,-2,-9,14,-7,-16,-6
1527842225198114,-25,-13,-5,-8,-23,1,5,0
1527842225199112,-11,-7,-1,-2,14,-2,1,-9
1527842225199112,36,8,3,3,5,2,8,14
1527842225220055,-34,-5,3,9,-1,1,1,-9
1527842225220055,30,3,-7,-10,-8,-8,-8,12
1527842225221053,1,3,0,-6,-7,-2,4,10
1527842225221053,-5,1,-2,-1,5,6,6,-22
1527842225234018,-20,-5,1,6,-5,-9,-3,-1
1527842225234018,4,-7,-3,1,10,0,0,5
1527842225241997,6,13,2,4,-15,7,2,19
1527842225241997,9,2,-2,-4,1,-1,9,0
1527842225257954,8,3,2,1,3,0,1,-3
1527842225257954,-32,-3,-1,4,-3,-2,-2,-4
1527842225258951,-1,-10,-1,7,4,12,2,-6
1527842225258951,8,13,6,18,12,-2,-1,14
1527842225279895,-14,-15,-7,-19,-12,-7,4,-32
1527842225279895,32,30,5,-3,-6,6,4,22
1527842225281890,36,1,7,6,9,7,9,0
1527842225281890,-16,-1,-5,-4,-4,-7,-4,-5
1527842225293858,-22,-15,-7,-3,-7,1,-1,0
1527842225293858,0,-17,-4,-4,0,-8,-3,-1
1527842225301837,2,10,2,2,-1,0,-6,-9
1527842225301837,3,7,3,-3,-1,5,4,7
1527842225317794,-7,-13,-4,1,3,2,5,5
1527842225317794,30,13,0,-4,-2,3,0,1
1527842225318792,-18,-9,-4,-4,-4,-3,-6,-10
1527842225318792,-19,-13,-2,-1,0,-1,0,-4
1527842225340733,-4,13,3,-1,-3,-8,-10,5
1527842225340733,-5,-12,-6,-9,-15,-8,-7,-25
1527842225340733,-11,-4,6,15,18,7,9,7
1527842225340733,22,-1,-6,-7,-6,2,-7,-15
1527842225354695,3,31,15,10,-3,-2,2,11
1527842225354695,18,-5,-1,-5,18,20,11,-5
1527842225355693,-38,-39,-13,-7,-12,-20,-13,-9
1527842225355693,-14,10,-5,1,-3,-9,-9,-8
1527842225377634,23,9,4,0,3,8,9,-6
1527842225377634,-23,-15,-6,-7,-13,-7,1,25
1527842225378631,17,55,20,6,2,-1,2,0
1527842225378631,16,-15,-8,-5,13,7,6,-2
1527842225400573,-38,-19,-10,-10,-13,3,-6,-6
1527842225400573,37,9,5,6,0,-28,-7,2
1527842225401570,-8,-14,-10,-9,-10,23,3,-2
1527842225401570,1,1,9,20,13,2,0,13
1527842225414535,-12,9,1,-13,-12,-19,-1,-6
1527842225414535,-7,-14,-3,8,14,27,-1,0
1527842225415533,20,0,-4,-3,-9,-18,9,1
1527842225415533,-21,-14,-5,-7,-8,-7,-5,6
1527842225437474,11,-1,0,4,7,9,6,-14
1527842225437474,3,25,5,-5,-2,0,-5,2
1527842225438472,-2,11,3,0,0,-2,-4,-6
1527842225438472,11,2,-1,-4,-5,0,8,7
1527842225460413,-19,-16,-4,-1,-1,-2,-12,-14
1527842225460413,-12,-14,-6,-7,-10,-13,-6,-6
1527842225461410,-1,4,4,12,13,0,11,5
1527842225461410,-4,3,1,-5,-3,8,-19,0
1527842225474375,12,2,0,-2,-1,6,19,24
1527842225474375,-1,-2,-2,-6,-9,14,-6,-39
1527842225475373,2,-1,0,8,14,-1,-2,24
1527842225475373,-46,-10,-3,-6,-11,-25,-1,-8
1527842225497314,22,-2,-1,2,4,6,-15,-13
1527842225497314,7,9,0,-5,-2,10,16,31
1527842225498312,-53,-24,-11,-16,-16,-34,-6,-34
1527842225498312,40,1,1,5,14,35,-14,-5
1527842225519255,15,15,4,6,10,7,7,22
1527842225519255,-35,-18,-6,-4,-1,27,17,-5
1527842225527234,39,-9,-8,-7,-14,-41,-50,-15
1527842225527234,-13,11,3,-1,-12,-15,14,9
1527842225534215,-49,-14,-6,0,15,2,1,-18
1527842225534215,58,9,4,9,2,-3,-9,8
1527842225535213,-8,-6,-5,-7,-2,16,5,20
1527842225535213,-5,2,5,10,6,-10,-3,-18
1527842225557154,12,-5,-2,-5,-12,0,7,1
1527842225557154,-27,0,-4,1,-7,-21,5,-5
1527842225558152,-3,-8,2,-1,12,32,-23,4
1527842225558152,-8,6,2,1,-2,-19,9,-1
1527842225580093,10,2,-3,-4,-18,-11,-12,17
1527842225580093,31,11,3,-1,3,-15,0,7
1527842225581090,-43,-12,-7,-5,-5,13,7,-6
1527842225581090,18,-3,-7,-5,3,5,-5,2
1527842225594055,-15,-27,-2,2,0,-4,-2,-14
1527842225594055,14,60,25,6,3,-10,0,11
1527842225602034,27,9,-3,0,0,3,9,6
1527842225602034,-23,-10,-4,-1,-3,2,3,-6
1527842225616994,7,-10,-6,-2,0,-4,2,-8
1527842225616994,7,-12,-4,-3,-5,-4,-10,26
1527842225617992,-22,-1,-2,-5,-4,-5,-2,-33
1527842225617992,9,4,5,6,3,9,10,12
1527842225639932,10,5,-3,0,3,-1,-2,-12
1527842225639932,-23,-13,-3,-4,-3,0,-9,-9
1527842225640930,-6,3,0,-1,-7,5,11,11
1527842225640930,14,-2,0,-2,2,-5,-5,-2
1527842225653895,1,0,-1,-1,0,-2,-8,-3
1527842225653895,-3,-10,-7,-1,1,-2,-2,-4
1527842225661874,11,20,10,5,-5,4,11,14
1527842225661874,10,2,-2,-13,-5,-3,-4,-11
1527842225676834,-6,-3,-2,14,5,0,-2,4
1527842225676834,-30,6,-2,-1,11,3,1,-3
1527842225677832,28,-5,-4,0,-2,-3,1,-8
1527842225677832,-37,-15,-5,-3,-12,-2,1,6
1527842225700770,48,20,-4,-3,0,1,1,15
1527842225700770,-10,-9,5,0,1,2,10,0
1527842225700770,1,-25,-8,1,-4,-7,-8,-9
1527842225700770,1,55,16,-1,-3,-4,-9,-24
1527842225713735,-7,-28,-13,-13,-9,-3,-2,7
1527842225713735,4,-10,-7,2,1,2,2,0
1527842225721714,5,-1,5,6,20,21,12,6
1527842225721714,-10,-15,-6,-2,-13,-21,-12,-2
1527842225736674,6,4,3,-2,-5,7,-5,1
1527842225736674,-11,1,3,2,5,6,1,3
1527842225737672,44,-5,-5,-6,-8,-13,-1,8
1527842225737672,-21,28,5,4,-1,-16,-8,-3
1527842225760610,29,9,6,-5,1,11,8,7
1527842225760610,-33,-27,-5,7,5,-9,-23,-14
1527842225761608,-5,-2,-6,-3,1,0,-1,-4
1527842225761608,-1,-45,-16,-3,0,4,5,3
1527842225773575,11,70,30,2,-13,-21,-8,-15
1527842225773575,12,-23,-6,2,17,20,7,-9
1527842225782552,-2,-8,-4,-1,7,5,7,-2
1527842225782552,-6,-9,-1,2,2,9,6,3
1527842225797511,-48,-35,-16,-11,-5,-3,3,-12
1527842225797511,15,-6,-8,-8,-19,-24,-8,2
1527842225797511,-10,19,14,11,8,12,-6,0
1527842225797511,12,-10,0,4,3,9,10,2
1527842225820450,24,4,0,7,14,38,5,16
1527842225820450,-21,8,1,1,-11,-32,-18,-4
1527842225821448,-21,-6,-4,-8,-3,-7,-7,-9
1527842225821448,17,9,2,0,2,0,0,7
1527842225834413,-17,-5,0,5,-2,-8,0,7
1527842225834413,2,-1,-4,-12,-5,-4,3,-33
1527842225842391,-4,-3,-2,6,0,-2,4,1
1527842225842391,23,2,-3,-1,5,20,3,10
1527842225857351,-4,0,-3,-12,-2,-23,-17,-22
1527842225857351,-15,-11,-10,6,-15,4,8,15
1527842225858349,1,3,1,-6,2,-20,-15,1
1527842225858349,-3,3,7,5,14,16,-1,-14
1527842225880290,-20,-18,-6,3,-16,-1,19,22
1527842225880290,31,10,2,7,27,-8,-19,-4
1527842225881288,10,4,-3,-6,-12,-5,4,2
1527842225881288,-4,1,-1,-5,-5,17,13,24
1527842225903229,-38,-14,-5,-6,0,-5,-8,-34
1527842225903229,41,7,-4,-11,-16,-4,-8,18
1527842225903229,-5,1,5,10,5,4,6,-2
1527842225903229,-7,0,-6,-9,-4,-21,-12,-13
1527842225917191,4,-1,-4,-8,-3,-2,2,19
1527842225917191,10,6,8,15,5,8,11,2
1527842225918189,-24,1,3,10,15,-1,-4,-10
1527842225918189,-11,-8,-3,2,-1,-1,5,-8
1527842225940130,12,0,-4,-8,-9,-4,1,8
1527842225940130,-8,0,7,3,9,12,3,-14
1527842225941128,6,4,-5,-16,-16,-1,-3,5
1527842225941128,-10,-12,5,16,11,-6,2,17
1527842225963069,9,3,-4,2,5,4,5,-2
1527842225963069,-16,0,-4,-12,-6,-1,-2,-9
1527842225964067,-7,-7,-3,-8,-11,-1,-2,-7
1527842225964067,1,0,-4,-3,-8,-22,-19,-16
1527842225977033,16,-5,2,5,13,10,-10,-4
1527842225977033,-19,-7,-8,-6,0,15,8,-11
1527842225978030,15,13,6,3,-1,-6,2,2
1527842225978030,6,8,-7,-8,-8,3,0,4
1527842225999970,-20,-4,-1,4,3,-10,-5,-4
1527842225999970,0,-10,-5,-3,-6,-7,-6,-3
1527842226000968,-10,-9,-5,-2,-3,7,5,8
1527842226000968,13,5,3,1,0,0,-1,-4
1527842226022909,28,30,11,9,3,-1,4,7
1527842226022909,-4,-7,-3,-6,-5,3,6,3
1527842226023906,-39,-19,-11,-6,-7,-13,-3,-1
1527842226023906,31,4,4,1,8,20,1,-2
1527842226036871,-20,-3,0,3,5,0,-2,-3
1527842226036871,18,3,5,6,-5,-5,-2,16
1527842226044850,-16,-2,1,-1,-3,-7,-3,-20
1527842226044850,-8,-10,-3,-6,-6,3,-1,9
1527842226060808,11,13,-1,-4,-4,1,3,-22
1527842226060808,8,-3,1,-1,4,-1,-2,8
1527842226060808,27,-2,0,3,1,3,1,7
1527842226060808,-17,-8,-11,-10,-16,-12,-3,7
1527842226082749,-18,-26,-6,0,-6,-8,-10,-6
1527842226082749,-9,34,11,5,12,7,9,-3
1527842226083747,-6,-1,-5,-5,1,4,-3,-2
1527842226083747,9,-17,0,5,14,22,14,-5
1527842226096711,-38,-33,-12,-11,-9,-20,-14,1
1527842226096711,7,11,-2,-3,-8,-13,2,4
1527842226097709,2,16,9,5,5,9,11,4
1527842226097709,-6,-16,-2,3,-2,-14,-16,-25
1527842226120648,-6,2,6,0,1,2,5,18
1527842226120648,28,24,5,-3,-7,-20,-11,7
1527842226121645,-11,-4,-4,-3,-2,27,7,-10
1527842226121645,16,3,4,7,8,-2,9,9
1527842226142589,-12,-22,-11,-3,-1,0,-9,-16
1527842226142589,-12,2,3,-4,-7,-7,-1,-7
1527842226143587,21,11,2,4,0,-9,-1,23
1527842226143587,-10,11,9,2,1,4,3,5
1527842226157549,5,0,-5,-4,3,2,3,-3
1527842226157549,-5,-31,-14,-5,0,7,0,-5
1527842226157549,-14,-14,-8,-7,-6,-12,-7,-10
1527842226157549,-1,4,0,-2,-10,3,-1,3
1527842226180488,16,9,3,3,1,-3,4,11
1527842226180488,-8,-17,-12,-12,-4,5,-1,-7
1527842226181485,-8,3,3,16,6,-10,5,-7
1527842226181485,8,11,-4,-11,-9,13,18,16
1527842226202429,19,6,1,5,16,1,-29,-1
1527842226202429,-12,-8,0,-3,-5,25,8,8
1527842226203427,-17,-2,-1,4,8,-19,4,3
1527842226203427,37,7,-1,-4,-4,-12,-4,0
1527842226217389,-49,-9,-8,-14,-15,-6,1,-15
1527842226217389,59,6,5,6,5,10,1,6
1527842226218387,-30,-9,-4,-5,-6,-8,-10,-1
1527842226218387,-17,-2,-1,-6,-5,-2,-3,-17
1527842226240328,-7,6,4,2,3,8,10,4
1527842226240328,-1,-9,0,14,11,-7,-3,25
1527842226242323,32,3,3,1,-2,8,11,9
1527842226242323,-6,7,-3,-8,-4,-45,-30,6
1527842226263266,4,2,4,16,8,23,17,-12
1527842226263266,-19,-11,-5,-9,-4,-4,-12,-5
1527842226264264,7,4,1,-2,2,14,12,4
1527842226264264,-10,-9,0,4,0,-5,-24,-6
1527842226276232,-1,1,-2,-3,-8,-13,14,-15
1527842226276232,-4,0,1,-3,-1,-4,3,46
1527842226285208,6,2,1,-2,-6,12,6,-24
1527842226285208,13,4,-1,-1,14,9,6,-6
1527842226300168,23,0,4,4,2,2,-6,15
1527842226300168,-7,2,-5,-5,-10,-8,-4,-38
1527842226301165,-23,-2,0,-5,-7,-12,-19,-1
1527842226301165,-4,5,2,6,0,4,13,7
1527842226323106,5,-12,-7,-3,-2,-6,-6,-1
1527842226323106,-17,24,7,-1,0,6,0,-14
1527842226324104,21,-16,-10,-16,-17,-17,-10,5
1527842226324104,-26,0,5,14,12,25,9,-20
1527842226345048,3,-5,-1,12,10,-22,-9,20
1527842226345048,-8,-11,-7,-6,-7,10,-6,-23
1527842226347043,-5,-4,-4,2,2,6,3,23
1527842226347043,0,-7,-2,-9,-12,-12,-6,-5
1527842226360008,28,3,0,-6,-7,5,3,5
1527842226360008,-1,-8,-2,3,3,-8,1,-2
1527842226361005,-7,8,3,5,4,-7,-4,-14
1527842226361005,8,-9,-4,1,-3,5,-4,-17
1527842226382946,-8,9,2,2,2,6,3,25
1527842226382946,-18,-13,-4,-5,-4,-11,-1,-8
1527842226383944,-14,8,4,2,3,11,0,1
1527842226383944,35,1,-2,1,2,-4,4,6
1527842226396909,-29,-24,-3,-6,-4,-1,-6,-1
1527842226396909,19,36,5,1,-1,3,2,-9
1527842226397907,0,-2,2,-1,2,-3,-2,3
1527842226397907,-4,-4,0,4,0,0,-1,12
1527842226420845,15,3,0,-5,-8,-2,0,-11
1527842226420845,-11,-11,-5,0,0,-4,-4,-4
1527842226420845,11,2,3,15,15,5,-5,-3
1527842226420845,-8,-1,-4,-6,-8,-14,-6,-7
1527842226442786,10,7,1,-3,-5,2,3,19
1527842226442786,-15,-11,0,2,1,1,3,-11
1527842226443784,11,2,-2,-10,-6,4,4,-16
1527842226443784,-13,-14,-4,4,3,1,4,21
1527842226456749,5,2,-5,-7,-5,-11,-17,-35
1527842226456749,-8,12,2,5,7,9,13,23
1527842226457747,7,-8,-2,2,-1,4,-1,4
1527842226457747,-15,-2,-1,0,-5,-1,5,17
1527842226480685,-11,-16,-13,-9,8,1,-5,-12
1527842226480685,38,-13,-8,-4,0,9,4,7
1527842226480685,14,-18,-5,-7,-7,-7,2,2
1527842226480685,-18,30,1,-5,-6,-1,-5,-21
1527842226502626,9,9,10,9,-5,-4,-2,3
1527842226502626,-12,-12,0,-10,-6,-1,3,-10
1527842226503624,35,8,1,15,18,4,-4,29
1527842226503624,-4,-2,-2,-4,-8,-15,-4,-3
1527842226517587,-37,-32,-7,0,1,-8,-8,-16
1527842226517587,35,34,11,10,17,24,35,35
1527842226517587,-32,-1,-3,-11,-14,-5,-8,-14
1527842226517587,21,18,3,0,-1,3,11,4
1527842226540525,30,-5,4,13,27,30,15,23
1527842226540525,-41,-21,-12,-11,-22,-25,-26,-27
1527842226541523,2,13,10,3,-7,-10,-4,-3
1527842226541523,-4,-29,-13,-5,3,-2,-1,6
1527842226562467,-20,31,9,2,-2,2,2,-11
1527842226562467,37,-8,-8,-1,-1,-6,-2,15
1527842226563464,-5,0,-2,-3,-4,-4,-7,3
1527842226563464,-14,-9,-1,-2,-1,-6,1,-17
1527842226576429,-11,-4,-2,-2,-7,-8,1,-5
1527842226576429,46,7,1,2,8,22,4,12
1527842226584408,-42,-9,-1,-3,-1,-7,-16,-45
1527842226584408,-4,-5,-4,-4,-3,-4,17,43
1527842226600365,33,14,2,-6,-5,-3,-1,5
1527842226600365,-21,2,2,5,-1,5,1,-10
1527842226601363,-9,-12,-6,-9,-3,-7,-16,-6
1527842226601363,19,4,5,12,14,-3,10,-1
1527842226623304,-26,-3,-3,3,-1,5,-14,-9
1527842226623304,-17,-9,-5,-6,-11,-20,8,7
1527842226623304,31,8,2,0,2,25,-12,15
1527842226623304,-2,-1,-2,3,-1,0,-3,-30
1527842226636269,14,8,0,-11,-5,-3,0,-6
1527842226636269,-44,-9,1,0,-3,-6,-13,-15
1527842226644248,1,5,0,6,6,-19,6,0
1527842226644248,79,20,5,2,-2,16,9,23
1527842226660205,-35,-6,-3,-8,-2,2,-11,-8
1527842226660205,-12,-17,-3,-4,-8,-21,-11,-15
1527842226660205,-20,-5,-4,-7,-2,9,9,-15
1527842226660205,-12,-9,0,-1,-2,-5,-21,-2
1527842226683144,19,10,2,17,11,13,17,6
1527842226683144,2,-4,-8,-15,-22,-39,-12,6
1527842226683144,11,9,5,12,21,24,20,7
1527842226683144,-25,-9,-1,-5,-19,-16,-23,-10
1527842226696109,-43,-8,0,2,13,-6,18,-12
1527842226696109,40,6,4,3,11,34,-8,17
1527842226705085,14,-1,-4,-10,-17,-13,3,-20
1527842226705085,-1,5,-1,-4,6,4,-2,-11
1527842226720045,17,1,-2,-10,-14,-5,5,12
1527842226720045,-23,-1,3,4,-2,-14,-5,10
1527842226720045,0,-7,-5,-2,0,-4,1,6
1527842226720045,-8,-1,-3,0,2,15,4,2
1527842226742984,11,-9,-6,-3,-7,-11,-15,4
1527842226742984,2,10,5,10,8,8,3,-3
1527842226743982,-3,0,-2,0,-3,0,1,-11
1527842226743982,-49,-14,-6,-4,1,-1,-3,-16
1527842226756946,42,15,2,-1,-3,0,0,17
1527842226756946,-33,-10,-4,-2,0,0,1,-19
1527842226764925,-3,5,1,-5,-5,-3,-1,0
1527842226764925,6,-4,-1,3,3,4,2,3
1527842226779885,-7,-3,3,3,2,0,4,3
1527842226779885,14,-4,-2,-1,1,2,-3,-9
1527842226780883,-1,3,-1,1,2,-3,-4,7
1527842226780883,9,9,2,-6,-2,1,1,2
1527842226802824,-26,-18,-6,-2,-5,3,-3,4
1527842226802824,-2,12,2,2,0,-3,0,-12
1527842226803822,10,-9,-5,-4,-5,1,6,5
1527842226803822,2,-6,-3,2,6,5,1,8
1527842226816787,2,14,0,-4,-5,-6,-6,-11
1527842226816787,-15,-10,1,-1,-4,-1,-1,-14
1527842226824765,11,-8,-1,4,-1,-3,2,21
1527842226824765,-7,0,0,0,-1,-10,-2,-10
1527842226839725,12,-1,-3,-4,-9,9,-5,-11
1527842226839725,-7,-4,2,1,8,4,3,-6
1527842226840723,-5,-6,-1,-1,6,4,5,10
1527842226840723,57,26,12,6,1,-2,-3,6
1527842226862664,-90,-58,-12,-2,-6,-3,-2,-32
1527842226862664,43,62,9,6,3,-4,-4,6
1527842226863662,-16,-2,-2,-6,7,4,0,0
1527842226863662,1,-19,-11,0,1,2,0,13
1527842226885603,-18,-8,-5,0,-6,-2,-3,-24
1527842226885603,46,-24,-8,-7,-21,-20,-5,34
1527842226886600,-59,-4,3,6,24,12,-1,-32
1527842226886600,-14,-7,-3,-1,15,16,10,8
1527842226899565,14,13,1,-5,-9,11,0,0
1527842226899565,-56,-38,-10,-4,-11,-31,-15,-14
1527842226900563,28,14,2,0,-19,-7,-9,22
1527842226900563,13,1,-1,-5,-5,14,16,-22
1527842226922504,-3,4,1,4,13,-4,6,17
1527842226922504,14,2,-2,-5,-5,-3,0,5
1527842226923502,9,-11,-8,-7,-7,-11,-13,-19
1527842226923502,-10,24,16,10,9,10,8,4
1527842226945443,27,-25,-12,3,19,17,13,15
1527842226945443,23,46,18,5,6,10,3,2
1527842226946441,-8,-31,-14,-14,-13,-11,3,19
1527842226946441,-14,-15,-8,-3,-11,-10,-7,-4
1527842226959405,12,17,4,-10,-15,-25,-15,-10
1527842226959405,-13,-16,0,12,18,23,9,9
1527842226960405,-2,9,5,11,2,6,10,-2
1527842226960405,-2,-16,-5,2,0,-4,-21,-12
1527842226984339,-1,16,5,-2,-1,-17,7,7
1527842226984339,4,-2,-5,-1,8,33,26,15
1527842226986334,-8,5,0,-8,-13,-23,-21,-36
1527842226986334,1,9,1,-4,-3,-1,-9,7
1527842227005283,28,9,4,-6,-5,1,-7,-2
1527842227005283,-10,-1,2,9,6,-1,3,8
1527842227006280,6,0,1,-2,2,-7,13,3
1527842227006280,-9,-1,-4,-4,-6,-10,-9,20
1527842227019246,20,5,2,-11,-6,17,2,7
1527842227019246,-66,-21,-10,9,2,-17,-12,-34
1527842227020243,-1,4,1,-2,3,-1,-17,6
1527842227020243,3,0,1,5,1,-14,-8,-6
1527842227043182,33,12,3,4,-12,-2,13,24
1527842227043182,-23,-10,-8,-22,-3,-5,-12,-22
1527842227044184,48,17,11,29,17,8,20,8
1527842227044184,-32,-11,-7,-14,-15,4,-3,-4
1527842227065123,-5,-4,-4,5,16,-14,1,0
1527842227065123,19,2,2,2,2,13,2,-3
1527842227066120,-1,-4,2,2,0,4,-3,-1
1527842227066120,-15,-9,-5,-9,-8,2,5,-17
1527842227080083,14,3,-3,-8,-7,-5,-5,0
1527842227080083,-11,-6,0,10,5,-7,10,8
1527842227080083,7,8,3,1,1,0,6,9
1527842227080083,2,0,2,3,2,3,5,-21
1527842227103021,-21,-2,-3,0,-4,-5,-6,12
1527842227103021,25,-6,2,-2,-2,8,2,20
1527842227104019,-14,7,-3,-3,-4,9,4,6
1527842227104019,-2,-9,-2,-5,-4,-9,-9,-14
1527842227124963,8,5,-4,-4,-4,5,4,3
1527842227124963,-11,-2,3,8,10,6,-7,-2
1527842227125960,-4,-7,-3,-1,-3,-2,0,4
1527842227125960,-6,-9,-7,-6,-2,-10,-6,-7
1527842227139923,18,9,4,10,4,1,-6,-2
1527842227139923,13,24,4,-4,-7,-3,0,-1
1527842227140920,-32,-15,-3,-5,-4,-7,-10,-11
1527842227140920,40,9,1,6,5,9,14,7
1527842227162861,-25,-8,-2,-3,-1,-6,-8,-13
1527842227162861,1,-6,-8,-10,-11,-4,-9,-1
1527842227163859,1,0,-2,-3,-3,5,3,-4
1527842227163859,-15,-2,2,-1,0,3,3,2
1527842227185800,2,-15,-2,2,6,3,4,10
1527842227185800,8,12,0,-3,1,1,-2,-32
1527842227185800,8,11,0,-4,-5,-3,-2,23
1527842227185800,-13,-23,-4,-3,-8,-8,-11,-10
1527842227199763,10,30,17,8,4,-1,0,17
1527842227199763,-2,-13,-8,3,14,15,7,-11
1527842227200761,2,1,-6,-8,-7,-3,-4,14
1527842227200761,4,7,2,2,-8,-13,-13,-7
1527842227222702,-28,-20,-9,1,-3,-12,1,-15
1527842227222702,13,-10,-1,-2,-10,9,4,27
1527842227223700,33,10,-4,-10,1,4,2,-27
1527842227223700,-46,-21,-6,-6,4,3,8,19
1527842227245640,15,9,-1,5,7,1,-11,-16
1527842227245640,10,14,-1,-14,-4,18,4,11
1527842227245640,-37,-37,-15,1,-7,-7,-5,-20
1527842227245640,20,15,9,10,6,-12,8,12
1527842227259603,-11,-27,-8,-9,-12,1,-19,-12
1527842227259603,-8,-18,-5,-4,-4,-19,-2,-12
1527842227260600,28,24,12,9,0,4,-9,10
1527842227260600,-28,-19,-12,-6,0,8,-1,-13
1527842227290520,9,-20,-2,8,-3,-12,-7,-14
1527842227290520,-25,49,16,3,10,7,9,21
1527842227291518,19,4,9,9,27,33,16,-2
1527842227291518,43,12,-1,3,-4,1,1,30
1527842227305480,-6,6,2,-2,3,6,2,-17
1527842227305480,-16,-11,-2,-8,-18,-22,-15,17
1527842227306478,7,8,-5,-10,-15,-22,-7,9
1527842227306478,6,1,2,0,-4,4,1,2
1527842227319443,12,11,0,3,7,-7,12,8
1527842227319443,-27,-25,-12,-2,2,17,7,-29
1527842227320441,-5,-3,2,11,7,12,-3,-3
1527842227320441,14,9,2,-5,-3,-5,0,16
1527842227343379,-6,-4,-5,-7,-8,3,-11,-12
1527842227343379,30,1,-2,-4,-12,-32,-1,9
1527842227343379,-24,-9,-2,1,4,13,10,0
1527842227343379,-5,13,2,-5,-6,-17,-4,-15
1527842227365320,31,11,3,12,10,26,12,19
1527842227365320,-18,-12,0,4,9,13,-10,-10
1527842227366318,24,2,0,-4,-13,-8,-2,10
1527842227366318,-3,-3,-11,-22,-17,3,5,4
1527842227379283,-14,3,6,6,18,21,18,-18
1527842227379283,-15,-11,-1,18,5,-38,-58,-11
1527842227380281,-19,-6,-1,-4,-5,16,20,10
1527842227380281,-14,0,2,4,5,-11,-4,-19
1527842227403219,-6,-8,-11,-19,-13,5,1,-6
1527842227403219,72,14,-3,-7,-15,-9,5,18
1527842227403219,-34,-1,-1,-10,8,-18,-19,-5
1527842227403219,16,-10,-2,1,-23,21,5,-2
1527842227425161,-43,2,6,16,23,2,4,-14
1527842227425161,-3,-10,-4,-7,0,-9,-2,-9
1527842227426158,-2,-1,2,-4,-9,-14,-1,5
1527842227426158,1,2,-3,-9,-6,-17,-13,-22
1527842227439123,12,7,2,4,-3,21,2,25
1527842227439123,-15,-4,-3,3,-3,-18,8,-25
1527842227447102,17,-3,-1,2,-5,8,-11,0
1527842227447102,-18,-1,3,-4,5,-3,-12,-5
1527842227463059,17,7,0,2,-3,-14,11,8
1527842227463059,5,0,-4,-9,-7,6,-10,8
1527842227464057,-15,-8,-4,-1,-3,-14,-1,-8
1527842227464057,-9,1,4,12,10,8,10,-7
1527842227485000,18,1,-1,-9,-7,-12,-8,3
1527842227485000,-9,1,4,2,7,15,16,1
1527842227485998,-3,-4,-3,-2,-5,-8,-8,-9
1527842227485998,18,8,4,9,9,-7,0,18
1527842227498963,-15,-7,-4,-5,1,16,-4,-6
1527842227498963,-10,-8,-4,-3,-3,-1,2,-10
1527842227506942,-1,4,-1,-1,-5,-5,-7,-6
1527842227506942,7,5,3,3,7,13,10,2
1527842227522899,-11,-3,-1,-4,-9,-28,-28,-2
1527842227522899,-5,0,0,-2,-7,3,3,4
1527842227523897,-4,-2,-1,7,8,9,10,-5
1527842227523897,10,-4,-1,6,12,-3,-4,-3
1527842227545838,-2,-1,-2,-4,-6,-4,2,6
1527842227545838,-1,-16,-10,-8,-2,7,1,-1
1527842227545838,21,47,30,12,4,-8,-7,11
1527842227545838,-17,-13,-9,-3,-3,3,-7,-48
1527842227558803,-1,0,0,-1,-3,-4,0,10
1527842227558803,-3,-24,-7,-2,-6,-2,-1,-6
1527842227566782,-19,-4,-12,-7,-9,0,2,-20
1527842227566782,6,1,3,6,9,5,1,48
1527842227582739,-5,13,3,-3,6,5,2,-46
1527842227582739,-9,-21,-4,3,9,3,0,-11
1527842227583737,15,27,21,5,-11,-7,0,9
1527842227583737,17,7,3,3,7,11,4,0
1527842227605678,-1,15,7,4,8,3,2,14
1527842227605678,-3,-24,-10,1,-7,-8,-1,9
1527842227605678,4,-16,-6,-11,7,0,-7,-15
1527842227605678,-13,-7,-6,4,11,9,9,-11
1527842227618643,-19,-11,-1,2,-2,14,7,11
1527842227618643,5,18,5,-2,-11,-22,-17,-13
1527842227627619,22,8,0,-4,-14,-1,-11,8
1527842227627619,-16,-3,0,10,9,-1,12,-3
1527842227642579,-4,-14,-7,-5,-3,-11,0,-5
1527842227642579,7,16,3,-2,-1,15,12,3
1527842227643582,-67,-72,-29,-14,-9,-12,-10,-15
1527842227643582,44,89,39,11,11,12,11,31
1527842227665518,15,-21,1,7,0,0,-8,6
1527842227665518,-9,1,3,2,6,4,4,2
1527842227666515,-6,-12,-8,-6,-8,-9,-1,-5
1527842227666515,4,-17,-15,-6,-10,-1,-1,8
1527842227679480,5,4,5,-1,0,-2,1,25
1527842227679480,5,28,9,-3,-3,1,18,11
1527842227687459,-9,-19,-13,7,12,-20,-50,-22
1527842227687459,-5,-13,-2,1,-3,32,16,-4
1527842227702419,13,3,-3,5,-7,-23,-6,1
1527842227702419,3,-10,-2,2,10,26,6,4
1527842227703417,-14,7,3,1,-2,-9,19,1
1527842227703417,0,-14,-5,-7,-11,-27,-27,-18
1527842227725358,5,5,-5,-13,-13,0,-6,20
1527842227725358,-10,9,5,-2,5,-2,7,-5
1527842227726356,28,12,6,12,7,14,16,15
1527842227726356,-29,-15,-4,-10,-8,-10,-16,1
1527842227739321,-11,-14,-6,3,3,12,26,-29
1527842227739321,3,9,2,-8,-8,-29,-15,-1
1527842227747299,-2,5,4,3,6,22,14,14
1527842227747299,16,-13,-6,-2,1,10,-4,3
1527842227761262,3,8,2,0,-14,-27,-20,-3
1527842227761262,-25,0,1,1,22,22,-4,-5
1527842227770238,26,3,-4,-11,-2,0,9,-8
1527842227770238,-38,-14,-2,5,-15,-8,8,-12
1527842227785198,38,8,1,5,9,-12,0,32
1527842227785198,4,8,-2,-2,-3,21,-15,6
1527842227787193,-52,-14,-6,-8,-6,-1,12,-22
1527842227787193,15,4,-3,-11,0,-19,-28,0
1527842227808137,7,0,1,11,-1,5,2,-12
1527842227808137,20,-6,-1,2,0,9,3,9
1527842227809134,-41,-4,1,2,6,3,1,9
1527842227809134,24,6,-3,-7,-9,-11,-2,-3
1527842227821102,17,0,0,-9,-8,-3,-6,-4
1527842227821102,-25,-8,-1,1,-1,1,9,-1
1527842227830078,11,-5,-3,-3,-3,-4,-10,-10
1527842227830078,-8,-1,2,6,3,-6,-7,-10
1527842227845039,-13,-2,-2,-3,-1,1,2,18
1527842227845039,5,-1,-2,-3,-3,3,-1,-9
1527842227847033,35,7,2,-3,-16,-9,13,29
1527842227847033,-30,-9,-1,10,22,15,-9,-26
1527842227867977,5,-2,-5,-7,-2,-7,7,-10
1527842227867977,-4,-3,2,0,1,-7,-8,-7
1527842227869972,15,2,3,4,-3,2,-1,-1
1527842227869972,11,4,4,6,0,3,8,0
1527842227881939,-14,-3,-5,-8,-4,-9,-13,9
1527842227881939,2,4,0,-4,-7,-1,5,-7
1527842227882937,6,-7,-6,-2,3,4,2,7
1527842227882937,7,-7,-2,0,0,-4,2,7
1527842227904878,-4,26,13,4,2,5,2,-9
1527842227904878,5,-11,-5,1,-8,-12,-2,5
1527842227905875,1,-1,2,4,8,12,3,-8
1527842227905875,-2,1,-4,-10,-9,-5,0,11
1527842227927817,-16,-18,-9,-3,-6,1,-7,-8
1527842227927817,14,1,0,4,4,-1,3,-4
1527842227928814,-12,8,4,0,-7,-2,-7,4
1527842227928814,-11,-12,-11,-11,-4,-9,-8,-29
1527842227941779,5,-4,-1,-1,18,16,4,17
1527842227941779,-1,3,5,4,-5,2,3,-14
1527842227942777,-6,-6,-10,-4,1,-9,-10,-3
1527842227942777,20,4,4,5,-2,-11,-1,17
1527842227965715,-44,-24,-13,-11,-11,14,-4,-23
1527842227965715,51,27,5,4,-5,-5,1,0
1527842227965715,-22,10,2,1,12,11,6,18
1527842227965715,2,-8,-10,-12,-10,-12,-6,11
1527842227987657,-15,-37,-10,1,8,1,-2,5
1527842227987657,-5,44,13,-1,-12,-13,-6,-22
1527842227988654,3,-23,-8,1,6,9,6,-4
1527842227988654,-32,9,13,5,2,9,9,-20
1527842228002617,29,-30,-16,-6,-2,-8,-2,27
1527842228002617,-14,1,0,3,11,14,10,13
1527842228002617,18,10,-4,-3,-6,3,-1,-13
1527842228002617,-6,-25,-6,-7,-7,1,-10,5
1527842228025555,-12,25,11,-9,-18,-18,-4,-24
1527842228025555,15,-20,-3,21,24,-11,-7,0
1527842228026553,-14,6,1,-2,5,31,16,-3
1527842228026553,16,6,0,6,3,-9,3,6
1527842228047497,19,7,4,-3,-11,-3,-9,-1
1527842228047497,-38,-44,-19,-19,-19,-13,-1,-3
1527842228048494,17,16,8,10,11,6,12,27
1527842228048494,15,42,26,8,8,17,9,7
1527842228062457,16,-6,1,8,4,-2,-3,-2
1527842228062457,-59,-31,-15,-10,-2,5,2,-18
1527842228062457,41,2,-3,-4,-18,-16,-6,48
1527842228062457,-12,-3,-10,-14,-13,-24,-6,-6
1527842228085395,3,14,7,12,21,23,-2,-4
1527842228085395,7,1,2,-3,9,21,9,10
1527842228086393,-3,-7,0,-4,-10,-20,-26,-14
1527842228086393,-10,-7,-4,6,0,-13,-9,-4
1527842228108334,-8,6,-2,-5,-11,8,3,-19
1527842228108334,3,6,-2,-7,-8,-17,-10,22
1527842228108334,22,14,11,19,14,-11,11,-6
1527842228108334,12,-6,-4,-7,0,2,-6,-5
1527842228121299,-26,-5,-5,-7,-8,-15,-1,4
1527842228121299,11,7,10,12,2,35,9,-3
1527842228130276,17,-3,-7,-18,-2,-1,8,-2
1527842228130276,-14,-2,-4,14,9,-7,-37,-2
1527842228145236,4,7,11,11,9,-6,22,-7
1527842228145236,1,0,-3,-10,-2,2,-19,12
1527842228147230,-1,-3,-1,-9,-20,-29,-6,-20
1527842228147230,-11,-9,-6,-3,5,20,23,7
1527842228168174,5,12,7,4,23,10,0,-7
1527842228168174,21,7,-2,-4,9,-3,4,-17
1527842228169172,-17,-8,-7,4,-26,-10,-3,-6
1527842228169172,5,-1,-3,-14,5,1,-3,0
1527842228181139,0,1,1,-2,-16,-13,-3,7
1527842228181139,-10,-3,2,-4,2,9,8,-10
1527842228190115,-3,-15,-9,-1,-8,16,8,2
1527842228190115,3,2,3,4,13,-13,-15,-3
1527842228205075,-9,-2,-2,2,3,9,-4,-12
1527842228205075,8,7,2,-2,-9,-12,-2,17
1527842228207071,-2,-1,-2,-12,-9,-6,-12,-2
1527842228207071,-25,-11,-5,-4,-19,3,11,8
1527842228228014,-4,0,-5,8,11,-1,-8,-22
1527842228228014,-10,-7,-1,-4,-9,-22,-4,24
1527842228229012,-10,6,5,9,12,9,9,9
1527842228229012,9,-1,-5,-1,2,17,9,-7
1527842228249955,7,-10,-3,-6,-7,0,-4,-10
1527842228249955,46,11,0,-3,-10,-7,4,49
1527842228251951,-38,-6,-1,-6,3,-2,-2,-7
1527842228251951,32,0,3,6,11,-2,-13,-7
1527842228264915,-16,-3,-4,-4,-13,2,5,12
1527842228264915,-3,-11,-3,6,1,-1,-1,-13
1527842228265913,10,19,11,2,10,2,-1,12
1527842228265913,5,-8,-3,-4,-11,-3,3,5
1527842228287854,-2,1,-3,-7,-5,-12,-4,9
1527842228287854,-5,-9,-5,5,5,4,0,-5
1527842228288852,1,-9,-1,1,9,2,-2,-13
1527842228288852,-6,11,2,-1,-7,0,11,12
1527842228301817,27,1,-1,-1,2,5,3,12
1527842228301817,-14,1,0,-6,-6,-4,6,3
1527842228302814,-2,-7,-3,-3,1,-6,-15,-23
1527842228302814,0,-5,-4,2,-1,4,2,8
1527842228325753,6,10,1,-1,-4,-5,3,10
1527842228325753,-16,-9,-3,1,7,2,-3,-15
1527842228325753,5,7,3,2,5,3,-2,-8
1527842228325753,5,-4,-4,-8,-13,-2,1,3
1527842228347694,-2,2,-1,4,11,0,-2,-2
1527842228347694,-21,-20,-3,-1,-7,-1,4,1
1527842228348692,29,34,12,9,8,9,-17,-9
1527842228348692,-11,-8,-5,-9,-9,-12,6,-17
1527842228361657,-10,2,4,6,0,0,-2,1
1527842228361657,7,-3,-6,-5,-3,-6,-9,-16
1527842228369635,3,-4,0,3,0,-6,-9,0
1527842228369635,-14,-7,3,-6,-8,2,9,-25
1527842228385593,23,4,-6,-7,-10,4,1,12
1527842228385593,-28,-3,-1,-2,6,-9,-6,-23
1527842228386590,-6,-32,-14,-5,0,13,10,-18
1527842228386590,-1,-5,-4,-4,3,-2,-8,-7
1527842228407534,-6,4,10,-4,-1,1,2,-1
1527842228407534,24,16,4,0,-15,-11,-10,-10
1527842228408532,-28,3,0,0,4,3,5,12
1527842228408532,-5,-21,-7,1,-2,-3,-8,0
1527842228422494,-6,-9,-12,-9,-7,-9,-2,-1
1527842228422494,28,37,16,11,4,3,-3,-4
1527842228423492,-25,-23,-13,-9,0,-15,-2,-6
1527842228423492,-15,6,5,8,13,32,10,29
1527842228445433,12,-8,-11,-10,-12,-29,-22,-26
1527842228445433,-1,12,12,4,3,4,-5,-5
1527842228446431,10,-4,-2,-5,-8,-5,2,10
1527842228446431,-43,-65,-27,-4,1,2,12,-3
1527842228468372,60,87,39,19,5,1,2,40
1527842228468372,-23,-33,-4,7,21,19,12,-13
1527842228468372,33,1,0,0,0,2,-6,7
1527842228468372,9,8,-3,-12,-11,-16,-5,17
1527842228481337,-45,-36,-14,-5,-1,13,-3,-25
1527842228481337,27,18,4,-1,-9,-11,-2,9
1527842228489315,-7,6,8,3,0,-18,-7,9
1527842228489315,7,7,0,2,5,13,5,-36
1527842228505273,-16,-9,-3,2,0,6,10,7
1527842228505273,6,7,-2,-6,1,-22,-35,-19
1527842228506271,-10,-12,-3,6,10,14,15,11
1527842228506271,29,19,11,6,-2,4,3,36
1527842228528212,-12,-2,-3,-12,-4,-8,-2,-21
1527842228528212,-28,-16,-8,5,8,17,7,1
1527842228529209,7,-4,-7,-14,-13,-5,-2,-13
1527842228529209,-27,14,9,10,8,-4,-1,-12
1527842228550153,19,-2,-3,-2,-7,-14,-14,23
1527842228550153,-8,-15,-1,16,8,20,26,31
1527842228552148,19,8,-1,-9,-2,-19,-32,3
1527842228552148,-3,3,5,-3,8,17,7,-34
1527842228565113,3,-8,-7,1,-3,1,13,12
1527842228565113,-11,-10,-9,-15,-17,-16,-33,-25
1527842228571097,-23,0,0,2,-4,6,9,-5
1527842228571097,22,5,-1,-10,-16,-4,-5,1
1527842228588052,10,-9,-5,0,10,3,9,-5
1527842228588052,-1,6,2,3,-2,-16,-5,-2
1527842228589049,1,-1,1,8,0,10,16,21
1527842228589049,-18,3,0,1,0,-22,-25,-6
1527842228610990,-16,-3,2,9,16,25,21,4
1527842228610990,41,6,-4,-14,1,-5,13,19
1527842228611988,-30,-3,-4,-1,4,-12,-11,-19
1527842228611988,19,5,1,4,-15,2,0,5
1527842228624953,1,-8,1,2,1,-9,-17,-23
1527842228624953,-26,-6,-5,-10,-6,2,9,10
1527842228625951,13,7,2,3,1,22,14,-9
1527842228625951,15,4,-6,-6,-7,-29,-29,14
1527842228647891,-23,-6,-1,-1,-2,9,6,4
1527842228647891,15,3,-1,-2,-4,-3,0,-9
1527842228648890,10,3,2,0,0,-2,0,-12
1527842228648890,-10,0,-1,2,2,2,2,0
1527842228661854,-11,-19,-8,-6,-2,-5,-12,-17
1527842228661854,-1,19,9,3,0,-3,3,13
1527842228669833,3,-4,0,7,1,-10,2,23
1527842228669833,1,-1,-2,-8,2,24,9,3
1527842228685790,3,2,1,6,3,-5,-3,-9
1527842228685790,-9,-9,-4,-4,-6,8,4,6
1527842228685790,-9,-12,-6,-2,-3,-1,-9,-28
1527842228685790,24,43,18,2,5,0,8,6
1527842228715710,10,-12,-6,6,4,5,7,13
1527842228715710,-21,4,3,1,-5,0,2,-10
1527842228715710,3,-11,-4,-2,-7,-1,-5,0
1527842228715710,-7,-9,-5,-2,3,-8,0,11
1527842228721694,4,20,5,-9,-5,-4,-6,4
1527842228721694,3,-13,-8,-2,2,-1,0,-1
1527842228729673,28,11,7,2,3,3,-2,18
1527842228729673,-42,-48,-19,-4,-1,7,8,-1
1527842228745631,-11,25,16,6,6,3,0,6
1527842228745631,41,-2,3,-1,-8,-16,-9,-2
1527842228746628,-22,40,14,5,9,9,8,20
1527842228746628,53,7,-5,-3,2,2,7,-2
1527842228767572,-23,-17,-15,-11,-15,-8,-14,-3
1527842228767572,-10,-25,-7,-6,-8,-14,-4,3
1527842228768569,-19,-19,0,-3,-6,5,-6,-24
1527842228768569,6,33,10,6,-1,-6,2,2
1527842228781534,7,-4,-1,1,10,13,4,-4
1527842228781534,1,-2,-9,-12,-13,-17,-4,-7
1527842228789513,-4,4,4,0,1,19,8,-2
1527842228789513,-15,-12,-3,3,12,-10,-6,0
1527842228804473,26,4,1,-1,-2,8,12,23
1527842228804473,-39,-35,-15,-6,-16,-10,-7,-12
1527842228805471,30,51,8,1,-2,-15,0,-14
1527842228805471,-24,10,13,3,3,10,5,9
1527842228827412,33,-8,-6,-4,-3,-5,2,7
1527842228827412,12,14,7,4,12,14,2,-2
1527842228834393,-45,-42,-15,-10,-10,-15,-11,-23
1527842228834393,29,20,6,-1,-12,-5,-10,-6
1527842228850350,-23,-13,-3,-3,-6,-9,-10,-11
1527842228850350,-5,12,4,7,10,18,18,3
1527842228851348,16,-9,-6,-8,-1,-12,-19,5
1527842228851348,-3,-7,0,2,-5,-10,-1,9
1527842228873289,-9,-7,1,9,4,22,-8,-16
1527842228873289,9,8,2,-8,-5,-2,11,9
1527842228873289,-4,-2,-1,2,4,-1,8,2
1527842228873289,4,-6,0,1,1,-2,10,14
1527842228888249,-27,-1,-1,-9,-9,-22,-12,5
1527842228888249,6,6,-3,-2,-7,-4,3,4
1527842228888249,16,-1,0,9,10,27,16,2
1527842228888249,-4,-14,-10,-10,-2,-4,-2,-6
1527842228910191,-12,1,-1,-9,-11,-6,-11,-15
1527842228910191,-1,10,8,8,8,-4,0,0
1527842228911188,17,-10,-5,-4,-8,-13,1,8
1527842228911188,-8,-8,-6,-6,-4,22,-2,-1
1527842228925151,7,2,-1,-6,-1,-11,3,-1
1527842228925151,-13,1,4,17,15,22,-10,3
1527842228925151,8,-9,-4,-3,-12,-11,11,-7
1527842228925151,-18,-6,4,19,14,0,0,-15
1527842228948089,27,2,-7,-22,-11,-18,-12,-6
1527842228948089,-6,2,0,6,-3,-36,-4,-6
1527842228954073,-17,-8,-3,-11,-10,24,-9,-7
1527842228954073,2,-5,-3,-5,14,-12,9,-3
1527842228970030,-13,7,2,2,-17,45,30,15
1527842228970030,35,-2,-4,7,22,-32,-46,-17
1527842228972026,-14,7,-1,-5,-4,9,19,2
1527842228972026,-21,-6,-5,-12,-17,-15,-3,-2
1527842228984991,-1,-2,-1,1,3,-12,-13,-13
1527842228984991,-40,-2,0,0,-6,12,5,-14
1527842228992970,20,-2,-2,3,3,-5,3,32
1527842228992970,-4,-3,2,-1,1,2,-16,-8
1527842229007929,-25,-7,-2,0,1,-5,3,-32
1527842229007929,34,1,-2,-7,-1,18,9,20
1527842229009924,-10,-8,-2,5,10,-10,-9,-9
1527842229009924,3,4,-1,-6,-8,2,2,22
1527842229029871,-1,0,6,12,12,3,-2,-5
1527842229029871,-9,-1,-2,-3,-2,10,6,0
1527842229030868,8,2,0,-5,-8,-8,-7,-2
1527842229030868,9,-1,-3,2,-2,-5,-5,-3
1527842229044831,-2,-14,-5,6,-1,3,9,12
1527842229044831,2,19,2,-2,12,8,-3,-20
1527842229045828,-6,4,5,2,0,-5,-3,1
1527842229045828,5,-9,-1,-1,-9,0,0,-6
1527842229067769,-20,2,-4,-7,-1,-8,2,13
1527842229067769,-12,-10,-3,-1,-9,3,4,11
1527842229069764,12,7,0,0,1,-1,-7,-39
1527842229069764,-4,9,2,-1,3,2,-2,-18
1527842229090708,-12,-23,-6,1,1,-3,1,35
1527842229090708,6,-1,-2,-4,-8,1,1,-9
1527842229090708,-4,14,2,2,5,2,0,17
1527842229090708,-15,-20,-3,-3,-6,-1,-4,-10
1527842229104671,21,11,0,2,2,-11,-7,-17
1527842229104671,-13,-16,-7,-13,-16,-2,3,0
1527842229105669,-8,-5,1,18,15,1,-11,7
1527842229105669,29,6,2,1,3,7,7,4
1527842229127609,-37,-14,-4,-5,-13,-13,-13,4
1527842229127609,22,-11,-3,-4,-1,4,1,-24
1527842229129604,-3,33,17,0,4,3,9,18
1527842229129604,-18,2,-6,-1,-8,-7,-6,17
1527842229157529,25,-8,0,1,1,-4,4,7
1527842229157529,-26,-3,-2,1,6,13,17,22
1527842229158527,-8,8,8,-3,-9,-10,-7,-20
1527842229158527,35,16,7,11,23,15,20,-3
1527842229164511,9,-14,-4,0,2,20,1,17
1527842229164511,-4,17,2,-6,-14,-17,-13,-6
1527842229165508,-7,-39,-11,3,0,4,7,-3
1527842229165508,-5,25,-1,-9,-6,-17,-9,-11
1527842229187449,-4,-3,-5,0,10,14,-8,-20
1527842229187449,-2,3,0,3,0,4,2,19
1527842229188447,-2,-19,-6,-6,-13,-25,-8,-16
1527842229188447,-13,-31,-8,4,8,14,10,6
1527842229210388,44,72,30,5,14,10,15,18
1527842229210388,-3,-13,-7,-6,1,10,-5,-8
1527842229211386,-31,-39,-21,-13,-11,-11,-6,8
1527842229211386,-4,-1,-4,-4,-13,-18,-14,7
1527842229224351,-23,-18,-4,0,-1,-3,-5,-41
1527842229224351,34,33,11,7,1,-3,7,22
1527842229233327,17,1,-1,0,6,7,-1,8
1527842229233327,21,6,1,-4,-11,-9,-4,-2
1527842229248287,-62,-15,-14,-8,-2,-18,-8,-29
1527842229248287,-5,-9,3,6,8,22,12,-5
1527842229249284,17,-1,-6,-8,-6,-7,-18,-13
1527842229249284,-34,-6,1,3,-5,20,15,13
1527842229270228,28,-10,-12,-12,-6,-37,-29,9
1527842229270228,-8,-10,-6,-3,-8,-6,5,-2
1527842229272223,-1,18,14,32,39,8,11,10
1527842229272223,4,-9,-7,-5,-9,2,1,-13
1527842229284191,-13,2,2,1,-2,-5,11,-10
1527842229284191,22,10,-2,-11,-10,-13,-7,11
1527842229293167,7,-3,0,-4,-1,15,-6,0
1527842229293167,51,13,3,6,7,5,4,21
1527842229308127,-32,-8,-3,-5,-5,3,1,1
1527842229308127,-6,1,2,0,5,20,2,-17
1527842229309124,-13,-11,-3,-7,-9,-8,-1,-8
1527842229309124,33,-1,1,-5,-4,-13,13,10
1527842229330068,7,9,1,0,-8,-12,-8,11
1527842229330068,-16,-12,1,19,16,1,7,-5
1527842229332063,-22,-5,-3,-15,-39,15,-14,-21
1527842229332063,-6,8,-3,-10,12,13,2,-6
1527842229353007,-12,-13,-3,-4,-16,0,11,11
1527842229353007,-3,-1,0,8,12,-16,4,10
1527842229354004,12,1,-2,7,3,-20,-11,2
1527842229354004,-8,-6,1,-2,6,15,-4,-4
1527842229367967,30,13,2,-1,-9,-2,-6,-9
1527842229367967,-34,-12,-5,-7,-2,0,-6,-19
1527842229369962,23,12,-1,-10,-10,-7,3,10
1527842229369962,-5,-4,1,5,0,-9,-16,-1
1527842229389908,1,2,4,8,16,12,9,-1
1527842229389908,1,-3,1,-1,-7,-7,-7,-7
1527842229391903,1,-9,-7,-2,11,9,6,16
1527842229391903,-14,19,5,1,-6,-10,-11,-27
1527842229403871,-4,-3,0,2,8,6,2,-15
1527842229403871,24,6,-2,-5,-11,-1,4,22
1527842229412847,-11,-1,-1,-8,-13,-3,0,-6
1527842229412847,-6,-1,2,10,24,3,1,2
1527842229427807,11,4,-1,3,0,0,1,2
1527842229427807,-2,-2,3,2,2,1,-5,0
1527842229429802,11,5,1,11,11,4,7,18
1527842229429802,-12,-12,-4,-6,-15,-8,-6,-6
1527842229450745,6,2,0,-1,4,8,3,1
1527842229450745,6,-7,-4,-11,-13,-6,-5,19
1527842229451743,-8,12,0,-2,8,-1,2,6
1527842229451743,-16,-15,-6,-1,-8,0,-5,-18
1527842229463711,9,21,15,11,4,7,5,17
1527842229463711,2,-11,-6,-1,0,0,0,-10
1527842229472687,-3,-2,-4,-7,-7,0,-1,-4
1527842229472687,1,-7,-7,-1,1,-5,-4,1
1527842229487647,6,-5,-3,-1,-1,-1,0,0
1527842229487647,-12,-6,-1,0,0,-6,-10,-13
1527842229489642,-6,-4,-1,0,2,0,5,15
1527842229489642,13,22,9,4,1,3,5,0
1527842229510585,8,-7,-8,-2,0,-3,-3,2
1527842229510585,5,11,3,-5,-4,-4,-1,5
1527842229511583,-12,-15,-4,-5,-1,1,-3,-27
1527842229511583,10,-2,-2,2,-14,-16,-3,28
1527842229523551,7,14,5,13,26,11,3,-2
1527842229523551,-27,-8,-4,4,14,22,17,3
1527842229533524,16,-10,-5,-4,2,-20,-15,7
1527842229533524,7,-16,-6,-6,-29,-9,-5,5
1527842229547487,31,83,24,-2,-16,-26,-12,-32
1527842229547487,-85,-63,-20,-3,11,5,-10,-36
1527842229549482,31,-11,-10,-8,24,37,28,4
1527842229549482,-3,20,14,0,-1,3,2,2
1527842229570426,-22,-64,-29,-11,-21,-14,-12,-9
1527842229570426,29,70,28,7,-6,-9,-9,-1
1527842229572420,6,-8,-1,1,-12,-12,-1,-4
1527842229572420,-13,-15,-9,-8,-5,-18,-13,-11
1527842229584388,6,-13,-6,-3,-3,18,7,1
1527842229584388,2,-5,-2,0,10,4,3,3
1527842229593365,0,13,5,4,9,22,14,14
1527842229593365,-37,-4,-2,-4,-5,-11,-13,-16
1527842229608324,33,-5,2,-1,-24,-21,-3,28
1527842229608324,-23,-40,-18,-6,10,3,3,-12
1527842229609322,32,85,33,19,18,14,2,1
1527842229609322,-17,-46,-16,-4,14,15,7,0
1527842229630265,-12,9,0,-6,-6,0,1,-11
1527842229630265,18,-7,-5,-4,-20,-15,-7,5
1527842229632261,-11,-2,0,-4,-14,-19,-11,-10
1527842229632261,-21,-1,2,0,8,4,-7,-25
1527842229644228,17,-4,-3,1,9,8,6,12
1527842229644228,29,8,0,-4,-10,4,2,4
1527842229653204,-44,-14,-5,-3,0,-13,-4,-29
1527842229653204,17,15,5,6,-1,9,1,11
1527842229668164,-32,-19,-3,1,17,22,2,-12
1527842229668164,34,14,4,1,-11,-3,7,18
1527842229669162,-22,-12,-12,-23,-15,-15,-7,-6
1527842229669162,13,-4,-2,14,15,14,-1,12
1527842229690106,8,3,2,-3,-2,-16,-4,1
1527842229690106,-53,-4,0,-2,13,-14,5,-34
1527842229692100,16,-7,-7,-13,-43,9,-5,46
1527842229692100,-4,8,0,1,6,14,-3,-25
1527842229713044,9,-3,-1,-3,2,7,4,23
1527842229713044,5,9,3,3,-2,-1,-4,5
1527842229715039,-10,-13,3,11,19,-17,-8,-12
1527842229715039,-6,1,-4,-4,-13,-9,6,12
1527842229727007,-9,1,0,3,-19,-1,1,4
1527842229727007,-11,-1,1,5,22,-8,-1,-9
1527842229733988,33,0,-5,-7,-15,-1,2,12
1527842229733988,-6,-3,-5,-16,-5,1,2,3
1527842229749946,-6,-4,5,11,20,0,2,8
1527842229749946,11,-4,-2,-4,-8,-2,-13,-9
1527842229751941,-18,-11,-5,4,-1,-6,-2,-24
1527842229751941,33,20,-5,-31,-25,-2,-3,15
1527842229772884,-15,-4,2,24,21,-18,-1,-5
1527842229772884,9,6,1,3,1,10,5,-6
1527842229774879,-24,-17,2,23,40,39,4,9
1527842229774879,39,-4,-5,-10,-14,-31,-2,-6
1527842229786847,-22,5,-2,-19,-20,7,6,11
1527842229786847,9,2,0,-1,-14,-10,-9,0
1527842229793828,-2,-4,-3,-6,-7,-11,1,-5
1527842229793828,-16,6,4,9,10,7,6,11
1527842229810783,11,3,-1,-3,-2,2,-3,-17
1527842229810783,12,-5,-1,6,0,3,0,-8
1527842229811781,-17,-10,-8,-10,-4,-7,3,9
1527842229811781,6,28,15,14,9,1,-9,-41
1527842229832724,2,-10,-2,0,2,8,-2,4
1527842229832724,16,6,-3,-7,-7,1,-2,12
1527842229834719,3,-1,-2,-5,-3,-9,-7,-26
1527842229834719,-15,-13,-4,-2,-19,1,3,13
1527842229846687,8,5,3,15,38,0,-1,5
1527842229846687,-5,-5,-1,5,0,7,6,-18
1527842229855663,9,8,1,0,0,1,3,20
1527842229855663,9,-4,-1,-4,-1,-17,8,23
1527842229870624,-13,-3,-4,-10,-17,25,-7,-8
1527842229870624,-24,-6,1,3,6,-8,0,3
1527842229871621,-1,-15,-11,-5,-4,-5,-5,-16
1527842229871621,6,-7,-3,2,3,-1,5,13
1527842229892565,3,18,5,0,-3,-6,1,0
1527842229892565,12,5,5,3,5,8,7,23
1527842229894559,-6,11,4,-1,-11,4,2,-31
1527842229894559,-32,-43,-17,-2,6,-8,-10,-16
1527842229906527,-5,-2,-1,-5,-4,-5,-3,3
1527842229906527,20,36,7,-3,-2,4,2,22
1527842229915504,-27,-45,-9,0,-2,-8,-5,-28
1527842229915504,8,42,10,13,11,10,6,-10
1527842229930463,13,-42,-8,-5,2,4,5,-14
1527842229930463,5,16,-6,-14,-5,-3,-6,14
1527842229932458,-14,-5,1,2,-15,-20,-14,-15
1527842229932458,-22,-13,-1,8,17,10,-1,-2
1527842229953402,4,13,-2,-5,-5,4,4,-6
1527842229953402,18,-7,-3,0,5,4,3,6
1527842229954399,-12,-14,-4,-4,-9,-13,-12,-11
1527842229954399,15,45,27,13,-15,-18,-6,17
1527842229966367,-17,-9,-5,2,18,19,20,2
1527842229966367,14,-16,-14,-16,-13,6,0,-20
1527842229975343,28,9,1,-6,-12,-11,-11,6
1527842229975343,-14,-13,-7,-1,13,11,12,2
1527842229990303,-29,20,8,0,-5,-9,-4,0
1527842229990303,-2,-17,-9,-4,-19,-21,-9,14
1527842229992298,3,20,4,6,8,10,1,-3
1527842229992298,-13,-32,-10,-6,7,4,3,-12
1527842230013242,30,19,-2,-7,-7,-12,-11,0
1527842230013242,-33,-28,-5,3,6,6,4,1
1527842230014239,10,12,1,-8,-15,-14,0,20
1527842230014239,13,10,2,-4,-14,-4,-7,1
1527842230026207,-24,-25,-9,10,22,22,-1,-19
1527842230026207,-27,2,4,11,5,21,22,1
1527842230035183,40,17,6,11,12,-16,-18,12
1527842230035183,0,2,-2,-11,-10,1,1,-5
1527842230050143,6,-15,-9,-9,-20,-40,-6,1
1527842230050143,-20,3,0,-7,-5,10,-10,11
1527842230052138,12,6,3,4,19,42,22,7
1527842230052138,-6,-23,-12,-7,-4,-13,0,-3
1527842230073082,1,14,2,-9,-19,-15,-19,23
1527842230073082,6,1,6,10,1,-7,-9,-1
1527842230074080,0,0,2,8,13,16,13,10
1527842230074080,33,-8,-11,-28,-19,-4,-12,5
1527842230086047,-41,9,10,18,19,18,19,-18
1527842230086047,-1,0,5,-4,10,-11,1,-5
1527842230110980,-7,-2,-5,-1,-17,-5,0,6
1527842230110980,2,-5,4,15,10,-1,-9,-14
1527842230111978,3,-2,1,2,17,40,27,22
1527842230111978,10,-6,-11,-28,-27,-19,-11,-5
1527842230113973,-29,-3,5,16,20,0,2,-13
1527842230113973,31,18,4,7,28,3,-2,14
1527842230132922,-20,-14,-7,-12,-20,-21,-13,-40
1527842230132922,17,3,1,2,-3,-2,0,19
1527842230134917,-5,-6,-8,-22,-8,-1,1,-8
1527842230134917,-18,2,1,5,-11,0,-7,-24
1527842230155860,-3,-28,-7,4,6,-5,-12,2
1527842230155860,29,48,10,3,-1,0,3,-15
1527842230156858,-2,-16,-6,-7,-7,1,1,7
1527842230156858,-10,-7,1,8,7,4,4,-2
1527842230170821,15,2,1,9,0,-4,-6,8
1527842230170821,-18,-19,-7,1,1,-6,-12,-20
1527842230171818,16,17,7,8,9,2,0,4
1527842230171818,-10,-2,-5,-13,-8,2,7,-3
1527842230192762,9,-3,-4,-9,-11,-14,-8,1
1527842230192762,-4,-9,-2,6,-9,2,0,-14
1527842230194757,0,17,9,11,24,5,6,8
1527842230194757,1,-13,-4,7,19,1,5,4
1527842230206724,-6,-1,0,-10,-24,-14,-11,10
1527842230206724,11,1,0,6,13,10,1,-17
1527842230222682,10,6,2,-9,-16,-2,-3,11
1527842230222682,-20,3,0,-3,-5,-1,-6,-21
1527842230230660,10,7,1,4,3,-2,-3,14
1527842230230660,-6,-21,-6,-2,-2,-9,-1,16
1527842230231658,13,20,1,-7,-8,-6,-1,-4
1527842230231658,-6,4,9,4,3,4,4,10
1527842230260580,3,-9,-5,1,0,-2,-3,-19
1527842230260580,-9,8,4,-3,-1,-1,-3,3
1527842230261578,8,-20,-10,-2,5,6,7,20
1527842230261578,-11,-12,-7,-2,-8,-4,-1,-7
1527842230266564,5,10,6,3,-3,8,6,-3
1527842230266564,-9,-18,-11,-8,-5,-7,-8,-6
1527842230275541,1,22,8,6,1,-1,3,2
1527842230275541,8,-6,0,-7,1,-6,-13,19
1527842230290501,3,-5,-5,-7,-14,1,2,13
1527842230290501,-30,-9,2,28,39,8,7,1
1527842230292495,3,-36,-15,-15,-15,3,-5,-7
1527842230292495,17,86,29,5,-7,-4,0,-7
1527842230312442,19,-13,-8,-10,-11,-2,0,-2
1527842230312442,29,15,3,-9,-10,-7,-4,8
1527842230314437,-40,-21,-8,4,8,2,7,1
1527842230314437,26,-11,0,5,4,8,3,-2
1527842230326405,-31,-1,-3,-8,1,-4,-3,-11
1527842230326405,7,9,0,-3,14,19,8,5
1527842230335381,4,-22,-15,-9,-15,-11,-8,-9
1527842230335381,-23,-18,-6,-2,-16,-11,-17,-11
1527842230350341,3,26,10,5,-6,0,-9,-3
1527842230350341,-31,-18,-2,16,11,-3,-20,-3
1527842230352336,42,22,5,-4,-5,-25,1,5
1527842230352336,-38,-18,-14,-13,-12,20,-1,5
1527842230373280,16,-8,0,1,0,-13,14,2
1527842230373280,-45,-26,-12,1,-4,-6,-9,-10
1527842230374277,79,68,31,6,7,3,-2,-9
1527842230374277,-1,21,-1,-2,-5,-8,3,-2
1527842230386245,-20,-13,10,2,11,8,-3,-46
1527842230386245,25,14,4,-1,1,11,14,16
1527842230395220,-27,-21,-5,1,-8,-10,-12,-19
1527842230395220,-4,-23,-15,-5,-9,-11,1,14
1527842230410181,4,20,-3,-10,-8,-4,-12,-25
1527842230410181,-6,-4,1,-3,5,4,18,-11
1527842230412176,8,-5,-1,-9,-10,8,-20,15
1527842230412176,-8,0,-1,5,7,21,35,4
1527842230433119,-18,-8,-3,4,23,-17,-38,16
1527842230433119,-15,9,10,20,-15,-33,-14,-9
1527842230434117,15,-7,-7,-6,10,46,30,36
1527842230434117,31,6,1,-2,16,-7,-5,4
1527842230446085,-23,-16,-6,-11,-11,-12,8,-13
1527842230446085,-15,1,-6,-17,-14,4,6,-1
1527842230456059,-1,4,2,12,-9,6,-15,-21
1527842230456059,30,-4,-1,3,21,11,-1,14
1527842230470021,-16,-3,-2,-1,4,-2,-2,12
1527842230470021,-10,3,0,-14,-26,-21,-12,-12
1527842230472016,10,-7,-3,-1,18,-9,-3,17
1527842230472016,-15,-17,-1,5,5,6,3,-46
1527842230492959,6,14,-2,-7,-17,4,4,7
1527842230492959,7,4,-2,-14,2,-8,3,3
1527842230494954,-36,-9,-1,1,-5,8,4,-10
1527842230494954,-12,-8,2,13,22,-2,-5,12
1527842230514900,7,-2,-4,3,-4,3,7,-6
1527842230514900,17,-2,1,2,-7,17,10,1
1527842230516896,-14,-1,-7,-11,-15,-6,5,17
1527842230516896,-5,2,-6,-18,-25,-14,-20,-12
1527842230530858,-18,-6,8,33,26,10,10,10
1527842230530858,64,15,2,-8,-17,10,0,12
1527842230531856,-18,-8,1,5,23,-11,-4,-7
1527842230531856,-28,-5,-7,-4,-17,-4,4,4
1527842230552799,4,-17,-7,-11,-7,0,-2,-6
1527842230552799,26,53,21,11,9,1,6,23
1527842230554794,-29,-31,-10,-5,-11,-5,2,-15
1527842230554794,9,20,6,-2,4,-7,0,-10
1527842230575738,25,-5,-5,-4,-1,11,9,7
1527842230575738,-12,-13,-5,1,8,-2,-11,-8
1527842230576735,-6,2,-2,-4,-4,-6,-6,-7
1527842230576735,5,-5,1,3,-1,4,0,9
1527842230590698,-1,2,-3,-4,-5,-4,-5,-8
1527842230590698,5,-6,-3,0,-6,3,0,-1
1527842230591695,-9,11,4,7,7,2,-2,-1
1527842230591695,-14,-18,-7,-5,-4,-11,-1,-18
1527842230612639,8,13,0,-11,-13,0,1,16
1527842230612639,-3,-7,-2,5,18,-4,-5,-8
1527842230618624,-9,-3,-1,4,-3,5,3,-6
1527842230618624,-2,1,-1,-3,-1,-2,-4,6
1527842230626602,26,6,3,5,7,2,2,26
1527842230626602,-19,-24,-8,-6,-3,1,-1,-26
1527842230635578,14,35,10,4,5,-4,3,13
1527842230635578,2,-16,-4,1,-6,-1,-8,4
1527842230650538,-6,17,1,-4,-3,-1,1,-23
1527842230650538,0,-20,-3,0,1,0,-7,-9
1527842230656522,-22,-29,-9,-2,5,-7,-3,4
1527842230656522,20,35,11,1,-5,4,2,19
1527842230672479,3,-12,-5,5,11,4,-3,-7
1527842230672479,-16,10,7,-2,-4,-4,2,-13
1527842230674474,-11,-5,-3,-9,-5,-3,-5,-15
1527842230674474,-15,-15,-7,0,-5,-7,-14,-19
1527842230695418,37,-7,1,11,12,-9,4,22
1527842230695418,-14,12,6,-1,7,18,3,13
1527842230697413,-14,-12,-1,3,0,2,-4,-29
1527842230697413,-12,-17,-9,-1,3,7,15,26
1527842230710378,-15,22,11,-4,-16,-18,-23,-35
1527842230710378,47,-51,-27,-17,-11,-15,-6,8
1527842230712373,-33,15,1,1,12,13,12,-30
1527842230712373,1,-22,-2,3,-4,2,-6,1
1527842230733317,-14,0,-3,-7,-11,-10,-3,7
1527842230733317,-5,-4,3,2,-5,-18,-3,-9
1527842230734314,68,11,-4,3,16,39,8,-5
1527842230734314,8,-1,-9,-9,-5,12,4,15
1527842230755258,-22,-1,1,-8,-23,-52,-19,-4
1527842230755258,-25,-24,-12,3,-11,2,-11,-7
1527842230757253,18,77,42,32,24,11,24,23
1527842230757253,9,-25,-7,-2,10,5,-1,2
1527842230770218,7,13,-6,-3,-2,11,-6,-11
1527842230770218,9,11,13,9,20,23,17,20
1527842230778197,-4,-21,-17,-22,-32,-35,-20,17
1527842230778197,8,43,27,11,2,-5,-2,-18
1527842230793157,-25,-22,-4,9,22,30,21,27
1527842230793157,23,6,-8,-5,-7,-9,2,6
1527842230794154,-25,-26,-8,-8,-10,-6,-15,-21
1527842230794154,3,5,2,-3,-8,-16,-5,9
1527842230823077,-5,-23,-9,-7,0,-20,-3,2
1527842230823077,-19,5,2,9,14,52,16,-7
1527842230824074,3,-7,-1,-4,-6,-27,-7,9
1527842230824074,-8,5,-6,-26,-25,-7,5,1
1527842230830058,-22,-2,6,29,29,6,-1,-22
1527842230830058,34,14,6,10,-1,0,-4,23
1527842230832053,0,-5,-6,-7,7,11,10,-4
1527842230832053,0,-16,-6,-1,-10,-60,-17,-13
1527842230852997,0,-1,-8,-22,-18,79,29,3
1527842230852997,-9,6,3,-4,6,-20,-15,-14
1527842230854992,-3,-15,-9,-9,-18,-15,-8,17
1527842230854992,7,-3,0,14,11,21,15,-11
1527842230874938,-11,6,9,-2,1,-21,1,-8
1527842230874938,-3,5,0,5,-3,-13,-6,2
1527842230876933,-22,-15,-6,-5,-5,2,-3,-7
1527842230876933,45,11,-1,1,9,9,3,16
1527842230889898,-4,8,-4,-17,-15,-6,-6,-7
1527842230889898,-11,-8,-3,0,-5,-1,-4,-18
1527842230897877,-23,-10,4,19,15,-4,5,10
1527842230897877,-7,-1,1,3,4,10,10,16
1527842230912837,16,-1,2,3,-10,0,-14,13
1527842230912837,-3,8,-4,-25,6,-16,-5,-9
1527842230914832,21,6,7,18,-15,11,9,7
1527842230914832,-15,-1,1,1,9,9,-3,-6
1527842230935776,4,-4,1,12,22,18,10,-10
1527842230935776,-8,3,0,-6,-14,-21,-8,32
1527842230936773,9,-1,0,-2,3,-6,5,16
1527842230936773,-15,-4,-1,3,-1,2,-11,-6
1527842230949739,14,-1,-8,-10,-9,2,13,24
1527842230949739,-2,-5,-2,-4,-6,-2,-1,1
1527842230956720,-9,-19,-10,-7,-6,-6,-15,-17
1527842230956720,24,21,12,4,-1,4,5,9
1527842230972677,-3,8,-3,-3,3,-8,-9,-20
1527842230972677,-2,1,5,7,1,1,4,14
1527842230974672,-5,-15,-10,-6,-6,-6,-3,2
1527842230974672,-8,-3,-3,2,6,10,2,-4
1527842230995616,5,-1,0,3,-1,-5,-3,-10
1527842230995616,-5,-12,0,6,1,2,-2,-15
1527842230996613,12,26,6,-6,-3,2,2,-9
1527842230996613,-1,-3,-4,-8,-5,-3,-4,-13
1527842231009578,-3,-4,-1,-14,-11,-4,-4,7
1527842231009578,-6,-5,0,28,15,2,-1,-34
1527842231018555,-6,-3,1,2,6,0,-5,-7
1527842231018555,-4,-4,-5,-4,2,-1,-2,-18
1527842231032517,5,-4,-4,-7,-7,-5,-4,0
1527842231032517,-12,1,-7,-16,-22,-1,-1,-3
1527842231034512,4,1,1,-1,12,-3,-7,-7
1527842231034512,-7,-7,0,5,-3,2,-1,-3
1527842231055456,-11,-32,-7,-3,2,4,8,9
1527842231055456,26,54,13,-3,0,-2,-2,-9
1527842231057450,1,-11,-7,-1,-8,-1,0,30
1527842231057450,-17,-9,2,-4,-6,-5,0,-18
1527842231069418,14,3,1,4,3,-3,-2,15
1527842231069418,-6,-16,-8,-9,-2,-1,-3,-17
1527842231076400,-7,1,-3,-11,-11,-4,0,11
1527842231076400,29,11,4,7,9,3,1,-2
1527842231093354,-34,0,0,6,3,1,-2,-13
1527842231093354,3,2,0,-8,0,-4,8,17
1527842231095349,16,3,-6,-20,-8,4,-7,-30
1527842231095349,-18,-6,3,22,8,0,2,-33
1527842231115296,8,7,3,6,2,-8,4,33
1527842231115296,15,-19,-11,-7,1,1,-7,10
1527842231117292,-26,10,7,2,-2,-2,5,16
1527842231117292,20,10,-2,-11,-7,-2,2,6
1527842231129259,-44,-47,-18,-7,-11,-6,-12,-20
1527842231129259,26,63,25,6,11,12,11,-8
1527842231138235,6,-26,-6,5,-10,-19,-16,5
1527842231138235,-12,18,10,7,14,9,-6,-7
1527842231153194,17,-13,-10,2,28,47,39,35
1527842231153194,23,16,6,-3,-10,-13,-6,2
1527842231159178,-26,26,-3,-6,-14,-2,4,-9
1527842231159178,17,24,14,3,-5,5,-5,9
1527842231175136,-40,-27,-7,8,20,-29,-29,-25
1527842231175136,-36,19,13,10,-5,-18,6,4
1527842231177131,88,-3,-15,-13,1,29,-4,-16
1527842231177131,-45,-17,-11,-7,-10,-2,3,13
1527842231189098,33,16,3,-10,-28,-10,7,17
1527842231189098,-31,-18,-11,-3,-2,2,-6,-16
1527842231198075,-25,-57,-21,-13,-18,-34,-16,-33
1527842231198075,49,48,21,12,23,29,22,6
1527842231213034,-5,27,7,-2,-13,-6,-5,7
1527842231213034,11,-21,-6,1,-9,-14,-6,-6
1527842231215030,-21,-11,-7,-5,28,24,11,-4
1527842231215030,6,-36,-17,-6,-3,2,-1,16
1527842231234976,-43,5,8,4,2,-1,-2,-21
1527842231234976,49,6,-3,-6,-11,-4,1,23
1527842231236971,-23,17,9,3,-6,-11,-8,-6
1527842231236971,22,-19,-7,-8,-16,-29,-12,6
1527842231248938,17,13,9,14,28,32,11,-7
1527842231248938,-59,-44,-21,-5,4,17,1,-9
1527842231257915,-4,-1,1,0,-3,0,5,3
1527842231257915,-16,-4,-6,-7,-3,-18,-11,23
1527842231271877,59,16,10,21,-3,-17,-5,-2
1527842231271877,-17,-19,-10,-13,-1,20,-1,-15
1527842231278858,14,6,7,4,2,1,3,3
1527842231278858,-59,-1,-5,-12,-21,-13,1,-17
1527842231295813,49,-2,-12,-23,-6,9,-1,13
1527842231295813,-23,-19,-2,10,20,12,-1,-4
1527842231296811,17,14,7,11,-1,-9,-5,4
1527842231296811,4,-7,2,6,9,-2,-4,0
1527842231317754,-9,-7,-8,-12,-7,-6,-27,-31
1527842231317754,-18,0,0,4,-16,-37,4,10
1527842231319749,24,12,1,-8,-20,21,-5,18
1527842231319749,-16,-14,-5,3,25,62,25,-30
1527842231332714,8,1,-5,-6,-24,-54,0,8
1527842231332714,-7,0,0,-6,16,16,5,-2
1527842231338698,-30,-8,-1,3,-1,-16,5,-23
1527842231338698,19,-6,-6,-2,-1,-3,-11,26
1527842231355653,6,10,1,-15,-4,12,7,-14
1527842231355653,-23,-14,-8,-23,-49,-18,-10,10
1527842231356651,29,16,14,43,65,19,3,0
1527842231356651,-29,-9,-4,-8,-2,-6,7,-8
1527842231368618,6,-7,-3,0,-2,-1,-1,26
1527842231368618,42,5,5,10,9,-4,-11,-2
1527842231377594,-34,-6,-2,-15,-14,7,6,9
1527842231377594,8,4,-2,-5,-15,-14,-5,0
1527842231392554,3,7,7,9,12,-6,0,1
1527842231392554,-9,-10,-3,10,10,17,-5,-15
1527842231394549,-8,3,-1,0,8,-2,4,-5
1527842231394549,18,-3,-4,-5,-9,-16,-11,13
1527842231415494,-21,5,2,-3,-11,-4,2,15
1527842231415494,-6,-16,-7,-4,6,14,6,-14
1527842231417488,24,46,18,7,8,-2,6,-4
1527842231417488,-17,-15,-7,-6,-10,-11,-7,10
1527842231429456,-19,-7,-3,0,-5,1,3,-7
1527842231429456,16,3,6,8,3,22,10,25
1527842231438432,-13,-12,-11,-11,-6,-15,-14,21
1527842231438432,12,5,4,3,3,-1,-1,-9
1527842231453392,7,8,6,5,2,9,5,12
1527842231453392,18,0,-7,-3,-5,-17,-9,-17
1527842231454390,-23,-8,-2,1,-6,0,4,1
1527842231454390,-4,3,-2,-3,0,-6,1,15
1527842231475333,-2,-5,-4,-5,-9,3,-9,-24
1527842231475333,4,6,4,7,13,3,4,-1
1527842231477329,3,-7,-1,-9,-6,-9,-13,0
1527842231477329,-21,-5,-2,1,-2,0,-1,-15
1527842231489296,-3,-7,-1,3,3,16,-1,-8
1527842231489296,3,4,-1,-7,-1,1,8,12
1527842231498272,11,-6,-3,2,-3,0,3,-23
1527842231498272,-4,-19,-7,-3,2,-8,-2,-5
1527842231513232,23,18,4,2,1,-1,-1,-4
1527842231513232,-11,34,23,2,1,2,2,4
1527842231514229,10,-10,-3,0,0,-5,-2,0
1527842231514229,8,-5,-5,0,-3,0,-4,18
1527842231535173,-35,-29,-12,-6,0,4,-3,-48
1527842231535173,2,-2,-3,1,-5,-6,3,7
1527842231537168,27,13,3,0,6,-7,-6,19
1527842231537168,1,3,7,17,1,5,3,22
1527842231549136,-3,5,0,-1,3,-3,-4,-8
1527842231549136,10,0,-6,-14,-9,-8,-2,26
1527842231558112,-23,-13,1,10,-1,-5,5,-9
1527842231558112,2,3,-3,-10,-10,8,3,-20
1527842231573072,5,4,3,11,13,-2,-6,40
1527842231573072,6,-6,-6,-6,-1,-2,-4,-17
1527842231574070,-25,-33,-13,-10,-2,8,6,-11
1527842231574070,30,42,8,4,-7,-17,-17,-17
1527842231595013,10,-35,-6,-9,-15,12,8,1
1527842231595013,-11,7,-4,-4,8,-19,-25,-8
1527842231597008,4,7,3,4,18,30,23,14
1527842231597008,-37,-31,-15,-8,-18,-36,-18,-45
1527842231608976,18,27,19,-1,-22,1,-2,-2
1527842231608976,23,11,-8,-14,-13,-16,-8,-6
1527842231617953,-2,-14,-3,5,22,31,8,38
1527842231617953,-64,-29,-9,0,6,15,5,-23
1527842231632912,96,69,27,12,-1,-13,2,23
1527842231632912,-15,-20,-4,0,-8,-15,-6,-9
1527842231634907,-38,4,-1,-8,-39,-23,-14,-44
1527842231634907,11,1,3,11,48,19,9,12
1527842231655851,-40,-24,-21,-9,-16,-11,-1,30
1527842231655851,39,9,11,7,6,1,-4,-7
1527842231656848,34,89,41,14,18,12,13,-2
1527842231656848,8,-40,-18,-7,-1,3,0,8
1527842231677792,-39,-7,-5,3,26,21,8,-25
1527842231677792,-6,-5,-2,-4,-11,-3,0,-11
1527842231679787,-21,-43,-20,-9,-29,-30,-30,-9
1527842231679787,-5,15,4,-1,-8,-4,0,8
1527842231691755,-8,-3,-5,-6,3,-21,-7,-6
1527842231691755,7,-21,-8,5,33,53,41,18
1527842231698736,6,11,2,-1,-3,14,2,2
1527842231698736,2,4,6,7,-4,-18,-20,4
1527842231715691,-2,-19,-6,-4,-11,-25,-24,2
1527842231715691,26,8,1,0,-11,-15,15,26
1527842231716688,-30,-28,-20,-17,-6,12,-3,-22
1527842231716688,37,32,11,-4,-10,6,7,9
1527842231737632,-41,-9,-7,-10,-6,0,1,-16
1527842231737632,18,7,8,17,9,-7,-11,-10
1527842231739627,37,5,5,6,9,-1,3,24
1527842231739627,-32,-8,-2,0,-1,5,1,-13
1527842231752592,0,-1,-2,1,7,-3,0,-20
1527842231752592,-35,-16,-11,-31,-29,8,6,17
1527842231758576,3,-10,-3,-7,6,-19,-5,-9
1527842231758576,38,15,9,25,3,-5,-15,9
1527842231775531,-37,-6,-2,4,12,27,18,-4
1527842231775531,2,-3,4,11,-18,7,14,-1
1527842231776528,10,-3,-4,-5,29,-7,-7,11
1527842231776528,0,-10,-7,-13,-13,3,-25,-16
1527842231797472,-8,7,5,6,17,-13,3,-24
1527842231797472,-20,2,-8,-13,-27,-18,-13,-4
1527842231799467,-9,3,-1,-7,-18,-14,5,6
1527842231799467,3,-4,0,3,7,8,1,-14
1527842231812432,11,-9,5,15,5,18,2,1
1527842231812432,-36,-8,-3,0,15,7,-11,-18
1527842231819413,21,8,-6,-9,-20,-8,-1,7
1527842231819413,7,6,1,-10,-3,-8,11,5
1527842231835371,-22,-11,-5,0,1,-1,-13,-13
1527842231835371,14,-1,3,14,15,0,12,7
1527842231837366,-3,-4,-5,1,5,0,-2,9
1527842231837366,-13,2,-2,-13,-15,6,13,5
1527842231858309,27,7,2,9,14,-9,-8,6
1527842231858309,-29,-6,-2,-2,7,-7,-13,-5
1527842231859307,16,-1,-4,-1,-21,-13,1,-5
1527842231859307,-18,-6,0,-4,13,18,7,-5
1527842231872272,14,13,0,-5,-10,-4,6,14
1527842231872272,22,-18,-4,3,11,-9,-8,-9
1527842231879254,-8,11,-1,-5,-15,1,3,-8
1527842231879254,11,-4,0,0,-1,4,-10,19
1527842231895211,4,-2,-2,-2,3,2,7,2
1527842231895211,-14,-10,-5,0,-3,0,-14,-16
1527842231897206,9,-1,1,1,-3,-4,-6,-7
1527842231897206,25,3,-3,0,-2,-11,-1,-14
1527842231918150,-6,10,5,-4,4,14,13,14
1527842231918150,-6,-22,-8,-8,-14,7,1,-8
1527842231919147,-2,-17,-8,8,30,6,3,14
1527842231919147,16,63,38,11,8,2,11,12
1527842231932112,-1,-33,-11,-4,-11,-5,-9,9
1527842231932112,38,18,3,-8,-11,5,1,-3
1527842231939093,-42,-39,-15,-3,-1,-6,-20,-23
1527842231939093,-68,-24,-16,-2,-24,-9,15,7
1527842231955051,9,13,1,-9,12,-1,-12,-35
1527842231955051,-9,-9,-1,0,6,8,0,10
1527842231957046,45,17,4,0,-3,1,-3,30
1527842231957046,8,-13,0,-4,-9,-5,-8,-21
1527842231977990,2,-1,2,2,-16,0,8,18
1527842231977990,-74,3,-5,-5,-6,-26,-20,-29
1527842231979985,12,-18,-2,-9,-29,-11,-2,-4
1527842231979985,-22,13,-7,5,21,3,0,-28
1527842231991953,50,20,15,11,41,27,31,43
1527842231991953,48,29,4,-3,3,28,10,21
1527842231998934,-48,-4,8,2,-5,-3,-6,-25
1527842231998934,43,-23,-4,10,0,1,0,31
1527842232015888,-42,-6,-13,-12,-9,-2,0,-20
1527842232015888,5,-9,-8,-6,-9,-20,-15,-5
1527842232016886,-7,15,21,14,-18,-11,0,-6
1527842232016886,-13,-10,-8,-1,39,24,10,-2
1527842232036832,27,-2,-2,-4,-21,-2,-13,-23
1527842232036832,-28,-14,-12,-13,-9,-7,25,-14
1527842232045809,-2,-18,-10,-12,-29,-26,-16,10
1527842232045809,1,2,-2,-3,-12,-28,-22,-27
1527842232051792,-7,33,14,12,21,29,15,16
1527842232051792,-19,-86,-33,-15,-6,-7,-7,-9
1527842232058774,-2,99,47,22,25,23,21,9
1527842232058774,10,-31,-18,-19,-28,-24,-15,-16
1527842232075728,-19,-23,-9,-7,-24,-22,-6,30
1527842232075728,10,15,6,9,6,-5,-10,7
1527842232076726,2,5,-9,-6,15,14,10,-20
1527842232076726,4,-8,2,2,22,28,13,9
1527842232097669,16,-10,-7,-8,-16,-6,-1,-3
1527842232097669,-29,16,11,7,-5,-28,-21,-11
1527842232099665,-16,-20,-13,-6,7,-10,-9,-10
1527842232099665,-5,22,10,8,3,49,47,50
1527842232112629,36,-14,-4,2,11,-48,-32,-42
1527842232112629,-14,15,6,3,1,15,11,-3
1527842232118614,56,-7,-6,-6,3,15,28,13
1527842232118614,-55,-15,-12,-23,-23,-25,-27,-8
1527842232135568,41,3,5,15,8,12,5,-1
1527842232135568,-22,-11,0,3,7,-13,-2,-6
1527842232136566,25,-3,-5,-3,-10,-18,-16,20
1527842232136566,-44,-7,6,16,15,13,12,3
1527842232157510,33,15,-5,-35,-49,4,12,10
1527842232157510,-15,16,19,40,58,22,-37,-19
1527842232159505,1,-20,-9,-1,-20,2,36,24
1527842232159505,10,3,-8,-26,-15,-32,-29,-17
1527842232171472,-74,-12,-1,5,-5,-25,4,-6
1527842232171472,63,22,17,37,30,72,24,36
1527842232180449,-28,-15,-10,-14,-1,-21,-21,-7
1527842232180449,13,-6,6,5,0,28,25,-25
1527842232195408,21,17,-4,2,-6,-17,-15,-7
1527842232195408,-36,-18,-8,-23,-18,-18,-1,4
1527842232197403,-3,-5,4,16,17,20,6,-18
1527842232197403,110,27,-1,-11,-18,-22,0,73
1527842232218347,-73,-29,-4,-4,-1,3,-17,-52
1527842232218347,53,27,3,-2,-5,-8,11,31
1527842232219345,-17,-24,-3,4,13,7,-15,-19
1527842232219345,13,30,6,-6,-9,-15,-10,-8
1527842232231312,-13,-11,-4,-4,2,19,12,15
1527842232231312,0,-1,-1,-4,8,-9,-4,-5
1527842232240289,-30,-14,1,10,-2,-6,-12,-8
1527842232240289,-16,0,2,7,3,-27,-2,2
1527842232255248,32,6,1,6,15,57,17,10
1527842232255248,-27,-6,-6,-29,-25,-2,-5,-20
1527842232257243,24,12,2,6,3,-28,-20,9
1527842232257243,-17,-11,-4,6,4,4,6,-4
1527842232278187,-51,-12,-1,0,11,-9,-6,-9
1527842232278187,86,24,-1,-12,-33,-9,3,23
1527842232279185,-28,6,3,-2,10,36,20,-3
1527842232279185,-9,-11,-1,3,-1,-14,-19,-11
1527842232291152,27,-2,2,0,6,-5,-4,0
1527842232291152,-37,-11,-4,1,1,0,6,0
1527842232300128,33,15,0,0,-2,-2,4,32
1527842232300128,-21,-5,-4,-6,-4,-2,-3,-22
1527842232315088,-15,-26,-12,-3,-14,-4,-8,31
1527842232315088,28,78,40,22,22,11,21,9
1527842232317083,-8,-21,-12,-15,2,11,-2,-21
1527842232317083,-11,-11,-6,0,-1,-1,-10,-10
1527842232338027,8,7,-1,2,-6,-9,-4,12
1527842232338027,-7,-17,-5,3,-1,-15,-13,-4
1527842232340022,-17,7,0,-2,-14,-7,3,-4
1527842232340022,5,-3,0,5,6,3,8,7
1527842232351990,19,9,2,-1,11,4,-11,-18
1527842232351990,-49,-25,-15,-10,-1,-7,2,2
1527842232360966,-22,-12,-6,4,5,18,-3,16
1527842232360966,66,37,11,1,-11,-11,-3,16
1527842232374928,-18,19,8,1,-6,-23,-2,6
1527842232374928,10,-34,-18,-14,-21,-12,-6,23
1527842232376924,47,3,4,6,14,5,-5,-31
1527842232376924,-10,-10,7,18,9,29,26,24
1527842232397867,-13,-4,-4,-8,14,22,22,16
1527842232397867,-24,-22,-10,-11,-3,3,3,-31
1527842232399862,-40,-24,-14,-8,-32,-44,-27,-20
1527842232399862,1,-24,-5,12,16,27,6,1
1527842232411830,44,27,5,-3,-1,-11,-17,-31
1527842232411830,8,-7,-1,4,-7,3,17,-4
1527842232420806,-49,-7,-6,-11,-24,-12,-4,8
1527842232420806,2,-6,8,13,-3,-30,-6,-15
1527842232435766,19,35,7,-4,-6,22,-8,19
1527842232435766,44,-9,-1,-5,1,13,25,30
1527842232436763,-95,-61,-27,-7,-2,-5,-2,-18
1527842232436763,94,84,36,10,14,15,1,10
1527842232457707,-19,-20,25,6,-10,-12,9,3
1527842232457707,-30,5,1,4,1,-14,-26,-27
1527842232459702,12,6,4,-9,-11,-6,4,33
1527842232459702,-47,-49,-22,-5,1,12,8,-24
1527842232471670,-19,-15,-16,-13,-10,-2,-9,-37
1527842232471670,23,33,13,12,42,29,8,18
1527842232480646,19,-2,4,7,-24,-25,-16,8
1527842232480646,-6,17,-5,-12,-21,-40,-25,6
1527842232495606,-19,0,2,18,31,41,25,-22
1527842232495606,-70,-34,-12,-8,4,-10,-6,-26
1527842232496604,92,26,2,1,1,16,20,-1
1527842232496604,-26,-2,-4,-9,-3,-3,5,3
1527842232517547,-37,-20,-9,-11,-28,-23,-22,-16
1527842232517547,-20,-23,-17,-4,-10,-6,-8,-2
1527842232519542,48,40,37,19,40,32,15,-9
1527842232519542,11,20,-10,-7,-3,0,-9,11
1527842232540486,-18,-52,-21,-14,-26,-40,-8,6
1527842232540486,6,11,0,11,20,32,18,4
1527842232542481,-40,-15,4,-2,12,3,-2,-28
1527842232542481,-10,-18,-9,-12,-17,1,-3,4
1527842232554448,30,3,-7,-6,-1,-21,-6,11
1527842232554448,19,4,1,-5,-24,-13,-9,-1
1527842232563425,-16,-5,-3,-10,2,-24,-17,-7
1527842232563425,-14,-12,1,12,20,13,12,-11
1527842232578385,-19,-7,-11,-7,-1,12,5,3
1527842232578385,25,7,4,3,-24,-38,-17,-2
1527842232579382,24,12,4,14,28,40,21,13
1527842232579382,-18,-15,-8,-26,-1,14,-3,-19
1527842232600326,-16,7,6,16,-4,-41,4,4
1527842232600326,31,0,2,-4,-7,18,-12,11
1527842232602321,39,11,-5,-7,0,-3,-1,14
1527842232602321,1,-10,-4,-1,-2,8,-4,-2
1527842232614288,-12,4,2,0,7,-4,-18,-3
1527842232614288,-65,-14,1,1,-9,-6,0,-18
1527842232621270,75,24,0,1,-5,10,3,13
1527842232621270,-2,-1,-5,-18,-8,-31,-18,-3
1527842232638224,-10,-6,0,-8,-15,15,13,4
1527842232638224,20,12,14,44,64,-15,-15,-1
1527842232639222,-49,-11,-5,3,6,36,9,-21
1527842232639222,-8,-7,0,9,-3,13,21,3
1527842232660166,45,11,-1,-5,-17,1,-8,9
1527842232660166,-4,-2,3,0,-2,-40,-15,-15
1527842232662161,18,-7,-5,-8,-5,10,6,8
1527842232662161,-6,-6,-3,5,5,-2,-2,-4
1527842232675126,-16,-10,-2,6,10,7,-5,-14
1527842232675126,22,13,-2,-14,-19,3,2,2
1527842232677121,6,16,-7,-14,-11,-26,-9,19
1527842232677121,-28,-14,1,2,-4,4,5,-9
1527842232698065,1,2,2,8,11,5,2,10
1527842232698065,22,-12,-7,-8,-2,11,4,-9
1527842232699062,-39,5,6,2,-3,-8,2,20
1527842232699062,-1,1,1,1,0,0,-1,1
1527842232720006,9,-3,1,2,8,2,-2,3
1527842232720006,41,17,4,-8,-6,7,4,2
1527842232722001,-27,-9,-2,-1,-4,-4,-5,-16
1527842232722001,-4,-2,0,-14,-16,-3,-2,10
1527842232734966,-13,1,2,24,26,0,-2,-14
1527842232734966,13,-3,-4,-6,-12,3,7,19
1527842232741947,-11,-5,-1,-7,-6,-14,-4,-11
1527842232741947,3,3,1,0,0,7,-10,-6
1527842232757904,7,-24,-16,-16,-12,1,4,6
1527842232757904,-6,35,9,2,6,6,0,-11
1527842232759900,0,-22,-4,7,-3,-3,1,6
1527842232759900,5,17,11,2,3,-3,-2,23
1527842232780843,21,6,1,-4,0,12,8,-8
1527842232780843,-60,-38,-18,-11,-11,-10,-14,-31
1527842232781841,-10,2,-4,1,-3,-6,-10,1
1527842232781841,-33,11,0,-2,-4,-8,1,-3
1527842232794806,10,-11,-3,0,-14,-24,-17,10
1527842232794806,38,45,9,7,33,32,27,10
1527842232801787,37,-32,-13,-5,27,44,27,21
1527842232801787,-49,-10,2,10,-20,-23,-21,-43
1527842232817745,34,-6,-9,-12,-20,-29,-22,-6
1527842232817745,-45,-20,-14,-17,-9,14,9,10
1527842232819739,35,19,9,6,1,-6,-5,-4
1527842232819739,-56,-19,-10,2,22,18,10,7
1527842232840683,22,14,15,24,6,-20,-9,-1
1527842232840683,-10,-11,1,-3,-35,-14,-18,-9
1527842232841681,-22,1,-11,-18,0,3,8,-15
1527842232841681,49,-19,-6,7,4,-25,-14,30
1527842232853649,-30,31,12,1,-15,-11,-1,-9
1527842232853649,-38,-58,-21,0,20,7,1,-4
1527842232862625,63,81,32,16,13,21,17,19
1527842232862625,30,-19,-12,-13,-10,0,-8,-20
1527842232877584,-36,-26,-8,-2,8,15,11,7
1527842232877584,27,11,2,-4,3,-9,8,18
1527842232879580,-46,-38,-14,-4,-4,11,0,5
1527842232879580,31,6,2,2,-1,-27,-28,21
1527842232900523,25,16,2,-8,-3,11,8,2
1527842232900523,-52,-15,-9,-13,-25,-37,-17,-45
1527842232902518,18,-12,-5,1,0,9,-18,-3
1527842232902518,0,18,12,9,9,20,20,3
1527842232914486,10,5,5,-3,2,1,-5,-9
1527842232914486,-7,-3,-1,2,13,9,16,12
1527842232923462,-21,-9,-3,-3,-13,-26,-11,-9
1527842232923462,14,21,7,-4,-7,-5,-4,-2
1527842232937425,11,0,-11,-16,-12,8,0,-4
1527842232937425,6,5,9,8,7,-5,-4,16
1527842232939420,-30,-3,1,10,6,-5,3,-53
1527842232939420,-71,-36,-17,-19,-19,-12,3,-18
1527842232960363,39,25,-1,-7,16,20,10,27
1527842232960363,10,4,2,7,2,23,18,15
1527842232962358,-32,-8,-3,-4,-2,-20,-18,-25
1527842232962358,7,-6,0,7,0,0,5,-12
1527842232974326,-11,-6,1,3,6,-6,-24,-25
1527842232974326,7,17,2,1,3,2,9,41
1527842232984300,14,2,1,15,-4,-12,-19,1
1527842232984300,-9,5,-6,-13,2,31,17,-7
1527842232998262,-4,-7,-5,-2,3,-16,-16,13
1527842232998262,65,-4,4,6,0,15,-6,-25
1527842232999260,-49,-7,-2,-11,-7,-8,6,-23
1527842232999260,39,7,2,2,-4,-8,8,31
1527842233020203,-37,-3,-3,-4,-2,-1,1,-9
1527842233020203,4,5,6,1,-3,-1,-2,-26
1527842233022198,-56,-22,-9,-8,-8,-14,-4,25
1527842233022198,43,8,-4,-14,-11,11,-8,-18
1527842233035164,-9,3,2,2,11,11,14,-15
1527842233035164,-8,-2,3,10,1,-25,-19,10
1527842233041147,16,13,7,6,5,-2,13,23
1527842233041147,16,-4,-3,1,4,29,11,-30
1527842233058102,-26,1,0,-7,2,9,-2,-9
1527842233058102,5,-5,-8,-11,-13,0,2,-12
1527842233059100,0,-3,-1,-10,-3,-6,-5,5
1527842233059100,2,0,3,4,0,-18,-1,12
1527842233081041,10,-4,-2,8,9,5,14,8
1527842233081041,0,3,1,-6,3,14,-12,-12
1527842233083036,17,1,-1,-6,-10,-11,-9,12
1527842233083036,-13,0,-5,-3,4,-2,2,5
1527842233094006,6,-5,2,8,0,12,16,8
1527842233094006,-6,3,-2,-3,-13,-11,-5,10
1527842233102982,8,1,1,-1,-1,0,-6,-9
1527842233102982,6,4,1,1,1,-5,1,11
1527842233117943,-28,-11,-3,8,10,10,-2,-12
1527842233117943,-11,-2,-1,-4,-6,-1,-1,11
1527842233119937,34,11,-2,-7,-8,5,10,9
1527842233119937,8,2,0,7,2,-5,-5,-12
1527842233140881,-27,-12,-3,-4,-4,-3,3,3
1527842233140881,4,17,7,-3,-1,-3,-3,6
1527842233141879,10,18,9,8,3,9,3,-22
1527842233141879,0,-4,2,2,2,-3,-3,-5
1527842233153846,4,-11,-8,-7,-12,-9,-1,44
1527842233153846,9,13,4,4,3,4,0,0
1527842233162822,6,-20,-5,1,4,2,-1,-17
1527842233162822,5,6,0,-2,3,0,-2,13
1527842233177782,-44,-10,-2,-2,-2,-1,-4,-36
1527842233177782,51,3,-2,4,0,0,4,15
1527842233179777,-35,-10,1,4,5,3,-3,7
1527842233179777,-22,-1,-1,3,-2,-3,-6,-12
1527842233200721,19,-8,-2,-5,-9,-4,3,-2
1527842233200721,40,5,-1,-8,-6,-16,5,38
1527842233201718,7,17,1,-3,-6,11,-2,-18
1527842233201718,-8,-18,-2,-1,2,0,3,37
1527842233213686,3,23,7,7,21,25,13,-32
1527842233213686,-65,-15,-8,-9,-13,-15,-5,25
1527842233222662,29,-46,-18,-5,-5,-12,0,14
1527842233222662,-13,34,8,2,-2,13,3,-2
1527842233237622,56,26,4,-6,-11,-10,-3,29
1527842233237622,-7,7,5,2,-10,-2,7,-34
1527842233239617,-19,-7,0,-9,-7,3,0,9
1527842233239617,-53,-38,-12,1,3,-29,-14,-45
1527842233260561,14,2,1,9,25,38,5,6
1527842233260561,7,-17,-1,-1,7,-11,-14,9
1527842233261558,49,29,8,-4,-16,-24,1,9
1527842233261558,-23,-16,-5,9,19,20,-3,-27
1527842233274524,-13,-5,2,7,-23,-16,6,8
1527842233274524,-27,-55,-25,-15,-15,-17,-31,-34
1527842233283500,-26,51,23,25,69,76,56,8
1527842233283500,77,45,25,-1,-10,-16,-10,31
1527842233297462,-16,-30,-17,-11,-10,-9,-1,4
1527842233297462,-30,-42,-8,-1,-17,-7,-9,-25
1527842233299457,18,63,14,1,-28,-42,-26,-2
1527842233299457,7,-25,-13,1,24,32,23,-17
1527842233320401,-13,29,12,8,13,10,4,17
1527842233320401,-24,12,3,-3,-11,-15,-7,-23
1527842233322396,-10,-37,-18,-8,-23,-13,-12,-1
1527842233322396,-8,-5,-2,2,19,8,14,12
1527842233343340,34,0,-2,-5,-16,4,-2,-12
1527842233343340,9,10,3,2,19,-14,-46,-6
1527842233344337,1,-26,-12,-3,-7,30,39,-1
1527842233344337,-20,15,9,1,-14,-45,-8,19
1527842233358300,13,-8,-5,-3,9,34,18,-4
1527842233358300,25,16,0,-2,-1,-7,-20,14
1527842233359297,-63,-28,-1,3,7,-12,-15,-22
1527842233359297,55,7,-1,-3,-6,21,2,18
1527842233380241,7,-1,-2,1,-1,-24,4,2
1527842233380241,-58,-11,-3,-3,0,22,4,-17
1527842233382236,68,8,-1,1,-2,-12,-9,18
1527842233382236,-62,-24,-12,-15,-18,3,-2,-19
1527842233403180,-8,1,4,6,5,-27,-26,5
1527842233403180,39,21,6,3,8,28,30,17
1527842233404177,-31,-13,-2,3,-5,-26,-12,0
1527842233404177,26,2,-5,-11,-2,-4,-33,-4
1527842233418140,-4,-3,1,2,-1,43,8,9
1527842233418140,2,7,7,29,29,-1,21,-12
1527842233419137,-11,-15,-7,-3,-6,0,-4,-5
1527842233419137,25,7,-2,-8,-8,-15,-4,-6
1527842233440081,-4,-3,-4,-13,-12,-15,12,14
1527842233440081,-29,-5,-6,-5,-2,0,10,-4
1527842233442076,12,5,5,-2,0,18,-12,6
1527842233442076,-6,-2,0,7,-3,2,9,-1
1527842233454044,-25,-13,-5,-18,-13,-22,-21,-31
1527842233454044,48,20,8,13,16,28,21,36
1527842233463020,-14,-9,-8,-6,-7,-31,-18,-63
1527842233463020,-37,-16,-10,-11,-5,13,7,35
1527842233476982,9,8,4,4,-3,-16,-2,-9
1527842233476982,1,-7,-6,-18,-23,10,11,4
1527842233483963,1,1,0,12,2,-3,-6,-11
1527842233483963,11,3,8,23,29,-10,2,-16
1527842233500918,-7,-8,-9,-3,-4,-4,-12,2
1527842233500918,9,5,1,-7,-10,-8,0,-4
1527842233501916,-20,-5,-2,-10,-5,7,1,13
1527842233501916,3,2,0,-1,-4,-6,-17,-7
1527842233522859,10,4,4,2,2,1,15,12
1527842233522859,-11,-1,-2,-4,1,-9,-14,-30
1527842233524855,-6,-9,-3,-3,0,5,12,29
1527842233524855,6,0,1,2,-2,2,1,7
1527842233537820,-11,3,3,3,4,0,-14,-21
1527842233537820,25,23,8,-1,-3,5,6,1
1527842233539815,-8,-1,-3,-3,3,-1,-4,11
1527842233539815,-2,-5,-2,-2,-7,6,4,-6
1527842233560758,18,-7,0,-1,0,-9,-9,9
1527842233560758,-7,-6,-4,3,4,1,-1,-6
1527842233561756,2,3,0,0,3,1,3,4
1527842233561756,8,-4,-3,-6,-8,-2,0,-10
1527842233582700,3,1,-2,0,1,-1,1,-3
1527842233582700,0,2,2,0,2,-1,-3,8
1527842233584695,12,-3,-1,-2,1,3,-3,-3
1527842233584695,-17,-2,-1,1,-4,3,6,0
1527842233597660,5,-8,-7,-1,-1,-6,-16,-22
1527842233597660,1,-8,-5,-4,-3,5,13,20
1527842233599655,-4,11,5,1,-4,-8,-12,-36
1527842233599655,4,1,2,7,13,7,11,26
1527842233620598,35,11,1,-2,3,4,0,-3
1527842233620598,-31,-43,-12,-4,-9,-19,-15,-18
1527842233621596,-36,-7,-6,-7,1,33,11,3
1527842233621596,-1,8,0,-4,-15,-19,-7,9
1527842233642540,-27,-6,-1,2,2,4,1,-12
1527842233642540,17,1,-3,-2,4,-7,-4,1
1527842233644535,2,2,3,-5,-34,-8,-1,-2
1527842233644535,19,-7,2,9,31,27,18,6
1527842233657500,-41,-4,-8,-14,-7,-6,-10,12
1527842233657500,22,-2,-3,-2,-22,-13,-10,7
1527842233659495,11,32,14,7,5,-25,-5,-3
1527842233659495,-9,-31,-11,-2,14,40,28,-6
1527842233680438,20,13,9,4,1,-6,-19,-14
1527842233680438,-69,-63,-16,3,-2,0,15,-14
1527842233682433,83,9,-4,11,36,22,6,40
1527842233682433,-16,-1,-9,-20,-15,-2,15,-4
1527842233703377,-15,-35,-13,1,2,6,-4,-32
1527842233703377,-10,19,10,-23,-27,-62,-8,28
1527842233704375,26,-61,-18,11,16,59,9,-9
1527842233704375,16,5,-3,-4,-15,-27,-4,0
1527842233717340,3,27,5,1,-14,-45,-7,39
1527842233717340,-25,-5,-10,-16,-16,29,6,-7
1527842233724321,-34,15,15,15,49,10,0,-16
1527842233724321,-6,-17,-10,-3,2,-4,-8,-12
1527842233740278,14,-1,8,6,-15,-11,-9,-2
1527842233740278,53,8,9,12,25,26,9,-4
1527842233742273,12,29,3,-17,-26,-25,-5,9
1527842233742273,-30,-33,-11,-7,-17,-13,-25,-16
1527842233763217,13,34,9,8,30,32,31,23
1527842233763217,-17,3,0,1,3,4,-9,-4
1527842233764215,-7,-11,-5,-3,-8,-6,-1,-1
1527842233764215,-3,-6,-2,-1,-19,-25,-24,-18
1527842233776183,-1,-2,0,-8,-28,-34,-21,-6
1527842233776183,15,16,0,7,51,47,25,9
1527842233785158,5,-12,-4,-3,-5,-3,14,15
1527842233785158,0,18,6,-2,-17,9,-4,-6
1527842233800119,39,-6,0,-1,1,-18,-15,10
1527842233800119,-15,16,5,2,-7,-1,-1,10
1527842233802113,-55,-24,-9,-4,-12,-37,-19,-34
1527842233802113,33,25,13,3,11,31,10,5
1527842233823057,-4,-5,1,7,10,23,22,-15
