timestamp,emg1,emg2,emg3,emg4,emg5,emg6,emg7,emg8
1527842104476839,16,80,3,-7,-6,-5,-2,22
1527842104476839,2,-38,-6,7,2,3,8,52
1527842104477834,-75,62,29,11,5,4,-4,-62
1527842104477834,-35,-43,-29,-5,1,4,13,41
1527842104498773,-56,-26,-11,-8,-6,-6,-7,-9
1527842104498773,17,-29,-4,-7,-3,-3,-4,5
1527842104500768,4,48,19,12,3,2,2,7
1527842104500768,87,-33,-10,-9,-8,-4,7,22
1527842104512736,-41,-32,-9,-1,1,0,-3,7
1527842104512736,-54,5,10,4,3,2,-7,-36
1527842104521712,-1,-6,-4,-4,-1,-4,-6,-2
1527842104521712,47,-41,-4,4,4,5,-4,-52
1527842104536672,36,-20,-12,-7,-3,-3,-2,-17
1527842104536672,45,34,9,3,-1,1,7,15
1527842104537670,18,37,2,-4,-7,-6,-3,4
1527842104537670,-44,53,9,3,4,4,2,34
1527842104558613,-96,43,11,5,3,-3,-6,-41
1527842104558613,-57,-43,-10,-6,0,0,-4,-24
1527842104560608,-19,-5,-3,-2,-2,-2,-1,-21
1527842104560608,-78,21,9,4,3,1,-6,-40
1527842104572576,6,-4,-4,1,-2,-1,-2,-3
1527842104572576,-30,-10,-2,6,2,0,0,3
1527842104581552,-2,-58,-17,-6,-1,4,5,6
1527842104581552,64,59,17,1,-6,-7,-3,15
1527842104596512,-57,-16,4,0,2,8,4,16
1527842104596512,-62,28,2,-5,-6,-8,-5,-11
1527842104598507,-49,-83,-26,-10,-4,-3,1,42
1527842104598507,-11,19,16,8,7,2,-6,-27
1527842104619450,76,1,3,3,0,2,10,20
1527842104619450,49,19,6,0,-3,-1,6,62
1527842104620448,-87,-33,-11,-9,-4,-5,-6,-45
1527842104620448,-39,22,18,10,6,4,13,35
1527842104632416,34,-10,-8,-5,-4,-5,0,-1
1527842104632416,-71,-52,-6,1,5,3,-2,-23
1527842104641394,44,-14,-13,-4,-3,-1,1,2
1527842104641394,74,-27,-1,-2,-8,-5,-3,20
1527842104655354,-57,29,4,-1,0,-4,-9,-25
1527842104655354,15,15,4,3,3,5,7,1
1527842104662336,39,-11,-4,1,0,-2,-6,17
1527842104662336,-36,-53,-19,-9,-3,0,-5,-48
1527842104679291,-6,9,13,10,2,3,8,33
1527842104679291,45,14,7,0,-3,-4,3,-38
1527842104680289,-49,5,-18,-14,-7,-6,-4,-6
1527842104680289,-1,8,7,3,2,-2,-11,-41
1527842104701232,81,9,-3,-1,-4,-2,-6,-49
1527842104701232,-99,-75,-20,-6,2,0,-6,-39
1527842104703227,74,-12,1,-6,-9,-5,3,29
1527842104703227,-17,36,4,3,2,6,3,-12
1527842104716192,-86,-18,5,-3,-1,-3,-2,3
1527842104716192,73,15,-5,-2,-4,0,3,26
1527842104722176,55,30,3,-1,0,0,-7,-33
1527842104722176,-82,13,9,5,2,1,4,-11
1527842104739130,19,-15,-20,-11,-4,-4,-3,35
1527842104739130,-29,16,-2,-1,0,-2,-6,-2
1527842104741126,-11,99,36,20,10,6,7,31
1527842104741126,-78,-47,-22,-17,-11,-10,-10,-11
1527842104761072,80,38,12,10,6,4,-6,-9
1527842104761072,-4,-6,-10,-12,-10,-9,-3,-16
1527842104763067,-43,3,6,3,4,5,1,-21
1527842104763067,26,-41,-15,-2,-1,0,2,34
1527842104776032,32,-6,-15,-10,-9,-6,0,24
1527842104776032,52,35,4,0,-2,-1,-3,3
1527842104783013,-108,-53,-8,5,10,9,6,-17
1527842104783013,124,42,8,-4,-9,-10,-6,-21
1527842104798971,-18,-40,-13,-11,-3,-4,0,4
1527842104798971,-20,6,7,8,4,4,1,10
1527842104800966,16,21,6,2,0,0,5,18
1527842104800966,-47,5,7,10,8,7,3,-19
1527842104821909,44,31,-11,-8,-6,-5,-1,16
1527842104821909,6,11,6,-1,0,-4,-11,-50
1527842104822908,10,-90,-39,-14,-5,-7,-6,0
1527842104822908,-17,34,9,3,3,3,3,-5
1527842104835872,-36,-3,-2,-3,0,-2,-6,-28
1527842104835872,-83,-35,-9,2,4,4,-2,-5
1527842104842853,127,55,11,0,-11,-6,-3,29
1527842104842853,86,55,-6,-8,-3,-7,-2,3
1527842104858810,-37,-4,7,5,6,5,2,4
1527842104858810,-62,28,15,5,1,3,4,0
1527842104860806,95,-30,-16,-10,-10,-8,1,30
1527842104860806,-48,31,12,6,4,4,4,13
1527842104881749,3,-5,-1,-2,1,-2,-1,-14
1527842104881749,26,-17,-4,-2,0,1,4,14
1527842104882747,-82,5,11,9,8,5,5,-14
1527842104882747,36,0,9,4,2,2,4,13
1527842104895712,-24,-20,-8,-6,-6,-7,-5,6
1527842104895712,-10,-11,2,0,0,2,6,9
1527842104902693,-18,28,14,9,6,4,1,-17
1527842104902693,-19,-45,-20,-11,-6,-7,-6,19
1527842104918651,41,37,18,14,3,6,-2,-22
1527842104918651,-36,-6,-11,-12,-6,-10,-11,-26
1527842104920646,-18,2,4,-1,0,0,-7,-24
1527842104920646,49,23,1,3,-1,1,4,20
1527842104941589,-17,-27,9,8,3,2,1,-42
1527842104941589,76,3,-6,-3,-2,-2,2,33
1527842104943584,6,-5,0,-6,-3,-2,-4,0
1527842104943584,-76,0,3,5,3,2,-9,-17
1527842104955552,20,34,1,-4,-2,-3,10,14
1527842104955552,-13,-58,-12,-3,-1,-3,-6,-7
1527842104962533,-17,8,-4,0,2,3,10,37
1527842104962533,-15,11,9,2,0,-1,-2,-6
1527842104979488,-15,-10,-4,-2,-2,-2,-6,-1
1527842104979488,23,25,2,-3,-3,-4,-2,8
1527842104980486,21,15,6,5,1,-1,-3,1
1527842104980486,-11,-27,-7,-4,-3,-1,-1,-11
1527842105001429,-58,-13,-7,-4,-1,-3,2,-3
1527842105001429,-29,0,5,3,3,9,4,9
1527842105003424,28,-10,-5,0,1,-1,0,29
1527842105003424,62,-16,-3,-6,-4,-6,-2,10
1527842105015392,-8,-17,-4,-1,-2,2,1,6
1527842105015392,-4,22,6,-4,1,-2,-3,6
1527842105024368,-38,-4,-1,9,1,0,2,-34
1527842105024368,66,7,-1,-4,1,1,-1,-28
1527842105039328,14,5,7,5,0,2,1,17
1527842105039328,75,8,-1,1,0,1,3,15
1527842105040326,-84,-12,-13,-11,-8,-7,-4,-20
1527842105040326,-37,4,2,-4,3,2,2,-13
1527842105061269,12,-22,1,8,1,-1,1,7
1527842105061269,-23,24,17,13,5,3,0,3
1527842105063264,117,-3,-11,-10,-6,-4,-2,-10
1527842105063264,-75,29,-7,-3,-2,-3,-4,3
1527842105075232,-20,-26,-9,-8,-1,0,0,9
1527842105075232,6,-6,-5,-3,-3,-2,-3,-23
1527842105084208,-20,15,12,4,0,-1,1,-7
1527842105084208,50,-13,1,1,1,-1,-8,-13
1527842105099168,31,26,-4,-6,-3,-3,0,-3
1527842105099168,9,-42,-13,-6,-3,-5,-10,-27
1527842105100166,-22,22,5,-5,-1,-1,-6,-8
1527842105100166,-42,-36,-12,-4,-5,-3,5,12
1527842105121110,-28,14,9,4,2,0,-7,10
1527842105121110,11,-33,-16,-8,-7,-6,1,10
1527842105123105,-8,13,-2,2,5,5,3,-14
1527842105123105,-12,57,21,-1,-4,-5,-2,3
1527842105135072,-11,-3,-9,-1,0,4,3,10
1527842105135072,-29,13,-1,-2,0,0,-3,1
1527842105144048,24,-27,-3,-2,-6,-3,-1,17
1527842105144048,13,36,2,1,-3,-2,6,23
1527842105159008,-40,-13,0,0,1,1,1,-3
1527842105159008,96,40,4,2,-3,0,13,30
1527842105161003,59,16,0,-3,-2,-3,-9,-16
1527842105161003,-36,-33,-11,0,0,0,-3,-22
1527842105181947,-38,-8,3,-2,-2,1,0,-3
1527842105181947,-5,18,4,2,0,0,2,36
1527842105182945,-12,8,-2,0,1,1,8,-7
1527842105182945,-16,-5,-4,-4,-2,-4,-3,12
1527842105194912,-33,46,10,1,1,-2,-8,-22
1527842105194912,-36,2,-4,-2,-1,0,0,-9
1527842105203888,25,36,10,0,-2,-2,-6,8
1527842105203888,-11,-48,-14,-2,1,2,-3,-11
1527842105218848,6,16,10,2,1,0,3,-11
1527842105218848,-4,-14,-7,0,-1,-1,-3,-6
1527842105220843,-5,-18,-6,-2,-2,-1,-3,6
1527842105220843,-50,36,12,4,0,-1,-4,-7
1527842105241787,27,-5,-12,-5,-2,-1,-4,-5
1527842105241787,-36,13,8,3,2,0,2,7
1527842105242784,-13,-105,-16,-6,-4,-1,-4,-8
1527842105242784,78,20,-3,-4,-8,-8,-2,-12
1527842105254752,-19,-34,-14,-10,-4,-6,-3,1
1527842105254752,-29,-47,-10,-4,1,1,7,14
1527842105263728,-42,18,-6,-5,-2,-7,-6,1
1527842105263728,-14,-7,14,11,5,6,7,1
1527842105278688,81,-2,-2,-2,-2,-5,-6,-41
1527842105278688,33,54,26,14,0,0,-1,2
1527842105280683,32,13,-7,-11,-5,-4,-3,65
1527842105280683,-43,-14,-6,-2,-3,-2,-8,-14
1527842105301627,-20,-9,-1,3,2,2,4,-6
1527842105301627,-26,8,7,3,1,-1,-7,-26
1527842105303622,6,5,7,6,4,4,6,-10
1527842105303622,-13,-12,-1,-2,0,-1,-4,-3
1527842105315589,-18,-58,-4,0,-2,0,4,13
1527842105315589,8,15,-10,-9,-4,-1,-3,-3
1527842105324566,-61,-14,10,6,4,2,1,-11
1527842105324566,55,-6,-7,0,1,1,2,-6
1527842105338528,29,14,1,2,-3,-3,-6,6
1527842105338528,-11,-27,-6,-7,-3,-2,-2,-9
1527842105340523,-49,-18,-10,-2,1,2,0,-16
1527842105340523,13,63,24,11,3,1,-3,-6
1527842105369446,-45,-43,-18,-11,-6,-4,-4,0
1527842105369446,-27,56,13,2,2,1,-1,1
1527842105370443,-56,-9,3,4,5,4,3,-35
1527842105370443,-102,-22,16,16,14,12,-4,-52
1527842105375430,70,-65,-45,-31,-20,-15,-11,3
1527842105375430,-24,-6,-5,-7,-2,-2,-1,-8
1527842105384406,-27,7,5,2,1,0,2,-39
1527842105384406,-70,68,19,8,4,3,9,39
1527842105398368,-32,-63,-13,-2,2,0,-6,-2
1527842105398368,64,17,-5,-1,-3,-4,2,16
1527842105405350,-34,22,5,5,5,4,-2,5
1527842105405350,62,-1,-4,-9,-8,-9,-6,-17
1527842105421307,-4,26,14,9,5,5,3,19
1527842105421307,-1,-21,-5,-1,-1,-5,-3,-31
1527842105423302,14,-9,3,-1,-3,-2,-1,7
1527842105423302,29,-16,-17,-9,-3,-2,-5,6
1527842105435269,95,77,16,6,-7,-6,5,2
1527842105435269,-48,-57,-13,-4,6,2,-5,32
1527842105444246,-40,-13,-13,-15,-14,-13,-2,18
1527842105444246,-48,-44,-13,-7,0,2,0,0
1527842105459206,-76,107,47,18,8,5,2,-21
1527842105459206,-63,-65,-16,15,13,14,2,-34
1527842105460204,82,80,2,-19,-12,-12,-5,57
1527842105460204,39,-4,-7,-1,-3,-1,2,28
1527842105481147,-4,12,10,4,5,4,3,-7
1527842105481147,-4,5,5,3,0,1,-3,-44
1527842105483143,19,-1,4,5,4,4,3,14
1527842105483143,4,-33,-16,-9,-8,-6,0,3
1527842105495110,6,73,19,9,7,5,-3,-28
1527842105495110,19,-61,-23,-10,-5,-4,1,7
1527842105504086,-24,-32,-5,2,2,2,-2,-7
1527842105504086,-64,31,7,2,-3,-5,-2,3
1527842105519046,9,-46,-20,-18,-9,-6,-2,35
1527842105519046,-22,27,0,-6,-4,-6,-6,-22
1527842105521041,-40,-4,4,4,0,-2,3,11
1527842105521041,36,-49,-13,3,5,7,7,10
1527842105541984,17,26,10,5,-1,0,3,18
1527842105541984,108,23,-20,-14,-14,-11,-3,36
1527842105542982,-81,8,17,7,10,7,0,-29
1527842105542982,42,-4,-11,-1,-4,-3,-2,0
1527842105554950,-14,33,15,2,1,0,4,14
1527842105554950,-15,-32,-20,-7,-4,-3,-1,12
1527842105563926,12,8,36,28,18,16,12,-19
1527842105563926,94,-29,-35,-19,-16,-15,-6,24
1527842105578887,-79,-67,-20,-6,4,4,-1,-7
1527842105578887,41,88,36,10,3,4,2,-5
1527842105580881,98,13,-10,-2,-6,-5,-2,30
1527842105580881,19,21,3,-3,-2,-2,-1,16
1527842105601825,-34,-14,-5,-1,0,-2,-6,-31
1527842105601825,41,-97,-10,-2,-2,1,6,55
1527842105602823,116,22,-2,4,1,1,10,70
1527842105602823,-38,-5,-2,-15,-9,-9,-12,-11
1527842105614790,34,-5,-2,3,1,-3,2,17
1527842105614790,-114,26,17,6,7,7,-2,-19
1527842105623776,-6,-43,-8,9,6,8,1,17
1527842105623776,23,-2,-5,-16,-15,-15,-9,7
1527842105638727,-64,-9,-5,-3,-1,1,-1,-19
1527842105638727,-70,8,4,1,1,-2,-3,-39
1527842105644710,-11,-6,-1,-4,-4,-4,-1,38
1527842105644710,52,-35,-1,7,5,6,14,49
1527842105661664,32,11,-9,-11,-6,-8,-15,-26
1527842105661664,-28,-5,-2,1,-1,-1,-1,-2
1527842105662662,-73,-52,-12,-7,-4,-2,-5,-18
1527842105662662,45,70,17,-3,-7,-2,-2,20
1527842105683606,5,-28,4,1,-2,0,9,27
1527842105683606,-34,15,14,7,5,5,-1,-23
1527842105685604,-107,-57,-18,-7,-3,-5,-9,-56
1527842105685604,35,-11,-16,-7,-3,2,7,30
1527842105698566,10,-34,-14,-7,-6,-5,1,46
1527842105698566,3,35,10,1,0,-3,-2,6
1527842105705547,7,18,-4,-4,-4,-4,-2,-27
1527842105705547,-96,-44,2,19,15,13,8,-8
1527842105721504,70,55,3,-9,-9,-7,-4,29
1527842105721504,-33,-34,1,-8,-7,-7,0,24
1527842105723499,37,25,6,2,3,3,2,10
1527842105723499,-128,-22,10,12,9,9,-2,-38
1527842105744443,8,75,9,6,-1,0,4,28
1527842105744443,-32,18,-19,-9,-3,-1,-1,5
1527842105745441,27,2,-17,-8,-5,-5,-1,-8
1527842105745441,-82,12,24,17,12,7,1,-40
1527842105758406,82,50,2,-9,-10,-10,-16,-61
1527842105758406,31,-12,-18,-13,-7,-9,-8,-1
1527842105765387,13,3,-11,-12,-8,-9,-6,-4
1527842105765387,10,-8,4,8,7,6,3,-8
1527842105781344,-68,-34,7,15,12,13,12,-23
1527842105781344,127,-8,-14,-4,-2,-2,0,7
1527842105783339,29,6,10,6,3,4,5,6
1527842105783339,-67,22,3,-8,-3,-6,-7,-22
1527842105804283,-34,-22,2,7,6,6,4,-6
1527842105804283,54,1,8,6,1,1,-3,31
1527842105805281,-33,0,-3,-10,-7,-6,-1,-9
1527842105805281,48,17,4,2,-1,-1,2,-8
1527842105818246,-33,-49,-12,-3,1,1,-2,4
1527842105818246,15,18,9,8,2,2,1,3
1527842105825227,17,-41,-4,-2,-7,-4,-3,14
1527842105825227,31,24,-5,-3,-2,-2,-3,42
1527842105841184,-104,-24,18,14,14,8,4,-16
1527842105841184,50,22,-27,-19,-16,-14,2,56
1527842105843179,-60,31,7,3,3,0,-3,-29
1527842105843179,9,-11,6,-3,-3,-2,2,-10
1527842105864123,-30,-13,-1,-1,1,1,1,6
1527842105864123,-11,4,13,12,7,5,4,-1
1527842105866118,-4,25,-5,-2,-1,-1,2,2
1527842105866118,-10,-79,-17,-3,1,3,8,11
1527842105878086,41,23,-3,-4,-6,-6,-10,-16
1527842105878086,21,16,2,-3,-4,-7,-2,-6
1527842105885067,-60,6,-4,-5,-1,-1,0,8
1527842105885067,-82,25,14,8,5,7,1,-12
1527842105901025,40,-9,-13,-6,-6,-2,-1,-1
1527842105901025,-85,-18,23,21,16,17,12,-42
1527842105903020,64,21,-9,-17,-19,-17,-15,3
1527842105903020,-13,0,1,-2,0,-4,-3,-1
1527842105923963,-89,21,4,10,7,6,9,17
1527842105923963,-67,-74,-21,-16,0,0,-9,-41
1527842105925958,21,21,1,12,1,-3,-1,-35
1527842105925958,12,-2,-9,-10,-3,-6,-6,-21
1527842105937926,-15,-14,-5,-3,-1,-3,-4,-10
1527842105937926,30,9,22,11,4,2,3,1
1527842105944907,46,17,8,5,0,2,3,14
1527842105944907,-66,-23,-29,-17,-8,-3,-4,23
1527842105961862,-62,-44,7,3,7,6,2,-39
1527842105961862,57,-67,-45,-25,-17,-20,-24,-12
1527842105962860,-94,4,17,1,3,2,4,13
1527842105962860,57,-1,2,9,3,3,1,-26
1527842105983803,121,83,11,2,-7,-9,-11,6
1527842105983803,54,29,-21,-12,-8,-3,12,1
1527842105985798,-88,-36,15,14,12,13,14,21
1527842105985798,-5,10,-4,-13,-9,-11,-11,-5
1527842105997766,-5,9,8,12,10,10,6,-9
1527842105997766,-84,19,5,-4,-4,-2,-5,-5
1527842106006742,-44,-15,-14,-6,-3,-4,-12,-20
1527842106006742,105,0,9,16,6,6,16,7
1527842106021702,-12,-1,-19,-26,-11,-10,-10,21
1527842106021702,-128,-77,5,20,6,5,8,40
1527842106022699,-20,-17,-14,-2,11,9,-3,-37
1527842106022699,-82,52,16,5,-3,-1,1,24
1527842106043643,-16,44,-8,-9,-8,-13,-12,-9
1527842106043643,-27,-21,-16,-11,0,1,0,26
1527842106045638,29,14,9,4,1,-1,0,-11
1527842106045638,49,-24,-4,9,0,2,6,58
1527842106057607,-11,-4,-23,-29,-23,-23,-13,2
1527842106057607,-88,78,19,3,5,1,-2,-29
1527842106066582,52,-41,-9,-4,-3,0,-7,5
1527842106066582,-112,16,13,4,6,4,-6,-47
1527842106081542,72,-18,-6,5,-4,8,4,7
1527842106081542,-79,-8,-3,-12,-4,-11,-8,-20
1527842106083537,-32,29,6,1,1,-4,0,-27
1527842106083537,-40,41,17,7,2,1,-5,-13
1527842106104480,-113,-114,-14,3,10,8,6,-50
1527842106104480,127,97,27,9,-11,-7,2,64
1527842106105479,9,5,4,-5,-3,-5,-9,-28
1527842106105479,-33,27,21,11,4,4,3,-22
1527842106117446,41,-54,-53,-30,-18,-17,-8,50
1527842106117446,-41,49,14,7,6,8,2,-17
1527842106126422,-82,20,8,5,1,5,12,20
1527842106126422,74,42,5,9,1,-1,-10,-32
1527842106141382,41,-64,-26,-19,-12,-17,-11,24
1527842106141382,15,20,4,0,3,8,2,-4
1527842106143377,15,61,7,1,-4,-2,0,4
1527842106143377,-19,-57,-30,-10,2,0,6,-12
1527842106164321,-26,51,31,28,15,17,15,9
1527842106164321,-59,49,7,3,-1,13,9,-25
1527842106165318,32,-95,-29,-26,-11,-22,-18,20
1527842106165318,-20,22,8,11,0,1,0,-10
1527842106177286,64,15,27,16,11,5,10,8
1527842106177286,56,17,-2,-5,-7,-12,-7,-8
1527842106186262,67,15,-2,3,6,15,18,42
1527842106186262,26,-31,-7,-6,-5,-10,-10,-15
1527842106201222,-35,-46,-9,-8,2,3,5,2
1527842106201222,-40,14,13,13,6,4,-3,-24
1527842106203217,-37,12,4,2,-2,2,10,38
1527842106203217,89,-33,-26,-26,-14,-12,-7,27
1527842106224161,-80,70,17,18,14,15,15,19
1527842106224161,-21,-26,-2,-5,0,-3,0,20
1527842106226156,-27,-29,1,8,9,6,5,-12
1527842106226156,-98,60,15,-7,-7,-6,-2,15
1527842106238123,-40,-30,5,9,6,8,-8,-62
1527842106238123,-57,-53,-20,-8,-4,-1,5,22
1527842106247100,17,-13,-8,-8,-13,-15,-24,-76
1527842106247100,25,35,5,-3,-1,1,0,-8
1527842106261062,56,12,-1,3,0,0,-3,-2
1527842106261062,-3,-26,10,10,4,1,3,14
1527842106263057,-121,-20,-17,-7,-1,1,-6,-42
1527842106263057,4,-28,-4,-1,1,5,6,6
1527842106284001,-48,0,-8,-12,-9,-11,-9,10
1527842106284001,58,36,5,0,-4,-9,1,38
1527842106285996,104,27,2,-7,-11,-8,-3,50
1527842106285996,14,-33,-18,-4,5,2,0,-19
1527842106297963,-51,25,19,11,4,4,1,-24
1527842106297963,-58,-25,9,6,4,2,-5,-44
1527842106306946,5,25,-5,-3,-5,-2,1,-16
1527842106306946,-50,-89,-32,-20,-9,-7,-5,-9
1527842106321899,44,64,13,5,-1,-1,-1,16
1527842106321899,24,-8,-5,-1,0,-3,-9,-25
1527842106322897,31,14,-6,-2,-9,-9,-2,41
1527842106322897,-44,10,-4,-7,-4,-8,-14,-19
1527842106343844,-26,6,4,-7,-4,-5,-7,-16
1527842106343844,7,-18,-7,-3,0,0,1,9
1527842106345836,-32,-8,8,9,6,4,-1,-13
1527842106345836,7,-66,-11,1,-3,2,7,17
1527842106357804,-8,3,6,6,4,5,7,-4
1527842106357804,-68,12,-7,-10,-6,-8,-10,-12
1527842106366780,-40,-89,-19,-7,2,2,1,2
1527842106366780,22,65,12,5,1,1,-1,-38
1527842106381739,3,-14,-10,-6,-4,-4,0,13
1527842106381739,-45,14,21,14,9,10,5,-29
1527842106382737,103,-21,-9,8,1,3,13,61
1527842106382737,-94,67,1,-15,-8,-5,-2,-5
1527842106403681,-109,-27,-6,-5,-1,-1,-3,-16
1527842106403681,59,-10,-11,-1,-2,-3,-7,-11
1527842106405676,37,38,22,9,3,0,5,16
1527842106405676,16,-57,-9,-4,-3,-4,-6,1
1527842106417643,-21,8,16,13,7,10,17,58
1527842106417643,85,18,-8,-9,-3,0,5,13
1527842106426620,-127,21,-2,-4,-2,-5,-13,-11
1527842106426620,-6,9,13,15,9,7,6,-8
1527842106441579,-23,29,8,8,5,2,-1,3
1527842106441579,85,0,-16,-13,-13,-12,-2,48
1527842106443575,58,20,-9,-7,-3,-1,-9,-9
1527842106443575,-43,-24,-5,0,0,3,7,2
1527842106463521,44,2,-3,-8,-7,-8,-8,-3
1527842106463521,-43,-27,3,5,7,3,-2,-24
1527842106465516,34,71,15,12,0,3,3,7
1527842106465516,26,40,11,-1,-3,-1,4,41
1527842106477483,-27,-35,-6,-1,4,3,-4,-26
1527842106477483,-42,29,14,16,11,12,14,9
1527842106486460,-3,-37,-13,-24,-17,-18,-16,-41
1527842106486460,-1,12,15,12,9,4,1,12
1527842106501420,-21,10,-6,-6,-5,-6,-7,-55
1527842106501420,53,19,-11,-6,-4,-2,-6,-23
1527842106503414,-90,-42,2,9,14,12,6,-35
1527842106503414,53,11,-15,-14,-12,-10,-2,27
1527842106524358,-25,-1,-7,-6,-5,-6,-2,-9
1527842106524358,-12,16,22,19,14,14,2,-12
1527842106525356,46,-46,-34,-23,-21,-17,-4,57
1527842106525356,34,34,7,-2,2,-3,-6,0
1527842106537323,71,-20,-1,5,2,1,5,26
1527842106537323,-37,-21,-7,-7,-6,-6,-3,-7
1527842106546300,-50,36,30,22,11,10,15,68
1527842106546300,58,-20,-17,-8,-3,-2,-5,6
1527842106561260,27,22,4,-1,-7,-3,2,24
1527842106561260,-15,-26,-3,0,-1,1,2,-22
1527842106567244,14,29,21,8,7,6,8,36
1527842106567244,38,33,4,3,-5,-4,0,-5
1527842106584198,-87,-104,-26,-13,-3,0,2,22
1527842106584198,-22,11,-9,-7,-5,-6,-1,-1
1527842106585196,1,17,4,-1,2,1,-3,-40
1527842106585196,-36,-15,8,12,10,7,1,-7
1527842106606140,77,3,-13,-13,-11,-8,-9,3
1527842106606140,-60,-29,-8,-8,-7,-8,-8,-9
1527842106608134,5,-3,-1,4,2,5,2,-7
1527842106608134,-59,-5,9,11,6,8,5,-2
1527842106621100,-2,3,-6,-8,-7,-6,-1,12
1527842106621100,-31,0,-10,-12,-7,-8,-11,-21
1527842106628081,0,13,6,3,2,6,-1,-54
1527842106628081,6,10,1,-2,-2,0,-1,3
1527842106644038,2,-5,0,3,4,3,2,-10
1527842106644038,-1,15,0,-5,-4,-3,-1,-1
1527842106646033,-71,-60,-5,-1,1,0,-1,-43
1527842106646033,-16,16,-12,-8,-4,-4,-4,25
1527842106666977,14,34,17,4,1,1,-2,-19
1527842106666977,32,-23,-3,0,0,0,3,20
1527842106667974,-22,22,5,3,1,1,3,-6
1527842106667974,-54,-53,-10,-4,-2,-3,-8,-10
1527842106680940,3,8,-6,-4,-1,-2,2,-8
1527842106680940,-46,-2,17,18,10,12,15,19
1527842106687921,73,-43,-19,-10,-4,-6,-10,3
1527842106687921,-59,9,-2,-10,-8,-9,-4,-20
1527842106703878,41,-6,4,7,5,4,5,17
1527842106703878,23,25,7,2,0,2,4,24
1527842106705873,-54,-1,-5,-1,2,1,0,-14
1527842106705873,35,-8,-3,-3,1,-1,0,4
1527842106726817,-31,13,14,9,3,2,-3,-4
1527842106726817,19,6,-4,-8,-8,-10,-9,-7
1527842106727815,26,8,8,11,8,14,11,5
1527842106727815,-1,4,-7,-16,-8,-8,1,6
1527842106740779,-38,-18,0,8,2,0,-8,-19
1527842106740779,-2,18,0,-2,-3,-7,0,-3
1527842106747761,-36,-33,-18,-5,-4,0,-4,1
1527842106747761,4,-45,-11,-7,1,4,-1,-11
1527842106763718,23,71,8,6,1,-2,-2,-14
1527842106763718,90,-10,-8,-14,-6,-6,-7,-13
1527842106765714,-4,27,10,12,-3,-9,-5,10
1527842106765714,18,23,24,22,12,13,11,-48
1527842106786657,-73,-1,-12,-15,-6,-5,-3,6
1527842106786657,-60,-40,-11,-9,-2,-1,-6,-18
1527842106787655,33,11,-7,-12,-4,-4,-4,7
1527842106787655,-6,0,2,7,5,2,2,5
1527842106800620,45,-14,3,5,2,2,1,-26
1527842106800620,-41,-18,-6,-7,-3,-3,-15,-21
1527842106807602,105,43,-2,-3,-5,-4,9,13
1527842106807602,-82,-2,-4,-4,-2,-5,-7,19
1527842106823562,-18,-12,-7,-7,-2,1,2,-1
1527842106823562,-33,-13,14,12,6,6,0,-4
1527842106825553,-88,-16,-2,-5,-1,1,4,12
1527842106825553,-7,-28,-15,-9,-8,-7,-9,-23
1527842106846497,16,6,-2,-3,-4,-3,3,16
1527842106846497,-18,-10,-8,4,5,5,5,0
1527842106848492,62,98,28,6,-2,-5,-5,13
1527842106848492,-13,-18,-14,-3,-6,-4,-14,-20
1527842106860460,-39,-4,-8,-5,1,0,6,8
1527842106860460,17,13,4,-4,-1,0,6,13
1527842106867441,-41,-12,-17,10,-1,-3,2,34
1527842106867441,8,-13,18,-10,-1,3,4,9
1527842106884396,105,27,3,10,-1,-4,-10,-6
1527842106884396,-44,23,13,7,5,5,1,4
1527842106885393,36,-72,-22,-14,-5,1,0,1
1527842106885393,60,16,-15,-12,-12,-12,-10,33
1527842106906337,-45,0,9,4,1,1,2,-32
1527842106906337,21,-48,-13,-5,0,5,9,12
1527842106908332,37,33,15,3,0,0,0,-16
1527842106908332,73,29,-2,2,-4,-6,0,28
1527842106920300,82,11,6,-5,-7,-2,3,-16
1527842106920300,-32,2,-14,-8,-3,-6,-7,-9
1527842106929276,-36,11,22,9,5,2,-5,-27
1527842106929276,16,-8,3,10,7,8,10,6
1527842106944236,-17,36,10,8,5,5,2,41
1527842106944236,49,-26,-25,-18,-12,-11,-1,15
1527842106945233,-94,-3,6,6,2,0,-1,-13
1527842106945233,-29,8,12,6,4,3,3,-1
1527842106966177,19,-13,-4,1,-1,-1,-1,11
1527842106966177,-24,39,2,-2,2,4,6,21
1527842106968172,6,-11,-7,1,-5,-8,-11,-15
1527842106968172,-100,32,40,34,26,22,5,-62
1527842106980140,-45,-105,-96,-65,-33,-30,-21,7
1527842106980140,-7,63,19,2,-2,-6,-1,-7
1527842106989116,-21,4,-5,-8,-2,0,-2,-39
1527842106989116,-28,2,11,11,7,6,-1,-17
1527842107004076,-61,-2,15,14,6,6,0,-12
1527842107004076,11,-61,-34,-20,-9,-6,-6,11
1527842107006071,-41,-2,1,-8,-3,-4,4,5
1527842107006071,-24,-30,-9,1,-8,-7,-2,29
1527842107027015,-82,56,35,16,11,8,0,-15
1527842107027015,72,-58,-18,0,-7,-3,2,35
1527842107028012,-4,59,-10,-17,-9,-10,-13,6
1527842107028012,50,29,8,-3,-5,-4,1,16
1527842107039981,31,2,5,3,-1,-2,-1,-11
1527842107039981,-128,-2,27,26,17,15,6,-35
1527842107048956,-47,-29,-3,2,4,7,7,-7
1527842107048956,-80,-59,-60,-52,-27,-23,-10,2
1527842107063916,-105,5,14,14,8,11,5,-25
1527842107063916,104,-1,11,3,-1,-5,-2,2
1527842107065911,6,-7,4,5,7,5,1,-5
1527842107065911,26,9,-2,0,1,-2,-1,-22
1527842107086854,117,-12,-6,-6,-5,-2,11,47
1527842107086854,-73,0,-6,-10,-5,-4,-9,-11
1527842107087852,33,-30,-8,-3,-11,-15,-10,21
1527842107087852,39,-2,-7,-2,4,6,2,1
1527842107099820,-1,-30,0,-1,-2,-4,-6,-15
1527842107099820,-38,1,0,2,1,4,2,10
1527842107108796,-90,12,28,10,9,7,-3,-37
1527842107108796,-58,-97,-43,-19,-16,-12,-2,22
1527842107123756,-38,35,-4,-18,-5,-8,-12,-13
1527842107123756,-35,25,6,8,3,1,0,1
1527842107125751,-59,-5,-6,-4,-1,1,0,-12
1527842107125751,41,61,34,25,13,12,10,-13
1527842107153676,-23,-20,-6,-2,-2,-1,2,11
1527842107153676,29,17,-7,-5,-3,-6,-7,-26
1527842107155671,61,58,10,9,1,1,7,37
1527842107155671,-75,-6,-12,-18,-2,-1,-7,-29
1527842107159660,15,0,8,14,2,1,0,-4
1527842107159660,-19,48,6,1,-3,-2,2,15
1527842107169634,83,-17,-19,-18,-6,-4,4,41
1527842107169634,77,50,15,8,-2,-6,1,28
1527842107183596,40,0,-1,-3,0,0,-3,19
1527842107183596,4,73,28,19,5,9,11,-13
1527842107185591,-106,0,-22,-13,2,4,-5,-26
1527842107185591,45,38,13,19,-2,-7,7,32
1527842107206535,-11,-33,-26,-20,-4,7,0,10
1527842107206535,54,31,16,9,-8,-10,-5,-13
1527842107208530,-12,-10,7,-1,3,1,0,-5
1527842107208530,24,-35,-8,2,3,2,-5,-32
1527842107220497,50,52,3,5,-2,-7,1,-4
1527842107220497,-21,42,5,-5,0,0,1,-5
1527842107229473,-1,-86,-41,-13,-6,-1,1,4
1527842107229473,-63,28,11,6,6,3,-1,-12
1527842107244433,-61,4,2,1,-1,-5,-9,-35
1527842107244433,-44,-15,-12,-13,-5,-5,-7,16
1527842107245431,105,5,11,9,0,-2,4,-8
1527842107245431,58,36,17,10,6,7,-4,19
1527842107266375,-28,-24,-20,-15,-9,-5,-1,22
1527842107266375,107,-25,-4,3,0,2,8,11
1527842107272359,-83,14,21,13,8,6,-4,-29
1527842107272359,5,-49,-20,-14,-10,-7,-8,1
1527842107280337,10,6,2,2,-1,0,5,28
1527842107280337,66,7,-3,2,0,-3,-12,-50
1527842107289314,60,36,6,-2,-5,-2,8,46
1527842107289314,-7,18,-6,-10,-4,-4,-4,-4
1527842107304273,-21,34,26,16,8,7,5,2
1527842107304273,51,13,-3,3,-2,2,6,3
1527842107305271,42,24,-13,-13,-10,-11,-13,2
1527842107305271,-35,2,2,-1,0,0,-3,-25
1527842107326215,-33,37,20,8,5,2,5,3
1527842107326215,53,-38,-13,-3,0,1,6,61
1527842107328210,-38,-12,6,4,1,0,-3,-25
1527842107328210,-17,-19,-3,0,1,0,1,21
1527842107340177,23,76,20,12,6,6,7,5
1527842107340177,-15,-83,-18,-14,-2,-3,-3,-20
1527842107355137,-46,-7,-9,-2,1,2,0,-9
1527842107355137,-35,7,14,6,0,-2,-9,-31
1527842107364113,-9,-16,-1,6,3,6,8,25
1527842107364113,15,11,6,-2,-2,-4,-4,1
1527842107366108,-44,-16,-6,-6,-3,-7,-4,-3
1527842107366108,-4,-8,1,5,7,7,5,-25
1527842107386055,-61,-5,6,4,2,1,-1,17
1527842107386055,21,-76,-30,-11,-8,-4,1,16
1527842107388050,4,33,-11,-29,-14,-15,-21,-34
1527842107388050,30,11,11,25,4,4,13,15
1527842107400017,25,-123,-39,-25,-11,-12,-12,-20
1527842107400017,-76,38,19,10,8,4,2,8
1527842107408993,-59,4,14,16,8,9,5,-16
1527842107408993,-61,-42,-28,-25,-11,-8,-1,14
1527842107423953,25,18,7,4,1,-1,-6,-32
1527842107423953,-57,-4,-1,-1,-1,-4,-5,-6
1527842107425948,-12,-18,0,5,3,3,1,4
1527842107425948,12,19,-3,-11,-6,-3,-1,14
1527842107446892,33,-4,-19,-5,-3,0,-2,-3
1527842107446892,-32,37,40,22,14,11,2,-22
1527842107447890,-47,-21,-1,8,8,9,7,-34
1527842107447890,-93,-83,-53,-35,-21,-20,-16,-5
1527842107459857,-21,38,3,-3,1,5,5,14
1527842107459857,-45,9,-3,-2,0,-2,-4,-15
1527842107468833,24,6,3,9,1,1,-8,-31
1527842107468833,5,-52,-15,-15,-1,-3,-8,-15
1527842107483793,-77,-25,4,19,3,0,2,35
1527842107483793,-1,-43,-29,-25,-12,-12,-7,-46
1527842107485788,6,2,1,-1,-4,-7,-6,-5
1527842107485788,17,29,9,3,3,1,5,14
1527842107506732,22,3,-2,-4,-6,-4,-4,1
1527842107506732,-8,10,3,5,3,7,2,16
1527842107507730,8,25,8,5,-1,-4,4,35
1527842107507730,-8,-35,-16,-3,1,5,-8,-30
1527842107519697,39,-20,-13,-12,-7,-6,-4,-2
1527842107519697,-51,6,0,0,-3,-4,-2,9
1527842107529671,-22,-51,-9,-6,2,5,5,-4
1527842107529671,4,41,31,16,2,3,9,26
1527842107543633,-46,27,-7,-11,-11,-16,-15,-24
1527842107543633,-65,-6,-22,-9,-1,5,-9,3
1527842107550615,-7,17,23,9,0,0,4,10
1527842107550615,0,12,16,14,8,9,14,13
1527842107566572,-78,-31,-23,-22,-10,-10,-13,-7
1527842107566572,35,21,-1,-1,-4,-7,-1,19
1527842107568567,-37,3,-4,-4,-3,1,-5,-5
1527842107568567,-70,24,20,12,8,6,6,-1
1527842107589511,68,-23,-5,3,3,2,6,-6
1527842107589511,-46,10,-11,-11,-7,-15,-12,16
1527842107590508,23,-71,-12,0,1,9,21,77
1527842107590508,19,18,-2,-11,-6,-5,-4,-16
1527842107603473,15,-13,5,2,2,2,1,11
1527842107603473,53,37,27,24,6,1,7,-5
1527842107610455,-47,30,5,4,2,1,0,0
1527842107610455,19,-2,5,7,1,5,-4,-18
1527842107626412,69,-78,-33,-21,-8,-3,0,34
1527842107626412,-98,-3,6,-3,-2,-3,-1,-23
1527842107628407,-19,37,7,7,4,-1,6,-4
1527842107628407,4,93,3,-1,-8,-10,-12,-30
1527842107649351,-31,26,4,3,3,-1,-4,-34
1527842107649351,37,-28,-16,-8,-5,-5,-7,-23
1527842107650348,27,-7,3,-3,-2,0,-4,24
1527842107650348,17,17,12,8,6,10,14,25
1527842107663313,23,-30,0,0,-1,-6,-1,-1
1527842107663313,4,41,4,1,1,1,0,13
1527842107670295,9,-27,-5,-2,-3,-9,-7,-47
1527842107670295,-14,-26,-25,-21,-14,-7,-7,-1
1527842107686252,-56,37,20,13,9,15,10,-2
1527842107686252,-105,-70,-18,-9,0,-1,-10,-61
1527842107688247,115,58,6,4,-3,-3,-5,-26
1527842107688247,21,-40,-19,-15,-10,-16,-16,-2
1527842107709191,-42,12,4,2,1,-3,11,16
1527842107709191,26,-1,19,14,6,8,-3,1
1527842107710188,93,20,-24,-17,-12,-10,-2,16
1527842107710188,-58,23,15,10,11,5,6,-31
1527842107723153,28,54,-9,-15,-13,-13,-14,-6
1527842107723153,-76,-66,-10,-1,1,0,3,-20
1527842107730135,-2,8,4,2,0,-2,-4,11
1527842107730135,44,4,4,7,4,6,8,29
1527842107746092,-1,35,25,20,9,8,2,-35
1527842107746092,91,21,-20,-19,-10,-3,13,63
1527842107748087,-62,-80,-5,9,1,1,-3,-10
1527842107748087,-41,-3,4,-8,4,1,2,35
1527842107769031,-25,5,4,9,-2,-3,3,26
1527842107769031,16,24,16,9,3,3,-1,-31
1527842107771026,56,-102,-32,-11,-3,2,10,57
1527842107771026,36,48,-11,-15,-12,-15,-18,-35
1527842107782994,-53,-17,9,9,8,6,1,-25
1527842107782994,-7,24,-8,-16,-13,-9,-3,59
1527842107789975,-112,17,16,9,3,0,-3,-11
1527842107789975,56,-27,-4,1,0,2,-2,-9
1527842107806930,-18,-5,-12,-9,-3,-2,-4,21
1527842107806930,-62,-34,2,8,4,4,8,50
1527842107807927,-58,-27,-7,-7,0,1,-7,-32
1527842107807927,65,44,19,19,6,6,15,84
1527842107828871,32,26,-8,-14,-9,-8,-13,-10
1527842107828871,-54,-27,-10,-9,3,1,7,-11
1527842107830866,88,62,21,11,-2,-5,-10,-3
1527842107830866,59,-44,-11,2,6,6,9,48
1527842107842833,24,-30,-5,0,0,0,-2,1
1527842107842833,-8,-9,-7,-12,-10,-10,-20,-42
1527842107851810,-44,6,-4,-12,1,1,6,-9
1527842107851810,-51,64,17,8,-2,-2,-4,-44
1527842107866770,-23,-21,-7,1,6,6,1,-30
1527842107866770,0,25,12,9,2,2,6,9
1527842107867767,-8,7,-11,-12,-7,-5,-9,-6
1527842107867767,-78,-22,-8,-8,-6,-9,-8,8
1527842107888711,91,-31,5,1,-2,-2,9,31
1527842107888711,-81,28,4,3,6,4,-2,-12
1527842107890706,-23,0,1,1,3,2,5,-6
1527842107890706,38,41,-1,2,-1,2,0,-2
1527842107902674,63,-30,-5,-3,-2,-2,5,31
1527842107902674,42,-12,-18,-12,-9,-7,-4,10
1527842107911650,-17,21,12,7,4,0,5,33
1527842107911650,58,24,14,11,7,5,8,-7
1527842107926610,-104,21,-16,-21,-15,-11,-12,-40
1527842107926610,8,-5,11,12,6,7,3,-7
1527842107928604,55,90,-4,-6,-3,-2,2,16
1527842107928604,-128,-105,-22,-3,3,4,5,27
1527842107948551,11,49,15,5,0,-3,-13,-25
1527842107948551,32,-13,1,-3,3,3,4,27
1527842107950547,44,22,11,14,2,0,8,-17
1527842107950547,-128,-15,-9,-13,-6,-4,-16,-60
1527842107962513,13,-67,-18,-4,1,3,6,41
1527842107962513,-6,28,-2,-5,-3,-4,-6,-33
1527842107971490,-35,-20,1,-4,-2,-1,-10,-13
1527842107971490,-20,-42,8,13,8,8,11,-2
1527842107986449,-66,72,26,6,3,2,-4,-4
1527842107986449,24,-45,-35,-11,-5,0,4,13
1527842107988445,-67,-23,2,6,4,4,-1,-10
1527842107988445,-27,11,7,4,1,2,-3,8
1527842108009388,-128,-83,-20,-8,1,1,-5,-39
1527842108009388,55,-20,-3,-3,-6,-5,3,32
1527842108010386,19,11,-12,-12,-7,-7,-6,-21
1527842108010386,41,24,-1,-5,3,1,1,-10
1527842108022354,40,56,20,18,5,5,10,27
1527842108022354,-51,12,8,8,4,3,-5,-33
1527842108031330,-97,-58,-31,-19,-6,-7,-15,-47
1527842108031330,45,3,6,4,-1,-1,0,30
1527842108046290,-89,68,12,-1,-1,-4,-3,-6
1527842108046290,-4,-55,-5,4,3,6,6,17
1527842108048285,104,50,10,1,-2,0,5,55
1527842108048285,25,-20,-14,-6,-4,-5,-5,8
1527842108069228,63,7,4,-1,-3,-3,-3,-62
1527842108069228,-38,30,5,-2,-2,-4,-3,-4
1527842108070226,-72,-53,-5,-4,0,-1,-1,-37
1527842108070226,71,61,0,-7,-7,-8,-5,1
1527842108082194,-34,-98,2,11,10,10,9,13
1527842108082194,-26,-74,-20,-8,-3,-1,-8,-81
1527842108092167,-12,21,4,-1,-2,-1,4,15
1527842108092167,104,32,1,1,-4,-3,2,24
1527842108106130,-13,-5,-16,-13,-6,-8,-6,-2
1527842108106130,-64,9,23,13,7,4,2,-32
1527842108108125,20,8,4,5,1,6,14,30
1527842108108125,-108,-32,-1,5,3,2,-8,-74
1527842108129069,4,-52,-37,-26,-18,-15,-15,-12
1527842108129069,67,59,14,4,0,-3,3,8
1527842108131063,46,-43,-4,1,0,-2,-7,-27
1527842108131063,-51,-5,7,-1,0,-4,-6,-8
1527842108143031,127,33,14,14,7,11,15,28
1527842108143031,-52,14,4,-2,0,-3,-6,-4
1527842108152008,-55,-10,2,-1,4,3,-3,-26
1527842108152008,-43,-36,-14,-8,-4,-2,2,12
1527842108166967,-48,2,6,8,4,0,1,-21
1527842108166967,40,32,7,4,0,0,5,49
1527842108167965,-23,16,3,1,2,2,-5,-4
1527842108167965,-6,-34,-7,-4,-1,-3,0,13
1527842108188908,-14,4,9,8,6,7,13,31
1527842108188908,66,61,-9,-14,-12,-13,-13,37
1527842108190903,0,-24,-3,-1,-2,-1,1,-3
1527842108190903,-51,8,-3,-3,1,1,-8,-27
1527842108202872,61,-58,-13,-5,-8,-7,0,20
1527842108202872,16,10,11,8,4,4,1,1
1527842108211847,10,29,3,-2,-2,-6,0,18
1527842108211847,34,2,-3,-5,-4,-1,-3,-28
1527842108226807,55,55,14,8,5,5,-2,-12
1527842108226807,37,-17,-11,-3,-4,-2,1,3
1527842108227805,16,-12,-1,-2,-3,-2,-2,-3
1527842108227805,-16,15,16,9,4,2,1,-13
1527842108248749,-4,50,5,-3,-2,-3,-6,-20
1527842108248749,18,-20,-8,0,2,4,2,12
1527842108250743,26,66,-17,-26,-9,-7,-3,27
1527842108250743,77,-71,15,28,1,-1,0,14
1527842108262711,-84,25,16,9,10,7,1,-18
1527842108262711,-15,0,0,-3,3,1,-1,-17
1527842108271687,-9,-46,-17,-7,-8,-3,-7,-8
1527842108271687,-18,25,-14,-17,-4,-3,-6,-4
1527842108286647,31,-23,-3,-4,-2,-2,5,25
1527842108286647,-15,-14,1,6,0,0,-2,-18
1527842108288642,-14,4,0,4,4,7,3,1
1527842108288642,-27,14,-5,-5,-1,-2,0,-4
1527842108308588,-91,-18,-4,-1,-3,-3,-7,1
1527842108308588,35,-27,-9,-7,-2,-3,1,1
1527842108310584,-22,-6,6,10,6,6,8,-4
1527842108310584,-34,9,-7,-11,-7,-6,-5,6
1527842108322551,19,7,2,0,-1,-2,-5,-10
1527842108322551,5,12,4,2,0,1,4,2
1527842108331527,-41,1,10,11,7,2,1,-6
1527842108331527,94,52,-4,1,-3,1,2,1
1527842108346487,-23,-54,-19,-12,-5,-4,3,27
1527842108346487,-64,30,10,7,2,3,3,14
1527842108348482,-21,-18,4,4,1,-1,0,-4
1527842108348482,-11,30,9,1,2,1,6,51
1527842108369426,-15,6,-11,-6,-3,-3,-1,0
1527842108369426,36,24,7,6,-2,-3,-2,-2
1527842108370423,46,-26,-7,0,1,6,2,11
1527842108370423,31,7,0,-4,-2,-1,0,12
1527842108382391,81,24,-1,0,-5,-2,1,-31
1527842108382391,-37,-5,8,3,2,2,-2,7
1527842108391367,55,-42,3,9,-1,0,8,12
1527842108391367,6,-2,-14,-21,-11,-10,-6,-11
1527842108406327,6,46,13,15,3,2,-6,9
1527842108406327,-3,-18,-2,0,3,-2,0,-15
1527842108408322,-10,13,-8,-12,-6,-2,-11,1
1527842108408322,-29,-13,3,8,3,-1,4,-20
1527842108429266,-80,67,24,9,5,5,9,16
1527842108429266,-13,-61,-47,-18,-10,-5,2,42
1527842108430264,-14,52,4,-1,0,-4,-15,-12
1527842108430264,32,-29,-7,-5,-3,1,8,43
1527842108442231,-22,11,8,6,4,4,3,-7
1527842108442231,-29,-38,-10,-9,-8,-3,-13,-59
1527842108451207,-9,4,3,2,-2,-2,5,7
1527842108451207,-20,-41,-14,-7,0,0,-5,-15
1527842108466167,52,-13,2,2,0,-1,0,18
1527842108466167,37,20,9,6,3,5,10,29
1527842108473149,28,-10,-1,2,-1,-2,1,15
1527842108473149,-107,27,21,9,4,1,-3,-39
1527842108489106,-76,-88,-37,-22,-8,-3,-5,2
1527842108489106,-59,3,-2,-10,-1,-1,-5,-30
1527842108491102,4,26,7,16,1,-5,-5,-17
1527842108491102,-45,45,16,5,7,7,5,-7
1527842108511047,41,35,5,-1,-6,-6,2,18
1527842108511047,32,15,-6,-1,-3,-2,1,23
1527842108513042,-77,-35,-18,-16,-6,-6,-11,-32
1527842108513042,-15,-14,7,12,7,8,7,-4
1527842108526007,4,27,2,-3,-4,-3,0,9
1527842108526007,-48,17,6,2,2,1,-6,-27
1527842108532989,19,70,20,9,2,4,10,37
1527842108532989,32,-93,-25,-3,-1,3,10,-6
1527842108548946,-72,-16,-16,-17,-7,-10,-9,-32
1527842108548946,30,13,11,8,4,5,0,16
1527842108550941,-60,-29,0,-1,4,4,1,-17
1527842108550941,16,14,-1,-2,1,-1,3,-3
1527842108571885,-65,-23,-6,-4,-1,-2,-9,-24
1527842108571885,26,-29,-1,3,2,2,5,-2
1527842108572882,47,32,-1,-5,-4,-5,-9,-8
1527842108572882,-21,-19,-3,-1,-3,-3,-15,-54
1527842108585847,8,-6,-9,-4,-2,0,-1,-27
1527842108585847,-23,25,2,0,-1,-1,2,11
1527842108592828,70,15,4,4,2,3,4,12
1527842108592828,-22,-29,-13,-11,-9,-8,-6,-3
1527842108608786,127,42,-4,-3,-2,-2,-3,25
1527842108608786,-26,-46,-7,-12,-3,-4,-1,8
1527842108610781,112,4,15,23,1,2,7,7
1527842108610781,24,22,1,-7,-3,-4,-4,-7
1527842108631725,-9,-21,7,5,5,2,0,-9
1527842108631725,-41,21,-1,-4,-1,-2,-1,-6
1527842108632723,-36,-8,-7,-9,-5,-6,0,-7
1527842108632723,44,19,0,1,3,4,-1,22
1527842108645687,-32,-3,11,10,7,6,1,-44
1527842108645687,85,-49,-15,-13,-13,-9,2,29
1527842108652669,14,18,-11,-10,-4,-6,-8,-10
1527842108652669,29,18,4,1,-4,-8,-9,4
1527842108668626,-83,-1,14,13,11,10,4,-19
1527842108668626,36,-60,-26,-7,-12,-8,-5,19
1527842108670621,-91,22,1,-8,2,2,-1,-16
1527842108670621,82,15,-3,3,-4,-5,6,29
1527842108691565,-4,25,5,2,4,3,2,24
1527842108691565,73,22,-3,-5,-10,-11,-14,-15
1527842108693561,-3,-13,-9,-8,-3,-2,0,30
1527842108693561,-47,38,17,7,5,9,6,10
1527842108705528,-33,-78,-24,-6,-6,-6,-6,0
1527842108705528,73,58,18,10,5,4,-2,-9
1527842108712509,-41,-14,-5,-4,-3,0,-3,-11
1527842108712509,17,66,16,9,-2,0,0,23
1527842108729463,-26,9,4,4,6,6,3,-14
1527842108729463,3,-70,-39,-19,-11,-9,-5,3
1527842108730461,41,36,1,-6,-4,-4,-1,21
1527842108730461,45,-3,2,1,0,0,-1,28
1527842108751405,-31,6,6,7,4,3,5,-31
1527842108751405,-21,-40,1,7,2,5,7,-12
1527842108753400,34,5,1,-3,-1,-3,-6,3
1527842108753400,-95,-124,-40,-21,-7,-6,-10,-22
1527842108765367,59,61,18,3,-3,-2,-1,34
1527842108765367,-13,-16,4,7,9,4,-1,-42
1527842108772349,-70,50,23,10,5,6,0,-39
1527842108772349,-13,-76,-40,-21,-8,-5,-4,-10
1527842108789303,-61,-57,-10,-3,-2,-2,-11,-37
1527842108789303,-10,28,0,-6,-7,-9,-11,-16
1527842108790301,-76,-36,-7,-3,0,0,1,-11
1527842108790301,-26,36,18,9,2,-1,-5,-25
1527842108811245,22,-12,-8,2,-2,4,9,10
1527842108811245,45,37,9,0,0,0,4,17
1527842108813240,17,8,11,5,3,3,-1,7
1527842108813240,-1,-51,-25,-10,-7,-5,-2,-4
1527842108825207,116,74,17,8,1,-1,6,52
1527842108825207,10,-17,-8,-2,-1,0,3,15
1527842108834184,11,49,6,0,-2,-3,0,24
1527842108834184,-48,-10,12,6,-3,-3,3,5
1527842108849144,-25,58,4,-2,2,3,5,43
1527842108849144,-37,-2,16,11,9,9,2,12
1527842108851138,10,-36,-20,-12,-8,-7,-3,-2
1527842108851138,78,20,4,3,1,2,2,-6
1527842108871085,14,-28,5,5,3,2,1,-10
1527842108871085,48,112,16,-2,-9,-10,-2,24
1527842108873080,-26,-76,-8,2,5,5,1,-1
1527842108873080,-6,43,9,3,2,-2,-8,-27
1527842108885048,16,-23,-10,-4,-2,-3,0,-5
1527842108885048,-48,36,2,-2,-2,-2,-9,-8
1527842108894024,23,-16,-13,-5,-4,-5,1,-13
1527842108894024,36,-3,11,5,1,2,8,53
1527842108908984,20,-6,0,4,3,4,1,-8
1527842108908984,26,3,-3,-6,-6,-4,0,-15
1527842108910978,-2,19,7,2,-1,-1,0,15
1527842108910978,-41,-24,-1,0,2,3,-6,-33
1527842108931922,47,2,-5,-5,-6,-6,2,69
1527842108931922,-34,33,21,18,12,10,4,-4
1527842108932920,3,1,-13,-14,-11,-11,-6,-3
1527842108932920,45,9,-2,-1,-1,3,-1,-14
1527842108944887,-14,1,2,0,-5,-4,-6,-19
1527842108944887,-77,22,7,10,8,6,10,-26
1527842108953863,-20,-92,-26,-15,-8,-6,-10,-25
1527842108953863,-22,28,-4,-2,3,2,-3,5
1527842108968823,-7,-2,0,-6,-8,-7,-4,-22
1527842108968823,21,18,5,8,4,5,9,39
1527842108970819,-18,-5,2,2,0,-1,1,2
1527842108970819,2,-10,-8,-5,-5,-5,-5,-38
1527842108991762,-51,-9,4,-2,-2,0,-2,-13
1527842108991762,-61,0,-2,-6,-5,-4,-9,-39
1527842108992760,8,2,12,7,4,5,9,-19
1527842108992760,-28,61,5,3,0,1,6,-2
1527842109004728,-53,-68,-33,-11,-1,1,2,3
1527842109004728,-34,-4,-5,-4,-1,-3,-10,-28
1527842109013704,32,17,-1,2,-2,-3,-1,21
1527842109013704,-40,13,13,5,6,4,2,-3
1527842109028664,57,-3,-3,-11,-2,-3,0,-10
1527842109028664,23,-3,12,16,4,2,5,5
1527842109030659,-7,-9,-8,-4,-1,1,-2,11
1527842109030659,-3,-6,6,1,1,-2,1,4
1527842109051602,6,10,-6,-2,-2,-1,-2,18
1527842109051602,21,5,-1,-1,-1,-1,-1,24
1527842109053597,2,-16,-1,1,-1,1,3,3
1527842109053597,-43,13,-2,-4,-3,-3,-8,-1
1527842109065565,98,17,6,2,-3,-2,2,-4
1527842109065565,-73,-3,8,3,6,4,4,11
1527842109074541,-40,-54,-15,-6,-3,0,-1,-4
1527842109074541,-6,-6,-3,-2,-2,-3,-1,7
1527842109088503,-38,21,16,9,7,7,-3,-34
1527842109088503,-45,-7,-17,-9,-11,-10,-7,-32
1527842109095485,-7,1,-15,-24,-7,-4,-14,-14
1527842109095485,-16,-22,3,18,-3,-3,-4,11
1527842109111442,-34,24,4,-4,0,-4,-6,-17
1527842109111442,26,-11,3,1,1,2,3,-5
1527842109113438,-30,0,-4,-3,0,-3,0,1
1527842109113438,26,10,-10,-16,-13,-7,-3,8
1527842109125405,23,6,5,12,6,7,-3,-7
1527842109125405,53,-38,-5,7,5,-8,0,6
1527842109134381,80,64,13,8,2,8,9,12
1527842109134381,34,-16,-4,-8,-5,-6,-10,-3
1527842109149341,-91,-51,-19,-20,-11,-12,-7,-22
1527842109149341,90,-13,-13,-8,1,9,3,28
1527842109150339,-80,-48,3,12,5,-1,1,16
1527842109150339,-38,37,17,12,7,7,4,-11
1527842109171282,34,-56,-27,-10,-8,-12,-9,-11
1527842109171282,66,56,23,10,2,7,-3,9
1527842109173277,-4,-25,-26,-18,-8,-6,-6,-8
1527842109173277,48,16,15,8,4,4,10,44
1527842109185245,20,-65,-10,-2,-3,-8,-4,36
1527842109185245,-71,27,14,-4,5,6,8,14
1527842109194221,37,10,7,26,2,1,1,-12
1527842109194221,12,-11,-14,-13,-1,-5,-7,-7
1527842109209181,19,55,20,6,2,10,11,17
1527842109209181,53,38,11,11,-1,-4,5,17
1527842109210179,-38,7,-10,-18,-7,-12,-16,10
1527842109210179,-35,21,-8,-6,1,9,3,-4
1527842109231122,14,17,4,0,-2,-6,-5,-21
1527842109231122,-73,-21,-3,-2,0,2,3,1
1527842109233117,61,49,15,9,2,6,0,-7
1527842109233117,-25,-75,-10,3,3,-3,-6,-13
1527842109245085,94,37,-3,-5,-3,-5,-6,4
1527842109245085,-64,19,9,3,2,-3,-4,-26
1527842109254062,77,0,4,3,1,1,5,30
1527842109254062,14,-14,-3,-18,-9,-7,-4,-13
1527842109269021,66,49,23,29,10,13,16,18
1527842109269021,-27,-59,-40,-30,-19,-22,-19,12
1527842109271016,47,1,7,0,-2,-6,0,-16
1527842109271016,-22,16,6,9,5,4,7,26
1527842109291960,-59,18,1,-3,-3,2,2,-3
1527842109291960,15,-17,-5,1,2,-1,-8,-11
1527842109292957,49,14,-2,2,4,10,11,9
1527842109292957,9,-28,-3,-4,-4,-1,1,-5
1527842109304925,-128,-12,17,16,12,5,3,-19
1527842109304925,-2,-17,-15,-12,-11,-3,-12,-23
1527842109313901,-128,-75,-20,-15,-2,2,-4,-26
1527842109313901,-7,40,3,3,-2,-5,-8,-25
1527842109328861,-51,-15,5,5,7,2,-5,-10
1527842109328861,31,-23,-11,-7,-6,-1,9,-5
1527842109330856,79,21,18,6,2,-4,6,11
1527842109330856,-28,6,-8,-4,-1,-3,-2,-10
1527842109351800,6,-31,-7,-4,-3,2,4,10
1527842109351800,-25,-36,-14,-7,-3,-3,-2,-16
1527842109352797,-25,38,11,2,-1,-4,-10,-28
1527842109352797,75,49,27,28,10,10,17,54
1527842109364765,85,-20,-34,-32,-21,-18,-15,37
1527842109364765,-11,13,13,7,6,3,1,-7
1527842109373741,29,27,13,9,2,3,2,5
1527842109373741,-25,31,15,11,10,12,3,-23
1527842109388701,65,-8,-26,-19,-18,-17,-19,-1
1527842109388701,-14,-68,-13,-3,0,2,8,22
1527842109395682,-81,1,2,1,3,2,3,-1
1527842109395682,-2,13,-8,-7,-7,-7,-5,-2
1527842109411640,-122,38,24,13,6,9,11,-9
1527842109411640,23,-20,-22,-7,-1,-1,-6,-3
1527842109413635,18,4,10,11,8,13,7,-3
1527842109413635,-15,-27,-2,-3,-5,-6,5,4
1527842109425602,-9,12,10,7,4,3,5,19
1527842109425602,0,11,-6,-4,-6,-7,-10,-8
1527842109434579,23,31,19,10,6,5,7,56
1527842109434579,-2,38,-4,-3,-4,-6,-6,-6
1527842109448541,-86,-101,-26,-10,-2,-3,-9,-20
1527842109448541,25,52,0,-4,-3,-1,-1,-1
1527842109455522,-84,-13,-9,-9,-2,-3,0,16
1527842109455522,9,-37,-3,1,-1,0,-4,-15
1527842109471480,-54,28,8,-6,-8,-5,0,-7
1527842109471480,-4,-18,-13,2,1,4,2,26
1527842109473475,-22,7,0,-1,-3,-6,-8,-26
1527842109473475,44,2,-3,-8,-2,1,1,20
1527842109494418,-31,21,2,3,7,3,0,-14
1527842109494418,40,22,17,13,4,5,1,-46
1527842109496413,58,-31,-31,-22,-17,-15,-4,8
1527842109496413,-49,32,13,8,8,4,-3,-12
1527842109507384,127,26,3,3,-4,-5,-4,1
1527842109507384,31,19,6,-4,-4,-2,2,2
1527842109516360,-101,13,15,13,10,8,-4,-28
1527842109516360,-73,-70,-17,-6,1,1,2,-34
1527842109531320,-46,-55,-32,-27,-12,-11,-12,-12
1527842109531320,-49,26,24,14,5,5,6,14
1527842109533315,-31,-10,-4,0,2,1,5,13
1527842109533315,84,20,7,13,2,4,13,86
1527842109554259,106,73,14,0,0,0,9,-5
1527842109554259,-72,12,0,1,5,4,1,6
1527842109555256,-18,-22,-1,2,0,-2,-8,-45
1527842109555256,32,-10,-21,-20,-9,-7,-5,10
1527842109568221,-20,-7,6,14,4,2,3,-6
1527842109568221,55,-15,-1,-8,-5,-6,0,33
1527842109575203,9,36,9,7,1,2,6,21
1527842109575203,-80,-56,-5,-4,-1,-1,-6,-21
1527842109591160,27,-18,-14,-4,-3,-1,5,22
1527842109591160,-17,10,-2,-5,-4,-2,-2,6
1527842109593155,-41,-15,-3,-1,-1,-2,-9,-19
1527842109593155,58,53,23,12,5,4,-1,-20
1527842109614099,80,-71,-31,-22,-14,-13,2,71
1527842109614099,-60,18,14,10,6,5,1,-2
1527842109616093,73,25,-3,-6,-3,-2,1,-3
1527842109616093,-5,7,7,2,-3,-3,-5,-25
1527842109628061,14,32,28,20,13,12,11,21
1527842109628061,-37,-14,-14,-8,-5,-8,-16,-22
1527842109635043,4,-10,-1,0,0,-1,6,-1
1527842109635043,54,-5,-14,-9,-7,-3,0,3
1527842109651997,-77,29,3,-5,-3,0,-4,-33
1527842109651997,-56,-11,8,3,2,1,-1,-3
1527842109652995,-39,-7,-1,0,0,-2,-4,15
1527842109652995,73,56,8,7,5,4,7,17
1527842109673939,-50,2,1,0,1,0,-8,-14
1527842109673939,106,6,-10,-2,-5,-1,13,30
1527842109675934,-50,4,3,-2,-1,-2,-1,-16
1527842109675934,-26,33,0,-5,-6,-6,-7,-5
1527842109687901,39,-11,-12,-6,-1,-3,-4,-1
1527842109687901,-30,26,11,7,1,0,-6,-18
1527842109694882,15,-2,-1,-1,-1,-2,1,-4
1527842109694882,-128,-68,16,20,19,18,4,-20
1527842109711838,-75,-22,-56,-48,-32,-31,-30,-60
1527842109711838,-85,3,8,5,6,1,2,-23
1527842109712835,29,-17,-8,-2,-2,-3,1,15
1527842109712835,-6,15,-1,-2,0,1,-2,-8
1527842109733779,-94,-4,33,30,18,16,5,-6
1527842109733779,86,-57,-19,-10,-7,-5,-2,22
1527842109735774,94,-6,-33,-27,-19,-14,-6,67
1527842109735774,-44,19,0,-5,-3,-7,-3,-31
1527842109747741,20,27,18,11,6,3,-1,-28
1527842109747741,9,-5,0,2,3,1,2,-1
1527842109756718,22,15,17,14,8,6,6,1
1527842109756718,26,-16,-13,-15,-13,-9,-4,2
1527842109771677,32,-8,-3,7,8,10,14,29
1527842109771677,-59,18,18,7,4,-3,-7,-9
1527842109772675,-27,-24,-5,1,1,7,-2,-67
1527842109772675,62,29,9,2,-4,-6,0,63
1527842109793619,-74,2,-20,-16,-6,-12,-1,9
1527842109793619,-8,9,7,5,3,9,8,9
1527842109795614,-47,2,0,-2,-1,1,-4,-8
1527842109795614,60,-17,-6,-1,-1,-2,3,5
1527842109807581,-78,31,30,21,14,14,10,-53
1527842109807581,17,-103,-57,-39,-21,-13,4,44
1527842109816558,-50,24,9,2,3,-3,-10,-40
1527842109816558,-65,-14,-1,-3,-1,-3,-8,-60
1527842109831517,-73,-97,-13,-1,4,1,6,22
1527842109831517,39,40,10,9,5,4,0,-9
1527842109833512,-44,-7,3,3,1,4,-1,-39
1527842109833512,6,-41,-7,2,3,1,0,26
1527842109854456,-33,55,25,3,-4,-10,-4,22
1527842109854456,-61,-8,-38,-24,-12,-1,4,57
1527842109855454,72,3,-7,-6,-4,-4,-3,-5
1527842109855454,-26,16,13,9,4,0,4,-12
1527842109867421,46,6,-1,3,3,9,0,5
1527842109867421,-6,71,39,27,12,13,9,-40
1527842109876397,-59,-90,-33,-20,-10,-18,-15,20
1527842109876397,-128,13,-11,-13,-5,-1,-10,-10
1527842109891357,127,94,18,11,-1,8,1,15
1527842109891357,54,-15,-7,-7,-4,-10,-3,11
1527842109893353,50,36,13,4,-1,0,1,2
1527842109893353,36,20,3,0,0,-3,-7,-42
1527842109914296,-64,-36,-14,-4,-5,-4,1,32
1527842109914296,23,6,8,9,7,5,-4,-30
1527842109915294,-50,49,11,-1,-3,-4,1,28
1527842109915294,70,-34,-27,-17,-13,-11,5,49
1527842109927261,10,56,16,10,5,6,5,1
1527842109927261,2,21,12,3,-3,-5,-5,-7
1527842109936237,77,-25,-10,-1,-2,0,4,20
1527842109936237,-109,21,-2,-3,0,0,-2,11
1527842109951197,2,-32,-27,-19,-12,-10,-18,-28
1527842109951197,-50,-8,3,2,1,-1,-1,-15
1527842109953192,-14,-2,-1,2,1,2,-2,-5
1527842109953192,-65,-30,-3,-4,1,4,1,-16
1527842109974136,-58,-20,21,16,9,10,15,-10
1527842109974136,54,43,-6,-6,-5,-11,-15,13
1527842109976131,-59,-10,-12,-8,-5,-3,3,29
1527842109976131,116,-50,-15,-1,-4,-2,5,8
1527842109988099,-81,-8,0,-4,0,-4,-14,-36
1527842109988099,-102,37,19,13,5,13,5,-29
1527842109997075,-95,-30,-13,-16,-11,-17,-13,-39
1527842109997075,-86,-42,-9,4,8,16,13,-12
1527842110012035,90,-21,-10,-6,-9,-8,4,24
1527842110012035,24,-12,-5,-3,-2,0,-1,8
1527842110013033,-28,-26,-7,0,0,-3,-8,3
1527842110013033,15,43,10,-3,-4,-11,-7,12
1527842110033976,36,4,9,8,6,12,6,-17
1527842110033976,8,28,16,5,-1,-4,3,-12
1527842110035971,29,-68,-23,-8,2,6,0,-24
1527842110035971,18,25,5,1,-1,-5,-3,31
1527842110047939,7,38,7,-1,-3,1,-3,-6
1527842110047939,12,-103,-7,13,12,13,6,-63
1527842110056915,-19,67,20,2,-4,0,2,3
1527842110056915,-11,4,4,-5,-5,-7,2,30
1527842110071875,5,7,-15,-7,-3,-3,-3,40
1527842110071875,-88,-45,-11,-7,-7,-7,-4,6
1527842110072872,96,4,10,13,5,7,8,2
1527842110072872,-20,16,-9,-6,-4,-1,1,58
1527842110093816,20,12,7,0,0,-6,0,-34
1527842110093816,-82,15,17,13,10,8,7,-25
1527842110095811,-97,-87,-31,-14,-6,-5,-7,32
1527842110095811,62,23,-6,-4,-4,-4,-5,-26
1527842110107779,4,13,4,-1,-1,-4,-5,13
1527842110107779,89,52,6,2,-4,-5,0,30
1527842110116755,-14,31,12,11,9,10,3,0
1527842110116755,-23,6,3,1,1,-3,-6,-67
1527842110131715,-46,-61,-8,-2,0,2,-2,-10
1527842110131715,-9,-31,-4,-1,3,3,2,-7
1527842110132713,57,34,1,-6,-6,-7,1,15
1527842110132713,-11,-10,-9,-13,-12,-12,-18,-10
1527842110153656,58,23,5,5,8,7,8,0
1527842110153656,-47,46,9,6,0,-1,5,25
1527842110155652,74,-61,-10,4,4,5,3,12
1527842110155652,-1,22,-7,-1,5,7,6,-12
1527842110167619,-92,21,7,-6,-7,-11,-13,-56
1527842110167619,12,-32,-11,-9,-3,-3,-4,-9
1527842110176595,-11,40,20,14,7,6,7,-15
1527842110176595,98,-70,-20,1,-3,3,1,5
1527842110191555,33,34,-8,-8,-5,-7,-3,30
1527842110191555,-39,28,5,-4,-5,-7,-11,-26
1527842110193550,-50,-26,3,6,5,6,4,-15
1527842110193550,-17,-1,-3,-3,1,2,7,46
1527842110214493,-68,-55,-8,-3,-4,-4,-5,-49
1527842110214493,-70,71,-1,-14,-11,-14,-13,38
1527842110215491,-25,-63,-26,-5,-1,-1,6,44
1527842110215491,-127,38,15,6,4,7,-2,-33
1527842110227459,-17,-36,-15,-12,-7,-13,-14,-49
1527842110227459,-86,-82,-38,-19,-18,-21,-15,12
1527842110236435,44,12,10,-1,3,7,-2,-16
1527842110236435,-45,-72,-15,-4,-3,-6,-2,-6
1527842110251395,-48,17,18,17,13,12,2,-37
1527842110251395,103,48,-3,-10,-10,-10,-1,54
1527842110253390,-30,20,-9,-7,-5,-4,-6,-12
1527842110253390,-46,-26,0,1,2,3,1,-17
1527842110274334,-2,-33,-4,2,2,3,3,24
1527842110274334,14,65,31,17,8,7,6,13
1527842110275331,-17,1,-2,-8,-4,-5,-9,-23
1527842110275331,5,81,31,10,7,3,1,-3
1527842110287299,2,-75,-19,-1,-1,1,-3,14
1527842110287299,-65,-55,-46,-27,-14,-11,-6,4
1527842110296275,17,94,26,9,0,2,4,52
1527842110296275,52,-60,2,13,6,4,1,4
1527842110311235,-65,35,11,6,1,3,-2,-60
1527842110311235,109,-19,-16,-7,-6,-2,8,52
1527842110313230,-14,62,5,-3,-3,-5,-4,-24
1527842110313230,-46,12,-4,-7,-5,-5,-9,-21
1527842110334174,32,5,-1,4,-1,-2,3,55
1527842110334174,-56,-75,2,5,6,9,3,-36
1527842110335171,54,61,0,-2,-8,-11,0,10
1527842110335171,15,-39,-17,-6,-1,1,2,7
1527842110348136,22,17,5,1,-2,1,10,38
1527842110348136,51,13,0,1,4,2,-11,-41
1527842110357113,-49,-1,20,9,5,4,-4,-37
1527842110357113,-10,13,-1,-8,-12,-8,3,18
1527842110371075,-55,34,-2,-7,-2,-2,-6,-5
1527842110371075,-61,-15,9,0,1,1,0,-5
1527842110378056,85,55,2,4,0,1,1,3
1527842110378056,-33,-34,-6,4,4,5,2,32
1527842110394014,-11,45,21,13,6,6,14,59
1527842110394014,-79,-15,-10,-12,-6,-2,-21,-85
1527842110396008,-128,-47,13,12,10,8,11,21
1527842110396008,28,7,-21,-18,-14,-13,-6,-20
1527842110416952,42,-4,-6,4,4,3,3,22
1527842110416952,25,78,42,20,10,6,9,-57
1527842110417950,-87,-50,-35,-8,2,5,2,-5
1527842110417950,81,89,6,-1,-6,-1,-3,15
1527842110430915,27,-12,-17,-20,-13,-13,-11,-10
1527842110430915,9,9,11,8,3,4,6,27
1527842110437896,-57,-48,-20,-16,-8,-11,-11,-2
1527842110437896,10,5,11,10,4,-1,2,12
1527842110453854,6,30,5,-4,-3,-3,0,-13
1527842110453854,-27,3,-11,0,1,2,4,38
1527842110455849,34,16,22,14,10,13,5,-10
1527842110455849,-74,-73,-19,-18,-8,-11,-7,-22
1527842110476792,-43,-6,3,0,2,0,-2,-4
1527842110476792,16,-32,-4,5,4,-1,5,15
1527842110477790,-8,-1,21,12,1,3,-7,-21
1527842110477790,92,-27,-21,-2,0,6,7,27
1527842110490755,-57,35,-13,-13,-9,-7,-7,-10
1527842110490755,-21,6,2,2,3,4,3,-13
1527842110497736,46,11,-13,-9,-8,-9,-5,4
1527842110497736,-2,22,24,10,3,1,-6,-16
1527842110513694,48,-29,-13,-5,-1,-1,0,7
1527842110513694,30,-36,-9,-1,1,6,7,14
1527842110515689,-7,29,12,1,-2,-5,4,-8
1527842110515689,-23,24,4,-1,-4,-7,-6,3
1527842110536632,116,-8,-12,-7,-6,-7,-4,31
1527842110536632,-14,30,6,1,1,5,-2,-13
1527842110538627,19,-8,-2,-4,0,-1,2,10
1527842110538627,-64,0,6,8,6,5,1,-23
1527842110550595,110,56,24,19,1,-3,17,71
1527842110550595,-32,-7,-20,-15,-3,9,-6,-12
1527842110557576,-7,23,-2,-4,-1,0,0,-19
1527842110557576,-3,-22,-9,-3,-4,-5,-10,-1
1527842110574531,-12,15,12,-2,4,1,1,1
1527842110574531,8,-17,11,16,0,-9,-5,10
1527842110575529,20,-11,-7,-7,1,1,2,3
1527842110575529,-17,50,18,10,5,4,3,-12
1527842110596472,-64,-20,0,4,4,5,1,-8
1527842110596472,80,-72,-30,-17,-11,-11,-4,-26
1527842110598467,-35,2,-10,-10,-9,-9,-4,27
1527842110598467,-33,8,6,-2,-1,-1,2,-17
1527842110610435,-20,-20,-8,-3,-2,0,-4,-11
1527842110610435,-11,13,15,10,10,6,5,-2
1527842110617417,18,21,4,2,-3,-6,-8,-11
1527842110617417,71,-28,-7,-5,-3,0,3,19
1527842110634371,-12,-8,-5,-5,-1,1,-4,-31
1527842110634371,10,28,9,5,3,1,-2,-2
1527842110635369,6,-3,-4,-3,-5,-6,-4,-16
1527842110635369,-29,4,9,9,4,6,4,6
1527842110656312,23,5,-8,-5,-4,-3,-1,1
1527842110656312,-23,13,7,3,-1,-4,-9,-4
1527842110658307,78,8,-3,-3,-6,-8,-5,20
1527842110658307,27,-1,-3,-3,3,6,15,51
1527842110671272,19,-5,-5,0,0,-2,-5,-20
1527842110671272,-31,-7,1,0,3,0,1,-9
1527842110677257,-26,-1,1,3,1,2,3,13
1527842110677257,46,43,9,5,-1,-2,-4,-20
1527842110694211,-34,-28,-4,-2,-3,-1,-4,2
1527842110694211,-79,39,14,3,0,0,-1,-4
1527842110696206,-9,1,-3,2,8,9,6,-22
1527842110696206,-56,-104,-36,-14,-8,-8,-8,7
1527842110716153,-17,10,-15,-10,-4,-4,-4,-8
1527842110716153,23,21,5,0,-3,-3,2,29
1527842110718147,-4,6,2,6,2,2,2,21
1527842110718147,-26,6,9,6,3,1,2,-14
1527842110730115,76,27,3,5,-2,1,11,65
1527842110730115,-40,-56,-13,-12,-4,-5,-3,0
1527842110739092,26,-6,-10,-9,-3,-5,-10,6
1527842110739092,1,33,12,4,1,0,0,-11
1527842110754051,-25,-18,7,8,3,2,0,-7
1527842110754051,16,17,0,-2,0,-1,0,-6
1527842110756046,-35,1,4,1,-4,-1,6,26
1527842110756046,-55,-54,-18,-9,-2,2,-1,-10
1527842110776990,-46,-5,2,3,1,0,-4,-68
1527842110776990,3,2,-2,-4,-2,-5,-6,-29
1527842110777988,26,-36,-4,-4,-3,-4,-6,4
1527842110777988,-31,26,4,1,0,-2,-3,-16
1527842110789955,58,3,1,3,-1,1,-2,-11
1527842110789955,7,-11,-11,-9,-4,-3,-1,8
1527842110798931,38,93,24,14,4,3,1,-34
1527842110798931,-11,-36,-29,-17,-9,-7,-11,-44
1527842110813891,16,-1,-6,-6,0,1,1,13
1527842110813891,25,21,4,5,4,5,7,-5
1527842110815886,-56,-1,-3,-3,-3,-3,-1,-6
1527842110815886,82,57,17,7,2,-2,-2,27
1527842110836830,-10,-36,-4,-1,0,2,-2,-45
1527842110836830,-37,-51,-19,-8,-4,-2,10,81
1527842110837828,67,-12,-12,-18,-11,-11,-10,15
1527842110837828,-24,24,10,3,3,0,1,-5
1527842110849795,-46,-4,11,8,5,4,1,10
1527842110849795,54,13,2,9,5,8,10,0
1527842110858771,-17,-13,-5,3,0,0,-4,-15
1527842110858771,-10,-1,8,-4,-2,-1,6,34
1527842110873731,11,24,-3,-3,-5,-4,-6,8
1527842110873731,78,33,11,3,-5,-5,3,39
1527842110875726,-76,-31,-20,-11,2,1,1,-8
1527842110875726,23,49,13,8,1,2,-1,-15
1527842110896670,-50,-13,0,2,3,3,7,-7
1527842110896670,-78,-38,-16,-16,-8,-6,-10,-23
1527842110897667,46,5,11,10,-1,-2,-6,-17
1527842110897667,1,-29,-2,6,8,6,8,1
1527842110910633,38,13,3,0,-2,-1,-3,40
1527842110910633,41,19,-15,-11,-5,-5,3,31
1527842110919609,-49,16,8,3,2,1,3,-10
1527842110919609,-28,-11,-7,-4,-1,1,-4,-33
1527842110933571,-49,52,15,10,3,1,11,55
1527842110933571,49,-69,-10,3,0,-1,-4,-9
1527842110935567,-40,2,-6,-8,-3,-2,-1,-33
1527842110935567,-3,2,11,14,7,6,2,-14
1527842110956510,63,82,-3,-18,-16,-12,-6,26
1527842110956510,-102,-37,-6,0,4,3,-4,-28
1527842110958505,-29,-1,4,4,3,1,-3,0
1527842110958505,68,2,4,7,1,5,10,-4
1527842110970472,-26,-15,-4,-5,-4,-6,-11,-24
1527842110970472,12,9,0,-2,0,-1,0,-12
1527842110979449,56,-23,-17,-12,-9,-9,-2,50
1527842110979449,-35,36,6,-6,-3,-6,-7,-1
1527842110994408,19,-13,12,16,12,13,13,-23
1527842110994408,-92,-11,-12,-12,-7,-8,-16,-47
1527842110995406,-9,21,2,7,7,5,1,-8
1527842110995406,-67,-68,-22,-10,-6,-5,-5,9
1527842111016350,-43,16,-3,0,3,3,10,24
1527842111016350,-63,-35,-10,-4,-4,-7,-11,8
1527842111018345,26,-10,-4,-3,-4,-3,-7,-20
1527842111018345,0,19,12,2,-1,-3,-4,0
1527842111030313,48,20,-4,-6,-7,-9,-1,67
1527842111030313,88,-4,5,12,8,11,16,23
1527842111039289,-33,7,9,6,3,5,4,-14
1527842111039289,-36,54,8,-3,-4,0,9,33
1527842111054249,-86,-96,-42,-13,-8,-12,-15,-30
1527842111054249,19,91,27,4,2,1,0,-4
1527842111055246,2,-14,2,2,0,0,0,-4
1527842111055246,36,12,1,8,6,5,4,-12
1527842111076190,20,-49,-3,-2,-1,1,1,4
1527842111076190,13,12,-3,-2,-5,-7,-10,-37
1527842111078185,-60,-16,8,8,5,3,8,28
1527842111078185,-11,65,-4,-8,-7,-8,-11,7
1527842111090153,57,14,-17,-18,-7,-9,-7,-24
1527842111090153,-6,-5,6,2,0,-2,-3,-21
1527842111099129,54,9,7,5,1,4,4,20
1527842111099129,8,-6,4,11,9,8,8,13
1527842111114089,-101,-19,-1,-7,-6,-5,-7,-23
1527842111114089,33,71,13,5,0,0,-1,4
1527842111116084,76,0,-7,-4,-3,-2,2,16
1527842111116084,-70,-54,-11,-7,-4,-6,-15,-37
1527842111137028,-46,-8,-5,-7,-3,-3,-3,-7
1527842111137028,-3,0,2,2,1,-1,-10,-64
1527842111138025,-12,-6,6,4,1,3,7,-7
1527842111138025,-13,-5,-17,-13,-10,-10,-5,-5
1527842111149993,45,10,14,11,6,5,1,-12
1527842111149993,-11,23,6,3,1,5,4,2
1527842111158969,0,5,-14,-9,-6,-8,-13,-61
1527842111158969,-36,-1,-2,-6,-2,-3,3,14
1527842111173929,-48,-13,-1,2,1,3,-1,-9
1527842111173929,-7,-6,-7,-4,-4,-5,0,34
1527842111175924,-1,-5,3,3,4,4,5,20
1527842111175924,5,25,15,12,9,7,0,-22
1527842111196867,69,-88,-46,-27,-18,-15,-4,38
1527842111196867,8,28,5,4,1,-1,-4,-5
1527842111197865,-17,9,2,-2,-2,-3,-4,3
1527842111197865,20,-44,-9,2,2,2,2,4
1527842111209833,18,47,24,8,3,3,2,-18
1527842111209833,-4,5,7,9,4,4,0,12
1527842111218809,23,-32,-20,-12,-4,-2,4,32
1527842111218809,43,13,1,-4,-4,-3,1,39
1527842111233769,-47,15,14,15,11,10,5,-19
1527842111233769,26,-38,-26,-24,-15,-12,-11,-4
1527842111235764,-20,13,17,13,7,5,4,-18
1527842111235764,100,4,-13,-7,-11,-9,1,63
1527842111256707,-21,3,6,3,6,8,5,17
1527842111256707,-21,-31,6,6,4,4,7,-6
1527842111258702,-47,1,6,5,3,3,-15,-39
1527842111258702,-14,1,-16,-20,-15,-13,-8,1
1527842111270671,-56,17,7,0,1,1,-4,-34
1527842111270671,-22,25,0,0,1,2,6,8
1527842111279647,-4,-94,-15,-7,-5,-1,3,13
1527842111279647,-42,14,5,10,7,4,-1,-35
1527842111293609,40,7,7,4,0,-2,-2,5
1527842111293609,-12,5,3,6,2,2,5,-40
1527842111300590,-15,19,-8,-13,-7,-8,-4,12
1527842111300590,39,3,5,2,0,2,-2,-18
1527842111316547,39,-2,-4,-2,-3,-3,-1,16
1527842111316547,-2,8,-1,0,-1,3,-1,16
1527842111318543,-27,-12,6,4,0,-2,1,8
1527842111318543,-57,-32,-18,-16,-6,-5,-13,-81
1527842111330510,61,17,1,6,2,1,4,2
1527842111330510,-6,-9,-4,-8,-6,-5,-10,-34
1527842111339486,-15,24,1,0,-2,-1,5,22
1527842111339486,-60,-8,7,6,5,3,2,-6
1527842111353449,-48,-16,-3,-3,-2,-5,-6,-34
1527842111353449,-1,-3,-3,-2,0,-1,1,16
1527842111360430,10,-3,-9,-9,-3,-3,-2,19
1527842111360430,6,7,7,4,0,1,-1,0
1527842111376387,-6,14,8,4,1,2,-2,-16
1527842111376387,26,-48,0,3,4,3,5,17
1527842111378382,38,43,-4,-2,-9,-9,-4,23
1527842111378382,8,29,10,2,6,6,3,7
1527842111399326,-7,-38,-12,2,0,-1,4,15
1527842111399326,-33,7,2,-2,1,-4,-4,22
1527842111400324,7,2,2,1,2,6,5,-24
1527842111400324,12,0,5,6,3,0,-1,-4
1527842111413289,24,21,-15,-16,-9,-9,-14,-51
1527842111413289,-26,-31,-4,-2,-1,-3,-1,12
1527842111420270,-8,-1,4,4,3,1,-2,-4
1527842111420270,-82,29,3,1,-1,-2,-3,-15
1527842111436227,-1,-29,-9,-3,0,0,2,12
1527842111436227,12,3,1,-3,-3,-4,0,9
1527842111438223,3,11,1,-4,-2,-2,-5,-42
1527842111438223,26,3,2,7,-1,-1,3,9
1527842111459166,-8,5,5,1,2,2,1,3
1527842111459166,59,11,-6,1,-1,1,4,12
1527842111461161,-63,-13,-2,-4,-1,-2,0,-6
1527842111461161,13,-1,-8,-8,-4,-3,-6,0
1527842111473129,-20,-22,-5,-5,-4,-1,5,13
1527842111473129,15,18,2,1,0,-1,2,12
1527842111480110,-27,3,2,0,0,-2,-5,-18
1527842111480110,29,-6,-10,-6,-3,-2,-2,1
1527842111496068,-29,-24,6,5,1,2,-1,5
1527842111496068,-14,18,-4,-3,-1,-3,0,1
1527842111498062,-41,-34,-6,-5,1,1,1,-19
1527842111498062,10,-3,-3,0,-1,-1,2,37
1527842111519006,-3,18,9,7,3,2,1,5
1527842111519006,2,1,-4,-8,-5,-4,-7,-22
1527842111521001,13,-20,0,10,3,3,-4,-17
1527842111521001,30,18,6,-2,-1,0,3,-4
1527842111532969,-36,-10,-6,-7,-6,-8,-8,-20
1527842111532969,0,5,7,4,2,8,5,-48
1527842111539950,16,-5,-12,-5,-4,-3,-4,27
1527842111539950,-4,-6,-1,0,-1,-1,0,-4
1527842111556905,-37,8,9,9,4,4,0,-46
1527842111556905,95,46,0,-8,-11,-10,-11,-11
1527842111558900,9,3,-15,-13,-4,-3,6,58
1527842111558900,-43,49,22,13,6,5,-1,-15
1527842111578846,16,-27,-1,9,2,0,1,13
1527842111578846,21,3,-9,-5,-2,3,-3,-21
1527842111580841,21,23,4,2,-3,-2,-2,-7
1527842111580841,5,-6,-10,-11,-6,-6,-3,16
1527842111593806,74,-15,4,1,-1,3,9,36
1527842111593806,-25,40,21,15,4,2,2,33
1527842111599790,-40,19,-12,-9,-1,-1,0,2
1527842111599790,6,-28,-11,-7,-5,2,-1,-25
1527842111616745,22,31,8,0,-3,-5,2,30
1527842111616745,-11,-25,-5,1,1,2,5,23
1527842111617743,46,22,8,1,-3,-6,-2,-14
1527842111617743,-28,-6,0,1,1,1,-1,-5
1527842111638686,-68,33,5,-7,0,2,-1,38
1527842111638686,19,-39,-23,-11,-10,-16,-6,17
1527842111640682,-64,21,5,6,8,4,4,1
1527842111640682,7,8,3,3,-2,5,-2,7
1527842111652649,-9,-24,3,4,7,4,-3,-18
1527842111652649,-36,-8,-12,-11,-5,-2,5,30
1527842111661626,-19,-18,2,2,-1,-4,4,34
1527842111661626,-22,-65,-15,-7,-2,-6,-6,-18
1527842111676585,-44,31,12,10,8,9,3,-71
1527842111676585,39,-23,0,4,3,0,0,8
1527842111678580,25,5,-1,-1,-3,-1,-8,-24
1527842111678580,-26,53,15,5,5,0,6,17
1527842111699524,-33,-81,-31,-13,-2,1,0,-12
1527842111699524,-46,-6,11,7,3,1,-6,-18
1527842111700521,28,23,4,1,-2,0,1,21
1527842111700521,108,8,-5,-9,-13,-12,-3,17
1527842111712489,50,64,0,-4,-5,-9,-8,5
1527842111712489,-72,-80,-21,-8,-3,0,-6,0
1527842111721466,-1,-12,7,-1,2,2,-4,-19
1527842111721466,-18,8,9,13,0,3,-2,-14
1527842111736425,80,-25,7,8,3,1,7,22
1527842111736425,63,-55,-23,-14,-8,-6,-2,14
1527842111738420,-3,59,18,-1,-1,-1,-4,-26
1527842111738420,-53,-42,-6,3,3,2,3,9
1527842111759364,-2,-33,-15,-9,-5,-5,-7,-3
1527842111759364,-27,70,26,15,11,9,5,-20
1527842111760362,57,-57,-20,-3,0,-1,3,25
1527842111760362,-27,44,-5,-8,-2,-1,-1,-1
1527842111772329,75,-48,-4,1,-1,-3,0,18
1527842111772329,-21,43,8,-1,-3,-3,-3,-29
1527842111781305,44,10,9,8,0,2,-2,12
1527842111781305,-27,-15,-9,-10,-1,-4,8,43
1527842111796265,-41,47,6,1,2,3,-3,0
1527842111796265,80,-19,-6,1,0,-3,-1,27
1527842111798260,29,8,11,9,4,6,12,-37
1527842111798260,-29,2,9,3,2,0,2,26
1527842111819204,16,9,-7,-6,-4,-1,3,14
1527842111819204,-49,17,7,0,2,2,-1,-3
1527842111821198,-67,-2,3,6,2,2,1,-5
1527842111821198,85,2,-6,-3,-3,-4,-4,-14
1527842111833166,-9,57,-3,-8,-9,-9,-10,-40
1527842111833166,-32,-9,-9,-6,0,3,6,14
1527842111842143,-34,-14,4,6,4,0,-7,-19
1527842111842143,-10,-13,-11,-7,-1,-3,-2,-9
1527842111856105,15,80,37,18,6,3,-3,-7
1527842111856105,62,-7,0,3,1,4,15,42
1527842111858100,-56,0,-12,-15,-7,-7,-8,0
1527842111858100,63,-5,1,4,2,-2,-1,-10
1527842111879044,-87,-24,-2,-2,-1,-1,-1,7
1527842111879044,-85,-38,11,14,14,10,4,-19
1527842111881039,7,35,-1,-13,-14,-14,-11,-18
1527842111881039,18,-110,-30,-4,2,4,8,12
1527842111893006,-22,28,7,2,-1,-1,2,11
1527842111893006,-18,-30,-16,-7,-7,-9,-3,16
1527842111901983,2,42,2,-2,0,-1,-6,-5
1527842111901983,-41,-83,-20,-11,-7,-5,-7,-14
1527842111916943,26,7,-1,0,-1,-1,-3,-11
1527842111916943,-46,21,15,6,1,1,-3,-7
1527842111917940,43,-40,-31,-18,-9,-7,-9,2
1527842111917940,-17,47,17,4,1,0,1,-9
1527842111938884,-10,-46,-11,-11,-1,0,11,21
1527842111938884,-12,32,3,11,-1,-1,-1,-11
1527842111940879,-21,-30,0,-5,0,-1,0,-17
1527842111940879,-3,15,0,1,3,1,-2,-4
1527842111952846,-63,9,-3,1,2,1,-4,-24
1527842111952846,47,-5,-5,-13,-11,-10,-10,-17
1527842111961823,4,-51,0,3,3,2,3,22
1527842111961823,3,24,-1,-2,-6,-2,-2,2
1527842111976783,-21,5,-6,-6,-3,-6,-8,5
1527842111976783,-31,20,4,0,3,1,1,-3
1527842111977780,42,-17,-3,2,0,-1,-3,-14
1527842111977780,-53,34,9,-3,-4,-2,3,4
1527842111998724,14,-24,-7,0,-2,0,2,7
1527842111998724,-35,4,2,-5,0,0,-9,-38
1527842112000719,48,-2,0,4,1,5,15,38
1527842112000719,-29,6,3,-1,4,2,-4,-18
1527842112012687,19,17,7,9,-2,0,-5,9
1527842112012687,-4,-11,-11,-9,-1,-4,-3,-59
1527842112021663,2,16,6,7,4,3,11,8
1527842112021663,18,-27,-5,-2,-1,3,-4,-1
1527842112037620,56,48,10,-3,-3,0,1,27
1527842112037620,-82,4,-6,0,2,2,-3,3
1527842112038618,-41,17,8,5,1,-1,0,-8
1527842112038618,-2,4,7,7,3,1,6,-3
1527842112058564,-12,-13,-6,-6,-2,-3,-4,-8
1527842112058564,67,49,6,0,-3,-3,-2,20
1527842112060559,-5,-14,-11,-3,0,2,3,12
1527842112060559,-25,47,14,5,2,0,-1,-4
1527842112072526,-12,-66,-20,-6,-2,-3,-1,-7
1527842112072526,2,35,11,9,4,3,7,22
1527842112081503,50,33,5,-1,-1,-2,-3,-5
1527842112081503,-53,-82,-33,-17,-10,-8,-8,-3
1527842112096462,-18,38,8,5,3,4,4,-9
1527842112096462,-9,2,4,2,0,-1,-5,-14
1527842112098458,-21,-31,-6,3,0,2,5,1
1527842112098458,19,11,5,1,-1,0,-6,-15
1527842112119401,18,-7,-5,-2,-3,-5,-3,-10
1527842112119401,-7,-21,-3,-2,-2,2,9,20
1527842112120399,-9,-9,9,1,4,2,-5,-25
1527842112120399,91,48,3,6,-7,-8,0,13
1527842112132367,-57,-70,-20,-14,1,2,1,-10
1527842112132367,-25,-2,6,4,1,-3,-3,3
1527842112141343,-31,-4,0,1,3,5,1,-36
1527842112141343,101,-6,-13,-9,-7,-5,1,4
1527842112156303,-54,39,6,-1,-3,-3,-1,2
1527842112156303,31,-13,-6,-4,-4,-3,-2,0
1527842112158298,-29,19,8,3,1,1,0,13
1527842112158298,-67,-6,11,10,7,6,2,2
1527842112179241,73,-9,-5,0,-2,0,3,-3
1527842112179241,5,-23,-17,-13,-4,-4,-5,-6
1527842112180239,16,14,3,0,-3,-3,-7,17
1527842112180239,12,24,7,2,1,1,3,18
1527842112192206,-13,-6,-5,-2,-2,-2,-6,-26
1527842112192206,-22,1,2,-3,0,-2,0,10
1527842112202180,10,-17,-10,-4,-5,-5,-7,10
1527842112202180,-31,27,21,16,10,9,5,-6
1527842112216142,40,-41,-19,-16,-11,-9,-5,2
1527842112216142,16,-21,-1,-2,2,1,0,2
1527842112218138,-11,9,2,0,-2,-4,-7,-22
1527842112218138,-2,-18,-4,-5,-1,3,1,0
1527842112239081,14,44,17,17,5,5,3,11
1527842112239081,16,-14,-5,-2,-2,-1,-2,-9
1527842112241076,4,-6,-10,-8,-4,-4,2,22
1527842112241076,-81,4,5,2,3,0,0,-24
1527842112253044,-4,-59,-19,-12,-8,-10,-8,-3
1527842112253044,40,-19,-6,-1,-2,4,0,-4
1527842112262020,-12,6,0,0,0,0,4,33
1527842112262020,-41,-18,-3,0,0,-1,-2,-9
1527842112275983,-11,19,8,4,3,6,5,0
1527842112275983,-10,49,15,6,1,-2,-2,-22
1527842112282964,30,-17,-20,-14,-7,-4,-5,-18
1527842112282964,75,-2,5,8,-3,-3,2,39
1527842112298921,57,81,15,4,2,1,1,-25
1527842112298921,-62,-51,-21,-6,-2,-2,-2,47
1527842112300916,-13,4,7,-2,0,-1,-11,-103
1527842112300916,31,-7,-7,-4,0,-4,-3,14
1527842112321860,-40,9,12,10,5,6,6,2
1527842112321860,66,-3,-8,-5,-3,-2,1,25
1527842112322858,-89,-9,3,1,0,1,3,-12
1527842112322858,8,17,-5,-7,-2,-3,-7,-35
1527842112335823,49,-65,-9,-1,-2,-5,-1,20
1527842112335823,61,72,2,-4,-4,-2,-3,-7
1527842112342804,-43,-29,-2,6,4,4,2,15
1527842112342804,15,13,-2,-7,-5,-6,-8,-7
1527842112358761,-47,35,7,2,3,3,1,15
1527842112358761,2,-68,-18,-6,-3,-3,0,-13
1527842112360756,-3,13,4,3,2,0,6,-4
1527842112360756,-26,-2,-9,-9,-3,0,-5,-62
1527842112381700,-48,-10,6,3,-2,-1,-2,-7
1527842112381700,-27,-18,-10,-8,-2,-2,-2,1
1527842112382698,60,4,5,5,-1,1,8,35
1527842112382698,-59,15,1,-7,-4,-4,-4,1
1527842112395663,-58,-63,-4,-3,3,0,2,30
1527842112395663,-91,54,27,22,9,2,-3,-22
1527842112402644,12,-46,-29,-19,-11,-8,-1,47
1527842112402644,-25,-54,-18,-7,-6,-7,-10,-13
1527842112418601,16,27,-4,-8,-3,-3,-7,-6
1527842112418601,-41,12,12,6,1,1,3,-12
1527842112420597,-38,23,21,14,7,4,4,13
1527842112420597,28,-30,-20,-7,-4,-1,6,20
1527842112441540,5,30,1,-2,-1,0,1,9
1527842112441540,-9,-38,-1,0,2,-1,-5,-2
1527842112443535,33,-8,-3,-7,-7,-5,-2,1
1527842112443535,16,-3,3,1,1,4,6,20
1527842112455503,54,14,-1,1,-2,-2,-7,-16
1527842112455503,31,26,1,-3,0,0,1,-7
1527842112462484,16,1,-1,4,0,1,-2,14
1527842112462484,-43,-5,7,7,2,4,6,7
1527842112479439,46,-5,-7,-3,0,-1,0,-7
1527842112479439,-29,54,16,-1,-4,-2,-3,0
1527842112480436,-40,-30,-24,-13,-1,2,-3,-32
1527842112480436,-13,19,5,9,3,1,0,-3
1527842112501380,-47,-24,11,6,4,4,2,-19
1527842112501380,42,-7,-9,-6,-5,-4,3,30
1527842112503376,29,12,13,8,3,3,4,27
1527842112503376,52,21,-8,-6,-2,-4,-3,5
1527842112516340,20,-36,-11,-4,-2,-3,3,12
1527842112516340,14,-13,-1,-1,3,6,-1,-5
1527842112522324,4,10,2,4,1,-2,-2,8
1527842112522324,-8,-9,3,0,-1,1,2,4
1527842112539279,-1,13,1,-1,-1,-1,0,9
1527842112539279,8,-9,-2,1,1,0,0,2
1527842112540277,3,-12,-7,-5,-4,-6,-4,-14
1527842112540277,31,32,8,1,-2,-2,-1,15
1527842112561220,-14,23,6,2,0,-1,-1,-6
1527842112561220,-9,-11,-5,0,1,0,3,9
1527842112563215,-11,19,6,2,-1,0,-6,-9
1527842112563215,25,7,5,3,3,6,13,25
1527842112575183,-53,-10,-17,-12,-8,-7,-5,31
1527842112575183,-3,-15,-5,-4,-1,-1,-1,-20
1527842112584159,7,-4,3,2,0,-5,-5,11
1527842112584159,-33,4,6,2,3,4,0,-4
1527842112599119,79,40,1,7,2,4,4,-5
1527842112599119,4,-66,-13,-8,-6,-7,-1,14
1527842112601114,-38,21,-1,-3,1,-2,-1,3
1527842112601114,-40,-20,0,1,2,1,-4,-20
1527842112622058,54,63,10,1,-5,-4,-4,10
1527842112622058,16,0,-13,-8,-9,-5,-9,11
1527842112623055,17,20,0,-5,-1,-2,-2,-13
1527842112623055,-32,-23,1,6,0,0,1,-7
1527842112635023,5,-7,2,1,3,3,3,-1
1527842112635023,-36,35,7,9,1,3,3,20
1527842112643999,64,-66,-22,-14,-10,-10,-6,9
1527842112643999,-75,40,11,1,0,-3,0,3
1527842112658959,-32,-8,-6,-1,0,2,5,21
1527842112658959,-7,-4,-3,-2,-1,-2,1,-12
1527842112660954,-42,8,5,0,1,0,-4,-32
1527842112660954,15,-21,-11,-9,-4,-3,-7,-2
1527842112681898,10,0,0,0,0,1,-1,-22
1527842112681898,30,19,15,7,1,2,0,0
1527842112682896,-11,0,-3,2,-1,-1,-6,-4
1527842112682896,35,13,2,-1,-1,-3,-1,3
1527842112694863,-86,-3,-4,-6,0,1,-2,-21
1527842112694863,15,5,0,1,-1,-2,-3,5
1527842112703839,-8,-5,7,7,4,8,13,-16
1527842112703839,-4,-11,-14,-16,-9,-10,-14,-1
1527842112718799,-15,19,9,10,-1,6,3,8
1527842112718799,-55,-28,-7,-7,3,4,-10,-34
1527842112720794,64,2,-1,0,-3,-5,9,64
1527842112720794,44,1,-1,-2,-1,2,-1,-8
1527842112741737,-25,-42,-11,-2,-3,-6,-3,6
1527842112741737,-7,17,6,3,0,0,6,-7
1527842112742736,-65,15,1,2,-1,-1,-6,-6
1527842112742736,-2,-45,-2,1,3,2,3,-2
1527842112755700,-19,-3,-4,-7,-5,-8,-9,1
1527842112755700,15,-28,-13,-4,0,-3,0,10
1527842112764677,-13,6,0,1,-2,-2,-2,-9
1527842112764677,21,-3,7,5,-2,-4,2,11
1527842112786618,-47,4,4,0,5,6,2,-13
1527842112786618,55,-8,-5,-5,-2,0,0,2
1527842112788613,-66,20,4,-3,-1,0,-4,-14
1527842112788613,-7,-4,-8,-4,-12,-2,-6,-21
1527842112801578,-6,-8,0,4,13,-6,0,-2
1527842112801578,37,72,24,11,11,9,2,-2
1527842112803572,-64,17,-4,-6,-3,-6,2,28
1527842112803572,-29,10,-1,0,0,4,4,6
1527842112815540,32,-12,-12,-11,-9,-3,-3,-2
1527842112815540,-14,20,11,6,-22,-6,0,-13
1527842112824517,17,41,14,16,15,7,2,-11
1527842112824517,1,-80,-7,2,21,1,1,16
1527842112839477,-71,-13,-9,-8,-10,5,2,2
1527842112839477,15,9,-9,-10,0,-21,-14,-10
1527842112840474,19,1,4,-1,-4,8,2,-12
1527842112840474,50,21,5,1,-7,5,11,29
1527842112861418,29,0,-4,-1,8,-4,-10,-26
1527842112861418,-38,-24,-4,-5,-9,3,8,-32
1527842112863413,58,-9,-9,-8,-5,-8,-1,11
1527842112863413,3,54,6,4,5,0,2,-5
1527842112875380,49,-3,-3,-7,-6,-3,-1,10
1527842112875380,72,10,5,9,3,-2,4,36
1527842112884357,-2,-17,13,9,11,9,1,-26
1527842112884357,-19,-18,-20,-11,-7,-1,-10,-1
1527842112899316,6,48,16,6,-6,-2,1,-25
1527842112899316,-58,-79,-25,-5,6,2,-5,-32
1527842112900314,69,48,-5,-12,-9,-11,-9,2
1527842112900314,51,-82,-12,1,-6,-3,-4,64
1527842112921258,-104,1,-1,-1,0,-2,-6,-27
1527842112921258,-27,12,15,8,10,6,4,17
1527842112923253,32,-6,-8,-3,-4,1,-2,-14
1527842112923253,-50,8,-8,-13,-12,-12,-11,-21
1527842112935220,24,-12,11,12,7,2,7,13
1527842112935220,-57,-29,-9,-3,-1,-1,-9,-30
1527842112944197,-35,37,27,23,8,10,1,-24
1527842112944197,-64,-1,-38,-32,-14,-17,-7,-37
1527842112959156,36,21,10,5,4,11,12,18
1527842112959156,-94,3,9,7,2,2,-1,-20
1527842112961151,-10,-19,-22,-20,-11,-10,-19,-42
1527842112961151,8,46,19,15,10,4,4,-4
1527842112982095,76,57,3,0,-3,3,-1,-2
1527842112982095,-48,8,4,-2,0,-10,-4,-35
1527842112986085,-22,-94,-38,-18,-11,-8,5,17
1527842112986085,112,2,6,8,1,-2,1,1
1527842112995060,-75,-6,-24,-23,-16,-9,-15,4
1527842112995060,25,22,7,6,1,4,5,16
1527842113004037,-41,24,22,16,12,10,11,-31
1527842113004037,16,51,4,-11,-16,-15,1,65
1527842113018996,-41,-57,-19,-5,5,0,3,-12
1527842113018996,68,12,1,-3,0,0,6,40
1527842113020991,-115,-14,11,7,3,4,7,2
1527842113020991,38,50,8,7,3,7,4,-27
1527842113041935,76,-87,-9,3,-1,-4,2,30
1527842113041935,36,90,-8,-17,-11,-10,-15,19
1527842113042932,-16,-68,-14,-5,-1,-2,0,21
1527842113042932,-50,46,32,25,19,16,8,-48
1527842113054900,43,-23,-20,-14,-14,-13,-1,19
1527842113054900,-9,10,-8,-6,-2,-1,5,-46
1527842113063876,4,17,10,3,1,-1,-10,-9
1527842113063876,-21,-9,8,3,-3,-2,-2,-5
1527842113078836,-6,-1,1,7,2,-1,1,-36
1527842113078836,-32,-27,3,4,4,10,5,36
1527842113080831,127,58,-11,-4,-11,-13,-2,18
1527842113080831,-43,-53,-2,0,3,8,7,-10
1527842113101775,-81,15,9,7,1,1,-4,11
1527842113101775,16,-34,-20,-13,-6,-6,-2,-8
1527842113102773,-17,-3,7,7,5,5,5,9
1527842113102773,-46,44,8,0,0,-1,2,-13
1527842113114741,-18,-22,18,16,11,11,7,17
1527842113114741,-13,-12,-15,-15,-11,-10,-7,-7
1527842113124714,46,4,16,6,5,4,5,8
1527842113124714,-4,8,5,8,5,2,-12,-72
1527842113138677,29,-24,-6,-11,-11,-7,1,42
1527842113138677,36,29,-4,-2,-1,0,-2,27
1527842113140671,-20,18,2,-1,-4,-4,-4,1
1527842113140671,-19,-12,4,0,-1,-1,8,24
1527842113161615,83,0,7,16,9,11,6,6
1527842113161615,-65,-31,-7,-14,-5,-5,-6,5
1527842113163610,-1,17,-9,-3,-8,-7,1,20
1527842113163610,-93,-23,-10,-6,3,1,-5,-36
1527842113175578,4,-16,2,-7,-7,-8,-4,5
1527842113175578,103,8,7,9,2,0,4,31
1527842113184554,-38,-52,-16,-15,-8,-4,-1,13
1527842113184554,-62,19,13,8,3,0,-1,-10
1527842113198516,-18,-16,-11,-9,-3,-5,-2,-20
1527842113198516,-87,-39,3,5,6,5,-5,-57
1527842113205498,-20,-5,-14,-10,-7,-9,-12,6
1527842113205498,79,-20,-8,-2,-3,-3,0,43
1527842113221455,17,50,-1,-8,-8,-12,-15,-42
1527842113221455,-18,4,10,14,5,5,14,-8
1527842113223450,49,52,1,-3,-1,-3,1,10
1527842113223450,-76,-99,-15,-5,2,2,-1,-4
1527842113235418,-49,22,10,12,2,1,1,-2
1527842113235418,1,-78,-28,-16,-7,-4,-6,4
1527842113244394,57,20,9,8,4,4,0,-1
1527842113244394,127,55,-6,-9,-10,-6,-5,-5
1527842113258357,52,-9,0,-1,-1,-2,-2,10
1527842113258357,82,72,14,10,3,2,4,33
1527842113265338,-89,-30,-7,0,5,4,3,9
1527842113265338,-17,-20,-4,-4,-2,-3,-6,2
1527842113281295,-80,18,7,5,3,5,9,-9
1527842113281295,0,97,34,14,1,3,9,22
1527842113283290,-78,-43,-42,-18,-4,-1,-8,-18
1527842113283290,6,52,7,-1,0,-1,3,25
1527842113304234,2,13,-3,-5,-3,-2,-3,-16
1527842113304234,57,-12,4,2,-1,-3,-2,-4
1527842113306229,-42,14,17,4,7,6,-4,-39
1527842113306229,65,-67,-19,2,-6,-5,1,37
1527842113318196,29,31,1,-5,-3,-3,-12,-5
1527842113318196,-47,-57,-11,-2,0,-1,6,-3
1527842113325178,34,22,4,-2,-3,-3,1,22
1527842113325178,37,10,-6,-1,-3,-2,-1,5
1527842113341135,45,13,8,3,3,1,2,37
1527842113341135,-81,-34,-15,-8,0,-3,-8,-49
1527842113343130,31,0,0,5,-3,-1,7,-1
1527842113343130,-27,19,11,2,0,0,-2,-24
1527842113364074,-28,-10,-4,3,5,7,4,21
1527842113364074,-84,3,-3,-9,-5,-4,-5,15
1527842113366069,-10,-92,-19,-3,2,4,7,5
1527842113366069,-84,-6,-8,-8,-3,-2,-7,-35
1527842113378037,-94,-39,-8,-6,-3,-7,-7,-48
1527842113378037,35,3,-2,-1,-1,-2,-9,-17
1527842113385018,39,32,12,4,-2,-1,6,25
1527842113385018,-37,8,8,6,5,5,1,-19
1527842113401973,-43,-21,-2,2,2,-1,-2,-23
1527842113401973,53,14,-1,-1,-3,-1,1,48
1527842113402970,-32,5,14,2,-1,-4,-3,-13
1527842113402970,-36,19,-8,-1,0,1,2,23
1527842113423914,3,4,-3,-5,-2,1,-1,-22
1527842113423914,0,-19,-4,1,0,0,2,6
1527842113425909,-2,23,12,8,5,4,-1,-33
1527842113425909,23,0,-1,-1,0,-3,-1,26
1527842113438874,-43,-4,7,11,6,4,0,-21
1527842113438874,50,100,22,3,-4,-6,-7,2
1527842113444858,37,-25,-30,-20,-6,-3,-8,-9
1527842113444858,11,8,11,4,1,0,5,-16
1527842113461813,2,-10,-1,-1,-3,-3,0,-7
1527842113461813,20,12,14,11,9,7,2,-8
1527842113462810,41,2,11,15,3,6,14,19
1527842113462810,-33,-94,-37,-27,-14,-12,-10,-5
1527842113483754,8,41,14,6,5,2,-1,-25
1527842113483754,-33,-32,-6,0,1,2,6,-14
1527842113485749,-15,2,-12,-13,-4,-4,-7,1
1527842113485749,24,27,12,14,2,2,-1,1
1527842113497717,23,-8,-6,-4,-4,-2,-1,2
1527842113497717,-36,-16,2,1,1,6,3,-1
1527842113506693,-36,-13,3,2,-1,-5,-4,-24
1527842113506693,77,34,11,7,3,6,14,23
1527842113521653,-4,25,-5,-11,-11,-13,-15,-13
1527842113521653,11,-21,-11,-3,-2,-1,2,-6
1527842113523648,4,24,6,-1,0,-3,1,17
1527842113523648,-34,-61,-3,3,2,3,13,41
1527842113544591,95,54,-16,-6,-4,-2,5,44
1527842113544591,-48,82,33,14,10,5,3,23
1527842113545589,-50,-99,-30,-14,-10,-8,-8,14
1527842113545589,-12,60,1,-3,-5,-4,-8,-35
1527842113557557,-1,-15,0,2,-1,3,6,39
1527842113557557,-25,-27,-7,-1,-1,-1,-3,-33
1527842113566533,-37,48,25,20,9,5,2,0
1527842113566533,65,19,-15,-22,-11,-8,-7,7
1527842113581493,-93,-48,-5,8,2,2,-1,10
1527842113581493,-6,-1,-7,-5,0,-2,-3,-7
1527842113583488,28,4,7,5,-1,3,-2,-13
1527842113583488,12,-5,3,2,3,2,1,0
1527842113604432,-6,11,0,-8,-4,-6,-11,-35
1527842113604432,-4,-33,-6,3,1,1,11,70
1527842113605429,-16,36,1,-3,-5,-5,-8,-35
1527842113605429,-59,-51,-9,0,1,4,5,18
1527842113617397,52,11,9,4,3,1,5,3
1527842113617397,-7,-74,-16,-7,-2,6,0,21
1527842113626372,-55,24,-1,-3,1,0,2,-46
1527842113626372,102,66,12,4,-5,-6,-8,-4
1527842113641333,-37,4,4,-2,-1,-2,4,9
1527842113641333,13,7,-8,-6,-2,-4,-9,-30
1527842113643328,31,-16,-3,-2,-1,3,-1,34
1527842113643328,-35,-11,6,8,3,-1,-1,-13
1527842113664271,-1,0,-6,-5,-5,-6,-8,-8
1527842113664271,7,21,-2,-6,-6,-2,-2,-1
1527842113665269,40,-12,-4,-6,2,4,7,31
1527842113665269,71,35,0,4,-5,-5,-11,-10
1527842113678234,80,41,17,9,9,8,16,10
1527842113678234,-68,-80,-37,-18,-9,-12,-15,-43
1527842113687210,-30,-33,-9,-8,-9,-16,-8,-2
1527842113687210,-55,7,9,2,9,22,4,-10
1527842113701173,-11,-12,-7,-4,-4,-9,-7,8
1527842113701173,69,93,31,25,10,10,17,-7
1527842113703168,13,-86,-55,-31,-16,-14,-12,18
1527842113703168,23,65,17,2,0,-5,-7,-28
1527842113724111,-37,-9,1,1,3,7,2,-11
1527842113724111,26,51,25,15,5,5,15,-22
1527842113726106,92,-30,-30,-18,-17,-12,-10,30
1527842113726106,-53,33,7,-2,2,-3,3,-50
1527842113738074,-17,-15,-4,-5,-4,-2,-3,2
1527842113738074,-2,-22,1,0,-1,-6,-10,-5
1527842113747050,1,51,26,17,11,12,9,1
1527842113747050,-11,-42,-9,5,0,1,3,21
1527842113762010,-45,-17,-15,-18,-11,-7,-13,-33
1527842113762010,92,12,-5,-9,-10,-15,-6,24
1527842113763008,-85,-12,10,4,1,4,1,-26
1527842113763008,21,2,-16,-10,-3,-5,0,38
1527842113783952,-45,4,3,6,1,1,-3,-17
1527842113783952,-46,-48,-16,-11,-5,-6,-9,-1
1527842113785946,43,116,34,13,4,1,0,4
1527842113785946,54,2,-5,1,-3,-1,7,20
1527842113797914,-49,-58,-10,3,5,6,1,-10
1527842113797914,16,13,-16,-16,-9,-7,-7,-5
1527842113806891,80,20,23,17,8,14,10,58
1527842113806891,-128,21,13,1,0,-3,3,-61
1527842113821850,-17,-71,-24,-8,-1,-7,1,-2
1527842113821850,81,92,13,8,-3,1,3,48
1527842113822848,-128,-63,-10,-13,0,2,-2,-53
1527842113822848,-52,9,16,15,5,7,-14,-47
1527842113843791,81,22,-2,-10,-12,7,21,71
1527842113843791,-12,18,-4,-5,0,-11,-19,-20
1527842113845787,-59,71,19,17,9,-4,0,-15
1527842113845787,61,-75,-17,-4,0,1,3,12
1527842113857754,-64,-41,0,3,2,0,17,28
1527842113857754,-107,-85,-24,-11,0,5,-11,-51
1527842113866730,28,35,16,4,1,1,7,-8
1527842113866730,3,90,29,17,11,8,8,23
1527842113881690,-15,-69,-31,-2,1,4,4,13
1527842113881690,-39,76,-10,-18,-10,-9,-9,-1
1527842113883685,-15,-118,-35,-13,-6,-5,-2,17
1527842113883685,-33,29,15,5,4,4,4,9
1527842113903632,-42,34,16,14,5,2,-8,-47
1527842113903632,64,-42,-8,2,-3,4,10,50
1527842113905627,14,74,5,-8,-5,-9,-5,-37
1527842113905627,-32,-71,-14,-8,-4,-6,-11,-6
1527842113917594,64,73,2,-8,-5,-6,-4,23
1527842113917594,-54,55,37,25,14,8,13,-2
1527842113926571,67,-76,-38,-19,-16,-10,-2,31
1527842113926571,17,-47,-11,-6,-2,-3,2,26
1527842113941530,-25,63,28,10,6,-1,-6,-44
1527842113941530,34,-32,-21,-13,-7,-4,-6,-13
1527842113943525,-85,62,15,2,5,6,10,45
1527842113943525,-90,-27,15,23,15,6,2,-76
1527842113964469,29,-8,-62,-62,-39,-35,-41,-8
1527842113964469,35,-9,8,6,2,2,3,-11
1527842113965467,-45,21,24,16,12,9,10,-3
1527842113965467,-81,11,-10,-10,-9,-6,-7,-24
1527842113977434,64,-19,-8,0,-2,2,3,34
1527842113977434,-57,0,1,-1,2,2,2,6
1527842113989404,17,-68,-38,-22,-14,-11,-4,29
1527842113989404,-110,8,14,11,9,7,3,8
1527842114001370,26,24,30,25,13,13,15,-25
1527842114001370,53,-47,-42,-26,-10,-7,-2,30
1527842114003365,-46,26,18,6,2,-4,-3,-32
1527842114003365,36,-18,1,2,1,12,1,9
1527842114024309,-71,59,18,7,2,2,12,13
1527842114024309,-35,-76,-6,2,0,0,-2,-16
1527842114025307,-53,-3,11,19,19,12,-5,-47
1527842114025307,15,20,-19,-27,-19,-17,-7,44
1527842114037274,-71,-17,22,8,9,3,-5,-80
1527842114037274,-17,-20,-16,-7,-3,-5,-3,-24
1527842114047248,-81,-13,-21,-16,-15,-12,-7,22
1527842114047248,65,24,5,-3,0,-4,2,32
1527842114061210,-42,-14,14,17,11,9,-8,-6
1527842114061210,2,31,7,1,-3,-4,0,-13
1527842114063205,103,-42,-16,-3,-2,2,5,-4
1527842114063205,99,19,-9,-7,-7,-6,-4,8
1527842114084149,-25,45,10,6,1,3,9,2
1527842114084149,62,-5,-2,-3,-1,-3,-9,18
1527842114086144,6,38,5,2,1,1,1,12
1527842114086144,-25,3,21,17,5,6,7,-10
1527842114098111,-19,-4,-17,-16,-4,-2,-6,-24
1527842114098111,-128,-34,13,8,4,5,6,-3
1527842114107088,74,105,24,17,6,2,5,20
1527842114107088,-18,-70,-20,-15,-5,-2,0,-6
1527842114121050,4,29,7,9,6,5,0,44
1527842114121050,-15,-67,-5,-3,-3,-1,3,12
1527842114128032,-21,24,10,2,-1,2,2,0
1527842114128032,42,14,-6,-2,-1,-3,-2,-12
1527842114143989,-1,58,12,3,-3,-2,2,69
1527842114143989,50,-9,-15,-7,-1,1,-1,-12
1527842114145984,-21,-11,0,-3,2,1,-7,-20
1527842114145984,-14,1,-3,-3,-3,-1,3,16
1527842114157952,-54,-20,-6,-8,-6,-6,-7,-2
1527842114157952,-36,28,20,14,10,4,-1,-2
1527842114166928,44,-11,1,5,0,7,-1,-19
1527842114166928,86,49,-13,-13,-18,-22,-5,19
1527842114180890,-63,-32,-6,-2,2,5,-7,-62
1527842114180890,-29,32,14,3,0,-6,-9,-23
1527842114187872,-30,-50,-23,-12,-7,-9,-14,-50
1527842114187872,-46,10,13,6,6,3,-2,8
1527842114203829,102,-28,-12,0,-2,6,9,3
1527842114203829,8,4,2,-4,-3,-1,6,13
1527842114205824,-17,10,5,0,-1,-9,-10,-11
1527842114205824,-55,-18,-19,-13,-11,4,2,-6
1527842114226768,7,-11,1,1,4,-2,-8,-11
1527842114226768,-55,44,2,1,-1,0,-2,-8
1527842114227765,-21,-57,2,9,5,5,4,10
1527842114227765,-13,-17,-5,-7,1,-6,1,-1
1527842114240730,50,12,7,7,-1,3,0,23
1527842114240730,24,8,2,-1,0,3,2,-3
1527842114247712,14,37,-14,-19,-14,-12,-14,-31
1527842114247712,-15,-10,7,7,6,2,9,15
1527842114263669,30,12,-1,-6,-3,-2,-2,-10
1527842114263669,20,25,9,7,1,-1,1,23
1527842114265664,-17,-64,1,2,2,5,4,-9
1527842114265664,27,5,-7,-5,-2,1,-9,10
1527842114286608,52,28,12,5,0,-10,-6,-21
1527842114286608,-33,-25,2,14,9,14,11,8
1527842114288603,-57,30,-5,-17,-14,-12,-4,15
1527842114288603,38,28,-2,-2,0,-4,-4,13
1527842114300570,1,11,3,0,0,0,4,24
1527842114300570,2,-9,-15,-8,-6,-3,0,4
1527842114307552,-23,-4,7,9,7,7,0,-24
1527842114307552,-47,-33,-7,1,0,-1,1,-16
1527842114324506,62,17,-10,-10,-8,-6,-1,24
1527842114324506,2,35,15,7,3,1,-1,-19
1527842114325504,83,56,16,12,3,4,10,39
1527842114325504,103,-46,-17,-7,-5,-1,0,19
1527842114346448,-12,-24,1,9,8,6,3,9
1527842114346448,74,-12,-16,-23,-23,-21,-11,8
1527842114348443,-19,42,2,0,3,3,7,33
1527842114348443,-50,37,11,2,4,3,0,-19
1527842114360411,-8,-32,-1,7,2,2,1,-8
1527842114360411,-14,-33,12,7,5,3,0,3
1527842114367392,78,12,10,17,5,7,11,26
1527842114367392,11,-12,-29,-30,-14,-11,-10,13
1527842114384346,-37,18,17,5,3,3,4,3
1527842114384346,-112,15,24,19,16,11,-7,-47
1527842114385344,34,-95,-72,-39,-21,-15,-7,25
1527842114385344,-40,38,26,18,10,-4,8,-8
1527842114406288,-2,-10,3,2,-1,4,4,-10
1527842114406288,6,31,3,-1,0,0,-5,3
1527842114408283,88,8,6,3,0,3,8,23
1527842114408283,-42,55,16,11,7,6,-6,-31
1527842114421248,-36,-27,-22,-17,-9,-6,4,-18
1527842114421248,-69,-40,-23,-12,-6,-6,-12,-38
1527842114427232,-41,26,15,-2,1,4,-2,-30
1527842114427232,-30,-32,-8,6,-6,-6,1,9
1527842114444186,-85,-3,4,-2,1,-9,-4,10
1527842114444186,-42,8,-10,-11,-8,0,0,-24
1527842114446182,11,-21,-8,-2,-1,-5,2,-10
1527842114446182,5,-23,11,4,0,5,3,15
1527842114466128,10,-30,-7,4,10,7,4,-19
1527842114466128,39,20,-16,-16,-16,-16,-6,51
1527842114468123,-72,-34,12,6,6,1,-8,-34
1527842114468123,75,42,4,-3,-5,-9,-16,-47
1527842114480091,-23,85,19,14,5,10,20,60
1527842114480091,-40,-67,-33,-14,-2,-6,-5,-36
1527842114489067,-112,-10,-1,-1,2,1,-7,-19
1527842114489067,10,25,-8,-17,-12,-10,0,44
1527842114504027,10,12,2,-4,-3,-3,-1,-8
1527842114504027,74,14,10,10,6,4,7,7
1527842114506021,-42,-6,10,10,6,6,4,-7
1527842114506021,-87,-31,-7,2,3,7,6,17
1527842114526965,106,-39,-19,-9,-7,-12,-8,-8
1527842114526965,-25,15,8,-1,3,9,8,42
1527842114527963,-48,5,0,0,0,-4,-6,17
1527842114527963,-41,-44,-11,-11,-1,6,10,5
1527842114539931,26,38,14,15,-3,-7,-7,9
1527842114539931,-53,9,4,-3,1,1,7,14
1527842114548907,-42,28,15,11,1,-4,-8,-42
1527842114548907,-99,18,4,0,7,6,0,-31
1527842114563867,29,-21,-27,-15,-8,-1,-9,6
1527842114563867,-50,27,6,0,-1,1,1,19
1527842114565862,78,12,-5,-2,-2,-3,1,11
1527842114565862,-39,-57,-4,2,-2,-2,-6,-21
1527842114586805,-17,27,1,-4,-3,-4,-9,-24
1527842114586805,-28,-53,-9,1,0,-3,-3,-29
1527842114587803,-4,19,8,3,1,3,3,23
1527842114587803,31,19,7,10,7,6,7,-35
1527842114599770,-19,-98,-22,-7,-2,1,0,14
1527842114599770,58,64,8,-11,-4,-6,-6,6
1527842114609745,-37,-34,-2,15,4,6,8,1
1527842114609745,-7,35,16,7,2,1,5,28
1527842114623706,-40,-38,-12,-7,-3,-2,-8,0
1527842114623706,-57,19,4,1,-1,0,9,19
1527842114625702,56,-13,-12,-7,-3,-4,-4,-22
1527842114625702,-10,-20,-21,-16,-8,-9,-19,10
1527842114646645,36,17,4,6,5,5,8,11
1527842114646645,79,12,17,9,-3,-6,-1,11
1527842114648640,-10,59,9,1,2,16,4,-10
1527842114648640,-42,-37,-16,-7,-4,-7,-1,-11
1527842114660608,-80,-5,0,4,5,5,0,-7
1527842114660608,49,-46,-13,-5,-8,-7,-5,-3
1527842114669584,11,31,10,-1,1,0,1,-6
1527842114669584,118,-35,-4,2,-2,1,2,36
1527842114684544,-101,38,7,-3,-2,-3,0,16
1527842114684544,-29,6,2,9,7,6,5,6
1527842114685542,45,38,26,22,14,10,9,8
1527842114685542,95,-35,-29,-24,-18,-12,0,-15
1527842114706485,-11,3,23,10,8,0,-9,-16
1527842114706485,102,41,-2,-6,-6,-4,0,26
1527842114708480,-45,-28,-7,-6,1,0,-2,-23
1527842114708480,-23,35,14,13,7,5,0,10
1527842114720448,19,-27,-2,-8,-7,-3,2,-3
1527842114720448,-79,-2,5,6,6,4,-2,-29
1527842114729424,62,-10,-15,-13,-11,-12,-8,24
1527842114729424,-61,-7,14,14,9,9,8,13
1527842114744384,86,39,-23,-19,-15,-11,-12,-12
1527842114744384,-98,-31,-6,-2,0,0,-7,-36
1527842114745382,102,4,-6,-4,-6,-9,3,57
1527842114745382,-38,-81,-17,-8,-2,-1,-4,-5
1527842114766325,39,20,8,7,1,0,6,7
1527842114766325,24,2,1,-2,0,1,0,-18
1527842114768320,19,-1,-2,1,-4,-4,-1,17
1527842114768320,13,30,2,7,6,7,5,-10
1527842114780288,5,-44,-15,-3,0,2,4,34
1527842114780288,36,-13,7,15,10,8,13,-1
1527842114789264,-43,-3,15,-4,-7,-8,-8,-10
1527842114789264,102,27,-9,-3,-1,-2,0,20
1527842114804224,-44,10,8,0,-1,-4,-2,12
1527842114804224,-11,-11,1,6,5,5,3,2
1527842114805222,50,6,-9,-2,-4,-3,3,-11
1527842114805222,1,52,5,-4,-7,-9,-6,18
1527842114827163,-62,-55,-6,-1,5,7,6,-4
1527842114827163,12,22,-3,-3,-4,-6,-11,-27
1527842114828162,-82,38,21,9,5,5,3,-10
1527842114828162,-88,-85,-27,-8,0,1,-1,-15
1527842114840128,-9,0,-9,-8,-6,-9,-8,-8
1527842114840128,86,71,0,-8,-7,-2,1,23
1527842114849104,-40,-12,-6,-4,-2,-1,3,13
1527842114849104,-97,74,26,14,3,2,-6,-13
1527842114864064,-52,-20,-12,-7,1,0,-6,-42
1527842114864064,-71,-66,-15,-7,-1,-3,-1,-10
1527842114866059,-66,-7,-9,-6,-3,-3,-10,-15
1527842114866059,127,36,10,1,-4,-2,3,-1
1527842114887003,38,72,11,1,-1,-3,-1,-20
1527842114887003,-87,3,7,6,5,5,-1,-1
1527842114888001,-1,-10,-27,-23,-16,-14,-9,19
1527842114888001,-62,-29,3,-1,-2,-4,-8,-23
1527842114899968,-1,-30,0,1,0,2,3,8
1527842114899968,105,15,6,3,0,1,-2,0
1527842114908944,-26,-11,-3,-3,-2,-3,-10,-22
1527842114908944,69,20,9,6,3,3,6,2
1527842114923904,22,14,-1,-10,-8,-8,-11,-15
1527842114923904,5,-16,-1,4,-1,-1,6,25
1527842114925899,-35,-64,-13,-4,0,0,-4,-12
1527842114925899,3,29,10,2,-1,-2,-3,6
1527842114946843,22,10,2,1,1,4,6,-7
1527842114946843,-16,-37,2,8,6,6,0,-11
1527842114947840,58,-13,-12,-13,-12,-8,3,3
1527842114947840,-11,-10,-7,-4,0,-1,-1,-5
1527842114959808,-15,7,10,8,1,-2,-4,0
1527842114959808,-20,-15,-10,-3,2,2,1,7
1527842114968784,-3,8,8,7,5,2,-4,-10
1527842114968784,18,-3,-2,-1,-3,-1,3,25
1527842114983744,-14,-23,-7,-5,-4,-2,1,0
1527842114983744,90,37,2,-5,-9,-9,-9,7
1527842114985739,12,15,-11,-6,-1,-1,0,-1
1527842114985739,-31,-20,-10,-10,-5,-5,-6,8
1527842115006683,35,7,4,2,2,1,7,36
1527842115006683,24,24,14,15,4,6,5,9
1527842115008678,-52,47,15,6,5,4,3,-17
1527842115008678,-3,-88,-41,-17,-10,-5,-2,-15
1527842115020646,28,19,1,-2,-4,-5,-6,-19
1527842115020646,-78,-8,-6,-11,-4,-5,-1,-4
1527842115029622,-19,-19,1,4,5,3,0,9
1527842115029622,18,28,13,11,4,4,2,-13
1527842115044582,-13,2,3,-1,1,3,8,-2
1527842115044582,0,-22,-9,-8,-3,-5,-3,-2
1527842115045579,43,10,-2,0,-3,-3,-5,5
1527842115045579,10,36,7,0,-2,-2,-2,26
1527842115066523,-7,-47,-13,-5,-1,-1,1,13
1527842115066523,-12,23,0,-2,-2,-2,-4,-13
1527842115068518,16,-21,7,0,-1,3,4,13
1527842115068518,-13,17,0,-2,0,-3,-2,8
1527842115080485,-3,5,-2,3,0,-3,-14,-37
1527842115080485,1,7,-1,-10,-2,-2,1,-34
1527842115089462,-33,-25,-6,7,-1,0,3,16
1527842115089462,-7,7,14,6,4,6,6,-26
1527842115103424,-23,21,1,1,-1,0,-10,-1
1527842115103424,-2,-37,-9,-7,-4,-4,2,1
1527842115110406,77,46,2,-2,3,3,0,4
1527842115110406,-20,-75,-8,-6,0,-1,6,9
1527842115126363,-28,13,4,1,2,-1,3,7
1527842115126363,0,10,1,3,0,-2,-4,5
1527842115128358,-41,-13,1,3,2,4,3,-4
1527842115128358,1,-7,-1,3,-2,-8,-8,-16
1527842115149302,7,7,-3,-5,-1,6,4,5
1527842115149302,-62,-2,3,-3,2,2,-2,-6
1527842115150299,17,-71,-11,-1,-5,-5,-3,5
1527842115150299,-63,24,2,-1,1,-1,-4,-16
1527842115163264,22,15,7,3,-2,-4,3,-2
1527842115163264,47,37,5,5,2,4,6,12
1527842115170246,61,0,-9,-4,-2,0,-6,-15
1527842115170246,15,2,-1,-2,-2,-2,0,-12
1527842115186203,-17,7,1,0,1,-1,0,-2
1527842115186203,23,-5,-1,3,0,1,0,2
1527842115188198,-31,25,14,3,4,3,4,-17
1527842115188198,19,1,-5,4,-4,0,-8,-1
1527842115209142,-23,-14,1,-1,4,5,3,-1
1527842115209142,48,58,7,-4,-5,-11,-14,-62
1527842115211137,-34,-77,-17,-6,-3,-1,6,25
1527842115211137,-49,16,1,-5,1,-3,-10,-26
1527842115223104,42,-1,-7,-8,-5,-6,-5,4
1527842115223104,-46,-22,-3,7,-3,-2,-3,11
1527842115230085,11,31,6,-3,-1,-1,-1,-16
1527842115230085,-4,-2,-2,0,-1,-1,1,-1
1527842115247040,-3,-5,8,10,4,2,3,8
1527842115247040,31,-30,-14,-11,-7,-4,0,15
1527842115248038,-10,-2,-3,-4,-3,-2,-1,-22
1527842115248038,-38,12,8,10,4,5,5,32
1527842115268982,72,2,-19,-16,-10,-6,-2,15
1527842115268982,-40,-17,-6,-4,-2,-4,-5,11
1527842115270976,-71,28,16,9,1,-1,0,-7
1527842115270976,42,-3,-4,-6,-2,0,0,-15
1527842115282944,20,-4,-10,-5,-7,-9,-17,-23
1527842115282944,-19,7,5,2,2,3,9,31
1527842115289926,38,9,-7,-6,-2,-3,-5,11
1527842115289926,-21,-5,8,2,3,3,4,3
1527842115306880,75,-8,-2,4,4,7,10,22
1527842115306880,-23,-16,-8,2,-5,-8,-13,-9
1527842115307878,1,38,6,-6,-4,-4,4,-4
1527842115307878,-8,-21,-6,0,3,6,1,-20
1527842115328822,-22,4,3,-1,-4,-3,2,9
1527842115328822,-19,-44,-1,5,7,9,4,-14
1527842115330817,10,34,-4,-4,-4,-3,-3,18
1527842115330817,74,-8,0,-4,-1,-1,1,2
1527842115343782,-51,-3,-4,-3,-1,-7,-6,-8
1527842115343782,5,33,12,6,4,4,2,8
1527842115349765,59,-55,-7,5,0,8,4,12
1527842115349765,-64,26,1,-10,-3,0,-1,6
1527842115366720,-17,-49,-16,2,-3,-2,-1,-10
1527842115366720,10,12,-4,-11,-5,-5,-4,-21
1527842115368715,-23,0,0,0,0,-4,-1,2
1527842115368715,1,4,5,12,4,3,2,-7
1527842115388662,-2,15,-6,-17,-9,-7,-8,51
1527842115388662,91,37,10,11,-2,-4,7,22
1527842115390657,-50,-28,-3,-5,3,1,-3,-25
1527842115390657,1,19,1,-6,-4,-6,-3,16
1527842115403622,-28,-3,10,10,4,3,7,-2
1527842115403622,-38,-34,-15,-11,-2,0,-3,18
1527842115410603,-12,17,5,-1,2,0,-4,-10
1527842115410603,48,21,16,19,7,2,7,27
1527842115426560,-40,0,-1,-5,1,4,4,-4
1527842115426560,84,1,-7,-5,-6,-5,-6,26
1527842115428555,-48,31,-3,-8,-3,0,0,-20
1527842115428555,-38,-36,-13,-9,-3,-8,-11,-5
1527842115449499,-39,2,9,11,5,5,2,-28
1527842115449499,-49,-9,8,5,6,7,7,-9
1527842115450497,46,-39,-16,-10,-8,-7,-2,22
1527842115450497,2,25,-3,-6,-3,-5,-3,-36
1527842115462465,30,15,11,5,-1,0,-3,-3
1527842115462465,-95,-35,-10,-1,1,0,-1,-7
1527842115471441,-30,3,12,12,8,8,1,-27
1527842115471441,43,6,-9,-12,-11,-7,-3,31
1527842115486400,-30,-29,-4,-3,2,-1,-3,-11
1527842115486400,-70,18,9,4,2,0,1,-1
1527842115488395,34,-28,-4,3,1,-4,-3,0
1527842115488395,47,5,-3,2,4,7,-2,-28
1527842115509339,-5,-23,-14,-11,-5,-3,1,2
1527842115509339,-10,22,4,-5,-3,-2,-1,0
1527842115510337,35,-23,-2,1,-4,-3,0,33
1527842115510337,-9,-21,2,4,3,3,3,10
1527842115522304,59,40,3,-1,-4,-5,-2,-21
1527842115522304,20,-10,-8,-5,-3,-2,-4,-3
1527842115531280,-19,7,-1,-3,1,1,0,-13
1527842115531280,-53,-4,-1,1,0,2,4,-20
1527842115546240,-4,4,3,2,2,2,5,21
1527842115546240,27,-9,-5,-1,-2,-4,-5,20
1527842115548236,-21,32,11,3,0,-1,1,12
1527842115548236,-7,-14,-2,-3,-1,0,-5,0
1527842115569179,-19,1,1,2,0,-1,-5,-19
1527842115569179,-20,7,3,-1,-3,-4,-1,-13
1527842115571174,-79,-67,-26,-14,-3,-2,-1,-4
1527842115571174,11,11,0,0,-3,0,-2,14
1527842115583142,-22,-7,5,-1,0,0,-3,-6
1527842115583142,-33,-7,5,8,5,8,2,-7
1527842115592118,36,33,4,-1,-2,-2,-4,-14
1527842115592118,-45,-12,-6,0,-7,-9,-5,7
1527842115607078,-54,-33,-6,-4,3,1,-2,-22
1527842115607078,-4,-15,-9,-8,-5,-2,4,-36
1527842115608075,7,30,12,7,2,1,3,-1
1527842115608075,8,-21,-5,-5,-1,0,-1,-22
1527842115629019,-20,32,3,-1,-4,-3,-6,8
1527842115629019,11,9,2,-2,0,1,0,-10
1527842115631014,-30,-7,1,3,3,2,-2,-9
1527842115631014,39,32,5,-2,-6,-4,-1,8
1527842115642982,-10,-8,-6,-1,1,-1,-1,2
1527842115642982,51,4,-1,-3,-1,-4,5,3
1527842115651958,-5,5,1,-2,-1,3,1,14
1527842115651958,-23,11,4,3,1,0,-4,-10
1527842115666918,33,-4,-2,3,0,1,0,32
1527842115666918,-42,4,-8,-11,-7,-8,-8,-50
1527842115667916,27,18,-2,-3,-5,-4,-4,14
1527842115667916,-8,-9,-2,-9,0,0,3,4
1527842115688859,4,-5,-1,9,4,2,-2,-19
1527842115688859,-21,-12,9,2,0,3,0,-6
1527842115690854,-13,2,0,6,1,0,3,3
1527842115690854,8,-32,-9,-9,-3,-2,-1,14
1527842115702822,-6,16,-4,-5,-1,0,-1,1
1527842115702822,14,1,12,9,4,5,6,26
1527842115711798,25,9,-5,-6,-4,-6,-3,-2
1527842115711798,14,0,1,2,0,0,-1,-7
1527842115726758,4,9,3,-1,-2,1,5,5
1527842115726758,63,-1,-10,0,1,0,-2,25
1527842115728753,-46,-52,-7,-5,-1,-4,-5,-18
1527842115728753,12,25,-4,-4,-2,1,3,5
1527842115748699,25,8,0,0,-4,-6,-6,3
1527842115748699,-18,-35,-3,1,2,1,1,-7
1527842115750694,46,33,-3,-8,-7,-3,1,29
1527842115750694,-24,-6,-1,6,1,-3,-2,5
1527842115762662,28,-10,-7,-11,-4,-4,-5,-27
1527842115762662,-7,-4,1,3,0,0,0,24
1527842115771639,58,4,-2,0,1,-1,-1,-9
1527842115771639,-14,-17,5,5,3,2,3,-18
1527842115786598,-23,7,8,3,2,2,3,-6
1527842115786598,-17,9,-6,-7,-5,-6,-5,7
1527842115788593,-5,-25,1,5,0,2,-3,-18
1527842115788593,-25,27,0,-2,1,-3,-10,-6
1527842115809537,-19,-22,0,2,-2,-4,4,14
1527842115809537,47,27,-12,-13,-7,3,-11,-8
1527842115810534,-41,-8,-2,3,1,-1,3,-11
1527842115810534,2,-1,9,5,0,0,-4,-7
1527842115822502,-25,-3,-1,-5,0,1,0,-26
1527842115822502,-10,-5,3,11,3,2,2,2
1527842115831478,-5,23,3,-2,1,2,2,0
1527842115831478,-34,-7,-3,-2,-1,-1,-2,-26
1527842115846439,58,25,-4,-3,-1,-3,-4,-4
1527842115846439,-50,-18,0,-4,-2,-3,-4,-14
1527842115848433,7,4,2,4,2,3,1,6
1527842115848433,-35,-12,-3,2,2,3,-2,-26
1527842115869376,63,-21,-7,-3,-7,-2,3,52
1527842115869376,20,9,-3,-12,-7,-9,-6,15
1527842115870375,-46,3,-2,-1,1,2,-1,-29
1527842115870375,27,-6,3,-2,1,2,1,12
1527842115882342,6,8,7,7,1,-1,-5,6
1527842115882342,4,4,-2,3,1,1,-5,-26
1527842115891318,-5,-8,0,-2,-3,-5,0,27
1527842115891318,46,10,-4,-4,-6,-1,1,15
1527842115906278,-33,24,3,2,3,3,3,-5
1527842115906278,-12,-71,-11,-3,2,-1,5,1
1527842115908273,47,27,5,-1,1,3,-2,-20
1527842115908273,-72,-11,-9,1,-3,-2,0,36
1527842115929217,-8,-15,3,-4,-1,-3,-8,-30
1527842115929217,48,5,7,7,1,1,0,10
1527842115931211,-96,5,7,6,1,1,0,22
1527842115931211,40,-43,-19,-14,-4,-8,-2,-14
1527842115943179,-21,6,1,0,0,4,1,2
1527842115943179,86,33,-8,-10,-7,-7,-1,29
1527842115959137,-9,-20,5,1,1,1,-5,-5
1527842115959137,43,33,9,6,3,1,2,5
1527842115966118,-77,-26,-7,1,-2,-3,-5,-5
1527842115966118,-5,26,8,4,2,2,-1,-22
1527842115973100,18,-36,-13,-1,-3,-1,-2,-5
1527842115973100,24,20,-7,-7,-4,-4,-2,-8
1527842115989057,1,-1,4,3,2,0,2,-13
1527842115989057,-16,6,8,4,3,2,1,-11
1527842115991052,-28,16,1,0,-2,-2,0,-10
1527842115991052,69,-22,-7,-1,-2,1,2,17
1527842116003019,0,19,-2,-3,-1,-2,-1,0
1527842116003019,-65,-20,-3,-5,-2,-2,-1,-4
1527842116011996,7,5,0,7,-1,-5,-6,-14
1527842116011996,25,2,-2,-5,2,0,3,8
1527842116025958,-12,14,-1,-1,-4,-3,-9,-38
1527842116025958,-26,-16,-5,-6,1,1,2,12
1527842116032939,9,12,6,3,-2,-1,0,8
1527842116032939,-21,-5,0,1,2,2,-3,-5
1527842116048897,-24,-14,-7,-2,-2,-5,-6,4
1527842116048897,4,15,0,3,2,3,8,13
1527842116050892,42,-12,-6,-6,-1,-4,-1,4
1527842116050892,-27,22,4,-1,-1,-2,-1,14
1527842116062859,35,-43,-13,-7,-2,1,8,20
1527842116062859,8,2,11,7,-1,1,1,-12
1527842116071836,11,34,6,-2,1,1,-1,2
1527842116071836,-15,-39,-8,-2,1,1,3,16
1527842116085798,20,14,3,0,0,0,0,2
1527842116085798,-25,-8,-5,-3,0,-2,0,-7
1527842116092779,9,-2,-7,-4,-1,-2,3,0
1527842116092779,-32,41,24,15,4,-1,3,20
1527842116108737,35,-53,-15,-10,-2,5,1,-4
1527842116108737,5,1,-3,-3,-4,-3,-5,12
1527842116110732,-25,-22,-1,-2,2,0,2,0
1527842116110732,-78,-3,-5,0,-4,-3,-5,-27
1527842116131675,13,8,11,9,2,-1,1,3
1527842116131675,45,24,-2,-3,-4,-2,-1,10
1527842116133670,37,-53,-6,-1,-4,-1,0,15
1527842116133670,-6,9,-2,-7,1,1,-2,-26
1527842116145638,-6,18,8,5,-1,-1,-1,15
1527842116145638,-54,-15,-4,-12,-3,-2,0,-17
1527842116152619,59,28,4,13,0,-2,1,9
1527842116152619,5,-6,-2,-5,-1,-3,-6,-9
1527842116169574,-26,0,-1,0,1,0,2,-4
1527842116169574,41,2,0,5,2,5,-2,11
1527842116170572,-51,4,-8,-9,-4,-3,-5,-1
1527842116170572,-6,-28,3,4,-4,-2,3,30
1527842116191515,25,10,-6,-7,-2,-3,2,2
1527842116191515,-26,9,14,14,4,4,3,6
1527842116193511,16,-13,-13,-16,-6,-7,-6,-48
1527842116193511,89,16,-7,4,-2,3,3,0
1527842116205478,-33,-16,14,2,-1,-1,1,7
1527842116205478,-17,8,-1,6,2,1,6,4
1527842116212460,-23,-14,-6,-3,-1,2,-3,-31
1527842116212460,-17,2,-11,-12,-5,-5,0,-4
1527842116229414,-25,-15,9,8,3,0,-1,-33
1527842116229414,116,22,-1,-3,-5,-3,-3,4
1527842116230412,-42,8,-4,-12,-2,1,6,17
1527842116230412,8,7,7,13,0,-4,-7,-14
1527842116251356,-28,-14,-8,-9,2,3,0,-13
1527842116251356,-60,-2,3,14,-1,-7,-4,5
1527842116253350,0,-1,-3,-10,0,1,-3,-23
1527842116253350,13,-6,7,-1,-1,1,-2,-7
1527842116266316,-2,25,0,1,-4,-3,-5,5
1527842116266316,-45,37,1,-4,-1,0,0,-16
1527842116272300,-6,-55,-14,-2,-3,-1,1,1
1527842116272300,-31,3,2,-1,1,0,-4,-28
1527842116289254,27,8,2,2,0,-1,-3,5
1527842116289254,-24,-13,-10,-9,-3,-2,-3,-14
1527842116291249,1,9,9,3,1,2,1,19
1527842116291249,0,11,4,-2,2,1,1,-9
1527842116311195,-20,-32,-2,4,4,0,6,21
1527842116311195,20,23,-9,-11,-8,-7,-8,26
1527842116313191,2,5,4,4,0,-3,4,1
1527842116313191,-4,-13,-4,-3,0,1,-3,-4
1527842116326155,11,20,-3,-3,-4,0,2,3
1527842116326155,-11,-15,5,9,7,4,3,2
1527842116333137,10,-6,-7,-7,-6,-8,-6,10
1527842116333137,-42,13,1,-3,0,1,1,-13
1527842116349094,-8,2,-4,-1,-4,-4,-4,-16
1527842116349094,-7,-26,1,0,1,0,-1,-10
1527842116351089,-28,16,-1,0,-1,0,1,8
1527842116351089,-7,-19,-6,-2,-2,-3,-5,-19
1527842116372033,-23,3,0,-3,-1,0,-1,-7
1527842116372033,21,-14,-5,-4,-1,-1,2,-7
1527842116373030,32,22,0,3,1,1,0,6
1527842116373030,17,-18,4,0,-2,2,0,12
1527842116384998,6,23,1,-2,-1,-2,-2,-20
1527842116384998,8,10,-3,-2,-2,-3,-2,12
1527842116393974,-5,3,5,7,3,0,-2,-6
1527842116393974,-43,-23,-5,-2,-3,1,3,4
1527842116408934,14,5,-3,-8,1,0,-5,-15
1527842116408934,54,-29,-12,1,-3,-5,1,10
1527842116410929,-17,25,10,1,1,4,1,1
1527842116410929,14,3,2,3,1,0,0,14
1527842116431873,-13,6,-7,-8,-6,-5,-3,-1
1527842116431873,24,-18,-7,-7,-7,-5,-1,9
1527842116432871,-16,2,7,6,2,0,-1,-12
1527842116432871,-14,23,4,4,4,4,8,59
1527842116444838,89,-51,-13,-6,-4,-3,-1,44
1527842116444838,-28,27,1,-9,-5,-5,-8,-25
1527842116453814,8,14,11,9,3,4,3,12
1527842116453814,10,2,1,-4,-1,-2,-1,-16
1527842116468774,8,19,4,5,1,2,0,16
1527842116468774,-24,-14,2,1,1,1,0,-10
1527842116470769,-52,-19,3,5,4,2,0,0
1527842116470769,35,41,-14,-21,-16,-16,-18,-23
1527842116491713,-54,29,5,3,1,0,0,9
1527842116491713,71,-1,1,8,4,7,6,25
1527842116493708,-39,30,3,-2,0,0,0,11
1527842116493708,-5,-41,1,6,3,1,4,-2
1527842116505676,3,13,3,-5,-2,0,5,34
1527842116505676,-65,-14,3,3,1,4,-2,-13
1527842116514652,81,28,-4,-6,-8,-6,-6,16
1527842116514652,-42,26,13,10,8,6,2,-13
1527842116529612,39,-70,-24,-8,-5,-3,6,3
1527842116529612,-86,47,22,5,4,1,-9,-26
1527842116530609,94,-69,-24,-6,-5,-1,0,10
1527842116530609,-75,-13,-2,-4,0,1,2,4
1527842116551553,-4,16,1,1,-2,-4,-10,-10
1527842116551553,11,-10,2,0,0,0,-2,-18
1527842116553548,-71,-14,-4,-8,-7,-6,-4,-17
1527842116553548,8,-17,-5,-6,-3,-3,9,21
1527842116565516,0,4,6,10,6,2,-2,-21
1527842116565516,26,21,-3,-6,-2,-3,2,-1
1527842116574492,-75,-37,-2,-1,-2,-4,-6,0
1527842116574492,63,-8,-11,1,3,5,1,19
1527842116589452,-42,-24,-2,-4,-4,0,-5,-10
1527842116589452,10,-35,-12,-1,-1,-2,4,12
1527842116590449,8,31,15,4,4,1,0,-13
1527842116590449,70,24,-5,-3,-6,-7,-7,-10
1527842116611393,42,-5,0,5,3,9,8,3
1527842116611393,81,25,1,-7,-4,-5,-5,44
1527842116613388,7,-5,6,9,2,2,0,-17
1527842116613388,57,24,6,5,4,4,4,6
1527842116625356,0,-1,-7,-7,-5,-7,-4,6
1527842116625356,11,-84,-13,-4,0,2,7,22
1527842116634332,38,12,-8,-8,-6,-5,-3,0
1527842116634332,-12,25,14,6,0,0,-7,-9
1527842116649292,-32,-18,0,-2,0,1,1,3
1527842116649292,-25,21,1,1,0,-2,-6,-33
1527842116650289,28,-4,-1,2,2,1,3,17
1527842116650289,-29,-14,-2,0,-1,-3,-2,3
1527842116671233,-9,5,3,-1,1,0,2,3
1527842116671233,-24,1,-7,-8,-10,-7,-4,-12
1527842116673228,-8,12,-1,1,3,4,3,-1
1527842116673228,-31,-5,-1,-2,-3,-4,-3,-1
1527842116685196,48,23,1,3,1,2,-2,-9
1527842116685196,-2,10,10,6,5,3,3,8
1527842116694172,-83,29,6,1,0,0,0,-3
1527842116694172,21,-15,-11,-14,-10,-11,-10,-1
1527842116709132,-57,3,-9,-7,-1,-2,-5,-14
1527842116709132,8,10,2,4,0,-1,0,-8
1527842116711127,1,-14,-1,-2,3,3,7,10
1527842116711127,-16,44,21,13,6,5,-4,-51
1527842116732070,24,18,-6,-7,-7,-8,-2,14
1527842116732070,-37,-43,-13,-5,0,1,-1,-20
1527842116733068,-14,8,6,1,-1,-3,-7,-3
1527842116733068,-18,-61,-15,-4,0,0,0,-9
1527842116745036,-33,8,5,1,-2,-1,-4,0
1527842116745036,14,18,4,3,2,1,-1,2
1527842116754013,47,13,2,1,-1,-3,-1,-15
1527842116754013,-18,-38,-16,-13,-3,-5,4,-2
1527842116768972,38,29,11,16,4,5,8,7
1527842116768972,-55,-29,-6,-6,-2,-2,-3,31
1527842116770967,51,61,10,2,-1,-1,-3,0
1527842116770967,-58,-77,-33,-9,3,6,0,23
1527842116791911,-68,-28,-6,-12,-4,-9,-7,-45
1527842116791911,18,32,7,6,1,-1,1,-10
1527842116792908,-11,-32,-1,1,0,2,-3,-29
1527842116792908,27,12,7,4,1,-1,-2,6
1527842116804876,-53,-8,-6,-10,-5,-5,-8,-1
1527842116804876,14,-13,-7,-1,-4,-4,1,-15
1527842116813852,26,-16,-18,-15,-7,-9,-7,8
1527842116813852,74,27,5,-2,-5,-5,-5,4
1527842116828812,-9,-19,4,9,3,2,1,-29
1527842116828812,65,25,16,7,1,5,7,36
1527842116830807,-18,-28,-18,-3,-1,-2,-3,-4
1527842116830807,-25,11,8,0,-3,-1,-3,-25
1527842116851750,36,16,3,2,2,2,-3,-19
1527842116851750,-45,-33,-11,-5,-4,-4,2,4
1527842116852748,6,36,8,2,-1,-3,-1,10
1527842116852748,7,-28,7,12,8,11,6,21
1527842116865713,59,20,-9,-15,-4,-5,-5,3
1527842116865713,-84,-7,3,11,3,4,-3,-35
1527842116874690,-69,-1,20,8,4,4,1,-46
1527842116874690,75,21,-23,-20,-17,-10,12,59
1527842116887655,-43,-48,-21,-10,-3,-3,1,33
1527842116887655,-42,13,7,2,1,-3,-1,-26
1527842116896631,-57,-11,-9,-1,0,0,1,-10
1527842116896631,65,82,30,17,3,1,-1,12
1527842116911591,-38,-35,-18,-5,-1,2,0,-22
1527842116911591,42,33,-10,-12,-5,-3,-3,10
1527842116913585,-7,-49,1,5,3,2,2,27
1527842116913585,-50,-9,7,1,2,0,-6,-24
1527842116925553,55,13,2,4,-2,-1,-1,31
1527842116925553,-51,-2,1,-2,3,0,1,-77
1527842116934530,-47,-1,-3,0,0,0,0,1
1527842116934530,-42,-7,-14,-12,-8,-9,-12,-30
1527842116948492,50,26,15,7,1,7,3,32
1527842116948492,-28,-11,-2,-7,-1,-5,-11,-5
1527842116955473,-68,-8,9,17,8,4,8,-7
1527842116955473,-39,46,2,-2,-2,5,-3,-36
1527842116971431,-82,-84,-12,-9,-5,-9,-3,-14
1527842116971431,61,45,-3,-4,-4,2,-2,34
1527842116973426,40,21,-3,-3,-1,-2,-2,1
1527842116973426,-86,-63,-3,4,5,2,5,0
1527842116985393,-3,53,11,7,2,-3,-6,-54
1527842116985393,-18,-5,-5,-4,-1,-1,4,16
1527842116994369,89,5,-20,-14,-13,-8,-5,32
1527842116994369,-33,-67,3,4,1,-4,-1,-10
1527842117008332,4,16,3,2,5,12,8,19
1527842117008332,29,-29,-2,-1,-2,-5,-10,-11
1527842117015313,52,51,7,0,0,1,0,-4
1527842117015313,-39,-69,-18,-9,-2,3,5,11
1527842117031271,44,24,16,17,1,-3,5,25
1527842117031271,-34,31,8,4,2,3,-2,-10
1527842117033266,24,-30,-17,-8,-6,-5,-5,-4
1527842117033266,49,7,-2,-5,-3,-3,-4,10
1527842117054209,-57,-15,-2,-2,0,-3,0,-4
1527842117054209,16,-32,-7,4,2,7,2,15
1527842117056204,45,14,13,3,-3,-3,-4,6
1527842117056204,-54,-9,-11,-6,1,-3,-8,-18
1527842117068172,-29,9,1,1,2,2,2,-4
1527842117068172,-5,-1,0,1,-3,-4,0,0
1527842117075153,-20,-2,-2,-9,-2,4,3,5
1527842117075153,27,26,5,4,-2,-9,-5,-4
1527842117092108,114,99,25,12,6,5,0,4
1527842117092108,-36,-111,-29,-8,-7,-4,0,1
1527842117093106,-28,19,-5,-5,0,1,-1,2
1527842117093106,9,42,10,0,0,4,7,12
1527842117114049,-21,-21,-9,-3,-2,-6,-7,-21
1527842117114049,-38,21,17,9,6,4,3,-9
1527842117116044,99,-51,-25,-10,-6,-6,2,-1
1527842117116044,-38,5,-1,-3,0,2,-4,0
1527842117128012,-32,-11,-4,-6,-1,-2,-3,-27
1527842117128012,28,37,17,5,1,0,-2,-6
1527842117134993,-12,-37,-6,3,2,0,1,25
1527842117134993,56,24,-1,1,-2,-2,-4,-10
1527842117151948,-39,19,-1,-6,-8,-4,-1,27
1527842117151948,13,-11,-11,-8,-2,-2,-4,-14
1527842117152945,-40,4,10,4,2,1,-1,1
1527842117152945,36,3,7,6,1,4,3,1
1527842117173889,-47,63,14,5,2,-3,1,10
1527842117173889,-49,-29,-22,-10,-1,-2,2,11
1527842117175884,-20,-11,-6,-7,0,1,2,4
1527842117175884,4,9,-2,1,0,1,1,-4
1527842117188849,5,-10,9,5,1,3,-3,-31
1527842117188849,32,15,4,1,0,-3,3,31
1527842117194833,-15,-11,-2,1,1,-1,1,-3
1527842117194833,-25,10,11,5,1,4,0,-6
1527842117211788,60,-23,-3,3,4,3,9,11
1527842117211788,-49,3,-16,-17,-11,-11,-14,-35
1527842117212786,-27,-2,10,3,1,1,-1,9
1527842117212786,11,-7,-8,-1,-2,-1,2,-4
1527842117233729,-12,-17,-7,-10,-2,1,0,21
1527842117233729,-10,14,10,9,-1,-3,-2,-10
1527842117235724,53,18,8,3,0,3,3,8
1527842117235724,-16,3,1,-2,-1,-2,-8,-29
1527842117248690,-21,-32,1,6,1,2,2,-1
1527842117248690,1,6,-12,-9,-3,1,6,10
1527842117255671,-23,23,-1,-2,-2,-5,-10,-19
1527842117255671,-3,-81,-26,-13,-7,-8,0,-18
1527842117271628,23,9,-2,-3,0,-2,-2,-3
1527842117271628,35,-1,17,14,4,5,3,5
1527842117273623,-56,-39,-4,3,5,6,8,15
1527842117273623,-13,38,-1,-9,-7,-7,-3,35
1527842117294567,-61,-43,-4,3,-2,-3,-1,35
1527842117294567,100,-31,-1,-1,-2,-1,0,-6
1527842117295564,14,43,-10,-10,-8,-6,-2,9
1527842117295564,-57,12,13,9,4,5,6,-4
1527842117307532,-15,17,-8,-11,-6,-8,-16,-38
1527842117307532,-14,15,0,2,3,5,4,36
1527842117316508,47,-15,14,15,3,2,5,5
1527842117316508,-78,-14,-2,-2,3,3,-1,-19
1527842117331468,36,36,-11,-14,-11,-10,-2,19
1527842117331468,-38,18,0,-8,-1,-1,-4,-34
1527842117333463,-7,-34,-8,-9,-3,-2,-6,-25
1527842117333463,8,-14,5,9,3,2,3,15
1527842117354407,14,-16,3,3,0,1,0,-7
1527842117354407,-49,17,12,9,5,4,2,12
1527842117355404,-26,-58,-27,-9,-3,-1,-2,1
1527842117355404,88,49,-17,-15,-14,-14,-11,29
1527842117367372,4,5,6,-3,-1,0,5,24
1527842117367372,-73,-19,-10,-6,-3,-6,-12,-42
1527842117376348,-57,29,8,4,1,0,2,-32
1527842117376348,22,-18,5,6,5,4,1,1
1527842117391308,21,24,1,4,-2,0,-5,-1
1527842117391308,23,-35,-11,-12,-2,-5,-6,-7
1527842117393303,-6,15,-6,-4,-7,-4,-9,-30
1527842117393303,17,1,-1,-2,-1,0,2,8
1527842117414247,6,0,-6,-7,-4,-3,-3,-7
1527842117414247,-6,14,4,1,-3,-3,0,12
1527842117415245,12,29,13,8,2,2,1,8
1527842117415245,-23,31,4,1,2,1,-3,-16
1527842117428209,-112,-27,0,6,5,5,6,13
1527842117428209,93,-23,-16,-10,-9,-9,-10,-5
1527842117437186,39,46,8,-6,-3,-4,-4,14
1527842117437186,-53,-3,8,8,4,2,1,-22
1527842117452145,22,-66,-15,-5,4,3,3,-33
1527842117452145,9,45,24,25,13,15,27,49
1527842117453144,-114,-55,-19,-15,-6,-5,-12,-78
1527842117453144,-43,-85,-28,-23,-14,-11,-12,2
1527842117474087,19,6,10,8,6,6,3,-9
1527842117474087,24,-48,-11,2,1,1,4,23
1527842117476082,-4,25,10,5,2,-1,1,-5
1527842117476082,38,41,9,5,0,1,2,13
1527842117488049,-7,-15,0,1,-1,-2,-4,-7
1527842117488049,15,38,10,0,-6,-3,1,-2
1527842117497026,-41,29,5,5,7,5,9,25
1527842117497026,26,-93,-30,-14,-9,-7,-3,6
1527842117511985,-3,94,11,-6,0,-5,-4,13
1527842117511985,60,46,10,16,3,4,6,8
1527842117512983,55,20,4,-1,-4,-5,-6,-20
1527842117512983,-31,4,-6,-2,1,-2,-11,-37
1527842117533927,-45,-26,0,0,3,4,2,-48
1527842117533927,12,-24,8,4,1,0,-2,-2
1527842117535922,52,13,6,3,3,4,14,24
1527842117535922,-49,25,0,5,1,2,-2,-10
1527842117547889,-20,-28,-9,-7,-7,-7,-4,9
1527842117547889,-95,15,-5,-9,-2,-3,-15,-51
1527842117556866,-86,-27,-2,1,0,-1,-5,9
1527842117556866,-6,-4,1,-1,2,1,4,0
1527842117571826,11,-31,-15,3,-1,-1,1,16
1527842117571826,74,-48,-11,-6,-6,3,11,57
1527842117572823,-36,3,-7,-9,-4,-7,-10,22
1527842117572823,10,18,3,-3,3,2,4,9
1527842117593767,11,11,7,12,-1,-4,-3,-4
1527842117593767,-10,8,-2,-7,0,-3,-5,-18
1527842117595762,112,7,1,3,0,-1,3,8
1527842117595762,7,23,-3,-5,-4,-3,-2,17
1527842117607730,11,15,2,1,0,1,5,8
1527842117607730,-40,-6,0,0,0,0,-4,-14
1527842117616706,-28,-18,3,3,3,4,11,34
1527842117616706,21,20,4,7,2,-3,-5,-7
1527842117631665,14,-6,-1,-2,-1,-1,-1,-28
1527842117631665,38,27,-5,-6,-8,-9,-2,-6
1527842117633660,-21,-34,-11,-9,1,11,-2,0
1527842117633660,27,20,4,4,-2,-4,3,4
1527842117653607,-22,-2,6,-5,1,3,1,-5
1527842117653607,-101,-25,6,13,11,9,2,-16
1527842117655602,82,20,-8,-14,-23,-28,-25,-16
1527842117655602,-32,14,6,-4,4,6,-2,-25
1527842117667570,-38,11,3,4,3,3,10,31
1527842117667570,-64,-1,-2,-3,2,4,-3,-15
1527842117676546,25,3,-2,5,3,0,1,-14
1527842117676546,-46,-1,12,11,6,6,4,-41
1527842117690508,88,-16,-27,-15,-11,-10,1,74
1527842117690508,-38,52,1,-10,-6,-5,-2,4
1527842117699485,-38,0,3,4,3,0,-2,-16
1527842117699485,21,-6,-4,-2,-4,-3,0,8
1527842117714444,2,18,12,10,7,7,7,-19
1527842117714444,37,4,4,5,0,-1,-2,29
1527842117715442,29,-17,-5,1,1,8,6,29
1527842117715442,3,-30,-2,-4,-3,-2,2,39
1527842117727409,28,14,0,1,-1,-3,-7,0
1527842117727409,23,-35,-15,-13,-5,-3,5,33
1527842117736385,-69,8,7,7,2,0,-4,-41
1527842117736385,81,27,6,2,5,1,0,15
1527842117751345,-1,-15,-13,-9,-5,-2,-6,-23
1527842117751345,28,-7,1,-7,1,1,-1,-11
1527842117753341,-27,1,23,29,8,7,7,5
1527842117753341,-13,-7,-1,1,0,5,10,6
1527842117774284,8,-5,-5,-4,-6,-8,-11,-2
1527842117774284,-63,9,-5,-7,-3,-4,-9,-25
1527842117776279,41,12,-2,-6,-1,-2,4,17
1527842117776279,-28,-60,-17,-1,-3,-4,-1,9
1527842117788247,-17,13,6,-4,-1,-1,-2,4
1527842117788247,8,25,2,5,2,4,7,23
1527842117797223,-98,21,20,10,8,1,-7,1
1527842117797223,47,-82,-55,-36,-21,-17,-11,-18
1527842117811186,-38,21,10,4,5,2,1,4
1527842117811186,4,-9,8,1,-2,-1,-3,0
1527842117813181,-30,-7,-5,6,2,0,-2,-14
1527842117813181,-9,47,20,5,7,6,3,-5
1527842117834124,37,37,0,3,0,-1,2,0
1527842117834124,72,-73,-32,-7,-5,-3,-10,20
1527842117836119,-59,-60,-24,-22,-7,-4,1,-10
1527842117836119,-16,35,18,11,3,1,0,8
1527842117848087,-35,-16,-7,-1,-2,1,-8,-70
1527842117848087,6,43,24,16,7,5,14,24
1527842117857063,25,13,2,1,2,5,10,-10
1527842117857063,27,-47,-26,-19,-12,-10,-9,18
1527842117872023,-68,-41,6,7,5,4,4,-1
1527842117872023,-19,1,9,7,3,0,-5,-46
1527842117873021,120,47,-18,-21,-17,-17,-7,20
1527842117873021,-79,18,3,5,8,9,7,5
1527842117893964,22,34,14,-2,-2,-3,-2,15
1527842117893964,-76,-33,-2,11,6,5,-1,-29
1527842117895960,36,-44,-8,-15,-5,-2,2,19
1527842117895960,24,57,23,19,0,-3,-2,19
1527842117907927,-76,0,14,7,6,4,-9,-27
1527842117907927,11,-41,-22,-4,-2,-1,3,9
1527842117916903,-67,7,-1,-9,-2,-6,-9,-33
1527842117916903,-21,5,-1,0,-2,1,3,-19
1527842117930866,4,-28,-16,-5,-5,-4,-5,-8
1527842117930866,35,49,12,0,-7,-9,-5,-1
1527842117937847,-99,-16,1,6,5,5,-10,-27
1527842117937847,55,1,-1,5,6,8,6,-45
1527842117953805,125,70,-1,-11,-16,-13,-1,81
1527842117953805,-80,65,6,-5,-1,-3,3,-19
1527842117955799,47,-45,-15,-4,0,1,4,32
1527842117955799,-15,33,20,12,7,7,-1,-11
1527842117967767,3,-12,7,8,8,12,12,-4
1527842117967767,63,-20,-16,-11,-14,-12,-2,20
1527842117976744,-33,27,15,6,8,6,3,9
1527842117976744,19,24,14,11,5,6,8,36
1527842117990706,62,-84,-23,-14,-12,-9,-4,2
1527842117990706,-37,32,-16,-21,-9,-9,-16,8
1527842117997687,4,4,1,1,0,-1,3,-10
1527842117997687,-41,-17,-2,-2,-2,-5,-7,-9
1527842118014642,-36,0,-4,-3,0,-1,-1,-11
1527842118014642,5,15,14,9,6,6,7,0
1527842118015640,32,-15,-11,-4,-6,-6,-5,-4
1527842118015640,-21,4,6,2,2,0,-5,4
1527842118036583,49,27,2,-4,-2,-4,2,7
1527842118036583,17,13,12,9,5,4,3,-5
1527842118038578,-53,-3,-8,-1,1,0,2,1
1527842118038578,76,-38,-6,-2,-3,-2,1,7
1527842118050546,-45,41,-1,7,6,5,2,3
1527842118050546,-67,-11,3,5,4,6,0,-14
1527842118057527,5,46,2,-12,-13,-12,-13,-45
1527842118057527,16,9,-11,-13,-9,-9,-6,-40
1527842118074482,79,-17,1,7,3,3,5,47
1527842118074482,-42,-9,-13,-9,-4,-2,3,26
1527842118075480,20,91,30,17,7,6,-1,4
1527842118075480,-101,-51,-14,-3,5,6,0,5
1527842118096423,-44,27,1,-6,-4,-5,-6,-11
1527842118096423,61,-31,0,2,1,1,1,-29
1527842118098418,-32,3,-3,-3,-4,-5,-1,56
1527842118098418,-16,13,-14,-18,-12,-11,-4,39
1527842118111384,-41,-81,-18,-4,1,1,-6,-18
1527842118111384,21,20,8,7,3,1,0,7
1527842118117367,-6,-31,-8,-2,-2,0,2,-35
1527842118117367,16,13,-2,-4,-2,-3,-3,-2
1527842118134322,-63,11,6,3,0,-1,-3,-32
1527842118134322,31,7,-13,-9,-5,-8,-5,18
1527842118135319,31,-27,-5,2,3,5,6,37
1527842118135319,62,30,6,4,-4,-2,5,23
1527842118156263,20,48,21,8,6,5,5,27
1527842118156263,-80,-116,-40,-14,-4,-6,-12,-49
1527842118158258,55,28,-4,-3,-1,-1,-1,9
1527842118158258,-39,26,15,5,2,0,-3,-15
1527842118171223,59,33,4,2,-1,-2,5,8
1527842118171223,-30,-17,4,7,8,8,6,40
1527842118178205,-63,-23,-3,-5,-2,-5,-2,-40
1527842118178205,28,8,5,0,-3,-4,-12,-8
1527842118194162,-36,19,-5,-3,-1,-2,2,3
1527842118194162,55,-12,5,-2,-6,-5,-1,-9
1527842118196157,13,-24,-9,-1,1,1,1,22
1527842118196157,10,44,14,6,4,3,5,-9
1527842118217101,-78,-49,-9,2,4,6,4,-13
1527842118217101,66,29,6,-5,-5,-7,-1,13
1527842118218098,30,16,-2,-5,-4,-4,-10,-6
1527842118218098,-38,-2,5,8,7,6,8,9
1527842118231063,-17,-82,-26,-21,-13,-10,-9,-40
1527842118231063,-78,-4,2,3,4,2,2,-9
1527842118238045,27,6,9,10,4,1,-2,-17
1527842118238045,20,-8,-1,-3,-3,-1,-5,-16
1527842118254002,-39,4,-7,-4,-2,-4,-5,-15
1527842118254002,-30,18,9,-1,-1,1,5,8
1527842118255998,-36,-37,-10,-4,-3,-3,-3,-1
1527842118255998,9,14,-1,4,1,-1,2,9
1527842118276941,-9,-14,6,0,2,0,4,5
1527842118276941,10,23,5,8,-1,-1,-5,10
1527842118277938,45,-3,-4,-4,2,4,6,18
1527842118277938,-59,-41,-12,-5,0,0,0,-8
1527842118289906,22,26,3,-4,-4,-5,-8,-28
1527842118289906,-21,-5,-4,-5,-1,1,5,-47
1527842118298882,27,50,9,4,1,1,6,28
1527842118298882,29,-69,-12,-5,-2,-2,-4,1
1527842118313842,18,26,8,1,2,0,0,10
1527842118313842,59,49,2,1,-2,-3,-4,-2
1527842118315837,-46,-35,-15,-9,-5,-2,-1,-4
1527842118315837,-66,7,0,-3,-1,-2,-3,-18
1527842118336781,13,-7,4,7,4,5,3,24
1527842118336781,-46,-11,0,0,0,2,0,14
1527842118337778,-5,-6,3,5,2,2,-2,-24
1527842118337778,16,-4,-9,-8,-5,-6,-2,16
1527842118350743,-42,-2,7,6,3,4,5,-14
1527842118350743,51,-6,-16,-13,-13,-8,-7,8
1527842118359720,-5,-12,3,2,2,-4,-3,-2
1527842118359720,-14,16,2,2,1,5,0,-2
1527842118373682,14,-4,-5,-1,-2,-6,-1,11
1527842118373682,1,5,7,3,5,3,2,2
1527842118375677,71,22,-3,-7,-9,-7,-6,-2
1527842118375677,28,-1,-4,-3,2,5,1,-1
1527842118396621,-15,1,4,2,-3,-1,-7,-12
1527842118396621,20,-3,-6,-5,-3,-1,0,2
1527842118398616,36,3,6,-1,1,-4,-3,4
1527842118398616,-57,12,0,4,-1,-4,0,13
1527842118410583,62,4,3,2,0,1,2,6
1527842118410583,47,29,20,13,5,2,-1,-13
1527842118419559,34,9,-1,-3,-3,1,11,50
1527842118419559,-3,-16,-9,-7,-2,-4,-2,1
1527842118434519,-18,-11,-7,-3,-3,-4,2,2
1527842118434519,8,1,4,3,3,2,2,10
1527842118435517,-30,-2,5,10,3,5,2,-15
1527842118435517,6,6,-1,-5,-2,-3,-3,-12
1527842118456461,-24,-18,-4,1,1,0,-1,0
1527842118456461,-46,-2,-7,-5,-4,-3,-3,4
1527842118458456,-32,-10,5,-6,1,4,0,-23
1527842118458456,51,-55,-11,4,-7,-5,7,48
1527842118470424,-18,17,1,-5,0,-1,-3,-6
1527842118470424,-29,-2,-1,2,0,1,-3,-9
1527842118479400,78,-1,-20,-18,-6,-4,3,10
1527842118479400,-39,14,4,5,-4,-6,-17,-54
1527842118494360,-12,-14,1,-1,0,0,0,5
1527842118494360,-3,-5,-9,-8,-3,-1,0,-10
1527842118495357,-54,2,2,8,2,2,-3,-10
1527842118495357,-10,-9,10,5,4,3,0,-16
1527842118516301,-15,12,6,11,5,9,22,37
1527842118516301,-5,-5,-17,-20,-12,-13,-13,24
1527842118518296,-113,15,8,3,3,1,-3,-27
1527842118518296,48,-14,-6,-8,-5,-3,0,18
1527842118530263,-7,21,1,0,2,0,-1,-11
1527842118530263,-3,-16,-11,-7,0,7,0,-53
1527842118539240,-30,4,6,10,1,2,3,62
1527842118539240,65,90,17,-4,-6,-8,-7,-15
1527842118554199,-67,-52,-9,-9,-3,-4,-9,-28
1527842118554199,12,9,4,8,2,2,6,10
1527842118556195,4,-17,-13,-7,-6,-10,-14,-27
1527842118556195,-46,19,2,-4,5,5,3,-16
1527842118577138,26,-4,-6,6,-5,-4,-6,14
1527842118577138,12,-13,-1,-8,-1,2,6,9
1527842118578136,39,-4,17,17,5,6,5,24
1527842118578136,-15,-1,-4,-2,2,2,-1,13
1527842118590103,0,-20,-18,-13,-5,-6,-8,-67
1527842118590103,-31,-10,8,7,6,4,8,18
1527842118599080,52,-15,5,4,-1,0,4,5
1527842118599080,-19,10,-6,-6,-3,-2,-6,-9
1527842118614040,86,25,-3,-5,-5,-4,3,60
1527842118614040,-80,11,-1,-1,-2,-6,-12,-36
1527842118616034,-32,-15,-10,-5,1,3,-2,-19
1527842118616034,-7,-24,9,14,0,1,2,8
1527842118636978,-8,16,4,2,3,2,3,6
1527842118636978,49,5,6,2,0,-4,-4,-13
1527842118637976,-59,30,8,5,4,1,-4,-18
1527842118637976,15,-81,-38,-28,-14,-12,-12,-65
1527842118649943,-51,11,-3,-7,-7,-7,-5,23
1527842118649943,-25,-4,3,3,0,-4,-3,0
1527842118658920,9,-38,-10,-9,-1,-2,-4,-23
1527842118658920,-14,27,17,15,5,7,6,13
1527842118673879,-16,1,4,3,2,1,-6,-26
1527842118673879,20,-22,-10,-5,-4,0,1,14
1527842118675874,2,4,-4,-4,0,0,1,-29
1527842118675874,67,41,14,5,0,-1,1,28
1527842118696818,-32,-47,-16,-8,-1,-2,5,19
1527842118696818,58,45,9,6,-3,-5,1,23
1527842118697816,-10,-29,-8,-4,-4,-3,-7,-12
1527842118697816,1,-10,-3,-6,-1,0,-5,-13
1527842118709783,-2,42,8,3,1,2,0,5
1527842118709783,-31,-51,-6,3,-1,1,-6,-5
1527842118719757,-58,-5,-3,-9,-1,-1,-1,-8
1527842118719757,13,-18,0,5,5,5,8,-14
1527842118733719,-21,28,6,3,-3,0,5,69
1527842118733719,-84,-80,-34,-25,-10,-12,-14,-23
1527842118735714,-40,19,8,0,0,0,-3,2
1527842118735714,-71,11,4,3,4,3,5,-7
1527842118756658,-3,29,11,12,7,5,-2,-22
1527842118756658,112,-55,-16,-9,-10,-3,3,-22
1527842118758653,-15,67,1,-4,0,-2,-1,2
1527842118758653,56,32,17,8,6,3,0,79
1527842118770621,127,31,-6,2,-6,-6,-4,-2
1527842118770621,-60,5,-1,-5,8,6,7,14
1527842118779597,30,10,14,11,1,3,4,7
1527842118779597,-1,-43,-3,6,2,1,0,-19
1527842118794557,-29,-20,-33,-24,-13,-9,-6,-26
1527842118794557,-72,50,24,19,9,7,6,-2
1527842118795555,103,-21,-20,-12,-11,-9,2,23
1527842118795555,-77,25,7,0,6,4,3,-14
1527842118816498,-15,-49,-5,-5,-3,-3,-12,-21
1527842118816498,30,15,1,7,1,2,3,-15
1527842118818493,-85,-36,2,6,4,6,1,-72
1527842118818493,-55,13,-26,-25,-18,-17,-23,-54
1527842118830461,-72,-93,-13,-8,0,0,4,-5
1527842118830461,-45,50,15,3,0,-2,-9,-21
1527842118839437,-44,4,-5,-3,-2,-3,-4,-12
1527842118839437,-6,42,-5,-10,-9,-7,0,-18
1527842118853400,-88,6,22,6,7,7,12,8
1527842118853400,-35,13,-6,-3,2,2,-4,-21
1527842118860381,-65,49,27,20,8,7,5,-6
1527842118860381,-18,-114,-34,-16,-9,-6,7,48
1527842118876338,60,84,12,-11,-6,-8,-7,-1
1527842118876338,-7,12,32,22,9,4,3,28
1527842118878333,-20,-3,-14,-6,-1,0,1,-1
1527842118878333,6,7,8,4,2,3,11,45
1527842118890301,53,10,-1,-2,0,0,0,8
1527842118890301,63,9,7,2,-2,-1,3,49
1527842118899277,11,13,-14,2,1,-1,-8,-2
1527842118899277,-26,-74,25,7,6,7,6,-14
1527842118913240,-39,18,-11,-10,-8,-5,-6,-18
1527842118913240,37,32,-10,-12,-6,-6,4,59
1527842118928200,-8,-45,-10,-1,4,4,-2,-14
1527842118928200,28,15,34,25,12,15,15,22
1527842118937176,-23,-18,7,-1,-9,-9,2,48
1527842118937176,100,18,2,6,2,2,0,-6
1527842118938174,50,-40,-15,-13,-10,-8,0,-18
1527842118938174,-82,-7,-34,-21,-8,-11,-17,7
1527842118959117,58,8,7,13,8,9,1,-88
1527842118959117,9,3,-2,-7,-6,-4,1,10
1527842118961112,-45,-32,1,-1,-3,-1,4,28
1527842118961112,16,76,4,7,2,1,0,-8
1527842118973079,-93,-7,-2,2,3,0,-1,38
1527842118973079,-51,22,8,-1,-2,-1,-4,23
1527842118980062,-26,-33,-12,-7,0,-1,11,-17
1527842118980062,57,44,1,0,0,0,-19,-14
1527842118997015,-8,-98,-23,-11,-6,-5,-6,-12
1527842118997015,-21,-2,-1,5,2,6,6,-28
1527842118998013,-34,46,24,10,1,1,2,44
1527842118998013,35,50,-15,-15,-14,-16,-13,32
1527842119018957,22,4,5,9,6,5,10,-10
1527842119018957,-21,-27,-14,-10,-6,-7,-6,6
1527842119020952,4,31,6,5,3,2,0,-23
1527842119020952,4,-9,7,3,0,-4,-2,-6
1527842119033917,-44,-65,-24,-1,1,6,-3,13
1527842119033917,-20,18,1,-7,-6,-7,-4,-14
1527842119039901,122,35,2,-5,-7,-5,-5,50
1527842119039901,-62,-26,-5,-2,1,0,3,-3
1527842119056856,16,13,8,5,3,1,-9,-45
1527842119056856,-35,-23,3,6,5,6,1,-4
