timestamp,emg1,emg2,emg3,emg4,emg5,emg6,emg7,emg8
1520336671296211,-7,-5,-7,-8,-20,-15,-15,-7
1520336671296211,-31,-4,0,-3,12,4,12,2
1520336671297214,15,-2,-3,-9,-2,-7,3,5
1520336671297214,2,21,12,3,-9,3,6,14
1520336671298216,16,-12,-7,-4,2,7,12,9
1520336671298216,-7,1,-4,-7,-16,-13,-13,1
1520336671301224,2,-2,1,-2,-5,0,-4,-25
1520336671301224,-48,-9,-9,-8,3,-5,4,27
1520336671308243,103,19,7,4,0,5,9,19
1520336671308243,-40,-4,-1,-6,-12,12,-8,2
1520336671317267,20,9,9,5,11,-5,-14,-10
1520336671317267,-43,-13,-7,-10,-4,-42,6,-10
1520336671324286,-35,-21,-5,-3,-20,23,5,-37
1520336671324286,24,-1,-2,-7,24,12,-6,0
1520336671338323,11,9,3,26,2,0,10,38
1520336671338323,20,-1,-5,-12,26,27,0,8
1520336671347347,-23,2,6,7,-7,-35,26,-1
1520336671347347,-41,3,4,10,25,0,-42,-33
1520336671362387,40,-1,1,8,6,-7,-4,-52
1520336671362387,19,1,5,7,2,-6,-5,18
1520336671369406,-11,10,-1,-4,8,12,0,-36
1520336671369406,35,-6,-11,-9,-23,-3,7,24
1520336671382440,68,11,-4,-8,2,-11,-2,15
1520336671382440,-1,-12,-5,-1,-13,16,-4,-20
1520336671425555,19,-5,-7,-4,-3,2,15,75
1520336671425555,74,14,7,2,1,-3,-4,28
1520336671428563,-21,-14,-5,-3,-6,-9,4,-17
1520336671428563,-30,2,5,-1,-4,-15,-17,-36
1520336671429566,-55,-8,-3,-4,-8,-4,-5,-69
1520336671429566,17,6,-1,-8,-5,-29,-10,58
1520336671430568,11,-1,-2,10,16,-7,6,12
1520336671430568,0,1,5,8,21,39,16,-20
1520336671434579,57,8,-4,-6,-15,2,-7,49
1520336671434579,-116,-14,-2,3,-4,2,7,-61
1520336671443603,83,11,5,-4,-8,-9,5,4
1520336671443603,-1,-15,-17,-8,-15,-6,-14,-5
1520336671449619,-1,-1,6,6,13,6,-3,-17
1520336671449619,-38,-15,-7,-7,-5,2,-11,-51
1520336671466664,34,7,4,-1,2,12,10,44
1520336671466664,14,-4,-8,-7,-5,-7,1,-7
1520336671472680,-11,-3,-1,0,0,-6,-5,-57
1520336671472680,-1,-7,-5,1,5,23,7,7
1520336671495742,-70,-7,-3,-1,-7,-14,-12,23
1520336671495742,-49,-6,-3,-5,-4,6,4,-12
1520336671496744,-3,5,-5,-3,-12,-34,-7,32
1520336671496744,-13,15,16,13,23,23,11,-67
1520336671510782,-60,-44,-29,-16,-21,-1,-14,-34
1520336671510782,-10,-1,3,2,26,18,-3,9
1520336671511784,55,13,-6,3,1,-1,6,17
1520336671511784,-1,-1,1,0,-4,-8,-8,-17
1520336671532840,13,12,14,11,14,2,-4,-6
1520336671532840,43,0,3,5,-10,-12,19,61
1520336671533843,-61,-9,-1,-6,0,-3,-9,-35
1520336671533843,11,20,-11,-13,-12,-15,-9,10
1520336671555902,-101,-29,-4,0,3,13,8,3
1520336671555902,43,15,14,5,4,0,0,-56
1520336671556905,-63,-11,-23,-16,-8,-12,-8,14
1520336671556905,72,3,14,10,1,7,5,-42
1520336671569939,127,15,-11,-12,-13,-6,-10,81
1520336671569939,-77,-13,10,13,8,-3,13,-52
1520336671577960,-6,-10,-16,-12,-4,9,-7,16
1520336671577960,-17,-5,-7,-11,-14,-23,-12,12
1520336671593000,-40,-7,3,4,-7,26,-2,-50
1520336671593000,63,21,7,-3,5,-21,-17,34
1520336671594003,-19,-7,7,6,9,8,-4,-11
1520336671594003,95,11,11,9,7,8,16,48
1520336671616062,-10,-25,-14,-4,-2,-7,-7,-30
1520336671616062,-38,12,-4,-5,-13,-4,3,32
1520336671616062,-26,21,31,18,11,13,13,-71
1520336671616062,87,-12,-1,0,6,4,12,43
1520336671630099,-21,-3,-10,-1,-1,-8,-12,-9
1520336671630099,47,-7,-3,2,-3,1,3,-46
1520336671637118,-78,-12,-9,-6,-1,-9,-2,70
1520336671637118,32,40,9,4,-2,13,6,-30
1520336671653161,-72,20,-2,-15,-3,-4,1,20
1520336671653161,-35,-42,-21,-9,-4,2,-6,-17
1520336671654163,12,1,8,4,5,6,0,-1
1520336671654163,-73,-13,3,4,3,26,3,13
1520336671675219,85,64,13,6,2,-23,18,19
1520336671675219,-83,-22,-8,-6,-4,-28,-21,6
1520336671676222,-14,-12,11,14,4,39,19,-23
1520336671676222,-34,-7,-22,-15,-7,-24,-18,-15
1520336671690259,74,2,12,4,14,37,9,-41
1520336671690259,97,46,25,19,1,-19,-7,33
1520336671697278,-10,-43,-12,-16,-19,-24,-7,-52
1520336671697278,-103,-9,6,4,12,1,6,-9
1520336671713320,21,-6,6,17,0,-8,-3,29
1520336671713320,74,31,13,4,4,7,4,9
1520336671714323,69,8,-1,4,-1,7,8,84
1520336671714323,-26,-25,-12,-7,-3,4,3,42
1520336671735379,-16,-7,-9,-12,-2,-4,15,14
1520336671735379,-30,9,-7,-9,-9,0,-6,4
1520336671736382,81,18,12,5,8,4,-6,-29
1520336671736382,-46,-7,2,1,-4,-23,-6,2
1520336671750419,67,8,4,-2,-14,12,16,12
1520336671750419,-1,-12,-4,1,1,19,-4,24
1520336671757438,38,-1,3,8,32,-14,-1,-47
1520336671757438,49,18,-3,0,-8,-22,-3,11
1520336671773480,-52,-2,-5,-2,4,3,-5,62
1520336671773480,64,-2,-7,-5,-10,-17,-17,17
1520336671774483,-55,6,-3,-8,-27,-12,6,-39
1520336671774483,33,-49,-32,-13,1,-10,-17,54
1520336671795539,-67,-12,9,7,0,-10,0,-81
1520336671795539,4,6,-6,-7,-7,-13,4,13
1520336671796542,123,12,8,6,5,11,4,47
1520336671796542,-75,-19,-13,-7,-16,-7,-17,-38
1520336671810579,-45,0,13,5,7,16,14,-17
1520336671810579,46,11,-13,-9,-1,-6,-15,-45
1520336671817598,-102,-54,-23,-9,-8,-6,-14,-61
1520336671817598,-3,12,9,2,2,25,5,-59
1520336671833640,-67,-2,25,19,20,8,0,-111
1520336671833640,-83,-74,-61,-33,-25,-19,-34,-57
1520336671833640,-20,38,2,-8,-9,5,-20,6
1520336671833640,-11,-1,6,0,0,-5,14,6
1520336671855699,-94,-22,-10,-1,1,-5,-12,-19
1520336671855699,-38,-4,18,15,18,48,48,33
1520336671856702,21,14,4,-5,-11,-42,-20,-21
1520336671856702,-34,17,-14,-18,-9,16,-2,-39
1520336671869736,88,26,1,3,-6,-47,-21,79
1520336671869736,-41,-6,17,17,25,26,24,-54
1520336671877758,66,39,-19,-13,-6,-8,-1,51
1520336671877758,1,5,18,6,1,-5,3,-27
1520336671892798,-36,-5,-5,-5,-2,19,-5,-72
1520336671892798,12,27,6,-3,-14,-18,5,57
1520336671893801,37,-6,16,17,19,24,5,-9
1520336671893801,59,-3,-14,-9,-18,-15,-6,2
1520336671915859,13,-2,-2,-14,-17,3,7,-12
1520336671915859,15,0,-1,7,19,11,3,39
1520336671916862,-73,-12,4,9,16,8,6,-24
1520336671916862,-18,13,10,17,27,12,-3,21
1520336671929896,59,7,-1,1,-6,-4,0,25
1520336671929896,-48,-15,2,4,0,4,-3,-6
1520336671937918,-46,-14,-14,-18,-18,16,-2,11
1520336671937918,27,4,-2,-11,-43,-12,-9,17
1520336671952958,67,3,-6,-3,36,-11,-25,-4
1520336671952958,-24,13,15,15,-22,-7,10,-3
1520336671953961,-70,2,-6,0,19,-21,-6,-7
1520336671953961,19,-11,9,19,32,16,6,14
1520336671976019,-33,-4,-7,3,-3,16,4,-17
1520336671976019,17,21,17,4,9,-11,14,45
1520336671977022,-27,-19,-8,-12,-23,-7,5,16
1520336671977022,-27,2,-1,-6,-11,1,-3,30
1520336671998078,-22,-7,0,3,6,-12,-8,-5
1520336671998078,26,12,4,-9,-15,8,6,4
1520336671999081,3,6,2,-1,-26,-3,1,7
1520336671999081,35,-12,-3,6,34,-9,16,20
1520336672015124,64,18,-1,1,16,16,10,24
1520336672015124,-47,-28,-7,1,0,-1,-7,-15
1520336672015124,34,4,8,-2,-2,6,-10,-10
1520336672015124,11,5,13,19,0,23,20,0
1520336672036179,-3,-4,-10,-14,-27,-35,-12,14
1520336672036179,-46,-9,-20,-12,21,-6,-9,-70
1520336672036179,14,7,12,1,-3,-8,2,48
1520336672036179,-14,4,8,5,-7,16,10,-3
1520336672058238,3,-6,-5,-2,9,-1,12,13
1520336672058238,-14,-4,-6,-14,-14,-19,-9,-28
1520336672059241,6,-6,-4,6,7,-6,-6,-21
1520336672059241,-42,2,-5,-10,-20,-27,-14,-26
1520336672073278,-43,-18,-15,-26,-10,8,-17,-15
1520336672073278,3,6,0,-16,-42,10,0,16
1520336672074280,-11,-7,-8,0,23,3,9,-2
1520336672074280,28,0,-5,3,8,10,8,12
1520336672095337,3,1,7,25,38,-14,-7,-11
1520336672095337,6,14,9,10,18,27,10,10
1520336672096339,-31,-10,-4,0,6,22,0,3
1520336672096339,-51,-8,-8,-20,-31,-27,1,12
1520336672118398,-89,-17,-11,-14,-17,8,-2,-2
1520336672118398,7,-2,1,1,-6,-19,-10,-9
1520336672119401,20,11,13,10,-11,21,14,-7
1520336672119401,57,14,6,-2,28,15,12,49
1520336672132436,-97,-18,-19,-15,-33,-26,-22,-19
1520336672132436,21,4,-1,3,16,-25,-7,15
1520336672140457,24,1,0,-9,-54,-12,0,20
1520336672140457,-19,-7,2,-13,-25,5,-23,-17
1520336672163518,64,13,6,-33,73,9,19,39
1520336672163518,-4,-11,-5,20,-92,-18,-29,-29
1520336672164520,-33,-1,3,33,114,57,44,-14
1520336672164520,40,5,4,37,91,-4,-7,-7
1520336672178558,-34,-12,1,8,5,5,16,-6
1520336672178558,-24,8,-3,-16,27,-11,-29,14
1520336672179561,16,-13,-14,-21,-83,-17,-8,0
1520336672179561,3,32,11,-10,-56,-6,-7,-12
1520336672193598,22,-12,-15,-13,-29,-1,7,-2
1520336672193598,-13,18,21,6,8,13,21,16
1520336672193598,-9,-19,-16,-9,-23,-24,-15,25
1520336672193598,-2,4,-5,-9,13,11,7,-5
1520336672215657,41,5,14,17,-16,-19,-8,-20
1520336672215657,-35,0,-5,1,2,6,8,10
1520336672216660,20,2,-2,-2,22,3,0,0
1520336672216660,33,-3,-3,-3,-1,-6,-1,8
1520336672237716,-58,-31,-10,-3,-32,3,-14,-24
1520336672237716,-21,-23,-9,-10,3,-10,0,9
1520336672238718,38,13,11,11,22,-12,-3,-10
1520336672238718,-38,-4,-4,-16,-59,11,4,-10
1520336672252756,-53,-3,5,17,12,-3,-18,4
1520336672252756,127,15,-13,1,21,17,13,8
1520336672253759,-121,-38,-13,-7,-10,-13,-3,-3
1520336672253759,51,2,2,5,-41,-8,-1,4
1520336672275823,93,39,14,6,26,21,12,15
1520336672275823,24,-18,-7,-10,14,6,4,18
1520336672276826,-28,35,23,12,11,5,-4,-55
1520336672276826,46,19,-14,-10,-11,-9,-12,18
1520336672297876,79,-27,1,2,-18,-5,7,29
1520336672297876,8,0,-1,1,9,-2,-8,-4
1520336672298879,-27,-1,-7,-9,-14,-7,-1,17
1520336672298879,-6,-7,3,-2,5,6,-5,-26
1520336672312915,-85,20,13,13,10,-4,1,11
1520336672312915,101,-3,-9,-2,-4,24,18,-3
1520336672313918,-22,-10,-2,-9,3,-1,6,12
1520336672313918,-87,-42,-11,0,-17,-21,-12,-17
1520336672335977,-18,43,24,10,51,29,23,-16
1520336672335977,-115,-54,-36,-4,-13,-27,-23,-31
1520336672336980,39,15,7,2,20,14,10,20
1520336672336980,-64,-36,-17,-5,5,1,-7,-23
1520336672358035,21,36,17,6,-34,12,3,-35
1520336672358035,-45,-37,-13,-18,-4,-10,9,70
1520336672359038,-39,-8,13,13,-3,-2,-15,-81
1520336672359038,-96,-32,-20,-8,7,-8,-2,44
1520336672373076,-58,-36,-36,-18,-23,-5,-12,-10
1520336672373076,-85,27,29,12,13,13,8,25
1520336672374079,78,6,-19,-13,-13,-17,-14,-18
1520336672374079,-71,-8,14,14,20,-6,-8,-34
1520336672395134,17,24,0,-7,-18,26,8,31
1520336672395134,-78,-40,-12,-5,6,-18,-6,-33
1520336672403155,8,14,11,4,-9,-19,3,6
1520336672403155,29,43,10,4,32,21,11,-22
1520336672418195,94,-44,-24,-9,-43,-31,-23,-17
1520336672418195,48,53,39,21,27,25,14,7
1520336672419198,-2,-29,-44,-27,-14,-24,-41,26
1520336672419198,51,-11,-5,-8,-8,-17,-8,-39
1520336672441257,62,54,18,10,-10,-13,34,102
1520336672441257,-93,-59,-11,-5,14,46,5,-65
1520336672442260,-8,-1,6,3,7,-12,13,23
1520336672442260,-57,9,17,9,6,1,3,10
1520336672455294,-20,0,-10,-8,-10,12,-20,-30
1520336672455294,29,19,-4,-6,-14,-32,-6,-3
1520336672463315,85,11,4,7,7,19,-9,-5
1520336672463315,6,-35,-9,-2,-1,4,9,23
1520336672478356,-53,-14,3,2,8,-2,-7,16
1520336672478356,95,55,3,-9,-14,-24,-3,35
1520336672479358,-109,-26,-14,-12,-31,13,12,-20
1520336672479358,4,28,10,11,45,0,-8,-18
1520336672501417,13,-17,-3,4,6,7,8,0
1520336672501417,-79,-28,-17,-8,-3,-14,-19,-42
1520336672502420,33,22,18,6,-6,16,17,29
1520336672502420,65,5,-4,-2,-6,6,9,27
1520336672523475,-84,-8,-2,0,-14,-16,-13,10
1520336672523475,-38,8,-5,-6,6,6,-1,-36
1520336672524478,-49,8,16,11,13,6,-13,-30
1520336672524478,-42,-29,-17,-12,-11,-10,9,-1
1520336672538516,29,2,8,1,1,-11,-9,-8
1520336672538516,27,27,4,-4,-14,15,3,-46
1520336672539518,-54,-18,-14,-4,6,16,-14,-6
1520336672539518,72,36,10,4,-2,-7,9,15
1520336672561577,88,-23,-23,-18,-12,-13,-11,-16
1520336672561577,22,15,24,13,1,-4,2,9
1520336672562580,75,19,16,11,19,40,28,80
1520336672562580,-49,-23,-12,-6,-39,-39,-17,-39
1520336672583635,-82,1,0,-1,25,11,22,-21
1520336672583635,-75,-26,-2,10,6,18,6,16
1520336672584638,90,21,-8,-12,-15,-23,-2,18
1520336672584638,9,3,8,5,14,15,6,8
1520336672598676,56,-16,7,4,2,25,26,20
1520336672598676,-88,-8,-6,-7,-12,-23,-34,-22
1520336672598676,2,13,14,11,13,0,12,-24
1520336672598676,-77,-27,-13,-4,-6,-21,-34,-72
1520336672621737,-15,-4,1,2,4,19,-8,-40
1520336672621737,9,10,-8,-6,-6,-11,5,60
1520336672621737,31,-17,-7,1,0,7,-6,0
1520336672621737,39,-3,7,1,2,9,2,-65
1520336672643795,90,10,-7,-4,-4,-22,-12,74
1520336672643795,67,8,3,1,-8,-3,0,-5
1520336672644798,-38,3,-2,-3,-2,-30,-20,-35
1520336672644798,14,-5,3,2,11,43,34,-12
1520336672657833,-37,11,6,0,-22,-20,-11,25
1520336672657833,22,-12,-4,0,23,31,10,-8
1520336672658836,-80,11,5,3,-3,-21,-20,-16
1520336672658836,-40,-22,-8,-2,9,-2,4,-3
1520336672680894,-28,-2,0,1,-7,24,9,-23
1520336672680894,89,22,-4,-8,-6,-21,-6,81
1520336672681897,-95,-30,-2,-1,5,21,4,8
1520336672681897,55,18,5,0,-9,-34,-28,23
1520336672703955,13,0,-6,-2,-1,11,6,-12
1520336672703955,-19,8,-4,-1,-6,-5,-15,-48
1520336672704958,-20,3,7,5,11,7,6,-72
1520336672704958,95,-11,-7,0,-5,-3,1,31
1520336672717993,-54,-5,-8,-5,1,-26,4,58
1520336672717993,121,10,9,3,-3,7,27,19
1520336672718996,88,-2,-16,-14,-12,-19,-16,11
1520336672718996,-29,14,3,-3,-2,11,3,41
1520336672741054,-5,6,10,7,3,6,-28,-64
1520336672741054,2,-6,-2,-15,-22,-37,9,29
1520336672741054,-39,-35,-5,15,28,11,16,-17
1520336672741054,39,21,2,5,21,-2,23,68
1520336672764116,49,10,2,-4,-18,-19,0,14
1520336672764116,-41,-14,-4,7,22,6,-18,-67
1520336672765119,76,21,21,8,17,7,-3,-34
1520336672765119,52,8,3,2,2,4,-5,43
1520336672778153,-10,-17,-18,-9,-13,-4,-7,-46
1520336672778153,-22,-23,-1,-2,-14,19,18,40
1520336672779156,-18,-1,-5,-6,-10,-8,13,55
1520336672779156,-78,-11,-3,-2,1,20,-6,2
1520336672800212,23,2,0,0,1,-18,10,42
1520336672800212,-28,6,0,-1,-11,14,-11,-57
1520336672801215,38,0,-4,2,16,2,-2,48
1520336672801215,-88,-11,-13,-9,-21,-11,-1,-15
1520336672824276,-11,6,10,4,-7,1,-5,-38
1520336672824276,-11,-7,-10,-10,1,4,-13,-18
1520336672825280,32,9,4,9,15,-3,17,21
1520336672825280,-10,5,0,-6,-6,4,0,-19
1520336672838313,-81,-11,-7,-9,-19,-6,6,-26
1520336672838313,89,17,10,20,75,24,5,0
1520336672839316,-17,-9,-18,-25,-39,-15,-7,5
1520336672839316,45,14,28,25,22,-20,14,-23
1520336672860372,9,-17,-4,-1,7,20,-10,21
1520336672860372,-45,-16,-7,-8,-38,-14,6,-10
1520336672861374,22,13,11,2,1,-16,-7,12
1520336672861374,-68,-17,-22,-18,-36,2,-2,8
1520336672884436,49,9,11,7,23,1,12,31
1520336672884436,-11,-1,-2,-1,-7,-1,-14,-1
1520336672884436,11,4,-1,-3,-13,10,1,-37
1520336672884436,-47,-18,-6,-4,1,-5,-8,13
1520336672898473,-23,2,1,5,10,0,5,-51
1520336672898473,-5,0,-3,-5,-18,12,4,32
1520336672899476,-21,-5,-5,-6,2,-31,-10,-11
1520336672899476,6,7,2,3,-30,10,3,-12
1520336672920532,10,3,-3,3,41,-16,-14,-33
1520336672920532,-6,2,10,15,31,-11,-2,-13
1520336672921534,81,2,-10,-10,-27,-3,6,-5
1520336672921534,-52,-14,-10,-14,-8,-9,-25,-30
1520336672943593,-18,-8,-4,-7,-5,2,-10,-38
1520336672943593,11,2,11,4,-16,2,10,-46
1520336672944596,-128,-18,-8,-1,-6,0,-10,26
1520336672944596,87,11,-1,3,20,11,17,8
1520336672958635,-84,-4,-4,-6,-14,-2,-9,-7
1520336672958635,43,1,5,1,-17,-16,-15,16
1520336672958635,23,4,5,3,21,18,18,45
1520336672958635,52,9,-1,-4,-5,4,0,6
1520336672980692,-35,-7,5,8,10,11,-12,-25
1520336672980692,4,9,-6,-5,-15,-12,-10,19
1520336672981694,8,-11,-1,0,13,-8,11,-15
1520336672981694,-29,2,-6,-3,-1,-1,-13,-17
1520336673003753,123,18,2,8,46,10,18,40
1520336673003753,-34,-5,-3,-1,-2,-4,5,19
1520336673004756,-20,-3,2,-1,-5,13,0,-6
1520336673004756,-5,12,7,-1,-12,-6,-12,-35
1520336673017790,31,-17,-14,-9,-13,4,17,85
1520336673017790,65,5,1,0,4,8,13,20
1520336673018793,14,5,-4,-2,-11,-2,-1,12
1520336673018793,-38,-7,-2,1,8,-4,1,8
1520336673040852,2,2,3,2,-7,0,-4,13
1520336673040852,-5,4,2,1,5,1,-4,-9
1520336673041856,-10,-3,1,-1,-18,-3,-6,-14
1520336673041856,-18,-7,-11,-5,11,5,-1,-9
1520336673063913,-2,11,3,-6,-31,0,-1,-31
1520336673063913,-8,-3,-3,2,40,12,16,-26
1520336673064916,-30,-5,0,2,3,-14,-38,-37
1520336673064916,43,5,7,2,-6,-16,-22,-13
1520336673077950,-46,-17,-11,1,20,6,9,-17
1520336673077950,-69,-2,3,0,-13,-7,-15,-18
1520336673085972,74,5,-4,0,0,7,14,27
1520336673085972,83,12,5,4,11,4,6,22
1520336673100009,12,9,4,-3,-15,-5,-14,-23
1520336673100009,-128,-29,-21,-9,-11,12,-6,-17
1520336673108031,33,22,15,7,8,-22,-5,-73
1520336673108031,-17,-18,-12,-7,-6,-2,0,59
1520336673124073,3,0,2,0,-2,-3,2,-23
1520336673124073,23,9,6,3,2,-3,4,0
1520336673125076,14,-3,-5,-3,-6,5,0,-18
1520336673125076,-24,5,5,3,3,0,-1,-38
1520336673137108,78,10,8,4,-1,-2,13,40
1520336673137108,-48,-2,-8,-14,-24,13,-8,-9
1520336673146132,-12,-1,-6,-8,-8,-18,0,45
1520336673146132,0,2,4,13,33,2,-1,-9
1520336673161172,-10,-3,-4,3,0,-4,7,15
1520336673161172,8,-7,-4,0,-2,-16,-1,1
1520336673161172,22,2,-1,-3,-12,20,3,11
1520336673161172,3,3,0,-6,-11,-18,-16,-27
1520336673184233,-59,-5,1,-3,4,1,4,-35
1520336673184233,120,17,3,0,-4,-11,0,-1
1520336673184233,-80,-19,-9,-2,2,3,-9,-51
1520336673184233,69,10,-9,-8,-5,0,17,111
1520336673197268,-48,-8,-4,0,-6,2,-15,-40
1520336673197268,-16,-4,-1,3,4,-8,-11,-10
1520336673205289,-5,3,4,5,2,5,5,-1
1520336673205289,14,4,4,3,2,9,9,-9
1520336673220329,3,4,3,0,-4,-14,1,13
1520336673220329,-2,-15,-7,-7,1,14,1,7
1520336673221332,-1,-6,-7,-3,-10,-2,6,24
1520336673221332,-65,-9,-2,2,7,-6,-15,-53
1520336673244393,-4,2,-2,-2,-2,-2,7,20
1520336673244393,19,9,12,8,5,-8,0,-12
1520336673244393,-34,-15,-6,-1,-20,16,-7,12
1520336673244393,4,-1,-8,-7,13,-17,-3,-4
1520336673257428,-5,-5,-8,-5,0,15,-3,-7
1520336673257428,37,11,5,3,5,-1,1,27
1520336673273470,14,0,13,7,1,-18,9,-7
1520336673273470,12,8,-2,-6,-15,2,4,21
1520336673280489,-74,-25,-6,-2,0,-4,-5,-33
1520336673280489,73,6,-5,-7,-4,5,-7,8
1520336673281492,7,0,-3,-3,6,1,-2,-7
1520336673281492,-40,-6,8,7,-2,6,6,-12
1520336673303550,83,21,10,3,3,9,1,12
1520336673303550,-66,-16,-5,2,-1,16,-11,40
1520336673304554,-6,0,0,-2,-6,-15,7,-11
1520336673304554,23,10,-2,-5,4,-12,14,-1
1520336673317588,-14,-2,-7,-11,-25,-12,-63,-32
1520336673317588,-13,-3,-3,-14,-29,-22,1,-12
1520336673325613,-21,2,5,32,42,31,-6,-11
1520336673325613,5,-2,0,3,-5,11,7,-1
1520336673340649,11,4,2,6,0,4,14,5
1520336673340649,12,-9,-2,-8,1,-14,4,4
1520336673341653,-89,-14,-7,-12,-13,2,0,17
1520336673341653,62,18,-2,-2,-9,-1,-2,-1
1520336673363710,4,-3,0,1,12,2,11,22
1520336673363710,-54,-4,-2,4,-11,-2,3,-34
1520336673364713,58,9,-5,-5,17,10,-3,8
1520336673364713,-13,-10,-1,-2,-19,-6,-4,37
1520336673377748,-11,2,2,8,41,15,18,-6
1520336673377748,5,6,4,2,-3,1,13,2
1520336673385769,13,3,2,2,11,-8,-15,0
1520336673385769,-76,-12,-8,-8,-10,-3,-24,-47
1520336673400809,39,7,1,-2,-13,-5,-3,5
1520336673400809,8,-4,-7,2,6,1,14,11
1520336673401812,11,-4,-3,-4,-2,1,12,43
1520336673401812,-8,1,-3,-5,-16,7,-1,-27
1520336673423871,64,22,25,17,15,-5,8,24
1520336673423871,-31,-23,-14,-1,4,1,-7,-25
1520336673424873,-39,-5,-5,-10,-14,-15,-23,-51
1520336673424873,21,-11,-3,1,7,8,2,15
1520336673446932,32,3,-2,-1,-6,-2,1,-13
1520336673446932,37,11,3,-3,4,-3,-4,18
1520336673446932,15,1,-1,-6,-10,-4,7,10
1520336673446932,-38,-12,-2,3,17,6,-4,-49
1520336673460969,-16,-4,-4,-7,-13,-7,-1,3
1520336673460969,-17,-15,-6,-1,4,-15,-11,-16
1520336673461972,-9,-4,-5,-3,-9,-8,1,15
1520336673461972,37,7,7,4,4,14,10,0
1520336673484031,-42,-16,-8,-5,-18,-8,-9,12
1520336673484031,-14,21,6,6,15,17,13,-19
1520336673485033,-37,-15,-9,-2,2,-1,-2,-9
1520336673485033,63,9,5,-8,2,-3,19,60
1520336673506089,-24,-13,-18,-16,-23,0,-24,-47
1520336673506089,-44,6,10,28,19,15,-2,-15
1520336673507092,23,11,8,6,6,-6,6,-5
1520336673507092,32,-3,-3,6,20,-1,-9,-1
1520336673521129,-69,-19,-10,-11,-11,0,-2,13
1520336673521129,54,5,-5,-13,-13,-6,-7,18
1520336673521129,40,13,13,6,-1,3,10,-41
1520336673521129,19,2,-2,-2,-5,-1,-1,29
1520336673544191,-93,-22,-14,-8,-1,-13,2,-34
1520336673544191,-71,-5,10,4,2,-5,-6,-52
1520336673545193,48,12,-2,-6,-6,-8,7,65
1520336673545193,76,31,4,-3,-27,-5,-3,-17
1520336673566249,-60,-48,-16,-1,27,18,-5,-8
1520336673566249,21,9,4,2,1,-5,-1,21
1520336673567252,-33,-9,2,-3,-13,15,-8,-12
1520336673567252,-29,20,12,7,17,14,16,-36
1520336673580287,42,-8,-9,-8,-5,-2,6,-6
1520336673580287,-85,-20,-10,-6,-1,-5,-4,90
1520336673581289,96,7,-4,0,0,-5,-14,-92
1520336673581289,-40,-4,10,9,-2,-7,-14,67
1520336673604351,-52,-25,-8,-3,-1,7,16,-16
1520336673604351,-10,-2,0,-7,-6,-9,-20,-83
1520336673604351,123,17,-14,-13,-12,-15,-1,83
1520336673604351,-111,-47,-23,-8,-1,-11,0,12
1520336673626409,60,28,17,9,4,13,7,-39
1520336673626409,34,2,-3,-2,-6,-6,-7,73
1520336673627412,-88,-11,6,8,19,18,4,-15
1520336673627412,59,-4,-5,-7,-10,1,10,-12
1520336673640447,47,24,1,-2,-8,-26,-3,-22
1520336673640447,-21,-17,-6,-5,-1,34,-3,-4
1520336673641449,-14,6,8,6,-10,-37,14,81
1520336673641449,-76,-19,-7,-5,14,14,-21,-91
1520336673663508,103,27,2,3,-17,-10,8,60
1520336673663508,37,20,-4,-7,1,2,12,1
1520336673664511,-71,-10,-5,-5,1,7,-8,51
1520336673664511,-43,-8,-2,2,-9,-3,16,-48
1520336673686569,-6,3,11,13,7,-16,-42,-13
1520336673686569,16,7,10,5,-3,2,2,-10
1520336673687572,-31,-17,-12,-9,-7,12,17,35
1520336673687572,36,3,0,-1,-1,-19,-13,-10
1520336673700607,13,26,7,1,4,18,-6,-2
1520336673700607,-10,-20,-11,-1,0,-4,-1,-14
1520336673701610,-53,19,8,1,2,15,-22,-39
1520336673701610,58,-18,-8,-2,1,2,0,-6
1520336673723668,45,13,2,-1,0,-12,15,29
1520336673723668,27,-6,-2,-3,-6,-5,-6,-35
1520336673723668,-46,1,3,2,3,-4,0,-67
1520336673723668,-59,-18,-6,1,3,8,-1,44
1520336673746729,-28,-5,-3,-4,-12,-7,-9,11
1520336673746729,23,6,0,-2,3,0,10,-25
1520336673746729,106,21,10,8,12,5,0,-31
1520336673746729,-111,-28,-1,0,-3,-3,-8,39
1520336673760767,84,27,13,7,13,13,17,33
1520336673760767,-49,-1,0,-5,-19,-11,6,97
1520336673761770,-57,-8,-10,-6,13,-6,-11,-52
1520336673761770,64,9,0,2,-2,0,-1,-9
1520336673782825,4,-8,-7,1,-3,-3,0,-12
1520336673782825,11,11,4,1,0,-3,3,-30
1520336673783828,-25,8,2,-1,-11,3,6,41
1520336673783828,-48,-24,-11,-1,16,9,8,14
1520336673806889,19,2,-1,-6,-4,-13,-10,35
1520336673806889,-52,-10,-7,-4,3,-31,-10,-9
1520336673806889,4,-7,-3,5,-12,0,-9,-11
1520336673806889,127,36,12,3,-1,4,5,-1
1520336673820927,-128,-32,-14,-6,-1,3,9,-18
1520336673820927,44,6,-6,-7,-3,0,7,-5
1520336673821930,-66,-9,7,6,6,-7,14,-29
1520336673821930,-64,11,-2,-10,-32,-11,-9,15
1520336673842985,-85,-20,-9,5,13,-12,-36,-89
1520336673842985,41,11,-1,-2,18,20,14,56
1520336673843988,-12,-18,-7,-3,-11,10,11,40
1520336673843988,11,-12,1,5,9,0,2,-7
1520336673866047,36,15,25,12,9,20,24,42
1520336673866047,-42,-31,-28,-19,-20,-29,-23,-96
1520336673867049,41,13,10,3,6,13,-9,1
1520336673867049,-27,1,-4,-6,-9,-10,4,-24
1520336673881087,-39,19,7,-1,-9,-8,0,24
1520336673881087,4,-17,-6,4,11,10,7,1
1520336673881087,37,-14,-6,-6,-3,1,3,9
1520336673881087,-45,2,5,2,-2,-11,-19,-39
1520336673903145,-64,-14,-7,0,1,8,-1,-23
1520336673903145,36,32,12,-6,-10,0,0,-4
1520336673904148,-18,-12,-16,-8,2,-17,-16,-11
1520336673904148,17,18,17,16,14,28,12,-42
1520336673926207,2,-5,-5,-4,-1,-8,10,-6
1520336673926207,37,8,4,5,-36,6,-1,2
1520336673927210,110,13,9,2,44,14,9,49
1520336673927210,-120,-44,-16,-7,0,10,11,4
1520336673940244,-34,-25,-6,-1,4,5,-11,-44
1520336673940244,78,9,0,-2,-3,9,-10,-19
1520336673948266,-54,0,-1,-10,-42,-7,-4,28
1520336673948266,67,39,19,21,69,20,31,24
1520336673963306,-64,-5,-8,-5,-12,-28,-33,-56
1520336673963306,-128,-23,-4,0,10,21,-1,-43
1520336673964308,73,-3,-2,-1,-12,-15,4,1
1520336673964308,-19,-2,-7,-7,-14,-5,-16,9
1520336673986367,76,7,1,-1,-3,3,18,55
1520336673986367,17,18,14,10,13,-7,-2,-23
1520336673987370,-64,-10,-16,-9,2,0,-17,-36
1520336673987370,-7,8,7,-4,-18,-14,2,-33
1520336674000404,27,7,4,10,9,27,-3,23
1520336674000404,-7,1,16,9,5,12,15,27
1520336674001407,60,17,0,-4,-2,-9,12,30
1520336674001407,-20,-21,-19,-12,-11,-9,-19,4
1520336674023466,18,0,3,-1,-2,-1,6,-4
1520336674023466,44,1,-1,2,8,7,14,51
1520336674024469,-24,9,8,5,2,8,7,20
1520336674024469,17,10,1,-7,-23,-17,-14,-6
1520336674046527,38,-4,-8,-9,-23,2,-18,43
1520336674046527,-32,-2,3,8,49,0,20,62
1520336674047530,14,3,4,2,-1,-7,-28,-37
1520336674047530,-6,-4,-10,-5,-4,1,3,20
1520336674060564,-32,-8,-3,-7,-14,-12,-20,-27
1520336674060564,-6,-10,-4,-4,-11,-11,-5,-16
1520336674068586,-47,-26,-12,-4,-3,9,13,-25
1520336674068586,15,18,11,8,4,2,-14,-27
1520336674083626,4,0,-8,-6,1,-10,6,16
1520336674083626,21,8,8,-1,-13,-10,-2,-1
1520336674084628,-32,11,10,6,-18,13,4,-52
1520336674084628,-45,-40,-21,1,25,-2,-6,-40
1520336674106687,109,18,5,-4,8,24,22,49
1520336674106687,-7,-3,-7,-6,-11,-48,-13,-52
1520336674107690,-54,-17,-12,-13,-11,3,15,13
1520336674107690,36,19,10,5,-11,-3,1,17
1520336674119722,-70,-6,0,6,8,1,-2,-36
1520336674119722,-47,-6,-4,-2,-8,14,0,-19
1520336674128746,3,-18,-5,-3,-1,-23,-28,-27
1520336674128746,-18,6,0,-4,-7,-12,-2,17
1520336674142783,-2,-6,-8,-7,13,3,1,-37
1520336674142783,38,8,10,1,-10,-3,-1,47
1520336674143786,-5,2,-3,0,12,-18,-4,-15
1520336674143786,-6,1,0,-8,-64,0,20,23
1520336674166847,37,6,5,15,37,24,6,-14
1520336674166847,-78,-9,1,10,33,7,-19,-37
1520336674166847,0,-4,-3,0,9,-11,-17,-1
1520336674166847,-15,8,2,-5,4,-5,2,12
1520336674179882,25,18,9,-6,-23,-1,13,1
1520336674179882,37,-19,-7,-2,-12,2,-2,25
1520336674187903,86,29,-1,-2,3,6,2,24
1520336674187903,-9,-6,-2,-5,-1,3,8,47
1520336674202943,-44,-4,5,3,-10,-11,6,-4
1520336674202943,-6,7,2,2,3,12,-12,15
1520336674203946,-2,-6,2,0,-6,2,2,-32
1520336674203946,38,-4,-2,-5,4,-12,-3,20
1520336674226004,0,5,-1,3,-34,3,1,-11
1520336674226004,-2,-4,-5,-5,22,-5,18,37
1520336674227008,-12,-4,-2,4,12,7,6,12
1520336674227008,24,6,-5,-9,-4,8,-11,-11
1520336674240042,-34,-7,0,-5,-30,-2,-7,-22
1520336674240042,10,2,5,4,24,-6,-5,-7
1520336674248063,-28,-2,0,6,9,21,25,18
1520336674248063,34,-2,-9,-1,17,-2,-13,-2
1520336674263103,9,-1,3,-1,-9,-17,-14,-56
1520336674263103,41,0,-9,-12,-28,-4,-4,-25
1520336674264106,6,4,9,3,5,0,5,9
1520336674264106,52,10,11,8,8,8,0,-33
1520336674286164,-18,-3,-6,-3,9,11,15,-24
1520336674286164,12,4,-1,1,-15,-25,-10,8
1520336674287167,-15,-8,1,0,3,9,12,-3
1520336674287167,-22,-4,-6,-3,-11,-4,-5,-3
1520336674300202,32,4,1,2,14,-4,8,23
1520336674300202,-43,-1,2,4,-14,-11,-5,-9
1520336674308224,12,2,-4,-7,-17,-3,-20,-1
1520336674308224,-25,-5,2,8,37,-20,-12,-24
1520336674323263,-18,2,1,2,16,15,6,32
1520336674323263,70,5,-1,-1,-5,-6,12,38
1520336674324266,-35,-8,-3,-2,-10,-12,-2,3
1520336674324266,13,5,3,3,-4,14,-3,4
1520336674346324,7,-3,1,1,9,-6,-12,9
1520336674346324,-73,-16,-15,-12,-12,4,-11,-21
1520336674347327,11,-7,2,-1,-4,-5,-9,-5
1520336674347327,36,16,8,2,1,1,-3,-20
1520336674360362,-5,-8,0,0,2,-1,6,67
1520336674360362,-8,1,-2,-2,-6,6,-8,-42
1520336674368383,-12,1,-3,-3,2,0,-10,-1
1520336674368383,-27,-10,-6,-2,-2,15,4,2
1520336674383423,-10,3,-1,-6,-6,-23,1,1
1520336674383423,19,6,9,2,4,16,17,4
1520336674384427,25,-1,-4,-1,1,5,0,-6
1520336674384427,-11,3,0,1,-21,-10,-2,14
1520336674406484,-21,-9,-7,-5,20,-13,-8,-13
1520336674406484,-21,-5,-3,-2,-13,23,3,20
1520336674407487,-10,0,6,4,11,13,25,-10
1520336674407487,43,-2,1,1,-8,-9,-8,-7
1520336674428543,4,2,-11,-8,-9,-9,-10,27
1520336674428543,1,-3,-1,1,8,3,-3,-20
1520336674429546,-25,-9,-3,-3,-5,-9,-3,10
1520336674429546,32,10,5,3,2,5,11,14
1520336674443583,-12,-7,-6,1,-2,-1,0,-3
1520336674443583,33,13,10,6,6,-1,12,36
1520336674443583,-1,-1,0,2,-5,-4,-9,-33
1520336674443583,20,2,-2,-1,4,-7,5,46
1520336674466644,23,5,0,-4,-2,4,-4,7
1520336674466644,9,-2,-7,-3,-2,-2,3,-6
1520336674467647,1,-4,-2,2,-1,-10,-6,-21
1520336674467647,-39,-2,-1,-5,-7,17,1,16
1520336674488703,51,5,6,5,12,14,38,46
1520336674488703,-37,-4,-2,0,1,4,-46,-66
1520336674489706,-27,-2,-5,-4,-7,-26,-11,-8
1520336674489706,-8,-2,-4,2,6,0,1,-7
1520336674502740,10,-3,-2,-2,-4,6,7,12
1520336674502740,48,8,4,2,0,-6,6,6
1520336674503743,-11,-5,-2,-4,1,4,0,12
1520336674503743,53,12,6,1,-5,-4,0,-1
1520336674526804,-41,-17,-6,-2,-5,-6,-13,-32
1520336674526804,-26,2,-2,-3,-2,-3,4,2
1520336674526804,11,1,-5,-5,-6,-6,-6,5
1520336674526804,-18,-1,3,0,-6,16,10,4
1520336674548863,15,8,6,8,13,-11,-13,-5
1520336674548863,-17,-2,-4,2,32,9,20,-2
1520336674549866,31,-3,-1,-1,-2,-2,2,21
1520336674549866,-37,-9,-2,-4,4,3,-2,-34
1520336674562901,-9,0,-1,-4,-15,-13,5,16
1520336674562901,6,-1,-1,-7,-29,-22,-23,-7
1520336674563903,-65,-8,-10,-3,12,16,-12,-26
1520336674563903,-4,-7,-6,0,2,-13,1,-3
1520336674586964,30,5,2,1,-1,4,5,9
1520336674586964,-23,-4,-1,-2,-3,-4,10,-18
1520336674586964,104,13,-2,-6,-11,-3,-2,34
1520336674586964,-112,-13,-7,-4,-7,-9,-10,-17
1520336674609023,28,6,3,3,5,7,-18,-51
1520336674609023,-56,-19,-2,2,-2,5,5,11
1520336674610026,8,2,2,1,-2,-4,1,-6
1520336674610026,13,-1,-3,-2,4,-1,-3,0
1520336674623061,-16,1,0,2,3,6,-1,-6
1520336674623061,30,1,0,-1,-1,-7,-1,18
1520336674624063,0,0,2,-1,3,11,2,-9
1520336674624063,-32,-7,0,-1,1,-8,2,-23
1520336674646122,9,-1,-7,-4,-5,2,9,-6
1520336674646122,18,6,-5,-4,-17,-16,0,27
1520336674647125,-25,4,5,2,-1,-18,-12,-2
1520336674647125,30,2,-3,-1,9,13,2,3
1520336674676202,-36,0,0,-4,0,1,-1,-8
1520336674676202,-25,-3,5,5,5,11,0,-11
1520336674677205,12,-2,4,6,0,2,6,-16
1520336674677205,63,15,0,-2,-3,-1,14,58
1520336674683221,-80,-35,-15,-7,-2,-7,-3,-8
1520336674683221,2,-2,-3,-6,-6,-6,-16,-35
1520336674684223,-23,2,2,2,0,1,3,11
1520336674684223,14,0,5,2,3,-5,-12,-18
1520336674706282,16,9,4,1,-3,2,-2,0
1520336674706282,-7,-1,-5,-4,3,0,7,31
1520336674707285,8,-3,-6,-7,-6,-4,-11,-23
1520336674707285,-24,-5,2,2,-1,3,4,-1
1520336674729343,17,7,-2,3,-8,-9,-4,4
1520336674729343,47,4,10,5,12,14,1,10
1520336674730346,-38,0,-8,-6,-11,-23,12,22
1520336674730346,49,3,-1,-1,2,5,-9,12
1520336674743381,-49,-5,-3,-4,2,4,13,-36
1520336674743381,10,4,0,3,-4,-2,-6,6
1520336674744383,30,1,3,0,0,7,-9,6
1520336674744383,33,-4,0,6,1,-5,3,29
1520336674766442,-4,-1,-1,-3,0,-3,-24,-40
1520336674766442,-7,-3,1,5,12,13,10,-6
1520336674767445,12,4,3,0,2,1,8,6
1520336674767445,24,4,4,-1,-3,1,-3,-7
1520336674788501,-59,-21,0,4,-3,5,-1,-20
1520336674788501,49,4,-7,-5,-7,-9,-6,-10
1520336674789503,3,4,1,0,3,1,2,26
1520336674789503,-57,-12,-2,0,-5,-6,-13,-30
1520336674803541,28,7,1,-4,2,0,9,41
1520336674803541,-19,-3,-6,-6,-3,-9,-10,-20
1520336674804543,-32,-2,6,4,4,8,5,-6
1520336674804543,-51,-11,-7,-5,-3,-1,12,8
1520336674826602,67,12,-1,-2,-7,-9,-19,-2
1520336674826602,10,-1,-5,-5,-1,8,7,17
1520336674827605,13,-6,-4,-3,-2,1,7,8
1520336674827605,-38,1,3,3,-1,-7,-8,-22
1520336674848661,31,-1,1,2,5,1,-2,32
1520336674848661,-32,4,5,8,6,-7,16,14
1520336674849663,-28,-9,-9,-4,0,-2,-6,-26
1520336674849663,-14,1,-3,-5,-3,0,-11,-32
1520336674863701,20,12,7,4,0,6,0,22
1520336674863701,16,-14,-5,0,-9,-20,1,1
1520336674863701,-25,0,-7,-4,0,-7,-7,-26
1520336674863701,14,11,-3,-5,-4,-2,-9,-10
1520336674886763,-33,-18,-6,-3,-1,4,3,-4
1520336674886763,62,19,5,-1,2,4,-7,0
1520336674887765,-18,-5,5,3,1,1,-3,8
1520336674887765,-32,-11,-10,-7,-5,-5,-12,-36
1520336674908821,-5,10,4,-1,-2,0,2,3
1520336674908821,5,-2,3,3,1,-1,-7,-16
1520336674909824,26,8,5,2,-2,-1,11,25
1520336674909824,79,7,3,1,5,15,20,42
1520336674922858,-108,-33,-13,-4,-1,-4,3,-1
1520336674922858,-26,0,-4,-9,-10,-8,-40,-60
1520336674923861,57,6,-2,-2,0,5,-6,12
1520336674923861,-12,-3,4,7,3,1,17,22
1520336674945919,65,18,1,1,0,-5,10,19
1520336674945919,-10,-8,-8,-8,-2,21,16,24
1520336674946922,83,17,3,1,-6,-10,-8,8
1520336674946922,-103,-19,-3,3,2,-6,-1,3
1520336674968981,9,-5,4,2,1,1,0,-2
1520336674968981,41,22,-1,-5,-5,-1,0,-19
1520336674969983,-9,-10,7,5,6,-8,2,31
1520336674969983,-88,-16,-11,-1,7,10,-2,-59
1520336674983018,-42,-1,-20,-16,-14,-10,-18,-17
1520336674983018,-66,-22,-13,-8,0,7,18,30
1520336674991040,-14,3,9,7,1,-2,1,-12
1520336674991040,42,-1,5,5,-2,-3,-2,21
1520336675006079,30,-26,1,12,9,1,-10,-46
1520336675006079,107,43,2,-4,-4,-7,-1,24
1520336675006079,-112,-26,-18,-11,-2,6,4,5
1520336675006079,-67,-14,-3,-3,-2,-2,-3,-30
1520336675029141,3,-4,3,1,1,4,9,0
1520336675029141,-56,-10,-4,2,2,-5,-14,-31
1520336675030144,99,4,2,5,4,10,24,51
1520336675030144,-48,14,5,-1,-4,-7,-20,-9
1520336675042176,12,0,8,2,4,8,20,37
1520336675042176,-16,-13,-11,-12,-9,-8,-10,4
1520336675051200,-63,-9,3,5,-10,-3,9,-3
1520336675051200,83,8,-5,-15,10,8,-10,-19
1520336675066239,94,28,7,-4,-18,0,23,21
1520336675066239,-5,-8,5,-4,3,13,-22,-18
1520336675066239,-13,3,13,34,20,-16,9,3
1520336675066239,-10,-28,-18,-3,0,-28,-8,29
1520336675089301,5,15,4,6,4,8,-9,6
1520336675089301,-91,-24,-4,-3,-4,1,3,-27
1520336675089301,10,15,-3,-16,-18,11,1,5
1520336675089301,-20,-2,2,-1,-5,-3,1,-15
1520336675102335,-1,14,10,7,6,10,2,12
1520336675102335,-75,-16,4,1,-10,-15,-2,-9
1520336675110357,-76,-16,-19,-16,-2,1,-23,-67
1520336675110357,25,-2,-3,0,-1,3,8,16
1520336675125397,57,16,-4,-5,2,11,-6,11
1520336675125397,-26,-18,4,10,3,-26,-2,6
1520336675126400,71,47,7,-7,1,4,-6,-1
1520336675126400,-53,-25,-2,3,-1,11,16,36
1520336675148458,24,11,-3,-3,-4,-9,-21,-35
1520336675148458,-5,3,2,5,11,19,26,12
1520336675149461,56,-2,-14,-18,-17,-29,-32,-34
1520336675149461,26,3,2,4,-7,-1,0,-1
1520336675162496,-121,4,6,4,11,-4,12,4
1520336675162496,112,5,2,9,15,26,13,4
1520336675170517,-20,10,-17,-16,-13,-17,-18,-16
1520336675170517,89,26,9,-6,-5,3,8,36
1520336675185557,-24,-17,-2,-10,-12,-22,-16,-21
1520336675185557,31,15,7,8,-12,-17,15,23
1520336675186560,-16,-5,15,29,48,61,19,26
1520336675186560,101,14,1,7,-4,-1,-1,4
1520336675208618,71,-28,-12,-5,4,-17,-13,-7
1520336675208618,51,7,1,-3,-1,14,3,20
1520336675209621,-10,-10,-17,-18,-25,-31,-16,6
1520336675209621,-79,-21,-8,-3,-3,-12,-3,-17
1520336675222656,41,-13,-3,-3,-1,5,21,86
1520336675222656,-27,-7,7,7,2,2,-11,-27
1520336675230677,30,-5,14,14,12,15,1,-17
1520336675230677,-82,-11,11,6,2,-13,8,-36
1520336675245717,82,29,1,-5,-12,-23,-33,24
1520336675245717,-67,-12,-17,-10,1,21,-1,-31
1520336675246720,9,0,3,-1,-3,3,18,13
1520336675246720,48,27,5,-5,3,70,21,6
1520336675268778,-29,8,8,14,-2,-86,-8,9
1520336675268778,92,37,-8,-10,-12,-20,-4,39
1520336675269781,-103,-10,5,-3,-1,-41,-30,-60
1520336675269781,-13,-5,5,9,10,39,8,7
1520336675282816,-47,28,11,9,9,4,11,0
1520336675282816,-54,-52,3,5,-1,23,15,-33
1520336675290837,36,-24,-31,-19,-11,-6,-4,38
1520336675290837,-3,12,5,-5,-2,-48,-25,11
1520336675306880,-9,-6,-7,-9,-11,26,-4,-17
1520336675306880,-25,5,9,6,12,20,18,-16
1520336675306880,18,0,-1,2,-3,5,-13,-76
1520336675306880,80,14,14,5,-1,-20,9,60
1520336675328938,32,-11,-16,-5,3,3,0,0
1520336675328938,73,18,1,-11,-18,-36,-16,15
1520336675329941,0,-12,-2,-1,6,49,26,12
1520336675329941,47,23,4,6,5,22,-2,4
1520336675350997,-53,-27,-6,5,13,-16,-7,-59
1520336675350997,-72,-27,-4,9,5,-10,-1,-17
1520336675352000,91,15,2,-19,-15,11,-2,103
1520336675352000,-91,-9,-4,7,-13,-49,-3,-63
1520336675366037,62,3,-2,6,34,79,9,8
1520336675366037,-14,-21,-7,3,8,0,-4,-1
1520336675366037,47,30,21,18,8,-8,-16,-36
1520336675366037,-37,-45,-26,-20,-14,6,-15,4
1520336675389099,35,37,6,-9,-21,-20,5,14
1520336675389099,-56,12,3,0,13,45,5,42
1520336675390101,64,15,6,2,-10,-52,0,-62
1520336675390101,12,20,-12,-12,-10,-12,-20,21
1520336675411157,-75,-14,3,1,-6,6,1,-25
1520336675411157,-37,-7,-3,-3,1,10,9,12
1520336675412160,-62,-5,3,3,1,6,12,39
1520336675412160,-36,-23,-2,7,10,18,-24,-79
1520336675426197,-49,-21,-7,-2,-8,-7,-2,-4
1520336675426197,-15,10,1,-6,4,-29,-3,1
1520336675426197,-3,-15,-5,4,11,-21,-22,-3
1520336675426197,71,23,5,0,-19,5,52,53
1520336675449258,0,-11,-8,-6,4,6,-21,1
1520336675449258,42,9,9,10,1,-12,-6,5
1520336675449258,-117,-15,-7,-1,7,11,2,-43
1520336675449258,36,-9,-1,-3,3,-8,1,45
1520336675471317,-52,-4,3,-3,-18,4,13,-9
1520336675471317,14,9,6,3,5,25,8,-42
1520336675472320,-33,5,-10,-6,-6,-63,-21,49
1520336675472320,30,10,3,-1,7,49,6,-3
1520336675485354,-79,-24,-14,-8,-8,20,1,-54
1520336675485354,-5,-31,-15,-6,4,-22,-2,24
1520336675486357,10,-8,2,1,-5,1,12,0
1520336675486357,9,7,-9,-8,-10,-27,-34,-33
1520336675509418,-20,-16,-7,-3,2,-16,-2,14
1520336675509418,-6,10,5,5,-16,-12,11,-2
1520336675509418,45,1,-3,-6,16,40,22,-6
1520336675509418,-65,-16,0,6,7,-21,-11,5
1520336675531477,15,-7,-9,-7,4,-19,-48,-52
1520336675531477,52,14,3,-4,-16,-31,-13,52
1520336675532480,49,-3,8,10,1,32,25,-48
1520336675532480,-21,22,24,20,15,9,27,63
1520336675545514,-75,-15,1,3,1,13,7,5
1520336675545514,3,4,-4,-4,-1,3,-21,-35
1520336675546517,-43,-9,-7,-5,-11,-32,-6,33
1520336675546517,35,13,11,4,14,28,27,-4
1520336675568576,91,4,-1,1,-3,13,7,22
1520336675568576,-12,-3,-7,-10,-3,-16,-18,-14
1520336675569578,-14,2,8,6,3,12,-5,-31
1520336675569578,-10,-4,-7,-3,-14,-44,-9,-39
1520336675591637,-12,5,8,2,2,22,-1,15
1520336675591637,26,10,3,-2,-7,-27,-22,-2
1520336675592640,4,-11,-11,-10,-42,19,14,6
1520336675592640,31,-4,-6,0,44,25,16,-4
1520336675605674,33,1,-4,1,2,-8,0,-8
1520336675605674,-10,2,5,1,-1,-13,-7,12
1520336675606677,-126,-13,2,10,11,26,-9,-36
1520336675606677,37,-2,-15,-18,-30,-42,-17,21
1520336675628736,4,5,3,-4,-3,26,23,28
1520336675628736,-1,3,3,5,12,36,10,-7
1520336675629739,15,-3,-6,-5,-6,-13,3,49
1520336675629739,10,11,-4,-6,-1,16,8,-21
1520336675651797,-15,-1,-1,-1,-1,-37,-29,-6
1520336675651797,-26,-8,1,0,-1,21,14,5
1520336675651797,87,17,6,3,8,-16,-3,23
1520336675651797,-11,-15,-3,0,-5,5,-9,3
1520336675665834,-26,4,-2,-8,-21,-10,9,-23
1520336675665834,3,0,3,11,16,-3,-16,-27
1520336675666837,29,0,-3,-7,-36,-34,-11,3
1520336675666837,-37,-10,-5,0,41,-7,-33,-37
1520336675688896,-18,2,9,20,47,68,76,28
1520336675688896,39,6,8,6,13,-5,15,11
1520336675689898,-53,2,-7,-4,6,-3,4,-14
1520336675689898,-60,-4,2,-3,-33,-10,-7,-9
1520336675710955,66,30,-2,-12,-19,-12,4,35
1520336675710955,-54,-23,-16,-10,-5,2,-5,-39
1520336675711957,-7,-4,4,1,4,21,11,11
1520336675711957,48,9,6,-2,-13,-8,-7,17
1520336675725994,-43,-7,9,8,7,-3,-14,-45
1520336675725994,-2,4,-4,-3,-10,4,7,18
1520336675726997,-16,-7,-5,-3,5,0,-11,21
1520336675726997,-9,-4,-2,1,0,-2,4,-7
1520336675749056,17,-13,-4,-1,-2,-21,-6,-8
1520336675749056,1,16,-1,-8,-12,-4,-16,11
1520336675750059,10,-14,-6,1,2,0,-18,-57
1520336675750059,-21,0,0,4,4,-8,1,16
1520336675771115,110,12,9,5,-4,7,12,18
1520336675771115,-94,-19,-15,-12,-11,-22,4,-49
1520336675772118,-27,5,4,2,15,35,3,3
1520336675772118,32,-9,-11,-7,-25,-21,-6,30
1520336675786154,-15,1,6,5,8,-2,-25,-115
1520336675786154,-25,2,-1,-1,-4,5,11,87
1520336675786154,104,18,14,5,-4,15,15,19
1520336675786154,-59,-38,-9,6,41,2,-1,-61
1520336675809216,33,0,-8,-7,2,8,0,31
1520336675809216,45,-6,3,4,8,9,7,-15
1520336675810219,110,17,7,6,3,13,1,24
1520336675810219,-43,5,-1,-8,-25,-3,-1,12
1520336675831275,-103,-5,4,5,3,-10,-7,18
1520336675831275,-44,-17,-5,-1,-1,-8,-8,-46
1520336675832278,56,11,4,-3,-7,-8,-8,-28
1520336675832278,-28,9,-2,1,-5,3,0,-19
1520336675846315,-55,-12,-11,-4,-4,-11,1,40
1520336675846315,26,17,5,0,-5,3,-12,-23
1520336675853333,-73,-29,-5,1,7,-2,5,-40
1520336675853333,127,29,-4,-8,-5,4,6,89
1520336675869376,-18,8,-5,-7,-12,-15,0,16
1520336675869376,21,7,9,4,-5,-2,7,29
1520336675869376,-24,-3,4,6,15,8,-3,-8
1520336675869376,-25,-3,-1,-3,-3,-4,16,7
1520336675891435,75,14,-3,1,-7,31,-6,-1
1520336675891435,71,8,1,1,9,-2,14,67
1520336675892438,-94,5,-8,-5,-6,-31,-23,-52
1520336675892438,89,14,-3,-7,-3,11,20,15
1520336675905472,-70,-14,9,7,10,3,-3,-28
1520336675905472,19,-3,2,-1,-7,4,-14,-52
1520336675906475,-71,-14,-14,-5,5,-17,-6,19
1520336675906475,37,15,2,-2,-9,-25,-21,-49
1520336675928533,38,-1,-5,1,18,8,-6,-8
1520336675928533,48,33,3,-1,-2,4,10,55
1520336675929536,-47,-12,9,7,-3,-5,20,46
1520336675929536,53,-5,-1,0,-10,-4,-25,-52
1520336675951595,46,-9,-9,-6,-8,-5,-4,-19
1520336675951595,-20,-11,-4,0,3,0,9,54
1520336675952597,-20,13,20,15,9,14,18,-13
1520336675952597,-128,-28,-23,-14,-3,22,-1,27
1520336675964629,-11,0,9,0,-7,-19,3,34
1520336675964629,-89,-11,-10,-5,-6,1,-9,-40
1520336675973653,30,9,6,-2,-2,8,3,-9
1520336675973653,-106,-44,-7,4,8,9,-1,-55
1520336675988693,21,13,-4,-4,-14,-11,-4,-9
1520336675988693,61,9,15,12,10,-22,12,31
1520336675989696,-75,-34,-21,-12,-8,35,-18,-23
1520336675989696,15,24,12,6,13,-8,1,-15
1520336676011755,19,-8,0,4,-1,-1,18,58
1520336676011755,-41,-6,-16,-14,-6,-8,-16,-45
1520336676012757,89,1,-3,-6,-7,-17,-1,39
1520336676012757,51,-1,25,23,8,42,2,-49
1520336676024790,-75,-1,-8,-6,-3,-10,4,-5
1520336676024790,69,12,11,9,4,15,5,-52
1520336676033813,-63,-16,-15,-9,-5,-25,-15,-9
1520336676033813,14,4,-3,-4,-5,-4,-6,2
1520336676047851,-6,23,10,1,1,-1,-3,4
1520336676047851,97,-16,-10,-6,-5,-1,-13,-94
1520336676056875,-96,-20,-12,-10,-5,-4,-8,-61
1520336676056875,-25,-5,-8,-9,-22,-10,3,41
1520336676071915,-11,-9,-9,7,21,6,-6,-10
1520336676071915,24,6,5,8,3,6,-4,33
1520336676072917,43,14,16,11,6,0,15,28
1520336676072917,66,15,4,-7,5,-3,15,30
1520336676084949,-18,-14,-6,-3,-16,-3,-28,-25
1520336676084949,-38,-4,6,10,-5,-6,-6,-9
1520336676093973,-31,-6,-11,-6,21,2,12,39
1520336676093973,24,30,30,22,11,14,13,-15
1520336676108011,-12,-58,-60,-47,-28,-30,-32,-46
1520336676108011,-9,4,-2,-10,-10,-1,7,26
1520336676117035,42,8,-8,-5,-10,-5,-3,31
1520336676117035,28,-14,6,5,7,1,7,9
1520336676131072,-49,8,17,9,2,3,4,-29
1520336676131072,-22,-11,-5,-7,-2,10,-8,10
1520336676132075,94,5,0,-8,-17,-44,1,53
1520336676132075,-55,-9,-10,-6,9,27,-15,-25
1520336676145109,20,14,13,35,11,15,19,13
1520336676145109,-44,1,-4,4,-11,-5,-5,18
1520336676153131,11,14,-2,-15,25,13,-5,-29
1520336676153131,-66,-6,3,20,-7,-20,-13,-4
1520336676168171,-26,0,-1,-30,-63,-9,-5,-17
1520336676168171,30,7,-2,4,42,-22,0,3
1520336676169173,18,5,11,25,26,21,12,-2
1520336676169173,66,10,6,3,10,1,3,38
1520336676191232,-97,-9,-17,-15,-6,-5,-14,-13
1520336676191232,43,5,1,-10,-31,-5,0,-3
1520336676192235,-24,3,11,0,-14,2,0,-19
1520336676192235,-13,-13,-37,-29,-16,-24,-8,-35
1520336676205270,29,28,23,11,9,-4,-9,66
1520336676205270,-77,-11,-7,-11,-5,1,0,-30
1520336676213291,-56,-6,-6,-1,12,-2,-8,-20
1520336676213291,0,18,17,6,-13,25,17,8
1520336676227328,9,-4,-3,-7,0,-18,-1,-7
1520336676227328,-13,-18,-11,0,49,11,-14,5
1520336676236352,-9,-9,-5,8,-14,16,0,18
1520336676236352,15,22,8,-7,-11,-29,-9,-1
1520336676251392,85,6,4,9,20,49,37,30
1520336676251392,-23,-7,1,-7,-23,-40,-7,17
1520336676253398,61,17,14,26,19,-6,-1,-9
1520336676253398,69,-6,-8,0,14,-13,0,22
1520336676274454,-52,-2,8,12,21,24,0,-27
1520336676274454,-17,0,-2,-6,-9,7,5,18
1520336676275456,26,-5,-10,-18,-39,-7,-7,-17
1520336676275456,-18,-10,-12,-15,-14,-15,8,23
1520336676287488,-18,-6,2,2,-1,-15,-8,-16
1520336676287488,-4,0,5,9,13,19,7,-23
1520336676296512,35,10,-2,-5,0,-13,2,54
1520336676296512,-56,-23,-6,-10,-45,35,-11,7
1520336676311552,35,5,2,-10,23,-62,24,19
1520336676311552,-31,4,3,8,11,30,4,-20
1520336676313558,-55,-5,-3,3,5,-18,-13,-16
1520336676313558,-45,0,9,9,10,-7,-2,-32
1520336676333611,82,-4,-6,-9,-13,9,-1,28
1520336676333611,-8,14,-4,-8,-17,6,-1,-3
1520336676335616,-36,-36,-18,-6,-2,7,3,-11
1520336676335616,26,4,-1,-1,-3,-6,8,37
1520336676347648,32,0,6,12,32,11,-3,-10
1520336676347648,8,1,2,-2,-1,-11,3,17
1520336676356672,-11,5,6,-4,-7,9,-10,-22
1520336676356672,-31,0,1,-5,-26,7,-6,-31
1520336676371712,-111,-31,-17,-10,1,-16,9,22
1520336676371712,5,-6,-11,-5,3,-9,8,-3
1520336676372715,-42,-1,-2,-6,-20,-12,-18,-36
1520336676372715,6,1,5,7,15,-18,5,4
1520336676393772,-21,14,6,-3,-18,22,3,1
1520336676393772,-17,-8,-5,-8,-29,-5,-12,2
1520336676395777,44,11,9,22,42,0,-7,21
1520336676395777,-41,-7,-7,-5,9,2,-2,-27
1520336676407809,13,5,2,16,27,31,-7,-26
1520336676407809,-34,-15,-4,-9,-7,-11,22,26
1520336676416832,64,13,-5,-7,-62,-10,8,13
1520336676416832,-1,-8,0,4,58,20,-7,-4
1520336676431872,24,-5,-10,-11,-27,5,-9,-10
1520336676431872,22,6,8,12,14,3,1,-1
1520336676432875,-35,-2,-1,-14,-24,-8,12,-6
1520336676432875,18,7,-2,5,41,20,8,8
1520336676453931,10,1,-7,-13,-42,-60,-37,-22
1520336676453931,33,0,0,-2,11,10,3,28
1520336676455937,-69,-15,-7,-2,4,2,-18,-78
1520336676455937,-4,-6,-6,-12,-44,-20,3,30
1520336676467968,13,11,4,3,15,21,14,-42
1520336676467968,-23,-12,-2,7,26,-13,-30,0
1520336676476993,58,11,3,-12,-27,33,39,47
1520336676476993,14,-9,2,21,-42,-10,12,-5
1520336676491030,-35,7,9,11,38,-54,-40,-28
1520336676491030,-23,-6,0,20,39,9,7,-10
1520336676493035,0,6,-11,-14,-21,-6,-13,2
1520336676493035,-4,-10,2,-3,-17,2,-14,-1
1520336676514091,-11,-14,-4,-9,-45,8,15,1
1520336676514091,9,2,0,-10,-36,2,-4,-13
1520336676516096,4,0,3,7,42,12,10,24
1520336676516096,5,6,-9,-9,-16,-16,-7,-8
1520336676528128,-14,4,3,9,8,-2,1,-19
1520336676528128,13,0,1,-1,6,15,9,5
1520336676536150,4,4,-5,-9,-14,-20,-9,-2
1520336676536150,-37,-4,-2,-6,7,14,-7,-13
1520336676551190,23,-8,-2,-5,-1,-10,13,21
1520336676551190,-1,7,7,1,-4,15,-9,8
1520336676553195,-37,-15,-3,6,5,-45,-9,-16
1520336676553195,14,6,-4,1,13,12,4,-6
1520336676574251,30,9,0,-6,-55,-5,11,26
1520336676574251,24,5,3,11,45,-6,12,12
1520336676575254,-4,-9,-5,-5,9,34,-3,-7
1520336676575254,-12,14,8,2,18,-15,-7,-17
1520336676587286,-45,-10,-5,0,-6,26,3,-17
1520336676587286,6,-3,-3,-8,-39,-21,-9,-13
1520336676596310,19,4,3,5,10,7,16,26
1520336676596310,-30,2,0,2,2,-5,6,13
1520336676611350,64,-7,-13,-15,-12,1,-5,66
1520336676611350,-5,8,-1,-1,-14,11,-4,-28
1520336676613355,26,-9,-3,-4,1,-12,0,7
1520336676613355,28,3,-3,-4,-5,-14,-7,-3
1520336676634411,-1,2,13,13,32,8,-1,-28
1520336676634411,-7,-8,-13,-13,-49,-9,10,38
1520336676635414,58,8,1,7,43,6,6,9
1520336676635414,-7,8,14,13,5,-1,-7,8
1520336676647446,-10,-3,-1,4,-1,-4,-2,-16
1520336676647446,-13,-6,-6,-10,-3,-31,-29,-44
1520336676656470,-29,-9,-2,-8,-30,21,16,-4
1520336676656470,-17,-7,-8,-4,4,-12,-6,-29
1520336676671510,3,-4,-9,-1,21,2,4,-54
1520336676671510,8,4,9,4,-11,3,0,21
1520336676673515,-98,-12,13,14,0,7,-3,-61
1520336676673515,-40,-6,-11,-10,5,-5,-15,27
1520336676693568,93,5,-7,-2,-8,8,-2,7
1520336676693568,-24,-17,-20,-16,-12,-9,4,93
1520336676695574,-29,1,14,9,12,0,2,-42
1520336676695574,-105,-29,-18,-8,-6,-2,-16,20
1520336676707606,89,36,10,2,-3,-13,0,46
1520336676707606,-46,-4,-2,2,0,-4,-3,-49
1520336676716630,2,3,-2,-7,-17,8,-25,-2
1520336676716630,13,-3,1,3,15,11,50,-10
1520336676731670,-26,-13,-7,-3,16,-35,-49,32
1520336676731670,1,4,-1,2,12,-23,-32,-62
1520336676732672,-55,-19,-5,1,2,28,-2,11
1520336676732672,115,20,0,-2,-11,-2,11,41
1520336676753729,-112,-11,2,1,-8,4,15,5
1520336676753729,8,7,9,4,6,14,22,14
1520336676755734,-10,-10,-14,-9,-4,-12,-20,-15
1520336676755734,66,0,14,2,-7,-2,-5,6
1520336676767766,14,-4,13,14,18,26,28,57
1520336676767766,-15,-14,-28,-21,-18,-4,-12,15
1520336676776790,65,27,11,4,-3,-6,12,67
1520336676776790,-41,-19,-2,2,8,8,-8,-65
1520336676791830,10,-1,6,-1,0,-2,7,65
1520336676791830,-5,3,10,8,-4,11,-2,-44
1520336676792833,57,20,0,-7,-5,3,7,-43
1520336676792833,-36,-20,-8,5,11,-33,-23,-35
1520336676813889,-42,4,1,-1,-8,1,-5,-57
1520336676813889,36,4,1,0,4,43,21,3
1520336676815894,-30,1,0,-6,-33,-28,4,24
1520336676815894,-17,3,2,2,15,20,-4,1
1520336676827926,-42,-8,-11,-5,13,0,-10,-4
1520336676827926,68,9,-1,-3,4,-3,9,-17
1520336676836950,46,-2,-11,-3,5,2,9,32
1520336676836950,14,7,15,2,-23,-2,-14,-27
1520336676850987,31,-9,-1,-4,-10,10,14,26
1520336676850987,75,29,10,8,-1,-16,-1,68
1520336676852993,-29,-8,-5,-1,5,1,-2,57
1520336676852993,-41,13,-7,-4,-4,14,12,-31
1520336676874049,-89,-10,-1,-2,-5,-30,-16,-82
1520336676874049,127,-8,3,1,-2,-8,9,38
1520336676876054,-87,-28,-9,-15,1,-5,-1,60
1520336676876054,63,13,-3,8,4,11,7,49
1520336676888086,-75,-9,0,-5,-6,3,-25,-77
1520336676888086,-55,-8,7,9,-2,-12,11,-30
1520336676897110,90,17,6,5,9,-12,-12,-11
1520336676897110,-107,-15,-13,-17,-10,-17,-21,-46
1520336676911147,58,8,6,8,-2,16,28,57
1520336676911147,-60,-9,-8,-10,6,45,24,-47
1520336676917163,9,6,1,3,-12,5,-10,-26
1520336676917163,30,-17,9,20,57,-5,6,22
1520336676934209,46,6,-28,-15,-11,-2,-2,15
1520336676934209,-128,-32,-5,2,3,3,-16,-26
1520336676935211,110,17,24,14,2,8,10,24
1520336676935211,-41,3,-5,-11,-31,-6,-6,-5
1520336676947243,54,-14,4,4,3,3,10,38
1520336676947243,49,5,-8,-8,-2,-6,-5,27
1520336676956267,29,22,14,6,9,1,11,30
1520336676956267,-70,-15,-13,-3,-12,-5,-5,-38
1520336676970305,-1,-5,4,0,9,7,16,50
1520336676970305,-7,24,6,1,-13,-11,-14,-8
1520336676979329,6,-12,-5,6,7,-10,-9,-9
1520336676979329,-39,3,7,0,6,18,9,-7
1520336676994369,-32,6,-7,-11,-14,-15,-5,-19
1520336676994369,-59,-5,5,5,6,-16,0,-28
1520336676995371,27,-15,-7,1,24,12,13,10
1520336676995371,-68,-1,-2,-5,0,3,5,8
1520336677007403,117,6,16,7,-15,15,8,-65
1520336677007403,-12,-10,-23,-20,-33,-36,-43,6
1520336677016427,-95,-30,-17,-3,33,-4,10,-18
1520336677016427,2,8,14,6,-9,1,0,-34
1520336677030465,-34,5,2,8,8,1,5,32
1520336677030465,-5,-1,-11,-10,-1,9,-8,-43
1520336677037483,-14,8,-1,-20,-16,-2,-6,2
1520336677037483,127,-16,4,28,3,20,44,59
1520336677053526,-69,-6,-7,-8,-2,-8,-21,-1
1520336677053526,34,-11,0,8,14,7,6,-12
1520336677055531,-8,9,-5,-4,-12,-10,-3,14
1520336677055531,44,9,5,-10,-11,-12,3,23
1520336677076587,-8,10,-3,-6,-18,-8,-28,-43
1520336677076587,36,7,14,19,51,29,14,23
1520336677077590,-100,4,-5,-11,-22,-7,-5,-64
1520336677077590,-8,21,1,1,12,-4,-23,-48
1520336677091627,37,-10,-12,-6,-10,-14,-10,52
1520336677091627,16,19,17,4,1,29,35,19
1520336677093633,25,18,-4,3,5,9,2,18
1520336677093633,-35,-18,-17,-16,-16,-10,-12,14
1520336677113686,-53,7,11,5,5,3,4,-3
1520336677113686,-49,-2,18,15,8,9,9,-3
1520336677115691,-33,-32,-24,-6,-4,-5,-9,-73
1520336677115691,127,22,2,-10,-14,3,14,46
1520336677136747,-59,-3,15,14,29,2,18,-36
1520336677136747,-68,-36,-9,-4,-7,8,-20,-15
1520336677137750,31,8,3,-1,-8,-3,5,-5
1520336677137750,-15,-5,-18,-33,-30,-30,-41,-16
1520336677150785,120,32,5,21,20,17,10,5
1520336677150785,7,-14,13,9,-26,-5,16,21
1520336677157803,-33,19,4,5,46,-17,-7,2
1520336677157803,46,-22,-6,-1,-32,17,-28,-28
1520336677173846,-77,-40,-6,5,31,-12,11,-9
1520336677173846,93,17,-10,-7,-19,5,7,10
1520336677175852,15,-7,-2,-10,-28,-10,-4,-27
1520336677175852,53,18,7,2,24,-10,-16,35
1520336677187883,36,5,7,-2,-12,30,-3,-38
1520336677187883,84,22,4,-2,5,-20,-5,67
1520336677196908,-54,-30,-9,-4,-6,9,9,-40
1520336677196908,99,37,0,0,1,-12,11,-10
1520336677209942,54,20,-7,-10,-17,-17,1,44
1520336677209942,-24,-13,10,8,18,7,21,-13
1520336677218966,55,-7,2,7,-10,-17,-41,-21
1520336677218966,-30,-10,-5,-2,-2,7,1,14
1520336677234006,86,40,4,-17,-25,4,-4,21
1520336677234006,-62,-10,-16,3,21,-13,36,-13
1520336677236012,-63,-15,-1,-7,-34,18,7,-34
1520336677236012,-77,-20,-5,28,60,-1,-17,15
1520336677256065,-128,-12,-5,-12,14,22,-5,4
1520336677256065,-66,23,9,2,-17,-26,-26,-38
1520336677258070,69,4,10,3,1,43,31,13
1520336677258070,-1,5,-9,-10,-21,-67,-18,36
1520336677270102,2,-50,-6,-9,-14,-7,14,-8
1520336677270102,-38,8,-6,-7,0,-8,-24,16
1520336677279126,-28,-19,4,2,5,1,-7,-16
1520336677279126,-26,11,6,-2,-1,31,48,14
1520336677294166,-58,9,-15,-6,-3,-8,-21,-69
1520336677294166,48,-16,-15,-15,-12,13,-30,20
1520336677295169,94,35,12,12,10,-16,28,43
1520336677295169,-7,-20,-4,-8,-5,16,8,-32
1520336677316225,-29,-20,-5,2,-12,-30,-13,-22
1520336677316225,-34,29,13,-2,2,6,-6,13
1520336677318230,-36,-4,-4,9,13,-1,-22,-1
1520336677318230,-55,-12,2,6,-8,18,56,12
1520336677339286,10,-11,-12,-1,26,-4,-4,12
1520336677339286,-47,-2,0,-1,-3,-2,-12,-13
1520336677340289,-65,23,19,6,-10,2,12,23
1520336677340289,13,-79,-49,-34,-14,-6,-36,26
1520336677354326,6,12,24,19,15,7,61,31
1520336677354326,-3,-9,-23,-18,-15,2,-20,-14
1520336677355329,46,18,19,9,9,-2,-18,53
1520336677355329,-86,-20,10,14,15,14,-10,-48
1520336677376385,69,7,5,-3,-13,7,4,38
1520336677376385,54,-2,-1,-7,-11,3,11,-2
1520336677378390,-51,-19,-22,-26,-29,-21,-33,-19
1520336677378390,-35,23,17,25,57,17,31,-3
1520336677390422,14,-7,-3,-3,-11,-19,-24,-22
1520336677390422,44,4,7,33,28,30,12,-41
1520336677399447,-31,-3,-4,14,-4,-32,-3,18
1520336677399447,-36,-67,-30,-16,-29,-5,-12,-37
1520336677413484,71,47,0,0,11,1,1,5
1520336677413484,-47,4,3,-7,-27,-16,-14,23
1520336677415489,44,12,1,-7,0,-2,-8,-9
1520336677415489,21,36,9,-5,0,2,2,43
1520336677436545,-33,-6,17,10,-2,4,18,-3
1520336677436545,-68,-51,-29,-22,-10,-13,-4,-100
1520336677438550,114,25,1,5,13,4,-19,23
1520336677438550,-4,36,23,7,3,-10,1,-36
1520336677450582,-52,-80,-42,-21,-21,2,-26,2
1520336677450582,-2,17,3,-14,-13,-5,11,41
1520336677459606,-16,-9,1,-24,-50,-7,26,-1
1520336677459606,19,20,8,23,40,-18,-21,-6
1520336677473644,-68,2,6,27,-42,-6,-66,-38
1520336677473644,93,27,11,35,102,11,51,29
1520336677475649,-27,-47,-23,-2,2,3,-25,-20
1520336677475649,41,26,12,-11,-19,-4,-25,12
1520336677496705,51,44,18,-1,0,-1,35,23
1520336677496705,-93,-81,-33,-24,-23,-18,-43,-38
1520336677497708,-54,-4,-5,-6,-16,0,4,-48
1520336677497708,25,14,11,-4,-19,4,6,6
1520336677509740,-66,1,8,5,19,14,9,-18
1520336677509740,44,-7,-4,1,-21,2,-16,12
1520336677518763,-49,-31,-18,-9,22,-10,7,9
1520336677518763,14,13,5,0,-19,-13,-6,-12
1520336677533804,75,11,-7,-25,-3,29,35,83
1520336677533804,1,25,15,-7,-24,-22,16,-3
1520336677535809,-16,-1,4,44,37,27,-22,-18
1520336677535809,14,7,-3,-1,31,1,-33,-1
1520336677556865,1,5,6,11,18,15,31,-10
1520336677556865,15,-3,-17,-33,-34,-29,-46,-16
1520336677557868,27,6,6,0,-4,7,20,31
1520336677557868,3,15,9,8,-22,8,14,-4
1520336677569900,42,-4,-7,0,44,-6,-28,-4
1520336677569900,-53,-19,-1,-1,0,9,16,-6
1520336677578924,11,17,-3,-6,-2,6,18,7
1520336677578924,-1,7,-5,-8,-16,-4,-29,-54
1520336677601985,-53,16,2,-4,-12,2,32,82
1520336677601985,74,23,8,7,6,2,36,35
1520336677602987,-69,-6,-15,-15,-4,-16,-32,-33
1520336677602987,15,-7,3,-1,-2,9,14,12
1520336677616022,-25,21,15,4,-22,12,32,-30
1520336677616022,56,-23,-8,7,11,-25,-11,2
1520336677618028,43,2,8,-15,-8,-37,-38,53
1520336677618028,-43,-3,-8,18,8,24,16,-13
1520336677630060,-27,-23,-8,-10,-9,-33,-37,-35
1520336677630060,0,16,4,10,9,43,5,15
1520336677639083,27,16,14,29,93,36,37,0
1520336677639083,-9,-36,-15,-15,-22,-13,-7,15
1520336677654124,108,50,3,5,-3,-4,-7,-27
1520336677654124,-108,-7,9,3,-37,-16,-16,-73
1520336677655126,-78,-25,-14,-22,-33,-8,-9,-15
1520336677655126,-87,-12,-12,-5,6,9,25,39
1520336677676182,19,-13,0,-1,-9,-2,-14,-37
1520336677676182,61,61,9,-6,1,-10,-7,0
1520336677678188,18,-25,-2,2,-1,12,21,-1
1520336677678188,-54,-18,-6,-3,-2,2,12,-45
1520336677690220,-34,-21,5,6,0,-6,-3,41
1520336677690220,-46,7,2,5,10,15,-1,13
1520336677699244,16,15,4,-3,-23,0,10,20
1520336677699244,44,10,0,-1,15,-27,-1,-27
1520336677714284,-92,-28,-11,-6,6,8,0,-4
1520336677714284,38,-10,-6,-5,-26,-2,-11,67
1520336677715286,-67,-6,1,9,42,4,-5,-71
1520336677715286,57,6,2,-6,-10,8,12,3
1520336677736342,16,-2,-7,-5,5,3,-11,18
1520336677736342,16,29,29,19,9,-8,19,3
1520336677738348,11,-22,-21,-17,-32,12,-4,-49
1520336677738348,-20,-17,-4,-8,-10,-15,-10,-12
1520336677750380,7,-10,-5,0,3,-2,-10,26
1520336677750380,-33,-16,-14,-9,-7,-5,-21,-10
1520336677759404,11,22,10,3,-8,-11,13,-9
1520336677759404,22,9,12,16,19,26,2,-7
1520336677774444,-39,-11,-13,-15,-22,-19,-24,-73
1520336677774444,-12,-17,-7,-4,-8,5,3,-55
1520336677775446,57,11,10,14,19,-13,-30,45
1520336677775446,-56,0,-12,-17,-15,-15,-26,1
1520336677796502,5,-6,-7,-25,-27,24,5,-8
1520336677796502,22,8,0,-4,8,-12,-14,1
1520336677798508,-57,-16,15,36,26,30,40,-31
1520336677798508,118,17,3,10,15,8,8,114
1520336677810540,-58,-32,-15,1,7,-27,-31,-90
1520336677810540,48,10,4,-4,7,12,11,8
1520336677819564,-27,-5,-11,-22,-44,8,15,10
1520336677819564,21,2,7,5,-1,-12,-17,-51
1520336677833601,34,9,3,-1,5,-3,-7,27
1520336677833601,-66,-9,3,-1,1,15,53,-91
1520336677835607,-15,0,-30,-23,-12,-26,-35,-12
1520336677835607,30,22,20,8,2,12,20,-6
1520336677856662,28,0,-10,-6,-8,-17,8,46
1520336677856662,-80,-32,-5,0,7,3,-34,-13
1520336677857665,15,5,4,9,2,1,3,20
1520336677857665,66,11,9,-2,-9,-2,5,23
1520336677869697,-13,4,-9,-4,-4,3,9,12
1520336677869697,53,13,8,6,14,-6,7,73
1520336677878721,-13,-4,3,-1,-31,-25,9,-25
1520336677878721,-48,-10,-2,2,16,-3,-14,-12
1520336677893761,-75,-7,1,8,6,4,-7,-33
1520336677893761,31,-13,-15,-9,3,1,3,7
1520336677895767,22,38,17,-3,-4,5,12,-46
1520336677895767,-2,-38,-21,-10,-6,23,27,-18
1520336677916822,-31,1,-11,-7,1,-7,-13,-44
1520336677916822,10,9,15,17,10,8,8,-25
1520336677917825,46,6,11,-2,-1,8,6,24
1520336677917825,-101,-26,-4,2,-7,-12,18,-30
1520336677929857,4,17,3,-11,0,-13,-40,-46
1520336677929857,-54,-23,-8,8,-7,-3,-3,111
1520336677938881,-58,-2,2,-3,6,8,-24,-76
1520336677938881,-19,-7,-8,-9,-5,2,12,-69
1520336677952919,61,9,6,-4,-3,10,8,1
1520336677952919,-29,0,4,21,6,2,-5,-43
1520336677959937,-6,-11,3,5,8,-23,-13,54
1520336677959937,79,44,6,-2,-6,5,-8,-9
1520336677975980,-51,-58,-9,7,6,20,14,-66
1520336677975980,-64,-3,-7,-10,-10,-2,-13,-23
1520336677977985,104,24,-4,-8,2,16,16,39
1520336677977985,-57,-9,-19,-10,4,8,-20,-4
1520336677990017,22,25,33,23,3,-16,-10,-2
1520336677990017,-62,-44,-19,-13,-7,-11,22,-36
1520336677999041,34,5,-6,1,9,4,-47,-58
1520336677999041,-38,12,19,2,0,6,29,64
1520336678013079,-60,-10,-11,0,2,-5,-11,-20
1520336678013079,101,6,3,-4,1,-26,-75,-86
1520336678020097,29,24,19,2,-3,-3,35,95
1520336678020097,-44,-32,-7,-1,-11,-11,-15,7
1520336678036140,-1,6,0,1,5,7,25,29
1520336678036140,20,9,-6,-7,-5,5,25,87
1520336678038145,19,-19,-23,-10,-7,-8,-13,23
1520336678038145,41,13,2,0,1,-4,-7,-8
1520336678050177,63,11,6,4,-3,-1,32,63
1520336678050177,17,20,5,6,8,12,6,-17
1520336678059201,-42,-30,-12,-5,1,10,-3,-33
1520336678059201,64,0,-4,2,-4,-12,-8,0
1520336678073238,-77,3,-16,-10,-7,-1,-19,-83
1520336678073238,51,47,8,3,0,2,4,0
1520336678080257,-98,-93,-35,-19,-4,3,-4,-4
1520336678080257,-19,18,13,6,-5,24,0,-66
1520336678096300,57,13,5,1,-1,-16,-4,-4
1520336678096300,91,-3,-18,-17,6,11,2,-60
1520336678098305,71,78,36,26,2,-9,12,75
1520336678098305,-101,-68,-20,-3,0,-8,-4,40
1520336678110337,88,2,-10,-3,-4,21,-6,66
1520336678110337,-105,-17,-5,-4,-16,-25,-9,40
1520336678119361,66,3,-2,0,6,7,34,60
1520336678119361,71,41,7,5,-6,-13,-49,24
1520336678133399,23,11,-3,-2,-5,19,10,30
1520336678133399,87,23,5,-1,2,-16,5,5
1520336678140417,-60,-7,-7,-6,-6,-2,10,16
1520336678140417,18,29,9,2,3,-14,6,-65
1520336678156460,-3,5,0,-2,0,-9,13,41
1520336678156460,-99,-34,8,6,10,15,-13,-90
1520336678158465,-41,46,0,-3,-7,-8,-11,-57
1520336678158465,38,-19,-30,-21,-16,-10,6,99
1520336678178518,72,19,15,3,0,-18,22,46
1520336678178518,-101,-30,-17,-7,3,35,20,24
1520336678180524,-76,-28,8,6,-1,-32,-15,85
1520336678180524,57,96,41,19,9,-4,-12,-25
1520336678193559,-90,-107,-49,-18,-6,-3,-25,-65
1520336678193559,95,16,-1,-2,-6,-10,6,34
1520336678200577,69,10,4,6,9,19,25,-62
1520336678200577,51,4,-4,-5,-3,2,-4,-85
1520336678216620,86,10,12,10,3,-12,1,107
1520336678216620,19,4,5,-3,-6,6,6,-13
1520336678218625,77,19,22,11,10,16,-13,14
1520336678218625,-87,-49,-21,-8,-4,-4,6,6
1520336678238678,29,66,29,16,7,-5,3,-64
1520336678238678,-7,-23,-2,3,3,-6,2,38
1520336678240685,-3,-5,-13,-13,-7,-9,-15,-44
1520336678240685,-59,3,14,13,11,22,21,22
1520336678253719,-8,-10,11,8,-6,21,20,-12
1520336678253719,70,66,8,3,11,-1,-21,34
1520336678259734,-41,-29,-10,-3,8,6,8,-26
1520336678259734,-12,-52,-22,-1,-11,-13,-7,-27
1520336678276780,-2,-12,7,4,17,15,4,-16
1520336678276780,-91,5,11,3,-6,0,13,36
1520336678277783,92,10,-4,1,-7,-5,8,63
1520336678277783,-23,-1,-8,-9,-5,-5,7,95
1520336678306860,-40,4,7,6,-4,-6,-1,20
1520336678306860,-81,-67,-18,-3,0,1,8,0
1520336678307863,1,15,7,-2,-4,-1,0,6
1520336678307863,-76,-19,-12,-9,-3,0,5,-6
1520336678312876,-121,-22,-4,3,1,-6,-16,-26
1520336678312876,41,35,-1,-4,-2,-17,-19,-33
1520336678321900,-2,-6,6,3,-4,17,-4,-32
1520336678321900,-17,1,3,-1,-7,-28,0,7
1520336678336940,-14,-46,-11,0,28,13,32,6
1520336678336940,48,40,10,7,-4,-6,2,1
1520336678337943,-103,-60,-26,-11,-4,-6,-34,-29
1520336678337943,57,19,-2,-13,-13,1,-2,44
1520336678358999,97,49,5,-3,-10,-17,-22,-4
1520336678358999,-94,-61,-32,-10,3,0,-3,-18
1520336678361004,70,8,-2,-6,-12,-2,9,-30
1520336678361004,18,21,30,23,16,11,2,-39
1520336678373036,-128,-38,-30,-23,-19,-11,-26,-10
1520336678373036,34,14,17,13,-2,15,26,33
1520336678382060,-54,-1,-11,-21,-23,-3,-4,-32
1520336678382060,62,5,0,17,36,2,6,1
1520336678396097,8,16,4,5,-9,-7,-23,-33
1520336678396097,-9,-28,-14,-27,-9,21,-1,-9
1520336678398103,3,20,11,15,29,-26,25,15
1520336678398103,-85,-61,-16,8,-13,-20,-23,-22
1520336678419159,-21,16,4,6,4,8,1,7
1520336678419159,127,9,-3,6,-7,-15,-13,15
1520336678420161,3,36,14,4,-5,5,-1,13
1520336678420161,5,-81,-28,-27,-7,18,23,13
1520336678432193,-23,7,5,2,11,-12,-5,-22
1520336678432193,28,35,21,6,-4,-2,-7,10
1520336678441217,-58,-9,-8,-1,6,6,13,13
1520336678441217,-21,-12,-29,-20,-19,-15,-1,-21
1520336678456257,25,-20,-1,-7,-10,12,-14,79
1520336678456257,35,17,18,11,-2,5,11,6
1520336678458263,-34,21,14,12,10,-9,6,-10
1520336678458263,83,25,0,-21,-10,27,1,5
1520336678479319,-24,-35,-13,0,-3,-15,14,-29
1520336678479319,-97,-24,-13,17,47,-10,4,-43
1520336678480321,0,-10,-4,-2,-1,12,-9,5
1520336678480321,19,6,12,-10,-57,-1,-11,2
1520336678492353,15,4,2,2,18,10,-3,-5
1520336678492353,-26,22,9,3,17,1,3,13
1520336678501378,20,-26,-17,1,5,6,1,3
1520336678501378,28,54,13,1,14,-5,-1,18
1520336678516417,0,2,0,-17,-31,2,8,-3
1520336678516417,-16,-25,-2,-6,-22,-12,-10,1
1520336678518423,-33,24,15,8,6,5,-16,-39
1520336678518423,25,9,-2,-1,-1,-4,-6,21
1520336678539479,4,19,6,6,3,-2,4,-26
1520336678539479,20,-8,-6,-4,4,8,4,-11
1520336678540482,-18,-15,-14,-13,-16,-12,-5,56
1520336678540482,15,28,22,16,13,-3,-4,-40
1520336678552514,-85,-16,-6,3,10,13,7,-29
1520336678552514,34,-54,-19,-19,-17,-6,-16,-3
1520336678561537,111,27,3,-6,-32,19,8,9
1520336678561537,-77,4,0,-6,5,9,14,-8
1520336678576578,99,43,17,11,17,-7,15,46
1520336678576578,-83,-68,-29,-8,4,-2,-10,-23
1520336678578583,-18,-9,8,20,32,-11,-6,-3
1520336678578583,18,-8,-10,1,17,10,-4,-8
1520336678598636,27,52,18,7,0,11,3,4
1520336678598636,10,-28,-13,-9,-23,-5,-2,21
1520336678600642,-24,-20,-2,-2,-6,0,9,-29
1520336678600642,51,22,-5,-5,4,-10,-9,17
1520336678612674,-8,24,4,-5,-11,-4,-7,0
1520336678612674,34,-26,-5,2,-3,-3,0,6
1520336678621698,26,-23,-4,-6,0,6,-1,7
1520336678621698,-64,-11,-2,2,2,3,4,-3
1520336678636738,-39,-41,-25,-11,-12,-41,-35,-25
1520336678636738,40,42,10,-2,-1,41,2,-4
1520336678637740,18,16,-8,-10,-13,-19,-8,8
1520336678637740,-35,-18,8,9,20,27,21,25
1520336678658796,41,-25,-7,-5,-9,-19,-7,-14
1520336678658796,-32,28,5,0,13,-7,16,8
1520336678660802,14,-11,-7,-5,-4,-30,-30,-35
1520336678660802,-18,5,4,11,9,-22,-3,-8
1520336678672834,7,0,11,9,6,17,10,13
1520336678672834,-54,34,15,-1,-7,-1,1,-8
1520336678681857,-63,-58,-23,-9,-6,13,7,0
1520336678681857,-20,9,-4,-9,-11,-13,-28,-44
1520336678696898,45,-29,-4,4,7,13,19,12
1520336678696898,8,26,7,-1,-15,-15,-26,-5
1520336678697900,-4,-4,-4,-4,1,8,0,-7
1520336678697900,56,2,7,5,2,1,5,22
1520336678726978,29,27,1,-3,-4,3,13,13
1520336678726978,-2,1,-1,1,0,-4,-27,-11
1520336678727980,-7,2,-2,-7,4,7,16,-15
1520336678727980,31,-1,4,2,-5,-9,-16,15
1520336678732994,-37,13,2,1,2,11,11,4
1520336678732994,37,2,6,4,1,24,-9,23
1520336678742018,-59,20,6,-7,-31,-12,-9,-20
1520336678742018,-31,-28,-24,-12,9,7,-3,20
1520336678756055,7,-7,-2,19,22,11,13,-19
1520336678756055,0,12,14,19,13,-4,6,19
1520336678758060,34,27,22,12,6,0,-1,-8
1520336678758060,-36,-26,-7,-1,-10,-2,1,12
1520336678779116,-26,-37,-36,-32,-14,2,-19,-8
1520336678779116,-7,-6,0,-1,-2,-6,7,-19
1520336678780119,-3,-1,11,14,7,6,5,-7
1520336678780119,29,25,2,-1,-5,-7,3,3
1520336678792151,1,3,2,-2,-3,5,8,29
1520336678792151,22,4,-4,-5,-7,-4,29,8
1520336678801175,-34,-17,-11,-7,-2,-8,-27,-20
1520336678801175,42,20,7,5,2,1,6,-14
1520336678816215,3,43,8,-4,-6,-8,-5,9
1520336678816215,-46,-14,-9,-8,-5,-9,-6,-12
1520336678818221,6,12,6,2,8,15,7,17
1520336678818221,6,2,5,1,3,2,3,11
1520336678839276,20,0,-2,-5,-11,-21,-17,-26
1520336678839276,-6,1,-5,-2,-3,12,3,2
1520336678840279,33,-5,1,6,11,1,3,16
1520336678840279,-9,-9,-1,1,-11,14,5,-14
1520336678852311,-3,-13,-2,-1,-6,-28,-29,-15
1520336678852311,1,-3,-3,-7,14,7,17,32
1520336678861335,-17,-17,-11,7,1,-8,-23,-13
1520336678861335,39,25,21,9,1,6,8,20
1520336678876375,-97,-31,-14,-5,-7,4,3,-20
1520336678876375,-3,-12,-9,-7,-7,-10,-20,-15
1520336678878380,8,6,3,-4,0,9,24,6
1520336678878380,-29,-3,-2,-4,-3,-11,6,-11
1520336678899436,1,-10,5,2,3,2,8,1
1520336678899436,17,0,6,4,3,1,-7,-10
1520336678900439,-15,-2,-6,-7,-5,-10,7,2
1520336678900439,21,-22,-4,3,3,1,-4,2
1520336678912471,-44,6,-9,-8,-4,9,-15,17
1520336678912471,25,22,3,0,-4,7,8,-11
1520336678921495,-23,-11,-1,-1,3,-28,-20,-26
1520336678921495,-49,-17,-13,-8,1,16,23,20
1520336678935532,62,18,14,8,1,0,-8,-8
1520336678935532,14,20,5,1,-25,-24,9,8
1520336678942551,-70,-34,-30,-14,13,35,-29,-50
1520336678942551,47,3,1,2,1,-26,-4,2
1520336678958595,-19,-3,-4,-8,-3,9,30,37
1520336678958595,-22,-7,-3,2,5,11,1,-12
1520336678960601,28,30,19,12,-7,-1,47,36
1520336678960601,-40,-16,-7,-2,-3,-12,-74,-38
1520336678972631,-30,-4,-1,1,4,4,-15,-34
1520336678972631,23,11,-3,-5,-5,-16,-11,1
1520336678981655,17,4,-4,-4,-3,-4,12,23
1520336678981655,-7,14,7,0,1,4,4,5
1520336678995692,-3,-17,-1,-2,1,14,15,-4
1520336678995692,33,-1,6,6,6,4,-5,7
1520336679002711,6,-9,-10,-9,-8,-12,-8,-63
1520336679002711,-75,-4,-8,-6,-11,-12,-9,-30
1520336679018754,59,26,15,5,0,-5,4,16
1520336679018754,-29,-32,-7,3,8,19,11,18
1520336679020759,56,11,-2,-6,-6,5,-7,16
1520336679020759,17,3,-1,-2,-3,1,-7,1
1520336679032791,41,10,1,-2,0,-3,35,-16
1520336679032791,-21,-11,-3,-1,-1,-12,-36,-8
1520336679041815,26,10,7,3,3,-1,12,41
1520336679041815,24,2,-5,-4,1,2,14,20
1520336679055852,13,-2,2,1,1,-1,-9,6
1520336679055852,-18,14,10,6,4,-9,-7,-64
1520336679062871,-36,-28,-8,2,2,4,-14,12
1520336679062871,6,12,6,7,-4,12,2,6
1520336679078914,-96,-20,-6,-4,5,-6,1,-10
1520336679078914,127,30,1,-2,-7,-2,6,18
1520336679080919,-102,-7,-2,-1,-5,-2,-25,-21
1520336679080919,28,-10,-8,-6,1,-9,21,55
1520336679092951,40,-6,-6,-4,-8,-4,-13,-5
1520336679092951,-27,-1,2,1,0,-3,-1,-8
1520336679101975,-8,5,8,2,7,10,4,-3
1520336679101975,34,28,1,-6,-7,-2,13,11
1520336679116012,74,2,8,9,-1,3,-16,29
1520336679116012,-10,-4,-4,-5,-5,-19,-15,-15
1520336679123031,12,4,2,-10,-23,-3,27,15
1520336679123031,34,6,-1,16,41,-6,-19,-15
1520336679139074,-31,-11,-2,11,9,-15,5,-14
1520336679139074,-44,-7,-9,-11,-14,20,5,-11
1520336679141079,25,4,9,11,17,24,0,21
1520336679141079,-22,-3,16,-2,-6,-12,2,-27
1520336679161132,92,18,-4,-7,-1,13,8,24
1520336679161132,-105,-35,-20,-9,-3,-10,2,24
1520336679163138,92,6,2,-11,-10,-6,2,-4
1520336679163138,-60,-15,1,-2,-4,12,5,25
1520336679176173,65,21,10,8,9,10,5,-13
1520336679176173,33,6,1,2,-6,-11,-12,8
1520336679182189,-19,1,-5,1,0,-10,-12,21
1520336679182189,-16,-1,0,-2,-10,8,30,-15
1520336679199234,-80,-19,-10,-10,1,-6,-28,-53
1520336679199234,-69,-28,-1,12,0,-12,-15,-35
1520336679200237,63,32,-7,-5,0,-14,16,-10
1520336679200237,-24,-7,-3,-7,-25,-14,-41,-22
1520336679221292,-55,-23,-10,-9,6,25,40,28
1520336679221292,36,16,10,3,9,6,16,31
1520336679223298,-29,-11,4,11,18,11,-5,-1
1520336679223298,54,24,6,0,-6,-3,15,17
1520336679236333,39,6,-3,-5,-12,-12,-31,-9
1520336679236333,-54,-15,-4,2,7,4,10,5
1520336679242349,-34,-1,4,0,-5,-4,8,-14
1520336679242349,21,-4,-8,-6,-1,6,-11,4
1520336679259394,-11,4,2,3,-1,-14,-11,-15
1520336679259394,35,4,-7,-8,1,4,9,9
1520336679260397,66,7,3,-8,-5,5,-1,37
1520336679260397,-34,-12,1,12,3,1,-10,-2
1520336679281452,29,-10,7,18,15,24,32,4
1520336679281452,-11,4,-5,-4,-9,-29,-17,-32
1520336679283458,46,8,-2,-4,-5,-23,-19,4
1520336679283458,-45,-13,-8,-12,2,4,0,-10
1520336679295490,26,16,3,-5,-24,-8,23,18
1520336679295490,92,6,4,11,13,21,-38,-28
1520336679304514,-58,-23,-2,7,-12,-24,-3,-4
1520336679304514,-53,6,4,4,27,25,-3,-13
1520336679318551,-13,-19,-14,-13,-22,-20,-12,-8
1520336679318551,9,10,7,2,13,13,39,42
1520336679320557,-91,-13,-8,-5,-2,12,-10,-8
1520336679320557,20,6,0,-5,-7,-10,9,-12
1520336679341612,-54,-8,0,-3,-1,-3,-7,-16
1520336679341612,13,6,2,-3,-4,0,3,3
1520336679342615,77,21,3,4,1,0,-6,16
1520336679342615,-35,-12,-8,-4,-6,-10,14,9
1520336679354647,-58,-3,1,1,7,1,-31,-2
1520336679354647,91,5,0,-2,-3,6,43,48
1520336679371693,-18,9,2,-1,2,-26,-31,-39
1520336679371693,39,4,-1,-1,-2,23,21,10
1520336679378711,-11,8,2,9,-1,-20,-50,-43
1520336679378711,-58,-13,-3,-4,-2,-7,-15,-7
1520336679380717,-14,-6,-5,-7,-8,5,6,-15
1520336679380717,-29,-18,-3,-2,-2,-6,-10,-8
1520336679401772,13,-2,3,6,6,8,14,26
1520336679401772,45,20,5,0,-2,1,21,12
1520336679402775,-49,-16,-5,-1,-4,-8,-10,-3
1520336679402775,-2,-12,-10,-4,-6,-8,-24,-40
1520336679414807,37,6,-2,-4,3,-3,11,45
1520336679414807,23,11,6,-3,-20,-9,12,25
1520336679423832,10,-10,-7,-1,13,15,16,8
1520336679423832,16,6,5,7,3,1,-5,-21
1520336679438871,2,-4,1,-3,-3,-11,8,22
1520336679438871,-44,-9,-5,-4,-3,-6,-13,-25
1520336679440877,-16,-9,-1,-1,-3,2,7,17
1520336679440877,40,18,7,1,-16,-1,15,28
1520336679461932,10,15,3,6,26,12,-26,-37
1520336679461932,-59,-33,-8,1,2,7,11,-26
1520336679462935,41,8,1,4,3,7,16,14
1520336679462935,-36,-19,-12,-6,-3,-5,2,-7
1520336679474967,-46,-7,-3,-4,-12,-4,10,15
1520336679474967,30,10,-2,-1,2,-4,-23,-21
1520336679483991,13,-1,6,7,6,9,26,1
1520336679483991,10,6,1,4,3,-2,-2,14
1520336679499031,27,1,-7,-7,-10,-6,-24,-1
1520336679499031,-34,-1,0,0,3,-3,-8,-12
1520336679501037,25,-2,-1,-3,-3,4,-5,5
1520336679501037,0,8,9,5,4,0,20,14
1520336679521090,-15,-14,-9,-3,-3,-7,-5,-19
1520336679521090,52,12,-4,-5,-1,10,-8,-4
1520336679523095,-33,-4,0,1,1,8,23,1
1520336679523095,96,21,5,-1,4,1,-4,15
1520336679535127,-95,-49,-27,-13,-8,-5,-13,-61
1520336679535127,23,9,10,7,2,3,16,44
1520336679551170,-17,-7,-8,0,-4,1,5,-19
1520336679551170,14,2,3,1,2,-9,-2,-8
1520336679559191,25,1,4,0,-3,11,8,24
1520336679559191,-41,10,10,2,0,-7,-17,-32
1520336679560194,44,1,1,0,3,2,-4,-11
1520336679560194,-27,-8,-7,0,-1,0,-4,-23
1520336679581250,82,21,12,6,-1,-5,-2,18
1520336679581250,-91,-33,-22,-10,-8,-10,-16,-11
1520336679583255,1,10,6,2,5,-8,-5,8
1520336679583255,10,5,2,1,4,4,14,14
1520336679595287,49,-3,-3,-3,-3,10,10,-10
1520336679595287,-6,0,-2,0,0,-19,-5,-13
1520336679604311,-27,-5,-1,-3,-4,-18,-15,18
1520336679604311,11,6,-3,-3,2,33,6,11
1520336679619351,-1,14,8,2,-4,-39,13,20
1520336679619351,61,7,2,-3,-1,3,4,5
1520336679620354,-79,-22,-11,-3,-3,-2,-1,-1
1520336679620354,-28,-11,-5,-3,-7,-20,-15,-27
1520336679641410,-13,12,2,0,0,14,17,27
1520336679641410,-18,-2,3,-1,-1,1,-13,-10
1520336679643415,56,10,-2,-2,-2,15,-5,6
1520336679643415,-15,-16,-7,0,0,-19,-18,-39
1520336679655447,-9,4,0,2,2,10,-9,-23
1520336679655447,-11,-5,-3,-3,-4,-16,-11,1
1520336679664472,30,10,7,1,3,16,-6,-23
1520336679664472,-60,-18,-4,-2,-2,6,11,33
1520336679679511,-42,7,-4,-6,-1,-2,-24,-53
1520336679679511,-57,-10,-8,-1,0,16,39,25
1520336679680514,17,-4,-4,-4,-6,-11,-34,-6
1520336679680514,4,-6,1,1,-1,-6,-7,-8
1520336679701570,6,-6,3,6,7,4,-3,0
1520336679701570,50,2,3,3,1,-2,15,15
1520336679703575,-31,-4,-3,2,2,13,12,-5
1520336679703575,5,-3,-8,-6,-9,-29,-4,-4
1520336679715607,-7,1,7,3,1,5,-6,-14
1520336679715607,24,-8,-5,-5,-3,11,-6,9
1520336679724632,78,29,16,9,7,-15,3,14
1520336679724632,-74,-42,-18,-10,-9,-5,6,-32
1520336679737666,27,1,-17,-14,-9,-3,-1,36
1520336679737666,52,6,-6,-6,-5,-13,-25,-45
1520336679746690,-12,-4,2,0,-2,4,-2,-23
1520336679746690,19,16,12,8,6,13,-11,2
1520336679761730,1,-4,3,1,-2,11,5,-1
1520336679761730,-4,10,2,0,-2,-6,25,51
1520336679762733,-59,-5,-9,-5,-5,-8,-14,-30
1520336679762733,121,26,9,2,-1,-9,-5,24
1520336679783789,-25,-2,7,3,6,17,40,27
1520336679783789,-56,-14,-6,1,-1,7,-7,20
1520336679785794,47,7,-7,-15,-19,-26,5,47
1520336679785794,-22,2,3,7,8,8,-9,-28
1520336679798829,-59,-7,0,0,-1,-2,-14,-32
1520336679798829,-10,-2,4,2,6,7,6,-8
1520336679804845,27,-1,-3,-2,-1,-7,23,18
1520336679804845,-56,-18,-2,0,0,4,-9,12
1520336679821890,113,25,8,5,2,-2,13,26
1520336679821890,-65,-2,1,-4,-5,-2,2,-8
1520336679822893,-65,-13,-17,-6,-2,5,-15,-30
1520336679822893,43,-5,-2,-2,-1,1,-1,11
1520336679834925,-24,-5,2,0,2,4,-3,4
1520336679834925,20,7,6,-2,3,9,2,26
1520336679843949,6,0,6,5,2,7,29,-14
1520336679843949,-70,-4,-10,-3,-4,-22,-10,-14
1520336679858989,-54,-10,-8,-6,-3,0,2,-3
1520336679858989,57,13,1,2,1,12,-6,-9
1520336679860994,25,-8,3,4,5,2,-16,-9
1520336679860994,-22,17,8,1,0,8,16,14
1520336679881047,30,-12,-1,1,2,27,11,18
1520336679881047,-2,9,5,2,-14,-25,-1,-35
1520336679883053,-52,-22,-13,-7,7,5,-24,29
1520336679883053,20,-1,-4,-1,-1,-26,9,9
1520336679904109,90,29,10,9,3,-17,9,14
1520336679904109,-9,-4,-4,-1,0,-5,-6,-7
1520336679906114,-112,-17,-13,-10,-12,-4,-20,-66
1520336679906114,119,10,7,-1,2,14,5,31
1520336679918146,-98,-16,-7,-7,-5,-9,-11,-20
1520336679918146,79,9,6,11,4,-1,-2,6
1520336679925165,-49,-7,4,4,2,3,13,2
1520336679925165,45,6,2,0,3,8,-2,11
1520336679941207,6,-12,-7,-3,-5,-14,3,27
1520336679941207,-28,12,-11,-6,-4,-1,-4,-25
1520336679943213,-32,-2,-2,-5,-7,0,-6,-6
1520336679943213,49,12,2,-2,-5,-1,12,14
1520336679964269,38,24,26,17,10,17,4,16
1520336679964269,-116,-83,-41,-19,-6,3,-16,-26
1520336679965272,127,42,14,5,0,-19,-2,27
1520336679965272,-44,4,12,8,4,4,17,77
1520336679978306,-109,-41,-22,-12,-7,-18,-16,-94
1520336679978306,114,65,32,10,12,31,24,1
1520336679985325,-27,-36,-27,-18,-15,-16,-20,-15
1520336679985325,6,-9,5,5,3,13,2,-26
1520336680001367,-26,7,4,2,-2,-6,-6,-20
1520336680001367,-35,-8,15,11,11,7,11,39
1520336680003373,-83,-2,4,4,5,14,28,0
1520336680003373,-14,17,5,4,-7,44,53,-36
1520336680024429,74,-13,-10,-6,1,-38,-62,-16
1520336680024429,-19,3,4,1,0,-12,13,-4
1520336680025432,34,7,7,3,5,18,-15,-32
1520336680025432,-128,-42,-19,-9,1,12,10,18
1520336680037463,21,44,18,9,-4,-5,7,25
1520336680037463,-128,-47,-15,-8,-5,8,-17,-102
1520336680046488,79,21,6,-1,1,1,9,86
1520336680046488,-20,-11,-11,-4,-4,-19,-17,10
1520336680061527,-42,-3,-16,-13,-7,1,-7,-57
1520336680061527,-36,9,7,3,0,-26,-32,-5
1520336680063533,96,26,8,14,17,45,43,-71
1520336680063533,-62,-25,-21,-11,-5,-11,-38,-73
1520336680084589,-87,-43,-15,-8,-6,-7,-4,9
1520336680084589,55,-4,-3,-3,-3,-5,-8,9
1520336680085591,58,18,8,2,-1,-5,12,53
1520336680085591,3,15,11,6,6,-4,-13,-21
1520336680098626,-39,-23,-2,2,6,17,13,-3
1520336680098626,-38,-29,-13,-9,-8,-5,9,26
1520336680105645,-55,-13,-3,1,-2,-10,-15,-24
1520336680105645,-94,-11,1,-1,3,0,2,-43
1520336680121688,68,7,3,1,-1,7,34,69
1520336680121688,-4,14,3,3,-13,-38,-55,-61
1520336680122690,-62,-21,5,8,21,3,-12,44
1520336680122690,5,-12,-23,-13,-11,-9,-10,-44
1520336680143746,2,24,13,10,17,8,22,18
1520336680143746,113,58,1,-3,-1,2,23,60
1520336680145752,-84,-46,-17,-14,-17,-20,-28,2
1520336680145752,29,11,13,1,0,-5,-6,6
1520336680158786,11,6,14,15,10,20,21,31
1520336680158786,-6,-1,-5,-4,-1,7,8,25
1520336680160792,-4,-15,-1,1,-2,-6,-7,-22
1520336680160792,49,25,1,-1,-1,2,2,20
1520336680181848,-46,-2,-19,-13,-13,-11,-13,-34
1520336680181848,-2,5,13,14,12,13,6,-46
1520336680182850,70,-1,-32,-27,-25,-24,-18,-26
1520336680182850,-113,-26,1,2,5,-1,-2,27
1520336680203906,10,16,5,1,-6,-9,-15,-10
1520336680203906,-14,12,10,7,6,8,7,-41
1520336680205912,-6,-25,-12,-4,1,7,4,-37
1520336680205912,119,4,0,-2,0,-6,-12,-15
1520336680217944,-29,2,-9,-12,-6,6,9,19
1520336680217944,127,12,11,5,-6,-28,22,120
1520336680226968,-94,-10,10,8,-8,4,-3,-70
1520336680226968,43,10,-2,2,15,-5,-6,27
1520336680241005,-8,4,0,-2,-3,6,7,-2
1520336680241005,-106,-31,8,9,16,18,4,-40
1520336680243010,108,35,3,-4,-8,-9,15,96
1520336680243010,-25,8,10,4,-6,-3,-2,-6
1520336680264066,-89,-60,-25,-10,-3,-2,-3,-28
1520336680264066,-43,-4,-1,0,3,17,8,6
1520336680266072,-51,9,14,14,6,-2,2,29
1520336680266072,-35,0,-6,-4,-6,-11,-30,-44
1520336680278104,14,20,8,3,3,-2,-1,-14
1520336680278104,98,-28,-33,-27,-17,-2,-6,31
1520336680287128,-73,-13,-1,-4,4,8,10,-26
1520336680287128,6,-11,-2,-2,0,-6,4,22
1520336680301165,-31,18,32,27,5,4,13,-43
1520336680301165,37,-11,-30,-24,-8,-16,-38,25
1520336680303170,-39,8,9,11,10,15,11,-17
1520336680303170,127,28,29,17,-3,0,29,80
1520336680324227,-30,-28,-21,-12,0,-9,-41,-78
1520336680324227,25,-1,8,-2,2,37,47,43
1520336680325229,62,49,25,10,6,-22,-6,43
1520336680325229,-77,-55,-48,-20,-13,-6,10,-42
1520336680337261,41,13,5,-5,-6,-18,-43,18
1520336680337261,36,18,11,12,9,7,1,-35
1520336680346285,79,-15,-3,-5,-6,-9,1,-22
1520336680346285,-120,41,11,-1,-2,-1,-4,29
1520336680361325,-14,-55,-33,-17,-6,-3,-4,20
1520336680361325,-35,13,-2,-1,-5,-11,-17,-66
1520336680363331,26,-8,8,7,6,15,12,0
1520336680363331,5,-18,7,8,7,3,-6,-38
1520336680384386,54,-20,-11,-6,-4,2,12,25
1520336680384386,-96,8,1,-5,-5,-4,-18,-11
1520336680385389,92,3,-4,-1,-2,-14,4,-4
1520336680385389,24,13,2,3,-5,3,-11,-16
1520336680397421,65,-2,-8,-13,2,-7,-1,54
1520336680397421,-128,-44,0,9,10,0,13,23
1520336680406445,2,36,-8,-8,-11,-10,-24,-28
1520336680406445,-16,-33,-26,-18,-7,-10,-13,-48
1520336680421485,-85,-7,8,3,-8,-3,3,34
1520336680421485,14,18,13,1,-2,-3,-9,-13
1520336680423491,-75,-49,-22,5,8,1,-9,-10
1520336680423491,19,20,23,14,6,11,9,30
1520336680444546,-31,15,-4,-5,-6,5,13,-17
1520336680444546,22,-9,-6,-4,-5,0,-24,-4
1520336680445550,-43,-4,0,-5,-5,3,-3,20
1520336680445550,-8,-3,-3,-3,0,-5,5,0
1520336680457581,12,15,9,7,4,12,14,3
1520336680457581,-8,-4,-10,-19,-13,-12,2,-3
1520336680466605,-14,9,0,5,5,-2,-4,-3
1520336680466605,39,22,1,-2,3,7,-2,7
1520336680481645,43,12,7,4,2,0,-6,3
1520336680481645,31,27,6,11,5,-4,0,-10
1520336680483651,-101,-42,-5,-6,-1,10,14,-14
1520336680483651,95,-22,-24,-31,-17,-12,-10,21
1520336680503704,68,20,16,19,11,9,-1,-19
1520336680503704,-7,-21,-21,-10,-10,-13,-8,-8
1520336680505709,79,28,14,-9,-4,-6,0,10
1520336680505709,-56,-5,6,32,-2,15,1,-21
1520336680517741,-5,-5,-2,5,14,-12,10,-10
1520336680517741,61,-15,-10,-5,-6,-8,4,5
1520336680526765,13,5,-8,-16,-13,7,-8,-1
1520336680526765,-28,-2,3,-15,-2,-17,8,18
1520336680541805,50,23,7,8,-11,20,-2,-6
1520336680541805,17,2,4,11,15,-10,15,-5
1520336680542808,-82,3,-6,2,19,-2,-36,-22
1520336680542808,72,-28,-8,2,-3,-12,10,6
1520336680563864,58,2,-3,2,1,17,1,10
1520336680563864,24,15,15,-1,-4,2,8,24
1520336680565869,23,-1,-9,-6,-13,4,21,52
1520336680565869,-31,16,12,7,13,36,-1,10
1520336680577901,-106,-22,-19,-26,-22,-58,-31,-13
1520336680577901,-32,13,2,-8,-2,17,-4,-5
1520336680586925,-36,-22,15,28,14,-17,15,10
1520336680586925,67,12,-7,-4,1,3,-19,-21
1520336680601965,18,36,4,-24,-15,-15,10,14
1520336680601965,-96,-49,-15,-3,6,32,25,4
1520336680602968,-37,-14,0,18,-24,-3,-1,-28
1520336680602968,31,8,-3,-4,17,-4,-10,0
1520336680624024,-55,-5,-10,4,-2,1,-38,-44
1520336680624024,-26,10,-4,-11,-21,-19,-19,-32
1520336680626029,-29,-1,0,5,15,-12,5,-14
1520336680626029,-45,-16,-5,1,-1,10,22,15
1520336680638061,12,24,5,-1,4,9,12,14
1520336680638061,-36,-11,6,7,11,4,-2,5
1520336680653101,60,-8,-14,-13,-14,-1,-11,8
1520336680653101,-20,13,10,2,-9,5,3,21
1520336680661122,-38,1,10,9,12,6,38,23
1520336680661122,-50,-32,-9,2,-2,-4,-14,0
1520336680663128,-44,31,26,-8,-3,14,-14,-16
1520336680663128,-48,-44,-23,-15,3,-39,-19,3
1520336680684184,-64,-20,-3,-10,-7,32,7,1
1520336680684184,57,18,15,30,4,-8,7,0
1520336680685186,22,3,0,-15,-8,23,9,-18
1520336680685186,-52,8,-4,-3,-58,-67,-49,-52
1520336680697219,5,-8,-8,-8,31,20,-7,-4
1520336680697219,47,38,10,29,63,20,54,35
1520336680706243,-66,-40,-15,0,-5,-9,-70,-39
1520336680706243,40,35,14,-7,-1,10,13,13
1520336680721283,-39,-28,-1,13,-13,-19,-10,-12
1520336680721283,88,32,14,-2,-17,4,-10,14
1520336680723288,35,-33,-11,1,24,4,32,25
1520336680723288,31,-9,-14,-18,-22,-4,-7,4
1520336680744344,16,0,3,0,-7,-7,2,9
1520336680744344,53,22,5,1,4,8,-1,-9
1520336680745347,-61,3,19,14,13,13,60,49
1520336680745347,9,-1,-2,-19,-14,-2,-26,-12
1520336680757379,-23,-19,-3,22,10,-13,39,3
1520336680757379,76,24,-18,-42,-28,-20,-37,17
1520336680766403,45,16,-2,-27,-16,-13,-21,2
1520336680766403,5,13,14,31,11,10,27,10
1520336680780440,44,16,13,21,45,30,-3,18
1520336680780440,-58,0,9,-13,-59,1,32,16
1520336680787459,9,-17,-16,58,70,2,-16,-37
1520336680787459,0,14,6,-1,43,0,32,33
1520336680804504,44,14,7,19,-7,-3,-19,-29
1520336680804504,-127,-53,-17,-1,19,31,3,-23
1520336680805507,127,39,0,-27,-59,-14,12,32
1520336680805507,-98,-21,-11,-8,4,16,1,6
1520336680817539,-75,-18,-6,-12,-19,-26,-8,-21
1520336680817539,-3,-13,2,-4,-1,-9,-7,4
1520336680826563,-63,-32,-18,-19,-7,5,-5,-12
1520336680826563,9,7,5,9,4,7,-4,5
1520336680840600,44,13,-8,-29,-24,-2,3,15
1520336680840600,14,-3,0,6,7,-5,6,15
1520336680847619,55,20,0,-21,-22,-14,19,7
1520336680847619,-70,-13,-5,1,5,-9,-37,-57
1520336680863662,26,6,6,26,21,-15,-27,11
1520336680863662,-24,-8,-3,11,23,36,35,-10
1520336680865667,-7,6,-4,-16,-49,14,-1,-13
1520336680865667,13,18,-8,-106,-109,-25,-26,-23
1520336680877699,19,-19,11,88,85,16,18,29
1520336680877699,-38,8,6,37,92,31,-24,-42
1520336680886723,-82,-23,-1,19,26,-21,15,-3
1520336680886723,66,5,-2,2,-15,28,2,9
1520336680900760,-12,-19,-14,-52,-72,-23,-11,-6
1520336680900760,45,12,5,-17,-35,-31,-13,-12
1520336680907779,80,-8,1,7,4,7,11,43
1520336680907779,-52,14,10,24,21,-9,-8,-21
1520336680923822,126,12,-5,-29,-22,10,18,63
1520336680923822,-89,-28,-21,-2,-1,2,15,-50
1520336680925827,74,41,8,-17,-14,4,-28,31
1520336680925827,21,-4,2,6,-3,-19,12,1
1520336680937859,-42,-2,-2,-19,-12,2,-5,-19
1520336680937859,22,7,3,30,-10,-10,4,32
1520336680946883,-50,-1,4,24,0,-9,-2,-35
1520336680946883,14,-10,-4,35,66,24,14,-15
1520336680960920,-24,10,0,-25,-6,10,-10,-7
1520336680960920,24,0,-7,-23,-30,-7,1,14
1520336680967939,-32,14,8,-1,10,-6,0,-23
1520336680967939,-39,-38,-6,23,-7,23,2,11
1520336680983981,-58,-9,-5,-10,20,11,16,-9
1520336680983981,30,2,-5,-20,-25,-43,-47,-23
1520336680985987,-4,-31,-13,-6,6,16,9,-6
1520336680985987,-83,-11,-8,-4,-1,-6,6,-14
1520336681006040,0,-2,-1,-6,-16,-3,-4,-11
1520336681006040,32,-7,0,-4,-3,4,-18,-20
1520336681008046,28,20,10,4,6,0,2,33
1520336681008046,43,12,7,4,6,-5,1,-11
1520336681021080,10,2,-9,-26,-24,-5,31,-11
1520336681021080,0,3,-1,-2,-18,24,-26,-15
1520336681028099,1,5,5,18,25,-12,-13,-18
1520336681028099,26,-1,4,26,25,34,62,12
1520336681044142,-11,4,-1,-6,5,-5,-51,-27
1520336681044142,13,0,-3,-5,-2,-10,18,11
1520336681046147,-22,11,5,-6,18,20,-5,-25
1520336681046147,-7,-7,-4,-4,-3,0,-4,21
1520336681066200,-3,7,-10,-2,-6,-10,-8,-16
1520336681066200,-8,1,8,-3,-6,-11,5,16
1520336681068205,-55,0,13,11,2,15,12,7
1520336681068205,49,0,-17,-14,-5,-12,3,24
1520336681081240,-28,-10,8,8,0,4,15,-2
1520336681081240,32,17,-12,-15,-10,-19,-22,45
1520336681087256,-33,9,-8,-16,-15,-8,-23,-32
1520336681087256,-18,-10,4,6,10,0,0,-1
1520336681104301,-35,-8,5,8,-4,3,-3,6
1520336681104301,-29,-19,-12,-8,-3,-7,11,-30
1520336681105305,54,12,6,1,-6,-4,7,53
1520336681105305,18,13,-2,-30,-18,-2,-14,-27
1520336681126360,-15,-8,-1,46,2,-7,4,2
1520336681126360,-12,1,7,9,49,38,9,-9
1520336681128366,41,-5,-3,-7,-31,-21,3,6
1520336681128366,-38,0,3,8,38,1,-13,-4
1520336681140398,30,3,-1,-12,-18,-1,6,32
1520336681140398,-28,-7,-3,7,4,-16,-7,-21
1520336681149422,-43,8,1,-3,-3,4,-20,-17
1520336681149422,-76,-35,-2,6,2,2,-10,-5
1520336681164461,89,17,2,-9,-5,-12,-2,11
1520336681164461,10,-12,1,-1,-5,-6,17,48
1520336681165464,-54,-2,-9,-8,2,6,-15,-53
1520336681165464,33,17,-1,-2,-19,-19,-14,-16
1520336681186520,33,13,7,10,13,7,0,-7
1520336681186520,-82,-9,8,-2,-8,4,14,-3
1520336681188525,55,7,-8,-7,-2,-7,-6,65
1520336681188525,-34,3,0,7,7,6,-1,-46
1520336681200557,84,-5,-5,-8,-3,8,17,18
1520336681200557,-26,1,-3,-9,-10,-11,-18,-9
1520336681209582,1,-1,-1,-6,0,10,43,-9
1520336681209582,46,7,4,3,-9,-24,-43,26
1520336681223619,-32,-2,0,12,8,-10,-28,-24
1520336681223619,25,-2,8,9,7,-4,8,6
1520336681225625,-46,-11,-15,-13,0,-9,-7,-15
1520336681225625,49,26,10,-10,-10,16,30,31
1520336681246680,-128,-51,-4,14,11,16,11,-23
1520336681246680,55,11,-14,-19,-23,-22,-21,15
1520336681247683,-83,-33,-8,4,5,9,1,-18
1520336681247683,23,12,4,-2,1,2,20,-7
1520336681259715,22,10,11,-1,-1,-1,-11,-36
1520336681259715,-27,7,-7,-3,-5,-6,-10,13
1520336681268739,-2,-4,1,-1,3,3,9,18
1520336681268739,-13,-5,-4,6,-1,-2,-1,22
1520336681283779,18,-1,-9,-14,-8,0,8,20
1520336681283779,26,1,6,4,4,3,3,14
1520336681285784,12,-3,-9,-6,-8,-16,-20,-37
1520336681285784,5,5,4,7,3,7,6,9
1520336681306841,16,3,0,-7,4,14,19,38
1520336681306841,-55,-10,2,4,-1,-7,16,-20
1520336681307843,67,0,-22,-23,-11,-15,-31,-1
1520336681307843,109,18,8,-15,-10,11,7,32
1520336681319875,-89,19,33,54,12,20,-20,-17
1520336681319875,107,12,23,23,12,-10,50,28
1520336681328899,-79,-49,-25,-4,4,-15,-33,-30
1520336681328899,-10,-8,-9,-14,-2,1,-2,-2
1520336681343939,73,19,-25,-56,-23,4,-1,15
1520336681343939,-108,-23,5,31,4,-7,-22,9
1520336681345944,127,24,12,13,6,7,20,-66
1520336681345944,-59,-7,-7,1,4,-5,4,96
1520336681367000,-38,-14,-6,-9,-8,-7,-4,-25
1520336681367000,2,-15,-8,-9,-5,1,-3,4
1520336681368003,50,26,12,2,2,10,12,18
1520336681368003,-33,-20,-5,8,2,2,-3,-35
1520336681380035,124,40,16,10,7,-20,-14,21
1520336681380035,-64,-50,-29,-21,-8,4,-5,-27
1520336681389059,-58,4,5,3,1,6,-19,10
1520336681389059,36,3,-1,-2,-4,-5,-10,-43
1520336681404099,-26,6,2,7,5,10,14,32
1520336681404099,-80,-1,0,-18,-1,3,-10,-30
1520336681406105,4,-7,15,12,-17,1,11,15
1520336681406105,73,19,-7,1,-13,-40,-5,-9
1520336681426158,-95,-24,-3,14,55,13,11,5
1520336681426158,-10,35,-5,-10,-7,3,-15,0
1520336681433176,-48,-21,-2,-2,-12,8,11,-1
1520336681433176,-46,1,9,23,42,-10,-17,-29
1520336681440195,60,26,9,4,-11,0,0,21
1520336681440195,38,-5,8,8,7,15,40,-20
1520336681449219,1,14,-14,-15,-5,-2,-6,41
1520336681449219,-1,-3,6,-4,-13,2,0,-12
1520336681464259,-83,-36,-18,-21,-18,-22,-8,-38
1520336681464259,-10,-7,0,6,9,7,-40,-18
1520336681465262,-46,3,3,3,-4,-9,6,-2
1520336681465262,29,10,-1,5,1,9,3,24
1520336681486318,95,-7,4,1,0,4,12,-1
1520336681486318,66,12,-24,-25,-22,-12,-3,23
1520336681488323,-33,-33,-3,1,7,-4,3,-14
1520336681488323,78,27,21,14,9,20,-10,-17
1520336681500355,-54,17,3,-6,-9,6,7,3
1520336681500355,24,-18,-4,10,-1,-15,4,4
1520336681509379,104,28,6,-18,-6,-34,-11,30
1520336681509379,-128,-28,-5,12,2,29,16,-27
1520336681524419,-46,-17,-13,-14,-16,-11,17,4
1520336681524419,66,15,4,7,10,11,-30,6
1520336681525422,-41,14,3,0,2,-5,-19,-39
1520336681525422,63,-9,-3,-4,-11,-10,2,31
1520336681546478,-40,-9,-10,-9,-5,-6,-8,16
1520336681546478,40,37,21,7,2,0,24,12
1520336681548483,46,5,-2,2,-18,-3,-7,18
1520336681548483,-45,-21,-6,-6,21,0,-6,-25
1520336681560515,83,36,-6,-13,-13,-23,-15,-2
1520336681560515,21,-5,3,6,1,1,17,-15
1520336681569539,127,38,9,12,9,8,14,34
1520336681569539,-60,-29,-23,-13,-12,-7,-2,-11
1520336681584579,-54,13,19,8,3,-12,-11,-59
1520336681584579,18,2,0,-2,-2,11,5,21
1520336681585582,-128,-38,-30,-30,-27,-6,-1,2
1520336681585582,-35,-3,15,41,36,5,-9,-71
1520336681606638,81,-2,-4,5,8,8,1,18
1520336681606638,51,45,-3,-20,-17,2,-16,41
1520336681608643,34,-18,11,27,25,25,-5,28
1520336681608643,-62,9,-13,-25,-20,-1,25,8
1520336681619672,99,-3,-6,-14,-21,-10,-10,-16
1520336681619672,-35,-43,-10,5,5,-19,7,8
1520336681629699,21,15,6,2,5,9,-11,-5
1520336681629699,20,16,-1,-13,-9,-10,-5,19
1520336681643736,-69,-3,18,14,8,8,-12,-7
1520336681643736,-12,3,-14,-7,-9,-7,-14,-34
1520336681649752,-107,-17,-6,2,5,-1,35,-42
1520336681649752,82,28,13,5,-5,-5,0,44
1520336681666798,-128,-46,-21,-6,-5,-18,-9,14
1520336681666798,18,8,17,3,4,14,9,-35
1520336681667801,97,74,4,-3,3,-4,-9,-20
1520336681667801,27,-19,5,12,6,30,27,32
1520336681679832,-86,16,-2,-7,-6,-13,2,8
1520336681679832,88,-6,-13,-18,-15,-12,-32,30
1520336681688857,-21,5,17,12,12,32,19,-48
1520336681688857,11,-11,8,9,0,-41,-9,19
1520336681703896,103,5,-9,-11,-3,19,-10,19
1520336681703896,-75,-5,-1,-22,-29,31,32,-41
1520336681709912,-18,9,12,32,34,-26,-32,-27
1520336681709912,-76,-41,-15,-17,-14,14,29,-6
1520336681726958,-67,7,2,8,8,-15,-52,-40
1520336681726958,7,1,-3,3,1,-15,-5,30
1520336681727961,127,25,4,-4,-6,10,22,54
1520336681727961,-10,-1,-10,-6,-8,-5,-12,-53
1520336681739993,-59,-17,-2,-6,1,4,10,-14
1520336681739993,-65,-3,9,-3,11,9,4,17
1520336681749017,-128,-76,-32,4,-10,-8,9,17
1520336681749017,6,7,10,1,6,-6,-19,-32
1520336681763054,-44,10,11,2,-3,17,27,-13
1520336681763054,49,5,1,12,8,-6,-7,30
1520336681770072,-64,-43,-50,-34,-18,-25,-15,18
1520336681770072,3,-7,6,-6,-12,-1,-7,34
1520336681786115,13,-16,-8,-15,0,21,20,7
1520336681786115,-5,2,12,32,19,-16,-12,-22
1520336681788120,76,26,16,9,7,15,48,35
1520336681788120,-79,-38,-22,-30,-18,-13,-24,-26
1520336681800152,83,11,-3,22,7,-10,-47,33
1520336681800152,-17,-2,5,8,6,27,-9,-22
1520336681809177,67,18,21,6,-18,-12,-13,-52
1520336681809177,1,6,4,-2,20,12,20,40
1520336681823214,127,22,3,-20,-15,11,33,39
1520336681823214,-90,-55,-19,4,6,-28,-17,-60
1520336681830232,10,9,10,9,6,4,4,46
1520336681830232,-75,-19,-13,-6,-12,3,-15,31
1520336681846276,98,24,4,4,-2,-19,3,8
1520336681846276,58,24,6,-2,0,0,5,74
1520336681848281,-117,-59,-26,-25,-17,-5,-22,-24
1520336681848281,84,31,9,7,0,-17,-4,-61
1520336681860313,56,4,-7,0,0,-4,11,88
1520336681860313,-41,2,11,-4,-5,26,28,-104
1520336681869337,-85,-20,1,7,16,-25,-17,-45
1520336681869337,-43,17,-19,-8,-6,10,12,8
1520336681883374,-32,-8,3,4,-2,-10,-24,-91
1520336681883374,17,15,1,-21,-9,-13,19,33
1520336681890392,-8,7,14,6,0,-3,-19,34
1520336681890392,4,6,11,35,13,6,-3,-12
1520336681906436,63,11,-3,0,2,2,7,-18
1520336681906436,-104,-6,-12,-6,2,19,22,27
1520336681908441,56,16,-1,-14,-20,-12,12,-1
1520336681908441,-1,-4,-3,-10,3,-18,-8,50
1520336681929497,-83,-11,-3,2,-1,35,4,-52
1520336681929497,-28,-16,-18,-12,-11,-52,-28,-30
1520336681930499,10,-2,0,-2,-14,-5,2,-13
1520336681930499,94,25,9,7,13,11,6,-67
1520336681943534,-70,-3,8,5,6,-4,14,-67
1520336681943534,-99,-56,-41,-20,-10,10,-32,-88
1520336681950553,24,2,13,6,-1,-60,-13,14
1520336681950553,20,-2,-2,-7,-28,60,43,44
1520336681966595,5,-30,-26,-24,-66,-90,-78,12
1520336681966595,52,40,21,21,57,5,-13,31
1520336681968601,28,-28,-14,-8,10,-20,-9,-35
1520336681968601,-16,0,7,14,21,26,37,13
1520336681988654,-20,-8,0,0,13,32,19,-10
1520336681988654,6,16,14,6,-24,0,-2,18
1520336681990660,56,0,-5,-10,-13,-1,-17,12
1520336681990660,-59,-3,1,0,1,-12,-8,7
1520336682003694,28,-4,6,8,8,20,11,-74
1520336682003694,-72,-1,12,8,-5,-18,-5,-127
1520336682009710,-6,20,6,1,20,53,21,-25
1520336682009710,122,13,3,-5,-9,-14,7,52
1520336682026755,-65,-33,-17,-7,4,-10,-19,-15
1520336682026755,127,33,12,2,6,19,27,31
1520336682027758,50,16,-4,-3,-18,-8,36,76
1520336682027758,-16,-24,-11,-6,8,37,-31,-98
1520336682048814,22,6,4,5,16,-21,-13,38
1520336682048814,1,0,1,-1,-9,-29,-12,39
1520336682050819,27,26,7,-7,-29,14,6,3
1520336682050819,-97,-44,-31,-7,-10,-8,-39,-31
1520336682063854,55,11,20,23,74,29,37,-39
1520336682063854,-34,-32,-10,-1,5,20,-2,-17
1520336682069870,-43,16,2,0,1,7,10,31
1520336682069870,-15,6,4,-8,-22,-40,-32,-55
1520336682086915,-26,11,-3,-6,-17,8,18,81
1520336682086915,39,-30,-9,2,-4,-8,-17,46
1520336682087918,-25,0,7,5,7,19,62,12
1520336682087918,40,5,-5,-4,1,-6,-34,14
1520336682108974,-98,-4,-7,-8,-11,-20,-4,-25
1520336682108974,78,0,3,1,-4,19,2,57
1520336682110980,63,29,21,15,-12,4,-1,-6
1520336682110980,-21,-39,-19,-10,13,-18,-1,64
1520336682123012,-8,-1,0,-6,4,28,47,77
1520336682123012,27,21,-6,-17,-38,-25,-24,-38
1520336682132035,-85,-41,3,27,50,15,-15,-55
1520336682132035,10,15,6,7,-1,-3,7,-44
1520336682146073,54,-32,-12,-6,-17,-13,-14,11
1520336682146073,23,7,3,-4,2,21,26,-23
1520336682148078,-37,-5,-6,-7,10,9,-24,-38
1520336682148078,-24,22,0,-6,-11,-20,7,24
1520336682169134,-9,21,-1,-15,-5,4,5,-25
1520336682169134,-56,-35,-14,11,0,3,6,-44
1520336682171139,-37,-16,3,-1,7,18,-13,-75
1520336682171139,-9,22,11,8,2,-21,-14,-62
1520336682183171,8,1,8,11,-2,6,25,6
1520336682183171,42,16,4,-5,-6,-28,-13,91
1520336682192196,-51,28,-18,-15,-3,2,-32,1
1520336682192196,-7,-11,-8,-8,-12,-12,-9,15
1520336682206233,21,10,-2,-3,-5,-14,31,69
1520336682206233,-17,-11,-1,4,12,-1,-6,-34
1520336682208238,32,11,16,10,5,19,28,51
1520336682208238,26,23,-4,-11,-15,-11,-10,4
1520336682229294,-17,8,11,13,15,-10,-40,57
1520336682229294,-24,-5,-8,-6,-4,-6,1,28
1520336682230297,17,-18,-3,-2,5,-4,-21,-15
1520336682230297,13,21,2,-5,-15,-4,26,24
1520336682242329,-7,3,11,3,-4,18,53,19
1520336682242329,-34,-7,-13,-10,8,1,10,86
1520336682251353,-34,9,6,7,-7,-17,0,45
1520336682251353,-8,-23,3,4,5,6,4,38
1520336682266393,25,8,-1,1,-7,-2,-41,-21
1520336682266393,0,14,11,7,8,21,38,-7
1520336682268398,-31,-30,-18,-2,-1,-11,-21,-50
1520336682268398,-43,9,21,15,19,27,32,103
1520336682289454,67,-20,-26,-18,-17,-13,-29,-110
1520336682289454,61,24,9,0,-8,0,2,-13
1520336682290457,-27,10,7,0,2,4,18,-1
1520336682290457,-59,-48,-12,-3,14,2,-68,-83
1520336682302489,-43,2,9,9,5,11,13,-19
1520336682302489,9,-4,-1,0,1,2,-16,19
1520336682311513,44,32,2,-6,-5,-1,2,-2
1520336682311513,62,4,3,3,1,7,36,-5
1520336682326553,-15,-4,-5,-4,1,-8,-20,-68
1520336682326553,-34,-3,-5,-13,-14,40,9,41
1520336682328558,-12,-25,-11,-2,7,-29,-42,-29
1520336682328558,8,15,6,9,-3,2,31,45
1520336682348612,1,2,4,-1,-4,-7,-13,-31
1520336682348612,23,8,0,9,-1,2,-18,-26
1520336682350617,27,-13,-10,-10,-1,2,13,-29
1520336682350617,-58,3,-3,-10,-6,-3,-7,-23
1520336682362649,89,27,20,17,5,17,0,29
1520336682362649,-114,-43,-20,-16,-6,-18,2,-39
1520336682371673,13,-16,-5,-3,-5,17,11,8
1520336682371673,61,11,0,4,4,-9,46,-1
1520336682386713,-33,-6,-3,-5,-2,-4,-26,-31
1520336682386713,-11,11,7,5,1,-15,-29,-9
1520336682387715,35,5,0,4,2,1,-10,-23
1520336682387715,-14,1,-3,-2,0,2,-8,-28
1520336682408772,-63,-19,-16,-11,-4,2,18,21
1520336682408772,29,5,9,0,5,-5,16,-3
1520336682410777,-36,0,4,17,2,6,12,-8
1520336682410777,34,5,1,-11,-4,-18,-26,-3
1520336682422809,-41,-6,-3,-22,-13,25,24,61
1520336682422809,52,1,4,42,19,-12,-13,-30
1520336682431833,14,9,1,0,19,7,17,35
1520336682431833,43,-5,-6,2,-9,-9,-51,-70
1520336682446873,-64,-15,-5,-1,5,23,29,0
1520336682446873,-33,0,-10,-18,-20,-15,-41,-17
1520336682447875,-31,-13,3,2,5,20,31,-27
1520336682447875,61,2,-5,-2,1,4,-24,31
1520336682468932,47,18,-1,-2,1,-16,-33,-9
1520336682468932,7,4,7,0,-4,1,46,37
1520336682470937,-14,-11,-7,-5,-11,-21,-41,-24
1520336682470937,-48,-14,-8,-7,-2,-1,-18,-17
1520336682482969,7,4,1,7,2,-18,-9,21
1520336682482969,1,-3,-3,-1,1,13,-13,-70
1520336682491993,29,1,-2,-8,-5,-13,21,40
1520336682491993,-24,9,8,5,4,4,9,-14
1520336682507033,41,-1,-2,5,9,-4,-13,13
1520336682507033,15,8,2,0,-1,1,8,-15
1520336682508036,-3,-23,-15,-13,-7,-5,-2,49
1520336682508036,-1,6,3,-1,-7,-9,4,-20
1520336682529092,54,8,6,13,10,22,24,-20
1520336682529092,-85,-10,-9,-16,-4,-23,2,62
1520336682531097,-21,-1,0,-1,-3,-23,-5,-8
1520336682531097,44,8,-4,-3,0,-1,37,37
1520336682543129,-16,0,3,-1,-1,-7,-11,4
1520336682543129,14,-7,1,1,3,-3,4,-18
1520336682552153,54,13,-5,-7,-13,-1,-11,22
1520336682552153,-1,-1,3,6,7,9,3,-46
1520336682566190,-21,-10,-1,-1,-6,-8,0,71
1520336682566190,28,10,1,-2,3,11,4,-1
1520336682568196,-36,-6,-1,1,-2,3,15,-21
1520336682568196,-35,-1,0,0,2,2,-7,-10
1520336682589252,51,4,-3,0,-4,-7,-4,-23
1520336682589252,-64,4,-2,-1,1,-5,11,32
1520336682590255,-7,-6,-10,-8,-6,-6,-44,-43
1520336682590255,73,15,15,11,6,16,47,52
1520336682602286,-73,-31,-11,-5,-5,0,-3,-45
1520336682602286,-6,7,3,2,4,1,8,2
1520336682611310,33,-7,-2,-5,0,6,-7,-17
1520336682611310,-61,-5,-7,-6,-3,0,-22,-23
1520336682626350,45,13,-2,-3,-3,-13,7,1
1520336682626350,100,19,11,5,-4,10,3,17
1520336682628356,-1,-23,-7,-2,4,8,6,13
1520336682628356,-4,-3,-3,-3,5,-14,-21,-35
1520336682649412,4,3,-2,3,5,-2,-7,11
1520336682649412,72,2,4,-3,-1,9,20,1
1520336682650414,-16,16,5,12,-4,-10,0,-3
1520336682650414,-7,-4,5,5,3,3,52,62
1520336682662446,-1,-23,-9,-1,-2,0,-9,-18
1520336682662446,-50,1,-5,-10,-2,-4,-43,-22
1520336682671470,67,22,11,0,-1,4,-2,21
1520336682671470,-5,-5,-1,0,-1,8,11,-11
1520336682694532,-42,7,4,3,-2,-5,-3,-18
1520336682694532,-24,-30,-8,-2,-1,-2,6,-14
1520336682695534,0,14,6,-1,4,2,7,33
1520336682695534,-84,-5,-11,-8,-9,-9,-27,-33
1520336682709572,35,5,3,0,0,4,12,18
1520336682709572,16,-3,-10,-2,0,-6,-7,-10
1520336682710575,-24,-12,4,2,1,3,12,20
1520336682710575,-21,9,2,-1,-3,0,-16,-31
1520336682722607,-102,-32,-9,-3,-3,-1,-3,-22
1520336682722607,8,1,2,4,2,-2,7,11
1520336682731630,8,10,0,2,3,8,-1,-34
1520336682731630,-2,-10,-14,-14,-12,-8,2,39
1520336682745668,17,5,8,-1,-13,4,-9,-5
1520336682745668,12,7,2,0,10,-23,-8,2
1520336682752686,-20,-10,1,-2,-8,12,38,10
1520336682752686,52,6,4,7,12,-5,-19,-21
1520336682768729,-95,-17,-10,-8,-3,7,9,-27
1520336682768729,71,15,1,-10,-20,1,-7,10
1520336682770734,-90,-28,-5,17,22,-31,-33,-40
1520336682770734,-22,-2,-5,-5,1,10,32,14
1520336682782766,5,17,5,-2,0,-12,-7,28
1520336682782766,-16,-6,1,5,-4,-2,15,12
1520336682791790,-108,-6,-7,-13,-6,10,-1,7
1520336682791790,13,6,9,5,2,6,-15,-16
1520336682805828,-13,-10,2,4,3,-7,-2,-5
1520336682805828,-22,4,0,-2,1,7,-8,-6
1520336682812846,60,16,11,4,0,6,4,36
1520336682812846,-99,-26,-13,-3,-4,-11,-19,-22
1520336682828889,114,26,5,-3,-4,-3,47,40
1520336682828889,-68,-19,-8,3,9,11,-10,-41
1520336682830895,-39,-3,-1,-3,-3,-3,-27,-11
1520336682830895,71,15,7,-1,-7,-13,11,26
1520336682842926,-9,-4,-9,-8,-15,-11,-12,-23
1520336682842926,-68,-12,-4,0,17,4,-30,-50
1520336682851951,50,3,-3,-5,-25,-1,22,8
1520336682851951,-49,-11,-1,3,32,9,-12,30
1520336682865988,8,11,-6,-13,-14,-9,-5,-19
1520336682865988,-22,-9,7,15,8,-1,9,18
1520336682873007,5,-12,-12,-9,-10,12,-22,-14
1520336682873007,100,26,12,10,-2,10,14,16
1520336682889050,-73,-35,-10,0,1,-11,-9,6
1520336682889050,52,0,-7,-11,-13,3,7,21
1520336682891055,64,21,6,-2,3,-9,-11,-12
1520336682891055,-30,-16,-4,-8,-14,-1,-1,-19
1520336682903086,31,12,5,10,16,8,9,32
1520336682903086,-34,9,3,2,-4,-3,6,-36
1520336682912111,18,-3,-5,-2,0,-9,4,50
1520336682912111,-28,-2,-1,-1,1,10,15,16
1520336682926148,17,3,5,3,3,7,8,-1
1520336682926148,-100,-24,-14,-8,-11,-21,5,-66
1520336682933166,22,10,8,4,8,2,-41,-17
1520336682933166,71,8,-3,-6,-5,13,-13,-2
1520336682949209,-90,-10,-1,5,-2,9,1,2
1520336682949209,26,-16,-9,-3,7,-17,18,19
1520336682950212,44,11,6,0,2,0,10,5
1520336682950212,-124,-29,-5,-1,-6,-6,2,-43
1520336682971268,116,43,8,2,-3,1,-2,-5
1520336682971268,42,19,12,7,4,13,9,43
1520336682973273,-77,-36,-17,-7,-3,-5,0,2
1520336682973273,-30,14,13,8,3,2,-7,-3
1520336682986308,22,0,-11,-10,-2,-6,-22,-26
1520336682986308,27,17,9,3,-2,-1,-8,25
1520336682992324,-28,2,2,1,6,13,17,-5
1520336682992324,79,10,5,3,-1,-3,12,19
1520336683009369,34,5,10,5,3,-16,-11,-42
1520336683009369,-20,-13,-23,-15,-14,-1,-29,-5
1520336683010372,-17,-7,-4,0,-2,-8,14,10
1520336683010372,74,45,22,13,10,4,-5,5
1520336683031428,-110,-66,-27,-29,-6,20,5,10
1520336683031428,55,4,6,25,0,-15,-26,-18
1520336683033433,29,1,3,10,29,2,21,15
1520336683033433,40,-2,-6,-2,-2,-1,-39,-24
1520336683045465,59,20,12,8,12,4,1,3
1520336683045465,-92,-28,-18,-19,-24,7,13,4
1520336683052484,16,5,3,0,-6,2,-1,-18
1520336683052484,-20,-7,-1,4,4,-3,5,-11
1520336683069529,-50,2,1,-1,-7,-3,28,6
1520336683069529,61,-5,0,-2,4,-2,-25,14
1520336683070532,18,15,-3,-3,-10,-7,-4,61
1520336683070532,-124,-49,-25,-16,-8,-8,-3,-32
1520336683091588,105,25,8,3,-3,-6,-18,4
1520336683091588,-76,4,12,9,13,16,27,10
1520336683093594,101,21,1,-4,-1,-1,-16,6
1520336683093594,-51,-43,-16,-10,-13,3,49,13
1520336683105625,68,13,5,6,3,-6,-26,12
1520336683105625,-33,-3,1,1,5,2,-9,-9
1520336683114649,62,18,6,-1,-7,5,8,0
1520336683114649,-43,-10,-1,4,3,14,-8,-29
1520336683128687,79,28,13,12,7,-13,20,59
1520336683128687,-21,-28,-13,-10,-1,3,-4,-30
1520336683130692,-23,-8,-2,-3,-9,-7,-22,-42
1520336683130692,6,-2,6,4,4,9,12,25
1520336683151748,20,2,-7,-4,-1,-4,-5,-8
1520336683151748,105,34,12,2,-1,-8,3,34
1520336683152751,-92,-28,-5,-3,0,-1,14,-13
1520336683152751,97,10,6,5,0,-9,1,19
1520336683164783,-128,-11,-9,-3,-4,1,-17,-51
1520336683164783,64,14,7,1,7,7,4,-5
1520336683173807,71,9,-10,-9,-11,-5,-4,-75
1520336683173807,-18,-16,-9,-11,-5,-10,-3,19
1520336683188847,69,22,12,3,-4,0,0,18
1520336683188847,61,10,-9,-22,-11,18,38,-12
1520336683190852,-94,-13,10,20,15,-19,-40,-20
1520336683190852,-14,12,-2,8,1,-21,-31,6
1520336683211908,-34,-2,-13,-1,2,11,6,-54
1520336683211908,5,-9,-1,1,-18,-18,-3,29
1520336683212911,10,-12,-8,-14,8,5,19,14
1520336683212911,34,-10,-5,-11,-5,-7,-10,1
1520336683224943,-75,-25,3,2,6,5,3,38
1520336683224943,-4,14,6,-1,-2,-1,14,-18
1520336683233967,-97,-6,-5,-3,-6,8,11,39
1520336683233967,-43,-31,-12,-7,-5,-2,-3,-15
1520336683249007,111,18,13,8,8,15,14,63
1520336683249007,-93,-24,-5,4,8,-3,6,48
1520336683251012,2,31,7,5,-9,-25,-12,-3
1520336683251012,-35,8,8,7,14,33,23,3
1520336683279087,-5,-3,0,-3,-4,0,15,8
1520336683279087,95,-11,-7,-1,1,-9,-28,-39
1520336683281092,-65,-2,5,4,4,-4,22,5
1520336683281092,20,8,-6,-11,-12,-14,-25,-3
1520336683285103,-14,-2,-3,-3,-4,-6,-20,-57
1520336683285103,72,19,3,1,2,12,-6,-57
1520336683294127,-72,-24,1,4,8,20,46,46
1520336683294127,-16,10,-23,-23,-21,-13,-21,-16
1520336683309167,-41,-12,-4,2,1,-16,-22,-46
1520336683309167,-106,-18,11,13,11,2,-9,-20
1520336683310170,83,7,-7,-10,-12,-8,-5,48
1520336683310170,127,31,19,9,7,6,15,-26
1520336683331226,-88,-37,-7,0,-1,-7,-21,-46
1520336683331226,56,55,-2,-10,-11,-17,4,34
1520336683333231,61,11,2,3,11,62,9,-32
1520336683333231,-80,3,4,0,-3,-24,3,-63
1520336683345263,-29,-15,-6,-3,-3,-8,-20,69
1520336683345263,-40,7,6,5,1,-14,-5,-3
1520336683354287,91,24,-7,-8,-6,10,-7,9
1520336683354287,25,1,0,-3,-7,-8,7,45
1520336683369327,-68,-7,-7,-8,-2,-11,-7,-89
1520336683369327,-93,-22,9,30,37,31,20,-24
1520336683370329,111,-8,-13,-12,-14,-22,-16,-27
1520336683370329,-107,-36,-16,-4,4,13,17,-40
1520336683391385,127,40,12,1,-9,9,6,106
1520336683391385,-99,-32,-6,-8,-7,-6,-12,-25
1520336683393391,32,-17,12,14,12,-2,-1,-16
1520336683393391,-31,-9,-12,-8,-17,-18,-26,-1
1520336683405423,80,12,4,4,1,9,23,-1
1520336683405423,-56,2,1,-4,-1,9,4,-52
1520336683414447,-42,-14,14,13,7,-1,-8,2
1520336683414447,-52,9,-20,-19,-13,-16,-18,-35
1520336683429487,15,7,11,3,5,7,2,5
1520336683429487,127,-18,-15,-8,-7,-3,-1,32
1520336683431492,-35,8,-3,-3,-5,1,13,-21
1520336683431492,94,48,39,27,15,11,5,1
1520336683451546,-128,-93,-54,-28,-20,-44,-26,-70
1520336683451546,17,35,28,11,9,15,15,-26
1520336683453551,-128,-51,-40,-22,-14,-16,9,-11
1520336683453551,30,7,-2,-3,4,23,-47,13
1520336683465583,22,23,18,9,-2,-40,20,-2
1520336683465583,63,26,9,1,-4,5,-4,50
1520336683474607,-78,-6,6,6,8,-5,-5,71
1520336683474607,84,2,-8,-2,0,21,19,54
1520336683488644,-37,4,3,4,5,22,6,-32
1520336683488644,57,-21,-10,-9,-5,-1,-3,9
1520336683490650,-14,1,10,3,-1,-17,-3,67
1520336683490650,-50,-24,-22,-13,-10,-14,-20,-37
1520336683511706,9,13,-2,-3,-1,4,-6,41
1520336683511706,-12,1,0,2,1,8,20,-24
1520336683512708,64,13,5,1,1,-1,-1,-39
1520336683512708,69,27,7,2,-5,-18,6,68
1520336683524740,-41,9,9,7,7,25,17,-13
1520336683524740,-100,1,-12,-12,-7,-17,-21,-23
1520336683533764,-55,-54,-28,-16,-8,1,-14,-37
1520336683533764,100,42,25,16,7,-7,6,31
1520336683548804,101,1,-20,-11,-9,-8,-9,48
1520336683548804,-44,7,0,-7,-3,-1,5,8
1520336683550810,-17,14,35,30,16,50,38,23
1520336683550810,43,-24,-41,-23,-17,-35,-26,-51
1520336683571866,34,9,9,3,3,12,1,-9
1520336683571866,35,-4,-1,3,-1,4,-1,59
1520336683572868,58,3,-7,-7,-5,-6,-5,1
1520336683572868,2,-8,12,10,7,6,25,9
1520336683584900,-44,-5,-6,-3,-3,-2,-7,-26
1520336683584900,30,5,-7,-7,-23,-39,-11,37
1520336683593925,5,-4,2,4,25,35,28,-46
1520336683593925,-86,0,18,13,-3,2,8,5
1520336683608964,-66,-11,-20,-15,7,2,-6,-31
1520336683608964,114,-2,-3,-2,-7,-14,-36,-28
1520336683610970,-66,43,19,3,-3,-17,-7,-36
1520336683610970,32,-26,-10,-2,2,15,20,53
1520336683632025,-112,-42,-15,-10,-9,0,-11,-41
1520336683632025,-30,-7,11,11,9,12,24,14
1520336683633028,68,62,23,13,-2,-10,-8,9
1520336683633028,-116,-50,-32,-21,-4,6,-20,-68
1520336683645060,74,20,17,12,3,2,6,48
1520336683645060,-12,-7,-6,-5,-1,-1,-1,27
1520336683654084,22,-6,-11,-11,-3,-6,-18,-4
1520336683654084,24,17,24,9,-1,10,20,15
1520336683669124,-61,-17,1,16,8,-22,-4,-29
1520336683669124,-17,-5,-11,-9,-3,6,8,19
1520336683671130,-60,-10,2,1,-16,-29,-10,-25
1520336683671130,13,-12,-9,-6,21,24,3,8
1520336683691183,-20,4,0,-4,-3,7,2,-8
1520336683691183,12,19,5,2,7,1,6,14
1520336683693189,74,-30,-18,-9,-15,-12,1,-5
1520336683693189,37,11,-3,-7,-6,-14,-23,19
1520336683705220,35,24,3,-4,-5,0,-8,-12
1520336683705220,-25,-18,-4,2,1,10,3,-13
1520336683714244,13,15,5,-4,-7,-3,-3,-6
1520336683714244,50,-4,-4,0,-5,-10,8,21
1520336683728282,16,-7,1,2,2,4,2,24
1520336683728282,25,29,5,-2,-5,0,1,-5
1520336683735300,-37,-20,-18,-12,-3,0,-18,-28
1520336683735300,-19,17,27,23,13,0,16,-6
1520336683751343,27,5,1,-2,-5,-1,-15,24
1520336683751343,-4,-10,-7,-6,-1,-5,19,2
1520336683753348,-19,9,5,-4,-16,-2,10,5
1520336683753348,-59,-44,-20,-9,15,-1,-1,10
1520336683765380,20,-7,-2,6,16,-18,-32,-23
1520336683765380,-1,7,10,12,12,-2,-15,21
1520336683774404,-2,-2,-12,1,6,23,4,-2
1520336683774404,39,11,9,2,-18,-8,1,-8
1520336683788441,69,20,8,0,-1,2,7,4
1520336683788441,-47,-7,0,-4,-3,-6,7,17
1520336683795460,121,23,-7,-4,-7,-6,-12,-6
1520336683795460,-90,-46,-17,-11,-1,3,-6,-41
1520336683811503,82,9,3,2,-3,4,11,29
1520336683811503,42,-11,0,-1,-7,-6,-12,-19
1520336683813509,-60,-10,-2,-4,-2,-6,-6,-19
1520336683813509,-21,21,2,-7,-3,1,-5,3
1520336683825541,-36,-3,6,6,4,-13,5,15
1520336683825541,81,2,-2,-5,-17,-3,-12,-36
1520336683834564,13,-18,-2,-4,-6,21,22,47
1520336683834564,-40,-4,1,3,6,-13,-29,-61
1520336683848602,-68,-18,-15,-5,9,7,13,-21
1520336683848602,17,25,6,15,-23,4,19,29
1520336683855620,-38,-14,-3,3,34,-25,-68,-31
1520336683855620,33,25,12,12,-8,42,16,31
1520336683871663,-66,-11,8,-2,20,-22,9,27
1520336683871663,36,-16,-26,-19,8,12,-8,-11
1520336683873669,-23,-8,-9,-14,-22,-2,15,32
1520336683873669,-24,5,8,2,0,-1,11,8
1520336683893722,-72,-1,3,2,-18,6,-7,-21
1520336683893722,-75,-11,2,3,1,-8,-17,-42
1520336683895727,-2,1,-1,2,-2,-2,9,10
1520336683895727,37,36,14,7,4,-6,6,15
1520336683908762,90,1,-6,-9,-22,8,20,41
1520336683908762,-50,-14,-22,-40,-6,-9,-13,-18
1520336683914777,-48,-7,9,46,37,6,-10,-37
1520336683914777,9,24,17,-8,-42,-6,20,22
1520336683931823,51,-4,4,26,2,41,-4,-16
1520336683931823,-68,-2,11,26,49,-7,20,-1
1520336683932826,7,-38,-23,-14,-77,-31,9,25
1520336683932826,77,28,2,5,98,9,-29,-58
1520336683953882,-110,-6,-13,-26,-15,2,12,23
1520336683953882,73,5,4,-5,-43,4,-19,-29
1520336683955887,-42,19,7,7,40,4,-2,1
1520336683955887,-20,-17,-9,-8,-36,-13,12,42
1520336683968921,40,2,4,-6,-2,8,17,3
1520336683968921,-26,-7,1,11,15,14,2,6
1520336683974938,18,8,0,-10,-17,-39,-18,-22
1520336683974938,48,17,8,8,-5,10,13,10
1520336683991983,-82,-14,-5,-15,4,-8,-13,-34
1520336683991983,23,1,-4,12,-3,-4,4,33
1520336683992986,18,3,-7,-24,6,4,-1,-8
1520336683992986,-17,-11,-5,0,-43,-13,-12,-14
1520336684014042,54,21,11,10,39,11,18,32
1520336684014042,-69,1,6,8,-1,-17,-17,-43
1520336684016047,1,-32,-15,-5,6,31,25,12
1520336684016047,-20,-14,-11,-14,-48,3,-1,-41
1520336684028079,43,14,4,2,72,10,7,-2
1520336684028079,15,0,0,10,53,-5,20,44
1520336684037103,-79,8,10,2,17,18,-9,-54
1520336684037103,-38,-8,-1,4,0,-6,13,24
1520336684051140,1,-13,-7,-1,-52,0,-5,-2
1520336684051140,-33,-12,-7,-14,-8,-3,-21,-25
1520336684053146,22,3,-1,2,2,2,3,20
1520336684053146,5,2,4,-2,-1,-5,-4,-26
1520336684074202,-62,-5,-6,0,-24,-4,-7,-22
1520336684074202,3,-11,-2,-6,1,-7,-6,10
1520336684076207,103,10,6,4,-43,-3,7,36
1520336684076207,-82,-14,-5,-21,0,-13,-28,-29
1520336684087237,22,4,0,20,14,-7,-9,12
1520336684087237,14,5,2,13,51,19,26,12
1520336684096260,-5,4,2,-3,-6,1,4,-19
1520336684096260,55,4,8,16,23,5,1,40
1520336684111301,-27,-6,-8,-21,-25,-12,-2,-27
1520336684111301,79,0,-1,-7,-30,3,-7,29
1520336684113306,6,15,1,-3,2,-16,-1,59
1520336684113306,6,-6,-5,1,11,-6,0,-27
1520336684134362,-25,11,7,1,-16,-1,-10,-20
1520336684134362,13,-4,-3,-3,-14,3,3,29
1520336684135365,-30,-6,8,6,16,0,5,-16
1520336684135365,-22,-12,-9,-2,-1,-13,-15,10
1520336684147396,12,11,4,2,-1,6,-4,-19
1520336684147396,2,-3,-5,-9,-10,10,3,-21
1520336684156420,-36,-8,-6,-8,-3,-6,-10,-13
1520336684156420,-3,2,1,1,-8,1,15,7
1520336684171461,22,-4,-3,3,-20,-8,10,-1
1520336684171461,-63,-4,-12,-18,9,12,-29,-59
1520336684173466,38,12,3,13,11,-6,-4,37
1520336684173466,14,1,9,9,8,18,17,-48
1520336684194522,-30,-9,5,3,-6,-3,-8,23
1520336684194522,49,46,-8,-14,-27,-14,9,-4
1520336684195525,-39,-51,-22,-14,-3,6,-18,51
1520336684195525,43,4,-3,-3,5,1,-11,5
1520336684208559,-46,-9,0,2,7,0,23,30
1520336684208559,69,18,8,2,-5,0,11,11
1520336684215578,15,13,5,2,3,-5,-35,-45
1520336684215578,-69,-27,-20,-11,0,-13,-18,-9
1520336684231621,64,19,15,6,5,4,2,-9
1520336684231621,-101,-37,-6,2,-4,0,0,36
1520336684233626,-9,4,-1,-5,-6,-3,5,-33
1520336684233626,40,2,7,2,-8,-4,6,41
1520336684253679,24,2,-7,0,13,21,4,-12
1520336684253679,-27,-17,0,-9,-1,1,-8,-17
1520336684255685,14,-1,-3,11,-3,-24,-10,-23
1520336684255685,-20,6,4,6,6,-13,3,24
1520336684267717,32,19,-4,-5,-15,-18,-15,14
1520336684267717,-66,-21,0,1,7,10,1,-10
1520336684276741,-33,-9,-2,-4,7,11,12,-33
1520336684276741,78,15,-4,-5,-7,-4,5,45
1520336684291781,41,7,2,3,-1,-2,2,8
1520336684291781,16,-9,-1,-1,-5,-11,-5,55
1520336684292783,-33,6,1,-4,0,2,7,24
1520336684292783,10,4,3,3,8,12,0,-51
1520336684313839,-35,-24,-9,-10,0,-9,0,6
1520336684313839,5,11,14,14,0,1,4,-56
1520336684315845,22,3,-4,-4,0,14,16,42
1520336684315845,19,7,8,6,6,0,2,0
1520336684327877,20,0,-10,-10,-17,-8,-18,-14
1520336684327877,-71,-18,-7,0,7,-7,-17,-49
1520336684336901,36,8,7,-3,12,-1,7,-3
1520336684336901,19,-2,-2,4,3,7,-2,-29
1520336684351941,-47,0,7,13,22,14,12,1
1520336684351941,89,21,10,7,-10,2,5,3
1520336684352944,-40,-24,-14,-16,-15,-8,-9,0
1520336684352944,-109,-17,-14,-6,7,-11,-7,-28
1520336684374000,-20,-9,1,-4,-3,6,30,33
1520336684374000,65,13,1,4,-4,3,4,-54
1520336684376005,-80,-12,-7,-9,-7,-12,-36,-25
1520336684376005,98,20,2,6,19,21,3,-24
1520336684388037,-71,-31,-10,-2,-11,-25,-26,-51
1520336684388037,13,13,5,0,1,-5,28,88
1520336684397061,7,-1,-6,-5,-7,1,3,-50
1520336684397061,11,-6,1,-2,-8,6,10,62
1520336684411098,11,11,-4,-5,4,2,-10,-47
1520336684411098,-28,-3,2,4,6,-1,-1,4
1520336684418117,33,10,4,9,-2,3,1,14
1520336684418117,3,-4,-2,-2,-4,-1,3,21
1520336684434159,-7,-2,-1,-1,4,2,-7,11
1520336684434159,40,-1,-7,-5,-12,-13,-22,15
1520336684436165,-44,-5,4,3,-1,2,11,36
1520336684436165,-1,6,-3,0,4,4,25,-45
1520336684448197,4,-9,-7,-6,-4,-5,-8,46
1520336684448197,0,0,8,4,-4,3,-7,-49
1520336684457221,22,7,-7,-7,0,2,17,-9
1520336684457221,-35,-8,3,4,0,-13,-25,-3
1520336684471258,-95,-35,3,7,15,21,10,-19
1520336684471258,36,-7,-12,-6,-9,-7,-9,-3
1520336684477274,124,22,-4,-4,3,0,-3,-2
1520336684477274,-46,14,7,-3,-10,4,16,51
1520336684494319,21,5,2,-4,-24,-7,-9,-10
1520336684494319,-25,-2,6,6,28,11,-7,23
1520336684495322,1,-12,-9,-3,1,2,20,-6
1520336684495322,42,-19,-6,1,-9,-13,-17,40
1520336684507354,58,-12,-8,0,6,3,8,63
1520336684507354,-128,-9,-2,-7,-13,5,22,18
1520336684516378,96,18,5,-4,-13,-5,-18,-21
1520336684516378,-19,10,8,0,10,20,-14,-34
1520336684531418,19,0,-13,-10,-26,-24,-1,-29
1520336684531418,-2,-8,-7,-3,11,0,12,64
1520336684533423,-49,-2,1,12,18,-4,-11,-23
1520336684533423,26,29,24,14,8,10,3,-41
1520336684554479,4,-38,-40,-28,-16,-12,-25,-64
1520336684554479,-6,2,-7,-6,-11,-5,8,0
1520336684555483,-42,-4,11,-2,-1,5,1,15
1520336684555483,24,-6,8,13,1,-1,2,-16
1520336684567514,27,35,15,14,12,2,4,15
1520336684567514,-10,-5,0,2,-1,-4,-8,-36
1520336684576539,13,-2,-1,1,0,0,-2,-22
1520336684576539,5,6,-8,-15,-10,-5,17,98
1520336684591578,-45,-1,-3,-1,8,8,-12,-65
1520336684591578,-13,-4,-5,-6,-12,-9,3,-34
1520336684593584,100,8,16,16,6,1,21,103
1520336684593584,-34,-13,-11,-11,-23,19,5,1
1520336684613637,-40,9,13,7,24,-18,-1,-26
1520336684613637,101,19,2,3,8,-16,-14,17
1520336684615642,-51,-14,-4,1,0,1,21,32
1520336684615642,34,-4,-1,1,6,15,-5,63
1520336684627674,119,13,1,-2,-13,-1,23,127
1520336684627674,-43,-10,-14,-16,-11,4,-8,-74
1520336684642714,48,18,12,10,6,-4,-25,-21
1520336684642714,-49,-9,4,8,7,-5,1,-43
1520336684650736,67,25,9,-5,0,4,-10,-103
1520336684650736,-72,0,9,13,5,-3,-14,-44
1520336684657754,-1,-16,-12,-7,-8,3,6,-12
1520336684657754,-14,10,-8,-4,-2,-10,-12,-37
1520336684673797,-28,-6,-1,-3,3,-2,-7,58
1520336684673797,124,12,-2,-3,-6,-1,0,-21
1520336684675802,-55,5,5,3,0,1,-6,-38
1520336684675802,-33,-24,-18,-16,-23,-30,0,17
1520336684687834,-24,9,7,-1,-5,9,8,-6
1520336684687834,-109,-30,-7,-14,-28,-11,-10,-26
1520336684696858,71,4,16,41,82,30,-13,26
1520336684696858,48,14,-1,-23,-9,-15,20,43
1520336684710896,20,16,11,29,10,2,-1,-35
1520336684710896,19,-1,-5,-2,-8,1,-3,11
1520336684717914,40,-2,0,-12,-33,-51,21,-11
1520336684717914,24,22,14,15,24,40,19,4
1520336684733957,-110,-40,-41,-28,-16,-15,-27,32
1520336684733957,61,14,16,0,11,25,28,17
1520336684735962,50,48,39,36,7,23,-7,-22
1520336684735962,30,-48,-27,-14,-5,-13,-12,-81
1520336684747994,49,21,24,2,-9,1,29,-10
1520336684747994,-96,-22,-10,1,5,-5,-5,-76
1520336684757019,-64,-5,-8,-23,-12,1,5,-78
1520336684757019,-8,1,1,8,0,2,-20,-23
1520336684771056,-34,1,3,5,6,21,0,-59
1520336684771056,35,2,0,1,8,-1,18,60
1520336684778074,-13,4,-5,-13,-15,4,37,-32
1520336684778074,-128,-53,-27,-9,-18,-28,-95,-77
1520336684794117,18,0,-4,-7,13,-13,-12,25
1520336684794117,42,14,7,12,-7,5,-5,2
1520336684796122,-11,15,-13,-10,6,-10,3,-11
1520336684796122,-94,-3,5,4,13,3,12,42
1520336684816175,4,2,-15,-9,-15,-13,-14,7
1520336684816175,-41,-25,-6,-4,-4,6,-16,56
1520336684818181,1,4,6,1,-7,9,-12,-29
1520336684818181,-103,11,2,-2,-1,-12,18,29
1520336684831216,5,-29,-1,6,4,12,-10,-124
1520336684831216,77,13,-20,-19,-10,-17,8,89
1520336684837232,23,-33,-17,-11,-9,-4,-11,-43
1520336684837232,-6,1,13,8,9,1,5,32
1520336684854277,79,31,1,-6,-9,-5,3,0
1520336684854277,-20,-3,3,8,5,-5,-16,-97
1520336684855280,-51,-14,-8,-6,-4,-5,-4,119
1520336684855280,48,8,1,0,-9,12,23,-3
1520336684876335,102,53,31,18,10,12,49,47
1520336684876335,-87,-83,-36,-17,15,-17,-32,-85
1520336684878341,-128,-11,-4,-3,-19,-6,-29,-28
1520336684878341,50,16,5,2,24,1,10,-40
1520336684891376,76,22,-1,-4,-6,5,35,97
1520336684891376,-81,-16,-4,-3,-8,0,-25,-11
1520336684893381,79,1,19,15,7,8,15,60
1520336684893381,9,5,-11,-12,-13,-6,-1,-12
1520336684921456,17,-12,-9,-6,-4,-4,-5,38
1520336684921456,91,37,31,27,6,6,3,-4
1520336684923461,15,-14,-8,-7,-1,1,13,119
1520336684923461,-50,6,11,10,0,-1,4,-5
1520336684936495,-53,-35,-7,-5,5,3,-6,-38
1520336684936495,38,13,-2,-7,-2,10,21,55
1520336684938501,54,14,-8,-10,-8,-6,-10,-63
1520336684938501,58,0,2,-12,-20,-2,-9,-6
1520336684950533,-80,-20,-7,10,-5,-7,-30,7
1520336684950533,65,23,13,12,49,29,65,48
1520336684959557,-123,-52,-27,-24,-24,-13,-39,-24
1520336684959557,38,26,0,21,24,16,3,-6
1520336684973594,-14,-16,-10,-15,-19,-11,-34,-58
1520336684973594,55,34,14,8,-10,5,-6,31
1520336684975600,-40,10,12,2,8,-4,36,-26
1520336684975600,26,-18,0,18,2,7,-1,-38
1520336684996656,-119,-2,1,10,1,-7,-28,-25
1520336684996656,-60,-24,-18,-15,-11,-3,0,-88
1520336684998661,59,-1,-10,-11,-2,8,9,25
1520336684998661,67,19,4,-4,-11,-9,9,46
1520336685010693,-64,-17,7,5,14,6,3,23
1520336685010693,20,-8,-6,-9,-5,-9,-20,-10
1520336685019717,17,39,13,2,-7,0,0,-14
1520336685019717,84,27,11,7,6,1,11,14
1520336685033754,-42,-20,-5,-3,8,-3,2,-1
1520336685033754,37,-3,-15,-21,-41,-17,-30,-7
1520336685035760,-18,-11,1,8,-16,11,10,31
1520336685035760,-12,1,0,-4,44,4,4,3
1520336685056816,-38,-12,-9,0,-2,0,-2,15
1520336685056816,14,21,11,18,-9,4,5,2
1520336685057818,71,3,2,4,27,5,-23,-11
1520336685057818,-58,-16,-13,-12,-44,-16,-7,-10
1520336685069850,52,21,-10,-12,-21,-2,3,30
1520336685069850,-91,-12,27,28,53,17,9,-51
1520336685078874,71,21,-28,-26,-19,-7,-9,55
1520336685078874,-9,-14,-9,-21,-8,-2,-4,-64
1520336685093914,-59,-38,1,9,5,4,3,-40
1520336685093914,85,44,16,4,-11,1,9,25
1520336685095920,-37,-18,-3,1,8,1,5,-25
1520336685095920,-45,-15,1,5,6,-1,9,-3
1520336685116976,34,12,7,7,2,-6,-20,-24
1520336685116976,-57,-17,-15,-12,-20,-11,-10,10
1520336685117978,2,14,3,-7,-8,-13,-7,-32
1520336685117978,-22,-9,-9,-14,-3,12,-18,30
1520336685130010,27,10,15,31,44,13,57,29
1520336685130010,-21,-11,-16,-28,-30,-29,-68,15
1520336685139035,6,21,6,14,-45,-12,2,-27
1520336685139035,-51,-6,14,27,79,5,4,-47
1520336685154074,97,-1,2,-5,-11,9,18,-6
1520336685154074,-117,-23,-25,-5,41,9,-11,-10
1520336685156080,-16,-12,-2,-3,-15,3,4,-30
1520336685156080,60,21,13,0,-23,-1,5,11
1520336685184154,-4,-31,-21,-24,-15,-4,-33,-4
1520336685184154,-7,6,2,3,3,1,30,70
1520336685186160,-53,-9,8,9,2,2,-28,-24
1520336685186160,30,1,4,5,-8,-4,5,27
1520336685190170,-8,18,-1,-6,8,3,13,-49
1520336685190170,46,-2,2,-5,-22,-8,12,22
1520336685199195,-31,-10,-7,4,19,-8,25,55
1520336685199195,-73,-28,8,16,12,8,32,-24
1520336685214234,21,17,-1,-21,-35,-25,-55,-7
1520336685214234,97,57,29,7,-19,-2,-17,37
1520336685220250,-89,-63,-20,6,53,1,-2,-70
1520336685220250,76,3,-15,-21,-36,18,-10,17
1520336685236293,-69,-2,3,16,16,-16,11,-4
1520336685236293,1,-26,-13,-12,2,-7,30,39
1520336685238299,-74,5,0,-5,8,0,-18,-19
1520336685238299,69,25,11,5,-14,-2,6,55
1520336685250331,-43,2,2,-2,9,3,3,8
1520336685250331,115,51,14,7,-13,1,9,19
1520336685259355,-7,-1,-22,-18,-14,-3,-5,-6
1520336685259355,62,-19,-10,-5,0,-18,-15,50
1520336685274395,-35,23,10,-1,-9,11,22,49
1520336685274395,-27,-22,4,5,16,8,95,1
1520336685275397,-47,-3,7,-6,-28,2,-77,-54
1520336685275397,29,48,4,-5,-15,-41,-9,16
1520336685296453,-36,-41,-28,-6,17,5,-29,-14
1520336685296453,31,55,24,25,33,35,6,30
1520336685298459,-53,-75,-31,-13,4,-10,51,-31
1520336685298459,-123,-39,-19,-11,-35,-10,-59,-79
1520336685310491,127,68,33,13,4,12,-9,26
1520336685310491,-128,-48,-28,-18,-15,-9,-12,13
1520336685326533,61,27,13,7,29,15,-9,-15
1520336685326533,-80,-1,11,6,11,4,-4,-32
1520336685334555,-71,-86,-40,-19,-18,-9,17,-25
1520336685334555,40,20,10,-1,-7,3,-1,-23
1520336685335557,92,29,15,9,0,-6,13,82
1520336685335557,39,37,-4,-4,-8,-11,-19,36
1520336685356613,57,13,12,4,6,5,7,22
1520336685356613,-72,-38,-1,7,3,8,-7,-82
1520336685358619,-53,-26,-17,-4,3,1,-1,-28
1520336685358619,30,7,-4,-11,-2,20,31,3
1520336685370651,15,6,10,-26,-17,-13,-10,16
1520336685370651,8,-6,5,56,25,-16,-27,-13
1520336685379675,7,48,32,30,29,45,49,13
1520336685379675,-9,-49,-30,-8,-49,-42,9,3
1520336685393712,-49,-4,0,9,73,28,-18,-47
1520336685393712,32,15,1,-19,-22,10,10,21
1520336685395717,-13,-11,1,-4,-10,-9,-9,5
1520336685395717,-6,17,24,17,23,12,40,-12
1520336685416773,54,-5,-19,-11,-28,-17,-48,23
1520336685416773,7,-26,-13,-17,-5,-12,-27,-20
1520336685417776,93,32,15,7,-3,-1,10,47
1520336685417776,-46,-23,-12,-15,-4,9,32,-13
1520336685429808,-21,12,11,10,-9,-5,5,-32
1520336685429808,-50,-7,-6,-8,9,0,-8,-19
1520336685438833,45,54,10,-10,-26,-23,-25,45
1520336685438833,-60,-38,-1,11,26,38,20,3
1520336685453872,-79,-30,-23,-6,-13,-20,6,-4
1520336685453872,-5,-2,-1,-9,-18,-2,-38,-34
1520336685455877,-25,-10,-4,-10,-4,-24,36,-11
1520336685455877,-21,30,10,1,8,18,3,-1
1520336685476933,-50,-11,-8,-7,-26,-53,-17,3
1520336685476933,35,25,12,19,44,36,20,-6
1520336685477936,14,-59,-39,-21,-23,-14,-24,19
1520336685477936,45,28,11,4,9,-1,-8,14
1520336685489968,-10,-19,2,-4,-15,7,-2,-42
1520336685489968,76,39,19,3,-15,-20,30,59
1520336685498992,-65,-61,-25,-6,8,13,-2,-32
1520336685498992,-1,-8,-12,-12,-7,-14,-27,-6
1520336685514032,95,19,11,8,7,34,46,25
1520336685514032,-27,-14,-3,1,-3,-16,-9,-35
1520336685516038,15,15,7,-1,3,7,-20,-36
1520336685516038,-6,-19,-7,-4,-5,-31,-4,28
1520336685537093,11,15,8,3,-32,12,19,6
1520336685537093,-55,-23,-23,-11,44,11,-19,-12
