timestamp,emg1,emg2,emg3,emg4,emg5,emg6,emg7,emg8
1520336646960475,5,-20,-12,-3,-2,-1,25,64
1520336646960475,-11,-21,-21,-6,-3,1,-11,-66
1520336646961478,-31,-88,-46,-20,-9,-8,7,-23
1520336646961478,-3,-50,-9,0,4,5,12,-13
1520336646962480,20,36,23,12,2,-7,-74,-79
1520336646962480,5,-9,3,3,6,14,65,-9
1520336646963483,-28,-25,-17,-9,-5,-5,1,46
1520336646963483,-19,-23,-35,-22,-20,-29,-70,6
1520336646973509,-11,-10,-1,-1,3,5,37,-46
1520336646973509,10,5,-6,-2,-1,-2,23,68
1520336646977520,19,42,20,6,-1,-3,-25,-66
1520336646977520,8,23,17,9,10,20,55,8
1520336646987547,0,14,14,7,2,5,16,3
1520336646987547,-9,6,11,6,2,12,67,-68
1520336647002587,-25,-15,-18,-11,-13,-40,-69,-103
1520336647002587,0,-42,-27,-20,-9,-11,-11,12
1520336647007600,43,60,45,8,1,-2,0,-19
1520336647007600,-46,-49,1,-1,-3,-3,-1,-47
1520336647022640,12,-7,5,5,2,19,53,112
1520336647022640,20,27,9,5,-3,-1,-6,13
1520336647032667,27,-16,-10,1,3,17,68,32
1520336647032667,-3,3,-7,-7,-6,-15,5,104
1520336647045702,-18,8,11,7,8,6,-12,-111
1520336647045702,12,39,17,7,0,-6,-3,54
1520336647086811,9,3,6,4,-1,-8,-85,-100
1520336647086811,9,4,9,8,11,16,52,7
1520336647087814,-29,-51,-13,-4,-2,8,87,-84
1520336647087814,44,85,18,7,4,-5,-77,-60
1520336647090822,-19,-44,-16,-2,-1,3,33,84
1520336647090822,8,71,16,-2,-3,-10,-45,17
1520336647091824,10,-20,-4,-4,2,2,0,38
1520336647091824,19,-24,3,-2,0,5,91,19
1520336647096837,-7,0,0,8,1,5,9,-72
1520336647096837,13,-15,-5,0,4,17,42,59
1520336647104859,1,10,6,-4,-13,-27,-62,3
1520336647104859,-7,-2,3,-4,-6,2,78,71
1520336647113883,6,-7,-15,-14,-20,-16,-58,54
1520336647113883,-24,-28,-10,-2,-12,0,77,-69
1520336647127920,32,27,-2,-3,4,6,-9,28
1520336647127920,-24,-30,-9,7,43,5,-59,-100
1520336647141957,2,17,8,2,2,4,55,-17
1520336647141957,-11,-11,-5,-2,-2,1,-53,-55
1520336647159003,-7,-1,3,3,-3,1,6,-34
1520336647159003,-7,-7,-17,-18,-23,-11,-32,-58
1520336647160006,-5,-28,-18,-13,1,1,14,-5
1520336647160006,10,18,-4,-5,-9,-18,-57,20
1520336647172037,-8,-44,10,15,5,13,40,36
1520336647172037,-11,49,15,12,6,21,78,85
1520336647181062,13,-11,4,-1,-2,-14,-87,-49
1520336647181062,10,-15,8,8,0,2,49,28
1520336647196102,-42,-26,-9,-2,2,-9,-60,97
1520336647196102,18,-18,-12,-1,-8,-8,-24,110
1520336647198107,7,12,-2,-11,-8,-6,-25,17
1520336647198107,3,-8,-1,-1,9,11,95,42
1520336647218160,14,22,-6,-9,-10,-2,-42,-32
1520336647218160,-1,-12,4,-2,-25,-16,-48,-128
1520336647220166,-13,19,9,1,-32,4,82,-31
1520336647220166,-11,-12,-5,-17,-22,-7,-69,-56
1520336647232198,-7,24,12,30,101,33,38,17
1520336647232198,6,-10,-4,5,10,17,48,20
1520336647241222,-17,7,6,9,13,-23,-41,-8
1520336647241222,10,6,-6,-4,-21,-4,79,89
1520336647256262,37,4,-17,-19,-46,-29,-110,-128
1520336647256262,-28,-7,5,3,12,27,127,106
1520336647257264,-6,-29,-22,-10,-4,-11,-73,-36
1520336647257264,29,36,11,-2,-12,-29,0,21
1520336647278320,37,25,24,8,5,33,0,63
1520336647278320,-12,-15,-5,-2,-4,-30,-45,22
1520336647280326,-21,-17,-5,-5,-5,11,57,30
1520336647280326,-10,37,15,16,20,16,40,3
1520336647292358,-30,-1,-4,-5,-7,-5,30,29
1520336647292358,-14,-13,-15,-4,-7,-4,-102,-61
1520336647301382,27,4,-3,-2,9,11,96,5
1520336647301382,-9,-21,-10,-4,17,15,23,-8
1520336647316422,-4,25,25,13,-6,-13,-16,-35
1520336647316422,-11,-17,-25,-24,-37,-42,-105,-77
1520336647317424,3,21,-1,-6,10,-18,2,85
1520336647317424,36,-18,-4,-3,-24,44,68,39
1520336647338480,0,8,-2,-3,23,-17,-16,-56
1520336647338480,-13,-16,-3,11,54,16,-10,-55
1520336647340486,-2,17,22,18,11,17,99,59
1520336647340486,21,-9,-7,-7,3,-20,-36,21
1520336647352518,-27,-13,-3,-9,-36,-16,-82,-59
1520336647352518,41,12,11,2,-4,22,59,95
1520336647361542,10,-5,3,9,3,-13,-49,22
1520336647361542,-20,-30,-15,-3,8,29,0,13
1520336647375579,-3,32,3,-3,-11,3,94,34
1520336647375579,-12,-23,8,11,-5,-6,89,44
1520336647377584,-15,-9,11,11,21,78,101,119
1520336647377584,4,30,-7,-16,-24,-86,-128,-91
1520336647398640,21,-1,-10,-6,5,7,111,41
1520336647398640,-4,3,3,-3,-2,8,88,9
1520336647400646,14,7,-1,-2,-10,-4,-24,-89
1520336647400646,-40,-27,-4,10,16,10,-12,-48
1520336647412678,-1,-7,-10,-8,0,21,74,-9
1520336647412678,-15,21,10,-3,-11,-12,19,-38
1520336647421702,6,-6,-1,-5,-5,-23,-96,-59
1520336647421702,1,2,-3,-6,9,-4,-31,61
1520336647435739,-23,1,-3,3,-11,-9,13,28
1520336647435739,-3,-15,5,10,7,34,101,82
1520336647437744,-3,8,-4,-3,0,3,87,9
1520336647437744,7,1,15,6,4,14,30,6
1520336647458800,-9,-28,-14,-10,-11,-23,-114,-59
1520336647458800,7,24,1,-2,1,-3,-44,-6
1520336647459803,-46,-36,-17,-7,-2,-5,24,-29
1520336647459803,11,-9,-4,3,3,-2,32,-17
1520336647471835,23,56,42,16,5,14,65,41
1520336647471835,6,-36,-13,-15,-20,-20,-124,-116
1520336647480859,5,6,-4,-6,-2,-2,2,-24
1520336647480859,-35,-52,-22,-5,-2,2,-3,-24
1520336647495899,9,-6,-8,-16,-13,-5,-3,25
1520336647495899,11,8,-5,-11,-6,-2,-19,63
1520336647497905,4,7,15,33,21,3,25,49
1520336647497905,-8,5,-5,6,1,-3,-66,-80
1520336647518961,7,-21,-12,5,2,-3,-14,-48
1520336647518961,13,-8,-2,-9,-7,-10,0,-35
1520336647519963,-20,15,14,-7,-6,1,-24,-74
1520336647519963,23,54,28,17,12,10,23,-8
1520336647541019,-28,-14,-2,0,-4,0,16,-3
1520336647541019,26,-47,-30,-11,-10,-17,-28,-18
1520336647543025,30,28,11,2,7,13,-30,17
1520336647543025,-13,-13,-6,-5,-7,-11,-27,-121
1520336647556059,-9,1,-6,-6,-5,2,44,-14
1520336647556059,-35,-7,2,-1,-3,-11,-36,-11
1520336647558065,7,-22,-11,-8,-10,-22,-46,-38
1520336647558065,1,6,-4,-4,1,-11,-12,127
1520336647578118,-9,-39,-15,2,8,38,104,34
1520336647578118,15,41,5,2,0,-22,-66,-18
1520336647580123,26,-10,-1,5,0,2,-14,16
1520336647580123,-33,-6,3,-10,-11,-11,-37,-29
1520336647592155,-23,-8,-8,-1,-1,-8,-32,-29
1520336647592155,-26,-31,-4,12,8,17,50,17
1520336647601179,-24,-30,-12,-12,-12,-6,-8,27
1520336647601179,26,85,31,8,3,-2,0,47
1520336647616219,51,-11,-6,-2,-2,-6,-8,101
1520336647616219,7,33,18,2,0,10,35,47
1520336647617222,9,53,6,-3,-4,-6,-7,4
1520336647617222,-26,-101,-19,5,3,5,35,17
1520336647638278,38,80,15,2,-5,-6,10,22
1520336647638278,3,0,16,16,15,13,-33,32
1520336647640283,1,-7,-14,-13,-15,-30,-77,25
1520336647640283,-43,-30,-6,-4,-2,-2,-1,34
1520336647652315,11,-11,0,-2,-5,8,87,28
1520336647652315,-15,-13,-5,0,-3,-14,-72,21
1520336647661339,-19,-1,0,2,12,14,65,27
1520336647661339,16,4,-4,-4,-1,2,1,13
1520336647675376,-2,-113,-36,-16,-6,-14,-54,9
1520336647675376,33,122,53,11,4,-4,-26,0
1520336647682395,-29,-35,-11,-4,-2,0,-2,11
1520336647682395,7,-2,3,-1,-3,0,1,9
1520336647698438,-33,-61,-19,-6,-4,-3,-22,-8
1520336647698438,-13,-63,-6,7,3,7,30,2
1520336647700444,-22,-16,-6,6,2,2,-9,11
1520336647700444,44,-74,-14,-3,5,19,68,5
1520336647712475,-15,53,19,9,4,-2,-24,1
1520336647712475,17,5,-9,-8,-4,3,34,-1
1520336647721499,29,13,15,3,-3,0,45,5
1520336647721499,-19,-24,-9,1,5,-3,-9,0
1520336647735537,-13,21,12,5,6,-2,-77,-1
1520336647735537,-14,-25,-19,-15,-12,-15,-43,0
1520336647742555,11,-11,-3,-2,5,11,45,-1
1520336647742555,7,-14,-15,-13,-9,-8,-14,1
1520336647758598,21,73,24,12,5,-4,-14,1
1520336647758598,-38,-10,-6,2,2,7,57,0
1520336647760603,45,40,10,0,-3,-2,-32,2
1520336647760603,-98,-47,-18,-13,-9,-9,-20,0
1520336647772635,55,88,35,5,0,-4,-7,0
1520336647772635,-4,-84,-32,-15,-9,-2,21,-2
1520336647781660,-37,-33,2,6,3,12,66,1
1520336647781660,42,40,5,-3,-4,-18,-80,1
1520336647795697,-102,-63,-15,-7,-5,-6,-23,-3
1520336647795697,59,3,0,-3,-1,0,9,-1
1520336647801713,19,60,7,-4,-7,-8,-17,1
1520336647801713,3,6,-8,2,-1,4,37,0
1520336647818758,-21,-50,-22,-9,-1,3,-3,-1
1520336647818758,-4,21,3,3,4,12,12,-1
1520336647819761,-27,-55,-13,-8,-12,-28,-99,1
1520336647819761,-13,-7,10,12,8,2,4,0
1520336647831793,0,-29,-6,-1,-3,-4,13,-1
1520336647831793,24,-46,-20,-11,-6,4,21,0
1520336647840817,-73,4,-10,-6,-2,2,-1,-1
1520336647840817,75,23,27,8,3,7,32,10
1520336647855857,-50,-65,-17,-6,-4,-6,-67,-6
1520336647855857,-75,-50,-28,-4,-1,-4,-3,-3
1520336647861873,82,12,2,-2,-1,3,25,-8
1520336647861873,17,92,33,3,0,-1,-6,-2
1520336647878919,-17,-7,0,-1,1,10,45,1
1520336647878919,-49,13,-11,-11,-7,-7,2,12
1520336647879921,51,2,21,-2,-4,-8,-23,6
1520336647879921,35,3,-1,4,2,12,48,25
1520336647900977,47,37,31,16,8,5,2,21
1520336647900977,-15,73,29,4,-3,-8,-11,15
1520336647902983,-4,37,-5,-1,4,10,34,5
1520336647902983,3,40,11,-2,-1,-7,-18,7
1520336647916025,-97,-11,-43,-20,-8,6,44,-9
1520336647916025,19,-39,-16,1,0,-9,-27,-25
1520336647922034,25,-59,-11,1,2,2,6,11
1520336647922034,-18,-14,4,-4,-6,-7,10,18
1520336647938075,13,80,38,17,6,-2,-10,-11
1520336647938075,32,-42,4,-1,1,8,31,28
1520336647940081,11,26,10,5,-1,1,-12,-11
1520336647940081,-59,-128,-58,-14,-4,-4,-25,-12
1520336647961137,54,-4,21,0,1,3,9,0
1520336647961137,6,-33,14,9,8,7,32,-2
1520336647963142,0,-104,-9,-2,0,-5,-35,-19
1520336647963142,-38,-80,-18,-6,-4,0,14,16
1520336647975174,7,-101,-39,-17,-9,-9,-23,-25
1520336647975174,78,68,79,27,12,8,7,32
1520336647984198,-37,2,3,4,2,6,35,23
1520336647984198,-27,-2,-6,-2,-1,2,31,-2
1520336647998237,-17,-57,-17,1,5,9,-2,7
1520336647998237,17,82,11,-1,-3,-14,-86,-13
1520336648000241,-3,-30,2,11,11,25,114,74
1520336648000241,-60,0,-16,-21,-13,-15,-75,-62
1520336648021297,103,89,34,13,2,-1,16,66
1520336648021297,-45,-128,-75,-30,-15,-6,-1,3
1520336648022300,-17,31,44,19,10,5,0,14
1520336648022300,15,-9,5,8,6,6,25,4
1520336648035334,-50,-106,-63,-28,-12,-10,-6,-23
1520336648035334,-17,41,17,11,6,8,14,-8
1520336648042353,-39,-115,-61,-30,-18,-20,-35,-42
1520336648042353,74,71,39,21,12,11,19,13
1520336648057393,-33,19,13,9,2,-6,-16,-7
1520336648057393,-25,-75,-34,-11,-2,13,99,31
1520336648066417,10,-50,-55,-33,-16,-19,-46,-34
1520336648066417,-68,-69,18,10,6,8,11,1
1520336648080454,88,14,9,1,-5,-7,-15,12
1520336648080454,7,55,35,16,6,6,17,-1
1520336648087473,8,-117,-48,-13,-7,-1,-19,-13
1520336648087473,19,60,23,6,2,0,-8,14
1520336648103516,-10,-26,15,7,-2,-1,8,-12
1520336648103516,-31,-19,-5,-4,-2,-5,-27,-26
1520336648105521,-45,-28,-32,-12,-5,2,34,32
1520336648105521,15,42,19,14,7,-8,-89,-77
1520336648117553,8,-24,-9,-6,-1,7,71,16
1520336648117553,-35,-27,-17,-11,-7,-10,-64,-22
1520336648126577,1,6,6,5,0,-4,-19,-7
1520336648126577,3,-128,-67,-28,-13,-2,28,5
1520336648140614,-22,89,44,23,10,-1,-18,-9
1520336648140614,-53,-60,-18,-7,-6,1,14,-6
1520336648147633,64,125,47,14,6,4,-14,-2
1520336648147633,-14,-55,-14,1,3,8,55,27
1520336648163676,-4,9,-5,-10,-11,-16,-14,-21
1520336648163676,-7,-66,-34,-13,-7,-3,56,33
1520336648165681,-39,-9,15,5,0,-7,-57,-93
1520336648165681,18,-1,-11,-4,-2,-2,25,37
1520336648185734,-1,-38,-15,-7,-2,-5,-37,-17
1520336648185734,-7,-58,-16,-9,-1,4,32,8
1520336648187740,-42,-15,8,10,5,13,75,43
1520336648187740,25,10,-4,-7,-10,-31,-119,-97
1520336648200774,-10,-34,-13,0,2,20,127,46
1520336648200774,14,9,1,-2,-5,-22,-109,-68
1520336648206790,37,51,22,2,-1,-3,-19,4
1520336648206790,-5,23,14,1,1,3,23,18
1520336648223836,-57,-35,-24,-15,-5,1,-14,-8
1520336648223836,40,73,77,52,21,18,29,2
1520336648224838,8,-30,3,5,0,-1,-21,-1
1520336648224838,-5,3,8,3,2,3,40,41
1520336648245894,5,-49,-15,-6,-2,0,17,-18
1520336648245894,-17,9,-22,-18,-9,-16,-75,-42
1520336648247900,-7,44,21,14,8,3,3,16
1520336648247900,7,-14,-16,-12,-10,-7,0,-42
1520336648259932,-16,16,2,7,-1,-6,-28,8
1520336648259932,28,29,2,-1,0,4,16,12
1520336648268956,-32,-14,-6,-7,-1,0,24,-2
1520336648268956,-2,-65,-38,-23,-12,-10,-5,-11
1520336648283996,-8,3,-3,-3,-2,-1,-7,-26
1520336648283996,-14,-23,-3,10,5,8,0,-5
1520336648284998,19,4,-3,-3,-7,-12,-48,-28
1520336648284998,-13,7,0,2,-1,3,-14,-20
1520336648306054,0,-46,-20,-16,-15,-27,-85,-71
1520336648306054,-10,-19,-1,-3,-2,6,42,12
1520336648308060,-5,-27,-16,-11,0,6,38,7
1520336648308060,48,60,57,23,10,6,13,33
1520336648320092,25,-15,12,9,3,3,5,27
1520336648320092,-22,-1,0,-6,-1,0,-33,2
1520336648327110,-12,-5,-8,-6,-5,-15,-29,0
1520336648327110,-2,31,13,11,7,13,70,22
1520336648343153,3,13,5,1,1,2,-3,18
1520336648343153,29,34,11,4,-1,0,14,13
1520336648345159,18,24,4,1,1,6,54,45
1520336648345159,-26,-16,-7,0,2,7,-8,-6
1520336648366214,7,52,12,1,3,9,68,0
1520336648366214,0,7,-6,-5,-4,-8,5,-8
1520336648368220,-3,-26,-9,-2,-3,4,-2,12
1520336648368220,-15,3,3,-5,-6,-4,-16,21
1520336648379249,18,-17,-13,-13,-2,12,15,14
1520336648379249,-20,-7,-4,1,0,-2,15,-13
1520336648388273,-19,-50,-22,0,20,16,83,18
1520336648388273,44,74,21,17,8,-9,-87,-7
1520336648403313,-8,-10,-12,-7,-8,-10,-25,-38
1520336648403313,3,0,12,-4,-4,-8,2,8
1520336648405324,-3,5,0,-3,-4,19,55,39
1520336648405324,-14,-17,-13,-4,-3,-7,60,6
1520336648426374,0,5,3,0,0,-1,60,27
1520336648426374,13,1,-4,0,2,-2,9,-8
1520336648427377,-12,-8,4,3,-4,-4,-38,-14
1520336648427377,17,24,12,0,5,18,51,19
1520336648441414,-9,6,15,13,5,-3,-28,2
1520336648441414,-5,-5,-5,-6,-5,-5,-34,-21
1520336648442417,20,5,2,-1,4,9,-31,16
1520336648442417,-23,-18,-9,-7,-9,-12,31,15
1520336648463473,6,-9,-2,7,11,21,28,12
1520336648463473,6,2,0,4,8,16,104,39
1520336648465479,5,21,8,0,-5,-26,-125,-53
1520336648465479,-9,4,0,-5,-4,-5,18,1
1520336648486534,4,-15,-3,1,-2,1,20,23
1520336648486534,-6,-17,-4,-4,-5,-7,-37,-20
1520336648487537,3,16,1,-2,-3,10,75,2
1520336648487537,-9,-29,-6,0,8,6,-21,-5
1520336648501574,4,-12,-4,-2,-18,-15,-100,-30
1520336648501574,6,-39,-21,-3,13,-7,8,24
1520336648502577,30,92,55,20,11,16,55,35
1520336648502577,-27,-25,-16,-6,-6,-9,-67,-50
1520336648523633,0,12,0,-4,0,2,-4,14
1520336648523633,9,-18,-9,-6,-10,0,9,20
1520336648525639,-3,-8,-7,4,-2,-19,-83,-26
1520336648525639,-3,-20,-2,3,7,19,60,15
1520336648545692,2,21,7,-1,4,-14,-40,-54
1520336648545692,2,14,9,3,-17,2,93,28
1520336648547697,-7,-13,-10,-8,-13,-21,-82,-22
1520336648547697,-4,-1,-7,-1,16,10,14,-10
1520336648560732,5,6,-6,-3,4,-6,16,11
1520336648560732,-2,7,7,6,6,-5,-55,-27
1520336648566748,0,-25,-12,-5,-11,-5,20,-6
1520336648566748,5,7,7,4,-12,-4,-24,20
1520336648583793,-3,22,7,-2,-2,2,16,3
1520336648583793,5,14,-5,-8,-6,-8,-54,-18
1520336648584796,-14,-4,-8,-6,-7,-3,46,17
1520336648584796,-1,-15,-5,-1,-2,-4,34,-3
1520336648605852,8,-11,-5,0,10,0,-66,-8
1520336648605852,4,15,6,5,-1,6,16,27
1520336648607857,-10,-3,-5,-5,-2,2,60,-11
1520336648607857,-8,-1,-15,-9,-4,-24,-81,-52
1520336648619889,0,-15,-10,-5,-13,-19,-56,-12
1520336648619889,-2,8,3,3,1,10,-5,-16
1520336648628913,-1,-1,1,-1,12,0,-23,-15
1520336648628913,-3,1,8,0,-16,-1,26,8
1520336648643953,-9,-9,4,2,21,20,73,31
1520336648643953,-2,-5,-16,-15,-15,-36,-122,-51
1520336648644956,-1,-31,-5,1,7,6,57,19
1520336648644956,16,42,3,-3,-9,2,24,12
1520336648666012,12,41,24,12,0,0,13,15
1520336648666012,-1,-8,0,3,4,5,29,5
1520336648668017,11,27,14,10,-1,4,7,12
1520336648668017,-11,-33,-10,0,0,-6,-91,-74
1520336648680049,-4,-13,-9,-6,-5,0,27,-29
1520336648680049,4,-4,0,3,9,-1,-14,32
1520336648689073,-18,-8,-8,-6,-9,-7,51,30
1520336648689073,7,-10,-8,-4,-6,-4,-57,72
1520336648703111,-18,-8,2,5,12,-23,-34,-105
1520336648703111,0,9,7,1,1,19,75,36
1520336648705116,-3,-4,0,-4,-3,-14,-40,23
1520336648705116,-2,-2,-2,-7,-28,7,15,34
1520336648726172,16,-4,4,12,42,38,86,73
1520336648726172,2,12,6,6,8,5,16,-25
1520336648728177,-7,-4,-3,-1,7,14,-3,-61
1520336648728177,-12,-9,2,-2,-3,-5,38,30
1520336648740209,-12,-26,-21,-15,-33,-9,-13,3
1520336648740209,-4,-18,-7,-5,-1,-4,24,27
1520336648749234,7,38,17,11,16,22,86,-23
1520336648749234,-8,-21,-1,-6,-3,-25,-67,-84
1520336648763271,18,34,5,-1,-5,9,42,8
1520336648763271,23,36,16,8,11,14,2,44
1520336648765277,-20,-58,-22,-13,-24,-32,-67,18
1520336648765277,32,94,22,4,8,-1,3,-21
1520336648786332,-25,-52,-6,3,-6,3,18,47
1520336648786332,1,-9,-6,-7,-9,-16,-51,45
1520336648787335,-10,9,11,5,2,-10,-78,99
1520336648787335,-10,-22,-3,2,10,6,-21,127
1520336648799367,-8,-7,-5,-3,-2,4,43,127
1520336648799367,1,-5,-1,-4,-9,14,106,43
1520336648808390,-15,-52,-21,-9,-9,-25,-93,-115
1520336648808390,10,-21,-23,-8,8,3,52,-33
1520336648823431,12,58,15,-1,-9,-7,-26,-128
1520336648823431,-1,-18,19,11,10,14,22,-86
1520336648825436,-2,42,-6,-5,-5,1,-1,-75
1520336648825436,-5,-27,10,6,9,12,62,-22
1520336648846492,19,19,-2,1,-5,-8,-44,-25
1520336648846492,7,-7,-8,-3,-5,-7,4,-3
1520336648847495,-6,-8,1,-1,-4,-6,-46,-116
1520336648847495,-20,-19,-14,-4,-4,3,50,-31
1520336648859527,-8,-3,1,4,7,7,-9,-71
1520336648859527,-25,-25,-16,-6,-3,-10,-41,-14
1520336648868551,18,-1,4,-2,1,-2,-6,21
1520336648868551,-5,-14,4,1,3,12,111,14
1520336648883592,0,-13,-5,-9,-10,-11,-3,-105
1520336648883592,3,-2,8,7,2,-17,-103,-128
1520336648885596,15,12,4,0,-6,4,6,-10
1520336648885596,-7,-36,-15,0,10,8,31,26
1520336648905649,-24,21,-6,-7,-5,-10,-15,14
1520336648905649,3,-99,-37,-13,-5,-2,6,-80
1520336648907655,39,69,29,13,8,12,36,36
1520336648907655,9,9,12,6,0,-4,-46,17
1520336648919687,19,62,19,10,-1,0,0,113
1520336648919687,-12,-50,-14,-6,-4,4,40,90
1520336648928711,18,42,14,9,9,13,13,44
1520336648928711,6,5,3,1,3,16,32,72
1520336648943751,-14,-53,-8,-3,-5,-10,5,27
1520336648943751,-14,25,-3,-9,-4,-3,-21,-40
1520336648944753,-7,-19,3,6,8,4,22,12
1520336648944753,-4,-5,1,1,-3,-14,-58,-32
1520336648965810,18,-30,-7,3,1,22,43,53
1520336648965810,-10,-10,-18,-11,-13,-43,-54,-25
1520336648967815,31,68,23,7,8,12,114,98
1520336648967815,8,52,7,5,2,4,60,-17
1520336648979847,10,-21,5,1,-2,-9,-2,14
1520336648979847,8,-3,-4,-2,-3,7,-30,32
1520336648988871,-15,-69,-19,-10,-3,-6,-30,-25
1520336648988871,-1,-39,-1,0,2,-3,-47,-17
1520336649003911,18,60,39,17,11,14,10,49
1520336649003911,0,24,11,6,4,6,13,50
1520336649004914,-36,-97,-52,-21,-13,-7,-52,-25
1520336649004914,4,33,11,-2,-2,-1,11,50
1520336649025969,-19,-61,-27,-15,-9,-22,-75,-80
1520336649025969,3,27,19,12,9,15,13,28
1520336649027975,8,-14,-2,-4,-2,2,30,-47
1520336649027975,-16,-87,-25,-8,-2,4,-8,7
1520336649040007,-13,-12,-9,-5,-2,-10,-15,-11
1520336649040007,45,58,52,22,10,13,43,25
1520336649049031,-30,-64,-17,-3,-4,-11,-53,17
1520336649049031,2,-40,-11,-3,-2,1,-22,-35
1520336649063068,-31,-54,-28,-14,-8,-19,-54,-68
1520336649063068,-34,-40,-20,-11,-3,2,25,-5
1520336649065074,24,74,18,0,-5,-2,7,1
1520336649065074,4,67,22,10,2,0,-21,-46
1520336649086129,-10,-77,-34,-11,-6,-3,0,17
1520336649086129,-2,27,4,3,5,3,-8,-22
1520336649088135,15,6,11,9,3,4,51,22
1520336649088135,-21,-37,-16,-11,-8,-9,-10,-16
1520336649100167,-53,-105,-54,-18,-8,-3,-17,-44
1520336649100167,38,67,50,18,8,1,0,-3
1520336649109191,-5,-19,-8,-2,-3,-1,15,17
1520336649109191,1,-16,-3,2,0,1,10,-23
1520336649123228,12,30,10,2,-3,4,37,67
1520336649123228,-44,-62,-40,-17,-5,1,22,22
1520336649129244,-1,-57,-16,-1,3,-4,-42,-68
1520336649129244,36,110,48,18,5,1,-7,58
1520336649146289,58,76,49,9,2,7,22,27
1520336649146289,-30,-49,-14,-6,-9,-16,-43,24
1520336649147293,3,-30,-11,-7,2,27,126,30
1520336649147293,-16,-4,-17,-12,-11,-24,-61,-60
1520336649159324,8,-5,7,3,2,-20,-75,-62
1520336649159324,-29,-62,-26,-11,-4,0,15,11
1520336649168348,3,42,32,9,0,-2,-10,52
1520336649168348,70,47,60,21,10,10,30,54
1520336649183388,59,74,48,12,0,8,30,46
1520336649183388,-27,-50,-14,-6,-4,-3,-13,-81
1520336649185394,-38,-54,-28,-14,-8,-14,-31,10
1520336649185394,47,75,58,23,11,8,9,30
1520336649206449,-50,-64,-12,-1,2,8,32,1
1520336649206449,52,45,15,6,1,1,13,20
1520336649207452,-8,-40,-10,-5,-3,-10,-32,-21
1520336649207452,-8,-2,-18,-7,1,4,7,14
1520336649219484,-19,-23,-20,-11,-7,-6,16,-13
1520336649219484,-24,-55,-13,-8,-10,-7,-49,10
1520336649228508,-62,-128,-56,-21,-11,-13,-59,-83
1520336649228508,32,56,22,9,-1,-7,-10,29
1520336649243548,-16,-21,-1,-2,1,6,14,42
1520336649243548,22,45,9,-1,-1,1,20,11
1520336649245554,22,34,22,10,4,2,-21,-2
1520336649245554,-75,-128,-107,-40,-11,6,67,45
1520336649265607,-25,-7,36,30,15,8,-1,-1
1520336649265607,3,-39,4,4,1,1,16,29
1520336649267612,-45,-27,-28,-9,-4,-6,30,-1
1520336649267612,-73,-85,-19,-1,6,13,0,-70
1520336649279644,10,15,-17,-13,-10,-8,1,-19
1520336649279644,-30,-2,-2,-4,-2,-1,17,-9
1520336649288669,-24,-31,-29,-8,-9,-11,-37,-29
1520336649288669,47,95,66,21,7,1,-24,-40
1520336649303708,-38,-65,-20,-6,0,5,24,13
1520336649303708,7,-22,-16,-12,-7,-10,-61,-65
1520336649304711,39,37,28,13,11,11,2,72
1520336649304711,-47,-109,-66,-27,-22,-28,-28,-58
1520336649325767,20,-31,11,4,2,-2,-54,-22
1520336649325767,-48,-114,-35,-11,-3,7,51,28
1520336649327772,20,93,42,12,3,-7,-20,-19
1520336649327772,53,69,47,20,11,6,-8,-21
1520336649348828,-63,-100,-93,-44,-20,-5,36,29
1520336649348828,-21,-21,15,9,2,-9,-28,-29
1520336649349831,-31,-57,-1,4,2,10,37,23
1520336649349831,1,-72,2,5,0,-1,0,9
1520336649361863,-1,7,-6,-1,1,4,1,4
1520336649361863,-13,-72,-45,-16,-5,2,21,21
1520336649370887,32,53,35,9,1,-7,-44,-51
1520336649370887,-58,-128,-71,-27,-8,6,48,-15
1520336649385927,87,90,65,23,7,-3,-1,35
1520336649385927,9,54,-9,1,1,-2,-9,36
1520336649387932,54,66,61,25,11,10,0,-13
1520336649387932,14,-29,-4,-1,-1,0,4,31
1520336649408988,-13,-13,-8,-2,-3,-5,-42,-48
1520336649408988,14,98,31,13,3,-1,-4,-1
1520336649409991,-52,-119,-79,-31,-10,7,53,42
1520336649409991,31,-1,37,12,6,-3,-3,15
1520336649422023,-30,-82,-10,0,0,3,48,55
1520336649422023,4,-22,7,8,7,9,23,53
1520336649431049,21,44,7,1,1,-4,2,20
1520336649431049,-38,-34,-25,-7,-4,0,-9,-2
1520336649446087,8,-35,-6,-1,1,1,-10,-8
1520336649446087,73,86,52,18,8,10,51,16
1520336649448098,-10,-79,-26,-10,-3,7,48,-1
1520336649448098,-27,-19,-2,0,-4,-10,-3,46
1520336649468145,34,19,2,-4,-3,-8,-27,-42
1520336649468145,-29,38,-13,-14,-7,-13,-33,-26
1520336649470151,10,49,35,11,3,3,19,0
1520336649470151,28,49,49,9,3,5,26,18
1520336649482183,-14,-6,8,10,6,2,0,-15
1520336649482183,-15,-58,-10,-2,-2,1,-12,-39
1520336649491207,-14,-23,-10,0,-5,-17,-46,-3
1520336649491207,-13,0,-9,4,4,15,84,43
1520336649506247,-9,25,1,-5,-5,-7,-66,-26
1520336649506247,29,-24,1,1,3,11,39,24
1520336649507250,46,52,45,3,-2,-12,-12,29
1520336649507250,-10,-91,-52,-18,-8,-4,-18,-12
1520336649528305,37,68,64,26,10,16,28,81
1520336649528305,-11,-38,-6,-1,-5,-4,38,-34
1520336649530311,-24,-69,-39,-11,-7,-13,-67,-18
1520336649530311,-22,-16,-16,-7,-2,-10,-33,-43
1520336649542343,-9,-4,-7,-2,-1,-4,-19,-16
1520336649542343,11,26,5,1,1,15,94,73
1520336649551367,-8,4,-9,-9,-9,-18,-26,-54
1520336649551367,32,63,22,2,4,-3,-20,-24
1520336649566407,-3,-37,-21,-4,-5,-8,11,-5
1520336649566407,-19,-101,-33,-10,-6,-2,-3,4
1520336649567410,-6,2,5,6,7,15,53,12
1520336649567410,-22,-41,-16,-7,-7,-6,-35,68
1520336649588465,2,-76,-58,-26,-13,-11,-19,-52
1520336649588465,0,34,17,9,3,0,-34,-53
1520336649590471,-15,-94,-31,-13,-2,9,11,23
1520336649590471,24,104,41,12,4,-3,-30,97
1520336649602503,-22,1,11,9,6,17,76,127
1520336649602503,14,10,1,-4,-7,-19,-99,-11
1520336649611527,-20,-27,-5,5,5,8,-24,4
1520336649611527,-13,-42,-23,-10,-6,0,34,-128
1520336649626567,1,16,4,1,-1,-5,-11,69
1520336649626567,19,34,7,0,0,-2,-41,0
1520336649627570,-3,21,15,9,3,1,13,-30
1520336649627570,-13,-27,-12,-5,-3,-2,-13,80
1520336649648626,7,19,3,-5,-3,0,15,6
1520336649648626,-9,-27,-12,-3,-1,-7,-20,-48
1520336649650631,1,-23,-7,0,5,16,68,-55
1520336649650631,-5,-7,5,-1,-1,5,51,-58
1520336649662663,-2,8,3,3,-4,-15,-51,-3
1520336649662663,-12,-41,-13,-5,-2,4,65,28
1520336649671687,1,3,10,5,-1,-11,-24,-1
1520336649671687,12,34,6,8,6,6,9,5
1520336649685724,-5,-14,-10,-7,-4,3,60,14
1520336649685724,-20,-15,-6,1,0,-1,-57,-7
1520336649687730,16,20,7,5,2,7,62,75
1520336649687730,-17,-6,-18,-11,-23,-17,-106,-25
1520336649708786,3,9,4,-6,9,-1,15,-51
1520336649708786,17,44,17,0,-1,3,86,6
1520336649709789,-8,1,-6,-7,1,-8,-56,10
1520336649709789,8,-6,5,4,-3,1,6,4
1520336649721820,-3,-6,-3,6,-1,6,33,-63
1520336649721820,-13,-4,-7,-5,13,-13,-68,-29
1520336649730844,5,33,6,4,-2,-1,-46,5
1520336649730844,-7,-16,-8,-10,-5,-2,23,-15
1520336649745884,3,29,12,5,-3,7,11,5
1520336649745884,9,-9,-6,-6,-11,-5,-20,24
1520336649747890,4,10,9,0,-1,0,31,-15
1520336649747890,-9,-18,-7,-2,-1,-2,-24,-38
1520336649768946,-2,-9,-11,-3,-1,-18,-67,-40
1520336649768946,7,-3,12,12,6,-1,40,19
1520336649769948,-7,-6,-10,-6,-5,-9,-17,-17
1520336649769948,2,-5,-7,5,9,15,50,27
1520336649781980,3,10,12,-2,-17,9,46,-11
1520336649781980,-10,-4,-6,-24,-17,0,-52,-27
1520336649791004,30,18,5,-52,-65,8,41,62
1520336649791004,-45,-31,-11,21,19,-27,-48,-22
1520336649806044,-6,7,5,56,111,19,67,31
1520336649806044,15,27,7,26,10,-1,29,20
1520336649808050,7,-4,-5,7,5,-1,33,27
1520336649808050,-10,-66,-34,-36,-40,8,36,43
1520336649828103,-23,-92,-21,-25,-43,-5,-34,-11
1520336649828103,8,35,20,6,7,0,-24,2
1520336649830108,6,15,16,10,7,14,70,80
1520336649830108,-8,-18,-27,-20,-18,-22,-79,-61
1520336649842140,-3,8,7,4,-4,-2,-28,23
1520336649842140,1,-7,-6,-13,-8,5,64,21
1520336649851165,-14,-27,-13,3,5,3,-41,-25
1520336649851165,17,40,19,10,12,-3,-28,0
1520336649866204,-6,-1,-4,-12,-14,1,42,-2
1520336649866204,6,9,-4,-12,-21,-2,4,-8
1520336649868210,-4,5,-4,-6,-19,-9,-54,18
1520336649868210,0,8,6,-2,-11,-1,-23,-52
1520336649888263,15,27,6,7,57,20,-87,10
1520336649888263,-1,-6,-2,12,20,20,60,76
1520336649890268,-13,-9,-17,2,44,-27,-72,-96
1520336649890268,-8,-75,-13,-2,-8,20,126,85
1520336649902301,23,76,14,-11,-36,-21,-74,-30
1520336649902301,4,18,18,9,-7,0,3,3
1520336649911325,2,-8,1,6,-9,4,-10,11
1520336649911325,2,4,-4,-2,5,8,62,39
1520336649926365,-7,12,12,2,-11,16,127,50
1520336649926365,5,-4,-1,-1,2,-29,-107,-38
1520336649927367,-13,-15,-13,-9,-14,-15,-13,-64
1520336649927367,15,28,21,8,14,20,68,43
1520336649948423,-8,-28,-20,-17,-28,-36,-45,-80
1520336649948423,1,16,3,-3,0,-3,6,16
1520336649950429,-8,-8,-4,-18,-69,3,12,29
1520336649950429,5,25,14,24,72,19,22,-6
1520336649962461,-1,-14,-5,5,-10,-5,-69,-9
1520336649962461,-33,-72,-26,7,48,10,57,2
1520336649971485,17,44,22,20,32,21,57,15
1520336649971485,-3,-4,-9,-17,-30,-14,-28,-13
1520336649986525,4,-20,0,-12,-16,0,40,42
1520336649986525,25,91,42,7,-13,-4,-36,-16
1520336649987527,-7,-9,7,10,17,18,74,52
1520336649987527,7,26,12,10,-7,-2,-42,30
1520336650008583,-11,-27,-7,-5,4,-9,-35,-5
1520336650008583,-9,-44,-12,-4,-6,23,74,29
1520336650010589,-5,-2,-4,-7,0,-5,66,50
1520336650010589,13,35,2,-7,2,-18,-128,-59
1520336650022621,-4,-9,-4,2,-3,4,76,-9
1520336650022621,1,-13,-12,-9,-9,-11,-100,-38
1520336650031645,9,21,15,14,28,-2,4,47
1520336650031645,-18,-33,-11,-7,-18,28,26,-33
1520336650045682,-3,8,1,-8,-4,9,55,39
1520336650045682,-2,-2,-3,9,24,7,36,4
1520336650047687,6,-5,-4,9,14,-15,-98,-62
1520336650047687,-3,-15,-7,0,-4,6,103,60
1520336650068743,-7,-24,-12,-10,-13,-15,-83,-43
1520336650068743,-10,-56,13,6,-12,10,23,17
1520336650069746,7,-22,4,4,4,-3,-49,-11
1520336650069746,-1,-39,7,3,-1,-12,-4,-65
1520336650081778,12,56,3,0,-7,3,38,-7
1520336650081778,-14,-23,-10,-3,-9,-12,79,21
1520336650090802,3,10,3,6,8,24,9,-10
1520336650090802,-9,-17,-9,0,3,6,54,49
1520336650105842,2,4,10,3,7,-3,-83,1
1520336650105842,14,27,10,3,2,38,15,56
1520336650111858,-3,-1,-6,-12,-16,-31,86,12
1520336650111858,17,47,12,2,9,9,59,74
1520336650128903,-7,-25,-10,-9,-22,-5,-15,-30
1520336650128903,1,31,7,-6,-13,1,-26,5
1520336650129906,-8,-26,-18,11,56,37,46,8
1520336650129906,-9,-38,-19,-9,6,-29,-106,-69
1520336650141938,1,61,35,13,12,9,55,42
1520336650141938,-13,-70,-27,-14,-21,-13,-40,-24
1520336650150962,-26,-66,-22,-13,-18,-11,-12,-4
1520336650150962,-1,25,18,9,-4,-15,-41,9
1520336650164999,-24,-88,-21,0,5,2,8,-20
1520336650164999,6,11,2,-2,-8,-11,-20,-9
1520336650172018,0,23,13,6,-7,-7,-23,-1
1520336650172018,-22,-38,-32,-17,-12,-19,-63,-44
1520336650188060,-1,-12,-7,-4,-3,4,3,16
1520336650188060,5,26,6,-1,1,-5,2,-3
1520336650190066,-6,-22,-11,-7,-13,-5,90,10
1520336650190066,3,17,5,-11,-26,-39,-26,-64
1520336650202098,-10,-5,-5,-1,-21,-11,87,-2
1520336650202098,-3,5,2,-1,15,-6,-72,-47
1520336650211122,3,3,10,12,16,47,84,79
1520336650211122,20,34,12,10,20,6,83,71
1520336650225159,13,-4,-4,4,24,0,12,32
1520336650225159,0,5,-17,-10,-10,-11,26,7
1520336650232178,5,-22,-5,-10,-22,2,-45,0
1520336650232178,9,13,23,12,3,10,-11,8
1520336650248221,-4,-50,-5,1,5,4,0,4
1520336650248221,6,2,-5,-2,-8,1,-39,3
1520336650250226,-16,-15,-3,-6,-4,-17,-63,-34
1520336650250226,22,58,14,6,3,7,20,42
1520336650271282,-1,-5,-5,-5,-5,-6,24,-18
1520336650271282,-7,-23,-5,-1,-3,-10,7,-16
1520336650272285,-7,4,-9,-7,-5,-17,7,-21
1520336650272285,-20,-71,-27,-10,-1,-3,-7,-9
1520336650285319,35,71,39,14,9,27,58,53
1520336650285319,20,40,18,9,3,32,127,102
1520336650292338,-27,-21,-16,-6,-4,-54,-128,-72
1520336650292338,-5,-14,-13,-10,-30,-64,-35,-26
1520336650308381,-7,-32,-16,-5,7,0,38,31
1520336650308381,0,-9,3,-2,3,-11,50,-10
1520336650310386,25,27,25,9,1,15,27,34
1520336650310386,-1,-12,2,4,11,42,67,47
1520336650331442,-18,-66,-35,-17,-18,-25,-97,-59
1520336650331442,36,76,38,9,1,-5,-55,-27
1520336650333448,1,7,10,3,2,13,9,8
1520336650333448,21,28,9,5,0,5,-28,-20
1520336650345479,10,-47,-16,-3,0,5,5,29
1520336650345479,-24,-14,-7,-1,2,11,20,-13
1520336650352498,34,20,3,2,-1,-5,2,36
1520336650352498,1,7,9,7,9,32,108,49
1520336650368541,-1,16,-8,-9,-10,-37,-95,-73
1520336650368541,-32,-69,-29,-13,-4,-12,14,-34
1520336650370546,-8,9,6,0,-2,-6,17,19
1520336650370546,-15,8,11,11,15,32,102,64
1520336650391602,-6,14,10,5,6,10,-37,-13
1520336650391602,-4,-18,-10,-4,-4,-8,-23,-6
1520336650392605,13,26,4,1,0,-5,-20,1
1520336650392605,-12,10,3,-2,1,10,40,37
1520336650404637,-4,10,4,0,-8,-11,-68,-36
1520336650404637,-7,-21,-2,-1,5,14,78,32
1520336650413661,-26,-16,-7,-4,-4,-1,11,-11
1520336650413661,8,-23,-10,-10,-6,-11,-41,-10
1520336650428701,33,62,6,1,1,6,54,67
1520336650428701,-7,49,37,16,7,6,-20,13
1520336650429703,3,-4,-8,-2,-4,3,5,-17
1520336650429703,-12,-33,-13,-6,-4,-10,-52,-45
1520336650450759,-12,-31,-3,6,6,13,28,14
1520336650450759,10,-22,-24,-12,-13,-22,-76,-42
1520336650452765,-14,-13,-10,-4,1,-5,-19,-47
1520336650452765,3,8,-2,-6,-8,-19,-34,-20
1520336650464797,5,18,8,1,8,16,47,31
1520336650464797,-4,-18,-7,0,0,-2,-5,9
1520336650473821,-9,-93,-24,-11,-10,-9,-13,-19
1520336650473821,11,96,37,11,8,7,-14,-1
1520336650488861,-6,-12,5,3,-1,6,30,12
1520336650488861,4,-29,-9,1,3,1,-28,17
1520336650489863,4,21,1,-6,-9,-13,17,-20
1520336650489863,7,16,2,2,2,0,-6,-1
1520336650510919,-17,-31,-11,-6,-2,4,24,9
1520336650510919,2,-2,-6,0,-3,-4,-7,-6
1520336650512925,13,10,0,0,3,12,38,48
1520336650512925,-20,-57,-20,-8,-5,-7,-48,-86
1520336650524957,4,5,0,-3,-2,-9,3,-9
1520336650524957,16,19,7,1,3,4,23,13
1520336650533981,-30,0,-10,-6,-5,-3,-1,-13
1520336650533981,-27,-82,-21,-6,-3,4,24,27
1520336650549021,16,85,25,8,8,23,82,44
1520336650549021,4,41,22,9,3,-6,-37,-10
1520336650550024,8,-15,6,6,5,13,21,22
1520336650550024,7,-36,-5,-6,-3,-2,-12,27
1520336650571079,-15,-12,-7,-1,-5,-8,-24,-12
1520336650571079,-17,-42,-19,-12,-8,-6,15,-2
1520336650573085,16,39,14,2,2,3,13,34
1520336650573085,-3,0,1,8,5,-2,-33,-33
1520336650585117,14,13,7,5,3,-3,-14,4
1520336650585117,-23,-50,-27,-15,-9,-2,26,6
1520336650594141,17,15,6,2,-1,3,2,-15
1520336650594141,21,-10,7,7,2,4,16,17
1520336650608178,-21,-4,0,-3,-3,0,-2,-3
1520336650608178,-10,-41,-25,-13,-9,-14,-26,-30
1520336650610184,-34,22,18,3,3,6,40,-23
1520336650610184,-15,-47,-7,-4,-1,1,22,18
1520336650631239,3,-16,9,4,0,-10,-68,-81
1520336650631239,-21,-73,-36,-10,-4,0,-7,2
1520336650632242,-29,-5,-15,-6,-7,-9,1,16
1520336650632242,17,-51,-9,-1,-3,-6,-7,-19
1520336650644274,-16,-34,-27,-11,-5,3,48,80
1520336650644274,-21,-74,-4,1,2,1,-17,-25
1520336650653298,27,15,12,1,0,-12,-78,-40
1520336650653298,-13,73,11,2,-3,-4,-27,-41
1520336650668338,40,56,28,10,6,4,16,1
1520336650668338,13,24,12,5,3,10,0,-1
1520336650670344,-37,-54,-24,-4,3,5,34,40
1520336650670344,20,-58,-14,-4,-4,-8,-27,17
1520336650691399,-2,-58,11,8,5,4,5,26
1520336650691399,-34,-2,2,0,-1,-2,12,-2
1520336650692402,13,-53,-12,3,6,12,-6,-7
1520336650692402,-6,-44,-20,-17,-17,-27,-29,-45
1520336650704434,-85,-78,-28,-17,-11,-10,-19,-26
1520336650704434,20,-16,0,-1,0,3,16,14
1520336650713458,17,38,16,1,1,0,-3,-14
1520336650713458,-5,32,-8,-8,-4,3,7,40
1520336650728498,11,36,2,2,0,4,8,7
1520336650728498,-39,-72,-43,-17,-8,-9,-15,62
1520336650730504,60,41,31,12,6,-2,-11,-5
1520336650730504,-24,23,16,11,7,11,28,-4
1520336650751559,-23,-97,-35,-15,-10,-11,3,4
1520336650751559,53,76,41,17,6,1,-3,48
1520336650752563,-43,-75,-36,-15,-14,-16,-19,95
1520336650752563,16,8,6,-2,1,-2,-20,52
1520336650764594,36,71,9,-2,0,5,18,5
1520336650764594,11,35,17,5,2,-4,12,28
1520336650773618,32,118,50,22,8,4,21,9
1520336650773618,-8,21,6,-1,1,3,12,61
1520336650788658,-5,-14,-30,-11,-6,-9,-35,-68
1520336650788658,26,20,29,15,7,10,-3,-102
1520336650790664,-14,-101,-27,-8,-5,-5,-16,-128
1520336650790664,8,-21,9,10,1,7,12,-88
1520336650810717,-20,-72,-31,-9,-2,1,18,-71
1520336650810717,17,24,4,-1,1,-6,-28,-31
1520336650812722,1,-7,4,-2,0,5,-18,-47
1520336650812722,-24,-33,-20,-12,-2,0,12,-82
1520336650824754,8,20,24,11,9,4,-11,6
1520336650824754,4,26,7,5,-3,0,8,-80
1520336650833779,-10,-19,-10,-3,-2,-8,-57,6
1520336650833779,-6,5,1,2,2,15,53,2
1520336650848818,8,25,8,1,-2,-12,-28,6
1520336650848818,-2,-1,-2,-1,-4,-9,3,73
1520336650849821,-17,-33,-21,-17,-56,15,75,31
1520336650849821,7,17,2,3,18,-13,-95,45
1520336650870877,11,0,21,21,39,4,-16,79
1520336650870877,-27,-68,-28,-7,-3,3,3,13
1520336650872882,-17,-38,-9,-1,10,-1,7,36
1520336650872882,15,50,20,4,-19,-10,-21,40
1520336650884914,3,-6,12,4,-4,20,112,54
1520336650884914,-8,-17,-13,-14,-8,-26,-71,-58
1520336650893939,5,19,-1,-1,3,3,24,27
1520336650893939,6,-1,-6,-3,8,16,28,28
1520336650908978,-9,-17,2,1,2,-6,-53,-3
1520336650908978,6,25,9,4,-1,7,27,3
1520336650909981,-14,4,7,1,-8,-8,-1,-57
1520336650909981,-6,-16,-13,-1,11,1,18,20
1520336650931037,8,12,0,2,6,2,-6,13
1520336650931037,0,11,6,1,0,4,11,-17
1520336650933042,2,6,0,5,12,2,-15,-13
1520336650933042,-13,-12,-8,-3,-14,-11,0,76
1520336650945074,2,-1,-5,-4,-14,-7,5,40
1520336650945074,0,-1,-6,-2,-8,-6,-42,8
1520336650954099,7,-18,-9,2,10,1,-27,25
1520336650954099,4,21,10,1,-2,-18,-62,-79
1520336650968136,-5,-16,0,1,5,16,97,48
1520336650968136,-5,22,3,-4,-3,-14,-43,-46
1520336650970141,1,-6,-1,-4,-1,-4,19,6
1520336650970141,2,-1,2,0,-6,1,-1,-38
1520336650991197,13,4,-2,-3,-1,13,43,30
1520336650991197,1,-1,1,0,0,2,39,7
1520336650993202,2,-1,-12,-5,-4,-2,17,-20
1520336650993202,0,0,2,-1,-5,-3,5,-27
1520336651005234,3,5,-2,-4,-3,-4,-15,-14
1520336651005234,-5,1,9,3,-9,22,80,52
1520336651013256,-8,1,-5,-12,-18,-25,-89,-77
1520336651013256,-3,2,4,10,55,18,49,-4
1520336651028296,-3,1,-9,-8,-25,-16,-77,-92
1520336651028296,2,-2,1,5,27,6,17,4
1520336651034312,16,11,12,7,3,8,-4,49
1520336651034312,-4,-9,-1,-2,-12,-10,-32,-12
1520336651051357,-5,-1,-3,1,-1,6,22,-13
1520336651051357,-9,-1,-9,-8,-23,-21,-19,-41
1520336651052360,-12,-5,-10,-4,6,4,12,64
1520336651052360,-9,-11,-4,-2,-11,-9,-2,-26
1520336651064392,-8,2,16,11,8,11,0,19
1520336651064392,-2,2,-3,-8,-12,-13,-68,11
1520336651073416,5,22,6,-1,5,4,-11,-57
1520336651073416,6,-1,-2,-3,-2,-4,-27,4
1520336651087453,-2,-2,-3,-2,-3,2,-32,-7
1520336651087453,-2,-13,1,4,7,8,71,12
1520336651094472,1,-12,-9,0,5,-23,-87,-55
1520336651094472,-1,6,-3,-6,-31,-10,20,5
1520336651111517,9,0,-1,1,4,-2,-5,-10
1520336651111517,3,2,-2,6,4,-8,-41,28
1520336651112520,-6,0,1,-2,7,-6,-18,-12
1520336651112520,-5,1,5,7,0,10,22,16
1520336651124552,-5,-5,0,-6,-14,-24,7,5
1520336651124552,-5,-9,-3,-4,2,6,-2,-20
1520336651133576,-6,-4,4,0,2,15,35,35
1520336651133576,4,-7,-5,-3,4,7,-13,-1
1520336651147613,-2,-5,-4,-3,-5,-9,-8,-13
1520336651147613,5,4,8,10,9,38,127,69
1520336651154632,11,-7,-5,-5,-5,-20,-15,39
1520336651154632,4,18,8,-2,-4,-2,51,95
1520336651170674,10,43,10,4,7,19,46,19
1520336651170674,-8,-26,-3,3,-2,-1,4,110
1520336651172680,-5,6,1,3,0,8,22,15
1520336651172680,5,-15,-6,-2,-2,6,6,93
1520336651193736,-8,-28,-17,-11,-6,-11,-26,-80
1520336651193736,2,23,20,5,-4,-11,-42,-128
1520336651195741,5,16,-3,1,3,4,22,-77
1520336651195741,-3,-11,-9,-6,-8,5,40,-60
1520336651206770,-6,-8,-11,-5,-3,-12,-105,-45
1520336651206770,0,-4,-9,-5,6,3,8,4
1520336651214792,-4,-4,-1,-1,-3,-5,-4,-11
1520336651214792,-8,2,5,2,1,-1,34,-15
1520336651230834,0,-5,-1,-3,-5,-11,-41,24
1520336651230834,4,3,-3,0,4,3,-7,13
1520336651232840,0,-5,9,5,2,5,8,31
1520336651232840,10,7,-6,-4,1,4,-12,-14
1520336651253896,2,-4,11,5,0,-4,-6,16
1520336651253896,-3,-3,1,-1,-1,2,32,-6
1520336651254899,5,13,3,0,2,8,18,33
1520336651254899,3,-25,-9,-6,-4,-11,-35,-38
1520336651266930,2,63,23,10,7,12,34,4
1520336651266930,-9,-19,-13,-4,-5,-4,-1,20
1520336651275955,1,-14,-3,-1,-7,-7,6,33
1520336651275955,-8,-9,-9,-5,3,-5,-42,-63
1520336651289992,1,-15,-14,-8,-2,-5,-30,-6
1520336651289992,8,-16,-12,-5,-1,-9,-48,29
1520336651290994,5,41,17,1,4,6,31,16
1520336651290994,-7,13,10,6,0,1,7,-1
1520336651313053,-9,-26,-6,-5,-3,-5,19,-6
1520336651313053,9,36,7,-4,-6,-9,-24,-55
1520336651314056,-15,-81,-39,-16,-9,-2,-17,-31
1520336651314056,17,64,21,6,3,7,-6,0
1520336651327090,-28,-65,-29,-8,-5,-1,16,10
1520336651327090,57,18,51,26,15,15,34,49
1520336651335112,6,15,14,8,2,-2,5,19
1520336651335112,-24,-43,-11,-2,-2,4,11,8
1520336651350152,-18,-50,-26,-5,-4,1,14,32
1520336651350152,-18,-3,-21,-17,-10,-20,-88,-47
1520336651351155,14,15,-7,-3,2,6,26,22
1520336651351155,13,-9,2,4,4,7,30,68
1520336651373213,20,40,9,-5,-9,-13,-39,-15
1520336651373213,-18,-24,-19,-6,8,14,21,-17
1520336651374216,-4,4,19,9,5,9,56,45
1520336651374216,-6,-2,-10,-9,-3,-12,-37,-56
1520336651396275,13,4,12,3,0,4,22,-1
1520336651396275,-21,8,-2,-4,-3,-5,-29,-16
1520336651397278,-26,-48,-14,-19,-15,-10,-25,1
1520336651397278,15,45,17,22,20,7,13,2
1520336651410312,-17,-91,-53,-23,-11,-3,11,-7
1520336651410312,33,92,43,18,3,-4,0,16
1520336651411315,21,23,33,24,11,13,29,10
1520336651411315,-9,-23,8,4,-4,-3,-3,19
1520336651433373,17,-8,4,4,3,2,-14,-23
1520336651433373,-36,-40,-23,-7,-6,-3,34,36
1520336651433373,-10,-16,-20,-17,-12,-15,-35,-12
1520336651433373,-5,5,3,-3,-4,1,-13,6
1520336651456435,-7,18,8,6,10,9,28,25
1520336651456435,-1,-34,-18,-92,-2,2,27,22
1520336651456435,-2,21,4,-36,-2,-6,-24,-49
1520336651456435,-8,-41,-19,-16,-9,-3,-15,-16
1520336651470472,-15,9,10,28,9,7,-31,-9
1520336651470472,15,12,-6,35,-6,-5,2,-8
1520336651471475,0,34,9,29,2,1,-3,-2
1520336651471475,-2,-4,4,16,1,4,0,8
1520336651492531,-24,-49,-4,11,-1,-1,16,-6
1520336651492531,25,50,16,28,4,3,27,30
1520336651493534,-18,-27,-15,3,2,-3,-8,1
1520336651493534,-4,-10,-4,3,-4,-3,-6,0
1520336651515592,8,29,18,1,1,1,-2,9
1520336651515592,-20,-50,-19,2,-1,0,-1,-1
1520336651516595,15,-9,-10,3,-3,2,19,22
1520336651516595,-16,2,-9,-8,-2,-6,13,-26
1520336651530632,6,11,5,-8,1,4,-20,0
1520336651530632,6,-17,-17,-10,-11,-14,-36,-32
1520336651531635,-11,35,15,6,5,16,51,39
1520336651531635,6,-16,-13,-10,-4,-21,-73,-71
1520336651552691,-3,-34,-9,-8,0,-8,-5,-4
1520336651552691,-2,25,1,12,7,13,36,23
1520336651553694,16,93,38,13,6,-3,-9,-4
1520336651553694,-9,-25,-3,-5,-2,8,18,22
1520336651575752,-5,20,10,1,0,-4,-53,-24
1520336651575752,-6,-46,-17,-4,-9,-4,7,-6
1520336651575752,-1,-45,-15,-8,-1,-1,6,0
1520336651575752,2,29,10,2,4,7,29,24
1520336651590792,21,36,4,-1,-3,-3,-2,1
1520336651590792,-8,-47,-15,-8,-1,-2,-9,-2
1520336651590792,11,-55,-25,-11,-5,-2,-15,-10
1520336651590792,55,66,43,13,4,3,6,12
1520336651612851,-36,-31,-12,-11,-3,-4,18,-1
1520336651612851,7,37,16,5,3,3,13,4
1520336651613854,-38,-77,-38,-8,-2,-3,3,0
1520336651613854,14,38,16,7,3,-4,1,35
1520336651635912,17,2,-6,-7,-2,2,26,9
1520336651635912,6,14,5,3,2,0,-20,3
1520336651635912,38,48,8,-4,-7,-12,-12,-20
1520336651635912,-44,29,7,6,4,4,17,7
1520336651649949,-3,13,5,4,-2,0,4,-4
1520336651649949,-39,-104,-50,-19,-12,-9,-11,-6
1520336651650952,16,27,27,16,12,17,53,33
1520336651650952,-16,-105,-41,-17,-12,-14,-38,-35
1520336651673011,23,98,40,12,6,4,20,0
1520336651673011,-32,-71,-45,-17,-8,-9,-33,-38
1520336651674014,5,-29,16,8,6,2,-8,6
1520336651674014,-12,-8,3,0,2,7,27,14
1520336651695069,2,-105,-40,-13,-4,-3,-10,0
1520336651695069,-28,107,53,9,2,-1,17,9
1520336651696072,18,25,1,-6,-4,-12,-31,-26
1520336651696072,-29,-62,-28,-11,-8,-2,11,1
1520336651710109,-4,-11,-1,1,0,-1,-3,-5
1520336651710109,43,18,-4,-4,0,0,-21,-4
1520336651711112,-26,-10,23,14,5,5,-8,-2
1520336651711112,-27,-112,-38,-13,-4,-3,16,17
1520336651733171,-7,39,14,-3,-6,-8,-2,-4
1520336651733171,7,-4,17,13,6,12,25,13
1520336651734174,-14,-41,-32,-15,-9,-15,-53,-51
1520336651734174,16,13,4,-2,-2,-3,-5,1
1520336651755230,-36,-77,-32,-19,-8,-3,1,3
1520336651755230,-5,-27,-3,-4,0,-2,6,-25
1520336651756232,-14,-27,-10,-2,-1,5,17,5
1520336651756232,16,44,4,-5,-1,2,1,10
1520336651769267,60,91,39,15,6,3,-3,3
1520336651769267,28,58,34,15,1,-1,-5,5
1520336651778291,-48,-65,-32,-8,-5,0,7,11
1520336651778291,41,104,47,16,3,-2,-14,-5
1520336651793331,-20,-42,-19,-5,-2,0,6,15
1520336651793331,-34,-67,-32,-9,0,3,5,3
1520336651793331,10,54,33,9,6,7,5,3
1520336651793331,5,-3,-16,-7,-1,-2,0,3
1520336651815390,20,21,13,6,5,5,26,9
1520336651815390,8,-5,10,8,2,-4,-17,0
1520336651816392,-32,-66,-43,-21,-10,-8,-16,-8
1520336651816392,32,26,13,-2,2,3,0,2
1520336651829427,53,100,56,12,2,-1,7,3
1520336651829427,33,55,41,13,5,-2,-11,-15
1520336651838451,15,-41,-6,2,0,3,9,10
1520336651838451,32,53,24,6,1,-1,16,12
1520336651852488,-12,-35,-21,-7,-6,-5,-22,-7
1520336651852488,-14,-4,-10,-6,-2,0,16,1
1520336651853491,27,72,39,12,3,-5,-33,-8
1520336651853491,-23,-82,-37,-7,-4,1,14,-16
1520336651875549,-61,-128,-62,-22,-10,-3,-8,-11
1520336651875549,51,71,58,26,12,12,20,29
1520336651876552,-12,-36,-13,-3,0,-1,-2,-1
1520336651876552,14,23,-13,-11,-7,-6,-5,4
1520336651898611,2,42,17,12,7,8,24,-6
1520336651898611,-6,3,5,5,0,-5,-45,-13
1520336651899614,-34,-88,-45,-18,-8,-4,6,11
1520336651899614,15,-5,17,5,3,6,-12,-2
1520336651912648,3,-57,-12,-5,-2,-7,-19,6
1520336651912648,36,63,38,16,8,8,44,17
1520336651913651,12,-32,-11,-13,-2,-3,6,0
1520336651913651,-36,0,10,19,6,1,-9,-12
1520336651935710,4,4,12,16,6,2,-1,-11
1520336651935710,-37,-77,-38,-17,-8,-7,-9,-9
1520336651936712,27,14,5,0,-1,-2,9,28
1520336651936712,-20,-28,-6,-12,-2,-1,1,-21
1520336651958771,10,27,9,0,0,1,-5,5
1520336651958771,-37,-96,-46,-17,-11,-8,-8,-2
1520336651959774,34,111,46,14,5,4,14,11
1520336651959774,0,-17,-8,0,0,4,10,20
1520336651972808,-21,-22,-19,-9,-5,-6,17,-23
1520336651972808,-33,-41,-20,-12,-7,-8,-21,-15
1520336651973811,-26,-64,-20,-6,-3,-3,-5,-16
1520336651973811,-23,-89,-24,-3,-1,0,-8,-5
1520336651995870,11,16,7,4,0,3,-1,3
1520336651995870,-2,-23,-6,-3,0,0,10,-1
1520336651995870,33,89,16,3,-3,-4,-15,-30
1520336651995870,-10,-6,3,5,-1,-1,13,3
1520336652009907,-12,-10,-2,-6,-3,-5,-22,-18
1520336652009907,-16,-9,-6,-8,-3,-4,-12,-7
1520336652017928,0,-1,-2,3,-1,1,13,5
1520336652017928,-8,-3,-2,-6,-3,0,-12,-10
1520336652032968,15,0,3,2,1,2,15,20
1520336652032968,4,35,2,3,1,2,-9,4
1520336652033971,11,36,15,8,3,-4,-8,2
1520336652033971,3,8,3,-3,0,2,27,15
1520336652055027,1,14,1,-2,-2,-3,-34,-17
1520336652055027,3,-9,-9,-9,-7,-2,-19,-25
1520336652056030,-17,-25,-9,-6,-2,0,9,2
1520336652056030,-2,7,1,1,1,-1,-29,-8
1520336652070067,-14,-3,5,1,0,1,27,23
1520336652070067,10,-21,-6,3,-1,0,22,9
1520336652078088,8,17,1,-2,0,0,-36,-16
1520336652078088,9,3,5,3,-2,2,27,18
1520336652093128,13,-16,-19,-16,0,-3,-8,7
1520336652093128,-9,11,9,2,0,-4,14,11
1520336652094131,-19,-16,1,8,3,0,12,4
1520336652094131,7,0,-1,4,0,-3,-5,-3
1520336652115187,6,-18,-11,-3,1,9,-15,2
1520336652115187,28,-7,-8,-4,-6,-8,-31,-20
1520336652116190,-3,18,22,8,4,7,5,16
1520336652116190,-17,-14,-8,-7,-17,-9,2,-32
1520336652130227,-11,23,15,2,-8,-12,16,6
1520336652130227,-8,-26,-15,-8,12,10,0,-9
1520336652131230,-4,-22,-18,-7,-5,-7,0,6
1520336652131230,16,18,-1,-7,0,-5,-9,4
1520336652153288,-7,-6,4,6,0,6,35,14
1520336652153288,10,11,8,5,-17,-2,2,34
1520336652153288,-14,-1,-3,-25,4,-3,-43,-26
1520336652153288,5,-4,3,24,10,1,-1,2
1520336652175347,0,4,-5,-11,-7,-10,-8,-22
1520336652175347,7,2,4,-13,0,6,3,11
1520336652176350,2,-5,0,25,21,3,10,6
1520336652176350,-8,-17,-9,-13,-4,-6,-31,-14
1520336652190387,-2,-23,-8,1,4,4,-2,11
1520336652190387,15,32,23,13,2,-2,14,2
1520336652191390,-35,-53,-17,-16,-16,-2,19,5
1520336652191390,26,83,16,-2,-1,2,-2,17
1520336652212446,-19,-5,3,6,-2,-6,-11,-27
1520336652212446,-14,-19,-2,4,1,7,25,7
1520336652213449,1,2,-1,-2,-7,-6,-38,-14
1520336652213449,-10,-44,-16,-8,1,-4,-11,-21
1520336652235507,12,17,3,-7,-4,1,-3,35
1520336652235507,-32,7,2,-3,-1,-6,32,-36
1520336652236510,4,-3,-1,-13,-7,4,-19,-12
1520336652236510,24,-11,-16,-84,-43,4,32,56
1520336652251550,-17,28,32,93,47,6,22,23
1520336652251550,3,0,1,30,10,7,-43,-27
1520336652257566,13,-3,-5,31,22,1,37,-7
1520336652257566,-27,-68,-21,-6,-3,2,3,-5
1520336652272606,37,65,22,-29,-16,-5,-4,18
1520336652272606,6,-56,0,3,1,5,24,127
1520336652273609,-24,-24,-3,-10,-14,-3,19,-6
1520336652273609,-5,77,30,10,5,-8,-75,-73
1520336652295667,3,-22,-5,-5,-1,24,97,-4
1520336652295667,-5,-14,-26,-13,-6,-23,-108,-103
1520336652296670,37,28,6,-18,-12,-14,-30,-12
1520336652296670,-51,-39,-21,5,-1,-16,-12,-96
1520336652309704,-19,-16,-4,-1,0,0,-15,-23
1520336652309704,43,36,13,-5,1,11,29,16
1520336652317726,-23,-14,1,0,1,9,41,6
1520336652317726,14,-15,0,11,1,-2,-7,-7
1520336652332766,11,-5,1,7,12,6,-58,7
1520336652332766,-7,4,5,11,10,18,76,39
1520336652333769,-4,-7,-14,-4,-11,-11,-4,-46
1520336652333769,6,-2,3,14,10,-8,-12,-40
1520336652355827,-3,-27,-14,-22,-8,-8,-8,-2
1520336652355827,14,73,23,-5,-2,-4,5,0
1520336652355827,-17,-27,0,2,1,1,3,-8
1520336652355827,-27,-46,-10,1,-1,4,18,24
1520336652378889,-2,1,-1,-14,-8,-7,-26,-29
1520336652378889,3,-6,-6,3,-2,-7,-15,4
1520336652379891,19,17,4,7,1,9,25,23
1520336652379891,11,15,0,2,2,-1,16,38
1520336652392926,-12,-27,-20,-14,-12,-9,13,-14
1520336652392926,-40,-17,-14,-24,-15,-8,23,-29
1520336652393929,10,21,8,14,-10,11,39,29
1520336652393929,-6,-16,-15,-15,30,-2,-49,-43
1520336652414985,13,15,5,18,14,-1,-13,18
1520336652414985,7,-14,-14,-25,-66,-22,9,-39
1520336652415987,-18,-6,7,23,52,8,31,7
1520336652415987,13,8,14,23,15,11,-43,31
1520336652430025,-8,6,2,-14,6,5,70,3
1520336652430025,-12,-18,-11,-11,-5,-28,-111,-79
1520336652438046,-5,-23,-10,-16,-27,-8,5,6
1520336652438046,28,34,13,4,-14,2,50,47
1520336652453086,-7,-20,-10,-5,-3,6,-7,-13
1520336652453086,-31,13,10,13,7,3,-9,-4
1520336652454089,7,-6,2,-5,-9,-5,-10,6
1520336652454089,7,4,12,14,11,14,60,39
1520336652475145,-8,-17,-20,-21,-32,-29,-69,-60
1520336652475145,5,-13,-8,4,22,-4,-33,5
1520336652476147,12,16,1,-2,10,15,32,-15
1520336652476147,0,8,7,-1,-9,-6,41,38
1520336652490184,5,-2,-5,-1,-8,-3,-15,-16
1520336652490184,1,-14,-2,0,13,16,32,19
1520336652498206,5,9,8,0,4,-12,-7,25
1520336652498206,-26,-15,-3,-2,-17,4,94,-31
1520336652513246,3,8,6,14,22,6,-23,7
1520336652513246,7,2,2,9,23,1,-48,-17
1520336652513246,2,-34,-16,-9,-9,-2,-17,9
1520336652513246,17,33,10,0,-1,7,83,17
1520336652535305,-13,40,6,-9,-11,-19,-43,-36
1520336652535305,-4,-19,-2,2,-6,6,86,36
1520336652536307,-6,14,17,8,-3,-2,37,30
1520336652536307,-17,-59,-26,-9,-3,-8,-100,-46
1520336652549342,27,19,10,2,2,2,55,23
1520336652549342,7,12,1,0,6,5,-66,21
1520336652558366,7,21,1,-10,-14,-16,-19,-34
1520336652558366,3,-1,-1,-4,-8,-10,-90,6
1520336652573406,-4,-13,2,4,-7,19,117,43
1520336652573406,-3,-13,-9,3,19,-7,-45,-53
1520336652573406,6,2,4,1,-8,1,-3,33
1520336652573406,-12,-4,-6,1,1,10,-13,-3
1520336652595465,-5,-10,-8,-3,-5,-22,-102,-38
1520336652595465,0,-3,0,-2,-7,10,64,33
1520336652596467,1,1,-3,-11,7,10,29,13
1520336652596467,3,6,10,12,-2,10,108,22
1520336652618526,-1,-9,12,24,21,24,-3,44
1520336652618526,-5,-73,-29,-11,-15,-41,-86,-61
1520336652619529,29,95,39,16,11,25,47,24
1520336652619529,-17,-15,-11,-9,-11,-16,-78,-50
1520336652632563,-5,-21,-23,-26,-23,-50,-107,-118
1520336652632563,3,-3,4,-1,12,50,93,108
1520336652633566,0,-46,-22,-12,-18,-28,29,-21
1520336652633566,20,58,27,8,12,16,102,73
1520336652655625,-9,-13,3,4,6,19,71,47
1520336652655625,12,43,7,1,-1,11,50,17
1520336652656628,-12,-32,-11,-1,0,-3,-62,-26
1520336652656628,-3,-3,-4,4,6,-8,-35,-14
1520336652677683,-7,-21,-1,-1,-1,17,25,15
1520336652677683,-4,5,-4,-7,-7,-9,-13,3
1520336652678686,-1,10,2,8,12,16,17,71
1520336652678686,-13,-29,-22,-13,-13,-52,-124,-98
1520336652692723,3,2,-6,-13,-18,-37,-17,43
1520336652692723,-6,1,5,3,2,8,83,40
1520336652693726,3,-9,-4,-2,5,-5,-113,-27
1520336652693726,-6,-11,-5,-3,-8,-6,-3,-20
1520336652715785,-5,-51,-8,1,6,22,58,-3
1520336652715785,4,66,30,18,12,26,47,37
1520336652715785,-4,11,-12,-12,-14,-21,-46,-50
1520336652715785,8,-50,-4,5,8,18,12,48
1520336652737843,18,57,7,2,2,3,8,-5
1520336652737843,2,-27,4,5,2,11,38,42
1520336652738846,-7,0,-1,2,-1,-8,-23,-60
1520336652738846,15,14,9,4,9,24,111,120
1520336652752883,-24,-48,-23,-15,-8,-18,-56,-45
1520336652752883,3,-2,2,-1,-4,-20,105,55
1520336652753886,6,6,-3,-3,3,18,69,31
1520336652753886,-2,0,3,1,-4,-26,-35,-23
1520336652774942,7,7,6,5,6,14,-12,39
1520336652774942,-3,5,-7,-6,-1,-8,-97,-81
1520336652775945,-8,-15,-10,-5,-3,-3,-7,-32
1520336652775945,3,9,12,13,3,25,119,97
1520336652798004,11,18,10,7,16,25,2,-37
1520336652798004,3,-56,-17,-10,-11,-14,-27,-71
1520336652799006,23,39,3,-5,0,5,9,25
1520336652799006,2,46,22,9,8,18,40,-18
1520336652813044,0,27,17,9,0,-3,-39,15
1520336652813044,-15,-81,-20,-6,-7,-15,-17,-22
1520336652814046,44,62,47,19,8,8,-21,50
1520336652814046,-1,-37,-23,-12,-10,-10,-21,53
1520336652835102,-24,-34,-9,-5,1,15,9,14
1520336652835102,5,10,8,1,-4,-8,9,24
1520336652836105,-15,-19,-18,-5,-2,-3,46,19
1520336652836105,-6,20,5,3,7,-8,-56,-23
1520336652866185,6,-8,7,6,0,1,115,76
1520336652866185,0,17,-3,1,10,23,72,0
1520336652867188,-10,-12,-7,-3,-7,-18,-38,-10
1520336652867188,9,-7,-7,-6,-10,-16,-77,-40
1520336652872201,-6,5,4,5,12,34,127,107
1520336652872201,-11,-13,-3,-7,-14,-24,12,-50
1520336652880222,13,58,24,12,5,11,62,39
1520336652880222,-28,-45,-15,-6,-2,1,-16,-48
1520336652895262,2,-10,-4,7,14,35,49,46
1520336652895262,11,5,-7,-6,-5,-16,22,69
1520336652896265,-14,-14,4,3,6,10,62,63
1520336652896265,-10,-68,-22,-12,-11,-30,-92,-86
1520336652918323,15,65,23,9,-4,-7,-28,-37
1520336652918323,15,28,9,4,0,5,-17,-17
1520336652918323,-43,-81,-34,-13,-10,-12,-8,-55
1520336652918323,12,3,6,6,13,44,111,87
1520336652933363,-1,27,-9,-19,-21,-59,-128,-115
1520336652933363,-11,-10,-6,5,8,17,54,71
1520336652933363,-11,-19,-9,-10,-18,-42,-80,-86
1520336652933363,7,-11,-6,-2,3,-5,-16,8
1520336652955422,19,22,1,-4,-4,-16,25,47
1520336652955422,-23,-17,-12,-23,-7,0,92,13
1520336652956425,4,-33,8,17,1,2,14,0
1520336652956425,-2,64,5,-4,3,9,8,-5
1520336652977481,-22,-108,-25,4,-12,-23,-69,-21
1520336652977481,27,53,40,26,14,12,-58,-22
1520336652978484,20,36,7,1,7,17,29,29
1520336652978484,-4,-25,-3,4,-5,-12,-51,-22
1520336652992521,-7,35,3,-7,2,12,77,46
1520336652992521,-13,-52,-30,-19,-17,-30,-112,-100
1520336652993523,-18,-10,-9,-3,-4,-5,-14,5
1520336652993523,10,20,4,-5,3,8,-1,5
1520336653015582,1,-7,-1,-6,-6,-8,-30,-29
1520336653015582,11,16,17,10,8,16,27,45
1520336653016585,-9,-15,-22,-15,-15,-43,-47,-44
1520336653016585,-11,-23,-6,-4,-2,-1,89,35
1520336653037641,12,14,6,2,5,14,61,37
1520336653037641,-25,2,-8,-3,-6,-14,-18,-26
1520336653038644,3,-9,10,5,11,21,57,32
1520336653038644,-19,-38,-10,-4,-1,13,59,-7
1520336653052681,28,65,18,3,-2,-18,-80,-42
1520336653052681,10,44,2,-5,0,6,-42,1
1520336653053684,-25,-68,-10,-1,2,7,25,16
1520336653053684,35,87,40,17,4,2,-7,5
1520336653075742,6,8,0,0,0,6,24,9
1520336653075742,-18,-74,-29,-9,-5,-1,-17,-15
1520336653076745,17,56,20,2,4,10,9,29
1520336653076745,3,25,8,2,-3,-11,-16,-2
1520336653097801,-8,-36,-17,-5,-1,7,44,12
1520336653097801,2,19,8,5,-3,-14,1,8
1520336653098804,3,-21,-10,3,9,28,-3,42
1520336653098804,-3,-4,1,-3,-4,-5,24,6
1520336653111838,-5,1,-3,-5,-4,-2,12,2
1520336653111838,-9,-18,-5,-3,4,15,43,21
1520336653120862,1,7,-3,-4,-7,-22,-61,-24
1520336653120862,-15,-42,-22,-7,-4,0,48,10
1520336653135902,-11,-9,1,-2,-1,4,-10,-2
1520336653135902,36,52,8,0,-10,-23,-45,-39
1520336653135902,25,61,21,-2,4,8,-33,19
1520336653135902,0,-6,1,2,-2,-9,-68,-48
1520336653157961,-7,-27,2,17,-1,-6,-10,1
1520336653157961,-26,-74,-19,-1,3,10,26,19
1520336653158964,38,59,23,13,3,6,15,4
1520336653158964,-3,9,-5,-10,-4,-6,-20,2
1520336653181022,-12,-10,-3,-6,1,6,30,28
1520336653181022,3,-21,-19,-10,-3,5,2,-9
1520336653182025,-33,-56,-19,-8,-4,-5,5,-26
1520336653182025,20,11,-2,-3,3,4,47,34
1520336653195060,9,21,6,0,-1,-8,-38,-37
1520336653195060,-7,1,4,4,5,18,28,46
1520336653196062,2,3,4,0,-3,-6,22,-6
1520336653196062,12,-5,4,3,4,5,17,16
1520336653218121,-13,-2,-6,-6,-3,-8,-16,-13
1520336653218121,-20,-30,-10,-4,-2,5,67,26
1520336653219124,5,18,12,4,0,4,-13,-2
1520336653219124,-18,43,5,2,-2,-11,-59,-50
1520336653232158,-13,-50,-12,-3,1,8,24,17
1520336653232158,-11,48,6,2,1,-5,-47,-7
1520336653240179,-26,-87,-30,-6,-6,6,97,20
1520336653240179,5,10,4,3,-1,1,8,7
1520336653255220,5,19,-1,-3,-1,5,12,-9
1520336653255220,10,2,2,-2,-4,-11,-12,-14
1520336653256223,-4,-38,-20,-8,-3,-7,-10,-11
1520336653256223,-13,3,0,-2,-1,0,-2,8
1520336653278281,-5,28,11,-2,-1,0,19,-4
1520336653278281,8,-30,9,7,3,-2,4,38
1520336653278281,19,46,-12,-7,-6,-6,-56,-72
1520336653278281,-7,-13,0,3,3,3,20,25
1520336653293321,-21,-31,-14,-5,-6,-4,-19,-4
1520336653293321,8,62,18,3,-2,-7,-11,-9
1520336653293321,-1,-30,-8,1,1,8,49,30
1520336653293321,-33,-83,-28,-8,-5,-5,-21,-19
1520336653315380,69,98,41,13,3,0,7,9
1520336653315380,15,29,-5,-4,1,4,-4,13
1520336653316383,16,61,49,22,12,8,-3,18
1520336653316383,-2,-34,-13,-6,-5,1,38,-2
1520336653337438,-10,-30,-17,-7,-1,-1,22,18
1520336653337438,-39,-110,-49,-19,-9,-5,-4,-13
1520336653338441,74,99,86,30,9,-1,-28,5
1520336653338441,-14,-53,0,2,1,0,-15,-2
1520336653352478,-15,-51,-15,-5,-3,-4,-19,-19
1520336653352478,1,18,9,3,1,-1,2,-11
1520336653353481,-44,-128,-69,-29,-10,-6,18,20
1520336653353481,51,116,63,23,13,11,6,28
1520336653375540,-8,-57,-20,-2,1,9,20,10
1520336653375540,48,89,42,13,1,-7,-13,-21
1520336653376543,-8,-40,-18,-6,-3,-13,-18,-7
1520336653376543,10,-10,-8,-1,-4,-6,-7,-12
1520336653397598,-45,-91,-47,-16,-7,-5,-23,-8
1520336653397598,-26,-99,-71,-18,-6,3,10,15
1520336653398601,66,90,63,34,16,13,18,16
1520336653398601,-35,-99,-26,-9,-7,-3,-18,-8
1520336653412638,18,24,18,8,4,4,13,4
1520336653412638,-64,-128,-84,-32,-14,-8,-6,-20
1520336653420660,17,-34,10,-2,-2,-6,-22,-18
1520336653420660,0,25,-5,-5,-3,2,29,14
1520336653435700,-47,-93,-54,-22,-10,-16,-64,-19
1520336653435700,41,92,90,31,10,3,-10,-11
1520336653436703,-70,-109,-54,-20,-8,3,12,-12
1520336653436703,1,-18,1,2,1,-2,-2,-13
1520336653457758,17,-25,6,2,-3,1,28,6
1520336653457758,-60,-114,-65,-23,-8,-3,-25,-6
1520336653458761,68,98,80,29,9,4,-9,22
1520336653458761,15,24,15,6,5,5,7,-8
1520336653471796,-72,-79,-41,-16,-5,-3,14,5
1520336653471796,98,126,88,35,19,13,25,26
1520336653480820,-29,-47,-27,-11,-6,0,6,-11
1520336653480820,-48,-29,-24,-10,-6,-7,-20,-7
1520336653495860,60,91,38,12,8,14,14,16
1520336653495860,-38,-13,-6,-3,-4,-15,-61,-42
1520336653495860,-38,-83,-53,-19,-8,-8,0,-6
1520336653495860,14,45,18,0,-4,-10,-17,-26
1520336653517918,-67,-107,-43,-6,0,0,7,-17
1520336653517918,24,79,29,11,2,4,17,30
1520336653518921,-51,7,-20,-4,-2,2,14,-1
1520336653518921,-15,-11,-20,-16,-10,-8,-27,-32
1520336653532958,62,86,66,22,9,9,48,26
1520336653532958,-28,-81,-25,-14,-14,-20,-22,-39
1520336653533962,-27,-71,-34,-17,-9,-10,-14,-12
1520336653533962,38,-17,3,8,5,6,18,39
1520336653555017,-19,13,4,-6,-2,-2,-16,-11
1520336653555017,15,-16,1,3,3,5,28,21
1520336653556020,36,79,45,14,6,0,-12,-9
1520336653556020,-19,-88,-28,-6,-3,-1,-12,7
1520336653578079,14,29,18,8,-1,-6,-16,-16
1520336653578079,-35,-94,-18,-6,-3,0,4,6
1520336653579081,-69,-126,-50,-20,-8,-1,13,0
1520336653579081,38,79,29,12,11,10,19,3
1520336653592116,19,24,12,2,-1,-8,-21,-1
1520336653592116,-55,-19,-16,-10,-5,-5,4,-54
1520336653600137,7,-9,-11,-8,-7,-7,-12,1
1520336653600137,-3,12,3,2,3,3,-8,-3
1520336653615177,44,-7,-3,-1,-1,1,0,5
1520336653615177,-39,9,15,5,5,6,10,7
1520336653616180,-31,-99,-57,-24,-10,-8,-12,-3
1520336653616180,41,67,51,21,6,2,2,18
1520336653638239,-29,-61,-13,3,-1,-2,-5,-10
1520336653638239,5,-29,-7,5,5,7,22,10
1520336653639241,28,79,22,3,-2,-8,-34,-11
1520336653639241,-2,-19,-11,-9,-3,0,3,7
1520336653661300,25,47,4,-1,-1,-1,-2,13
1520336653661300,23,7,12,2,4,6,10,26
1520336653662303,-37,14,1,1,1,1,8,-25
1520336653662303,-8,-30,-20,-8,-6,-5,-16,-13
1520336653675337,-16,-6,3,-2,-3,0,27,27
1520336653675337,68,103,71,31,7,-5,-59,-24
1520336653676340,-16,-6,-22,-7,-5,-10,-38,-17
1520336653676340,-45,-65,-28,-12,-8,-6,2,-9
1520336653698399,11,-55,-1,-4,0,-3,-17,6
1520336653698399,-5,1,-15,-9,-5,2,35,20
1520336653698399,43,73,48,15,6,7,17,15
1520336653698399,-6,-23,-4,-1,1,3,11,24
1520336653721460,0,46,1,0,-5,-6,-33,-3
1520336653721460,-1,-26,-8,-2,2,3,-9,7
1520336653721460,23,-34,-14,-3,-2,1,-2,-4
1520336653721460,7,53,18,0,3,5,33,12
1520336653735497,-3,-10,-5,-6,-3,-7,-37,-28
1520336653735497,-8,-23,-10,-5,-4,-3,-17,1
1520336653736500,-32,5,11,8,1,6,51,18
1520336653736500,-12,-37,-18,-4,0,4,10,-3
1520336653757556,26,19,16,5,4,2,22,22
1520336653757556,55,127,67,26,10,4,8,96
1520336653758559,-57,-107,-53,-23,-7,-3,-2,36
1520336653758559,80,101,85,29,9,6,9,34
1520336653781620,-21,-55,-7,-1,-1,-1,-3,-28
1520336653781620,-32,-108,-46,-20,-6,9,59,5
1520336653781620,0,-43,-18,-9,-4,-15,-59,-60
1520336653781620,2,34,4,12,8,4,15,0
1520336653795657,-17,-61,-29,-6,-1,1,5,-33
1520336653795657,-24,-70,-23,-11,-6,-4,-11,-36
1520336653796660,11,30,14,8,5,8,27,9
1520336653796660,-18,-61,-22,-8,-8,-11,-26,-34
1520336653817716,-20,-1,-4,-2,-2,-1,0,-20
1520336653817716,-29,-61,-42,-17,-6,-1,-9,-12
1520336653818719,17,24,21,10,5,5,31,-12
1520336653818719,-8,-13,-23,-10,-7,-10,-32,-8
1520336653840777,9,25,15,8,4,2,2,9
1520336653840777,22,27,6,-2,-2,-8,-9,-17
1520336653840777,4,45,10,1,0,3,14,19
1520336653840777,-18,-30,-16,-9,-5,3,10,5
1520336653855817,-38,-16,6,3,1,0,-4,-2
1520336653855817,36,46,12,10,2,2,9,18
1520336653855817,71,62,45,11,6,1,-9,7
1520336653855817,-75,-95,-36,-9,-3,-2,8,-4
1520336653877876,-3,1,-6,-5,-3,-1,0,12
1520336653877876,-8,-12,8,2,-1,-5,-21,-27
1520336653878879,-2,0,-2,0,2,8,56,36
1520336653878879,-8,-50,-28,-15,-8,-5,-63,-41
1520336653899935,-12,-46,-14,-5,-1,0,4,3
1520336653899935,-25,-24,-15,-4,-7,-12,-6,-22
1520336653900937,-8,-17,-12,-4,0,2,-5,1
1520336653900937,-6,-7,4,2,0,0,13,2
1520336653914975,7,2,-5,-2,-4,0,11,11
1520336653914975,25,35,6,3,2,7,32,-20
1520336653915977,-32,-55,-17,-6,-5,-7,-54,-1
1520336653915977,12,-26,-3,-7,-4,-4,6,6
1520336653938036,-14,-3,10,5,3,0,-12,-22
1520336653938036,13,-55,-22,-13,-6,-4,-1,52
1520336653939039,32,65,47,17,5,4,3,-29
1520336653939039,-8,-82,-41,-19,-9,6,13,80
1520336653960095,0,-24,-5,-1,-3,15,1,0
1520336653960095,17,58,21,13,8,12,11,5
1520336653961098,-38,-83,-42,-16,-8,-2,-13,-13
1520336653961098,-2,-3,5,3,2,-5,-3,-2
1520336653975135,12,8,5,-1,-3,-19,-59,-27
1520336653975135,-8,-8,2,1,3,-1,10,16
1520336653976137,3,-3,-4,1,1,-9,17,17
1520336653976137,5,32,8,1,-1,-9,-18,-35
1520336653998196,9,3,9,8,2,-7,26,4
1520336653998196,-60,-94,-45,-19,-8,-9,-32,-3
1520336653999199,48,57,57,20,5,-2,-5,28
1520336653999199,30,15,19,8,4,3,31,21
1520336654012233,31,74,27,4,2,-1,12,3
1520336654012233,-12,-12,-5,-5,-1,-7,-12,-52
1520336654020255,-54,-73,-38,-12,-4,-4,22,4
1520336654020255,27,67,15,3,-1,-3,1,31
1520336654035295,11,-3,-5,0,3,10,39,25
1520336654035295,-4,18,9,2,-1,-5,-25,-32
1520336654036298,-12,-12,-24,-7,-3,7,-7,-8
1520336654036298,18,55,39,17,6,10,7,-17
1520336654058356,-13,-22,-14,-8,-4,2,-9,-9
1520336654058356,25,30,23,8,4,5,47,31
1520336654058356,-22,-43,-28,-13,-8,-7,-50,-70
1520336654058356,-1,-14,-15,-5,-4,-4,-9,-12
1520336654080415,24,12,5,-2,1,10,36,67
1520336654080415,-10,2,5,2,-4,2,-28,-31
1520336654081417,18,23,12,-3,0,-1,-1,4
1520336654081417,-23,-30,-7,-4,2,1,-3,-7
1520336654095455,3,3,-5,-5,-3,-1,14,-1
1520336654095455,15,34,17,8,4,6,17,24
1520336654096458,-12,-35,-13,0,1,3,-7,-16
1520336654096458,0,10,10,3,2,-1,-5,-20
1520336654117513,18,40,2,-3,-1,1,14,16
1520336654117513,-37,-19,-11,-7,-6,-5,-28,-23
1520336654118516,35,35,17,5,1,5,19,29
1520336654118516,-43,-59,-18,-6,-4,-4,-7,-31
1520336654140575,5,10,27,9,3,0,-10,-9
1520336654140575,42,78,35,17,9,6,14,31
1520336654141577,-6,2,-7,-3,0,-2,-7,8
1520336654141577,-19,-33,-13,-7,0,6,44,30
1520336654154612,-20,-24,-11,-4,-9,-25,-81,-79
1520336654154612,-5,-23,-5,-5,-1,1,36,0
1520336654162633,-13,-17,-8,-3,-3,-6,-48,-8
1520336654162633,13,20,3,1,-2,-8,-19,0
1520336654177674,-32,-62,-30,-9,-3,5,26,4
1520336654177674,-1,0,-3,-1,-2,-5,-16,-32
1520336654178676,-13,-10,-6,-1,-1,-7,-26,-43
1520336654178676,13,38,11,6,2,4,12,2
1520336654200735,-3,-6,-7,-6,-6,-9,-19,11
1520336654200735,3,-24,-5,-6,-2,-3,5,2
1520336654201738,1,0,-1,2,3,5,27,33
1520336654201738,-19,-21,-17,-5,-6,-11,-32,-36
1520336654215775,-7,-14,0,3,5,2,-5,-12
1520336654215775,19,20,6,0,2,0,1,35
1520336654215775,-13,10,5,-3,-3,-5,11,-7
1520336654215775,-24,-54,-16,-6,-1,1,-2,-2
1520336654237834,-4,-34,-4,-1,-3,-2,-2,-5
1520336654237834,4,-9,2,5,1,2,13,-6
1520336654238836,-7,-35,-9,-3,-2,-3,-19,10
1520336654238836,18,41,13,4,1,0,6,-21
1520336654260895,-11,-3,-2,-3,-2,0,-2,-3
1520336654260895,-7,-25,-7,-3,1,-6,-34,-1
1520336654260895,14,0,0,0,1,4,26,-1
1520336654260895,-12,-20,-8,-5,-2,-3,-6,-22
1520336654275935,1,6,5,1,1,-2,-15,-2
1520336654275935,-38,-91,-40,-14,-7,-8,-4,-9
1520336654275935,1,-73,-3,5,3,7,31,38
1520336654275935,39,43,39,16,6,4,3,36
1520336654297994,2,1,5,4,-1,-3,6,-20
1520336654297994,-6,-11,-8,-4,-4,0,-9,-2
1520336654298996,-13,-18,-12,-8,-4,-1,30,7
1520336654298996,-8,-17,-11,-5,-3,-2,-26,7
1520336654320052,0,-2,-7,-2,2,2,1,27
1520336654320052,26,45,20,11,3,1,5,27
1520336654321055,0,25,6,-2,-3,-4,-15,-14
1520336654321055,5,6,-5,-7,-8,-14,2,3
1520336654335092,24,25,9,6,8,20,37,42
1520336654335092,-7,-2,-4,0,2,-3,-38,-61
1520336654336095,7,27,13,3,1,1,11,4
1520336654336095,-32,-86,-29,-11,-6,-2,4,-5
1520336654358154,26,33,19,9,3,-1,-7,9
1520336654358154,-18,-10,3,-3,-4,2,15,22
1520336654359156,7,25,4,3,1,-6,22,16
1520336654359156,-3,-20,2,-1,2,0,-42,-11
1520336654380212,-4,-1,-9,-4,-3,-4,-3,5
1520336654380212,6,15,3,1,-1,2,15,-6
1520336654381215,-3,30,1,-1,-3,-4,-8,-22
1520336654381215,9,9,-2,-3,-4,4,14,14
1520336654395252,-5,-2,3,1,-1,-7,-12,-4
1520336654395252,8,11,1,3,4,5,26,-2
1520336654396255,-14,-27,-9,-4,0,-3,-12,4
1520336654396255,12,22,3,0,2,0,9,7
1520336654418314,-12,-4,-5,-2,-2,0,-1,-25
1520336654418314,-5,-17,-4,1,-4,-4,-23,7
1520336654418314,11,1,4,3,0,3,14,12
1520336654418314,-5,0,-1,3,2,-2,-24,-26
1520336654440372,3,-4,-5,-5,-5,0,24,3
1520336654440372,-10,-10,1,0,4,0,-18,-5
1520336654441375,1,5,-2,-1,3,-1,-19,-16
1520336654441375,-4,-20,-9,-2,-1,-5,-8,-16
1520336654454410,-6,-5,2,0,3,0,4,6
1520336654454410,22,43,12,3,0,2,25,10
1520336654463433,-11,-5,-7,-6,-6,-7,-37,-13
1520336654463433,-18,-17,-12,0,1,4,21,15
1520336654477471,-2,4,5,-3,-3,-6,-10,0
1520336654477471,30,73,27,11,2,3,3,4
1520336654478474,5,-2,-1,1,1,2,-5,0
1520336654478474,7,16,0,-4,-1,-1,21,18
1520336654500532,-14,-12,-5,-5,-5,-7,-5,-28
1520336654500532,-10,-20,-8,-6,-3,-2,27,9
1520336654501535,0,-3,-4,-5,-10,-12,-57,-21
1520336654501535,8,8,10,5,2,1,-17,-24
1520336654514570,6,2,1,4,6,8,15,21
1520336654514570,7,-15,0,2,-1,0,-13,23
1520336654522591,3,-9,-9,-7,-6,7,65,17
1520336654522591,-7,5,-2,-1,4,-5,-11,-21
1520336654537631,-3,-1,-2,2,6,5,20,0
1520336654537631,0,-12,-7,-6,0,-3,-5,11
1520336654538634,-2,1,1,-1,1,3,-5,1
1520336654538634,-4,14,0,-5,-8,-4,-19,1
1520336654560692,2,-1,-6,-6,-2,2,6,5
1520336654560692,-7,-16,-2,-1,-4,-1,25,-10
1520336654561695,-5,1,-1,3,-2,-4,-7,-41
1520336654561695,-2,-7,-13,-5,-3,-3,-7,-25
1520336654574730,-1,-5,-2,-3,-2,-9,-53,-15
1520336654574730,0,-12,-2,-6,-4,4,56,16
1520336654582751,-1,-2,-1,3,4,4,-17,1
1520336654582751,1,-5,-9,-6,-2,-2,-20,-25
1520336654597791,-6,-7,0,1,2,1,7,-3
1520336654597791,-4,-4,-9,-5,-2,-3,-46,-10
1520336654598794,2,1,3,2,-1,-4,28,10
1520336654598794,-1,5,8,4,1,6,29,31
1520336654620852,-1,-1,-6,-5,-9,-10,-15,-3
1520336654620852,0,-6,2,3,6,11,5,-4
1520336654620852,-2,-1,3,0,1,0,6,3
1520336654620852,3,-1,1,2,-1,4,4,16
1520336654634890,2,0,3,3,0,-3,-15,-13
1520336654634890,-4,-3,3,-1,-1,-6,-27,-9
1520336654642911,4,2,1,-2,-1,-1,0,11
1520336654642911,4,3,1,1,4,10,68,35
1520336654657951,3,-2,-10,-6,-5,-4,-37,-8
1520336654657951,-2,-4,-7,-4,-2,-5,-28,-17
1520336654658954,0,-1,-7,-4,-9,-15,-6,-7
1520336654658954,-7,-7,0,6,8,7,2,18
1520336654680010,-1,-6,1,3,0,4,16,-8
1520336654680010,4,-9,-10,-7,-3,-4,-18,-16
1520336654681013,7,33,22,9,-1,3,24,21
1520336654681013,1,3,3,0,1,-1,3,19
1520336654695050,1,-3,-1,-2,0,4,-9,-25
1520336654695050,0,-13,1,4,3,5,42,1
1520336654703071,1,-8,-4,-3,-1,1,7,8
1520336654703071,10,5,-1,-3,-12,-18,-46,-12
1520336654718111,-4,-6,-9,-4,1,3,33,18
1520336654718111,-1,12,1,-3,-1,-2,-2,11
1520336654719114,-2,-5,3,3,7,9,8,4
1520336654719114,-2,3,4,0,-2,-1,18,-4
1520336654740170,0,1,4,2,2,6,16,17
1520336654740170,6,-13,-7,-4,-5,-18,-53,11
1520336654741172,-1,14,4,1,3,5,6,-12
1520336654741172,2,8,5,0,-2,-3,-12,-6
1520336654755210,-4,-8,-3,-1,2,-1,-5,-30
1520336654755210,0,-8,2,1,1,5,13,27
1520336654763231,2,9,-2,-3,-2,-1,-1,-7
1520336654763231,-7,-14,-6,-3,0,1,13,17
1520336654778271,-4,-3,8,4,-2,-8,-7,-24
1520336654778271,11,29,2,1,5,12,-1,-37
1520336654778271,-14,-17,-3,-1,0,-3,-6,-42
1520336654778271,3,-11,-4,1,3,4,10,13
1520336654800330,0,-3,-2,2,0,1,34,9
1520336654800330,-9,-7,-6,-5,-7,-12,-34,-23
1520336654801333,-6,-8,-1,-3,-1,-2,-4,-3
1520336654801333,5,9,-1,-1,1,-1,1,17
1520336654814367,-10,-4,3,0,-2,-1,-31,-11
1520336654814367,-6,-8,-3,-1,0,1,-8,17
1520336654823391,-13,-50,-24,-8,-6,-3,23,2
1520336654823391,19,35,11,4,-1,-7,-27,-13
1520336654838431,33,79,28,9,6,3,-14,20
1520336654838431,-4,-39,-12,-1,2,5,38,-23
1520336654838431,2,10,-4,-6,-9,-17,-42,25
1520336654838431,-21,-7,-4,-7,-6,-8,-8,35
1520336654860490,-8,27,8,-3,-5,-10,-21,13
1520336654860490,-11,-3,4,3,5,4,11,-9
1520336654861493,0,-13,-7,-1,0,1,9,47
1520336654861493,4,-25,-3,4,4,8,16,-8
1520336654883551,-6,-58,-21,-7,-2,1,27,43
1520336654883551,-5,54,-4,-10,-13,-19,-36,90
1520336654884554,-19,-9,3,0,3,3,9,-35
1520336654884554,-12,24,0,-6,-7,-5,-19,-40
1520336654897589,-15,-24,-12,-6,-2,-3,22,12
1520336654897589,-13,-51,-12,-1,1,3,5,-13
1520336654898591,0,29,10,2,6,3,-39,-72
1520336654898591,23,-48,-19,-11,-7,-8,-7,21
1520336654920650,5,2,8,6,7,12,30,-19
1520336654920650,45,97,67,26,8,3,12,36
1520336654921653,-68,-98,-58,-16,-9,-2,-7,8
1520336654921653,84,89,53,20,8,8,21,62
1520336654943711,-54,-112,-31,-8,0,-1,-8,40
1520336654943711,19,75,50,11,2,-2,-9,35
1520336654944714,-15,-99,-28,-7,-4,4,17,85
1520336654944714,-14,-18,-8,0,-3,-6,-33,-43
1520336654957749,16,13,9,5,1,4,25,9
1520336654957749,-54,-80,-65,-25,-14,-17,-43,-76
1520336654958751,23,-52,-29,-14,-6,-5,-7,-66
1520336654958751,-9,-15,40,14,8,2,-6,-42
1520336654980810,-21,-68,-18,-10,-8,-4,-9,-17
1520336654980810,-18,-18,-3,0,-2,3,12,-1
1520336654980810,-8,63,18,0,-1,1,10,-17
1520336654980810,-34,-66,-36,-13,-6,-6,-20,-44
1520336655002868,15,12,20,6,3,-3,-14,-36
1520336655002868,-76,-109,-83,-30,-9,-4,6,-87
1520336655003871,27,-19,25,16,7,2,-3,4
1520336655003871,3,3,6,6,4,14,46,12
1520336655017909,-45,43,-1,-11,-14,-20,-42,-43
1520336655017909,-70,-113,-51,-18,-9,-8,-20,-29
1520336655018911,-9,32,15,3,-1,-1,-5,4
1520336655018911,-24,-90,-14,-2,-3,0,-8,-32
1520336655039967,-24,-41,-40,-14,-7,-1,-13,-22
1520336655039967,90,90,28,12,4,6,34,32
1520336655040970,-38,-37,-9,-5,-1,-6,-24,-7
1520336655040970,-67,-119,-50,-14,-6,-2,9,3
1520336655063029,-18,-28,-6,0,0,1,-25,4
1520336655063029,38,25,31,13,6,4,8,4
1520336655064031,1,-18,-11,-5,-3,0,2,-12
1520336655064031,-58,-99,-77,-36,-13,-8,16,23
1520336655078069,102,127,84,30,11,-2,-7,41
1520336655078069,-3,-114,-8,0,0,-1,-6,4
1520336655079072,-2,-63,-19,-4,-1,3,19,5
1520336655079072,54,117,26,6,2,1,5,27
1520336655100127,20,6,5,7,6,11,31,37
1520336655100127,19,-3,3,0,0,1,4,11
1520336655101130,-11,-50,-35,-12,-4,-1,9,-9
1520336655101130,6,79,68,26,12,6,-21,-3
1520336655123189,-21,-66,-21,-8,-4,-5,8,1
1520336655123189,-9,35,10,2,-1,-1,-6,-17
1520336655124192,-14,-8,0,2,-1,-2,2,1
1520336655124192,11,43,-6,-3,-2,-1,11,-27
1520336655138229,4,52,6,2,1,-3,-25,-40
1520336655138229,-10,-26,-1,-2,1,0,1,17
1520336655139232,50,112,46,17,5,3,7,30
1520336655139232,4,-2,-4,3,-2,0,-3,-19
1520336655160287,4,-50,-4,1,1,1,11,17
1520336655160287,5,-7,-2,-3,-1,1,6,7
1520336655161290,-28,-83,-36,-15,-6,-9,-5,13
1520336655161290,37,46,44,18,15,15,14,8
1520336655183349,-19,-24,-15,-5,-2,-4,0,6
1520336655183349,-8,-59,-24,-11,-6,-3,-7,-6
1520336655184352,59,85,73,31,11,6,20,19
1520336655184352,-24,-12,6,4,3,1,16,23
1520336655198389,51,65,21,7,3,2,-1,14
1520336655198389,10,38,18,4,-1,-4,-19,-63
1520336655198389,8,-9,-1,0,0,-1,-12,-48
1520336655198389,-3,-43,-13,-8,-4,-2,3,-68
1520336655220447,-26,-23,-5,-3,-2,-1,-1,-37
1520336655220447,-16,-28,-11,-2,-1,2,12,30
1520336655221450,49,108,34,12,5,4,5,43
1520336655221450,-28,-82,-27,-9,-9,-15,-27,21
1520336655243509,-3,-19,-13,-9,-4,0,9,23
1520336655243509,45,81,27,9,4,2,-4,15
1520336655244511,-21,-20,-3,-1,-3,-8,-27,-34
1520336655244511,-22,-23,-14,-3,-3,0,-26,3
1520336655257546,-6,-27,-10,-3,-3,-5,20,6
1520336655257546,39,88,25,10,4,1,28,6
1520336655258549,-1,-16,-4,-6,-2,3,1,21
1520336655258549,-9,-5,-12,-6,-4,-2,-6,-12
1520336655280607,-10,-30,-7,-2,-3,-1,-16,24
1520336655280607,-19,-24,-4,2,4,6,-3,11
1520336655281610,1,-6,-9,-3,-2,-4,2,11
1520336655281610,1,9,1,-2,-1,-5,-1,12
1520336655303669,-17,-53,-19,-4,0,4,-1,-13
1520336655303669,16,1,27,12,7,5,18,18
1520336655304671,6,-21,1,-1,-4,-4,-5,-14
1520336655304671,-20,-3,0,3,0,2,9,3
1520336655317706,-5,-18,-13,-6,0,5,16,0
1520336655317706,-10,-33,-16,-9,-3,-6,-35,-19
1520336655318709,-1,-13,-7,-5,-2,1,2,11
1520336655318709,-3,17,5,1,-1,-4,3,-17
1520336655340767,15,19,15,5,1,4,16,30
1520336655340767,-21,-24,-11,-5,-8,-6,-5,-38
1520336655340767,-20,-2,0,1,2,3,1,8
1520336655340767,13,-5,-7,-3,0,0,8,12
1520336655362826,5,12,1,3,0,1,-9,-6
1520336655362826,-9,0,3,1,-2,-3,-2,13
1520336655363829,-1,-14,-9,0,3,6,34,8
1520336655363829,19,-34,-9,-6,-4,-6,12,23
1520336655377866,-19,-13,3,6,10,10,-22,-6
1520336655377866,23,31,19,8,4,2,18,28
1520336655378869,-20,14,-3,-4,-4,-6,-25,-35
1520336655378869,24,51,20,2,-1,-1,-5,20
1520336655400928,12,-3,-3,-7,-6,-5,12,-11
1520336655400928,19,42,10,-1,1,2,3,21
1520336655400928,-6,8,9,1,-1,-3,-28,-16
1520336655400928,4,-3,2,1,0,6,39,12
1520336655422986,2,1,-10,-5,-6,-8,-37,-7
1520336655422986,-41,-22,-5,-3,-3,-3,-1,-33
1520336655423989,5,-10,-7,-5,-17,-10,-5,4
1520336655423989,-7,-3,-2,-2,9,2,7,4
1520336655437024,5,-2,-2,-7,-30,-10,-6,12
1520336655437024,-17,-38,-13,-5,-14,7,57,17
1520336655445045,6,7,5,17,87,15,-36,-13
1520336655445045,-7,-21,-5,5,6,3,-3,-23
1520336655476127,-4,8,5,3,15,-1,-9,-14
1520336655476127,4,-17,-11,-11,-22,-12,-5,28
1520336655477130,6,53,33,4,-26,-5,19,114
1520336655477130,-12,-15,-8,-3,4,1,1,4
1520336655483146,-9,-64,-25,-11,-10,-7,0,-73
1520336655483146,-3,6,16,5,-2,-3,-18,-102
1520336655484149,-4,-8,-7,-5,-7,1,4,-88
1520336655484149,7,-2,-1,4,3,3,-15,-45
1520336655498186,-2,2,0,-4,-11,-3,33,-24
1520336655498186,-12,-40,-26,-11,2,-10,-65,-52
1520336655499189,4,-11,-6,0,0,3,18,-20
1520336655499189,0,-4,-5,-4,-13,-4,-6,-2
1520336655528266,-7,8,-4,-2,5,5,22,-16
1520336655528266,3,-1,-5,2,19,-2,-16,18
1520336655529269,2,1,3,-4,-12,-4,-3,10
1520336655529269,-10,-6,-4,-5,-17,6,33,-7
1520336655543306,-1,10,12,7,23,-1,-24,8
1520336655543306,3,4,-4,-1,4,-1,2,32
1520336655543306,-7,-16,-7,-7,-13,-1,-21,-39
1520336655543306,-16,-48,-20,-10,-5,-10,-7,-11
1520336655557344,32,104,36,12,5,2,-2,12
1520336655557344,-23,-32,-9,3,1,3,17,5
1520336655565365,-5,-12,-12,-2,-7,-6,-4,-14
1520336655565365,5,-8,6,2,6,3,5,8
1520336655580405,-8,-21,-6,-1,1,-9,-72,-11
1520336655580405,3,-3,1,6,11,20,65,-1
1520336655581408,0,-30,-16,-12,-10,-5,17,7
1520336655581408,25,100,40,12,5,0,-20,2
1520336655603466,11,8,11,7,2,13,16,-9
1520336655603466,-12,-45,-17,-12,-2,-13,-33,-40
1520336655603466,1,-11,3,2,0,-5,-12,4
1520336655603466,7,-2,-14,-12,-8,-5,-54,13
1520336655617504,-5,-25,-17,-12,-4,-11,-4,-53
1520336655617504,10,22,11,3,-14,3,59,-42
1520336655625525,-3,42,4,-7,9,3,-20,-105
1520336655625525,-11,-51,-13,-1,4,8,12,-42
1520336655640565,9,-12,0,3,6,11,13,65
1520336655640565,-5,-25,-9,-5,-5,-9,-22,4
1520336655641568,-13,-60,-23,-8,-15,-13,-30,-12
1520336655641568,2,87,33,11,7,7,20,21
1520336655662624,1,-98,-29,-6,-2,5,40,59
1520336655662624,22,82,33,13,4,-1,-20,56
1520336655663627,15,-13,12,12,7,20,55,80
1520336655663627,-7,-59,-26,-11,-4,-3,1,33
1520336655677664,18,45,25,10,-5,1,25,-3
1520336655677664,-11,-15,-5,-6,-4,-12,-64,-10
1520336655685685,2,-13,-11,-8,-8,-21,-41,-18
1520336655685685,-3,-3,-4,-4,1,-5,-1,63
1520336655700725,-16,-12,-10,-11,-9,-10,-32,-48
1520336655700725,-10,-106,-27,-9,1,9,35,52
1520336655701728,26,77,47,21,11,15,41,65
1520336655701728,-12,-54,-18,-4,-10,-10,-4,-62
1520336655722784,4,40,1,-4,-6,-10,-9,45
1520336655722784,-11,-19,-1,1,10,13,-16,-8
1520336655723786,3,9,-10,-10,-10,-4,17,-13
1520336655723786,13,19,2,-5,-7,-13,-32,6
1520336655737824,-66,-116,-37,-7,-3,1,14,-26
1520336655737824,5,45,28,10,6,-1,-31,-18
1520336655745845,-12,21,14,5,-2,-3,8,6
1520336655745845,-14,-57,-30,-10,-4,-2,-15,-34
1520336655760885,-17,39,7,0,0,4,11,-53
1520336655760885,7,10,-8,-5,-7,5,20,94
1520336655760885,-31,-68,-36,-16,-13,-20,-78,-79
1520336655760885,7,1,7,1,1,-4,-1,7
1520336655782944,3,13,11,3,4,7,49,-12
1520336655782944,21,-2,-5,-3,-5,-6,32,10
1520336655783946,-2,-18,1,-1,-1,4,-6,-16
1520336655783946,-48,-90,-47,-13,-1,6,39,43
1520336655796981,16,32,29,9,2,-15,-63,-50
1520336655796981,-3,54,12,4,5,10,11,30
1520336655806005,-19,-39,-10,-1,2,4,-8,42
1520336655806005,-8,-37,-30,-21,-14,-16,-51,-64
1520336655820042,3,-9,-2,-3,0,-2,0,41
1520336655820042,15,9,1,1,1,-4,-5,31
1520336655821045,67,77,53,17,6,5,17,4
1520336655821045,-9,-12,18,6,1,-5,-10,-25
1520336655843104,4,-19,-8,-3,-1,11,29,1
1520336655843104,-14,-23,-9,-4,0,-10,-34,-110
1520336655844107,-5,-22,-17,-7,-2,6,72,65
1520336655844107,40,113,48,16,7,2,-57,-49
1520336655857141,0,-16,4,1,1,0,-19,15
1520336655857141,-28,-37,-15,-6,-3,-1,20,-33
1520336655865162,18,39,19,5,-2,-4,1,23
1520336655865162,20,48,1,1,4,18,53,7
1520336655880202,-35,-98,-32,-12,-5,-9,-11,-9
1520336655880202,97,50,44,16,7,3,0,38
1520336655881205,-17,-10,-16,-3,-1,0,-6,-12
1520336655881205,12,2,16,9,0,-1,-1,-29
1520336655903264,-37,-54,-33,-10,-4,-1,5,15
1520336655903264,5,-1,-9,-6,-3,-2,-15,-35
1520336655903264,-4,-63,-14,-3,1,3,2,9
1520336655903264,3,-31,4,4,2,-1,9,32
1520336655917301,-12,-37,-4,-5,-4,0,1,16
1520336655917301,1,29,11,3,0,-3,-5,4
1520336655925322,-5,8,4,2,2,0,5,-35
1520336655925322,5,41,23,14,7,1,-8,-29
1520336655940362,11,-16,-9,-3,-1,-2,-10,-82
1520336655940362,-22,-2,1,-4,-4,-4,-14,-28
1520336655941365,-36,-62,-36,-13,-5,-4,-10,-13
1520336655941365,-4,8,5,-2,-2,-1,31,26
1520336655963424,-4,-4,-14,1,1,2,-2,89
1520336655963424,3,-41,19,8,4,2,-21,-48
1520336655963424,0,-37,-20,-5,-1,-2,13,10
1520336655963424,28,3,35,11,1,-7,-15,-32
1520336655986485,-50,-73,-35,0,-4,-1,0,-24
1520336655986485,-63,-128,-64,-23,-12,-8,-5,-40
1520336655986485,8,-3,28,13,2,2,-3,-8
1520336655986485,-53,-96,-33,-12,-6,6,41,17
1520336656000523,3,24,13,-8,-3,-7,-31,51
1520336656000523,28,98,56,24,10,3,-12,44
1520336656001525,-35,-70,-9,-6,-2,0,-6,22
1520336656001525,26,3,1,-4,-1,-1,12,78
1520336656022581,2,54,12,5,2,1,7,-17
1520336656022581,-28,-53,-35,-18,-8,-5,3,13
1520336656023584,-22,-70,-15,-2,-1,-2,-6,3
1520336656023584,-11,18,-4,-1,-1,-6,-26,-15
1520336656046645,19,13,11,0,-2,4,34,15
1520336656046645,51,88,49,16,6,2,12,21
1520336656046645,27,118,17,5,4,6,21,20
1520336656046645,38,41,55,23,10,-1,-29,-3
1520336656060683,42,50,10,0,1,6,15,12
1520336656060683,-50,-106,-60,-23,-13,-5,13,27
1520336656061685,73,54,77,32,15,13,16,21
1520336656061685,-33,-95,-28,-9,-5,-4,-15,-11
1520336656082741,-34,-32,-15,-13,-7,-7,1,16
1520336656082741,51,48,29,13,6,7,7,28
1520336656083744,2,22,-4,5,1,-4,-26,-16
1520336656083744,-76,-88,-56,-16,-5,0,12,3
1520336656105802,34,-28,38,19,12,12,20,-5
1520336656105802,0,12,47,24,10,9,12,-48
1520336656106805,-31,-83,-21,-11,-6,-7,-23,-55
1520336656106805,-9,-25,-9,-4,-2,-2,-1,-42
1520336656120843,-49,-58,-40,-18,-9,-6,20,-50
1520336656120843,24,57,5,1,-1,0,8,7
1520336656120843,13,19,10,3,4,0,-54,9
1520336656120843,-8,-14,0,1,3,7,28,48
1520336656142901,0,17,14,2,-1,-8,-12,113
1520336656142901,-21,-60,-13,-3,-1,-2,9,24
1520336656143904,-22,-79,-34,-15,-9,-6,8,6
1520336656143904,-31,-36,-11,-7,-3,0,6,94
1520336656165963,34,-4,2,1,0,-4,-23,-7
1520336656165963,-31,-55,-20,-1,0,-1,-2,-24
1520336656165963,-34,-39,-12,-5,-2,4,23,1
1520336656165963,11,-24,-16,-11,-5,-4,3,-58
1520336656180000,29,72,34,13,3,0,11,-38
1520336656180000,-28,-23,-20,-10,-6,-9,-3,-7
1520336656181003,10,8,-1,-1,0,-2,-3,-14
1520336656181003,13,10,-1,3,1,-1,17,2
1520336656203061,-4,-1,1,5,2,-3,-29,-32
1520336656203061,-28,-63,-33,-18,-8,-8,-12,-36
1520336656204064,-8,-11,-16,-6,-4,0,38,-8
1520336656204064,6,-7,1,0,-5,-8,-54,-49
1520336656225120,39,70,16,2,-3,-4,-26,-22
1520336656225120,-33,-43,-28,-15,-7,-5,-9,8
1520336656226123,16,59,19,0,-4,-11,-24,-50
1520336656226123,-3,-1,-7,-7,-4,-8,-21,-38
1520336656240160,-9,-39,-10,-2,1,1,-5,-36
1520336656240160,10,14,6,1,1,0,16,19
1520336656241163,-5,-16,-14,-10,-6,-3,-5,22
1520336656241163,78,106,57,21,10,8,14,31
1520336656263221,-22,-36,-10,-2,-4,-10,-27,-28
1520336656263221,0,-13,-2,0,2,14,60,47
1520336656264224,-24,-16,-15,-8,-7,-9,-52,-49
1520336656264224,-23,-15,-13,-6,-3,-2,13,23
1520336656285280,5,-10,-2,2,5,7,35,-4
1520336656285280,7,28,12,8,-1,-5,-23,1
1520336656286283,-12,-12,-7,1,1,-3,-4,10
1520336656286283,-1,-8,-5,0,2,5,27,6
1520336656300320,-39,-67,-32,-16,-10,-5,12,11
1520336656300320,25,18,34,12,8,4,-8,9
1520336656301323,11,32,22,11,4,11,71,26
1520336656301323,15,58,-2,-4,-8,-15,-99,-46
1520336656323381,-9,-14,-11,-4,-1,3,25,13
1520336656323381,-17,-31,-23,-9,-5,-3,13,3
1520336656323381,16,35,16,2,2,2,-14,24
1520336656323381,-6,-9,6,1,-3,-7,-19,-44
1520336656345440,7,24,15,7,0,-1,-12,-2
1520336656345440,-10,-11,-9,-7,-5,-10,-17,2
1520336656346443,-1,-6,8,10,7,10,1,36
1520336656346443,-6,-22,-11,-3,4,20,46,21
1520336656360480,16,20,0,-3,-6,-23,-60,-46
1520336656360480,-13,-13,-7,-4,-4,-5,25,-12
1520336656361483,-17,-40,-23,-8,-1,-8,-9,-6
1520336656361483,-2,0,2,-3,-1,6,45,34
1520336656382539,15,30,25,12,8,15,27,32
1520336656382539,-15,-20,-18,-9,-7,-7,-37,-24
1520336656383541,-2,-4,1,-4,-5,-3,-19,-17
1520336656383541,-18,-44,-8,2,3,-2,-6,-7
1520336656405600,7,2,1,-1,-5,3,19,30
1520336656405600,-2,8,-2,1,-1,-5,-22,-23
1520336656406603,-4,-25,-12,-7,-4,1,7,9
1520336656406603,6,1,-5,-5,-5,-6,5,-2
1520336656420640,-7,-7,-4,-3,1,-7,-56,-2
1520336656420640,-5,-16,-7,-1,-3,3,3,6
1520336656421643,-8,-16,-5,1,-5,-7,14,25
1520336656421643,1,2,-1,-2,1,-10,-51,-37
1520336656442699,-2,-1,0,2,2,-1,5,19
1520336656442699,13,23,15,4,1,15,50,33
1520336656443701,-2,11,-1,-12,-8,-17,-78,-30
1520336656443701,-10,-7,-8,-3,-11,-12,14,4
1520336656465760,-8,-11,-4,2,13,5,3,-19
1520336656465760,-7,-2,4,4,2,0,15,-12
1520336656466763,5,-9,-19,-8,-4,-4,-8,-24
1520336656466763,-1,18,2,-3,-4,9,37,15
1520336656480800,9,3,-1,-4,-4,0,-14,-30
1520336656480800,-2,-10,2,7,6,2,0,12
1520336656480800,4,-14,2,9,9,19,15,1
1520336656480800,1,-5,-3,-6,-5,8,83,17
1520336656502859,-8,7,3,0,-9,-11,12,-23
1520336656502859,-5,-16,-10,-7,0,-9,-60,-32
1520336656503861,-9,-12,-6,-10,-12,-2,21,20
1520336656503861,17,-5,0,8,10,5,-33,-14
1520336656525920,4,0,3,1,-1,7,12,10
1520336656525920,-9,-9,-7,-4,0,2,19,1
1520336656525920,2,13,13,8,1,-5,-8,7
1520336656525920,7,-7,-3,0,2,7,-33,25
1520336656540960,-12,2,-4,-7,-6,6,64,11
1520336656540960,-7,-27,-13,-10,-13,-44,-99,-90
1520336656540960,-17,-24,-8,5,8,8,50,0
1520336656540960,27,74,29,2,-3,-5,-1,-10
1520336656563019,-6,-10,-6,-1,1,2,10,-3
1520336656563019,-5,-28,-12,-4,-2,9,-3,14
1520336656564021,10,18,11,1,1,-4,-2,9
1520336656564021,-19,-43,-12,-11,-7,-4,10,-1
1520336656586080,-5,-6,-3,-2,0,12,86,41
1520336656586080,3,27,1,-3,-6,-23,-64,-80
1520336656587083,13,-13,-5,1,3,21,107,49
1520336656587083,2,-9,-6,1,-5,-27,-98,-52
1520336656600118,11,8,6,2,4,1,34,29
1520336656600118,-6,-3,-8,-9,-9,3,-12,27
1520336656608139,6,11,11,12,14,17,79,30
1520336656608139,-20,-93,-25,3,0,-9,-24,-49
1520336656623179,68,100,69,20,8,8,-48,39
1520336656623179,-11,-48,-12,-13,-14,-22,-45,-36
1520336656624182,-3,-15,-7,6,-2,3,-2,18
1520336656624182,-11,10,7,0,-10,0,58,24
1520336656645237,-24,-52,-30,-5,23,0,10,-13
1520336656645237,5,18,4,3,6,7,25,18
1520336656646240,17,34,10,-1,2,7,24,22
1520336656646240,-5,3,7,6,3,29,81,80
1520336656660278,-13,-25,-17,-17,-31,-64,-110,-109
1520336656660278,11,24,6,-2,4,21,114,82
1520336656668299,-16,-14,-9,0,11,-4,-7,-10
1520336656668299,-13,5,-4,-1,5,5,79,-9
1520336656683339,-13,-16,-9,1,-6,11,-58,-29
1520336656683339,7,5,7,9,11,27,72,66
1520336656683339,2,-43,-22,-19,-20,-29,-51,-63
1520336656683339,23,55,24,4,10,10,-38,24
1520336656705397,-35,-65,-30,-12,-6,-3,-24,-5
1520336656705397,-4,-17,7,14,3,1,2,-16
1520336656706400,-3,-29,6,6,1,4,-32,6
1520336656706400,-19,-11,3,-4,4,32,110,84
1520336656719435,-22,-39,-27,-6,-18,-9,-34,-45
1520336656719435,15,-11,-4,3,13,24,103,80
1520336656728459,23,84,23,-2,-5,-23,-56,-10
1520336656728459,-20,-67,-19,-5,1,-7,-8,-6
1520336656742496,35,109,31,7,1,6,30,36
1520336656742496,-1,9,14,17,20,9,-33,-7
1520336656743499,-14,-20,-3,-3,-8,3,60,-20
1520336656743499,4,-9,-6,-4,-7,-13,10,10
1520336656765557,-10,-24,2,21,20,3,-31,-41
1520336656765557,2,22,12,6,11,20,36,17
1520336656766560,-14,-7,-12,-15,-20,-29,-74,-31
1520336656766560,-22,-84,-47,-20,-8,-10,-22,-27
1520336656779595,29,-40,21,6,10,10,42,47
1520336656779595,-12,-60,-16,-11,-4,0,17,2
1520336656787616,56,40,73,38,20,17,-14,15
1520336656787616,-17,-50,-24,-7,-3,9,81,79
1520336656802656,2,-22,-16,-11,-4,-26,-87,-59
1520336656802656,-9,4,-2,-1,-7,-8,3,23
1520336656803659,-13,-23,-25,-19,-16,-7,-21,8
1520336656803659,16,56,33,23,12,6,-26,16
1520336656825717,-10,-7,-6,2,15,9,116,47
1520336656825717,7,28,2,-12,-18,-14,11,-22
1520336656826720,-60,-128,-107,-37,-7,-8,7,-21
1520336656826720,97,117,119,67,29,23,27,26
1520336656839755,-28,-102,-42,-12,-12,-5,-33,13
1520336656839755,10,-104,-46,-14,-6,-5,-29,-3
1520336656847776,-11,23,36,23,14,17,31,10
1520336656847776,-15,-61,-32,-18,-12,-18,-98,-77
1520336656862817,-20,-25,-13,-13,-12,3,23,2
1520336656862817,16,46,26,12,3,-7,-67,-28
1520336656863820,4,1,-13,-18,-12,-3,10,5
1520336656863820,-8,22,-9,-11,-5,-21,-14,-43
1520336656885877,5,4,6,3,2,4,31,21
1520336656885877,10,27,-4,-10,-5,12,96,30
1520336656885877,-11,71,20,5,1,-17,-80,-28
1520336656885877,-8,-29,-12,-8,-2,7,-15,-31
1520336656908939,-23,-75,-36,-20,-14,-4,45,-1
1520336656908939,9,51,18,12,6,-4,25,21
1520336656909941,-2,-34,-5,3,4,12,70,-36
1520336656909941,-7,-60,-33,-14,-9,-17,-38,-44
1520336656922976,49,99,55,20,13,30,85,127
1520336656922976,-20,-91,-42,-22,-16,-23,-45,14
1520336656923979,-22,-75,-7,6,5,-8,-50,-128
1520336656923979,11,26,6,8,6,11,15,2
1520336656945035,0,-44,-28,-13,-9,-4,-21,33
1520336656945035,-6,-41,-9,-1,2,0,-33,-33
1520336656946038,65,79,27,9,6,9,31,75
1520336656946038,-24,80,39,3,-6,-13,-17,-49
1520336656969099,-17,-25,-6,3,2,-1,-31,-100
1520336656969099,-48,-110,-38,-17,-12,-13,-38,-16
1520336656969099,-14,12,1,-4,-5,-7,-59,-39
1520336656969099,-2,-26,-15,-9,-5,-6,-4,-10
1520336656983136,1,13,10,7,10,1,-27,-4
1520336656983136,14,71,34,12,-4,0,-26,-34
1520336656984139,-8,-54,-26,-9,-3,4,46,44
1520336656984139,17,4,6,0,4,11,42,57
1520336657005195,21,99,39,8,-2,-5,-36,-28
1520336657005195,-6,-17,0,6,5,6,22,-9
1520336657006198,-18,-31,-16,-3,2,0,19,12
1520336657006198,9,-55,-23,-5,-5,-11,-29,4
1520336657028256,-9,1,0,-2,-2,-2,18,14
1520336657028256,33,82,27,11,3,0,-25,4
1520336657029259,25,49,18,13,10,26,95,87
1520336657029259,-36,-59,-32,-14,-9,-22,-36,-2
1520336657043296,-4,-7,-8,-7,-6,-9,-18,-1
1520336657043296,11,16,11,7,6,28,87,96
1520336657043296,5,0,-14,-15,-11,-19,-2,18
1520336657043296,10,92,30,10,6,8,25,12
1520336657065355,-25,-83,-27,-9,-6,-4,7,-19
1520336657065355,9,56,28,13,10,8,25,3
1520336657066358,12,-29,-1,8,11,21,14,-28
1520336657066358,-18,-22,-14,-8,-5,-19,-79,-64
1520336657088416,-16,15,5,-1,-4,-2,0,12
1520336657088416,-82,-128,-87,-36,-15,-15,-54,-31
1520336657089419,30,5,39,16,5,1,-3,11
1520336657089419,11,1,10,5,-2,-5,-28,-1
1520336657103456,18,45,29,13,3,10,32,39
1520336657103456,-28,-48,-21,-8,1,1,-28,1
1520336657103456,-10,14,-8,-3,-4,-13,-55,-64
1520336657103456,9,-9,-4,1,4,15,65,92
1520336657125515,15,-3,-7,-5,-7,-7,-11,-4
1520336657125515,24,56,34,15,7,4,37,3
1520336657126518,-9,8,-5,-5,-4,-6,-14,-12
1520336657126518,-5,-5,2,-7,-5,4,23,-14
1520336657148576,-12,-6,-9,-2,-4,-14,-61,-20
1520336657148576,15,17,7,8,7,19,16,20
1520336657149580,-3,-30,-9,-9,-11,-10,60,43
1520336657149580,-33,-79,-37,-17,-4,3,48,-3
1520336657162614,-23,-60,-28,-12,-6,-11,13,-23
1520336657162614,-6,-19,17,14,11,15,42,15
1520336657163617,-14,-66,-35,-20,-10,-9,-43,4
1520336657163617,5,-6,16,16,5,-2,-6,-22
1520336657185675,19,-4,9,11,20,52,120,94
1520336657185675,6,8,-8,-14,-23,-64,-128,-86
1520336657186678,-38,-30,-18,-7,0,4,5,-9
1520336657186678,-3,7,-4,-5,-6,-8,23,-17
1520336657208736,20,44,21,4,1,-1,-10,50
1520336657208736,-17,-7,-7,-6,-3,0,-7,-2
1520336657209739,9,29,13,6,-2,-14,0,26
1520336657209739,10,24,9,7,13,34,-4,59
1520336657222774,17,6,5,0,-3,-10,-20,-1
1520336657222774,-9,-9,-11,-14,-11,-12,5,-79
1520336657223777,-19,-59,-31,-15,-5,-10,-69,-33
1520336657223777,11,44,27,9,6,8,5,3
1520336657245835,0,35,14,6,2,1,18,-44
1520336657245835,-16,-48,-16,-3,-4,-12,-26,-10
1520336657245835,-14,-16,8,11,12,41,113,14
1520336657245835,-27,-37,-23,-12,-10,-26,-59,5
1520336657268896,14,13,3,-6,-2,-1,1,14
1520336657268896,-3,14,2,-1,0,-2,1,9
1520336657269899,7,24,12,5,1,3,12,12
1520336657269899,3,-9,-4,0,-4,0,11,7
1520336657282934,-16,-16,-6,1,-2,-7,-36,-30
1520336657282934,17,26,16,9,11,34,103,70
1520336657283937,2,-8,-6,-5,-10,-47,-116,-74
1520336657283937,11,15,3,2,3,10,81,-2
1520336657304992,-7,-6,-6,-8,-8,-10,42,-3
1520336657304992,11,13,5,0,-2,-4,7,-8
1520336657305995,15,33,21,7,9,12,-5,32
1520336657305995,0,-2,-9,-6,-3,-5,9,9
1520336657328054,-6,-5,7,11,8,6,-34,-35
1520336657328054,14,4,6,7,4,5,-20,-24
1520336657329057,-8,10,-2,-6,-10,-6,22,21
1520336657329057,-5,-11,-9,-3,-5,-10,-47,-22
1520336657343094,-9,-33,-7,4,2,7,20,13
1520336657343094,41,95,37,7,3,-8,-27,-22
1520336657344097,7,10,5,4,1,5,12,7
1520336657344097,2,-11,1,-1,0,-1,-12,-25
1520336657365152,-1,-2,-13,-12,-12,-16,-32,13
1520336657365152,-19,-19,-3,0,0,1,25,6
1520336657366156,0,-1,-2,-1,2,4,4,-16
1520336657366156,-2,12,3,-3,-3,-1,17,-6
1520336657388214,-5,-7,-2,0,-2,-2,-19,-15
1520336657388214,-1,-17,-7,-1,4,-2,-8,-6
1520336657389217,6,6,2,1,-1,7,29,39
1520336657389217,1,-3,-5,-6,-8,-10,-39,-19
1520336657403254,4,10,4,-1,-6,5,30,6
1520336657403254,-11,-15,-6,-3,2,-9,-12,2
1520336657404257,-2,3,5,5,11,5,17,17
1520336657404257,2,-2,-1,2,2,-5,-5,-14
1520336657425312,0,1,0,-3,0,2,4,-9
1520336657425312,2,0,-2,-6,-11,-3,-22,6
1520336657426315,4,-2,2,6,4,6,35,17
1520336657426315,2,-2,2,5,1,1,-12,5
1520336657448374,-4,-4,-13,-10,-9,-4,-24,-39
1520336657448374,-2,-8,0,-2,-2,-2,11,-12
1520336657449377,1,8,5,1,-1,-6,-33,-3
1520336657449377,-5,1,3,0,-1,2,6,17
1520336657463414,-1,0,-1,1,3,0,-19,-25
1520336657463414,5,1,-7,-2,2,5,16,36
1520336657463414,-1,-5,-10,-9,-8,-4,15,-10
1520336657463414,1,-2,5,6,5,0,-13,-26
1520336657485472,4,2,2,5,-1,-3,4,-4
1520336657485472,-2,-6,-1,-2,-1,0,-6,-10
1520336657486475,1,-3,-2,-3,2,3,24,9
1520336657486475,-3,-7,-8,-2,-1,-4,-26,3
1520336657508534,-3,5,8,7,5,1,18,22
1520336657508534,1,-4,-2,0,-2,1,4,0
1520336657508534,-12,-3,-5,-1,-4,-3,-10,-9
1520336657508534,3,7,-3,-9,-3,-2,-17,-23
1520336657522571,-1,-3,3,2,3,8,70,-11
1520336657522571,-1,-2,-8,-6,-7,-19,-91,-100
1520336657530593,3,4,-1,-6,-5,-1,16,-45
1520336657530593,3,-2,-3,-2,6,2,25,0
1520336657545633,-2,1,-4,-1,-1,0,-7,10
1520336657545633,2,0,8,2,-1,3,26,52
1520336657546636,-3,-5,-5,-2,-3,-2,-12,34
1520336657546636,4,-4,-6,2,-3,-6,-12,15
1520336657568694,12,24,15,7,3,5,-7,42
1520336657568694,-7,-11,-2,-3,-6,-5,16,11
1520336657569697,2,-2,-1,2,2,6,-21,-3
1520336657569697,-4,-8,-5,-1,-2,-2,-8,12
1520336657582731,-15,-39,-27,-17,-7,-8,-18,-38
1520336657582731,18,59,28,15,6,3,7,27
1520336657590753,-1,-7,-1,-1,-1,-1,5,-2
1520336657590753,-2,1,0,-5,-7,-5,3,-6
1520336657605793,-5,-11,-6,-3,-1,-5,2,-6
1520336657605793,-11,-9,-1,-1,5,10,-7,6
1520336657605793,-4,-2,-4,0,-6,-11,-27,-2
1520336657605793,1,4,2,0,0,2,-2,-4
1520336657627851,2,5,2,-2,-1,-7,-2,5
1520336657627851,-7,-22,-10,-4,-4,2,31,15
1520336657628854,5,13,6,1,3,0,-2,7
1520336657628854,-1,2,6,2,0,1,2,14
1520336657641889,6,-9,-3,2,4,5,-4,-1
1520336657641889,-2,6,-2,-2,-1,-3,0,2
1520336657650913,-5,0,1,-2,-3,-3,-10,11
1520336657650913,-6,-19,-8,5,-3,-2,6,-5
1520336657665953,14,54,16,2,2,4,14,17
1520336657665953,-6,-22,-19,-9,-4,-4,-30,-18
1520336657665953,6,-8,5,6,-4,-1,6,17
1520336657665953,-1,4,11,2,5,6,8,-18
1520336657688011,-2,-5,-4,-1,0,3,36,2
1520336657688011,10,-14,-9,-9,0,-1,-33,16
1520336657689014,-6,15,5,-2,0,10,40,3
1520336657689014,-5,-7,-9,-4,-6,-19,-50,-4
1520336657702049,-1,-6,-4,1,1,-1,-28,5
1520336657702049,1,6,0,-1,-1,-2,26,12
1520336657710070,-1,-11,-5,-2,0,0,-3,1
1520336657710070,11,-2,-4,-3,-1,2,17,11
1520336657725110,-5,-1,4,4,2,-2,-7,-18
1520336657725110,-14,-26,-8,-3,-4,-4,6,-5
1520336657726113,-9,28,10,7,5,-1,-14,-20
1520336657726113,-23,-48,-20,-8,-4,0,23,3
1520336657748171,10,42,15,3,3,3,-1,12
1520336657748171,4,-13,-4,1,-2,-2,-6,-14
1520336657749174,2,-15,-5,-3,-2,-5,-21,-3
1520336657749174,1,14,3,-2,1,12,71,25
1520336657771233,-6,-23,-11,-3,-5,-6,-24,-4
1520336657771233,-2,3,1,0,3,-2,-34,-29
1520336657772236,-1,-2,5,3,-1,-4,0,1
1520336657772236,5,14,3,0,1,0,0,12
1520336657785270,2,-7,0,-1,0,1,26,32
1520336657785270,-2,10,2,-1,0,0,21,10
1520336657786273,2,-5,-4,-5,-3,-3,-11,1
1520336657786273,-10,-30,-10,-3,0,1,-2,-7
1520336657808331,21,51,21,6,0,0,-5,7
1520336657808331,-1,5,2,4,-2,-1,-2,1
1520336657808331,-3,-4,0,2,2,-5,-17,-15
1520336657808331,1,11,4,0,-3,-2,-7,-4
1520336657831393,-10,-28,-16,-10,-8,-3,-22,-25
1520336657831393,-5,-8,-1,-1,-1,2,24,7
1520336657832396,10,6,1,-4,-3,-4,6,-1
1520336657832396,13,20,5,-2,-3,-2,-15,-11
1520336657845430,-21,-18,-7,-2,-1,-1,0,-6
1520336657845430,-6,8,6,11,7,5,13,6
1520336657846433,-6,-12,-5,-1,-3,-4,12,7
1520336657846433,3,11,2,-1,3,1,-36,-8
1520336657868491,1,-12,-4,-4,-6,-7,-33,-6
1520336657868491,-5,-6,-4,-7,-5,-1,9,-26
1520336657868491,9,-3,0,6,2,-2,-14,8
1520336657868491,-4,5,-2,-4,-2,-3,1,-10
1520336657891553,-13,-26,-10,-2,0,1,10,-4
1520336657891553,12,31,15,4,-1,0,-3,14
1520336657891553,-4,8,-3,-2,-1,-1,2,1
1520336657891553,11,10,5,4,0,0,-2,-6
1520336657905590,-1,-10,-4,-1,1,3,0,1
1520336657905590,-7,-1,-8,-7,-3,-5,4,0
1520336657906593,-1,-4,-6,-5,-5,-2,-7,-10
1520336657906593,0,3,2,0,0,3,10,8
1520336657927649,-9,-13,-5,-4,-5,-11,-14,-15
1520336657927649,3,-6,-3,-4,-3,3,2,4
1520336657928652,-4,1,4,3,0,0,11,0
1520336657928652,-10,-4,6,4,0,-3,-23,-7
1520336657950710,-2,-34,-14,-6,5,8,16,9
1520336657950710,16,29,14,9,5,1,-1,0
1520336657951713,2,-11,-9,-4,0,5,16,7
1520336657951713,-7,18,5,-1,-4,-8,-24,-17
1520336657965750,-9,-7,1,2,1,3,12,1
1520336657965750,14,-1,-5,-1,-2,0,0,2
1520336657966753,-6,-15,-10,-5,-3,-2,1,11
1520336657966753,9,-28,-10,-4,-2,-3,8,-2
1520336657987809,-16,0,3,1,0,1,-2,-12
1520336657987809,-13,-39,-8,0,0,-2,-6,-4
1520336657988812,6,10,8,-2,0,0,5,-3
1520336657988812,-12,-18,-14,-6,-3,1,8,5
1520336658010870,15,6,-6,-1,-2,-3,5,-2
1520336658010870,-4,5,10,7,4,-2,-27,0
1520336658011873,2,-4,-11,-6,-3,-1,2,0
1520336658011873,-8,-2,7,8,4,4,4,-1
1520336658025910,11,18,7,1,-1,-2,-5,93
1520336658025910,-9,-8,-9,-7,-1,0,13,-10
1520336658025910,-1,26,11,4,1,0,-3,-37
1520336658025910,-20,-45,-18,-9,-4,-2,0,-76
1520336658047969,54,90,48,18,5,3,6,-60
1520336658047969,-18,-44,-18,-10,-5,-2,2,-29
1520336658048972,26,68,14,5,1,1,-8,-22
1520336658048972,12,-3,0,1,-1,1,7,-6
1520336658071030,-24,-56,-21,-6,-4,-5,-11,-27
1520336658071030,-4,-41,-17,-9,-5,-7,-9,-19
1520336658072033,-25,-9,0,2,2,-2,3,-28
1520336658072033,-1,22,-1,1,1,4,9,17
1520336658085067,-15,-47,-21,-10,-8,-10,-34,-32
1520336658085067,13,-3,10,-1,1,0,-1,-7
1520336658086070,41,9,9,6,3,0,1,29
1520336658086070,-22,-42,-6,-3,-3,-3,8,33
1520336658108129,-3,49,23,10,6,9,10,3
1520336658108129,-34,-10,-25,-8,-5,-3,7,13
1520336658109132,11,90,74,23,8,3,-7,-7
1520336658109132,15,-71,-11,-3,-6,-4,0,6
1520336658131190,-22,13,10,1,0,0,2,-10
1520336658131190,32,69,11,5,1,2,4,5
1520336658132193,-51,-67,-35,-13,-2,1,5,6
1520336658132193,13,67,11,1,0,-4,-16,-7
1520336658145227,-16,-45,-28,-11,-5,-7,0,19
1520336658145227,66,83,56,16,5,2,-4,-1
1520336658146230,-14,-64,-22,-5,-1,-1,-9,-27
1520336658146230,3,11,-3,-4,-5,-8,-10,-5
1520336658168289,13,43,13,-1,0,3,5,-30
1520336658168289,9,5,-11,-4,-4,-6,-38,7
1520336658169292,7,-9,-7,0,2,4,9,15
1520336658169292,18,53,25,10,6,5,20,31
1520336658191350,-18,-30,-13,-4,-3,-5,-9,5
1520336658191350,7,-12,0,-2,-1,3,16,4
1520336658192353,27,87,23,0,-6,-4,-6,-2
1520336658192353,-22,-128,-62,-19,-7,-1,1,16
1520336658205388,3,-4,19,11,6,5,18,14
1520336658205388,-24,-52,-3,1,2,2,11,0
1520336658206390,-19,-76,-38,-16,-8,-4,6,4
1520336658206390,9,70,21,4,2,-2,-6,-14
1520336658228449,6,-29,-10,-8,-6,-3,-11,-8
1520336658228449,-23,-30,-8,4,4,7,50,30
1520336658228449,43,44,53,19,7,1,-19,34
1520336658228449,-1,-19,0,-5,-2,-3,-10,-22
1520336658251510,-1,8,1,2,5,5,4,7
1520336658251510,-30,-35,-25,-6,-3,-2,-7,-45
1520336658252513,-22,-44,-22,-8,-7,-1,25,5
1520336658252513,18,50,32,14,10,13,2,-19
1520336658265548,-5,-13,-11,-6,-4,-5,3,24
1520336658265548,-13,-53,-15,-9,-6,-8,-30,-14
1520336658266550,-25,-89,-60,-24,-11,-12,-18,4
1520336658266550,17,90,56,23,8,5,6,-9
1520336658287606,13,-6,-12,-5,-1,-1,3,-12
1520336658287606,-15,-50,-20,-6,-3,2,5,10
1520336658288609,-6,14,-9,0,1,-3,-13,-19
1520336658288609,-19,-30,-23,-5,-4,0,26,14
1520336658311670,20,-17,-1,1,0,0,-11,35
1520336658311670,3,9,6,2,0,-6,-10,-8
1520336658311670,3,18,14,0,-2,0,-14,-2
1520336658311670,-12,-16,-12,-5,-1,-1,19,-2
1520336658325708,22,57,27,7,3,-1,-15,7
1520336658325708,-8,-6,-13,-7,-3,-2,16,-33
1520336658326710,6,31,16,8,6,10,23,-56
1520336658326710,6,11,9,2,-1,-4,-41,-9
1520336658347766,-27,-42,-15,-3,-5,2,26,-75
1520336658347766,-9,-12,-6,-9,-5,-14,-49,14
1520336658348769,15,28,15,4,2,3,19,33
1520336658348769,7,-18,-2,-1,-2,1,5,6
1520336658370828,18,32,20,12,5,5,17,22
1520336658370828,13,27,10,10,3,5,7,-3
1520336658371831,-10,-41,-18,-6,-2,-4,-14,1
1520336658371831,-33,-89,-40,-19,-8,-4,-1,6
1520336658385868,-17,-72,-38,-15,-8,-7,-14,22
1520336658385868,48,106,59,23,11,10,26,50
1520336658385868,9,2,16,7,1,2,8,33
1520336658385868,-18,-24,-13,-5,-5,-13,-26,-12
1520336658407926,-27,-21,-8,-1,1,8,6,8
1520336658407926,-11,0,-7,-8,-3,0,12,-1
1520336658408929,-15,-51,-21,-7,-3,-9,-1,5
1520336658408929,16,12,10,4,-1,-12,-49,-24
1520336658430988,4,-18,-7,-6,-4,-7,-6,-8
1520336658430988,8,-2,8,2,0,3,10,2
1520336658431991,-16,-48,-13,-5,-1,7,-3,8
1520336658431991,46,59,48,19,9,8,22,14
1520336658445025,13,4,7,4,-2,-6,-4,-26
1520336658445025,-16,-20,-15,-10,-6,-3,-14,-5
1520336658446028,-10,-8,-18,-8,-3,-4,-18,-31
1520336658446028,15,60,26,10,0,2,6,13
1520336658468086,-21,-63,-24,-5,-3,-1,-7,-6
1520336658468086,16,40,18,6,2,1,-1,-4
1520336658469089,-23,-40,-24,-12,-6,-5,6,5
1520336658469089,-43,-32,-22,-10,-3,2,1,-11
1520336658490145,-1,24,5,0,-2,-3,-10,-1
1520336658490145,-8,-17,-3,0,-2,-1,12,21
1520336658491148,3,-16,-9,-4,-1,0,20,14
1520336658491148,-1,-26,-35,-16,-5,-8,-25,7
1520336658505185,83,125,96,44,18,5,-6,23
1520336658505185,-23,-103,-35,-9,-7,-7,-10,-7
1520336658513207,-11,25,17,8,2,1,-6,-18
1520336658513207,9,-36,4,8,3,7,33,25
1520336658528246,-28,42,-13,-14,-6,-1,7,-39
1520336658528246,1,-2,-2,-2,1,-5,-31,-17
1520336658529250,35,24,18,11,8,4,10,11
1520336658529250,-22,-22,-8,-7,-5,-3,-3,-4
1520336658550305,9,-7,-18,-12,-7,-1,-1,5
1520336658550305,0,36,6,1,-6,-7,-8,-14
1520336658551308,-24,0,-7,-6,-2,-1,-8,-26
1520336658551308,2,14,-1,0,0,9,15,-2
1520336658564342,-5,-27,-11,-5,-8,-7,2,4
1520336658564342,6,6,5,8,18,19,75,28
1520336658573367,6,3,-2,-3,-10,-16,-59,-43
1520336658573367,-2,-5,0,2,8,2,3,6
1520336658588406,2,10,4,-1,1,7,18,2
1520336658588406,2,-1,3,1,-4,-4,-20,0
1520336658588406,-7,-16,-3,-2,0,3,3,-3
1520336658588406,-2,-4,-5,-5,-7,-5,8,9
1520336658610465,-15,-27,-22,-9,-6,-4,-13,-8
1520336658610465,-8,-11,-4,4,0,-4,-16,-18
1520336658611468,0,0,1,4,3,4,17,16
1520336658611468,2,10,3,2,-5,-1,-10,2
1520336658624502,-11,-24,-13,-6,3,3,25,2
1520336658624502,2,-2,-7,-4,-1,2,-1,9
1520336658633527,5,0,3,2,2,5,-2,-3
1520336658633527,-6,-6,-3,-3,0,-7,-15,-6
1520336658648566,-12,-20,-2,-3,-7,-7,13,5
1520336658648566,0,-2,-1,-5,-33,-3,-1,-10
1520336658648566,-5,-2,-3,-3,17,8,10,7
1520336658648566,-4,-3,-11,2,30,-12,-27,-24
1520336658670625,0,-5,1,9,13,7,-1,3
1520336658670625,10,7,7,5,17,7,2,9
1520336658671628,-5,-3,-8,-7,-26,-6,10,-21
1520336658671628,-6,1,7,-1,-12,2,-5,6
1520336658684662,-6,-10,-1,2,3,-1,4,-2
1520336658684662,-2,-11,-7,-7,-10,-5,-21,-11
1520336658692684,5,-1,5,3,-1,1,3,22
1520336658692684,7,20,-3,-3,-2,-1,7,1
1520336658707724,1,5,-2,3,-4,-2,-5,-19
1520336658707724,4,-2,-4,-1,0,0,-2,0
1520336658708727,5,4,1,3,4,0,34,20
1520336658708727,-11,-18,-10,-6,-4,-1,-28,-36
1520336658730785,3,-5,3,-1,-10,-6,-20,16
1520336658730785,-15,2,1,-2,6,13,40,-12
1520336658731788,-7,-7,-7,-3,0,-7,-36,-15
1520336658731788,10,-2,4,-1,-9,2,27,13
1520336658744823,-4,-3,-5,-3,3,3,-12,-13
1520336658744823,-6,-6,1,3,3,-7,3,12
1520336658752844,3,0,-7,-5,-7,-5,-4,-7
1520336658752844,-1,1,1,4,0,12,20,22
1520336658767884,0,-4,-1,-3,2,-7,-7,7
1520336658767884,1,4,-1,-1,0,-4,1,-8
1520336658768887,-7,0,0,1,0,2,-2,3
1520336658768887,-1,-1,-1,0,-3,-5,-12,-18
1520336658790945,0,1,3,3,4,-1,-8,1
1520336658790945,6,-5,-2,-2,3,10,45,18
1520336658790945,-2,-9,-8,-7,-2,-8,-49,-14
1520336658790945,4,-7,-7,-4,-4,-9,3,17
1520336658814007,-4,3,-1,-2,-1,2,12,-19
1520336658814007,-6,-4,-1,0,-2,-7,-55,-9
1520336658815009,3,2,4,2,-4,0,10,24
1520336658815009,2,1,-6,-3,0,9,23,4
1520336658828044,-5,-11,-2,2,2,0,27,-13
1520336658828044,6,4,-1,-2,-6,-5,12,8
1520336658829047,-4,-6,2,0,5,0,-32,-23
1520336658829047,0,6,5,2,-2,-3,-12,7
1520336658850103,-10,-9,-3,-2,-4,4,7,115
1520336658850103,-6,-13,-2,-3,0,-6,-15,4
1520336658851105,10,8,-1,0,2,4,25,-2
1520336658851105,-2,-3,-6,-2,-1,-2,17,-45
1520336658874167,3,26,9,3,0,-3,-14,-62
1520336658874167,10,9,-1,2,3,8,-14,-10
1520336658874167,4,17,7,2,-4,-3,2,-8
1520336658874167,-4,-14,-4,-2,0,-5,-7,-26
1520336658888204,-2,-13,-2,1,0,3,-7,-15
1520336658888204,-2,-5,-9,-5,-5,-14,-60,-31
1520336658889207,3,-4,2,2,0,4,38,13
1520336658889207,4,7,1,2,2,3,-9,-7
1520336658910263,-2,-1,-1,-1,-3,-7,-10,-8
1520336658910263,1,-3,0,0,4,10,25,13
1520336658911267,7,3,1,-2,-2,3,21,6
1520336658911267,-5,12,9,5,-3,-9,21,22
1520336658933324,-1,-15,-13,-4,1,2,-33,-32
1520336658933324,-1,4,-2,3,1,-2,-9,-8
1520336658934327,0,-3,-3,2,0,-2,3,10
1520336658934327,1,-5,1,-3,-3,0,19,27
1520336658948364,3,3,-6,-6,-4,-1,0,-13
1520336658948364,-6,12,2,-3,-3,-3,1,-11
1520336658948364,-4,-16,1,-3,-2,-1,-13,3
1520336658948364,2,12,4,0,0,3,-7,-7
1520336658970423,-10,-9,-3,-2,-4,-5,-11,-23
1520336658970423,-2,-6,2,1,1,2,13,7
1520336658971426,0,-7,-7,-2,-5,-4,11,-8
1520336658971426,-4,-12,-4,-4,0,1,-34,-14
1520336658993484,8,3,6,2,3,6,7,27
1520336658993484,3,4,0,-1,-2,-5,1,1
1520336658994487,-6,0,1,0,-2,-5,-20,-20
1520336658994487,4,-5,-6,-2,0,7,33,18
1520336659008524,-6,-5,-5,-6,-8,-9,-8,-10
1520336659008524,-1,-2,4,4,2,6,11,3
1520336659008524,-7,0,-3,-3,1,-2,-14,-6
1520336659008524,-7,-6,-3,-1,0,-1,-8,-3
1520336659030583,10,4,5,0,1,3,12,16
1520336659030583,-2,-3,2,-2,-2,-2,2,-4
1520336659031586,-5,-20,-3,0,0,-1,-2,-4
1520336659031586,1,18,4,4,-1,0,0,-1
1520336659053644,3,3,0,4,2,-1,-8,-5
1520336659053644,4,-9,-4,-4,-3,-2,7,13
1520336659054647,2,26,11,2,2,5,21,21
1520336659054647,-12,-25,-7,-1,-1,-7,-62,-27
1520336659067681,-3,-1,-2,0,-2,-5,-16,5
1520336659067681,2,-2,-5,-3,-2,-4,12,-3
1520336659068685,13,-2,-3,-1,0,0,3,6
1520336659068685,6,7,0,0,-2,1,16,6
1520336659090743,0,2,-1,-2,-4,-6,-7,0
1520336659090743,-11,-5,-3,-1,2,6,20,3
1520336659091746,-11,-18,-9,-7,-5,-5,-22,-16
1520336659091746,2,5,10,7,4,7,18,8
1520336659112802,3,1,3,5,3,-2,-13,-13
1520336659112802,-4,-7,-7,-5,-5,-5,-10,0
1520336659120823,8,8,4,3,1,1,16,13
1520336659120823,0,-9,-3,-1,1,-5,-24,-3
1520336659127841,-3,-3,-2,-1,-2,-3,9,3
1520336659127841,-4,0,-1,2,-1,-1,-5,-8
1520336659128844,-13,-19,-14,-7,-5,-3,-7,-6
1520336659128844,21,50,16,3,1,3,15,20
1520336659150903,-5,-6,-4,-2,-2,1,13,-4
1520336659150903,1,0,-4,-2,-1,-3,-13,-12
1520336659150903,-2,-7,1,2,2,5,14,3
1520336659150903,-11,-37,-20,-11,-5,-10,-40,-15
1520336659173964,-1,11,-2,-3,-1,2,9,-2
1520336659173964,7,8,5,0,-4,-4,-5,1
1520336659174967,3,9,5,5,5,4,-10,3
1520336659174967,1,-11,-5,-1,-2,-2,21,7
1520336659188001,-10,0,-5,-7,-3,-1,-8,-16
1520336659188001,-7,-14,-6,-4,1,5,10,4
1520336659189004,4,25,6,-1,-3,-6,-15,-15
1520336659189004,3,7,-1,-4,-4,-6,-13,2
1520336659210060,3,-3,2,0,0,4,35,7
1520336659210060,-3,-2,1,-2,-1,-4,-29,-7
1520336659211063,3,9,9,3,0,-2,-12,-11
1520336659211063,-1,7,3,2,-2,4,13,6
1520336659234124,6,3,3,3,2,-1,-8,8
1520336659234124,4,0,-2,3,3,1,13,20
1520336659234124,-2,0,-1,-4,-4,-5,2,3
1520336659234124,0,-7,-8,-10,-8,-4,-2,-4
1520336659248161,4,-9,-2,5,5,8,8,10
1520336659248161,-3,8,7,10,5,6,5,-4
1520336659249164,-2,-3,-6,-3,-4,-7,-29,-10
1520336659249164,-3,3,2,10,6,-1,-5,-18
1520336659270220,8,4,-7,2,-1,-5,4,27
1520336659270220,-3,0,-5,-6,-2,-4,-17,-23
1520336659271223,3,3,-2,0,2,1,-8,5
1520336659271223,-8,-6,-2,-8,-5,-3,7,-11
1520336659293282,-9,-15,-1,-7,-4,-2,-17,-10
1520336659293282,6,21,10,2,2,2,4,7
1520336659294284,1,21,9,0,-2,-1,7,-4
1520336659294284,1,-34,-8,-4,-1,-1,-3,0
1520336659308321,8,48,21,6,0,-1,-1,-2
1520336659308321,-8,-13,-7,-1,-5,-2,0,-5
1520336659309324,-3,-8,-3,5,4,4,9,14
1520336659309324,0,5,-2,-2,1,4,21,-7
1520336659330380,7,-15,-2,-3,-2,-1,-9,13
1520336659330380,-2,-6,-6,-7,-2,-1,9,10
1520336659331383,-3,3,0,0,-1,1,6,-8
1520336659331383,-10,-1,-4,0,-1,0,-9,-3
1520336659353442,-8,-13,-4,-3,-4,-1,6,-7
1520336659353442,5,4,-1,-3,-3,1,1,0
1520336659354445,1,-13,-3,5,0,-1,7,2
1520336659354445,-4,1,0,0,4,5,13,1
1520336659368482,-7,-22,-10,-8,-4,-5,-14,-13
1520336659368482,-7,-12,12,9,5,2,4,5
1520336659368482,15,25,3,0,-2,-3,3,-4
1520336659368482,-18,26,-3,-2,-4,-1,4,-6
1520336659390540,9,-8,-4,0,1,-1,-6,-6
1520336659390540,7,-3,-3,1,-1,-3,-5,3
1520336659391543,-10,-20,-7,-6,-4,0,-7,0
1520336659391543,3,-1,2,0,0,2,2,7
1520336659413602,-15,-10,-10,-4,-4,-3,-5,-11
1520336659413602,6,11,-5,-3,-2,-5,-18,-14
1520336659414605,-13,-12,-3,1,4,6,32,8
1520336659414605,7,-7,-2,-6,-5,-6,-35,-9
1520336659427639,-6,-8,-9,-7,-3,-4,-11,-14
1520336659427639,-8,-42,-10,-9,-6,1,10,0
1520336659435660,17,57,19,7,4,-4,6,13
1520336659435660,10,26,18,11,5,3,14,15
1520336659450700,-11,-32,-16,-10,-5,-2,-2,-4
1520336659450700,20,81,25,9,1,0,-4,2
1520336659451703,-2,-40,-16,1,0,4,-4,-2
1520336659451703,-7,-34,-13,-8,-4,-4,-10,-2
1520336659473762,12,14,19,10,7,5,7,4
1520336659473762,-11,-20,-17,-10,-5,-3,1,12
1520336659474765,28,39,11,3,2,1,-4,-4
1520336659474765,10,15,14,12,5,1,4,1
1520336659487799,-14,-20,-5,-1,-3,1,19,-6
1520336659487799,-22,-34,-19,-6,-1,-2,-27,-14
1520336659495820,-5,-22,-6,-6,-3,-5,-9,-2
1520336659495820,-3,0,-2,-3,-3,-3,-6,-3
1520336659510860,1,9,-1,-5,-1,-1,-7,-2
1520336659510860,0,5,6,3,3,5,19,3
1520336659510860,-1,17,8,0,-1,0,-4,-4
1520336659510860,-4,-4,4,0,-2,-1,13,5
1520336659533922,-21,22,-4,3,-2,-4,4,-9
1520336659533922,8,-18,2,3,0,-5,-28,-19
1520336659534925,-13,-44,-22,-12,-7,-4,-9,-13
1520336659534925,29,62,19,5,-1,-1,5,10
1520336659546956,-28,-23,-9,3,1,2,0,1
1520336659546956,-11,5,1,1,-2,-4,-5,-13
1520336659555980,-9,4,-7,-5,-3,-4,-20,-12
1520336659555980,-31,-33,-14,-4,0,8,34,-11
1520336659571020,18,16,8,2,1,-3,-38,-8
1520336659571020,14,-5,-5,-5,-3,-5,5,3
1520336659571020,-11,-32,-12,-3,-3,-3,4,6
1520336659571020,1,12,3,1,-1,-4,-5,3
1520336659594082,9,-15,-9,-5,-4,-4,5,22
1520336659594082,-21,-30,-13,-3,-2,-2,-7,-38
1520336659594082,-13,-43,-9,-2,-1,4,5,-8
1520336659594082,8,56,13,3,3,1,-12,-2
1520336659607116,19,32,7,2,1,1,13,9
1520336659607116,6,-32,-15,-6,-2,-1,5,15
1520336659615138,-26,-5,0,-3,0,-2,2,-3
1520336659615138,29,-18,-4,0,-2,1,13,3
1520336659630178,-21,-10,-7,-7,-6,-10,-10,-10
1520336659630178,-4,11,4,1,2,9,-2,2
1520336659631181,45,62,29,8,2,-3,7,-4
1520336659631181,4,-64,-17,-4,-1,-4,-31,-11
1520336659653239,-9,2,4,-4,-3,-1,18,20
1520336659653239,4,-2,10,2,1,3,43,15
1520336659654241,-24,2,-8,-6,-2,0,-66,-19
1520336659654241,-8,-14,-9,-8,-9,-8,-15,-12
1520336659667276,11,9,5,5,7,13,26,4
1520336659667276,-16,-36,-11,-6,-1,-5,-17,9
1520336659675298,13,44,19,6,4,6,26,6
1520336659675298,-15,20,0,-4,-1,-5,-14,-4
1520336659690338,33,19,11,4,0,1,-9,7
1520336659690338,9,14,2,-2,-6,-4,8,6
1520336659691341,-4,-26,-5,3,-1,-2,21,6
1520336659691341,-14,-17,-4,2,-1,3,-15,-6
1520336659713399,-11,9,3,3,-4,-11,-51,-40
1520336659713399,18,-16,1,-2,-1,-2,-6,-2
1520336659713399,10,43,0,-5,-4,-4,6,12
1520336659713399,-14,-19,-10,-2,-3,-4,-8,-16
1520336659727436,0,-31,-2,2,5,12,30,15
1520336659727436,2,5,-2,0,-7,-10,-25,-20
1520336659735458,-15,-29,-7,-3,1,-2,-23,-6
1520336659735458,2,-5,-5,-5,-1,4,25,18
1520336659750498,9,8,4,-1,0,-5,-28,-4
1520336659750498,1,27,10,-1,-5,0,19,7
1520336659751501,-12,-18,-9,-23,-12,-4,-2,-3
1520336659751501,1,9,13,29,15,0,20,1
1520336659773559,-5,-11,-2,4,10,8,-17,-17
1520336659773559,-5,15,3,9,0,1,56,21
1520336659773559,7,-11,-14,-4,-4,-6,-54,-17
1520336659773559,-2,-11,-7,-16,-8,-3,-3,4
1520336659796621,-12,1,-1,-3,-3,-2,3,7
1520336659796621,-2,28,11,0,-2,1,7,-9
1520336659796621,1,-10,-1,1,-2,-2,16,12
1520336659796621,3,-7,-2,-2,-2,1,15,10
1520336659810658,5,4,2,0,-4,-6,-15,-21
1520336659810658,-5,1,-1,-5,-17,-2,-13,-14
1520336659811661,11,-9,-1,6,26,14,33,22
1520336659811661,-3,-1,-9,-6,-8,-2,-50,-24
1520336659832717,-7,-18,-9,-2,13,-2,4,2
1520336659832717,1,3,10,6,5,5,11,10
1520336659833719,-6,-12,-7,-3,-10,-7,-20,-12
1520336659833719,-3,-1,2,-1,-4,2,20,7
1520336659855778,-2,0,1,-3,-6,1,27,20
1520336659855778,-7,-9,-6,1,-3,-3,-5,-5
1520336659856781,5,3,0,2,0,-11,-42,-17
1520336659856781,-9,1,-4,-1,3,0,-4,-7
1520336659870818,5,3,6,5,1,6,12,13
1520336659870818,-4,-4,-7,-2,8,-7,-32,-17
1520336659871821,-2,-11,4,8,-2,2,44,8
1520336659871821,8,5,10,3,10,8,27,5
1520336659893879,1,6,-2,-3,-12,-10,-32,-3
1520336659893879,7,2,1,4,7,1,-3,-6
1520336659894882,-8,-1,4,3,-4,1,32,13
1520336659894882,-2,-11,-12,-12,-15,-10,-34,-11
1520336659915939,1,3,2,3,20,13,42,22
1520336659915939,6,6,-3,-1,-2,3,8,8
1520336659916941,-6,-3,4,6,9,-1,2,-6
1520336659916941,2,1,6,3,-2,-4,7,19
1520336659930978,-2,-9,-11,-5,-7,0,-11,-14
1520336659930978,-1,3,1,-4,0,0,22,7
1520336659930978,-5,-12,-6,-3,-7,-3,-43,-8
1520336659930978,-1,-5,-7,-9,-1,-3,-13,-2
1520336659953037,7,16,16,11,-5,-3,-5,0
1520336659953037,-9,-19,-16,-5,0,1,0,-10
1520336659954040,6,14,6,9,4,6,1,3
1520336659954040,0,0,-8,-5,-1,-6,3,9
1520336659976098,-3,-3,-5,-8,-6,5,4,-1
1520336659976098,-3,-7,3,1,2,1,-2,-5
1520336659977101,-3,-5,-8,-5,-4,-4,-13,-24
1520336659977101,-5,1,4,3,1,-3,-8,-7
1520336659990135,-4,-9,-10,-9,-12,-2,54,-1
1520336659990135,3,12,6,-1,-2,-7,-74,8
1520336659991138,-3,-3,-3,-2,1,4,27,1
1520336659991138,-5,1,3,1,-6,1,35,14
1520336660013197,-6,-31,-14,-4,6,-14,-70,-34
1520336660013197,12,7,-4,0,9,17,16,19
1520336660014200,14,43,13,1,0,1,-12,0
1520336660014200,-2,1,0,0,-2,-2,-13,-9
1520336660036258,-11,-36,-2,-1,-6,-1,28,7
1520336660036258,3,34,8,6,-4,-5,16,13
1520336660037261,-8,-24,-8,-2,-2,-6,-27,-19
1520336660037261,-1,-10,-2,-1,3,8,33,16
1520336660050295,7,23,2,-2,-3,-8,-22,-7
1520336660050295,-5,-25,-12,-6,1,-4,-6,-8
1520336660051298,-2,7,4,-1,-6,-7,52,36
1520336660051298,-3,-3,-1,4,3,-11,-23,-19
1520336660073357,-8,-8,-10,-2,-3,-1,5,1
1520336660073357,1,0,5,3,7,9,-11,6
1520336660074359,1,0,-2,-5,-7,-9,-64,-35
1520336660074359,-22,-12,-8,-4,18,21,40,-5
1520336660096418,18,11,8,2,-4,-5,16,-1
1520336660096418,-50,-55,-18,-7,-6,-4,-4,-6
1520336660097421,47,49,9,-3,-9,-7,34,6
1520336660097421,49,63,21,4,6,5,9,10
1520336660110455,-31,-12,7,8,3,-1,-17,-9
1520336660110455,19,47,12,5,6,9,21,-19
1520336660111458,-6,-24,-17,-6,-5,-7,-20,32
1520336660111458,-7,-24,0,7,-2,2,37,-4
1520336660133517,-20,-14,-17,-8,-7,-8,-20,44
1520336660133517,-6,-10,-4,-4,-7,-17,-59,-9
1520336660133517,-5,-23,-9,-4,5,5,17,21
1520336660133517,-1,10,-7,-18,-30,-17,-12,-6
1520336660156578,15,3,2,4,11,19,20,-3
1520336660156578,-4,-4,2,-3,-24,-18,4,12
1520336660156578,-3,6,5,21,49,21,-28,-2
1520336660156578,-13,-18,-7,-4,-11,1,50,-1
1520336660170615,5,-37,-11,0,8,-3,49,-61
1520336660170615,28,78,22,-1,-6,-1,-68,35
1520336660171618,28,-10,1,2,-2,4,50,57
1520336660171618,5,-34,-11,-5,-2,0,-13,-15
1520336660192674,-31,-2,7,-3,-3,-1,-43,-27
1520336660192674,25,52,15,14,11,3,43,3
1520336660193677,-75,-94,-19,-6,-10,4,-2,-30
1520336660193677,19,38,3,8,9,0,-29,0
1520336660215735,36,3,-9,-6,-7,-1,14,-15
1520336660215735,-7,-53,-17,-11,-3,2,60,-18
1520336660216738,-9,26,12,-3,-14,-13,-58,31
1520336660216738,-5,-36,-17,-8,-5,-10,-21,-10
1520336660230776,4,19,5,-3,-2,-5,-3,20
1520336660230776,-15,3,-3,2,5,6,25,-2
1520336660231778,-8,-33,-12,-5,-13,-10,-8,-48
1520336660231778,24,56,21,9,-2,0,17,16
1520336660252834,-15,-25,-22,-10,14,10,-32,10
1520336660252834,13,50,31,9,9,2,0,-23
1520336660253837,39,67,4,-5,-6,-4,28,-25
1520336660253837,-28,-11,6,3,5,2,-22,-80
1520336660275896,13,-34,3,3,-13,-10,2,-50
1520336660275896,9,67,33,17,12,19,13,-14
1520336660276898,-14,-96,-30,-8,-2,-4,-8,-9
1520336660276898,6,62,18,2,3,1,-8,98
1520336660290935,-22,-30,-13,-5,-4,-2,7,45
1520336660290935,-15,-118,-42,-21,-6,-8,-21,25
1520336660290935,14,48,18,5,-1,-1,12,41
1520336660290935,-13,0,2,0,3,0,-11,-14
1520336660312994,-1,13,2,3,4,6,16,30
1520336660312994,-16,-44,-22,-5,-6,-1,11,11
1520336660313997,-17,-17,-10,-6,-3,-6,-41,-47
1520336660313997,-3,-65,-25,-8,-1,-1,11,28
1520336660336056,-14,49,15,3,-1,1,-10,1
1520336660336056,16,69,35,11,7,11,16,37
1520336660337058,4,-12,4,5,1,2,37,-6
1520336660337058,-7,-38,-10,-1,2,4,5,21
1520336660350093,12,5,2,0,-3,-6,0,-23
1520336660350093,-42,-128,-56,-23,-10,-4,-36,-38
1520336660358114,32,31,19,12,8,8,26,46
1520336660358114,-8,10,9,1,-2,-6,-1,0
1520336660373154,18,42,12,5,1,7,7,18
1520336660373154,-7,-48,-11,-5,-6,-8,-7,-50
1520336660374157,-23,-28,-14,-8,-4,3,18,-52
1520336660374157,-26,-20,-9,0,2,-1,-17,-9
1520336660396216,-4,-7,-5,-3,-4,-6,-7,9
1520336660396216,56,47,21,8,-1,-3,18,26
1520336660397218,-9,-4,-6,-7,-5,2,-8,-7
1520336660397218,10,12,4,1,-1,-5,-14,13
1520336660410253,-27,-44,-7,-3,-1,3,-30,-53
1520336660410253,58,94,27,7,-1,-15,-49,26
1520336660418274,-22,-26,-6,1,2,7,3,19
1520336660418274,11,-56,-19,-8,-4,-5,-13,-13
1520336660433314,-26,-90,-36,-17,-6,1,28,50
1520336660433314,39,24,52,29,15,9,21,31
1520336660434317,16,-16,1,3,-1,-5,-2,3
1520336660434317,-11,3,6,1,-1,3,-7,3
1520336660456376,-24,-30,-15,-4,-4,-5,-3,18
1520336660456376,-32,-33,-31,-13,-5,-4,6,-10
1520336660457378,-4,-20,-11,-7,-2,-2,6,1
1520336660457378,53,71,28,12,4,2,1,-3
1520336660469410,-10,-65,-22,-9,-3,3,35,-8
1520336660469410,-10,34,20,4,1,-11,-70,-45
1520336660478434,-6,5,3,-4,-7,5,17,-12
1520336660478434,-38,-5,3,5,1,1,-12,-37
1520336660493474,35,36,16,1,-5,-7,7,21
1520336660493474,-36,-30,-11,-4,-2,2,27,25
1520336660493474,-43,-83,-40,-16,-8,-10,-25,-15
1520336660493474,19,53,24,8,7,5,28,-5
1520336660516536,6,21,9,4,-1,-2,-24,-21
1520336660516536,-46,-89,-40,-16,-7,-4,-6,-54
1520336660517538,7,-19,-10,-5,-4,-7,0,23
1520336660517538,-42,-109,-32,-11,-1,1,-5,3
1520336660529570,108,127,108,39,17,8,23,27
1520336660529570,-24,-98,-35,-13,-8,-5,-21,-26
1520336660537591,-64,-77,-44,-16,-5,-2,25,3
1520336660537591,46,88,22,5,3,0,-40,-9
1520336660552632,-13,-15,-24,-5,-5,0,21,-14
1520336660552632,-53,-60,-30,-13,-6,-5,-9,-59
1520336660553634,-3,30,24,8,4,10,17,58
1520336660553634,32,49,36,3,-2,-3,8,9
1520336660576696,-19,-46,-2,-2,-1,-7,-34,-8
1520336660576696,-67,-109,-57,-18,-5,0,40,19
1520336660576696,32,78,53,22,4,2,17,-38
1520336660576696,-62,-128,-56,-18,-8,-12,-81,-46
1520336660589730,-2,78,12,3,-1,-2,0,16
1520336660589730,-38,2,9,8,1,-2,14,3
1520336660597752,33,23,33,22,17,20,4,9
1520336660597752,-37,20,3,4,1,0,-2,-32
1520336660612792,11,-34,-11,-2,-1,-1,10,6
1520336660612792,-21,-34,-24,-14,-15,-6,-22,9
1520336660613795,68,119,54,17,4,2,41,-32
1520336660613795,-51,-121,-59,-24,-7,1,-30,-24
1520336660635853,-42,-49,-1,5,9,2,-17,-27
1520336660635853,5,-25,-11,-10,-2,3,19,10
1520336660636856,-5,-42,-33,-16,-4,-10,-27,-13
1520336660636856,-32,-100,-26,-13,-29,-8,12,0
1520336660649890,-10,9,-27,-17,-10,-2,19,2
1520336660649890,13,68,37,16,-13,-3,-30,-20
1520336660657912,55,53,9,13,53,4,-7,12
1520336660657912,-24,-12,2,18,59,16,23,3
1520336660672952,10,40,-1,2,0,-2,3,4
1520336660672952,69,-89,-41,-18,-13,2,20,13
1520336660673955,-11,75,72,19,-15,1,-16,-6
1520336660673955,76,69,23,2,-29,-16,47,54
1520336660696013,-32,26,6,-2,0,10,-9,-7
1520336660696013,10,44,17,8,3,-5,-24,-5
1520336660697016,-55,-88,-33,-10,-17,-4,-13,-65
1520336660697016,33,3,8,3,6,3,23,-3
1520336660719074,-46,-126,-65,-30,-19,-7,6,-44
1520336660719074,104,115,92,37,29,15,-7,15
1520336660719074,1,3,-5,-1,-6,-4,4,38
1520336660719074,-41,-52,-3,-1,-5,0,-5,-20
1520336660733112,11,-68,-20,-11,-1,-4,-15,17
1520336660733112,40,79,33,14,11,9,38,34
1520336660734115,-7,-65,-34,-15,-7,-12,-26,0
1520336660734115,76,82,29,5,-5,-5,-27,19
1520336660756173,-40,-77,-52,-18,-10,-8,-23,-45
1520336660756173,-17,15,-2,-1,2,-7,-7,-8
1520336660757176,-69,-91,-80,-29,-13,-4,-2,-10
1520336660757176,42,61,51,21,7,7,27,56
1520336660779234,-32,-79,-3,1,-4,-7,10,24
1520336660779234,-17,-24,-5,-4,0,4,2,20
1520336660779234,-52,-94,-49,-18,-6,-2,-33,5
1520336660779234,-12,-35,-16,-9,-23,2,13,-7
1520336660793272,32,46,27,13,28,3,-7,18
1520336660793272,-39,-83,-30,-3,7,-5,-1,-14
1520336660794274,29,41,48,17,-19,-2,-1,7
1520336660794274,-66,-128,-55,-7,25,4,15,-18
1520336660816333,19,-12,15,8,-20,-12,-43,3
1520336660816333,50,72,48,16,19,9,36,21
1520336660817336,-5,-25,-10,-5,7,5,36,-6
1520336660817336,14,33,10,0,-22,-9,-44,-27
1520336660838392,-91,-67,-22,-3,15,5,4,-35
1520336660838392,14,-67,-63,-39,-19,-16,-29,-22
1520336660839395,42,69,45,12,-2,5,18,5
1520336660839395,-13,-60,-18,4,7,4,16,1
1520336660853432,0,-97,-21,-3,-4,3,6,11
1520336660853432,-23,-5,-1,0,-4,11,46,26
1520336660853432,20,18,14,1,6,-6,-64,-16
1520336660853432,-28,-35,-23,-10,5,-8,-27,-22
1520336660875491,33,67,32,3,-17,-2,-20,15
1520336660875491,-42,-103,-51,-13,-6,-5,40,-16
1520336660876493,26,17,14,10,10,11,45,23
1520336660876493,-13,18,8,2,0,3,8,-4
1520336660898552,20,10,6,4,2,0,8,-3
1520336660898552,5,-19,-16,-9,-5,-4,-1,17
1520336660899555,38,48,60,17,0,-7,-22,6
1520336660899555,9,-11,8,5,5,8,36,21
1520336660912589,25,14,16,-1,-5,-6,21,10
1520336660912589,-34,-14,-4,-2,-4,-3,-27,-15
1520336660913592,-35,-100,-50,-19,-2,-1,-84,-2
1520336660913592,9,-13,-1,-7,0,0,22,0
1520336660935651,5,83,34,16,9,3,13,5
1520336660935651,36,89,59,27,5,3,6,1
1520336660936653,39,-38,-24,-10,-7,-10,0,7
1520336660936653,-22,-49,-14,-6,-1,-4,1,8
1520336660958712,-6,-56,-30,-14,-8,1,-10,6
1520336660958712,33,62,62,33,9,0,-21,-24
1520336660959715,-29,-60,-7,8,8,4,7,1
1520336660959715,-14,-18,-11,-12,-8,-5,43,18
1520336660972749,37,-6,10,3,3,4,-4,-6
1520336660972749,46,85,51,15,6,3,4,27
1520336660973752,-27,-17,-6,4,5,-7,-40,-47
1520336660973752,8,15,3,4,0,5,33,13
1520336660995811,6,42,-7,-13,-12,-9,-4,10
1520336660995811,-25,-57,-37,-18,-2,4,-41,-6
1520336660996813,-25,3,3,1,2,9,57,8
1520336660996813,2,-1,2,-4,-3,-9,-28,-15
1520336661018872,8,26,7,4,4,4,17,-2
1520336661018872,-35,-123,-41,-10,-6,-6,-22,8
1520336661019875,-7,6,2,-4,-1,9,39,81
1520336661019875,-14,-24,-7,-1,-2,-9,-67,24
1520336661032909,13,-30,-22,-10,-7,1,40,6
1520336661032909,-18,-13,-7,-2,-5,-8,-37,-52
1520336661033912,-5,-8,-7,-5,-3,5,54,-31
1520336661033912,21,34,13,3,-2,-5,-77,-50
1520336661055971,-6,-6,7,6,2,-4,-17,-9
1520336661055971,-16,-27,-13,-6,-4,-2,8,-6
1520336661055971,13,23,-4,5,7,3,9,-4
1520336661055971,3,-8,-6,-6,-14,-1,-1,2
1520336661079032,9,11,11,9,24,-1,0,-2
1520336661079032,-18,-6,-19,-17,-14,-1,3,-19
1520336661080035,-2,-4,7,8,18,-2,-12,7
1520336661080035,-9,-3,-13,-10,-2,-3,22,-21
1520336661093069,3,9,13,11,-6,7,-44,-13
1520336661093069,-44,-75,-42,-17,21,-2,28,-34
1520336661094072,-12,5,-13,-1,-6,-2,-92,-18
1520336661094072,6,11,6,-7,-42,-11,46,-25
1520336661115128,-4,-71,-16,-10,8,11,26,11
1520336661115128,31,72,51,22,16,-2,-31,1
1520336661116131,9,-11,-9,-10,9,-3,13,-7
1520336661116131,24,83,41,21,6,2,-13,7
1520336661139192,1,-4,5,6,-8,2,8,-1
1520336661139192,8,-41,-9,3,-7,2,15,37
1520336661139192,-25,21,-17,-25,-31,-15,13,-41
1520336661139192,19,5,14,5,14,8,2,29
1520336661153229,-2,62,34,17,4,4,-2,-9
1520336661153229,12,30,5,1,-1,6,45,22
1520336661154232,-5,-44,-17,-6,-9,-13,-29,-4
1520336661154232,-18,-56,-37,-17,-4,0,-9,-35
1520336661175288,-6,-4,-3,-1,2,-9,-52,-9
1520336661175288,7,-2,-3,1,-5,-5,-41,-35
1520336661176291,-14,-7,7,3,-4,1,17,-5
1520336661176291,-8,-1,0,5,16,18,29,16
1520336661198349,-8,-12,-8,-3,-3,-11,-18,-18
1520336661198349,9,6,2,-2,-3,5,31,28
1520336661199352,14,-11,-1,-2,-2,0,10,5
1520336661199352,21,6,1,0,6,0,-22,10
1520336661213389,-30,-22,-11,-12,-39,-12,3,-19
1520336661213389,-34,-22,-19,-30,-55,-13,26,6
1520336661213389,16,9,6,22,89,23,-62,-42
1520336661213389,-10,-30,-18,-3,1,-4,2,-4
1520336661235448,21,12,1,0,14,1,10,22
1520336661235448,11,4,9,2,-20,-8,6,27
1520336661236451,-22,-29,1,-6,-29,-4,49,23
1520336661236451,-4,5,0,-1,8,-6,-38,-19
1520336661258509,12,9,-2,5,-3,-2,4,-7
1520336661258509,-7,4,1,4,11,4,-18,-13
1520336661259512,13,1,-4,-4,-14,-2,26,30
1520336661259512,-5,-1,1,5,6,0,-8,15
