timestamp,emg1,emg2,emg3,emg4,emg5,emg6,emg7,emg8
1530606737962634,-6,-3,-1,-18,-49,3,51,-22
1530606737962634,-19,-12,-12,26,63,31,-30,-46
1530606737964622,5,-41,11,2,-18,-73,-7,39
1530606737964622,0,41,10,-9,-86,65,12,15
1530606737976589,21,-109,-22,1,53,-36,-111,-79
1530606737976589,-29,99,30,-39,-62,10,22,1
1530606737985565,-14,-36,-10,2,-38,28,-69,75
1530606737985565,38,-87,-14,8,44,34,-9,-79
1530606738000525,2,-19,-4,-1,-15,-30,66,-30
1530606738000525,-20,-14,-10,-14,-70,-48,-68,-90
1530606738002520,3,41,18,16,-16,-46,98,68
1530606738002520,12,10,2,-3,44,-26,-52,-33
1530606738023463,8,-12,-11,-6,44,84,114,93
1530606738023463,13,16,4,10,14,-22,-33,-81
1530606738024461,-50,2,-5,22,98,12,-14,-42
1530606738024461,15,-121,-32,-12,-18,-41,44,81
1530606738036429,15,127,73,15,-6,0,-69,-107
1530606738036429,5,-125,-11,3,40,10,-60,71
1530606738045407,5,-97,2,-4,-42,-86,44,-19
1530606738045407,0,-19,-13,0,79,51,-123,-5
1530606738060365,-20,11,-18,-16,-126,-27,90,33
1530606738060365,6,53,7,24,-19,-11,2,78
1530606738062367,9,-21,-15,-20,-59,-35,-73,-128
1530606738062367,5,33,4,-8,39,-42,27,31
1530606738083304,11,-4,-13,-3,15,0,-11,76
1530606738083304,-57,-34,0,11,26,7,59,-66
1530606738084301,17,103,35,-2,28,115,94,9
1530606738084301,51,-63,-8,6,-17,-46,-18,-30
1530606738096269,-29,13,3,0,-17,24,10,56
1530606738096269,-11,-9,-9,-4,26,-85,-31,-28
1530606738105245,-9,10,-4,-1,30,45,8,18
1530606738105245,13,-41,1,-16,-33,-11,-20,-128
1530606738120205,-3,66,4,7,85,-7,96,71
1530606738120205,-13,-62,-7,3,-16,105,-16,17
1530606738123197,0,-38,-18,-2,5,18,31,-85
1530606738123197,0,37,10,13,-39,-111,55,67
1530606738143143,2,-105,-20,-31,-110,26,-82,31
1530606738143143,-16,65,16,-22,59,85,88,23
1530606738145140,-5,13,-8,24,-4,26,46,96
1530606738145140,-11,-19,-2,13,-27,-82,-43,-13
1530606738157106,-24,-5,15,3,41,-55,-95,-24
1530606738157106,25,55,9,-3,-22,31,88,27
1530606738166082,53,-25,-5,-23,-53,47,15,53
1530606738166082,-23,96,12,26,88,-66,127,71
1530606738180045,8,-46,13,17,-9,0,-24,-127
1530606738180045,1,-39,-4,-27,-41,108,-91,-57
1530606738182040,-3,25,-7,-1,-8,-87,-117,-103
1530606738182040,-14,-62,-17,-15,-26,20,-33,81
1530606738202983,7,17,9,6,-33,-103,75,29
1530606738202983,7,-91,-13,13,7,46,38,72
1530606738204978,-9,59,8,3,84,80,-62,56
1530606738204978,22,23,-7,-12,-62,-26,-33,-35
1530606738216946,-13,13,7,18,69,-62,79,79
1530606738216946,-16,-83,-17,-1,-117,-78,-102,-69
1530606738225923,12,44,12,13,105,68,122,115
1530606738225923,-7,17,10,11,-14,-14,2,34
1530606738240882,-9,-72,-15,-2,-16,10,-31,-26
1530606738240882,25,86,0,-7,-20,-98,73,-41
1530606738241880,-17,37,19,-1,-60,8,26,-41
1530606738241880,0,-11,8,2,-40,21,39,-65
1530606738262823,43,-94,-15,-3,38,87,106,95
1530606738262823,-49,127,25,-7,99,4,-73,37
1530606738264818,54,-107,-15,12,-81,2,8,-86
1530606738264818,0,23,19,23,25,-6,-27,66
1530606738276786,-9,-62,-22,-17,-7,-15,18,-31
1530606738276786,36,18,24,32,6,1,105,53
1530606738285762,1,31,-14,-19,15,-108,11,26
1530606738285762,12,22,16,-2,-24,63,80,33
1530606738300722,-20,23,-11,-2,-20,7,-17,3
1530606738300722,10,-70,-20,-16,-47,31,-21,93
1530606738301720,-25,2,23,28,-58,-39,-6,-55
1530606738301720,-12,-15,-10,-22,52,75,61,-69
1530606738322663,-6,53,-4,-2,-49,-18,-117,9
1530606738322663,3,-27,-6,1,14,-108,91,86
1530606738324658,-24,-111,-16,-13,72,78,-96,-69
1530606738324658,-49,111,26,10,-64,-48,63,60
1530606738336626,66,-13,-16,-30,19,43,23,-88
1530606738336626,-2,-77,-29,-8,-24,-61,-50,6
1530606738345602,-29,-3,18,12,-15,-30,39,57
1530606738345602,17,-2,-7,-5,-35,-5,60,25
1530606738360562,-26,27,3,-9,54,1,-94,-83
1530606738360562,-15,6,-2,-3,23,3,29,11
1530606738362557,28,-30,-14,-10,-46,-10,16,41
1530606738362557,-22,-23,-5,-15,-109,-42,-63,-60
1530606738382503,-28,-21,9,9,-128,-19,-31,28
1530606738382503,39,31,-4,-8,-24,107,78,-11
1530606738384499,-19,-8,1,3,-79,-52,-50,50
1530606738384499,9,41,-9,-11,86,22,18,47
1530606738396466,19,102,8,9,-28,-51,-12,-64
1530606738396466,11,0,6,-7,53,47,-8,1
1530606738405442,-23,-1,-8,-8,3,-20,-71,-20
1530606738405442,7,-118,-19,-9,13,10,21,15
1530606738419404,-15,18,2,0,-2,-7,110,27
1530606738419404,-19,1,-7,-5,-6,-34,-67,-102
1530606738426386,25,49,18,15,91,46,101,17
1530606738426386,-27,-62,-26,-1,99,15,-15,-23
1530606738443340,5,36,12,-12,-68,43,74,111
1530606738443340,25,19,7,12,-33,-17,-102,-63
1530606738444338,-1,2,1,-9,13,-6,3,-2
1530606738444338,-7,-98,-2,23,95,44,17,42
1530606738465282,11,70,8,13,-13,-66,21,-15
1530606738465282,-10,17,-7,-20,-27,-8,-9,-12
1530606738467277,-18,-6,-12,-18,-46,3,9,25
1530606738467277,24,37,12,-6,17,-36,-39,-3
1530606738480242,13,-93,-22,0,-26,45,86,6
1530606738480242,-4,69,8,3,50,-32,-99,-62
1530606738486226,-30,-29,-10,-15,-109,-9,28,10
1530606738486226,18,97,18,0,2,-16,-20,-56
1530606738503181,39,-54,4,5,45,12,-18,52
1530606738503181,10,-13,-11,6,31,15,36,9
1530606738504178,-91,-90,-18,-11,-12,-36,39,-3
1530606738504178,24,121,-2,1,-9,26,2,7
1530606738525122,20,24,6,-17,-22,8,-11,-37
1530606738525122,1,-49,8,34,18,-28,6,22
1530606738527117,32,23,2,25,59,20,31,-18
1530606738527117,-50,-72,-12,-7,-52,11,-1,5
1530606738540082,-9,29,8,19,82,2,-57,-35
1530606738540082,-13,11,7,-15,-34,-43,52,56
1530606738547063,40,-13,0,-3,19,31,-14,18
1530606738547063,-17,-75,-15,-9,19,21,-97,-83
1530606738563020,8,92,19,7,-16,-46,-10,57
1530606738563020,-22,-55,-7,-5,4,32,74,35
1530606738565015,17,92,24,-18,-50,-18,-22,-30
1530606738565015,36,-103,-15,20,41,50,118,95
1530606738592940,-76,87,-5,-13,-18,-72,-128,-87
1530606738592940,-19,-82,-7,-3,-67,30,10,10
1530606738594935,33,-25,-6,-1,97,38,9,-3
1530606738594935,16,-22,7,-5,-65,-31,17,20
1530606738599922,-5,-71,-23,-1,21,1,17,16
1530606738599922,-47,49,15,15,6,-30,-9,6
1530606738606903,33,12,1,0,76,49,1,-17
1530606738606903,-6,27,-3,-20,-33,-10,-27,-29
1530606738622861,12,-26,8,6,11,-34,3,-30
1530606738622861,9,-62,-18,19,102,30,-99,5
1530606738624855,-27,74,-11,2,2,-2,-16,-65
1530606738624855,38,86,32,16,47,-38,45,-6
1530606738645799,-22,-127,-44,-49,-82,-27,89,58
1530606738645799,39,127,56,29,74,74,40,-21
1530606738646797,-2,-102,-15,-3,-15,-54,17,64
1530606738646797,-34,-23,-7,-8,-30,-31,-27,-42
1530606738659762,-28,-80,-2,6,-67,-39,-32,-1
1530606738659762,12,-21,-17,-8,-41,-13,50,31
1530606738666743,14,27,-2,-4,46,7,-69,-104
1530606738666743,-15,50,16,4,-86,7,89,61
1530606738682700,-4,-25,3,-1,-62,17,-19,37
1530606738682700,-8,-65,-16,-4,76,64,58,-24
1530606738684695,4,40,-3,-15,-13,-58,32,34
1530606738684695,4,90,24,9,-41,15,-108,-42
1530606738705639,14,-1,-1,10,75,92,70,-28
1530606738705639,-4,-21,-15,-9,-27,-37,-23,-1
1530606738707634,-24,-37,-7,-5,-26,15,-22,-7
1530606738707634,17,8,-4,-4,-58,-87,2,30
1530606738719602,5,18,8,14,47,69,-11,14
1530606738719602,-15,16,-2,-16,31,32,-79,-47
1530606738728578,-3,7,-5,11,-12,-39,47,28
1530606738728578,7,13,7,2,71,2,68,-20
1530606738742540,21,21,7,-3,-31,17,-8,-20
1530606738742540,27,-58,-14,-16,-25,-31,49,46
1530606738744536,-43,72,1,-6,2,-2,-25,-22
1530606738744536,3,-49,-3,9,32,-11,27,2
1530606738765479,2,43,-3,1,-28,-11,-44,-17
1530606738765479,-4,-15,-10,-11,-2,32,-25,2
1530606738767474,2,-29,5,0,-26,13,25,-11
1530606738767474,-7,-64,-13,-3,-16,-1,-12,-28
1530606738779442,11,34,2,8,67,-35,16,39
1530606738779442,-5,17,7,-17,-86,-33,30,6
1530606738788418,25,-39,-7,3,-21,-1,-128,-32
1530606738788418,-6,65,13,10,-55,2,72,19
1530606738803378,-23,-46,-12,-10,-86,71,15,-50
1530606738803378,2,32,-1,3,41,-8,-15,1
1530606738804375,6,-25,6,-14,-63,-73,43,78
1530606738804375,-9,-44,-21,3,64,61,-53,-98
1530606738825319,-20,17,4,-2,-9,-28,-39,16
1530606738825319,21,61,22,17,-27,-4,20,72
1530606738827314,-1,48,24,2,66,-4,-88,-57
1530606738827314,21,-80,-18,-16,-66,-30,-45,57
1530606738839281,-3,55,-2,3,73,47,53,-70
1530606738839281,-2,-44,2,5,5,-30,70,50
1530606738848258,-40,-24,-21,-20,-83,-43,-45,-17
1530606738848258,16,70,21,12,121,26,18,46
1530606738863218,11,-66,-7,-8,-26,-4,47,37
1530606738863218,-3,7,-2,0,2,10,45,-15
1530606738864216,-12,13,3,4,9,19,-1,-9
1530606738864216,-28,-63,-16,4,14,3,-23,-31
1530606738885159,-3,25,6,3,13,-18,-20,-2
1530606738885159,1,-21,3,4,8,0,14,-43
1530606738887154,21,95,20,21,1,-31,62,46
1530606738887154,-13,-23,-14,-25,-36,8,-37,17
1530606738899122,-4,-74,-16,-3,-48,31,-21,3
1530606738899122,-31,-15,-10,2,5,-1,29,-26
1530606738908098,36,-44,-1,3,17,20,16,11
1530606738908098,-13,75,5,2,-4,-21,127,62
1530606738923058,-6,-4,-4,-11,35,-41,-48,-5
1530606738923058,-1,-9,0,1,6,-37,-79,-16
1530606738925053,-10,-120,-18,9,-21,32,30,14
1530606738925053,4,116,14,-26,-39,25,55,-48
1530606738945997,16,24,11,13,11,0,-10,-8
1530606738945997,-15,-13,-7,-3,6,-63,-41,-27
1530606738946994,24,-93,3,25,52,46,7,24
1530606738946994,-5,60,8,5,-53,0,-7,23
1530606738958964,16,-40,-11,-8,127,1,-12,-24
1530606738958964,4,48,1,-20,-79,9,3,13
1530606738967938,-24,-31,-5,-4,12,-8,28,13
1530606738967938,4,-52,-5,-5,-40,16,-55,18
1530606738982898,-19,11,8,5,-19,-30,-54,-47
1530606738982898,29,39,1,4,-26,-43,-4,-4
1530606738984897,-10,9,-2,-12,5,7,58,-10
1530606738984897,-15,-89,-12,18,75,74,-55,13
1530606739005837,-2,38,3,-1,4,-30,28,-9
1530606739005837,-7,27,9,15,-24,-37,-75,-34
1530606739006834,24,16,-6,-22,-28,28,-4,-11
1530606739006834,1,-56,6,4,-13,33,6,-41
1530606739018802,30,-4,-15,7,-22,-41,58,29
1530606739018802,-27,0,2,-14,-11,53,-38,22
1530606739027779,17,27,3,2,4,1,42,38
1530606739027779,-34,-59,-13,-6,-9,-57,-65,-41
1530606739042738,-4,21,-3,-27,-60,-10,-44,13
1530606739042738,3,-22,-3,2,-2,12,4,-10
1530606739044744,8,16,-3,22,73,45,-77,-61
1530606739044744,13,33,-4,-2,14,-18,-55,34
1530606739065678,-13,18,17,11,-16,-17,69,18
1530606739065678,7,-21,-13,-12,26,-22,-24,-4
1530606739067673,-12,51,31,5,69,54,64,41
1530606739067673,26,-42,-2,6,32,2,-2,-19
1530606739079639,-21,67,-6,-6,-21,-9,-14,18
1530606739079639,5,-46,-4,-5,-44,-2,1,-9
1530606739088615,11,-3,-7,-1,-27,-15,41,-1
1530606739088615,-1,2,5,-1,-11,-48,-30,15
1530606739102581,12,-1,15,12,63,94,115,76
1530606739102581,-1,-31,-11,8,71,21,54,-60
1530606739104573,-13,-16,-6,-5,-16,-13,1,38
1530606739104573,19,30,6,-12,-43,-26,-8,2
1530606739125517,13,-2,-1,14,28,-3,5,46
1530606739125517,-11,22,-1,-8,-36,12,15,-67
1530606739127512,-11,6,-10,-5,9,-65,-35,5
1530606739127512,-4,54,19,-5,-63,5,43,11
1530606739139479,-16,-70,-9,19,24,73,5,-23
1530606739139479,5,-42,-14,-5,35,-15,-15,51
1530606739148456,-12,47,-1,-5,-4,-6,14,-13
1530606739148456,-5,-16,-6,-20,29,-24,-6,16
1530606739162422,-23,-30,-7,8,-56,-71,-64,-24
1530606739162422,-3,17,1,-10,-20,45,20,12
1530606739169399,13,20,6,1,-4,4,-117,-67
1530606739169399,-24,15,-9,1,9,-18,-40,-41
1530606739185356,15,18,9,-5,92,11,41,55
1530606739185356,-3,-55,-2,6,-6,-28,25,-8
1530606739187352,25,-42,-12,-10,-23,19,49,17
1530606739187352,5,80,-4,2,72,22,-6,-33
1530606739199319,-22,14,14,0,15,-7,2,22
1530606739199319,1,52,9,6,-21,-17,-66,-3
1530606739208295,-10,-44,-4,-2,-44,7,56,-3
1530606739208295,7,-54,-18,-2,-20,-13,-42,-64
1530606739223255,12,-19,-6,-7,-23,-12,-12,8
1530606739223255,-14,28,10,4,9,-6,36,15
1530606739224252,-11,-14,-2,-14,-35,50,90,91
1530606739224252,-3,-6,-10,17,56,-14,-70,-56
1530606739245199,19,32,7,-9,18,28,-21,-2
1530606739245199,16,7,3,14,12,21,-45,-25
1530606739247191,-3,-7,-5,-5,16,-37,5,1
1530606739247191,-7,-99,-6,-7,-42,-14,20,20
1530606739259159,-7,54,-9,-5,-86,-17,21,-78
1530606739259159,5,41,25,12,69,6,44,46
1530606739268140,3,28,3,5,47,-41,-21,-26
1530606739268140,-24,-20,-3,-19,16,54,82,53
1530606739283095,12,-95,-28,-11,-26,3,-56,-72
1530606739283095,17,-51,3,11,68,30,37,75
1530606739285090,-28,99,6,-9,-65,-14,17,-48
1530606739285090,0,28,9,10,21,15,79,49
1530606739305036,-6,-20,-4,-13,-18,-25,-26,19
1530606739305036,-9,-20,-18,-12,-18,-15,-42,33
1530606739307031,12,-15,3,8,10,-45,-70,-88
1530606739307031,-13,-2,7,6,22,36,67,48
1530606739318999,11,-50,-6,3,36,44,-11,5
1530606739318999,2,60,1,-5,52,-46,-60,-18
1530606739327976,-30,-26,-9,-12,-30,5,40,12
1530606739327976,23,46,7,11,26,23,17,-40
1530606739341937,1,-104,-9,-2,64,-8,70,15
1530606739341937,-18,98,13,6,2,-12,-6,-12
1530606739348919,10,-38,-5,2,-52,4,-34,3
1530606739348919,3,-61,-6,1,5,3,-32,-7
1530606739365873,-23,60,17,0,-6,-6,23,-6
1530606739365873,15,-58,-8,2,-13,-36,43,13
1530606739366871,8,19,0,-7,-46,10,-93,-20
1530606739366871,-7,1,2,-1,-63,-4,-35,7
1530606739387815,15,8,0,-3,-12,48,76,51
1530606739387815,-5,-44,-17,-2,-17,-20,-28,-107
1530606739389809,-21,83,25,16,57,4,-88,-8
1530606739389809,-1,-10,-9,-4,34,11,18,-4
1530606739402775,12,16,8,9,13,-23,15,46
1530606739402775,2,-22,-13,-16,-116,-30,5,-41
1530606739408759,-8,-53,-7,-8,5,25,43,18
1530606739408759,6,14,0,10,73,43,-2,20
1530606739425713,10,49,16,-6,-58,-39,-60,-36
1530606739425713,12,22,10,0,11,66,50,12
1530606739426711,-21,-58,-16,1,3,-29,27,12
1530606739426711,-2,-3,7,-6,-29,-39,48,38
1530606739447655,-44,-13,-9,0,21,19,-128,8
1530606739447655,10,-19,-19,-8,13,2,14,-21
1530606739449650,16,18,19,11,5,-1,80,82
1530606739449650,17,30,0,1,-16,-38,9,1
1530606739462616,-4,-25,-1,7,54,2,48,-25
1530606739462616,-17,-37,-14,-9,-48,27,18,63
1530606739469596,-20,-23,-11,6,-37,-51,-79,-78
1530606739469596,-1,39,14,1,-20,59,66,18
1530606739485553,18,-6,-10,-1,22,-4,-47,-34
1530606739485553,-35,-21,-7,-6,-20,-23,49,3
1530606739487548,7,-27,-12,-13,57,12,19,-31
1530606739487548,-6,-61,0,1,-6,-37,-24,15
1530606739507495,-3,119,8,-7,-63,-6,3,-25
1530606739507495,9,-1,10,10,45,-1,15,19
1530606739509490,5,-23,-9,6,17,37,-46,24
1530606739509490,-12,-16,-7,-1,12,-20,-23,-29
1530606739522455,7,10,5,2,-10,5,40,-28
1530606739522455,-2,-28,-2,-6,-27,3,6,23
1530606739529437,21,70,18,1,26,11,-47,-45
1530606739529437,0,4,-7,-3,26,9,2,9
1530606739545394,4,-5,15,19,34,32,69,0
1530606739545394,-16,-8,-7,-9,-68,-38,-24,43
1530606739547388,30,-93,-20,-17,-56,-28,45,37
1530606739547388,-26,96,16,5,29,45,-31,-24
1530606739568332,28,-18,-8,-5,-39,-14,30,37
1530606739568332,-6,4,2,3,27,16,-4,-2
1530606739569330,-29,-21,-8,-7,2,-8,-24,9
1530606739569330,10,-26,-7,-1,32,-39,-35,-65
1530606739582295,1,5,3,-9,-74,-21,33,30
1530606739582295,-4,11,7,11,29,75,-1,-3
1530606739589277,7,-55,-11,-2,20,8,86,49
1530606739589277,-7,48,-9,-4,-12,-32,-28,-97
1530606739605234,-20,16,13,5,7,-9,-27,14
1530606739605234,16,7,5,-2,83,16,-20,-13
1530606739607228,-5,-8,2,9,-45,2,34,18
1530606739607228,5,-51,-10,5,5,9,17,64
1530606739628172,-35,-36,-9,-7,24,-48,-29,-73
1530606739628172,21,41,-1,-13,-11,52,-12,1
1530606739629170,11,39,5,18,52,-13,25,-3
1530606739629170,-5,-54,-6,-6,-54,-10,-40,66
1530606739642135,-7,-38,-4,9,43,-1,-61,-50
1530606739642135,-3,42,4,0,28,4,0,6
1530606739649116,17,34,3,-8,-6,-6,-65,-20
1530606739649116,40,6,7,7,10,-17,95,20
1530606739665073,-59,-106,-22,-20,-26,-20,-38,23
1530606739665073,10,88,25,9,11,-4,18,9
1530606739667068,-3,-8,-3,-1,29,29,-10,-24
1530606739667068,27,-46,-11,-8,-84,-24,17,-1
1530606739688012,-21,74,13,11,58,45,4,29
1530606739688012,-4,-59,-12,7,52,-62,37,-51
1530606739690007,-6,1,-2,-12,-76,38,-29,93
1530606739690007,-17,30,12,1,-32,-7,-22,-88
1530606739701975,34,-32,-20,-37,-33,-5,-30,-19
1530606739701975,3,-15,3,29,40,36,52,63
1530606739710951,2,29,0,13,21,-54,-36,-9
1530606739710951,-12,10,6,-7,31,-22,3,6
1530606739725911,20,-44,-7,-1,-54,28,-51,2
1530606739725911,-3,5,-2,-6,-27,-15,58,86
1530606739726910,28,82,19,-2,0,18,30,-103
1530606739726910,-32,-41,-12,1,20,16,-62,12
1530606739747852,12,40,-7,-7,11,-39,25,23
1530606739747852,27,19,14,-3,-48,-4,11,-48
1530606739749847,-40,-57,-11,0,10,-16,69,99
1530606739749847,1,45,10,1,85,59,61,-25
1530606739761814,28,-20,-3,14,21,-10,-8,-43
1530606739761814,-28,-66,-12,-4,9,-5,-91,-8
1530606739770791,-7,36,4,-4,-83,-46,101,-23
1530606739770791,-17,-29,-13,-13,-32,-1,-85,-55
1530606739785750,29,30,8,15,73,33,14,72
1530606739785750,-15,-29,-3,0,-28,-17,-83,-29
1530606739786748,9,49,10,2,52,27,98,11
1530606739786748,-13,-93,-10,-1,-32,-18,66,44
1530606739807692,9,100,0,-6,10,2,60,44
1530606739807692,-18,-30,-12,-19,-17,-11,-31,-83
1530606739809687,-2,-29,5,27,43,17,8,4
1530606739809687,16,-11,-6,-4,-18,-33,39,89
1530606739821654,-11,-14,-2,28,5,40,-36,53
1530606739821654,-3,59,-7,-20,21,-40,-59,-82
1530606739830631,9,-15,1,-12,-26,-2,-108,82
1530606739830631,-43,22,2,-7,-25,-54,-128,-114
1530606739845591,17,-42,6,8,31,-4,61,68
1530606739845591,1,16,-2,-3,3,47,23,61
1530606739847585,6,-12,-1,3,36,23,14,59
1530606739847585,17,3,5,7,-25,-10,-7,8
1530606739867532,-15,53,-4,-18,-21,-14,-17,-101
1530606739867532,-8,-34,2,8,6,3,-48,12
1530606739869527,-8,2,0,2,18,-20,-15,-13
1530606739869527,45,24,12,3,-9,15,87,59
1530606739881494,-59,-91,-30,-8,-20,-1,-93,-92
1530606739881494,51,105,40,3,-7,15,17,28
1530606739890470,-25,-63,-13,4,-28,-27,-39,-19
1530606739890470,-15,-31,-9,6,27,5,-10,2
1530606739905430,22,-6,10,8,1,6,32,43
1530606739905430,-16,-23,-8,-2,-44,-29,-31,-100
1530606739907426,5,9,-3,-24,-22,-14,-1,55
1530606739907426,-26,-3,-7,-15,-33,38,-34,-106
1530606739928369,11,37,8,-2,51,0,-45,-33
1530606739928369,-29,-42,-16,-2,-5,-26,113,75
1530606739929367,21,17,-2,-10,5,13,-102,-63
1530606739929367,29,36,1,10,27,26,74,61
1530606739941334,2,-43,6,-5,-27,-3,46,-25
1530606739941334,-8,41,-13,-9,5,-16,21,-12
1530606739950310,-16,-13,14,4,84,-2,71,-30
1530606739950310,22,43,-17,-14,-65,-18,-84,37
1530606739965270,-12,-34,15,4,25,19,94,63
1530606739965270,19,19,-3,7,-13,-23,-10,-45
1530606739967265,-11,-37,-14,-12,-4,17,44,22
1530606739967265,-7,49,12,-2,42,18,-17,8
1530606739988209,-15,-5,1,20,-70,-44,16,-39
1530606739988209,16,-44,-10,-2,37,49,-16,41
1530606739989207,14,9,-1,-2,-5,-1,-17,-47
1530606739989207,-10,-16,2,5,39,1,-3,-15
1530606740001174,3,21,-4,-9,-74,-5,1,35
1530606740001174,-22,-11,1,38,-8,-29,-86,-32
1530606740011148,5,-27,2,0,-4,0,7,-7
1530606740011148,40,61,-1,-4,10,-32,-34,47
1530606740025110,-45,-42,-16,-18,-27,25,31,-14
1530606740025110,12,36,17,3,43,17,81,21
1530606740027105,16,-4,4,-1,-38,8,-22,-34
1530606740027105,-25,-32,-8,4,11,-20,62,-8
1530606740048049,22,58,9,-7,-13,1,-74,24
1530606740048049,36,-23,-4,-8,-46,1,31,17
1530606740050044,-29,21,-9,-2,11,7,-65,-44
1530606740050044,5,-50,-2,-3,19,-5,-44,-42
1530606740062012,-4,1,-3,-2,18,-41,-11,-5
1530606740062012,0,-43,3,-10,-37,42,48,18
1530606740070988,-17,30,1,7,6,8,32,7
1530606740070988,0,10,-3,2,-7,-13,61,12
1530606740085948,17,26,8,6,23,6,-69,-21
1530606740085948,-24,-24,-5,3,-11,-20,-25,-71
1530606740086946,42,33,4,-14,-31,-5,38,62
1530606740086946,-23,26,-7,-21,-24,47,-51,-38
1530606740107889,8,10,4,22,28,-3,40,42
1530606740107889,-8,-69,-14,-4,-13,9,8,28
1530606740109884,-17,5,11,5,41,16,59,-4
1530606740109884,25,50,11,13,38,-17,15,12
1530606740121852,-22,-76,-16,-20,-48,-15,12,-16
1530606740121852,-8,35,0,3,64,21,36,5
1530606740131825,1,-61,-10,2,-15,-19,-20,7
1530606740131825,-40,18,-1,-12,-4,-40,-60,-10
1530606740145788,24,25,5,-9,-66,29,73,-5
1530606740145788,8,2,3,0,30,21,79,81
1530606740146785,-43,7,-11,-11,-49,-58,-66,-54
1530606740146785,-1,-75,-4,-3,49,34,40,85
1530606740167729,27,32,-5,0,-12,-4,-39,-72
1530606740167729,-20,-5,-7,-9,-25,-12,3,43
1530606740169724,45,29,14,5,-7,22,106,75
1530606740169724,-5,-18,-11,0,-3,-42,-63,-28
1530606740181691,-42,9,11,8,96,33,86,12
1530606740181691,10,-32,-5,-7,-28,-23,-20,67
1530606740190668,-16,12,4,16,20,5,38,-10
1530606740190668,-14,-43,-6,-14,-38,16,-49,-90
1530606740205627,28,27,6,12,42,14,29,16
1530606740205627,-14,41,8,3,47,11,-42,35
1530606740207623,3,6,-5,-9,12,-25,-72,-10
1530606740207623,17,-7,-1,2,-49,2,43,-27
1530606740227569,-6,-58,-11,-12,-49,10,25,21
1530606740227569,-9,2,7,6,4,-21,-74,-21
1530606740229564,-11,40,-10,-5,-27,-19,-93,-74
1530606740229564,28,-3,9,7,7,38,40,71
1530606740241532,-1,-8,2,0,21,-13,16,1
1530606740241532,-30,-18,-6,-8,-18,-88,40,-56
1530606740250508,9,21,4,3,-10,80,35,73
1530606740250508,-35,9,9,4,7,-16,-40,-65
1530606740264470,6,-11,-11,-5,-13,18,34,61
1530606740264470,18,-7,-7,-11,2,-4,-94,-92
1530606740271451,-1,-42,-12,-2,-11,-12,62,-18
1530606740271451,-8,62,15,20,14,-30,54,44
1530606740288406,6,-47,-18,-22,22,0,-91,-31
1530606740288406,13,21,-2,2,-3,30,16,3
1530606740289404,-6,-40,-6,-7,-31,-44,0,-5
1530606740289404,6,32,8,12,69,64,66,68
1530606740301371,-24,13,5,-3,-40,-32,-50,-19
1530606740301371,17,5,-7,2,0,25,13,-52
1530606740310348,8,14,0,3,37,8,-30,34
1530606740310348,-15,8,8,-7,-27,-35,100,26
1530606740325307,17,-7,-5,10,22,25,10,-8
1530606740325307,-8,-25,-3,-5,-39,2,-47,33
1530606740331292,1,-53,-7,0,3,-14,13,16
1530606740331292,-5,46,-3,-6,-35,-22,-92,-72
1530606740348246,-13,2,3,4,72,-8,74,1
1530606740348246,-2,-14,0,-2,-67,6,57,22
1530606740349244,-15,-45,-15,-3,52,19,-73,-66
1530606740349244,24,36,10,5,-26,-30,-23,20
1530606740370188,-4,-7,3,-1,-90,16,65,64
1530606740370188,-11,2,-1,-7,37,13,-29,-46
1530606740372183,23,30,6,-8,-44,-19,-11,36
1530606740372183,-4,-10,-13,1,-19,27,22,8
1530606740385148,10,2,13,5,0,-43,-27,-4
1530606740385148,-24,1,-2,3,24,-18,74,38
1530606740392129,-1,6,2,-3,-48,50,-26,-35
1530606740392129,33,-31,-14,-11,39,10,37,24
1530606740408086,-10,66,10,6,19,-14,7,-17
1530606740408086,8,-11,-5,-13,-83,-5,-24,29
1530606740410081,-23,-6,-3,-1,35,-17,-1,-61
1530606740410081,-20,-52,-8,0,-11,10,26,-6
1530606740430027,10,-9,-10,-25,-36,-10,-15,-1
1530606740430027,22,31,11,23,44,-6,23,39
1530606740432022,-2,4,9,18,29,30,80,7
1530606740432022,-17,-27,-6,-10,9,-6,43,10
1530606740444987,-2,-4,-15,2,-66,12,-101,-104
1530606740444987,26,18,17,4,100,29,43,33
1530606740451969,-10,0,-6,-8,-23,-17,-2,26
1530606740451969,-5,-27,-4,1,15,15,23,2
1530606740467926,-30,-17,5,1,-11,-38,-26,5
1530606740467926,26,21,-16,-9,-14,-22,-24,-45
1530606740469921,7,-38,11,2,-35,20,41,7
1530606740469921,-19,113,25,8,-7,3,-41,0
1530606740490865,1,-63,-25,-7,40,-10,7,63
1530606740490865,-2,-5,-5,-7,-57,-2,12,-69
1530606740491862,28,1,-2,-1,32,-3,-29,45
1530606740491862,-7,-48,-6,1,-9,9,-67,-58
1530606740504827,8,31,5,2,11,1,-10,-8
1530606740504827,-20,-61,1,-7,3,-5,6,33
1530606740511809,-9,78,-4,-6,11,-18,12,17
1530606740511809,15,-26,0,12,-18,-14,11,-58
1530606740527766,-1,7,6,21,55,26,50,3
1530606740527766,-1,-33,-6,-11,23,-2,-54,-22
1530606740529761,0,-13,3,4,-12,4,84,26
1530606740529761,17,52,1,-8,-21,1,-29,-3
1530606740550705,-23,-37,-2,-2,22,-20,8,3
1530606740550705,-10,41,4,2,-59,3,-4,29
1530606740551702,38,-12,2,4,57,46,45,31
1530606740551702,5,-35,-13,-8,-27,-30,35,17
1530606740564667,-20,38,-8,-11,-24,4,-43,-93
1530606740564667,7,-7,0,-3,27,-14,6,47
1530606740571649,-27,-5,-10,6,34,4,15,-9
1530606740571649,16,64,23,7,-16,5,-6,34
1530606740587606,4,-19,3,-5,22,-3,82,51
1530606740587606,-25,6,-8,4,-34,-7,-62,-36
1530606740589601,-2,-40,-1,2,42,-10,-55,-56
1530606740589601,-3,-5,-2,5,-5,-20,58,37
1530606740610545,29,19,0,-9,-35,37,3,32
1530606740610545,-13,-18,-3,-1,25,29,-11,-86
1530606740612540,0,25,-1,-6,-28,-9,80,39
1530606740612540,-10,-40,-15,-19,-68,-82,-79,-9
1530606740624507,-5,22,5,1,-36,16,4,-38
1530606740624507,34,-29,12,16,67,82,83,82
1530606740633484,-15,26,-2,-3,-18,-32,-77,-41
1530606740633484,-9,24,-3,3,29,22,29,-46
1530606740648443,7,-10,-1,-8,-17,-36,68,83
1530606740648443,-12,-34,-12,-10,-3,-28,-105,-121
1530606740649441,-34,-5,2,6,8,-2,32,30
1530606740649441,23,-14,1,-10,-26,-24,56,43
1530606740670385,-8,25,-3,8,41,58,9,14
1530606740670385,16,35,1,6,-20,7,33,-19
1530606740672380,3,-8,1,-4,-4,4,-26,-12
1530606740672380,-35,-59,-12,-7,-1,-35,31,33
1530606740684347,-1,-31,-5,-4,-12,-4,-107,-67
1530606740684347,9,61,18,9,74,44,71,44
1530606740693324,16,-2,-9,-7,-32,-21,-14,-18
1530606740693324,-3,-21,-5,-13,-12,23,13,26
1530606740708283,15,8,9,7,31,-21,-6,12
1530606740708283,-15,-58,-10,14,21,-28,26,-15
1530606740709281,-9,21,9,0,-10,-2,-26,13
1530606740709281,-16,62,-1,4,11,-9,-3,-66
1530606740730225,20,10,0,-12,-32,23,-18,3
1530606740730225,8,-13,-6,-5,-22,0,-30,25
1530606740732219,-19,-66,-6,-7,-29,-55,7,-13
1530606740732219,3,-11,-3,8,38,92,51,15
1530606740744188,12,4,-2,2,-17,-34,-13,-58
1530606740744188,-18,1,-6,-10,-32,-9,41,36
1530606740753164,11,-1,10,6,13,-25,-11,5
1530606740753164,-11,-17,-5,-7,-14,26,39,-63
1530606740768123,-5,-29,-4,13,52,16,25,42
1530606740768123,17,-4,-12,-18,-88,-42,-22,21
1530606740770118,14,-2,9,8,15,23,9,-56
1530606740770118,8,100,24,13,38,-14,-4,21
1530606740790065,-3,-20,0,-9,-3,29,6,67
1530606740790065,-19,-26,-3,-6,-34,-15,-2,-88
1530606740792060,1,42,-10,-5,3,-15,32,29
1530606740792060,20,-37,-5,7,30,42,-24,10
1530606740804027,-10,38,10,4,19,-40,-51,-30
1530606740804027,-9,-3,3,-23,-49,-61,95,1
1530606740813003,12,4,1,15,87,80,-61,-24
1530606740813003,-30,-87,0,22,-53,10,22,23
1530606740827963,52,61,2,-4,13,11,66,39
1530606740827963,-35,14,1,0,-6,-53,-74,-93
1530606740829958,10,21,0,-14,-55,21,78,30
1530606740829958,4,-44,-12,-6,32,16,4,30
1530606740850902,-1,5,9,4,-5,-19,12,24
1530606740850902,-6,-24,-2,9,-1,-13,2,-47
1530606740851899,-8,78,12,7,83,-37,-6,4
1530606740851899,8,-7,-10,-13,-71,50,-7,44
1530606740863867,9,13,13,3,28,-1,-6,-17
1530606740863867,8,39,6,21,92,-1,-36,-14
1530606740872843,-18,-45,-8,-26,-31,8,57,28
1530606740872843,5,-54,-13,7,21,-28,24,-9
1530606740887803,-21,9,1,1,21,13,62,-21
1530606740887803,10,52,5,-10,-11,5,-24,38
1530606740889798,-2,-5,3,7,-25,-29,-12,30
1530606740889798,-1,6,-1,-1,6,-27,-105,-8
1530606740910742,-6,-37,-7,17,21,28,31,15
1530606740910742,-7,-42,-6,-6,-16,19,5,25
1530606740911740,-5,27,-2,-1,-32,25,30,-27
1530606740911740,42,90,35,-3,29,-29,-94,4
1530606740923707,-38,-54,-15,-2,1,-4,4,-23
1530606740923707,-4,-19,-6,-8,21,-10,36,63
1530606740933681,14,-61,-16,-3,-59,0,-62,-24
1530606740933681,26,15,4,-2,35,-10,10,-19
1530606740955622,-24,56,-10,-13,-12,-22,-84,-101
1530606740955622,6,-20,12,0,-18,29,41,25
1530606740957617,-15,22,-3,-7,22,20,10,12
1530606740957617,-10,-71,-11,13,41,26,-5,11
1530606740970582,-22,16,4,-3,-26,-30,71,62
1530606740970582,14,-1,-3,-9,5,18,-35,-54
1530606740972577,-34,-62,-7,9,-7,-14,-108,-37
1530606740972577,24,84,-2,-6,-11,13,101,74
1530606740984545,23,-20,10,8,13,-6,-16,-5
1530606740984545,-5,-4,-8,4,-71,-41,-4,0
1530606740993521,-5,2,5,-6,10,36,-3,21
1530606740993521,0,-25,-4,-6,42,40,107,54
1530606741008481,-13,-40,4,8,9,3,-84,-45
1530606741008481,21,72,-5,-1,13,-38,6,18
1530606741009478,7,3,-7,-6,-32,5,15,49
1530606741009478,-43,-13,-13,-10,10,15,-56,-74
1530606741030422,36,-23,13,1,-92,-78,-10,3
1530606741030422,-33,77,-3,-3,58,100,-108,-100
1530606741032417,83,-70,-6,5,3,-31,119,121
1530606741032417,-82,54,-1,-7,2,-44,-100,-85
1530606741044384,17,-42,-11,-14,64,58,57,59
1530606741044384,-23,-59,-8,-9,-37,-71,39,-5
1530606741053361,35,54,23,30,-1,52,19,5
1530606741053361,20,-31,-6,-3,62,-13,-111,-122
1530606741068320,-23,4,-11,14,25,-48,-25,-7
1530606741068320,37,-93,-9,-18,-72,54,87,87
1530606741069318,-44,64,5,4,6,9,-29,-18
1530606741069318,64,86,29,2,-38,-55,8,-45
1530606741090262,4,-30,-12,-1,12,5,-56,-58
1530606741090262,-15,-63,-21,-19,-47,-36,58,42
1530606741092257,-44,86,32,6,-11,57,-58,-68
1530606741092257,20,-58,-7,0,-90,19,17,22
1530606741104224,3,0,-5,-12,1,37,101,86
1530606741104224,-43,100,8,9,67,-23,-94,-13
1530606741113201,14,-97,-17,-2,-34,-38,-91,-44
1530606741113201,-8,-70,-6,-6,-19,6,43,100
1530606741128161,15,99,20,9,-97,-4,90,-52
1530606741128161,38,-68,-10,-3,-49,58,-40,50
1530606741130156,44,65,14,5,107,79,88,70
1530606741130156,-74,-29,-3,0,4,-89,-96,-83
1530606741150102,1,-34,-3,-7,15,38,100,49
1530606741150102,62,44,18,41,62,12,110,64
1530606741152097,-87,-47,-25,-16,-47,-67,-118,-128
1530606741152097,74,-40,15,5,1,19,70,28
1530606741164064,-37,83,-1,-3,27,-13,-49,80
1530606741164064,-8,98,21,-3,23,7,-61,-128
1530606741173041,25,-42,-8,-2,24,-43,7,35
1530606741173041,-27,20,-2,5,91,31,27,57
1530606741187003,-44,-73,-9,-9,-40,-23,-93,-28
1530606741187003,7,24,10,-3,-17,-7,30,-30
1530606741193985,65,-32,-18,-9,27,-14,-58,-30
1530606741193985,-72,-7,-21,-14,-86,-9,24,39
1530606741210939,9,18,8,1,89,31,-29,-76
1530606741210939,-73,-44,-2,-24,-60,29,53,87
1530606741211937,41,-3,-4,30,91,-12,-23,2
1530606741211937,-19,32,-9,6,-17,-18,-86,-43
1530606741223904,-38,-24,-10,-22,64,-9,5,6
1530606741223904,87,-29,-8,-1,-95,-22,-46,20
1530606741232881,-119,-24,-38,-50,-128,-46,41,73
1530606741232881,73,98,55,16,102,110,-4,-8
1530606741247840,9,-46,-2,13,-41,-37,-17,-83
1530606741247840,-33,-38,-11,-18,19,-12,31,74
1530606741253824,0,-80,-3,-1,-29,-50,87,1
1530606741253824,-48,-47,-13,-6,-101,-23,127,127
1530606741270779,67,68,5,2,65,18,-93,-41
1530606741270779,-69,0,-1,13,26,-1,-104,-10
1530606741271776,61,-6,-2,-10,-86,-17,-5,-49
1530606741271776,20,-27,-14,-14,70,41,17,21
1530606741292720,-10,-58,8,22,5,6,87,67
1530606741292720,-43,20,-19,-13,-38,-48,-29,-55
1530606741294715,15,86,27,15,-33,20,64,33
1530606741294715,5,-42,-18,-9,-41,-41,5,-35
1530606741307680,24,74,-6,-18,-115,40,-34,-35
1530606741307680,-26,-120,5,29,60,-18,53,-59
1530606741314661,0,45,5,-30,-70,-63,127,35
1530606741314661,16,40,1,7,116,87,-61,23
1530606741330619,-55,-58,-8,21,79,86,48,2
1530606741330619,110,79,5,-2,-64,-46,84,2
1530606741332614,-33,-18,1,-10,-5,4,-39,-54
1530606741332614,-19,-95,-27,-16,-57,-49,-64,-20
1530606741360539,-18,0,16,10,-7,-92,32,74
1530606741360539,27,121,24,1,34,108,-78,-8
1530606741362534,46,-85,2,14,124,34,53,-2
1530606741362534,-16,20,-24,-8,-50,-42,-69,-128
1530606741367520,-40,-56,-19,-22,-90,39,-10,61
1530606741367520,42,-33,-31,12,127,-27,-1,16
1530606741374502,-26,91,38,12,-73,-98,55,60
1530606741374502,-4,26,34,16,82,110,117,76
1530606741390459,-34,-51,-25,10,53,-105,-68,-104
1530606741390459,46,37,3,2,71,54,68,50
1530606741392454,54,-3,24,5,-57,3,-30,29
1530606741392454,-46,-79,-28,-12,44,-6,47,-97
1530606741413398,20,127,25,-8,-46,-35,-9,87
1530606741413398,16,-93,-15,-3,-36,-67,-4,40
1530606741414395,-67,-79,-25,6,106,94,1,21
1530606741414395,46,33,15,7,17,-104,-4,41
1530606741427360,22,4,-21,-17,-25,83,-44,-92
1530606741427360,-30,-25,7,11,7,58,59,19
1530606741434341,12,-36,-7,9,33,-24,23,4
1530606741434341,-5,59,-8,-20,-22,-100,-32,-9
1530606741450299,10,-21,15,9,-63,60,52,35
1530606741450299,2,-29,-6,-2,122,45,-27,73
1530606741452294,-40,23,-4,-2,12,-25,-104,-90
1530606741452294,20,-19,4,20,-16,-101,42,95
1530606741473238,31,119,23,5,97,71,-78,-51
1530606741473238,5,-18,-24,-14,-43,-23,94,29
1530606741474235,34,46,5,-2,25,-58,-27,13
1530606741474235,-72,-110,-28,-11,-97,-72,17,54
1530606741487200,38,90,-1,-21,-110,-127,93,-1
1530606741487200,-40,-42,0,-4,10,42,-60,-20
1530606741494182,-11,-1,-32,-13,39,15,-100,-12
1530606741494182,61,56,23,9,-82,69,-48,22
1530606741510139,8,-111,-8,-11,-71,6,-11,-3
1530606741510139,-15,23,9,2,-79,-10,8,1
1530606741512134,-36,30,0,-3,-22,16,-62,-34
1530606741512134,62,18,21,12,-3,20,19,12
1530606741533078,-66,-58,-15,-8,-60,-35,-70,25
1530606741533078,-17,-1,-2,-17,67,-40,-7,-100
1530606741535073,-9,13,12,13,-15,7,40,32
1530606741535073,2,-97,-25,-19,-14,60,18,28
1530606741547040,27,76,29,29,44,70,26,75
1530606741547040,-1,-83,-15,-9,-21,-83,-84,-45
1530606741554021,-38,110,21,1,-84,-5,-7,30
1530606741554021,26,-80,3,4,1,68,-34,-93
1530606741570976,-17,-10,-18,3,105,-55,-34,24
1530606741570976,30,-39,9,1,-24,78,63,44
1530606741571974,-13,64,-11,-21,22,7,-10,-84
1530606741571974,23,48,15,0,-80,-28,95,117
1530606741592918,12,11,15,-9,-5,7,-14,-67
1530606741592918,-27,-22,24,32,-5,-98,-77,34
1530606741594912,-6,-59,-14,-8,18,37,-5,36
1530606741594912,29,108,28,24,58,93,31,33
1530606741606880,-12,-38,-25,-10,-23,-65,39,-60
1530606741606880,36,44,20,10,-30,-46,-5,18
1530606741615857,-76,-120,-11,-13,-128,-67,34,-27
1530606741615857,-69,33,-4,7,119,44,-60,-72
1530606741630816,45,-16,-8,14,110,-4,80,21
1530606741630816,4,46,16,3,10,15,-14,55
1530606741631814,61,-1,16,21,-16,70,63,-3
1530606741631814,-8,127,9,-11,44,-11,-35,-117
1530606741652757,8,-128,-33,-17,-78,-30,30,72
1530606741652757,-35,74,0,-7,-66,7,-94,-11
1530606741654753,12,33,9,23,102,3,-46,-5
1530606741654753,-2,-109,4,12,-39,-47,85,-49
1530606741666720,-28,63,9,-36,-94,37,-21,19
1530606741666720,-2,-15,4,15,87,86,21,-64
1530606741675696,43,-12,-2,1,26,-12,92,51
1530606741675696,-16,-35,1,29,-126,-75,-6,50
1530606741690656,-4,-83,-21,-2,-1,8,-6,-42
1530606741690656,-6,41,15,-16,-52,-48,25,17
1530606741692651,37,-41,-8,-1,102,46,31,59
1530606741692651,-29,71,-13,-1,46,30,-37,-48
1530606741712597,37,-52,14,16,-19,-75,78,127
1530606741712597,-96,46,-10,-18,53,118,-11,-105
1530606741714593,30,46,-19,-4,-13,-38,1,-6
1530606741714593,32,-93,-3,-17,24,-48,-56,127
1530606741726561,-32,58,1,-14,-64,-12,26,-106
1530606741726561,29,-74,-15,15,83,-43,108,100
1530606741735537,0,-33,-1,-15,-4,4,-39,-11
1530606741735537,-32,38,5,-10,111,36,-24,-18
1530606741749499,-48,-22,-18,9,-17,-41,-38,46
1530606741749499,110,-33,-20,-56,13,-34,-58,35
1530606741758475,-82,-39,0,43,-84,-18,-55,-92
1530606741758475,103,3,-5,26,-123,70,74,23
1530606741773435,43,36,16,5,127,1,-79,5
1530606741773435,-41,-107,-23,30,-62,40,120,-8
1530606741774432,5,103,45,-16,-81,-86,-31,3
1530606741774432,-4,-78,-8,-28,68,47,-66,-110
1530606741786400,-26,-92,4,7,-6,-17,119,-31
1530606741786400,49,87,24,-3,40,33,76,92
1530606741795376,-13,-69,-11,2,12,47,-69,-81
1530606741795376,29,61,-13,-12,-128,-42,32,124
1530606741810336,-47,-14,15,5,14,12,9,1
1530606741810336,-20,44,-14,-12,33,-62,-128,-26
1530606741812331,44,-65,-6,-31,-65,-32,89,70
1530606741812331,-116,8,-8,-14,62,45,-104,-58
1530606741833275,23,41,-13,-25,8,-37,1,38
1530606741833275,-6,41,17,30,41,80,27,-73
1530606741834272,28,6,-3,16,-35,3,5,68
1530606741834272,-2,-40,0,0,-14,6,64,-69
1530606741846240,28,-81,-19,24,7,23,-122,33
1530606741846240,-46,61,20,2,23,-76,70,-27
1530606741855216,9,-18,-10,-35,-11,22,-4,8
1530606741855216,-4,34,-10,-14,66,23,-47,-65
1530606741870176,10,62,27,27,-48,16,-30,84
1530606741870176,20,-58,-32,19,70,-21,74,6
1530606741872171,17,103,85,24,107,63,37,2
1530606741872171,38,-100,2,-2,-11,-75,58,116
1530606741893115,-25,-88,-11,18,106,23,-54,-95
1530606741893115,-74,-47,-29,-22,-128,-49,-75,-86
1530606741895110,-18,23,-30,-17,16,-13,106,114
1530606741895110,48,14,27,17,66,-59,87,24
1530606741907077,-17,-17,-1,-1,80,110,-73,6
1530606741907077,18,57,10,-6,-109,-40,-48,-19
1530606741916054,-9,-34,-19,2,45,18,69,1
1530606741916054,-33,-49,-13,-18,-64,-43,-56,-95
1530606741930016,54,61,-14,-21,-21,27,75,95
1530606741930016,-5,40,45,25,-11,0,-33,-35
1530606741932011,10,-28,-36,-7,39,18,-117,-7
1530606741932011,-58,-19,17,14,-21,-48,-92,15
1530606741952955,56,-65,-27,-18,-126,-54,127,62
1530606741952955,-20,68,24,-12,-78,22,-35,-5
1530606741954950,43,58,-1,3,48,31,39,35
1530606741954950,-7,-54,-13,9,13,41,-34,42
1530606741966917,-23,28,3,-9,-59,-29,12,24
1530606741966917,13,27,-2,14,44,-22,-59,-48
1530606741975893,-15,-37,5,-8,-86,-24,33,1
1530606741975893,-29,24,-8,-15,-1,-21,0,11
1530606741989856,47,52,11,9,102,-15,-14,-59
1530606741989856,41,-78,-13,-1,-17,40,19,97
1530606741996837,-24,5,-17,11,-83,-42,-15,-120
1530606741996837,0,-18,-11,-12,22,53,63,27
1530606742012795,8,-67,3,7,70,40,83,-34
1530606742012795,-2,47,20,-2,9,-24,-39,88
1530606742014790,8,-128,-15,-8,46,-75,-36,12
1530606742014790,13,-47,-9,-3,-34,13,61,-83
1530606742026758,-35,77,8,-11,-27,-64,-76,2
1530606742026758,-10,-64,-24,21,108,112,122,-49
1530606742035734,18,-40,-15,-10,-51,16,-12,17
1530606742035734,49,81,8,-9,-77,-108,-58,47
1530606742050693,-84,-39,-1,-4,-16,52,-63,-65
1530606742050693,-33,49,-16,-25,-25,-23,4,-1
1530606742051691,47,82,26,33,81,14,-27,65
1530606742051691,10,-21,-23,-23,-110,-12,75,32
1530606742072635,-1,-59,-19,-24,28,-8,-45,-99
1530606742072635,-32,-19,-8,-11,-70,-7,-49,77
1530606742074630,-2,-47,7,17,63,37,-1,-8
1530606742074630,-35,24,2,-9,22,15,94,88
1530606742086597,42,52,5,18,-46,-9,-20,-34
1530606742086597,21,-72,2,6,89,-33,-3,-14
1530606742095574,-39,-68,-16,-17,-17,1,25,-13
1530606742095574,4,70,29,30,101,66,-45,53
1530606742110533,28,89,15,-6,-19,-37,1,-73
1530606742110533,-34,-108,-30,-5,-51,-59,91,10
1530606742112528,41,113,60,6,25,70,-31,-7
1530606742112528,-16,46,-5,-11,-44,3,-83,-96
1530606742133472,-19,-6,-9,7,-72,17,40,71
1530606742133472,46,-54,7,-5,16,-3,31,34
1530606742134470,7,-34,-23,-16,19,-20,54,-37
1530606742134470,-28,-119,-27,0,48,-46,-45,-8
1530606742146437,-9,118,66,30,-36,69,48,16
1530606742146437,27,-42,-2,9,38,-1,-106,-89
1530606742155413,-6,-41,-23,-37,-105,-79,4,45
1530606742155413,15,-62,-5,30,127,87,7,-90
1530606742170373,-88,27,-3,-11,-20,-76,-68,-27
1530606742170373,30,47,6,5,-16,6,67,92
1530606742176357,-7,31,5,5,52,71,33,27
1530606742176357,34,-58,-4,7,-35,-53,14,38
1530606742193312,6,6,-3,-10,17,-11,17,20
1530606742193312,2,-48,-22,-2,38,12,-1,-119
1530606742194310,-63,102,-2,-15,-68,-31,-55,18
1530606742194310,27,39,3,-16,31,45,97,106
1530606742206277,-64,-26,-9,5,5,-83,-33,-85
1530606742206277,2,26,4,-7,-1,58,40,106
1530606742215253,-2,-128,-39,0,21,28,3,26
1530606742215253,-14,101,15,4,26,32,3,-6
1530606742230213,107,51,19,14,22,86,123,28
1530606742230213,-7,-3,-9,-18,-113,-57,30,-44
1530606742236197,-77,-64,-19,-33,-44,-73,-128,-93
1530606742236197,36,16,17,37,53,66,-4,-67
1530606742253152,-22,-73,-14,-32,-75,-92,-52,-71
1530606742253152,1,31,11,28,78,127,42,85
1530606742255147,25,2,7,-6,91,29,76,58
1530606742255147,-41,5,8,46,-117,-90,-83,-7
1530606742275093,42,-37,-29,-19,-39,-20,-71,-40
1530606742275093,-16,-45,-7,-8,55,-23,-8,8
1530606742277088,6,110,53,30,34,46,-21,-28
1530606742277088,-2,72,9,-28,60,-47,-35,6
1530606742290053,-7,-57,-15,0,19,60,19,79
1530606742290053,52,88,26,2,34,-61,-19,-40
1530606742297034,18,-125,-35,-8,-32,5,11,13
1530606742297034,-74,82,30,6,-106,-62,42,-7
1530606742312992,60,-84,-7,20,127,73,73,-24
1530606742312992,40,-16,-8,-6,-44,14,-126,-6
1530606742314987,30,31,0,20,15,-18,-26,-63
1530606742314987,47,-37,-10,-27,-128,-24,29,49
1530606742335930,-20,-10,-7,8,110,-1,-1,85
1530606742335930,-43,11,-1,-21,-65,-36,-39,-48
1530606742336928,30,57,14,42,108,34,-21,20
1530606742336928,12,-60,-6,5,47,18,4,-34
1530606742349893,-24,-21,-19,-24,-34,-3,12,23
1530606742349893,22,39,32,21,-24,44,50,5
1530606742356874,-20,78,10,-2,-11,-65,22,45
1530606742356874,-47,64,-5,-17,-65,-47,-66,-104
1530606742372832,58,1,15,12,99,82,8,41
1530606742372832,-26,-96,-22,-3,10,-5,30,62
1530606742374827,-46,-26,-18,-19,32,6,9,-27
1530606742374827,43,-37,-6,-8,-59,5,70,-15
1530606742395770,33,45,13,5,-77,-12,-71,39
1530606742395770,-56,-34,-9,-11,0,22,-36,-12
1530606742396768,-17,-41,-1,2,-53,-66,65,44
1530606742396768,13,8,-24,-20,69,-7,-65,-59
1530606742409733,-27,40,42,16,-128,22,67,-9
1530606742409733,41,-43,1,7,91,51,116,76
1530606742416714,-6,-49,-29,-19,18,-11,-97,-92
1530606742416714,-65,-87,-33,-36,-71,-40,72,54
1530606742432672,-2,-45,-17,-8,-30,-74,11,41
1530606742432672,-8,108,25,20,2,14,11,11
1530606742434667,36,14,21,27,-18,16,62,-12
1530606742434667,-28,0,-10,-20,-24,17,-93,21
1530606742455610,-4,-34,-11,-3,115,-27,50,25
1530606742455610,10,38,14,11,-26,17,-6,-9
1530606742457605,-22,-62,-12,-15,-5,1,-104,-84
1530606742457605,42,41,18,18,23,72,84,12
1530606742469573,-33,-52,-26,-15,-19,-16,25,22
1530606742469573,45,29,5,14,2,-61,1,52
1530606742476554,-20,7,19,17,44,30,105,78
1530606742476554,-37,-26,-10,-15,-29,-36,-40,-53
1530606742493509,-14,-2,-12,-6,39,11,43,38
1530606742493509,-17,-16,-9,-12,-23,16,14,-35
1530606742494507,5,52,15,-9,21,-42,-21,8
1530606742494507,51,-60,3,51,-18,56,-17,13
1530606742515450,-19,-20,-17,3,81,-3,19,-19
1530606742515450,-48,49,12,-18,-77,-23,-99,-99
1530606742517445,62,2,9,20,36,60,65,109
1530606742517445,-46,-18,-3,-36,-35,-41,-21,72
1530606742529413,-33,-101,-12,9,-67,49,22,-12
1530606742529413,39,48,10,6,93,-19,56,14
1530606742538389,-33,43,-8,-8,-33,11,62,-26
1530606742538389,66,-90,-7,-1,27,-29,-24,9
1530606742553349,19,78,3,-12,15,2,-84,-71
1530606742553349,-87,9,-19,-18,-44,-3,97,74
1530606742554347,29,17,3,-5,-26,-22,-59,-65
1530606742554347,15,-81,-6,12,61,44,93,98
1530606742575290,3,119,29,-9,-87,-36,-40,-21
1530606742575290,-2,-40,-3,17,49,-28,0,-35
1530606742577285,-36,-69,-28,-24,-69,18,-61,35
1530606742577285,69,51,16,15,-33,-11,6,97
1530606742589253,-23,78,8,1,97,21,-71,-127
1530606742589253,34,-65,-14,-18,-99,-13,66,119
1530606742598229,-63,43,4,5,25,6,38,5
1530606742598229,4,-55,-5,3,34,2,66,4
1530606742613189,30,45,8,-13,-55,-26,-29,-14
1530606742613189,9,-59,-6,-2,-33,-35,-45,-16
1530606742614186,-10,-33,-1,14,24,-15,-33,5
1530606742614186,4,52,0,1,127,88,77,-57
1530606742635130,5,-12,7,17,25,-13,127,73
1530606742635130,0,-39,-12,-15,-66,7,-128,-31
1530606742637125,-2,1,-13,-7,-14,-16,63,-61
1530606742637125,41,20,7,4,98,-70,19,-25
1530606742649093,-44,25,20,-4,-120,29,15,53
1530606742649093,33,83,-19,-17,111,34,-6,-30
1530606742658070,-32,-21,5,-8,53,-17,31,1
1530606742658070,3,-67,-22,2,4,37,-87,4
1530606742673029,-30,8,3,2,7,-28,98,46
1530606742673029,24,-54,-21,-7,-46,-45,-95,-92
1530606742675024,2,18,9,-1,-7,-9,49,89
1530606742675024,-17,47,-2,3,81,26,-18,-19
1530606742695967,58,-44,-1,11,1,12,-66,36
1530606742695967,-77,-4,-1,2,10,-20,42,-6
1530606742696965,51,-42,-5,2,21,42,94,59
1530606742696965,-45,127,23,-11,-32,-66,-106,-43
1530606742708933,65,-78,-16,1,-56,23,-30,10
1530606742708933,3,46,8,6,-30,16,68,97
1530606742717909,-53,-60,-15,-9,-66,-89,-82,-128
1530606742717909,35,16,1,3,61,36,-5,49
1530606742732869,-22,35,3,-4,-14,18,1,-3
1530606742732869,11,-97,0,-2,62,-3,-41,20
1530606742734864,-4,95,7,5,-56,34,92,63
1530606742734864,-18,-25,-16,-13,-19,-10,-104,-125
1530606742755808,6,16,-3,-3,-25,-54,-17,-1
1530606742755808,3,-49,-1,6,48,6,87,44
1530606742756805,9,-10,-2,7,11,3,-30,-11
1530606742756805,-30,-15,6,-3,7,30,69,-9
1530606742768773,26,-70,-19,-7,6,-32,-36,16
1530606742768773,-16,56,22,11,-101,7,0,18
1530606742777749,24,82,8,6,71,63,-88,23
1530606742777749,-16,14,3,2,-24,-44,94,61
1530606742792709,-7,-89,-23,-4,48,49,-95,-103
1530606742792709,-12,13,-2,-3,-50,-28,13,-11
1530606742794705,47,74,32,24,58,-6,-55,41
1530606742794705,-17,-32,-11,-13,-99,-55,33,6
1530606742815648,-31,18,1,5,78,61,82,113
1530606742815648,29,-53,-15,-15,-61,-77,-98,-98
1530606742817642,-53,-9,-3,-9,-74,-2,9,35
1530606742817642,0,18,3,-3,85,60,49,54
1530606742829610,-33,-71,-7,-1,-25,-3,77,17
1530606742829610,24,56,3,2,77,-6,-38,15
1530606742838586,7,-21,5,9,19,-32,1,-19
1530606742838586,9,-20,-5,6,44,49,41,-2
1530606742853546,26,43,17,0,14,-61,-21,73
1530606742853546,-10,-42,-15,-8,-33,35,109,-90
1530606742854544,12,74,15,5,69,-2,-95,-60
1530606742854544,-34,-60,-12,-13,-109,3,106,18
1530606742875488,-18,72,-2,6,46,32,-63,-58
1530606742875488,33,-15,-3,-4,-31,-55,23,25
1530606742877482,-14,-93,-12,0,32,8,20,0
1530606742877482,-54,13,3,4,-20,0,-7,-35
1530606742889450,20,61,8,2,42,-7,69,18
1530606742889450,25,33,3,4,63,-24,-75,10
1530606742898426,13,-46,-8,-8,-127,-33,73,22
1530606742898426,21,-21,0,6,101,88,0,-13
1530606742913386,-16,-16,-6,-13,-28,-7,-38,-88
1530606742913386,-31,29,-1,-5,25,24,26,56
1530606742914384,0,-42,-9,-9,-36,-48,59,53
1530606742914384,17,11,4,12,-40,-66,11,17
1530606742935327,55,-17,-2,11,6,11,34,40
1530606742935327,-65,37,24,-1,-8,49,114,29
1530606742937322,6,7,-9,-25,-53,-56,-128,-128
1530606742937322,-7,-18,-8,-7,-14,44,16,38
1530606742949290,24,76,28,17,30,-13,0,-15
1530606742949290,-4,-100,-16,-10,-19,-10,14,35
1530606742958266,37,49,0,1,13,36,45,1
1530606742958266,-73,3,8,-8,-94,-27,-66,-6
1530606742973226,11,-3,-6,2,57,-24,-33,-30
1530606742973226,11,-10,8,4,-11,16,95,-4
1530606742974224,-13,6,-13,-6,30,28,-12,-40
1530606742974224,45,-11,-2,3,-12,-21,-21,-4
1530606742995167,-36,-32,-9,3,4,-55,-91,-24
1530606742995167,-24,38,9,-8,-27,24,-54,15
1530606742997163,37,-28,-4,7,13,60,43,15
1530606742997163,-31,73,11,5,22,-25,-19,-29
1530606743009130,-29,-38,-6,-11,-54,13,64,13
1530606743009130,-22,-65,-17,7,31,-24,-27,2
1530606743018106,14,-27,-7,-11,-64,-4,-55,-13
1530606743018106,10,34,16,6,9,-37,-3,17
1530606743033066,-9,-24,-22,-20,-60,-6,44,6
1530606743033066,13,1,1,0,70,99,-75,-60
1530606743035061,-40,6,-2,-1,31,13,67,80
1530606743035061,56,-33,-18,-1,-4,-53,18,38
1530606743056005,8,104,14,2,-35,-12,-18,-21
1530606743056005,26,-21,14,14,39,-22,102,25
1530606743057003,-4,-89,-17,-13,-20,-1,-61,-12
1530606743057003,-69,28,5,3,-12,-6,-16,-67
1530606743068970,45,-45,-15,-9,20,20,68,54
1530606743068970,-21,49,-6,-5,-1,-15,-15,-19
1530606743077946,60,45,20,3,29,30,-11,35
1530606743077946,25,-39,-14,-4,-46,10,-14,45
1530606743092906,-45,-37,7,0,25,36,2,-25
1530606743092906,-26,33,10,7,-48,-46,-20,-16
1530606743094901,34,-15,-8,6,16,3,63,49
1530606743094901,-3,41,5,-6,-62,0,-56,-77
1530606743115845,16,-32,-27,-28,47,4,-112,-76
1530606743115845,-19,62,15,10,59,18,41,49
1530606743116842,-26,-59,-17,-6,-53,-38,22,15
1530606743116842,13,-16,-5,2,19,-9,-25,21
1530606743128811,-9,35,31,15,-34,21,127,56
1530606743128811,27,-13,-12,-2,-19,-6,-98,-16
1530606743137786,-48,-13,-6,5,28,32,69,17
1530606743137786,24,8,0,-11,1,-23,8,-61
1530606743152746,-23,-76,-2,12,-9,4,-23,41
1530606743152746,-5,21,3,-3,-7,-10,-23,-26
1530606743158730,12,72,25,9,13,27,49,-6
1530606743158730,32,-31,-9,-4,-7,-19,-23,6
1530606743175685,-28,-85,-13,-8,-30,-22,0,-6
1530606743175685,-7,0,-11,3,9,12,-3,28
1530606743177680,-25,21,0,-6,-13,-14,-19,-47
1530606743177680,-22,26,30,11,3,43,35,56
1530606743197626,6,14,-5,-5,36,-23,-54,-1
1530606743197626,2,-77,-21,-15,-19,4,-100,-100
1530606743199621,14,-24,-4,3,-28,15,77,7
1530606743199621,23,56,9,5,64,7,12,16
1530606743212586,-11,-22,-8,-5,-15,-2,52,32
1530606743212586,14,-19,2,6,-40,-62,-2,12
1530606743219567,29,12,9,5,-3,-22,-64,-10
1530606743219567,-23,49,7,2,48,74,17,12
1530606743235524,9,-37,-7,3,-17,10,-45,-60
1530606743235524,-4,55,3,-2,-4,-7,86,-19
1530606743237519,-1,-40,-13,-11,-15,-18,23,35
1530606743237519,-8,-31,-10,-1,-6,-15,-14,-14
1530606743258463,4,-16,6,-4,-26,-24,-72,1
1530606743258463,25,-14,-14,-8,-26,14,54,17
1530606743259461,-18,67,10,9,-24,24,18,-34
1530606743259461,16,-24,0,0,19,5,50,26
1530606743271429,-28,-6,-7,-1,-34,-37,23,-31
1530606743271429,-15,-41,-2,-5,38,-12,-57,-10
1530606743280405,41,-46,-8,-1,79,13,-59,23
1530606743280405,22,66,21,1,-31,21,66,30
1530606743295364,-6,68,6,-3,47,-6,-73,-68
1530606743295364,-36,-62,-7,7,-34,29,77,52
1530606743297360,-21,-7,-9,-15,-21,-58,-31,-35
1530606743297360,-12,-31,-4,-2,-39,5,-50,22
1530606743318303,28,26,1,12,39,30,26,61
1530606743318303,18,-3,12,7,24,10,3,33
1530606743319301,-31,-14,-11,-13,-72,-22,29,-84
1530606743319301,-5,-14,-10,-11,-48,-12,1,15
1530606743332266,9,16,12,8,15,28,98,43
1530606743332266,3,0,-9,-2,25,38,-19,-20
1530606743339247,-10,22,13,11,1,-24,-14,17
1530606743339247,13,-9,-8,1,46,-49,-34,-28
1530606743355204,-11,-90,-6,-14,-95,45,80,66
1530606743355204,11,89,-3,3,37,7,-66,-30
1530606743357199,4,19,7,4,-29,-35,6,12
1530606743357199,-27,-75,-18,-11,-38,20,-5,16
1530606743378143,4,65,28,10,6,-4,-4,13
1530606743378143,-28,-38,-15,-12,-79,-37,-50,-62
1530606743380138,-5,41,11,4,2,29,29,25
1530606743380138,50,-50,-18,-3,29,-31,-35,-17
1530606743392106,-21,-14,-16,-5,24,-20,-25,18
1530606743392106,-6,-5,6,-1,41,34,32,10
1530606743399087,-4,-13,0,5,49,8,-2,-19
1530606743399087,8,6,0,-15,-81,-36,-4,3
1530606743416042,16,16,2,2,77,25,54,-24
1530606743416042,-6,-1,15,25,24,-33,-30,5
1530606743417040,-16,-19,-17,-13,-19,47,-9,41
1530606743417040,-12,4,7,19,118,16,-46,-29
1530606743437983,7,40,-11,-20,-60,-67,-93,-62
1530606743437983,24,35,9,-6,14,10,77,33
1530606743439978,6,-87,-5,7,-36,37,51,43
1530606743439978,-17,25,-2,-8,-9,-9,19,-63
1530606743451946,12,9,7,18,44,-7,-67,13
1530606743451946,-8,1,-3,-10,-1,15,10,14
1530606743460922,8,-4,3,-1,18,-34,-43,8
1530606743460922,-3,-98,-13,0,-26,3,46,0
1530606743475882,-3,92,16,7,-35,-20,20,-16
1530606743475882,7,-42,-5,-11,0,19,25,33
1530606743476879,-4,-14,-2,0,38,19,-128,-59
1530606743476879,-22,-23,-8,-3,-11,-1,23,31
1530606743497823,7,-20,-8,0,-37,-10,61,51
1530606743497823,6,6,9,-1,-56,8,-35,-60
1530606743499818,-11,-22,1,11,93,36,8,-25
1530606743499818,16,63,-3,-4,-77,-17,-7,16
1530606743520762,0,64,17,2,-73,-3,24,43
1530606743520762,15,-57,-11,-1,63,-25,23,-9
1530606743521760,-11,99,2,0,46,20,31,53
1530606743521760,2,-71,-3,1,41,9,-54,-95
1530606743535722,-15,-79,-16,-9,12,17,26,0
1530606743535722,-13,-37,-11,-4,-4,-10,-37,16
1530606743536719,-14,-51,-15,-1,-13,-66,87,21
1530606743536719,16,57,10,0,-21,49,-70,5
1530606743557663,-8,1,4,5,55,21,78,10
1530606743557663,15,-32,-11,-3,-57,-2,43,46
1530606743559658,-4,60,12,2,4,-6,-37,-117
1530606743559658,-1,-9,-6,-13,-45,-40,34,2
1530606743571626,2,5,9,1,32,7,-11,34
1530606743571626,14,-54,0,6,-89,13,-7,25
1530606743580602,-10,2,-2,-9,-56,-2,33,93
1530606743580602,-1,93,10,2,37,13,94,14
1530606743595562,21,-64,-16,-7,-55,-70,-7,-7
1530606743595562,2,10,3,-1,1,49,13,13
1530606743597557,-8,-39,0,2,20,-26,-39,-31
1530606743597557,-12,-46,-18,-16,-10,-37,-27,-29
1530606743618500,-34,-35,-5,6,55,45,-6,29
1530606743618500,-19,119,12,7,-37,-45,21,-7
1530606743619498,21,-48,-14,-13,-99,-37,-11,-27
1530606743619498,-18,34,7,8,116,68,-87,-52
1530606743631466,14,27,2,6,-5,-2,9,27
1530606743631466,-4,-11,0,5,127,-30,-36,4
1530606743640442,-6,-33,-13,-15,-32,45,67,-33
1530606743640442,3,-27,7,10,-106,-92,48,119
1530606743655402,12,95,2,-17,48,86,-33,-28
1530606743655402,-16,-32,-13,7,92,33,-77,-102
1530606743657397,10,14,0,0,51,-23,32,75
1530606743657397,0,54,28,13,105,18,59,13
1530606743678340,0,-34,-13,-3,-41,-46,-18,-2
1530606743678340,-22,6,9,12,-32,-1,44,65
1530606743679338,11,-16,-14,-19,-82,-40,-40,-66
1530606743679338,24,-26,-3,-2,-5,56,59,65
1530606743691306,7,9,7,10,10,-104,-128,-87
1530606743691306,-9,16,2,-21,3,50,45,-16
1530606743700282,-14,-8,10,27,110,91,65,82
1530606743700282,-14,-14,-19,7,34,-27,-75,-36
1530606743715242,-20,-67,-23,-53,-69,-34,68,17
1530606743715242,24,57,5,7,58,23,-55,-61
1530606743717237,-20,10,8,5,-63,-12,22,28
1530606743717237,6,-27,-17,-7,127,31,35,38
1530606743738180,17,75,30,14,-62,14,5,-57
1530606743738180,-5,-65,-10,-12,-44,-63,8,127
1530606743740175,-2,34,5,-7,-29,-22,-103,-128
1530606743740175,2,-25,-6,2,-67,-14,-29,14
1530606743752143,-26,-29,3,16,67,16,0,20
1530606743752143,25,-7,2,-9,-17,15,52,24
1530606743761119,13,78,17,14,67,-8,-50,54
1530606743761119,1,-36,-12,-11,-51,-26,-43,-91
1530606743775082,3,-27,-13,3,55,-2,9,19
1530606743775082,7,12,1,-4,-88,13,21,10
1530606743777077,-23,16,8,2,31,-27,4,14
1530606743777077,5,0,7,1,74,74,52,45
1530606743798020,1,-17,-9,4,104,31,-34,-20
1530606743798020,5,11,-1,2,-35,1,-36,-4
1530606743800015,10,-43,-3,0,-10,-33,20,20
1530606743800015,-10,14,-10,-7,57,-62,21,-12
1530606743811983,-14,11,9,-6,-29,68,33,-20
1530606743811983,11,-40,-5,11,44,-26,10,1
1530606743820959,13,73,3,-8,9,10,28,14
1530606743820959,-9,-21,-2,6,-56,-34,-66,-19
1530606743835919,3,-45,-13,-26,-64,-23,73,5
1530606743835919,-5,72,20,17,60,68,58,35
1530606743836917,6,-104,-27,-11,-78,-5,-21,-53
1530606743836917,-15,31,-6,2,-34,-41,-3,60
1530606743857860,-1,34,15,5,-53,-34,-31,-38
1530606743857860,2,-14,-3,-6,-7,9,11,16
1530606743859855,15,-20,8,6,24,42,-19,12
1530606743859855,-23,-40,-4,-1,-23,-4,-18,-14
1530606743871823,-4,-18,-10,3,70,-27,-34,34
1530606743871823,-17,44,-1,-5,-27,7,-17,-77
1530606743880799,-6,-32,-8,-3,45,-1,6,-27
1530606743880799,-3,-13,-6,-18,-79,-36,-24,2
1530606743895759,8,43,16,20,16,40,62,28
1530606743895759,15,-43,-13,-4,-24,-64,13,-44
1530606743896757,-14,99,22,-2,69,23,-46,24
1530606743896757,7,-49,0,-1,-3,43,33,-8
1530606743917700,1,6,-18,1,-6,-76,-34,-45
1530606743917700,-9,-7,-3,-10,-63,16,-33,-5
1530606743919695,11,-68,-7,-6,-28,35,-17,-1
1530606743919695,-11,100,20,10,36,19,35,18
1530606743931663,20,-73,-10,-2,-19,-3,-61,64
1530606743931663,-10,27,4,-9,-35,-74,-49,-59
1530606743940639,-13,5,3,8,82,-8,48,30
1530606743940639,10,-13,6,13,-68,16,59,22
1530606743955599,-8,-29,-13,-12,-44,56,-34,-36
1530606743955599,-6,20,2,6,1,-9,56,39
1530606743957594,-1,0,-8,-14,-60,-11,17,20
1530606743957594,-1,-55,-4,1,16,-50,-97,-58
1530606743978538,-7,-71,-29,-10,24,9,19,6
1530606743978538,-32,89,28,4,34,-6,29,13
1530606743979535,22,-90,-16,-1,-18,10,-22,14
1530606743979535,24,75,12,-2,-32,-17,42,-7
1530606743991503,-10,-42,-9,-6,-75,7,-20,-19
1530606743991503,-3,-78,-17,4,119,58,4,15
1530606744000479,-5,-34,-6,-3,-59,-53,12,-16
1530606744000479,-11,44,17,10,33,30,102,83
1530606744015439,-25,50,-3,-7,9,11,-77,-101
1530606744015439,23,-22,0,1,-6,-21,69,42
1530606744017434,-2,-16,-17,-12,-5,-25,-83,-8
1530606744017434,3,-19,6,5,-81,-6,-24,-24
1530606744038377,1,52,10,2,18,36,48,-45
1530606744038377,-5,4,-4,-5,4,-7,-49,33
1530606744039375,10,16,1,0,10,0,39,17
1530606744039375,-1,-10,0,6,2,-31,-33,38
1530606744051343,-2,-74,-12,-7,14,-27,-22,-6
1530606744051343,-9,70,0,-3,-78,20,-31,-35
1530606744060319,12,15,20,12,17,10,75,24
1530606744060319,9,-6,-7,-9,36,44,26,-27
1530606744075279,-15,30,8,3,-27,-47,92,35
1530606744075279,10,-106,-27,-7,-2,-9,-102,-14
1530606744081263,2,113,20,7,21,-4,-23,1
1530606744081263,-8,11,-1,-15,-39,26,33,8
1530606744098218,19,-15,4,5,-42,5,5,43
1530606744098218,2,-14,0,-8,-24,-49,38,14
1530606744099215,-23,-30,-10,2,-12,-45,-20,-7
1530606744099215,-3,44,6,0,79,95,-24,-55
1530606744112180,6,4,3,11,36,-7,6,-21
1530606744112180,6,-17,-12,-13,-37,-7,-29,2
1530606744121156,6,-6,10,11,-13,-14,31,18
1530606744121156,-9,-8,-6,-4,26,-25,-34,45
1530606744135119,-2,6,-1,-2,33,24,2,-5
1530606744135119,0,-44,-1,7,27,20,9,2
1530606744142100,-8,64,2,-7,-33,-2,-7,-38
1530606744142100,14,-43,-5,6,100,-79,56,26
1530606744158057,7,73,11,-5,-38,21,-83,31
1530606744158057,7,-13,1,0,102,45,50,-37
1530606744160053,-9,-31,-18,-11,46,32,6,-34
1530606744160053,-11,-25,-7,-2,2,1,-80,2
1530606744180996,5,4,7,12,-2,-59,-30,38
1530606744180996,-14,-9,2,2,-25,-55,20,6
1530606744181995,1,-32,-2,1,-2,73,17,7
1530606744181995,6,95,-2,-8,-41,0,67,34
1530606744194959,2,-31,5,0,-9,18,-29,-36
1530606744194959,2,15,4,-2,-1,-8,-19,-41
1530606744201940,-2,-23,-1,13,34,-47,9,-36
1530606744201940,-6,9,-2,-14,-69,-23,-81,1
1530606744217897,8,-62,-8,4,97,52,53,46
1530606744217897,17,45,9,13,39,33,-13,15
1530606744219892,-31,-8,-8,-12,-31,-27,-17,-14
1530606744219892,17,-58,-4,4,-8,-15,18,-22
1530606744240836,-9,86,16,7,-10,-35,53,28
1530606744240836,12,5,-1,-17,-20,39,-17,-56
1530606744241834,-6,-35,-18,-1,-1,0,0,-2
1530606744241834,-18,-65,-14,-7,-14,-3,-18,-51
1530606744254799,-7,27,11,5,26,34,23,7
1530606744254799,7,8,2,-1,-60,-55,3,31
1530606744261780,10,-8,-4,-2,8,30,34,29
1530606744261780,4,72,15,13,70,21,56,-16
1530606744277737,-8,-72,-12,3,-39,-9,-46,10
1530606744277737,-5,42,12,9,7,-43,13,15
1530606744279732,12,-1,1,-6,-54,13,31,-14
1530606744279732,-15,-13,-8,-4,-28,3,-74,10
1530606744300676,-10,-56,-12,-12,4,-7,46,-22
1530606744300676,-1,49,6,3,-11,-51,-31,4
1530606744302671,30,-33,4,5,-29,66,-11,14
1530606744302671,8,46,19,6,31,59,60,18
1530606744314639,-2,-5,-8,2,18,9,12,3
1530606744314639,-21,-41,-15,-5,-5,-20,4,-9
1530606744321620,2,29,3,-4,21,-41,-35,-13
1530606744321620,16,-33,4,-1,-8,-20,15,14
1530606744338575,-9,83,1,2,-15,35,16,1
1530606744338575,12,53,4,-4,-8,-13,-11,-15
1530606744339572,-10,-27,0,2,-19,-42,22,18
1530606744339572,-8,-36,-4,-12,-31,16,42,29
1530606744360516,6,-14,-11,-4,44,12,-5,-73
1530606744360516,-8,-33,-7,3,34,23,-23,6
1530606744362511,0,60,6,-10,-33,-64,1,-15
1530606744362511,-8,-18,-3,-1,-43,27,12,18
1530606744374479,18,-21,1,-4,-33,-22,16,22
1530606744374479,-12,-2,-8,-5,-13,6,49,-8
1530606744381460,18,54,21,5,70,38,-55,69
1530606744381460,-14,19,-3,4,-1,-51,-48,-121
1530606744398415,13,20,-8,-10,-37,-31,-21,56
1530606744398415,14,40,19,17,79,-1,-12,28
1530606744399412,-25,-67,-22,-8,-17,60,6,-8
1530606744399412,4,50,5,1,6,14,-30,25
1530606744420356,-4,-34,1,3,18,-18,-40,-70
1530606744420356,11,-26,-5,-2,15,-40,29,33
1530606744422351,-12,-2,-11,-18,-67,-13,-36,-13
1530606744422351,-9,-31,-15,-3,33,36,-40,8
1530606744434318,4,14,4,3,0,-13,46,12
1530606744434318,-8,-4,-3,-4,-3,-10,-22,-3
1530606744443295,-1,-2,1,9,99,-26,47,0
1530606744443295,0,5,0,-17,-98,23,10,9
1530606744458254,7,-52,-9,3,37,53,15,8
1530606744458254,-5,20,3,1,-13,33,17,6
1530606744459253,9,33,5,4,1,-17,-28,3
1530606744459253,-9,-43,-16,-1,-3,-49,-55,-44
1530606744480196,-7,22,8,-10,0,-37,-26,41
1530606744480196,-18,-26,-1,-2,-61,16,-53,-98
1530606744482191,3,-13,-7,7,40,58,-3,5
1530606744482191,12,-23,2,2,19,-23,43,48
1530606744494159,-12,12,-10,-3,-28,-5,17,57
1530606744494159,4,0,5,-2,24,-12,-53,-26
1530606744503135,-1,-6,2,6,-33,0,12,-2
1530606744503135,-7,-15,0,5,30,23,59,1
1530606744526074,-6,-24,-2,3,20,-22,-42,-49
1530606744526074,-2,29,-10,-16,-48,19,-77,29
1530606744527071,16,63,27,16,34,27,95,-2
1530606744527071,6,-50,-18,0,83,-1,-30,59
1530606744541033,-11,26,3,-1,-40,2,36,-37
1530606744541033,3,-21,-1,2,-9,-6,50,25
1530606744542032,-1,-21,-5,-10,-11,-27,-36,14
1530606744542032,2,25,4,12,7,20,39,6
1530606744562974,4,18,2,-6,-33,-32,-19,-38
1530606744562974,1,-15,2,5,36,32,42,-10
1530606744564970,-3,31,-8,-3,32,-18,24,44
1530606744564970,0,-6,7,-18,-79,-51,-93,-83
1530606744577935,-7,-23,2,21,-23,66,26,31
1530606744577935,2,-20,-9,1,21,40,29,14
1530606744579929,-6,-53,-5,1,-2,-25,-10,5
1530606744579929,-5,75,19,1,-35,-34,98,0
1530606744600873,17,2,-8,4,97,-7,-109,-94
1530606744600873,-10,-4,-10,-3,46,8,2,45
1530606744601871,-5,42,11,-2,-105,-28,-14,-28
1530606744601871,-2,-85,-14,-3,19,26,-32,6
1530606744613839,-5,86,4,-10,-93,-3,29,5
1530606744613839,9,-12,13,8,95,16,23,8
1530606744622815,-6,-50,-17,-8,-14,-27,-102,-52
1530606744622815,3,36,3,-5,-13,-23,1,9
1530606744637775,3,-32,5,0,20,8,75,21
1530606744637775,-11,-38,-18,-10,-55,0,-49,-18
1530606744639770,-2,42,0,-10,4,32,21,-7
1530606744639770,-3,12,-2,7,11,-24,-42,-47
1530606744660713,0,-3,8,-3,-12,4,32,33
1530606744660713,11,-10,1,12,1,-4,-5,-10
1530606744661710,-11,-44,-1,-3,25,-11,-27,-9
1530606744661710,8,62,7,-5,-69,13,45,3
1530606744674676,33,0,9,8,80,0,-38,7
1530606744674676,-12,-5,-6,-10,-12,13,64,-44
1530606744683652,3,-24,-3,8,10,-2,-28,-18
1530606744683652,1,17,4,-1,-57,-3,34,-7
1530606744697615,-12,-5,-1,-1,32,-14,-37,31
1530606744697615,-16,-20,-8,-12,-94,-16,46,33
1530606744699610,23,-18,-2,7,37,45,-5,-13
1530606744699610,-11,30,-5,0,82,-65,-77,-68
1530606744720553,-5,28,13,-5,-17,43,38,53
1530606744720553,8,-17,-6,-2,-27,-1,-6,-6
1530606744722548,-8,-23,-7,-6,-45,-20,5,7
1530606744722548,5,19,9,8,90,23,43,50
1530606744734516,-8,-17,0,0,-55,-22,-73,-53
1530606744734516,-4,35,-11,-11,6,-33,-8,-40
1530606744743492,7,-5,-1,-2,-54,-9,-1,12
1530606744743492,4,12,11,4,-19,35,54,28
1530606744758452,7,-32,-7,-1,21,3,-7,6
1530606744758452,-9,-1,-1,-7,-28,-52,33,-36
1530606744759450,1,-30,-10,1,64,56,-31,51
1530606744759450,-16,-17,-13,4,52,24,-72,-50
1530606744780393,5,34,1,-3,-13,-37,-24,21
1530606744780393,2,-12,5,-1,-33,-50,-15,9
1530606744782388,-5,14,-3,-7,1,4,-32,6
1530606744782388,-10,-17,2,1,-25,-31,42,44
1530606744794356,-5,-22,5,6,-2,78,43,6
1530606744794356,3,-5,-4,4,40,14,-38,-7
1530606744803332,6,45,-3,-7,-8,-33,27,-14
1530606744803332,-3,-48,-5,-4,-3,7,-28,28
1530606744818292,-18,-18,-7,-2,-20,-22,82,-29
1530606744818292,-1,27,5,1,87,11,-84,-48
1530606744819289,-5,38,-4,1,22,-28,22,25
1530606744819289,-4,-10,-5,-4,-36,40,22,-2
1530606744840233,-7,-53,-14,-1,-1,16,20,-17
1530606744840233,8,-37,-10,-8,-17,13,65,65
1530606744842228,-1,31,11,-2,-41,-51,37,-16
1530606744842228,8,-5,0,0,-2,13,-48,-26
1530606744854196,-16,9,-4,-8,43,-52,12,21
1530606744854196,-17,-31,0,5,10,68,-55,-62
1530606744863172,6,36,6,4,42,15,5,-27
1530606744863172,31,-9,1,1,-20,-26,82,77
1530606744878132,-2,3,-3,0,6,-22,-82,15
1530606744878132,-1,-29,-5,-14,-28,-25,67,30
1530606744880127,-9,17,6,11,39,50,-40,-43
1530606744880127,6,57,28,17,99,49,108,18
1530606744900073,-9,-30,-22,-21,-61,-86,-83,-62
1530606744900073,12,-11,-1,-6,2,-6,-36,0
1530606744902068,-2,-39,-6,5,7,69,8,26
1530606744902068,-4,33,11,9,84,-8,-5,-47
1530606744914036,6,-3,-6,0,-57,6,-8,26
1530606744914036,5,23,8,5,39,-20,8,17
1530606744923012,-7,-31,-4,-13,-23,7,68,28
1530606744923012,2,5,-6,0,11,-8,-95,-42
1530606744937972,-11,-70,-8,-12,-28,-12,-10,3
1530606744937972,1,111,18,9,-13,34,47,-31
1530606744939967,15,-14,2,2,-33,-25,-32,60
1530606744939967,-21,-33,-15,-5,-28,8,-87,-81
1530606744960910,7,-15,-7,0,6,18,27,24
1530606744960910,16,64,13,5,-42,-42,-16,22
1530606744961908,1,-11,8,7,27,13,57,28
1530606744961908,-7,-40,-25,-17,-44,-23,51,-49
1530606744973876,4,37,21,10,68,32,-21,35
1530606744973876,-7,-66,-13,-4,-16,-25,-25,-16
1530606744982851,-16,19,1,-10,11,-37,2,-26
1530606744982851,10,-30,-6,-4,1,53,6,5
1530606744997812,2,15,5,10,15,43,7,4
1530606744997812,-13,-12,-3,0,-28,9,51,2
1530606744999807,11,27,-2,3,47,15,-33,-21
1530606744999807,-9,-52,-13,-13,-65,-42,7,44
1530606745020750,9,57,6,9,22,-15,-15,19
1530606745020750,-10,-43,-8,-11,-50,-13,32,-3
1530606745021748,1,-21,-7,1,-54,-11,-65,22
1530606745021748,15,92,42,7,39,49,97,-4
1530606745033715,-6,-77,-16,-10,-3,2,-30,-1
1530606745033715,11,31,15,13,24,-8,20,40
1530606745043689,10,-49,-14,-5,-44,-10,-26,-34
1530606745043689,4,-36,-13,-3,-40,-4,97,69
1530606745057651,-16,87,17,0,-17,-7,66,-7
1530606745057651,4,-17,-6,-4,83,44,-84,-11
1530606745064633,-19,-19,-6,-11,-37,-23,-7,-40
1530606745064633,7,-8,-3,10,53,-14,34,57
1530606745080590,-3,-18,-12,-11,3,-19,-28,-29
1530606745080590,-5,-2,-2,-1,-56,-49,7,30
1530606745082585,-3,25,8,-4,20,33,48,-24
1530606745082585,-13,-23,-6,17,55,52,-62,-24
1530606745103529,14,5,0,9,14,1,27,7
1530606745103529,-1,-16,-2,-1,15,-1,-45,5
1530606745104526,-13,15,-3,-3,-3,-37,46,6
1530606745104526,0,-8,-3,-16,-78,-16,-56,35
1530606745117492,4,-6,0,-5,6,4,35,-79
1530606745117492,2,10,-1,0,-14,-2,15,17
1530606745124473,-11,10,2,4,50,-16,17,-17
1530606745124473,-25,-40,-25,-15,-34,-17,-93,-30
1530606745140430,26,52,9,4,62,49,-28,48
1530606745140430,21,38,21,10,-8,1,16,3
1530606745142425,-8,-54,-12,-5,-17,17,11,-26
1530606745142425,-9,-5,-7,-5,14,-53,-44,-33
1530606745163369,-8,46,17,-1,-61,-11,12,-1
1530606745163369,-10,-21,-7,8,95,-22,16,22
1530606745164367,13,29,5,0,-48,45,19,50
1530606745164367,4,7,1,-3,20,-12,1,-13
1530606745177331,-6,-44,-20,-10,-12,-9,2,-22
1530606745177331,1,21,5,-2,11,32,-31,14
1530606745184313,-13,-8,2,1,35,-47,-2,-17
1530606745184313,0,-19,-5,6,-53,-34,9,44
1530606745200270,-2,-23,-1,-8,21,45,53,20
1530606745200270,5,62,8,3,-13,15,112,35
1530606745202265,6,11,0,1,-11,27,-113,-71
1530606745202265,0,-3,-4,-3,-22,-9,17,2
1530606745223209,-8,0,5,4,10,-24,32,-14
1530606745223209,11,-128,-28,-8,-52,-14,-46,21
1530606745225204,-33,89,14,-5,24,-30,-4,4
1530606745225204,18,19,18,8,57,28,40,13
1530606745237172,-7,-40,-20,-1,-51,-20,-36,32
1530606745237172,-5,-45,0,-3,24,4,26,-76
1530606745244153,11,-38,-17,3,75,57,-52,17
1530606745244153,2,-16,-4,-17,-36,-17,-16,22
1530606745260110,-12,33,14,8,17,1,15,-39
1530606745260110,-18,56,-4,2,17,-20,-65,-26
1530606745262105,22,-9,16,7,-94,-43,97,74
1530606745262105,0,-4,1,-10,-50,12,44,-5
1530606745283049,12,-80,-12,-4,49,66,-42,-36
1530606745283049,-12,107,18,13,27,-2,-28,-59
1530606745285044,11,-3,-2,-6,22,-72,99,58
1530606745285044,-8,-40,-8,-2,-37,32,-54,3
1530606745297011,8,31,-6,-6,-60,-30,45,33
1530606745297011,-22,-16,4,0,-4,38,12,40
1530606745303993,14,-34,-2,-2,18,-1,17,-32
1530606745303993,14,24,5,17,21,-41,81,51
1530606745320948,-29,28,6,-13,37,-8,-120,-88
1530606745320948,22,21,-12,0,90,14,50,-38
1530606745321945,-20,-57,-10,-13,-77,30,-21,51
1530606745321945,28,67,28,33,112,-5,59,47
1530606745342889,-35,16,-12,-11,-97,6,-61,-73
1530606745342889,-13,-54,-12,1,37,15,1,100
1530606745344884,8,-18,-8,-2,-47,-25,-62,-7
1530606745344884,-16,-31,-8,-12,35,19,9,-17
1530606745356851,11,8,14,6,29,-61,26,54
1530606745356851,5,-42,5,4,-68,24,72,36
1530606745365828,-2,26,-5,6,57,63,-6,-62
1530606745365828,-15,-6,-8,-8,71,-35,-28,-61
1530606745380787,9,82,-4,-2,-39,-12,117,46
1530606745380787,-9,-30,6,-6,-69,-97,-128,-73
1530606745381785,0,-30,-6,-9,55,77,126,119
1530606745381785,-6,-35,-4,1,-18,-2,-119,-86
1530606745402729,0,9,6,1,-63,-15,90,-22
1530606745402729,6,-9,-8,-9,23,13,-20,53
1530606745404724,-2,25,-4,-14,-115,-55,-8,-102
1530606745404724,-25,0,3,14,63,89,26,74
1530606745416691,24,-53,-3,3,-53,-58,-1,3
1530606745416691,3,25,-11,-21,19,28,-60,20
1530606745425668,-1,40,22,6,-36,1,21,36
1530606745425668,0,-22,-13,-9,30,-21,-92,-69
1530606745440628,0,-12,4,2,-12,48,4,72
1530606745440628,6,33,9,18,2,20,98,-53
1530606745442622,-48,-115,-26,-17,9,-72,-128,-80
1530606745442622,9,51,-6,-2,-9,18,73,27
1530606745463566,-4,92,28,13,-12,-22,26,43
1530606745463566,18,-36,-14,-10,2,-5,47,55
1530606745464564,16,38,3,8,9,24,-9,20
1530606745464564,-12,-73,-16,-8,-97,-67,23,-74
1530606745476531,3,-11,-12,-9,59,43,-45,52
1530606745476531,-20,25,15,5,-45,-1,-58,-83
1530606745485507,0,1,7,21,115,25,115,58
1530606745485507,8,12,-1,-12,-108,20,-20,12
1530606745500467,3,-48,-13,-9,-5,-66,51,-7
1530606745500467,0,-1,-3,11,16,39,-64,-46
1530606745502462,-7,10,0,3,100,20,-3,-7
1530606745502462,14,29,13,1,-1,-24,-35,-1
1530606745523406,11,-20,1,4,33,37,-23,49
1530606745523406,-8,-1,-9,-5,-58,-24,-7,-29
1530606745524403,7,5,-3,-5,-67,-82,-74,31
1530606745524403,-6,15,-1,-6,-10,42,70,-26
1530606745536371,7,-36,0,6,74,24,-49,3
1530606745536371,12,7,7,-3,16,-36,127,90
1530606745545347,-2,71,23,8,-86,34,-51,-56
1530606745545347,9,-36,1,2,6,-14,-22,28
1530606745560307,4,9,-14,-9,48,-18,53,-22
1530606745560307,-18,41,-8,-16,-57,-46,-121,-64
1530606745562302,6,-21,-3,4,71,28,33,52
1530606745562302,-16,-28,0,-1,-125,-38,11,10
1530606745583246,1,-12,-4,-9,112,58,39,-27
1530606745583246,-8,-49,-15,8,2,-20,-53,20
1530606745584244,0,6,-2,8,-11,19,-47,-28
1530606745584244,-15,29,11,5,60,13,79,38
1530606745597209,10,-24,-16,-13,-58,-34,-56,12
1530606745597209,8,-22,9,6,8,46,117,-32
1530606745606185,8,37,0,3,-13,-52,30,1
1530606745606185,-28,39,0,-19,-81,-66,-103,-36
1530606745620147,-16,-47,-12,-11,20,87,43,21
1530606745620147,8,10,9,19,82,35,97,-10
1530606745622142,5,-113,-32,-13,-88,-86,-81,-86
1530606745622142,7,92,-1,-10,127,63,-57,-29
1530606745643086,-15,-8,11,12,0,-21,98,12
1530606745643086,-5,-52,-19,-15,-29,2,-51,95
1530606745645081,7,-15,8,8,127,-12,76,56
1530606745645081,-36,-30,-23,-15,7,-84,-95,-75
1530606745657049,-2,-3,-1,-8,-7,40,-64,3
1530606745657049,22,22,5,6,31,12,100,97
1530606745666025,-14,6,-7,-3,60,48,-43,-87
1530606745666025,9,17,13,7,16,-49,-58,11
1530606745680985,-8,19,9,11,-18,45,70,-31
1530606745680985,9,-38,-5,7,40,-75,-53,67
1530606745681982,1,5,-5,-21,-65,82,38,-31
1530606745681982,12,-40,0,17,-45,2,7,63
1530606745702926,23,101,29,29,99,38,68,35
1530606745702926,-3,-13,-1,-21,-108,-44,-124,-123
1530606745704921,-14,7,-9,-9,6,-33,-52,83
1530606745704921,3,-61,16,30,55,127,127,41
1530606745716888,17,17,-26,-28,-128,-128,-82,8
1530606745716888,11,38,24,10,105,127,127,108
1530606745725865,29,-21,-3,15,5,-60,-54,-60
1530606745725865,-58,21,-21,-34,-65,13,-45,-17
1530606745740825,30,-29,17,15,18,-32,-7,22
1530606745740825,-7,18,2,3,-66,-62,-31,37
1530606745741822,-7,-60,-16,-12,62,-5,73,-1
1530606745741822,16,61,8,5,12,34,-60,-67
1530606745762766,-4,-41,0,9,41,34,-38,-22
1530606745762766,0,47,-12,-19,-109,-21,113,64
1530606745764761,2,-14,23,25,97,31,-54,-46
1530606745764761,5,-19,-25,-26,-41,-42,106,26
1530606745776728,5,-10,8,0,-44,-38,37,80
1530606745776728,-14,34,2,4,55,60,-111,-128
1530606745785705,-32,15,7,-6,-100,-34,11,25
1530606745785705,39,25,11,10,-39,14,127,86
1530606745800664,-10,-17,-15,-2,89,37,-119,-62
1530606745800664,-9,-54,-5,-3,9,-47,-7,8
1530606745802660,19,-36,-3,-7,-37,52,56,32
1530606745802660,0,79,7,8,2,-9,-33,-35
1530606745823603,-17,-15,3,0,38,-29,51,35
1530606745823603,-2,5,13,16,30,-8,33,-4
1530606745824601,-9,15,-13,-19,48,27,-50,-25
1530606745824601,6,-75,-15,-2,-91,-52,4,52
1530606745836569,27,11,3,6,-26,21,57,-12
1530606745836569,-33,7,-10,-6,27,-17,-110,-128
1530606745845545,13,58,10,5,-33,-4,34,56
1530606745845545,7,-17,5,15,127,79,90,10
1530606745860505,-31,29,-13,-20,-108,-64,-72,-2
1530606745860505,13,-31,4,-1,-36,14,55,28
1530606745862499,-15,2,-10,-13,-76,-40,16,-6
1530606745862499,10,-13,-1,-2,-62,36,-28,66
1530606745883443,-13,-54,-1,1,-33,2,-57,-64
1530606745883443,6,35,4,-3,22,-20,-69,-9
1530606745884441,-25,20,4,13,-31,-12,-24,50
1530606745884441,-1,-38,7,2,127,38,58,-7
1530606745896408,-12,48,-15,-3,-84,9,-45,-58
1530606745896408,18,-20,0,-2,-14,15,-62,91
1530606745905384,3,13,8,24,35,36,30,-56
1530606745905384,-14,-44,-5,-2,-22,-55,-4,-15
1530606745920344,-5,-4,-5,-13,28,26,-9,-8
1530606745920344,8,1,-5,-6,22,17,34,58
1530606745922340,16,-41,-5,-3,-28,4,30,23
1530606745922340,1,84,15,5,-12,-59,-123,-83
1530606745943283,-9,-7,-9,1,62,-5,39,104
1530606745943283,-20,-5,-6,-17,-65,-21,28,-94
1530606745944281,25,-31,9,2,-15,76,127,57
1530606745944281,-12,-9,-23,-9,-26,-19,-37,-49
1530606745956249,2,-5,9,12,89,-21,-10,-54
1530606745956249,8,12,-1,4,15,4,38,25
1530606745966222,-2,-3,-4,-8,-39,-49,104,38
1530606745966222,9,-29,-2,-5,-23,16,-66,-49
1530606745980184,-10,3,0,-4,1,-12,-10,7
1530606745980184,-25,-28,-8,-2,-18,26,28,61
1530606745987166,-10,16,-12,-18,102,-9,-106,-89
1530606745987166,10,-2,8,11,-36,-1,48,76
1530606746003123,-4,18,1,-2,-34,-16,-66,13
1530606746003123,7,-20,-2,12,21,24,62,69
1530606746005118,8,42,1,-9,7,-14,-69,-22
1530606746005118,13,-59,4,7,-24,-40,-3,74
1530606746026062,-7,0,2,-2,9,46,26,-80
1530606746026062,-22,52,5,1,-37,-26,-17,-80
1530606746027059,-11,-33,-1,5,-21,-50,-51,-15
1530606746027059,-27,-30,-23,-26,-29,2,9,33
1530606746040024,26,-25,8,6,-15,6,73,34
1530606746040024,19,4,1,0,38,-20,77,45
1530606746047006,-17,5,-2,-5,-18,29,-71,-9
1530606746047006,5,3,-3,-1,52,14,19,-15
1530606746062963,11,-7,0,8,52,-1,88,3
1530606746062963,10,5,4,-1,-60,0,0,-21
1530606746064958,-13,-19,-2,0,-50,-45,32,32
1530606746064958,-3,12,-1,-6,63,68,-66,2
1530606746085902,0,45,9,-1,2,22,-31,-5
1530606746085902,4,-27,-9,-9,14,-45,-5,2
1530606746086899,-5,3,4,11,8,2,29,12
1530606746086899,16,-56,-6,-1,-19,34,58,4
1530606746099864,-7,47,13,28,-22,-26,17,10
1530606746099864,7,-41,-2,-7,-14,10,-91,-29
1530606746106846,3,4,-4,0,6,28,40,39
1530606746106846,8,84,16,10,45,-5,-45,-5
1530606746122805,-27,-58,-29,-34,-53,-48,-94,-70
1530606746122805,4,-14,-6,3,44,16,57,62
1530606746124799,0,-61,-12,-8,11,3,41,12
1530606746124799,14,56,18,9,8,7,18,47
1530606746145742,-22,-16,-2,-2,-23,-49,-35,51
1530606746145742,-10,-11,2,-2,14,54,-4,-57
1530606746146739,2,13,-3,2,0,5,-46,18
1530606746146739,-4,23,-1,-14,-81,-1,74,1
1530606746159704,21,-1,4,4,14,55,-15,55
1530606746159704,-35,-10,-4,-2,-45,-15,6,-3
1530606746166686,5,-4,0,6,25,11,55,43
1530606746166686,-14,-6,-5,4,10,-34,-75,-53
1530606746182643,8,0,4,-3,12,-16,69,13
1530606746182643,8,-22,-8,8,11,22,-19,-4
1530606746184638,10,50,8,-16,-19,5,26,9
1530606746184638,-6,33,5,8,-77,-4,-42,-91
1530606746205581,9,-30,-6,-2,-18,24,61,28
1530606746205581,-5,0,-1,1,59,-30,-41,-24
1530606746207577,-13,-34,-2,-7,-107,-29,-32,-15
1530606746207577,8,41,7,-3,23,12,73,56
1530606746219544,15,-63,-10,-11,11,-17,15,2
1530606746219544,-2,53,-2,-5,-29,29,-3,-10
1530606746226526,-2,40,18,21,68,5,41,-37
1530606746226526,-11,-52,-20,-19,-9,-33,56,70
1530606746243480,-15,31,2,4,-2,21,-85,-73
1530606746243480,13,-26,-1,-3,-33,-14,-2,58
1530606746244478,17,0,0,4,83,60,59,-16
1530606746244478,-10,-24,0,7,90,-42,2,-4
1530606746265422,-4,9,-15,-16,-73,-20,6,-10
1530606746265422,9,1,2,12,57,49,62,50
1530606746267417,-3,7,-4,1,2,-12,-93,-11
1530606746267417,0,-6,-1,-8,16,-37,-28,-77
1530606746279384,-11,-9,8,10,-38,-41,-28,19
1530606746279384,-10,11,9,-4,-6,46,15,-24
1530606746288361,1,-9,-9,-6,-49,-23,22,7
1530606746288361,30,58,14,17,47,68,-12,55
1530606746303320,-1,-22,-7,-4,42,34,63,-14
1530606746303320,1,4,-2,9,25,-48,-36,3
1530606746304318,-4,6,9,-9,-61,-33,-23,-18
1530606746304318,-12,-93,-20,-14,-64,-9,-30,-21
1530606746325262,27,97,14,2,1,43,105,43
1530606746325262,-28,-59,-8,-5,-17,-40,-37,-49
1530606746327257,3,57,4,3,66,-36,4,22
1530606746327257,-8,-28,-1,8,43,4,24,-13
1530606746348200,20,4,12,11,25,59,-28,107
1530606746348200,2,-12,-8,-6,5,-32,22,-67
1530606746350195,-9,-5,0,1,-30,1,-12,-29
1530606746350195,-19,-21,-2,2,-3,18,24,10
1530606746363160,0,24,0,-13,-36,-17,32,-6
1530606746363160,24,56,6,-11,-13,56,-39,-14
1530606746365155,2,-14,-5,-1,-6,12,6,10
1530606746365155,4,-15,-6,-4,-27,-54,-48,40
1530606746385102,-22,-18,-3,-1,-35,-38,33,-8
1530606746385102,-5,7,-6,-5,-25,-13,-46,31
1530606746387096,8,-3,0,-6,1,38,105,-26
1530606746387096,14,-17,-1,6,46,-44,-51,5
1530606746399064,-21,36,14,2,19,40,-12,-14
1530606746399064,-4,3,-3,-2,-1,13,65,10
1530606746408040,-4,-23,-13,-7,-20,-1,-80,27
1530606746408040,-9,-59,-6,-4,-27,-6,-6,-29
1530606746423000,-12,47,-5,-7,60,-60,-55,-19
1530606746423000,13,13,7,6,10,15,9,5
1530606746424995,9,-32,3,14,57,40,69,36
1530606746424995,18,67,6,-4,-9,5,-66,-1
1530606746445939,-13,-71,-16,-2,6,-14,-52,-66
1530606746445939,-5,5,7,-2,-55,-29,75,11
1530606746446936,7,9,7,-1,-29,-50,-49,32
1530606746446936,-18,-1,-10,-22,-86,49,82,-45
1530606746458905,24,22,13,23,72,62,5,19
1530606746458905,-1,-24,-12,-8,27,-31,9,-3
1530606746467880,1,-18,5,6,15,8,16,-1
1530606746467880,5,37,10,13,62,-34,-26,23
1530606746482840,-13,-35,-13,-7,-105,-8,40,-8
1530606746482840,-10,-18,-11,-15,-43,-13,-73,-64
1530606746484835,18,67,15,4,91,32,43,21
1530606746484835,-7,-24,-12,-18,76,34,-79,38
1530606746505779,17,2,-7,3,-4,-15,45,-81
1530606746505779,-24,-6,-5,0,20,-28,7,14
1530606746506776,-8,-10,-9,-5,-18,-31,-74,-32
1530606746506776,0,-2,4,3,3,16,38,37
1530606746519741,8,-29,0,0,-8,-6,-1,11
1530606746519741,22,-72,9,17,35,13,41,2
1530606746528718,1,113,1,-4,19,12,-62,-23
1530606746528718,1,5,12,0,-11,-27,127,17
1530606746542680,-24,-30,-18,-14,-63,-5,-91,-18
1530606746542680,2,-16,-2,-4,-9,18,83,-16
1530606746544675,-10,-5,-3,-8,28,12,-47,50
1530606746544675,-2,-3,1,17,-55,9,127,38
1530606746565619,-6,-7,4,-16,-9,-30,-69,-61
1530606746565619,0,24,-6,-1,31,31,-106,-68
1530606746567614,8,-27,-6,13,-18,-13,55,49
1530606746567614,9,12,-2,-10,-15,-24,77,20
1530606746579582,8,-17,11,12,-5,16,3,61
1530606746579582,-31,27,6,5,22,16,-50,-67
1530606746588558,7,-24,-54,-24,-29,-15,-68,79
1530606746588558,-2,-95,29,-36,-30,-63,19,27
1530606746603518,3,93,66,72,37,32,-50,-55
1530606746603518,28,-46,-8,9,51,33,80,96
1530606746604515,-29,-89,-2,1,30,-57,28,-34
1530606746604515,-15,-21,-50,-29,-41,-8,-128,-112
1530606746625459,7,-44,-28,-35,101,56,99,115
1530606746625459,0,64,36,33,-51,-13,-22,-18
1530606746627454,-9,-41,-2,-2,41,21,22,-5
1530606746627454,-2,91,-11,-2,-34,0,113,37
1530606746639421,15,-17,11,7,35,0,68,86
1530606746639421,-23,23,-16,-20,-67,-88,-80,-63
1530606746648398,13,-55,10,1,-58,70,2,5
1530606746648398,22,54,40,34,56,9,65,94
1530606746663357,-14,-5,-24,-20,-74,-12,-107,-105
1530606746663357,10,35,-6,0,49,30,79,118
1530606746664355,6,75,23,4,-87,-60,7,33
1530606746664355,-7,-76,-10,12,33,55,-69,-71
1530606746685299,-10,-24,-10,-12,20,-51,13,38
1530606746685299,0,-36,-26,-21,-65,1,15,64
1530606746687294,-23,-29,-12,-1,-22,-9,27,-77
1530606746687294,-1,41,28,0,6,-19,-65,18
1530606746699261,2,3,-17,13,-27,1,84,25
1530606746699261,-9,-98,-10,-14,-24,-42,-76,-12
1530606746708238,9,106,13,-4,94,96,78,-29
1530606746708238,-42,-29,-25,-2,45,53,-111,-32
1530606746723198,29,-1,-13,-14,1,-38,3,-57
1530606746723198,-3,-3,-3,-10,26,-15,121,46
1530606746725192,24,-21,1,7,-50,-70,30,6
1530606746725192,-11,-11,4,20,63,-7,-10,-28
1530606746745139,-16,-19,12,-12,-69,39,79,5
1530606746745139,7,85,22,6,24,-11,-128,28
1530606746747134,-4,-106,-17,-9,-15,7,10,-126
1530606746747134,9,89,-5,1,13,21,-40,-2
1530606746759102,-10,67,12,9,-22,-30,-12,80
1530606746759102,8,4,0,-4,20,51,63,20
1530606746768077,-5,-69,-6,-6,-14,21,-80,-42
1530606746768077,10,-45,-11,3,-44,-39,47,21
1530606746783037,2,64,16,1,5,3,-35,20
1530606746783037,-15,-8,-5,-7,39,-7,33,13
1530606746785032,8,-13,9,9,-6,10,2,34
1530606746785032,20,-22,-6,1,21,19,62,-57
1530606746805976,-9,-45,-11,14,41,-33,-16,-3
1530606746805976,8,-19,17,-1,-59,-37,77,-8
1530606746806974,-44,75,4,7,108,81,-39,-15
1530606746806974,3,21,-16,-1,-14,-35,12,-90
1530606746818941,12,-105,-11,-14,8,-57,13,10
1530606746818941,11,104,27,2,-5,20,39,62
1530606746827917,-4,-92,-11,5,38,-25,-14,73
1530606746827917,-10,60,3,0,-31,-4,-34,-25
1530606746842877,-5,-27,-14,-2,53,41,-13,-20
1530606746842877,13,-9,19,15,-11,-9,95,15
1530606746844872,2,61,11,-16,-125,-63,-66,-38
1530606746844872,12,-13,2,14,88,123,66,37
1530606746865816,-12,-102,-30,-12,15,-58,-58,49
1530606746865816,-5,19,-12,-6,-38,-1,32,57
1530606746866813,5,83,19,7,55,-34,-24,8
1530606746866813,20,26,14,3,-77,-3,-3,59
1530606746878781,-17,4,-2,-1,28,41,-61,-109
1530606746878781,-9,-70,-21,-1,-18,7,-69,-45
1530606746888755,8,-22,-13,-5,-57,-13,-7,67
1530606746888755,-10,31,10,-9,46,-71,6,53
1530606746902718,1,36,16,-1,-35,51,17,29
1530606746902718,5,-20,5,7,107,72,-8,-51
1530606746909699,-2,15,-18,16,32,-26,37,-48
1530606746909699,31,-34,21,4,2,12,100,81
1530606746925656,-43,-3,-26,-20,-119,-79,-66,-23
1530606746925656,0,-9,0,0,33,19,-85,-26
1530606746927651,1,38,16,8,64,25,113,-13
1530606746927651,3,-42,-21,-13,-72,-11,-48,4
1530606746939618,23,53,21,1,33,27,118,62
1530606746939618,-12,-33,-19,-1,-68,-34,1,1
1530606746948595,-15,-73,-10,-17,51,18,2,-39
1530606746948595,-1,25,-6,8,-91,-44,5,-87
1530606746962557,10,-6,6,13,37,-12,31,68
1530606746962557,5,-27,-21,-13,78,58,-6,-104
1530606746969539,-12,104,54,17,-48,-41,-20,0
1530606746969539,-37,-128,-51,-30,53,26,-3,76
1530606746985496,22,88,32,29,67,28,-45,-52
1530606746985496,-1,-32,-28,0,-16,7,-55,19
1530606746987491,14,-6,12,12,-19,-29,39,53
1530606746987491,6,12,-8,-23,-66,-32,-45,-32
1530606747008435,-22,57,30,14,32,-47,59,-38
1530606747008435,-5,-9,-29,1,-60,18,-46,23
1530606747009432,10,-128,-13,-54,-41,57,-10,-29
1530606747009432,-22,112,-20,27,12,-36,-36,-26
1530606747022397,19,-63,43,13,-2,11,10,-4
1530606747022397,-13,59,2,9,5,-48,13,-8
1530606747029378,1,-20,-17,-8,-21,11,26,-19
1530606747029378,-6,-42,-11,-30,-15,-21,-46,-80
1530606747045336,18,-29,-26,-4,17,29,83,74
1530606747045336,0,34,26,3,-6,-32,-42,-82
1530606747047331,7,7,-22,1,106,22,37,60
1530606747047331,-9,-44,14,7,29,21,34,38
1530606747068274,-16,77,-8,3,93,-33,-73,-70
1530606747068274,26,-22,15,-14,-33,80,94,70
1530606747069272,-20,-38,-25,-9,-2,-24,-37,32
1530606747069272,-13,33,6,-1,12,-35,-71,-40
1530606747082237,24,-8,35,28,44,32,60,95
1530606747082237,-1,-52,-16,-8,-3,-35,80,-62
1530606747089218,4,96,1,-8,-29,-23,-43,-5
1530606747089218,-2,-74,9,22,48,23,77,73
1530606747105176,-22,23,-20,-23,-33,34,20,-25
1530606747105176,10,18,17,24,33,-16,-64,12
1530606747107171,0,-41,-8,-15,-88,-23,-3,-20
1530606747107171,20,13,2,-21,-89,16,-23,-40
1530606747128115,-6,23,-5,32,35,84,108,-10
1530606747128115,-17,-86,-19,-10,4,-35,-99,24
1530606747131107,4,120,20,19,17,-10,86,105
1530606747131107,-31,-89,-26,-18,22,-19,-104,-75
1530606747142077,8,45,5,-22,-30,-22,48,97
1530606747142077,-9,-40,-12,-1,0,-30,-59,-16
1530606747149058,1,-14,-19,-1,-84,-11,-5,-43
1530606747149058,34,82,58,17,81,62,84,67
1530606747166013,-16,-65,-30,-10,-41,-76,2,6
1530606747166013,-17,65,8,-2,44,58,-36,-7
1530606747167011,36,25,35,25,74,47,9,-54
1530606747167011,18,-14,-33,-5,-53,-37,-5,1
1530606747187954,-20,2,6,2,28,20,41,-110
1530606747187954,8,-17,-5,-7,-83,-90,41,76
1530606747189949,-23,-62,-27,-15,37,13,-87,-13
1530606747189949,-22,-8,-8,-12,-57,60,1,8
1530606747201917,22,-7,8,-15,11,43,36,27
1530606747201917,-3,30,5,21,1,-39,2,-68
1530606747209896,-10,10,3,4,-7,-69,45,-14
1530606747209896,5,2,-2,11,14,11,-13,54
1530606747224856,-9,-70,-32,-26,-50,-1,-61,25
1530606747224856,-1,65,19,-3,5,28,101,22
1530606747225854,-9,-100,-16,-3,-9,-16,3,-27
1530606747225854,10,103,50,25,35,6,11,-24
1530606747247794,3,-103,-18,-12,-81,-54,-36,1
1530606747247794,16,59,-3,-5,55,41,38,10
1530606747247794,9,60,21,12,-28,11,1,-33
1530606747247794,8,-53,-20,-11,-27,-11,65,70
1530606747270733,7,-26,-4,2,16,-16,-57,-4
1530606747270733,-30,-13,-6,-7,61,-36,-1,-47
1530606747271730,10,-78,-15,-12,-23,50,-52,8
1530606747271730,10,127,57,20,51,-35,-48,1
1530606747284696,-15,-31,-6,-9,-93,30,5,-3
1530606747284696,-8,-58,-20,-5,20,12,-1,13
1530606747285693,-11,18,5,13,85,-38,2,41
1530606747285693,-25,-54,-30,-15,-25,12,-13,-58
1530606747307634,18,15,-3,-7,55,-3,-49,-12
1530606747307634,-1,14,8,-5,-63,-12,-51,-66
1530606747308632,-9,-32,-1,3,10,26,-5,52
1530606747308632,14,-22,11,7,-10,-48,18,-21
1530606747330573,-9,118,-5,1,-44,-30,7,-101
1530606747330573,6,-44,2,-13,-31,83,-5,85
1530606747331571,3,9,-1,3,13,-20,9,-28
1530606747331571,5,17,4,13,13,4,29,6
1530606747344535,5,-28,-2,-2,1,5,42,32
1530606747344535,-3,59,26,2,42,-12,-20,-39
1530606747345533,0,-19,-25,-11,-60,7,20,48
1530606747345533,-25,-65,-8,2,37,-60,6,7
1530606747367474,-4,11,-5,1,127,68,32,-25
1530606747367474,27,21,0,10,8,24,76,97
1530606747368472,-10,-68,-4,-3,-8,0,-27,-71
1530606747368472,-11,61,-14,-8,39,12,7,107
1530606747390413,11,-9,1,0,-32,-100,-128,-80
1530606747390413,-8,-76,-11,-4,31,5,67,39
1530606747390413,11,91,21,-1,17,31,101,29
1530606747390413,2,-47,-8,-6,-32,32,2,40
1530606747405373,-7,-27,-10,-6,-29,-36,-59,-30
1530606747405373,-14,5,6,6,7,-5,15,9
1530606747405373,-7,-7,-12,-7,-4,-37,-64,-14
1530606747405373,6,1,7,5,-26,-5,9,-12
1530606747427314,-2,-44,1,8,47,72,-73,6
1530606747427314,26,105,33,9,-27,-10,61,32
1530606747428312,-9,-21,-10,-3,-10,-7,-70,-53
1530606747428312,-7,-12,-7,-5,22,-17,87,-29
1530606747450253,11,-17,0,1,-15,14,8,61
1530606747450253,0,-42,-18,-12,-22,-23,-2,-21
1530606747450253,-11,-16,2,4,-7,-7,-22,-3
1530606747450253,17,-5,4,-5,-65,3,24,5
1530606747465213,-17,75,19,7,38,-17,-17,-33
1530606747465213,9,18,10,6,0,15,-19,6
1530606747465213,4,-13,-9,-3,13,6,34,25
1530606747465213,5,41,4,0,29,28,-48,-33
1530606747487154,-6,-71,-20,-8,-44,-10,42,40
1530606747487154,-10,-1,-2,-1,-22,-31,-41,-44
1530606747488152,7,-8,10,4,2,18,20,31
1530606747488152,-13,-46,-16,-10,-15,-18,-22,-30
1530606747510093,3,36,7,-6,-43,-6,11,10
1530606747510093,-3,-23,-3,0,14,-19,-18,3
1530606747511091,-4,8,-2,5,50,-11,-5,-7
1530606747511091,2,-35,-10,3,46,44,12,13
1530606747525053,1,3,-11,-16,-73,4,9,39
1530606747525053,-6,13,25,8,-40,-23,-16,-76
1530606747526051,-5,80,-6,16,10,37,40,51
1530606747526051,-3,-9,-7,0,22,13,-61,-8
1530606747546994,20,-44,2,-1,2,-11,12,-20
1530606747546994,-6,-53,-20,-22,-20,-23,9,50
1530606747547992,-1,42,7,0,-33,-16,57,-2
1530606747547992,1,-17,20,14,-12,2,27,-23
1530606747569933,-6,7,-11,-7,18,-17,-42,35
1530606747569933,-7,-14,-12,0,30,27,4,-9
1530606747570930,13,4,8,0,-22,21,50,12
1530606747570930,2,-31,-4,2,23,-7,5,-9
1530606747584893,1,12,0,-7,-54,-42,-26,-12
1530606747584893,-4,23,2,1,-34,-39,53,-6
1530606747585890,14,-21,9,15,76,106,3,29
1530606747585890,-5,21,-14,3,8,17,42,-10
1530606747607832,-25,9,18,-2,-47,-3,-74,-64
1530606747607832,9,-2,-14,2,-1,0,-13,15
1530606747607832,6,69,19,-4,-16,-71,79,50
1530606747607832,-4,-9,2,8,81,-21,-98,-57
1530606747629773,15,-102,-15,12,-6,66,127,71
1530606747629773,-10,68,14,-4,-35,-13,-49,-41
1530606747630770,-12,-105,-12,2,23,7,10,-1
1530606747630770,15,26,8,-10,-34,-8,22,6
1530606747644733,-5,62,-4,-2,10,-12,0,-25
1530606747644733,5,-43,6,2,44,-5,6,15
1530606747645731,-5,-1,-16,-7,46,-14,-45,-28
1530606747645731,-7,-32,9,-2,-108,7,32,25
1530606747667671,-3,-25,-5,4,22,44,16,34
1530606747667671,2,10,-9,-4,2,-26,-31,3
1530606747668669,-11,-89,-10,0,-3,-8,33,13
1530606747668669,-15,63,5,5,57,24,-113,-50
1530606747689613,1,45,14,4,36,-13,66,30
1530606747689613,-4,-3,-22,-5,-87,-75,-68,-42
1530606747690610,-2,-128,12,-13,4,79,65,34
1530606747690610,12,76,-10,1,-8,1,-16,44
1530606747704573,10,-34,2,2,10,16,96,-11
1530606747704573,-16,-49,-8,1,-45,-61,-88,-40
1530606747705571,8,16,13,3,20,8,-53,-3
1530606747705571,-4,-41,-17,-6,-10,18,89,18
1530606747727512,2,71,20,13,63,-17,-126,-46
1530606747727512,-11,-60,-25,-23,-48,26,10,22
1530606747734493,5,37,0,5,19,0,3,-32
1530606747734493,-1,-40,13,-8,-21,-13,87,4
1530606747749453,-3,45,-20,-6,-37,-38,14,14
1530606747749453,7,9,22,6,46,47,-46,-47
1530606747750450,-3,51,2,-1,-6,-25,0,-15
1530606747750450,5,-52,-2,-5,-30,-58,28,45
1530606747765410,-7,-92,-15,-11,-64,35,78,21
1530606747765410,-1,-27,-10,-1,46,77,-29,-18
1530606747765410,10,127,32,14,-7,-35,-50,44
1530606747765410,-9,-55,-15,-8,-85,-4,-62,-53
1530606747787351,1,20,9,11,38,-10,-19,7
1530606747787351,21,-71,-3,3,40,-9,27,47
1530606747788349,9,84,14,-8,18,10,-19,-33
1530606747788349,-1,-45,4,11,59,-35,-9,-1
1530606747810290,1,-79,-9,-10,-17,-5,-31,57
1530606747810290,-5,19,13,21,71,33,40,-23
1530606747811288,-12,-71,-23,-8,-65,26,6,7
1530606747811288,3,68,5,-7,-12,-43,-25,23
1530606747825251,-2,-12,-6,-9,16,39,-10,-32
1530606747825251,4,33,12,9,29,-3,88,67
1530606747825251,-18,-33,-8,3,61,-26,-37,-88
1530606747825251,-5,85,9,6,3,8,-19,28
1530606747847192,8,-70,-8,8,8,26,117,33
1530606747847192,-12,115,8,-7,-12,-75,-58,-81
1530606747848189,-4,-61,-19,-21,-76,8,31,42
1530606747848189,1,26,10,10,-73,32,32,9
1530606747870130,18,-53,-18,-21,-51,-26,11,35
1530606747870130,-1,-90,-9,3,30,97,127,31
1530606747871128,2,93,14,1,-26,-42,-110,-32
1530606747871128,-6,-76,-15,-1,29,-11,58,-32
1530606747884093,-19,-19,-9,-4,-53,-57,-81,-45
1530606747884093,1,36,2,-7,24,51,-34,-41
1530606747892072,4,8,10,7,-27,22,16,46
1530606747892072,1,-49,1,11,42,27,95,38
1530606747907031,-4,10,11,4,32,1,-64,-38
1530606747907031,-5,-26,-27,-16,-91,-35,-33,14
1530606747908029,-6,-31,-12,-4,-63,-28,12,11
1530606747908029,-1,70,9,-11,-13,5,-51,3
1530606747929970,15,-10,3,2,20,42,52,-62
1530606747929970,-23,-61,-8,1,49,-6,-13,13
1530606747930968,7,43,5,7,38,-5,13,-17
1530606747930968,7,-93,-7,-4,7,-37,-2,82
1530606747944930,-15,63,-5,-7,-3,-3,-83,-30
1530606747944930,17,108,21,15,57,14,20,19
1530606747945928,-4,-103,-22,-12,-62,26,77,41
1530606747945928,4,88,17,2,44,-17,-128,-120
1530606747967868,-4,10,15,20,56,27,104,62
1530606747967868,2,-45,-7,-6,-11,-32,-74,6
1530606747967868,3,-72,-14,-4,-14,-17,-15,3
1530606747967868,3,-13,-9,-15,-22,-7,35,10
1530606747989810,3,56,18,3,24,-45,-35,-21
1530606747989810,2,2,7,-1,5,59,70,46
1530606747990807,-1,-26,-2,13,26,-8,24,-18
1530606747990807,2,-32,-22,-14,14,46,-97,-62
1530606748003773,4,52,11,10,22,-24,28,26
1530606748003773,-3,-49,-10,-10,-18,-26,0,-12
1530606748012749,-1,36,2,-10,0,-14,-28,7
1530606748012749,-11,8,0,0,3,1,16,18
1530606748027709,-8,-12,-8,-5,6,-14,-4,10
1530606748027709,18,-29,-5,0,-19,6,11,27
1530606748028706,-12,-12,-24,-11,-7,-22,-15,-32
1530606748028706,8,94,50,17,9,0,-3,-10
1530606748049650,-5,-32,-17,-20,-99,24,-17,-4
1530606748049650,5,-32,0,16,89,37,33,4
1530606748050648,2,77,1,-8,-61,-31,-3,-16
1530606748050648,1,-26,-7,-1,19,18,58,31
1530606748064610,0,-44,-14,-8,-2,-37,-74,-3
1530606748064610,-6,21,17,8,-9,8,-70,-8
1530606748072588,-1,20,-6,3,70,5,-12,-22
1530606748072588,3,-19,-9,1,-29,-27,31,11
1530606748087548,-1,8,13,1,-11,21,28,-7
1530606748087548,-7,-13,-14,-15,-1,1,26,35
1530606748088547,5,-30,8,4,35,12,-24,33
1530606748088547,-6,4,1,2,-22,8,22,-15
1530606748109490,-5,-4,-4,8,35,-25,-25,-76
1530606748109490,-1,2,0,-1,-36,-6,55,24
1530606748110488,-1,10,1,-5,-34,-1,6,-1
1530606748110488,-3,-78,-16,-8,-18,6,59,-23
1530606748124450,12,106,40,20,46,9,-56,67
1530606748124450,18,-7,0,-5,-39,-24,15,-4
1530606748132429,-3,6,15,8,82,31,-19,-89
1530606748132429,-6,-82,-27,-12,-69,15,-24,27
1530606748147389,-11,-94,-19,0,35,1,46,29
1530606748147389,1,113,30,4,-19,-23,28,-24
1530606748148386,-5,-23,-3,5,15,-2,-49,24
1530606748148386,-2,-9,-5,-5,15,-13,-31,7
1530606748170327,-2,16,2,7,42,22,-1,-15
1530606748170327,8,-8,-7,-12,-70,-7,3,11
1530606748170327,5,-20,-5,-7,-44,-8,14,25
1530606748170327,-12,-57,-17,4,19,7,19,-16
1530606748184290,11,98,40,12,15,9,33,44
1530606748184290,-14,-65,-19,0,12,-5,-74,-20
1530606748192269,0,-36,-7,-9,-77,3,-31,-23
1530606748192269,0,-5,-10,-17,-16,-18,-52,-16
1530606748207228,4,-66,-14,1,58,41,77,34
1530606748207228,-6,103,24,18,4,-26,-30,-65
1530606748208227,-1,-52,-4,-3,-9,1,-49,-32
1530606748208227,4,45,-7,-1,27,-6,7,12
1530606748230167,-11,-42,-17,-18,-93,-28,38,-9
1530606748230167,-4,-26,4,6,34,17,25,24
1530606748231165,-3,-9,-5,-2,-15,-3,30,-35
1530606748231165,-12,18,11,3,29,-19,-75,-10
1530606748244130,5,13,0,2,11,-52,-5,3
1530606748244130,0,-40,-11,-9,-6,24,-11,4
1530606748252109,-8,12,2,10,73,14,8,43
1530606748252109,0,-35,2,1,16,41,127,24
1530606748267068,-4,74,-2,-13,-70,-19,-128,-100
1530606748267068,11,-19,-7,5,22,0,40,45
1530606748268066,-6,-56,-5,0,-19,-27,-9,6
1530606748268066,2,86,4,5,39,-25,-9,-10
1530606748290007,-2,-62,-3,3,-16,33,27,14
1530606748290007,-11,20,0,-8,-34,-16,-17,-2
1530606748291005,6,3,-4,-2,1,-3,18,8
1530606748291005,-5,-11,-8,-4,-5,15,-22,2
1530606748303970,6,10,-4,2,16,-7,24,-3
1530606748303970,-3,19,10,-6,-23,-19,-49,-39
1530606748312946,1,12,3,6,-4,-8,24,38
1530606748312946,-6,-48,-11,-3,-28,-10,-48,-21
1530606748327906,-1,78,12,-4,-19,28,-50,-24
1530606748327906,3,-38,-8,-5,36,15,-31,41
1530606748327906,-3,23,-2,7,24,-16,26,-21
1530606748327906,6,-48,-7,-7,7,-1,26,33
1530606748349847,-2,-1,4,2,-17,1,-8,3
1530606748349847,6,-36,-6,0,-7,-9,14,23
1530606748350845,2,61,11,-3,4,-24,7,-18
1530606748350845,6,-1,2,-2,0,31,-43,-3
1530606748363810,-22,-19,-7,-1,5,-3,-19,-31
1530606748363810,-2,-21,-10,-5,-21,-20,20,27
1530606748372785,3,31,6,-1,35,12,-17,6
1530606748372785,6,-25,0,6,22,-3,127,15
1530606748387746,-9,30,0,-7,2,1,-65,11
1530606748387746,-1,-47,-26,-12,-49,12,-42,-10
1530606748387746,16,108,33,6,-42,22,-5,0
1530606748387746,6,8,20,5,1,-12,50,45
1530606748409687,-5,-99,-29,-3,5,-10,-7,-5
1530606748409687,8,50,13,9,33,-18,55,6
1530606748410685,-10,-50,-17,-4,-17,24,13,18
1530606748410685,0,23,9,3,22,-7,-38,-43
1530606748424647,9,-41,-9,-7,12,-5,21,24
1530606748424647,-2,-5,1,-2,19,9,24,-4
1530606748432626,-7,0,2,-4,-32,-29,-39,-11
1530606748432626,-2,15,5,8,17,25,-10,42
1530606748447586,-1,-61,-15,2,20,6,-5,-40
1530606748447586,-8,78,16,7,-1,-24,-28,-57
1530606748448583,7,-9,-16,-19,-14,-16,-6,30
1530606748448583,-7,-25,0,0,-14,39,23,6
1530606748469527,5,3,5,2,-19,-7,24,-5
1530606748469527,-3,38,-2,-2,65,15,41,30
1530606748470524,-2,-51,-11,-2,-15,-3,-52,-45
1530606748470524,5,33,16,7,-46,-30,-31,3
1530606748493463,4,2,-1,1,32,25,57,50
1530606748493463,-12,-43,-7,-5,-12,-8,0,-50
1530606748493463,-5,21,1,-3,-53,-12,-11,4
1530606748493463,4,-10,0,6,29,27,-5,-15
1530606748507426,-4,4,-1,1,12,-19,-37,1
1530606748507426,-9,-60,-12,-8,-6,-45,-28,15
1530606748508423,-2,63,14,-3,-33,4,106,28
1530606748508423,-1,-3,-8,-14,-15,36,-67,-44
1530606748530364,9,12,3,3,-6,3,31,36
1530606748530364,-2,2,-7,-4,10,-3,-63,-59
1530606748530364,-2,-43,-4,8,17,-32,-14,23
1530606748530364,-7,38,-5,-2,4,-13,75,28
1530606748552306,0,-27,1,-12,-31,-35,-54,-18
1530606748552306,-9,9,-10,-5,-52,45,-60,-11
1530606748553303,7,0,2,16,93,16,30,28
1530606748553303,7,38,9,-3,-67,3,19,-6
1530606748567266,12,-15,0,7,16,32,39,5
1530606748567266,-9,0,-5,-5,-26,-30,-5,-18
1530606748568263,0,-25,7,2,63,50,-8,-6
1530606748568263,5,-3,-9,5,16,-33,-14,25
1530606748590204,-8,6,6,-5,-9,-14,1,-84
1530606748590204,15,16,13,14,-17,40,55,93
1530606748591202,-14,-41,-13,-8,20,-10,-12,-83
1530606748591202,-4,5,-3,-2,33,2,39,56
1530606748612146,-13,27,6,4,7,-26,25,-26
1530606748612146,0,-37,-5,1,16,-11,-35,-31
1530606748613143,3,-27,-11,-4,-9,48,36,71
1530606748613143,7,52,9,1,7,-37,-30,-8
1530606748627106,0,19,6,1,-1,14,28,10
1530606748627106,3,-24,7,4,26,-30,27,11
1530606748628103,-3,-82,-12,1,-11,-8,4,-7
1530606748628103,-7,72,16,1,-30,6,-88,-96
1530606748650044,-6,4,-22,-13,-25,-26,12,16
1530606748650044,5,10,6,-14,-27,30,36,24
1530606748651042,9,7,15,15,24,8,86,55
1530606748651042,-10,-45,-12,-3,9,-33,-117,-93
1530606748671986,3,-8,-2,-3,29,-5,87,69
1530606748671986,-24,-5,-11,-9,-23,-46,-55,-84
1530606748672983,12,48,8,0,-6,62,34,43
1530606748672983,11,-28,1,9,9,44,10,-3
1530606748686946,-19,-23,-15,-14,-13,-19,8,-57
1530606748686946,18,24,2,1,-1,11,0,56
1530606748687943,-7,29,4,2,63,-47,54,-7
1530606748687943,3,-20,0,-3,-32,10,-67,-45
1530606748709884,-7,-75,-17,-1,7,1,-32,33
1530606748709884,-1,96,22,-6,-11,5,39,12
1530606748710882,4,-64,-10,2,25,0,32,-38
1530606748710882,-17,-66,-22,1,-2,-26,33,71
1530606748732823,14,87,33,17,7,-8,-21,-41
1530606748732823,-1,-65,-12,0,2,12,-28,-26
1530606748732823,-2,50,7,-7,27,32,-19,-22
1530606748732823,-7,-58,-21,-16,-21,-13,-17,24
1530606748747783,-5,-12,-11,-4,-33,28,-17,15
1530606748747783,7,12,4,6,17,-7,58,1
1530606748747783,9,14,2,-10,-37,-11,1,9
1530606748747783,3,8,7,21,40,15,43,1
1530606748769724,12,13,2,-6,-27,-1,-39,43
1530606748769724,-4,10,9,9,20,0,27,-103
1530606748770722,-16,-96,-33,-19,-90,-36,27,28
1530606748770722,9,90,21,-4,-9,18,-60,-3
1530606748792663,-5,53,21,9,30,12,106,46
1530606748792663,-1,-57,-12,3,74,-8,-31,2
1530606748793661,-17,25,-9,-6,-91,-45,-111,-29
1530606748793661,3,-116,-20,-8,39,26,76,-2
1530606748807623,6,102,27,-5,21,24,-23,-27
1530606748807623,2,-56,2,11,12,-1,66,102
1530606748808621,-19,-30,-17,-7,18,2,-70,-102
1530606748808621,-2,-25,7,1,25,-7,50,17
1530606748829564,-10,-52,-16,-5,-50,-9,-12,4
1530606748829564,-3,19,-7,-4,11,20,-36,8
1530606748830562,14,7,9,12,34,-26,-76,27
1530606748830562,-16,31,2,-8,-66,-31,13,15
1530606748852503,1,-4,-2,3,38,46,-6,-16
1530606748852503,3,1,-4,-8,-68,-13,59,19
1530606748853500,12,-6,6,14,-11,43,127,41
1530606748853500,-10,16,-11,-11,59,-16,-108,-94
1530606748867463,-2,-45,-18,-12,-28,-29,-17,6
1530606748867463,8,16,12,10,0,-22,38,41
1530606748868461,-4,-4,5,3,-57,7,-49,-4
1530606748868461,-1,-8,-3,-1,5,11,97,28
1530606748890402,-2,48,-1,2,40,-56,-32,-28
1530606748890402,12,-24,-5,-8,-92,44,-11,80
1530606748890402,-11,-16,0,-4,53,9,-128,-102
1530606748890402,2,-83,-17,-8,-9,-47,-7,44
1530606748912343,3,71,27,1,-7,31,46,-8
1530606748912343,-4,12,-2,5,27,-20,0,26
1530606748913341,9,28,9,0,9,-5,40,-1
1530606748913341,11,-53,-9,-2,3,31,25,10
1530606748927303,-24,-66,-23,-9,-50,-10,-42,-14
1530606748927303,-3,55,19,7,31,6,-9,-50
1530606748928300,2,-2,5,-3,-5,-5,-15,25
1530606748928300,-2,67,4,7,26,-2,73,4
1530606748950242,6,-63,-12,-4,-51,-16,-76,-21
1530606748950242,-4,-18,1,3,-29,-1,-5,-83
1530606748951240,3,24,-11,-7,71,38,-1,32
1530606748951240,1,15,11,5,-13,-14,-19,3
1530606748972183,14,86,31,13,16,13,71,58
1530606748972183,8,-29,-7,-4,8,-3,20,-21
1530606748973181,-13,-46,-10,-6,-10,-50,-28,2
1530606748973181,-4,0,-8,-4,9,22,-51,-5
1530606748987143,-3,-23,-2,21,65,12,23,3
1530606748987143,6,6,-2,-14,-24,-3,-21,-8
1530606748988141,11,32,16,4,-3,1,78,54
1530606748988141,5,-9,7,-3,-10,-10,4,24
1530606749010081,-9,-115,-26,-7,-10,1,6,-46
1530606749010081,-4,84,23,7,80,-26,-57,-23
1530606749011079,0,-81,-22,-8,-74,35,7,19
1530606749011079,2,107,21,9,11,18,36,-3
1530606749032023,19,-10,-2,-3,-9,-55,36,19
1530606749032023,-26,-115,-31,-13,-29,17,-94,-19
1530606749033020,5,74,4,-4,-23,3,-1,-29
1530606749033020,-2,-60,4,13,80,-16,18,13
1530606749046983,-15,3,-15,-6,2,5,-16,-22
1530606749046983,2,31,10,4,30,-26,91,61
1530606749047980,-3,2,-1,-9,-55,26,-19,-28
1530606749047980,4,-23,-19,-13,-29,0,-18,17
1530606749069921,-7,-20,0,4,45,0,33,18
1530606749069921,4,42,9,4,-8,3,-121,1
1530606749070919,-5,-39,-3,7,-9,-28,60,1
1530606749070919,-8,32,-1,-9,-10,-26,-28,-24
1530606749092860,16,72,37,3,-25,33,-14,-36
1530606749092860,1,-80,-20,4,50,-11,52,16
1530606749092860,-8,7,4,-4,-58,-13,0,43
1530606749092860,3,-30,-6,-4,22,55,4,-35
1530606749107820,-6,-50,-14,-4,-9,-30,-1,30
1530606749107820,10,1,5,9,20,4,-35,17
1530606749107820,2,25,11,5,22,32,-27,-46
1530606749107820,-14,2,-12,-14,-54,-49,-97,-42
1530606749130759,13,46,7,-3,-32,29,-28,29
1530606749130759,-13,-35,-2,11,37,13,85,-14
1530606749131757,-5,-12,0,-2,13,-48,14,-4
1530606749131757,-15,-44,-1,1,0,-3,18,-16
1530606749152700,13,14,12,1,62,31,72,30
1530606749152700,-3,79,-2,-3,38,-11,-13,-21
1530606749153698,6,-68,-10,9,0,-13,15,30
1530606749153698,8,91,22,1,-7,31,-47,3
1530606749166663,-16,-69,-23,-11,6,-27,-93,0
1530606749166663,3,-40,-19,-22,-25,11,43,3
1530606749174642,3,31,8,1,72,-4,31,22
1530606749174642,6,-40,1,13,-11,-45,45,-39
1530606749189601,12,57,3,6,18,47,-38,34
1530606749189601,-13,-23,-2,-5,-65,8,30,-15
1530606749190599,1,23,-3,-1,62,6,-88,2
1530606749190599,7,-5,-5,-8,-27,-12,36,32
1530606749212540,-9,-33,-2,7,-18,-17,34,-45
1530606749212540,-5,46,3,-3,41,25,8,-29
1530606749213538,4,20,6,0,-27,-6,54,-39
1530606749213538,-15,-46,-8,-6,-48,-3,-8,21
1530606749226503,9,-22,-16,-3,35,22,51,2
1530606749226503,-5,13,-2,-5,-58,-52,17,47
1530606749234481,0,0,-6,-8,39,61,-20,-23
1530606749234481,2,6,6,2,16,-30,43,-27
1530606749249441,-9,12,2,3,-93,8,66,13
1530606749249441,7,-128,-34,-23,-91,46,91,31
1530606749250439,4,127,40,15,-6,-18,-58,-26
1530606749250439,-1,-109,-38,-17,51,-63,-42,-25
1530606749272380,-13,74,9,4,74,17,84,20
1530606749272380,6,48,8,3,15,3,13,39
1530606749273378,-7,-75,-4,-3,-78,-38,-32,-85
1530606749273378,-3,38,-13,-11,-75,58,-29,31
1530606749286342,-1,-46,1,-17,8,-29,61,63
1530606749286342,1,-16,3,13,65,22,-63,-9
1530606749295319,-5,-16,-22,-8,27,-22,-22,44
1530606749295319,19,10,24,24,-27,-9,99,94
1530606749310278,-24,21,-8,-23,-91,-82,-126,-100
1530606749310278,-4,-19,4,2,51,78,-7,-110
1530606749310278,-1,-98,-7,-18,35,24,107,110
1530606749310278,2,99,3,11,36,81,-91,24
1530606749332220,15,24,17,26,25,-74,27,66
1530606749332220,-26,-12,-33,-52,-83,-88,30,-29
1530606749333217,6,-38,-4,21,77,61,-56,15
1530606749333217,-6,-20,-2,-9,71,-35,-5,-13
1530606749347180,6,-86,-11,-2,-26,80,-9,21
1530606749347180,-13,94,22,13,-33,-59,-70,59
1530606749355159,3,2,4,-2,-4,-42,12,-5
1530606749355159,-2,-32,-1,0,21,18,54,22
1530606749370119,17,-18,-27,-4,4,50,-128,-103
1530606749370119,7,-48,13,8,23,15,46,83
1530606749371116,-34,57,-9,-23,-104,-43,-53,-82
1530606749371116,10,0,6,-6,-54,-9,31,2
1530606749392060,-16,-93,-20,0,-80,-6,102,-12
1530606749392060,36,89,34,6,38,37,-46,-11
1530606749393057,-3,-62,0,2,4,-27,-8,-32
1530606749393057,-11,26,3,-2,-119,-87,72,13
1530606749407020,-12,-88,-18,-13,-42,66,-73,-20
1530606749407020,3,37,4,9,66,24,41,44
1530606749414998,-9,6,-14,6,-15,-57,-60,-27
1530606749414998,-6,49,7,-9,-54,7,7,-14
1530606749429958,-5,19,6,-10,84,21,-51,-58
1530606749429958,16,-123,-33,2,-52,-7,-56,1
1530606749430956,-14,79,10,-14,14,-72,121,44
1530606749430956,2,-68,4,12,-45,74,-118,-109
1530606749452897,19,105,-2,4,99,-6,104,117
1530606749452897,-19,-15,-1,-4,70,-27,16,-102
1530606749452897,-10,-73,-18,16,53,-6,60,56
1530606749452897,3,-26,-6,-9,-16,7,106,-39
1530606749474839,6,39,24,13,48,34,33,5
1530606749474839,0,-60,-18,6,-35,-44,8,-2
1530606749475836,6,-33,-5,0,-68,-40,-65,32
1530606749475836,-11,45,25,15,127,6,37,-51
1530606749489799,4,33,26,11,69,52,2,9
1530606749489799,2,24,3,10,-39,40,45,8
1530606749490796,9,-19,-16,-28,-49,13,59,-2
1530606749490796,-10,-110,-21,-20,-78,-35,-96,0
1530606749512737,-1,1,-26,-18,21,14,17,88
1530606749512737,-9,78,17,5,-25,-44,5,-128
1530606749512737,4,-60,5,16,68,37,-6,52
1530606749512737,6,84,17,12,127,-11,-58,71
1530606749528695,-3,-27,7,-4,-90,9,-54,13
1530606749528695,13,-54,5,-1,-26,23,-25,-29
1530606749534678,-15,-33,-30,-7,-5,-76,-46,15
1530606749534678,9,79,33,7,-2,62,-38,22
1530606749549638,-10,-46,-5,7,69,-61,42,-88
1530606749549638,28,88,15,-4,32,92,-15,109
1530606749550636,12,-74,-11,2,26,47,118,-12
1530606749550636,-35,-23,-27,-10,12,-102,-62,-85
1530606749572577,0,-9,15,6,37,6,26,54
1530606749572577,-2,-61,-27,-11,-29,-63,-99,-72
1530606749573575,-6,43,14,-11,-11,91,86,107
1530606749573575,-22,38,-13,9,102,-15,-31,-68
1530606749595516,11,-32,-9,-12,-53,-37,9,50
1530606749595516,-11,-50,-8,0,127,-15,84,40
1530606749596513,12,83,0,-19,-80,55,5,30
1530606749596513,36,-54,16,27,-35,78,123,116
1530606749609479,-19,53,21,1,38,-85,-109,-77
1530606749609479,-20,-22,-24,-11,-51,42,10,28
1530606749610476,28,104,50,41,127,-64,-74,-58
1530606749610476,14,8,-16,-32,-58,71,27,120
1530606749632417,1,33,-17,-5,-71,-11,20,6
1530606749632417,-5,-92,3,13,4,0,100,62
1530606749633414,-4,-38,-8,0,72,23,-43,21
1530606749633414,-3,81,30,21,28,-97,45,-17
1530606749655356,-1,-44,-13,6,-80,-8,-46,-52
1530606749655356,-7,15,7,-15,52,62,-42,-90
1530606749656355,5,5,-16,-13,49,-14,126,61
1530606749656355,2,-56,-14,-7,-44,60,28,-24
1530606749670316,-14,-84,-9,7,-32,-68,-31,31
1530606749670316,11,103,34,6,-53,-31,65,20
1530606749670316,2,-22,30,18,28,-64,73,76
1530606749670316,-37,-61,-34,-48,-100,-41,-52,-90
1530606749692257,12,-61,4,41,81,87,83,70
1530606749692257,-3,98,-11,-24,-115,-38,-128,-31
1530606749693255,-17,-37,-25,-41,-115,-93,-32,-93
1530606749693255,8,-2,5,29,109,70,14,93
1530606749715196,6,70,15,42,97,-17,40,73
1530606749715196,-4,-59,-19,-12,36,-15,9,23
1530606749716194,6,29,11,-3,-100,-88,53,-58
1530606749716194,-17,-78,-29,-11,11,61,-81,-91
1530606749730156,4,6,-4,-15,-30,-17,100,62
1530606749730156,24,-4,23,12,-74,-34,58,127
1530606749731154,-13,14,-24,-1,-25,-42,-110,-114
1530606749731154,-1,-59,-20,-29,-80,-119,110,92
1530606749752097,16,116,64,17,63,111,7,-54
1530606749752097,-40,-111,-50,-26,-52,-48,-17,-50
1530606749753094,-3,98,-1,-15,34,77,54,67
1530606749753094,70,95,32,33,89,-74,-38,-30
1530606749775036,-39,-69,-5,7,-6,5,82,-53
1530606749775036,-14,-83,-49,-50,-64,41,-128,-86
1530606749776033,20,-17,22,24,37,-29,76,98
1530606749776033,-22,98,25,5,113,53,71,-21
1530606749789996,45,-48,-10,-34,-128,-27,17,37
1530606749789996,-25,77,-23,4,101,102,-13,59
1530606749790994,-2,-121,-29,-27,-84,-7,-116,13
1530606749790994,7,107,32,7,-55,37,-3,-19
1530606749812934,-10,-81,-22,-38,13,-128,-118,56
1530606749812934,-7,-82,8,40,42,102,127,-60
1530606749812934,-1,95,3,-3,46,81,-100,-39
1530606749812934,7,-13,-14,-10,19,16,127,118
1530606749834875,-20,-70,-8,2,-30,-76,-85,-102
1530606749834875,5,-38,-7,-4,112,46,55,-36
1530606749835873,-3,96,23,19,79,-36,-58,80
1530606749835873,24,-59,14,-12,-85,-85,-27,17
1530606749849836,11,102,27,36,15,-26,-42,38
1530606749849836,-6,2,3,-9,-53,-128,55,64
1530606749850833,5,-56,10,34,118,127,127,-22
1530606749850833,-23,-1,-17,-22,-52,-98,-110,-72
1530606749872774,25,56,-9,-21,6,100,113,56
1530606749872774,-8,-36,7,3,-65,-77,19,24
1530606749872774,1,58,38,39,-65,-7,46,15
1530606749872774,18,-128,-34,-13,-75,43,37,55
1530606749894716,-64,127,7,-27,90,81,4,-35
1530606749894716,15,-43,8,18,11,59,-105,-56
1530606749895713,10,23,-3,11,-18,-26,122,30
1530606749895713,0,-53,-25,6,32,-54,-32,69
1530606749909676,-2,-35,11,-5,-128,-80,-29,-53
1530606749909676,7,118,50,42,-39,-14,28,86
1530606749910673,14,-48,-1,-11,74,82,-29,-5
1530606749910673,-11,-16,-38,-2,25,33,25,3
1530606749932614,-4,38,22,13,-31,-66,102,86
1530606749932614,32,75,43,17,69,-28,-25,37
1530606749933612,-4,-98,-31,-35,-113,-103,-119,-62
1530606749933612,-41,37,8,-11,-39,-13,102,-5
1530606749954556,24,-128,-42,19,127,124,63,-47
1530606749954556,-13,-5,13,-27,-115,-111,-49,-45
1530606749955553,3,75,3,-3,109,127,41,24
1530606749955553,22,-18,1,4,-10,-35,-48,13
1530606749969516,-12,-16,-20,-9,-10,-128,-34,-46
1530606749969516,4,-81,-48,-33,-10,99,110,47
1530606749970513,-16,54,7,-4,-37,-2,46,-1
1530606749970513,-22,-32,27,15,9,-79,-5,-56
1530606749992454,2,-10,-23,5,77,90,-8,-50
1530606749992454,-6,127,20,0,84,-101,38,127
1530606749993452,30,-30,18,16,61,60,-122,42
1530606749993452,8,-6,-28,-15,8,19,94,40
1530606750015393,1,13,0,-23,-92,-33,39,29
1530606750015393,-5,21,12,14,-52,-88,51,-65
1530606750015393,-29,17,16,11,47,32,-80,-88
1530606750015393,20,-55,2,21,-18,40,68,85
1530606750030353,-53,-31,-15,-17,-29,-19,43,-71
1530606750030353,16,-2,-12,-19,-7,76,34,8
1530606750030353,12,-18,-12,-22,-103,-128,-31,25
1530606750030353,-10,-9,17,4,127,127,102,12
1530606750052294,20,-42,-6,-26,-45,-21,64,67
1530606750052294,-7,36,5,86,87,26,-57,-104
1530606750053292,-29,-44,-28,16,47,-103,22,-30
1530606750053292,0,-22,2,-5,55,63,9,14
1530606750075233,30,57,22,81,95,25,-4,87
1530606750075233,10,-97,-9,-60,-100,-70,-86,75
1530606750076230,-17,61,33,64,113,125,-51,-3
1530606750076230,-5,26,-4,0,-35,-112,-58,-77
1530606750090193,7,-18,-2,-27,50,30,-59,4
1530606750090193,7,8,23,-1,9,-54,17,-47
1530606750091190,2,-122,-46,-33,-121,-71,36,80
1530606750091190,-19,76,34,-2,45,-20,-116,-18
1530606750112134,-25,-45,4,-6,23,36,-94,-99
1530606750112134,1,-42,-33,-3,127,105,-32,33
1530606750113132,-15,34,15,-12,-128,19,110,-80
1530606750113132,-7,67,-22,-25,-43,-3,34,36
1530606750135073,24,2,6,19,79,35,89,110
1530606750135073,-14,-39,-5,0,44,-74,103,33
1530606750136071,-6,-30,0,-5,-1,9,-13,-43
1530606750136071,-8,-111,-12,4,24,0,-18,19
1530606750150033,-2,75,27,-6,16,14,-117,-120
1530606750150033,11,-73,-1,10,37,37,64,35
1530606750151031,21,-75,0,-16,-96,33,49,13
1530606750151031,-54,81,-37,-20,65,-107,-94,-75
1530606750171974,25,-97,-3,14,11,65,103,66
1530606750171974,11,-36,10,1,-47,-6,24,31
1530606750172971,-8,82,7,-5,-22,-106,-52,-49
1530606750172971,-10,-128,-3,22,33,1,-25,-128
1530606750194913,-6,-46,-41,-24,17,-128,-113,31
1530606750194913,12,121,40,-5,36,113,65,-5
1530606750195910,41,-106,-13,18,127,41,76,76
1530606750195910,-15,36,19,8,-74,-57,-69,11
1530606750209873,4,3,-1,-13,34,11,31,2
1530606750209873,-16,-106,-19,28,-10,-128,-38,-59
1530606750210870,-5,61,7,1,67,21,20,1
1530606750210870,18,113,35,17,127,-61,45,40
1530606750232812,18,-95,-12,-4,25,64,-2,2
1530606750232812,-13,24,-13,-12,-29,-52,-23,36
1530606750232812,-34,-90,-31,-25,-76,-66,2,-61
1530606750232812,86,-128,-102,-15,-93,63,-9,18
1530606750254753,-94,127,90,6,-96,-128,98,8
1530606750254753,36,-50,-10,17,109,103,79,99
1530606750255750,15,-128,-51,26,122,70,63,42
1530606750255750,-22,-128,-20,-26,-74,-27,-17,-54
1530606750269713,3,-39,-61,-15,51,119,-128,-81
1530606750269713,17,12,0,-9,-40,-66,-41,0
1530606750270710,3,70,57,12,-39,-88,65,86
1530606750270710,-1,51,-4,-12,-72,-61,29,-1
1530606750292651,-2,50,-7,-23,-78,-90,22,39
1530606750292651,-42,7,16,-21,92,-7,4,-102
1530606750293649,35,-73,-36,20,127,69,-128,74
1530606750293649,23,127,68,33,39,-13,54,-56
1530606750314593,7,-128,-67,-36,-128,-88,-76,-128
1530606750314593,19,105,36,1,-113,32,61,91
1530606750315590,4,80,13,-40,-50,-26,-1,55
1530606750315590,-16,10,-60,-9,-28,-35,44,-29
1530606750329553,32,30,46,27,56,86,72,87
1530606750329553,-23,-79,-13,5,-19,-110,32,-33
1530606750337531,-21,-2,-8,-16,43,75,-20,-74
1530606750337531,1,45,37,8,-1,91,78,127
1530606750352491,14,-65,-15,19,-85,-23,75,-7
1530606750352491,-4,-50,-38,-18,60,-26,16,40
1530606750353489,7,-39,25,-10,-45,-4,115,15
1530606750353489,-19,-54,-24,-31,-30,-86,-116,-25
1530606750375430,-24,20,-8,-20,-46,-15,-33,-68
1530606750375430,3,19,5,43,127,127,39,118
1530606750375430,-5,-20,-28,-12,-128,-128,13,-90
1530606750375430,-34,29,-36,-14,124,6,-35,45
1530606750389393,75,123,97,41,73,95,53,127
1530606750389393,-9,-51,-34,-5,-90,-46,-37,-128
1530606750397371,-38,83,-36,-61,-77,-109,-114,-128
1530606750397371,6,-96,26,59,93,76,127,127
1530606750412331,-5,-128,-110,-35,-50,-34,67,-96
1530606750412331,-19,127,102,28,55,-28,-128,-71
1530606750413329,10,-128,-29,19,28,108,127,127
1530606750413329,-36,69,2,-6,49,-82,-51,-101
1530606750435270,-11,-32,8,17,127,64,32,91
1530606750435270,28,-79,-17,11,-3,39,92,82
1530606750435270,-20,-56,-35,-54,-95,-80,0,33
1530606750435270,-26,37,-7,-32,-42,-22,-79,-92
1530606750449233,8,34,20,22,108,37,69,64
1530606750449233,-8,-64,-66,-27,-11,21,33,-26
1530606750457211,37,82,73,51,116,70,85,127
1530606750457211,-20,-35,-69,-28,-87,-48,-53,-66
1530606750472171,47,100,60,10,12,74,26,85
1530606750472171,15,-54,16,3,-95,-43,71,82
1530606750473169,-21,73,33,19,2,-80,-54,-104
1530606750473169,-12,8,3,5,-37,-28,72,7
1530606750495110,-22,-98,-77,-13,14,12,88,-62
1530606750495110,-20,-17,14,6,-28,31,-12,92
1530606750496107,17,101,41,2,2,79,-81,-128
1530606750496107,27,-95,15,-24,-22,45,85,86
1530606750509073,-13,-33,-15,-10,-90,-128,4,7
1530606750509073,-10,-35,-36,-37,46,86,-60,-4
1530606750517051,-19,-14,-49,-6,-26,-36,127,76
1530606750517051,-8,-10,36,-7,3,31,-47,-40
1530606750532011,3,-26,1,15,-22,-90,-65,-76
1530606750532011,22,115,-6,-4,111,13,-32,-11
1530606750533009,19,-43,33,-6,38,58,83,112
1530606750533009,2,-76,-7,0,-69,68,-81,10
1530606750554950,-59,-66,-69,-42,-101,-94,-128,-85
1530606750554950,5,102,97,52,52,21,8,77
1530606750555948,-22,-22,-90,-48,-118,-128,-101,-16
1530606750555948,107,-23,120,66,127,127,127,127
1530606750568913,-24,96,48,28,-9,-58,-118,-73
1530606750568913,22,-99,-94,-54,-128,67,46,-45
1530606750577888,-26,103,49,32,56,-1,-46,-34
1530606750577888,13,-128,1,39,93,-76,79,68
1530606750592848,-17,44,6,-23,16,-38,85,-48
1530606750592848,19,-79,-40,-9,115,32,39,-16
1530606750592848,-4,2,11,21,45,0,-39,-117
1530606750592848,7,40,-9,-11,-25,69,111,110
1530606750614790,3,34,36,7,-37,48,-83,-24
1530606750614790,-6,-67,-54,-9,-15,-80,11,85
1530606750615787,-55,45,-3,-39,-8,-41,-102,-113
1530606750615787,24,-19,-27,-6,-8,64,58,88
1530606750629750,-26,79,41,10,22,-66,127,116
1530606750629750,2,-93,12,-33,-55,-49,-78,-40
1530606750637729,1,-7,-39,-1,-23,82,97,42
1530606750637729,-4,-99,-20,-5,49,7,-115,-128
1530606750652689,18,-71,-42,-22,-30,-8,39,112
1530606750652689,28,-7,33,17,-2,-115,-12,-57
1530606750653686,-9,62,96,17,26,64,77,-44
1530606750653686,-10,-25,-41,-22,-113,81,24,-16
1530606750674630,47,-77,-36,15,35,16,-10,53
1530606750674630,-30,38,26,1,-30,-84,-10,2
1530606750675627,-7,-102,-41,4,-2,-45,-100,-48
1530606750675627,3,127,36,2,61,-12,115,-46
1530606750689590,-1,6,39,36,102,83,18,41
1530606750689590,6,-66,-25,6,-23,62,-14,11
1530606750697568,-6,17,-21,2,88,-38,16,52
1530606750697568,-11,-38,-7,-2,-63,-114,-94,-88
1530606750712528,-31,-111,-49,-63,-113,-66,-81,43
1530606750712528,-39,127,41,6,63,98,-81,-82
1530606750713526,48,-128,-30,15,53,35,49,127
1530606750713526,-4,-23,4,34,-71,-128,-41,-105
1530606750734470,-15,78,72,-26,-9,111,-88,92
1530606750734470,13,58,-3,9,11,17,16,25
1530606750735467,9,-70,-2,-7,-59,-75,-44,-33
1530606750735467,-1,-21,-42,6,-53,-111,32,68
1530606750758406,19,66,43,4,33,79,-55,-14
1530606750758406,-16,-99,-44,-9,41,54,65,51
1530606750759403,19,-35,27,22,22,-31,13,6
1530606750759403,-16,3,11,8,22,-55,-46,74
1530606750772368,4,-66,-34,5,14,-39,112,-94
1530606750772368,-29,44,9,-19,-64,-68,-27,-17
1530606750773366,29,-9,-6,0,-17,101,94,58
1530606750773366,-13,38,-1,-7,73,3,17,14
1530606750795307,5,-62,-39,-10,-75,-55,28,32
1530606750795307,45,64,103,60,99,26,86,-26
1530606750795307,-4,-121,-53,-12,7,-113,-31,9
1530606750795307,-25,83,8,-21,34,127,-128,28
1530606750818246,4,-95,-82,-16,4,-22,-84,-50
1530606750818246,29,77,59,45,-33,30,31,-128
1530606750819243,-9,-93,-42,-11,1,-57,-64,86
1530606750819243,4,-18,12,4,-72,-16,26,72
1530606750832208,-3,-117,-48,-25,-88,-41,15,25
1530606750832208,-22,-10,-9,-12,-71,-15,57,46
1530606750833206,-16,125,52,33,104,39,-71,-98
1530606750833206,9,-74,-12,-15,8,31,66,79
1530606750855147,3,70,25,27,123,91,78,26
1530606750855147,-7,-56,-36,-13,-38,-31,-10,18
1530606750856145,1,9,-2,-12,-107,-21,-65,-74
1530606750856145,14,-91,-26,-5,9,23,111,110
1530606750877088,-46,114,61,8,-68,-39,-128,-128
1530606750877088,1,-114,-19,-29,-103,-17,77,111
1530606750878086,26,-21,-23,12,114,90,112,101
1530606750878086,23,74,55,10,13,-57,-41,-8
1530606750892048,-4,-34,-41,-16,-68,-13,111,7
1530606750892048,-23,65,-7,-2,28,4,-128,-51
1530606750893046,5,23,17,-20,31,63,5,12
1530606750893046,-8,-70,-24,-9,-11,20,77,-110
1530606750914987,3,5,21,32,85,-72,-26,80
1530606750914987,-17,-83,-53,-46,-28,-128,76,-44
1530606750915985,8,-13,20,25,49,110,-48,-80
1530606750915985,2,106,4,5,20,4,-42,74
1530606750937926,7,-15,2,0,-30,-18,-11,10
1530606750937926,-22,-59,-6,-1,54,-52,-15,-10
1530606750937926,5,69,26,8,-33,30,36,31
1530606750937926,6,-108,-14,0,16,102,77,-41
1530606750952886,-11,120,3,4,25,-32,-83,-29
1530606750952886,12,90,34,7,-30,27,-81,-8
1530606750952886,-9,-104,-26,-13,-63,-95,15,29
1530606750952886,-24,127,1,-18,8,-14,19,-15
1530606750974828,10,-128,-23,8,-3,93,-15,49
1530606750974828,2,98,1,6,11,12,-54,-94
1530606750975825,-14,-16,-2,3,23,-37,112,95
1530606750975825,-24,-83,-33,-23,-30,-23,-121,-78
1530606750997766,-13,16,-11,-19,-63,-70,25,-61
1530606750997766,4,-125,-10,9,127,95,115,73
1530606750998763,-5,91,4,8,-118,-83,-52,50
1530606750998763,27,100,34,-4,89,71,54,55
1530606751012726,-6,-50,-18,-14,-47,26,-35,-90
1530606751012726,-5,-123,-17,0,-34,-99,34,23
1530606751013724,-16,-128,-56,-30,-27,-33,104,36
1530606751013724,7,92,71,32,70,-20,-60,-13
1530606751034667,35,10,22,22,121,54,58,21
1530606751034667,3,-18,-2,-7,-92,27,-55,20
1530606751035665,-10,-63,-15,-8,-19,-24,-49,-103
1530606751035665,4,-58,4,18,-60,-13,8,52
1530606751057606,-17,-45,-20,-26,-35,-97,-50,-54
1530606751057606,3,73,3,15,112,84,38,3
1530606751058603,0,96,13,10,31,23,6,58
1530606751058603,16,-27,-18,-2,-86,-49,-20,0
1530606751072565,6,93,64,30,-26,-25,94,41
1530606751072565,-31,-128,-69,-43,-128,-30,-46,-77
1530606751073563,-1,127,40,6,69,126,9,-2
1530606751073563,16,-88,-16,4,-3,-34,24,-96
1530606751094507,2,-85,-14,-10,-14,-20,-2,77
1530606751094507,5,4,18,15,-26,-38,-12,36
1530606751095504,14,-87,-6,-3,-43,8,-3,11
1530606751095504,-13,17,2,-20,-60,-36,-50,-15
1530606751117446,-1,36,6,0,85,0,115,30
1530606751117446,15,13,-7,13,127,75,-97,-54
1530606751118443,15,-46,1,12,-12,-35,45,32
1530606751118443,-28,49,-10,-27,-2,-42,-33,-77
1530606751132406,20,68,48,23,-42,35,35,65
1530606751132406,-4,14,-40,-13,-17,-50,26,121
1530606751133404,12,68,46,11,20,28,-10,-57
1530606751133404,-6,-128,-40,6,104,-45,21,43
1530606751155344,-13,101,-4,-23,78,3,-78,-66
1530606751155344,11,-14,0,7,85,76,22,12
1530606751155344,-6,8,3,0,-27,-44,45,14
1530606751155344,-25,-76,-18,-22,-66,-6,-29,-31
1530606751177286,-1,-58,-18,2,-88,12,43,-11
1530606751177286,13,12,13,8,25,35,22,50
1530606751178283,-12,2,-14,-23,-80,-63,-10,-32
1530606751178283,13,-6,26,22,63,60,61,57
1530606751192245,8,39,-2,7,45,17,56,-26
1530606751192245,-21,-58,-12,-16,-82,-73,-27,14
1530606751193243,-13,-103,-14,8,-6,-74,-28,-13
1530606751193243,10,103,48,8,-43,44,-77,-52
1530606751215184,7,-123,-35,-10,4,51,60,54
1530606751215184,-8,119,38,20,10,22,89,9
1530606751216182,3,-44,-14,1,22,-43,-58,-17
1530606751216182,10,-64,-23,1,-2,55,-7,29
1530606751237126,-14,30,0,-9,12,-2,-54,-28
1530606751237126,-1,12,14,4,-23,-12,6,44
1530606751238123,1,6,5,-7,15,-36,14,9
1530606751238123,-10,7,4,15,20,-19,-72,15
1530606751252086,13,-29,-5,-5,-34,47,44,63
1530606751252086,-16,-114,-14,1,-10,-27,-16,-15
1530606751253083,15,127,43,10,26,40,-10,-82
1530606751253083,5,-109,-16,-4,-8,-9,44,44
1530606751275025,-3,-45,-3,8,-15,-3,27,25
1530606751275025,-12,-25,0,-6,7,-31,-96,-16
1530606751276022,-14,-56,-18,-10,20,24,13,36
1530606751276022,-18,-44,-26,-13,-41,-34,56,-8
1530606751296966,15,82,55,9,-18,-28,-4,-2
1530606751296966,19,-2,7,-1,-47,74,55,-18
1530606751297963,-22,-97,-26,-16,-43,15,-42,-33
1530606751297963,-3,-11,0,5,76,-16,2,1
1530606751312923,-12,39,-14,1,-83,-9,-2,-8
1530606751312923,12,115,16,-2,-30,-32,-56,-30
1530606751312923,11,-21,-5,-8,53,-15,11,13
1530606751312923,-6,24,-5,-5,32,6,24,34
1530606751334864,11,-14,2,-2,96,34,-35,-24
1530606751334864,-9,-7,-5,-1,8,-17,10,-55
1530606751335862,-7,-46,-19,-4,-10,22,8,30
1530606751335862,-10,44,15,1,-46,-64,2,4
1530606751357804,6,13,4,-4,-30,36,-46,-31
1530606751357804,11,-15,-10,5,38,7,-25,-38
1530606751358811,-2,-53,-14,-7,-4,-6,10,-4
1530606751358811,-5,47,12,2,-18,10,76,45
1530606751371765,14,-18,1,-4,-49,-18,-12,-25
1530606751371765,-15,34,-2,-9,50,-59,0,-4
1530606751379744,-1,-86,-18,-5,-98,26,-51,-111
1530606751379744,21,10,15,4,-64,61,76,79
1530606751394704,-32,78,-11,-13,100,-56,-46,-21
1530606751394704,8,-112,-11,2,-5,-11,4,11
1530606751395702,-10,-41,-2,2,56,-44,58,15
1530606751395702,0,68,15,12,-25,22,-70,-3
1530606751417643,16,-92,-12,2,7,70,123,88
1530606751417643,-23,-25,-1,-10,9,-87,-108,-86
1530606751418640,6,104,9,-3,-3,-2,28,14
1530606751418640,7,-35,-16,2,70,82,17,-8
1530606751431606,-4,10,0,3,22,-36,-96,-47
1530606751431606,-3,-12,-4,0,-25,7,88,63
1530606751439584,10,16,13,6,59,-39,46,33
1530606751439584,-14,-89,-32,-15,16,-31,-34,-39
1530606751454544,-3,59,6,-2,-52,1,30,25
1530606751454544,25,46,46,22,67,19,-24,-25
1530606751455542,-10,-54,-16,3,40,34,-12,39
1530606751455542,13,-50,14,17,14,-18,-26,-92
1530606751477483,-39,-1,-37,-19,13,-19,33,15
1530606751477483,21,-22,-9,-14,-11,50,74,57
1530606751478480,-4,32,5,10,-109,-32,-48,18
1530606751478480,-24,-7,-12,-18,102,-47,31,16
1530606751491445,15,-44,10,5,-104,2,-9,72
1530606751491445,0,25,-9,-4,8,52,42,-25
1530606751500421,-4,50,2,3,-3,24,-15,7
1530606751500421,9,-17,-14,-12,-80,-34,-101,-2
1530606751515381,5,-26,-6,-4,24,-37,-17,-3
1530606751515381,-29,-84,-23,-9,-65,-32,36,-4
1530606751515381,18,78,44,1,40,36,56,57
1530606751515381,-15,-33,-8,-1,-76,-2,-29,14
1530606751537323,13,98,40,18,83,64,69,66
1530606751537323,11,-121,-32,-6,22,-13,-128,-66
1530606751538320,73,-107,-33,-12,-6,-10,6,29
1530606751538320,-101,126,20,0,-29,-73,-31,-27
1530606751552283,25,-128,-15,-1,54,33,94,47
1530606751552283,-22,83,7,10,67,20,-31,-41
1530606751560261,-35,-14,-4,-27,-27,-31,-39,-46
1530606751560261,52,51,13,11,59,113,101,30
1530606751575221,-6,-104,0,-5,-83,-84,-102,-27
1530606751575221,-3,120,1,-9,-76,-26,36,23
1530606751576219,6,-79,-7,-1,12,34,36,-21
1530606751576219,22,56,9,6,25,36,91,25
1530606751597163,-30,4,1,7,-25,-55,-13,-9
1530606751597163,-5,4,-7,-15,-23,-55,-119,-86
1530606751598161,4,-52,-10,-1,41,-25,16,57
1530606751598161,11,-5,7,7,-51,28,-3,20
1530606751612123,8,58,12,26,103,59,34,-4
1530606751612123,-2,-47,-21,-29,-66,-10,18,19
1530606751620101,-14,63,26,9,5,0,-23,60
1530606751620101,20,-48,-12,24,127,71,-40,-86
1530606751635062,20,89,36,10,14,-54,26,-48
1530606751635062,2,-38,-4,-11,-99,-31,-86,-24
1530606751636059,-33,-36,-12,6,55,22,58,26
1530606751636059,69,51,14,-5,18,3,93,65
