timestamp,emg1,emg2,emg3,emg4,emg5,emg6,emg7,emg8
1530606778988908,27,68,3,-4,-1,3,22,47
1530606778988908,-126,-55,-18,-11,-7,-6,-14,-51
1530606778989906,-14,38,6,6,0,-3,-9,-51
1530606778989906,127,101,24,14,4,3,6,95
1530606779010849,-108,-60,-41,-20,-9,-9,-17,-81
1530606779010849,37,42,24,8,3,4,12,73
1530606779012844,24,40,-3,-10,-1,-2,-2,-25
1530606779012844,-98,-56,10,13,5,4,0,-82
1530606779024812,66,-40,-2,4,2,-1,-2,15
1530606779024812,87,1,-21,-9,-4,-2,-1,69
1530606779033788,19,97,19,4,1,2,2,24
1530606779033788,-96,-39,17,10,4,4,4,-67
1530606779048748,-63,-50,1,9,3,3,2,29
1530606779048748,-17,51,-9,0,-6,-7,-6,-6
1530606779049745,70,-13,-7,-2,-1,-3,-17,-67
1530606779049745,-41,-20,-17,-9,1,-1,-1,-29
1530606779070689,79,38,9,-4,4,5,5,28
1530606779070689,-12,-92,-38,-9,-5,-5,-8,-23
1530606779072684,39,78,37,9,0,1,10,36
1530606779072684,10,-100,-27,-2,4,1,5,-52
1530606779084655,-34,127,-5,3,-3,-5,-10,-17
1530606779084655,79,-99,-17,-4,0,1,5,-38
1530606779093628,-20,-108,-42,-12,-3,-4,-13,-29
1530606779093628,98,40,45,15,1,3,9,49
1530606779107590,92,116,18,-1,-2,-1,-3,8
1530606779107590,13,-83,8,5,5,6,16,62
1530606779114572,-52,55,-40,-23,-11,-13,-31,-50
1530606779114572,85,-98,16,6,1,-1,12,45
1530606779130529,-38,-126,-12,4,4,3,2,-15
1530606779130529,25,88,54,11,1,-4,-15,3
1530606779133521,-68,-35,-16,0,0,3,13,72
1530606779133521,75,111,8,1,1,2,3,39
1530606779144492,-1,-16,-9,-3,1,-1,-4,5
1530606779144492,7,-65,25,-2,-4,-4,-6,-89
1530606779153468,-88,41,-18,-4,-4,-3,-2,-26
1530606779153468,127,18,27,10,5,6,4,20
1530606779168454,-72,-1,-11,-15,-5,-6,-7,-18
1530606779168454,-24,39,25,31,15,10,12,-77
1530606779174412,78,43,-2,-6,-8,-10,-14,28
1530606779174412,51,23,-31,-15,-9,-2,3,93
1530606779191367,-101,-7,8,3,1,0,-7,-12
1530606779191367,52,-100,-44,-16,-5,-2,-6,26
1530606779192364,94,51,48,19,6,3,10,58
1530606779192364,-112,-85,-29,-5,-2,-1,8,21
1530606779213307,75,-22,12,3,-2,0,4,-71
1530606779213307,80,-13,-26,-8,0,1,-5,0
1530606779215303,81,48,15,-3,-5,-6,-16,-99
1530606779215303,-88,-128,-52,-18,-4,-2,-4,8
1530606779228267,-22,48,50,17,9,2,10,127
1530606779228267,-62,39,83,30,20,4,5,-43
1530606779235253,19,31,-45,-13,-26,-3,-4,-86
1530606779235253,9,-14,10,1,2,2,4,24
1530606779251211,-20,-128,-59,-9,-3,2,11,-11
1530606779251211,77,127,-2,-5,-11,-13,-15,1
1530606779252204,107,9,3,3,11,1,8,42
1530606779252204,-28,-54,-29,-19,-3,-3,-10,-62
1530606779273148,-107,-77,37,13,-6,-2,-7,-15
1530606779273148,-86,16,4,-3,-1,-3,3,74
1530606779275143,-128,-58,52,15,10,10,21,78
1530606779275143,78,-61,-18,-8,-8,-3,4,-17
1530606779288108,122,-41,-47,-6,-1,-5,-17,-68
1530606779288108,-86,-9,-1,-2,-4,3,20,44
1530606779295089,22,29,-2,1,-4,-7,-13,17
1530606779295089,-13,127,24,10,2,-1,-1,15
1530606779311046,127,66,-4,-18,-10,-8,-11,112
1530606779311046,-69,127,47,10,-1,5,8,-8
1530606779313041,-119,-116,-83,-23,-2,-1,-2,-8
1530606779313041,102,-34,-30,-13,-7,-12,-17,12
1530606779332987,-33,-28,8,3,0,3,2,-64
1530606779332987,-15,-90,-112,-39,-15,-11,-16,8
1530606779334983,109,-23,83,13,2,-2,-6,-27
1530606779334983,-29,97,47,26,15,12,12,-2
1530606779347948,-65,-55,-34,-16,-8,-7,-6,30
1530606779347948,127,12,13,2,2,9,26,86
1530606779354929,-20,2,-1,10,8,5,10,21
1530606779354929,-71,30,-33,-12,-9,-8,-20,-50
1530606779370886,127,127,40,1,-5,-5,-9,-46
1530606779370886,6,91,32,7,7,4,9,7
1530606779372881,-18,-45,-29,0,2,3,11,61
1530606779372881,28,-7,40,6,-3,-5,-7,-40
1530606779393825,-13,45,-14,5,6,8,7,22
1530606779393825,-94,-128,-12,-9,-7,-8,-21,-46
1530606779394822,-28,-11,16,-2,-2,2,3,41
1530606779394822,-6,94,20,11,4,3,3,25
1530606779407787,-128,-128,-6,-3,0,-1,3,-80
1530606779407787,82,-37,-36,-4,-2,2,2,86
1530606779414769,-93,0,-18,-17,-8,-8,-22,-119
1530606779414769,-35,-1,-2,-6,3,1,-1,-42
1530606779430726,54,12,3,7,2,3,16,57
1530606779430726,17,80,11,11,4,6,3,16
1530606779432721,6,-51,-38,-8,-3,-3,3,-20
1530606779432721,51,-16,-6,0,-5,-5,0,25
1530606779453665,-31,-40,-27,-16,-5,-3,-1,11
1530606779453665,20,-88,20,11,7,5,6,31
1530606779454662,-5,-28,-5,-2,-2,-2,-6,-45
1530606779454662,-47,-119,-9,-10,-5,-4,-10,-7
1530606779466630,-10,127,9,1,0,-3,-9,-13
1530606779466630,-48,-30,21,6,-2,-2,1,43
1530606779476604,-71,-50,29,15,10,8,12,69
1530606779476604,-67,-33,21,5,1,-3,-6,-2
1530606779490566,120,122,-12,1,-1,1,6,54
1530606779490566,-128,-53,-23,-20,-9,-10,-23,-34
1530606779492561,61,22,-2,2,0,3,11,-30
1530606779492561,127,39,-5,-7,-2,0,3,61
1530606779513505,38,-13,20,5,1,2,3,-27
1530606779513505,124,-20,3,4,0,1,3,-19
1530606779515500,-48,34,5,1,-3,-3,-3,-16
1530606779515500,67,-49,-1,13,6,6,10,55
1530606779527467,61,1,-13,-16,-7,-9,-11,-6
1530606779527467,-15,56,17,-1,-1,-3,-10,-59
1530606779536444,-3,10,-15,0,2,2,5,20
1530606779536444,7,48,18,2,-1,-1,3,-50
1530606779551403,-16,-48,-12,-3,-2,-3,-7,-4
1530606779551403,-88,88,-16,-1,0,-3,-4,-39
1530606779552401,-14,91,28,14,5,2,1,15
1530606779552401,57,-102,-17,-6,-4,-1,5,22
1530606779573345,-97,80,12,-1,0,0,-4,-42
1530606779573345,69,-54,-29,-10,-4,-3,-5,16
1530606779575340,-86,-86,8,8,6,4,2,-48
1530606779575340,1,33,-16,-4,-2,-2,-3,-15
1530606779587308,4,-83,3,1,3,3,4,19
1530606779587308,97,127,9,4,1,0,7,44
1530606779596284,-52,-48,8,10,4,1,-5,27
1530606779596284,108,-8,-19,-15,-9,-9,-16,-31
1530606779611244,28,-128,-17,-5,1,1,8,22
1530606779611244,19,81,73,23,4,1,-5,-42
1530606779612241,36,-12,-5,-3,-2,1,6,21
1530606779612241,-128,8,-23,-5,0,0,-7,-58
1530606779633185,-5,60,33,7,-2,-3,-1,9
1530606779633185,-117,-97,-19,-10,-4,-1,2,-6
1530606779635180,117,10,-4,-4,-4,-5,-3,17
1530606779635180,-105,35,20,2,3,2,-1,1
1530606779647147,51,23,-14,-4,-5,-5,-5,-13
1530606779647147,25,-78,-19,-2,1,-1,2,-18
1530606779662107,38,-4,10,0,1,1,1,5
1530606779662107,-107,0,9,0,-2,0,6,65
1530606779671084,-43,25,7,9,4,4,7,32
1530606779671084,26,-67,-50,-14,-6,-5,-5,10
1530606779673078,63,-71,-16,-9,-4,-3,-2,-7
1530606779673078,95,67,23,10,3,4,6,62
1530606779693025,-97,-82,5,0,1,-1,-8,-44
1530606779693025,-64,1,-2,2,5,4,3,3
1530606779695020,63,109,-14,-4,-4,-2,1,27
1530606779695020,-27,-24,-18,-6,-3,-6,-9,-39
1530606779706987,80,-51,-3,-2,-3,0,11,74
1530606779706987,2,-30,8,3,0,-2,-7,-30
1530606779715964,56,12,15,1,1,-1,0,-43
1530606779715964,-111,19,14,1,4,0,-6,-85
1530606779730923,116,-12,-34,-13,-10,-9,-5,27
1530606779730923,-44,97,36,8,2,1,4,-34
1530606779732918,-113,-68,-25,-6,-2,-2,-4,-11
1530606779732918,104,75,28,-2,-5,-3,-6,-9
1530606779753862,1,93,10,13,8,4,-4,-40
1530606779753862,41,-28,-19,-4,-3,1,6,46
1530606779754860,-100,-5,5,-1,-1,-4,-12,-17
1530606779754860,106,-128,-19,6,1,1,5,-1
1530606779766828,-123,25,-13,-14,-7,-5,-5,15
1530606779766828,27,46,28,1,2,0,-5,-34
1530606779775803,-29,-3,-5,1,-1,2,6,33
1530606779775803,69,-40,-4,-3,-4,-1,-2,-40
1530606779790763,9,-35,-1,-2,-2,-1,-1,52
1530606779790763,-58,-5,0,7,3,5,8,-18
1530606779792758,5,-15,-10,-11,-6,-6,-4,-21
1530606779792758,80,22,8,3,1,-1,-4,4
1530606779813702,68,-35,-5,-3,-3,-2,1,-46
1530606779813702,-122,-41,-7,-6,-1,-3,-4,7
1530606779814700,111,110,12,-1,1,1,0,46
1530606779814700,38,30,-4,-1,-3,0,8,-43
1530606779826667,76,-44,-5,3,3,3,12,14
1530606779826667,53,-4,-4,-2,-5,-7,-19,-96
1530606779835643,-79,105,9,1,-2,-1,1,40
1530606779835643,-52,-58,0,-2,1,2,3,30
1530606779850603,-65,34,9,-4,2,3,-2,-32
1530606779850603,40,-22,-13,-3,-5,-6,-3,-27
1530606779852599,115,-67,-5,1,1,0,2,-10
1530606779852599,-110,4,-11,0,3,-1,-2,2
1530606779873542,-29,16,32,17,3,3,4,-36
1530606779873542,67,-16,-9,-5,-4,-1,7,53
1530606779875537,-93,10,-10,-4,-1,-2,-10,-100
1530606779875537,-9,-9,-5,-6,-4,-3,3,46
1530606779887505,-55,-75,-14,-5,0,-3,-13,-14
1530606779887505,-83,43,-15,-13,-5,-1,1,32
1530606779896481,-39,40,16,5,0,1,5,-10
1530606779896481,-69,-46,-25,-1,-6,-5,-2,30
1530606779911441,84,94,21,6,5,2,4,25
1530606779911441,-9,-63,-1,0,-1,3,4,39
1530606779912438,-24,-67,4,-3,-1,0,-2,-21
1530606779912438,69,91,13,14,6,6,17,77
1530606779933382,-114,24,-5,-1,-4,-5,-7,-29
1530606779933382,105,-17,-4,-8,-3,-4,-2,-11
1530606779935377,110,-107,-8,7,5,5,10,29
1530606779935377,12,73,0,-17,-6,-5,-13,-69
1530606779947344,17,36,-10,-7,-4,0,4,6
1530606779947344,-17,42,14,3,1,1,8,0
1530606779956321,-59,-18,-8,1,-3,-2,0,13
1530606779956321,37,49,-7,-2,-1,-5,-9,-60
1530606779970283,-62,74,-7,-7,-5,-6,-10,-23
1530606779970283,56,-38,6,3,5,3,2,15
1530606779977265,127,-16,-15,-6,-2,-5,-5,26
1530606779977265,-128,-16,-15,1,2,3,2,-14
1530606779993222,44,73,41,7,-9,-6,-4,63
1530606779993222,19,-11,-9,-4,-3,-1,-2,21
1530606779995217,-37,77,9,-5,-1,-1,6,33
1530606779995217,35,-82,-14,0,1,3,6,41
1530606780007185,-52,-93,-12,5,4,3,10,17
1530606780007185,27,-56,-3,8,1,0,-10,-60
1530606780016161,98,125,17,-4,-5,-3,6,53
1530606780016161,-10,-55,1,0,1,2,2,10
1530606780031120,-37,-117,-22,-13,-4,-3,-7,60
1530606780031120,-18,49,-1,-7,-4,-2,-1,-53
1530606780032119,-90,-64,-27,-2,-1,-1,-6,-82
1530606780032119,12,-14,19,4,1,3,15,77
1530606780053062,73,-48,5,6,6,3,-3,-20
1530606780053062,-79,56,-2,0,-3,-3,-3,33
1530606780055057,-34,-91,-14,-6,-2,-2,-21,-98
1530606780055057,-1,67,52,5,3,1,7,73
1530606780067025,13,-72,-4,12,4,4,10,32
1530606780067025,59,15,-12,-7,-6,-6,-6,-17
1530606780076001,127,56,-1,-16,-7,-5,-2,89
1530606780076001,-128,3,17,18,9,7,2,-48
1530606780089964,53,61,-3,-11,-6,-7,-10,-80
1530606780089964,-6,-36,-6,-12,-3,-5,-6,13
1530606780096945,84,31,6,3,-4,-3,-1,48
1530606780096945,-28,-83,-24,-12,-1,-1,3,-25
1530606780113899,125,44,-18,-6,-4,-1,-4,-3
1530606780113899,17,117,34,16,7,8,11,53
1530606780114898,14,-96,0,1,0,-2,-10,-84
1530606780114898,112,104,3,0,-4,-3,0,9
1530606780126865,-4,-3,-9,-1,2,2,3,-9
1530606780126865,15,-119,-11,-5,-4,-4,-5,1
1530606780135847,29,59,8,7,5,5,8,48
1530606780135847,-58,-17,-4,-4,-5,-7,-16,-69
1530606780150804,28,-45,-6,-1,1,-1,9,40
1530606780150804,67,97,10,0,-1,-3,-5,-80
1530606780156784,-128,-71,0,4,1,4,13,75
1530606780156784,96,-16,-14,-4,-3,-2,-9,-5
1530606780173739,-119,-72,-9,-2,3,2,-2,-52
1530606780173739,29,74,9,1,-1,0,3,75
1530606780174737,-93,-80,-25,-5,-1,0,1,-23
1530606780174737,74,21,2,-2,-2,0,1,-10
1530606780195681,53,95,40,15,2,0,2,33
1530606780195681,-83,-13,-22,-9,-1,0,0,-56
1530606780197676,127,67,12,5,-3,-6,-3,18
1530606780197676,-67,-38,-21,-15,-3,-4,-15,-29
1530606780210640,-23,28,-9,-5,-2,-1,-3,-60
1530606780210640,-45,-43,-1,2,-2,-2,0,-16
1530606780217626,-53,-11,-2,1,4,4,7,46
1530606780217626,43,47,7,1,-5,-3,0,-1
1530606780233579,-88,-22,3,4,3,2,5,2
1530606780233579,74,12,-5,-2,-2,-1,-4,19
1530606780235574,-96,17,-16,-10,-3,-3,-9,-86
1530606780235574,54,-1,11,12,4,3,7,77
1530606780255520,-47,41,21,2,1,2,0,3
1530606780255520,98,-8,-14,-6,-3,-3,-3,6
1530606780257516,76,68,26,9,5,4,4,11
1530606780257516,7,-43,-16,-5,-2,-3,-8,-17
1530606780270480,90,-29,-6,-3,-2,-3,-2,2
1530606780270480,-7,-33,9,8,4,3,7,-11
1530606780277462,-59,4,-2,3,-2,-2,-6,-40
1530606780277462,38,-3,-9,-6,0,2,6,13
1530606780293419,34,32,12,1,-4,-5,-14,-44
1530606780293419,-7,-82,-6,0,3,3,2,12
1530606780295414,81,15,5,1,1,-1,0,22
1530606780295414,-6,-20,2,-4,-3,-3,-2,15
1530606780316358,60,9,-1,-3,2,2,4,49
1530606780316358,-61,5,-3,7,1,2,5,33
1530606780317356,86,81,23,2,0,-2,0,14
1530606780317356,-69,-3,5,0,-1,0,-1,25
1530606780330320,36,1,-12,-5,-5,-4,-3,-30
1530606780330320,-6,-31,-19,-7,-3,-4,-8,-15
1530606780337301,72,13,12,1,-1,0,1,-10
1530606780337301,-128,-76,-11,-1,-1,0,0,-14
1530606780353259,84,75,-4,0,-2,-1,-1,36
1530606780353259,-32,-1,12,6,3,3,10,4
1530606780355254,-127,-36,-19,-10,-4,-4,-10,-41
1530606780355254,72,40,7,-1,1,0,1,-10
1530606780376198,-118,-52,-12,-3,0,2,-1,0
1530606780376198,88,-54,2,-5,-4,-7,-4,28
1530606780377195,-94,34,4,4,-1,1,8,6
1530606780377195,78,-2,-9,-6,-3,-3,-5,-21
1530606780390160,-13,-63,-5,-1,-1,0,5,-46
1530606780390160,-61,-25,1,-2,-1,1,-1,20
1530606780397142,41,-17,-11,-3,-5,-6,2,49
1530606780397142,-81,33,18,5,0,0,0,-13
1530606780413099,-50,-29,5,3,0,-1,2,-20
1530606780413099,-48,127,12,5,2,2,4,1
1530606780415094,112,-102,-28,-14,-4,-5,-14,-42
1530606780415094,-30,27,3,2,0,-2,-3,1
1530606780436038,66,38,6,1,3,1,2,26
1530606780436038,-96,-41,2,-3,-5,-3,2,28
1530606780438033,-46,-19,-18,-5,-3,-5,-12,-45
1530606780438033,79,27,6,4,2,2,3,17
1530606780450000,7,-28,-10,-7,-7,-7,-8,14
1530606780450000,55,1,-6,-6,-1,-2,-2,-10
1530606780458976,90,9,8,4,3,4,6,39
1530606780458976,-86,-107,-12,-12,-7,-7,-11,-89
1530606780472939,19,17,0,4,1,-1,-10,29
1530606780472939,-9,32,7,2,-1,-2,-6,20
1530606780480918,17,-35,0,1,3,1,4,10
1530606780480918,-21,-36,-8,-1,0,-1,1,7
1530606780495878,-25,65,6,0,1,3,4,2
1530606780495878,49,-39,-10,-3,-3,-1,0,-24
1530606780497872,-119,-15,-5,0,-3,-1,-4,7
1530606780497872,32,43,1,2,-2,1,2,-42
1530606780509840,-65,-21,5,0,2,2,10,-5
1530606780509840,61,35,5,7,2,0,-3,-2
1530606780518817,-88,-40,2,1,-2,1,1,-9
1530606780518817,127,78,0,-3,-3,-3,-1,5
1530606780533777,-112,-5,-35,-24,-10,-9,-15,-11
1530606780533777,-18,-12,19,1,3,3,2,-15
1530606780534779,-75,-18,7,8,4,4,4,-48
1530606780534779,52,20,-11,-2,-3,-4,-5,45
1530606780555717,-9,-76,4,3,0,2,6,-10
1530606780555717,53,76,18,7,4,2,2,-17
1530606780557713,11,39,1,-3,-5,-6,-15,-64
1530606780557713,-31,-91,-17,-2,3,4,6,23
1530606780569680,116,24,8,-3,-5,-4,6,29
1530606780569680,-128,-32,-21,-11,-4,-6,-18,-80
1530606780578656,127,-5,7,2,3,2,8,21
1530606780578656,103,34,9,0,-1,-3,-1,12
1530606780593617,34,-12,-11,-1,0,2,3,5
1530606780593617,8,18,12,4,2,1,6,42
1530606780595611,0,18,-3,2,-1,-1,-2,24
1530606780595611,-62,-7,3,2,1,-1,1,4
1530606780615558,59,43,-5,-3,2,-1,-3,-22
1530606780615558,6,-43,-7,0,-4,-2,4,103
1530606780617554,-13,24,0,-6,-2,-4,-16,-33
1530606780617554,-73,-2,-16,-6,-3,1,6,38
1530606780629521,-34,-10,17,6,1,-1,-8,-19
1530606780629521,-26,-14,-3,-3,2,2,6,11
1530606780638497,-26,-39,-8,-1,-7,-2,10,29
1530606780638497,-21,26,-12,-4,-2,-1,-8,-42
1530606780653456,-19,26,20,10,4,5,7,18
1530606780653456,-31,28,-11,0,-3,-4,-12,-97
1530606780655451,-38,-41,-6,-4,-1,-1,3,18
1530606780655451,-38,-27,4,2,1,0,-1,-15
1530606780676395,60,8,0,-2,-3,-2,-4,-11
1530606780676395,59,-6,-1,-6,-1,-1,4,12
1530606780677392,-50,29,5,1,2,0,-4,42
1530606780677392,86,21,14,9,3,-1,0,-7
1530606780689360,-53,-23,-15,-5,-2,-1,1,26
1530606780689360,16,-11,1,-2,-2,0,3,17
1530606780698337,103,50,1,0,1,1,-3,-13
1530606780698337,-76,-24,0,-5,-2,-1,-1,-51
1530606780713296,46,14,-5,-3,-3,-6,-7,-1
1530606780713296,19,0,-16,-7,-4,-4,-6,-21
1530606780715291,0,9,-1,-1,1,0,2,-7
1530606780715291,113,-15,7,5,2,1,6,33
1530606780736235,-80,38,1,3,-2,1,4,0
1530606780736235,47,4,-3,-4,0,-2,-14,-46
1530606780737233,33,-11,-4,3,2,3,15,70
1530606780737233,74,62,0,-4,-5,-2,-7,18
1530606780749200,-23,-8,-10,-9,0,-3,-2,-16
1530606780749200,-45,4,9,9,1,2,4,43
1530606780758176,-16,21,14,4,3,0,-5,-15
1530606780758176,46,22,-6,-1,-3,-2,-3,32
1530606780773136,-24,-37,-1,5,5,3,2,-2
1530606780773136,102,65,6,-2,-2,0,3,22
1530606780775131,-93,-72,-11,-9,-4,-5,-10,-51
1530606780775131,18,80,19,8,2,2,6,20
1530606780796075,-30,-78,-1,1,-2,-5,-10,-48
1530606780796075,-11,38,6,11,7,3,5,-3
1530606780798070,90,1,-8,-6,-4,-6,-10,-24
1530606780798070,54,-27,-8,-8,-2,-3,-9,-25
1530606780810037,103,-43,-7,-5,-3,-1,5,10
1530606780810037,9,14,-2,-11,-5,-5,-4,-24
1530606780819014,11,53,14,15,3,3,7,27
1530606780819014,-128,-28,-5,-2,0,-2,-4,1
1530606780833977,55,48,6,1,0,-1,-6,-12
1530606780833977,-55,-115,-20,-4,-3,3,4,-5
1530606780834972,96,43,20,0,-1,0,11,103
1530606780834972,-49,-5,13,8,5,3,-2,-5
1530606780855915,86,46,-7,0,-3,-1,3,-13
1530606780855915,-94,-16,8,-4,1,-4,-11,-51
1530606780857910,11,0,0,-2,1,2,4,3
1530606780857910,-35,-49,-10,3,1,3,17,28
1530606780869877,6,7,-3,1,3,2,2,7
1530606780869877,-39,-113,13,2,-2,-2,-2,20
1530606780878854,39,87,13,-7,-4,-2,-4,-6
1530606780878854,-51,-31,-6,-4,-6,-6,-8,-100
1530606780893813,-8,-56,-5,2,4,4,6,45
1530606780893813,51,53,4,7,3,0,-1,-19
1530606780894811,62,-57,-28,-2,-4,-5,-4,-11
1530606780894811,-60,14,20,-5,0,-2,-8,3
1530606780915755,-87,-70,-17,-8,-5,-2,-5,-5
1530606780915755,53,68,5,0,2,2,-1,31
1530606780917750,-83,-37,-22,-4,-3,1,6,-12
1530606780917750,31,35,-12,-1,-2,-1,-8,-56
1530606780929717,29,9,13,2,-4,-3,-2,-6
1530606780929717,1,77,9,7,2,3,7,-55
1530606780938694,6,-3,-19,-12,-6,-6,-12,-51
1530606780938694,-6,-34,-6,-7,-4,-2,6,36
1530606780953653,82,54,5,12,4,3,5,51
1530606780953653,-77,23,4,-9,-5,-5,-7,-7
1530606780954651,-18,-122,-13,-2,3,3,5,16
1530606780954651,-23,107,27,18,2,0,-2,3
1530606780975595,79,12,-4,-1,0,2,-1,-1
1530606780975595,-18,-40,-10,-1,-1,1,3,-14
1530606780977590,51,57,1,-4,-1,-4,-10,-11
1530606780977590,57,-69,2,5,2,2,9,127
1530606780989557,1,54,2,-6,-1,-1,-8,-82
1530606780989557,-21,-87,-13,-3,0,1,-2,-12
1530606780998534,25,71,14,3,1,3,8,50
1530606780998534,41,-64,-15,-4,-2,-2,-3,-1
1530606781012496,-68,19,1,0,-2,0,8,51
1530606781012496,127,86,-2,1,-7,-8,-10,2
1530606781019477,73,7,-7,0,1,1,0,28
1530606781019477,-46,-47,15,-1,1,-1,3,-40
1530606781036432,-34,-70,-21,-2,1,2,2,-5
1530606781036432,71,9,-2,-11,-5,-5,-3,49
1530606781037430,-121,-24,3,0,2,4,1,-47
1530606781037430,63,-57,-10,-5,-4,-2,-3,5
1530606781049397,-73,72,10,2,0,-1,-1,4
1530606781049397,-24,-4,-1,7,2,3,3,-6
1530606781058373,-36,16,18,3,-2,-1,-3,-7
1530606781058373,65,-9,-6,-7,1,0,-1,-10
1530606781072336,-62,-78,-4,2,1,0,4,57
1530606781072336,9,1,1,1,-1,-2,2,59
1530606781079317,-86,7,-20,-14,-10,-9,-9,-56
1530606781079317,-71,109,21,13,10,9,13,46
1530606781096272,34,-41,-20,-15,-11,-11,-15,-43
1530606781096272,-27,46,2,-1,0,-3,-8,22
1530606781097269,48,-34,10,5,2,2,0,3
1530606781097269,38,39,8,2,-1,1,6,41
1530606781118213,-54,-5,1,1,2,0,0,-50
1530606781118213,44,13,0,0,-1,1,7,-29
1530606781120208,-105,-4,4,6,2,1,2,37
1530606781120208,123,53,-8,-4,-3,-1,-3,-21
1530606781133173,-71,-60,16,4,0,1,1,-34
1530606781133173,-39,-60,-38,-18,-10,-8,-16,-33
1530606781139157,-28,-21,-1,-6,-3,-4,-3,39
1530606781139157,25,58,9,2,-2,-3,0,-11
1530606781156112,-36,35,-4,2,4,4,11,43
1530606781156112,-15,-19,17,9,2,1,-1,26
1530606781157110,111,-26,-23,-7,-3,-2,-2,-59
1530606781157110,-77,-26,4,-1,-3,-2,-11,-20
1530606781178053,127,-20,-26,-12,-4,-5,-9,-21
1530606781178053,-78,-8,-1,3,5,7,19,108
1530606781180048,106,53,11,1,-3,-6,-12,-20
1530606781180048,-43,-69,-26,-17,-8,-8,-19,-67
1530606781193013,-74,34,28,11,6,7,10,59
1530606781193013,-5,-114,-41,-10,-6,-4,0,-34
1530606781199995,-31,64,35,10,5,3,6,75
1530606781199995,-46,-12,-17,-7,-3,-4,-8,-101
1530606781215952,-22,21,-4,-5,-5,-2,13,81
1530606781215952,-23,34,12,14,10,9,4,-59
1530606781217947,89,90,-12,2,-5,1,14,37
1530606781217947,-5,-51,-4,-9,-5,-7,-18,-59
1530606781238891,127,89,-2,-8,-3,-3,-4,22
1530606781238891,127,-58,28,7,0,-3,-1,-18
1530606781239888,88,56,-23,-17,-4,-6,-10,-22
1530606781239888,-5,-25,-4,-4,3,3,16,56
1530606781252853,50,-23,10,11,1,1,-4,-17
1530606781252853,1,51,13,9,7,4,6,15
1530606781259834,-52,-119,2,5,0,2,-3,5
1530606781259834,93,4,-3,11,3,1,-9,-47
1530606781275792,76,38,12,-7,-8,-9,-16,-11
1530606781275792,-62,32,-14,-16,-9,-7,-12,-50
1530606781277787,34,-5,9,4,2,3,5,-3
1530606781277787,45,4,13,4,3,3,6,40
1530606781298730,15,-1,-12,-4,-3,-3,-7,-39
1530606781298730,-10,34,17,9,1,3,4,15
1530606781299728,18,-28,-6,2,1,1,6,11
1530606781299728,-18,76,8,-1,-5,0,2,-6
1530606781312693,52,54,2,-5,-5,-8,-14,-15
1530606781312693,4,5,-23,-18,-8,-5,-6,3
1530606781319674,-127,73,19,10,9,6,5,-34
1530606781319674,86,-7,7,10,0,0,13,124
1530606781335632,-49,-60,-18,0,7,6,-1,-48
1530606781335632,40,18,8,-6,-2,0,4,35
1530606781337627,-74,-18,-11,-9,-4,-3,2,-29
1530606781337627,2,6,4,15,9,6,11,14
1530606781358571,-1,107,25,9,2,1,4,7
1530606781358571,127,-128,-28,-10,-3,-3,1,30
1530606781360565,-75,9,0,-3,-3,-5,-18,-86
1530606781360565,43,-99,-26,-12,-4,-4,-8,-15
1530606781372533,-68,32,32,13,5,6,13,24
1530606781372533,-6,12,12,10,2,1,1,47
1530606781381509,88,114,-6,1,-1,-3,-4,-12
1530606781381509,8,21,-8,-12,-10,-8,-13,-18
1530606781396469,57,-68,-11,-4,-1,-1,-3,-17
1530606781396469,108,41,14,6,3,4,9,0
1530606781397467,-57,-96,4,5,1,1,-5,-10
1530606781397467,54,73,-11,-12,-7,-5,1,35
1530606781418410,-78,-10,5,0,-3,-1,-1,3
1530606781418410,37,9,-17,-5,-4,-6,-5,2
1530606781420405,76,-42,8,2,3,1,2,2
1530606781420405,-120,60,17,13,6,4,0,4
1530606781432373,81,-21,-23,-16,-12,-10,-10,-28
1530606781432373,-102,-14,-7,-7,-2,0,-3,17
1530606781441349,-90,-91,6,6,4,4,5,-9
1530606781441349,84,15,-7,-1,-1,-4,-10,-6
1530606781456309,-6,-18,-16,-14,-4,-4,-2,-27
1530606781456309,-79,-35,-24,-6,-3,-1,-8,14
1530606781457307,16,2,19,8,2,1,-3,29
1530606781457307,-8,-23,-12,-6,-1,1,5,15
1530606781478250,-9,15,1,0,0,0,1,-24
1530606781478250,-65,-4,11,6,4,6,13,-15
1530606781480245,-65,-61,-20,-2,0,-1,-4,19
1530606781480245,46,-17,-3,-5,0,-2,-2,-16
1530606781492213,83,-31,-1,2,1,4,3,68
1530606781492213,-58,-26,-7,-5,-4,-1,-9,-107
1530606781501189,-36,67,9,2,-6,-7,-10,-8
1530606781501189,-1,-37,5,3,3,3,0,27
1530606781516149,19,-17,-4,-4,-2,-3,-1,15
1530606781516149,-9,14,9,1,0,-4,-7,11
1530606781517147,23,-70,-16,-5,-2,0,11,16
1530606781517147,-107,88,25,12,-1,-2,-5,-48
1530606781538090,73,-31,-24,-13,-8,-5,-1,22
1530606781538090,17,22,11,7,3,1,0,-2
1530606781540085,-39,29,-4,-8,-3,-1,8,-11
1530606781540085,-78,46,4,0,0,-3,-11,-50
1530606781552053,92,-16,12,3,5,0,-4,0
1530606781552053,43,-14,-13,-2,-3,-3,0,15
1530606781561029,28,55,32,8,1,2,4,68
1530606781561029,89,-12,-5,-8,-5,-3,1,16
1530606781575989,-54,3,-10,0,0,1,-2,-34
1530606781575989,37,-39,4,0,0,-2,-13,-59
1530606781577984,106,17,4,9,2,1,0,-33
1530606781577984,36,-32,-12,-4,-1,2,8,50
1530606781598928,-47,-14,18,7,0,1,-4,-3
1530606781598928,-28,4,-13,-10,-5,-3,6,50
1530606781599925,-3,-23,8,7,1,3,6,14
1530606781599925,-37,-8,-10,-3,-4,-7,-17,-86
1530606781611893,57,-52,-15,-4,-1,1,7,2
1530606781611893,-91,41,23,7,5,2,0,-41
1530606781620869,107,-90,-42,-20,-10,-8,-10,-40
1530606781620869,70,90,41,9,3,1,-3,12
1530606781635829,-105,54,3,1,1,-2,-8,-9
1530606781635829,111,3,2,-2,-4,-1,0,0
1530606781637824,-13,-63,-10,-5,3,4,17,62
1530606781637824,10,-104,-26,-13,-9,-7,-3,-10
1530606781658768,6,28,21,16,9,6,2,49
1530606781658768,-88,59,21,-1,-4,-6,-6,38
1530606781659765,10,-41,-15,-9,-3,-4,-10,-42
1530606781659765,33,-41,-7,4,2,4,14,62
1530606781671733,-76,-37,0,0,-1,1,1,-6
1530606781671733,-61,50,-3,-5,-2,-3,0,26
1530606781680709,4,-47,-10,-2,1,1,5,-19
1530606781680709,-80,83,7,1,1,-1,-1,-14
1530606781695669,39,-48,-3,2,-1,0,-3,12
1530606781695669,-22,2,-8,-2,-1,1,2,42
1530606781697664,-59,112,0,-3,-3,-4,-11,-49
1530606781697664,62,-9,1,2,5,5,10,25
1530606781718608,49,1,-15,-7,-3,-3,-2,-12
1530606781718608,114,6,-1,5,0,-2,-14,0
1530606781720603,-28,5,17,0,-3,-2,-11,-86
1530606781720603,18,-2,12,4,1,-1,-8,28
1530606781732570,-59,-1,-3,0,-1,-3,-5,-27
1530606781732570,4,-36,-7,-11,0,-2,-1,-67
1530606781741547,127,64,-3,5,-3,1,4,46
1530606781741547,-65,-128,-31,-9,-3,-3,-1,27
1530606781755509,28,58,0,-8,-2,-1,-1,-35
1530606781755509,94,-20,8,8,2,3,3,-23
1530606781757504,-58,46,-3,-15,-3,-2,-6,20
1530606781757504,96,30,4,4,1,-1,1,14
1530606781778448,29,36,12,9,2,1,1,-65
1530606781778448,72,-63,-29,-5,-3,-4,-6,-5
1530606781780443,-72,2,3,-2,-1,-3,-1,-8
1530606781780443,1,-22,6,-7,2,4,5,-5
1530606781792410,78,6,-7,-2,-7,-4,-1,1
1530606781792410,81,62,5,4,0,-2,-7,-35
1530606781801387,39,-34,0,0,1,0,0,13
1530606781801387,-5,-40,-22,-7,-5,-2,-6,1
1530606781816346,-25,24,12,-3,-1,-3,-11,-79
1530606781816346,18,46,11,1,-1,3,8,30
1530606781817344,-20,-45,-12,-1,-7,0,-2,31
1530606781817344,-69,8,5,-1,5,-2,3,-32
1530606781838287,-21,-4,3,5,1,6,12,87
1530606781838287,2,15,-1,7,3,-3,-3,-11
1530606781840282,43,-8,1,-7,2,-1,2,-9
1530606781840282,-43,6,8,9,-4,2,6,13
1530606781852250,-70,-13,-6,-7,-6,-7,-8,-32
1530606781852250,4,13,-9,-6,-1,-1,-4,51
1530606781861227,3,76,14,7,2,2,1,-5
1530606781861227,5,-1,-28,-17,-8,-5,-7,-58
1530606781876186,24,-30,8,2,4,2,7,88
1530606781876186,-79,-9,-12,-5,-3,1,3,-8
1530606781877184,117,-53,-2,-2,-2,-3,0,45
1530606781877184,-35,79,15,11,5,2,9,-5
1530606781898127,60,-40,-22,-12,-8,-4,-5,0
1530606781898127,70,62,10,-4,0,-2,-6,-40
1530606781900123,-5,-22,21,24,8,3,2,24
1530606781900123,72,-82,-31,-11,-7,-7,-9,19
1530606781912090,28,-2,8,5,6,3,5,-22
1530606781912090,-30,-51,0,-1,-1,0,5,-4
1530606781921066,-13,-28,-25,-21,-5,-5,-10,-73
1530606781921066,-48,-57,15,8,1,2,3,0
1530606781936026,-49,37,-7,-6,0,-3,-8,16
1530606781936026,-50,-71,-2,3,-2,-1,1,-11
1530606781938021,81,4,3,8,0,3,6,55
1530606781938021,-92,17,13,4,1,-1,-6,-43
1530606781958965,-66,-97,-21,-11,-6,-9,-12,-31
1530606781958965,29,106,40,9,2,5,15,35
1530606781959962,-61,-36,9,10,4,3,0,-56
1530606781959962,107,-18,-15,-9,-3,0,3,27
1530606781971930,8,68,19,17,9,8,11,-9
1530606781971930,103,-64,-28,-15,-14,-14,-24,3
1530606781980906,-79,53,6,-4,2,2,4,37
1530606781980906,-37,45,9,8,0,1,0,7
1530606781994869,39,54,-3,-1,-1,-3,-5,-71
1530606781994869,84,-3,9,3,2,7,16,39
1530606782001850,-27,22,-13,1,-1,-4,-2,5
1530606782001850,3,34,1,-5,-2,-2,1,10
1530606782018804,95,-52,-21,-8,-2,-2,-3,89
1530606782018804,-29,109,19,2,-1,-3,-7,-13
1530606782019802,-38,-6,-28,-17,-10,-11,-28,-48
1530606782019802,-50,10,7,5,2,3,7,14
1530606782040746,-40,44,5,-1,-2,-1,2,72
1530606782040746,33,-34,-7,1,1,2,4,-29
1530606782042741,-2,86,12,5,0,0,-3,-17
1530606782042741,100,-14,-1,0,0,1,8,18
1530606782055706,39,0,9,5,0,-2,-5,-28
1530606782055706,-110,-33,-25,-9,0,-1,-3,-17
1530606782061690,127,-29,14,7,2,4,10,65
1530606782061690,-22,19,-13,-6,-7,-9,-14,-94
1530606782078645,-109,-5,1,-7,-4,-3,0,39
1530606782078645,5,-11,-13,-5,0,-1,-4,-21
1530606782079642,127,-53,1,2,1,1,3,12
1530606782079642,-67,65,25,3,-4,0,-6,24
1530606782100586,81,-17,2,7,2,5,13,-1
1530606782100586,-39,-3,-4,-3,-1,0,5,24
1530606782102581,42,-8,-5,0,0,-2,-1,0
1530606782102581,-45,-39,-15,-12,-3,-3,0,-12
1530606782115546,111,40,9,1,0,-5,-20,-43
1530606782115546,-10,-10,-13,2,0,1,2,-7
1530606782122527,65,-19,32,11,4,6,16,51
1530606782122527,-31,-25,-14,0,-4,0,-7,-34
1530606782138485,68,-1,-2,-6,3,-5,-5,-37
1530606782138485,9,-46,-10,-6,1,2,6,64
1530606782140480,-125,-38,-17,-8,-5,-1,-4,38
1530606782140480,88,21,17,10,1,-1,-1,15
1530606782161423,-128,6,2,5,0,4,6,-7
1530606782161423,110,48,-1,0,-3,-4,1,0
1530606782162421,-9,36,-5,-8,-7,-5,-12,-61
1530606782162421,46,-29,-4,-3,2,1,-2,-16
1530606782175386,-27,26,14,5,3,2,5,14
1530606782175386,-20,-48,-17,-6,-4,-5,-3,19
1530606782182367,-128,-14,-14,-9,-5,-6,-15,-80
1530606782182367,114,9,-11,-7,-2,-1,6,61
1530606782198324,10,-5,10,4,1,-1,-3,-25
1530606782198324,62,0,8,7,-1,1,-1,-21
1530606782200320,20,-5,0,3,0,0,5,24
1530606782200320,119,-18,-18,-6,-2,-3,-3,13
1530606782221263,63,66,2,0,0,1,6,-25
1530606782221263,9,23,15,1,0,0,8,46
1530606782222261,113,17,-7,3,1,-2,-1,14
1530606782222261,-90,21,5,-2,-1,-2,-6,-69
1530606782235226,-28,-68,-4,1,-4,2,3,40
1530606782235226,-57,-9,-6,-9,-4,0,9,11
1530606782242207,80,51,6,-6,-3,-3,-5,0
1530606782242207,-66,-25,7,17,2,-4,-4,-3
1530606782258165,3,-57,-12,-6,-1,2,11,39
1530606782258165,-128,23,1,5,1,0,-3,-4
1530606782260159,31,18,2,-2,-2,-3,-8,21
1530606782260159,57,8,9,-1,2,4,7,48
1530606782281103,-81,-56,-14,-5,-5,-5,-14,-72
1530606782281103,127,-48,-11,-4,-1,-1,-2,57
1530606782283098,-128,79,12,-1,0,1,7,6
1530606782283098,85,-28,-9,-6,-1,-3,-3,-20
1530606782295066,62,96,10,-4,-1,-2,1,42
1530606782295066,-43,-14,7,6,4,1,-7,-40
1530606782304042,33,-48,-5,1,0,0,-1,-11
1530606782304042,-28,-21,7,10,4,5,10,29
1530606782319002,1,-16,-16,-9,-7,-3,-2,59
1530606782319002,33,-2,0,1,0,2,-3,-46
1530606782320000,20,21,1,4,-1,1,9,25
1530606782320000,-46,-41,-7,-4,-2,-1,-10,-14
1530606782340943,39,9,1,-1,-3,-2,-2,5
1530606782340943,55,-12,8,6,-1,-1,3,22
1530606782342938,-31,-23,-15,-2,1,0,-2,13
1530606782342938,-87,8,-7,-7,-1,0,-1,15
1530606782354906,71,13,9,2,1,-3,-7,-22
1530606782354906,-84,-73,-14,-4,-1,-1,-2,-9
1530606782363882,37,35,0,-1,0,1,8,18
1530606782363882,2,53,18,1,0,0,-3,16
1530606782378842,50,11,-5,-3,-1,-1,-4,-35
1530606782378842,-126,6,0,4,0,1,3,2
1530606782379839,-17,-48,-6,-1,3,-1,-7,-26
1530606782379839,70,-30,-14,-9,-8,-3,1,3
1530606782400783,-128,-4,0,0,-1,3,-5,-21
1530606782400783,127,43,14,7,6,1,6,17
1530606782402778,-121,-45,-10,-6,-9,-6,-7,-24
1530606782402778,97,44,7,3,3,-1,8,29
1530606782414746,57,-75,-11,-4,0,2,8,-31
1530606782414746,-62,19,-6,-4,-5,-6,-12,-17
1530606782423722,86,12,5,1,-1,0,4,38
1530606782423722,-50,25,-2,-4,-3,-1,-3,-23
1530606782438682,8,-20,0,0,0,0,0,39
1530606782438682,-18,51,4,3,0,3,2,-14
1530606782439679,43,-19,0,-1,2,0,1,-26
1530606782439679,-15,-27,-1,2,-1,0,1,10
1530606782460623,104,29,-6,-6,-2,-4,-2,-17
1530606782460623,35,-3,-2,-10,-2,-2,0,5
1530606782462618,-4,-9,8,5,-2,-1,3,-1
1530606782462618,-21,5,10,10,5,3,4,53
1530606782474586,-95,-77,-10,0,-2,-1,3,-7
1530606782474586,28,76,8,0,-2,-3,-14,-67
1530606782484560,25,20,-9,-8,-4,-1,-5,6
1530606782484560,41,-13,-14,-11,-1,0,1,14
1530606782498522,-84,12,14,5,0,-3,-2,-20
1530606782498522,62,-5,-2,-3,-4,-1,-1,11
1530606782500517,-30,-16,-5,0,1,-1,-1,1
1530606782500517,-36,18,4,3,1,-1,-9,-40
1530606782521461,5,25,-11,-6,-3,-1,-4,56
1530606782521461,50,-35,-4,0,1,1,-1,-26
1530606782522458,46,-22,3,-4,-1,-3,2,32
1530606782522458,28,-25,-9,-4,-2,1,1,27
1530606782534426,-86,24,21,15,7,-1,-20,-101
1530606782534426,-27,11,-9,-7,-6,-5,1,65
1530606782543402,-14,41,7,9,1,2,2,-11
1530606782543402,29,-40,-10,-6,-2,-2,3,10
1530606782558362,88,8,-3,-7,-5,-2,5,39
1530606782558362,-42,9,-9,-2,1,0,-4,-9
1530606782560357,-42,19,16,0,-4,-3,-4,-11
1530606782560357,24,10,3,3,-3,0,5,32
1530606782581300,-37,-25,-12,3,4,-1,-3,-15
1530606782581300,-68,-45,-3,-1,-1,1,4,6
1530606782582298,72,3,-20,-11,-2,-1,1,31
1530606782582298,-13,56,8,7,3,1,-4,-36
1530606782594266,65,-23,-5,0,-5,-3,6,-9
1530606782594266,85,33,13,3,0,-3,-13,9
1530606782603242,19,-46,-6,-1,0,0,4,-13
1530606782603242,-79,-16,-11,-10,-3,-5,-9,-33
1530606782618202,6,19,-4,-5,2,4,10,33
1530606782618202,-13,-36,2,3,0,-1,4,39
1530606782620197,-11,49,9,8,3,3,3,-35
1530606782620197,125,-25,-10,-10,-3,-4,-3,13
1530606782641140,-106,23,-4,-6,0,-3,-6,-38
1530606782641140,58,-26,-5,0,2,1,6,9
1530606782642138,-122,38,26,18,6,3,-2,-23
1530606782642138,37,-55,-9,-10,-6,-5,-3,-16
1530606782655103,-110,-20,3,3,0,0,1,25
1530606782655103,51,17,-5,-6,-2,2,5,-43
1530606782664079,-6,-35,-1,1,0,0,2,57
1530606782664079,59,22,-2,-2,-4,-4,-2,-12
1530606782678042,74,-14,5,-3,-2,-1,-4,1
1530606782678042,39,36,5,8,4,1,4,27
1530606782680037,-41,6,-20,-17,-6,-4,-9,-17
1530606782680037,23,2,13,9,-1,0,-2,27
1530606782700980,-10,12,-3,-3,-3,-1,-3,-36
1530606782700980,76,-16,7,2,-3,2,10,52
1530606782702975,26,24,-3,-5,-5,-9,-16,-29
1530606782702975,34,44,16,5,5,6,7,7
1530606782714943,-2,-1,0,-7,-3,-2,3,29
1530606782714943,-78,25,19,15,5,3,-2,-19
1530606782723919,85,-84,-20,-7,-5,-4,-2,44
1530606782723919,-86,11,-11,-8,-4,-3,1,-81
1530606782738879,127,-61,1,17,6,2,-9,16
1530606782738879,-119,-19,-22,-23,-12,-8,-12,-110
1530606782739877,-13,-2,-1,-2,-2,-2,-1,17
1530606782739877,18,22,0,-2,2,3,4,13
1530606782760820,-15,4,3,-1,0,3,8,12
1530606782760820,111,-9,-4,0,-3,-1,2,7
1530606782762815,-80,25,-16,-9,-1,2,-3,-62
1530606782762815,16,-17,13,-1,-2,-3,-8,-11
1530606782774783,-4,-39,1,-2,-1,1,3,36
1530606782774783,46,58,6,11,6,0,-1,27
1530606782783759,99,-10,30,11,4,2,5,7
1530606782783759,84,32,-10,4,0,-1,-2,-9
1530606782796724,-58,-59,-19,-12,-2,0,2,7
1530606782796724,72,-59,-8,-17,-7,-7,-9,-1
1530606782805700,101,53,29,14,3,3,12,54
1530606782805700,104,-6,-21,0,-4,-4,-11,-37
1530606782820660,107,8,18,5,4,4,13,44
1530606782820660,-84,-57,-19,-5,-2,-1,-3,8
1530606782822655,2,20,-4,-6,-2,-2,0,-54
1530606782822655,-51,-18,-1,-7,-3,-3,-8,-17
1530606782834623,58,60,-3,3,-4,-2,6,58
1530606782834623,-57,-48,15,4,4,2,1,-91
1530606782843599,-12,-5,-30,-15,-7,-5,-9,-11
1530606782843599,-19,-57,-16,-11,-3,-4,1,68
1530606782858559,106,29,19,6,3,1,-3,-69
1530606782858559,-108,10,-6,9,2,0,2,16
1530606782860555,56,59,5,3,3,3,1,2
1530606782860555,-66,-91,-5,0,-5,-7,-8,-17
1530606782880500,-49,83,-3,-8,-3,-3,-3,-11
1530606782880500,113,14,-1,-3,-2,-1,3,77
1530606782887482,-128,-36,-2,-5,-3,-6,-6,-27
1530606782887482,63,-10,2,2,5,3,1,33
1530606782894463,-1,50,2,1,-2,-1,-2,-32
1530606782894463,85,12,7,7,2,3,4,40
1530606782903439,-8,20,5,-2,0,0,-11,-13
1530606782903439,-126,2,7,2,4,4,6,0
1530606782917401,16,11,-13,3,-6,-6,-7,-28
1530606782917401,-128,1,-5,-4,-4,-5,-7,8
1530606782924383,78,-36,-13,-3,0,-1,1,-6
1530606782924383,2,76,14,2,-1,0,3,-15
1530606782941337,-12,-74,-15,-9,-3,-3,-11,-7
1530606782941337,83,-13,-3,-11,-2,1,8,-34
1530606782942335,-100,21,5,7,3,0,-5,-24
1530606782942335,83,41,5,3,1,3,11,58
1530606782954303,-89,-88,-18,-6,-5,-4,-8,-14
1530606782954303,92,53,13,5,1,-2,-7,-28
1530606782963279,-11,-36,-11,-7,-4,-1,-2,-11
1530606782963279,42,2,2,6,2,2,4,-14
1530606782978239,-44,-16,3,-6,-2,-2,-3,-7
1530606782978239,-24,12,1,-1,-1,-3,-4,-2
1530606782984223,30,-23,-5,2,-2,-1,5,24
1530606782984223,-27,83,2,1,0,-1,-2,-7
1530606783001178,-68,15,-12,-9,-6,-5,-3,24
1530606783001178,-17,-23,-5,-4,2,0,-9,-6
1530606783002175,71,77,9,2,-3,-4,-2,16
1530606783002175,54,-75,-9,-2,-1,2,4,4
1530606783023119,-7,106,18,11,2,5,10,55
1530606783023119,-26,7,-13,-2,-2,-3,-3,-48
1530606783025114,69,-56,-6,0,3,3,6,47
1530606783025114,5,5,1,-3,0,-3,-8,-30
1530606783038079,-58,-23,-15,-7,-1,0,0,0
1530606783038079,97,14,-1,-1,-4,-5,-5,38
1530606783045060,-86,-2,6,-8,1,1,3,-5
1530606783045060,5,0,-2,10,2,3,3,17
1530606783061017,127,-20,17,6,4,2,6,19
1530606783061017,-38,-18,-1,-3,-4,-1,-3,11
1530606783063013,3,-36,3,-3,-2,-3,-11,-31
1530606783063013,-41,8,-12,-10,-3,0,4,-6
1530606783083956,43,37,20,10,5,2,-4,-37
1530606783083956,-62,-4,-4,0,1,2,4,33
1530606783084954,68,-9,-14,-3,-3,0,1,-43
1530606783084954,-92,6,20,3,-1,-1,-4,-21
1530606783097919,127,-20,-9,3,1,0,3,14
1530606783097919,0,27,1,-6,-1,0,-1,13
1530606783104900,-99,-48,-12,-2,-4,-1,-2,-15
1530606783104900,12,-9,-5,-2,-3,-2,-4,-13
1530606783120857,30,33,-2,-3,-2,-4,-4,-5
1530606783120857,2,-58,-3,1,2,4,4,-25
1530606783123850,7,-61,10,4,1,0,7,57
1530606783123850,-38,46,-1,2,-3,-3,0,-21
1530606783143796,-35,-42,4,2,3,2,-5,6
1530606783143796,-118,-29,-2,-4,-9,-3,0,0
1530606783144794,69,75,7,7,5,1,2,-14
1530606783144794,-42,-13,-13,-8,-1,-3,-3,-49
1530606783157759,30,-24,-2,-3,-1,1,4,24
1530606783157759,127,50,4,-9,-1,-2,-3,-43
1530606783164740,-49,-7,19,17,1,2,-3,-5
1530606783164740,-13,-29,-3,2,0,0,-1,44
1530606783180697,101,78,-4,-6,-3,-5,1,3
1530606783180697,-52,-28,-10,-5,-3,0,1,-12
1530606783182692,50,-11,-12,-9,-2,-4,-2,31
1530606783182692,20,4,7,6,1,3,0,11
1530606783203636,-128,-26,-7,-10,-8,-5,-12,-15
1530606783203636,94,-17,-3,7,7,3,9,10
1530606783205631,47,60,-5,-3,-1,-1,-2,-45
1530606783205631,-87,-88,-7,-7,-4,-6,-8,20
1530606783217599,56,42,5,-1,2,1,-1,10
1530606783217599,-73,51,10,1,0,-2,0,8
1530606783224580,18,-12,-10,4,0,3,8,-2
1530606783224580,127,10,4,2,4,3,16,0
1530606783240537,-83,2,-6,0,-4,-7,-7,19
1530606783240537,4,-15,4,8,3,1,3,16
1530606783242533,20,-26,-9,-11,-5,-4,-5,-26
1530606783242533,29,23,-6,-5,-3,-2,0,27
1530606783263476,-74,-21,-3,-4,-2,0,2,-9
1530606783263476,76,6,0,-1,0,-3,-6,-14
1530606783265471,-88,36,6,4,1,3,6,45
1530606783265471,-94,-34,-6,-4,-4,-4,-12,-34
1530606783277439,97,1,2,2,1,3,8,39
1530606783277439,-57,-22,-9,-2,-4,-2,-2,-42
1530606783286415,40,-5,-4,-3,1,-1,3,36
1530606783286415,8,37,15,0,-2,-3,-8,-30
1530606783301375,2,18,-9,7,1,-1,1,18
1530606783301375,27,52,6,4,2,1,4,27
1530606783302372,-73,-61,-4,-2,-3,-1,-8,-59
1530606783302372,-35,-29,-10,-5,2,0,1,12
1530606783323316,-119,30,-6,-5,-2,-2,-7,-35
1530606783323316,48,-32,7,5,0,0,2,22
1530606783325311,-34,74,2,-3,-1,-2,0,-5
1530606783325311,98,4,3,5,-1,1,3,12
1530606783337279,37,-52,-14,-13,-8,-4,2,-42
1530606783337279,-120,-42,3,6,3,0,-2,8
1530606783346255,27,27,3,-2,0,-1,1,-12
1530606783346255,12,39,12,3,2,3,10,10
1530606783361215,-3,-83,-10,-6,-4,-2,-3,-10
1530606783361215,37,26,0,-11,-6,-2,-1,22
1530606783362212,6,-22,-2,7,7,-2,-9,-22
1530606783362212,-6,-13,1,-4,-2,-1,4,11
1530606783383156,97,-10,8,22,8,6,14,32
1530606783383156,-19,-43,-18,-16,-8,-7,-19,-36
1530606783385151,36,-19,-3,-3,-10,-2,6,36
1530606783385151,-48,55,13,6,7,-1,-3,1
1530606783397119,-23,27,4,-1,2,2,-2,-29
1530606783397119,24,-23,-2,2,1,2,4,6
1530606783406095,-84,-5,4,-4,-3,-3,-5,-23
1530606783406095,31,17,-9,-1,-6,-4,-9,-12
1530606783421055,-21,28,6,-5,-3,-2,-5,-7
1530606783421055,35,-2,-1,2,2,1,10,37
1530606783423050,45,4,-4,0,0,-3,-5,32
1530606783423050,40,11,0,5,2,2,1,26
1530606783442996,-26,20,11,-3,1,3,3,-16
1530606783442996,85,15,-5,-2,-10,-7,5,35
1530606783450975,-86,-35,4,-1,6,1,-10,-18
1530606783450975,18,-23,-5,1,-5,-5,-5,-20
1530606783456959,45,38,-8,1,-1,-3,-6,43
1530606783456959,-78,-33,1,3,0,5,6,-52
1530606783465935,-37,-10,-8,-10,-7,-7,-7,13
1530606783465935,49,8,-13,-5,-2,-2,0,-2
1530606783480895,47,-36,-6,-5,-1,2,6,71
1530606783480895,-123,29,10,3,3,2,-3,2
1530606783482889,57,59,6,4,1,0,5,33
1530606783482889,26,-34,-8,-3,0,0,-6,-22
1530606783503833,-32,-12,-3,-3,-3,-2,1,1
1530606783503833,28,44,7,2,2,-2,2,22
1530606783504831,76,-8,-3,0,1,2,8,17
1530606783504831,-50,-2,0,1,-9,2,0,-10
1530606783516799,-15,-2,-2,-3,8,-3,-6,-31
1530606783516799,52,-4,3,1,-1,-3,-9,-25
1530606783525775,-23,2,-12,-5,-5,-3,5,-4
1530606783525775,83,-40,-11,-4,1,3,-1,-44
1530606783540735,-10,86,23,11,3,1,-1,-12
1530606783540735,-14,-95,-26,-9,-3,-4,-8,-39
1530606783542730,-5,30,-1,-6,-4,-3,1,38
1530606783542730,-36,18,0,-3,-1,-1,-3,-33
1530606783563673,84,-10,7,0,-5,-1,-3,12
1530606783563673,-15,2,-3,5,5,3,6,13
1530606783564671,-28,0,11,1,-1,-2,-9,-29
1530606783564671,-12,6,-4,-3,0,-2,3,12
1530606783577636,-84,-48,-12,-8,-8,-4,-5,-11
1530606783577636,28,-14,7,1,1,3,1,-52
1530606783586612,-16,-63,-8,3,1,3,6,15
1530606783586612,-87,-25,-11,-10,-5,-7,-14,-42
1530606783600575,53,-14,-6,-2,-1,-2,4,19
1530606783600575,-58,22,-1,1,-2,-1,-3,34
1530606783602569,69,6,-2,1,-3,-3,-1,-34
1530606783602569,-37,18,8,2,2,-2,2,7
1530606783623513,8,-42,-2,-8,-1,0,1,20
1530606783623513,-89,-24,-1,6,-3,-2,-6,-35
1530606783625508,68,67,17,3,1,5,13,70
1530606783625508,-98,-50,-18,0,2,-1,0,-37
1530606783637476,19,61,8,-2,-6,-3,1,4
1530606783637476,79,-49,-11,-7,0,1,4,1
1530606783646452,-128,40,21,13,5,2,-2,-13
1530606783646452,26,-38,-12,-12,-5,-3,-7,23
1530606783661412,-20,-10,-5,1,-3,2,2,-49
1530606783661412,-88,68,0,0,-1,-7,-14,-75
1530606783662410,127,3,2,-2,2,3,-1,20
1530606783662410,-43,-54,-4,-2,-4,-5,-8,2
1530606783683353,36,-25,1,6,4,2,1,-8
1530606783683353,16,34,13,-4,-3,-2,-2,-1
1530606783685348,0,-42,-10,-1,-1,-4,-5,-85
1530606783685348,-25,107,9,-3,-1,-1,-1,26
1530606783697316,-35,26,-11,-3,-3,-3,-1,13
1530606783697316,111,-93,2,0,1,2,7,73
1530606783706292,-7,51,24,3,-1,-2,2,-16
1530606783706292,127,-34,1,4,1,3,9,22
1530606783721252,-15,-51,-25,-2,-2,-1,-5,-32
1530606783721252,-71,101,4,-3,-3,-4,-10,17
1530606783722249,43,-31,-9,0,0,-1,-4,-37
1530606783722249,58,-61,-20,-7,-1,-1,11,76
1530606783743193,-52,-53,31,7,1,-1,-7,-27
1530606783743193,100,-31,-24,-7,-3,1,3,22
1530606783745188,-96,-41,-2,0,1,1,4,-2
1530606783745188,-63,80,17,3,0,-4,-15,-2
1530606783757156,117,-14,1,4,2,4,7,-31
1530606783757156,-63,49,-9,-5,-4,-4,-5,67
1530606783766134,11,-74,-15,-2,2,4,1,28
1530606783766134,127,-95,16,11,4,3,9,46
1530606783781092,-76,123,-1,-6,-2,-5,-12,-44
1530606783781092,20,-57,-17,-5,0,1,8,16
1530606783783087,28,14,22,6,3,4,3,13
1530606783783087,-66,-37,7,0,1,0,-6,-23
1530606783803033,-26,66,-8,-1,-2,0,0,31
1530606783803033,-34,-4,2,-1,3,1,-2,-41
1530606783805028,89,-45,-24,-5,-4,-3,2,35
1530606783805028,13,54,-4,1,-3,0,-1,-27
1530606783816996,51,-79,3,-2,-2,-2,-7,-41
1530606783816996,-100,32,20,4,1,0,4,-6
1530606783825972,-28,18,-25,-14,-5,-4,-2,8
1530606783825972,-27,-12,32,12,5,1,2,23
1530606783840932,65,24,-17,-6,-3,-1,11,31
1530606783840932,47,-10,4,-1,-2,-2,-13,-36
1530606783842927,13,-4,-11,-6,-4,-2,-5,-25
1530606783842927,51,41,-5,1,-1,1,7,9
1530606783863871,-75,-67,-5,-1,2,1,6,58
1530606783863871,-5,47,20,3,1,1,-1,-22
1530606783864868,42,-40,-1,2,-1,-2,-5,0
1530606783864868,-64,68,2,-3,-4,-2,-6,-76
1530606783876836,41,-12,7,2,0,0,0,15
1530606783876836,-15,-10,-14,3,4,4,8,23
1530606783885812,68,14,28,6,0,-1,-2,22
1530606783885812,-22,-64,-20,-5,0,-1,-2,0
1530606783900772,61,57,11,3,1,1,-2,1
1530606783900772,38,-17,-13,-6,-4,-6,-8,-27
1530606783906756,-60,-11,-2,-2,-1,0,0,-57
1530606783906756,40,35,4,-3,-4,-2,3,51
1530606783923710,-34,-90,-14,-4,-4,-3,-11,-72
1530606783923710,30,38,31,8,0,2,0,20
1530606783924708,4,25,-14,-2,-1,-1,-1,49
1530606783924708,-59,22,4,-4,-3,-3,-2,-29
1530606783945652,-79,-100,-6,-6,-2,-1,5,17
1530606783945652,-5,83,14,8,2,0,-1,-9
1530606783947647,-53,-41,-15,-2,-4,-1,4,30
1530606783947647,-65,-45,-22,-12,-3,-3,-9,-57
1530606783960611,44,70,19,3,3,-1,3,39
1530606783960611,53,-60,5,2,0,1,4,15
1530606783967593,-39,112,12,0,-1,-2,-7,-72
1530606783967593,-48,-64,-19,0,-4,-2,-2,21
1530606783983550,55,37,2,-3,-1,-2,-4,1
1530606783983550,-40,-17,-13,-7,-3,-3,-3,47
1530606783985545,104,-16,13,4,-1,1,9,21
1530606783985545,-67,62,-1,-3,-3,-2,-10,-31
1530606784006489,72,-32,-26,-13,1,-5,-9,-19
1530606784006489,-84,-33,-11,-1,1,1,4,17
1530606784007486,-55,64,74,29,11,7,13,59
1530606784007486,127,55,-27,-19,-10,-10,-16,-55
1530606784020452,-128,-56,-2,-5,-4,1,-4,-30
1530606784020452,19,-41,-5,2,-5,-1,7,28
1530606784027433,17,13,-9,0,2,2,10,85
1530606784027433,94,-55,15,11,7,6,3,23
1530606784043390,25,102,31,20,4,1,-4,-4
1530606784043390,81,39,-17,-11,-5,-5,-12,-122
1530606784045385,-60,68,-24,-15,-8,-9,-23,-76
1530606784045385,57,-93,-12,-6,-4,0,6,20
1530606784066329,71,-35,0,-5,-2,-1,-4,8
1530606784066329,44,66,20,6,4,5,13,56
1530606784067327,-43,-115,-28,-17,-6,-5,-13,-65
1530606784067327,-72,16,-1,2,2,1,3,-28
1530606784080291,-59,17,13,11,5,4,7,18
1530606784080291,35,-68,-18,-4,-7,-6,-13,-97
1530606784087273,-77,-74,-10,-11,-5,-3,1,36
1530606784087273,78,-33,11,4,2,2,7,34
1530606784103230,-95,27,7,6,0,3,6,-5
1530606784103230,119,1,3,3,0,1,3,98
1530606784105225,28,-106,-33,-14,-3,-1,5,24
1530606784105225,11,9,36,8,3,0,-6,5
1530606784126169,-26,80,-20,-2,-5,-2,3,94
1530606784126169,63,54,-1,-11,-6,-8,-1,-10
1530606784127166,85,43,34,12,7,3,-3,-56
1530606784127166,-102,-16,-1,3,1,1,2,22
1530606784140132,65,-72,-46,-12,-5,-2,5,-15
1530606784140132,35,0,39,13,4,2,1,12
1530606784147113,-38,1,1,0,-1,-2,-3,29
1530606784147113,16,77,-14,-4,0,1,10,59
1530606784163070,50,-74,-29,-11,-3,-2,0,-43
1530606784163070,-43,-9,6,-3,-1,-2,-2,69
1530606784165065,39,2,-24,-6,-3,-3,-5,5
1530606784165065,-3,-58,-17,-2,1,0,0,4
1530606784186009,84,70,27,5,1,-3,11,95
1530606784186009,-72,15,-7,0,0,-3,-11,-11
1530606784188004,-31,-20,6,-1,-1,0,6,16
1530606784188004,67,48,-6,8,4,4,6,-79
1530606784199972,-77,57,-15,-17,-11,-9,-11,-37
1530606784199972,-11,21,11,6,1,0,-8,-60
1530606784208948,13,91,9,6,3,2,12,91
1530606784208948,18,-37,-9,-3,-5,-3,-7,-36
1530606784223907,-113,38,22,4,2,-1,-6,-69
1530606784223907,-41,-99,-21,-9,-2,2,5,3
1530606784224905,127,75,18,5,1,0,-3,8
1530606784224905,-55,1,3,-4,-5,-3,10,76
1530606784245849,-44,8,11,6,4,-1,-13,-53
1530606784245849,57,-102,-33,-10,-4,-2,0,3
1530606784247844,-92,85,20,8,4,1,-2,-19
1530606784247844,73,-29,2,1,2,4,10,15
1530606784259812,105,-73,-3,-2,-6,-6,-8,-18
1530606784259812,-63,120,-5,-3,-3,-2,0,64
1530606784268788,-16,-60,-12,-2,0,3,-3,-48
1530606784268788,34,30,8,-6,-6,-5,-12,-9
1530606784283747,-40,-31,7,7,4,4,7,30
1530606784283747,-96,-11,-3,3,0,0,-3,-25
1530606784284745,37,49,-19,-13,-6,-7,-5,8
1530606784284745,44,-3,-3,1,0,0,-5,-41
1530606784305689,-34,26,17,3,-3,0,0,-17
1530606784305689,34,-119,-19,-8,0,-1,-7,-18
1530606784307684,37,58,8,-1,-4,-2,2,-22
1530606784307684,97,-18,5,3,4,3,5,45
1530606784319651,-45,-52,-15,0,-4,2,6,7
1530606784319651,51,54,13,-1,-6,-6,-4,2
1530606784328628,-46,-112,3,2,0,1,-5,-63
1530606784328628,-44,78,7,-7,-6,-4,-5,17
1530606784343587,-33,42,0,3,3,1,4,24
1530606784343587,-105,-81,-28,-8,-2,-3,-4,-19
1530606784345582,39,27,9,2,-2,-1,-2,49
1530606784345582,-36,-5,13,5,0,2,5,23
1530606784365529,127,62,22,6,6,4,3,6
1530606784365529,-91,-1,-16,-1,-2,0,-2,1
1530606784367524,-37,-94,-34,-13,-7,-7,-13,-41
1530606784367524,-3,56,9,5,3,0,-3,-40
1530606784379491,95,-92,-24,-1,3,3,3,19
1530606784379491,-15,105,34,3,1,-4,-8,3
1530606784388468,95,-53,-2,0,3,4,0,-18
1530606784388468,-128,-41,-16,-11,-1,0,-3,-43
1530606784403427,-16,-101,14,13,4,2,-1,-13
1530606784403427,96,111,-11,3,-1,2,14,94
1530606784405423,-76,-25,-19,-9,-3,-2,-6,-52
1530606784405423,30,18,1,-3,0,2,8,44
1530606784426366,119,-16,8,2,4,1,0,-9
1530606784426366,43,-53,10,3,0,0,-7,-42
1530606784427364,38,-32,-15,-4,-3,-1,1,-17
1530606784427364,-55,77,10,0,-3,-4,-12,-10
1530606784439331,-78,-72,-37,-19,-9,-6,-3,23
1530606784439331,48,33,18,3,5,5,13,4
1530606784448307,-26,-72,21,18,7,6,8,-21
1530606784448307,106,56,-19,-10,-7,-8,-10,35
1530606784463267,-55,-22,-2,0,3,-2,-14,-33
1530606784463267,-57,-22,-10,-9,-4,-4,0,20
1530606784465262,48,5,-9,-9,-6,-1,8,10
1530606784465262,28,-70,9,9,6,0,-3,-46
1530606784486206,-60,83,10,5,-1,-2,-1,-39
1530606784486206,109,-94,-15,-1,-1,2,5,32
1530606784487204,-88,71,0,-4,-3,-3,1,9
1530606784487204,60,22,17,11,2,2,-3,36
1530606784499172,54,-7,-15,-13,-5,-3,-1,9
1530606784499172,47,18,-7,-5,-1,-1,3,-17
1530606784509145,29,20,30,7,1,-3,2,22
1530606784509145,-30,4,-3,-5,-5,-2,1,16
1530606784523107,6,29,4,-3,-2,-3,-6,-5
1530606784523107,-71,111,8,6,2,2,7,-13
1530606784525102,-69,-106,-32,-8,1,1,-1,35
1530606784525102,3,5,1,3,-2,0,10,47
1530606784546046,29,-8,-19,-19,-11,-9,-6,3
1530606784546046,67,-56,-3,1,-1,-2,-8,-33
1530606784548041,55,105,-24,-2,-2,-4,-12,-53
1530606784548041,-9,-25,29,6,-1,0,1,-25
1530606784560009,-17,-54,-6,2,3,1,11,102
1530606784560009,-79,23,1,4,2,3,-6,-68
1530606784568985,119,11,7,4,0,-3,-4,47
1530606784568985,-1,-126,-39,-14,-4,-2,1,-4
1530606784583945,-19,127,41,14,5,2,-10,-19
1530606784583945,-51,-54,7,0,-1,-2,-2,-4
1530606784584942,42,-23,-4,-4,-2,0,-1,-25
1530606784584942,-21,57,2,-4,1,0,-6,-29
1530606784605886,57,-6,4,0,-1,2,7,30
1530606784605886,-53,-51,-4,2,-1,-3,-3,-19
1530606784607881,30,-26,-31,-18,-5,-5,-5,21
1530606784607881,-95,-70,-10,6,1,-2,-2,-16
1530606784619849,94,58,17,8,6,8,10,-18
1530606784619849,-38,-65,-15,-14,-5,-5,-21,2
1530606784628825,16,127,39,17,2,0,-3,-35
1530606784628825,-57,-86,-30,-19,-7,-7,-12,-38
1530606784643785,-43,31,8,2,1,-1,1,-8
1530606784643785,76,41,14,9,2,1,9,28
1530606784644782,-92,-65,-4,0,2,4,5,-22
1530606784644782,109,127,33,10,2,-1,-9,68
1530606784665726,-70,-2,-5,-1,0,3,-5,-110
1530606784665726,127,-18,-18,-9,-7,-6,-1,38
1530606784667721,-105,-53,4,-1,2,-1,-2,10
1530606784667721,33,-1,-13,-4,-4,-2,5,27
1530606784679688,-71,-6,4,-4,-4,-3,-6,29
1530606784679688,36,94,10,2,3,2,-6,-24
1530606784688665,-28,-43,-15,7,-2,0,5,1
1530606784688665,15,-10,30,15,11,8,9,0
1530606784703624,-50,-26,-27,-14,-6,-6,-2,-21
1530606784703624,-77,39,1,-1,-1,-1,-4,-42
1530606784705620,-27,-48,-3,-5,-4,-3,-2,31
1530606784705620,-11,37,-2,1,-1,1,2,-8
1530606784726563,35,-20,-14,-6,-4,-4,1,6
1530606784726563,117,-25,-10,-6,-1,0,3,9
1530606784727561,-46,91,5,-4,-2,-5,-10,-68
1530606784727561,6,34,-1,3,-1,0,4,29
1530606784739529,4,-67,-3,2,-1,2,1,15
1530606784739529,49,-19,-24,-9,-5,-5,-3,21
1530606784748505,-44,-59,28,2,4,0,-3,-11
1530606784748505,35,45,-4,1,-2,0,4,-8
1530606784763465,-21,-50,-13,-3,-1,-1,-1,-8
1530606784763465,67,64,10,2,3,1,4,15
1530606784765459,-60,24,-7,-3,-3,-2,0,-17
1530606784765459,18,-51,-6,0,3,3,2,-8
1530606784786403,-22,-45,-18,-10,-6,-2,6,25
1530606784786403,16,-29,8,2,2,2,0,20
1530606784787401,23,47,-14,0,-2,-5,-14,-17
1530606784787401,58,-15,17,4,2,2,0,12
1530606784799369,-2,-64,-12,-6,-2,0,6,34
1530606784799369,-1,75,32,9,4,3,12,15
1530606784808344,79,46,-27,-21,-8,-5,-14,-21
1530606784808344,-63,-42,20,11,3,2,6,27
1530606784823304,83,49,-3,0,-2,-4,-4,11
1530606784823304,-128,-91,-11,-1,0,2,4,-21
1530606784829289,127,57,11,12,2,1,7,70
1530606784829289,-83,25,-15,-10,-8,-7,-10,-70
1530606784846243,7,72,9,-3,-2,-2,-3,34
1530606784846243,-51,-43,-6,4,5,3,3,-4
1530606784847241,-55,-58,6,4,-2,0,-2,32
1530606784847241,61,-36,-8,-1,4,1,10,22
1530606784859209,-107,19,9,-2,-3,-5,-17,-46
1530606784859209,61,6,-21,-4,-2,-1,-8,15
1530606784869182,42,-64,27,6,3,4,7,32
1530606784869182,-15,-73,-21,-12,-7,-4,-3,36
1530606784883145,62,70,28,15,6,2,2,-81
1530606784883145,50,-32,-17,-10,-3,-5,-2,2
1530606784890126,51,-26,5,5,3,5,10,15
1530606784890126,-2,17,-9,-7,-5,-1,10,-26
1530606784906083,46,19,7,5,2,-2,-12,-2
1530606784906083,-128,-12,-9,-6,-5,-5,-8,-44
1530606784908078,-59,-57,-35,-4,0,1,5,4
1530606784908078,12,22,11,-10,-6,-6,-6,1
1530606784929022,-85,-6,-11,-3,-2,1,0,-9
1530606784929022,110,83,34,17,4,4,6,21
1530606784930020,-92,-21,-8,-3,-2,1,4,21
1530606784930020,54,-15,-8,0,0,0,-4,-14
1530606784942984,16,27,13,7,-1,1,9,23
1530606784942984,-47,42,-35,-10,-3,-2,-7,-56
1530606784949966,111,63,32,-1,-5,-8,-11,14
1530606784949966,52,-25,-17,-5,1,1,-1,17
1530606784965923,90,-10,9,11,7,4,17,52
1530606784965923,44,33,-9,-4,-4,2,9,-7
1530606784967918,-76,40,20,5,1,-1,-17,-51
1530606784967918,54,-25,-4,-2,0,-2,1,30
1530606784988862,32,41,-4,-5,-2,-3,-3,10
1530606784988862,-123,33,21,3,-1,-4,-13,-41
1530606784989859,127,-94,-38,-11,-2,-2,4,-42
1530606784989859,-16,17,5,6,1,1,0,57
1530606785002824,6,-54,-9,-2,3,3,-1,26
1530606785002824,49,-27,17,4,3,1,1,-24
1530606785009806,-85,79,5,-5,-8,-6,-6,-19
1530606785009806,-77,-68,-4,3,0,0,0,-61
1530606785025763,12,26,-4,0,-1,-3,-13,-30
1530606785025763,36,-39,-10,-13,-9,-9,-11,34
1530606785027758,-47,-26,9,6,3,2,5,-45
1530606785027758,33,117,28,11,1,-1,-3,-19
1530606785048702,86,-14,-6,0,-1,-2,-2,44
1530606785048702,-27,-72,1,-5,-4,0,8,7
1530606785049699,68,-29,-6,-2,1,-1,-8,22
1530606785049699,-35,15,9,-2,-3,-2,-11,-101
1530606785062664,-87,53,17,5,6,4,-7,-49
1530606785062664,39,-34,-4,2,-1,-1,0,-31
1530606785069646,-60,-24,-22,-1,1,2,8,30
1530606785069646,69,-13,7,-3,-1,-2,-2,26
1530606785086600,-53,-47,-20,-10,-5,0,1,-22
1530606785086600,113,31,7,-5,-6,-4,8,53
1530606785087598,20,127,27,17,8,3,3,14
1530606785087598,-67,-71,-52,-8,-2,0,-6,-55
1530606785108541,-6,87,9,-8,-7,-6,-2,42
1530606785108541,-128,-66,-16,-6,0,0,1,4
1530606785110537,127,-2,-25,-14,-6,-3,4,35
1530606785110537,43,30,50,19,4,1,5,52
1530606785122504,121,-119,-5,-2,-2,-1,2,24
1530606785122504,-101,65,7,10,7,5,0,-57
1530606785129486,82,-67,-36,-18,-7,-6,-5,15
1530606785129486,-26,-15,-21,-6,-4,1,3,9
1530606785146440,-20,26,12,6,3,2,5,9
1530606785146440,-16,-62,-14,-5,-3,-4,-11,-33
1530606785147438,69,69,67,27,8,7,11,8
1530606785147438,-29,-110,-43,-25,-10,-9,-11,-9
1530606785168382,-11,87,19,1,-1,-1,-4,-4
1530606785168382,13,-122,-25,3,3,0,5,-8
1530606785170377,-62,28,16,3,0,1,7,35
1530606785170377,79,60,4,5,2,4,-9,-3
1530606785182345,58,-27,-18,-7,-5,-6,-8,-60
1530606785182345,-47,-55,21,8,3,3,7,50
1530606785191321,-27,79,-5,-4,-3,1,-4,-36
1530606785191321,-64,-14,-4,-8,-1,-5,-6,17
1530606785206280,23,10,-8,-1,13,1,7,19
1530606785206280,79,44,10,2,-14,-1,-1,14
1530606785207278,36,-37,-15,-7,-7,-5,-5,-59
1530606785207278,-117,9,5,3,2,1,6,31
1530606785228222,69,0,2,-2,-1,-3,-11,-80
1530606785228222,64,-8,-6,-7,6,-3,-4,35
1530606785230217,-19,29,8,5,2,3,6,73
1530606785230217,63,-52,-7,1,0,3,5,-12
1530606785242184,6,-99,10,1,1,-6,-3,3
1530606785242184,-25,127,36,7,2,5,8,24
1530606785251161,93,17,-2,1,-11,-6,-9,-10
1530606785251161,48,53,14,12,9,6,9,20
1530606785266121,16,50,-25,-13,-14,-7,-4,9
1530606785266121,70,-2,30,10,5,4,-2,-49
1530606785268115,-100,-38,-4,-7,0,-2,-2,22
1530606785268115,111,85,-4,-2,-2,-3,-2,1
1530606785288062,53,0,5,2,-2,4,11,34
1530606785288062,-114,-77,-27,-8,-5,-3,-2,27
1530606785290057,-20,48,7,-1,3,0,-3,-23
1530606785290057,-111,6,1,-2,-4,-4,-5,23
1530606785302024,27,-39,-13,-2,-1,2,-12,-41
1530606785302024,77,30,-9,-4,-1,-2,1,76
1530606785311998,-128,-88,-9,-1,1,0,-2,-65
1530606785311998,67,-58,-3,-1,-4,-3,-5,60
1530606785325960,-128,67,22,10,0,0,4,-10
1530606785325960,57,40,11,4,1,4,6,13
1530606785327956,0,10,-16,-5,-2,-5,-11,-16
1530606785327956,-79,36,7,-7,-2,-3,-5,-66
1530606785348899,-27,-35,-8,-1,-3,0,4,1
1530606785348899,81,27,-3,-2,-2,1,5,-14
1530606785349897,5,-76,-13,1,0,-3,-8,-14
1530606785349897,25,-85,12,4,2,2,11,18
1530606785361864,-121,3,12,12,5,5,9,55
1530606785361864,-8,75,-3,-1,-2,-5,-10,-40
1530606785370840,-11,-41,-24,-12,-5,-2,16,35
1530606785370840,-103,21,10,3,5,1,-2,-29
1530606785385800,89,-30,-6,-3,-7,-2,1,-55
1530606785385800,51,11,3,5,4,3,-3,3
1530606785387795,-23,-110,-47,-23,-10,-7,-9,16
1530606785387795,14,91,74,25,8,7,16,-13
1530606785408739,49,-27,-8,-9,-4,-2,-10,8
1530606785408739,44,-2,-10,1,-1,-2,1,2
1530606785409736,8,-13,13,5,0,-2,-3,2
1530606785409736,84,22,-28,-7,-2,1,5,-4
1530606785421704,-107,-66,-14,-6,-2,-5,-7,25
1530606785421704,51,-53,3,-2,3,0,-6,2
1530606785431678,89,125,0,-5,-4,0,2,18
1530606785431678,-32,-33,-14,-5,-3,-3,-8,-75
1530606785445640,112,5,15,12,5,6,8,53
1530606785445640,-122,-43,-29,-10,-8,-12,-19,-40
1530606785447635,127,70,11,4,2,1,0,55
1530606785447635,-108,-60,-6,-1,0,2,0,-73
1530606785468579,19,67,-15,-17,-7,-8,-10,21
1530606785468579,24,7,-6,-4,-1,0,2,-16
1530606785470574,-23,5,46,15,4,4,6,-40
1530606785470574,43,-20,-3,7,-1,-1,0,29
1530606785482542,-75,45,14,3,1,1,6,6
1530606785482542,-17,-73,-2,-5,-2,2,7,1
1530606785491518,82,63,12,6,4,-1,-6,-22
1530606785491518,80,63,-12,-6,-2,-3,-7,23
1530606785506478,65,-9,-3,5,-1,-1,-4,-40
1530606785506478,80,-76,0,2,-1,2,5,-26
1530606785507476,80,80,6,-3,-4,-4,-1,67
1530606785507476,-120,-71,-24,-11,-4,-4,-2,37
1530606785528419,78,-92,-3,-1,-1,5,22,94
1530606785528419,-107,57,-22,-9,-4,-7,-19,-53
1530606785530414,-55,19,23,5,3,3,4,8
1530606785530414,125,55,2,-2,-6,-8,-24,-18
1530606785550360,-38,-44,10,1,4,1,5,44
1530606785550360,80,-32,10,5,1,0,3,12
1530606785551358,-64,-113,-32,0,3,4,8,16
1530606785551358,-48,28,6,-5,-3,-2,3,32
1530606785565320,54,-73,-4,7,0,0,0,-100
1530606785565320,-103,-47,-37,-16,-5,-5,-8,6
1530606785566318,75,53,23,-1,-3,-4,-1,18
1530606785566318,104,63,13,12,5,4,8,-8
1530606785588259,-79,-75,-22,-6,-2,-1,0,26
1530606785588259,70,40,-5,0,0,-2,-6,-55
1530606785590254,-67,-62,-17,0,-2,-1,-3,-19
1530606785590254,77,-22,-18,-14,-6,-3,2,47
1530606785602222,-70,79,26,4,2,-3,-8,-43
1530606785602222,51,12,0,-1,0,-1,9,63
1530606785611198,89,-36,-8,2,0,3,5,-1
1530606785611198,-35,84,15,5,-2,-2,-6,-3
1530606785625160,-20,-18,-17,-10,-6,-2,1,-43
1530606785625160,-10,-49,5,1,1,3,8,38
1530606785633139,-6,36,20,2,-3,-6,-18,-51
1530606785633139,4,-9,-3,-5,-4,0,3,69
1530606785648099,58,26,12,1,4,5,-2,-34
1530606785648099,-90,44,4,7,14,2,8,32
1530606785649096,-25,-19,-17,-7,-12,2,-1,-41
1530606785649096,12,-74,2,0,-8,-3,-5,67
1530606785670040,66,82,22,6,3,-2,-2,15
1530606785670040,39,19,7,-1,-4,-6,-16,-69
1530606785671038,-54,-35,-15,-10,9,-3,-2,16
1530606785671038,2,-30,-22,-6,-1,0,5,-8
1530606785685000,-100,-83,-21,-2,-2,0,1,15
1530606785685000,-26,20,17,7,4,1,1,-17
1530606785685998,-46,40,13,11,1,1,9,34
1530606785685998,-5,-90,-20,-6,-2,-1,-4,-6
1530606785707939,61,18,-2,3,-1,-2,0,-16
1530606785707939,56,-53,-27,-17,-17,-9,0,85
1530606785708936,48,71,28,-2,0,0,-1,8
1530606785708936,119,-71,2,-3,-1,-4,-9,-30
1530606785729880,29,-16,-26,-11,-1,-2,-10,-23
1530606785729880,-3,75,19,13,0,6,5,51
1530606785730878,-71,-67,-1,5,2,3,7,-9
1530606785730878,-47,34,-11,-7,1,-2,-2,-33
1530606785745837,7,-56,12,8,2,4,-6,12
1530606785745837,77,12,10,2,-6,0,-5,-48
1530606785745837,-14,-103,-27,-9,-3,-3,3,18
1530606785745837,-128,4,6,4,5,2,-4,-38
1530606785767779,102,10,-5,-10,-14,-10,1,33
1530606785767779,-54,89,-5,0,3,4,3,-14
1530606785768776,95,-34,-6,-2,-1,-4,-6,-12
1530606785768776,-56,87,9,5,0,2,6,13
1530606785790717,10,12,-8,2,1,0,-2,-13
1530606785790717,18,-52,-27,-12,-2,-4,-1,-36
1530606785790717,-10,59,47,18,6,7,12,25
1530606785790717,-27,-18,-18,-9,-5,-2,4,8
1530606785804680,96,33,-8,-8,-5,-7,-11,18
1530606785804680,-124,-3,29,12,4,0,-7,-19
1530606785812659,-28,-18,-24,-4,0,-1,1,-45
1530606785812659,-7,-2,8,-3,-2,-3,-5,-1
1530606785827618,-1,96,10,3,3,2,4,5
1530606785827618,74,-25,15,2,1,3,10,23
1530606785828616,-72,4,-42,-14,-8,-7,-10,4
1530606785828616,31,39,31,16,4,0,-10,-95
1530606785850557,-90,-33,-12,1,0,2,5,19
1530606785850557,-10,26,-15,-19,-13,-11,-11,10
1530606785851555,62,58,18,6,5,2,-7,-8
1530606785851555,-1,-48,1,11,5,6,15,51
1530606785864520,-82,-45,-12,-8,-7,-7,-9,-74
1530606785864520,-14,10,4,1,4,5,5,3
1530606785872499,-22,-89,-22,-7,-3,-3,2,16
1530606785872499,119,110,6,0,-3,-1,14,-4
1530606785887459,-42,-65,24,9,5,4,-1,28
1530606785887459,-32,91,10,6,-1,-3,-4,-9
1530606785888456,-25,-57,-16,-9,-4,-2,-3,11
1530606785888456,-15,11,-20,-5,0,0,1,33
1530606785910397,109,-2,-8,-3,-1,2,5,-20
1530606785910397,-60,-35,-2,-3,-3,-2,0,40
1530606785911395,114,50,1,0,-1,-2,-3,-37
1530606785911395,36,47,7,-5,0,-1,-6,12
1530606785924360,30,-31,13,6,2,0,2,11
1530606785924360,101,44,5,3,0,-2,-4,-10
1530606785933336,1,-95,-4,-2,1,1,2,-74
1530606785933336,-45,-14,-14,-4,-3,-3,-11,-28
1530606785948296,43,59,1,-5,-2,-1,-2,43
1530606785948296,39,-33,7,12,6,3,2,-56
1530606785948296,-28,8,2,2,1,-1,-3,41
1530606785948296,-23,-1,-3,-4,-4,-4,-7,-32
1530606785970237,-52,-9,-14,-14,-4,-5,-1,16
1530606785970237,-85,-57,-7,-1,1,1,1,-35
1530606785971235,4,-40,-4,2,1,2,5,47
1530606785971235,-24,-51,5,7,2,-1,-10,-57
1530606785984200,12,85,-22,-3,-5,-2,-3,12
1530606785984200,-79,-57,14,-2,-3,-3,-7,21
1530606785993176,-15,52,11,1,2,2,12,28
1530606785993176,123,-61,2,2,2,4,10,23
1530606786008136,-87,-22,-23,-4,-2,-2,-7,-63
1530606786008136,127,43,-9,-10,-4,-2,-4,0
1530606786008136,-97,-61,-7,-3,0,-2,-6,-29
1530606786008136,57,-6,-1,-2,1,-1,1,22
1530606786030077,-46,31,-3,1,0,1,18,26
1530606786030077,26,14,-3,-3,-3,-4,-3,2
1530606786031075,-70,-6,2,-10,-4,-2,-6,-17
1530606786031075,36,-38,-14,2,-3,0,-2,23
1530606786045037,-30,-52,11,0,0,-2,-5,-29
1530606786045037,71,6,3,1,0,1,8,54
1530606786053016,-27,46,-10,1,1,0,-3,-16
1530606786053016,-29,-101,-11,-11,-5,-4,-5,-42
1530606786067976,71,44,38,9,3,2,-1,25
1530606786067976,25,34,8,11,2,2,8,39
1530606786068973,9,-60,-33,-19,-6,-8,-23,-59
1530606786068973,-50,85,23,0,-1,0,1,44
1530606786089917,65,43,21,13,3,-3,-5,9
1530606786089917,83,-8,-3,-4,-1,1,4,4
1530606786090914,-55,35,10,3,0,0,6,16
1530606786090914,-44,16,-9,-3,1,0,-1,-23
1530606786104877,105,83,-9,-1,-3,-6,-9,-7
1530606786104877,-48,-8,7,3,3,2,1,23
1530606786112856,51,51,-3,2,-2,1,0,20
1530606786112856,-16,-55,-11,-1,2,0,0,11
1530606786127816,-74,-40,-9,-9,-5,-3,0,26
1530606786127816,-43,-19,-2,0,-1,-2,-4,-18
1530606786129811,86,31,2,3,4,1,-5,-6
1530606786129811,66,-11,-1,0,-1,0,4,31
1530606786150754,-25,-32,11,2,1,0,6,28
1530606786150754,-33,-43,-18,-7,-3,-5,-18,-98
1530606786150754,51,74,8,1,-2,0,1,3
1530606786150754,37,48,4,1,0,-1,5,37
1530606786164717,-21,-86,-20,-4,1,5,11,12
1530606786164717,-54,46,29,10,4,4,16,23
1530606786172696,43,-44,8,2,-1,-3,-2,-12
1530606786172696,-124,-39,-28,-12,-5,-1,2,-31
1530606786187656,109,72,7,1,0,-3,-8,-5
1530606786187656,-128,-72,-8,-1,-1,-4,-3,7
1530606786188653,75,40,3,2,3,2,8,8
1530606786188653,127,-38,21,4,0,-2,0,33
1530606786210594,-125,7,-24,-10,-4,-2,-3,-7
1530606786210594,40,34,12,7,2,3,1,-51
1530606786211592,24,-69,-23,-9,-5,-5,0,43
1530606786211592,-67,13,9,6,3,1,-5,-70
1530606786233533,110,22,11,2,0,0,2,12
1530606786233533,-65,-84,-21,-4,1,0,3,42
1530606786234531,88,73,1,-3,-4,-3,-14,-99
1530606786234531,-20,-43,-10,-5,-2,-4,-8,-10
1530606786247496,9,53,15,10,4,3,3,12
1530606786247496,6,20,-1,-7,-5,-6,-9,-6
1530606786248494,-47,-95,-6,0,-2,2,4,15
1530606786248494,-2,-55,-9,-3,-3,-3,-6,38
1530606786270434,-107,101,11,5,3,1,1,-49
1530606786270434,95,-95,-1,-2,0,1,2,58
1530606786271432,-99,85,9,4,0,-2,2,24
1530606786271432,57,26,-1,0,1,0,-7,-32
1530606786292376,90,-86,10,1,2,1,6,22
1530606786292376,-78,-12,-23,-6,-5,-2,-7,-29
1530606786293373,6,-71,3,3,1,2,7,35
1530606786293373,80,92,8,-1,-3,-7,-18,-45
1530606786308333,-50,-108,-14,-11,-1,2,2,6
1530606786308333,85,17,11,5,1,1,3,-30
1530606786308333,70,18,5,1,1,-3,1,31
1530606786308333,-17,45,3,1,3,-1,-6,0
1530606786330274,-72,-88,-17,-5,-4,0,-1,1
1530606786330274,96,116,13,0,-2,-2,-9,-5
1530606786331272,-73,-63,-1,0,-1,1,3,-22
1530606786331272,27,23,-1,-2,0,3,9,29
1530606786353213,-54,-28,-22,-9,-8,-6,-5,17
1530606786353213,17,-3,11,9,1,1,2,4
1530606786353213,37,3,1,0,1,0,0,9
1530606786353213,7,20,2,2,1,2,2,-11
1530606786368173,-31,24,-6,-3,1,-1,-10,-58
1530606786368173,5,-14,-3,-6,-3,-2,3,43
1530606786368173,-100,-44,-6,-6,-1,0,-2,-16
1530606786368173,57,-18,-14,-5,-4,-4,1,-2
1530606786390114,22,53,7,4,2,-2,3,6
1530606786390114,-66,-2,0,-3,0,-2,-6,-16
1530606786391112,55,-8,-11,-2,-1,0,1,25
1530606786391112,-47,-4,20,5,0,2,7,4
1530606786413053,-5,68,-1,1,-2,-1,2,19
1530606786413053,101,-14,-7,5,2,2,10,35
1530606786414051,-71,3,-6,-21,-7,-5,-20,-79
1530606786414051,-9,-41,-3,6,-3,-1,9,38
1530606786428013,73,43,0,1,2,0,-9,-33
1530606786428013,-115,-42,24,5,2,3,12,97
1530606786429011,-1,69,-10,0,0,-2,-5,-4
1530606786429011,46,20,4,-2,3,1,2,-26
1530606786449954,-1,-6,-5,-4,-2,-3,-3,27
1530606786449954,50,-63,-13,-3,-3,-1,-6,-39
1530606786450952,-15,-33,2,0,1,0,4,23
1530606786450952,-111,16,-2,-6,-2,-3,3,30
1530606786472893,6,-44,-9,2,0,-3,-1,-23
1530606786472893,35,112,5,1,-1,-2,-1,-40
1530606786473890,40,-1,2,0,1,1,5,67
1530606786473890,35,81,5,0,-2,0,-3,-6
1530606786487853,-74,-10,3,7,2,0,0,-7
1530606786487853,19,-38,-13,-8,-2,-3,-13,-35
1530606786488850,-5,56,-14,-4,-3,-1,4,13
1530606786488850,88,-37,9,-3,3,1,5,-6
1530606786510792,77,43,13,5,-1,-2,-4,65
1530606786510792,-95,41,-4,4,0,-2,-4,-78
1530606786510792,70,-34,-5,2,2,3,2,44
1530606786510792,-71,-128,-6,5,-3,1,6,20
1530606786532733,66,21,-4,-10,-6,-4,-9,-28
1530606786532733,42,-16,-3,-4,-2,-1,5,18
1530606786533731,-21,78,21,8,4,2,-1,-8
1530606786533731,-20,-2,-6,-2,-3,-3,-7,-46
1530606786547693,-123,-77,-1,-4,1,-2,-8,-97
1530606786547693,118,13,-9,-4,-3,-2,5,69
1530606786548691,-86,7,25,7,1,0,-1,-78
1530606786548691,24,54,1,3,-3,-2,-1,51
1530606786570631,18,-76,-16,-3,1,2,4,19
1530606786570631,-7,-30,-10,-6,-4,-3,-11,-22
1530606786571629,2,-4,14,3,-1,-2,-1,-50
1530606786571629,70,20,-13,0,-1,1,1,-31
1530606786592573,-29,-17,-7,-8,-1,-3,3,24
1530606786592573,87,17,5,2,2,2,-3,-14
1530606786593570,59,-7,2,-4,-3,-3,4,47
1530606786593570,-90,3,19,11,1,-1,-8,-37
1530606786607533,77,-58,-14,-4,-3,-2,-1,-12
1530606786607533,-19,123,15,-2,-5,-5,-4,-14
1530606786608531,104,-90,-17,-1,4,1,1,11
1530606786608531,30,60,-6,-8,-3,-2,3,8
1530606786630472,76,-34,20,9,3,6,9,-5
1530606786630472,-26,12,-13,-4,-4,-7,-15,-45
1530606786631469,127,21,-4,-2,-6,-2,1,32
1530606786631469,-29,-33,-18,-6,2,1,-2,-25
1530606786652413,9,-17,15,3,0,-3,-5,-13
1530606786652413,-58,-7,0,-2,4,4,11,34
1530606786653410,-107,-28,1,7,-3,-5,-3,-33
1530606786653410,123,95,-2,-5,-4,-2,-2,47
1530606786667373,-48,30,8,2,2,0,-14,-16
1530606786667373,-69,-83,-11,-1,-2,0,1,-5
1530606786668370,15,39,7,-2,-3,-4,-10,5
1530606786668370,-112,-76,-7,2,1,1,6,-12
1530606786690311,40,41,2,2,1,3,9,34
1530606786690311,9,-82,-17,-12,-4,-3,-1,3
1530606786691309,-33,34,0,-5,-4,-2,-15,-47
1530606786691309,118,16,11,0,1,-1,-1,-3
1530606786713250,-96,46,2,2,-2,-1,6,22
1530606786713250,-51,-62,-4,2,3,4,3,26
1530606786713250,41,-10,-1,-2,2,1,5,16
1530606786713250,-26,-60,-5,4,-2,-1,-3,-12
1530606786728210,-35,19,16,0,-1,0,-2,8
1530606786728210,105,24,-9,-9,-6,-5,-1,78
1530606786728210,-84,35,4,12,3,4,5,-28
1530606786728210,66,20,-6,-10,-3,-3,3,24
1530606786750152,120,20,4,3,0,-2,0,16
1530606786750152,17,-26,-19,-8,-1,-2,-3,-11
1530606786751149,-31,-76,-9,-7,-2,-2,-5,-25
1530606786751149,20,-24,16,7,4,2,6,26
1530606786773090,-25,8,-20,-6,1,0,1,-3
1530606786773090,13,-25,6,-1,-2,0,-1,-10
1530606786774088,13,50,-8,0,0,2,4,-7
1530606786774088,-20,32,6,1,0,-1,-1,14
1530606786788050,-69,-15,-9,-7,-5,-5,-10,-60
1530606786788050,-58,41,3,-4,0,-1,1,-10
1530606786789048,34,-22,15,15,-3,-1,9,84
1530606786789048,37,54,-2,2,-1,-3,-8,4
1530606786809991,110,11,-6,-3,5,2,-7,-22
1530606786809991,46,60,13,9,4,2,6,49
1530606786810989,-41,-84,-12,-3,-4,-1,0,-25
1530606786810989,21,1,1,-11,-4,-5,-11,1
1530606786832930,-23,25,-3,-2,-2,1,3,-4
1530606786832930,-34,-9,6,1,-1,-1,8,29
1530606786833928,63,63,12,8,4,-2,-14,-10
1530606786833928,-51,-80,-5,1,-5,-1,1,16
1530606786847890,0,69,-13,-4,-2,-2,-1,-26
1530606786847890,29,-8,10,7,4,2,0,-17
1530606786848889,-38,31,6,-6,-2,-1,-2,-28
1530606786848889,-60,-26,-16,3,-1,2,-1,-41
1530606786870829,127,-5,6,0,-2,0,10,58
1530606786870829,-96,-40,-15,-13,-8,-5,-12,-33
1530606786870829,117,16,13,3,4,-1,1,19
1530606786870829,-70,8,2,-6,1,0,0,-1
1530606786892770,-16,-49,-4,5,-3,1,9,34
1530606786892770,82,59,0,3,-1,-2,-13,-57
1530606786893768,-116,-54,-3,-11,-6,-4,-3,14
1530606786893768,29,24,5,13,8,5,5,19
1530606786906733,72,8,-9,-8,-6,-6,-10,-4
1530606786906733,-37,-6,7,8,3,3,6,15
1530606786915709,97,49,-6,-3,2,2,7,-40
1530606786915709,6,-35,-23,-17,-7,-4,-2,-26
1530606786930669,-1,29,11,7,4,-1,-1,-6
1530606786930669,70,43,18,0,0,2,7,50
1530606786931666,15,-32,-34,-2,1,-3,-8,10
1530606786931666,-10,73,15,5,1,2,8,20
1530606786952610,-18,73,-5,-4,-2,-3,-13,-21
1530606786952610,110,-16,-6,0,-2,0,3,7
1530606786953608,-40,-43,0,-6,-1,1,2,0
1530606786953608,64,-23,0,0,-1,0,6,12
1530606786967570,30,-77,-7,-2,0,-1,0,15
1530606786967570,-66,-2,-17,-9,-4,-1,2,-2
1530606786975548,69,30,10,3,-1,-3,-2,16
1530606786975548,-23,-27,-17,-9,-4,-4,-10,-14
1530606786990508,13,-33,10,-2,1,3,3,-46
1530606786990508,87,43,-4,9,2,2,4,1
1530606786991506,-66,-80,-4,-2,-3,-3,-1,-10
1530606786991506,-92,68,7,-1,1,2,-3,-1
1530606787012450,64,49,14,7,-1,1,2,71
1530606787012450,-75,-59,-24,-14,-9,-9,-22,-55
1530606787013447,-34,30,-3,-3,0,2,8,29
1530606787013447,-10,-21,8,0,-2,0,6,32
1530606787027410,-46,-9,-17,-10,-2,-3,-6,-45
1530606787027410,-51,56,8,-3,1,-2,-2,-24
1530606787035389,112,-12,-6,3,-3,-1,-3,-24
1530606787035389,26,81,-4,-4,-5,-7,-17,-30
1530606787058327,-29,-82,-8,-5,1,4,7,-3
1530606787058327,-18,-61,1,-3,4,0,-2,-24
1530606787059325,23,62,16,13,1,2,3,-7
1530606787059325,82,-22,0,5,2,3,6,-49
1530606787073287,-66,-12,0,1,-4,-4,-8,39
1530606787073287,16,9,-11,-5,-3,-2,-6,-90
1530606787073287,91,-30,0,-1,2,3,6,99
1530606787073287,-23,21,7,6,2,0,-1,-9
1530606787087250,-1,-16,1,1,4,4,11,44
1530606787087250,-26,43,7,1,-4,-2,-1,1
1530606787095228,-17,38,7,9,7,2,0,20
1530606787095228,15,8,-12,-8,-2,-5,-4,-1
1530606787110188,-72,-26,5,3,-3,-3,-7,-14
1530606787110188,31,-10,-7,-3,-1,-1,0,-46
1530606787111186,35,38,8,-1,-1,-1,-4,-3
1530606787111186,11,15,0,2,0,1,1,29
1530606787133128,-6,-67,-12,-9,-2,-1,0,7
1530606787133128,-39,-2,1,3,-1,0,3,-16
1530606787134125,21,-30,1,-5,-2,0,1,-1
1530606787134125,-28,-26,-2,-2,-2,-2,-3,-19
1530606787147090,-19,27,-3,-4,-4,-5,4,27
1530606787147090,123,37,14,10,4,2,-7,14
1530606787155069,-128,-75,-10,-7,-2,-1,-5,-31
1530606787155069,-2,-7,2,0,-1,-3,-3,-6
1530606787170028,-11,-16,6,4,1,0,-6,-27
1530606787170028,33,66,11,10,2,2,9,89
1530606787171027,47,0,-14,-7,-3,-4,-11,-77
1530606787171027,-85,-119,-26,-20,-9,-6,-12,-10
1530606787192967,-22,127,10,11,4,-2,-2,-35
1530606787192967,84,-128,7,1,3,1,9,32
1530606787193965,-61,48,0,-3,-1,1,7,44
1530606787193965,36,-54,-2,-1,0,-1,-2,22
1530606787206930,12,-2,9,2,-2,1,5,-27
1530606787206930,13,25,-4,-4,-4,-4,-5,9
1530606787214909,-59,-11,11,1,-4,-3,-4,-17
1530606787214909,114,-12,-6,4,2,3,9,36
1530606787229869,-29,-7,3,-3,0,1,-3,-6
1530606787229869,-57,16,-3,2,-1,0,-2,-24
1530606787230866,3,-25,-5,-5,-2,-1,-3,14
1530606787230866,5,18,-4,-3,-2,-1,-2,-33
1530606787252807,-46,0,0,-4,-2,-2,1,3
1530606787252807,13,11,14,1,5,1,0,6
1530606787253805,-24,-17,-1,8,2,-1,8,22
1530606787253805,8,-10,3,5,1,-1,-4,-13
1530606787266770,55,-54,-14,-4,-3,-3,-3,4
1530606787266770,51,-14,3,-8,-4,-2,-2,39
1530606787275746,-16,63,6,-1,1,3,12,-27
1530606787275746,-79,-5,-3,-1,2,1,0,-4
1530606787290706,12,-23,1,3,-2,-2,-1,3
1530606787290706,-12,-11,5,4,0,3,8,48
1530606787290706,108,-14,-8,-6,-6,-3,-10,-14
1530606787290706,-57,14,-12,-4,-2,-1,1,0
1530606787312647,51,14,13,-3,-1,-2,-1,-44
1530606787312647,15,-44,-11,0,-1,-2,0,1
1530606787313645,-3,2,2,1,2,2,2,19
1530606787313645,72,33,0,0,-4,-4,-5,-5
1530606787327607,-15,-6,3,-3,0,-1,-3,25
1530606787327607,-8,77,6,4,1,1,0,-13
1530606787335586,57,-35,-19,-12,-8,-5,-8,16
1530606787335586,82,15,15,12,6,5,7,-19
1530606787350546,-49,-11,-14,0,-1,-5,-4,-1
1530606787350546,4,-8,-6,-3,0,1,6,62
1530606787351543,54,23,11,2,1,2,-5,-62
1530606787351543,-99,-26,-8,-11,-4,-6,-8,-7
1530606787372487,63,68,17,8,5,8,14,47
1530606787372487,-124,-39,-19,-7,-3,-8,-10,-32
1530606787373485,4,-32,7,1,4,3,3,-8
1530606787373485,-16,-17,2,-1,-2,1,5,5
1530606787395426,-24,-16,-3,-4,-4,-3,-11,-26
1530606787395426,82,28,1,6,2,2,3,-1
1530606787396423,-92,-33,-6,-7,-3,-3,3,-9
1530606787396423,-37,47,17,4,1,-1,-7,-42
1530606787410386,92,-96,-30,-12,-6,-3,-1,25
1530606787410386,-73,-26,4,2,3,1,-1,-13
1530606787411383,41,78,0,2,-1,-2,-5,15
1530606787411383,-61,-1,-1,1,1,-1,4,51
1530606787433324,44,-8,-14,-7,1,-4,-5,-89
1530606787433324,110,-19,21,9,0,2,3,7
1530606787433324,-49,21,-3,2,3,-1,-2,-24
1530606787433324,15,-35,-12,-8,-2,-2,8,15
1530606787455266,68,24,2,3,1,4,1,25
1530606787455266,-8,-30,-11,-10,-5,-3,-6,-30
1530606787456263,41,24,6,2,-1,-1,2,40
1530606787456263,7,77,17,7,2,3,2,-3
1530606787470226,-3,-62,-7,-3,-4,-5,-1,-5
1530606787470226,-28,2,-8,-1,0,1,-2,0
1530606787471224,116,41,3,-4,-4,-3,-5,9
1530606787471224,102,-96,-23,-15,-6,-6,-10,-25
1530606787493164,-128,-10,20,7,2,3,-1,-3
1530606787493164,33,46,11,12,7,3,0,-33
1530606787493164,-40,33,-7,-9,-6,-6,-9,16
1530606787493164,-1,23,8,8,4,2,1,-9
1530606787515106,127,28,0,2,1,2,5,15
1530606787515106,-2,-113,-37,-18,-8,-6,-8,-38
1530606787516103,41,17,17,2,0,-2,-2,9
1530606787516103,2,49,2,-1,-2,-1,-1,40
1530606787530066,59,-42,14,13,8,6,5,-35
1530606787530066,79,85,-9,-7,-8,-7,-6,38
1530606787531063,-49,-5,-9,-9,-4,-3,2,41
1530606787531063,-17,-14,10,10,8,5,5,1
1530606787553004,112,-52,-30,-13,-7,-5,-1,90
1530606787553004,-80,39,9,-4,2,2,3,7
1530606787554002,-33,-50,0,5,1,2,0,-35
1530606787554002,-40,63,7,-2,-4,-3,-4,-11
1530606787574946,-12,-1,7,9,6,5,3,-26
1530606787574946,76,-40,-11,-6,-5,-3,-9,-31
1530606787575943,26,-20,-4,8,-1,2,2,-4
1530606787575943,-70,-36,-5,5,5,7,11,11
1530606787589906,-38,112,-27,-26,-18,-17,-10,14
1530606787589906,-55,-35,12,1,-1,-3,-2,9
1530606787590903,97,2,-2,8,7,5,2,-23
1530606787590903,6,-36,14,10,3,4,5,-12
1530606787612844,59,-10,-15,-10,-7,-6,-6,22
1530606787612844,85,35,6,8,9,7,7,-18
1530606787613842,-74,-2,10,-5,-4,-4,-3,-41
1530606787613842,127,-11,-22,-20,-12,-8,-5,48
1530606787635783,-23,52,24,10,4,7,8,-11
1530606787635783,-75,12,7,7,2,-2,-9,-30
1530606787635783,78,-30,-16,-5,2,1,4,40
1530606787635783,-61,-27,-6,1,0,-3,-12,-59
1530606787650743,76,-5,-6,-9,-6,-6,-7,25
1530606787650743,29,-18,4,2,0,1,3,-10
1530606787650743,-115,-20,-2,0,4,1,2,-19
1530606787650743,-6,82,0,1,-8,-5,-7,-6
1530606787672684,-41,35,22,21,9,8,12,35
1530606787672684,34,-46,-19,-13,-6,-8,-8,0
1530606787673682,-54,-60,-22,-10,-4,-3,-3,31
1530606787673682,110,2,-5,-13,-5,-5,-4,19
1530606787695623,-72,25,30,13,9,1,-15,-55
1530606787695623,69,38,12,8,1,0,7,35
1530606787696621,44,-27,3,5,2,5,7,18
1530606787696621,-82,66,-12,-10,-6,-7,-19,-92
1530606787710583,-63,-48,-7,-5,-1,0,5,35
1530606787710583,53,14,-3,1,1,4,6,39
1530606787711581,-33,-37,5,1,-2,-2,0,5
1530606787711581,43,21,7,1,0,-2,2,37
1530606787732524,-76,6,-5,-3,0,-1,1,-14
1530606787732524,-8,63,6,-1,-1,0,-2,-31
1530606787733522,-53,37,-4,4,-2,0,7,51
1530606787733522,-30,-93,-4,-3,1,0,-3,32
1530606787755463,49,-6,-8,-2,-3,-2,-6,-41
1530606787755463,-128,38,-10,-4,-2,0,1,-13
1530606787756460,113,39,-2,-4,-4,-5,-11,-10
1530606787756460,16,-9,12,5,3,2,7,35
1530606787770423,93,53,6,4,0,0,-3,-4
1530606787770423,-62,-65,-21,-11,-5,-4,-2,2
1530606787771421,56,67,-9,-4,-2,-4,-9,-39
1530606787771421,90,1,1,7,3,2,3,3
1530606787792364,-38,-54,-7,-6,-2,-3,-4,-8
1530606787792364,15,-17,-3,-2,-4,-4,-3,-13
1530606787793362,-77,12,13,3,1,0,-4,9
1530606787793362,57,-53,-14,-1,2,4,10,6
1530606787815303,-81,17,3,-3,-4,-3,-2,-24
1530606787815303,21,-2,5,2,-1,-1,0,47
1530606787816300,20,-27,3,-1,-2,-1,1,-20
1530606787816300,91,24,10,7,-1,3,6,19
1530606787830263,-106,7,-9,-5,-2,-3,-4,-10
1530606787830263,52,69,12,-2,-2,1,-5,-26
1530606787831260,-32,-43,-1,7,0,-1,2,20
1530606787831260,-62,-5,0,-2,2,-2,-1,8
1530606787853201,16,17,-1,-8,-5,-5,-5,-43
1530606787853201,51,24,0,3,2,3,3,9
1530606787853201,-11,-40,-14,-9,-1,-4,-7,-22
1530606787853201,20,-88,-2,0,0,1,-2,-19
1530606787875143,76,61,12,5,0,-1,3,52
1530606787875143,-128,-53,2,2,2,2,5,-34
1530606787876141,19,0,8,6,2,5,7,33
1530606787876141,-101,-49,-5,-4,-4,-5,-14,-51
1530606787890103,101,-84,-22,-8,-3,0,5,17
1530606787890103,-8,37,2,-2,-1,-1,-4,17
1530606787891100,61,95,5,1,1,-1,-3,-4
1530606787891100,-104,1,-18,-11,-4,-2,-3,-27
1530606787913041,23,-43,-2,5,0,3,6,38
1530606787913041,-52,-35,0,2,0,-3,-8,-38
1530606787914039,10,14,-15,-11,-4,-4,-1,5
1530606787914039,46,-57,4,2,1,-1,2,21
1530606787934983,15,11,-8,-3,3,1,-2,-32
1530606787934983,-18,4,11,2,-1,-1,2,43
1530606787935980,-23,41,18,8,3,5,7,-18
1530606787935980,57,82,3,-1,-2,-5,-6,13
1530606787949943,-19,2,2,-4,-4,-5,-8,-27
1530606787949943,41,5,-3,2,4,1,6,33
1530606787950940,14,4,-2,-6,-7,-6,-6,-17
1530606787950940,63,71,-3,-5,-3,-2,0,13
1530606787972882,-62,-5,12,3,-1,-2,-9,19
1530606787972882,-52,-53,-12,-6,-1,-2,-4,-60
1530606787973879,91,-16,2,-1,-3,-1,3,8
1530606787973879,-18,91,25,11,4,2,-1,-3
1530606787995820,75,-31,-3,4,2,4,6,42
1530606787995820,9,22,-2,0,0,0,5,22
1530606787995820,-34,-82,-10,-8,-1,-3,-12,-50
1530606787995820,11,-15,4,5,0,1,-1,-10
1530606788010780,-110,17,-3,-4,-1,-2,-3,3
1530606788010780,-1,54,9,4,0,0,-5,6
1530606788010780,98,-46,-14,-2,0,-1,1,11
1530606788010780,-22,66,3,-3,0,-1,1,6
1530606788032721,58,-27,2,3,1,1,0,-36
1530606788032721,-31,-45,-15,-9,-6,-7,-5,14
1530606788033719,-57,5,5,4,1,1,0,-3
1530606788033719,67,-4,3,1,0,0,4,14
1530606788055660,91,-37,-7,-4,0,-1,3,9
1530606788055660,-40,-1,7,2,-2,-2,-6,-26
1530606788056658,43,25,-2,1,-1,1,11,65
1530606788056658,-12,26,-10,-2,1,0,1,-15
1530606788069623,-97,-25,8,-2,-1,0,-4,-42
1530606788069623,127,23,1,-1,-1,-1,-2,17
1530606788077601,-41,26,7,2,1,1,1,15
1530606788077601,-54,-68,-7,1,0,0,-2,-8
1530606788092562,42,72,9,3,-2,-1,-1,13
1530606788092562,54,-49,-15,-6,-2,0,1,-45
1530606788093559,-57,-41,-4,0,-2,-1,-8,3
1530606788093559,127,1,-15,-8,-4,-3,-1,-18
1530606788115500,-67,63,2,-1,1,-1,-1,-8
1530606788115500,94,23,0,1,-2,0,2,24
1530606788116498,76,3,1,5,2,4,4,10
1530606788116498,-8,-73,6,3,0,3,2,9
1530606788129463,31,7,-2,4,0,1,3,15
1530606788129463,21,-82,-23,-13,-5,-4,1,-9
1530606788137441,24,119,11,-7,-4,-5,-7,-8
1530606788137441,39,-62,-6,2,1,2,6,28
1530606788152401,-15,7,5,4,2,1,1,-18
1530606788152401,-29,-15,10,2,0,0,7,70
1530606788153399,-102,-46,-15,-5,-4,-3,-8,-36
1530606788153399,-48,-59,-2,-2,0,0,-2,-51
1530606788175340,37,61,-1,-4,-4,-4,-1,15
1530606788175340,84,12,20,5,0,0,4,49
1530606788176338,-97,11,11,6,4,3,4,-7
1530606788176338,30,-44,-13,-7,-1,-4,7,21
1530606788189303,26,68,10,9,4,4,6,20
1530606788189303,-128,-29,-24,-5,1,1,0,-23
1530606788198279,127,69,4,-13,-7,-4,9,28
1530606788198279,57,-5,3,-3,1,3,-8,-26
1530606788213238,58,59,15,18,2,4,14,75
1530606788213238,40,-5,-9,-7,-6,-6,-16,-29
1530606788213238,66,-6,12,9,4,3,3,5
1530606788213238,59,6,-23,-13,-7,-7,-8,63
1530606788235180,104,20,-4,-9,-3,-1,3,-50
1530606788235180,-113,-57,4,3,1,2,-3,-28
1530606788236177,-103,-89,-8,3,1,0,-6,-25
1530606788236177,112,127,24,5,-3,-5,-13,-82
1530606788250140,-110,-107,-18,-6,-2,-3,1,43
1530606788250140,83,117,26,3,-1,-2,1,30
1530606788258119,-94,72,-15,-5,-1,-1,-5,-36
1530606788258119,60,-39,-4,6,1,2,2,31
1530606788273079,-95,-121,-6,-6,-1,-2,-1,-11
1530606788273079,-49,45,0,1,3,2,-4,-50
1530606788274076,117,-13,-9,-6,-5,-5,-7,18
1530606788274076,-21,59,12,8,2,1,11,44
1530606788295020,-67,-14,-21,-6,-4,-4,-17,-39
1530606788295020,52,-16,-7,2,0,1,5,9
1530606788296017,27,30,2,-3,-2,1,-2,-20
1530606788296017,-72,-60,-9,-3,0,3,5,18
1530606788309980,4,-10,-22,-6,0,-3,-8,-9
1530606788309980,-63,34,28,7,1,0,-8,-77
1530606788317958,58,-12,10,-4,0,4,11,81
1530606788317958,-128,-32,-8,-8,-6,-7,-10,-24
1530606788332918,87,-57,8,4,0,-3,-14,5
1530606788332918,-89,89,2,0,1,-3,-4,-30
1530606788333916,-67,20,4,0,-1,0,1,-5
1530606788333916,25,-93,-18,2,2,4,7,3
1530606788355857,1,19,0,-10,-6,-3,4,27
1530606788355857,11,17,-3,-1,0,-4,-6,31
1530606788355857,-22,-70,-7,0,-2,-3,-11,-71
1530606788355857,0,87,16,4,4,1,0,-1
1530606788369820,115,-10,0,2,-1,1,-1,5
1530606788369820,-76,-60,-18,-5,0,3,6,-3
1530606788377799,-15,-50,-8,-3,-3,-3,-4,17
1530606788377799,23,32,5,1,-1,-2,-4,-10
1530606788392759,-69,-2,4,-1,3,3,2,41
1530606788392759,31,9,-9,-5,-4,-3,-1,18
1530606788393756,-25,67,14,8,-1,-3,-7,-25
1530606788393756,3,-5,-10,-2,-2,-1,-2,-3
1530606788415697,88,-9,-3,-3,-2,-4,-2,-16
1530606788415697,127,2,14,6,4,2,4,34
1530606788415697,-37,-64,-26,-15,-7,-7,-8,-17
1530606788415697,38,6,15,5,4,1,-4,20
1530606788429660,-84,-5,0,4,0,2,2,-51
1530606788429660,-26,-27,-15,-5,-5,-4,-6,11
1530606788437638,115,21,5,3,3,1,0,-3
1530606788437638,-106,2,-3,-8,-5,-3,-3,-29
1530606788452598,117,-36,-8,-2,-1,-1,1,10
1530606788452598,127,12,13,5,1,-1,2,37
1530606788453596,-5,6,-10,-2,-2,-2,0,-4
1530606788453596,-57,-30,-5,-3,-1,-2,-1,-14
1530606788475537,-89,-10,-7,-2,0,-1,-8,-49
1530606788475537,52,-55,-4,-5,-2,-1,-2,3
1530606788476535,109,-40,-4,0,-2,-1,-1,-40
1530606788476535,-47,7,2,1,-2,-1,-9,0
1530606788489500,-1,50,8,3,0,-1,2,12
1530606788489500,38,7,-15,-5,-3,-2,-2,-18
1530606788497479,-115,7,-2,-4,1,0,-1,-36
1530606788497479,-44,-41,-5,0,0,0,3,6
1530606788512439,79,41,-7,3,-1,0,-1,-42
1530606788512439,63,-82,-3,-1,3,2,8,30
1530606788513436,-4,42,-12,-2,1,-3,-9,-10
1530606788513436,-13,-7,2,2,-1,-1,3,53
1530606788535377,92,64,5,-5,-2,-2,-1,24
1530606788535377,-30,-38,-7,1,2,5,6,7
1530606788536375,127,59,10,6,3,1,6,33
1530606788536375,98,-9,-6,-8,-4,-3,-8,-58
1530606788558316,-23,-55,5,0,1,1,1,3
1530606788558316,-118,-12,-2,-1,-3,-3,-6,4
1530606788559313,62,-21,-4,-5,-4,-2,-1,4
1530606788559313,-36,36,15,9,4,3,6,10
1530606788573276,42,62,8,2,-3,-2,0,-17
1530606788573276,36,32,-4,-5,-3,-3,-3,-40
1530606788573276,-6,-38,5,3,3,1,9,46
1530606788573276,34,18,-4,0,1,0,-8,-37
1530606788595217,-16,-33,-8,-10,-5,-3,-5,1
1530606788595217,41,41,18,10,5,4,12,39
1530606788596215,27,-9,26,2,1,-2,-2,39
1530606788596215,42,64,-12,2,-1,0,9,-43
1530606788618156,37,14,5,2,3,3,1,32
1530606788618156,75,94,0,0,-1,-3,-3,16
1530606788619153,-116,-81,-21,-8,-5,-5,-9,-17
1530606788619153,-79,14,5,-8,-3,-1,1,-23
1530606788633116,28,43,1,2,-1,-3,-4,-45
1530606788633116,-53,-1,6,-2,-1,-2,-3,-40
1530606788634113,81,37,2,9,3,4,10,31
1530606788634113,26,16,-2,-3,-3,-2,-9,-32
1530606788655057,60,-53,-23,-6,-3,-2,2,-10
1530606788655057,62,-18,20,6,0,0,3,1
1530606788656055,28,22,3,1,-2,-3,-7,0
1530606788656055,-35,27,8,1,-1,-1,-1,18
1530606788677996,17,-38,-17,-11,-4,-1,-9,-51
1530606788677996,68,96,13,-4,-2,0,4,-11
1530606788678993,-92,-92,-13,-1,3,4,4,16
1530606788678993,127,-15,0,4,1,0,6,69
1530606788692956,30,-11,16,7,3,2,4,-28
1530606788692956,-128,-47,-38,-19,-8,-5,-5,-10
1530606788693953,-21,63,39,19,2,4,5,-9
1530606788693953,27,58,-6,1,-3,-1,4,38
1530606788714897,-52,-64,-11,-8,-5,-2,3,63
1530606788714897,106,23,-6,-6,-2,-4,-19,-66
1530606788715895,-75,0,-4,-4,-2,-2,-7,-72
1530606788715895,-46,-24,-1,0,4,1,2,23
1530606788737836,35,112,14,9,4,2,10,42
1530606788737836,30,-106,-9,1,-1,1,5,50
1530606788738833,13,26,-8,-2,0,2,6,31
1530606788738833,16,-25,3,3,1,0,-1,-33
1530606788752796,-128,-17,-7,-4,-3,-5,-11,-20
1530606788752796,43,-2,-1,0,-2,-3,-2,84
1530606788753793,19,-27,-18,-14,-5,-5,-16,-45
1530606788753793,98,-79,-18,-10,-6,-4,-1,25
1530606788775734,-82,76,18,4,0,-5,-10,5
1530606788775734,-82,94,3,4,5,4,2,14
1530606788775734,61,82,5,6,0,0,3,40
1530606788775734,-33,-8,0,-5,-2,1,1,-29
1530606788797676,4,-55,7,4,1,3,7,15
1530606788797676,-29,-7,3,3,0,3,3,-4
1530606788798673,57,21,1,-5,-4,-4,2,-13
1530606788798673,72,109,2,-7,-6,-5,-12,14
1530606788812636,16,92,19,8,6,3,2,-37
1530606788812636,-86,-128,-39,-12,-5,-5,-12,-97
1530606788813633,-35,56,14,5,4,4,8,20
1530606788813633,13,24,6,3,1,-3,-2,13
1530606788835574,63,90,32,6,1,0,0,-18
1530606788835574,71,-32,-26,-9,-2,1,-1,15
1530606788836572,28,-79,9,11,0,2,6,17
1530606788836572,-92,1,-17,2,-1,0,-5,-8
1530606788857516,-3,19,-9,-8,-5,-4,0,4
1530606788857516,91,82,26,0,3,1,2,2
1530606788858513,49,-70,-25,-3,-2,2,4,62
1530606788858513,-128,-83,-33,-25,-10,-9,-12,18
1530606788872476,84,37,30,10,7,6,8,-19
1530606788872476,-58,-74,-13,8,1,1,6,58
1530606788873473,24,-17,-12,-16,-6,-8,-13,-34
1530606788873473,52,32,22,12,3,2,3,-8
1530606788895415,-31,-25,-15,0,-3,-1,3,24
1530606788895415,-127,19,27,11,4,0,-2,-1
1530606788896413,-61,-2,-8,-6,-2,-2,-10,-6
1530606788896413,127,-79,-42,-11,-9,-4,4,-4
1530606788918353,-59,-28,-25,-20,-7,-3,-14,26
1530606788918353,-95,50,18,11,4,3,-2,-26
1530606788918353,-98,41,-21,-14,-6,-7,-4,20
1530606788918353,10,-20,12,-2,-1,-2,-1,3
1530606788933313,-26,17,-16,-3,2,2,5,59
1530606788933313,7,-31,19,7,-2,1,-3,-73
1530606788933313,23,-84,-3,12,1,0,-1,-26
1530606788933313,-25,3,3,0,1,-1,-4,25
1530606788955254,65,-2,7,4,3,1,10,22
1530606788955254,66,-5,-16,-5,-6,-4,-6,-2
1530606788956252,10,105,26,4,2,2,0,-9
1530606788956252,24,-10,0,-5,1,-3,-7,34
1530606788978193,73,-48,-10,-1,1,2,5,-20
1530606788978193,127,50,15,3,3,-1,-1,-34
1530606788978193,-71,37,13,12,6,6,9,18
1530606788978193,37,-24,-20,-6,-2,1,3,12
1530606788993153,48,34,20,9,2,0,-6,-47
1530606788993153,-70,-57,-46,-26,-13,-13,-17,-34
1530606788994150,127,12,-4,-6,0,1,3,13
1530606788994150,-115,70,23,12,7,6,-1,-64
1530606789015095,16,16,-31,-20,-13,-10,-13,-8
1530606789015095,-72,83,40,21,9,10,13,9
1530606789016092,112,9,-27,-15,-12,-5,-2,17
1530606789016092,94,-41,4,4,-1,-1,0,-9
1530606789038033,-49,29,-5,11,5,3,2,8
1530606789038033,27,-14,1,-3,-1,1,6,62
1530606789039031,15,-68,-15,-9,-1,-3,-4,-40
1530606789039031,24,-1,8,0,2,3,1,-8
1530606789052993,-67,-113,-21,-2,-1,0,4,28
1530606789052993,122,98,8,-5,-3,-4,-2,97
1530606789053991,-65,-8,-13,-8,2,-2,-5,-12
1530606789053991,69,75,9,-3,-4,-4,-1,1
1530606789083910,-31,54,23,16,8,8,10,10
1530606789083910,-69,-51,-31,-13,-8,-2,-8,-32
1530606789083910,42,-9,6,4,-1,-1,0,1
1530606789083910,-56,52,14,5,7,4,0,-81
1530606789097873,-7,-22,-1,3,-1,-2,-6,36
1530606789097873,3,53,16,7,1,-3,3,-10
1530606789098871,-44,46,1,-5,0,-1,0,9
1530606789098871,-61,-19,-7,4,0,1,-3,5
1530606789112833,76,-4,-2,-7,1,-1,-4,-36
1530606789112833,-23,-64,-22,-9,-6,-2,3,-46
1530606789113830,68,-34,4,3,3,1,3,24
1530606789113830,34,91,13,3,3,1,1,-32
1530606789135772,19,8,-6,-13,-12,-9,-10,-23
1530606789135772,-81,10,-2,4,4,2,5,3
1530606789135772,-42,-91,-4,-4,-4,-2,-7,26
1530606789135772,127,56,16,5,0,1,8,57
1530606789157713,-55,-58,-12,-5,-3,-2,-2,-13
1530606789157713,63,-17,-2,1,3,0,-5,5
1530606789158710,-1,105,21,12,5,2,-5,-23
1530606789158710,-58,-10,-5,-2,-2,-1,-5,-11
1530606789172673,-34,70,2,0,-7,-3,-4,6
1530606789172673,-44,-16,14,5,8,4,1,-3
1530606789173670,41,-1,0,2,2,2,4,-6
1530606789173670,52,-24,-5,2,-4,-5,-2,12
1530606789195611,11,1,-7,-7,-3,0,-1,-17
1530606789195611,56,-25,-6,-4,-4,0,1,-68
1530606789196609,-48,15,12,3,-1,-3,-10,-84
1530606789196609,21,4,-8,-5,-1,-2,0,18
1530606789217553,58,-75,-8,0,1,2,8,21
1530606789217553,-59,-33,-18,-12,-6,-8,-21,-33
1530606789218550,33,24,1,-2,2,0,2,35
1530606789218550,89,-24,1,1,-2,-1,4,27
1530606789232513,-63,8,-7,-1,3,1,4,30
1530606789232513,-16,-48,-3,-3,-9,-4,0,17
1530606789233510,40,23,-10,-5,-1,0,-3,-19
1530606789233510,-128,-58,-5,-1,-3,-1,-2,-24
1530606789255451,3,17,11,10,2,-2,3,5
1530606789255451,29,7,-7,4,1,1,-5,-11
1530606789256449,-48,-9,6,6,4,4,6,75
1530606789256449,-24,2,-6,-3,1,0,2,-13
1530606789277393,33,-10,-7,-11,-4,-2,-3,13
1530606789277393,121,19,4,-3,-3,-1,6,53
1530606789278390,-7,-25,-17,-9,-5,-7,-10,-33
1530606789278390,-48,-34,2,-1,1,1,-2,17
1530606789301329,-15,-24,-4,0,1,1,4,3
1530606789301329,127,2,12,7,0,-1,-1,-21
1530606789302326,-18,25,-1,1,-1,1,3,5
1530606789302326,31,41,14,5,0,0,2,37
1530606789315292,61,-9,-18,-10,-4,-4,-10,-72
1530606789315292,80,54,6,-2,2,0,7,58
1530606789316289,34,-52,-7,1,-4,-3,-5,8
1530606789316289,1,-44,-4,-5,-1,2,0,-51
1530606789338230,-69,-21,8,1,3,3,-4,-13
1530606789338230,54,37,9,10,-3,-3,2,24
1530606789338230,-21,57,11,7,1,2,8,21
1530606789338230,104,7,-15,-8,-2,-1,3,17
1530606789352193,84,-50,11,5,0,2,-6,-31
1530606789352193,-42,47,-20,-21,-7,-4,-11,-16
1530606789360171,49,83,24,3,-1,-2,2,-18
1530606789360171,0,-52,9,5,3,1,6,62
1530606789375131,84,43,-9,-4,-4,-4,-11,-65
1530606789375131,-14,33,17,1,2,1,3,20
1530606789376129,81,-115,-19,-7,-5,-4,-8,-28
1530606789376129,100,79,8,-2,-3,-2,-6,-16
1530606789398070,69,-88,-9,-3,-2,1,6,35
1530606789398070,-41,28,-1,-3,6,5,10,12
1530606789399068,-106,-77,-21,-3,-2,-4,-3,37
1530606789399068,-89,-42,5,3,-1,-2,-11,-51
1530606789412033,-16,36,10,5,1,-2,-2,1
1530606789412033,-25,-9,-21,-9,-2,-1,-8,-69
1530606789421009,-7,-13,7,2,0,2,6,5
1530606789421009,-54,-52,-1,2,1,1,5,29
1530606789434971,-92,1,-7,-6,-6,-5,1,57
1530606789434971,11,86,36,15,5,3,-2,-45
1530606789435969,-34,-53,-22,-13,-3,-2,-3,-10
1530606789435969,-4,37,-10,-3,-2,-3,-4,-8
1530606789457910,-46,7,16,-1,0,0,-5,-19
1530606789457910,96,-38,3,5,-1,2,17,67
1530606789458908,-16,52,4,3,1,-3,-11,-62
1530606789458908,40,25,-8,-6,-3,0,-2,5
1530606789480848,15,48,4,4,1,1,6,82
1530606789480848,-53,-22,-3,-3,-3,-4,-7,17
1530606789481847,81,2,10,10,1,4,4,-35
1530606789481847,-92,13,-11,-10,-7,-6,-2,11
1530606789495809,-15,44,7,1,3,-1,-2,2
1530606789495809,-4,-9,-6,6,-3,0,5,55
1530606789495809,-9,-28,-6,-6,-2,-1,-6,-38
1530606789495809,20,21,7,3,-2,1,1,12
1530606789517750,73,-98,-19,-3,2,3,6,1
1530606789517750,-52,52,11,-5,-1,-2,-9,-35
1530606789518747,65,107,30,7,1,2,6,35
1530606789518747,-17,-19,-18,-5,0,0,-1,-32
1530606789531713,29,17,18,3,2,0,0,-15
1530606789531713,-49,-72,-12,0,1,-2,-3,-1
1530606789540689,-26,10,5,-2,-1,-1,4,-14
1530606789540689,-6,24,-6,-2,0,-1,-3,3
1530606789555649,-79,10,-5,-4,-3,-3,-5,-61
1530606789555649,15,24,2,6,-1,-1,-2,25
1530606789556646,-20,-15,4,0,0,1,0,-23
1530606789556646,-1,5,-3,0,0,-1,0,4
1530606789577590,-58,13,-5,2,3,3,5,9
1530606789577590,58,-47,-10,-10,-6,-5,-8,-18
1530606789578587,-80,-6,-22,-14,-2,0,2,27
1530606789578587,88,1,36,15,4,3,1,0
1530606789601526,72,-48,-11,-2,-5,-4,-9,-10
1530606789601526,-69,26,-13,-4,-1,0,3,35
1530606789601526,104,31,8,1,-1,1,4,47
1530606789601526,-105,19,-1,-1,2,1,3,-20
1530606789615489,68,15,-3,-7,-7,-5,-7,2
1530606789615489,-1,-26,1,1,2,1,5,-2
1530606789616486,-21,-15,-13,-9,-3,-2,0,33
1530606789616486,-74,-29,-14,-1,0,-3,-3,-41
1530606789637430,39,23,12,10,4,3,-1,28
1530606789637430,-87,-83,-13,-5,0,2,-3,-62
1530606789638427,-9,18,5,4,0,-1,2,-1
1530606789638427,67,-20,1,-4,-3,-2,-1,16
1530606789661366,-57,-25,-13,-5,-3,0,11,49
1530606789661366,-50,-19,-1,-4,-1,-3,-4,-37
1530606789661366,-39,-31,1,-1,1,0,-1,10
1530606789661366,-15,-3,6,3,2,0,-3,24
1530606789675328,35,-59,-3,-3,-2,-1,1,20
1530606789675328,-114,35,-9,-3,2,-1,1,10
1530606789676326,114,6,15,5,-1,-2,-1,-14
1530606789676326,5,33,5,0,0,0,1,19
1530606789698267,-40,58,-6,-5,-2,-3,-6,-27
1530606789698267,41,-47,11,6,0,3,4,32
1530606789698267,-45,-1,-5,4,1,-1,-2,-10
1530606789698267,108,22,-5,-3,-3,-4,-4,24
1530606789720209,-64,13,12,3,2,0,2,-33
1530606789720209,53,20,-4,1,2,1,-3,-17
1530606789721206,-73,-13,-15,-11,-7,-3,1,9
1530606789721206,10,22,2,-3,-2,-1,-3,6
1530606789735168,46,8,-2,-1,-1,-1,9,10
1530606789735168,31,43,10,6,3,-3,-11,1
1530606789736166,-1,-14,-7,-3,-2,0,0,-71
1530606789736166,-99,4,-3,-2,-3,-1,-6,-6
1530606789758107,58,37,0,-6,-4,-2,-4,-10
1530606789758107,113,63,-2,-3,-4,2,7,35
1530606789759105,-89,31,12,8,2,-1,-2,22
1530606789759105,-2,-128,-45,-14,-6,-4,-4,-30
1530606789781046,26,104,32,2,-4,-2,-3,-7
1530606789781046,6,-27,1,9,5,-1,3,-5
1530606789782044,-50,-17,-12,3,-2,0,-3,2
1530606789782044,113,55,36,17,8,3,-7,10
1530606789795008,44,-62,-40,-14,-5,-1,-14,-37
1530606789795008,-11,9,6,-8,-13,-2,1,-6
1530606789796006,96,26,-2,-9,4,-5,1,14
1530606789796006,-18,-55,1,4,13,1,12,13
1530606789817947,-18,35,4,3,-27,-3,-5,-11
1530606789817947,86,-26,-1,-1,5,1,1,26
1530606789818945,-42,34,13,6,0,0,-12,-95
1530606789818945,57,11,-24,-17,-7,-4,-7,-15
1530606789840886,62,55,14,2,12,2,9,42
1530606789840886,60,-5,-9,2,-1,-3,-2,-26
1530606789840886,21,92,0,4,2,1,9,69
1530606789840886,-83,47,12,1,2,-1,-8,-30
1530606789855846,-128,-83,-3,-11,2,2,7,38
1530606789855846,-17,-29,4,-1,-3,-3,-3,26
1530606789855846,59,-39,-11,17,8,2,2,35
1530606789855846,23,8,5,-1,-5,-1,-2,-19
1530606789877787,71,37,5,1,0,0,-2,-14
1530606789877787,-55,-62,-5,-7,2,3,-9,-5
1530606789878785,101,-73,-7,-10,-4,-3,-4,11
1530606789878785,-80,22,2,-1,-6,-1,6,11
1530606789900726,-30,37,-3,3,0,-3,-8,-7
1530606789900726,-20,-42,-12,-3,3,-5,-6,-35
1530606789900726,-61,0,9,-10,-7,1,1,-20
1530606789900726,57,9,3,11,4,-1,-4,2
1530606789915686,-4,-53,-11,-1,5,2,11,52
1530606789915686,-50,43,-9,2,-2,-1,-9,3
1530606789916684,-47,27,15,-6,-5,-1,-1,-23
1530606789916684,87,-17,-3,-9,-4,0,2,17
1530606789937627,-128,56,12,11,8,-1,-5,5
1530606789937627,89,-24,-8,-3,-4,-4,0,-5
1530606789938625,-58,-60,-13,-12,-5,-2,-2,45
1530606789938625,-29,32,6,2,4,3,2,-18
1530606789960566,116,-16,-4,3,1,-2,-6,-82
1530606789960566,-89,-67,-10,-5,-2,3,5,-5
1530606789961563,114,77,12,-1,-4,-5,-5,58
1530606789961563,-5,-4,5,-3,-2,-1,-6,-9
1530606789975526,16,-51,-8,-2,3,-1,1,22
1530606789975526,36,65,21,5,-1,0,10,15
1530606789976524,78,-41,-13,4,4,0,-4,-24
1530606789976524,-38,3,6,0,-3,0,7,69
1530606789997467,-80,-31,-12,-3,-1,1,0,-3
1530606789997467,15,27,-2,4,2,0,2,-2
1530606789998465,-39,-39,-11,2,1,-1,-4,-1
1530606789998465,81,-64,-3,-4,-4,-2,-2,-8
1530606790020406,-95,9,-6,-11,-3,-3,-2,-5
1530606790020406,60,63,2,1,-2,2,3,4
1530606790021403,11,9,-10,-4,-3,-5,1,36
1530606790021403,-17,18,-1,1,-2,-3,-7,-48
1530606790035366,24,-31,-3,1,2,1,6,20
1530606790035366,11,1,5,-1,-2,-5,-9,-28
1530606790036363,99,-46,10,4,-1,1,-2,-35
1530606790036363,18,72,-1,1,-1,1,6,28
1530606790058304,-85,-41,3,-4,-2,1,-4,-43
1530606790058304,61,-38,-15,-7,-4,-3,-7,-21
1530606790058304,27,-15,8,3,3,3,3,6
1530606790058304,35,-23,-17,-7,-3,0,9,1
1530606790080246,-42,3,4,6,2,-1,-3,-25
1530606790080246,-16,-2,-4,-7,-4,-3,4,28
1530606790081243,-128,6,1,-5,-1,-1,-3,-20
1530606790081243,-5,-21,-2,4,2,0,1,5
1530606790095206,50,31,-4,-1,-4,-3,0,23
1530606790095206,34,-9,-3,-3,-1,-1,1,9
1530606790096203,-53,-22,-4,1,0,0,1,0
1530606790096203,2,8,-6,-4,-4,-3,-7,-60
1530606790118144,64,-22,10,-1,-2,-4,-6,-19
1530606790118144,-22,29,4,-1,3,0,-4,-46
1530606790119142,12,-71,-12,0,-5,-3,-2,-25
1530606790119142,13,43,7,3,2,4,12,51
1530606790140086,-48,50,-10,1,-2,-6,-10,-7
1530606790140086,-61,-11,-15,-4,0,2,0,-26
1530606790141083,85,11,8,-4,-2,1,3,6
1530606790141083,-34,-13,11,4,2,0,1,8
1530606790155046,-14,-14,-7,-1,-2,0,-2,2
1530606790155046,6,8,7,2,0,1,2,11
1530606790156043,-40,-5,-11,-2,0,-1,0,-7
1530606790156043,42,-18,-2,-2,-4,-4,-5,-1
1530606790177984,-49,-11,7,2,1,3,4,16
1530606790177984,-28,-5,8,2,-1,-4,-13,-23
1530606790178982,54,28,-12,-4,-4,-1,-3,41
1530606790178982,22,-7,-1,-5,0,-1,-5,-45
1530606790208901,-50,-38,11,3,1,0,1,-12
1530606790208901,-37,-30,-10,-5,-1,1,6,18
1530606790208901,-20,102,16,4,2,0,-1,-10
1530606790208901,-70,43,-3,-3,0,-1,-7,-1
1530606790214886,90,6,-1,4,0,-1,-1,33
1530606790214886,4,-49,-2,-6,-3,-4,-4,-53
1530606790222864,-41,-1,-4,-2,-1,-2,-2,7
1530606790222864,-93,-47,-16,-4,-5,-3,-9,-52
1530606790237824,127,23,-3,-6,-2,0,-3,-41
1530606790237824,-50,28,12,4,0,0,4,31
1530606790238822,39,-11,-12,-5,-4,-2,1,-47
1530606790238822,28,-60,-2,3,1,-1,1,32
1530606790260763,-24,-53,-12,-4,-4,-3,-4,-19
1530606790260763,-37,57,8,-1,-1,0,1,26
1530606790260763,-3,-32,5,5,2,2,7,19
1530606790260763,-7,-11,-5,-3,-5,-4,-3,15
1530606790274726,23,8,5,1,2,0,9,14
1530606790274726,-35,-3,-4,-2,0,-2,1,16
1530606790282704,-113,-18,7,2,1,-2,-7,-18
1530606790282704,0,-4,-5,-5,-3,-2,-3,-39
1530606790298661,72,40,-10,-6,-1,-1,-1,33
1530606790298661,30,0,-4,0,-5,-3,-2,-26
1530606790299659,27,-23,17,6,1,2,-1,7
1530606790299659,-47,15,-1,2,1,0,-1,30
1530606790320603,64,-24,-11,-2,-1,-1,-3,-45
1530606790320603,-45,1,2,-4,-1,-2,-3,4
1530606790321600,108,56,-2,-2,-2,-1,3,54
1530606790321600,-62,-74,-9,-5,0,2,1,-3
1530606790334566,68,45,11,-4,-2,-4,-6,2
1530606790334566,-16,-11,-4,7,0,0,11,52
1530606790342544,31,-1,-7,-2,-1,-3,-6,-45
1530606790342544,-13,87,14,6,2,1,-2,-22
1530606790357504,-23,-23,-4,2,1,2,0,10
1530606790357504,33,-4,-3,-10,-5,-6,-9,-42
1530606790358502,-128,-14,-3,-2,2,2,-2,-32
1530606790358502,25,-18,-11,-5,-3,-1,-1,40
1530606790380443,-39,16,8,11,5,6,12,6
1530606790380443,59,16,-3,-6,-6,-6,-10,26
1530606790381441,-43,6,-1,-2,-3,-3,-7,-72
1530606790381441,127,-64,-21,-8,-2,0,1,9
1530606790394405,-99,22,-6,-6,-4,-2,-3,31
1530606790394405,127,28,12,11,4,3,9,90
1530606790403381,-1,7,5,8,4,3,1,-33
1530606790403381,103,17,7,1,-4,-5,-1,10
1530606790418341,-71,-3,-2,-7,-5,1,5,-26
1530606790418341,82,-32,-5,-1,0,1,2,26
1530606790418341,-80,26,-1,-6,-3,-4,-6,11
1530606790418341,58,33,8,0,1,2,10,2
1530606790440283,-21,-83,-7,-1,-1,-3,-13,-38
1530606790440283,14,78,1,-6,-3,0,5,8
1530606790441280,110,50,15,12,7,6,6,-20
1530606790441280,32,-52,-34,-17,-6,-7,-13,0
1530606790455243,-60,53,4,1,0,0,7,51
1530606790455243,35,21,20,4,5,2,-7,-50
1530606790463221,3,-60,-19,1,-4,-4,-4,10
1530606790463221,-34,32,15,15,6,5,14,44
1530606790478182,19,2,1,-2,-4,-2,-6,-38
1530606790478182,-101,-42,-10,-4,-1,0,-3,-35
1530606790479179,-3,-11,-7,-15,-7,-3,3,39
1530606790479179,14,57,6,7,-2,-3,-4,5
1530606790500123,90,-101,-17,-6,-2,-3,2,42
1530606790500123,-84,50,13,0,2,0,-7,-82
1530606790501120,-34,-74,-18,-10,-4,-2,1,72
1530606790501120,-81,-11,3,-3,-1,0,-3,-43
1530606790515083,111,81,15,4,1,0,1,1
1530606790515083,46,-60,-6,3,4,1,7,75
1530606790523061,107,52,8,-2,-3,-4,-9,-54
1530606790523061,-53,-28,-3,0,0,1,5,-16
1530606790538021,-49,38,8,1,0,1,1,18
1530606790538021,-29,11,0,7,1,-1,-10,-32
1530606790539019,17,30,-5,-2,-1,0,2,7
1530606790539019,109,21,9,0,3,5,9,33
1530606790559963,-76,-41,-5,-7,-5,-5,-10,-48
1530606790559963,54,-9,-14,3,-1,1,7,-13
1530606790560960,-80,-27,-2,-7,-1,-4,-4,57
1530606790560960,9,3,2,0,-3,0,-3,-29
