timestamp,emg1,emg2,emg3,emg4,emg5,emg6,emg7,emg8
1530606715702160,16,1,0,-1,-1,-17,7,22
1530606715702160,15,1,-4,-3,-4,18,3,-25
1530606715703156,-2,3,3,3,2,1,-3,0
1530606715703156,16,2,-1,-1,2,-2,-2,6
1530606715725098,-32,-2,0,-2,-3,-6,6,-8
1530606715725098,-5,-1,-1,1,1,-14,-12,-8
1530606715726095,4,-11,-1,-2,-6,-5,3,4
1530606715726095,5,0,-2,4,13,-1,-7,0
1530606715740057,-15,3,-3,-3,1,3,7,9
1530606715740057,7,1,-3,-3,-2,-4,13,0
1530606715740057,14,10,0,-1,-3,3,-6,-8
1530606715740057,-14,-19,-3,0,-1,7,-7,4
1530606715761998,0,3,1,-3,-6,-32,3,6
1530606715761998,2,4,1,2,3,2,2,18
1530606715762998,8,4,-2,3,3,-1,-6,-15
1530606715762998,-2,-2,-4,-3,-5,0,-5,-7
1530606715784937,9,-3,-2,-3,-4,-4,-1,-2
1530606715784937,3,-5,-2,-4,-2,0,2,-3
1530606715785934,-1,4,-1,-1,0,-10,-4,4
1530606715785934,-2,4,3,2,-1,10,2,5
1530606715799898,-28,-9,-2,-1,-1,18,-3,-10
1530606715799898,24,2,0,-1,-2,-16,-1,-3
1530606715800900,-1,4,-2,3,2,9,0,3
1530606715800900,-8,-6,-3,-3,-1,-5,3,-12
1530606715821838,4,3,-2,-2,0,3,-3,1
1530606715821838,4,5,3,2,2,12,19,-8
1530606715822836,-24,-14,-2,-2,-2,-14,-21,-2
1530606715822836,6,8,-1,-1,-3,-8,-1,3
1530606715844777,1,-7,-3,-4,-6,3,5,8
1530606715844777,-2,-2,1,3,4,-1,-7,1
1530606715845774,7,2,0,2,1,6,14,1
1530606715845774,-2,6,0,2,-1,-2,-5,-9
1530606715859737,1,0,0,2,0,-8,-5,-1
1530606715859737,9,2,-1,-1,-1,13,8,7
1530606715860734,-30,-7,-5,-2,0,2,-10,-12
1530606715860734,32,4,2,-3,-3,-7,-3,11
1530606715881678,-39,2,1,-3,-1,12,5,-5
1530606715881678,2,-7,1,7,0,0,0,2
1530606715882676,18,-1,1,-3,-1,-8,2,-18
1530606715882676,-9,3,-3,-1,0,9,-5,-1
1530606715905614,16,-5,-1,-1,0,-19,-3,-4
1530606715905614,-5,3,1,-2,0,-6,-5,0
1530606715905614,-10,-11,-3,-2,0,13,4,1
1530606715905614,-1,-1,1,0,-2,-15,-1,-5
1530606715919577,62,1,2,-1,3,10,5,4
1530606715919577,-93,-1,-1,-4,-5,-6,-6,-1
1530606715920577,27,-11,-2,-1,3,-7,3,9
1530606715920577,2,6,1,0,-2,2,-5,-2
1530606715942515,-3,-2,-1,1,2,-1,-2,-4
1530606715942515,15,-7,-6,-2,-2,2,-1,-3
1530606715942515,-3,6,0,-2,-1,4,1,14
1530606715942515,-9,-2,-2,-5,-4,0,1,-12
1530606715965454,-4,7,1,0,5,7,-7,5
1530606715965454,9,-6,-2,2,1,4,-5,-15
1530606715966455,-2,0,-2,-4,-4,-3,1,0
1530606715966455,-22,-3,-2,2,0,-9,3,0
1530606715979417,1,3,-2,-2,-4,-1,-10,1
1530606715979417,16,2,0,-2,-1,0,-1,4
1530606715980415,7,0,0,1,0,11,16,7
1530606715980415,-9,-5,-3,-2,-1,-15,-17,-10
1530606716002356,-15,-3,-2,-3,-2,7,6,-2
1530606716002356,19,8,2,0,0,-4,-9,11
1530606716003353,-11,-3,2,0,-1,6,-4,-4
1530606716003353,-4,2,-3,-5,-3,-11,8,-12
1530606716025294,-8,-10,-2,1,-3,-10,3,3
1530606716025294,8,1,-2,-3,1,-4,-3,1
1530606716026292,11,7,4,2,-2,-3,4,6
1530606716026292,-5,0,0,-1,-2,11,0,12
1530606716039257,0,3,-1,4,3,7,-8,-3
1530606716039257,1,-5,0,4,0,-14,15,-7
1530606716040254,-16,-1,-3,-2,0,1,-7,-2
1530606716040254,-2,1,-1,-3,-4,16,-5,-7
1530606716062195,0,-4,-1,-1,1,-25,-2,9
1530606716062195,5,0,-2,-3,-1,-1,-3,9
1530606716063193,22,5,0,2,0,-4,-3,-25
1530606716063193,-47,-4,0,-1,0,-1,1,7
1530606716085134,6,6,2,4,-6,14,4,5
1530606716085134,3,-6,-4,-1,3,-12,-3,-7
1530606716086132,4,4,0,-4,-3,10,-3,1
1530606716086132,7,-5,-2,7,3,1,-1,-2
1530606716099097,0,-4,-1,-5,-1,4,7,1
1530606716099097,-4,4,1,-6,-4,8,2,-13
1530606716100094,-9,-2,0,-2,-1,-7,2,0
1530606716100094,15,1,0,1,0,-12,-8,18
1530606716123035,-8,0,1,-1,1,21,6,-6
1530606716123035,-4,-2,-2,1,-1,-10,-7,-10
1530606716124031,15,-2,-4,-4,-1,-5,14,5
1530606716124031,-21,-2,0,-5,-4,0,0,3
1530606716144974,-4,3,0,1,1,-6,-8,-10
1530606716144974,-4,-5,1,-3,-3,26,4,5
1530606716145972,5,4,0,-1,-5,-25,-9,5
1530606716145972,-18,-17,-2,-3,-1,-3,-4,-7
1530606716159934,5,3,0,-1,-5,-4,-6,-3
1530606716159934,-11,-1,-1,1,5,-4,2,-16
1530606716159934,1,1,0,-3,-1,-8,1,8
1530606716159934,27,11,3,11,3,22,6,1
1530606716181876,-4,-15,-3,-2,-3,-8,0,6
1530606716181876,-1,-2,-3,-3,-5,-7,-6,0
1530606716182874,-9,-4,-1,-9,-3,2,-4,-4
1530606716182874,13,5,1,2,-2,0,7,-4
1530606716204814,-6,0,-1,0,0,-2,-18,-2
1530606716204814,12,1,-2,0,-3,-5,-4,5
1530606716205812,-1,-3,-2,1,-1,2,9,-4
1530606716205812,3,0,-1,-4,0,-6,0,0
1530606716219774,11,3,0,-3,-3,-3,5,11
1530606716219774,-2,0,1,-2,1,2,-1,-5
1530606716220772,0,-1,-1,3,1,1,-14,0
1530606716220772,-19,-4,-1,-2,-1,13,15,-8
1530606716241715,5,-1,-2,-2,-5,-30,4,7
1530606716241715,-4,1,0,-2,-2,-1,2,5
1530606716242713,-1,-3,-2,3,2,-3,5,-2
1530606716242713,11,0,-3,-8,-4,1,-9,5
1530606716265651,0,0,1,5,4,5,-2,1
1530606716265651,-3,-4,-1,-2,-1,-18,-4,5
1530606716266649,-7,2,0,-4,-3,18,-8,-3
1530606716266649,10,5,-3,-1,1,-9,-5,3
1530606716279614,-2,-7,0,3,3,15,6,-5
1530606716279614,-9,-1,-2,1,-3,-15,-7,-1
1530606716280612,4,-6,-1,-1,-2,2,6,19
1530606716280612,-2,3,0,-5,-2,-1,-2,-20
1530606716301555,-1,1,-3,-6,-4,-10,-5,-9
1530606716301555,8,1,1,5,5,7,2,6
1530606716302553,-16,0,0,-2,-3,-20,-5,-12
1530606716302553,12,-3,1,1,-2,0,-1,20
1530606716325491,-10,2,1,3,1,22,7,-16
1530606716325491,-2,-6,-2,-3,-3,-10,-1,-7
1530606716326489,1,2,1,1,-1,-11,-6,5
1530606716326489,-7,-9,-2,1,6,8,3,-4
1530606716338457,19,8,0,-7,-5,22,0,2
1530606716338457,17,-3,1,2,5,-8,-4,-2
1530606716347432,-24,-9,0,6,3,5,9,-3
1530606716347432,-29,1,-2,-5,-5,-6,-13,-4
1530606716362393,0,1,0,-3,0,-8,5,7
1530606716362393,-8,3,-1,-3,-3,12,-19,-6
1530606716362393,17,1,-3,2,-2,-5,0,12
1530606716362393,10,-3,1,1,1,3,12,-4
1530606716392313,13,6,0,10,2,-9,-22,-2
1530606716392313,3,-9,-5,-3,-5,10,26,5
1530606716393310,-26,-9,-2,-3,2,-3,-8,-2
1530606716393310,6,6,1,0,-2,-7,1,5
1530606716399294,-28,-5,0,8,6,14,-3,-7
1530606716399294,26,3,1,0,-1,-8,-6,-10
1530606716407273,10,3,-1,-1,-5,7,6,14
1530606716407273,-9,-4,-3,-2,1,-6,-6,-31
1530606716422232,20,-3,-2,-8,-9,1,0,-21
1530606716422232,-47,-2,0,2,8,11,1,-2
1530606716423230,5,1,0,0,-1,3,-4,-1
1530606716423230,14,5,2,0,-4,-18,0,10
1530606716444174,-17,-5,0,-1,1,2,8,25
1530606716444174,10,-1,-3,-2,-5,-11,1,-12
1530606716445171,6,1,-3,-4,-1,8,-17,-1
1530606716445171,31,5,1,6,0,-1,-8,8
1530606716459134,-41,-12,-3,-3,-6,-8,24,-6
1530606716459134,9,6,-2,4,11,4,13,8
1530606716467112,9,1,-1,0,7,-6,-21,2
1530606716467112,-8,2,-1,-4,-3,10,1,-2
1530606716482073,9,3,0,-6,0,-11,1,5
1530606716482073,-7,4,2,-4,-7,3,-2,3
1530606716483070,19,-7,-2,-7,-6,23,9,-17
1530606716483070,-12,-1,-1,4,3,11,-3,0
1530606716505011,22,6,3,2,-1,-9,-1,8
1530606716505011,-34,-12,-2,-2,0,0,2,5
1530606716505011,-20,-1,-4,0,-2,-11,-9,-23
1530606716505011,10,-5,0,-3,-1,3,-2,9
1530606716518974,25,-1,-3,-3,6,-2,-8,0
1530606716518974,29,7,1,-1,-5,3,-5,-2
1530606716526952,-19,-2,1,2,3,-17,4,-1
1530606716526952,9,-13,-4,-6,-5,3,5,-42
1530606716541912,-11,2,-1,-1,-1,-2,-7,-3
1530606716541912,13,9,2,0,-2,1,-1,9
1530606716542910,4,-8,1,-4,-4,4,17,14
1530606716542910,-18,-1,-1,4,4,-13,-47,-3
1530606716564851,-4,1,-4,-3,0,0,6,-2
1530606716564851,-8,-14,-3,-5,-3,2,-4,9
1530606716565849,17,8,0,1,-10,0,9,-4
1530606716565849,-1,-3,-1,-1,-1,-7,6,11
1530606716587790,-9,-1,-1,-2,-2,6,-1,-7
1530606716587790,13,0,-1,-2,-2,2,-5,11
1530606716588787,2,8,0,-4,-2,-14,1,-8
1530606716588787,-15,-27,-4,0,-7,-21,12,16
1530606716601753,4,-1,-1,1,6,-4,-6,-19
1530606716601753,6,2,1,0,1,5,0,-3
1530606716602750,18,5,0,1,2,0,14,2
1530606716602750,-1,7,0,-5,-2,8,8,2
1530606716624691,-11,-1,1,1,-3,-3,0,31
1530606716624691,11,-5,-3,1,0,-17,2,-15
1530606716625689,-35,-6,-4,-3,-2,0,-26,-16
1530606716625689,32,10,0,-2,-1,1,19,5
1530606716638654,-15,-8,-2,1,0,-2,1,-2
1530606716638654,-12,2,1,1,1,6,14,-6
1530606716647630,14,9,1,-1,-1,-10,-28,8
1530606716647630,-20,-27,-5,-3,-2,1,7,1
1530606716661592,-10,0,3,-2,-1,0,-11,-3
1530606716661592,6,0,0,-1,-2,0,4,-3
1530606716662590,-11,-4,-2,-1,0,2,6,-3
1530606716662590,7,13,3,6,5,-2,-5,0
1530606716684531,3,-2,-2,-3,-3,6,4,2
1530606716684531,-7,1,-3,-4,-3,-6,-13,1
1530606716685529,-2,-2,1,5,1,-10,13,6
1530606716685529,4,-2,-4,-7,-9,-16,-12,-7
1530606716707470,-5,-2,-3,0,3,0,-7,-9
1530606716707470,4,3,-1,1,-2,22,7,2
1530606716708468,5,3,0,1,2,-10,3,8
1530606716708468,-8,-7,-1,-3,0,9,4,5
1530606716722430,1,-2,0,-1,-4,-5,0,-5
1530606716722430,6,1,-1,1,2,7,-12,-2
1530606716722430,11,-1,-2,2,2,-1,2,-9
1530606716722430,-19,-1,-1,0,1,11,3,3
1530606716744371,14,4,-2,-1,-5,-8,-2,-11
1530606716744371,-18,-14,-5,0,-1,-7,-8,-1
1530606716745369,-4,-1,-1,0,0,7,10,3
1530606716745369,24,11,1,0,0,-9,-13,5
1530606716767310,-11,-5,0,-3,-1,6,4,7
1530606716767310,-11,4,3,3,-1,-8,-3,-11
1530606716768307,1,-7,-2,0,-3,13,12,3
1530606716768307,-2,2,1,-1,2,-7,-5,-8
1530606716782270,34,1,0,0,-3,-7,9,14
1530606716782270,-67,-3,0,-1,0,-5,-4,-1
1530606716783268,7,-1,-3,0,0,3,-5,3
1530606716783268,-6,-3,-2,0,2,12,6,-15
1530606716813187,10,0,-1,-2,-5,-10,1,13
1530606716813187,13,-5,-1,-4,-1,-6,-2,-14
1530606716813187,-4,-3,-3,-5,-1,8,-3,-3
1530606716813187,-6,1,-2,-1,0,9,-1,-4
1530606716828148,-11,3,-3,-2,-1,-9,-5,5
1530606716828148,36,4,3,2,-2,1,-1,6
1530606716828148,-29,-3,0,3,0,-4,-13,-10
1530606716828148,-3,12,-3,2,-1,13,15,-3
1530606716842111,25,-9,-2,-2,-3,2,-3,0
1530606716842111,-4,-2,-2,-3,3,-3,6,10
1530606716843108,-11,-7,0,0,2,4,-8,-9
1530606716843108,14,11,2,0,-1,-7,-5,14
1530606716865048,-18,-5,-3,-2,0,0,-1,-16
1530606716865048,17,4,-4,-2,-6,-3,1,11
1530606716865048,4,-8,-1,-1,-2,-4,0,-2
1530606716865048,-13,-9,-4,-1,1,-5,-3,0
1530606716887987,-10,10,5,2,0,0,2,2
1530606716887987,7,-7,0,0,1,-6,-1,9
1530606716888985,-9,1,-2,0,0,14,2,-14
1530606716888985,7,-3,1,0,-4,-16,-15,2
1530606716901950,-17,-1,-4,-3,-2,8,0,-14
1530606716901950,1,-5,-2,2,1,7,-7,8
1530606716902947,23,7,2,1,-1,-22,21,3
1530606716902947,0,1,-4,-4,-3,-22,-5,8
1530606716924889,-15,-16,0,0,3,8,2,-6
1530606716924889,7,5,1,0,-3,-1,-11,-10
1530606716924889,-46,-10,-3,-1,2,2,-13,-3
1530606716924889,8,3,0,-2,-1,11,20,-7
1530606716947827,1,7,1,1,-1,-7,0,2
1530606716947827,34,1,-2,-1,-2,-5,0,-1
1530606716948825,-5,-4,-2,-2,0,12,6,6
1530606716948825,-4,0,2,0,-1,1,-5,-7
1530606716961790,2,2,-1,-1,-1,1,-6,1
1530606716961790,-21,-4,-2,-2,-3,-2,5,-8
1530606716962787,29,1,-2,-3,-4,-5,-9,6
1530606716962787,5,-4,1,3,3,2,-1,2
1530606716984728,1,3,-1,0,0,-2,-5,-3
1530606716984728,5,-6,-1,-5,-5,-3,2,0
1530606716985726,0,4,1,3,5,-5,-1,6
1530606716985726,-8,-3,-3,1,-3,3,-3,-3
1530606717007667,-4,-5,-3,-1,4,0,8,0
1530606717007667,-12,4,-2,0,0,8,-2,-12
1530606717008664,17,10,0,-5,-5,13,-2,10
1530606717008664,-21,-11,-2,-3,-1,-9,-17,-18
1530606717021630,-1,6,3,0,-4,0,-4,1
1530606717021630,-1,-1,-1,0,1,5,0,4
1530606717022627,11,9,1,0,1,-3,1,1
1530606717022627,0,-4,-2,-1,0,4,14,1
1530606717044568,-1,-8,-3,-1,-4,2,3,1
1530606717044568,-6,4,1,-1,1,-6,4,-3
1530606717045566,4,2,2,7,1,3,-7,2
1530606717045566,3,3,-2,-4,-2,1,1,1
1530606717067507,1,-10,0,-2,-2,-5,-1,2
1530606717067507,-22,-2,-5,-1,-1,-2,6,-10
1530606717068505,9,1,-1,-2,-1,-1,1,1
1530606717068505,-4,-4,-2,-4,-3,-5,-7,-8
1530606717081470,-3,3,1,1,4,7,2,-4
1530606717081470,0,-1,0,1,-2,-11,-6,8
1530606717089448,-4,-9,-3,-3,-1,-3,-3,0
1530606717089448,14,5,0,1,0,-9,3,6
1530606717104408,6,0,-3,-3,-4,7,-4,1
1530606717104408,-5,-3,-4,2,-3,-5,-8,-16
1530606717105406,-12,-10,1,2,3,10,0,-8
1530606717105406,-3,2,1,-6,-1,8,5,9
1530606717127348,-11,-4,-3,4,3,3,-7,-15
1530606717127348,7,-2,1,0,-2,-6,15,10
1530606717128345,-2,0,1,-3,-2,-16,-1,-1
1530606717128345,7,5,-1,3,1,11,-5,8
1530606717142307,-10,-11,-4,-6,-2,-9,3,-15
1530606717142307,-5,0,-1,-3,-1,9,3,7
1530606717143305,0,-1,-1,-1,-1,-9,3,-7
1530606717143305,-1,3,1,-3,-1,-6,-5,13
1530606717164248,26,2,1,-2,-2,-8,-1,18
1530606717164248,-36,-8,-2,0,1,3,-4,-8
1530606717165245,-2,0,-1,1,0,11,12,0
1530606717165245,26,1,-1,1,2,-28,-8,-21
1530606717188184,-14,1,-1,-5,-6,-19,-10,2
1530606717188184,28,-1,-1,-4,0,2,7,-7
1530606717188184,-21,-1,0,-3,-3,7,-8,8
1530606717188184,-8,-4,0,3,-2,5,1,-1
1530606717202147,-2,5,3,3,3,-2,2,9
1530606717202147,10,2,-2,-1,-1,10,-10,10
1530606717203145,-8,-3,-5,-4,1,-19,-1,-16
1530606717203145,-2,-3,-1,-2,3,24,-5,3
1530606717225086,2,3,1,7,0,-26,4,-8
1530606717225086,-8,-6,-4,-4,-2,0,-8,-1
1530606717225086,17,3,-1,-3,-3,0,-2,2
1530606717225086,-21,-4,-1,4,0,6,7,2
1530606717248024,-2,1,-1,-3,0,5,-3,-3
1530606717248024,21,4,2,0,-1,-3,-4,3
1530606717249022,-20,-5,-3,-6,-9,1,6,-7
1530606717249022,14,3,1,-8,3,-10,-19,8
1530606717260989,-8,-7,-1,12,1,-8,3,-8
1530606717260989,0,1,0,-1,-1,-6,-3,6
1530606717269965,24,5,-1,-1,-3,10,11,-10
1530606717269965,1,-5,-1,-3,-4,-8,0,-3
1530606717284926,-32,2,1,-3,-1,13,-4,4
1530606717284926,8,-2,-1,-1,-2,5,-1,7
1530606717284926,2,-3,0,3,1,-7,7,12
1530606717284926,-5,-1,-2,-2,-8,4,9,-15
1530606717307865,33,3,1,2,9,-2,-11,5
1530606717307865,-18,0,0,-5,-1,-5,-3,-12
1530606717308862,-4,1,3,8,6,10,-3,0
1530606717308862,18,-2,1,6,-2,-34,6,5
1530606717321827,-5,-1,-2,-3,-1,17,6,-5
1530606717321827,-5,3,-2,-3,-3,-8,-4,0
1530606717329806,-6,-10,-2,-8,-1,-3,-11,-4
1530606717329806,9,0,-1,-4,-1,10,6,4
1530606717344766,-9,-3,1,11,1,11,1,-6
1530606717344766,9,4,2,-2,2,-24,11,16
1530606717345763,-4,1,-2,3,7,-6,-35,-17
1530606717345763,-15,-12,-3,-1,-3,-7,6,5
1530606717367707,6,0,-3,-8,-6,2,-5,16
1530606717367707,-8,-2,-2,-1,0,9,-2,-48
1530606717368703,5,-1,0,-2,-4,-4,7,7
1530606717368703,-6,6,0,4,2,3,-13,1
1530606717381667,-14,-1,-3,-4,2,5,10,-15
1530606717381667,0,0,1,4,-2,4,2,17
1530606717389645,-4,-19,-3,-3,-2,-9,9,19
1530606717389645,-18,1,-4,-3,0,11,-17,-46
1530606717404606,12,5,-1,-7,-6,-2,7,13
1530606717404606,3,1,-1,9,3,4,3,-1
1530606717405603,-13,2,-1,-3,-3,-3,6,1
1530606717405603,6,1,2,16,7,8,-6,25
1530606717427544,8,3,0,-8,-9,-17,1,-17
1530606717427544,8,-4,-1,0,5,9,-4,-1
1530606717428542,-22,3,-1,-9,-5,-10,1,9
1530606717428542,-14,-6,1,4,1,8,8,-3
1530606717441506,-7,1,-1,-1,2,9,9,-11
1530606717441506,7,2,2,-1,-5,-6,-38,10
1530606717449488,-1,-7,0,3,1,8,13,-3
1530606717449488,-21,2,-1,-9,-5,5,-2,-3
1530606717464445,5,-4,-2,1,-3,-7,14,0
1530606717464445,4,-1,-1,-5,-3,-3,1,18
1530606717465443,12,2,-2,3,10,0,-9,-32
1530606717465443,5,3,-1,1,3,-9,5,5
1530606717487384,6,-2,0,0,0,9,-7,1
1530606717487384,-5,-5,-3,-5,-4,-16,0,16
1530606717488382,10,7,0,-1,-4,20,-8,0
1530606717488382,1,-1,-1,7,1,2,9,-16
1530606717501347,-7,-13,-1,6,6,-6,-8,0
1530606717501347,5,4,0,-5,-1,25,10,-7
1530606717509325,11,-6,-1,6,-5,-28,-6,11
1530606717509325,-17,2,-1,-9,-2,-5,4,6
1530606717524285,-7,-16,-2,-4,-6,19,9,10
1530606717524285,-20,5,-2,1,3,-21,-44,-23
1530606717525283,22,-2,-2,-7,-3,5,23,-1
1530606717525283,5,-1,0,2,3,1,1,6
1530606717548221,6,8,-1,-5,-9,-8,-5,1
1530606717548221,-18,-8,-2,9,2,-1,20,-5
1530606717548221,5,6,-2,-2,0,2,-10,7
1530606717548221,-2,1,0,-4,0,-18,-10,-14
1530606717561186,-10,-2,-2,-3,0,7,-8,9
1530606717561186,11,-4,-3,-3,-6,1,9,-5
1530606717569165,-13,4,3,1,-1,-6,-7,0
1530606717569165,2,-1,-2,-6,-7,2,5,7
1530606717584125,7,5,-1,1,0,0,-11,-1
1530606717584125,6,-4,-2,-3,-8,-1,5,1
1530606717585123,-9,0,-5,-1,-1,6,-1,-3
1530606717585123,-15,-15,-1,0,1,-3,8,1
1530606717607064,-3,3,-3,-7,-1,-11,-17,-14
1530606717607064,23,11,2,3,4,-4,7,15
1530606717608061,0,-6,1,0,-1,2,0,0
1530606717608061,-11,6,-2,-5,-4,11,-6,-23
1530606717630003,3,-10,-2,-3,-3,-1,2,12
1530606717630003,-2,-3,1,-2,-1,-3,8,-11
1530606717631000,-6,-6,-2,-3,-5,5,-5,3
1530606717631000,17,0,2,0,6,-2,-13,8
1530606717644963,-6,7,2,4,1,-11,7,-5
1530606717644963,-14,-8,-1,-2,5,9,7,4
1530606717644963,4,0,-1,-4,-4,-5,-5,-8
1530606717644963,-5,-2,-1,1,-1,-5,4,3
1530606717666904,3,6,1,-2,-1,14,-3,1
1530606717666904,10,-2,-1,0,-3,-35,-9,-9
1530606717667902,-14,-3,-2,3,1,1,5,-11
1530606717667902,16,4,3,-1,0,1,0,16
1530606717689842,2,-5,-1,1,1,8,-9,7
1530606717689842,-14,1,0,-2,0,6,5,-2
1530606717690840,12,2,-2,1,1,-1,-4,-1
1530606717690840,17,4,2,0,-2,-6,6,5
1530606717704803,-19,4,-3,-1,1,16,-5,-13
1530606717704803,2,-10,-2,0,-1,-2,2,-1
1530606717705800,-27,10,2,-2,0,-8,-5,-10
1530606717705800,19,-3,-2,4,1,8,-3,6
1530606717726744,13,7,-2,-2,0,-5,2,-3
1530606717726744,-14,1,-1,-2,-3,9,0,-6
1530606717727741,9,-2,0,-1,2,-12,-8,8
1530606717727741,-6,-2,-1,3,1,5,6,-5
1530606717750680,0,-1,0,0,-2,-12,-13,-5
1530606717750680,3,1,0,-1,-1,-5,7,3
1530606717750680,7,-5,-1,-1,0,14,1,0
1530606717750680,-8,1,1,-2,-6,-27,-1,4
1530606717764642,-4,-6,-5,-2,4,-1,-5,0
1530606717764642,-5,4,2,1,0,6,-8,-3
1530606717765640,4,-1,-2,2,1,5,16,-4
1530606717765640,-7,-6,-5,-3,-1,2,5,6
1530606717786584,14,1,-1,-2,1,-23,10,-4
1530606717786584,-12,1,-1,-1,2,-7,-14,-4
1530606717787581,-8,-4,0,1,-5,21,5,1
1530606717787581,0,2,-2,0,2,15,7,0
1530606717810520,-13,0,1,-1,-5,2,3,2
1530606717810520,7,0,-1,1,5,-12,3,6
1530606717811517,4,-4,-1,-1,-2,-10,-3,2
1530606717811517,3,0,0,-5,-3,7,-3,1
1530606717824482,-10,2,-2,2,-2,0,-3,0
1530606717824482,22,2,-1,-2,-4,9,2,-3
1530606717825480,-21,5,-1,4,0,-8,-4,7
1530606717825480,-3,-13,0,-1,0,-1,-5,-2
1530606717847421,-12,5,1,3,2,-6,-4,3
1530606717847421,-9,-5,-4,-3,-2,17,-1,-5
1530606717847421,16,7,0,-5,-2,-17,8,0
1530606717847421,-5,-10,-4,-5,-6,2,-19,-4
1530606717870360,5,0,2,2,3,-7,11,0
1530606717870360,-11,-3,0,0,-2,21,1,7
1530606717871358,11,0,0,-2,0,-2,-19,0
1530606717871358,-24,-1,-3,-3,-2,-14,-3,-26
1530606717884322,13,-3,2,0,-3,3,-2,2
1530606717884322,-2,-2,-2,0,3,-5,6,13
1530606717885320,7,-1,1,-3,-4,2,9,-7
1530606717885320,-4,4,-4,3,4,-17,-10,-9
1530606717907261,12,-9,-2,-3,-1,16,0,4
1530606717907261,4,3,0,0,-1,-3,1,-3
1530606717908259,-18,0,2,1,0,0,8,7
1530606717908259,-3,0,-2,-2,-3,8,2,-3
1530606717930200,-13,1,1,0,-2,3,-6,-12
1530606717930200,5,-6,-1,1,-6,-14,5,4
1530606717931197,10,8,-4,-3,4,19,-6,-4
1530606717931197,-2,-10,2,12,6,-29,-2,3
1530606717944162,2,4,-1,-5,-4,0,-7,-5
1530606717944162,-6,-1,0,4,1,9,8,-8
1530606717945160,-9,-1,0,9,0,-16,-13,0
1530606717945160,-2,4,-2,-8,-5,14,2,-1
1530606717967101,14,-2,-2,3,-3,-9,3,-2
1530606717967101,0,-1,-4,-9,-1,2,-4,-3
1530606717968099,7,-5,-4,-3,-1,-5,-15,1
1530606717968099,5,7,1,0,-2,8,4,5
1530606717990040,-8,-4,-1,-4,-2,-5,-2,2
1530606717990040,16,-4,-1,2,3,-3,-7,8
1530606717991037,-13,2,0,-2,-1,6,-3,-25
1530606717991037,-11,-11,-2,-9,-3,0,0,6
1530606718005000,-1,2,-2,-4,-2,3,3,0
1530606718005000,10,2,1,7,4,-17,0,-3
1530606718005000,6,-1,-2,-3,-5,-5,5,13
1530606718005000,17,5,1,3,5,0,-6,-6
1530606718026941,-18,-11,-5,-4,-4,-3,0,-6
1530606718026941,-3,-1,-1,-3,-2,-4,-3,8
1530606718027939,4,3,-1,-1,1,1,-2,-9
1530606718027939,-15,-4,-5,-6,-5,20,4,-2
1530606718049880,7,2,0,0,-2,-16,3,2
1530606718049880,5,3,2,4,-1,-1,-7,1
1530606718050877,-5,-10,0,-1,0,6,3,0
1530606718050877,2,6,0,1,-3,-13,0,0
1530606718064840,-7,-4,-1,0,1,6,8,-3
1530606718064840,-7,0,-1,-7,-4,-5,-6,1
1530606718065838,-10,-4,0,-1,-1,-7,0,-7
1530606718065838,16,5,0,0,-1,6,3,2
1530606718086781,-3,-7,1,4,2,-4,-3,3
1530606718086781,-4,1,-3,-6,-1,18,9,-11
1530606718087779,5,-2,-4,-2,-2,-11,-11,16
1530606718087779,-3,-2,1,-2,0,-8,-2,-4
1530606718110717,-5,-1,-1,5,2,-5,-1,-1
1530606718110717,-12,-7,-1,-5,-1,9,-1,-29
1530606718110717,-7,-4,-1,0,-1,-7,-2,-2
1530606718110717,-3,0,0,1,0,-5,2,5
1530606718124680,15,7,0,-2,4,14,-1,3
1530606718124680,-8,-1,-1,-1,-3,-9,-3,5
1530606718125677,4,1,-3,-1,-4,-38,2,-2
1530606718125677,-6,-12,-2,-2,-3,11,3,-1
1530606718147618,6,3,1,0,-1,5,-2,-2
1530606718147618,16,1,0,-2,-3,3,-2,5
1530606718147618,-21,-2,0,-1,2,6,1,1
1530606718147618,-1,2,0,3,-1,-3,1,1
1530606718170557,7,1,-1,-1,1,-5,-11,2
1530606718170557,-2,-3,-2,-3,-5,7,19,-3
1530606718171555,-6,-9,-1,4,2,-1,-2,-2
1530606718171555,0,0,-3,-3,-1,-1,-3,8
1530606718183522,1,-2,-2,0,-6,2,-2,-2
1530606718183522,-9,8,-1,0,6,-7,-12,-8
1530606718192498,4,-4,-2,0,2,13,7,10
1530606718192498,-11,-2,0,-2,1,3,8,-4
1530606718207458,22,2,-1,-4,-2,-7,3,2
1530606718207458,-41,-6,-2,-4,-4,5,-11,-8
1530606718207458,6,2,-1,-4,-2,6,-4,-9
1530606718207458,6,1,1,8,1,-8,0,10
1530606718230397,-3,-1,0,-2,-3,-3,-9,-3
1530606718230397,16,-6,1,4,3,-23,10,-1
1530606718231395,-29,-3,-1,-5,-2,19,3,10
1530606718231395,5,4,-4,-5,0,-3,-9,-19
1530606718244360,-3,1,3,-1,1,-3,5,5
1530606718244360,0,0,0,1,2,4,-3,8
1530606718252338,14,5,-1,-6,-4,-12,-8,-6
1530606718252338,18,1,2,11,6,6,1,13
1530606718267298,-18,-1,-1,2,1,10,9,-2
1530606718267298,0,-1,-1,-1,-1,-3,-12,-8
1530606718268296,0,3,0,-1,0,-10,5,-3
1530606718268296,-15,-2,-1,-5,-4,3,-2,-7
1530606718290237,20,-1,-2,2,4,-1,-4,5
1530606718290237,5,-1,-2,-1,-2,5,2,8
1530606718291235,2,-1,-1,0,0,10,1,-1
1530606718291235,2,0,-2,4,-3,-8,-3,-6
1530606718304199,-17,1,0,-4,-3,-6,7,6
1530606718304199,10,-3,-1,3,-1,-4,-12,-8
1530606718312178,-2,-2,-2,-2,-2,-1,3,-3
1530606718312178,6,-1,-1,-5,-4,2,-4,-4
1530606718327138,-3,-6,-3,-3,0,8,-5,-8
1530606718327138,0,6,0,5,3,-4,3,7
1530606718328136,-12,-9,-3,-1,-1,9,-5,-11
1530606718328136,0,3,1,1,-1,-14,1,2
1530606718350077,0,5,-1,-1,1,-8,1,6
1530606718350077,-1,-12,-3,-6,-4,8,-2,1
1530606718351075,20,5,0,5,5,2,-3,5
1530606718351075,-14,-3,-1,-1,0,4,3,-6
1530606718364040,-1,-3,-1,2,3,-18,2,0
1530606718364040,-17,4,-1,-4,-3,26,5,5
1530606718372018,4,-1,0,-1,-5,-8,-26,4
1530606718372018,9,-6,-3,-7,3,-25,-5,-8
1530606718386978,5,3,0,-2,0,8,0,-5
1530606718386978,-3,-8,-2,5,1,-8,-11,-4
1530606718387976,3,4,2,-4,-4,5,11,6
1530606718387976,12,3,-1,-3,-1,13,0,11
1530606718409917,-20,0,-1,-5,-4,-2,3,-10
1530606718409917,3,-1,-1,8,1,-14,-9,-3
1530606718410915,2,-8,1,5,2,11,3,1
1530606718410915,-4,8,0,-1,-3,-15,-2,2
1530606718423880,5,0,-1,-5,-5,4,0,-2
1530606718423880,-1,3,1,2,5,-1,6,1
1530606718431859,5,0,-2,5,0,-19,-6,-2
1530606718431859,-12,-3,0,0,1,19,-5,-2
1530606718446818,9,-2,-1,-1,-5,-3,0,11
1530606718446818,7,3,-1,-5,-2,-3,-4,-23
1530606718447816,-11,1,-1,-6,-2,2,4,0
1530606718447816,1,-6,-3,-2,1,14,8,-12
1530606718469757,-26,-3,-2,5,2,6,-4,-4
1530606718469757,4,0,-3,-5,2,-16,-1,12
1530606718470754,10,3,2,2,2,-11,10,-3
1530606718470754,-5,-5,-2,-3,-2,5,-2,14
1530606718483719,1,0,0,-6,-2,-1,9,-13
1530606718483719,-3,4,1,11,1,13,4,-1
1530606718491698,-9,-3,-3,-5,-4,-7,-12,-1
1530606718491698,-3,-2,2,0,-1,9,2,12
1530606718506658,10,6,0,-2,-1,-5,-7,1
1530606718506658,-3,-4,-3,-9,-7,-4,4,6
1530606718507655,4,5,-2,0,1,17,-8,-2
1530606718507655,9,5,-2,3,-2,-16,3,-13
1530606718530594,-7,-9,-2,0,-2,-1,5,5
1530606718530594,3,3,2,0,-2,1,4,19
1530606718531592,-7,-4,-1,-3,0,11,-12,-23
1530606718531592,17,3,1,-7,-7,-31,-1,12
1530606718552535,-52,-3,1,8,7,10,6,-17
1530606718552535,13,-2,-1,5,6,-7,-3,20
1530606718553533,9,-3,-1,-2,-2,6,11,-28
1530606718553533,-13,-10,-2,-5,-4,2,-6,4
1530606718567495,18,3,-3,-3,-5,-8,-4,7
1530606718567495,-7,-2,2,-5,-3,2,1,-3
1530606718567495,-5,2,-2,-3,0,2,5,14
1530606718567495,13,2,-1,-2,0,1,0,-7
1530606718590434,-14,-5,-4,4,1,3,-8,-2
1530606718590434,9,1,-1,0,-2,-4,-13,-8
1530606718591432,4,3,-1,1,-3,-13,10,5
1530606718591432,-13,2,0,1,-1,13,-2,-4
1530606718612375,12,-1,-2,-4,-1,-5,-1,7
1530606718612375,-2,7,-2,-3,-1,1,-11,-10
1530606718613373,1,-10,0,0,1,7,-2,0
1530606718613373,-25,-5,-3,-1,-4,-9,4,5
1530606718627335,1,-2,-1,4,5,0,-5,-3
1530606718627335,4,1,-1,-5,-5,3,0,-5
1530606718628333,18,0,0,-2,0,-14,7,14
1530606718628333,-10,1,0,-1,2,21,1,-9
1530606718650274,0,-8,0,-1,-4,9,7,-15
1530606718650274,-5,-4,-4,-3,-8,-29,-41,3
1530606718651272,3,2,-1,-3,-1,1,4,16
1530606718651272,-8,-11,-2,11,15,-2,-12,-16
1530606718673213,0,6,2,-3,-1,7,1,-9
1530606718673213,4,-6,0,2,2,-4,18,-1
1530606718673213,-6,2,-2,-6,-6,0,-6,11
1530606718673213,20,13,1,8,3,3,1,-15
1530606718687176,-6,-27,-5,-4,-3,-11,0,7
1530606718687176,-11,1,0,-2,1,20,9,-9
1530606718688173,4,2,0,0,-3,-37,-14,15
1530606718688173,4,7,0,-2,-2,26,5,-6
1530606718710114,-1,-9,-1,0,-1,-36,-4,5
1530606718710114,8,0,1,-1,-3,8,4,-1
1530606718711112,-9,0,-2,4,-1,-5,1,-7
1530606718711112,-10,-6,-4,-8,-1,-3,-4,3
1530606718733053,5,7,3,0,-5,2,-10,-3
1530606718733053,-1,-6,-1,-1,-7,6,7,-1
1530606718734050,2,2,1,8,10,3,6,-5
1530606718734050,-4,-2,-1,-1,-3,-3,-3,6
1530606718747015,-5,3,-3,-5,-2,7,1,-1
1530606718747015,9,4,2,0,-1,-17,18,9
1530606718748013,-14,-1,-5,-2,-1,14,1,-6
1530606718748013,0,-3,0,-1,-4,-10,-10,-5
1530606718769954,8,7,1,-2,-1,6,-8,3
1530606718769954,-15,-7,-2,1,3,5,3,-6
1530606718770952,-2,2,2,-3,-5,2,6,-1
1530606718770952,-6,-4,-2,1,7,-5,-3,1
1530606718792893,9,4,0,2,1,-1,2,2
1530606718792893,-8,0,-2,-3,0,-4,-7,-7
1530606718793890,2,-5,2,2,-3,8,2,2
1530606718793890,2,-3,0,-3,-8,-3,-1,-3
1530606718806855,3,4,0,3,8,21,-10,-1
1530606718806855,-6,-7,-5,-2,-3,-24,15,-2
1530606718807853,0,0,-2,-1,1,-5,-16,-4
1530606718807853,3,0,1,-1,-5,-3,5,1
1530606718829794,19,6,0,-2,-2,3,-7,-3
1530606718829794,-25,-12,-3,-4,-4,13,-4,-5
1530606718830791,11,0,-1,3,1,-1,-4,2
1530606718830791,2,2,-2,0,-3,-7,5,8
1530606718852732,-3,-2,-2,-6,-5,-8,0,-2
1530606718852732,5,0,-2,5,5,19,4,2
1530606718853730,4,-3,-2,-7,-9,-3,-8,-4
1530606718853730,-8,1,-2,-4,6,-3,-3,0
1530606718866695,-9,-5,-1,6,-2,4,17,-8
1530606718866695,8,5,1,-3,0,-6,-31,-5
1530606718867693,-9,0,-1,0,-1,4,1,-5
1530606718867693,19,-4,-2,-6,-2,2,-5,3
1530606718889634,-32,0,-2,0,0,11,13,7
1530606718889634,3,-3,-1,-2,-4,-30,5,3
1530606718890632,1,7,3,2,3,3,3,-1
1530606718890632,5,-6,0,-3,-5,-2,-7,5
1530606718912572,-4,-3,0,5,2,9,-8,-8
1530606718912572,9,10,2,3,8,-9,4,7
1530606718913570,3,-1,-4,-5,-2,-3,2,8
1530606718913570,-8,-3,-2,4,-3,-3,4,0
1530606718927532,15,1,-1,-2,3,18,-7,0
1530606718927532,1,3,1,-4,-6,2,-3,-6
1530606718927532,-3,-4,2,-1,-1,0,14,2
1530606718927532,9,1,0,2,2,0,-8,15
1530606718949474,-15,3,0,-4,-4,-18,-5,-4
1530606718949474,3,-8,-6,-2,-2,6,-3,-29
1530606718950471,-8,-1,1,6,1,12,1,-2
1530606718950471,8,-3,-2,1,-4,-7,4,-4
1530606718972412,12,8,-1,-1,0,-11,-3,19
1530606718972412,1,-14,-1,-4,-3,7,5,7
1530606718973410,-29,5,-1,-1,-1,0,-7,-20
1530606718973410,-13,-9,-1,0,-3,-1,0,-4
1530606718987373,6,2,0,-4,-8,-11,-3,-5
1530606718987373,3,6,0,2,2,19,2,11
1530606718987373,-5,-18,-3,-2,-2,-31,-4,-6
1530606718987373,4,8,-2,-2,-1,-2,2,1
1530606719009314,-4,-10,-1,1,1,1,2,-3
1530606719009314,8,0,-3,-2,-2,10,-3,-1
1530606719010312,1,-3,-1,-3,0,-2,-4,5
1530606719010312,-9,1,0,-1,0,14,12,-9
1530606719033250,7,-5,-2,-1,-3,-34,6,-1
1530606719033250,-25,0,-3,-2,0,6,-24,-6
1530606719033250,16,-1,-1,-1,2,5,-5,4
1530606719033250,0,2,0,-1,1,3,9,-4
1530606719047212,17,0,-2,0,1,3,5,7
1530606719047212,-6,1,-1,-1,-4,0,13,7
1530606719048210,-11,-3,-3,-5,1,-5,-4,-14
1530606719048210,-15,-11,-1,1,0,2,-11,7
1530606719069154,-4,-2,0,6,3,4,-8,-12
1530606719069154,5,-3,-1,-5,-5,-15,6,10
1530606719070151,9,2,-3,-2,1,19,-1,-1
1530606719070151,6,12,0,-6,-4,-30,2,4
1530606719093090,-12,-9,-1,13,3,2,-1,-2
1530606719093090,-11,-1,-2,1,1,-6,-15,-12
1530606719094087,21,5,0,-4,-1,0,6,7
1530606719094087,-5,1,0,-1,5,3,-1,-6
1530606719107053,2,-1,-2,-5,0,3,-6,7
1530606719107053,1,1,1,-1,0,4,0,12
1530606719108050,-10,-3,-2,-5,-5,-6,6,-20
1530606719108050,5,2,2,9,2,8,-3,8
1530606719129991,-7,-2,-2,-10,-7,-14,0,-9
1530606719129991,6,-4,1,2,2,0,7,21
1530606719129991,4,1,0,-1,-2,3,-2,11
1530606719129991,-5,-2,-1,-4,-5,2,-4,-16
1530606719152930,4,0,-2,-2,1,1,-4,-4
1530606719152930,-8,1,-2,0,0,-2,1,-12
1530606719153927,-7,-5,1,3,0,-7,0,2
1530606719153927,13,4,-2,-7,-3,8,20,2
1530606719166892,-14,-11,-1,4,-2,-5,-42,-7
1530606719166892,0,-5,-1,-1,0,4,-1,-14
1530606719174871,9,2,2,2,-2,-17,2,3
1530606719174871,-31,-3,0,-1,-4,2,-1,-2
1530606719189831,4,-3,-3,-7,1,0,2,5
1530606719189831,6,5,-1,-2,-3,-7,14,-5
1530606719190829,-18,-7,-4,-3,-2,10,-5,-6
1530606719190829,15,0,0,11,-3,2,-4,-1
1530606719212770,17,4,0,-2,3,-1,3,1
1530606719212770,-16,-2,-1,-3,-3,0,-7,7
1530606719213767,1,3,1,8,3,5,8,10
1530606719213767,-11,-1,-1,-5,-5,-7,-11,-19
1530606719226732,26,1,0,-2,-4,2,1,9
1530606719226732,-11,-4,-2,-6,0,-6,-4,-27
1530606719234711,-2,4,-2,0,-1,13,0,10
1530606719234711,7,-4,-1,1,3,-1,-3,5
1530606719249671,-7,1,1,1,-3,-2,5,3
1530606719249671,17,6,2,0,-1,-4,3,2
1530606719250669,-5,-3,-4,-5,-5,-4,-5,-12
1530606719250669,-9,-15,-2,-3,0,3,-4,2
1530606719272610,-1,-2,2,1,1,7,0,2
1530606719272610,0,-1,-1,-1,-2,-29,4,-3
1530606719273607,-1,4,-1,-5,-8,6,14,0
1530606719273607,15,7,0,11,17,13,-15,12
1530606719286572,-23,-5,-5,-5,-4,-32,10,-2
1530606719286572,4,-1,-1,1,0,13,-14,-23
1530606719294551,8,-4,1,-1,-2,-12,-8,13
1530606719294551,20,8,1,-6,-4,-12,15,10
1530606719309511,-23,1,-1,0,1,22,-5,-38
1530606719309511,-6,-2,-2,-5,0,5,0,13
1530606719310509,9,-1,-1,7,6,2,-6,-3
1530606719310509,-21,-2,-1,-8,-8,-13,13,0
1530606719332450,18,2,1,0,1,-5,-10,14
1530606719332450,-11,1,2,3,-1,0,1,1
1530606719333447,-20,-10,-4,-10,-7,4,-4,-10
1530606719333447,11,-2,1,17,7,1,-7,2
1530606719346412,-12,2,-2,-7,-7,-1,7,-4
1530606719346412,15,3,2,4,5,15,0,1
1530606719354391,-12,-12,0,0,-1,-37,-4,7
1530606719354391,-1,0,-3,-8,-3,3,-10,-17
1530606719369351,5,4,0,0,-3,5,29,18
1530606719369351,10,-2,1,-2,3,1,-2,6
1530606719370349,9,8,-1,-5,-7,0,-4,-5
1530606719370349,-9,-13,-4,-2,3,0,-1,0
1530606719392290,17,6,0,1,0,3,-5,4
1530606719392290,-33,2,-2,-2,-6,7,-1,0
1530606719393287,-10,-14,-2,4,2,3,9,-11
1530606719393287,7,4,1,-7,-3,-5,1,-16
1530606719406252,-7,-1,0,1,0,0,-4,-7
1530606719406252,16,-2,0,8,4,5,8,18
1530606719414231,-14,2,-2,-1,-1,0,-10,-10
1530606719414231,9,3,0,-8,-7,9,-3,16
1530606719429191,-11,-2,1,0,1,-7,-5,-1
1530606719429191,-1,-4,-4,-2,-1,20,6,-1
1530606719430189,6,1,-1,-3,-1,-26,7,5
1530606719430189,-2,1,-2,-4,-1,3,-3,5
1530606719453127,5,-1,1,11,2,-10,-5,-14
1530606719453127,-8,-1,0,0,-3,6,-6,0
1530606719453127,20,17,2,6,7,0,-2,4
1530606719453127,-28,-31,-4,-6,-2,3,14,-9
1530606719466092,5,6,-2,-7,-8,-9,-30,8
1530606719466092,5,-2,-1,0,0,-8,2,3
1530606719475068,9,-1,1,-2,-1,6,-5,13
1530606719475068,3,6,-1,2,-1,-9,0,-21
1530606719490028,-16,-4,0,-3,0,1,14,-2
1530606719490028,-3,-5,-4,4,0,-2,-4,-6
1530606719490028,19,7,1,-2,0,10,-2,7
1530606719490028,-6,1,2,-2,-4,-4,-3,-3
1530606719512967,-17,-4,-1,12,4,5,4,5
1530606719512967,-11,-1,1,-7,-5,-12,-7,-13
1530606719513965,3,-4,-3,4,4,7,0,-6
1530606719513965,-3,4,1,0,-1,10,1,27
1530606719534908,7,-1,-3,-14,-8,-6,-3,-31
1530606719534908,8,2,2,7,-4,0,6,12
1530606719535906,-1,-6,-4,2,2,6,12,5
1530606719535906,-2,0,-2,3,4,6,-5,-9
1530606719549868,0,1,-1,-8,-3,4,9,1
1530606719549868,2,3,-1,-4,-4,-6,-9,2
1530606719550866,3,3,-1,-2,-3,-2,7,-1
1530606719550866,-5,-12,-3,-2,0,-14,-4,-14
1530606719572807,6,1,2,1,4,9,3,22
1530606719572807,0,3,-3,-7,-4,-16,-3,-12
1530606719573804,-8,-11,-2,1,0,5,-5,-1
1530606719573804,-1,7,1,-3,-2,-4,10,-1
1530606719595746,0,1,0,3,2,15,-2,2
1530606719595746,14,-3,-1,15,7,-9,-1,9
1530606719595746,-4,3,0,-2,-2,0,-2,-1
1530606719595746,-6,1,-1,-4,-3,1,-5,-4
1530606719609708,5,-6,-2,-6,-2,-11,-5,5
1530606719609708,-1,0,-3,-4,0,4,-7,8
1530606719610706,-12,-1,4,-2,0,-3,3,-34
1530606719610706,3,2,3,14,6,8,-4,17
1530606719632647,-2,0,-4,-4,-4,-14,-5,-13
1530606719632647,5,-2,-2,-5,4,-13,0,-9
1530606719633645,-8,-1,-2,-10,-4,33,-1,9
1530606719633645,8,3,1,8,4,2,-9,5
1530606719655585,6,0,2,5,5,1,0,4
1530606719655585,8,0,-1,0,-3,-3,15,13
1530606719656583,0,1,-2,-4,-2,-12,-15,-5
1530606719656583,-2,-3,-1,-2,-1,-2,-8,-6
1530606719669548,4,-4,-7,-2,-5,-3,3,3
1530606719669548,0,-4,0,-3,3,14,4,-8
1530606719670546,-3,0,-2,-7,-6,-22,-5,0
1530606719670546,8,11,0,10,3,-1,8,17
1530606719692487,-21,-15,-2,5,4,11,-2,-16
1530606719692487,-19,-3,-1,-5,-3,1,-2,1
1530606719693484,2,-2,-1,-1,0,5,8,1
1530606719693484,14,3,-1,-5,-6,-12,-7,-12
1530606719715426,3,3,-4,-4,0,14,-7,2
1530606719715426,-9,-4,0,-3,-3,-9,10,-2
1530606719716423,4,0,1,0,4,-8,-9,6
1530606719716423,-2,-2,-1,2,2,8,-2,10
1530606719729388,16,-2,-3,-1,-4,-18,6,0
1530606719729388,-37,-1,-2,-2,-2,4,-8,-15
1530606719730386,10,-5,-3,2,-1,-2,-2,17
1530606719730386,-15,-3,0,-4,-1,-3,1,-29
1530606719752327,12,5,-1,-6,-2,-4,1,15
1530606719752327,3,3,-4,-4,-3,0,-4,2
1530606719753324,9,-4,-2,3,3,-3,-2,-3
1530606719753324,-7,5,-4,-6,-8,8,3,-6
1530606719775265,-29,-10,2,5,6,-5,-1,-8
1530606719775265,21,1,-2,-2,-2,-7,-2,8
1530606719776263,-15,1,1,5,-7,3,-1,-2
1530606719776263,12,1,0,0,-1,-4,-2,-1
1530606719789228,-8,-1,-1,-1,-3,-5,-3,-3
1530606719789228,9,-3,-1,-4,0,23,-1,1
1530606719790225,6,-1,-2,10,0,-38,5,5
1530606719790225,-11,-2,-3,-7,-3,-11,-11,-1
1530606719813164,2,1,-2,-2,-1,5,3,7
1530606719813164,15,-4,-2,-4,-4,3,-10,-4
1530606719813164,-30,2,-2,-6,1,11,1,-3
1530606719813164,3,-3,4,2,3,1,4,8
1530606719835106,-3,11,0,-2,-5,-4,-11,-14
1530606719835106,9,-9,-1,6,6,2,33,6
1530606719836103,5,2,-2,-3,-4,-15,-37,-6
1530606719836103,2,-4,-2,-2,-2,-10,3,-12
1530606719850065,3,4,0,-1,-3,19,-1,1
1530606719850065,-7,-5,-1,-2,-3,-11,-16,-15
1530606719850065,-4,2,1,0,2,0,6,4
1530606719850065,-5,-12,-2,-4,0,12,4,14
1530606719873004,6,5,-1,-3,-2,-9,0,1
1530606719873004,-8,-2,-1,1,-1,-6,-3,-8
1530606719874001,-11,-2,0,-5,0,13,8,-6
1530606719874001,10,5,-2,-3,-2,-4,-10,-3
1530606719894945,10,0,0,1,1,-8,12,7
1530606719894945,-3,4,3,1,0,-1,-4,9
1530606719895943,-9,-6,-1,1,2,5,-5,-11
1530606719895943,-1,3,0,-1,-1,7,6,5
1530606719909905,-9,1,-1,0,-1,-4,3,0
1530606719909905,-6,-5,-2,0,2,1,0,-4
1530606719910903,8,-2,-1,-3,-2,1,-10,-1
1530606719910903,7,1,0,1,-2,1,4,6
1530606719932844,-10,-2,-1,-1,3,-1,0,4
1530606719932844,0,6,2,8,1,-1,1,-2
1530606719933842,10,-2,-1,-5,-3,6,3,-3
1530606719933842,3,2,-3,-1,4,2,-5,-1
1530606719955782,6,-8,1,0,-2,-9,3,0
1530606719955782,-20,0,-1,-1,-1,-7,-4,-6
1530606719955782,-2,-5,-1,-1,-6,6,3,0
1530606719955782,-7,3,0,-4,1,-7,-1,4
1530606719969745,12,-4,-4,-5,3,11,-3,-6
1530606719969745,2,0,-1,-2,-2,0,-5,-3
1530606719970743,7,7,1,2,1,0,9,7
1530606719970743,-14,-13,-1,-3,-3,19,7,0
1530606719992684,-6,1,2,0,-5,-36,-31,-2
1530606719992684,7,1,-2,-6,-1,-3,6,4
1530606719993682,-1,3,-1,7,2,-3,-4,0
1530606719993682,4,-5,-3,-2,-1,-3,3,1
1530606720015623,3,2,1,-3,-1,14,6,1
1530606720015623,-13,-4,0,-2,-1,15,-8,-1
1530606720016620,3,1,-1,2,2,-24,-1,-10
1530606720016620,15,2,-4,-4,-6,-13,11,-1
1530606720029585,-22,3,-1,4,4,22,2,11
1530606720029585,-9,-9,-4,-10,-8,-16,-16,-10
1530606720030583,-6,-7,-3,3,5,18,9,2
1530606720030583,5,4,2,4,-2,-15,3,-6
1530606720052524,0,-7,-3,-9,-4,-21,-1,-7
1530606720052524,12,5,-2,0,1,5,5,13
1530606720052524,-5,-4,3,-3,-1,5,-8,4
1530606720052524,-4,2,-4,-3,-3,-1,-9,-1
1530606720075462,-4,-2,-1,-1,-3,10,2,-31
1530606720075462,1,1,0,-2,-1,14,0,1
1530606720076460,2,-3,0,0,-1,-16,1,2
1530606720076460,-7,-1,0,0,-2,-6,-3,4
1530606720089425,17,3,-1,0,2,4,3,6
1530606720089425,-17,-7,-5,1,1,-5,1,0
1530606720097404,9,1,-1,-5,-3,10,-1,-4
1530606720097404,7,1,3,9,3,-2,-2,0
1530606720112364,-7,-4,-4,-1,-1,2,1,-7
1530606720112364,8,3,3,-1,-6,1,12,7
1530606720113361,-19,2,0,5,6,-9,-25,-11
1530606720113361,-4,-2,-1,-1,-1,-5,-6,-4
1530606720135303,11,7,-1,1,-2,-2,5,4
1530606720135303,4,2,-2,-1,-3,-8,11,7
1530606720136300,-16,-5,-2,-2,-2,8,1,-4
1530606720136300,-1,1,-1,-6,-3,7,-3,-4
1530606720149265,-2,3,1,3,2,0,-12,2
1530606720149265,11,5,4,1,-2,-9,-3,-2
1530606720157244,5,0,-1,-4,-2,9,8,-1
1530606720157244,-15,-2,-2,7,0,-14,-7,1
1530606720172204,16,-2,0,1,-1,2,12,15
1530606720172204,0,-3,-3,-3,1,-6,-7,-11
1530606720173202,-2,1,1,-1,1,4,-4,-2
1530606720173202,-8,-1,-1,-3,-1,-3,7,-4
1530606720195142,-2,-2,1,-1,1,20,4,9
1530606720195142,-3,1,-1,-1,0,-5,-6,-1
1530606720196140,4,2,-3,-2,-5,2,1,1
1530606720196140,5,-2,1,4,6,4,5,0
1530606720209105,4,0,0,-1,-4,-3,-3,-1
1530606720209105,-23,-6,-3,-1,0,-24,11,-30
1530606720217084,2,0,-4,-9,-4,-10,7,9
1530606720217084,2,-3,-1,-6,-4,4,-5,6
1530606720232044,7,-1,-2,2,1,-4,-4,-3
1530606720232044,16,7,2,0,-2,18,-5,4
1530606720233041,-9,-4,-2,-2,-4,-11,3,-6
1530606720233041,-28,-15,-7,-6,-3,-7,-7,-9
1530606720254983,-7,0,1,-2,-1,14,6,8
1530606720254983,9,2,3,6,1,-20,-17,8
1530606720255980,4,0,0,3,1,-2,0,-10
1530606720255980,14,1,1,-3,1,7,-2,16
1530606720268946,-12,-4,-3,7,-1,-8,2,-7
1530606720268946,0,-1,-3,-1,3,11,0,8
1530606720276924,5,3,1,0,0,1,-3,-4
1530606720276924,2,3,-3,-7,-8,-10,1,-8
1530606720291884,-13,-8,-1,-1,3,0,-8,-7
1530606720291884,5,2,2,5,-1,12,6,2
1530606720292882,-7,-3,-1,3,3,11,8,8
1530606720292882,-3,-1,-3,5,1,-14,-15,-13
1530606720314823,6,1,-3,-3,-2,5,24,17
1530606720314823,10,1,-2,-3,-1,-6,-38,-11
1530606720315820,-11,-5,-2,-7,-4,-6,3,3
1530606720315820,-8,0,2,5,6,12,-3,-8
1530606720328785,0,0,-1,0,-1,4,-21,-3
1530606720328785,-4,-3,-1,-5,-6,-21,10,6
1530606720336764,29,5,4,4,1,7,6,1
1530606720336764,-38,-1,-1,-6,0,-4,-24,-8
1530606720351724,-3,-5,-2,-1,0,-10,6,3
1530606720351724,-3,-4,-2,-12,-6,30,8,0
1530606720352721,9,10,-1,6,9,-34,-11,2
1530606720352721,8,-7,0,15,4,4,9,11
1530606720375660,9,1,-3,-7,-7,-3,4,-27
1530606720375660,-15,-2,-2,1,5,-2,-1,-3
1530606720375660,1,2,0,-9,-6,6,0,-6
1530606720375660,19,4,0,-6,-4,-3,4,12
1530606720388625,-10,1,1,4,1,-4,-9,2
1530606720388625,1,-8,-1,-6,-7,17,11,-5
1530606720397601,-28,-6,-3,-3,-5,-1,-18,5
1530606720397601,9,2,1,12,13,-3,-11,-17
1530606720412561,10,0,-1,0,4,8,3,-5
1530606720412561,-2,3,0,3,3,0,6,11
1530606720412561,4,-2,-3,-2,-1,2,11,2
1530606720412561,-15,-5,0,-10,-8,-6,0,-1
1530606720435500,6,1,0,-6,-2,-3,-14,-1
1530606720435500,-1,1,-2,6,3,1,3,-4
1530606720436497,6,-4,-3,0,-2,2,7,1
1530606720436497,-7,0,-4,-7,-3,3,-2,-5
1530606720457441,11,-1,2,-5,-2,-6,14,2
1530606720457441,3,0,-1,12,0,-7,3,14
1530606720458439,1,-5,-2,6,2,-2,-5,-14
1530606720458439,8,2,0,-6,-3,5,-1,0
1530606720472402,-21,-3,-2,-3,-3,-13,-12,-16
1530606720472402,10,6,-1,-6,-1,5,0,11
1530606720473399,1,-6,0,-1,-2,-12,1,6
1530606720473399,-3,2,3,7,1,4,6,-13
1530606720495340,-4,0,3,-1,3,12,13,10
1530606720495340,7,0,-3,-3,-4,-4,-21,18
1530606720496338,4,2,1,-4,-3,6,-1,-47
1530606720496338,-1,-2,-3,-2,-4,-4,2,8
1530606720518278,-11,0,-2,0,3,-6,1,2
1530606720518278,-9,-2,0,-5,-7,12,6,12
1530606720518278,-9,-6,-2,-1,5,-12,-8,-16
1530606720518278,12,1,2,5,0,5,2,9
1530606720532241,-4,3,0,0,0,-4,6,-1
1530606720532241,3,-1,-1,2,5,-6,-2,-1
1530606720533239,16,5,-1,-4,-6,10,-3,17
1530606720533239,-39,-14,-3,-8,-5,-2,10,-9
1530606720555180,1,2,0,1,-1,0,-6,8
1530606720555180,-4,-2,-1,-5,-2,-13,-10,-14
1530606720556177,-8,-4,-1,2,6,1,3,2
1530606720556177,27,6,-1,-1,-4,-3,4,8
1530606720578118,-8,-1,-1,-5,-6,-8,-10,-4
1530606720578118,-17,-8,-2,-5,-4,-4,1,-14
1530606720579116,0,1,3,7,4,13,1,8
1530606720579116,5,1,-2,-4,-4,-3,-2,3
1530606720592081,-1,-4,-1,1,1,-4,-2,-12
1530606720592081,2,2,-1,-3,0,-1,-1,-8
1530606720593078,-5,1,0,-1,-6,10,4,26
1530606720593078,-1,0,-1,-4,0,11,12,-26
1530606720615020,-1,-3,-3,3,-3,-19,-29,12
1530606720615020,11,1,0,3,6,-9,-4,-12
1530606720616017,-14,0,-3,-4,-4,11,-2,7
1530606720616017,11,4,0,-1,1,3,17,7
1530606720637958,5,-5,0,-1,-5,1,3,-4
1530606720637958,5,5,2,0,0,6,8,-1
1530606720638956,-14,-7,-2,2,2,-5,-13,7
1530606720638956,5,0,-1,-7,-5,-3,-5,-1
1530606720651921,3,1,-2,3,1,-2,-9,-4
1530606720651921,-8,0,3,2,3,3,-7,3
1530606720652919,28,7,0,-3,-4,-13,9,-3
1530606720652919,-9,-5,-3,-4,-2,-2,-4,3
1530606720674859,-13,-3,-3,0,-1,11,0,-4
1530606720674859,4,2,0,0,1,-16,6,3
1530606720675857,2,-4,-2,-3,-2,-5,-3,-11
1530606720675857,-13,-6,0,-3,0,12,-8,7
1530606720697798,4,2,-2,-3,-7,-21,2,-9
1530606720697798,-3,1,1,1,-1,-1,-2,-2
1530606720698796,-7,0,-1,1,8,-2,0,-17
1530606720698796,4,-2,0,0,0,-8,-3,13
1530606720711761,3,2,3,10,7,9,5,12
1530606720711761,-11,-5,-1,1,1,3,-8,-3
1530606720712758,10,4,-2,-1,-7,-3,7,-14
1530606720712758,-4,-6,0,-1,0,5,-4,-9
1530606720735697,-6,3,0,-8,-2,15,22,7
1530606720735697,1,-3,-4,-1,-6,-23,-41,-8
1530606720735697,-8,1,1,2,4,0,-5,6
1530606720735697,7,3,-2,-1,-2,11,2,0
1530606720757638,15,-1,0,3,3,-13,5,12
1530606720757638,-32,-4,0,-2,0,5,12,-3
1530606720758636,11,3,0,-2,-6,3,-4,-5
1530606720758636,-12,-13,-2,2,-2,-10,-11,-10
1530606720772598,18,5,-4,-9,-5,2,3,9
1530606720772598,-22,-16,-5,-3,-4,5,6,-14
1530606720772598,8,2,-1,3,0,-1,-3,15
1530606720772598,5,9,2,0,1,-4,11,9
1530606720795537,-5,-1,-1,-2,0,5,-12,-2
1530606720795537,12,7,3,4,-1,13,2,-17
1530606720796535,-20,-12,-4,-5,-5,-16,7,9
1530606720796535,10,1,-1,-4,-2,4,0,2
1530606720817478,-11,-2,-1,8,4,-3,-3,-6
1530606720817478,12,7,1,-5,-4,15,-1,11
1530606720818476,-1,-6,-1,-2,3,-13,10,1
1530606720818476,-5,3,1,6,0,-10,3,11
1530606720832438,-1,-2,-1,-7,-3,17,-2,-9
1530606720832438,3,-3,-1,5,0,-9,6,10
1530606720832438,4,0,-2,-6,-3,9,-3,-7
1530606720832438,2,-1,-1,-5,-1,-7,-6,-1
1530606720855377,5,0,-1,0,-1,-1,6,-1
1530606720855377,11,0,-2,-3,-2,-13,-14,-4
1530606720856374,2,5,3,1,-1,16,14,4
1530606720856374,-15,0,-2,2,-1,-7,-40,-13
1530606720878316,-12,-10,-1,-5,-2,-2,2,4
1530606720878316,5,5,0,0,3,2,7,-3
1530606720878316,-8,0,2,0,-1,7,-3,10
1530606720878316,16,3,1,1,0,4,8,-10
1530606720892278,12,4,-2,0,-1,-6,-3,13
1530606720892278,-6,-9,-3,-2,2,-8,1,-6
1530606720893276,-1,0,0,-2,1,2,-1,-2
1530606720893276,-7,-1,-3,-4,-2,0,-4,-9
1530606720915217,1,-1,3,-3,-2,-18,-4,8
1530606720915217,-1,3,-1,1,1,10,6,3
1530606720916214,-7,-2,-2,3,0,1,-9,4
1530606720916214,1,-2,-3,1,-2,9,3,4
1530606720938156,-2,-1,0,-2,-4,-9,-5,-33
1530606720938156,6,2,0,-3,-3,2,10,11
1530606720938156,4,-1,0,-5,-2,-5,-16,-15
1530606720938156,-22,-4,-3,-1,0,9,-1,16
1530606720952118,-1,0,-4,-11,-7,-15,7,-9
1530606720952118,-15,-3,1,21,3,-3,2,0
1530606720953116,8,-2,-2,1,-1,-2,-14,2
1530606720953116,11,-1,-1,2,0,-4,6,-3
1530606720975057,-17,0,-1,-2,0,5,-8,-14
1530606720975057,15,-3,-2,-9,-3,4,3,0
1530606720976054,2,7,0,0,-3,-2,5,10
1530606720976054,5,-3,1,0,1,6,18,-1
1530606720997996,-16,-6,-1,2,0,2,-25,-2
1530606720997996,-7,5,1,-2,1,-10,3,3
1530606720998993,-5,-7,0,1,-1,-2,2,-2
1530606720998993,7,2,-1,-2,-2,-8,-2,-6
1530606721011958,7,-1,0,0,0,15,10,3
1530606721011958,-15,2,0,-1,0,1,-5,-6
1530606721012956,-3,-3,-2,-4,1,12,-6,7
1530606721012956,11,5,1,4,0,-20,10,-5
1530606721034897,2,-2,-1,3,2,-1,7,4
1530606721034897,7,-4,-5,-8,-5,-1,-9,2
1530606721035894,-6,2,0,7,5,1,6,-10
1530606721035894,-15,-4,-3,-5,-3,-1,-9,-5
1530606721057835,1,8,1,2,1,2,1,7
1530606721057835,15,3,3,-4,-1,-13,1,-1
1530606721058833,-9,-10,-3,-2,-4,2,2,4
1530606721058833,10,4,0,-5,0,-11,-10,-4
1530606721071798,-10,-7,-2,12,1,17,6,-1
1530606721071798,-3,0,0,3,3,-15,1,12
1530606721079777,0,0,-2,-7,-4,4,-2,-26
1530606721079777,14,0,0,1,-1,-5,4,3
1530606721095734,-18,0,0,-7,-2,12,7,10
1530606721095734,0,-6,-4,-11,-5,-25,-1,-1
1530606721095734,-8,-3,4,11,3,-9,-8,-4
1530606721095734,9,2,-1,-3,-1,11,17,5
1530606721117675,9,1,-1,0,2,-5,-42,-4
1530606721117675,1,2,-2,1,1,10,19,4
1530606721118673,-2,-1,-4,-7,-2,-9,-3,5
1530606721118673,-11,-3,1,-1,-2,0,-15,-15
1530606721131638,15,0,2,4,1,-8,13,17
1530606721131638,-10,0,0,-2,-1,11,-9,-11
1530606721139617,4,-4,-2,-4,-2,1,7,0
1530606721139617,-1,-2,-1,-3,-3,-6,-7,-3
1530606721155574,-13,1,-2,6,2,-7,3,-7
1530606721155574,11,0,-1,-1,0,-2,-11,-2
1530606721156572,0,5,3,-4,-2,5,7,3
1530606721156572,-5,-2,-1,6,0,3,-1,5
1530606721177515,-2,-3,-3,-2,1,-6,2,-2
1530606721177515,-13,-3,-2,3,-2,11,1,-3
1530606721178513,12,-1,-4,0,1,-2,-2,0
1530606721178513,0,1,-1,-7,-1,-4,0,5
1530606721191478,-15,-6,-3,-6,-4,-11,-1,-15
1530606721191478,-3,3,3,2,0,45,7,10
1530606721199456,11,3,0,-2,-6,-48,-27,2
1530606721199456,0,-2,-1,1,0,-5,12,2
1530606721214417,-1,-1,-2,2,2,1,1,3
1530606721214417,1,-1,0,-5,-4,-5,-2,-7
1530606721215414,-5,0,0,-5,-2,18,26,2
1530606721215414,0,-2,-1,1,1,1,-37,3
1530606721237355,2,-2,0,-1,-4,-7,3,-5
1530606721237355,16,0,-1,1,1,-8,-15,-1
1530606721238353,-15,1,-2,4,-1,3,13,-2
1530606721238353,-3,-7,-1,0,0,-3,8,-7
1530606721251318,0,0,-2,-10,-4,9,-1,10
1530606721251318,-1,-1,-2,6,-1,-12,2,-17
1530606721259297,-9,1,-1,-6,0,8,-7,-3
1530606721259297,-7,-1,-2,6,1,-3,0,-3
1530606721274257,7,-2,2,3,0,-4,-2,3
1530606721274257,2,-2,-1,-1,2,1,3,3
1530606721275254,1,1,-2,-5,-1,-1,1,5
1530606721275254,-3,-4,-1,3,3,3,-5,-8
1530606721298193,22,3,-1,-6,-5,-4,3,10
1530606721298193,-46,-4,-4,-3,-1,-6,3,-10
1530606721298193,6,0,1,5,0,3,-5,-5
1530606721298193,15,3,3,-5,-2,12,4,2
1530606721311158,-10,-2,-3,-1,1,-13,8,-10
1530606721311158,4,-2,-1,-5,-5,-6,-18,10
1530606721320134,5,0,-1,6,5,-6,-13,10
1530606721320134,5,2,-3,5,-1,-2,5,-7
1530606721335094,1,1,-2,-3,-1,13,4,3
1530606721335094,-4,-3,-3,-1,0,6,1,-8
1530606721335094,-4,-1,-1,3,2,-7,9,-4
1530606721335094,-4,-5,-2,-7,-4,5,-4,-1
1530606721358032,-4,1,0,-4,-4,-6,1,-4
1530606721358032,-2,-5,-3,-3,-1,-10,-1,4
1530606721359030,29,0,-2,-7,-4,6,-7,2
1530606721359030,-23,-4,-4,-6,1,-1,3,-7
1530606721370998,0,2,0,1,2,4,2,-1
1530606721370998,3,0,0,-5,-4,-3,-10,-7
1530606721379974,-6,4,2,4,2,6,0,11
1530606721379974,-8,1,-3,-10,-10,-4,2,-23
1530606721394934,7,-12,-2,12,4,10,-10,-8
1530606721394934,-3,2,-2,-1,1,-2,6,11
1530606721394934,12,-1,-1,-1,-5,1,7,5
1530606721394934,-23,9,-1,-5,-1,2,-6,-22
1530606721417872,-7,-9,-2,-6,-3,-3,-2,-2
1530606721417872,8,-1,1,2,1,16,5,2
1530606721418871,-4,-5,-1,-4,-2,-14,-9,-5
1530606721418871,10,-1,-1,-6,-5,-2,35,23
1530606721439814,-10,2,-2,5,1,-9,-39,-9
1530606721439814,5,-4,-3,9,5,2,5,6
1530606721440811,-11,-3,-2,-17,-7,-5,-6,-10
1530606721440811,12,-1,2,21,7,10,-1,13
1530606721453777,-5,-2,-1,-9,-6,-13,8,3
1530606721453777,-9,-2,-1,-6,-3,2,1,-11
1530606721462753,-6,1,-3,-1,0,3,2,1
1530606721462753,10,-1,0,-2,0,-7,-2,18
1530606721477713,5,1,0,0,3,6,-3,-10
1530606721477713,9,3,-2,-2,-1,8,3,-16
1530606721478710,-31,-6,-1,0,-2,-30,3,-10
1530606721478710,5,2,-1,-2,-3,-5,-13,16
1530606721500651,-3,3,0,-3,-1,9,1,1
1530606721500651,6,-4,3,6,4,-30,-1,2
1530606721500651,2,-3,0,0,-1,28,7,1
1530606721500651,12,1,0,-1,2,6,-10,-7
1530606721514614,-21,3,-2,3,-2,-13,5,13
1530606721514614,13,1,0,-1,3,6,1,3
1530606721515612,-13,-6,-3,2,0,-12,1,-12
1530606721515612,0,1,1,-5,-2,-8,-10,-10
1530606721537552,10,3,-2,-6,0,9,10,-5
1530606721537552,0,0,0,1,0,1,0,6
1530606721538550,3,3,0,-1,-3,6,6,4
1530606721538550,-19,-4,-1,5,4,1,5,0
1530606721560491,5,-1,-5,-6,-3,-8,-15,-2
1530606721560491,-4,0,1,0,0,-9,8,5
1530606721561489,9,2,-1,-4,-4,10,-4,-3
1530606721561489,-7,-8,-3,-5,-5,-2,11,4
1530606721574454,7,5,1,8,2,11,13,-2
1530606721574454,-7,-5,-2,-2,1,-4,-31,-3
1530606721575452,-2,3,0,-1,-1,-21,0,-12
1530606721575452,22,3,-1,-1,-1,-7,-1,5
1530606721597392,-10,-8,-1,-2,0,-2,-2,1
1530606721597392,4,0,-5,-4,-4,10,5,7
1530606721598390,-5,-2,-2,3,3,12,-1,-13
1530606721598390,-6,-3,0,1,-2,-8,-16,1
1530606721620331,31,2,-1,0,-1,-6,20,20
1530606721620331,-37,0,3,-3,-4,-3,3,-12
1530606721621329,-3,-3,-3,3,3,9,-1,14
1530606721621329,3,0,-1,-2,-1,-4,2,-5
1530606721634294,4,-6,-1,-4,-1,2,-4,-1
1530606721634294,-3,3,-3,-3,-2,3,4,-2
1530606721635291,11,-1,-3,0,-3,-1,-5,3
1530606721635291,-4,0,-3,-3,1,2,-3,-1
1530606721658230,3,8,3,-2,1,3,-3,-10
1530606721658230,-1,-8,-2,1,-2,-7,4,1
1530606721658230,-23,-6,2,9,10,19,13,7
1530606721658230,10,5,-2,-4,-5,-7,-21,3
1530606721680171,0,-4,0,0,-3,6,-1,-8
1530606721680171,3,8,0,-4,1,-4,5,13
1530606721681169,0,-1,-3,-1,-4,-11,-7,-16
1530606721681169,-3,-2,-1,0,2,12,8,1
1530606721694134,5,-9,-1,1,0,3,-6,-6
1530606721694134,-33,-2,0,-3,-5,-11,-8,5
1530606721695131,7,3,1,-2,-1,8,5,12
1530606721695131,4,-1,0,1,1,-3,5,-10
1530606721718070,-19,1,-1,-3,-2,-6,-2,-10
1530606721718070,33,0,0,4,1,5,-7,3
1530606721719067,-3,-5,-1,0,-1,-9,4,4
1530606721719067,-4,-1,-3,0,0,-2,-1,-4
1530606721740011,-4,1,-4,-1,1,7,5,3
1530606721740011,-3,-2,-1,-2,1,-10,-7,-6
1530606721741008,-7,0,-2,-1,-1,-1,-8,4
1530606721741008,9,2,1,0,0,1,-1,3
1530606721754971,-10,-1,-1,-2,1,-10,2,4
1530606721754971,14,-5,-3,-2,-4,19,4,-6
1530606721754971,16,9,1,1,-1,-7,-6,12
1530606721754971,-18,-11,-2,0,-2,-3,7,-5
1530606721777910,-3,1,-3,1,0,-1,-10,-21
1530606721777910,20,9,2,-1,1,15,3,5
1530606721778907,-31,-14,-2,-4,-6,-21,0,0
1530606721778907,2,4,1,1,2,1,4,1
1530606721799851,0,4,-1,-2,-5,4,0,6
1530606721799851,17,-5,0,5,2,-11,-19,0
1530606721800848,0,2,-3,-6,-1,14,2,2
1530606721800848,-14,-4,-3,-5,-3,1,13,-10
1530606721814811,-19,-3,-1,2,-2,-9,-13,2
1530606721814811,-4,3,-1,-3,-1,9,8,-7
1530606721815809,38,4,0,-1,0,-16,-4,8
1530606721815809,-8,-3,-2,-3,-2,-3,-12,6
1530606721837750,0,-5,-1,-3,-2,0,18,-2
1530606721837750,-16,-3,0,3,-2,-3,3,1
1530606721838748,-1,4,0,1,-2,4,-6,-7
1530606721838748,3,-2,1,-2,-2,8,7,-4
1530606721860688,11,0,-2,-9,-3,-3,-14,0
1530606721860688,-34,-10,-1,18,6,-7,6,1
1530606721860688,-1,-5,-2,1,3,6,4,-6
1530606721860688,9,7,3,3,1,8,-8,4
1530606721874651,16,4,1,-2,-2,-31,0,8
1530606721874651,-7,-11,-6,-14,-9,14,1,-6
1530606721875649,0,6,2,1,4,7,3,-8
1530606721875649,-3,-5,-3,0,0,9,-7,3
1530606721897590,9,2,0,1,1,-11,3,11
1530606721897590,-1,-1,-3,-6,-5,-15,2,-12
1530606721899585,-2,3,0,1,-2,1,-4,-11
1530606721899585,-4,-4,-2,0,0,-5,-3,5
1530606721920528,-14,-1,0,1,0,11,-3,-10
1530606721920528,21,8,-1,-4,-1,-6,0,-6
1530606721921526,-9,-6,-1,-1,0,-2,-4,7
1530606721921526,-2,2,-1,1,1,0,5,-15
1530606721934491,2,3,-1,1,-1,3,-13,0
1530606721934491,-6,-11,-2,-3,-1,3,1,2
1530606721943467,-4,-3,-3,-7,-5,-2,-3,0
1530606721943467,9,1,-1,-5,-1,-6,-3,0
1530606721956432,-14,-3,-1,0,0,8,19,-3
1530606721956432,18,6,1,1,-1,-2,-4,1
1530606721965408,-4,-1,-2,-4,-4,-1,-2,-4
1530606721965408,-10,-4,0,-2,0,-2,3,8
1530606721980368,14,1,-2,6,2,12,-5,-6
1530606721980368,-3,-3,-1,-3,-4,-32,1,6
1530606721982363,-22,3,0,6,6,-6,-6,-8
1530606721982363,-4,1,-2,-4,-2,1,2,6
1530606721994331,-10,-5,-3,-2,1,11,-4,-5
1530606721994331,11,3,1,-3,-1,-1,9,3
1530606722003307,0,-6,-2,1,-2,-2,-1,-3
1530606722003307,5,2,0,1,-3,-23,-1,-2
1530606722018267,14,3,0,0,-3,3,5,0
1530606722018267,-11,-9,-3,2,6,4,-7,10
1530606722019265,5,-3,0,-4,-3,1,-1,1
1530606722019265,0,-2,0,1,2,3,-6,-12
1530606722040208,-12,0,-1,0,-1,-5,-2,-19
1530606722040208,-2,3,3,-7,-3,4,0,0
1530606722042203,5,-2,-1,1,-1,3,-2,3
1530606722042203,3,-1,-2,8,1,3,8,6
1530606722054171,15,0,-1,-5,-1,-1,-22,6
1530606722054171,-15,-10,-4,-8,-5,-4,19,-7
1530606722063147,12,2,-2,2,1,0,0,0
1530606722063147,-32,-1,1,1,1,-4,-4,-5
1530606722077110,-6,-4,0,-4,2,20,1,1
1530606722077110,10,3,0,3,0,-30,-12,-4
1530606722084091,14,3,0,-5,-4,1,3,7
1530606722084091,-10,-1,1,2,0,4,-2,-4
1530606722100048,12,-1,-2,-1,1,-7,4,17
1530606722100048,-15,2,-1,-3,-1,16,-5,-22
1530606722102043,-8,-1,-2,1,-1,5,11,1
1530606722102043,22,3,1,-5,-2,-9,-22,17
1530606722114011,-10,-3,-1,-1,-1,2,-1,0
1530606722114011,15,5,1,2,1,6,6,9
1530606722123985,-12,-10,-2,-3,-3,-2,2,-13
1530606722123985,-12,-4,-2,-1,-1,15,6,-18
1530606722136950,9,-1,-2,1,0,-12,-3,17
1530606722136950,-3,4,-2,2,2,8,-4,-12
1530606722143931,10,1,2,-3,1,-6,-13,4
1530606722143931,-4,2,-1,-6,-3,6,21,6
1530606722159888,0,-6,-2,1,-4,-17,-4,-13
1530606722159888,-23,-1,-4,4,3,14,4,-4
1530606722161883,-3,3,1,-5,-1,1,-19,-1
1530606722161883,6,-8,-3,8,1,-3,-11,2
1530606722173851,2,8,1,1,-2,-4,6,2
1530606722173851,10,1,1,-5,-7,-7,5,4
1530606722182827,3,0,-1,0,-1,3,3,-6
1530606722182827,-16,-4,-1,-4,-1,5,2,7
1530606722196789,-8,0,-1,-6,-1,-1,-4,-8
1530606722196789,7,-1,-2,-1,-4,3,-8,-4
1530606722205766,-14,-3,-2,3,2,0,17,-3
1530606722205766,17,1,2,-1,3,-5,-28,-9
1530606722220726,-5,-6,0,0,-1,2,8,14
1530606722220726,0,2,2,-1,-1,-4,-7,4
1530606722221723,6,0,-1,0,-3,2,7,-17
1530606722221723,-3,3,-1,-4,-3,1,5,19
1530606722233691,-11,-4,-2,4,0,-1,-8,-44
1530606722233691,12,1,2,4,3,-3,5,13
1530606722242667,-6,-2,-2,-3,-1,0,-8,2
1530606722242667,6,-1,-4,-8,-3,-9,4,1
1530606722256629,-4,0,3,7,4,0,5,11
1530606722256629,-9,-1,-1,1,2,19,-10,-5
1530606722265606,6,2,-1,0,-3,-12,-1,10
1530606722265606,8,2,-1,-10,-8,-1,-2,-8
1530606722280565,-11,-5,-3,9,7,7,7,4
1530606722280565,10,1,-2,1,2,-13,-1,3
1530606722281563,-19,1,1,-1,-2,-5,8,-3
1530606722281563,14,0,-1,4,-1,-5,-3,-2
1530606722293531,-3,1,-1,-8,-6,12,0,-23
1530606722293531,4,-3,0,1,-3,0,4,20
1530606722302507,10,-4,-2,-5,-2,-7,-15,-23
1530606722302507,-7,0,-1,6,4,-10,2,-1
1530606722316470,-12,1,0,-5,-1,4,-4,9
1530606722316470,-4,-3,1,-2,0,-4,12,-3
1530606722325446,3,-1,0,2,1,-3,6,5
1530606722325446,4,-1,-1,-1,-3,-1,5,-2
1530606722340406,4,-2,-2,-4,-4,-12,-5,5
1530606722340406,8,6,0,-3,0,4,-1,4
1530606722342400,-22,-6,-1,2,0,6,-9,1
1530606722342400,6,2,0,3,3,-3,1,-6
1530606722362347,11,2,0,1,-3,-5,2,11
1530606722362347,-3,0,1,3,6,6,-12,-5
1530606722364342,-3,-5,-4,-8,-6,-14,2,0
1530606722364342,-9,-1,0,8,0,1,-2,-2
1530606722376309,-1,0,-1,-7,-3,-1,6,12
1530606722376309,11,2,-1,-6,-3,3,-16,-4
1530606722385285,13,5,0,0,0,2,-1,15
1530606722385285,-6,-4,0,-3,-2,8,6,5
1530606722400245,-5,0,-3,-1,-3,-12,-17,-59
1530606722400245,-5,-9,-4,8,2,8,3,4
1530606722402240,1,2,0,-3,-3,4,19,4
1530606722402240,11,13,2,-2,3,-13,-25,20
1530606722423184,-5,-14,-3,-5,-5,9,9,24
1530606722423184,-1,0,-2,-1,-1,-7,-15,-29
1530606722424182,-9,-3,-4,1,-2,0,-1,-7
1530606722424182,-2,-1,-3,-1,3,0,11,-8
1530606722436149,-5,1,-1,-11,-7,17,-2,9
1530606722436149,9,2,-1,6,1,-6,3,-2
1530606722445125,7,1,1,5,3,14,-2,8
1530606722445125,-20,-8,-3,1,-4,-12,-2,-15
1530606722460085,4,1,-3,-8,-1,8,-2,3
1530606722460085,-18,-1,2,-5,-6,-44,1,10
1530606722462081,15,3,1,3,1,11,-9,-13
1530606722462081,-6,-8,-4,-1,-1,9,6,-8
1530606722483024,5,-4,-1,-1,3,-12,-15,13
1530606722483024,-6,0,0,0,-4,3,21,6
1530606722484021,6,0,1,4,2,-1,-1,-9
1530606722484021,-12,0,-1,-3,-3,-2,-2,-8
1530606722495989,5,-1,-1,1,-1,-1,12,10
1530606722495989,-17,-4,-1,-3,-1,-2,-3,-3
1530606722505963,5,-3,0,1,0,-4,-7,11
1530606722505963,10,0,-3,-2,-2,-3,8,10
1530606722519925,0,0,0,3,-2,8,1,-24
1530606722519925,4,3,0,-4,0,6,-1,14
1530606722521920,1,-4,-3,-1,-5,-20,10,9
1530606722521920,13,-3,1,1,1,2,-3,7
1530606722542864,-17,7,1,6,1,4,0,3
1530606722542864,-7,-12,-2,-1,1,-23,0,-5
1530606722544859,11,2,0,-1,0,11,-7,-10
1530606722544859,-8,2,-2,-5,-1,-7,-6,1
1530606722556826,4,-2,-4,-5,-4,-1,-3,2
1530606722556826,1,2,-1,1,-3,17,-9,-7
1530606722565803,-9,-1,-1,0,1,1,14,2
1530606722565803,7,-1,0,-1,-1,1,-2,8
1530606722580762,8,3,0,-2,0,-12,3,-2
1530606722580762,-14,0,-1,-5,-3,4,-6,-14
1530606722581761,4,0,1,2,1,-1,-8,1
1530606722581761,-28,-2,-1,-2,-2,6,3,-10
1530606722602704,9,-3,-2,1,-1,-9,-5,13
1530606722602704,-2,-3,-1,-1,1,7,3,3
1530606722604699,3,2,-1,-2,-2,7,12,2
1530606722604699,6,4,0,0,-3,-6,-11,-2
1530606722616667,-19,-7,0,0,2,-11,-4,-7
1530606722616667,7,3,0,-2,-1,6,2,-3
1530606722625643,0,3,0,-3,0,6,-7,-2
1530606722625643,13,-9,-1,-3,-3,-8,2,3
1530606722640603,-6,0,2,6,6,-5,6,2
1530606722640603,5,0,0,-3,-3,0,-14,-11
1530606722641600,-9,0,-4,-2,-3,-5,-3,14
1530606722641600,-1,5,2,1,-1,8,3,-5
1530606722662544,11,-9,-3,-1,0,-5,-1,-2
1530606722662544,-15,1,-3,4,1,9,7,-9
1530606722664539,12,2,4,0,1,8,-14,13
1530606722664539,-9,-1,-2,-2,-3,-24,1,-10
1530606722676506,7,0,-1,-1,-2,11,-1,-13
1530606722676506,4,1,-1,-2,-1,2,2,5
1530606722685483,-10,-5,-4,-5,-3,-2,-4,-5
1530606722685483,9,-3,-2,1,2,-6,1,6
1530606722700442,-9,2,0,0,-1,1,4,3
1530606722700442,9,-3,0,-1,-3,5,5,4
1530606722702438,-16,-6,-2,0,-2,-11,-20,-16
1530606722702438,3,2,2,2,1,9,3,7
1530606722722384,-10,-1,-2,1,0,-2,-6,-26
1530606722722384,6,5,-1,-2,-1,2,-1,6
1530606722724379,-6,-3,0,0,-3,-2,2,7
1530606722724379,-9,-10,-1,1,2,11,3,-8
1530606722736346,-7,4,0,-3,-5,-6,-3,-4
1530606722736346,32,11,1,-3,0,-7,-2,4
1530606722745323,-35,-22,-4,0,-2,0,1,-1
1530606722745323,1,0,-3,-2,-1,-1,-3,-9
1530606722760282,15,3,1,3,4,7,1,16
1530606722760282,-3,-2,-2,-5,-3,-1,0,-6
1530606722762277,-2,5,-2,0,0,-1,16,0
1530606722762277,5,-4,-2,1,-1,-3,-34,-2
1530606722783221,1,0,-3,-6,-2,4,3,4
1530606722783221,5,2,1,4,-1,-3,-1,8
1530606722784219,4,-1,-3,-3,0,-2,-7,-13
1530606722784219,-3,0,0,9,4,-9,21,-19
1530606722796186,-7,3,2,-1,-1,11,11,0
1530606722796186,3,-6,-4,0,-1,3,-18,5
1530606722805163,8,8,0,-3,-2,-20,4,18
1530606722805163,-2,-3,-1,-6,-2,7,-1,-11
1530606722820122,0,0,0,3,0,-6,-7,0
1530606722820122,-14,-3,-1,7,4,6,13,1
1530606722822117,11,0,0,0,-5,0,-7,1
1530606722822117,9,7,-3,-3,1,3,1,8
1530606722843061,-1,-1,-1,0,-1,-5,4,4
1530606722843061,-12,-6,-2,-8,-2,11,-4,-5
1530606722844059,2,-4,0,-2,0,-36,-1,0
1530606722844059,-7,2,0,5,-2,-2,7,-3
1530606722856026,3,-2,-1,-3,-3,-3,-19,-5
1530606722856026,-5,-2,-4,-6,-12,-4,0,-2
1530606722865003,-9,2,2,1,5,8,-3,-5
1530606722865003,0,-3,1,1,-1,8,7,10
1530606722879962,15,0,0,3,1,-3,2,4
1530606722879962,0,-6,-3,-2,-1,-5,-4,-6
1530606722881958,-21,0,0,-6,-3,12,1,-1
1530606722881958,7,7,0,-3,-2,-5,-3,4
1530606722902901,-20,-11,-4,1,0,-1,1,12
1530606722902901,-3,-4,2,-1,0,-6,-3,-23
1530606722904896,21,11,1,4,-1,15,-7,-3
1530606722904896,-4,-14,-1,-1,-3,-4,8,3
1530606722916864,-3,1,-3,-3,-3,-8,-3,3
1530606722916864,-6,0,2,1,6,4,15,5
1530606722925840,12,0,-1,1,1,-5,-31,-2
1530606722925840,-13,-1,-1,-5,-4,3,-8,-2
1530606722940800,-2,2,-1,0,5,6,3,-7
1530606722940800,-7,-4,-2,-1,-3,1,1,5
1530606722941798,5,1,-2,-1,-2,-23,3,-7
1530606722941798,11,4,3,-6,-4,6,-1,15
1530606722962741,-5,-7,-3,3,2,-2,2,-3
1530606722962741,-5,4,0,3,0,-7,-1,3
1530606722964736,-2,-4,-3,-3,-3,11,7,-1
1530606722964736,0,-2,-3,-4,-2,0,-7,0
1530606722976704,2,1,4,-2,-2,-7,10,5
1530606722976704,8,4,2,1,1,0,-8,-2
1530606722985680,-4,-5,-4,-1,0,3,3,-8
1530606722985680,-3,2,1,-8,-2,-1,2,6
1530606723000640,5,-2,-1,10,1,7,-5,0
1530606723000640,13,7,-1,1,-1,-4,-5,4
1530606723001637,-26,-20,0,-1,-2,2,3,3
1530606723001637,10,2,-1,-2,3,3,-3,-1
1530606723022581,-6,2,-2,-7,-4,-7,-4,-37
1530606723022581,-18,-1,-3,-2,-3,-7,-3,4
1530606723024576,12,7,0,0,0,0,7,4
1530606723024576,4,-1,0,7,3,17,6,2
1530606723036544,11,-1,0,-4,-2,-20,-5,18
1530606723036544,-10,-3,-1,-5,-5,3,-2,-11
1530606723045520,6,5,-3,6,5,19,-1,-6
1530606723045520,-12,-9,-5,-1,-1,-18,-3,-6
1530606723060480,5,9,0,-1,-1,10,4,8
1530606723060480,0,-3,-2,-3,-2,-3,-1,-1
1530606723061477,4,-6,0,0,-1,8,20,7
1530606723061477,-4,0,-2,0,-3,9,-36,-10
1530606723082421,0,-2,-2,-1,-1,-11,5,0
1530606723082421,-30,-7,-2,0,2,-9,-13,-6
1530606723084416,9,5,1,-5,-3,12,4,-3
1530606723084416,-10,1,0,-2,-5,-1,11,14
1530606723096384,14,1,1,7,3,-1,-1,-20
1530606723096384,11,-2,-1,-2,-1,3,4,4
1530606723105360,-15,0,2,4,0,-5,-1,-3
1530606723105360,11,-1,-3,-7,-2,-8,4,0
1530606723120320,-2,-1,-1,-4,-2,2,-5,7
1530606723120320,-1,-1,3,1,1,2,1,-2
1530606723123312,-10,-1,-3,-2,0,-6,-7,-13
1530606723123312,7,3,0,2,0,0,4,17
1530606723143258,-10,-5,-4,-6,-4,-1,4,-12
1530606723143258,14,0,-4,-2,1,-3,1,0
1530606723144256,-1,1,0,-7,-3,-10,-3,0
1530606723144256,-6,-2,0,12,5,16,5,-2
1530606723156223,3,1,-1,-5,-5,4,-4,-1
1530606723156223,-9,-1,0,3,2,1,1,2
1530606723165200,6,0,1,1,-3,-6,-3,-5
1530606723165200,12,-2,-5,-2,2,3,4,2
1530606723180159,-23,-3,-1,-2,-5,-1,-10,-2
1530606723180159,13,-1,0,-2,3,14,9,6
1530606723182155,-10,0,-1,-1,-4,-26,0,-1
1530606723182155,4,0,2,8,5,-4,-11,-15
1530606723203098,0,2,0,-1,1,12,1,18
1530606723203098,13,-6,-3,-5,-5,-15,-5,-3
1530606723204096,-10,5,1,-1,-1,20,8,11
1530606723204096,-7,-7,-4,-5,-3,-19,-3,-12
1530606723216064,4,5,-2,-2,-3,-3,10,8
1530606723216064,-12,-4,-1,2,-3,-4,0,0
1530606723225040,14,-1,-1,-2,2,0,-6,15
1530606723225040,-3,4,0,-4,-3,2,-1,-34
1530606723240000,1,-5,-2,0,2,4,-5,11
1530606723240000,18,2,0,3,0,4,4,0
1530606723245984,-36,-5,-2,-2,-3,-11,-2,-13
1530606723245984,5,4,1,-4,-6,26,-1,27
1530606723262938,-6,-6,-3,3,4,-6,1,-25
1530606723262938,-7,0,-2,10,1,-10,2,-4
1530606723264933,27,0,1,1,2,5,-3,9
1530606723264933,-7,0,-1,-2,0,-3,-1,-7
1530606723276901,-3,1,-3,-7,-5,6,-3,5
1530606723276901,0,-1,0,-8,-7,2,-5,2
1530606723285877,1,-2,-1,7,3,4,-1,-9
1530606723285877,0,2,0,5,-2,-5,24,2
1530606723299839,-3,-5,-1,-1,2,-9,-37,-4
1530606723299839,4,2,-1,-8,-6,-3,10,12
1530606723306821,-11,-11,-4,-3,-8,-4,-13,-31
1530606723306821,6,-1,0,-2,1,-2,12,1
1530606723322778,-2,0,0,0,-1,-2,9,-2
1530606723322778,-3,3,1,3,1,8,-3,9
1530606723324773,2,2,-1,-4,-4,-5,-2,10
1530606723324773,-6,-2,-1,-4,-2,2,3,-3
1530606723345717,2,0,0,9,6,18,0,-8
1530606723345717,-9,-5,-4,-12,-9,-47,-19,5
1530606723346715,0,1,-1,13,4,5,4,-14
1530606723346715,-5,-1,1,-1,1,-12,-3,17
1530606723359680,0,1,0,-8,-4,1,8,8
1530606723359680,22,4,5,11,5,20,-3,-7
1530606723366661,-23,-6,-3,1,3,3,0,6
1530606723366661,-2,0,-2,6,4,1,-5,-1
1530606723382618,6,-1,-1,-2,-3,-1,-3,-17
1530606723382618,-21,-5,-3,-7,-4,11,17,9
1530606723384613,25,2,-1,-4,-3,-18,-16,9
1530606723384613,2,1,-1,-2,-2,-4,-19,-2
1530606723405557,-1,-2,0,-1,-3,-1,6,3
1530606723405557,-4,-1,0,1,2,2,-10,-10
1530606723406554,0,1,1,-4,-1,10,20,5
1530606723406554,-8,-16,-3,-3,0,-4,3,9
1530606723419519,-1,0,0,-1,1,-13,-2,-3
1530606723419519,-14,1,1,6,3,9,-1,-20
1530606723426501,4,-1,-1,-1,-1,5,-2,-2
1530606723426501,6,2,-1,-5,-6,-37,-1,2
1530606723442458,4,0,-1,-2,-3,-4,4,6
1530606723442458,6,-4,-3,-6,-4,17,5,-5
1530606723444453,1,0,-1,5,2,7,-2,0
1530606723444453,-6,-4,-1,-4,-4,4,-7,-17
1530606723465397,6,2,0,3,0,-5,3,30
1530606723465397,-24,0,-3,-3,-2,-7,-6,-30
1530606723467392,22,2,0,1,-4,-9,-4,8
1530606723467392,-5,-3,-1,3,5,17,9,13
1530606723479359,-7,0,-1,-1,-1,-15,5,-25
1530606723479359,7,2,-1,-1,0,-3,-12,2
1530606723486341,15,1,-2,-3,-4,7,16,12
1530606723486341,-50,-4,-2,2,-2,-2,7,-16
1530606723503295,2,-1,2,1,-1,6,-2,5
1530606723503295,5,-3,-2,0,1,-4,-31,5
1530606723504293,6,-1,-4,-6,-3,-3,-3,-5
1530606723504293,10,5,1,-5,-4,-5,3,2
1530606723525237,7,0,-1,1,1,3,14,-9
1530606723525237,-21,-1,0,3,3,8,7,-5
1530606723527232,-9,-3,-3,-2,0,-29,-6,-2
1530606723527232,13,2,1,3,0,5,-6,3
1530606723539199,-3,-1,-2,-6,-3,1,-7,-8
1530606723539199,26,2,1,-2,-1,-4,6,20
1530606723546181,-25,-2,1,1,2,5,-2,-7
1530606723546181,-8,-2,-3,-2,-1,-12,-1,-4
1530606723563135,0,-2,-1,-4,-5,16,-4,7
1530606723563135,7,1,1,13,5,-9,4,12
1530606723564133,-12,3,0,-3,-2,10,-3,-21
1530606723564133,5,-2,-3,-3,-2,11,-7,-7
1530606723585077,2,0,-2,-3,-6,-20,-7,9
1530606723585077,3,-3,-1,-4,4,-4,7,4
1530606723587072,1,-2,0,-4,-1,7,-4,8
1530606723587072,11,0,2,4,5,1,10,-8
1530606723599039,-2,1,0,8,1,-8,-3,1
1530606723599039,2,0,-3,-4,-7,-6,17,5
1530606723608016,3,-4,-2,-1,1,-7,-8,1
1530606723608016,-2,4,-1,-6,-3,2,-7,0
1530606723622975,-12,-8,-2,-1,0,5,0,-4
1530606723622975,2,-3,-1,-3,-2,0,-3,-5
1530606723624970,12,4,2,-8,-1,13,10,3
1530606723624970,-10,1,-1,6,-1,-5,-12,-13
1530606723644917,17,3,1,4,3,13,17,23
1530606723644917,-6,-1,0,-3,-2,-24,-30,11
1530606723646912,-7,-4,-4,-7,-6,10,3,-36
1530606723646912,-1,-3,0,0,0,2,0,-3
1530606723658879,1,-2,-1,1,-3,-6,0,-7
1530606723658879,3,0,0,14,4,12,8,1
1530606723667856,-7,0,0,0,1,-13,-4,13
1530606723667856,10,4,-2,-6,-6,13,-4,0
1530606723682815,-17,-7,-2,-6,-3,0,2,-13
1530606723682815,-1,-1,-3,-5,-1,7,-2,-10
1530606723684810,2,2,1,5,3,-21,4,15
1530606723684810,-9,0,0,5,-1,-3,5,-2
1530606723705754,4,-3,0,-4,-1,4,-9,0
1530606723705754,1,-1,0,-4,-3,5,0,-7
1530606723706752,2,-1,-1,-1,-1,-2,-6,0
1530606723706752,5,-6,0,-1,0,1,-5,9
1530606723718719,3,3,-1,-1,-1,-3,-4,4
1530606723718719,-17,-6,0,-1,1,-7,1,-10
1530606723727695,8,-1,-3,-2,-2,16,1,-3
1530606723727695,-2,-2,-3,-7,-4,9,1,1
1530606723742655,2,2,2,4,1,-26,-2,-4
1530606723742655,5,3,-1,-1,-1,2,6,5
1530606723744650,2,0,-1,0,0,3,-5,10
1530606723744650,4,-3,-1,-3,1,0,-5,-11
1530606723765594,-11,-1,-2,-3,0,4,3,0
1530606723765594,-3,2,-1,-4,-2,4,6,8
1530606723766592,4,0,2,2,-2,-4,-2,1
1530606723766592,-5,0,1,0,-2,-9,1,-4
1530606723778559,4,0,-2,1,-1,6,-3,1
1530606723778559,0,1,-1,-2,-1,-5,1,-2
1530606723787535,-9,-9,-4,-2,-3,4,-4,4
1530606723787535,3,6,2,3,0,-17,0,5
1530606723802495,-7,-1,2,1,4,16,10,-5
1530606723802495,3,-1,-1,-5,-3,-9,-29,-9
1530606723804490,2,2,0,2,2,6,8,9
1530606723804490,7,-5,-2,-6,-1,-4,-9,-10
1530606723825434,-4,0,-4,-6,-3,-1,-4,0
1530606723825434,1,2,1,4,1,4,6,-6
1530606723827429,9,-3,2,-1,1,6,3,3
1530606723827429,-22,1,-1,0,-4,13,-5,5
1530606723839396,23,-5,-2,-1,4,-22,-5,4
1530606723839396,-13,1,-3,-2,-3,-4,5,-9
1530606723848373,-12,2,0,0,0,-4,-6,-6
1530606723848373,17,0,0,1,-2,6,14,10
1530606723863333,-9,-10,-4,0,0,2,0,-3
1530606723863333,12,2,-2,-6,-3,-5,-11,0
1530606723864330,1,3,0,4,1,-2,-1,-10
1530606723864330,-10,1,-1,-4,0,-7,-3,-1
1530606723885274,1,0,-1,4,0,4,-2,19
1530606723885274,-4,-4,-2,4,3,2,7,-28
1530606723887269,-3,0,-2,-2,-3,1,-2,1
1530606723887269,3,-5,-4,-5,0,-10,-2,-9
1530606723899236,-1,2,2,0,0,13,-12,-2
1530606723899236,-4,-2,-1,-4,-4,-13,17,13
1530606723908213,-5,-5,-1,-3,-1,-18,-1,0
1530606723908213,0,-2,-2,4,1,0,7,5
1530606723923172,-9,2,1,1,-1,1,-4,-8
1530606723923172,9,3,-1,0,-1,7,-1,4
1530606723924170,1,-4,-1,-1,-1,-2,3,-3
1530606723924170,1,1,-1,-2,0,-8,-11,-7
1530606723945114,9,2,-3,-2,-4,2,0,5
1530606723945114,-29,-6,1,0,-1,6,-2,-4
1530606723947109,6,6,1,1,-1,5,5,3
1530606723947109,3,1,1,2,-1,-13,8,1
1530606723959077,-11,-1,-3,-1,0,-5,-14,-10
1530606723959077,11,-1,0,2,-1,3,4,3
1530606723968053,0,0,0,-5,-6,3,-1,-6
1530606723968053,2,2,1,9,7,5,4,0
1530606723983013,-6,-9,-2,-4,-4,-1,12,-9
1530606723983013,1,-4,-1,-2,1,-2,-20,20
1530606723984010,-2,-3,-2,7,0,6,-5,-38
1530606723984010,-3,2,0,-4,-5,-7,-5,5
1530606724004954,5,2,0,-2,0,-3,4,5
1530606724004954,22,2,-1,-5,-1,2,3,3
1530606724006949,-25,-5,-1,-4,0,5,-7,10
1530606724006949,6,0,-1,0,-1,5,10,-23
1530606724018916,-21,5,-1,1,-1,4,-7,-3
1530606724018916,-5,-3,0,-2,-3,3,5,0
1530606724027893,-5,-1,-3,-2,0,-11,-7,-1
1530606724027893,1,-8,-2,-3,1,3,-2,9
1530606724042852,11,4,3,-1,-2,-2,5,3
1530606724042852,4,2,-1,5,2,-3,-3,-10
1530606724044847,-14,-3,-1,1,-1,18,0,-4
1530606724044847,1,0,-4,-6,-4,-14,-8,4
1530606724065791,-18,-13,-1,1,-1,-3,3,-7
1530606724065791,-5,3,0,-3,0,4,0,5
1530606724066788,27,1,0,-1,1,-2,16,10
1530606724066788,2,-2,-1,-3,-1,-1,-33,-10
1530606724078756,6,6,-1,-1,2,-4,-3,8
1530606724078756,-3,-1,-1,1,0,-2,-4,-12
1530606724087733,-6,-4,0,-2,0,-9,11,4
1530606724087733,4,0,-1,2,0,7,5,11
1530606724102693,-3,-5,-2,-2,-4,-5,-10,1
1530606724102693,-8,-1,0,-3,9,-1,15,1
1530606724104687,8,0,-3,6,3,-1,-8,4
1530606724104687,-10,1,-1,-4,-3,2,3,-19
1530606724125631,7,1,3,6,0,0,-2,4
1530606724125631,7,-2,-2,-6,-5,-4,4,-1
1530606724126629,-3,-1,-1,-8,-4,-14,-10,1
1530606724126629,-4,0,0,8,9,3,4,12
1530606724138596,-3,-1,-3,-1,-2,18,0,-12
1530606724138596,0,-2,2,7,2,-57,-13,-3
1530606724147573,11,6,1,-3,-2,22,12,8
1530606724147573,2,-5,0,-4,-7,1,-3,-1
1530606724162532,-23,-1,1,-4,-3,-2,-3,4
1530606724162532,14,5,-3,1,-1,14,1,-11
1530606724164527,-18,-11,-3,-2,-3,-14,-4,-3
1530606724164527,-14,0,0,-2,2,6,7,-5
1530606724185471,11,0,0,3,3,0,-12,9
1530606724185471,4,-2,-2,-2,-3,9,-4,8
1530606724187466,-21,3,-1,1,-1,-10,12,-20
1530606724187466,3,0,-3,-4,-4,9,10,-15
1530606724199433,12,-1,-3,-2,1,-4,5,3
1530606724199433,0,-2,-1,2,-3,7,-5,14
1530606724208410,0,-1,1,-2,1,2,-3,13
1530606724208410,-5,-2,0,2,-1,18,-14,1
1530606724222372,-6,-6,-4,2,-1,-29,-1,-13
1530606724222372,2,-1,-3,-2,-1,9,2,-6
1530606724224368,-1,-1,-3,-5,0,9,-2,11
1530606724224368,7,6,1,6,-1,-26,-1,-1
1530606724245311,10,-2,1,0,5,-3,-1,2
1530606724245311,-15,-3,0,-3,-3,12,6,-6
1530606724247306,5,2,1,-4,-3,1,2,2
1530606724247306,2,-1,-2,-1,-1,-4,-8,21
1530606724268250,20,1,1,4,2,3,5,-24
1530606724268250,-29,-4,-2,-1,-2,-8,-3,0
1530606724269247,5,3,1,0,3,17,-4,-2
1530606724269247,-4,-5,-4,-5,-4,-21,19,-6
1530606724283210,5,4,-1,-3,-4,-8,-26,17
1530606724283210,-2,-1,-2,2,1,9,-1,-14
1530606724284207,21,0,-3,3,2,-3,-14,6
1530606724284207,-14,-2,-1,1,-4,10,9,-4
1530606724305151,4,0,-3,-5,-2,-1,9,2
1530606724305151,1,1,0,0,0,2,-4,-4
1530606724307146,-15,-1,-1,-2,0,-4,-5,2
1530606724307146,10,0,-1,0,0,-4,-1,13
1530606724328089,-5,1,-1,-3,0,29,0,-10
1530606724328089,0,-4,-2,-1,-3,-4,2,-2
1530606724329087,3,1,1,5,0,-19,-1,-2
1530606724329087,-14,-4,0,-4,-1,4,-2,11
1530606724342052,3,1,-1,-4,-5,8,1,-13
1530606724342052,-8,-6,-2,-3,2,-4,1,-13
1530606724349034,-6,-1,-2,-6,-3,20,-5,-8
1530606724349034,-1,3,0,-1,-1,1,-10,0
1530606724364991,0,0,0,3,-3,-11,12,10
1530606724364991,-4,-4,-3,1,0,-5,-1,6
1530606724366986,19,-2,0,2,0,-11,5,-10
1530606724366986,-11,-3,-2,1,4,-1,-48,-7
1530606724387930,-3,5,-2,-3,-1,3,8,9
1530606724387930,3,-3,-3,-5,-6,-4,-3,-3
1530606724389925,-1,0,1,0,1,5,2,3
1530606724389925,9,2,0,-2,-2,-7,13,-8
1530606724401892,-16,-4,-4,-5,-3,-5,-11,-1
1530606724401892,20,3,0,1,3,8,1,10
1530606724408873,-14,-2,-3,1,-2,-11,4,-5
1530606724408873,-4,-5,1,0,2,-10,-13,2
1530606724424831,-5,3,3,-1,-2,0,1,-13
1530606724424831,6,2,1,5,0,4,2,13
1530606724426826,-1,-4,-2,1,2,6,2,-9
1530606724426826,3,0,-2,1,-2,-5,4,8
1530606724447770,11,0,-1,0,0,11,-4,1
1530606724447770,-10,-1,1,-5,-3,5,0,-1
1530606724449764,-11,-2,-2,-3,-5,-8,-3,-7
1530606724449764,-1,-1,-1,-6,-2,2,7,3
1530606724461732,-2,-1,0,-2,0,-6,3,2
1530606724461732,-8,-7,0,8,0,-4,-1,0
1530606724468714,3,5,0,-2,-3,0,6,-2
1530606724468714,18,1,0,-3,0,-4,-12,-3
1530606724485668,-15,-8,-2,5,5,2,-18,-1
1530606724485668,-3,3,-3,-7,-6,-8,4,3
1530606724486666,-5,-3,-1,3,0,-2,-10,6
1530606724486666,12,0,-1,-1,0,12,18,6
1530606724507610,3,6,3,-2,-1,5,4,-6
1530606724507610,-11,1,0,0,-1,5,-5,-9
1530606724509605,-3,-8,-3,-2,-3,-23,-12,-2
1530606724509605,3,4,1,7,2,11,11,7
1530606724522569,-12,-5,-3,-1,-3,-22,-13,-20
1530606724522569,12,2,-3,-2,3,5,2,8
1530606724528554,5,6,0,-1,0,-1,9,-8
1530606724528554,9,-6,-2,-1,-9,2,-7,-5
1530606724545508,-10,1,1,0,-2,-5,21,2
1530606724545508,-3,2,1,-4,-1,-7,-2,8
1530606724546506,13,-4,-1,0,1,15,-6,-31
1530606724546506,-12,-1,-1,-1,1,-5,1,13
1530606724567449,7,1,-1,1,-1,3,3,6
1530606724567449,2,1,-1,-1,-2,-9,-2,-14
1530606724569444,-5,0,0,-1,-1,-5,-3,18
1530606724569444,0,-2,-1,0,1,3,5,-15
1530606724581412,-15,1,-1,-2,0,-2,0,-2
1530606724581412,11,-3,-1,-3,-1,-3,-2,15
1530606724590389,4,1,-2,2,2,-1,-2,0
1530606724590389,-16,-5,-3,-15,-5,8,3,-13
1530606724605348,6,3,0,11,4,-4,-7,2
1530606724605348,-14,-13,1,8,3,11,1,0
1530606724607343,4,3,2,-3,-3,-25,1,13
1530606724607343,-1,5,-1,-1,0,9,13,-13
1530606724628287,4,-1,-2,-7,-6,-12,-15,2
1530606724628287,-9,-5,-2,-2,0,-3,3,-15
1530606724629284,-2,1,1,1,2,7,1,3
1530606724629284,9,-3,-1,-5,1,-2,2,4
1530606724641252,18,-1,0,-2,-5,3,-2,4
1530606724641252,-32,4,0,5,5,4,4,4
1530606724650228,-3,-8,-3,0,1,0,-5,-24
1530606724650228,-2,-4,-2,3,2,-10,3,8
1530606724665188,-8,1,1,-2,-1,3,10,-5
1530606724665188,31,4,2,-4,-6,11,-13,17
1530606724667183,-4,-5,-4,1,2,8,3,9
1530606724667183,-16,2,0,1,0,-7,-1,-17
1530606724688127,7,-2,-1,0,0,-2,0,11
1530606724688127,-8,2,-1,-4,-3,-6,-2,-9
1530606724689124,0,-1,-1,-4,-2,-1,0,16
1530606724689124,12,-1,-1,3,-1,5,-4,-4
1530606724701092,-13,-4,-3,-6,-6,-6,-5,0
1530606724701092,-2,-2,-1,0,5,16,4,-6
1530606724710068,7,3,-2,-2,-7,-26,-1,-2
1530606724710068,-7,-3,-1,3,0,-10,-5,8
1530606724725028,2,-3,0,1,2,11,6,-13
1530606724725028,1,-1,-4,-5,-4,-7,-1,3
1530606724727023,6,0,-4,-2,1,8,-4,-7
1530606724727023,-10,2,0,-4,-4,-2,-5,-5
1530606724747967,10,-2,1,10,4,6,7,13
1530606724747967,3,-2,-2,-3,-3,-3,1,0
1530606724749962,-38,-3,0,-4,-1,4,-10,-10
1530606724749962,-2,4,0,-5,-3,-3,2,-3
1530606724761929,-3,2,0,2,2,-2,-2,-2
1530606724761929,26,6,-2,-2,-6,-10,0,2
1530606724770906,-22,-11,-1,0,1,-2,14,-19
1530606724770906,6,-1,-1,2,0,0,-39,13
1530606724784868,-3,3,-3,-3,-1,-5,9,-9
1530606724784868,10,7,0,0,-1,-1,-6,-1
1530606724786863,-2,2,0,-2,-2,2,4,9
1530606724786863,1,-5,0,-4,-1,12,8,2
1530606724807807,-4,-2,-2,2,-3,-9,-8,-10
1530606724807807,0,-4,3,10,11,0,7,12
1530606724809802,-3,1,-2,-2,-3,19,-5,4
1530606724809802,9,-6,-3,-1,0,-21,11,-4
1530606724821769,-9,-1,-1,-5,-2,5,-9,5
1530606724821769,-5,-1,1,-1,-2,12,5,-9
1530606724830746,2,0,0,1,-2,-10,-8,-2
1530606724830746,3,4,2,6,4,9,2,5
1530606724845705,-4,-4,-3,-4,-1,1,4,-7
1530606724845705,7,2,2,-1,-3,-6,-5,-3
1530606724846703,-17,1,-2,-6,-1,0,-5,-13
1530606724846703,5,-2,1,1,-4,-4,2,6
1530606724867647,-9,-3,-2,1,1,2,3,5
1530606724867647,-3,3,1,-1,-1,-8,-3,3
1530606724869641,26,8,1,6,0,7,3,14
1530606724869641,8,-4,-3,-2,-1,0,-5,-12
1530606724881609,-29,-1,-3,-5,1,-14,8,9
1530606724881609,-4,1,0,-7,-3,-1,-1,-5
1530606724890586,15,2,-3,3,-2,5,-8,-1
1530606724890586,-11,-3,-2,-1,-2,2,-1,-4
1530606724905545,9,2,1,3,0,0,6,-5
1530606724905545,-7,-9,-3,-6,-5,-16,-16,-3
1530606724906543,-6,-1,2,0,0,-4,5,2
1530606724906543,-6,-3,-2,3,-1,2,6,5
1530606724927487,24,0,0,-1,0,6,-8,-5
1530606724927487,-15,5,-1,3,-2,9,4,-12
1530606724929482,-4,-22,-5,-4,-1,-14,-8,-6
1530606724929482,-27,8,2,2,2,5,2,-11
1530606724941449,13,-2,-2,-3,-3,-15,9,7
1530606724941449,0,-2,-3,6,1,5,-3,-5
1530606724950425,16,0,0,-4,1,3,-2,6
1530606724950425,4,-1,0,-1,-1,-1,7,4
1530606724965385,-25,-5,0,-1,0,0,-10,-35
1530606724965385,6,0,-1,-1,0,14,1,4
1530606724967381,6,6,-2,-2,-2,-16,0,13
1530606724967381,-6,-4,0,2,0,-5,-4,-4
1530606724988324,23,10,2,-1,-1,3,9,14
1530606724988324,-9,-14,-4,-2,-2,-10,10,0
1530606724989321,-14,2,-1,-1,-1,1,-7,-4
1530606724989321,9,1,-4,-6,-2,0,-9,10
1530606725001289,7,1,-1,4,1,4,2,4
1530606725001289,-11,-2,0,-8,-5,1,3,-7
1530606725010265,-7,-3,0,2,3,7,12,-10
1530606725010265,1,0,-1,11,-2,-18,-24,0
1530606725025225,-12,-6,-5,-3,0,6,-4,0
1530606725025225,2,2,-3,1,-2,-7,0,-5
1530606725027220,3,1,-2,0,-3,3,1,7
1530606725027220,0,1,-2,-5,-1,10,9,-5
1530606725048164,-21,-8,-1,-3,-2,1,0,-3
1530606725048164,17,1,1,1,1,-2,-6,-9
1530606725049162,-10,4,1,0,-2,4,-5,-1
1530606725049162,-14,3,0,-1,-1,2,1,7
1530606725061129,11,-4,0,0,-1,-2,-4,-3
1530606725061129,6,-5,0,-1,-1,-4,5,7
1530606725070105,19,6,-1,-4,1,16,-2,-9
1530606725070105,-11,0,-1,0,-1,-26,5,-3
1530606725085065,-4,-2,-1,-3,-2,-2,3,10
1530606725085065,6,6,2,6,1,1,-1,1
1530606725091049,-1,-6,-1,5,1,-1,1,4
1530606725091049,13,-1,-1,-3,-2,14,0,-4
1530606725108004,11,4,0,-4,-3,1,1,5
1530606725108004,-15,-12,-4,-1,-2,-15,-5,-1
1530606725109001,-4,-1,-4,-6,-2,4,16,20
1530606725109001,1,-1,0,4,3,-5,-32,-22
1530606725121968,1,1,0,0,0,-4,-4,3
1530606725121968,-4,5,0,-6,-4,-5,0,-5
1530606725130943,-11,-5,-1,8,-1,-8,-2,-4
1530606725130943,14,-2,-1,-1,0,2,10,4
1530606725144905,5,1,0,-2,0,8,-1,9
1530606725144905,-7,1,-2,-3,-1,-2,-9,-5
1530606725151886,7,6,2,-1,0,-3,5,-3
1530606725151886,-12,-1,-1,-4,0,2,5,-5
1530606725175822,3,1,0,3,2,4,-7,7
1530606725175822,-3,-1,-1,-2,-3,-19,0,12
1530606725176821,-6,0,0,0,-1,-4,-4,-13
1530606725176821,15,-5,-1,-4,-4,0,11,19
1530606725190782,-4,4,0,-2,1,4,-5,-2
1530606725190782,-5,-5,-1,8,3,6,-3,-18
1530606725191780,13,7,3,-3,0,-7,-1,4
1530606725191780,-11,2,-3,-2,-6,16,4,-4
1530606725204745,-4,1,0,0,0,-5,-2,6
1530606725204745,8,5,1,-3,2,4,9,4
1530606725211726,-8,-7,0,-1,-2,11,9,-8
1530606725211726,-11,1,-2,-1,1,-16,-37,5
1530606725227684,-2,-3,-2,-1,-1,-17,2,-10
1530606725227684,16,5,-2,-3,-4,2,-2,10
1530606725229679,0,-3,-2,1,4,4,-13,9
1530606725229679,8,-1,0,-4,1,10,14,-19
1530606725250622,12,0,-2,1,-4,-14,-8,-13
1530606725250622,-46,-13,-6,-11,-7,19,-1,-10
1530606725251620,25,5,3,7,-2,-37,-1,16
1530606725251620,-1,-7,-1,-1,-1,-5,6,1
1530606725265582,-10,0,1,0,0,11,-5,-12
1530606725265582,6,3,0,0,0,1,1,9
1530606725271566,1,-1,-2,-7,-6,4,-2,-19
1530606725271566,1,-3,-2,0,-2,-7,-4,6
1530606725287524,0,-1,1,-4,0,-4,6,3
1530606725287524,3,-5,-1,-3,-2,-11,-3,4
1530606725289519,-17,-1,-3,-3,2,13,-15,-5
1530606725289519,9,2,2,3,1,-4,9,4
1530606725310462,-13,-3,-2,0,-5,18,6,-6
1530606725310462,5,3,0,1,3,-14,-6,3
1530606725312457,10,-2,-2,-5,-1,4,-3,1
1530606725312457,-12,1,1,-3,-1,2,24,15
1530606725324425,-1,-3,0,-1,-5,-7,-13,-34
1530606725324425,-12,-6,-4,2,1,3,-2,-5
1530606725331406,5,0,-2,-4,-3,11,4,10
1530606725331406,19,7,0,1,0,-2,0,4
1530606725347364,-11,-11,-3,3,5,6,12,15
1530606725347364,22,9,0,-1,1,1,-9,-3
1530606725349359,-15,-13,-3,-2,0,0,-5,-15
1530606725349359,-4,-1,-1,-2,-1,0,3,4
1530606725370302,-11,0,1,0,1,12,8,1
1530606725370302,5,1,0,5,1,-2,-8,-1
1530606725372297,2,2,-1,-5,-5,-3,3,1
1530606725372297,8,0,0,2,1,1,-4,-11
1530606725384265,5,1,0,0,3,-9,-2,10
1530606725384265,-20,-3,0,-3,1,-1,3,-5
1530606725391247,-4,4,1,6,3,18,2,-1
1530606725391247,-7,-10,-4,-9,-5,-18,-6,1
1530606725408201,10,1,-2,-4,-4,-6,12,-7
1530606725408201,-13,-4,1,2,-2,-2,4,-2
1530606725409199,3,2,2,2,2,-1,6,10
1530606725409199,-5,1,-2,-2,5,16,-30,-20
1530606725430143,-3,-1,0,-2,-6,-45,9,13
1530606725430143,26,1,1,-2,-2,0,-8,-2
1530606725432137,-33,-6,-4,-2,-1,-7,4,-5
1530606725432137,18,-1,-1,1,-1,3,8,4
1530606725444105,-4,3,-1,1,2,12,-9,-10
1530606725444105,-17,2,-2,0,-1,6,2,-6
1530606725453081,7,-2,-3,-2,-4,-15,-10,-3
1530606725453081,-11,0,1,1,1,6,8,4
1530606725468041,7,2,0,-1,-1,2,-13,11
1530606725468041,8,-4,-1,-1,-2,-1,4,-6
1530606725469039,6,3,-1,3,4,4,-4,9
1530606725469039,-5,1,-1,-2,-2,-9,5,-6
1530606725489982,-6,4,0,-1,-2,4,-3,-18
1530606725489982,-10,-16,-5,-4,0,-8,-1,7
1530606725491977,3,4,0,-1,-2,-9,1,-5
1530606725491977,-4,-1,0,12,4,10,3,4
1530606725503945,0,1,-1,-3,0,-5,-14,-3
1530606725503945,6,3,-1,-2,-3,14,20,10
1530606725512921,-3,-4,-3,-10,-6,-3,-5,-5
1530606725512921,-13,-5,0,-5,-1,-2,-6,-10
1530606725527881,1,1,1,7,2,-5,0,17
1530606725527881,9,4,-2,2,-2,-10,6,5
1530606725529876,1,-10,-3,1,0,1,-5,-19
1530606725529876,-4,5,-2,-4,-4,-2,6,-2
1530606725550820,7,-7,-1,-3,0,0,-8,2
1530606725550820,10,5,0,-2,-3,8,18,2
1530606725551818,-42,2,-1,0,3,-3,-6,-5
1530606725551818,10,1,2,1,0,-5,-9,4
1530606725563785,-11,-1,-2,-3,-2,16,7,-8
1530606725563785,10,-5,-1,2,0,-4,-15,-1
1530606725572761,9,0,-1,3,-1,-8,-3,0
1530606725572761,-4,0,0,-2,-1,12,0,0
1530606725587721,2,-2,-3,-1,-5,-11,3,6
1530606725587721,7,2,-1,3,0,-1,-9,1
1530606725589716,10,0,-1,-1,-1,-3,-1,2
1530606725589716,-11,-1,-2,0,0,-1,7,-12
1530606725610660,0,-3,0,-2,0,-4,-9,3
1530606725610660,2,2,-1,0,3,1,-20,-11
1530606725611657,13,2,0,-3,-2,9,16,7
1530606725611657,-22,-9,-2,-1,-6,-23,-3,-5
1530606725623625,1,-3,-3,-4,-2,6,-5,-12
1530606725623625,3,7,2,0,0,-2,0,3
1530606725632601,-4,-6,0,0,3,-6,-3,5
1530606725632601,20,2,-2,-7,-5,12,5,16
1530606725647561,-20,-4,-1,10,2,-1,-6,-2
1530606725647561,-7,-4,-5,-8,-4,-18,0,-24
1530606725649556,7,3,-2,0,-3,4,0,14
1530606725649556,-14,-5,-3,0,0,-5,0,-2
1530606725670500,5,-1,2,-3,0,11,7,16
1530606725670500,10,10,2,10,3,10,11,10
1530606725672495,0,-7,-3,-2,-1,-2,-25,-12
1530606725672495,12,2,0,-4,-4,-10,5,15
1530606725684462,-11,2,-3,-5,6,3,1,-20
1530606725684462,-11,-8,-3,-9,-6,7,0,-8
1530606725693438,-5,-3,-2,6,2,8,2,1
1530606725693438,5,1,0,5,2,-18,4,-4
1530606725707401,13,5,2,0,-4,3,6,11
1530606725707401,-6,0,-1,-3,-2,1,-11,-10
1530606725709396,-16,-7,-4,-4,-1,15,11,-5
1530606725709396,5,4,-2,-2,-2,-6,-13,-2
1530606725730340,17,0,1,1,-4,-1,7,4
1530606725730340,-21,1,-1,-1,2,-3,1,6
1530606725732335,1,-1,1,-1,-1,-2,-5,-5
1530606725732335,4,-4,2,2,0,-1,-1,-7
1530606725744302,-2,-4,-3,-7,-2,13,-4,1
1530606725744302,12,4,1,1,1,3,-4,12
1530606725753279,2,1,-1,-2,-3,-3,5,13
1530606725753279,-10,-4,-6,1,0,4,-5,-12
1530606725768238,2,-3,-1,-1,-1,-11,-9,-4
1530606725768238,-2,-4,-1,-4,-1,12,6,-1
1530606725769236,0,3,1,-6,-5,-15,-5,1
1530606725769236,12,2,0,-1,1,3,-4,7
1530606725790179,-16,-10,-4,0,0,-6,6,1
1530606725790179,9,-2,-4,1,-3,0,6,32
1530606725792175,-6,-1,-1,-3,0,1,-2,-51
1530606725792175,-10,0,-1,-7,-2,21,0,2
1530606725804142,4,7,0,3,-3,-8,-7,-10
1530606725804142,-9,2,2,4,7,-21,-3,4
1530606725813118,13,-19,-3,-3,0,-3,3,14
1530606725813118,-8,6,0,0,-2,8,15,-5
1530606725828078,17,9,0,2,0,0,-27,4
1530606725828078,-13,-8,0,0,-1,-4,-5,-19
1530606725829076,14,10,2,-3,-1,-4,1,10
1530606725829076,6,-5,-2,7,3,4,-1,-12
1530606725850020,-23,3,-1,0,-1,-6,12,22
1530606725850020,-10,-6,-3,-1,-2,11,-8,-39
1530606725852015,-5,4,1,-5,-3,-6,-3,-1
1530606725852015,11,-5,0,2,13,4,6,8
1530606725863982,13,4,0,0,-1,-16,2,3
1530606725863982,0,-1,-1,1,-4,-12,-4,8
1530606725872959,-4,1,-4,-2,2,7,1,4
1530606725872959,2,0,0,-2,-2,-7,7,6
1530606725887918,-12,-13,1,4,1,11,-4,-10
1530606725887918,3,5,-3,-2,0,3,-9,-1
1530606725889913,4,2,-1,2,-5,-4,-1,6
1530606725889913,-20,-9,-4,-5,-7,9,-8,-20
1530606725910857,16,2,1,1,2,-5,3,-1
1530606725910857,-3,-4,-1,-2,-5,0,0,-3
1530606725911855,2,7,1,3,0,-4,1,5
1530606725911855,0,-3,-2,0,-2,1,-9,-3
1530606725923822,-15,-11,-3,-5,-2,5,4,-3
1530606725923822,7,3,2,2,1,-3,3,11
1530606725932799,17,4,2,1,-2,1,1,-4
1530606725932799,-33,-4,0,-2,-1,-5,0,10
1530606725947758,-9,-1,-2,-1,0,0,0,-6
1530606725947758,5,1,0,1,-1,-2,6,9
1530606725949753,-8,-3,-3,-2,0,0,0,-2
1530606725949753,34,5,-1,-2,-1,-7,4,-1
1530606725970697,1,1,-2,-1,-5,-2,-43,-2
1530606725970697,2,-2,-2,-3,0,5,9,-1
1530606725971694,-15,-6,-1,-1,0,1,8,-6
1530606725971694,-5,1,1,5,5,-5,-2,2
1530606725983662,4,-1,-2,-1,1,21,8,0
1530606725983662,4,-2,1,-2,-1,-27,-5,-2
1530606725992638,0,-1,0,4,3,-3,-3,3
1530606725992638,-6,-2,2,-4,-4,22,2,-5
1530606726007598,3,-1,2,-4,-1,-20,-2,-11
1530606726007598,5,3,-1,-1,-1,12,3,12
1530606726009593,7,2,-3,-8,-3,-7,3,2
1530606726009593,2,0,0,14,4,-3,-10,-4
1530606726030537,-16,-6,0,-1,-3,2,22,4
1530606726030537,-14,-13,-4,-1,-2,-6,-8,-25
1530606726031534,7,6,0,-1,0,-1,-2,15
1530606726031534,2,3,0,-4,-3,0,-2,6
1530606726044499,5,2,1,-3,-2,-2,-2,-6
1530606726044499,-7,1,0,-1,1,3,8,3
1530606726053476,-10,-8,-4,2,-2,-7,-10,-17
1530606726053476,4,3,-1,-4,-7,-4,-4,12
1530606726067438,11,-2,-3,2,5,4,10,-12
1530606726067438,-29,-1,-1,-3,-1,6,11,-4
1530606726074419,11,2,3,4,-1,-1,-8,-1
1530606726074419,-15,1,-1,-2,-3,-15,3,-9
1530606726090376,5,-2,-2,-2,-2,-1,-10,8
1530606726090376,22,3,1,3,1,7,9,11
1530606726092372,-25,-3,-1,1,2,8,-2,-17
1530606726092372,1,-1,-3,-4,-3,-4,-3,-4
1530606726104339,-4,-1,1,-1,1,6,9,0
1530606726104339,3,-3,2,2,-1,11,-9,3
1530606726113315,17,4,-1,1,1,-11,8,13
1530606726113315,1,-5,-1,-2,-1,1,-6,-13
1530606726127278,-13,2,-5,-1,-1,-11,-11,-10
1530606726127278,-4,1,2,0,-2,-1,-7,2
1530606726134259,0,-3,-4,-3,-2,-1,4,1
1530606726134259,9,-1,-1,0,-1,2,5,6
1530606726150217,12,7,0,-1,-1,19,8,7
1530606726150217,-20,-19,-5,-1,-3,-18,-25,-2
1530606726152212,-18,0,1,-3,-5,-5,15,-21
1530606726152212,-1,0,-1,0,0,-11,-9,1
1530606726173155,18,2,1,0,-7,20,6,8
1530606726173155,-8,5,-3,2,6,-23,-9,0
1530606726174153,-7,-4,-1,-4,-4,14,10,2
1530606726174153,-10,-4,-3,5,-8,-16,-23,-12
1530606726187118,-9,-3,0,0,-1,-5,6,1
1530606726187118,23,6,0,-3,-2,5,5,5
1530606726194099,-7,-5,-1,2,3,7,-11,4
1530606726194099,4,2,1,-6,0,-2,12,3
1530606726210057,-1,-2,-2,1,-3,-1,-6,-11
1530606726210057,4,-1,-3,-1,-4,4,0,1
1530606726212051,7,7,2,-3,0,4,-2,3
1530606726212051,-3,-1,0,-3,-2,-6,4,4
1530606726232995,-9,-2,0,1,2,-11,4,0
1530606726232995,3,-4,0,-1,0,16,-1,-2
1530606726234990,10,1,-1,-3,-5,-12,-4,-2
1530606726234990,-8,-1,-3,8,6,-4,-7,2
1530606726246958,-1,0,-3,-3,-3,9,-2,-5
1530606726246958,-3,-6,-2,-2,5,-19,1,-14
1530606726253939,25,3,2,10,2,-9,2,30
1530606726253939,-34,-3,-2,-6,-5,15,-5,-22
1530606726269897,9,2,0,-1,1,-2,7,-1
1530606726269897,-5,1,0,-1,-5,-6,1,-3
1530606726271892,-1,-2,-1,-4,-1,-9,-13,-2
1530606726271892,23,9,0,0,1,0,7,9
1530606726292835,-20,-15,1,-4,0,-2,-3,8
1530606726292835,-4,-1,0,7,7,7,12,-2
1530606726294830,6,0,-2,-2,0,9,4,1
1530606726294830,8,3,0,-1,0,-2,-4,5
1530606726306798,-3,-3,-2,-4,-1,6,-6,-2
1530606726306798,3,3,0,-4,-3,-12,3,3
1530606726313779,-12,-3,-2,-2,-4,-15,-7,-2
1530606726313779,-5,-6,-2,-1,3,7,-1,-2
1530606726330734,9,2,1,2,2,0,-4,5
1530606726330734,-2,4,0,3,-1,-19,-5,-3
1530606726331732,-2,1,1,-3,-1,13,3,-4
1530606726331732,-10,-4,-3,2,1,2,-2,5
1530606726352675,0,0,-1,-5,-5,-28,6,-9
1530606726352675,11,2,0,1,6,30,-13,13
1530606726354670,-2,1,1,5,2,6,3,2
1530606726354670,2,1,-1,-2,-4,-16,12,-25
1530606726366638,-1,3,1,5,2,0,-24,13
1530606726366638,-5,-3,-3,-8,-6,2,-3,-11
1530606726375614,-3,0,-2,-3,-3,-3,-1,4
1530606726375614,-2,1,0,-2,1,16,7,16
1530606726390574,1,1,-1,1,-1,-9,5,-7
1530606726390574,0,0,1,-2,-6,-2,3,1
1530606726391572,1,2,0,1,2,-1,-4,-4
1530606726391572,0,-8,1,-2,1,12,-1,-2
1530606726412515,0,1,-3,1,4,-13,-10,-5
1530606726412515,1,1,-3,-9,-7,-2,-1,0
1530606726414511,8,2,1,5,5,5,-1,3
1530606726414511,-8,-4,-2,-2,-1,-5,-7,-7
1530606726426478,-2,0,-2,2,1,8,7,3
1530606726426478,-4,-1,1,-1,-1,-13,4,-10
1530606726435455,1,-2,-1,-1,-2,19,0,2
1530606726435455,2,0,0,-7,-6,-6,-15,5
1530606726450414,-7,-2,-1,5,1,-3,11,-9
1530606726450414,4,-2,-2,-8,-6,-2,-8,1
1530606726452409,7,-4,-2,1,1,-5,8,-5
1530606726452409,5,2,-1,0,0,-20,-2,9
1530606726473353,2,3,2,-6,-4,2,-1,-8
1530606726473353,-14,-2,-2,6,3,4,4,7
1530606726474350,-10,-4,-2,-8,-2,-2,-6,-12
1530606726474350,11,2,0,0,2,12,10,12
1530606726486318,1,-4,-3,0,-3,-5,-2,-17
1530606726486318,4,-2,-2,-2,1,22,2,-5
1530606726495294,-13,-5,-4,-4,-5,-34,-9,-5
1530606726495294,-1,1,1,1,0,-2,10,-2
1530606726510254,-6,0,-1,-3,-4,2,-3,8
1530606726510254,8,-1,0,3,5,6,1,-2
1530606726512249,3,1,-3,-2,-4,3,-12,-7
1530606726512249,-9,-1,2,2,2,-4,-2,-2
1530606726533192,7,-2,-1,-1,-3,3,1,8
1530606726533192,-9,1,-3,-3,-4,-6,-1,-10
1530606726534190,-6,-4,0,2,-1,6,5,11
1530606726534190,16,3,1,-4,-2,-4,5,4
1530606726546158,-9,-4,-3,3,6,10,-13,-11
1530606726546158,0,2,-1,0,-5,3,-3,-1
1530606726555134,-11,-2,-4,-6,-5,-7,14,-2
1530606726555134,10,-2,-3,-9,-2,2,6,0
1530606726570094,9,3,1,8,-1,-1,-6,11
1530606726570094,-8,-3,-1,2,1,-1,-2,-4
1530606726572089,6,-3,0,3,0,-5,-7,13
1530606726572089,-7,-3,-3,-7,-3,18,1,-28
1530606726593033,4,6,0,-3,-2,-26,13,11
1530606726593033,-16,-12,-1,1,1,-1,-1,4
1530606726594030,4,-1,0,-4,-2,1,0,-2
1530606726594030,-9,-5,0,4,1,-4,-12,9
1530606726606995,-6,0,-2,-3,-2,5,-13,-15
1530606726606995,15,6,1,1,-2,-1,14,9
1530606726615971,-2,0,1,-1,-5,2,1,-11
1530606726615971,6,-4,-1,2,9,3,-5,3
1530606726629934,0,-2,-2,1,-2,1,1,3
1530606726629934,-12,-3,-1,1,-1,-6,-5,-11
1530606726631929,2,1,0,1,0,-1,-1,-4
1530606726631929,10,4,-1,-4,-8,-4,-2,3
1530606726652872,-18,-6,-1,2,1,9,5,-9
1530606726652872,-1,0,3,-1,0,-5,-8,-3
1530606726654867,1,2,-1,0,-3,6,-3,7
1530606726654867,-9,-2,-1,-2,-4,-4,-4,-15
1530606726666835,3,-3,-3,-4,2,4,2,7
1530606726666835,14,0,-2,-1,-5,-11,-1,0
1530606726675811,-19,-2,0,2,7,1,-5,-12
1530606726675811,-10,-4,-3,-1,-1,-1,-1,2
1530606726690771,9,0,2,12,4,-1,2,3
1530606726690771,-7,1,-1,0,0,6,-4,-9
1530606726691769,10,0,-3,-4,-4,0,9,7
1530606726691769,-4,-6,-1,1,-3,-13,1,-5
1530606726712712,0,1,2,-4,-3,15,-10,2
1530606726712712,3,-2,-1,4,4,-10,12,4
1530606726718696,16,0,-2,0,0,-6,-2,1
1530606726718696,-6,4,-2,-1,-1,5,7,-7
1530606726726675,3,6,3,-4,0,-4,1,12
1530606726726675,3,-6,-1,2,-3,5,-3,9
1530606726735651,-10,-2,-1,-3,0,1,5,-28
1530606726735651,-3,-1,-2,4,3,4,-6,11
1530606726750611,-8,-2,-2,-6,-8,-27,5,8
1530606726750611,2,8,1,-3,0,12,-4,6
1530606726751608,-6,-4,-2,-2,-1,-2,-5,-5
1530606726751608,3,-1,0,0,-1,7,-4,0
1530606726772552,-6,-3,-2,8,7,8,-1,-4
1530606726772552,-5,-6,-3,-6,-13,-26,5,-1
1530606726774547,1,-2,0,7,1,7,-3,-1
1530606726774547,1,2,1,-1,0,-7,-3,1
1530606726786515,-2,-3,0,-6,-1,14,6,-1
1530606726786515,10,6,-2,-2,1,1,-16,-3
1530606726795491,-9,-2,0,-2,-1,0,-3,-5
1530606726795491,3,-4,-2,-2,0,-8,-6,11
1530606726810451,-8,2,0,-3,-6,-1,8,-9
1530606726810451,6,0,0,-2,2,8,11,8
1530606726812446,-5,5,-2,1,1,-17,-4,0
1530606726812446,16,-3,-1,1,0,6,-13,0
1530606726832392,-39,-5,-4,-5,-3,0,0,-7
1530606726832392,16,4,1,1,-2,-6,3,7
1530606726834388,-13,1,-1,-2,0,-1,7,-5
1530606726834388,6,-1,-1,1,-2,-1,4,-1
1530606726846355,2,-2,0,-2,2,-2,-11,-11
1530606726846355,1,1,2,1,-2,12,-2,10
1530606726855331,-2,-4,-3,-2,-1,-37,0,-2
1530606726855331,-2,-4,0,-1,-1,0,6,1
1530606726870291,18,5,0,-5,-4,-5,-1,5
1530606726870291,-8,-4,-2,0,2,4,-2,-7
1530606726872286,6,-2,-1,0,-2,12,-6,9
1530606726872286,4,2,1,-2,-3,0,0,-2
1530606726893230,1,-4,-2,-1,0,-12,2,-2
1530606726893230,-6,1,-4,-3,-2,3,-5,-23
1530606726894227,-8,-5,-2,-2,-1,21,-1,3
1530606726894227,-5,3,-2,-1,-2,1,6,5
1530606726906195,12,3,0,-2,-2,-25,2,8
1530606726906195,-9,-13,-3,-2,1,1,-2,-1
1530606726915171,-1,1,0,-1,-1,6,-5,-3
1530606726915171,-7,-1,0,1,2,2,2,0
1530606726930131,5,0,-3,-1,-1,13,-4,-7
1530606726930131,2,-1,0,0,-2,-9,-1,1
1530606726932126,14,5,3,2,0,-1,4,12
1530606726932126,-11,-7,-3,-3,-2,-1,-3,-7
1530606726953069,7,8,-1,-6,-6,1,-2,4
1530606726953069,-4,-3,1,6,5,4,-6,-2
1530606726954067,-1,-14,-5,-7,0,-9,7,4
1530606726954067,7,6,2,7,0,6,12,1
1530606726966035,-5,-2,-4,-3,-1,4,-27,-1
1530606726966035,1,0,1,-1,1,1,6,-5
1530606726976008,2,0,-1,9,0,4,-11,-1
1530606726976008,-6,-13,-2,-2,-1,0,3,-6
1530606726989971,-11,-3,-2,-5,-4,-11,10,-3
1530606726989971,1,2,-2,-6,-4,4,-1,1
1530606726996953,7,3,0,-3,-3,5,-2,6
1530606726996953,-2,4,-1,-3,-1,-12,-5,-6
1530606727012909,0,-3,1,5,1,13,4,2
1530606727012909,2,-3,-4,-2,-2,-3,-2,3
1530606727014905,-7,2,2,-1,0,-2,1,-6
1530606727014905,-8,0,-2,0,2,-4,-2,-2
1530606727026872,11,0,1,-2,0,-2,0,5
1530606727026872,-3,-1,1,2,-1,-9,4,-4
1530606727035848,-20,-5,-1,-3,-1,7,1,1
1530606727035848,-8,4,1,1,-1,-3,-6,8
1530606727049811,4,-3,-2,1,1,7,1,-16
1530606727049811,7,-2,-1,-1,0,5,-9,0
1530606727056792,3,3,-2,-2,-3,-14,-5,-8
1530606727056792,6,-2,1,-3,-2,1,-2,4
1530606727072749,-4,2,2,2,-1,1,9,8
1530606727072749,-17,0,-4,-2,-1,5,6,-18
1530606727074744,4,1,1,2,-1,-21,-14,-1
1530606727074744,6,8,0,1,-2,-1,-7,6
1530606727095688,-11,-11,-4,-2,4,-6,13,1
1530606727095688,7,3,0,-1,-2,5,6,4
1530606727096686,-3,3,2,0,0,16,8,1
1530606727096686,-7,-6,-4,-5,-1,-7,-6,-9
1530606727109651,-3,-1,0,8,1,-3,-8,-5
1530606727109651,2,0,-2,-1,0,-4,2,7
1530606727116632,2,-5,-4,-2,-1,1,3,-1
1530606727116632,5,-1,0,-3,-2,-5,-4,-5
1530606727132590,2,-2,0,-4,-3,6,-5,7
1530606727132590,-10,0,2,0,1,0,-3,-4
1530606727134585,11,0,-2,0,-1,-13,-6,5
1530606727134585,-1,-3,-2,-1,-2,6,-7,-8
1530606727155528,-7,-3,-2,0,-1,9,6,0
1530606727155528,9,-1,0,3,0,-32,-2,0
1530606727156526,3,2,2,-2,0,18,8,-1
1530606727156526,-3,-1,-2,1,-1,-16,-13,3
1530606727169491,1,0,0,-2,1,-1,-17,-8
1530606727169491,7,2,-2,-5,-5,18,37,11
1530606727176472,-11,0,-2,-2,1,-9,-15,-2
1530606727176472,-3,-3,-1,1,1,13,3,-3
1530606727192429,10,0,-2,1,-1,-12,-1,2
1530606727192429,-16,-1,-2,0,0,5,-11,-9
1530606727194425,-3,-3,0,-1,-1,0,6,-6
1530606727194425,4,0,-1,-1,-2,3,8,1
1530606727215368,-12,0,-5,-2,-3,-1,-13,-5
1530606727215368,-7,0,1,-1,-3,-4,-3,5
1530606727217363,2,-4,-2,-1,0,1,3,-1
1530606727217363,7,5,1,-2,1,4,-7,-2
1530606727229331,0,-4,1,-2,-3,-15,18,-6
1530606727229331,2,-1,-4,-4,-1,-1,-6,-6
1530606727236312,2,1,-2,1,0,-4,-5,4
1530606727236312,-8,-3,-3,-2,-2,5,17,-5
1530606727253267,9,4,0,-8,-6,-10,-7,14
1530606727253267,14,6,0,14,8,11,-8,0
1530606727254264,-15,-12,-5,3,1,-16,2,-6
1530606727254264,1,2,1,-2,1,-4,4,4
1530606727275208,-11,-3,3,0,-2,14,4,-5
1530606727275208,-6,-1,-2,-9,-3,1,-16,0
1530606727277203,6,6,-1,-2,-2,-1,0,3
1530606727277203,14,-1,-2,0,1,-1,7,-1
1530606727290168,-17,-3,-1,-1,-1,-2,3,-1
1530606727290168,6,0,2,-2,0,5,-2,-9
1530606727296152,2,4,2,2,-1,9,2,5
1530606727296152,-10,-3,-1,-1,-1,-2,-2,-5
1530606727313107,7,0,-4,-1,1,-3,0,0
1530606727313107,-5,-2,-4,2,-1,-8,-3,0
1530606727314105,-9,-3,-1,-5,-1,4,1,0
1530606727314105,6,1,1,0,-1,-4,0,5
1530606727335048,-3,0,-2,1,3,-1,-10,-24
1530606727335048,-6,-5,-1,-2,-3,15,5,11
1530606727337043,7,2,0,-2,-4,-17,2,-2
1530606727337043,-12,-1,-3,-1,-3,-1,8,6
1530606727349011,7,1,-1,2,1,8,-28,0
1530606727349011,2,-1,1,-4,-3,-3,-1,6
1530606727357987,2,-1,-1,-15,-7,20,-3,-4
1530606727357987,-1,1,2,22,9,-18,9,1
1530606727372947,8,0,-2,5,0,-3,-1,7
1530606727372947,-7,-2,-3,1,-1,2,-9,-7
1530606727374941,-1,-3,-1,-2,-2,-18,15,1
1530606727374941,1,-1,-3,-12,-6,0,-8,-5
1530606727394888,-1,0,0,-5,-4,-1,5,1
1530606727394888,14,2,1,-1,1,4,-8,3
1530606727396883,-23,-5,-3,-2,-1,-3,-1,0
1530606727396883,4,2,1,-2,-2,2,2,11
1530606727408850,-13,-5,-2,-1,1,-2,0,-30
1530606727408850,17,0,1,-4,-1,-3,8,-4
1530606727417827,-9,-3,-2,3,2,7,-5,15
1530606727417827,7,5,1,-1,0,11,5,2
1530606727432786,0,-7,0,1,0,-9,7,8
1530606727432786,-15,-2,-2,-3,-2,-11,4,-35
1530606727434782,6,3,1,1,1,8,1,-7
1530606727434782,-9,-4,-3,-3,-3,3,-11,4
1530606727455725,9,3,2,-3,-1,16,16,19
1530606727455725,-2,0,-2,9,4,-7,-9,5
1530606727456723,1,-4,2,-1,-1,-10,10,-9
1530606727456723,-3,-5,-3,-3,-1,-1,6,-1
1530606727468691,2,4,0,5,1,-3,-2,-8
1530606727468691,-5,-3,-4,-6,-6,-4,-2,-5
1530606727477666,8,1,0,3,2,1,-15,1
1530606727477666,-24,-3,-1,0,0,-4,-5,-9
1530606727492627,-2,1,0,-4,-3,-8,-2,0
1530606727492627,5,1,1,1,2,0,2,6
1530606727494621,16,1,0,-3,0,11,4,-1
1530606727494621,0,-2,-2,-4,-2,0,0,6
1530606727515565,-1,-4,-2,2,3,7,-10,-8
1530606727515565,-15,-2,-2,-2,-3,-31,4,4
1530606727516563,10,-1,2,-2,-3,1,-4,9
1530606727516563,11,2,-2,0,-2,-8,-9,-35
1530606727529528,-4,-1,0,0,-1,18,15,10
1530606727529528,-4,0,-1,-2,-1,-10,-23,3
1530606727538504,-12,-1,-3,1,-2,-4,0,-5
1530606727538504,7,0,-2,0,0,6,-4,9
1530606727552466,4,-2,1,0,-3,-17,4,-1
1530606727552466,-4,-3,-1,-3,-1,10,5,-2
1530606727554462,6,-1,-3,2,-3,-14,-24,-5
1530606727554462,-13,0,-2,-4,-6,6,1,-2
1530606727575405,-5,-2,-4,-2,5,-6,8,-14
1530606727575405,-6,0,1,-1,0,20,2,12
1530606727577400,16,1,-1,-3,-1,-14,12,4
1530606727577400,-21,-2,-2,-2,-2,-5,-13,-10
1530606727589368,7,-5,-3,-2,-3,2,4,7
1530606727589368,-5,1,1,-2,-1,-3,-10,0
1530606727598344,-2,0,0,-3,2,13,5,0
1530606727598344,12,1,-2,-5,-1,6,-1,2
1530606727613304,-3,-1,1,12,2,-36,-3,-4
1530606727613304,11,0,-1,2,0,11,8,22
1530606727614301,-14,-5,-2,-1,-2,5,-2,-17
1530606727614301,7,-2,2,-3,0,-1,-2,17
1530606727635245,-5,3,-2,0,1,10,-6,-21
1530606727635245,6,1,-1,0,-2,-6,18,9
1530606727637240,-8,-1,-1,1,1,1,-2,-28
1530606727637240,-7,-2,0,0,-1,-5,-5,3
1530606727649208,6,-1,-3,-4,-2,6,-7,20
1530606727649208,4,1,2,1,-1,-4,15,0
1530606727658184,2,3,-1,-1,0,6,-25,4
1530606727658184,0,-3,-1,5,-1,3,7,-5
1530606727673144,-8,-1,-2,-5,-3,-10,-10,-9
1530606727673144,5,3,-2,-4,0,10,3,-13
1530606727674141,-7,-5,-2,2,1,0,1,6
1530606727674141,17,4,-1,3,-1,-4,9,0
1530606727695085,5,1,0,-1,-3,1,9,11
1530606727695085,-14,-3,-1,-2,-2,-12,-12,-14
1530606727697080,5,0,0,5,3,11,-4,1
1530606727697080,8,1,0,-1,-2,-30,-5,3
1530606727709047,-2,0,-1,2,1,11,8,11
1530606727709047,-19,-6,-4,-6,-5,-1,-2,-15
1530606727718024,-9,-1,-1,8,5,-2,-11,0
1530606727718024,-4,2,0,3,2,12,7,-5
1530606727732984,10,2,2,-2,-2,-10,-4,0
1530606727732984,7,-2,-1,-1,-2,-10,2,16
1530606727734979,-17,-3,-1,-7,-4,13,-3,-17
1530606727734979,-2,-4,-3,-4,-2,2,-5,-1
1530606727754925,8,3,-1,1,0,15,0,8
1530606727754925,-8,1,1,0,1,-12,-3,-6
1530606727756920,-4,-5,-1,6,2,-1,4,5
1530606727756920,-6,-1,0,1,2,-3,9,-5
1530606727768888,-5,-1,-1,-6,-2,14,2,1
1530606727768888,2,-1,-1,-2,1,-3,-22,2
1530606727777864,16,-1,-3,-3,-2,-1,16,11
1530606727777864,-17,-1,1,0,1,-2,-4,-6
1530606727792824,-3,-1,-1,-2,-4,7,9,2
1530606727792824,1,0,-1,1,-1,1,1,12
1530606727794819,0,0,-4,-3,-3,-38,-5,-24
1530606727794819,8,0,0,0,0,9,-1,1
1530606727815763,-3,-1,0,-3,0,-1,-9,3
1530606727815763,-10,-2,-2,-3,0,6,-2,-5
1530606727816760,-6,-5,-2,-4,-2,3,16,8
1530606727816760,-1,0,-1,1,-1,-3,-3,-1
1530606727828727,-8,-1,0,-4,-5,-12,-6,-12
1530606727828727,13,1,0,0,2,2,0,1
1530606727837704,7,-3,-3,4,0,5,1,6
1530606727837704,-23,-3,-2,-1,1,7,-4,-12
1530606727852663,-2,-9,-3,-6,-4,-7,-11,7
1530606727852663,4,3,-1,-5,-4,3,3,-7
1530606727854659,-2,1,2,14,9,12,0,13
1530606727854659,16,0,-2,-3,-1,-6,-4,-3
1530606727875602,-2,2,-3,0,0,11,-1,-2
1530606727875602,-2,1,-3,-1,-3,-13,5,-9
1530606727876600,2,4,0,-7,-4,-3,-1,5
1530606727876600,-3,1,0,0,-3,2,0,0
1530606727888568,8,0,2,3,2,-3,2,-7
1530606727888568,6,-4,-4,0,-2,3,1,8
1530606727898541,-3,3,0,-3,-3,2,1,-10
1530606727898541,-7,-8,-2,1,1,-7,-7,-2
1530606727912504,-7,0,0,-1,-6,16,12,6
1530606727912504,1,-4,-3,0,-1,-5,-9,-8
1530606727914499,9,4,1,-8,-5,-1,11,11
1530606727914499,2,-1,0,3,3,-4,3,-3
1530606727935442,-3,-7,-3,-2,0,-1,-6,1
1530606727935442,-2,-1,-1,0,1,4,3,-5
1530606727937437,-10,1,-1,-3,-1,0,-3,-7
1530606727937437,4,1,-2,-4,-2,3,-11,14
1530606727949405,9,1,-2,-3,0,-8,2,-30
1530606727949405,-7,-2,-1,6,1,4,-1,3
1530606727958381,-16,-5,-3,-3,0,-4,-11,1
1530606727958381,12,6,0,0,-1,11,4,0
1530606727972343,-14,-2,1,1,18,-26,-1,4
1530606727972343,9,-1,-1,0,-13,-1,0,-6
1530606727979325,15,8,-1,-3,-16,-11,-9,-5
1530606727979325,-9,-12,-4,-3,-2,8,3,13
1530606727995282,-6,1,-2,-1,-1,1,-2,-4
1530606727995282,12,1,0,-2,13,-5,-7,-2
1530606727997277,-16,-7,0,2,4,7,1,-2
1530606727997277,1,2,-2,-1,-2,-6,-5,-5
1530606728009245,3,2,-1,-1,-2,3,0,4
1530606728009245,2,-4,2,0,-1,8,3,0
1530606728018221,8,5,2,1,-2,-28,2,1
1530606728018221,1,1,0,1,-4,0,3,-2
1530606728032184,1,-1,0,0,-3,-1,-5,6
1530606728032184,-11,-2,0,0,-3,1,-4,-3
1530606728039165,11,0,-1,-6,-1,6,12,5
1530606728039165,-6,-2,0,-3,5,4,7,-6
1530606728055122,2,1,-2,2,-5,-5,-4,2
1530606728055122,-12,-1,-1,-2,-1,2,-1,-1
1530606728057117,0,-2,-1,1,4,5,-4,3
1530606728057117,17,3,0,-2,-4,0,5,1
1530606728078061,-11,-2,-3,-4,-4,14,5,-5
1530606728078061,-16,-1,-2,4,3,-14,-7,3
1530606728079058,3,-3,0,-5,-1,4,2,8
1530606728079058,-5,2,-1,3,-3,-10,-6,-21
1530606728093021,14,5,1,2,-2,9,3,5
1530606728093021,-15,-14,-3,-1,1,-5,2,-5
1530606728095016,3,2,0,-5,-2,-4,-2,18
1530606728095016,-3,-2,0,4,-2,5,1,3
1530606728114963,7,2,-1,-2,0,-6,-7,-2
1530606728114963,8,4,-1,-4,-1,4,4,4
1530606728116957,11,-4,-3,1,1,19,-2,-12
1530606728116957,-33,-4,0,0,0,-11,-10,0
1530606728137901,-3,-1,-1,-1,-2,-8,0,-1
1530606728137901,14,5,1,1,-3,8,0,4
1530606728139896,3,4,2,0,1,5,-3,-6
1530606728139896,2,-4,-2,-1,1,7,0,1
1530606728151863,2,-2,-2,-1,-1,-6,0,6
1530606728151863,4,3,0,-8,-1,-5,12,2
1530606728158845,-15,-3,-2,3,-3,1,-14,-18
1530606728158845,-7,-1,-1,-4,0,1,-4,-2
1530606728175799,1,-1,0,0,-2,-5,0,0
1530606728175799,12,3,1,-7,-5,-2,11,3
1530606728176797,-4,-5,-1,5,3,2,14,-1
1530606728176797,2,-2,-2,-1,-1,-27,-38,0
1530606728197741,3,-1,0,2,0,22,4,12
1530606728197741,-18,-1,-4,-5,-2,-14,-12,-25
1530606728199736,-8,-1,-2,-4,-3,1,-1,5
1530606728199736,21,-3,0,1,-1,2,11,4
1530606728212701,1,1,0,1,2,10,1,5
1530606728212701,5,-4,-1,0,-3,-29,-9,1
1530606728218685,4,2,1,0,-1,-2,1,-2
1530606728218685,-6,-2,0,-1,1,1,3,-6
1530606728235639,-8,2,0,-3,-4,-16,-5,1
1530606728235639,-5,-3,0,4,2,13,1,-1
1530606728236637,-9,-4,-2,-1,0,2,-11,-5
1530606728236637,10,1,-4,-7,-6,-14,15,13
1530606728257581,4,-1,-1,-5,-1,-3,5,-7
1530606728257581,-6,-2,0,14,5,4,3,3
1530606728259576,3,-1,-2,4,3,5,-15,-4
1530606728259576,3,0,1,-1,-1,6,-4,-3
1530606728272541,-10,-4,-3,-5,-6,-5,-4,-6
1530606728272541,-1,1,0,0,3,0,4,-2
1530606728278525,11,0,1,-4,-3,0,16,10
1530606728278525,4,1,0,3,4,-15,-15,1
1530606728295479,-11,-2,-1,4,1,15,-3,-11
1530606728295479,-1,-1,-3,-6,-5,-10,-1,14
1530606728297474,4,2,-1,-3,-2,-1,1,-1
1530606728297474,0,0,1,-5,-1,0,0,-8
1530606728317421,7,-3,1,-2,-1,-7,-6,-3
1530606728317421,-2,1,0,-3,-2,11,5,4
1530606728319416,-5,-4,-2,-3,-1,-10,1,-18
1530606728319416,-10,0,-2,-2,-2,10,-1,5
1530606728331383,2,-3,-2,1,0,-10,5,-5
1530606728331383,13,-2,0,1,-1,7,1,3
1530606728340360,-13,-3,-2,-2,-3,-17,0,1
1530606728340360,-2,-1,-1,1,0,11,-2,-8
1530606728355320,-4,-2,-2,3,-2,-7,-4,-2
1530606728355320,16,2,0,0,0,-2,-2,2
1530606728357314,-26,0,-3,0,1,12,-9,-1
1530606728357314,1,-1,2,-2,-2,-10,5,2
1530606728378258,1,-3,-4,-9,-5,11,16,-2
1530606728378258,-9,-1,1,10,2,-34,-18,-5
1530606728379255,8,-1,1,-3,2,-2,-14,1
1530606728379255,-3,2,1,12,1,9,12,-2
1530606728391223,-4,-2,-1,-4,-8,-19,-8,8
1530606728391223,-6,-5,-4,-10,2,19,10,-3
1530606728400199,3,1,2,2,0,1,6,-1
1530606728400199,5,-2,0,-1,-1,-7,-12,6
1530606728415160,-3,2,-1,2,0,2,14,-7
1530606728415160,-4,-2,-3,-2,-2,1,-1,-3
1530606728417155,2,-1,0,0,0,-5,-7,19
1530606728417155,5,0,-4,-4,-1,3,5,-14
1530606728438098,4,1,2,2,3,-15,-10,16
1530606728438098,12,-8,-1,-2,1,20,-6,-31
1530606728439096,-22,3,1,-1,-1,-1,5,-3
1530606728439096,-2,-2,-2,-5,-4,-4,7,2
1530606728451063,4,-2,1,5,4,-1,-5,9
1530606728451063,17,5,1,3,4,7,5,14
1530606728460039,-2,-3,-6,-8,-5,-22,-1,-9
1530606728460039,-15,-4,-2,-8,-4,2,1,-10
1530606728474999,-7,4,3,16,7,12,6,-12
1530606728474999,2,1,-2,-5,-6,-19,-23,13
1530606728476995,12,-3,-1,-4,-1,2,-3,2
1530606728476995,-8,-1,1,-4,-3,-3,4,5
1530606728497938,3,-2,-2,-3,-3,6,-10,0
1530606728497938,-5,3,0,0,0,4,17,2
1530606728499933,-1,-5,-1,-1,-2,4,5,-3
1530606728499933,2,-1,-1,-4,-3,-4,-3,1
1530606728511901,2,-6,0,-3,2,1,-8,-9
1530606728511901,-23,-2,0,0,-2,6,-4,-3
1530606728520877,11,5,0,2,-1,-4,2,3
1530606728520877,7,0,2,3,2,6,3,7
1530606728535837,-14,0,-3,-4,0,-4,-7,-5
1530606728535837,3,-4,0,0,1,-12,-2,-7
1530606728536834,-6,-1,-1,-8,-7,32,3,-1
1530606728536834,9,0,1,9,3,-28,1,2
1530606728557778,7,2,-2,-3,0,-1,3,9
1530606728557778,-5,-1,-1,-2,-3,-5,-3,1
1530606728559773,2,-1,-2,2,-1,2,4,-6
1530606728559773,-2,0,-1,-9,-5,12,9,13
1530606728571741,-7,1,1,4,3,-3,-15,-7
1530606728571741,-6,-2,-4,-4,-2,-14,-14,-6
1530606728587698,15,-1,-1,1,3,0,1,0
1530606728587698,-6,-3,1,0,-2,1,3,1
1530606728595677,3,1,-1,-8,-3,-3,13,3
1530606728595677,-14,-1,0,1,-4,9,-1,-10
1530606728596675,-6,0,-2,-2,0,1,-13,-4
1530606728596675,10,8,0,-2,-1,-16,7,2
1530606728617618,-15,-19,-2,1,-2,2,-2,-5
1530606728617618,1,1,1,1,-1,0,8,5
1530606728619613,-3,1,1,1,1,-6,-1,-1
1530606728619613,10,6,0,1,1,16,-4,0
1530606728631581,5,-4,-6,-7,-5,-26,-3,-2
1530606728631581,-9,-1,1,-1,-1,11,3,3
1530606728640557,2,-2,2,4,1,-15,1,-3
1530606728640557,-4,-1,0,2,0,6,-6,-10
1530606728655517,2,2,0,1,0,-1,-1,4
1530606728655517,1,-1,-2,-11,-2,4,0,4
1530606728657511,0,2,-2,-8,-3,-5,0,0
1530606728657511,-11,-6,-2,17,6,10,-7,7
1530606728677458,4,2,-1,-4,-4,-2,29,-45
1530606728677458,7,0,-3,0,-3,8,-6,17
1530606728679453,-8,-2,-2,-3,0,-4,-10,-6
1530606728679453,5,-3,-2,-7,-3,-5,-1,3
1530606728691421,-4,-1,2,0,1,3,-7,7
1530606728691421,4,3,1,0,-1,1,15,1
1530606728700397,0,-4,1,6,-2,-2,-1,1
1530606728700397,-3,-3,-3,0,2,1,-7,-2
1530606728715357,4,1,-2,1,-3,4,-4,6
1530606728715357,9,0,-1,-4,2,11,8,-2
1530606728717351,1,3,0,-3,-4,-25,-4,13
1530606728717351,-19,-4,-1,10,5,0,-8,-19
1530606728738295,2,1,0,-2,-4,3,6,8
1530606728738295,12,-1,-3,2,1,-8,-11,5
1530606728739293,-4,-4,-3,0,-1,9,5,-9
1530606728739293,2,1,-2,-8,-7,-11,-1,-4
1530606728751260,8,-4,-2,-2,3,4,-2,5
1530606728751260,-14,1,3,-2,-2,-12,-5,-8
1530606728760237,-6,-4,-1,-2,0,4,6,2
1530606728760237,8,2,0,2,0,3,3,1
1530606728775196,-1,1,-2,4,2,7,-13,-1
1530606728775196,18,-3,-1,-3,-4,-11,15,0
1530606728777192,-22,0,1,-3,-1,8,0,0
1530606728777192,-12,-2,-2,-7,-2,-7,-10,-10
1530606728798135,-9,1,-3,-4,-3,-4,-3,-2
1530606728798135,-2,-1,-1,2,3,4,-4,5
1530606728799133,9,-2,2,4,4,7,4,-3
1530606728799133,9,1,-1,-2,-4,0,-6,9
1530606728811101,-15,-2,3,1,2,6,-2,4
1530606728811101,-4,-1,-4,-4,-4,0,-9,-36
1530606728820076,7,2,0,0,-1,16,0,6
1530606728820076,6,-8,0,0,-1,-12,-1,-2
1530606728835037,4,3,2,3,0,-1,4,18
1530606728835037,-17,-4,-4,-1,0,-2,-6,-23
1530606728837031,2,1,-2,0,-1,-1,4,4
1530606728837031,-15,-3,-1,-5,0,10,-1,2
1530606728857975,18,3,-1,0,-3,-4,-6,-1
1530606728857975,0,4,2,2,-2,5,5,14
1530606728859970,-5,-4,-2,-1,-2,-20,-2,6
1530606728859970,26,-3,-1,-3,0,1,1,-14
1530606728871938,-38,-5,-5,-4,-3,-5,-4,-5
1530606728871938,-10,3,3,0,0,1,-2,-1
1530606728880914,13,5,-1,-9,-2,-5,6,3
1530606728880914,-4,-6,2,19,7,12,-31,8
1530606728893879,11,-3,0,-1,-1,11,9,-6
1530606728893879,9,-2,-3,-1,-2,-21,-11,5
1530606728902855,-8,1,-2,-1,-2,-6,2,-6
1530606728902855,1,5,0,-9,-5,-1,9,4
1530606728917815,-9,1,-1,-2,-2,5,-5,-6
1530606728917815,7,-3,-2,1,0,4,4,9
1530606728919810,10,3,-1,1,0,-2,-8,-3
1530606728919810,-25,-11,-4,-7,-2,7,7,-7
1530606728931778,19,10,3,3,-1,-15,-4,-4
1530606728931778,4,-10,-1,1,0,-10,-4,3
1530606728940754,-4,0,-3,3,-1,4,-7,-5
1530606728940754,1,1,1,-4,0,11,5,8
1530606728954716,-1,1,-1,-7,-1,-2,3,-9
1530606728954716,-14,0,-1,-1,1,6,0,0
1530606728961697,5,-5,0,3,1,-1,0,5
1530606728961697,-3,2,1,-5,-4,-2,0,1
1530606728977655,-3,-5,0,4,1,-14,0,-1
1530606728977655,17,4,-1,-2,2,-3,-1,-3
1530606728979650,-12,-5,0,2,1,4,-2,9
1530606728979650,-10,-5,-1,-3,-1,10,7,-35
1530606729000594,17,1,-2,-6,-5,-27,-7,-4
1530606729000594,-19,-3,-4,1,0,21,-3,-7
1530606729001591,-1,-1,1,-4,-1,-1,-2,5
1530606729001591,12,6,-1,-2,-3,-5,17,2
1530606729014556,3,-2,-1,1,-3,-1,-3,6
1530606729014556,-20,-1,1,0,0,11,13,-9
1530606729021538,6,-2,-1,-2,-1,-6,-26,-3
1530606729021538,-3,6,0,-1,-3,-14,3,4
1530606729037495,13,-3,-1,-2,-1,13,-9,1
1530606729037495,5,-2,-3,-1,-4,-6,2,2
1530606729039490,-10,3,-1,0,3,8,11,-11
1530606729039490,-10,-8,1,1,0,-3,-6,7
1530606729060434,2,3,0,-5,-2,9,1,9
1530606729060434,-2,2,-1,1,2,0,0,5
1530606729062429,20,-6,-3,1,-3,-3,2,-9
1530606729062429,-2,6,-1,-1,-1,-10,-4,8
1530606729074396,-8,-2,0,-1,2,4,10,5
1530606729074396,4,0,-1,-3,-3,-3,-11,1
1530606729081377,3,5,-2,1,-2,2,6,1
1530606729081377,-8,-13,-3,-5,-3,-4,-5,8
1530606729098332,-3,2,-2,1,-1,4,-1,-3
1530606729098332,-7,0,-2,0,1,6,1,-1
1530606729099330,7,4,1,2,-1,-4,-6,-4
1530606729099330,5,1,-3,-1,-2,-5,-8,-4
1530606729120274,-5,-4,-2,-4,0,5,8,4
1530606729120274,10,-2,0,-3,-2,4,4,-2
1530606729123267,-11,-3,0,7,0,-17,8,-8
1530606729123267,7,3,1,-2,-1,-4,-4,16
1530606729134236,-7,-3,-2,0,0,-3,-8,0
1530606729134236,-12,0,-2,-2,-2,10,-2,-21
1530606729141218,4,0,0,-7,-2,11,18,6
1530606729141218,6,2,-1,3,0,-11,-21,-6
1530606729158172,6,-5,-1,0,0,-3,-4,1
1530606729158172,-4,-1,0,4,-1,-9,2,8
1530606729159170,-9,1,0,-3,-3,-1,-4,-4
1530606729159170,17,5,-2,1,1,1,8,3
1530606729180114,-9,-4,-2,-3,-1,1,-8,-4
1530606729180114,-19,-2,0,-1,-1,-8,-5,8
1530606729182109,8,-2,-1,0,3,-6,-3,-8
1530606729182109,3,4,0,-4,-3,17,6,1
1530606729195073,4,2,1,7,1,1,4,1
1530606729195073,5,-1,-2,-3,-3,-8,-10,0
1530606729201058,20,7,0,3,2,10,-6,5
1530606729201058,-20,-15,-2,-2,-5,-6,7,-15
1530606729218012,-9,0,1,4,2,-4,2,-1
1530606729218012,-4,-3,-1,0,0,2,-3,8
1530606729220007,6,0,-3,-3,-2,-3,5,12
1530606729220007,11,4,1,0,2,7,-4,-17
1530606729239954,-24,-4,-2,-8,-4,-6,-1,-5
1530606729239954,0,-1,-1,-8,-4,-1,0,5
1530606729241949,-7,-4,-1,1,-1,6,-5,-2
1530606729241949,2,0,1,3,-3,-6,-1,2
1530606729253916,9,-1,0,6,6,7,18,-2
1530606729253916,10,2,-3,-6,-2,-12,-34,-1
