timestamp,emg1,emg2,emg3,emg4,emg5,emg6,emg7,emg8
1530606760943168,-13,7,-2,-23,-38,-19,5,12
1530606760943168,11,-5,0,-8,-31,68,0,-18
1530606760945164,16,9,1,13,40,-71,-14,-14
1530606760945164,-32,-7,1,26,19,24,22,3
1530606760957137,15,0,-3,-28,-16,13,-4,2
1530606760957137,5,-4,5,15,25,76,-16,2
1530606760966107,0,-2,3,4,-75,-2,-9,21
1530606760966107,5,12,-5,11,-8,-40,6,-7
1530606760980070,-25,-14,-8,-19,-4,4,-15,-4
1530606760980070,11,-2,4,-2,-84,-6,16,7
1530606760987051,5,-1,-5,-60,-43,26,-5,2
1530606760987051,-47,0,5,25,23,-17,-4,-29
1530606761003008,-6,8,0,1,12,7,-37,10
1530606761003008,9,-1,-3,16,-4,-43,-4,-23
1530606761005003,5,0,0,-2,27,24,-9,10
1530606761005003,2,2,5,20,30,-1,6,-14
1530606761016971,-4,0,-4,-39,-22,12,-9,-3
1530606761016971,3,4,9,54,63,6,9,-2
1530606761025948,-28,-6,-7,-5,11,-43,-53,11
1530606761025948,54,5,-10,-73,50,21,-29,11
1530606761040907,-2,-2,3,31,58,-9,45,-2
1530606761040907,-28,1,-10,-97,-50,-47,17,-12
1530606761041905,4,3,6,87,59,53,28,17
1530606761041905,6,-16,2,13,37,-23,-23,-11
1530606761062848,1,-1,0,7,-39,-2,-14,35
1530606761062848,17,7,-1,23,27,-3,3,-44
1530606761064844,-19,0,-6,-53,-16,-5,-21,-14
1530606761064844,42,-3,-1,0,-36,12,-2,8
1530606761076811,-19,-5,1,38,6,-38,10,2
1530606761076811,-11,3,0,20,21,0,-5,19
1530606761085787,-6,-14,-4,-21,7,12,0,-7
1530606761085787,-41,-1,0,19,-30,27,-7,-2
1530606761100747,24,-3,-8,-42,-20,23,-14,-5
1530606761100747,-4,5,-1,-18,-64,-17,-32,9
1530606761102742,17,-9,-4,-27,16,-8,26,-8
1530606761102742,-11,7,7,35,-26,19,-16,10
1530606761123717,13,-9,0,9,39,-9,10,-28
1530606761123717,11,0,-1,-9,19,-24,-25,8
1530606761125681,8,-4,1,2,-6,51,15,18
1530606761125681,24,3,-2,7,12,43,2,-13
1530606761136651,-26,-3,-7,-45,-49,-19,4,-24
1530606761136651,31,5,5,41,11,-17,12,18
1530606761145627,-23,4,4,4,14,-31,9,-6
1530606761145627,1,-7,-8,-36,-11,-21,-21,3
1530606761160587,-37,-2,8,79,-17,14,4,1
1530606761160587,-5,-7,-10,-49,30,-2,-3,-28
1530606761166571,28,5,-2,12,1,1,4,30
1530606761166571,9,3,3,16,19,11,20,-31
1530606761183525,16,5,-3,-55,-67,21,-2,8
1530606761183525,-10,-10,-1,12,15,-13,21,7
1530606761184523,-24,-22,-7,-40,-45,101,24,0
1530606761184523,-7,-3,2,14,19,-13,28,-2
1530606761205469,31,11,6,34,-7,31,0,-5
1530606761205469,-12,11,3,16,11,15,10,-3
1530606761207462,9,-10,-8,-37,-26,-10,-8,-12
1530606761207462,-11,2,0,20,7,-16,13,19
1530606761220427,-30,-2,1,21,87,5,8,8
1530606761220427,-2,-7,-6,-17,-47,6,-7,-27
1530606761226411,3,13,3,0,3,-55,-8,-1
1530606761226411,-5,-2,-1,-24,-29,-18,-21,-13
1530606761243365,8,1,-4,-13,-8,1,7,15
1530606761243365,-8,-8,3,12,25,14,-20,-3
1530606761245361,23,4,3,8,74,-30,-18,21
1530606761245361,-38,-9,-5,13,5,-51,-51,17
1530606761265307,33,-3,-6,-36,-20,22,-5,-38
1530606761265307,9,5,-5,-27,5,-17,0,15
1530606761267302,-29,-9,0,0,-40,0,8,-7
1530606761267302,39,2,3,-3,21,20,11,14
1530606761280267,-27,-6,-9,-41,7,-26,-2,11
1530606761280267,-24,-7,0,-10,-38,-8,7,6
1530606761287248,29,11,3,-6,-4,-6,-23,-2
1530606761287248,4,12,4,37,41,48,14,-4
1530606761303205,-15,-25,-3,2,35,-41,-13,18
1530606761303205,19,3,-4,-14,-50,13,-1,5
1530606761305200,-23,-16,-1,21,94,-4,5,-26
1530606761305200,-12,6,0,6,-16,-13,-12,-28
1530606761326144,9,12,8,55,-1,65,0,10
1530606761326144,-2,-14,1,8,-41,-40,34,10
1530606761327142,12,4,-1,8,49,-5,-5,-11
1530606761327142,-10,-1,-4,-13,-3,-6,-10,-4
1530606761340107,10,8,4,9,-12,4,8,-8
1530606761340107,11,0,-2,-1,-1,2,-25,10
1530606761347088,17,3,-1,-6,-43,21,-3,-5
1530606761347088,-8,6,-1,-17,17,-22,17,25
1530606761363045,-20,-4,1,4,18,-2,4,-23
1530606761363045,-15,-11,-1,10,58,22,-14,-14
1530606761365040,-15,12,1,-7,-62,10,14,1
1530606761365040,-1,-7,-3,-8,-22,-7,-17,8
1530606761385984,17,10,-2,-37,-56,-15,10,13
1530606761385984,14,-11,0,5,25,30,-15,-6
1530606761386981,-15,-5,1,34,71,-37,14,-5
1530606761386981,-1,8,-4,-9,-51,10,18,-19
1530606761399947,-11,-1,-2,-4,-16,-8,-17,-15
1530606761399947,29,-24,-3,-19,-15,5,-10,21
1530606761406928,6,3,-8,-5,-47,11,16,-2
1530606761406928,-23,3,2,-33,-25,-6,2,0
1530606761422885,-1,2,3,24,47,-39,-19,3
1530606761422885,-28,17,2,18,31,-15,2,-11
1530606761424880,6,-27,-3,-10,-15,9,-11,22
1530606761424880,35,3,-3,-12,-1,1,12,-2
1530606761445824,2,-4,-5,-21,-6,15,7,-6
1530606761445824,-17,-2,1,6,9,-12,-10,2
1530606761447819,-10,17,7,2,-35,0,11,-4
1530606761447819,-11,-4,2,23,60,-32,-31,3
1530606761459786,18,-3,-8,-64,-93,-11,-4,5
1530606761459786,-15,-5,-4,16,41,12,17,-2
1530606761468763,5,0,-8,-15,-15,-5,-11,-5
1530606761468763,-11,-9,-1,6,33,11,6,-5
1530606761483723,24,11,8,19,50,16,15,7
1530606761483723,-6,3,-6,-16,-29,11,-37,-3
1530606761484721,-37,-2,8,50,19,10,-54,-18
1530606761484721,-6,-9,0,11,13,2,23,8
1530606761505664,23,0,-4,-20,-69,35,8,1
1530606761505664,-5,-1,-3,-2,39,-34,14,10
1530606761507659,22,10,0,4,43,18,-13,-12
1530606761507659,-2,-19,-6,-15,-38,-20,-3,-5
1530606761519627,-21,-2,4,-2,38,9,5,-18
1530606761519627,6,8,1,-13,-39,-5,-1,5
1530606761528603,-16,2,1,3,-51,-15,-1,0
1530606761528603,1,6,-4,6,4,9,23,-11
1530606761543563,5,-9,-4,-4,43,-22,-1,5
1530606761543563,26,0,3,11,-24,13,11,11
1530606761544560,-31,0,-2,-3,-3,-14,-19,-24
1530606761544560,36,2,1,-19,-57,25,-3,8
1530606761565504,-2,6,-2,15,-13,-20,-2,8
1530606761565504,-12,-2,-3,-33,19,-13,12,-9
1530606761567499,5,1,3,30,-7,-5,22,20
1530606761567499,-21,-10,2,22,29,5,-8,2
1530606761579466,-6,0,-3,0,37,-3,-10,0
1530606761579466,29,8,-4,-17,-17,-34,-4,-9
1530606761588443,-38,-3,-4,-31,3,24,23,14
1530606761588443,20,-13,-1,12,-18,-11,-14,-1
1530606761603403,5,2,1,-6,4,-33,5,-4
1530606761603403,-10,9,5,27,77,74,2,4
1530606761605397,34,8,0,21,-10,-16,9,0
1530606761605397,-12,2,-2,8,-20,13,-12,-19
1530606761625344,-25,-16,-7,-43,-31,14,-11,-1
1530606761625344,-5,6,8,72,51,6,0,-3
1530606761627339,6,-4,-5,-27,-8,-13,-13,-1
1530606761627339,-12,9,4,2,12,10,-2,30
1530606761639306,18,-7,-5,-18,-39,-1,-4,-19
1530606761639306,3,-1,-1,-2,-28,-7,-3,4
1530606761648283,-32,-12,-5,-36,1,-2,7,24
1530606761648283,13,4,1,-4,-10,-10,1,-36
1530606761663242,2,1,-2,11,14,3,-1,7
1530606761663242,-8,1,-4,-26,-72,-3,-4,2
1530606761665238,13,-6,2,30,45,-54,9,-3
1530606761665238,-3,6,3,-4,-16,23,2,-10
1530606761686181,-5,7,2,16,-1,-1,-9,19
1530606761686181,1,-7,-2,-12,-54,4,-1,-4
1530606761687179,-9,-9,-3,-27,-12,18,11,14
1530606761687179,9,1,-4,-19,16,-4,-40,2
1530606761699147,0,6,7,66,48,-10,2,-22
1530606761699147,-8,-5,-4,-4,-11,22,-2,-31
1530606761708122,16,-3,-5,-32,-27,0,-5,13
1530606761708122,-30,-5,-2,0,-5,-15,0,1
1530606761723083,-12,-2,-3,-10,-12,54,-1,-19
1530606761723083,17,6,5,-13,32,-21,2,42
1530606761725077,41,7,6,74,48,49,6,-18
1530606761725077,-12,-8,-7,-19,-10,-3,14,13
1530606761746021,-18,-1,0,-10,-31,-17,2,14
1530606761746021,-13,4,3,5,-20,-18,-1,-15
1530606761747019,-13,0,0,-41,4,6,-6,-2
1530606761747019,9,-22,5,94,32,7,15,13
1530606761758986,-13,1,-2,12,11,-2,4,-6
1530606761758986,-21,3,-2,-21,-45,2,27,8
1530606761767962,8,-5,-1,-1,26,4,5,5
1530606761767962,18,13,-5,-33,-13,-31,-6,10
1530606761782922,-1,-4,0,0,26,3,-1,-10
1530606761782922,0,-8,-2,5,-12,-6,0,3
1530606761784918,0,-2,-4,-24,-30,-12,-5,0
1530606761784918,-13,6,2,-1,68,-5,19,-4
1530606761805861,1,-4,1,-7,14,-4,-13,1
1530606761805861,-19,5,0,4,-27,21,-10,-4
1530606761807856,19,2,-1,13,1,-57,0,-1
1530606761807856,9,9,-2,-8,2,19,-11,10
1530606761819824,0,-17,-3,-8,12,-31,5,-19
1530606761819824,-8,-5,-10,-69,15,14,1,6
1530606761828800,-14,5,8,71,-6,32,-2,-9
1530606761828800,5,-6,-2,3,-16,12,-2,15
1530606761842762,13,7,-3,-23,-41,-21,17,13
1530606761842762,5,-3,-2,6,20,-7,16,-20
1530606761844757,16,-3,-3,-9,49,8,-13,-10
1530606761844757,6,11,2,-17,-15,-18,0,3
1530606761865701,-40,-10,2,18,-8,33,-5,-7
1530606761865701,24,-1,-3,-8,-30,-7,-1,-7
1530606761867696,-23,10,-1,-6,-10,-20,-27,-5
1530606761867696,13,-10,3,24,16,-1,-2,-18
1530606761879664,1,2,1,10,31,-2,5,15
1530606761879664,20,-3,-1,14,30,-19,-2,12
1530606761888640,-4,1,4,52,-27,9,-21,14
1530606761888640,-14,3,0,-1,19,-10,8,-5
1530606761903600,18,8,0,-1,-47,-7,-7,11
1530606761903600,-35,-7,-3,-1,4,11,-15,-7
1530606761904597,3,-12,-6,-29,-11,-7,11,-14
1530606761904597,10,-1,-2,-4,-27,9,-2,-2
1530606761925541,3,5,1,5,30,4,-5,11
1530606761925541,34,8,1,0,9,9,-11,-4
1530606761927536,-5,-7,-2,-14,34,-6,28,-30
1530606761927536,-28,2,-2,-8,-2,-18,-36,-3
1530606761939504,-5,-13,-7,-37,-31,-3,1,10
1530606761939504,-19,-3,1,2,-1,10,-10,-9
1530606761948481,4,3,2,-7,-3,-55,15,-2
1530606761948481,8,1,0,-17,-68,36,-3,3
1530606761963440,5,-1,-2,4,-5,13,-7,3
1530606761963440,-15,-4,-3,0,22,-13,-3,17
1530606761964438,6,-3,-4,-29,-23,68,-49,-32
1530606761964438,-1,1,-3,2,21,-21,27,-13
1530606761985381,-8,-5,0,13,13,-4,14,4
1530606761985381,6,4,1,5,-9,0,6,32
1530606761987376,0,0,2,2,10,10,2,-29
1530606761987376,-7,1,-1,-27,-41,-6,-2,-2
1530606761999344,14,9,5,34,4,49,18,4
1530606761999344,-9,-20,-2,19,22,-61,-4,2
1530606762008320,-15,8,0,-17,-22,-10,11,14
1530606762008320,-2,-4,0,18,-21,-11,-10,-18
1530606762023280,18,3,2,-5,-2,2,11,16
1530606762023280,12,2,1,21,49,19,0,-2
1530606762025275,-23,0,-4,-28,-76,8,-2,-4
1530606762025275,21,-5,1,45,76,-28,10,0
1530606762046218,20,0,-4,-1,43,44,-2,0
1530606762046218,-24,-7,-4,-11,-12,10,15,-8
1530606762047216,26,6,2,29,25,-19,-5,6
1530606762047216,-15,6,-2,-36,-42,38,-10,-64
1530606762059184,-31,-14,1,36,65,9,22,-7
1530606762059184,26,10,3,8,14,-22,23,-5
1530606762068160,10,4,-3,-33,-27,20,53,24
1530606762068160,-17,-4,-1,21,27,-20,-43,30
1530606762083120,10,2,1,-7,-28,-23,-11,-13
1530606762083120,-14,0,-3,-25,-47,-1,-26,-36
1530606762090151,-2,-3,4,40,35,-3,2,18
1530606762090151,27,8,-5,-52,-52,2,19,8
1530606762106065,-23,-2,-3,-13,0,-34,-14,6
1530606762106065,5,-3,1,34,94,7,-17,-6
1530606762107063,7,2,-5,-66,-108,-17,-10,-14
1530606762107063,-10,0,2,35,76,33,13,-3
1530606762119024,15,1,1,5,-18,-60,-39,20
1530606762119024,0,4,-2,-8,-60,34,-3,-7
1530606762128000,-38,-11,-4,-2,-3,2,0,-6
1530606762128000,10,2,-2,-25,-12,-17,0,11
1530606762142961,9,-15,-3,6,2,7,1,-18
1530606762142961,18,11,-1,4,-7,-14,8,35
1530606762148944,-14,-10,-7,-20,16,-7,-12,-39
1530606762148944,-42,-1,7,49,61,25,12,19
1530606762165898,12,5,-1,-8,-57,-3,3,3
1530606762165898,7,-4,-2,-17,-66,-6,-5,-7
1530606762167893,22,3,0,1,31,16,5,15
1530606762167893,-24,-11,-7,-39,-42,-28,3,1
1530606762188838,5,1,-1,-18,-19,-6,3,-16
1530606762188838,-1,0,1,5,18,68,-8,0
1530606762189835,-11,0,1,27,-20,-16,-8,7
1530606762189835,22,16,1,10,16,15,-1,30
1530606762202800,9,-18,-7,-38,-31,-13,0,-24
1530606762202800,-52,-11,3,34,18,15,-3,4
1530606762209781,15,13,1,-10,0,-3,10,10
1530606762209781,5,-3,-2,-7,-22,4,-19,18
1530606762225738,4,6,-6,-15,11,61,-18,-36
1530606762225738,4,-3,3,-8,-10,-39,8,-5
1530606762227733,-12,-6,1,2,-4,-21,6,4
1530606762227733,24,-5,0,39,17,16,6,11
1530606762248677,-50,6,-1,-6,-4,-12,7,8
1530606762248677,21,-1,-5,-12,1,-11,-9,-5
1530606762249674,12,4,0,11,-17,-3,-6,-23
1530606762249674,5,-12,-3,-26,-10,-1,10,12
1530606762262640,6,6,1,-5,10,35,17,-22
1530606762262640,-13,13,2,17,-16,-46,-10,8
1530606762269621,12,-17,-2,-3,18,12,-6,7
1530606762269621,-17,-14,-5,-16,-3,-5,12,-23
1530606762285578,3,9,7,37,8,-3,-1,17
1530606762285578,7,6,2,-1,-3,-3,-2,-14
1530606762287573,13,10,0,-16,-26,12,1,24
1530606762287573,11,-5,-12,-75,-31,-19,7,-16
1530606762308517,2,-7,4,46,-10,-11,-19,17
1530606762308517,-44,-12,-4,-28,-29,2,-3,-20
1530606762309514,31,1,1,38,-6,4,17,7
1530606762309514,0,7,-3,-7,14,-5,-18,19
1530606762322485,-8,-14,-7,-18,9,-10,-2,-39
1530606762322485,25,7,-3,-4,12,8,1,13
1530606762329461,-38,-9,-2,-9,9,-22,1,3
1530606762329461,-3,0,5,13,-24,2,-4,-14
1530606762345418,4,10,0,1,0,-39,1,28
1530606762345418,42,-2,2,1,3,-4,-1,-39
1530606762347413,-50,3,-1,8,33,17,-6,-6
1530606762347413,-4,-7,2,18,3,-11,8,25
1530606762368357,7,1,-1,-2,22,11,-4,3
1530606762368357,-5,-3,-2,-16,-14,10,9,0
1530606762370352,30,3,5,31,29,-7,14,1
1530606762370352,-5,7,0,11,2,-3,-34,-12
1530606762382319,-16,-8,-6,-24,-25,-6,5,2
1530606762382319,-13,-10,0,1,-10,-17,-2,18
1530606762397279,-6,-4,-4,-5,29,10,-5,-9
1530606762397279,-9,2,-1,-3,-24,-3,13,-1
1530606762406256,14,12,4,-12,-1,14,-5,3
1530606762406256,3,-2,-6,9,9,-58,-11,-4
1530606762407253,-8,-2,0,-12,-12,-4,-7,5
1530606762407253,5,4,1,16,14,11,0,-13
1530606762428197,2,-4,-3,-14,-41,-27,-8,-12
1530606762428197,-13,-2,2,11,10,23,4,27
1530606762430192,17,-2,-3,-10,-5,-1,7,-36
1530606762430192,-29,-5,-3,-4,-21,-4,-2,7
1530606762442160,-8,-1,-2,8,7,0,16,-24
1530606762442160,10,2,2,5,2,-3,-7,3
1530606762451136,24,9,0,-2,15,1,-1,23
1530606762451136,0,-4,-1,3,11,0,3,-15
1530606762466096,-11,-6,-2,-3,11,2,6,15
1530606762466096,-7,4,-2,-13,-44,7,1,-7
1530606762467093,-12,-12,-5,-11,-29,1,-14,11
1530606762467093,6,0,-1,-4,34,-9,14,-18
1530606762488037,0,5,3,13,11,38,-4,13
1530606762488037,19,5,-3,-12,5,-47,30,-7
1530606762490032,-16,-6,-2,-13,-11,1,-17,3
1530606762490032,20,-1,1,36,10,3,-2,-3
1530606762501999,8,2,-1,-11,5,-5,-5,7
1530606762501999,-9,3,-1,4,20,10,6,-5
1530606762510976,-11,0,0,4,18,-3,-1,9
1530606762510976,-13,-9,-3,-10,-12,-5,0,-7
1530606762525935,2,-2,-2,-7,-19,-1,2,5
1530606762525935,5,-2,1,17,15,16,12,4
1530606762526933,-13,-1,2,7,-16,-6,-18,-3
1530606762526933,4,-2,-5,-20,-22,-2,-13,-32
1530606762547877,12,1,-1,13,48,-4,-6,7
1530606762547877,-2,-1,-2,-35,-28,-4,-5,-2
1530606762549872,2,1,7,53,28,35,10,28
1530606762549872,-9,2,4,14,-7,39,-1,-33
1530606762561840,-13,-8,-5,-12,1,-14,-1,3
1530606762561840,11,-3,-4,-3,-17,9,-6,-2
1530606762570816,15,9,-1,-18,4,-3,4,-2
1530606762570816,-14,3,4,1,-33,-6,6,18
1530606762585775,3,-11,-3,18,-13,5,-4,11
1530606762585775,13,6,0,-2,22,27,6,-5
1530606762587771,-2,1,1,8,-9,-43,-17,1
1530606762587771,-9,0,-1,5,7,-17,1,-3
1530606762608714,-3,5,0,-19,-33,-12,-2,-21
1530606762608714,6,0,-2,-4,17,9,-7,15
1530606762609712,-1,-2,-4,-1,-15,-9,12,-16
1530606762609712,-7,-6,-3,-6,1,-2,3,17
1530606762621680,-4,3,1,7,10,-15,-7,3
1530606762621680,-26,-11,0,-13,-10,-3,-11,-13
1530606762630655,19,9,-5,-4,22,10,-14,2
1530606762630655,5,-2,0,-21,1,-13,-13,1
1530606762645615,-1,9,1,-5,7,-19,9,0
1530606762645615,7,0,3,31,-11,35,-26,-5
1530606762647610,-25,-20,-10,-30,-10,-13,6,-2
1530606762647610,17,6,2,6,-1,11,13,28
1530606762668554,10,4,4,11,22,-8,-4,-15
1530606762668554,-16,2,-2,6,1,-2,-1,-4
1530606762669552,-5,-2,-1,5,-7,-13,-2,5
1530606762669552,11,0,-1,-4,-15,-2,-3,-4
1530606762681519,-20,0,2,9,-8,4,5,13
1530606762681519,17,-4,-3,10,37,-3,3,1
1530606762690496,7,0,0,4,13,21,9,-4
1530606762690496,-36,-3,-2,-4,-10,-9,-4,-2
1530606762705465,16,-3,0,-10,16,-10,-7,-6
1530606762705465,-12,-5,-1,-8,-2,0,-4,-1
1530606762707452,3,4,-3,-6,-16,23,2,-12
1530606762707452,13,4,1,4,0,3,0,29
1530606762728394,-20,-16,-5,-5,-2,-8,4,-35
1530606762728394,-2,3,2,22,-2,10,2,2
1530606762730389,19,3,-4,-7,-22,-11,-11,3
1530606762730389,1,-3,-2,-7,10,6,-2,4
1530606762742357,-10,5,0,2,0,29,-10,0
1530606762742357,12,-2,0,4,-5,-21,31,-2
1530606762751333,-13,-11,-1,-7,14,39,-24,-18
1530606762751333,-14,2,0,-5,-44,-2,-4,-15
1530606762765295,1,-4,-3,-5,-16,0,3,9
1530606762765295,-3,1,-1,-23,-16,-5,10,16
1530606762767290,13,-1,3,10,26,-5,10,4
1530606762767290,6,2,-5,2,17,13,-6,-36
1530606762788234,10,-4,-3,-8,-16,-2,3,11
1530606762788234,-1,-1,1,4,-53,-5,0,13
1530606762790235,-4,4,0,5,-6,-2,3,15
1530606762790235,0,-6,-1,12,61,-19,4,2
1530606762802196,2,2,-2,-12,-16,-1,0,-5
1530606762802196,-32,-3,-5,-26,-49,-7,-17,-11
1530606762811173,8,-1,5,19,18,15,-2,1
1530606762811173,9,-6,-8,-28,-18,-23,15,-4
1530606762826132,9,7,0,20,24,-15,-9,2
1530606762826132,-3,-2,1,-4,25,30,-6,4
1530606762827131,-18,-1,0,-14,-12,-32,5,-15
1530606762827131,12,12,4,3,-8,8,2,16
1530606762848074,-18,-21,-4,4,6,18,-7,-24
1530606762848074,-4,-3,-2,9,21,-2,15,-6
1530606762850070,-8,3,-2,-23,-38,-3,-30,-3
1530606762850070,15,9,7,31,-22,-23,-5,0
1530606762862037,13,0,-1,-5,-20,4,9,41
1530606762862037,-4,-11,-9,-8,8,-21,-19,-49
1530606762871013,-13,5,2,3,82,12,8,8
1530606762871013,33,-8,-4,-18,-52,-7,-7,-33
1530606762885972,-8,8,4,54,61,2,8,34
1530606762885972,-24,-8,1,16,13,-6,-1,-7
1530606762886970,10,3,1,-11,-37,-11,13,6
1530606762886970,6,0,5,18,78,53,4,7
1530606762907914,-11,-1,2,-11,-22,-56,-7,-4
1530606762907914,25,1,-5,-13,13,26,-4,14
1530606762909909,3,-4,-4,2,8,-4,-1,-5
1530606762909909,-19,1,1,-4,-8,12,9,0
1530606762921877,24,1,0,-2,19,5,0,1
1530606762921877,-13,9,0,-14,10,-24,-6,0
1530606762930853,-2,-6,0,6,38,10,1,-11
1530606762930853,-1,-7,-3,1,44,0,-5,3
1530606762945812,3,11,2,-1,-15,-1,15,18
1530606762945812,-18,-10,1,6,39,1,13,-12
1530606762947807,12,-5,-6,-22,-25,-1,11,-20
1530606762947807,-1,-1,-3,-14,-6,48,18,-11
1530606762968751,-9,-1,-1,-5,12,-30,-12,16
1530606762968751,0,-1,-3,-5,-14,-19,17,-6
1530606762969749,-11,-5,-4,-13,-37,-27,-11,17
1530606762969749,-6,1,0,-2,4,-14,4,4
1530606762981717,5,1,-2,-13,-17,22,5,-11
1530606762981717,8,0,-1,-13,-51,5,-6,17
1530606762990693,1,0,-3,-22,17,-22,-5,-12
1530606762990693,1,2,0,7,2,-11,-12,24
1530606763004655,0,2,2,5,-12,12,2,-9
1530606763004655,0,1,2,2,-1,33,-30,5
1530606763011636,8,-2,2,27,36,-10,17,-29
1530606763011636,-20,-6,-5,-12,-8,0,-4,6
1530606763028591,19,7,-2,-5,-22,15,-6,14
1530606763028591,-1,-2,0,-11,-19,4,-1,9
1530606763029589,-5,-8,0,2,18,9,9,1
1530606763029589,8,0,0,9,-19,-15,1,1
1530606763041556,-28,-1,1,-5,-4,-8,6,-2
1530606763041556,-7,-1,-4,-15,38,-30,-27,-19
1530606763050532,23,9,1,12,-17,14,25,12
1530606763050532,-4,-8,-1,-1,-19,-28,-27,-3
1530606763064495,-2,-1,-3,-17,-77,-3,-2,-12
1530606763064495,3,-3,-1,13,31,-3,-1,4
1530606763073471,3,8,2,17,-22,-2,5,9
1530606763073471,-6,-16,0,6,-10,72,-17,5
1530606763088431,-5,0,2,19,-7,3,-2,-9
1530606763088431,2,1,2,17,27,-39,5,-3
1530606763089429,-24,3,0,-6,6,28,2,11
1530606763089429,9,1,-5,-30,-31,-37,5,0
1530606763110372,8,-3,-2,-9,-3,15,-2,-14
1530606763110372,16,6,3,11,-14,-5,-22,18
1530606763112367,-27,-12,-5,4,3,2,-5,-5
1530606763112367,0,3,4,16,86,-12,-14,-20
1530606763125333,13,-6,-3,-10,11,1,-2,8
1530606763125333,-4,14,3,18,8,43,10,12
1530606763132314,1,-5,-9,-35,-40,-28,-14,-39
1530606763132314,-30,-15,4,35,-9,0,7,21
1530606763148271,4,3,-2,-11,-11,-15,-3,-25
1530606763148271,24,0,-1,0,16,-29,1,6
1530606763150266,-15,5,5,16,58,18,18,7
1530606763150266,-5,-3,-10,-45,-52,-28,-31,-16
1530606763171210,18,1,-1,11,46,4,-15,-8
1530606763171210,-11,-1,3,8,-36,4,11,3
1530606763172207,14,-21,0,-4,2,14,-7,14
1530606763172207,13,13,0,9,-23,-19,21,-5
1530606763185172,-53,-3,-5,-18,21,15,-12,-14
1530606763185172,11,-12,-1,-9,-56,21,9,-13
1530606763192154,5,9,3,17,-29,-3,-6,10
1530606763192154,23,10,3,2,4,55,-8,15
1530606763208111,0,-3,-5,-14,-29,-29,2,1
1530606763208111,-14,-5,1,29,65,-5,12,-43
1530606763210106,-7,2,2,-5,-29,-11,-15,13
1530606763210106,-2,-7,-1,26,52,-2,-2,-22
1530606763231049,6,-7,-1,-3,5,7,14,18
1530606763231049,20,2,-6,-38,-20,-11,7,15
1530606763232047,-6,4,-2,-20,-15,3,-31,12
1530606763232047,-22,2,4,15,-14,-12,9,-8
1530606763245012,18,-5,2,23,15,-6,2,-9
1530606763245012,-6,0,1,6,20,15,6,-3
1530606763251994,22,4,1,13,34,8,2,27
1530606763251994,-24,3,-3,-47,-104,-23,9,-5
1530606763267951,-3,2,1,0,16,3,-7,-4
1530606763267951,33,0,-1,7,-13,7,-8,22
1530606763269946,-76,-5,-3,-3,-24,-65,-2,-47
1530606763269946,17,-4,-1,5,84,-1,49,-10
1530606763290890,5,1,-1,4,-9,43,0,-18
1530606763290890,-2,2,1,-14,-33,3,-15,0
1530606763292885,37,8,0,4,-73,-4,2,-3
1530606763292885,-12,-4,0,23,82,-5,-1,9
1530606763304853,-8,-1,-3,-16,9,-12,2,18
1530606763304853,-18,2,2,10,18,-9,4,18
1530606763311834,25,-10,-9,-50,-23,26,-16,-46
1530606763311834,-2,-1,-2,-7,-69,-2,28,2
1530606763328788,3,-4,-5,-11,-34,-4,-9,10
1530606763328788,3,-11,-6,6,45,3,-10,16
1530606763329786,-50,9,2,12,8,-7,14,5
1530606763329786,36,4,1,-22,-60,1,-23,4
1530606763350730,-22,-27,-4,2,1,-4,4,-11
1530606763350730,-21,18,-4,-30,-22,-48,8,-8
1530606763352725,2,4,8,16,7,14,-26,9
1530606763352725,6,10,-1,-5,12,-26,2,1
1530606763364692,-41,-5,5,32,57,32,-5,4
1530606763364692,2,-24,-7,-10,-18,8,-8,-25
1530606763373669,18,1,-7,28,46,17,22,13
1530606763373669,23,11,4,3,3,-17,-10,32
1530606763388628,-34,-7,-3,3,42,-19,-7,-10
1530606763388628,16,9,2,-7,4,11,-20,-32
1530606763389626,9,-16,-1,-25,27,-11,15,22
1530606763389626,-29,-8,4,25,-4,15,2,-2
1530606763410570,33,29,9,-2,-4,2,-9,-14
1530606763410570,-14,-3,-1,14,57,18,16,15
1530606763412565,10,-13,-7,-25,-62,-58,-4,-38
1530606763412565,-12,8,1,-10,21,-18,-33,-6
1530606763424532,15,1,3,12,24,12,6,11
1530606763424532,-23,19,7,29,19,2,-8,4
1530606763433509,40,-40,-9,3,7,17,5,1
1530606763433509,-17,14,-11,-6,4,11,-1,2
1530606763448468,-3,33,25,-3,22,-13,0,-8
1530606763448468,38,-7,1,40,42,5,2,3
1530606763449466,4,17,2,17,31,2,-8,36
1530606763449466,-28,-34,-8,21,48,16,23,-11
1530606763470409,20,-7,-15,-26,-63,16,-25,6
1530606763470409,-3,-7,0,14,-21,-19,-33,-18
1530606763472405,-20,14,0,0,0,0,2,12
1530606763472405,-27,-5,0,-16,-31,22,4,-11
1530606763484372,29,-2,-1,19,3,-18,-1,3
1530606763484372,-16,-3,-5,-30,-41,2,12,7
1530606763493348,4,-10,-1,9,-20,6,3,-19
1530606763493348,39,12,9,22,16,8,-28,-1
1530606763508308,7,2,-1,6,-76,-14,11,18
1530606763508308,-17,-10,-3,29,85,10,8,-7
1530606763510303,-5,3,0,-9,-13,16,3,0
1530606763510303,-16,-10,-2,-11,-14,-7,10,3
1530606763531247,17,7,-3,-3,15,0,0,15
1530606763531247,-20,-7,-2,-12,-33,-15,2,-8
1530606763532245,-3,3,1,-6,-13,12,-7,-30
1530606763532245,-2,-7,-2,-30,-57,-13,-2,8
1530606763544212,-1,-5,-7,-15,6,-34,-9,-9
1530606763544212,18,7,0,-20,-27,-4,6,-12
1530606763553188,-14,-1,-1,-3,-2,6,2,5
1530606763553188,-7,5,-3,6,14,-8,-7,-4
1530606763568148,-33,-32,-6,-13,-25,14,-5,-9
1530606763568148,59,9,1,6,18,5,4,6
1530606763570143,-23,1,-1,7,8,-16,-2,-6
1530606763570143,12,10,7,44,40,-16,1,-7
1530606763591087,27,13,-4,-16,-55,-3,7,31
1530606763591087,-16,-11,-8,-52,15,5,12,-20
1530606763592084,-31,2,0,-24,-27,1,5,1
1530606763592084,0,0,0,13,-5,17,1,22
1530606763604052,-7,7,2,12,41,7,-7,-7
1530606763604052,8,-20,-9,-21,-79,-10,1,36
1530606763613028,13,-1,-3,7,19,-21,12,-50
1530606763613028,-9,4,-1,-21,-57,21,5,-15
1530606763627988,-4,-12,-1,1,79,-17,2,5
1530606763627988,24,15,5,27,-46,16,5,9
1530606763629983,-16,-3,-2,-22,-10,19,-40,32
1530606763629983,9,6,2,12,4,1,-5,-24
1530606763650927,-14,-12,-5,3,-3,1,25,-4
1530606763650927,-23,-15,0,4,2,-6,-10,8
1530606763651925,20,5,-1,-15,41,5,7,13
1530606763651925,-20,-9,1,4,23,14,3,17
1530606763664889,-7,17,2,4,-17,12,10,0
1530606763664889,12,-4,-3,-1,2,3,-1,-13
1530606763673866,48,2,5,74,40,6,-1,11
1530606763673866,11,1,-9,-33,-54,11,-9,3
1530606763687829,-37,-8,-1,-24,-38,-2,8,-21
1530606763687829,6,15,2,16,12,39,11,2
1530606763689823,6,7,4,-11,-87,-27,31,35
1530606763689823,-3,-15,-2,21,39,2,-30,18
1530606763710767,-42,-19,-6,-14,-33,-6,-8,-57
1530606763710767,-24,7,8,42,-11,-16,2,-20
1530606763712762,27,8,5,13,36,0,10,37
1530606763712762,26,4,-1,-22,-30,-7,-11,-9
1530606763724729,36,3,-6,-18,0,-24,1,11
1530606763724729,-30,-18,3,3,35,51,-15,6
1530606763733706,-41,-6,-5,20,14,106,75,7
1530606763733706,-14,-6,1,13,46,-91,-48,-26
1530606763748665,20,2,-2,0,16,-1,-11,6
1530606763748665,-14,12,-7,-92,-101,58,31,4
1530606763749663,-7,-4,11,67,30,-87,-20,9
1530606763749663,14,-3,-11,-25,18,21,65,51
1530606763770607,0,-2,6,17,-91,-6,-18,-42
1530606763770607,-16,1,-7,-28,-15,36,3,2
1530606763772602,14,0,-1,-19,38,-49,8,1
1530606763772602,1,-2,1,15,39,17,8,-12
1530606763784569,-1,-8,0,11,31,1,-33,20
1530606763784569,21,2,-6,-27,-90,-7,-32,-7
1530606763800527,-30,-9,-4,-6,65,59,-20,-34
1530606763800527,0,7,3,0,-37,-91,23,9
1530606763807508,3,-11,-2,-6,40,-36,7,31
1530606763807508,8,2,-1,31,33,-10,30,-3
1530606763814489,2,4,2,44,-35,-53,-47,-29
1530606763814489,-15,-4,1,42,33,64,-24,52
1530606763830446,21,-7,-5,-24,-18,21,5,-54
1530606763830446,-29,8,1,2,-1,-128,24,-2
1530606763832442,28,-5,4,7,-128,51,-2,3
1530606763832442,-35,7,1,3,14,91,29,49
1530606763844409,-9,0,-4,7,54,-69,-23,-5
1530606763844409,-3,-3,9,8,64,-52,19,-7
1530606763853386,32,6,-6,-13,22,127,79,-1
1530606763853386,-17,-18,-3,-24,-121,-94,25,-58
1530606763868345,-7,6,13,92,107,116,36,54
1530606763868345,-4,-4,-9,-78,-63,-107,-18,4
1530606763870340,3,3,-7,-35,22,59,-62,13
1530606763870340,4,-16,-10,-38,8,-54,12,-18
1530606763890287,-29,8,-1,-25,-61,32,13,-19
1530606763890287,43,2,2,22,32,12,-17,34
1530606763892282,-48,-10,-7,-57,87,-52,-86,-21
1530606763892282,15,-7,-4,21,2,0,42,3
1530606763904250,30,5,-13,-86,-57,23,-22,-21
1530606763904250,-11,8,2,9,17,51,15,-23
1530606763913225,60,2,14,37,-44,1,6,-17
1530606763913225,-83,-4,3,48,12,-65,-30,-32
1530606763928185,17,5,-10,-88,-40,13,40,43
1530606763928185,-4,-7,4,60,81,93,-97,-10
1530606763930180,53,10,0,-27,-73,-66,47,47
1530606763930180,-5,-4,-14,-128,-57,-39,-45,-79
1530606763951124,-24,0,2,20,-38,32,63,-2
1530606763951124,-30,-7,2,50,-13,-35,-20,29
1530606763952122,10,-1,10,94,42,-19,-17,14
1530606763952122,17,10,0,-8,86,26,-52,2
1530606763964089,-44,-5,-4,-16,-37,-4,-30,1
1530606763964089,27,-5,-11,-4,39,-25,54,-20
1530606763973065,-38,4,2,7,19,64,22,-8
1530606763973065,17,3,1,-29,-58,-36,1,38
1530606763988025,-6,-4,-3,-19,56,-57,-42,-19
1530606763988025,-13,-6,4,21,-34,91,-5,45
1530606763994010,-27,-4,-8,-5,68,-54,80,-30
1530606763994010,4,3,1,0,86,13,-20,-2
1530606764010964,34,-2,-3,42,16,39,-8,-9
1530606764010964,13,-3,-4,-50,-55,-52,-31,1
1530606764011962,-6,12,-9,-68,-78,1,0,32
1530606764011962,21,-11,5,71,18,-25,15,-23
1530606764032905,-17,-3,2,36,-3,-54,-43,22
1530606764032905,-35,13,15,92,115,35,9,-41
1530606764034901,52,-7,-5,-43,-21,-42,-35,-21
1530606764034901,-69,17,3,16,-21,45,6,12
1530606764047865,40,-12,-5,-53,-63,-16,12,49
1530606764047865,2,-16,-4,-14,1,-39,-71,-38
1530606764054847,-28,-1,2,48,21,-28,-31,-2
1530606764054847,21,5,-8,-70,14,6,-27,6
1530606764070804,11,10,13,28,3,39,12,-12
1530606764070804,34,7,-3,-10,-68,113,48,14
1530606764072799,-1,-11,-8,-56,-52,18,-22,-14
1530606764072799,18,-10,-5,22,-21,-89,32,-17
1530606764093743,-36,8,9,41,37,-3,23,38
1530606764093743,3,2,0,-10,46,-52,-33,-62
1530606764094740,-56,-3,-6,-36,-44,-59,-8,21
1530606764094740,44,-7,1,27,17,75,-69,-15
1530606764107705,31,7,-8,-10,-33,28,-2,-22
1530606764107705,-5,-1,1,23,-4,-54,26,2
1530606764114686,-30,-12,-8,-35,-16,-17,50,-11
1530606764114686,-14,-7,4,-24,-49,45,-66,21
1530606764130644,-22,2,6,32,23,52,23,-32
1530606764130644,6,-5,-7,-34,-36,-70,2,11
1530606764133636,25,-2,-4,5,68,-32,-18,-40
1530606764133636,49,9,3,-24,-78,-31,-17,9
1530606764153583,12,-5,-1,16,14,47,16,-12
1530606764153583,-20,1,0,-13,-10,-96,42,99
1530606764154580,-32,3,3,7,-22,64,-32,-79
1530606764154580,37,4,-5,-4,58,74,38,15
1530606764167545,-16,-1,5,10,47,-14,-28,-36
1530606764167545,-27,-8,-6,2,53,40,9,-18
1530606764174526,46,6,3,8,-19,5,42,35
1530606764174526,-24,6,2,13,30,31,9,10
1530606764190484,10,-8,-6,-12,-37,-61,-16,-28
1530606764190484,-34,3,6,3,-28,36,5,2
1530606764192479,76,-2,2,-9,0,-51,-9,61
1530606764192479,-74,-16,-14,-2,-18,64,-14,-96
1530606764213423,6,3,-4,-21,39,-23,26,31
1530606764213423,-11,14,3,-9,-57,-22,10,19
1530606764214420,-19,-23,-1,4,-7,5,-22,-9
1530606764214420,34,7,0,-16,47,26,41,21
1530606764227385,-41,-2,-7,-50,-37,-69,-19,-17
1530606764227385,55,1,5,21,-79,99,-19,9
1530606764234367,-39,10,-7,-18,46,11,52,7
1530606764234367,34,1,4,57,21,85,44,21
1530606764250323,-10,-2,-6,-15,-62,70,53,38
1530606764250323,-55,-9,-7,-57,-55,-78,-3,-2
1530606764252319,54,12,9,33,25,47,-27,-47
1530606764252319,-39,-13,-3,-10,-8,50,0,8
1530606764273262,6,5,-1,17,-49,-8,-10,8
1530606764273262,38,-6,3,45,91,-33,-22,-24
1530606764275258,-46,-8,-7,-39,-61,-20,17,40
1530606764275258,13,8,7,14,59,28,-51,-11
1530606764287225,5,8,4,39,26,-112,-32,3
1530606764287225,-11,-6,-3,-23,-40,13,-42,11
1530606764294206,-15,2,-2,-38,-74,50,-5,-19
1530606764294206,16,-1,2,-4,-35,-3,-22,20
1530606764311161,35,-1,3,2,21,-71,28,17
1530606764311161,-31,-15,-10,-22,2,61,24,-36
1530606764312159,-63,-3,3,12,2,88,-22,18
1530606764312159,79,7,-6,-35,-49,-73,33,-17
1530606764333103,-20,10,5,34,62,8,6,28
1530606764333103,9,-2,0,-15,-16,-18,-8,-104
1530606764335097,-4,3,-4,7,70,-12,-12,39
1530606764335097,17,-7,-1,0,-35,-112,22,18
1530606764347065,-23,-3,0,10,19,-6,-27,1
1530606764347065,-8,20,0,-29,11,73,-7,23
1530606764356042,-57,-14,-4,20,-26,-50,-61,-26
1530606764356042,-10,-15,-4,-12,-54,-26,20,-14
1530606764371002,66,-13,-11,-41,-35,42,-2,-1
1530606764371002,-51,-7,-3,10,-45,-25,58,43
1530606764371999,0,7,7,14,49,11,-47,-43
1530606764371999,15,18,2,-18,10,19,48,22
1530606764392942,-17,-11,-6,-30,-20,-29,-52,-33
1530606764392942,3,-2,10,52,37,-91,74,24
1530606764394937,68,-3,-5,25,26,-13,9,-10
1530606764394937,-90,-6,1,6,3,-7,-4,-8
1530606764406905,32,10,1,-13,-19,-50,9,-15
1530606764406905,63,5,-1,34,20,11,-20,18
1530606764415882,-22,6,-1,-17,-9,-63,12,22
1530606764415882,-4,3,-1,11,22,-13,-18,21
1530606764430841,-20,-15,7,59,17,27,-7,-7
1530606764430841,4,-2,-3,7,24,43,-38,3
1530606764432836,5,2,-2,10,-21,30,16,2
1530606764432836,-12,-1,-1,-24,-19,23,54,-6
1530606764452782,29,16,1,-41,-54,2,-5,-5
1530606764452782,34,-21,-5,2,20,-17,3,7
1530606764454777,-56,-3,-2,12,53,-43,26,15
1530606764454777,36,14,0,6,15,-23,-17,-25
1530606764475721,-9,19,7,-7,-11,17,6,-1
1530606764475721,18,-20,-11,-65,-16,-35,-1,2
1530606764477716,10,-1,2,31,3,15,-13,-19
1530606764477716,-60,1,5,-3,18,-75,19,21
1530606764490681,5,-10,-3,25,36,20,14,-23
1530606764490681,18,6,-4,-25,13,19,-10,13
1530606764492676,53,-4,-3,-35,-18,66,-10,-18
1530606764492676,-52,1,0,27,59,17,-79,3
1530606764513620,0,-24,-13,-64,-16,-72,27,17
1530606764513620,-10,14,4,22,46,-9,-36,-21
1530606764514617,23,16,4,-24,-106,-16,41,-3
1530606764514617,45,-7,2,41,0,5,22,-5
1530606764526585,-16,3,0,18,11,39,-12,21
1530606764526585,-59,-6,-10,-46,-17,27,-4,-47
1530606764535561,15,2,-8,-45,6,-55,0,33
1530606764535561,-12,-27,-1,25,27,42,26,-8
1530606764550521,-12,-1,5,9,-3,45,-13,18
1530606764550521,38,14,5,31,23,-25,14,-44
1530606764552516,-20,8,2,-19,-41,-7,-17,22
1530606764552516,47,4,-5,-11,-52,-8,12,7
1530606764573459,-6,-5,-6,-10,11,-2,-28,-71
1530606764573459,-28,-3,5,-12,-9,-11,1,18
1530606764574457,-40,-9,-7,-25,-22,-6,19,4
1530606764574457,-15,0,-3,18,32,18,-26,-24
1530606764587422,13,-6,-6,-9,-8,23,7,14
1530606764587422,53,8,8,24,-47,34,51,25
1530606764596398,-83,-17,1,26,28,-38,-16,-12
1530606764596398,45,18,-2,-20,-27,-13,-47,25
1530606764610361,7,4,7,17,100,48,-1,-7
1530606764610361,-15,-22,-11,-3,-30,-62,-8,-5
1530606764612356,44,6,-6,-18,-27,6,1,31
1530606764612356,-4,0,5,6,-16,24,-25,-44
1530606764633300,-59,4,5,38,5,22,20,3
1530606764633300,24,14,-1,-15,13,5,-10,7
1530606764635294,-4,-11,3,13,2,35,28,-5
1530606764635294,-38,3,-3,-22,46,-25,-53,-11
1530606764647263,36,-3,-8,-10,19,-28,7,28
1530606764647263,2,-2,-3,49,-4,44,-21,-22
1530606764656239,-41,-2,6,28,63,20,-8,45
1530606764656239,-1,-5,-2,-12,-53,-9,30,-37
1530606764671198,5,-1,3,-1,-42,-12,0,13
1530606764671198,7,7,0,6,21,18,-25,12
1530606764672196,57,14,-1,-12,-12,-20,27,-6
1530606764672196,-7,-15,-2,-34,-50,-60,-32,10
1530606764693139,-22,-4,-4,3,2,-8,-12,1
1530606764693139,-1,16,0,-23,-21,9,8,6
1530606764695135,2,-7,0,14,-46,-18,-40,-1
1530606764695135,19,-2,-12,-55,30,-50,9,-14
1530606764707102,-36,-17,-3,2,24,15,18,-25
1530606764707102,-10,1,0,0,23,90,-30,13
1530606764716078,-41,7,0,-2,-77,-15,8,-21
1530606764716078,37,-3,-1,6,0,13,-10,47
1530606764731038,28,18,1,-25,-7,0,5,-45
1530606764731038,-40,-11,11,1,4,-17,7,8
1530606764732036,106,-1,-5,37,70,-45,-22,-32
1530606764732036,-78,0,0,13,-8,61,26,18
1530606764752980,0,2,-4,-22,-47,11,37,18
1530606764752980,-24,1,3,-3,-5,-47,-30,4
1530606764754975,-16,-18,-3,-5,-3,10,3,-14
1530606764754975,17,-2,5,35,-35,-5,9,15
1530606764766942,60,11,1,33,32,-28,23,5
1530606764766942,-47,-5,-10,-13,-18,-7,-18,-34
1530606764775919,-4,-6,-2,11,53,-8,-1,17
1530606764775919,7,0,-4,-27,5,-3,16,-16
1530606764790878,-33,-6,5,38,20,75,-21,36
1530606764790878,45,5,-1,0,-10,-20,-2,-33
1530606764792873,4,5,0,-7,14,3,7,-21
1530606764792873,25,-7,-2,12,3,-16,22,28
1530606764813817,-10,-3,-10,-31,-14,-99,-28,16
1530606764813817,-16,-10,-3,-33,-25,10,42,27
1530606764814815,-12,5,3,22,70,0,2,0
1530606764814815,2,-2,1,-2,-8,28,6,-20
1530606764826782,1,-7,1,0,-8,-10,-31,0
1530606764826782,5,2,-8,-58,-8,12,-39,0
1530606764835758,24,-3,4,25,37,29,-24,-7
1530606764835758,-3,3,8,36,38,21,12,10
1530606764850718,-24,-12,-5,8,22,9,45,-1
1530606764850718,28,3,-2,-16,-28,-48,60,-13
1530606764852713,3,-2,-3,-21,22,6,17,4
1530606764852713,11,16,-7,-12,4,-56,-19,-14
1530606764873657,-23,-19,0,-17,-51,30,-21,53
1530606764873657,22,-2,1,42,19,18,67,-37
1530606764874654,55,7,1,11,-10,79,11,25
1530606764874654,-80,-9,-8,-23,-25,-17,-60,53
1530606764886622,18,3,-6,-8,-25,-83,-32,-97
1530606764886622,0,11,-2,-40,-9,76,2,37
1530606764895598,60,-6,4,34,-41,-125,8,57
1530606764895598,-34,-7,1,21,90,90,38,-72
1530606764910558,-19,-2,-4,8,17,11,-21,10
1530606764910558,8,5,7,24,76,-2,-1,2
1530606764916542,-30,5,7,40,51,10,-4,-2
1530606764916542,17,-5,1,-20,-59,-55,13,0
1530606764940478,47,8,0,11,56,16,19,3
1530606764940478,-8,-6,-8,-11,-9,22,8,-16
1530606764942473,5,11,2,-25,-51,-5,-22,-11
1530606764942473,-12,-4,-1,14,0,15,4,-1
1530606764946462,-26,-11,-10,-67,-7,19,4,6
1530606764946462,0,-5,2,45,-52,-13,-27,9
1530606764956436,-32,-1,0,-26,0,33,-17,-25
1530606764956436,21,9,1,11,28,-26,9,4
1530606764970398,-9,0,5,3,-32,43,23,9
1530606764970398,-19,-5,-3,16,16,-83,-18,-8
1530606764977379,22,0,-8,-19,-55,10,-32,-17
1530606764977379,9,2,3,5,-1,-20,63,-41
1530606764993337,12,13,5,-15,16,21,21,17
1530606764993337,44,1,-3,2,-42,-1,3,56
1530606764995332,-84,-13,-4,14,43,69,-18,-94
1530606764995332,-8,-9,-9,-34,-38,-64,-49,26
1530606765016275,-9,-1,8,73,23,16,37,5
1530606765016275,3,6,4,10,33,-53,29,-13
1530606765017273,20,9,-1,-23,-18,17,-3,14
1530606765017273,4,-7,-6,-39,-52,50,-10,19
1530606765030238,-15,11,13,51,-30,-12,17,-15
1530606765030238,-16,-13,-4,45,47,65,11,-11
1530606765037220,19,9,-8,-32,-46,-40,10,18
1530606765037220,-48,-10,1,30,82,40,12,-6
1530606765053177,25,-6,1,-16,-65,-10,-19,-6
1530606765053177,-32,-5,-12,-51,-67,-25,-30,1
1530606765055172,17,9,14,71,22,-23,8,3
1530606765055172,1,7,-1,-36,-38,97,28,-8
1530606765076115,-15,1,-4,-10,106,-39,-26,-9
1530606765076115,-26,-3,5,-18,14,-10,4,43
1530606765077113,-18,0,-8,-9,-22,32,19,-67
1530606765077113,80,5,5,35,43,-6,-22,25
1530606765089081,-60,-12,-10,0,-11,-20,-6,-14
1530606765089081,-24,-14,0,-13,4,-1,-11,17
1530606765098056,20,14,-2,-39,-2,-8,-4,20
1530606765098056,3,6,5,0,-17,56,41,6
1530606765113017,23,0,-3,5,-25,-48,-12,-13
1530606765113017,-33,1,5,28,22,10,0,-12
1530606765115011,44,-2,-1,-22,-49,-35,5,25
1530606765115011,-6,2,0,48,-16,-68,-27,0
1530606765135955,-11,-15,-4,-17,-19,74,19,-8
1530606765135955,9,-14,-1,21,8,-28,-48,-13
1530606765137950,-94,-11,-7,0,16,5,16,8
1530606765137950,61,9,-2,-35,-56,-47,-28,-3
1530606765149918,38,20,2,30,59,34,1,19
1530606765149918,56,8,2,-34,-81,-8,25,-10
1530606765156899,-106,-29,-4,-3,-1,1,6,6
1530606765156899,14,-20,-7,35,26,18,-13,-7
1530606765172857,6,-6,-5,-37,-41,-12,-7,-5
1530606765172857,21,31,2,-7,0,-24,29,-22
1530606765174852,82,13,6,-23,-24,-30,-3,29
1530606765174852,-70,-16,-5,-16,0,-2,9,-24
1530606765195795,34,-4,1,0,-33,-43,-15,41
1530606765195795,-63,15,-8,-15,65,7,-39,0
1530606765197790,15,-1,-7,55,29,34,-37,-36
1530606765197790,7,35,0,-16,-5,-9,3,36
1530606765209758,16,8,12,15,32,13,-15,-15
1530606765209758,-1,0,3,-1,-78,34,20,-10
1530606765216739,-34,-25,-3,-10,2,-27,9,-18
1530606765216739,14,-21,-11,-43,-22,94,-3,-5
1530606765233694,11,10,-1,11,-24,-84,5,24
1530606765233694,-28,-6,3,-3,-25,13,-9,15
1530606765234691,79,-25,-15,-10,42,1,-16,2
1530606765234691,-8,1,-2,-23,-46,13,8,-8
1530606765255635,-51,17,12,7,15,-30,-5,-28
1530606765255635,-4,-39,-9,8,32,23,-9,-8
1530606765257630,-11,72,-1,-25,-24,-14,42,11
1530606765257630,17,29,18,-12,-64,-31,-52,-3
1530606765269598,16,17,0,18,13,34,-27,4
1530606765269598,7,-11,-4,-12,19,-11,10,17
1530606765278574,-6,-35,1,3,-53,4,3,-23
1530606765278574,-29,-10,-8,-2,-7,-21,10,18
1530606765293534,-12,7,-10,-5,-27,11,36,17
1530606765293534,-8,-13,-5,-20,15,6,-37,-53
1530606765294532,-36,-5,7,2,15,21,-18,30
1530606765294532,69,14,-6,-8,15,-81,-8,-8
1530606765315475,-60,-25,-4,7,15,19,-6,-19
1530606765315475,9,-3,-8,2,-30,15,8,18
1530606765317470,-23,15,7,-26,-4,-21,3,-3
1530606765317470,37,1,12,33,29,-11,22,-10
1530606765329438,16,-16,-6,-25,-22,-6,-11,20
1530606765329438,-43,38,5,10,-8,-5,-19,-24
1530606765338414,24,-27,-15,-17,-39,6,-8,-5
1530606765338414,7,-10,-3,26,71,-16,28,22
1530606765353374,-28,-29,-1,-24,18,-11,-22,-18
1530606765353374,-7,18,1,5,-27,3,13,-2
1530606765355369,77,36,6,-6,29,19,-9,1
1530606765355369,-69,-25,-1,16,-4,18,-39,1
1530606765376313,18,11,1,21,58,24,-19,-7
1530606765376313,52,9,1,6,-8,-2,2,14
1530606765377310,-97,-15,-6,-35,2,-16,10,9
1530606765377310,63,1,1,5,-16,3,-12,0
1530606765389278,-25,6,-6,-20,-31,10,14,-15
1530606765389278,48,-18,4,3,33,-10,1,3
1530606765398254,-82,1,4,7,12,-32,27,23
1530606765398254,22,2,-3,-2,-15,8,23,-20
1530606765413214,61,3,-6,-13,-5,-2,-2,-4
1530606765413214,-12,-28,-11,-31,15,-4,22,20
1530606765415209,3,19,10,45,-64,-19,-17,-24
1530606765415209,-67,-14,6,8,62,8,31,4
1530606765436152,32,9,4,-23,-7,-31,-15,11
1530606765436152,22,3,-7,12,-9,10,-37,-17
1530606765437150,2,-27,-8,-3,10,18,19,4
1530606765437150,-55,-11,-6,-5,3,10,26,-11
1530606765449118,36,6,-1,-30,-72,-5,19,-10
1530606765449118,28,7,1,-10,18,11,-31,13
1530606765458094,-47,3,-2,2,-36,-14,-5,7
1530606765458094,38,-17,-3,-4,-4,1,12,-8
1530606765473054,-69,-8,-2,5,-6,28,-5,-7
1530606765473054,-5,-14,2,12,-4,-19,7,33
1530606765475049,22,13,3,6,106,5,-1,-8
1530606765475049,7,7,0,7,-15,0,-36,-30
1530606765495993,-18,-6,-4,9,9,20,9,-14
1530606765495993,0,20,6,17,9,-10,5,8
1530606765496990,19,-18,-7,-55,-64,-15,-20,-26
1530606765496990,-20,1,1,15,2,37,6,17
1530606765508958,29,2,2,36,32,-11,3,0
1530606765508958,-39,1,-2,-19,10,4,13,-15
1530606765518931,54,-13,-5,-6,-10,-19,-20,28
1530606765518931,23,-5,-6,-4,32,8,-3,-15
1530606765532894,10,11,2,-4,-15,15,12,-10
1530606765532894,-92,-3,10,25,-36,-19,19,10
1530606765534889,21,-2,-4,30,33,41,-24,-6
1530606765534889,-17,15,-3,-14,-14,19,19,28
1530606765555832,30,-2,-2,-6,-39,-35,-34,-41
1530606765555832,23,-21,-6,-22,-11,-10,22,-2
1530606765557827,12,7,7,16,-71,-5,8,20
1530606765557827,-13,13,-1,-10,6,21,1,-3
1530606765569795,-12,-5,-8,-7,12,-28,-26,-18
1530606765569795,16,5,4,12,1,7,-27,13
1530606765578772,13,-14,-1,23,10,-22,15,-27
1530606765578772,-24,3,-1,-6,-17,-26,-31,18
1530606765593731,-10,-2,-2,-21,5,11,11,4
1530606765593731,17,11,2,3,-43,-16,-5,-24
1530606765594729,-15,1,1,17,94,32,6,21
1530606765594729,-52,1,0,3,29,-26,6,-5
1530606765615672,23,-13,-3,3,32,23,10,9
1530606765615672,97,4,-7,-10,28,-4,-5,-3
1530606765617667,-70,-5,1,-10,-16,16,-11,-1
1530606765617667,-1,0,-2,-16,-14,0,-3,-6
1530606765629635,41,4,5,14,-30,-24,-28,23
1530606765629635,0,-8,-10,-44,-26,26,16,-8
1530606765638611,-6,-6,2,10,-9,-10,7,-4
1530606765638611,-47,-3,0,3,-62,4,-19,-20
1530606765653571,15,-3,-5,-7,78,15,14,25
1530606765653571,-1,11,3,14,-9,-35,11,0
1530606765654569,9,-5,-3,-2,69,-4,-4,-29
1530606765654569,19,-1,1,10,-48,-17,-9,-3
1530606765675512,-11,7,4,5,6,-2,28,8
1530606765675512,-13,-9,-2,3,-4,-8,3,-2
1530606765677507,-33,2,2,11,0,28,-15,25
1530606765677507,60,7,-6,-12,7,-19,5,-11
1530606765689475,-63,-23,-9,-15,-29,16,1,23
1530606765689475,46,6,7,17,-7,-2,-7,-9
1530606765698452,-8,6,-1,-24,-5,1,20,29
1530606765698452,12,-6,0,-18,-20,-33,2,-7
1530606765713411,-3,-3,-4,22,-31,11,-63,10
1530606765713411,-48,-18,-4,-4,-11,33,-6,10
1530606765715406,61,17,5,20,4,2,18,7
1530606765715406,-20,3,-3,-7,-12,16,3,-11
1530606765735352,3,-2,-1,-21,-51,4,28,-18
1530606765735352,-34,-5,6,43,61,-38,9,5
1530606765737348,11,-1,-6,-40,-42,10,-9,-6
1530606765737348,-8,-7,-6,18,-21,2,-15,-4
1530606765749315,-4,9,8,24,-10,-13,40,-14
1530606765749315,-14,-13,-9,-65,-44,19,-12,17
1530606765758291,35,-1,-10,-59,-53,-39,17,2
1530606765758291,7,-14,-4,-8,21,31,0,-11
1530606765773251,-22,2,-3,8,-7,-50,-18,-17
1530606765773251,21,8,-3,-21,7,25,-6,31
1530606765775246,-18,-8,-8,-11,-84,-8,0,4
1530606765775246,31,12,11,20,75,-12,0,-11
1530606765796190,-66,-15,7,8,-11,9,-3,-1
1530606765796190,-20,-4,5,14,21,-4,5,-13
1530606765797187,-8,-6,-7,-15,-10,-7,-10,7
1530606765797187,86,12,-12,-27,-58,-6,18,28
1530606765809155,0,-6,-3,7,34,24,0,-41
1530606765809155,-22,5,7,-6,25,-12,-8,1
1530606765818131,13,4,9,50,47,11,41,47
1530606765818131,-63,-5,-2,19,23,31,30,-15
1530606765833091,57,-1,-3,-40,-28,-58,-12,18
1530606765833091,-51,-9,-7,3,-20,29,41,-8
1530606765835086,34,10,5,23,45,-14,-20,5
1530606765835086,-36,-12,-2,-7,2,1,-7,-4
1530606765856029,19,-3,-2,-7,23,41,18,18
1530606765856029,37,12,-6,-26,-33,-37,-2,-14
1530606765857027,-24,-3,-1,-18,5,-7,34,45
1530606765857027,5,4,7,34,22,2,-53,-68
1530606765868995,5,4,0,18,-28,33,26,20
1530606765868995,-10,0,-5,-7,64,31,-25,-7
1530606765878969,13,-3,1,17,56,6,13,-35
1530606765878969,25,3,-1,-36,-36,-34,8,74
1530606765892931,-96,2,5,29,40,9,-11,-63
1530606765892931,66,-7,-7,2,-6,-28,1,29
1530606765899912,34,5,-4,-8,-47,14,-26,-26
1530606765899912,-79,-15,6,4,38,8,6,18
1530606765915869,85,17,0,25,20,38,3,20
1530606765915869,-41,0,-4,-15,-76,-34,-8,-36
1530606765917864,-15,-8,7,41,31,4,21,-6
1530606765917864,24,12,3,43,-25,-19,-26,17
1530606765938808,21,-3,-1,-32,-20,7,13,19
1530606765938808,7,3,1,37,10,8,-13,-21
1530606765939806,19,-5,-11,-66,-47,7,8,-4
1530606765939806,-31,-6,-2,8,34,-48,10,10
1530606765952771,5,0,1,1,14,-14,4,-52
1530606765952771,0,-16,-5,-12,-57,16,-7,9
1530606765959752,-30,7,-3,-42,-20,-11,-26,-25
1530606765959752,18,-6,3,32,51,18,12,26
1530606765975709,10,11,-5,-33,-49,-9,-15,23
1530606765975709,16,9,10,18,-23,18,5,-24
1530606765977704,-17,-8,-4,-17,37,-64,-24,-34
1530606765977704,-38,0,-7,-40,-110,21,1,-11
1530606765998648,39,-8,-2,50,29,3,2,29
1530606765998648,-30,-8,0,-14,-15,-5,33,6
1530606765999646,-3,3,-5,3,54,20,-51,-23
1530606765999646,44,0,2,-37,-41,0,15,25
1530606766012611,-16,4,-4,-23,7,2,-5,-32
1530606766012611,8,10,8,32,51,22,-87,12
1530606766019592,25,-15,-3,-3,-50,-16,-1,0
1530606766019592,57,10,-4,-13,19,9,30,-2
1530606766035549,-41,-8,1,23,42,23,-19,21
1530606766035549,13,3,-2,-9,10,-13,18,-27
1530606766037545,-23,1,0,-18,-40,17,9,33
1530606766037545,25,2,8,62,67,-3,-11,-25
1530606766058488,19,-8,-3,-16,-46,-30,-2,-32
1530606766058488,6,6,4,15,21,7,8,4
1530606766059486,-30,7,6,62,70,5,-9,-1
1530606766059486,-6,-10,-8,-27,12,-32,-31,-21
1530606766072451,-39,5,2,-18,46,42,-4,14
1530606766072451,31,-3,2,56,-13,-53,27,18
1530606766079432,17,11,-1,-19,1,-2,-33,-54
1530606766079432,-7,-8,-1,16,-6,-13,32,-6
1530606766095389,34,7,-8,-2,-3,0,11,28
1530606766095389,13,2,-1,-16,31,-4,-71,-56
1530606766097384,-60,-35,6,20,-38,15,19,24
1530606766097384,-50,-3,-8,-39,-15,-10,-5,-22
1530606766118328,0,7,-1,-6,-4,-17,-5,19
1530606766118328,69,9,-1,-16,-20,15,38,45
1530606766120323,-71,7,-4,0,-33,10,8,-10
1530606766120323,26,5,8,0,5,-1,-27,-2
1530606766132291,-58,-19,0,-8,-7,-13,7,12
1530606766132291,-35,6,-5,0,-5,-36,-4,12
1530606766139272,76,4,3,4,1,14,5,3
1530606766139272,-14,1,-8,-45,-20,2,7,18
1530606766156227,-32,0,5,24,-88,-31,17,0
1530606766156227,-3,-8,-7,-35,-17,67,-1,0
1530606766157224,2,-4,10,71,31,0,29,-19
1530606766157224,36,10,-8,-5,-49,-3,2,15
1530606766178168,-4,-11,-4,-49,-26,-13,-4,-16
1530606766178168,-45,-10,-6,16,53,2,48,-26
1530606766180163,14,13,5,-3,-14,-10,-2,22
1530606766180163,24,0,-1,-1,-14,17,3,-26
1530606766192131,24,0,1,14,52,53,-6,48
1530606766192131,-21,-10,-2,-4,9,-51,-34,-39
1530606766201107,33,3,-5,-15,-49,8,-2,7
1530606766201107,-83,-24,-13,-8,21,-23,-13,-12
1530606766216067,5,1,0,-16,-3,-6,-16,-15
1530606766216067,-2,-1,-1,0,71,10,10,42
1530606766217064,-12,1,-2,1,-3,-4,1,-37
1530606766217064,36,-9,0,1,-26,-11,-16,-17
1530606766238008,-14,1,0,41,21,-17,20,23
1530606766238008,-16,-2,-1,-19,-35,55,7,21
1530606766240003,27,0,3,10,10,-9,-21,18
1530606766240003,39,12,-2,1,41,11,18,-13
1530606766251971,-33,-5,1,-1,7,-13,-13,-17
1530606766251971,23,-11,-1,5,-28,-12,36,8
1530606766260947,-36,2,7,13,60,13,-4,23
1530606766260947,-16,-1,-1,-29,-40,-11,31,20
1530606766275907,62,4,-10,11,19,13,12,-13
1530606766275907,-95,1,10,57,49,5,-21,-20
1530606766277901,64,-1,-5,-12,-50,2,-2,-19
1530606766277901,-19,12,3,28,73,3,8,2
1530606766297848,-57,-13,1,-12,-44,-9,-2,-15
1530606766297848,57,3,-4,-3,-23,-3,1,26
1530606766299843,-56,-10,-12,-7,-18,-13,11,-38
1530606766299843,66,4,0,-5,-30,11,-10,25
1530606766311811,30,14,8,11,56,1,-13,9
1530606766311811,-34,-6,-1,-20,-23,-6,-5,-21
1530606766320787,-5,5,4,-15,10,-5,-6,53
1530606766320787,-14,-17,-2,25,-23,5,-14,-32
1530606766335747,-5,-5,-9,-18,-13,1,17,-29
1530606766335747,39,9,-2,-26,-13,-8,-22,36
1530606766337742,14,2,-2,-2,19,29,15,-20
1530606766337742,-52,0,15,18,-17,0,-21,15
1530606766358685,-35,-8,-7,7,60,-13,8,14
1530606766358685,36,10,-2,-13,13,-9,-25,-41
1530606766359683,-39,-15,-2,-3,33,1,0,29
1530606766359683,16,-12,-9,-20,-3,3,-6,-13
1530606766371651,42,18,2,-23,-17,-33,-21,-19
1530606766371651,-37,22,12,11,-19,31,-7,6
1530606766380627,8,-13,2,21,63,-23,-39,-30
1530606766380627,-1,-4,6,27,44,8,22,35
1530606766395587,25,-8,-2,-11,-22,-12,-8,-22
1530606766395587,-30,-11,-15,-22,-24,-6,7,3
1530606766397582,4,3,-5,-15,-27,-11,0,-14
1530606766397582,15,9,9,14,6,-9,-11,15
1530606766418525,5,-5,-1,-21,-75,12,-2,-1
1530606766418525,-17,-1,3,28,54,-3,9,16
1530606766419523,1,-1,-4,-12,-41,2,10,-74
1530606766419523,-3,0,-3,4,-36,0,-5,29
1530606766431491,8,3,-5,-46,-18,24,16,11
1530606766431491,7,-7,2,27,30,-12,-30,6
1530606766441464,-58,0,-4,-10,-9,2,23,35
1530606766441464,40,3,-8,-10,-5,-20,-4,-23
1530606766455426,33,8,9,-1,-26,12,-15,-11
1530606766455426,-49,-18,-10,-32,-31,-5,12,-9
1530606766457422,49,5,3,21,-55,-9,29,16
1530606766457422,-45,-1,-1,-26,7,94,-1,8
1530606766478365,1,1,0,23,-34,-15,-14,6
1530606766478365,1,-18,2,11,41,3,6,-23
1530606766480360,2,0,-5,-6,-30,-7,13,7
1530606766480360,8,5,-6,-2,0,-13,8,3
1530606766492328,4,7,-2,15,-40,-9,-9,-4
1530606766492328,-8,-6,-4,-5,11,-8,13,8
1530606766501304,-1,-6,-4,-16,25,-4,-33,-11
1530606766501304,28,8,6,20,-35,-11,-11,2
1530606766516264,-28,-1,-4,14,48,-11,4,-26
1530606766516264,39,3,-3,-18,-64,5,4,3
1530606766517261,-3,-4,-4,8,33,6,10,5
1530606766517261,-39,-5,-3,-63,-20,-24,-17,-11
1530606766538205,-5,6,9,28,-11,1,9,28
1530606766538205,-37,-4,-1,16,58,-40,-18,-26
1530606766540200,21,4,-4,-27,10,14,-17,-11
1530606766540200,33,6,4,44,46,-67,9,4
1530606766552168,9,-6,-3,-12,-31,47,1,-22
1530606766552168,-39,2,2,23,22,5,-2,22
1530606766561144,9,-5,-2,-48,-79,-5,8,13
1530606766561144,18,9,2,25,81,32,-11,-15
1530606766576104,-1,-6,-7,-20,7,-18,-14,9
1530606766576104,43,1,-7,-37,-86,20,2,-3
1530606766577102,-34,-5,-2,-4,-21,-12,-32,3
1530606766577102,-21,6,7,12,5,3,31,-2
1530606766598045,13,-12,-3,-11,-9,-11,-12,10
1530606766598045,4,-5,-3,1,65,16,6,-7
1530606766600040,33,13,-1,-17,13,4,-17,-17
1530606766600040,-20,-8,-4,2,17,-8,-27,-5
1530606766612008,-19,9,8,35,-11,11,-2,22
1530606766612008,28,4,-1,-25,-30,-60,6,-5
1530606766620984,5,0,8,78,4,0,19,40
1530606766620984,-5,-4,-6,-2,-51,7,2,-55
1530606766635944,-30,-3,-9,-65,-20,-9,-1,-21
1530606766635944,48,2,12,63,1,9,-9,21
1530606766637939,0,4,-5,-9,-11,-18,22,22
1530606766637939,-23,-11,1,-30,-6,48,-24,10
1530606766657885,-39,-9,1,15,56,-33,-7,-4
1530606766657885,25,9,0,29,-2,-4,21,1
1530606766659881,20,6,3,27,26,-3,-12,-16
1530606766659881,9,-11,-4,-10,-40,9,-15,23
1530606766671848,-11,0,-3,-11,56,-54,31,-13
1530606766671848,-14,-4,2,-28,-56,24,1,-15
1530606766680824,-3,-8,-1,3,31,-6,16,34
1530606766680824,-19,4,-6,-65,-69,-20,-2,-10
1530606766695784,49,-1,3,34,25,3,-14,-18
1530606766695784,-15,1,0,2,3,0,2,4
1530606766697779,-13,-1,4,-3,-18,2,-44,-13
1530606766697779,8,-4,-9,-21,25,-3,15,-7
1530606766718723,-7,-3,-7,-2,71,0,-8,2
1530606766718723,8,8,3,-41,-20,5,-1,2
1530606766719720,16,-4,1,38,-3,28,-15,-19
1530606766719720,31,6,0,49,44,-30,25,26
1530606766731688,-24,-5,-3,-12,26,8,-15,-11
1530606766731688,14,6,-4,-47,-14,5,-2,-13
1530606766740664,-55,-7,1,1,2,-48,-19,-1
1530606766740664,-6,-1,5,1,-5,-17,17,-30
1530606766755624,39,6,-3,6,-40,-3,7,32
1530606766755624,-5,-8,-6,-17,5,24,-2,-18
1530606766757619,-1,5,-4,-51,-10,2,16,10
1530606766757619,-16,-2,1,49,39,26,31,0
1530606766778562,-38,-5,4,-10,-19,-4,-6,-13
1530606766778562,36,-1,-5,-15,-23,-9,9,20
1530606766779560,5,7,6,71,59,26,-50,-22
1530606766779560,-15,-5,0,6,-8,-17,-7,15
1530606766791528,-16,5,-1,-19,-19,28,7,22
1530606766791528,-15,-9,2,23,7,-5,11,-25
1530606766800504,45,4,-4,0,11,19,6,-12
1530606766800504,-24,-11,-7,-54,-67,-21,-11,15
1530606766815464,17,0,2,33,-14,-43,-41,8
1530606766815464,-17,1,-5,-12,-10,-3,-6,-5
1530606766822445,3,-4,-1,-20,-75,1,18,1
1530606766822445,1,5,8,65,97,34,-13,10
1530606766838402,18,-7,-6,-12,-21,54,28,-18
1530606766838402,-14,4,-3,56,49,-15,-25,-14
1530606766840398,-10,-5,6,-15,-26,-6,27,14
1530606766840398,-34,-3,0,-46,-27,1,-12,2
1530606766852365,28,1,0,42,17,-12,-3,5
1530606766852365,-8,5,-3,-16,-26,6,4,11
1530606766861342,-19,-17,-4,10,57,5,46,-5
1530606766861342,8,5,-1,3,2,-9,-16,8
1530606766875303,-11,0,4,-7,8,0,-2,-23
1530606766875303,9,-3,-2,8,-12,-2,-4,9
1530606766882285,-9,6,1,-22,-4,-30,16,1
1530606766882285,21,3,0,-11,-45,2,12,6
1530606766898242,-15,-9,-4,16,48,0,-4,11
1530606766898242,15,2,4,27,-3,9,-37,27
1530606766900237,-40,-3,-2,-3,4,-17,-2,-52
1530606766900237,19,9,-4,-1,4,-14,4,1
1530606766921181,-7,4,-3,-19,-68,22,-8,11
1530606766921181,30,-7,5,17,27,-20,19,5
1530606766922179,-9,3,-5,-28,12,27,-11,16
1530606766922179,-57,-8,1,62,58,-2,-14,-18
1530606766935144,-11,-7,-3,-15,-27,-16,24,-9
1530606766935144,51,8,-1,-27,-44,-13,10,35
1530606766942125,13,9,3,26,70,-45,-11,-40
1530606766942125,-2,-16,-4,-33,-25,10,-41,-10
1530606766958082,-17,2,7,29,-13,11,-9,9
1530606766958082,-45,-2,-8,5,67,15,13,-4
1530606766960077,40,-3,8,-9,-48,3,-12,17
1530606766960077,10,6,-3,-8,-12,15,4,-13
1530606766981021,1,-4,1,16,32,-6,-4,-4
1530606766981021,11,5,-2,-27,-59,-13,-1,2
1530606766982018,-47,-9,-10,12,16,15,-3,-11
1530606766982018,41,3,-2,12,31,2,19,3
1530606766994984,9,11,4,0,-12,-11,10,13
1530606766994984,-34,-7,2,5,0,14,13,-15
1530606767001965,8,-9,-7,-26,-65,6,-4,17
1530606767001965,-16,0,4,-1,-10,-9,7,7
1530606767017922,-10,3,-6,-14,-17,-3,7,0
1530606767017922,25,4,-4,-21,-2,-56,-13,-16
1530606767019917,-8,-10,-6,-12,-36,-17,-19,7
1530606767019917,3,-1,-6,-40,2,-12,17,-4
1530606767040861,6,-3,1,-19,-24,19,24,-1
1530606767040861,-31,-5,1,-1,9,-19,0,20
1530606767042856,-16,-3,-3,11,2,2,-40,0
1530606767042856,34,8,6,27,48,5,10,1
1530606767054823,-17,-26,-10,-6,28,7,-2,17
1530606767054823,-7,11,1,4,-51,-2,7,-36
1530606767061805,37,-2,-5,-33,17,16,6,-12
1530606767061805,-62,-4,-3,-1,-37,7,1,16
1530606767078759,10,1,4,3,23,-8,-10,-8
1530606767078759,-18,-10,-1,-18,-23,50,5,2
1530606767079757,34,7,-4,0,-20,-16,15,36
1530606767079757,-37,3,2,12,13,4,-12,-25
1530606767100701,39,0,-3,-6,-89,-20,2,-15
1530606767100701,8,-5,0,-16,-10,5,-3,7
1530606767102696,53,8,1,-10,16,20,14,-9
1530606767102696,-20,-5,4,61,20,-38,-6,15
1530606767114664,-12,0,-3,9,-5,9,-13,15
1530606767114664,8,6,4,-12,55,12,-1,-7
1530606767121645,-27,4,2,33,10,-3,2,-2
1530606767121645,-6,7,-2,-21,-69,-9,-9,-14
1530606767138600,-34,-13,4,22,122,2,-1,-6
1530606767138600,4,-3,1,34,18,-20,20,0
1530606767139597,34,8,-2,-28,-14,14,0,-2
1530606767139597,1,-9,-4,-26,0,49,-21,10
1530606767160541,-4,6,5,23,-5,-18,16,-22
1530606767160541,4,-14,-7,0,17,3,-4,-1
1530606767162536,37,3,-2,-8,14,-12,5,-1
1530606767162536,-13,-1,-3,-16,-11,30,-6,7
1530606767174503,-60,-5,-2,-37,-43,-15,-3,12
1530606767174503,36,5,3,11,6,-2,-11,-18
1530606767183480,11,10,5,52,-2,6,7,16
1530606767183480,23,-12,-7,-62,-60,-9,-3,-37
1530606767198439,-12,10,-4,21,5,10,-6,1
1530606767198439,-15,0,-7,-21,-66,-10,2,0
1530606767200434,-41,-12,1,11,45,3,0,18
1530606767200434,16,-1,4,-10,-34,-12,16,5
1530606767220381,7,-7,-3,-1,89,-4,-12,-13
1530606767220381,20,2,-1,-3,5,-27,-27,-7
1530606767222376,6,3,1,-36,-16,27,8,-15
1530606767222376,10,1,-4,52,48,-75,7,34
1530606767234343,0,-2,-7,-30,-41,20,-30,-25
1530606767234343,-48,-4,5,27,28,4,3,21
1530606767243320,-7,-18,0,12,-5,-15,-16,-49
1530606767243320,100,23,-1,-1,23,-2,20,36
1530606767258280,-83,0,0,-9,-22,11,2,-36
1530606767258280,14,17,1,9,-2,2,-1,20
1530606767260275,-52,-13,-2,-12,-6,-3,2,8
1530606767260275,26,-1,-2,-22,-37,8,3,-3
1530606767281218,60,-31,2,10,-10,4,5,7
1530606767281218,-10,18,-2,4,-26,12,6,-13
1530606767282216,-31,-13,-5,-43,-49,-20,-5,6
1530606767282216,-14,1,1,36,57,8,-17,-19
1530606767294183,13,9,-1,-10,-16,-2,0,20
1530606767294183,10,-15,0,-1,-8,1,14,4
1530606767303159,5,-6,-5,1,-17,16,3,22
1530606767303159,-27,-12,0,-14,-29,-3,-1,3
1530606767318119,20,10,-3,-17,0,-2,-7,-1
1530606767318119,23,-8,-4,5,22,0,14,5
1530606767320114,-22,11,0,6,-2,1,-4,-8
1530606767320114,14,-7,7,38,51,21,7,17
1530606767341058,-31,24,2,2,-13,-27,11,13
1530606767341058,-34,-5,-4,-4,40,29,-11,-31
1530606767342056,-4,7,-1,-5,-20,-14,2,4
1530606767342056,82,3,-2,-7,11,7,6,-10
1530606767354023,-25,-13,-5,-15,-22,-22,13,50
1530606767354023,-51,0,1,6,-1,-9,-7,-12
1530606767363997,16,6,3,15,14,-10,-7,-9
1530606767363997,-39,-4,0,-9,-16,3,-6,2
1530606767377959,25,-9,-4,-13,-66,-2,-13,-7
1530606767377959,2,2,-1,-8,-11,0,-9,1
1530606767379954,11,-12,-3,18,73,2,20,-5
1530606767379954,30,29,0,-10,-25,2,-2,-8
1530606767400898,0,-7,10,-15,4,-40,-7,-4
1530606767400898,-3,-3,-3,-13,7,9,-4,-18
1530606767402893,3,2,3,42,-5,8,0,26
1530606767402893,-39,-19,-14,-43,-81,-1,-8,-35
1530606767414861,2,16,2,28,30,35,28,3
1530606767414861,14,-4,3,-12,-1,-11,-15,12
1530606767423837,-8,-5,-2,-7,0,-20,9,-5
1530606767423837,-33,-13,1,-5,0,5,-16,-1
1530606767438797,47,9,6,8,7,19,-7,-4
1530606767438797,-45,5,-8,-12,-50,12,17,15
1530606767439795,31,-5,-3,18,23,2,-14,-12
1530606767439795,-11,5,-4,-2,7,-7,-7,-63
1530606767460738,45,9,5,13,-11,15,5,15
1530606767460738,-1,-20,-8,1,-32,3,1,2
1530606767462733,-55,13,14,4,34,-4,6,19
1530606767462733,17,-22,-3,0,17,0,6,19
1530606767474701,9,18,-6,13,-7,18,-2,-8
1530606767474701,12,7,2,-17,-5,-67,-8,-13
1530606767483677,-26,-20,-8,-17,-4,14,8,-7
1530606767483677,-18,3,7,28,49,33,-24,10
1530606767498637,20,-23,-7,5,44,-27,3,2
1530606767498637,17,6,3,51,36,14,7,10
1530606767499635,-7,3,-2,-23,-27,4,-14,-9
1530606767499635,36,14,1,-10,-12,-27,14,15
1530606767520578,-25,-8,-7,-52,-101,47,-8,9
1530606767520578,-36,-6,3,8,47,20,-30,-31
1530606767522573,32,1,-4,-20,-7,-25,30,7
1530606767522573,-33,-6,-2,5,-50,5,32,20
1530606767534541,-15,2,-1,-12,-5,-6,12,-15
1530606767534541,7,0,5,5,10,14,-12,32
1530606767543517,25,8,1,-27,-33,8,-6,-36
1530606767543517,-27,-6,-1,24,-35,25,3,15
1530606767557479,24,-5,-4,20,52,-54,-3,4
1530606767557479,8,2,-2,-12,-18,-6,2,-23
1530606767566456,-19,2,0,-8,-3,7,-12,12
1530606767566456,-3,0,-1,-26,-5,2,11,-3
1530606767580418,8,10,5,19,54,-17,-44,12
1530606767580418,12,-10,-5,16,7,9,-10,-27
1530606767582413,-9,-10,-4,2,37,-8,-6,17
1530606767582413,20,6,-3,-35,-47,-28,-10,-11
1530606767594381,-17,0,6,21,17,12,11,5
1530606767594381,22,1,-5,-28,21,4,6,-22
1530606767603357,-7,5,0,-16,5,-24,-7,37
1530606767603357,17,-3,-3,32,26,45,19,-29
1530606767618317,13,-9,-7,6,37,0,-5,-5
1530606767618317,-12,-10,-3,-19,-31,-36,4,24
1530606767620312,-20,1,-2,-3,6,-2,-10,-32
1530606767620312,-27,-7,3,4,27,-25,-38,3
1530606767641255,47,20,5,0,-42,13,43,9
1530606767641255,-49,-13,-3,6,40,24,3,-20
1530606767642253,47,15,3,8,-42,-9,8,-10
1530606767642253,-49,-11,-8,-14,3,-31,-45,10
1530606767654221,-22,-4,1,-5,1,-21,0,-26
1530606767654221,20,2,-3,-64,-42,6,3,37
1530606767663197,16,5,-3,12,7,30,2,-14
1530606767663197,4,-1,1,-27,-79,-7,21,-3
1530606767678156,-15,-6,-12,-32,28,-27,-42,-12
1530606767678156,12,-5,3,45,-34,-16,18,3
1530606767680152,-7,-2,-4,-28,-24,16,-8,35
1530606767680152,7,2,3,27,33,-6,15,-40
1530606767701095,12,-4,-3,-25,-49,28,23,5
1530606767701095,-16,9,7,23,33,-26,-13,-8
1530606767702093,-1,-12,1,29,4,-8,-13,-59
1530606767702093,-54,3,0,-17,79,24,4,23
1530606767714060,41,-8,4,34,33,-3,13,13
1530606767714060,57,16,-5,-26,-29,32,20,-21
1530606767723036,-33,-2,3,74,57,-23,12,24
1530606767723036,7,-1,-3,-21,9,38,-2,3
1530606767737996,-2,2,7,26,-79,10,-20,-4
1530606767737996,3,-6,-4,-3,88,17,2,-3
1530606767739992,-41,-4,-2,-33,-66,4,14,2
1530606767739992,25,3,0,31,68,-12,-13,-11
1530606767760935,-15,6,-2,-2,-19,4,1,35
1530606767760935,-1,-13,-1,-5,-21,9,-8,-11
1530606767762930,13,4,0,-15,-29,-3,22,15
1530606767762930,32,8,-1,15,18,-16,6,13
1530606767774898,-15,-6,0,29,33,15,0,3
1530606767774898,7,7,1,-2,49,8,2,3
1530606767783874,-13,13,0,-1,-27,10,-38,-44
1530606767783874,27,-40,-8,-5,-9,-15,22,22
1530606767797836,-85,-5,-2,-2,34,8,0,-30
1530606767797836,13,6,4,18,-26,-32,-10,7
1530606767804818,-7,2,-2,-14,-4,15,5,9
1530606767804818,32,16,5,7,-7,-39,-14,-6
1530606767820775,-2,1,3,34,74,54,14,1
1530606767820775,-35,-13,-2,4,21,-24,3,3
1530606767822770,12,-4,-6,-16,12,-2,-1,20
1530606767822770,-21,3,-2,-30,-48,-8,-2,1
1530606767843714,43,-2,-7,-27,25,-13,-21,-12
1530606767843714,-14,12,3,37,-2,84,3,16
1530606767844712,-4,-30,0,0,-4,-5,1,6
1530606767844712,-21,6,4,19,3,-9,50,19
1530606767857677,9,6,-1,-24,-92,-19,13,6
1530606767857677,-20,-1,0,-4,-2,16,-29,-15
1530606767864658,20,3,-8,-5,91,16,-12,15
1530606767864658,-51,-9,2,27,-56,20,7,-10
1530606767880615,9,3,6,-17,-12,-42,26,8
1530606767880615,42,5,-2,-3,-35,-32,8,16
1530606767882610,-36,-10,-3,-3,0,-3,-8,-6
1530606767882610,16,5,0,-18,-7,-2,7,2
1530606767910535,26,4,-7,-11,5,-15,-24,-13
1530606767910535,9,-2,2,26,8,31,5,13
1530606767912530,-1,-2,1,27,-14,-45,2,1
1530606767912530,1,6,-2,-5,26,37,-10,-15
1530606767917516,-2,-3,-2,-2,32,-28,-3,15
1530606767917516,-45,-8,-2,-21,-24,-40,-12,-21
1530606767924498,43,-8,1,22,-11,12,12,1
1530606767924498,-10,2,-3,-10,11,9,-27,5
1530606767940455,-10,-4,-7,-30,-37,-1,17,1
1530606767940455,3,9,2,-10,-33,-15,-33,-8
1530606767942450,-21,6,2,13,67,-2,2,15
1530606767942450,16,-3,2,28,1,-14,-9,-9
1530606767963394,-15,-6,-8,-54,-24,20,-7,-49
1530606767963394,-19,-7,-6,18,-39,-6,-16,-12
1530606767965389,-16,-2,4,4,-23,13,5,22
1530606767965389,67,7,2,-16,0,16,3,23
1530606767977357,22,14,-3,-34,-16,22,-3,-8
1530606767977357,-24,-35,-11,-5,-15,-38,2,10
1530606767984338,-6,11,3,-18,8,2,2,-25
1530606767984338,-26,-2,0,11,-7,-4,14,-2
1530606768001292,-19,2,4,24,-58,3,9,20
1530606768001292,10,4,0,-24,-12,34,-18,-26
1530606768002290,31,7,3,46,54,0,-12,6
1530606768002290,3,-7,-4,0,-39,-10,10,-7
1530606768023234,-40,-8,-4,5,-69,-7,-47,7
1530606768023234,29,7,6,20,46,21,27,17
1530606768025229,0,4,-4,-26,-82,-39,-16,-15
1530606768025229,-26,5,-7,-16,16,4,-8,-24
1530606768037197,6,-13,2,32,30,1,-6,2
1530606768037197,-39,0,5,-11,20,8,8,30
1530606768044178,45,6,-5,-31,-48,-21,11,-12
1530606768044178,58,8,-1,-34,19,12,-15,-6
1530606768061132,-81,-4,1,55,36,11,6,-15
1530606768061132,19,-3,-1,-13,-8,-19,3,2
1530606768062130,23,5,2,6,23,10,3,7
1530606768062130,3,-10,-4,-13,-13,63,8,-1
1530606768083074,18,0,1,14,74,-38,0,-22
1530606768083074,50,13,1,5,7,-13,19,13
1530606768085069,-47,-11,-2,-2,49,10,-18,17
1530606768085069,5,-7,-4,19,-6,-19,16,-4
1530606768097036,40,8,2,-9,-4,44,8,0
1530606768097036,-41,-2,-1,7,-13,-35,21,1
1530606768106012,-29,-2,-1,20,-21,0,-6,-12
1530606768106012,-3,-4,6,17,45,-6,2,11
1530606768120972,-17,7,-5,-49,-17,18,-1,0
1530606768120972,17,3,2,25,33,-6,-1,-12
1530606768122968,10,0,0,-15,-56,7,25,-12
1530606768122968,-43,2,-2,-20,-6,2,-19,10
1530606768142914,82,-1,8,30,14,-11,-5,5
1530606768142914,-49,-15,-11,-17,-12,14,4,-10
1530606768144909,-11,9,-1,-18,-45,-6,11,-12
1530606768144909,15,1,2,2,-39,-41,-2,-3
1530606768156876,-5,-20,0,1,8,12,-10,47
1530606768156876,18,4,-2,9,43,13,-3,-45
1530606768165853,25,-2,-5,-1,16,32,-14,-4
1530606768165853,-23,5,-2,-14,-56,-36,13,31
1530606768180812,9,2,-1,-8,2,8,-3,-27
1530606768180812,-10,-3,1,0,-14,-32,25,17
1530606768182807,22,4,0,5,-19,-5,0,3
1530606768182807,-10,-1,3,14,82,86,5,-4
1530606768203751,-5,2,-5,13,6,-107,-10,1
1530606768203751,-14,0,-1,-31,-1,11,-8,15
1530606768204749,-14,-27,-2,12,1,-4,5,-8
1530606768204749,8,5,-3,-1,-26,-19,-10,6
1530606768216716,-9,-1,4,17,57,44,7,-46
1530606768216716,58,7,-6,-22,42,4,3,25
1530606768225692,-52,4,-2,-6,-11,-25,0,12
1530606768225692,-7,-5,-1,17,16,15,-10,-4
1530606768240652,-8,-9,-9,-54,-28,-1,18,5
1530606768240652,75,9,9,54,-37,0,-21,-12
1530606768242647,-55,-5,1,0,16,5,8,0
1530606768242647,-57,-5,-5,9,28,-24,-38,-16
1530606768263591,26,3,-1,-11,18,0,25,12
1530606768263591,-3,6,1,-1,-18,21,-1,4
1530606768264588,25,-5,5,2,-8,9,-6,2
1530606768264588,25,-4,-8,-46,-96,-23,1,-5
1530606768276556,-48,0,-3,25,56,2,-2,-5
1530606768276556,-24,-2,-4,-21,-14,13,-21,8
1530606768285532,29,14,2,22,19,-2,0,1
1530606768285532,36,-3,-5,-13,-16,-19,28,32
1530606768300492,-18,-14,-5,-14,-31,18,-23,-6
1530606768300492,-38,1,0,-13,-3,0,-1,-14
1530606768302487,4,10,7,17,53,10,14,13
1530606768302487,-9,3,5,9,-5,-18,-32,-6
1530606768323431,17,5,-1,1,-37,-2,30,35
1530606768323431,-16,-14,-7,8,18,5,-8,1
1530606768325426,18,4,-3,-15,10,-8,-8,-7
1530606768325426,1,2,1,10,21,-3,3,6
1530606768337394,17,-9,-2,9,-11,37,-4,-9
1530606768337394,-31,13,-1,-19,-22,-46,16,2
1530606768346370,8,-5,3,-26,-16,13,-17,-17
1530606768346370,-10,0,5,52,34,-12,8,-5
1530606768360332,28,4,-2,9,-22,37,-14,-8
1530606768360332,19,-5,-4,12,33,33,10,2
1530606768362328,49,-9,-7,-16,-24,-14,-3,11
1530606768362328,-83,-4,0,-24,28,-16,1,-11
1530606768383271,-5,10,1,-8,-18,-17,-16,1
1530606768383271,6,-18,-1,-10,-8,-5,-1,-18
1530606768385266,-11,-5,-2,26,43,14,-3,-5
1530606768385266,30,11,4,5,51,-2,-4,4
1530606768397233,-23,2,3,2,16,-16,-20,-11
1530606768397233,21,5,-5,-7,5,-9,-3,16
1530606768406210,-25,-4,-3,-12,-2,20,6,-6
1530606768406210,49,-4,1,-1,-63,-42,11,-2
1530606768421169,-7,7,2,-15,-48,-11,-25,-3
1530606768421169,1,-5,-4,4,26,9,-26,-8
1530606768422168,-27,-2,3,27,-3,-5,5,-13
1530606768422168,-16,-8,-1,14,19,-3,-13,5
1530606768443111,21,5,0,1,2,-5,23,-3
1530606768443111,-3,4,-1,-8,-19,-20,-8,8
1530606768445106,1,7,-3,-22,-26,-5,-4,-2
1530606768445106,-31,-1,0,-9,38,21,-17,-20
1530606768457074,-20,-3,-4,-3,-6,-29,14,-9
1530606768457074,4,-17,-3,2,-17,-2,3,9
1530606768466050,5,-5,-9,-9,1,40,-3,4
1530606768466050,-11,3,1,0,16,16,18,-9
1530606768481010,63,9,2,-7,-16,-44,-8,8
1530606768481010,-18,-2,-5,-21,-1,-10,17,-44
1530606768482007,11,4,-3,7,-23,-21,-23,13
1530606768482007,-16,-9,5,39,-21,40,5,-4
1530606768502951,-47,-13,-5,0,18,1,-1,-2
1530606768502951,56,5,7,7,0,7,21,38
1530606768504946,-28,9,1,-13,-50,-8,2,-67
1530606768504946,53,-5,-7,0,-41,6,-5,43
1530606768516913,-70,-9,2,26,121,16,-20,-18
1530606768516913,18,1,2,13,-23,3,5,-1
1530606768525889,5,-6,-1,-22,22,-10,6,21
1530606768525889,15,8,2,20,17,-2,2,-13
1530606768540849,12,-2,0,-11,-34,-2,-1,60
1530606768540849,-21,-1,-6,-11,-23,-7,-22,-57
1530606768542844,20,2,3,33,36,-4,8,15
1530606768542844,-29,0,0,-40,-22,-36,-21,-3
1530606768563788,17,-15,-4,-1,-30,4,55,12
1530606768563788,-3,11,3,28,1,7,-18,5
1530606768564786,-16,-6,-3,4,38,-1,-1,7
1530606768564786,24,9,-1,-13,-7,32,-3,-5
1530606768576754,-66,-11,-1,8,-24,-24,4,-21
1530606768576754,25,5,-3,-8,1,-18,5,14
1530606768585730,-12,-6,-5,-34,-31,-1,33,2
1530606768585730,19,-6,-6,-29,-36,-27,13,0
1530606768600690,12,0,1,-3,-28,14,-21,-8
1530606768600690,-11,0,4,13,44,44,6,-9
1530606768602684,11,3,-3,6,56,-22,-3,9
1530606768602684,-4,-1,2,-4,5,-1,-3,-12
1530606768623628,1,3,-3,-24,-25,2,4,5
1530606768623628,-21,-13,0,-15,-22,-16,5,14
1530606768624626,20,-4,-2,-5,-39,4,10,-7
1530606768624626,-61,-7,-4,13,22,-1,13,-9
1530606768636594,62,7,2,10,28,7,-8,6
1530606768636594,-11,-1,-1,1,-16,8,-17,-26
1530606768645569,-4,-4,-4,-41,-40,-4,4,27
1530606768645569,9,-1,4,48,31,-20,-3,-22
1530606768660529,-26,5,3,24,59,37,19,21
1530606768660529,40,10,3,-13,-28,-67,-10,-28
1530606768662524,-34,-7,-3,6,4,1,-8,3
1530606768662524,-1,5,-1,-44,-67,14,-38,2
1530606768683468,13,-12,-6,-7,-15,5,16,-13
1530606768683468,-45,0,3,16,15,2,8,30
1530606768685463,55,0,4,18,-8,3,-11,-17
1530606768685463,7,-4,-8,-22,-15,-21,5,11
1530606768697431,-13,-4,-2,4,5,15,7,-12
1530606768697431,-19,-4,-3,-2,3,32,-8,11
1530606768706407,2,11,2,-6,-46,-9,-14,-3
1530606768706407,27,-7,2,8,2,26,17,1
1530606768720369,35,4,-3,-10,19,-7,-7,-29
1530606768720369,-65,-16,-3,-20,68,30,-5,1
1530606768727351,-7,4,1,47,31,-6,-20,-14
1530606768727351,12,-1,-5,4,11,4,4,18
1530606768743308,-24,-2,1,0,-45,-27,-10,-6
1530606768743308,1,4,5,4,-12,8,-7,7
1530606768745303,49,2,-6,-61,-29,-13,-6,18
1530606768745303,-26,-12,-8,-5,17,28,28,-19
1530606768766247,12,7,-1,3,-7,-1,-12,10
1530606768766247,21,4,-2,0,-3,10,17,-30
1530606768767244,-61,-5,-4,-45,-71,26,-1,10
1530606768767244,30,-3,-2,3,1,-12,-68,-14
1530606768780209,-11,-1,1,41,100,39,33,-7
1530606768780209,6,1,-1,-25,-44,-45,5,41
1530606768787191,-9,-4,1,1,-58,1,-10,-38
1530606768787191,5,11,0,1,22,-5,-8,-20
1530606768803149,-10,-5,-2,-26,-37,12,-20,-7
1530606768803149,-49,-16,-4,3,-3,-10,2,19
1530606768805143,62,7,-2,-10,-5,-25,9,20
1530606768805143,-7,1,3,24,31,12,25,20
1530606768826086,3,5,-3,-27,-37,-28,-21,-3
1530606768826086,-8,0,5,15,21,24,38,-13
1530606768827084,7,1,3,57,107,6,-20,5
1530606768827084,-14,-15,-1,-10,-10,-52,12,-2
1530606768840049,36,9,-3,-34,-17,1,-8,-1
1530606768840049,10,6,4,48,-59,36,-9,5
1530606768847030,-45,-16,-3,25,80,36,35,4
1530606768847030,19,12,-1,1,3,-15,-29,9
1530606768862988,-22,-2,-1,-31,-18,-35,21,-10
1530606768862988,18,4,0,-6,-27,-12,-19,2
1530606768864983,-1,-5,-2,0,-5,1,-20,-25
1530606768864983,-24,-6,-3,-29,-55,15,28,12
1530606768885927,-10,-6,-1,13,17,-28,-16,-24
1530606768885927,21,6,-4,-15,18,14,-31,7
1530606768887922,3,10,6,24,8,0,5,11
1530606768887922,24,9,0,-25,2,26,-5,-20
1530606768899889,7,-10,-2,-1,-64,-42,27,1
1530606768899889,-57,0,0,0,8,-1,-14,8
1530606768906870,-36,-8,-7,-39,-34,10,26,21
1530606768906870,-42,3,4,31,-17,-12,-15,-35
1530606768923825,21,11,3,24,74,85,-8,38
1530606768923825,63,4,-4,4,-18,-19,8,-30
1530606768924823,-7,-11,-8,-16,-72,-30,8,-1
1530606768924823,-28,-6,0,-20,-21,11,-8,12
1530606768945766,9,1,3,32,50,12,8,2
1530606768945766,5,-3,1,-8,9,-23,-10,8
1530606768947762,-2,7,7,33,91,3,-35,-27
1530606768947762,78,5,-2,15,33,13,33,-3
1530606768959729,-70,0,-1,-10,-21,-40,-3,2
1530606768959729,48,-2,-1,1,-40,-13,2,15
1530606768966711,-35,-8,-5,-12,0,-15,-9,2
1530606768966711,-35,-1,-2,-1,14,-18,5,4
1530606768983665,15,-1,-8,-86,-35,-27,-49,27
1530606768983665,17,1,1,19,-67,44,-4,-60
1530606768984663,-13,-21,-9,-28,15,-16,-16,-6
1530606768984663,-4,7,5,18,20,26,-7,-1
1530606769005607,30,-5,2,-7,-27,-4,5,27
1530606769005607,-44,-3,-8,-28,31,40,23,-6
1530606769007601,1,1,0,22,-18,-53,-12,12
1530606769007601,1,2,-7,-24,2,-2,-5,-18
1530606769020567,22,1,1,28,-38,4,-4,23
1530606769020567,0,-6,0,-21,17,-20,-9,-19
1530606769026551,-66,8,6,39,33,13,8,5
1530606769026551,8,-7,0,-30,-3,-6,11,18
1530606769043505,12,4,-5,-10,-38,5,20,-28
1530606769043505,50,11,4,48,69,-1,-50,15
1530606769044503,-26,-10,0,-13,25,26,-8,-7
1530606769044503,18,3,-2,-12,-22,-30,-4,6
1530606769065447,-25,-11,3,52,54,26,-15,14
1530606769065447,-17,2,-11,-24,-28,-15,19,-43
1530606769067441,-4,-4,4,7,-25,16,5,-6
1530606769067441,-1,0,6,-11,-28,-25,-11,-9
1530606769079409,38,-1,-2,36,33,0,5,47
1530606769079409,-5,2,-9,-21,-15,-40,9,8
1530606769088385,-17,1,1,-10,34,22,20,-3
1530606769088385,56,-2,-1,38,8,12,8,-3
1530606769103345,-11,2,0,-54,-55,-4,8,-20
1530606769103345,-3,-5,12,76,28,-8,-6,47
1530606769105340,-16,16,-5,-13,-35,2,29,11
1530606769105340,-18,-13,-2,-3,-8,-4,-26,-33
1530606769126284,-10,8,-2,-4,12,15,7,-11
1530606769126284,18,-7,-3,2,45,8,-25,4
1530606769127282,58,8,5,8,5,-2,-2,6
1530606769127282,-15,-6,-5,4,23,3,7,1
1530606769139249,8,3,-2,11,18,2,-8,0
1530606769139249,-34,-3,0,-34,-24,-12,14,0
1530606769148225,45,2,-2,-10,-29,2,-2,3
1530606769148225,-21,3,0,13,14,12,-7,2
1530606769163185,-15,-4,1,-4,-37,3,-2,-20
1530606769163185,-7,-3,-1,2,55,9,13,12
1530606769165180,50,-3,-3,2,24,-26,-14,-7
1530606769165180,16,6,-5,-8,2,35,16,27
1530606769186124,-23,-12,-1,9,25,-9,-4,-23
1530606769186124,4,-1,-3,-11,-22,-12,7,17
1530606769187121,-68,8,-2,-8,-49,3,-19,-24
1530606769187121,1,-14,-3,-6,37,-16,-17,6
1530606769199089,26,5,2,-4,-9,-9,0,-2
1530606769199089,-5,5,0,-13,-54,7,5,3
1530606769208065,23,-6,-4,-17,19,8,-3,-13
1530606769208065,-25,3,-1,15,3,-4,-25,17
1530606769223025,-27,-12,-4,-7,-29,12,-1,-9
1530606769223025,17,-3,-5,-8,1,-21,20,-13
1530606769225020,1,4,2,-9,-47,-1,-43,2
1530606769225020,-3,4,3,-6,8,-7,4,3
1530606769245964,-19,2,4,-1,-58,13,-9,-12
1530606769245964,16,1,-7,-20,-6,-3,0,22
1530606769247959,11,-2,0,-8,7,20,23,-15
1530606769247959,-25,-5,8,21,-24,16,12,-8
1530606769259926,13,4,-3,6,-16,-20,-6,-4
1530606769259926,-1,-12,0,8,65,-2,-3,-3
1530606769268903,4,1,-6,-3,26,-18,-14,-13
1530606769268903,23,3,-6,-27,-36,-11,7,-6
1530606769283862,-40,-25,-7,21,9,4,2,3
1530606769283862,-19,7,11,3,1,7,-4,-9
1530606769284860,40,1,4,21,18,3,22,20
1530606769284860,-6,-2,-1,-3,33,-29,2,-5
1530606769305804,6,7,-2,9,45,24,7,18
1530606769305804,-6,-8,-8,-20,-7,-45,-16,-5
1530606769307799,-24,-6,-1,-12,-27,-18,8,4
1530606769307799,0,-10,-2,6,-31,24,3,-31
1530606769319767,3,1,-3,-6,26,-10,-3,35
1530606769319767,55,9,-1,-1,-17,13,-5,-34
1530606769328743,5,2,2,-22,-65,7,31,34
1530606769328743,-36,1,-3,-6,-36,-26,-8,-16
1530606769343702,3,6,4,14,32,5,-9,-13
1530606769343702,-14,-2,4,14,8,10,14,36
1530606769344700,41,-14,-11,-8,-13,-17,-3,-7
1530606769344700,-60,0,-5,12,-34,24,28,4
1530606769365644,0,2,5,-3,-14,-13,-12,-36
1530606769365644,19,1,1,-8,-35,12,2,20
1530606769367638,40,4,-5,-20,-8,17,-19,-21
1530606769367638,-40,-5,-1,-11,-51,27,11,-1
1530606769379606,49,6,1,12,40,-17,24,12
1530606769379606,-8,4,1,17,-35,-15,-7,-8
1530606769388583,-53,1,4,28,85,7,2,-23
1530606769388583,41,-7,-9,-34,13,37,-23,-1
1530606769403542,-24,-1,2,-4,-36,-6,7,17
1530606769403542,2,9,-3,-2,10,8,8,-3
1530606769404540,10,-5,1,4,-14,-16,-2,18
1530606769404540,-2,6,4,3,30,-7,13,5
1530606769425484,-27,-11,-6,-18,21,30,4,-15
1530606769425484,20,-1,3,3,-33,-4,-3,1
1530606769427479,-2,3,0,44,79,6,-24,8
1530606769427479,14,8,1,-6,21,-74,21,-2
1530606769439446,0,-3,-2,-9,-24,-5,-4,2
1530606769439446,-12,-3,-3,-21,-57,42,-18,-4
1530606769448423,-13,6,2,-35,-28,-33,36,2
1530606769448423,-20,-8,3,32,42,17,-18,4
1530606769463382,24,5,2,24,-3,-12,-3,13
1530606769463382,-18,-8,-3,24,114,-19,1,-1
1530606769465377,-16,-14,-6,-31,-53,11,-10,-12
1530606769465377,29,3,5,13,25,42,23,0
1530606769486321,-7,6,-3,-17,-37,-39,-40,-18
1530606769486321,-9,3,-2,-30,-17,22,33,-12
1530606769487319,77,13,3,9,-27,-6,-5,15
1530606769487319,-64,-19,3,11,30,-1,2,-10
1530606769499286,23,1,-6,-17,-11,-2,7,-24
1530606769499286,12,9,6,35,-4,13,2,0
1530606769508262,-44,-2,2,30,75,-61,5,9
1530606769508262,61,-1,-9,-18,-51,-17,-21,-23
1530606769523222,22,6,-5,-26,35,0,22,-28
1530606769523222,-13,-6,-2,-1,-19,-3,-1,13
1530606769525217,-56,-1,5,18,-6,30,22,-8
1530606769525217,-3,-4,4,64,26,-8,14,31
1530606769546161,21,0,-5,4,10,-16,-25,0
1530606769546161,16,-1,-4,-27,8,14,-13,5
1530606769547159,-39,4,0,-1,-27,5,9,-9
1530606769547159,40,1,-2,-28,-18,6,-28,10
1530606769559126,-30,-3,5,9,52,44,9,29
1530606769559126,-17,-7,-4,59,39,-19,8,-52
1530606769568102,41,9,1,-21,-72,39,-28,28
1530606769568102,-17,1,-2,-27,22,-8,4,6
1530606769583062,32,5,4,17,-26,-86,-13,-29
1530606769583062,-26,-6,-5,-27,-4,30,-3,26
1530606769585057,-30,-12,-3,10,27,18,-5,-31
1530606769585057,86,19,4,-5,38,-18,4,22
1530606769606001,-32,-14,-6,17,-3,13,5,-6
1530606769606001,-68,-12,0,-15,-26,-14,3,6
1530606769606998,14,1,-5,-3,1,-10,-20,-13
1530606769606998,38,10,-3,-22,-31,6,-7,2
1530606769619964,-31,-6,2,-11,-48,20,-12,-4
1530606769619964,28,6,10,38,51,-30,14,10
1530606769628940,15,-6,-3,-56,-97,2,-8,5
1530606769628940,-70,-6,0,32,48,-50,-65,-9
1530606769642902,22,2,-6,-34,-38,44,27,12
1530606769642902,66,5,-6,-7,-24,-21,13,-22
1530606769649883,-81,-6,-8,-24,-38,-7,11,-2
1530606769649883,48,5,-3,8,-4,24,-14,-25
1530606769665841,-64,-6,2,-3,3,-4,3,9
1530606769665841,23,1,4,-23,2,33,-18,-2
1530606769667836,43,-3,-2,2,13,-14,-5,5
1530606769667836,-56,-11,-5,-13,-77,-8,18,-19
1530606769679803,2,1,-2,19,101,19,-9,-6
1530606769679803,3,-4,2,-7,2,12,-31,-4
1530606769688780,-23,6,2,22,41,9,-8,10
1530606769688780,18,2,0,-7,-10,15,10,-5
1530606769702742,-2,-7,-2,-3,-16,-18,-2,14
1530606769702742,4,11,-8,-77,-27,-9,13,-13
1530606769709724,39,-21,-1,35,18,30,-17,-2
1530606769709724,32,-4,-5,20,13,-22,24,19
1530606769725681,-53,8,-3,-8,-4,23,-7,-9
1530606769725681,16,-1,5,-3,4,-9,-5,7
1530606769727676,-9,12,3,7,5,0,-13,-10
1530606769727676,-24,-19,-2,-12,-2,-8,49,19
1530606769748620,35,-7,-6,-20,-42,1,-1,25
1530606769748620,-6,9,-2,18,32,-2,-7,-60
1530606769749617,24,-3,-5,10,65,-38,-20,-6
1530606769749617,1,-6,-3,4,-12,-2,-16,26
1530606769762582,-19,3,-2,-43,2,-21,2,-9
1530606769762582,-21,-11,-1,40,37,-3,39,15
1530606769769564,3,10,4,-16,-69,-6,7,-8
1530606769769564,-23,8,4,36,88,45,4,-36
1530606769785521,-23,-7,-3,-13,-19,-4,14,5
1530606769785521,13,-7,-4,-12,-47,-26,3,12
1530606769787516,93,9,-4,-8,-46,-9,16,6
1530606769787516,-113,10,3,-19,-21,-4,-43,1
1530606769808459,44,-5,9,16,-30,3,9,-3
1530606769808459,-22,-2,-6,1,-5,2,-18,5
1530606769810454,-12,-8,5,17,52,6,10,-2
1530606769810454,24,3,0,-36,16,-16,0,1
1530606769822422,-24,9,-2,23,10,9,0,-4
1530606769822422,-5,-6,-2,22,46,1,-11,9
1530606769829403,13,3,-1,1,27,0,11,31
1530606769829403,75,0,-1,-6,-28,62,4,-69
1530606769845360,-11,-1,-1,14,-2,-9,-9,-7
1530606769845360,-33,-9,-3,4,-29,34,-18,7
1530606769847356,-29,-4,1,-4,12,-18,0,5
1530606769847356,31,1,0,-11,-21,-15,-1,7
1530606769868299,12,5,-5,11,21,-7,-8,-1
1530606769868299,-8,-8,-4,-42,4,-4,17,17
1530606769870295,-63,-12,1,15,-44,7,-20,-25
1530606769870295,52,10,4,20,27,43,27,35
1530606769882262,-19,-5,0,4,-22,-100,-11,2
1530606769882262,1,7,-7,-4,-20,-38,10,-15
1530606769889243,41,12,3,-12,25,31,6,-21
1530606769889243,-39,-19,-3,-9,-12,-31,-9,9
1530606769906198,29,9,5,-16,-13,33,37,7
1530606769906198,17,-2,-5,-14,-23,-6,-23,22
1530606769907196,-22,0,-2,56,46,-18,9,-5
1530606769907196,21,3,2,8,1,48,4,8
1530606769928139,22,9,4,-14,-3,-84,29,-24
1530606769928139,-5,-17,-3,2,-85,1,-21,16
1530606769930134,-57,-9,-3,-15,57,16,-2,-34
1530606769930134,-8,-1,-6,-10,-7,-6,20,14
1530606769943099,-5,2,-1,11,-5,30,-29,17
1530606769943099,7,8,1,-29,-4,-16,7,-1
1530606769949083,31,-5,2,12,-9,12,-13,27
1530606769949083,-27,-1,-6,-14,-15,-28,-20,-13
1530606769966038,19,-6,-1,-30,-7,22,-2,4
1530606769966038,7,8,2,21,30,-22,-12,-17
1530606769967036,-23,-4,-4,-30,-49,6,43,12
1530606769967036,7,-10,-8,-56,-16,-56,-31,-8
1530606769987979,-25,-1,-10,59,15,5,-29,-5
1530606769987979,9,0,11,6,14,-7,28,5
1530606769989975,36,3,-2,-10,-30,-6,4,12
1530606769989975,-65,-6,1,-6,-60,-5,-6,-40
1530606770001942,-1,3,-3,-7,39,5,-11,-10
1530606770001942,-47,-15,-6,17,30,-12,0,11
1530606770010918,65,19,5,-1,-52,31,-4,-11
1530606770010918,-7,7,1,23,52,-1,14,46
1530606770025878,-11,-23,-2,16,1,1,-21,-4
1530606770025878,9,3,-8,14,-25,24,15,0
1530606770027873,0,-8,-12,-104,-30,-20,-4,-5
1530606770027873,-11,12,1,56,3,1,6,32
1530606770048817,-41,-12,0,10,-11,17,30,-59
1530606770048817,-14,-10,-3,-19,-36,15,4,13
1530606770049815,24,8,-9,-23,35,-40,-2,38
1530606770049815,20,-2,3,25,19,31,-15,-54
1530606770061782,-7,-8,-6,-24,-40,-11,-5,11
1530606770061782,-32,3,-3,-21,-34,-3,-1,-21
1530606770070758,-47,-14,12,51,25,51,-1,8
1530606770070758,59,-2,-2,-6,-79,-24,-19,-2
1530606770085718,-10,-4,-12,-55,-5,25,-6,26
1530606770085718,22,-8,-7,29,42,-67,0,-19
1530606770087713,8,1,-2,2,-33,4,-13,20
1530606770087713,-33,6,24,18,28,2,25,23
1530606770108657,-20,-8,-2,3,42,0,34,13
1530606770108657,4,4,-11,-34,10,50,-96,-34
1530606770109654,50,0,-3,0,-12,-42,23,28
1530606770109654,-17,-4,6,17,-46,-11,-21,52
1530606770122620,-32,-7,-8,-9,-29,22,-5,-62
1530606770122620,-28,4,-1,20,74,22,13,47
1530606770131595,-2,-21,-19,23,-19,7,-21,-55
1530606770131595,87,17,-4,-29,75,24,19,19
1530606770145558,-39,10,24,24,7,-27,-15,31
1530606770145558,34,7,22,79,-21,12,13,43
1530606770147553,-61,-8,3,-4,109,-4,-12,-56
1530606770147553,49,5,-14,-14,5,59,55,-4
1530606770168496,70,-1,-8,32,-1,13,-16,21
1530606770168496,-12,14,12,-3,21,-18,-31,2
1530606770169494,-47,-4,7,8,-21,-7,5,-12
1530606770169494,-15,-4,-5,-35,-38,-30,6,-10
1530606770182459,47,3,2,41,33,14,13,29
1530606770182459,-29,0,-8,-35,-39,20,14,-19
1530606770191435,-1,-6,-4,10,43,-33,1,43
1530606770191435,15,-5,-1,40,22,33,-60,-42
1530606770205398,-28,-6,-3,-21,-40,-20,11,-44
1530606770205398,37,3,9,5,26,28,12,8
1530606770207393,-13,9,-2,0,-14,-9,-5,3
1530606770207393,-28,-4,-2,-21,-68,-8,18,-18
1530606770228337,72,8,3,-3,119,2,-30,31
1530606770228337,-39,-3,-9,-9,-16,40,2,-20
1530606770230331,-12,-12,-3,-7,0,39,21,-27
1530606770230331,-57,-4,0,-35,22,-17,-35,46
1530606770242300,28,8,3,4,14,48,-23,-44
1530606770242300,12,-3,-4,8,83,-18,23,-33
1530606770251276,30,16,7,-40,-47,4,-30,37
1530606770251276,-51,-5,0,19,40,-17,-2,-31
1530606770266235,49,-12,-10,-32,-45,5,26,32
1530606770266235,-104,-15,-9,-8,76,-4,-20,-9
1530606770267233,-16,5,-1,-7,-30,-20,6,9
1530606770267233,71,19,6,18,-37,4,12,-8
1530606770288176,-29,-21,2,0,28,-35,7,-8
1530606770288176,61,12,6,15,25,-22,0,42
1530606770290172,-18,3,-2,-22,1,7,3,-9
1530606770290172,-49,-4,-4,16,-6,-44,0,7
1530606770302139,-12,4,-6,7,-34,-9,-13,-33
1530606770302139,12,-10,-1,-19,-53,23,50,26
1530606770311115,20,2,1,6,-11,-48,-38,-9
1530606770311115,17,-7,-8,-33,-80,-48,-10,1
1530606770326075,8,11,-5,-22,31,16,13,13
1530606770326075,-58,-5,13,46,15,-13,15,1
1530606770327073,62,1,-2,-14,-29,43,-12,-12
1530606770327073,-36,-9,-9,-42,-29,-46,-6,4
1530606770348017,30,9,12,45,28,-18,-1,26
1530606770348017,18,3,-12,-41,-61,5,2,-2
1530606770350011,12,2,-4,51,14,-4,7,-1
1530606770350011,-31,-7,6,2,25,4,-11,-16
1530606770361979,-65,4,-2,-16,-22,9,5,3
1530606770361979,72,5,1,-20,-77,-23,-17,15
1530606770370955,-16,-5,-5,16,37,21,20,-65
1530606770370955,8,-15,-3,-1,-26,54,29,3
1530606770385916,-18,10,10,7,-32,-27,2,-4
1530606770385916,-60,-12,6,-8,-68,-7,4,6
1530606770387910,38,5,-2,1,11,-14,-7,35
1530606770387910,-1,4,-10,-9,-1,35,15,-4
1530606770407856,56,4,-1,1,1,-1,-25,-19
1530606770407856,-75,-2,-7,-30,-1,-12,-27,-7
1530606770409852,17,-9,7,-30,-64,-10,6,3
1530606770409852,-10,-2,7,77,33,-26,-3,-1
1530606770421819,22,-4,-12,-28,-50,29,-9,20
1530606770421819,56,6,-4,6,80,-1,33,-38
1530606770430795,-34,15,15,-6,15,46,-1,53
1530606770430795,35,0,-5,7,-12,-60,14,-72
1530606770445755,-47,-1,-11,1,-25,0,-9,-10
1530606770445755,26,-14,-6,-22,-58,3,-5,-23
1530606770447750,-19,6,11,1,46,-14,34,-25
1530606770447750,28,-3,4,-11,54,31,0,57
1530606770468694,16,7,0,-13,15,29,8,10
1530606770468694,10,3,-6,16,-23,-33,-47,-23
1530606770469692,-33,-19,-8,20,4,-14,-5,-4
1530606770469692,24,12,-5,-22,-96,0,-4,10
1530606770481659,-62,-6,13,-27,18,-4,5,-19
1530606770481659,6,11,12,39,11,1,3,39
1530606770490635,11,-7,-12,18,6,-18,-8,-5
1530606770490635,6,-7,-8,0,43,-16,-13,3
1530606770505595,-2,7,0,-23,3,28,13,2
1530606770505595,-33,-3,1,11,3,13,17,-3
1530606770507590,11,-7,-2,16,65,-4,-28,6
1530606770507590,6,-1,5,-32,5,3,-7,-14
1530606770528534,38,-2,-2,23,22,14,36,49
1530606770528534,-4,11,5,68,-31,21,-28,-48
1530606770529531,-8,9,11,6,-17,-9,-3,1
1530606770529531,-8,-7,-8,-35,26,3,13,10
1530606770541499,8,1,4,39,-52,12,-14,1
1530606770541499,35,-10,-6,-48,12,21,-44,28
1530606770551473,-47,-3,-7,27,-8,9,21,-30
1530606770551473,31,-21,0,18,19,9,-8,2
1530606770565435,-20,10,-5,-39,-77,-25,-7,-18
1530606770565435,4,-6,-6,8,15,-21,13,-11
1530606770567430,37,13,2,-19,-49,7,-1,5
1530606770567430,-22,6,-7,6,24,-57,-9,5
1530606770588373,4,-10,-1,11,-7,-19,-1,-13
1530606770588373,2,9,8,-3,22,7,15,0
1530606770590368,-27,1,16,15,71,-9,-2,-12
1530606770590368,-5,-1,-7,-3,-26,28,1,16
1530606770602336,10,-3,-2,-8,9,-24,-13,3
1530606770602336,23,-5,-6,-19,-54,-19,42,-1
1530606770611312,6,1,-8,38,-6,15,-7,6
1530606770611312,11,3,0,-12,5,1,4,3
1530606770625275,1,3,2,-7,23,-4,3,-40
1530606770625275,-70,-14,-3,-30,-8,-1,-3,36
1530606770632256,44,6,0,-8,-12,-12,15,-16
1530606770632256,-45,-14,-8,8,-26,44,-23,-40
1530606770648214,71,12,3,21,29,66,61,31
1530606770648214,43,4,-5,-59,-12,-37,-65,-38
1530606770650208,-29,2,4,13,35,1,13,33
1530606770650208,6,-1,12,12,-14,-11,-4,-10
1530606770671152,-55,2,3,28,38,61,-5,-3
1530606770671152,11,-15,-13,-31,-18,3,22,1
1530606770672150,-3,-12,-28,-26,-40,-7,-47,-1
1530606770672150,19,13,15,-9,-4,11,8,-6
1530606770685115,-32,-6,1,17,-10,-20,-8,20
1530606770685115,-2,10,5,-29,14,-3,7,2
1530606770692096,-19,-8,-1,28,-10,6,-2,6
1530606770692096,-33,-1,-10,9,49,10,22,1
1530606770708053,17,-6,10,6,-4,-75,-10,-4
1530606770708053,11,7,-5,-3,-10,-7,-2,15
1530606770710049,12,-2,-5,-53,-30,8,9,-1
1530606770710049,-28,1,0,14,51,17,12,-23
1530606770730992,6,-5,2,4,-23,-2,-7,-8
1530606770730992,4,2,2,34,40,12,17,22
1530606770731990,18,-7,-6,-7,-12,-10,-1,-14
1530606770731990,-4,4,-3,-3,19,-12,8,31
1530606770744955,-6,-2,-5,-40,-39,-56,-13,-52
1530606770744955,-27,-1,10,50,-2,25,32,-9
1530606770751936,23,-6,-8,-50,-35,-10,-1,5
1530606770751936,18,8,16,80,-15,46,-32,36
1530606770767894,-9,-8,-13,-22,4,-61,-31,-49
1530606770767894,7,6,0,27,20,19,4,-25
1530606770769889,-1,1,3,-3,-15,-3,-1,8
1530606770769889,9,4,1,-28,-28,2,20,20
1530606770790832,21,-4,-7,11,24,30,3,-3
1530606770790832,-72,-14,-11,-63,-41,-26,-16,-38
1530606770792827,42,2,10,21,-2,0,-1,-1
1530606770792827,13,3,7,23,15,-19,-11,7
1530606770804795,-60,-3,8,14,14,19,-1,18
1530606770804795,56,16,1,-8,-7,-2,-17,10
1530606770811776,3,-4,-2,-8,78,15,14,0
1530606770811776,-16,-3,-11,-14,-45,4,10,-23
1530606770828731,49,3,-3,-1,-8,-35,5,33
1530606770828731,-9,-3,-3,2,-53,46,1,-11
1530606770829728,-57,-1,-3,11,20,41,-8,7
1530606770829728,-6,2,-2,-11,-55,-70,-1,-34
1530606770850672,15,0,-2,-22,84,12,-4,3
1530606770850672,77,-2,1,38,73,16,34,9
1530606770852667,-41,-2,5,-26,-90,-25,-40,15
1530606770852667,-16,-5,-6,43,43,12,14,-21
1530606770865632,1,4,5,30,-22,0,-6,-13
1530606770865632,16,-7,-1,23,0,-14,7,23
1530606770871616,21,2,3,-10,-59,6,3,-38
1530606770871616,-38,-13,-13,-34,9,-6,7,22
1530606770888571,-18,7,-6,-5,3,39,-11,3
1530606770888571,2,-6,6,1,-26,20,-26,-20
1530606770889568,30,6,1,23,78,-39,19,9
1530606770889568,-37,-9,5,-2,31,-17,-27,28
1530606770910512,20,-4,-11,-8,-18,-5,14,-15
1530606770910512,-41,0,-5,-26,4,-22,-4,9
1530606770912507,-1,1,4,13,-10,23,9,-17
1530606770912507,3,6,11,3,31,29,6,20
1530606770924475,47,-4,-8,-31,32,3,-6,39
1530606770924475,-20,3,9,60,60,0,13,-46
1530606770933451,13,-3,-14,-30,-7,-96,-68,-29
1530606770933451,6,2,-4,-16,16,7,22,-12
1530606770948411,-38,0,4,12,-48,22,-4,23
1530606770948411,0,-9,-12,-38,-13,37,-3,15
1530606770950406,4,6,14,62,50,7,33,22
1530606770950406,9,-3,-3,-26,-32,2,-16,-17
1530606770970352,16,2,-5,5,39,-4,30,-11
1530606770970352,0,7,6,-8,30,-34,25,-21
1530606770972347,-33,-19,-12,11,0,10,-10,1
1530606770972347,40,2,-4,-55,-36,-32,-12,13
1530606770984315,-14,-3,5,32,-24,2,5,-1
1530606770984315,-23,1,0,13,-3,-9,2,24
1530606770993291,17,11,11,-16,-7,10,9,-12
1530606770993291,-7,-6,-10,-24,3,-21,15,-21
1530606771008251,-20,-8,-5,2,-13,1,-9,-20
1530606771008251,16,1,-5,34,12,-5,-17,17
1530606771010246,8,9,2,-9,29,20,18,12
1530606771010246,-2,-7,1,22,-10,12,-25,4
1530606771031189,-15,-3,2,-21,-22,20,-13,11
1530606771031189,27,-5,1,7,-55,-26,-3,-6
1530606771032187,-31,-6,-8,-4,78,23,19,7
1530606771032187,36,12,0,-19,8,8,5,-5
1530606771044155,-22,-3,-1,37,-19,14,-2,14
1530606771044155,-54,-11,2,7,0,-33,1,-20
1530606771053131,49,2,-2,-3,24,41,4,19
1530606771053131,-43,8,9,12,-5,25,-10,-29
1530606771068091,2,-23,-12,-59,-42,-29,0,-9
1530606771068091,6,2,-5,3,5,28,4,17
1530606771070086,-44,1,-4,-11,-38,-1,-31,-8
1530606771070086,37,-1,-2,24,7,-50,-3,-2
1530606771091029,-31,6,11,3,71,-7,-4,23
1530606771091029,12,2,6,1,11,3,-15,12
1530606771092027,-4,-1,6,-12,-43,1,5,-14
1530606771092027,-3,-13,-13,-18,10,-3,10,-5
1530606771104992,20,-3,-1,-13,-40,8,-11,2
1530606771104992,7,1,-1,37,14,10,-4,6
1530606771113969,-16,1,-4,-2,-18,-24,24,14
1530606771113969,42,4,6,-3,-81,9,-15,3
1530606771127931,-1,4,0,8,41,7,-2,-9
1530606771127931,-35,-3,-6,-40,4,-47,-10,-26
1530606771130923,5,-7,-4,4,-23,14,-5,16
1530606771130923,-30,-5,-5,13,41,9,4,-15
1530606771150869,49,-7,-3,-25,-22,-23,21,14
1530606771150869,29,7,-1,-29,-48,6,-4,17
1530606771152864,-34,6,7,-3,-67,-24,-11,14
1530606771152864,-6,-2,-2,9,-26,-4,16,-30
1530606771164832,21,8,-2,22,36,8,-14,21
1530606771164832,-43,-15,-3,-23,-10,45,14,-30
1530606771173808,4,-1,-4,-19,-42,-13,10,13
1530606771173808,21,4,8,-6,-10,10,-4,19
1530606771188768,-19,7,-1,-9,-33,-31,6,-6
1530606771188768,5,5,8,73,65,-9,-26,12
1530606771189766,9,-19,-13,-20,-5,-1,2,-8
1530606771189766,-29,-2,-5,-3,-40,-7,3,34
1530606771210709,18,6,-4,-15,5,26,-24,-29
1530606771210709,19,6,0,-19,-57,-18,11,12
1530606771212704,6,-3,-1,0,-21,10,10,-25
1530606771212704,17,-2,5,23,40,-2,19,22
1530606771224672,-29,1,-6,-2,-21,2,10,7
1530606771224672,11,-1,-5,-39,-29,11,-14,-10
1530606771233648,-9,1,1,-9,3,-38,-1,-1
1530606771233648,-34,-7,-2,3,-3,59,37,9
1530606771248608,-11,-3,5,12,17,-22,-31,-6
1530606771248608,20,5,5,16,22,-7,8,-27
1530606771249605,10,-2,-7,-23,-23,-5,7,-16
1530606771249605,7,0,-4,0,-41,-34,-46,40
1530606771270549,2,9,8,-3,16,4,3,-26
1530606771270549,2,-6,-8,-42,-55,-34,8,26
1530606771272544,-41,-10,-4,31,-2,69,-67,-20
1530606771272544,-16,4,-2,-14,21,-61,2,-9
1530606771284512,35,11,6,14,-21,-8,8,-6
1530606771284512,7,1,0,6,6,8,-13,10
1530606771293488,-9,-12,-1,1,12,3,14,5
1530606771293488,-4,-5,-5,5,22,2,-56,-57
1530606771308448,-32,-2,-4,-5,-34,0,3,28
1530606771308448,21,5,5,7,73,10,1,-32
1530606771310443,16,2,-6,8,27,-16,10,17
1530606771310443,-34,-1,-3,-28,28,11,-1,10
1530606771330389,31,-6,4,17,-1,-5,19,-17
1530606771330389,-11,4,-4,17,-17,35,-3,10
1530606771332384,12,3,9,13,17,-4,6,5
1530606771332384,-1,5,2,-9,20,18,2,-9
1530606771344352,-31,-11,-10,-15,-25,6,-10,-12
1530606771344352,81,6,-8,15,41,-25,26,14
1530606771353328,-53,-11,-10,-7,27,12,-7,-9
1530606771353328,24,6,13,21,-4,42,12,10
1530606771368288,-11,-12,-11,-17,4,-3,30,-11
1530606771368288,-64,-6,-7,-24,-1,-7,-14,-3
1530606771370283,42,11,36,17,36,-5,13,26
1530606771370283,12,-2,-17,-5,-3,2,1,-39
1530606771391227,1,3,0,9,28,6,-18,13
1530606771391227,-8,-4,10,9,40,-7,-2,-12
1530606771392224,28,7,-26,-23,-20,-4,-3,-36
1530606771392224,-22,-12,10,-2,-2,7,-1,11
1530606771404192,61,2,-9,22,55,-4,-3,6
1530606771404192,-24,-4,-2,-22,-27,-10,-2,-8
1530606771413168,-8,2,13,16,-8,-11,11,-19
1530606771413168,-15,-5,-12,3,9,-21,-2,53
1530606771428128,-22,-7,2,-14,-28,5,5,-21
1530606771428128,16,1,-6,-41,-55,4,-11,26
1530606771430123,-1,-5,9,23,49,6,15,7
1530606771430123,-6,10,13,67,14,43,0,-18
1530606771451066,0,1,-1,-36,-36,-28,3,33
1530606771451066,-16,-6,-6,37,23,1,-1,-39
1530606771452064,11,-14,-28,-20,9,16,7,2
1530606771452064,36,5,3,-32,-34,-11,-14,1
1530606771464032,-33,5,12,16,-12,14,-17,9
1530606771464032,-25,7,13,-24,-6,25,-19,-50
1530606771474006,19,2,-1,34,33,-63,-1,10
1530606771474006,38,-10,-20,-11,-37,14,5,16
1530606771487968,-1,7,4,12,68,3,6,-15
1530606771487968,13,-13,-11,-41,-69,-16,-5,18
1530606771489963,-9,-1,-3,-9,-8,19,-3,-13
1530606771489963,-19,9,16,-15,-15,-5,-13,16
1530606771510907,0,2,2,65,24,-6,1,-15
1530606771510907,-11,-5,-2,9,-11,16,11,32
1530606771512901,22,2,9,-12,-12,-37,-17,-2
1530606771512901,5,3,-12,6,-7,-11,8,-1
1530606771524869,8,-5,12,-21,-10,18,-1,-28
1530606771524869,16,-5,-8,2,35,-10,0,30
1530606771533845,-1,7,-2,-22,-40,8,8,15
1530606771533845,-43,-4,-3,-27,-8,-18,12,-20
1530606771547808,-37,-2,-9,3,-7,-1,20,-13
1530606771547808,5,-9,1,-2,-37,-21,-45,56
1530606771554789,32,2,0,-33,1,18,-15,-40
1530606771554789,-99,-2,-13,-15,-48,-1,7,-22
1530606771570746,44,2,-2,-24,26,-12,-35,4
1530606771570746,1,9,17,71,12,2,1,9
1530606771572741,-36,2,3,14,-9,-45,16,32
1530606771572741,54,-3,3,28,83,21,-4,-20
1530606771584709,11,-14,-22,-120,-73,-11,-21,13
1530606771584709,-14,0,-12,-57,-43,25,28,-28
1530606771593685,33,12,1,54,31,-6,42,45
1530606771593685,-43,-6,7,71,57,-16,-28,-42
1530606771607647,-9,-10,-16,-92,-14,-8,-3,19
1530606771607647,34,2,2,-5,-26,80,30,39
1530606771614629,-34,-4,4,21,-45,6,-32,-9
1530606771614629,15,4,4,-37,96,-83,34,25
1530606771630586,-14,-5,1,127,29,58,5,-38
1530606771630586,-27,-2,6,-16,19,-29,44,6
1530606771632581,41,15,4,6,83,36,-53,29
1530606771632581,-46,-14,-16,-49,-83,-2,-39,-31
1530606771653525,34,-3,3,-8,-18,-19,-80,-4
1530606771653525,33,2,-18,-36,9,44,57,-26
1530606771654523,-15,-4,-6,-8,-21,8,16,24
1530606771654523,16,3,7,7,16,-2,15,13
1530606771667488,-106,3,6,-20,1,21,15,-17
1530606771667488,-4,-2,13,108,5,0,-60,-13
1530606771674469,53,-2,-9,-36,9,42,21,-43
1530606771674469,21,6,16,95,-8,49,42,55
1530606771690426,15,10,12,63,37,-43,-61,32
1530606771690426,-43,-8,-12,-17,-1,-16,22,-23
1530606771692422,-60,-6,-3,-26,-38,-100,-8,-39
1530606771692422,75,2,-5,-90,43,9,27,19
1530606771713365,31,4,9,83,16,-22,53,-38
1530606771713365,3,7,-9,-46,20,22,-30,56
1530606771715360,-19,-16,-11,22,-21,2,-19,-17
1530606771715360,-47,-4,4,-17,-52,55,20,-51
1530606771727327,33,-3,-2,-48,-69,-54,34,13
1530606771727327,-1,1,-8,-88,2,0,-2,-13
1530606771734309,44,6,-3,29,-26,21,36,28
1530606771734309,-57,-21,-4,-45,-37,-71,-39,-39
1530606771751264,6,0,0,-24,89,60,-2,18
1530606771751264,31,4,0,19,-74,-48,56,-16
1530606771752262,42,14,0,14,86,9,2,6
1530606771752262,29,11,-6,25,-7,-15,-30,22
1530606771773205,-61,-23,3,-28,-34,-14,26,40
1530606771773205,-7,1,12,17,26,32,-23,-86
1530606771775200,-16,0,5,50,4,-33,-49,-35
1530606771775200,40,10,-9,-6,-1,-37,27,20
1530606771788165,-11,2,-7,-11,-97,42,-31,8
1530606771788165,-45,-8,-2,12,48,-46,31,23
1530606771794149,-9,-2,1,2,-3,-28,6,20
1530606771794149,2,-1,3,-15,-18,21,-12,-15
1530606771811104,18,8,0,11,-54,-55,88,47
1530606771811104,60,-2,1,42,2,22,-1,-45
1530606771812101,-32,-2,1,-48,-20,-25,-10,4
1530606771812101,3,-5,-5,-12,62,6,20,42
1530606771833045,29,18,-3,53,20,10,21,-11
1530606771833045,-73,-27,-1,-41,16,-63,-57,-5
1530606771835040,41,-9,7,32,22,-48,26,1
1530606771835040,-75,-2,-5,-39,-23,14,-38,-11
1530606771848005,54,1,-4,-6,35,-35,-36,33
1530606771848005,10,5,-17,-86,-45,82,-34,-27
1530606771854986,-24,3,9,70,39,35,19,10
1530606771854986,69,-11,6,-3,-39,-29,32,3
1530606771870943,-27,2,-6,-22,-17,-80,8,-27
1530606771870943,-22,-4,3,9,-84,-9,-74,22
1530606771872938,-34,0,-5,-14,-29,46,12,-6
1530606771872938,2,2,11,43,32,17,-20,8
1530606771892885,-10,-3,-2,-20,-3,104,2,-40
1530606771892885,54,27,8,38,-5,-68,47,37
1530606771894880,42,1,-11,-56,-61,56,25,-4
1530606771894880,-68,-19,-5,18,17,34,-106,-3
1530606771906848,19,-28,-8,-47,-64,-22,-10,-11
1530606771906848,-1,10,-8,-9,56,8,-11,0
1530606771915824,22,23,14,-22,-72,13,25,3
1530606771915824,-21,-8,-12,-48,-32,100,-5,0
1530606771930783,-36,18,6,46,-22,-55,11,-40
1530606771930783,-17,-34,3,54,22,-46,22,14
1530606771932779,52,18,-2,-22,28,-33,-19,14
1530606771932779,35,11,2,15,-21,-104,-22,-28
1530606771953722,-5,14,3,-7,63,-4,19,31
1530606771953722,-19,-4,-7,27,22,32,-2,-49
1530606771954720,-35,-2,3,-29,-11,77,14,-4
1530606771954720,6,-7,-7,-11,26,-87,-12,7
1530606771966687,-6,-8,-9,29,62,-2,8,12
1530606771966687,26,8,8,-6,12,15,9,-11
1530606771975664,-18,-12,-2,-31,38,-34,-12,22
1530606771975664,-30,-9,6,27,-58,46,23,-7
1530606771990623,34,-6,-3,-28,4,-11,10,-16
1530606771990623,32,9,-4,-9,-51,-26,17,33
1530606771992618,-47,-20,-20,35,65,93,-33,-15
1530606771992618,46,40,28,43,8,-64,106,4
1530606772013562,-23,-34,-12,-9,34,13,-50,-9
1530606772013562,-36,13,1,-8,-16,34,23,2
1530606772014560,-33,-13,-3,-1,-19,8,4,-5
1530606772014560,54,-2,-6,-24,-38,97,44,63
1530606772027525,-1,16,7,-6,-55,-26,7,7
1530606772027525,13,-11,-5,-6,53,-67,-17,14
1530606772036501,24,2,-10,-21,-1,-32,9,18
1530606772036501,-38,-19,-10,-19,43,46,-20,-79
1530606772050463,32,17,12,-8,-33,81,-6,60
1530606772050463,-28,-15,-15,27,47,-97,-27,-49
1530606772052459,-46,-22,3,-32,-46,-23,6,9
1530606772052459,38,26,9,88,95,17,-2,-11
1530606772073402,-32,-7,-5,6,36,72,9,9
1530606772073402,50,21,15,-17,-26,-11,-52,22
1530606772075397,3,-9,-4,7,17,17,-16,-27
1530606772075397,18,8,-10,-39,13,-19,-39,6
1530606772087365,-64,3,-10,-25,-23,4,3,-12
1530606772087365,-20,-56,-5,42,31,54,-17,11
1530606772096341,-1,-12,3,-41,-29,55,-15,18
1530606772096341,31,13,-5,-4,-9,-92,-53,-27
1530606772111301,15,23,-3,-12,-11,-17,-1,13
1530606772111301,4,13,11,-28,-21,6,-2,25
1530606772112298,-44,-9,-6,-18,-65,-36,-24,-31
1530606772112298,3,-9,-3,-4,60,9,25,-2
1530606772133242,11,-2,1,92,120,76,-59,20
1530606772133242,-33,-16,-6,-27,-27,1,49,1
1530606772135237,37,19,8,39,-46,6,5,-10
1530606772135237,-14,-8,-13,-13,-34,-10,-9,28
1530606772147205,16,3,17,-10,0,18,45,-38
1530606772147205,14,7,-4,-32,-66,14,-25,15
1530606772156181,12,2,1,60,50,44,20,12
1530606772156181,-30,-13,-10,-10,-7,78,-3,1
1530606772171141,1,-6,2,22,4,48,-14,-28
1530606772171141,-16,2,4,-17,-17,-8,13,-33
1530606772172138,46,13,-13,-32,-51,-9,6,-5
1530606772172138,61,2,13,9,-22,-31,18,43
1530606772193082,2,-4,-2,-1,-1,-12,-11,10
1530606772193082,-5,-2,-6,27,83,-64,24,-39
1530606772195077,-68,-4,0,-28,-12,-26,-36,-9
1530606772195077,14,-5,-4,-13,51,10,10,-5
1530606772207045,7,9,7,34,23,-44,-59,-4
1530606772207045,14,21,5,3,-6,-55,-13,28
1530606772216021,-11,-16,-4,4,99,56,38,14
1530606772216021,-32,-3,-9,-56,-94,-55,-34,-33
1530606772230981,75,-16,-2,6,-11,-22,18,-8
1530606772230981,-24,14,5,8,-32,113,-17,18
1530606772232976,-6,0,0,-14,-16,-59,16,-10
1530606772232976,-32,-5,-5,-9,-6,36,3,-8
1530606772252922,-27,-19,-11,-6,-18,-40,11,-42
1530606772252922,54,17,16,22,38,41,1,25
1530606772254917,4,13,10,31,-22,-17,-21,11
1530606772254917,-25,13,9,-13,-11,-34,-4,15
1530606772266885,-49,-29,-1,53,24,16,33,-28
1530606772266885,39,-6,-18,-8,-19,-14,11,5
1530606772275861,17,14,7,-28,0,-36,-20,3
1530606772275861,19,-5,-1,38,34,-2,31,7
1530606772290821,-10,18,4,-30,-47,45,9,2
1530606772290821,-59,-7,-6,-24,-2,74,-51,-2
1530606772292816,25,-11,-1,36,74,-38,-6,-12
1530606772292816,-30,9,-4,3,-30,37,11,-14
1530606772313759,30,2,5,-39,-90,-39,-10,-4
1530606772313759,11,-7,2,16,19,10,17,15
1530606772314757,-3,3,-7,-31,-33,0,-14,-13
1530606772314757,5,-5,-2,-2,-10,-9,24,18
1530606772326724,-42,-11,-9,-3,4,-19,-7,-21
1530606772326724,-6,3,0,-6,12,-22,17,50
1530606772335701,50,-4,0,-3,1,11,-8,-60
1530606772335701,-8,-5,9,9,-42,-11,-4,16
1530606772350660,-19,17,6,0,42,2,5,-13
1530606772350660,29,3,-7,25,-72,-12,2,8
1530606772352656,-74,-12,-3,-7,-18,-12,-10,14
1530606772352656,40,-11,-3,-1,40,21,-5,-12
1530606772373599,24,9,0,22,-8,3,-5,2
1530606772373599,13,4,1,-2,10,-11,8,-2
1530606772375595,-26,-13,2,10,-17,-3,31,-17
1530606772375595,-5,0,-4,14,1,-10,-1,-30
1530606772386565,-17,-7,-7,-50,-87,-8,-4,29
1530606772386565,-2,-1,2,-11,45,-2,-10,1
1530606772396538,23,8,-2,6,35,1,-3,5
1530606772396538,24,6,6,15,-9,17,53,27
1530606772410501,-38,-3,-4,-10,18,-19,-16,24
1530606772410501,11,-6,-4,-9,-7,8,-16,-35
1530606772412496,-4,-13,-5,-26,-13,8,9,28
1530606772412496,-66,-3,5,-15,-32,-24,14,7
1530606772433439,54,23,5,61,46,2,-17,-12
1530606772433439,-11,-20,9,59,45,-4,-6,2
1530606772435434,-12,10,-2,-25,-58,36,-6,-2
1530606772435434,20,-11,-15,5,48,2,-14,-24
1530606772447402,-57,-15,-3,-36,-43,-28,23,24
1530606772447402,55,5,-4,-3,71,3,11,-3
1530606772456378,24,10,2,2,-64,-11,-12,-26
1530606772456378,-20,2,6,-24,-3,3,-17,-19
1530606772471338,6,-10,-6,-7,15,35,12,-2
1530606772471338,-9,5,8,28,34,-29,-3,-18
1530606772472336,-11,-6,-11,-34,4,-19,11,15
1530606772472336,18,1,-2,26,-26,-1,-45,-10
1530606772493279,-27,11,13,18,37,2,13,-7
1530606772493279,-17,-16,-3,-22,-48,-8,15,25
1530606772495274,19,3,0,20,27,1,-4,15
1530606772495274,21,10,-6,-13,-22,-22,1,0
1530606772507242,-6,7,7,39,53,1,14,-15
1530606772507242,12,-17,-15,-59,-76,34,6,21
1530606772516219,-38,8,13,82,71,-31,-18,-37
1530606772516219,12,-12,-9,-37,-84,49,14,11
1530606772529183,-18,-5,-5,1,-3,-33,-3,5
1530606772529183,13,22,0,-6,-16,-2,-19,-27
1530606772538159,-11,-27,-8,-23,-9,20,29,20
1530606772538159,-6,3,0,8,7,-2,-3,0
1530606772553120,26,-3,-3,-11,4,0,-9,18
1530606772553120,-25,-2,3,-18,-40,10,36,-6
1530606772559103,-37,0,-3,9,28,16,0,-9
1530606772559103,3,6,6,18,45,-20,3,0
1530606772576058,7,-12,-8,-57,-37,19,12,12
1530606772576058,-45,-2,-4,-7,13,-37,-7,5
1530606772577056,58,9,4,14,21,-9,-14,6
1530606772577056,45,-5,-4,5,9,30,-19,14
1530606772590021,16,12,-8,-36,-10,1,-4,-8
1530606772590021,-25,-9,0,34,11,-21,3,-6
1530606772597002,-15,8,9,48,103,9,2,-18
1530606772597002,-26,-13,6,28,15,-14,-19,-5
1530606772612959,22,6,0,-34,-44,17,9,-4
1530606772612959,-28,9,5,14,-3,-2,-10,10
1530606772614954,23,-23,-14,-29,-24,-16,10,24
1530606772614954,10,9,2,4,12,-4,-28,-42
1530606772635898,34,-5,-4,-29,52,-1,51,16
1530606772635898,-35,4,7,65,6,31,-73,-19
1530606772637893,53,10,-2,-28,-49,-8,17,19
1530606772637893,-36,0,-1,-8,22,38,-9,11
1530606772649860,-30,-17,-4,-10,37,-24,-16,-24
1530606772649860,-1,10,3,29,-12,-8,42,-5
1530606772656842,-44,-4,5,69,-12,24,-53,0
1530606772656842,17,14,2,-7,-31,-11,8,-34
1530606772673797,32,1,-2,-4,-31,-12,-25,1
1530606772673797,6,-21,-11,-64,-2,43,10,-18
1530606772674794,-14,6,2,-39,-35,-48,8,11
1530606772674794,-43,-5,-1,-28,-23,-21,12,22
1530606772695738,50,2,3,52,37,-1,-32,29
1530606772695738,23,8,-7,-46,-60,-14,5,-33
1530606772697733,-7,-3,-4,-56,-29,-8,19,-3
1530606772697733,-30,-12,-5,-25,5,-11,-19,29
1530606772710698,-16,-4,2,3,-16,2,15,-26
1530606772710698,9,7,-4,-14,9,-5,-15,16
1530606772716682,0,-5,-1,-4,1,3,-8,5
1530606772716682,-22,-15,-8,9,7,-23,18,21
1530606772733637,10,6,2,27,18,18,-10,-24
1530606772733637,-15,-10,3,23,13,-15,-8,28
1530606772734634,-10,3,-2,-10,-28,40,15,-39
1530606772734634,26,8,4,-6,-3,7,10,56
1530606772755578,44,1,-11,-61,-30,1,-15,-20
1530606772755578,-25,-7,0,41,75,-11,27,1
1530606772757573,-3,10,2,-17,53,-13,16,0
1530606772757573,13,-1,3,81,-49,1,7,-2
1530606772770538,-29,-12,-4,6,2,-2,-4,37
1530606772770538,27,7,-1,-17,43,-18,6,7
1530606772776522,-14,2,4,7,-32,9,-28,-46
1530606772776522,16,3,1,-16,-1,7,-7,-18
1530606772793476,-18,4,1,13,-6,9,41,-23
1530606772793476,-6,-3,-2,-5,-18,-17,-25,22
1530606772795471,-21,-5,-2,1,-13,-17,5,13
1530606772795471,15,7,5,-9,42,15,-18,8
1530606772815418,-5,-2,0,-1,-12,-4,-6,-43
1530606772815418,34,-1,-2,-19,-5,-3,-14,-3
1530606772817413,25,3,-3,8,2,8,-25,-7
1530606772817413,-9,2,-4,-33,-33,-25,17,-9
1530606772829381,-15,-2,5,58,38,10,-11,28
1530606772829381,-6,-8,-3,-43,-86,5,3,16
1530606772838357,-5,-4,-3,30,27,-22,-1,16
1530606772838357,-56,-8,-4,28,70,8,7,-4
1530606772853317,27,2,-3,-53,-48,-4,-9,7
1530606772853317,13,16,6,66,32,-41,-4,-19
1530606772855311,0,-21,-4,-14,-24,32,18,19
1530606772855311,-6,0,-4,-19,-6,-34,4,30
1530606772876255,-35,-4,-2,-6,-47,2,2,14
1530606772876255,17,2,-4,-44,10,17,6,-14
1530606772877253,9,4,-1,12,-7,5,22,15
1530606772877253,4,1,-2,-22,-5,-19,-5,-43
1530606772889220,-12,-4,1,-3,-33,-25,0,36
1530606772889220,6,2,3,34,81,12,11,6
1530606772898196,-6,-3,-3,-13,37,24,-10,27
1530606772898196,-23,-12,-6,-11,-10,21,-24,-31
1530606772913156,7,8,-5,-26,-37,-3,-28,-17
1530606772913156,11,-9,-1,-6,-46,26,1,-32
1530606772915151,2,5,0,-28,11,-58,10,2
1530606772915151,12,1,2,8,22,3,7,3
1530606772936097,-1,-8,2,14,9,-33,-18,7
1530606772936097,-29,0,-6,-21,-32,3,12,-11
1530606772937093,10,-8,-7,-43,-34,31,10,-1
1530606772937093,11,7,8,24,18,17,-19,-12
1530606772949060,12,11,-1,7,2,-20,26,-8
1530606772949060,12,-5,-8,-64,-33,5,-29,-17
1530606772959034,-12,3,3,55,12,-5,7,1
1530606772959034,-13,-1,-1,-7,-19,-7,-7,23
1530606772972996,0,-3,1,24,26,-2,14,-32
1530606772972996,5,8,3,-13,-76,-4,-4,-33
1530606772974992,6,-7,-3,-10,-6,2,1,18
1530606772974992,20,5,2,8,-13,-28,-21,-4
1530606772995935,-21,3,-2,-13,3,21,-10,-1
1530606772995935,-58,-11,-3,18,7,-1,62,11
1530606772997930,-5,12,1,0,-55,-18,-19,-10
1530606772997930,36,-6,-5,-6,12,9,3,9
1530606773009898,28,-4,-7,-33,-26,-25,12,4
1530606773009898,-24,1,4,32,62,19,-14,23
1530606773018874,6,-5,3,9,15,12,11,-26
1530606773018874,2,-4,-10,-23,-7,-9,23,37
1530606773033834,-6,7,1,-60,13,-6,-13,-22
1530606773033834,18,2,14,82,30,64,19,1
1530606773034831,25,4,6,21,14,-42,-4,21
1530606773034831,-15,-18,-8,-25,-69,2,31,-25
1530606773055775,-61,-3,-12,-19,-1,10,-5,-19
1530606773055775,5,11,11,5,28,-20,20,22
1530606773057770,6,-10,-3,-24,-13,4,-24,-5
1530606773057770,-5,5,4,36,-14,8,-3,-1
1530606773069738,13,-2,-2,10,13,8,-15,-5
1530606773069738,8,-3,-8,-19,-14,-12,-19,8
1530606773078714,-5,1,1,5,3,5,-3,3
1530606773078714,8,-4,-2,-9,4,7,4,-7
1530606773093674,5,-5,4,33,19,-7,39,2
1530606773093674,-22,2,-6,-28,-43,-29,-3,24
1530606773094671,1,-5,-1,4,9,-24,-23,2
1530606773094671,-10,-1,-11,-9,1,35,34,14
1530606773115615,52,14,12,56,40,31,-55,2
1530606773115615,-13,-11,-4,-17,-42,-62,-15,-19
1530606773117610,-45,-12,-6,-8,19,-20,-2,28
1530606773117610,31,7,2,-1,9,-6,0,-59
1530606773129578,-12,-4,-1,11,10,10,3,27
1530606773129578,51,17,-3,5,17,7,-9,1
1530606773138554,-28,-4,-1,0,9,26,0,-14
1530606773138554,26,5,5,-3,16,-27,-3,14
1530606773153514,46,-1,1,22,55,23,13,-32
1530606773153514,-92,-13,-8,-15,18,-9,-21,8
1530606773155509,26,7,-2,4,24,-2,-1,-18
1530606773155509,-5,6,4,12,11,3,-12,-2
1530606773175455,-15,-5,-4,-11,-27,-3,-2,5
1530606773175455,20,-5,5,35,52,10,6,-3
1530606773177450,1,6,-6,-16,4,32,-6,-7
1530606773177450,-10,2,6,18,6,-16,22,1
1530606773189417,-18,4,-1,-3,-11,-9,-11,12
1530606773189417,3,-12,-5,-14,-39,2,-1,-10
1530606773198394,4,2,1,-6,-19,-26,19,-1
1530606773198394,-20,0,-7,-5,-3,10,-42,1
1530606773213353,-19,-7,-1,-8,-15,-5,4,-4
1530606773213353,14,6,5,18,17,19,19,-11
1530606773215348,36,8,0,0,-7,7,9,10
1530606773215348,-33,0,1,1,15,-22,-2,26
1530606773236292,0,-35,-14,-13,-8,5,4,16
1530606773236292,-60,0,-5,-54,-56,15,7,-52
1530606773237290,56,4,1,25,34,-36,-23,-21
1530606773237290,12,4,-1,-8,-29,-12,2,-6
1530606773249258,-4,10,5,15,21,6,11,54
1530606773249258,25,2,-5,-35,-38,1,-14,1
1530606773258234,-45,-21,3,28,33,-31,-14,1
1530606773258234,-17,-2,-3,-22,-65,-6,-11,-34
1530606773273194,17,5,3,71,81,-6,0,-4
1530606773273194,19,5,3,-4,-10,3,-5,8
1530606773275188,0,11,5,8,-6,23,1,-22
1530606773275188,2,-9,-8,-21,7,10,-5,-3
1530606773296132,-38,-11,-8,-32,-43,-9,2,-14
1530606773296132,7,1,1,50,50,7,1,43
1530606773297130,8,2,0,-7,-20,-1,39,-33
1530606773297130,-1,-2,-1,3,18,12,-9,-6
1530606773309097,7,-2,-2,-9,-21,-5,-6,4
1530606773309097,20,8,-2,-15,6,5,-7,4
1530606773319071,-34,-2,-1,-14,-37,-11,34,13
1530606773319071,-1,-13,2,23,36,-6,4,-19
1530606773333033,-3,5,0,-10,0,25,-27,-2
1530606773333033,-11,-1,-2,9,-46,-2,17,10
1530606773335028,2,-3,-4,-14,6,24,-27,-15
1530606773335028,-16,4,6,2,30,16,-2,30
1530606773355972,4,3,2,29,28,-55,29,-21
1530606773355972,9,-14,-2,-3,70,-7,-12,20
1530606773357967,-16,2,-6,-7,-29,22,-12,64
1530606773357967,5,5,-3,-2,-20,11,-15,-97
1530606773369935,-3,0,5,-23,-43,0,-1,13
1530606773369935,2,1,3,15,22,-6,3,-10
1530606773378911,36,2,-7,-18,-4,13,-16,-1
1530606773378911,-12,-12,-3,10,25,-7,10,29
1530606773392873,8,2,0,0,-9,0,7,-7
1530606773392873,-29,-2,1,-2,-3,-15,-5,-10
1530606773394869,-2,5,-4,-4,-20,14,-5,7
1530606773394869,11,2,2,2,11,-9,31,8
1530606773415812,11,1,-3,4,-11,1,-11,-24
1530606773415812,5,0,-2,-5,3,4,5,-5
1530606773417807,-43,-5,-5,-10,-23,-12,-6,2
1530606773417807,15,-5,-2,0,4,6,3,11
1530606773429775,-27,4,-5,-9,3,-24,19,1
1530606773429775,-1,-10,0,-2,-12,5,-28,-14
1530606773438751,5,5,3,-26,-91,-13,5,-1
1530606773438751,5,-6,-5,0,-3,-9,5,-1
1530606773452714,-9,9,-3,-8,-24,21,1,21
1530606773452714,10,-13,0,6,28,-14,0,-33
1530606773459695,4,-2,0,-7,11,35,16,5
1530606773459695,-54,-5,2,3,2,-24,-9,22
1530606773475652,37,5,0,6,-16,-15,-13,3
1530606773475652,55,-1,-9,-23,-25,10,0,-10
1530606773477647,-79,-10,4,23,32,-6,-13,-5
1530606773477647,67,9,3,5,1,7,-1,8
1530606773489615,-9,4,-2,-5,5,7,-2,0
1530606773489615,27,9,0,-2,-4,-16,1,17
1530606773498591,18,-4,-1,7,17,2,-5,-12
1530606773498591,-14,1,-3,2,-10,3,-7,2
1530606773512553,-2,-6,-4,-6,-3,4,-3,1
1530606773512553,-46,-13,1,5,12,36,0,6
1530606773519535,9,5,2,8,6,-60,-10,-12
1530606773519535,-15,-8,-5,-6,-40,1,8,5
1530606773543471,21,-3,2,-15,29,5,2,0
1530606773543471,-2,6,2,14,-3,1,25,-4
1530606773545465,21,2,-3,-4,28,4,-19,-3
1530606773545465,-7,8,3,14,-10,6,6,5
1530606773558431,6,-13,-2,18,-4,-17,-16,-4
1530606773558431,-6,-2,-1,-10,5,26,4,6
1530606773560426,-13,2,4,-9,-49,-13,19,-7
1530606773560426,34,-2,0,20,100,6,-4,-1
1530606773572393,-33,1,1,-2,-4,20,-1,3
1530606773572393,0,10,-1,-11,-6,-17,-18,25
1530606773579374,14,-4,-3,16,0,11,2,-59
1530606773579374,4,-15,-3,-13,-19,-2,-10,-6
1530606773596330,32,2,0,16,12,32,-6,12
1530606773596330,-68,0,-3,-18,-22,-32,-1,4
1530606773597327,80,14,-1,-5,8,11,3,34
1530606773597327,-79,-2,-1,-1,-12,-5,-10,-55
1530606773618271,-30,-8,-2,-11,-3,4,2,-3
1530606773618271,42,-6,1,2,-14,-5,-4,6
1530606773620266,-32,-1,-2,-3,13,7,-1,2
1530606773620266,29,11,3,-10,-29,0,-10,14
1530606773632233,25,6,-1,-15,-15,6,20,4
1530606773632233,-18,4,10,81,70,-5,-37,-16
1530606773639215,-16,-16,-3,-9,-13,-4,6,-2
1530606773639215,10,-2,-8,-46,-34,-8,0,15
1530606773656169,-5,-9,0,6,3,2,7,-12
1530606773656169,22,1,-9,-28,-16,-14,2,-4
1530606773657167,-14,2,2,1,3,5,-5,-1
1530606773657167,12,5,5,9,-11,-7,-7,12
1530606773678111,4,2,-3,-15,-15,10,-1,15
1530606773678111,-29,-4,-1,-8,-11,-54,1,-56
1530606773680106,9,-12,-3,-1,12,6,-8,11
1530606773680106,-7,8,-1,-7,-8,-3,7,-6
1530606773693070,-2,-2,2,8,7,-12,8,11
1530606773693070,6,-7,-1,-1,-6,14,24,7
1530606773699054,7,5,-1,-7,0,-1,-10,-6
1530606773699054,12,5,2,17,17,-7,1,6
1530606773716009,12,-4,2,15,42,-1,-11,10
1530606773716009,0,2,-4,-1,6,9,-5,-11
1530606773718004,-9,1,-2,-14,7,4,4,-1
1530606773718004,8,-13,3,15,17,16,15,-3
1530606773737951,-42,10,0,0,-20,12,-45,-11
1530606773737951,-52,-7,-5,-21,-17,1,-4,8
1530606773739946,47,1,-2,-21,-18,-21,12,13
1530606773739946,-10,-2,-4,10,-33,-1,-9,6
1530606773752911,-5,-8,2,-6,20,25,20,-5
1530606773752911,15,4,0,4,10,21,0,9
1530606773759892,-19,-4,-1,0,-7,4,-24,-16
1530606773759892,7,-1,-1,-2,-12,-13,-14,14
1530606773775849,48,-1,0,-17,-27,-10,8,-13
1530606773775849,-50,9,2,5,-13,1,9,11
1530606773777844,25,-15,-3,7,-1,12,3,6
1530606773777844,-15,-2,-4,-9,31,-4,-12,-12
1530606773798788,12,8,3,20,15,-30,-23,2
1530606773798788,25,8,0,-7,8,35,2,-2
1530606773799786,-27,-9,-2,6,-49,-24,14,5
1530606773799786,-5,-1,-5,-74,-35,18,10,-1
1530606773811753,-19,-6,0,27,9,48,-9,4
1530606773811753,29,-7,-6,-15,2,-4,16,-6
1530606773820729,-4,8,3,3,26,5,-17,-3
1530606773820729,-9,-7,-9,-28,-28,1,5,-2
1530606773835691,0,9,0,-3,-31,5,12,14
1530606773835691,46,3,8,10,16,29,-7,1
1530606773837684,-75,-17,-2,12,70,5,15,-32
1530606773837684,18,-7,0,-6,-36,10,-3,-4
1530606773858628,-24,-2,-5,-6,0,-38,-4,13
1530606773858628,39,12,0,5,-5,-10,-2,4
1530606773859625,3,0,-8,-61,-37,23,6,6
1530606773859625,-10,0,11,91,83,-46,18,7
1530606773872591,31,6,0,-14,-78,-53,-25,-19
1530606773872591,-37,-22,-5,-48,-84,23,-62,-6
1530606773881567,15,4,-2,10,-29,2,-2,18
1530606773881567,-16,1,-7,-20,-34,2,7,-10
1530606773895529,-13,-13,-5,-17,-17,0,20,0
1530606773895529,14,6,-2,-20,-31,-20,-5,-1
1530606773897524,12,9,5,26,20,-6,-23,-8
1530606773897524,16,-2,-1,14,13,10,7,9
