timestamp,emg1,emg2,emg3,emg4,emg5,emg6,emg7,emg8
1530606799583830,97,23,-7,-6,-15,-9,-4,-5
1530606799583830,-4,10,0,-6,7,-13,-16,-3
1530606799584828,-42,0,-4,-3,9,20,-11,-8
1530606799584828,-2,1,-1,-4,-20,-10,21,10
1530606799605771,-17,-9,2,3,-1,-18,1,5
1530606799605771,11,1,-4,-2,0,15,20,-1
1530606799607766,23,-1,5,6,-2,-2,-32,-5
1530606799607766,-58,-23,-12,-8,-2,23,11,-2
1530606799619734,24,10,1,5,14,-18,8,1
1530606799619734,-43,52,12,-1,-10,-6,4,2
1530606799628710,49,-4,-7,-2,-16,1,7,22
1530606799628710,11,17,-6,-3,9,13,-30,-24
1530606799643670,57,-3,-6,-11,-24,-1,5,-13
1530606799643670,-67,-51,-3,3,1,15,6,8
1530606799645665,20,35,0,3,8,-18,15,-9
1530606799645665,11,-10,1,-9,-30,-38,7,15
1530606799666608,-91,-15,-2,14,31,2,-8,-6
1530606799666608,36,-17,-2,-4,-30,-5,-5,6
1530606799667606,-26,4,3,3,2,-7,10,-9
1530606799667606,5,-11,0,2,-2,46,5,-2
1530606799679579,61,15,1,-6,17,9,-18,11
1530606799679579,27,23,6,1,-4,-29,-14,-27
1530606799688550,-26,-35,-5,-5,-31,11,-1,8
1530606799688550,-50,-1,5,5,38,7,40,20
1530606799703510,19,21,5,2,-3,2,-16,7
1530606799703510,-17,-19,-2,1,6,-7,-31,-16
1530606799705505,-5,-7,-2,-3,-10,11,-16,-6
1530606799705505,-38,4,-13,-7,-6,-43,-3,-9
1530606799726448,24,9,-2,-4,-17,2,7,7
1530606799726448,39,14,-1,-4,-3,-27,-5,6
1530606799727446,-11,-9,1,1,3,30,20,-4
1530606799727446,-17,-20,-2,-2,2,11,-8,-10
1530606799739414,5,16,4,3,-8,-18,4,10
1530606799739414,-11,-11,-2,7,19,-3,8,0
1530606799748391,-24,-10,1,0,5,23,8,-1
1530606799748391,26,3,-1,0,6,24,-8,22
1530606799763353,-2,5,-2,-6,-20,-32,-30,-4
1530606799763353,-19,-22,-1,-4,-17,15,-10,4
1530606799765345,57,20,-3,-2,18,-9,17,14
1530606799765345,27,12,8,4,10,14,-21,-8
1530606799786288,-15,-6,-5,-3,-1,-6,-4,-25
1530606799786288,-107,-21,1,3,1,-2,15,1
1530606799788283,27,-5,-1,1,6,-4,2,3
1530606799788283,89,25,3,-1,-38,-3,20,20
1530606799800251,-57,-16,-7,-4,25,-24,17,1
1530606799800251,-58,-6,2,0,-17,66,-12,-21
1530606799809227,42,12,0,-4,-6,-4,-6,9
1530606799809227,-5,-10,-8,0,21,-2,-24,-14
1530606799823190,-23,6,5,5,-6,1,9,9
1530606799823190,52,2,-7,-11,-21,-22,11,5
1530606799825185,-95,6,4,6,5,1,-3,-11
1530606799825185,66,4,5,1,3,1,30,26
1530606799846132,-32,-12,0,1,3,17,-32,-24
1530606799846132,108,15,-8,-6,0,-26,-1,-16
1530606799848124,-31,4,4,0,22,6,-10,7
1530606799848124,-11,-8,-5,-5,-22,-28,15,-5
1530606799860091,-37,-1,7,5,8,25,9,15
1530606799860091,20,-13,-2,3,4,4,-5,0
1530606799869067,-26,-3,3,4,-8,-32,8,-10
1530606799869067,2,13,1,3,10,19,10,11
1530606799884027,37,12,2,-3,3,12,6,-6
1530606799884027,14,3,-8,-8,-19,-28,-18,7
1530606799885025,13,-16,-6,-5,-2,1,-18,-10
1530606799885025,-78,-14,7,7,8,-6,2,0
1530606799905968,26,-8,-13,-9,-16,-10,9,0
1530606799905968,34,11,0,0,18,3,17,11
1530606799907963,-18,-9,-1,-4,-13,-1,-1,-3
1530606799907963,17,3,-4,0,9,-7,-41,-26
1530606799919931,-71,-13,3,0,4,-8,8,-6
1530606799919931,15,9,5,6,11,-2,-2,6
1530606799928908,66,-5,-3,-5,-7,22,12,24
1530606799928908,-31,-1,-2,-2,-16,-4,-5,-5
1530606799943867,19,11,2,3,14,21,20,2
1530606799943867,-2,7,2,-2,-3,-8,-6,10
1530606799944865,-12,-4,-3,4,21,-5,-9,-10
1530606799944865,63,1,-4,-5,-8,-3,-11,-6
1530606799965808,-6,2,-1,-2,-21,-1,0,8
1530606799965808,-57,-3,7,4,5,12,8,-8
1530606799967803,-4,0,0,0,-3,-6,12,6
1530606799967803,23,1,0,1,-8,2,0,0
1530606799979772,49,-9,-8,-6,-3,-6,-8,-23
1530606799979772,-12,3,-3,-3,5,-5,-9,2
1530606799988747,-17,-4,4,1,-2,16,1,-4
1530606799988747,-29,4,4,5,8,-23,19,11
1530606800002710,-4,-13,2,-1,-1,42,15,15
1530606800002710,8,-12,-4,-1,0,20,-10,-8
1530606800009691,-25,7,-1,-1,3,-30,2,-11
1530606800009691,0,-2,3,0,0,-7,-28,-7
1530606800026646,18,5,-1,-4,-15,-3,3,-3
1530606800026646,-51,0,0,5,15,-2,-1,5
1530606800027643,84,2,1,2,-15,-1,-2,-1
1530606800027643,-53,-23,-4,-2,21,12,8,15
1530606800048587,34,18,-4,-3,-13,-42,0,-17
1530606800048587,-63,-11,4,-1,-10,36,-20,-8
1530606800050582,53,17,1,7,35,5,1,2
1530606800050582,13,-19,-6,-6,-32,-9,8,12
1530606800062550,-35,-5,-1,-1,0,1,-6,19
1530606800062550,-40,-5,3,1,-5,-8,0,-32
1530606800069531,0,6,3,2,2,0,-23,-4
1530606800069531,27,-17,-10,-8,5,14,3,-2
1530606800086485,13,10,0,-2,-6,-33,15,11
1530606800086485,28,-4,-2,-2,-3,0,10,11
1530606800087483,-3,14,1,-3,-9,7,2,3
1530606800087483,-17,0,-1,1,20,9,-24,-23
1530606800108427,-35,-7,4,4,-13,-5,-7,3
1530606800108427,-4,0,-1,0,4,9,6,-5
1530606800110422,-7,-6,-2,-1,-4,-15,-3,-11
1530606800110422,19,15,6,4,6,11,26,17
1530606800123388,-27,-18,-2,-3,-25,-12,-14,-5
1530606800123388,-52,-11,9,15,30,-22,8,1
1530606800129372,94,-3,-14,-16,-36,37,10,18
1530606800129372,7,19,-2,-6,-6,-29,-31,-19
1530606800146326,-39,-10,2,1,24,-4,13,3
1530606800146326,-13,-3,-3,-4,-20,9,14,10
1530606800148321,-72,-14,5,4,6,-1,4,-2
1530606800148321,3,14,4,4,-2,-3,20,7
1530606800168267,31,-7,-6,0,14,6,-28,-4
1530606800168267,20,-5,-2,0,-7,-15,3,-3
1530606800170262,-20,-5,-3,-3,3,-3,-9,-6
1530606800170262,22,7,0,-4,-13,-13,-1,-5
1530606800183227,-5,-2,2,0,9,10,2,3
1530606800183227,11,-2,-2,-5,-12,3,0,15
1530606800190208,-8,14,0,-1,18,8,6,-4
1530606800190208,-74,-22,2,6,1,-19,15,1
1530606800206165,21,-7,-5,-8,-17,39,4,0
1530606800206165,71,17,-9,-4,9,-36,-32,-1
1530606800208160,4,-11,-2,-2,8,-8,-2,-23
1530606800208160,-10,5,-6,-5,-5,-5,5,8
1530606800229104,-49,-3,0,3,8,6,16,4
1530606800229104,15,12,3,-1,-7,14,-13,5
1530606800230102,-18,-23,-3,0,-29,-8,2,0
1530606800230102,-2,-12,-3,1,5,5,6,11
1530606800243067,7,9,0,1,-9,-16,0,-24
1530606800243067,33,1,2,0,14,12,7,6
1530606800250048,14,0,-6,-8,-12,-14,-9,-3
1530606800250048,8,13,-1,-2,6,2,33,10
1530606800266005,-18,-12,-3,-6,-7,9,-21,3
1530606800266005,-17,-10,2,7,8,2,-9,4
1530606800268001,10,18,2,4,17,18,-1,2
1530606800268001,2,-9,-1,-8,-16,1,-24,-28
1530606800288944,3,-14,-4,-6,-18,-49,22,17
1530606800288944,-8,8,-3,2,12,18,13,-3
1530606800289942,-32,-6,2,2,-15,-11,-3,9
1530606800289942,-11,9,4,4,3,26,-5,-16
1530606800301910,15,11,8,6,9,-3,-11,6
1530606800301910,27,-4,-11,-10,-12,-17,14,-5
1530606800310885,25,-4,-5,-4,-16,-13,5,12
1530606800310885,-3,11,0,-2,19,3,1,-10
1530606800325845,-13,-19,-1,4,6,9,-6,-1
1530606800325845,-29,5,3,0,-6,0,10,-4
1530606800327840,3,-8,-1,-3,4,-4,-3,-13
1530606800327840,10,-2,-2,1,1,-14,-23,8
1530606800348784,-53,-3,-2,-1,-9,14,6,-4
1530606800348784,53,9,0,-9,-18,-8,25,1
1530606800350779,13,9,1,8,9,-22,-24,-8
1530606800350779,18,5,2,-3,-6,38,-10,-16
1530606800362747,11,-2,-3,7,18,-9,-20,-9
1530606800362747,-33,-9,0,-3,-12,-5,-4,14
1530606800371723,-15,5,3,3,-3,4,16,2
1530606800371723,-34,-27,-6,-5,-7,-27,-6,3
1530606800386683,22,6,-5,6,6,3,10,-1
1530606800386683,1,0,-4,-5,-9,2,-10,-6
1530606800387681,4,-7,1,-2,11,9,-29,4
1530606800387681,-2,19,-2,0,-5,-11,11,-2
1530606800408624,22,4,0,-5,-12,0,20,2
1530606800408624,15,-10,-5,-4,9,-15,-42,-15
1530606800410619,-6,4,-3,-6,-1,5,20,0
1530606800410619,-51,-8,5,4,7,18,-12,4
1530606800422587,2,4,1,-1,-2,-27,-6,-20
1530606800422587,64,-10,-6,0,1,-16,5,12
1530606800431563,-60,-11,-10,-11,-33,13,-12,-6
1530606800431563,45,8,4,10,18,16,20,21
1530606800446523,-35,-1,-3,-3,16,11,2,-9
1530606800446523,-9,-1,5,4,21,0,-1,-1
1530606800447520,-20,-4,6,3,-8,-22,-19,-7
1530606800447520,72,-11,-10,-9,-8,6,1,5
1530606800468464,-22,16,-1,-3,-13,0,-1,1
1530606800468464,-24,-5,4,3,1,-5,8,1
1530606800470459,-5,-1,1,3,8,-10,9,-2
1530606800470459,-19,16,5,3,11,7,-22,-4
1530606800482426,46,1,2,-1,-17,7,5,-1
1530606800482426,-32,-5,-10,-5,12,-6,4,18
1530606800491403,-2,-3,4,4,-8,7,-1,-12
1530606800491403,-22,9,4,0,-7,-19,-1,3
1530606800506363,62,0,-2,-4,3,0,-14,6
1530606800506363,1,-3,0,-1,-2,-25,-17,-3
1530606800507360,-7,7,-3,-3,16,0,27,8
1530606800507360,11,-20,-4,-2,-30,16,24,6
1530606800528304,-31,12,1,-2,20,23,-36,-11
1530606800528304,-11,-22,3,10,6,-3,6,-2
1530606800530299,-1,-3,-6,-4,-3,10,1,0
1530606800530299,33,5,-6,-9,-21,-20,-4,-11
1530606800542267,-22,-9,4,6,-1,1,26,4
1530606800542267,-2,16,-6,-6,-10,5,-30,-17
1530606800551243,-34,-26,-2,2,20,-4,2,-4
1530606800551243,34,44,5,2,-14,-12,4,12
1530606800566202,32,-16,-2,-4,-1,15,3,9
1530606800566202,-68,-7,1,0,0,19,10,-2
1530606800568198,21,-7,2,3,4,-8,-1,11
1530606800568198,20,-4,-2,2,14,-4,-15,-25
1530606800589141,-5,-21,-7,-5,11,-24,1,6
1530606800589141,-29,3,2,-2,-31,-13,7,2
1530606800590140,29,8,-3,-4,0,20,-21,-8
1530606800590140,-12,-17,-4,-1,9,9,-4,-4
1530606800602107,-67,12,3,4,8,-10,4,-17
1530606800602107,50,1,1,2,11,15,10,16
1530606800611083,31,0,-7,-5,-14,-8,17,10
1530606800611083,-13,-4,-4,-1,6,-5,-52,-15
1530606800626043,8,21,0,-5,-1,6,3,-1
1530606800626043,-30,-13,3,2,-9,0,15,0
1530606800628038,-3,20,5,6,10,6,4,-3
1530606800628038,6,-17,0,1,10,-5,7,11
1530606800648984,0,-10,-6,-7,-21,1,-11,5
1530606800648984,19,9,-3,0,15,3,-3,2
1530606800649980,-6,-1,-1,-5,-25,-11,-3,0
1530606800649980,-13,-3,-1,1,0,-2,7,-3
1530606800661947,30,4,2,1,15,-1,-7,1
1530606800661947,17,23,0,-1,1,7,11,-2
1530606800670922,-17,-21,0,-1,2,2,-5,-8
1530606800670922,-46,-10,-3,-1,-10,-13,8,8
1530606800685883,51,21,0,0,9,0,-3,-1
1530606800685883,-18,-20,-6,-8,-21,11,0,0
1530606800687879,-25,-3,5,7,18,-4,-13,2
1530606800687879,-9,37,7,2,-5,-11,0,-4
1530606800708822,25,-52,-4,0,2,8,7,12
1530606800708822,25,12,-8,-8,-5,9,4,-11
1530606800710817,-55,1,2,-2,-8,3,0,7
1530606800710817,11,-3,-1,-1,10,-5,11,4
1530606800722785,-10,2,-1,1,-4,4,-18,-10
1530606800722785,17,12,1,3,-21,-15,6,1
1530606800731762,-1,-1,1,-3,4,15,-1,-2
1530606800731762,-4,-7,-4,-5,-1,15,12,-8
1530606800746728,-30,-4,1,5,6,-26,2,-2
1530606800746728,-9,-12,-5,-4,3,17,1,1
1530606800747718,28,18,1,0,1,-16,7,4
1530606800747718,8,-10,-2,-3,-18,2,-10,3
1530606800768661,26,11,0,1,-2,2,8,1
1530606800768661,-33,-31,0,-3,15,2,-18,-21
1530606800770656,-25,9,-1,3,4,1,2,0
1530606800770656,50,-8,-5,-4,8,-4,11,17
1530606800782624,0,3,-5,-5,-13,-6,-12,-9
1530606800782624,-14,1,3,0,10,0,1,-4
1530606800791600,-8,0,-5,-2,-9,-3,9,-8
1530606800791600,-28,-21,0,2,-1,-2,-1,-6
1530606800806560,14,21,0,0,-8,-3,-12,13
1530606800806560,3,-5,0,2,24,-6,6,6
1530606800807557,27,15,1,-2,-20,2,-13,-17
1530606800807557,-19,-8,-1,0,-1,5,3,-1
1530606800828501,7,5,-3,-3,-11,0,-7,-1
1530606800828501,23,-5,-1,0,19,-16,-1,0
1530606800830496,-23,-26,-2,0,-16,-5,-6,10
1530606800830496,2,6,2,-2,8,-4,13,-8
1530606800842464,-8,5,-1,-3,5,19,-5,-12
1530606800842464,-4,0,1,2,-7,-8,-35,4
1530606800857424,34,3,1,1,9,-14,10,-1
1530606800857424,-25,-22,-6,-3,-4,0,8,4
1530606800866400,-49,4,3,1,-1,2,10,0
1530606800866400,42,29,1,1,-8,14,8,2
1530606800867397,51,4,-1,-1,14,3,-4,-2
1530606800867397,-51,-22,-3,0,-7,-8,-26,4
1530606800888341,80,4,0,1,-2,0,5,7
1530606800888341,-20,5,-4,-6,-19,-8,11,-3
1530606800890336,-29,1,1,-1,-13,-2,22,1
1530606800890336,2,6,0,6,34,-2,-13,-5
1530606800902304,-4,-2,-2,0,-30,7,-2,-9
1530606800902304,-8,-15,0,0,11,-3,8,7
1530606800911283,7,-3,-3,-2,-3,-14,9,-2
1530606800911283,-2,13,2,-2,-5,-14,-25,-12
1530606800925242,-37,-12,0,-1,13,39,26,0
1530606800925242,20,11,-1,1,11,-3,-1,-4
1530606800932224,-9,-5,-2,-2,-13,-2,-10,7
1530606800932224,54,18,3,3,-21,-29,1,9
1530606800949178,-27,-22,-5,-5,24,22,13,6
1530606800949178,20,7,-3,-5,-9,4,-19,-9
1530606800950176,-11,-4,1,1,20,-7,10,3
1530606800950176,-19,10,-1,-2,-5,8,0,-2
1530606800971120,-14,0,-2,-4,-7,-12,0,-14
1530606800971120,-6,-25,-2,-1,-9,-2,7,11
1530606800973115,45,9,-4,0,8,11,-5,8
1530606800973115,-15,2,-2,-5,-12,-1,11,-9
1530606800985082,1,-9,1,1,0,-18,-10,-7
1530606800985082,-61,-10,0,-1,-9,-1,0,-1
1530606800992064,3,-3,-2,3,2,-2,-16,-5
1530606800992064,20,5,-4,-2,-2,17,12,3
1530606801009018,9,7,-1,-7,-7,-14,-13,-2
1530606801009018,-10,6,0,4,6,19,1,6
1530606801010016,5,5,4,2,-2,3,21,3
1530606801010016,27,-15,-5,-6,-10,-12,-19,-10
1530606801030960,-11,11,-3,1,11,0,-9,7
1530606801030960,5,11,0,-6,2,-1,-4,-7
1530606801032955,-29,-5,0,-1,21,9,16,-4
1530606801032955,-29,-7,2,5,-13,10,-11,-12
1530606801045922,22,1,2,1,-10,-38,-7,11
1530606801045922,-8,1,-2,-2,-19,7,7,-5
1530606801051904,1,-4,-5,-1,13,8,-7,0
1530606801051904,41,11,1,0,14,0,10,5
1530606801068858,-17,-3,-1,-4,-16,-2,7,5
1530606801068858,-36,-12,2,4,0,-11,-8,-10
1530606801069856,-7,-4,1,1,1,-4,-17,-4
1530606801069856,47,3,-6,-7,-7,25,21,10
1530606801090799,1,7,-3,-1,25,-11,-15,-10
1530606801090799,-9,15,2,2,-19,0,-2,4
1530606801092795,-17,-27,2,0,-6,-9,-7,-12
1530606801092795,-22,-11,-1,2,10,-1,10,9
1530606801105760,-30,0,1,4,-14,5,-6,-5
1530606801105760,115,17,-2,-3,12,-24,4,5
1530606801112742,-4,-9,-2,-6,-12,-11,2,6
1530606801112742,-5,15,1,-2,20,26,-3,-5
1530606801128699,-53,-22,0,-4,-42,-13,18,1
1530606801128699,7,-1,-5,6,27,12,-14,-13
1530606801131691,-37,-16,-4,-4,-3,-18,-10,7
1530606801131691,-25,0,1,1,7,9,3,-3
1530606801151637,44,4,0,2,-11,-28,-6,5
1530606801151637,-26,22,7,1,-5,4,7,2
1530606801152635,13,-21,-1,1,1,9,2,4
1530606801152635,51,24,-2,-2,3,-20,2,-3
1530606801165600,-43,-21,-3,-3,6,3,-2,10
1530606801165600,36,6,-1,-4,-15,-11,-8,-3
1530606801172581,10,21,-2,-1,4,2,12,5
1530606801172581,-81,-37,-1,-2,-15,-12,3,1
1530606801188538,35,24,-1,1,3,28,1,-12
1530606801188538,-11,-38,0,3,28,10,13,-4
1530606801190534,-51,-6,2,2,-18,19,-29,-8
1530606801190534,87,25,-3,-2,-5,-43,0,6
1530606801211477,29,25,-4,-7,6,-7,-1,8
1530606801211477,-54,-38,-4,2,-27,0,14,2
1530606801212475,75,10,-2,-2,4,4,-8,-1
1530606801212475,-94,-12,3,1,8,10,-9,-18
1530606801225439,58,4,7,7,-4,19,0,10
1530606801225439,-11,4,-5,-11,-12,-36,-13,0
1530606801232421,-27,-5,-2,2,6,10,9,-5
1530606801232421,56,17,-5,0,0,0,1,2
1530606801248378,-81,-10,1,0,10,-18,5,-7
1530606801248378,29,7,1,-2,-11,9,-24,0
1530606801250373,52,7,0,0,7,12,1,2
1530606801250373,-28,-26,1,-1,-6,6,-4,9
1530606801271317,-7,8,-5,-7,4,5,4,-7
1530606801271317,-30,8,-1,-1,5,4,-15,-17
1530606801272315,25,-3,2,0,-10,-26,10,12
1530606801272315,6,4,1,4,3,-1,-22,-2
1530606801285279,-31,-17,-1,0,11,39,-1,-2
1530606801285279,11,5,3,1,-3,2,9,7
1530606801294256,14,13,-8,-7,2,-16,-6,-23
1530606801294256,-41,1,5,2,-2,-13,5,10
1530606801308218,17,-27,-7,-4,-16,-2,-10,-4
1530606801308218,5,14,-3,-4,0,24,-1,4
1530606801310214,-32,-12,0,1,13,-1,7,2
1530606801310214,47,15,3,3,-18,3,12,1
1530606801331157,-38,-21,-3,-6,3,-5,-7,2
1530606801331157,-4,-5,0,4,6,-11,-11,-10
1530606801333152,-5,5,-5,0,-3,0,2,11
1530606801333152,-7,1,-1,-3,-2,-1,0,-3
1530606801345120,-13,12,10,10,14,-1,23,4
1530606801345120,55,-8,-12,-8,-10,14,-26,-11
1530606801354096,1,2,-1,-3,-13,-22,-22,-13
1530606801354096,-21,9,-2,-3,0,11,-3,-7
1530606801369056,12,-19,-4,-3,-7,-11,19,10
1530606801369056,12,3,1,3,18,-3,21,11
1530606801370053,-20,14,8,4,-6,14,-11,-15
1530606801370053,-37,-17,-9,-1,15,-1,0,-1
1530606801390997,29,7,-6,0,-26,-7,13,1
1530606801390997,-60,-11,1,-4,-9,10,2,9
1530606801392992,47,7,0,3,22,2,-8,-1
1530606801392992,10,-10,-1,-4,-4,-12,7,1
1530606801404959,-1,10,0,-2,11,10,-13,-4
1530606801404959,23,7,1,0,16,-23,-13,-9
1530606801413936,-42,-14,-7,-9,-34,-13,7,10
1530606801413936,-38,-9,2,3,10,10,-4,-5
1530606801428896,73,12,-2,-4,-17,-12,-12,-10
1530606801428896,-32,1,-2,1,10,7,23,2
1530606801429893,-3,-11,-1,-1,-8,-7,5,5
1530606801429893,-4,-16,-5,-1,7,31,-6,-5
1530606801450837,-64,-6,-1,4,21,2,-3,-6
1530606801450837,37,9,3,3,-14,-6,-7,0
1530606801452832,76,23,0,-5,-1,-16,2,5
1530606801452832,-43,-25,1,1,-15,-8,14,10
1530606801464800,-1,10,-4,-2,24,15,-26,-19
1530606801464800,-18,-8,3,2,-8,-1,1,-1
1530606801473776,21,-1,-4,-5,-14,8,-12,-1
1530606801473776,4,7,-1,-3,-12,-4,2,-1
1530606801488736,-4,-6,1,8,16,34,-20,-2
1530606801488736,-58,-13,-6,-2,16,-25,16,-10
1530606801490730,67,19,1,-2,-7,-23,-3,9
1530606801490730,34,21,0,-2,-17,11,0,19
1530606801510677,-16,-5,-2,-2,-9,-1,16,-18
1530606801510677,4,1,1,3,-2,22,-27,11
1530606801512672,-83,-13,4,3,7,15,10,0
1530606801512672,49,6,0,0,19,-16,2,0
1530606801524639,10,2,2,-2,-16,-13,10,14
1530606801524639,11,3,-5,-1,-8,1,10,-1
1530606801533615,-36,9,2,0,20,-1,0,-6
1530606801533615,-4,1,-6,-4,10,-2,-23,-11
1530606801548575,47,-28,0,1,-18,-9,9,0
1530606801548575,-27,13,-3,-4,-14,-15,7,-1
1530606801550570,-16,-8,0,-8,-22,20,-4,-5
1530606801550570,-40,-13,-2,8,15,14,4,7
1530606801571514,46,20,2,1,-3,-30,-25,-4
1530606801571514,46,-6,-2,-5,22,-9,10,5
1530606801572512,-40,-5,0,-1,-22,-29,-6,0
1530606801572512,17,3,4,1,-9,46,-3,-10
1530606801584479,-16,-4,-4,-2,12,-1,19,16
1530606801584479,-11,6,1,-2,-6,8,-2,-13
1530606801593455,5,-7,-4,-1,2,-15,-10,-5
1530606801593455,-5,-5,4,0,2,-15,-13,-4
1530606801608415,-25,3,-8,-4,9,5,-4,-25
1530606801608415,65,13,6,-2,-17,13,16,17
1530606801610410,-30,6,-3,7,14,2,14,7
1530606801610410,-24,-29,2,2,8,-23,-19,-11
1530606801631354,37,19,-8,-6,-20,23,-5,7
1530606801631354,-59,-3,-3,-5,-9,-45,-3,-8
1530606801632351,6,9,-1,-3,9,17,18,0
1530606801632351,28,-3,5,2,-25,-23,7,15
1530606801645317,-39,-2,0,-5,-9,-17,-14,-16
1530606801645317,27,-23,0,7,17,8,-11,-8
1530606801653295,6,12,4,3,2,26,1,-14
1530606801653295,-44,-31,-5,-1,12,-5,10,-1
1530606801668255,8,17,5,1,-8,-6,0,3
1530606801668255,8,6,-1,-3,-14,2,18,11
1530606801670250,18,-1,-1,-2,18,-4,-9,6
1530606801670250,25,39,0,-2,-23,6,10,4
1530606801691194,-16,-27,0,2,16,-18,3,1
1530606801691194,-36,-21,-7,-5,-18,14,-33,-12
1530606801693189,-1,-1,1,4,27,15,4,4
1530606801693189,14,-2,-3,-6,-26,13,3,-8
1530606801705157,-10,21,-1,0,30,-9,-2,6
1530606801705157,41,16,-1,-2,-20,-12,-2,14
1530606801714133,-26,-14,-5,-2,-4,-26,4,-16
1530606801714133,-10,-5,-4,1,2,36,18,-3
1530606801729093,-7,-6,5,5,1,-16,-13,0
1530606801729093,-27,-16,-5,-7,-16,5,-1,-2
1530606801730091,5,6,3,7,2,8,7,-5
1530606801730091,4,-2,-3,2,12,19,-6,-4
1530606801751034,19,-6,-2,-3,-9,-5,22,17
1530606801751034,30,1,4,3,4,5,-6,-12
1530606801753029,-4,10,-4,-6,-13,9,6,-4
1530606801753029,-28,5,2,-5,4,-34,-19,6
1530606801764997,33,-21,-1,-4,-13,7,-13,-7
1530606801764997,-25,7,-4,-1,5,7,19,7
1530606801773973,38,11,9,6,-1,-22,-24,5
1530606801773973,-35,-26,-9,-7,13,-6,6,-14
1530606801787935,-35,-20,2,1,-11,3,-4,-4
1530606801787935,12,26,-5,-4,9,13,1,7
1530606801794917,-19,-16,-3,-4,-5,19,-4,-7
1530606801794917,53,28,2,1,-9,-24,2,5
1530606801810874,-2,25,-3,-7,-6,-14,7,-7
1530606801810874,-46,-19,2,4,8,-7,6,6
1530606801812870,12,-13,0,1,3,15,1,19
1530606801812870,47,16,1,-2,6,-6,-27,-23
1530606801824836,-14,0,-4,-4,-11,9,28,2
1530606801824836,12,-10,1,6,9,-7,-21,-3
1530606801833813,-108,-6,-7,-6,-11,-11,24,5
1530606801833813,104,22,1,0,2,6,-12,6
1530606801847775,-2,-5,-2,-1,-1,-19,-13,-2
1530606801847775,4,0,3,-5,-2,-8,10,8
1530606801854756,-36,2,2,4,-3,-5,-9,-4
1530606801854756,6,2,-1,1,8,18,6,-6
1530606801871711,38,-4,-7,-1,1,9,0,14
1530606801871711,9,10,7,3,17,-10,6,2
1530606801872709,-46,-20,3,-1,-32,15,-11,-19
1530606801872709,-24,-1,-3,-8,-9,-8,14,10
1530606801884677,-12,23,9,11,3,10,1,8
1530606801884677,13,-18,-6,0,25,-17,-23,1
1530606801893653,107,15,-7,-5,-9,9,6,3
1530606801893653,-39,-16,-4,-6,-16,21,-24,-24
1530606801907615,-12,-2,6,-1,2,-27,-1,5
1530606801907615,-53,11,4,3,4,13,31,1
1530606801914596,14,-20,-10,-6,1,-11,-19,-10
1530606801914596,-3,10,2,1,-5,-27,8,19
1530606801931551,15,6,-1,-2,5,22,-3,-13
1530606801931551,2,1,5,2,-18,12,-1,-6
1530606801932549,-15,-8,-7,-4,22,-17,10,6
1530606801932549,-19,-12,-1,-3,5,8,-20,6
1530606801953492,31,-4,0,6,0,33,4,-6
1530606801953492,13,-2,-4,-5,-12,-16,-25,-1
1530606801955487,74,22,-3,-7,-6,-5,7,5
1530606801955487,-110,-32,0,1,11,-32,17,6
1530606801968453,-19,-2,2,4,-11,19,-27,-19
1530606801968453,14,4,-5,-3,16,11,8,4
1530606801974437,-16,-3,7,2,-18,-1,0,19
1530606801974437,8,10,0,3,18,5,2,-26
1530606801991391,-13,-8,-3,-3,-8,-22,4,22
1530606801991391,34,-11,1,2,-3,8,4,-10
1530606801992389,-19,10,-9,-5,15,-12,-26,-11
1530606801992389,17,-2,5,2,19,-7,23,17
1530606802013333,-33,-17,-12,-9,-8,13,11,2
1530606802013333,-35,4,1,0,-10,0,-12,-17
1530606802015328,80,22,1,2,-2,8,11,7
1530606802015328,11,-3,-3,-1,-7,10,-17,-9
1530606802028293,-37,-1,-1,-5,1,-64,-15,3
1530606802028293,8,1,3,6,-1,-21,-2,3
1530606802035274,-4,-17,-6,-5,-1,22,13,-11
1530606802035274,-17,-3,0,1,-3,-6,-20,-14
1530606802051231,14,5,6,2,-2,12,0,-7
1530606802051231,-3,-7,-6,-4,-8,21,7,14
1530606802053226,-16,-5,4,5,19,-7,-7,3
1530606802053226,14,14,-3,-4,2,-4,8,-7
1530606802074170,-23,2,0,-3,1,-5,-1,-11
1530606802074170,-22,-32,-2,1,27,-5,2,9
1530606802075168,20,3,0,-1,-34,-3,-2,5
1530606802075168,16,3,2,4,0,18,16,7
1530606802088132,-13,-7,-6,-3,5,-5,-9,0
1530606802088132,0,3,-2,-2,-6,6,6,-5
1530606802095114,-35,-1,5,2,0,14,-1,-5
1530606802095114,3,-14,-3,-1,-10,5,43,14
1530606802111071,24,-4,-4,-3,-4,-9,-72,-14
1530606802111071,57,46,2,-4,-13,-8,-13,-8
1530606802114064,-97,-63,-8,0,12,18,16,1
1530606802114064,73,25,-6,-6,-14,7,8,6
1530606802134010,-25,-11,6,4,13,24,49,14
1530606802134010,-7,13,-2,-4,-15,-37,-28,-13
1530606802136005,30,15,1,1,6,3,-25,-8
1530606802136005,-32,-17,0,0,-11,-20,4,9
1530606802147972,8,-11,2,-1,-4,10,8,1
1530606802147972,-1,2,-3,-1,2,14,2,-7
1530606802154954,-14,6,2,-1,27,-29,8,-7
1530606802154954,-21,-5,-2,-5,-32,3,-28,-1
1530606802170911,-21,4,-3,3,39,-8,35,9
1530606802170911,14,1,3,1,-15,5,-8,-4
1530606802172906,-8,3,3,1,-11,12,1,-8
1530606802172906,9,-4,-2,-3,-2,-26,-29,-2
1530606802193850,48,16,5,2,-13,33,3,20
1530606802193850,-35,-13,-7,1,16,0,17,-2
1530606802195845,24,4,-1,-1,-2,-30,-12,-6
1530606802195845,6,-9,-2,-4,-3,14,1,5
1530606802207813,-43,19,-1,-4,3,-26,12,-5
1530606802207813,13,-23,-1,1,-20,50,-19,-12
1530606802216789,23,18,1,-2,15,20,13,0
1530606802216789,-37,-6,4,6,6,-25,5,-9
1530606802230751,20,-11,-8,-4,-1,22,13,9
1530606802230751,42,23,1,-2,-11,-60,0,-9
1530606802232746,-59,-30,4,4,0,-3,-16,1
1530606802232746,40,9,2,-2,5,9,2,-7
1530606802253689,-6,8,-7,2,1,-30,-21,-3
1530606802253689,-25,-9,4,0,2,5,28,2
1530606802255685,20,9,-6,-6,-23,14,-24,-3
1530606802255685,-54,-8,2,4,31,-6,4,14
1530606802267652,16,-10,2,-1,-39,2,4,-14
1530606802267652,-3,-8,-5,-6,4,15,-4,6
1530606802276629,-21,3,8,8,-6,-7,22,7
1530606802276629,48,21,-4,2,17,-11,19,14
1530606802291588,31,-8,-5,-5,-1,-4,-18,-33
1530606802291588,11,1,-4,-4,12,37,-21,-5
1530606802292586,-29,-15,-5,-7,-33,11,8,3
1530606802292586,-16,3,1,1,-6,-10,-5,-4
1530606802313530,17,14,5,2,6,17,4,11
1530606802313530,-3,-11,-6,-5,-8,-33,-2,8
1530606802315525,40,2,-4,-4,-3,2,-6,-2
1530606802315525,-45,-2,0,0,-7,-3,-6,-3
1530606802327492,6,-18,2,2,26,6,-9,-1
1530606802327492,-58,-5,-4,-1,-9,9,2,-3
1530606802336469,43,20,-3,-2,6,-16,2,-3
1530606802336469,45,2,-6,-8,-3,16,17,-3
1530606802351428,18,5,2,2,-1,-10,9,-2
1530606802351428,-70,-25,-5,1,18,-8,-18,-10
1530606802352426,27,20,1,-1,4,-5,11,5
1530606802352426,26,18,3,-4,12,7,-43,-1
1530606802373369,-49,-31,-2,5,-27,11,8,-5
1530606802373369,-1,17,4,3,26,-22,26,11
1530606802375365,-3,-24,4,1,-11,-33,6,-1
1530606802375365,28,-7,-10,-10,-11,21,13,2
1530606802387332,10,6,-4,7,4,-7,-1,16
1530606802387332,-47,-3,-8,-15,-14,-5,-16,-14
1530606802396309,18,13,11,15,19,13,-3,-1
1530606802396309,15,-8,-8,1,-8,0,5,9
1530606802411268,-7,10,6,-13,1,-13,-20,0
1530606802411268,24,14,11,17,-8,4,1,4
1530606802413263,-22,-22,-14,-9,-7,0,18,-18
1530606802413263,-40,21,13,2,-4,-6,8,3
1530606802434207,-10,5,0,4,-12,17,-9,-14
1530606802434207,41,-15,3,2,5,-9,19,18
1530606802435205,18,5,-7,-7,-2,22,-35,0
1530606802435205,-34,-4,-6,0,14,-3,-5,-10
1530606802447172,35,6,0,-2,-5,-12,17,14
1530606802447172,-19,-14,-5,-7,-15,-19,-1,-2
1530606802456148,-18,1,3,0,-11,-9,1,7
1530606802456148,46,-1,-1,6,14,-10,-5,-11
1530606802471108,-57,-2,7,1,19,36,-22,-16
1530606802471108,1,8,-3,0,-6,9,7,5
1530606802473103,21,-23,-6,-1,2,-4,9,-2
1530606802473103,-46,-5,-6,-12,-40,-3,-19,4
1530606802494047,9,13,1,4,9,3,29,11
1530606802494047,43,-14,-2,2,10,-4,-15,0
1530606802495045,-29,1,-1,-5,17,-3,-46,-34
1530606802495045,0,9,5,2,-17,10,14,-10
1530606802507012,-1,-19,-4,-4,-2,-8,24,3
1530606802507012,11,20,9,5,-14,-12,10,11
1530606802515988,-2,10,4,2,7,9,-7,10
1530606802515988,-6,-11,-4,3,25,-25,-9,-9
1530606802530948,-26,-1,-8,-6,5,-7,-16,-18
1530606802530948,42,7,0,0,0,18,12,6
1530606802532943,-22,-9,-8,-7,-4,-2,17,15
1530606802532943,-25,11,12,10,3,6,5,-13
1530606802553887,32,7,1,-2,-10,-4,-11,-2
1530606802553887,-28,-19,-7,-1,7,-3,1,-8
1530606802554885,6,14,2,-1,-15,-3,0,-6
1530606802554885,-70,-26,-1,1,2,11,-11,-1
1530606802567849,100,24,0,-4,3,-14,-10,-5
1530606802567849,43,6,-7,-9,-31,-6,-7,-11
1530606802576826,1,-12,4,8,-1,4,7,24
1530606802576826,-54,-29,-8,-1,11,-3,9,12
1530606802590788,-1,1,-7,-5,-14,-2,14,-12
1530606802590788,-8,0,1,-5,0,-21,-20,-1
1530606802592783,5,2,1,1,17,1,-21,-3
1530606802592783,9,13,0,2,-11,0,14,-9
1530606802613727,-43,-18,-6,-5,1,6,-30,11
1530606802613727,0,-2,-5,-2,6,24,26,0
1530606802615722,38,30,-3,-7,-7,-15,8,2
1530606802615722,53,-42,-8,-5,2,-5,-18,-7
1530606802627690,-40,14,1,3,5,-4,19,3
1530606802627690,-29,-12,0,-1,-4,3,-8,5
1530606802636666,-40,-4,1,2,1,-5,17,12
1530606802636666,32,17,2,-1,-10,-18,-32,-4
1530606802651625,-19,-17,2,2,-3,16,0,-1
1530606802651625,-7,4,3,3,15,13,-6,-17
1530606802652623,-30,-4,4,3,11,1,9,12
1530606802652623,77,6,1,0,-6,5,-2,13
1530606802673567,36,-10,-4,-4,-32,-23,-6,-3
1530606802673567,-68,-6,-7,-5,27,11,7,2
1530606802675562,2,6,-1,-2,-9,-6,0,-8
1530606802675562,-21,14,7,-3,-6,-17,9,-3
1530606802687529,14,-2,-2,0,1,27,-12,-3
1530606802687529,-37,-18,-1,1,5,-4,2,-3
1530606802696506,23,-1,8,8,-3,-10,-1,3
1530606802696506,48,0,-7,-2,1,16,2,2
1530606802711466,10,-3,-9,-6,3,-7,-4,3
1530606802711466,9,27,14,8,-7,-15,11,2
1530606802712463,-64,-18,-10,-12,-5,7,-12,-13
1530606802712463,5,12,-2,3,-5,4,-9,6
1530606802733407,12,-18,3,4,16,-15,17,-1
1530606802733407,39,20,1,0,-22,22,8,13
1530606802735402,-1,-17,7,4,-12,-26,-37,-23
1530606802735402,-29,0,-14,-10,18,9,-12,-47
1530606802747369,-7,22,-6,-5,9,7,4,15
1530606802747369,16,-16,-1,1,5,-6,2,23
1530606802756346,-6,18,8,3,-11,8,8,-14
1530606802756346,32,9,3,-1,-17,-10,15,3
1530606802770308,-76,-20,5,1,2,-5,11,-11
1530606802770308,54,7,-8,-1,10,11,-18,2
1530606802777289,-40,-20,-22,-15,0,-8,8,24
1530606802777289,6,10,8,6,0,16,10,31
1530606802793247,5,8,-8,-7,1,3,-29,-33
1530606802793247,-22,-1,6,3,-3,-7,-9,-26
1530606802795242,88,18,3,3,7,9,10,18
1530606802795242,-73,-31,-15,-8,-12,-29,21,-5
1530606802807209,20,10,12,15,13,1,8,29
1530606802807209,-23,-18,-4,-4,-8,-8,0,-3
1530606802816186,0,21,2,2,19,40,-1,-8
1530606802816186,27,-8,1,0,3,-12,14,24
1530606802830148,-8,2,-4,-8,-16,-13,-11,-8
1530606802830148,-21,1,9,6,-3,9,0,-9
1530606802837129,94,12,1,1,8,-12,-7,-16
1530606802837129,-86,-16,-10,-9,-22,32,-22,4
1530606802854084,64,27,2,-1,8,-10,-3,13
1530606802854084,-59,-39,-4,-4,-19,-10,18,8
1530606802855082,-79,-10,-10,-6,6,12,7,-7
1530606802855082,72,17,2,3,8,-14,-22,-9
1530606802876025,-1,-4,-3,-1,-11,22,10,7
1530606802876025,19,24,-5,-2,17,-4,9,0
1530606802878020,3,-9,4,3,-6,-28,3,-18
1530606802878020,-3,4,-1,-3,-4,-12,13,-2
1530606802890985,-61,-18,-5,4,2,-2,10,16
1530606802890985,59,21,-7,-9,-3,16,-45,-35
1530606802896970,-18,3,5,0,-8,11,-8,-4
1530606802896970,-3,-18,1,4,0,8,7,4
1530606802913924,11,-4,-5,-9,-7,-19,32,-10
1530606802913924,-48,5,0,5,11,-6,17,18
1530606802914921,7,-22,-3,-1,-8,-14,-43,-7
1530606802914921,-4,-4,-1,-2,-9,15,1,-10
1530606802935865,27,4,7,5,3,-12,-10,16
1530606802935865,11,16,-1,1,-2,22,5,-17
1530606802937860,-47,-5,-9,-7,-17,-10,15,15
1530606802937860,32,2,14,13,27,-4,2,-6
1530606802950826,-36,-6,-7,-5,-6,3,-21,-3
1530606802950826,-20,-7,3,0,-4,-20,-16,3
1530606802957806,21,14,-4,-1,2,8,21,14
1530606802957806,24,0,5,2,-1,2,17,-2
1530606802973764,-54,-11,-1,-5,-5,0,-37,2
1530606802973764,39,9,-2,0,-5,20,-17,6
1530606802975759,16,-14,-5,0,11,3,-20,-21
1530606802975759,-32,-4,0,0,13,-28,19,11
1530606802996703,-67,8,-1,-3,-24,16,15,-20
1530606802996703,61,-15,-6,-5,-5,3,-13,2
1530606802997700,36,-2,0,-4,6,-21,2,6
1530606802997700,19,14,-2,0,-36,13,-6,-2
1530606803010665,34,-2,8,9,36,7,3,15
1530606803010665,-50,-17,-4,-3,-11,-21,1,-9
1530606803017647,19,13,-1,-4,-7,18,-12,-23
1530606803017647,-69,-17,0,-1,23,2,-4,-5
1530606803033604,90,7,-4,-1,-9,-2,-5,14
1530606803033604,-27,5,7,6,-2,0,18,4
1530606803035599,-13,-24,-2,1,10,-20,-2,3
1530606803035599,0,26,1,-1,-11,-9,-17,-33
1530606803056543,-14,-32,1,0,2,-1,9,-3
1530606803056543,59,16,0,-1,11,21,6,40
1530606803057540,-25,18,4,2,-14,-19,-3,-13
1530606803057540,-71,-22,-6,-5,-12,11,-82,-24
1530606803070505,-2,15,2,1,20,-1,21,-21
1530606803070505,14,-25,-4,-8,-17,-13,16,20
1530606803077486,-16,-6,2,9,20,19,-26,16
1530606803077486,-18,9,-2,6,3,-7,14,11
1530606803093444,65,16,1,-1,-24,13,12,-13
1530606803093444,10,-12,-7,-6,0,-5,15,13
1530606803095439,-27,0,-1,-2,4,9,22,10
1530606803095439,3,-5,-3,-3,5,-18,2,-7
1530606803116383,11,14,2,1,-5,0,-5,8
1530606803116383,-64,-5,3,5,18,9,25,-6
1530606803117380,48,15,7,3,6,-9,-13,-28
1530606803117380,9,-33,-16,-11,-10,-6,-43,-21
1530606803130346,-63,-2,-1,0,-6,-6,15,14
1530606803130346,91,24,1,-5,-8,7,-3,-3
1530606803137327,-55,4,-2,-2,-3,-24,22,22
1530606803137327,-42,3,5,0,-1,24,30,17
1530606803153284,46,-8,-8,-3,11,-20,-32,-29
1530606803153284,-17,-5,7,6,6,27,15,-4
1530606803155279,9,1,0,3,-9,-6,2,7
1530606803155279,37,15,-2,-6,1,-18,37,0
1530606803176222,-59,-23,-2,1,20,9,-47,-9
1530606803176222,6,10,-7,-4,-5,-6,-69,-46
1530606803178218,-3,-17,-2,0,-15,-19,24,12
1530606803178218,-31,1,5,3,-5,11,26,14
1530606803190185,75,29,2,-2,-5,-8,10,18
1530606803190185,-28,-19,-2,-4,2,-1,1,14
1530606803199161,97,12,-4,-5,-1,-11,0,-15
1530606803199161,-65,5,3,1,-10,21,13,-2
1530606803214121,1,-13,-1,5,5,8,1,22
1530606803214121,-58,-5,-3,-4,-9,-19,-30,-40
1530606803215119,-45,-14,0,3,0,22,-6,0
1530606803215119,85,27,3,-1,3,-10,20,10
1530606803236063,14,11,2,-5,-1,-16,26,6
1530606803236063,6,-4,0,12,0,9,-11,17
1530606803238058,-39,-7,1,0,-2,-18,-11,-8
1530606803238058,11,-1,-3,-2,-20,40,56,8
1530606803250025,21,2,3,4,14,-11,-9,17
1530606803250025,-49,-18,-5,-4,-1,-20,-21,-36
1530606803259002,-66,-12,-2,-3,15,1,-17,-21
1530606803259002,122,20,-9,-8,-20,-11,-20,14
1530606803273961,-96,-11,-6,-8,-5,8,11,-17
1530606803273961,100,26,3,0,15,-26,22,53
1530606803274959,67,2,-3,-5,-23,43,-7,-7
1530606803274959,-111,-48,-6,-2,14,-8,26,4
1530606803295902,-72,-22,3,4,-24,-31,-59,-34
1530606803295902,62,31,5,11,33,16,18,3
1530606803297898,-83,-10,-9,-11,0,-31,-63,-40
1530606803297898,2,6,3,1,-27,13,28,9
1530606803309865,-24,-10,2,4,8,-10,-21,-11
1530606803309865,42,4,-12,-7,6,8,24,15
1530606803318841,40,3,10,5,-5,0,21,38
1530606803318841,8,14,0,1,2,4,-16,5
1530606803333801,-128,-24,-4,-3,-13,8,-3,12
1530606803333801,53,-4,5,2,6,5,-10,-27
1530606803335796,-24,5,-3,1,-10,34,19,12
1530606803335796,32,4,-2,1,30,-27,-23,-3
1530606803356740,62,14,-6,-8,-10,20,20,-10
1530606803356740,-85,-24,-2,-7,-32,-17,44,-7
1530606803357738,-47,-7,-1,1,21,-2,-83,-7
1530606803357738,-38,-9,7,6,17,44,-2,-10
1530606803369705,38,11,-4,1,3,-28,3,9
1530606803369705,8,12,1,1,6,-10,0,5
1530606803378681,-19,-29,-5,-2,-18,-2,-14,-7
1530606803378681,13,3,-4,-9,-21,-22,-30,0
1530606803393641,37,10,-1,5,27,25,-2,-6
1530606803393641,-76,-3,-7,-9,-13,13,29,-7
1530606803395636,47,-2,-1,6,4,-21,14,34
1530606803395636,106,11,-1,1,3,-25,-41,-10
1530606803416580,25,10,-14,-18,-9,-4,19,-14
1530606803416580,-119,-24,5,-1,-18,9,-23,5
1530606803417577,-35,-7,5,4,29,13,28,6
1530606803417577,-35,4,1,1,19,-14,11,-9
1530606803429546,69,23,1,3,-14,4,35,-3
1530606803429546,32,9,-4,-4,-10,-19,-78,-27
1530606803438521,-28,16,-1,-4,9,3,17,-8
1530606803438521,-20,-20,-2,0,-16,-2,-16,-9
1530606803453481,-29,-14,5,5,-2,-25,20,12
1530606803453481,15,23,-12,-9,1,-2,15,4
1530606803455476,5,-6,-2,-5,-20,-9,22,-5
1530606803455476,6,21,6,10,29,10,2,16
1530606803476419,33,-4,-4,-8,-30,36,-2,22
1530606803476419,-20,-11,4,11,12,0,25,-21
1530606803477417,-21,-16,-1,0,-17,-33,-52,-35
1530606803477417,51,12,-8,-9,0,8,-2,2
1530606803489385,-54,-5,3,2,8,1,-4,4
1530606803489385,2,3,4,2,-6,4,6,30
1530606803498361,-47,-15,-1,1,-2,10,27,-24
1530606803498361,-13,-16,1,2,9,-22,-14,-6
1530606803513321,40,9,-3,-2,3,3,-12,-2
1530606803513321,37,2,-1,-6,-10,8,2,-5
1530606803515316,5,12,0,1,-1,-3,45,39
1530606803515316,-25,-8,-1,-4,14,11,-61,-38
1530606803536260,-20,-11,2,4,0,0,15,8
1530606803536260,-24,-9,-3,-2,-10,-8,10,-5
1530606803538255,28,-4,-3,-2,19,17,34,13
1530606803538255,44,14,0,-2,-31,-18,-19,-29
1530606803550222,-65,-29,-5,-8,-6,0,-18,-10
1530606803550222,16,13,5,5,28,33,20,23
1530606803559199,34,13,-2,-1,18,-5,-34,-33
1530606803559199,-61,-26,-5,-4,-37,0,29,32
1530606803574158,-44,8,6,5,6,-2,-7,-23
1530606803574158,88,-7,-3,2,-14,-13,-9,12
1530606803575156,8,10,-6,-10,-6,27,25,8
1530606803575156,-22,2,0,4,21,-9,-2,5
1530606803596099,13,15,3,2,-9,22,25,8
1530606803596099,-95,-47,-6,1,2,-21,-12,-6
1530606803598095,93,22,1,-4,-24,14,-25,1
1530606803598095,-1,5,-9,-4,11,-27,-6,-3
1530606803610062,-10,13,8,3,5,-23,0,10
1530606803610062,-29,1,2,0,1,14,17,1
1530606803619038,42,-12,-1,1,-4,8,15,3
1530606803619038,-34,-10,-4,-7,15,21,10,9
1530606803633998,-23,-2,-2,2,-12,-21,-30,-3
1530606803633998,-45,-2,2,-2,-8,-21,-6,9
1530606803634996,64,13,4,3,-2,2,28,12
1530606803634996,34,5,4,1,-19,15,-15,-15
1530606803655940,-7,-1,-2,-3,27,5,13,6
1530606803655940,-5,-12,0,2,-14,13,-12,-2
1530606803657934,-51,8,-3,-4,1,-36,31,22
1530606803657934,-4,2,2,2,4,-2,-10,18
1530606803669902,93,-5,-4,-3,0,11,2,-27
1530606803669902,-29,17,-1,-7,-8,-31,-49,-33
1530606803678879,-22,-29,-4,-1,5,2,-8,-14
1530606803678879,42,12,5,-2,-10,-2,28,27
1530606803693838,1,-15,-9,-4,-4,-7,-8,-10
1530606803693838,21,8,-1,-4,4,-5,33,12
1530606803695833,-52,5,4,4,-6,3,5,-7
1530606803695833,-6,-11,0,2,6,7,-6,1
1530606803715779,-27,0,9,7,29,4,4,13
1530606803715779,65,-11,-6,-7,-35,-9,-25,-19
1530606803717775,-22,21,-5,-4,6,8,-12,-9
1530606803717775,-7,-8,4,2,-1,-21,3,10
1530606803729742,-24,-1,6,9,13,17,4,1
1530606803729742,-34,-18,-4,4,38,8,-10,-1
1530606803738719,66,6,-3,-4,-29,-15,7,7
1530606803738719,16,20,-6,-9,-1,4,-22,-6
1530606803752681,-41,-32,-3,3,-6,14,50,43
1530606803752681,19,12,4,2,12,-11,38,25
1530606803759662,-33,-3,-6,-4,0,1,-88,-80
1530606803759662,38,5,0,-3,-5,0,12,12
1530606803776617,-29,-21,0,2,20,-41,3,-1
1530606803776617,44,26,-2,-4,-47,3,11,-16
1530606803777615,12,10,2,-6,-3,3,7,47
1530606803777615,0,-12,-1,6,8,8,0,-7
1530606803789582,-12,1,-10,-13,-21,-12,-24,-14
1530606803789582,9,-1,7,5,4,27,20,18
1530606803798558,-42,-2,0,7,17,24,32,12
1530606803798558,7,-12,1,0,-14,-27,-2,-20
1530606803813518,-14,-2,-11,-6,-8,-20,-56,-32
1530606803813518,-24,-2,1,-1,29,8,-10,-21
1530606803819502,27,-3,-3,-10,-65,-11,-44,-5
1530606803819502,8,2,3,11,48,30,13,25
1530606803836457,28,13,1,-4,-16,7,72,45
1530606803836457,-35,5,4,1,-2,-7,-29,-16
1530606803837454,-6,-29,1,1,-5,-4,43,0
1530606803837454,-34,9,3,6,7,-10,-52,33
1530606803858398,47,9,1,-1,-9,8,-38,-23
1530606803858398,-47,6,-2,-3,4,-29,-4,-14
1530606803860393,5,-18,8,9,22,63,32,39
1530606803860393,91,29,-4,-11,-35,-26,-12,-35
1530606803873358,-41,-7,-1,4,21,12,39,23
1530606803873358,-58,-15,2,1,11,-6,-17,19
1530606803880339,49,16,-2,-3,-14,-35,-27,-25
1530606803880339,-73,-23,0,-1,-2,28,21,-4
1530606803896297,52,20,-3,-8,-21,-17,-43,-31
1530606803896297,22,-10,-3,-2,-2,-24,36,29
1530606803898292,-30,6,-8,1,36,-10,0,-3
1530606803898292,-71,-9,-5,-4,-11,29,23,-26
1530606803919235,24,16,6,-9,-55,-20,-36,-12
1530606803919235,10,-22,-8,19,24,11,-20,-17
1530606803920233,40,15,2,-3,5,12,36,26
1530606803920233,-60,-18,-13,-13,2,0,-25,-29
1530606803933199,-25,-19,2,8,0,10,40,3
1530606803933199,71,34,-1,-8,-15,-2,7,-1
1530606803940179,-36,5,-6,-4,8,-28,-47,-4
1530606803940179,8,0,5,1,-26,11,31,10
1530606803956137,18,-26,-5,-7,17,5,-9,15
1530606803956137,48,-3,-4,-9,-26,8,3,10
1530606803958132,-98,-6,4,11,3,-12,21,-40
1530606803958132,39,22,1,1,26,-21,5,19
1530606803979075,-52,-4,4,1,5,30,9,7
1530606803979075,34,-13,-3,5,35,-6,-20,-11
1530606803980073,32,9,-4,-9,-25,0,11,6
1530606803980073,-53,-37,0,1,-18,-13,18,12
1530606803993038,59,28,-1,10,11,19,-81,-53
1530606803993038,-82,-19,-5,-10,-9,-41,8,6
1530606804000019,28,-7,3,-2,27,27,11,9
1530606804000019,77,14,-3,-2,-3,-1,-19,-9
1530606804015977,46,13,-2,-3,-9,-22,25,16
1530606804015977,-47,-7,1,-1,1,18,-17,-5
1530606804017972,-53,-9,-1,-1,-20,-16,5,-9
1530606804017972,-49,-24,3,6,16,0,19,16
1530606804038915,58,27,-2,-1,-10,15,1,-15
1530606804038915,-4,-5,0,-2,-2,-16,-26,-9
1530606804039913,-8,5,3,0,-25,-6,26,16
1530606804039913,6,-11,-2,2,14,6,-31,-42
1530606804052878,-6,-2,1,2,37,4,-9,6
1530606804052878,-28,-2,0,0,11,-7,59,8
1530606804059859,34,0,-4,-7,-10,-3,-15,4
1530606804059859,5,11,-2,2,3,-1,-31,2
1530606804075817,-45,-6,-4,-8,-3,1,16,10
1530606804075817,12,-5,-4,0,-15,-14,-14,-38
1530606804077812,17,-5,-1,1,24,64,13,7
1530606804077812,-28,-2,0,-3,-3,-49,26,1
1530606804098756,21,-1,-5,-8,-4,-1,-6,-3
1530606804098756,-78,7,7,3,7,9,36,14
1530606804100750,29,-23,2,8,-25,-5,-55,-5
1530606804100750,0,1,2,0,-9,-10,-1,-21
1530606804112718,59,25,-5,-5,-13,0,10,19
1530606804112718,43,10,-4,-6,2,6,-8,-2
1530606804121694,-22,-8,5,4,7,-18,-7,2
1530606804121694,-46,-14,-2,-2,-15,9,23,-8
1530606804136654,-62,-20,10,22,34,-12,-24,14
1530606804136654,28,7,-3,-6,-4,18,-23,8
1530606804137652,25,17,1,-1,11,-14,1,-23
1530606804137652,-35,-3,-2,-4,1,0,-8,9
1530606804158595,10,12,-2,-2,-16,16,32,7
1530606804158595,24,-38,-3,1,-8,40,2,8
1530606804160591,20,11,-2,2,24,10,-10,3
1530606804160591,3,2,-2,-11,-19,-28,-4,-7
1530606804172558,-29,-2,-4,-2,38,2,25,-4
1530606804172558,-56,-8,3,-1,-14,24,-28,11
1530606804181534,41,-7,-2,2,3,-17,27,4
1530606804181534,-21,-1,-2,-5,0,13,-15,-24
1530606804196494,9,-9,6,4,-9,-21,-9,6
1530606804196494,0,3,-5,-6,-25,-2,-1,-5
1530606804197492,-11,-2,-3,0,6,-13,7,-7
1530606804197492,63,55,3,-1,5,-5,-13,21
1530606804218435,-51,-71,-8,-7,-16,-7,-15,-25
1530606804218435,77,43,0,-3,15,-3,-4,5
1530606804220430,-87,-4,4,1,-8,-23,9,19
1530606804220430,53,5,9,11,13,21,20,23
1530606804232398,-78,-6,-5,-3,-9,15,-8,-26
1530606804232398,78,20,-3,-2,-10,-4,8,10
1530606804241374,14,-8,-7,-8,-3,29,-4,19
1530606804241374,-44,-4,2,3,17,-36,-29,-15
1530606804256334,-34,-10,6,4,-8,-14,21,6
1530606804256334,45,17,1,0,-10,2,-24,-11
1530606804258329,99,27,-2,-8,0,-15,-17,-5
1530606804258329,-36,-49,-7,1,-24,14,19,1
1530606804278276,-22,-3,-2,-2,3,-15,24,11
1530606804278276,-67,-2,3,1,-16,16,-5,-3
1530606804280270,0,6,4,0,20,4,-9,2
1530606804280270,44,12,-3,1,-7,24,-15,-9
1530606804292238,32,-4,-5,-3,34,-33,-14,-1
1530606804292238,-21,-4,2,3,0,-9,0,-20
1530606804301214,-32,-2,-1,-2,-2,10,9,7
1530606804301214,-9,8,3,4,-1,0,10,18
1530606804316174,-3,-20,-6,-5,-22,-1,-8,-8
1530606804316174,15,8,-2,-5,4,-3,-4,-3
1530606804318169,-55,-22,1,4,-2,-6,3,-26
1530606804318169,100,19,-8,-9,-15,-8,31,32
1530606804339112,1,15,-1,-4,-4,21,-55,-18
1530606804339112,-54,-19,-2,-4,-1,-3,12,-6
1530606804340110,-39,-7,4,9,13,-14,-7,-9
1530606804340110,-23,3,7,5,-3,17,17,-6
1530606804352078,50,39,1,-1,-11,-3,-4,4
1530606804352078,7,-42,-5,-6,-7,-16,13,-8
1530606804361054,-17,8,-4,-2,-1,2,11,4
1530606804361054,-8,-9,-6,-2,11,-17,-18,-10
1530606804376014,13,1,-3,-1,-16,7,7,27
1530606804376014,-35,15,9,6,0,0,3,20
1530606804378009,-14,-22,-8,-1,-6,-14,-26,-48
1530606804378009,33,-7,-5,-5,19,16,1,-6
1530606804398953,-50,0,1,-5,-4,1,-4,-10
1530606804398953,68,19,0,5,0,-29,14,11
1530606804399950,46,-14,-6,-7,-5,22,8,24
1530606804399950,-43,-9,-5,-5,3,11,-9,-20
1530606804411918,-33,8,6,0,1,-6,20,8
1530606804411918,4,6,-1,2,1,-14,-1,8
1530606804420894,22,2,-3,-4,-14,-5,1,20
1530606804420894,-87,1,7,7,24,29,-13,-16
1530606804435854,81,10,7,5,3,-19,16,-14
1530606804435854,-15,-12,-2,-1,-12,-4,-25,-9
1530606804437849,10,0,-3,-5,-2,3,2,25
1530606804437849,-11,-21,-5,-4,-5,16,12,3
1530606804458792,-10,5,3,0,-17,-15,-10,11
1530606804458792,4,7,1,6,18,-7,-6,-26
1530606804460787,9,14,4,2,-17,-8,-9,-14
1530606804460787,-14,-19,-1,1,17,2,29,-1
1530606804472755,11,-2,-3,-2,-16,6,-18,-1
1530606804472755,0,7,0,-2,9,16,23,2
1530606804481731,-42,-5,-5,-6,-12,1,4,-3
1530606804481731,5,-2,-4,-3,-8,-37,-12,5
1530606804496691,-16,-15,-2,1,9,6,-3,-1
1530606804496691,85,16,-3,-7,-16,-29,-22,4
1530606804497689,-37,-8,-3,-3,10,15,-17,-13
1530606804497689,0,9,3,1,7,3,17,9
1530606804518632,22,-7,1,4,10,29,26,3
1530606804518632,-14,9,3,2,-7,-11,-6,21
1530606804520627,1,-5,-1,2,-2,12,27,4
1530606804520627,21,26,0,-3,-9,1,-47,-3
1530606804532595,-2,-14,-6,-4,0,-39,9,-3
1530606804532595,-75,-20,4,10,18,20,3,-5
1530606804541571,72,9,-2,-5,-36,-8,-3,-8
1530606804541571,-3,-5,-4,2,4,2,15,20
1530606804556531,25,0,1,2,9,1,0,-17
1530606804556531,-81,-9,-6,-8,1,14,-9,0
1530606804557529,50,25,6,7,22,-4,0,7
1530606804557529,-28,-14,-1,-3,-24,-18,17,-12
1530606804578473,64,23,-1,-5,3,-2,-24,9
1530606804578473,8,-22,-3,-2,-11,-1,32,3
1530606804580467,-17,-18,-11,-8,-2,5,-26,-4
1530606804580467,-15,26,7,5,16,3,23,-1
1530606804592435,-36,-29,-3,1,1,10,-6,0
1530606804592435,20,5,-6,-2,27,-12,-18,-16
1530606804601411,-18,19,5,2,-26,25,22,11
1530606804601411,6,-11,2,1,-8,-4,5,1
1530606804615374,-23,-2,-3,0,-1,-26,2,10
1530606804615374,29,-9,-2,-6,-18,54,12,-17
1530606804624350,7,8,-5,2,20,-25,-40,-14
1530606804624350,21,-11,-3,-10,-12,6,1,-7
1530606804638312,-26,6,-1,5,-8,23,15,8
1530606804638312,-19,23,2,-2,-9,-24,0,7
1530606804640308,31,0,3,-2,0,-1,19,15
1530606804640308,-49,-12,-1,2,14,-5,0,-12
1530606804652275,-23,5,15,6,-13,-2,-37,-28
1530606804652275,-18,-32,-18,-16,-18,25,-6,-7
1530606804661251,86,37,2,10,14,-11,22,17
1530606804661251,-65,-14,-2,-3,-1,-22,-12,0
1530606804675214,19,8,-2,-12,-50,9,15,5
1530606804675214,-42,18,5,15,14,-6,-12,-3
1530606804682195,-27,-29,-2,3,12,6,0,0
1530606804682195,53,14,-5,-7,0,-6,5,10
1530606804699150,-16,12,0,-1,6,-12,18,9
1530606804699150,-1,1,1,-3,0,30,-32,-26
1530606804700147,-75,-36,0,-3,0,4,18,5
1530606804700147,59,23,1,11,2,11,-19,5
1530606804712115,50,9,-13,-11,3,3,13,-5
1530606804712115,12,-6,-6,-9,-1,-22,2,1
1530606804721091,-99,-12,8,2,-11,-15,-1,-6
1530606804721091,20,0,1,-7,7,6,-2,9
1530606804736051,-46,-9,2,10,17,22,-7,-18
1530606804736051,82,14,1,0,3,-6,26,25
1530606804742035,-104,-25,-2,-2,5,-15,-7,-34
1530606804742035,86,-12,-5,-6,-36,-13,-13,15
1530606804758989,28,-3,-15,-13,7,5,-11,2
1530606804758989,-32,12,10,3,13,-7,-5,-18
1530606804759987,-5,-9,-1,-6,-46,2,2,7
1530606804759987,-128,-21,5,12,17,-20,-10,-12
1530606804780931,65,5,8,10,22,9,-16,14
1530606804780931,-8,13,-2,-3,65,-10,20,28
1530606804782926,2,18,4,2,-21,-3,21,3
1530606804782926,-29,-3,-6,-8,-18,19,-26,-31
1530606804795891,-64,-31,-2,-9,-34,12,-1,-4
1530606804795891,-3,-3,2,16,35,-38,0,-15
1530606804802872,52,12,-1,1,35,-23,-1,27
1530606804802872,28,4,-6,-2,6,-6,0,-13
1530606804818830,-30,8,-2,-5,-18,-2,-9,16
1530606804818830,16,-6,-1,-14,-59,6,13,-1
1530606804820824,-10,-3,-2,7,15,-9,11,-15
1530606804820824,10,-12,-6,9,35,25,-16,11
1530606804840771,79,71,1,-7,-11,-19,6,-16
1530606804840771,-91,-66,-7,-3,-15,27,5,11
1530606804842766,32,7,4,-1,13,-7,-24,11
1530606804842766,-35,21,-3,-11,-16,-23,31,-3
1530606804855731,-20,-39,-1,4,10,37,-9,-2
1530606804855731,-18,6,-1,0,9,-18,-24,-31
1530606804862712,12,16,1,-1,1,-5,-8,5
1530606804862712,9,3,7,-1,-10,15,-3,11
1530606804878670,8,-30,-11,-7,-11,9,15,-19
1530606804878670,22,13,4,8,21,-60,10,17
1530606804880665,-11,-1,-2,-4,9,24,5,0
1530606804880665,18,3,-2,-5,-17,-9,-4,-19
1530606804901608,-85,-9,-1,6,-4,-25,6,2
1530606804901608,16,-5,6,5,-11,32,-14,7
1530606804902606,52,14,-4,-4,-4,-6,-7,-8
1530606804902606,14,-11,0,3,1,-15,13,16
1530606804915571,-23,12,1,-3,13,11,1,0
1530606804915571,-52,-9,-1,-6,1,19,-22,-4
1530606804922552,29,-1,-7,-3,-14,2,-1,-16
1530606804922552,41,13,2,-1,-15,-15,-10,-8
1530606804938509,16,23,-1,-1,35,3,13,5
1530606804938509,-39,-24,-5,-7,-43,12,9,18
1530606804940505,-11,-15,-2,-1,16,-31,-18,-33
1530606804940505,11,12,8,1,-27,26,15,9
1530606804961448,-32,-25,-12,-5,18,-29,-32,-10
1530606804961448,23,21,7,12,29,3,-1,-10
1530606804962445,3,-12,-7,-10,3,39,5,15
1530606804962445,12,17,-2,1,19,-9,34,10
1530606804975411,-49,-5,8,3,-13,-6,-17,10
1530606804975411,49,6,-1,-1,-15,-1,10,-4
1530606804982392,-11,-2,-3,-4,-5,-21,-44,-7
1530606804982392,-12,-6,-1,-2,-5,0,4,10
1530606804998349,41,15,3,1,0,0,-7,-9
1530606804998349,-52,-25,-4,3,-1,29,32,6
1530606805000345,-4,-9,-8,-2,-10,6,-10,-11
1530606805000345,-26,16,4,1,12,16,-1,-1
1530606805021288,9,-6,-3,1,-3,-33,4,5
1530606805021288,57,28,1,-1,-13,-12,-6,-17
1530606805023283,38,-4,0,0,8,-3,24,14
1530606805023283,-3,-6,-3,-2,1,3,-15,3
1530606805035251,-60,-20,0,-3,-17,2,-20,-26
1530606805035251,16,9,1,1,-5,3,7,15
1530606805044227,-37,9,1,-10,-51,28,-5,8
1530606805044227,-4,-17,-3,21,82,-18,31,8
1530606805059187,2,8,-1,-2,-8,-29,29,-14
1530606805059187,16,4,-4,-3,-9,-23,-16,15
1530606805060184,2,-3,5,3,11,1,0,-9
1530606805060184,-8,-3,-3,-15,-52,-8,-34,-13
1530606805081128,15,-4,4,13,14,15,7,11
1530606805081128,-29,-13,-12,-9,-7,4,-13,-6
1530606805083123,32,7,1,-4,-5,-16,0,-8
1530606805083123,-60,-15,-5,0,15,9,25,17
1530606805095091,120,29,-6,-8,-5,-5,-20,0
1530606805095091,-68,0,5,-2,1,-2,-12,-17
1530606805104067,-24,17,2,2,2,10,-7,10
1530606805104067,2,-19,-4,-5,-10,7,-19,-22
1530606805119027,-17,-4,1,0,9,-4,1,7
1530606805119027,19,7,1,3,-5,-16,11,8
1530606805120024,-7,-3,-1,1,28,-11,24,4
1530606805120024,24,9,6,1,-43,0,-24,1
1530606805140968,-9,-21,-3,-3,31,26,2,3
1530606805140968,20,1,-7,-7,-9,-15,-36,-13
1530606805142963,-26,3,3,7,15,0,15,-12
1530606805142963,-5,-14,-3,-5,-8,-10,1,4
1530606805154931,22,20,5,3,-4,-2,3,13
1530606805154931,-28,-15,-2,-4,-2,14,-7,7
1530606805163907,64,8,-1,3,-7,5,12,8
1530606805163907,-19,2,-7,-5,6,-1,-28,-24
1530606805178867,-7,-12,-9,-6,-7,1,-7,-11
1530606805178867,0,-1,0,-1,5,-4,10,-1
1530606805180861,-31,-5,4,1,-1,-2,9,12
1530606805180861,0,-1,2,3,-8,4,-9,5
1530606805200808,-39,-8,0,0,-10,-5,12,2
1530606805200808,79,25,-3,-2,7,17,7,3
1530606805202803,-17,-11,-1,-2,-10,-4,-6,4
1530606805202803,24,15,5,-2,-2,-10,14,6
1530606805214771,-77,-14,-3,-2,25,6,5,16
1530606805214771,51,11,6,5,-21,20,1,12
1530606805223747,-12,-8,-4,-10,-23,-3,-39,-28
1530606805223747,-27,-17,-9,4,33,-18,-10,11
1530606805238707,32,17,8,4,-8,34,9,-5
1530606805238707,-12,-1,-3,-2,21,0,22,7
1530606805240702,20,7,-4,-3,-14,-4,-5,4
1530606805240702,-15,-18,-9,-11,-16,-16,-3,-5
1530606805261645,-2,-1,0,0,-10,0,-2,1
1530606805261645,28,18,3,1,-5,-4,22,-1
1530606805262643,-37,-18,2,2,5,-9,0,-3
1530606805262643,-22,9,0,-1,5,-1,-18,-27
1530606805274611,71,18,4,9,26,-2,0,1
1530606805274611,-40,-49,-14,-13,-13,10,7,4
1530606805283587,0,9,-4,-7,-8,1,23,1
1530606805283587,-9,4,0,4,3,-26,-17,1
1530606805298547,-16,-15,0,0,-12,-3,3,-9
1530606805298547,79,38,4,2,25,-34,-9,5
1530606805300542,-104,-33,-2,-2,-19,3,-9,1
1530606805300542,71,-4,-2,-3,-4,49,18,-9
1530606805321485,-4,-27,-7,-5,-11,2,15,3
1530606805321485,-50,25,1,3,38,3,-24,0
1530606805322483,70,35,-2,2,17,-13,-25,10
1530606805322483,16,13,-1,-3,21,0,14,8
1530606805334451,-53,-41,1,3,-7,-22,-23,-13
1530606805334451,-7,-18,-6,-13,-30,3,9,-3
1530606805343426,-17,-2,9,7,23,-5,1,0
1530606805343426,12,18,8,8,-3,18,-3,19
1530606805358386,24,-13,-13,-15,-32,-9,46,-4
1530606805358386,-47,-7,4,9,-11,-33,-85,-24
1530606805360382,73,21,-6,-7,-14,-2,-8,-6
1530606805360382,-51,-30,5,3,2,11,30,12
1530606805381325,4,26,6,4,0,20,0,-8
1530606805381325,-55,-95,-13,-4,-22,-47,-10,-4
1530606805383320,87,81,-11,-8,8,8,-4,-5
1530606805383320,-18,86,34,3,4,26,-6,1
1530606805395288,-106,-19,7,18,43,-10,17,-4
1530606805395288,73,10,-10,-22,-98,21,5,13
1530606805404264,-107,-60,-12,19,84,-4,-18,-8
1530606805404264,127,8,-15,-17,38,9,-4,3
1530606805419224,4,7,4,-7,-28,-17,-24,-38
1530606805419224,-31,25,10,14,42,-1,-24,8
1530606805420222,-121,-62,-12,-14,38,3,51,18
1530606805420222,-2,7,-4,-5,-58,-19,16,1
1530606805441165,61,14,-7,-15,-54,-5,-35,-2
1530606805441165,-3,27,8,21,44,15,17,-22
1530606805443160,-102,-65,12,6,-37,-1,33,20
1530606805443160,38,11,-4,3,7,-2,-15,-7
1530606805455128,42,22,-15,-20,-43,4,-2,26
1530606805455128,17,24,-9,-1,19,23,18,-1
1530606805464104,-43,-27,13,6,-45,-9,-32,-21
1530606805464104,-49,-44,-4,-5,-70,15,13,-5
1530606805479064,59,22,-7,9,32,-6,-4,11
1530606805479064,-40,14,14,3,20,-21,9,5
1530606805480061,57,-5,1,1,15,0,30,3
1530606805480061,-39,-24,-13,-6,8,16,-23,2
1530606805501005,-52,-7,-6,-18,-66,-30,-6,7
1530606805501005,18,18,6,19,71,4,-14,-11
1530606805503000,38,23,7,2,-12,-7,17,-4
1530606805503000,-5,-13,-1,-6,-15,-21,-4,6
1530606805514968,-83,-1,13,19,73,22,8,-11
1530606805514968,79,6,-3,-11,-47,29,13,-2
1530606805523944,63,4,-10,-7,-6,-2,-17,8
1530606805523944,-50,-15,-4,3,11,-8,18,-4
1530606805538904,-17,4,6,-3,-1,-26,6,18
1530606805538904,-46,-28,-3,0,-18,6,5,-9
1530606805539902,8,-26,-12,-8,-1,10,-10,-3
1530606805539902,26,26,-4,-10,-12,-22,-13,-2
1530606805560845,45,21,3,9,22,5,1,-1
1530606805560845,-7,-22,-1,-5,-5,5,-13,0
1530606805562840,19,38,12,-9,-55,1,5,5
1530606805562840,-26,-49,-6,10,23,-9,-8,-7
1530606805574808,-6,1,-7,-1,-19,-39,3,3
1530606805574808,-3,25,4,-17,-70,28,15,1
1530606805583784,-14,-9,1,23,58,13,-34,-20
1530606805583784,-6,24,11,6,16,0,8,2
1530606805598744,-35,-52,-4,-6,-11,19,10,5
1530606805598744,32,1,-2,1,-30,-26,-4,0
1530606805600739,18,-13,-6,-4,15,-30,2,-10
1530606805600739,-39,16,0,-1,29,-2,9,2
1530606805621683,18,-9,-6,-5,-18,26,7,5
1530606805621683,12,-4,6,-1,-16,-18,5,1
1530606805622680,-29,28,4,2,0,19,-13,-3
1530606805622680,57,-2,-5,4,15,17,11,16
1530606805634648,2,5,-2,-8,4,-31,-20,-23
1530606805634648,-96,-47,-6,-1,14,17,5,3
1530606805643624,76,26,5,1,17,15,-8,0
1530606805643624,-26,-16,-3,0,-34,-29,7,-12
1530606805658584,3,7,2,2,15,17,-4,17
1530606805658584,26,17,-3,1,30,-11,13,15
1530606805664568,-17,-22,-4,-7,-25,20,-10,-26
1530606805664568,-15,-9,-4,-5,-17,-24,-28,-1
1530606805681522,42,0,-5,2,7,9,-10,-3
1530606805681522,-18,11,2,-6,-5,7,19,-1
1530606805682520,8,32,7,10,78,-3,8,34
1530606805682520,20,-15,-5,-8,-10,8,-2,-31
1530606805694488,-53,-35,-1,0,13,3,-6,-4
1530606805694488,2,1,0,-1,-7,-61,17,12
1530606805703464,-51,-15,-8,-9,-54,14,-8,-2
1530606805703464,73,19,5,6,20,3,-11,-5
1530606805718424,-11,11,0,-2,6,-14,0,-4
1530606805718424,-4,-7,-1,-1,4,-15,25,-7
1530606805725405,47,-7,0,-5,-13,16,0,6
1530606805725405,-38,14,-8,-5,13,-30,-12,-4
1530606805741362,-11,29,15,7,-10,14,1,-2
1530606805741362,-66,-58,-9,-3,-6,41,3,-3
1530606805743357,25,46,-1,4,-12,-63,-6,-8
1530606805743357,25,-12,-4,-8,-46,37,-11,6
1530606805763304,7,10,7,4,22,-3,13,10
1530606805763304,21,7,-3,3,51,-12,-30,-10
1530606805765299,-94,-42,-5,-4,-39,11,19,1
1530606805765299,4,7,3,4,5,4,16,9
1530606805778264,66,31,-4,-4,-15,7,3,20
1530606805778264,-5,-6,-10,-12,-18,-43,-47,-31
1530606805785245,-31,18,4,7,3,-12,5,-17
1530606805785245,20,-8,-3,-1,9,-8,7,15
1530606805801202,-11,4,5,3,8,13,2,-10
1530606805801202,2,-1,2,2,-8,29,22,24
1530606805803197,-11,7,-1,-2,5,0,-10,-1
1530606805803197,-4,-21,-3,-4,-10,-11,-8,-4
1530606805824141,42,22,1,-4,-24,0,-1,0
1530606805824141,8,8,3,2,9,21,-6,-5
1530606805825139,14,-6,-9,-6,-28,-7,11,14
1530606805825139,-33,-8,2,6,11,22,-7,-25
1530606805838104,-12,-28,-2,6,17,-5,-45,-1
1530606805838104,24,20,0,-4,-10,-13,8,1
1530606805845085,7,-29,-1,-5,11,-41,4,4
1530606805845085,-73,10,5,4,-7,16,3,-11
1530606805861043,44,17,-2,-2,9,4,15,19
1530606805861043,-45,-6,8,8,-7,25,29,0
1530606805863037,10,-2,-1,0,11,10,-2,9
1530606805863037,88,13,-10,-8,4,-14,-21,-2
1530606805883981,-54,7,4,1,12,2,0,-29
1530606805883981,-4,-22,-6,-3,26,14,-5,22
1530606805884978,-3,21,5,2,-7,19,-3,1
1530606805884978,-21,-2,-1,5,40,4,9,6
1530606805897944,-17,-20,-6,-3,-22,-20,-14,-18
1530606805897944,-14,31,7,0,-26,0,18,11
1530606805904925,70,5,-5,-3,3,-22,-44,-13
1530606805904925,-25,-5,-6,-7,-4,40,28,-7
1530606805920882,-11,0,-3,-1,12,-36,-19,3
1530606805920882,4,-14,-5,-1,4,-6,-23,-12
1530606805922877,7,17,3,-9,-17,19,2,-3
1530606805922877,25,5,6,6,-6,-35,0,3
1530606805943821,-63,-35,-19,-6,19,35,18,-5
1530606805943821,8,13,1,1,-1,-19,15,-1
1530606805945816,52,13,-2,-4,-3,0,-19,-1
1530606805945816,-46,-2,-4,-9,-22,-23,3,-11
1530606805957783,1,-5,6,3,-27,26,-3,-18
1530606805957783,44,-5,-3,5,14,-8,-16,10
1530606805964765,-3,-13,-8,-6,-5,-3,14,-3
1530606805964765,-49,-13,7,10,24,7,3,-1
1530606805981719,1,-1,-2,-2,-12,2,1,14
1530606805981719,63,10,-5,-4,8,-7,-21,-21
1530606805982718,-43,1,-7,-6,-2,-11,6,1
1530606805982718,4,10,0,1,7,4,16,9
1530606806003661,-47,-28,-1,0,-27,-45,26,-7
1530606806003661,49,-10,0,6,18,18,-42,-8
1530606806005656,5,1,-4,-9,1,3,-15,0
1530606806005656,-10,6,-5,-8,-22,-6,-11,7
1530606806017624,16,1,-3,1,38,31,13,10
1530606806017624,-40,0,3,-1,-28,-27,45,-7
1530606806026600,-15,2,-2,4,34,-9,6,-3
1530606806026600,-46,-36,4,5,-2,8,-3,17
1530606806041560,75,16,-1,-4,-3,-1,-20,-8
1530606806041560,-10,-5,-3,-5,-11,2,-6,-1
1530606806042557,-60,-14,6,3,1,0,9,4
1530606806042557,-55,4,6,-1,-31,12,10,2
1530606806063501,88,7,-10,6,43,12,-17,-8
1530606806063501,-50,-3,-5,-8,-5,-21,-25,-9
1530606806065496,-31,6,3,5,-11,42,16,8
1530606806065496,-9,-16,2,2,1,-7,14,5
1530606806077464,-15,18,7,1,-11,1,7,18
1530606806077464,25,9,7,4,15,3,29,6
1530606806086440,2,-10,-4,3,-5,-8,-12,-5
1530606806086440,55,18,-5,-7,12,-18,-23,-9
1530606806101399,-65,-35,-2,1,0,2,8,-1
1530606806101399,51,22,-3,1,-3,23,4,21
1530606806102397,-53,-27,-2,-3,25,-16,12,-7
1530606806102397,48,27,7,1,1,-1,10,-1
1530606806123342,35,-2,-1,-5,14,-8,-26,-3
1530606806123342,-60,-5,-9,-7,-17,12,-23,-28
1530606806125336,21,32,15,4,-36,-43,-5,3
1530606806125336,-28,-17,7,12,13,2,-5,8
1530606806137304,7,-15,-19,-15,-17,-6,12,0
1530606806137304,17,0,1,2,30,9,6,11
1530606806146280,52,9,-1,-7,-31,32,9,-2
1530606806146280,11,18,-4,-2,-1,-17,-12,-5
1530606806161240,-60,-35,6,5,-3,1,14,-1
1530606806161240,16,-15,-6,1,21,-13,-10,0
1530606806163234,-12,-22,-12,-1,13,15,14,-10
1530606806163234,-38,-25,6,4,4,11,-9,-9
1530606806184178,60,46,0,-4,-13,-24,5,10
1530606806184178,-17,16,5,-8,-25,-7,-13,-13
1530606806185176,21,-7,5,5,10,-3,9,7
1530606806185176,-17,-4,3,6,30,24,-9,-11
1530606806197143,-22,-18,-4,-2,-2,18,-4,-4
1530606806197143,12,2,-4,1,3,-10,14,4
1530606806206120,-13,15,5,2,-15,10,18,6
1530606806206120,62,-5,-10,-8,-3,-19,-31,-23
1530606806221079,-14,2,3,-1,-4,-5,-9,8
1530606806221079,-16,5,-2,2,-8,-2,1,-5
1530606806223074,-26,-20,0,4,16,7,-11,-2
1530606806223074,5,4,-7,-9,-8,-23,14,-5
1530606806244018,7,-21,4,3,-8,30,14,6
1530606806244018,16,20,-1,-4,-6,5,-4,10
1530606806245016,-45,-22,-3,-1,1,1,-15,-19
1530606806245016,63,21,-3,-7,-14,-8,5,20
1530606806256983,-44,22,2,0,-3,-15,-4,3
1530606806256983,14,-15,3,6,11,15,20,7
1530606806265960,-27,-33,-5,-5,-19,-37,-20,10
1530606806265960,-7,2,-1,4,36,2,-3,7
1530606806280919,-21,-38,-12,-5,-3,-8,-5,-17
1530606806280919,-33,3,-4,-6,-8,15,-10,-9
1530606806282915,74,13,-6,-6,-1,0,4,12
1530606806282915,-15,-6,-4,-4,-33,-20,-15,5
1530606806303859,23,33,12,10,14,3,17,7
1530606806303859,-84,-28,-3,-1,21,2,4,-13
1530606806305854,82,0,-4,-2,-30,-13,-12,11
1530606806305854,24,4,-10,-5,5,23,-15,11
1530606806317821,-60,-19,-4,-2,9,-27,1,6
1530606806317821,0,25,8,4,-16,-2,-5,-9
1530606806326797,-36,-26,2,5,29,21,14,-3
1530606806326797,-15,9,-5,-2,-13,8,7,-13
1530606806341757,84,8,-4,-3,-21,-16,-7,18
1530606806341757,16,1,-2,-4,1,2,-12,8
1530606806342755,-29,8,6,2,4,2,43,4
1530606806342755,-17,-13,-8,0,9,-13,-58,-42
1530606806363698,-37,14,4,4,9,10,1,0
1530606806363698,22,2,3,1,-11,-9,-10,11
1530606806365693,-1,24,2,-2,-7,0,0,-8
1530606806365693,-56,-26,3,3,-10,-5,34,7
1530606806377661,27,12,4,9,31,22,3,-2
1530606806377661,23,3,-6,-5,-20,-10,-5,-19
1530606806386637,36,27,-2,-1,0,12,-15,5
1530606806386637,-2,-62,-10,-9,2,11,14,10
1530606806401597,2,14,2,-4,-9,-11,6,-10
1530606806401597,-66,-32,2,3,6,-24,-16,-5
1530606806402594,16,32,4,-1,-32,10,4,12
1530606806402594,2,12,10,14,29,12,7,13
1530606806423538,16,7,-3,-5,-11,5,-15,-25
1530606806423538,-45,-2,-2,0,15,15,15,-1
1530606806425533,44,-15,-17,-10,-33,2,-8,-10
1530606806425533,21,-5,-11,-9,0,-29,1,8
1530606806437501,-33,10,9,1,-14,-7,0,-1
1530606806437501,21,-11,-5,-1,5,21,5,-2
1530606806446477,-29,2,1,3,24,6,-8,-10
1530606806446477,46,-8,-6,-6,-13,3,18,15
1530606806461437,-15,23,6,-3,-24,3,-13,-16
1530606806461437,-20,-13,-2,4,20,-22,16,1
1530606806462434,-46,-10,-3,-2,6,5,-7,-7
1530606806462434,82,40,12,6,4,-7,-7,-19
1530606806483378,0,-45,-8,-1,-13,-12,-22,6
1530606806483378,32,25,5,-1,-16,24,10,22
1530606806485373,-37,1,-3,-4,28,-14,-4,-3
1530606806485373,-30,12,6,1,-16,-14,15,-18
1530606806497341,18,-8,-1,0,4,33,-12,4
1530606806497341,-19,-22,-11,-4,-8,-9,6,-4
1530606806506317,-8,-4,7,5,26,6,-2,-1
1530606806506317,-20,12,-7,-10,-4,-6,-10,2
1530606806521277,47,14,4,4,-11,-2,35,2
1530606806521277,4,0,-6,-11,-26,-25,-45,-5
1530606806523271,9,-15,-4,4,9,19,17,15
1530606806523271,-18,-21,-3,-4,13,-3,-15,-15
1530606806544215,9,22,-1,-1,2,13,-2,-2
1530606806544215,17,7,6,4,3,-16,16,6
1530606806545213,-75,-21,5,5,0,-18,-13,-12
1530606806545213,19,9,4,1,-17,10,7,10
1530606806557181,31,-13,-11,-7,8,-2,11,2
1530606806557181,-13,-11,-1,1,8,7,-24,-6
1530606806566157,7,17,0,-5,1,-22,-17,-21
1530606806566157,-39,-2,4,3,-18,17,7,-1
1530606806581116,25,0,-4,-2,19,6,7,-4
1530606806581116,17,-10,3,6,9,-13,27,17
1530606806583112,13,-10,-8,-5,13,0,-24,-8
1530606806583112,-52,-23,-4,0,-28,15,5,9
1530606806604055,26,17,2,-7,-26,-9,-1,-3
1530606806604055,-12,5,-2,5,15,7,11,-2
1530606806605053,29,9,2,2,-7,-10,-1,5
1530606806605053,-28,-2,1,2,16,-11,-4,-2
1530606806617021,1,5,-3,-4,-1,41,-14,1
1530606806617021,18,-5,1,-1,-5,-2,-6,-6
1530606806625996,-5,-4,-1,-1,-2,-6,5,10
1530606806625996,15,-11,-3,-4,4,-10,12,-9
1530606806640957,-53,4,2,2,7,-24,12,15
1530606806640957,-17,0,-1,-2,-8,8,-40,-7
1530606806646941,45,4,-4,-1,8,41,4,1
1530606806646941,20,28,-1,-7,-11,-40,-8,5
1530606806663895,-30,-5,7,4,1,3,5,-5
1530606806663895,8,-10,-11,-5,11,-5,-3,-16
1530606806665890,-29,-8,2,-3,-20,-15,0,3
1530606806665890,14,6,3,5,0,37,-4,12
1530606806685836,-22,0,-4,-2,4,-14,13,-2
1530606806685836,4,5,5,4,3,2,-14,-13
1530606806687832,13,19,7,4,28,-10,12,0
1530606806687832,-40,-52,-15,-6,-40,15,-5,6
1530606806700796,13,22,0,-3,-7,-26,2,6
1530606806700796,9,-6,-1,4,-5,1,5,16
1530606806707778,7,7,3,3,6,8,-4,-16
1530606806707778,-12,1,-3,-1,13,1,-2,1
1530606806723735,40,0,0,0,-13,-29,-1,5
1530606806723735,-4,3,-3,-2,5,31,20,5
1530606806725730,-12,-27,-4,-4,-22,7,-4,-5
1530606806725730,-16,22,4,-2,0,-32,-10,-10
1530606806746674,-4,-23,-3,2,12,1,3,-3
1530606806746674,13,19,-2,-9,-19,-21,7,7
1530606806747672,-8,11,-1,0,9,-11,-4,-6
1530606806747672,6,-13,0,5,11,30,16,4
1530606806760637,9,-14,-7,-4,11,11,-25,3
1530606806760637,6,5,-1,-3,-12,-24,19,-7
1530606806767618,10,9,5,0,-10,7,-8,0
1530606806767618,38,9,4,-1,-18,-21,-18,-3
1530606806783575,-23,-17,-9,-2,18,-7,-4,-3
1530606806783575,-3,10,1,-3,-9,31,14,4
1530606806785570,16,-8,-5,-5,-3,-2,-14,2
1530606806785570,-49,-14,-2,3,16,-7,-8,-26
1530606806806514,10,8,2,3,-8,-12,-13,6
1530606806806514,-22,-8,2,0,-10,62,3,-9
1530606806807512,-1,5,-1,-2,9,-38,19,14
1530606806807512,10,6,4,3,-5,12,0,3
1530606806820476,-26,-11,-1,-1,9,-21,17,-5
1530606806820476,-1,-3,-6,-6,1,-13,-34,5
1530606806827458,-1,12,2,4,1,20,-2,-15
1530606806827458,58,11,-1,-1,11,-23,16,8
1530606806843415,-31,-22,-8,-8,-7,10,-29,0
1530606806843415,26,10,6,6,1,-18,-4,9
1530606806845410,-41,-20,-4,-3,-8,6,16,-7
1530606806845410,-3,12,4,-2,3,6,5,-20
1530606806866354,-11,-2,-3,0,-9,0,-10,-15
1530606806866354,-3,-18,-4,-1,5,-31,-9,4
1530606806868349,31,17,-2,2,17,15,1,6
1530606806868349,-25,-22,-2,-4,-13,-7,11,18
1530606806880317,23,6,5,3,3,16,-7,1
1530606806880317,-30,-3,-1,-2,0,-5,-3,-6
1530606806887298,51,19,4,-1,-19,-3,-1,4
1530606806887298,45,-11,-4,-2,5,38,5,8
1530606806904252,-41,0,-3,-5,8,-55,-5,-10
1530606806904252,8,-1,0,0,-10,-6,-9,-11
1530606806905250,-53,-16,0,-1,-4,-6,-9,-3
1530606806905250,13,14,1,1,8,21,2,-4
1530606806926194,-22,-9,0,0,-1,-16,-28,-5
1530606806926194,14,3,-1,-4,-27,9,25,5
1530606806928189,-8,0,-1,3,-5,12,-10,-16
1530606806928189,0,7,0,3,10,11,4,-8
1530606806940156,13,-7,-2,4,13,17,11,2
1530606806940156,9,9,-5,-1,-1,-21,-20,3
1530606806949133,-7,-19,-5,-6,-18,1,5,13
1530606806949133,-12,4,-2,-4,-4,14,12,-5
1530606806964092,-30,7,3,2,-8,-9,10,-2
1530606806964092,45,22,7,5,11,10,8,14
1530606806965090,-13,-29,-12,-6,-5,-28,-2,9
1530606806965090,24,11,-2,-1,-3,-2,-34,-23
1530606806986034,-7,-1,-1,-5,14,22,9,-19
1530606806986034,-42,-16,2,4,8,1,8,-6
1530606806988029,-32,0,-4,-1,-5,-14,13,17
1530606806988029,16,14,8,5,-7,-3,5,6
1530606806999996,43,6,-4,0,-3,18,1,10
1530606806999996,-54,-23,-4,-3,11,10,21,-5
1530606807008972,10,-4,0,0,15,-26,-16,-9
1530606807008972,57,37,-2,-17,-63,-3,-16,15
1530606807023932,-56,-40,1,11,18,29,15,1
1530606807023932,22,20,4,1,7,-3,-30,-15
1530606807024930,-11,-22,-3,-2,21,-3,11,3
1530606807024930,-41,-7,0,-1,-8,-21,-1,0
1530606807045874,19,3,2,-2,-26,2,5,3
1530606807045874,3,-9,-3,0,13,32,7,9
1530606807047869,37,19,1,4,3,-19,-29,-25
1530606807047869,-16,-10,-7,-10,-27,-18,-8,-3
1530606807059836,1,0,-3,4,21,-18,-15,-3
1530606807059836,-28,-8,-1,0,8,34,5,-3
1530606807068813,38,14,2,-4,4,17,13,-13
1530606807068813,-38,-10,2,0,8,10,3,12
1530606807083773,14,3,-1,-2,-17,-6,11,-3
1530606807083773,8,1,-4,-10,-6,-15,-10,-6
1530606807085767,21,4,11,24,-3,-1,-16,-1
1530606807085767,-21,-11,-2,3,16,27,16,-10
1530606807106711,-28,-17,-3,-3,15,-19,-1,1
1530606807106711,15,1,-8,-7,-49,-30,-3,4
1530606807107709,-43,-5,-18,-28,-3,27,-1,18
1530606807107709,56,18,16,24,9,-5,29,-8
1530606807119676,20,33,9,9,3,-14,-17,-4
1530606807119676,-9,-23,1,1,18,3,-15,-6
1530606807128654,-14,-15,-14,-11,-26,-5,-2,-2
1530606807128654,-15,-19,-7,-7,14,10,23,0
1530606807143613,46,15,-11,-24,-16,-8,-25,5
1530606807143613,-8,3,6,21,11,7,4,7
1530606807145607,5,8,7,-1,-27,3,25,5
1530606807145607,-18,3,-5,0,30,-18,-24,-1
1530606807166551,-31,-10,1,0,-10,22,24,5
1530606807166551,64,12,-3,-7,-3,-14,12,7
1530606807167549,-24,-19,-2,3,4,18,-28,-2
1530606807167549,2,5,-8,-3,11,-6,3,-1
1530606807179517,-7,7,2,-4,-48,1,7,7
1530606807179517,-46,-45,-5,5,27,-14,5,0
1530606807188492,51,27,-3,-6,-11,7,-11,-22
1530606807188492,-18,1,-6,-3,22,-6,-1,7
1530606807203452,17,-5,7,13,-9,24,10,1
1530606807203452,43,43,6,-7,3,-5,-12,0
1530606807205447,-42,-36,1,7,4,-8,9,3
1530606807205447,-17,-19,-13,-9,-2,-14,-17,-6
1530606807226391,-1,-2,-2,-5,0,22,6,5
1530606807226391,5,8,0,-8,-5,-33,-2,3
1530606807228386,1,-4,5,12,-11,-9,12,-1
1530606807228386,29,21,2,2,3,2,-1,-8
1530606807240353,-57,-27,-10,-2,12,33,-3,-13
1530606807240353,-9,-7,0,-4,-3,-2,-8,3
1530606807249330,50,17,2,-4,8,23,6,-2
1530606807249330,-25,0,8,4,-10,-39,1,7
1530606807263292,24,-3,-9,-4,10,-6,-70,-25
1530606807263292,-15,-15,-13,-10,-15,0,10,-4
1530606807265288,-16,19,2,-5,4,4,16,-4
1530606807265288,6,-19,4,8,-2,20,4,-10
1530606807286231,7,11,2,1,13,-24,14,3
1530606807286231,-24,1,5,7,-15,10,-2,-9
1530606807288226,40,7,-2,-2,2,-4,5,12
1530606807288226,-50,-26,-7,-6,-3,-11,-7,-3
1530606807300193,32,26,4,0,-8,10,-5,1
1530606807300193,62,30,-1,2,14,4,3,4
1530606807309170,-48,-12,10,6,16,4,6,5
1530606807309170,-3,-16,-5,-4,10,-15,-9,9
1530606807324129,-46,-24,-6,-7,-16,-14,19,-11
1530606807324129,15,-3,-9,-1,-14,2,-22,-2
1530606807325127,1,4,-3,-4,13,-1,-6,-1
1530606807325127,0,10,3,0,4,-6,-1,7
1530606807346071,-17,-18,0,-2,-3,4,-5,-5
1530606807346071,33,-2,-3,-3,-2,2,25,9
1530606807348066,5,14,-3,-7,-6,-5,3,0
1530606807348066,-40,-17,6,5,-10,6,-6,-1
1530606807360034,36,26,6,6,-5,-20,17,16
1530606807360034,-72,-8,6,5,11,1,1,-16
1530606807369010,48,-2,-4,1,-2,7,-6,4
1530606807369010,25,5,-7,-7,-1,8,9,11
1530606807383970,-44,15,-3,-4,-1,-3,4,-2
1530606807383970,24,1,9,7,2,-9,-9,2
1530606807384967,-1,-4,-4,-3,-10,-2,-5,4
1530606807384967,11,2,4,2,13,-4,-4,-7
1530606807405911,7,-12,-3,0,-17,-6,-2,-8
1530606807405911,-19,-3,-2,-5,7,14,2,-3
1530606807407906,-15,6,2,2,9,27,-4,-6
1530606807407906,0,2,1,-2,-13,-8,-7,11
1530606807419873,18,-1,-1,1,28,-17,7,8
1530606807419873,-24,-1,-4,-3,-32,-11,2,-15
1530606807434833,30,14,0,-3,8,6,4,0
1530606807434833,-7,18,5,4,1,1,-14,-6
1530606807442812,-13,-7,-1,-1,-2,-1,-23,-4
1530606807442812,-3,5,6,6,12,-13,11,-5
1530606807449793,-14,-31,-5,-2,-6,6,-2,-1
1530606807449793,23,21,0,1,-5,13,13,1
1530606807466748,27,-6,-6,-12,2,-8,-3,-10
1530606807466748,-15,-15,-1,2,1,2,-1,15
1530606807467746,-47,0,1,3,-3,6,1,7
1530606807467746,8,2,-2,0,-3,-13,1,-18
1530606807479713,-5,4,2,0,-6,11,-11,-15
1530606807479713,29,4,-5,-5,9,-2,1,2
1530606807488690,-22,-2,-4,-1,-1,-37,-28,-2
1530606807488690,15,8,3,2,-6,37,28,12
1530606807503650,14,-16,-13,-6,18,-11,-22,10
1530606807503650,-12,-2,0,-4,-25,-5,-1,-9
1530606807505644,-46,-14,1,4,4,-9,24,-8
1530606807505644,20,23,1,0,0,16,-40,-6
1530606807526588,-5,-6,-4,0,2,20,14,-13
1530606807526588,32,5,0,-1,5,-25,10,6
1530606807527586,-28,-11,1,-1,-15,-25,-9,0
1530606807527586,1,-17,-9,-6,-3,7,-10,-6
1530606807539553,-27,10,8,5,16,13,10,-7
1530606807539553,29,-3,-1,4,12,-11,0,4
1530606807548529,-26,-13,-4,-5,-21,-8,7,-3
1530606807548529,-3,11,0,-1,-11,-22,0,-6
1530606807563489,31,-6,4,3,-4,5,10,22
1530606807563489,-36,2,-2,-1,12,18,-6,-17
1530606807569473,44,7,-2,2,5,-14,3,6
1530606807569473,-6,-5,-2,-2,-10,-2,-9,-8
1530606807586428,14,35,6,1,-11,11,4,13
1530606807586428,-5,-37,-5,-2,-2,-9,6,-10
1530606807587426,-24,-5,-2,0,15,8,2,3
1530606807587426,61,-7,-1,-2,3,-2,2,4
1530606807600391,-26,2,2,1,5,-14,3,3
1530606807600391,-12,14,-3,-1,-7,12,-7,-2
1530606807609367,10,-5,4,-7,-31,-5,0,-1
1530606807609367,-40,-16,-2,9,17,7,18,13
1530606807623329,18,4,5,2,-3,-24,-30,1
1530606807623329,7,-3,-2,2,18,24,-1,-3
1530606807630311,-1,11,-1,-1,-9,-5,-12,1
1530606807630311,0,-8,1,-2,-8,30,3,0
1530606807646268,1,-10,-9,-7,-7,-11,11,1
1530606807646268,12,15,2,0,-8,11,-1,5
1530606807648263,-7,-2,-2,-2,1,10,12,-10
1530606807648263,2,-2,1,2,6,-22,-27,-16
1530606807669207,-25,-10,-3,0,-13,11,12,6
1530606807669207,-9,18,6,2,12,-10,-39,-1
1530606807670204,-12,-11,0,2,-8,20,2,0
1530606807670204,6,-11,-2,-4,-4,-9,11,8
1530606807683169,20,2,-4,-3,-9,-3,12,5
1530606807683169,-49,-2,2,0,-4,-4,5,1
1530606807690151,9,4,2,6,9,-1,-15,-17
1530606807690151,18,8,1,-3,0,7,-8,-10
1530606807706108,40,4,-7,-7,-4,-28,-3,3
1530606807706108,-27,-21,0,-1,-2,21,17,6
1530606807708103,19,10,1,0,34,-26,5,12
1530606807708103,-27,3,0,-2,-36,6,9,1
1530606807729047,-24,-15,1,2,8,16,-14,-17
1530606807729047,3,4,-2,-1,-1,2,4,5
1530606807730044,-10,-10,-5,0,-1,-31,-17,-14
1530606807730044,4,-5,-2,1,4,10,12,9
1530606807743009,21,5,-2,0,-4,23,-5,7
1530606807743009,10,12,-1,-7,-21,3,0,-12
1530606807749991,16,-27,-5,9,29,11,5,-3
1530606807749991,-10,3,-4,-7,-1,-22,-15,5
1530606807765948,-34,2,7,5,-8,-6,4,0
1530606807765948,3,-5,-6,-3,-4,-7,2,-1
1530606807767943,27,29,2,-4,-12,9,8,5
1530606807767943,-46,-25,0,0,7,4,5,-7
1530606807788887,8,9,0,4,-1,8,15,0
1530606807788887,51,3,-4,-3,0,-9,-23,2
1530606807790881,-18,-11,-8,-10,2,-13,-11,-5
1530606807790881,34,7,-1,0,8,-10,-5,3
1530606807802849,-35,6,4,0,-19,19,18,-13
1530606807802849,-14,-25,-1,2,22,28,9,7
1530606807809830,19,14,1,-1,-20,13,-20,-1
1530606807809830,9,8,-7,-7,0,-1,8,-1
1530606807825788,-24,-12,-3,-5,-17,-16,-2,-2
1530606807825788,29,12,4,11,12,-14,9,9
1530606807827784,2,-6,0,-2,-3,-3,2,-5
1530606807827784,-24,-5,0,1,9,-3,-10,-5
1530606807848727,2,-5,-3,-3,-4,-15,4,3
1530606807848727,-24,0,-1,-5,-23,0,-1,3
1530606807850722,56,24,6,8,10,19,0,6
1530606807850722,-45,-23,-3,-1,0,-18,1,-5
1530606807862689,2,9,0,2,15,-2,-14,0
1530606807862689,-1,-9,-2,0,-6,5,-4,-8
1530606807871665,56,14,-2,-5,-3,-21,11,6
1530606807871665,6,9,-1,-4,-12,15,-13,-6
1530606807886625,-33,-9,-1,-2,18,-11,0,-2
1530606807886625,-17,-6,0,0,0,-11,10,-10
1530606807887623,-20,-6,-8,-6,-14,9,18,9
1530606807887623,8,10,5,2,7,-17,-15,11
1530606807908567,-27,-23,-2,1,17,16,0,-18
1530606807908567,18,13,2,0,-2,28,-4,-6
1530606807910561,20,3,0,-1,3,-8,1,9
1530606807910561,3,-13,-6,-5,-18,-9,11,3
1530606807922529,1,-3,1,4,6,5,-5,7
1530606807922529,-22,0,-2,-3,7,-33,1,0
1530606807931506,-31,2,2,-5,-29,7,2,-10
1530606807931506,28,10,-1,10,7,4,9,2
1530606807946465,24,-15,-5,-2,-3,7,-2,14
1530606807946465,-36,2,5,9,13,1,0,-17
1530606807947463,20,-9,0,-4,-4,0,-15,8
1530606807947463,-22,-1,-7,-5,5,-24,-3,-5
1530606807968406,26,10,-1,1,2,-17,-10,-21
1530606807968406,-11,-17,-1,-2,-18,2,-10,11
1530606807970401,29,7,-6,-7,-1,-16,2,-1
1530606807970401,-2,5,2,-1,1,33,17,0
1530606807982369,-5,1,2,1,5,-18,-5,7
1530606807982369,-15,-7,-5,-7,9,-28,-15,4
1530606807991345,-103,-11,8,10,9,9,-2,-16
1530606807991345,105,6,1,2,6,-15,-3,-13
1530606808006305,0,21,-3,-7,-20,3,16,10
1530606808006305,-16,-22,-1,1,-13,2,-4,-6
1530606808008300,3,-7,4,3,11,-9,17,12
1530606808008300,24,27,-12,-13,-28,7,-15,13
1530606808029244,-35,-25,2,5,16,16,-6,-12
1530606808029244,3,5,-3,-3,10,7,-2,-8
1530606808030241,-20,3,0,-3,-13,-6,4,-4
1530606808030241,3,-3,6,6,27,-16,-2,4
1530606808042209,27,11,-1,-2,-21,13,-7,6
1530606808042209,11,4,-8,-10,-19,-9,3,10
1530606808051185,-26,-16,-2,2,5,8,8,-7
1530606808051185,-3,4,1,2,9,-15,-17,9
1530606808066145,-31,-1,-2,-1,5,1,3,-26
1530606808066145,48,-13,-1,3,5,18,15,14
1530606808068140,10,8,-7,-7,-6,-17,-17,-7
1530606808068140,18,2,-2,-3,-4,11,0,-1
1530606808089084,-13,1,0,-3,5,23,5,10
1530606808089084,-34,-8,1,-1,-11,-25,-4,-11
1530606808090081,14,5,0,0,5,9,-4,4
1530606808090081,-53,-6,6,7,4,-5,21,0
1530606808102049,9,-7,-4,0,3,9,11,8
1530606808102049,51,5,-9,-11,-20,-11,-20,-26
1530606808111025,-13,-1,1,3,20,2,-16,0
1530606808111025,-39,0,-4,-4,1,9,16,-3
1530606808125986,26,-1,5,2,-3,-16,-21,1
1530606808125986,12,4,-2,-2,-16,5,8,16
1530606808127981,23,-9,-2,3,11,16,-2,1
1530606808127981,-36,-7,-1,-3,-5,12,0,6
1530606808148924,-14,7,0,2,24,-29,5,-5
1530606808148924,-18,-9,1,-1,-13,-4,-4,4
1530606808150919,-13,-6,1,-1,-14,9,-8,-11
1530606808150919,30,10,3,4,3,0,3,2
1530606808162886,42,23,-3,-5,-13,-9,8,9
1530606808162886,-47,-10,2,2,23,10,-7,-16
1530606808171863,-19,-6,0,-1,-4,-1,3,-16
1530606808171863,0,-5,-1,1,0,0,-7,-5
1530606808185825,1,-16,-2,-2,-9,-7,-10,9
1530606808185825,21,21,-1,1,5,-7,5,-4
1530606808187820,-21,4,5,5,1,-13,9,3
1530606808187820,-7,-23,-9,-5,0,24,-11,-7
1530606808208764,-12,5,-1,-3,-8,2,8,-6
1530606808208764,9,-2,0,0,4,25,-8,8
1530606808210759,25,2,-6,-5,-5,-29,-1,9
1530606808210759,-21,-3,7,-1,-15,-19,-13,-11
1530606808222726,-15,-8,-4,1,-6,12,17,-2
1530606808222726,7,11,2,5,22,-17,-2,11
1530606808231703,22,-48,-14,-9,-8,16,-22,11
1530606808231703,-21,17,-2,-1,-2,0,-5,-10
1530606808246663,18,26,7,4,-1,-9,2,-19
1530606808246663,-16,-16,1,1,5,1,-3,-1
1530606808247660,25,34,-1,-3,-8,2,-2,14
1530606808247660,-11,-20,-4,-4,-12,-14,3,3
1530606808268604,11,-9,-2,0,10,9,3,7
1530606808268604,-16,1,-2,-1,-10,-5,-14,-17
1530606808270599,-4,2,3,3,5,-1,6,-10
1530606808270599,26,9,-1,1,4,5,6,2
1530606808282566,-2,11,2,-1,-3,-8,-14,3
1530606808282566,4,-28,-5,-2,1,13,15,11
1530606808291543,-27,-2,-1,0,8,-31,-13,-6
1530606808291543,15,11,0,1,7,0,-1,-14
1530606808306502,12,8,0,-4,-17,1,-7,4
1530606808306502,13,12,-2,-2,2,-5,0,3
1530606808307500,-32,-4,-1,2,-12,18,19,-9
1530606808307500,18,-10,-2,-1,-1,-36,7,-1
1530606808328444,5,-7,-6,-4,2,14,-3,11
1530606808328444,0,0,-3,-2,5,12,-13,-7
1530606808330439,7,-5,3,2,11,7,-1,-9
1530606808330439,-7,15,-2,-1,-4,-4,-12,5
1530606808342406,-3,-6,0,0,-10,-13,-8,-5
1530606808342406,-11,13,2,0,1,-11,12,11
1530606808351383,17,-1,0,1,2,11,0,2
1530606808351383,-37,-30,-3,-2,-7,6,3,-2
1530606808366342,3,-1,-1,0,4,-5,1,1
1530606808366342,16,11,1,-1,1,-4,7,7
1530606808368337,4,16,2,-2,1,-7,-3,-1
1530606808368337,-1,3,1,-5,-20,23,-1,1
1530606808388284,-28,-20,-1,7,27,17,4,-4
1530606808388284,43,16,4,5,25,-27,9,-3
1530606808390279,-14,-10,-9,-11,-49,-3,-18,2
1530606808390279,1,-1,1,1,4,8,-6,-5
1530606808402246,-17,-7,-2,-6,-22,-9,-14,3
1530606808402246,-14,3,-1,3,4,10,9,-2
1530606808411222,19,-3,-1,0,11,2,10,-8
1530606808411222,-13,8,3,1,8,-3,4,6
1530606808426182,0,-26,-7,-2,7,-5,-5,-2
1530606808426182,-27,-11,-4,-4,-23,3,5,-6
1530606808428177,-14,-6,-3,-1,6,1,-1,7
1530606808428177,25,24,1,-1,-6,4,-2,5
1530606808449121,7,7,2,-3,1,-16,-13,-14
1530606808449121,16,-10,1,1,-2,9,9,3
1530606808450119,7,13,-2,-1,9,12,2,-2
1530606808450119,-10,-30,-3,2,1,19,20,5
1530606808462086,13,13,-6,-2,-3,-9,-13,-6
1530606808462086,-31,-6,-5,-7,-13,-35,-2,-1
1530606808471062,-6,2,5,4,5,0,-2,1
1530606808471062,-5,-8,-1,-1,8,-1,-3,0
1530606808486022,-10,-4,1,0,-2,12,18,7
1530606808486022,38,21,3,0,-11,6,-19,-4
1530606808492006,1,-18,-3,0,1,-9,-2,-4
1530606808492006,-10,8,-2,-2,3,-4,-1,-3
1530606808508961,3,-5,4,-1,10,-18,14,2
1530606808508961,23,7,-5,-3,-2,9,1,8
1530606808509959,-48,-9,2,1,-8,8,-1,-6
1530606808509959,25,-12,-2,0,-15,-5,5,-9
1530606808522924,-27,16,5,-2,-17,-9,-2,4
1530606808522924,15,-18,-7,-1,18,11,0,-2
1530606808531900,24,15,-5,-4,-1,-6,-17,-1
1530606808531900,-24,-10,4,5,8,-10,3,3
1530606808545862,-20,-12,-6,-1,-3,9,6,0
1530606808545862,12,10,4,3,3,14,6,-6
1530606808552843,-9,2,-4,-3,-12,-9,3,3
1530606808552843,-6,-9,-1,2,11,-11,-1,-4
1530606808568801,51,14,2,-1,0,0,-5,-2
1530606808568801,-52,-7,-9,-10,-11,-7,-24,-9
1530606808570796,22,-3,2,1,11,14,8,0
1530606808570796,-6,-2,-8,-6,-7,-9,-9,-1
1530606808591739,-39,-12,-1,-1,2,-2,5,-7
1530606808591739,35,9,1,-1,-5,-5,-13,3
1530606808592737,-23,-5,-2,-2,-7,2,10,-2
1530606808592737,9,-1,1,0,13,10,-7,3
1530606808605702,-7,-1,-1,1,3,-5,-9,-4
1530606808605702,-59,-12,-2,1,1,-2,1,-12
1530606808612683,106,26,3,2,-1,-20,5,19
1530606808612683,-17,8,-8,-11,-24,8,12,0
1530606808628641,7,-2,-1,-6,-14,5,-26,-5
1530606808628641,-3,-8,2,11,36,-8,3,3
1530606808630636,-27,1,-1,-2,-25,24,5,0
1530606808630636,-10,-4,0,3,4,-32,-15,8
1530606808651580,-18,-23,-1,1,-9,11,1,-15
1530606808651580,48,17,-2,-8,-23,0,-15,12
1530606808652577,-12,3,0,5,28,2,9,-3
1530606808652577,12,10,2,3,4,2,0,-11
1530606808665542,-20,3,-1,0,14,-3,7,6
1530606808665542,-20,-20,3,0,-22,-13,12,6
1530606808672523,40,15,0,-2,-1,10,-2,-2
1530606808672523,-7,3,0,-1,-8,1,-20,0
1530606808688481,-18,-8,-2,0,5,-5,3,2
1530606808688481,-15,2,1,2,5,12,16,4
1530606808690476,49,7,-5,-5,-9,-14,-14,-1
1530606808690476,-14,-13,-2,0,6,10,3,-9
1530606808711420,18,6,-3,-1,3,-3,-3,-5
1530606808711420,-27,-10,0,0,-1,-10,-1,-9
1530606808713414,-50,-2,5,2,-2,-18,3,1
1530606808713414,3,14,-2,-4,4,13,-1,3
1530606808725382,49,12,-2,4,-5,-6,7,17
1530606808725382,-24,2,1,-1,12,13,0,-9
1530606808734358,27,-25,-3,-4,-5,0,5,3
1530606808734358,-7,-1,-1,-1,8,-2,-10,-13
1530606808748321,-10,0,1,-4,-15,1,-30,5
1530606808748321,-14,9,-3,-2,8,-15,-12,-3
1530606808750316,27,9,-2,-1,14,5,2,5
1530606808750316,-15,-8,2,-2,-16,9,21,1
1530606808771259,0,-11,-1,3,22,-12,13,-2
1530606808771259,-2,-2,2,-3,-23,32,-4,-5
1530606808773254,-30,5,-4,-3,-2,-19,9,6
1530606808773254,17,1,-1,0,-2,-1,7,-8
1530606808785222,19,18,-2,-2,3,-7,-14,-5
1530606808785222,-16,-35,-1,1,1,-3,4,-4
1530606808792203,-18,5,-4,-3,0,19,-5,10
1530606808792203,-15,-7,-4,-2,-8,-20,12,-11
1530606808809158,9,-2,0,-1,-5,9,2,11
1530606808809158,68,20,1,0,0,-11,1,-2
1530606808810156,-24,-6,0,-1,5,10,0,-17
1530606808810156,-14,1,-1,0,3,-21,12,24
1530606808831100,-36,-16,-3,0,-2,27,-5,-6
1530606808831100,25,2,-1,1,-1,-28,5,10
1530606808833094,-4,-1,-4,-3,6,-10,-4,-6
1530606808833094,12,6,4,-2,-10,6,1,-8
1530606808845062,-43,-4,-2,7,-6,-10,8,-6
1530606808845062,39,19,-4,-2,-4,31,-8,13
1530606808854038,-51,-38,-1,-4,-3,-18,-11,-18
1530606808854038,4,3,0,2,0,35,-3,-11
1530606808868998,65,23,-1,-5,12,-3,10,7
1530606808868998,-35,-8,-1,0,0,6,-1,5
1530606808869996,-16,2,2,6,2,-10,-1,-5
1530606808869996,15,-9,-7,-8,-24,-9,-14,9
1530606808890939,-20,-6,4,1,-2,-2,-5,-2
1530606808890939,40,9,-1,1,-2,-2,3,4
1530606808892935,-4,-4,-4,-4,4,6,5,-2
1530606808892935,-3,-2,3,3,4,-34,-3,-1
1530606808904902,0,2,-1,-2,-4,11,-15,-3
1530606808904902,-24,-4,-2,0,0,-17,30,-1
1530606808913879,1,15,0,0,-3,16,-53,-6
1530606808913879,-10,-7,1,2,14,15,-11,-3
1530606808928838,62,3,-7,-7,-6,-50,7,4
1530606808928838,-29,1,10,5,-7,5,-13,-32
1530606808930833,-8,-3,-1,1,23,29,18,8
1530606808930833,5,8,0,-2,-10,-24,-6,15
1530606808951777,-26,-12,-2,-1,0,-14,13,-10
1530606808951777,2,-6,-2,3,2,31,-12,0
1530606808952775,13,6,2,-2,2,-17,7,1
1530606808952775,0,10,-1,5,5,34,-9,3
1530606808964742,-18,-12,-3,-3,2,2,11,4
1530606808964742,-38,-6,1,-2,10,-38,5,-11
1530606808973718,41,4,2,0,-23,-4,0,4
1530606808973718,22,-4,-1,-3,-6,4,-2,6
1530606808988678,19,9,-4,-4,2,11,-18,-2
1530606808988678,-32,-4,1,-2,-14,2,-7,-27
1530606808990673,6,13,2,2,10,-11,8,13
1530606808990673,2,-34,1,1,5,16,-27,1
1530606809011617,-19,-8,0,3,-7,-8,29,7
1530606809011617,4,5,-1,-5,-12,12,7,-13
1530606809012614,-1,8,1,6,6,-2,16,4
1530606809012614,16,3,-1,-2,4,-3,3,-12
1530606809024582,-8,8,1,-2,-9,32,-9,2
1530606809024582,-19,-11,-8,-5,13,-40,4,17
1530606809033558,23,-11,1,3,-17,-9,-10,-9
1530606809033558,-22,-4,2,5,19,20,-8,1
1530606809048518,23,6,-4,-4,-9,-21,12,-10
1530606809048518,59,15,-14,-14,-3,-8,-14,6
1530606809050513,-38,-8,-3,-4,-11,10,-22,-3
1530606809050513,-3,5,2,0,2,-15,10,1
1530606809071457,-29,-11,4,5,11,13,7,-11
1530606809071457,-35,-3,4,7,12,12,17,16
1530606809072454,56,-4,-3,-2,18,-1,-20,1
1530606809072454,2,7,-6,-6,-16,-18,-27,-16
1530606809085419,-1,-7,-3,-3,-24,9,7,7
1530606809085419,-16,2,2,-1,4,28,-4,-8
1530606809094395,-1,-9,-2,1,-2,-21,6,5
1530606809094395,1,1,-1,-3,2,-17,20,2
1530606809108358,9,3,1,2,2,3,-12,-1
1530606809108358,2,7,-1,-1,6,1,-6,10
1530606809110353,-41,-17,-1,-1,0,7,9,-10
1530606809110353,23,12,6,0,-16,8,3,-5
1530606809131297,11,-4,-2,3,10,-5,-6,-6
1530606809131297,-12,-17,-8,-5,0,4,18,11
1530606809134289,-11,14,1,-4,-32,-2,-12,-8
1530606809134289,14,-7,1,5,9,-8,11,6
1530606809145259,13,14,1,-1,2,-30,-10,-12
1530606809145259,-20,0,-1,-2,-14,21,-13,9
1530606809154235,15,4,-4,0,23,13,20,0
1530606809154235,-9,1,-1,-4,-2,-4,2,5
1530606809169195,-1,14,2,1,-3,-8,-8,-7
1530606809169195,29,-22,-5,-2,-1,-8,6,0
1530606809170193,-42,-5,-2,-5,-26,-14,-6,2
1530606809170193,-4,17,-4,-2,-3,7,11,4
1530606809191136,-13,5,7,7,22,-3,-8,6
1530606809191136,21,4,0,2,-16,12,-6,-11
1530606809193132,1,-15,-5,-5,0,15,-2,6
1530606809193132,-5,0,-2,2,3,1,16,-1
1530606809205099,-22,-15,1,-5,-13,-7,-28,-10
1530606809205099,6,-11,0,7,6,10,1,5
1530606809214075,23,3,-3,0,11,-2,-12,-4
1530606809214075,-1,8,2,2,11,0,13,-1
1530606809228038,-24,4,0,-4,-23,10,-4,7
1530606809228038,39,-2,3,2,13,-11,-7,8
1530606809235019,-13,-11,-6,-5,-16,8,-3,-12
1530606809235019,-33,4,-1,-6,-12,-9,2,-8
1530606809250976,10,-3,-1,1,-5,4,-12,-5
1530606809250976,-6,19,4,-1,9,-15,2,-2
1530606809252971,10,27,3,3,-1,-12,6,4
1530606809252971,0,-13,-3,-3,5,10,-8,1
1530606809264939,-6,-23,-6,-3,4,19,15,4
1530606809264939,-21,-7,-6,-3,-7,-12,3,4
1530606809273915,36,5,-3,-3,-1,-1,0,-17
1530606809273915,-38,-3,-1,2,-4,-10,-15,1
1530606809288875,75,22,-3,-3,8,-6,1,-12
1530606809288875,-22,-15,1,-4,-29,-6,16,9
1530606809290870,-56,-5,-1,3,26,-17,-30,-6
1530606809290870,8,-14,-3,0,-19,16,6,-8
1530606809310816,-15,0,-2,-1,10,4,7,5
1530606809310816,14,2,-1,0,2,-1,-9,-3
1530606809312812,21,13,3,0,-7,-7,14,5
1530606809312812,-29,-7,0,2,3,-8,6,-4
1530606809324779,12,-11,-1,-3,11,9,1,3
1530606809324779,20,15,1,-1,-8,2,-2,-5
1530606809333755,-13,-13,-9,-7,-9,-15,3,2
1530606809333755,19,12,2,2,11,-6,-12,2
1530606809348715,-46,-39,-6,-3,-2,15,14,7
1530606809348715,-8,25,4,3,17,-22,-21,-8
1530606809350710,20,-4,5,7,-14,24,10,2
1530606809350710,11,7,-3,-6,-4,-19,11,10
1530606809371654,0,-2,-5,-3,-12,2,-20,-18
1530606809371654,-6,8,-1,1,16,-6,3,-3
1530606809372652,-21,-3,4,5,8,13,19,2
1530606809372652,18,-2,-7,-3,-7,-11,-16,-7
1530606809384619,-21,13,0,-3,-4,2,2,10
1530606809384619,17,9,3,0,2,11,-7,1
1530606809393595,-1,-20,-3,-3,-17,-4,10,4
1530606809393595,16,2,-1,-1,16,3,2,-5
1530606809408555,11,-2,-2,2,0,-12,1,5
1530606809408555,-36,-9,-2,-1,10,-4,-3,-10
1530606809410550,-6,11,2,0,-5,0,-1,6
1530606809410550,-5,-22,-3,-3,-6,10,-4,-1
1530606809431494,6,10,-1,0,-3,-16,-5,-16
1530606809431494,-6,-1,1,1,3,-10,1,1
1530606809432491,-11,-19,-1,0,-5,2,2,5
1530606809432491,7,-22,-6,-1,5,15,-1,8
1530606809444459,12,44,5,1,-8,8,1,-2
1530606809444459,28,-15,3,4,-5,-17,1,-2
1530606809460417,22,11,-1,-2,9,-10,-4,4
1530606809460417,-18,1,2,-1,-4,3,8,3
1530606809468395,0,-20,-3,-3,4,8,10,14
1530606809468395,-8,-16,-6,-4,-14,-19,-12,-12
1530606809475377,-30,11,6,1,-3,20,8,-20
1530606809475377,14,13,0,0,7,1,-29,-2
1530606809491333,8,-4,2,0,2,-19,11,-4
1530606809491333,-16,-21,-4,-1,-2,13,1,6
1530606809493329,-33,7,2,0,-10,6,-18,-4
1530606809493329,46,12,-1,0,7,13,20,8
1530606809514272,1,-2,-8,-8,-12,-12,-3,-4
1530606809514272,5,-8,0,4,6,5,-8,6
1530606809515270,20,8,1,0,3,-15,-1,12
1530606809515270,-41,-8,4,2,-10,-19,0,-18
1530606809528235,-23,-4,4,0,-7,28,1,7
1530606809528235,23,19,-3,2,-1,3,3,-13
1530606809535216,4,-13,-5,-3,7,-3,-6,6
1530606809535216,0,-1,-2,-4,-6,-2,-8,3
1530606809551174,18,-2,0,-1,-1,-12,7,1
1530606809551174,-24,7,-1,-5,6,6,10,4
1530606809553169,-3,2,5,1,-13,1,1,-5
1530606809553169,15,-14,-9,-3,-8,-14,-6,-7
1530606809574112,-30,2,-2,0,6,6,-38,-6
1530606809574112,8,-10,2,1,5,4,1,3
1530606809575110,57,22,-2,1,10,16,16,4
1530606809575110,-26,12,-1,-6,-11,-9,4,1
1530606809588075,-15,-7,-3,-1,-7,11,11,-21
1530606809588075,-12,0,-4,0,7,-3,-4,5
1530606809595056,0,-9,2,4,18,-15,-7,-4
1530606809595056,-18,-15,-1,1,-21,22,3,10
1530606809611014,15,-2,-1,2,4,0,4,7
1530606809611014,0,0,-2,-4,-15,1,4,-9
1530606809613009,5,18,-5,-4,0,-7,-10,1
1530606809613009,10,-6,1,0,12,11,2,-8
1530606809633952,-16,-16,4,4,-2,-32,13,6
1530606809633952,31,5,-4,-4,3,9,-12,1
1530606809634950,-24,1,-1,-3,-19,-39,-5,0
1530606809634950,-23,0,2,3,10,40,3,1
1530606809647915,30,1,0,-2,0,8,-1,5
1530606809647915,-9,1,1,2,-6,-7,-12,-3
1530606809654896,7,-12,-1,0,4,-6,4,-1
1530606809654896,0,12,-2,-2,14,-5,-2,-6
1530606809670854,-17,-15,2,0,-6,0,14,7
1530606809670854,3,7,0,-1,-7,1,-2,-1
1530606809672849,-22,-11,-1,-5,1,-4,-8,0
1530606809672849,13,0,1,9,5,-13,16,4
1530606809693792,12,4,-2,0,7,4,-17,3
1530606809693792,2,6,-5,-8,-11,-7,15,-1
1530606809695787,-9,-29,-2,1,1,26,-29,-8
1530606809695787,-3,12,1,-1,5,-31,-6,-1
1530606809707755,3,3,0,1,-3,-15,3,-2
1530606809707755,-6,0,2,2,8,12,-4,4
1530606809714736,34,15,-3,-3,-19,2,10,-6
1530606809714736,-17,-24,-7,-4,-5,-10,-17,1
1530606809731691,14,6,3,4,-3,0,-1,-5
1530606809731691,-33,-17,-4,-7,2,18,13,7
1530606809732688,-7,7,1,4,1,-8,16,-3
1530606809732688,19,6,-2,-3,4,-1,-22,-7
1530606809753632,-8,8,-1,-3,2,-1,7,-4
1530606809753632,-16,2,3,1,-2,6,2,-4
1530606809755627,26,-26,-3,0,-6,12,2,0
1530606809755627,19,5,-4,-4,-11,-8,-2,-2
1530606809767595,-11,1,-2,-4,-1,-9,-7,-1
1530606809767595,-6,6,1,0,8,-6,4,2
1530606809776571,-34,-1,1,0,1,-20,5,4
1530606809776571,-2,-1,-1,1,-4,24,4,-5
1530606809791531,29,2,-1,0,-3,4,-1,9
1530606809791531,-21,-4,-5,0,-1,-17,4,-13
1530606809792529,-7,-2,1,2,9,-9,-21,1
1530606809792529,40,15,3,-3,-22,-4,-5,-3
1530606809813472,-28,-10,-11,-7,6,19,-3,-8
1530606809813472,15,-2,-1,-8,-10,17,13,10
1530606809815467,-25,-1,-1,1,2,-48,-9,-7
1530606809815467,9,12,2,7,15,-3,19,-2
1530606809827435,-3,-26,1,3,-2,6,-7,11
1530606809827435,26,2,-1,2,-5,-11,-22,-6
1530606809836411,-17,2,-7,-7,6,15,2,-3
1530606809836411,-23,-3,1,-4,-5,-4,-11,0
1530606809851371,21,8,-2,-1,1,-10,12,-12
1530606809851371,-6,-14,-2,-8,-18,8,2,10
1530606809853366,25,18,-2,0,-1,-5,0,2
1530606809853366,-47,-17,3,4,-1,-38,1,-6
1530606809873312,-9,4,2,2,1,31,8,6
1530606809873312,12,-6,-7,-2,19,9,-9,-8
1530606809875307,-2,4,1,-2,-21,6,10,-9
1530606809875307,5,5,1,-1,1,-11,16,7
1530606809896251,-10,-16,-3,-1,-2,-8,-30,2
1530606809896251,-8,8,-2,-2,8,12,3,-2
1530606809898246,3,-2,1,2,7,-5,-8,-8
1530606809898246,18,11,2,-2,7,28,20,-1
1530606809911211,-9,-14,-8,-8,-2,-30,-5,2
1530606809911211,23,11,4,2,-6,-14,5,16
1530606809913206,-23,0,4,3,5,22,3,-3
1530606809913206,9,-7,-6,-3,-4,12,-11,-5
1530606809934149,-22,3,-2,-1,0,-24,5,-1
1530606809934149,65,8,2,3,-9,-4,11,-1
1530606809935147,-7,-11,-7,-5,5,6,-1,13
1530606809935147,-16,-2,1,0,-3,0,-9,2
1530606809947115,7,11,1,0,-5,1,4,0
1530606809947115,-18,-8,0,1,-10,-7,-10,-15
1530606809956091,28,10,3,1,12,10,7,0
1530606809956091,-6,-14,-3,0,2,8,-8,5
1530606809971051,-2,-1,0,0,14,-14,2,-1
1530606809971051,-46,-13,-1,1,-8,20,-1,-1
1530606809973046,36,7,-3,-2,-1,8,19,4
1530606809973046,-12,-6,-2,-1,5,-11,-35,-3
1530606809993990,24,13,4,2,-29,-2,-21,-8
1530606809993990,16,-7,-4,-5,-12,-6,-5,-2
1530606809994987,-35,-12,1,5,8,12,9,4
1530606809994987,8,14,-1,-2,1,-26,20,4
1530606810007952,-43,-28,-3,-1,4,-20,-18,-16
1530606810007952,8,11,-1,0,7,2,-11,-6
1530606810016928,0,-5,-1,-2,-20,17,14,8
1530606810016928,20,4,0,-3,-2,-4,-13,-3
1530606810030891,-53,8,-2,0,4,13,7,3
1530606810030891,25,-4,3,2,-9,-9,1,2
1530606810032886,22,-3,-3,1,17,-16,-13,1
1530606810032886,-35,0,-2,-5,-3,2,12,-4
1530606810053829,14,-3,-1,1,5,29,14,0
1530606810053829,3,4,1,2,11,-13,-7,-3
1530606810055824,-22,-14,-5,-6,-7,8,3,0
1530606810055824,14,-4,-1,-2,-12,-10,-11,1
1530606810067792,-5,12,-1,-2,1,4,-1,-12
1530606810067792,-25,-6,0,-1,24,-20,5,3
1530606810076768,32,12,1,1,-29,14,-3,-8
1530606810076768,-38,-22,0,2,4,11,10,-5
1530606810091728,17,10,3,2,-1,2,15,8
1530606810091728,-25,-3,-6,-1,3,8,-11,0
1530606810092726,26,-2,-2,-4,-5,-28,-7,-9
1530606810092726,1,-4,-4,-2,5,-1,2,-10
1530606810113669,10,6,4,-1,-15,19,10,7
1530606810113669,-14,13,4,5,16,10,-3,-8
1530606810115664,-34,-25,-6,-1,14,14,7,15
1530606810115664,37,3,-5,-4,-12,-2,4,-3
1530606810127632,8,-5,-6,-4,6,-29,-7,2
1530606810127632,-16,-1,0,-5,-32,-7,8,-1
1530606810136608,-9,4,3,-2,1,13,-2,-1
1530606810136608,-4,6,3,2,15,5,2,8
1530606810151568,13,-2,-3,-1,8,4,6,3
1530606810151568,8,-8,-4,-3,-11,-6,-3,-1
1530606810152565,-5,6,-2,2,11,-8,-3,2
1530606810152565,11,2,0,2,-11,-16,-4,9
1530606810173509,-23,8,3,3,5,6,-8,-17
1530606810173509,-29,-24,-3,-1,-6,-3,1,-2
1530606810175504,34,-14,0,1,-6,-5,-5,-4
1530606810175504,-17,10,-9,-6,11,0,-2,-7
1530606810187472,62,19,12,1,-12,6,7,22
1530606810187472,-10,26,3,0,-4,-2,2,3
1530606810196448,-35,9,3,0,-5,-3,-23,-22
1530606810196448,-2,-17,-5,2,9,10,7,-3
1530606810211408,1,-22,-7,-3,0,-16,1,10
1530606810211408,-6,-18,-1,1,10,-1,-16,-1
1530606810213403,3,6,7,3,-23,-14,5,4
1530606810213403,-12,2,-2,0,13,4,1,0
1530606810233349,0,-2,-3,0,-1,6,4,-10
1530606810233349,21,10,3,-1,-13,16,14,10
1530606810235345,-16,-13,-7,-5,7,-14,-3,3
1530606810235345,25,11,3,-2,-13,-9,-16,-15
1530606810247312,-22,-6,1,2,11,4,-6,-5
1530606810247312,-11,1,-6,-5,-1,-11,-3,-1
1530606810256288,11,3,-2,0,0,0,14,-3
1530606810256288,9,0,3,0,-6,1,0,14
1530606810271248,-11,-4,-6,-6,-7,-2,-6,-9
1530606810271248,40,13,-6,-4,-10,-2,-3,-4
1530606810273243,-43,-6,-1,1,5,-3,1,1
1530606810273243,-2,-8,6,5,20,9,18,10
1530606810294187,2,24,-3,-5,-15,1,-6,3
1530606810294187,1,-17,1,2,-1,2,-19,-20
1530606810295184,-22,2,-1,-3,-2,3,0,4
1530606810295184,46,0,-8,-2,-4,-7,-8,2
1530606810307152,-8,2,2,0,-2,5,11,3
1530606810307152,-24,1,1,0,8,2,3,2
1530606810316128,19,3,4,0,8,5,-1,0
1530606810316128,-39,-11,1,-1,-8,3,-11,0
1530606810331088,72,10,-1,0,4,-2,-3,6
1530606810331088,-22,-24,-5,-2,-8,-16,5,0
1530606810333083,-10,0,0,-1,1,16,-5,0
1530606810333083,-11,14,3,1,-4,14,8,7
1530606810354026,0,-12,0,-1,1,-6,-8,-24
1530606810354026,8,0,4,3,20,-6,-2,7
1530606810355024,4,4,-1,-1,-22,-6,0,-7
1530606810355024,4,1,3,-3,7,2,5,4
1530606810366992,-10,-6,-2,-2,-18,3,-6,2
1530606810366992,-24,-15,1,2,22,1,14,-3
1530606810376966,33,1,-4,0,10,-9,-2,1
1530606810376966,28,6,-5,-6,-8,-2,-10,0
1530606810390928,-21,-1,5,5,3,-10,3,0
1530606810390928,-31,2,-2,-2,-9,15,-2,5
1530606810397909,43,15,2,-1,3,-5,7,-4
1530606810397909,-6,-18,-2,0,-1,-13,3,-11
1530606810413867,-18,6,-4,-5,1,13,-10,5
1530606810413867,-8,-16,-3,3,-7,-9,3,-5
1530606810415862,-4,6,5,0,6,-1,-8,-1
1530606810415862,11,13,2,2,-8,3,-1,9
1530606810427829,-11,-5,-5,-3,4,-6,5,-8
1530606810427829,-11,7,-1,1,-2,-5,-8,-5
1530606810436806,2,-41,-7,-1,1,3,-3,-5
1530606810436806,-19,-5,-3,-2,-7,-10,0,-2
1530606810450768,35,7,2,0,-6,11,8,11
1530606810450768,10,2,-2,-1,4,4,-5,11
1530606810457749,-30,6,0,-7,-7,-10,0,-12
1530606810457749,-6,-8,-1,7,0,22,-5,-5
1530606810473707,-46,-5,-3,-4,13,-25,-5,6
1530606810473707,38,5,-2,-3,-17,3,-21,-11
1530606810475701,6,3,-7,-6,-12,6,21,13
1530606810475701,-34,-6,0,-4,-6,-22,-17,-14
1530606810496645,-19,-7,2,6,8,12,-1,0
1530606810496645,40,6,0,1,6,-4,8,6
1530606810497643,-1,16,0,1,10,-3,-10,5
1530606810497643,13,-5,-2,-5,-6,6,-1,-14
1530606810510608,-29,-1,3,3,0,-12,5,-4
1530606810510608,21,-5,-1,-1,1,-4,2,5
1530606810517589,-3,-4,-2,-2,-4,1,-2,-2
1530606810517589,-1,15,-1,-1,3,-2,-2,-1
1530606810533546,-7,-24,-7,-3,-8,-2,-12,-2
1530606810533546,-14,8,3,-1,-11,-6,1,-13
1530606810535541,17,-2,0,5,22,7,14,11
1530606810535541,4,6,-1,-2,-12,-5,-7,3
1530606810556485,-9,-3,-1,0,14,5,11,-2
1530606810556485,8,4,-2,-1,-14,-11,-4,0
1530606810557483,-15,0,-3,0,2,8,-17,4
1530606810557483,-15,-12,2,1,2,-3,7,-1
1530606810570448,-6,10,1,2,0,-5,5,1
1530606810570448,39,-1,-3,-5,-2,-9,1,-10
1530606810577429,-7,-12,-9,-6,-6,2,-8,-1
1530606810577429,-7,7,2,-1,-6,5,8,3
1530606810593387,8,-5,-3,1,20,-7,7,4
1530606810593387,3,17,4,2,-16,0,-14,-2
1530606810595381,-43,-22,-4,-2,-5,-2,-5,-15
1530606810595381,7,2,-1,2,2,6,7,4
1530606810616325,42,-5,-6,-5,-6,4,-9,1
1530606810616325,2,15,6,1,3,-14,7,15
1530606810618320,-36,-19,0,0,3,-19,-10,-27
1530606810618320,0,-6,-2,2,3,-5,6,3
1530606810630288,13,10,4,2,-3,6,12,-3
1530606810630288,-15,-15,-7,-2,8,10,-13,11
1530606810637269,12,18,4,1,-11,-16,2,0
1530606810637269,13,-9,-5,-6,-4,9,-12,4
1530606810654224,2,2,1,-1,-13,-5,-6,-9
1530606810654224,-43,-18,-6,0,12,17,7,-1
1530606810655222,31,21,3,0,12,9,14,-3
1530606810655222,-11,-10,3,3,-1,0,-4,1
1530606810676165,15,5,-3,-3,-7,-23,-40,-10
1530606810676165,1,-6,-4,-4,-2,9,-11,-7
1530606810678160,10,8,1,0,-1,-1,8,11
1530606810678160,33,1,1,4,8,-3,9,6
1530606810691125,-37,-4,-3,-4,-8,3,-4,-10
1530606810691125,-31,4,10,6,10,-6,8,-7
1530606810697109,24,-6,-5,-6,-23,7,-6,5
1530606810697109,-5,0,1,3,11,0,3,3
1530606810714064,9,0,0,-2,0,6,7,11
1530606810714064,7,7,-2,-3,-3,-22,6,-17
1530606810715061,-8,-11,-1,-1,12,6,-14,-11
1530606810715061,-4,11,-1,-1,-23,-3,-2,-4
1530606810736005,-22,-27,-3,1,5,9,6,8
1530606810736005,15,5,-6,-6,-4,10,0,-5
1530606810738000,-25,1,3,0,-3,-18,-1,2
1530606810738000,-11,14,-4,-6,-5,8,12,-5
1530606810749968,28,-17,-5,-2,17,9,-23,1
1530606810749968,8,0,0,0,1,4,17,10
1530606810758944,-15,-10,-2,1,0,-8,-23,-9
1530606810758944,-6,-1,-2,-2,4,0,6,-8
1530606810773904,12,10,-1,-4,-12,-13,-7,3
1530606810773904,4,-2,-3,-5,0,11,-24,1
1530606810775899,-13,-2,2,4,1,9,2,6
1530606810775899,-13,-11,0,-2,4,-21,-6,-3
1530606810795845,-11,3,1,-2,-16,-4,35,0
1530606810795845,8,6,2,3,20,4,22,-3
1530606810797840,9,0,-5,-3,-13,-14,-23,11
1530606810797840,29,1,-1,-7,-19,17,-7,7
1530606810809808,-15,-12,-2,6,9,8,-9,-19
1530606810809808,15,5,-1,-3,-4,-38,-3,-6
1530606810818784,-14,-1,3,2,0,14,15,3
1530606810818784,-4,-1,0,3,10,-20,-2,-3
1530606810833744,4,-2,-2,-1,9,17,12,5
1530606810833744,20,1,-3,-3,-8,-10,8,6
1530606810835739,-10,4,0,0,-1,-9,-36,-9
1530606810835739,-31,-8,-3,-6,-3,-8,-6,-6
1530606810856682,-9,-2,4,4,3,13,12,6
1530606810856682,12,5,1,1,8,-5,0,6
1530606810857680,17,-3,1,-1,3,0,10,-4
1530606810857680,-12,-4,-5,-5,-11,13,1,4
1530606810869648,0,7,0,0,-8,-14,-11,-11
1530606810869648,5,-9,-5,-4,-3,21,8,5
1530606810878623,1,8,1,0,1,-5,6,-3
1530606810878623,-4,-8,0,3,10,1,-8,4
1530606810893584,43,23,3,1,0,4,-2,3
1530606810893584,-38,-26,-9,-5,-8,-20,-12,-9
1530606810895578,8,1,1,0,2,23,17,1
1530606810895578,-22,4,3,5,11,6,-10,-10
1530606810923504,-16,-8,-1,-3,-9,-13,-7,11
1530606810923504,-2,7,1,-3,-23,-6,-15,-10
1530606810925499,-5,2,-3,2,18,4,18,-6
1530606810925499,17,-5,-2,1,20,52,0,-1
1530606810929487,10,8,-1,-3,-18,-38,14,0
1530606810929487,-17,-1,3,2,0,3,6,12
1530606810938463,-4,-5,-2,-4,-8,-13,-27,-10
1530606810938463,9,6,-3,-2,-3,-16,-1,1
1530606810953423,2,-3,-3,0,3,6,-8,-4
1530606810953423,-3,-2,-1,0,3,22,15,8
1530606810955419,5,4,2,-1,-6,-22,14,12
1530606810955419,-10,-11,-3,-3,-4,-14,-1,-12
1530606810976363,16,6,-1,-2,3,17,7,-3
1530606810976363,-5,1,1,2,3,-4,-3,5
1530606810978357,-5,0,-2,-1,-2,9,-3,0
1530606810978357,17,6,3,1,-16,-16,-1,-8
1530606810990325,-51,-28,0,5,18,6,2,3
1530606810990325,30,17,-6,-5,-12,8,-1,-2
1530606810999301,7,-5,-4,-2,3,-1,-1,-1
1530606810999301,-10,-4,0,-4,-17,-24,14,3
1530606811014261,-15,5,4,1,12,-14,-11,-9
1530606811014261,18,2,-4,1,5,6,2,6
1530606811015259,-6,-10,-7,-6,7,7,-11,-14
1530606811015259,-2,6,0,-1,-3,-14,19,6
1530606811036202,0,0,4,0,-10,11,-27,5
1530606811036202,-1,-3,1,-2,-2,1,1,-10
1530606811038197,-6,5,1,6,3,16,26,3
1530606811038197,-10,-12,-2,-1,0,-20,-13,5
1530606811050165,40,15,-3,-3,3,14,-7,-11
1530606811050165,-19,-18,-3,-1,-11,-4,-10,-8
1530606811059141,1,0,0,-2,5,9,-6,5
1530606811059141,-14,0,0,-1,10,14,11,-1
1530606811074101,-7,3,3,2,-11,-14,5,-1
1530606811074101,-2,2,3,1,-10,-6,-14,-4
1530606811076096,26,-2,-2,0,6,-7,1,4
1530606811076096,-10,4,1,0,-6,-2,-11,-1
1530606811096042,1,-6,-3,-3,7,6,6,7
1530606811096042,9,9,4,3,-7,9,-1,4
1530606811098037,-25,-16,1,5,17,-6,-7,-16
1530606811098037,17,10,-2,-2,-16,-3,-6,7
1530606811110005,6,-14,-3,-3,-10,5,28,4
1530606811110005,-4,4,4,4,16,-12,-15,6
1530606811118981,-4,4,-7,-6,-18,-7,-12,4
1530606811118981,15,-11,-5,-2,10,-2,-2,3
1530606811133941,8,9,-2,-3,6,3,11,3
1530606811133941,-35,-10,3,-1,-14,9,5,-1
1530606811134938,2,4,1,-1,-11,-8,-2,-9
1530606811134938,9,0,2,4,15,-7,-3,-1
1530606811155882,-17,-3,-2,-3,-22,30,-6,0
1530606811155882,10,6,-1,6,33,15,6,-1
1530606811157877,-13,0,1,-3,-36,-19,-2,0
1530606811157877,2,2,3,8,7,-2,5,0
1530606811169845,3,0,-7,-4,-10,-13,1,9
1530606811169845,22,2,-7,-4,13,-4,1,-4
1530606811178821,-23,-12,4,2,-3,10,14,2
1530606811178821,-2,-3,-5,-5,-6,-8,-12,-5
1530606811192784,4,1,0,-1,-2,-4,-6,-1
1530606811192784,-24,-9,-2,-1,-1,4,-8,-11
1530606811201760,18,13,-9,-7,-11,-23,10,7
1530606811201760,28,6,-1,1,16,12,6,5
1530606811216719,-14,-5,1,0,-13,-17,-8,-12
1530606811216719,19,0,-2,-4,-6,5,9,4
1530606811217717,-4,-8,-3,0,10,12,7,10
1530606811217717,2,23,3,0,-2,2,-2,-1
1530606811229684,0,1,2,1,5,-3,-23,-15
1530606811229684,-11,-6,-2,-3,7,-17,7,-5
1530606811238661,-2,0,2,1,0,4,-5,9
1530606811238661,-7,-24,-7,-5,17,3,-1,-7
1530606811253621,3,-7,-2,1,-19,9,1,11
1530606811253621,-25,-6,-3,-6,-19,-21,-11,1
1530606811255616,9,-3,-1,-1,13,4,2,-12
1530606811255616,-8,-22,-5,-5,-8,3,0,1
1530606811276559,0,12,-3,1,14,-1,17,3
1530606811276559,6,59,23,11,11,1,-6,2
1530606811277557,1,-5,0,0,-6,1,-6,3
1530606811277557,-9,3,-3,-1,-12,-3,2,-1
1530606811289525,22,-20,-6,-2,10,-1,-11,-17
1530606811289525,25,-14,-10,-7,-14,1,17,5
1530606811298501,-8,12,3,-1,9,1,3,5
1530606811298501,-7,1,6,3,-10,-25,-2,0
1530606811313461,-26,-5,0,0,2,0,12,5
1530606811313461,-9,-26,-6,-2,8,9,-25,-15
1530606811315456,35,28,-1,0,4,1,0,-8
1530606811315456,-28,-39,-3,-5,-7,5,0,-2
1530606811336399,-29,12,0,1,24,-11,3,1
1530606811336399,34,12,1,0,-39,7,5,3
1530606811338394,33,-24,-8,-6,3,-23,-9,5
1530606811338394,27,25,2,1,-12,-13,5,0
1530606811350362,-76,-5,5,2,4,5,-9,-12
1530606811350362,90,3,4,3,25,15,6,3
1530606811359339,-22,2,-1,2,-4,4,-8,-4
1530606811359339,-72,-15,-9,-8,2,-1,-13,-2
1530606811373300,48,-3,2,-3,-17,1,-1,-5
1530606811373300,4,-9,-4,1,7,-5,1,-14
1530606811380282,-17,3,4,4,-9,0,13,10
1530606811380282,33,15,2,3,6,8,4,6
1530606811396239,-13,22,4,-2,-9,-16,-3,2
1530606811396239,2,-36,-5,-4,-3,10,-7,9
1530606811398234,-43,-13,-3,-2,2,-1,2,-18
1530606811398234,69,7,0,-1,10,-3,-2,5
1530606811419178,6,9,-6,-7,8,3,-3,-1
1530606811419178,-6,5,4,0,-42,-14,8,9
1530606811420176,-36,-8,-3,-4,-4,2,-4,-7
1530606811420176,-41,-12,-3,5,5,13,0,-4
1530606811433141,31,6,0,-1,3,-4,0,0
1530606811433141,-33,1,1,0,15,-8,4,-7
1530606811440122,-26,-4,-2,-1,-1,12,-6,10
1530606811440122,28,9,2,1,-7,0,-1,-9
1530606811456079,48,3,-6,-3,-7,-11,-18,-7
1530606811456079,-87,-11,-3,-3,3,-8,6,2
1530606811458074,47,4,6,4,-9,10,13,9
1530606811458074,45,13,-5,-7,-2,-5,-13,-3
1530606811479018,-15,-14,-2,2,3,11,14,4
1530606811479018,-32,10,-2,-2,8,2,-1,3
1530606811480016,18,-15,0,0,1,0,-5,-10
1530606811480016,-5,13,5,3,-2,10,10,7
1530606811492981,-4,-26,-5,-1,-10,-17,-4,-1
1530606811492981,5,16,-3,-5,3,-3,-17,1
1530606811499962,8,-9,1,1,3,-8,-7,1
1530606811499962,9,5,0,-2,0,-11,8,4
1530606811515919,-31,8,1,0,-6,14,2,2
1530606811515919,8,-4,1,4,34,-1,4,-3
1530606811517914,7,5,2,-2,-27,18,5,-1
1530606811517914,-24,-17,-4,-1,-11,-3,-5,-5
1530606811538858,18,-1,-5,-4,4,-5,5,9
1530606811538858,3,-1,-3,-1,-4,-13,-4,-7
1530606811540853,51,-1,1,-1,4,4,-9,0
1530606811540853,-37,-6,-3,-4,1,-6,-11,-19
1530606811552820,2,18,5,4,0,1,2,2
1530606811552820,-13,-9,-2,-5,-9,6,3,1
1530606811559802,8,14,-3,-1,3,-6,5,6
1530606811559802,-7,-8,5,3,3,24,14,9
1530606811576757,-7,-1,-3,0,0,-13,-13,-17
1530606811576757,-1,-4,0,1,-9,10,-10,12
1530606811578752,17,6,-3,-2,1,-23,-3,0
1530606811578752,-17,-14,-3,-5,-13,-17,-6,-3
1530606811598698,-9,1,0,1,3,8,5,0
1530606811598698,19,1,0,3,5,3,7,0
1530606811600693,-6,4,-1,-1,-1,0,14,6
1530606811600693,-14,-5,-3,2,9,14,-31,-8
1530606811612661,37,5,-2,-5,3,-30,-1,-11
1530606811612661,-37,-1,0,-4,-29,8,3,6
1530606811619642,31,17,3,4,3,7,-8,-7
1530606811619642,-22,-24,-3,0,-7,6,24,11
1530606811636597,-14,-9,-6,-2,9,4,-10,0
1530606811636597,12,10,2,3,0,-10,0,-5
1530606811637594,-25,-4,-3,1,6,-1,8,1
1530606811637594,18,13,3,2,4,5,0,2
1530606811658538,5,-8,-4,-1,-7,0,-4,-3
1530606811658538,-11,-10,-5,-2,3,-6,-3,-9
1530606811660533,-13,-1,-1,-1,-1,0,-2,-5
1530606811660533,-6,5,0,-1,-1,-10,-7,-7
1530606811672500,6,0,0,0,-10,2,6,16
1530606811672500,-5,0,-4,-3,10,9,-8,-8
1530606811681477,-23,-8,-1,-1,-3,-17,3,-20
1530606811681477,46,11,2,0,-6,12,15,10
1530606811696436,-18,-15,-1,1,4,20,-21,-1
1530606811696436,22,7,-3,-2,0,-21,7,-8
1530606811698432,-57,-5,-5,-5,-1,-2,-22,0
1530606811698432,7,-15,-1,-1,2,-15,5,-3
1530606811718378,-26,5,1,3,-5,2,7,4
1530606811718378,80,8,0,2,-1,6,6,10
1530606811720373,5,-3,0,-1,2,4,7,-2
1530606811720373,-60,11,3,0,1,1,3,0
1530606811732341,5,-9,-1,1,7,0,-1,4
1530606811732341,-15,-8,-1,-1,-12,-6,-8,-16
1530606811741317,-8,-1,0,-1,-4,-2,10,-4
1530606811741317,40,8,3,0,-2,-10,-32,6
1530606811756277,-19,3,1,-1,3,11,6,-4
1530606811756277,-23,-24,-5,-2,10,-24,-2,3
1530606811758271,37,7,-2,-1,-2,17,-1,4
1530606811758271,-28,1,-1,1,4,17,11,-9
1530606811779215,25,0,3,1,12,-31,-4,-6
1530606811779215,-9,-10,-6,-9,-25,11,4,-3
1530606811780213,-14,-1,0,-6,13,3,-14,6
1530606811780213,-13,6,4,13,7,-2,19,5
1530606811792180,22,-1,0,0,-1,17,-13,-10
1530606811792180,-4,11,-4,-2,15,-6,3,5
1530606811801156,-22,-22,-8,-7,-2,-4,-2,-12
1530606811801156,21,12,-2,-7,-10,6,-7,-9
1530606811816116,-16,1,4,5,-9,-10,15,10
1530606811816116,9,-10,0,1,17,12,-12,2
1530606811818111,12,13,1,3,-16,-1,-4,-6
1530606811818111,-7,-7,-7,-8,3,-9,-27,1
1530606811839055,-17,-1,0,-3,-14,2,-11,-6
1530606811839055,-3,3,2,0,-1,4,-1,-8
1530606811840053,36,2,-1,0,9,1,34,10
1530606811840053,0,-13,-4,-1,-7,-9,-10,-1
1530606811852021,10,-4,-2,0,-9,-6,21,12
1530606811852021,-27,10,5,0,2,34,-15,-5
1530606811860996,-12,-4,-1,-8,6,-30,11,-10
1530606811860996,6,-2,0,9,21,17,-6,-7
1530606811875956,11,2,0,-2,-16,-15,-5,-5
1530606811875956,-5,-1,0,3,-9,-20,1,4
1530606811877951,0,7,1,0,2,12,-7,-3
1530606811877951,8,-14,-8,-11,-8,-7,-4,-1
1530606811898895,23,1,-3,-6,11,-4,12,3
1530606811898895,-23,-9,0,1,-8,13,14,-1
1530606811900890,-24,-5,0,-1,-10,1,-21,1
1530606811900890,17,14,-1,-2,1,-7,3,-19
1530606811912858,-8,-1,0,1,2,10,-4,11
1530606811912858,-12,-3,-3,-3,-6,20,11,1
1530606811921834,1,1,1,6,20,-11,-14,7
1530606811921834,16,4,2,1,-31,-11,11,12
1530606811936794,-10,-1,-7,-7,1,9,-21,-20
1530606811936794,0,3,-1,0,9,4,2,0
1530606811937791,5,0,2,6,3,0,0,4
1530606811937791,11,14,-3,-2,4,17,17,-2
1530606811958735,-2,-20,-3,-1,-4,-44,11,2
1530606811958735,-19,1,-2,1,2,-5,-43,-13
1530606811960730,32,7,-7,-7,-31,7,6,12
1530606811960730,-17,1,3,4,32,40,-13,-6
1530606811972698,8,4,-3,-4,-22,-4,26,1
1530606811972698,-13,-6,-2,1,6,-13,5,5
1530606811981674,9,0,2,2,-2,-21,-3,-10
1530606811981674,9,3,-1,-6,-3,4,-2,6
1530606811996634,-29,0,2,3,7,19,5,-9
1530606811996634,3,-7,0,4,1,-19,-6,5
1530606811997631,14,1,1,0,6,7,-9,-2
1530606811997631,-4,0,-2,-3,-14,-26,10,-7
1530606812018575,-1,2,1,-1,0,19,-3,3
1530606812018575,10,-1,0,0,2,-14,5,-2
1530606812020570,4,4,-2,-1,-6,7,-10,-3
1530606812020570,-32,-19,-4,-2,6,14,4,7
1530606812032538,1,3,0,0,-6,-15,-5,1
1530606812032538,27,11,0,-2,6,-8,10,-3
1530606812041514,-15,-17,1,-3,-15,17,-5,-4
1530606812041514,-1,-1,0,0,-4,-11,-5,-5
1530606812056474,20,5,0,0,14,15,0,7
1530606812056474,-15,-7,0,0,6,10,29,0
1530606812057471,-24,2,-2,3,1,-10,-10,-3
1530606812057471,26,4,-3,-1,-19,-17,-1,-7
1530606812078415,-19,-11,-5,-7,-12,-10,-2,-1
1530606812078415,-1,-5,-4,0,8,-1,-5,-1
1530606812080410,20,5,3,2,2,-20,14,4
1530606812080410,-10,-7,-5,-3,4,53,-3,-1
1530606812092378,32,15,0,-1,2,-7,-3,0
1530606812092378,-28,-3,-1,0,-13,1,14,-3
1530606812101354,-17,-8,-3,-1,-2,-11,-26,5
1530606812101354,36,7,1,0,7,-16,-4,1
1530606812116314,14,7,-2,6,10,5,-3,1
1530606812116314,-12,-12,-1,-4,-12,4,-14,6
1530606812118308,-8,5,-6,-7,-1,0,11,-4
1530606812118308,-31,0,4,3,4,-6,-7,-21
1530606812139252,10,-4,-2,-3,2,-3,-3,-5
1530606812139252,-10,4,4,2,-4,-8,7,5
1530606812140250,18,-11,-3,-2,-5,13,6,9
1530606812140250,0,4,1,0,12,-17,1,1
1530606812152218,-25,-1,2,1,3,2,-2,-2
1530606812152218,41,9,0,0,-4,0,-8,-5
1530606812161194,-31,-5,-2,-2,-1,-16,-2,-4
1530606812161194,0,-8,-2,1,-2,-5,-13,-2
1530606812176154,-2,-6,-2,-4,-1,2,-3,-2
1530606812176154,8,15,-1,-2,0,10,13,-2
1530606812178149,-14,-14,1,0,0,-21,-2,0
1530606812178149,19,-6,-4,-2,-15,-14,7,6
1530606812199092,-11,4,0,-1,17,26,2,4
1530606812199092,14,10,7,3,-27,-30,-13,2
1530606812200090,11,5,0,4,21,16,1,-10
1530606812200090,-63,-29,-3,-1,-7,-17,3,3
1530606812212058,18,-3,-3,2,3,-7,-2,-5
1530606812212058,-6,-5,0,-4,4,-7,9,-5
1530606812221033,41,17,-1,-1,7,14,14,12
1530606812221033,-5,-6,0,1,-13,-9,-31,-12
1530606812235993,-3,-3,-2,-5,-2,13,8,5
1530606812235993,-1,-12,-2,3,8,-1,-14,1
1530606812237988,-20,4,2,1,1,0,0,-8
1530606812237988,15,5,-2,-1,7,-1,9,6
1530606812258932,-32,3,-1,-3,-7,-7,-15,-2
1530606812258932,-31,-5,-2,-3,-7,-8,10,6
1530606812260927,60,-5,-2,-5,-4,3,3,4
1530606812260927,13,15,2,-4,-6,-4,11,-7
1530606812272895,-13,0,7,7,8,4,-4,-3
1530606812272895,-7,4,-5,-1,-1,12,-6,0
1530606812281871,27,8,3,4,-1,-16,-4,5
1530606812281871,-4,6,-4,-4,1,-4,6,-3
1530606812295833,-4,-25,-4,-4,0,-8,6,1
1530606812295833,-24,0,2,-2,-12,25,-2,-7
1530606812302815,-6,-6,-3,-1,0,-3,-18,-16
1530606812302815,4,4,0,2,11,8,-3,16
1530606812318772,-1,5,-2,0,7,-14,1,2
1530606812318772,35,1,-4,-6,-14,7,5,6
1530606812320767,-15,-4,2,-1,-7,10,6,-4
1530606812320767,-17,1,2,3,0,-17,16,4
1530606812332735,-8,-2,-3,-1,-5,18,-15,-4
1530606812332735,-13,-7,-2,2,20,-3,-15,-15
1530606812341711,22,7,-2,-1,-9,-5,3,4
1530606812341711,-6,-13,-4,-4,-1,11,-3,-6
1530606812355673,-9,5,2,3,1,-4,-4,-4
1530606812355673,31,8,-3,-4,-10,-43,-3,2
1530606812362655,-48,-24,-5,-4,0,30,-8,1
1530606812362655,14,4,1,-1,-1,10,11,-1
1530606812378612,-27,-6,1,2,-7,-17,-8,-5
1530606812378612,45,1,-4,-2,2,1,2,-14
1530606812380607,-14,2,-1,1,4,-4,1,-1
1530606812380607,-17,-11,-1,-1,-6,-2,-6,-2
1530606812401551,43,28,5,2,-8,-16,0,-1
1530606812401551,-23,5,0,-3,3,7,7,0
1530606812402549,-3,1,-5,-2,4,3,-15,-19
1530606812402549,12,-11,-2,0,0,8,-16,6
1530606812415513,-19,0,-1,-1,9,16,3,6
1530606812415513,4,-11,-2,-1,-13,-22,20,17
1530606812430473,2,4,2,2,1,-1,0,3
1530606812430473,-3,14,0,-2,-1,-3,-4,-5
1530606812438452,-2,-6,-3,-2,-3,-14,-4,-7
1530606812438452,-19,3,-2,2,20,16,-12,0
1530606812440447,21,-14,-2,-3,-17,-1,6,8
1530606812440447,15,6,-1,-2,-5,-2,-1,5
1530606812461391,-17,-13,-5,-4,3,3,9,2
1530606812461391,0,2,5,3,-2,8,-10,-10
1530606812463386,-14,2,-3,-2,1,-8,-6,-4
1530606812463386,25,-6,0,-2,-7,-6,7,-3
1530606812475353,1,12,-6,0,-4,2,4,1
1530606812475353,-4,0,2,0,6,-2,0,6
1530606812482335,-43,-3,1,1,8,14,13,0
1530606812482335,34,3,-3,-3,-2,-4,-15,6
1530606812499290,19,0,2,1,-6,1,2,-6
1530606812499290,2,-16,-4,-2,-4,-3,-11,-4
1530606812500287,-26,-6,-1,0,17,-5,16,5
1530606812500287,9,4,2,1,-10,3,-19,-11
1530606812521231,14,17,-1,-3,-2,9,-1,7
1530606812521231,-7,0,-2,-2,5,-12,6,6
1530606812523226,-7,-10,-3,-3,-10,-4,3,0
1530606812523226,-17,-5,-3,-2,5,-7,-4,-17
1530606812535193,8,-5,2,0,-3,-1,-3,1
1530606812535193,20,7,3,2,8,5,-1,4
1530606812542175,-16,-4,-1,-3,-21,-12,-5,-10
1530606812542175,-28,-7,-3,-2,11,2,16,7
1530606812559130,11,-2,-2,-2,-13,13,-4,1
1530606812559130,0,8,0,1,1,-7,-13,-9
1530606812560127,-19,-17,-2,3,6,-6,-4,1
1530606812560127,0,3,1,3,1,2,8,5
1530606812581071,-4,-13,1,0,5,8,7,3
1530606812581071,-13,1,-4,-3,-4,-27,4,0
1530606812583066,35,14,2,0,-1,10,-8,-1
1530606812583066,18,6,-3,-1,-6,3,-2,8
1530606812596030,4,-11,-3,-6,6,4,16,-3
1530606812596030,-22,-13,-1,-3,-20,-4,4,-9
1530606812602015,-19,9,5,4,12,-8,-20,1
1530606812602015,9,-1,0,-2,-3,11,8,12
1530606812618969,-4,3,-2,1,7,-3,-5,-4
1530606812618969,10,-4,-2,-1,-3,6,-2,0
1530606812620964,11,-2,-3,-3,-7,-3,0,-8
1530606812620964,-19,11,4,2,1,-5,1,2
