timestamp,emg1,emg2,emg3,emg4,emg5,emg6,emg7,emg8
1576748134143099,0,-5,0,-4,-5,4,1,-8
1576748134143099,0,-2,-2,-1,-5,-2,4,-2
1576748134144098,-9,-1,0,1,-2,-7,-7,-9
1576748134144098,0,2,3,1,1,-2,-3,3
1576748134145090,2,1,2,-3,-1,2,-2,10
1576748134145090,-4,-4,-3,-1,2,-2,-3,6
1576748134147180,3,-4,-1,-4,3,6,0,6
1576748134147180,1,0,0,-3,3,6,1,-3
1576748134156096,4,-1,0,1,3,5,3,12
1576748134156096,6,1,-4,3,-6,2,-2,0
1576748134163049,-2,3,-6,4,-8,-9,-4,-5
1576748134163049,-4,-2,-2,0,0,-7,0,-4
1576748134171028,-1,-2,0,0,4,-8,1,-2
1576748134171028,1,-4,0,-2,5,-4,-3,-2
1576748134185033,-5,1,0,1,4,0,4,3
1576748134185033,0,-1,0,-3,-2,9,-1,-3
1576748134195959,0,-2,-1,2,-8,4,-1,2
1576748134195959,2,-5,-3,1,-2,-2,-6,-8
1576748134207932,2,-1,0,1,-7,-3,2,3
1576748134207932,-3,6,1,-1,-2,8,4,-1
1576748134215915,-7,2,0,-1,1,1,0,-6
1576748134215915,2,3,1,-4,-2,2,-9,11
1576748134229885,3,-5,-2,-8,-2,0,4,-6
1576748134229885,0,-4,-2,-4,2,-7,4,-4
1576748134270811,-1,3,-2,1,-2,-4,-5,-1
1576748134270811,-6,-5,-1,-4,-4,-7,-8,-7
1576748134271760,-2,-4,0,-1,-2,-5,-7,-4
1576748134271760,4,0,-2,0,-2,-2,-2,2
1576748134271760,5,-1,0,0,-4,-3,-2,-2
1576748134271760,7,2,-1,6,2,4,2,-2
1576748134274788,-2,2,-1,2,-3,4,2,-5
1576748134274788,-5,-2,-4,-3,-1,-3,0,5
1576748134281827,2,-1,-2,-5,8,5,-2,-7
1576748134281827,-4,0,0,-4,2,5,-1,-3
1576748134289709,-5,-3,2,2,8,0,4,4
1576748134289709,6,2,-1,-2,-3,3,4,17
1576748134296789,-2,-3,1,0,-4,2,3,4
1576748134296789,-4,-2,1,-1,-4,-2,2,-1
1576748134312681,-2,-4,-1,-5,1,-4,-5,-6
1576748134312681,-3,2,-2,2,-1,-6,-4,-9
1576748134319725,-3,3,-5,5,-1,0,-1,-1
1576748134319725,-3,2,-1,1,-1,-4,-1,-8
1576748134343670,2,5,1,-1,1,-2,4,5
1576748134343670,-3,-4,-2,-1,3,-8,-6,-13
1576748134344569,-7,-1,-3,2,-8,-5,-1,-9
1576748134344569,2,1,-3,3,-8,0,-1,4
1576748134357624,2,-5,-1,-1,-1,3,0,1
1576748134357624,0,-9,-2,-1,1,-6,-5,-7
1576748134364605,-1,-4,-2,0,6,-2,1,1
1576748134364605,-3,-4,-1,-6,5,2,3,-5
1576748134380563,-3,-2,0,-4,0,7,0,1
1576748134380563,3,-2,4,0,-9,3,2,4
1576748134382510,2,2,-2,-2,-7,-2,1,3
1576748134382510,-7,-6,-4,-4,-8,-9,-2,0
1576748134403503,-6,-3,-5,-2,-7,-8,-5,-8
1576748134403503,-3,2,-3,-2,2,-1,-1,2
1576748134404453,2,3,2,0,0,0,0,-5
1576748134404453,5,1,3,2,6,7,2,-2
1576748134417465,0,2,2,4,-2,5,-2,-5
1576748134417465,-4,3,-1,-1,2,6,-3,2
1576748134424390,0,2,0,1,-1,3,-4,1
1576748134424390,2,1,1,1,0,-2,0,1
1576748134441301,2,-12,-3,-1,0,0,1,-3
1576748134441301,6,-2,-3,-1,1,-2,0,-1
1576748134442306,-3,0,-3,-1,1,-8,4,-3
1576748134442306,-2,0,0,2,0,-6,-1,-5
1576748134463295,-1,4,-2,3,0,-6,-1,1
1576748134463295,-1,0,0,0,-1,0,2,-2
1576748134465272,-4,-1,0,-3,-1,2,1,0
1576748134465272,-2,-1,1,-3,-7,-2,-4,3
1576748134478203,-2,0,2,-4,-2,4,-4,-4
1576748134478203,1,5,1,-6,-2,-1,-1,-16
1576748134484285,1,0,0,-1,-2,-4,3,13
1576748134484285,4,0,-1,4,1,-1,0,2
1576748134501191,3,3,-4,-1,3,3,-3,0
1576748134501191,4,0,0,5,1,7,1,11
1576748134502139,1,-5,0,1,3,0,0,1
1576748134502139,-5,-1,-4,-1,-5,-1,-3,-9
1576748134523088,-4,-5,0,-1,-5,0,-7,2
1576748134523088,1,2,1,0,4,1,-7,-5
1576748134525083,-1,0,-1,-2,-4,-5,-16,-27
1576748134525083,-3,-1,3,3,4,-6,1,4
1576748134538087,0,4,-1,-2,3,-4,5,-4
1576748134538087,4,2,-3,-2,8,-1,-1,7
1576748134544126,-7,-3,-2,-3,-3,-1,-1,-6
1576748134544126,-9,0,-2,-8,-1,-4,-10,-20
1576748134561080,-5,0,-1,0,-4,-4,-2,-26
1576748134561080,-8,-5,-3,1,-13,-7,2,-9
1576748134561988,11,-2,-2,3,-4,-4,0,7
1576748134561988,2,-9,-4,-4,-2,-7,-11,-3
1576748134583016,-2,2,3,-1,5,-5,0,5
1576748134583016,-7,-3,-3,-2,1,-5,-3,-1
1576748134584953,1,3,-6,0,1,1,-4,-6
1576748134584953,-2,-2,-3,-3,-2,3,2,-9
1576748134597935,0,2,1,3,-2,2,1,3
1576748134597935,0,3,2,1,-1,-3,5,0
1576748134604908,-1,-2,1,-5,1,0,11,22
1576748134604908,-3,5,3,3,-5,0,7,3
1576748134620919,4,-3,-1,3,-3,-4,-9,1
1576748134620919,0,-2,0,2,-4,2,-3,-7
1576748134622816,-1,0,-1,-1,3,0,-8,8
1576748134622816,8,4,3,-1,14,15,1,24
1576748134643758,-8,1,-2,-2,4,5,0,3
1576748134643758,-8,-5,-4,1,0,0,-5,-9
1576748134644763,0,-4,1,-2,0,5,-7,0
1576748134644763,2,3,0,0,-2,-2,2,4
1576748134656766,1,-3,-2,-3,-7,-7,2,1
1576748134656766,6,0,1,-1,-1,-4,2,8
1576748134665700,6,1,-1,2,0,-1,7,-4
1576748134665700,2,-4,-2,3,0,-3,-4,-2
1576748134680662,-1,0,-1,-4,1,-11,-2,3
1576748134680662,-8,5,0,1,-4,-3,5,2
1576748134682664,-1,-2,0,-2,-1,0,8,-3
1576748134682664,3,0,-2,-6,-1,1,3,2
1576748134703600,1,-2,-3,-1,0,-2,-2,2
1576748134703600,2,-4,-3,-1,-1,5,-5,7
1576748134704606,-5,3,2,-4,-5,-2,-6,-6
1576748134704606,-3,0,0,-1,-4,-1,-2,2
1576748134716606,-7,0,-1,-2,-3,1,0,-1
1576748134716606,-1,2,-2,-6,-7,-1,-3,-10
1576748134725543,-5,3,0,5,-3,5,-11,-1
1576748134725543,-1,-2,-4,1,3,2,1,-9
1576748134740504,4,-3,-3,1,1,-2,4,0
1576748134740504,-4,-3,-3,0,0,-7,2,-5
1576748134742503,-5,-2,0,0,1,-8,-8,-17
1576748134742503,3,-3,0,1,-6,-9,3,5
1576748134763438,4,4,-1,1,-4,-2,-2,-21
1576748134763438,8,-1,2,-2,7,4,-1,-1
1576748134764437,3,-3,-1,0,1,3,1,-7
1576748134764437,3,3,2,0,1,7,-7,6
1576748134777401,-3,-2,-2,-5,0,-1,1,-5
1576748134777401,-1,0,-4,-5,1,-6,-3,7
1576748134785447,-2,-2,-1,-2,-3,-1,1,9
1576748134785447,-3,-2,-3,-2,-6,-7,0,-6
1576748134800373,5,-1,0,3,-4,2,-1,5
1576748134800373,-3,2,-1,0,-1,2,-5,1
1576748134802332,-1,-1,-1,2,7,1,4,14
1576748134802332,-4,-3,-4,2,0,4,2,6
1576748134823279,-5,-2,0,-3,-1,3,-3,2
1576748134823279,-2,0,5,-1,1,12,4,1
1576748134825272,-2,-1,0,-6,-6,0,3,-7
1576748134825272,-3,0,0,-3,3,2,1,-6
1576748134837276,-3,1,2,1,-1,1,0,4
1576748134837276,5,-1,-3,-2,-2,-8,-6,0
1576748134846215,4,-3,-2,1,0,0,-1,7
1576748134846215,-5,-3,-4,-2,3,-7,-1,-5
1576748134861225,6,1,-4,-1,0,-5,-2,11
1576748134861225,0,2,1,1,0,-8,2,1
1576748134862177,-6,-5,-1,0,2,-2,4,-4
1576748134862177,4,-4,1,0,-1,-4,0,-1
1576748134883162,-5,-4,1,-3,3,2,-6,-10
1576748134883162,-2,-4,-2,-2,-2,-7,-7,0
1576748134885116,-5,0,-2,0,0,-8,-3,-5
1576748134885116,-2,2,-2,2,-1,5,-3,-4
1576748134897115,-1,0,-4,-1,-7,1,6,-5
1576748134897115,5,-1,-2,0,-3,5,5,-3
1576748134906057,-2,0,-3,-3,-8,-5,4,4
1576748134906057,-1,-2,-2,-3,-4,-10,4,0
1576748134921067,4,-5,2,0,6,-1,0,2
1576748134921067,3,-4,-2,0,1,2,5,4
1576748134922013,5,-3,-3,1,-3,4,-5,2
1576748134922013,0,3,-1,1,-2,2,1,-6
1576748134943004,-4,2,-2,0,-1,0,0,7
1576748134943004,-3,1,-2,-3,4,4,0,0
1576748134944956,3,4,-4,-1,-7,-4,1,4
1576748134944956,-3,0,-2,-3,-4,-4,-5,0
1576748134956951,1,0,-3,-2,-4,0,-2,-4
1576748134956951,2,-1,4,2,-1,-2,2,18
1576748134965898,-4,-1,5,0,7,-4,-6,0
1576748134965898,-7,1,3,4,10,-9,0,4
1576748134980900,1,5,0,-1,3,-2,1,3
1576748134980900,1,3,-4,-1,-5,-2,1,-1
1576748134981859,3,-1,-2,1,-6,8,3,-4
1576748134981859,0,-3,-3,-5,-2,7,3,2
1576748135002799,-3,-3,-2,-3,-5,4,0,22
1576748135002799,-1,-4,0,-2,-2,-1,0,-2
1576748135004795,2,-1,-2,-9,7,-4,0,6
1576748135004795,-8,-5,-3,-5,-4,-1,-8,-8
1576748135016759,7,2,2,1,-4,2,-4,3
1576748135016759,-1,-4,-2,4,3,2,-5,-10
1576748135025740,1,-1,-2,1,1,-3,-3,11
1576748135025740,2,2,1,-3,-2,-1,0,-2
1576748135040730,2,-3,-1,-2,-2,-8,-1,-10
1576748135040730,-6,2,1,4,-1,-8,-4,-6
1576748135042724,-6,2,0,5,1,3,-4,-9
1576748135042724,3,1,1,3,-1,4,-4,4
1576748135062673,3,2,-2,1,3,-5,3,8
1576748135062673,-2,-2,0,2,-1,1,0,-6
1576748135063638,8,2,1,-6,1,4,9,12
1576748135063638,-5,-6,-2,-4,-2,1,2,-3
1576748135084583,-4,-3,1,-3,-2,1,2,-4
1576748135084583,-2,-6,-2,-6,-3,-4,3,-2
1576748135085578,0,1,-1,-1,-1,-7,-1,-7
1576748135085578,-2,2,2,2,-3,-3,-1,6
1576748135099572,-3,-3,-1,1,-3,-3,-4,-7
1576748135099572,-8,-1,-1,2,-3,0,-7,0
1576748135100538,-1,0,0,2,-6,10,-4,0
1576748135100538,5,1,0,2,2,6,3,1
1576748135122478,1,2,-2,1,4,-1,-2,-2
1576748135122478,-5,0,-2,-3,3,-7,-4,-3
1576748135123474,3,0,-2,-4,3,-6,-9,-7
1576748135123474,7,0,-3,-3,1,-1,-2,0
1576748135145415,2,-2,2,-3,0,5,0,12
1576748135145415,1,1,-1,2,1,3,-4,-1
1576748135145415,-5,2,0,8,3,-2,5,4
1576748135145415,-9,-3,-3,-4,0,-9,-5,-15
1576748135160381,4,1,1,-3,-8,2,-1,-9
1576748135160381,-2,-6,-5,-7,0,1,2,-6
1576748135160381,-5,-7,0,-1,-7,-2,3,-5
1576748135160381,0,-1,1,0,-2,-1,-1,-2
1576748135182316,-1,-6,-6,-2,-2,-2,1,-11
1576748135182316,3,-4,0,-1,-8,-11,-1,21
1576748135183315,-3,-3,0,-5,1,-4,0,-9
1576748135183315,2,2,0,1,-1,2,3,11
1576748135205258,3,-1,-3,-1,2,0,0,-4
1576748135205258,4,5,1,1,4,13,1,-2
1576748135206262,-2,3,-2,0,0,2,2,2
1576748135206262,-1,-1,-1,1,-2,2,-2,6
1576748135220220,-8,-2,-4,0,-3,-5,-5,-6
1576748135220220,4,0,0,0,-4,-7,-1,-6
1576748135221213,2,0,4,2,-4,-4,-3,2
1576748135221213,0,1,-1,-1,4,3,-6,-6
1576748135250136,-4,-2,-1,-1,4,2,-1,6
1576748135250136,-10,1,-2,-2,-5,2,-1,-4
1576748135251133,-7,-4,-2,-5,-2,-1,2,-6
1576748135251133,0,-3,-4,-4,3,0,0,-3
1576748135265095,1,1,1,4,3,0,0,-3
1576748135265095,-2,-1,0,-3,2,0,-2,0
1576748135266093,-3,-5,-3,2,-3,0,-3,-8
1576748135266093,-2,-1,0,1,-1,-2,-1,-5
1576748135287040,-2,0,2,2,-1,-4,1,-4
1576748135287040,-4,-2,-2,2,-5,-9,-2,-12
1576748135288035,0,1,-1,-1,-8,-5,-4,-6
1576748135288035,3,-1,-2,-3,-5,-3,1,4
1576748135309974,0,-1,1,-6,1,-5,-2,-6
1576748135309974,4,2,-2,1,-3,0,-2,22
1576748135310972,2,-1,-2,3,2,-8,-1,3
1576748135310972,-3,-2,-1,1,-2,-3,1,-2
1576748135324934,-4,2,2,1,-4,4,-6,-14
1576748135324934,7,3,2,-2,0,8,-2,-6
1576748135325931,3,0,-2,-6,2,3,-1,-2
1576748135325931,1,1,-1,-4,1,-2,-2,0
1576748135347873,-5,-4,-4,0,1,-3,0,-2
1576748135347873,-6,-7,-1,2,5,0,4,-2
1576748135347873,-3,-1,1,0,5,1,2,6
1576748135347873,3,0,-3,1,1,0,0,6
1576748135369814,-5,1,-4,0,1,1,0,-5
1576748135369814,2,4,0,1,-4,-4,-5,-6
1576748135370812,1,2,0,-5,-8,0,2,-2
1576748135370812,-1,-1,1,0,2,3,1,-9
1576748135384774,2,1,-2,-5,-3,5,2,5
1576748135384774,-1,-3,0,-1,-1,6,0,1
1576748135385772,6,-1,0,2,1,2,-3,1
1576748135385772,3,-1,1,-2,-6,-6,-2,-3
1576748135407714,2,0,3,3,4,-10,0,8
1576748135407714,0,3,-1,1,4,-8,-2,-3
1576748135407714,-4,-1,-4,-4,-3,-3,-4,-1
1576748135407714,-4,2,-2,3,-6,0,-2,0
1576748135429656,4,2,2,2,-3,2,4,15
1576748135429656,0,-2,-3,-1,-3,-6,7,-2
1576748135430655,-4,-4,-2,-1,3,5,3,-1
1576748135430655,-7,-7,1,-4,4,9,2,3
1576748135444625,-8,-4,1,0,1,4,-6,-9
1576748135444625,-1,-2,0,-3,3,1,-5,-10
1576748135445620,9,3,0,0,-2,-1,-7,-1
1576748135445620,2,1,-1,-3,-4,-7,-1,1
1576748135467588,1,1,-2,-1,0,-10,4,5
1576748135467588,-5,3,1,0,-7,-3,2,4
1576748135468558,-7,-10,0,-1,-4,0,-2,0
1576748135468558,-8,0,-2,-1,0,-1,1,-7
1576748135490493,-8,3,-2,-2,-2,4,1,-3
1576748135490493,-1,3,-4,-2,1,-5,4,-4
1576748135490493,-1,6,-1,1,3,-1,-2,-2
1576748135490493,-1,-4,-2,4,-2,0,-4,-7
1576748135505453,5,-5,-2,1,-3,-1,-1,3
1576748135505453,2,-5,1,3,-1,4,-1,3
1576748135505453,-2,-6,-3,-3,-7,5,0,-3
1576748135505453,2,-4,-1,-2,-2,1,0,-13
1576748135527437,0,3,-2,3,6,4,1,2
1576748135527437,-2,0,0,-2,-3,-3,-2,0
1576748135528395,-3,4,-2,-2,1,-7,-1,-1
1576748135528395,2,2,-1,-1,7,-1,-2,14
1576748135550379,-7,-5,-2,1,5,-1,-7,-8
1576748135550379,0,-4,1,0,6,1,-4,-4
1576748135550379,-6,-5,-2,-6,-1,2,-1,-7
1576748135550379,7,-2,3,0,-8,6,9,0
1576748135565364,4,-10,-2,-2,-7,-4,-5,2
1576748135565364,-1,2,-4,-3,-3,-6,2,5
1576748135566292,-1,0,-1,2,-2,-4,-3,-3
1576748135566292,-1,1,-2,-3,-4,0,1,5
1576748135587308,-1,2,1,0,-4,-1,-3,-2
1576748135587308,-3,0,-3,0,-2,-1,-3,-7
1576748135588232,-9,1,0,0,5,-3,-2,2
1576748135588232,-1,3,2,-1,6,1,-2,19
1576748135610206,4,3,0,-1,-1,0,-8,7
1576748135610206,-4,-7,2,1,-1,0,-2,-8
1576748135611173,0,0,-2,3,-4,-5,4,-8
1576748135611173,2,-3,-6,-1,-4,-5,6,-7
1576748135625177,7,5,-2,-1,-1,-1,4,0
1576748135625177,2,1,-1,-2,2,7,0,-2
1576748135626134,1,-2,0,-1,6,9,1,4
1576748135626134,-3,-2,0,0,3,2,-7,-9
1576748135647076,-8,-4,-6,-4,-6,-1,-2,-1
1576748135647076,-1,0,-2,-4,-2,1,-2,-4
1576748135648073,4,0,1,-2,-2,6,3,29
1576748135648073,-3,2,3,3,5,-4,-8,-4
1576748135670012,-1,-4,-2,-2,3,1,-2,-11
1576748135670012,-1,0,1,-1,-4,-3,-2,3
1576748135671015,-5,-2,0,-1,-4,-1,0,-11
1576748135671015,6,-1,-3,-4,-7,-5,-1,-3
1576748135684978,2,-1,-2,-2,-5,-7,4,4
1576748135684978,-4,1,-6,-4,-4,6,-2,-9
1576748135685976,0,2,1,5,-1,3,2,-2
1576748135685976,-8,-4,-2,-1,1,-7,2,-4
1576748135707924,-5,3,2,6,6,0,2,-3
1576748135707924,11,-2,4,6,3,-6,4,7
1576748135707924,6,-2,-2,0,-2,-10,-4,-10
1576748135707924,0,0,-1,2,1,-2,1,1
1576748135729886,4,3,-1,-5,-3,-5,-4,4
1576748135729886,-7,0,-6,-7,-2,-4,-5,0
1576748135730854,4,1,0,-3,1,4,0,6
1576748135730854,6,-4,3,-3,-2,8,1,-5
1576748135752834,3,0,-3,3,-5,2,2,-3
1576748135752834,0,3,3,5,3,7,-7,6
1576748135753795,0,0,0,-1,4,-1,5,11
1576748135753795,-5,-2,-3,-3,-2,0,-3,-3
1576748135767796,-3,-2,-3,-4,-12,-5,-1,-4
1576748135767796,0,-3,-1,0,-5,-3,-2,1
1576748135768749,-1,-1,-3,-2,0,-9,-2,-8
1576748135768749,-7,-2,-1,0,6,-4,-2,-13
1576748135789735,1,-3,-2,-3,1,-3,6,1
1576748135789735,3,-1,4,1,-3,-1,11,1
1576748135790692,0,-2,-1,-1,-2,8,0,-2
1576748135790692,2,4,-2,0,0,5,-7,0
1576748135804701,-1,7,3,-2,5,7,-9,-6
1576748135804701,-1,1,2,0,2,2,-3,-1
1576748135805654,4,-6,2,2,2,2,0,0
1576748135805654,-4,-2,-1,-2,-5,-14,2,-1
1576748135827592,-4,-2,2,2,3,-5,6,1
1576748135827592,-1,1,-3,2,-1,3,3,-8
1576748135828636,1,2,-2,2,-4,-1,-3,1
1576748135828636,3,-1,-1,0,-3,-2,-4,0
1576748135850576,-4,-7,-1,-2,-1,-8,-3,3
1576748135850576,-4,-2,-1,-6,2,0,3,4
1576748135850576,-3,2,2,-4,-4,4,-1,-10
1576748135850576,-4,1,1,0,2,2,-3,3
1576748135865534,1,0,0,1,-1,0,-1,0
1576748135865534,4,-1,2,3,3,7,-4,1
1576748135865534,-6,-1,-1,-4,-5,2,-2,-9
1576748135865534,-8,0,-3,0,-3,1,5,6
1576748135887536,-7,3,-4,4,2,1,6,5
1576748135887536,-1,1,-4,-6,1,-9,2,-2
1576748135888430,0,-1,4,-2,-1,-4,-2,4
1576748135888430,-1,-1,0,-3,-2,-2,-1,-1
1576748135910489,-2,-6,0,2,-4,5,-4,8
1576748135910489,2,-1,-5,3,-5,-1,-5,10
1576748135910489,-2,-2,-3,-3,5,-5,-2,-1
1576748135910489,11,1,1,-2,-1,-7,-2,3
1576748135924438,1,1,0,-2,-4,-2,-3,-4
1576748135924438,-8,-4,-1,0,-6,0,-1,-6
1576748135932417,-9,-2,-1,-3,-7,1,2,-3
1576748135932417,-5,-1,-3,1,4,0,2,-1
1576748135947305,-3,-3,-2,-3,-4,4,1,-7
1576748135947305,-5,-2,-1,-2,-5,-3,-4,-10
1576748135948304,-4,3,-3,-1,-2,-2,-9,-10
1576748135948304,-2,3,-1,-2,6,-1,-4,9
1576748135970316,-2,-1,-1,-3,4,-7,-1,1
1576748135970316,-2,-8,-6,-4,5,-1,1,2
1576748135971248,6,-1,-1,0,0,-5,7,1
1576748135971248,11,0,0,1,-6,-3,-2,-6
1576748135984278,4,-1,-1,1,-1,2,-6,-5
1576748135984278,-9,2,3,-7,5,-6,-1,-9
1576748135993150,-1,1,-1,2,6,-3,-3,-2
1576748135993150,-7,-1,-2,-1,-3,2,1,3
1576748136008108,-4,2,-1,-1,3,-5,-6,-7
1576748136008108,3,3,-2,1,0,2,2,5
1576748136008108,-3,-2,-5,1,-3,-2,2,6
1576748136008108,-6,-4,-5,0,-6,6,0,4
1576748136030146,4,-7,0,-1,-6,0,0,7
1576748136030146,3,-6,-3,2,-8,1,-3,-12
1576748136031054,2,-1,0,0,-4,1,4,1
1576748136031054,8,3,1,3,-2,3,2,0
1576748136044111,1,3,0,-1,2,-3,4,0
1576748136044111,-3,1,0,1,6,-4,-1,-4
1576748136053035,-6,-2,-1,-4,1,3,-8,-5
1576748136053035,3,-4,-3,-8,6,6,-8,-4
1576748136068008,4,1,-1,-1,1,5,-3,2
1576748136068008,1,3,-2,-1,-5,-4,1,3
1576748136068008,-4,1,0,1,-4,-8,3,-3
1576748136068008,-6,-2,-1,0,-4,-7,5,-5
1576748136089995,3,-1,-1,-1,-3,5,1,-7
1576748136089995,-3,-1,0,2,-3,8,-3,4
1576748136090892,2,-1,3,-4,0,5,-5,-7
1576748136090892,4,-4,-2,-6,3,-6,-6,-8
1576748136103904,-2,-7,-3,0,-2,-10,-1,-5
1576748136103904,-8,-7,-4,-2,2,-7,2,3
1576748136112831,-6,-4,0,5,-1,4,3,4
1576748136112831,-4,0,1,0,-4,5,5,1
1576748136127893,-3,4,-1,0,2,4,5,7
1576748136127893,7,4,-3,-5,5,0,-3,1
1576748136128786,1,-2,-4,2,6,-2,-6,13
1576748136128786,-3,2,1,1,1,-1,2,2
1576748136149773,-4,3,1,0,-8,2,-2,-2
1576748136149773,5,-1,3,4,-2,3,-3,5
1576748136150729,4,-2,-3,1,-7,2,-4,-3
1576748136150729,-4,2,-4,3,-1,-3,-2,-3
1576748136164803,0,3,-5,0,2,-2,5,-5
1576748136164803,1,-1,1,-4,2,-5,2,-15
1576748136172674,5,-3,2,-6,9,1,-1,-1
1576748136172674,1,-1,0,-4,2,-4,-3,-7
1576748136187732,-10,-3,1,-4,-3,-8,-1,-3
1576748136187732,-6,0,2,-1,-1,-7,5,1
1576748136188628,4,4,-1,0,-2,-9,1,7
1576748136188628,1,-6,0,5,-3,1,-1,2
1576748136210569,0,-2,-3,2,2,0,-4,-1
1576748136210569,-2,2,-4,2,-2,0,109,-3
1576748136210569,-2,-1,0,1,-5,-3,80,-1
1576748136210569,2,-6,-2,3,-6,0,28,-7
1576748136224573,1,-5,-2,-3,-7,1,-34,-1
1576748136224573,-9,-1,0,1,-4,0,-80,-3
1576748136232610,1,2,1,0,7,-6,-65,-2
1576748136232610,-5,-1,0,-5,2,-7,-59,1
1576748136247570,-5,-2,2,-3,10,7,-36,-4
1576748136247570,0,-6,-2,-1,-6,3,-30,1
1576748136248507,-4,-1,-1,1,-10,4,-16,3
1576748136248507,5,-1,2,4,1,2,-16,17
1576748136270521,7,1,1,-4,-1,-4,-7,3
1576748136270521,10,1,1,-3,6,1,-10,5
1576748136271406,0,-7,-1,2,3,-3,-15,-3
1576748136271406,-5,-2,0,0,-2,1,-5,-12
1576748136284471,-4,-2,1,2,0,-4,16,1
1576748136284471,-4,1,-6,0,-2,-4,-3,-8
1576748136292386,1,3,-4,-2,-2,6,-2,3
1576748136292386,2,3,-4,-2,0,9,11,-2
1576748136307313,-1,0,0,0,-2,5,15,-1
1576748136307313,-3,-3,-1,-4,-6,1,-5,-4
1576748136308312,-3,2,-3,-7,-4,-9,-3,-6
1576748136308312,-3,3,2,-6,-4,-7,5,3
1576748136330292,3,1,-2,4,4,-9,2,2
1576748136330292,5,-3,2,-3,-1,0,-2,2
1576748136331300,0,2,4,0,-1,13,-2,-9
1576748136331300,4,2,-1,2,4,-2,17,2
1576748136344253,-1,0,-3,1,5,-6,13,1
1576748136344253,-2,-5,-2,0,5,-1,4,1
1576748136352191,0,-3,-3,2,-1,-2,1,-9
1576748136352191,0,-5,-4,-2,-6,3,-7,-4
1576748136368187,-2,0,-2,3,-7,-5,-4,2
1576748136368187,3,2,1,0,2,-7,-17,7
1576748136369143,1,2,-1,-4,3,-15,-16,2
1576748136369143,0,3,1,-2,-4,-6,-4,5
1576748136390187,-7,-7,1,-4,0,3,6,9
1576748136390187,-3,-8,0,-1,2,10,3,-5
1576748136391094,-6,-1,0,2,7,10,11,-6
1576748136391094,1,3,-2,1,11,6,-1,-8
1576748136413124,4,-4,-4,-1,-1,1,-4,-10
1576748136413124,-5,3,-1,-7,-5,-4,-7,1
1576748136414029,-3,-1,-1,-1,-5,-9,-2,-2
1576748136414029,-7,3,0,-2,-1,-5,2,6
1576748136428034,2,2,0,3,-11,0,4,5
1576748136428034,4,1,1,3,-1,-2,1,-5
1576748136428034,-5,-1,-4,1,-3,-1,-2,-10
1576748136428034,-6,-5,2,6,6,-4,-6,3
1576748136450025,4,1,-2,-4,2,1,-2,0
1576748136450025,4,5,0,-3,-5,-5,3,4
1576748136450930,1,-3,-1,-8,0,3,6,-1
1576748136450930,-1,-2,-4,-2,-7,0,7,1
1576748136472872,3,-6,-6,2,1,3,-1,-3
1576748136472872,-2,2,-2,3,-2,5,0,1
1576748136472872,-5,0,0,-3,-5,-1,-4,6
1576748136472872,-7,-3,0,-6,0,-2,-1,-1
1576748136487889,-2,1,4,0,6,-5,-1,-5
1576748136487889,6,4,2,3,7,4,-3,-1
1576748136488827,0,-1,-3,3,2,0,-4,4
1576748136488827,-8,-1,-1,-4,-8,3,0,1
1576748136509872,-2,1,-1,-7,-1,10,4,-1
1576748136509872,-6,-4,-1,-4,2,1,0,-6
1576748136510771,5,-2,-1,-2,-2,-7,-2,-2
1576748136510771,6,-3,2,4,1,-13,-4,-1
1576748136532808,10,0,1,3,-4,-12,-2,-2
1576748136532808,-1,-2,-3,-2,-4,-8,2,7
1576748136533749,-7,-1,0,1,-4,4,0,0
1576748136533749,-11,-2,0,-2,-3,6,0,-3
1576748136547767,-2,0,-1,-3,-1,-1,-3,-6
1576748136547767,4,-1,-3,1,2,0,0,-1
1576748136548730,6,0,-1,4,5,-4,-1,-1
1576748136548730,2,-3,-4,1,1,6,0,0
1576748136570606,-7,-1,0,2,3,6,0,5
1576748136570606,-5,-4,-2,-6,-4,0,-1,1
1576748136570606,-4,-6,0,-5,-1,1,-1,2
1576748136570606,3,1,-1,-5,1,1,4,0
1576748136592650,-3,1,2,-7,-3,-4,2,-9
1576748136592650,-1,2,1,-4,-3,-12,-3,-8
1576748136593573,6,6,2,3,-5,-2,2,4
1576748136593573,3,0,-3,5,0,2,-4,-9
1576748136607549,2,-3,-5,0,-1,4,-5,7
1576748136607549,-1,-5,-1,-1,0,7,-1,-2
1576748136608557,-2,-3,2,-4,2,8,-5,-8
1576748136608557,-5,-6,-1,1,-5,-4,-2,-6
1576748136630524,-3,-6,-1,2,-4,-9,0,-8
1576748136630524,-8,1,-2,0,7,-6,7,1
1576748136630524,2,3,-5,1,3,-7,5,3
1576748136630524,4,5,-2,4,4,-7,5,2
1576748136652488,-1,2,-5,-4,-9,1,-4,-1
1576748136652488,1,0,1,0,-7,7,-4,0
1576748136653389,-6,-3,-3,-6,-4,1,2,-4
1576748136653389,2,-5,1,-6,0,-3,3,3
1576748136667447,0,0,1,-1,0,-7,-1,0
1576748136667447,-1,1,2,4,0,-2,-5,0
1576748136668349,-4,-3,0,4,4,2,-3,8
1576748136668349,1,2,1,1,-4,0,-8,0
1576748136690289,5,4,3,1,-3,1,-3,-2
1576748136690289,4,3,0,-2,-4,4,1,2
1576748136691292,2,3,0,0,-7,-2,-6,-4
1576748136691292,-3,2,-5,-1,-1,-6,-5,-1
1576748136712329,1,0,-1,1,6,-4,2,-1
1576748136712329,-2,-2,-2,1,2,0,1,-4
1576748136713226,6,-3,1,-3,3,2,3,-7
1576748136713226,-1,-7,-3,-4,-2,1,-2,-9
1576748136728186,1,2,-4,3,-1,1,-1,2
1576748136728186,-8,-3,0,5,1,2,9,-6
1576748136728186,-8,-1,3,0,3,-6,-2,-10
1576748136728186,6,0,4,-4,-2,-4,5,12
1576748136750226,-2,-6,-2,-2,5,-1,1,-1
1576748136750226,-2,-3,-3,-5,2,1,-2,1
1576748136751174,-5,4,0,2,4,4,-4,-3
1576748136751174,2,5,2,0,2,2,-6,1
1576748136773064,-4,2,-2,-1,-6,-2,-2,4
1576748136773064,1,0,-4,-1,-15,-6,-3,-2
1576748136773064,0,0,-5,-2,-7,-4,-2,3
1576748136773064,10,-4,-109,0,0,0,-6,-1
1576748136788025,5,-3,-41,-5,0,2,0,8
1576748136788025,-2,1,14,-2,2,-1,4,17
1576748136788025,-1,1,43,-5,2,1,4,-5
1576748136788025,-2,5,75,-1,4,3,7,-5
1576748136810068,-4,-4,31,1,1,-4,2,-11
1576748136810068,-2,-5,7,-2,-3,0,2,-7
1576748136811017,0,-8,16,3,-3,-3,-3,5
1576748136811017,-6,-6,15,1,-3,-1,-3,3
1576748136832921,-1,3,0,1,-2,-4,-7,-8
1576748136832921,-1,-2,4,1,1,-5,-8,2
1576748136832921,9,7,-15,0,-3,2,-2,8
1576748136832921,-2,3,0,-1,2,1,6,-3
1576748136847977,-2,-4,-1,1,0,5,5,-3
1576748136847977,-2,-5,-3,5,3,-1,-2,1
1576748136848875,-2,-11,-13,0,-5,7,-5,-1
1576748136848875,-5,-3,2,2,-2,1,-6,-3
1576748136869906,-5,7,12,-1,-1,-1,-1,-5
1576748136869906,-6,2,0,-2,-3,2,-1,-11
1576748136870808,-3,-1,-10,-2,2,2,3,9
1576748136870808,2,0,9,-5,-7,-1,6,5
1576748136892846,-3,-4,2,-9,2,2,-1,7
1576748136892846,5,3,-7,-6,5,-4,-4,1
1576748136893751,-5,-1,-11,-5,1,0,-3,0
1576748136893751,1,2,1,-1,1,0,-3,5
1576748136907746,4,-2,2,2,-7,2,1,-2
1576748136907746,0,4,3,6,0,5,0,-4
1576748136908709,-4,1,4,5,1,-4,-3,-7
1576748136908709,2,0,0,-2,-2,-3,2,-1
1576748136929748,-2,0,-4,-4,-5,-9,0,-3
1576748136929748,-5,1,-6,-1,-5,-8,0,-9
1576748136930655,0,-4,-3,-4,-4,-7,4,-1
1576748136930655,1,-6,0,-1,3,5,-3,3
1576748136952684,-4,-2,0,3,0,-3,-3,-2
1576748136952684,3,1,-5,0,4,-7,-2,-4
1576748136953636,5,7,-8,-1,-1,2,6,1
1576748136953636,5,-1,-2,-1,1,-3,-4,-12
1576748136967647,4,-5,-9,-4,5,3,2,8
1576748136967647,1,-12,-16,-3,4,6,-3,2
1576748136968596,-4,-8,-25,2,-1,2,4,13
1576748136968596,-7,1,-16,3,-5,1,-2,-7
1576748136990529,-4,5,-5,4,-2,-2,-6,1
1576748136990529,-8,4,1,-3,-11,-2,0,-9
1576748136990529,0,6,12,-1,-1,-2,5,1
1576748136990529,-6,-3,13,-5,0,3,3,-6
1576748137012526,0,2,14,0,-1,-2,2,0
1576748137012526,2,5,11,0,-1,-3,-4,3
1576748137013426,4,-2,12,-1,-1,1,-5,0
1576748137013426,-1,-4,7,-5,-1,-1,-1,2
1576748137027484,-5,-3,2,-5,4,2,-1,-2
1576748137027484,-2,-3,-2,0,0,1,1,0
1576748137028388,-4,3,-3,0,-1,-3,-5,-10
1576748137028388,4,9,2,-1,4,-3,-8,1
1576748137050424,1,0,0,0,0,1,-2,-3
1576748137050424,5,-3,2,-3,1,-1,1,3
1576748137051342,-1,-6,-2,-4,-3,-4,-2,-7
1576748137051342,-10,-4,-1,-1,6,-3,2,-13
1576748137072263,-4,-2,0,4,6,5,4,13
1576748137072263,-1,-7,-6,2,-3,7,1,-1
1576748137073262,0,-6,-4,-3,-6,0,5,-3
1576748137073262,3,1,-4,0,-8,-8,3,-3
1576748137087338,3,0,-4,-1,-5,-3,-3,-5
1576748137087338,0,4,3,-6,-4,-5,-1,-1
1576748137095305,3,-2,1,-1,-8,-8,-16,-5
1576748137095305,-2,-2,-1,3,-1,-1,1,11
1576748137110259,-4,-4,-4,1,4,2,-5,-1
1576748137110259,-7,-6,-5,1,4,5,-2,6
1576748137111169,-9,0,-4,0,3,-3,-5,-6
1576748137111169,-9,0,-4,-6,1,4,0,-3
1576748137133102,3,10,-1,-7,1,-1,0,2
1576748137133102,6,-2,-3,-6,1,-5,-4,-6
1576748137133102,5,0,-3,0,-2,-6,5,-6
1576748137133102,0,-7,-2,8,-4,5,1,-2
1576748137147161,3,-3,4,5,-4,-3,5,-2
1576748137147161,-1,-2,5,5,-5,-1,0,1
1576748137155043,-4,-2,1,0,7,6,4,4
1576748137155043,4,-3,1,-3,4,0,1,3
1576748137170104,1,-4,0,-3,0,-6,-3,-3
1576748137170104,-2,-1,1,-2,-9,-3,-8,-7
1576748137171038,-3,5,4,2,-3,-1,0,1
1576748137171038,-2,3,5,4,-13,-3,-6,3
1576748137193014,5,-4,1,3,-7,-3,-6,-8
1576748137193014,12,2,-3,0,1,3,5,2
1576748137193014,-10,-6,-1,-5,2,-1,-2,-2
1576748137193014,-4,0,-5,-5,1,-1,0,2
1576748137206947,1,2,-1,-2,1,3,-2,3
1576748137206947,0,4,0,1,6,0,5,1
1576748137214985,-2,6,-3,1,6,7,2,-6
1576748137214985,2,11,2,-2,4,-3,-2,4
1576748137229944,-1,2,-1,-4,-4,-4,-2,1
1576748137229944,-1,-4,-1,-4,2,-3,-3,-12
1576748137230844,6,-6,-1,-2,-1,-3,5,0
1576748137230844,-1,-6,0,0,-7,-3,3,0
1576748137252882,-5,1,-5,5,-5,3,2,-6
1576748137252882,-4,-4,-1,1,-4,3,3,2
1576748137253821,-1,-1,2,-4,-4,-4,0,3
1576748137253821,0,1,-2,-5,-2,-3,-10,0
1576748137266844,4,-6,-4,-2,2,-12,-2,-7
1576748137266844,-1,0,1,1,-2,-3,-7,-1
1576748137275722,1,2,0,3,7,8,-5,0
1576748137275722,6,-5,-2,0,2,3,-4,5
1576748137290682,-4,-5,-1,-1,1,-1,-6,-1
1576748137290682,3,-4,-4,2,2,-11,-2,3
1576748137290682,-3,-2,1,-4,-3,-4,-2,0
1576748137290682,-1,5,2,-6,0,1,-1,-1
1576748137312724,-8,4,2,-5,-2,5,0,3
1576748137312724,-2,-7,-4,-4,0,7,4,-1
1576748137313636,0,-2,-3,2,-8,3,2,7
1576748137313636,-5,0,-3,7,-8,0,1,-1
1576748137326687,10,3,0,2,-1,-8,-4,2
1576748137326687,5,3,3,-1,-1,-9,5,10
1576748137335606,1,0,0,1,-1,-2,-1,0
1576748137335606,-6,-4,0,-4,3,-3,-1,-4
1576748137350566,-9,0,-1,-3,1,3,0,-1
1576748137350566,-6,2,5,-3,4,3,3,-8
1576748137350566,-1,0,3,-4,4,-1,2,-4
1576748137350566,4,3,0,4,1,6,2,-6
1576748137372465,-3,1,-3,6,-4,3,-2,2
1576748137372465,1,1,-3,5,-7,-6,-5,-3
1576748137373494,-1,-3,-1,1,-7,-11,-9,3
1576748137373494,2,-9,-2,1,0,-12,-3,3
1576748137387429,3,-8,-6,-3,2,-5,0,8
1576748137387429,-1,0,-6,1,-3,-1,-1,5
1576748137395513,-4,4,-2,-4,-1,9,-3,-6
1576748137395513,-8,4,-1,0,4,2,-2,-8
1576748137410472,-2,7,-2,-1,2,6,-2,-6
1576748137410472,-2,5,-3,-3,-6,5,-2,-5
1576748137411370,7,-1,-1,-3,3,-13,3,-3
1576748137411370,3,-3,-1,-8,0,-10,-2,0
1576748137432404,-1,-4,2,-7,0,4,0,-3
1576748137432404,-3,-4,-2,-9,6,-2,1,3
1576748137433304,-6,-6,3,0,0,10,5,-3
1576748137433304,1,-5,-1,0,-8,3,0,-1
1576748137456237,2,-4,2,6,-2,2,1,-1
1576748137456237,4,2,0,4,2,0,-2,4
1576748137456237,-3,2,-6,0,4,0,-5,2
1576748137456237,-6,4,-1,1,-3,-5,4,2
1576748137470303,-2,6,-2,-7,-7,-1,-1,-2
1576748137470303,-3,-4,-1,0,-5,-1,-5,-8
1576748137471198,2,-3,-5,-1,-6,-10,0,-5
1576748137471198,4,0,0,2,2,1,-3,-2
1576748137493140,4,4,-1,0,-1,6,-2,0
1576748137493140,-1,3,0,3,-7,8,-5,-3
1576748137493140,1,-2,-2,4,-12,-5,1,-2
1576748137493140,-6,-3,-3,1,1,-1,1,3
1576748137516186,-8,-9,-2,-5,5,-4,3,6
1576748137516186,0,-5,-1,-7,4,-2,-1,4
1576748137517075,-2,2,-1,-2,2,-7,-2,6
1576748137517075,5,2,1,1,-1,-11,-4,-2
1576748137530139,-2,0,1,4,2,-4,-5,-6
1576748137530139,-1,1,-1,0,-3,4,-2,-2
1576748137531073,-1,-1,-3,0,-5,0,-7,-2
1576748137531073,0,1,-4,-1,-1,-6,5,-10
1576748137553025,0,-1,-2,-2,-5,-11,3,-1
1576748137553025,-6,-2,-1,2,2,-10,-4,-12
1576748137553025,8,5,1,1,8,4,-3,3
1576748137553025,-1,5,-2,-1,0,6,-3,4
1576748137576014,-5,8,-2,-3,3,8,1,3
1576748137576014,-6,2,-1,3,2,6,-1,-1
1576748137576925,-5,-4,1,-4,2,1,-2,-6
1576748137576925,-2,-5,-1,-3,-3,-3,-2,-8
1576748137589923,-3,-7,5,-1,-8,-3,1,-13
1576748137589923,-4,-9,1,-5,-4,-3,4,3
1576748137590881,-3,-7,0,-4,-3,1,-4,-1
1576748137590881,7,-4,-4,-2,-3,9,-3,5
1576748137612919,5,0,-5,2,-13,-2,-3,-1
1576748137612919,4,1,0,3,4,3,-1,9
1576748137613826,-2,-2,-1,2,0,-6,-4,1
1576748137613826,-4,3,-2,-3,-1,-6,-3,-6
1576748137635857,1,8,2,-2,7,-14,1,0
1576748137635857,-3,3,-1,-4,4,-8,3,-2
1576748137636804,4,3,2,-3,-2,-2,9,4
1576748137636804,-4,-2,2,7,0,5,3,10
1576748137649783,2,-7,-4,7,-8,-3,-1,-5
1576748137649783,1,-6,-3,0,-7,4,-2,-9
1576748137657799,0,-1,-4,-4,3,10,0,-3
1576748137657799,-1,-1,-2,1,-2,-6,-7,-3
1576748137672704,-6,0,1,-6,-1,10,-5,4
1576748137672704,-7,-1,3,1,-1,-7,0,8
1576748137673664,-5,2,3,-5,-3,-6,-3,-5
1576748137673664,1,3,1,-3,2,-6,-6,-8
1576748137695598,4,-4,-1,-6,5,-2,-8,0
1576748137695598,7,1,2,-7,3,0,-1,-5
1576748137695598,-8,-7,-2,-2,-2,-6,5,2
1576748137695598,-6,0,0,2,1,2,8,3
1576748137710583,1,-7,-2,8,2,5,-1,-3
1576748137710583,-1,0,-1,1,-9,4,5,-6
1576748137710583,5,3,-5,-1,-2,-2,2,8
1576748137710583,-4,0,3,-7,-6,-6,3,0
1576748137732598,-3,2,-6,-8,-2,-4,-3,2
1576748137732598,2,3,-1,9,3,-4,-2,5
1576748137733532,4,-3,-1,3,0,6,-1,-4
1576748137733532,3,-5,-4,-2,3,1,-6,-2
1576748137755439,-2,-1,5,-4,4,0,1,0
1576748137755439,1,4,-1,-5,3,-3,-8,-5
1576748137755439,-4,5,-2,0,0,-13,0,-4
1576748137755439,4,-2,4,4,-5,2,4,3
1576748137770494,-3,1,-2,2,-9,-3,6,-2
1576748137770494,-5,-5,2,-6,-3,1,0,2
1576748137770494,-4,1,-1,3,5,16,-2,1
1576748137770494,1,-1,-1,-3,2,8,3,8
1576748137792438,1,-5,-5,-4,2,-6,4,-3
1576748137792438,-2,0,-5,0,6,-1,1,-3
1576748137800417,1,-3,0,0,7,0,-1,-10
1576748137800417,2,-6,-4,-1,4,-2,-3,-2
1576748137815322,5,4,-2,7,-14,-6,1,4
1576748137815322,1,2,-1,1,-10,-2,0,1
1576748137816297,1,3,-1,2,-10,-7,-2,2
1576748137816297,2,-4,-4,-1,-6,-5,-5,-8
1576748137830339,-4,-1,2,2,10,2,-5,-3
1576748137830339,-11,-3,-3,-1,3,-2,-3,-10
1576748137831290,-6,5,-3,-6,-1,3,-4,-2
1576748137831290,-1,2,1,-2,-1,8,-5,10
1576748137853178,4,-5,-1,1,-1,2,0,19
1576748137853178,5,-9,1,3,0,2,-2,4
1576748137853178,3,-5,-3,1,0,-3,52,-3
1576748137853178,1,2,3,-3,1,-5,37,-7
1576748137875217,3,3,4,-3,3,-7,17,-6
1576748137875217,-2,-1,2,-4,-5,-4,-2,-7
1576748137876151,-2,-2,3,-2,-3,-3,-25,0
1576748137876151,-6,2,-4,-1,-2,3,-27,-5
1576748137890122,-11,5,-2,0,2,1,-23,0
1576748137890122,3,0,1,-2,0,4,-4,5
1576748137891081,10,-7,2,-1,2,5,-12,3
1576748137891081,3,-4,0,-2,-3,-2,-6,-6
1576748137913062,-4,2,-1,2,3,2,-8,-1
1576748137913062,-9,3,-3,-3,5,-11,-6,1
1576748137913062,-3,-1,-5,-3,-7,-5,-2,2
1576748137913062,-11,-4,-1,1,-2,1,2,4
1576748137935059,0,-3,-3,1,-1,6,-2,2
1576748137935059,6,-4,1,-2,3,3,3,4
1576748137935998,-2,-2,-1,1,3,0,-2,-2
1576748137935998,7,-3,-3,-4,2,23,-6,-1
1576748137949954,5,1,0,1,-13,14,3,-7
1576748137949954,-1,3,-2,2,-10,7,5,-7
1576748137958007,-5,6,-1,5,1,-4,-6,-3
1576748137958007,-3,7,-3,4,8,-16,-2,2
1576748137972859,-4,0,-3,-3,2,-11,-5,4
1576748137972859,0,-5,1,-6,-3,-10,-6,-2
1576748137973862,3,-3,5,-2,-2,-11,-9,12
1576748137973862,2,0,-1,2,-7,-9,-1,-3
1576748137994809,6,-2,0,1,0,-5,6,2
1576748137994809,0,4,0,-1,-1,-9,-2,12
1576748137995799,-12,-7,-4,-7,-5,4,-6,-5
1576748137995799,2,0,-1,-1,8,-1,-4,8
1576748138009859,-6,-4,-1,0,1,-3,-5,-2
1576748138009859,-3,-2,-1,7,-1,-5,-1,-2
1576748138010754,6,2,1,-1,2,9,4,-2
1576748138010754,-2,1,-1,-11,-7,4,7,1
1576748138032796,2,-3,-3,-2,24,1,8,-3
1576748138032796,0,-2,-1,-2,2,2,7,-6
1576748138033755,-1,-8,0,2,5,-5,2,-1
1576748138033755,-7,-10,0,-5,-11,-12,-2,-4
1576748138054640,-4,-1,5,-7,-14,-3,0,-4
1576748138054640,2,3,1,6,-10,5,-3,-3
1576748138055635,-3,6,-7,9,-8,-7,-4,-2
1576748138055635,1,3,-3,9,-3,-1,-5,5
1576748138069699,2,1,-2,2,-7,1,-2,-2
1576748138069699,8,3,-3,-1,-9,0,-6,0
1576748138077675,1,-1,1,-5,-9,-4,-2,-6
1576748138077675,-2,1,3,2,5,-4,1,0
1576748138092638,-4,0,2,-6,7,3,-1,7
1576748138092638,-9,-1,-4,-10,6,2,2,-2
1576748138093541,1,1,0,-4,8,3,5,5
1576748138093541,2,-3,0,-2,-2,-4,-2,-7
1576748138115520,-1,-6,2,3,-1,7,-2,1
1576748138115520,0,-6,-1,2,6,-4,-2,-3
1576748138115520,-4,-5,-1,-1,1,-4,-1,-6
1576748138115520,-1,3,3,4,-4,1,-4,-6
1576748138129535,1,-4,-4,3,-11,-2,-2,-3
1576748138129535,4,-4,-5,1,4,7,-2,4
1576748138137486,4,1,-4,2,3,1,-2,2
1576748138137486,-3,6,-6,-1,-6,-7,2,-4
1576748138152476,-2,3,-2,-4,-9,-8,-4,2
1576748138152476,-3,-3,2,0,2,0,1,5
1576748138153378,2,2,2,0,2,3,2,7
1576748138153378,4,-4,3,-2,-1,9,3,3
1576748138175313,-1,-3,1,-2,-1,7,2,-9
1576748138175313,-1,-3,0,-1,-9,-1,6,5
1576748138176321,-7,3,3,-1,-2,0,2,-5
1576748138176321,-8,-2,-3,-2,6,-4,2,-5
1576748138189320,2,2,-3,1,9,-4,-41,2
1576748138189320,6,4,4,4,8,4,-37,2
1576748138198255,0,-4,-2,-4,-1,-1,-18,-5
1576748138198255,-3,-1,-3,-2,-3,-11,-1,2
1576748138212319,8,3,-2,0,-5,-8,24,2
1576748138212319,1,1,-3,-3,-7,-4,22,-2
1576748138213218,3,6,2,-1,-1,4,8,4
1576748138213218,10,1,1,1,0,9,11,4
1576748138235255,3,-3,2,3,2,4,10,-6
1576748138235255,-7,-8,-4,0,-4,-5,-1,-6
1576748138236205,-11,-6,-3,1,-7,-5,8,-6
1576748138236205,-5,-4,-2,0,2,-10,1,0
1576748138249220,0,1,-3,-7,3,2,7,-3
1576748138249220,2,5,-1,-3,0,-4,0,-2
1576748138258133,7,-1,1,-5,7,-2,-4,1
1576748138258133,-1,2,2,0,1,5,-9,-4
1576748138273052,-4,2,1,1,1,-9,-7,-2
1576748138273052,-1,1,5,0,0,1,4,1
1576748138273052,-1,-4,-2,-1,-17,3,-5,2
1576748138273052,0,-6,0,2,-6,5,-6,7
1576748138295095,-4,-9,-4,0,-7,6,4,3
1576748138295095,-9,-2,-4,1,-4,-2,3,-5
1576748138296046,-5,2,0,-1,8,0,-2,0
1576748138296046,5,2,1,-2,2,5,-1,-6
1576748138309954,6,-3,3,3,0,8,5,5
1576748138309954,7,7,0,-1,-1,-5,2,5
1576748138318026,0,2,-6,0,-1,-16,3,5
1576748138318026,-5,1,-4,-4,9,-19,4,4
1576748138333004,-2,-2,-2,-7,1,-13,1,3
1576748138333004,-13,-4,0,-1,-2,-1,0,-8
1576748138333891,-3,-7,0,-3,-2,-1,-2,-6
1576748138333891,3,4,1,1,0,2,-6,1
1576748138354834,7,2,-1,-1,8,0,-3,-1
1576748138354834,8,-1,-3,-1,-3,11,-1,-1
1576748138355836,7,3,2,0,-3,9,1,6
1576748138355836,-3,1,-6,1,-5,2,5,17
1576748138369887,-11,-1,-7,-2,-3,0,-3,-7
1576748138369887,-1,3,-2,-1,-1,11,0,-1
1576748138377873,-5,-1,0,3,2,14,2,-2
1576748138377873,-4,-2,3,-3,-11,2,0,-5
1576748138392836,-13,0,1,-4,-9,-9,4,-10
1576748138392836,-12,-2,1,1,5,-12,-9,-4
1576748138393741,-6,-6,1,6,3,-6,-6,-4
1576748138393741,10,-4,1,7,8,-7,-5,-7
1576748138415674,5,-5,-2,-3,-4,-6,-1,-8
1576748138415674,4,-7,-7,-8,-1,1,-2,0
1576748138415674,3,10,-8,-2,-1,-1,-4,3
1576748138415674,-6,-3,-6,-1,-6,5,-9,-10
1576748138438611,-8,2,3,0,-3,4,-3,0
1576748138438611,-1,-2,3,-4,1,-11,0,-3
1576748138439610,-1,-3,2,-6,1,-5,-7,-4
1576748138439610,-7,3,0,-6,8,-1,3,10
1576748138452673,6,1,-10,-2,3,-5,1,2
1576748138452673,2,1,-1,4,-4,-1,6,1
1576748138453616,2,-5,-1,2,-9,0,6,9
1576748138453616,4,-3,1,-1,-2,6,3,-2
1576748138475557,-3,5,1,0,-3,3,1,12
1576748138475557,-4,3,1,3,2,10,3,11
1576748138475557,6,1,0,1,-1,3,-4,-9
1576748138475557,11,-6,0,-1,-1,-3,-5,0
1576748138498551,-3,-9,0,1,4,-4,-1,7
1576748138498551,0,-3,-4,-3,2,-3,1,2
1576748138499487,-4,-6,-5,4,-1,-1,0,-5
1576748138499487,-4,0,-2,0,-3,5,0,-8
1576748138512515,1,5,-3,-1,0,7,-1,3
1576748138512515,2,6,2,-5,-1,1,0,0
1576748138513416,0,8,0,-3,-1,5,2,-1
1576748138513416,-8,2,2,0,-7,-9,-8,-9
1576748138535451,-5,-6,-2,-2,-13,-6,-4,-10
1576748138535451,4,-4,-3,0,4,-6,-7,-4
1576748138536350,-7,-3,-2,0,7,-10,-2,6
1576748138536350,2,2,-2,4,9,-3,1,7
1576748138558390,2,6,1,3,4,-3,1,4
1576748138558390,8,5,0,2,0,-8,-2,0
1576748138559342,2,-2,1,-4,-7,-5,-7,-7
1576748138559342,0,-2,5,-3,-3,0,-1,-1
1576748138572306,-1,-10,4,-3,0,11,0,-7
1576748138572306,-5,-3,-3,-2,-5,14,-1,-8
1576748138573254,9,2,-2,1,-7,4,3,-1
1576748138573254,-7,-1,-4,-4,-6,-10,-1,-4
1576748138595294,-1,6,-3,-6,6,-6,-1,4
1576748138595294,1,3,-2,1,12,2,4,-1
1576748138596199,1,-4,1,2,7,3,-5,15
1576748138596199,3,-3,-3,-1,5,2,-5,-4
1576748138618231,-2,-1,-2,-2,0,-1,-4,-4
1576748138618231,-5,-3,-1,-6,-14,-5,-4,2
1576748138619132,-2,-8,1,-2,-7,4,0,-1
1576748138619132,-2,-8,1,5,-3,-3,-2,-6
1576748138633134,6,-6,-1,6,-3,-9,-1,-3
1576748138633134,-3,-1,2,6,-5,-7,1,-11
1576748138633134,0,5,-1,-4,2,-5,4,-10
1576748138633134,7,6,-2,-8,-3,-3,5,8
1576748138655033,-2,5,-5,4,-2,-1,-3,7
1576748138655033,0,-2,-3,1,-3,2,-1,2
1576748138656085,-3,2,-2,-4,-4,-6,-3,-4
1576748138656085,-2,1,7,-2,8,2,-5,1
1576748138678070,-6,-5,7,-7,4,2,-4,0
1576748138678070,-2,-6,0,-3,3,-3,-1,-2
1576748138678977,-2,-2,-7,-2,-2,8,1,-1
1576748138678977,0,8,-6,-1,-6,5,2,8
1576748138693011,-1,1,-3,3,-4,-4,-3,-6
1576748138693011,-2,-7,4,0,3,-1,4,-2
1576748138693011,-1,-4,4,4,3,-10,-1,-6
1576748138693011,-3,-4,-3,-3,0,-6,-1,-3
1576748138714975,-2,-4,-2,-4,-2,2,-1,2
1576748138714975,-5,0,-5,0,-3,11,-4,1
1576748138715874,-7,-2,-5,0,-3,7,0,-10
1576748138715874,0,4,-3,-1,-1,6,2,-4
1576748138738808,5,4,-3,1,4,-3,6,-1
1576748138738808,2,5,-2,-3,1,-5,3,0
1576748138738808,1,2,1,-5,1,-6,1,-6
1576748138738808,5,0,0,3,-3,-5,-2,-4
1576748138752870,2,1,-2,-3,0,-7,-3,-1
1576748138752870,-3,4,1,1,-4,-4,-4,-1
1576748138753811,-5,0,-2,5,-7,2,-2,4
1576748138753811,-6,-6,-1,-3,-6,3,-2,4
1576748138774754,-6,-6,1,-3,-4,9,2,0
1576748138774754,-1,-3,-2,-7,0,4,0,-3
1576748138775714,8,-10,0,0,7,2,3,-1
1576748138775714,-7,-1,-3,0,-3,2,1,-2
1576748138798698,-2,3,-4,-2,-8,7,0,-5
1576748138798698,-2,2,-1,1,-2,1,-6,5
1576748138798698,-2,-1,-3,-1,0,6,-1,0
1576748138798698,2,-1,2,5,11,-2,0,-6
1576748138812713,2,-1,1,1,6,-10,9,-4
1576748138812713,-4,-9,-1,-2,9,-8,44,-4
1576748138813617,-1,-4,-3,-3,0,-9,22,6
1576748138813617,-3,-4,-1,-4,3,-7,3,3
1576748138835595,-3,3,0,0,-4,-2,-23,5
1576748138835595,-5,-2,1,5,-9,1,-27,3
1576748138835595,-12,-5,0,2,-10,0,-15,-3
1576748138835595,-3,-4,-3,-3,-8,0,-4,1
1576748138858590,1,-1,0,-2,-5,-4,-4,-14
1576748138858590,2,5,-4,0,3,6,-7,-7
1576748138859495,0,9,2,-1,5,1,-1,-4
1576748138859495,-1,3,3,-3,-2,-1,-4,2
1576748138872499,5,5,-4,0,4,2,4,1
1576748138872499,-3,-3,-4,-3,-1,-3,-3,-7
1576748138873491,-2,-5,-4,-3,2,-5,-5,-1
1576748138873491,3,-6,-4,-5,2,2,3,3
1576748138895503,1,-9,1,2,-4,-3,1,-1
1576748138895503,5,-2,7,2,-4,-2,-2,6
1576748138896397,4,1,1,4,-2,-7,-4,1
1576748138896397,9,2,2,9,0,6,7,0
1576748138917430,-6,0,-1,-2,-4,6,6,-1
1576748138917430,2,0,-3,-6,-2,-3,-2,3
1576748138918339,2,3,-1,-5,-4,-2,-7,1
1576748138918339,3,0,-6,-4,4,-8,-8,-4
1576748138932289,2,2,2,0,8,2,1,2
1576748138932289,-8,2,-5,-3,6,6,-4,-6
1576748138940290,-5,1,-2,0,0,10,-4,2
1576748138940290,-12,-3,-4,1,-1,0,-2,-7
1576748138955239,-3,-6,4,-3,3,-8,-6,-12
1576748138955239,10,0,0,3,1,-7,-2,5
1576748138956234,3,-3,-4,-3,-5,-9,1,6
1576748138956234,-3,2,0,0,-11,-3,-4,2
1576748138978168,-2,1,4,2,-8,1,-3,-6
1576748138978168,-3,-6,4,-2,-2,1,-5,-1
1576748138978168,-2,-3,-2,-2,4,1,-10,-3
1576748138978168,-2,-3,-5,1,3,-4,-2,-11
1576748138993129,0,-3,-9,3,4,0,6,12
1576748138993129,2,-4,-7,-7,-2,5,3,-4
1576748138993129,8,3,0,-4,-3,-1,3,0
1576748138993129,4,0,0,-8,-3,-4,1,2
1576748139015168,-5,5,1,-4,-4,6,5,10
1576748139015168,-12,5,5,1,-2,-4,3,-6
1576748139016121,1,-2,1,0,-2,0,4,3
1576748139016121,0,-3,-1,3,-3,-1,0,-2
1576748139038010,7,-6,-3,1,-7,-2,0,-7
1576748139038010,1,-3,1,3,-1,1,-7,3
1576748139038010,0,3,0,2,4,-5,2,-4
1576748139038010,-2,3,1,6,6,-8,2,5
1576748139052073,-1,1,-2,-2,-1,0,0,-4
1576748139052073,1,3,1,-4,-3,-7,0,-2
1576748139060045,-1,-7,-2,-4,-4,-2,-1,-3
1576748139060045,-7,-1,-3,-5,-3,0,-3,-4
1576748139075004,-5,-3,1,-7,2,1,-4,-13
1576748139075004,0,-1,0,-2,-5,2,1,-2
1576748139075911,1,-4,-2,3,0,2,-5,8
1576748139075911,5,1,-2,2,0,3,2,0
1576748139097961,5,5,0,4,-3,2,2,9
1576748139097961,1,7,-1,-4,-2,-7,-1,12
1576748139098858,-1,4,1,-5,3,-2,-1,11
1576748139098858,1,-2,4,2,0,1,-6,-4
1576748139111818,5,-6,0,-1,5,-3,-1,4
1576748139111818,-1,-3,-6,0,-6,0,1,-2
1576748139120786,1,3,-5,-4,-3,-3,-1,-7
1576748139120786,-7,0,-4,-2,2,1,1,1
1576748139134851,-8,-4,-1,0,4,-3,-3,1
1576748139134851,-7,-1,-1,-2,-1,0,0,-11
1576748139135747,-3,-1,1,1,0,8,3,-8
1576748139135747,1,6,-1,3,-7,-2,1,-4
1576748139157693,-1,0,-3,-3,1,-10,1,3
1576748139157693,-1,-6,2,-4,3,-10,-2,13
1576748139158693,4,-3,1,1,-2,-4,3,6
1576748139158693,-1,-2,4,1,1,5,3,-3
1576748139171650,4,3,-2,6,-5,-1,-3,2
1576748139171650,5,1,-6,6,-3,4,-4,-2
1576748139180672,-12,-4,-2,-9,-11,-5,-3,-4
1576748139180672,-7,-1,-2,-17,-7,7,-3,-5
1576748139195586,-6,4,0,-11,0,6,-1,0
1576748139195586,-2,-2,5,5,1,1,-2,-5
1576748139195586,2,-4,1,7,2,-2,-1,-5
1576748139195586,9,-3,1,-4,3,-4,-1,6
1576748139217630,-2,-1,0,-1,6,2,1,-2
1576748139217630,-4,-2,-4,3,3,-3,4,0
1576748139218586,-6,-6,-3,4,1,-2,5,-6
1576748139218586,-5,-5,-6,-1,-8,-9,-2,-9
1576748139232489,1,-2,-1,-1,-5,5,1,2
1576748139232489,10,-1,-1,5,5,1,-5,0
1576748139240573,0,5,-1,7,-4,1,-9,-10
1576748139240573,-2,2,-1,0,-3,2,-3,17
1576748139255478,6,3,0,-6,1,-4,-2,-6
1576748139255478,-3,-1,-2,-6,1,0,2,-6
1576748139255478,2,3,3,-6,5,-9,2,0
1576748139255478,-1,-3,-2,5,-6,-5,2,2
1576748139277469,-12,-6,-4,8,-14,1,1,0
1576748139277469,-7,-3,4,-3,-3,3,2,2
1576748139278419,-2,1,-3,-4,2,6,-3,-1
1576748139278419,4,8,-2,1,6,4,0,-6
1576748139292374,7,0,-2,2,2,-6,-5,2
1576748139292374,-3,-7,-7,0,-4,1,-9,-9
1576748139300406,-2,-4,0,-4,0,3,-3,13
1576748139300406,-6,-1,0,-1,-1,3,-3,-4
1576748139315368,2,-4,2,-4,2,1,-1,-6
1576748139315368,7,7,-2,-1,1,-5,0,-3
1576748139316301,0,-1,-3,-1,-3,-7,3,3
1576748139316301,-4,-1,-4,-3,-3,-4,2,2
1576748139337256,-2,-1,3,0,-7,-1,-1,-4
1576748139337256,3,1,4,-4,5,0,-1,2
1576748139338206,-3,5,1,-8,5,-6,-6,-9
1576748139338206,-5,-4,-1,-1,0,-11,-2,-4
1576748139361222,-6,1,-6,-1,0,5,3,-3
1576748139361222,5,-2,-3,0,-1,-8,-2,1
1576748139361222,-5,2,4,-2,-2,7,-2,0
1576748139361222,-2,-1,4,-5,-4,-3,-6,0
1576748139375110,-2,-7,3,0,-1,-1,2,-1
1576748139375110,-1,-2,-3,3,-5,7,8,6
1576748139376111,7,0,-2,7,3,7,4,-4
1576748139376111,6,3,-2,0,8,6,2,1
1576748139398092,-8,6,-3,-1,4,-2,1,1
1576748139398092,2,3,0,-5,-4,-3,4,-1
1576748139398092,-1,-1,-3,-1,-11,-11,-2,2
1576748139398092,5,-8,2,1,7,1,-3,4
1576748139420986,5,-6,-2,-2,9,-2,-8,13
1576748139420986,-3,-3,-3,0,6,2,-6,-3
1576748139421981,-3,-4,-1,-1,3,8,-2,3
1576748139421981,-2,1,-5,1,-11,-2,-1,-1
1576748139435043,-2,-4,-3,2,-6,-3,-2,-2
1576748139435043,-1,2,0,-2,-2,1,0,2
1576748139435988,-7,0,-4,1,-4,3,-3,-8
1576748139435988,0,-3,0,5,-8,-5,-1,4
1576748139457995,2,5,0,-1,-6,-5,3,-6
1576748139457995,-1,5,-1,-2,-4,-11,0,-1
1576748139458885,4,-4,-3,-2,6,-2,3,3
1576748139458885,3,-3,-1,-8,4,2,4,4
1576748139480926,-5,2,1,-2,-7,5,-4,5
1576748139480926,2,0,2,-3,-6,-8,-5,3
1576748139481874,-1,3,0,4,-4,-5,-5,-6
1576748139481874,1,3,4,2,3,-7,-2,-8
1576748139494840,-1,-5,-1,6,3,3,2,-4
1576748139494840,-10,-5,-4,1,2,9,-1,-9
1576748139495790,-4,-2,-4,-3,-4,6,-4,-5
1576748139495790,-1,4,-7,-4,0,-3,-2,-5
1576748139517827,7,7,3,-7,2,-1,-6,2
1576748139517827,6,1,-3,-3,-4,-4,-5,2
1576748139518770,2,-3,-2,0,3,-4,1,-3
1576748139518770,6,-6,-2,-4,-2,2,1,-7
1576748139540763,1,-1,-5,-6,1,-1,3,-4
1576748139540763,-5,-1,2,4,2,0,1,5
1576748139541714,2,-3,0,-1,-4,-1,1,4
1576748139541714,-3,1,3,5,-5,6,4,0
1576748139555624,-9,-8,1,4,-6,-6,1,-5
1576748139555624,3,-2,-2,-5,-5,-3,5,-1
1576748139555624,4,3,-1,-3,1,-8,-3,-1
1576748139555624,4,5,-7,-5,-3,-4,-2,-1
1576748139577666,-4,0,-4,-4,3,-2,-5,1
1576748139577666,-5,-2,2,1,7,0,-6,0
1576748139578575,-1,2,0,-1,4,2,2,6
1576748139578575,-4,-1,1,-1,1,2,0,-1
1576748139600606,1,0,-4,5,-5,3,1,-2
1576748139600606,1,-9,2,9,-7,0,5,2
1576748139601506,-1,-2,2,1,-6,-6,0,-4
1576748139601506,2,2,0,-4,1,-6,-1,-6
1576748139615544,-2,2,0,-5,3,-1,-4,-8
1576748139615544,-1,-3,-5,-9,3,6,-6,-4
1576748139615544,-3,1,-3,-2,-6,-1,-3,3
1576748139615544,-6,-4,-7,-7,-7,4,-3,3
1576748139637406,-6,-5,-3,-2,-1,-1,-4,-5
1576748139637406,-3,-4,4,1,2,-4,-3,-7
1576748139638410,0,0,-1,1,6,-7,0,-5
1576748139638410,-1,3,3,6,8,0,-2,-3
1576748139661340,4,2,1,4,1,-1,3,-1
1576748139661340,3,-1,-4,-4,-5,-3,1,-2
1576748139661340,0,-2,0,-2,-11,0,-2,-4
1576748139661340,-5,-3,-4,-1,-7,-4,-4,-2
1576748139675403,0,-6,-3,-2,-10,2,-1,-3
1576748139675403,4,0,1,2,-1,3,3,6
1576748139676311,-1,-2,-3,-6,6,2,1,-4
1576748139676311,3,-4,2,3,5,2,1,3
1576748139697299,-3,1,2,0,5,-3,-3,5
1576748139697299,0,5,-5,0,-2,-7,-4,1
1576748139698247,-5,0,-2,2,-1,-1,-2,-2
1576748139698247,-3,-2,3,3,5,-2,-4,1
1576748139721181,-6,-4,-2,-3,0,-2,1,0
1576748139721181,-2,2,-2,-9,-7,1,1,1
1576748139721181,-2,4,2,-6,-5,0,3,0
1576748139721181,-4,0,-2,-3,-4,-7,5,-5
1576748139735245,11,-1,1,0,1,4,1,4
1576748139735245,-5,0,-3,2,2,5,0,-7
1576748139736168,2,-5,-4,3,0,11,-2,3
1576748139736168,4,2,-1,2,-3,3,-2,3
1576748139758113,3,2,-2,-4,-8,1,3,4
1576748139758113,-4,-2,-4,2,-3,-7,0,-8
1576748139758113,4,-4,-2,-4,-4,-8,0,1
1576748139758113,6,0,-2,-2,-5,-11,-2,3
1576748139781056,0,-3,0,5,3,-9,-5,2
1576748139781056,-1,1,1,5,1,-6,-2,-6
1576748139782023,-12,-4,2,-2,6,-4,4,-6
1576748139782023,-6,-3,0,-7,3,-1,-1,-9
1576748139794988,-3,5,-1,-7,3,2,3,8
1576748139794988,1,-4,-5,-8,1,2,-3,4
1576748139795994,1,3,-3,-1,-9,-4,-1,3
1576748139795994,2,-3,-5,-1,-12,6,2,-6
1576748139817945,2,6,0,0,-6,9,0,-6
1576748139817945,2,-2,1,1,6,9,0,3
1576748139817945,2,4,-3,1,3,1,-3,-1
1576748139817945,0,0,1,0,2,-2,-6,1
1576748139840861,-8,3,0,2,-6,-3,-7,-1
1576748139840861,-1,-4,1,-4,-4,-1,0,2
1576748139841866,3,0,-7,-4,1,-2,-5,-6
1576748139841866,2,2,-3,-2,6,-5,2,-2
1576748139854821,0,-8,0,3,6,-3,-2,-6
1576748139854821,-6,-5,3,4,-2,-3,5,2
1576748139855830,-6,-8,1,3,-10,0,2,-1
1576748139855830,-1,0,1,1,-11,-2,2,2
1576748139877763,-3,1,0,-6,-12,-1,-1,-4
1576748139877763,10,6,-1,-3,-2,0,-6,-1
1576748139878759,5,4,2,1,1,-3,-5,4
1576748139878759,-1,2,3,4,-5,3,-3,1
1576748139899738,-1,0,-2,3,0,2,-2,-1
1576748139899738,-6,-2,-1,-2,4,-8,-1,1
1576748139900702,3,-7,-3,-1,6,-1,0,5
1576748139900702,-5,-11,-4,-2,6,-6,0,-5
1576748139914715,-5,1,-1,-1,1,-2,1,-4
1576748139914715,-8,4,0,-2,0,5,-6,-8
1576748139915659,-2,1,2,-6,7,-1,-5,-5
1576748139915659,3,1,-2,-6,4,4,-2,5
1576748139937602,2,-11,-3,-4,-6,-1,0,-5
1576748139937602,-3,-4,0,4,1,-2,2,0
1576748139938598,1,1,-1,5,-2,-4,1,-4
1576748139938598,2,-3,2,3,3,4,-1,0
1576748139960641,4,3,-6,4,4,-1,-1,1
1576748139960641,0,7,-6,3,-5,2,-2,5
1576748139961540,-7,5,0,-4,-6,1,4,3
1576748139961540,-4,4,3,-2,-9,0,0,-1
1576748139974504,-3,-4,4,-10,2,-3,-1,-4
1576748139974504,1,-6,-3,-7,3,-1,2,-6
1576748139982481,-1,-7,-3,-1,3,4,0,-1
1576748139982481,0,1,-3,-2,2,-1,3,2
1576748139997493,-6,2,0,6,-4,-6,1,0
1576748139997493,-1,2,0,5,-9,-2,-2,-2
1576748139998442,4,0,-3,5,-4,-2,-3,-9
1576748139998442,2,-1,-4,-2,-3,6,-2,-13
1576748140020403,5,-2,2,-6,-1,-2,1,-5
1576748140020403,0,-8,-1,-7,3,-5,0,0
1576748140021376,-7,-4,3,0,-3,-6,-2,-4
1576748140021376,-5,-4,5,-3,0,0,-5,4
1576748140034396,-2,1,-3,-3,2,4,-4,4
1576748140034396,1,4,-1,4,-1,6,-3,1
1576748140042373,5,0,-6,-3,0,4,1,4
1576748140042373,-3,-6,-8,-1,1,-2,2,-3
1576748140057328,-2,-2,-5,-1,1,-5,3,3
1576748140057328,-1,-1,3,0,1,-9,-5,3
1576748140058280,-2,5,0,2,-1,0,-5,-5
1576748140058280,-1,5,0,0,-3,1,-2,2
1576748140081222,2,-4,1,-1,1,6,2,-1
1576748140081222,5,-3,-4,-4,-2,3,7,9
1576748140081222,-1,-5,-1,1,-1,-1,-1,10
1576748140081222,-6,4,-3,4,-7,-4,7,10
1576748140094285,-1,-2,0,3,-4,-12,-1,-1
1576748140094285,-4,-2,2,-1,-1,-8,-3,-7
1576748140103158,-2,-4,1,-5,0,-2,0,1
1576748140103158,-1,-1,-1,0,3,1,-5,-7
1576748140118119,2,3,-6,1,-5,2,0,-2
1576748140118119,4,0,-3,0,-7,2,-2,-6
1576748140118119,5,2,-2,1,-1,-1,-3,-2
1576748140118119,-5,-4,0,-4,5,-5,-3,4
1576748140140161,0,5,1,1,4,-6,-3,0
1576748140140161,5,8,4,4,2,-2,-2,3
1576748140141068,1,-1,2,2,2,-4,-3,-8
1576748140141068,5,-1,0,1,-3,-1,0,0
1576748140154024,2,-6,1,-3,1,6,4,11
1576748140154024,-9,-5,3,-4,-2,2,1,0
1576748140163034,1,-4,-1,-4,-6,0,-1,-4
1576748140163034,9,-1,0,4,0,-4,-5,-13
1576748140178020,-1,2,-1,0,1,-6,1,1
1576748140178020,-9,0,-7,-1,-2,1,-3,0
1576748140178020,-9,3,-5,-2,4,7,2,14
1576748140178020,-11,-4,-5,-8,-4,-4,-8,-9
1576748140200003,7,1,-4,-3,-4,0,-3,-2
1576748140200003,5,2,-4,-5,-6,7,5,-8
1576748140200900,1,3,3,1,-2,5,1,-1
1576748140200900,-2,-2,5,2,5,4,1,2
1576748140223835,-7,-7,0,2,-2,-4,1,-2
1576748140223835,5,-5,-3,-1,-3,-11,-5,-1
1576748140223835,5,5,-7,4,-1,-11,0,1
1576748140223835,6,13,-1,4,4,-4,0,3
1576748140237798,-4,-5,4,-1,-6,-1,-5,-1
1576748140237798,-7,-5,-3,-1,-4,4,-7,6
1576748140238806,-5,-6,-2,-3,-1,6,-8,-6
1576748140238806,-3,-8,-2,-6,1,1,-3,1
1576748140259846,-3,1,2,-1,6,-3,-1,-3
1576748140259846,4,2,-2,0,-4,-5,1,2
1576748140260738,5,-4,1,1,-5,-7,0,5
1576748140260738,2,-2,4,4,-6,1,0,4
1576748140274729,-1,2,4,-2,-4,0,3,-6
1576748140274729,-7,-2,2,0,7,-1,6,1
1576748140282781,-1,1,-3,-1,3,-5,2,-7
1576748140282781,1,-2,-6,2,4,-4,3,4
1576748140297674,-6,-6,-4,3,0,3,-4,0
1576748140297674,-5,-1,1,0,-2,2,-2,-5
1576748140298680,-1,2,-4,-3,-4,6,-1,-1
1576748140298680,2,5,-5,-4,-7,6,-4,4
1576748140320578,1,-2,-5,-7,-2,-2,-6,-1
1576748140320578,1,0,1,-5,-1,-7,0,0
1576748140320578,-2,1,1,-3,2,6,4,-3
1576748140320578,3,-4,1,3,-4,1,-1,11
1576748140343616,1,1,-4,-3,0,5,-2,-8
1576748140343616,4,4,0,-2,1,3,-2,1
1576748140344513,5,-4,1,1,-3,-6,4,2
1576748140344513,-1,1,2,-1,2,-6,4,-4
1576748140357522,-7,-1,-5,-1,-1,-9,-5,-1
1576748140357522,-2,-3,-2,-1,2,-3,-1,-8
1576748140358481,-5,4,0,-1,4,0,-1,0
1576748140358481,-6,-3,-2,-3,0,-7,-1,-3
1576748140380535,1,-1,6,2,1,1,4,4
1576748140380535,-3,-3,-2,5,-6,-4,-39,-11
1576748140381415,3,-5,-1,0,-3,-7,-20,-2
1576748140381415,4,0,2,-2,-4,1,-3,-1
1576748140403461,3,1,0,-5,-1,1,11,2
1576748140403461,-2,1,0,1,-4,8,19,1
1576748140404354,4,0,0,4,2,5,14,-2
1576748140404354,-5,4,1,1,4,1,3,8
1576748140417425,1,2,-3,2,-2,1,0,2
1576748140417425,-3,2,-4,-6,-2,-4,4,5
1576748140418321,-1,-2,-2,-5,0,0,-1,2
1576748140418321,-8,-2,-3,-3,-3,-2,-1,-6
1576748140440356,0,0,-4,3,1,-3,-5,0
1576748140440356,0,-4,-1,1,-4,1,-1,-11
1576748140441258,-6,-5,0,2,-4,-1,3,-5
1576748140441258,1,-8,-1,2,-5,-1,3,0
1576748140463296,-5,-2,-3,-5,-1,4,-5,-1
1576748140463296,-2,5,0,-7,1,-1,3,-7
1576748140464197,-5,3,0,-5,1,0,5,-4
1576748140464197,6,4,4,-3,1,1,2,-1
1576748140477204,-2,-4,2,-1,-3,-4,-9,2
1576748140477204,5,-5,1,3,-1,3,4,3
1576748140478159,-2,-5,-3,0,-5,-4,-9,-1
1576748140478159,-2,-5,-3,-1,-3,-5,-6,0
1576748140500098,-3,-7,-8,-6,1,-8,2,-5
1576748140500098,-1,-2,0,1,2,-5,-1,5
1576748140501132,-2,2,-3,3,1,-4,1,1
1576748140501132,-3,4,-1,-1,1,1,1,-10
1576748140523038,-6,6,-2,-3,-2,0,1,-9
1576748140523038,-6,-3,0,-1,2,1,6,7
1576748140524036,-2,-4,-2,-2,1,-5,-4,-6
1576748140524036,0,-3,0,2,0,-7,1,-3
1576748140538015,8,4,2,1,-1,-2,4,6
1576748140538015,1,2,-4,-3,-3,-1,-3,4
1576748140538015,-3,-4,2,-4,-6,-2,-2,2
1576748140538015,-1,-1,-3,-3,6,4,0,-4
1576748140560036,-1,-3,2,1,3,4,-2,-10
1576748140560036,2,-1,0,0,3,1,-2,0
1576748140560939,7,-4,0,-1,-3,5,4,5
1576748140560939,4,-6,-3,0,-4,2,-1,-4
1576748140582924,-4,-4,-4,2,-5,-1,4,-6
1576748140582924,-8,-5,-3,1,4,0,-1,-11
1576748140583872,-3,2,-2,-3,0,-7,-10,2
1576748140583872,0,3,-2,-5,-2,6,0,-2
1576748140597941,2,-1,0,-2,4,3,-1,2
1576748140597941,2,-4,-4,1,-4,3,-6,-1
1576748140598833,4,-5,-3,2,-3,-2,-11,2
1576748140598833,-2,2,0,-2,1,-2,-17,0
1576748140619883,0,-2,5,-2,-4,-10,-13,-4
1576748140619883,4,6,6,3,-2,-8,0,21
1576748140620774,-2,3,-1,1,1,-1,9,0
1576748140620774,-7,5,-7,-1,-3,-2,7,-5
1576748140643761,-4,1,-5,2,2,6,8,9
1576748140643761,-4,0,-1,0,4,4,7,-8
1576748140643761,-1,-3,-4,-3,-2,2,8,3
1576748140643761,4,-8,1,-2,-2,-4,8,3
1576748140657720,0,-5,-2,0,-4,-4,0,-8
1576748140657720,2,-5,-2,-1,-3,-8,-1,-4
1576748140658676,-5,4,1,-5,1,1,-1,-5
1576748140658676,-5,1,5,-5,-1,-4,1,-5
1576748140679722,-5,-2,2,-3,-1,0,2,5
1576748140679722,-2,-2,-4,1,2,4,0,-3
1576748140680614,2,3,0,3,4,6,3,1
1576748140680614,1,0,-3,1,48,6,-2,-3
1576748140703602,1,3,-3,1,28,7,1,-7
1576748140703602,5,0,1,-2,17,-6,2,4
1576748140703602,-2,2,1,0,-2,-3,2,-2
1576748140703602,-2,0,-1,1,-37,-1,2,-1
1576748140717617,1,-1,0,2,-27,-3,-4,13
1576748140717617,-3,-4,-3,-5,-15,-8,-4,-1
1576748140718515,-4,1,-2,-3,-17,-6,-2,-11
1576748140718515,5,-2,-1,-2,-9,0,1,3
1576748140740554,-2,0,-2,-3,-10,2,-2,-8
1576748140740554,1,-8,3,-4,-9,5,-1,3
1576748140740554,0,0,1,-2,5,-2,-1,1
1576748140740554,-8,-3,1,2,0,-2,-3,-6
1576748140763498,3,-6,-2,2,4,-2,-3,2
1576748140763498,-1,0,-3,-5,-2,3,-7,-5
1576748140764433,2,-3,-2,-2,3,0,-3,2
1576748140764433,-7,0,-2,-3,-1,3,-2,2
1576748140777357,-7,3,-1,0,-1,-1,1,-4
1576748140777357,-11,-3,-3,2,2,4,-2,-17
1576748140778356,1,-1,0,0,10,7,0,-1
1576748140778356,2,-1,0,0,-4,-4,-2,0
1576748140800298,5,4,2,-3,-1,-6,1,7
1576748140800298,4,4,-1,-2,-6,-10,4,7
1576748140801326,-1,1,2,-2,-9,-8,2,-4
1576748140801326,-4,-7,-3,-3,-4,-4,1,2
1576748140823332,-6,0,3,0,2,2,0,7
1576748140823332,0,0,-3,3,2,-1,0,-5
1576748140824235,2,2,-4,-1,0,-1,-4,3
1576748140824235,4,0,-1,1,0,-2,1,1
1576748140837197,3,3,2,2,-2,1,-2,16
1576748140837197,-4,-3,1,1,-5,-1,0,-6
1576748140838195,-1,-4,-1,0,-1,2,-1,-3
1576748140838195,5,2,0,-4,-3,6,-1,3
1576748140860238,3,-5,-2,-7,3,6,-4,-8
1576748140860238,2,1,-1,-5,3,1,-5,-1
1576748140861136,-3,5,-4,-3,0,-4,-4,-2
1576748140861136,-7,3,1,-3,-3,-9,-7,-6
1576748140883172,-5,-2,3,5,-2,1,-1,0
1576748140883172,5,-4,0,4,-2,7,5,5
1576748140884073,1,-7,-1,-3,5,0,6,-1
1576748140884073,2,-1,-6,3,-3,2,1,3
1576748140897038,-6,3,-8,2,-2,-4,-7,4
1576748140897038,-6,1,-1,-2,-9,-1,-3,4
1576748140905013,-5,-3,-1,-3,-3,0,1,1
1576748140905013,3,-3,-2,1,2,-5,2,9
1576748140920095,3,1,-1,-6,2,-10,1,-7
1576748140920095,-1,-1,-1,2,3,-7,3,4
1576748140920975,3,0,-3,5,0,3,-5,-3
1576748140920975,0,-5,1,1,-1,-1,-3,-3
1576748140943010,3,1,1,0,2,8,-1,-4
1576748140943010,3,2,-2,-2,-5,-2,-5,-5
1576748140943910,3,0,3,-3,-1,-3,-4,-4
1576748140943910,2,1,-4,-1,5,-3,2,11
1576748140956980,-9,0,-6,-4,0,-3,3,-3
1576748140956980,-3,2,-1,-5,0,-5,1,2
1576748140964959,-1,0,-1,-1,-5,4,2,5
1576748140964959,-1,-4,1,-2,4,7,-4,-13
1576748140979916,1,-7,1,-3,1,3,0,7
1576748140979916,-2,-5,-3,-1,2,-3,-1,0
1576748140980813,1,-8,1,1,-3,1,1,25
1576748140980813,-4,0,0,-1,-5,-1,-6,-9
1576748141003751,-1,0,1,4,-4,-2,-1,-6
1576748141003751,-4,2,1,3,-6,5,-2,-8
1576748141003751,-1,3,-5,1,-4,-1,-2,-5
1576748141003751,0,8,-1,-1,-4,3,2,5
1576748141016717,3,-3,-4,-3,1,-4,3,-1
1576748141016717,5,-3,-4,-2,7,-4,1,2
1576748141025692,-1,-5,0,3,0,-11,-2,-5
1576748141025692,-5,1,0,5,-5,-3,2,10
1576748141040651,-2,3,-2,2,-5,-11,0,-4
1576748141040651,4,0,1,-4,2,1,1,-2
1576748141040651,4,-1,0,0,4,5,-2,-8
1576748141040651,2,-2,3,-3,6,6,3,-5
1576748141063711,5,-5,2,-6,-1,2,-5,0
1576748141063711,2,-1,-4,-1,6,3,-5,6
1576748141063711,-8,5,-2,-3,1,-6,-10,-11
1576748141063711,-3,7,1,2,-2,0,-4,-7
1576748141076610,1,2,2,2,-5,-5,7,1
1576748141076610,1,1,2,4,-6,1,2,13
1576748141085579,-1,-7,-2,-3,0,2,4,-2
1576748141085579,-3,-7,-6,-5,1,-1,5,-9
1576748141100523,-2,-2,-1,-6,-4,2,-3,-5
1576748141100523,-1,-1,-4,-3,-4,-2,-1,-4
1576748141100523,-2,-4,-1,-1,-3,-6,-7,6
1576748141100523,-3,-10,1,-4,0,-3,-3,3
1576748141123431,-1,1,-3,4,-1,4,-2,2
1576748141123431,-5,3,0,5,4,2,3,-2
1576748141124428,2,4,0,2,1,1,4,-4
1576748141124428,-1,-4,-3,3,-2,5,-2,-2
1576748141136445,-4,-5,-3,2,1,-3,-4,-2
1576748141136445,-2,1,1,1,-5,-7,-1,-3
1576748141145425,-4,3,0,-2,3,0,-2,-2
1576748141145425,2,0,3,-2,6,-12,0,5
1576748141160331,7,-7,-1,-2,5,2,0,5
1576748141160331,1,-4,-3,-2,-2,1,0,-2
1576748141161329,-1,0,-4,1,-5,-3,5,4
1576748141161329,-2,7,-3,0,-7,-6,-1,-7
1576748141183373,-3,5,0,-3,1,-1,-2,-8
1576748141183373,-4,-1,-1,-5,-2,1,-3,-8
1576748141184316,1,3,1,-4,-8,-4,-4,-7
1576748141184316,3,-2,3,3,-4,0,1,4
1576748141197354,3,2,2,-1,-6,-1,4,6
1576748141197354,-3,-4,-2,0,-2,4,0,0
1576748141205213,-3,-2,-2,0,1,6,1,4
1576748141205213,0,0,-2,0,-7,1,-3,-3
1576748141220171,-2,-2,-1,-1,-3,-3,0,-7
1576748141220171,-2,-2,-1,-3,0,-2,0,4
1576748141221176,-4,-4,2,0,1,5,-1,-6
1576748141221176,1,-2,1,1,-2,2,-3,-6
1576748141243110,-8,-7,-1,-3,4,-1,-2,1
1576748141243110,-4,-3,1,-2,4,2,-3,6
1576748141244110,-3,-1,-4,-3,4,-4,1,-7
1576748141244110,-2,-3,1,3,1,-6,3,-6
1576748141266147,0,-3,-3,5,-6,-2,3,-12
1576748141266147,3,1,0,1,0,-12,1,-1
1576748141267046,3,-2,-1,-2,-3,-4,-3,2
1576748141267046,-3,3,-3,-1,0,1,-6,5
1576748141280066,-4,9,-3,-3,4,5,-3,1
1576748141280066,-4,0,-4,0,2,4,-4,-10
1576748141281056,2,2,-1,0,-1,-4,1,1
1576748141281056,0,-5,0,1,2,-1,-2,0
1576748141303001,2,-7,-2,-3,-5,1,0,-5
1576748141303001,4,0,-2,-2,-3,1,1,-5
1576748141303947,6,3,4,0,-2,2,-1,6
1576748141303947,0,-2,0,2,2,-4,1,2
1576748141325942,3,5,1,-2,-7,-4,-7,3
1576748141325942,-1,3,0,-1,-2,-5,-3,-1
1576748141326913,-2,-1,0,0,-8,1,0,0
1576748141326913,2,-3,1,-4,-3,0,-3,-3
1576748141339894,0,-2,2,0,3,1,0,5
1576748141339894,1,-5,-3,0,-3,0,1,-9
1576748141340850,-1,-1,-4,-1,1,-2,1,-6
1576748141340850,2,3,-5,1,3,0,2,5
1576748141362841,-2,2,-1,5,2,-5,-1,-1
1576748141362841,-3,0,3,1,1,-1,-6,6
1576748141363808,1,-3,0,4,1,2,-1,3
1576748141363808,0,0,-1,-4,-1,4,2,3
1576748141385780,0,-2,-2,-7,4,3,1,4
1576748141385780,3,5,1,-2,4,3,4,6
1576748141386725,-7,1,-2,-4,-1,-7,0,0
1576748141386725,-1,1,-4,1,-3,-3,0,-2
1576748141399740,1,6,-4,4,-1,-9,-4,-3
1576748141399740,2,1,0,5,-2,-9,0,0
1576748141400690,-1,2,-2,4,-5,-5,1,6
1576748141400690,0,-3,0,0,-4,-1,1,-4
1576748141422631,-1,-2,6,-2,-1,7,-1,1
1576748141422631,2,-2,1,-8,-9,4,3,0
1576748141423628,4,-4,0,-6,-4,1,-4,-6
1576748141423628,-2,-5,-2,-8,0,-2,1,2
1576748141445623,1,-3,-2,-4,-1,-3,3,3
1576748141445623,-2,2,-4,-2,-1,-4,-4,-4
1576748141446567,-1,-1,-4,3,-5,1,-4,-5
1576748141446567,0,-2,-2,2,-2,7,-6,0
1576748141460527,-2,-9,0,0,4,2,-5,-2
1576748141460527,-1,-3,0,-2,9,0,-2,1
1576748141460527,-3,0,0,-5,2,-1,-2,-1
1576748141460527,-5,4,1,-1,-2,-8,0,0
1576748141482574,-6,1,-3,2,0,-3,4,1
1576748141482574,-2,-4,1,2,0,-3,3,-4
1576748141483469,5,-4,-1,1,1,3,4,4
1576748141483469,2,2,0,-1,-1,1,-2,-3
1576748141505408,1,2,-3,-6,-7,-4,-3,-1
1576748141505408,-2,0,0,0,-1,-2,-2,-2
1576748141506406,-3,-4,-2,-2,1,1,-2,-2
1576748141506406,1,-12,-3,-6,0,4,0,1
1576748141520370,-3,-7,0,-4,-3,6,2,-8
1576748141520370,-3,1,-2,-5,-2,5,1,2
1576748141520370,2,2,2,1,3,0,1,5
1576748141520370,-1,3,-2,4,3,-8,1,5
1576748141542309,-3,5,-3,5,2,-6,-2,-1
1576748141542309,-4,-4,-4,4,-3,-6,-3,-4
1576748141543310,0,0,0,0,1,1,-5,-1
1576748141543310,2,5,1,-2,0,0,-1,-2
1576748141565301,0,2,1,-5,-3,1,-3,-4
1576748141565301,0,1,0,-4,1,-5,1,-1
1576748141566245,-4,1,-2,-4,2,-4,4,-1
1576748141566245,0,-2,0,-2,0,2,0,-2
1576748141580210,0,-2,0,1,-6,-4,4,4
1576748141580210,5,-4,2,6,-11,0,-2,-1
1576748141581207,0,-2,2,9,-8,-5,-3,-1
1576748141581207,0,1,-1,3,0,-3,-2,4
1576748141603173,-2,0,-3,-5,4,-2,-7,-1
1576748141603173,2,0,-3,-5,-5,-2,-2,-5
1576748141603173,-3,1,-4,-7,-4,-1,4,-10
1576748141603173,-4,-1,-1,-4,-3,1,1,-7
1576748141626204,0,0,-1,3,9,4,-1,-1
1576748141626204,-1,2,0,0,8,1,-3,5
1576748141626204,3,-1,-1,0,-3,0,-1,-2
1576748141626204,-2,-1,-3,0,-2,1,-1,-1
1576748141640148,-4,-11,-1,-2,5,1,-2,-1
1576748141640148,-2,-2,-3,3,8,2,0,0
1576748141641052,-5,-2,2,-3,-3,1,3,-2
1576748141641052,4,1,-2,-1,-2,-1,-1,2
1576748141663063,7,1,-2,4,-6,-6,-1,5
1576748141663063,5,-5,-1,-1,-7,-2,-3,3
1576748141663063,-3,-2,-3,-5,-3,-3,-6,1
1576748141663063,-6,4,1,-6,-4,1,-2,-5
1576748141693005,2,7,4,-1,-3,5,5,5
1576748141693005,-7,2,-1,0,-1,2,1,3
1576748141693906,-5,0,-3,2,1,-1,-2,-2
1576748141693906,4,2,-4,1,0,3,1,-6
1576748141699987,7,-2,0,2,2,1,1,-4
1576748141699987,1,-5,2,-5,-2,-7,-1,-4
1576748141700888,0,-7,4,-1,1,-7,-2,3
1576748141700888,-3,-5,1,2,4,-3,-4,3
1576748141722932,-4,0,-5,-1,1,-3,-3,-1
1576748141722932,0,0,-4,0,4,-4,-4,-1
1576748141723861,0,1,-4,-3,-3,-4,-4,-4
1576748141723861,3,1,1,0,-6,-4,-4,2
1576748141745868,5,1,0,-3,-6,2,-1,-1
1576748141745868,-3,-2,-1,-3,2,5,4,-6
1576748141746799,2,1,-1,-2,-5,-1,1,1
1576748141746799,-1,0,1,-2,-3,2,2,0
1576748141759833,-4,-1,-1,6,-2,2,-3,-2
1576748141759833,2,1,-5,0,-1,-4,-4,2
1576748141760727,-4,-5,1,1,7,-1,1,5
1576748141760727,-2,-5,-4,1,1,-5,-3,1
1576748141782773,-1,-1,-1,-7,0,0,0,2
1576748141782773,-1,1,1,0,-3,-1,0,-3
1576748141783701,-4,-1,-3,5,-4,3,1,-5
1576748141783701,-2,-1,2,-1,0,-2,4,-1
1576748141805609,-2,2,1,-5,-1,-1,1,-8
1576748141805609,5,-3,-2,-3,-1,-2,-3,-2
1576748141806611,3,-2,-1,0,3,-2,1,1
1576748141806611,-4,-1,-2,3,-1,-1,2,-2
1576748141820567,-3,-1,-3,2,-2,-4,-1,0
1576748141820567,1,2,1,-1,-2,4,-4,-3
1576748141820567,6,3,-2,1,-4,2,0,1
1576748141820567,-3,-6,-3,-3,-6,1,0,-2
1576748141842612,-5,-5,-4,-4,-4,0,-1,-1
1576748141842612,-11,-2,-5,-3,-2,2,-2,-1
1576748141843511,-2,0,-3,2,0,2,-8,-5
1576748141843511,2,-2,-4,-2,1,-6,-6,-1
1576748141865546,-1,1,2,0,-1,-3,-2,0
1576748141865546,0,-4,2,0,-1,0,3,4
1576748141866446,-8,0,0,-2,2,-4,4,6
1576748141866446,2,3,0,1,-4,5,3,-5
1576748141879509,4,-1,0,-1,-1,0,3,-6
1576748141879509,-1,0,0,0,1,0,0,7
1576748141887389,-3,0,2,2,2,1,0,-7
1576748141887389,-1,-1,2,2,0,0,-6,-4
1576748141902453,-5,-1,-1,-2,1,-6,-4,0
1576748141902453,2,4,-1,-1,-3,-4,-3,-1
1576748141903349,-2,2,-1,-7,-2,5,0,-2
1576748141903349,-2,-2,1,-1,-2,1,1,1
1576748141926331,6,-4,0,2,-3,-1,1,4
1576748141926331,0,-2,-3,-8,-6,-11,1,-3
1576748141926331,1,-3,-2,-2,-1,-9,-4,-4
1576748141926331,1,1,-2,-2,3,-7,1,0
1576748141939348,0,4,-2,2,4,-3,-2,-5
1576748141939348,-2,1,-1,2,2,0,-4,-7
1576748141948225,1,2,-3,-4,-1,9,-1,3
1576748141948225,-2,-1,-1,-5,-2,11,-1,1
1576748141962292,-6,-6,4,3,-5,-1,-4,4
1576748141962292,-4,-2,3,-2,-7,-3,-2,2
1576748141963185,-5,-1,1,0,0,-6,-4,-1
1576748141963185,-2,1,0,3,5,-8,2,5
1576748141986246,-5,2,-3,1,-2,-2,2,-1
1576748141986246,6,5,-2,2,3,10,0,2
1576748141986246,11,3,-3,-1,-5,1,-2,0
1576748141986246,-3,-1,-6,-4,1,0,-2,-2
1576748141999190,5,-3,-2,-2,-1,-2,-5,-1
1576748141999190,1,-4,-2,-2,-1,-5,-4,-5
1576748142008110,0,-4,1,-1,1,2,-2,-14
1576748142008110,-2,0,4,1,-5,6,-5,-3
1576748142023077,-1,6,-4,2,-3,8,0,-3
1576748142023077,-1,-1,-3,2,-5,-1,1,-1
1576748142023077,-4,-2,-3,-2,0,-4,3,-5
1576748142023077,-1,-2,0,1,4,-2,4,-7
1576748142046069,0,-2,-2,-3,-3,-1,7,3
1576748142046069,-5,2,-4,-4,0,-4,4,-1
1576748142046997,2,1,0,-2,7,-7,3,4
1576748142046997,0,-1,-3,-3,3,-7,-4,-2
1576748142059926,-2,0,0,2,1,-1,-11,-2
1576748142059926,4,1,2,2,-4,0,0,1
1576748142068002,-1,-2,2,3,-8,-1,0,-1
1576748142068002,-3,2,2,-1,-6,-3,3,5
1576748142082908,-1,-4,2,1,5,-1,-1,-2
1576748142082908,-1,-3,-2,-2,4,5,-3,-2
1576748142083863,0,-3,-5,1,-1,1,-3,6
1576748142083863,0,-1,-2,1,-1,4,-2,6
1576748142105846,0,0,-2,-3,-2,-4,-2,-3
1576748142105846,-6,-2,-3,0,-3,-4,0,-8
1576748142106803,1,-2,4,0,-1,-2,1,0
1576748142106803,0,-3,-3,-5,-7,-3,-3,1
1576748142119799,0,-6,-5,-4,-1,1,4,-2
1576748142119799,-3,-7,1,-2,-3,-3,-4,-2
1576748142127787,-1,0,-3,-2,1,-7,-3,-2
1576748142127787,-4,-1,-1,-2,3,-7,-4,-15
1576748142142750,-6,-1,-3,-2,2,5,0,-2
1576748142142750,-1,-1,-3,-1,0,1,-2,1
1576748142143705,-3,-2,-2,1,-8,1,-1,7
1576748142143705,3,1,2,1,-2,1,0,-1
1576748142165686,5,8,3,1,-4,-5,3,13
1576748142165686,-2,1,-3,5,0,-3,3,-5
1576748142166644,1,1,0,2,-1,1,-5,0
1576748142166644,-4,-3,-1,-6,-6,2,0,1
1576748142179650,-10,-6,-2,-6,-5,-3,-3,-6
1576748142179650,1,-5,-4,-3,0,2,0,3
1576748142187587,-4,1,-1,-1,1,4,2,-4
1576748142187587,1,2,-3,3,10,8,2,0
1576748142202579,-2,-1,-2,4,-1,-2,0,-2
1576748142202579,-2,1,2,3,-1,-3,2,2
1576748142203541,1,1,2,2,2,-2,-2,-14
1576748142203541,1,0,-1,-2,2,-4,-2,-9
1576748142225526,13,2,0,-8,-3,2,-3,-1
1576748142225526,3,0,2,-4,-6,0,-7,1
1576748142226485,-7,-4,-1,-4,0,-2,-1,6
1576748142226485,-6,-4,-1,1,-1,-6,2,4
1576748142248463,-2,-2,-5,5,4,-8,0,-2
1576748142248463,-3,-3,-1,4,2,-5,-3,-8
1576748142249421,3,-1,-2,1,0,1,2,4
1576748142249421,-4,0,-1,1,-1,5,1,-2
1576748142263425,-6,-4,-2,-1,3,-4,-1,-2
1576748142263425,3,3,2,-3,-4,0,0,3
1576748142264379,2,4,2,-3,-1,0,-3,0
1576748142264379,3,1,-1,-6,-3,2,-1,2
1576748142286320,10,2,0,-2,-3,7,5,9
1576748142286320,-5,-2,-3,2,9,-2,1,-8
1576748142286320,-3,-3,-4,0,6,-5,0,0
1576748142286320,0,-1,0,1,-3,-7,-2,6
1576748142308305,-2,3,3,5,-8,2,1,-4
1576748142308305,-3,-1,-2,0,-4,1,2,5
1576748142309260,-7,-3,-1,-2,-7,9,-3,-1
1576748142309260,-2,-3,2,-2,-2,-3,-5,2
1576748142322268,-3,-5,0,2,-3,-4,-5,-2
1576748142322268,7,1,-3,1,-4,-5,-1,-6
1576748142323223,2,2,-3,-3,-2,-9,1,-8
1576748142323223,0,2,1,-2,2,0,1,-2
1576748142346197,-2,0,-1,-6,5,-1,0,-4
1576748142346197,-4,-3,-3,-3,4,2,5,3
1576748142346197,0,0,-2,-1,-3,-1,-1,1
1576748142346197,-2,-1,-4,1,-3,7,0,2
1576748142368143,-2,-2,-3,-5,-4,3,-6,-5
1576748142368143,1,-1,0,-2,-3,4,-1,-2
1576748142369103,3,-3,1,-3,-3,-7,1,1
1576748142369103,5,-2,0,-1,-5,-6,1,1
1576748142383067,-2,2,0,-2,0,-3,-2,3
1576748142383067,3,6,-3,0,-3,2,-2,3
1576748142383067,1,1,-1,5,0,-2,3,-3
1576748142383067,-4,-4,-2,2,-3,-6,2,-8
1576748142406045,2,0,1,-4,-2,-6,-4,-5
1576748142406045,-1,2,3,-1,-3,-3,-11,3
1576748142406997,-6,2,3,-3,-4,5,-6,-1
1576748142406997,-8,1,0,-4,-1,6,-1,-3
1576748142427985,-7,-5,-2,-1,0,2,1,-3
1576748142427985,3,2,-1,3,4,-3,5,-1
1576748142428940,7,0,-5,1,1,-2,0,0
1576748142428940,4,-2,-4,0,2,-2,2,2
1576748142442947,-1,-1,-1,0,1,1,2,-5
1576748142442947,0,-6,3,-2,2,-1,0,-3
1576748142443898,0,-3,-2,-1,5,-1,1,14
1576748142443898,-5,3,0,0,5,3,3,2
1576748142465884,2,5,2,0,-6,-2,-1,3
1576748142465884,-4,1,1,-3,-7,-4,-1,1
1576748142466842,-7,-1,-2,-6,-3,0,0,-2
1576748142466842,-1,-4,-4,-4,-2,-8,-5,1
1576748142488778,3,-4,-5,0,-6,-1,-1,3
1576748142488778,-4,-5,-2,3,-5,2,0,-1
1576748142488778,0,2,2,-1,1,0,0,-6
1576748142488778,2,-1,-2,1,4,-1,-6,-8
1576748142502785,0,-2,2,4,9,3,-5,-5
1576748142502785,1,-6,0,-4,4,1,-3,0
1576748142503742,-1,0,-2,-4,-3,3,-7,-6
1576748142503742,0,-2,-1,-4,-8,6,-3,0
1576748142525725,-1,-1,0,6,-3,2,2,-2
1576748142525725,1,4,-3,-2,-1,-6,3,3
1576748142526682,-5,1,1,-3,1,-3,1,-3
1576748142526682,1,-4,0,-5,-5,-5,1,0
1576748142548665,-4,-3,-4,-4,-5,-2,2,2
1576748142548665,-1,1,-1,-2,0,1,-1,5
1576748142548665,1,-5,0,1,-1,0,-3,0
1576748142548665,6,-2,-1,3,2,-1,-4,4
1576748142562627,4,2,1,0,-1,-7,-3,-3
1576748142562627,-3,3,0,4,-4,1,-4,0
1576748142563580,-6,-2,2,1,-1,2,-2,8
1576748142563580,-5,1,1,1,1,2,1,-9
1576748142585519,-2,2,2,0,7,1,5,-2
1576748142585519,2,3,-3,-6,-3,1,1,-11
1576748142585519,1,-3,-3,-2,-2,-4,-4,-8
1576748142585519,5,0,-1,-3,-4,-1,-4,4
1576748142608505,0,-3,-4,-5,-1,-7,-2,5
1576748142608505,0,-2,1,-4,-2,-3,-5,-4
1576748142609459,-3,0,-2,2,-4,3,3,3
1576748142609459,-3,0,3,-2,0,-3,7,-1
1576748142622464,1,2,-3,0,0,1,-4,-4
1576748142622464,1,-6,-3,2,5,5,0,-3
1576748142623423,-1,1,-7,2,6,-2,-3,0
1576748142623423,-7,0,-3,3,0,0,-3,-4
1576748142645405,-3,-3,-1,1,-2,4,-3,-4
1576748142645405,0,-3,2,0,-6,-1,-3,-5
1576748142646358,2,2,2,0,0,-1,0,-6
1576748142646358,-2,2,0,0,-1,-4,4,3
1576748142668342,-4,-2,1,-5,2,-6,5,2
1576748142668342,-7,1,-1,-2,3,-2,-4,3
1576748142669300,-5,-2,2,0,3,3,-2,-1
1576748142669300,-3,-3,-3,-1,-3,-7,-4,2
1576748142682307,6,-5,-4,-3,-3,1,1,2
1576748142682307,-1,-1,0,-2,-4,5,1,-2
1576748142683260,7,4,0,-2,-5,6,4,4
1576748142683260,0,2,-1,-3,-4,3,1,-4
1576748142705243,-2,3,-1,-1,-2,-1,-1,4
1576748142705243,-1,1,0,0,2,-7,-1,2
1576748142706201,4,-1,-1,2,1,-2,-2,-8
1576748142706201,2,-1,0,2,3,-6,-1,2
1576748142728182,-1,-1,-5,0,-8,-2,4,-1
1576748142728182,3,-3,-1,2,-10,3,1,4
1576748142729140,-3,-3,-1,-1,-7,1,-1,-4
1576748142729140,-4,3,1,-4,-1,7,-4,-4
1576748142743099,-4,3,2,-3,3,-5,-1,-7
1576748142743099,0,1,1,-4,2,-5,-1,3
1576748142743099,0,-2,-3,-2,-2,-3,1,-4
1576748142743099,10,-2,-1,0,-1,3,-2,15
1576748142765085,-2,-6,-2,2,-1,5,-2,1
1576748142765085,-3,0,-1,-2,6,2,3,4
1576748142766041,-7,-2,-3,0,6,-2,1,1
1576748142766041,-4,-2,-4,0,2,-4,-1,-8
1576748142788024,-1,-1,-1,-1,4,2,-3,-4
1576748142788024,3,-1,-3,3,0,3,-2,-8
1576748142788980,-1,0,1,0,7,2,-1,10
1576748142788980,-2,0,-2,3,-3,-1,-1,2
1576748142801986,-3,-2,-3,-2,-6,-7,-4,-2
1576748142801986,-2,-3,-1,-4,-7,-7,-5,4
1576748142809966,-1,-1,-2,-1,-9,-9,-1,-2
1576748142809966,-7,-5,-2,-1,-3,2,0,-2
1576748142824923,1,-1,-1,-4,-3,-4,3,-3
1576748142824923,0,-1,-1,-1,-2,2,6,-8
1576748142825881,2,-3,0,-3,2,3,9,3
1576748142825881,2,-3,-1,-4,5,0,2,-1
1576748142848816,-2,2,0,-1,1,0,-6,-2
1576748142848816,-4,-2,-4,-1,0,-5,-5,-2
1576748142848816,2,-3,1,-2,-3,-2,-4,1
1576748142848816,5,0,1,-2,-1,1,-5,1
1576748142861824,0,2,0,2,3,1,-1,11
1576748142861824,4,0,-2,2,1,1,2,4
1576748142869759,-5,-1,-1,-1,-1,2,0,-3
1576748142869759,-3,3,2,-1,0,0,1,-3
1576748142884765,2,-1,2,2,2,0,1,-2
1576748142884765,3,-2,2,1,-4,-6,0,5
1576748142885719,3,2,-2,-3,-6,-4,-2,-5
1576748142885719,2,-4,-3,-4,-3,-2,-2,0
1576748142908691,1,2,2,-4,-2,4,-3,9
1576748142908691,5,2,0,-1,6,-2,2,1
1576748142908691,2,-4,-1,-1,-2,-5,2,0
1576748142908691,-2,0,0,2,0,-7,-2,0
1576748142921667,-3,-4,-3,2,-2,1,-3,-4
1576748142921667,-1,-1,-2,1,-5,4,-5,-1
1576748142930597,-2,0,-4,-5,-2,-1,-2,-5
1576748142930597,-2,3,-1,6,-6,-3,4,-5
1576748142945580,0,-6,-1,0,-3,-1,5,0
1576748142945580,-5,-4,1,-4,-1,-3,-3,-1
1576748142945580,0,-3,-1,-1,2,-3,-5,-3
1576748142945580,2,2,1,4,-1,0,-2,1
1576748142968539,-3,4,1,0,-5,-1,0,-4
1576748142968539,1,1,0,3,3,5,-4,-4
1576748142969495,-8,-3,0,2,3,-1,-2,2
1576748142969495,-1,-2,-2,-3,4,-1,-3,-3
1576748142981504,-2,4,-1,1,1,3,-2,-4
1576748142981504,2,0,-5,-3,0,-10,1,-4
1576748142990478,10,2,0,-4,-7,-8,2,1
1576748142990478,4,-4,-2,-5,-1,-6,1,0
1576748143005441,1,-3,0,-1,5,-3,4,1
1576748143005441,-10,0,2,-2,-3,0,1,2
1576748143005441,-8,-1,2,2,5,9,-1,-6
1576748143005441,6,4,-1,3,2,1,-3,0
1576748143028381,0,-5,-4,-2,-2,2,-6,1
1576748143028381,0,-3,-2,1,2,1,-2,-4
1576748143029337,1,-1,-1,0,1,-2,-2,0
1576748143029337,-6,-7,-1,-4,-5,9,3,-4
1576748143042341,-6,2,-1,-3,2,-4,-3,4
1576748143042341,-6,0,0,2,3,0,2,-4
1576748143050321,-1,1,0,-1,0,4,-1,3
1576748143050321,-2,-2,0,-6,-3,1,-4,-1
1576748143065283,4,-4,1,-1,-8,-7,-5,-8
1576748143065283,4,0,-3,0,-4,-4,0,2
1576748143066238,1,1,0,4,-2,-6,-1,0
1576748143066238,-5,1,-1,-1,1,-3,0,4
1576748143088220,4,4,-2,-1,0,-2,-5,1
1576748143088220,0,4,-4,-6,-1,-1,0,1
1576748143089178,1,1,-1,-1,3,2,2,-3
1576748143089178,3,-2,-2,0,2,3,2,3
1576748143102180,-1,-4,-4,4,1,-4,2,2
1576748143102180,-6,-1,-4,4,-4,1,0,-1
1576748143110159,1,-3,-2,-2,0,2,-2,-7
1576748143110159,-2,0,-1,-3,-4,-5,-5,-8
1576748143125121,-5,-6,-1,-4,4,-5,-1,-8
1576748143125121,-4,-5,1,-2,-1,-4,-4,-3
1576748143126079,-5,0,-1,0,-7,3,-5,-9
1576748143126079,-2,3,-2,0,-4,5,-1,2
1576748143148060,0,3,0,2,3,5,1,3
1576748143148060,1,0,2,1,0,0,-1,3
1576748143149015,-7,-3,-1,-4,-3,3,-1,3
1576748143149015,-1,-5,0,1,3,2,-2,-8
1576748143170956,3,1,-6,-6,-5,-4,-2,4
1576748143170956,-1,-1,-1,-1,-3,-5,-2,-13
1576748143171954,8,2,-1,0,0,-6,-3,-4
1576748143171954,3,-1,1,-4,1,-5,-1,7
1576748143184918,-2,-2,1,-5,-1,2,0,8
1576748143184918,-1,-2,-7,-2,-2,3,2,-1
1576748143185916,-2,0,-3,3,1,-2,2,-4
1576748143185916,-3,-1,1,5,3,-3,3,-2
1576748143207857,-2,1,2,5,2,-3,1,-14
1576748143207857,0,0,0,-1,-6,-2,5,3
1576748143208855,3,2,-2,-5,-10,-2,4,22
1576748143208855,-2,0,-2,-3,-7,3,2,6
1576748143230795,-5,0,-3,0,-3,5,2,-3
1576748143230795,2,-2,1,-1,5,1,-4,-2
1576748143231793,-2,-1,1,5,1,-2,0,0
1576748143231793,5,3,-3,0,4,-5,-3,-3
1576748143244758,8,-3,-1,0,-1,-3,0,0
1576748143244758,0,0,-1,-5,1,3,0,-2
1576748143245756,1,-3,0,-4,2,3,1,6
1576748143245756,-12,-6,0,1,-6,0,-3,-2
1576748143268694,-4,-3,-1,0,-2,0,-1,-1
1576748143268694,3,1,-1,0,0,-1,0,0
1576748143268694,2,1,1,1,3,-5,-1,-5
1576748143268694,1,2,-2,0,3,0,-4,-5
1576748143290636,-1,3,-1,4,-3,2,-4,5
1576748143290636,-1,-1,-3,1,-4,-7,-2,-2
1576748143291634,-3,-5,-4,0,-5,-7,-3,-2
1576748143291634,4,1,-3,2,-3,-3,2,0
1576748143305596,-7,-1,-3,-5,-7,1,-2,6
1576748143305596,-7,-3,-2,-1,-2,3,-2,-2
1576748143305596,-3,-3,1,-2,6,11,-1,-6
1576748143305596,1,2,-1,-3,5,0,-8,0
1576748143328535,4,-2,1,-2,1,-10,0,-5
1576748143328535,5,0,0,-3,-2,-9,0,3
1576748143329532,0,0,1,1,-1,0,-3,4
1576748143329532,-5,1,-1,-2,0,4,-1,-3
1576748143350475,-2,5,2,-3,2,6,0,-17
1576748143350475,-2,-1,-3,-6,1,8,0,0
1576748143351473,0,0,-1,-2,-4,-7,-2,-8
1576748143351473,3,-3,-3,0,-8,-2,-1,0
1576748143365436,-1,-3,-4,-1,-2,-3,-3,-2
1576748143365436,2,-4,4,0,0,-2,-2,5
1576748143365436,-3,-7,-2,-2,5,-3,2,3
1576748143365436,-5,-1,-2,0,-3,-2,2,4
1576748143388375,2,1,0,-1,-9,-5,2,4
1576748143388375,-3,0,0,-3,-1,-2,-3,-5
1576748143389372,-3,3,-2,-2,1,-1,-3,-2
1576748143389372,3,-2,2,1,9,-1,0,-2
1576748143410316,-5,0,-1,4,5,2,0,0
1576748143410316,-4,4,1,1,-2,-1,3,3
1576748143411313,1,4,1,-5,-5,-2,1,-1
1576748143411313,3,-2,-2,-4,-2,-5,2,6
1576748143425275,6,-7,-1,0,-2,1,2,11
1576748143425275,3,-2,-2,4,-3,-1,-6,0
1576748143426273,3,-4,0,4,-2,-11,3,5
1576748143426273,-8,-2,-1,2,3,-3,-1,-5
1576748143448214,-2,2,-1,-2,4,1,-4,-4
1576748143448214,1,-2,3,0,-1,1,-2,-5
1576748143449212,1,-1,-1,-4,-2,3,0,1
1576748143449212,-3,-3,-1,-3,-4,-6,-4,-1
1576748143471153,-1,1,-1,-6,-8,-6,2,-1
1576748143471153,6,3,0,-3,-1,2,1,3
1576748143471153,2,5,-2,-2,-4,4,-2,-2
1576748143471153,0,2,1,1,3,7,0,-1
1576748143485115,-1,1,2,5,7,3,1,2
1576748143485115,-5,-1,-2,3,7,-3,1,-2
1576748143486114,-7,0,-2,2,7,7,-1,0
1576748143486114,-7,0,-2,-3,-5,-1,-2,-4
1576748143508054,10,2,2,-5,-8,1,-3,9
1576748143508054,2,-3,-2,-5,-7,-6,0,-4
1576748143509052,-4,-2,-3,-2,0,-6,-3,-4
1576748143509052,-4,0,-1,-2,-1,-4,-2,1
1576748143530993,-1,-4,1,-6,-1,-1,1,-3
1576748143530993,3,-1,-2,-3,-3,4,2,-12
1576748143531991,5,-3,-2,1,-2,7,-4,15
1576748143531991,-1,0,0,1,-2,7,-3,-11
1576748143543959,-7,-2,-6,1,2,3,-4,-3
1576748143543959,-5,-2,-5,1,-3,-8,1,1
1576748143552934,1,-3,-1,1,-8,-10,-1,-9
1576748143552934,4,-2,-2,-2,-3,-6,-1,1
1576748143567894,3,-4,-5,-1,4,-5,-2,-3
1576748143567894,5,4,0,0,2,-5,-3,-2
1576748143568892,-3,-2,-2,-1,-2,4,-5,-9
1576748143568892,-3,-3,4,0,-5,4,-1,1
1576748143590833,-2,0,1,1,-4,6,-1,-4
1576748143590833,-7,-5,-1,3,0,7,-5,3
1576748143591831,-1,-1,1,1,1,-1,0,1
1576748143591831,3,0,-1,-2,-1,0,0,4
1576748143604796,-3,-2,2,-3,4,-3,3,3
1576748143604796,-7,-1,-2,-1,-2,3,2,1
1576748143605793,4,2,-3,-5,4,-5,-2,-3
1576748143605793,5,6,-2,0,-2,-9,-1,-1
1576748143628732,-7,1,-4,1,-8,-13,0,-5
1576748143628732,0,-4,-2,1,-4,-11,0,-4
1576748143628732,-8,-2,-1,0,1,-3,1,1
1576748143628732,-3,-5,-1,-4,2,-2,0,1
1576748143650673,-2,-1,-3,-2,-3,-1,-3,7
1576748143650673,1,5,1,-1,4,3,-6,-14
1576748143651671,3,1,-1,-2,2,3,3,0
1576748143651671,-1,2,-1,2,0,3,4,-4
1576748143664636,6,0,5,1,1,3,-1,9
1576748143664636,-1,-7,2,-3,-5,0,0,-1
1576748143665634,-3,-4,0,-2,-9,2,-1,-10
1576748143665634,-4,-4,-4,-1,1,-3,-4,0
1576748143688614,-2,-2,-5,-4,-2,3,-7,-5
1576748143688614,7,2,-1,-2,2,5,-2,7
1576748143688614,-1,-1,2,-1,-4,1,0,5
1576748143688614,1,2,1,-4,-5,-1,1,6
1576748143710555,-6,3,-4,-1,3,-2,-4,0
1576748143710555,-2,3,-2,1,0,-11,-3,7
1576748143711513,-4,1,-1,4,-2,-7,-3,-5
1576748143711513,2,-2,-3,3,-1,-6,1,-15
1576748143725506,1,-3,-1,4,5,-1,4,4
1576748143725506,-1,-2,0,-2,2,-1,5,4
1576748143725506,-6,-4,-2,-3,-4,0,-1,-8
1576748143725506,7,0,2,-4,1,1,5,5
1576748143748452,2,5,-1,-2,-4,1,-7,-18
1576748143748452,-7,-1,-1,0,-2,-2,0,-2
1576748143749416,-3,-2,-2,-2,7,2,-1,0
1576748143749416,-2,0,-2,-1,6,4,-3,12
1576748143770355,5,-3,-4,-2,1,2,2,-5
1576748143770355,1,0,-3,-4,-8,2,0,-2
1576748143771351,3,0,1,-5,-9,1,2,5
1576748143771351,-2,-2,-2,-5,-9,3,1,-2
1576748143784357,0,-2,0,-1,-2,2,3,-1
1576748143784357,1,0,-3,0,2,-7,-7,4
1576748143792341,2,0,1,0,1,-8,-3,-5
1576748143792341,4,-3,-1,2,1,-7,-6,-1
1576748143807298,-2,-4,-4,0,-8,-6,-1,-5
1576748143807298,-4,1,2,3,-2,-1,0,11
1576748143808254,-9,-4,1,2,-3,-4,2,-4
1576748143808254,-4,0,-1,0,-2,2,-1,2
1576748143831224,3,-1,1,2,1,9,4,-1
1576748143831224,4,-3,-2,-1,5,-1,-1,-5
1576748143831224,2,0,-3,1,6,-3,-2,2
1576748143831224,-3,0,-1,1,1,-5,-7,-15
1576748143844194,0,0,-1,1,-2,-7,3,7
1576748143844194,-7,-4,-4,-3,-5,1,-2,-9
1576748143853130,0,3,1,-2,2,3,-4,1
1576748143853130,-6,-1,-2,2,3,6,-2,-4
1576748143868124,-2,0,-2,-2,3,-2,-9,5
1576748143868124,0,0,-1,-1,-2,-2,-1,11
1576748143868124,1,1,-2,1,-5,-71,4,-6
1576748143868124,-2,0,-1,-4,-6,-46,4,-4
1576748143891073,-1,5,0,-1,-1,-9,0,4
1576748143891073,8,0,-1,-2,-2,11,0,-2
1576748143892025,-1,-4,-1,-4,-6,18,-6,-2
1576748143892025,4,-3,-1,-1,-1,20,1,26
1576748143904029,-7,-5,-4,3,-1,1,3,-4
1576748143904029,-5,0,2,4,7,12,-1,-9
1576748143913015,2,-3,1,1,9,18,4,-1
1576748143913015,2,1,1,-2,1,3,-5,-4
1576748143927974,3,0,0,0,-5,9,-5,1
1576748143927974,1,-2,-4,-3,0,3,4,0
1576748143927974,4,3,-3,-1,-1,11,4,1
1576748143927974,4,-2,-1,-3,-1,-3,-2,-18
1576748143950914,3,1,-6,-5,-6,-8,0,7
1576748143950914,-3,0,-1,-4,-2,-9,-4,-8
1576748143951871,-8,2,1,1,-4,8,-8,-4
1576748143951871,-10,-3,1,0,1,9,-10,-17
1576748143964865,-7,-2,0,2,3,-1,-5,4
1576748143964865,-3,1,-2,3,-5,-10,0,6
1576748143972811,-3,-1,-7,-3,-7,6,3,-3
1576748143972811,6,-2,-3,-2,-8,5,-6,10
1576748143987772,3,-4,-1,-1,0,-6,2,-10
1576748143987772,1,-6,-1,-3,2,-2,2,-5
1576748143988769,0,2,0,0,2,6,-1,5
1576748143988769,-5,-4,2,-7,3,2,2,-2
1576748144010710,2,1,3,0,4,-1,1,17
1576748144010710,1,5,1,3,6,-1,2,3
1576748144011708,-4,0,-4,3,2,3,-1,8
1576748144011708,0,-2,-3,4,-1,-1,5,14
1576748144024673,5,0,-2,-1,-6,2,-5,9
1576748144024673,-1,1,-3,-2,-6,-2,3,-2
1576748144032651,6,0,0,-7,-3,-3,-3,-2
1576748144032651,0,0,1,-1,-3,7,0,2
1576748144047611,-6,-6,-1,2,-1,6,-5,-7
1576748144047611,-7,-1,1,1,-2,0,-3,-7
1576748144048609,-4,4,-3,2,5,-7,-1,-6
1576748144048609,1,4,-3,1,5,-15,1,-1
1576748144070550,0,0,3,0,2,-11,1,-8
1576748144070550,-1,-1,3,2,2,-7,-4,0
1576748144071548,-4,-5,1,-1,-5,1,-1,2
1576748144071548,-5,-4,-4,1,-2,5,-5,-6
1576748144093489,0,1,0,-3,-1,2,1,-2
1576748144093489,1,0,2,2,4,10,2,4
1576748144094487,5,0,0,-2,-1,1,-3,0
1576748144094487,-2,-1,-3,0,-5,-8,0,-7
1576748144107451,1,-1,-6,0,-6,-6,-4,-13
1576748144107451,1,-3,-3,-7,-2,-9,-4,0
1576748144108450,3,-4,-1,-2,6,4,0,-7
1576748144108450,-8,3,1,2,3,6,3,7
1576748144130390,-10,-3,0,-1,-1,0,-2,-7
1576748144130390,-2,-1,0,-3,-6,-2,-1,-8
1576748144131388,0,-2,0,-1,-4,1,-2,-12
1576748144131388,3,3,-1,-2,-1,3,-1,-1
1576748144153330,-6,0,-1,-2,-1,-2,-3,-6
1576748144153330,0,-1,-1,-1,-4,1,2,3
1576748144154327,0,-2,0,0,4,-7,1,0
1576748144154327,4,-5,-3,-3,-1,-4,-1,8
1576748144167291,2,2,-1,0,1,-1,-2,-4
1576748144167291,-6,-5,-5,-1,-1,3,-4,-10
1576748144168289,-1,1,-1,-1,0,6,5,-1
1576748144168289,-7,2,0,0,-6,4,4,-3
1576748144191236,2,0,2,1,-1,7,5,11
1576748144191236,-4,-1,0,-1,-3,-1,2,2
1576748144191236,-3,-3,-2,1,-8,-8,-1,-2
1576748144191236,8,2,0,-2,1,-5,0,-2
1576748144213201,4,-3,-3,-2,-1,-3,-4,-2
1576748144213201,-5,-1,-1,3,9,2,-6,1
1576748144214165,-5,-4,-4,0,3,2,-6,4
1576748144214165,-2,0,0,-3,-3,-6,-2,-3
1576748144227171,-1,-1,0,-2,-6,-3,-5,-9
1576748144227171,9,-1,1,1,4,2,0,3
1576748144228127,-6,-1,-2,0,-2,6,2,1
1576748144228127,-2,-5,0,0,1,3,-1,3
1576748144251107,-2,3,-1,-2,-4,2,3,0
1576748144251107,-2,-1,-2,-3,-8,-4,-2,-13
1576748144251107,4,1,1,-4,-2,2,7,-1
1576748144251107,-7,-3,-2,-6,-1,-3,4,-14
1576748144273052,-7,2,0,1,2,1,-1,0
1576748144273052,-3,1,-3,2,-5,-2,-11,-1
1576748144274011,5,4,0,-1,2,0,-8,11
1576748144274011,1,0,0,2,4,-1,-8,0
1576748144288013,3,-2,-2,-4,5,-6,2,2
1576748144288013,6,0,0,-4,-2,-9,5,4
1576748144288013,3,-7,-2,-3,-2,-8,1,-1
1576748144288013,-2,2,0,-1,0,-2,0,5
1576748144310950,-8,-3,-2,3,-3,-2,-7,-5
1576748144310950,-1,-3,-1,2,-5,-5,-1,2
1576748144311906,4,-3,1,1,-4,0,-1,-2
1576748144311906,2,-6,0,-4,-3,-3,-4,-4
1576748144332892,5,-2,0,-4,0,-3,-1,6
1576748144332892,-3,1,-4,-4,-4,-1,3,12
1576748144333850,-7,0,-2,0,4,1,-1,1
1576748144333850,0,2,-3,3,4,3,-1,4
1576748144355829,-3,1,0,3,-7,0,-6,-11
1576748144355829,4,2,1,0,5,-2,-5,-2
1576748144356786,4,1,0,-1,0,-9,2,-4
1576748144356786,4,2,-1,-1,4,-5,1,0
1576748144370787,0,-1,-3,-6,6,-6,6,4
1576748144370787,-3,-3,-1,-5,-2,-1,5,-1
1576748144371748,-7,-3,-5,-4,-6,2,-5,-12
1576748144371748,-4,-5,-3,-4,-2,3,-3,-10
1576748144393740,1,-2,2,-1,3,8,3,3
1576748144393740,-1,2,-1,1,-4,10,1,-7
1576748144393740,-2,-1,4,4,-1,7,-4,-5
1576748144393740,2,-4,1,2,-5,6,-1,22
1576748144407693,-2,-3,-3,0,-2,-2,-5,4
1576748144407693,-2,-2,-2,2,1,-2,-2,-4
1576748144408648,-5,1,-5,-1,1,2,1,-6
1576748144408648,-2,4,-3,-1,-1,4,2,-6
1576748144430629,2,-1,-1,-3,-1,0,0,0
1576748144430629,3,-5,0,-2,-1,2,0,3
1576748144431587,-3,-3,-2,1,-7,-1,1,-2
1576748144431587,0,1,-2,1,-10,-4,-2,-24
1576748144453528,-1,1,-2,-1,1,-8,4,0
1576748144453528,-10,-2,-3,-8,2,-8,-2,-8
1576748144454521,4,-2,-1,-5,1,-2,-4,6
1576748144454521,2,1,-2,-1,1,0,-4,-1
1576748144467531,-2,-3,-4,0,-5,5,2,-2
1576748144467531,8,4,1,5,5,7,-3,5
1576748144468489,2,0,-1,-1,0,-8,-3,-1
1576748144468489,-4,-4,1,-2,1,-8,2,4
1576748144490466,-3,0,4,-2,2,-1,4,-1
1576748144490466,-6,-3,1,-3,2,1,1,-2
1576748144491425,3,5,-1,-3,1,1,2,-1
1576748144491425,3,2,0,0,2,2,11,24
1576748144513408,-2,-2,-6,1,-3,-3,10,2
1576748144513408,-4,-4,-3,4,1,0,2,-5
1576748144514366,1,-4,1,6,0,-1,-4,7
1576748144514366,-5,-6,2,1,-4,-5,-14,-5
1576748144527370,6,-5,2,-2,-2,0,-7,3
1576748144527370,3,0,-1,-4,0,0,-1,-10
1576748144528326,-1,1,-2,-2,-2,5,0,-4
1576748144528326,4,5,-4,-1,2,6,-8,11
1576748144551262,-2,8,-6,-5,4,0,-5,0
1576748144551262,-2,3,-2,1,1,-8,-4,9
1576748144551262,-5,0,1,1,3,-3,0,2
1576748144551262,-10,-2,2,-2,-8,4,2,-14
1576748144573250,-1,-3,2,-5,-6,3,0,2
1576748144573250,2,-5,1,-2,-5,-3,-2,5
1576748144574207,-3,-5,0,0,-5,-5,1,2
1576748144574207,4,1,0,8,-1,-3,0,-2
1576748144588164,4,-2,-4,1,-5,-4,0,-6
1576748144588164,6,-2,-1,2,-6,5,2,1
1576748144588164,-6,1,-2,-3,1,-1,-3,-2
1576748144588164,-5,3,-5,-5,1,-9,1,-19
1576748144611147,2,0,3,2,7,-8,-3,0
1576748144611147,-4,-2,0,-3,-1,-10,-2,-4
1576748144611147,-4,-4,2,-4,1,-4,-2,-8
1576748144611147,-4,-2,-1,-5,1,2,3,0
1576748144633088,0,0,-1,-1,-7,7,0,1
1576748144633088,7,3,-3,-2,0,4,-1,6
1576748144634047,9,1,1,2,2,1,2,3
1576748144634047,-1,-7,-2,0,3,-1,-5,-6
1576748144648040,-6,0,-3,0,-1,2,-5,-6
1576748144648040,-3,-1,-5,-4,-1,3,-4,-8
1576748144648040,6,0,-3,-2,-2,1,-4,1
1576748144648040,4,2,-5,-4,2,-11,-2,2
1576748144670987,-1,2,2,-1,-2,-2,2,8
1576748144670987,-6,-2,3,5,-2,0,-1,4
1576748144671945,-9,-2,2,2,-8,7,1,3
1576748144671945,1,-1,3,2,-7,5,1,9
1576748144692935,-2,0,-2,3,2,-2,-1,-4
1576748144692935,-1,-1,0,1,3,-4,2,2
1576748144693884,-3,-4,-2,5,3,-9,-4,-4
1576748144693884,5,-1,0,1,-1,-6,-6,-4
1576748144706891,4,2,-1,-4,-4,-4,-1,-2
1576748144706891,3,-1,-2,-5,-3,3,1,-4
1576748144714872,-1,3,-1,-3,-2,2,3,5
1576748144714872,-1,0,2,-1,3,-3,2,0
1576748144730827,-5,1,2,5,0,-4,0,8
1576748144730827,3,-3,-1,2,2,-2,0,5
1576748144731785,-4,-4,-3,-4,-4,-2,-2,-6
1576748144731785,4,4,-3,-2,-8,4,0,4
1576748144753722,3,3,-1,2,1,3,0,-4
1576748144753722,-2,4,2,6,-10,-1,-1,-6
1576748144753722,3,0,3,3,-1,7,2,4
1576748144753722,-3,-3,-1,-3,4,-1,0,2
1576748144766730,-6,-6,-4,-4,1,0,-5,-3
1576748144766730,-4,-1,-5,-8,-2,-4,-7,-13
1576748144774710,-2,-1,-5,-3,4,-2,-6,-9
1576748144774710,-4,-2,-1,-1,2,1,0,0
1576748144790666,4,-2,2,2,0,2,1,1
1576748144790666,-4,1,-1,6,39,-1,-6,-15
1576748144791625,2,-2,-2,-2,34,1,3,5
1576748144791625,0,1,-3,1,17,-11,-1,-1
1576748144813566,0,2,-4,1,-8,-9,0,-2
1576748144813566,1,-2,0,0,-32,-1,4,4
1576748144814562,-1,-1,3,3,-19,-2,0,-2
1576748144814562,-5,-7,-1,0,-2,-2,0,-2
1576748144826570,-1,-3,-1,-3,4,-3,0,-2
1576748144826570,3,-2,2,-3,0,1,0,7
1576748144835541,5,-1,4,0,-4,5,0,4
1576748144835541,-2,-3,3,-3,-8,4,1,-4
1576748144850506,0,2,-3,-2,-9,-5,-4,-6
1576748144850506,2,0,-6,-6,-4,-1,1,4
1576748144851462,-5,0,-4,-4,-9,-2,0,-5
1576748144851462,-5,0,-1,3,-11,2,-2,-13
1576748144873442,-1,-4,1,-1,-6,3,1,-3
1576748144873442,-9,0,1,3,2,1,0,3
1576748144874401,-1,-3,-1,-5,1,-7,3,2
1576748144874401,0,-6,-5,-5,-5,-3,-4,-1
1576748144887366,2,-3,-1,2,3,3,-7,-2
1576748144887366,1,0,-1,-1,-3,4,-7,-4
1576748144895344,4,0,-5,-4,-2,-6,-3,0
1576748144895344,5,3,1,-5,3,-5,3,2
1576748144910304,-3,-5,-2,-1,6,-4,4,-5
1576748144910304,3,1,-1,-1,-2,-5,3,5
1576748144911302,-1,0,1,5,2,1,-1,4
1576748144911302,-3,3,0,1,-3,1,-1,-11
1576748144933243,-6,3,1,0,-1,2,0,14
1576748144933243,-4,2,-3,0,-5,1,1,-5
1576748144934241,-4,-2,-3,-1,-4,0,-2,-6
1576748144934241,-2,-4,-1,0,-2,-1,0,3
1576748144956182,1,-3,0,-3,-3,-1,-3,0
1576748144956182,3,-1,1,-4,-6,-1,-3,-2
1576748144956182,3,-1,-3,-4,-3,-4,-3,-3
1576748144956182,4,-3,3,3,-3,-9,-3,-2
1576748144971142,-2,6,-3,-2,1,6,3,2
1576748144971142,2,2,2,1,1,-1,2,1
1576748144971142,-7,0,-3,1,-1,5,-3,-5
1576748144971142,-5,-1,0,-3,-6,6,0,4
1576748144993080,-9,-6,-2,-5,1,-1,-6,-13
1576748144993080,1,-2,0,-2,6,-1,-2,5
1576748144994077,5,-1,1,3,2,0,-2,3
1576748144994077,-1,-5,-3,5,-6,-1,2,0
1576748145007043,5,0,0,2,-4,-9,1,-2
1576748145007043,4,-1,-1,-1,-2,1,2,5
1576748145015021,2,2,-2,-4,-1,-2,-5,10
1576748145015021,8,3,-3,-6,4,3,-3,3
1576748145029981,2,2,-3,0,4,1,-1,9
1576748145029981,-6,-3,-2,2,-3,-6,2,-2
1576748145030979,-6,-1,2,4,-7,-6,2,-6
1576748145030979,-2,0,1,3,-2,1,0,-1
1576748145052920,2,-3,-1,2,-1,-3,1,-2
1576748145052920,-2,-2,-1,0,2,-2,0,-1
1576748145053917,-3,3,-3,-1,1,-1,-1,-1
1576748145053917,2,-1,-1,-4,0,-4,4,6
1576748145075859,2,1,0,-5,-1,2,1,-2
1576748145075859,1,2,0,-4,-6,7,2,5
1576748145076857,3,0,1,-7,1,2,-2,0
1576748145076857,3,3,-1,2,6,-1,-3,0
1576748145089821,-2,-1,-2,1,5,3,-2,-3
1576748145089821,-2,-4,-4,2,-2,-3,-5,-1
1576748145090818,-2,0,0,0,-1,-6,0,-7
1576748145090818,-1,-2,-2,-2,0,-5,-2,-8
1576748145113757,-3,-2,1,1,0,-1,0,-7
1576748145113757,-2,-2,2,0,1,2,0,-5
1576748145113757,1,-6,2,1,-3,3,-2,5
1576748145113757,-2,1,-1,-2,-5,3,2,8
1576748145135698,-1,-1,2,-3,-2,-6,0,3
1576748145135698,-3,-1,-5,-2,2,-4,1,2
1576748145136696,-3,-3,-3,0,6,2,-2,-2
1576748145136696,1,-3,-2,1,3,1,-1,-5
1576748145149661,2,-1,-2,2,-2,-3,-3,-4
1576748145149661,2,4,-2,0,-3,-9,-2,-1
1576748145150658,4,4,3,-1,-3,-4,0,3
1576748145150658,-7,0,-2,0,-2,2,-3,-2
1576748145173597,-3,0,-3,-2,-6,-1,1,0
1576748145173597,-5,-1,-5,-2,0,0,-2,-5
1576748145173597,-5,-1,-5,-5,-7,-2,3,-2
1576748145173597,-1,2,0,-4,-5,3,2,5
1576748145195586,4,-2,-1,-2,-3,3,1,2
1576748145195586,-1,-3,3,0,1,-1,1,-2
1576748145196539,-2,-1,-2,0,-6,-1,-2,-3
1576748145196539,1,-3,0,0,-1,-6,-4,-3
1576748145210538,1,0,-1,2,1,-6,-3,-3
1576748145210538,1,1,4,1,2,3,2,8
1576748145210538,-1,-4,0,2,11,6,1,-4
1576748145210538,-2,-2,1,1,3,-1,-3,-6
1576748145233483,-3,-5,-1,0,0,-3,-7,-3
1576748145233483,4,-1,-3,-6,3,-3,-4,-8
1576748145234441,4,1,0,3,1,-5,2,-2
1576748145234441,-3,-2,-2,-1,0,-7,4,0
1576748145255423,1,4,-1,-3,-3,6,5,4
1576748145255423,-4,1,-1,-1,-2,2,0,1
1576748145256380,-2,-5,-1,-1,-3,3,-3,2
1576748145256380,1,1,-5,4,-3,-1,-3,5
1576748145270376,-4,-1,-1,3,-3,-4,-3,-1
1576748145270376,2,1,0,-1,-1,0,-2,5
1576748145271340,0,3,2,-1,3,0,-1,2
1576748145271340,1,1,3,-4,1,-1,-2,-5
1576748145293322,-3,-4,-1,-4,-5,-2,3,-7
1576748145293322,2,0,0,-1,-6,-2,-8,-6
1576748145294283,1,-1,-3,-4,-3,0,-1,-6
1576748145294283,0,-3,-5,-5,5,2,-4,2
1576748145316253,1,-1,-1,0,2,-2,-4,3
1576748145316253,1,-4,-3,-1,0,7,0,-2
1576748145316253,-3,-2,-1,2,-1,-5,-3,-6
1576748145316253,-2,0,3,4,0,1,1,6
1576748145330224,-2,-5,-2,3,3,2,2,3
1576748145330224,-2,-5,0,4,-4,-7,2,1
1576748145331182,-1,3,-2,-4,-3,-6,1,-1
1576748145331182,-2,5,0,1,-1,-3,1,3
1576748145353126,-6,3,1,-1,1,-4,1,2
1576748145353126,-7,1,0,-3,0,-2,-1,0
1576748145354121,-1,2,-2,-2,-8,0,-1,2
1576748145354121,-6,-2,-4,-4,0,0,-4,0
1576748145376099,2,-2,-2,-3,-1,5,-4,-3
1576748145376099,4,-5,0,-2,1,3,-2,-4
1576748145377057,3,0,-1,1,2,-5,-3,-2
1576748145377057,3,3,1,-1,5,0,-3,-2
1576748145390065,5,2,1,-2,2,-3,-2,-1
1576748145390065,-1,-1,2,-4,-2,-5,2,-3
1576748145391021,-10,-1,1,0,-3,0,2,1
1576748145391021,1,-4,-1,3,-7,4,2,6
1576748145413003,-1,-4,-5,5,-3,3,-1,-3
1576748145413003,3,-4,-3,1,-1,-1,-3,3
1576748145413958,3,-6,1,-3,-2,3,0,-1
1576748145413958,5,1,0,-4,0,-2,-2,-3
1576748145435898,2,0,1,-2,-5,-4,0,-1
1576748145435898,-6,2,-2,-1,-3,-3,-2,-9
1576748145436898,-2,1,0,1,-2,-3,0,-1
1576748145436898,-5,0,-2,0,4,-5,-3,0
1576748145449905,-6,0,-5,1,0,-2,2,3
1576748145449905,-3,0,-1,4,1,-1,3,2
1576748145450866,0,-1,-3,-3,1,1,0,-4
1576748145450866,6,-1,-2,-4,-1,3,4,-1
1576748145473795,8,-1,-1,-4,3,2,-1,-1
1576748145473795,-1,-4,0,-2,4,5,0,7
1576748145473795,-1,0,-1,-2,-1,-1,-4,0
1576748145473795,-6,1,-2,1,-5,-5,-1,0
1576748145495739,-4,1,-1,3,-2,-1,0,-2
1576748145495739,-2,-2,-3,-3,-5,-3,-1,-5
1576748145496737,-3,-1,0,-1,-4,-5,-4,-1
1576748145496737,-4,-6,-2,-3,0,-6,-3,-2
1576748145509702,-2,-1,2,0,4,2,5,5
1576748145509702,2,0,1,3,1,0,4,-3
1576748145510699,-1,-2,-1,2,-1,-8,-5,-6
1576748145510699,8,-3,-2,-1,-4,-2,3,-1
1576748145533638,0,3,1,0,-4,-2,2,-5
1576748145533638,3,4,-2,0,-5,-2,-3,2
1576748145533638,-2,2,-3,-2,-4,1,1,4
1576748145533638,-10,-1,0,-2,-5,1,0,-1
1576748145555579,-2,-3,-2,-6,1,3,-1,-1
1576748145555579,-5,-2,-1,-1,0,-2,0,0
1576748145556577,-2,-1,-2,-1,-2,-1,0,1
1576748145556577,4,-2,0,3,-4,0,-4,-4
1576748145570540,5,0,2,-3,-3,0,-5,-7
1576748145570540,-1,1,-5,-5,0,-1,-1,-4
1576748145570540,1,-2,-4,-1,1,6,2,-3
1576748145570540,2,1,0,2,2,5,-3,-7
1576748145593478,-5,3,-2,0,-3,-2,-2,1
1576748145593478,-7,3,0,-1,0,-3,-6,0
1576748145594475,-6,-3,-1,-1,4,-6,-4,-1
1576748145594475,-2,-5,-1,-1,3,-5,-1,6
1576748145615419,-1,-7,-2,1,2,-5,-1,-3
1576748145615419,-1,0,0,2,-2,-3,3,-3
1576748145616417,1,3,1,1,-1,2,3,-1
1576748145616417,-1,-2,-1,-1,-3,-1,6,0
1576748145630379,-1,4,-1,0,-3,-1,0,0
1576748145630379,4,-2,1,1,1,-2,1,1
1576748145631377,4,-3,-4,-1,-1,4,2,-1
1576748145631377,1,-3,0,-3,-3,1,2,-9
1576748145653318,2,-3,-1,-5,-1,-3,-1,1
1576748145653318,-3,-6,-1,-2,-5,0,-5,-3
1576748145654316,0,-1,2,2,1,-4,-2,1
1576748145654316,-3,5,2,2,0,1,-1,2
1576748145676257,-2,3,0,1,0,2,-2,-1
1576748145676257,-1,0,-1,-1,0,-3,-3,-3
1576748145676257,0,3,2,0,5,0,-1,2
1576748145676257,-6,3,-3,-1,4,1,-4,2
1576748145689222,-1,-1,-2,-1,1,-1,1,1
1576748145689222,-2,-2,-2,-1,-2,-1,1,-5
1576748145697201,1,-5,-2,0,-9,-4,1,-2
1576748145697201,1,0,0,1,-6,-8,1,-5
1576748145713158,-2,1,-2,-1,-2,-1,-1,2
1576748145713158,-1,-4,-4,-1,3,0,-4,-7
1576748145714155,-3,1,-2,-4,-3,0,-1,-3
1576748145714155,2,2,-2,-4,-2,0,-4,1
1576748145743077,1,-1,0,-1,-2,-5,-1,-1
1576748145743077,2,-1,0,1,2,2,4,4
1576748145744075,0,-6,1,0,8,5,2,4
1576748145744075,-2,-3,0,0,-2,1,2,-2
1576748145749062,-1,2,-2,-1,-1,2,0,-3
1576748145749062,-1,2,-2,2,4,3,-4,2
1576748145758038,-3,6,-2,2,8,-1,-3,-8
1576748145758038,-1,-3,-2,0,0,-1,1,4
1576748145772997,-2,-5,-2,-2,-7,-4,-3,-2
1576748145772997,-2,-1,5,-1,-4,3,-1,1
1576748145773995,-4,-2,3,1,-7,2,-2,-4
1576748145773995,-1,1,1,-3,-4,0,3,-7
1576748145795933,-3,0,-2,-3,-2,-6,1,-4
1576748145795933,0,0,-3,0,4,-6,0,1
1576748145796930,2,-1,-3,-3,-2,-5,-3,0
1576748145796930,6,3,1,2,0,4,-1,7
1576748145809895,2,-3,2,2,0,4,-3,2
1576748145809895,0,1,-1,0,-2,-4,-5,-3
1576748145817874,2,-6,-5,-3,-1,4,-3,0
1576748145817874,1,-2,-3,-6,4,1,-1,1
1576748145832834,-1,-1,2,0,3,2,1,-1
1576748145832834,-2,-7,1,-2,-3,3,3,-4
1576748145833831,0,0,-2,-3,-9,-3,-1,-1
1576748145833831,0,-1,-2,-3,-3,-7,-7,-1
1576748145855773,1,0,-2,-1,0,-2,-6,1
1576748145855773,2,4,2,6,0,1,0,6
1576748145857768,-1,-1,3,6,-5,-5,2,-4
1576748145857768,-6,0,-3,4,-6,2,1,0
1576748145869736,-4,-3,-6,2,3,-2,1,1
1576748145869736,-2,0,-3,-5,-1,0,-1,-4
1576748145877714,0,1,-2,-6,5,5,-1,-2
1576748145877714,2,3,4,-2,6,1,1,4
1576748145893671,1,1,-1,-5,-6,-2,-1,0
1576748145893671,0,-3,0,-6,-1,-7,1,3
1576748145893671,-1,2,1,0,-1,-3,1,-2
1576748145893671,-4,-3,-4,2,-7,-3,-2,-7
1576748145915613,1,0,0,0,0,-5,-1,3
1576748145915613,2,-4,-3,-5,-6,8,-4,-2
1576748145916610,-1,-2,-3,2,-5,-2,-5,-4
1576748145916610,-7,-4,-2,1,0,9,1,-6
1576748145929575,-3,4,-3,2,5,1,4,3
1576748145929575,-1,-4,-2,-1,1,3,-1,-5
1576748145937554,1,1,1,-1,-4,-14,-4,4
1576748145937554,1,2,-1,0,-10,15,-4,-3
1576748145952514,-2,-1,0,1,-3,1,-1,-6
1576748145952514,-5,-1,-2,-2,2,-4,5,-2
1576748145959496,-2,-4,-2,-1,6,5,7,-2
1576748145959496,3,-1,-1,-1,7,-10,-1,2
1576748145975453,0,-1,3,3,-5,-7,-2,-2
1576748145975453,2,0,-2,2,-1,2,0,-2
1576748145977448,-3,2,-1,-2,2,-1,-3,-1
1576748145977448,3,1,-3,-5,-3,-6,-4,3
1576748145998391,5,-2,-3,-4,-3,5,-4,-4
1576748145998391,-1,1,0,-1,-5,-4,0,-2
1576748146000386,-2,-2,0,2,-1,-3,-5,-1
1576748146000386,-8,-3,-1,-1,-2,-3,-4,-5
1576748146012354,1,1,1,0,0,0,1,3
1576748146012354,-3,-2,-3,-1,0,-1,1,0
1576748146021330,6,-1,-4,2,1,3,3,5
1576748146021330,7,-3,-1,1,2,2,3,3
1576748146036292,-2,-1,-2,2,-3,-4,0,-1
1576748146036292,-4,0,-1,-2,-1,-5,-1,3
1576748146037288,-2,2,3,-1,4,3,1,4
1576748146037288,1,5,4,1,3,-3,2,-1
1576748146058231,-4,2,0,-2,2,-1,4,-11
1576748146058231,-1,-2,-2,2,3,-2,0,-3
1576748146060226,3,-2,-5,-3,-8,-4,-2,-5
1576748146060226,5,-1,1,-2,-9,-8,-2,-2
1576748146072194,-1,-3,-2,1,-3,-4,-3,-1
1576748146072194,-4,-1,0,1,-2,-1,-4,-2
1576748146081170,-4,0,-2,-1,5,0,-3,-1
1576748146081170,-3,3,0,0,1,2,-2,3
1576748146096130,2,-1,-3,-4,-4,-2,-3,1
1576748146096130,5,1,0,2,2,8,1,2
1576748146097129,1,0,-1,1,-3,2,2,7
1576748146097129,-2,-2,-1,0,-3,-1,1,-2
1576748146118071,6,-2,4,0,-5,-4,-5,3
1576748146118071,-2,-3,2,-1,-1,-2,-5,2
1576748146120068,-5,-2,2,-3,-3,-1,-1,-2
1576748146120068,-4,-1,-3,-2,1,-8,2,0
1576748146132034,-5,-1,-6,2,0,1,4,2
1576748146132034,2,-1,-4,-3,0,-3,-2,-9
1576748146141010,3,-3,-2,-3,-1,-2,-2,-3
1576748146141010,0,-3,-3,-1,0,3,-3,-2
1576748146155970,0,-1,0,0,2,2,0,-3
1576748146155970,0,2,-1,-4,0,-1,2,7
1576748146156968,3,1,-1,-3,1,0,1,4
1576748146156968,2,6,1,-1,8,1,1,4
1576748146177911,0,0,-1,-3,4,0,-2,-1
1576748146177911,-10,2,2,-1,-5,-3,-3,-4
1576748146179906,-1,-2,1,-2,-6,-4,-3,-2
1576748146179906,4,-4,-7,2,-4,-3,-5,0
1576748146191874,0,-1,-1,0,-3,0,-3,4
1576748146191874,6,-3,-2,5,-4,-2,3,4
1576748146200850,0,-3,-1,3,-6,-5,3,2
1576748146200850,-3,-3,0,0,-5,1,2,-8
1576748146215810,-3,2,-2,1,0,2,1,1
1576748146215810,0,0,0,-5,-4,-3,-1,1
1576748146217805,0,-3,-3,-6,2,4,-3,0
1576748146217805,-3,-3,-1,-2,1,-5,-8,-7
1576748146238749,1,0,2,3,5,4,-3,-6
1576748146238749,4,-1,2,0,3,-1,44,5
1576748146239746,1,-2,0,0,-4,-2,29,1
1576748146239746,3,-1,-2,-4,1,-1,16,1
1576748146251714,-9,-1,-1,-6,-5,1,2,-4
1576748146251714,-12,-2,-6,0,-2,4,-22,-6
1576748146260690,-1,-1,-3,0,3,4,-19,5
1576748146260690,3,-2,-2,1,2,-4,-11,4
1576748146275650,3,-2,-2,-1,-6,-8,-12,0
1576748146275650,-1,-3,-1,-2,-5,-2,-9,-1
1576748146277645,-1,-3,0,-1,0,-2,-4,-3
1576748146277645,-7,-1,0,4,2,6,-13,-6
1576748146298589,-1,0,-3,0,2,0,-1,-8
1576748146298589,7,3,0,-1,-6,0,-1,-1
1576748146299586,-3,1,0,1,-3,1,4,-2
1576748146299586,1,-1,-1,-5,-3,1,6,5
1576748146311554,-1,1,1,-4,-2,-3,4,-2
1576748146311554,-9,0,-1,-5,-6,-6,-5,-3
1576748146320530,-4,2,0,0,-1,-4,-11,-3
1576748146320530,2,0,0,4,5,-5,-7,1
1576748146335490,1,-6,-2,0,3,0,-4,3
1576748146335490,8,-3,-4,-2,1,1,-8,-3
1576748146337485,-1,2,0,3,1,5,-8,-4
1576748146337485,0,2,-1,3,-4,-1,-2,1
1576748146358429,-2,-2,0,1,-2,-8,-5,0
1576748146358429,0,-1,1,3,3,-3,-9,-3
1576748146359426,-6,0,0,-1,1,0,-4,-3
1576748146359426,-3,-2,-2,-4,-6,-1,2,-3
1576748146372391,-5,-3,-3,0,-3,-7,0,-2
1576748146372391,-3,-2,1,-1,-1,1,2,1
1576748146381367,4,-3,0,-3,1,-5,-1,-9
1576748146381367,-2,-1,0,-2,1,2,0,-8
1576748146397328,3,4,-1,-4,0,7,2,2
1576748146397328,1,0,-2,-1,0,3,-1,1
1576748146398326,-1,-2,-2,2,-1,3,4,5
1576748146398326,1,1,1,0,-5,0,1,3
1576748146418272,-2,1,-1,-5,-7,4,1,1
1576748146418272,-4,-1,0,-3,-2,-5,-6,0
1576748146420269,-3,2,1,-1,-3,-6,-6,-2
1576748146420269,-1,-4,-3,0,2,1,0,-1
1576748146432235,2,-4,-2,-2,2,0,1,-3
1576748146432235,-3,2,-2,0,5,1,1,-3
1576748146441211,-6,2,-4,1,-2,-3,3,-3
1576748146441211,-1,-4,2,0,-2,-8,4,-3
1576748146456171,5,-1,1,5,4,-3,3,1
1576748146456171,4,-2,-3,2,1,-1,-2,-1
1576748146457169,-3,-3,-2,-2,2,5,-3,7
1576748146457169,-5,1,0,-3,-2,2,3,-1
1576748146478112,0,4,2,0,-2,8,2,0
1576748146478112,-1,3,0,1,-4,-2,-2,-5
1576748146480107,-2,1,-3,-1,-5,-3,-4,-3
1576748146480107,-7,-3,0,-3,-1,-3,-3,-2
1576748146492075,-1,-6,-1,0,0,-4,0,-4
1576748146492075,1,-1,1,-3,3,-2,2,3
1576748146501051,2,-2,-5,-3,1,-7,6,0
1576748146501051,4,-4,-4,-1,-2,-12,-2,1
1576748146516011,-3,-4,-5,-2,-3,-7,-3,0
1576748146516011,-1,-2,0,-1,-2,6,3,1
1576748146517008,-1,-2,2,-2,-1,8,2,2
1576748146517008,-3,0,0,-2,-1,-2,-3,-1
1576748146537952,0,3,1,0,3,0,-1,-1
1576748146537952,7,-1,-2,-1,0,2,-1,1
1576748146539948,1,-4,-2,0,-4,-3,-5,-8
1576748146539948,1,-1,-4,-1,0,-2,-3,-6
1576748146551915,2,2,-4,3,-1,-9,0,1
1576748146551915,-2,0,-4,-2,1,-3,1,-5
1576748146560891,1,-3,-1,-1,1,5,-1,-4
1576748146560891,3,2,2,-2,2,5,-4,2
1576748146575851,-5,1,0,-6,-5,2,-6,2
1576748146575851,-8,-2,0,-1,-2,-5,-4,0
1576748146577846,-5,-2,1,0,-4,-3,2,1
1576748146577846,-3,-5,-1,0,-1,0,4,1
1576748146598789,-2,2,3,0,3,3,4,-1
1576748146598789,0,4,-3,3,-4,-5,-2,-1
1576748146599787,3,2,-4,0,3,-4,-2,1
1576748146599787,1,1,0,6,4,4,-3,1
1576748146611755,-3,-5,-1,3,2,0,0,-6
1576748146611755,-3,-5,2,1,0,-3,-1,0
1576748146620731,-2,-3,-2,2,-3,0,2,-2
1576748146620731,2,-1,-3,-4,-7,-5,-1,1
1576748146635692,-2,-6,4,-2,-4,-2,-4,0
1576748146635692,-3,-4,1,-2,-1,1,-1,-1
1576748146637686,-6,-5,0,-1,0,-2,-2,-1
1576748146637686,-3,-1,-3,-2,4,-2,-4,1
1576748146658629,0,3,-3,-5,3,4,0,1
1576748146658629,-2,4,-1,-3,1,6,0,0
1576748146659627,-3,4,2,-1,1,1,0,2
1576748146659627,-2,4,-1,-1,-1,-6,-2,-6
1576748146671595,7,1,-3,-1,-8,-8,0,-4
1576748146671595,0,-3,-1,-2,0,-3,-1,-8
1576748146680571,6,0,-3,-1,-4,-2,2,-1
1576748146680571,-6,4,1,2,-1,-7,0,3
1576748146695531,0,-4,0,1,-3,-4,1,8
1576748146695531,-1,-7,1,1,-1,-4,-4,-9
1576748146697526,-3,-3,-1,4,-3,5,0,4
1576748146697526,-3,-2,-2,1,1,13,-2,2
1576748146718469,-7,-6,-4,-3,7,6,-3,-9
1576748146718469,1,-2,0,-1,-2,0,-3,0
1576748146719468,2,-4,-2,-1,0,-3,-2,-3
1576748146719468,4,0,-1,1,-8,-3,0,-1
1576748146732432,5,6,1,2,-8,-2,0,0
1576748146732432,3,0,0,-2,-1,-1,1,-2
1576748146741408,-9,1,1,-4,5,-4,-5,1
1576748146741408,-8,-3,-4,-2,-2,0,0,-2
1576748146755371,-3,-1,-6,-3,-4,-5,0,1
1576748146755371,0,2,-1,-5,0,0,2,2
1576748146757366,2,-1,0,-4,-1,-4,0,-5
1576748146757366,-4,-4,-4,1,2,-13,2,-2
1576748146778309,-4,2,-1,5,4,-1,2,-1
1576748146778309,-5,2,-2,4,-1,-1,-2,2
1576748146780305,3,2,1,-1,1,2,0,-2
1576748146780305,9,-1,6,-1,0,2,1,-1
1576748146792272,0,1,2,-2,-1,-4,-1,1
1576748146792272,-2,-2,-1,1,2,0,3,2
1576748146801248,-3,-6,-2,-1,-2,2,-4,3
1576748146801248,3,-4,-5,0,0,3,-2,-4
1576748146816209,-1,-5,-2,3,4,0,0,12
1576748146816209,-1,-3,-1,-2,7,-8,0,0
1576748146817206,0,5,-3,2,0,-8,-1,-8
1576748146817206,2,4,3,-5,-7,-2,1,-2
1576748146838149,5,-3,-6,-2,-8,1,-2,-2
1576748146838149,-4,-4,-6,0,-2,1,-5,-4
1576748146840144,-3,-3,5,-4,1,-1,-3,-2
1576748146840144,-7,-3,2,-3,0,3,-1,2
1576748146852112,-9,0,5,-3,2,5,1,-2
1576748146852112,-2,-1,1,-2,2,-1,-3,-1
1576748146861088,10,1,-1,2,0,6,1,-2
1576748146861088,1,4,0,0,3,7,-1,0
1576748146876048,-4,2,-1,-2,-7,-1,-2,-3
1576748146876048,4,-2,-3,-4,-7,-2,1,3
1576748146877046,-2,-1,-5,-4,-5,-8,5,4
1576748146877046,6,-1,0,-2,-3,-2,4,3
1576748146897989,-3,-4,1,8,5,3,2,1
1576748146897989,-6,0,2,4,-1,5,1,4
1576748146899985,-1,-2,1,1,0,1,-1,-2
1576748146899985,-5,-3,-6,1,-2,-1,-4,-3
1576748146911952,-2,1,2,-5,7,-6,0,-6
1576748146911952,5,7,0,-8,-2,1,1,-4
1576748146920928,2,-2,-2,-3,-12,0,-3,-1
1576748146920928,-7,-4,-3,1,-7,0,-2,-2
1576748146935889,-1,-2,-3,0,-4,3,-2,-7
1576748146935889,-6,-5,-2,6,7,2,-1,-4
1576748146937883,0,-2,0,-1,5,2,-6,-2
1576748146937883,7,-4,0,2,-2,-5,-2,2
1576748146957829,0,-3,-1,-1,-1,-7,4,-4
1576748146957829,2,0,2,2,-2,-4,5,-1
1576748146959824,-2,-2,0,-3,-7,-4,2,-2
1576748146959824,4,3,-2,-3,1,-4,-3,-5
1576748146980768,8,-1,0,-4,-2,-2,-2,2
1576748146980768,-2,2,-2,-4,-5,2,-4,6
1576748146982763,0,4,-1,3,1,3,3,10
1576748146982763,-12,-1,-5,-1,0,-1,-1,-4
1576748146995729,-6,-3,-6,0,0,-10,-4,15
1576748146995729,6,-1,0,1,-9,-3,-3,3
1576748146997723,8,1,0,3,1,3,-7,0
1576748146997723,5,1,1,5,-2,3,1,-6
1576748147018667,2,-1,1,-1,3,1,3,-3
1576748147018667,-4,1,1,-2,-3,-3,8,-10
1576748147019665,-2,1,-2,-2,-1,-2,7,-1
1576748147019665,1,-1,-3,-2,-3,3,4,-2
1576748147040608,-2,-2,-2,-2,3,0,4,-2
1576748147040608,-7,4,1,-3,5,-1,-3,3
1576748147042604,-11,2,-2,-3,2,-3,-3,0
1576748147042604,-2,5,0,-3,-1,1,0,4
1576748147055568,2,-2,-2,-5,-8,0,-4,-7
1576748147055568,8,-6,-2,-2,-3,3,-1,4
1576748147057563,3,-6,-5,1,4,-8,3,-3
1576748147057563,-4,-8,0,-1,-1,-6,-2,3
1576748147078506,-3,1,2,-3,-3,1,0,4
1576748147078506,-10,-5,-4,2,-5,-6,-7,-7
1576748147079505,0,-3,1,3,0,4,-5,-1
1576748147079505,0,-1,0,1,-1,2,-7,-6
1576748147100448,-5,-1,0,-1,-5,5,-7,-5
1576748147100448,-1,-4,-2,-1,-6,1,-4,5
1576748147102443,2,-2,-3,1,1,4,1,-2
1576748147102443,-4,2,1,4,7,0,7,9
1576748147115408,-9,-2,0,0,4,2,-1,-4
1576748147115408,-4,-3,-5,-4,4,-1,-6,-4
1576748147122389,-5,-2,-2,-9,-4,-9,-6,-4
1576748147122389,5,3,1,-5,-3,-7,-1,-5
1576748147138346,5,-2,-1,3,0,2,-4,0
1576748147138346,2,0,2,1,4,2,2,0
1576748147140342,-4,-2,-1,-6,2,-2,0,-4
1576748147140342,9,2,-3,-4,-10,-2,-1,9
1576748147161288,9,0,-5,-6,-8,-8,-2,-1
1576748147161288,11,6,-1,6,-1,-1,3,2
1576748147162284,3,-2,-3,-1,2,5,-1,-4
1576748147162284,-3,-1,-4,0,8,5,5,-7
1576748147175248,-4,0,-3,4,2,0,-1,-6
1576748147175248,2,-3,-2,-1,-1,-5,0,3
1576748147182229,-7,-2,-2,0,-3,1,-3,-11
1576748147182229,-8,-3,3,-3,1,6,-3,-4
1576748147198186,-9,-2,4,0,-1,-2,2,-6
1576748147198186,-1,3,0,0,-1,-6,-3,-5
1576748147200181,5,2,-4,3,-5,-1,1,4
1576748147200181,0,-4,-3,1,0,-4,-2,6
1576748147221125,2,-2,3,4,3,5,4,2
1576748147221125,-3,-2,0,0,6,-2,0,-3
1576748147222123,-6,1,2,0,7,-1,0,-2
1576748147222123,-8,0,1,-1,-2,0,-2,-4
1576748147235088,-5,5,-3,-1,-1,-6,-1,-4
1576748147235088,-8,2,1,0,-2,-2,-2,4
1576748147242069,1,0,3,4,0,1,2,2
1576748147242069,1,0,1,1,3,-7,-4,-3
1576748147258026,5,4,3,3,1,-71,0,0
1576748147258026,5,-4,-6,-4,-11,-25,-1,-3
1576748147260022,-1,2,2,-5,-10,-7,3,0
1576748147260022,-2,-4,1,-1,-6,24,4,-3
1576748147280965,-4,-8,-1,-7,-5,28,-1,0
1576748147280965,2,-2,-2,-2,-2,17,1,5
1576748147281963,-3,-7,-2,-4,-2,20,-1,2
1576748147281963,0,2,-4,-1,-1,3,-1,5
1576748147294928,-5,8,-4,0,-1,17,-1,0
1576748147294928,-4,7,2,3,0,7,2,-2
1576748147301909,0,-3,1,2,-3,8,-5,0
1576748147301909,3,-8,-3,-4,-1,-1,-5,1
1576748147317866,2,-7,-3,-1,6,10,-6,-1
1576748147317866,-5,-2,-4,-4,3,12,0,-8
1576748147319862,2,1,1,3,12,-3,7,27
1576748147319862,2,4,-4,-3,3,-7,2,-4
1576748147340805,1,3,3,0,-3,9,-1,-2
1576748147340805,2,1,0,-2,0,-1,-1,0
1576748147342800,-2,-8,3,-2,-2,-8,-8,-11
1576748147342800,0,-6,0,-3,-1,-15,-2,-7
1576748147354768,-5,-5,-8,-4,-3,6,0,3
1576748147354768,-5,-4,3,4,-2,2,0,-2
1576748147361749,-5,5,0,1,-4,-5,0,-2
1576748147361749,4,-1,4,0,-4,0,1,7
1576748147378704,7,4,2,-3,-2,1,2,-1
1576748147378704,2,-1,-1,1,1,-3,-2,-5
1576748147379702,-2,-1,-1,-3,2,-5,-1,-7
1576748147379702,-9,1,-1,-1,4,-4,1,1
1576748147400642,-3,-3,-1,-1,-5,-10,0,3
1576748147400642,2,-4,-2,-5,-4,-8,-3,3
1576748147402637,1,3,-4,0,-9,1,1,4
1576748147402637,1,5,-9,0,0,3,-5,-1
1576748147415602,1,-1,-4,2,4,7,4,9
1576748147415602,-2,-4,0,-6,2,5,2,7
1576748147421586,8,-5,-3,-5,-4,-10,-2,1
1576748147421586,3,-4,1,5,4,-3,-2,19
1576748147438540,-2,0,0,-1,2,-1,-8,-1
1576748147438540,-2,-3,4,3,3,2,-4,3
1576748147439538,3,7,-5,-2,0,2,-2,2
1576748147439538,-1,6,-1,-4,1,-4,-1,-15
1576748147460482,-2,4,6,-4,-4,-1,2,-8
1576748147460482,-7,0,5,-2,-3,-6,2,-12
1576748147462477,-6,-5,5,0,-7,-13,-1,-14
1576748147462477,0,-10,-3,3,0,-6,-2,-9
1576748147474444,2,-10,-12,2,1,-3,4,-4
1576748147474444,-7,-2,-9,-2,6,4,2,-6
1576748147483420,-4,-3,-3,-4,2,7,-3,1
1576748147483420,2,7,1,-1,-1,-1,-4,-4
1576748147498380,-6,1,-1,-4,4,-2,-7,0
1576748147498380,-3,0,1,3,1,0,2,2
1576748147500375,0,-2,1,6,3,5,-1,-5
1576748147500375,-2,-4,0,2,-7,-4,3,-12
1576748147521319,2,-5,1,4,-3,3,1,-7
1576748147521319,3,5,-5,4,-4,-2,-2,-8
1576748147522316,3,-1,0,-2,-6,-2,0,5
1576748147522316,3,-7,3,-6,-9,-2,-7,0
1576748147534284,4,-5,-1,-3,2,-7,-4,8
1576748147534284,-3,-1,-2,-1,-3,-7,1,0
1576748147543260,-5,4,-1,-2,2,-1,2,0
1576748147543260,0,10,0,1,4,6,0,21
1576748147558220,-3,3,3,1,-3,2,1,10
1576748147558220,9,4,-3,-4,-1,1,-3,0
1576748147560215,-1,0,-2,2,-2,2,-3,-1
1576748147560215,-3,-3,-4,-2,4,-2,6,-3
1576748147581159,0,0,2,-7,3,2,3,-6
1576748147581159,-3,0,0,-1,-1,-1,-3,3
1576748147582156,1,-1,-7,2,-6,-4,-10,-22
1576748147582156,-4,0,-2,4,-10,4,1,-6
1576748147594125,-4,-1,-2,1,-6,1,-3,-2
1576748147594125,-1,-5,2,-9,-1,1,-4,-2
1576748147603100,0,-3,2,-8,9,-3,-4,-4
1576748147603100,-8,0,1,-3,5,-7,-1,-5
1576748147618060,2,1,3,1,3,-12,-3,-2
1576748147618060,-4,-5,-2,-1,-1,-3,-4,-10
1576748147620056,3,-5,-2,3,-1,8,6,9
1576748147620056,3,-4,-2,0,-4,3,0,8
1576748147640999,1,0,0,1,-9,5,2,3
1576748147640999,2,1,-3,6,-2,1,1,6
1576748147641997,6,-2,-4,4,4,-1,1,-1
1576748147641997,-9,1,-1,0,-1,0,-1,-6
1576748147654962,-3,-1,-2,-6,2,-2,-1,1
1576748147654962,0,0,-1,-5,-2,-5,-1,2
1576748147663938,-2,-1,-1,-4,0,-3,1,4
1576748147663938,-1,0,0,-6,-6,0,1,-4
1576748147677900,-2,-2,0,-5,-5,7,-5,-4
1576748147677900,1,1,1,0,3,7,-1,7
1576748147679895,-4,5,-2,3,1,1,-3,3
1576748147679895,3,3,-1,5,3,0,-4,0
1576748147700839,-4,-6,-3,3,-1,-2,2,-14
1576748147700839,-6,-4,-4,1,1,-7,-1,-21
1576748147702835,1,4,-2,-4,-2,-10,2,1
1576748147702835,2,-8,-1,-2,-1,-7,-2,-2
1576748147714801,4,4,1,2,-1,4,-1,-5
1576748147714801,4,1,3,3,-2,0,0,-2
1576748147723778,-1,1,1,1,2,-2,-2,4
1576748147723778,3,5,-1,1,-3,-1,1,5
1576748147738737,-6,-3,-4,-3,-2,2,2,-3
1576748147738737,-3,-1,-4,0,-5,-3,3,16
1576748147739735,-3,-3,0,-2,-3,-9,0,0
1576748147739735,-1,-2,2,-3,0,-4,3,2
1576748147760679,-2,-4,3,-1,-5,-2,-2,-2
1576748147760679,0,0,2,-5,-1,5,2,0
1576748147762674,1,-7,5,-2,5,2,-1,-3
1576748147762674,0,-1,-3,-3,11,-2,-2,-5
1576748147774641,-1,4,-6,1,9,-1,-3,1
1576748147774641,4,0,-5,-2,-6,0,-6,-2
1576748147783618,-3,0,0,3,-6,-2,-3,-4
1576748147783618,-5,-3,-5,2,-9,1,2,-4
1576748147798581,-1,-2,0,4,-4,2,-1,3
1576748147798581,1,-1,1,-2,-7,2,1,0
1576748147799579,-7,-3,-5,-4,-9,3,0,-13
1576748147799579,-2,-2,2,-4,-3,-3,-2,2
1576748147820522,-4,1,1,-3,7,-5,1,1
1576748147820522,-2,1,-3,-2,2,-1,-3,6
1576748147822518,-1,1,1,-4,-1,0,-1,0
1576748147822518,5,4,4,-1,0,-3,3,1
1576748147834485,1,-2,-2,-2,-2,-3,1,1
1576748147834485,0,-5,1,4,4,-3,2,17
1576748147843461,6,6,-6,1,-3,-3,2,-1
1576748147843461,3,1,-4,1,-2,4,0,-8
1576748147858421,4,-7,2,-1,-2,6,0,-7
1576748147858421,-3,-6,2,-7,3,5,0,-8
1576748147860416,-2,-4,-5,2,5,3,4,4
1576748147860416,4,-1,-1,1,1,-2,-3,9
1576748147880362,-4,2,-1,-1,-3,-4,2,2
1576748147880362,-3,8,1,3,-3,-114,-2,-5
1576748147882358,0,-2,6,2,-3,-77,-5,-6
1576748147882358,-3,-8,3,1,3,-11,-2,-8
1576748147904298,-10,-6,-4,0,-2,34,-1,3
1576748147904298,-1,2,-6,0,3,83,-1,-1
1576748147905296,-1,2,-5,-6,3,72,-3,3
1576748147905296,-1,-3,-2,-10,0,51,-4,4
1576748147917264,5,-3,1,-5,-2,45,3,4
1576748147917264,0,-1,4,-6,1,38,1,1
1576748147924245,-3,-1,0,4,-6,22,0,-6
1576748147924245,1,1,-3,5,4,20,-1,0
1576748147941200,0,5,-2,1,-2,4,-4,1
1576748147941200,2,-2,1,-1,-6,8,-3,-4
1576748147942198,-4,-6,-3,4,-3,4,1,-1
1576748147942198,-7,-2,-2,-3,-8,1,5,-3
1576748147963141,-2,1,-4,5,4,-13,-1,0
1576748147963141,-4,1,1,-5,5,-1,-4,-1
1576748147965136,4,3,-1,-7,-12,9,-2,1
1576748147965136,-3,-2,-6,-1,-17,-7,-1,-25
1576748147978101,5,2,-1,9,-8,-7,0,-6
1576748147978101,3,-4,-4,8,-5,15,4,5
1576748147980096,-3,-2,0,-3,8,10,-1,4
1576748147980096,1,-3,-1,-2,4,-8,-3,6
1576748148001039,-7,-3,-1,-7,5,-6,1,15
1576748148001039,-6,-3,-2,-2,5,0,-7,-11
1576748148002037,-5,6,-4,-3,4,-6,-6,2
1576748148002037,0,5,2,4,1,0,-5,-2
1576748148022981,5,-4,2,-5,-2,-8,0,-15
1576748148022981,3,-1,1,-3,-1,-7,-1,-2
1576748148024976,7,-7,1,0,2,-7,0,0
1576748148024976,5,-1,-1,-2,12,1,-2,-1
1576748148037941,-3,0,0,-1,4,-6,-2,6
1576748148037941,0,2,-3,1,0,2,10,44
1576748148044922,-2,2,0,3,-8,4,2,-3
1576748148044922,-4,-2,-1,3,-5,2,0,9
1576748148060880,4,-1,0,-6,-6,-2,-1,18
1576748148060880,5,0,1,-11,-2,1,2,-7
1576748148062875,-1,-4,-4,-9,-2,0,2,8
1576748148062875,-6,-5,-5,-3,-6,-9,-5,-7
1576748148083819,-4,4,0,4,-5,-6,-1,-12
1576748148083819,2,2,0,6,-2,-1,-6,-18
1576748148084816,0,-2,0,5,0,-5,-3,-4
1576748148084816,-2,-3,3,5,0,-11,2,-6
1576748148097778,5,-1,2,0,3,-10,-6,-4
1576748148097778,-7,0,1,2,-4,-3,1,-2
1576748148104759,-5,6,2,2,1,5,-3,-5
1576748148104759,-7,2,-2,-4,1,-9,1,2
1576748148120716,-6,3,-2,-4,-1,-3,5,-1
1576748148120716,-1,-7,-2,-1,2,-5,-1,-6
1576748148122711,2,-4,-6,-3,-2,2,-1,5
1576748148122711,-3,3,-3,-1,-3,-2,-1,5
1576748148143655,-3,-3,-5,-4,-1,-1,-2,4
1576748148143655,3,-7,-4,-5,1,2,-10,-17
1576748148144652,-2,-4,-1,-2,-3,-2,-2,-4
1576748148144652,3,4,2,0,-3,3,0,9
1576748148157617,-2,5,3,1,-5,1,-1,-6
1576748148157617,3,-1,0,-1,-15,-10,-3,-5
1576748148164599,0,3,5,0,-6,-4,-5,-13
1576748148164599,4,-4,0,2,-1,0,-5,-5
1576748148180556,-1,-2,-3,0,6,-4,-3,-14
1576748148180556,2,4,-2,-4,8,2,17,0
1576748148182551,-1,-2,-6,-8,8,-11,7,-19
1576748148182551,-2,-1,-4,-3,4,-6,7,3
1576748148203495,-12,-4,-4,1,0,0,-1,-3
1576748148203495,-10,-8,0,2,4,-1,-8,2
1576748148204492,0,-5,-1,2,2,-1,-9,-2
1576748148204492,0,5,8,-5,4,0,-6,3
1576748148217457,9,0,5,-4,-4,-4,-3,7
1576748148217457,-4,-4,-2,-4,-4,-1,-5,-1
1576748148224439,-5,-2,-2,1,0,0,2,4
1576748148224439,-4,-5,-4,1,3,2,1,-1
1576748148240397,2,3,-1,-2,0,2,5,-1
1576748148240397,3,4,-4,5,-7,4,6,3
1576748148242391,6,4,9,4,-1,4,0,13
1576748148242391,2,-3,0,2,-2,-2,-1,-4
1576748148263335,-1,3,-1,1,3,-1,1,6
1576748148263335,-5,3,0,1,2,-3,-3,-6
1576748148265329,3,3,1,-6,2,-1,-1,1
1576748148265329,3,2,1,4,-1,-5,-2,3
1576748148277297,-2,-7,-1,1,-2,-9,-3,-9
1576748148277297,1,2,-4,-1,0,-1,-5,3
1576748148284279,-3,0,-4,-5,-5,1,-2,-6
1576748148284279,-6,-2,-2,-8,-2,6,-2,1
1576748148301234,-2,-6,0,-7,-2,4,-3,1
1576748148301234,-1,-1,0,3,-2,1,-1,-5
1576748148302232,-3,-4,-1,-1,-2,-7,4,-5
1576748148302232,3,-4,-2,0,3,-8,-1,-6
1576748148323175,4,-2,-7,1,2,-3,0,-6
1576748148323175,-1,4,7,-1,-1,2,-3,-1
1576748148325170,0,2,0,-1,-6,2,-3,2
1576748148325170,-5,-2,3,0,-8,2,4,-6
1576748148338135,-2,-3,1,0,-6,2,5,4
1576748148338135,-2,-7,-3,0,0,0,4,4
1576748148344119,-3,1,-6,0,5,3,3,7
1576748148344119,-4,2,-4,-2,1,2,0,1
1576748148361074,-6,4,-1,-2,4,-8,0,2
1576748148361074,-1,3,0,-8,0,-4,-1,1
1576748148362071,-4,-8,-5,-5,0,-2,-2,-2
1576748148362071,3,-8,-2,1,5,-3,-2,-2
1576748148383015,7,-1,-1,2,-1,9,5,-3
1576748148383015,5,0,2,4,-2,-1,-5,-3
1576748148385011,1,3,5,5,2,0,-2,5
1576748148385011,2,3,-5,-2,-6,-2,-5,-4
1576748148396978,-3,-3,-3,-2,-5,-3,-1,10
1576748148396978,-5,6,2,2,4,-6,6,3
1576748148405960,0,3,-1,3,-1,-2,4,1
1576748148405960,-5,4,0,1,-2,1,-5,-1
1576748148420914,-1,3,-1,-2,-7,3,-4,-3
1576748148420914,7,-6,-2,-1,-2,0,-2,2
1576748148422910,6,-5,0,-1,2,-4,-3,7
1576748148422910,4,-5,1,-1,-4,1,2,-2
1576748148442860,-3,-5,-1,0,-1,-3,-3,-9
1576748148442860,2,3,-4,-3,0,-4,0,-3
1576748148444856,3,-5,-2,-3,2,-8,-1,-5
1576748148444856,-3,5,2,-1,6,5,2,5
1576748148456823,-5,2,2,2,0,2,-2,0
1576748148456823,-12,-2,-2,-6,-5,-1,-2,0
1576748148465799,-1,-4,-2,3,-10,-4,2,2
1576748148465799,0,1,-1,1,-6,-4,1,1
1576748148480789,3,-1,-1,-1,-2,-6,-3,-2
1576748148480789,7,1,1,-2,2,-2,0,1
1576748148482753,-2,2,2,-6,4,6,-2,-3
1576748148482753,0,3,-3,-4,2,2,1,3
1576748148503698,-3,3,0,-1,4,1,1,-1
1576748148503698,0,-3,-1,5,-4,-3,-3,-9
1576748148504696,-1,0,-4,5,-8,-9,-7,2
1576748148504696,11,-5,1,0,-1,0,-4,-5
1576748148516694,-1,-3,0,0,1,-2,4,-3
1576748148516694,-10,2,-3,-5,0,2,5,-3
1576748148525635,-10,-6,-3,-3,-1,6,2,-6
1576748148525635,-10,-2,4,-1,-1,2,-1,-3
1576748148540593,3,4,2,-3,3,-2,-3,8
1576748148540593,-2,-4,1,3,-3,-1,-2,3
1576748148542589,0,7,2,-1,-6,-4,-2,9
1576748148542589,6,1,-5,2,-7,-2,-3,4
1576748148563533,-1,-6,-3,2,-9,1,0,-3
1576748148563533,4,-2,0,-2,1,-1,-3,3
1576748148564530,-1,-4,-7,-3,9,2,-1,-12
1576748148564530,0,0,-3,0,7,0,6,5
1576748148577495,-2,1,-4,-1,-2,3,-9,-8
1576748148577495,-8,-2,2,0,-9,4,4,0
1576748148586472,1,-3,6,-1,-5,7,5,8
1576748148586472,-7,-3,-3,-7,2,-1,-2,-1
1576748148600433,-6,0,-1,-4,0,-8,0,-1
1576748148600433,-4,-5,-4,-1,-2,-8,-5,-9
1576748148602433,0,-3,-3,2,6,-7,-4,-8
1576748148602433,5,-7,-2,6,1,4,2,-4
1576748148623375,7,0,-1,0,5,6,3,2
1576748148623375,-1,0,-1,-1,0,4,1,6
1576748148625371,-1,4,-2,-2,-7,-2,0,2
1576748148625371,-4,-1,-3,0,-5,-9,-5,-1
1576748148637338,-11,-9,2,2,-6,-2,-4,-2
1576748148637338,-4,0,4,0,1,2,0,-6
1576748148646314,-1,5,1,-3,2,3,0,-3
1576748148646314,-4,3,-6,-7,0,-5,2,1
1576748148661274,-4,0,-5,-5,-1,-4,-1,-3
1576748148661274,6,-4,-2,-4,3,1,-1,4
1576748148662272,2,1,1,0,1,-5,-6,5
1576748148662272,-3,2,0,-3,-2,-3,-8,-4
1576748148683216,9,4,2,1,2,7,1,20
1576748148683216,3,-5,-7,2,-8,3,-2,-9
1576748148685211,4,0,-5,3,-9,-1,-2,-4
1576748148685211,1,-1,1,3,-8,0,3,-1
1576748148697178,-9,5,6,-3,-1,-4,-1,-6
1576748148697178,1,0,4,-1,4,-7,-1,5
1576748148706154,2,-4,-1,-1,2,-4,-3,1
1576748148706154,2,-4,-5,-2,-1,-1,-2,-8
1576748148721114,1,-2,-3,-4,4,0,-1,-5
1576748148721114,-10,2,-1,-3,5,4,-5,-7
1576748148722112,-10,-1,0,2,-2,0,-1,-12
1576748148722112,-2,-6,3,-3,4,2,2,0
1576748148743055,4,2,-1,-4,-2,-1,4,-4
1576748148743055,2,2,-2,-7,-1,-3,-1,6
1576748148745051,-4,-4,-3,-4,-2,-3,-1,3
1576748148745051,-1,-8,1,3,-2,2,-3,-3
1576748148757018,9,-3,-6,7,-2,5,-1,-4
1576748148757018,3,0,-5,7,-4,2,-2,0
1576748148765994,-3,1,2,5,-1,5,-4,2
1576748148765994,-1,1,7,0,-3,4,1,-2
1576748148780954,-4,-4,2,-3,2,-5,-2,-2
1576748148780954,2,8,-2,-5,4,-6,-5,2
1576748148782949,-4,4,-1,0,-3,-3,3,-5
1576748148782949,-6,-2,-3,-1,-4,-2,-2,-1
1576748148802893,0,0,2,1,-4,-1,0,1
1576748148802893,3,0,-2,0,-6,-2,-1,3
1576748148804887,0,-1,-4,-4,-3,-5,1,6
1576748148804887,1,4,-1,-2,5,-2,5,-3
1576748148816855,2,-3,1,-2,0,-1,1,8
1576748148816855,-5,-7,-3,-4,4,-6,-3,-2
1576748148825831,4,-4,1,-3,6,0,1,-3
1576748148825831,-4,2,0,-1,6,1,0,3
1576748148840791,3,-2,-5,-2,4,-1,3,-4
1576748148840791,6,3,2,1,2,-1,1,16
1576748148842786,-1,-5,-2,4,-9,3,3,-4
1576748148842786,0,1,0,-2,-12,4,1,-1
1576748148863729,-2,-1,4,1,-6,2,-2,-4
1576748148863729,-1,-3,0,1,3,-1,-3,-3
1576748148864727,1,0,-2,-2,1,-1,-2,0
1576748148864727,-1,-1,0,2,4,-2,-1,3
1576748148885671,-8,-3,-4,-2,-1,-6,1,-4
1576748148885671,-1,1,-2,2,-3,-5,4,-1
1576748148887665,-2,2,1,1,-6,-4,-5,0
1576748148887665,0,8,2,2,-6,-2,-2,-1
1576748148900631,4,-2,4,-1,0,3,-5,0
1576748148900631,1,0,5,-4,0,4,3,-3
1576748148902626,4,0,-3,0,1,1,-2,0
1576748148902626,-1,-1,-9,3,1,-4,-2,3
1576748148923615,-5,2,-8,1,-1,0,1,-3
1576748148923615,-12,-2,-4,2,1,4,-2,-5
1576748148924571,-4,-5,2,-5,4,10,5,1
1576748148924571,4,-4,3,-5,-2,4,0,-2
1576748148945558,5,5,3,0,1,-7,-1,-4
1576748148945558,3,3,0,1,1,-8,-3,-3
1576748148947511,4,2,-1,3,8,-10,-4,1
1576748148947511,2,-3,-2,-1,-4,-3,-5,2
1576748148960519,2,-3,-1,-1,-7,-1,-5,6
1576748148960519,-1,-5,-2,0,-8,0,3,-2
1576748148967484,-4,-1,0,-1,0,3,5,-2
1576748148967484,4,-7,5,-1,3,-1,2,-3
1576748148983455,-5,0,4,-5,-2,-4,5,-6
1576748148983455,5,2,1,-2,-3,-4,-4,2
1576748148985405,-7,-1,-3,-2,-5,-5,-2,-3
1576748148985405,-3,-1,-4,-1,-2,-4,1,9
1576748149006350,-9,3,-5,1,2,2,-4,-8
1576748149006350,2,5,-3,-3,-2,6,5,1
1576748149007351,2,6,-3,-2,-3,4,1,2
1576748149007351,-2,-4,-4,-1,4,1,-2,-6
1576748149020357,3,-9,-1,1,3,3,-4,-3
1576748149020357,6,-4,1,0,2,0,-2,-4
1576748149027337,2,2,2,-4,-2,2,-7,-2
1576748149027337,-6,1,0,-4,-6,-3,0,-4
1576748149043295,-6,-4,-4,-3,-4,0,0,3
1576748149043295,-6,-8,-4,-1,-12,4,-2,-3
1576748149045250,2,-1,4,6,-5,1,4,6
1576748149045250,-3,1,-2,3,3,-10,1,-8
1576748149066234,3,2,1,1,1,-9,-1,0
1576748149066234,-1,2,0,-2,4,-8,-4,0
1576748149067186,-1,-8,2,-4,5,-6,-2,-1
1576748149067186,-1,2,-5,-9,5,2,2,2
1576748149080196,0,-2,1,-2,-1,5,1,4
1576748149080196,1,-3,-2,5,-7,3,-1,-7
1576748149087168,0,-2,-3,6,-7,0,-6,-2
1576748149087168,-2,-1,-1,3,-4,0,-4,-5
1576748149103136,-3,5,-4,2,-1,0,3,-3
1576748149103136,-7,-2,-1,-4,-1,-1,8,-5
1576748149105085,0,-4,-2,-2,4,-5,5,-2
1576748149105085,3,5,4,-3,0,-2,-10,3
1576748149126028,-2,2,1,1,1,1,-4,3
1576748149126028,1,0,2,1,9,5,-4,0
1576748149127026,7,3,0,-2,7,-1,-1,-2
1576748149127026,4,-4,-3,-3,-4,1,0,-2
1576748149139990,-2,-6,-2,-5,-4,-1,-2,-4
1576748149139990,-1,-7,-1,0,-6,-17,-1,3
1576748149146972,-1,-7,-5,-4,-9,-28,2,-3
1576748149146972,-6,0,0,1,-8,-2,1,-1
1576748149162930,-2,-2,-2,0,-4,0,1,2
1576748149162930,2,1,-1,-6,3,18,1,5
1576748149164924,-3,-2,0,-2,6,5,0,6
1576748149164924,-2,-1,0,-1,2,9,0,8
1576748149185868,-3,-6,-2,-3,-3,10,-2,-9
1576748149185868,2,-4,-7,4,-1,-8,-7,4
1576748149187863,1,0,-5,4,-1,1,-2,-5
1576748149187863,-1,2,-2,3,3,1,0,-2
1576748149199830,-5,5,-1,-1,-3,6,-1,-1
1576748149199830,-1,7,2,-3,-9,1,0,-4
1576748149208807,0,2,-1,-2,-5,-3,-1,-3
1576748149208807,-1,3,0,-1,2,-2,-4,-1
1576748149223766,1,-7,1,-6,4,-6,2,-4
1576748149223766,-2,3,-4,-2,5,-7,0,1
1576748149224764,-9,2,1,-1,-1,0,-1,0
1576748149224764,3,-9,-3,2,-6,-1,0,-3
1576748149245708,5,-6,2,4,3,-8,-2,1
1576748149245708,-6,-8,3,1,1,5,1,-7
1576748149247702,-5,-4,0,-1,-5,4,-1,-5
1576748149247702,0,5,1,-1,-4,-3,-2,1
1576748149260668,0,9,0,-1,-7,-2,-5,-4
1576748149260668,2,-3,2,-4,-1,3,1,4
1576748149266652,0,0,0,1,2,6,-2,-1
1576748149266652,1,-1,-2,-3,-1,-5,0,4
1576748149283606,4,2,1,3,2,3,4,5
1576748149283606,6,-3,-3,1,1,4,3,5
1576748149284604,2,-5,-4,-5,-6,4,-1,2
1576748149284604,-1,-1,-2,2,3,2,-2,-4
1576748149305548,-1,6,-7,-3,2,-1,-3,-1
1576748149305548,-8,3,-4,-4,-1,-3,-3,-2
1576748149307547,-2,0,-2,1,2,6,-5,-9
1576748149307547,2,-1,-1,2,5,-3,-1,-7
1576748149320511,2,-5,3,1,3,-7,0,1
1576748149320511,1,-2,5,1,1,-8,3,-6
1576748149326495,-1,0,1,-1,-5,-2,2,-2
1576748149326495,-6,0,3,-1,-5,1,-3,-1
1576748149343450,-5,-2,-5,1,-7,6,3,2
1576748149343450,-1,-1,-8,1,-9,0,1,-5
1576748149345445,6,-1,-3,1,-3,-3,5,5
1576748149345445,-1,-1,2,0,3,-4,-1,-12
1576748149365391,-4,0,0,-3,-2,-4,-3,2
1576748149365391,1,-2,4,-1,-5,-1,-2,4
1576748149367386,-3,-6,1,0,-2,4,-5,-3
1576748149367386,1,-1,5,1,1,-1,0,3
1576748149379354,-6,-6,-1,1,2,-1,-4,-3
1576748149379354,-4,3,-5,-2,-1,0,-3,-3
1576748149388330,4,-1,-7,-5,-4,0,1,3
1576748149388330,7,0,-5,-3,-5,-1,2,2
1576748149404287,-2,-1,-1,-3,-2,-1,-5,-5
1576748149404287,-3,-2,2,-1,8,0,-2,-3
1576748149405285,-2,2,-2,-2,5,0,-1,0
1576748149405285,-3,-3,-5,-1,6,-6,4,-2
1576748149426271,3,0,-1,-2,-1,-7,-2,-5
1576748149426271,0,0,0,-2,-3,2,-2,2
1576748149427224,1,4,2,-3,1,-3,-7,-2
1576748149427224,0,-3,1,-1,-1,-8,-1,-2
1576748149439236,-3,-2,0,6,0,-7,2,1
1576748149439236,0,-7,-3,1,-6,-3,1,-4
1576748149448185,-2,-4,2,4,-1,2,4,5
1576748149448185,-7,0,-2,1,-4,5,-2,0
1576748149463172,-3,5,-1,-2,-2,2,1,-3
1576748149463172,-5,-1,-3,-3,2,-3,1,3
1576748149465126,7,4,1,-1,1,6,0,-1
1576748149465126,1,2,-1,0,0,8,0,1
1576748149486100,-2,-4,-3,-2,-2,5,-6,4
1576748149486100,2,-2,-3,-4,-6,-9,-1,-1
1576748149487066,0,0,-4,-1,1,-7,3,-1
1576748149487066,6,1,2,-5,2,8,5,-2
1576748149499077,-6,2,-1,1,-9,-5,-10,-2
1576748149499077,-8,0,-5,5,1,2,-2,-3
1576748149509009,-7,-4,0,3,-4,-2,-6,-2
1576748149509009,1,-12,2,1,-2,0,2,-2
1576748149523013,8,-5,2,-4,6,1,5,1
1576748149523013,4,1,0,3,1,1,-2,0
1576748149524968,0,7,-2,-2,0,-6,-3,2
1576748149524968,-6,11,-2,-2,-2,-7,1,1
1576748149545951,1,-3,-1,-3,5,-4,-2,-5
1576748149545951,-1,-6,-3,-4,3,3,2,-2
1576748149547906,2,-3,-2,-1,1,4,0,-3
1576748149547906,-4,-5,-5,-3,-3,-3,-3,-3
1576748149559915,-2,1,0,-6,-1,0,4,-1
1576748149559915,4,2,3,-1,-2,-5,-4,0
1576748149568851,-9,-3,5,2,-3,-6,1,14
1576748149568851,-7,4,-3,-1,1,-7,-2,4
1576748149583833,-7,3,-2,6,-4,1,-1,-2
1576748149583833,-1,1,-2,0,4,5,2,-3
1576748149584803,5,0,1,-1,3,8,3,-3
1576748149584803,3,-4,-1,-5,0,3,-1,0
1576748149605790,0,3,-4,0,-1,-7,1,1
1576748149605790,5,3,-1,0,-6,-6,-3,-1
1576748149607746,4,1,-1,-2,-7,-2,-3,0
1576748149607746,1,2,-2,-4,-7,1,-5,0
1576748149619753,-1,-5,1,0,-5,7,-4,-2
1576748149619753,-6,-3,-1,1,1,2,1,0
1576748149628687,-3,-1,-3,0,6,-1,1,-2
1576748149628687,-6,-7,-4,2,9,-6,1,-2
1576748149643692,-1,-7,1,-3,5,2,6,-6
1576748149643692,-1,-3,2,1,1,-2,6,1
1576748149644644,-7,-5,-4,0,-3,-5,0,-1
1576748149644644,-2,3,0,1,-7,-2,-4,-1
1576748149665631,-2,-3,0,0,-10,-4,-3,-2
1576748149665631,0,2,2,-1,-8,8,-7,0
1576748149667586,-2,0,-2,-5,-6,5,-8,-8
1576748149667586,1,-5,0,2,1,0,0,-1
1576748149679595,8,2,-3,-3,3,-4,-1,3
1576748149679595,5,0,0,-7,5,-6,2,1
1576748149688531,0,2,-5,-2,4,-3,3,3
1576748149688531,-6,2,-2,1,-4,-5,-2,1
1576748149703531,1,4,4,3,-3,0,3,3
1576748149703531,1,-1,1,-4,-6,-4,-5,-5
1576748149704487,-2,5,-1,0,0,-3,-4,-5
1576748149704487,2,-2,0,-1,2,3,-2,1
1576748149725471,-6,-4,-6,-2,-2,-1,-1,2
1576748149725471,-6,0,-4,-6,1,1,0,2
1576748149727426,-4,2,1,-2,-4,-1,-2,1
1576748149727426,6,0,-1,1,-3,7,1,0
