timestamp,emg1,emg2,emg3,emg4,emg5,emg6,emg7,emg8
1530606678225385,26,16,0,0,-8,0,-3,-5
1530606678225385,-6,15,4,1,13,-22,0,-4
1530606678225385,-9,-40,-15,-13,-9,-13,-3,9
1530606678225385,-3,44,16,2,-1,18,3,2
1530606678239347,0,-8,0,1,-1,-2,3,4
1530606678239347,9,-6,-1,-5,-9,-3,0,-9
1530606678240345,38,5,-2,14,5,6,-7,-2
1530606678240345,-22,-37,-10,-3,3,6,0,0
1530606678261289,7,17,1,-10,-7,12,-2,3
1530606678261289,12,-7,-4,3,-8,-20,2,-1
1530606678262296,-7,6,-1,9,5,-1,-5,-10
1530606678262296,19,-15,-1,-9,-4,8,4,-4
1530606678284227,18,10,0,5,0,17,1,5
1530606678284227,-27,-1,-2,6,7,-3,-8,-4
1530606678285225,-9,-4,-3,1,3,-6,5,11
1530606678285225,-26,-9,-3,-5,-5,3,-6,-13
1530606678299187,-7,5,-1,0,-4,6,3,5
1530606678299187,8,-4,-1,-2,7,3,1,3
1530606678300185,-9,5,2,8,5,-6,1,3
1530606678300185,4,-4,0,4,0,19,2,10
1530606678322125,19,-2,-4,10,2,-4,-1,-4
1530606678322125,4,13,2,1,-10,-3,-1,3
1530606678322125,-17,5,3,-8,0,-5,-2,-4
1530606678322125,23,-5,-10,-9,-5,3,1,9
1530606678344067,4,-6,-2,-2,-7,-8,0,1
1530606678344067,-32,38,11,-1,6,1,-5,-19
1530606678345065,5,-6,-2,3,12,10,-1,2
1530606678345065,5,14,4,3,-5,0,3,2
1530606678359029,25,-31,-8,-7,-4,-7,-1,0
1530606678359029,-41,-5,-5,-1,-13,-3,-4,-21
1530606678360029,-4,23,6,5,1,-7,-2,2
1530606678360029,-5,-13,-4,-4,-4,-4,-3,-6
1530606678381965,16,16,0,-5,0,-4,2,-3
1530606678381965,0,-30,-2,0,-2,8,0,5
1530606678381965,-14,-3,-1,7,5,-2,1,0
1530606678381965,24,2,-3,-7,-17,-5,-4,-13
1530606678403907,-28,-28,-2,-2,13,2,-1,3
1530606678403907,17,7,-11,-3,12,2,0,14
1530606678404904,34,-27,8,1,-10,10,1,2
1530606678404904,-26,5,-4,-4,-16,-8,0,-8
1530606678418867,-1,-11,0,2,7,-4,1,9
1530606678418867,17,34,6,2,-1,4,3,8
1530606678426845,-15,-42,-18,-5,6,-3,-2,-2
1530606678426845,-4,0,5,-2,-9,-5,-3,-13
1530606678441806,-38,21,3,-1,-9,-7,-5,-13
1530606678441806,9,-31,-6,0,1,1,2,5
1530606678442803,31,11,-1,1,2,2,-1,1
1530606678442803,-22,6,8,3,3,-1,2,2
1530606678463747,22,-6,-2,2,4,-15,2,-1
1530606678463747,-63,12,1,4,-4,6,2,0
1530606678464744,19,-34,-7,5,-5,-3,4,1
1530606678464744,23,-9,-5,-5,10,9,-2,6
1530606678478707,1,9,7,-4,-5,-24,5,-4
1530606678478707,-9,15,-6,-2,5,-2,-5,-42
1530606678486685,27,12,5,-6,-13,-5,-2,5
1530606678486685,-25,36,-7,-6,3,-1,-3,10
1530606678501645,27,15,11,4,-13,5,-2,4
1530606678501645,2,-29,-10,-3,10,-2,0,-15
1530606678502643,40,-16,-3,3,4,5,1,11
1530606678502643,-73,-15,-2,1,-5,-3,0,-16
1530606678524584,15,13,1,-3,-1,6,-3,11
1530606678524584,24,2,2,1,-10,-7,-7,1
1530606678524584,-36,16,0,-3,6,0,0,-7
1530606678524584,22,-53,-2,-4,14,5,3,7
1530606678538546,-9,2,-3,0,-4,4,0,0
1530606678538546,-1,-24,-5,-4,-20,-28,-1,12
1530606678546525,-3,34,2,3,9,-9,-1,12
1530606678546525,58,-36,-2,1,-9,2,0,4
1530606678561485,-72,24,-3,-1,10,13,0,-12
1530606678561485,11,5,8,-1,-2,-1,4,5
1530606678562483,-11,10,-6,-8,-17,-8,-6,10
1530606678562483,52,13,5,-3,-9,-10,-1,-2
1530606678584424,-13,-5,0,-1,17,7,2,5
1530606678584424,-13,-34,-9,0,0,6,2,3
1530606678585421,20,52,7,-11,-14,-9,-3,-11
1530606678585421,-43,-28,-8,3,1,21,4,6
1530606678598387,31,-3,-2,13,2,-21,-13,1
1530606678598387,0,13,3,-6,2,-1,1,9
1530606678606365,-37,-35,-7,0,1,-23,0,-15
1530606678606365,55,29,3,-7,-8,-2,-2,-3
1530606678621325,-5,-5,-2,-20,-25,31,3,3
1530606678621325,43,-3,4,38,24,-10,4,-2
1530606678622323,-86,-12,-1,-1,5,16,7,-2
1530606678622323,-17,18,3,12,8,-39,-23,-5
1530606678644264,17,10,-4,-23,-14,-29,-7,-13
1530606678644264,13,-33,-7,-6,-9,55,-12,2
1530606678645262,6,17,1,-14,-13,-55,-2,1
1530606678645262,-37,3,1,22,7,21,6,-12
1530606678658227,-32,0,-6,-3,-1,-7,-7,10
1530606678658227,20,8,5,-9,-3,1,2,18
1530606678666205,15,-4,-1,5,3,18,2,-19
1530606678666205,13,7,-3,-13,-9,-12,1,11
1530606678681165,-14,-5,-1,6,6,-1,-3,-11
1530606678681165,11,2,4,-10,-4,5,3,1
1530606678682163,19,4,-3,-15,-13,26,-6,7
1530606678682163,3,13,5,32,25,-11,5,4
1530606678704104,4,-13,-3,9,-2,3,11,2
1530606678704104,-12,1,-2,0,1,3,-6,-5
1530606678705101,-17,-4,-1,-3,-1,5,-3,-13
1530606678705101,52,-3,-2,-16,-11,-3,-1,-3
1530606678718067,-30,-3,-2,2,-7,4,7,9
1530606678718067,26,4,-1,-8,8,-12,-3,-4
1530606678727043,-21,-19,-2,1,0,-11,-2,-2
1530606678727043,-11,-1,-9,-13,-1,8,-4,5
1530606678742003,12,19,8,12,8,0,-1,-6
1530606678742003,-2,12,2,-11,-11,-11,2,-5
1530606678742003,14,-10,0,14,12,25,1,12
1530606678742003,-22,6,3,3,4,-1,-1,-8
1530606678763944,32,-22,-11,-11,-5,10,-2,-5
1530606678763944,-37,-10,0,-3,-4,-13,0,-6
1530606678764941,-4,29,7,3,1,6,-2,2
1530606678764941,-3,-1,-2,-9,-5,-24,0,-4
1530606678786882,-7,-12,-1,-4,-6,36,1,0
1530606678786882,2,-4,-3,14,9,-9,3,1
1530606678787880,15,-14,-6,-5,-4,-3,-5,2
1530606678787880,-11,10,3,10,8,8,3,-3
1530606678801842,14,7,0,-5,4,-20,-4,-2
1530606678801842,-4,-7,-4,-1,3,32,3,4
1530606678802840,32,1,-1,3,-3,-18,2,4
1530606678802840,-77,3,0,-10,-4,-1,-3,-6
1530606678823784,13,-42,-6,2,0,3,8,20
1530606678823784,25,58,15,4,1,-2,-1,-17
1530606678824781,-31,-21,-5,3,7,15,12,8
1530606678824781,32,11,-1,-5,-3,1,-35,-5
1530606678847720,-9,-17,-8,-4,-1,-4,0,-4
1530606678847720,-22,-13,-7,-4,-8,-19,-3,5
1530606678847720,12,27,10,3,-10,-1,2,-8
1530606678847720,3,-33,-12,-8,6,4,7,-6
1530606678861682,-14,14,3,4,12,8,-6,-3
1530606678861682,4,-10,-2,-6,-15,-18,0,-13
1530606678862680,14,23,-2,5,11,21,-1,1
1530606678862680,-8,18,5,0,-15,4,7,1
1530606678884621,24,59,2,-3,12,-2,-5,0
1530606678884621,11,-64,-11,0,-17,-20,5,10
1530606678884621,-28,45,12,-5,-17,-12,-7,-20
1530606678884621,46,-36,-15,-6,16,11,9,30
1530606678907560,1,-33,5,0,2,-2,-2,-62
1530606678907560,41,65,10,4,5,13,-10,7
1530606678908557,-75,-66,-5,-2,-9,-3,-3,-25
1530606678908557,-9,-11,-7,-8,-14,1,5,12
1530606678921522,-3,78,18,2,1,-24,-5,10
1530606678921522,-43,-70,-12,-6,6,10,3,3
1530606678922520,84,25,-2,2,-7,-10,-1,-1
1530606678922520,-84,-36,2,5,14,1,7,3
1530606678944461,11,-38,-8,1,-8,2,3,9
1530606678944461,7,29,3,4,-5,4,-7,-18
1530606678944461,-28,13,1,-1,13,9,3,26
1530606678944461,35,15,3,4,-1,11,-3,-20
1530606678967400,13,-63,-17,-8,-6,-2,2,11
1530606678967400,-64,60,3,0,-5,-20,1,1
1530606678968398,40,16,14,3,10,0,-2,21
1530606678968398,-42,-32,-13,-6,-7,3,0,-4
1530606678981362,-24,-16,0,4,11,-1,-1,-4
1530606678981362,45,31,-4,-5,2,-5,4,21
1530606678982360,-85,-32,-11,0,-4,9,-5,-38
1530606678982360,103,59,12,-1,-10,-9,-2,22
1530606679004301,6,-35,-1,-1,4,-1,3,-9
1530606679004301,-12,-36,-6,-1,-14,23,-4,-13
1530606679005299,8,1,-9,-4,10,-22,-3,-2
1530606679005299,1,27,8,1,6,6,8,-1
1530606679027240,13,-6,-4,-6,-15,-7,-8,5
1530606679027240,-19,26,3,3,0,-23,-3,-9
1530606679028237,17,-22,2,-3,-11,10,1,-4
1530606679028237,2,-19,-7,-6,2,-8,-6,-21
1530606679041203,-14,51,9,7,13,-3,4,19
1530606679041203,20,-44,-3,0,16,12,2,7
1530606679042200,72,6,-4,-12,-12,-5,-8,-7
1530606679042200,-52,-10,0,8,1,-15,-5,-8
1530606679064141,53,19,2,-2,-13,15,1,9
1530606679064141,-42,-64,-5,12,3,-17,4,-3
1530606679065139,29,22,-5,-3,-2,7,3,9
1530606679065139,-2,25,5,0,12,11,-1,-15
1530606679087080,-1,-6,-1,-1,-5,-6,-1,-1
1530606679087080,-17,-4,-1,-15,-13,-32,-3,4
1530606679088077,-34,-23,-9,5,13,28,3,-3
1530606679088077,-12,4,5,14,-2,1,17,1
1530606679102040,-13,21,4,20,10,11,11,2
1530606679102040,3,-24,-8,-12,5,24,-19,-5
1530606679102040,-24,3,-4,-13,-19,-68,-15,3
1530606679102040,1,-2,3,19,33,24,-6,5
1530606679123981,28,7,-3,-7,-8,9,1,-4
1530606679123981,16,33,6,3,1,2,31,7
1530606679124979,-12,-23,-2,-2,13,-5,-4,-6
1530606679124979,-2,-11,-10,-45,-32,-3,-10,-11
1530606679146920,-41,5,4,13,4,-28,1,7
1530606679146920,47,9,-2,0,4,17,-11,3
1530606679147917,-43,5,1,-3,-10,4,3,3
1530606679147917,14,-7,-2,12,4,-5,1,-4
1530606679161880,-10,3,-1,-19,-9,4,-8,-7
1530606679161880,-6,3,3,3,-1,-3,-6,-14
1530606679162877,25,0,2,2,1,-3,8,6
1530606679162877,-6,-18,-4,4,-1,2,-2,4
1530606679183821,-16,-7,-2,-6,-7,-8,-9,-2
1530606679183821,24,24,3,5,3,5,5,6
1530606679184818,-51,-22,0,-5,-1,6,-2,-4
1530606679184818,33,35,6,2,-3,4,1,11
1530606679207757,-5,-25,-12,-4,-7,-15,-3,-10
1530606679207757,18,12,-9,-1,1,-6,0,9
1530606679207757,9,-6,3,-10,-5,8,1,1
1530606679207757,1,16,4,14,10,-1,-1,3
1530606679229699,-21,-2,-4,-2,-12,-3,1,4
1530606679229699,-2,10,0,-7,4,1,-6,-6
1530606679230696,16,-7,-3,9,6,36,-1,6
1530606679230696,-3,4,4,-8,-18,-56,5,-2
1530606679244659,17,6,4,-6,4,1,0,5
1530606679244659,-19,-6,-3,-5,-5,6,2,-3
1530606679244659,-2,-5,-5,9,-3,-3,-2,7
1530606679244659,24,-1,-3,2,9,9,-1,13
1530606679267597,-11,5,4,1,2,-1,-2,-12
1530606679267597,-11,-9,1,-3,-4,-7,3,1
1530606679268595,1,-17,-7,1,3,-16,-5,2
1530606679268595,3,0,-3,-5,-8,12,-3,-4
1530606679281560,-10,0,-2,-6,-3,2,-1,-2
1530606679281560,-2,3,2,-2,-3,-4,-4,-10
1530606679282558,-7,-4,-3,8,6,-9,0,-10
1530606679282558,-20,2,0,-5,-2,8,-2,-1
1530606679305496,2,-7,-3,0,-1,7,0,-2
1530606679305496,12,2,-1,1,0,4,-2,9
1530606679306494,-7,2,2,-8,-4,-16,2,0
1530606679306494,-1,-3,-2,5,-2,-9,-3,-6
1530606679327439,24,0,5,9,10,12,-2,-3
1530606679327439,-45,-15,-6,1,0,-6,2,4
1530606679328436,5,12,-3,-1,0,3,5,7
1530606679328436,11,-6,1,-8,-6,-3,-7,-4
1530606679341400,5,5,0,-8,-9,-18,-1,1
1530606679341400,1,-2,2,3,5,16,-10,-13
1530606679342398,3,3,-2,-3,-4,19,-2,6
1530606679342398,-4,-18,-6,0,0,-18,2,3
1530606679364339,9,13,1,0,-1,6,3,2
1530606679364339,8,2,0,-3,-10,-8,1,9
1530606679365348,1,52,15,6,8,-3,-1,-12
1530606679365348,0,-3,-6,-12,-6,9,-2,6
1530606679387277,-20,-16,-6,4,14,-2,-4,-9
1530606679387277,-10,-22,7,2,-14,-4,4,7
1530606679388275,21,-13,-1,4,14,10,-1,21
1530606679388275,16,4,-2,-3,-2,-5,-6,-15
1530606679401240,-21,16,-1,-3,5,4,2,3
1530606679401240,-2,-48,-6,-2,-18,1,4,0
1530606679409219,8,29,2,2,-5,-8,-6,-17
1530606679409219,20,4,6,-1,2,7,0,10
1530606679424178,-10,-28,-17,-5,5,1,1,6
1530606679424178,12,41,4,1,2,-3,-4,-2
1530606679425179,-19,-17,-4,-2,-6,-5,-1,-5
1530606679425179,7,-22,-13,-6,1,0,-4,-29
1530606679447117,-89,1,4,-9,-21,-9,-3,9
1530606679447117,21,-15,-3,13,27,4,1,-14
1530606679447117,53,-37,-7,0,-3,-1,0,14
1530606679447117,-82,80,1,-5,-3,1,3,-17
1530606679461080,65,-18,8,2,-4,1,-1,-4
1530606679461080,-5,9,-7,-8,-9,-14,-4,-3
1530606679469058,0,5,3,1,0,-3,-1,-8
1530606679469058,-14,-47,-11,3,-1,-13,9,19
1530606679484018,-29,27,3,3,-7,8,-2,12
1530606679484018,45,7,5,0,-1,-6,-4,-5
1530606679485016,20,30,6,7,13,5,0,-7
1530606679485016,6,-18,1,-10,-20,-9,-1,10
1530606679506957,-24,-29,-7,7,-3,5,-5,-20
1530606679506957,49,32,2,-2,-4,1,1,15
1530606679507957,-34,20,7,5,5,5,2,1
1530606679507957,-35,-13,5,-2,11,5,3,8
1530606679520919,8,7,-13,-4,-5,-9,-4,-4
1530606679520919,-2,20,-4,4,4,3,0,-17
1530606679528898,-25,-2,-2,-8,-10,0,4,9
1530606679528898,74,17,7,3,-7,13,0,2
1530606679543858,-41,-58,-17,-6,3,-10,-2,-6
1530606679543858,12,5,8,3,-8,-34,-3,4
1530606679544856,-55,-7,-2,-4,-9,-2,1,0
1530606679544856,2,16,4,2,1,14,-3,-16
1530606679566797,60,-32,-1,5,11,1,5,15
1530606679566797,-52,13,-12,-8,-5,26,6,-2
1530606679567795,37,13,10,2,-6,-10,-9,-8
1530606679567795,-12,-6,0,-7,-11,-4,-5,0
1530606679580759,30,2,2,2,13,2,1,-2
1530606679580759,-13,6,1,5,9,13,6,17
1530606679588738,-37,-32,-14,-5,-10,-16,-4,-19
1530606679588738,59,-25,-4,1,9,-1,3,20
1530606679603698,-48,108,19,6,0,0,1,-18
1530606679603698,-16,3,6,-2,3,-7,-7,-1
1530606679604695,19,-11,-7,1,13,7,1,0
1530606679604695,5,-10,-1,-2,-13,-4,-4,-2
1530606679626637,10,-9,4,-3,-5,-6,-1,-4
1530606679626637,13,-32,-5,3,8,5,-4,4
1530606679627634,12,32,2,0,-8,7,0,-3
1530606679627634,-34,-30,-9,-1,17,-32,-2,-25
1530606679640599,-13,15,5,-2,-6,15,3,-2
1530606679640599,-37,6,3,3,-1,29,-1,1
1530606679649575,74,-35,-11,-11,-4,-21,-3,4
1530606679649575,-3,-11,-5,21,13,7,-4,5
1530606679664535,-79,-3,3,-5,-8,16,-6,10
1530606679664535,24,6,3,0,-3,-9,-2,-20
1530606679664535,-7,-32,-9,-22,-12,-21,18,1
1530606679664535,21,23,5,16,1,14,3,20
1530606679686476,27,8,-4,-4,-11,19,-16,-9
1530606679686476,8,-16,-4,-4,2,-6,-4,7
1530606679687474,-37,6,3,18,13,-1,-28,-5
1530606679687474,6,-7,-1,-16,-12,-28,11,-2
1530606679711410,12,-2,-2,1,-8,-23,10,13
1530606679711410,-14,-9,-3,-12,2,-21,3,-12
1530606679712408,4,-1,3,16,8,46,-3,-9
1530606679712408,-53,-2,-4,-9,-1,6,-5,5
1530606679724375,21,0,2,-2,-3,-7,-3,-10
1530606679724375,6,-11,-1,-2,2,-11,-2,2
1530606679725375,84,12,-2,-20,-7,2,9,8
1530606679725375,-89,-5,-1,6,1,20,-5,-5
1530606679746317,70,-1,-2,9,1,-8,4,-4
1530606679746317,3,4,0,3,-5,3,-8,0
1530606679747314,-11,-7,-3,4,-4,17,3,1
1530606679747314,36,5,-1,-18,-7,-24,0,18
1530606679770253,-1,-6,-4,-6,3,0,1,-6
1530606679770253,-8,7,4,11,11,4,2,-5
1530606679770253,-68,-3,-5,-6,-3,15,-3,2
1530606679770253,5,-17,-1,-6,-6,-9,-1,-9
1530606679784216,-3,38,9,4,7,-4,4,9
1530606679784216,0,-9,-3,-3,-11,-2,-1,4
1530606679785213,1,-1,-1,-6,4,-6,-1,1
1530606679785213,3,-6,-1,3,0,9,-4,-16
1530606679807155,10,-15,-5,-3,-6,2,-2,4
1530606679807155,19,-5,-1,5,15,-4,2,5
1530606679807155,-21,1,3,2,-6,-8,1,-9
1530606679807155,23,6,0,-1,-3,5,-3,-5
1530606679830093,27,-1,-1,4,5,7,0,3
1530606679830093,-29,1,-4,-10,-5,4,1,-2
1530606679831093,-9,-8,-4,2,3,-25,2,-1
1530606679831093,-2,16,2,-1,3,3,-2,-2
1530606679844056,33,-9,-1,1,1,-2,-8,4
1530606679844056,-31,4,0,-4,0,4,5,8
1530606679845055,4,-13,-4,3,0,-1,-1,-2
1530606679845055,14,25,-1,5,-4,-11,-4,7
1530606679866994,-18,-13,4,1,5,21,3,-2
1530606679866994,-7,-10,-8,-2,-5,-4,-1,-7
1530606679867992,-5,18,5,5,4,-5,-2,-2
1530606679867992,-3,0,-3,-4,-10,10,3,0
1530606679889933,-1,-29,-5,-1,-4,-11,0,7
1530606679889933,-10,23,2,-1,-12,-3,-5,-4
1530606679890930,-10,-11,-3,3,7,2,1,-1
1530606679890930,14,-1,-4,-4,4,5,-5,-10
1530606679903895,-13,-4,0,2,-8,-13,0,9
1530606679903895,-9,-12,-2,-8,-8,-3,-1,-14
1530606679904893,26,-8,-1,2,-4,0,-1,-2
1530606679904893,-15,17,5,5,15,6,2,1
1530606679926834,3,-12,-3,-3,17,-1,3,7
1530606679926834,36,-1,-5,0,-3,1,-1,0
1530606679927831,-57,10,-4,-9,-15,-2,-2,8
1530606679927831,18,-15,-3,2,0,-1,-4,-3
1530606679949772,4,6,0,3,-6,-4,-1,0
1530606679949772,43,21,4,-5,-4,-7,-4,-3
1530606679950770,16,32,20,6,10,-2,2,7
1530606679950770,-10,-33,-14,-4,-5,3,-7,-7
1530606679963735,-10,-34,-7,-1,-2,0,3,-6
1530606679963735,5,51,1,1,-4,-4,-3,15
1530606679964733,-2,-50,-10,-3,-4,-8,-6,-16
1530606679964733,-11,-15,2,-3,-8,11,5,-12
1530606679986674,-7,-42,-9,-2,7,-8,-7,-7
1530606679986674,-2,6,-2,2,6,5,2,-5
1530606679987672,3,28,-1,-5,-21,1,0,5
1530606679987672,-33,16,3,0,17,-11,-4,-5
1530606680009612,4,-24,-5,-6,-5,-6,3,-1
1530606680009612,23,-43,1,14,18,23,7,18
1530606680010610,17,59,6,5,8,-1,-2,6
1530606680010610,6,-7,4,0,-7,-2,0,6
1530606680024573,9,56,3,-2,-8,-3,-7,-14
1530606680024573,18,-29,-7,-7,6,-7,1,11
1530606680024573,9,-28,2,2,4,9,4,-8
1530606680024573,18,46,0,2,-3,-5,1,5
1530606680046514,-42,-43,-5,-5,1,-2,0,-8
1530606680046514,-13,43,15,3,11,3,-4,-5
1530606680047511,29,-21,-10,-5,-3,-2,-4,4
1530606680047511,5,-18,-8,-3,1,3,3,6
1530606680069452,18,38,6,3,-4,-12,-10,-5
1530606680069452,16,-63,-15,-3,-9,-13,1,-1
1530606680070450,-31,-3,-1,0,4,1,1,0
1530606680070450,-4,-6,10,9,11,1,3,-11
1530606680084413,4,-3,-17,-14,-6,1,-10,-7
1530606680084413,-9,18,9,5,-2,-4,-5,-8
1530606680085410,11,24,3,-3,-10,-14,-3,3
1530606680085410,2,-20,-12,-11,-21,13,2,14
1530606680106354,-8,19,7,4,17,8,4,3
1530606680106354,-41,-3,-2,-4,-13,-5,-5,-13
1530606680107352,10,-21,-9,-6,-6,-7,-6,1
1530606680107352,33,-71,-14,-3,13,-1,2,3
1530606680130290,7,88,20,5,-1,2,4,1
1530606680130290,-71,-10,5,1,-10,-6,0,-2
1530606680130290,-16,-12,-10,-4,-2,1,-4,-12
1530606680130290,16,24,11,4,5,0,0,3
1530606680144252,7,-26,-2,1,-1,10,4,7
1530606680144252,2,-12,-6,0,2,-1,-4,-7
1530606680145250,0,24,1,-5,-8,2,-2,-11
1530606680145250,22,3,-6,-3,-1,-15,-3,0
1530606680166194,7,0,2,3,5,11,0,7
1530606680166194,-29,-5,2,-5,-5,15,1,-3
1530606680167192,27,-8,1,26,18,-13,-2,8
1530606680167192,-16,55,5,-8,-3,3,-3,-8
1530606680190130,-37,-25,2,-3,-4,12,3,-1
1530606680190130,2,-2,-3,-15,-7,-19,2,2
1530606680191128,-3,-15,1,18,10,4,8,4
1530606680191128,33,16,10,1,-5,19,14,8
1530606680204093,-29,-8,-12,9,6,-33,-32,-3
1530606680204093,15,-10,-4,-13,-7,26,-7,-2
1530606680205090,33,4,0,-4,5,-2,-4,-7
1530606680205090,-65,7,2,-3,-15,1,9,2
1530606680227031,5,-22,-4,-8,-13,-27,9,-3
1530606680227031,6,4,-2,2,16,8,-9,7
1530606680227031,-8,-1,-1,12,4,-12,0,3
1530606680227031,31,5,0,-4,10,-2,-8,-4
1530606680249970,-50,7,-1,-8,-5,6,1,-20
1530606680249970,24,-4,-1,-11,-4,-12,2,8
1530606680250967,-32,-17,-1,3,-3,17,6,11
1530606680250967,16,12,-3,0,-1,-7,-12,-25
1530606680263932,2,-20,1,5,-3,-4,3,11
1530606680263932,-6,2,3,17,3,-8,6,-4
1530606680264930,0,3,3,-7,2,26,0,2
1530606680264930,-16,7,1,-3,-8,-8,-4,6
1530606680286871,11,-11,-3,-3,3,1,3,-6
1530606680286871,-46,-7,-6,-2,-9,-5,-2,0
1530606680287869,1,5,1,-22,-11,-2,-5,-4
1530606680287869,-10,-13,4,32,18,2,1,9
1530606680309810,40,32,4,-4,-3,2,1,-5
1530606680309810,34,-17,-3,4,6,0,5,7
1530606680310808,-38,13,-5,-11,-9,-7,-4,-7
1530606680310808,-10,-3,-3,-9,-7,-12,1,9
1530606680323772,-4,-2,-2,0,3,14,0,-5
1530606680323772,20,-8,1,11,6,5,4,0
1530606680331751,19,12,-1,0,3,-4,-1,8
1530606680331751,6,2,2,-3,-8,-11,-6,0
1530606680346711,13,5,-2,11,4,4,2,-1
1530606680346711,-21,5,-1,-9,-8,-6,0,-4
1530606680347709,4,-18,-3,0,2,3,1,-6
1530606680347709,-28,-21,-5,-1,3,8,-2,1
1530606680369650,14,19,0,-4,-7,1,0,6
1530606680369650,-6,12,-1,-1,3,-15,-4,-12
1530606680370647,-2,-3,-4,-3,-1,10,-3,0
1530606680370647,-2,3,3,-1,-2,-21,2,1
1530606680383613,4,-13,-2,-5,-4,1,3,4
1530606680383613,-5,-6,-2,0,-2,1,-1,-3
1530606680391592,-13,5,3,2,-6,-1,-3,0
1530606680391592,17,5,4,-1,3,3,-2,-4
1530606680406551,-14,0,-1,-4,-1,-1,1,0
1530606680406551,2,-14,-10,1,-3,-3,0,-2
1530606680407549,19,8,-1,0,1,-3,7,3
1530606680407549,-23,-7,1,-1,-3,3,-8,-14
1530606680429489,3,-12,-4,-4,3,-2,1,4
1530606680429489,28,28,-2,5,25,7,-4,-21
1530606680430487,-80,1,9,0,0,0,4,-7
1530606680430487,45,-19,-4,-3,-5,6,0,2
1530606680443452,-4,25,-3,1,0,-5,-3,3
1530606680443452,11,10,8,0,-10,-8,-3,1
1530606680459410,27,-54,-13,-4,3,-4,-3,1
1530606680459410,4,51,13,4,2,1,0,-13
1530606680466391,-16,19,5,6,-1,7,4,5
1530606680466391,1,-27,-7,0,6,8,2,-2
1530606680467389,24,28,4,-1,-7,-9,-4,1
1530606680467389,-6,-27,-8,-5,1,3,0,4
1530606680490327,-64,-5,3,-1,10,0,-3,-5
1530606680490327,29,12,-1,-3,-15,-5,0,9
1530606680490327,-27,-6,1,-1,3,3,0,-2
1530606680490327,8,1,-9,-5,-4,-1,1,7
1530606680503292,21,-9,-7,-3,-5,-9,-6,-14
1530606680503292,0,17,7,6,11,1,-1,-2
1530606680511271,-21,14,-13,-9,-14,-1,-2,0
1530606680511271,18,-24,7,5,14,-1,1,7
1530606680526231,-9,8,-1,5,-7,3,4,11
1530606680526231,-1,-2,0,-4,-1,5,0,4
1530606680527229,70,6,-1,-2,-1,-36,-3,4
1530606680527229,-108,-6,-6,-7,-10,2,2,0
1530606680550167,59,-29,-3,-2,-2,-2,-1,5
1530606680550167,-8,-26,-9,1,-5,0,2,4
1530606680550167,34,79,31,10,22,16,-1,-21
1530606680550167,-33,-10,-10,0,1,-1,-2,-5
1530606680563132,44,-14,-2,-3,-4,-8,0,3
1530606680563132,-99,-23,-4,-1,-11,2,-8,-1
1530606680572108,81,-6,-4,-1,-1,8,5,5
1530606680572108,-59,-8,-1,-3,-13,0,-2,4
1530606680587068,15,2,0,-1,-2,-17,-6,-16
1530606680587068,19,21,4,-2,2,0,0,0
1530606680587068,-12,-12,-2,0,3,5,1,-3
1530606680587068,8,14,2,-2,0,1,0,0
1530606680610007,6,-5,-2,1,-2,4,-2,-4
1530606680610007,25,-13,-3,-4,0,-4,1,14
1530606680611004,-77,-38,-9,-4,-8,-6,-4,-32
1530606680611004,2,-14,-4,2,-1,16,-4,-5
1530606680623969,14,34,13,3,-3,-34,2,7
1530606680623969,-22,-5,-1,0,-4,1,0,1
1530606680631948,-34,-30,-18,-3,18,17,-1,1
1530606680631948,46,-10,6,-1,1,2,2,-4
1530606680646908,-3,45,5,0,-2,-2,0,-4
1530606680646908,74,8,11,0,-5,0,1,-2
1530606680647906,-76,-17,-10,-2,-9,-3,2,10
1530606680647906,104,-1,-5,1,3,-11,-4,4
1530606680668850,-101,4,-4,-18,-10,8,0,-2
1530606680668850,70,9,-2,7,15,-9,0,-7
1530606680669847,16,-21,-1,2,4,13,-3,4
1530606680669847,-21,12,0,3,9,-14,-1,-3
1530606680692786,82,5,1,-1,-4,-10,3,5
1530606680692786,-58,5,-4,2,-5,26,-2,0
1530606680692786,49,1,0,-10,-6,-7,0,0
1530606680692786,-14,12,-3,-7,-12,1,6,-3
1530606680706748,-51,-31,1,-3,5,2,-21,10
1530606680706748,-13,12,5,-6,-4,-48,-7,-12
1530606680707746,4,-15,-3,4,-6,-4,12,10
1530606680707746,-33,-2,-4,6,0,0,-4,2
1530606680729687,-2,-1,-1,8,8,35,9,-20
1530606680729687,41,9,-6,-21,-13,-15,-9,17
1530606680729687,-41,10,10,27,14,0,6,-21
1530606680729687,3,-3,-3,6,17,-30,-7,0
1530606680752625,-14,-24,-5,-2,0,18,5,-1
1530606680752625,30,8,1,8,9,-6,1,-19
1530606680753623,-79,-17,-3,-29,-29,-2,0,15
1530606680753623,70,21,3,14,2,13,1,-2
1530606680766588,2,-8,-7,-9,2,4,-4,-9
1530606680766588,-21,-14,-2,12,7,9,-4,2
1530606680767586,35,11,-1,-4,-5,-5,-5,10
1530606680767586,-52,-11,-1,2,1,-11,1,-14
1530606680789527,13,6,1,0,-1,14,-1,10
1530606680789527,1,-20,-4,-19,-18,3,5,1
1530606680789527,25,-3,-3,2,0,-1,-6,-4
1530606680789527,-6,7,0,-8,-6,-6,-3,3
1530606680812466,7,6,3,19,10,13,6,4
1530606680812466,-46,-10,-4,-1,0,-1,0,-13
1530606680813463,21,1,-3,0,-1,3,-2,7
1530606680813463,21,28,11,-10,-5,3,0,10
1530606680826429,15,-7,-4,-8,-6,-17,-2,-2
1530606680826429,-23,-16,-4,3,2,8,2,-3
1530606680827427,-62,11,-1,0,0,-5,-2,-1
1530606680827427,30,-5,-4,-15,-8,1,-3,-5
1530606680849367,-14,-5,0,11,3,-3,1,2
1530606680849367,31,2,3,2,0,10,0,5
1530606680850364,16,4,-2,-2,-6,-12,-2,-6
1530606680850364,-9,-26,-4,-5,4,8,1,-1
1530606680873303,37,11,1,5,4,23,0,1
1530606680873303,-15,-3,-2,-11,-8,-17,1,-4
1530606680873303,-17,-16,-3,1,-5,0,0,8
1530606680873303,-14,7,0,3,-4,7,-2,2
1530606680886268,19,9,6,1,3,0,-3,-19
1530606680886268,-16,34,8,0,-4,4,2,7
1530606680887265,32,8,3,1,5,0,-1,4
1530606680887265,-15,-13,-2,-4,-4,1,1,-13
1530606680909209,-1,-20,-5,1,13,-7,1,7
1530606680909209,-50,-10,-5,2,-3,0,-2,10
1530606680910204,65,13,3,0,-7,-9,-4,-10
1530606680910204,13,2,-3,0,-5,-5,1,13
1530606680932146,-26,-25,-1,-5,-4,0,-3,-8
1530606680932146,15,0,0,5,12,6,1,-15
1530606680933143,44,34,5,1,6,3,-3,1
1530606680933143,14,-17,-6,1,-2,1,1,-6
1530606680947105,-16,-23,-5,-4,-12,-15,-2,11
1530606680947105,35,9,1,-3,5,7,1,2
1530606680947105,-11,-27,0,5,16,6,1,-19
1530606680947105,-37,26,-2,-3,-7,-1,-2,5
1530606680969047,55,-54,-13,-10,-22,-11,-4,3
1530606680969047,-93,25,4,5,8,4,1,3
1530606680970044,26,-7,-2,-6,-5,7,-1,4
1530606680970044,20,-6,0,3,-2,-33,0,-8
1530606680991986,-33,10,6,-2,0,-3,-6,-13
1530606680991986,-29,-60,-8,-3,1,-2,-3,-3
1530606680992985,-40,2,4,0,-9,0,7,20
1530606680992985,51,43,0,3,9,10,-3,-2
1530606681006945,-34,-1,-1,-3,15,7,4,16
1530606681006945,24,23,0,3,-11,-17,0,0
1530606681007943,-15,-5,-2,-13,-14,-3,-6,-18
1530606681007943,-25,-59,-11,4,1,10,2,0
1530606681028887,68,28,0,2,-1,-15,-2,-8
1530606681028887,-19,21,5,0,-3,19,-3,2
1530606681029884,-35,-52,-10,3,12,-22,-10,4
1530606681029884,48,47,-7,-10,-11,7,1,2
1530606681052822,-84,89,26,9,17,7,6,6
1530606681052822,39,-49,-1,-3,-13,4,5,-12
1530606681052822,6,19,-5,2,-2,-1,-2,-2
1530606681052822,77,-12,1,-3,14,4,0,2
1530606681066785,-114,-22,-5,1,-2,9,1,4
1530606681066785,127,5,-1,-2,-9,9,-2,11
1530606681067783,-54,-11,4,0,-6,-27,3,8
1530606681067783,33,1,3,1,4,3,-1,-9
1530606681088727,53,2,-5,-4,-13,-1,3,1
1530606681088727,-57,-33,-7,-2,8,5,0,-5
1530606681089724,41,31,6,3,-2,11,3,8
1530606681089724,-3,11,-5,-4,-3,2,-2,12
1530606681112663,16,18,-3,0,-10,-1,-4,-16
1530606681112663,-57,37,16,4,-4,-10,-5,-27
1530606681113660,35,-29,-12,-5,12,9,1,0
1530606681113660,-13,1,0,-2,-11,-9,-9,5
1530606681126645,-2,-21,-5,1,-10,3,1,7
1530606681126645,19,-12,-7,-5,14,-4,-1,9
1530606681127624,-70,32,1,0,4,2,0,-19
1530606681127624,-5,-39,-1,-2,-12,18,3,6
1530606681149564,-19,9,2,2,-3,-18,1,4
1530606681149564,57,-23,-9,1,3,-10,-7,-6
1530606681149564,8,6,6,-1,-1,4,0,8
1530606681149564,-16,-10,-2,-7,-9,-10,-4,0
1530606681172502,33,-31,0,-3,-12,1,2,-12
1530606681172502,8,44,7,14,23,5,1,14
1530606681173500,-7,-33,-10,-11,-11,1,-2,-6
1530606681173500,-38,-5,-1,-1,0,-6,-10,-30
1530606681186465,23,20,3,-2,-4,1,-5,7
1530606681186465,-46,0,-3,-19,-6,0,-3,-19
1530606681187463,-37,-22,-11,22,12,20,15,-2
1530606681187463,4,36,13,-9,-10,-29,22,18
1530606681209404,21,-22,-7,-20,-5,6,-21,-7
1530606681209404,14,-23,-7,12,12,43,-3,-1
1530606681210401,37,31,4,3,0,-30,-8,8
1530606681210401,-66,2,2,10,4,-30,2,-17
1530606681232342,7,-2,-4,12,9,-22,16,-4
1530606681232342,28,7,0,-15,-14,35,0,23
1530606681233340,-21,1,0,-7,3,10,16,-25
1530606681233340,55,-2,4,3,-1,8,5,6
1530606681246305,-32,-13,-7,-4,0,-17,-6,-2
1530606681246305,-24,14,2,13,-3,-11,-5,5
1530606681254284,-11,-17,-1,-1,-1,1,-1,-2
1530606681254284,-5,-14,-4,-8,-3,-8,-2,6
1530606681269244,24,-1,-1,-3,-1,20,-5,-2
1530606681269244,1,12,-2,-14,-16,-17,10,3
1530606681270241,62,-8,0,6,-1,-16,-7,4
1530606681270241,-110,-10,-6,-12,9,48,5,-8
1530606681292182,12,-6,0,16,0,-20,-32,-4
1530606681292182,-13,-2,-6,0,6,-17,9,-4
1530606681293180,46,14,7,-9,-9,-10,-8,-1
1530606681293180,-8,-17,1,10,2,19,0,4
1530606681306145,-24,37,1,-16,-4,6,14,5
1530606681306145,-4,-22,2,15,2,-15,-2,0
1530606681314124,9,2,2,1,-2,4,-8,-5
1530606681314124,19,-22,-3,4,5,1,-1,2
1530606681329084,43,7,-5,-5,2,2,3,0
1530606681329084,-74,23,7,1,-3,-11,-4,-12
1530606681330082,13,-6,-2,-4,-6,7,3,6
1530606681330082,49,6,-1,2,-2,-5,-9,-1
1530606681352023,-38,-15,-6,-8,5,-3,2,-4
1530606681352023,50,-1,-1,26,11,5,3,5
1530606681353020,-15,9,-2,-10,-3,2,-4,-2
1530606681353020,-30,-7,0,3,-6,-7,-4,-5
1530606681365985,35,3,4,10,17,2,4,-4
1530606681365985,-19,-4,0,-7,-9,-7,6,1
1530606681373964,-12,-18,-5,1,0,12,-11,-4
1530606681373964,-21,20,-1,1,4,0,-2,-5
1530606681388924,18,1,2,-5,-9,7,7,3
1530606681388924,-55,1,-6,-11,-5,-5,-2,-7
1530606681389922,17,1,-1,-1,0,-4,0,-1
1530606681389922,-16,7,3,-3,-10,2,6,9
1530606681411862,-9,-6,-2,9,21,4,-4,-13
1530606681411862,11,-25,-6,-10,-9,-8,-6,-7
1530606681412860,-5,15,-4,-7,-3,1,-1,8
1530606681412860,0,-10,4,8,2,0,-2,-15
1530606681425825,-18,-12,2,1,-13,1,4,5
1530606681425825,8,6,-7,-9,-4,-15,-2,5
1530606681433804,10,24,3,-1,0,5,4,11
1530606681433804,16,1,-7,3,-2,-4,-2,8
1530606681448764,29,26,12,5,-4,1,5,-24
1530606681448764,-10,-10,6,-1,8,8,-5,4
1530606681449761,9,16,-1,-4,-6,-6,0,-6
1530606681449761,-11,-6,-2,0,5,1,-1,4
1530606681472700,25,-11,-9,-2,-23,-4,-4,-7
1530606681472700,-21,6,-4,-6,-9,8,1,12
1530606681472700,-51,-14,-4,0,16,-8,0,-6
1530606681472700,23,-15,-2,-3,-12,-4,-9,-16
1530606681485665,38,26,-3,0,20,6,2,-12
1530606681485665,19,-37,-2,0,-2,-1,7,18
1530606681494641,-13,54,2,4,-12,17,1,7
1530606681494641,-72,68,14,-6,-12,-27,-8,-6
1530606681509601,39,-24,-5,1,2,-7,-5,13
1530606681509601,-2,-15,-13,-12,2,-1,-1,-17
1530606681516582,85,3,8,8,3,7,-2,24
1530606681516582,-39,-33,-3,1,4,5,1,-27
1530606681532540,15,10,-3,-11,-20,-8,-10,0
1530606681532540,-14,5,4,-2,2,0,4,-2
1530606681533537,-40,-18,0,4,16,-2,-3,-11
1530606681533537,53,18,0,2,-8,-2,-7,-3
1530606681546503,-3,-65,-19,-4,3,-10,7,32
1530606681546503,90,92,22,5,-4,0,-1,-4
1530606681554481,-76,-53,-8,-2,-2,-6,-1,-26
1530606681554481,79,5,-2,-5,-4,5,3,21
1530606681569441,-42,-47,-13,-3,10,4,-6,-12
1530606681569441,17,68,17,0,-13,-6,-3,13
1530606681570439,52,0,1,0,-6,-7,-2,-15
1530606681570439,77,-28,-10,0,5,-1,5,17
1530606681592380,-65,9,4,-2,5,10,4,26
1530606681592380,-79,-51,-15,-2,-1,-8,-6,-27
1530606681593377,65,-12,4,-6,-21,2,0,0
1530606681593377,-37,1,-9,-5,11,0,-1,8
1530606681615318,24,23,12,3,0,10,2,-8
1530606681615318,-14,-9,-4,-1,2,4,0,11
1530606681615318,-16,-3,-4,2,20,1,0,-12
1530606681615318,40,-1,-7,-3,-4,-5,2,16
1530606681629281,-23,-35,-1,-3,-7,0,1,2
1530606681629281,14,40,2,-1,7,-3,-6,-17
1530606681630279,-55,-57,-9,-4,-12,-1,-2,-4
1530606681630279,-25,39,21,1,-3,1,-3,9
1530606681652220,29,9,2,6,22,-1,1,-2
1530606681652220,-20,-27,-13,-3,-7,6,-2,1
1530606681653217,-45,12,0,-8,-8,2,-2,-3
1530606681653217,-28,-12,5,1,11,-3,-2,-1
1530606681675159,36,-8,-7,7,-3,-12,0,12
1530606681675159,-13,-29,0,8,13,6,4,-4
1530606681676156,35,50,-2,-10,6,9,-9,11
1530606681676156,-27,-6,0,-6,-5,4,15,-13
1530606681689121,-21,10,3,16,-6,-13,15,0
1530606681689121,58,1,-1,3,7,26,-18,11
1530606681690118,-32,2,-5,-13,-17,-40,1,-1
1530606681690118,26,-12,1,8,17,13,-17,1
1530606681712060,-12,21,5,7,-1,-34,18,-7
1530606681712060,-3,-36,-14,-20,-16,-10,5,-18
1530606681713057,-4,10,5,22,9,29,10,6
1530606681713057,-26,-1,2,30,46,13,-5,2
1530606681734998,-14,9,-2,0,-7,27,1,1
1530606681734998,31,-9,-3,-7,-4,-36,4,5
1530606681735996,-29,-6,-4,-20,-19,-2,15,9
1530606681735996,37,-14,-4,-6,2,2,-37,-3
1530606681748961,-76,11,1,-4,2,0,-20,-11
1530606681748961,39,-2,-3,-11,-10,-4,-3,-5
1530606681749959,9,-24,2,6,-5,-10,8,2
1530606681749959,-36,9,-3,-5,-11,3,9,-10
1530606681771899,3,7,0,-4,-6,-2,-13,-9
1530606681771899,8,-14,-6,4,4,9,8,11
1530606681772897,10,11,0,9,9,-11,-13,-8
1530606681772897,-23,-26,-8,-3,-11,5,8,-5
1530606681794838,3,18,0,-19,-8,4,-4,-3
1530606681794838,-10,3,-1,-12,-14,-8,-2,0
1530606681795836,18,4,4,41,26,4,-6,3
1530606681795836,-1,-18,-2,-3,1,-1,6,-3
1530606681808801,15,-19,-10,-14,-9,-14,6,-3
1530606681808801,-23,3,4,21,14,4,-8,-6
1530606681809798,20,26,3,-9,-8,-2,-9,6
1530606681809798,11,-6,-2,-5,-7,-14,5,3
1530606681832737,-37,4,2,1,-2,17,-1,-5
1530606681832737,-5,-18,-5,-3,-3,-13,-1,-5
1530606681832737,58,-12,-4,-12,-2,-4,0,-1
1530606681832737,-13,10,-1,-2,-12,-1,-1,2
1530606681854678,-11,6,4,5,21,10,-3,9
1530606681854678,-15,-5,-1,2,-5,-6,-4,-22
1530606681855676,-3,-14,-5,-2,-2,-5,-2,-5
1530606681855676,-8,-12,-11,-9,-14,-1,2,3
1530606681869638,6,34,14,-2,-7,3,1,4
1530606681869638,-2,-41,-8,2,-6,-4,3,4
1530606681869638,1,28,-3,-5,4,1,-10,-2
1530606681869638,-1,10,0,-4,5,-1,3,-5
1530606681891579,15,-16,-2,1,-9,-1,2,6
1530606681891579,15,6,1,0,-4,1,3,4
1530606681892578,-18,-10,-8,-5,-2,0,-2,-2
1530606681892578,25,-13,-3,-1,-2,-2,-2,3
1530606681914518,-49,20,-3,-1,-12,-8,-5,-10
1530606681914518,-11,28,1,-3,-1,2,-4,-3
1530606681915515,53,-53,-8,-9,0,1,3,17
1530606681915515,-25,20,4,-1,-5,-7,-2,-4
1530606681929478,30,31,4,2,12,6,-3,-4
1530606681929478,32,-41,3,0,-9,4,-1,7
1530606681929478,-64,31,-3,-1,2,0,3,15
1530606681929478,29,-79,-9,-3,11,5,-4,-33
1530606681951419,6,8,-8,-3,-17,-4,-5,4
1530606681951419,6,64,15,1,4,-4,-4,-8
1530606681952417,62,-13,3,4,11,1,-1,13
1530606681952417,22,3,-5,-1,-15,-1,6,8
1530606681974358,-74,-49,-6,-3,1,-1,-1,-15
1530606681974358,42,9,-4,-1,14,4,-5,0
1530606681975356,41,-7,1,0,-25,-4,-7,-12
1530606681975356,-29,63,9,1,7,-8,-2,-5
1530606681989318,29,5,1,-4,-4,3,4,17
1530606681989318,-32,6,2,-2,-3,5,4,-1
1530606681990316,-33,-34,-9,-1,0,2,1,-9
1530606681990316,46,-9,-11,-7,5,-4,-2,-1
1530606682011259,-30,60,24,1,-2,8,5,-3
1530606682011259,53,-6,-13,0,6,1,-2,-19
1530606682012257,23,56,18,-2,-4,1,-4,-12
1530606682012257,-7,13,4,-1,-13,-27,-2,5
1530606682035195,70,-35,-9,1,4,-2,-2,16
1530606682035195,6,-20,-3,-2,-4,-1,3,10
1530606682035195,-86,-9,-8,-1,7,-1,2,-12
1530606682035195,-15,5,9,9,-2,2,-4,1
1530606682049158,22,-11,-7,-6,-4,-5,-4,-1
1530606682049158,-25,-4,-1,2,2,4,1,6
1530606682050156,40,5,-5,-2,-9,1,0,1
1530606682050156,-69,-10,0,-4,22,13,5,-4
1530606682072097,14,-25,-9,-2,-5,-10,-7,-11
1530606682072097,-17,55,5,2,-8,-9,-3,6
1530606682072097,-14,-8,3,-4,9,9,-3,-9
1530606682072097,5,-5,-3,-7,-19,5,-1,-21
1530606682095035,-2,-7,-1,15,4,-11,1,-1
1530606682095035,7,-31,-10,-15,0,24,-5,11
1530606682096033,-6,-39,-6,-4,-15,-31,2,5
1530606682096033,37,41,2,9,3,19,-1,13
1530606682108999,-46,-5,6,-4,7,-5,-2,-10
1530606682108999,30,2,-8,-3,-6,4,0,-19
1530606682109996,-24,-2,12,-10,-10,1,1,3
1530606682109996,18,-27,-8,-9,0,-3,-1,3
1530606682131937,5,-26,-7,-3,-6,0,-3,-4
1530606682131937,-11,15,5,-1,2,-1,9,12
1530606682132935,11,13,2,24,6,16,12,-2
1530606682132935,3,5,0,3,9,-25,-6,-4
1530606682154875,-1,10,-3,1,12,16,-4,-5
1530606682154875,-30,-25,2,-21,-23,-15,-12,-4
1530606682155873,-14,4,4,14,20,29,-9,3
1530606682155873,17,7,3,0,-1,13,0,11
1530606682168838,6,-5,-1,-5,-10,-55,15,1
1530606682168838,17,-1,0,-3,3,2,1,-1
1530606682176816,-20,-27,-5,-6,-8,-18,11,-10
1530606682176816,-13,17,0,13,20,11,-15,-4
1530606682191777,-14,-11,0,-10,0,17,-4,10
1530606682191777,13,-1,2,1,1,-3,-3,-3
1530606682192774,-5,22,0,-6,2,-22,-3,23
1530606682192774,-37,-18,-4,-11,-12,4,3,4
1530606682214715,16,3,1,-4,-5,13,2,-10
1530606682214715,-40,-5,1,8,4,-5,1,7
1530606682215713,12,0,-3,-10,-6,14,-4,-3
1530606682215713,-19,-2,5,13,4,-12,3,2
1530606682228678,86,4,-5,-6,-1,10,-6,-9
1530606682228678,-114,-2,-1,2,-2,-14,-5,-6
1530606682236657,23,14,4,0,1,-9,-5,-1
1530606682236657,-3,-26,-2,3,-10,-6,5,1
1530606682251617,4,10,-1,-6,-10,6,0,5
1530606682251617,41,-23,-6,17,24,4,1,-14
1530606682252614,-17,15,2,-4,-6,-3,-3,-2
1530606682252614,-5,15,7,-8,-11,-9,5,-10
1530606682274556,3,-16,-3,-2,-3,14,-2,7
1530606682274556,-2,1,-3,-1,-5,-3,0,13
1530606682275553,15,5,-2,4,14,-5,-2,-13
1530606682275553,11,8,2,-3,-9,10,2,-2
1530606682288518,-14,-15,-1,1,2,-10,-1,5
1530606682288518,-6,-7,-1,-4,-6,-2,-4,4
1530606682296496,1,11,-3,-1,-5,6,2,-4
1530606682296496,-5,-8,-4,-5,-6,-7,2,12
1530606682311456,8,0,-1,0,6,-5,-4,-12
1530606682311456,9,-11,-1,0,2,8,2,2
1530606682312454,-7,-15,-6,-5,-7,3,-1,0
1530606682312454,8,41,9,-2,-3,2,-2,-6
1530606682334395,-8,-5,-3,3,10,-7,0,4
1530606682334395,23,7,-2,6,4,4,3,7
1530606682335393,31,-28,-8,-8,-5,-6,-10,-6
1530606682335393,-75,-7,-5,-4,-3,-1,-1,4
1530606682348358,-18,18,4,3,-7,2,-3,6
1530606682348358,-9,4,3,-2,-6,-10,2,-13
1530606682356337,-6,3,-4,-3,0,1,-1,5
1530606682356337,29,-41,-10,-7,-6,-9,-3,-3
1530606682371297,29,24,6,7,5,22,1,-7
1530606682371297,-38,26,6,-5,-11,-3,-2,5
1530606682372294,-35,-33,-3,5,10,-10,-3,-20
1530606682372294,14,-16,-12,-2,-1,7,0,6
1530606682394235,-8,33,15,4,8,-5,-9,-30
1530606682394235,36,-6,-10,-5,-8,-5,1,13
1530606682395233,7,13,0,1,11,5,3,9
1530606682395233,33,-20,-3,-2,-8,-3,-2,1
1530606682408198,-55,-25,-14,1,5,1,0,-9
1530606682408198,-13,61,9,6,-8,-7,-3,7
1530606682417174,-27,40,14,-3,-10,3,1,6
1530606682417174,16,28,-6,-2,1,-11,-5,-20
1530606682432134,2,-12,-12,-9,-9,-4,-2,9
1530606682432134,4,-26,1,12,21,12,6,13
1530606682432134,29,-1,-3,-2,-15,-2,-5,1
1530606682432134,14,4,-1,-3,6,0,0,4
1530606682455072,-14,-2,4,-6,-27,-11,-5,-8
1530606682455072,-7,-11,-11,0,18,-2,-2,-3
1530606682456070,-26,10,8,-3,-6,21,3,3
1530606682456070,-16,-32,-3,1,-2,-43,-2,4
1530606682477014,51,-15,-3,-2,5,9,-1,-5
1530606682477014,21,29,14,8,6,9,9,-7
1530606682478012,-46,-21,-5,0,-5,3,0,-4
1530606682478012,28,50,10,1,6,12,-2,-13
1530606682491974,-15,-35,-16,-7,5,1,4,18
1530606682491974,-27,-35,1,-1,-3,-3,2,-2
1530606682492971,52,11,0,5,3,-10,-3,-9
1530606682492971,-9,-2,1,-5,-15,4,5,13
1530606682514912,7,2,6,11,32,1,-3,15
1530606682514912,7,-12,-5,-2,-3,15,1,-4
1530606682515910,-88,-5,-13,-10,-4,-8,-3,-18
1530606682515910,25,-40,4,-9,-7,9,2,6
1530606682537851,-16,38,12,25,12,17,7,-14
1530606682537851,40,-9,-7,0,-2,-39,-9,1
1530606682537851,-11,-11,1,2,10,0,1,11
1530606682537851,46,5,-5,-11,-6,6,0,-6
1530606682551814,-39,-16,-3,-13,-9,-9,0,-14
1530606682551814,9,10,0,8,2,8,-1,3
1530606682552811,7,-25,-12,-10,-13,-16,-9,-5
1530606682552811,-35,16,6,5,10,8,-2,-11
1530606682574753,22,0,0,-11,-10,-13,-1,25
1530606682574753,1,0,-4,-14,-17,1,-8,-28
1530606682575750,31,3,3,29,35,6,6,9
1530606682575750,-30,-9,-2,-16,-8,-24,19,0
1530606682597691,18,1,-1,15,-1,21,-23,3
1530606682597691,-8,-7,-4,-9,-7,7,3,-5
1530606682597691,-26,-4,3,13,9,9,-5,3
1530606682597691,-15,9,-1,-6,-1,-5,-7,1
1530606682611654,11,-3,1,16,16,-5,10,1
1530606682611654,-39,-7,-3,0,0,0,8,7
1530606682612651,35,12,-4,-19,-13,-2,7,1
1530606682612651,-16,-3,-7,6,-2,-27,3,2
1530606682634592,33,4,4,-11,-17,-17,4,2
1530606682634592,-60,-17,-6,2,6,12,-7,-3
1530606682635590,50,-7,2,1,0,-5,-8,-7
1530606682635590,-29,6,-1,-7,0,19,-6,4
1530606682657531,-13,-1,-3,-11,-11,-13,-1,-9
1530606682657531,49,-1,4,1,-3,-3,-3,5
1530606682658529,13,8,0,-4,-15,3,8,9
1530606682658529,-19,-5,1,5,7,5,-8,-5
1530606682671494,-17,12,0,0,-2,-2,-2,-6
1530606682671494,-1,-10,-1,-6,-3,-3,3,-4
1530606682672491,18,2,-4,-5,-5,0,0,0
1530606682672491,37,-4,2,19,6,-1,-5,1
1530606682694433,-76,-9,0,5,1,6,6,1
1530606682694433,-2,4,-4,-5,3,-15,-6,-8
1530606682695430,28,8,-2,-12,-3,-8,-5,-6
1530606682695430,-24,4,0,9,4,7,0,1
1530606682717371,39,4,-6,-12,-4,0,2,5
1530606682717371,17,-18,0,-4,-6,-8,-3,-2
1530606682718369,-25,5,3,7,-4,9,2,-4
1530606682718369,5,18,-1,-3,3,8,-1,2
1530606682731334,13,5,-6,-4,-4,-3,-7,6
1530606682731334,6,11,2,-1,-12,4,-6,-14
1530606682732331,-19,-13,-1,1,8,-19,-1,10
1530606682732331,11,4,-1,-1,-19,7,0,12
1530606682755270,-8,3,7,0,2,-1,5,-3
1530606682755270,7,-3,-7,0,7,-3,-3,6
1530606682755270,-2,-21,-2,-5,-4,3,3,8
1530606682755270,1,5,-2,1,-2,4,0,-8
1530606682777211,10,15,-1,0,-3,-7,-3,-1
1530606682777211,41,0,7,7,8,0,3,12
1530606682778209,-93,-2,-2,-6,-5,1,-9,-14
1530606682778209,35,-28,-4,0,-1,7,-3,4
1530606682791174,-1,-5,0,1,-1,-5,-1,-8
1530606682791174,25,17,-7,-5,-7,-23,-3,-2
1530606682792171,23,23,6,0,4,-2,3,-7
1530606682792171,-33,9,-2,-1,1,2,0,5
1530606682815109,34,14,12,3,8,7,4,-1
1530606682815109,-33,14,1,-5,3,6,-6,-26
1530606682816107,6,-25,-17,-5,-5,2,-1,-5
1530606682816107,-1,-70,-5,-4,-5,-9,-3,-11
1530606682837051,-55,73,10,5,-2,-1,1,0
1530606682837051,13,32,24,0,-14,15,3,13
1530606682838048,3,-21,-1,-2,6,-5,0,-2
1530606682838048,16,-10,0,9,4,4,-3,-2
1530606682852011,24,-78,-29,-15,-18,-10,-7,2
1530606682852011,27,-17,1,5,5,5,1,-10
1530606682852011,0,78,6,-2,0,1,-2,6
1530606682852011,-28,-16,9,10,11,8,2,12
1530606682874950,36,-34,-13,-9,-6,-14,-5,-10
1530606682874950,-25,20,1,2,3,9,2,-5
1530606682875947,4,-11,-2,-4,-19,-2,8,9
1530606682875947,47,-29,-14,-5,21,-4,-7,-46
1530606682896891,-101,38,-3,-4,-7,2,-4,19
1530606682896891,-28,-33,-10,-2,-2,12,-4,-4
1530606682897888,72,48,21,8,2,-21,3,8
1530606682897888,-1,29,6,-3,-18,1,0,11
1530606682911851,32,-39,4,2,-13,1,1,-6
1530606682911851,6,-17,-12,-2,23,6,8,21
1530606682912849,-13,-8,-5,1,8,-8,-5,-10
1530606682912849,-4,-26,-3,-7,-9,10,-2,0
1530606682934789,3,11,1,-1,7,7,1,-14
1530606682934789,16,0,-2,-4,2,-9,0,9
1530606682935787,-43,-16,7,9,-6,2,-7,-4
1530606682935787,4,20,-1,-3,8,-6,-7,-4
1530606682957728,-27,-21,-6,-3,8,-6,9,-2
1530606682957728,40,23,-1,-2,-10,-19,4,9
1530606682958726,21,-11,-13,-9,0,15,-9,3
1530606682958726,-27,14,2,20,-3,-32,-1,-5
1530606682971691,-28,-17,3,6,-5,11,-3,4
1530606682971691,-16,22,1,-2,-3,6,0,-6
1530606682972689,55,-25,-2,-6,-3,-32,2,0
1530606682972689,11,21,-1,-8,-6,49,23,6
1530606682994630,-21,6,-3,3,18,15,-40,-1
1530606682994630,10,-1,2,-13,-15,-37,10,17
1530606682995627,-33,-29,-7,-16,-17,42,-20,-21
1530606682995627,18,25,5,28,36,-33,2,23
1530606683017568,41,7,0,-11,-7,10,25,-18
1530606683017568,-78,-38,-8,23,17,19,-3,3
1530606683018566,-7,10,3,7,16,18,6,15
1530606683018566,14,10,2,2,11,4,4,-8
1530606683031531,-49,-12,-2,-15,-14,-18,0,-1
1530606683031531,57,25,4,-7,-25,-11,-14,2
1530606683032528,8,-4,-5,-9,-1,11,16,-5
1530606683032528,11,17,4,-7,-7,2,-10,-1
1530606683056464,31,-4,-3,-5,8,-5,0,5
1530606683056464,-29,-21,-4,-4,-8,6,3,0
1530606683057462,5,5,-1,3,-2,-7,-11,-2
1530606683057462,-36,1,1,-9,-8,3,-4,1
1530606683077408,24,-7,0,6,-1,-4,5,17
1530606683077408,-22,-4,-6,-14,-3,1,-10,-21
1530606683078406,28,40,11,8,2,-4,6,5
1530606683078406,-35,-15,-1,3,-2,-12,-4,-2
1530606683091371,29,-8,-5,7,1,10,3,1
1530606683091371,-22,-7,-3,6,12,-5,5,0
1530606683092369,9,-10,-6,-10,-9,-16,0,4
1530606683092369,-19,19,8,-9,-23,14,-3,-3
1530606683114309,8,3,0,17,25,7,-2,-7
1530606683114309,26,-4,-5,4,4,-24,-3,-4
1530606683115307,-74,-19,-7,-16,-7,-1,2,-7
1530606683115307,40,15,2,3,-10,-16,18,6
1530606683137248,-17,3,3,4,4,-1,-1,1
1530606683137248,5,-11,-2,7,5,-4,-15,-6
1530606683138246,9,10,1,2,0,-10,-3,7
1530606683138246,7,-20,-6,-8,2,9,-8,-15
1530606683151211,-12,7,2,-9,-8,-8,15,2
1530606683151211,9,15,4,6,5,10,0,1
1530606683159189,-24,-13,2,1,-2,-2,6,-8
1530606683159189,19,-4,-1,-9,-7,4,-2,-2
1530606683174150,-1,17,4,6,10,-3,-4,-4
1530606683174150,63,-15,-2,0,-1,6,1,12
1530606683175147,-84,-15,-8,-3,-1,0,-4,-8
1530606683175147,-10,-8,-5,-2,3,-8,2,-1
1530606683197088,35,4,-3,-7,-15,-12,-8,8
1530606683197088,-29,-24,-6,0,-2,-6,2,-4
1530606683198086,-24,10,7,10,7,12,2,-2
1530606683198086,18,-1,-7,-1,3,-2,-13,3
1530606683211051,-6,-28,1,1,-2,5,-1,2
1530606683211051,-39,35,-2,-13,-7,-5,1,7
1530606683219029,60,34,12,7,2,-4,3,-4
1530606683219029,7,-4,-4,-6,-4,2,0,1
1530606683233989,-22,-10,-5,1,-7,-1,-6,-6
1530606683233989,22,11,-1,-5,-9,5,1,-19
1530606683234987,10,46,12,8,10,-1,-1,6
1530606683234987,-15,4,8,6,21,3,-5,-2
1530606683256928,21,-71,-22,-12,-21,-5,-6,-6
1530606683256928,-29,12,-1,2,7,9,6,13
1530606683257926,40,-10,-9,-4,-27,-6,4,15
1530606683257926,24,53,10,2,-7,-4,-1,-13
1530606683270891,1,-9,7,0,12,-5,-3,-19
1530606683270891,-4,-17,-10,-2,1,4,-4,11
1530606683278870,-49,-26,-7,-2,-1,11,-5,-23
1530606683278870,36,-65,-9,2,1,-29,3,20
1530606683293829,29,67,11,9,7,-13,4,9
1530606683293829,26,-15,-8,-7,-19,23,-3,-20
1530606683294827,-41,-12,3,1,6,-12,4,-14
1530606683294827,-12,10,-9,-4,3,-2,-6,12
1530606683318763,-13,-33,-6,-14,-10,17,-1,-30
1530606683318763,45,23,14,5,10,-18,6,15
1530606683319760,50,-3,-9,0,-1,2,4,-1
1530606683319760,-74,-3,19,1,-13,6,-2,-2
1530606683330731,18,15,-6,1,7,-1,3,21
1530606683330731,-46,-48,-7,-3,9,11,-3,-27
1530606683339706,63,-2,-5,-5,-8,-20,-7,7
1530606683339706,15,3,-5,1,0,5,0,15
1530606683354667,-81,15,-8,-3,-12,14,-6,-40
1530606683354667,17,-42,0,-10,-8,-7,-2,6
1530606683354667,38,28,5,2,20,-6,1,5
1530606683354667,-78,-10,-6,-5,-7,-1,-3,-7
1530606683377605,30,15,5,7,-5,14,1,15
1530606683377605,18,9,-5,0,-1,-9,-5,-4
1530606683378603,-15,-19,-3,-9,-5,10,-5,1
1530606683378603,16,4,-6,-1,3,-7,11,2
1530606683390571,-73,-30,-4,5,9,8,0,6
1530606683390571,21,47,0,5,-2,5,-5,-7
1530606683399547,35,11,3,3,-3,-9,-4,16
1530606683399547,12,-19,-7,-22,-20,9,5,-15
1530606683414507,-37,-7,4,3,-3,-55,13,8
1530606683414507,-17,17,5,23,22,11,-25,-2
1530606683414507,-38,-27,-7,-19,-17,8,6,1
1530606683414507,52,19,1,18,13,19,-17,-5
1530606683437445,51,-12,-3,17,36,5,13,-1
1530606683437445,3,6,-2,-4,-12,-70,14,11
1530606683438443,-65,-20,-6,-1,3,7,-9,-6
1530606683438443,9,3,1,-17,-8,-16,20,6
1530606683451408,21,29,6,5,-7,37,-1,13
1530606683451408,15,-6,-1,-7,7,11,-13,0
1530606683459386,12,-6,-6,-9,-10,-9,-6,-28
1530606683459386,-62,-5,1,13,12,20,9,-1
1530606683474347,25,26,0,-14,-11,-17,-7,16
1530606683474347,21,-7,-3,-18,-17,-19,-22,-4
1530606683475344,-5,-17,-1,18,16,0,-4,0
1530606683475344,55,22,-1,-9,-3,-7,-2,11
1530606683497285,-42,-6,-2,-14,-5,-1,12,-32
1530606683497285,-80,-2,0,-3,-5,25,17,-12
1530606683498283,51,-20,-1,13,7,34,-11,14
1530606683498283,-22,13,0,6,5,-45,-1,3
1530606683520224,35,6,5,-2,-6,3,-3,8
1530606683520224,26,-20,-4,-20,-14,-4,0,-2
1530606683520224,-48,10,1,6,6,6,-1,5
1530606683520224,-39,-35,-9,3,-1,9,-6,-23
1530606683534186,42,7,-1,-5,-4,7,-9,6
1530606683534186,-35,23,9,8,2,-1,-1,-2
1530606683535184,0,-6,-2,-8,-7,-14,8,14
1530606683535184,20,-12,-8,-20,-11,7,-7,-4
1530606683557125,27,-2,-3,7,3,-5,-12,-11
1530606683557125,-7,-7,-5,0,2,-23,11,4
1530606683558123,8,26,9,3,3,17,7,3
1530606683558123,-1,-27,-8,8,1,-6,-6,2
1530606683580064,-22,-6,-3,-6,-7,4,-3,-2
1530606683580064,3,4,0,17,14,28,29,-5
1530606683581062,14,-26,-6,-15,-14,-32,-9,24
1530606683581062,7,10,6,2,2,4,-1,-22
1530606683594027,24,44,8,0,-6,-5,-6,7
1530606683594027,-53,-23,0,-6,-8,23,-3,-6
1530606683595024,44,17,-2,5,14,-17,11,-3
1530606683595024,-44,-20,1,0,0,10,-2,-9
1530606683616965,35,-21,-8,2,5,3,-10,-12
1530606683616965,1,0,-1,-5,-4,2,2,7
1530606683617963,0,-24,-4,1,-16,3,-4,-3
1530606683617963,4,-20,-2,18,23,-3,0,21
1530606683639904,-18,33,13,2,0,3,1,-22
1530606683639904,19,17,-2,0,-2,30,-7,0
1530606683640901,-4,-23,-9,-3,-10,3,-9,-6
1530606683640901,-10,40,18,-1,-11,-29,2,-16
1530606683653866,2,-19,-18,-11,9,-9,-1,18
1530606683653866,-5,-5,1,6,-7,-4,-1,-2
1530606683654865,-13,8,-8,-2,-1,-2,0,-4
1530606683654865,51,-16,-13,-10,-9,8,-13,19
1530606683677802,-112,10,16,2,-10,-2,-3,-7
1530606683677802,-16,-5,-7,-3,4,1,5,11
1530606683677802,52,32,8,6,10,-1,-3,-12
1530606683677802,-20,-38,-12,-13,-17,-2,1,1
1530606683699744,31,25,0,10,34,-3,-2,14
1530606683699744,-20,32,3,-3,-17,0,-11,-4
1530606683700741,0,25,4,-1,1,-7,-2,-1
1530606683700741,23,3,6,-5,-13,9,2,5
1530606683714704,-34,-95,-13,4,2,-13,2,-2
1530606683714704,14,45,5,3,6,-4,5,0
1530606683714704,30,1,6,-8,-8,3,-12,-29
1530606683714704,59,-31,-5,9,9,17,9,-8
1530606683737643,-19,29,0,-9,-13,10,-5,6
1530606683737643,63,28,11,-1,-24,-36,-1,4
1530606683738640,-64,-26,-9,-1,27,18,8,-1
1530606683738640,-14,-35,-10,-11,-8,0,-2,-6
1530606683759584,-7,-29,-6,16,-3,-5,4,8
1530606683759584,-9,-2,0,1,11,6,-8,-6
1530606683760582,13,41,1,-1,-19,-10,-2,-10
1530606683760582,53,24,13,1,5,0,0,18
1530606683774544,-30,7,3,-5,-18,8,4,-13
1530606683774544,17,-34,-16,-7,2,-14,-4,9
1530606683774544,47,-3,1,-2,-1,15,7,-6
1530606683774544,-62,30,-13,-2,17,9,-23,-29
1530606683797482,-35,-25,-1,-4,-11,-16,5,-22
1530606683797482,29,-1,1,2,5,4,-1,0
1530606683798480,-11,-23,-4,-7,-5,-11,-3,10
1530606683798480,-28,18,10,9,0,-7,7,7
1530606683820421,86,-4,-3,2,7,-7,-10,-2
1530606683820421,5,11,-7,-1,11,11,-5,-16
1530606683820421,9,-38,-2,1,5,1,3,-1
1530606683820421,-84,-31,-1,-2,-9,-14,1,-11
1530606683834383,64,55,11,-8,-4,-12,0,9
1530606683834383,-32,-81,-7,2,5,1,3,6
1530606683835381,0,41,-8,-12,6,10,-3,-4
1530606683835381,-55,35,5,9,-2,0,4,3
1530606683857323,25,-32,-6,-9,-5,4,0,-6
1530606683857323,20,26,6,-1,-7,-5,14,-6
1530606683858320,-58,-54,-4,19,3,17,11,6
1530606683858320,109,11,-1,-2,6,32,-22,3
1530606683880261,-92,7,-2,-14,-15,-72,-2,-3
1530606683880261,-19,22,4,4,4,31,-14,-27
1530606683880261,-44,-15,1,22,14,-55,6,1
1530606683880261,43,22,-3,-14,-10,-15,23,7
1530606683894224,41,12,-1,17,-3,78,-34,16
1530606683894224,17,-35,0,10,3,-51,-1,-6
1530606683895221,-50,11,3,-11,-10,21,1,10
1530606683895221,15,20,3,21,20,5,-4,-13
1530606683917162,-4,-9,-6,-15,-2,-5,23,-10
1530606683917162,-26,-23,-2,-4,-2,16,8,7
1530606683918160,16,19,1,-13,-14,-9,-13,9
1530606683918160,11,2,-3,-20,-24,-23,1,-8
1530606683940101,42,3,0,15,20,3,11,7
1530606683940101,-57,-7,-8,-7,0,-2,-9,-16
1530606683941099,17,7,5,10,6,17,0,-12
1530606683941099,-32,2,-3,-14,-12,-13,-7,8
1530606683954063,11,-11,-5,-2,-9,6,-16,3
1530606683954063,38,18,3,3,8,13,10,12
1530606683955061,17,-8,-4,-17,-11,-12,-5,4
1530606683955061,-36,-2,0,19,19,6,3,1
1530606683977002,-14,-19,-1,25,16,-18,3,-4
1530606683977002,-50,5,-4,-12,-9,0,2,13
1530606683978000,20,8,3,13,2,-5,-1,1
1530606683978000,5,-6,-5,-22,-21,-4,-1,-4
1530606683999941,29,4,-6,-8,8,9,6,7
1530606683999941,-16,69,17,11,-2,-3,-2,-14
1530606684000939,52,-35,-7,-4,2,-28,-8,-5
1530606684000939,-38,7,0,1,1,50,0,-1
1530606684013904,10,-2,-4,-15,-12,-8,9,9
1530606684013904,18,-28,-11,-2,2,-21,-35,-1
1530606684014901,-8,20,6,2,-7,-12,12,6
1530606684014901,41,-12,-2,-6,-2,-11,-5,4
1530606684037840,-38,4,1,-8,-9,6,6,16
1530606684037840,-18,-8,2,4,12,12,7,-6
1530606684037840,39,24,3,7,-5,5,1,-1
1530606684037840,-94,-34,-8,5,2,-3,-6,1
1530606684059781,14,10,1,-7,-4,8,1,-5
1530606684059781,19,-9,-2,-11,-8,3,3,1
1530606684060779,-21,-4,-2,0,1,0,-9,2
1530606684060779,4,-9,-3,-2,-7,2,3,-8
1530606684073744,-12,51,5,-3,6,4,-1,-1
1530606684073744,2,-35,6,3,8,1,0,8
1530606684074741,-10,-24,-14,-7,-5,8,1,-5
1530606684074741,32,-3,8,14,12,-4,6,26
1530606684097679,-39,-28,-8,-9,-9,-9,-11,-7
1530606684097679,-1,25,-6,4,-4,-8,-2,-19
1530606684098677,-11,26,10,-2,-7,12,1,9
1530606684098677,13,-3,-1,2,3,-7,4,5
1530606684119621,44,-11,-1,-2,1,16,1,-1
1530606684119621,-12,-28,-5,0,2,-10,-5,16
1530606684120618,-21,-20,-7,-7,-4,-1,-8,-42
1530606684120618,32,35,0,0,7,-8,-5,-14
1530606684133584,-19,-32,-2,1,4,1,4,-5
1530606684133584,-58,-2,-6,-9,-20,6,1,8
1530606684141563,49,47,14,9,18,0,4,12
1530606684141563,-51,-18,3,0,-1,0,-1,4
1530606684157520,12,-36,-15,-1,14,-23,-11,-5
1530606684157520,46,55,6,-1,-8,1,5,-3
1530606684158517,4,-15,-8,-7,-8,-7,-5,-1
1530606684158517,10,23,7,6,11,6,8,8
1530606684179461,-30,46,8,-4,-23,0,-7,-24
1530606684179461,17,-40,-5,-4,6,4,5,23
1530606684180458,44,12,-4,-8,-11,-8,0,-27
1530606684180458,-52,-19,0,4,2,1,-4,-9
1530606684193424,-3,9,-2,-10,-9,5,1,9
1530606684193424,-10,11,-1,17,13,-3,-4,5
1530606684201402,-16,-49,-11,-7,4,7,-9,5
1530606684201402,32,19,1,0,16,4,5,6
1530606684216362,4,-4,2,-2,-13,-12,6,2
1530606684216362,13,-2,-4,-13,-9,-3,-1,3
1530606684224341,-8,-17,8,12,3,5,3,-24
1530606684224341,23,-53,-5,-2,-18,6,-8,-26
1530606684240299,-67,70,-3,-9,8,-21,-2,-5
1530606684240299,71,-28,9,2,2,9,6,6
1530606684241296,-35,7,-3,1,-3,-1,-1,6
1530606684241296,61,-12,-5,-6,-5,-10,-4,4
1530606684262240,-6,-27,-4,1,3,7,2,-2
1530606684262240,-27,-24,-6,-3,-7,1,5,-5
1530606684263238,-20,25,3,3,-3,-8,0,18
1530606684263238,22,39,7,4,-8,-2,-1,-13
1530606684277199,15,-26,-7,-1,-16,3,-1,22
1530606684277199,1,12,6,4,15,-8,5,1
1530606684277199,-16,36,1,-7,-6,14,-3,8
1530606684277199,33,36,3,4,25,-3,-3,12
1530606684300138,13,-15,-2,-2,-5,3,1,-14
1530606684300138,-83,-41,-11,-5,3,8,-3,-9
1530606684301136,24,-17,3,7,0,14,8,7
1530606684301136,26,15,-4,-9,-8,-19,-3,9
1530606684313103,-34,-7,5,2,10,-19,-3,-12
1530606684313103,29,15,0,6,-4,4,-1,-7
1530606684322080,53,-7,1,-5,-6,-7,-2,14
1530606684322080,-123,-31,-3,11,4,9,8,-2
1530606684345018,81,-5,2,-12,-16,7,-15,18
1530606684345018,48,31,0,9,-7,-18,-1,-43
1530606684346016,-61,-17,-4,-2,11,2,8,-5
1530606684346016,10,4,0,-4,-9,-5,-39,13
1530606684359978,-11,-13,7,18,7,8,14,19
1530606684359978,14,2,-3,-9,-5,-1,-5,2
1530606684360976,78,13,-6,-10,-5,-15,6,7
1530606684360976,-45,11,0,-5,-4,-1,12,-33
1530606684373941,35,-3,0,11,7,18,-9,22
1530606684373941,-37,7,2,-3,-5,-3,-2,15
1530606684381919,-6,-24,-5,1,7,18,-5,-9
1530606684381919,14,21,0,4,9,-3,-6,12
1530606684396879,-64,1,-5,-21,-17,0,11,-31
1530606684396879,40,-13,6,14,15,9,7,4
1530606684397877,-11,-1,1,1,-7,-5,-13,3
1530606684397877,41,-11,-5,-7,-13,-4,10,9
1530606684419818,-32,-12,0,3,13,23,2,-12
1530606684419818,103,9,-2,-5,8,-22,-15,13
1530606684420816,-97,-7,1,8,6,-15,1,10
1530606684420816,77,-5,0,1,-6,22,2,-26
1530606684442757,15,-4,1,10,10,37,12,6
1530606684442757,79,25,-5,-17,-16,-16,-2,14
1530606684442757,-65,-17,2,5,8,-23,0,1
1530606684442757,-47,-7,-2,-1,-14,-14,14,-6
1530606684456719,110,10,-4,-13,-5,-10,-17,-3
1530606684456719,-18,-1,3,5,16,49,2,-4
1530606684457717,49,16,3,1,-10,-13,-3,10
1530606684457717,23,-7,0,1,5,14,12,11
1530606684479658,-100,-12,-3,8,-2,-10,-2,6
1530606684479658,4,10,1,-9,-16,-3,-1,8
1530606684480656,14,1,-3,-2,4,1,4,-13
1530606684480656,-26,-8,-4,3,3,-2,-3,3
1530606684502597,38,3,4,2,-4,-16,-3,-1
1530606684502597,-75,-12,-2,-3,-6,-4,0,-4
1530606684503594,-11,14,1,-8,-11,16,-2,-15
1530606684503594,32,-9,-5,-5,-8,-24,-8,3
1530606684516559,2,-2,-4,0,1,-9,-3,-2
1530606684516559,-57,-71,-8,-5,-10,2,5,-2
1530606684517557,17,67,8,2,23,9,0,-4
1530606684517557,14,15,6,0,-14,5,7,11
1530606684539498,53,-9,-6,2,8,-14,-1,1
1530606684539498,-97,-12,-9,-5,-11,14,-10,-43
1530606684540496,9,-20,1,5,6,-13,-1,-1
1530606684540496,9,-11,-1,-3,1,-7,-3,2
1530606684562437,17,16,6,2,-7,-3,-5,0
1530606684562437,7,5,-3,1,10,-9,3,14
1530606684563434,-40,-40,-12,-8,0,17,-3,-8
1530606684563434,26,26,4,4,13,1,-1,4
1530606684576399,-10,16,-2,-4,-6,6,-3,-11
1530606684576399,6,6,-1,-3,-16,-34,-2,-8
1530606684577397,55,-28,-9,-1,4,-7,-3,9
1530606684577397,-50,44,15,2,12,0,1,-3
1530606684600335,-83,5,7,5,-7,13,10,2
1530606684600335,2,4,6,1,0,4,-1,-4
1530606684600335,3,-72,-26,-9,-5,-2,-1,22
1530606684600335,-11,3,-14,-6,-20,-10,-13,-14
1530606684622277,94,59,20,9,22,-11,0,12
1530606684622277,-14,-47,-14,-8,4,4,1,-18
1530606684623274,-48,29,-1,-2,-4,1,0,-18
1530606684623274,36,5,1,-3,6,11,3,12
1530606684637237,-82,-37,-5,-4,-11,-26,-2,-2
1530606684637237,76,28,2,6,2,24,1,20
1530606684637237,38,-43,-1,-2,-7,2,-14,-4
1530606684637237,-75,5,-7,-2,6,0,1,0
1530606684660175,77,34,13,5,-6,-22,6,-23
1530606684660175,-27,-17,-6,-6,0,6,-3,16
1530606684661173,30,-26,-12,-4,14,5,3,-12
1530606684661173,-46,57,11,1,-7,4,0,13
1530606684682116,94,-29,-12,-5,-11,7,-8,18
1530606684682116,-102,-23,-6,-3,1,-6,-3,-22
1530606684683114,37,26,9,0,-11,4,-2,-20
1530606684683114,91,-7,6,-1,6,-7,-5,-3
1530606684697077,-41,-21,-12,1,-9,0,4,9
1530606684697077,32,15,-2,1,8,8,-5,-1
1530606684697077,-31,-29,-12,-6,0,-12,5,8
1530606684697077,-85,-31,-4,-5,-7,9,-5,-9
1530606684720015,48,-5,0,-2,1,-5,2,0
1530606684720015,-1,41,10,3,23,2,-7,14
1530606684721013,-36,-2,9,10,19,-8,0,-11
1530606684721013,21,-34,-14,5,-2,-4,16,-11
1530606684741957,-22,-4,-3,-1,-14,-21,-15,7
1530606684741957,-29,11,-1,-9,-41,-3,-4,-30
1530606684742954,45,44,9,-2,3,-9,1,33
1530606684742954,-2,-27,-4,-9,15,3,-6,-14
1530606684756917,27,29,-9,-7,9,18,1,-33
1530606684756917,-46,-50,-4,-3,-7,-12,-1,2
1530606684757914,24,22,2,7,-16,2,2,-8
1530606684757914,-75,-29,-4,-2,-7,-3,-8,1
1530606684779855,19,-4,1,-1,14,1,5,2
1530606684779855,108,32,6,-14,-12,7,13,19
1530606684780853,-78,24,11,25,31,-26,-21,-15
1530606684780853,35,-23,-12,-2,3,-20,2,6
1530606684802794,-15,-7,5,25,10,53,-11,-12
1530606684802794,26,-7,-9,-5,-2,-31,9,4
1530606684802794,0,6,4,-21,-26,11,19,11
1530606684802794,36,4,-4,-39,-28,-29,1,12
1530606684816756,-96,-20,-3,30,14,29,-6,-29
1530606684816756,64,15,3,-8,-11,2,-18,-4
1530606684817754,23,24,4,15,6,13,25,7
1530606684817754,-19,-31,-5,-12,-15,-26,0,-14
1530606684839695,5,9,-5,-14,5,-2,-28,10
1530606684839695,-11,-24,-1,0,5,34,12,9
1530606684840693,-3,-2,-5,-8,-14,-18,-9,-5
1530606684840693,-21,1,2,-8,-15,28,1,0
1530606684862634,-17,-2,-2,1,5,-51,15,4
1530606684862634,23,10,6,24,19,-11,-9,2
1530606684863631,42,14,3,-8,-15,3,-8,8
1530606684863631,-29,-19,-5,13,8,17,2,-5
1530606684876596,-4,11,-1,-8,-3,-2,6,6
1530606684876596,-7,24,2,-3,1,-9,2,1
1530606684877594,65,-10,-3,-5,-9,29,6,7
1530606684877594,-62,-6,0,9,7,-1,-19,-24
1530606684899535,30,-8,-2,-1,6,-9,13,18
1530606684899535,3,3,-1,-1,-1,17,4,2
1530606684900533,12,-27,-3,9,2,-1,-11,-7
1530606684900533,96,49,11,5,0,0,6,-6
1530606684922474,-106,-9,-1,-15,-9,-6,-4,-5
1530606684922474,-18,-12,-3,2,0,-2,3,5
1530606684923472,-1,7,3,-2,1,2,-4,3
1530606684923472,53,-11,-3,-3,-13,0,-3,7
1530606684936436,-46,-11,-2,-7,-1,9,10,-1
1530606684936436,11,2,0,9,2,-19,-9,-7
1530606684937435,-94,-18,-10,1,6,-14,-3,-3
1530606684937435,97,19,10,8,15,12,0,9
1530606684960372,3,10,3,-6,-30,10,3,2
1530606684960372,-14,4,3,-7,-10,3,4,-2
1530606684960372,-14,7,-1,10,-3,-2,-4,-1
1530606684960372,-69,-24,-10,6,19,-1,-1,0
1530606684982314,61,-1,-5,-5,11,-3,-1,5
1530606684982314,-48,-14,-3,0,1,-4,-8,-7
1530606684983312,9,8,3,-12,-9,6,22,11
1530606684983312,-32,4,-3,11,4,-5,-38,-10
1530606684996276,41,-9,-2,-5,0,-11,4,11
1530606684996276,46,20,4,6,-1,22,-1,-5
1530606685004255,18,-5,-2,-6,-8,8,-2,9
1530606685004255,-98,-26,-7,-4,-8,2,17,-4
1530606685020212,79,31,15,6,9,-6,0,5
1530606685020212,26,3,-4,-2,7,4,1,-3
1530606685021210,-4,-1,4,3,-2,-5,-1,3
1530606685021210,65,-6,-14,-9,-5,4,1,-6
1530606685042154,-50,10,-1,2,6,5,-6,-6
1530606685042154,27,0,5,2,1,-9,7,9
1530606685043153,-77,-24,-7,-2,-5,2,-5,-2
1530606685043153,43,19,-3,2,13,-10,-1,-3
1530606685056116,-43,60,15,0,-24,0,1,-1
1530606685056116,17,-21,-11,-1,15,5,-3,-4
1530606685064095,21,-24,3,1,5,8,2,-1
1530606685064095,-48,-21,-7,-2,-15,-21,2,6
1530606685080053,49,27,0,2,-8,0,4,8
1530606685080053,-33,1,10,4,16,-14,-6,5
1530606685081050,-3,-35,-3,-1,0,1,0,-6
1530606685081050,35,47,4,-3,6,10,1,-5
1530606685101994,39,28,4,8,12,2,0,16
1530606685101994,-34,-10,-14,-7,-13,-16,-3,-20
1530606685102991,20,45,8,-4,16,2,-3,-2
1530606685102991,68,-23,0,0,2,28,7,9
1530606685115956,-55,-89,-22,-8,-11,-48,-10,-22
1530606685115956,62,24,3,7,14,6,-2,3
1530606685123936,30,12,-6,-2,5,-1,-3,2
1530606685123936,-22,-6,2,4,-21,-4,2,-10
1530606685139892,64,-41,-12,-4,5,8,0,11
1530606685139892,-117,15,13,7,-5,2,8,-17
1530606685141888,85,-20,-13,-9,-3,-12,-16,12
1530606685141888,-71,94,18,8,10,0,6,3
1530606685162831,21,-63,-13,-12,7,14,-4,-10
1530606685162831,22,-24,-7,-3,-22,-1,0,12
1530606685163829,-4,22,4,-4,-8,-15,3,-7
1530606685163829,40,-45,-9,5,-3,1,-6,16
1530606685184772,-99,-7,-3,-4,-4,-3,-5,-7
1530606685184772,81,26,4,-6,-11,7,7,15
1530606685186767,-3,10,1,-3,-6,0,-9,-25
1530606685186767,-20,-22,0,2,25,1,9,-8
1530606685199732,-37,-20,0,-2,-6,2,-6,-12
1530606685199732,17,16,4,-1,-17,-19,-4,10
1530606685200730,38,-1,-5,-11,-6,3,6,-5
1530606685200730,15,4,2,10,11,4,6,4
1530606685222671,13,12,-3,-2,3,4,-1,-9
1530606685222671,-2,-11,-7,-7,4,2,-5,-3
1530606685223669,-69,7,4,-12,-27,8,1,5
1530606685223669,9,4,4,21,11,-18,14,-1
1530606685235636,15,-4,-1,-2,-7,34,-4,-7
1530606685235636,-8,-11,-7,-6,8,-32,-9,10
1530606685244612,31,17,6,-6,5,-20,3,-5
1530606685244612,-86,-36,-6,-11,-20,7,-6,8
1530606685259572,6,7,-2,-6,8,-9,12,3
1530606685259572,27,-2,-2,0,-1,20,0,-13
1530606685260570,-9,4,2,-12,-9,22,-5,-2
1530606685260570,44,5,-11,16,7,7,-5,-4
1530606685282511,-86,4,3,-3,2,-39,3,-5
1530606685282511,18,5,1,23,18,9,11,25
1530606685283509,26,6,0,0,-10,-12,-7,-2
1530606685283509,-12,-36,-3,-9,-16,26,-18,-3
1530606685296474,-27,18,-2,-3,-3,26,-4,-5
1530606685296474,-8,4,-3,-18,-5,-13,-3,-7
1530606685304452,-40,-22,-6,5,-3,4,5,-2
1530606685304452,24,21,8,-10,-6,-7,8,0
1530606685320409,21,-3,-3,-4,-4,-9,-12,4
1530606685320409,-21,-17,6,9,5,-2,8,-12
1530606685320409,-21,9,-2,9,4,1,-5,-5
1530606685320409,12,5,-5,-15,-13,-15,-14,-6
1530606685342351,31,2,7,0,-2,-2,8,7
1530606685342351,-16,-6,-7,2,-1,6,-12,-6
1530606685343348,35,-11,0,13,6,7,-1,-4
1530606685343348,-4,-8,2,1,18,-13,-3,-2
1530606685356314,49,10,-3,6,2,-1,6,2
1530606685356314,-57,-6,-2,-4,-3,-7,-9,5
1530606685364292,-14,16,3,3,10,17,6,-6
1530606685364292,10,-28,-7,-3,-4,-22,-2,-30
1530606685380250,20,30,3,-2,-8,-8,0,7
1530606685380250,-32,-29,-5,-9,-7,-2,-10,2
1530606685380250,-56,7,-4,3,3,-5,1,5
1530606685380250,13,24,11,-5,-6,13,4,11
1530606685402191,39,-22,-6,-2,-6,8,-6,-3
1530606685402191,47,-4,-2,0,-7,-3,2,-11
1530606685403189,-63,14,-3,6,9,-7,-4,2
1530606685403189,7,13,0,-4,-3,5,3,4
1530606685425130,50,10,-3,2,-1,-4,-5,-2
1530606685425130,-45,-14,2,-2,-1,5,8,3
1530606685426128,2,-18,-2,1,-4,-4,3,-10
1530606685426128,4,11,2,-4,-3,7,-1,3
1530606685440090,3,-17,-8,4,7,-30,-6,2
1530606685440090,-12,14,-2,-1,-5,25,-7,5
1530606685441087,44,-9,0,-8,-5,-3,2,-3
1530606685441087,-5,2,3,16,17,4,-14,7
1530606685462031,-20,-28,-6,-8,-18,-14,1,-9
1530606685462031,16,10,1,5,6,17,-4,4
1530606685463028,55,21,6,0,-1,-12,5,7
1530606685463028,-61,1,-9,-18,-13,1,10,9
1530606685484970,10,25,10,6,12,13,-6,0
1530606685484970,25,4,5,6,1,-5,7,4
1530606685485967,-8,-78,-15,-4,0,4,-5,-4
1530606685485967,-3,60,9,-4,-4,-5,-4,-15
1530606685498932,38,-10,-10,-1,-2,12,4,-6
1530606685498932,-78,-8,-8,2,6,-24,-2,-1
1530606685499930,55,1,5,-5,9,4,0,-4
1530606685499930,13,-55,-15,12,1,-7,6,5
1530606685522868,60,34,14,-3,-8,7,1,5
1530606685522868,-16,4,-8,-2,-1,-4,4,-15
1530606685523866,-17,-65,-9,2,-3,-4,-10,12
1530606685523866,99,41,12,-8,0,-3,-5,-31
1530606685544810,-61,31,-5,-2,-2,10,1,-2
1530606685544810,107,5,4,1,1,7,6,21
1530606685545807,-70,27,6,5,2,0,7,7
1530606685545807,26,-27,-22,-15,-15,-18,-5,24
1530606685558772,-76,33,20,10,6,18,-5,-24
1530606685558772,-73,-11,-8,-15,-6,-13,-3,-30
1530606685559770,96,27,4,0,-8,-8,-6,-6
1530606685559770,-44,-54,-4,4,6,4,-2,26
1530606685582708,-43,-43,-10,5,9,5,-1,3
1530606685582708,69,34,-1,-3,-10,0,-4,-5
1530606685583706,-98,51,18,3,24,13,7,10
1530606685583706,66,-38,-8,2,-10,-16,-4,-13
1530606685604650,-76,-1,-11,-11,-11,19,-11,-24
1530606685604650,112,22,6,-2,-2,-30,4,25
1530606685605647,-79,-42,-17,-2,-1,6,-7,-24
1530606685605647,11,31,16,4,0,-4,4,14
1530606685618612,35,-1,1,2,7,-1,9,-4
1530606685618612,84,-72,-9,2,-4,2,0,-4
1530606685627588,-61,44,-8,10,11,8,0,11
1530606685627588,-11,6,10,-11,-7,8,-12,-4
1530606685642548,6,7,2,2,14,-33,13,4
1530606685642548,-98,-31,-6,-2,-3,12,5,-3
1530606685643546,85,50,-16,-3,-9,-14,-2,4
1530606685643546,-53,-17,9,-3,-7,6,-5,-12
1530606685664489,49,-6,1,0,-5,-8,-2,22
1530606685664489,-47,17,13,-1,-2,11,1,0
1530606685665487,-23,-59,-9,1,3,-9,-1,-2
1530606685665487,73,4,-11,-18,-25,-2,-1,-40
1530606685679449,-48,18,4,1,-2,6,2,35
1530606685679449,9,-38,-4,14,24,-13,-9,-26
1530606685680447,39,-8,3,-13,-19,11,-1,-4
1530606685680447,-42,78,8,-10,4,-8,5,18
1530606685702388,57,-33,-5,-1,-15,-1,-4,7
1530606685702388,68,14,-1,9,-3,8,-4,-14
1530606685703386,-59,30,13,-3,-10,-11,3,-4
1530606685703386,-67,-85,-16,-7,10,9,17,9
1530606685725327,-35,-8,-9,-20,8,4,-44,-10
1530606685725327,63,22,9,-7,-18,-29,-22,4
1530606685725327,37,-4,7,26,16,18,16,4
1530606685725327,29,3,-4,-19,-10,-7,0,-2
1530606685739289,-22,3,-2,-11,-4,15,12,-9
1530606685739289,-46,10,1,27,25,24,-8,-1
1530606685740288,18,1,-2,0,7,12,-7,-4
1530606685740288,22,18,1,18,6,-18,4,9
1530606685762228,68,-5,-4,1,-6,3,5,1
1530606685762228,-34,1,-1,-28,-12,4,7,0
1530606685763226,-119,-16,-3,-19,-14,-11,-3,-7
1530606685763226,40,6,-7,12,11,12,11,16
1530606685785167,37,4,0,3,1,-19,-25,-22
1530606685785167,-81,8,-5,1,10,16,19,9
1530606685786164,77,-4,4,-7,-2,-28,-13,4
1530606685786164,-26,6,-1,10,-2,14,6,1
1530606685798132,-19,-16,0,21,13,-3,13,11
1530606685798132,-31,9,-2,-16,-6,-5,3,5
1530606685807108,-18,0,-1,14,9,-2,-6,-3
1530606685807108,57,-8,-4,-18,-10,0,-9,-9
1530606685822068,-64,-7,1,4,1,-1,8,4
1530606685822068,28,-11,-2,-1,-6,-4,-6,1
1530606685823066,86,15,2,-9,-5,3,2,-2
1530606685823066,-26,-7,4,12,9,2,-6,-1
1530606685845007,47,17,-1,-7,-16,-4,8,9
1530606685845007,-10,-31,-4,2,2,1,5,-8
1530606685847002,4,15,-1,0,-3,0,-19,4
1530606685847002,-2,-6,-4,-2,-3,-8,-9,-1
1530606685858969,25,-20,1,-1,-1,2,18,-3
1530606685858969,-58,8,-7,-11,-5,6,-12,2
1530606685867946,50,-16,0,7,1,-15,19,1
1530606685867946,-58,6,-3,-2,2,-3,-36,-7
1530606685881908,9,6,5,15,14,1,6,-8
1530606685881908,6,11,-2,5,-2,-19,-2,0
1530606685883903,33,-8,0,5,-11,14,9,4
1530606685883903,-18,14,3,-1,15,-9,-11,-8
1530606685904847,13,-40,-10,-12,-10,-8,-3,-2
1530606685904847,-58,31,-2,-2,-4,9,-4,-15
1530606685906842,30,32,11,-6,-3,-8,3,10
1530606685906842,-57,-57,-13,-3,-3,8,12,-5
1530606685918809,7,-22,-10,-2,1,-3,-8,2
1530606685918809,44,50,19,4,2,-2,5,-5
1530606685927786,-34,-16,-12,-6,0,-1,-5,7
1530606685927786,50,-1,-1,4,-1,5,7,1
1530606685942745,-62,-32,-11,-1,-5,-4,-11,-25
1530606685942745,-8,-10,-4,-2,9,-4,3,5
1530606685943743,3,3,3,-4,-1,7,3,-2
1530606685943743,17,-4,1,8,6,-4,2,18
1530606685964687,-24,2,-2,-2,-4,-6,3,-19
1530606685964687,56,1,2,-3,-11,6,0,0
1530606685966681,-41,16,7,2,20,0,0,0
1530606685966681,-7,-1,-4,8,6,10,3,5
1530606685978649,13,27,1,-9,-15,-11,4,15
1530606685978649,-1,-14,-1,0,4,-5,-1,-8
1530606685987626,16,-22,-13,-16,-17,-3,-9,1
1530606685987626,-59,-21,-5,2,3,12,3,-20
1530606686002585,22,105,38,10,10,-7,4,12
1530606686002585,-2,-92,-19,-2,9,2,3,17
1530606686003583,10,-2,-9,-2,-19,-5,2,7
1530606686003583,36,81,18,-2,-3,-1,1,2
1530606686024526,0,-30,3,7,0,10,1,-11
1530606686024526,-94,16,-6,-3,-8,-5,-2,13
1530606686026522,36,-34,-3,0,2,-2,-2,1
1530606686026522,3,-20,-15,-5,-10,-8,-5,4
1530606686038489,76,21,3,-8,8,2,-6,21
1530606686038489,-69,-9,0,-2,5,13,1,-21
1530606686047465,63,-21,-2,12,-4,-18,3,14
1530606686047465,-53,9,1,-5,-6,-2,0,-19
1530606686062425,-9,3,-1,-4,1,1,-2,0
1530606686062425,44,11,0,-6,-5,-1,-1,-1
1530606686064420,25,-38,4,4,5,8,-3,-13
1530606686064420,-41,30,10,0,5,-2,8,-1
1530606686085364,-22,-35,-25,-2,15,10,-2,11
1530606686085364,80,36,2,-1,-14,-6,-4,-34
1530606686086362,-118,98,33,2,1,4,-3,2
1530606686086362,97,-100,-10,-5,-13,3,-15,-29
1530606686107306,-50,0,-14,-5,-12,-14,-3,4
1530606686107306,70,-1,0,-2,-7,0,2,14
1530606686109300,-30,0,0,3,12,-3,-7,-20
1530606686109300,37,18,5,1,10,13,5,3
1530606686122265,-47,-13,-9,-13,-4,4,0,-2
1530606686122265,73,4,3,6,-13,-7,-1,-6
1530606686125258,-40,-8,-10,-5,0,4,-9,-28
1530606686125258,-16,3,-1,-2,18,-17,8,17
1530606686145204,80,-23,1,4,-5,9,0,17
1530606686145204,35,16,7,5,1,9,-16,18
1530606686146202,-18,7,-4,2,-17,1,17,8
1530606686146202,8,1,0,-1,11,0,-3,-4
1530606686158169,-3,-14,3,5,6,-11,1,-9
1530606686158169,3,23,1,-7,-7,14,17,14
1530606686167145,31,-15,-7,2,-1,-14,-4,8
1530606686167145,-51,13,-4,-4,-6,2,-11,8
1530606686182105,41,0,2,-8,-19,-15,0,-13
1530606686182105,-101,-24,-4,-18,6,0,-3,-4
1530606686184100,36,6,-4,-1,6,16,8,-1
1530606686184100,43,0,0,7,-5,4,12,7
1530606686205044,24,8,3,-5,-7,-11,-2,-6
1530606686205044,-1,9,2,32,17,-24,33,7
1530606686206041,16,-11,-5,-15,-3,49,26,3
1530606686206041,5,15,0,3,-12,-41,-42,-6
1530606686219007,-108,5,3,11,13,10,-22,-9
1530606686219007,-25,-7,0,-16,-9,-13,0,-2
1530606686227983,30,3,-1,19,11,-10,4,3
1530606686227983,16,-6,-3,-7,-8,22,5,9
1530606686241945,11,6,-3,-6,-4,-17,1,-9
1530606686241945,-29,-7,-4,-6,-4,-6,-8,-4
1530606686243941,49,-2,-1,-5,7,13,-26,6
1530606686243941,-71,6,1,10,4,-5,20,-1
1530606686264884,26,-23,-9,-4,-6,-15,-1,-14
1530606686264884,47,25,8,1,5,8,-3,-3
1530606686266879,40,6,-2,-14,-15,-8,-7,-1
1530606686266879,26,3,0,15,15,-11,-1,9
1530606686278846,12,-12,-5,-3,-3,32,18,6
1530606686278846,-5,-27,-9,-6,-7,-4,-16,-13
1530606686287823,-50,-5,0,11,11,-10,5,-4
1530606686287823,56,-1,-1,-11,-12,-3,-33,8
1530606686302783,-47,12,2,6,5,-8,3,-6
1530606686302783,19,-1,-1,-2,-5,14,-2,10
1530606686303780,-32,-10,-5,-11,-11,-11,-8,-1
1530606686303780,35,-8,-1,-6,-2,-1,17,-16
1530606686324724,35,7,3,9,4,12,-21,10
1530606686324724,36,5,-2,-4,1,-8,0,-8
1530606686326719,8,-6,2,8,7,3,5,4
1530606686326719,-5,1,-5,-12,-9,-4,0,-6
1530606686347662,-6,10,4,-8,-5,12,4,9
1530606686347662,-10,-4,0,21,15,-8,-5,2
1530606686348660,-8,-35,-7,-2,2,-12,-10,-14
1530606686348660,-28,0,-5,2,-3,-3,12,3
1530606686361625,-3,37,11,0,-6,0,3,0
1530606686361625,-59,-15,-3,-2,4,2,-7,-6
1530606686368606,-42,-11,-5,-11,-12,9,-1,-9
1530606686368606,-35,-20,-4,1,0,5,7,-2
1530606686384564,13,-26,-7,6,4,-1,-4,-7
1530606686384564,53,27,5,-1,-4,-13,-2,12
1530606686386559,-3,12,7,1,3,11,0,-7
1530606686386559,-6,18,-3,-6,-1,7,7,13
1530606686407503,47,-29,-11,-9,-11,-5,8,-2
1530606686407503,-84,-25,-5,4,15,11,-3,1
1530606686409497,2,7,1,-1,-8,-16,-7,-15
1530606686409497,68,13,0,-1,1,-5,4,2
1530606686421465,-91,-1,-2,-7,-15,5,-12,0
1530606686421465,80,4,1,7,6,2,1,-5
1530606686430441,-95,-9,-4,-4,0,-14,0,6
1530606686430441,42,-5,4,1,-12,-1,-1,-8
1530606686445401,11,-23,-11,4,15,-1,6,14
1530606686445401,10,45,10,-3,-3,4,4,6
1530606686446399,-30,11,-6,-5,13,-3,-2,-19
1530606686446399,-6,-3,5,2,-2,10,2,11
1530606686467342,21,7,6,0,-5,-4,-2,-3
1530606686467342,19,-35,-11,0,-2,-2,-2,-21
1530606686469338,43,21,3,1,-11,18,0,24
1530606686469338,3,5,3,1,8,-19,-1,-13
1530606686481305,-61,-18,-3,-4,13,10,1,0
1530606686481305,13,-105,-26,-16,-22,-17,-5,7
1530606686490281,42,98,29,6,-5,5,0,-15
1530606686490281,-37,-1,-2,2,-1,1,-1,10
1530606686505241,92,-7,2,8,17,3,3,8
1530606686505241,-16,20,2,-5,-7,12,4,-16
1530606686506241,41,-61,-15,7,11,-9,-6,8
1530606686506241,-10,-24,-9,-13,-18,-15,-16,-3
1530606686527182,-84,43,7,4,22,-3,6,-11
1530606686527182,45,-24,-10,-4,-7,30,26,18
1530606686529177,39,-13,-15,-6,-6,-17,-28,-1
1530606686529177,-53,50,24,6,-2,5,4,-14
1530606686542142,-77,-57,-6,-7,-10,9,-6,1
1530606686542142,60,77,18,4,4,2,1,6
1530606686548126,-1,-48,-1,2,1,-14,13,10
1530606686548126,-7,27,8,0,-2,0,-2,15
1530606686565081,81,-3,-11,-9,-25,-4,-7,-50
1530606686565081,38,3,3,1,15,-14,-8,22
1530606686566079,-28,-48,-12,-5,9,-5,8,-8
1530606686566079,107,-25,-14,-10,-5,15,-5,-11
1530606686587022,24,24,8,8,7,20,6,34
1530606686587022,53,9,12,9,1,-22,8,-23
1530606686589017,12,38,5,-8,-10,1,3,23
1530606686589017,-36,-35,-18,-5,1,-17,6,-20
1530606686601982,93,-7,3,25,-1,-21,7,-10
1530606686601982,-88,3,0,8,14,22,-12,6
1530606686608964,2,-8,-3,-3,5,-2,10,2
1530606686608964,127,10,5,1,-1,32,3,8
1530606686624921,-91,21,3,-4,-3,-22,5,7
1530606686624921,-86,-28,-12,-15,-15,-10,-7,-4
1530606686626918,92,20,6,6,-2,-33,-1,3
1530606686626918,-110,-22,-6,-3,7,5,3,12
1530606686647860,127,24,0,0,5,7,-13,-15
1530606686647860,-5,6,1,-15,-18,-9,3,-4
1530606686648858,-16,7,-4,-14,-6,31,4,-2
1530606686648858,-15,7,7,25,9,-14,8,21
1530606686661822,2,-6,0,1,6,11,-9,-27
1530606686661822,-78,-2,-5,-30,-6,-20,-6,6
1530606686668803,33,-3,4,39,12,-5,8,-9
1530606686668803,20,13,-4,-3,3,3,5,-12
1530606686684761,-25,-23,-10,-30,-26,2,-5,10
1530606686684761,13,25,2,15,6,5,-6,-8
1530606686686756,-16,1,-2,-6,5,12,-15,4
1530606686686756,19,-12,-9,-11,-5,17,3,-7
1530606686707700,18,22,0,3,1,-29,-25,-17
1530606686707700,95,-13,-3,-9,-8,9,-4,16
1530606686708697,-124,1,1,-1,-4,-12,2,6
1530606686708697,-6,-6,-9,-4,-2,-2,-15,-23
1530606686720665,13,10,4,-10,-6,4,0,19
1530606686720665,9,9,4,23,9,-4,-2,-9
1530606686729641,47,-48,-2,-1,-2,19,0,3
1530606686729641,-12,23,3,4,9,-2,3,8
1530606686744601,-28,-10,-4,-7,-9,36,1,-7
1530606686744601,-60,2,3,8,7,-18,17,8
1530606686746596,69,-3,-6,-3,-4,-4,-29,-2
1530606686746596,-11,-4,-1,1,2,-25,-6,6
1530606686767539,-22,9,4,10,6,-14,17,17
1530606686767539,65,8,-2,-10,-9,38,16,-20
1530606686769534,-99,-1,-1,6,5,-15,-13,-10
1530606686769534,55,-4,4,1,-1,-16,-3,-1
1530606686781502,-1,14,-1,5,1,-7,0,13
1530606686781502,-9,-8,0,0,1,-5,-13,-8
1530606686790479,-18,-13,-7,-18,-13,-3,5,-3
1530606686790479,-8,4,-1,5,4,7,4,-4
1530606686804441,15,5,-1,-1,3,-5,2,6
1530606686804441,-22,-14,0,-3,-9,-2,-9,1
1530606686806436,37,17,1,-2,-4,6,1,-3
1530606686806436,19,-12,-2,-8,-1,12,0,-9
1530606686827380,-73,-13,-5,9,3,-32,7,-5
1530606686827380,13,4,3,2,-5,7,-15,12
1530606686829374,-15,20,6,2,-6,-13,-7,-18
1530606686829374,18,-3,-4,-10,-4,-4,0,-8
1530606686841342,-6,-26,-9,-2,4,8,3,0
1530606686841342,-33,14,4,16,17,16,13,7
1530606686850318,21,-13,-2,-7,-3,-5,14,1
1530606686850318,-12,-34,-10,-8,-16,6,-18,-3
1530606686865278,21,59,10,-9,-6,-6,-6,2
1530606686865278,1,7,11,7,2,-9,1,-9
1530606686866276,40,1,-3,-7,-3,18,12,20
1530606686866276,-91,-29,-7,-1,-2,-11,-1,-28
1530606686887219,73,-29,-3,2,-9,4,-4,7
1530606686887219,27,-8,-11,-15,4,-15,-12,-20
1530606686889215,-11,41,12,8,18,22,-6,-4
1530606686889215,59,-20,-6,-1,0,-22,10,14
1530606686901182,-36,9,4,0,-12,7,3,-6
1530606686901182,20,9,-1,-8,-22,-36,-6,-6
1530606686910158,-29,-34,-6,0,9,-3,-4,-24
1530606686910158,14,35,1,-4,26,17,-4,10
1530606686925118,34,13,16,9,16,15,11,-6
1530606686925118,-17,-39,-21,-4,-21,-3,-1,16
1530606686926116,-13,9,1,-9,-28,-12,-13,-17
1530606686926116,-16,29,15,9,-5,-4,-3,-3
1530606686947059,-87,-37,-14,-9,16,5,0,-1
1530606686947059,20,19,2,4,6,-4,-4,6
1530606686949054,107,6,-6,-6,-6,-6,2,10
1530606686949054,-7,-32,-13,-5,-1,-1,-22,-33
1530606686961022,16,0,1,-8,-17,-19,0,-7
1530606686961022,7,-18,-2,12,2,3,2,18
1530606686969999,-71,2,-3,-3,2,19,1,-12
1530606686969999,127,24,3,-1,-6,-18,10,28
1530606686984958,-10,-19,-6,-4,-7,9,8,0
1530606686984958,-18,-52,-9,4,19,-12,-44,-25
1530606686986953,89,80,9,2,-7,-9,-2,22
1530606686986953,-85,-52,2,1,10,37,11,27
1530606687007897,88,23,-2,-2,-11,-18,-2,-24
1530606687007897,-83,4,11,-3,6,9,15,13
1530606687008895,36,7,-15,-10,-12,-5,-15,-46
1530606687008895,38,21,2,-8,-16,-9,-17,-10
1530606687029838,-35,-43,0,4,-3,-12,-5,19
1530606687029838,55,0,-6,0,21,14,25,-4
1530606687031833,32,-20,2,9,20,29,9,16
1530606687031833,109,19,3,-12,-22,-17,20,31
1530606687044798,-81,2,-2,-9,-18,0,-32,-17
1530606687044798,-53,-43,-17,20,13,3,-11,-36
1530606687046793,34,25,8,-5,-9,-23,7,21
1530606687046793,57,-21,0,10,15,1,-12,-2
1530606687067736,41,39,8,3,-4,1,11,16
1530606687067736,-1,10,4,-14,-18,-23,-19,-8
1530606687068734,84,-33,-11,3,30,2,42,4
1530606687068734,-27,29,6,-7,-13,28,8,25
1530606687080702,-20,-1,-1,6,15,-3,-18,-5
1530606687080702,127,32,6,-7,-9,16,24,11
1530606687089678,-128,-53,-1,-9,-17,-20,-15,-16
1530606687089678,-21,19,-8,5,9,-12,-16,-50
1530606687104638,67,-43,-9,-23,-5,10,7,10
1530606687104638,-56,14,1,19,-4,43,-2,-11
1530606687106634,-16,16,-3,-18,-13,-49,-24,21
1530606687106634,-12,-6,2,-6,-5,0,15,-5
1530606687127577,4,2,-5,15,2,8,3,-2
1530606687127577,-52,30,12,0,8,1,-13,-3
1530606687128574,-5,-29,-5,0,-5,19,20,12
1530606687128574,-60,6,-2,0,5,9,-16,6
1530606687141540,20,1,-4,10,4,-9,15,-22
1530606687141540,50,8,2,-9,-5,11,-2,27
1530606687150516,45,8,-1,-2,-1,-4,0,-5
1530606687150516,-72,-45,-3,5,-2,-6,5,-19
1530606687164478,-4,-4,-2,-12,0,7,-2,10
1530606687164478,3,15,5,17,8,-18,2,-2
1530606687166473,-43,3,-1,11,6,4,-13,4
1530606687166473,14,18,8,-9,-6,8,7,17
1530606687187416,20,-11,-1,21,15,12,-5,-27
1530606687187416,8,-15,-5,-8,-6,-25,12,15
1530606687189412,-43,-9,-6,-9,-12,0,4,-18
1530606687189412,-60,15,0,1,10,-2,-27,9
1530606687201379,9,6,-2,-9,1,17,15,6
1530606687201379,-16,0,-2,2,1,13,-29,-11
1530606687210356,27,-6,6,11,3,-47,-7,20
1530606687210356,5,-6,-9,-1,9,13,6,-22
1530606687225315,-16,3,1,-6,-1,-22,0,7
1530606687225315,96,12,4,-12,-13,17,8,16
1530606687226313,-105,-14,-8,-1,7,17,-8,-40
1530606687226313,55,5,2,7,-2,-11,-5,4
1530606687247257,4,10,1,-11,-9,1,-5,12
1530606687247257,60,8,0,-9,-8,-26,13,2
1530606687249251,-91,-15,3,10,5,13,-8,0
1530606687249251,69,-8,-8,0,0,10,8,-4
1530606687261219,44,24,-3,2,13,-9,-20,3
1530606687261219,2,-6,-2,-4,-5,1,8,14
1530606687270196,15,-1,-1,-7,-9,-4,6,-1
1530606687270196,-14,-7,0,2,-3,26,0,-12
1530606687285155,11,14,-4,4,1,-19,-3,1
1530606687285155,-71,-2,2,-5,-3,-7,-4,-10
1530606687286153,62,15,1,-10,-7,10,-2,-1
1530606687286153,-24,-14,0,14,-1,-21,5,4
1530606687307097,55,-1,-1,-6,-1,16,3,-7
1530606687307097,19,-21,-7,9,3,-14,-2,-1
1530606687309091,-74,5,3,-6,-6,26,-4,7
1530606687309091,-20,11,2,6,6,-23,8,-21
1530606687330035,0,-28,0,3,4,-13,8,17
1530606687330035,34,-3,-5,-13,-9,38,-7,-10
1530606687332030,33,8,2,2,4,-5,2,-2
1530606687332030,123,19,5,0,-15,-11,-1,34
1530606687344995,-119,-35,-12,-6,-6,0,0,-24
1530606687344995,17,25,2,-8,9,1,3,5
1530606687346990,64,-12,4,14,15,9,0,-1
1530606687346990,-35,-44,-23,-21,7,-4,-3,-13
1530606687367934,86,22,16,9,0,16,11,27
1530606687367934,22,11,-4,-1,-12,-17,-6,-3
1530606687368932,38,20,9,13,-4,1,0,5
1530606687368932,-50,25,6,0,-6,-12,0,7
1530606687389875,41,-18,-5,-3,-10,-8,-8,1
1530606687389875,-118,-48,-12,-5,1,-7,-6,-18
1530606687391870,127,30,-2,-4,-9,-18,-1,12
1530606687391870,-36,-16,-1,-6,11,26,-2,-1
1530606687404835,60,14,0,6,9,-7,-6,-26
1530606687404835,-77,0,-3,-1,0,-18,9,-7
1530606687406830,75,-7,-3,3,6,13,12,21
1530606687406830,84,10,1,-1,-12,-7,1,-24
1530606687427774,18,8,-6,-9,8,8,-4,-20
1530606687427774,56,-1,19,13,0,0,-3,23
1530606687428771,-26,-29,-25,-18,3,-12,-1,-4
1530606687428771,-72,30,20,10,-12,10,1,-1
1530606687449715,78,43,17,-1,-11,-7,-4,2
1530606687449715,26,-5,-8,-4,13,2,10,3
1530606687451710,-88,-53,-12,1,-11,3,-10,-22
1530606687451710,113,-5,-14,-10,-17,-13,-3,14
1530606687463678,-48,-7,4,1,14,-3,5,11
1530606687463678,-66,19,3,5,1,10,2,-5
1530606687472654,78,-12,-9,-6,-1,-2,-5,-10
1530606687472654,110,-6,-3,-2,2,-14,-1,14
1530606687487614,-48,-21,-8,-9,-15,-4,-5,-15
1530606687487614,119,16,11,5,0,21,8,24
1530606687488612,-85,-23,-6,1,-7,2,-14,-29
1530606687488612,44,12,7,4,-8,-20,15,-7
1530606687509555,8,40,13,-1,7,6,21,38
1530606687509555,-63,-89,-22,-17,9,-4,-26,-23
1530606687511550,69,19,21,15,10,22,4,4
1530606687511550,40,33,10,-1,-11,-4,-9,21
1530606687524515,-111,-32,-18,-1,4,-3,5,-17
1530606687524515,123,24,1,2,-11,6,12,25
1530606687531496,31,-29,0,14,-3,-13,-4,5
1530606687531496,-128,-73,-11,-13,4,-2,-5,-14
1530606687547454,13,22,-13,-13,-5,-1,-4,17
1530606687547454,55,102,30,1,-8,-12,-8,4
1530606687549449,-128,-56,-13,-13,-7,-10,-10,-10
1530606687549449,109,49,4,7,3,9,12,39
1530606687570392,51,-56,-5,-2,-9,89,-10,-47
1530606687570392,-73,-1,-10,1,2,-72,3,-29
1530606687571390,-26,17,4,4,14,2,7,-10
1530606687571390,-77,-10,-6,-22,0,12,10,-8
1530606687584355,18,1,4,-24,-26,-19,-25,23
1530606687584355,33,16,6,32,14,13,5,10
1530606687591336,-40,9,3,5,4,-4,5,2
1530606687591336,-85,-26,-5,6,-11,12,-14,-27
1530606687607294,13,12,-1,-5,10,-18,12,22
1530606687607294,67,-16,-5,-25,-26,-5,4,-22
1530606687609289,-59,15,-4,8,12,10,4,3
1530606687609289,-38,2,-4,-17,-11,-30,-7,-8
1530606687630232,36,16,5,9,-1,-2,-6,2
1530606687630232,2,-38,-10,-11,-2,-1,9,11
1530606687631230,-1,32,7,-2,-1,7,-25,16
1530606687631230,4,-4,-4,3,8,14,0,0
1530606687644195,11,13,-1,0,-5,-1,-1,-19
1530606687644195,-109,-31,-12,-8,-3,2,12,-21
1530606687651176,102,20,8,0,-1,5,-8,3
1530606687651176,-45,-2,1,1,6,-3,2,29
1530606687667134,-1,2,-1,0,-3,-38,-1,-27
1530606687667134,-6,-13,-4,6,5,25,-8,10
1530606687669129,117,50,6,-1,-8,7,20,0
1530606687669129,-11,-30,2,13,12,-18,4,-8
1530606687690073,10,-2,-8,9,6,1,-9,0
1530606687690073,6,7,3,17,13,1,0,20
1530606687692067,14,-3,-3,-21,-4,-7,4,6
1530606687692067,-2,14,-3,13,10,-2,-8,-20
1530606687704035,-6,-15,0,5,-3,6,3,26
1530606687704035,-27,-20,-3,-14,-13,-7,4,-22
1530606687711016,46,31,3,-3,-9,-11,9,20
1530606687711016,-67,-42,-5,-7,-7,18,-34,-14
1530606687726974,-75,0,0,13,7,-13,11,-22
1530606687726974,10,27,5,0,1,0,-16,13
1530606687728969,-42,-42,-6,3,5,8,12,-11
1530606687728969,86,18,0,5,8,0,8,-11
1530606687749912,-7,-9,7,-1,-4,-1,1,7
1530606687749912,14,12,0,0,-1,6,-5,7
1530606687751907,-6,-9,1,0,-1,-11,5,3
1530606687751907,49,-8,-1,-11,-9,28,0,19
1530606687763875,23,-10,-3,11,7,-27,2,3
1530606687763875,-95,-8,-1,3,5,-20,-5,-24
1530606687770856,49,12,1,3,-9,-20,2,2
1530606687770856,40,15,1,-4,12,32,1,-7
1530606687787811,2,6,-6,-14,-14,-9,-21,-3
1530606687787811,-15,-18,-2,8,10,10,-7,14
1530606687788809,10,-12,-10,-3,-6,1,-9,-24
1530606687788809,-22,24,-1,-3,-13,-23,-9,-13
1530606687810749,67,39,11,-2,10,16,14,33
1530606687810749,-40,6,-4,-2,8,16,-3,-12
1530606687815737,15,5,2,-1,0,-7,-7,13
1530606687815737,-27,-3,-2,-6,-5,-8,14,15
1530606687832691,25,23,8,21,4,1,10,-39
1530606687832691,12,-4,-4,-7,-9,-6,-41,-7
1530606687833688,-46,-22,-4,-6,0,18,3,-3
1530606687833688,15,15,-5,-5,-4,-16,-6,-11
1530606687847651,-3,9,9,6,1,4,6,-3
1530606687847651,2,-13,-3,-11,-5,14,12,23
1530606687848648,40,21,5,7,-2,-6,1,5
1530606687848648,-93,-35,-14,3,8,-13,-6,-39
1530606687869592,38,-14,-3,2,10,3,-7,12
1530606687869592,41,-25,-4,-4,-17,1,8,-9
1530606687871587,2,26,-3,-15,-9,-1,-3,11
1530606687871587,18,-15,2,10,17,12,9,9
1530606687883555,-32,-5,-5,-10,-3,4,0,10
1530606687883555,3,26,20,5,10,3,5,-19
1530606687892531,-19,-111,-35,-10,-16,-16,-5,-7
1530606687892531,102,101,36,9,-24,-2,-6,11
1530606687907491,22,-2,10,4,16,0,-1,2
1530606687907491,-1,-82,-26,-11,11,1,11,7
1530606687909486,0,34,23,8,13,0,-1,-2
1530606687909486,68,-34,-14,1,-16,4,-2,6
1530606687930429,-126,-28,-11,-15,-11,-12,-13,16
1530606687930429,86,51,6,13,0,-26,6,5
1530606687931428,67,3,2,5,4,46,-6,18
1530606687931428,-111,-50,-13,-8,4,-11,6,4
1530606687943395,41,41,16,5,-9,-28,4,25
1530606687943395,-20,-15,-2,-9,-10,-10,-6,-43
1530606687952371,-126,-24,-11,-1,-3,-10,-1,6
1530606687952371,127,69,26,11,16,15,12,-15
1530606687967331,-42,-37,-21,-7,14,21,5,6
1530606687967331,-81,13,-1,-3,1,2,3,5
1530606687969326,109,56,18,4,1,-8,2,4
1530606687969326,1,-45,-22,-20,-29,-12,-13,-17
1530606687990270,86,-9,-1,17,4,-9,10,-7
1530606687990270,-34,-2,-5,-6,8,37,-3,-8
1530606687991267,-38,-23,2,19,2,-18,3,3
1530606687991267,-42,23,-1,-7,8,-17,-3,15
1530606688003235,81,-35,-5,6,6,39,1,-3
1530606688003235,-57,15,1,-10,-30,-11,2,1
1530606688012211,9,18,4,-7,3,-4,4,0
1530606688012211,72,-43,-11,-5,0,-12,-5,-1
1530606688027171,-23,21,-3,-5,1,-11,-26,-45
1530606688027171,117,10,2,-11,-14,20,8,19
1530606688029166,-38,3,-3,-18,-9,2,-25,-10
1530606688029166,-38,-16,-1,-3,0,1,32,44
1530606688050109,-26,21,-2,7,3,2,3,-67
1530606688050109,99,-8,3,39,28,-12,-14,13
1530606688051107,-75,-17,-11,-13,-2,2,-5,-25
1530606688051107,69,37,11,-7,-10,24,-1,0
1530606688064073,-16,-42,-11,-10,-13,-5,11,11
1530606688064073,52,11,-2,7,-1,-46,17,12
1530606688073049,-2,7,3,-8,0,-2,6,-14
1530606688073049,-55,-12,-4,9,2,-13,-7,-19
1530606688087011,-59,-3,-4,1,3,17,-8,20
1530606688087011,35,12,-1,-15,-11,2,-28,-4
1530606688089006,2,14,0,5,0,-6,2,5
1530606688089006,19,-18,-2,-7,0,19,-10,10
1530606688109949,24,21,2,-1,-8,-9,17,12
1530606688109949,-72,-22,-3,-8,-3,1,2,-5
1530606688111944,-11,-3,-7,-18,-14,-8,-15,-6
1530606688111944,28,22,7,26,25,3,-6,9
1530606688123913,-85,-39,-6,-10,-12,-10,-6,1
1530606688123913,43,10,3,-1,-1,3,19,6
1530606688132889,-17,3,1,-7,3,6,5,2
1530606688132889,2,0,-3,11,5,2,-3,7
1530606688147848,-85,-61,-6,-10,-17,-13,-8,-2
1530606688147848,33,5,7,7,7,11,-9,-17
1530606688148846,36,-7,-6,-1,9,7,3,0
1530606688148846,-14,1,-1,1,3,-18,3,-4
1530606688169789,95,37,7,-3,-8,6,-6,15
1530606688169789,-60,-18,-10,-2,-5,21,-6,-11
1530606688171784,0,-13,-3,4,-4,-25,3,4
1530606688171784,-55,-9,-1,4,6,-2,7,-15
1530606688183752,13,33,2,-4,-4,-3,-4,-6
1530606688183752,3,-10,3,1,4,-17,1,19
1530606688192729,16,17,3,8,4,22,-6,-6
1530606688192729,44,-8,-5,-13,-6,-3,12,-15
1530606688207688,-81,-7,-4,3,0,-8,-1,-11
1530606688207688,36,20,0,-1,-3,4,4,28
1530606688208686,5,-19,-7,-1,-1,-4,-8,-16
1530606688208686,3,12,0,-8,-5,-4,-9,15
1530606688229629,48,2,4,-6,0,4,-1,-1
1530606688229629,-25,-30,-3,18,6,12,4,-14
1530606688231625,22,43,10,4,3,-12,7,11
1530606688231625,-30,-25,-2,0,8,5,-4,-14
1530606688252568,61,2,-3,-1,-1,7,2,22
1530606688252568,-32,-1,-4,-22,-17,21,4,-10
1530606688253566,44,-27,-3,24,10,-41,-9,7
1530606688253566,-32,4,-2,-10,-13,14,11,-3
1530606688267528,0,2,4,6,7,-6,-51,-3
1530606688267528,19,0,-1,-8,-3,-9,11,0
1530606688269523,-17,-2,-4,-10,-6,7,10,-9
1530606688269523,13,6,1,4,0,5,8,15
1530606688289470,7,-7,-4,-2,-4,-11,4,-29
1530606688289470,26,21,5,5,1,4,-6,8
1530606688291465,-15,-2,1,-1,0,10,6,12
1530606688291465,9,8,-4,-5,-3,-15,-15,-6
1530606688312409,-37,-7,-2,-1,9,10,9,-1
1530606688312409,-87,-13,-6,-2,13,0,-9,-6
1530606688314403,10,-77,-7,3,-11,-25,10,-11
1530606688314403,18,74,6,3,-8,-2,-8,10
1530606688327368,50,16,12,3,1,3,5,12
1530606688327368,-10,13,1,-8,-2,-10,2,-14
1530606688329363,11,8,-2,1,0,23,4,9
1530606688329363,-40,-105,-16,-2,-15,-10,-11,-18
1530606688350307,-47,4,0,-5,3,-5,-2,-12
1530606688350307,23,23,6,8,9,0,1,13
1530606688351304,13,39,8,-8,-5,4,-4,1
1530606688351304,56,-1,-7,0,2,1,-5,2
1530606688372248,-90,-15,-7,-5,-12,10,8,-10
1530606688372248,68,-18,-6,0,-11,-48,-2,12
1530606688374243,2,30,2,-3,-6,6,-1,6
1530606688374243,-78,-8,-1,-7,2,-2,-9,-27
1530606688387208,36,11,-3,10,21,15,3,1
1530606688387208,-41,-22,-6,6,6,-18,1,-1
1530606688393192,19,-82,-16,-6,1,14,0,0
1530606688393192,-2,91,4,-4,-9,13,3,17
1530606688410147,-58,5,4,-6,-8,-23,1,2
1530606688410147,55,-33,-8,1,7,11,3,-11
1530606688411144,41,-10,8,4,1,-3,-7,6
1530606688411144,-31,50,7,0,4,5,-4,9
1530606688432088,26,-39,-7,-3,-2,3,0,10
1530606688432088,13,-3,-12,-6,-7,-1,-2,3
1530606688434083,-55,-44,1,2,2,-5,-3,-25
1530606688434083,116,-16,2,6,-1,-5,-2,-1
1530606688447048,-63,33,6,4,-1,-5,2,21
1530606688447048,-94,-32,-10,-13,3,11,-2,-32
1530606688454029,-44,1,-5,3,11,5,4,-5
1530606688454029,32,4,3,1,-25,-15,-8,-4
1530606688469987,121,13,5,0,10,-7,2,27
1530606688469987,37,-13,-3,-2,22,8,-4,-7
1530606688471981,1,57,9,3,-9,45,11,8
1530606688471981,-23,25,2,8,-2,-26,2,-6
1530606688491928,43,-34,-7,0,-2,-4,-21,-1
1530606688491928,-55,-6,3,-5,-24,4,1,12
1530606688493923,11,60,0,-22,-10,-28,-9,-24
1530606688493923,-78,-13,10,29,28,20,9,10
1530606688506888,87,-41,-13,-6,-7,2,-2,-18
1530606688506888,2,68,5,0,-1,-5,-5,5
1530606688513869,1,22,8,6,11,1,3,14
1530606688513869,89,-9,-6,-19,-9,-15,1,-8
1530606688529826,-117,-50,-10,-2,-7,27,20,-9
1530606688529826,-1,-5,1,0,-2,-5,-29,-14
1530606688531822,20,-8,-4,-3,-3,-25,-8,1
1530606688531822,-22,-8,2,-6,3,-45,4,5
1530606688552765,19,16,1,-7,-27,34,-2,-9
1530606688552765,41,12,3,4,14,2,36,22
1530606688553763,-3,12,-4,-3,5,31,-6,-11
1530606688553763,-49,-40,-4,21,19,15,-1,7
1530606688566728,16,19,2,-15,-13,-92,25,6
1530606688566728,4,23,8,16,-10,42,-28,-9
1530606688573709,-22,-29,-10,12,5,-21,11,-9
1530606688573709,20,-8,2,8,6,-3,6,20
1530606688589667,22,14,0,-10,-4,21,-26,-22
1530606688589667,-60,13,2,-9,-8,-7,-4,-14
1530606688591661,62,2,-1,4,2,1,9,19
1530606688591661,-42,-19,-6,-24,0,26,4,-15
1530606688612605,-1,3,4,26,7,-7,-13,1
1530606688612605,45,5,-1,-15,-11,-27,-22,-30
1530606688614600,-89,-14,-3,-4,-2,19,-1,-1
1530606688614600,67,1,-2,-4,-8,2,4,6
1530606688626568,-13,25,0,-12,1,13,-19,6
1530606688626568,20,-24,-1,0,-3,-27,12,-4
1530606688633549,3,-9,1,13,2,-6,7,14
1530606688633549,-20,5,-2,-2,-1,1,5,-17
1530606688649506,60,4,5,7,2,10,12,6
1530606688649506,-99,-10,-1,12,6,16,13,2
1530606688651502,34,-5,-4,-11,-12,-13,-14,0
1530606688651502,36,5,5,18,17,-10,-12,2
1530606688672445,-10,-18,-2,-4,0,1,5,0
1530606688672445,28,-13,-3,-12,-8,7,2,9
1530606688674440,-3,19,1,-1,-6,-4,1,-3
1530606688674440,-17,-1,-6,-8,-2,10,-7,-8
1530606688686408,24,14,7,6,5,-5,4,-1
1530606688686408,-25,4,-2,-8,-7,-11,11,3
1530606688693389,-19,-9,-3,-5,4,7,-12,-2
1530606688693389,0,-4,-1,1,-2,1,-3,-7
1530606688710344,-31,6,-4,0,-1,2,1,6
1530606688710344,29,3,4,5,0,7,-10,1
1530606688711341,21,-21,-3,4,-1,-7,6,1
1530606688711341,-50,-11,2,5,6,10,-10,8
1530606688732285,23,5,-3,-8,-4,-7,1,-12
1530606688732285,38,5,-1,-2,-2,10,-6,13
1530606688734280,-2,7,-2,-8,-11,-9,-2,3
1530606688734280,-5,-7,-2,1,-1,5,11,-11
1530606688746248,2,-1,-2,9,20,11,-8,-2
1530606688746248,13,4,0,0,-2,-1,0,0
1530606688755224,13,4,-1,-11,-9,-11,7,10
1530606688755224,-19,1,-3,-10,-4,-5,-7,-4
1530606688770184,-15,-11,3,19,13,1,5,2
1530606688770184,45,-12,-3,-1,0,0,0,-4
1530606688771181,-64,4,1,-7,-4,7,10,-21
1530606688771181,-14,-9,-4,-3,-3,-3,-8,-5
1530606688792125,24,-5,-1,-2,-11,7,0,6
1530606688792125,-45,-12,-5,0,-1,-53,-2,1
1530606688794120,25,-10,0,-6,-2,5,-13,-19
1530606688794120,14,12,1,4,5,7,5,10
1530606688806088,-27,43,11,2,0,-11,2,-9
1530606688806088,17,-10,-9,-4,2,13,-2,7
1530606688815064,-23,-11,-10,-3,4,5,-3,13
1530606688815064,37,-59,-11,-4,-20,-9,-7,-43
1530606688830024,-81,3,-10,-11,-4,-11,-5,14
1530606688830024,-13,40,16,1,-3,7,3,-25
1530606688832019,75,13,3,9,10,0,-5,7
1530606688832019,-51,-39,-14,-13,-7,3,3,-1
1530606688851965,39,22,9,8,-18,-5,-9,-10
1530606688851965,28,-19,-12,-4,-6,-6,-1,14
1530606688853961,-45,37,15,-2,14,5,1,-13
1530606688853961,68,47,13,10,-14,-7,0,23
1530606688865928,-65,-53,-14,-15,-8,6,-6,-16
1530606688865928,25,-13,-10,-3,15,-7,4,2
1530606688874904,0,48,8,5,-3,1,-2,15
1530606688874904,-8,3,4,-3,-5,0,-9,-8
1530606688889864,-39,-1,-3,-8,5,-7,9,9
1530606688889864,-15,7,-5,2,-6,15,0,-21
1530606688891859,13,-29,-8,6,-2,1,-5,12
1530606688891859,89,19,12,0,8,9,12,17
1530606688912802,-39,10,4,5,-2,-1,3,-3
1530606688912802,-85,-59,-15,-12,17,2,-10,0
1530606688913800,78,-6,-6,-10,-3,-7,-2,10
1530606688913800,-90,-30,-7,2,-4,3,2,5
1530606688925767,97,13,3,3,-2,4,12,21
1530606688925767,4,63,27,20,3,-19,-7,-16
1530606688934743,62,-38,-13,-3,-3,23,1,-13
1530606688934743,-79,-18,-7,-5,3,-2,-2,12
1530606688949703,46,-38,-7,-18,-13,-2,-2,-8
1530606688949703,-8,13,4,-2,-15,-9,-6,-3
1530606688951699,-24,13,-1,19,16,-5,-3,4
1530606688951699,18,-35,-7,-5,23,56,4,-5
1530606688972642,-56,7,-3,1,-1,-52,2,-2
1530606688972642,19,17,9,-12,-20,17,2,8
1530606688974637,18,-11,-5,0,2,-18,-2,7
1530606688974637,-1,9,6,-3,1,-2,1,-24
1530606688985608,17,-18,-2,7,1,18,-8,5
1530606688985608,-48,-7,-5,-12,-9,-6,4,6
1530606688995581,65,15,3,9,2,-2,15,-5
1530606688995581,-77,-32,-11,-5,-1,-21,-49,-4
1530606689009544,74,28,2,-15,-6,7,1,1
1530606689009544,36,-12,3,9,2,-21,-5,23
1530606689011539,-83,-2,-5,6,1,36,12,-30
1530606689011539,31,35,3,-6,-6,-31,6,5
1530606689032482,-37,-4,2,13,9,-2,2,2
1530606689032482,65,-8,-10,-7,0,6,-5,5
1530606689034477,-10,13,1,-6,-7,24,7,4
1530606689034477,38,8,-1,18,11,-45,2,4
1530606689046445,-22,9,1,26,14,14,0,5
1530606689046445,-2,-28,-6,-9,3,5,6,-1
1530606689055421,-84,-16,4,8,1,-22,-14,-15
1530606689055421,-1,18,-5,-31,-19,48,4,5
1530606689070381,16,-2,-3,8,10,-17,-32,-15
1530606689070381,24,25,3,4,0,4,19,13
1530606689071378,29,-31,-4,-31,-21,-1,-20,-16
1530606689071378,-50,-4,1,24,5,-9,18,15
1530606689092322,56,-9,-2,-6,1,-5,-10,0
1530606689092322,-35,3,-2,1,-7,11,15,-10
1530606689094317,-67,8,-1,-5,-1,-16,-3,-2
1530606689094317,19,6,4,-5,1,-1,-2,-1
1530606689106285,64,19,-3,-5,-3,3,3,1
1530606689106285,-28,-21,-3,-3,-5,-9,-8,-3
1530606689115261,-7,2,-1,2,1,15,17,3
1530606689115261,-8,-4,-4,-5,2,-17,-4,-5
1530606689130221,0,-3,1,11,2,20,8,5
1530606689130221,12,-2,-2,-3,-4,3,-7,-4
1530606689132216,-5,8,-2,-9,-6,-18,-4,1
1530606689132216,28,6,-1,-6,-5,1,-2,-2
1530606689152162,-27,-7,0,-7,-4,16,1,5
1530606689152162,1,1,-3,-4,0,-31,1,-10
1530606689154157,-1,-8,4,11,9,0,12,2
1530606689154157,16,15,1,10,2,0,-5,5
1530606689175101,-22,-14,-5,-12,-5,1,-3,-6
1530606689175101,16,7,2,10,6,9,-1,-5
1530606689177096,18,-19,-4,-13,-7,-20,-9,20
1530606689177096,9,10,-2,3,-1,6,12,-4
1530606689189064,-15,-11,-2,-3,-3,-6,-6,-4
1530606689189064,-27,-1,1,6,2,6,-4,5
1530606689196045,-17,2,-3,-2,1,-5,-2,-8
1530606689196045,19,-5,-3,-13,-11,6,7,-2
1530606689212002,5,-2,0,10,6,-4,-4,-6
1530606689212002,14,5,2,1,1,12,-3,12
1530606689213997,27,12,-1,-4,-7,-12,-7,-20
1530606689213997,-32,-20,-8,-10,-6,2,-2,6
1530606689234941,-14,3,4,3,5,-7,0,-6
1530606689234941,51,1,-3,9,12,27,0,8
1530606689236936,1,1,-1,2,-2,-43,3,10
1530606689236936,-50,0,1,-4,-8,-4,-6,-11
1530606689249901,-4,-3,-3,-15,-14,0,3,-6
1530606689249901,11,-4,7,10,2,-9,-3,-3
1530606689251896,-16,7,-5,0,9,16,-3,-4
1530606689251896,50,11,0,2,0,2,-3,0
1530606689272839,-24,-46,-11,-8,-8,-6,2,9
1530606689272839,-5,78,11,2,3,3,-1,0
1530606689273837,-4,11,3,-2,6,3,-11,-21
1530606689273837,23,-5,2,4,-8,-1,5,17
1530606689294781,-11,-6,8,2,1,1,1,-19
1530606689294781,76,-30,-11,-5,4,0,3,10
1530606689296776,-32,4,-8,-1,9,14,-2,-7
1530606689296776,-20,-14,0,2,-2,-7,-7,-12
1530606689309741,-74,30,-4,-4,-10,-4,4,20
1530606689309741,0,-14,-1,-2,-5,1,-4,-15
1530606689311736,47,-6,-1,2,-1,6,-2,10
1530606689311736,11,3,-3,-5,6,-9,-1,-6
1530606689332679,8,-11,-9,-1,-11,3,-10,-11
1530606689332679,-37,3,-2,-2,3,-2,6,8
1530606689333677,20,-41,2,20,3,15,-9,15
1530606689333677,16,55,-1,-11,1,-13,-3,-7
1530606689354620,19,12,6,-1,1,-8,3,7
1530606689354620,-31,-26,-9,-13,-16,9,-2,-10
1530606689356616,1,-19,-6,-6,11,-3,2,-3
1530606689356616,14,-15,-4,15,-4,10,3,6
1530606689369581,0,-8,15,4,11,2,1,16
1530606689369581,8,-25,-10,-5,-2,-2,-4,-16
1530606689376562,67,95,20,-1,-8,-5,3,22
1530606689376562,-100,16,-9,-3,4,0,0,-21
1530606689392519,-12,3,-6,-10,-10,2,0,0
1530606689392519,2,-21,-1,3,-1,-9,-4,5
1530606689394514,17,-12,-6,-2,0,1,-5,-3
1530606689394514,36,-16,-2,2,8,-2,3,9
1530606689414461,6,-12,-1,-1,-3,2,5,1
1530606689414461,-21,13,3,-2,-15,-3,-10,-6
1530606689416456,-9,-10,-3,-5,2,-12,5,4
1530606689416456,-32,-18,4,6,0,17,4,-15
1530606689429421,5,3,-5,-15,-8,-7,-4,-8
1530606689429421,3,5,2,29,17,0,3,5
1530606689436402,-25,-2,-3,-8,-5,17,2,2
1530606689436402,17,-9,2,-4,1,3,-1,3
1530606689452359,25,22,0,0,-1,20,3,-3
1530606689452359,63,-4,-2,-9,0,-20,1,5
1530606689454354,-111,-10,2,-5,-14,-15,-1,-4
1530606689454354,61,-13,-4,-8,-7,-8,-11,-7
1530606689475298,32,12,2,6,6,1,0,6
1530606689475298,9,0,-1,-4,1,-5,6,8
1530606689476295,-41,-15,-7,4,-2,18,-6,-45
1530606689476295,14,15,0,-16,-11,-48,3,14
1530606689489261,-12,2,3,-6,3,-4,4,-10
1530606689489261,-26,-19,-1,18,3,11,-15,3
1530606689496242,36,5,1,7,4,-11,-6,8
1530606689496242,-17,-5,-5,2,11,9,-4,-7
1530606689512200,-12,-3,-5,-16,-27,24,-8,-11
1530606689512200,-1,13,5,6,29,-23,21,4
1530606689514194,9,-1,1,4,-2,-4,4,18
1530606689514194,9,6,0,3,1,8,1,-6
1530606689535138,-6,-19,-3,1,6,-24,1,7
1530606689535138,-21,2,-3,-16,-21,29,-9,-8
1530606689536136,-4,-6,2,4,-1,10,4,2
1530606689536136,25,0,3,4,1,0,-9,6
1530606689549101,2,16,-3,-4,1,0,6,-7
1530606689549101,-41,-19,-1,15,6,-11,-2,-5
1530606689556082,57,1,1,9,4,-2,4,7
1530606689556082,-101,-5,-2,-6,-6,19,2,-1
1530606689572039,12,2,-1,-1,6,-27,6,7
1530606689572039,-10,6,-4,-4,-8,14,-11,-7
1530606689574034,10,-4,-2,-15,-12,-10,-10,-4
1530606689574034,32,-1,1,8,3,11,5,9
1530606689594978,-19,-21,-6,10,13,0,-9,-11
1530606689594978,25,12,-1,-10,-6,-18,23,0
1530606689596973,-4,-4,-2,-7,-5,-2,0,5
1530606689596973,-18,4,4,12,6,-3,-4,-5
1530606689608941,28,5,1,1,0,2,9,5
1530606689608941,-11,1,-5,-8,-7,-3,-16,-2
1530606689615922,-3,0,-3,-8,-6,16,-3,-2
1530606689615922,-13,-2,-4,3,-4,-10,-5,3
1530606689632877,12,-7,-1,8,10,8,0,-4
1530606689632877,0,7,4,-1,-1,9,1,-1
1530606689633874,-19,-11,-6,-5,-4,-18,-4,-1
1530606689633874,12,6,-3,-3,-4,-1,5,13
1530606689654818,1,8,10,4,0,3,-9,-16
1530606689654818,18,13,2,-7,-2,-2,-1,22
1530606689656813,30,-1,-3,1,2,-5,5,-16
1530606689656813,22,-11,-5,-5,-4,2,1,3
1530606689669778,6,-19,-3,2,3,0,-1,5
1530606689669778,-7,13,1,-7,-10,-3,1,-3
1530606689675762,15,-8,-3,-4,4,6,-5,-8
1530606689675762,24,2,0,3,0,-15,1,4
1530606689692716,-22,11,5,0,2,5,-1,5
1530606689692716,4,-4,-3,-5,-5,-6,-3,-8
1530606689693714,-10,1,-2,-4,-3,-2,1,-7
1530606689693714,-14,-23,0,16,13,-5,-3,1
1530606689714658,4,7,-1,-1,-10,16,3,3
1530606689714658,-6,-7,-4,-4,3,-15,0,-5
1530606689716653,-7,-28,1,2,-3,-4,0,1
1530606689716653,-72,-11,-2,-14,-2,4,-6,-8
1530606689728621,1,32,-7,-4,-1,-12,-2,2
1530606689728621,-4,50,16,8,3,23,-1,-5
1530606689737597,0,-56,-8,-2,-1,-11,6,5
1530606689737597,11,27,2,-2,-13,4,-1,10
1530606689752557,39,-38,-1,2,-3,-11,-3,-23
1530606689752557,-95,5,-10,-10,-5,-2,-2,-3
1530606689754551,32,43,7,5,20,4,-1,8
1530606689754551,-4,-43,-9,-4,-12,6,0,-15
1530606689774498,16,55,12,1,4,-6,0,6
1530606689774498,9,-49,-13,2,-2,-3,-3,-3
1530606689776493,-8,19,4,2,-5,0,-2,1
1530606689776493,13,-4,5,-2,2,-5,-2,10
1530606689788460,47,0,-9,-2,5,6,3,11
1530606689788460,-42,-17,-7,-2,-11,-2,3,-2
1530606689797437,3,13,-7,-4,-2,-7,-8,-2
1530606689797437,40,-25,0,1,5,1,-3,-7
1530606689812396,24,37,-5,-3,-12,-6,0,-7
1530606689812396,-14,-65,-2,3,17,7,0,5
1530606689814391,-40,24,9,1,-5,-13,1,11
1530606689814391,33,41,-6,-6,2,28,5,2
1530606689835335,-16,10,12,-2,4,-2,-8,-32
1530606689835335,84,-46,-20,-10,-8,-3,-6,0
1530606689836333,-72,86,31,11,2,3,2,2
1530606689836333,26,-77,-9,-10,2,4,4,-22
1530606689857277,13,-31,-8,6,10,5,2,17
1530606689857277,51,33,-1,-3,-14,-12,-4,-9
1530606689859271,-30,-30,-12,-6,-18,4,-3,2
1530606689859271,-9,16,5,6,-4,-1,3,5
1530606689872237,-33,-18,-5,5,19,-6,0,5
1530606689872237,0,5,4,2,25,1,5,4
1530606689878220,28,2,-11,-10,-7,-5,-9,-39
1530606689878220,-21,31,13,2,3,-7,-3,-1
1530606689895175,-19,-36,-7,-1,-5,0,3,14
1530606689895175,0,26,10,8,-10,9,4,13
1530606689896173,5,-57,-11,2,26,9,4,10
1530606689896173,-3,26,-1,-4,-18,-7,-6,-18
1530606689908140,2,4,8,-4,-33,-5,-2,8
1530606689908140,-4,15,-2,6,31,-6,-1,-6
1530606689918114,1,-11,-11,-1,-5,5,1,4
1530606689918114,-16,54,17,-3,2,17,-1,1
1530606689932076,-14,-30,-2,6,-9,-28,-1,9
1530606689932076,38,18,1,-3,-12,2,-5,-7
1530606689934071,-8,-26,-9,-2,-13,3,1,2
1530606689934071,-38,-22,-11,5,13,-3,-6,-7
1530606689955015,-24,14,-1,-3,13,19,2,10
1530606689955015,-36,0,-2,-7,-7,-6,-1,-20
1530606689957010,50,5,4,2,12,-6,4,10
1530606689957010,4,4,3,-9,-9,0,1,4
1530606689968977,4,7,-1,9,4,1,-4,0
1530606689968977,0,-31,-6,-3,-6,12,4,8
1530606689977954,-14,2,2,-23,-21,-34,-9,6
1530606689977954,15,13,6,41,16,-13,10,24
1530606689992914,-33,-18,-10,-8,7,0,1,-46
1530606689992914,26,7,2,5,13,18,-14,0
1530606689993912,-1,12,1,-7,-7,6,0,-9
1530606689993912,6,-26,-5,-17,-10,4,1,20
1530606690014855,1,5,1,5,1,10,3,10
1530606690014855,-14,14,5,3,-6,-17,9,-8
1530606690016850,-27,-25,-2,13,15,8,-1,4
1530606690016850,51,6,-4,1,0,7,6,-6
1530606690028818,-33,-20,-3,-6,-7,-15,-32,-8
1530606690028818,-28,-15,-5,-20,-21,-22,3,-8
1530606690037794,44,24,1,-8,0,5,9,-4
1530606690037794,-17,-16,-1,24,13,-2,7,-10
1530606690052754,33,9,2,-10,-2,5,3,7
1530606690052754,-55,-6,-1,4,0,9,-6,5
1530606690053751,3,-4,-5,-8,-11,-9,-2,-4
1530606690053751,15,-8,-4,-24,-12,5,-7,-10
1530606690074695,-1,41,9,3,0,-2,1,-2
1530606690074695,8,4,-2,-1,3,-9,-4,-5
1530606690076690,0,8,-1,1,-1,17,2,3
1530606690076690,3,-16,-8,-21,-10,-38,-10,-6
1530606690097634,-14,-14,-3,8,1,51,6,5
1530606690097634,7,9,2,8,7,-35,14,9
1530606690099629,-11,-11,0,4,-3,1,1,-9
1530606690099629,-11,4,-5,12,5,-2,-16,7
1530606690112594,-1,-4,-2,-8,-2,-11,2,3
1530606690112594,7,11,2,-7,-2,23,-2,2
1530606690114588,12,0,-1,3,0,-1,0,-1
1530606690114588,-21,14,2,-4,-5,4,-8,3
1530606690134535,-11,-15,-4,-10,-7,-8,5,-5
1530606690134535,16,-2,1,10,5,10,1,0
1530606690136530,2,5,4,5,3,-9,-2,10
1530606690136530,4,9,-1,-5,-3,2,3,-1
1530606690157474,-3,1,-3,-2,-1,-2,-2,-3
1530606690157474,7,-8,-1,1,-3,-1,-1,-8
1530606690159468,-16,-5,-1,0,5,0,-2,0
1530606690159468,-10,3,4,0,-1,3,0,-6
1530606690172434,42,-18,-5,1,-3,-9,-1,4
1530606690172434,-41,19,0,-5,-3,-20,-6,-6
1530606690174429,-1,-15,2,5,2,31,2,-4
1530606690174429,-17,-1,-3,-7,-9,-3,0,-1
1530606690195372,7,4,0,7,19,1,-1,3
1530606690195372,28,-8,-3,9,-4,6,4,10
1530606690196370,10,24,6,-3,3,-4,-11,7
1530606690196370,-11,6,0,0,2,-3,1,-10
1530606690217314,-6,-4,-3,13,5,4,3,3
1530606690217314,-15,-5,-4,-5,-7,-4,-7,-2
1530606690219308,4,-25,-6,11,6,-6,1,-3
1530606690219308,6,16,-6,-9,-6,2,0,3
1530606690232274,-19,18,6,-8,-4,-4,-1,-10
1530606690232274,4,3,7,1,-4,7,1,-2
1530606690234269,11,-13,-8,-5,-16,-8,-2,-1
1530606690234269,8,2,2,2,19,1,0,3
1530606690255212,0,-13,-10,-8,3,3,1,-2
1530606690255212,-3,-23,-7,-1,-11,-5,-1,1
1530606690256210,-1,31,5,1,5,0,-4,-29
1530606690256210,-11,1,6,1,-8,-7,-2,0
1530606690277153,-10,-8,-1,2,-13,-11,-4,-10
1530606690277153,36,-20,-10,-5,7,12,1,20
1530606690279149,-12,2,-4,0,9,-1,-2,2
1530606690279149,12,-4,5,7,9,7,6,-4
1530606690292113,13,-42,-6,-2,6,-6,-2,-13
1530606690292113,2,64,12,-4,-8,3,3,7
1530606690299095,13,-9,-4,-1,-3,-4,-2,-12
1530606690299095,20,-7,-10,-4,-11,-3,1,13
1530606690315052,-29,27,9,2,1,7,-3,7
1530606690315052,19,13,-3,-4,3,-15,-7,7
1530606690317047,3,-16,-4,-1,7,5,-3,-24
1530606690317047,-29,32,8,0,-14,-34,1,2
1530606690336994,20,-46,-12,-7,5,0,4,0
1530606690336994,-62,-37,-10,-8,-9,-9,-9,-3
1530606690338989,4,-3,-10,2,30,19,4,8
1530606690338989,-2,-69,-7,5,-4,13,0,-8
1530606690351954,0,62,12,8,-8,-19,-4,3
1530606690351954,4,-5,6,-2,6,-2,3,-8
1530606690358935,43,6,2,-4,-8,-3,7,26
1530606690358935,-28,-6,-4,-8,-8,-2,-8,-36
1530606690374892,-36,6,3,1,-2,-4,-4,13
1530606690374892,-29,-1,-8,-7,-10,11,0,5
1530606690376887,18,-13,-2,2,-3,-5,-2,-3
1530606690376887,60,3,-1,1,16,0,3,5
1530606690397831,-73,-27,-3,-4,-8,-10,3,3
1530606690397831,32,-39,-12,1,-5,30,-1,-21
1530606690398829,-16,29,6,4,-1,-17,-3,6
1530606690398829,-12,74,19,1,9,11,5,15
1530606690411793,43,24,2,-4,-15,-5,-3,1
1530606690411793,-4,-18,-5,0,5,9,0,0
1530606690418775,33,-42,-15,-5,-21,-5,-2,-8
1530606690418775,-87,-13,-7,-1,-6,-9,-7,7
1530606690434732,34,-1,7,2,21,10,2,-8
1530606690434732,-2,20,2,-12,1,1,7,0
1530606690436727,24,19,4,-4,-13,-5,-2,10
1530606690436727,8,-20,-7,4,14,-8,1,7
1530606690457671,-23,-1,-1,15,1,2,-2,-6
1530606690457671,37,19,6,6,22,-20,-6,5
1530606690458668,-53,7,1,-7,-10,9,-3,-14
1530606690458668,3,-22,-8,-24,-24,-1,7,2
1530606690471633,56,-6,-7,29,20,-1,10,-6
1530606690471633,77,1,6,-11,-14,-25,-37,0
1530606690478615,-94,-12,-1,11,11,8,-6,-1
1530606690478615,66,-5,-5,-29,-11,18,-12,3
1530606690494572,45,21,3,13,-2,-24,10,14
1530606690494572,-3,-5,-1,14,13,11,3,-24
1530606690496567,51,-4,-1,-23,-7,4,-1,17
1530606690496567,-31,1,-1,24,4,-17,-4,-15
1530606690517511,-35,3,-6,-27,-15,-14,3,12
1530606690517511,6,-4,1,7,0,30,3,-3
1530606690519505,-11,3,-2,-2,-5,-35,2,4
1530606690519505,27,-7,1,-11,-10,11,0,2
1530606690531473,-24,-23,-7,-18,-1,7,-5,-22
1530606690531473,-49,20,3,18,8,-4,7,3
1530606690538455,40,-15,0,11,4,42,0,-5
1530606690538455,39,13,0,5,5,-16,3,15
1530606690555410,-14,-1,0,-11,-8,19,11,-4
1530606690555410,-25,-12,0,-5,1,-11,10,-3
1530606690556407,-52,-1,1,-4,-5,4,-9,4
1530606690556407,42,5,-2,9,2,-5,0,2
1530606690577351,-34,0,-3,-18,-13,-4,-11,-17
1530606690577351,-22,-16,0,23,12,14,15,3
1530606690579346,57,11,1,-1,-3,-9,0,-10
1530606690579346,-85,15,-6,4,8,-4,-2,-8
1530606690591313,31,0,4,-12,-9,4,1,16
1530606690591313,9,15,3,-10,-15,-6,-4,7
1530606690600290,5,-12,-4,8,8,-3,-1,-5
1530606690600290,-30,-8,0,-2,2,2,-1,-7
1530606690615250,33,-1,-5,-8,-5,4,-10,0
1530606690615250,-47,5,-1,1,-2,-2,1,12
1530606690616247,1,-2,1,2,4,-25,3,-5
1530606690616247,-13,1,-3,-8,-3,30,8,-7
1530606690637191,6,-6,-3,3,-1,5,-7,12
1530606690637191,19,-1,-2,-5,-7,7,-1,-9
1530606690639185,-18,19,1,-6,-4,-16,9,7
1530606690639185,25,-15,0,6,2,-7,-9,7
1530606690651153,-37,-7,0,3,3,9,-2,-26
1530606690651153,14,0,-2,-10,-3,0,-3,14
1530606690660130,-2,9,-1,-2,-3,-5,-1,4
1530606690660130,2,-12,-1,0,-2,5,1,-7
1530606690675089,44,-19,-2,8,3,-14,0,13
1530606690675089,-40,23,-2,-5,-7,-13,-2,-13
1530606690677084,12,-1,0,-2,7,1,3,4
1530606690677084,14,12,1,9,3,-2,-1,-1
1530606690697030,-12,10,1,-10,-7,3,-1,5
1530606690697030,16,-19,-6,-6,-7,-9,-1,-5
1530606690699026,-3,-6,0,6,-2,2,-3,-1
1530606690699026,7,-4,-2,-6,-1,7,1,1
1530606690710993,-11,5,0,-3,-2,-12,-8,-10
1530606690710993,14,2,-1,3,12,-8,1,0
1530606690720967,-21,8,-1,-8,-11,11,-4,8
1530606690720967,-6,-53,-6,3,-6,-6,0,-6
1530606690734929,6,33,5,-1,-1,3,2,9
1530606690734929,5,21,7,-3,12,3,-1,-6
1530606690736924,-16,-41,-6,0,2,1,0,-3
1530606690736924,8,35,0,4,-17,-4,2,3
1530606690757868,-4,38,3,6,4,-2,-2,0
1530606690757868,2,-25,-6,-1,9,8,2,0
1530606690758866,-3,0,3,5,4,3,1,3
1530606690758866,-4,12,-7,-11,-3,-4,-9,-10
1530606690770834,-3,-30,-3,3,-10,2,-3,-7
1530606690770834,73,102,13,4,-11,-10,-4,-6
1530606690779809,-98,-65,-6,-6,6,1,3,-4
1530606690779809,27,-23,-3,2,6,-2,0,-2
1530606690794769,-8,-49,-12,-1,6,-2,-6,-8
1530606690794769,37,19,-1,-5,-2,14,7,18
1530606690796764,26,-20,-2,1,-18,-18,-6,-16
1530606690796764,-18,72,9,5,13,13,-2,2
1530606690817708,-16,-69,-6,0,5,-24,-1,2
1530606690817708,-26,45,-2,-5,0,-2,2,-9
1530606690818706,-53,-15,-9,-9,-3,5,-7,-12
1530606690818706,7,-41,4,10,-4,3,0,-3
1530606690831671,-15,68,5,-1,3,3,0,-16
1530606690831671,7,-74,-7,-6,-5,-13,2,26
1530606690840647,35,67,17,7,1,2,10,18
1530606690840647,38,-3,6,7,10,-8,-15,-18
1530606690854609,-89,-70,-21,-3,-7,11,-2,-9
1530606690854609,32,4,5,8,-6,-7,-5,12
1530606690856604,19,23,4,0,4,-2,-3,-15
1530606690856604,38,9,-2,-8,2,4,10,20
1530606690877548,17,8,1,4,14,4,2,3
1530606690877548,-38,-10,2,-2,-6,-6,-6,6
1530606690879543,31,22,0,-5,-8,8,4,-19
1530606690879543,-41,19,-1,2,23,-9,6,5
1530606690891510,52,-34,-4,-4,-16,22,0,9
1530606690891510,-32,-6,-14,-2,4,-32,-3,-14
1530606690900487,14,31,12,0,-17,-8,-12,7
1530606690900487,-6,-5,-4,-4,3,11,2,-11
1530606690914449,17,-20,-3,0,14,-8,2,-6
1530606690914449,-81,-80,-9,-2,-13,6,-3,-11
1530606690916445,16,17,-2,3,11,8,6,-9
1530606690916445,8,22,7,-1,-14,-5,-7,11
1530606690937388,-5,25,-3,-8,-8,-16,0,5
1530606690937388,44,-21,0,-2,12,13,1,7
1530606690939383,-25,7,-13,-1,-6,-24,-8,-35
1530606690939383,-6,1,-1,-8,-5,16,-5,16
1530606690951351,-20,51,17,2,-12,0,-1,-5
1530606690951351,22,-36,-9,5,4,0,6,9
1530606690960327,-12,-10,2,0,3,-8,2,-18
1530606690960327,-25,-39,-8,-2,-18,26,-9,14
1530606690975287,26,17,0,-15,13,-58,-2,4
1530606690975287,-6,27,2,9,-1,27,1,1
1530606690977282,-22,-12,-7,-9,-5,-4,0,5
1530606690977282,37,-3,2,-5,-5,10,19,-8
1530606690996230,2,7,1,5,-1,8,8,4
1530606690996230,-26,-7,-1,7,13,-1,-31,-11
1530606691005207,-8,6,-3,-23,-20,-33,-14,6
1530606691005207,7,-12,4,13,18,26,2,-4
1530606691011190,-4,8,2,17,-5,4,10,-3
1530606691011190,24,-3,-4,-14,-3,-28,6,-17
1530606691020167,25,-8,0,17,2,11,1,7
1530606691020167,-28,12,2,-18,2,19,-6,0
1530606691035126,-3,1,-4,4,7,-7,-4,12
1530606691035126,48,10,-1,-1,-7,2,-25,-2
1530606691037122,-15,-11,-2,1,10,1,-8,9
1530606691037122,-14,-13,-5,-14,-15,-18,2,-6
1530606691057068,19,19,5,-5,-1,23,6,3
1530606691057068,-30,-10,1,-11,-12,-11,5,-7
1530606691059063,28,5,2,17,11,11,16,23
1530606691059063,-13,-15,-3,-4,-5,-16,-6,-11
1530606691080007,2,8,4,28,16,7,-6,4
1530606691080007,1,-9,-1,2,7,3,12,5
1530606691082001,-14,-15,-2,-5,-1,9,2,7
1530606691082001,-10,-2,-2,3,1,-18,-4,-11
1530606691094967,9,17,2,-18,-12,7,-10,-7
1530606691094967,-13,-3,-1,-5,-9,-5,4,3
1530606691096961,24,-4,-4,0,13,9,4,2
1530606691096961,-16,19,5,10,-1,-28,-2,-4
1530606691117905,-8,-22,-2,4,3,16,-1,-4
1530606691117905,10,-3,1,5,3,32,3,1
1530606691118903,-23,-3,-5,-5,-7,-27,-7,-6
1530606691118903,20,0,-3,-8,-6,-14,1,1
1530606691139847,6,11,-1,-3,-1,5,-3,6
1530606691139847,-15,18,12,0,-5,-1,3,-11
1530606691141842,-1,-5,-4,-6,2,6,1,4
1530606691141842,12,-5,-1,12,-5,-3,-1,-10
1530606691153809,-13,-13,-10,-9,8,-4,3,-1
1530606691153809,19,10,-1,-7,-5,0,3,4
1530606691160791,-1,3,3,14,3,-1,-1,8
1530606691160791,-10,20,1,11,10,-7,3,-1
1530606691177745,-3,-38,-3,10,1,11,8,2
1530606691177745,3,12,-7,-17,-6,7,4,-1
1530606691178743,0,12,3,0,-2,-2,-10,-3
1530606691178743,28,-1,2,4,16,-3,4,2
1530606691199686,-17,-20,-4,-8,-12,2,-2,0
1530606691199686,-12,-3,-3,-6,-2,-16,6,-1
1530606691201681,13,20,-1,-2,-6,9,3,8
1530606691201681,-21,-18,-2,2,-1,-2,-6,-8
1530606691214646,-9,0,-2,-10,-5,2,-2,-12
1530606691214646,-7,13,0,8,2,-1,-3,-1
1530606691216641,35,3,1,-2,-6,6,0,3
1530606691216641,-7,-2,-3,-5,-4,-4,-2,6
1530606691237585,53,-1,2,0,0,-5,-4,6
1530606691237585,-103,-17,-9,-4,-4,0,-4,-12
1530606691239580,14,14,4,-4,-6,-7,-3,2
1530606691239580,17,-11,0,4,12,20,7,5
1530606691259526,-65,-1,-2,-4,-6,-6,2,10
1530606691259526,37,-15,-3,1,-2,-12,-9,-12
1530606691261522,-10,17,-4,-5,8,24,6,3
1530606691261522,6,-5,0,-8,-14,-12,2,3
1530606691274487,14,27,-4,-2,-8,0,-9,-13
1530606691274487,-2,1,7,5,6,-1,-1,6
1530606691281468,-11,-29,-2,-8,9,-5,3,-4
1530606691281468,-4,-14,-4,5,14,1,-2,-14
1530606691297425,26,3,0,-1,-10,-4,3,17
1530606691297425,3,-15,-7,0,-14,9,-2,-19
1530606691299420,-2,11,4,0,-15,-22,-4,-10
1530606691299420,9,0,4,-1,14,0,3,7
1530606691320363,-31,-40,-9,-5,13,5,-2,-1
1530606691320363,7,36,3,1,-2,8,-1,-4
1530606691321361,-7,-39,-3,5,-2,6,1,4
1530606691321361,16,21,-4,0,-11,-8,0,0
1530606691334326,15,10,5,-3,-13,-5,-5,-5
1530606691334326,22,38,8,6,17,3,3,6
1530606691341308,-5,-26,-9,-5,-14,-4,-3,20
1530606691341308,-8,-28,-12,-5,-7,-14,-4,-30
1530606691357265,10,-29,-10,-3,12,3,-4,-4
1530606691357265,-20,21,-3,-12,-5,-5,4,2
1530606691359260,-10,13,8,17,16,20,2,5
1530606691359260,-5,-25,0,1,-24,-9,0,13
1530606691380204,-15,15,5,1,0,-11,-12,-2
1530606691380204,9,-22,-4,4,4,-5,0,-2
1530606691381201,15,-20,-4,-9,4,5,-5,7
1530606691381201,-43,42,-4,-17,-6,-42,-4,-5
1530606691394166,21,20,15,25,10,48,11,-5
1530606691394166,-5,-39,-4,-4,-8,-5,6,14
1530606691401147,18,-32,-11,-2,-10,-7,-8,-16
1530606691401147,-13,49,8,3,3,7,-7,6
1530606691417105,51,15,0,-12,-7,-13,5,-4
1530606691417105,-28,0,-1,4,9,4,1,-1
1530606691419100,-21,-25,-9,-1,-2,4,2,-8
1530606691419100,2,0,0,-6,-15,9,-9,-3
1530606691440043,16,-9,-6,-5,-10,-25,-11,-7
1530606691440043,10,-15,-1,-1,1,10,0,-6
1530606691442039,-55,6,-4,-7,4,-17,-2,-14
1530606691442039,37,-13,-3,12,11,17,3,14
1530606691454006,-47,28,4,-18,-6,19,-2,-10
1530606691454006,39,-30,0,8,-5,-43,0,1
1530606691460987,3,35,4,33,27,11,3,9
1530606691460987,-26,0,-4,-13,-7,23,5,6
1530606691477942,39,-6,0,2,-2,-30,19,3
1530606691477942,-11,13,-4,-30,-20,26,-3,3
1530606691478940,45,21,3,-6,-19,-6,-10,0
1530606691478940,-12,-33,1,29,34,-3,0,-6
1530606691499884,-52,0,-4,-20,-13,21,4,0
1530606691499884,19,13,0,27,19,-18,-13,6
1530606691501878,-7,6,3,0,2,1,19,-16
1530606691501878,10,-3,0,-15,-14,34,-1,8
1530606691513846,-11,-9,-3,15,5,9,-3,4
1530606691513846,18,10,-1,2,0,-53,-2,-11
1530606691520827,1,5,1,-21,-8,21,-9,0
1530606691520827,-43,-15,2,18,5,-18,-2,-4
1530606691537782,14,3,-1,-9,2,3,5,8
1530606691537782,86,-2,3,-4,-9,24,14,8
1530606691538780,-90,5,0,13,20,-12,-22,-13
1530606691538780,14,-3,-1,-18,-13,-7,13,-4
1530606691559723,25,15,1,4,2,-3,-15,-4
1530606691559723,22,-17,-1,10,1,14,3,-1
1530606691561718,-23,11,0,-17,-11,-12,11,5
1530606691561718,-15,-5,0,-4,-9,-4,-4,-4
1530606691573686,-19,-7,1,9,8,4,-10,-14
1530606691573686,-14,-18,-5,-3,-2,-1,-1,1
1530606691582663,69,1,0,-2,-4,4,7,9
1530606691582663,1,6,-2,5,2,-7,-9,-8
1530606691597622,-4,-15,-5,-6,-3,-14,-3,-7
1530606691597622,-60,26,0,-11,-11,10,-2,4
1530606691599618,7,-16,-5,-4,4,-2,-3,-4
1530606691599618,8,10,11,7,1,-4,5,15
1530606691619564,20,8,-6,-3,-2,-6,-15,-19
1530606691619564,-20,-9,-2,-4,-5,4,-11,3
1530606691621559,-3,2,3,5,3,-5,0,8
1530606691621559,11,6,-3,-7,-3,14,2,-3
1530606691633526,-18,-19,1,-3,-2,-27,6,10
1530606691633526,16,13,-1,5,7,25,0,-8
1530606691642502,10,-9,-3,6,-3,-11,-7,2
1530606691642502,12,-5,-2,-6,1,15,-2,11
1530606691657462,-12,3,1,5,0,-13,1,5
1530606691657462,-11,2,0,-6,5,-3,-4,-9
1530606691659457,9,-10,-6,-8,-5,2,0,-3
1530606691659457,8,-2,-1,-4,-5,-1,-3,-6
1530606691680401,29,6,-1,2,2,2,2,10
1530606691680401,-5,3,-1,0,-1,-7,0,-1
1530606691681398,-30,-1,1,3,-4,4,1,-5
1530606691681398,18,-5,-7,-4,2,-20,-7,-13
1530606691693366,-28,3,-1,-1,4,15,-3,3
1530606691693366,-6,-19,-2,-5,-7,-12,-1,-2
1530606691702342,27,4,1,5,4,2,1,2
1530606691702342,-19,1,-2,-1,-3,-7,1,3
1530606691717302,-12,21,2,-1,-1,-3,-1,-8
1530606691717302,-8,8,4,-2,6,10,1,3
1530606691719297,-8,-9,-3,-3,1,6,-6,-4
1530606691719297,55,0,-2,-2,-2,-3,3,-1
1530606691740241,-79,-19,-1,5,-6,2,3,0
1530606691740241,27,5,-3,-3,-1,-1,-1,-7
1530606691741239,-11,-14,-2,-5,-7,-17,-12,-10
1530606691741239,21,6,1,0,0,-3,-2,5
1530606691753206,2,4,-5,-6,-7,1,-2,-9
1530606691753206,-14,1,14,5,9,6,2,10
1530606691762182,14,-27,-8,-4,0,0,5,8
1530606691762182,-36,-3,-4,-1,-12,-8,-6,-3
1530606691777142,14,56,17,2,5,1,0,8
1530606691777142,-10,-13,-14,-1,18,11,0,4
1530606691779137,32,24,17,9,-5,5,6,-11
1530606691779137,-28,-79,-26,-7,-10,-5,-4,-7
1530606691800081,21,11,-5,0,-4,7,5,12
1530606691800081,-13,48,11,1,-21,-13,-7,-1
1530606691802076,-56,-24,-1,0,4,0,2,13
1530606691802076,-13,19,-2,-5,14,-2,-13,-25
1530606691814043,31,-128,-15,2,-7,-7,5,7
1530606691814043,-2,83,-3,-5,-13,-10,-7,-14
1530606691823020,40,9,4,-5,-3,2,6,-4
1530606691823020,1,66,18,7,6,7,11,4
1530606691836982,-8,-51,-11,-14,-11,3,-3,-9
1530606691836982,-1,-45,-7,21,19,-7,-1,11
1530606691838977,-26,27,-2,-6,-24,-6,-7,-18
1530606691838977,-9,-14,-2,-3,13,-5,4,12
1530606691859921,37,66,9,1,-1,0,0,3
1530606691859921,22,-25,9,-1,-5,3,10,14
1530606691861916,-25,-19,-15,-5,-4,-1,3,-17
1530606691861916,-22,11,12,7,14,16,-3,16
1530606691873883,-3,33,-8,-5,-2,-9,-2,-4
1530606691873883,17,-8,5,-1,3,6,1,16
1530606691882860,-55,-7,-1,-5,11,-13,-9,-38
1530606691882860,26,1,-6,-4,-24,-7,-4,2
1530606691897819,-10,-22,2,0,-9,10,-4,-3
1530606691897819,12,2,-5,6,1,-1,-1,-8
1530606691898817,9,6,-1,3,10,9,6,19
1530606691898817,21,-3,1,-8,-11,-8,1,0
1530606691919761,-11,-4,-2,9,30,18,-6,-3
1530606691919761,-5,-23,-7,2,8,-15,1,-8
1530606691921756,25,17,3,-6,-8,42,1,13
1530606691921756,26,-54,-8,-6,-8,-15,4,5
1530606691933723,-57,24,4,2,-8,-13,-1,-4
1530606691933723,17,9,-7,-16,-17,-9,-7,-13
1530606691942700,44,-4,0,4,12,-12,-2,6
1530606691942700,-14,-4,2,-4,1,21,-1,13
1530606691957659,48,-9,-3,-5,-4,-22,9,-25
1530606691957659,-60,-10,-5,-2,-7,1,-15,-2
1530606691959654,9,13,-1,-1,-4,6,11,2
1530606691959654,41,7,4,-11,-11,16,11,0
1530606691979601,-51,-10,-2,7,4,-41,-19,11
1530606691979601,16,0,-1,10,12,38,-4,-30
1530606691981596,-57,-14,-7,0,-2,-23,2,7
1530606691981596,21,27,6,-1,4,-12,5,-1
1530606692002539,14,-22,-3,-1,2,-24,13,-6
1530606692002539,44,10,0,-15,-3,20,0,7
1530606692004534,31,-6,-1,28,20,16,-38,9
1530606692004534,-37,-2,-3,-7,-8,-29,15,-10
1530606692017499,55,9,4,-3,-7,14,-14,4
1530606692017499,-124,-28,-7,9,3,-35,12,1
1530606692019494,71,13,1,-12,-5,8,8,0
1530606692019494,-22,2,-3,6,3,11,-14,-8
1530606692040438,54,8,-3,-5,-1,13,3,2
1530606692040438,14,-7,-2,-8,-5,2,5,-2
1530606692041436,17,12,3,7,-3,-1,1,5
1530606692041436,-41,-3,-3,9,14,-10,-9,-15
1530606692062379,-10,-4,1,-2,-2,11,5,6
1530606692062379,10,-3,-2,-11,-12,-8,-5,3
1530606692064374,-34,1,-2,6,-11,-13,2,2
1530606692064374,65,15,-2,-2,3,0,-8,3
1530606692077339,-40,6,1,-2,-8,5,3,9
1530606692077339,-40,-10,3,14,12,-4,-1,-4
1530606692079334,23,-19,-2,-7,2,0,1,-7
1530606692079334,23,6,-2,5,-4,12,1,-3
1530606692100278,-18,-5,-6,-8,4,-7,-11,-7
1530606692100278,59,1,-5,-12,-21,-8,-1,12
1530606692101276,-28,13,2,-2,-2,-1,3,2
1530606692101276,-40,-5,2,6,0,-4,2,-6
1530606692123217,26,21,8,-4,-1,8,-1,1
1530606692123217,-6,-17,-4,5,3,10,-5,-11
1530606692125212,8,-5,-2,3,3,-18,11,11
1530606692125212,-19,2,-3,0,2,2,4,14
1530606692137179,4,-6,-3,0,0,-2,-20,-16
1530606692137179,3,17,7,-1,3,8,5,8
1530606692139175,-22,-10,-2,-13,-6,10,-4,-10
1530606692139175,0,-26,-2,5,-3,-14,4,-2
1530606692160118,6,0,-4,2,1,1,9,15
1530606692160118,-9,6,-1,1,-2,-2,-2,-6
1530606692161116,8,-1,-1,-5,0,8,-1,2
1530606692161116,4,0,-2,5,0,-17,-7,-2
1530606692182059,-10,13,1,3,2,9,2,-1
1530606692182059,19,-26,-3,-12,-7,-7,-4,-1
1530606692184054,-18,2,-1,4,2,-6,-3,-7
1530606692184054,-5,8,0,-3,0,14,-4,-8
1530606692197019,-17,9,0,-5,-4,5,5,5
1530606692197019,-14,-20,-5,3,7,-4,-1,0
1530606692204001,38,10,3,7,2,-2,1,0
1530606692204001,-1,-20,-1,-2,0,-15,-5,6
1530606692219958,-20,2,-7,0,-4,27,0,-17
1530606692219958,-3,-6,-1,-8,-7,-8,0,-3
1530606692221953,7,8,2,-4,-3,-5,-3,5
1530606692221953,-8,-1,1,1,0,1,-4,-2
1530606692242897,13,-4,-2,1,4,1,4,3
1530606692242897,-21,-1,1,-2,-3,-3,-1,0
1530606692243894,24,-22,-6,-3,5,-3,-5,-2
1530606692243894,-19,30,-2,-3,-6,2,-1,-7
1530606692256859,26,-9,3,1,-1,-10,0,5
1530606692256859,7,9,-1,4,5,3,0,-7
1530606692263840,-30,-26,-3,-4,-8,-10,2,4
1530606692263840,15,7,-6,-3,-9,3,-2,-2
1530606692279798,-44,7,5,2,2,-7,-1,-2
1530606692279798,67,-19,-3,-1,-1,-1,-1,-5
1530606692281793,-75,28,-2,-3,8,9,1,-3
1530606692281793,35,1,3,-1,-3,5,-1,-2
1530606692302736,10,-21,-3,8,4,-6,1,5
1530606692302736,-30,14,5,-2,-10,-5,0,3
1530606692303734,48,-22,-4,-2,-1,-6,-4,-4
1530606692303734,0,9,-1,-2,15,8,3,-10
1530606692316699,57,14,-3,-4,-25,-8,-4,0
1530606692316699,-82,18,16,0,3,5,-1,-2
1530606692323681,32,-6,-8,-7,12,-4,-3,0
1530606692323681,-69,-17,-2,-1,-7,-5,-4,-8
1530606692339638,33,-48,-6,-1,-4,11,6,2
1530606692339638,42,6,-3,-2,-6,-10,-6,0
1530606692341633,-22,50,16,1,6,-1,0,-2
1530606692341633,-10,-23,-12,-11,-6,3,2,19
1530606692362576,-35,16,4,3,2,-6,-12,-26
1530606692362576,20,-23,-10,-8,4,6,2,14
1530606692364571,3,-18,-3,6,-2,-4,1,9
1530606692364571,37,-12,-2,5,-7,11,0,-7
1530606692376539,-71,17,0,-2,-3,-9,-3,-7
1530606692376539,-20,-2,-5,-1,3,1,0,1
1530606692383520,39,-6,4,2,-12,-6,-4,-1
1530606692383520,-45,-4,0,-2,8,-17,3,18
1530606692399478,27,6,-2,-3,6,25,-5,-1
1530606692399478,-15,-16,-13,-9,-9,-7,-3,-3
1530606692401473,27,26,11,4,4,2,6,-6
1530606692401473,9,26,9,1,-11,3,-5,-6
1530606692422417,-96,30,7,1,2,-9,4,-11
1530606692422417,55,-26,-9,-2,-8,-5,-1,20
1530606692424411,20,-1,-4,-4,-13,4,-6,-33
1530606692424411,-20,0,-1,5,10,-15,0,6
1530606692436379,28,-11,-1,2,1,-5,-4,0
1530606692436379,34,20,0,4,18,6,0,-7
1530606692443360,-49,-29,-10,-11,-13,-5,3,15
1530606692443360,-36,10,2,-1,6,10,-4,-24
1530606692460315,53,-10,-1,-2,-17,-5,-6,12
1530606692460315,-29,-15,3,18,12,1,2,6
1530606692461314,13,-9,-8,-8,8,41,-3,-24
1530606692461314,-11,-6,5,7,-3,17,17,3
1530606692482256,94,-9,-12,-12,6,-44,-4,16
1530606692482256,-79,17,2,-24,-8,-17,-2,-10
1530606692484251,62,13,1,6,-20,0,-2,16
1530606692484251,114,16,1,1,7,-2,-21,-26
1530606692496219,-28,-9,-1,-6,-10,6,11,-6
1530606692496219,33,1,4,-5,3,38,-10,6
1530606692505195,-80,6,-2,19,19,-21,3,17
1530606692505195,-3,-4,-4,-11,-5,11,4,-8
1530606692520155,48,10,6,-5,-8,-18,-4,12
1530606692520155,60,0,-7,5,6,-3,-1,-20
1530606692528134,-65,8,-3,-5,-5,4,-4,5
1530606692528134,79,-16,2,33,3,-16,-19,21
1530606692542096,-36,-1,-5,-19,9,19,3,-4
1530606692542096,-39,28,3,-5,-8,-1,4,4
1530606692544091,38,-25,1,9,10,7,12,11
1530606692544091,79,14,-3,-3,0,2,-3,-1
1530606692556059,-72,-8,-6,-18,-8,-2,7,1
1530606692556059,-11,5,5,30,17,2,0,-2
1530606692565036,40,-3,-1,-7,-5,11,-2,1
1530606692565036,-15,-1,2,1,5,-14,4,8
1530606692579995,5,-8,4,-2,-1,3,2,3
1530606692579995,6,12,-1,6,-3,-18,-3,-9
1530606692581990,17,2,-1,-3,-2,-15,-3,5
1530606692581990,-2,-11,-5,-12,-9,15,8,3
1530606692602934,53,4,2,13,7,-2,-2,-2
1530606692602934,-39,-8,-2,-3,-2,0,0,-10
1530606692603931,100,-8,-1,-8,-5,-15,-2,-6
1530606692603931,-74,-5,0,-15,-5,3,-7,4
1530606692615900,-46,-1,-3,22,8,-9,6,-2
1530606692615900,27,-11,-4,-10,-8,2,10,-4
1530606692624875,31,12,3,11,7,-18,-31,1
1530606692624875,-32,-11,-2,-11,-10,23,-1,-2
1530606692639835,29,7,0,-6,2,-26,-1,-6
1530606692639835,-8,-13,-2,11,-4,39,1,-3
1530606692641830,-40,-5,-4,-9,-5,-30,16,1
1530606692641830,5,6,3,8,3,-3,9,5
1530606692662774,8,1,-1,7,16,2,-12,-5
1530606692662774,-64,-14,-4,-19,-20,-10,-2,-3
1530606692663771,-30,6,-2,-8,-10,-1,-4,-14
1530606692663771,12,12,3,7,4,-7,5,-4
1530606692675739,32,4,-1,1,-4,17,6,9
1530606692675739,46,4,0,-1,3,-14,-2,-2
1530606692684715,-23,-14,-2,0,4,11,-1,7
1530606692684715,10,-5,-4,-4,-5,-9,-1,-16
1530606692699675,-29,-15,-5,2,-1,7,-1,-3
1530606692699675,17,3,-2,-5,-2,-11,-1,-1
1530606692701670,-5,7,5,3,1,8,1,-2
1530606692701670,4,1,-1,-6,-5,-8,-1,-1
1530606692722614,22,-3,-1,1,0,0,-5,-4
1530606692722614,6,-3,-2,4,-1,-3,0,3
1530606692724608,6,3,0,0,-4,-14,5,8
1530606692724608,-51,-12,-6,-11,1,10,-5,-5
1530606692736576,3,10,3,15,10,1,-1,-7
1530606692736576,93,14,4,1,1,-23,-1,12
1530606692745552,-42,8,-3,-4,-4,28,12,-18
1530606692745552,-4,-17,-1,9,0,-7,-1,15
1530606692760512,28,-9,-7,-10,-2,1,-6,6
1530606692760512,8,17,3,-9,-8,9,3,11
1530606692761510,-11,-9,-2,4,0,-15,-7,-13
1530606692761510,13,8,0,10,6,-4,19,2
1530606692782454,-16,-11,-2,-3,-7,5,-24,-12
1530606692782454,-24,3,-1,0,3,-10,0,4
1530606692784449,15,10,-1,-7,-4,2,0,9
1530606692784449,11,-14,-4,-7,-1,-4,0,-4
1530606692796416,43,1,5,8,2,3,9,15
1530606692796416,23,-6,-2,-6,-3,4,0,-3
1530606692805392,-80,-14,-5,2,-1,-22,-10,-16
1530606692805392,5,-1,0,-2,-2,0,2,2
1530606692827333,19,11,3,-1,-4,1,4,6
1530606692827333,7,-13,-4,-3,5,-2,-3,-4
1530606692829328,10,-5,2,0,-1,15,8,16
1530606692829328,-2,11,1,-2,4,-10,-9,-9
1530606692842294,-30,5,-1,0,8,2,3,-4
1530606692842294,-20,-4,0,1,-14,6,-3,-3
1530606692844288,5,-1,-5,-8,1,-1,-3,-6
1530606692844288,5,-11,-4,-1,0,-3,-5,2
1530606692856263,-38,-21,-8,0,-7,3,-2,-13
1530606692856263,22,27,3,5,-5,-7,0,-5
1530606692865233,-55,10,10,-2,-5,-3,-4,-15
1530606692865233,-7,-14,-5,0,14,3,-2,6
1530606692880192,5,12,-8,-9,-3,-3,4,-9
1530606692880192,6,-42,-4,0,8,5,5,14
1530606692881190,22,32,8,-1,-11,2,-2,15
