timestamp,emg1,emg2,emg3,emg4,emg5,emg6,emg7,emg8
1522653436997959,11,3,1,-11,-6,-15,2,9
1522653436997959,-5,0,0,8,11,27,12,-2
1522653436997959,-11,-1,1,10,2,19,4,-18
1522653436997959,63,0,-2,-4,-1,-17,-3,17
1522653436998962,-17,-8,-7,-10,-4,10,3,10
1522653436998962,-62,-3,1,0,-7,-13,-9,-17
1522653437002972,27,4,3,6,-1,-16,-2,4
1522653437002972,-11,0,3,2,3,-17,-6,-10
1522653437008989,-10,3,3,-5,2,18,3,-5
1522653437008989,14,-3,-3,-4,-2,-35,-14,-10
1522653437018018,20,-4,-8,3,-6,9,-5,12
1522653437018018,-11,4,1,1,-16,0,-5,-5
1522653437026034,-22,-3,-1,-5,5,-51,-17,-5
1522653437026034,1,0,2,4,11,36,1,-2
1522653437040072,-24,1,5,2,-5,33,8,-12
1522653437040072,0,0,0,-1,-6,-52,-12,11
1522653437049095,0,2,2,-5,8,44,9,9
1522653437049095,73,-4,-5,0,-7,-2,-8,-6
1522653437064135,-52,-10,-8,5,16,44,-3,-5
1522653437064135,-8,3,-2,-4,-9,-12,7,-3
1522653437071154,-4,1,4,-2,5,23,10,-3
1522653437071154,23,-3,-2,0,-6,-13,-14,7
1522653437084195,22,4,-3,-1,0,14,14,4
1522653437084195,-11,-5,-3,-2,-3,-10,-1,-10
1522653437126301,-41,-2,-4,3,-5,-23,-10,-17
1522653437126301,31,6,3,4,8,5,15,15
1522653437130311,-32,3,4,-6,26,104,21,1
1522653437130311,20,0,0,1,-8,-67,-5,10
1522653437131314,7,5,2,6,6,86,25,-2
1522653437131314,-58,-15,-6,5,-1,-20,-15,-12
1522653437131314,34,3,-2,-12,-9,-23,-10,14
1522653437131314,-8,0,3,-1,10,42,2,-11
1522653437136327,15,-2,-7,3,-1,-6,16,9
1522653437136327,-10,0,3,0,-15,-40,-6,-6
1522653437145351,-17,-3,-1,-6,0,-12,-7,1
1522653437145351,-7,-7,-8,-7,-2,-27,-23,-7
1522653437151367,10,-2,0,3,-6,32,8,-6
1522653437151367,4,1,0,-2,7,43,12,11
1522653437166408,-15,-3,-2,-9,-4,-50,12,2
1522653437166408,23,2,5,-1,-13,-8,7,-9
1522653437173426,-18,-6,-2,1,7,-8,-10,1
1522653437173426,3,5,-3,0,2,31,16,0
1522653437198493,16,2,4,-4,-5,-37,-28,8
1522653437198493,-25,1,-2,3,-7,-2,-22,-10
1522653437199495,21,-4,3,4,2,-10,4,-7
1522653437199495,-5,1,-2,-2,-3,9,-5,1
1522653437212530,-21,0,-2,-4,-1,4,7,2
1522653437212530,33,3,4,1,10,47,5,-2
1522653437212530,-6,-5,-6,0,-9,-50,-21,5
1522653437212530,-9,-3,-2,-6,-6,-25,-2,-9
1522653437234589,12,4,5,1,7,51,-6,-12
1522653437234589,-13,8,11,6,1,-14,6,7
1522653437235592,10,-3,-3,-2,2,-9,-13,-12
1522653437235592,15,3,-2,-4,-1,-31,-30,8
1522653437256647,10,-7,-4,-5,-12,-16,1,-8
1522653437256647,-31,-7,-8,-2,3,27,8,3
1522653437257650,15,0,-6,-3,11,23,-8,-12
1522653437257650,-3,-8,-5,-10,-29,-76,-16,-4
1522653437271687,-6,3,2,-1,6,39,8,3
1522653437271687,8,-4,-2,2,-3,-24,-4,-1
1522653437272690,-4,3,2,0,-5,9,3,5
1522653437272690,-20,-5,-5,-4,3,19,-2,-17
1522653437294749,2,-1,-5,-7,-4,23,4,15
1522653437294749,8,-5,-6,-5,-3,-29,14,0
1522653437295751,-12,2,5,6,-3,-4,-1,1
1522653437295751,27,8,6,1,8,28,-1,-12
1522653437317310,-18,-5,-3,-3,-1,-22,5,3
1522653437317310,-3,-3,-4,-4,6,27,-7,-8
1522653437318313,4,1,5,0,-1,23,9,10
1522653437318313,1,-3,-3,-3,1,-15,-2,-4
1522653437332351,-4,-12,-14,-10,-17,0,0,0
1522653437332351,13,-7,-9,-5,-1,-6,-5,0
1522653437332351,-11,3,5,6,9,-18,4,1
1522653437332351,2,1,1,1,-6,2,14,-1
1522653437354411,41,4,-2,2,2,-5,2,20
1522653437354411,-55,-4,-3,3,1,-20,-3,-7
1522653437355414,7,3,3,2,-8,1,-10,-16
1522653437355414,13,-1,-1,-1,-3,16,12,15
1522653437377472,-35,-4,4,5,15,-4,-5,-20
1522653437377472,27,0,-4,-5,-16,8,8,3
1522653437377472,38,-3,-4,-5,-2,-10,-1,12
1522653437377472,-6,-2,-2,0,0,14,-7,-13
1522653437392512,-23,-4,-1,0,-13,-25,-4,-6
1522653437392512,-44,-3,4,6,15,-11,-8,-20
1522653437392512,22,-1,-4,-4,-8,-7,3,3
1522653437392512,18,1,2,2,3,12,4,6
1522653437414570,-24,2,0,4,2,-12,-8,-14
1522653437414570,7,-1,0,5,6,20,0,1
1522653437415573,-8,-3,-7,-6,-8,-25,-7,4
1522653437415573,-32,4,2,-1,2,11,-1,4
1522653437437133,54,6,1,-3,-7,-52,-3,16
1522653437437133,6,-3,-2,1,-2,-17,1,-1
1522653437438137,-30,0,0,3,11,1,3,-10
1522653437438137,-5,1,-1,-3,-1,20,-10,-11
1522653437452174,8,-5,-3,-3,0,20,-5,-4
1522653437452174,16,3,-1,-3,-12,-35,-2,16
1522653437453176,6,5,4,2,2,-18,-2,-9
1522653437453176,-11,-3,-4,-1,0,-3,-3,1
1522653437474233,28,-7,-4,1,9,4,-8,-11
1522653437474233,5,4,2,-1,-7,79,8,17
1522653437482254,-36,-3,-2,0,-13,-48,2,-6
1522653437482254,13,4,3,0,-3,-34,-8,-5
1522653437497293,13,-2,-4,-3,13,66,5,13
1522653437497293,-8,1,2,5,2,32,5,-12
1522653437498296,-6,-1,0,0,6,3,-11,-2
1522653437498296,0,-2,-2,-4,-11,-18,0,-3
1522653437512334,19,-6,-3,-1,-3,11,6,1
1522653437512334,18,5,6,8,-5,-73,-9,-3
1522653437513336,-25,-1,-5,-3,-1,31,5,9
1522653437513336,-5,-2,-2,-5,-4,-15,-5,0
1522653437534392,7,3,4,3,-8,-32,-15,-5
1522653437534392,5,-1,0,1,5,2,3,3
1522653437535395,30,-4,-2,1,7,2,-5,1
1522653437535395,-9,2,3,-1,-13,34,22,0
1522653437558456,-48,-4,-1,-1,-4,-42,-9,-11
1522653437558456,27,1,-11,-11,-7,-6,3,15
1522653437559459,-6,2,4,3,-9,-25,-20,-9
1522653437559459,20,-1,2,2,10,1,0,15
1522653437571491,-63,-2,3,3,1,-33,-12,-27
1522653437571491,23,-6,-5,2,7,63,-4,-7
1522653437579512,28,4,-4,-9,-6,-16,17,16
1522653437579512,-4,-1,0,-2,-6,27,-1,7
1522653437594553,14,4,3,12,14,15,5,-2
1522653437594553,-14,-1,1,1,-1,-5,17,1
1522653437595555,-40,-6,-5,-3,-2,31,-8,-16
1522653437595555,58,3,1,-1,0,2,-17,1
1522653437616611,-34,3,-1,-3,-1,-6,28,7
1522653437616611,22,-2,-4,1,15,49,-7,-4
1522653437617614,-1,1,-4,-5,-18,-66,15,1
1522653437617614,-47,-5,-2,-5,4,-26,-9,-9
1522653437631651,8,0,-1,-1,-11,29,24,4
1522653437631651,-10,3,1,1,8,-17,-5,2
1522653437638670,41,1,1,2,6,30,15,-2
1522653437638670,-22,0,-2,1,9,9,-17,1
1522653437654712,4,0,-1,-5,-3,-32,-15,5
1522653437654712,-37,-8,-4,-8,-12,39,4,-8
1522653437655715,4,1,2,4,3,1,-14,-6
1522653437655715,24,2,-1,-2,13,-3,18,12
1522653437676771,15,1,5,2,-15,-45,-33,-5
1522653437676771,-72,-9,-4,-5,-2,-9,8,-11
1522653437677774,40,2,-2,1,3,17,-20,10
1522653437677774,31,3,-2,-4,1,1,20,9
1522653437691811,-38,0,-1,-1,1,-6,-30,-7
1522653437691811,-31,-1,1,1,0,5,7,-3
1522653437698829,23,-1,-3,-4,-16,-36,-2,-2
1522653437698829,-17,0,2,0,16,40,-10,-11
1522653437714875,14,0,-2,-4,9,33,37,5
1522653437714875,-14,4,4,-2,-14,-32,-23,-5
1522653437714875,17,-3,0,-1,7,35,1,-3
1522653437714875,16,0,-5,-5,-11,-50,-7,8
1522653437736931,28,-6,-6,-2,9,71,11,-3
1522653437736931,-32,-4,-2,1,3,-13,31,3
1522653437737934,-28,-2,-2,-4,-9,-20,-17,-7
1522653437737934,17,-2,-3,-3,9,31,-9,-9
1522653437750968,-20,-7,-4,-4,-18,-45,19,5
1522653437750968,27,3,3,4,9,7,-7,-4
1522653437758989,-5,-2,0,1,0,30,0,3
1522653437758989,-3,0,-1,1,4,27,26,14
1522653437775032,-14,4,1,-2,4,18,-6,-5
1522653437775032,34,6,0,-3,-9,-23,-12,2
1522653437775032,-47,-3,0,-2,-1,5,-6,-13
1522653437775032,-5,-9,-4,-2,-2,-28,-19,-4
1522653437797091,-14,-1,5,3,0,17,9,3
1522653437797091,39,1,-7,0,5,-6,-1,1
1522653437798094,-36,-5,0,-2,-5,10,13,-4
1522653437798094,18,1,-2,-6,-3,-17,-5,7
1522653437811128,17,1,0,-1,-4,-13,-8,-2
1522653437811128,18,3,5,2,-4,13,3,-3
1522653437819149,-11,1,3,2,9,5,-7,-2
1522653437819149,-24,-8,-2,-3,-5,10,17,-4
1522653437834190,9,0,-2,-1,-4,-42,-15,-3
1522653437834190,-31,-1,0,-3,-7,11,-9,-11
1522653437835193,18,0,-4,0,6,-14,0,15
1522653437835193,-15,-2,3,-3,-6,-6,0,-1
1522653437857251,11,-5,-4,-1,2,22,1,-5
1522653437857251,4,-10,-7,-6,-6,-4,-3,3
1522653437858254,34,13,7,4,2,7,11,20
1522653437858254,-38,-8,-5,3,-5,-13,-4,-20
1522653437871288,-43,2,4,6,4,28,10,-6
1522653437871288,17,0,-6,-2,-2,-20,-11,0
1522653437879309,10,1,0,-2,-4,20,9,4
1522653437879309,-17,0,3,-1,-6,-20,-4,-7
1522653437894350,21,-2,0,2,1,-7,4,2
1522653437894350,23,1,3,2,-7,-12,1,0
1522653437895352,11,-9,-9,-4,0,10,-7,9
1522653437895352,6,1,1,2,2,-4,6,2
1522653437917411,-27,-3,0,0,1,-4,-5,-11
1522653437917411,-15,0,4,3,4,3,2,-15
1522653437917411,18,-6,-9,-10,-13,16,-8,11
1522653437917411,-2,-2,-2,2,1,-12,2,2
1522653437931449,25,3,0,0,-5,8,-1,-1
1522653437931449,-29,-5,-1,3,7,12,0,-1
1522653437938467,34,6,2,-1,-15,-17,6,6
1522653437938467,-13,2,3,1,-1,12,1,0
1522653437954511,24,0,-2,0,4,-19,0,2
1522653437954511,-11,2,1,3,2,0,-2,-12
1522653437955515,-11,2,-1,-3,-7,-8,-3,-6
1522653437955515,-3,-5,-3,-1,22,14,9,15
1522653437977571,5,3,-1,1,-9,4,0,13
1522653437977571,21,-3,-2,1,10,-23,-12,-2
1522653437977571,-13,-2,-1,-2,12,20,6,3
1522653437977571,-12,-2,0,-2,-12,-7,-13,-21
1522653437999630,15,4,2,3,11,14,-2,-7
1522653437999630,-8,3,1,-3,-7,-27,-2,10
1522653438000636,-20,-8,-5,-4,3,31,-8,-6
1522653438000636,4,4,3,3,-21,-6,12,2
1522653438014669,-4,-8,-3,4,10,-5,-9,-9
1522653438014669,54,8,3,1,-6,12,1,17
1522653438015672,-73,-9,0,-2,-2,-51,-15,-25
1522653438015672,47,6,-1,-2,10,36,16,18
1522653438036728,24,4,1,1,-15,21,0,7
1522653438036728,-19,-4,-3,2,10,20,3,6
1522653438037731,-18,7,7,6,-11,-51,-1,0
1522653438037731,4,-5,-6,-2,6,-6,-4,1
1522653438059789,-32,-3,0,-1,-6,-12,-3,-8
1522653438059789,20,3,2,2,4,7,0,-1
1522653438060792,7,3,1,2,5,-3,5,-3
1522653438060792,-25,0,-1,-3,3,14,-9,-7
1522653438074830,32,-4,-6,-9,-7,-15,-4,11
1522653438074830,-25,-4,0,-1,-19,-43,-3,-6
1522653438075832,-3,-1,-4,-4,5,11,3,4
1522653438075832,-1,2,-1,-1,1,8,8,2
1522653438096888,42,1,0,-1,5,-11,-9,-9
1522653438096888,-52,-11,-8,-3,6,1,-8,-9
1522653438097891,16,-1,0,-1,-13,4,1,-9
1522653438097891,7,-6,-1,-3,-7,-2,-5,-1
1522653438119949,22,0,-7,-2,-2,17,2,13
1522653438119949,36,1,1,1,8,-6,14,6
1522653438119949,-29,-4,-1,-3,-4,12,-3,-15
1522653438119949,7,-1,0,-2,-9,-49,-10,5
1522653438143011,-80,-3,2,5,0,3,-6,-12
1522653438143011,49,3,-4,-5,-24,30,-1,1
1522653438144014,12,-6,1,6,15,8,-32,-11
1522653438144014,6,2,2,-8,-1,-37,10,16
1522653438156045,-18,-6,0,6,-6,-41,-1,-4
1522653438156045,-9,0,-4,0,0,50,6,-1
1522653438165070,-27,3,0,-1,17,17,10,-4
1522653438165070,-2,-6,-5,-8,-16,-52,-9,-4
1522653438180110,39,1,-3,-1,14,54,17,9
1522653438180110,-42,-3,6,5,-1,-46,7,-9
1522653438180110,11,2,-1,2,2,16,10,9
1522653438180110,14,5,1,1,6,-1,-11,-9
1522653438203171,-37,-10,-5,-8,0,64,4,-1
1522653438203171,6,3,-1,1,-1,0,9,5
1522653438203171,-2,0,2,-3,0,-16,6,0
1522653438203171,31,2,-4,-1,-3,32,4,6
1522653438216206,9,-1,-3,-3,-3,-28,-11,-4
1522653438216206,10,7,4,3,-2,-3,-8,-2
1522653438224227,-2,-9,-7,-3,4,-6,-18,-2
1522653438224227,4,-3,-5,-9,2,24,-19,-1
1522653438239267,-33,2,-1,-1,-16,-93,-23,-7
1522653438239267,-3,-3,-1,3,6,8,-11,2
1522653438240269,7,7,9,-2,-2,-13,22,3
1522653438240269,45,4,3,0,12,57,5,6
1522653438262328,2,0,-3,0,-13,-39,8,-3
1522653438262328,-24,-6,-5,-6,-2,-18,-21,-9
1522653438263331,-5,4,6,2,0,16,28,5
1522653438263331,-43,-5,3,2,10,21,-1,-4
1522653438276365,8,1,1,1,-7,-32,5,-2
1522653438276365,11,-5,-6,-6,-2,21,8,-5
1522653438284387,10,3,-1,-3,0,11,12,6
1522653438284387,-2,-1,-3,-2,1,-31,-17,3
1522653438299427,5,6,9,2,5,17,4,5
1522653438299427,4,1,-1,-2,-5,-10,-6,-3
1522653438300433,-7,-1,-4,-2,4,-6,-11,1
1522653438300433,11,-1,-2,-1,-13,5,5,-9
1522653438322488,-67,-4,0,-2,6,20,-1,-11
1522653438322488,55,0,-1,1,5,16,0,15
1522653438323491,2,2,1,-2,-17,-27,-2,2
1522653438323491,-15,-4,-4,-3,-2,-9,-7,1
1522653438336525,33,2,0,1,4,9,5,-6
1522653438336525,-10,-1,0,-1,-4,-19,-2,-5
1522653438344547,-3,-3,2,4,12,23,-10,-12
1522653438344547,-12,-2,-6,-7,-10,20,18,7
1522653438359587,15,-4,-4,2,-5,-29,-11,-1
1522653438359587,-30,0,1,-2,-2,-9,-2,-3
1522653438360590,21,-3,-3,-7,-13,-8,-11,1
1522653438360590,-32,-6,-3,1,7,20,6,-8
1522653438382648,32,0,-3,-3,3,29,5,13
1522653438382648,-33,0,-7,-6,-7,-26,-3,0
1522653438383654,5,0,1,-2,-5,-6,-4,5
1522653438383654,11,1,0,1,0,5,3,-13
1522653438405710,-21,-2,2,3,0,10,3,-8
1522653438405710,-49,-8,-4,0,5,17,-5,-29
1522653438405710,61,6,2,-1,6,11,25,51
1522653438405710,-14,-11,-7,1,-8,-22,-8,-2
1522653438419747,3,5,8,9,6,-2,2,-10
1522653438419747,3,3,1,-2,-10,20,7,-9
1522653438420750,-27,-5,-5,-5,-2,-34,-12,-4
1522653438420750,-8,8,4,5,3,13,5,-1
1522653438442808,25,1,2,5,-3,0,0,1
1522653438442808,6,-5,-1,2,15,-22,3,6
1522653438443811,-41,-5,-4,-1,-6,4,-9,-34
1522653438443811,7,2,4,2,-2,-18,-1,23
1522653438464867,46,-5,-7,-2,-6,16,-4,8
1522653438464867,-7,-2,0,-2,-5,-17,-4,2
1522653438465870,-8,1,-3,-1,6,29,4,-11
1522653438465870,-26,1,4,4,-3,-30,-5,-15
1522653438479907,-26,-1,-1,-2,5,-10,-17,-21
1522653438479907,66,6,4,0,4,44,15,32
1522653438479907,-34,-7,-4,1,6,6,2,-2
1522653438479907,-20,-1,1,3,-1,-10,-13,-15
1522653438502968,0,-1,0,-4,-6,-15,-4,-6
1522653438502968,26,-4,-4,-3,8,-1,-8,9
1522653438503971,-2,-3,-1,-1,4,18,-4,-13
1522653438503971,-20,8,6,3,2,-30,2,4
1522653438525027,4,2,-2,0,-1,-2,-1,11
1522653438525027,-2,3,1,-2,-9,-76,-11,-11
1522653438526030,30,1,2,1,5,82,22,19
1522653438526030,-42,-9,-3,2,8,-10,-16,-16
1522653438539064,50,-1,-3,2,6,-14,0,14
1522653438539064,-12,3,3,4,-17,4,-2,-11
1522653438540066,-8,2,-2,-2,3,-24,-9,11
1522653438540066,5,3,-1,-2,-6,21,-5,-11
1522653438563128,-18,-6,-5,-3,-21,-18,2,14
1522653438563128,10,-2,-7,1,3,-42,-18,-12
1522653438563128,1,-4,1,-2,-14,-14,-9,-7
1522653438563128,16,-8,-5,-4,7,35,8,1
1522653438585187,-11,1,-2,0,-4,-14,-4,-6
1522653438585187,-15,1,6,10,3,49,-5,4
1522653438586190,-14,-1,-1,1,-4,-53,1,-8
1522653438586190,12,2,2,2,4,4,1,-2
1522653438599224,1,-2,-3,-8,-3,52,14,8
1522653438599224,-1,2,0,-4,-9,-63,-23,-6
1522653438600227,18,-3,-4,-3,15,6,-3,7
1522653438600227,26,3,1,-1,1,42,5,0
1522653438623288,-26,0,3,1,-2,-22,1,-10
1522653438623288,-14,-2,5,7,8,36,20,1
1522653438623288,-11,0,-2,-5,-7,2,13,2
1522653438623288,28,-2,-6,-4,-4,-28,4,3
1522653438645347,15,-3,1,4,3,33,-4,-6
1522653438645347,-4,7,2,2,8,22,-2,3
1522653438646350,-65,-11,-4,0,-4,-11,-8,-10
1522653438646350,30,5,-5,-7,-2,23,12,9
1522653438659384,-20,-6,-6,0,-14,-39,-17,-8
1522653438659384,-10,0,2,2,6,-18,2,-2
1522653438660387,21,-3,-6,-8,-15,11,2,-2
1522653438660387,5,-4,-1,3,2,11,-6,1
1522653438682445,11,3,0,-1,2,26,-10,-2
1522653438682445,-18,-1,-2,-5,-7,9,33,1
1522653438683448,15,5,1,2,2,-20,-3,1
1522653438683448,-28,-7,-2,-5,-1,-21,-17,2
1522653438705507,10,3,4,8,-1,21,-1,-3
1522653438705507,-43,-11,-4,-9,-8,16,-10,-16
1522653438706509,69,7,-2,-2,-3,11,8,21
1522653438706509,18,6,6,4,-1,-30,-43,-10
1522653438719544,-43,-7,-4,2,15,16,52,4
1522653438719544,32,-4,-12,-13,-11,21,-6,0
1522653438720547,-16,-4,1,-5,2,-9,-15,-9
1522653438720547,-33,-2,2,1,1,-2,6,-6
1522653438742605,-5,3,0,-6,4,-1,-11,4
1522653438742605,58,4,0,-2,-8,-8,5,16
1522653438743608,-7,3,3,-2,-4,22,9,0
1522653438743608,-6,-5,-7,-5,-5,-103,-13,-5
1522653438765667,-53,-4,-1,3,8,49,9,-6
1522653438765667,-15,3,1,2,0,-6,-4,-8
1522653438765667,20,0,-2,-6,-7,-36,-20,3
1522653438765667,-13,2,0,-2,7,40,44,3
1522653438779704,29,1,3,-2,-5,-8,-9,0
1522653438779704,-12,-4,-2,0,2,-3,-12,-6
1522653438780707,25,6,0,-3,1,-7,-13,5
1522653438780707,-6,-3,0,4,-1,20,2,-13
1522653438801763,-1,3,4,-2,-10,-45,-10,-5
1522653438801763,-4,-4,-8,-6,2,33,10,2
1522653438802765,-33,-6,-1,-2,1,-16,-5,-3
1522653438802765,35,1,0,-1,-9,-5,-24,-7
1522653438824824,-5,-4,-5,-2,7,4,14,3
1522653438824824,-8,7,4,1,-13,-35,-7,7
1522653438825827,-6,-6,-4,-1,10,39,-4,-3
1522653438825827,-28,-1,-2,0,4,-16,-2,-3
1522653438839864,30,-2,-7,-6,-10,-15,-18,-2
1522653438839864,23,-5,3,4,4,13,-3,4
1522653438840867,3,2,4,-1,0,-6,10,-1
1522653438840867,-53,-13,-10,-5,4,25,6,6
1522653438861923,-9,2,2,2,-3,-4,-3,-15
1522653438861923,1,-1,-1,-2,-1,0,12,10
1522653438862925,28,0,0,-4,1,1,-4,7
1522653438862925,26,-2,-1,-5,-9,-11,-10,3
1522653438884984,11,-1,2,0,-7,-5,-8,-5
1522653438884984,-32,-1,2,0,9,25,12,4
1522653438885987,-21,2,2,2,6,-4,-1,-5
1522653438885987,8,-4,1,2,-2,13,5,-6
1522653438899021,-7,-2,-9,-6,-4,-7,0,-4
1522653438899021,16,-2,-6,-2,2,6,-3,-5
1522653438907042,-3,1,3,1,-4,2,3,3
1522653438907042,17,-2,-3,0,0,11,8,11
1522653438922083,10,0,2,1,-6,-11,-3,-3
1522653438922083,25,2,0,-1,3,9,7,8
1522653438923085,-19,0,-2,-3,-2,-20,-4,0
1522653438923085,-32,-1,4,2,-4,3,13,2
1522653438945144,-31,-11,-8,-2,10,27,-1,-22
1522653438945144,50,3,0,2,-7,-28,-3,23
1522653438946147,-6,2,-1,1,1,-19,7,-4
1522653438946147,16,0,-1,6,-6,0,3,2
1522653438959181,-27,3,4,2,0,-3,1,-14
1522653438959181,-10,-2,0,-3,4,0,-3,13
1522653438960184,-41,-3,-5,1,-6,14,5,-17
1522653438960184,16,4,2,5,4,-10,-13,-6
1522653438982243,-8,-2,1,1,-2,1,5,7
1522653438982243,22,1,1,-1,-3,-16,-9,-6
1522653438983245,4,2,3,-2,-4,-9,-3,10
1522653438983245,13,1,0,-2,2,-6,1,0
1522653439005304,-6,2,0,2,3,8,-5,1
1522653439005304,-11,-2,-2,-3,-11,-4,-5,-6
1522653439006307,4,-10,-9,-6,-10,-65,-11,-7
1522653439006307,-25,5,2,7,10,22,5,-15
1522653439019341,29,-2,0,2,-1,-16,-7,12
1522653439019341,-16,-5,-9,-3,-6,-11,-6,-11
1522653439020344,21,3,2,0,3,16,3,9
1522653439020344,4,-7,-6,-6,-4,17,-1,0
1522653439042403,-16,-1,3,3,-2,-32,0,8
1522653439042403,-21,0,2,-2,2,18,6,-8
1522653439043405,-18,2,0,-1,-1,18,-1,-10
1522653439043405,-13,-7,-2,-2,-6,-25,-4,0
1522653439065464,36,2,1,2,3,44,-3,0
1522653439065464,-5,-4,-4,1,10,-17,-5,1
1522653439066467,-17,0,1,-2,-7,-17,-8,-4
1522653439066467,14,2,-3,0,11,16,-3,6
1522653439078499,-11,-3,1,5,1,-14,-4,-5
1522653439078499,5,6,5,2,-5,23,-1,-6
1522653439087523,-12,-2,2,1,-15,-79,12,5
1522653439087523,-27,-4,0,2,-6,1,-1,-11
1522653439102563,54,2,-5,-9,-10,-4,-3,16
1522653439102563,-13,-7,-7,-2,8,19,1,-7
1522653439102563,13,2,-1,4,9,4,-8,1
1522653439102563,-54,-2,0,1,-5,3,0,-9
1522653439125624,26,8,4,1,-8,-34,-4,-2
1522653439125624,-32,-2,3,1,23,66,-7,0
1522653439125624,32,-6,-7,-9,-12,26,12,13
1522653439125624,23,2,4,7,-4,-34,-24,-7
1522653439138659,-20,-3,-3,4,2,7,29,1
1522653439138659,13,4,2,-1,-6,-22,-2,-3
1522653439146680,-12,0,1,-1,21,73,-14,1
1522653439146680,23,-3,-6,-8,-13,-77,12,12
1522653439161720,-28,0,2,4,0,35,1,-11
1522653439161720,-27,-1,2,2,-6,-22,3,-1
1522653439162723,17,-1,2,2,4,34,-8,-6
1522653439162723,22,2,-4,-4,6,48,11,5
1522653439184781,28,1,0,0,-4,-30,6,5
1522653439184781,-7,-8,-5,-3,-2,-3,9,0
1522653439185784,-4,-2,1,-2,-1,-40,-21,-9
1522653439185784,-24,-6,-7,-8,-2,40,3,-5
1522653439198819,1,-2,-4,-1,6,78,-6,-1
1522653439198819,-13,-2,3,2,-10,-72,12,7
1522653439206840,-26,-3,-6,-10,0,-4,10,-7
1522653439206840,21,1,5,4,3,7,1,3
1522653439221880,-6,-3,-3,3,12,-10,-7,-4
1522653439221880,-6,-3,3,2,-14,-5,9,-14
1522653439222883,10,0,-9,-7,2,9,-8,12
1522653439222883,35,2,-7,-9,-9,-12,-6,-1
1522653439244941,-61,-6,2,3,14,-8,-23,-2
1522653439244941,26,7,0,-4,-13,47,18,-6
1522653439245944,-32,-1,6,4,11,16,-19,-5
1522653439245944,3,-5,-4,-5,-3,-6,35,1
1522653439258979,39,7,2,5,-10,-7,-1,5
1522653439258979,24,-2,-2,-4,4,-7,-25,0
1522653439267000,-38,4,5,-1,3,17,23,-4
1522653439267000,34,8,8,5,-2,7,1,5
1522653439282040,-37,-10,-4,-6,-7,-36,-6,4
1522653439282040,14,2,2,3,9,20,0,-10
1522653439283043,-12,-3,2,-2,-4,-49,-4,-2
1522653439283043,35,5,-1,-2,-14,41,16,8
1522653439305101,-36,1,-3,-2,0,16,24,3
1522653439305101,31,1,1,-2,-1,-44,-37,2
1522653439306104,-36,-3,-2,-2,8,28,-12,-4
1522653439306104,21,-5,-1,1,-5,-18,17,0
1522653439319139,-12,1,1,-7,6,11,-11,-8
1522653439319139,-42,-2,1,0,3,-1,-4,-10
1522653439327160,48,3,-1,-3,-6,-9,-6,3
1522653439327160,-13,-10,-8,-1,2,34,-17,-10
1522653439342200,11,0,-3,-4,-2,8,-6,4
1522653439342200,0,1,-1,-1,3,-9,-3,4
1522653439343203,-28,-4,-5,-5,-5,-7,17,-5
1522653439343203,16,9,5,7,11,-2,-14,6
1522653439365261,16,1,3,-1,-6,-23,-11,1
1522653439365261,-56,0,1,-1,-9,-50,1,2
1522653439366264,29,3,4,3,-4,18,15,6
1522653439366264,-32,-9,-6,-1,-1,-17,-16,-7
1522653439379299,11,1,0,-1,-1,-10,-3,0
1522653439379299,20,6,1,1,-5,31,-5,11
1522653439387320,5,-1,-1,0,-3,-7,1,-8
1522653439387320,-3,1,4,2,7,-4,-6,8
1522653439402360,10,-3,-3,-3,-8,-18,1,-5
1522653439402360,-14,-1,-4,-7,0,4,-9,-3
1522653439403363,38,-9,-11,-3,-2,17,11,10
1522653439403363,-60,-1,6,1,-3,-7,-7,-18
1522653439425421,33,-1,-4,-4,7,-12,-13,2
1522653439425421,17,0,0,-1,-2,13,12,5
1522653439426424,-23,4,6,0,-4,-1,-6,-3
1522653439426424,14,0,-4,0,-3,-26,-8,-1
1522653439447480,-15,-4,-1,-3,-12,-1,4,-4
1522653439447480,-13,-5,-5,-2,9,6,3,0
1522653439448483,19,5,1,0,0,-12,-2,7
1522653439448483,25,-4,1,1,4,15,0,-3
1522653439462520,-7,0,-2,-3,-5,-4,7,14
1522653439462520,13,2,1,-3,1,-1,8,2
1522653439462520,-30,-6,-3,-4,-11,-1,-2,-12
1522653439462520,4,-2,-3,-1,14,-7,5,2
1522653439485581,-3,-4,-3,5,-6,13,-1,-3
1522653439485581,18,1,-3,-3,1,-9,0,-7
1522653439486584,27,0,3,1,-5,5,4,9
1522653439486584,-41,-9,-10,-3,-8,8,-5,0
1522653439507640,2,1,0,4,4,-10,10,3
1522653439507640,13,1,-1,3,-1,-6,-1,8
1522653439508643,-8,-1,-1,-2,-6,-1,-6,-16
1522653439508643,26,2,1,2,2,8,2,6
1522653439521677,-11,-3,-6,-6,-14,-20,-8,-6
1522653439521677,7,-3,-3,-1,1,-15,1,2
1522653439522680,-43,-4,-3,2,5,-18,-6,-12
1522653439522680,9,3,0,0,-4,0,-3,-5
1522653439545741,22,11,6,1,2,-16,-4,9
1522653439545741,-31,-5,3,2,7,15,1,-7
1522653439545741,29,-3,0,3,8,-6,-2,-1
1522653439545741,-19,-2,-4,0,-7,-11,-7,-4
1522653439567800,15,-1,-2,-2,-8,9,1,7
1522653439567800,-11,-6,-4,-2,-10,2,-12,-15
1522653439568803,18,3,-3,0,12,-26,9,17
1522653439568803,-31,3,6,6,-14,-24,0,-11
1522653439581837,-11,-3,1,2,12,3,-7,-13
1522653439581837,20,0,-1,-4,1,0,9,22
1522653439582840,-20,-3,0,1,7,69,10,-16
1522653439582840,49,0,-9,-6,-8,-63,-24,9
1522653439604899,-16,-7,1,2,-3,-3,17,7
1522653439604899,-2,3,-1,-1,8,20,-5,-11
1522653439605901,-1,-5,-1,-2,-16,-11,-6,3
1522653439605901,-16,-1,1,2,8,14,5,-3
1522653439627960,18,4,-2,-4,2,21,-1,-6
1522653439627960,-3,-1,-1,-2,-7,-44,-8,5
1522653439628963,11,-4,-4,2,5,8,-1,-3
1522653439628963,33,5,1,0,-2,0,13,8
1522653439641997,-55,-6,1,3,4,-1,-11,-20
1522653439641997,4,-4,-3,1,-9,36,22,11
1522653439643000,2,6,7,0,-9,9,-19,-7
1522653439643000,-7,-3,-4,-3,-3,-36,2,5
1522653439665058,8,4,4,-2,-1,-41,-5,-9
1522653439665058,-6,1,3,6,-2,104,17,4
1522653439666062,-26,-2,0,5,12,-54,-10,-14
1522653439666062,2,-5,-3,-4,-5,15,2,1
1522653439688120,37,4,-10,-1,5,11,-1,15
1522653439688120,-20,-1,0,-10,-17,-22,-4,-2
1522653439688120,-8,2,0,-2,6,6,-1,-4
1522653439688120,-22,0,3,3,0,-13,7,2
1522653439702157,58,0,-5,-7,-13,-21,-8,10
1522653439702157,-11,2,2,2,14,-7,-6,-1
1522653439703160,-5,-4,-3,-3,0,-29,-6,4
1522653439703160,-25,4,6,3,-3,-19,-7,-16
1522653439725219,-17,-6,-1,1,1,75,10,-2
1522653439725219,17,0,-5,-6,2,-5,-7,-8
1522653439726221,5,-2,3,3,1,34,4,-2
1522653439726221,5,2,-2,1,-10,-40,-14,3
1522653439748280,4,-5,-3,-2,4,12,-10,-1
1522653439748280,8,-2,0,-3,4,30,2,-3
1522653439748280,17,5,0,2,-10,-29,-4,8
1522653439748280,-67,-10,1,1,17,79,24,-12
1522653439762317,-30,2,4,-1,-5,-29,-14,0
1522653439762317,2,1,-7,-14,-15,0,13,-3
1522653439763320,28,-3,-14,-29,-29,-5,-15,11
1522653439763320,61,11,22,24,16,44,14,-8
1522653439785379,-55,-9,-6,10,-19,12,2,-15
1522653439785379,-39,-2,2,21,1,-71,-33,5
1522653439786381,6,-16,-17,-7,-6,-72,-15,-12
1522653439786381,44,1,-4,-8,-1,63,21,5
1522653439807437,-9,0,0,-10,-1,0,7,-10
1522653439807437,-25,3,4,-2,-2,-26,-10,-5
1522653439808440,66,2,-7,-14,-5,5,-13,7
1522653439808440,-73,-4,2,-5,4,4,-6,2
1522653439822477,35,0,-2,1,11,-8,-14,-4
1522653439822477,26,4,0,-4,-9,-24,34,15
1522653439822477,-10,1,7,7,4,15,11,3
1522653439822477,-16,-2,-2,3,7,8,-8,-5
1522653439845538,-16,-3,3,1,-1,21,-8,-11
1522653439845538,19,-4,-7,-6,2,-14,-3,6
1522653439846541,-19,-3,5,5,6,40,20,-2
1522653439846541,26,3,-5,-5,-8,14,11,0
1522653439867597,-15,0,2,-4,0,-42,3,5
1522653439867597,-6,-8,-8,-9,7,-2,-16,-2
1522653439868600,15,1,2,11,4,66,50,11
1522653439868600,-16,-5,-7,-7,0,-29,-53,-12
1522653439882637,0,2,3,8,-10,22,20,-3
1522653439882637,16,6,11,1,10,13,8,-10
1522653439882637,-18,-12,-13,-6,0,14,-4,2
1522653439882637,17,-2,-8,-5,-7,-10,-20,-1
1522653439905698,-17,4,1,0,1,-19,-2,-2
1522653439905698,4,-1,2,-1,-5,-8,-25,-3
1522653439905698,-1,-1,2,-2,-2,-9,15,-1
1522653439905698,-21,-6,0,3,7,1,14,4
1522653439927757,70,4,-4,-6,5,-2,-4,5
1522653439927757,-26,-5,-4,-1,-4,12,14,9
1522653439928760,-3,10,4,-1,3,7,-28,-6
1522653439928760,-71,-2,4,3,-7,-45,1,-18
1522653439941794,45,0,-4,-2,5,10,15,15
1522653439941794,12,1,-2,-2,4,33,3,5
1522653439942797,-5,2,3,1,4,-34,-17,2
1522653439942797,-2,3,2,-1,-10,15,-4,-14
1522653439964856,-15,-1,5,1,-2,-21,7,-11
1522653439964856,6,-6,-7,-7,-5,6,9,18
1522653439965859,5,5,5,6,8,11,-20,-13
1522653439965859,-13,-4,-5,1,-1,10,4,5
1522653439987917,-4,3,-1,-5,-20,-57,-3,7
1522653439987917,23,2,4,4,13,28,14,-9
1522653439988920,-3,-6,-6,-4,-15,-29,-12,5
1522653439988920,38,-3,4,3,3,22,-1,-8
1522653440000952,-74,-5,-5,-1,-19,-60,-13,-9
1522653440000952,35,3,4,4,-1,4,-11,-7
1522653440009976,-13,-2,-5,-5,0,23,2,2
1522653440009976,24,1,-1,0,2,23,8,0
1522653440025016,-25,-3,2,-2,-1,-19,-15,-19
1522653440025016,6,4,2,-4,2,-31,-7,7
1522653440025016,-14,-1,2,7,-1,2,14,1
1522653440025016,-9,3,-1,0,-4,-40,-6,7
1522653440048077,42,2,3,2,14,63,11,-2
1522653440048077,-103,-3,2,2,-2,4,-1,-26
1522653440049080,113,-6,-8,-5,5,5,12,35
1522653440049080,-43,-2,-1,1,-6,-22,2,-5
1522653440061112,-27,-1,2,4,6,2,6,2
1522653440061112,-8,3,3,2,10,38,-3,-19
1522653440069133,-21,-5,-2,-4,-13,-45,7,25
1522653440069133,44,1,-1,0,-4,-30,-3,6
1522653440084173,0,-13,-12,-4,1,-13,8,15
1522653440084173,22,-1,1,1,-8,-9,-9,-1
1522653440085176,-64,-3,-1,1,10,44,6,-17
1522653440085176,-15,-2,0,4,-9,-13,-9,-18
1522653440108237,75,0,-6,-10,-10,30,-1,29
1522653440108237,-46,-5,-4,0,2,-49,-9,-14
1522653440108237,-31,2,3,5,8,-1,2,-3
1522653440108237,48,3,-1,-1,3,3,0,15
1522653440121272,-20,-3,2,4,10,41,-1,-19
1522653440121272,-6,0,-4,-8,-15,2,4,15
1522653440129293,4,-2,0,-2,-9,-20,-12,-17
1522653440129293,-22,-5,-5,-3,7,-34,-4,3
1522653440144333,7,6,4,3,-6,9,4,-1
1522653440144333,-18,-5,1,-2,-1,0,-4,-16
1522653440145336,-2,2,0,4,4,0,-4,6
1522653440145336,13,1,-3,-2,-3,48,9,23
1522653440167394,6,-2,-3,-3,-2,-12,-6,-2
1522653440167394,-5,1,-1,-2,9,44,-2,-2
1522653440168397,-4,-4,-2,-2,-7,-19,6,-13
1522653440168397,2,-4,-4,-1,1,-4,-10,-7
1522653440181432,-2,3,4,5,16,27,-4,9
1522653440181432,-40,-1,1,-1,-9,45,0,-31
1522653440189453,54,2,-3,-2,3,-22,1,27
1522653440189453,-3,1,-2,-1,0,11,0,1
1522653440204493,-36,-4,0,2,2,48,15,-5
1522653440204493,61,0,-8,-4,-6,-27,-10,18
1522653440205496,-27,-5,1,3,36,63,1,-19
1522653440205496,47,2,-2,-1,-27,-38,10,10
1522653440227554,-39,2,2,-2,-9,-23,-7,-7
1522653440227554,-11,-7,-1,-5,1,-55,-18,-7
1522653440228557,45,3,-5,-3,4,65,17,10
1522653440228557,-28,-5,-1,2,-4,29,-9,-14
1522653440241592,-10,-5,-6,-3,-5,-105,-25,-6
1522653440241592,54,6,1,3,9,35,13,10
1522653440249613,-93,-2,9,5,-1,22,0,-19
1522653440249613,39,-1,-4,-6,4,-4,-5,8
1522653440264653,-4,-9,-6,-3,-2,21,3,-4
1522653440264653,44,7,4,4,-4,-45,-18,9
1522653440265656,-44,-2,5,6,-10,-42,1,-11
1522653440265656,13,2,-4,-1,7,-9,1,5
1522653440287714,-4,3,-2,-3,6,30,0,-1
1522653440287714,-18,-6,-4,-3,-7,-59,-20,-1
1522653440288717,52,7,-1,-2,-9,-2,-6,-2
1522653440288717,-28,-7,-1,0,-7,18,1,1
1522653440301752,5,-4,-3,5,17,32,3,-4
1522653440301752,-17,1,-2,-1,-1,4,14,16
1522653440309773,26,1,0,-5,-28,-17,-10,-5
1522653440309773,-25,1,5,6,20,12,7,-16
1522653440324813,-9,-2,0,-3,0,-34,-11,-6
1522653440324813,39,-2,-1,-2,-12,51,42,24
1522653440325816,-4,-2,0,2,12,3,-45,-7
1522653440325816,-7,5,1,-4,-12,-12,15,-5
1522653440347874,4,2,3,3,4,16,15,3
1522653440347874,10,1,3,-3,-1,-72,-28,-2
1522653440348879,10,-10,-11,-6,-5,22,25,-1
1522653440348879,-41,-5,-1,-1,-5,-21,1,2
1522653440369933,33,4,-4,-3,-1,3,-12,0
1522653440369933,-83,-7,2,1,1,44,-5,-15
1522653440370936,64,6,5,0,-3,-26,2,7
1522653440370936,-21,1,-2,-3,4,39,-6,-4
1522653440384973,-14,-2,-1,-2,-4,15,14,0
1522653440384973,28,3,-4,-7,-1,-52,-5,8
1522653440384973,-54,-8,-4,-2,-9,-13,-6,-17
1522653440384973,58,7,-1,-2,6,19,1,3
1522653440408034,-66,-9,4,1,1,2,-22,-9
1522653440408034,49,8,1,-1,11,40,18,18
1522653440409037,-10,-4,-5,-4,-24,-79,-1,3
1522653440409037,-34,-7,-5,-2,-7,27,3,-6
1522653440430093,35,3,2,-1,-5,-14,-11,-5
1522653440430093,-52,-8,-2,-6,-4,34,5,-15
1522653440431096,31,0,-3,1,6,-6,-1,3
1522653440431096,-8,-2,0,-2,-7,-30,-11,4
1522653440444130,2,1,3,-1,-7,-18,-1,-5
1522653440444130,-44,0,4,-2,0,-1,1,-2
1522653440445133,31,2,4,0,11,10,-13,-3
1522653440445133,54,0,-3,-2,-8,-42,-9,16
1522653440468194,-69,2,-4,2,13,59,25,0
1522653440468194,57,-2,-3,-3,0,7,-10,-3
1522653440468194,-74,-7,2,3,5,43,8,-17
1522653440468194,-5,-1,6,3,2,57,14,-5
1522653440490253,50,-3,-7,-9,-11,-4,-9,5
1522653440490253,19,6,0,1,-3,-19,-9,5
1522653440491256,-58,-4,-3,-5,0,2,2,-12
1522653440491256,13,-2,2,3,8,5,-2,-3
1522653440504290,31,1,1,1,1,-4,-4,3
1522653440504290,4,-3,-4,-3,5,34,16,14
1522653440505293,-36,-1,-1,-2,-13,-38,-13,-14
1522653440505293,13,7,5,4,14,-9,-8,6
1522653440527352,5,1,-1,-3,-11,12,23,3
1522653440527352,-16,-7,-3,0,4,-14,-5,-13
1522653440528355,19,4,3,6,7,-21,-1,6
1522653440528355,-13,12,7,5,0,22,13,-11
1522653440550413,28,1,0,-1,1,-16,-11,4
1522653440550413,-47,-13,-8,-7,-8,-11,4,8
1522653440551416,23,5,1,2,-1,20,11,1
1522653440551416,-9,-12,-8,-3,-1,-1,-8,-3
1522653440564450,12,7,5,-1,-8,-58,-9,-8
1522653440564450,-33,-1,4,1,4,9,7,-6
1522653440565453,44,2,0,-2,-9,41,8,14
1522653440565453,-2,-2,-5,-2,-10,-66,-12,0
1522653440587511,-29,-2,2,3,1,17,6,-1
1522653440587511,20,-2,-1,-1,0,3,2,-1
1522653440588515,-38,-1,0,-3,2,3,-4,-26
1522653440588515,16,-3,-1,0,-7,25,10,9
1522653440610573,31,0,-6,-2,7,-9,-1,18
1522653440610573,-5,4,1,4,1,11,4,-1
1522653440611576,1,-3,-3,1,-6,3,-1,-3
1522653440611576,-18,-2,4,2,-1,-15,-3,-11
1522653440624611,-13,-2,-4,-2,-2,4,-3,-11
1522653440624611,31,-4,-7,-5,1,-5,-2,10
1522653440625613,-16,1,1,2,6,15,12,14
1522653440625613,-2,-7,-6,-3,-5,-21,-7,-11
1522653440647671,-8,0,2,5,4,4,3,1
1522653440647671,-2,1,2,4,6,6,-5,-12
1522653440648675,-16,2,0,-2,-13,-21,-1,1
1522653440648675,29,-1,-3,-3,5,36,5,10
1522653440670733,40,-3,-4,-2,10,29,8,19
1522653440670733,-71,-4,-3,-1,-7,-14,-4,-16
1522653440670733,21,-4,-2,3,6,16,-3,5
1522653440670733,-3,1,0,5,6,-28,4,1
1522653440684770,-34,3,5,0,-10,4,-3,-10
1522653440684770,25,-1,3,0,7,-7,-3,1
1522653440685773,10,0,-3,-2,7,54,1,7
1522653440685773,27,3,1,-3,-20,-36,-5,7
1522653440707831,-8,-10,-12,-8,-13,-86,-24,-12
1522653440707831,-4,1,-2,0,5,45,8,-1
1522653440708835,33,6,6,4,-2,-24,-5,6
1522653440708835,-26,-5,1,-1,2,-5,-4,-20
1522653440729890,31,1,-2,-2,6,34,13,17
1522653440729890,3,-6,-1,-6,-24,-60,-12,-3
1522653440730893,-18,-2,-2,0,10,6,-1,-3
1522653440730893,29,4,-1,10,9,35,-8,5
1522653440744930,-46,-2,-1,-4,-7,-2,11,2
1522653440744930,15,-3,-3,-2,-14,-26,-13,-7
1522653440744930,-1,-4,-4,-4,3,-41,-5,2
1522653440744930,8,6,5,2,-4,-4,-2,1
1522653440767991,-24,-3,1,8,11,30,-13,-11
1522653440767991,21,4,1,2,-5,17,19,10
1522653440768995,5,0,0,-2,1,26,9,1
1522653440768995,-19,2,2,1,3,10,2,-11
1522653440790050,-4,-6,-3,-1,-11,-60,-4,0
1522653440790050,-43,-3,-5,-6,15,75,4,-6
1522653440791053,59,0,-5,-4,-24,-49,-4,8
1522653440791053,-37,-4,-1,4,11,22,8,-12
1522653440805090,1,2,5,4,1,18,11,4
1522653440805090,41,-1,-5,-9,-13,-34,-6,3
1522653440805090,-24,-1,3,8,23,80,6,-7
1522653440805090,-11,-1,-1,-2,-9,-17,14,8
1522653440828152,-3,5,6,2,-8,23,-9,-14
1522653440828152,4,-7,0,-3,-2,-45,-15,-8
1522653440828152,18,1,-11,-11,7,25,-5,11
1522653440828152,-12,-4,-5,1,-21,-46,-21,-10
1522653440850210,39,-3,-2,-1,16,20,9,-2
1522653440850210,-13,5,3,1,7,26,4,3
1522653440851213,-13,-5,-3,-4,-17,-61,-8,-13
1522653440851213,-36,3,2,4,26,43,1,2
1522653440864247,45,6,1,0,-8,-14,30,19
1522653440864247,-29,-4,-1,-7,-9,-71,-7,-1
1522653440865251,3,-1,2,1,-2,-6,-21,-6
1522653440865251,9,-2,1,6,-1,10,10,-3
1522653440887309,-4,2,-6,-8,3,-19,4,5
1522653440887309,-15,-8,-3,0,9,2,-3,-3
1522653440888312,16,5,5,4,1,4,23,5
1522653440888312,-25,-6,-4,-9,-12,-75,-22,-5
1522653440910370,15,0,-1,-1,2,44,-6,-4
1522653440910370,15,-3,-2,2,13,83,16,-1
1522653440911373,-41,-4,-3,1,1,-23,6,0
1522653440911373,17,-2,-3,-2,-3,30,-9,-5
1522653440924407,-29,-6,-6,-8,-4,27,6,-3
1522653440924407,-9,5,5,0,-1,-38,-19,3
1522653440925411,34,0,0,3,-8,2,6,4
1522653440925411,8,-3,-5,-3,5,20,3,1
1522653440947469,-45,-3,-2,-3,5,9,-7,-7
1522653440947469,32,2,1,-3,-6,0,5,2
1522653440948472,-9,-2,-2,-2,4,15,0,-10
1522653440948472,-24,-6,-3,-6,-9,-27,-14,-2
1522653440970530,47,9,3,0,5,25,22,16
1522653440970530,-7,-6,-5,0,4,-18,-11,-3
1522653440971533,9,-4,1,1,2,7,19,3
1522653440971533,-72,-5,1,-1,-9,-26,-17,-20
1522653440983565,17,-1,-5,-7,-6,-2,-4,8
1522653440983565,46,7,6,4,10,40,6,4
1522653440992589,-5,2,3,-1,-5,-9,9,-2
1522653440992589,57,4,-2,1,4,26,3,12
1522653441007629,-40,-8,3,0,-10,-85,-15,-12
1522653441007629,-5,5,0,-3,6,54,-3,4
1522653441008632,-24,-7,-2,5,-3,12,-11,-10
1522653441008632,17,8,4,-1,0,-6,11,6
1522653441030690,-3,-5,-3,-3,-3,-1,-11,-9
1522653441030690,10,-1,-7,-10,-12,-36,-11,2
1522653441030690,-7,-7,-11,-6,-13,-28,-23,-1
1522653441030690,8,-6,-4,-4,1,-6,1,1
1522653441043725,-35,2,8,5,-3,5,-3,-13
1522653441043725,-11,-1,-5,-1,-1,-2,4,-2
1522653441051746,-29,2,3,0,3,0,-9,-5
1522653441051746,41,1,2,-2,-9,13,5,5
1522653441067789,14,3,-2,-2,-5,-10,-13,3
1522653441067789,-24,-8,-7,-6,12,-21,-2,-7
1522653441068792,10,2,4,6,1,6,13,7
1522653441068792,-23,-1,-1,0,-1,-6,-17,-18
1522653441089848,15,2,0,-1,5,9,6,-2
1522653441089848,20,6,2,-2,-13,-32,0,15
1522653441090850,-14,-3,-2,-1,8,59,-1,-12
1522653441090850,-16,-1,0,-2,5,4,9,15
1522653441103885,-14,-7,-3,-2,-7,-3,-9,-12
1522653441103885,15,-6,-6,-6,0,22,12,17
1522653441111906,-4,2,4,2,0,-25,-4,-9
1522653441111906,-18,1,2,3,2,5,8,-4
1522653441127949,35,8,4,3,6,4,2,10
1522653441127949,-48,-6,4,5,-9,0,5,-16
1522653441128952,24,-5,-8,-2,-9,-12,-3,-1
1522653441128952,-18,1,-5,-2,8,-2,8,14
1522653441150008,-9,1,1,-3,-12,16,-1,-12
1522653441150008,26,-2,-4,0,0,-11,-12,-5
1522653441151011,-35,0,0,3,-1,-11,0,-7
1522653441151011,17,-2,2,0,-2,39,2,-6
1522653441164045,-14,4,3,-1,-1,-15,-1,10
1522653441164045,27,-1,-4,-4,-7,-15,-2,21
1522653441172066,-14,-5,-1,3,15,22,-2,-10
1522653441172066,23,6,0,-1,-6,-4,4,2
1522653441187106,-34,-4,-2,0,5,1,0,1
1522653441187106,5,-2,-3,-4,-10,-11,-6,-11
1522653441188109,-4,3,2,-1,-6,-31,-6,7
1522653441188109,16,-5,-2,-1,4,36,1,-6
1522653441210168,-19,-1,-3,-3,9,-40,-8,1
1522653441210168,13,-5,-5,4,2,24,11,7
1522653441211170,16,3,-4,-4,-5,16,-1,7
1522653441211170,-18,-1,1,2,11,47,9,1
1522653441224205,4,-6,-3,-3,-3,-8,-11,0
1522653441224205,1,4,5,3,-11,-20,-7,-18
1522653441232226,-18,-6,-4,1,9,-30,-9,-7
1522653441232226,32,3,-3,-2,-5,-23,6,14
1522653441247266,6,-4,-2,-4,1,24,-9,-5
1522653441247266,-12,-5,-3,1,-10,-30,2,7
1522653441248269,-25,2,4,3,-1,32,-2,-13
1522653441248269,15,-3,-2,-4,-8,-53,-11,-2
1522653441270328,-2,-3,-3,-2,4,14,-10,2
1522653441270328,-44,2,2,0,1,10,11,-19
1522653441271330,60,2,-5,-7,9,21,4,26
1522653441271330,-18,-2,2,7,9,15,0,-13
1522653441284365,15,0,-3,-4,-15,36,12,20
1522653441284365,13,4,4,3,4,-6,-4,5
1522653441292386,-21,-2,2,2,-1,1,-14,-21
1522653441292386,-20,-1,-1,1,-7,-33,4,0
1522653441307426,35,3,-2,-4,7,49,-12,-10
1522653441307426,-4,1,-2,-3,-6,-5,-4,17
1522653441308429,6,-1,-2,2,-3,-19,2,0
1522653441308429,26,-4,-7,-6,0,19,-9,2
1522653441330488,-65,-4,2,0,5,-26,-3,-25
1522653441330488,43,1,4,1,3,58,14,15
1522653441331490,19,2,-3,-3,4,47,6,8
1522653441331490,-29,0,-2,-1,-6,-49,-11,2
1522653441352546,17,-8,-7,0,0,10,-1,-13
1522653441352546,-7,7,8,0,-4,-33,12,-2
1522653441353549,13,-6,-9,-4,-11,-35,-8,5
1522653441353549,-10,3,6,5,2,48,2,-11
1522653441366583,16,-1,0,-2,2,-24,2,18
1522653441366583,-20,-2,2,3,1,-5,6,-7
1522653441367586,-20,-5,-1,5,-10,-49,1,-6
1522653441367586,-6,0,3,-1,-1,24,9,3
1522653441390647,1,4,4,2,9,24,8,-4
1522653441390647,16,-3,-7,-11,-7,-28,-23,-10
1522653441390647,-6,-4,-5,-6,-9,-22,-16,7
1522653441390647,-15,1,5,7,11,10,30,-5
1522653441412706,-10,2,0,-5,-9,-40,2,17
1522653441412706,-23,-5,0,2,16,31,23,-1
1522653441413709,35,3,-4,1,-16,34,7,3
1522653441413709,3,-2,-1,-5,0,-26,-52,-11
1522653441426743,13,-1,1,-5,-14,-25,4,3
1522653441426743,-23,0,1,-1,8,38,18,1
1522653441427746,35,8,11,8,13,8,-9,-5
1522653441427746,-37,-11,-5,-4,-8,-70,-31,-4
1522653441450807,18,5,3,3,-13,-5,29,7
1522653441450807,-44,-9,-9,-6,-1,-10,-41,-12
1522653441451810,1,2,1,2,5,9,23,-4
1522653441451810,61,3,-7,-6,-14,-11,13,16
1522653441472866,-20,-2,-4,-4,4,-17,-22,-1
1522653441472866,-8,-1,3,2,2,-3,-7,-6
1522653441473869,-27,6,7,2,-11,-26,9,-11
1522653441473869,34,3,0,1,-6,-2,30,11
1522653441486903,-38,-10,-7,-2,7,8,-3,-3
1522653441486903,41,2,-3,1,3,5,1,8
1522653441487906,-46,-2,5,2,1,-20,5,-16
1522653441487906,22,-5,-7,-5,6,39,11,4
1522653441509965,-6,-4,-4,-8,-1,50,15,-1
1522653441509965,19,1,1,-1,2,-10,-9,-9
1522653441510967,6,-2,4,0,2,4,-8,-5
1522653441510967,-1,2,-4,-3,-11,-47,-13,4
1522653441533026,-42,0,-1,-4,4,-4,9,-10
1522653441533026,-14,-1,2,6,-1,5,0,-8
1522653441534029,24,-1,-6,-2,4,1,-3,8
1522653441534029,3,-3,-3,-5,-7,-24,3,2
1522653441546061,6,6,5,2,-6,-12,-13,-4
1522653441546061,-29,1,5,2,0,-2,-2,-11
1522653441555085,30,1,-4,-2,-3,-28,-15,10
1522653441555085,-20,0,-2,-2,8,42,-5,2
1522653441570125,-6,-2,1,-1,-4,-22,-16,-3
1522653441570125,5,-2,-2,-3,-8,-30,4,0
1522653441572130,33,4,3,0,-1,12,-8,1
1522653441572130,-21,1,2,4,6,-7,-4,-2
1522653441593186,-5,-2,3,1,9,23,7,-4
1522653441593186,6,-4,-7,-7,-20,-42,-21,-4
1522653441594189,-2,-1,3,1,3,18,7,6
1522653441594189,-1,3,5,3,2,1,1,-7
1522653441606221,7,-1,-3,-4,-6,-8,-7,7
1522653441606221,-16,3,1,-1,2,11,1,1
1522653441615249,23,-2,-3,-3,-5,-30,-4,3
1522653441615249,-41,-7,-5,-3,-4,15,-5,-1
1522653441630285,11,-4,-7,-2,2,5,-2,-7
1522653441630285,12,0,1,6,10,-1,1,-5
1522653441632290,-55,-5,-4,-3,-6,-13,1,-10
1522653441632290,37,6,6,1,5,33,14,13
1522653441652343,7,-1,-6,-6,-7,-15,-2,12
1522653441652343,-4,-6,-5,3,4,16,-9,-20
1522653441654349,-6,-4,0,-2,2,9,5,-4
1522653441654349,-21,3,5,1,-4,-41,-4,6
1522653441666381,9,5,4,4,5,9,9,6
1522653441666381,4,-4,-5,0,0,3,-1,-3
1522653441675405,-11,3,-1,0,-4,-21,-11,-12
1522653441675405,-11,-9,-4,-2,2,36,4,-9
1522653441690445,16,3,2,0,2,-10,4,8
1522653441690445,22,2,0,0,-7,6,8,10
1522653441691448,-16,-2,0,3,4,10,0,4
1522653441691448,8,-1,-1,-3,-8,-25,-2,-7
1522653441712504,-24,2,1,-3,-6,2,-3,-4
1522653441712504,-17,-13,-7,-1,3,4,-2,-5
1522653441714509,-6,13,4,1,1,6,0,-17
1522653441714509,28,-6,-13,-11,-13,-14,-16,15
1522653441726541,10,-3,0,1,1,-16,-6,0
1522653441726541,26,1,-3,-4,-5,30,6,8
1522653441735565,-41,-5,0,0,-4,-58,-10,-6
1522653441735565,-16,3,7,3,10,19,1,-20
1522653441750605,39,-7,-7,-5,-2,-1,-1,8
1522653441750605,-78,0,0,-1,-3,-14,-5,-7
1522653441751608,45,-12,-10,-5,-12,11,5,18
1522653441751608,5,5,3,2,-1,4,2,-4
1522653441772664,1,1,-1,1,5,-6,2,5
1522653441772664,-15,2,7,6,-3,-12,-3,-20
1522653441774669,-5,-5,-3,-2,16,33,2,8
1522653441774669,24,3,-2,-1,-10,-11,5,14
1522653441786701,-16,3,4,2,-5,32,-11,-16
1522653441786701,23,0,-1,2,1,-28,-1,8
1522653441795726,-46,-4,-2,-1,-1,9,-7,-15
1522653441795726,18,-4,-6,-4,-11,-5,4,12
1522653441810765,-5,2,2,-2,-14,18,-4,-5
1522653441810765,16,2,3,4,6,24,12,-3
1522653441811767,27,-5,0,3,-11,-46,-7,3
1522653441811767,0,4,-3,1,19,41,-2,1
1522653441832824,-26,-9,-6,-3,-9,-34,9,-7
1522653441832824,6,3,-2,-5,-3,13,11,11
1522653441834829,15,-1,1,2,9,7,0,-12
1522653441834829,-27,-2,5,5,9,-16,-4,-19
1522653441846861,11,2,-1,-6,-7,-74,-5,9
1522653441846861,30,-5,-5,-1,5,7,1,14
1522653441855885,5,3,-3,-2,-2,20,13,6
1522653441855885,-25,-1,1,-1,-3,19,11,-10
1522653441869922,-2,-4,-2,-2,3,-53,-31,-17
1522653441869922,-6,-8,-4,0,5,6,10,8
1522653441871928,12,5,-2,-4,5,9,-5,-1
1522653441871928,-54,-5,4,3,-13,25,16,-1
1522653441892983,68,9,-3,-6,0,-20,-1,17
1522653441892983,-16,-1,-3,0,-8,-31,-19,-3
1522653441893986,-9,0,1,4,-1,13,7,0
1522653441893986,-5,-3,-2,-8,5,18,-22,-2
1522653441906018,13,-4,3,0,-18,-1,3,-4
1522653441906018,-2,2,-2,5,11,21,22,1
1522653441915042,-49,0,-3,0,-4,6,-11,-10
1522653441915042,74,-7,-11,-6,0,-12,-5,2
1522653441930082,-1,1,2,0,4,18,-9,11
1522653441930082,10,-1,4,-1,-9,-9,-3,-11
1522653441932088,-38,-12,-7,-3,5,51,-12,-6
1522653441932088,17,3,3,2,-12,-62,-3,6
1522653441953143,-6,-2,-3,1,14,62,4,1
1522653441953143,11,-1,4,6,0,-17,-11,-9
1522653441954147,-26,-7,-5,-2,-7,-24,4,0
1522653441954147,4,6,6,4,7,10,9,-5
1522653441966178,-20,-8,0,-5,-1,-29,-2,-5
1522653441966178,13,12,2,0,13,89,26,11
1522653441975202,18,-1,2,2,-12,-47,-15,5
1522653441975202,-38,-5,-8,-3,5,-5,-16,-3
1522653441990242,-9,0,6,5,12,15,21,-10
1522653441990242,-18,-9,-8,-9,-9,-19,-17,1
1522653441992247,35,10,8,2,7,40,-6,6
1522653441992247,4,14,1,8,-6,-41,15,7
1522653442013303,-12,-6,-4,-5,7,58,37,-6
1522653442013303,-38,-12,-7,-1,-9,-47,-28,-18
1522653442014306,62,1,4,0,-5,9,14,12
1522653442014306,-46,-10,-6,-10,-2,-16,-14,-7
1522653442026338,16,11,3,2,6,29,-17,-10
1522653442026338,41,0,1,-3,0,-22,9,15
1522653442035362,-43,-5,-3,3,-7,-9,23,-3
1522653442035362,32,-1,1,-1,-5,-20,-25,-3
1522653442049400,5,0,-2,1,9,9,-10,4
1522653442049400,-52,-9,-4,-6,-20,-91,-32,-20
1522653442056418,37,7,1,-3,14,101,16,7
1522653442056418,13,0,-3,-4,2,23,10,5
1522653442072461,-13,-10,-7,-3,-7,2,12,2
1522653442072461,-31,2,0,2,15,6,1,6
1522653442074467,-40,-5,1,1,-9,-61,-18,-19
1522653442074467,42,-4,-2,-4,5,38,11,2
1522653442086498,-30,3,5,5,3,-36,-6,0
1522653442086498,35,0,-5,-4,-9,13,2,-1
1522653442095522,-24,1,-1,-4,9,0,-3,-3
1522653442095522,-37,-4,-3,-2,-3,15,17,-4
1522653442108557,38,-2,-3,-6,4,3,6,7
1522653442108557,-20,-1,3,3,-9,46,3,-10
1522653442117581,31,4,0,-1,-1,6,7,17
1522653442117581,-18,-3,1,0,-6,-53,-13,-20
1522653442132621,-7,-5,-4,-5,-8,-12,-8,6
1522653442132621,30,-5,-5,-4,-4,11,9,2
1522653442134626,6,2,-1,-5,-5,-8,-20,-2
1522653442134626,1,-5,0,-4,-10,1,-15,-7
1522653442146658,-52,-4,0,-1,-1,14,4,3
1522653442146658,7,6,2,7,13,-1,-1,-4
1522653442155683,23,-4,-2,-2,-19,-32,-9,1
1522653442155683,-3,-1,-4,-6,-2,36,-4,-1
1522653442168717,13,13,7,2,8,28,29,7
1522653442168717,18,0,1,3,2,-3,-11,1
1522653442177741,-19,-9,-8,-2,6,-1,5,-4
1522653442177741,-10,6,4,6,-1,-2,3,8
1522653442192781,1,-10,1,4,4,17,-2,3
1522653442192781,52,19,6,0,1,15,4,6
1522653442194787,-44,-6,-6,-6,-6,-27,-4,-5
1522653442194787,-29,-1,3,-2,8,20,6,-13
1522653442206818,37,-3,-6,-8,-24,-73,-16,3
1522653442206818,-42,-9,0,0,7,-15,2,-7
1522653442215842,28,3,-5,1,0,9,1,7
1522653442215842,24,9,2,-1,2,-19,-1,4
1522653442228877,-61,-8,-2,3,-3,48,-2,-16
1522653442228877,32,2,-1,0,-1,15,22,8
1522653442237901,-56,3,7,6,-5,-12,0,-29
1522653442237901,73,-7,-3,-2,6,0,1,43
1522653442252941,-14,5,-4,-2,-2,-13,-7,-6
1522653442252941,2,-6,-1,3,-5,11,1,-4
1522653442253944,-40,1,5,4,12,14,8,-4
1522653442253944,33,-3,-3,-4,-8,1,1,-12
1522653442274999,-34,0,-3,-2,0,-29,-22,-8
1522653442274999,25,-14,-10,-6,-6,6,4,18
1522653442277005,36,10,3,1,-8,-19,-4,-1
1522653442277005,-29,-4,-2,-3,2,-8,-7,-12
1522653442289037,26,-2,-1,2,3,25,13,11
1522653442289037,-24,5,1,5,-4,-28,-14,-13
1522653442298061,-2,-5,2,6,12,18,5,-2
1522653442298061,-16,-4,-5,-7,-5,5,2,3
1522653442313101,6,3,0,-2,-10,-37,-6,8
1522653442313101,8,-1,2,5,10,25,-1,0
1522653442314104,-6,2,1,-1,-4,-9,-5,-11
1522653442314104,-10,4,3,3,10,7,-1,3
1522653442335159,-18,-5,-3,-4,-6,24,-4,-24
1522653442335159,24,-2,-5,-4,-23,-91,-5,18
1522653442337165,-9,6,7,8,22,7,3,5
1522653442337165,-18,-7,-8,-8,-33,-101,-25,-7
1522653442349197,37,1,0,-1,-1,29,17,0
1522653442349197,-46,-1,-3,-1,-13,3,-9,-18
1522653442358221,15,-3,-1,-2,-8,23,4,2
1522653442358221,0,1,0,4,16,-9,3,17
1522653442373261,17,-3,-7,-4,4,16,-2,0
1522653442373261,28,6,2,2,-1,6,-8,-8
1522653442374263,-48,-9,-6,-5,3,41,-1,1
1522653442374263,-3,0,5,12,3,-36,6,-4
1522653442395320,-7,0,-1,4,3,-15,-5,0
1522653442395320,-13,1,2,1,1,-43,-10,-20
1522653442397325,38,-6,-4,2,11,38,1,13
1522653442397325,30,4,-1,-9,-8,75,17,21
1522653442409357,8,4,4,3,1,-16,-5,-5
1522653442409357,-72,1,3,1,4,-21,-4,3
1522653442418381,-14,-16,-13,-8,-23,-12,6,-16
1522653442418381,-3,4,4,0,7,9,-10,-15
1522653442432418,29,3,-1,1,7,49,23,19
1522653442432418,20,4,6,4,-1,-24,-23,-7
1522653442434424,1,1,2,1,-8,-26,-6,4
1522653442434424,-50,-12,-5,0,6,12,9,-3
1522653442455479,20,3,4,0,3,18,-8,3
1522653442455479,-19,-5,0,3,6,44,24,-11
1522653442456482,34,6,-7,-5,-14,-43,-9,19
1522653442456482,-19,2,6,2,0,-1,-17,-10
1522653442468514,-32,-6,0,-6,-1,-9,-2,1
1522653442468514,9,-6,-3,0,7,42,5,-7
1522653442477538,18,4,0,2,19,-37,-6,6
1522653442477538,-6,5,6,-2,-17,-27,-4,-12
1522653442492578,14,-10,-12,-8,-2,-37,-13,9
1522653442492578,1,3,4,5,-11,37,-14,-1
1522653442494583,-36,-4,-1,0,-1,5,13,-9
1522653442494583,29,0,-7,-6,6,34,15,0
1522653442515640,-25,-1,5,-1,6,11,3,-12
1522653442515640,22,0,-3,-4,-7,-47,-11,3
1522653442516642,16,1,-3,-4,-13,-13,-10,4
1522653442516642,-4,5,-3,-3,3,56,25,0
1522653442528674,-27,-2,3,0,-8,-88,-5,1
1522653442528674,57,4,-1,1,14,79,25,8
1522653442537698,-10,-9,-6,-3,-6,-14,-11,0
1522653442537698,0,3,2,-4,3,-1,12,2
1522653442552738,-22,-1,-2,-2,4,3,-24,-8
1522653442552738,-20,-2,1,3,6,33,-2,-7
1522653442554745,35,10,5,3,-4,-52,-10,13
1522653442554745,-7,-5,-2,-5,5,51,3,-6
1522653442575799,13,1,-5,-5,-7,-21,6,8
1522653442575799,-32,1,0,2,-3,-24,2,1
1522653442576802,19,-6,-2,-5,-3,-15,13,-13
1522653442576802,-10,-6,-6,-3,6,12,-33,6
1522653442588834,5,4,1,-4,-2,8,-4,-8
1522653442588834,-27,-6,-3,-3,6,3,15,-3
1522653442597858,36,4,-3,0,4,0,-33,2
1522653442597858,-8,-5,2,-3,-9,-47,-3,-4
1522653442612898,-1,-2,-6,-1,3,46,1,-9
1522653442612898,58,-4,-5,-5,-4,6,8,18
1522653442614903,-30,12,5,0,1,37,-1,-1
1522653442614903,-8,1,1,4,10,14,-8,-6
1522653442634957,-8,-2,4,1,-9,-37,14,5
1522653442634957,36,-1,-3,-6,0,-2,-17,4
1522653442636962,-8,-9,-4,-4,-11,16,5,-13
1522653442636962,-7,1,-4,-1,-2,-19,0,4
1522653442648994,-55,0,4,4,16,11,0,-21
1522653442648994,36,1,-3,-4,2,65,17,11
1522653442658018,80,0,-1,-2,-1,15,14,5
1522653442658018,-91,0,4,4,-1,-19,1,-5
1522653442673058,40,-1,1,3,-6,4,-8,-4
1522653442673058,-57,-8,-4,-3,-7,-39,-19,-22
1522653442674062,3,3,5,4,14,-10,-2,0
1522653442674062,-5,-2,-2,-3,-5,-4,2,-9
1522653442695116,21,-1,0,-1,-1,3,0,8
1522653442695116,-10,-2,-1,0,-1,-21,-3,0
1522653442697122,-14,1,0,-3,-14,-8,10,4
1522653442697122,18,-1,0,-3,3,25,-8,-7
1522653442709154,-33,-8,-2,-3,-19,-69,-18,-16
1522653442709154,7,12,5,4,5,23,9,18
1522653442718178,-26,-2,-5,-4,6,18,0,-8
1522653442718178,32,2,4,-2,-5,6,18,19
1522653442733218,2,2,-2,0,2,18,-11,-12
1522653442733218,-48,5,7,4,1,2,3,-12
1522653442734221,26,-8,-12,-11,-14,-22,1,10
1522653442734221,-16,3,0,-1,10,-12,-4,-4
1522653442755277,24,-5,-3,1,0,23,15,24
1522653442755277,-14,-2,-9,-4,-7,-31,-6,-8
1522653442757282,-16,1,5,3,5,42,13,-1
1522653442757282,24,0,1,1,-2,21,8,-4
1522653442769314,-34,-11,-7,-2,-1,-23,0,0
1522653442769314,46,7,-4,-2,-6,-1,2,11
1522653442778338,23,2,3,3,-4,-23,-4,13
1522653442778338,-18,-6,0,1,4,19,6,1
1522653442792375,46,7,1,2,2,14,10,8
1522653442792375,-61,-13,-7,1,1,3,-10,-19
1522653442794381,-1,-1,0,-1,-1,-9,0,4
1522653442794381,27,10,2,-5,-19,-20,-1,9
1522653442815437,-37,-2,2,7,18,14,-3,-16
1522653442815437,46,-5,-3,0,2,-1,8,8
1522653442817442,-2,-5,-5,-2,-3,-2,-5,3
1522653442817442,9,-5,-7,-1,-4,-35,-6,3
1522653442829474,7,5,1,-1,-3,25,1,8
1522653442829474,-67,-6,1,3,4,3,-12,-32
1522653442837495,33,6,4,4,18,-13,1,14
1522653442837495,-12,-2,-4,-5,-10,2,-1,9
1522653442852535,-25,1,3,5,0,20,15,-15
1522653442852535,27,-8,-12,-7,-4,-12,-4,7
1522653442854541,-33,3,5,5,0,5,-1,-15
1522653442854541,65,-7,-6,-4,3,-9,0,18
1522653442875597,-5,-2,-5,-9,-9,-69,-9,-16
1522653442875597,-12,-5,3,-3,-9,39,6,6
1522653442876600,-30,-1,-1,2,3,-28,-12,-3
1522653442876600,-26,-1,-2,-6,-5,12,-12,-30
1522653442888631,35,4,6,6,-3,-31,-3,10
1522653442888631,11,-4,-7,-1,17,-25,-7,5
1522653442897655,-12,-6,-6,-3,-13,-14,-14,-11
1522653442897655,-19,3,1,0,-2,-6,4,-1
1522653442912695,-1,-9,-5,-6,4,57,4,5
1522653442912695,37,9,4,-3,-11,-50,-2,11
1522653442914701,11,-4,1,-1,-23,0,-8,-23
1522653442914701,-69,-2,0,1,14,1,-1,-2
1522653442935757,22,1,-3,-1,-15,8,-4,2
1522653442935757,12,3,9,13,10,29,6,-4
1522653442936760,-36,-2,0,3,13,84,16,-4
1522653442936760,34,0,-2,3,2,-99,1,-4
1522653442948792,14,-1,-6,-11,-16,38,-8,9
1522653442948792,-53,0,7,7,-1,22,8,-11
1522653442957815,96,7,-3,-4,-2,4,20,16
1522653442957815,-62,-8,-4,-9,-10,-33,-6,6
1522653442972855,-27,3,4,11,18,8,2,-21
1522653442972855,15,1,5,4,-7,-1,10,11
1522653442974861,-16,-5,-11,-10,-9,-30,-16,0
1522653442974861,20,1,2,4,8,30,16,-8
1522653442994916,-18,2,0,-1,3,-13,-14,-2
1522653442994916,41,4,-3,2,-17,10,-1,1
1522653442996919,-51,-8,-1,1,2,-23,-4,0
1522653442996919,24,-1,-2,0,3,26,-9,7
1522653443008951,0,6,2,-4,-20,-88,-12,-6
1522653443008951,-13,-4,0,9,24,2,13,2
1522653443017975,-9,4,4,1,10,50,14,1
1522653443017975,29,8,6,1,-7,-12,-6,6
1522653443033015,16,-7,-3,-1,7,-3,-4,-2
1522653443033015,2,-4,-11,-9,-9,18,-10,-1
1522653443034018,-12,-3,2,2,-1,-46,17,0
1522653443034018,-24,3,2,-2,4,49,10,4
1522653443055074,15,-2,3,7,6,32,16,8
1522653443055074,-7,0,0,-3,-11,-69,-28,-7
1522653443057079,-24,-1,3,2,1,1,-4,-11
1522653443057079,2,2,1,-5,-5,10,-22,6
1522653443069111,26,-5,-15,-10,-7,-41,-38,0
1522653443069111,-3,3,2,3,4,29,33,5
1522653443078135,-48,-9,-5,-1,-3,-13,-26,-11
1522653443078135,12,-1,-2,-4,-12,-30,12,8
1522653443093175,9,2,1,-1,12,7,10,4
1522653443093175,-10,0,5,3,-1,-25,-17,-9
1522653443094178,-30,3,3,-1,9,63,5,-4
1522653443094178,47,1,-2,-1,0,-13,-10,4
1522653443115234,-35,-10,-3,-3,6,35,22,3
1522653443115234,-15,3,2,1,3,-14,-5,-6
1522653443117240,85,6,-4,-6,-16,-34,2,22
1522653443117240,-54,-10,-10,-2,13,91,14,-1
1522653443129271,19,4,2,3,-7,-6,2,-1
1522653443129271,-11,2,1,0,5,26,17,-6
1522653443138295,-44,-2,0,-4,-1,3,-5,-5
1522653443138295,28,-3,-5,-11,-10,-47,-34,-2
1522653443152332,-13,5,7,6,15,6,9,3
1522653443152332,-29,-9,-8,-3,9,90,-13,-15
1522653443159351,57,2,3,3,-4,15,18,19
1522653443159351,26,2,6,-1,-1,-6,15,-2
1522653443175393,-85,-6,-1,-1,-6,-10,-3,-8
1522653443175393,47,0,-4,-5,-8,-18,-12,5
1522653443177400,-15,1,-2,-2,1,-12,0,-1
1522653443177400,47,2,2,1,3,14,-8,7
1522653443197452,-18,1,0,1,4,-16,3,-11
1522653443197452,-38,-6,-3,-2,-1,7,9,-2
1522653443199458,-10,-1,1,0,1,-18,-10,-9
1522653443199458,16,-1,-4,-3,-6,-15,7,4
1522653443212492,7,1,-4,-3,-7,-8,-14,-6
1522653443212492,9,-5,-6,-3,-14,-67,-12,4
1522653443218508,-11,2,3,1,3,-3,-15,-22
1522653443218508,-25,-5,-1,1,0,-4,1,-1
1522653443235554,70,4,0,6,2,52,12,14
1522653443235554,-43,-6,-12,-9,-10,-6,-3,-1
1522653443236557,-13,-5,0,1,6,-4,-2,-4
1522653443236557,-4,0,-2,-5,-6,-2,1,-2
1522653443257612,6,-5,-4,2,0,6,0,-5
1522653443257612,23,2,0,0,0,-2,1,8
1522653443259618,12,5,2,0,3,-11,-6,1
1522653443259618,-46,-3,0,-2,1,11,5,-16
1522653443272652,30,-3,-1,-2,-8,7,4,7
1522653443272652,15,8,6,5,19,-11,6,20
1522653443278668,-5,-6,-7,-6,-9,10,-2,-6
1522653443278668,21,5,4,1,0,-5,-1,-4
1522653443295714,-43,-5,2,3,2,3,1,-10
1522653443295714,29,3,4,0,-2,-3,-1,4
1522653443296717,6,-2,-2,-1,-8,-2,-1,-5
1522653443296717,-33,-3,-1,8,14,4,2,0
1522653443317772,-13,2,2,0,-4,6,2,1
1522653443317772,21,-7,-5,-5,-7,-3,1,6
1522653443319778,-9,0,0,-2,-3,0,3,-4
1522653443319778,4,-3,-2,-1,3,7,1,-4
1522653443331810,11,1,-1,1,4,9,-4,-11
1522653443331810,-48,-2,1,-1,-10,3,-5,-22
1522653443338829,12,1,0,-1,3,6,4,14
1522653443338829,19,2,1,1,6,0,1,3
1522653443354872,-17,-6,-7,-5,-14,-11,-3,4
1522653443354872,6,5,1,0,6,-10,-2,-16
1522653443356877,16,-5,-3,-2,3,13,2,3
1522653443356877,-5,-1,-3,-4,-3,-2,5,16
1522653443377932,-14,-2,-4,0,-5,8,-1,-5
1522653443377932,0,3,2,-2,3,63,-11,0
1522653443379938,-2,-1,2,0,2,-39,6,-9
1522653443379938,44,-3,-1,-2,-6,-8,-9,4
1522653443391970,-35,2,1,2,6,10,-1,-1
1522653443391970,12,-1,4,5,0,-38,-3,-6
1522653443398989,-16,-5,-7,-6,1,4,-3,11
1522653443398989,-7,2,2,-3,-12,17,0,-5
1522653443415031,33,2,-1,6,5,-9,0,3
1522653443415031,2,-5,-3,2,1,-9,-11,-7
1522653443417037,-12,3,1,-1,11,6,0,7
1522653443417037,-28,-11,-12,-10,-22,-35,4,-17
1522653443438092,17,-2,4,8,2,22,6,-1
1522653443438092,13,5,-3,-1,-3,-15,3,11
1522653443439095,16,-1,-3,-5,-14,-37,-5,5
1522653443439095,-45,-7,-2,-1,-6,-21,-11,-26
1522653443451127,22,-2,2,-1,2,-2,-5,3
1522653443451127,7,-10,-5,1,0,5,-1,0
1522653443460151,-54,0,-1,0,8,86,-3,-1
1522653443460151,20,4,1,-1,4,4,4,4
1522653443475191,22,-3,-5,-4,-19,-53,13,-2
1522653443475191,-27,-3,1,-1,1,-56,-11,-7
1522653443477197,21,0,-2,-8,-13,-10,-3,7
1522653443477197,-14,-3,-2,5,2,-20,-2,-7
1522653443498252,8,5,2,-1,14,71,6,4
1522653443498252,-14,2,2,0,2,39,19,2
1522653443499255,24,-2,-1,-1,-9,-87,-28,-12
1522653443499255,26,4,-5,-3,14,60,9,13
1522653443511287,-17,-4,-1,-1,-6,-46,-6,-2
1522653443511287,3,4,-1,2,0,86,1,0
1522653443520311,-9,3,1,2,2,-17,6,-4
1522653443520311,0,4,8,2,3,-11,9,0
1522653443535351,22,-5,-11,-10,-3,-3,-6,9
1522653443535351,-11,-5,-2,-1,-4,-41,-23,-16
1522653443537357,24,4,-1,2,5,43,24,7
1522653443537357,-31,-4,-1,-5,0,-16,-29,-5
1522653443557410,23,0,-3,-1,-3,-18,7,5
1522653443557410,-26,-1,3,-2,-9,-13,6,1
1522653443559415,21,-1,-2,-1,0,12,-5,-6
1522653443559415,-52,-1,2,-1,-8,-61,14,4
1522653443571447,-33,4,6,-1,0,44,9,-8
1522653443571447,77,-1,-8,2,-4,23,-2,13
1522653443580471,-12,-1,-3,-4,-10,-10,10,1
1522653443580471,6,4,4,6,16,56,13,-2
1522653443595511,-45,-6,-5,4,1,-34,-34,-1
1522653443595511,13,4,-3,-6,-11,-36,15,2
1522653443596514,-2,0,4,1,-5,-23,-16,-1
1522653443596514,33,2,-2,-2,9,14,-19,3
1522653443617570,4,0,2,3,8,75,49,1
1522653443617570,-30,-7,-3,-5,-11,-40,-21,-8
1522653443619575,-4,0,2,3,12,-22,-10,1
1522653443619575,4,-4,0,-3,-2,17,7,-2
1522653443631607,24,-1,-2,2,2,-4,-17,-6
1522653443631607,-31,-1,4,6,3,-12,-2,0
1522653443640631,19,2,5,1,6,30,4,-7
1522653443640631,-36,-7,-8,-8,-8,-9,2,6
1522653443655671,23,1,-5,-6,-6,-17,-8,-8
1522653443655671,19,6,4,1,4,23,12,2
1522653443656674,-12,-3,-6,-3,1,29,-2,4
1522653443656674,34,-5,-3,-1,1,6,5,-12
1522653443677730,-52,-4,-2,0,3,-14,-5,-3
1522653443677730,30,4,-5,-9,-13,-20,1,5
1522653443679735,-14,3,4,7,-1,-3,15,1
1522653443679735,-9,5,4,3,5,18,-10,6
1522653443691767,24,-1,2,2,-8,-77,-26,-11
1522653443691767,-61,-5,-1,1,4,38,-14,-14
1522653443700791,32,-1,-5,-7,-3,-1,17,16
1522653443700791,20,2,-5,-3,-6,7,-1,6
1522653443715832,-1,0,6,5,0,-19,-17,-7
1522653443715832,-18,-2,2,0,0,-1,6,-4
1522653443716834,-25,-1,2,-3,-3,15,-11,-8
1522653443716834,18,-6,-7,-6,-2,-53,-22,-1
1522653443737890,0,1,-4,-2,-6,29,5,8
1522653443737890,8,-5,-3,2,-1,-7,1,-3
1522653443739895,-10,-7,-5,-3,0,6,-9,-4
1522653443739895,-13,-2,-1,2,4,8,4,-6
1522653443751927,6,1,0,0,-6,-1,-3,-7
1522653443751927,-1,3,-1,-2,-4,-2,2,3
1522653443760951,-16,-2,-1,-2,0,0,-4,-11
1522653443760951,-3,-4,-3,-1,-7,-3,-1,-8
1522653443774988,31,1,0,-4,-1,0,0,17
1522653443774988,-20,0,2,0,-4,-33,7,9
1522653443776994,-21,-5,-5,-5,5,32,-8,-13
1522653443776994,4,10,9,3,3,0,-1,-3
1522653443798051,-12,-11,-11,-5,1,9,8,-7
1522653443798051,3,4,3,-2,0,2,6,9
1522653443799053,-8,5,4,-3,4,-11,2,-1
1522653443799053,55,-2,-4,1,9,49,7,23
1522653443811084,-1,-2,3,2,-6,-19,13,5
1522653443811084,-9,-7,-6,2,3,4,-8,-11
1522653443820109,1,-2,0,1,4,-13,0,-1
1522653443820109,-48,0,-2,-1,-8,10,5,0
1522653443835149,-5,4,3,3,0,-30,-13,-10
1522653443835149,51,1,-1,-6,-7,16,4,6
1522653443837154,-8,1,0,-3,-14,-1,4,-1
1522653443837154,10,2,6,6,12,-10,2,6
1522653443857207,-24,-6,-5,-3,-2,1,-5,-5
1522653443857207,4,6,1,0,-2,1,-3,-4
1522653443865228,-35,-5,-3,-3,-3,-4,-11,-27
1522653443865228,29,6,0,-3,-4,-28,3,40
1522653443871244,-21,-5,-2,3,5,3,-4,-17
1522653443871244,12,0,2,3,6,8,1,-5
1522653443880268,-13,1,0,-7,-19,-8,-4,14
1522653443880268,-29,-9,-4,-1,-2,-32,-8,-37
1522653443895308,56,8,4,-1,3,25,14,22
1522653443895308,-60,-4,-7,-7,-25,-60,-12,-9
1522653443897314,15,-2,-3,1,16,3,-1,2
1522653443897314,21,1,-5,-3,-21,-39,-9,7
1522653443917367,5,8,5,3,4,41,10,6
1522653443917367,-18,-10,-2,1,7,48,2,-9
1522653443919373,-1,-3,-5,-2,-3,-43,-4,1
1522653443919373,-14,0,-5,0,1,13,-6,-13
1522653443931405,25,1,0,4,6,10,7,22
1522653443931405,8,3,2,-1,-4,15,-4,0
1522653443940429,-40,-1,2,-4,1,29,13,-8
1522653443940429,33,-2,-4,5,13,-14,-1,-1
1522653443955468,-2,0,2,1,-9,-20,-14,-5
1522653443955468,-15,-8,-9,-1,-6,-44,-11,4
1522653443956471,23,3,2,1,9,19,4,8
1522653443956471,-7,4,4,1,3,18,-5,-6
1522653443977527,-1,-10,-6,-3,19,63,3,2
1522653443977527,-22,2,1,5,-20,-66,-1,-9
1522653443979533,34,-4,-7,-6,-9,-30,1,12
1522653443979533,-15,-6,0,-1,5,53,6,-5
1522653443991564,9,1,-2,2,-12,-43,-11,-16
1522653443991564,24,0,3,0,19,7,0,8
1522653444000589,30,3,-3,-5,-5,-13,-7,16
1522653444000589,-78,-6,0,-3,-6,15,-3,-17
1522653444015628,-2,-1,0,6,-3,-35,-9,-7
1522653444015628,23,3,3,0,4,100,10,11
1522653444016631,-37,2,3,1,-2,-17,0,0
1522653444016631,36,-4,-3,-3,-3,25,10,12
1522653444037687,-47,-2,-9,-5,4,-6,-16,-18
1522653444037687,28,2,3,5,8,8,22,7
1522653444039692,34,6,0,-1,0,-12,2,8
1522653444039692,-28,-3,-2,-1,2,46,10,-5
1522653444051724,-3,3,6,1,-4,-23,-13,-12
1522653444051724,-54,-11,-4,-2,8,17,13,-2
1522653444060749,56,3,-5,-4,-9,-46,-3,15
1522653444060749,0,2,2,1,2,-18,-8,-3
1522653444074787,-2,-3,-4,0,-5,38,21,-6
1522653444074787,6,2,4,0,0,-25,-8,1
1522653444081804,-22,6,5,-1,8,17,27,3
1522653444081804,-3,-13,-23,-11,-12,-27,-18,-6
1522653444097847,-12,1,1,0,-1,-30,-12,3
1522653444097847,-5,6,4,3,8,79,23,-3
1522653444099853,8,-8,-3,-1,-9,-7,-9,0
1522653444099853,-10,-1,-1,2,-4,-32,4,-5
1522653444111884,44,4,0,-3,5,14,5,7
1522653444111884,-16,-1,-2,-4,3,-7,7,3
1522653444120909,-14,-4,1,-3,-2,7,-19,-10
1522653444120909,4,5,7,3,3,13,11,2
1522653444134945,2,-1,-4,-3,-5,14,-10,1
1522653444134945,54,-3,-12,-10,-4,-50,-1,5
1522653444141965,-25,1,3,3,3,-5,-6,-2
1522653444141965,19,-1,5,-1,-1,26,16,-5
1522653444158007,-60,-2,-3,-3,-6,-20,-17,-1
1522653444158007,55,0,-1,-2,-2,-17,-22,1
1522653444159010,-28,0,4,1,1,0,15,-7
1522653444159010,36,4,1,-3,-1,16,4,8
1522653444180066,-27,-5,-4,-2,-1,23,7,-3
1522653444180066,15,4,1,3,3,19,-9,9
1522653444182071,3,-3,-1,-4,-7,-13,-15,-2
1522653444182071,3,-4,-5,-3,2,-22,-11,-4
1522653444195106,-36,-3,3,3,0,-14,9,-3
1522653444195106,3,-3,0,-1,-9,20,-17,-11
1522653444201121,5,8,1,-3,2,-20,0,12
1522653444201121,-12,1,2,1,2,8,2,1
1522653444218167,0,-1,-2,0,-10,-35,-2,-3
1522653444218167,-2,3,6,6,11,0,0,-4
1522653444219170,22,-5,-4,-5,1,35,2,3
1522653444219170,-7,-3,1,0,8,-14,-6,-6
1522653444240226,10,0,-2,-2,-11,-16,6,2
1522653444240226,6,-1,0,-3,2,3,-6,-6
1522653444242231,10,6,3,1,1,29,7,-10
1522653444242231,-13,0,-4,-4,-9,-30,-15,4
1522653444254263,-5,-7,-1,1,6,-1,10,-9
1522653444254263,-20,0,-3,-1,12,12,5,8
1522653444261281,-10,-9,-6,-5,-9,23,-15,-10
1522653444261281,6,-3,0,3,-1,-26,4,2
1522653444278327,39,11,9,6,1,1,-5,2
1522653444278327,-42,-2,2,3,2,-10,-6,-10
1522653444279330,-36,-6,-5,-4,2,-5,-9,1
1522653444279330,4,4,6,6,-8,-12,8,1
1522653444300386,-8,-1,-6,-4,-2,15,4,1
1522653444300386,7,1,0,2,-4,-7,-4,1
1522653444302391,29,0,-2,-4,2,1,3,-4
1522653444302391,-32,-3,3,3,1,9,-6,-11
1522653444314423,1,-3,-2,-4,1,2,-6,0
1522653444314423,0,3,-2,-6,-4,-13,1,-3
1522653444321441,19,2,-2,-1,6,27,8,2
1522653444321441,-30,-2,2,1,-1,3,-1,-14
1522653444337484,79,-6,-4,-8,-14,-23,0,20
1522653444337484,-25,-1,-6,-2,11,-2,-4,-4
1522653444339490,12,4,1,1,-2,0,5,-5
1522653444339490,-46,4,1,1,-1,-7,-2,-3
1522653444360546,43,1,-4,-2,-5,12,2,15
1522653444360546,-51,-12,-4,-3,-2,-52,-10,-7
1522653444361548,-2,4,4,2,3,-1,8,3
1522653444361548,34,-4,-3,-1,-7,-4,-11,-17
1522653444374583,-42,-2,0,2,2,0,2,-1
1522653444374583,16,2,-1,-5,-13,-13,-6,12
1522653444381602,14,0,4,4,1,-17,-5,1
1522653444381602,8,-6,-6,-4,-14,-28,-3,10
1522653444397644,-6,5,0,2,13,34,10,-4
1522653444397644,-63,-2,5,4,8,3,-6,-27
1522653444399650,57,-4,-7,-8,-7,-13,3,32
1522653444399650,20,6,4,3,-10,-26,-3,-9
1522653444420706,-35,-3,-1,-1,18,69,5,3
1522653444420706,37,5,2,0,-7,-60,-3,5
1522653444421708,-24,-13,-8,-5,-7,-3,-10,-2
1522653444421708,22,4,-1,0,11,6,3,16
1522653444433740,-26,1,2,2,-10,-23,-4,-23
1522653444433740,8,-3,-1,-1,-3,7,6,-5
1522653444442764,-1,-3,-4,-5,10,21,-3,9
1522653444442764,59,-3,-5,-5,1,-24,-14,-1
1522653444457804,-106,-6,4,8,24,77,22,-16
1522653444457804,63,6,0,2,-8,-35,1,22
1522653444459810,-2,5,6,12,2,-4,8,-5
1522653444459810,0,-1,-3,0,14,4,-8,-7
1522653444479863,37,3,-2,-5,-13,-16,-8,-3
1522653444479863,4,-11,-9,-8,-15,-26,2,8
1522653444481869,-37,-4,-2,2,13,59,7,-3
1522653444481869,-3,-2,1,3,2,13,2,-9
1522653444493900,-31,-6,1,2,-18,-97,-20,-18
1522653444493900,55,4,-7,-8,1,27,13,24
1522653444502925,32,-1,-3,-12,-9,-4,-9,10
1522653444502925,-31,-1,0,10,-15,-76,-18,-6
1522653444517964,-29,0,9,10,3,1,-9,-12
1522653444517964,0,1,3,0,0,0,3,-5
1522653444519970,-22,0,-2,-4,-2,-4,10,-10
1522653444519970,-18,-4,-2,-2,11,49,7,-4
1522653444540023,99,1,-8,-7,-10,-18,2,35
1522653444540023,-30,3,0,2,-3,-6,-4,-6
1522653444542028,-24,-2,3,4,10,74,22,-8
1522653444542028,-5,4,4,5,-5,-18,6,12
1522653444554061,-2,0,-5,-4,-8,37,-6,-10
1522653444554061,-49,-8,-1,1,6,-3,-7,-14
1522653444563084,-8,-2,-1,0,-4,-23,-1,-7
1522653444563084,40,3,-3,-3,-3,8,4,17
1522653444578124,59,9,4,0,3,34,11,17
1522653444578124,-79,-7,1,-2,10,59,-10,-25
1522653444579127,12,-4,-4,4,1,-5,0,6
1522653444579127,6,-10,-10,-11,-2,46,5,-3
1522653444600183,46,2,-6,-5,-24,-30,-1,12
1522653444600183,27,1,0,-7,-9,-30,-16,-7
1522653444602188,-81,2,10,13,9,-24,-13,-7
1522653444602188,-20,-2,1,2,-6,19,0,1
1522653444614220,14,-8,-5,-3,8,-19,-10,-4
1522653444614220,-23,1,-1,-6,-11,-32,-11,1
1522653444623244,59,3,-2,-7,1,33,22,6
1522653444623244,-31,0,1,3,3,-24,-11,-4
1522653444638284,-24,1,3,4,-2,-11,-2,-8
1522653444638284,2,-2,2,4,-5,-11,1,2
1522653444639287,96,3,-4,-8,-7,-31,-20,5
1522653444639287,-115,-5,0,1,10,35,14,-9
1522653444660343,16,0,3,2,14,-31,-13,-5
1522653444660343,-23,3,1,-1,-20,44,11,5
1522653444662348,-4,-8,-6,-7,-12,-61,-29,-13
1522653444662348,63,1,-2,-3,-5,5,5,-5
1522653444674382,-6,-2,-6,-1,7,50,3,-9
1522653444674382,33,0,2,6,20,44,8,8
1522653444683405,-68,-8,-10,-13,-23,-82,5,0
1522653444683405,48,7,-1,-3,-10,-32,16,-1
1522653444697442,-50,-1,2,5,5,-28,15,4
1522653444697442,53,4,0,-1,8,38,6,-5
1522653444699447,-74,-15,-3,-3,9,53,7,-2
1522653444699447,114,7,-2,-3,1,-68,-34,22
1522653444720503,-77,-3,-2,-5,-14,15,13,-10
1522653444720503,-22,-14,-9,-1,11,-10,3,0
1522653444721506,-12,13,5,3,1,-9,-3,11
1522653444721506,23,2,2,-1,3,-1,-13,-16
1522653444733538,-14,-5,-8,-7,-6,7,8,-2
1522653444733538,-22,0,3,-3,-2,6,-26,-7
1522653444742561,69,5,0,-5,-6,-23,-7,1
1522653444742561,-57,-10,-4,2,0,44,12,11
1522653444757602,48,1,-2,0,2,6,-8,-2
1522653444757602,-44,-5,-2,-4,-4,-22,16,2
1522653444759607,37,0,1,1,5,17,1,4
1522653444759607,-5,3,-1,0,-5,14,-7,-4
1522653444780663,-24,-4,1,1,3,-8,-11,-9
1522653444780663,28,3,2,1,-2,-12,7,4
1522653444781666,-7,6,5,3,-3,0,-29,0
1522653444781666,-29,-13,-7,-2,15,65,40,-9
1522653444793698,3,-1,7,2,-13,-11,1,0
1522653444793698,-28,7,-1,-5,-3,2,-6,13
1522653444802721,27,0,-1,-6,-3,-41,8,2
1522653444802721,-30,2,3,5,8,43,1,-2
1522653444817762,48,-3,-8,0,-2,69,3,15
1522653444817762,-13,5,6,2,-1,-29,8,-10
1522653444819767,31,-2,-1,0,5,22,5,3
1522653444819767,-45,-3,0,2,-6,-22,-2,-1
1522653444840823,22,7,5,2,1,-31,1,5
1522653444840823,-16,-4,0,1,-5,0,-8,-1
1522653444841826,24,0,-3,-5,-1,-4,-13,-12
1522653444841826,-11,-1,1,0,-10,-29,-8,-7
1522653444853858,-1,-2,-1,2,10,7,-6,3
1522653444853858,67,-4,-10,-6,4,26,-3,16
1522653444862882,-57,-3,3,1,0,30,27,-2
1522653444862882,9,-3,-4,1,-3,-11,-9,-16
1522653444877922,-4,-5,-5,-4,-8,-19,-8,5
1522653444877922,-9,3,5,3,12,19,7,-16
1522653444879927,1,-6,-3,1,10,10,6,11
1522653444879927,-34,0,-2,0,-7,2,3,-7
1522653444899980,27,-1,2,5,9,8,14,1
1522653444899980,27,4,-3,-5,-12,-30,-4,16
1522653444901986,-47,-1,0,0,-9,20,3,-24
1522653444901986,48,3,0,1,1,-27,-1,24
1522653444914019,-32,-5,-1,1,-5,-19,-4,-21
1522653444914019,56,5,4,-2,1,14,10,14
1522653444923042,-50,-5,-4,-2,-1,-8,-9,-15
1522653444923042,18,4,2,2,4,0,-2,-1
1522653444938082,33,7,1,-3,-7,-12,9,7
1522653444938082,-5,-11,-10,-6,-7,-59,-18,-10
1522653444939084,4,7,9,13,24,51,30,21
1522653444939084,-10,-9,-9,-5,-16,14,-2,-8
1522653444960140,16,-7,-6,-4,-5,-44,-10,1
1522653444960140,-32,0,2,7,2,0,-19,-21
1522653444962146,10,1,-2,-7,-9,-32,-11,-15
1522653444962146,-21,4,6,3,-5,-20,6,17
1522653444974178,-13,3,-1,6,20,26,4,4
1522653444974178,81,2,-1,0,-10,-11,-3,12
1522653444983202,-84,-16,-12,-10,-14,-25,-20,-21
1522653444983202,-11,3,8,5,2,23,11,0
1522653444998242,37,-3,-7,-7,-10,-33,-12,10
1522653444998242,-5,-1,-2,-3,5,34,13,1
1522653444999245,-21,0,0,2,3,-44,-23,-21
1522653444999245,39,-4,-4,0,2,31,2,10
1522653445020300,-11,7,4,3,2,-21,-12,-11
1522653445020300,-58,-3,0,-1,-6,-4,1,0
1522653445022305,10,-3,-4,-4,-22,-28,13,7
1522653445022305,-11,-3,-3,4,5,-56,-23,-13
1522653445034338,-15,-3,2,3,-9,-53,-15,-22
1522653445034338,24,4,2,2,7,30,16,21
1522653445043362,18,1,-7,-4,-6,-3,2,5
1522653445043362,15,-4,1,5,-9,-33,-13,-4
1522653445057399,-2,1,-5,-4,1,28,-3,-1
1522653445057399,-40,1,5,0,0,-51,-10,-19
1522653445064417,14,-6,0,3,5,68,17,7
1522653445064417,66,7,-7,-6,1,-5,-10,11
1522653445080460,-40,1,2,5,4,38,-6,-14
1522653445080460,-16,-2,3,2,-1,17,27,0
1522653445082466,15,7,3,-4,3,1,1,15
1522653445082466,-2,-1,-3,-3,-3,44,6,-4
1522653445102519,-36,-4,2,-2,-4,0,-1,-4
1522653445102519,-3,-4,-5,-5,1,12,-8,-2
1522653445104524,39,5,5,5,19,48,2,8
1522653445104524,-29,2,5,1,-6,-86,12,-3
1522653445117559,-13,-7,-5,-1,2,-17,2,5
1522653445117559,20,-3,-6,-2,2,45,-14,-6
1522653445123575,51,-1,-7,-5,-5,-40,-19,9
1522653445123575,31,3,7,4,6,12,-7,-7
1522653445140620,-78,-10,2,0,6,47,21,-16
1522653445140620,47,8,-12,-17,-14,-62,-15,20
1522653445141623,-2,-3,0,0,9,36,21,-1
1522653445141623,17,0,-3,-2,-5,-17,-14,-9
1522653445162679,37,0,3,0,-10,-46,0,11
1522653445162679,-30,-5,1,6,21,28,-2,-16
1522653445164685,-1,10,5,0,-7,-55,-8,11
1522653445164685,-33,-5,-2,3,6,67,18,-4
1522653445176717,27,5,3,3,2,3,-7,-4
1522653445176717,-15,-1,-7,-9,-3,-28,-19,1
1522653445183735,-18,-7,-8,-5,-1,59,-12,-8
1522653445183735,-62,-4,0,1,0,-10,25,-9
1522653445200780,16,9,4,-1,-10,4,-32,-4
1522653445200780,-9,-6,-6,-11,-10,-20,8,6
1522653445201783,2,-4,3,2,-6,-54,-33,-11
1522653445201783,-13,-1,3,7,-2,54,-5,-5
1522653445222839,33,8,0,-2,4,11,30,22
1522653445222839,22,4,6,6,-5,-12,-10,-6
1522653445224844,-40,-13,-2,-2,-2,20,7,-8
1522653445224844,32,-1,-10,-8,0,5,-4,4
1522653445236876,-12,1,3,0,-1,-35,-34,-3
1522653445236876,30,-2,0,-2,-2,77,53,10
1522653445243895,-7,-4,-5,-3,3,-47,-5,-10
1522653445243895,24,3,2,1,1,25,-3,5
1522653445259938,-39,-7,-14,-7,-7,8,16,7
1522653445259938,-31,-2,1,-3,-4,-23,-16,1
1522653445261943,3,-5,-4,0,0,20,18,14
1522653445261943,-44,1,0,0,-4,-28,-10,-15
1522653445282999,31,-5,4,3,-1,-15,-2,-3
1522653445282999,-8,-8,-10,-9,-4,20,-5,-2
1522653445284002,5,4,3,7,12,28,31,-2
1522653445284002,20,3,5,6,-12,-14,-2,7
1522653445297036,4,-1,-3,-2,10,6,-6,-5
1522653445297036,12,0,-4,-3,0,26,1,4
1522653445304055,-22,3,5,0,-8,-19,9,2
1522653445304055,1,-8,-5,-3,0,-26,-11,1
1522653445320098,8,-1,-1,-1,4,-5,-6,-12
1522653445320098,49,9,10,7,3,34,21,14
1522653445322103,-79,-5,-2,-3,0,11,-27,-4
1522653445322103,35,3,4,2,4,7,5,4
1522653445343159,-48,-4,0,2,0,32,19,-4
1522653445343159,36,-1,-10,-13,-13,-76,-16,14
1522653445344162,-1,0,1,0,0,20,0,0
1522653445344162,7,-6,-8,-1,2,-24,0,2
1522653445356193,-48,2,1,-2,-4,-4,-4,-5
1522653445356193,-19,-4,3,1,4,-8,-6,-14
1522653445365217,11,1,3,2,1,-10,-3,-20
1522653445365217,3,-4,-8,-13,-18,-55,0,35
1522653445380257,19,0,-5,0,10,47,7,10
1522653445380257,-31,-4,1,2,-3,-4,0,-14
1522653445382263,8,1,0,0,3,-1,-6,-15
1522653445382263,-26,-4,-3,0,10,10,8,-2
1522653445403319,32,-2,-1,0,-9,-17,10,5
1522653445403319,-24,0,2,-1,-1,-1,2,-6
1522653445404322,40,2,-3,-3,-7,-11,-8,1
1522653445404322,5,5,3,-2,1,8,-3,-7
1522653445416354,12,0,1,-2,-8,-24,5,12
1522653445416354,-22,-5,-1,1,3,4,-8,-11
1522653445425377,25,6,2,5,-4,-17,3,-6
1522653445425377,-58,-7,-1,5,11,24,-3,-32
1522653445440417,-7,4,1,0,-4,0,-1,11
1522653445440417,13,-5,-6,-4,-3,-17,14,41
1522653445442423,-7,-1,-4,2,-4,-19,-2,0
1522653445442423,15,0,1,-2,-10,2,-7,1
1522653445462476,-38,-6,-3,3,5,-11,-8,-9
1522653445462476,-3,2,4,2,2,29,-5,-17
1522653445464482,31,-1,1,-2,1,-4,0,3
1522653445464482,-42,-6,-2,3,13,78,18,15
1522653445476514,81,8,1,0,-13,-41,-3,3
1522653445476514,-52,-2,2,2,6,1,-2,-9
1522653445485538,19,-5,-6,2,3,-2,-5,2
1522653445485538,2,0,6,5,9,33,-14,-14
1522653445500577,-41,-3,-3,-5,-18,-32,5,1
1522653445500577,13,-1,-3,-2,0,-2,4,-2
1522653445501580,19,2,-1,1,-3,-5,-5,3
1522653445501580,-3,1,0,4,-1,-13,-4,-4
1522653445522636,-17,-2,-3,-4,-3,-7,13,4
1522653445522636,0,2,3,5,5,-8,-4,-13
1522653445524642,-39,-5,-1,-1,-9,-11,5,1
1522653445524642,68,2,-4,0,-4,-32,-4,4
1522653445536674,11,0,-1,0,7,32,2,3
1522653445536674,-17,-1,-2,-1,2,-4,-1,-6
1522653445545697,3,-1,0,0,1,16,0,5
1522653445545697,-22,2,1,-3,-12,-9,-1,-6
1522653445560737,30,1,-1,2,-1,-19,-10,-12
1522653445560737,-9,-1,-2,-4,7,35,10,8
1522653445561740,-67,-13,-5,-7,-10,-6,8,-4
1522653445561740,66,3,-3,-1,1,-34,3,2
1522653445582796,-1,3,1,3,7,80,8,8
1522653445582796,45,9,5,3,-4,2,21,8
1522653445584802,-26,-7,-1,-1,2,-28,-19,-13
1522653445584802,-13,-7,3,-1,-11,-16,4,-9
1522653445596833,0,0,-4,-6,10,-2,-5,7
1522653445596833,30,0,-4,-7,1,-2,-14,1
1522653445605857,-62,5,4,1,1,29,-1,0
1522653445605857,26,2,-3,-11,-2,-22,-2,3
1522653445620898,8,-8,-3,-3,-7,31,3,1
1522653445620898,-42,-1,4,10,-11,-13,-10,-8
1522653445621900,51,7,0,-1,11,-3,8,14
1522653445621900,-18,-1,3,6,-1,-19,-1,-14
1522653445642956,19,1,-5,-7,4,-29,-43,-9
1522653445642956,0,-5,-3,-8,2,35,18,11
1522653445644962,5,-1,0,0,-3,-11,19,1
1522653445644962,0,3,2,1,0,31,-9,0
1522653445656993,-88,-5,-1,1,8,35,19,-7
1522653445656993,59,-6,-5,-7,-3,-9,22,-8
1522653445666018,5,2,2,4,-1,-18,-14,0
1522653445666018,-7,-2,-12,-8,-1,15,15,8
1522653445680055,-30,1,5,2,-13,-28,-28,-11
1522653445680055,16,3,-2,-5,-5,-12,-11,6
1522653445682060,22,-3,-1,-2,-6,-12,-8,-6
1522653445682060,-24,-5,-3,6,-1,37,14,1
1522653445703116,22,1,3,2,16,-19,1,3
1522653445703116,25,-1,-1,-3,-6,2,-3,-3
1522653445704119,-7,-1,1,2,1,1,20,-3
1522653445704119,-9,-8,-2,2,-1,6,-43,6
1522653445716151,52,10,-2,-4,-8,-46,45,7
1522653445716151,-77,-7,1,-3,16,-21,-52,-5
1522653445725175,-16,-2,0,2,-3,-17,-25,-14
1522653445725175,-32,2,7,8,10,40,37,-11
1522653445740215,39,0,-5,-2,-7,-5,1,9
1522653445740215,-5,0,-4,-5,-2,-18,7,-5
1522653445742220,18,-2,-2,-4,-1,24,3,1
1522653445742220,-40,-3,-2,-4,-6,-4,-5,0
1522653445763276,56,3,5,4,3,0,-8,-3
1522653445763276,-23,3,7,0,3,10,5,-5
1522653445764279,-19,-3,-6,-3,-2,-4,-3,-1
1522653445764279,-10,-6,-6,-4,-5,-16,-8,5
1522653445776311,16,2,2,0,1,3,0,-4
1522653445776311,-2,3,-2,-2,-9,-5,3,4
1522653445785335,-24,-1,-1,1,2,52,-4,-1
1522653445785335,37,-1,0,1,1,-19,-9,2
1522653445800375,-50,-7,1,-1,-4,11,1,-5
1522653445800375,-8,-5,-6,-3,-5,-15,-6,-2
1522653445802380,32,4,0,0,2,7,2,6
1522653445802380,29,-5,-5,-3,-5,-26,-5,1
1522653445822433,-38,-3,-2,-5,-3,-8,1,-5
1522653445822433,0,0,3,0,0,16,4,-6
1522653445824439,38,0,-2,-4,-6,-12,-6,1
1522653445824439,-29,0,2,0,-5,-30,-17,-4
1522653445836471,0,-4,-1,2,1,0,-10,-4
1522653445836471,-20,2,-3,-6,-2,-38,2,9
1522653445845495,16,-3,-1,3,3,31,8,0
1522653445845495,-8,7,2,2,-11,-1,3,-2
1522653445860535,38,-2,2,-1,6,27,-15,-16
1522653445860535,-47,-4,0,1,1,-19,-2,7
1522653445861538,2,-7,-9,-6,-10,-17,-12,-3
1522653445861538,-9,1,0,1,1,2,0,-12
1522653445882593,-9,3,2,-1,-2,-9,8,11
1522653445882593,19,-3,-1,-1,3,24,0,-3
1522653445884599,23,-4,-1,-3,1,1,9,1
1522653445884599,20,2,0,-1,6,18,9,8
1522653445896631,-42,-5,0,0,-3,-19,-9,-4
1522653445896631,2,1,2,1,0,-6,15,6
1522653445905655,-13,2,-1,-2,-6,-10,-8,3
1522653445905655,48,-2,-2,-2,-2,-11,-9,-1
1522653445920695,-15,-3,-4,-6,1,6,3,-1
1522653445920695,-30,2,2,1,1,-1,0,-8
1522653445921698,-3,1,2,3,2,-4,0,-11
1522653445921698,38,4,-1,-5,-2,-3,0,18
1522653445942753,-26,-7,-4,0,-6,-6,1,-5
1522653445942753,3,3,1,-3,-10,-1,-7,-8
1522653445944759,16,-2,-5,-1,9,33,10,13
1522653445944759,-26,0,0,5,10,-20,-4,-12
1522653445956791,11,-3,-7,-3,-3,-5,4,14
1522653445956791,4,2,2,2,3,20,-15,-8
1522653445965815,-46,1,1,4,-12,-26,-4,-8
1522653445965815,-42,-4,-1,-1,0,-15,-6,-20
1522653445979852,66,1,-2,-3,-1,36,11,25
1522653445979852,-26,-5,-2,-2,0,-46,-10,-6
1522653445986871,50,2,-1,2,-3,26,5,5
1522653445986871,52,-2,-6,3,8,88,4,-6
1522653446002914,-90,-6,4,1,-3,-61,-26,-13
1522653446002914,8,3,-1,0,-1,11,4,-1
1522653446004919,51,-8,-10,-9,0,-73,-5,4
1522653446004919,-52,-2,7,7,-2,21,14,-21
1522653446016951,32,9,3,-3,4,22,1,17
1522653446016951,118,-3,-9,-8,-11,-8,1,20
1522653446025975,-98,-9,1,5,18,30,-3,-18
1522653446025975,22,7,2,7,8,30,5,9
1522653446040012,-25,1,7,4,-13,-29,19,-13
1522653446040012,51,2,-1,-2,9,44,3,15
1522653446046028,-33,-2,-4,2,-9,14,-2,-10
1522653446046028,-11,0,0,-2,-3,-19,-12,-4
1522653446063073,4,-4,-7,-4,-10,22,1,-6
1522653446063073,2,-5,-3,2,5,-31,-2,-2
1522653446064076,76,9,4,0,2,10,-1,4
1522653446064076,-58,-3,1,-3,-6,1,19,10
1522653446085132,31,-2,-5,-6,5,-47,-19,-15
1522653446085132,-49,-8,1,-6,-13,40,-10,-22
1522653446087138,-6,-3,-1,3,2,-38,5,9
1522653446087138,19,2,-5,-1,-10,-53,-16,8
1522653446100172,-57,1,1,6,23,71,7,-1
1522653446100172,6,1,1,-3,-20,-47,14,-4
1522653446106188,62,2,0,-1,5,-8,-7,8
1522653446106188,5,3,-2,-2,-4,-12,1,6
1522653446123233,-6,0,1,1,-4,34,16,7
1522653446123233,-35,-5,-1,2,7,-5,-8,-12
1522653446124236,-19,-1,0,-1,-7,-22,-25,-4
1522653446124236,-5,-4,-1,0,2,-4,2,0
1522653446145292,73,5,2,-3,-6,-6,-6,-7
1522653446145292,-50,-11,-8,-5,6,37,19,18
1522653446147297,15,4,-1,-5,-2,-32,-16,-1
1522653446147297,6,-7,0,-1,-6,8,-13,-1
1522653446159329,-4,-2,-7,-9,-3,-39,-4,-8
1522653446159329,-8,6,8,3,-11,-5,31,5
1522653446166348,-10,-3,-4,0,7,40,9,-9
1522653446166348,7,0,-3,-4,4,-12,-7,3
1522653446182390,-34,1,4,-2,-3,-35,-6,-6
1522653446182390,32,0,-5,1,12,43,6,12
1522653446184396,9,5,4,3,-12,3,23,1
1522653446184396,-36,-13,-5,1,2,-2,-17,-4
1522653446205452,19,-2,-1,-3,-6,-50,9,3
1522653446205452,-28,-3,1,-3,10,4,-9,-5
1522653446207457,3,7,5,6,-5,8,-8,-9
1522653446207457,6,5,1,-4,-7,-9,34,8
1522653446219489,-10,-12,-14,-5,-10,-2,-33,-6
1522653446219489,21,7,0,-2,5,33,37,16
1522653446226508,-10,-3,6,5,-1,-2,0,-4
1522653446226508,17,1,-2,-5,-4,-17,-19,-9
1522653446242550,-70,-3,1,-1,6,23,7,0
1522653446242550,-11,3,4,-3,-4,-18,-25,-29
1522653446244556,41,-3,-7,-5,4,33,24,24
1522653446244556,5,7,2,0,-10,-39,-5,-11
1522653446265612,26,-2,-1,1,12,59,16,13
1522653446265612,0,0,3,2,1,-24,-19,-4
1522653446266615,-23,1,4,1,-2,-17,-8,-10
1522653446266615,-18,-5,-1,-2,6,59,15,-5
1522653446279649,4,7,5,3,-6,-50,-14,8
1522653446279649,-2,3,4,4,6,23,8,1
1522653446286668,5,-6,-6,-3,-4,-23,-16,-7
1522653446286668,-5,-2,-6,-4,-6,-10,5,11
1522653446302711,10,3,-4,-5,5,5,-10,-9
1522653446302711,-1,4,4,5,-1,31,-8,4
1522653446304716,19,0,-3,0,-7,-21,23,5
1522653446304716,-38,-5,-2,0,2,-9,-7,-8
1522653446325772,6,5,1,-1,2,18,12,5
1522653446325772,44,0,-7,-6,-6,-32,-19,1
1522653446326775,-79,-12,-2,3,9,36,-3,-14
1522653446326775,65,3,-2,-2,-4,-16,-5,7
1522653446338806,2,1,3,-3,3,47,18,6
1522653446338806,-22,-6,-3,-1,-10,-25,3,-4
1522653446347831,21,2,1,0,-5,-23,-12,9
1522653446347831,-13,-1,0,1,10,17,-1,-14
1522653446362870,-8,1,3,-1,-12,-8,7,-13
1522653446362870,0,-3,-3,-6,-4,-14,-2,4
1522653446364876,-37,-5,-4,-2,4,10,-5,-11
1522653446364876,-4,-1,1,2,-6,-3,-6,2
1522653446384929,13,1,-4,-9,-1,-8,-9,3
1522653446384929,15,2,2,0,-1,-3,3,-2
1522653446386935,-6,-4,-2,-1,0,1,0,4
1522653446386935,-8,1,-1,0,2,9,18,6
1522653446398966,-5,3,4,1,2,-7,-5,5
1522653446398966,16,-8,-5,-3,-1,-16,-1,0
1522653446407991,11,6,1,4,-2,11,-1,-4
1522653446407991,-33,-3,-1,-2,-8,-21,2,3
1522653446423030,1,-3,-1,2,4,34,8,-1
1522653446423030,0,-3,-5,-4,-5,-35,-6,-4
1522653446424034,-3,2,0,-3,-5,-24,-4,-2
1522653446424034,23,0,3,1,0,4,1,6
1522653446445089,18,1,0,-2,3,-4,-2,2
1522653446445089,-54,-11,-5,3,1,8,0,-2
1522653446447095,13,-2,-7,-5,-9,-16,-2,6
1522653446447095,8,2,0,-1,-1,-10,-6,-3
1522653446459126,-13,0,-1,-1,1,-14,0,-15
1522653446459126,5,-1,-2,1,1,2,-11,-6
1522653446468151,-38,-1,-2,-1,-9,5,6,1
1522653446468151,9,-1,-1,0,11,2,-13,-4
1522653446483190,11,-1,-3,1,-3,8,0,10
1522653446483190,-13,-2,-3,0,1,-4,-10,-7
1522653446484194,-16,-1,5,3,4,54,10,-20
1522653446484194,39,-2,-4,-4,-7,-75,-13,16
1522653446505249,1,-3,-3,-3,-6,-10,-11,2
1522653446505249,-45,-3,-1,3,9,6,1,-14
1522653446507255,14,1,-2,1,-3,3,-5,9
1522653446507255,-8,5,2,-3,-3,15,2,-12
1522653446519287,5,-5,-5,-2,4,-14,-10,1
1522653446519287,-18,2,3,1,-6,-18,-8,-19
1522653446528311,53,0,-5,-1,10,15,1,21
1522653446528311,37,0,2,1,0,13,8,5
1522653446543351,-53,-5,-3,0,2,-11,-4,-7
1522653446543351,21,2,1,2,4,3,-2,-7
1522653446544353,-27,-7,-2,5,0,-11,-13,-18
1522653446544353,0,0,0,-2,-7,-1,1,7
1522653446565409,31,-3,-2,-3,-8,-2,10,21
1522653446565409,10,3,3,3,-7,-42,-1,-2
1522653446567415,-6,2,3,2,8,34,-2,-5
1522653446567415,-28,-4,-4,0,7,-44,-10,-10
1522653446579446,-17,1,5,0,-2,63,26,-10
1522653446579446,50,3,-1,-4,-2,-19,-12,16
1522653446588471,-10,-2,-1,-2,-2,1,24,9
1522653446588471,-51,-2,0,4,0,-17,-25,-11
1522653446602508,3,2,0,0,-10,-48,-2,1
1522653446602508,27,7,0,5,6,44,3,7
1522653446604514,-7,-1,1,3,2,3,4,-1
1522653446604514,-10,-3,0,0,-1,12,-1,-6
1522653446625569,-4,-1,2,-4,2,37,-6,-1
1522653446625569,-23,-1,0,-1,3,55,14,2
1522653446626572,24,6,5,1,-4,-48,-2,-8
1522653446626572,-74,-5,0,-2,-12,-23,-3,-6
1522653446639606,103,2,-15,-11,-9,-31,-20,22
1522653446639606,-60,-8,-6,-1,-2,20,3,-3
1522653446647628,-1,-2,0,3,-4,5,2,-7
1522653446647628,32,3,2,-1,0,-26,-18,-2
1522653446662668,-39,-5,3,3,5,31,11,-8
1522653446662668,23,-1,0,-4,1,-13,-14,1
1522653446664674,-19,0,-5,-8,-9,-33,-10,-1
1522653446664674,10,-2,-1,0,0,31,4,12
1522653446685729,1,-3,-5,-6,6,28,16,-4
1522653446685729,-12,-2,3,4,11,18,27,-1
1522653446686732,-9,-1,4,4,-18,-75,-29,0
1522653446686732,20,-1,-4,-1,6,69,27,-8
1522653446698764,3,4,2,-4,3,-43,-22,6
1522653446698764,6,-1,1,1,2,-5,-11,-9
1522653446707788,22,-7,-8,-4,1,3,-4,1
1522653446707788,-40,1,0,-1,-2,33,25,-1
1522653446722828,34,0,-1,-3,-5,-22,-1,6
1522653446722828,-2,-2,-2,-6,-2,-14,-2,2
1522653446724833,-20,-2,-4,0,-6,13,-5,-8
1522653446724833,19,0,1,0,-2,38,0,-3
1522653446744887,0,0,5,1,3,-10,5,2
1522653446744887,30,-1,-2,-1,5,5,-18,-1
1522653446746892,-23,1,-1,1,1,-26,-3,1
1522653446746892,5,-1,1,-1,5,-2,9,-7
1522653446758924,-39,-3,-3,-2,1,-5,11,-8
1522653446758924,18,-3,-4,-2,2,22,14,9
1522653446767948,7,1,0,-2,0,-35,-38,-3
1522653446767948,35,0,-5,-8,-17,-45,-37,-2
1522653446782988,-35,-10,-6,-2,1,53,12,0
1522653446782988,9,1,-2,-1,-8,-43,20,9
1522653446783991,-35,1,-2,-2,1,40,2,-14
1522653446783991,21,-7,-4,-2,14,30,21,10
1522653446805047,1,5,2,0,-1,-15,-21,-13
1522653446805047,-42,-7,-3,-3,-4,24,3,-14
1522653446807052,62,4,-3,0,3,17,10,20
1522653446807052,-71,-2,4,2,-2,-10,-5,-8
1522653446819084,32,1,0,-1,0,-6,-10,0
1522653446819084,24,0,-1,-2,-12,-2,-1,-4
1522653446828108,4,0,4,-1,-1,8,9,-6
1522653446828108,-17,0,-4,-3,-3,-24,-18,2
1522653446842145,14,1,3,-1,-1,6,8,3
1522653446842145,-4,2,-3,-1,0,-14,4,2
1522653446849164,5,-6,-4,-1,-5,-1,2,4
1522653446849164,9,1,0,1,7,16,0,1
1522653446865206,-33,-4,0,-1,1,-3,-6,-19
1522653446865206,6,4,6,4,-4,-33,-20,-4
1522653446867212,12,2,-5,-5,-5,40,15,1
1522653446867212,-39,-2,-2,-1,3,-1,8,-10
1522653446879244,41,-1,-3,-1,2,-3,-5,19
1522653446879244,10,-2,-2,-4,-4,-17,-5,-3
1522653446888268,-70,-8,-2,0,0,5,0,-9
1522653446888268,47,7,3,-1,1,14,1,6
1522653446903308,2,0,-1,-6,-8,-13,2,8
1522653446903308,-43,-7,-4,0,-4,-1,-10,-10
1522653446904311,27,9,7,5,7,6,9,-1
1522653446904311,19,0,-1,-3,1,-1,-1,7
1522653446925366,-57,-11,-5,-2,2,5,10,-8
1522653446925366,64,6,-5,-6,-9,-6,3,17
1522653446927372,-26,-6,1,5,4,-2,7,-8
1522653446927372,-3,0,1,1,-3,-4,4,-11
1522653446939404,-9,4,3,-1,-2,-13,-5,-9
1522653446939404,-2,-5,-8,-4,-4,3,-6,-2
1522653446948428,-5,-2,0,0,2,1,2,1
1522653446948428,27,1,-2,-3,-13,-4,3,7
1522653446962465,-2,0,2,-1,-1,-15,-8,-2
1522653446962465,-27,1,5,5,10,11,-4,-10
1522653446969484,47,3,1,2,4,7,2,2
1522653446969484,-13,0,1,2,-3,-5,5,4
1522653446985526,-39,-7,-8,-5,-3,-14,-10,-9
1522653446985526,-7,-1,1,5,5,4,1,-1
1522653446987532,1,1,-2,-3,-2,0,-6,-2
1522653446987532,14,-1,1,1,5,-10,-5,1
1522653447007585,-7,3,1,0,-8,-5,0,4
1522653447007585,15,-1,-2,0,-4,10,-2,-6
1522653447009590,24,-6,-6,-2,-1,-14,-1,3
1522653447009590,-77,3,2,2,0,-18,-4,-3
1522653447022625,27,0,-6,-1,-4,13,-2,2
1522653447022625,3,-2,-2,1,-10,1,0,6
1522653447028641,-14,-3,0,2,-2,-18,-13,-23
1522653447028641,65,9,1,0,12,-3,-8,16
1522653447045686,-14,0,0,-4,-13,-38,-4,-2
1522653447045686,-43,-6,1,2,3,-28,3,1
1522653447046689,10,1,0,4,-7,-6,3,10
1522653447046689,-7,-3,-2,-3,-2,20,7,-3
1522653447067745,-24,-1,1,4,14,70,-4,-5
1522653447067745,27,-1,-4,-3,1,-30,-18,-8
1522653447069750,12,0,0,2,-3,-1,15,19
1522653447069750,-14,-7,-2,1,0,25,10,-14
1522653447081782,20,2,0,-2,4,38,10,9
1522653447081782,-31,-2,0,-2,-10,-39,-14,-12
1522653447088801,-4,2,1,1,-10,-79,-7,2
1522653447088801,49,3,-1,-3,16,48,11,10
1522653447105846,-23,-2,2,1,-3,-81,-23,-2
1522653447105846,6,0,3,8,2,65,29,-5
1522653447106849,52,2,-4,0,7,5,-23,6
1522653447106849,13,2,2,2,-21,-45,2,2
1522653447127905,-18,-1,0,-4,5,15,7,2
1522653447127905,14,1,-2,-3,3,10,5,0
1522653447129910,-44,-3,-1,-4,2,36,0,-9
1522653447129910,-4,-5,-8,-6,-9,-4,-30,-4
1522653447141942,10,-5,2,2,4,-5,3,-2
1522653447141942,13,0,2,5,-6,-8,1,10
1522653447148961,-2,0,-5,-2,5,57,12,-3
1522653447148961,-13,-4,-3,-9,-9,-68,-16,-6
1522653447165004,12,3,9,5,5,20,11,-6
1522653447165004,10,-5,1,-4,15,24,-7,4
1522653447167009,-69,-1,2,2,-9,-49,-16,-9
1522653447167009,39,2,-3,-5,7,84,15,6
1522653447187062,10,2,-3,0,-2,-10,-9,-7
1522653447187062,-33,-1,0,0,-5,-37,20,5
1522653447196087,21,1,5,4,10,2,-25,-3
1522653447196087,-19,-4,-4,-2,-12,-44,-5,-1
1522653447202102,18,2,-6,-6,13,35,6,4
1522653447202102,-5,2,0,2,-5,35,-12,-3
1522653447209121,-26,-1,1,-3,-6,-28,27,5
1522653447209121,-9,-4,0,2,-10,-12,-5,-13
1522653447225164,12,4,3,-2,-2,-33,-8,0
1522653447225164,-19,-2,-5,-2,15,5,3,3
1522653447227169,19,0,-3,-2,-8,46,3,2
1522653447227169,-8,1,3,0,2,-1,-5,-3
1522653447248225,0,1,3,-4,-13,-57,-17,-10
1522653447248225,-9,-1,1,-1,1,-5,-9,-3
1522653447249228,22,-1,-2,-2,-8,-16,3,2
1522653447249228,-4,2,-1,0,5,-2,-11,2
1522653447261260,-9,-1,3,2,-4,15,8,-1
1522653447261260,4,2,-4,-2,-2,-3,-6,-5
1522653447270284,12,-1,4,2,-1,22,8,-4
1522653447270284,8,2,0,0,-1,-32,-2,-1
1522653447285324,-9,-6,-7,-6,-1,13,0,0
1522653447285324,-20,-2,0,2,0,23,10,-8
1522653447287329,23,0,2,1,-5,-17,-10,4
1522653447287329,-26,-4,-2,-2,5,23,26,6
1522653447308385,-2,-5,-1,-6,-5,-20,-8,-4
1522653447308385,38,-5,-5,-3,-5,-20,-19,15
1522653447309388,-35,-7,-6,0,12,61,12,-21
1522653447309388,25,2,4,2,-8,-52,-12,3
1522653447321420,-19,-7,-7,-3,-4,26,16,7
1522653447321420,-18,-4,-5,-4,-3,12,-9,-7
1522653447330444,5,0,6,5,13,-1,7,0
1522653447330444,-20,2,-2,-2,13,24,3,-3
1522653447345484,1,-3,-3,-4,-11,-15,0,-6
1522653447345484,4,1,-1,-5,-3,2,1,1
1522653447347489,-24,1,0,-1,3,7,1,-2
1522653447347489,51,4,-1,-4,-9,29,-1,7
1522653447367542,-6,4,1,1,6,-28,-6,2
1522653447367542,6,0,3,5,-3,1,3,2
1522653447369548,-20,-2,-2,0,-3,-2,1,-9
1522653447369548,-12,1,5,4,3,5,5,-2
1522653447381580,38,3,-6,-7,-3,9,4,21
1522653447381580,-21,-8,-4,0,-3,-9,-2,-17
1522653447390604,11,0,-2,0,1,-13,-10,-2
1522653447390604,-23,1,-1,-1,-6,-7,4,2
1522653447405644,16,-2,-3,1,3,9,1,-2
1522653447405644,2,3,1,2,-5,-27,-10,-6
1522653447406647,-11,-2,-3,-3,-7,4,12,12
1522653447406647,3,-2,-1,-1,16,28,-1,-15
1522653447427702,7,-3,-1,1,-4,-8,1,12
1522653447427702,79,4,4,3,2,7,4,15
1522653447429708,-60,-4,-2,0,5,-11,3,-4
1522653447429708,17,-2,-3,-3,-9,12,0,3
1522653447441740,-37,-3,-2,0,1,11,3,-12
1522653447441740,7,2,2,3,10,8,0,-9
1522653447450764,28,5,-1,-2,-8,-44,-12,2
1522653447450764,12,-3,-5,-3,-2,-32,-3,17
1522653447465804,21,1,1,1,3,88,5,3
1522653447465804,-51,-1,0,7,6,-27,-5,-12
1522653447466807,-14,-3,-1,-6,-36,-47,-15,-5
1522653447466807,-13,2,3,1,9,30,11,2
1522653447487863,-18,1,7,1,0,-24,-7,0
1522653447487863,3,-3,-2,1,7,17,6,11
1522653447489868,-1,4,-1,-3,-17,-63,-15,-5
1522653447489868,3,-9,-4,-1,3,21,-11,-6
1522653447501900,-4,2,0,1,9,-1,3,-1
1522653447501900,-5,-2,-2,-1,-4,6,3,-12
1522653447510924,10,2,0,0,4,2,-9,2
1522653447510924,-25,-1,1,-4,-14,28,8,16
1522653447524961,-56,-3,-4,-2,-8,-83,-10,-23
1522653447524961,57,-5,-7,-2,3,46,4,9
1522653447526967,11,-1,-1,2,4,-2,13,7
1522653447526967,-13,-1,1,-2,0,16,4,-9
1522653447548023,-21,-5,0,4,21,4,6,0
1522653447548023,-15,-1,-1,0,-14,1,18,-5
1522653447550028,17,3,3,8,9,-18,-6,8
1522653447550028,-23,-1,-1,2,-1,5,-4,-6
1522653447561057,7,-3,-2,-6,0,-14,-6,4
1522653447561057,-6,3,0,-3,-4,-3,15,1
1522653447570081,16,-8,-8,-2,5,34,-5,-8
1522653447570081,34,6,2,-6,-9,36,-1,2
1522653447585121,-27,-1,-1,-4,-8,9,7,1
1522653447585121,3,-5,2,0,-11,-28,-5,-2
1522653447587126,17,-3,0,-1,3,6,-3,1
1522653447587126,-9,-6,-4,-1,-1,-28,-8,3
1522653447608182,45,-5,-3,-3,-11,16,7,4
1522653447608182,-70,0,1,-3,5,-7,-17,-20
1522653447609185,44,0,-4,-3,3,6,8,11
1522653447609185,-29,-1,-3,-2,1,-11,-17,-2
1522653447621217,6,-4,-5,-6,6,35,-7,-1
1522653447621217,-8,-2,-2,0,-20,-36,20,6
1522653447630241,-10,-1,1,-4,9,54,-5,-10
1522653447630241,15,-3,-3,-4,0,-14,-9,-7
1522653447645281,38,2,1,2,-3,-14,4,7
1522653447645281,-29,2,2,-2,-3,14,-14,-7
1522653447647287,6,-10,-13,-8,-10,-7,-23,-5
1522653447647287,8,4,4,1,12,-2,21,-2
1522653447668343,-21,5,4,3,-5,-10,1,2
1522653447668343,-8,1,1,1,5,11,-12,6
1522653447669346,14,7,3,0,2,5,8,-2
1522653447669346,-52,-11,-3,-4,-6,20,-11,-4
1522653447681381,46,4,1,0,6,7,17,-6
1522653447681381,33,5,2,0,2,-26,-9,8
1522653447690401,-25,1,-2,1,7,49,12,-5
1522653447690401,-23,-5,0,-2,-16,-95,-10,-5
1522653447705441,18,3,-5,-6,-14,-77,-27,3
1522653447705441,21,-4,-3,-3,-2,34,11,-2
1522653447707446,-21,-6,4,2,6,-4,4,-8
1522653447707446,-6,2,0,-2,10,-2,0,5
1522653447727500,6,-5,-1,-4,-2,-21,-29,-1
1522653447727500,5,3,0,7,6,6,1,3
1522653447729505,-7,-2,-5,-2,-3,-2,0,1
1522653447729505,7,2,2,-1,2,10,18,-8
1522653447741537,-14,3,-1,-5,-9,35,12,1
1522653447741537,-7,-1,-5,-6,2,-43,-27,-6
1522653447750561,5,7,6,9,-4,20,4,5
1522653447750561,1,-8,-4,-1,-1,20,2,3
1522653447765601,62,6,-2,-4,5,2,12,12
1522653447765601,-50,-13,-9,-1,-1,2,2,-10
1522653447766604,-19,1,-2,-1,1,2,0,-3
1522653447766604,46,7,0,-2,-6,-39,-19,4
1522653447787660,-3,-4,2,2,-2,5,-3,-4
1522653447787660,9,-4,-2,-1,1,23,-1,1
1522653447789665,-27,-2,-2,-2,2,34,2,-2
1522653447789665,-9,-6,-2,-2,-6,-39,-6,-12
1522653447801697,2,2,0,-2,-3,28,7,10
1522653447801697,21,-3,3,2,-5,-9,-8,-9
1522653447810721,-9,2,1,-1,0,-7,-2,9
1522653447810721,19,2,1,-1,13,4,9,7
1522653447825761,-54,-6,1,5,3,6,-13,-26
1522653447825761,-11,2,3,0,3,-4,-4,2
1522653447826764,37,-3,-2,-8,-9,-25,-3,7
1522653447826764,9,-4,-4,-4,-5,19,13,4
1522653447847820,-27,0,1,2,7,13,7,-10
1522653447847820,15,-5,-4,0,-6,-3,2,0
1522653447849825,-9,2,3,2,-2,-15,-10,-14
1522653447849825,32,6,1,-1,0,17,15,13
1522653447861857,16,-7,-9,-4,-2,-15,-4,11
1522653447861857,-18,2,1,-2,-4,0,-1,-13
1522653447870881,16,2,4,0,2,4,7,6
1522653447870881,-18,-6,-9,-4,-5,-15,-7,-4
1522653447884918,16,-2,1,4,0,7,10,-3
1522653447884918,-17,3,1,4,4,15,1,6
1522653447891937,19,-1,-4,-5,-12,-28,1,2
1522653447891937,-9,3,7,2,0,-2,-3,-12
1522653447907980,-44,-7,-2,-1,5,6,1,-4
1522653447907980,34,5,-4,-1,-4,5,5,9
1522653447908982,-1,-1,-2,-3,4,3,0,4
1522653447908982,30,-4,-4,-3,-1,19,4,0
1522653447922017,-52,0,4,3,-4,-39,-7,-3
1522653447922017,22,-2,-2,2,2,-8,-3,-5
1522653447931041,-32,-5,-4,-1,-4,-3,6,-6
1522653447931041,-22,5,0,-2,-8,-10,-7,-5
1522653447945078,34,5,3,8,20,12,-7,-8
1522653447945078,-31,-5,-3,-2,-16,-13,-7,10
1522653447951094,32,-4,-2,0,7,15,9,10
1522653447951094,-40,1,-1,-1,-8,-15,-3,-9
1522653447968140,4,-5,-2,-2,-8,20,0,2
1522653447968140,23,4,2,2,6,-23,-5,0
1522653447969142,-33,-4,0,-1,-2,-8,-11,-11
1522653447969142,14,-7,-7,-7,5,38,10,4
1522653447990198,-24,2,2,2,-10,-16,1,0
1522653447990198,17,-4,-1,1,5,-4,-3,-2
1522653447992204,-21,0,-2,-3,-5,5,0,-5
1522653447992204,27,-2,0,-1,6,-3,-10,7
1522653448005238,-11,-7,-8,-5,-8,23,-2,-2
1522653448005238,-3,2,3,5,10,6,12,4
1522653448011254,10,0,-2,1,-4,11,-7,-8
1522653448011254,-39,3,4,4,5,-22,-6,-8
1522653448028300,36,-3,-6,-4,-12,-6,-3,8
1522653448028300,47,3,0,0,0,-21,-17,15
1522653448029302,-13,-9,-3,1,8,6,10,-1
1522653448029302,-9,4,2,2,3,-16,-7,-4
1522653448050358,-2,-2,-6,-4,-9,-12,-2,-4
1522653448050358,-35,-1,-2,-1,-3,18,5,-10
1522653448052364,16,2,3,-1,1,29,-9,-9
1522653448052364,16,-5,-6,-4,-7,6,-10,11
1522653448064396,-45,2,0,-1,-1,-8,19,0
1522653448064396,43,-2,0,-2,-18,-66,-31,-12
1522653448071414,-1,6,-3,0,2,-12,26,18
1522653448071414,-10,-2,-2,-1,-3,17,10,-1
1522653448087457,-23,-7,-1,2,7,-23,-11,-2
1522653448087457,31,6,-4,-1,4,17,1,2
1522653448089462,-44,-10,0,1,0,-14,-4,-10
1522653448089462,12,3,3,-4,-10,-28,-9,2
1522653448110518,14,-3,-6,-2,5,-9,-3,-13
1522653448110518,-9,1,2,-1,-7,30,50,14
1522653448112524,17,0,-1,-6,-5,-9,-7,0
1522653448112524,-42,-3,2,1,3,0,8,6
1522653448124556,51,0,2,-3,2,49,-25,-9
1522653448124556,-54,-5,-5,-2,-7,3,0,-7
1522653448131576,6,-1,-2,0,-5,-21,-1,-2
1522653448131576,18,-1,-3,-7,-5,-23,1,-1
1522653448147617,23,3,2,-1,3,-32,0,1
1522653448147617,-14,-2,-1,0,4,50,4,4
1522653448149622,-48,0,-1,1,10,-12,-7,-8
1522653448149622,60,4,-2,-5,2,-8,9,2
1522653448170678,-15,-8,-4,0,-3,33,3,1
1522653448170678,-30,-2,0,-2,-4,-3,1,-6
1522653448171681,41,7,5,4,3,1,3,11
1522653448171681,-16,-3,-5,-5,-6,-42,-22,-8
1522653448184716,6,0,1,0,0,1,6,-3
1522653448184716,-18,-6,-6,-2,5,6,17,-2
1522653448191734,-23,-4,2,-1,-13,13,-1,-12
1522653448191734,20,-3,-4,-5,7,25,3,12
1522653448207777,12,10,6,3,-6,-20,-16,3
1522653448207777,-45,-12,-4,-1,0,16,10,-10
1522653448209782,67,4,-1,-1,4,-17,-18,3
1522653448209782,-65,-2,3,4,-2,50,24,-4
1522653448230838,-11,-5,-4,-7,-5,-62,-13,-1
1522653448230838,30,2,1,0,8,6,-11,0
1522653448231842,-21,-4,-2,0,2,6,3,-1
1522653448231842,20,5,-1,-4,-4,-18,4,4
1522653448243873,22,6,3,2,10,7,-3,6
1522653448243873,-26,2,6,6,-8,-36,-20,-8
1522653448252897,-3,-5,-3,-1,1,-5,19,5
1522653448252897,2,0,-1,-1,6,46,0,-6
1522653448267937,-31,2,5,6,3,25,10,-1
1522653448267937,51,3,-1,-3,1,-14,-8,3
1522653448269942,-26,1,2,0,-13,-17,-11,4
1522653448269942,34,-2,-1,-5,-2,0,-6,6
1522653448289995,-18,-7,-2,1,2,32,5,-5
1522653448289995,-37,-2,-4,-1,2,-23,-17,-9
1522653448292001,50,0,-4,-5,2,-2,-9,3
1522653448292001,2,0,2,0,-1,-5,-6,-2
1522653448304033,-35,0,0,1,4,-1,3,-3
1522653448304033,-9,-8,-2,-1,-8,11,-12,-4
1522653448313057,51,5,-1,-2,0,13,-4,6
1522653448313057,-34,4,2,0,-1,-14,-4,1
1522653448328097,3,-9,-4,-2,-13,-4,3,-6
1522653448328097,22,2,-5,-3,4,27,14,5
1522653448329100,-40,4,7,3,0,4,8,8
1522653448329100,-4,-7,-3,-4,4,-5,-10,-3
1522653448350155,26,2,3,3,-2,6,2,-6
1522653448350155,-18,-5,-3,-4,-4,-23,-7,-2
1522653448352161,9,2,1,-2,-4,13,1,8
1522653448352161,-17,-2,-1,2,3,-4,-7,-15
1522653448364193,3,5,1,2,2,11,1,5
1522653448364193,42,-3,-4,-1,-1,29,4,7
1522653448373217,3,2,0,-1,7,-6,9,4
1522653448373217,-31,-3,-2,-2,-10,-17,-8,-3
1522653448388257,13,5,0,-2,0,27,15,-1
1522653448388257,11,5,4,6,2,-12,6,-4
1522653448389260,-9,4,2,2,1,16,3,-13
1522653448389260,-27,-10,-6,-4,-7,18,2,-4
1522653448410315,28,-1,-4,-3,4,-54,-6,4
1522653448410315,8,0,1,-2,-18,-18,-3,1
1522653448412321,-2,-5,-9,-6,-2,-6,-8,6
1522653448412321,25,0,2,-1,-5,2,7,0
1522653448424353,-45,-6,-4,-2,1,9,9,2
1522653448424353,25,4,3,4,10,12,10,2
1522653448433377,-33,-6,-1,-3,-1,-5,-6,-11
1522653448433377,-26,-1,-1,1,-1,11,2,-8
1522653448448417,10,-4,-3,1,4,10,3,21
1522653448448417,5,-2,-5,-4,-6,-12,-6,0
1522653448449420,0,1,2,5,4,26,8,-4
1522653448449420,46,6,2,3,7,-13,-6,5
1522653448470476,-54,-12,-5,2,-6,5,0,-16
1522653448470476,8,3,2,2,7,-2,-4,-3
1522653448472481,-6,-7,-5,-7,-3,-4,-4,2
1522653448472481,-10,-5,-1,-1,-3,27,4,3
1522653448484513,26,4,-4,0,-7,-20,-17,-10
1522653448484513,-34,3,3,4,3,10,4,-4
1522653448493537,36,0,-1,-7,-9,-31,-1,7
1522653448493537,9,3,3,1,5,-4,2,16
1522653448507574,-13,0,3,0,-1,6,-5,-10
1522653448507574,-15,-1,-2,-1,14,12,-1,-12
1522653448509580,9,0,-2,0,-3,3,0,1
1522653448509580,-15,-2,-3,-4,-3,-15,-7,-6
1522653448530636,3,0,4,7,14,2,-2,4
1522653448530636,-2,-1,-1,-3,-11,53,4,-5
1522653448531639,0,3,-1,1,8,-46,-9,6
1522653448531639,-8,0,-1,-1,-1,-17,8,1
1522653448543670,23,-2,-2,-2,2,16,-8,1
1522653448543670,-11,-3,-2,1,-12,-31,-1,0
1522653448552694,-17,1,0,1,3,24,2,-11
1522653448552694,-4,1,0,4,13,13,-5,7
1522653448567734,14,3,0,3,-10,-18,-4,-8
1522653448567734,-16,-5,0,1,0,19,4,-6
1522653448569740,68,-2,-10,-8,-13,-7,4,23
1522653448569740,-35,-3,3,4,1,-47,-3,-18
1522653448590796,5,0,-1,-4,-9,41,7,-6
1522653448590796,-8,-1,2,6,9,-43,7,12
1522653448591798,21,-1,-3,-3,-8,19,-9,-9
1522653448591798,-37,-3,1,-4,7,42,13,5
1522653448603830,28,0,0,4,-2,-23,4,-2
1522653448603830,-6,-5,-7,-3,-3,-2,-14,3
1522653448612854,1,0,0,3,14,12,-6,-5
1522653448612854,-37,-4,0,-4,-15,-48,6,-6
1522653448627894,50,8,0,-7,-5,-23,-3,23
1522653448627894,19,0,0,0,-10,-13,-5,-5
1522653448629900,-44,-3,4,2,3,21,9,-13
1522653448629900,19,0,-2,-4,6,35,-3,-1
1522653448649953,-19,-8,-5,-2,-13,-50,-12,-9
1522653448649953,31,9,2,2,8,3,21,11
1522653448651959,-14,-1,-3,-5,-3,7,-9,-8
1522653448651959,-1,-4,-2,0,-8,-20,-3,4
1522653448663990,-2,-5,-6,-1,0,-7,-9,-9
1522653448663990,37,2,-7,-5,5,75,-16,7
1522653448673014,-8,-3,3,0,-3,-21,27,-4
1522653448673014,18,3,-1,0,7,17,-7,-1
1522653448688054,-45,-2,-1,0,0,1,5,-3
1522653448688054,15,-3,-2,-6,4,15,-7,-5
1522653448689057,-15,-1,-1,-1,-13,-17,-54,-5
1522653448689057,6,-3,2,1,-4,-18,15,-5
1522653448710113,-10,-3,-6,-2,3,14,-7,2
1522653448710113,-47,6,9,5,6,4,19,-3
1522653448712119,22,1,-2,-4,-2,-29,-8,10
1522653448712119,22,-4,-5,-3,-14,-39,-13,0
1522653448724150,-53,4,5,3,-2,26,-4,-13
1522653448724150,-7,-5,-5,-5,-12,-39,-6,-3
1522653448733174,-28,-4,-4,-2,-4,-28,6,-5
1522653448733174,56,4,0,-2,22,88,4,11
1522653448748214,-40,-11,-8,-2,-8,-23,6,-10
1522653448748214,14,3,1,1,-1,14,-1,-4
1522653448749217,-24,0,0,-3,-2,31,27,1
1522653448749217,-13,-4,1,0,14,-2,-33,-7
1522653448770273,64,1,1,-2,-5,0,5,6
1522653448770273,-15,-6,-4,-7,3,28,6,8
1522653448772278,-24,0,1,5,-2,-13,-5,-13
1522653448772278,10,2,0,-5,-10,-1,-4,0
1522653448784310,34,5,2,-2,-4,-34,-2,6
1522653448784310,-49,-9,-2,-1,-6,-30,-11,-13
1522653448793334,28,-1,-2,-2,8,20,4,14
1522653448793334,31,5,1,1,-6,-8,-5,-6
1522653448807371,-44,-2,0,-3,6,21,19,7
1522653448807371,37,4,1,5,2,3,-2,-4
1522653448814391,-28,3,2,5,6,-9,-3,2
1522653448814391,0,-8,-9,-9,-10,-15,-4,3
1522653448830433,2,-1,2,4,0,20,-16,-10
1522653448830433,-27,-1,-1,-3,-9,-20,8,3
1522653448832439,18,-1,1,-3,1,29,2,-6
1522653448832439,-1,0,-4,-3,-8,-54,4,-3
1522653448844470,-12,-8,-5,-3,1,54,12,12
1522653448844470,29,-3,-3,-1,0,-5,-10,1
1522653448853494,-14,2,2,0,3,0,-12,-2
1522653448853494,-9,2,5,1,0,-2,12,-2
1522653448867531,28,8,4,4,0,6,2,-5
1522653448867531,-24,-7,-1,0,-2,-10,-1,0
1522653448874551,24,-2,-3,-4,10,9,2,-2
1522653448874551,-15,-10,-10,-7,-9,37,8,11
1522653448890593,28,7,5,4,4,-35,-4,4
1522653448890593,5,6,-1,-3,-4,-15,-3,3
1522653448891596,-31,-4,1,-1,-5,-17,-3,-11
1522653448891596,-30,-2,-3,-3,-1,-1,1,-11
1522653448912652,-8,-4,-3,1,-1,7,-2,2
1522653448912652,33,6,1,6,12,4,4,-1
1522653448914658,-20,-4,1,-4,-4,-21,-1,6
1522653448914658,47,1,-1,1,2,25,9,17
1522653448927691,-37,-11,-11,-4,0,-4,8,-5
1522653448927691,12,3,0,-2,-6,-29,-9,-7
1522653448933708,-22,-5,-1,-1,-3,8,7,-3
1522653448933708,-1,2,4,3,-2,-10,-2,-10
