timestamp,emg1,emg2,emg3,emg4,emg5,emg6,emg7,emg8
1522653658769310,-44,4,6,2,-2,-11,13,-8
1522653658769310,15,-13,-6,-1,-17,-54,-40,-12
1522653658770313,4,8,2,0,17,52,16,1
1522653658770313,-5,-1,0,-6,-3,16,13,2
1522653658771315,10,-9,-5,-5,-13,-35,-26,-8
1522653658771315,16,0,3,-2,1,24,31,3
1522653658772318,-4,-8,-4,-6,-11,-7,-10,-3
1522653658772318,-3,2,-7,-14,-11,-17,-1,2
1522653658773321,31,1,-4,-5,23,6,-13,-14
1522653658773321,-50,-5,3,-4,-11,-54,22,10
1522653658787358,52,3,0,-4,10,61,-11,0
1522653658787358,-18,-3,0,-7,-7,-16,7,3
1522653658796388,6,9,4,-5,-8,49,-3,5
1522653658796388,8,0,4,3,3,23,-1,-19
1522653658802398,-5,2,-2,-10,-9,-38,3,-2
1522653658802398,-42,-8,-5,-7,-5,-10,-16,-12
1522653658818441,32,0,-7,-6,0,40,13,32
1522653658818441,2,-1,-2,-3,-5,-39,-5,-22
1522653658833481,-76,-7,-2,-6,-25,-71,-7,-11
1522653658833481,37,9,6,9,30,72,-3,-9
1522653658833481,-21,-9,-1,7,10,-23,2,-13
1522653658833481,36,6,0,2,0,-10,11,18
1522653658879605,-11,-4,-5,0,4,-7,-9,-2
1522653658879605,-4,1,5,13,7,7,-8,-7
1522653658881609,26,-3,1,10,0,0,-4,-10
1522653658881609,-1,-1,-2,3,-2,-1,-1,1
1522653658882612,16,3,3,5,2,2,0,-3
1522653658882612,-40,-11,-4,5,-4,-3,-2,-12
1522653658884617,43,10,6,10,1,5,-3,7
1522653658884617,-30,-8,1,8,3,7,-3,-13
1522653658891635,7,-4,-6,0,-1,2,-2,7
1522653658891635,-23,-7,-4,4,-3,-6,-5,-18
1522653658900659,36,8,9,7,-4,5,3,16
1522653658900659,-18,5,5,2,1,-11,-5,-7
1522653658906675,-12,7,-1,0,4,12,11,25
1522653658906675,11,0,0,1,3,6,4,13
1522653658921715,-45,-1,3,4,0,-7,-9,-3
1522653658921715,52,0,-2,2,-3,-16,-7,6
1522653658929737,-46,-11,-4,-3,18,62,1,-7
1522653658929737,-8,5,1,5,-15,-33,-3,-4
1522653658952798,18,4,-1,0,7,4,-2,-4
1522653658952798,17,3,-2,-3,5,5,6,32
1522653658953801,-18,-8,-9,-8,-9,-4,1,3
1522653658953801,6,1,2,-2,14,28,11,13
1522653658967838,-24,-7,-2,-2,1,-1,-8,-6
1522653658967838,4,0,3,2,-3,1,-1,-11
1522653658968841,18,4,-2,0,3,-26,-6,-5
1522653658968841,18,-8,-2,0,-11,-11,-10,5
1522653658989896,-5,-3,1,3,7,0,2,-10
1522653658989896,-23,6,0,-4,-8,6,0,-5
1522653658990899,33,2,0,1,3,-11,-6,-2
1522653658990899,13,5,4,3,7,14,7,-5
1522653659012958,2,-15,-9,-5,-16,-5,-12,-19
1522653659012958,-52,-7,-6,1,3,-7,11,15
1522653659013961,14,1,4,3,-23,-98,11,21
1522653659013961,19,13,5,2,13,48,-15,-22
1522653659027998,-28,-9,-3,-1,-19,-4,8,1
1522653659027998,8,6,-1,-5,4,-9,-5,-10
1522653659029001,-4,2,2,-2,-5,-21,-11,-7
1522653659029001,-54,-2,-3,-3,2,-1,9,-11
1522653659050056,36,1,0,0,5,-11,1,17
1522653659050056,3,-2,-5,1,9,51,3,3
1522653659051060,8,5,9,5,2,-37,-6,-1
1522653659051060,5,-6,-4,0,6,10,-2,1
1522653659073118,6,0,0,-5,-23,-32,-8,-3
1522653659073118,20,-5,-1,4,-6,-6,-6,1
1522653659073118,8,-6,-3,-3,-8,11,6,-3
1522653659073118,4,-1,-2,2,10,-1,-7,9
1522653659088158,-39,4,4,4,-5,3,4,-20
1522653659088158,5,-14,-10,-11,-12,-54,-11,12
1522653659088158,-45,-4,1,4,-3,82,17,-4
1522653659088158,10,-6,-3,-4,-7,-56,-7,-12
1522653659110216,-23,5,-2,0,11,37,-1,-6
1522653659110216,39,8,4,-5,-19,-55,-5,16
1522653659111219,-71,-1,-4,4,34,61,23,-13
1522653659111219,42,-5,-6,-8,-20,4,6,26
1522653659132275,-30,1,2,6,8,-52,-9,-10
1522653659132275,-18,-7,2,3,5,19,6,-20
1522653659133278,47,11,-2,-8,-19,-23,-7,12
1522653659133278,0,-8,-6,-6,-1,16,-5,5
1522653659147315,14,2,1,-5,0,18,13,12
1522653659147315,-29,1,-2,-1,2,30,-3,-2
1522653659148318,49,4,-3,-3,2,-12,-9,8
1522653659148318,-16,-3,-2,-1,-6,-22,3,-6
1522653659170376,24,2,-2,-7,1,-3,-10,10
1522653659170376,-78,-1,6,5,16,51,31,-4
1522653659171379,58,0,-5,-4,-5,-18,-3,3
1522653659171379,6,-6,-3,0,9,37,14,4
1522653659192435,-33,-9,-5,-3,-3,-34,-14,-9
1522653659192435,39,9,1,4,5,-8,15,4
1522653659193438,-58,-9,-2,6,0,35,8,-15
1522653659193438,31,5,4,8,-6,-24,-1,4
1522653659207475,66,2,-5,4,24,59,11,12
1522653659207475,-17,2,-3,3,-1,-28,-24,0
1522653659208478,-17,-3,-1,2,4,-2,17,-22
1522653659208478,27,0,-2,-1,-7,-26,0,-2
1522653659230537,-18,-3,0,1,1,8,6,-2
1522653659230537,45,11,7,-1,2,8,-5,-1
1522653659230537,-30,-20,-6,-4,-16,-78,-42,-11
1522653659230537,9,9,4,-2,-1,26,3,13
1522653659252595,-4,-3,-3,-5,-10,-40,-15,-11
1522653659252595,-30,-6,-9,-12,-5,42,11,-6
1522653659253598,-16,1,0,-2,6,9,-15,-3
1522653659253598,-9,0,1,-7,-5,-1,-3,-5
1522653659267636,-32,1,0,-10,-4,18,-18,1
1522653659267636,25,-13,-8,-12,4,-7,0,-2
1522653659268638,11,4,-4,-7,1,22,2,6
1522653659268638,3,11,3,-4,-5,-29,7,5
1522653659290697,-14,-4,-3,-4,-2,38,17,1
1522653659290697,20,-4,-5,-8,-5,-1,-7,-8
1522653659290697,-18,-6,2,-5,6,8,15,8
1522653659290697,3,2,-2,-3,-3,-51,-19,-5
1522653659312755,-9,-6,-2,-6,-13,-73,-10,-16
1522653659312755,10,-4,2,4,15,52,29,13
1522653659313758,43,10,0,-2,-3,5,-20,-8
1522653659313758,-28,1,-2,-5,-5,-30,-2,1
1522653659326793,-18,-1,1,-2,7,40,2,-2
1522653659326793,-18,3,2,2,7,34,-8,-9
1522653659334814,59,1,0,-4,-10,-1,26,18
1522653659334814,-28,-3,1,2,10,17,-8,-12
1522653659349854,-74,-9,-5,2,7,-19,-7,-7
1522653659349854,27,1,-1,1,-14,1,15,4
1522653659350857,-12,4,1,2,14,40,-1,2
1522653659350857,9,1,2,-3,-36,-82,-33,-5
1522653659372915,30,5,5,7,1,36,17,6
1522653659372915,-55,-4,-4,0,0,-47,-23,-20
1522653659373918,31,0,1,3,-11,-27,-4,13
1522653659373918,4,-5,-5,0,11,37,17,-2
1522653659386953,-15,-4,-1,-1,-4,-6,4,2
1522653659386953,-16,-3,1,-3,-9,-19,-20,-4
1522653659394974,-6,-3,-2,2,-2,-19,-10,-14
1522653659394974,-3,0,4,7,14,62,0,-12
1522653659410014,27,5,-2,-3,-5,0,0,5
1522653659410014,5,-2,-2,3,5,-2,5,4
1522653659411017,-25,-4,-3,-4,-9,-15,-16,-17
1522653659411017,6,1,3,5,12,58,18,2
1522653659433075,19,3,0,4,3,13,8,7
1522653659433075,27,0,-3,-3,-8,-74,-3,-3
1522653659434080,-18,-5,1,4,0,6,5,-1
1522653659434080,11,5,6,10,0,-13,1,3
1522653659447113,16,-1,-3,-4,-5,-14,13,-2
1522653659447113,-25,-2,-4,0,10,11,-9,0
1522653659455134,-38,-3,-1,2,-20,-35,-6,-19
1522653659455134,55,-10,-7,-5,-3,27,21,34
1522653659471177,25,-1,-1,-2,-3,21,-1,12
1522653659471177,-3,-3,-6,-4,-15,-35,3,-13
1522653659472179,-17,5,5,5,21,21,8,6
1522653659472179,-5,7,2,3,7,15,-4,-5
1522653659493235,7,-2,0,4,2,16,-1,3
1522653659493235,16,-1,-3,-1,-2,23,0,11
1522653659493235,-9,-1,2,3,1,2,-4,-15
1522653659493235,17,-1,-7,-6,-8,-6,6,28
1522653659507272,-23,4,0,2,9,-1,-3,-7
1522653659507272,1,-2,-2,-2,-18,-9,-9,0
1522653659515294,9,-7,-5,0,-1,29,7,3
1522653659515294,-48,-12,-7,-5,-7,-41,-9,0
1522653659530334,-6,1,2,4,4,-2,-6,-11
1522653659530334,-11,1,-2,0,-1,-10,-13,1
1522653659531337,2,-1,0,-3,-4,6,-4,9
1522653659531337,-25,-2,-3,1,3,0,5,-14
1522653659552392,5,-10,-4,-5,-10,-13,-8,-4
1522653659552392,15,3,3,4,5,2,4,2
1522653659553395,-9,-3,-2,-1,1,1,-7,-14
1522653659553395,-8,2,1,-1,-3,-2,-1,6
1522653659567432,4,-3,-1,-3,-4,-4,2,3
1522653659567432,27,9,5,1,11,-1,-12,4
1522653659575454,-7,-2,-1,1,2,28,15,-10
1522653659575454,-5,2,1,-2,-3,31,-6,-2
1522653659590494,9,-2,-2,1,-1,-24,1,-1
1522653659590494,-13,-5,-7,-2,2,-7,-3,4
1522653659591497,-11,2,3,2,6,-2,0,4
1522653659591497,-4,-4,-1,0,-4,1,-10,-19
1522653659612553,-25,3,3,0,12,-8,-4,6
1522653659612553,16,-5,0,-3,-17,18,3,0
1522653659613556,48,0,-6,-9,-11,10,-9,0
1522653659613556,-19,-1,-1,-2,-19,-53,-7,-11
1522653659627593,26,3,-3,2,12,-4,-5,7
1522653659627593,14,-4,1,-4,-3,9,7,0
1522653659635614,10,-5,-1,1,1,-20,0,10
1522653659635614,-22,2,3,4,-1,13,1,-10
1522653659650654,-10,7,-3,-2,-10,-59,-2,0
1522653659650654,15,1,3,5,5,10,-3,-4
1522653659650654,1,3,3,1,-1,56,11,9
1522653659650654,42,-6,-2,2,7,15,3,4
1522653659672712,-55,-6,-2,5,15,46,4,-10
1522653659672712,-5,2,-5,-4,-4,-4,10,15
1522653659673716,0,0,2,0,-1,-14,-6,-2
1522653659673716,-29,-2,1,-1,-1,10,-8,-12
1522653659686750,16,1,0,2,-3,54,10,3
1522653659686750,-9,-1,0,3,12,48,6,8
1522653659695775,18,3,-2,-1,-1,41,-19,0
1522653659695775,-5,-6,-8,-1,10,-16,4,12
1522653659709811,28,-1,-3,-3,-6,6,8,12
1522653659709811,-10,2,-2,-4,-12,6,-6,-3
1522653659710814,5,-10,-5,-3,-3,-78,-18,4
1522653659710814,-6,5,0,3,18,33,-7,-6
1522653659732873,-12,0,5,1,-8,10,4,-2
1522653659732873,-24,-3,-1,5,-5,-52,0,-15
1522653659733876,17,7,2,9,16,34,22,18
1522653659733876,1,0,2,14,6,19,-3,-8
1522653659746914,21,9,7,12,-4,-84,-2,-14
1522653659746914,-54,-5,-1,15,23,88,-12,-9
1522653659754932,79,3,6,13,8,-9,16,5
1522653659754932,-57,-4,6,8,11,1,-6,-19
1522653659769972,-34,-5,1,5,4,-9,-6,-1
1522653659769972,48,5,-5,-8,-7,-10,12,5
1522653659770975,-22,-3,-4,-6,-5,28,-4,-8
1522653659770975,13,-5,-4,-14,-9,-61,0,0
1522653659793032,23,3,0,-9,5,16,-7,6
1522653659793032,-29,-2,0,-12,-3,-21,-2,-15
1522653659794038,-23,-13,-11,-17,-10,-40,-4,3
1522653659794038,22,-3,-6,-19,-15,11,-17,-7
1522653659816094,17,-2,-6,-15,-9,13,-2,5
1522653659816094,-34,-3,-5,-12,2,6,39,18
1522653659817097,-4,7,2,-9,-13,-33,2,-2
1522653659817097,-36,-2,0,-5,-5,25,9,-13
1522653659830131,68,-5,-10,-14,-2,-38,-10,13
1522653659830131,19,4,4,-3,-10,-29,-4,4
1522653659831134,-31,5,7,-4,-8,-27,-14,-4
1522653659831134,54,1,-1,-9,-6,-7,11,1
1522653659853192,-65,-6,-3,-3,6,16,-14,-8
1522653659853192,-32,-4,-1,-1,3,7,-4,-23
1522653659853192,7,-6,-5,-3,-10,-40,3,0
1522653659853192,-7,5,4,5,6,21,1,-9
1522653659875251,12,0,2,-2,-8,-7,5,-2
1522653659875251,52,6,-5,-10,-2,-2,-28,2
1522653659876254,-56,-5,-1,-3,-6,-3,-1,-19
1522653659876254,-6,-1,-4,-9,-6,3,-4,4
1522653659898312,-5,-10,-11,-13,-11,-49,1,-10
1522653659898312,-16,-3,-1,-4,4,15,20,-8
1522653659899315,24,2,-2,-6,-7,72,9,-2
1522653659899315,29,6,-1,-7,-5,-47,-7,10
1522653659912350,8,5,6,-1,3,25,15,7
1522653659912350,-30,-13,0,-1,5,-7,-14,-23
1522653659913353,-23,2,-4,-5,-9,-38,-27,3
1522653659913353,-7,7,8,7,14,40,23,7
1522653659935411,-20,3,3,3,-4,17,4,-2
1522653659935411,30,-5,-6,-4,-2,-18,-8,10
1522653659936414,0,-6,2,9,9,-9,1,-5
1522653659936414,7,2,-3,2,-12,-28,-11,-4
1522653659958473,-8,-1,-1,6,5,21,9,5
1522653659958473,3,3,3,8,-12,-57,-7,2
1522653659959475,20,6,5,5,8,22,3,9
1522653659959475,-9,-6,1,3,1,-5,-4,-3
1522653659972510,-7,2,4,7,2,-2,-3,-2
1522653659972510,-21,-2,2,3,-6,13,-14,-27
1522653659980531,38,-6,-6,1,9,-5,-4,9
1522653659980531,-22,2,-1,3,-1,1,0,-1
1522653659995571,17,-3,-4,-2,-1,3,-10,1
1522653659995571,-11,0,6,6,2,12,5,7
1522653659995571,-5,1,6,8,4,-6,0,0
1522653659995571,13,-2,-3,0,0,-11,2,11
1522653660018632,26,-1,-4,6,2,2,-5,-11
1522653660018632,-22,0,-3,0,-4,-16,7,15
1522653660019635,-23,0,2,8,9,18,10,-10
1522653660019635,-22,-4,-3,0,-3,8,-1,11
1522653660031667,-14,-3,-2,-5,-4,-18,1,7
1522653660031667,34,12,12,15,15,1,-1,14
1522653660040691,24,6,0,1,3,28,10,5
1522653660040691,-63,1,3,4,2,-51,0,-10
1522653660055731,19,-5,-11,-9,0,91,-3,-7
1522653660055731,50,2,-1,-3,2,25,-5,12
1522653660055731,-13,-2,-2,3,27,26,-2,18
1522653660055731,-16,-3,-5,-9,-25,111,15,-1
1522653660078793,-41,6,8,8,13,-48,10,-9
1522653660078793,24,-2,-5,-3,-5,-5,-1,25
1522653660078793,-12,-7,-2,-1,6,7,0,-33
1522653660078793,20,-4,-4,-1,0,1,-8,4
1522653660091827,-7,-5,-5,-4,-9,-27,-10,4
1522653660091827,-13,1,0,6,15,-29,-13,-11
1522653660099848,4,0,4,1,-13,40,16,2
1522653660099848,-16,-5,-4,-4,-4,-41,-4,-10
1522653660114890,23,3,5,-1,-11,-7,-5,-1
1522653660114890,-14,-2,-4,0,1,-35,-6,-7
1522653660115891,37,5,3,0,-13,-23,-8,-1
1522653660115891,8,-1,-1,-1,-7,-17,-8,-9
1522653660138952,1,-4,-1,1,12,4,8,11
1522653660138952,6,1,-1,-4,0,38,6,7
1522653660138952,-20,1,-2,-3,-17,-66,-25,-22
1522653660138952,28,-5,2,6,12,23,11,5
1522653660151987,-28,0,-3,-1,-6,-11,-10,-17
1522653660151987,58,2,0,-6,-10,5,2,17
1522653660160008,-52,-10,-6,-5,-1,-5,5,-2
1522653660160008,14,5,5,6,-1,-6,-5,1
1522653660175048,13,-3,-8,-7,-5,-38,-6,-2
1522653660175048,-19,-2,0,-4,-14,-12,1,-5
1522653660176051,-12,-8,-5,-4,2,-61,-21,-11
1522653660176051,43,-7,-2,1,7,80,4,9
1522653660198110,40,4,-2,-5,-21,-51,6,30
1522653660198110,-61,-2,1,2,8,28,-5,-33
1522653660199113,64,0,-3,-3,-8,36,12,36
1522653660199113,3,-6,-8,-2,1,-82,-22,-5
1522653660212147,-38,0,2,4,-9,17,3,-10
1522653660212147,-1,-7,-1,-1,2,-34,-11,2
1522653660220169,-61,-7,-1,2,1,16,3,-28
1522653660220169,23,4,1,-5,-14,-54,-3,0
1522653660235209,-1,2,3,0,10,114,4,17
1522653660235209,11,-5,-7,-5,-17,-29,10,2
1522653660236212,-36,-5,2,1,-3,6,-9,-10
1522653660236212,17,5,1,-3,3,49,7,4
1522653660258270,-15,-4,-2,-6,-9,-8,6,-15
1522653660258270,-16,4,-1,-2,1,30,3,8
1522653660259273,7,-6,-5,-7,-11,-2,-12,-5
1522653660259273,30,2,-3,-6,-1,1,-1,17
1522653660272307,-43,-4,2,2,14,-39,-8,-18
1522653660272307,4,-2,2,3,4,53,10,-1
1522653660280329,29,16,5,3,11,-29,0,14
1522653660280329,-36,-3,-4,-5,-12,-19,32,0
1522653660295368,5,-1,-2,0,10,43,4,-7
1522653660295368,-15,-5,1,4,9,-36,0,3
1522653660296371,24,8,5,2,-7,1,1,0
1522653660296371,-18,-4,0,5,15,9,-14,-10
1522653660318430,48,8,4,2,-5,2,11,7
1522653660318430,-16,-15,-12,-6,-17,-39,-38,-22
1522653660319432,-20,-2,8,8,8,9,10,-11
1522653660319432,-36,2,4,3,7,-3,-35,-1
1522653660340488,-2,-9,-8,-4,-12,-27,26,-3
1522653660340488,17,5,2,5,31,65,-10,3
1522653660341994,-5,-1,-2,-2,-18,-3,25,-1
1522653660341994,-26,-1,7,2,4,-30,-6,-8
1522653660355530,-34,-5,-8,-11,-7,-30,-16,5
1522653660355530,50,4,-1,-9,-13,7,25,2
1522653660356533,-17,-3,0,-3,11,29,3,-7
1522653660356533,16,2,-1,-1,2,-1,3,10
1522653660378092,74,0,-9,-8,-3,-3,-5,13
1522653660378092,-47,2,4,-6,-4,-19,4,-13
1522653660379095,69,-3,-13,-12,-15,-110,-45,9
1522653660379095,-28,-9,-6,-13,-17,89,19,-14
1522653660401154,-31,0,1,1,6,5,-12,-6
1522653660401154,31,6,-1,-2,1,41,36,15
1522653660402156,3,5,1,-2,-3,-13,-31,3
1522653660402156,-18,-8,-2,-2,-6,-65,-32,-20
1522653660415191,-4,7,-1,-1,8,13,2,8
1522653660415191,45,0,4,6,7,43,3,-3
1522653660416194,-39,-2,4,-3,-21,22,24,0
1522653660416194,14,7,3,4,15,-12,-10,3
1522653660438252,42,-1,3,2,-1,-59,-22,2
1522653660438252,-49,-6,-7,-4,1,61,19,4
1522653660439255,-38,10,-1,2,6,31,0,-4
1522653660439255,59,-23,-16,-5,1,-16,9,2
1522653660461314,-11,4,5,4,1,14,-19,-3
1522653660461314,3,-7,-2,0,-6,-84,0,0
1522653660461314,-26,-8,0,1,6,-21,-1,-17
1522653660461314,-13,4,-11,-8,-8,49,13,11
1522653660475351,-96,-8,-1,-5,-11,-56,-2,-6
1522653660475351,100,-4,-4,-3,-9,16,8,12
1522653660476354,36,1,8,5,9,19,8,7
1522653660476354,-19,0,1,-1,-7,-25,-11,-14
1522653660498412,33,0,1,3,1,49,1,6
1522653660498412,-67,1,3,4,-5,-51,-36,-17
1522653660499415,-63,-7,1,2,11,-6,-2,-19
1522653660499415,26,4,-2,1,2,31,10,24
1522653660521474,0,-4,-5,-2,-1,-12,-5,-20
1522653660521474,-50,2,10,4,-4,-21,-17,-16
1522653660521474,96,1,-4,-6,-10,-22,-9,11
1522653660521474,-15,-1,-6,-5,12,75,9,-21
1522653660535511,16,-7,3,1,-4,-17,-12,-8
1522653660535511,-40,-4,-4,-2,-8,-71,6,3
1522653660536513,-48,-9,-10,-13,-19,63,19,-3
1522653660536513,47,6,6,8,20,47,-1,4
1522653660558572,7,-4,-2,-1,-2,54,17,22
1522653660558572,24,5,8,4,7,-9,-15,-16
1522653660559575,2,-9,-6,1,-2,-44,-9,-5
1522653660559575,-9,10,9,5,4,4,13,13
1522653660580630,-26,-4,-3,0,-4,7,7,-6
1522653660580630,10,0,0,3,-5,6,-6,-11
1522653660581634,22,8,1,2,9,33,10,10
1522653660581634,-9,1,7,10,21,-26,5,1
1522653660595671,55,5,-5,-6,-19,-11,18,14
1522653660595671,-45,-6,-6,-3,-18,-60,-21,0
1522653660595671,-24,-9,-7,8,31,88,23,9
1522653660595671,-3,-1,-3,-5,-24,-64,-15,-20
1522653660618732,-9,-1,4,5,17,38,6,1
1522653660618732,-18,-3,-6,-3,-7,27,-3,-11
1522653660619735,45,4,-4,-4,-10,-18,4,25
1522653660619735,-27,-4,-1,-2,8,-6,0,0
1522653660640790,-8,7,8,8,18,58,10,7
1522653660640790,10,0,-6,-5,-28,-67,-10,2
1522653660641793,-16,0,-4,-3,-5,9,-5,-8
1522653660641793,-9,0,-1,-3,-5,-5,0,7
1522653660654828,23,-7,-12,-7,-9,5,-16,-3
1522653660654828,-27,2,4,3,5,20,8,-13
1522653660655831,-24,2,3,3,16,11,-8,4
1522653660655831,32,-2,-6,-7,-27,-25,3,11
1522653660678892,-44,2,2,-3,-8,-49,-19,-31
1522653660678892,25,-13,-15,-10,8,48,6,11
1522653660678892,1,-5,1,-1,-3,-45,-14,-10
1522653660678892,25,8,6,0,-13,12,-1,-1
1522653660700951,-12,-5,-6,-1,3,-40,-16,-4
1522653660700951,-50,0,1,3,12,18,-1,-20
1522653660701953,20,0,0,-3,-18,-31,-6,10
1522653660701953,45,-3,0,4,11,-1,3,21
1522653660714988,-6,4,3,0,-4,10,3,-17
1522653660714988,4,-4,-1,-3,0,26,4,14
1522653660723009,-14,-2,-2,-1,-3,-43,-5,2
1522653660723009,-50,-1,5,5,8,-16,-7,-23
1522653660738049,6,6,2,-4,-11,19,-2,0
1522653660738049,38,0,1,-2,3,36,6,28
1522653660739052,-8,1,3,8,3,-41,-13,-13
1522653660739052,2,-2,1,1,2,-18,1,-3
1522653660761110,28,-2,-4,-5,9,12,-4,6
1522653660761110,9,1,3,8,13,10,0,2
1522653660762113,-22,-5,-7,-11,-30,32,2,1
1522653660762113,35,5,0,-3,-3,1,5,7
1522653660775148,-68,-9,-4,8,14,-21,-17,-29
1522653660775148,61,4,-1,3,-4,45,22,19
1522653660776151,-38,7,6,4,3,-26,5,-7
1522653660776151,34,-1,2,-1,-13,-49,-2,15
1522653660798209,13,-1,2,1,11,29,8,22
1522653660798209,-23,3,0,2,-3,-27,-2,-11
1522653660799212,13,-1,-2,5,12,40,12,-18
1522653660799212,13,-2,-7,2,24,72,11,26
1522653660821270,-21,1,3,0,-20,-81,1,3
1522653660821270,31,3,6,-1,-8,4,-26,7
1522653660822274,37,5,2,-2,-11,-56,-12,7
1522653660822274,-67,-2,2,-1,-17,-12,-5,-8
1522653660835308,79,-6,-4,-3,4,28,1,12
1522653660835308,-74,1,-3,-4,4,-36,-5,-9
1522653660836311,-15,3,10,3,14,62,5,-4
1522653660836311,27,-1,-7,-9,-9,-31,-18,-2
1522653660858369,-22,-5,-2,-5,-4,32,17,2
1522653660858369,41,3,-4,-4,-4,-46,4,11
1522653660859372,18,-5,-5,-3,5,36,-1,-11
1522653660859372,-40,-8,-3,-2,-4,18,13,-11
1522653660881430,10,7,4,4,5,-10,-4,-5
1522653660881430,-35,1,4,7,6,13,13,-10
1522653660881430,-5,-12,-9,-4,-3,-1,-3,-5
1522653660881430,-65,-2,2,7,2,5,-3,-23
1522653660894465,65,3,-5,0,2,-3,4,14
1522653660894465,12,-4,-1,1,-5,4,-11,-11
1522653660902487,-16,3,9,7,6,-19,-14,1
1522653660902487,-27,-2,1,-2,-4,26,13,-3
1522653660918529,0,2,-3,-1,4,0,10,4
1522653660918529,17,2,-1,3,4,-1,-5,-4
1522653660919532,72,4,4,2,0,21,3,1
1522653660919532,-92,-2,0,-2,-1,-62,-18,-12
1522653660940588,-64,-10,-7,-5,-1,64,15,5
1522653660940588,55,2,6,-1,0,-49,-2,1
1522653660941591,-5,2,-6,-12,-14,-68,-15,5
1522653660941591,77,1,-2,-3,6,25,-2,-6
1522653660954626,-35,7,6,2,7,-10,2,-10
1522653660954626,-37,-5,0,0,-2,-32,-16,-11
1522653660962647,-29,0,-2,0,5,74,16,2
1522653660962647,28,-2,-4,-2,7,10,-8,16
1522653660978690,-6,2,-2,-5,3,16,-5,-1
1522653660978690,14,4,3,0,1,27,20,17
1522653660979692,-7,-9,-2,-3,1,-9,-23,-14
1522653660979692,-3,-7,-15,-10,-11,-64,-20,-8
1522653661000748,42,1,0,-4,0,41,24,7
1522653661000748,-8,-10,-4,-8,-24,-43,-14,-5
1522653661001751,-6,-3,-2,-3,4,41,18,2
1522653661001751,-3,3,8,0,0,17,7,-15
1522653661014785,17,1,-7,-12,-8,-32,-21,-2
1522653661014785,-6,-6,-4,-9,1,-1,-4,0
1522653661022807,16,5,6,-3,-8,30,3,-9
1522653661022807,-14,-3,1,-5,7,-32,-5,-2
1522653661036844,-58,-5,0,-5,-3,18,19,-9
1522653661036844,65,2,-1,0,8,32,14,11
1522653661045868,-9,0,4,2,6,24,18,1
1522653661045868,-11,0,-5,-8,-17,-3,13,-3
1522653661060908,-3,-2,1,4,14,3,-27,-1
1522653661060908,-32,-3,2,4,11,68,10,-10
1522653661061911,-23,-3,-3,-2,5,17,1,-10
1522653661061911,75,10,5,3,-4,3,-2,4
1522653661074945,-3,-6,-11,-7,-12,-57,-37,1
1522653661074945,-9,4,0,5,11,65,-6,-14
1522653661082967,-16,-4,-6,-4,-30,-128,-4,13
1522653661082967,-2,8,2,2,0,12,-2,-2
1522653661098007,8,-1,7,8,-5,-22,20,-8
1522653661098007,2,1,-3,-4,-2,5,-11,2
1522653661099010,-3,-3,-1,4,8,21,13,-10
1522653661099010,-15,-8,-6,-2,-6,-21,-14,-2
1522653661121068,56,3,2,1,-7,-22,10,16
1522653661121068,-64,-7,1,6,-1,-9,4,-22
1522653661122071,30,4,3,6,1,-9,-6,14
1522653661122071,-6,2,0,5,4,19,13,-2
1522653661135105,-11,6,3,6,4,4,-7,-4
1522653661135105,-2,-1,-1,-3,-5,-20,-5,-2
1522653661143127,34,-4,-7,-2,2,16,5,17
1522653661143127,-19,-3,1,2,6,12,9,4
1522653661158166,-10,-6,-1,1,-8,-3,-6,-6
1522653661158166,35,4,-4,-2,-2,-9,2,12
1522653661158166,-3,-7,1,3,-3,3,-4,-13
1522653661158166,-40,0,2,-1,-7,12,3,11
1522653661181228,7,-5,-6,-4,0,6,4,-17
1522653661181228,7,0,-6,-2,2,3,14,24
1522653661182231,21,2,-4,-3,7,37,0,20
1522653661182231,40,10,3,2,-13,6,-2,11
1522653661194263,-54,-14,-17,-12,-33,-48,-10,-25
1522653661194263,0,-7,-9,-6,0,26,4,18
1522653661203287,-8,1,-3,-2,-4,-25,-6,1
1522653661203287,-1,-5,-4,-1,-2,-22,-13,-7
1522653661217324,27,10,8,7,18,53,6,14
1522653661217324,-24,-4,-3,-1,-11,-27,-7,-24
1522653661218327,-13,-2,-2,-2,-1,30,-5,-4
1522653661218327,4,-2,-1,0,8,6,-2,-1
1522653661241388,48,8,4,1,7,6,-7,13
1522653661241388,-57,-8,-1,3,3,-3,6,-13
1522653661241388,-22,4,7,7,0,-17,-1,-22
1522653661241388,-1,-12,-6,-3,-5,-34,-16,-25
1522653661263447,19,7,7,4,13,94,20,33
1522653661263447,8,5,6,2,-4,-69,-12,-11
1522653661264449,-21,-5,-7,-5,-13,-16,-4,-4
1522653661264449,7,1,1,2,7,8,8,12
1522653661277484,-35,-6,-3,-1,-7,-36,-14,-18
1522653661277484,16,-5,-2,1,-4,13,3,2
1522653661278487,-8,3,4,3,1,-51,-16,-2
1522653661278487,18,4,5,4,23,-46,-4,15
1522653661300545,6,-3,1,1,-19,-3,6,8
1522653661300545,-30,1,1,-3,1,68,0,-15
1522653661301548,-19,3,-3,-7,-20,-55,-18,-13
1522653661301548,-9,-1,1,4,9,-15,0,9
1522653661323607,35,-3,-5,-3,-4,-67,-15,-13
1522653661323607,-36,4,3,4,-10,-16,-14,-16
1522653661324609,46,-8,-10,-12,-18,5,0,41
1522653661324609,-11,6,5,1,0,-18,-8,-16
1522653661337644,-28,-6,-1,-2,-3,-27,4,5
1522653661337644,42,1,-2,-3,1,29,5,2
1522653661338647,-7,-4,0,3,8,16,0,6
1522653661338647,-81,-8,-9,-7,-13,-50,-4,-15
1522653661360705,20,2,0,-4,-4,-12,10,14
1522653661360705,13,2,2,1,-1,-1,-4,-5
1522653661361708,23,4,0,1,11,53,7,-3
1522653661361708,4,-1,-1,-1,-1,77,18,6
1522653661383766,-19,-2,-3,-1,-1,11,-14,-1
1522653661383766,16,0,0,-4,0,-10,8,7
1522653661384770,-47,4,-1,-2,-3,-26,13,2
1522653661384770,85,-2,0,1,11,64,19,15
1522653661397804,-47,6,1,-2,0,13,1,-5
1522653661397804,18,-2,3,10,29,75,-3,12
1522653661398807,4,3,-3,-6,-9,-58,13,17
1522653661398807,-51,-4,-1,-2,-1,7,12,-22
1522653661420865,66,4,-6,-3,6,18,10,13
1522653661420865,-48,2,2,-2,-2,-43,4,-2
1522653661421868,5,3,0,3,15,16,-5,5
1522653661421868,-9,-3,-3,1,-3,18,10,11
1522653661443926,2,7,6,1,-4,-12,-20,-15
1522653661443926,14,-10,-13,-1,4,-18,5,0
1522653661443926,2,-3,3,2,2,28,-3,-13
1522653661443926,1,2,1,-3,-7,-4,-15,0
1522653661457964,-10,-5,1,6,7,-18,8,-2
1522653661457964,10,0,1,-1,-5,-5,-17,6
1522653661458967,-32,-6,0,2,5,17,-1,-14
1522653661458967,19,6,-1,-3,-4,-7,-5,4
1522653661481026,-14,-5,2,3,3,0,10,-7
1522653661481026,-43,4,1,-2,-9,-25,-6,-2
1522653661482028,43,-1,-6,1,3,-14,-16,1
1522653661482028,-28,-3,1,-2,-3,-18,-6,-2
1522653661503084,0,2,-2,-1,0,19,18,-4
1522653661503084,-13,-3,-2,-3,-10,-19,-10,-14
1522653661504086,38,-4,-1,-3,-2,-18,8,6
1522653661504086,15,-8,-3,3,11,36,-7,-9
1522653661517121,-6,-1,-4,-5,-2,26,-29,-15
1522653661517121,-26,-9,0,-4,-17,-74,18,0
1522653661526145,34,3,-4,-10,-4,-4,-7,-4
1522653661526145,-29,1,2,-6,0,46,-1,-8
1522653661541185,-5,-5,-8,-8,-3,-41,-9,3
1522653661541185,-21,-2,-6,-3,-2,-6,-19,-17
1522653661542188,-13,7,4,5,12,35,4,-5
1522653661542188,4,-2,-6,-10,-15,-69,-3,9
1522653661563244,-20,-5,-2,1,0,-14,-9,2
1522653661563244,1,3,-5,0,9,85,41,0
1522653661564247,15,-6,1,-2,-6,-19,-3,-5
1522653661564247,37,-2,-11,-7,-3,0,0,2
1522653661578284,-24,3,5,1,9,2,-13,-13
1522653661578284,30,10,9,3,4,16,34,20
1522653661578284,-51,-6,-2,1,-2,-14,0,-7
1522653661578284,-7,1,2,-2,1,1,4,-1
1522653661601345,70,1,-8,-5,-6,-16,-5,2
1522653661601345,57,2,-5,-8,-15,-10,-60,-2
1522653661601345,-58,-3,4,6,8,24,13,-4
1522653661601345,-22,0,2,3,1,23,9,0
1522653661623404,3,-5,4,5,11,21,9,10
1522653661623404,-16,-4,-1,-3,-15,-63,-16,-8
1522653661624406,7,0,-4,-1,-2,-17,-9,11
1522653661624406,-5,-8,-9,-10,-14,-58,-17,-1
1522653661637441,-2,5,5,3,-1,34,-3,-4
1522653661637441,61,1,0,4,15,56,6,20
1522653661638444,-31,-6,-1,-2,-3,-15,-20,-14
1522653661638444,-28,2,0,-5,-23,-41,12,-9
1522653661661505,38,-10,-7,-5,2,-15,-3,9
1522653661661505,-21,-7,-4,0,2,-36,-5,-11
1522653661661505,0,-3,-2,-3,7,75,28,3
1522653661661505,52,6,-1,-2,-6,-37,-29,0
1522653661683564,-21,3,1,-2,-9,-21,1,-14
1522653661683564,-44,-6,-2,1,4,37,11,-15
1522653661684566,3,-4,-2,-2,3,-58,-1,1
1522653661684566,-28,0,1,4,13,2,10,-5
1522653661697601,-22,-1,0,5,-4,-58,4,-8
1522653661697601,43,3,3,4,5,33,15,14
1522653661698604,20,4,2,-4,-8,16,3,3
1522653661698604,-16,-6,-2,2,1,30,14,-1
1522653661720662,-12,-3,2,5,15,39,16,7
1522653661720662,37,3,1,3,-5,22,12,1
1522653661721665,-53,7,5,2,-12,3,14,2
1522653661721665,28,0,-2,0,14,82,12,0
1522653661743724,-5,-3,-9,-9,-18,18,5,5
1522653661743724,2,4,-3,-1,5,-82,-12,11
1522653661744726,26,1,-5,-4,-5,-18,-2,5
1522653661744726,-6,1,-1,-3,-8,26,4,11
1522653661757761,-15,3,1,7,-9,13,15,17
1522653661757761,-25,1,1,0,15,68,-10,-22
1522653661758764,29,-2,-5,0,5,-9,-8,6
1522653661758764,26,1,-2,1,-2,-14,-15,5
1522653661780822,-24,5,6,2,1,25,-3,0
1522653661780822,-3,-10,-2,0,-15,-72,-11,-8
1522653661781825,-4,5,9,6,11,32,1,-13
1522653661781825,32,1,-1,-2,2,-8,-12,15
1522653661803884,2,3,2,1,5,8,-19,-14
1522653661803884,-18,-5,0,1,-6,-22,-4,18
1522653661803884,-33,-8,-9,-9,-22,-9,-9,-16
1522653661803884,9,5,5,-1,-5,-5,-4,0
1522653661817921,-10,-2,-1,-1,18,22,-10,-2
1522653661817921,23,-1,4,-1,-8,-28,-7,9
1522653661818924,-9,4,5,5,6,23,-5,-5
1522653661818924,-23,8,5,4,9,56,-1,-9
1522653661840982,2,-13,-7,1,13,-90,-19,-4
1522653661840982,49,8,0,-11,-49,-27,-6,14
1522653661841985,-40,-22,-16,-6,0,-1,-12,-11
1522653661841985,-9,-1,1,2,1,-27,-14,-20
1522653661864051,-15,3,7,1,-1,5,2,-4
1522653661864051,8,3,2,1,7,12,-1,3
1522653661864051,16,3,4,3,-12,-76,-21,-21
1522653661864051,23,-9,-6,-3,-1,35,5,27
1522653661877078,-31,-3,-5,-9,-8,48,12,-5
1522653661877078,12,4,6,3,6,-22,3,12
1522653661885100,-21,-2,0,5,24,55,15,-6
1522653661885100,-9,-3,1,1,-2,-115,-23,-16
1522653661900140,-21,-4,-6,-1,-5,-9,-8,-11
1522653661900140,-4,2,-2,-2,-24,15,-6,-8
1522653661907158,28,1,-5,-13,-10,-60,-8,2
1522653661907158,-29,-10,-11,-11,-11,16,14,8
1522653661923201,73,0,0,4,15,34,18,15
1522653661923201,-59,-9,-3,2,-6,-47,0,-18
1522653661924204,34,3,0,2,3,50,5,14
1522653661924204,-5,2,1,-1,-3,15,5,-4
1522653661937238,17,-3,-1,-7,-17,-17,-1,-4
1522653661937238,-61,-6,-3,-2,4,17,1,-13
1522653661945260,86,4,-2,-4,-5,48,13,26
1522653661945260,4,0,-2,6,27,46,-3,4
1522653661961302,-28,6,4,-1,-10,-33,38,12
1522653661961302,-9,0,-3,-6,6,72,-5,-8
1522653661962308,-12,-3,-5,-5,3,-20,29,11
1522653661962308,-85,-1,5,4,7,-25,13,-2
1522653661983361,28,-1,-16,-10,-9,-5,3,7
1522653661983361,65,3,7,3,6,-29,-6,-11
1522653661984364,-26,-1,-1,2,8,23,-15,4
1522653661984364,-29,-9,-10,-6,-3,-21,16,-12
1522653661997398,-81,-11,8,9,11,92,42,-17
1522653661997398,105,15,-10,-9,-5,-70,-31,35
1522653662006422,-87,-4,6,5,-4,-36,-21,-18
1522653662006422,41,10,7,3,-12,-73,-18,-21
1522653662021462,104,11,5,7,9,61,-2,24
1522653662021462,-116,-21,-5,2,10,4,0,-13
1522653662021462,102,6,3,5,9,78,15,-3
1522653662021462,10,-6,-4,-6,-21,20,3,10
1522653662043521,-21,-7,1,1,-5,-68,-44,-27
1522653662043521,28,5,2,0,13,23,17,5
1522653662044524,49,10,8,6,1,-45,-16,10
1522653662044524,-29,-4,0,-3,3,38,13,-5
1522653662057558,8,3,-4,-11,-11,-90,-41,2
1522653662057558,44,-5,-8,-5,22,41,20,0
1522653662065580,-61,-2,-2,-5,-12,9,-3,-14
1522653662065580,-2,-3,-4,-4,6,14,16,11
1522653662080620,6,-1,-7,-3,-7,-10,-4,10
1522653662080620,-14,9,-3,-6,-6,-21,1,-2
1522653662081623,-54,0,3,-5,7,51,14,-2
1522653662081623,-4,-3,-2,-3,1,-56,-25,-1
1522653662103681,1,4,0,-4,-8,-22,-14,-14
1522653662103681,-44,-25,-10,-6,2,55,13,6
1522653662104684,45,-5,-5,-9,-10,-56,-42,-2
1522653662104684,90,13,-3,-2,19,121,40,15
1522653662116716,-71,-3,1,-6,-13,-42,26,-5
1522653662116716,62,-1,-4,-8,-7,4,-28,-22
1522653662125740,2,-8,-7,-9,-4,-10,9,4
1522653662125740,-10,-1,-3,-3,-5,-23,-21,-10
1522653662139777,100,15,8,6,10,55,17,6
1522653662139777,23,8,0,-1,-5,-7,7,4
1522653662148801,-2,-4,-4,-6,-10,-24,-25,-9
1522653662148801,4,4,7,3,1,1,-5,-3
1522653662163841,5,-1,-1,-1,5,-26,-3,2
1522653662163841,2,5,9,3,-12,10,39,2
1522653662164844,-64,5,7,5,4,6,16,-10
1522653662164844,29,-8,-4,0,1,-11,-8,5
1522653662176875,-73,0,4,3,-9,-32,-23,-2
1522653662176875,55,-7,-2,3,13,17,12,-4
1522653662185900,18,3,3,11,11,19,-10,5
1522653662185900,-77,-13,-6,-3,-8,-45,0,-1
1522653662199937,25,-1,-2,1,3,-7,2,-1
1522653662199937,-4,-5,-7,-3,1,-66,-23,-7
1522653662208961,13,2,2,0,-3,-9,15,0
1522653662208961,-24,3,4,-1,6,11,-4,-18
1522653662222998,63,2,-5,-2,-3,-12,-21,0
1522653662222998,-95,-18,-1,1,2,-19,20,12
1522653662225004,-5,0,-3,3,1,-21,7,-16
1522653662225004,49,14,7,0,-5,24,-9,-9
1522653662246060,-69,-13,-1,8,9,22,-8,-18
1522653662246060,46,22,10,5,-8,102,2,17
1522653662248065,-32,-5,-2,-1,6,-25,5,-10
1522653662248065,23,-2,-2,1,-9,-8,-1,1
1522653662260097,-66,-7,0,3,-17,-17,3,-18
1522653662260097,42,0,-5,-9,-33,-78,-26,-12
1522653662269121,-7,-11,1,6,25,-4,14,17
1522653662269121,46,4,-9,-6,-3,55,17,19
1522653662283159,-82,-11,-10,-6,-7,33,-21,-12
1522653662283159,-23,3,5,7,-7,19,22,4
1522653662285164,-50,0,-1,1,-5,-17,-6,-22
1522653662285164,21,1,0,3,-7,-30,18,10
1522653662306220,-27,4,2,5,14,43,10,-14
1522653662306220,11,-5,-2,0,8,-10,-7,24
1522653662307223,12,1,-7,-6,-7,53,5,10
1522653662307223,20,-6,-2,0,8,4,-11,3
1522653662319254,-27,2,0,-1,3,1,5,12
1522653662319254,-33,3,3,-5,-2,27,-5,-10
1522653662328279,38,0,-4,-7,-12,-9,-12,8
1522653662328279,-40,-1,-3,6,1,-8,-8,-5
1522653662343318,78,1,5,-4,-3,-18,-5,8
1522653662343318,-77,2,-2,2,6,10,-9,-1
1522653662345324,53,3,-1,-3,-12,32,9,33
1522653662345324,-14,1,4,8,38,51,22,4
1522653662366380,26,-1,0,2,-14,4,-2,-16
1522653662366380,-23,-1,2,6,20,-35,-22,-29
1522653662367382,36,-1,-3,-10,-19,22,-3,2
1522653662367382,-21,0,-1,-5,-13,-17,-14,-1
1522653662379414,40,6,3,7,16,-3,17,21
1522653662379414,-21,-3,3,1,-2,11,-5,-15
1522653662388438,-15,-2,0,0,2,-15,0,-7
1522653662388438,13,-3,-1,-2,-8,-30,-16,-7
1522653662403478,-14,0,3,1,2,-22,-3,-15
1522653662403478,14,-5,-6,1,3,17,4,9
1522653662405484,-8,0,-1,-1,6,19,3,0
1522653662405484,5,-12,-14,-16,-44,-97,-14,9
1522653662425537,19,6,8,9,45,70,3,-9
1522653662425537,-20,0,0,1,-6,-55,9,3
1522653662427542,-12,-2,-1,1,1,-2,-9,-22
1522653662427542,15,3,1,2,-4,-32,-6,2
1522653662439574,-41,-13,-14,-11,-21,-14,6,32
1522653662439574,37,-1,4,4,2,14,-1,-21
1522653662448599,43,4,-4,3,5,-42,-1,25
1522653662448599,-20,-3,0,1,4,24,3,-16
1522653662463638,2,-10,-8,-10,-23,-41,-6,1
1522653662463638,-18,-2,0,7,16,20,0,-11
1522653662464641,-9,-2,2,-6,-25,37,8,-9
1522653662464641,88,2,-3,2,3,-9,-4,2
1522653662485697,-44,-8,-7,1,2,-43,-6,-9
1522653662485697,55,6,9,-2,-14,4,17,25
1522653662487703,-48,-4,-1,-1,2,46,10,-9
1522653662487703,-15,-12,0,1,0,-22,-19,-10
1522653662499734,22,1,-1,-12,-17,68,-1,-13
1522653662499734,1,7,4,2,6,-89,-3,22
1522653662508759,-37,0,-3,0,22,67,5,13
1522653662508759,-14,-3,-5,-6,1,24,10,4
1522653662523798,-38,-2,3,0,-7,-23,1,-8
1522653662523798,22,4,-4,-4,30,127,9,-8
1522653662524801,-72,2,0,-5,-14,-41,12,15
1522653662524801,49,-1,-5,-3,6,4,9,15
1522653662545857,40,6,3,0,-1,16,0,2
1522653662545857,-10,-8,-3,-4,-14,-60,-10,-10
1522653662547862,43,2,3,8,22,64,4,-12
1522653662547862,-106,-10,-5,1,2,13,21,-26
1522653662559894,93,3,6,6,2,-9,0,3
1522653662559894,-63,-4,5,4,3,-9,-13,-9
1522653662568918,1,-8,-4,-2,-15,-71,-13,-11
1522653662568918,1,4,5,2,-2,2,-3,-4
1522653662583958,23,-2,-2,0,0,11,-3,5
1522653662583958,-5,-4,-3,-2,-6,-23,1,-2
1522653662584961,17,-5,-2,-3,-3,-46,-11,3
1522653662584961,-36,6,3,1,11,4,-6,-5
1522653662606017,23,11,-5,-6,-19,-37,22,24
1522653662606017,-7,-5,-5,-4,-5,74,19,5
1522653662608022,-12,3,-7,3,23,-16,-17,-2
1522653662608022,-2,7,3,3,5,6,-8,3
1522653662620054,-4,-1,3,5,18,25,0,11
1522653662620054,-1,3,1,-3,-5,-1,4,-3
1522653662629079,66,12,4,-7,-11,-51,-2,19
1522653662629079,-2,-4,-1,0,14,68,23,2
1522653662643116,-38,-6,-9,-9,-11,-79,-33,-9
1522653662643116,-14,0,-1,-2,-2,20,6,-7
1522653662645121,-19,-6,-1,-2,12,81,12,-13
1522653662645121,-65,3,2,0,-17,-55,-12,0
1522653662666177,35,3,1,-1,10,53,10,4
1522653662666177,27,0,-5,-6,-3,-14,-15,2
1522653662667180,-33,1,5,-2,-8,-13,25,-11
1522653662667180,77,-4,-7,-6,-3,21,11,20
1522653662679212,-14,0,1,2,11,37,12,-16
1522653662679212,-86,-6,-1,0,-4,10,-1,-1
1522653662688235,23,-1,-2,-5,-10,-72,-37,-10
1522653662688235,29,3,2,2,12,51,-9,-10
1522653662703276,-55,-3,-5,-8,-20,-57,-15,8
1522653662703276,46,4,0,5,1,2,2,-2
1522653662705281,-16,-1,-2,-6,-6,-7,-1,0
1522653662705281,7,4,6,4,-2,-61,-9,2
1522653662726337,22,5,2,7,21,13,-12,-4
1522653662726337,-15,3,-3,-1,-8,-20,11,-6
1522653662727340,11,-6,0,3,8,38,7,-10
1522653662727340,66,17,1,-1,-5,-21,-9,1
1522653662739372,-85,-20,-2,4,-5,58,2,-16
1522653662739372,9,-7,-1,0,-1,-31,-6,-6
1522653662748396,-9,2,1,3,13,-18,-2,-16
1522653662748396,57,-6,-3,-9,-18,-22,0,9
1522653662763436,-20,-4,-4,-4,-12,-37,0,-6
1522653662763436,9,-1,-4,-5,0,32,-4,9
1522653662765441,-14,-6,-5,-7,-20,-37,-11,-5
1522653662765441,-21,-13,-7,-8,6,-34,-7,-11
1522653662786497,2,6,8,7,4,72,22,-15
1522653662786497,-6,-6,-4,-3,-1,-16,-7,0
1522653662787500,66,3,-7,-3,-4,-24,-7,17
1522653662787500,-50,-14,-9,-4,-17,14,-5,-1
1522653662799532,45,5,2,1,-3,-45,3,2
1522653662799532,9,2,6,4,8,17,-24,-20
1522653662808556,-9,-1,4,6,12,36,12,-4
1522653662808556,8,3,4,0,-9,-11,-6,-12
1522653662823596,39,2,5,3,2,5,-2,4
1522653662823596,-34,-4,1,-1,-14,-26,-5,-2
1522653662825601,-10,-2,-2,0,-2,96,0,1
1522653662825601,-13,-4,0,4,12,-48,1,-9
1522653662845654,-5,-5,-5,-8,-17,-16,-7,8
1522653662845654,22,5,0,5,15,21,-4,-5
1522653662847660,12,0,0,-2,-7,-11,0,13
1522653662847660,-22,-3,-1,2,0,52,5,-7
1522653662859692,3,2,-6,-7,-15,-83,-9,6
1522653662859692,-16,-1,-3,2,14,57,5,10
1522653662868716,5,0,-4,-5,-6,-17,4,19
1522653662868716,14,-2,-2,-4,-4,29,-9,-2
1522653662883756,-63,-6,0,9,22,8,0,-13
1522653662883756,13,2,3,-1,-18,-41,-9,1
1522653662884758,-2,0,0,1,-4,-44,-11,-15
1522653662884758,24,-6,-8,-4,6,34,13,37
1522653662905814,-4,4,3,-2,-5,-9,-14,-19
1522653662905814,-13,1,-4,-10,-19,-82,7,17
1522653662907820,-9,-7,-6,-1,5,21,-1,-3
1522653662907820,-8,2,-2,-1,-1,-12,7,-3
1522653662919852,-3,-1,1,-7,-9,25,3,7
1522653662919852,59,-3,-3,-2,1,4,-6,6
1522653662928876,-19,-3,-1,-2,-1,-26,3,14
1522653662928876,-20,1,-2,-4,-3,24,2,-4
1522653662943916,26,8,2,2,1,9,4,17
1522653662943916,-21,-5,-3,-1,0,21,-9,-25
1522653662944918,32,2,0,-7,-3,-5,-6,7
1522653662944918,-27,-1,0,1,0,-9,-8,-14
1522653662965974,-4,1,-2,4,5,22,8,-2
1522653662965974,-3,-1,0,2,8,30,3,-3
1522653662967980,-5,-2,-7,-3,-12,-59,-9,13
1522653662967980,-33,1,2,-1,-7,-10,-3,2
1522653662980012,9,-5,-2,1,11,7,-3,-2
1522653662980012,-3,-3,-5,-4,-5,-5,-4,-10
1522653662989036,2,6,4,3,4,13,-2,-10
1522653662989036,-15,0,-1,0,2,-34,-8,-15
1522653663003073,3,1,-1,0,-7,-14,-1,30
1522653663003073,-13,-3,1,4,8,5,4,-8
1522653663010092,5,1,2,1,-4,-12,-1,-2
1522653663010092,21,2,0,-3,-8,-3,-3,10
1522653663026134,-37,-4,0,-3,-3,-20,0,-19
1522653663026134,8,-6,0,-2,-2,-17,0,16
1522653663028140,9,5,1,-1,-8,14,-5,-31
1522653663028140,8,-7,-5,3,6,-1,12,17
1522653663039169,8,-3,-4,3,-3,-21,-11,-6
1522653663039169,15,2,2,5,11,24,7,10
1522653663049196,-15,-1,2,4,6,14,10,-3
1522653663049196,6,1,1,6,-2,15,4,8
1522653663063233,4,-3,-1,-1,0,11,5,2
1522653663063233,-13,-1,-1,-1,-18,-39,0,-1
1522653663069249,13,3,0,2,13,34,2,6
1522653663069249,-19,-2,2,6,11,1,-1,-10
1522653663093313,-11,-4,-1,-2,-9,8,13,25
1522653663093313,-16,-1,1,2,0,5,-7,-14
1522653663095318,-3,-6,-7,-4,-5,-18,0,-1
1522653663095318,-4,0,1,2,5,60,13,16
1522653663108353,-2,1,3,4,3,-32,-8,-6
1522653663108353,-15,-6,-8,-3,-1,4,-7,-8
1522653663110358,-2,0,-4,4,6,-7,12,17
1522653663110358,34,1,-3,-1,-6,-35,2,-8
1522653663122390,-50,-6,2,1,7,77,6,-15
1522653663122390,18,6,0,6,3,-27,-3,10
1522653663129409,-37,-5,1,5,11,5,-8,-4
1522653663129409,41,6,1,5,11,57,16,2
1522653663146454,24,4,2,-1,-18,-102,-22,-10
1522653663146454,-19,-4,3,4,24,97,27,3
1522653663147457,34,-2,-1,-4,-4,-44,-1,-2
1522653663147457,-53,-4,-2,-9,-4,-30,-20,-6
1522653663168513,17,0,-3,-10,-3,26,5,-6
1522653663168513,11,2,0,-14,-8,23,0,0
1522653663170518,30,6,2,-11,-12,-72,-13,8
1522653663170518,-15,-9,-11,-19,4,18,-10,-4
1522653663182550,-6,-3,-3,-16,-20,-5,-13,-16
1522653663182550,10,-2,-3,-18,-19,-19,2,6
1522653663189569,-45,-11,-10,-18,-15,-31,-9,3
1522653663189569,22,1,-3,-9,5,-16,-28,-1
1522653663205611,9,0,-1,-10,6,23,14,7
1522653663205611,1,2,4,-5,-5,15,12,1
1522653663207617,2,1,-1,-11,-9,2,-26,-13
1522653663207617,-15,-1,-1,-7,-2,-20,13,3
1522653663228673,-12,-5,-4,0,9,-17,-7,-11
1522653663228673,11,1,1,-2,-9,-18,-5,-9
1522653663229676,-5,-3,-6,-9,1,30,-20,-13
1522653663229676,23,1,5,-2,-18,-8,17,0
1522653663242710,8,-4,-1,2,-2,-28,-11,-3
1522653663242710,8,6,0,-2,17,45,-6,-5
1522653663249729,-58,-5,-2,2,-11,31,49,4
1522653663249729,16,2,3,5,8,26,-21,-13
1522653663265771,63,8,2,11,12,-23,16,8
1522653663265771,-9,-5,-3,10,4,20,14,-2
1522653663267777,41,4,-1,5,5,3,-10,6
1522653663267777,-64,-8,1,11,7,34,32,-11
1522653663288833,27,11,3,5,-12,1,7,10
1522653663288833,11,-7,-4,3,4,-41,-23,0
1522653663289836,2,-6,-6,5,0,19,9,-12
1522653663289836,8,1,-5,2,-14,-53,-14,-6
1522653663301867,-23,2,3,8,8,87,10,-17
1522653663301867,-41,-4,0,8,5,-51,2,-9
1522653663310891,67,14,6,8,12,-16,-4,1
1522653663310891,-26,-3,-1,2,1,64,11,-3
1522653663325932,-18,-8,-1,0,0,-43,-6,-11
1522653663325932,16,-2,-5,-6,-16,-25,-8,-1
1522653663327937,0,4,8,4,7,-2,-4,-9
1522653663327937,12,-8,-6,0,0,-18,-11,-9
1522653663348993,11,0,2,-1,5,20,12,6
1522653663348993,-25,-3,0,0,-7,-22,-8,-3
1522653663349996,0,-3,1,-2,5,10,-3,0
1522653663349996,-16,4,-4,-6,-9,-38,-8,12
1522653663362028,-15,-3,-2,-9,-11,3,-7,7
1522653663362028,41,6,4,-3,-3,-51,-21,2
1522653663371051,-81,-10,0,0,-5,34,25,0
1522653663371051,19,0,2,-1,-13,-42,-5,8
1522653663386091,3,-2,-3,-6,4,60,3,7
1522653663386091,13,2,-1,0,3,26,-2,-4
1522653663388097,-3,4,3,-5,-17,-6,-3,-7
1522653663388097,30,-1,4,10,12,-7,0,6
1522653663408150,-26,-3,-4,4,2,-18,-6,-5
1522653663408150,-14,-5,-4,-1,-8,5,11,9
1522653663410156,-6,0,-1,6,2,20,7,-6
1522653663410156,3,-1,1,6,-9,12,0,-13
1522653663422188,-9,-3,0,7,1,-31,-1,-12
1522653663422188,3,1,1,1,0,14,13,-9
1522653663431212,-1,-5,-4,-2,-8,-14,2,9
1522653663431212,10,5,1,5,13,25,11,10
1522653663446251,16,0,0,-2,-8,7,13,17
1522653663446251,-6,3,3,-1,-10,-51,-6,-1
1522653663447254,4,-4,-5,0,26,81,4,13
1522653663447254,-43,-4,-3,-7,-10,-17,-8,-17
1522653663468310,15,0,0,1,7,4,-11,0
1522653663468310,14,-2,-4,-1,5,11,-4,5
1522653663470316,18,-2,-4,-5,-11,-34,-3,13
1522653663470316,-13,7,4,0,4,-1,-7,4
1522653663482348,1,-2,-5,-5,-2,3,-24,-11
1522653663482348,-7,2,0,-3,-14,-21,-7,6
1522653663491371,-5,-4,-3,-1,14,31,4,5
1522653663491371,11,2,2,4,11,-5,-3,4
1522653663506412,-17,-8,-6,-1,-7,-31,-16,0
1522653663506412,6,-4,-5,-1,0,7,-1,11
1522653663507414,-1,-1,1,1,-1,-2,-7,-2
1522653663507414,-4,-6,-5,-2,-6,-5,1,4
1522653663528470,-6,-2,-4,-3,2,-6,-2,2
1522653663528470,-7,6,4,-2,4,23,4,3
1522653663530476,14,0,0,3,8,-21,-11,-5
1522653663530476,-10,-2,2,1,-4,24,13,-3
1522653663542508,26,5,2,1,-3,35,-6,9
1522653663542508,28,7,0,3,9,38,7,19
1522653663551531,-33,4,-1,1,-19,-78,-5,-2
1522653663551531,-4,2,3,-1,1,21,-2,-12
1522653663565569,-18,-2,-1,3,12,28,-4,-11
1522653663565569,-12,-2,-4,0,-3,-5,0,-7
1522653663567574,29,-1,-3,-2,-8,-19,-1,11
1522653663567574,-13,-4,-2,-2,-11,-5,-8,1
1522653663588630,-8,1,5,3,-7,-27,3,-5
1522653663588630,25,-3,4,7,6,-49,-7,6
1522653663590636,-19,-7,-6,-5,-21,-8,0,-6
1522653663590636,0,0,1,4,0,18,-5,-7
1522653663602667,21,-1,5,5,3,-19,2,-6
1522653663602667,-15,-1,-3,1,-4,-2,-7,-8
1522653663610689,-42,-1,1,6,2,9,2,1
1522653663610689,31,1,-3,-1,-11,-12,-11,-3
1522653663625729,-5,-1,-3,7,8,-3,16,-8
1522653663625729,-17,0,1,0,-2,2,-10,-14
1522653663627734,-2,-2,-4,-6,0,-38,-5,-4
1522653663627734,-3,0,0,-11,-2,24,13,-7
1522653663648790,44,10,1,-10,5,-18,-3,13
1522653663648790,-47,-8,-7,-20,-3,-13,10,-7
1522653663649793,5,1,-5,-16,9,-4,8,-1
1522653663649793,-10,-3,1,-9,-8,-31,-5,-2
1522653663661825,24,-4,-10,-19,-15,12,11,-4
1522653663661825,9,4,-9,-17,-7,-18,-10,14
1522653663670849,13,-1,-4,-11,3,16,7,9
1522653663670849,1,3,-1,-7,-1,-35,2,-3
1522653663684886,-1,-3,6,0,8,-13,-8,5
1522653663684886,-5,-2,1,-9,-3,88,28,-5
1522653663691905,-16,1,2,-3,-7,-27,-12,-3
1522653663691905,3,1,-2,-7,-4,56,14,8
1522653663708950,-17,-5,-4,-4,-4,-3,-9,-10
1522653663708950,-26,-12,-7,-4,-4,-35,-21,-8
1522653663709953,28,9,4,8,18,21,3,1
1522653663709953,26,-3,-1,5,0,-21,-7,-10
1522653663721985,-10,-5,-3,1,-12,-44,-27,-6
1522653663721985,-3,5,2,5,14,7,7,-8
1522653663731009,2,-1,-6,-1,15,36,2,0
1522653663731009,15,-1,0,6,-2,-38,-9,-3
1522653663745046,-19,3,4,10,-8,40,30,13
1522653663745046,19,-3,-3,5,6,-6,0,6
1522653663752065,-3,-4,-3,3,8,15,5,0
1522653663752065,9,1,-2,3,-2,-34,-17,11
1522653663768107,-36,-6,-4,-2,3,18,-6,-13
1522653663768107,39,1,6,13,1,-16,20,0
1522653663770113,-17,4,-5,-6,21,59,-10,13
1522653663770113,-13,-3,1,6,-33,19,-21,-6
1522653663791169,-13,3,1,4,-1,-27,32,-2
1522653663791169,-1,-1,0,4,6,-5,-15,-3
1522653663792171,89,7,1,3,-7,-7,-14,2
1522653663792171,-104,-19,-6,2,13,21,12,-6
1522653663805206,60,9,6,0,1,2,-12,12
1522653663805206,-6,0,0,0,-10,-23,2,-3
1522653663812225,-22,-6,1,0,-4,46,24,-10
1522653663812225,20,2,1,0,3,-29,-5,-4
1522653663828267,-18,-4,5,3,-2,13,4,-5
1522653663828267,-7,6,-2,-5,2,9,3,5
1522653663830273,15,-9,-9,-8,-18,-30,-10,3
1522653663830273,-17,1,4,2,4,34,-2,-6
1522653663851329,-6,-5,-2,0,15,30,16,-3
1522653663851329,24,-2,0,-1,2,6,-11,2
1522653663852332,-14,4,3,-3,-9,3,4,6
1522653663852332,7,1,-2,-2,0,-67,-3,-2
1522653663864363,13,1,-2,-1,3,-16,-15,-4
1522653663864363,-33,-7,-6,-8,-6,11,-7,-8
1522653663873387,15,1,0,-1,-2,-34,-2,2
1522653663873387,-22,0,6,1,9,16,-5,-14
1522653663888427,31,3,-3,-8,-9,-2,-14,9
1522653663888427,5,3,3,-1,-1,-13,-7,9
1522653663890433,-53,-9,0,-1,-6,-43,-20,-34
1522653663890433,45,2,-1,4,12,39,-3,-6
1522653663911489,-33,-4,-2,-1,0,-31,-9,-19
1522653663911489,22,0,-2,-3,-7,16,3,7
1522653663912492,2,-5,-1,2,-5,-11,16,-4
1522653663912492,7,8,4,5,-6,-8,10,-3
1522653663924523,-29,-6,0,-2,-7,-3,5,-7
1522653663924523,-2,-1,-1,2,2,10,30,4
1522653663933548,-6,-5,-3,0,-7,-1,5,-1
1522653663933548,21,4,-2,-1,0,25,23,26
1522653663948587,-12,1,0,2,0,-9,2,-7
1522653663948587,-21,2,3,-2,-9,17,-3,-14
1522653663950593,23,-3,-5,0,-4,4,7,23
1522653663950593,-15,-6,-4,-2,1,14,1,-7
1522653663970646,14,-1,0,4,-1,-8,-6,8
1522653663970646,2,-1,-1,1,-4,6,0,5
1522653663972651,-18,-2,3,4,5,36,4,-11
1522653663972651,16,-10,-5,-3,-5,-12,-13,3
1522653663985686,9,2,-2,0,-4,14,-2,10
1522653663985686,-5,4,0,0,6,-10,-1,-1
1522653663991702,-19,-1,-2,3,-3,12,-4,-4
1522653663991702,12,2,5,4,-5,-24,-12,13
1522653664008747,-5,-4,2,7,-5,-2,-10,3
1522653664008747,-11,-3,0,2,-11,11,-16,-1
1522653664009750,14,3,1,8,12,0,-13,8
1522653664009750,-27,1,-3,6,-1,-7,1,-2
1522653664030806,7,-2,-4,3,1,11,1,15
1522653664030806,12,-9,-7,1,-2,-18,-11,3
1522653664032812,-20,0,1,2,-2,-15,-15,-11
1522653664032812,10,-4,-1,-4,2,-19,-12,-9
1522653664044844,-33,3,2,-5,12,33,-3,-18
1522653664044844,47,-7,-13,-15,-1,-7,1,34
1522653664051862,-8,0,-7,-3,8,-11,-8,-10
1522653664051862,-3,-6,0,-29,-37,-20,10,19
1522653664068907,-6,-3,4,-9,6,-3,-18,-39
1522653664068907,-30,7,8,-3,10,-1,-5,-20
1522653664069910,15,-4,-8,-12,-7,22,3,11
1522653664069910,-5,0,-3,-10,3,3,-4,-4
1522653664090966,19,-3,-5,-14,-15,-34,-4,6
1522653664090966,-9,3,5,-4,13,19,6,7
1522653664092971,13,-1,-4,-6,-3,-37,-8,-5
1522653664092971,-7,-1,-1,-9,-1,31,-9,-14
1522653664105003,-14,-5,-4,-2,-8,-28,18,3
1522653664105003,-13,0,-2,4,7,-34,-15,-8
1522653664112022,15,-3,0,5,-10,-30,5,7
1522653664112022,5,-8,-3,8,17,-2,-8,-17
1522653664128065,-7,5,10,7,-15,20,9,9
1522653664128065,-10,-4,-4,3,1,14,-2,-12
1522653664130070,2,2,3,2,-5,-21,-6,-10
1522653664130070,2,8,5,9,-1,-4,2,1
1522653664151126,13,-7,-6,-1,-2,17,2,5
1522653664151126,-26,-2,1,3,-4,-6,2,-11
1522653664153131,0,-3,1,3,8,31,10,4
1522653664153131,14,3,5,11,12,13,11,4
1522653664164160,-13,-8,-10,-2,-1,-12,-2,-7
1522653664164160,9,6,-2,1,13,13,10,12
1522653664174187,11,8,6,3,4,6,8,6
1522653664174187,16,5,-2,-3,-7,25,-29,-4
1522653664188224,-19,-3,-1,3,10,17,16,-1
1522653664188224,-16,-4,0,5,5,-19,-5,-10
1522653664190230,-14,2,5,4,7,51,14,-2
1522653664190230,-16,0,-2,2,9,-32,5,-2
1522653664211286,46,9,0,-10,2,18,-4,17
1522653664211286,-16,-6,-5,0,4,11,-6,-19
1522653664212289,45,7,3,-2,-2,-39,-8,12
1522653664212289,-6,-1,-1,0,1,3,9,11
1522653664225323,-13,3,2,-3,-18,-65,-7,-8
1522653664225323,4,-2,-9,-15,-8,54,-7,-7
1522653664232342,-40,-8,1,0,-5,-2,5,-3
1522653664232342,3,-5,-3,1,13,3,34,5
1522653664248384,9,-3,-8,-8,-2,2,5,6
1522653664248384,-9,-10,-9,-12,-13,-27,-10,-11
1522653664250390,-7,2,1,-3,7,8,-13,-1
1522653664250390,4,0,0,-3,-12,-11,0,-7
1522653664271446,-22,-9,-3,-2,6,-12,-12,-13
1522653664271446,5,2,6,-3,4,8,11,7
1522653664272449,-8,4,0,0,5,26,12,11
1522653664272449,36,-4,-11,-18,-14,-57,-7,-4
1522653664285483,39,-1,-4,-11,-10,35,-18,-5
1522653664285483,-45,2,9,19,54,6,28,13
1522653664292502,13,-2,5,5,-41,-4,11,1
1522653664292502,-16,0,3,6,15,-12,-4,-4
1522653664308545,6,2,2,0,-29,-25,-5,-4
1522653664308545,-32,2,-2,-7,-9,0,-8,-2
1522653664310550,14,3,-3,-6,9,-2,-6,-10
1522653664310550,-34,-2,5,5,6,6,2,13
1522653664330603,54,2,-1,-2,-6,18,2,17
1522653664330603,27,1,1,0,-11,-42,-11,-4
1522653664332609,-29,-10,-9,-2,1,9,0,-6
1522653664332609,-23,-9,1,0,-2,5,-9,-17
1522653664344641,-41,1,4,6,20,11,6,-5
1522653664344641,38,6,3,-4,-18,-41,-2,12
1522653664353665,41,-1,1,-3,10,90,-26,-13
1522653664353665,-102,4,8,11,4,6,40,-7
1522653664368704,42,2,-7,-4,8,-5,7,31
1522653664368704,32,1,-8,-8,-11,-8,3,6
1522653664369707,-28,-7,-3,-4,1,-36,-17,-15
1522653664369707,24,-3,0,6,4,15,-2,-3
1522653664390763,-27,-4,2,3,-6,15,4,-3
1522653664390763,27,3,-1,-4,-6,-3,4,9
1522653664392769,-31,1,-2,2,-13,4,10,4
1522653664392769,27,1,-1,-2,-5,-16,-23,-8
1522653664404800,-35,-6,-3,1,-2,-17,-4,-13
1522653664404800,8,1,0,2,-3,11,-3,-3
1522653664413825,4,-10,-5,0,-3,-12,2,-2
1522653664413825,48,0,-5,-3,-11,1,-3,4
1522653664428864,-12,1,0,-2,6,-6,-9,-1
1522653664428864,-5,-6,-3,1,-5,19,-4,-11
1522653664429868,-13,7,4,5,8,-32,7,5
1522653664429868,32,1,-1,-3,-7,3,-6,4
1522653664450923,-21,3,3,3,9,3,6,1
1522653664450923,1,-5,-10,-6,1,10,-12,-4
1522653664452929,-7,0,3,3,-10,-23,4,3
1522653664452929,15,-2,4,2,3,2,-5,-4
1522653664464961,20,7,1,4,19,25,1,-4
1522653664464961,-23,-3,1,0,-11,-12,7,12
1522653664473985,5,-2,-8,-6,1,28,7,15
1522653664473985,29,1,-4,0,-4,-8,-10,1
1522653664488022,-2,2,2,4,4,17,15,4
1522653664488022,-23,-4,-5,-2,0,-25,-9,-4
1522653664490028,11,5,-2,-3,3,-30,-1,-3
1522653664490028,-16,-2,-2,0,-2,1,-2,-3
1522653664511083,-9,1,3,1,0,13,-13,2
1522653664511083,23,5,5,0,-5,10,7,11
1522653664513089,-11,-4,2,0,-9,-27,-4,-4
1522653664513089,-6,-3,-6,-6,-2,-21,-4,4
1522653664525121,5,1,1,3,-4,18,1,1
1522653664525121,-20,9,7,2,0,35,-6,-2
1522653664534145,54,-8,-10,-14,0,37,17,8
1522653664534145,-9,-3,-2,-4,-9,-19,-8,-10
1522653664548182,-12,-7,3,12,6,-6,-22,-17
1522653664548182,2,-5,-1,5,0,12,15,-11
1522653664550187,-5,1,1,5,3,23,3,-5
1522653664550187,-28,-2,3,0,-3,-20,-8,-9
1522653664571243,16,-15,-17,-17,-20,-60,-12,-10
1522653664571243,0,-5,-2,-4,5,18,-14,-1
1522653664572246,-22,-3,4,1,-4,22,-5,-13
1522653664572246,8,4,2,-3,4,46,17,5
1522653664584278,-14,3,-5,-9,10,-19,10,13
1522653664584278,-11,-5,-8,-12,-5,-16,9,1
1522653664593302,7,6,7,11,17,11,-7,1
1522653664593302,-19,6,2,-9,8,-1,-12,-13
1522653664608342,15,-6,-21,-32,-11,-5,15,13
1522653664608342,-6,-2,4,23,23,1,-28,4
1522653664610347,7,9,8,20,20,-76,27,16
1522653664610347,-15,-5,-1,6,6,21,10,4
1522653664631403,2,8,5,3,2,-71,-11,-3
1522653664631403,-1,-6,-12,-27,-9,34,6,-6
1522653664632406,-7,-4,-8,-8,4,18,-19,-14
1522653664632406,-3,2,1,9,5,-25,0,7
1522653664644438,-5,1,1,1,9,52,13,-5
1522653664644438,17,2,1,-1,-8,-20,7,17
1522653664653462,-19,-1,4,5,-5,-59,-6,-9
1522653664653462,18,-1,-5,-9,-12,44,7,16
1522653664668502,3,-9,-10,-12,5,-71,-18,-12
1522653664668502,-2,8,11,24,14,29,22,-1
1522653664670507,-17,-5,-2,6,6,105,2,-10
1522653664670507,34,1,-3,-7,-15,-68,-15,1
1522653664690561,-43,-5,6,10,5,25,-3,-22
1522653664690561,-6,-11,-9,2,-8,-58,-12,-4
1522653664692566,21,-3,-5,-10,-14,56,-3,8
1522653664692566,16,3,3,7,-3,3,5,6
1522653664704598,-3,-1,5,9,-2,26,5,-1
1522653664704598,-12,-9,-9,-14,-9,-1,1,-15
1522653664713622,-2,-6,-3,-4,-22,-41,-24,-23
1522653664713622,-16,1,2,1,0,-17,-7,0
1522653664728662,11,5,6,2,2,35,20,14
1522653664728662,-19,7,4,-5,-2,1,3,-4
1522653664729665,33,-11,-10,-7,-4,-31,0,7
1522653664729665,-10,-11,-7,-7,-5,-32,-8,-1
1522653664750721,-2,7,6,2,-3,32,-1,0
1522653664750721,7,-9,-13,-1,-10,54,0,1
1522653664752726,-15,9,5,-3,-11,-64,-6,-8
1522653664752726,-7,0,-1,-3,3,47,8,0
1522653664764758,21,-2,-3,-4,-14,-22,-9,0
1522653664764758,17,2,-2,-7,-7,0,1,7
1522653664773782,-25,0,4,8,-24,-88,-17,-11
1522653664773782,-11,3,2,11,14,90,19,3
1522653664788822,-3,-7,-16,-10,-3,-6,-8,5
1522653664788822,4,1,1,-1,2,-33,0,-7
1522653664789825,5,1,-4,0,-2,8,-4,4
1522653664789825,-5,-2,-1,5,-3,-23,-5,-10
1522653664810881,-14,4,4,-5,-2,73,-8,-3
1522653664810881,17,-3,-2,0,-10,-52,-12,8
1522653664812886,-13,-1,3,-3,4,-28,-7,-6
1522653664812886,20,-4,-6,-20,-11,-1,-7,3
1522653664824918,-6,5,16,18,14,15,-6,-8
1522653664824918,3,-4,-3,9,17,19,-9,-5
1522653664833943,-42,0,3,2,0,13,20,5
1522653664833943,15,-1,5,3,8,-13,-6,-17
1522653664848982,3,-4,-3,-5,-41,-101,6,11
1522653664848982,-9,1,0,-5,1,52,-6,-9
1522653664849985,14,3,1,2,12,42,15,8
1522653664849985,-11,1,-1,-8,-11,5,-9,-6
1522653664871041,-5,1,-2,-7,5,43,16,1
1522653664871041,6,4,0,-3,-31,-58,-18,2
1522653664873046,2,-4,6,14,2,-46,-12,1
1522653664873046,12,-2,2,-3,-2,1,14,11
1522653664885078,-5,-9,-6,0,2,-12,-5,2
1522653664885078,-7,-9,-12,-18,-5,5,17,-1
1522653664894102,4,-1,-7,-7,-1,-47,-17,-4
1522653664894102,-22,-1,-7,0,-3,-42,-5,-17
1522653664908139,34,3,-1,0,11,5,2,3
1522653664908139,-47,6,0,-6,11,24,14,9
1522653664910145,33,-8,-12,-28,-13,14,2,3
1522653664910145,-9,-11,-8,-2,-12,91,-7,-3
1522653664931201,-6,5,5,19,26,-3,20,1
1522653664931201,-6,8,10,7,-6,-10,9,-11
1522653664932203,17,-7,-6,2,-1,4,2,3
1522653664932203,-25,-7,-8,-5,3,-1,-11,-6
1522653664945238,9,2,-7,-11,-18,11,-10,3
1522653664945238,14,11,5,7,6,-16,3,5
1522653664953259,-2,6,1,0,12,25,0,-2
1522653664953259,-6,11,13,9,0,-16,2,-23
1522653664968299,-1,3,-4,-2,-4,-7,-3,13
1522653664968299,23,-11,-6,2,4,-22,-3,1
1522653664974315,-2,3,-1,-1,1,28,4,3
1522653664974315,13,-1,1,5,7,-16,2,13
1522653664991361,-56,-2,7,7,-1,-9,-3,-10
1522653664991361,6,1,5,4,2,2,-11,-15
1522653664992363,5,0,2,1,-2,14,6,12
1522653664992363,-23,-7,-2,2,0,-13,-2,-3
1522653665004395,30,3,4,1,5,20,7,10
1522653665004395,14,-7,-7,-6,-5,-22,0,7
1522653665013419,-9,-2,2,7,7,16,5,-6
1522653665013419,12,6,8,10,4,-13,1,5
1522653665027457,-26,0,0,-3,-5,-14,-7,-17
1522653665027457,19,2,2,4,7,27,3,13
1522653665034476,2,4,2,3,5,30,0,4
1522653665034476,-6,2,2,-2,-6,-22,2,-3
1522653665051520,-3,0,2,-1,6,-11,-2,4
1522653665051520,9,-12,-9,-7,-15,-3,-9,-1
1522653665052523,-29,2,11,6,6,28,0,-18
1522653665052523,10,-6,-8,-10,2,-36,0,-2
1522653665073579,-27,-10,-15,-10,16,22,-3,-6
1522653665073579,22,4,1,-1,3,-59,6,10
1522653665075585,-25,3,5,6,-25,1,-5,-18
1522653665075585,33,-9,-5,-1,14,52,3,19
1522653665087616,-4,0,5,10,-11,-35,-14,-11
1522653665087616,-22,-3,-4,-5,5,38,12,-1
1522653665094635,2,-1,-3,-6,3,3,-9,4
1522653665094635,3,4,2,-5,-8,-24,-3,6
1522653665110678,11,-6,-9,-13,-14,1,6,13
1522653665110678,-26,-2,2,-3,6,6,-12,-23
1522653665112683,46,6,4,-1,-2,-9,6,15
1522653665112683,-28,-6,-10,-4,-3,-3,-9,-10
1522653665133739,7,-4,-4,-3,0,-4,-4,1
1522653665133739,-5,3,-3,-1,-5,-21,2,6
1522653665134742,-22,-7,-4,-4,12,46,5,-13
1522653665134742,16,-3,-4,-6,-7,-14,-7,4
1522653665147776,10,2,0,-1,-9,-104,-2,6
1522653665147776,-13,3,5,-1,5,103,2,-2
1522653665154796,20,9,6,12,8,-26,3,10
1522653665154796,-52,-3,-2,3,12,14,-5,-14
1522653665170838,30,0,-2,-1,1,9,-3,-3
1522653665170838,-16,2,6,4,-4,-26,-11,-4
1522653665172843,16,-5,-7,-6,-6,-16,5,7
1522653665172843,-12,5,7,7,-6,-2,6,-3
1522653665193899,-13,3,-1,-3,-2,4,4,-6
1522653665193899,31,-4,-7,-6,4,-12,0,9
1522653665194903,21,-14,-17,-13,-14,82,2,1
1522653665194903,-9,4,5,6,-5,-114,3,8
1522653665207936,5,3,5,4,-14,7,-8,-9
1522653665207936,12,1,-4,1,12,11,2,14
1522653665214955,-46,-12,-14,-10,-9,-68,-12,-19
1522653665214955,48,3,2,0,7,92,4,5
1522653665230998,-30,-6,-2,1,4,32,-2,-14
1522653665230998,20,3,5,1,-7,-50,1,5
1522653665233003,-39,-3,1,3,-11,-41,-7,-5
1522653665233003,39,-4,-11,-7,-13,-21,2,11
1522653665253056,-7,-3,-1,-1,16,41,-1,-13
1522653665253056,-22,-1,1,0,-11,-56,-1,-2
1522653665255062,0,-1,-2,0,6,-51,-8,-5
1522653665255062,-9,2,7,7,5,43,23,-8
1522653665268096,12,2,-5,-5,7,-8,-3,11
1522653665268096,-5,-7,-9,-17,-10,-16,-5,0
1522653665275115,2,1,9,15,8,14,-6,-13
1522653665275115,9,0,1,-5,-12,-9,-9,6
1522653665291158,-26,1,1,1,4,34,9,11
1522653665291158,13,2,3,4,1,-14,2,0
1522653665292160,17,5,0,-8,-10,-6,-2,9
1522653665292160,-14,-7,-10,-2,15,40,-6,-6
1522653665313217,2,3,6,4,-21,-60,-9,0
1522653665313217,-4,-9,-9,-6,-15,50,0,-5
1522653665315222,-27,-3,-1,-1,6,44,17,-8
1522653665315222,-7,4,6,6,14,-17,-6,-2
1522653665327254,21,1,-7,-8,-3,-9,-2,5
1522653665327254,-18,-3,2,3,-10,12,-8,-14
1522653665336278,24,0,1,1,4,-32,-3,6
1522653665336278,-18,5,10,4,-3,51,10,2
1522653665351318,25,-9,-12,-4,4,7,1,12
1522653665351318,-6,2,0,3,1,0,-3,-11
1522653665352320,-12,2,1,-3,-1,-17,-7,-8
1522653665352320,-5,0,0,-4,-16,-8,-14,-6
1522653665373376,-12,-1,3,3,6,-16,12,3
1522653665373376,-26,-3,-3,-1,1,10,7,-6
1522653665375382,32,9,6,-3,7,-16,1,20
1522653665375382,-13,-4,-5,-15,5,31,-4,-6
1522653665387414,13,3,8,13,-15,-46,-10,-1
1522653665387414,13,4,1,8,6,-5,5,4
1522653665396438,-39,-7,-6,-5,5,13,-3,-24
1522653665396438,16,3,-3,4,-6,3,8,15
1522653665411478,26,7,-2,-12,2,12,12,11
1522653665411478,-16,-5,1,-1,20,-10,-2,-5
1522653665412481,12,-2,-5,1,-5,-5,-6,3
1522653665412481,1,1,-2,-7,-1,-19,-4,0
1522653665433536,0,4,0,-2,-2,7,11,11
1522653665433536,0,-2,2,0,1,-6,-1,-8
1522653665435542,13,-4,2,0,-19,-60,-9,4
1522653665435542,-37,-3,2,3,16,64,0,-23
1522653665447574,-27,2,2,3,4,-3,0,-12
1522653665447574,4,-1,0,5,4,23,4,7
1522653665456598,18,-2,-1,-1,1,-9,-2,-6
1522653665456598,24,1,0,0,-20,-34,-5,5
1522653665470635,-4,-8,-4,-7,-10,-13,-5,-9
1522653665470635,-30,-2,1,5,8,43,4,-9
1522653665472640,-19,-4,-3,-2,-9,-1,-8,-11
1522653665472640,17,-8,-6,-5,-7,-44,3,10
1522653665493696,-1,0,0,-9,8,39,0,-2
1522653665493696,-8,3,3,6,-5,-47,-4,-6
1522653665494699,-6,4,5,0,15,65,11,0
1522653665494699,31,7,3,4,-4,-48,-5,11
1522653665506731,-39,-6,-3,2,0,-32,9,6
1522653665506731,18,-1,-5,0,4,15,3,-2
1522653665515755,-16,6,-2,2,-3,16,-2,0
1522653665515755,-2,4,5,3,11,-17,4,-2
1522653665530795,3,-4,-5,-4,-14,-1,-18,-5
1522653665530795,10,0,-2,-2,-1,-1,12,6
1522653665532800,-6,9,2,-2,7,-25,10,16
1522653665532800,-14,-15,-9,-7,-14,-12,-3,-12
1522653665553856,15,-12,-7,-6,4,5,-4,0
1522653665553856,-42,-7,0,3,3,33,-6,-13
1522653665554860,20,-7,0,-1,-12,-63,-11,7
1522653665554860,-2,-1,3,4,-3,-10,-3,-5
1522653665566891,-25,-3,-3,3,20,44,4,-3
1522653665566891,17,3,1,-2,-12,-32,-6,3
1522653665575916,8,-5,0,2,4,-5,-11,3
1522653665575916,-13,1,-8,-4,3,50,0,-7
1522653665590955,5,8,10,10,14,18,13,0
1522653665590955,22,5,2,3,5,9,7,16
1522653665592960,6,2,0,1,-5,48,6,-10
1522653665592960,-13,4,-3,-3,-6,-20,-12,-5
1522653665614016,-26,11,2,1,-9,24,-3,-8
1522653665614016,53,5,-2,0,18,-2,-5,14
1522653665615019,-3,-10,2,3,-4,-16,-10,-10
1522653665615019,-18,1,9,9,11,-53,-10,-6
1522653665627051,5,-6,-9,-13,-16,34,-4,-1
1522653665627051,5,2,4,3,1,17,22,2
1522653665636075,-7,2,-1,-4,-3,11,-8,-10
1522653665636075,-4,-5,-6,-4,-9,-7,7,5
1522653665651115,12,-1,-6,-10,-6,-114,-33,2
1522653665651115,-6,2,0,-4,-26,-37,-1,8
1522653665653120,-9,1,4,8,35,95,26,-1
1522653665653120,37,-6,-5,-4,-4,-50,-4,8
1522653665673174,-19,-4,6,3,4,13,-1,-10
1522653665673174,-10,-6,-8,-11,-17,-20,-14,-7
1522653665675179,-3,-1,-6,-2,-3,-49,-8,-3
1522653665675179,-12,0,3,1,13,71,13,-1
1522653665687211,7,3,-1,-2,2,34,2,-6
1522653665687211,-1,-2,1,-1,2,-16,3,9
1522653665696235,-14,-5,-5,-9,-12,-28,-5,-4
1522653665696235,-6,5,5,1,1,-3,-1,1
1522653665711275,53,2,0,-1,-14,-51,-14,11
1522653665711275,-41,-7,-6,2,11,-43,-5,-20
1522653665712278,13,-2,-3,2,-6,15,14,11
1522653665712278,17,-1,-4,-6,-5,12,2,4
1522653665733334,-24,1,0,2,13,16,8,-1
1522653665733334,-2,4,7,5,5,10,-9,-12
1522653665735339,0,-2,-2,-3,-4,-21,-3,14
1522653665735339,6,-1,1,-3,-1,-39,-1,-3
1522653665747371,-6,-6,-2,0,-4,3,-5,-6
1522653665747371,8,4,2,-2,-6,50,21,0
1522653665756395,8,-9,-6,-3,4,-15,-9,-5
1522653665756395,-11,6,5,3,0,17,7,2
1522653665771435,21,6,10,8,6,-6,-10,1
1522653665771435,-18,-6,-4,4,-7,22,-2,-8
1522653665772438,-26,-2,2,5,-2,-40,-5,-8
1522653665772438,13,-11,-13,-10,2,24,0,0
1522653665793494,5,5,4,1,5,20,11,-4
1522653665793494,-6,2,-3,-6,-4,2,-16,8
1522653665795499,-9,1,4,2,8,29,6,-7
1522653665795499,20,4,-1,-1,-16,-64,-5,13
1522653665807531,-14,-2,-6,-6,4,115,15,3
1522653665807531,25,-1,-4,-2,4,10,-15,-5
1522653665816555,-63,2,4,0,-1,60,3,-3
1522653665816555,15,-3,0,0,6,-14,-8,-1
1522653665830592,1,1,-4,1,-8,-56,1,1
1522653665830592,-5,-10,-6,1,10,43,11,1
1522653665832598,15,5,4,2,-12,-34,5,5
1522653665832598,10,-2,3,4,-1,24,-5,-3
1522653665853654,0,-6,1,3,1,-29,7,9
1522653665853654,-9,-3,4,2,-10,-30,1,-3
1522653665855659,0,-2,-5,-4,6,14,-2,7
1522653665855659,-23,0,-6,-12,-7,-12,-12,-6
1522653665866688,22,7,0,10,5,13,6,11
1522653665866688,3,4,3,8,-8,-31,-6,1
1522653665875712,37,5,3,3,5,24,-9,4
1522653665875712,-36,-6,-4,-4,-4,21,0,-12
1522653665890752,-5,1,3,-6,6,-18,-5,-1
1522653665890752,13,-5,-3,-2,-2,4,-1,4
1522653665896768,-3,0,-5,-7,-28,-24,-16,-10
1522653665896768,4,4,2,0,2,-12,16,4
1522653665913814,-43,-12,-7,-6,-19,-39,-9,-19
1522653665913814,15,-1,-4,0,-6,-9,6,11
1522653665914818,2,-7,-7,-5,2,-13,-9,-4
1522653665914818,-17,-2,3,0,-2,20,9,5
1522653665926848,38,-9,-5,-7,-13,-14,-11,-3
1522653665926848,-8,-4,-5,-13,-3,21,-10,-1
1522653665935872,21,-5,-5,-7,0,-19,22,5
1522653665935872,-22,5,3,13,22,92,3,-11
1522653665949910,-15,3,0,1,-1,-17,0,2
1522653665949910,21,9,1,2,-1,-6,-3,-2
1522653665956929,-28,-1,-1,-2,5,9,-2,-3
1522653665956929,4,-3,-1,-4,-3,-15,-4,-1
1522653665973974,0,1,-5,-5,-17,5,-5,2
1522653665973974,13,0,-5,-4,-6,15,2,14
1522653665974977,-7,-2,4,2,-11,4,-2,-16
1522653665974977,27,-3,-3,0,8,-15,3,5
1522653665996032,-12,4,0,-2,1,12,12,4
1522653665996032,-29,-3,1,1,3,-41,-4,-7
1522653665998038,27,1,-2,3,-1,5,3,3
1522653665998038,-4,1,-4,-7,-12,22,-15,-9
1522653666010070,4,3,0,0,7,-33,10,4
1522653666010070,-16,-5,-4,-1,4,1,-10,-16
1522653666017088,-6,1,-1,-2,2,7,3,9
1522653666017088,-5,-8,-3,-1,-6,-24,-6,-7
1522653666033131,-11,0,1,-3,8,34,7,13
1522653666033131,-6,-3,0,-1,-2,-8,-2,-12
1522653666035137,18,-3,1,1,7,8,2,7
1522653666035137,-22,-3,-2,2,-5,-10,-3,-5
1522653666056192,5,-9,-5,-4,6,27,0,-2
1522653666056192,1,4,5,3,-27,-17,-5,-4
1522653666058198,4,6,-2,2,4,18,5,5
1522653666058198,-8,7,1,6,11,7,7,1
1522653666070230,-3,4,0,1,7,9,1,5
1522653666070230,18,-7,-2,-2,3,5,-2,2
1522653666077248,-32,-2,3,3,-4,-9,-2,-6
1522653666077248,20,-5,-3,-2,-18,-21,-4,7
1522653666093291,-12,-2,-2,4,4,-4,-3,-15
1522653666093291,16,-4,-4,2,1,-7,-6,15
1522653666095296,-3,3,4,1,-7,-7,-4,-15
1522653666095296,6,3,3,1,7,-9,-2,2
1522653666116353,0,-3,-5,1,-3,9,-2,-5
1522653666116353,1,0,1,1,2,-47,-8,-2
1522653666117355,-18,6,7,4,5,18,4,-3
1522653666117355,21,-4,-3,1,2,-2,1,0
1522653666130390,4,5,6,0,2,10,1,-2
1522653666130390,6,-1,-1,1,-3,-47,0,6
1522653666144427,-31,0,1,2,-9,21,-8,-13
1522653666144427,-8,7,3,2,9,31,14,11
1522653666153451,-7,-6,1,2,3,-17,-4,-3
1522653666153451,11,4,8,7,9,20,4,-5
1522653666155457,21,-7,-4,-4,-6,8,-8,6
1522653666155457,-12,-4,-4,-7,-1,-6,3,-10
1522653666176512,-27,-5,-7,-10,-21,-61,-12,-6
1522653666176512,4,3,1,-1,10,39,14,5
1522653666177515,69,1,-4,-6,-7,15,-5,3
1522653666177515,-48,1,2,0,-2,-5,-13,3
1522653666190550,16,4,6,3,6,70,18,4
1522653666190550,-27,-5,-1,-1,-3,-29,-3,-6
1522653666197568,-5,-9,-4,0,1,-7,-4,3
1522653666197568,53,4,1,-2,0,-20,-8,5
1522653666213611,-8,-7,0,-2,-9,3,-8,-3
1522653666213611,-19,-4,-6,-3,3,29,2,-3
1522653666215616,-9,0,2,8,-6,17,12,1
1522653666215616,-22,2,0,-1,-7,-35,-8,-5
1522653666235670,19,-4,-5,-1,3,-21,-5,10
1522653666235670,19,0,1,2,11,-18,-3,-12
1522653666237675,12,3,-2,-5,-1,-55,-10,4
1522653666237675,1,1,-5,-6,-1,36,-8,-5
1522653666250710,-29,1,-3,0,-2,-32,1,-4
1522653666250710,-21,-6,-5,-8,-30,-66,-23,-6
1522653666256726,9,-2,-2,0,7,-31,16,6
1522653666256726,5,-2,-2,-2,-11,-9,-10,-6
1522653666273771,21,1,-4,-3,8,42,8,8
1522653666273771,-4,7,6,2,3,-38,-19,-2
1522653666274774,-18,0,-3,-3,-7,54,-1,-1
1522653666274774,-1,-12,-9,-8,-14,-59,1,6
1522653666295829,25,1,6,9,2,-47,-7,8
1522653666295829,-53,-4,-1,5,3,57,7,-11
1522653666297835,15,-7,-4,-3,-5,-51,-8,-1
1522653666297835,-12,4,4,4,19,45,5,-8
1522653666309867,-22,-2,-2,-3,0,-4,-1,9
1522653666309867,0,-10,-15,-12,-5,23,-14,-2
1522653666318891,-14,5,5,3,13,-35,8,-4
1522653666318891,-6,2,2,-3,-21,-58,-9,0
1522653666333931,25,-4,-4,-1,6,-15,-7,0
1522653666333931,8,2,3,5,10,74,19,3
1522653666334934,5,1,3,0,-5,-5,-6,-2
1522653666334934,-11,-3,-7,-4,6,5,0,-4
1522653666355990,4,-5,-1,-4,-6,-63,4,-4
1522653666355990,8,-2,1,3,-3,2,7,3
1522653666357995,15,1,-6,-7,-7,-62,-17,7
1522653666357995,-17,3,0,1,3,60,15,-5
1522653666370027,-9,2,-1,0,10,127,12,-6
1522653666370027,49,5,1,0,2,-56,5,22
1522653666379051,-37,-5,-1,3,-12,11,-11,-26
1522653666379051,-12,-6,-2,1,0,-37,1,-1
1522653666393088,7,-2,-5,-2,9,42,-1,1
1522653666393088,-10,-3,0,1,1,-6,8,-6
1522653666395094,-1,1,-1,-2,-4,-7,3,1
1522653666395094,46,4,5,2,9,11,11,15
1522653666416150,-40,1,1,0,-3,-22,-8,-9
1522653666416150,-16,-3,0,-3,-2,30,5,-5
1522653666418155,13,1,-2,-6,-4,-55,-15,3
1522653666418155,1,2,-1,-1,1,11,4,6
1522653666430187,12,7,-4,-10,-3,-46,-14,-5
1522653666430187,-5,5,0,4,-13,72,5,-6
1522653666439211,0,0,-5,-4,12,33,3,2
1522653666439211,5,-3,-3,-1,8,-9,0,1
1522653666453248,0,-6,0,-2,-7,-47,-7,0
1522653666453248,-1,-9,-1,-4,-5,19,-1,-2
1522653666455254,-5,-3,2,0,3,9,-4,0
1522653666455254,10,-1,-3,-3,-6,-33,1,2
1522653666476310,-12,-1,-2,3,-6,15,-5,9
1522653666476310,-17,-7,-4,-2,4,-15,-5,-3
1522653666477313,4,0,-6,-6,12,50,11,11
1522653666477313,17,-2,-1,3,-29,-35,-11,0
1522653666489344,-12,-3,-4,-1,15,55,3,-3
1522653666489344,9,8,-1,0,11,86,8,-2
1522653666498368,-11,-4,-6,-4,-8,-50,-7,-7
1522653666498368,-27,10,5,-2,13,-1,-7,-17
1522653666513408,14,5,2,-2,-8,-2,9,5
1522653666513408,15,-4,-5,-2,-4,-30,-1,-6
1522653666515414,4,0,0,0,10,53,9,-8
1522653666515414,-7,-5,-4,-2,3,-27,-11,3
1522653666536469,2,-6,-4,-1,-20,-18,6,-6
1522653666536469,-2,1,-2,-2,8,-87,4,7
1522653666537472,-10,4,5,0,6,36,4,-9
1522653666537472,25,-10,-14,-5,-8,-72,-12,9
1522653666549504,-3,6,8,-3,20,66,13,-5
1522653666549504,2,-1,-2,14,2,4,-8,-7
1522653666558528,-10,-2,0,-3,-6,3,1,-10
1522653666558528,-5,-6,0,2,11,17,-1,0
1522653666573568,12,-8,-3,-8,5,27,12,-1
1522653666573568,-29,-11,-4,-10,-4,-39,-6,-14
1522653666575574,-24,-5,3,3,-3,-15,-4,3
1522653666575574,14,3,1,-4,-2,43,8,10
1522653666595627,13,-8,-19,-9,-19,-30,-10,4
1522653666595627,-12,4,9,9,5,23,0,-10
1522653666597633,12,6,2,10,4,16,1,1
1522653666597633,11,0,-5,-7,-3,9,0,6
1522653666609664,-5,-1,-8,1,-8,21,-1,10
1522653666609664,7,10,5,4,-6,-28,-7,1
1522653666618688,5,0,1,1,9,-4,-5,-6
1522653666618688,-34,1,1,1,-7,-16,2,-12
1522653666633728,21,1,-5,-1,-3,-48,0,9
1522653666633728,4,3,2,-3,-4,16,-10,7
1522653666634731,7,-3,-5,-1,1,-61,-14,-12
1522653666634731,-3,2,-1,-2,-8,98,21,2
1522653666655787,4,3,10,8,10,-33,2,-3
1522653666655787,-19,-6,-2,-4,-18,2,4,-6
1522653666657793,9,-6,-5,-4,-4,33,0,-1
1522653666657793,-7,0,0,0,8,2,4,12
1522653666669824,2,2,5,3,-1,-21,-14,-9
1522653666669824,21,3,9,5,3,17,-8,8
1522653666678848,-10,0,4,4,-4,7,-6,-3
1522653666678848,-24,-5,0,4,2,11,-1,-8
1522653666700907,17,-9,-1,1,-12,-15,2,7
1522653666700907,-30,2,2,3,9,16,13,-2
1522653666702912,26,1,2,-2,-6,11,8,12
1522653666702912,-8,-5,-3,-5,0,-9,-8,-10
1522653666715947,-13,-2,-1,-4,3,-8,-2,-8
1522653666715947,17,-3,1,1,1,-12,4,0
1522653666717952,8,-2,0,-1,0,-2,4,5
1522653666717952,-28,-3,-1,-3,-2,-12,0,-2
1522653666729984,-14,-4,-5,-7,-1,21,-7,-13
1522653666729984,-4,-1,-5,-1,5,-14,-5,-10
1522653666739008,1,4,0,2,0,18,10,2
1522653666739008,20,0,1,4,0,-52,-13,8
1522653666754049,-18,3,0,3,5,56,14,-8
1522653666754049,9,-3,-3,-8,-9,-4,-4,-1
1522653666755051,3,-4,-4,-4,-2,30,1,4
1522653666755051,-11,1,-3,-2,1,-13,3,-1
1522653666776107,12,4,1,1,-3,-12,-7,9
1522653666776107,11,1,2,-3,-1,-1,1,3
1522653666778113,-18,-3,1,1,0,-24,-8,-14
1522653666778113,5,2,2,-3,1,34,2,-3
1522653666790144,-2,3,5,4,2,-4,0,-2
1522653666790144,-8,4,3,-3,0,-4,-9,-7
1522653666799168,0,0,0,-4,-5,1,0,8
1522653666799168,0,-2,-3,-4,-2,9,2,6
1522653666813206,-1,0,2,0,-3,-12,-3,-3
1522653666813206,2,4,3,-1,-1,-11,-1,-3
1522653666815211,-13,-10,-9,-9,-1,29,-10,-6
1522653666815211,10,2,4,1,-14,-24,6,8
1522653666836267,-1,-1,3,2,-6,-21,6,2
1522653666836267,-4,-2,2,2,9,34,5,2
1522653666837270,-11,4,4,-1,6,23,2,-5
1522653666837270,12,8,2,-1,-7,-73,-26,0
1522653666849301,-4,-1,-4,0,6,60,4,-5
1522653666849301,3,1,-4,-1,-10,-18,0,8
1522653666858325,-8,2,0,1,5,-11,-3,-1
1522653666858325,17,-3,-4,-3,10,19,7,6
1522653666873365,-9,0,0,-1,1,-16,-1,-2
1522653666873365,5,-3,-4,-2,-1,-12,-7,-1
1522653666879381,3,0,4,-7,-4,-7,3,-3
1522653666879381,4,-2,1,-1,3,30,2,1
1522653666896427,-14,-4,0,1,-10,-83,-20,-6
1522653666896427,10,0,-9,-5,-4,47,-1,5
1522653666897430,-11,1,16,31,1,-15,-13,-4
1522653666897430,6,-4,-2,5,18,0,19,0
1522653666909461,21,4,2,5,0,-18,-6,5
1522653666909461,-18,-8,-4,-6,-3,-14,-6,2
1522653666918485,-21,0,-5,-14,-15,-79,-11,-18
1522653666918485,10,-4,-4,-3,4,-14,-8,6
1522653666932523,-9,-3,-2,5,4,81,9,-9
1522653666932523,1,-2,-1,3,7,-42,-6,-3
1522653666939541,9,-2,-6,-7,-8,-15,-1,9
1522653666939541,-8,-10,-7,-7,7,48,-6,-9
1522653666955584,-5,-9,-5,-5,-6,-17,0,4
1522653666955584,14,5,2,3,5,31,6,3
1522653666957590,-15,-1,-4,2,3,2,4,2
1522653666957590,-1,7,7,5,-6,84,0,-5
1522653666978645,-15,-6,-15,-15,8,-74,-22,-8
1522653666978645,24,-5,0,3,-26,-2,13,-1
1522653666980651,10,-6,-5,2,5,-7,2,0
1522653666980651,-12,-3,-5,-5,-11,44,-1,-12
1522653666992683,-16,5,10,5,11,49,8,-7
1522653666992683,22,1,1,-1,14,-8,6,4
1522653666999701,0,-8,-11,-7,-4,43,-2,16
1522653666999701,-14,-1,-5,1,-2,-61,-1,10
1522653667015744,9,-4,-3,-10,-13,97,21,-8
1522653667015744,-17,-3,5,7,7,-109,-47,-14
1522653667017750,2,1,0,-2,0,-15,26,-8
1522653667017750,28,4,1,0,5,6,4,11
1522653667038805,-30,-8,-8,-1,-9,-3,-14,-17
1522653667038805,6,-2,-7,-4,-13,-39,-1,12
1522653667039808,19,2,0,-5,-4,0,-1,2
1522653667039808,-58,-1,-3,-6,-5,-41,2,-6
1522653667052843,54,-9,-7,-4,2,0,11,4
1522653667052843,-2,6,2,-2,-4,1,4,-5
1522653667059861,-7,-3,-3,0,10,32,-5,-2
1522653667059861,-6,2,1,-6,-9,-50,1,-6
1522653667075904,17,-5,-5,-2,0,34,-15,8
1522653667075904,-45,-4,-1,-4,6,44,8,1
1522653667077910,38,1,-3,-5,-10,-16,0,9
1522653667077910,-12,-1,-3,0,3,75,2,-4
1522653667098965,-14,2,0,2,-8,-28,4,-5
1522653667098965,-13,-3,-1,-4,-5,-26,-7,-17
1522653667099968,3,0,2,0,3,5,10,6
1522653667099968,5,-6,-3,-3,-4,-1,-4,10
1522653667113003,50,-2,3,3,11,18,3,7
1522653667113003,-54,-8,0,1,5,-31,1,-14
1522653667120021,-6,2,3,-2,-9,0,8,1
1522653667120021,22,5,4,0,3,-6,7,14
1522653667136064,-3,1,-5,-1,0,10,-5,-3
1522653667136064,1,4,1,1,-4,19,-7,-21
1522653667138070,1,-2,-2,3,9,-6,-9,-3
1522653667138070,-1,0,1,2,1,4,-5,-11
1522653667158123,-33,6,7,4,-6,-46,6,6
1522653667158123,27,3,4,6,4,65,3,7
1522653667160128,-21,0,-2,-3,-8,9,9,3
1522653667160128,7,1,-2,3,5,17,11,9
1522653667173163,17,3,-3,-5,-3,-35,0,15
1522653667173163,-20,-3,-5,-5,-9,5,-8,-20
1522653667180181,25,3,1,4,-3,-6,-12,7
1522653667180181,-20,0,-4,-3,4,-25,-25,-12
1522653667196224,-36,2,7,6,-7,-73,-10,-5
1522653667196224,50,-4,-7,-6,-9,-20,0,21
1522653667197227,-11,4,0,2,-3,12,-5,-3
1522653667197227,2,1,-4,-4,-11,-5,-8,3
1522653667218283,-9,4,-1,2,2,8,-10,-1
1522653667218283,9,4,-1,3,-7,-1,5,0
1522653667220288,-6,1,7,5,11,-15,-2,-6
1522653667220288,-5,-1,1,-2,4,10,14,-9
1522653667232320,-8,-3,5,3,0,8,4,-3
1522653667232320,3,-2,-1,-4,-9,11,7,5
1522653667241344,1,-1,0,0,7,-1,-1,-1
1522653667241344,5,-6,-5,-3,5,31,3,0
1522653667256384,-15,-5,-1,-1,6,15,1,-1
1522653667256384,4,-6,-9,-5,-7,11,7,-1
1522653667257387,7,-5,-5,-2,0,-58,0,1
1522653667257387,2,4,8,5,2,-7,1,-10
1522653667278443,-5,-5,-8,-1,-4,-8,-1,-8
1522653667278443,0,3,3,-3,0,-43,-5,2
1522653667280448,-1,-1,-1,-5,12,65,2,-9
1522653667280448,-5,0,-3,1,0,-11,0,5
1522653667292480,23,4,1,0,-2,10,7,11
1522653667292480,12,7,2,-2,1,-22,-5,11
1522653667301504,-10,0,1,-1,-14,9,-12,-12
1522653667301504,1,-2,-3,-1,0,-45,2,-2
1522653667316544,16,1,0,6,18,70,4,-2
1522653667316544,-24,-3,0,1,12,77,15,11
1522653667317547,-2,0,2,0,-3,-67,-9,10
1522653667317547,14,0,0,-4,-3,-18,3,-1
1522653667338603,-24,2,4,0,-4,-13,-10,-12
1522653667338603,-7,0,0,0,3,11,3,-1
1522653667340608,-5,2,-2,-4,0,40,-2,9
1522653667340608,15,-1,-6,-1,9,2,4,1
1522653667352640,7,-2,-2,-1,-3,-5,4,1
1522653667352640,3,-5,-3,-1,-2,-30,-7,-10
1522653667361664,-6,0,0,-2,8,68,17,7
1522653667361664,13,1,-1,-2,-4,-60,-3,5
1522653667375701,-4,0,2,-6,-8,27,-3,-5
1522653667375701,13,2,5,2,2,10,-6,-2
1522653667377707,-26,-5,-7,-1,-4,-11,-13,-8
1522653667377707,-3,-4,-8,1,-2,-5,-10,-4
1522653667398763,5,4,2,1,-2,-20,-2,-9
1522653667398763,-19,-2,1,3,-7,-14,-1,1
1522653667399765,17,0,-3,-1,-6,-27,-1,1
1522653667399765,-9,-2,-3,-4,-4,23,5,11
1522653667411797,-8,-5,-6,2,0,-11,2,-3
1522653667411797,10,-6,-4,-2,3,12,-6,-6
1522653667420821,-6,-3,-3,-4,0,-20,1,1
1522653667420821,-26,-3,-4,-7,-3,66,-19,-13
1522653667435861,18,3,4,6,5,-15,-5,-3
1522653667435861,34,-3,-1,0,1,-17,-1,12
1522653667437867,-23,-2,1,2,-12,-26,4,-11
1522653667437867,5,1,3,1,5,9,6,6
1522653667458923,-13,-3,3,0,-15,-24,-2,-6
1522653667458923,8,1,5,4,8,18,7,4
1522653667459925,24,-10,-10,-8,-8,-22,-1,14
1522653667459925,-2,-1,2,-3,4,-35,-3,-10
1522653667471957,-14,-3,0,4,-20,-80,-19,-4
1522653667471957,-8,-1,-3,-3,-3,79,12,-7
1522653667480982,6,-2,1,2,3,21,3,-5
1522653667480982,-6,1,-1,1,-9,18,2,-3
1522653667496021,3,-1,-2,0,2,70,8,5
1522653667496021,-10,-3,-5,-5,-9,-97,-17,-3
1522653667498027,19,1,-8,-5,-2,8,4,7
1522653667498027,-11,3,-2,0,-8,-67,-14,-5
1522653667519083,7,6,-3,-1,-1,11,9,6
1522653667519083,-22,-1,-2,4,10,3,8,-8
1522653667520085,-32,-1,2,3,-8,23,7,-14
1522653667520085,34,0,0,-3,-24,-102,-22,5
1522653667532118,3,-2,0,3,29,81,38,2
1522653667532118,-12,-1,-2,-1,-6,10,-5,0
1522653667541142,7,-1,-2,-3,0,-8,-3,8
1522653667541142,4,-3,-1,-3,-5,18,13,1
1522653667556181,-17,-3,0,-7,-7,-34,-15,-4
1522653667556181,-3,-1,2,-9,-14,19,-5,1
1522653667558187,1,4,3,6,19,-77,-1,2
1522653667558187,-42,-1,-6,2,6,88,17,-11
1522653667578240,39,-2,-6,-5,5,-9,3,7
1522653667578240,5,-3,1,-3,-6,-98,-10,-11
1522653667580246,15,0,-3,-4,6,88,-7,4
1522653667580246,-17,-4,2,5,-6,-84,-6,-6
1522653667592277,-3,-4,-1,1,9,-17,1,2
1522653667592277,22,0,-5,-5,-1,31,0,8
1522653667601302,-25,-10,-3,-8,-18,-39,-6,-26
1522653667601302,-1,3,3,-4,6,50,12,1
1522653667616342,-14,0,1,2,-3,-11,-7,-7
1522653667616342,37,0,-8,1,1,26,-4,6
1522653667617344,-3,1,-3,-2,-10,-34,-6,10
1522653667617344,-17,-1,0,2,5,5,-10,-6
1522653667638400,19,-4,2,0,-10,-11,6,11
1522653667638400,-24,-7,3,6,7,23,10,0
1522653667640405,1,-1,-3,1,-1,29,2,-3
1522653667640405,-14,-7,-13,-2,8,-7,-6,-3
1522653667652437,-4,-7,-12,-13,-14,40,-14,-10
1522653667652437,3,7,14,9,8,18,16,1
1522653667661462,-13,2,5,1,6,-3,5,-4
1522653667661462,90,4,4,3,5,2,2,31
1522653667676501,-54,-2,3,5,-7,-8,-6,-20
1522653667676501,-11,2,-2,4,-4,-9,-4,-11
1522653667677504,-21,-2,-4,-3,-3,-22,-16,-17
1522653667677504,14,-1,-5,-3,-6,64,18,-2
1522653667698560,-4,1,2,2,0,13,1,-3
1522653667698560,22,-3,1,-3,-10,-25,4,23
1522653667700565,-4,-8,2,-1,-2,-17,-8,-8
1522653667700565,-3,2,11,3,1,18,-2,5
1522653667712597,-69,-4,2,1,15,-23,-28,-18
1522653667712597,14,7,3,2,-3,9,7,4
1522653667721622,43,4,-12,-8,-3,1,12,31
1522653667721622,3,2,-4,-3,4,5,-8,0
1522653667735658,8,5,0,1,-5,-38,-12,3
1522653667735658,1,8,1,5,9,61,1,1
1522653667737664,25,6,-3,2,2,-47,-6,3
1522653667737664,-49,1,-1,-3,-12,-31,-6,-10
1522653667758720,57,6,3,-1,-4,-38,3,4
1522653667758720,-49,-5,7,-1,-9,-5,12,-8
1522653667759723,-13,-2,2,5,16,101,-8,-13
1522653667759723,22,3,2,-4,-11,-52,9,2
1522653667771754,18,-1,-3,0,7,60,-3,10
1522653667771754,14,-8,-8,-8,-10,-46,-18,1
1522653667780779,-16,6,5,-1,-9,9,1,3
1522653667780779,-12,-4,1,-1,0,23,4,-2
1522653667795819,-21,1,1,3,2,-33,7,-7
1522653667795819,-13,-5,-9,-5,7,20,-12,-4
1522653667801834,16,0,-3,-2,-2,-19,12,1
1522653667801834,-49,-5,-1,3,3,18,1,-3
1522653667818880,-6,-5,1,2,7,55,-2,3
1522653667818880,21,4,8,6,20,63,10,24
1522653667819883,-12,-4,2,3,-1,-16,-7,-14
1522653667819883,14,7,3,2,11,78,18,15
1522653667831914,20,-5,-5,-6,-6,-76,4,-4
1522653667831914,-16,3,0,-3,-7,-35,-6,-13
1522653667840939,-34,6,0,-5,1,-2,9,-1
1522653667840939,9,3,1,1,5,36,16,15
1522653667854976,-5,0,-3,-6,-5,17,15,4
1522653667854976,20,2,-3,-3,-2,17,4,-10
1522653667861994,-10,-3,1,1,-8,-95,0,-5
1522653667861994,-7,-4,-4,-2,-4,-19,-19,-14
1522653667879040,-12,1,1,-1,-2,4,-8,4
1522653667879040,31,-1,-4,-2,-3,-27,-10,8
1522653667880043,12,-1,4,6,13,20,-20,-7
1522653667880043,-17,-2,2,1,-7,42,4,-5
1522653667901099,30,1,0,0,-7,-92,-17,17
1522653667901099,-17,1,3,0,1,8,-4,-21
1522653667903104,-13,-5,-4,-2,-7,-62,-20,1
1522653667903104,7,-3,-5,-6,1,35,-4,-6
1522653667915136,1,0,0,-2,-4,10,-7,-2
1522653667915136,-8,-4,-6,-5,-3,-15,7,1
1522653667922154,25,8,8,-1,0,-13,11,23
1522653667922154,23,-6,-1,-2,5,9,-17,-8
1522653667938197,-40,-7,-7,1,5,-5,3,-10
1522653667938197,-10,-8,-8,0,6,20,-1,1
1522653667940203,9,3,3,-1,-4,3,3,9
1522653667940203,13,2,3,-2,-9,-6,9,16
1522653667961259,9,0,3,-4,10,40,-9,-17
1522653667961259,-14,3,0,-1,-15,-25,25,-3
1522653667962261,8,-6,-9,-2,-15,13,9,9
1522653667962261,15,6,-3,1,6,-58,2,4
1522653667975296,11,6,1,2,-11,85,-2,-6
1522653667975296,-51,3,0,-1,3,-52,-23,-10
1522653667982314,15,2,-1,-1,15,43,3,7
1522653667982314,-30,-2,-4,4,1,-10,4,-1
1522653667998357,31,-3,-3,-5,-6,43,9,-4
1522653667998357,-28,-12,-11,-13,-1,-33,-10,-11
1522653668000363,37,0,2,-3,-5,-36,1,6
1522653668000363,-11,-7,-1,-6,17,-82,-18,-7
1522653668021419,-8,5,6,4,-3,50,18,0
1522653668021419,14,5,4,0,-1,4,-12,-4
1522653668022421,-16,-3,-3,-5,-10,25,-9,-4
1522653668022421,-22,-1,-2,7,8,97,8,-2
1522653668035456,40,-7,-1,2,-7,-1,1,8
1522653668035456,-6,-12,-6,3,13,29,-6,-5
1522653668042474,-30,-9,-1,0,-1,-44,6,-6
1522653668042474,16,4,8,6,0,60,10,-7
1522653668058517,-40,1,3,1,-6,-72,-14,-9
1522653668058517,14,-2,-3,-1,2,48,-4,9
1522653668060523,18,1,-7,-7,-5,-8,-15,-6
1522653668060523,14,0,-2,0,-16,-28,15,5
1522653668081579,-11,6,1,3,3,15,0,8
1522653668081579,24,5,-1,3,0,11,3,3
1522653668082581,-10,0,-4,3,6,-22,-3,-4
1522653668082581,-29,-5,-9,-6,1,-21,-21,-5
1522653668095616,12,0,4,1,-2,43,11,7
1522653668095616,9,-4,0,-3,5,-35,-7,2
1522653668102634,2,7,6,6,-10,2,11,8
1522653668102634,1,-4,-7,-2,-9,-15,-3,-6
1522653668118677,17,1,-1,-1,-4,-29,0,0
1522653668118677,-30,-1,3,-6,-8,-33,-5,-12
1522653668120683,-8,1,3,-2,12,114,-3,-8
1522653668120683,30,-8,-6,-4,4,-25,-20,-5
1522653668140736,-24,0,0,3,-5,-77,7,-8
1522653668140736,31,4,1,0,-6,41,10,3
1522653668142741,-22,-7,-2,-1,5,-19,11,-5
1522653668142741,-19,-4,0,-3,-7,-12,-4,0
1522653668154774,20,-2,-8,-7,-4,-7,-12,-10
1522653668154774,13,5,2,0,-2,80,7,2
1522653668163798,-37,-5,-5,-3,2,-55,-6,3
1522653668163798,-1,-1,-2,0,-1,-34,-1,-1
1522653668178837,-3,-4,-3,-1,1,-4,1,1
1522653668178837,5,1,-1,-3,-11,-2,3,0
1522653668179840,-23,-4,-1,-5,-7,-6,-14,-9
1522653668179840,42,-2,3,-4,4,25,11,21
1522653668200896,5,1,6,-2,-3,-66,-25,-2
1522653668200896,-30,-3,-1,1,-7,-22,9,-12
1522653668202901,32,6,-1,-1,10,38,13,9
1522653668202901,-38,-12,-12,-8,-8,-2,5,-15
1522653668214933,29,-8,-9,-3,5,-7,-5,1
1522653668214933,12,-6,-8,0,1,-38,-11,14
1522653668223957,-21,0,-8,-6,-13,20,-12,-16
1522653668223957,15,7,10,9,19,-5,1,2
1522653668238997,16,-1,0,-3,-2,16,-2,-12
1522653668238997,-40,-2,5,0,0,-16,-6,-2
1522653668240000,44,0,0,-1,2,21,14,13
1522653668240000,-20,2,-6,-6,-12,2,-5,0
1522653668261056,19,0,6,6,3,2,7,-2
1522653668261056,-18,-7,-4,-1,-6,-51,8,-11
1522653668263061,6,0,4,3,8,36,-4,1
1522653668263061,-21,-2,3,4,-6,-19,0,-1
1522653668275093,-5,-3,-1,-1,-8,5,-6,-1
1522653668275093,23,1,2,3,2,3,-7,8
1522653668284118,-23,1,1,2,5,-1,8,-3
1522653668284118,24,5,2,4,-4,-29,-2,-2
1522653668298155,-33,-6,-6,-1,9,91,2,2
1522653668298155,22,3,0,1,-3,-35,-11,6
1522653668300160,9,-2,-2,-2,-2,15,-3,-4
1522653668300160,13,7,9,7,0,3,1,3
1522653668321216,-48,-4,-3,-4,-5,-33,1,-11
1522653668321216,12,1,2,-4,-4,7,-4,2
1522653668323221,3,-7,-2,-3,-3,29,7,5
1522653668323221,13,4,3,0,-2,-47,-8,-5
1522653668334251,-47,4,2,5,5,-22,-1,3
1522653668334251,2,5,-5,-3,8,-18,-14,-16
1522653668343275,43,-1,-3,-2,-3,-29,2,7
1522653668343275,-10,-4,-3,0,-11,-9,-2,-1
1522653668358315,-7,3,5,0,2,11,1,-13
1522653668358315,21,-7,-5,-5,1,13,1,9
1522653668360320,-12,4,2,-2,0,15,-7,1
1522653668360320,-9,-9,-11,-9,-2,-17,-5,-5
1522653668381376,5,-10,-9,-10,-10,-30,-4,2
1522653668381376,-14,3,4,2,8,61,17,-5
1522653668382379,-20,-13,-6,0,-7,-51,-5,-15
1522653668382379,28,-7,-6,-2,-2,7,-10,2
1522653668394411,28,8,7,5,1,-3,13,20
1522653668394411,-16,-2,-1,-4,-7,20,7,8
1522653668403434,27,0,-6,-3,5,16,-5,-1
1522653668403434,-59,-4,0,3,-4,16,-9,-24
1522653668418475,5,-1,0,2,-1,-5,-10,-2
1522653668418475,8,1,3,0,-1,-23,-1,6
1522653668420480,-1,6,1,-1,8,10,3,1
1522653668420480,5,3,0,0,-6,8,9,6
1522653668441536,-2,0,1,-2,-7,-12,-5,-7
1522653668441536,42,0,0,0,5,4,-3,-11
1522653668442539,-43,-9,-5,-2,4,-16,-2,19
1522653668442539,-16,-6,-9,-4,6,-11,-26,-15
1522653668454571,8,1,-6,-7,-2,90,59,19
1522653668454571,-32,3,3,4,5,-17,-1,-14
1522653668463595,38,10,7,2,-8,9,9,21
1522653668463595,9,0,3,-4,15,63,-5,2
1522653668478635,-7,-8,-5,2,1,-69,-21,-10
1522653668478635,-35,-2,2,3,-6,13,-1,-8
1522653668480640,-12,10,2,4,0,-25,7,3
1522653668480640,-12,1,-3,-3,0,-45,4,6
1522653668500693,14,5,2,-5,4,54,2,4
1522653668500693,-6,-5,-7,-6,-4,35,12,-5
1522653668502699,-13,-6,-1,0,-5,-11,-12,2
1522653668502699,8,-2,1,0,-9,44,26,-6
1522653668514731,31,-9,-8,-1,11,30,-14,-1
1522653668514731,-26,0,3,2,-4,-53,-12,2
1522653668523755,-28,-5,-10,-8,-12,-6,-1,-18
1522653668523755,20,4,2,4,-1,-21,-1,0
1522653668538795,-33,2,-1,2,-19,-127,-17,-4
1522653668538795,33,3,-3,1,11,74,19,15
1522653668539797,2,-3,3,-1,-8,5,-4,-15
1522653668539797,19,-1,6,5,1,-10,0,6
1522653668560853,-3,-1,-4,-3,-4,13,2,1
1522653668560853,-13,1,-4,-3,0,-11,-9,-1
1522653668562859,1,6,2,2,12,3,4,0
1522653668562859,36,0,-3,1,-7,-14,12,7
1522653668574891,1,-3,2,0,-6,18,-11,-18
1522653668574891,-71,-2,-4,-1,-8,-78,-13,-10
1522653668583914,61,-4,-6,-3,15,84,-15,9
1522653668583914,-12,4,2,-1,-37,6,-1,-1
1522653668598955,15,5,3,4,11,13,-1,4
1522653668598955,-15,1,2,-4,-6,5,-7,-7
1522653668599957,3,1,-3,-4,-2,-30,-12,-1
1522653668599957,4,0,-2,-3,6,5,-6,-11
1522653668621013,-55,-10,-5,-3,0,-5,0,-6
1522653668621013,55,-3,-7,-5,-8,2,15,10
1522653668623019,-40,-6,-1,-6,-25,-112,-17,-10
1522653668623019,8,-2,2,2,1,76,-1,0
1522653668635051,-24,-9,6,1,1,-11,17,-5
1522653668635051,67,-5,-3,-2,6,39,-21,2
1522653668644075,-28,-5,-3,3,19,80,21,7
1522653668644075,-38,-5,-5,-1,-4,-28,1,-11
1522653668658112,31,7,-1,-4,-14,6,-14,1
1522653668658112,-23,-6,-3,1,6,-30,-1,0
1522653668660117,51,0,-4,-3,5,0,6,16
1522653668660117,-19,6,9,4,-2,-2,-13,-12
1522653668681173,4,-3,3,5,14,2,-10,4
1522653668681173,-11,-11,-6,-7,-12,-40,-4,-19
1522653668683179,-15,5,1,-1,-5,3,4,-8
1522653668683179,-10,0,1,0,4,54,11,13
1522653668695210,25,4,0,-4,-2,-13,-6,0
1522653668695210,58,8,6,3,-2,8,19,21
1522653668704235,-48,-9,-2,1,4,-13,4,-14
1522653668704235,-10,0,-6,-3,6,60,11,1
1522653668718272,-3,-2,-8,-3,-10,-6,12,2
1522653668718272,-10,4,1,0,0,13,-9,3
1522653668720277,1,3,1,1,4,26,21,-2
1522653668720277,11,-2,-2,-4,-7,-38,-20,-12
1522653668741334,-44,-1,-2,-3,-2,13,-7,-4
1522653668741334,52,-4,-7,-2,9,2,5,17
1522653668742336,7,4,0,2,-7,-7,-13,-3
1522653668742336,-19,-6,-4,-1,4,4,13,0
1522653668754368,34,0,1,-3,-2,-4,-6,-6
1522653668754368,-8,5,5,3,-5,-4,-1,-15
1522653668763392,-16,-6,0,-4,16,96,-3,-4
1522653668763392,48,-5,-4,-1,-2,-61,-8,14
1522653668778432,-13,-3,-4,-6,-13,-41,-5,8
1522653668778432,-23,3,-1,-2,-13,22,13,7
1522653668784448,-1,6,-2,1,16,9,12,11
1522653668784448,2,1,-1,-4,2,-25,-12,-28
1522653668801493,22,6,1,-1,4,-9,0,4
1522653668801493,-58,-2,0,1,5,-6,-11,-15
1522653668802496,12,-3,-7,-5,-8,20,-5,0
1522653668802496,11,-7,-3,5,6,-7,5,12
1522653668814528,-45,1,3,4,-1,6,1,-7
1522653668814528,1,-7,-1,1,1,14,-8,-10
1522653668823552,-9,5,5,0,-11,-57,0,12
1522653668823552,-1,-1,9,9,5,-5,8,-12
1522653668837589,32,3,1,5,3,29,9,9
1522653668837589,-61,-1,1,2,1,-7,-10,-15
1522653668844608,16,-3,-1,-2,-12,-3,5,-5
1522653668844608,18,4,2,3,16,69,1,13
1522653668860651,26,3,5,9,2,-30,-7,-3
1522653668860651,-30,5,5,3,-5,-2,1,5
1522653668862656,-4,-5,-1,1,-8,-61,-6,0
1522653668862656,-32,2,6,5,14,103,-4,-11
1522653668883712,25,-2,0,-5,-4,-5,11,3
1522653668883712,11,-2,-1,-3,5,15,-1,6
1522653668885717,-5,1,0,-1,-12,-23,3,4
1522653668885717,13,-1,-3,-4,-7,-39,1,2
1522653668897749,-34,1,1,0,-1,-9,-3,-4
1522653668897749,33,-5,-6,-7,-4,-17,2,10
1522653668904768,8,-2,-5,-5,5,46,1,-4
1522653668904768,-31,5,0,-3,-2,-22,-10,-10
1522653668920810,40,-9,-11,-9,-11,-78,-15,5
1522653668920810,35,11,3,2,2,61,20,0
1522653668922816,-60,4,10,8,-3,-24,-4,-17
1522653668922816,71,-11,-13,-14,-9,-26,-15,11
1522653668943872,-56,0,4,-3,-3,-44,-5,-7
1522653668943872,24,-8,-5,-4,5,5,-12,-15
1522653668944875,12,-3,-4,-4,-5,-13,6,6
1522653668944875,-22,4,2,2,-2,18,4,-3
1522653668957909,-32,-4,2,0,13,22,4,7
1522653668957909,11,-7,-7,-7,-6,29,-16,-2
1522653668964928,6,1,2,1,-4,-47,-12,-5
1522653668964928,-4,-1,2,1,5,-42,8,4
1522653668980970,13,0,-8,-1,4,61,4,-2
1522653668980970,-21,-1,0,0,-6,32,-4,1
1522653668982976,18,1,-1,-3,5,36,-12,6
1522653668982976,-20,-3,-6,-3,-10,-10,7,5
1522653669004032,-10,-3,-1,-2,0,-23,-15,-21
1522653669004032,-2,-2,-5,-1,9,-5,5,2
1522653669005035,5,-1,-3,-1,8,10,-2,8
1522653669005035,4,3,2,1,-4,3,-4,-1
1522653669018069,-10,-2,-1,0,0,127,29,-5
1522653669018069,12,2,4,0,-3,-99,0,9
1522653669025088,8,-9,-5,-5,-1,4,-2,-6
1522653669025088,-38,5,6,6,-3,-68,0,-8
1522653669041131,45,1,-2,-1,3,41,-4,11
1522653669041131,-53,-3,-1,2,-7,-43,-11,-17
1522653669043136,49,-4,-10,-5,-4,32,7,13
1522653669043136,-17,-2,-5,0,2,41,-3,2
1522653669063189,76,5,-1,0,-11,-35,-9,2
1522653669063189,-72,-2,-6,-5,-2,-15,7,-2
1522653669065195,-18,2,2,3,7,-77,-10,-13
1522653669065195,8,-2,5,1,-12,-37,-12,5
1522653669078229,0,2,4,2,4,-8,-5,-16
1522653669078229,1,2,5,2,1,-39,-6,-1
1522653669084245,13,-4,-1,-2,6,86,17,21
1522653669084245,-2,3,3,4,-7,-33,0,-4
1522653669101291,-4,-6,-8,-3,1,69,-2,7
1522653669101291,19,-2,-2,0,7,43,4,0
1522653669102293,-34,3,3,4,-8,20,22,-10
1522653669102293,89,-3,-3,3,2,5,-6,3
1522653669123349,-81,-5,2,-3,-7,-9,10,-8
1522653669123349,39,3,-1,-4,-9,-74,-6,11
1522653669125355,-40,-7,-7,-9,-22,-64,-37,-25
1522653669125355,27,2,2,2,-2,58,14,4
1522653669137386,-22,-2,2,1,3,4,3,1
1522653669137386,21,-5,-7,-2,1,74,1,3
1522653669146411,9,5,-1,-2,-1,-71,0,6
1522653669146411,-11,-3,-6,-2,-2,-24,-17,-5
1522653669161450,-12,-6,-9,-8,-9,-2,-3,-10
1522653669161450,-16,3,6,2,4,-53,-2,-1
1522653669162453,-4,-2,-4,-4,-6,47,15,13
1522653669162453,24,-2,-3,-7,-20,-34,15,12
1522653669183509,-12,1,3,1,11,40,11,3
1522653669183509,20,3,3,0,4,-12,-9,-8
1522653669185515,-2,2,1,-2,-8,29,-3,2
1522653669185515,3,1,-5,-4,8,-36,0,-7
1522653669197546,-42,3,6,7,0,3,0,-10
1522653669197546,67,-3,-10,-8,1,19,8,35
1522653669206570,-18,1,5,12,-2,30,1,-10
1522653669206570,-21,-2,1,3,2,-42,-12,-5
1522653669220608,12,-4,-7,-6,18,-47,-10,-3
1522653669220608,-5,-9,-7,-5,-2,23,-3,-15
1522653669222613,-5,-1,1,3,16,22,0,4
1522653669222613,15,-2,-3,-2,1,50,1,-1
1522653669243669,-18,6,5,8,-4,-18,-13,-7
1522653669243669,10,-7,-5,-3,-1,-3,-8,6
1522653669245675,44,5,4,3,-13,-20,8,3
1522653669245675,-40,5,5,2,-14,45,3,-3
1522653669257707,36,3,-5,0,7,-37,-11,3
1522653669257707,-30,-3,-3,-3,-3,28,18,0
1522653669266730,-2,-5,0,-1,-3,17,-5,-6
1522653669266730,-30,-9,-7,-12,-2,-11,-14,-12
1522653669280768,24,-2,-5,-4,-9,19,9,1
1522653669280768,0,2,1,3,13,-23,-10,0
1522653669282773,-34,-10,-8,0,11,8,21,-6
1522653669282773,-11,-8,-8,-2,7,21,-2,9
1522653669303829,34,0,1,-2,-7,-71,8,15
1522653669303829,-3,7,5,-2,3,31,12,-2
1522653669304832,-1,7,6,-1,3,-5,-13,-4
1522653669304832,-37,-2,-2,-5,-11,-46,-10,-1
1522653669316864,-10,-10,-6,-3,0,-6,34,11
1522653669316864,3,-4,-9,-4,11,-66,-16,-13
1522653669325888,-1,1,2,4,-10,30,-7,-5
1522653669325888,33,-1,-4,-1,-12,-75,-3,9
1522653669340928,-30,10,1,0,4,37,-6,-16
1522653669340928,27,-2,-1,-3,-8,21,10,11
1522653669342933,-39,-17,-11,-4,13,-6,4,-1
1522653669342933,29,0,0,1,9,9,2,3
1522653669363989,5,-13,-10,-5,-7,3,-13,-1
1522653669363989,6,3,4,6,-6,18,3,-6
1522653669364992,13,1,-5,-2,1,-32,-8,-2
1522653669364992,28,-3,4,4,-4,18,0,-4
1522653669377024,-17,0,8,7,-4,-79,-19,1
1522653669377024,-33,7,8,2,-3,67,12,-2
1522653669386048,11,2,-1,-5,-3,41,-1,6
1522653669386048,-17,4,6,5,23,-62,0,-10
1522653669401088,-22,-6,-2,-4,-16,79,3,11
1522653669401088,13,-7,-4,-2,-7,-92,-18,0
1522653669403093,-9,5,6,3,5,-5,4,-9
1522653669403093,-24,1,4,6,4,82,4,-6
1522653669423146,26,4,6,2,-14,-39,-4,2
1522653669423146,-23,-7,-10,-5,-8,6,-10,-8
1522653669425152,6,0,-8,-2,7,9,-9,10
1522653669425152,-62,1,3,0,-1,-6,2,-10
1522653669437184,11,3,2,2,3,25,-2,2
1522653669437184,14,2,11,6,3,-46,1,1
1522653669446208,21,5,3,-2,1,46,9,-6
1522653669446208,60,0,-2,-6,-1,-19,7,11
1522653669461248,-39,-13,-9,-5,3,-15,0,-11
1522653669461248,5,9,3,4,4,46,7,9
1522653669462251,-22,0,0,-2,-8,-62,-19,-17
1522653669462251,15,1,4,5,9,61,1,2
1522653669483306,21,1,4,-5,-7,-54,-12,10
1522653669483306,-39,-3,5,-3,-3,-17,-5,-9
1522653669485312,26,0,0,1,-7,-29,-3,4
1522653669485312,4,-9,-6,-6,-10,35,0,5
1522653669497344,15,3,-3,-2,-2,-12,-10,-6
1522653669497344,-36,-2,0,0,10,59,13,-9
1522653669506368,-1,1,0,1,3,-7,-3,-12
1522653669506368,25,6,0,-3,-4,-19,-3,-1
1522653669521408,-82,-5,0,-1,1,9,7,8
1522653669521408,17,1,-9,-9,-9,17,-1,6
1522653669522411,7,-5,-2,-2,7,3,-5,-4
1522653669522411,-27,-5,-6,-5,-8,10,6,-12
1522653669543466,44,7,0,-2,4,9,2,-4
1522653669543466,-2,-4,-4,-3,-5,69,15,7
1522653669545472,-8,2,0,1,8,-29,14,-5
1522653669545472,35,-10,-4,-3,-1,-42,-8,12
1522653669557504,-5,8,8,4,1,36,4,-3
1522653669557504,14,-8,-6,-6,4,-32,-5,4
1522653669566528,-12,1,-2,-4,-7,10,-3,10
1522653669566528,-24,-5,-1,4,3,-21,-4,-12
1522653669581568,13,3,1,-2,3,91,-4,-6
1522653669581568,6,-2,-1,0,9,4,-2,-4
1522653669582571,-1,-5,-2,-5,-5,-48,-6,3
1522653669582571,-44,1,3,2,3,67,1,-14
1522653669603627,11,1,0,-6,0,80,21,10
1522653669603627,33,7,2,7,-7,-102,-17,3
1522653669605632,-14,0,-1,-3,9,37,5,-7
1522653669605632,3,-1,-3,1,1,-8,-4,6
1522653669617664,19,-9,-12,-5,-4,-20,-2,4
1522653669617664,-18,4,2,-1,-8,26,1,-11
1522653669626688,-9,-4,-1,-1,-9,-54,-1,3
1522653669626688,-31,6,9,5,7,6,-2,-12
1522653669640725,22,1,-7,-7,-3,-33,-11,-1
1522653669640725,-15,8,3,1,11,51,2,3
1522653669642731,18,-6,-1,5,10,26,-5,1
1522653669642731,-6,-3,-4,-3,1,-15,1,-10
1522653669663786,-20,2,3,4,4,-41,-6,-5
1522653669663786,-5,-8,-7,-7,-13,-83,-9,-5
1522653669664789,50,5,2,2,-5,99,15,8
1522653669664789,-38,-5,0,5,15,-41,-15,-2
1522653669676821,-1,1,3,4,0,-39,-5,-11
1522653669676821,-11,-4,-2,-6,-14,-73,-2,-9
1522653669685845,1,-1,0,-2,3,-36,-2,0
1522653669685845,-15,-2,5,-2,7,103,10,-6
1522653669700885,7,-5,-5,0,1,-14,-7,1
1522653669700885,6,2,1,-2,-4,40,21,17
1522653669706902,28,-7,-4,-2,-8,-52,-6,2
1522653669706902,34,9,4,-1,-20,-28,-7,-9
1522653669723946,-59,-8,-3,-1,8,-22,-8,-7
1522653669723946,32,3,-3,-4,6,32,1,6
1522653669724949,-10,1,2,5,-2,51,4,-5
1522653669724949,1,-1,-5,-1,0,-2,8,0
1522653669736981,50,5,-1,-2,-5,-15,0,15
1522653669736981,-51,-3,-2,-5,-4,35,2,-7
1522653669746006,25,-2,-7,-5,7,-43,-18,-3
1522653669746006,-32,-7,-1,1,-14,-31,8,4
1522653669760043,43,-1,2,0,15,99,24,7
1522653669760043,-43,-4,4,8,-9,-50,-21,1
1522653669767061,-15,-13,-13,-6,4,15,-3,-13
1522653669767061,-3,12,2,-7,10,-26,0,-3
1522653669784106,31,-1,-2,6,-5,9,10,1
1522653669784106,-9,6,-3,0,-3,3,2,2
1522653669785109,-21,1,4,3,1,3,-3,-10
1522653669785109,11,-1,-5,-2,-10,-6,-13,3
1522653669806165,-11,1,3,0,1,21,1,-1
1522653669806165,28,4,3,1,14,-49,-6,0
1522653669808170,-46,-5,-4,-3,3,16,-13,-1
1522653669808170,37,-4,-9,-6,6,100,-2,8
1522653669820202,-35,-3,0,0,-13,-50,-7,-11
1522653669820202,12,-6,-4,-3,-1,-9,-2,-6
1522653669827221,14,3,3,-1,-2,-2,-3,11
1522653669827221,-14,1,1,0,4,-12,-6,-4
1522653669843264,-14,1,3,-4,7,46,2,-6
1522653669843264,52,1,-6,-10,-11,-11,-4,18
1522653669845269,-38,-3,0,6,-2,37,4,-14
1522653669845269,59,-6,-2,-8,-6,-124,19,19
1522653669866325,0,2,-1,1,4,37,-9,-4
1522653669866325,-29,1,2,1,9,44,21,-5
1522653669867328,-9,1,-3,-6,-12,-14,5,9
1522653669867328,-69,0,4,7,4,-5,-9,-21
1522653669880362,80,-1,-11,-9,-4,-99,-9,14
1522653669880362,-45,-9,-5,-3,-9,36,-1,-9
1522653669887381,42,12,10,6,12,-29,10,13
1522653669887381,-33,1,7,3,-5,44,3,-11
1522653669903423,-15,-6,-1,0,-8,-1,-12,-6
1522653669903423,34,4,5,3,8,-14,2,16
1522653669905429,-44,-8,-2,0,-21,-71,-8,-17
1522653669905429,12,0,-3,-3,-7,-38,-10,2
1522653669926485,-15,-2,-6,-7,-13,-80,-4,-10
1522653669926485,25,5,1,3,12,115,15,1
1522653669927488,-12,-8,-4,-1,-1,-100,-11,7
1522653669927488,27,2,3,3,-5,37,15,17
1522653669940522,-36,-8,5,4,5,-2,0,-9
1522653669940522,0,-11,-6,-3,1,-23,-9,-6
1522653669947541,20,0,-1,-1,3,12,-1,1
1522653669947541,-13,-3,-6,-3,3,38,11,-1
1522653669963584,11,5,-1,-1,-8,-5,1,4
1522653669963584,-17,3,-1,-3,1,-52,-12,-8
1522653669965589,27,3,-1,0,-7,79,16,8
1522653669965589,-28,-9,-6,-3,0,-25,-3,5
1522653669986645,32,17,13,3,9,28,9,16
1522653669986645,-26,0,5,2,-5,4,5,-4
1522653669987648,2,4,3,3,-1,63,-2,-5
1522653669987648,10,-3,-2,3,2,-23,2,-3
1522653670000682,-5,0,-2,1,7,30,0,8
1522653670000682,-7,5,2,1,-2,-12,-6,-9
1522653670007701,1,9,2,0,-4,6,7,-6
1522653670007701,-2,1,-7,-3,-9,-4,-12,-3
1522653670030762,-21,4,0,-2,-1,-5,11,-6
1522653670030762,37,-1,-1,-1,1,-3,-2,1
1522653670032768,-17,-7,-4,-2,-1,-12,-8,6
1522653670032768,6,-5,-6,-4,-8,-17,-13,-10
1522653670045802,-9,-3,0,-1,-4,9,-16,-8
1522653670045802,-8,-6,-2,0,0,24,1,1
1522653670047808,10,-1,-2,1,-3,-29,13,5
1522653670047808,-3,1,1,4,0,0,-4,-11
1522653670060842,2,-2,-1,3,-8,10,-3,9
1522653670060842,9,-2,-2,2,10,-3,2,8
1522653670066858,15,-1,2,0,2,10,-4,-6
1522653670066858,-43,-10,-3,-1,2,3,4,-2
1522653670083903,13,3,-1,-1,2,-11,0,0
1522653670083903,21,-9,-8,-8,-6,-14,-5,15
1522653670084906,2,-1,1,2,-5,-20,-15,-9
1522653670084906,-2,-1,-4,-3,-3,-50,-17,-5
1522653670105962,0,-1,-3,0,-2,-34,-2,-11
1522653670105962,22,0,-5,-3,-9,-37,6,14
1522653670107968,-55,-14,-4,-5,-8,-10,-2,-13
1522653670107968,45,-4,1,-2,2,13,-13,0
1522653670119999,-16,-5,-2,-1,-4,11,1,-1
1522653670119999,16,12,7,1,-2,1,2,-10
1522653670127019,-22,-1,-6,-6,0,-5,-3,-7
1522653670127019,23,8,4,0,-5,0,7,15
1522653670144063,7,-1,-3,-6,-3,29,7,5
1522653670144063,-29,-4,-4,-2,-2,-36,2,-4
1522653670145067,43,5,1,0,0,31,0,9
1522653670145067,-27,-2,-1,-5,-3,44,5,-4
1522653670166122,-13,8,4,1,11,-44,-8,-10
1522653670166122,-17,-15,-8,-7,-7,-61,-21,-6
1522653670168128,-3,-5,-3,-3,8,25,-2,-2
1522653670168128,27,1,1,3,-4,-7,0,9
1522653670180159,11,-2,-6,-3,-1,31,14,1
1522653670180159,-15,3,1,0,8,15,-8,-14
1522653670187178,-10,2,3,4,-15,-27,-13,2
1522653670187178,-17,4,1,-5,-6,6,2,-9
1522653670203221,21,-2,5,2,4,47,3,9
1522653670203221,0,-1,-2,-1,4,-20,-6,-4
1522653670205226,25,-1,-1,1,3,-1,10,3
1522653670205226,7,3,2,3,4,84,2,5
1522653670226282,-63,-5,-2,-1,-12,-72,-28,-25
1522653670226282,18,1,0,2,17,69,5,16
1522653670227285,48,10,10,5,-4,7,28,15
1522653670227285,-41,-8,4,4,12,39,-8,-11
1522653670239317,9,-7,-3,-6,-6,-56,0,11
1522653670239317,0,-7,-7,0,-6,61,1,-5
1522653670248341,-14,-3,-6,1,8,-22,-2,-4
1522653670248341,20,2,-1,-2,-3,-42,1,-8
1522653670263381,-9,1,-1,3,1,15,12,6
1522653670263381,4,5,-2,-3,-2,54,13,6
1522653670265387,-5,8,4,1,0,14,3,-7
1522653670265387,0,7,1,2,-4,13,11,-4
1522653670286442,12,-3,-1,-2,-3,-5,7,10
1522653670286442,-21,0,2,-4,-26,1,1,-1
1522653670287445,-3,-6,-8,-4,2,-51,-22,-7
1522653670287445,30,2,1,-2,-4,34,8,9
1522653670299477,16,-5,-4,0,25,59,20,-5
1522653670299477,-48,-3,4,13,4,-35,0,-5
1522653670308501,1,5,1,3,6,71,10,1
1522653670308501,6,-6,-4,-4,-16,-109,-12,-5
1522653670323541,10,3,-1,-6,-21,-79,-13,9
1522653670323541,-4,-3,-5,-4,9,73,12,-3
1522653670325546,12,1,4,-2,0,-33,-8,4
1522653670325546,-43,-4,4,2,8,37,-13,-20
1522653670345600,18,1,-5,-6,-8,-22,1,12
1522653670345600,6,-2,-2,-2,-7,-63,0,6
1522653670347605,-17,1,3,6,5,89,7,-7
1522653670347605,28,2,-4,-4,3,12,10,20
1522653670359637,-31,-10,-7,-7,10,26,-9,-19
1522653670359637,12,5,3,5,-14,47,5,7
1522653670368661,23,-1,-3,-3,-1,-61,10,1
1522653670368661,-16,3,5,5,-1,-13,13,5
1522653670383701,16,2,0,1,12,66,-7,4
1522653670383701,-5,-6,-6,-8,-1,-15,1,-1
1522653670385707,-6,-2,3,-2,-7,-16,-18,-12
1522653670385707,20,-1,-2,1,-3,-26,-3,6
1522653670405760,-25,1,3,1,-7,-4,0,-2
1522653670405760,0,-3,-3,-1,16,19,2,1
1522653670407765,7,-4,-6,-5,-6,73,5,2
1522653670407765,-11,-4,-3,-3,10,-43,-6,-2
1522653670419797,-14,1,4,3,-3,21,3,-5
1522653670419797,7,7,7,2,-8,-29,-2,-5
1522653670428821,2,-8,-6,-2,-4,-40,-18,-11
1522653670428821,-12,0,-4,-1,4,45,2,-7
1522653670443861,36,-2,-2,0,1,48,7,9
1522653670443861,-18,2,4,3,1,-38,-3,-8
1522653670444864,1,-5,0,3,-3,-5,-5,-7
1522653670444864,8,-3,-2,-3,-6,-30,-2,-3
1522653670465920,-42,4,2,3,1,-39,-6,-6
1522653670465920,34,1,0,-5,-4,-3,-5,8
1522653670467925,27,-10,-4,-6,-2,1,-6,3
1522653670467925,-21,-11,-4,-5,-1,50,-3,-9
1522653670479957,-15,-7,-4,-4,-8,-97,-10,-12
1522653670479957,24,1,-1,0,3,-52,-2,3
1522653670488981,-69,-4,0,0,8,41,-2,-17
1522653670488981,9,2,2,3,-7,52,11,7
1522653670504021,8,3,1,1,8,26,-5,-1
1522653670504021,-14,-10,-9,-7,-9,-63,-14,-17
1522653670505024,-7,4,1,-1,3,-25,6,5
1522653670505024,37,3,0,-2,0,-29,-5,4
1522653670526080,-34,-1,-3,-3,-3,49,6,-6
1522653670526080,6,4,3,1,2,75,0,5
1522653670528085,-9,-7,-5,-3,-7,-40,-11,-9
1522653670528085,-11,5,8,0,-3,-2,9,8
1522653670540117,22,-5,-2,-5,-7,-7,6,9
1522653670540117,-23,1,0,-1,4,26,7,1
1522653670549141,8,4,2,3,-1,2,1,5
1522653670549141,23,-2,-3,1,3,-23,-20,-7
1522653670563178,21,-5,-12,-6,2,-12,0,3
1522653670563178,-2,1,-2,0,4,1,-6,8
1522653670565184,-30,2,4,3,3,12,4,6
1522653670565184,6,1,-2,-2,-12,-70,-25,-5
1522653670586239,-17,4,6,5,4,4,1,-3
1522653670586239,14,-1,0,1,-4,11,-1,-5
1522653670588245,-4,2,2,2,1,-20,-6,1
1522653670588245,-9,-3,-3,-1,5,11,15,8
1522653670599274,15,-1,-2,-4,-3,-17,-16,-5
1522653670599274,2,-3,1,-1,-1,-5,3,-4
1522653670608298,6,-3,1,2,-3,-2,-3,-2
1522653670608298,5,2,2,1,3,-1,4,-5
1522653670622335,-3,-3,3,4,2,10,-2,2
1522653670622335,-20,-3,-3,-3,-4,-13,-7,-6
1522653670631360,34,1,-6,-1,-12,14,2,3
1522653670631360,28,4,3,3,1,-19,-6,-13
1522653670646399,-61,-12,-8,-3,1,1,3,-4
1522653670646399,4,2,0,4,2,10,5,0
1522653670647402,-4,0,-1,0,-1,-13,3,-1
1522653670647402,16,0,-1,-5,-9,-10,2,-1
1522653670659434,17,2,1,1,4,89,10,-1
1522653670659434,-29,-6,0,0,2,-35,-14,-11
1522653670668458,-1,0,-1,-2,-4,1,3,-1
1522653670668458,0,-8,-6,-5,-4,-3,-2,-8
1522653670682495,-8,9,7,1,1,-16,0,-5
1522653670682495,1,-1,-2,1,-3,16,-9,4
1522653670689514,26,5,3,0,-2,1,14,-9
1522653670689514,-65,-1,2,-2,-1,17,1,2
1522653670706559,25,-9,-5,-3,-11,-29,3,1
1522653670706559,3,1,1,-2,2,15,11,10
1522653670707562,8,-3,-1,-4,-1,-64,-24,-5
1522653670707562,-16,-1,0,-4,-1,22,1,2
1522653670719594,-14,1,0,-3,3,-15,-6,-2
1522653670719594,39,3,-1,-2,0,1,10,12
1522653670728618,-15,-6,-5,-4,-1,-11,-5,-4
1522653670728618,1,0,-8,-5,5,-27,15,4
1522653670742656,10,2,-6,-3,-12,13,-3,3
1522653670742656,-12,-7,-6,-6,-5,-37,-1,-10
1522653670749674,29,4,4,-2,5,2,-3,9
1522653670749674,-17,-7,-3,-3,-11,-27,-3,-7
1522653670765717,-8,1,2,-2,3,42,-7,3
1522653670765717,9,-2,-4,-2,2,6,0,-7
1522653670767722,-41,-3,-2,0,-1,24,5,-5
1522653670767722,13,4,1,0,5,36,1,8
1522653670788778,2,2,3,-2,3,-46,-10,-2
1522653670788778,-16,0,1,-1,0,15,-1,3
1522653670789781,-16,3,0,0,6,4,-1,-5
1522653670789781,15,0,2,3,-5,38,1,-9
1522653670802815,8,3,0,1,-1,-38,0,12
1522653670802815,-28,-5,-3,-2,8,45,8,3
1522653670809834,5,-2,-4,1,-3,8,-4,-4
1522653670809834,-2,0,-3,-2,-5,-52,1,3
1522653670825877,0,0,-2,-2,-5,92,5,-1
1522653670825877,-3,2,6,4,-10,-30,-10,-7
1522653670827882,-2,-4,-5,-3,-2,-7,2,4
1522653670827882,6,-2,1,1,1,5,-1,7
1522653670848938,1,1,-3,-1,2,-24,1,-8
1522653670848938,10,-1,-1,2,-2,54,-6,-3
1522653670849941,-31,-3,-3,-1,3,-33,24,3
1522653670849941,7,-2,-2,-5,-7,-70,-19,-13
1522653670862975,0,-2,2,2,2,8,12,8
1522653670862975,-14,0,1,-2,-6,-34,-7,-5
1522653670869994,26,2,5,3,4,39,-10,-2
1522653670869994,-6,5,3,3,4,20,-1,-7
1522653670886037,25,-4,-5,-2,-1,-17,-6,8
1522653670886037,-14,-4,-4,-2,-9,-31,12,-5
1522653670888042,3,1,2,1,0,0,-13,-3
1522653670888042,-14,0,1,0,-2,31,-1,-1
1522653670909098,20,2,3,2,8,-43,-13,-7
1522653670909098,-26,-1,-5,0,3,-7,0,1
1522653670910101,-7,-1,-2,2,-10,-4,-2,-5
1522653670910101,26,2,0,3,8,38,5,18
1522653670923135,-15,-6,-6,-3,-2,-21,3,-1
1522653670923135,23,6,2,0,-16,32,1,-8
1522653670930154,-45,5,2,2,11,-9,-6,-3
1522653670930154,-1,1,-4,-5,-2,-41,-22,-2
1522653670946197,42,0,-4,-1,4,38,28,20
1522653670946197,-42,-7,-1,0,8,36,3,-4
1522653670948202,3,-4,0,-2,-11,-9,-13,-14
1522653670948202,10,-8,-4,-3,-8,18,0,-3
1522653670968255,-19,5,5,-2,-4,-72,11,7
1522653670968255,-15,-3,-3,2,11,-10,-6,-8
1522653670970261,41,4,2,4,7,46,18,15
1522653670970261,2,-5,-7,-6,-14,-82,-10,-8
1522653670983295,-16,0,-3,-2,17,70,-12,-10
1522653670983295,8,1,4,3,-1,-28,9,7
1522653670989311,1,0,-2,-2,-15,-82,-12,6
1522653670989311,-1,3,1,1,10,111,26,5
1522653671006357,-8,-1,1,-2,-9,-12,-8,-4
1522653671006357,11,-1,0,-2,-8,-78,-21,2
1522653671007359,3,-10,-6,-5,5,38,-3,5
1522653671007359,-21,-2,3,1,-9,-22,-6,-5
1522653671028415,44,-2,-5,-1,13,-22,-4,10
1522653671028415,-7,1,2,4,-8,18,-1,-8
1522653671030421,9,-3,-4,-1,-9,30,0,3
1522653671030421,-6,1,3,-1,7,2,1,-6
1522653671042453,-46,-3,-2,6,4,-20,-1,1
1522653671042453,25,2,0,-2,6,-4,-1,6
1522653671051477,18,-6,-8,-5,-12,46,-1,-4
1522653671051477,-23,-2,0,4,16,44,14,3
1522653671066517,-8,-5,-7,-8,-14,-53,-20,-6
1522653671066517,25,1,1,-1,2,11,-5,1
1522653671067520,-2,1,3,0,-8,-23,0,1
1522653671067520,-7,0,0,-5,9,13,2,-3
1522653671088575,3,0,-5,-5,-17,-56,-1,-7
1522653671088575,13,1,-5,-1,8,52,7,11
1522653671090581,5,5,1,-2,3,-9,-6,-9
1522653671090581,26,2,-4,-2,-10,-20,-21,-8
1522653671102613,-59,-9,-1,-4,-7,13,1,-15
1522653671102613,0,4,3,-1,3,-26,-3,0
1522653671111637,-3,-6,-4,1,1,-19,5,-4
1522653671111637,8,2,4,7,14,25,6,-3
1522653671125674,12,5,3,0,-2,5,0,3
1522653671125674,-12,-2,3,2,2,13,1,-10
1522653671127680,22,1,3,1,-7,-9,3,10
1522653671127680,14,-5,-4,1,-8,-7,4,12
1522653671148736,-10,2,4,1,6,34,4,-4
1522653671148736,-1,-8,2,2,-2,2,-3,0
1522653671150741,10,1,0,-1,7,-8,1,2
1522653671150741,-43,-7,-2,1,0,-11,-3,-6
1522653671162773,39,-2,-1,-1,-9,5,3,7
1522653671162773,-16,-4,3,3,5,10,4,-3
1522653671170794,-14,-1,3,5,-1,9,-1,-4
1522653671170794,-12,3,1,2,-4,-22,-4,-8
1522653671185834,10,-3,-6,-3,-5,32,-5,-4
1522653671185834,17,-3,-5,-1,-3,-16,-3,4
1522653671187839,-31,-1,-1,1,-5,-6,-1,0
1522653671187839,7,-2,-4,-2,7,0,-5,-2
1522653671208895,23,1,-3,1,-6,-10,4,8
1522653671208895,-6,1,-2,-1,5,27,-7,-3
1522653671209898,-7,2,10,8,11,15,10,-6
1522653671209898,-15,-9,-8,-5,-7,-41,-1,-5
1522653671221930,-13,3,-1,0,5,41,0,-4
1522653671221930,25,1,-4,-3,-3,-6,4,4
1522653671230954,-3,-3,-1,-3,-7,3,0,-2
1522653671230954,3,3,5,-4,-11,-25,-4,4
1522653671245994,-18,-2,1,-3,0,1,11,-6
1522653671245994,-3,-9,-10,-6,5,-6,-8,-11
1522653671248000,23,-1,-3,0,7,15,5,3
1522653671248000,-18,1,1,-1,-8,-36,-9,-1
1522653671269055,-4,-2,1,0,1,5,-1,-3
1522653671269055,-17,0,1,-2,3,3,-1,3
1522653671270058,4,-1,-3,-6,-2,16,3,-2
1522653671270058,-1,-2,0,-2,-1,31,1,4
1522653671282090,-9,-5,-7,-3,7,-29,2,5
1522653671282090,5,1,2,1,-9,-59,-4,-2
1522653671291114,-21,-5,-4,-7,10,56,-16,-6
1522653671291114,22,0,4,3,-6,10,11,3
1522653671306154,-10,5,1,-4,-11,18,-7,-3
1522653671306154,21,-5,-8,-9,-9,-56,-13,9
1522653671308159,-34,-2,-6,-3,-15,-47,3,-15
1522653671308159,0,3,-2,0,5,11,-2,0
1522653671328213,9,0,-4,-1,13,37,-1,2
1522653671328213,-15,-1,0,-4,-16,-5,-3,-11
1522653671330218,10,3,1,4,5,17,7,10
1522653671330218,18,0,0,0,2,-20,3,3
1522653671342250,-26,0,-1,-2,-1,-14,0,0
1522653671342250,7,1,-3,-4,-4,26,7,0
1522653671351274,-1,2,-2,2,6,69,-11,0
1522653671351274,7,3,-1,3,9,51,27,3
1522653671366314,-11,4,6,3,-4,-45,-17,-8
1522653671366314,16,-5,-5,0,9,37,-1,2
1522653671367317,5,1,0,1,0,-35,8,7
1522653671367317,16,-1,-4,-7,-8,32,-6,8
1522653671388373,-25,-6,-3,-3,-2,-71,-8,-13
1522653671388373,-19,3,1,1,1,13,-1,-6
1522653671390378,1,-3,0,-1,-3,11,-2,-6
1522653671390378,6,3,-1,-3,7,-96,-13,5
1522653671402410,12,-1,-2,-2,-10,-12,-3,2
1522653671402410,-19,-1,-1,7,9,49,20,-1
1522653671411434,39,-1,0,-1,-15,-43,-11,1
1522653671411434,14,0,0,0,-3,11,-2,7
1522653671426474,-7,-2,0,3,11,38,4,-3
1522653671426474,-6,4,6,5,-3,-34,-1,-2
1522653671427477,-16,0,5,-2,-9,-23,-7,-14
1522653671427477,-33,0,1,4,9,18,2,-10
1522653671448533,14,-2,-4,-5,-1,1,0,5
1522653671448533,0,-6,-5,1,2,2,-12,-10
1522653671450538,18,3,2,0,5,-18,16,12
1522653671450538,-2,-4,-6,-6,-14,38,-7,-8
1522653671462570,-26,-4,-2,4,4,19,3,2
1522653671462570,-10,6,7,7,6,20,2,-6
1522653671471594,-2,0,-1,4,1,-30,-6,11
1522653671471594,24,-1,-4,-3,1,-15,-7,-12
1522653671485631,3,0,-2,-1,3,20,4,3
1522653671485631,-21,0,2,-4,-21,-25,-5,-8
1522653671487637,-6,0,-1,-4,3,-31,-8,-10
1522653671487637,-8,-1,-7,-3,-2,1,3,15
1522653671508693,9,0,0,0,1,18,15,-6
1522653671508693,10,-7,-4,-6,-4,-23,-5,5
1522653671510698,-6,0,-2,-4,4,78,4,-7
1522653671510698,14,2,3,-2,6,-13,-13,0
1522653671522730,-20,-6,-4,-5,-12,-35,-13,0
1522653671522730,20,2,-3,0,7,38,1,3
1522653671531754,-18,-4,-4,-2,4,24,4,-6
1522653671531754,-7,1,1,3,-9,5,-1,-13
1522653671545791,25,2,-1,-2,4,3,2,10
1522653671545791,-6,1,3,1,-7,-43,-12,-4
1522653671547797,-14,-3,-5,-2,-7,-11,4,2
1522653671547797,-16,1,2,4,15,-31,-18,-3
1522653671568853,26,-6,-5,-3,-21,-3,23,-4
1522653671568853,-16,-1,-1,-1,-4,-4,0,0
1522653671569855,0,-6,-1,1,-1,4,-2,0
1522653671569855,-32,1,2,-1,-5,15,8,-14
1522653671581887,40,1,-2,1,2,12,2,23
1522653671581887,17,2,1,3,3,7,-1,2
1522653671590911,-15,-1,-3,-1,7,3,3,0
1522653671590911,-11,0,2,1,-11,29,8,4
1522653671605951,-17,-2,0,-2,-14,-62,-19,-12
1522653671605951,8,-1,0,0,4,93,13,-9
1522653671611967,14,2,0,-1,4,-30,-11,16
1522653671611967,-18,0,1,-2,6,23,10,-11
1522653671629013,12,-3,-6,-7,-2,-53,-8,-7
1522653671629013,7,2,2,3,-3,-29,-3,9
1522653671630015,-10,-4,-3,-4,-10,-6,-6,-11
1522653671630015,23,4,-3,-3,12,-8,7,14
1522653671642047,9,6,4,3,-16,36,-1,-4
1522653671642047,-26,-1,-6,-6,1,-14,9,0
1522653671651072,8,6,-2,-2,4,-21,0,3
1522653671651072,-8,-1,-4,-2,2,45,4,8
1522653671665109,11,3,-1,0,18,15,-1,5
1522653671665109,5,0,3,4,-7,10,0,1
1522653671672127,-13,-2,4,3,-10,-10,-2,-2
1522653671672127,15,-5,-5,-6,-12,-35,-15,0
1522653671688170,-41,-4,5,4,2,27,2,-11
1522653671688170,23,-4,2,-1,5,1,-3,-8
1522653671690175,5,-1,-1,-3,-6,-21,-5,-5
1522653671690175,2,-2,1,-1,2,-7,3,5
1522653671711231,-11,1,-1,2,7,19,3,0
1522653671711231,18,-2,-2,1,-8,-30,1,-1
1522653671713237,-23,2,4,1,-3,-3,-5,-4
1522653671713237,20,-7,-2,1,-4,-18,-2,-1
1522653671725269,-4,-4,-2,-2,6,20,-1,11
1522653671725269,-10,-1,1,2,4,-7,7,2
1522653671732287,-4,-3,-1,3,-2,0,-5,-16
1522653671732287,-7,-2,2,4,3,8,2,-1
1522653671748330,5,6,5,1,1,0,-2,-3
1522653671748330,3,-3,-5,-2,2,-6,-9,-1
1522653671750335,-2,-3,-5,0,-2,4,-2,-3
1522653671750335,-5,-5,0,-3,-6,-10,8,9
1522653671771391,-14,-2,3,0,3,2,-3,-6
1522653671771391,13,-4,2,-1,-1,-3,-3,7
1522653671772394,16,3,5,3,3,-1,2,0
1522653671772394,-3,-2,-4,-1,2,-2,-3,-4
1522653671785429,-3,0,0,1,1,5,0,2
1522653671785429,-2,3,2,1,-7,-7,-4,-8
1522653671792447,-8,1,3,0,-1,-7,-2,-7
1522653671792447,3,1,0,-3,0,-19,-2,3
1522653671808490,12,-3,-9,-5,-3,-10,-6,4
1522653671808490,-15,-3,-2,-1,3,-1,2,-7
1522653671810495,10,0,-2,-1,1,0,5,5
1522653671810495,-17,2,-2,-4,-8,7,1,-5
1522653671831551,2,3,-1,-2,-1,-32,-6,0
1522653671831551,25,1,-2,-1,-3,58,4,4
1522653671832554,-13,-5,-10,-7,-11,-51,-3,4
1522653671832554,-3,-3,-3,-3,-2,-3,-6,-7
1522653671845589,-2,0,-1,-4,2,25,2,2
1522653671845589,-11,-3,-6,-5,-4,-32,-21,-14
1522653671852607,13,5,4,3,8,42,21,13
1522653671852607,-7,-1,0,-4,-2,-20,-3,-4
1522653671868650,1,-2,-5,-7,0,-6,-2,0
1522653671868650,-13,5,3,2,0,-19,-2,-1
1522653671870655,26,-6,-6,-8,-15,15,-8,2
1522653671870655,0,3,2,1,6,2,-3,-7
1522653671890709,-23,-2,0,-3,-1,3,1,1
1522653671890709,41,2,3,1,0,1,4,8
1522653671892714,-52,-5,-2,1,1,71,1,-13
1522653671892714,20,4,1,2,6,-7,1,14
1522653671905749,-11,-1,0,2,0,5,-2,-8
1522653671905749,-6,2,1,2,-2,-3,-5,-1
1522653671912767,4,-4,-2,-2,4,-15,-1,-16
1522653671912767,2,0,1,5,0,65,5,-6
1522653671928810,6,3,1,5,-2,-3,7,2
1522653671928810,-4,-4,-3,1,1,-12,-1,4
1522653671929813,34,-1,-2,-2,1,-19,-3,12
1522653671929813,-23,-4,-6,-7,5,41,-1,-1
1522653671950868,-7,-3,-1,0,-3,-9,4,-13
1522653671950868,6,0,-5,1,-4,4,3,6
1522653671952874,-2,2,4,3,3,-9,-4,-7
1522653671952874,-34,-2,-4,-1,-8,-65,-8,-9
1522653671964906,31,-4,-4,-1,-3,34,3,18
1522653671964906,-46,-4,-3,-2,1,-10,-6,-18
1522653671973930,3,7,7,5,7,-16,-3,2
1522653671973930,32,3,-2,-3,-1,-27,-4,7
1522653671988970,-5,0,-3,0,4,2,-2,-6
1522653671988970,-8,0,5,2,-3,-5,4,2
1522653671989973,0,-4,-2,-2,-7,-12,-4,1
1522653671989973,-4,-3,3,2,7,21,2,6
1522653672011028,20,-2,1,0,-1,-7,-2,11
1522653672011028,5,-6,0,3,1,0,1,-3
1522653672013034,-13,-2,2,3,2,-26,3,-6
1522653672013034,6,-5,-4,-2,-7,-22,-4,4
1522653672025066,-1,-1,-1,2,-5,-8,-3,-3
1522653672025066,-13,-4,-1,0,-5,-14,-2,-1
1522653672034091,-2,4,3,0,4,11,0,0
1522653672034091,7,3,1,3,-2,-1,5,-8
1522653672048127,-3,-1,0,1,4,41,2,2
1522653672048127,11,2,-1,-5,-10,-64,-2,3
1522653672050133,-10,3,-1,0,-4,21,-6,-4
1522653672050133,4,3,-1,-4,1,2,3,5
1522653672071188,1,10,7,0,-4,-5,-1,4
1522653672071188,-13,-6,-7,-5,-5,-19,-8,-9
1522653672073194,9,-4,0,2,9,37,0,5
1522653672073194,5,-5,0,2,2,-10,-2,-1
1522653672085226,-6,-3,1,1,-1,-10,-2,-15
1522653672085226,-13,-3,0,-6,9,22,7,12
1522653672094250,31,-3,-5,-1,-7,-43,-7,2
1522653672094250,-17,4,3,1,-2,31,-2,-12
1522653672108287,-10,-1,-4,-1,3,0,-1,-4
1522653672108287,4,9,2,2,-1,-8,-4,0
1522653672110293,-14,2,-5,-8,-5,51,-2,-1
1522653672110293,-4,0,-2,-3,-7,-15,0,2
1522653672131348,-20,-2,-5,-7,11,47,-4,-13
1522653672131348,-1,2,2,6,9,30,21,2
1522653672132351,-1,-4,1,2,-1,-8,4,2
1522653672132351,5,-3,3,-1,2,11,7,11
1522653672144383,-3,-9,-2,1,-9,-39,-5,-4
1522653672144383,21,0,2,3,-2,19,-3,5
1522653672153407,-28,0,3,7,3,1,4,-8
1522653672153407,6,3,2,3,9,-10,-2,3
1522653672168447,10,-1,-1,9,4,6,3,10
1522653672168447,24,10,8,16,-10,-2,4,1
1522653672170453,-13,0,0,10,5,-34,-5,3
1522653672170453,1,0,2,8,-6,-11,5,2
1522653672191508,1,4,5,7,8,46,3,-1
1522653672191508,-29,-6,-5,0,-4,-28,-15,-18
1522653672192512,12,-3,-2,-2,-11,-14,-13,-9
1522653672192512,-13,-3,-4,3,3,26,4,-10
1522653672204543,2,-2,-5,-5,-6,-10,-4,-4
1522653672204543,9,-9,-1,-4,11,5,-3,-4
1522653672213567,-10,-10,-7,-8,-6,-8,-11,-11
1522653672213567,32,-2,-6,-8,-11,87,23,12
1522653672228607,-20,-3,-1,-9,-12,-29,-5,-18
1522653672228607,5,-3,-5,-11,-6,-15,-7,-5
1522653672230613,0,-8,-9,-18,-5,4,-5,2
1522653672230613,15,-2,-8,-14,-2,-32,-6,0
1522653672250666,-4,-2,-5,-10,0,-32,0,14
1522653672250666,2,1,-6,-10,6,40,5,12
1522653672252671,7,4,-8,-23,-2,14,6,1
1522653672252671,-2,8,-5,-21,-27,-51,-2,13
1522653672264703,3,-3,-13,-10,-4,25,-6,0
1522653672264703,-15,-5,-1,-11,-12,-69,-7,-6
1522653672273727,7,0,-9,-16,-18,38,5,5
1522653672273727,-7,0,-9,-19,8,-15,-1,-1
1522653672288767,10,2,-4,-17,7,10,0,6
1522653672288767,-1,-1,-3,22,-3,10,3,4
1522653672289770,-16,2,4,5,-3,-20,3,1
1522653672289770,-4,-6,-6,-2,7,-19,-16,-7
1522653672310826,17,-3,-12,-22,-10,-34,11,20
1522653672310826,-12,-4,-12,-26,-11,29,-1,-16
1522653672312832,6,9,19,38,29,17,0,7
1522653672312832,-14,-4,0,9,-1,-4,-6,-1
1522653672324863,-2,0,1,7,9,-18,-11,-19
1522653672324863,23,1,-2,0,3,28,0,17
1522653672333887,-27,-6,-5,-19,-12,-11,21,-7
1522653672333887,-4,-6,-3,-12,-4,-15,-10,-7
1522653672348927,7,-4,-1,5,1,38,10,9
1522653672348927,9,3,-1,-6,0,12,-2,-8
1522653672349930,7,-4,-3,3,16,-24,-2,20
1522653672349930,19,-1,-9,-9,11,34,7,7
1522653672370986,-19,3,10,11,-4,37,3,5
1522653672370986,-13,-2,18,22,17,-34,-21,-24
1522653672372991,11,-4,0,11,-25,-42,-19,-24
1522653672372991,-14,-3,7,40,24,56,4,-17
1522653672385023,3,-5,0,10,-26,-2,8,-12
1522653672385023,-2,-4,15,38,9,-4,-7,-11
1522653672394050,-5,2,9,-4,1,2,-2,-9
1522653672394050,4,6,22,21,-4,-25,-8,-9
1522653672409088,3,-4,-1,15,9,-11,-5,1
1522653672409088,-7,1,-3,-9,6,34,14,20
1522653672410090,-6,-13,-20,-22,-6,-45,-16,-7
1522653672410090,-17,-5,-4,-7,-2,-10,-5,-2
1522653672431146,15,-1,9,2,17,-20,-6,8
1522653672431146,-13,-1,-4,-12,-12,14,8,-5
1522653672433151,10,6,10,9,3,-36,-3,1
1522653672433151,-2,-3,-5,-10,0,-58,-11,-7
1522653672445183,-14,-2,-5,-14,-16,-9,-6,-5
1522653672445183,6,1,2,-11,12,25,8,3
1522653672454207,-12,9,7,-4,1,29,7,4
1522653672454207,-3,-2,-3,-13,-7,13,17,15
1522653672468244,1,-2,-7,-9,-18,-32,-2,-7
1522653672468244,-14,-2,-8,-11,-14,12,-2,-3
1522653672470250,18,2,-4,-1,-2,21,10,7
1522653672470250,-6,-6,-8,-8,-3,17,3,-2
1522653672491306,-13,-2,-1,2,4,32,2,-2
1522653672491306,4,2,-3,3,-2,24,8,1
1522653672492309,4,0,0,7,1,-2,-4,5
1522653672492309,12,0,-5,0,-9,2,2,19
1522653672504340,-2,0,1,9,-5,9,-4,-3
1522653672504340,-7,2,-2,-2,-9,-41,-16,-7
1522653672513364,15,0,0,0,0,0,0,2
1522653672513364,-35,-11,-3,6,5,9,-2,5
1522653672528404,5,0,0,5,6,-15,2,4
1522653672528404,-2,-5,-3,0,-7,-15,-4,0
1522653672530410,4,3,-2,0,8,17,1,5
1522653672530410,2,4,2,2,0,-14,-2,-2
1522653672551466,-10,-4,-1,0,6,-14,-8,-8
1522653672551466,4,-2,-3,-5,-4,-22,0,2
1522653672552469,-6,-2,-6,-2,-1,-9,7,-4
1522653672552469,-6,6,5,3,-2,4,2,9
1522653672564500,2,5,6,8,-3,-70,-8,0
1522653672564500,4,-4,0,3,7,78,7,-4
1522653672573525,0,0,2,0,-2,7,-3,-2
1522653672573525,10,7,5,4,5,12,2,-4
1522653672587562,-6,-2,0,0,-2,-4,2,-7
1522653672587562,-2,1,2,-3,-6,-8,-3,1
1522653672594581,9,4,0,-3,5,-60,-12,2
1522653672594581,-18,-5,-4,-3,-7,-11,0,4
1522653672611626,6,3,2,0,-2,9,1,6
1522653672611626,9,-1,1,-2,0,16,0,1
1522653672612629,3,-7,-6,1,7,16,-2,1
1522653672612629,5,-5,-6,-8,-1,6,5,5
1522653672633684,8,1,-1,-3,-5,-3,-3,-12
1522653672633684,-26,-3,-3,-3,-5,-38,6,-7
1522653672635690,3,0,1,4,8,70,8,1
1522653672635690,13,1,-2,-1,3,2,-7,0
1522653672647722,-19,-8,-3,-2,2,16,9,0
1522653672647722,9,-5,0,1,-1,-25,-8,-4
1522653672654741,-8,-1,-2,-4,-8,-8,-1,5
1522653672654741,32,4,0,1,1,-9,-3,10
1522653672670783,-27,-5,-8,-2,-10,27,2,-12
1522653672670783,1,6,0,3,-5,-24,0,-3
1522653672672789,-17,1,1,1,-1,-35,-1,-1
1522653672672789,-11,2,5,3,6,32,9,-9
1522653672693844,6,7,6,5,10,19,-5,-1
1522653672693844,-8,0,-1,3,-1,11,6,-4
1522653672694847,21,-3,-1,-3,2,20,1,3
1522653672694847,24,1,-1,-6,0,-25,-5,2
1522653672707882,-14,-6,-2,-7,-17,-35,-9,-1
1522653672707882,-25,-2,1,5,16,65,16,-2
1522653672714901,-3,1,2,2,0,-48,-22,-6
1522653672714901,-10,1,-1,-1,-18,-28,-6,-3
1522653672730943,8,-3,-2,-3,4,1,10,0
1522653672730943,4,-2,0,-1,1,-1,-13,-6
1522653672732949,6,-2,-3,0,-6,12,13,3
1522653672732949,-17,-4,-4,-1,1,-6,1,-5
1522653672754007,13,6,1,0,0,-25,-4,7
1522653672754007,22,-2,-2,-3,-7,-29,-7,1
1522653672755007,-25,2,10,4,4,33,-1,-7
1522653672755007,-10,-6,-6,-5,-5,12,2,-9
1522653672768042,14,-4,-1,2,3,-35,-2,9
1522653672768042,0,-6,-6,-5,-9,17,-4,-9
1522653672775060,-21,-2,1,2,-4,-15,1,-8
1522653672775060,-6,0,7,3,6,34,2,0
1522653672791103,-7,-9,-1,1,-14,-16,-12,-12
1522653672791103,8,8,3,1,3,-19,12,7
1522653672793109,-3,3,-3,-4,2,16,-2,-1
1522653672793109,-6,0,-5,-3,-2,-3,-2,1
1522653672813162,5,4,0,6,18,46,7,1
1522653672813162,0,-3,-2,-2,-26,-24,3,3
1522653672815167,48,5,0,0,-6,-1,9,25
1522653672815167,-44,6,8,4,11,7,2,-14
1522653672828202,13,-3,-3,0,-3,-16,-8,2
1522653672828202,-16,-2,4,1,6,-22,-15,-6
1522653672835221,-22,-8,-6,-5,-16,-5,-3,-11
1522653672835221,1,-2,-2,0,4,-15,-8,-9
1522653672851263,20,0,4,1,4,20,7,13
1522653672851263,12,-9,-8,-2,9,-1,-1,10
1522653672852266,-37,-12,-3,1,-7,-10,-15,-33
1522653672852266,13,0,-3,-3,-6,-12,13,14
1522653672873322,-32,-5,3,6,5,8,-2,-20
1522653672873322,28,2,2,4,7,12,1,12
1522653672875333,30,7,3,1,1,-31,2,7
1522653672875333,-23,-7,0,2,-11,46,-4,-9
1522653672888362,7,6,6,6,1,12,-2,-3
1522653672888362,-3,7,7,7,3,-11,0,-3
1522653672894378,-15,-6,0,2,-3,16,-3,-10
1522653672894378,8,0,4,5,-7,-24,-15,-15
1522653672911423,7,-2,2,4,0,32,-3,-3
1522653672911423,5,3,11,7,5,24,-8,-1
1522653672912426,-30,-8,4,3,-5,-11,4,-16
1522653672912426,30,-4,-5,-7,-3,-13,-4,17
1522653672933482,-12,0,2,-3,-9,-9,-7,-15
1522653672933482,-2,0,-2,-7,2,-1,-3,-6
1522653672935487,4,0,2,-10,-1,14,0,-7
1522653672935487,-10,-2,-8,-9,7,-7,3,2
1522653672947519,3,4,-5,-7,10,0,2,-7
1522653672947519,4,1,-6,-8,-4,-1,7,20
1522653672956543,13,-3,-10,-15,-12,-9,-8,5
1522653672956543,-17,1,-7,-10,-2,4,-5,-17
1522653672971583,-10,-5,-8,-11,-11,-5,1,1
1522653672971583,0,7,-2,3,7,7,-8,-2
1522653672972586,4,7,-1,-2,-1,9,11,7
1522653672972586,4,-1,-2,-2,-12,-30,0,7
1522653672993642,9,4,4,2,-6,23,9,13
1522653672993642,6,-3,3,-2,-6,-51,-11,-7
1522653672995648,-26,-3,-4,-5,-5,-12,7,8
1522653672995648,10,-1,0,0,17,-1,-7,-4
1522653673007679,-11,-4,3,0,-9,-6,2,-9
1522653673007679,-18,-1,0,-1,-1,5,-2,-6
1522653673016703,31,-1,-6,-2,-10,-11,6,26
1522653673016703,14,0,-4,0,15,18,11,8
1522653673030740,-9,-3,-5,2,8,-9,-3,-1
1522653673030740,-2,-5,-11,-5,-2,4,2,1
1522653673032746,-14,-1,0,2,10,13,-2,-3
1522653673032746,-3,-1,-5,-5,-13,-1,-4,5
1522653673053802,6,0,-3,-3,-1,-3,-2,14
1522653673053802,-6,-1,0,-3,-5,-4,1,-4
1522653673054805,6,3,-2,-2,2,7,-1,4
1522653673054805,-5,-2,-2,1,2,29,-3,-5
1522653673066836,11,4,0,3,4,-35,4,9
1522653673066836,-18,-9,-7,-4,-6,7,-3,-7
1522653673075861,17,-1,-3,-2,0,2,-4,5
1522653673075861,-7,2,3,-2,-1,-30,-5,-7
1522653673090900,-1,2,-7,-2,-3,36,7,9
1522653673090900,0,-8,-8,-8,-5,-15,-9,-4
1522653673092909,1,0,1,4,16,60,3,-5
1522653673092909,13,-1,-1,-3,-8,-45,1,9
1522653673113962,-12,-6,1,1,-1,26,-13,-18
1522653673113962,12,-3,0,-8,-18,-33,8,10
1522653673114965,2,-10,-10,-1,17,20,-1,-1
1522653673114965,-11,-4,-1,0,4,14,-1,-6
1522653673126996,-2,2,-1,-4,0,4,2,-5
1522653673126996,-1,1,-6,-4,3,-2,-3,-2
1522653673136020,-6,-2,-4,-4,4,-13,-10,-22
1522653673136020,16,0,-2,-3,-9,-35,-1,7
1522653673151060,-15,-4,1,0,7,64,10,-14
1522653673151060,-7,2,5,10,4,-3,5,-12
1522653673153066,-1,2,4,1,3,-3,3,11
1522653673153066,0,-2,2,6,-3,-35,-4,-1
1522653673174122,10,-4,-2,1,4,-34,-14,-9
1522653673174122,-1,-1,-1,-3,-9,6,2,1
1522653673175124,-5,3,5,6,6,72,10,-5
1522653673175124,5,4,3,1,-8,-21,-8,7
1522653673187156,-3,0,-5,-4,-10,-18,-2,1
1522653673187156,-3,3,0,-2,1,-23,-6,2
1522653673196181,6,5,1,-1,12,-2,1,16
1522653673196181,-22,0,1,0,-3,26,9,-13
1522653673211220,-4,-4,-2,1,-11,-36,6,11
1522653673211220,12,-6,-10,-1,-1,-35,-5,-3
1522653673213226,-7,3,5,-4,-16,25,-11,-1
1522653673213226,-3,-3,0,11,8,40,21,-8
1522653673233279,-4,1,10,4,1,-9,3,-1
1522653673233279,14,-6,2,4,9,42,8,10
1522653673235285,2,-6,-3,-8,3,-52,-12,8
1522653673235285,-11,-3,1,-4,1,-21,-18,-1
1522653673247316,17,-5,-5,5,-3,-3,-1,4
1522653673247316,-9,11,6,2,3,0,-1,-8
1522653673256341,0,0,-8,-3,-10,-21,3,-3
1522653673256341,5,9,3,2,11,30,-3,-1
1522653673271380,-3,5,0,-2,-6,-33,-14,0
1522653673271380,18,-6,-2,-6,-4,29,8,10
1522653673272383,-15,-7,-4,-1,0,-29,1,4
1522653673272383,-5,-10,-7,-2,-1,-14,-3,-7
1522653673293439,18,-1,-2,-3,-8,-32,-7,-5
1522653673293439,-28,-2,0,5,11,66,-2,-4
1522653673295445,2,4,4,7,1,10,16,0
1522653673295445,6,-3,3,3,2,3,3,8
1522653673307477,20,4,2,1,2,-13,-3,0
1522653673307477,-7,2,-4,-5,-8,8,2,2
1522653673316500,12,-6,-4,0,-3,-15,-10,0
1522653673316500,7,8,1,-1,-4,28,0,-3
1522653673331540,-22,-5,0,3,10,12,0,-9
1522653673331540,-5,0,0,-5,-21,-2,-4,-5
1522653673332543,-26,-3,0,1,3,-1,-3,-10
1522653673332543,16,-2,2,0,1,2,3,7
1522653673353599,-9,-13,-4,1,-3,15,-4,-10
1522653673353599,36,0,2,5,17,-8,-10,3
1522653673355605,-12,-5,-3,-9,-15,-1,-2,-3
1522653673355605,35,-1,-5,-12,-28,-12,-5,5
1522653673367636,-60,6,1,-10,1,13,31,-4
1522653673367636,-22,-6,7,38,20,18,-1,2
1522653673376660,40,8,3,-1,14,-31,-8,1
1522653673376660,29,4,1,12,3,9,2,0
1522653673390698,27,5,3,2,-3,17,-4,5
1522653673390698,-40,5,-7,-18,-17,-33,-4,-4
1522653673392704,-19,6,0,2,-8,-10,0,-8
1522653673392704,-10,-5,-3,-5,2,22,-3,-1
1522653673413759,12,-4,-6,-11,6,-16,-4,6
1522653673413759,-3,0,7,-10,-26,-20,-7,-10
1522653673415764,14,-2,-1,5,-11,-10,-7,-1
1522653673415764,-25,-3,-5,-2,32,9,-8,-10
1522653673427796,8,6,7,12,15,65,21,3
1522653673427796,3,8,5,2,15,-17,2,6
1522653673435818,7,-2,-6,-9,-5,-5,2,0
1522653673435818,-31,-9,-2,-1,-16,-34,-8,-5
1522653673450857,23,-3,0,0,-7,9,-6,-2
1522653673450857,-17,-10,2,5,8,24,2,-11
1522653673456874,4,2,0,1,5,-3,-3,-4
1522653673456874,4,-2,-2,1,0,-4,-1,-7
1522653673473919,-14,-7,2,3,-16,-85,-24,-9
1522653673473919,28,14,13,22,2,70,19,6
1522653673474922,8,-1,-2,6,-11,-16,-6,7
1522653673474922,10,10,14,26,29,39,2,2
1522653673486953,-26,2,2,7,-1,-25,4,-14
1522653673486953,6,-6,-18,-30,-14,-44,-16,-18
1522653673495978,17,6,13,20,1,32,16,16
1522653673495978,-25,-3,6,11,-10,-38,-5,-4
1522653673510015,27,3,9,29,25,26,-1,8
1522653673510015,-29,-7,1,7,11,-55,-6,3
1522653673517034,-11,1,-5,-16,1,65,6,-8
1522653673517034,14,2,-8,-28,-30,-13,4,2
1522653673534079,-6,-1,-11,-24,-14,-3,-14,-6
1522653673534079,6,-7,-4,-19,-7,14,5,-1
1522653673535082,-14,-9,-20,-38,10,11,1,-11
1522653673535082,2,-1,10,22,-27,34,1,2
1522653673547113,16,2,0,-16,13,23,7,9
1522653673547113,15,0,-12,-30,-1,-58,-4,10
1522653673556138,-13,5,17,30,13,24,7,5
1522653673556138,-8,-3,-12,-14,-4,11,10,6
