timestamp,emg1,emg2,emg3,emg4,emg5,emg6,emg7,emg8
1522653477722771,16,7,11,25,14,-2,5,-5
1522653477722771,-34,3,6,1,-15,-43,3,1
1522653477723776,15,-7,-12,-13,8,55,-13,-2
1522653477723776,21,4,8,35,7,54,-1,-6
1522653477724781,-14,-1,-5,-11,6,11,39,8
1522653477724781,12,-3,-14,-19,13,70,16,6
1522653477727785,-16,-2,-4,4,-16,-78,3,-9
1522653477727785,18,-3,-11,-6,7,74,21,11
1522653477734804,-28,2,0,-17,29,-47,10,-7
1522653477734804,-26,-10,-5,-24,-27,54,25,-5
1522653477744830,38,4,0,19,-5,-85,48,18
1522653477744830,-30,-6,-1,17,15,-39,-14,-21
1522653477750846,5,-2,-7,12,-4,-17,-2,-6
1522653477750846,-4,1,-1,-45,-23,-70,19,18
1522653477764883,22,1,3,-17,-8,50,26,-9
1522653477764883,21,0,1,20,-3,-47,-11,-4
1522653477774915,-28,0,-8,-26,-36,-25,-19,8
1522653477774915,-6,-8,4,17,-2,-3,-14,-10
1522653477789951,-5,-1,-4,-10,71,48,-31,10
1522653477789951,26,6,4,24,-11,3,16,-5
1522653477795966,-5,-4,-8,-1,-15,25,-2,-1
1522653477795966,47,-1,-17,6,-36,12,-7,9
1522653477810004,-39,-1,2,9,-2,-41,-6,-4
1522653477810004,-10,-8,-6,19,-18,7,4,-1
1522653477852115,-13,-1,-9,-58,-13,39,-22,-1
1522653477852115,6,-6,-8,1,6,98,-13,-12
1522653477856126,30,0,3,15,10,44,33,3
1522653477856126,19,7,1,0,-16,-12,9,54
1522653477856126,-21,-19,-18,-7,-8,-46,-17,-70
1522653477856126,15,-5,-18,-29,-52,7,32,10
1522653477857129,-27,6,5,25,69,57,-33,-3
1522653477857129,-25,1,7,1,7,-55,7,-9
1522653477862142,25,4,-2,-11,-59,-115,-25,22
1522653477862142,14,6,15,11,1,28,26,2
1522653477871166,28,4,5,-4,-19,4,-12,-8
1522653477871166,-47,-2,4,-4,-46,53,33,-10
1522653477877182,17,-4,-8,12,29,4,1,18
1522653477877182,4,-1,-13,-30,5,-117,2,2
1522653477892222,15,8,10,45,-8,-53,4,13
1522653477892222,-4,4,6,-16,-9,15,-31,-10
1522653477899241,-1,-3,-2,-13,28,42,-48,5
1522653477899241,-30,-6,-6,-16,-27,-115,-45,-28
1522653477922302,10,4,11,5,-6,-15,-13,5
1522653477922302,45,2,-6,8,108,29,14,23
1522653477923305,-36,5,18,16,-27,-47,4,2
1522653477923305,-5,-2,-2,20,17,-67,-7,28
1522653477937342,-10,-7,-7,-31,-8,52,-15,-15
1522653477937342,-28,0,9,-2,-25,22,9,-22
1522653477938345,28,0,-10,-13,15,43,16,38
1522653477938345,-4,6,27,40,33,127,15,-11
1522653477960403,-24,-9,-18,-30,-1,-3,-30,-28
1522653477960403,33,6,2,-6,-43,-49,4,9
1522653477961406,-12,0,5,28,20,-28,22,-4
1522653477961406,10,-2,-6,-20,44,57,33,18
1522653477982462,-20,-1,2,-10,-26,20,26,-22
1522653477982462,-7,-3,3,17,84,-5,42,16
1522653477983465,-16,-3,-3,1,-46,11,3,-27
1522653477983465,-25,-6,-8,-2,7,38,-11,-8
1522653477999508,7,-6,-11,26,52,61,25,16
1522653477999508,6,1,-2,-2,-35,-84,-31,1
1522653477999508,-13,-8,-6,-6,-8,37,4,-15
1522653477999508,22,0,-14,-32,-41,-5,-52,-7
1522653478020563,-17,-3,16,13,20,60,28,23
1522653478020563,2,-9,-21,17,-11,-95,-16,-27
1522653478020563,13,9,32,55,34,36,-3,14
1522653478020563,29,1,-12,-22,-76,-42,13,-2
1522653478042622,-16,-5,-8,-21,39,-68,-54,-2
1522653478042622,-5,0,-12,-37,-41,-2,-46,-11
1522653478043625,-14,11,32,56,33,19,49,-4
1522653478043625,14,-3,9,63,67,41,10,0
1522653478057662,54,0,-19,-17,-78,-42,49,27
1522653478057662,-43,8,22,33,34,49,16,-12
1522653478058665,-69,-19,-24,-60,-6,-105,-43,-19
1522653478058665,18,0,-1,-9,-2,6,-6,4
1522653478079721,16,-4,-8,9,8,28,-15,15
1522653478079721,33,-2,-2,-11,-7,-38,-3,-6
1522653478080723,-28,6,8,14,-1,-24,10,-2
1522653478080723,12,-9,-2,19,-5,-10,-69,-16
1522653478102782,-21,-7,-8,-33,5,2,43,-14
1522653478102782,16,-11,-6,1,-25,-18,-37,13
1522653478103785,38,9,16,6,25,5,43,11
1522653478103785,-28,-1,-1,19,-41,9,5,-3
1522653478116819,-20,9,15,-21,-22,13,8,-22
1522653478116819,9,-5,-22,-34,-22,-75,-13,5
1522653478124841,36,2,-5,7,0,71,24,7
1522653478124841,-23,0,13,4,16,34,53,10
1522653478139881,-17,-4,-9,0,-33,31,52,-6
1522653478139881,18,6,4,-5,18,-5,17,16
1522653478140883,-50,-9,-10,-31,-58,-5,-15,-15
1522653478140883,43,4,-6,1,100,6,30,1
1522653478162942,-39,2,15,29,-8,34,14,7
1522653478162942,39,1,-18,-7,-33,29,-21,2
1522653478163945,12,-4,-8,-26,-10,-59,-18,-1
1522653478163945,-77,-2,0,-41,-27,-99,-45,-22
1522653478176979,-29,-7,-7,1,-14,-43,-23,-22
1522653478176979,36,-5,-11,-22,-28,-12,-25,0
1522653478183998,26,3,2,-10,-2,-8,-92,0
1522653478183998,7,-3,-2,15,1,-64,6,-3
1522653478200041,14,3,-9,-34,2,-83,1,9
1522653478200041,-3,0,16,10,23,58,-16,-3
1522653478201043,-13,-8,-17,1,9,23,-36,-11
1522653478201043,3,5,19,45,17,-32,20,28
1522653478223102,22,10,17,17,8,65,-12,-8
1522653478223102,27,-1,-4,-52,-46,89,79,11
1522653478223102,-32,-13,-21,-14,40,33,42,-10
1522653478223102,-39,4,2,-2,-53,-6,18,-17
1522653478237139,29,-5,-7,3,48,-11,7,21
1522653478237139,-25,-7,-4,-6,14,-4,35,-6
1522653478244158,60,16,17,6,-53,82,56,25
1522653478244158,-43,-13,-14,-31,61,-63,2,-13
1522653478260201,-33,-3,-2,31,-60,-43,-49,-19
1522653478260201,-17,-6,0,5,-27,-101,-9,-9
1522653478261203,24,12,10,34,82,62,81,23
1522653478261203,20,-3,-6,-23,-33,53,14,13
1522653478282259,8,0,7,2,-10,-27,-29,-14
1522653478282259,-36,1,-1,16,43,-21,-13,-2
1522653478283262,-5,-4,-6,5,-24,-13,14,6
1522653478283262,-25,-4,5,36,5,42,-2,-11
1522653478297299,16,0,-10,-36,6,-3,20,1
1522653478297299,29,4,2,2,-1,-26,-10,13
1522653478304318,26,-1,3,3,32,17,-11,2
1522653478304318,-19,-3,5,31,-8,-19,-25,-28
1522653478320361,2,-7,-17,-64,-42,-1,-12,5
1522653478320361,4,10,14,34,34,39,1,-11
1522653478321363,0,2,-1,-13,-16,-32,13,7
1522653478321363,8,-4,-8,-33,13,-31,-17,5
1522653478342419,-27,-4,8,41,-11,5,-10,-8
1522653478342419,-13,0,-10,-20,21,-9,-12,4
1522653478343422,25,3,4,-1,-2,48,-19,-4
1522653478343422,-21,-10,-7,12,-40,-43,-5,1
1522653478357459,-5,16,34,28,43,-6,-10,11
1522653478357459,2,-9,-6,-11,-26,-9,-9,-19
1522653478364478,6,-4,-11,-6,-29,-14,-4,-12
1522653478364478,33,14,16,33,66,114,5,6
1522653478380521,15,-1,-15,-17,-15,-112,5,16
1522653478380521,-60,-7,0,-7,-5,79,-3,-26
1522653478380521,29,-4,-13,-20,-27,-25,5,9
1522653478380521,4,3,2,-1,-14,57,-8,3
1522653478402579,20,-9,-4,9,23,-21,25,4
1522653478402579,-22,-2,-15,-27,-34,-14,2,-9
1522653478403582,1,2,13,37,18,79,46,14
1522653478403582,-1,7,-4,-19,-11,-61,-6,-8
1522653478416617,20,-7,-14,-2,-15,11,-2,8
1522653478416617,-8,4,5,17,1,59,30,13
1522653478424638,-61,-11,-2,-3,-10,-28,-27,-42
1522653478424638,9,-7,-20,-37,-12,51,-2,1
1522653478440681,-15,7,-6,16,-26,-34,10,-4
1522653478440681,58,14,45,7,11,-21,-17,24
1522653478440681,-3,0,-15,-4,38,-6,-42,3
1522653478440681,-35,-15,-3,-8,-32,-1,13,-46
1522653478462739,4,-4,-8,-2,3,-81,-30,2
1522653478462739,-2,-2,-11,-4,11,28,10,7
1522653478463742,4,5,4,5,5,-2,-10,5
1522653478463742,17,7,10,-8,-2,9,10,3
1522653478484798,-19,-9,-6,-29,0,41,-12,3
1522653478484798,14,3,9,65,17,13,17,-4
1522653478485801,-16,-14,-28,-54,-42,15,-11,2
1522653478485801,22,20,25,-16,32,42,16,59
1522653478499838,-25,-14,-33,-39,-39,-52,-8,-61
1522653478499838,5,-1,-13,-9,-45,-28,-22,14
1522653478500841,10,8,28,40,87,-45,1,-20
1522653478500841,44,6,-11,2,-8,12,-3,47
1522653478522900,23,-3,3,0,14,59,20,15
1522653478522900,-76,-8,-1,-6,-10,48,-13,-25
1522653478523902,31,3,19,14,6,41,-6,9
1522653478523902,30,-5,-27,2,-4,-68,-10,2
1522653478544958,-39,15,39,25,49,-26,13,13
1522653478544958,-1,-26,-29,-5,-16,-69,-51,-50
1522653478545961,-11,2,3,-24,-23,-12,4,40
1522653478545961,7,-4,-15,24,-34,-2,-14,-34
1522653478559998,12,-2,-14,0,-9,-18,-8,11
1522653478559998,-33,-4,-3,-16,7,33,-1,1
1522653478561001,-32,-14,-51,-67,-10,-93,0,-11
1522653478561001,47,0,10,47,23,-61,-5,-7
1522653478583059,-19,2,-10,-39,-17,0,-15,2
1522653478583059,32,-1,18,4,51,53,2,8
1522653478583059,-22,-17,-49,-70,-109,-39,-3,-17
1522653478583059,-9,5,0,-1,-37,2,6,-13
1522653478605118,37,13,49,80,109,-30,23,8
1522653478605118,-80,-15,3,-8,-1,-2,-54,-43
1522653478606121,-12,9,14,51,-37,-19,-7,8
1522653478606121,65,6,4,-29,-12,17,12,7
1522653478620158,-25,4,8,-15,-32,87,-19,-3
1522653478620158,46,10,-10,-23,-11,-34,30,8
1522653478621161,-13,-3,27,37,28,-63,4,-14
1522653478621161,-39,-1,9,10,29,46,26,8
1522653478642217,-9,-4,-7,6,-27,-74,-51,1
1522653478642217,8,5,-13,-13,28,59,45,24
1522653478643220,112,3,5,23,23,34,-20,19
1522653478643220,-61,-5,6,3,10,82,37,-23
1522653478665279,-41,-17,-21,-51,-25,-6,13,-26
1522653478665279,31,8,-2,-3,4,30,-1,8
1522653478666281,20,1,14,40,9,-92,-28,8
1522653478666281,14,5,5,2,-23,16,37,26
1522653478680319,42,-5,-22,-29,-3,-30,-38,-2
1522653478680319,-108,4,36,55,-14,-103,-44,-6
1522653478681322,36,-7,-11,32,7,101,-11,-13
1522653478681322,-11,2,1,-75,-49,1,-17,-24
1522653478702377,-13,-5,-5,17,29,18,1,-5
1522653478702377,25,1,-4,-7,38,77,41,35
1522653478703380,2,6,1,-13,-27,-34,-24,-6
1522653478703380,-9,-6,4,38,25,-2,-25,-1
1522653478725438,-23,-3,-2,8,-36,56,0,-16
1522653478725438,51,1,3,7,25,-62,8,27
1522653478726441,-52,3,4,-13,3,39,39,-6
1522653478726441,-38,-13,-11,8,-7,-24,-15,-18
1522653478740480,30,14,15,3,13,-1,-9,22
1522653478740480,8,4,23,35,-4,33,42,-3
1522653478741484,-4,5,2,-10,11,1,-7,-3
1522653478741484,-14,-8,0,2,-23,-59,1,6
1522653478762537,74,0,-20,-16,26,46,33,18
1522653478762537,-51,6,1,-25,-36,14,-23,-7
1522653478763540,-4,-14,-5,18,47,79,-4,-26
1522653478763540,-16,12,34,46,48,-95,19,20
1522653478785598,20,-14,-18,-47,-18,28,22,10
1522653478785598,25,-2,-1,22,2,68,-5,-33
1522653478785598,-39,5,-1,-26,-8,22,1,10
1522653478785598,34,-1,-10,7,-24,60,-24,-2
1522653478800638,-39,3,18,54,37,35,10,-9
1522653478800638,19,-8,-18,-31,-28,-51,0,19
1522653478800638,5,-5,-3,-6,-10,-24,1,-2
1522653478800638,-2,4,-7,-34,-93,27,0,-6
1522653478821694,-16,1,2,-2,60,-7,-2,-2
1522653478821694,7,-5,-10,-23,-30,17,-22,-3
1522653478829715,-29,4,13,37,16,-24,17,-3
1522653478829715,25,-13,-19,-47,-17,-28,-47,-4
1522653478844755,21,-1,-25,-39,-58,-43,-31,3
1522653478844755,-16,-5,-10,35,11,-9,-11,-4
1522653478845758,-31,-5,-1,-40,-8,-12,-47,-34
1522653478845758,16,1,-7,8,34,-30,3,9
1522653478868819,-57,-10,1,-17,-31,-1,2,-19
1522653478868819,31,-11,-34,-45,-4,-41,-4,-5
1522653478868819,-33,0,4,17,-5,59,19,-2
1522653478868819,-11,6,7,17,21,-3,11,4
1522653478881854,20,3,7,-24,-46,-4,-5,16
1522653478881854,6,4,10,39,85,2,65,-1
1522653478889876,42,1,-7,-46,-38,-128,23,21
1522653478889876,-29,-5,0,-5,8,-9,-6,-17
1522653478904915,-8,4,20,41,16,60,33,2
1522653478904915,42,10,30,-3,-14,61,-27,11
1522653478905918,3,1,-26,-52,-6,-52,21,-2
1522653478905918,-81,-5,17,76,41,36,18,-31
1522653478927977,37,8,2,11,-1,9,6,-1
1522653478927977,-20,-17,-47,-37,-27,-71,-22,-29
1522653478928979,30,5,19,35,17,81,14,21
1522653478928979,10,-4,2,6,-21,32,-12,-2
1522653478942014,10,-6,-1,28,-24,-12,26,11
1522653478942014,11,-15,-39,5,6,17,-21,2
1522653478950035,-93,-9,-1,16,-14,-2,-24,-73
1522653478950035,98,7,-17,-5,-7,-80,6,11
1522653478965075,-46,-22,-14,-10,9,43,-23,-24
1522653478965075,5,13,29,10,-16,56,-4,-2
1522653478966078,53,5,-6,34,21,-17,13,31
1522653478966078,-3,8,-7,-41,35,39,-21,4
1522653478988136,-39,3,-21,-36,9,-12,-43,-12
1522653478988136,-13,-1,18,39,4,-42,13,14
1522653478989139,44,6,13,-62,-23,6,-6,7
1522653478989139,-30,4,14,52,45,63,14,-10
1522653479002174,51,15,23,29,15,-13,-11,26
1522653479002174,-55,-3,3,-1,6,-19,11,-23
1522653479010195,44,-7,-16,5,6,-81,-29,18
1522653479010195,16,-3,10,-7,-29,73,6,16
1522653479025235,-121,-17,3,36,30,17,9,-37
1522653479025235,65,4,-1,-33,-6,50,-31,28
1522653479026238,44,21,35,16,3,20,44,12
1522653479026238,-65,-20,-25,-31,-12,-68,-57,-13
1522653479048296,43,0,-12,7,-8,-55,13,9
1522653479048296,-8,8,-1,-31,-13,96,-3,2
1522653479049299,9,10,13,8,21,37,-8,6
1522653479049299,39,-5,-12,-17,-15,64,-16,-10
1522653479071358,-45,-5,21,36,-27,-77,10,25
1522653479071358,-1,-1,-20,-13,16,28,45,-11
1522653479071358,-24,-1,0,5,-4,-43,-31,-7
1522653479071358,45,-5,-11,-14,-12,-7,16,-11
1522653479085395,18,2,1,-27,-27,-52,-59,-6
1522653479085395,-26,3,5,-19,63,53,-1,-9
1522653479086398,-25,-9,-3,34,5,68,25,1
1522653479086398,-85,-4,-2,-49,-31,-36,25,3
1522653479108456,74,8,8,46,34,85,-7,5
1522653479108456,-30,0,-21,-63,-104,-124,35,-4
1522653479109459,81,9,35,61,75,0,14,-2
1522653479109459,-86,1,-4,-5,9,-12,0,3
1522653479130515,14,0,-13,-20,26,64,25,-11
1522653479130515,-81,-21,-16,-14,-26,-40,-58,-17
1522653479131518,52,5,7,43,13,24,-16,22
1522653479131518,-22,-26,-32,-44,-29,-56,-5,-8
1522653479145555,96,28,26,7,11,38,21,-17
1522653479145555,-75,-12,-4,5,42,-5,27,32
1522653479145555,-39,-19,-35,-24,-45,22,-12,-23
1522653479145555,33,8,16,44,38,44,-38,7
1522653479168617,9,2,7,-1,-28,-14,-30,-13
1522653479168617,22,6,5,-9,-15,-33,-11,18
1522653479169620,-39,-13,17,10,-1,-5,-7,-6
1522653479169620,44,12,6,35,8,42,5,22
1522653479190676,-53,-5,-10,-29,-23,-85,18,-13
1522653479190676,67,16,19,36,-5,-87,-30,1
1522653479191678,-45,-7,-15,-30,-6,-18,-18,-11
1522653479191678,16,4,7,9,26,4,-3,14
1522653479204713,-36,-8,1,-14,-9,-51,-9,7
1522653479204713,4,-3,-5,2,-20,-20,7,2
1522653479205715,4,-17,-32,-44,22,81,-25,-16
1522653479205715,92,27,34,-14,27,-45,-4,21
1522653479228777,-44,-26,-34,-5,-11,58,34,-19
1522653479228777,-40,-5,-14,-6,-8,70,-13,-7
1522653479228777,41,14,24,45,4,25,19,12
1522653479228777,-38,-13,-28,-58,-69,-39,-2,-8
1522653479250835,65,11,15,65,19,-31,8,24
1522653479250835,-3,3,10,-28,13,35,18,-15
1522653479251838,-7,-6,-16,26,20,-8,14,-2
1522653479251838,20,-9,-32,-59,-17,32,5,-4
1522653479264872,-2,4,-16,-3,-13,27,13,15
1522653479264872,11,-1,8,14,-24,0,4,-11
1522653479265875,-29,0,-12,-93,-18,-85,-35,9
1522653479265875,29,-4,-20,-18,-23,-80,15,-7
1522653479287934,-31,13,29,-26,18,25,-10,4
1522653479287934,-19,-10,-3,8,18,55,-14,-3
1522653479288937,-24,2,-8,-44,-100,-20,11,-4
1522653479288937,39,2,-3,29,78,18,2,-15
1522653479310995,-18,-10,-3,-3,-16,-10,-8,10
1522653479310995,57,7,1,2,15,3,4,-5
1522653479311998,-51,-14,6,-4,-23,-2,23,15
1522653479311998,-26,-7,8,-33,-38,-71,-16,-24
1522653479325032,78,10,22,36,76,87,45,46
1522653479325032,-28,1,-9,-22,-8,-1,1,-23
1522653479326035,-22,8,9,38,2,49,63,1
1522653479326035,13,0,22,40,-9,6,-1,4
1522653479348094,-12,-7,-11,-51,-53,30,-11,-15
1522653479348094,-39,-6,-2,27,52,-70,-2,-7
1522653479348094,26,-8,-30,-78,-5,2,-20,5
1522653479348094,-5,7,14,-18,58,116,38,18
1522653479371155,8,10,2,-6,-44,-40,-1,12
1522653479371155,42,5,17,43,12,14,22,-7
1522653479371155,-59,-6,0,1,-5,-25,-14,-29
1522653479371155,15,6,-14,-31,-49,11,-7,2
1522653479385192,-5,-17,-21,-44,-5,-14,-11,5
1522653479385192,-17,3,-3,13,57,2,-31,-12
1522653479386195,34,-4,-5,3,-12,17,-23,0
1522653479386195,-45,2,21,51,60,1,-17,-9
1522653479407251,10,1,-10,-11,-27,29,40,5
1522653479407251,46,-5,-2,-14,-103,-69,-33,0
1522653479408254,2,9,12,29,73,-65,44,13
1522653479408254,-58,-16,6,38,-13,-1,-22,-19
1522653479431315,9,12,11,19,8,-81,-24,-1
1522653479431315,18,-11,-15,22,-12,95,12,-24
1522653479431315,53,7,14,10,-20,-34,-7,6
1522653479431315,7,-5,-5,47,-49,-20,27,33
1522653479445352,-84,-10,-12,-54,-4,-18,-24,-58
1522653479445352,28,-4,-9,0,46,29,8,26
1522653479446355,-8,9,-4,-16,-31,58,6,-22
1522653479446355,-51,-7,-1,3,41,-72,-5,6
1522653479467411,53,0,6,-50,-93,38,10,15
1522653479467411,-5,-6,-16,60,43,2,-14,-5
1522653479468414,1,-3,-3,-16,0,-89,-24,-13
1522653479468414,5,8,24,21,-58,-27,-7,0
1522653479490473,-24,-17,-43,-12,54,-20,-34,0
1522653479490473,23,14,40,-18,-7,-52,2,10
1522653479491475,-18,6,7,53,5,88,-17,1
1522653479491475,-6,-5,0,-23,-21,-38,23,-23
1522653479505512,28,-5,-8,10,19,17,-18,28
1522653479505512,36,-6,-7,-65,-45,56,19,18
1522653479505512,-40,3,-8,19,-35,40,-11,-12
1522653479505512,-29,-5,-9,-26,-19,-33,-10,-35
1522653479527571,18,-1,14,43,41,20,6,-3
1522653479527571,11,3,16,1,-6,-68,16,15
1522653479528574,-6,-8,-23,-41,-13,21,7,19
1522653479528574,49,10,29,51,3,76,27,3
1522653479550632,-57,-6,-16,-10,7,-35,30,-30
1522653479550632,22,5,29,55,46,30,-11,17
1522653479551635,16,-7,-17,-21,-8,-61,14,-4
1522653479551635,-2,2,-11,-12,-10,74,-1,-3
1522653479565673,-2,8,19,6,21,-52,-10,-1
1522653479565673,32,4,-26,-71,-6,28,10,4
1522653479565673,-77,-10,28,66,-6,-62,3,-5
1522653479565673,13,10,21,3,-6,-7,51,-3
1522653479587731,16,-23,-28,5,-69,-32,-33,1
1522653479587731,-18,-1,-11,2,-27,-12,-23,3
1522653479588734,28,1,-23,-31,28,13,10,9
1522653479588734,-25,-8,-43,-45,5,-12,-31,-5
1522653479610792,-2,11,54,79,42,3,2,26
1522653479610792,-46,0,11,33,6,-100,-21,-30
1522653479611795,33,-2,-6,-10,-37,-1,-15,15
1522653479611795,-35,-3,-10,-13,19,22,-33,-23
1522653479624830,28,7,1,-7,54,-22,12,28
1522653479624830,29,1,0,33,-56,29,30,-8
1522653479632851,-40,0,14,-6,61,54,35,-37
1522653479632851,0,-6,-24,-23,9,6,1,32
1522653479647891,-11,0,3,-50,-5,78,-61,-24
1522653479647891,-50,-14,-36,2,-13,-30,-46,-18
1522653479648894,60,3,37,32,47,101,-27,-1
1522653479648894,79,5,11,-13,-26,-18,15,40
1522653479670952,-39,-8,-21,-18,1,94,4,-8
1522653479670952,-75,-2,7,-32,34,42,30,-19
1522653479671955,25,11,24,44,7,-12,16,8
1522653479671955,25,-7,-17,18,36,53,-42,6
1522653479684989,18,0,13,7,-51,109,30,-22
1522653479684989,-2,12,26,-10,40,50,-42,44
1522653479693011,-27,-5,-11,30,-7,-101,12,-26
1522653479693011,40,6,17,30,3,56,14,25
1522653479708051,-97,-14,-19,23,-4,-51,-32,-53
1522653479708051,61,15,0,15,-95,-128,76,31
1522653479708051,-2,-11,-32,-81,-16,112,25,4
1522653479708051,19,19,43,47,19,28,27,22
1522653479731112,-4,7,6,58,77,38,8,5
1522653479731112,-31,-16,-21,-91,-15,-43,18,-12
1522653479732115,28,10,-4,29,-14,47,-32,8
1522653479732115,-20,-8,4,-25,-60,-71,-13,-29
1522653479744147,37,9,2,-32,36,-14,-21,29
1522653479744147,-12,7,3,27,-38,121,-21,-29
1522653479753171,42,2,16,24,106,37,14,9
1522653479753171,-75,-10,-25,-23,-9,-37,-12,-11
1522653479767208,20,7,15,15,39,14,16,-1
1522653479767208,45,-19,-70,-54,-25,-82,-44,-1
1522653479768211,12,6,34,40,-17,2,12,20
1522653479768211,-34,-5,-6,15,49,84,-6,-12
1522653479791272,-18,5,2,-31,-14,0,41,28
1522653479791272,21,-3,5,30,-12,26,-9,-18
1522653479791272,-12,-10,-28,-48,-42,-31,6,-2
1522653479791272,-18,-2,20,52,126,-9,-13,-5
1522653479804307,49,8,0,-8,-62,-122,-8,24
1522653479804307,-75,-7,8,10,-19,22,-11,-26
1522653479812328,31,0,14,54,3,-15,-18,4
1522653479812328,50,-8,-25,-50,-63,33,3,1
1522653479827368,-66,0,5,-16,-41,-95,-11,-20
1522653479827368,27,10,32,79,81,41,-5,2
1522653479828371,12,-10,-43,-95,-65,-11,-16,-8
1522653479828371,29,9,-1,0,-14,-118,21,24
1522653479850430,-68,-21,3,15,-57,94,-14,-12
1522653479850430,-33,-9,-3,9,127,-83,0,-19
1522653479851432,-41,-6,-23,-15,-51,42,54,27
1522653479851432,89,25,29,22,-4,-29,29,0
1522653479864467,-37,-35,-45,-76,-66,1,10,-14
1522653479864467,47,24,67,52,13,14,54,47
1522653479872488,3,-5,-12,9,23,-67,-8,-20
1522653479872488,9,2,-2,-31,-5,58,-4,8
1522653479887528,11,3,-13,0,-5,-68,-2,-28
1522653479887528,-31,-13,-21,-44,-31,-51,44,-12
1522653479888531,-13,5,4,-8,-7,-5,13,17
1522653479888531,-15,-7,-11,-46,-46,-22,30,3
1522653479910590,13,4,10,11,27,33,-11,-1
1522653479910590,20,-1,-10,3,-15,11,-23,-5
1522653479911592,12,-8,-15,-12,29,-22,-25,1
1522653479911592,-58,-2,-3,-6,7,7,-5,-21
1522653479924627,54,3,-12,-30,-43,88,-10,-2
1522653479924627,25,20,63,22,-14,-51,-13,30
1522653479932648,-42,-2,-1,27,66,110,-42,-49
1522653479932648,-8,1,14,40,-4,-94,-23,-8
1522653479947688,6,12,24,-12,1,-16,15,33
1522653479947688,-22,-10,-22,0,-96,-2,-2,-7
1522653479948691,30,3,28,18,47,24,-11,6
1522653479948691,-16,-10,2,72,68,58,-21,-23
1522653479970750,44,-2,-19,-2,-12,-7,10,11
1522653479970750,-5,-3,-12,-4,4,35,2,-12
1522653479971752,-13,2,25,-38,-99,-3,-24,17
1522653479971752,20,-6,-13,-7,40,-13,-24,-17
1522653479993811,-48,-12,4,3,48,49,8,16
1522653479993811,4,8,8,31,52,-15,4,-22
1522653479993811,-23,3,-5,8,5,-40,5,-26
1522653479993811,54,2,-40,-79,-74,60,7,60
1522653480007848,-12,-5,-13,-9,76,21,63,0
1522653480007848,11,-10,-29,-24,-26,14,5,-5
1522653480008851,56,26,55,67,45,47,-21,41
1522653480008851,-90,-5,4,-16,-22,-104,2,-27
1522653480030910,11,-8,18,60,78,107,25,-6
1522653480030910,42,4,-9,-4,4,-52,-12,14
1522653480031912,-23,-12,-34,-44,-87,15,7,-13
1522653480031912,1,7,18,9,64,32,49,33
1522653480052968,24,14,32,25,17,-128,-40,-11
1522653480052968,-10,-3,11,-1,13,77,-11,3
1522653480053971,-34,-12,-46,-28,-53,-82,-7,-28
1522653480053971,6,-2,-6,-28,-30,44,-9,-1
1522653480068008,22,18,45,78,58,33,-15,-11
1522653480068008,-16,1,-14,-20,-12,34,11,34
1522653480068008,-8,-2,-5,44,35,-48,-31,-34
1522653480068008,-6,8,8,-41,-26,-40,15,20
1522653480091070,-12,0,-6,5,-17,6,4,-8
1522653480091070,-8,3,33,18,-84,-78,-39,6
1522653480092072,-10,0,-14,-16,116,109,21,2
1522653480092072,15,-17,-23,32,10,7,-27,-12
1522653480113128,0,-2,-36,-52,-37,-51,-18,-17
1522653480113128,8,-4,-27,-69,-15,127,54,27
1522653480114131,-18,-7,-14,-17,3,-128,11,28
1522653480114131,-42,-18,-35,-16,-17,33,-29,-71
1522653480127166,36,-4,-44,-45,-49,-3,18,26
1522653480127166,-18,1,9,-17,-14,97,12,-12
1522653480128168,28,3,4,-11,-22,-88,-14,-7
1522653480128168,-21,-1,14,-13,17,65,3,27
1522653480151230,23,20,46,35,0,89,0,-3
1522653480151230,-19,-28,-55,-27,25,66,-69,-45
1522653480151230,-10,12,48,16,-22,6,38,40
1522653480151230,41,7,3,30,-4,32,-1,6
1522653480173289,-23,-2,26,59,-8,-22,-26,-18
1522653480173289,11,-7,-14,2,41,-52,15,-23
1522653480174291,25,1,12,4,-30,127,1,30
1522653480174291,-57,-12,-15,31,-23,23,-42,-34
1522653480187326,58,7,6,-13,19,-128,52,27
1522653480187326,-63,-13,-26,1,-8,56,5,-16
1522653480188328,25,1,24,5,17,20,10,-23
1522653480188328,-13,-1,-9,15,-11,51,74,25
1522653480210387,2,-12,-24,14,21,97,-54,-8
1522653480210387,-31,10,13,-12,-73,-91,37,-7
1522653480211390,16,-7,-16,5,47,-78,-5,-18
1522653480211390,12,3,-6,-3,-56,-7,-26,15
1522653480233448,-2,16,41,34,15,-24,48,20
1522653480233448,9,-21,-4,30,42,-95,-35,2
1522653480234451,-48,2,-9,8,-12,62,-2,-11
1522653480234451,76,13,25,-18,29,25,-47,-19
1522653480247486,-40,-8,-16,19,-18,28,11,-14
1522653480247486,-9,-17,-5,-22,-45,-29,51,3
1522653480248488,-57,-10,-25,-39,-2,-22,-13,-8
1522653480248488,20,7,31,62,86,36,-11,13
1522653480270547,-19,-7,-31,-101,-99,-88,-29,-26
1522653480270547,67,10,15,68,83,89,-21,19
1522653480271550,-25,-3,13,20,-1,-75,-31,-8
1522653480271550,24,3,0,-36,-4,-43,-3,1
1522653480293608,21,-4,-20,-41,-9,-87,24,14
1522653480293608,-25,13,29,18,12,89,41,-19
1522653480294611,-9,-11,-27,-24,-23,-53,-26,3
1522653480294611,-11,8,1,-37,1,-51,-13,6
1522653480307646,38,-5,3,61,-58,-85,-14,10
1522653480307646,30,12,12,26,34,-10,-67,-12
1522653480308648,-14,-9,-2,-27,-5,121,25,3
1522653480308648,2,1,6,13,-8,-114,95,25
1522653480330707,-30,-5,-6,13,110,127,-33,-11
1522653480330707,-42,-13,-30,11,-90,-19,3,-8
1522653480331710,73,13,12,-13,-26,-12,-8,8
1522653480331710,34,-8,-9,19,26,-112,-28,-17
1522653480353768,-63,-19,-4,41,-27,21,2,-22
1522653480353768,76,13,0,-6,43,33,-29,30
1522653480353768,-37,-2,-15,-46,-30,-109,83,-20
1522653480353768,-7,4,3,-39,30,47,-8,20
1522653480367806,-12,2,-11,-76,-100,45,9,-17
1522653480367806,-35,-1,29,81,87,3,-55,-11
1522653480368808,69,4,-14,-38,-53,78,-12,12
1522653480368808,-44,13,32,59,42,18,5,3
1522653480390867,6,9,11,40,3,74,82,9
1522653480390867,-12,-1,-8,-30,12,-107,14,-4
1522653480391870,-38,2,6,61,42,97,-8,14
1522653480391870,19,-15,-19,-32,-53,10,-9,-24
1522653480412926,-7,1,-2,-75,0,5,-11,33
1522653480412926,20,0,8,10,0,14,33,-9
1522653480413928,-20,-7,6,21,-15,-34,-52,-13
1522653480413928,-24,-1,-2,-1,42,127,1,-7
1522653480427966,14,-8,-36,-89,-45,-60,-7,13
1522653480427966,0,7,23,9,20,40,-43,-32
1522653480427966,56,-3,-4,6,1,-10,37,31
1522653480427966,-23,1,-12,-7,12,30,-41,-6
1522653480451027,-54,-10,-19,-38,8,-59,-40,-10
1522653480451027,29,3,3,24,-6,-5,6,3
1522653480452030,-7,3,-1,4,-29,29,-10,28
1522653480452030,25,1,18,13,-34,30,16,0
1522653480473086,26,5,25,77,32,-8,-26,-14
1522653480473086,-16,-3,-1,-25,15,2,34,18
1522653480474089,-1,-11,-14,5,-41,-118,-22,-34
1522653480474089,-23,-20,-60,-44,9,32,30,7
1522653480488125,-2,9,46,49,43,20,10,0
1522653480488125,-15,-13,-46,-21,-21,14,20,-19
1522653480488125,23,20,60,-4,47,92,14,33
1522653480488125,-28,7,28,32,-26,-19,-9,-20
1522653480511187,44,-8,-26,-17,3,36,-10,-5
1522653480511187,34,7,12,20,6,-27,26,33
1522653480512189,-42,-2,7,0,34,-12,5,-53
1522653480512189,-50,-10,-16,-42,-50,-65,-16,-12
1522653480533245,2,0,9,23,49,-3,-52,-7
1522653480533245,23,4,6,-23,-27,-26,11,36
1522653480534249,-12,-2,-22,-21,-9,-55,-20,-6
1522653480534249,34,9,39,6,-28,119,7,-10
1522653480547283,0,-7,-27,-13,31,-86,-7,7
1522653480547283,-35,-2,-17,-55,-53,-50,-5,36
1522653480555304,23,-10,-14,41,67,-21,-39,-26
1522653480555304,8,-11,-27,-28,-8,-72,6,23
1522653480570344,3,5,-6,12,-26,81,17,3
1522653480570344,0,2,4,-19,-10,-24,-7,-13
1522653480571347,-7,6,22,33,11,-70,-2,3
1522653480571347,5,-3,1,-15,16,-12,4,31
1522653480593406,16,9,20,4,-13,-28,13,-28
1522653480593406,-13,-1,5,-30,47,-63,-42,-30
1522653480594409,-14,-3,-20,-22,-7,-21,-2,4
1522653480594409,12,0,-1,-15,-18,-86,0,16
1522653480607443,-1,5,33,39,-1,36,-5,11
1522653480607443,7,-12,-26,-13,-16,-9,-11,-16
1522653480615464,-7,6,12,3,-28,54,5,2
1522653480615464,6,-6,-1,-22,-3,-40,-49,-11
1522653480630504,-27,-8,-13,-20,-55,0,18,11
1522653480630504,-15,0,-12,-37,20,-13,-7,-14
1522653480631507,0,-1,-3,7,16,94,5,10
1522653480631507,19,6,-1,7,56,42,5,-11
1522653480653565,15,-3,-15,-3,-30,-94,-8,-18
1522653480653565,2,11,19,31,-23,95,9,29
1522653480654568,13,-11,-10,-28,16,-81,-90,-8
1522653480654568,-22,8,18,-12,-53,-1,52,-16
1522653480666600,-36,-13,-11,-19,8,-4,27,10
1522653480666600,39,10,25,27,19,73,13,16
1522653480675624,-48,-10,-33,-33,-84,3,-15,-23
1522653480675624,-15,0,-16,35,37,65,4,-11
1522653480690664,62,6,6,-37,-45,-59,-68,17
1522653480690664,-34,-9,-1,2,29,-61,-54,-29
1522653480690664,74,11,7,-14,-4,51,13,34
1522653480690664,-42,-16,-29,19,-78,-39,11,-18
1522653480713725,32,-2,-12,-49,74,-16,2,7
1522653480713725,-57,-13,-15,-10,-2,-5,44,-4
1522653480713725,2,2,-12,-36,-79,-69,-28,16
1522653480713725,-53,-7,-6,-15,26,109,-25,-22
1522653480726760,65,13,29,61,44,42,40,43
1522653480726760,47,2,5,10,53,-7,33,8
1522653480734781,-99,-3,-4,9,17,78,29,-38
1522653480734781,46,14,47,65,-12,-126,-34,10
1522653480749822,5,-6,-26,-22,51,114,-47,-3
1522653480749822,-42,5,11,-37,-39,-89,-25,-6
1522653480750824,16,2,18,42,-24,42,37,22
1522653480750824,4,3,9,-6,17,4,-29,12
1522653480772883,-46,-13,-28,-49,-12,-16,36,-44
1522653480772883,78,14,32,68,-15,-16,80,23
1522653480773886,44,-5,-6,-19,66,-50,-49,10
1522653480773886,-70,-2,-17,7,-14,29,29,-8
1522653480786920,-4,5,26,-61,-17,-30,15,-16
1522653480786920,4,5,-10,-33,18,25,25,5
1522653480794941,8,-10,0,44,10,47,55,-1
1522653480794941,53,0,1,-1,32,-32,61,1
1522653480809982,-44,-13,-40,-39,-52,39,-24,-14
1522653480809982,-41,2,15,21,15,110,-75,-24
1522653480810984,43,9,12,39,34,97,-21,13
1522653480810984,14,-4,-2,-29,6,12,19,26
1522653480833043,-11,-7,-14,37,-19,-37,-16,-23
1522653480833043,-48,5,18,65,22,32,-54,-18
1522653480834047,53,4,-1,-18,4,-77,40,18
1522653480834047,-29,-5,-9,-12,-19,-62,-71,-37
1522653480847080,0,6,21,80,31,53,17,18
1522653480847080,81,0,-17,-80,-1,-42,-5,7
1522653480855102,-83,-5,7,19,82,29,-23,-20
1522653480855102,95,6,10,17,15,-18,-30,8
1522653480870142,-46,6,16,20,-32,-109,22,-1
1522653480870142,-73,-30,-54,-67,-69,-2,-13,-30
1522653480871144,14,5,3,-45,-88,-10,21,-5
1522653480871144,24,4,-16,-73,54,-125,48,21
1522653480893203,-80,-15,-6,-10,-75,-17,-1,-14
1522653480893203,55,-2,1,64,64,-24,58,16
1522653480894206,-57,-7,12,39,-38,-40,31,2
1522653480894206,27,-4,-21,-9,-22,-25,-65,-9
1522653480907240,-21,-1,-11,-20,-40,-51,12,-22
1522653480907240,5,-3,23,-6,-10,17,33,26
1522653480915262,40,2,-22,-27,-66,-82,-12,-6
1522653480915262,-69,5,28,-14,82,45,15,0
1522653480930302,33,-4,-26,-10,53,127,19,18
1522653480930302,30,16,12,-31,-67,-29,-18,3
1522653480931304,-64,7,32,60,86,37,39,-10
1522653480931304,52,-6,-13,-22,-103,16,16,5
1522653480953363,21,4,11,2,9,-46,25,5
1522653480953363,-41,-18,-66,-20,-56,-33,-40,-29
1522653480954366,45,8,18,-12,12,9,13,32
1522653480954366,-40,1,9,26,-35,84,19,-37
1522653480975421,-3,9,31,56,57,-25,-52,-6
1522653480975421,-26,-6,-8,-14,-114,-36,15,-19
1522653480976424,49,6,8,18,96,45,3,12
1522653480976424,1,-8,-11,-12,-98,-14,15,38
1522653480990462,9,-3,-7,46,82,46,7,-20
1522653480990462,-29,0,-8,20,-7,-42,-5,-10
1522653480991464,-24,-1,-9,-39,2,-107,-43,-22
1522653480991464,30,2,-13,-47,5,-17,-1,14
1522653481013523,-1,-7,-12,21,-105,24,-4,-18
1522653481013523,6,2,8,-21,5,58,41,-6
1522653481014526,-17,5,11,5,29,82,79,47
1522653481014526,-1,-13,-25,-2,-73,-56,-7,20
1522653481035582,-5,-2,-14,-12,49,-31,-29,-27
1522653481035582,35,-10,-13,2,79,87,-6,45
1522653481036584,-10,-8,-25,-57,-87,-56,-30,-34
1522653481036584,-20,15,46,42,-10,-12,-6,8
1522653481050622,-12,-10,-14,-28,-2,3,4,-19
1522653481050622,-16,10,39,22,27,-21,-3,-1
1522653481050622,12,7,17,47,2,46,-10,-2
1522653481050622,-37,3,15,17,19,-43,-15,0
1522653481073683,43,3,7,-50,-63,-50,17,10
1522653481073683,-1,10,30,18,13,30,28,12
1522653481074686,-4,-17,-42,-36,6,50,19,-1
1522653481074686,0,4,10,2,46,-8,9,-4
1522653481095741,-15,8,21,45,31,-3,-7,-18
1522653481095741,6,-4,-23,-33,-35,-17,-8,-1
1522653481096744,-18,-9,-6,0,-37,12,-23,-3
1522653481096744,2,1,6,-8,35,12,29,-11
1522653481109779,17,-6,-26,-26,1,40,-14,11
1522653481109779,31,4,27,41,45,-111,-55,31
1522653481110782,-25,3,-5,-7,-58,7,-30,-21
1522653481110782,16,3,32,71,94,124,26,-10
1522653481133843,11,0,-14,-40,-10,-64,-10,19
1522653481133843,-35,-8,-28,-34,-53,26,-10,-32
1522653481133843,-17,-1,1,26,8,-89,-12,-1
1522653481133843,4,-9,-8,-11,-76,-48,-25,-7
1522653481154900,20,5,43,58,9,18,29,36
1522653481154900,25,3,-10,30,75,37,-14,1
1522653481162920,-15,-1,2,-13,50,26,-11,1
1522653481162920,12,3,-15,-21,-8,63,5,-7
1522653481169939,-22,2,14,40,12,4,-13,-29
1522653481169939,7,-7,-11,-12,-23,-37,37,43
1522653481170942,21,7,16,8,4,-19,18,-12
1522653481170942,-33,-2,-7,15,41,18,-18,18
1522653481193000,37,4,-10,-19,-31,99,34,6
1522653481193000,-10,-5,-9,-15,-25,2,-6,-30
1522653481194003,2,4,17,8,-24,-111,-9,9
1522653481194003,20,0,26,12,26,84,55,11
1522653481216061,-53,-5,1,11,11,-111,-14,-24
1522653481216061,6,-5,-6,-13,-24,32,-5,-23
1522653481217064,8,-11,-32,-21,11,65,9,1
1522653481217064,-15,-1,-10,-45,-14,-33,-3,4
1522653481230099,-35,-4,15,46,57,77,20,-7
1522653481230099,24,6,-2,6,5,39,-6,20
1522653481231102,2,-5,-22,-41,-55,0,19,2
1522653481231102,29,-6,-21,-33,-2,21,-8,-12
1522653481253160,-37,1,-3,-42,0,9,-37,7
1522653481253160,-63,-7,-5,4,-27,-43,44,-38
1522653481254163,41,7,21,4,-54,16,43,41
1522653481254163,-34,2,-11,29,95,-13,1,-23
1522653481276221,46,-1,2,-19,-22,-23,-2,0
1522653481276221,17,2,5,9,-67,-31,-33,12
1522653481277224,-11,3,17,33,64,-58,-22,-16
1522653481277224,-27,-7,-5,12,-56,-80,-11,-1
1522653481290259,65,14,10,-17,9,-7,28,31
1522653481290259,-98,0,10,42,32,-11,-78,-43
1522653481291262,94,-1,-24,-34,-38,-6,6,9
1522653481291262,-51,2,-1,10,24,67,-12,7
1522653481313320,29,-14,-13,-2,-85,-66,-2,23
1522653481313320,20,-6,-22,-15,90,88,43,-7
1522653481314323,-35,3,11,16,8,37,13,-1
1522653481314323,8,-1,-9,-3,-35,-28,-13,-8
1522653481335379,-12,-1,-9,-10,0,102,23,8
1522653481335379,62,16,51,26,-45,-113,29,6
1522653481336382,-85,-24,-35,-56,40,56,-39,-18
1522653481336382,51,5,-13,-41,-18,-65,74,31
1522653481350419,-10,14,37,84,21,-108,-13,1
1522653481350419,6,-17,-14,14,-39,63,-18,2
1522653481351422,-60,-5,-9,-56,44,-47,-50,-23
1522653481351422,-11,-10,0,-43,6,93,23,-19
1522653481373480,10,1,-17,0,-5,-43,3,7
1522653481373480,6,6,8,-6,-1,19,17,11
1522653481374483,14,3,2,26,-23,-77,-12,-14
1522653481374483,-17,-3,-1,17,-13,16,-72,2
1522653481395539,-5,-8,-11,-40,-16,-82,-29,-15
1522653481395539,-30,-5,1,41,46,108,-41,5
1522653481396542,-1,4,19,-10,-19,53,32,13
1522653481396542,53,4,-22,-55,-50,-67,-45,-7
1522653481410579,0,1,17,38,26,109,25,-8
1522653481410579,24,2,11,30,28,-45,0,11
1522653481410579,-3,0,-12,-16,-26,7,10,-10
1522653481410579,12,-7,-16,16,-34,-88,-29,7
1522653481433640,17,15,13,19,48,81,-5,-2
1522653481433640,9,-3,-5,-71,-14,29,-39,6
1522653481434643,-42,-10,2,37,13,15,-25,-18
1522653481434643,7,-6,-19,-6,17,45,36,-9
1522653481455699,-99,-9,-9,-19,-39,56,-36,-8
1522653481455699,75,0,-14,-38,-1,-88,29,11
1522653481456702,3,5,-11,5,9,13,-58,-23
1522653481456702,14,10,23,42,23,-14,36,11
1522653481469736,19,1,-11,-40,13,78,16,6
1522653481469736,-71,-10,-16,-9,-18,-15,-8,-26
1522653481477757,2,6,11,38,-55,24,-31,13
1522653481477757,3,-3,-5,-28,70,11,-15,-18
1522653481493800,1,-7,-16,-56,-49,-114,27,11
1522653481493800,8,-1,0,9,-7,-104,-42,-17
1522653481493800,34,-4,-16,-6,65,57,18,21
1522653481493800,4,-2,-16,-40,-58,82,23,17
1522653481515859,-19,7,5,46,62,-11,5,-6
1522653481515859,-15,-9,-12,-61,-25,56,29,-33
1522653481516862,32,10,43,63,43,-16,37,32
1522653481516862,-77,-8,-3,-13,-63,-101,-50,-39
1522653481529896,51,-8,-23,-17,6,56,-19,13
1522653481529896,-21,1,-4,15,12,67,21,-16
1522653481537917,12,2,15,-8,-34,0,-8,26
1522653481537917,27,0,19,32,-6,8,10,14
1522653481552957,-50,-10,-7,32,34,21,19,-15
1522653481552957,14,6,-8,24,34,-87,-31,-10
1522653481553961,55,6,5,-23,-23,-64,-2,50
1522653481553961,-59,-10,-8,1,-44,21,-19,-76
1522653481576019,56,3,-1,-20,-2,-1,28,47
1522653481576019,-22,-11,-49,-65,-10,-13,21,15
1522653481577022,-2,-16,-28,-12,25,-101,-14,-17
1522653481577022,-16,9,20,8,-7,-82,13,-2
1522653481589054,30,1,3,-23,-34,61,14,0
1522653481589054,-32,0,3,-23,0,-24,28,-6
1522653481598077,12,1,-9,3,1,7,4,3
1522653481598077,-4,-3,15,-24,6,-18,5,28
1522653481613118,-10,1,7,16,8,-32,-14,-55
1522653481613118,-40,-2,-1,10,47,127,-1,19
1522653481614120,15,1,-2,-11,-73,1,31,-4
1522653481614120,39,6,4,21,68,95,-5,14
1522653481636179,8,-12,-30,-52,-38,-40,-27,19
1522653481636179,6,7,31,47,-3,-11,-7,4
1522653481636179,-16,-3,2,-59,5,-54,-53,-43
1522653481636179,8,13,30,60,7,-48,12,29
1522653481649213,-1,-3,-9,-29,22,60,15,-5
1522653481649213,31,11,23,35,-12,-46,36,27
1522653481658237,-60,-11,-22,-51,-43,49,-29,-49
1522653481658237,31,-3,11,53,48,-33,1,-4
1522653481672275,-8,2,-1,-18,-47,26,14,20
1522653481672275,37,2,16,30,0,43,11,28
1522653481673278,5,10,16,39,3,38,45,2
1522653481673278,-10,-6,-20,4,12,53,-6,12
1522653481696339,-44,-7,-6,-15,57,50,13,-25
1522653481696339,6,10,28,49,3,-8,-11,-20
1522653481696339,16,0,-6,13,-15,-56,-20,0
1522653481696339,12,1,5,-19,-53,-3,-7,15
1522653481709373,-34,-18,-38,-10,36,-106,-29,-23
1522653481709373,-15,5,6,-52,-12,39,-21,2
1522653481717395,-10,-13,-24,-11,-1,25,1,-22
1522653481717395,24,6,4,20,-1,74,24,33
1522653481732434,-22,2,16,31,-20,-71,-22,-6
1522653481732434,25,-5,-8,-2,15,52,6,-15
1522653481733438,-11,10,15,36,34,-31,86,41
1522653481733438,-6,-9,-30,-58,17,-12,-2,-37
1522653481755496,-24,-1,13,38,-37,-61,28,10
1522653481755496,-46,-12,-14,-18,-25,-11,-62,-27
1522653481756499,21,9,8,32,33,-7,-6,7
1522653481756499,12,0,-5,-17,-25,-23,-6,9
1522653481769533,47,6,-5,-2,15,76,-46,-5
1522653481769533,-31,6,46,40,21,-34,27,0
1522653481777555,-40,-13,-21,-50,-58,-40,-17,-3
1522653481777555,24,-5,-8,-30,-9,-91,-30,-12
1522653481792595,57,19,21,4,-21,-71,-7,14
1522653481792595,-62,-15,-18,34,-28,-14,-9,-1
1522653481793598,-12,8,10,-5,96,-81,-84,-2
1522653481793598,31,-4,8,39,24,16,10,0
1522653481815656,-4,7,3,14,39,-3,8,-14
1522653481815656,56,-3,-29,-25,-60,-128,9,28
1522653481817662,-41,-3,12,-4,6,94,54,-11
1522653481817662,-15,5,7,39,-11,-7,-22,-10
1522653481829693,14,-14,-12,-30,-47,-40,-11,10
1522653481829693,-27,0,5,36,90,62,-15,-17
1522653481837715,30,7,10,47,-13,114,25,9
1522653481837715,30,-1,-4,-32,1,12,19,6
1522653481852755,-52,-5,-5,-4,-59,-17,-14,-20
1522653481852755,-4,6,-4,-20,-22,34,1,1
1522653481853758,-27,-17,-17,-29,26,-41,-10,-16
1522653481853758,-29,1,11,9,-1,21,-5,-14
1522653481875816,28,-6,-11,-50,-19,22,-2,8
1522653481875816,27,5,10,15,-8,-103,-5,5
1522653481876819,21,-8,-24,-35,-39,-35,-12,8
1522653481876819,-13,-7,-3,13,80,23,0,-6
1522653481898877,-21,-8,-11,-5,-54,-35,-14,-2
1522653481898877,3,-4,-2,-22,-24,38,28,14
1522653481898877,22,-4,-11,21,40,110,13,-1
1522653481898877,-65,-1,-7,-31,-78,-83,46,1
1522653481912914,9,7,20,51,60,4,10,7
1522653481912914,40,2,-19,-17,42,17,-1,11
1522653481913918,-30,2,25,17,-30,-28,-17,4
1522653481913918,36,-2,-12,-5,61,116,-32,9
1522653481935976,-1,9,6,-19,-28,-16,46,9
1522653481935976,-43,-8,-7,9,-7,-27,17,-26
1522653481936979,17,3,14,21,-43,-77,-2,11
1522653481936979,21,1,10,-3,16,25,-41,14
1522653481958035,40,6,-1,-1,40,115,26,8
1522653481958035,-21,-6,-6,-24,-29,-28,28,4
1522653481959037,-73,-2,-9,-21,-32,-12,18,-11
1522653481959037,45,5,8,67,32,59,30,11
1522653481973075,-14,-6,-12,-1,-58,56,23,-10
1522653481973075,32,7,6,-42,33,-75,4,14
1522653481973075,30,-1,-8,-41,-94,95,-7,-4
1522653481973075,-45,-9,-8,-3,43,-72,15,-30
1522653481996136,16,-2,-1,-18,-4,-1,-8,1
1522653481996136,-23,-3,-6,-13,-8,37,-14,-9
1522653481997139,74,0,-5,13,23,0,31,15
1522653481997139,-9,-1,-7,-10,-70,-57,1,4
1522653482018195,-71,-6,9,29,30,39,-37,-52
1522653482018195,-56,-5,0,-8,59,-34,-69,-13
1522653482019197,40,-8,-23,-42,35,-32,-12,21
1522653482019197,-1,10,27,25,-7,-61,-34,-9
1522653482033235,-37,-4,-2,21,-42,29,1,7
1522653482033235,77,3,-6,-6,32,11,9,11
1522653482033235,-51,-2,-12,-17,-10,-82,-19,-34
1522653482033235,17,6,17,-2,30,-14,-1,32
1522653482056296,9,1,2,-16,25,-45,-17,-29
1522653482056296,16,-15,-14,-3,-43,9,3,5
1522653482056296,17,7,12,9,36,-55,-6,13
1522653482056296,-18,-5,-4,33,-12,40,29,0
1522653482078355,61,16,26,23,-10,-40,39,40
1522653482078355,3,-1,-9,2,-22,11,-1,2
1522653482079357,-18,-6,6,48,35,39,-9,-30
1522653482079357,-35,-7,-12,7,-23,78,-1,-3
1522653482092392,20,-2,-10,-25,-44,-94,30,13
1522653482092392,60,11,4,-21,-53,22,7,4
1522653482093395,-40,0,24,47,74,44,29,14
1522653482093395,-33,-4,-9,-34,-27,-8,-16,-24
1522653482115453,28,4,15,60,-25,-20,-12,-13
1522653482115453,3,4,6,-7,-86,7,51,2
1522653482116456,18,-3,-17,-21,41,75,26,8
1522653482116456,-16,-5,7,-31,-81,-41,-2,-20
1522653482138515,-27,-3,-6,-16,107,-41,-42,-22
1522653482138515,32,8,18,-13,-29,-33,-50,34
1522653482139517,24,17,26,0,-14,17,13,8
1522653482139517,-23,-9,-8,-61,15,72,33,-1
1522653482152552,15,1,21,60,-35,-35,-14,6
1522653482152552,-55,-4,-8,17,58,70,-13,-27
1522653482153555,21,1,3,-17,-35,-58,-24,21
1522653482153555,-17,-17,-40,-22,-30,6,-36,-18
1522653482175613,-1,5,21,17,32,-35,4,15
1522653482175613,5,7,14,-35,8,34,25,-20
1522653482176616,-31,-4,15,-2,22,-7,-11,-36
1522653482176616,6,2,2,54,-9,-78,-9,14
1522653482198675,-17,-9,-28,-35,3,56,-16,22
1522653482198675,9,7,9,47,21,-1,8,17
1522653482199677,-10,-6,-24,-46,11,26,13,-17
1522653482199677,14,9,9,26,43,-23,-19,-11
1522653482212712,6,0,-5,6,5,37,-9,11
1522653482212712,23,-12,-13,-11,1,2,-3,19
1522653482213715,-49,-4,-17,-29,-55,12,23,6
1522653482213715,-5,6,29,60,53,36,9,-27
1522653482235773,24,-3,-17,-71,2,86,1,-9
1522653482235773,-32,-12,-22,-27,1,-59,-25,16
1522653482236776,-14,-6,1,7,-30,20,-3,-27
1522653482236776,27,0,-6,15,82,-14,-3,10
1522653482258835,-18,-1,-7,-9,-29,-24,-8,-20
1522653482258835,-1,-1,-3,3,-12,28,15,-1
1522653482258835,9,2,10,10,-29,-25,-19,9
1522653482258835,7,-2,-24,-17,-2,46,18,18
1522653482272872,5,3,9,10,-10,-15,7,10
1522653482272872,-4,0,-2,7,13,-24,15,-26
1522653482273875,19,2,-11,-11,-34,11,-22,0
1522653482273875,-18,-3,0,-26,-39,-36,5,-12
1522653482296936,4,-10,-13,-10,29,81,1,31
1522653482296936,16,10,8,12,-37,-18,11,-38
1522653482296936,-23,-3,-1,29,82,13,18,42
1522653482296936,31,-2,-5,27,-20,-19,25,9
1522653482317992,-25,-6,0,-2,-82,-46,-39,-12
1522653482317992,-3,-9,-39,-50,13,-6,25,7
1522653482319997,7,9,11,20,2,76,41,-18
1522653482319997,38,5,-1,-13,-17,-5,3,22
1522653482332029,7,1,18,87,88,68,-10,2
1522653482332029,-5,3,3,27,-73,-33,-8,5
1522653482341054,-14,-16,-10,-8,3,-61,-35,-24
1522653482341054,-41,1,-4,-46,-36,43,1,0
1522653482356093,20,1,3,-26,7,-17,-25,-35
1522653482356093,0,9,20,44,-32,-7,-14,9
1522653482357096,53,-3,-9,-23,-19,-29,-7,1
1522653482357096,-69,-9,-9,-32,-27,-18,-9,-11
1522653482378152,-9,-4,-13,-24,37,2,6,-11
1522653482378152,56,5,0,-32,4,15,-19,36
1522653482380157,-25,7,1,16,21,-28,22,-8
1522653482380157,32,-15,-40,-66,-91,-74,-27,-21
1522653482392189,-75,10,20,42,38,-70,51,10
1522653482392189,-22,-11,-2,-18,-7,5,1,-2
1522653482401214,94,7,3,-5,-28,-22,39,20
1522653482401214,-48,-2,-12,-29,40,-15,35,-2
1522653482416253,3,3,-2,-17,-34,21,10,-1
1522653482416253,42,3,16,14,-5,29,19,19
1522653482417256,-36,-9,-12,-13,-11,-51,-31,1
1522653482417256,5,1,21,40,82,53,-25,3
1522653482438312,-34,0,3,7,-47,-62,-42,-10
1522653482438312,-67,1,-7,-30,-84,-31,-30,-21
1522653482440317,54,11,14,24,79,-82,-6,18
1522653482440317,27,-4,6,40,-62,-29,23,-10
1522653482452349,33,-12,-7,-4,39,-14,5,3
1522653482452349,-19,-12,-21,-16,-18,23,3,-13
1522653482461373,-22,3,-1,-26,-51,18,-27,-1
1522653482461373,2,10,22,37,121,-68,-3,28
1522653482476413,17,-9,-19,-47,-52,33,56,-2
1522653482476413,-2,-7,-7,17,-9,29,7,-21
1522653482477417,-30,-3,-4,11,52,45,-35,-7
1522653482477417,5,9,8,-27,-77,60,-6,-7
1522653482498472,70,6,7,25,-6,-75,-14,20
1522653482498472,-11,-6,-14,-37,53,92,13,1
1522653482500477,-66,-8,-3,-27,-41,15,-2,-31
1522653482500477,39,16,29,56,-6,-74,4,13
1522653482512509,19,-11,-29,-34,24,19,-82,1
1522653482512509,-61,-1,-4,7,15,-110,-48,-18
1522653482521533,-12,-7,18,52,-3,17,25,7
1522653482521533,-4,-5,-16,-14,-10,25,-18,-20
1522653482535570,21,3,-2,-23,-36,9,8,-1
1522653482535570,3,9,18,48,77,-1,11,13
1522653482537576,15,-4,-8,-11,-14,59,8,4
1522653482537576,5,-7,-17,-9,-18,-25,-7,-3
1522653482558632,-26,5,1,-8,-13,-7,43,-11
1522653482558632,11,0,6,-2,4,-84,-28,-2
1522653482559635,2,0,-1,4,25,33,33,13
1522653482559635,-3,-2,6,15,0,63,6,-4
1522653482571666,-24,-2,1,9,-4,35,11,-9
1522653482571666,12,1,5,11,-12,-41,19,18
1522653482580691,-49,-4,-4,-29,-70,0,-53,-22
1522653482580691,59,5,-12,-15,103,39,6,14
1522653482595731,-75,-18,-17,-5,-2,-89,-11,-31
1522653482595731,24,7,18,25,-44,-9,26,17
1522653482601746,27,-5,-28,-20,2,47,-12,6
1522653482601746,-17,6,21,18,-70,-30,-3,-11
1522653482618792,-8,-3,-9,-9,62,-8,-3,-3
1522653482618792,28,-7,-11,-29,53,64,-16,-4
1522653482619794,-7,-7,1,46,12,-6,1,1
1522653482619794,8,5,-3,-16,-65,-87,-20,-3
1522653482631826,-28,0,6,39,21,-7,17,16
1522653482631826,16,4,10,-8,-17,44,-1,-1
1522653482640851,-16,-3,1,19,31,78,11,1
1522653482640851,20,-6,-10,1,20,-84,-9,-4
1522653482654888,27,1,7,23,-52,44,-33,4
1522653482654888,-41,0,-2,3,20,-17,34,-18
1522653482663912,28,2,-6,-7,-22,-65,10,6
1522653482663912,13,1,18,24,17,87,29,18
1522653482677949,-27,4,12,-17,-36,43,13,-11
1522653482677949,4,-3,-8,-8,1,-49,-9,-9
1522653482679955,-16,-2,-14,-13,-13,-1,11,-9
1522653482679955,26,4,33,77,63,-6,-8,19
1522653482691986,-7,2,0,-34,-35,-30,10,-1
1522653482691986,7,-4,-15,-17,17,60,8,28
1522653482701011,-27,-2,4,17,3,-33,-6,-61
1522653482701011,-6,-8,-16,-45,-43,45,-20,28
1522653482715048,50,4,-1,-6,10,-5,-3,22
1522653482715048,-93,-2,4,-1,-5,59,-8,-40
1522653482724072,44,-1,-4,-24,-21,-72,-4,-10
1522653482724072,-49,-5,-8,17,-25,-35,-31,-15
1522653482738109,25,-2,-3,-22,45,41,11,-8
1522653482738109,-5,-3,-6,27,28,-89,-24,34
1522653482740115,-14,-4,-5,-34,-32,82,18,-20
1522653482740115,-7,-5,9,2,39,-62,-10,1
1522653482752146,16,4,10,-24,-38,40,1,-6
1522653482752146,29,-3,1,39,2,-47,-11,15
1522653482761171,-7,4,-4,-25,18,16,2,2
1522653482761171,-30,-8,-22,-27,-38,124,5,-9
1522653482774205,-3,-1,13,20,7,-128,-36,3
1522653482774205,14,-3,-11,-47,16,116,9,-23
1522653482783229,19,7,26,45,-6,-55,-11,33
1522653482783229,4,0,-10,-3,17,52,5,-6
1522653482798269,1,-11,-18,10,-27,-32,-28,-8
1522653482798269,2,3,-11,-6,22,-14,7,-21
1522653482800275,-6,2,-2,1,45,8,-13,14
1522653482800275,8,-3,-21,-24,-21,67,15,-13
1522653482821331,-15,7,18,34,-20,25,14,1
1522653482821331,-5,-5,-10,22,54,19,-6,8
1522653482822333,49,10,19,15,-5,-32,-14,14
1522653482822333,-36,-1,-10,-21,-2,-70,6,-5
1522653482834365,13,-3,-10,12,24,67,14,-2
1522653482834365,41,7,16,-11,-37,6,18,25
1522653482843389,-46,-5,-19,-12,-9,26,-29,-14
1522653482843389,6,-2,15,19,16,-100,21,6
1522653482858429,4,2,10,30,3,67,6,-1
1522653482858429,-27,-3,-3,-39,41,-18,5,2
1522653482860435,58,7,15,25,-27,-18,10,4
1522653482860435,-14,0,-6,4,5,20,3,-7
1522653482880488,-18,-4,-18,-35,-27,19,11,-3
1522653482880488,7,-6,4,28,-44,5,-59,-5
1522653482882493,14,6,10,-8,60,60,32,4
1522653482882493,-17,-2,-11,-28,6,51,14,21
1522653482894525,-35,-2,3,22,8,50,26,-41
1522653482894525,42,8,-9,-32,-10,-37,-10,28
1522653482904052,-19,-7,1,4,-5,-21,43,-8
1522653482904052,-15,-2,5,13,61,20,-17,3
1522653482918091,26,3,-4,-10,9,-23,-23,15
1522653482918091,-17,-1,12,19,-17,3,17,-17
1522653482920096,-18,-7,-1,-5,-18,-6,0,3
1522653482920096,-7,-5,-3,9,36,48,1,-15
1522653482941152,24,1,-8,9,-7,-57,16,21
1522653482941152,-38,-2,-2,-16,-33,-101,1,-24
1522653482942155,12,-2,-3,7,-9,44,-8,10
1522653482942155,21,2,-7,6,-45,41,-16,-3
1522653482954187,-19,10,17,11,18,41,21,5
1522653482954187,5,-7,-9,-8,12,-26,12,7
1522653482963210,-6,8,12,-24,-13,2,-10,0
1522653482963210,-12,0,-9,-6,-57,-29,4,-7
1522653482978251,7,-2,12,46,-8,12,-31,10
1522653482978251,58,1,-11,-16,77,127,-14,10
1522653482980256,-32,-5,-1,3,-34,-105,60,11
1522653482980256,-33,-1,6,10,-2,27,-36,-20
1522653483001312,-23,-8,-17,-23,7,-88,38,3
1522653483001312,0,4,9,9,-28,122,23,9
1522653483002315,-16,-16,-17,-28,-45,-105,-88,-28
1522653483002315,16,3,-11,-16,44,-30,-11,-1
1522653483014347,27,-6,-12,-41,-33,-22,1,12
1522653483014347,-24,0,9,22,5,6,9,-8
1522653483023371,9,3,-5,7,10,27,-22,9
1522653483023371,-1,-4,15,10,-5,-121,1,-11
1522653483038411,-8,3,-2,2,14,-33,-40,-7
1522653483038411,-2,3,11,12,-17,72,9,-8
1522653483040416,-42,-1,-1,19,66,-34,7,-12
1522653483040416,-13,-5,8,0,-35,1,-41,-15
1522653483060469,30,5,8,22,34,5,43,24
1522653483060469,-7,-4,-11,-32,8,19,61,-4
1522653483062475,19,-6,-2,5,-11,-10,53,19
1522653483062475,-17,-4,-2,-15,-16,24,14,-11
1522653483074507,-7,-4,-5,-12,-44,-128,-59,-6
1522653483074507,5,4,2,5,12,18,-5,0
1522653483083531,2,-7,-14,-13,82,110,-64,-11
1522653483083531,39,8,-3,-29,-71,-53,24,8
1522653483098571,-20,0,3,11,82,39,7,-12
1522653483098571,-6,0,25,29,8,-15,-1,16
1522653483099573,-10,-5,-10,11,-16,-22,-33,-4
1522653483099573,50,12,16,11,24,0,-14,4
1522653483120629,-18,2,-6,-22,-15,-50,-8,-20
1522653483120629,-11,-1,4,-18,-90,-64,-33,6
1522653483122635,4,-5,-16,-2,14,-101,16,11
1522653483122635,42,6,2,-36,-65,102,12,6
1522653483134667,-21,-4,7,28,20,127,34,1
1522653483134667,-4,-1,-6,-28,2,-94,-57,-14
1522653483143691,-12,0,6,20,-46,-12,24,-4
1522653483143691,8,1,4,24,12,-3,4,-10
1522653483158730,3,5,4,-24,6,-67,-22,14
1522653483158730,4,-8,-6,-7,9,126,15,-11
1522653483159734,35,12,17,18,-18,-49,5,8
1522653483159734,-6,-12,-28,-12,85,33,-38,-12
1522653483180789,26,7,1,1,-52,27,32,20
1522653483180789,-57,0,9,-4,15,37,-15,-3
1522653483182794,28,1,4,-11,-19,69,-4,-10
1522653483182794,-54,-6,3,32,-14,-79,10,-1
1522653483194828,43,-10,-13,-37,75,65,-15,0
1522653483194828,59,2,-6,1,-41,4,9,27
1522653483203851,-82,-2,-2,-27,-21,20,-12,-47
1522653483203851,10,3,-2,5,-24,1,10,0
1522653483218890,-20,0,6,6,-78,-43,-25,-4
1522653483218890,15,-8,-20,-7,32,1,79,-6
1522653483219893,40,8,10,4,38,18,0,27
1522653483219893,-36,-6,-8,-38,-20,58,6,-25
1522653483240949,-8,0,-11,-28,-6,-35,21,5
1522653483240949,4,-6,0,-4,5,-21,-27,-28
1522653483242955,56,2,-3,-14,-31,38,2,29
1522653483242955,-41,-2,-8,9,58,105,47,11
1522653483254986,9,6,10,30,-9,-70,11,-7
1522653483254986,6,4,-1,-13,41,51,19,27
1522653483270026,-57,-17,-25,-25,-11,37,-8,-21
1522653483270026,67,13,16,-12,-30,-86,6,13
1522653483278048,-28,-2,6,10,-9,127,-2,-1
1522653483278048,24,-1,-16,7,-18,-126,-37,-25
1522653483280053,8,-1,-13,-1,0,11,0,42
1522653483280053,-32,-10,-2,27,-30,-37,-22,-7
1522653483301109,16,4,6,-29,36,54,2,10
1522653483301109,-60,-11,-18,-53,-80,-103,-41,-14
1522653483302112,51,-8,-33,16,68,109,-28,-9
1522653483302112,-14,1,13,11,-2,-101,-27,-10
1522653483314145,-18,-3,-18,-15,-8,75,-6,-24
1522653483314145,-32,7,31,75,1,-73,-58,-25
1522653483323168,-13,0,16,-15,-24,46,15,23
1522653483323168,67,2,13,-16,-8,-63,24,29
1522653483338208,-14,-8,-24,6,-4,40,-18,-20
1522653483338208,-21,7,4,2,48,56,1,14
1522653483340213,28,-1,3,-36,-3,38,39,-16
1522653483340213,-38,-4,-7,41,46,26,-6,-12
1522653483361269,11,8,23,19,-6,58,23,12
1522653483361269,10,-10,-6,20,-58,-70,45,5
1522653483362272,-24,0,0,24,60,15,15,-21
1522653483362272,18,6,8,-9,-55,-34,71,29
1522653483374304,18,-10,-37,-7,-25,33,-41,-10
1522653483374304,18,9,22,10,14,9,8,20
1522653483383328,-40,2,19,32,26,-1,-26,-32
1522653483383328,5,-6,-16,5,17,-30,-43,-12
1522653483398368,-7,-1,18,48,15,-68,-31,-18
1522653483398368,23,-8,-31,-70,14,63,-6,17
1522653483400373,24,12,25,43,29,-128,-1,0
1522653483400373,14,4,9,7,-16,70,-8,16
1522653483421429,-112,-8,6,25,-9,-55,20,-25
1522653483421429,65,6,-3,10,86,73,18,8
1522653483422432,-3,-7,-12,-38,-128,-128,-21,-17
1522653483422432,-4,-2,0,34,53,-75,7,0
1522653483434465,8,13,24,15,22,-75,21,30
1522653483434465,9,1,20,62,-51,-22,-12,-2
1522653483443488,-33,-5,-31,-40,36,110,21,1
1522653483443488,1,-13,-26,-36,-54,35,34,-10
1522653483458528,34,4,21,25,-31,-106,-25,-7
1522653483458528,-9,-3,-3,-22,-11,-5,-20,3
1522653483459531,14,1,8,-16,-79,10,-35,5
1522653483459531,-39,-4,-20,0,45,-48,-9,-17
1522653483480586,-45,-13,-11,-14,9,13,-18,-10
1522653483480586,-41,2,2,16,26,48,5,-17
1522653483482592,35,11,9,-1,-31,-12,15,19
1522653483482592,-43,-3,12,-19,-71,-22,30,-14
1522653483494624,59,-5,-10,4,75,-14,39,27
1522653483494624,-22,-13,-29,-56,-66,-92,-21,-22
1522653483503648,32,-1,2,21,74,2,-43,13
1522653483503648,-7,12,20,33,15,-26,-28,3
1522653483518688,-74,-8,4,-10,17,35,-26,-19
1522653483518688,-10,-8,-5,-27,-15,-53,13,-5
1522653483519691,38,-6,-14,-20,28,-100,69,21
1522653483519691,19,5,1,1,11,-39,-15,-3
1522653483540746,-26,-6,-3,-12,-26,-38,24,-8
1522653483540746,27,-5,-18,-14,-3,49,-50,7
1522653483542752,-40,-4,0,-20,-35,-117,17,-13
1522653483542752,58,5,10,29,-9,48,2,9
1522653483554785,23,-1,-20,-18,5,72,-10,16
1522653483554785,-23,5,15,23,16,48,42,3
1522653483563808,-25,11,22,33,38,58,-9,1
1522653483563808,16,-6,-9,-25,-62,101,12,-3
1522653483578848,12,1,-4,-41,43,-2,-57,2
1522653483578848,16,1,-2,-1,-72,59,47,2
1522653483579851,-12,-4,0,-23,64,-53,47,11
1522653483579851,-42,-1,-5,4,30,74,31,-8
1522653483600906,25,0,9,3,-45,19,37,-4
1522653483600906,74,10,3,22,54,-93,-26,23
1522653483602912,4,8,16,49,-43,16,20,22
1522653483602912,-33,-4,6,3,14,12,-33,-47
1522653483614944,-36,-8,-22,-29,-24,-65,-17,14
1522653483614944,67,9,10,39,12,43,20,7
1522653483623968,-25,-7,-10,18,-16,-59,-55,-24
1522653483623968,66,-2,-11,-27,-19,50,-70,22
1522653483638005,-20,9,4,24,65,-99,82,17
1522653483638005,-29,2,3,11,50,64,53,-8
1522653483640011,4,-9,0,-3,-38,37,31,8
1522653483640011,-10,0,-9,-26,-65,-48,-41,-5
1522653483661067,45,7,-3,-21,-6,45,41,22
1522653483661067,-48,-8,-3,-5,-24,-37,-39,-2
1522653483662069,-4,1,11,18,23,62,10,-16
1522653483662069,-12,7,6,22,16,27,20,1
1522653483674101,25,2,8,5,43,82,3,-14
1522653483674101,19,5,18,14,-85,-92,16,-3
1522653483683125,-43,-5,-20,-13,72,90,-18,-28
1522653483683125,41,2,1,8,-15,22,25,13
1522653483698165,-28,-5,-7,26,23,-54,-70,-20
1522653483698165,-26,-6,-3,22,-3,17,16,19
1522653483704181,-7,-6,3,-17,-14,-10,6,-8
1522653483704181,3,-1,-22,-5,24,-9,9,-11
1522653483721226,-32,4,5,-4,-32,88,6,-12
1522653483721226,13,2,13,-20,26,-15,44,19
1522653483722229,30,2,0,31,-45,-66,-4,-15
1522653483722229,-42,-5,1,-25,24,-72,-35,24
1522653483743285,22,9,16,-25,-19,-20,-3,-10
1522653483743285,-27,-4,-7,-44,9,-64,-47,-37
1522653483745291,-1,-4,-7,52,74,-44,-34,-7
1522653483745291,43,6,0,-68,-21,66,74,51
1522653483757322,-3,-11,-15,-37,-93,-23,-32,-9
1522653483757322,-28,-3,-7,8,28,26,-2,-7
1522653483764341,6,-3,-13,-52,-84,-49,-19,-6
1522653483764341,-8,-5,5,39,58,-24,5,-23
1522653483781386,-19,2,0,-8,-11,45,8,33
1522653483781386,15,-11,-15,-31,-44,36,-23,-14
1522653483782389,28,0,-1,-8,-4,-7,-4,25
1522653483782389,-49,1,0,12,11,-51,-19,-69
1522653483803445,48,3,-9,-30,-41,64,-27,22
1522653483803445,-29,-12,-9,28,45,11,-2,-25
1522653483805451,-2,-2,-9,-24,-43,-72,-9,1
1522653483805451,-2,0,9,46,54,30,-2,39
1522653483817482,-15,0,-10,-24,-29,-119,-56,-37
1522653483817482,-5,9,25,7,25,15,-17,-10
1522653483824501,11,-4,-17,-19,-18,71,5,15
1522653483824501,-9,3,10,22,8,-33,-14,-21
1522653483840544,-21,0,4,20,-9,-95,9,12
1522653483840544,2,-12,-27,-14,30,5,-22,13
1522653483842549,49,-3,-6,1,16,-45,-5,-19
1522653483842549,-67,-5,-2,5,42,29,-21,4
1522653483863605,79,7,6,24,4,60,37,18
1522653483863605,-64,-2,-6,8,-16,64,3,-35
1522653483864608,-43,1,23,24,-20,49,-4,1
1522653483864608,48,-12,-21,-18,-89,-55,-16,-2
1522653483877642,16,6,2,-14,102,66,23,10
1522653483877642,-16,1,9,12,-46,-70,23,-11
1522653483884661,10,7,-1,0,-14,36,12,2
1522653483884661,6,-2,-6,-19,0,60,-16,41
1522653483900704,-4,-3,0,12,8,-60,58,-9
1522653483900704,13,5,9,13,9,-46,-47,4
1522653483902709,-39,-8,-26,12,9,103,47,-23
1522653483902709,6,-1,12,-27,4,44,-7,14
1522653483923765,3,0,9,34,10,-63,-19,-24
1522653483923765,-2,2,-3,-25,-7,8,0,16
1522653483924768,-2,-1,-2,11,-9,-15,-19,-3
1522653483924768,31,-4,-25,-42,25,-109,8,8
1522653483937803,-63,-7,3,37,7,10,13,-12
1522653483937803,61,8,13,-14,-18,-13,34,14
1522653483944821,-2,3,11,4,6,-28,-20,11
1522653483944821,29,12,38,37,18,50,-2,15
1522653483960864,-32,1,6,-2,28,34,-8,-28
1522653483960864,-22,-13,-21,-8,-8,7,3,14
1522653483962869,-1,9,29,4,0,-58,-7,-5
1522653483962869,-1,6,7,20,-6,-44,24,15
1522653483982922,11,2,-3,0,-18,44,8,2
1522653483982922,7,-2,-20,-29,-32,42,-19,1
1522653483984928,7,4,17,-4,-8,-3,72,23
1522653483984928,-16,-3,1,12,-21,-128,-23,-34
1522653483997962,9,-4,-2,-4,-51,-5,1,18
1522653483997962,-5,1,-1,16,73,15,8,-8
1522653484004981,19,3,-4,-4,-12,-45,-11,-5
1522653484004981,-24,-1,3,-13,-72,22,0,-23
1522653484021024,-19,-9,-15,8,54,-38,-22,9
1522653484021024,27,12,16,9,-11,-16,72,30
1522653484023029,-21,-11,-7,14,33,-36,-66,-7
1522653484023029,-29,7,10,15,8,79,77,-14
1522653484043082,47,-3,-8,-17,-7,-60,-43,-14
1522653484043082,-2,-5,19,18,-9,-13,-29,20
1522653484045088,2,2,-2,-19,-9,61,-21,-6
1522653484045088,-23,-3,-8,16,69,22,14,7
1522653484057120,10,-7,-5,-49,-60,40,4,-6
1522653484057120,-45,-1,-8,-26,23,25,15,-25
1522653484066144,29,4,8,8,-22,23,31,19
1522653484066144,-18,-17,-16,-36,18,-101,-104,-19
1522653484081184,17,4,-8,-28,-25,-4,29,19
1522653484081184,-20,0,-1,6,16,-50,-33,-11
1522653484082187,7,-3,-22,-43,-23,78,65,0
1522653484082187,40,7,2,27,5,5,10,4
1522653484103242,-59,-4,1,0,-4,-105,13,-7
1522653484103242,20,0,7,14,-1,62,27,15
1522653484105248,-3,-7,-16,-4,68,102,-9,-47
1522653484105248,33,-5,-12,-34,-50,-43,23,21
1522653484117280,-3,10,17,19,29,13,-12,6
1522653484117280,-28,-1,6,22,-9,4,-36,-25
1522653484126304,-51,-13,-5,29,89,-95,79,27
1522653484126304,52,0,1,35,11,111,-1,-8
1522653484141344,19,-3,-8,-11,-14,-11,-4,-7
1522653484141344,-22,-5,1,-13,-15,22,-46,12
1522653484142347,1,-4,-12,-57,-29,-66,-83,-7
1522653484142347,-28,-5,-11,-14,39,-30,-13,-32
1522653484163402,17,-1,-11,-32,40,114,-1,2
1522653484163402,-36,-5,-11,8,-30,-120,-13,-8
1522653484165408,4,2,21,35,-92,-62,-34,2
1522653484165408,67,0,-7,1,70,80,42,35
1522653484177440,-28,-5,-22,-18,16,23,13,-2
1522653484177440,83,2,-2,15,45,34,12,12
1522653484186464,-66,-2,-3,-37,-72,4,-10,6
1522653484186464,-4,-7,-15,-15,23,28,27,-13
1522653484200501,-38,5,24,38,-38,-47,-22,-30
1522653484200501,52,-1,-9,-21,13,-35,19,23
1522653484202506,-18,6,17,53,-43,-65,-11,-6
1522653484202506,-8,0,-22,-89,-37,-51,-36,6
1522653484223562,27,4,32,76,40,-37,5,33
1522653484223562,-39,2,3,11,-15,-11,-16,-18
1522653484225568,102,6,5,37,-14,-27,8,-2
1522653484225568,-43,-12,-22,-41,44,31,-34,-2
1522653484236597,5,-3,-9,11,-29,-34,-45,11
1522653484236597,-17,10,16,14,-59,-21,-5,-53
1522653484245621,32,0,0,23,58,49,-8,65
1522653484245621,25,13,40,51,-28,-43,-26,-15
1522653484260661,-20,-2,-11,0,-24,47,2,0
1522653484260661,-16,-15,-21,-33,55,20,38,11
1522653484262666,-20,2,5,-8,-29,20,-23,-39
1522653484262666,-17,4,23,28,-19,64,31,12
1522653484283722,16,4,2,-21,0,35,-4,-25
1522653484283722,-9,-11,-14,-56,-102,-68,-7,-4
1522653484284725,-18,-3,-2,-56,-11,57,15,1
1522653484284725,-14,-4,-3,54,68,31,-25,-22
1522653484296757,32,1,1,-27,-63,-46,1,7
1522653484296757,3,-5,-12,-22,18,70,16,10
1522653484305781,-17,-10,-19,-17,18,1,-2,10
1522653484305781,-37,3,17,-6,-79,3,13,0
1522653484320821,7,4,8,14,38,54,-18,2
1522653484320821,56,1,-12,-21,19,-2,0,9
1522653484322826,-24,8,7,-13,13,42,10,-14
1522653484322826,0,-6,-2,24,-3,-47,3,-4
1522653484343882,69,-1,-13,-21,0,53,38,53
1522653484343882,-29,12,24,34,1,1,-35,-37
1522653484344885,-25,-3,-4,-2,-26,-10,-14,8
1522653484344885,-15,0,-11,-4,15,-53,10,-17
1522653484356917,-4,-3,-10,-9,-46,-49,-3,7
1522653484356917,32,-5,-1,21,52,-37,-8,19
1522653484365941,29,4,0,3,23,8,-28,-21
1522653484365941,-40,-7,-29,-50,-61,-80,-10,-4
1522653484380981,-5,1,10,40,60,54,11,-3
1522653484380981,-14,0,-1,-2,-49,62,29,-19
1522653484382986,-12,-6,-31,-2,22,-13,-16,36
1522653484382986,32,8,42,31,24,-60,-26,-1
1522653484403039,-68,3,2,4,-14,-25,-9,-24
1522653484403039,3,-13,-19,-6,10,5,-5,-14
1522653484405045,70,3,-17,-19,-64,45,18,35
1522653484405045,-48,1,8,37,3,-69,-14,-12
1522653484417077,-3,-7,-4,-19,-21,22,11,10
1522653484417077,11,2,5,34,24,46,-13,13
1522653484426101,-44,-9,-2,-11,-17,-115,14,-25
1522653484426101,-13,-1,-11,-32,17,50,4,13
1522653484441141,10,-13,-12,-31,-5,-71,-38,-55
1522653484441141,-8,2,-2,-2,-20,-32,14,35
1522653484442144,40,4,20,34,18,32,-39,-40
1522653484442144,-49,-2,-8,-5,23,127,44,17
1522653484463199,20,2,4,-2,12,-57,18,-20
1522653484463199,-3,-3,-14,-10,6,18,61,17
1522653484465205,-24,0,11,8,29,1,32,-7
1522653484465205,42,0,-7,0,-47,13,-27,-18
1522653484477237,-16,-2,-5,-15,29,69,-16,22
1522653484477237,18,5,2,-9,-51,-61,-52,-21
1522653484486261,-30,1,10,17,77,10,0,-5
1522653484486261,-6,-3,-8,-6,-11,72,24,10
1522653484501301,52,7,5,-7,-29,-81,16,16
1522653484501301,-17,-4,7,8,-16,93,-20,-20
1522653484502304,18,-2,-1,-2,14,8,18,9
1522653484502304,-1,7,-1,-7,3,-3,-2,17
1522653484523360,-43,-14,-1,23,9,72,4,-19
1522653484523360,-1,0,1,24,27,-12,-2,-3
1522653484525365,32,2,2,-4,-30,17,22,10
1522653484525365,34,5,0,11,-25,-58,-2,-1
1522653484537397,-32,-8,-30,-72,-1,1,34,16
1522653484537397,11,2,7,34,36,-77,4,-11
1522653484546421,-36,2,8,5,-33,-42,4,6
1522653484546421,39,2,-2,-5,-7,15,-10,-11
1522653484560458,14,5,8,-17,-21,-26,-67,12
1522653484560458,-54,-5,-5,-15,8,69,32,-1
1522653484562464,9,-8,-15,-19,-16,36,15,-5
1522653484562464,30,9,16,-4,19,6,21,8
1522653484583519,-44,-5,-15,-6,-25,-123,-36,-13
1522653484583519,53,-2,-7,-22,24,-2,-10,3
1522653484585525,-2,-8,-6,-6,31,-5,-25,-6
1522653484585525,-41,-8,-12,1,-54,-62,6,3
1522653484597557,6,7,15,6,38,5,70,27
1522653484597557,-59,2,11,33,24,16,-11,-25
1522653484605578,58,1,6,18,-6,15,11,-12
1522653484605578,-28,-1,-3,9,15,30,-39,-7
1522653484620619,44,-1,1,-3,-17,47,25,3
1522653484620619,6,-6,-13,-38,-35,-121,-35,24
1522653484622624,-7,11,9,-30,51,28,-19,-17
1522653484622624,-24,-7,25,47,-6,31,-52,1
1522653484643680,36,9,4,22,39,-12,-4,-1
1522653484643680,-104,-3,-2,-21,1,23,-7,-40
1522653484644682,-12,-8,-2,40,-12,-30,23,17
1522653484644682,24,10,9,-10,14,-22,18,-18
1522653484656714,33,-5,-3,-5,-56,13,-32,-2
1522653484656714,61,10,5,-1,23,1,9,34
1522653484665738,-9,-5,-5,32,-15,-49,-1,-13
1522653484665738,-6,-4,-2,-35,28,14,13,19
1522653484680779,-67,-6,7,23,-6,8,14,-22
1522653484680779,6,3,5,27,-4,-1,21,-13
1522653484686794,2,-3,-10,-17,-36,-10,14,-8
1522653484686794,-57,-5,-13,-9,-12,-63,3,0
1522653484703840,6,3,-3,2,54,54,-6,13
1522653484703840,72,0,5,-14,-13,-67,-18,13
1522653484704843,2,-2,-9,-23,-36,16,-18,-3
1522653484704843,-3,5,8,16,12,-26,-29,-8
1522653484725898,-37,-4,-12,-4,-54,8,-27,-25
1522653484725898,-18,3,15,2,12,-55,17,16
1522653484727904,10,4,0,13,41,83,27,-4
1522653484727904,16,-5,-20,-31,-23,13,5,3
1522653484739935,-57,1,34,21,-10,-4,6,-18
1522653484739935,70,5,-3,4,-40,-1,6,28
1522653484746954,-19,4,12,32,67,-57,-15,-2
1522653484746954,53,-2,1,-15,-10,77,11,7
1522653484762997,-14,-2,-2,0,29,40,17,7
1522653484762997,-37,-10,-14,28,-14,26,-3,-26
1522653484765003,13,2,7,-24,-51,-51,-37,-6
1522653484765003,22,-5,-15,8,18,-32,-17,-6
1522653484786058,-65,-8,-3,-9,5,-28,-9,2
1522653484786058,33,-2,0,34,32,36,2,-17
1522653484788064,-28,-2,1,-28,-39,27,-17,-13
1522653484788064,3,-3,7,11,-22,-6,29,5
1522653484800095,54,3,-10,3,9,-30,-18,-1
1522653484800095,-31,-2,-9,2,-11,-34,5,6
1522653484807114,-9,-10,-11,-11,-11,116,6,-12
1522653484807114,9,8,-1,-1,39,55,15,-7
1522653484823157,54,7,12,-14,-31,-12,32,36
1522653484823157,-68,-14,-9,-13,-7,-34,-24,-55
1522653484825163,22,4,-3,-3,-13,-1,1,59
1522653484825163,-36,-12,-9,-37,-52,28,-11,-42
1522653484846218,40,2,0,56,106,3,28,37
1522653484846218,5,-1,-10,-44,-33,35,9,-1
1522653484847221,24,4,14,19,30,-30,-6,-17
1522653484847221,-13,4,3,-12,-41,-5,0,36
1522653484860255,-6,-4,2,-17,-40,-92,-8,-16
1522653484860255,-17,-6,-22,-2,45,19,-1,10
1522653484867274,8,1,16,-4,2,52,1,-9
1522653484867274,-4,0,-8,6,19,-57,-29,-30
1522653484883317,-3,-5,-10,-13,-31,24,-19,-14
1522653484883317,-24,3,19,18,-2,0,-15,31
1522653484885322,-13,-12,-22,-13,0,-35,-8,-31
1522653484885322,5,3,4,-10,-18,-16,0,14
1522653484906378,2,-10,-8,4,42,-16,-50,-15
1522653484906378,42,0,-2,-25,-25,-18,9,26
1522653484907381,-49,-3,-11,-2,-6,61,-24,-11
1522653484907381,13,3,8,22,42,-49,4,-2
1522653484920416,-35,2,-1,-7,-11,-15,7,1
1522653484920416,-4,-5,0,9,4,-12,11,-15
1522653484927434,29,12,9,26,25,-66,-18,18
1522653484927434,10,-4,9,26,25,15,5,6
1522653484943477,2,-11,-27,-29,-37,60,9,-31
1522653484943477,9,11,16,61,-30,-16,-1,20
1522653484945482,-38,-6,-4,10,73,-7,21,5
1522653484945482,43,-3,-11,-17,-43,-33,20,6
1522653484965536,-14,4,13,6,17,-11,2,-4
1522653484965536,59,5,5,-22,19,87,12,27
1522653484967541,11,0,-5,3,-11,-56,-1,11
1522653484967541,-50,5,8,15,-27,-3,1,-30
1522653484979573,11,-5,2,-38,-6,-5,21,13
1522653484979573,-30,-8,-15,-12,17,-18,20,-5
1522653484988597,12,1,0,2,10,-16,2,4
1522653484988597,-3,-5,-11,-11,-4,26,15,1
1522653485003637,12,4,-17,-69,-119,-50,-35,-6
1522653485003637,-15,-7,0,13,73,35,-3,-24
1522653485004640,-4,6,2,4,4,-25,7,8
1522653485004640,51,5,5,20,-50,-1,23,5
1522653485025695,-44,-7,-13,-10,62,35,2,3
1522653485025695,40,-2,7,5,-59,-21,-11,11
1522653485027701,-42,-4,-2,3,27,56,-14,-7
1522653485027701,-6,-4,-3,6,15,21,-18,-9
1522653485039733,-12,6,2,-6,-64,-21,2,-11
1522653485039733,45,9,-5,-28,47,8,-28,0
1522653485048757,-23,-6,2,18,-27,-20,3,8
1522653485048757,41,0,-7,0,-16,-84,18,-4
1522653485063797,-11,-1,13,41,60,33,-10,-5
1522653485063797,-61,-10,-19,-27,-15,-20,-60,-19
1522653485064800,22,3,4,-3,-27,-48,-1,1
1522653485064800,25,0,-2,-24,25,87,48,42
1522653485085855,51,2,1,36,16,25,11,-4
1522653485085855,-9,0,6,-20,-91,35,-10,-15
1522653485087861,-33,6,4,18,76,-20,0,10
1522653485087861,-6,-5,-7,-35,-15,14,11,23
1522653485099893,0,-1,1,-3,-21,64,-23,-11
1522653485099893,-28,2,1,34,60,33,-10,-7
1522653485108917,41,4,-1,10,-37,-14,68,9
1522653485108917,20,8,0,-7,-15,-34,10,21
1522653485123958,14,8,8,2,44,-8,-12,-9
1522653485123958,17,-3,22,34,-37,-39,-4,7
1522653485124960,-20,-4,-7,-24,-3,-1,-18,-16
1522653485124960,-24,-3,-6,18,17,-91,-35,-11
1522653485146015,-29,-3,-3,-15,-25,-62,35,13
1522653485146015,-22,-10,-5,9,10,36,-5,-7
1522653485148021,43,4,-4,-42,13,34,18,6
1522653485148021,13,-8,-4,11,-25,-45,-44,-12
1522653485160053,20,2,3,18,68,29,-39,9
1522653485160053,-13,-1,-9,-19,29,3,59,1
1522653485169077,-3,-2,3,1,-89,-71,-18,-15
1522653485169077,-8,-4,2,-7,85,70,-5,9
1522653485183114,-54,-7,3,2,-67,-20,-7,10
1522653485183114,33,10,4,22,11,-98,16,-13
1522653485185120,9,1,0,-6,-5,117,7,-2
1522653485185120,-9,5,-4,-16,9,-25,13,-6
1522653485206175,19,-1,9,43,24,-37,2,-5
1522653485206175,11,-11,-5,10,-2,-36,2,13
1522653485207178,-50,-10,-24,-78,6,43,-16,-20
1522653485207178,-11,-5,6,30,6,-40,-2,-1
1522653485219210,35,13,2,1,-2,85,29,9
1522653485219210,-33,1,0,-40,-11,-72,-20,-2
1522653485228234,18,-2,4,37,-4,73,-9,3
1522653485228234,-13,-5,-5,-8,19,53,-13,-6
1522653485243274,-10,-5,-8,4,6,-19,-10,6
1522653485243274,32,5,-8,-36,-45,14,1,-13
1522653485245280,-69,-16,-5,24,-53,-3,-7,-10
1522653485245280,-11,5,-14,-61,74,32,34,27
1522653485266335,40,3,4,-2,-7,1,-2,-19
1522653485266335,11,-3,-9,-11,-23,-8,-24,-5
1522653485267338,16,6,3,19,57,10,16,6
1522653485267338,-31,-9,8,9,-19,82,-50,-18
1522653485279370,-2,-8,-15,1,-13,-35,14,2
1522653485279370,8,13,27,40,-4,11,0,-10
1522653485288394,21,-7,-7,10,-11,-107,10,-5
1522653485288394,-30,-2,-1,5,-25,-5,-18,6
1522653485303434,-24,-10,-9,-24,7,18,-3,-7
1522653485303434,8,-1,-3,6,-20,-33,2,-9
1522653485305440,21,4,-5,-23,-16,60,-24,10
1522653485305440,9,6,32,49,3,8,37,-5
1522653485325493,10,-1,-7,-3,-47,-53,25,15
1522653485325493,-35,-8,-7,12,34,49,9,-17
1522653485327498,-1,-3,-12,-27,-9,-33,-10,-7
1522653485327498,26,7,5,-2,15,-83,0,18
1522653485339531,-7,8,4,1,11,84,19,-24
1522653485339531,9,2,5,-5,12,36,23,21
1522653485348554,7,-2,11,24,31,-60,-17,10
1522653485348554,4,-4,-18,-36,-61,32,-29,-18
1522653485363594,-25,4,3,19,28,-62,0,-5
1522653485363594,24,1,7,-2,-24,56,-15,-22
1522653485364597,8,16,31,28,17,-34,22,13
1522653485364597,-30,-9,-22,-38,47,11,-7,10
1522653485385653,6,-2,20,31,12,8,-7,-14
1522653485385653,-2,-1,-9,-24,-39,38,13,18
1522653485387658,12,-1,-7,-10,-12,-57,-32,-1
1522653485387658,-41,-2,-9,-29,-17,72,29,-15
1522653485399690,10,4,11,24,-9,-20,-24,1
1522653485399690,49,3,-6,-10,40,-11,9,3
1522653485408714,-63,-5,7,18,15,63,7,-12
1522653485408714,24,-5,-21,6,-56,-37,-1,16
1522653485423754,9,-1,20,17,43,10,-27,0
1522653485423754,-48,-4,0,-7,-8,12,11,-9
1522653485424757,-12,7,-4,1,-48,4,-11,-12
1522653485424757,57,-4,-8,11,66,42,-14,15
1522653485445813,12,-2,-23,-60,-45,6,-15,-3
1522653485445813,-43,2,26,27,49,24,-12,6
1522653485447818,23,1,7,8,-4,9,35,-4
1522653485447818,-31,-6,7,1,9,-18,-48,-33
1522653485459850,10,-2,-10,-12,18,26,-1,11
1522653485459850,43,2,-16,14,-2,33,8,24
1522653485468874,-39,-2,6,-11,59,2,-26,-36
1522653485468874,11,-1,3,9,-79,-4,45,36
1522653485483914,29,0,1,-21,1,9,8,-4
1522653485483914,-30,9,23,12,21,49,-3,-14
1522653485484917,20,1,7,9,-20,-24,-25,-11
1522653485484917,-54,3,-1,5,30,21,32,-23
1522653485505973,27,-12,-19,-25,-11,-46,-6,34
1522653485505973,24,1,-15,-17,17,50,8,24
1522653485507978,2,-1,-2,-22,-52,37,17,-5
1522653485507978,-16,-2,4,2,36,28,-23,-12
1522653485520010,-29,-5,-10,28,15,-26,-3,-19
1522653485520010,-4,-4,-4,-37,-23,-77,-3,4
1522653485529034,7,1,-20,0,18,57,25,12
1522653485529034,62,1,6,7,-30,-21,-42,15
1522653485543071,-84,-16,-12,-14,-20,13,9,-16
1522653485543071,10,0,-7,6,-1,-18,1,-15
1522653485545077,-3,9,7,1,-7,-39,29,44
1522653485545077,-23,-1,-1,-13,-30,29,39,-26
1522653485566133,45,7,8,16,-4,1,-9,5
1522653485566133,-9,-1,-11,-24,-6,-77,-58,-19
1522653485567135,-3,-6,-9,-19,15,-44,9,10
1522653485567135,-8,1,9,7,-18,33,-6,-12
1522653485579167,13,2,4,16,-24,-29,30,34
1522653485579167,-47,-5,0,-5,2,-23,29,-14
1522653485588192,-16,-1,-2,12,29,127,-27,-22
1522653485588192,63,5,10,23,-5,-117,15,24
1522653485603231,43,-5,-9,-28,-24,-12,-12,4
1522653485603231,-12,-1,5,10,-7,58,15,5
1522653485609247,-58,-14,-9,7,6,3,-22,-4
1522653485609247,-17,7,10,-11,-22,-19,52,3
1522653485626293,35,6,3,6,15,-5,4,-10
1522653485626293,-11,-10,-13,-19,-27,-36,-2,15
1522653485627295,-13,-9,8,36,71,16,33,6
1522653485627295,33,11,4,-17,-36,-27,-21,-13
1522653485648351,-21,1,-9,-1,17,2,36,14
1522653485648351,-6,15,23,25,25,43,-24,-6
1522653485650357,-39,-9,-3,-18,-53,-28,-12,-18
1522653485650357,7,-2,-27,-36,-37,89,-7,23
1522653485662389,38,3,28,59,42,-46,0,6
1522653485662389,-32,-4,-8,7,-31,-50,4,-10
1522653485669407,17,9,2,-11,20,-23,11,4
1522653485669407,-52,-12,8,45,-2,32,28,8
1522653485686453,13,4,-12,-21,30,10,-33,-10
1522653485686453,55,-4,-9,-2,-20,-51,-17,20
1522653485687456,37,9,9,9,65,58,-14,-8
1522653485687456,-103,-11,-2,-16,-2,9,35,-15
1522653485708511,-16,-2,7,13,-36,1,16,0
1522653485708511,-6,0,4,-7,30,-8,6,-9
1522653485710517,91,6,-8,11,-64,-4,-18,18
1522653485710517,-46,-6,-5,-1,69,19,-27,-25
1522653485722549,-42,-3,-2,-18,-16,-9,-3,-9
1522653485722549,17,-2,-6,-27,-28,44,20,4
1522653485729567,79,9,-1,-9,-35,-17,-5,-9
1522653485729567,-40,-6,-10,6,42,-40,-26,8
1522653485745610,-13,-3,-7,-24,-4,-61,4,-26
1522653485745610,-2,0,4,18,25,50,11,1
1522653485747616,-1,-2,16,44,4,0,19,26
1522653485747616,-7,4,1,4,-7,-22,-5,-32
1522653485768671,23,-1,-8,-6,-8,44,-34,-5
1522653485768671,-52,-2,-1,-21,-44,-2,-1,1
1522653485769674,3,-4,-12,-22,84,-23,-15,-9
1522653485769674,61,3,1,5,-34,-8,-53,19
1522653485782709,20,3,10,5,-29,7,-5,-30
1522653485782709,-48,-10,-14,22,47,16,-9,-5
1522653485789727,-32,-10,-4,-6,-26,0,-8,-24
1522653485789727,19,0,-7,-1,18,56,7,13
1522653485805770,-3,9,23,0,-8,90,-35,8
1522653485805770,-16,-10,-4,30,-7,-31,-6,-20
1522653485807775,5,0,-12,-31,-17,-22,-20,2
1522653485807775,42,-9,1,20,1,-19,-11,14
1522653485828831,-23,-8,-18,-21,-12,21,-10,-17
1522653485828831,20,-3,1,8,-44,-26,7,21
1522653485829834,-19,4,9,21,57,-33,11,4
1522653485829834,1,2,7,-31,-12,50,-1,-14
1522653485842869,-22,-4,-16,-9,-41,-20,29,9
1522653485842869,5,-1,-2,0,63,-43,3,-2
1522653485849887,57,5,6,14,-43,-72,-4,1
1522653485849887,9,1,-11,-16,-15,-25,-7,3
1522653485865930,-78,-11,-2,17,2,-8,12,3
1522653485865930,15,4,6,10,-21,55,-20,-17
1522653485867935,17,-12,-23,-33,-7,-22,5,12
1522653485867935,-31,5,14,12,45,46,2,-14
1522653485887989,42,6,8,14,21,-7,14,-11
1522653485887989,-22,-8,-15,-17,-4,49,-11,-12
1522653485889994,-1,-7,-21,-44,-23,14,-6,32
1522653485889994,10,2,10,28,7,-44,1,1
1522653485903028,-30,-10,-6,11,0,12,5,13
1522653485903028,37,3,-21,-36,20,-10,32,37
1522653485910048,-51,1,15,11,-13,18,-10,-43
1522653485910048,-6,-2,-9,-45,-46,-111,-18,-2
1522653485926090,54,10,12,12,44,76,-8,-7
1522653485926090,0,6,3,13,-15,-76,21,25
1522653485927093,23,4,4,-8,10,44,7,27
1522653485927093,-34,-9,-10,-2,50,65,13,-28
1522653485948149,-36,1,8,14,10,-25,7,22
1522653485948149,53,2,-1,-11,-21,-11,6,11
1522653485950154,-53,-3,-4,-7,-1,10,-6,-35
1522653485950154,2,2,-2,-1,-14,64,-15,-11
1522653485962186,21,3,-2,-38,-49,-46,3,-7
1522653485962186,-6,2,23,31,59,78,9,4
1522653485971210,10,-3,-4,8,-11,-22,-2,-3
1522653485971210,13,-3,6,19,62,16,4,20
1522653485986250,-12,-5,-12,-1,-69,-70,-43,-11
1522653485986250,7,2,13,40,60,-44,-4,-31
1522653485987253,1,-6,-17,-66,-88,20,-11,15
1522653485987253,28,4,11,11,7,-58,4,7
1522653486008309,-3,2,-6,-7,-39,25,-18,2
1522653486008309,-47,4,20,13,-25,-33,-31,-28
1522653486010314,21,-1,-2,22,25,-31,-43,-23
1522653486010314,59,6,-5,1,-51,-107,-3,23
1522653486022346,-59,-10,-10,-2,-8,-17,-9,-7
1522653486022346,-13,-8,-19,-1,31,2,13,-7
1522653486031370,-30,-6,0,9,-14,3,4,3
1522653486031370,27,12,3,-21,-67,-33,30,-3
1522653486046410,56,1,4,47,101,56,-28,33
1522653486046410,-22,-3,-5,-30,-52,5,7,-35
1522653486047413,-38,1,-2,-7,5,-14,29,17
1522653486047413,16,2,11,25,10,15,-28,-16
1522653486068469,8,-10,-19,-8,-24,9,13,0
1522653486068469,-31,0,0,4,17,-16,-3,4
1522653486070474,43,2,-2,24,6,5,-4,3
1522653486070474,-29,-2,23,24,20,0,16,20
1522653486082506,-17,-7,-4,17,-8,-42,-56,-37
1522653486082506,32,4,-5,-15,6,67,19,24
1522653486091530,-6,-3,4,15,5,-49,-39,-17
1522653486091530,-22,-5,-24,-48,-15,26,-25,-18
1522653486105567,-8,-5,1,-14,-5,-61,2,-1
1522653486105567,48,2,11,37,26,80,-7,14
1522653486107573,-33,-6,-6,-33,-5,-5,2,19
1522653486107573,23,-7,-14,-3,29,13,22,13
1522653486128629,35,5,-4,-20,-1,4,20,-12
1522653486128629,-14,4,-11,-16,-94,-25,-16,2
1522653486129631,-32,-16,-8,-5,56,-40,48,-14
1522653486129631,-4,8,6,-12,-13,12,0,8
1522653486141663,12,-6,-9,-26,42,-32,79,1
1522653486141663,-37,-4,0,-5,-23,-63,-14,-20
1522653486150687,54,10,14,16,-32,-4,-1,22
1522653486150687,-8,-12,-17,-10,11,-93,33,0
1522653486165727,-13,20,18,-37,-75,0,12,24
1522653486165727,66,-12,-10,19,94,61,-16,-14
1522653486167733,-35,8,-2,-13,-17,-18,6,-11
1522653486167733,10,2,20,9,-41,10,-29,3
1522653486188789,-2,-4,5,60,49,77,-2,-3
1522653486188789,-45,-4,-8,-22,-78,-25,-11,5
1522653486189791,20,2,1,-16,17,44,-11,0
1522653486189791,-7,-5,-7,-13,-20,27,1,-8
1522653486201823,31,-6,-9,-18,-11,-101,-29,-2
1522653486201823,-7,0,0,10,-11,-34,19,9
1522653486210847,3,3,10,12,15,29,25,4
1522653486210847,-5,-2,-5,1,-36,-12,-10,10
1522653486225887,-1,12,22,37,80,25,-27,0
1522653486225887,-3,-14,-5,-24,-46,-63,-11,-4
1522653486227893,75,8,0,-4,65,75,32,20
1522653486227893,-62,-18,-16,-14,-14,-49,-15,-26
1522653486248949,11,9,0,-12,0,84,82,27
1522653486248949,-3,-1,11,21,1,-84,-48,-18
1522653486249951,-54,-3,-11,-25,-47,62,13,-11
1522653486249951,-20,-2,-2,1,31,66,31,3
1522653486261983,33,6,-3,-1,1,-14,-24,-4
1522653486261983,41,-1,-4,-43,-18,-50,-5,15
1522653486271008,-31,-8,-2,5,-42,32,4,4
1522653486271008,-40,6,1,15,68,80,-16,-17
1522653486286047,-26,-8,-9,-17,36,18,22,11
1522653486286047,8,-3,-7,7,-13,73,23,9
1522653486288053,17,9,22,28,26,-128,-22,-10
1522653486288053,-27,-3,-13,-12,-50,40,-15,-25
1522653486308106,-38,-9,12,28,22,93,9,4
1522653486308106,12,13,14,24,27,-34,-17,-14
1522653486310111,50,2,1,-7,-69,16,13,30
1522653486310111,-18,0,-2,17,33,-15,7,-16
1522653486322143,-61,-12,-13,-20,36,-2,2,-10
1522653486322143,-7,-5,-17,-38,-19,19,-2,-2
1522653486331167,-22,6,21,43,-41,43,-27,6
1522653486331167,31,7,1,8,82,75,41,-9
1522653486346207,27,-5,-5,-4,-29,4,-53,-17
1522653486346207,-12,4,10,8,-3,102,50,12
1522653486347210,-2,-1,-1,-7,29,-32,-5,6
1522653486347210,-6,-10,-21,-33,-37,12,-63,0
1522653486368266,32,5,9,23,-3,-21,51,-12
1522653486368266,-19,-5,-9,-17,-28,46,8,7
1522653486370271,-33,-6,-6,20,41,-25,-12,-21
1522653486370271,39,9,16,-30,-15,9,3,12
1522653486382303,-3,3,13,12,-6,-89,0,18
1522653486382303,64,1,-12,24,-7,-43,-18,-17
1522653486391328,-19,-16,-29,-64,-22,2,-15,-15
1522653486391328,-26,-6,-5,1,19,-110,1,20
1522653486406367,26,0,-17,-14,-54,34,-23,-7
1522653486406367,-37,-3,4,22,41,3,32,13
1522653486407370,17,10,13,17,36,20,-10,-20
1522653486407370,-6,-2,-10,-23,-83,5,12,22
1522653486428426,-9,-5,-2,12,52,41,11,-7
1522653486428426,30,3,-7,-17,-34,-96,-20,12
1522653486430431,-22,0,2,-25,-30,50,9,-7
1522653486430431,-10,-6,0,9,12,-61,-54,-19
1522653486442463,-45,-4,-9,-10,-7,-3,10,-9
1522653486442463,5,0,-1,-22,-15,-36,-27,1
1522653486451487,-4,-4,-7,10,-1,-87,5,7
1522653486451487,-5,4,7,19,-20,-26,16,3
1522653486465525,11,-8,-8,-22,-7,-32,-9,-35
1522653486465525,8,4,5,11,27,51,7,49
1522653486467530,14,1,1,-11,16,49,6,15
1522653486467530,-5,-2,2,4,-8,4,-2,-26
1522653486488586,-18,-2,0,-9,-36,-28,-30,6
1522653486488586,-10,0,1,42,20,20,11,-10
1522653486489589,39,6,4,-13,-7,-5,7,-1
1522653486489589,-39,-15,-5,5,34,5,-1,24
1522653486502623,15,4,-6,-24,-37,4,0,-7
1522653486502623,16,2,-3,0,20,21,17,23
1522653486510645,-46,5,11,25,8,28,5,-22
1522653486510645,45,2,10,9,12,-39,-6,-2
1522653486525685,2,2,1,18,4,-22,-6,-12
1522653486525685,-35,-3,1,-7,12,-14,-37,-13
1522653486527690,77,-4,-12,-6,-19,-38,-4,20
1522653486527690,2,-4,-5,8,-33,70,41,22
1522653486548746,-20,7,0,17,36,-38,-4,6
1522653486548746,-28,-4,-5,-9,14,8,12,-25
1522653486549749,12,5,7,23,12,-18,-10,30
1522653486549749,0,5,2,-3,19,18,-2,3
1522653486561781,15,-1,30,15,-15,-62,-21,4
1522653486561781,-25,2,-2,6,38,91,1,-33
1522653486570805,-32,-2,-5,10,-46,-77,9,-17
1522653486570805,58,-2,-5,10,42,19,18,15
1522653486584842,-40,-5,-7,-3,-3,50,15,2
1522653486584842,28,13,13,-6,-24,-72,-18,-8
1522653486591861,-50,-13,-3,-10,-33,7,-14,-8
1522653486591861,33,8,5,-3,13,40,29,29
1522653486608906,-12,-3,-5,-1,-52,-70,-4,-21
1522653486608906,19,-5,-5,-7,25,21,-1,-4
1522653486609909,28,6,-11,1,-10,1,18,5
1522653486609909,-70,0,15,27,23,-37,-13,-60
1522653486630964,48,1,-8,-13,-47,-12,-21,48
1522653486630964,-10,3,-1,-32,-24,82,-9,11
1522653486632970,-35,-16,-9,15,68,-19,-15,-36
1522653486632970,39,7,2,-9,-28,16,48,34
1522653486645002,-10,4,10,7,-1,-36,-17,5
1522653486645002,21,3,2,-9,4,28,9,0
1522653486652021,52,1,-14,-28,-18,45,-39,10
1522653486652021,-59,-8,10,-16,-15,-45,32,-3
1522653486668063,-21,0,0,16,25,98,24,-25
1522653486668063,-15,-6,2,9,-15,-100,-50,-15
1522653486670069,6,-3,3,-24,-28,31,9,26
1522653486670069,45,9,-4,12,53,1,4,12
1522653486691124,-54,-11,-15,-61,-44,26,-35,-17
1522653486691124,16,-5,-9,-13,-35,-83,-30,-12
1522653486693130,-36,-4,0,22,46,16,8,3
1522653486693130,-6,4,-5,-1,-11,48,-14,-32
1522653486705162,83,6,5,2,15,9,-13,29
1522653486705162,-64,-12,-10,-6,-6,-1,23,-34
1522653486712181,-22,-5,-17,-42,-16,-36,-17,8
1522653486712181,5,4,17,13,13,34,-38,1
1522653486728223,24,6,4,14,-17,-28,34,5
1522653486728223,39,2,-10,-11,-2,7,19,25
1522653486730229,-44,1,11,-10,-23,-31,-5,-27
1522653486730229,35,-3,-5,-16,22,33,-53,0
1522653486751284,-3,-1,-6,5,51,85,5,-4
1522653486751284,1,-1,5,16,20,-11,-9,20
1522653486752288,-41,3,24,22,29,91,17,-8
1522653486752288,20,-7,-27,-25,-81,-54,-19,-7
1522653486765322,-20,-7,3,39,9,-53,2,16
1522653486765322,5,3,-7,-7,-5,-12,20,-5
1522653486772341,29,0,-9,-34,8,-55,-28,4
1522653486772341,-19,-5,-8,-2,0,13,-14,-25
1522653486788384,-14,-7,-13,-10,23,-6,-19,-1
1522653486788384,21,2,5,5,-12,-11,-6,-5
1522653486790389,-29,-2,-2,12,-3,80,-11,-3
1522653486790389,-2,-6,7,6,7,-77,-22,3
1522653486811444,12,1,5,8,-22,-72,13,-7
1522653486811444,-50,-6,1,5,34,78,35,-11
1522653486812448,7,6,4,5,-41,6,17,41
1522653486812448,40,3,-4,-3,35,-8,-28,-34
1522653486825482,14,7,22,60,45,-16,-11,-3
1522653486825482,-47,-3,-6,-28,-42,-107,-14,-9
1522653486832500,57,-5,-21,-16,27,-22,5,4
1522653486832500,-52,-3,24,36,-8,20,33,-7
1522653486848543,-9,-1,-8,-23,-4,-1,-5,-11
1522653486848543,32,9,16,29,-15,32,18,20
1522653486850548,-9,0,-8,-21,13,-25,-16,-19
1522653486850548,33,-3,-3,-3,0,-23,4,26
1522653486870602,-67,-5,-8,-7,40,52,6,-56
1522653486870602,30,1,-1,-4,1,-10,-3,15
1522653486872608,-4,-2,-1,25,-47,84,39,-7
1522653486872608,4,-1,-4,5,33,-102,21,9
1522653486884639,19,-3,3,5,-30,-24,39,42
1522653486884639,-6,-3,-11,-7,-8,46,-8,-4
1522653486893664,-36,-6,4,16,30,37,51,2
1522653486893664,-16,4,-2,-7,-49,-24,6,-2
1522653486908703,6,-3,-14,-19,-4,98,-9,-5
1522653486908703,2,-1,19,14,71,-2,-35,-26
1522653486909706,57,2,9,17,-5,-26,12,18
1522653486909706,-42,-2,-3,-12,-13,42,11,5
1522653486930762,17,5,5,-13,-58,1,21,-9
1522653486930762,-18,-5,-11,-23,-34,13,-17,4
1522653486932768,37,-5,-6,-19,1,-47,-14,20
1522653486932768,18,1,7,39,56,73,13,7
1522653486944799,-2,-2,1,-5,-1,79,-21,-15
1522653486944799,-23,-3,-10,-26,-36,9,35,-20
1522653486953823,-35,-2,5,-3,0,-62,-23,-18
1522653486953823,22,-4,-2,-4,-47,-17,-15,5
1522653486968863,-7,-5,-16,-21,9,-33,-15,-11
1522653486968863,12,0,3,44,-2,25,26,15
1522653486969866,-22,0,-7,-32,-6,-2,-16,-20
1522653486969866,6,5,6,22,1,-16,12,-1
1522653486990922,28,-1,2,4,-4,-6,-4,13
1522653486990922,14,-5,-2,-1,4,39,-20,20
1522653486992927,-24,5,6,1,8,-62,-3,-10
1522653486992927,31,3,-6,3,-8,4,5,28
1522653487004959,-41,-2,3,-4,38,48,11,-4
1522653487004959,8,-4,-8,11,13,30,11,17
1522653487013983,-10,-3,-8,-1,-53,10,-31,-19
1522653487013983,1,6,10,-16,55,27,-25,-14
1522653487028020,26,-8,-18,-36,-58,-58,26,16
1522653487028020,2,-6,5,5,28,0,0,0
1522653487030026,24,3,11,23,25,19,13,36
1522653487030026,-63,-4,-12,-37,-38,-12,4,-38
1522653487051082,41,1,-3,21,27,-23,-11,23
1522653487051082,3,9,5,-18,-7,41,15,4
1522653487052085,-42,-8,-4,-15,-12,65,19,-4
1522653487052085,-18,-16,-38,-37,-8,-27,-33,-17
1522653487065119,13,4,17,5,-23,-30,27,34
1522653487065119,15,10,8,-22,17,-52,-22,-17
1522653487073140,38,6,6,32,20,-1,1,11
1522653487073140,-31,-6,-12,-4,-37,77,-15,-47
1522653487088181,14,3,6,-7,5,89,3,14
1522653487088181,-26,-6,1,16,-25,-128,14,18
1522653487090186,30,-4,-23,-4,37,-39,-18,22
1522653487090186,-7,-2,10,0,-26,6,-12,-32
1522653487111242,-27,-8,-22,-30,-40,-43,-32,-5
1522653487111242,-14,2,0,19,-4,23,0,-35
1522653487112245,25,1,-7,-33,-9,-85,-6,10
1522653487112245,-28,-3,-3,12,-12,-84,8,-34
1522653487124276,-41,-5,11,48,26,32,14,-2
1522653487124276,-11,-8,-25,-18,-2,37,-2,16
1522653487133300,-7,-6,-3,-22,0,33,8,-19
1522653487133300,20,6,24,41,-1,43,34,18
1522653487148340,28,2,-6,-11,8,-97,-40,-22
1522653487148340,-11,-2,11,19,-17,-36,-16,6
1522653487150346,-17,1,-5,-1,40,-10,17,-25
1522653487150346,-6,-7,-3,3,-22,19,4,27
1522653487171402,3,0,8,6,39,76,-27,-23
1522653487171402,-14,-4,0,15,2,2,19,10
1522653487172405,13,3,-5,-7,-15,-31,-37,-9
1522653487172405,-20,-2,-1,-2,0,9,17,-1
1522653487184437,-21,4,1,6,-23,-18,39,4
1522653487184437,10,-8,-14,-25,43,33,-45,-26
1522653487193461,36,14,22,27,-45,37,3,20
1522653487193461,7,-5,-6,-13,37,-42,-12,10
1522653487208501,-16,-4,-7,18,11,15,31,-1
1522653487208501,-34,-2,3,-27,-35,43,25,-17
1522653487210506,11,-2,-5,-12,-13,101,68,20
1522653487210506,2,-3,14,40,66,35,-11,4
1522653487230559,-18,-5,-7,-17,-15,36,26,-2
1522653487230559,56,8,9,25,28,7,-1,21
1522653487232565,-18,-3,-7,-24,-26,-40,-12,-11
1522653487232565,15,9,4,-15,-4,23,38,28
1522653487244596,-5,-4,1,2,-17,-26,-29,0
1522653487244596,46,3,7,14,11,-21,13,4
1522653487253621,-80,-3,8,26,11,41,-1,-39
1522653487253621,21,-5,-17,-17,11,-85,-22,15
1522653487268660,7,2,-7,-17,-17,-1,2,17
1522653487268660,-4,4,10,12,-31,19,0,-13
1522653487269663,18,-2,-7,-27,3,-54,4,15
1522653487269663,-8,-9,-18,-31,18,48,-14,-12
1522653487290719,-23,2,8,-1,-5,-18,-29,-14
1522653487290719,14,8,-1,-1,-49,57,-2,13
1522653487292725,-17,-5,15,-15,11,-89,-29,-8
1522653487292725,-74,-12,-11,13,23,96,2,-6
1522653487304757,36,-2,-9,-3,-25,3,-46,-16
1522653487304757,66,2,-15,-35,2,-76,-16,-6
1522653487313780,6,4,14,22,33,97,12,15
1522653487313780,16,0,-8,-6,-30,-67,-40,2
1522653487328820,-26,1,11,9,11,7,84,22
1522653487328820,-43,-7,-12,-27,-23,2,10,-14
1522653487329823,18,-9,-11,-13,15,116,-15,-3
1522653487329823,17,11,21,30,-5,-4,25,9
1522653487350879,-4,-8,-7,9,27,74,-4,-4
1522653487350879,-4,1,6,3,-2,-57,-23,-16
1522653487352885,-1,5,2,4,25,-41,0,19
1522653487352885,13,4,15,1,12,81,15,11
1522653487364916,25,6,0,5,-23,-36,-25,-21
1522653487364916,-26,-5,3,41,27,-13,49,16
1522653487373941,-14,-3,-5,16,-16,-43,-24,-21
1522653487373941,39,6,-9,-5,8,-72,-26,6
1522653487387978,-27,-1,2,-5,-13,-22,-6,3
1522653487387978,2,-2,-10,-32,3,48,23,-18
1522653487389983,12,3,9,40,6,-6,-26,-17
1522653487389983,4,2,1,-39,-3,42,12,20
1522653487411039,8,-4,-17,-5,44,34,-2,3
1522653487411039,-19,2,19,21,-10,-6,-1,0
1522653487413045,9,-5,-12,-3,0,4,4,2
1522653487413045,1,4,7,12,-32,-34,15,-15
1522653487425077,30,3,6,-9,-13,18,35,22
1522653487425077,-21,-10,-11,-15,31,51,-15,-8
1522653487434101,-15,8,17,16,-14,3,16,6
1522653487434101,33,0,-7,14,28,36,-12,-24
1522653487448138,-5,4,7,30,22,43,-48,-23
1522653487448138,18,4,11,11,-2,-29,35,46
1522653487455157,-26,-6,-6,-38,-17,22,5,-19
1522653487455157,13,-12,-25,-29,-41,-47,2,-5
1522653487471199,16,3,15,14,31,-4,9,35
1522653487471199,21,-1,-3,-29,-15,6,-19,-12
1522653487472202,-24,-2,-6,-4,-37,-42,7,16
1522653487472202,1,7,7,18,-7,-16,7,-9
1522653487484234,-30,-1,-2,15,40,-11,5,-26
1522653487484234,-19,-8,-8,-14,-12,-38,-29,6
1522653487493258,11,1,-1,-6,-33,10,27,-7
1522653487493258,21,-2,0,-9,-62,31,-15,12
1522653487508298,31,4,2,-5,81,-51,16,14
1522653487508298,-23,4,-2,11,-15,-69,9,-18
1522653487514315,-15,-4,-4,-28,-23,41,-27,-8
1522653487514315,3,-3,-7,-3,-38,-11,28,26
1522653487531359,8,-1,-1,-42,-47,-10,-20,-26
1522653487531359,-12,-1,12,27,21,-12,-4,15
1522653487532362,6,3,-10,-13,37,-31,2,-13
1522653487532362,2,0,-2,-30,-9,35,0,-7
1522653487553418,-22,-3,2,42,-11,-55,-5,-21
1522653487553418,-5,2,-4,-21,-11,-13,-6,10
1522653487555424,10,-3,1,11,5,7,-6,-5
1522653487555424,17,9,21,28,35,53,-10,1
1522653487567455,-8,-4,-3,-17,4,-87,17,10
1522653487567455,-26,-5,-7,-10,25,60,2,-9
1522653487574474,5,-10,3,39,25,26,5,10
1522653487574474,-11,0,-1,1,-53,-40,21,-13
1522653487590516,19,4,7,8,25,83,12,18
1522653487590516,-1,-2,-15,-28,-13,8,-10,-2
1522653487592522,7,-1,-5,-18,-9,13,-23,-6
1522653487592522,-51,-6,1,11,-19,-75,-21,-25
1522653487613578,24,-6,-13,-17,0,-67,-4,29
1522653487613578,-3,1,2,9,21,-66,2,-5
1522653487615583,14,2,11,23,31,0,7,26
1522653487615583,-40,-7,-4,6,9,-44,-45,-49
1522653487627615,-13,-1,-12,-41,-52,-15,-3,2
1522653487627615,12,0,5,-7,9,60,-7,24
1522653487634635,26,6,5,24,-5,-82,19,13
1522653487634635,-8,-8,-8,-1,50,6,-16,-13
1522653487650676,-17,4,13,23,-5,63,-3,-18
1522653487650676,-13,0,0,-8,-30,-28,2,4
1522653487652682,23,-7,-4,-2,4,-19,6,-16
1522653487652682,-31,3,2,4,15,69,-13,25
1522653487673737,-20,-4,-15,-9,-28,-63,6,-56
1522653487673737,50,6,1,-5,-23,-6,7,39
1522653487674741,-13,2,5,26,7,11,-14,-33
1522653487674741,40,2,-2,-11,4,29,12,40
1522653487687775,-40,0,7,35,36,-13,-19,5
1522653487687775,26,-5,-17,-15,-1,-10,10,-12
1522653487694794,-13,2,-4,-15,-7,54,17,-3
1522653487694794,30,8,15,22,1,-73,19,15
1522653487710836,-19,-11,-10,0,-19,63,4,-2
1522653487710836,-6,0,11,29,23,-100,10,-1
1522653487712842,-22,-1,-6,-21,-12,32,13,1
1522653487712842,48,2,-6,-3,-23,-5,23,-12
1522653487733897,-40,-4,10,18,20,4,-20,15
1522653487733897,50,5,-6,-31,0,73,7,2
1522653487734900,6,6,2,-20,-12,-13,5,9
1522653487734900,-35,-4,-3,-6,26,-14,57,21
1522653487747935,27,4,2,-8,-28,-42,-10,4
1522653487747935,-17,-12,-4,3,7,13,-21,-7
1522653487754954,28,2,-2,-14,8,59,-1,3
1522653487754954,-12,1,4,6,-26,-45,2,25
1522653487770996,28,-6,-4,-10,38,22,-7,-28
1522653487770996,-27,5,5,28,-24,-38,4,-16
1522653487773002,-20,-11,-13,-23,-40,-69,-25,26
1522653487773002,-82,-10,8,21,40,-73,1,-21
1522653487793055,47,7,-5,5,-14,-4,30,6
1522653487793055,12,4,3,-3,14,26,-23,-18
1522653487795061,-17,-1,7,8,19,73,30,14
1522653487795061,99,4,-5,-4,-16,26,-19,7
1522653487808095,6,-3,-9,2,-16,-10,4,6
1522653487808095,-61,-12,-4,-4,-9,-73,-62,-27
1522653487815114,6,3,1,5,15,8,-23,4
1522653487815114,-2,-2,-13,-28,-10,-26,-43,-16
1522653487831156,25,6,5,-37,-51,1,77,17
1522653487831156,-56,-8,-3,29,26,119,-3,-11
1522653487832159,2,-10,-6,-13,4,-71,-48,-21
1522653487832159,27,2,0,36,7,53,3,-13
1522653487853215,38,7,8,22,-10,13,-8,21
1522653487853215,-41,4,2,-17,1,-29,8,-9
1522653487855221,-55,-19,-7,-3,-22,-49,-6,3
1522653487855221,38,-1,-10,-20,-3,54,2,-1
1522653487867252,-47,0,-1,5,8,-26,-42,-16
1522653487867252,24,7,19,29,5,-16,37,17
1522653487876276,25,8,3,19,48,28,18,0
1522653487876276,14,7,12,17,-38,-52,10,5
1522653487891316,-2,3,-1,-6,38,30,-7,26
1522653487891316,-50,-10,-7,-22,-29,-22,-12,-41
1522653487892319,39,1,-7,-16,-28,-75,4,5
1522653487892319,-21,-8,-6,0,-16,22,16,2
1522653487913375,-16,0,-2,4,22,2,-20,-16
1522653487913375,48,5,0,-6,32,-19,-10,18
1522653487915381,19,3,-9,-8,-55,-91,16,2
1522653487915381,11,9,20,35,51,109,2,17
1522653487927412,-60,-14,-19,-41,-12,9,0,-41
1522653487927412,12,3,19,42,4,-64,-32,1
1522653487936436,11,-3,2,22,12,27,-20,-21
1522653487936436,-2,-11,-23,-37,-63,8,1,11
1522653487950473,23,8,0,-3,94,48,31,20
1522653487950473,-22,-3,-5,-16,-20,19,21,-4
1522653487952479,-11,-9,-2,1,-13,8,16,13
1522653487952479,-16,-3,-8,-15,27,4,-27,-14
1522653487973535,0,-4,5,17,-54,-24,-1,-16
1522653487973535,31,3,-7,-19,0,30,34,69
1522653487975541,-23,5,-2,-18,8,-50,-43,-33
1522653487975541,-11,2,10,29,44,72,0,-8
1522653487987573,-2,-4,-1,-15,-21,-30,-21,-14
1522653487987573,-36,-7,-5,-17,-53,-50,-10,-24
1522653487996596,16,0,6,12,-2,24,1,-2
1522653487996596,-1,-6,-5,-24,32,-70,-26,-18
1522653488010633,35,8,8,19,-15,-68,42,22
1522653488010633,-22,4,9,11,14,80,4,-7
1522653488012639,-3,1,2,11,-3,26,13,-12
1522653488012639,3,-2,-4,1,-25,-41,-16,1
1522653488033695,2,-2,6,11,5,19,3,9
1522653488033695,26,5,-6,-5,-12,11,-14,-24
1522653488034700,-5,-10,-11,27,33,-3,7,12
1522653488034700,-46,-6,-1,-3,-6,-10,-3,-6
1522653488046729,25,0,-5,-23,-58,-8,-31,-2
1522653488046729,6,-6,-2,9,-9,-9,34,15
1522653488055754,6,12,9,13,56,38,2,7
1522653488055754,-3,-3,-1,3,6,-20,-1,0
1522653488070794,-20,0,-2,-2,-25,6,-25,6
1522653488070794,17,-1,-4,-13,19,0,-14,-8
1522653488072799,1,3,5,-2,5,-5,1,-3
1522653488072799,-4,2,1,-10,-23,-64,9,15
1522653488093855,-16,-5,-5,0,2,-18,-3,-10
1522653488093855,-23,2,5,7,-9,42,-18,-33
1522653488094858,-2,-9,-12,-15,-8,32,14,3
1522653488094858,-5,5,-1,-7,1,-60,-2,31
1522653488106889,11,-1,7,2,-32,104,7,-2
1522653488106889,27,-1,-10,-13,39,7,-4,18
1522653488115914,-32,-1,-1,-17,-38,45,14,-17
1522653488115914,4,1,13,38,31,-2,-16,-37
1522653488130953,-37,-5,-11,-16,14,88,9,26
1522653488130953,38,-6,-8,-41,-14,-69,1,-8
1522653488132959,0,1,8,0,-38,-28,-36,-41
1522653488132959,1,-5,-17,-10,16,21,12,40
1522653488153012,-35,3,22,46,33,-35,-52,-8
1522653488153012,5,1,-1,-9,-23,14,-14,-15
1522653488155018,21,3,-8,-16,-38,-71,-26,-1
1522653488155018,-36,-4,7,17,35,85,9,-16
1522653488167049,2,-10,-17,-25,8,-41,11,4
1522653488167049,54,4,1,5,-25,45,9,37
1522653488176074,-16,3,5,20,24,-27,2,-17
1522653488176074,-9,-4,-8,-16,-55,-29,-15,-28
1522653488191113,11,-2,-6,4,11,40,-1,2
1522653488191113,-11,4,9,17,-10,-51,-19,-29
1522653488193119,-18,0,-4,0,27,50,12,25
1522653488193119,9,-3,3,9,-5,-31,-13,0
1522653488213172,-15,-2,-6,8,-3,-36,3,-27
1522653488213172,35,-3,-7,-5,-17,-1,-21,30
1522653488215178,1,2,0,6,14,23,12,11
1522653488215178,14,1,-6,-22,-22,-52,-12,-3
1522653488227209,12,2,4,1,-10,-18,12,-9
1522653488227209,-19,-6,-1,4,15,63,-15,0
1522653488236234,-41,-14,-6,-17,-1,8,19,2
1522653488236234,27,6,-4,2,19,63,10,13
1522653488251273,-9,8,13,2,-17,-104,23,16
1522653488251273,8,-7,-12,-5,-6,19,30,-7
1522653488252276,8,4,15,24,11,40,20,38
1522653488252276,11,-4,-10,-50,2,88,-20,-29
1522653488273332,24,12,3,-7,13,-91,55,37
1522653488273332,-21,-3,-2,11,-33,-42,4,-16
1522653488275338,21,5,0,25,42,82,23,13
1522653488275338,-61,-14,-5,-15,-38,-45,-19,-23
1522653488287370,23,-4,-7,-26,-36,93,-16,7
1522653488287370,-7,5,7,17,56,5,16,10
1522653488296394,32,2,-7,-29,-34,-24,-3,-12
1522653488296394,-43,-4,-8,-10,4,-12,-14,-8
1522653488311433,34,-1,1,7,13,11,8,-4
1522653488311433,-26,1,-1,-17,-10,-46,4,-11
1522653488312437,-6,-12,-8,0,-11,-128,-41,-10
1522653488312437,13,3,-27,-58,-14,-12,-12,3
1522653488333492,30,2,27,38,40,-15,-20,0
1522653488333492,-30,-4,-9,-2,-1,14,8,12
1522653488335498,-40,-2,-4,-11,-2,-3,-8,-13
1522653488335498,-1,0,9,-1,1,-4,35,3
1522653488347529,-1,4,-3,12,-4,-72,-3,-10
1522653488347529,36,2,3,-29,24,34,16,33
1522653488356554,-13,-5,11,38,1,-24,-43,-27
1522653488356554,12,-3,0,67,15,-21,21,1
1522653488370591,-28,-4,-2,-8,34,39,-12,-5
1522653488370591,33,4,5,17,-10,-76,26,21
1522653488372597,-39,0,-11,-25,0,14,16,-6
1522653488372597,-2,6,25,36,-61,7,-16,-14
1522653488393652,-14,-9,-23,-6,11,-6,2,-17
1522653488393652,-47,-14,-21,-25,17,6,-29,-20
1522653488394657,123,4,5,13,-8,6,-18,33
1522653488394657,-19,7,5,-5,-11,-58,15,2
1522653488406687,-28,-5,-8,-19,-4,127,39,7
1522653488406687,1,-7,-11,-54,5,-20,6,-29
1522653488415711,4,4,7,28,2,-11,14,-3
1522653488415711,23,5,4,-11,-10,2,24,10
1522653488430751,-54,-5,5,42,33,-61,-21,-16
1522653488430751,15,10,16,8,-29,17,-13,17
1522653488436767,-23,-5,-1,-11,42,22,9,-2
1522653488436767,23,-1,-7,-1,-3,1,12,9
1522653488453812,4,0,-4,-5,-60,-6,-24,-10
1522653488453812,14,5,9,23,38,74,-22,2
1522653488454815,17,2,-5,-15,26,-25,15,5
1522653488454815,6,-1,7,33,-11,15,2,-8
1522653488466847,-16,-3,-3,-18,30,17,18,22
1522653488466847,7,-2,-4,-21,-21,-11,8,11
1522653488475871,-27,-8,-16,-9,-28,2,-9,-19
1522653488475871,2,-5,-2,15,25,14,-20,-21
1522653488489908,44,5,-9,-28,-30,14,-16,14
1522653488489908,-9,3,8,8,27,-23,9,5
1522653488496927,37,-3,-7,-13,8,67,-16,-3
1522653488496927,-4,6,10,-19,3,-7,15,9
1522653488513973,-13,-3,-2,12,-24,-22,-27,2
1522653488513973,-29,-10,-11,-2,38,11,13,-19
1522653488514975,43,8,23,35,-15,-25,24,3
1522653488514975,-27,-9,-26,-15,12,27,-4,15
1522653488536031,-4,2,16,9,2,58,-6,-3
1522653488536031,-11,-4,-4,21,-15,-24,17,5
1522653488538036,-19,0,-2,-46,-12,38,-3,-29
1522653488538036,24,-5,-5,14,38,7,-8,10
1522653488550068,19,9,7,-25,-19,-3,20,-3
1522653488550068,-40,-3,-7,-12,-18,20,17,-4
1522653488557087,13,-2,10,37,19,-7,1,31
1522653488557087,24,10,11,-8,-3,44,29,-26
1522653488573130,-50,-9,-15,5,6,-26,-37,-15
1522653488573130,26,-1,6,44,54,3,-19,1
1522653488575135,-31,0,-6,-20,-61,-21,6,-16
1522653488575135,8,3,8,2,19,41,17,4
1522653488596191,31,0,-9,-12,-7,-32,-16,10
1522653488596191,-14,-1,14,3,-41,35,-24,-22
1522653488597194,27,2,-11,-18,29,-6,-9,33
1522653488597194,-2,2,5,4,-23,-17,-12,0
1522653488610228,-14,1,-8,-11,48,9,17,-25
1522653488610228,11,-3,-3,1,-29,-6,-10,21
1522653488617247,-35,-1,1,-6,-10,-6,3,-4
1522653488617247,-12,-6,-6,-9,3,-28,5,-8
1522653488633290,-9,3,16,2,2,2,-11,10
1522653488633290,2,5,-7,-5,44,-8,-11,-3
1522653488635295,22,-1,6,16,32,59,16,10
1522653488635295,-2,3,-1,9,-18,-16,3,-3
1522653488656351,-3,-9,-6,-20,-22,-17,-9,8
1522653488656351,8,3,5,8,5,19,-7,-17
1522653488657353,-29,-8,-16,-26,-39,-90,-11,6
1522653488657353,20,-4,-5,-15,-2,19,-15,30
1522653488670391,35,11,4,19,23,-15,36,-32
1522653488670391,-46,-4,12,4,-9,20,-34,-7
1522653488677407,-27,-2,-9,13,37,-42,19,0
1522653488677407,22,-3,-5,-4,-5,-7,-9,10
1522653488693449,-12,-9,-24,-41,-35,-7,7,-7
1522653488693449,28,4,2,-7,-9,24,-9,12
1522653488695455,-35,-3,-7,-12,-32,72,36,-11
1522653488695455,15,-2,-11,-14,-35,-51,-4,20
1522653488715508,18,6,13,34,47,35,5,22
1522653488715508,13,-3,-14,-43,-54,-52,-7,-18
1522653488717513,-36,0,9,21,13,94,-10,-19
1522653488717513,1,-2,-2,1,6,-28,3,15
1522653488730548,-10,-10,-8,0,-31,-21,-7,-22
1522653488730548,-7,-1,-7,-27,-58,-28,2,13
1522653488737567,36,6,1,3,24,0,-25,1
1522653488737567,-11,0,1,12,-4,-3,-13,-20
1522653488753609,-48,-1,4,-12,-12,30,3,-21
1522653488753609,23,-8,-3,37,57,3,22,25
1522653488755616,33,2,0,-7,-16,-92,7,20
1522653488755616,-27,2,16,43,21,39,-8,-24
1522653488775668,15,3,-3,-15,-8,11,-8,26
1522653488775668,-61,-10,-11,-10,-16,-50,-21,-41
1522653488777674,7,1,-5,-9,-34,-113,-29,-23
1522653488777674,-3,-2,3,-16,-11,-26,-19,-12
1522653488789705,-42,-5,2,8,31,57,23,0
1522653488789705,44,8,-12,-31,8,-15,-27,2
1522653488798730,27,2,14,22,16,14,75,41
1522653488798730,-23,1,7,-5,-17,-23,-6,-7
1522653488813769,20,1,-1,-9,-20,25,9,4
1522653488813769,13,0,0,0,17,57,17,22
1522653488814772,-39,-8,-10,-18,3,30,-35,-33
1522653488814772,4,0,-15,-27,-19,36,-25,-3
1522653488835828,1,5,17,32,28,-21,13,13
1522653488835828,-2,2,9,25,-7,-23,23,-7
1522653488837834,0,4,2,-13,-17,5,-6,10
1522653488837834,-9,-3,-10,5,35,39,13,-5
1522653488849865,20,0,-5,-12,-46,-111,16,16
1522653488849865,-10,-1,11,21,5,31,-28,-16
1522653488858890,-30,-1,13,14,-1,18,4,-5
1522653488858890,53,3,-6,-22,16,-16,47,13
1522653488873930,-43,-15,-15,-12,17,31,-36,-24
1522653488873930,38,8,5,-4,10,-3,-25,10
1522653488874933,-38,-6,-6,-5,-33,-67,-7,-19
1522653488874933,22,-5,1,1,47,73,0,14
1522653488895988,62,10,4,8,1,-32,-24,11
1522653488895988,-73,-7,-15,-14,-36,2,-11,-29
1522653488897993,-40,-8,6,24,19,-31,-36,-19
1522653488897993,64,2,-13,-10,-4,-41,15,15
1522653488910025,-3,1,12,22,1,41,-20,-15
1522653488910025,2,-2,-10,-7,-1,-90,6,9
1522653488919050,-14,-1,1,-10,-32,36,-26,-16
1522653488919050,-39,-6,-4,-7,-3,1,20,-23
1522653488933087,26,2,9,-13,25,41,-2,25
1522653488933087,0,-3,-12,-22,-6,-57,8,5
1522653488935092,36,0,0,25,20,49,10,6
1522653488935092,-46,-1,7,1,-34,-24,6,6
1522653488956148,-21,-4,-11,5,42,-9,-9,-17
1522653488956148,-3,6,11,13,32,8,30,0
1522653488957151,71,-2,-20,-43,-12,25,12,22
1522653488957151,-41,1,14,35,-10,-73,-37,-15
1522653488969183,-38,-1,-5,-30,-52,-51,7,-2
1522653488969183,8,-14,-13,-9,4,97,-1,-9
1522653488978207,78,16,11,0,-19,-73,25,15
1522653488978207,-85,-6,-2,6,-6,-10,-23,-18
1522653488993247,15,-5,-9,9,-26,30,8,11
1522653488993247,50,3,6,21,52,-14,9,8
1522653488995253,-14,-4,-11,-21,-4,63,4,8
1522653488995253,-6,5,8,14,1,51,-10,-11
1522653489016308,21,-5,-4,-3,-53,-11,0,13
1522653489016308,-20,-1,0,-13,37,-27,5,-14
1522653489017311,4,-4,-8,26,14,46,-1,-6
1522653489017311,-5,1,-3,-16,-49,-43,1,10
1522653489029343,16,3,3,-5,35,-35,-21,-12
1522653489029343,0,1,5,31,-16,48,26,26
1522653489038367,-52,-4,5,-9,-10,-2,-9,-33
1522653489038367,18,8,7,0,51,48,38,8
1522653489053407,17,-4,-8,-5,-6,-10,-8,6
1522653489053407,-11,4,7,-6,-16,16,22,3
1522653489055412,6,1,4,-7,-11,62,-10,0
1522653489055412,8,-3,-4,9,-1,-11,0,11
1522653489076468,24,4,6,1,39,-11,1,-6
1522653489076468,-3,-5,-10,-7,-28,-16,-5,2
1522653489077471,-30,-8,-3,8,-32,-18,-6,-12
1522653489077471,37,3,7,-1,19,45,20,21
1522653489089503,-25,1,-2,-1,-6,-38,0,-37
1522653489089503,5,-1,5,22,19,58,16,44
1522653489098527,0,3,6,15,-12,-32,-11,-17
1522653489098527,4,-4,-19,-30,0,-10,-6,-8
1522653489113567,10,7,9,7,-16,3,10,14
1522653489113567,-1,-3,-2,-29,-71,-38,-8,-7
1522653489115573,5,1,1,8,78,18,17,1
1522653489115573,-15,-4,4,3,-13,-44,-11,-12
1522653489135625,-19,-2,-3,-3,9,-6,-14,-2
1522653489135625,15,6,-3,-10,-15,-9,18,-14
1522653489137631,-8,-4,-1,7,-3,20,-28,-8
1522653489137631,3,-4,-11,-29,-12,-53,-21,-1
1522653489149663,17,-3,2,26,29,15,2,5
1522653489149663,-19,7,1,-15,-8,14,2,-7
1522653489158687,3,1,-9,-6,20,-22,-8,19
1522653489158687,1,-3,14,6,-2,35,-3,-23
1522653489173727,-25,-4,0,-12,-42,-39,-6,-3
1522653489173727,4,4,10,26,73,22,-2,-3
1522653489174730,25,0,-8,-26,-9,47,7,40
1522653489174730,-1,2,9,24,-2,-68,-39,-8
1522653489195786,-17,-3,-9,-21,-27,-8,11,-13
1522653489195786,26,1,6,42,28,5,-8,7
1522653489197791,-6,-3,-1,-11,-1,-19,3,-18
1522653489197791,-66,-14,-8,-8,-13,-27,3,-15
1522653489209823,14,0,-4,-5,-32,-1,1,11
1522653489209823,-10,2,6,13,18,-26,-3,4
1522653489218847,51,5,6,14,17,-68,-4,-1
1522653489218847,17,5,-3,-8,-10,-5,5,9
1522653489233887,-26,1,-3,-2,4,-3,-8,-6
1522653489233887,3,-9,-13,-22,-23,1,1,-9
1522653489234890,-58,-22,-15,2,-60,-12,-47,-26
1522653489234890,37,12,10,-2,63,6,17,18
1522653489255946,-26,-5,2,3,-6,-3,-7,-14
1522653489255946,44,8,-2,2,9,31,3,16
1522653489257951,-41,-4,-1,-1,-3,-11,-9,4
1522653489257951,12,-5,-8,0,-19,-10,1,-8
1522653489269983,30,0,1,-3,17,11,6,21
1522653489269983,-34,-2,-3,-10,-7,-26,1,-16
1522653489279007,-14,-3,-6,-13,-27,1,18,16
1522653489279007,8,3,-2,0,33,101,-11,-41
1522653489294047,-18,3,26,24,2,-15,63,24
1522653489294047,9,-6,-3,4,-3,-5,15,-8
1522653489295050,9,-2,-7,10,14,-29,14,-9
1522653489295050,21,9,9,22,-8,114,17,15
1522653489316105,-11,-1,10,2,-19,-22,-38,-5
1522653489316105,-16,-6,-4,-5,30,-1,-13,-20
1522653489318111,-2,4,4,-1,-7,-22,28,15
1522653489318111,8,-6,-5,-1,-22,-67,-16,24
1522653489330143,-18,-10,-20,-3,11,56,15,-7
1522653489330143,-17,-1,1,-15,-35,-7,8,7
1522653489338164,28,9,3,-4,1,-28,16,-7
1522653489338164,-12,-9,-1,6,-17,11,-24,2
1522653489353204,-33,-10,-14,-28,31,-39,-34,-16
1522653489353204,23,1,0,-10,-6,-16,26,15
1522653489355210,15,-5,-9,2,20,63,9,-17
1522653489355210,1,7,2,10,6,-40,-19,7
1522653489376266,0,6,11,-1,0,21,10,-3
1522653489376266,20,-3,-1,8,-9,-15,-20,7
1522653489377268,-39,1,7,12,-1,-13,-3,-14
1522653489377268,4,-3,-7,-1,4,-15,4,-9
1522653489389300,28,4,0,-11,1,-40,-26,10
1522653489389300,-27,-4,-2,4,-15,-27,-21,-4
1522653489398324,28,2,-2,-7,-9,41,3,9
1522653489398324,-6,-2,5,8,9,-54,13,8
1522653489412361,-8,-5,-9,-7,-4,31,2,6
1522653489412361,-3,-2,-3,-11,-21,-11,-4,-3
1522653489419380,28,1,-5,-24,9,30,-32,-3
1522653489419380,-14,-1,1,16,54,18,14,-7
1522653489436426,25,3,4,-5,-5,-24,4,15
1522653489436426,-7,-5,-1,-3,-3,11,-10,-8
1522653489437428,-19,-3,-1,-18,-71,-13,-32,-19
1522653489437428,5,0,1,-1,68,-5,36,17
1522653489458484,10,8,1,-9,-14,37,20,2
1522653489458484,-25,-5,2,13,19,39,-14,4
1522653489460490,26,0,2,1,11,-49,-13,7
1522653489460490,-3,1,-10,-13,-60,-30,-5,-6
1522653489472521,-19,0,4,9,22,-6,5,-15
1522653489472521,64,4,-3,-17,3,7,-8,1
1522653489479540,-10,3,10,13,-2,30,17,15
1522653489479540,-18,-8,-7,-13,15,22,0,-1
1522653489495583,16,-2,-8,5,-27,51,-11,-12
1522653489495583,-40,4,6,14,9,-82,-19,-7
1522653489497588,-30,-7,6,14,-8,-7,29,-7
1522653489497588,22,-6,-13,-10,-69,9,3,3
1522653489518644,10,5,0,-15,12,-19,16,20
1522653489518644,24,6,4,-3,-18,66,-3,-4
1522653489520650,-65,-4,1,9,-26,-18,-28,-17
1522653489520650,31,3,-1,-1,54,18,-14,17
1522653489532681,22,-5,-6,-16,-10,87,16,-11
1522653489532681,-29,-2,-8,22,-10,-31,12,-5
1522653489539700,10,-1,-2,-14,-14,9,-6,17
1522653489539700,-14,3,7,-15,-8,14,21,1
1522653489555743,32,6,-1,14,15,-19,-7,5
1522653489555743,-36,-9,-6,-21,2,13,0,-11
1522653489557748,24,1,6,22,29,-6,-20,-12
1522653489557748,-21,1,-12,-17,-59,-25,-2,8
1522653489578804,5,-6,-7,-14,-22,-2,2,7
1522653489578804,17,3,8,34,55,36,-18,6
1522653489579807,15,-6,-16,-25,21,-24,17,18
1522653489579807,-69,-11,9,40,-1,42,-24,-43
1522653489592841,0,3,5,-12,18,-6,-9,-4
1522653489592841,8,-6,-11,-12,-47,27,38,-8
1522653489599860,-15,-2,-1,-15,14,-14,-17,0
1522653489599860,30,11,8,34,47,-21,17,21
1522653489615903,-9,-7,-4,-4,-31,-32,-30,-24
1522653489615903,-26,-4,-6,-6,-58,1,-19,-7
1522653489617908,17,1,5,6,65,-25,31,2
1522653489617908,6,-2,1,-18,-46,7,21,1
1522653489638964,-22,-6,-10,1,42,19,-1,5
1522653489638964,-4,-3,6,16,16,7,-1,-12
1522653489639967,8,-3,-4,18,8,-77,-4,13
1522653489639967,16,2,-3,-12,-6,-46,-19,-7
1522653489653001,-6,4,5,27,-13,-1,15,18
1522653489653001,-17,-5,-5,11,22,-35,5,-9
1522653489660020,-5,5,-1,30,-35,42,5,-7
1522653489660020,6,-3,6,0,35,-58,11,-23
1522653489676063,4,2,1,-17,-43,-36,15,40
1522653489676063,-10,-10,-10,-13,6,-3,-16,-23
1522653489678068,1,10,10,22,29,88,16,-8
1522653489678068,-7,0,-1,11,-46,-37,-11,-8
1522653489698121,-6,-1,-2,-8,26,20,-4,-3
1522653489698121,14,6,15,-25,10,6,28,55
1522653489700127,-8,-8,-16,-14,4,59,-32,-26
1522653489700127,25,3,1,-6,-17,47,-5,9
1522653489712159,-26,-6,-5,2,50,36,-5,-35
1522653489712159,-14,-3,-6,-6,-40,7,-2,-5
1522653489721183,36,6,9,14,28,-30,7,40
1522653489721183,-18,-3,5,-12,1,57,10,-14
1522653489736223,-6,-2,-4,-8,-16,10,-25,20
1522653489736223,16,11,8,-7,-22,-26,18,-6
1522653489738230,-21,-7,-10,7,5,-14,2,-26
1522653489738230,29,0,-7,-6,39,-9,-5,1
1522653489758281,-12,2,7,5,1,-18,8,1
1522653489758281,-11,-4,-4,-3,-10,13,3,-6
1522653489760287,40,1,-9,-36,-5,-8,-13,17
1522653489760287,-2,8,10,12,-21,45,-25,-10
1522653489772319,-2,-8,-11,2,39,-54,19,15
1522653489772319,-12,-1,6,-5,-1,-10,-43,-27
1522653489781343,-23,5,2,19,11,33,-4,4
1522653489781343,0,-7,-14,-23,8,-8,0,62
1522653489796383,3,-1,0,4,-4,5,-19,-64
1522653489796383,10,-5,-12,-20,-34,-3,1,14
1522653489797385,14,8,22,52,33,29,-8,12
1522653489797385,-8,-6,-13,-16,-8,-31,7,-9
1522653489818441,-41,-5,1,4,-9,-2,-10,-28
1522653489818441,50,7,2,10,16,-32,-5,22
1522653489820447,0,-4,-7,-22,-42,0,32,24
1522653489820447,-24,-8,-9,-25,-16,-18,-14,-40
1522653489832479,-1,5,7,6,-13,16,-20,31
1522653489832479,-4,-4,-1,-7,13,-3,17,-23
1522653489841503,-8,6,8,2,-21,-38,-2,-7
1522653489841503,-3,-1,-3,13,-2,-34,-1,-10
1522653489855540,26,-4,-19,-26,-17,-38,6,-6
1522653489855540,-15,0,6,32,52,108,37,4
1522653489857546,-4,-4,-9,-23,-36,-34,-23,1
1522653489857546,20,-1,0,23,38,4,2,-5
1522653489878601,19,1,1,-7,-34,-11,4,-7
1522653489878601,-8,4,1,13,13,11,-22,14
1522653489880607,12,-5,-4,-19,-26,81,38,-14
1522653489880607,-95,-15,-7,-2,33,70,-28,-28
1522653489892639,43,2,-2,19,-4,-20,33,38
1522653489892639,3,-1,-7,-22,-18,0,-6,-9
1522653489901663,-2,-1,4,2,16,-76,-15,-2
1522653489901663,31,6,3,-13,-18,29,-7,4
