timestamp,emg1,emg2,emg3,emg4,emg5,emg6,emg7,emg8
1522653544049187,-8,-3,-1,-1,2,13,-8,0
1522653544049187,-53,-1,-5,-16,-4,10,-2,-11
1522653544050190,30,-4,-12,-26,-14,-49,-9,0
1522653544050190,-45,-5,-1,1,13,48,10,-18
1522653544052195,25,2,9,10,-1,-15,8,13
1522653544052195,40,7,5,10,12,14,6,17
1522653544053198,-28,-3,-7,-15,-10,0,-3,3
1522653544053198,17,3,-6,-2,12,65,-17,-9
1522653544060216,-9,4,7,18,-13,-77,10,2
1522653544060216,-40,-2,-2,-8,-4,13,18,0
1522653544066232,34,4,-6,-17,1,3,-2,12
1522653544066232,-20,-7,-5,-2,-10,-28,8,-8
1522653544075273,4,4,11,-1,7,59,-6,-9
1522653544075273,25,6,4,-2,-7,-36,-5,11
1522653544091303,15,-1,5,9,7,18,15,9
1522653544091303,-26,-7,1,-4,-2,-25,-9,-8
1522653544095310,-12,-5,-6,-14,-3,8,-4,-14
1522653544095310,10,2,-1,0,-3,-4,0,13
1522653544120376,-10,2,3,-2,2,14,-1,0
1522653544120376,10,-3,0,4,-10,-23,-5,-2
1522653544122382,-4,1,-2,-4,0,6,5,5
1522653544122382,5,0,1,-2,3,10,-7,-7
1522653544159481,0,-4,4,7,-4,5,3,-3
1522653544159481,9,2,-4,10,-1,-3,-5,-4
1522653544160483,-11,-3,12,10,-3,1,-3,-6
1522653544160483,4,-2,-18,-21,-17,-9,-8,1
1522653544163491,-2,18,13,2,-7,5,2,-3
1522653544163491,1,-42,-22,41,63,-6,-4,2
1522653544164494,-10,18,-22,-76,-46,11,8,-3
1522653544164494,6,14,17,-12,10,5,4,5
1522653544171512,2,3,6,47,13,-7,-9,-1
1522653544171512,-3,-15,-28,-45,-9,-5,-2,-10
1522653544177528,2,-21,-25,-14,4,4,-1,1
1522653544177528,-28,-6,22,25,14,0,3,-2
1522653544186552,39,-9,-23,-38,-1,-2,11,33
1522653544186552,-45,28,41,33,-18,-5,-16,-40
1522653544200589,-4,-15,-17,-13,-25,-30,-23,4
1522653544200589,15,14,1,-15,-4,1,10,6
1522653544209614,-18,-15,-4,-4,-2,2,-21,-26
1522653544209614,57,7,4,9,0,6,9,31
1522653544231672,-16,14,17,19,3,1,14,-8
1522653544231672,-1,-5,-1,7,-4,11,-6,-5
1522653544233678,-12,-5,-5,8,10,-14,-7,6
1522653544233678,23,-4,-6,-12,-13,12,13,-6
1522653544245710,13,14,18,7,5,21,3,-6
1522653544245710,6,-9,-10,6,11,-1,-5,15
1522653544252728,-28,-5,-4,-6,1,-4,10,-24
1522653544252728,31,12,9,-18,-31,-13,-6,13
1522653544269773,19,-3,0,11,20,0,-8,8
1522653544269773,-19,-9,-13,-6,6,-6,10,-2
1522653544270776,22,9,16,28,16,103,26,18
1522653544270776,-33,8,-1,-14,-29,-60,-9,-2
1522653544291832,-4,1,7,22,27,9,4,-5
1522653544291832,23,1,-12,-9,-4,-20,-9,7
1522653544293838,-12,-1,3,-4,0,-11,-21,-16
1522653544293838,-3,-5,-1,-6,-2,21,20,14
1522653544305870,-15,-2,8,33,28,58,4,8
1522653544305870,-40,2,-5,-18,-21,-23,0,-38
1522653544314894,42,-3,0,11,-5,-22,-4,12
1522653544314894,-29,-2,1,-9,3,5,-19,3
1522653544328931,60,-3,-10,-24,-17,-9,16,9
1522653544328931,-42,-3,3,11,3,10,-2,-7
1522653544330936,-25,-6,-7,-7,-8,-8,8,2
1522653544330936,-7,-4,-3,2,3,2,-2,-16
1522653544351992,-11,4,3,-9,-4,-14,-9,9
1522653544351992,29,-1,0,10,1,1,-6,-2
1522653544352995,-11,1,0,-10,-9,-27,-3,-4
1522653544352995,-15,-4,3,5,6,21,1,-3
1522653544366030,3,0,-1,2,0,-17,-2,7
1522653544366030,3,-10,2,11,-6,2,-6,-2
1522653544373048,-9,8,-6,18,27,2,-2,-1
1522653544373048,7,-8,-10,-44,-7,18,10,5
1522653544389091,-16,-8,11,36,15,-13,-7,-11
1522653544389091,10,-5,6,-3,-38,7,9,16
1522653544391097,-13,-18,-12,18,-11,-11,-4,-5
1522653544391097,9,42,-2,-40,-51,-11,-8,-21
1522653544412152,-16,-9,11,48,36,-15,-3,-13
1522653544412152,2,-17,-32,-71,4,7,-2,5
1522653544413155,17,-5,5,-21,-75,-1,10,3
1522653544413155,-22,-6,2,4,45,-6,-15,-19
1522653544426189,-8,1,10,-8,-3,5,10,19
1522653544426189,8,1,-19,-28,-31,-6,-25,-26
1522653544433208,-29,4,0,-14,11,9,-6,-24
1522653544433208,-4,-11,2,35,6,-6,6,-14
1522653544449251,13,14,16,-6,4,9,8,14
1522653544449251,19,-1,-4,33,23,7,10,39
1522653544451256,-52,-2,-8,-17,3,-18,23,-38
1522653544451256,-7,1,13,14,4,27,-3,11
1522653544472312,21,-3,-9,7,7,-5,-2,18
1522653544472312,43,9,4,2,-8,-31,-6,31
1522653544473315,-24,-11,-6,-12,3,-5,-4,-13
1522653544473315,-77,-5,5,25,10,29,8,-30
1522653544486349,-12,-4,-14,-16,-20,-19,-5,-17
1522653544486349,47,7,4,3,12,4,5,14
1522653544493368,4,9,5,-9,14,51,-19,28
1522653544493368,-9,-10,-2,16,-1,-38,4,-6
1522653544509411,-17,-7,-18,-35,-8,33,11,-5
1522653544509411,-52,4,8,14,1,-5,-19,-20
1522653544511416,17,-2,-4,-7,9,-15,-17,0
1522653544511416,64,3,6,40,13,30,6,24
1522653544531469,-26,2,2,-5,-10,-28,4,1
1522653544531469,-58,-1,12,21,13,-36,-10,-14
1522653544533475,40,-6,-12,-17,-4,21,12,15
1522653544533475,12,1,1,-6,-11,-37,-3,6
1522653544545507,-22,0,-2,-9,-7,-4,-21,-29
1522653544545507,36,-5,2,9,14,28,1,9
1522653544554531,15,3,3,-1,-6,-36,-3,10
1522653544554531,-1,-5,-10,-15,-5,1,-9,-5
1522653544569571,15,-1,-7,-5,-9,-5,-6,-7
1522653544569571,-31,-1,0,-5,-3,11,-7,-14
1522653544570574,33,5,7,10,-1,-5,7,7
1522653544570574,6,-2,2,3,2,1,9,3
1522653544591629,-7,-2,-7,-5,-6,-7,-10,4
1522653544591629,-3,4,2,-12,-17,8,11,-6
1522653544593635,18,1,16,34,12,-12,-9,-1
1522653544593635,3,-1,-18,-4,2,4,0,14
1522653544605667,-6,-6,-10,-9,-1,-2,7,3
1522653544605667,22,8,23,10,14,13,8,6
1522653544614691,-27,-9,-42,5,-20,-8,-5,-15
1522653544614691,10,10,43,26,45,-2,0,3
1522653544629731,10,5,-31,-70,-1,32,10,1
1522653544629731,-5,-11,-4,-25,-22,-6,2,-7
1522653544630734,-14,-3,7,44,57,-14,-15,-15
1522653544630734,14,-16,12,55,11,2,-4,7
1522653544651789,10,11,-11,-22,1,-14,-4,14
1522653544651789,-60,-5,-11,-40,-13,12,1,-42
1522653544653795,1,7,15,-1,-24,-28,-9,-5
1522653544653795,-13,-13,-37,-59,-18,16,16,-3
1522653544665827,38,1,25,53,12,-12,1,25
1522653544665827,-19,-2,-19,7,-4,-12,-13,-39
1522653544674852,42,6,13,4,-1,-8,-4,-11
1522653544674852,-9,7,3,-2,-15,-1,5,28
1522653544688888,-13,-9,1,6,-2,1,-4,-12
1522653544688888,24,11,4,8,13,6,13,13
1522653544690894,-23,-4,-2,-9,-3,33,4,6
1522653544690894,76,0,-11,-5,-8,-45,8,14
1522653544711950,-16,5,7,-4,-7,2,-2,-26
1522653544711950,-19,-10,1,15,6,-34,-9,13
1522653544713956,-52,-1,2,-12,4,40,2,8
1522653544713956,24,3,-18,-40,-38,-49,-12,0
1522653544724984,-31,-9,11,20,28,72,1,1
1522653544724984,78,8,13,21,12,7,12,23
1522653544734008,3,-7,-17,-51,-14,-20,-6,-22
1522653544734008,-35,-3,5,44,-8,-62,-22,-8
1522653544749048,40,-1,-8,-16,-22,-24,-17,6
1522653544749048,-35,-2,-3,-5,12,37,10,2
1522653544751053,-14,12,14,9,-5,-8,10,8
1522653544751053,26,-6,-11,-18,0,-13,-12,2
1522653544772109,-14,-3,0,3,-1,-18,-6,-29
1522653544772109,30,-5,-5,16,-5,8,18,43
1522653544773112,-6,-4,-1,-6,0,-24,-2,18
1522653544773112,-63,2,8,3,11,46,2,-28
1522653544785144,19,-4,-5,-3,-6,-2,14,3
1522653544785144,5,-3,-3,-12,-7,-7,5,-7
1522653544794168,6,-1,-2,2,0,10,-4,-6
1522653544794168,-12,-1,4,-4,4,23,-5,6
1522653544809208,-5,4,8,2,-2,-21,-5,2
1522653544809208,-13,-2,2,6,-3,1,-8,-9
1522653544811213,14,-7,-4,17,8,-1,6,4
1522653544811213,-15,5,6,10,-4,20,1,-7
1522653544832270,4,-10,-27,-20,-17,-8,7,4
1522653544832270,-11,-6,8,2,8,8,-1,-8
1522653544833272,16,8,19,33,41,8,-1,10
1522653544833272,-3,-7,-38,-58,-50,8,2,-7
1522653544845304,-3,4,24,11,-33,-9,3,5
1522653544845304,-4,-4,3,76,93,0,-5,7
1522653544854328,15,5,-29,-90,-18,31,24,9
1522653544854328,24,5,23,-4,-3,-9,-6,-7
1522653544869368,-20,18,-6,16,38,-11,-16,-4
1522653544869368,-2,-11,8,18,-19,3,12,-3
1522653544871373,3,5,5,25,26,0,5,0
1522653544871373,25,-10,-7,0,-3,7,11,21
1522653544891427,-13,0,-2,-8,-12,17,5,-14
1522653544891427,2,10,0,-6,-5,-5,-2,-13
1522653544893432,-1,0,2,7,-2,-20,-7,3
1522653544893432,-32,-2,4,4,-2,21,-4,-21
1522653544905464,1,-12,6,12,5,3,5,20
1522653544905464,-8,5,-8,-12,-11,0,-6,-13
1522653544914488,28,-5,-5,-2,-30,-48,7,-2
1522653544914488,14,-2,-1,2,19,85,8,7
1522653544929528,6,-1,-3,8,4,-47,-19,-2
1522653544929528,-27,-2,-3,-13,2,-1,-6,3
1522653544930531,12,-1,2,-12,-36,-18,-9,-14
1522653544930531,-12,2,1,-10,18,-9,5,12
1522653544951587,-20,-11,-6,4,7,14,-9,-32
1522653544951587,28,-1,-8,-23,-18,1,14,38
1522653544953592,36,1,4,15,7,43,-8,13
1522653544953592,-35,-5,-4,-5,4,-20,5,-13
1522653544974649,15,4,8,21,5,57,8,9
1522653544974649,-11,2,-8,-18,-24,-43,-5,-8
1522653544975652,-67,-7,0,2,-4,8,-10,-23
1522653544975652,29,4,-5,-15,2,14,6,23
1522653544989688,-12,-4,-6,-19,-9,-10,-5,11
1522653544989688,36,-1,3,2,3,13,4,-29
1522653544990693,-37,-5,1,3,2,-5,-2,7
1522653544990693,41,7,2,2,-7,-17,-6,5
1522653545011747,-26,-2,1,-10,-4,-16,7,-10
1522653545011747,6,-4,-8,-11,-7,-7,-12,0
1522653545013752,5,-1,4,3,-6,17,8,5
1522653545013752,-7,-1,-5,2,-5,-25,1,10
1522653545034808,4,5,8,17,11,1,1,0
1522653545034808,-10,-6,-5,13,11,14,-2,-12
1522653545035811,5,-2,-11,-49,-32,4,0,9
1522653545035811,7,5,20,59,29,-4,-2,-7
1522653545049848,11,-10,-30,-62,-17,1,12,14
1522653545049848,0,10,13,-17,-2,14,4,-1
1522653545050851,6,2,18,23,-6,-21,-13,0
1522653545050851,5,3,-5,16,-2,-7,-10,-17
1522653545071906,-11,-11,-14,-4,-5,-5,0,-12
1522653545071906,-9,-2,-15,-27,17,4,1,2
1522653545073912,17,1,1,-29,-4,10,6,-15
1522653545073912,-10,8,39,35,-6,-17,-16,-5
1522653545093968,0,-13,-35,11,3,-12,4,26
1522653545093968,-11,3,-11,-17,-4,15,6,-6
1522653545095971,16,3,-2,12,12,-6,1,1
1522653545095971,-16,-4,-3,-15,-3,3,-2,-6
1522653545109005,6,6,18,25,-1,-6,-9,4
1522653545109005,-10,-5,-1,17,-2,10,-15,-7
1522653545115021,6,-2,-6,1,4,-5,13,13
1522653545115021,-22,0,-4,-7,1,-2,-6,-14
1522653545130061,-10,3,15,-8,1,-4,0,-21
1522653545130061,18,-3,-4,7,-4,-1,-1,11
1522653545139085,-10,1,4,15,2,-14,-9,-4
1522653545139085,-2,-1,-14,-25,-2,-3,8,7
1522653545154127,6,1,-1,-11,-1,-8,-7,-9
1522653545154127,12,5,17,36,3,-10,-4,14
1522653545156131,-7,-8,-3,10,-1,2,-17,-45
1522653545156131,-7,-2,-18,-31,-7,-15,-4,-10
1522653545177187,7,2,-4,-6,0,-11,0,32
1522653545177187,19,-8,0,4,-8,10,0,1
1522653545178189,-59,-10,-6,-2,-1,-12,-13,-22
1522653545178189,9,-4,-5,-24,-6,8,-2,28
1522653545190221,14,9,14,16,7,9,9,-9
1522653545190221,-19,-8,-10,-20,-15,-17,-9,0
1522653545199245,35,2,3,10,11,9,14,4
1522653545199245,-14,-5,-3,-15,2,10,2,9
1522653545214285,3,1,6,14,-3,-7,-7,-32
1522653545214285,2,-2,0,11,3,5,-1,9
1522653545216291,23,1,-12,-26,-14,6,13,44
1522653545216291,-38,-3,4,11,5,-2,-6,-39
1522653545236344,8,-3,1,9,-1,-3,-1,14
1522653545236344,-4,5,11,17,0,1,-7,-20
1522653545238349,6,4,3,7,16,9,-2,14
1522653545238349,13,-3,-16,-13,-9,6,18,14
1522653545259405,4,2,-1,-18,-8,5,-2,8
1522653545259405,-19,6,27,12,1,-22,-8,-20
1522653545261411,-19,-8,0,23,0,-3,-4,-17
1522653545261411,13,-7,-16,-3,-17,-2,-6,9
1522653545273443,-11,-2,-11,-19,1,8,5,-11
1522653545273443,8,0,-5,-35,-12,1,6,16
1522653545280461,-5,6,24,42,8,-10,-4,-17
1522653545280461,0,-1,2,49,8,-7,-8,-8
1522653545296504,2,-13,-48,-63,-10,5,5,6
1522653545296504,0,-1,-9,-23,-4,7,9,-8
1522653545298509,13,16,44,35,13,-6,-4,28
1522653545298509,-13,-25,-55,-12,-42,-26,-16,-24
1522653545319565,1,4,10,17,8,10,9,9
1522653545319565,7,-5,-23,-28,-5,1,6,19
1522653545320568,1,0,-13,-40,-21,2,0,-32
1522653545320568,5,9,30,27,18,-6,-11,1
1522653545333603,-5,1,16,24,10,-11,-12,11
1522653545333603,0,-4,-7,2,-10,3,8,-4
1522653545340621,-25,-3,-9,3,-2,-2,-6,26
1522653545340621,15,0,6,-15,6,-5,3,0
1522653545356664,9,4,1,9,-4,-2,-5,-12
1522653545356664,-18,2,10,19,6,-4,2,1
1522653545358669,-47,-10,-18,-17,-6,-5,-4,-19
1522653545358669,52,9,4,-11,18,22,9,22
1522653545370701,6,-5,8,-1,-9,-23,11,26
1522653545370701,-10,1,4,17,8,9,-5,4
1522653545379726,28,-4,-15,-18,4,9,4,-16
1522653545379726,3,4,5,-18,-5,14,-2,2
1522653545393763,8,4,17,26,6,-27,-11,-6
1522653545393763,-3,-5,-4,1,4,19,-3,-7
1522653545400781,33,0,-12,-19,-7,3,11,32
1522653545400781,-79,-4,5,9,14,18,-11,-7
1522653545416824,46,-2,-2,-2,-15,-8,-5,12
1522653545416824,-48,-3,5,17,6,1,12,-13
1522653545418829,5,-3,-9,-24,-15,-22,-4,-3
1522653545418829,0,1,8,-9,2,-4,0,-23
1522653545438883,-14,-1,7,20,2,-5,-3,-25
1522653545438883,-20,-6,-5,-4,-4,-7,-15,-16
1522653545440888,28,2,-1,0,-1,6,18,13
1522653545440888,-3,3,5,-3,-2,2,7,29
1522653545453923,-23,-6,-5,10,7,3,-8,-29
1522653545453923,34,5,2,-10,-4,-6,1,10
1522653545460942,-18,0,2,27,6,9,0,-4
1522653545460942,19,5,2,-22,-7,-7,6,12
1522653545476984,-17,4,19,40,19,12,-4,-5
1522653545476984,18,-2,-13,-29,-8,-1,2,2
1522653545477987,-12,-1,-2,7,1,0,-7,-12
1522653545477987,7,-4,-20,-50,-6,6,6,-3
1522653545499043,-7,4,7,14,-2,10,-6,13
1522653545499043,-5,7,13,25,-7,-10,-5,-33
1522653545501048,-4,-15,-12,-14,2,-6,-5,28
1522653545501048,26,3,1,-14,-16,-5,4,9
1522653545514084,-49,-3,-1,-28,-10,10,1,-35
1522653545514084,-18,-9,1,65,15,-24,-18,-18
1522653545520099,4,0,-19,-55,-16,10,7,12
1522653545520099,1,0,-1,18,2,0,10,9
1522653545537144,13,0,-6,-16,3,11,8,10
1522653545537144,18,5,8,2,-1,-2,4,25
1522653545538147,-8,0,7,30,10,-3,-4,-26
1522653545538147,-8,-4,-4,7,9,-2,-4,1
1522653545559203,-8,-4,-3,-7,-5,7,6,4
1522653545559203,19,3,-3,-17,-10,-5,-6,-11
1522653545561208,38,7,3,5,7,19,4,30
1522653545561208,-13,-2,-6,-8,-3,-20,-10,-27
1522653545574243,32,-2,4,19,8,2,7,15
1522653545574243,-5,-3,3,13,4,12,1,20
1522653545580258,-46,-3,-3,7,3,-16,-3,-22
1522653545580258,40,-1,0,-16,1,6,1,3
1522653545597304,-31,-3,-3,14,0,-6,3,2
1522653545597304,6,-4,-9,-28,-13,-3,-10,-5
1522653545598307,-20,3,13,25,9,-7,1,9
1522653545598307,6,0,1,-7,-10,-11,-8,-4
1522653545619362,1,-4,-5,-19,-8,5,1,-28
1522653545619362,0,-1,-4,-3,-1,3,11,11
1522653545621368,19,-1,-2,-4,-7,-4,-21,-3
1522653545621368,-40,-3,-5,2,5,3,4,-8
1522653545633400,9,4,7,6,4,9,7,35
1522653545633400,-7,-5,-1,0,-1,-7,-10,-22
1522653545640419,-6,0,-9,-27,-15,-7,1,-25
1522653545640419,12,1,7,39,16,0,8,36
1522653545656461,13,-3,-16,-47,-20,-4,-9,-1
1522653545656461,-31,-1,9,17,8,-4,-2,-6
1522653545658467,16,-4,-16,-18,-18,-1,-2,4
1522653545658467,-13,-1,6,6,3,0,-1,0
1522653545679523,-4,4,19,31,17,5,-2,12
1522653545679523,13,-5,-23,-16,-18,-8,-2,-13
1522653545680526,7,-2,1,-8,-1,8,6,-4
1522653545680526,-8,3,4,18,-3,0,-7,-11
1522653545693560,-7,0,6,6,11,-4,-7,-4
1522653545693560,-3,-5,0,46,21,-7,-6,-7
1522653545700578,4,3,-10,-64,-35,-1,12,12
1522653545700578,-9,-2,-8,-33,-7,-3,-2,-16
1522653545716621,8,-3,-4,4,-5,-12,-10,2
1522653545716621,9,13,33,36,52,16,5,5
1522653545718627,-10,-10,-27,19,-2,-4,-6,-11
1522653545718627,3,-3,-5,-23,-2,14,11,-1
1522653545739683,4,5,8,3,-3,0,6,-7
1522653545739683,6,-1,-12,-41,-29,-8,-2,23
1522653545740685,-25,2,21,36,17,-3,-8,-40
1522653545740685,17,-1,0,17,6,-13,-4,0
1522653545752717,-7,-2,-10,-2,1,8,0,7
1522653545752717,-12,1,-1,-3,-7,3,2,-38
1522653545761741,28,2,5,14,14,8,2,36
1522653545761741,-69,-5,-2,0,-3,-13,-10,-42
1522653545776781,25,2,-3,-9,-2,2,-1,0
1522653545776781,-3,-7,-11,-19,-19,-9,-6,21
1522653545778787,-1,-3,5,1,3,6,1,-5
1522653545778787,55,9,2,5,-2,16,6,12
1522653545799843,-27,-4,-11,-22,-4,11,5,9
1522653545799843,-26,-4,-9,-10,-5,5,-12,-36
1522653545800845,40,2,1,-7,0,-16,-11,-5
1522653545800845,2,3,4,17,14,19,1,24
1522653545812877,-26,-6,4,17,-9,-16,6,-15
1522653545812877,31,0,1,-15,-6,5,4,14
1522653545821901,-17,3,9,5,5,-3,-6,2
1522653545821901,-9,-9,-16,-30,-12,-2,-7,-21
1522653545836941,25,-3,-10,-1,1,-10,-1,17
1522653545836941,-27,-4,0,-18,-5,-1,-6,-37
1522653545838946,28,6,18,40,15,0,7,39
1522653545838946,-24,-4,1,2,-8,-15,-4,-16
1522653545859000,-14,1,-4,-4,-4,6,5,0
1522653545859000,16,1,-3,-7,-9,-20,2,-3
1522653545861005,-3,-1,-5,-15,-5,12,1,8
1522653545861005,0,3,9,9,2,-4,8,27
1522653545873037,1,-1,9,7,1,-12,-16,-32
1522653545873037,2,-3,-9,-2,-4,-5,-3,5
1522653545882061,-16,-1,-8,-29,-4,-2,3,-4
1522653545882061,2,6,12,18,13,10,3,14
1522653545897101,7,0,7,4,-28,-5,-11,-16
1522653545897101,11,-2,-4,46,16,-12,-4,15
1522653545898104,-24,-7,-30,-70,-13,10,6,-13
1522653545898104,1,0,7,11,3,4,-4,-4
1522653545919160,1,-7,-23,-34,-13,4,-5,-20
1522653545919160,4,13,37,15,-19,1,1,10
1522653545921165,-14,-10,-16,36,48,0,0,-3
1522653545921165,10,1,-12,-40,-7,8,7,3
1522653545942221,1,9,22,1,9,1,-3,7
1522653545942221,-6,-10,-12,-46,-21,-2,-4,2
1522653545943224,0,2,7,45,-17,-10,-6,-6
1522653545943224,12,0,-3,1,26,0,-3,18
1522653545956259,-10,-12,-18,-16,-3,1,2,-8
1522653545956259,-6,3,2,-10,2,-1,2,-11
1522653545963277,-23,-2,15,19,0,7,-2,-14
1522653545963277,-14,-5,-3,13,0,-11,-2,4
1522653545979320,32,2,-4,5,-5,-2,6,18
1522653545979320,-42,-5,-4,7,3,-1,-12,-23
1522653545981325,-8,-10,-4,-13,-14,-28,-6,-2
1522653545981325,23,2,-2,5,-5,7,-2,-2
1522653545993357,-14,1,-3,-3,5,-5,8,35
1522653545993357,-57,0,-1,2,6,21,14,-5
1522653546002381,39,-5,3,-11,4,-14,-14,-36
1522653546002381,25,10,9,2,-5,-6,-8,26
1522653546016419,58,-4,-11,-30,-2,40,-1,-14
1522653546016419,13,-4,-15,-2,-2,-21,9,10
1522653546018424,-37,4,28,49,11,7,6,7
1522653546018424,-69,-4,-10,-30,-4,24,10,-26
1522653546039480,31,2,11,42,15,8,0,5
1522653546039480,30,-8,1,7,17,41,10,17
1522653546041486,5,6,-2,-13,-6,-4,-10,-2
1522653546041486,10,-5,-1,7,-11,-35,-15,11
1522653546052514,-45,3,-3,-9,8,48,28,-6
1522653546052514,31,2,-2,-15,-18,-75,-14,-3
1522653546061538,-15,-1,3,-7,-10,1,2,-10
1522653546061538,-20,-2,2,-1,-2,-11,-3,-20
1522653546076578,-1,-5,-9,-11,-10,-21,-15,-5
1522653546076578,16,4,5,12,8,13,-1,23
1522653546078584,10,6,8,-5,4,10,-1,-14
1522653546078584,0,-9,-17,-3,-9,-14,-6,-9
1522653546099640,1,4,14,9,9,-7,-2,16
1522653546099640,18,-7,-21,-20,-18,9,4,8
1522653546100643,-7,7,8,-2,-17,0,-2,21
1522653546100643,-5,0,27,76,-5,-2,-11,-16
1522653546112675,-13,-13,-36,-30,29,-11,-3,-11
1522653546112675,10,3,-3,-44,-35,13,13,21
1522653546121698,1,-9,-32,-42,-10,-5,3,-11
1522653546121698,26,11,26,37,11,7,18,11
1522653546136738,-13,-7,1,15,-47,-42,-24,2
1522653546136738,-4,-5,-15,-43,19,7,-7,-18
1522653546138744,15,17,52,66,-5,9,2,13
1522653546138744,-13,-8,-52,-107,32,-16,-10,-12
1522653546159800,-4,5,-29,-78,-40,19,19,8
1522653546159800,-1,6,24,45,18,4,-4,2
1522653546160803,-25,-5,-8,-51,-27,9,3,-36
1522653546160803,11,0,24,41,-6,-18,-10,8
1522653546172834,5,-2,8,42,10,-16,-9,8
1522653546172834,7,1,-11,1,8,1,5,-20
1522653546181859,-12,1,0,16,3,-9,-13,-9
1522653546181859,-14,-3,-3,8,12,27,-3,-28
1522653546196899,2,2,0,-3,7,-10,12,-2
1522653546196899,40,1,10,13,-8,-2,3,34
1522653546198904,48,-6,-8,8,18,-7,6,14
1522653546198904,-53,-1,-7,-17,-6,15,-3,-17
1522653546218957,1,5,11,5,2,-3,4,18
1522653546218957,-37,3,13,20,11,45,-1,-23
1522653546220963,91,10,-4,-9,6,-19,3,39
1522653546220963,-36,-12,-13,-25,-3,30,22,-3
1522653546232994,3,3,19,29,9,-25,-11,8
1522653546232994,2,-6,-15,-18,-5,19,21,-1
1522653546242019,-99,-14,-10,1,15,36,8,-35
1522653546242019,52,2,-3,0,-7,-22,-16,28
1522653546257059,1,2,1,-2,-3,0,-1,-21
1522653546257059,8,0,-3,19,-7,-78,-12,20
1522653546258061,-103,-5,-2,-5,5,46,-20,-35
1522653546258061,63,-1,-6,-18,-14,4,28,16
1522653546279117,1,0,6,30,4,15,-2,-15
1522653546279117,-5,-9,-9,-24,-4,-34,-8,9
1522653546281123,-4,0,-1,-1,-4,2,-2,12
1522653546281123,8,1,7,4,-1,-8,-10,12
1522653546293154,-17,-6,-9,-21,-7,-1,-6,-24
1522653546293154,1,4,5,1,-5,-5,-11,3
1522653546302179,-2,-5,-1,7,5,-12,5,-2
1522653546302179,-4,1,2,10,0,2,-3,-7
1522653546316216,14,3,10,12,5,-1,1,13
1522653546316216,-5,3,0,1,-18,2,-6,-6
1522653546323235,15,6,23,38,30,-6,1,9
1522653546323235,5,-13,-48,-61,-35,-11,-3,4
1522653546339277,-15,-4,29,31,15,17,4,-13
1522653546339277,-19,7,-16,-24,-18,-2,-8,-13
1522653546341283,29,-1,3,-12,34,7,16,32
1522653546341283,-6,1,-3,67,27,3,-8,-5
1522653546353314,-2,10,-19,-73,-46,-2,4,-1
1522653546353314,4,-8,25,56,14,8,-12,-28
1522653546362339,4,5,-12,16,-5,-13,2,19
1522653546362339,3,-7,-12,-43,-4,-3,5,1
1522653546376376,-31,-8,-2,36,35,7,-3,11
1522653546376376,16,-4,-14,2,-19,-11,2,-6
1522653546383395,2,8,2,-30,15,8,-9,-14
1522653546383395,5,3,17,31,-11,-16,5,12
1522653546399437,-4,-3,-7,-3,2,-1,-10,-21
1522653546399437,12,1,6,7,7,26,5,25
1522653546401443,-15,-14,-12,2,-17,-24,-4,-19
1522653546401443,16,1,-1,-14,0,6,-9,-15
1522653546421496,-16,-7,0,1,-6,9,15,5
1522653546421496,-36,5,6,1,12,-29,-15,3
1522653546423501,48,4,-7,-9,-15,-22,12,-24
1522653546423501,13,-4,1,-6,-4,33,5,35
1522653546436536,-27,-2,4,10,1,10,-15,-41
1522653546436536,22,0,0,2,11,6,5,16
1522653546442552,-30,3,-4,-22,-18,14,-8,-18
1522653546442552,20,3,9,4,5,-3,-3,17
1522653546459597,-4,-3,-11,-9,2,37,-4,-21
1522653546459597,11,2,-2,-22,9,42,10,-5
1522653546460600,-7,0,5,9,-13,-31,-7,34
1522653546460600,-15,4,12,31,14,0,9,-2
1522653546481655,-5,-5,-13,-12,21,66,-7,18
1522653546481655,30,7,7,-3,-10,-20,19,-5
1522653546483661,52,9,8,9,1,18,3,13
1522653546483661,-70,-9,-9,-15,-4,-3,-2,-22
1522653546495693,7,-9,6,15,0,-34,-14,18
1522653546495693,-12,4,-1,-10,-7,4,20,9
1522653546502712,0,-6,-3,4,-4,2,-12,9
1522653546502712,20,7,6,-8,-6,14,6,11
1522653546519757,-27,-4,-2,-1,-9,-43,-6,-15
1522653546519757,26,-3,-2,-2,3,5,0,2
1522653546520760,-8,-5,-4,-8,-5,-19,0,1
1522653546520760,-15,5,6,3,3,-2,2,-8
1522653546541816,8,-2,4,0,-2,-15,0,-17
1522653546541816,-12,-5,-8,11,3,-7,-11,-5
1522653546543821,-30,-1,0,-1,2,9,4,-14
1522653546543821,-1,4,10,17,14,5,0,8
1522653546555853,25,1,5,3,-18,-21,0,5
1522653546555853,-11,-18,-18,69,19,-5,-9,-8
1522653546562872,19,31,10,-25,-28,19,12,15
1522653546562872,-11,-26,-20,-1,40,-19,-15,-6
1522653546578915,30,16,-3,-4,-18,1,13,12
1522653546578915,-12,-2,9,-2,48,5,-9,1
1522653546580920,-12,-19,-29,-66,-27,27,12,-2
1522653546580920,2,6,14,-8,-47,-20,-17,-18
1522653546601976,11,6,32,28,-21,-16,6,6
1522653546601976,-12,-15,-21,38,26,-14,-15,-4
1522653546602978,18,-1,-13,-36,-20,10,18,27
1522653546602978,-9,4,-3,-14,12,-28,-4,4
1522653546616013,-24,-19,-18,-20,-14,28,-4,-47
1522653546616013,41,18,21,5,-11,-5,1,13
1522653546623032,-18,-9,-2,21,13,-11,-13,-11
1522653546623032,-14,8,1,5,-5,15,15,11
1522653546639074,0,1,-2,10,10,-25,-17,-22
1522653546639074,35,-5,-9,-37,-17,2,1,35
1522653546641080,4,-7,0,23,30,5,-1,0
1522653546641080,-32,-6,0,-8,-24,-18,-1,-32
1522653546662136,-8,5,2,9,21,-16,5,12
1522653546662136,-33,-1,3,-28,-14,19,-5,-23
1522653546663139,46,2,2,-2,-5,-9,-7,4
1522653546663139,29,-1,-3,12,-4,-10,-23,1
1522653546676173,5,6,-4,-16,7,37,35,22
1522653546676173,-32,1,6,12,-5,-3,7,-23
1522653546683192,8,0,6,15,8,0,0,1
1522653546683192,5,-2,0,-2,-3,-11,-12,-9
1522653546699234,-48,-5,-6,-2,16,11,-10,-12
1522653546699234,66,3,-6,-31,-22,-28,-10,-13
1522653546701240,-94,-5,-4,4,0,0,6,-19
1522653546701240,75,6,6,10,5,-5,15,32
1522653546722295,-14,-11,-9,-30,-23,-44,-25,1
1522653546722295,-12,0,1,-5,-11,-4,3,14
1522653546723299,12,-5,2,12,11,4,-12,8
1522653546723299,-12,3,5,3,-3,-3,3,-8
1522653546736333,37,5,2,8,3,7,4,25
1522653546736333,-48,-1,2,-8,1,4,-4,-20
1522653546743352,1,-2,-5,-4,-6,-19,-12,-8
1522653546743352,-7,0,4,-1,5,32,12,-6
1522653546759394,19,2,-4,7,-10,-8,1,14
1522653546759394,-10,1,8,9,5,6,-3,-2
1522653546761400,13,5,9,-5,-75,-20,-3,3
1522653546761400,-22,-17,-43,-45,41,14,2,-8
1522653546781453,25,11,8,-3,17,16,15,25
1522653546781453,-8,4,7,49,23,-3,-10,1
1522653546783459,4,-6,-4,2,6,2,-3,-5
1522653546783459,-16,-2,2,9,-33,-17,-15,-33
1522653546795491,12,-2,-4,18,42,-19,-5,19
1522653546795491,2,-5,-19,-16,3,21,12,17
1522653546804514,37,6,13,7,-8,4,2,25
1522653546804514,-20,-7,-8,3,19,1,-2,-18
1522653546818551,5,2,12,11,-15,13,2,-35
1522653546818551,-40,-7,3,9,-1,-11,-22,-21
1522653546825570,13,-1,-11,8,20,-12,7,3
1522653546825570,23,4,1,-2,-10,17,15,33
1522653546841613,33,5,4,-6,-5,-27,-2,19
1522653546841613,-73,-6,0,-21,-14,31,6,-48
1522653546843619,4,-6,-5,3,21,27,-11,-8
1522653546843619,-6,1,5,0,-21,-20,-8,5
1522653546855650,10,0,2,10,9,8,13,-4
1522653546855650,9,6,-4,-21,-9,-13,-4,6
1522653546864674,-40,1,3,1,13,-10,5,0
1522653546864674,28,-7,1,6,3,12,-1,-15
1522653546879714,17,-5,-13,-9,-13,18,4,21
1522653546879714,-32,0,3,-15,-7,-7,12,6
1522653546880717,-51,-11,-1,-1,1,3,-11,-57
1522653546880717,7,4,4,-2,-3,-5,-1,12
1522653546901773,15,-1,-6,-10,-8,-9,-15,-13
1522653546901773,92,-8,-8,-13,-9,10,-3,20
1522653546903779,-86,-1,2,-17,-5,-12,-13,15
1522653546903779,-57,-3,12,30,17,34,35,-28
1522653546915810,13,-1,-8,0,-13,-40,-14,-5
1522653546915810,-2,5,5,-1,7,33,5,-8
1522653546924834,4,0,-4,-1,2,-20,-3,14
1522653546924834,0,0,-3,-15,-8,3,-11,1
1522653546938871,-9,3,11,0,5,49,7,-5
1522653546938871,10,-4,-10,-12,-13,-45,-16,7
1522653546940877,43,2,5,-5,0,5,5,14
1522653546940877,-19,-2,9,13,-5,-10,-10,8
1522653546961933,-22,-12,-24,19,-13,-8,-10,-23
1522653546961933,0,2,-3,-31,-1,16,15,7
1522653546963939,22,19,51,97,17,-5,2,10
1522653546963939,6,-27,-61,-45,82,3,0,1
1522653546975970,-15,12,8,-70,-4,24,13,3
1522653546975970,-7,-13,-13,0,-81,-16,-2,-15
1522653546983992,21,6,22,47,94,-4,4,17
1522653546983992,15,8,-4,-15,-18,3,0,12
1522653546999031,-1,8,22,45,-2,-18,0,4
1522653546999031,-26,-10,-34,-93,-2,1,-4,-19
1522653547005048,34,3,9,-11,-33,10,11,7
1522653547005048,-50,-5,18,47,-1,-25,-23,-22
1522653547022093,-3,-13,-15,-1,21,1,-10,-21
1522653547022093,-27,11,22,31,-11,-6,4,10
1522653547023096,30,-5,-21,1,-7,-4,2,33
1522653547023096,-35,-3,-9,-19,-16,-2,1,-23
1522653547035128,-17,-7,-10,-10,-19,2,0,-20
1522653547035128,65,14,23,44,31,2,9,14
1522653547044152,-49,-11,-31,-41,-8,7,-5,-25
1522653547044152,-5,4,13,4,-10,12,12,6
1522653547059192,32,1,9,8,-3,-10,7,13
1522653547059192,-55,-2,-5,8,10,-21,-24,-18
1522653547061197,43,2,-12,-34,-4,26,14,17
1522653547061197,102,6,8,-2,-19,14,18,19
1522653547082253,-128,-1,7,16,4,-12,-11,-34
1522653547082253,107,1,-4,-6,22,0,10,31
1522653547083256,-48,-6,-16,-34,-26,24,3,-8
1522653547083256,84,12,10,18,-2,-25,-23,20
1522653547095288,33,-5,0,19,3,-24,2,17
1522653547095288,-107,4,10,7,7,37,17,-18
1522653547104312,-23,2,0,-10,-4,1,-5,-5
1522653547104312,67,-8,-11,-10,-6,-5,1,16
1522653547118349,-32,1,6,-5,5,7,-3,13
1522653547118349,11,-2,-1,-7,-6,-26,-6,-14
1522653547125367,-23,-6,-5,15,-3,-11,-13,-7
1522653547125367,-18,1,-1,-15,-10,-8,-10,-10
1522653547141410,20,0,-7,7,-9,-34,-11,8
1522653547141410,-1,1,6,11,-3,2,5,15
1522653547143416,19,-5,-10,-17,-4,2,-14,-20
1522653547143416,-30,2,3,11,-2,0,4,4
1522653547155448,15,3,11,-4,-9,10,3,-9
1522653547155448,17,-8,-14,26,11,-9,-9,11
1522653547164472,4,-9,-24,-39,-15,-28,3,-10
1522653547164472,-39,6,21,20,6,20,5,-8
1522653547179512,13,-10,-20,-7,4,3,1,3
1522653547179512,13,14,32,13,-47,3,-4,4
1522653547180515,-4,-6,-3,44,72,-20,-5,-8
1522653547180515,-17,-3,-19,-62,-40,14,10,8
1522653547201570,1,-5,-11,-34,-4,2,-2,9
1522653547201570,3,-4,-17,-23,11,8,3,-1
1522653547203576,13,9,29,26,-38,-14,-3,-10
1522653547203576,-39,-3,6,-14,-6,-26,-24,5
1522653547215607,-8,-5,-17,57,38,13,0,-20
1522653547215607,12,-1,-17,-61,-5,6,10,-1
1522653547224632,8,-1,-5,-27,-22,3,-2,6
1522653547224632,31,4,4,20,2,-1,-1,-2
1522653547239672,-92,-8,7,3,-21,-10,-14,-48
1522653547239672,18,-6,-4,19,16,1,-5,15
1522653547240675,23,5,-4,2,14,17,5,-7
1522653547240675,-17,3,6,22,-4,1,0,22
1522653547261730,69,-3,-2,-15,2,-7,2,8
1522653547261730,-23,1,6,15,10,-8,2,-6
1522653547263736,18,6,0,-11,-13,-4,10,41
1522653547263736,-22,-15,-5,4,0,-19,-12,-51
1522653547275768,46,18,13,-9,1,23,16,52
1522653547275768,-90,-19,-6,-5,5,23,-7,-63
1522653547284792,-13,-1,-4,-2,-9,-23,-1,17
1522653547284792,23,-4,-5,-4,2,-18,-2,-13
1522653547298829,3,1,2,11,8,35,21,7
1522653547298829,113,13,6,9,-5,-12,-6,38
1522653547305848,-107,-13,-10,-12,1,25,-8,-41
1522653547305848,-27,-8,-1,7,5,-2,0,-9
1522653547321890,-8,-2,2,-9,-10,-35,-23,-21
1522653547321890,34,7,4,10,8,-7,-5,20
1522653547323896,40,6,-2,-18,-10,-4,3,-5
1522653547323896,-28,2,-3,9,4,-8,-30,-21
1522653547343949,1,-3,-1,-10,-11,-4,10,23
1522653547343949,-10,-4,2,3,-1,-15,-5,-4
1522653547345954,15,-4,-4,-1,-4,-19,-11,3
1522653547345954,-18,6,5,3,-1,8,8,7
1522653547358989,-12,0,5,9,5,30,-2,-11
1522653547358989,-9,-6,-9,2,-1,-6,-3,1
1522653547366008,15,-1,1,-15,-24,6,9,-8
1522653547366008,7,-4,-3,14,12,1,5,2
1522653547382050,16,-1,-10,-23,0,-6,-3,18
1522653547382050,-9,4,22,10,0,4,-1,-4
1522653547383053,-1,-10,-24,3,16,-5,-10,-6
1522653547383053,8,2,-6,-40,-68,-16,7,10
1522653547404109,-3,2,16,37,17,-21,-17,-10
1522653547404109,-29,-11,-32,-42,-10,9,1,-12
1522653547406115,2,-3,-14,-27,-6,14,17,8
1522653547406115,21,11,20,14,3,15,12,8
1522653547419149,-7,-5,7,13,33,-12,-25,-20
1522653547419149,-17,-13,-31,-18,-81,-26,-10,-12
1522653547425165,10,5,33,84,58,-13,0,0
1522653547425165,6,-14,-58,-120,0,34,17,6
1522653547442210,9,-1,-3,-31,-17,15,15,11
1522653547442210,-18,10,23,45,42,0,-10,-30
1522653547443213,16,-2,2,11,-18,-3,-5,-8
1522653547443213,1,3,13,45,13,-13,-8,7
1522653547464269,-24,0,-3,12,12,9,1,-14
1522653547464269,-6,-5,-4,3,3,7,2,-3
1522653547466274,-51,0,-1,-18,-13,4,1,-14
1522653547466274,41,6,17,28,20,9,-4,-5
1522653547478306,10,-1,-15,-24,-27,-16,5,13
1522653547478306,98,8,7,-5,3,-1,-2,33
1522653547485325,-70,-2,4,-10,-3,5,2,2
1522653547485325,-12,3,3,18,11,-5,-3,-35
1522653547501367,-51,-8,-6,-10,-15,-20,0,-3
1522653547501367,63,9,3,-6,8,-3,2,44
1522653547503373,-11,-5,-10,-20,2,14,4,-16
1522653547503373,-10,-10,-1,10,14,27,4,17
1522653547524429,-11,0,5,17,-16,-13,6,-17
1522653547524429,-24,-2,6,6,16,41,9,-10
1522653547526434,34,-1,-5,-15,-21,-79,-21,18
1522653547526434,36,12,10,17,15,49,0,9
1522653547538466,57,-10,-10,-12,-16,-28,4,15
1522653547538466,-59,3,-5,-21,3,-32,-12,-5
1522653547545485,29,4,6,-6,14,44,2,2
1522653547545485,-26,-1,16,40,-5,-25,4,-8
1522653547561527,-25,2,6,16,8,-7,-16,-7
1522653547561527,-7,0,1,7,1,19,9,0
1522653547563533,-6,-2,-9,-18,-10,-6,-1,-3
1522653547563533,-27,-7,-7,-9,-8,-27,-7,-7
1522653547584589,12,4,1,-10,-2,18,-9,-5
1522653547584589,-7,-1,2,-1,1,-16,3,-9
1522653547585592,4,2,3,15,7,9,6,14
1522653547585592,4,-2,-6,-10,1,7,6,11
1522653547597624,9,1,2,3,-5,10,-2,-6
1522653547597624,-37,-5,-5,-9,-2,8,4,-13
1522653547606648,18,2,11,39,1,1,-3,11
1522653547606648,3,0,-10,-38,-8,-5,0,-1
1522653547621687,-5,6,14,15,-20,14,11,5
1522653547621687,-5,-6,-17,-24,28,-7,4,7
1522653547623693,17,4,8,-24,-26,18,0,7
1522653547623693,-16,-2,12,85,22,-29,-5,7
1522653547644749,-2,-10,-25,-56,31,27,7,-1
1522653547644749,9,8,0,-41,-21,7,5,-1
1522653547645752,15,-1,15,82,58,-4,1,5
1522653547645752,-14,-1,-17,-77,-111,-9,-4,-16
1522653547657783,-5,-10,-23,-45,59,-6,-6,-4
1522653547657783,18,5,13,15,9,14,8,18
1522653547666808,-44,-2,0,-4,7,1,6,-31
1522653547666808,18,7,14,36,26,-6,-14,6
1522653547681847,31,6,4,35,-33,-12,-7,14
1522653547681847,-86,-13,-6,0,-5,-4,-20,-51
1522653547683853,15,4,-3,-15,-17,-4,14,9
1522653547683853,29,-5,-3,14,9,2,1,3
1522653547703906,14,-5,-10,-23,-23,-3,-13,-3
1522653547703906,-30,-1,5,18,6,15,7,1
1522653547705912,5,-9,-3,-4,-3,-48,-7,-4
1522653547705912,2,9,-4,-10,19,28,19,-8
1522653547717943,2,9,7,7,1,41,9,-23
1522653547717943,-26,-7,7,22,22,31,-4,-8
1522653547726968,64,-3,-14,-23,-38,-69,-21,6
1522653547726968,-51,-2,-11,-32,-4,-95,-13,5
1522653547742007,-13,4,10,21,29,102,43,14
1522653547742007,-98,-5,2,15,6,31,3,-44
1522653547743010,68,-7,-15,-31,-8,27,4,7
1522653547743010,80,13,7,4,3,-17,-3,24
1522653547764066,-73,-1,8,23,-9,-87,-19,-7
1522653547764066,17,-15,-14,-12,-10,-12,12,9
1522653547766072,-62,0,-4,-7,23,55,5,-6
1522653547766072,-3,-13,7,13,20,26,17,21
1522653547778103,-26,-5,-7,-20,-34,-16,-28,-20
1522653547778103,57,10,10,24,0,-34,-1,17
1522653547787128,-34,5,0,-14,-15,3,0,5
1522653547787128,15,2,1,3,-1,6,-11,-9
1522653547802167,-7,-15,-9,-7,-10,-31,-13,9
1522653547802167,21,7,3,-3,-7,-21,-10,-1
1522653547803170,-6,5,3,-1,-4,5,3,-3
1522653547803170,-24,-6,-2,-2,0,17,-14,-17
1522653547824226,23,5,16,31,-13,-30,-11,-4
1522653547824226,11,-16,-30,-44,-11,-6,-9,1
1522653547826232,15,10,13,-7,2,29,12,6
1522653547826232,-32,-4,11,43,-8,-5,0,-9
1522653547838263,15,-10,-29,-70,-67,6,11,3
1522653547838263,45,24,61,119,77,-32,-5,25
1522653547847288,-26,-21,-69,-93,-58,12,1,-3
1522653547847288,-11,-3,-13,-67,25,37,14,-8
1522653547862327,20,8,20,45,78,8,-1,-10
1522653547862327,11,-6,-13,-40,-50,1,9,24
1522653547863330,-21,-1,25,28,-34,-45,-22,-4
1522653547863330,-1,-11,-35,3,65,-7,-12,-17
1522653547884386,11,6,-9,-65,-32,33,23,31
1522653547884386,19,10,13,8,15,-21,-6,22
1522653547886392,21,4,18,33,13,8,-22,-56
1522653547886392,-21,1,9,21,-33,-4,-5,10
1522653547898423,-50,-15,-2,39,32,3,-17,-26
1522653547898423,-33,0,-8,-13,-33,-1,9,0
1522653547907448,51,-1,-3,10,22,-17,1,4
1522653547907448,-98,-6,9,11,-5,6,8,3
1522653547920482,71,7,2,2,5,7,6,-7
1522653547920482,33,-13,-12,-12,-4,-3,2,-6
1522653547929506,-68,2,3,12,18,16,-14,-32
1522653547929506,57,14,6,-5,0,1,17,29
1522653547944546,3,-10,-5,0,-11,-34,-16,-17
1522653547944546,23,19,5,-7,-9,1,1,32
1522653547945549,-60,-13,0,5,44,77,6,-19
1522653547945549,98,-10,-5,-14,-45,-61,14,14
1522653547957581,-23,4,-1,-6,-1,49,12,7
1522653547957581,0,-2,-3,9,6,15,4,16
1522653547966605,-44,7,0,0,-9,-8,5,19
1522653547966605,-46,-16,-10,-19,24,85,2,1
1522653547981645,-4,1,19,47,9,34,20,-21
1522653547981645,-13,-2,-6,-11,7,-52,-16,-12
1522653547983650,48,3,1,4,12,2,20,40
1522653547983650,16,6,3,1,-6,-16,-22,-25
1522653548004706,43,5,-6,-20,-2,0,-1,29
1522653548004706,-39,2,-1,4,-3,10,-6,-12
1522653548005709,-86,-15,-2,1,-6,-17,-10,-37
1522653548005709,59,9,8,1,-12,8,-15,-11
1522653548017741,-36,-2,5,-1,-12,-38,-4,19
1522653548017741,4,-5,-15,-18,-12,5,1,-14
1522653548026765,52,5,11,16,-6,-19,15,11
1522653548026765,-49,-9,-8,13,6,-4,-15,-24
1522653548041805,9,0,-13,-25,-27,-13,2,19
1522653548041805,1,2,23,35,30,10,1,-4
1522653548043810,42,-8,-38,-43,49,-4,6,20
1522653548043810,-5,15,40,5,-5,17,14,12
1522653548063864,-9,-9,-11,33,-53,-34,-20,-25
1522653548063864,2,-6,-4,-30,22,1,7,9
1522653548065869,1,1,-10,-55,-82,-15,-11,10
1522653548065869,-1,1,0,64,110,-5,0,4
1522653548077901,28,-4,-29,-86,-11,36,33,20
1522653548077901,-27,2,21,16,-28,2,-3,-29
1522653548086925,33,-2,-2,8,-20,-29,-18,-1
1522653548086925,-32,-1,3,15,-24,-22,-15,-21
1522653548100962,-34,1,14,25,14,-2,-15,-28
1522653548100962,20,-13,-35,-24,-22,-5,2,13
1522653548107981,5,12,21,30,27,18,9,1
1522653548107981,-36,-10,-14,-25,-40,7,-17,-36
1522653548124024,23,4,6,29,30,-38,-7,17
1522653548124024,53,4,-3,-11,3,49,8,29
1522653548126029,-53,-1,7,7,4,-5,7,2
1522653548126029,44,-6,-1,-5,-12,4,14,-32
1522653548138061,-58,-5,-1,-10,-4,-37,-11,9
1522653548138061,83,7,6,-2,4,7,-20,-6
1522653548147085,20,-3,0,3,-2,-10,8,32
1522653548147085,-110,-5,-6,-15,-13,-7,-20,-55
1522653548162125,25,-4,8,9,20,25,10,1
1522653548162125,55,13,0,2,-14,-38,8,14
1522653548163128,-37,-10,-2,12,21,45,3,15
1522653548163128,41,3,-6,-15,-13,-33,-5,28
1522653548184183,8,7,3,3,-5,-23,-14,-16
1522653548184183,-48,-9,-1,3,3,2,19,-1
1522653548186189,19,13,2,-6,-9,-17,-13,-33
1522653548186189,38,-11,-3,-1,-5,25,12,30
1522653548198221,-13,-7,5,10,7,-4,-7,-13
1522653548198221,28,-3,-10,-9,-12,-14,-6,-3
1522653548207245,-104,-1,-3,-12,2,-5,3,3
1522653548207245,76,1,6,4,-12,19,18,27
1522653548221282,20,10,5,14,3,-32,-13,-11
1522653548221282,-41,-11,-4,-6,-4,7,-17,-25
1522653548228301,39,3,-1,0,-5,-15,-11,1
1522653548228301,-5,8,2,-15,0,26,10,9
1522653548244344,-28,-4,-4,-2,10,33,9,18
1522653548244344,-31,6,11,6,11,24,27,-5
1522653548246349,26,-4,0,-1,0,-25,-20,-18
1522653548246349,10,2,-5,11,5,20,17,42
1522653548258381,-13,3,9,6,-17,-5,-2,-32
1522653548258381,-10,1,-2,18,21,-5,-9,1
1522653548267405,20,-6,-12,-19,-49,3,1,-1
1522653548267405,-9,-2,-2,6,29,-17,-4,-1
1522653548281442,12,1,-20,-50,-38,13,0,9
1522653548281442,-18,-10,-26,-48,-19,-11,6,8
1522653548288460,29,17,44,83,-10,-8,-1,0
1522653548288460,-27,0,16,14,77,-38,-23,-2
1522653548304503,4,-14,-61,-64,-33,9,1,-3
1522653548304503,-6,4,11,23,-15,16,10,-2
1522653548306509,16,1,17,41,-10,-28,-19,-19
1522653548306509,-21,-17,-43,-77,-35,-15,-11,-32
1522653548326562,8,9,19,9,18,16,11,23
1522653548326562,-14,3,2,-21,52,-1,-11,-37
1522653548328568,7,-5,-7,-10,-21,10,6,19
1522653548328568,10,13,26,58,-8,1,9,11
1522653548341602,-29,-9,-2,19,39,-3,-8,-38
1522653548341602,-3,-9,-9,-10,-41,1,-7,14
1522653548347618,17,4,1,10,29,-1,-8,-27
1522653548347618,32,0,-9,-1,-10,-19,7,30
1522653548364663,3,-5,-1,-14,-8,15,-1,-5
1522653548364663,-50,2,14,23,-2,-4,-2,-5
1522653548365666,-19,-15,-15,-11,28,1,-4,-11
1522653548365666,18,-3,-11,-26,-17,-2,0,-5
1522653548386722,47,9,17,22,-4,-11,14,38
1522653548386722,-56,-1,3,12,3,-16,-17,-6
1522653548388727,-40,-14,-19,-25,26,5,9,-13
1522653548388727,14,3,4,-4,-36,-29,-10,15
1522653548400759,32,9,13,23,10,-12,-11,-11
1522653548400759,-19,-12,-12,-8,4,-2,1,-14
1522653548407778,-14,2,-6,-20,0,22,12,13
1522653548407778,-31,0,4,3,-7,24,15,-6
1522653548424823,2,11,17,24,6,-18,-12,-20
1522653548424823,29,-8,-10,-18,-4,1,13,27
1522653548425826,89,11,-3,-8,-4,-8,0,36
1522653548425826,-95,-5,0,7,-3,8,-7,-30
1522653548446882,-14,-15,-7,-7,11,2,-18,-2
1522653548446882,21,14,3,-18,-19,-2,16,5
1522653548448887,8,5,9,25,9,-1,5,-2
1522653548448887,-23,-4,-5,-8,-7,-7,-7,12
1522653548460919,-42,-1,4,-5,4,22,6,-6
1522653548460919,1,0,7,11,2,-8,-13,0
1522653548469944,11,-5,-11,-11,0,10,0,-11
1522653548469944,36,6,10,10,2,1,-3,13
1522653548483981,-16,-2,-2,23,-19,-18,-3,8
1522653548483981,28,5,12,42,40,5,-4,17
1522653548485986,5,-11,-28,-34,8,14,14,6
1522653548485986,-8,1,0,2,-44,1,-1,-36
1522653548507042,3,1,6,4,36,-4,1,24
1522653548507042,25,11,20,29,-70,-2,0,13
1522653548508045,-9,6,22,-9,0,-13,-3,-9
1522653548508045,-16,-22,-65,-48,34,26,6,-7
1522653548520077,39,4,-19,-59,-30,37,36,31
1522653548520077,11,5,12,-5,-19,-23,-23,-33
1522653548529101,-16,3,24,43,-27,-19,-16,4
1522653548529101,8,11,40,79,36,-15,-13,-13
1522653548544141,21,-5,-21,-22,-1,-9,-6,-2
1522653548544141,-25,-9,-24,-33,21,7,10,-1
1522653548546146,-17,5,10,9,11,21,5,-22
1522653548546146,31,1,5,4,10,5,2,-4
1522653548567202,-14,2,5,26,20,-3,0,3
1522653548567202,-19,-7,-8,-7,-7,0,0,1
1522653548568205,19,-4,-14,-6,4,2,-2,26
1522653548568205,-65,-7,5,-2,-4,17,8,-30
1522653548580237,67,7,8,3,-15,5,6,23
1522653548580237,-82,-19,-11,-3,1,-12,-12,-44
1522653548589261,39,3,-7,-8,10,-2,6,27
1522653548589261,3,-6,-9,-19,-19,-5,-8,-16
1522653548604301,4,8,15,15,6,-11,-3,20
1522653548604301,-45,-13,-7,-5,9,1,16,11
1522653548606307,3,-10,-11,-9,0,-11,-3,-9
1522653548606307,-19,6,9,-7,-20,-24,-9,-1
1522653548626862,25,15,8,11,5,7,-2,-33
1522653548626862,7,-3,-5,-6,10,13,4,37
1522653548628867,-77,-1,1,2,6,34,10,-8
1522653548628867,97,3,4,8,-4,24,18,36
1522653548640901,-10,-4,-2,6,0,-28,-18,3
1522653548640901,-17,6,4,-2,4,-3,-11,-39
1522653548649925,35,-3,-3,-9,-9,-3,6,33
1522653548649925,-41,1,2,-14,-5,-10,-9,-24
1522653548663962,-13,-8,3,19,1,-10,-1,0
1522653548663962,45,6,-5,-1,-1,12,-3,19
1522653548665968,-31,-5,-2,3,0,-17,-11,-29
1522653548665968,1,0,-1,-5,-5,-16,-4,11
1522653548687024,-26,-8,-2,-9,-7,26,5,-15
1522653548687024,32,2,-1,8,-1,-30,-19,-16
1522653548688027,13,-1,2,10,3,-4,-1,21
1522653548688027,5,-6,-11,-6,1,-1,0,-17
1522653548700058,-27,-3,3,-22,-67,-13,-1,-18
1522653548700058,15,-10,-18,38,29,9,-10,2
1522653548709083,0,2,3,36,25,12,7,-6
1522653548709083,13,-4,-14,-51,3,10,3,20
1522653548724122,-12,-6,-1,-16,6,19,12,-1
1522653548724122,12,5,12,5,-115,-37,-19,1
1522653548726128,0,-9,-21,-34,80,-4,-8,-3
1522653548726128,14,15,33,44,-25,18,25,12
1522653548747184,-19,-14,-33,11,43,-9,-4,-4
1522653548747184,19,5,-10,-49,-18,18,15,23
1522653548748187,4,6,17,14,-8,-11,-8,-18
1522653548748187,-1,4,6,7,-11,-10,-16,6
1522653548769243,10,0,1,4,13,-4,-1,24
1522653548769243,-12,0,5,17,29,10,15,-18
1522653548771248,-34,-3,-10,-8,-37,-2,2,2
1522653548771248,37,5,-1,19,25,-8,0,-17
1522653548784282,0,2,7,17,-8,10,8,20
1522653548784282,-21,-3,-5,-4,28,6,-2,-13
1522653548786288,15,-4,-2,-16,-13,-1,-2,-11
1522653548786288,-26,-7,-10,-10,-9,4,6,36
1522653548807344,23,5,8,8,15,-15,-12,-23
1522653548807344,-17,-4,0,-23,11,11,9,13
1522653548808347,22,-2,1,-4,-17,-4,-10,-23
1522653548808347,-2,-3,1,3,-5,-8,-15,5
1522653548820378,-71,-12,-3,-6,-7,-11,-3,-21
1522653548820378,39,12,5,5,25,24,16,20
1522653548829403,-25,-10,-5,1,-21,-14,-14,-25
1522653548829403,22,8,1,4,8,5,-4,-12
1522653548844442,-3,7,6,-9,1,-50,-12,2
1522653548844442,-90,-7,-2,0,1,39,-10,-11
1522653548846448,47,0,-7,-8,-16,-23,13,-3
1522653548846448,33,-1,0,-11,0,21,21,18
1522653548866501,-25,2,-3,9,-2,8,-14,-38
1522653548866501,28,0,-2,-2,-6,-19,0,18
1522653548868507,22,3,-2,-8,-11,2,-6,6
1522653548868507,-51,-4,7,9,4,-12,-8,-28
1522653548880538,24,6,4,-1,-5,4,-6,18
1522653548880538,26,-5,-10,-8,3,-14,-19,-27
1522653548889563,-12,-3,2,7,6,24,6,21
1522653548889563,10,0,-2,-3,-1,-1,3,18
1522653548904602,-25,-7,-7,-7,-2,11,2,-22
1522653548904602,30,5,13,5,-3,-10,-6,12
1522653548905605,-17,0,10,23,12,-9,-5,-2
1522653548905605,-1,-9,-33,-41,-17,-11,-5,9
1522653548926661,23,6,25,53,-1,10,8,-7
1522653548926661,-1,-8,-27,-26,9,-1,12,1
1522653548928667,3,0,-5,-47,-1,11,6,12
1522653548928667,-6,1,12,72,8,3,-4,-6
1522653548940698,17,7,9,-4,-56,-17,3,18
1522653548940698,12,-4,-6,11,85,3,1,-1
1522653548949723,-14,-6,-29,-74,-41,19,22,5
1522653548949723,5,3,12,-15,-22,-3,-12,-8
1522653548964762,-2,-2,2,18,14,-5,-12,-14
1522653548964762,-18,0,10,11,-10,-5,0,3
1522653548965765,-10,2,9,39,23,-10,-14,-20
1522653548965765,-29,-8,-16,-10,-8,-1,-1,-18
1522653548986821,12,1,5,4,10,13,11,-6
1522653548986821,46,2,-3,0,-15,-12,-8,21
1522653548988827,-23,3,2,18,21,20,0,-4
1522653548988827,-5,0,1,-7,-7,1,-6,6
1522653549000858,-8,-9,-12,-9,14,-9,-12,-40
1522653549000858,44,5,4,-16,4,23,20,55
1522653549009883,-26,-2,3,9,-19,9,4,-36
1522653549009883,52,6,2,8,10,-34,-6,43
1522653549023920,-2,-6,-9,-29,9,7,-10,-12
1522653549023920,-67,2,2,5,-13,3,2,-28
1522653549025926,67,4,7,11,-14,-25,-3,37
1522653549025926,-7,-5,-2,-10,-4,4,-14,-9
1522653549046981,-28,-4,-7,-14,13,29,30,31
1522653549046981,36,5,6,-10,-21,14,0,-9
1522653549048987,-47,-6,9,26,4,-40,-2,-10
1522653549048987,49,3,-3,-17,9,-3,1,-7
1522653549069040,-47,11,3,8,-1,-5,-11,-2
1522653549069040,48,-7,-1,9,-10,-41,-10,8
1522653549071045,-59,-6,-7,-10,10,53,9,-5
1522653549071045,1,-6,-4,1,6,9,1,-14
1522653549084080,-23,-1,2,-6,2,-3,-18,0
1522653549084080,-27,-3,2,7,-7,-20,1,-32
1522653549090096,52,2,0,-5,-5,-17,3,54
1522653549090096,-45,-9,-4,0,3,25,5,-49
1522653549107141,17,4,2,3,8,-17,-9,14
1522653549107141,-7,2,8,1,2,-4,-7,-6
1522653549108144,14,-4,-2,20,-14,-2,-9,8
1522653549108144,-21,1,4,-16,15,25,21,3
1522653549120176,23,-1,2,30,8,-4,4,9
1522653549120176,-9,-5,-8,-28,-11,10,8,5
1522653549129200,0,5,-5,-41,-22,-10,-4,-10
1522653549129200,-9,6,28,53,12,-15,-11,-3
1522653549144240,14,-25,-62,-52,4,10,10,11
1522653549144240,1,16,47,-20,29,26,16,1
1522653549146246,-2,-21,-55,16,-13,-8,-11,-13
1522653549146246,11,11,9,-32,-65,-9,15,-5
1522653549167301,-5,6,36,54,18,-23,-17,11
1522653549167301,2,-10,-29,-20,-17,-6,-5,-2
1522653549168304,-48,-5,13,-1,1,-1,-7,-25
1522653549168304,13,1,0,14,14,2,-3,9
1522653549180336,9,-6,-9,-16,-25,8,3,6
1522653549180336,-55,0,1,34,6,-14,-2,-10
1522653549189360,52,11,14,15,26,10,2,-11
1522653549189360,-57,-8,-21,-9,5,-2,-13,3
1522653549203397,-4,-1,2,-17,-4,20,8,-24
1522653549203397,21,-3,-9,10,5,-3,-8,-11
1522653549210416,-47,-1,-2,-5,1,1,1,2
1522653549210416,47,5,3,-9,-3,-1,10,22
1522653549226459,39,-2,-1,-11,-6,-8,-1,-7
1522653549226459,2,-3,-10,-2,-7,-3,-7,6
1522653549228464,-76,1,9,0,2,22,2,-16
1522653549228464,66,0,-1,7,0,-18,10,7
1522653549249520,-60,2,4,-1,4,5,7,-15
1522653549249520,29,-7,-6,-5,-15,-8,-15,-20
1522653549250523,105,-3,-1,-5,0,1,4,38
1522653549250523,-95,7,10,2,10,7,-3,11
1522653549263557,41,-5,-5,-23,-5,-31,0,-24
1522653549263557,-19,12,0,11,-2,22,2,9
1522653549270576,-11,-4,7,2,-4,-46,-12,20
1522653549270576,11,-12,-15,-3,3,-9,-14,-37
1522653549286619,5,3,5,-10,-17,-36,-9,46
1522653549286619,-1,-5,-1,-3,2,6,12,-22
1522653549288624,18,9,9,21,6,12,-2,5
1522653549288624,-15,-5,-5,-5,-5,4,1,1
1522653549309680,-9,2,1,2,-1,-2,-9,-14
1522653549309680,-12,-4,1,1,-4,1,2,22
1522653549310683,20,0,0,-2,-3,-3,2,1
1522653549310683,-15,-3,-4,-2,0,-8,-5,-19
1522653549322715,12,5,3,2,1,29,6,19
1522653549322715,-9,-2,-1,13,-11,-5,-4,-8
1522653549331738,6,7,21,37,27,2,0,-18
1522653549331738,16,-11,-36,-23,-9,1,-3,14
1522653549346779,-10,-4,-13,-43,-31,17,16,4
1522653549346779,-2,10,35,30,23,-15,-9,-3
1522653549348784,-5,-14,-35,-42,-42,-14,-2,10
1522653549348784,-19,9,36,48,40,6,-5,-21
1522653549369840,2,-16,-42,1,13,6,6,9
1522653549369840,15,22,43,-15,73,24,27,9
1522653549370843,-7,-25,-58,-87,-25,0,-23,-13
1522653549370843,4,9,10,-10,-37,4,19,11
1522653549382875,6,16,55,83,66,-10,-13,-15
1522653549382875,2,-8,-16,13,-84,-27,-32,-10
1522653549391899,25,1,-11,-1,15,-2,12,35
1522653549391899,-42,-6,-21,-34,10,22,4,-12
1522653549406938,46,9,8,-7,-28,11,10,28
1522653549406938,-57,-9,-9,15,2,-6,-9,-50
1522653549408944,6,7,22,36,14,7,-6,-25
1522653549408944,-1,-9,-14,-18,-23,-6,8,-7
1522653549428997,-12,1,3,-5,-1,-15,-8,13
1522653549428997,2,-4,-11,-1,-2,4,11,23
1522653549431002,-3,-5,1,-4,-4,-2,15,-11
1522653549431002,28,13,16,16,17,3,-5,28
1522653549444037,-39,-9,-4,-5,-13,-1,-9,-32
1522653549444037,115,-2,-15,-9,9,-3,-10,28
1522653549450053,-105,11,20,11,1,20,14,-5
1522653549450053,-26,-8,1,-10,-3,-15,-14,17
1522653549467098,50,-10,-14,-12,5,13,2,0
1522653549467098,-20,-3,-14,-25,-18,7,-6,-42
1522653549468101,-1,6,16,7,7,-8,1,5
1522653549468101,89,-6,-11,16,-1,-6,-8,5
1522653549489157,-80,7,-4,-13,-2,-28,-4,23
1522653549489157,37,-7,-2,14,11,-3,11,-2
1522653549491163,-26,-11,4,6,-4,-18,-2,-31
1522653549491163,26,3,-5,-16,-5,-21,-14,0
1522653549503194,-13,-1,4,13,1,15,24,11
1522653549503194,-85,-4,-6,-12,-4,-9,-2,23
1522653549512219,-47,5,5,2,2,-2,-11,-25
1522653549512219,-71,-18,3,18,8,45,2,-39
1522653549527258,105,7,2,-3,-1,-24,-5,21
1522653549527258,-24,1,-6,-3,-3,3,0,6
1522653549528262,17,-2,0,-2,-9,-6,-2,4
1522653549528262,44,2,0,-9,0,7,-9,-27
1522653549549317,-55,-6,-4,9,1,19,-5,-19
1522653549549317,8,-6,-13,-16,-2,19,5,4
1522653549551322,50,4,3,1,-3,-10,-10,11
1522653549551322,-1,7,6,13,1,-24,-4,10
1522653549563354,-25,-6,-6,-14,1,48,0,-13
1522653549563354,23,0,-3,-4,-16,-14,-17,6
1522653549572379,19,7,20,43,21,16,12,0
1522653549572379,-22,2,6,3,15,-2,4,2
1522653549586416,8,-3,-16,6,-65,-45,-6,-7
1522653549586416,3,12,26,39,33,1,10,22
1522653549588421,15,1,7,-5,-25,0,-13,4
1522653549588421,-2,-9,-17,14,-22,-9,9,20
1522653549609477,-11,-8,-12,-47,66,17,4,-26
1522653549609477,-11,-12,-29,-44,-39,7,5,-12
1522653549611483,16,3,-1,5,29,-15,6,6
1522653549611483,15,6,-2,-17,8,-5,-2,5
1522653549623514,-18,-3,11,-46,-42,-2,0,15
1522653549623514,6,7,-9,-31,33,5,2,-15
1522653549631535,37,2,-1,6,2,12,1,-6
1522653549631535,-60,-13,-1,23,-3,-13,-24,-33
1522653549646576,16,5,5,46,25,1,-2,-2
1522653549646576,18,1,3,16,1,-13,3,35
1522653549648581,-6,-6,-13,-3,-10,6,2,-31
1522653549648581,-36,-4,-7,-12,-8,2,-2,-33
1522653549669637,50,-1,-5,-5,-11,-14,-4,5
1522653549669637,-37,-6,-5,3,-2,3,-2,0
1522653549670640,51,1,-6,-11,-4,4,7,37
1522653549670640,-94,-6,4,-6,-2,0,1,-47
1522653549682672,32,-2,3,-1,10,-11,-15,9
1522653549682672,-5,-6,-4,-1,-7,-7,3,-3
1522653549691696,4,-5,-5,-7,-9,-8,-6,2
1522653549691696,15,-4,5,-11,-6,-76,-24,-6
1522653549706736,24,-3,-3,4,5,64,14,7
1522653549706736,-114,-10,1,-6,-24,6,9,-11
1522653549708741,65,-3,-6,-22,-12,-6,-1,8
1522653549708741,37,4,-12,-3,-3,3,5,29
1522653549729797,20,3,15,24,5,-6,-6,1
1522653549729797,-15,1,7,10,-1,-14,-28,-22
1522653549730800,-17,4,9,5,1,44,24,-9
1522653549730800,-11,-6,-7,-33,-8,11,6,-3
1522653549742832,32,-10,-9,7,-2,-33,-10,-13
1522653549742832,-28,3,2,8,8,24,-16,-14
1522653549751856,-12,7,8,2,-2,-15,9,2
1522653549751856,-9,6,8,4,2,1,11,-1
1522653549766896,-50,4,0,-6,-2,7,7,-1
1522653549766896,54,-2,7,11,-3,-17,-7,6
1522653549768901,-11,-9,-23,-1,-4,-14,-11,-2
1522653549768901,54,7,-6,-20,6,30,21,41
1522653549788955,-30,9,25,5,-9,-1,-5,-12
1522653549788955,30,0,8,97,78,-14,-2,5
1522653549790960,-13,-2,-26,-90,-67,8,-7,-2
1522653549790960,1,-7,-14,10,47,17,0,6
1522653549802992,-9,7,-11,32,37,9,17,10
1522653549802992,19,1,-9,-81,-32,1,8,7
1522653549812016,-16,8,52,68,-44,-20,-20,-11
1522653549812016,11,-5,-10,59,78,-13,-21,9
1522653549827056,1,0,-22,-43,-47,40,41,24
1522653549827056,19,3,-3,-6,37,-5,-9,-11
1522653549828058,-7,0,-14,-2,8,26,22,10
1522653549828058,-5,19,56,16,-24,-10,-11,-7
1522653549849114,16,-6,-26,-25,-49,-40,-24,-4
1522653549849114,3,-6,-11,-13,-17,39,18,-7
1522653549851120,-26,-1,10,11,28,-8,5,-29
1522653549851120,-28,3,4,18,-12,-3,-10,-13
1522653549863152,-21,-3,-1,19,21,2,3,-5
1522653549863152,18,5,-4,-24,-13,5,11,14
1522653549872176,59,-6,4,4,25,-5,-4,24
1522653549872176,6,-4,-5,-5,-19,8,9,-16
1522653549887216,-54,-3,-3,-20,3,-2,-4,-32
1522653549887216,-51,-3,5,-5,-27,-29,-3,-20
1522653549888219,-38,-10,-6,13,26,22,-10,8
1522653549888219,38,-6,-10,-18,-28,0,12,21
1522653549909274,-49,5,10,-7,0,-30,-19,7
1522653549909274,119,6,7,17,4,25,17,15
1522653549911280,-113,-5,-6,0,7,-6,-21,-35
1522653549911280,96,-12,-15,-27,-16,26,3,-3
1522653549923312,-2,6,9,12,24,-8,-18,30
1522653549923312,-19,1,0,-7,-9,18,31,-1
1522653549932336,0,3,4,28,16,51,-5,-8
1522653549932336,-16,4,6,-5,-20,-57,4,23
1522653549946373,58,-1,-7,-1,9,16,0,7
1522653549946373,-86,-18,-1,-14,-15,-60,-12,-31
1522653549948379,91,6,-7,-12,-2,4,-5,12
1522653549948379,-105,9,14,4,7,21,8,-4
1522653549969434,105,6,13,28,6,-21,-18,-8
1522653549969434,-37,-8,-6,1,-6,10,-22,-8
1522653549971440,-33,0,-1,-8,-12,-13,17,3
1522653549971440,65,1,-8,-13,-7,-15,-7,21
1522653549983472,-72,-1,-1,-7,2,-3,17,10
1522653549983472,36,2,1,12,0,13,-14,-6
1522653549992496,-5,2,3,0,6,-8,3,9
1522653549992496,14,0,-2,13,1,7,-2,-7
1522653550006533,-12,-6,-2,-19,-11,21,11,-3
1522653550006533,-4,-3,-10,-1,-17,2,3,5
1522653550008538,7,9,29,45,3,-25,-18,-4
1522653550008538,-9,-8,-20,11,-6,8,8,-4
1522653550029595,-2,2,0,-42,35,42,25,5
1522653550029595,0,3,29,84,-32,-17,-1,3
1522653550030597,21,-14,-38,-101,-15,-28,-8,18
1522653550030597,15,15,36,-44,-58,15,3,-7
1522653550042629,-30,-10,-7,62,75,-18,-16,5
1522653550042629,33,-10,-47,-103,4,43,21,-6
1522653550051653,11,7,20,19,0,-4,-1,-20
1522653550051653,10,3,-3,-16,8,-6,-8,8
1522653550066693,-24,-5,17,0,-53,-21,-17,-5
1522653550066693,-20,5,10,38,29,-19,-17,-42
1522653550068698,-5,-7,-16,31,14,-7,-1,29
1522653550068698,68,4,-4,9,10,12,1,-12
1522653550089755,-43,-16,-15,0,-28,-27,-10,-21
1522653550089755,62,2,1,16,23,7,-3,45
1522653550090757,39,-10,-12,-24,-9,5,15,-12
1522653550090757,-78,5,4,7,18,30,14,27
1522653550102789,15,-7,1,-2,-9,-60,-11,-36
1522653550102789,27,-7,-13,-21,-12,42,-8,39
1522653550111813,-30,6,6,0,3,49,13,-68
1522653550111813,68,-7,-5,7,5,-13,2,33
1522653550125850,-40,15,5,-5,2,45,4,2
1522653550125850,24,7,9,-34,-13,-64,-10,13
1522653550132869,-14,8,7,18,-1,-6,-29,20
1522653550132869,-56,-9,-2,28,38,118,54,-39
1522653550148912,-10,0,-9,-17,-21,-21,20,8
1522653550148912,117,8,13,-2,-13,-47,-8,6
1522653550150917,-23,3,9,33,13,-15,-12,16
1522653550150917,-33,-5,-6,-13,-17,-47,-17,-32
1522653550162949,-17,-1,-5,-10,-10,17,0,22
1522653550162949,17,3,-6,-8,5,10,3,-7
1522653550171973,61,-2,-7,-19,-11,-39,-19,16
1522653550171973,-10,-1,1,3,3,7,-27,-5
1522653550186010,6,7,5,2,1,15,22,28
1522653550186010,-88,-13,-4,4,1,2,-2,-30
1522653550193029,40,2,-2,-6,-5,-5,8,5
1522653550193029,4,6,0,1,-6,2,4,25
1522653550209072,-1,-4,-6,-12,1,-1,-11,-21
1522653550209072,-24,-2,1,5,2,14,-2,-8
1522653550211077,-16,-6,4,7,-16,-4,5,-2
1522653550211077,-2,-7,-15,8,17,-59,-13,20
1522653550232133,30,6,17,-5,-6,5,8,-28
1522653550232133,-33,-24,-44,-39,-13,-3,4,18
1522653550233136,-18,3,12,-33,-36,3,14,-1
1522653550233136,11,4,14,84,63,-20,-11,15
1522653550246170,20,-1,-8,-81,-21,24,-3,-12
1522653550246170,-20,5,8,59,44,-3,-2,7
1522653550253189,-12,-7,-36,-66,12,34,32,-5
1522653550253189,2,1,12,-5,-49,-14,-8,5
1522653550269232,5,-1,14,50,26,-10,-19,8
1522653550269232,-27,-6,-14,-34,-34,-15,-7,-27
1522653550271237,36,6,19,21,19,3,3,7
1522653550271237,-51,-10,-11,10,-45,-10,-20,-35
1522653550292293,44,3,-5,6,27,-9,10,22
1522653550292293,-41,1,-4,13,-11,-27,-17,6
1522653550293296,67,4,-6,5,15,51,12,-13
1522653550293296,-100,-7,-3,-38,-5,10,8,-10
1522653550306331,41,-1,-7,27,-4,-1,-5,14
1522653550306331,53,10,15,2,14,-28,4,25
1522653550313349,-39,-16,-16,-3,-9,-28,-23,-94
1522653550313349,85,2,-5,-11,-3,-9,-1,52
1522653550329392,27,2,-2,-9,-5,13,18,33
1522653550329392,-84,0,12,7,0,10,-19,-30
1522653550331397,66,26,20,23,12,-10,4,61
1522653550331397,-8,-5,-3,-19,-3,-16,-15,-49
1522653550351450,57,-10,-19,-18,-30,-25,1,15
1522653550351450,-20,10,10,-15,1,75,6,-3
1522653550353456,-15,-14,1,25,-1,-29,19,19
1522653550353456,-46,9,-2,-24,3,7,-14,-11
1522653550366490,-64,-2,0,9,3,-13,-17,-49
1522653550366490,127,1,1,17,1,13,18,64
1522653550373509,-128,-3,10,1,-12,8,0,-41
1522653550373509,80,-2,-11,-21,0,14,5,29
1522653550389552,55,5,-2,13,-8,24,0,19
1522653550389552,-92,-6,2,-3,-2,-18,-23,-53
1522653550390555,-35,-9,-2,11,2,-30,-20,7
1522653550390555,34,9,4,-9,-2,0,15,32
1522653550411610,-56,-5,2,3,-4,-16,-22,-55
1522653550411610,33,4,9,4,10,19,14,11
1522653550413616,18,0,8,20,-7,-21,-15,13
1522653550413616,-13,2,11,24,8,-13,-4,-22
1522653550425648,1,-11,-30,-61,-15,9,9,10
1522653550425648,-4,-6,-1,14,-25,-9,13,-1
1522653550434672,2,12,40,79,-34,-14,-18,-2
1522653550434672,7,-25,-54,-34,44,7,1,-9
1522653550449712,5,26,43,9,-27,32,32,24
1522653550449712,-13,-4,-11,72,72,-26,-10,-13
1522653550450714,12,-7,-33,-59,73,14,8,10
1522653550450714,12,1,-2,-71,-79,4,12,3
1522653550471770,-23,-12,-12,29,-42,-31,-16,-20
1522653550471770,-13,8,1,-81,-12,7,3,-1
1522653550473776,24,-4,-1,-9,42,30,12,17
1522653550473776,14,6,14,37,38,-13,-11,-2
1522653550485808,-33,-2,1,15,16,13,-8,7
1522653550485808,33,9,25,65,-28,-4,0,-8
1522653550494832,7,-7,-20,24,-1,-22,-15,1
1522653550494832,-25,-3,-9,-36,-11,15,11,-3
1522653550509872,-10,1,9,12,-5,7,-18,-41
1522653550509872,-26,-3,-10,1,8,-2,9,24
1522653550510874,-56,-10,-16,-37,1,23,6,-36
1522653550510874,33,10,10,13,-10,-2,11,22
1522653550531930,47,-7,0,17,20,-8,15,38
1522653550531930,-74,-1,-5,-30,-10,3,-1,2
1522653550533936,114,-13,-10,-19,-28,-15,-2,-32
1522653550533936,-91,-1,13,28,-13,-25,-23,-38
1522653550545968,-114,-3,-2,-3,17,-14,20,6
1522653550545968,121,13,4,-24,-11,-32,-7,49
1522653550554992,-31,7,14,11,-11,50,5,-23
1522653550554992,74,-11,0,15,14,45,9,4
1522653550569029,17,12,-5,-17,8,2,7,16
1522653550569029,-8,-22,-12,-5,-11,-9,-6,-42
1522653550571034,-64,10,12,23,-13,20,-10,15
1522653550571034,75,-2,0,3,23,-22,-24,19
1522653550592090,-75,-9,-6,-3,2,-14,-5,-11
1522653550592090,-4,-6,-1,-14,-8,41,-9,-26
1522653550593093,-36,4,0,13,2,11,-3,11
1522653550593093,-26,0,0,-8,-14,-36,6,-27
1522653550605125,127,1,-9,-9,-8,-3,-2,27
1522653550605125,-101,-7,3,16,3,-16,-2,-22
1522653550614149,-10,-6,-10,-27,-5,-20,-11,-5
1522653550614149,-22,7,9,7,1,13,11,21
1522653550629189,20,-2,2,7,14,3,-9,-21
1522653550629189,28,2,3,4,-3,-3,7,2
1522653550631194,8,2,4,11,-1,-9,-2,17
1522653550631194,-3,-8,-26,-33,-27,6,14,11
1522653550652250,0,13,33,30,27,-3,-14,-10
1522653550652250,-2,-16,-41,-72,-22,13,-2,-17
1522653550653253,13,8,21,1,-63,-33,0,21
1522653550653253,-10,-9,-9,88,66,-26,-22,-17
1522653550665285,-22,-18,-68,-108,-62,36,21,-1
1522653550665285,4,20,49,93,16,22,19,2
1522653550674310,7,-19,-25,31,8,-44,-23,-27
1522653550674310,-16,-15,-39,-77,-39,-3,0,-2
1522653550689349,-17,0,10,-63,-33,16,-10,-26
1522653550689349,23,8,27,56,-3,-23,-11,23
1522653550691354,4,-11,-36,-10,10,-29,-14,3
1522653550691354,-20,0,0,-10,70,41,13,-19
1522653550711408,14,1,9,53,19,-14,-2,23
1522653550711408,-11,-2,-3,-19,-10,-10,-1,-32
1522653550713413,-17,-3,19,34,3,-11,0,-14
1522653550713413,-2,6,4,6,-17,-11,-1,22
1522653550725445,-1,0,-7,7,16,13,18,20
1522653550725445,-23,-6,1,0,-18,-2,-25,-41
1522653550734469,18,6,-2,-9,11,6,5,26
1522653550734469,-39,4,4,-8,-18,-1,-3,-33
1522653550749509,61,8,5,6,0,-28,-6,52
1522653550749509,-31,-17,-8,9,6,30,-8,-40
1522653550750512,-71,0,-5,-29,4,-45,-11,-14
1522653550750512,63,3,14,-7,-9,41,14,25
1522653550771567,-67,2,18,32,8,7,-24,-41
1522653550771567,32,7,-4,0,21,30,27,29
1522653550773573,-18,-8,-7,-18,10,70,6,-4
1522653550773573,68,9,11,-10,-34,-80,0,27
1522653550785605,-71,-10,-1,51,38,73,3,-43
1522653550785605,2,0,-7,-9,6,-5,26,21
1522653550794630,28,2,-7,-44,-15,32,4,8
1522653550794630,-10,-3,4,35,2,7,6,-5
1522653550809669,31,1,0,4,3,-25,-11,12
1522653550809669,92,4,-14,-23,-11,-77,7,45
1522653550810672,-84,2,18,13,-4,65,1,-27
1522653550810672,-31,-4,6,21,19,31,-8,-37
1522653550831727,89,0,-16,-7,-7,-69,-6,66
1522653550831727,-109,3,15,23,19,95,10,-24
1522653550833733,117,3,-2,-15,-1,-46,-8,43
1522653550833733,-60,-1,2,-15,-22,-39,-5,-30
1522653550845765,-70,-17,0,12,10,19,-16,-16
1522653550845765,0,-5,-5,-18,-10,-31,23,-14
1522653550854789,14,6,-4,4,8,13,13,18
1522653550854789,-20,5,8,5,1,34,11,13
1522653550869829,3,0,10,11,6,4,5,-31
1522653550869829,13,-5,-11,-14,-3,-5,-18,11
1522653550870832,-19,-6,-17,-19,-17,-5,2,-29
1522653550870832,19,7,17,7,-4,-1,-3,8
1522653550891887,9,-2,5,35,-41,-29,-8,-10
1522653550891887,0,-4,-22,-7,57,1,-6,16
1522653550893893,-7,1,-2,-39,-8,17,4,-9
1522653550893893,5,-5,-10,-5,-43,-20,-6,-5
1522653550905925,-21,-11,-43,-108,-95,3,18,-2
1522653550905925,-7,10,39,108,98,14,-1,1
1522653550914949,36,-4,-25,-17,-41,0,15,20
1522653550914949,7,7,12,-34,-14,-10,-4,1
1522653550928986,-19,-3,-1,15,67,-6,-20,-27
1522653550928986,45,-2,-11,-54,-102,-2,0,33
1522653550936005,-52,-5,15,33,24,-23,-10,-4
1522653550936005,-3,9,3,48,58,16,-2,13
1522653550952047,1,2,-15,-14,8,8,18,-22
1522653550952047,16,9,6,-14,-3,-6,-16,-5
1522653550953050,-23,-12,-11,-3,-12,-14,2,8
1522653550953050,-18,3,3,20,-11,-11,-20,-30
1522653550966085,7,-6,7,30,25,-2,-4,19
1522653550966085,23,-4,-17,-25,-11,2,15,28
1522653550974106,-29,1,14,22,-8,-1,3,-19
1522653550974106,5,-9,-4,0,6,7,-32,-27
1522653550989146,-22,0,1,0,7,-7,6,1
1522653550989146,-6,4,5,-7,-29,-11,4,35
1522653550991152,-23,5,11,12,6,-4,-7,-17
1522653550991152,10,-9,-6,-10,16,3,12,42
1522653551012207,-46,0,7,-9,-3,-23,-18,-50
1522653551012207,31,-7,-5,-5,-12,-4,14,4
1522653551013210,14,3,3,1,18,0,-10,2
1522653551013210,22,-1,-19,-34,-17,-26,3,8
1522653551025242,-39,5,0,-13,-10,67,35,37
1522653551025242,-9,0,17,36,25,-9,-14,-42
1522653551034267,21,5,-3,9,19,34,8,-4
1522653551034267,-2,0,4,-3,-23,-76,-8,-7
1522653551048303,66,-1,3,-6,1,54,14,28
1522653551048303,-74,-8,-21,-26,-11,9,-19,-29
1522653551055322,96,7,3,4,10,2,7,4
1522653551055322,-20,-3,-3,-3,2,33,28,20
1522653551072368,-53,8,11,5,5,-73,-9,-17
1522653551072368,74,6,6,3,-2,37,-3,16
1522653551073371,-10,-5,1,6,-6,-32,-11,-19
1522653551073371,3,2,3,4,1,28,11,5
1522653551085402,-15,-1,1,11,0,-13,-5,2
1522653551085402,-16,-1,4,-6,-14,-13,-10,-29
1522653551094426,-13,-4,-9,17,2,7,10,16
1522653551094426,17,9,8,-15,8,10,1,10
1522653551108463,8,-1,0,3,-38,-6,-14,-5
1522653551108463,-25,-7,9,58,51,-15,-15,-18
1522653551115482,40,-1,-22,-7,72,21,10,23
1522653551115482,-27,3,14,23,16,35,21,5
1522653551131525,9,-8,-2,0,-7,-26,-28,-21
1522653551131525,-10,-12,-14,65,-29,-29,-5,-4
1522653551133530,-16,-9,-37,-93,32,8,16,7
1522653551133530,6,-2,2,-51,-85,19,16,8
1522653551154587,18,-9,15,45,45,-14,-12,0
1522653551154587,-8,34,0,22,17,-22,-13,-30
1522653551155589,-51,1,26,6,-24,-13,-11,-4
1522653551155589,7,-13,-43,-55,-32,-1,-13,18
1522653551168623,28,-4,2,10,-1,12,5,-27
1522653551168623,-25,-10,4,1,-9,0,10,19
1522653551175642,6,-3,-11,21,-27,-15,-17,-24
1522653551175642,47,16,6,10,17,11,6,20
1522653551191685,-62,-16,-8,-3,-2,-9,-19,-27
1522653551191685,0,-9,-18,-36,8,2,17,29
1522653551193690,13,7,11,-4,-24,-17,-5,-20
1522653551193690,-41,-2,8,34,29,-1,-4,7
1522653551214746,73,11,-3,3,12,-3,-4,12
1522653551214746,-33,-12,-8,-44,-23,9,11,22
1522653551215749,30,13,19,12,-13,12,4,20
1522653551215749,-42,-12,0,19,20,-20,7,-53
1522653551228783,18,4,-13,-33,-3,43,17,14
1522653551228783,2,6,-3,-54,-20,106,23,15
1522653551235802,16,-11,13,25,7,-56,11,35
1522653551235802,-45,-7,-17,13,-3,-28,-24,-34
1522653551251845,-40,5,9,13,9,-47,-1,2
1522653551251845,106,-6,-17,-61,-19,32,31,6
1522653551253850,-31,6,16,57,8,-39,-30,30
1522653551253850,26,-8,-11,-17,-5,4,-15,-19
1522653551274907,-118,2,2,-15,-12,-53,-13,-6
1522653551274907,35,-8,1,7,-6,-4,-19,-18
1522653551275909,32,7,9,-9,-11,1,5,3
1522653551275909,-16,-1,3,1,10,-2,-14,-9
1522653551288944,111,7,0,0,-2,29,7,23
1522653551288944,-38,-2,4,9,8,-31,-10,-35
1522653551295962,-26,1,1,-10,-8,16,6,-7
1522653551295962,81,-2,-3,4,7,-25,-13,18
1522653551312005,-11,0,-1,-7,3,23,2,-15
1522653551312005,8,10,10,3,5,-15,-9,13
1522653551314011,-18,-4,4,15,-23,-15,-13,-19
1522653551314011,-27,-1,-3,18,-12,15,5,13
1522653551334063,47,-4,-16,-20,7,15,2,5
1522653551334063,-30,-4,-5,21,57,-32,-7,-1
1522653551336069,-20,-6,8,-48,-42,15,-9,-23
1522653551336069,14,1,12,84,-10,-17,-2,9
1522653551349103,11,-13,-51,-85,-54,19,22,17
1522653551349103,-36,25,42,83,19,-11,-5,-14
1522653551355120,12,-25,-68,-128,-92,-2,-5,-11
1522653551355120,14,11,34,-12,-28,30,17,16
1522653551372165,-18,-3,30,124,67,-46,-33,-23
1522653551372165,18,-14,-45,-79,-59,-1,15,37
1522653551373168,1,17,44,57,3,-3,-2,-25
1522653551373168,6,-20,-61,-106,49,4,-6,4
1522653551394224,-13,22,23,2,-16,40,26,17
1522653551394224,63,5,14,22,9,-32,-30,2
1522653551396229,-89,-11,-5,34,32,-4,1,-74
1522653551396229,36,8,4,5,-17,-13,9,53
1522653551408261,-55,-10,-7,-2,13,39,7,-27
1522653551408261,33,-13,-10,-11,-2,-27,-30,-8
1522653551417285,8,9,0,6,-3,17,34,16
1522653551417285,-14,7,6,9,18,1,-4,19
1522653551432325,14,0,-4,-7,0,22,15,-20
1522653551432325,-16,-7,5,-8,-27,-18,-24,-15
1522653551433328,59,8,6,9,29,26,-7,51
1522653551433328,-66,-6,4,7,25,69,23,-23
1522653551454383,12,4,6,-3,7,69,-2,-4
1522653551454383,-67,-3,-3,-28,-26,1,22,-14
1522653551456389,120,-16,-11,28,32,45,28,32
1522653551456389,-35,15,4,-21,-1,-10,18,-33
1522653551468421,-18,0,7,8,8,80,-15,15
1522653551468421,12,-2,2,6,7,-37,2,-3
1522653551477445,-58,-7,-1,18,20,12,5,-1
1522653551477445,108,5,4,16,-11,-10,-9,44
1522653551491482,-60,1,2,-8,-12,-69,-2,-7
1522653551491482,4,-9,-10,-26,-2,-9,-30,-25
1522653551493488,28,17,9,11,3,-16,10,47
1522653551493488,-67,-14,-4,4,2,39,-14,-75
1522653551514545,-4,7,0,-15,-7,-39,4,18
1522653551514545,41,1,3,22,8,21,12,13
1522653551515546,-32,-9,-9,-14,-6,-14,-13,-17
1522653551515546,5,-1,1,-5,-3,-30,-12,-14
1522653551527578,33,-2,-1,4,-2,-37,-7,-6
1522653551527578,-22,2,8,6,1,14,3,21
1522653551536602,-4,-3,-15,-1,-3,-2,-7,-10
1522653551536602,-5,-5,-9,-30,-10,-26,-9,-2
1522653551551642,15,-1,24,58,-14,-8,-5,0
1522653551551642,-13,-15,-48,-58,20,6,8,-8
1522653551553648,5,16,14,-44,-38,-2,-1,-4
1522653551553648,-8,6,20,99,18,-19,-9,5
1522653551574703,31,-6,-10,-30,63,13,16,4
1522653551574703,-16,29,23,12,14,20,5,9
1522653551575706,-5,-20,-56,-66,15,-2,-5,-7
1522653551575706,1,0,-20,-103,-60,23,6,-19
1522653551587738,38,4,36,36,-7,-34,-9,19
1522653551587738,-12,13,11,27,-24,-5,-10,-16
1522653551596762,31,6,12,-4,43,2,-12,8
1522653551596762,-37,10,29,64,22,-16,-15,-8
1522653551611802,-2,-20,-63,-45,-43,-18,10,7
1522653551611802,-17,-8,0,-14,-26,3,-5,-30
1522653551613808,32,6,10,19,-14,-14,4,51
1522653551613808,-63,-10,2,4,4,2,-5,-43
1522653551634865,14,6,5,9,-8,0,-3,22
1522653551634865,-13,-10,6,14,10,-15,6,2
1522653551635867,-23,0,0,2,-3,30,-1,-74
1522653551635867,22,-5,-9,5,11,-51,-3,28
1522653551647898,26,1,1,-5,2,21,5,12
1522653551647898,-31,-15,-9,-12,-9,2,-9,-23
1522653551656922,-18,11,19,23,11,-17,-5,21
1522653551656922,63,-11,-6,-13,-2,-27,2,8
1522653551671962,13,-6,-13,-20,-6,59,-4,-63
1522653551671962,16,-4,-3,-4,-11,-41,-23,35
1522653551673968,-22,-1,1,8,-21,-41,-4,-15
1522653551673968,-18,-1,-7,-20,6,30,3,33
1522653551694021,62,7,3,22,1,-40,-18,4
1522653551694021,-49,-14,0,14,15,-14,12,-19
1522653551696026,-12,5,11,15,3,14,17,9
1522653551696026,24,2,-10,-29,-7,-12,-10,14
1522653551708058,-52,-9,10,28,-2,-58,-1,-7
1522653551708058,24,7,-7,0,3,56,-11,-28
1522653551717082,-28,-3,6,9,1,-4,2,5
1522653551717082,41,-4,-2,-6,1,-1,-2,11
1522653551732122,-2,-4,-7,-21,-13,-16,-5,4
1522653551732122,-11,0,9,-1,3,-3,0,5
1522653551733125,-22,-1,-1,-1,-4,-7,12,8
1522653551733125,3,5,-2,9,8,27,5,-13
1522653551754181,-42,-12,-2,-2,-8,-25,-7,-15
1522653551754181,21,9,5,3,-2,-2,12,12
1522653551756186,24,-3,-1,-2,7,12,-13,-11
1522653551756186,-3,2,4,18,1,-9,5,6
1522653551768218,-1,7,11,14,20,16,6,18
1522653551768218,-12,-10,-25,-54,-22,18,16,-5
1522653551777242,14,4,22,28,-15,0,-15,-9
1522653551777242,-21,-18,-28,12,-3,-9,-8,6
1522653551792282,-5,14,23,-5,15,24,12,18
1522653551792282,-14,1,4,44,-11,9,4,-22
1522653551793285,14,-9,-33,-9,38,18,19,15
1522653551793285,-19,2,34,2,51,4,-3,-6
1522653551814341,-12,-27,-77,-75,-52,-8,-6,-14
1522653551814341,4,16,42,35,10,-2,-8,9
1522653551816346,-4,-15,-28,-35,-12,-1,-22,-8
1522653551816346,18,9,12,-28,-27,4,14,11
1522653551828378,10,0,17,52,15,3,6,-6
1522653551828378,-2,5,1,13,23,-3,5,0
1522653551837402,-12,-1,-13,-21,-14,-13,-4,-11
1522653551837402,21,6,-1,5,5,7,0,4
1522653551851439,7,1,2,0,0,12,0,12
1522653551851439,-1,-3,-4,-1,-20,-19,-4,-7
1522653551853445,12,4,9,15,14,4,-1,-15
1522653551853445,-12,-6,-13,-6,0,22,2,-13
1522653551874501,6,6,12,9,-9,-14,7,31
1522653551874501,-14,-4,0,-5,0,-1,10,-9
1522653551876506,-27,-6,0,-2,3,18,-9,-6
1522653551876506,-21,-10,-11,4,-11,-19,-1,-19
1522653551888538,69,2,3,-8,-10,-7,-15,-2
1522653551888538,-59,-1,-3,-13,10,-6,-3,33
1522653551897562,-34,5,10,8,2,-2,5,-3
1522653551897562,-60,-1,-3,-2,-14,4,1,-4
1522653551911599,43,-15,-12,-16,12,55,4,-8
1522653551911599,31,14,-3,-18,5,9,-10,11
1522653551913605,-34,-1,13,25,8,-7,30,11
1522653551913605,79,-4,-4,20,-10,-27,-27,6
1522653551934661,-38,10,6,5,2,-3,9,-7
1522653551934661,72,-21,-16,-11,-2,41,-20,2
1522653551935663,-31,16,7,-4,-17,-14,3,-16
1522653551935663,-60,-3,-4,-22,3,-3,2,7
1522653551947695,-31,-11,-12,-15,-15,-19,5,-28
1522653551947695,-2,14,21,30,7,-53,-14,0
1522653551956720,113,2,2,8,2,31,-5,12
1522653551956720,-2,-14,-9,-11,-5,-2,-17,-5
1522653551971760,6,12,8,11,-1,6,31,8
1522653551971760,-60,-5,-7,-20,-6,14,10,-8
1522653551973765,-15,-4,-2,-3,6,-12,-6,-12
1522653551973765,22,11,5,3,-1,13,1,2
1522653551994821,-36,-8,-4,-8,-6,-22,-12,-5
1522653551994821,11,3,6,8,0,3,9,0
1522653551995824,8,-4,7,28,7,2,-8,5
1522653551995824,-1,-3,-14,-15,0,15,7,9
1522653552007855,-15,12,20,16,22,-2,-10,2
1522653552007855,31,3,7,15,-19,-2,6,7
1522653552016880,11,8,18,13,11,9,-8,20
1522653552016880,-20,-7,-20,-32,-75,-28,-7,-11
1522653552030917,17,-3,-9,-9,39,21,15,14
1522653552030917,-6,14,26,-36,28,8,2,-10
1522653552037935,-19,-36,-85,-91,-98,-37,-18,-21
1522653552037935,5,13,12,-7,-14,8,11,-4
1522653552053978,10,17,33,19,67,-1,-7,4
1522653552053978,19,-14,-26,-23,-35,29,14,4
1522653552055984,-4,7,20,26,8,-19,-19,-21
1522653552055984,-2,1,2,26,12,-58,7,7
1522653552068015,-13,-1,-3,5,-30,16,-28,-11
1522653552068015,8,-6,-4,33,17,-25,0,2
1522653552077040,32,9,-5,5,14,9,6,24
1522653552077040,5,-2,2,14,17,27,-4,-50
1522653552091076,24,7,4,14,-5,-10,1,16
1522653552091076,-55,-8,-9,-8,-4,-1,9,-15
1522653552098095,-33,3,0,-26,3,1,5,12
1522653552098095,74,10,11,14,18,6,7,44
1522653552114139,-50,-16,-18,-13,-28,-23,-8,-19
1522653552114139,25,3,-5,-6,-3,-2,-11,-22
1522653552116143,-16,-9,8,6,11,0,-6,8
1522653552116143,-13,1,7,12,21,38,5,-4
1522653552137199,-20,-5,-8,-12,-21,-35,-28,-15
1522653552137199,-17,-10,-7,0,1,32,15,15
1522653552138203,28,-3,-2,-5,2,-17,-12,-46
1522653552138203,-26,2,0,-8,8,21,1,31
1522653552151236,81,2,-1,-3,-11,1,2,5
1522653552151236,-26,9,5,0,7,-9,-11,-15
1522653552158255,-75,-13,2,17,5,-39,-10,8
1522653552158255,67,-2,-9,-12,4,26,10,9
1522653552174298,-87,-10,-7,-8,-7,-7,-6,-26
1522653552174298,24,0,9,26,5,-33,-22,2
1522653552176304,62,10,8,2,8,23,32,21
1522653552176304,-19,0,-8,-12,-9,-8,12,-1
1522653552197359,18,3,10,26,5,-22,-7,2
1522653552197359,-13,-3,-5,-3,-8,-10,3,8
1522653552198362,22,6,1,-9,-2,-9,0,13
1522653552198362,-43,-5,5,10,10,16,2,-11
1522653552211396,43,6,-3,-14,-6,33,3,4
1522653552211396,-19,-1,-1,7,-1,12,15,20
1522653552218415,-7,-2,0,-4,-2,15,-18,-24
1522653552218415,-6,2,8,5,4,-26,-6,-12
1522653552234458,-14,-6,-5,3,-4,4,7,14
1522653552234458,12,-1,1,10,-15,6,1,-5
1522653552236463,16,3,-3,1,16,12,2,18
1522653552236463,-14,2,11,-3,-46,-6,1,6
1522653552256517,-6,-10,-33,0,47,7,-4,-9
1522653552256517,31,9,12,-20,-90,-12,2,8
1522653552258522,-12,-6,14,60,41,-27,-11,-8
1522653552258522,-20,-27,-78,-111,9,14,-3,-14
1522653552271557,11,3,8,-14,5,31,36,9
1522653552271557,-1,7,34,86,37,-11,-19,-22
1522653552278575,-16,-8,-24,-117,-75,-6,-2,-6
1522653552278575,9,13,43,57,14,-19,-4,12
1522653552294618,-23,-3,-5,14,32,-13,-11,-15
1522653552294618,-1,-9,-35,-54,-19,11,-14,-16
1522653552295621,18,10,22,46,3,-7,-1,20
1522653552295621,13,-10,-6,21,2,-17,-11,-8
1522653552316677,-2,21,12,-18,-19,13,6,9
1522653552316677,-9,-6,-4,6,20,-26,-10,-1
1522653552318682,-7,-1,-7,11,17,27,7,-8
1522653552318682,9,8,-2,-10,10,33,29,19
1522653552330714,49,-7,8,14,-20,-16,-4,-17
1522653552330714,-44,-1,-7,-6,17,-2,-1,8
1522653552339738,-30,-4,-11,-14,-2,1,5,-6
1522653552339738,17,-9,6,7,0,-18,-21,-19
1522653552354778,-11,6,16,10,-13,0,1,23
1522653552354778,-5,1,-5,-18,7,22,6,-9
1522653552355781,-12,-2,-8,-16,4,-4,-8,7
1522653552355781,-18,5,7,16,0,-16,3,-7
1522653552376837,-20,3,1,3,2,17,-3,29
1522653552376837,34,-14,-17,-21,2,-7,4,-27
1522653552378842,16,10,7,17,2,16,4,25
1522653552378842,-38,1,3,1,-6,-39,-18,-2
1522653552390874,-23,-4,-5,-5,-14,15,-8,-13
1522653552390874,1,2,4,2,15,10,22,22
1522653552399898,32,9,5,22,12,16,5,27
1522653552399898,25,-11,-9,-1,-6,-50,-4,-40
1522653552413935,6,-2,-7,-20,-4,22,-4,-3
1522653552413935,9,-6,-6,-20,-6,9,-3,4
1522653552415941,-9,3,12,24,0,-16,13,5
1522653552415941,0,8,13,11,8,26,-2,13
1522653552436997,27,-6,-3,9,-3,-11,-4,-5
1522653552436997,-22,-1,-1,-8,-1,-11,4,-7
1522653552439002,15,-2,-10,-24,-3,1,-5,-2
1522653552439002,-10,2,3,8,6,12,-1,9
1522653552451034,-6,-1,4,5,-3,-3,10,-17
1522653552451034,21,3,-3,-2,4,-2,4,24
1522653552460058,-12,-4,1,-11,-7,-5,-10,-31
1522653552460058,-11,0,2,16,-1,-6,0,6
1522653552474096,-15,-9,-12,3,-33,-28,-8,-3
1522653552474096,21,6,0,18,37,21,-7,-1
1522653552476101,-7,3,13,-5,-19,10,13,6
1522653552476101,-14,-14,-22,40,48,7,-9,-15
1522653552497157,9,2,24,32,2,-8,9,9
1522653552497157,-5,-10,-22,-46,3,-5,1,14
1522653552498159,4,0,-11,-32,-34,26,20,-1
1522653552498159,-4,-1,-6,-20,52,16,-3,-13
1522653552510191,2,5,14,14,-3,-1,6,6
1522653552510191,-9,-10,-19,-3,19,-12,-5,1
1522653552519215,25,2,22,18,0,-8,-5,-6
1522653552519215,-16,-3,-36,-100,-77,-14,-6,-3
1522653552534255,-5,-6,9,28,7,-16,-29,-16
1522653552534255,17,4,13,27,-12,-8,-4,18
1522653552536261,-54,-14,-10,4,14,-16,-18,-66
1522653552536261,49,14,21,38,2,19,18,23
1522653552557317,-13,-9,-16,-28,-1,27,-3,-14
1522653552557317,-20,-7,2,-2,-18,-11,-5,-10
1522653552558319,34,11,-4,6,2,0,11,31
1522653552558319,29,-8,-2,2,-6,-17,-6,-41
1522653552570351,-15,4,-11,-20,-1,4,3,17
1522653552570351,-40,4,5,3,-11,0,-4,-33
1522653552579375,47,2,3,7,16,-6,-5,18
1522653552579375,-17,0,6,3,-9,13,0,-14
1522653552594416,60,10,0,-13,5,16,6,45
1522653552594416,10,-3,0,2,-8,-9,0,-28
1522653552596421,-1,-5,-4,-8,3,1,-5,12
1522653552596421,-42,5,5,-2,-2,-11,-6,-2
1522653552616474,-51,-14,-11,-15,-7,0,2,-7
1522653552616474,47,4,3,4,4,21,-9,2
1522653552618479,5,-3,-6,-6,7,-56,-12,-13
1522653552618479,29,1,4,13,12,74,13,38
1522653552630511,-36,-9,-5,17,2,-26,14,-31
1522653552630511,10,7,7,10,0,14,11,8
1522653552639536,0,-1,0,1,3,8,17,20
1522653552639536,-54,-2,4,0,-14,-30,-12,-16
1522653552654575,84,12,4,-6,1,-13,2,9
1522653552654575,-39,-12,0,-4,-9,-9,-15,-14
1522653552655579,1,4,-4,2,0,-9,-4,27
1522653552655579,-22,0,3,0,1,-11,3,-5
1522653552676634,-34,-7,-10,-8,0,16,1,-18
1522653552676634,17,6,10,5,0,-11,1,21
1522653552678639,-7,-4,-7,-6,-3,-5,-5,6
1522653552678639,15,2,4,9,-2,14,-1,3
1522653552690671,-4,-5,0,-10,-17,-32,-14,-9
1522653552690671,-10,8,10,19,5,20,5,-9
1522653552699695,-7,-4,-3,-2,12,25,0,-2
1522653552699695,0,5,22,26,-48,-13,-2,0
1522653552714736,-1,-9,-28,-39,57,-1,1,-8
1522653552714736,21,12,11,-11,-77,-5,14,20
1522653552715738,-27,4,15,5,-61,-25,-17,-21
1522653552715738,13,-18,-53,-52,44,-5,-7,-1
1522653552736794,-3,11,22,-5,-6,24,14,5
1522653552736794,8,-2,4,70,32,-12,-4,3
1522653552738799,-1,-10,-38,-102,-97,-5,5,-5
1522653552738799,-10,4,25,-26,24,-11,-17,-5
1522653552750831,5,-7,-14,18,-9,-10,-10,-22
1522653552750831,-20,1,4,-20,30,14,2,-1
1522653552759856,19,7,32,81,22,11,3,2
1522653552759856,33,-11,-28,-3,-4,-14,-7,23
1522653552774895,-69,-1,9,1,-4,8,11,0
1522653552774895,-4,-3,-6,2,-13,-16,-27,-45
1522653552775898,-51,-2,-5,19,36,10,2,-4
1522653552775898,0,-6,3,11,-4,16,10,-27
1522653552796954,93,7,7,4,-15,-19,-9,29
1522653552796954,8,-10,-12,-16,0,10,21,22
1522653552798959,-84,7,-7,-6,31,7,-1,-27
1522653552798959,-21,-11,7,13,11,10,6,-14
1522653552810991,72,11,-3,-5,-29,-18,-18,21
1522653552810991,-89,1,0,-14,11,-22,-7,-2
1522653552820015,66,11,4,-8,22,25,7,6
1522653552820015,-1,-17,-4,12,-11,21,21,19
1522653552834054,-44,7,4,9,4,-35,-11,-12
1522653552834054,29,-2,-9,-15,1,-26,-6,19
1522653552836058,54,4,-12,-29,4,19,20,0
1522653552836058,-78,-1,7,40,6,40,5,-2
1522653552857114,23,1,13,18,10,37,23,23
1522653552857114,-64,-1,-1,-12,-7,0,-4,-23
1522653552858117,19,-2,3,11,7,-48,-16,-9
1522653552858117,51,8,-1,-4,-5,-23,-4,-9
1522653552870149,-7,-6,-10,-28,-5,4,-9,11
1522653552870149,2,0,8,6,3,-10,-5,-13
1522653552879172,-31,-6,2,11,14,34,-8,3
1522653552879172,81,9,2,3,-4,-16,11,4
1522653552894213,-64,-17,-3,14,-6,-9,-18,-33
1522653552894213,23,-2,-9,-16,-8,4,1,8
1522653552896218,0,-9,-7,-5,-1,-8,-18,5
1522653552896218,-24,10,10,10,0,-5,-3,11
1522653552917274,-2,-2,14,0,-6,-9,0,-13
1522653552917274,22,-15,-28,-22,-3,6,0,6
1522653552918277,-3,-1,7,-10,17,15,14,0
1522653552918277,-17,6,13,28,-17,-14,-9,9
1522653552930309,1,-7,-15,29,-21,-4,-2,-22
1522653552930309,29,1,-13,-44,1,14,11,17
1522653552939332,-14,10,25,51,44,17,1,0
1522653552939332,-4,-8,-35,-44,24,-3,4,5
1522653552953370,-1,-5,-16,-55,-47,23,7,-2
1522653552953370,4,3,29,40,63,-7,-11,-4
1522653552960389,-7,-17,-42,-72,-45,-10,-1,-8
1522653552960389,14,16,54,48,7,16,7,-14
1522653552976431,-33,-15,-8,64,-51,-60,-29,-3
1522653552976431,-4,-15,-61,-83,31,21,12,-5
1522653552978437,10,4,20,12,-10,5,-6,2
1522653552978437,21,-1,-10,-2,9,-19,-15,-12
1522653552990469,2,7,16,7,1,15,5,7
1522653552990469,-16,8,25,48,-15,0,1,-6
1522653552999493,-47,-13,-14,5,-2,-10,-7,-14
1522653552999493,-30,-1,-5,-11,-27,0,1,-7
1522653553013530,-6,-4,1,-10,37,6,2,-40
1522653553013530,51,4,2,11,-21,-27,-6,32
1522653553020549,9,5,-2,1,15,5,11,-2
1522653553020549,-110,-22,-12,-13,-8,8,3,5
1522653553036591,102,1,-2,-11,16,-11,-1,3
1522653553036591,-18,3,1,0,1,-2,3,0
1522653553038597,-43,6,7,7,-10,11,-2,13
1522653553038597,71,-9,-4,-5,-3,-9,-2,1
1522653553059653,-33,-6,-14,-21,13,35,1,-7
1522653553059653,31,0,2,-5,-28,-25,-16,32
1522653553060656,5,4,5,19,11,-11,3,-18
1522653553060656,-2,17,14,8,9,5,3,22
1522653553073690,-53,-7,1,0,4,-53,-4,-23
1522653553073690,66,-9,-7,-13,-13,41,5,0
1522653553080708,-41,6,1,18,0,-23,17,19
1522653553080708,63,2,-9,-10,3,41,-5,10
1522653553096751,-32,-5,-10,-32,-13,-29,-7,-14
1522653553096751,11,11,23,22,10,9,-4,8
1522653553098756,-46,-14,-3,15,2,-15,-14,-36
1522653553098756,55,7,-5,1,-12,-21,4,20
1522653553119812,-19,6,5,-11,4,12,5,10
1522653553119812,-21,-3,-7,-3,-7,8,4,-18
1522653553120815,51,-5,-7,-14,0,13,3,16
1522653553120815,-41,-4,2,1,0,-8,-12,-18
1522653553133850,15,9,19,14,-2,17,0,10
1522653553133850,-14,-8,-13,2,5,0,1,-9
1522653553140868,20,4,15,24,9,-1,6,5
1522653553140868,-18,-6,-11,-34,-40,-25,0,-18
1522653553156911,18,-3,-10,32,14,2,1,12
1522653553156911,-12,0,0,-14,-19,9,4,-3
1522653553158916,12,-6,-25,-48,-29,10,-4,13
1522653553158916,3,17,43,95,86,24,6,-2
1522653553178970,10,-3,-16,-47,4,6,1,10
1522653553178970,-17,-15,-51,-50,33,10,17,-3
1522653553180975,10,3,7,-40,6,23,7,-12
1522653553180975,1,0,9,2,-58,-31,-17,-4
1522653553194011,-7,6,36,92,55,-20,-15,-4
1522653553194011,7,3,-8,-7,-9,-5,3,20
1522653553201028,-11,-9,-5,-9,-13,-5,-7,-24
1522653553201028,-11,-4,-11,-8,6,5,-3,-6
1522653553217071,28,11,16,42,0,15,17,17
1522653553217071,-50,-2,6,14,-17,-24,-12,-12
1522653553218074,6,-9,-16,-7,3,0,2,25
1522653553218074,-16,1,-2,-13,2,9,-2,18
1522653553239130,-36,-10,-15,-21,-12,1,-4,-61
1522653553239130,50,8,12,-4,-11,-2,10,38
1522653553241135,-63,-5,3,7,5,-6,-3,-16
1522653553241135,9,3,-6,0,-3,-8,-9,14
1522653553254170,74,5,-8,-39,-1,10,6,21
1522653553254170,-47,0,9,10,12,6,-7,-11
1522653553260186,3,-12,3,21,3,-18,-4,-2
1522653553260186,25,-2,-15,-28,-9,-4,3,-2
1522653553277231,-76,2,-2,-9,5,37,4,18
1522653553277231,67,1,9,-6,-17,-22,-6,-17
1522653553278234,1,4,2,26,3,9,-3,19
1522653553278234,57,-1,-2,-5,-8,-31,1,-30
1522653553299290,-63,-18,-12,-21,-11,15,8,-12
1522653553299290,-31,8,17,37,3,-16,-2,6
1522653553301295,19,-1,-3,-12,-7,-33,-1,5
1522653553301295,-17,-1,-13,-40,-6,18,6,0
1522653553313327,29,5,1,16,4,-1,-2,2
1522653553313327,-23,-3,15,21,5,14,-5,-15
1522653553322351,5,-2,-6,-12,-10,-3,12,-8
1522653553322351,17,2,6,17,-1,-12,-2,5
1522653553337391,8,-4,-5,-18,-5,-16,-1,3
1522653553337391,-3,-5,-8,-17,-12,-5,-7,-6
1522653553338394,36,3,5,19,9,9,3,7
1522653553338394,-26,-5,1,6,-1,-8,-5,-3
1522653553359450,7,4,13,5,-12,-7,-5,4
1522653553359450,-7,-7,-13,21,13,-5,-4,-15
1522653553361455,23,5,3,-5,7,18,2,13
1522653553361455,-21,-7,-1,-38,-17,9,0,-2
1522653553373487,14,12,11,85,61,2,6,15
1522653553373487,-11,-3,0,-64,-73,11,-17,-15
1522653553382511,5,-13,-46,-29,46,-8,-8,-6
1522653553382511,-10,7,14,-1,5,40,27,7
1522653553396549,3,-7,-12,-7,36,-8,-19,-19
1522653553396549,15,8,-12,-67,-33,20,20,10
1522653553398554,-1,14,32,12,3,-4,-12,-11
1522653553398554,0,-2,16,91,11,-14,-7,9
1522653553419610,21,-4,-19,-72,-47,-18,-9,10
1522653553419610,19,5,22,66,65,-7,6,11
1522653553420613,-40,-9,-11,-8,-37,-6,-4,-17
1522653553420613,10,7,4,7,26,20,9,1
1522653553432644,-11,-1,7,15,-15,-6,-7,-18
1522653553432644,2,-2,-7,5,25,3,3,22
1522653553441668,12,9,4,2,-21,-4,-5,-24
1522653553441668,-5,-6,-19,-15,-9,-26,-8,15
1522653553456708,32,2,-4,-23,-4,20,6,4
1522653553456708,-68,-4,-6,-2,-24,-17,-3,-4
1522653553458714,44,-5,5,10,12,3,6,-3
1522653553458714,-65,-3,-8,-14,-8,11,-11,-25
1522653553479770,-25,-11,-6,-13,-21,-4,-3,3
1522653553479770,60,1,5,14,19,5,-6,-11
1522653553480773,28,8,3,-15,-7,-19,0,30
1522653553480773,-72,-7,2,13,19,-3,5,-13
1522653553492805,58,4,4,19,-3,12,1,14
1522653553492805,-46,-8,-1,2,-5,-26,4,1
1522653553501828,26,0,1,11,11,9,-11,2
1522653553501828,16,4,-9,-26,-15,-2,10,4
1522653553516868,-55,1,5,-8,-1,-20,7,-15
1522653553516868,-2,7,9,17,6,24,15,-9
1522653553518874,4,-10,-5,-9,-9,-26,-10,-4
1522653553518874,18,-7,5,11,11,5,0,-1
1522653553539930,32,-3,-1,9,-8,-2,-5,11
1522653553539930,39,4,0,-10,2,7,-18,-8
1522653553540933,-25,2,-6,-16,-15,7,12,16
1522653553540933,-27,-3,-3,-2,3,1,-15,-6
1522653553552964,25,6,2,-15,-2,-25,3,10
1522653553552964,-6,-5,-5,6,5,19,-3,-9
1522653553561989,-13,0,5,21,9,19,18,15
1522653553561989,7,-1,-8,-3,-3,1,-3,-10
1522653553577028,5,-2,-3,-2,-3,-27,-10,3
1522653553577028,-15,-5,-4,-21,-12,-10,-7,-7
1522653553579034,-7,2,3,36,-9,10,-1,-2
1522653553579034,32,5,4,-14,5,-9,-2,0
1522653553599087,-29,-8,-7,0,-11,13,1,-15
1522653553599087,-9,3,4,3,24,7,4,5
1522653553601093,6,2,8,68,24,-7,-7,-1
1522653553601093,11,-12,-18,-52,-50,-6,3,3
1522653553613125,-27,2,11,19,-57,-14,-13,-8
1522653553613125,3,-17,-48,-44,91,38,22,4
1522653553622149,9,7,20,-53,-42,46,19,-1
1522653553622149,4,-1,7,41,29,-13,-14,-9
1522653553637188,-6,1,-6,-19,-2,21,11,-2
1522653553637188,-18,3,9,19,-29,-46,-20,-11
1522653553638191,-12,-7,-17,18,2,-17,-12,-7
1522653553638191,15,11,26,29,-17,-7,0,18
1522653553659247,-3,-10,-22,-42,9,3,7,-5
1522653553659247,35,3,2,17,-22,0,-3,-4
1522653553661253,-47,-4,-4,-16,7,-1,-4,-23
1522653553661253,18,4,3,4,-14,-2,-9,16
1522653553673285,40,7,4,26,20,-2,-2,8
1522653553673285,-32,-4,1,-3,-5,-9,-1,16
1522653553682308,-30,-21,-14,-17,-17,-19,-13,-40
1522653553682308,77,6,-6,-1,12,13,11,16
1522653553697348,-64,0,1,-9,11,13,17,16
1522653553697348,108,16,12,6,-19,1,12,-9
1522653553698351,-101,-13,-5,-13,-6,-24,-14,-26
1522653553698351,-6,-11,-18,-11,14,13,-4,-21
1522653553719407,72,12,12,-2,12,15,0,25
1522653553719407,-52,6,12,4,-18,0,1,13
1522653553721413,68,-1,-10,-26,0,-7,-6,8
1522653553721413,-67,-7,3,28,25,40,2,-14
1522653553733444,-3,1,-1,-8,-17,-47,-7,14
1522653553733444,-1,-11,0,24,-2,-8,-7,-21
1522653553742469,32,6,-13,-37,-6,2,14,11
1522653553742469,-38,1,-1,14,-10,-15,-11,2
1522653553756506,-7,1,7,0,7,17,5,-9
1522653553756506,-19,-7,-2,15,-9,-26,-4,10
1522653553763524,7,-1,-5,-9,1,21,7,1
1522653553763524,59,-6,-5,-22,-10,-28,-5,14
1522653553779567,-14,0,11,38,11,12,-4,-17
1522653553779567,-26,-2,-1,-14,-12,-14,-2,3
1522653553780570,-16,-2,2,6,-9,34,2,10
1522653553780570,16,2,-6,-14,-11,-30,-14,-3
1522653553793605,-45,-8,-5,-12,0,5,-3,-28
1522653553793605,23,4,2,-8,3,9,3,15
1522653553801626,18,9,9,10,10,-2,-3,19
1522653553801626,-9,-3,2,-18,-12,12,1,-12
1522653553816666,12,3,8,26,7,3,-7,14
1522653553816666,-5,4,-3,1,18,14,20,-21
1522653553822682,9,4,-1,-21,-3,16,-15,5
1522653553822682,-18,-10,-18,11,9,-12,16,-5
1522653553839727,7,10,25,-19,-39,13,3,4
1522653553839727,-6,-3,-6,53,78,15,-11,3
1522653553840730,5,-2,-22,-39,-37,-26,-14,-6
1522653553840730,-9,-3,-8,-29,58,29,15,-12
1522653553852762,1,1,9,6,-78,-2,4,4
1522653553852762,-3,-3,-3,14,-50,-31,-25,-18
1522653553861786,47,5,13,0,112,9,16,36
1522653553861786,-74,-18,-31,-18,-43,14,-28,-22
1522653553876826,24,-5,-14,-17,-1,-12,1,-8
1522653553876826,-1,9,20,2,-16,-5,-4,-17
1522653553878831,10,1,7,37,-27,-24,-4,12
1522653553878831,21,5,5,1,-11,-11,-2,13
1522653553899887,-55,1,-7,-7,35,-35,-2,-13
1522653553899887,-15,-20,-12,-12,-14,55,29,-4
1522653553900890,1,-2,-1,2,-5,-28,-19,-5
1522653553900890,-40,-1,8,14,10,20,7,-12
1522653553912922,87,-4,-15,6,5,-12,2,23
1522653553912922,-35,-10,-11,-33,-7,-14,-9,10
1522653553921947,-71,6,10,19,-4,14,8,-25
1522653553921947,18,3,7,-7,-6,-18,-2,-6
1522653553935983,-55,-11,-8,-9,11,2,-10,17
1522653553935983,81,-5,-7,-22,-11,-3,-5,-31
1522653553943002,12,-4,-5,-13,-8,5,0,-13
1522653553943002,-71,9,24,46,7,-10,15,23
1522653553959044,12,-13,-17,-7,7,15,-13,-17
1522653553959044,28,9,7,-6,4,-25,4,42
1522653553961050,-25,-1,2,-6,0,37,11,-19
1522653553961050,78,4,-2,0,-5,-17,-4,17
1522653553982105,-38,-4,-2,-1,5,10,9,-12
1522653553982105,-59,-5,-5,-11,-11,4,-18,-37
1522653553983108,52,-2,-8,-8,-18,-23,2,25
1522653553983108,-39,0,11,3,-3,0,9,-10
1522653553996143,58,0,3,8,9,4,5,22
1522653553996143,17,5,4,6,-3,-13,-2,9
1522653554003162,-24,-6,-10,5,1,-25,5,-7
1522653554003162,29,2,5,3,4,28,-7,-24
1522653554019204,5,-4,-5,-9,10,2,-14,-8
1522653554019204,-12,6,4,-2,6,13,9,18
1522653554021210,-4,4,5,8,-5,4,-4,21
1522653554021210,7,-5,-6,-4,-13,-15,-12,-12
1522653554042265,-13,0,-2,-14,3,17,-1,-20
1522653554042265,-18,1,10,8,-14,-10,2,10
1522653554043269,8,-8,-5,20,-4,-8,-13,-3
1522653554043269,10,-2,-13,-30,13,4,-3,-1
1522653554055301,-11,9,19,8,-5,16,16,4
1522653554055301,-10,-10,-18,37,18,-14,-7,2
1522653554064324,7,5,0,-10,13,11,16,4
1522653554064324,9,-1,0,-45,-15,-4,-17,-9
1522653554079364,-9,-6,-11,64,-84,-26,3,15
1522653554079364,3,-7,-20,-94,114,25,-1,4
1522653554081370,13,7,20,6,-22,47,27,5
1522653554081370,10,-1,-7,-34,-26,-17,-9,-1
1522653554102425,-8,10,29,-22,-12,-35,-16,-9
1522653554102425,1,-12,-34,-7,-67,-40,-22,-12
1522653554103428,-9,-1,-6,5,-18,-5,0,-22
1522653554103428,0,-1,-1,-3,18,12,11,17
1522653554115460,-13,-2,7,25,12,1,-13,-19
1522653554115460,9,5,10,33,-2,9,5,27
1522653554124484,-54,-3,-11,-19,9,-12,-16,-30
1522653554124484,18,2,9,38,-8,9,5,-22
1522653554139524,-8,-4,-6,-17,23,-3,0,-10
1522653554139524,21,8,5,2,-11,11,22,20
1522653554141530,16,-8,-5,6,-6,-10,-4,7
1522653554141530,5,1,3,9,-3,-19,10,26
1522653554161583,-84,-13,-20,-13,29,23,2,-39
1522653554161583,29,18,17,-18,-13,0,8,30
1522653554163588,-45,-23,-3,6,-4,13,-9,-48
1522653554163588,61,1,-10,-4,-8,-35,-8,52
1522653554176623,-16,-2,-16,-37,5,-5,-3,-23
1522653554176623,-78,8,20,30,-10,8,-3,-3
1522653554182639,77,-4,-2,0,13,-22,-11,26
1522653554182639,-49,-2,4,21,18,11,1,-23
1522653554199684,28,0,-2,-3,5,-9,10,29
1522653554199684,-23,-8,-16,-35,-24,-25,-9,-32
1522653554200687,5,4,2,26,22,36,10,-4
1522653554200687,11,-7,0,-8,-16,-1,11,-8
1522653554221743,25,4,-7,-25,-14,-5,2,14
1522653554221743,-48,1,19,26,15,5,-11,-9
1522653554223749,20,1,7,1,9,-25,2,20
1522653554223749,-6,-3,-2,10,-9,-10,-8,-10
1522653554235780,33,5,3,8,17,13,-11,-2
1522653554235780,23,-5,-5,-17,-19,-16,-4,-6
1522653554244804,0,-2,-4,-7,-13,-6,-4,-5
1522653554244804,-24,-3,-5,6,4,8,-2,-17
1522653554259845,11,-1,-7,-4,10,-10,-1,18
1522653554259845,13,1,3,2,1,15,-2,-9
1522653554260847,6,0,-7,-4,-8,-1,0,11
1522653554260847,-5,0,4,14,-22,-3,0,-1
1522653554281903,-5,3,10,19,39,25,5,-1
1522653554281903,21,-1,5,6,-31,19,4,5
1522653554283908,-16,2,2,-1,5,-6,-1,4
1522653554283908,3,-11,-28,-15,-18,4,-1,-1
1522653554295940,9,13,21,24,7,5,6,6
1522653554295940,1,-3,-3,29,32,-3,1,-5
1522653554304964,-3,-4,-20,-22,27,14,22,6
1522653554304964,5,5,25,13,-59,-13,-16,-8
1522653554319001,-5,-18,-28,-22,28,-5,-10,1
1522653554319001,9,7,13,18,-80,-2,10,9
1522653554321009,11,6,12,17,53,-11,-19,-1
1522653554321009,-24,-5,-27,-37,13,29,13,-8
1522653554342063,1,1,8,-7,-14,-11,-10,5
1522653554342063,-3,1,-2,-9,-7,-18,-7,-9
1522653554344069,-21,0,4,18,-20,43,3,26
1522653554344069,5,10,14,19,20,-25,-12,-31
1522653554356100,1,1,-6,-5,-19,9,10,24
1522653554356100,-33,-11,-15,-15,14,-3,-1,-25
1522653554364122,17,15,14,11,-21,-6,7,11
1522653554364122,17,-2,-3,-1,34,14,4,-1
1522653554379161,-21,-2,-11,-9,-12,-26,-11,3
1522653554379161,37,0,0,-1,18,9,17,41
1522653554381167,-6,-5,0,-4,-6,-16,-19,-48
1522653554381167,29,4,1,-8,1,5,8,5
1522653554402223,-63,-6,-3,-3,-5,13,2,-37
1522653554402223,6,-4,4,-5,8,-9,-4,9
1522653554403226,20,-4,-14,-42,-26,-8,-5,10
1522653554403226,23,2,4,12,16,16,9,9
1522653554415257,25,-8,-7,-3,-17,-47,-41,-2
1522653554415257,-72,7,8,25,33,8,18,2
1522653554424282,-33,-1,4,10,-6,-6,4,-7
1522653554424282,40,-1,-5,-8,-7,-2,-17,-14
1522653554439322,18,3,-1,2,-3,9,11,11
1522653554439322,50,-4,-13,-37,-7,-1,-3,-9
1522653554441327,-19,6,13,21,2,-3,-1,0
1522653554441327,-62,-10,-1,-2,0,-22,-10,-5
1522653554462383,25,2,2,-21,-10,-10,2,-6
1522653554462383,35,1,-3,3,0,-1,-7,6
1522653554463386,4,0,4,18,6,12,-2,14
1522653554463386,15,-4,-3,-10,-5,-23,0,0
1522653554475418,-12,-2,-1,14,12,14,-2,-8
1522653554475418,-15,-3,-8,-19,4,1,-2,6
1522653554484442,5,-2,-3,-3,2,7,-4,-8
1522653554484442,6,-1,5,0,2,0,-3,14
1522653554499481,-24,-2,-2,5,-3,26,1,-13
1522653554499481,13,3,5,12,-20,2,1,-12
1522653554501487,-7,-10,-9,-4,20,-16,-4,-9
1522653554501487,-18,0,-6,-13,9,14,6,7
