timestamp,emg1,emg2,emg3,emg4,emg5,emg6,emg7,emg8
1522653496397939,98,-10,-22,2,-12,-12,-39,-105
1522653496397939,85,9,14,6,1,-3,-65,35
1522653496398942,-2,-28,-6,-10,0,-2,14,-47
1522653496398942,93,-21,-15,-8,-11,-13,-24,-29
1522653496399944,-79,11,1,7,-5,2,30,60
1522653496399944,85,-7,-7,-1,-5,2,14,-34
1522653496402958,-11,-36,-23,-9,-14,-12,-21,41
1522653496402958,40,16,-1,11,-3,6,36,48
1522653496410974,-105,0,11,23,1,-1,-21,38
1522653496410974,-102,-28,-8,-2,-10,-8,-9,30
1522653496420001,38,43,0,-3,-1,-1,-20,-106
1522653496420001,46,62,32,8,4,0,0,22
1522653496426013,-77,-34,-22,-10,-15,-10,22,54
1522653496426013,20,53,27,10,7,9,20,37
1522653496440051,-36,10,2,-14,3,-3,-8,1
1522653496440051,61,-52,-25,-16,-9,-9,-30,-128
1522653496451080,-48,18,11,-2,6,3,-3,-42
1522653496451080,22,-6,-4,-13,6,4,25,-5
1522653496471134,95,-55,-30,-26,-9,-12,-25,-70
1522653496471134,-128,-16,-6,-1,-1,3,2,-47
1522653496473139,124,6,18,4,14,8,6,21
1522653496473139,2,-37,-37,-20,-15,-18,-17,-122
1522653496485173,104,23,17,2,14,7,14,127
1522653496485173,-58,-2,-1,-7,2,-1,-21,-75
1522653496526280,-81,-44,-7,-12,3,5,10,49
1522653496526280,-10,34,9,6,7,-7,0,-17
1522653496527283,-87,-47,-33,-12,-15,-12,-9,74
1522653496527283,118,14,4,4,-1,-2,-2,-109
1522653496531293,-98,-8,0,-11,0,1,-14,-18
1522653496531293,7,26,3,-5,-2,5,15,106
1522653496532296,42,-2,3,9,1,7,7,-112
1522653496532296,-30,46,13,10,2,3,-1,-15
1522653496537309,19,-27,-7,-7,-7,-1,-5,7
1522653496537309,-11,-17,-14,-14,-8,-3,-19,-109
1522653496546333,116,8,5,6,4,8,10,39
1522653496546333,-127,-6,6,4,5,8,-5,-31
1522653496552349,39,61,15,1,3,-1,-8,-20
1522653496552349,93,-58,-13,1,-2,6,6,-41
1522653496568392,26,37,27,20,12,11,-17,-69
1522653496568392,-114,-29,-15,-11,-7,1,39,38
1522653496574408,-62,10,2,-5,1,-1,5,-21
1522653496574408,-8,29,23,12,13,13,-9,-7
1522653496597469,34,-43,-24,-10,-12,-9,-15,-70
1522653496597469,54,-18,-4,3,3,-2,-19,-42
1522653496598472,80,24,20,14,12,3,7,13
1522653496598472,-33,-39,-9,-2,-3,3,28,122
1522653496620531,-30,21,4,4,1,3,37,110
1522653496620531,71,9,2,-4,-4,-4,-28,32
1522653496621534,82,2,-12,-7,-11,-6,-5,-48
1522653496621534,86,20,13,4,2,1,0,-20
1522653496635571,-6,-16,-6,0,-6,-3,-15,-54
1522653496635571,-89,14,9,1,-1,-3,-5,-55
1522653496636574,-29,-17,-11,-8,-2,3,35,11
1522653496636574,3,-13,-11,-2,-4,-8,-12,-52
1522653496657630,37,22,3,2,0,-2,0,-37
1522653496657630,-34,14,5,12,-2,-1,-20,-47
1522653496658632,-68,-11,-2,16,1,6,-28,-94
1522653496658632,-81,-11,-10,1,-15,-8,39,28
1522653496680691,-71,7,3,14,-1,-2,-22,6
1522653496680691,-78,-25,-9,7,-5,-8,5,67
1522653496681694,-11,-4,-4,1,-2,-6,4,38
1522653496681694,-30,-19,-3,11,-3,0,-7,-23
1522653496695731,90,34,3,1,-14,-10,6,-10
1522653496695731,45,-5,-1,-4,-9,-6,5,87
1522653496695731,-12,6,1,1,-6,-6,-22,-43
1522653496695731,61,24,8,1,0,5,31,34
1522653496717790,-92,6,7,-1,3,1,9,-8
1522653496717790,-52,-43,-19,-12,-2,-6,-28,-27
1522653496718792,-47,7,-3,-15,-1,-3,16,40
1522653496718792,-4,20,7,-2,9,2,-42,-83
1522653496740851,26,-27,-8,-16,4,0,21,-6
1522653496740851,51,-2,-1,-3,6,9,78,127
1522653496740851,75,31,21,5,14,12,8,7
1522653496740851,-52,-24,-13,-13,-7,-11,-36,11
1522653496755891,48,13,6,-2,4,2,3,17
1522653496755891,93,-5,-4,-7,3,5,-11,44
1522653496755891,17,18,9,-2,0,-1,33,80
1522653496755891,0,-22,-17,-11,-6,-11,-42,-9
1522653496777949,-88,-19,-5,1,-3,-6,-7,-19
1522653496777949,1,20,6,0,1,-1,-23,-128
1522653496778952,74,-28,-17,-9,-7,-10,-30,-34
1522653496778952,-71,19,21,10,12,8,-5,-81
1522653496800008,-128,10,3,-4,2,10,75,-27
1522653496800008,-88,-54,-32,-18,-19,-14,28,56
1522653496801011,81,18,9,11,0,-7,-49,-104
1522653496801011,31,10,6,7,2,-1,7,8
1522653496815048,126,-21,-12,-10,-4,-12,-73,9
1522653496815048,-37,29,8,0,3,-2,-3,-110
1522653496816051,-28,0,2,-1,1,2,19,40
1522653496816051,54,12,4,2,0,6,21,19
1522653496838110,-42,-4,-3,-4,-7,-10,-62,-37
1522653496838110,33,4,3,-3,0,1,-3,41
1522653496839112,-7,-12,-5,-8,0,-2,-16,64
1522653496839112,12,-14,-11,-4,-3,-11,2,-30
1522653496860168,-12,-8,-4,-7,-4,-2,26,80
1522653496860168,74,-6,4,0,3,1,17,-39
1522653496861171,-9,-34,-14,0,-6,-2,-1,48
1522653496861171,-128,3,-5,-4,-9,-2,0,-58
1522653496875208,-35,22,11,6,-2,-6,-20,-90
1522653496875208,67,-10,1,6,-2,-7,-53,-33
1522653496876211,-31,11,5,3,-1,4,25,2
1522653496876211,19,3,-7,4,-10,-5,-9,17
1522653496898270,-81,-2,3,14,5,10,26,74
1522653496898270,-29,32,7,11,1,4,9,64
1522653496898270,-1,-22,-5,1,-7,-5,-3,-68
1522653496898270,38,1,-1,3,-1,-3,-7,-8
1522653496928349,-10,-25,-18,-4,-6,-5,-32,-57
1522653496928349,84,71,29,8,6,0,-21,-24
1522653496929352,91,-31,-10,-2,-1,1,19,93
1522653496929352,74,-7,-12,-7,-12,-3,18,14
1522653496935368,-31,-13,-1,5,-3,-3,-13,-3
1522653496935368,58,-15,-7,-7,-6,3,25,98
1522653496936371,-15,80,43,16,7,3,-14,-63
1522653496936371,-57,-12,-7,-16,-10,-12,-9,73
1522653496958430,127,37,15,7,1,2,15,-75
1522653496958430,-23,-30,-14,-4,-5,-5,-4,-70
1522653496958430,2,-9,-4,-5,4,4,18,56
1522653496958430,-101,-58,-28,-14,1,0,16,124
1522653496980488,79,67,10,-8,-5,-4,-3,32
1522653496980488,57,-45,-18,-12,-3,-2,1,73
1522653496981491,-13,-12,-10,-10,-5,-5,-22,-98
1522653496981491,32,19,15,2,16,14,20,25
1522653496995528,-77,-24,1,-17,-3,-7,-11,38
1522653496995528,32,26,7,-6,10,6,-1,-8
1522653496996531,-119,-12,-7,-13,-4,-5,-2,-53
1522653496996531,122,-16,-9,-1,0,0,-11,-128
1522653497017587,16,-24,-4,1,4,7,23,-46
1522653497017587,-80,-30,-8,-9,-4,-3,-13,-46
1522653497018589,80,49,3,-8,-7,-8,-20,-91
1522653497018589,-101,-6,14,10,10,9,-7,-121
1522653497040648,113,5,11,12,9,10,13,80
1522653497040648,49,-44,-36,-23,-12,-9,7,15
1522653497041651,36,3,0,2,6,0,-4,-57
1522653497041651,3,83,38,15,12,6,1,-66
1522653497055688,127,20,-1,-3,0,0,6,60
1522653497055688,-23,-3,0,-2,2,6,22,23
1522653497056691,-63,-12,-12,-9,3,-4,-15,-32
1522653497056691,28,-33,-23,-24,-11,-12,-25,17
1522653497077747,-24,-4,8,9,13,10,2,-84
1522653497077747,30,81,23,8,3,4,5,-44
1522653497078749,1,-71,-21,0,3,4,13,73
1522653497078749,-19,22,21,17,11,8,-3,-101
1522653497100808,-37,-2,-15,-10,-6,-5,9,95
1522653497100808,-128,1,9,3,-1,-6,-23,-43
1522653497100808,5,0,-1,-3,-3,5,13,54
1522653497100808,22,-14,-7,0,-2,2,3,-12
1522653497115848,-28,-12,4,5,0,0,7,39
1522653497115848,52,5,6,6,4,1,-7,-24
1522653497115848,-8,-1,-4,1,0,0,5,16
1522653497115848,-3,-5,-6,-1,-4,-1,2,32
1522653497137907,-15,2,-1,0,-1,0,-4,-18
1522653497137907,-12,-7,3,1,3,0,-2,-18
1522653497138909,-96,-13,1,2,2,2,-12,-50
1522653497138909,13,-6,-10,0,2,3,7,56
1522653497159965,20,-7,6,6,3,-1,-2,-88
1522653497159965,48,-10,-4,4,0,1,3,14
1522653497160968,57,18,4,6,2,2,13,16
1522653497160968,-59,45,27,14,7,6,-8,-47
1522653497175005,11,-2,-9,0,-2,1,9,1
1522653497175005,-110,-18,-1,-1,-2,-3,-7,-26
1522653497182024,39,13,-12,0,-6,-7,-32,-65
1522653497182024,-31,-28,-3,-5,-10,-6,34,68
1522653497198067,29,-16,-15,0,-11,-8,-13,-54
1522653497198067,2,16,-3,-4,-10,-9,-18,-46
1522653497199069,44,-1,0,3,-3,-3,-13,-69
1522653497199069,-14,-15,-9,-5,1,0,-12,11
1522653497220125,-64,14,5,-2,7,5,-1,24
1522653497220125,17,-21,-9,-4,3,6,13,51
1522653497221128,-2,-15,2,7,-2,4,5,87
1522653497221128,44,29,1,17,-6,-3,-15,-34
1522653497235166,30,-14,-6,12,-8,-2,5,28
1522653497235166,-36,20,7,22,-1,-2,-10,-43
1522653497242184,-12,-11,-6,8,-6,-9,-2,-8
1522653497242184,25,-16,-7,-1,-10,-7,3,50
1522653497258227,-24,1,-3,0,-9,-3,4,-6
1522653497258227,13,10,5,-7,-10,-3,-6,-2
1522653497259229,2,-4,-1,25,0,0,14,10
1522653497259229,-11,9,1,-5,0,8,-4,-46
1522653497280286,51,9,2,-11,1,-11,-19,54
1522653497280286,15,-14,-1,-24,-2,-2,-10,34
1522653497281288,-14,-1,2,-24,0,-10,-2,-18
1522653497281288,36,34,17,5,10,-3,9,19
1522653497294323,-27,1,3,-11,4,11,3,42
1522653497294323,79,-4,-1,-3,4,2,-12,-31
1522653497302351,75,50,16,5,3,11,8,-42
1522653497302351,-49,-16,-7,-2,2,5,24,70
1522653497318387,30,-20,-8,-8,-4,-7,-19,-37
1522653497318387,93,-12,-6,-2,-2,0,15,50
1522653497318387,-6,-7,-5,-5,-2,-1,-6,30
1522653497318387,-20,4,-4,-11,4,0,6,-62
1522653497340447,-69,-34,-15,-18,-6,-9,-2,22
1522653497340447,-51,8,4,3,7,12,82,74
1522653497341449,-21,-19,-4,-7,-1,7,18,66
1522653497341449,18,-22,-12,-11,-14,-18,-33,49
1522653497354484,13,3,6,0,5,1,1,-23
1522653497354484,31,1,-2,-9,2,-5,-32,-75
1522653497362505,19,28,10,-4,-2,-7,14,72
1522653497362505,-102,-22,-5,1,0,-3,-10,5
1522653497377544,-17,17,1,-2,-2,-3,-4,-20
1522653497377544,75,-33,-8,-1,4,-2,-35,3
1522653497378547,-38,-46,-26,-11,-7,-9,13,-38
1522653497378547,11,4,-3,0,-10,-22,-59,-100
1522653497400605,11,7,10,8,3,4,-16,-85
1522653497400605,-11,9,0,3,2,-6,7,71
1522653497401610,-117,-49,-2,8,2,-4,-26,-58
1522653497401610,127,18,0,2,1,6,54,117
1522653497414643,-127,-21,-4,4,-2,-3,-21,-79
1522653497414643,-47,20,-7,-5,-9,-13,-9,-21
1522653497422664,10,21,2,6,0,5,22,-7
1522653497422664,41,-15,-5,-2,-4,-3,10,57
1522653497437704,40,1,0,0,-3,-8,-13,79
1522653497437704,36,35,24,11,11,10,29,25
1522653497438707,-62,-21,-13,-8,-1,-3,-4,-6
1522653497438707,109,85,39,11,13,11,11,29
1522653497460765,-59,-14,-14,-12,-4,-5,1,69
1522653497460765,36,-21,-7,-8,-5,-4,-1,4
1522653497460765,-14,3,4,-1,-3,17,40,104
1522653497460765,18,-18,-9,0,-7,-11,-6,-40
1522653497474803,-23,-17,-6,5,-2,3,0,-51
1522653497474803,-7,43,11,6,1,3,13,-25
1522653497481821,-35,-1,-14,-3,-5,-6,-32,-6
1522653497481821,40,-2,0,11,2,7,-3,15
1522653497505885,61,0,-2,7,-7,-8,10,39
1522653497505885,79,-27,-11,8,-2,3,7,26
1522653497505885,127,76,19,7,-5,-8,-3,52
1522653497505885,-33,-23,-8,8,-11,4,-5,-59
1522653497520925,94,9,0,3,-5,-4,6,-13
1522653497520925,61,23,22,6,0,4,-9,-66
1522653497520925,7,-78,-36,-26,-16,-19,-31,2
1522653497520925,18,21,10,-3,3,1,21,29
1522653497542984,47,29,7,-3,6,15,-1,-68
1522653497542984,-128,-15,0,-8,5,-10,-1,-20
1522653497543987,90,4,12,-6,4,13,20,84
1522653497543987,-21,-14,-11,-6,-1,-4,-16,41
1522653497565043,-49,-46,-16,-6,0,1,8,-116
1522653497565043,-87,28,22,-3,0,-3,-25,30
1522653497566045,-18,18,1,-9,2,0,1,25
1522653497566045,-59,-83,-40,-33,-14,-12,-1,100
1522653497580083,-19,42,17,7,6,8,1,20
1522653497580083,66,2,-14,-10,2,0,12,-18
1522653497581086,-85,-38,-9,0,-8,-8,-17,13
1522653497581086,55,-27,-2,3,0,2,-12,-96
1522653497603144,41,-6,-3,-1,3,1,4,86
1522653497603144,25,-24,5,-3,-9,-5,-15,-97
1522653497604147,127,19,-4,0,1,-2,-10,24
1522653497604147,-87,20,4,1,5,0,-8,-78
1522653497625203,-16,-25,1,-2,8,1,5,42
1522653497625203,56,72,6,-12,-3,-3,-9,-38
1522653497626205,5,9,0,4,7,4,3,33
1522653497626205,-46,10,9,9,3,6,0,-21
1522653497640243,13,15,7,1,1,1,0,-63
1522653497640243,22,42,17,1,6,5,15,47
1522653497641246,-100,-68,-34,-14,3,4,-15,-128
1522653497641246,117,74,18,10,12,7,-6,67
1522653497663304,-119,-15,-11,-5,-1,1,9,6
1522653497663304,-35,-50,-21,-2,3,6,19,115
1522653497663304,89,47,26,5,0,-4,-2,-41
1522653497663304,115,5,-5,-7,0,-1,0,-48
1522653497685363,-39,-30,-23,-12,-10,-10,-10,17
1522653497685363,33,14,5,4,3,-3,-19,-61
1522653497686365,51,-10,4,6,5,4,7,54
1522653497686365,11,14,6,5,5,4,6,15
1522653497702408,0,35,13,3,4,1,8,-77
1522653497702408,-128,-23,0,0,4,8,-6,-2
1522653497702408,-42,9,-2,2,-1,2,-13,-98
1522653497702408,40,-52,-20,-6,-8,-3,-4,15
1522653497722461,-67,-13,2,-2,-1,-4,-30,-77
1522653497722461,-34,6,5,10,4,9,11,-83
1522653497723464,13,38,7,10,0,0,-14,-88
1522653497723464,17,-37,-17,-3,-4,-1,6,-53
1522653497745523,-6,39,12,7,2,9,18,31
1522653497745523,127,-76,-44,-16,-13,-13,-28,-24
1522653497746525,-47,-11,-7,4,-6,-6,2,-13
1522653497746525,48,10,18,13,3,3,7,-30
1522653497759560,59,31,12,8,-5,-1,-12,1
1522653497759560,64,12,3,6,-3,-1,5,46
1522653497767581,-50,-15,-13,-3,-5,-5,5,-66
1522653497767581,-12,13,17,8,1,0,18,-16
1522653497782621,30,4,0,-1,-2,-4,1,-21
1522653497782621,-27,-7,3,2,-2,-5,-18,33
1522653497783624,66,-6,3,-2,2,3,28,51
1522653497783624,-91,1,-4,-2,0,1,-12,2
1522653497805682,55,-18,-6,-2,-4,-11,-11,7
1522653497805682,1,37,7,9,-3,-1,2,39
1522653497806685,-18,10,10,14,2,7,22,66
1522653497806685,-31,-22,-14,-4,-7,-8,-20,-75
1522653497819720,26,4,7,2,3,3,26,-4
1522653497819720,8,-18,-11,0,-5,-4,6,4
1522653497827742,-20,2,10,7,-1,-7,-42,-50
1522653497827742,-115,10,3,2,-3,3,37,45
1522653497842781,8,-9,-9,0,-9,-14,-23,26
1522653497842781,57,5,-3,-3,-5,1,26,41
1522653497843784,32,7,3,6,-2,-4,-5,-49
1522653497843784,-76,3,-2,-4,-6,-5,-29,-20
1522653497865843,5,21,6,-4,0,-3,41,120
1522653497865843,-58,-37,-15,-8,-7,-18,-43,-77
1522653497865843,69,30,14,-4,5,15,41,40
1522653497865843,-85,-49,-31,-27,-15,-12,-21,17
1522653497879880,76,10,-1,-8,3,8,27,27
1522653497879880,-52,-14,-11,-8,-4,-11,-32,-85
1522653497887901,-18,18,15,3,11,21,-16,-42
1522653497887901,46,4,3,-11,7,-32,0,57
1522653497902941,-69,-49,-11,-11,4,1,-13,-68
1522653497902941,-30,15,8,-2,2,-4,1,-20
1522653497903944,23,-19,-7,-8,-2,-8,-18,28
1522653497903944,74,22,9,1,8,22,28,83
1522653497925000,-48,-17,1,-3,0,-4,-3,-3
1522653497925000,39,7,1,-4,5,10,4,-33
1522653497926002,-104,-13,-2,-2,-1,-17,15,5
1522653497926002,111,17,11,6,4,-5,-34,-32
1522653497940040,18,-2,-10,-5,1,3,-15,-26
1522653497940040,-94,29,14,3,3,11,39,84
1522653497948061,127,-2,-5,0,-4,-4,-3,73
1522653497948061,-103,-10,-5,-3,-4,0,31,51
1522653497963101,24,-6,-1,1,-1,0,5,31
1522653497963101,-67,-2,-1,0,0,8,8,18
1522653497964104,-44,-26,-10,-6,-7,-7,-42,-86
1522653497964104,-21,12,9,7,7,3,16,26
1522653497985160,5,33,14,3,0,15,-9,20
1522653497985160,-64,-34,-7,-4,-4,-25,21,22
1522653497986163,29,17,10,13,5,7,43,64
1522653497986163,50,-1,-10,-7,-6,-1,18,62
1522653498000200,28,4,-4,-3,-5,-11,-6,-2
1522653498000200,55,2,-10,-6,-3,31,24,41
1522653498008221,-24,-6,11,8,3,4,18,59
1522653498008221,-5,13,6,5,-1,11,-17,-108
1522653498023261,37,4,9,0,4,9,-6,-24
1522653498023261,55,-5,3,1,2,1,22,-18
1522653498023261,-87,-74,-33,-12,-11,-9,-12,-34
1522653498023261,15,35,14,0,-5,-8,-2,-21
1522653498045320,-83,2,0,3,5,1,-36,-110
1522653498045320,5,3,4,10,2,-5,-38,-100
1522653498046323,54,6,0,8,4,3,8,-48
1522653498046323,56,-27,-25,0,-11,-8,25,49
1522653498059357,45,3,0,11,-10,-12,24,47
1522653498059357,-109,-12,1,14,-3,-7,-10,-84
1522653498068381,19,-6,-17,-4,-14,-13,-27,-106
1522653498068381,-2,12,0,-8,-10,6,-11,39
1522653498083421,127,-24,-32,-26,-12,-21,-3,78
1522653498083421,-42,-55,-27,-12,-8,-7,-6,-19
1522653498083421,40,53,26,5,10,9,-6,8
1522653498083421,89,-13,-17,-17,1,4,5,-3
1522653498105480,-38,-8,-1,-2,-1,-2,-28,-93
1522653498105480,87,-47,-22,-9,1,-1,23,106
1522653498106482,101,12,1,1,1,-5,-12,-47
1522653498106482,-40,-32,2,11,1,-2,-8,17
1522653498119517,19,31,11,1,2,5,9,18
1522653498119517,87,53,11,-2,-1,-6,-34,-97
1522653498127538,32,-25,6,5,10,14,17,63
1522653498127538,48,-24,-26,-16,-12,-15,-5,21
1522653498142578,38,31,26,2,5,-7,-8,-46
1522653498142578,-108,16,17,3,5,33,9,51
1522653498143581,76,54,8,-5,6,-1,14,-11
1522653498143581,-126,-14,-2,0,9,7,58,-19
1522653498165640,83,-20,-16,-7,-8,-7,-16,-97
1522653498165640,106,17,0,0,4,-5,2,45
1522653498166642,-101,-24,0,-11,0,2,-3,-55
1522653498166642,105,-6,1,6,9,11,-13,-5
1522653498188701,-39,42,21,4,10,15,-8,-65
1522653498188701,54,-53,-18,-18,-3,-20,8,50
1522653498189704,-88,-19,-7,-9,-4,-9,-42,-71
1522653498189704,50,-31,-16,-15,-5,-13,-32,-76
1522653498202738,-113,17,4,-4,5,9,11,-13
1522653498202738,79,-22,-5,-8,4,3,-5,8
1522653498203741,10,23,3,7,8,6,14,67
1522653498203741,-38,8,5,2,-5,-6,-26,-128
1522653498225800,60,4,-2,5,3,6,20,88
1522653498225800,17,-5,-4,-2,-4,-3,-16,-49
1522653498225800,-10,4,0,3,-1,-6,5,14
1522653498225800,-124,-5,4,12,-4,0,-7,-51
1522653498248861,61,-17,-10,-4,-2,0,0,-43
1522653498248861,-78,-3,12,3,4,4,6,56
1522653498249864,-25,21,-4,0,-1,2,10,-47
1522653498249864,-97,24,20,12,4,0,-4,51
1522653498262898,-48,-33,-5,0,-1,-2,9,32
1522653498262898,72,37,0,0,-5,-3,-3,-40
1522653498263901,-41,13,4,6,-4,0,0,-8
1522653498263901,27,31,17,5,6,20,-6,-31
1522653498284957,-81,-23,-16,-14,-6,-29,-10,22
1522653498284957,18,3,1,-4,0,21,0,58
1522653498285960,58,-22,-9,-1,-5,4,16,41
1522653498285960,58,5,-2,1,-2,-3,-4,-43
1522653498308018,26,5,6,5,4,14,3,35
1522653498308018,-3,4,0,4,2,17,-13,-69
1522653498309021,8,-21,-6,-2,0,-16,-13,-7
1522653498309021,59,19,-1,0,-5,-19,7,10
1522653498323058,-71,-25,-6,0,-4,6,-9,23
1522653498323058,28,-14,-7,1,-7,-38,-20,-16
1522653498324061,-12,15,1,3,-2,7,-10,-76
1522653498324061,-25,-29,-14,-5,1,15,9,46
1522653498345117,11,75,16,3,1,-7,7,-36
1522653498345117,-19,-12,-2,5,-4,9,-7,-60
1522653498346120,-12,-22,-1,7,-6,-7,-27,-57
1522653498346120,-32,-2,-5,-6,-4,-12,3,62
1522653498368179,10,-1,2,-1,2,5,15,42
1522653498368179,-19,-33,-9,0,-1,-9,-28,-43
1522653498369181,-47,28,15,9,2,8,6,-45
1522653498369181,-47,-20,2,0,2,-4,-41,-90
1522653498383218,-81,-30,-10,-9,-4,3,-5,-87
1522653498383218,47,9,-4,4,-8,-4,21,68
1522653498384221,-55,-22,-12,9,-7,-11,-6,16
1522653498384221,15,61,40,25,14,24,29,-45
1522653498405277,80,-45,-26,-5,-16,-16,-24,46
1522653498405277,9,26,15,10,4,1,29,66
1522653498406280,-31,-41,-24,-15,-11,-11,-12,-15
1522653498406280,82,21,11,8,3,1,35,61
1522653498428338,57,5,4,3,-3,5,70,115
1522653498428338,-101,2,-10,9,-8,-13,31,70
1522653498428338,122,13,-5,29,-11,-13,-42,36
1522653498428338,73,-26,-21,35,-12,-10,-6,-27
1522653498443378,45,-10,0,64,4,2,47,56
1522653498443378,45,38,16,34,4,-3,-39,-49
1522653498443378,-28,-3,-3,-4,1,7,6,75
1522653498443378,-32,2,0,-27,-3,-22,-23,-15
1522653498465437,78,-15,-13,-46,-8,-12,3,37
1522653498465437,-54,18,17,-21,18,16,7,-60
1522653498466440,106,-15,-11,-43,2,1,55,-24
1522653498466440,15,4,-4,-29,-3,-9,-42,-10
1522653498487496,-17,15,12,-24,11,1,-37,-29
1522653498487496,105,-12,-1,-23,5,-3,-22,13
1522653498488498,-78,-2,-5,-28,-3,11,28,68
1522653498488498,20,-21,-7,-19,1,-4,16,32
1522653498502536,25,4,0,-11,-2,-5,-61,-79
1522653498502536,-39,-9,-5,-7,-8,-9,-44,-92
1522653498503538,-37,15,16,6,12,21,69,32
1522653498503538,74,8,1,-3,-2,13,46,88
1522653498525597,-70,2,-1,-5,-3,-7,-30,-45
1522653498525597,15,6,-2,-3,-2,-2,-10,-61
1522653498526600,-56,-33,-20,-14,-12,-19,-28,38
1522653498526600,-9,43,31,14,13,17,-20,-28
1522653498547656,96,-12,-5,-9,2,7,1,-40
1522653498547656,-110,-20,-14,-5,-3,2,15,-15
1522653498548659,60,33,19,12,4,-21,-49,-66
1522653498548659,-86,-25,-4,-4,1,1,-22,-74
1522653498562696,-97,-11,0,3,0,7,26,27
1522653498562696,102,-35,-21,-11,-9,11,38,113
1522653498563698,-54,38,15,11,4,4,-22,-78
1522653498563698,-77,-11,0,1,-2,-10,-36,-39
1522653498585757,74,-13,-9,-3,-8,2,30,44
1522653498585757,-67,3,1,6,-6,-9,-7,-32
1522653498585757,-7,4,2,6,3,8,17,94
1522653498585757,-82,-1,1,-3,3,4,33,18
1522653498607816,29,3,-2,4,-5,-14,-38,-83
1522653498607816,91,29,11,4,4,0,11,110
1522653498608819,108,23,7,8,-3,5,26,71
1522653498608819,49,-46,-27,4,-8,-2,-15,-119
1522653498622855,-17,17,16,11,6,3,20,56
1522653498622855,-22,-12,-30,-20,-30,-22,14,22
1522653498623859,127,-18,-9,16,-4,4,-18,-121
1522653498623859,6,-8,-3,2,-13,-11,11,49
1522653498645917,33,42,24,15,1,-5,4,-35
1522653498645917,-111,12,-6,-8,0,-4,-3,61
1522653498645917,72,2,0,-6,-2,1,33,85
1522653498645917,-68,10,-13,-19,-9,-8,-13,-5
1522653498667976,-41,-36,-12,-16,1,3,2,-99
1522653498667976,-11,12,17,5,10,0,-2,14
1522653498668980,70,-11,-6,-12,-6,-3,-11,101
1522653498668980,-21,-5,2,4,4,9,16,0
1522653498683015,-29,18,-9,-11,-2,-2,-8,84
1522653498683015,-38,2,10,5,7,7,33,85
1522653498684018,-22,-10,-6,1,-1,1,-9,-128
1522653498684018,11,5,2,-7,-4,-4,-31,-64
1522653498705075,-38,20,0,-20,-8,-5,1,46
1522653498705075,-26,-55,-2,7,3,7,-20,-41
1522653498706077,-19,-17,-20,-8,-9,-17,-7,104
1522653498706077,43,4,2,5,5,-8,-35,-67
1522653498728136,16,-12,-18,-12,-2,2,40,120
1522653498728136,-26,-5,3,1,5,-3,-23,-78
1522653498729139,-128,33,21,-2,6,6,-1,2
1522653498729139,5,-90,-30,-12,0,0,11,13
1522653498743176,80,-45,-17,-5,-3,-1,-22,-99
1522653498743176,-30,31,15,10,12,16,1,-128
1522653498744179,-57,15,25,7,12,5,-3,58
1522653498744179,-67,19,-11,-19,-10,-8,16,127
1522653498765235,-56,-8,-5,1,10,0,-34,-128
1522653498765235,124,15,13,-3,4,-3,-27,-100
1522653498766237,127,15,7,0,5,9,27,106
1522653498766237,62,45,23,11,5,7,10,-116
1522653498788296,-105,-41,-25,-13,-10,-2,8,106
1522653498788296,-47,6,-6,-2,-1,-1,7,1
1522653498788296,-14,-5,-1,8,4,4,-9,-128
1522653498788296,25,28,10,-2,8,6,6,119
1522653498803336,94,-14,-8,2,0,-1,22,-45
1522653498803336,-74,19,-1,13,-2,-4,-14,-84
1522653498803336,-31,-21,-9,-1,-1,-1,-8,55
1522653498803336,9,16,8,24,4,1,-4,-79
1522653498825394,-102,4,-7,-6,1,3,2,88
1522653498825394,127,-22,-7,-4,2,2,31,102
1522653498826397,45,-23,-15,1,-4,-10,-34,-128
1522653498826397,-27,6,7,5,0,6,10,38
1522653498848456,-75,37,21,6,-3,1,-4,-9
1522653498848456,44,1,0,5,-2,3,6,24
1522653498848456,-5,0,-1,-2,-2,0,-9,-23
1522653498848456,51,-1,-6,-5,4,4,8,20
1522653498862493,92,31,22,7,12,6,-5,-10
1522653498862493,-108,-37,-21,-9,-7,-7,-19,-52
1522653498863496,23,-11,-1,-1,4,4,20,73
1522653498863496,65,17,-1,1,-2,-3,-11,-67
1522653498885557,39,15,18,19,12,12,16,7
1522653498885557,18,10,2,2,-1,-2,-14,-90
1522653498886558,13,9,9,8,3,15,2,-36
1522653498886558,-19,21,1,-1,-2,-10,0,21
1522653498907613,-49,-39,-20,-12,-4,-5,9,93
1522653498907613,32,-5,-8,-7,-7,-7,7,15
1522653498908616,-81,49,26,3,-3,5,28,52
1522653498908616,-4,-15,-17,-14,-12,-4,-14,-62
1522653498922653,26,1,6,5,1,0,-15,-97
1522653498922653,-28,2,5,0,1,4,10,29
1522653498930674,-43,9,-4,3,-4,-9,-36,-97
1522653498930674,26,-5,2,4,5,10,17,104
1522653498945714,-91,-12,-9,-3,-5,-4,1,-18
1522653498945714,-17,9,-1,9,-6,-4,-10,-53
1522653498946717,21,-19,-12,-3,-8,-9,-11,-76
1522653498946717,62,-5,6,1,2,1,30,24
1522653498967773,15,6,6,4,2,3,-21,-106
1522653498967773,21,18,12,5,1,-4,-25,-64
1522653498968778,70,-29,-15,-6,-3,-9,10,74
1522653498968778,-90,-3,3,6,-1,0,-15,-31
1522653498981810,17,-1,0,4,-6,-11,-56,-79
1522653498981810,52,17,12,14,6,10,36,64
1522653498990835,-73,-3,-3,1,-7,-15,-60,-85
1522653498990835,37,-15,-8,6,-6,2,40,95
1522653499005874,-21,-19,-7,9,-5,-1,-15,-12
1522653499005874,24,24,5,10,-7,-7,-21,-51
1522653499005874,7,13,4,1,-7,-3,41,51
1522653499005874,-70,-5,-1,-2,-5,-5,-12,-49
1522653499027933,-39,9,1,-4,-9,-6,-6,-24
1522653499027933,-13,-17,-8,-7,-5,0,-9,-33
1522653499028936,26,-6,1,-5,2,6,28,60
1522653499028936,-39,11,3,-11,-2,-9,-31,-114
1522653499050994,8,-19,-10,-16,3,-7,0,4
1522653499050994,-17,-12,2,-10,6,10,15,33
1522653499051997,1,-5,-3,-10,3,-17,-28,-110
1522653499051997,49,0,-3,-13,6,-9,-13,82
1522653499065032,0,22,9,4,10,10,20,-3
1522653499065032,6,-29,-23,-14,-8,-9,7,82
1522653499066034,-46,-13,-5,0,1,11,-13,-45
1522653499066034,34,24,4,-3,-1,9,25,73
1522653499088093,-20,-21,-14,-6,-4,-5,0,-41
1522653499088093,7,14,13,12,2,1,-30,-95
1522653499089096,29,4,-2,-4,-1,3,-8,68
1522653499089096,6,-10,-1,-2,0,-4,-4,6
1522653499102130,93,3,5,1,1,-3,-48,-36
1522653499102130,-35,-13,-8,-7,-2,2,11,76
1522653499110151,1,-5,-4,-2,-8,-11,-35,-121
1522653499110151,52,3,5,5,4,8,29,-6
1522653499125192,91,-3,-1,-5,-3,3,-18,-16
1522653499125192,58,25,16,2,-2,-3,34,74
1522653499126194,-62,-12,-1,1,-2,-1,7,31
1522653499126194,36,-14,-8,-10,-7,-4,-18,-45
1522653499148253,-56,2,4,1,2,5,32,115
1522653499148253,24,-5,-8,-4,-8,-6,19,65
1522653499149256,-57,5,-10,-7,-7,3,42,-32
1522653499149256,-124,-50,-16,2,-7,-7,-4,-43
1522653499162290,-77,25,7,7,-1,-2,11,-62
1522653499162290,-111,-24,-9,5,-2,-8,-44,-119
1522653499170311,110,62,21,18,0,0,8,98
1522653499170311,-29,-53,-24,-1,-10,-8,14,87
1522653499185352,34,82,25,19,-3,-7,1,-74
1522653499185352,24,-22,-6,16,4,5,13,-32
1522653499186354,118,33,9,3,-1,-2,1,-31
1522653499186354,-61,12,-9,-9,-9,-14,-29,-31
1522653499208413,19,-9,15,11,5,9,17,-26
1522653499208413,113,-24,-16,-16,-13,-11,2,85
1522653499208413,-24,-17,-6,-10,-6,-3,17,116
1522653499208413,-45,38,20,-2,9,3,-21,-120
1522653499222450,52,-41,-21,-24,-5,-10,-18,83
1522653499222450,96,-1,-9,-8,5,2,29,53
1522653499230471,-67,-31,-7,-4,4,1,-4,-65
1522653499230471,0,1,14,-1,4,3,-5,-73
1522653499245512,21,7,-14,-9,2,7,36,97
1522653499245512,22,-18,22,-1,0,0,-41,-128
1522653499246514,50,8,1,8,8,8,0,127
1522653499246514,36,-47,-13,-5,-3,1,10,22
1522653499267570,-13,-61,-44,-22,-17,-13,2,44
1522653499267570,-74,46,17,17,6,0,-14,-87
1522653499268573,-25,-5,-7,-9,-4,-2,6,18
1522653499268573,38,39,21,10,14,17,27,52
1522653499282610,-21,-66,-37,-28,-11,-13,-13,77
1522653499282610,-95,-35,-10,-11,-7,-4,13,127
1522653499290631,-70,-23,-4,3,-1,-6,-21,-121
1522653499290631,106,29,7,5,5,4,-2,-101
1522653499305672,-55,-15,12,5,3,4,5,4
1522653499305672,-24,34,-3,0,-2,0,4,-33
1522653499306674,-89,-1,2,1,7,1,-21,-122
1522653499306674,109,-25,-17,-20,3,3,24,93
1522653499327730,34,11,15,16,14,10,23,-3
1522653499327730,70,29,2,0,8,4,-1,56
1522653499328733,-17,-38,-2,-3,9,5,0,-20
1522653499328733,-122,7,-8,-8,0,-6,-36,-35
1522653499350791,106,33,19,-3,3,6,22,59
1522653499350791,-54,-7,-5,5,5,6,4,-15
1522653499351795,113,1,-10,-7,-1,-1,-12,29
1522653499351795,-2,14,5,7,-3,-1,-7,-24
1522653499365832,-16,22,11,9,0,-1,-7,-32
1522653499365832,49,21,8,7,6,2,-5,-54
1522653499365832,19,-82,-22,-1,-1,-1,-3,-66
1522653499365832,-47,2,-12,-12,-10,-12,-15,-22
1522653499387890,-4,23,6,7,4,2,-12,-99
1522653499387890,95,4,3,5,-1,-6,-20,-18
1522653499388893,10,23,7,4,-5,-3,11,55
1522653499388893,37,-6,0,6,0,2,3,4
1522653499410951,-43,-3,0,3,2,0,-5,-72
1522653499410951,45,9,-3,-5,2,2,-4,-98
1522653499411954,-28,-18,1,1,4,2,11,62
1522653499411954,-17,8,3,1,-2,-1,-6,72
1522653499425992,14,15,7,5,2,1,4,35
1522653499425992,-33,-8,-5,0,-4,0,2,31
1522653499425992,54,29,7,0,-3,-2,-3,-3
1522653499425992,-78,-17,-1,-2,-2,1,-11,-111
1522653499448050,-86,6,2,-2,2,-1,16,88
1522653499448050,-13,-33,-14,-8,-9,-12,1,-31
1522653499449053,-97,-8,-9,-6,-9,-8,0,-7
1522653499449053,50,10,6,8,-3,-6,-7,11
1522653499471111,23,3,8,14,2,3,-3,-47
1522653499471111,46,19,5,6,0,-5,-17,-50
1522653499472115,0,27,-1,-4,-8,-10,-1,79
1522653499472115,-36,-3,-11,-9,-3,-2,20,40
1522653499485149,-78,16,18,8,5,5,-21,-58
1522653499485149,69,-3,-4,4,-3,0,-12,-34
1522653499486152,4,4,-2,8,0,6,-23,-103
1522653499486152,34,-7,-11,-2,-7,2,3,17
1522653499508210,-51,-12,-19,-8,-10,-5,-15,-100
1522653499508210,-29,-15,3,3,5,8,19,27
1522653499509213,-52,-8,-3,-11,-2,-2,-36,-99
1522653499509213,35,1,6,-6,2,6,39,114
1522653499530269,127,10,9,-2,2,1,-29,-101
1522653499530269,-70,-14,-9,-2,-2,7,25,49
1522653499531272,19,-3,3,10,4,2,3,-12
1522653499531272,12,28,15,10,6,-1,-43,-118
1522653499545309,100,18,1,0,0,-1,15,21
1522653499545309,14,-47,-19,-2,-1,-2,18,98
1522653499546312,127,21,3,5,-1,-1,13,64
1522653499546312,-53,-4,4,3,-2,-9,-41,-36
1522653499568370,17,13,6,6,1,8,38,69
1522653499568370,9,7,5,2,3,3,-52,-128
1522653499568370,-86,-5,4,3,6,17,116,127
1522653499568370,62,-4,-3,12,-1,2,39,27
1522653499590429,-49,-42,-20,3,-9,-10,-30,-54
1522653499590429,-38,63,29,11,-2,-4,-15,-36
1522653499591432,23,-25,-15,-7,-14,-15,-40,-66
1522653499591432,46,-18,-9,-9,-9,-9,-29,-25
1522653499605469,-123,-11,-3,-1,-2,3,25,2
1522653499605469,15,-2,-7,-15,-2,-4,-6,-41
1522653499606472,-15,18,1,-11,6,6,36,-61
1522653499606472,61,11,6,-4,11,5,-11,-8
1522653499627527,19,-28,-12,-18,-1,-10,-22,95
1522653499627527,82,-3,-6,-7,-3,-14,-47,82
1522653499628530,38,28,15,-5,6,3,-15,-20
1522653499628530,-11,-15,-3,-6,3,5,-1,-24
1522653499650589,71,13,6,-1,5,13,38,45
1522653499650589,-58,-11,-4,-6,-2,7,44,56
1522653499651592,68,12,2,-3,0,12,48,75
1522653499651592,-73,-1,10,1,1,-10,-58,-85
1522653499665629,73,22,-1,-2,-3,-11,-51,10
1522653499665629,-42,3,2,1,0,-1,49,29
1522653499666632,53,-14,-11,0,-1,-4,-25,-23
1522653499666632,-99,-24,-7,-10,0,-4,-31,46
1522653499687688,71,30,7,-7,3,5,28,5
1522653499687688,67,-31,-18,-19,-11,-3,13,43
1522653499688690,34,18,10,-2,-3,-12,-99,-73
1522653499688690,-35,26,17,-5,10,11,31,-78
1522653499710749,-58,-50,-25,-28,-14,-9,4,119
1522653499710749,-116,5,8,-8,4,7,8,-4
1522653499711752,-93,-16,-3,-21,-11,-12,-40,-76
1522653499711752,8,-13,-7,-11,-6,0,12,-56
1522653499725789,-114,-26,-7,-2,-3,-10,-17,-128
1522653499725789,67,45,18,17,5,2,-1,27
1522653499725789,-67,-38,-17,0,-8,-3,23,66
1522653499725789,127,23,2,11,0,1,25,110
1522653499747847,44,-9,-9,7,-4,-3,-19,-128
1522653499747847,-57,6,-8,6,-7,-5,8,-53
1522653499748850,112,-1,2,10,1,-5,-4,5
1522653499748850,94,-23,-9,0,-4,-2,19,112
1522653499770909,-58,-19,-10,10,-1,-4,-23,-33
1522653499770909,71,12,10,16,2,-4,-29,-54
1522653499770909,123,-24,-15,0,-6,-2,2,79
1522653499770909,-78,-8,0,11,-4,1,8,-105
1522653499785949,80,9,7,19,2,-2,-9,36
1522653499785949,-43,12,11,18,2,10,40,91
1522653499785949,-128,-4,-5,10,-13,-15,-27,-112
1522653499785949,-31,-1,0,8,-11,2,-15,-57
1522653499808007,-16,-5,-11,4,-8,-8,15,90
1522653499808007,-19,9,-1,2,-10,-9,-24,-68
1522653499809010,67,3,-1,-12,-6,-3,31,112
1522653499809010,-13,-38,-24,-15,-7,-2,9,91
1522653499830066,-117,-57,-8,-8,2,3,-23,-113
1522653499830066,46,-1,-7,-16,3,8,27,56
1522653499831069,19,23,-3,-4,-1,-8,-10,-115
1522653499831069,110,42,20,1,8,3,7,14
1522653499845106,37,75,39,10,16,14,0,-50
1522653499845106,-43,-38,-22,-17,-2,0,31,112
1522653499853127,-29,-13,5,1,8,5,-6,-114
1522653499853127,17,15,-7,-18,-5,-3,6,8
1522653499868168,15,34,6,-4,-1,0,7,26
1522653499868168,56,19,18,9,5,1,-57,-128
1522653499869170,-30,-28,-21,-12,1,7,60,127
1522653499869170,27,24,9,5,11,4,3,-88
1522653499890226,-21,-26,-17,-16,-2,-4,4,13
1522653499890226,-91,-41,-17,-10,-6,-11,-33,-101
1522653499891229,-95,8,10,5,8,1,-15,-60
1522653499891229,61,16,1,-12,-4,-6,3,35
1522653499905266,38,9,6,-1,7,14,47,56
1522653499905266,-12,-55,-45,-22,-12,-14,-29,13
1522653499906269,99,41,37,19,20,16,24,27
1522653499906269,-112,-28,-11,-7,1,-5,-17,-76
1522653499928327,62,53,22,11,10,15,8,57
1522653499928327,19,-40,-14,-6,3,-7,15,59
1522653499928327,34,-14,-2,4,10,2,-10,-44
1522653499928327,32,28,10,-1,4,-5,-13,-38
1522653499950386,68,1,-2,5,-3,3,1,3
1522653499950386,-36,-12,-7,0,-4,7,4,55
1522653499951389,11,5,0,-5,-9,4,12,90
1522653499951389,-31,2,-4,-3,2,2,11,122
1522653499965426,-99,-18,-8,-3,6,4,16,-53
1522653499965426,-15,-1,-2,2,2,1,0,-1
1522653499966429,-48,18,1,4,0,-2,-12,-59
1522653499966429,76,2,7,1,1,7,18,32
1522653499987485,-77,-29,0,6,3,-2,-18,-75
1522653499987485,6,-22,-7,0,1,7,32,67
1522653499988488,62,24,3,0,-3,-6,-30,-128
1522653499988488,25,2,-4,4,1,-1,-17,-66
1522653500010546,106,13,15,5,2,-2,-2,-31
1522653500010546,110,8,7,10,4,5,2,-18
1522653500011549,24,-10,1,4,-2,1,-16,-7
1522653500011549,-110,11,-1,-3,-5,-6,-13,-94
1522653500024583,108,35,12,5,-1,-5,-14,84
1522653500024583,-11,15,12,9,4,0,-37,-127
1522653500032605,14,57,23,7,6,10,57,124
1522653500032605,69,-50,-25,-6,-4,-3,0,-21
1522653500047645,-76,1,-9,-2,-6,-9,-2,-65
1522653500047645,78,21,20,22,11,-1,-21,-47
1522653500048648,-98,-18,-14,-3,0,-4,-16,-58
1522653500048648,24,50,32,14,7,1,-34,-91
1522653500070706,-5,-15,-25,-12,-11,-7,16,70
1522653500070706,44,-1,2,2,-3,10,50,78
1522653500071709,-120,0,8,6,1,1,-10,-118
1522653500071709,-90,-27,-23,-11,-13,-11,7,27
1522653500084744,1,-18,-5,0,-2,-4,-28,-83
1522653500084744,-52,-12,-2,2,2,-3,-80,-122
1522653500092765,21,25,15,4,1,3,66,127
1522653500092765,71,-39,-19,-5,-9,-7,-4,92
1522653500107805,11,-17,-15,1,-9,-4,21,-42
1522653500107805,4,31,16,6,-5,-8,0,13
1522653500108808,54,-26,-16,-4,-9,-8,-47,-35
1522653500108808,31,18,15,8,0,3,44,73
1522653500130866,-46,-9,-11,1,-9,-6,1,-33
1522653500130866,-74,8,6,8,0,5,29,-25
1522653500130866,-55,-13,-19,-10,-16,-13,7,-31
1522653500130866,53,25,21,20,9,6,-6,-54
1522653500144903,-79,4,-9,-1,-2,4,30,-28
1522653500144903,-40,17,0,-5,-8,-6,46,47
1522653500152925,41,12,0,-15,-8,-12,-30,85
1522653500152925,9,-44,-18,-22,-3,3,8,53
1522653500167965,81,16,14,-5,2,7,43,80
1522653500167965,-17,10,-3,-8,-3,-13,-55,-90
1522653500168968,105,-4,3,-1,10,6,-16,-8
1522653500168968,-67,-14,-6,-9,0,1,-6,-52
1522653500190023,-25,3,8,-1,4,1,-8,50
1522653500190023,51,15,2,-13,-3,-1,-7,-7
1522653500191026,-44,-13,-2,-7,3,0,1,22
1522653500191026,-4,-2,0,-2,3,2,-19,-120
1522653500205063,29,-6,-2,-5,0,-2,-10,-50
1522653500205063,-69,-1,-7,-6,-4,-9,-58,-33
1522653500213085,-114,-23,-6,-3,-1,2,-11,-62
1522653500213085,-18,-4,-2,-3,-4,-4,-7,7
1522653500228125,-42,-3,4,7,0,-3,-76,-69
1522653500228125,23,1,-1,-11,1,22,109,125
1522653500229128,-42,-8,-3,4,-6,-4,-16,-67
1522653500229128,-66,-11,-5,0,-6,-8,-16,-9
1522653500250183,-74,-9,0,3,1,-4,-26,-36
1522653500250183,49,-7,-1,-3,2,-1,-16,-71
1522653500251187,-40,-20,-8,-8,1,0,30,44
1522653500251187,66,16,2,6,2,-3,-1,-22
1522653500265223,51,28,9,6,1,-7,-57,-93
1522653500265223,20,-10,-3,1,-3,3,51,73
1522653500273245,5,-3,-6,-1,-3,5,26,38
1522653500273245,-30,13,6,8,-1,0,-26,-43
1522653500288285,-25,-12,-3,2,-3,1,-3,-79
1522653500288285,63,28,4,0,-2,-3,-20,-10
1522653500288285,127,-15,-3,-4,-2,2,1,67
1522653500288285,-116,-4,4,-3,6,16,86,62
1522653500310343,-75,1,-2,-4,-3,-6,-6,37
1522653500310343,-62,-28,-17,-3,-11,-11,-1,-90
1522653500311346,-4,6,6,8,0,-4,-44,-125
1522653500311346,-45,6,6,-1,2,1,-5,-30
1522653500333405,12,12,7,5,1,10,66,127
1522653500333405,-128,-28,-14,0,-8,-7,-24,-68
1522653500334407,-45,10,3,1,-2,-2,-26,-98
1522653500334407,127,35,2,3,-3,-3,-3,84
1522653500347442,-21,-42,-6,12,-1,5,46,100
1522653500347442,-92,38,21,18,2,-1,-8,18
1522653500348445,71,-25,-26,-9,-15,-14,2,-66
1522653500348445,-71,11,12,11,-1,1,4,-24
1522653500370503,57,24,15,11,-2,-2,3,-12
1522653500370503,-5,-21,-14,-9,-14,-13,-13,127
1522653500371506,-63,18,20,10,6,8,3,-16
1522653500371506,91,-70,-50,-31,-28,-26,-12,-7
1522653500393565,116,37,10,-2,-8,-4,4,9
1522653500393565,93,-18,9,4,8,12,15,-105
1522653500394568,8,31,3,-11,2,3,30,66
1522653500394568,-21,-32,-23,-24,-2,-7,-13,23
1522653500407602,75,-39,-10,-13,13,11,4,64
1522653500407602,21,-15,-21,-14,3,-4,11,117
1522653500408605,-53,-36,-1,5,15,7,14,-63
1522653500408605,-12,71,34,9,19,11,18,-13
1522653500430663,127,-28,-30,-22,-6,-10,-19,-94
1522653500430663,-92,2,4,3,11,6,-7,-38
1522653500431666,116,2,1,-2,3,-2,-20,-24
1522653500431666,-93,-12,6,-2,3,-3,-34,-87
1522653500453725,40,81,44,18,16,8,-15,31
1522653500453725,-49,-72,-8,1,7,9,6,-101
1522653500454728,97,30,-3,-17,-6,-5,4,100
1522653500454728,-30,-18,-4,-4,2,0,-4,-93
1522653500467762,-72,20,0,-6,1,1,-10,-87
1522653500467762,127,0,-2,-5,-4,-8,-28,-44
1522653500468765,-31,1,10,3,5,4,-5,-51
1522653500468765,65,-4,-4,-4,0,12,35,127
1522653500490823,18,-32,-38,-16,-18,-9,3,-4
1522653500490823,85,35,16,7,7,4,-4,-53
1522653500490823,-13,-4,-1,-1,0,1,1,-17
1522653500490823,-39,0,0,3,4,0,-4,88
1522653500513884,28,-5,2,7,5,2,11,39
1522653500513884,-51,0,-7,1,1,-1,-2,21
1522653500514888,-17,5,-1,5,-2,1,-2,54
1522653500514888,-26,-33,-16,-5,3,4,13,88
1522653500527922,-60,4,4,7,-3,-4,-10,-25
1522653500527922,57,1,-2,3,-4,-5,-6,9
1522653500528925,-128,-8,-3,-2,-1,-2,0,4
1522653500528925,34,11,2,5,-2,0,-10,-12
1522653500550983,-65,-21,-4,-4,2,3,6,-14
1522653500550983,29,47,15,3,1,4,2,-1
1522653500550983,-16,-40,-19,-13,-9,-11,-11,49
1522653500550983,-12,5,9,10,4,-1,2,-43
1522653500574045,33,-20,-6,3,1,-1,0,-4
1522653500574045,-37,16,8,3,-1,4,1,-7
1522653500574045,127,6,-3,-8,-4,-5,12,49
1522653500574045,-93,-1,-3,-4,-4,3,4,-77
1522653500588082,-2,-29,-11,-2,-1,-19,-11,117
1522653500588082,-113,-19,-16,-2,-3,-12,-16,-50
1522653500589085,73,2,1,-1,-2,-4,-17,-6
1522653500589085,-29,10,5,3,-3,2,-19,-99
1522653500610140,-16,6,1,1,-4,8,26,76
1522653500610140,92,17,5,0,-2,7,-14,-8
1522653500611144,-94,3,7,7,9,9,2,2
1522653500611144,100,10,0,-1,-1,-7,-22,-55
1522653500633202,-51,-8,-3,2,-1,6,0,-41
1522653500633202,-4,17,6,0,0,-1,-2,2
1522653500634205,-22,1,4,1,2,6,11,38
1522653500634205,2,-14,-6,-7,0,-5,-7,15
1522653500648242,-42,30,15,3,0,1,-12,-93
1522653500648242,57,5,2,4,-2,-2,7,13
1522653500649245,-101,11,-7,6,-11,-14,-32,-107
1522653500649245,75,-11,0,15,-4,1,20,58
1522653500670301,41,-6,-10,8,-10,-10,-8,-28
1522653500670301,-5,-4,-6,3,-11,-12,-9,-59
1522653500671304,81,16,7,11,-2,-6,-29,-69
1522653500671304,-15,20,4,16,-7,-8,8,38
1522653500693362,59,-6,-7,3,-12,-12,-19,-64
1522653500693362,4,5,5,1,-7,-10,-9,-37
1522653500693362,-69,-5,0,-1,-3,-2,4,23
1522653500693362,-40,8,4,-10,-3,-9,-28,34
1522653500708402,-66,-25,-6,-20,-4,-21,-27,51
1522653500708402,-19,5,7,-4,10,2,6,15
1522653500708402,-27,-15,-8,-10,1,-7,9,36
1522653500708402,85,22,11,-1,14,16,37,27
1522653500730460,-109,-17,-4,-4,7,14,-40,-125
1522653500730460,-84,-10,-11,-15,-1,2,49,65
1522653500731463,-10,1,2,-6,0,20,14,20
1522653500731463,81,0,2,-3,-6,-3,-20,-37
1522653500752519,71,13,1,-6,-4,12,53,31
1522653500752519,-56,2,12,5,6,-3,-91,-63
1522653500753522,16,-21,-19,-20,-6,8,115,89
1522653500753522,-94,-6,1,5,3,4,-3,5
1522653500767560,34,-2,0,0,-2,-8,6,17
1522653500767560,35,0,-2,-6,-4,5,40,88
1522653500768562,-56,0,-1,-6,-2,-16,-77,-62
1522653500768562,33,4,5,-4,3,-3,1,-9
1522653500790621,-2,0,-9,-7,-8,-5,25,-49
1522653500790621,113,41,5,-7,-7,-5,24,101
1522653500791624,-13,-8,7,7,-2,-1,-64,-79
1522653500791624,-22,1,-6,0,-8,-22,1,3
1522653500812679,10,10,6,12,0,-9,-76,-54
1522653500812679,2,-10,-6,19,2,8,80,90
1522653500813682,25,-19,-20,19,-10,-21,-32,25
1522653500813682,-28,-16,-8,28,-11,2,11,-55
1522653500827719,-69,7,6,33,-1,0,17,-1
1522653500827719,10,-20,-10,-1,-11,-8,-9,48
1522653500835741,-51,9,9,0,-2,9,43,-16
1522653500835741,-75,-44,-21,-15,-8,2,5,31
1522653500850781,78,49,9,-10,-5,-5,-18,0
1522653500850781,-10,13,18,14,9,5,17,37
1522653500851784,60,-4,-10,-8,-1,-5,-15,-76
1522653500851784,127,43,17,-1,5,2,-4,50
1522653500872839,-28,-53,-15,-14,3,5,8,43
1522653500872839,11,5,2,-3,1,5,2,-23
1522653500873842,-29,27,1,-16,-12,-3,44,84
1522653500873842,15,10,0,8,-7,-5,-18,-105
1522653500887880,23,-22,-11,4,-4,0,4,-75
1522653500887880,25,3,-2,-2,-3,6,-24,-126
1522653500888882,106,9,2,-7,3,-10,8,81
1522653500888882,-2,-27,-8,-13,3,-2,-13,114
1522653500910940,54,-10,-1,-14,2,7,26,31
1522653500910940,-73,-28,-18,-21,0,0,9,35
1522653500910940,-57,10,11,-6,8,5,-18,45
1522653500910940,-16,-14,1,5,11,0,3,-59
1522653500932999,-3,-26,-12,-10,2,-4,51,99
1522653500932999,62,-1,-5,-7,6,2,-11,-72
1522653500934002,-5,14,14,-3,13,12,-22,-99
1522653500934002,29,-11,-7,-14,4,12,54,69
1522653500947036,-128,5,15,-3,5,2,-19,74
1522653500947036,30,2,-14,-10,-5,-13,-38,-128
1522653500955058,21,67,30,7,14,14,40,127
1522653500955058,-32,15,-8,-10,-12,-12,-32,-81
1522653500970098,127,2,3,5,2,9,-26,-128
1522653500970098,68,30,14,-6,0,5,17,102
1522653500971101,-17,-38,-15,-5,-4,-5,-22,-12
1522653500971101,-28,-1,1,-12,-1,4,-15,-18
1522653500993159,86,41,17,2,13,15,-7,-115
1522653500993159,69,-12,-10,-8,-1,-8,0,58
1522653500994164,54,-9,7,-3,1,5,9,-128
1522653500994164,-39,13,8,4,7,10,2,-39
1522653501007197,-128,-45,-29,-13,-4,-5,-13,-98
1522653501007197,-51,1,4,6,9,7,3,-47
1522653501015218,37,24,15,6,10,12,31,48
1522653501015218,116,11,3,3,6,-1,28,108
1522653501030258,67,9,-4,-4,1,-1,4,76
1522653501030258,-70,-40,-10,-6,-4,-3,-14,-85
1522653501031261,-5,-25,-19,-6,0,-5,-18,-50
1522653501031261,2,37,5,6,8,10,2,-74
1522653501053319,15,13,24,18,9,9,-8,-6
1522653501053319,-61,-24,-7,2,2,-12,16,111
1522653501053319,14,-8,-7,3,-5,2,-8,-51
1522653501053319,57,-29,-21,-8,-10,-14,-41,-87
1522653501067359,59,14,12,15,3,2,22,47
1522653501067359,0,0,-7,0,-8,-7,-9,-28
1522653501075378,-46,-23,7,9,0,-8,-10,-75
1522653501075378,-72,0,5,1,3,11,-9,-8
1522653501090418,-76,-4,-3,-2,-5,-17,12,99
1522653501090418,-62,-24,-5,-4,-1,3,-10,-52
1522653501091421,2,-15,-17,-10,-6,-12,-8,87
1522653501091421,-47,-31,-4,1,-1,0,0,-93
1522653501113479,-6,9,2,13,-4,13,8,-27
1522653501113479,46,8,5,15,1,-5,-2,7
1522653501113479,-40,-1,-12,0,0,9,4,-52
1522653501113479,57,-28,4,3,-1,-4,-6,64
1522653501127516,36,59,20,6,-7,2,15,-7
1522653501127516,13,2,-3,-9,-8,13,-8,-47
1522653501135538,31,-12,-10,-13,-8,-14,-1,47
1522653501135538,6,4,4,-2,8,-1,-3,-15
1522653501150578,-7,-27,-24,-21,-5,-10,32,96
1522653501150578,21,-35,-23,-17,-12,1,17,67
1522653501151581,27,21,10,13,0,-3,-10,-49
1522653501151581,-44,-29,-21,-11,-16,-9,-10,-57
1522653501172637,54,5,7,1,-5,-7,-7,-20
1522653501172637,-92,12,4,-1,-7,-5,-3,32
1522653501173639,81,-9,-1,-1,-1,1,-27,-46
1522653501173639,-120,-5,-5,-8,-3,-1,44,95
1522653501187677,72,42,13,5,2,4,-1,-9
1522653501187677,-107,-24,-6,6,5,-2,-16,-45
1522653501195698,70,17,3,5,-1,10,4,24
1522653501195698,27,14,5,7,-8,-11,-8,14
1522653501210738,-8,-4,-5,1,-6,-8,-19,37
1522653501210738,-23,-28,0,7,1,1,23,20
1522653501211741,-42,14,2,7,-10,-3,13,97
1522653501211741,30,-25,-19,-4,-18,-10,-28,-80
1522653501232797,-35,-39,-19,-3,-9,-7,3,7
1522653501232797,34,45,21,7,1,-10,-3,-44
1522653501233799,-68,-13,-7,-8,2,11,20,-8
1522653501233799,53,69,21,6,1,7,64,121
1522653501246834,-62,-35,-14,-6,-4,17,22,-29
1522653501246834,37,14,1,2,-3,-26,-39,-86
1522653501255858,85,59,20,-1,2,-15,-30,-36
1522653501255858,-94,-32,6,3,9,8,-3,-89
1522653501270898,41,-11,-17,-13,-3,16,56,71
1522653501270898,-47,32,16,2,5,-7,-71,61
1522653501270898,-88,-20,-3,-10,1,11,60,47
1522653501270898,9,-18,-11,-11,-4,-12,-9,-68
1522653501292957,76,54,22,5,9,-5,-55,-73
1522653501292957,-90,-57,-27,-23,-7,-5,8,-25
1522653501293959,30,4,0,-4,9,4,-3,5
1522653501293959,-51,-10,-1,1,2,0,-79,-54
1522653501316018,-83,-39,-7,4,2,-30,-2,-77
1522653501316018,126,52,14,-3,-4,5,60,107
1522653501317021,-42,-41,-16,-5,-8,-6,-31,-87
1522653501317021,-11,-4,-1,5,4,3,-6,3
1522653501330055,-74,-24,-15,-13,-3,-2,-1,43
1522653501330055,-43,15,12,14,6,6,-17,-85
1522653501331058,42,6,1,4,-1,-7,21,67
1522653501331058,59,-7,-8,3,-9,-1,44,-26
1522653501353117,59,52,26,15,10,5,0,-41
1522653501353117,84,-37,-23,-14,-3,-6,-4,57
1522653501354120,-93,5,3,-6,-3,-2,13,-9
1522653501354120,124,21,2,8,-2,-19,-119,-104
1522653501376178,45,4,5,-6,1,14,75,83
1522653501376178,51,22,-3,-3,-10,-10,-41,-108
1522653501377181,-22,-40,-7,-2,0,3,61,42
1522653501377181,-1,30,7,1,0,0,-14,-7
1522653501390215,32,-15,-10,0,-11,-5,24,39
1522653501390215,-87,-43,-7,-1,-6,-1,-9,-54
1522653501391218,76,32,11,12,9,14,36,26
1522653501391218,-128,-46,-15,4,-1,19,54,-35
1522653501413277,42,-19,1,12,-3,-24,-17,84
1522653501413277,121,37,11,-1,2,-2,-17,3
1522653501414280,93,-4,-10,-7,-6,-22,-39,-43
1522653501414280,-43,-9,-4,-7,6,9,14,10
1522653501436338,-62,55,29,26,11,7,-75,-128
1522653501436338,37,5,1,15,-2,2,-19,-57
1522653501437341,24,-1,-9,2,-14,-10,-47,-128
1522653501437341,114,19,9,20,-3,-4,6,18
1522653501450375,-53,-26,-8,3,-13,-8,-25,10
1522653501450375,23,19,9,7,7,8,36,34
1522653501451378,-112,36,4,-14,-8,-3,-5,75
1522653501451378,28,-42,-18,-11,-4,-4,28,1
1522653501473436,2,-6,-6,-15,-2,-7,-41,-98
1522653501473436,38,10,8,-1,11,20,4,-75
1522653501473436,-76,-18,-13,-13,1,-27,-67,-118
1522653501473436,-4,12,20,-6,13,4,15,118
1522653501496498,-63,-22,-20,-12,-4,4,-14,-70
1522653501496498,16,-25,-18,-19,4,-1,41,115
1522653501496498,102,11,11,0,15,5,10,-66
1522653501496498,-64,34,15,9,14,2,-9,-17
1522653501510535,-41,-13,-13,-15,-1,-6,-11,-76
1522653501510535,-7,-12,-4,-1,1,-28,-26,-74
1522653501511538,-64,-27,-4,1,6,49,64,85
1522653501511538,16,16,13,4,6,1,37,-28
1522653501532594,-96,-21,-24,-10,-2,-2,-20,-73
1522653501532594,-50,71,42,6,8,6,1,-121
1522653501533596,99,17,6,-7,5,-6,-18,3
1522653501533596,-11,-9,-6,-6,2,8,-13,-48
1522653501556658,39,-24,-9,-1,-1,9,39,127
1522653501556658,60,-25,-8,4,0,15,3,-64
1522653501556658,-49,-36,-6,4,-6,-18,-29,-117
1522653501556658,91,46,24,14,11,17,34,54
1522653501570695,100,11,-3,-4,-1,-7,-11,41
1522653501570695,62,18,15,15,10,13,19,-6
1522653501571698,-18,-58,-36,-21,-9,-8,23,105
1522653501571698,82,-5,-18,-7,-10,-19,-8,-44
1522653501592754,-2,-5,10,2,2,-6,-10,-55
1522653501592754,27,36,16,12,-1,8,14,-16
1522653501593756,91,-9,-7,-1,-6,6,-10,2
1522653501593756,87,41,16,11,2,2,-1,43
1522653501615815,29,-36,-22,-10,-6,7,33,120
1522653501615815,-108,-45,-21,-6,-6,6,-14,-81
1522653501616818,65,27,4,4,3,-15,0,11
1522653501616818,-128,-26,-7,-3,-11,-16,-22,-61
1522653501630855,13,22,17,14,4,21,0,-70
1522653501630855,-52,-64,-20,-13,-12,-5,-10,-46
1522653501630855,2,10,7,8,4,7,-2,48
1522653501630855,50,-43,-33,-13,-13,-14,-17,-11
1522653501652914,26,5,4,-1,-2,-3,11,39
1522653501652914,-17,37,6,-9,-4,-10,-12,81
1522653501653917,-1,11,13,5,4,6,-5,-99
1522653501653917,89,1,-8,-6,-3,0,-6,2
1522653501675975,56,6,4,4,2,-4,-16,-87
1522653501675975,22,20,4,3,4,2,3,56
1522653501676978,41,-40,-33,-19,-15,-5,11,85
1522653501676978,-12,24,12,9,2,21,23,-53
1522653501690012,-47,-47,-24,-12,-6,-22,-26,31
1522653501690012,-48,40,15,11,3,-1,-7,-64
1522653501691015,-91,22,23,18,9,6,-11,-26
1522653501691015,-73,6,3,3,0,6,8,36
1522653501713074,41,38,10,3,-2,-4,-24,-128
1522653501713074,-84,-85,-32,-22,-18,-19,3,-38
1522653501714079,72,30,11,-1,-3,1,-6,-44
1522653501714079,-82,-9,3,7,8,5,-12,-62
1522653501736135,33,23,12,2,6,8,23,114
1522653501736135,-40,-37,-19,-6,-8,-10,-23,-49
1522653501737138,-10,25,15,9,1,5,-6,-37
1522653501737138,-112,-22,-6,-1,-4,-4,11,46
1522653501750172,55,7,0,10,1,6,13,-118
1522653501750172,79,57,13,7,3,-1,-20,25
1522653501751175,-54,11,16,5,3,9,20,-31
1522653501751175,-2,-7,-6,-3,0,1,-15,43
1522653501773234,-99,-17,-14,-16,-13,-9,-2,-91
1522653501773234,64,50,34,19,7,13,20,52
1522653501774237,-110,-14,-17,1,-11,-20,-54,-128
1522653501774237,98,2,0,-3,-16,-9,-44,-49
1522653501796295,-111,-10,8,12,5,34,-2,-29
1522653501796295,88,7,-8,-2,-17,-52,37,127
1522653501797298,-62,9,1,5,-9,-5,-5,-6
1522653501797298,-53,-35,-5,2,-1,4,48,54
1522653501810332,-18,11,-8,-11,-8,-6,-55,-19
1522653501810332,-49,-27,-6,-1,-4,7,-32,-128
1522653501811335,-20,1,7,9,4,7,6,-46
1522653501811335,60,17,7,-5,-3,-12,-12,-13
1522653501833394,103,-16,1,1,1,0,29,26
1522653501833394,-12,5,-6,-14,1,4,-5,36
1522653501833394,47,-9,-12,-24,-6,-10,14,101
1522653501833394,19,7,5,-5,11,19,42,58
1522653501855452,-43,21,14,3,12,7,13,41
1522653501855452,76,-46,-23,-17,-2,11,32,18
1522653501856455,18,-5,2,-2,-1,3,15,-20
1522653501856455,46,13,-2,-4,-9,-13,-37,-45
1522653501870492,-33,9,3,-6,-1,-3,7,42
1522653501870492,-47,9,2,0,7,9,18,10
1522653501871495,-2,11,1,2,5,1,-3,3
1522653501871495,-67,-60,-24,-5,-6,-10,-13,-81
1522653501892551,2,41,16,9,5,5,65,66
1522653501892551,-28,-23,-15,-11,-7,5,6,55
1522653501893554,-18,-9,-7,2,-1,-6,-71,-71
1522653501893554,-40,12,2,-8,-7,-3,9,-39
1522653501915613,-9,-2,-2,-1,-6,-8,-33,20
1522653501915613,48,4,0,-1,3,22,47,102
1522653501916615,-48,3,7,11,3,-30,-1,-13
1522653501916615,-64,-10,0,2,3,-6,-12,-47
1522653501929650,60,6,-1,-8,1,0,38,33
1522653501929650,-38,-15,-10,-10,-10,-17,-28,-36
1522653501937671,93,13,0,-5,3,5,-26,-52
1522653501937671,11,17,11,3,6,-4,-5,67
1522653501952711,7,-21,-8,-8,0,-13,1,8
1522653501952711,-94,-1,8,3,8,-1,-11,-65
1522653501953714,14,24,6,-1,-3,0,8,-13
1522653501953714,-25,-17,-15,-4,-5,-17,-60,-88
1522653501975772,37,43,19,11,2,-3,3,-48
1522653501975772,124,5,4,12,4,-7,-35,42
1522653501976775,-9,-22,-10,1,-6,5,44,85
1522653501976775,123,50,10,8,2,3,11,26
1522653501989810,-36,-66,-23,-9,-13,-8,12,85
1522653501989810,-55,3,-7,-5,-10,-22,-88,-76
1522653501997831,12,-26,-13,-11,1,6,-23,-63
1522653501997831,-30,20,8,4,2,-17,28,76
1522653502012871,38,-37,-8,0,-4,-4,-6,-65
1522653502012871,-58,2,1,-3,-1,5,26,-25
1522653502013874,98,-17,-14,-7,-11,-2,-15,-56
1522653502013874,54,-8,8,12,10,18,26,49
1522653502035933,-128,-38,-14,-2,-2,-4,-34,-25
1522653502035933,42,-10,-4,8,-2,9,33,68
1522653502035933,64,38,19,15,2,3,4,-7
1522653502035933,53,-34,-23,-1,-10,4,12,62
1522653502049970,125,24,9,20,2,-4,-20,-108
1522653502049970,15,-8,-21,-10,-16,-4,-4,63
1522653502057991,-91,-22,5,4,1,-6,2,-17
1522653502057991,87,1,-8,-8,-5,2,34,-31
1522653502073031,-112,-21,0,-8,-4,-8,-16,-19
1522653502073031,-27,17,3,-13,5,-3,-6,-93
1522653502074034,41,14,-6,-13,12,6,42,127
1522653502074034,-24,9,3,-12,5,-4,-35,8
1522653502095090,19,1,-1,-14,-2,7,-12,13
1522653502095090,112,36,19,-4,9,-13,1,-122
1522653502096093,17,-24,-6,-4,7,18,19,78
1522653502096093,-15,13,19,16,16,24,2,-85
1522653502110130,-34,-22,-11,-2,1,0,-2,127
1522653502110130,-53,29,24,11,8,12,-5,-71
1522653502118151,121,-9,-3,-5,2,0,14,87
1522653502118151,-30,0,-6,2,-10,-8,-24,-83
1522653502133191,127,52,18,9,6,14,-4,-102
1522653502133191,-88,-17,-3,-1,6,15,21,23
1522653502134194,-30,14,9,-2,5,-1,-9,-12
1522653502134194,-42,-43,-12,-16,-3,1,-1,55
1522653502155250,-126,-14,-9,0,8,18,22,95
1522653502155250,127,15,-4,-12,-1,-20,-8,89
1522653502156253,-102,-12,-1,-3,6,-1,-8,-124
1522653502156253,84,23,9,7,7,-7,2,58
1522653502170290,-4,-18,-6,-3,4,22,9,-23
1522653502170290,73,-21,-14,-6,5,0,-12,1
1522653502178311,-84,3,14,5,0,17,15,104
1522653502178311,-84,-39,-19,0,1,-26,-24,-122
1522653502193351,71,55,3,1,-2,-20,-47,-112
1522653502193351,-15,-8,22,22,10,14,25,32
1522653502193351,13,7,-10,1,-4,-4,-7,-69
1522653502193351,-70,10,3,7,-1,13,21,13
1522653502215410,-13,31,-2,2,-6,-9,3,-3
1522653502215410,-90,-28,-4,-7,-7,1,-11,-53
1522653502216413,-67,-14,-7,-3,-12,-13,-26,-53
1522653502216413,83,24,13,4,-5,7,7,82
1522653502229447,-66,-76,-27,-9,-10,-13,-10,-63
1522653502229447,36,25,5,-2,-6,1,21,127
1522653502238471,97,-28,-15,-1,2,5,-1,-5
1522653502238471,34,30,8,5,3,-7,-22,-109
1522653502252509,-68,5,18,7,3,-3,-8,-30
1522653502252509,-12,-5,-11,-9,0,-6,18,79
1522653502253511,-84,16,11,-3,3,17,5,18
1522653502253511,-4,-23,-10,-9,0,5,8,-13
1522653502275570,-6,5,-3,-6,-5,-5,34,127
1522653502275570,-32,-2,0,0,-5,-18,-9,-128
1522653502276573,52,-27,-21,-7,-5,20,39,26
1522653502276573,-61,13,15,10,-1,30,14,-63
1522653502298631,42,-32,-16,-10,-13,-29,4,27
1522653502298631,30,-18,-14,0,0,-4,1,-59
1522653502299634,-96,13,14,-2,-3,-21,-16,-18
1522653502299634,46,3,-1,-9,-6,9,-8,-6
1522653502312668,13,3,0,1,1,7,3,0
1522653502312668,33,9,1,-1,-3,25,-12,-21
1522653502313671,52,9,-2,4,-5,-26,1,-23
1522653502313671,-69,10,4,8,-1,2,35,17
1522653502335730,55,14,5,8,4,-2,-11,-6
1522653502335730,20,-21,-9,1,-3,-6,-9,-14
1522653502336733,13,9,5,10,3,10,-13,-46
1522653502336733,65,11,-2,-2,-4,-12,-13,34
1522653502358791,126,1,-1,-6,-1,-4,-18,-88
1522653502358791,-17,-43,-13,-10,3,16,48,127
1522653502359794,74,8,1,-1,-5,-12,-27,-58
1522653502359794,82,-43,-26,-10,-12,-21,-54,-59
1522653502372828,-39,39,16,9,-1,4,31,62
1522653502372828,-42,19,18,15,6,5,0,-77
1522653502373831,53,-16,-8,3,-6,-3,8,33
1522653502373831,-42,-25,-9,-3,-5,-11,-11,-19
1522653502395890,-15,-16,0,1,0,6,-28,-87
1522653502395890,73,52,21,7,5,-1,-13,83
1522653502395890,-58,9,1,5,-5,7,-20,-8
1522653502395890,-128,-14,-10,-3,-9,-15,-11,-64
1522653502418951,44,38,22,11,2,-8,-18,-59
1522653502418951,-61,-22,-6,-1,-7,1,33,20
1522653502419954,38,-3,-4,2,-3,11,-17,-57
1522653502419954,-2,10,-1,-9,-7,-22,0,88
1522653502432988,-43,-1,-3,-12,1,-9,-53,-66
1522653502432988,21,-6,-16,-21,-4,1,21,44
1522653502433992,-64,-5,-2,-8,10,8,14,24
1522653502433992,125,-7,0,-5,8,13,13,-23
1522653502455047,-4,20,8,-1,13,12,57,83
1522653502455047,72,-3,2,-12,-1,-7,-22,2
1522653502456050,-101,-10,-4,-7,-1,-10,-11,41
1522653502456050,-41,17,9,2,4,10,28,58
1522653502479111,4,-5,-5,-7,-3,-4,27,-46
1522653502479111,37,-10,0,7,2,23,-7,-54
1522653502479111,-46,-3,-4,5,-1,-32,24,32
1522653502479111,-43,25,10,8,7,1,-44,-36
1522653502493148,17,-7,-9,-10,-5,-25,-58,72
1522653502493148,-89,7,0,1,0,1,8,-28
1522653502494151,114,15,4,-1,-5,8,-12,-98
1522653502494151,-44,-12,-7,-1,-5,10,103,115
1522653502515207,35,-37,-10,-4,-2,17,45,40
1522653502515207,54,1,-7,-7,-2,-9,-51,-16
1522653502516210,73,37,20,6,12,0,-1,73
1522653502516210,-1,-20,-9,-6,-2,-5,-2,67
1522653502538268,-19,27,12,6,0,13,29,2
1522653502538268,33,-16,-15,-12,-11,-11,40,23
1522653502539271,77,-5,0,4,0,4,-3,-21
1522653502539271,-56,-36,-14,-4,0,3,-40,-56
1522653502553308,108,-12,-14,-8,-9,-7,41,52
1522653502553308,-33,9,11,15,6,1,-26,-75
1522653502554312,-24,-7,-8,-2,-12,-10,-31,-70
1522653502554312,-42,28,12,4,1,-10,-15,-66
1522653502575367,-34,6,5,4,6,5,-4,10
1522653502575367,63,26,-4,-7,-6,-4,16,57
1522653502576370,11,-26,-12,-2,-2,7,26,-21
1522653502576370,5,-2,4,6,-1,9,-26,-56
1522653502598428,59,-2,7,4,-1,-18,-40,-128
1522653502598428,24,15,14,5,9,11,29,82
1522653502599431,-128,-38,-22,-10,-12,-18,-38,-64
1522653502599431,118,14,-3,5,-1,1,19,-21
1522653502613468,-27,6,3,7,-3,3,-6,10
1522653502613468,46,-53,-21,-2,-17,-11,6,-14
1522653502613468,50,-15,-11,3,-11,-7,-1,-3
1522653502613468,-31,25,3,6,-5,-10,-14,-88
1522653502635527,-26,-6,7,4,2,15,21,123
1522653502635527,-94,-24,-16,-8,-4,-27,-24,-25
1522653502636530,-25,6,-2,-3,-3,-1,9,50
1522653502636530,-7,27,9,1,-4,-9,1,3
1522653502658588,-46,-21,-6,-4,-2,2,-12,-84
1522653502658588,-23,25,1,-9,-5,-8,-28,12
1522653502659591,16,-9,-2,-3,3,2,11,13
1522653502659591,6,-17,-2,-4,1,-1,12,8
1522653502672626,-39,8,1,-9,1,1,-12,-87
1522653502672626,56,10,9,-8,13,9,7,11
1522653502673628,-71,-9,5,0,9,0,2,-7
1522653502673628,-59,2,-4,-5,5,2,-2,30
1522653502695687,-48,3,-2,3,5,5,-11,0
1522653502695687,92,-1,5,0,-4,1,-17,-73
1522653502696690,11,27,14,10,9,10,19,-14
1522653502696690,-7,-15,12,3,4,10,6,45
1522653502718748,47,12,-6,-2,2,-3,1,35
1522653502718748,-23,26,8,5,3,5,-9,-15
1522653502719751,-65,-1,-9,-2,3,3,16,-19
1522653502719751,127,-26,-10,-2,-2,-6,-27,-45
1522653502732786,66,9,-2,-1,4,5,5,-25
1522653502732786,-128,-22,-10,-24,-5,-7,7,-6
1522653502733788,106,6,-5,-8,5,3,-16,-76
1522653502733788,93,11,-2,-5,4,4,9,-29
1522653502755847,-85,-7,3,-2,3,-4,-8,109
1522653502755847,32,-7,4,2,12,7,-10,-128
1522653502755847,-4,-7,5,-3,7,6,15,126
1522653502755847,-106,4,-6,2,1,4,2,-61
1522653502778908,21,-39,-12,-1,-7,3,-2,-35
1522653502778908,-97,21,3,6,3,2,-14,-28
1522653502779911,42,3,7,5,-1,3,2,83
1522653502779911,-3,-10,-5,4,3,3,2,8
1522653502792946,-21,1,8,1,0,-1,6,-4
1522653502792946,27,-8,-3,-1,-5,-1,-3,18
1522653502793949,-25,7,-1,3,-4,-1,2,7
1522653502793949,27,13,-1,-4,-3,-2,-14,-61
1522653502816007,-21,19,17,1,1,6,26,74
1522653502816007,-53,-17,-8,2,-5,-3,2,-8
1522653502816007,48,-12,-2,-1,-4,-1,2,-125
1522653502816007,-47,-13,-1,4,4,6,21,93
1522653502839068,-89,15,9,2,0,-5,-26,-64
1522653502839068,126,19,12,6,4,4,-13,-19
1522653502839068,-36,0,-5,0,-2,-1,-14,-1
1522653502839068,86,-2,-5,-5,-3,-9,14,55
1522653502852103,70,-32,-14,-3,-1,12,-21,-106
1522653502852103,-66,17,-5,-7,-6,-11,29,127
1522653502860124,65,3,8,5,-1,1,-8,-93
1522653502860124,113,27,13,0,-4,1,-4,62
1522653502875164,60,-2,-14,-10,-9,-11,-24,-38
1522653502875164,-37,-38,-7,-2,0,6,9,-25
1522653502876167,-3,1,8,-1,2,2,-8,-63
1522653502876167,-21,21,9,5,3,4,30,127
1522653502899228,-13,11,4,-1,-4,3,0,2
1522653502899228,-28,-8,-17,-8,-11,-18,6,-28
1522653502899228,46,-10,-8,-3,-2,1,38,127
1522653502899228,-82,-16,-1,15,-3,0,-24,-128
1522653502912263,-41,1,-7,1,-12,-15,-18,-52
1522653502912263,24,4,3,7,0,9,-6,-97
1522653502920284,76,27,5,4,-2,3,4,-44
1522653502920284,-66,-21,-14,-12,-11,-8,-4,0
1522653502935324,73,11,0,0,7,3,13,21
1522653502935324,-20,-18,-3,-4,3,-2,-28,-51
1522653502936327,38,3,-5,-2,-4,-1,6,48
1522653502936327,-9,2,2,9,4,4,-3,-2
1522653502958385,21,4,-3,0,-5,-6,9,13
1522653502958385,-60,-3,-2,0,-3,0,-11,42
1522653502959388,-5,0,-3,0,-7,-3,-16,-46
1522653502959388,47,16,7,-5,-6,10,-7,-9
1522653502972423,-53,-5,-2,1,2,-3,-2,-44
1522653502972423,52,10,11,9,12,23,24,82
1522653502980444,-106,-34,-17,-9,-1,9,46,7
1522653502980444,-79,12,1,-3,-2,-20,17,36
1522653502995484,73,7,-2,-5,-2,-6,-11,13
1522653502995484,7,-16,-3,0,-7,-7,20,45
1522653502996487,-72,-15,-1,8,-1,-1,-11,78
1522653502996487,94,-47,-24,-5,-17,-7,-21,-21
1522653503018545,62,0,-5,2,-7,1,35,10
1522653503018545,-61,15,6,6,-4,-11,-15,-60
1522653503019549,46,2,2,-2,-6,-5,-10,12
1522653503019549,17,8,1,-3,-1,-7,2,-6
1522653503032583,-50,-9,-2,-14,-1,-6,-10,28
1522653503032583,10,-9,-5,-10,3,2,-11,-14
1522653503040604,-69,18,11,0,10,-2,-22,-87
1522653503040604,-3,8,2,-4,6,-3,-53,-50
1522653503055644,66,-40,-22,-18,-8,-17,8,9
1522653503055644,-25,20,14,3,4,38,-12,-89
1522653503056647,-56,-12,-5,-4,-1,-20,7,-27
1522653503056647,74,-9,0,-6,0,-45,-17,52
1522653503077703,66,35,19,5,13,14,19,41
1522653503077703,-81,-33,-18,-13,-6,-11,24,49
1522653503078706,29,-13,-9,-1,-5,3,-40,-85
1522653503078706,25,-7,-3,-1,0,27,73,59
1522653503092743,-123,6,3,1,-8,-18,-13,5
1522653503092743,127,3,3,6,6,-7,-13,13
1522653503100764,-113,-33,-14,-11,-2,-4,-31,-66
1522653503100764,0,-29,-9,-11,-2,-3,11,51
1522653503115804,-128,-19,-2,5,1,8,7,-16
1522653503115804,80,32,12,6,0,-2,-8,-93
1522653503116807,17,27,10,0,4,-7,-28,16
1522653503116807,82,3,-12,-1,2,11,31,11
1522653503137863,78,-11,-11,-4,-5,0,-5,45
1522653503137863,-38,-3,13,19,11,-19,-35,-44
1522653503138866,127,-47,-18,0,-6,7,66,89
1522653503138866,-63,51,24,9,1,-3,-15,-111
1522653503151900,-72,-33,-19,-7,-11,-4,-16,-122
1522653503151900,65,13,-11,-7,-13,-6,31,127
1522653503160924,-48,6,9,2,3,-5,-65,-11
1522653503160924,-31,7,8,1,1,5,-4,-31
1522653503175964,25,-15,-6,-2,6,15,93,35
1522653503175964,-59,-21,-8,-4,-4,-8,-35,-55
1522653503175964,-81,-11,-2,3,-4,-11,-49,-68
1522653503175964,15,23,9,7,3,6,38,-22
1522653503198023,64,75,36,18,17,-4,-87,-128
1522653503198023,33,-13,-8,-6,2,9,47,-30
1522653503199026,83,7,4,4,-3,6,26,114
1522653503199026,42,13,7,4,0,-4,-55,-24
1522653503212060,-66,-18,-17,-6,-13,1,-2,25
1522653503212060,104,18,11,10,-6,-7,-40,-124
1522653503220082,67,24,6,6,-8,-15,48,-81
1522653503220082,57,-7,7,9,4,7,-44,68
1522653503235122,67,79,31,9,7,6,-12,-18
1522653503235122,24,-45,-13,13,4,15,29,-46
1522653503236124,-51,-1,-8,2,-12,-4,25,14
1522653503236124,-101,-29,-13,3,-9,-13,-17,-55
1522653503258183,58,28,4,-1,-5,-16,-27,53
1522653503258183,18,-37,-25,-19,-7,0,-7,-43
1522653503259186,21,10,-3,-10,0,5,42,63
1522653503259186,-100,-28,-15,-16,-15,-9,23,-22
1522653503281244,70,-16,5,1,8,13,-18,-69
1522653503281244,-11,45,9,-10,-2,-11,26,117
1522653503282247,55,14,4,2,2,4,11,-101
1522653503282247,22,39,2,-12,3,8,4,34
1522653503295281,-43,-97,-21,-7,4,1,-10,-57
1522653503295281,65,28,-8,-30,-12,-13,-25,105
1522653503296284,6,14,6,-5,7,7,-18,-98
1522653503296284,92,32,17,7,8,17,31,92
1522653503318343,-40,14,-12,-13,-6,-10,-44,-63
1522653503318343,-122,-32,24,6,12,1,31,-11
1522653503318343,14,-13,-16,-5,1,1,-3,-51
1522653503318343,41,4,-1,-2,3,-2,-25,-104
1522653503341404,92,-47,-7,-3,6,7,26,102
1522653503341404,54,44,16,9,16,14,-1,-57
1522653503342407,58,23,-9,-6,0,-2,-16,76
1522653503342407,77,-16,16,21,15,12,22,63
1522653503355945,40,35,-4,-2,-1,-2,18,12
1522653503355945,-110,-41,-14,-6,-1,4,20,87
1522653503356446,-65,-10,1,5,7,8,-10,-70
1522653503356446,35,9,-4,-5,1,0,-11,-108
1522653503378008,-103,-21,-5,0,3,2,14,-69
1522653503378008,73,6,8,4,6,3,-18,26
1522653503379011,-5,-11,-5,-3,-8,-8,-4,-19
1522653503379011,-64,-39,-20,-12,-10,-5,-2,-63
1522653503401069,19,18,2,1,-4,-3,32,56
1522653503401069,-62,-1,-8,-2,-4,-3,-8,-114
1522653503402072,-62,63,31,11,15,12,22,71
1522653503402072,-15,-30,2,3,-2,0,1,-70
1522653503415106,23,17,6,-4,-5,-1,6,53
1522653503415106,109,21,0,9,-2,-2,-7,-73
1522653503416109,-29,-27,-17,-6,-8,-5,9,102
1522653503416109,-29,28,7,11,3,8,-13,-77
1522653503438168,13,-41,-18,-13,-2,-1,21,86
1522653503438168,17,43,19,4,2,-12,-12,19
1522653503439171,-59,-31,-7,-2,-3,-2,-12,-128
1522653503439171,-52,-1,-10,-8,0,-5,9,89
1522653503461231,68,30,12,7,6,6,-9,-118
1522653503461231,-89,-73,-33,-13,-10,10,33,111
1522653503462233,2,17,5,4,-7,1,2,30
1522653503462233,-53,-6,-7,-7,-9,-6,-23,-102
1522653503475771,22,22,6,-4,-6,-2,-8,-52
1522653503475771,-86,-12,-3,3,-7,-4,-17,53
1522653503476774,127,-7,6,7,-1,-6,-6,25
1522653503476774,-84,1,2,5,2,4,14,-42
1522653503497829,-34,28,29,10,8,4,-1,50
1522653503497829,127,13,5,1,11,4,3,-16
1522653503498832,-78,-21,-10,-5,-3,-9,-25,-35
1522653503498832,74,-15,-7,0,-3,1,-19,-9
1522653503520891,7,-5,-5,1,-10,-3,-3,-50
1522653503520891,-89,49,20,15,1,3,-71,-128
1522653503521894,127,-28,-13,-8,-8,10,102,127
1522653503521894,-31,-20,-11,-6,-10,-12,-30,10
1522653503535931,46,-15,-11,-7,-3,0,-6,-35
1522653503535931,71,12,6,6,-4,-5,-7,-34
1522653503535931,-109,-29,-16,-5,-10,-9,-32,-117
1522653503535931,19,-25,-13,-7,-11,-7,-19,-62
1522653503557989,-82,-2,3,5,5,6,17,50
1522653503557989,-34,3,-3,-3,1,10,40,8
1522653503558993,51,18,17,12,13,-19,-29,-61
1522653503558993,94,-22,-23,-17,-15,-5,38,50
1522653503581051,-53,21,4,3,-1,-8,-20,-46
1522653503581051,53,-5,3,6,-1,5,5,-81
1522653503582054,-3,-15,-5,3,-8,4,-50,-44
1522653503582054,-69,8,-1,7,-8,-10,-40,31
1522653503595088,-16,-21,-9,2,-11,-11,-3,47
1522653503595088,-10,-13,-21,-12,-18,-12,0,-14
1522653503596091,-11,-5,-6,-9,-9,11,47,100
1522653503596091,19,16,10,-6,6,-2,-10,20
1522653503618150,-73,-44,-17,-22,-2,0,8,57
1522653503618150,-58,8,7,-3,6,-6,-65,-83
1522653503619152,73,58,24,-5,7,-8,-72,-57
1522653503619152,-59,-13,0,-8,10,16,76,50
1522653503641211,61,29,9,-3,11,16,89,96
1522653503641211,-18,-34,-21,-10,-9,-13,1,-11
1522653503642214,-27,3,5,8,7,4,-89,-90
1522653503642214,-35,-15,-12,-14,-1,-1,17,-18
1522653503655248,26,29,21,7,2,-1,-30,-30
1522653503655248,-16,-4,-5,-7,-4,-8,-45,17
1522653503663270,-100,-34,-14,3,-10,-2,36,79
1522653503663270,109,13,3,4,-5,-10,1,53
1522653503678309,-6,-26,-3,4,0,-5,-74,-114
1522653503678309,56,-1,-4,-4,-7,1,28,53
1522653503679312,-59,-16,-7,-9,-3,-8,77,95
1522653503679312,93,3,1,2,-4,-7,-36,-54
1522653503701371,47,-18,-6,1,-9,-19,-57,-118
1522653503701371,50,13,3,3,1,0,-35,-17
1522653503702374,43,-2,-3,1,3,9,80,64
1522653503702374,-65,-65,-21,-9,-5,-4,23,15
1522653503715408,-107,10,-3,-3,-8,-10,-5,-99
1522653503715408,20,-12,6,2,-2,-4,-16,-82
1522653503716411,-41,17,4,1,-6,0,28,32
1522653503716411,-58,-40,-18,0,-3,-6,-5,21
1522653503738469,79,10,2,-2,0,0,15,95
1522653503738469,-25,23,17,9,8,4,10,-59
1522653503738469,-62,11,9,-3,7,-1,-35,-35
1522653503738469,-16,-23,-11,-1,-2,-1,0,-36
1522653503761531,-106,13,3,9,-1,-4,-14,-56
1522653503761531,85,-18,-12,3,-5,-5,27,-25
1522653503761531,27,22,11,10,-1,-1,-21,-50
1522653503761531,36,59,30,7,5,7,-10,-43
1522653503775568,11,-15,-1,0,-2,3,45,86
1522653503775568,-2,-10,-17,-2,-15,-18,-55,-48
1522653503776571,54,22,11,16,-1,0,-12,3
1522653503776571,-41,17,1,-1,-6,-7,-19,22
1522653503797627,120,17,6,6,4,1,-27,-46
1522653503797627,-99,-10,6,-20,-12,-2,78,127
1522653503798630,99,-19,-15,3,0,-6,-33,-111
1522653503798630,54,40,8,5,4,3,-5,-98
1522653503821691,-52,-2,1,-17,3,3,13,44
1522653503821691,-47,27,3,-11,9,7,9,21
1522653503821691,13,-24,-15,-20,3,8,10,3
1522653503821691,-18,51,31,10,12,4,-21,28
1522653503834727,-31,-55,-28,-19,2,-2,-24,-77
1522653503834727,-25,7,11,11,15,14,37,111
1522653503842747,-83,6,3,1,4,3,2,53
1522653503842747,99,3,9,7,7,7,10,-55
1522653503857787,127,20,9,3,9,9,17,-79
1522653503857787,27,-15,-14,-3,4,2,17,92
1522653503858790,118,25,-10,-6,-6,-7,-14,-14
1522653503858790,-72,-44,-20,-7,-3,-1,-6,-97
1522653503880848,-99,7,3,-6,-1,-2,6,111
1522653503880848,106,3,3,1,2,6,14,52
1522653503881851,-28,-13,-8,-12,-2,-2,-13,-71
1522653503881851,43,-17,-3,3,6,1,7,58
1522653503894885,-30,1,3,0,7,10,9,-51
1522653503894885,-60,-10,-7,-3,7,-4,-8,-128
1522653503902907,43,10,15,4,7,1,-2,-43
1522653503902907,67,40,14,5,8,9,18,105
1522653503917947,-20,-49,-24,-10,-7,-1,7,50
1522653503917947,-62,0,9,11,3,4,-6,-124
1522653503918950,-58,-3,7,6,2,6,1,-65
1522653503918950,70,23,3,-2,-6,-6,-16,-44
1522653503941008,90,12,-10,1,1,9,17,20
1522653503941008,-7,23,13,5,1,1,10,-9
1522653503942011,-51,-27,-16,-4,-10,-9,-13,-104
1522653503942011,-32,-10,2,-1,2,0,-6,-94
1522653503955046,-32,11,10,2,8,0,-15,-113
1522653503955046,90,-23,-12,-6,3,-1,3,78
1522653503963067,-54,14,7,0,5,3,-1,7
1522653503963067,9,-9,-10,-10,-4,2,21,124
1522653503978107,32,-4,-4,2,-4,-9,-3,-29
1522653503978107,8,-11,-5,4,-1,-3,-11,-19
1522653503979110,45,-9,-8,10,-1,-1,-21,-64
1522653503979110,-87,65,24,11,3,4,13,71
1522653504001168,-23,-1,-3,-4,-8,-8,-25,-101
1522653504001168,115,10,-1,1,-5,2,18,74
1522653504002171,23,-11,-9,-1,-3,-2,-3,-50
1522653504002171,20,-21,-6,-4,-5,-3,-18,-72
1522653504015206,-76,10,13,5,-2,1,-2,-59
1522653504015206,30,-19,3,8,5,3,-5,-48
1522653504023227,-63,-2,-5,-3,-10,-7,-24,-52
1522653504023227,49,-7,-4,-2,-4,-6,0,-11
1522653504038267,104,1,-10,-6,-5,-2,6,106
1522653504038267,-53,4,8,8,-3,-2,-27,-128
1522653504039270,57,25,17,9,4,15,57,127
1522653504039270,-61,-20,-4,2,-4,-4,-18,14
1522653504061328,-35,-17,-12,-6,-8,-9,-19,-20
1522653504061328,37,31,11,7,2,-3,-31,-52
1522653504062331,95,-5,2,3,1,2,-4,87
1522653504062331,-23,3,5,4,1,2,11,-42
1522653504075366,2,-9,-1,-1,1,-1,19,11
1522653504075366,-42,-4,-6,-5,-4,-13,-17,-35
1522653504083387,44,-7,-7,0,-1,-9,-12,16
1522653504083387,15,-20,-7,-1,-3,4,-3,-48
1522653504098427,0,15,9,2,-1,11,-5,41
1522653504098427,-27,-11,-10,-11,-10,5,35,62
1522653504098427,5,6,1,-6,-7,-5,-1,-10
1522653504098427,-20,-1,-4,-2,-6,-3,2,10
1522653504121488,54,10,1,8,1,2,16,14
1522653504121488,-84,-3,-4,2,-6,-4,-17,-20
1522653504122491,6,-6,-2,0,0,4,11,-14
1522653504122491,-15,-11,-8,-8,-1,-8,-27,-30
1522653504134523,18,9,-3,-5,-3,2,27,71
1522653504134523,-2,-24,-14,-7,-7,-15,12,48
1522653504142544,8,7,2,-1,-5,-1,-27,-16
1522653504142544,-37,0,0,2,4,-1,19,-41
1522653504157584,64,3,5,3,2,12,-16,44
1522653504157584,-71,2,1,4,-4,-23,-33,-85
1522653504158587,6,0,5,3,-1,0,7,50
1522653504158587,33,-11,-10,-10,-10,-15,-41,-31
1522653504181648,54,7,3,-3,1,1,41,6
1522653504181648,33,1,-1,-6,-4,1,-26,-12
1522653504181648,-78,6,0,-5,0,-3,-8,-43
1522653504181648,-27,-12,-3,-10,2,-1,-6,-36
1522653504203707,-32,5,-2,-12,-2,-9,-37,-63
1522653504203707,-63,-29,-8,-11,2,4,-5,-60
1522653504204710,-54,8,10,-5,8,-3,5,-72
1522653504204710,-31,-13,-7,-10,0,2,12,127
1522653504217744,9,15,13,3,5,-1,29,-4
1522653504217744,30,1,1,5,-2,4,10,13
1522653504218747,22,1,-3,0,-1,1,-16,-28
1522653504218747,25,3,2,-4,4,4,37,12
1522653504240805,-84,-24,-11,-9,-5,-6,23,23
1522653504240805,72,4,0,-1,2,3,-9,19
1522653504241808,9,-6,-5,0,2,5,11,48
1522653504241808,43,-10,-5,0,0,-8,-27,-77
1522653504263867,-23,13,5,4,2,-2,2,65
1522653504263867,-128,-22,-6,5,0,8,44,88
1522653504264869,86,-28,-17,-8,-13,-8,11,53
1522653504264869,-38,-16,-4,0,-5,-1,18,13
1522653504277904,59,4,-2,-1,-5,-15,-58,-83
1522653504277904,-22,-6,-3,0,-2,7,44,68
1522653504278907,77,30,9,3,0,-4,-22,-72
1522653504278907,-25,15,6,3,4,10,37,93
1522653504300965,-44,-31,-13,-5,-10,-11,-16,-108
1522653504300965,38,12,7,8,3,9,44,125
1522653504300965,13,13,8,5,-5,-10,-38,-117
1522653504300965,-33,2,1,2,-2,5,31,78
1522653504324027,56,-6,-11,-7,-6,13,0,71
1522653504324027,-27,-49,-4,4,-3,-18,-28,-35
1522653504324027,-81,-28,-7,-7,1,-6,8,-14
1522653504324027,55,46,4,-7,-6,-12,-23,1
1522653504338064,-63,-3,5,3,-4,-4,24,75
1522653504338064,82,10,-2,7,-11,-5,-19,-12
1522653504339067,-112,-40,-14,3,-14,-5,33,35
1522653504339067,21,-3,-3,-1,-12,-9,-31,-72
1522653504360123,31,-25,-3,3,-8,-9,3,60
1522653504360123,48,32,6,3,-5,0,-13,-66
1522653504361125,14,15,2,7,-1,1,3,-53
1522653504361125,35,-5,-13,-2,-2,1,-4,14
1522653504384187,-66,28,13,-2,1,1,-1,39
1522653504384187,-4,-16,-6,-11,7,4,-30,-100
1522653504384187,69,29,0,1,18,7,30,19
1522653504384187,-109,-5,7,2,9,-2,4,-15
1522653504398224,-8,-10,-7,-5,7,-2,-12,-128
1522653504398224,84,27,12,0,9,10,0,-54
1522653504399227,-13,18,10,-4,8,8,-19,-90
1522653504399227,-46,20,6,-9,4,-4,2,29
1522653504420283,101,-33,-14,-10,3,21,10,-66
1522653504420283,27,-3,6,3,6,-6,31,65
1522653504421286,-38,-6,-7,-7,1,-4,-15,-62
1522653504421286,120,6,2,6,8,9,14,3
1522653504443344,-83,-23,-10,1,5,-7,-30,-128
1522653504443344,57,14,9,-2,5,8,-6,10
1522653504444347,63,-25,-11,-10,-8,-2,8,127
1522653504444347,57,31,28,5,7,6,-3,-21
1522653504458384,-41,2,-2,-2,5,-1,-3,76
1522653504458384,-80,16,2,5,7,7,-10,-117
1522653504458384,58,13,9,8,9,7,25,54
1522653504458384,-60,-22,-2,-9,-3,3,5,-27
1522653504480443,13,11,4,-1,2,-7,-14,21
1522653504480443,-92,4,4,-2,3,2,2,-62
1522653504481445,-105,-24,-12,-4,0,0,12,98
1522653504481445,78,-22,-7,1,1,-3,-9,-35
1522653504503504,34,15,6,7,2,1,6,-13
1522653504503504,22,6,-4,-3,-3,-3,1,4
1522653504504507,-13,7,7,10,3,8,-16,-128
1522653504504507,-13,-44,-14,0,3,3,-6,11
1522653504518544,0,37,18,10,5,-2,0,51
1522653504518544,47,-13,-11,0,-3,-2,-5,-17
1522653504518544,65,-3,-1,1,-1,-3,-2,10
1522653504518544,-108,-13,1,9,5,3,-5,-50
1522653504540603,46,7,6,5,0,5,-2,-43
1522653504540603,53,-3,-4,-2,-3,-9,3,77
1522653504541605,2,6,7,4,-2,5,12,23
1522653504541605,-30,1,-8,2,-8,5,-3,-17
1522653504563664,82,0,-12,-5,-9,-4,15,40
1522653504563664,-81,-3,-3,-2,-6,1,-13,-85
1522653504564667,59,0,-7,-7,-7,-10,-9,105
1522653504564667,27,12,2,-2,-4,2,24,55
1522653504577701,-56,-26,-10,-2,-6,-1,-10,-93
1522653504577701,-59,1,4,4,-5,2,24,58
1522653504578704,-7,2,-1,-1,-5,-7,-5,8
1522653504578704,-38,2,-4,-7,-6,-5,-21,-98
1522653504600763,69,-6,-2,-2,2,2,30,91
1522653504600763,55,19,5,2,-6,-3,0,29
1522653504601766,42,-15,-7,-1,-4,-3,-32,-128
1522653504601766,-20,2,-6,-6,-1,2,40,103
1522653504623824,35,8,11,6,2,0,12,13
1522653504623824,66,-12,-8,2,-1,-3,-33,-70
1522653504624827,7,3,7,5,3,2,-16,-43
1522653504624827,6,-10,-7,-3,-1,-11,-45,-124
1522653504637861,25,-2,0,0,2,3,7,72
1522653504637861,-121,-16,-17,-8,-7,3,29,55
1522653504638864,6,19,9,8,0,-6,-34,-64
1522653504638864,91,13,-10,-7,-6,-1,51,55
1522653504660923,-25,24,12,11,-1,1,-19,-62
1522653504660923,39,-30,-17,-1,-6,-3,-19,-34
1522653504660923,41,23,8,-1,-5,5,36,42
1522653504660923,-36,-13,4,4,-5,-8,-56,-85
1522653504683984,-23,12,-3,-7,-3,1,-6,14
1522653504683984,68,25,14,2,2,6,47,28
1522653504684987,-15,-8,2,0,-1,1,5,-17
1522653504684987,-32,-2,-3,-2,-1,-4,-11,-36
1522653504698021,-101,1,-6,-6,-5,-18,-79,-128
1522653504698021,-31,-11,-3,5,6,5,7,81
1522653504699024,12,4,-1,5,-1,3,19,35
1522653504699024,71,-9,-4,5,-4,-3,-2,-4
1522653504720080,-87,14,12,10,-4,0,18,-34
1522653504720080,-30,-7,-4,-2,-6,-13,-31,-53
1522653504721083,-76,-22,-14,-14,-4,8,42,127
1522653504721083,101,23,13,3,7,9,10,-48
1522653504744144,80,-16,-5,-3,4,-8,15,-63
1522653504744144,-17,5,-3,-7,-4,-5,12,-15
1522653504744144,-43,-16,-6,-12,-4,-2,-18,-25
1522653504744144,-33,13,7,-5,1,-1,-19,-25
1522653504757179,-45,-9,-4,-6,0,10,-25,-25
1522653504757179,75,-31,-6,-12,1,12,26,96
1522653504765200,-8,89,34,9,4,-3,32,-15
1522653504765200,-97,-30,-17,-13,-7,-5,-16,5
1522653504780240,7,-17,-11,-7,1,-2,8,-7
1522653504780240,10,-4,-5,-2,3,-5,-29,39
1522653504781243,-56,-28,-6,-4,4,-13,-31,66
1522653504781243,97,14,12,3,9,5,12,90
1522653504803301,-59,8,0,2,-4,-5,-19,-17
1522653504803301,-20,-28,-15,-6,-9,-8,21,19
1522653504804304,36,-9,-1,7,0,2,-37,-101
1522653504804304,23,28,8,-1,-4,8,41,81
1522653504817339,-38,-45,-21,-10,-14,-35,-48,18
1522653504817339,30,30,12,6,-1,10,14,-2
1522653504825360,-3,1,3,-1,-5,-33,-49,-89
1522653504825360,-10,-34,-12,-9,-7,-11,8,-46
1522653504840400,-22,19,8,-2,0,15,75,63
1522653504840400,33,14,4,2,-6,-4,2,-46
1522653504841403,-59,-45,-27,-12,-11,-2,-27,-55
1522653504841403,40,7,-7,5,0,-4,-11,-4
1522653504863462,127,25,6,10,2,4,0,-69
1522653504863462,3,25,5,13,2,-1,-3,-42
1522653504864464,-62,-49,-19,3,1,4,16,-64
1522653504864464,-19,11,2,-1,-7,-7,31,114
1522653504877499,-19,6,9,14,4,12,2,-53
1522653504877499,-2,28,15,6,-6,-7,-33,-85
1522653504885520,117,-5,-14,-14,-10,-1,15,118
1522653504885520,-94,17,28,12,2,3,-1,-70
1522653504900560,-51,-34,-11,-2,-1,-2,-9,-49
1522653504900560,-66,-7,-6,-10,1,3,6,84
1522653504901563,-116,-17,3,-4,7,3,-20,-5
1522653504901563,-63,19,-4,-19,-2,-9,-2,27
1522653504923621,127,-21,-12,-5,-1,-2,8,-37
1522653504923621,66,-34,-16,-6,-1,-7,-38,-122
1522653504924624,-69,20,6,-4,-1,6,7,-42
1522653504924624,73,-24,-12,-8,10,8,-18,-47
1522653504937658,-119,41,25,3,10,1,-12,-40
1522653504937658,22,-12,6,4,12,5,-23,-79
1522653504945680,102,15,13,6,9,9,49,79
1522653504945680,74,8,-3,-3,-9,-12,-34,-90
1522653504960720,18,-10,-10,-8,-7,0,25,27
1522653504960720,-68,-6,-2,-5,2,-4,-27,-87
1522653504961723,-16,4,6,2,7,4,11,125
1522653504961723,-1,7,6,0,2,-1,-19,-94
1522653504983782,-30,42,16,-1,4,1,-1,39
1522653504983782,1,2,-2,1,4,5,5,-58
1522653504984784,-63,12,2,3,5,6,13,21
1522653504984784,-24,-23,-10,0,4,0,-12,-50
1522653504997819,115,-15,-14,-9,0,4,18,127
1522653504997819,1,-2,-4,4,2,-2,-11,-47
1522653505005840,17,33,13,-2,-1,0,16,-3
1522653505005840,36,-35,-15,-4,-2,9,-8,33
1522653505020880,-105,-3,3,2,-2,-12,-12,-9
1522653505020880,63,-8,-13,-5,-5,-5,6,70
1522653505020880,16,-10,7,1,-6,-3,-12,-128
1522653505020880,-74,-6,-9,-13,-5,-5,-8,54
1522653505043941,126,-12,-12,-4,-4,5,2,109
1522653505043941,-8,19,10,6,0,3,13,30
1522653505044944,-52,-8,-10,-2,-1,-2,-3,-63
1522653505044944,-45,-13,-3,-7,2,-4,0,-80
1522653505056976,47,1,8,4,9,5,-7,59
1522653505056976,-23,-10,-7,-2,2,-2,-3,-47
1522653505066000,82,-14,-5,-2,3,3,1,23
1522653505066000,18,20,0,-1,0,-1,12,30
1522653505081040,-58,-20,-13,1,-3,-1,-12,-94
1522653505081040,45,39,20,11,0,3,5,53
1522653505081040,23,-15,-10,-1,-5,-7,-8,-103
1522653505081040,59,20,5,3,5,9,17,92
1522653505104101,-94,-15,0,-1,-4,-1,3,12
1522653505104101,-50,-5,3,5,-5,2,-1,4
1522653505104101,86,24,-1,1,-9,-5,1,-6
1522653505104101,8,-12,-1,3,1,4,-8,-59
1522653505117136,32,4,-3,0,1,-3,4,22
1522653505117136,-18,7,6,2,-1,-2,10,-4
1522653505125157,-27,6,-2,2,-8,-3,-15,50
1522653505125157,110,-10,4,2,-14,5,6,64
1522653505140197,-69,-36,-11,-1,-15,2,-13,-55
1522653505140197,-50,3,-3,-5,-10,-5,0,30
1522653505141200,29,-14,-11,-8,-9,-5,-14,3
1522653505141200,20,16,8,5,1,0,7,0
1522653505164261,28,-13,-8,0,0,-5,-9,-59
1522653505164261,25,-24,-6,-7,-1,5,41,74
1522653505164261,-34,-7,1,1,3,1,21,60
1522653505164261,12,-5,-15,-8,-4,-14,-19,-55
1522653505186320,-5,6,2,3,5,-7,-33,-93
1522653505186320,63,-14,-11,2,3,7,-18,-6
1522653505187323,-73,23,6,-3,-3,-2,24,43
1522653505187323,-16,-15,-4,7,-2,-3,-14,-52
1522653505200357,0,3,-1,-2,-1,4,8,64
1522653505200357,85,10,5,2,4,-3,-5,58
1522653505201360,-18,-10,-3,-1,-2,0,-10,-66
1522653505201360,-85,-5,2,1,0,-3,-15,-13
1522653505223419,109,21,8,3,3,8,64,111
1522653505223419,-110,-11,-6,-3,-7,-9,-19,-56
1522653505224421,5,12,3,4,1,-3,-17,-58
1522653505224421,20,26,13,3,5,8,30,47
1522653505246480,29,-7,-2,5,1,4,-1,33
1522653505246480,-72,-20,-4,-3,-6,6,8,-29
1522653505247483,38,-28,-11,3,1,-2,36,67
1522653505247483,21,3,-1,-2,-11,-11,-18,-32
1522653505260517,-96,11,-6,-7,-11,-9,-22,-55
1522653505260517,108,62,27,6,-1,-5,-55,-63
1522653505261520,-28,2,-7,-9,-4,2,10,4
1522653505261520,-67,-22,-3,-1,4,-2,-27,24
1522653505283579,92,-15,-11,-11,-6,-10,1,-15
1522653505283579,-12,-8,-9,-17,-10,-10,-25,-31
1522653505284581,0,-2,5,-4,1,-4,-38,-23
1522653505284581,-89,-17,-2,-5,6,-3,-24,-95
1522653505306640,-70,10,4,-2,0,5,11,-46
1522653505306640,12,-11,-4,-1,4,-2,12,30
1522653505306640,27,-18,-8,-8,3,2,4,-16
1522653505306640,-54,3,-2,-5,3,7,23,80
1522653505320677,-7,-3,4,2,1,3,15,43
1522653505320677,-58,7,8,4,4,-3,19,-31
1522653505321680,-5,-3,0,-1,-3,-1,-24,17
1522653505321680,20,8,5,-1,-9,7,19,-3
1522653505343739,-4,-10,1,2,-5,-18,-32,-54
1522653505343739,-21,1,-2,-3,-3,8,94,127
1522653505344741,93,4,-2,-1,-2,6,-7,-1
1522653505344741,75,12,-4,-5,3,5,31,77
1522653505365797,7,-19,-6,3,7,2,-5,-25
1522653505365797,-41,9,8,6,6,3,1,-92
1522653505366800,18,-26,-13,-5,-6,-5,10,27
1522653505366800,1,41,17,4,-4,-4,10,22
1522653505380837,26,6,1,5,-1,-2,-28,-107
1522653505380837,-4,-15,-14,-5,-1,-2,18,46
1522653505381840,28,13,6,3,6,2,11,-36
1522653505381840,-41,4,-2,8,5,-10,-29,-89
1522653505403899,23,11,6,9,10,9,10,46
1522653505403899,-95,-18,-4,7,0,-3,-30,-86
1522653505404901,63,19,10,11,3,-1,0,-29
1522653505404901,-43,-27,-22,-12,-8,-10,-1,-21
1522653505425957,79,20,14,9,0,-5,-48,-66
1522653505425957,76,-11,1,10,2,5,7,73
1522653505426960,-5,-4,-11,-10,-5,-7,51,94
1522653505426960,-73,-22,-4,0,-6,-20,-12,-64
1522653505440997,-84,-7,-10,-6,-2,9,10,-29
1522653505440997,63,-6,-3,-5,-1,-3,-2,37
1522653505440997,-87,3,3,-1,-4,-3,-39,-24
1522653505440997,66,5,-6,-11,2,10,16,-1
1522653505463056,-32,56,23,7,1,-2,0,-20
1522653505463056,-88,-54,-15,-9,-2,-10,-22,64
1522653505464059,86,-9,-8,-6,3,3,-12,-67
1522653505464059,-17,-1,7,2,9,9,19,-20
1522653505486117,16,-21,-11,-6,-1,1,13,7
1522653505486117,113,40,6,-3,-2,-3,-9,70
1522653505487120,58,-28,-12,-6,-4,-5,0,-21
1522653505487120,46,22,5,-2,2,2,-2,69
1522653505500155,-32,-25,0,6,7,13,-11,-68
1522653505500155,15,40,5,-2,2,-9,-19,-115
1522653505501157,-111,-5,2,2,5,-1,-2,-46
1522653505501157,-7,-29,-7,-15,2,8,-4,-52
1522653505523216,47,-3,-6,-10,1,-10,13,-13
1522653505523216,-39,26,9,4,5,9,-1,-116
1522653505524219,72,39,17,4,-1,1,-30,-104
1522653505524219,31,7,6,2,8,-4,5,60
1522653505546277,65,-13,-23,-15,-1,2,14,12
1522653505546277,66,-15,-8,-1,-5,-3,0,98
1522653505547280,-56,-1,2,9,5,5,0,-24
1522653505547280,-77,-5,-5,-2,-3,1,-7,11
1522653505560315,-15,-49,-14,-2,2,6,17,-49
1522653505560315,60,30,5,-1,0,0,8,10
1522653505561317,-34,-7,2,-6,-2,7,22,111
1522653505561317,23,-15,-11,-3,-7,-1,-21,-49
1522653505583376,-58,39,11,6,-2,-2,-3,-48
1522653505583376,82,12,10,9,2,3,9,-6
1522653505584379,-29,-23,3,4,1,-3,6,-63
1522653505584379,-6,4,2,1,4,1,-27,-97
1522653505606437,75,15,23,7,-2,9,21,127
1522653505606437,28,-1,-9,-3,-7,-7,-26,-93
1522653505607440,86,29,14,4,0,11,24,119
1522653505607440,127,-20,-10,-1,-7,-4,-2,-44
1522653505620475,-85,-2,-10,-5,-10,-5,-11,-44
1522653505620475,-23,2,3,2,4,9,1,22
1522653505621477,77,-4,-3,1,2,2,18,16
1522653505621477,9,2,-2,-4,-3,-13,3,81
1522653505643536,-75,8,1,-1,-2,-2,-27,-16
1522653505643536,-71,-12,7,7,5,4,1,-38
1522653505643536,35,-3,-15,-7,0,-6,-23,-68
1522653505643536,-43,15,16,6,0,5,9,64
1522653505666597,-16,16,10,7,1,7,3,-18
1522653505666597,52,-6,-12,-9,-11,-26,-21,-111
1522653505666597,10,11,5,4,-5,4,-24,-42
1522653505666597,-6,7,4,5,4,7,31,29
1522653505680635,-14,-16,-10,0,-3,-4,4,19
1522653505680635,13,19,8,4,4,7,-11,-94
1522653505681637,-114,19,10,-1,3,-3,-29,-58
1522653505681637,4,9,-15,-13,-8,-5,25,105
1522653505702693,57,-10,-2,7,-4,-4,-18,-52
1522653505702693,4,-24,-8,3,-11,2,5,19
1522653505703696,-56,-11,-5,-1,-10,-9,-4,-43
1522653505703696,-92,3,4,4,-1,2,-9,-69
1522653505725754,16,-34,-14,-10,-9,-9,12,77
1522653505725754,-55,-24,-22,-14,-9,-7,12,43
1522653505726758,10,0,1,1,2,-7,-29,-22
1522653505726758,86,-15,4,11,10,11,37,62
1522653505739792,-49,47,7,-3,-9,-12,-27,-43
1522653505739792,-2,-26,-3,-3,1,-1,-7,15
1522653505747813,-11,12,1,3,2,1,2,28
1522653505747813,-3,0,-1,3,-11,-3,-13,-46
1522653505762853,17,-5,-3,3,-4,-3,-5,-24
1522653505762853,-69,-13,0,4,-2,3,10,8
1522653505763856,20,2,4,-3,-6,1,22,121
1522653505763856,27,-10,-4,5,0,15,-15,-75
1522653505785914,37,-5,-9,-3,-3,-28,2,39
1522653505785914,-7,8,15,10,8,7,1,-8
1522653505786918,-74,-22,-15,-6,-5,-6,5,97
1522653505786918,-14,-21,-18,-7,-11,-6,20,8
1522653505799952,116,24,12,10,3,13,27,81
1522653505799952,0,2,-4,-9,-5,-14,-38,-57
1522653505807973,-47,-13,-6,-10,-5,-5,8,29
1522653505807973,66,4,0,-6,0,-7,-56,-112
1522653505823013,-55,5,2,-7,4,4,13,7
1522653505823013,-28,-26,-16,-17,-4,-8,-26,21
1522653505824016,65,21,7,-6,6,9,17,-27
1522653505824016,-70,-5,4,-3,2,-8,-26,-17
1522653505846074,-2,-35,-14,-10,0,5,8,42
1522653505846074,68,5,0,-6,-1,-2,-15,37
1522653505847077,-48,-30,-4,-2,3,-1,0,-39
1522653505847077,-39,0,7,2,-1,-2,3,-33
1522653505860112,98,3,5,0,1,2,-9,22
1522653505860112,-60,-5,-2,-1,2,23,56,101
1522653505868133,-12,-10,-7,-4,-6,-23,-37,-31
1522653505868133,39,17,9,8,11,1,-5,24
1522653505883173,-54,-24,-11,-4,-2,-9,-1,-66
1522653505883173,18,26,11,5,8,1,0,33
1522653505884176,44,-8,-7,-4,2,6,27,104
1522653505884176,48,28,17,10,4,0,-19,-38
1522653505906235,-42,-23,-3,3,3,-1,17,38
1522653505906235,-76,-29,-13,-3,-8,-19,-17,-55
1522653505907238,61,10,4,-1,-5,-4,-13,-5
1522653505907238,11,-29,-8,-3,-12,-5,-35,6
1522653505920272,-61,4,-5,-2,-7,-4,17,-35
1522653505920272,16,22,-3,-9,-7,-2,53,-39
1522653505928293,-94,-2,4,4,5,3,6,-97
1522653505928293,37,-15,-9,-5,-6,-6,9,63
1522653505943333,16,17,7,6,-6,-4,-11,15
1522653505943333,21,-20,-11,-4,0,-1,18,126
1522653505943333,9,7,8,1,1,8,2,-39
1522653505943333,-13,-1,-3,-3,2,-15,-10,-84
1522653505966395,-28,6,1,1,5,2,-21,-27
1522653505966395,21,-9,-2,-7,-3,-3,-12,-30
1522653505967398,36,-4,-5,-1,-1,8,27,54
1522653505967398,-18,-26,-15,0,-2,6,8,12
1522653505979429,22,9,8,15,3,10,25,103
1522653505979429,-4,23,5,8,-6,-1,-25,-115
1522653505988453,63,7,-5,3,-6,-7,-25,-90
1522653505988453,-17,10,4,4,-10,-3,20,76
1522653506003493,-78,-18,-6,4,-4,-7,-21,-86
1522653506003493,90,30,20,14,0,4,-20,-70
1522653506003493,5,39,11,-3,-6,-6,21,87
1522653506003493,34,-14,-4,-7,-6,-3,8,-2
1522653506026554,64,-34,-22,-9,-4,4,-9,-32
1522653506026554,3,13,2,-2,-1,-6,-7,-73
1522653506026554,-24,-3,6,2,5,0,12,49
1522653506026554,55,-5,-9,-15,6,1,1,5
1522653506048613,38,1,5,-3,5,4,14,85
1522653506048613,-73,-29,-7,-2,6,3,-23,-95
1522653506049616,98,-16,-13,-22,1,-2,15,101
1522653506049616,52,3,3,1,4,0,-10,-59
1522653506062650,25,25,14,-3,3,6,5,-16
1522653506062650,42,-22,-13,-8,-5,1,19,29
1522653506063653,-33,19,12,6,10,11,-12,-3
1522653506063653,-98,-43,-20,-11,1,5,29,80
1522653506086714,28,16,7,-1,3,0,-25,-53
1522653506086714,-99,2,3,0,-2,-2,-5,43
1522653506086714,-1,-35,-11,1,8,3,3,-18
1522653506086714,112,61,12,5,8,3,-2,-94
1522653506108773,39,7,11,10,9,1,-1,-48
1522653506108773,71,-17,-4,-2,-3,5,17,127
1522653506109776,-8,-7,-10,-5,-10,-10,-15,-128
1522653506109776,20,23,7,2,2,2,-1,-75
1522653506122811,-121,-5,-2,6,1,2,-16,-28
1522653506122811,95,-15,-7,-4,0,3,3,40
1522653506123813,-34,-7,2,2,-2,3,-10,37
1522653506123813,-128,-31,-11,1,-6,-8,9,-46
1522653506145872,100,28,5,-3,-4,-6,-22,-57
1522653506145872,-47,-5,4,8,13,8,8,-19
1522653506146875,-6,1,0,-4,-5,-7,-14,-26
1522653506146875,38,-10,-6,-6,1,5,-6,-7
1522653506168933,14,-25,-4,2,1,-2,17,86
1522653506168933,-73,-11,-6,1,-5,-14,-32,-109
1522653506169936,64,33,24,7,8,12,35,107
1522653506169936,-128,16,1,1,-1,0,-12,-77
1522653506182971,48,-20,-17,-6,-3,-1,29,44
1522653506182971,4,14,1,2,-3,0,0,4
1522653506183973,30,-23,-20,-7,-12,-2,-3,-23
1522653506183973,-40,11,6,-3,0,2,7,45
1522653506206032,14,5,2,3,3,6,-12,-20
1522653506206032,67,32,13,-1,3,1,25,127
1522653506207035,-4,-19,-5,0,4,-3,-14,-18
1522653506207035,-86,-23,-4,2,4,3,9,-3
1522653506229093,103,19,-4,-5,-8,12,-4,-60
1522653506229093,13,2,-4,-1,-1,-16,-24,-49
1522653506229093,100,28,13,3,0,-2,-8,-71
1522653506229093,-43,-11,-1,-1,-4,-7,7,127
1522653506243130,-17,4,2,4,-3,-9,-13,-80
1522653506243130,53,0,-11,-5,-5,-2,6,-35
1522653506244133,-64,16,15,4,3,3,5,7
1522653506244133,44,-7,-7,2,-1,1,5,-5
1522653506266192,-84,41,25,5,-1,-4,-23,-42
1522653506266192,-29,-9,-3,-2,-5,5,-1,-12
1522653506267195,-45,-11,-19,-14,-12,-3,16,69
1522653506267195,42,-25,-8,-1,-5,2,7,0
1522653506289253,15,1,3,6,3,-2,-24,14
1522653506289253,6,-52,-20,-13,-9,-8,10,65
1522653506289253,-127,-11,-1,-2,1,0,-13,-21
1522653506289253,24,12,1,2,0,1,-2,59
1522653506303290,61,-16,-15,-9,-3,3,28,71
1522653506303290,-88,-9,-6,-3,-2,0,-13,-73
1522653506304293,63,33,11,1,-5,-5,-57,-128
1522653506304293,4,13,16,15,8,7,4,-23
1522653506326352,10,-13,-11,3,-1,-3,14,-23
1522653506326352,25,37,27,16,3,3,-17,-106
1522653506327355,21,-6,-10,-1,-5,-6,-23,-37
1522653506327355,127,2,-11,-10,-8,5,33,47
1522653506348410,-36,6,7,6,1,-5,-26,-45
1522653506348410,33,7,-2,5,5,8,26,43
1522653506349413,-83,-37,-15,-5,-5,-11,-40,-50
1522653506349413,34,15,6,3,-3,-4,-22,16
1522653506363450,-60,-9,-7,-12,-5,-11,-44,-24
1522653506363450,59,-44,-23,-19,-8,3,25,101
1522653506363450,15,23,9,-5,1,-7,-26,-45
1522653506363450,38,2,2,3,-2,-4,-30,-36
1522653506386512,-37,-22,-10,-7,-7,-9,53,60
1522653506386512,55,-2,4,6,2,-9,-41,-12
1522653506387515,-63,13,2,0,-1,-7,-17,-64
1522653506387515,-22,-31,-10,-5,-2,-1,34,15
1522653506408570,15,-5,-2,-4,-8,-9,14,127
1522653506408570,-80,15,4,-6,-10,-9,27,-67
1522653506409573,89,-11,-1,1,4,-6,-29,-26
1522653506409573,-39,15,3,-4,2,2,37,22
1522653506422608,-14,-17,-10,-6,-2,0,-38,-82
1522653506422608,-108,56,19,3,6,15,51,22
1522653506423611,-85,-14,-3,-2,3,0,-8,-46
1522653506423611,11,-31,-11,-2,0,-5,-20,-38
1522653506446672,28,19,12,2,6,3,-8,-19
1522653506446672,-33,33,17,3,7,4,1,23
1522653506446672,12,-31,-16,-6,-6,-1,115,127
1522653506446672,-60,6,5,1,-6,-17,-28,-51
1522653506468730,-91,-28,-8,5,-3,-3,18,-53
1522653506468730,121,16,1,-3,-3,-4,5,86
1522653506469733,-57,-19,-12,-6,-4,3,37,58
1522653506469733,-16,12,8,8,5,-1,-9,-40
1522653506482768,-84,-10,-3,-3,-4,-2,15,-35
1522653506482768,22,-34,-10,4,-3,-8,-70,-94
1522653506483771,58,18,6,3,2,8,57,73
1522653506483771,112,-25,-19,-9,-12,-11,-14,-84
1522653506505829,-31,-23,-16,-2,-8,-4,-16,67
1522653506505829,37,5,8,8,-4,-6,3,26
1522653506506832,-33,-2,-8,-3,-2,1,-8,-2
1522653506506832,49,0,1,0,1,-2,-30,-53
1522653506528890,60,1,1,-2,5,10,54,65
1522653506528890,-113,-27,-13,-1,-9,-9,-33,-93
1522653506529893,-8,20,8,6,-2,2,-7,42
1522653506529893,20,24,10,2,4,14,58,69
1522653506542928,41,-14,-3,-2,2,1,-6,79
1522653506542928,-98,24,20,7,5,0,-10,-50
1522653506543931,36,21,0,-6,1,5,17,-7
1522653506543931,-19,8,1,-7,-6,0,-2,-11
1522653506565989,-77,-26,-20,-13,-13,-7,-18,7
1522653506565989,92,16,10,-1,1,-1,1,101
1522653506566992,-21,-52,-14,-5,-2,-3,-17,-82
1522653506566992,-85,51,17,4,9,7,-9,-87
1522653506589050,127,19,9,0,5,6,6,-65
1522653506589050,31,18,10,3,9,9,25,40
1522653506590053,80,-2,-8,-10,2,6,10,98
1522653506590053,-78,-80,-26,-9,-5,-5,-25,79
1522653506603088,93,36,19,8,6,3,-4,-60
1522653506603088,-8,24,2,-4,2,-1,-22,-74
1522653506604091,91,-28,-12,-8,4,2,-3,33
1522653506604091,117,40,20,11,10,6,9,-62
1522653506625146,-107,12,2,3,7,1,-2,-1
1522653506625146,-96,-61,-32,-15,-6,-4,-1,-79
1522653506626149,61,28,12,1,6,-2,-15,-49
1522653506626149,-7,-6,-13,-4,-1,3,1,-3
1522653506649210,-98,-10,13,-3,-4,-1,-1,-70
1522653506649210,-7,12,4,0,1,4,8,-84
1522653506649210,-81,-17,3,-1,1,4,-2,-83
1522653506649210,-5,23,3,-1,-4,-5,-12,32
1522653506662245,118,1,5,2,2,4,4,-28
1522653506662245,-25,-7,-6,-3,0,1,19,102
1522653506670266,-7,28,9,5,-1,0,-8,14
1522653506670266,20,5,4,6,-1,1,-8,-17
1522653506685306,-20,-19,-9,0,0,1,-11,-67
1522653506685306,36,-20,-7,1,2,6,6,2
1522653506686309,7,-3,5,4,6,7,22,79
1522653506686309,-7,14,6,0,3,1,-2,9
1522653506708368,-8,5,-5,1,1,-4,-3,-59
1522653506708368,44,-13,-10,-5,-1,-5,3,103
1522653506709370,0,9,-3,4,4,3,-4,-100
1522653506709370,-81,-7,0,1,2,-1,-7,-34
1522653506722405,51,8,8,3,1,2,5,49
1522653506722405,-10,-27,-12,-11,-4,1,21,39
1522653506730426,2,31,13,3,-4,0,4,30
1522653506730426,-10,-22,-12,0,-7,-7,-11,-33
1522653506745466,100,42,15,5,5,3,-1,-49
1522653506745466,-75,15,5,-6,-9,-13,-27,16
1522653506746469,100,-5,-4,-2,-4,-2,5,88
1522653506746469,69,-7,0,4,-5,4,13,20
1522653506768528,-62,10,4,4,-4,-2,-17,-58
1522653506768528,4,5,7,12,8,6,-15,-128
1522653506769531,-28,14,-3,-3,-5,-5,-9,8
1522653506769531,-13,-6,3,3,-2,-1,13,26
1522653506782565,86,13,-2,3,-2,-1,-4,29
1522653506782565,-32,-24,-7,1,-5,-5,-20,-99
1522653506790586,-19,1,6,7,0,-1,21,55
1522653506790586,26,-4,-8,-2,-6,-1,18,37
1522653506805626,-104,-31,-11,-2,-8,-8,-28,-13
1522653506805626,88,-16,-9,-2,-9,-3,-13,30
1522653506806629,37,10,9,6,-1,4,-20,-97
1522653506806629,-14,3,-7,-6,-4,7,26,56
1522653506828687,-43,-28,-8,-5,1,7,18,42
1522653506828687,55,24,10,3,7,13,19,46
1522653506829691,-31,-44,-19,-14,-5,-5,-19,7
1522653506829691,45,5,5,4,5,7,-17,24
1522653506842725,-37,-23,-15,-11,-9,1,1,59
1522653506842725,49,30,13,0,3,4,-2,-36
1522653506850747,-51,10,3,2,5,4,1,-78
1522653506850747,28,-24,-8,-1,4,7,71,99
1522653506865786,-47,11,-4,0,-2,-5,7,-5
1522653506865786,-126,15,6,4,-3,-2,-13,-82
1522653506866789,-60,-18,-13,-5,-7,-11,-60,-27
1522653506866789,62,20,13,7,-4,-9,-64,-81
1522653506888848,8,-24,-15,-11,-6,10,111,86
1522653506888848,-7,10,6,7,-1,-3,20,56
1522653506889851,-128,-7,-3,3,-9,-19,-62,-97
1522653506889851,11,-22,-9,-5,-11,-23,-61,-86
1522653506902885,119,-3,-3,-2,-2,-9,31,30
1522653506902885,-16,19,4,-6,-6,-12,-4,115
1522653506910906,19,15,5,7,5,-2,14,-81
1522653506910906,4,-2,-6,-7,-5,-4,20,80
1522653506925946,31,9,5,-7,-1,-8,-9,49
1522653506925946,34,-9,-7,-15,-5,-13,-18,-13
1522653506925946,61,-4,0,-7,3,-3,1,-3
1522653506925946,-44,7,12,-2,8,5,41,15
1522653506949007,70,-18,-5,-10,-1,-9,-50,39
1522653506949007,48,0,-9,-10,-1,1,52,14
1522653506950011,66,12,7,-2,-2,-10,-61,-8
1522653506950011,-84,-23,-6,-4,-2,0,14,-20
1522653506962042,3,10,5,4,3,-1,-47,-56
1522653506962042,-46,-8,3,-1,1,-5,-17,7
1522653506971066,22,-7,0,0,2,3,36,68
1522653506971066,67,45,18,6,7,3,-9,-1
1522653506985104,-20,4,-2,0,0,0,40,-58
1522653506985104,66,-4,-7,-4,0,-1,-7,52
1522653506986106,-37,0,0,2,5,10,28,-93
1522653506986106,-108,6,2,0,-2,-7,-18,81
1522653507009167,67,48,22,9,-1,2,3,42
1522653507009167,3,-5,-6,-4,-5,-4,-18,-105
1522653507009167,41,9,0,1,0,2,58,127
1522653507009167,-90,-48,-19,0,-3,-3,-47,-120
1522653507031226,67,10,-1,-9,-3,-4,6,97
1522653507031226,-32,-5,0,2,2,6,25,-33
1522653507032229,75,-4,-4,-2,-10,-5,-11,-13
1522653507032229,-7,20,2,0,-3,-5,-16,-66
1522653507045264,-79,9,7,10,1,5,-13,-128
1522653507045264,40,15,13,6,5,11,46,88
1522653507046266,32,-8,-7,4,-1,1,-15,-81
1522653507046266,38,5,3,6,-1,-2,26,65
1522653507068325,34,-10,-10,-5,-5,2,27,82
1522653507068325,-91,-5,-1,3,-1,-10,-38,15
1522653507069328,12,-36,-17,-6,-10,-7,-16,-43
1522653507069328,87,-1,1,-1,-2,0,6,58
1522653507091386,-5,40,13,13,1,-8,-27,-28
1522653507091386,17,-42,-20,1,-2,-2,3,-98
1522653507092389,42,-13,-10,-5,-3,-1,-4,30
1522653507092389,39,-1,12,6,3,15,59,60
1522653507105424,-64,1,-14,-9,-11,-11,-23,-84
1522653507105424,-10,-21,-14,-14,-7,-8,-10,-30
1522653507106427,77,1,2,-2,3,2,0,-7
1522653507106427,13,43,26,6,9,9,21,-63
1522653507128485,5,-21,-23,-18,-4,-9,-36,47
1522653507128485,-9,-15,-5,-7,2,0,8,79
1522653507129488,-75,-23,-12,-11,-4,-7,-26,-85
1522653507129488,26,75,40,13,11,12,22,44
1522653507151546,-76,-22,3,2,3,2,-2,-6
1522653507151546,56,5,-10,-16,-8,-5,-21,-3
1522653507152549,-14,2,-4,-15,-4,0,27,127
1522653507152549,-36,-34,-19,-8,-3,1,5,3
1522653507165583,-22,69,27,7,6,5,-5,36
1522653507165583,-82,-34,-8,-8,-4,5,17,44
1522653507166587,-102,-6,-4,0,4,1,-15,-98
1522653507166587,86,-54,-42,-26,-16,-7,28,40
1522653507188645,-101,15,16,8,11,14,19,-61
1522653507188645,-60,-45,-21,-10,-2,-3,-31,-86
1522653507189648,54,21,17,6,4,3,26,57
1522653507189648,-81,22,-3,-3,-4,-12,-53,-83
1522653507211706,-58,-65,-21,5,6,5,-11,-125
1522653507211706,69,35,28,6,-1,-1,4,4
1522653507211706,37,-40,-14,-3,-3,-2,6,-26
1522653507211706,-52,-38,-25,-4,-6,-9,-31,-28
1522653507225743,66,8,30,17,7,9,19,34
1522653507225743,-54,-2,-8,0,1,4,5,11
1522653507226746,-9,85,26,-1,2,-2,6,64
1522653507226746,-86,-32,-14,4,8,0,-10,-88
1522653507248805,38,-29,-23,-12,-6,-7,-18,-50
1522653507248805,127,4,-1,0,10,8,17,-103
1522653507249808,97,28,20,15,13,11,11,-56
1522653507249808,-49,-4,1,1,-5,-2,-2,24
1522653507270864,56,-6,-11,-7,-9,-6,-15,-63
1522653507270864,9,-5,-4,4,2,4,1,-12
1522653507271866,-5,22,28,13,6,3,4,-41
1522653507271866,45,17,5,7,2,0,-9,-16
1522653507285904,-13,-26,-15,-6,-2,0,2,69
1522653507285904,54,26,19,7,6,11,22,64
1522653507285904,-79,-23,-15,-4,0,5,8,17
1522653507285904,44,-1,1,-1,-5,-2,-23,13
1522653507308965,-82,-11,1,0,1,0,0,2
1522653507308965,9,24,6,0,-1,-3,-7,-35
1522653507309968,-5,-15,-10,-6,-6,5,-5,20
1522653507309968,-12,10,6,1,1,-7,-1,-82
1522653507331024,41,22,5,5,3,-3,-11,-34
1522653507331024,31,11,6,6,7,11,-7,-25
1522653507332026,25,-12,-5,-4,-4,-4,4,34
1522653507332026,-2,-16,-1,5,2,6,10,-56
1522653507345061,29,12,10,6,-1,1,13,27
1522653507345061,-74,24,18,10,1,0,-2,-70
1522653507346064,17,-8,-22,-8,-13,-6,6,85
1522653507346064,1,2,0,4,-4,-2,-12,-46
1522653507369125,80,-22,-11,-5,-7,-11,-10,10
1522653507369125,-96,17,10,2,0,-4,-3,52
1522653507369125,6,-15,-4,0,-1,-6,-9,-60
1522653507369125,1,-3,0,-2,-5,-2,-1,80
1522653507391184,14,-6,-5,-1,-3,7,24,74
1522653507391184,14,-29,-16,-4,-8,-5,-16,-29
1522653507392186,-103,-6,1,7,-2,3,-4,-77
1522653507392186,3,-21,-9,-1,-5,0,-8,14
1522653507405221,51,-13,-9,-5,-3,4,3,-5
1522653507405221,20,61,26,6,4,-2,-39,-58
1522653507406224,-33,-49,-23,-16,-2,3,43,89
1522653507406224,-38,3,3,3,5,8,10,-58
1522653507429285,-15,-18,-8,-6,-5,-5,-21,-16
1522653507429285,5,-3,-1,4,4,6,0,-22
1522653507429285,-6,-8,-10,-1,-4,-5,-13,12
1522653507429285,7,28,22,5,1,-3,-20,-91
1522653507451344,-33,-11,-10,-3,-4,-2,-6,46
1522653507451344,53,-35,-17,-2,-7,-1,24,107
1522653507452346,17,-9,-4,5,-9,-7,1,79
1522653507452346,56,-35,-23,-4,-17,-14,-26,27
1522653507465381,-15,25,4,6,-8,-11,-29,-79
1522653507465381,-41,33,9,0,-3,-10,-5,-26
1522653507466384,44,-53,-14,-8,-3,-9,-1,-19
1522653507466384,-50,-25,-8,-10,-2,-3,23,61
1522653507488442,44,42,15,-4,0,-8,-23,-5
1522653507488442,68,-10,-8,-17,-5,-12,-11,43
1522653507489445,38,71,28,9,11,6,-13,-76
1522653507489445,-21,-14,-8,-2,2,-6,-37,-99
1522653507511504,-78,-4,1,-10,2,-5,-35,42
1522653507511504,-8,-22,-9,-7,5,-7,-39,-74
1522653507512506,3,36,17,0,10,9,18,-35
1522653507512506,31,19,2,-5,6,0,14,10
1522653507525541,-12,-13,3,7,11,0,-57,-99
1522653507525541,-3,5,4,-2,-1,-1,-4,108
1522653507526544,-112,-33,-11,-7,-4,11,74,74
1522653507526544,88,8,-1,0,-1,-1,-5,36
1522653507548602,6,-1,-2,-5,-7,-4,9,-46
1522653507548602,-27,-1,2,0,5,-7,-74,-94
1522653507549605,-35,3,0,0,8,9,100,118
1522653507549605,-31,10,6,5,10,8,-4,-27
1522653507571664,-18,-30,-9,0,-1,1,69,97
1522653507571664,40,-32,-21,-14,-9,-2,2,-17
1522653507571664,-65,37,16,10,-3,-15,-72,-88
1522653507571664,-42,-12,-6,-6,-5,4,70,8
1522653507585701,31,39,10,-1,-3,-13,-46,-53
1522653507585701,-5,-28,-11,-5,1,7,61,84
1522653507586704,46,8,1,5,-7,3,52,64
1522653507586704,-37,17,3,4,-7,-10,-44,-44
1522653507608762,127,-13,1,2,-1,-2,41,83
1522653507608762,71,74,37,16,12,9,56,108
1522653507609765,-2,-35,-12,-6,-4,-9,-37,-20
1522653507609765,42,-8,-8,-4,-4,-1,-16,3
1522653507630821,-57,-3,2,2,0,8,36,-2
1522653507630821,-52,18,0,-2,-5,-12,-26,-117
1522653507631824,-48,14,4,2,-5,-2,-26,15
1522653507631824,75,14,-7,-4,-6,-8,-12,-52
1522653507644858,-72,-17,-13,-4,-11,-11,1,-45
1522653507644858,-89,-49,-24,-2,-12,-9,3,42
1522653507652879,77,10,3,4,-6,-7,-33,-50
1522653507652879,39,14,6,3,-4,-5,-9,30
1522653507668922,15,9,8,4,-4,3,-27,-72
1522653507668922,52,-17,10,14,0,-2,-43,-128
1522653507669925,-128,-89,-61,-31,-23,-12,37,77
1522653507669925,-10,55,50,35,14,6,-10,-40
1522653507690981,58,19,7,-2,1,5,7,66
1522653507690981,-87,6,1,-3,3,6,6,29
1522653507691984,116,45,9,-3,6,-3,-66,-77
1522653507691984,-62,-45,-14,-13,6,13,36,-18
1522653507705018,47,15,-6,-7,-2,0,26,91
1522653507705018,-23,-10,-4,-4,4,8,8,-107
1522653507713039,7,47,35,16,19,11,-34,-128
1522653507713039,56,22,-5,-24,-9,-8,-6,63
1522653507728079,-94,-22,-11,-11,10,3,-14,-118
1522653507728079,-30,25,4,-13,3,6,45,127
1522653507729082,53,-43,-3,3,9,7,1,-42
1522653507729082,31,2,-9,0,2,-1,-9,65
1522653507751141,71,-9,0,3,2,3,5,-94
1522653507751141,81,-9,-11,-5,2,4,13,-22
1522653507752144,-94,1,0,1,8,2,-9,41
1522653507752144,55,8,-5,-4,0,-4,-8,-52
1522653507774202,-28,-7,-5,0,3,6,13,57
1522653507774202,-36,4,-3,-1,-2,-2,-17,-128
1522653507774202,3,17,10,1,-4,0,-13,-53
1522653507774202,78,9,2,4,-4,-1,0,54
1522653507788239,20,17,2,2,-3,2,3,-8
1522653507788239,112,15,1,2,0,0,-3,-70
1522653507789242,89,22,17,19,8,4,-25,-105
1522653507789242,-120,-14,-2,3,0,2,21,87
1522653507811301,-18,-8,9,10,11,6,10,-23
1522653507811301,-30,20,12,7,6,7,24,65
1522653507812303,12,-22,-29,-17,-14,-19,-46,-117
1522653507812303,-46,3,8,8,6,6,-4,-110
1522653507825338,13,5,4,7,13,12,44,89
1522653507825338,60,-18,-3,-8,-2,-3,-12,-24
1522653507833360,-80,-11,-4,0,1,-1,0,75
1522653507833360,36,5,12,2,-3,0,-7,-81
1522653507848399,-48,-10,-4,-8,-5,-6,-7,-61
1522653507848399,-21,17,13,9,3,3,9,-127
1522653507848399,61,22,-1,3,3,5,41,92
1522653507848399,-34,-8,-5,7,0,-2,4,-34
1522653507871461,-43,-18,0,7,0,-2,-45,-105
1522653507871461,91,22,9,8,1,3,20,54
1522653507872463,-128,-3,5,6,-5,0,-16,-16
1522653507872463,-16,-18,-5,2,-5,2,13,33
1522653507884495,-50,4,3,7,-6,-10,-62,-81
1522653507884495,-39,-36,-31,-19,-18,-13,-17,-14
1522653507893519,77,13,3,4,-6,-1,9,2
1522653507893519,32,25,4,6,-5,-2,1,14
1522653507908560,17,6,-2,0,-7,3,-2,-59
1522653507908560,-77,-31,-4,1,1,14,22,126
1522653507908560,100,68,26,2,3,3,-33,-8
1522653507908560,32,-17,-17,-13,-10,0,-6,-53
1522653507931621,-15,-11,-10,-10,-4,9,22,-5
1522653507931621,0,4,4,5,-3,3,18,0
1522653507931621,-5,7,2,4,3,10,27,-12
1522653507931621,-9,4,-1,1,1,-4,-49,-41
1522653507953680,-62,-40,-10,-9,2,7,24,125
1522653507953680,127,12,-3,-1,-1,0,-36,-31
1522653507954683,-74,-27,-10,-1,-11,-11,5,38
1522653507954683,73,-8,-8,0,-7,-13,-118,-123
1522653507967717,60,39,19,11,6,20,122,127
1522653507967717,-28,-29,-18,-1,-15,-16,-51,-79
1522653507968720,-54,-5,2,8,-1,-5,-11,-82
1522653507968720,8,-20,-7,-9,-4,-6,10,25
1522653507990778,112,34,8,-3,-2,-7,-54,-34
1522653507990778,-47,17,19,8,11,0,14,0
1522653507991781,-13,-53,-25,-20,-12,-19,21,50
1522653507991781,-24,23,3,-12,-2,-12,-1,61
1522653508013839,-11,-3,0,-7,6,-11,-20,10
1522653508013839,50,-3,1,-12,5,-8,-14,17
1522653508014842,-21,-40,-19,-19,0,-4,21,54
1522653508014842,55,-8,0,-6,6,1,101,102
1522653508027877,4,-15,-15,-10,-11,-16,-31,45
1522653508027877,35,17,10,2,3,1,-13,-56
1522653508036901,-37,-17,-5,-1,2,10,52,86
1522653508036901,17,-4,-7,-7,-5,-2,-15,-18
1522653508050938,-79,-45,-23,-16,-13,-13,39,-8
1522653508050938,-65,3,4,8,6,-7,-70,-55
1522653508051941,-25,38,15,2,7,13,25,-32
1522653508051941,-61,-10,1,0,2,-2,21,-16
1522653508074001,-17,-24,-17,-9,-6,-12,-23,-35
1522653508074001,-128,-30,-15,-7,-5,-11,-51,-124
1522653508075002,67,35,7,-4,-2,2,33,51
1522653508075002,53,-9,3,2,10,16,104,102
1522653508088037,5,31,10,4,3,-4,-44,-86
1522653508088037,53,16,-3,-6,-5,4,22,77
1522653508089040,-25,-51,-17,-3,0,2,51,9
1522653508089040,58,6,0,2,-3,-6,-26,-13
1522653508111098,10,-7,6,-3,-2,-2,38,80
1522653508111098,-48,-13,1,11,8,4,-2,-74
1522653508112101,106,-15,-12,-3,-14,-7,24,63
1522653508112101,-27,15,4,5,-4,0,-13,-58
1522653508134159,-62,3,13,12,5,-7,-49,-57
1522653508134159,93,-21,-18,-19,-11,-1,50,127
1522653508134159,-9,-6,11,14,4,-10,-62,-83
1522653508134159,-10,-10,-3,1,-2,-3,-5,13
1522653508148197,84,44,15,7,-5,-6,-5,0
1522653508148197,127,39,29,11,10,2,-21,-87
1522653508149200,-105,18,5,3,3,4,23,-2
1522653508149200,69,-49,-27,-14,-10,-13,-15,5
1522653508171258,21,33,15,11,14,15,9,-36
1522653508171258,-34,3,-3,-12,-11,-10,39,127
1522653508172261,-45,-22,-4,7,3,-5,-73,-128
1522653508172261,-24,40,22,4,-3,-3,-8,83
1522653508193317,98,28,12,7,9,9,19,-78
1522653508193317,-6,-28,-11,1,-2,-4,-63,-104
1522653508194320,102,32,23,14,6,8,19,-66
1522653508194320,43,1,-7,10,-2,4,12,-10
1522653508208357,-97,-3,-5,2,-8,-7,-27,-12
1522653508208357,-126,-38,-14,-1,-12,-1,28,106
1522653508209359,17,7,-4,2,-17,-14,-51,-13
1522653508209359,73,-9,-1,5,1,10,9,12
1522653508231418,0,-82,-37,-26,-30,-26,-47,49
1522653508231418,72,0,-13,-8,-7,-2,30,15
1522653508232421,-36,-17,-9,0,-7,-3,-15,6
1522653508232421,2,19,-3,-9,-2,-2,-3,-74
1522653508253477,-114,-25,-8,-11,4,6,8,-63
1522653508253477,110,-7,-11,-17,-1,3,43,112
1522653508254480,-48,-15,0,-13,1,1,-4,69
1522653508254480,-1,44,24,2,16,13,-10,-128
1522653508268517,76,6,-1,-3,15,23,73,93
1522653508268517,-3,2,-1,-2,4,1,-10,-20
1522653508268517,-1,41,21,5,16,17,9,-7
1522653508268517,-128,-33,0,-1,10,3,-10,-98
1522653508291578,105,-21,-18,-16,0,4,7,30
1522653508291578,-65,10,-12,-8,-2,-1,33,122
1522653508292581,127,-12,0,-3,2,3,2,57
1522653508292581,-128,-42,-12,-7,-4,-3,-5,109
1522653508313637,-16,14,4,5,-1,-2,0,13
1522653508313637,-80,25,11,6,0,1,-18,-128
1522653508314640,0,6,7,9,3,-1,-32,-128
1522653508314640,-37,6,1,6,5,1,0,57
1522653508327674,-67,23,18,8,11,9,12,-36
1522653508327674,19,-20,-9,-5,-1,-2,-10,9
1522653508328677,-89,-8,-17,-10,-10,-5,-12,-11
1522653508328677,21,0,1,3,-4,0,2,41
1522653508351738,14,9,5,5,-1,0,-1,-15
1522653508351738,-9,7,9,5,8,6,4,-64
1522653508351738,6,-1,0,-4,7,1,-35,-95
1522653508351738,-13,-23,-18,-6,-2,-4,-4,3
1522653508373797,-64,18,5,-1,-2,-1,-15,-111
1522653508373797,50,-20,10,13,12,13,29,63
1522653508374800,-2,9,-12,-1,-3,-3,-3,-29
1522653508374800,-1,12,9,6,-2,1,7,64
1522653508387834,-28,45,1,-4,-8,-2,-7,-41
1522653508387834,-63,-32,-8,0,-4,-1,4,33
1522653508388837,82,1,-4,2,-6,0,1,24
1522653508388837,-39,-6,9,11,4,-1,-33,-128
1522653508410895,-43,-13,-2,-6,-5,-2,18,127
1522653508410895,83,42,-4,-7,-8,-9,-3,27
1522653508411898,87,-35,-10,3,-1,-5,-12,-21
1522653508411898,96,6,-3,-1,-4,0,11,114
