timestamp,emg1,emg2,emg3,emg4,emg5,emg6,emg7,emg8
1522653372534524,9,-1,4,7,4,-2,-11,-11
1522653372534524,-18,-2,-2,7,-22,-4,16,-13
1522653372535522,-1,2,2,9,31,10,-3,5
1522653372535522,-1,5,-3,-20,-23,-15,-21,9
1522653372539533,7,5,1,12,-18,11,18,-1
1522653372539533,9,-7,-7,3,50,1,-33,-11
1522653372539533,2,5,-5,-19,-33,-7,15,1
1522653372539533,1,8,5,6,28,8,-1,-2
1522653372546551,-10,-10,-1,1,-4,-17,-33,-5
1522653372546551,24,5,4,7,-56,0,24,-8
1522653372555576,-21,6,-1,9,51,10,6,12
1522653372555576,-11,-21,-11,-21,-15,-4,-6,8
1522653372560589,-2,-3,-2,-9,-1,-11,5,-6
1522653372560589,19,24,6,18,-4,2,-1,-5
1522653372575629,-1,-3,0,-12,-1,0,-10,2
1522653372575629,-1,-1,-3,-6,-11,5,6,8
1522653372584653,-12,-16,-5,11,3,0,-9,-7
1522653372584653,-16,-9,-6,-16,-28,-17,6,3
1522653372600702,14,7,1,5,2,-3,-5,5
1522653372600702,-17,-10,-3,-15,31,9,11,-3
1522653372606712,29,8,2,2,-5,6,-6,4
1522653372606712,-9,-3,5,20,28,5,9,0
1522653372620748,-2,2,-2,-13,-31,-14,-12,-3
1522653372620748,-13,-14,-1,4,6,-8,1,-2
1522653372661858,-1,2,0,-8,12,1,10,7
1522653372661858,-8,-4,-1,-10,-1,6,7,17
1522653372662861,-4,-8,-2,-5,-17,-5,-12,-10
1522653372662861,2,2,3,14,9,-9,-14,-9
1522653372666871,2,6,-1,0,-11,-6,6,4
1522653372666871,4,-3,2,-7,-2,4,0,3
1522653372667874,-9,-4,-7,-6,7,6,-15,-4
1522653372667874,-3,-9,-2,2,11,14,33,-5
1522653372672887,-13,-9,0,13,1,-9,-15,-5
1522653372672887,9,12,-2,-13,-23,-20,-12,2
1522653372680908,2,-3,1,9,42,9,-9,5
1522653372680908,5,-11,-8,1,-32,-9,13,-9
1522653372689933,-1,2,3,-4,-21,-9,-31,4
1522653372689933,-17,-11,-3,-1,32,21,40,2
1522653372702967,6,-7,-3,-8,-34,-31,-16,-5
1522653372702967,-7,18,3,19,11,21,5,-8
1522653372711992,1,-10,-3,-8,-21,-7,-12,-2
1522653372711992,-14,-13,-7,-15,12,-17,-30,2
1522653372734050,0,4,1,0,-5,10,31,-3
1522653372734050,5,-1,1,2,-21,-21,-15,-4
1522653372736056,3,2,0,8,43,9,4,1
1522653372736056,1,5,2,-7,-17,-24,-28,-3
1522653372748087,-9,-13,-8,2,7,25,33,1
1522653372748087,-1,-4,-5,-8,-22,-7,-9,-5
1522653372757112,1,5,2,-3,17,14,22,5
1522653372757112,-3,-6,-1,0,8,0,3,3
1522653372772151,2,2,1,8,-10,-14,-15,0
1522653372772151,3,6,5,-4,4,7,5,3
1522653372773154,-2,1,-5,-15,-22,-1,11,-3
1522653372773154,3,-1,1,10,7,-2,1,6
1522653372794211,2,7,2,0,19,-7,-22,-3
1522653372794211,2,-1,2,17,37,14,-22,1
1522653372796215,-6,-5,-4,-6,-10,-3,18,-5
1522653372796215,-3,-5,-1,-3,-3,6,2,2
1522653372808247,1,-6,-2,-7,-49,-20,-7,-2
1522653372808247,9,16,3,4,25,-2,-42,-5
1522653372817271,1,3,3,7,-9,13,41,10
1522653372817271,-3,2,0,1,22,9,-4,3
1522653372832312,0,-6,-7,-2,-8,3,5,-6
1522653372832312,-6,-11,-6,-6,-15,-11,-10,-8
1522653372833314,-4,0,3,8,6,-8,-15,0
1522653372833314,-3,-6,-6,-14,-25,3,5,-2
1522653372854370,10,17,7,-5,13,8,35,-1
1522653372854370,-7,-6,-5,-6,-16,-8,-32,-4
1522653372856376,-2,-2,0,4,14,-1,1,-1
1522653372856376,2,-1,-3,-1,-10,1,-2,-2
1522653372868407,2,4,3,4,26,9,0,-4
1522653372868407,5,6,4,4,-25,-10,31,8
1522653372877431,-1,2,1,-1,11,6,-12,-1
1522653372877431,-2,1,2,0,4,-1,-26,-3
1522653372891468,-5,-15,-1,-1,-21,5,12,4
1522653372891468,16,7,0,2,-5,3,5,1
1522653372893474,-15,5,-1,-3,4,-6,-7,0
1522653372893474,5,6,2,-5,-21,-6,-13,6
1522653372914532,-1,-1,0,8,23,7,15,-2
1522653372914532,-4,-11,-4,-5,4,-1,27,0
1522653372915533,5,-3,-4,-11,-5,-7,-26,1
1522653372915533,-1,8,-1,1,-6,-8,3,-6
1522653372927564,0,-6,-3,0,-16,-1,-6,2
1522653372927564,-2,1,5,11,32,6,-2,0
1522653372936589,4,12,-3,-6,-18,-4,8,2
1522653372936589,0,5,0,4,21,13,10,-1
1522653372951629,1,-1,-1,-5,-36,-20,-15,-4
1522653372951629,-4,-4,-3,-2,23,2,-15,1
1522653372953634,-3,-8,-2,-9,-25,-7,-8,0
1522653372953634,-2,-2,-3,-11,-2,-2,-5,-1
1522653372974690,-3,-2,-3,1,22,3,15,-1
1522653372974690,3,4,2,0,-24,0,2,1
1522653372975693,2,4,2,-2,20,10,12,4
1522653372975693,2,-10,-4,7,6,0,7,-1
1522653372987724,-9,7,4,-5,-24,-17,-20,-5
1522653372987724,4,-15,-2,-5,13,9,13,3
1522653372996749,1,11,3,3,0,-1,-23,4
1522653372996749,-6,-12,-3,-1,18,5,11,-8
1522653373011788,10,12,-1,-8,-10,-6,-8,-3
1522653373011788,-13,-6,-1,0,-4,6,34,-2
1522653373013794,4,-2,-3,-12,-28,-21,-51,-4
1522653373013794,-4,-8,4,14,13,10,35,2
1522653373033847,0,-7,-5,-6,25,5,-5,0
1522653373033847,-6,1,1,-1,-1,0,-10,-3
1522653373035853,2,-8,-1,-4,-21,-1,9,-2
1522653373035853,6,9,3,15,-3,-12,-29,0
1522653373047884,-8,-11,-5,-3,16,12,18,-2
1522653373047884,11,5,-5,-8,-12,-12,-27,1
1522653373056909,-19,-19,-4,1,2,14,30,-3
1522653373056909,-2,16,5,0,-27,-5,7,-1
1522653373071949,7,3,3,15,26,7,-14,-3
1522653373071949,-4,-6,-10,-21,-24,-6,-20,0
1522653373073955,0,3,4,5,20,2,19,3
1522653373073955,1,-15,-7,-8,-1,3,13,2
1522653373094007,2,28,10,9,-13,-7,-22,-4
1522653373094007,0,-13,-6,-1,14,-2,-22,1
1522653373096013,-1,-2,2,3,14,0,21,-7
1522653373096013,2,-4,-4,-4,-2,3,-5,-3
1522653373108044,2,5,2,-1,-5,10,6,2
1522653373108044,-9,-13,1,5,-6,-14,-5,-8
1522653373117069,11,8,-1,-4,4,6,-12,2
1522653373117069,-5,-6,1,-1,0,-3,2,0
1522653373132109,-10,-11,-2,9,0,-9,-14,2
1522653373132109,-1,14,1,-6,-21,-7,3,-2
1522653373133112,-4,-23,-14,-3,34,9,27,6
1522653373133112,12,18,5,-1,-17,0,-4,1
1522653373154167,-8,-11,-3,-4,-24,-4,11,0
1522653373154167,6,8,0,-2,30,7,8,7
1522653373156173,-6,3,4,6,15,-4,-11,-6
1522653373156173,2,-13,-6,2,19,-11,-16,-3
1522653373168205,1,5,2,5,-3,8,24,1
1522653373168205,-4,-12,-9,-19,-27,7,18,-3
1522653373177229,14,25,11,0,-45,-14,-8,4
1522653373177229,-8,-5,-5,-7,25,-5,-6,0
1522653373191266,-1,-4,0,0,14,23,39,3
1522653373191266,-6,2,4,14,-5,1,-7,-1
1522653373198285,12,-7,-4,-11,9,-3,-4,0
1522653373198285,-16,6,1,10,-13,-3,-11,-7
1522653373214327,13,12,8,6,-23,-15,-38,1
1522653373214327,0,3,-4,4,54,18,9,-2
1522653373216333,-3,-18,-5,-1,-28,-6,-3,-6
1522653373216333,-3,5,-3,-6,-18,-10,23,-3
1522653373228364,-6,-19,-11,2,12,4,-2,0
1522653373228364,7,-1,-4,-20,-21,-2,-17,-2
1522653373237389,-11,8,6,5,8,2,-5,-1
1522653373237389,36,31,5,2,-4,-1,-7,-7
1522653373251426,-16,-8,-5,-15,-11,-9,-6,-7
1522653373251426,-5,0,6,10,-13,-12,-11,1
1522653373258445,-6,0,-6,3,34,18,16,5
1522653373258445,-8,-10,-4,-9,-3,12,18,-16
1522653373274488,-1,-10,2,9,3,-8,-10,-4
1522653373274488,13,9,2,-2,1,-3,12,4
1522653373275490,-7,-3,-5,-11,-31,-15,-15,-4
1522653373275490,4,0,5,5,19,17,-9,1
1522653373296546,7,0,-2,23,21,-9,-14,1
1522653373296546,-7,0,2,-18,-1,5,16,-1
1522653373298551,4,7,3,1,-19,-3,-1,-3
1522653373298551,-12,-10,-9,2,-6,-10,-7,0
1522653373311586,7,-5,-4,-20,-26,-9,-4,1
1522653373311586,3,2,4,16,35,12,13,7
1522653373317602,-10,-6,-1,-5,-23,-1,-4,-1
1522653373317602,-4,-15,-1,3,19,0,16,-2
1522653373334647,-1,9,1,-2,1,-16,-27,-7
1522653373334647,-3,-1,0,12,-31,2,34,2
1522653373335650,-5,-10,-9,-10,36,6,-12,-6
1522653373335650,1,11,7,10,-30,-13,-6,0
1522653373356706,3,5,-3,-18,37,17,19,1
1522653373356706,7,-1,1,2,-13,-16,-25,-3
1522653373358711,0,4,0,9,13,5,8,0
1522653373358711,1,-6,-5,-18,-11,-7,-4,1
1522653373370743,-2,-6,2,13,-37,-10,-5,-6
1522653373370743,-7,9,0,-11,21,3,-14,0
1522653373379767,-8,-14,-6,2,6,11,18,3
1522653373379767,8,-5,-7,-6,-19,0,-2,-1
1522653373394808,25,11,1,3,15,3,-2,2
1522653373394808,-24,-13,-6,-11,-54,-13,-9,-4
1522653373395811,-7,-5,0,12,35,-5,-3,0
1522653373395811,6,0,1,2,-16,-2,-3,-6
1522653373416866,-18,-12,-4,-6,-8,5,1,0
1522653373416866,14,19,8,10,14,-10,-15,-5
1522653373418871,-5,-11,-7,-9,5,-4,0,-4
1522653373418871,-9,-3,3,13,-3,6,-8,-9
1522653373430903,-1,-4,-2,-10,-10,2,23,0
1522653373430903,-4,-9,-3,-2,17,-7,-29,2
1522653373437922,-8,-2,-1,-7,-47,-1,-6,-4
1522653373437922,6,13,3,10,39,7,22,1
1522653373453964,4,-2,-3,-2,-13,-4,-10,-2
1522653373453964,15,1,0,10,31,1,7,2
1522653373455970,-5,10,-1,-23,-18,-1,-7,-1
1522653373455970,-5,-7,-4,2,-2,-1,-10,-4
1522653373477026,-10,-4,-3,-7,-3,-4,6,-5
1522653373477026,6,10,4,4,0,4,7,1
1522653373478029,10,-11,-4,4,-8,-12,-12,-1
1522653373478029,-4,10,0,-12,7,0,-5,-2
1522653373491063,-2,6,1,5,14,19,32,3
1522653373491063,-9,-17,-9,-5,-26,-4,-3,-6
1522653373498083,5,0,2,5,7,-12,-12,1
1522653373498083,-5,-5,0,-2,3,8,13,2
1522653373514126,1,-16,-4,7,3,-11,-16,0
1522653373514126,3,35,14,7,15,21,35,-2
1522653373516151,-1,-2,1,0,2,8,19,-4
1522653373516151,-6,-13,-3,-1,-7,-1,-9,3
1522653373537187,5,14,4,0,0,-6,-1,-2
1522653373537187,-6,-14,-5,-6,-18,-4,-10,-3
1522653373538189,-2,8,1,3,19,-1,-18,5
1522653373538189,10,-5,-3,6,7,7,37,1
1522653373551229,-16,1,1,-3,1,3,-21,-12
1522653373551229,-4,-12,-3,1,-16,-5,6,8
1522653373559245,5,0,-1,-5,-7,-10,-10,0
1522653373559245,0,4,5,13,5,-6,-17,-2
1522653373574284,2,-5,-3,-6,-11,-1,-1,6
1522653373574284,-3,-6,-7,-5,38,2,13,5
1522653373576290,4,-3,1,7,5,5,3,3
1522653373576290,-2,9,-1,-9,-16,-1,2,-7
1522653373596343,7,13,2,-1,-19,-10,6,-7
1522653373596343,-5,-4,-4,6,24,0,-16,-2
1522653373598349,4,-8,-2,4,-5,1,9,3
1522653373598349,0,5,0,-8,-3,-1,-26,0
1522653373610380,-8,-5,-3,4,10,3,17,-3
1522653373610380,-11,-10,-2,-7,-39,-4,-13,0
1522653373619405,9,11,4,5,13,-5,-9,-1
1522653373619405,-4,-22,-11,-18,-43,-22,-9,-5
1522653373633442,-2,13,6,2,20,16,-5,1
1522653373633442,-1,-25,-8,-4,3,-4,22,4
1522653373642466,2,23,7,-1,7,-2,-18,-7
1522653373642466,-1,-6,-1,6,-5,1,15,0
1522653373656503,-2,-12,-5,2,4,-9,-22,-1
1522653373656503,-4,1,3,-2,6,5,-4,0
1522653373658508,14,1,1,3,-14,-8,0,-1
1522653373658508,-17,3,4,-3,2,-7,4,-3
1522653373679565,3,-3,-2,-3,-19,8,14,-6
1522653373679565,5,3,2,4,20,9,1,-1
1522653373680567,-17,-10,-3,-9,-15,-8,-10,-10
1522653373680567,10,1,-3,5,-19,-7,-5,2
1522653373692599,-6,-2,0,2,30,9,20,7
1522653373692599,-1,8,-5,-6,-29,-20,-24,-12
1522653373701623,4,2,-1,-6,-2,13,9,9
1522653373701623,-6,-4,2,10,11,6,9,-10
1522653373716663,2,-1,0,1,5,-10,-17,1
1522653373716663,-1,-4,-1,2,-9,-5,23,3
1522653373722679,-6,-3,-5,0,2,-4,-14,-1
1522653373722679,1,-4,-2,-11,3,17,26,3
1522653373739725,15,25,9,-1,-9,2,-10,3
1522653373739725,-7,-11,-4,-7,-5,-7,-4,-7
1522653373740727,-1,2,-1,-3,-23,-6,-13,1
1522653373740727,-4,-10,-2,2,14,-2,5,-5
1522653373761783,-7,-10,-5,4,18,8,3,1
1522653373761783,7,16,3,-9,-14,1,9,-1
1522653373763789,-9,-10,-5,4,21,6,-5,3
1522653373763789,14,10,0,-3,8,-9,-45,-2
1522653373775820,-3,-5,-2,-3,-15,-7,27,-1
1522653373775820,-5,4,4,15,2,7,11,7
1522653373782839,12,-8,-10,-27,-11,0,0,6
1522653373782839,-2,10,5,-6,1,-8,-23,-5
1522653373798882,0,-16,-8,2,-13,7,0,3
1522653373798882,-8,1,-2,-7,4,-2,-6,0
1522653373800887,3,0,1,-3,-17,-5,21,2
1522653373800887,-6,-4,-2,7,7,7,6,3
1522653373821943,10,12,-1,2,27,-11,-23,-11
1522653373821943,-8,-9,-1,1,-20,7,-14,2
1522653373823949,8,14,4,3,5,1,21,-2
1522653373823949,2,-4,-1,2,1,-11,7,1
1522653373835981,1,-17,-7,7,9,10,15,5
1522653373835981,0,24,6,-4,-1,4,-6,-3
1522653373842999,-10,-9,-3,-1,-10,-8,-20,-9
1522653373842999,1,-2,-1,10,-2,9,9,4
1522653373859042,0,-4,0,-1,3,-22,-25,-3
1522653373859042,2,-3,-3,-2,13,12,15,-4
1522653373861047,2,-1,2,-8,-12,6,8,2
1522653373861047,-11,-6,-2,-2,-30,-12,-19,-4
1522653373882103,1,6,3,13,22,20,24,-8
1522653373882103,5,3,-3,-1,-14,-13,-6,0
1522653373883106,7,-7,0,20,34,6,3,-5
1522653373883106,-12,-3,-6,-11,-10,-2,0,2
1522653373896140,-5,4,5,-6,-17,-1,-14,-1
1522653373896140,-4,-4,-3,0,-8,-18,-9,0
1522653373903159,-8,-6,-5,-14,6,25,25,3
1522653373903159,20,13,2,2,7,-1,-7,-6
1522653373919202,2,3,-1,-6,-15,-8,-7,3
1522653373919202,-9,-9,2,2,5,-3,9,3
1522653373921207,-5,-9,-4,-5,6,0,-15,-4
1522653373921207,-6,-10,1,13,25,13,23,3
1522653373942263,12,24,3,-14,-18,-10,-5,-1
1522653373942263,4,-5,-4,-1,17,-6,-9,-3
1522653373943266,-18,-10,-4,-13,-43,-15,-11,-1
1522653373943266,-1,6,3,12,54,17,0,0
1522653373956301,-7,-12,-2,-2,-13,7,18,-1
1522653373956301,5,2,0,2,8,-5,-11,4
1522653373963319,3,5,3,6,-16,-17,-9,-2
1522653373963319,0,-7,-7,-4,-6,5,10,-8
1522653373979362,-7,-7,-4,-5,-4,-8,-12,2
1522653373979362,2,-1,3,2,10,3,0,-1
1522653373981367,-1,-5,-6,-6,0,-13,5,-5
1522653373981367,0,1,-2,3,-5,-1,-14,1
1522653374001421,-4,-6,-3,9,-1,-9,6,2
1522653374001421,21,1,2,-11,-10,15,7,0
1522653374003427,-21,2,2,1,-14,-9,5,-2
1522653374003427,4,-6,0,-4,4,-9,-23,-6
1522653374015458,-10,3,2,7,16,-1,-5,0
1522653374015458,3,2,-4,10,-21,-10,-12,-3
1522653374024482,3,1,2,-3,18,8,-1,1
1522653374024482,2,1,-2,-10,-29,-5,9,-2
1522653374039522,1,-2,-5,-12,-30,-18,-23,-4
1522653374039522,-19,-17,-2,8,43,9,18,11
1522653374040525,19,20,4,6,8,2,-30,-7
1522653374040525,-3,-4,0,0,2,10,52,4
1522653374061580,2,-1,-2,3,-25,-9,-40,-10
1522653374061580,-7,-5,-8,-26,7,-10,-13,0
1522653374063586,-2,-1,1,-4,-18,1,12,0
1522653374063586,5,6,4,5,2,-7,-3,0
1522653374075618,-5,-4,1,8,27,6,-8,-4
1522653374075618,-1,1,-1,-11,-18,7,17,1
1522653374084642,-1,-7,1,15,33,1,-5,1
1522653374084642,4,10,4,-3,-23,-6,-19,-3
1522653374099682,-3,-3,-5,-11,-12,0,25,-4
1522653374099682,-1,-6,1,-2,7,-9,6,4
1522653374100685,-3,2,0,2,22,11,-18,3
1522653374100685,-6,1,1,4,-10,3,15,-5
1522653374121740,4,-3,-3,1,16,3,3,3
1522653374121740,-6,9,3,0,-17,1,3,5
1522653374123746,1,-5,-3,0,-13,-10,-5,-5
1522653374123746,1,4,0,1,-6,-7,-12,3
1522653374135778,-9,-2,2,3,18,7,-1,-1
1522653374135778,5,2,0,0,-11,0,-8,5
1522653374144802,-4,-11,-3,5,-8,1,24,-2
1522653374144802,-4,-5,-5,-9,19,5,-1,-1
1522653374158839,9,8,3,9,-13,-7,-5,4
1522653374158839,-1,-6,-7,-22,-17,-3,-17,0
1522653374160845,-7,5,4,11,1,-6,-4,-2
1522653374160845,0,-3,-2,-9,-1,9,8,-3
1522653374181901,0,-6,0,4,8,3,5,5
1522653374181901,-1,-1,-5,-8,10,4,8,3
1522653374183906,3,-3,1,-3,-7,-2,-6,-1
1522653374183906,-4,-14,-9,-1,-13,-6,-2,-3
1522653374195938,7,14,6,0,-9,-9,5,3
1522653374195938,-7,-1,3,3,11,2,-26,-6
1522653374204962,-4,-5,-5,-4,9,3,32,-3
1522653374204962,5,1,8,21,6,-5,-9,6
1522653374218999,2,-1,-6,-3,26,17,26,-2
1522653374218999,-12,-8,-2,-7,-43,-12,-5,-6
1522653374221004,2,-3,-3,-10,0,-2,3,-5
1522653374221004,-6,-6,1,13,21,-9,-20,-1
1522653374242060,-2,-5,-2,-2,3,18,13,1
1522653374242060,3,4,2,0,-3,5,22,7
1522653374243063,3,2,-1,-6,-21,-4,-17,-1
1522653374243063,-1,0,-3,0,1,-6,4,-7
1522653374255095,-8,-4,3,5,5,-12,-31,3
1522653374255095,2,2,-3,-4,-10,5,31,2
1522653374264119,1,3,3,7,23,7,5,2
1522653374264119,6,0,1,-2,-16,-2,6,-4
1522653374279159,-11,-5,-4,1,-1,-5,-15,-9
1522653374279159,6,-1,1,-6,-16,-10,-14,1
1522653374281164,-2,-2,-7,0,9,-8,-18,-2
1522653374281164,-5,11,3,4,56,31,17,1
1522653374302220,-2,-10,-5,-11,-24,-11,-7,-5
1522653374302220,0,-6,-1,13,24,5,-3,-2
1522653374303223,10,14,1,-10,-25,-2,-5,-3
1522653374303223,-5,-11,-5,-8,-13,-2,3,-4
1522653374315256,-7,6,0,-9,-10,-5,10,-4
1522653374315256,-4,-8,-5,-2,5,-4,-13,-2
1522653374324279,3,16,6,3,-2,-1,-4,-2
1522653374324279,0,-8,-5,1,-7,-4,-10,-2
1522653374339319,5,18,5,-8,-11,-4,-14,2
1522653374339319,1,0,3,0,-25,4,0,-1
1522653374341324,-4,-9,1,14,58,8,2,-4
1522653374341324,-4,-2,-3,-13,-31,-9,-13,-1
1522653374361377,2,-11,-6,-1,-33,-11,6,-3
1522653374361377,-3,5,-4,1,34,7,-2,2
1522653374363383,4,3,6,-3,-10,-3,1,3
1522653374363383,4,10,-2,-1,-2,12,23,-5
1522653374375415,-5,-10,-3,3,-1,-7,16,4
1522653374375415,10,14,3,-1,-3,-2,5,-6
1522653374384439,-9,-13,-6,-3,-18,-2,1,-2
1522653374384439,-3,-2,-5,9,-13,-23,-30,0
1522653374399479,10,16,7,-10,9,8,8,2
1522653374399479,2,-4,-1,6,39,6,-20,-3
1522653374400482,-13,-7,1,9,-7,16,33,-6
1522653374400482,8,4,-2,-9,-9,-5,-7,-1
1522653374421538,-7,-5,-1,3,2,-2,-15,0
1522653374421538,-7,-5,1,1,2,-4,-5,0
1522653374423543,1,11,2,1,-16,-5,-1,-11
1522653374423543,-15,-19,-6,-2,31,0,-24,-5
1522653374435575,3,-3,0,6,-5,5,10,4
1522653374435575,16,28,7,-9,26,-1,11,-1
1522653374444599,-1,-8,-4,1,-15,-2,7,2
1522653374444599,5,-8,-3,5,-4,3,-13,0
1522653374458636,-9,18,8,0,7,5,-4,-2
1522653374458636,-6,-10,-5,5,-4,-4,-6,-2
1522653374465655,-7,1,1,5,13,6,6,-3
1522653374465655,23,13,1,5,4,3,10,8
1522653374481698,-5,-10,-3,-4,-5,0,-5,-2
1522653374481698,-12,-16,-4,-15,-29,-6,5,-2
1522653374483703,15,2,-3,6,16,-1,3,6
1522653374483703,-8,0,0,-5,-9,4,-4,-2
1522653374495735,0,-2,-3,5,24,6,17,2
1522653374495735,2,11,7,8,-24,-11,-2,3
1522653374504759,-12,-21,-12,-15,-1,-5,0,-9
1522653374504759,0,9,8,9,-15,-3,-5,1
1522653374519799,3,-2,-4,-9,4,1,11,4
1522653374519799,-11,-11,-6,-2,-10,-7,-23,-1
1522653374520802,-1,0,-5,-13,-4,-1,6,1
1522653374520802,9,3,-1,8,15,-11,8,5
1522653374541858,-12,6,0,-14,-4,-3,-19,-1
1522653374541858,0,-10,-5,-5,13,14,21,-3
1522653374543863,6,7,5,-3,-37,-9,-14,2
1522653374543863,-5,7,0,-11,3,0,-16,-6
1522653374555895,-2,-13,-7,4,-6,-9,8,6
1522653374555895,-6,3,-2,1,-3,-1,16,3
1522653374564919,2,-2,-2,-11,-21,-6,-28,-1
1522653374564919,2,-1,0,5,15,4,13,0
1522653374578956,-4,-6,1,5,10,-11,-19,-3
1522653374578956,-3,-8,-2,-5,-12,13,-2,3
1522653374580962,31,34,12,1,-23,2,21,1
1522653374580962,-29,-16,-3,8,29,7,12,-1
1522653374602017,6,-1,-3,1,-24,-5,-13,-2
1522653374602017,9,10,-1,2,36,-7,-1,-2
1522653374603021,0,2,0,5,3,5,-6,-4
1522653374603021,-2,-7,-1,-7,-22,-8,2,-3
1522653374615053,5,4,-2,-13,-32,-4,4,6
1522653374615053,-8,-10,-2,18,22,-4,0,-3
1522653374624076,5,-4,-1,-8,15,6,4,5
1522653374624076,-8,0,-1,-7,-23,-19,-26,-4
1522653374639117,3,0,0,-5,-13,7,13,-4
1522653374639117,1,3,-2,13,17,2,12,-9
1522653374645132,-2,-11,-3,8,15,-5,5,-6
1522653374645132,-6,-5,-1,-9,-24,5,-9,-3
1522653374662177,6,0,0,-1,8,-13,-11,0
1522653374662177,-1,-4,0,4,-20,-12,-27,-2
1522653374663181,-14,-1,2,2,21,17,32,-9
1522653374663181,9,4,0,-9,-47,-13,-5,-2
1522653374675212,-2,-9,0,11,59,4,-25,-4
1522653374675212,-1,3,2,-8,-27,0,24,-2
1522653374684236,-2,-12,-6,-3,14,-5,-24,-2
1522653374684236,7,18,3,-5,-5,1,8,-3
1522653374698274,-2,-7,-5,0,-8,6,7,1
1522653374698274,-4,-1,-3,-7,9,-6,-8,2
1522653374705293,0,-1,-3,-2,-38,7,-5,-1
1522653374705293,2,-2,4,8,45,2,0,-1
1522653374722337,2,10,1,0,-3,-4,3,-1
1522653374722337,1,3,1,-9,-11,0,-4,3
1522653374723341,-1,-8,0,7,-6,-5,3,-3
1522653374723341,2,-6,-4,0,-7,2,0,5
1522653374744396,-12,3,1,10,-3,-6,-12,-7
1522653374744396,0,-9,-2,2,27,6,4,8
1522653374746402,-9,-1,0,-7,7,2,-2,-2
1522653374746402,7,-2,-4,-4,-16,-9,-14,-4
1522653374766455,-2,-6,-1,-4,-2,2,5,2
1522653374766455,-2,2,1,-5,-11,-8,-10,1
1522653374768460,0,-7,-5,12,16,7,-1,2
1522653374768460,-1,4,4,3,-27,-9,-6,-2
1522653374781495,-1,7,-4,-9,21,4,5,-3
1522653374781495,-1,-2,-6,-12,-28,2,10,3
1522653374783501,-4,-8,-2,4,60,8,-15,0
1522653374783501,-4,-3,-2,5,-10,7,11,2
1522653374804556,9,10,-3,-12,-32,-7,9,-1
1522653374804556,-7,-2,4,6,-3,0,-7,-1
1522653374805559,4,4,1,3,4,4,12,2
1522653374805559,-11,-6,-5,-8,-8,-5,-4,-4
1522653374818594,6,2,1,3,13,6,12,11
1522653374818594,-5,-6,-3,6,27,3,-22,-9
1522653374825612,-2,-7,-6,-11,-31,-8,-8,-2
1522653374825612,8,5,3,3,29,10,5,-1
1522653374841655,-3,-4,2,1,-63,-14,-2,1
1522653374841655,-1,3,1,-6,3,8,23,0
1522653374843661,1,2,-1,11,26,-4,-9,-3
1522653374843661,-5,-11,-9,-5,-16,-6,1,-4
1522653374864716,0,5,1,6,21,9,4,-3
1522653374864716,-3,0,-1,-7,-45,-2,-1,3
1522653374865719,6,10,4,2,20,-11,-22,-3
1522653374865719,-11,-16,-4,-5,-9,8,44,-1
1522653374878753,17,21,3,-3,28,6,-30,-1
1522653374878753,-9,-8,-1,-1,11,-3,7,-2
1522653374885772,1,-4,-3,3,-22,3,9,2
1522653374885772,0,5,1,0,7,-9,-17,-1
1522653374901815,-8,-18,-4,-1,25,8,11,-1
1522653374901815,8,9,2,-5,7,-2,-9,-2
1522653374903821,-3,1,0,1,-20,0,16,1
1522653374903821,7,-1,0,10,-4,-7,-24,2
1522653374923874,-11,-7,-2,-10,0,18,23,0
1522653374923874,-3,-4,-1,-4,6,-2,6,-2
1522653374925879,-3,1,1,0,-32,-14,-30,-10
1522653374925879,1,-7,-4,-6,22,8,-3,0
1522653374938913,1,0,1,17,14,-2,-8,0
1522653374938913,3,7,0,-6,8,6,2,4
1522653374944929,3,9,3,-5,-33,-3,-3,2
1522653374944929,-3,-1,2,-2,20,0,2,1
1522653374961975,-6,-21,-10,-13,-41,-8,0,-7
1522653374961975,2,-1,1,6,30,8,10,3
1522653374962978,5,-10,-8,-8,1,-4,8,1
1522653374962978,-8,25,10,10,5,13,12,-5
1522653374984034,-6,-8,0,-2,-22,-9,-15,1
1522653374984034,0,-9,-6,-17,-23,-11,-11,5
1522653374986039,1,-8,-2,8,17,11,19,-3
1522653374986039,9,9,0,7,19,3,-7,3
1522653374998071,1,1,-2,1,0,-2,0,-6
1522653374998071,2,1,-2,1,-22,-3,6,3
1522653375007095,-10,-1,3,4,9,-8,-18,-5
1522653375007095,4,2,-3,-6,-12,9,19,1
1522653375022135,-1,1,0,2,0,-2,-19,1
1522653375022135,2,4,2,1,41,14,28,-1
1522653375023138,-14,-12,-5,2,-6,-7,-27,-15
1522653375023138,-2,-2,-3,8,-3,-2,14,-1
1522653375044193,7,5,0,-14,-28,-11,-5,4
1522653375044193,0,8,0,2,9,-3,-25,-5
1522653375046199,4,-7,-6,-2,19,4,4,-2
1522653375046199,-5,7,5,-1,-5,-4,0,-4
1522653375058231,2,-2,2,9,12,5,9,2
1522653375058231,-1,-2,-1,6,-14,-5,-43,-5
1522653375067255,-4,-1,0,-4,-1,7,48,5
1522653375067255,14,-3,-2,-6,-3,-4,-12,-3
1522653375082295,-15,-3,-2,1,4,0,2,4
1522653375082295,-4,-2,-2,-3,5,-1,-1,-6
1522653375083298,0,-3,-4,-13,-16,-5,1,0
1522653375083298,5,-3,-1,1,-8,-1,-10,3
1522653375104353,-3,1,0,-6,30,-3,-1,1
1522653375104353,-6,-5,-2,-4,-18,3,12,-3
1522653375106359,-2,0,0,10,8,-5,-13,2
1522653375106359,-3,-6,-6,-22,-27,0,13,2
1522653375118391,2,-2,0,7,32,6,-4,-2
1522653375118391,-4,-16,-4,11,18,-2,1,-1
1522653375127415,5,25,3,-6,-28,-9,-22,-7
1522653375127415,-6,-3,2,1,19,-1,13,-7
1522653375141452,0,1,0,-2,-9,-2,1,4
1522653375141452,6,1,-1,-2,-5,7,3,-1
1522653375143458,1,-5,0,4,-9,-2,2,4
1522653375143458,2,2,1,7,4,-13,-21,3
1522653375164513,-7,0,1,-6,14,0,8,-4
1522653375164513,6,1,-2,-16,-16,10,-3,0
1522653375165516,2,-6,0,11,14,-2,3,-3
1522653375165516,8,-1,0,-6,-1,13,1,0
1522653375177548,-17,-2,-2,-12,-50,-9,11,3
1522653375177548,1,1,1,18,47,-4,-21,6
1522653375186572,9,0,-6,-7,-8,-3,11,-2
1522653375186572,3,12,5,0,-7,-10,-19,1
1522653375201612,4,-2,1,0,9,7,10,0
1522653375201612,-5,-5,-2,-9,-13,-20,-5,0
1522653375203618,-10,-9,-3,7,4,-3,1,-4
1522653375203618,-4,-5,-9,-7,-20,-9,-14,-2
1522653375224673,4,-8,-6,-11,30,6,15,-3
1522653375224673,-2,8,3,5,-29,0,7,-4
1522653375225676,2,0,3,7,16,-2,-8,0
1522653375225676,-2,-1,-3,-3,3,-5,-7,0
1522653375237708,-8,-5,-1,-5,-23,-1,-2,-2
1522653375237708,10,-14,-7,-6,14,-10,-3,-3
1522653375246732,-6,9,6,11,4,11,10,2
1522653375246732,5,4,-1,0,-12,-11,-22,-3
1522653375261772,-11,-11,-6,-6,-14,-3,-7,3
1522653375261772,0,-5,-4,1,24,7,0,-5
1522653375263778,-2,1,-2,-12,-18,4,5,-2
1522653375263778,2,-5,-4,12,-4,-9,-7,-1
1522653375284834,4,4,-1,-5,22,5,1,3
1522653375284834,1,5,-1,-12,-38,-11,-7,0
1522653375285836,0,-5,2,-1,-2,-6,-13,-4
1522653375285836,-17,-7,-2,5,-20,2,22,-4
1522653375297868,15,11,2,12,28,-11,-16,0
1522653375297868,-7,-2,-1,-9,-23,9,7,-1
1522653375306892,1,-1,3,2,-4,-4,-13,-1
1522653375306892,-3,-6,-5,-8,9,12,15,-2
1522653375321932,13,13,5,11,-5,-7,-21,0
1522653375321932,-14,-4,5,12,11,0,2,1
1522653375323938,11,16,2,-6,13,8,-1,-2
1522653375323938,-2,-6,-4,-10,-17,-6,-1,2
1522653375343991,-5,-6,-3,-4,5,-5,-7,-1
1522653375343991,3,-5,0,-3,-11,9,31,3
1522653375345996,-1,5,0,-2,-16,-18,-46,-7
1522653375345996,-4,-4,1,1,-2,3,15,2
1522653375358028,-1,-1,-1,7,21,12,28,2
1522653375358028,1,1,-5,-14,-35,-9,-12,0
1522653375367052,-9,-9,-3,-2,12,-3,18,-2
1522653375367052,6,2,3,4,23,9,-10,-2
1522653375382092,-4,8,1,-5,-21,-7,-3,-4
1522653375382092,1,2,0,12,-19,-3,0,2
1522653375383095,-3,-9,-2,3,26,11,43,1
1522653375383095,4,10,7,6,21,1,-14,0
1522653375404151,-2,-12,-6,-6,0,4,5,1
1522653375404151,1,7,3,-2,-17,-6,-5,-6
1522653375406156,-5,-6,-5,-1,-10,-1,12,-3
1522653375406156,-8,-3,-1,1,10,-1,-18,0
1522653375418188,4,3,1,3,-3,9,18,5
1522653375418188,-1,1,-1,2,11,4,7,-4
1522653375427212,4,-6,-1,-2,-17,-5,-19,4
1522653375427212,-2,-5,-1,-3,13,-9,2,-9
1522653375442252,-5,-3,-1,-3,-45,-9,5,2
1522653375442252,4,1,-2,4,50,8,1,-5
1522653375443255,8,5,-1,2,-8,2,8,-5
1522653375443255,-3,0,1,-8,-18,5,10,4
1522653375464311,0,0,-4,-11,12,-7,-17,-5
1522653375464311,-1,-1,1,1,9,3,-3,-2
1522653375466316,-5,-7,-3,-1,-4,0,-5,0
1522653375466316,-3,-3,-2,-3,0,-7,-4,-4
1522653375478348,-4,-10,-3,-7,-18,-3,4,-3
1522653375478348,-1,-4,0,1,-2,-6,-10,0
1522653375487372,-4,-4,-6,-1,3,5,-1,-3
1522653375487372,-3,1,1,0,-2,2,23,-2
1522653375501409,2,2,3,11,18,-1,-14,7
1522653375501409,0,-3,-2,-6,13,10,-14,1
1522653375503415,0,-5,3,6,-17,-7,-6,-9
1522653375503415,2,-11,-12,-16,-34,-2,-8,6
1522653375524471,-3,9,5,4,17,13,18,4
1522653375524471,3,5,-2,-1,22,-6,-2,-2
1522653375526477,-5,-16,-6,-14,-29,-2,1,3
1522653375526477,-5,-4,0,0,27,-4,-21,-1
1522653375538508,1,-7,-1,-3,-13,4,-9,3
1522653375538508,3,7,1,-3,-15,-7,10,-2
1522653375546529,5,10,6,8,6,2,-11,1
1522653375546529,2,-4,0,4,15,5,17,10
1522653375561569,7,1,-4,-7,-24,-4,-3,-6
1522653375561569,1,25,15,7,21,5,-3,1
1522653375567585,-2,-6,-6,-10,-17,-9,-4,-3
1522653375567585,5,16,4,4,28,3,16,3
1522653375584631,-1,-8,-4,-3,-13,-1,-28,-8
1522653375584631,2,-16,-11,-8,-9,-7,-6,1
1522653375585634,-8,10,0,-5,-14,6,5,1
1522653375585634,8,-1,1,8,20,2,-2,-4
1522653375597665,-7,-3,-4,-12,-13,-3,-5,8
1522653375597665,-5,-4,-3,-6,-20,-10,3,-12
1522653375606689,3,-5,-5,-5,-2,2,-1,0
1522653375606689,-1,5,5,6,10,7,19,-3
1522653375620727,2,-5,-1,9,10,-7,-8,1
1522653375620727,-25,-14,-8,-13,-17,-7,-13,-9
1522653375627745,3,-1,0,1,2,-2,7,2
1522653375627745,2,4,3,14,-12,-6,-23,-3
1522653375644791,4,6,-2,-9,10,4,-17,4
1522653375644791,-10,-12,-2,6,-4,-5,26,-2
1522653375645794,15,11,4,1,2,18,28,0
1522653375645794,-10,-13,-6,-3,4,-9,-20,-4
1522653375666849,2,3,1,2,13,-4,6,2
1522653375666849,-4,-12,-7,-1,-29,0,-3,6
1522653375668855,1,8,3,3,9,-7,-6,0
1522653375668855,-1,4,2,-13,13,14,24,2
1522653375680887,-10,-12,-4,-7,-17,-4,-6,-4
1522653375680887,12,11,4,-8,-23,-1,2,0
1522653375687905,4,-3,-3,14,27,-7,-21,-1
1522653375687905,-6,-14,-7,-8,-32,-8,13,-7
1522653375703948,-18,0,0,-3,13,-1,-3,-7
1522653375703948,10,-1,5,18,5,10,7,-2
1522653375705954,-10,-3,2,-5,6,1,-1,0
1522653375705954,8,-2,2,1,-23,6,7,3
1522653375727010,-15,-9,-3,0,36,-11,-2,2
1522653375727010,-1,0,-1,6,-22,1,0,0
1522653375728012,-4,-2,-5,-11,-4,-5,-4,2
1522653375728012,2,0,-1,2,26,-9,-17,2
1522653375741047,5,6,4,8,-2,-2,-2,-6
1522653375741047,0,0,-4,-17,9,6,15,4
1522653375748065,8,3,6,7,8,2,-14,-1
1522653375748065,-6,-1,-4,-7,-26,-12,5,-8
1522653375764108,4,-7,-2,3,0,10,-5,2
1522653375764108,-4,-8,-5,-2,0,-21,-23,-5
1522653375766114,5,14,3,8,13,4,3,-4
1522653375766114,-8,-7,0,8,3,10,8,3
1522653375787169,11,11,1,-5,-19,-3,8,2
1522653375787169,-11,-16,-8,-10,32,-2,-14,-7
1522653375788172,3,2,1,-2,-15,-7,-18,0
1522653375788172,-6,0,-1,1,-2,-2,5,-2
1522653375801207,1,0,2,6,8,9,4,1
1522653375801207,11,5,0,-6,-28,-11,1,0
1522653375808225,-5,-7,-4,2,9,5,15,0
1522653375808225,0,1,-5,-10,-2,1,-15,-3
1522653375824268,2,2,3,10,23,-2,7,2
1522653375824268,2,-5,-4,-9,-23,-6,-7,-3
1522653375826274,-3,-4,-2,1,-4,-4,-8,-4
1522653375826274,3,1,3,9,9,-7,-10,0
1522653375847329,-4,-1,-3,-14,-25,6,11,-2
1522653375847329,2,-2,-3,1,10,0,-14,-2
1522653375848332,-12,-3,-3,-6,-14,-1,1,-7
1522653375848332,7,14,5,-3,3,-4,8,3
1522653375861366,2,-4,2,1,-15,0,3,4
1522653375861366,-4,4,3,20,18,-2,-9,-2
1522653375868385,10,1,-3,-9,-11,7,3,-4
1522653375868385,-5,-7,-4,-6,4,-9,-27,1
1522653375884428,0,8,2,-1,2,-6,-7,4
1522653375884428,0,2,2,12,-13,4,19,1
1522653375886434,0,0,-1,-5,1,-7,-19,1
1522653375886434,-1,-2,0,6,10,8,0,0
1522653375906487,5,-1,-3,-5,-6,-6,-10,-2
1522653375906487,-4,-1,-1,0,0,-1,10,-3
1522653375908492,-3,-5,1,2,14,5,8,3
1522653375908492,1,3,-4,-2,-1,-2,3,0
1522653375920524,-2,-2,-1,-5,17,10,6,-1
1522653375920524,1,1,2,4,-6,4,0,3
1522653375929548,1,-2,-1,5,-10,-13,10,0
1522653375929548,1,-5,-7,-9,-6,2,6,0
1522653375944588,-10,-1,-2,-4,9,6,10,-7
1522653375944588,-2,-1,-1,-1,-5,-3,-14,1
1522653375945591,6,-5,-2,5,18,15,33,4
1522653375945591,-12,-5,-2,-4,12,-3,-10,3
1522653375966647,3,11,3,-2,-19,-6,-3,5
1522653375966647,6,1,2,1,26,8,-6,-3
1522653375968652,-4,1,1,-5,-23,-9,-12,-6
1522653375968652,-1,-5,-3,3,-12,-7,-7,3
1522653375980684,0,1,-2,-5,-27,-3,10,4
1522653375980684,2,0,2,5,28,1,-15,-1
1522653375989708,2,10,2,12,23,16,27,0
1522653375989708,0,-8,-3,-6,-24,-3,3,-4
1522653376004748,-10,-2,-2,-5,-21,-4,7,-2
1522653376004748,6,0,-5,-2,11,8,5,1
1522653376005751,-4,-3,2,0,-15,-15,-29,-6
1522653376005751,0,0,-1,-2,-7,-1,-2,1
1522653376026807,2,-9,-3,-4,11,-3,2,-4
1522653376026807,-4,-2,-1,-2,0,4,1,-5
1522653376028812,-2,-4,-4,-1,10,3,-16,1
1522653376028812,1,1,2,0,-18,-4,-15,-4
1522653376040844,3,15,5,-3,-14,-8,15,1
1522653376040844,0,-5,-4,-2,9,1,3,-4
1522653376049868,1,0,-1,7,6,3,-5,-5
1522653376049868,-4,2,1,-6,-17,2,0,2
1522653376063905,12,6,-4,-4,0,-10,-21,10
1522653376063905,2,5,3,2,5,12,15,5
1522653376065911,-6,-8,2,0,-10,-5,10,4
1522653376065911,5,12,4,0,14,3,-4,-6
1522653376086967,-3,-6,0,-5,-9,2,-5,1
1522653376086967,6,-6,-3,-1,-3,-5,-2,-2
1522653376088972,0,2,-3,3,19,-1,-6,1
1522653376088972,-2,-2,3,-4,10,4,10,-4
1522653376100001,-1,5,0,-2,-3,3,9,-1
1522653376100001,-5,-1,1,0,-17,1,5,0
1522653376109025,-2,-6,-4,-10,10,-6,-15,-3
1522653376109025,2,-1,-1,7,11,7,6,3
1522653376124065,2,4,1,0,-2,-1,-5,-3
1522653376124065,-6,-14,-5,-4,-10,-9,-19,0
1522653376126071,10,14,2,-4,-6,-4,14,-5
1522653376126071,-3,1,1,3,-1,-2,-1,1
1522653376147127,-7,-19,-7,6,27,11,7,0
1522653376147127,-4,12,3,7,-10,1,3,3
1522653376148129,-5,-7,-4,-9,-34,-1,12,5
1522653376148129,5,-10,0,5,36,0,-8,-5
1522653376160161,-7,-5,-5,-7,-24,-1,-5,-9
1522653376160161,17,17,7,-4,12,-1,9,-2
1522653376169185,-10,-7,-3,0,-10,-2,-28,-6
1522653376169185,-6,-1,-8,-14,-14,0,26,5
1522653376184225,-2,-11,1,10,11,-15,-24,-6
1522653376184225,3,5,-3,-2,-25,14,27,0
1522653376186231,0,-2,-1,5,27,3,4,-1
1522653376186231,-1,-2,-6,-7,-13,-9,-10,0
1522653376207287,-3,0,1,1,7,1,-3,-5
1522653376207287,-3,3,1,3,-22,-11,-22,-1
1522653376208290,-2,-1,4,-2,29,14,34,12
1522653376208290,13,16,4,9,18,4,-5,3
1522653376220321,12,-2,-5,-24,-26,-2,1,1
1522653376220321,-29,-18,-2,11,26,0,-1,-10
1522653376229345,7,14,3,-8,-6,-3,-4,1
1522653376229345,2,6,0,1,-5,-4,-5,5
1522653376244385,-10,-10,-2,4,-4,-6,-1,-9
1522653376244385,11,3,0,-9,6,3,-1,2
1522653376246391,-3,-9,-7,-3,-16,-14,-8,0
1522653376246391,-6,2,0,-3,7,8,6,-2
1522653376266444,-7,-8,-4,4,2,-2,-10,-5
1522653376266444,2,0,-2,-8,-12,-2,9,2
1522653376268449,7,-3,-1,8,-40,-16,-13,3
1522653376268449,-13,-6,0,-8,34,4,-10,3
1522653376280481,17,15,0,-6,-10,-3,-3,6
1522653376280481,-8,-10,-2,2,15,-3,6,-7
1522653376289505,11,12,2,10,10,9,-2,0
1522653376289505,-7,-13,-8,-5,-28,-14,0,0
1522653376304545,5,7,7,12,15,4,4,1
1522653376304545,-6,-7,-5,-5,11,2,8,-1
1522653376305548,-6,-8,-9,-18,-26,-21,-26,-4
1522653376305548,-9,-4,0,8,11,18,30,1
1522653376326604,4,6,0,3,25,12,20,0
1522653376326604,11,-6,-4,-3,-15,-12,-18,-4
1522653376328609,-2,15,9,7,-16,-4,-3,-5
1522653376328609,-1,-9,-6,-2,-10,-9,8,-1
1522653376340641,-1,3,-1,-9,26,8,4,2
1522653376340641,1,-2,3,11,-8,0,-2,-4
1522653376349666,-5,-5,-3,-6,14,2,-3,-2
1522653376349666,8,6,3,0,-13,-9,-22,-2
1522653376364705,-6,-8,-4,-1,6,1,6,-3
1522653376364705,-3,2,-5,-10,-10,3,18,1
1522653376365708,1,-7,-1,9,39,5,4,-5
1522653376365708,-3,0,0,-3,-18,-5,-7,1
1522653376386764,-2,2,1,-4,-25,-22,-16,2
1522653376386764,1,-7,0,16,32,12,7,-3
1522653376388769,-1,-5,-4,-20,-5,8,2,-7
1522653376388769,-3,-3,1,-13,-34,-8,-8,-1
1522653376400801,-1,-5,-4,6,13,-7,2,3
1522653376400801,1,2,-1,-1,-28,-3,12,-7
1522653376409826,0,-3,0,7,11,-1,-1,0
1522653376409826,6,1,1,-1,-7,1,2,0
1522653376423863,-14,-9,-4,-5,0,-6,-11,-2
1522653376423863,14,13,3,4,1,-8,-23,-1
1522653376425868,-8,-6,-3,4,-15,-6,-11,3
1522653376425868,5,6,-1,-7,41,11,17,1
1522653376446924,-3,2,5,8,-11,5,-9,-2
1522653376446924,0,2,1,-1,-8,-11,-10,-3
1522653376448930,-1,3,1,8,21,20,9,4
1522653376448930,3,-3,-8,-1,-35,-16,-16,-4
1522653376460961,-7,-7,-4,-7,19,14,32,4
1522653376460961,1,11,5,1,-1,-2,-20,-7
1522653376469985,-3,-7,-3,-7,-21,-15,-22,0
1522653376469985,-3,5,-6,-11,-4,10,19,3
1522653376484023,0,-7,-5,-8,11,-2,-10,3
1522653376484023,-9,-3,-2,-2,-13,-4,5,-3
1522653376486028,4,8,7,5,0,2,1,1
1522653376486028,0,1,-1,-2,-11,-2,9,5
1522653376507084,-5,-6,-4,3,-10,-7,-28,-3
1522653376507084,4,-3,-6,-11,25,6,17,3
1522653376508087,2,-1,-1,8,10,0,1,-3
1522653376508087,-3,-5,-4,-3,-3,-1,-10,-3
1522653376520119,0,1,3,3,-28,-3,-11,3
1522653376520119,2,-6,-2,2,28,12,-12,-3
1522653376529142,-5,2,-3,-10,-11,4,23,-5
1522653376529142,0,2,5,2,3,-9,-10,2
1522653376544183,-3,-3,-1,-4,-16,-12,-14,-2
1522653376544183,2,4,3,4,-1,10,20,0
1522653376550199,-2,-5,-1,7,-11,-11,-20,-2
1522653376550199,1,9,1,-5,-5,3,-7,0
1522653376567244,-7,-3,-4,-1,51,14,17,-1
1522653376567244,-1,2,-1,6,-4,3,10,4
1522653376568247,0,-9,-2,-5,11,0,-9,-4
1522653376568247,3,14,1,8,-10,-6,-4,-1
1522653376589303,-7,-5,-3,-9,-9,-5,10,-5
1522653376589303,-4,-4,-1,-1,2,10,0,-1
1522653376591308,2,5,-6,-18,-24,-3,1,1
1522653376591308,-8,-11,-6,-4,1,-11,-5,-8
1522653376603340,5,4,2,1,11,6,20,2
1522653376603340,-6,-7,-6,-10,-22,-12,-48,-9
1522653376610359,-1,-3,0,5,7,-2,-5,-4
1522653376610359,-5,-9,-1,1,-8,1,13,-3
1522653376626401,9,3,0,1,31,11,4,-1
1522653376626401,-3,6,6,7,-21,-13,1,-2
1522653376628407,0,-7,-2,5,-11,-4,-17,4
1522653376628407,4,-5,2,-8,5,3,8,-1
1522653376649462,-6,15,5,11,-16,-2,-1,-2
1522653376649462,3,-7,-1,0,3,-4,-1,1
1522653376651468,-6,-6,-2,-2,3,-3,14,0
1522653376651468,2,3,-1,5,13,-1,-16,4
1522653376663500,4,-4,-3,-5,-19,-12,-34,-1
1522653376663500,-7,0,-4,-6,7,14,30,-12
1522653376670519,-2,2,2,-1,-3,7,33,2
1522653376670519,-3,-17,-4,8,12,7,16,8
1522653376686561,-2,8,7,-1,-5,0,0,-6
1522653376686561,3,12,3,3,3,-12,-32,0
1522653376688567,2,-6,-7,-4,9,1,6,-5
1522653376688567,-10,-6,-4,-5,-3,-1,-6,-1
1522653376709622,3,-1,0,-3,-38,-1,28,4
1522653376709622,4,-4,3,2,24,4,-4,-1
1522653376710626,-6,-3,-1,-1,-30,-5,-1,-3
1522653376710626,1,5,0,-8,24,-1,-13,2
1522653376723660,6,3,1,-3,-13,-8,-22,-7
1522653376723660,4,0,-2,8,10,12,31,5
1522653376730679,-16,-6,-2,3,9,3,7,-1
1522653376730679,4,7,1,-2,-4,-5,-4,-3
1522653376746721,-6,-13,-4,-4,-10,-2,-34,0
1522653376746721,3,3,-2,-1,0,5,41,5
1522653376748727,4,4,0,-4,-2,-9,-48,-3
1522653376748727,-11,-3,1,12,18,4,29,2
1522653376769783,2,5,3,5,13,4,-14,-2
1522653376769783,5,9,3,-7,-18,-9,-12,0
1522653376770786,4,0,-2,-6,-15,-5,2,-1
1522653376770786,-8,-3,-2,1,16,11,-8,1
1522653376783820,2,-7,-4,4,8,6,6,-1
1522653376783820,-6,-6,-5,2,1,-1,1,-7
1522653376790839,8,2,1,2,-1,-2,11,3
1522653376790839,-6,-1,3,-1,-15,-16,-17,-2
1522653376806881,2,-2,-5,-2,1,12,15,3
1522653376806881,-11,-4,-2,4,15,-5,-29,0
1522653376808887,-1,1,0,-6,-7,-2,9,-2
1522653376808887,-3,-2,-2,22,19,2,-19,1
1522653376828940,-15,-12,-4,-18,12,13,34,-6
1522653376828940,16,2,-1,-1,-47,-15,0,-1
1522653376830946,-7,0,-3,6,38,12,6,2
1522653376830946,3,0,-2,-21,-42,1,-1,5
1522653376843980,-1,-7,-6,7,1,-8,10,-2
1522653376843980,-2,-5,3,5,15,8,6,4
1522653376850998,5,7,-2,-9,-6,-1,0,-1
1522653376850998,-6,-2,4,-5,-3,-8,-8,-7
1522653376867041,-11,-3,-5,-5,-7,-3,-14,0
1522653376867041,-5,-14,-6,-1,4,11,22,-2
1522653376868044,6,17,6,5,-6,-1,-4,-4
1522653376868044,-12,-10,-4,-12,26,-2,0,-1
1522653376889100,12,6,-2,2,-6,-5,15,-1
1522653376889100,-7,-3,-1,1,-13,-12,-19,3
1522653376891105,1,-13,-4,-7,-8,1,-3,-1
1522653376891105,14,15,1,-5,8,6,10,3
1522653376903137,-2,-1,2,-8,-63,-1,5,0
1522653376903137,4,0,4,17,74,6,-3,6
1522653376912161,15,-9,-3,-8,-13,0,0,4
1522653376912161,-14,13,-1,-9,-20,-5,-15,-2
1522653376927201,11,4,2,24,42,14,26,2
1522653376927201,-1,-3,-5,-15,-40,-14,-16,-4
1522653376928204,1,-1,4,12,3,0,-3,7
1522653376928204,-8,-8,-5,-1,18,-3,-2,2
1522653376949260,6,4,0,0,3,-8,-4,-3
1522653376949260,4,3,-2,-3,-15,-10,-11,-4
1522653376951266,-9,0,1,12,26,6,5,1
1522653376951266,5,-5,-1,0,-36,-2,6,-1
1522653376963297,-9,-8,-4,-13,22,-5,-26,-6
1522653376963297,-5,-2,-1,0,-17,-12,-4,-6
1522653376972321,-6,11,1,1,7,-7,0,-1
1522653376972321,15,3,3,15,15,8,8,2
1522653376986358,-7,-5,-1,4,17,5,-5,-4
1522653376986358,4,9,1,-1,-1,9,10,3
1522653376988364,-2,2,-2,-10,-19,-4,-8,-4
1522653376988364,1,-5,-3,-4,-19,-17,-24,-3
1522653377009420,0,3,3,12,38,10,6,-5
1522653377009420,-1,-4,-2,-11,-41,-1,0,-1
1522653377011425,-5,-1,0,2,13,1,10,-1
1522653377011425,1,-2,-2,-3,-12,-1,5,4
1522653377023457,10,-3,0,2,-6,-9,-14,-5
1522653377023457,-13,11,3,4,-5,-1,-8,-2
1522653377032482,-2,-8,-3,-3,-10,-12,-1,-4
1522653377032482,2,-6,-1,-5,17,15,14,-4
1522653377046518,-7,7,4,6,-9,5,13,-2
1522653377046518,6,-4,-2,1,4,-8,-13,-4
1522653377048524,-1,-1,-5,-9,-22,-16,3,1
1522653377048524,-3,3,-2,-1,11,14,-21,-2
1522653377069580,1,-2,-1,3,8,1,14,-4
1522653377069580,-4,-4,-2,-2,22,4,3,-4
1522653377070583,-3,-1,-3,-4,-12,5,8,2
1522653377070583,-4,-14,-2,-4,-22,-19,-23,4
1522653377082615,13,22,4,4,16,9,4,-1
1522653377082615,-4,-10,-2,8,-1,-2,-1,0
1522653377091638,-6,-5,-7,-14,-27,-12,-14,-7
1522653377091638,-2,0,-1,-9,23,6,22,3
1522653377106678,-5,-8,-4,2,-13,0,7,2
1522653377106678,4,5,-4,-13,-14,-5,1,-1
1522653377108684,3,1,3,7,-22,-4,-9,2
1522653377108684,-5,-5,-6,-7,37,1,8,-4
1522653377129740,-6,-4,-4,-9,-9,-9,-11,-2
1522653377129740,5,2,5,1,-22,7,17,6
1522653377130743,-3,-8,-3,0,25,4,-17,-8
1522653377130743,2,7,1,-2,-18,-6,4,-1
1522653377142774,-2,-7,-4,-5,-19,-13,-15,-1
1522653377142774,0,-5,-2,3,15,-4,3,-2
1522653377151798,2,5,7,7,9,15,8,2
1522653377151798,1,6,0,-9,-12,9,22,1
1522653377166839,-3,-8,-1,1,0,-5,-10,1
1522653377166839,0,2,1,4,7,-3,-29,-1
1522653377168844,0,5,0,-2,-27,-8,23,-1
1522653377168844,2,-1,1,8,32,10,-22,4
1522653377188897,1,-4,-1,-4,-32,-9,4,-8
1522653377188897,-1,10,4,2,5,11,25,7
1522653377190903,2,0,2,5,27,10,-7,0
1522653377190903,-9,1,-1,-3,-19,-8,12,0
1522653377202934,2,0,-1,-5,-9,-10,-2,3
1522653377202934,-2,-6,-5,7,16,-14,-23,-11
1522653377211959,-7,-8,-7,-14,14,22,38,2
1522653377211959,16,16,7,0,-26,-4,-15,4
1522653377226998,-10,-5,-3,5,17,1,-25,-8
1522653377226998,-3,-9,-4,-9,-18,1,2,1
1522653377228001,1,13,7,6,-8,-15,-3,-1
1522653377228001,-2,-9,0,6,34,12,5,0
1522653377249057,4,0,-1,-4,-19,-4,18,3
1522653377249057,-3,-4,-7,0,21,9,-13,-2
1522653377251063,0,-5,-2,-4,-21,-1,2,0
1522653377251063,0,5,1,-3,15,-5,0,-4
1522653377263094,2,-1,0,5,-17,-3,13,3
1522653377263094,-5,-8,-7,2,25,-2,-26,-6
1522653377272118,3,9,2,4,4,2,-14,-3
1522653377272118,-9,-12,-6,-17,-25,-3,12,-1
1522653377287159,4,4,0,-6,6,3,1,0
1522653377287159,3,1,1,3,-7,-2,16,1
1522653377288161,-1,2,1,1,22,1,-8,4
1522653377288161,-1,-13,-7,-3,-40,-10,-24,-4
1522653377309217,-6,3,2,5,50,10,3,0
1522653377309217,4,3,2,-6,-27,3,-2,-3
1522653377311223,-5,-3,-5,0,9,-7,-17,-2
1522653377311223,2,-1,0,3,-31,-10,27,2
1522653377323254,0,-1,1,-5,10,3,-8,-8
1522653377323254,3,-4,2,7,-14,-8,-3,-4
1522653377332279,-11,2,-1,-3,14,9,-5,2
1522653377332279,3,0,-4,-10,26,-13,-31,-3
1522653377347318,-1,0,-1,7,-22,13,34,1
1522653377347318,-2,1,2,-4,-25,-13,-1,-3
1522653377348321,-1,0,-1,2,16,4,0,3
1522653377348321,4,5,2,-5,-12,-1,-9,-5
1522653377369377,-5,-9,-6,-13,-14,-3,-8,-2
1522653377369377,-5,-4,-3,-2,1,-10,-16,-6
1522653377371383,6,-9,-6,-8,-1,-8,-16,0
1522653377371383,-6,7,5,13,18,15,23,-2
1522653377383415,6,11,0,-15,-26,-3,-26,-3
1522653377383415,-4,-4,-1,-2,-37,-4,27,0
1522653377392439,-9,-14,-3,-2,42,-2,2,13
1522653377392439,9,-14,-3,-7,-2,3,1,-7
1522653377406476,7,25,5,13,6,2,-10,-3
1522653377406476,-3,-12,-3,-5,-9,-9,-15,0
1522653377408481,-15,6,0,-2,-20,-4,7,-6
1522653377408481,-2,-8,-2,10,12,-4,6,4
1522653377429537,2,-9,-6,-6,4,18,29,5
1522653377429537,-7,10,5,4,3,-1,-6,1
1522653377430540,15,4,-5,-11,-25,-23,-21,-6
1522653377430540,-15,-10,-6,-8,-14,3,8,4
1522653377442572,1,-12,-2,15,52,4,-31,-4
1522653377442572,-2,10,5,7,28,0,9,-4
1522653377451596,7,-7,0,2,-18,9,2,2
1522653377451596,6,38,5,-10,-39,2,3,5
1522653377466636,-13,-21,-12,0,28,-6,-2,-9
1522653377466636,1,-7,-3,-1,-42,-5,-4,1
1522653377468641,3,-1,1,3,57,4,5,-4
1522653377468641,-9,-4,-1,-3,-21,0,2,3
1522653377489697,11,12,3,-14,-39,-9,-2,-1
1522653377489697,-3,6,1,14,39,7,7,1
1522653377490700,3,-14,-7,-15,-7,2,9,-4
1522653377490700,2,11,3,15,16,0,-13,-3
1522653377502732,5,-1,-3,-5,-13,1,7,-3
1522653377502732,7,6,1,-9,-5,-4,-9,3
1522653377511756,-8,-5,1,3,-1,7,12,1
1522653377511756,0,2,2,7,17,-4,-7,-3
1522653377526796,-11,-10,-5,2,-22,-14,-9,-1
1522653377526796,13,4,0,-12,-5,-7,-17,-5
1522653377528801,-15,-6,-2,10,42,18,28,0
1522653377528801,5,-3,1,2,-11,-17,-11,1
1522653377549857,-4,-2,4,9,4,19,17,-5
1522653377549857,-3,-6,-4,1,8,7,9,2
1522653377550860,11,19,9,-5,-76,-28,-23,0
1522653377550860,-9,-20,-10,0,58,8,-1,-3
1522653377571916,7,7,7,7,8,-8,-5,1
1522653377571916,-7,-8,-6,-1,-2,11,23,3
1522653377573921,-2,-2,-1,-4,-21,0,-17,-1
1522653377573921,-1,2,0,-2,13,-10,-6,-2
1522653377586956,-1,-10,-2,-3,-23,-17,-22,-2
1522653377586956,-4,9,3,-7,-10,6,-19,-1
1522653377588961,1,-8,0,16,39,15,23,6
1522653377588961,7,1,4,11,-13,7,26,1
1522653377609014,-13,-2,-7,-18,9,-12,-22,-1
1522653377609014,2,-3,1,1,-8,-5,-5,-2
1522653377611020,0,1,-4,-2,-8,-10,-12,0
1522653377611020,-6,-11,-5,-8,-11,7,4,0
1522653377632076,12,-1,-3,1,-1,0,4,3
1522653377632076,-17,2,1,1,7,1,1,-5
1522653377633079,1,-2,-1,-5,-27,-10,-9,0
1522653377633079,-3,-6,-7,-10,15,-6,-13,2
1522653377646113,3,3,4,14,10,9,-9,-1
1522653377646113,6,-1,-4,-7,-12,2,21,-2
1522653377653132,-1,5,-1,0,28,3,14,3
1522653377653132,-5,-8,-2,-3,-24,3,-1,-2
1522653377669174,-9,9,5,0,-10,-3,-3,-1
1522653377669174,3,-7,0,7,29,2,-20,0
1522653377671180,-5,2,-3,-13,-67,-18,-12,-4
1522653377671180,-6,-6,-2,1,18,4,-5,0
1522653377692236,2,-6,-2,3,9,8,25,5
1522653377692236,3,-6,-3,-4,-17,-13,-5,-4
1522653377693238,-6,10,6,1,10,6,10,1
1522653377693238,-1,-4,-2,2,-5,-7,-7,2
1522653377706273,-3,-6,-3,12,11,24,42,-2
1522653377706273,2,2,-8,-16,-20,-9,-3,0
1522653377713292,3,-3,1,8,41,6,6,4
1522653377713292,-1,3,-2,-2,13,8,-11,-7
1522653377729334,-2,-2,1,1,-10,-18,-11,-3
1522653377729334,5,6,4,15,3,0,-9,-3
1522653377731340,1,-5,-2,-12,-29,-4,-9,2
1522653377731340,-1,13,4,-12,13,-1,-13,2
1522653377751393,2,-2,-2,-3,-32,-4,21,0
1522653377751393,-2,-2,1,10,14,-2,-2,3
1522653377753399,-2,-3,-1,4,54,22,24,-2
1522653377753399,4,2,-1,-3,-23,5,3,0
1522653377766433,-5,-4,-5,-1,-28,-21,-22,-7
1522653377766433,-2,-1,-2,-8,14,11,-5,4
1522653377773452,0,0,-2,-5,-28,-12,11,-3
1522653377773452,-2,3,5,3,-31,-4,18,0
1522653377789495,-4,-5,-6,-8,-14,-13,-9,-4
1522653377789495,-1,-6,-1,1,43,14,39,-6
1522653377790497,-3,3,-4,-7,2,-4,-39,-1
1522653377790497,4,6,2,5,0,-2,-14,-2
1522653377811553,0,-3,0,-4,-16,-5,-1,-1
1522653377811553,-7,-9,-4,-1,-15,-8,10,-1
1522653377813559,3,8,-1,-6,-4,-10,-13,0
1522653377813559,-6,-9,-4,-12,-43,-5,11,-7
1522653377826593,4,6,2,5,20,5,-19,1
1522653377826593,0,-7,-7,-7,21,1,0,4
1522653377832609,-1,-1,3,7,21,17,20,1
1522653377832609,-1,8,1,3,-19,-12,8,1
1522653377849654,-5,-7,-1,-1,17,-1,-20,-8
1522653377849654,5,2,1,-3,-7,-1,-13,1
1522653377850657,0,0,-3,-3,-28,-13,-4,-2
1522653377850657,-7,-6,4,10,56,25,7,-4
1522653377871713,10,16,6,-1,-8,-7,1,1
1522653377871713,-6,-3,-5,-1,-17,0,-3,1
1522653377873719,-3,-4,-2,2,5,-3,14,8
1522653377873719,2,-5,-2,-2,27,13,5,3
1522653377885751,0,-5,-1,7,26,3,-7,-3
1522653377885751,2,12,4,5,-29,-18,-2,3
1522653377894774,-10,-11,3,11,-7,12,-2,3
1522653377894774,12,9,-3,-10,-9,-6,3,-2
1522653377909814,-7,-6,1,9,31,20,15,0
1522653377909814,2,1,3,6,9,1,6,1
1522653377910818,-5,-7,-4,-11,-15,-12,-28,-6
1522653377910818,-8,-10,-5,-3,-6,-7,9,2
1522653377931873,0,-1,-1,-1,-23,-1,14,0
1522653377931873,3,-1,-6,-14,-29,-15,-43,-4
1522653377933879,-7,-18,0,3,70,28,28,3
1522653377933879,9,37,10,2,-23,0,0,-6
1522653377945910,0,-2,-4,3,-23,-15,-9,-3
1522653377945910,-4,-2,-1,2,27,12,-1,0
1522653377954935,7,-1,-4,-15,-45,-12,2,1
1522653377954935,-9,-21,-10,-4,9,-10,-26,-2
1522653377968972,-1,13,1,8,29,9,31,-5
1522653377968972,9,7,4,7,-13,15,18,0
1522653377970977,-2,0,-1,-16,-15,-21,-30,2
1522653377970977,3,10,3,2,1,14,9,-1
1522653377992033,-1,-13,-6,-4,-15,-4,-11,3
1522653377992033,1,3,2,11,15,-9,-10,-1
1522653377993036,0,10,0,-10,6,7,21,-5
1522653377993036,0,-13,-6,-4,-15,7,-13,-4
1522653378005068,-3,-18,-1,-4,12,-8,-14,-4
1522653378005068,12,23,6,1,-9,-7,-8,-1
1522653378014092,-29,-24,-8,5,4,-2,29,3
1522653378014092,3,-6,-3,15,50,5,9,-1
1522653378029131,11,26,5,-13,-8,10,-12,-14
1522653378029131,-12,-25,-8,-7,-12,-11,-9,-6
1522653378031137,7,16,1,1,-11,-7,-11,-1
1522653378031137,2,-1,0,-4,-31,-9,0,-3
1522653378052193,-8,-14,-5,1,13,-4,-1,7
1522653378052193,6,11,1,-9,6,8,10,1
1522653378053196,3,-6,-3,3,-16,-9,-22,-2
1522653378053196,-10,1,-1,5,29,0,21,4
1522653378065228,-1,0,-2,-4,-4,13,8,-3
1522653378065228,-9,-20,-5,-5,-19,-2,3,2
1522653378074252,14,21,5,5,39,0,-9,4
1522653378074252,-10,-6,0,13,-10,-4,3,0
1522653378089292,6,2,-3,-4,1,2,-1,2
1522653378089292,-4,3,2,-2,8,11,22,0
1522653378095308,6,-9,-3,-1,-29,-5,-8,-2
1522653378095308,-7,-6,-3,-8,-8,-30,-34,-6
1522653378111350,14,10,1,0,14,10,10,6
1522653378111350,-18,-12,-3,-2,-31,1,5,-3
1522653378113356,6,10,4,12,57,5,-4,6
1522653378113356,2,-7,-5,-16,-8,-6,-7,-3
1522653378125387,-9,-11,-6,0,-36,-7,-16,-6
1522653378125387,5,-2,-2,-2,38,18,21,5
1522653378134412,-2,15,5,-7,-23,-8,7,-5
1522653378134412,-3,-19,-8,-3,-13,5,7,-6
1522653378149451,-14,-4,0,-1,-6,-27,-25,-2
1522653378149451,-2,5,3,12,9,-3,-8,0
1522653378151457,-2,-12,-4,-10,2,5,-18,-4
1522653378151457,-1,4,0,1,-11,-5,9,-4
1522653378171510,4,2,-3,0,10,14,12,1
1522653378171510,-3,5,0,3,-2,-15,1,-2
1522653378173516,2,0,-2,3,-10,1,0,0
1522653378173516,-4,-11,-3,-15,-8,-2,-9,-1
1522653378185548,4,6,7,11,-21,-2,9,-1
1522653378185548,-2,-7,-8,-7,62,11,8,-2
1522653378194573,9,3,0,4,-1,2,2,3
1522653378194573,4,1,2,-4,-12,-1,-3,-2
1522653378209611,-5,15,4,2,7,-6,-20,-6
1522653378209611,0,-3,-1,-5,-31,-16,-41,1
1522653378210615,-8,-10,-5,-9,-6,7,24,0
1522653378210615,19,10,1,4,22,-3,1,4
1522653378231670,-3,10,1,11,-9,-3,-5,0
1522653378231670,-1,-3,-1,-1,12,9,19,-7
1522653378233676,-9,-2,-3,-6,-21,1,-5,1
1522653378233676,2,-2,-2,1,14,-4,-17,-1
1522653378245707,2,0,0,8,30,6,18,7
1522653378245707,-1,4,2,-5,-19,6,2,-8
1522653378254732,-3,-3,-3,-3,8,-5,-14,-2
1522653378254732,-5,-3,-1,-9,-46,-6,9,-4
1522653378269772,0,-9,-4,-5,34,1,-9,6
1522653378269772,1,-3,-2,-1,30,9,-9,7
1522653378270775,-1,1,0,-5,-27,-4,4,1
1522653378270775,-1,15,5,10,-8,6,11,-2
1522653378291830,-6,-10,0,-2,-3,2,-5,-6
1522653378291830,9,2,-3,2,-17,-8,0,5
1522653378293836,-1,0,1,-10,-1,3,-2,2
1522653378293836,-13,-13,-6,1,3,7,-12,3
1522653378305867,8,14,5,-2,-29,-7,24,-6
1522653378305867,-12,-11,1,9,8,-7,-9,-4
1522653378314892,3,0,-4,2,24,2,8,1
1522653378314892,0,-1,0,7,-4,1,-1,0
1522653378328929,-1,-2,-3,2,-5,5,20,0
1522653378328929,-7,-15,-9,-20,-16,-6,0,-3
1522653378330935,-1,10,7,1,0,1,0,-2
1522653378330935,-2,-6,0,1,-2,6,10,-8
1522653378351990,-2,-10,-5,0,-15,-9,-17,2
1522653378351990,5,5,1,-5,-20,-5,-10,0
1522653378353997,-9,-13,-1,4,-1,-6,1,-2
1522653378353997,5,9,3,1,32,6,18,3
1522653378365025,-3,-6,-3,-8,-6,1,3,-5
1522653378365025,2,11,3,-3,14,2,0,2
1522653378375052,1,-2,-1,6,19,11,9,-2
1522653378375052,-1,-10,-7,-6,-26,-14,-16,-6
1522653378389089,-2,8,1,0,-10,-6,2,3
1522653378389089,2,7,0,6,23,-5,3,-5
1522653378391094,-3,-3,-6,-17,-39,-18,-37,1
1522653378391094,-5,-11,-5,-1,28,16,27,0
1522653378412150,17,8,1,6,-5,-2,-6,-2
1522653378412150,-13,2,-3,-13,-13,-10,9,-3
1522653378413153,0,1,5,4,30,2,1,0
1522653378413153,-4,-7,-3,5,-28,-11,-4,-5
1522653378425185,-2,-14,-6,-19,25,6,-23,0
1522653378425185,-6,-1,0,5,-12,-3,3,3
1522653378434209,6,4,-3,-11,-18,-5,3,-3
1522653378434209,-4,-3,1,1,5,-1,-3,3
1522653378449249,-4,-4,-1,8,-1,-3,-16,2
1522653378449249,3,2,0,-2,-7,-9,4,-2
1522653378455265,-9,-8,-3,0,4,22,32,0
1522653378455265,3,4,2,2,-4,2,16,-4
1522653378472310,5,9,-1,-2,-3,-14,-28,-4
1522653378472310,-1,-12,-2,-5,-6,8,-3,-5
1522653378473313,-4,5,-1,11,-12,-10,-14,1
1522653378473313,5,17,4,-15,30,6,-8,-3
1522653378494369,-6,-11,-8,-10,-23,-11,-12,-2
1522653378494369,-6,-7,-2,13,11,21,41,7
1522653378496374,1,-5,-3,-8,-1,-10,-9,-1
1522653378496374,3,1,2,14,38,-2,-13,0
1522653378508406,-6,-4,1,-8,1,14,8,0
1522653378508406,6,2,3,-1,-22,-4,-13,2
1522653378515425,-8,-4,-1,4,-14,2,-2,-5
1522653378515425,-1,-1,-2,2,7,-5,-17,-1
1522653378531468,2,-1,1,2,2,3,12,2
1522653378531468,1,-1,-2,-4,6,6,0,1
1522653378533473,0,0,-3,-4,-8,-9,-2,1
1522653378533473,0,1,1,2,-20,-2,6,-3
1522653378554530,2,8,4,4,12,-8,0,-4
1522653378554530,0,6,6,17,-6,9,0,2
1522653378555532,0,-5,-5,-18,13,-8,-12,0
1522653378555532,-1,-6,-2,-6,-44,-11,-21,-4
1522653378568566,5,-2,-1,10,33,19,19,0
1522653378568566,-8,-2,-2,-3,-15,-11,-24,1
1522653378575585,-4,0,2,7,6,4,3,-3
1522653378575585,-5,-8,-5,-12,-26,-13,-9,-3
1522653378591628,8,14,4,-4,-7,10,14,3
1522653378591628,2,-3,-1,-3,13,7,11,2
1522653378593633,-9,-15,-5,-5,20,4,-14,1
1522653378593633,9,1,-3,-2,-21,-12,-12,1
1522653378614689,1,3,4,15,-5,11,25,-4
1522653378614689,8,-1,-1,-10,22,10,-10,4
1522653378615692,-19,4,-1,-2,-14,-15,-4,1
1522653378615692,-5,-7,-3,10,16,7,12,-3
1522653378628726,-3,-7,-3,-2,5,1,-13,-1
1522653378628726,-3,-1,-2,1,-27,-15,10,-2
1522653378635745,11,2,1,4,25,10,4,0
1522653378635745,-1,0,2,8,7,-12,-22,1
1522653378651788,-2,7,2,-3,0,8,20,-5
1522653378651788,-3,4,1,-4,-10,-4,9,-6
1522653378653793,1,-1,-2,-6,-16,-2,-11,-2
1522653378653793,15,10,2,0,0,13,1,2
1522653378674850,-3,-8,-5,1,-5,-15,-6,1
1522653378674850,0,5,1,10,20,-1,-10,2
1522653378675852,19,-5,-4,-4,-13,4,0,2
1522653378675852,-36,-2,0,-2,12,1,2,-5
1522653378688886,5,-6,-6,-4,-10,-3,14,-1
1522653378688886,6,10,3,3,-5,-16,-15,0
1522653378695905,-3,-4,0,9,23,10,-4,0
1522653378695905,8,2,-3,-9,-8,-3,2,-3
1522653378711947,-12,-15,-3,-2,-10,-5,-16,3
1522653378711947,0,11,5,10,26,6,6,-2
1522653378713955,7,-3,-3,-5,-20,-12,-16,-4
1522653378713955,8,10,5,15,28,12,10,0
1522653378734006,-5,-10,-4,-7,-10,-11,-3,-4
1522653378734006,-5,-21,-12,-10,-12,-4,0,1
1522653378736012,-7,20,11,13,13,3,-4,0
1522653378736012,10,-2,-4,-12,-22,-3,18,0
1522653378748043,4,8,3,6,-1,-14,-16,-8
1522653378748043,-2,-8,-7,-20,-22,-18,-35,4
1522653378757068,-4,-7,-3,3,20,22,45,1
1522653378757068,-1,9,3,8,-19,3,-11,-7
1522653378772107,-1,-9,-3,1,12,-3,-9,-3
1522653378772107,2,5,2,-7,-12,-2,-16,0
1522653378773110,-4,1,-3,-4,-16,-5,4,0
1522653378773110,1,-5,0,10,26,9,20,0
1522653378794167,-2,-4,-4,-2,-14,4,1,2
1522653378794167,-4,1,-1,1,13,1,6,-3
1522653378796171,2,0,-1,-7,-29,-19,-9,1
1522653378796171,5,-6,-2,-1,5,-2,-23,3
1522653378808203,-7,1,-1,5,17,8,-5,-5
1522653378808203,-5,-6,-8,-5,-3,11,38,6
1522653378817228,-4,-3,1,-7,-28,-14,-20,-3
1522653378817228,5,-2,-2,6,38,10,-19,1
1522653378832268,-3,5,4,-4,-20,2,5,-2
1522653378832268,2,-5,1,2,-2,1,9,0
1522653378833271,3,7,-1,-1,3,0,3,2
1522653378833271,0,-6,-5,-5,-33,-14,-4,-5
1522653378854326,7,-4,0,0,20,5,-10,7
1522653378854326,-8,5,4,1,1,0,-15,-1
1522653378856331,2,3,2,6,15,5,23,-2
1522653378856331,-9,-3,-3,-10,-10,-1,14,-2
1522653378868363,-1,1,0,0,-24,-13,-30,-5
1522653378868363,1,-4,-3,-2,21,-2,8,1
1522653378877388,-1,-5,-1,-6,0,15,11,-1
1522653378877388,1,6,1,2,-3,-3,-6,-3
1522653378891425,0,0,-1,-6,-6,-7,9,1
1522653378891425,-5,-1,1,3,1,-4,-15,-2
1522653378893430,1,-5,-5,-10,-15,-8,-9,0
1522653378893430,-1,-5,-1,1,29,7,22,-3
1522653378914487,-5,0,0,5,-17,-1,1,0
1522653378914487,1,-1,-6,0,5,-1,2,-4
1522653378916492,0,3,-2,0,2,4,-1,3
1522653378916492,-2,0,-2,-11,-30,1,20,-1
1522653378928523,6,-1,2,6,28,5,-29,-2
1522653378928523,-4,7,6,-1,-30,-5,3,-3
1522653378937548,7,2,2,2,34,6,0,0
1522653378937548,-5,-5,-3,-3,-13,-5,7,-3
1522653378951585,-2,-4,-6,-6,-14,-10,-1,-6
1522653378951585,1,-1,0,3,19,5,-20,3
1522653378953590,-5,-6,-2,-1,-9,-2,-11,-4
1522653378953590,2,0,4,2,-15,-5,-14,0
1522653378974646,0,0,0,-3,-18,-7,20,2
1522653378974646,2,-5,-3,-4,26,18,6,4
1522653378975649,-4,5,8,9,13,13,9,-2
1522653378975649,-1,-11,-11,6,13,-2,-15,-6
1522653378987681,-2,2,1,-10,-19,-3,-8,7
1522653378987681,3,3,4,3,-2,2,6,0
1522653378996705,-3,-4,-1,-4,-7,-14,-16,0
1522653378996705,1,0,1,7,2,10,19,3
1522653379011745,-3,1,1,-3,-22,-11,-1,-1
1522653379011745,0,1,-1,6,60,14,3,1
1522653379013750,-2,0,-1,1,1,10,31,1
1522653379013750,0,-2,-2,-6,-12,-8,-23,-3
1522653379034807,-2,-2,2,8,-13,2,14,0
1522653379034807,-5,-3,-3,-18,5,-10,-16,-1
1522653379035809,4,4,-1,0,3,0,-2,-2
1522653379035809,-3,-4,1,4,-2,-9,-4,-5
1522653379047841,1,-1,-3,-7,13,8,19,5
1522653379047841,-3,-2,0,1,-37,-14,-7,-2
1522653379056865,-1,0,-1,-4,8,8,1,1
1522653379056865,1,-2,-4,1,9,1,-24,-4
1522653379071905,-3,2,-1,0,8,-4,0,-9
1522653379071905,0,3,1,7,-12,-9,-8,7
1522653379073910,-5,-7,-4,0,40,4,3,-4
1522653379073910,3,-1,0,-2,8,12,15,1
1522653379093964,-2,-1,0,8,6,-5,-10,-2
1522653379093964,-1,-1,-3,6,-8,11,17,-1
1522653379095969,1,1,2,-7,-23,-2,12,3
1522653379095969,-1,-1,-1,1,5,-9,-15,-4
1522653379108001,-4,-8,-3,-8,-7,-5,-16,2
1522653379108001,0,2,3,8,25,16,27,5
1522653379117025,4,-4,-2,-3,-19,-2,-9,-8
1522653379117025,-6,5,1,-8,-14,0,13,-3
1522653379132065,-3,-3,-3,-9,-19,-15,-8,-2
1522653379132065,-5,-4,-3,-6,-9,-5,-10,-1
1522653379133068,3,-5,-4,2,29,0,13,2
1522653379133068,-6,1,2,-3,-18,0,1,-2
1522653379154124,7,5,1,1,0,-5,-14,-1
1522653379154124,-1,0,0,-11,-16,4,16,5
1522653379156129,1,4,4,-1,-2,-2,-16,1
1522653379156129,6,0,0,10,6,-5,10,1
1522653379168161,-3,0,-1,1,19,5,4,0
1522653379168161,-5,-12,-6,-11,-28,-12,-1,-1
1522653379177185,2,-2,-1,5,-17,-12,-18,-1
1522653379177185,3,9,3,2,26,9,12,1
1522653379192225,-6,-19,-2,3,8,6,2,2
1522653379192225,8,-3,-6,-5,-2,-11,-18,-2
1522653379193227,-9,-6,-5,-2,-8,-4,10,-3
1522653379193227,-1,-8,-4,-3,-5,-3,-12,-7
1522653379214284,-5,13,8,3,1,2,7,3
1522653379214284,24,32,10,9,16,6,0,4
1522653379216289,-11,-19,-8,-3,-2,10,-9,5
1522653379216289,6,8,6,1,-26,-4,8,-3
1522653379228321,5,-7,-7,-15,28,6,7,-1
1522653379228321,-1,9,7,-1,-20,-2,8,0
1522653379237345,2,-3,-4,-7,-25,-15,-18,0
1522653379237345,-3,-8,-3,4,12,3,-5,2
1522653379252385,-3,-3,-5,3,16,2,3,0
1522653379252385,-9,-16,-1,0,1,-5,-18,-4
1522653379253388,-6,2,-2,-11,-16,-7,4,-1
1522653379253388,10,15,1,-1,-8,-6,-6,-2
1522653379274444,0,5,7,14,29,18,22,-5
1522653379274444,4,-6,-3,-3,9,-7,-17,-5
1522653379276449,-31,-8,3,15,-1,-5,4,-1
1522653379276449,10,3,-4,-11,-16,-4,5,3
1522653379288481,-2,-1,-6,-6,-22,-2,-20,-3
1522653379288481,-1,-7,-5,0,-17,-4,15,0
1522653379297505,3,8,6,-12,-7,-6,-3,-4
1522653379297505,-2,-3,1,5,6,-2,-21,4
1522653379311542,0,3,0,3,15,14,44,5
1522653379311542,2,-9,1,-5,-21,3,-1,-1
1522653379313547,24,25,3,8,26,-4,-18,-6
1522653379313547,-23,-1,6,6,-3,-5,12,4
1522653379334604,-1,-9,-4,6,18,0,-18,-5
1522653379334604,-7,-4,-5,-11,-12,-3,0,4
1522653379335606,4,-7,-1,1,16,-2,-15,-4
1522653379335606,-7,1,1,3,17,9,6,-7
1522653379347638,3,-2,1,6,-4,-5,6,0
1522653379347638,-12,3,-3,-7,-15,-2,19,-5
1522653379356662,5,-5,-3,3,2,-3,-17,0
1522653379356662,5,-8,-3,0,1,-6,0,1
1522653379371702,-6,-3,-3,1,-11,-20,-28,1
1522653379371702,3,13,1,-18,-16,19,7,-3
1522653379377718,-6,-8,2,6,19,14,24,-1
1522653379377718,3,-3,2,-6,-8,-6,-25,-1
1522653379394764,1,1,0,6,-3,-1,-4,0
1522653379394764,-3,2,1,3,16,-12,-9,4
1522653379395766,13,10,0,-5,-11,-1,-2,1
1522653379395766,-6,-1,-2,0,-6,3,11,-6
1522653379407798,3,3,0,-7,-13,2,8,2
1522653379407798,-8,-10,0,2,2,-5,-20,-1
1522653379416823,1,-9,-3,-2,-7,-1,12,-4
1522653379416823,-2,2,-2,0,-5,-10,-21,-3
1522653379430860,0,11,4,1,-16,-7,-24,-3
1522653379430860,-3,-6,-4,-3,57,18,11,1
1522653379437878,-6,-9,-1,8,-9,2,8,-4
1522653379437878,20,2,-4,-2,-4,10,12,4
1522653379453921,-19,-2,0,-3,2,7,14,-5
1522653379453921,0,8,0,-7,-16,-16,-20,-1
1522653379455926,0,4,-1,-7,-12,-6,0,4
1522653379455926,0,-5,-1,1,2,3,8,-5
1522653379476982,6,2,1,6,8,6,1,4
1522653379476982,-3,-1,-4,-7,-37,-17,-9,-1
1522653379478988,-4,-3,-3,2,37,17,-1,-2
1522653379478988,1,3,1,-1,18,1,-8,0
1522653379491019,1,1,-2,-4,2,-2,-6,-2
1522653379491019,2,-6,0,9,-15,-5,17,1
1522653379498038,-1,1,-1,-12,-46,-2,-4,-4
1522653379498038,0,-7,-2,-5,29,3,2,2
1522653379514081,1,3,0,-2,-17,-8,2,-2
1522653379514081,0,-1,0,0,8,2,-21,7
1522653379516086,-2,-5,-2,-2,-44,-8,23,-8
1522653379516086,-6,-4,-6,1,37,10,-6,1
1522653379537142,1,-6,-3,-13,-18,2,20,2
1522653379537142,6,12,2,-9,-7,-8,-15,-2
1522653379538145,-6,-5,0,7,18,-2,-8,0
1522653379538145,-2,-2,-4,-3,-26,-6,-8,-2
1522653379551179,-5,-3,-4,-1,17,-1,-8,-2
1522653379551179,-1,0,-2,-2,-2,2,8,-2
1522653379558198,-1,2,2,4,35,5,3,3
1522653379558198,-1,-4,-1,0,-35,2,21,-4
1522653379574241,5,3,4,9,35,8,0,1
1522653379574241,-2,-4,1,4,-21,-14,-15,-3
1522653379576246,3,2,-3,-6,9,4,5,6
1522653379576246,-1,2,6,6,-32,-6,2,-1
1522653379597302,-4,-3,-4,-8,-11,-3,-5,-6
1522653379597302,-2,2,5,11,18,13,28,5
1522653379598305,-4,-5,-4,3,6,-18,-76,-11
1522653379598305,0,0,3,4,22,14,47,6
1522653379611339,1,-4,0,-6,-42,-6,4,1
1522653379611339,-5,-7,-2,1,53,6,8,-2
1522653379618358,10,0,-4,-4,-30,-8,-10,2
1522653379618358,-11,3,0,-3,-2,-11,-25,-5
1522653379634402,1,-2,-1,-2,7,5,18,5
1522653379634402,-12,-6,-5,-10,-9,1,-3,-13
1522653379636406,-1,-5,-2,1,9,-2,12,-2
1522653379636406,1,3,1,3,3,-6,-18,0
1522653379656459,1,0,2,7,-7,-13,-3,-2
1522653379656459,0,-2,1,-5,-13,8,28,6
1522653379658465,0,-4,-5,-1,-1,10,3,1
1522653379658465,2,6,4,2,11,-14,-22,-1
1522653379671499,-2,-2,-2,3,16,12,14,0
1522653379671499,1,-1,2,-6,-14,-3,-17,2
1522653379678518,1,3,-1,2,-10,1,21,-3
1522653379678518,3,-11,-9,-19,-35,-13,-16,0
1522653379694561,-4,7,1,11,53,-1,-41,-4
1522653379694561,-3,-8,-1,1,8,9,27,1
1522653379695563,-5,1,-5,-17,-23,-5,15,-4
1522653379695563,2,4,2,-4,-8,5,-15,-4
1522653379716619,3,-1,-6,-6,1,-5,16,1
1522653379716619,-11,-14,-8,-3,3,1,-9,2
1522653379718625,11,18,7,15,6,-15,-13,-7
1522653379718625,-3,-1,-4,-10,21,11,26,-3
1522653379730657,-7,-5,-2,-15,-16,-2,-22,-1
1522653379730657,4,-3,-6,5,32,3,3,5
1522653379739681,-2,-7,3,1,-9,-2,6,5
1522653379739681,-6,-7,-3,14,12,1,12,-8
1522653379754721,-4,-8,-4,-6,-13,-8,-9,1
1522653379754721,2,-7,-2,-4,-20,-10,-8,0
1522653379755723,-7,9,5,2,-3,-1,7,1
1522653379755723,-1,4,2,2,14,20,6,-2
1522653379776779,-5,-11,-4,-8,-41,-9,-3,3
1522653379776779,-5,17,7,11,33,-1,-16,-8
1522653379778785,8,-3,-3,-5,-21,5,16,1
1522653379778785,-1,-6,0,11,5,-10,-17,-5
1522653379790817,-4,-11,-2,3,-8,-8,-5,8
1522653379790817,6,-1,-7,-26,-46,-6,-5,6
1522653379799841,-5,2,7,8,10,6,17,-7
1522653379799841,8,0,-3,4,-15,-3,-1,7
1522653379814881,6,10,5,10,18,10,-5,-42
1522653379814881,3,-3,-6,-12,5,-4,11,50
1522653379815883,-5,0,-1,3,0,-11,-35,2
1522653379815883,-11,-22,-14,-14,-24,8,39,-10
1522653379836939,10,15,1,-10,-8,-3,-10,-5
1522653379836939,6,-4,3,10,-4,-11,-14,-23
1522653379838945,-17,-4,6,14,30,11,11,5
1522653379838945,14,27,5,-5,-3,-2,-6,4
1522653379850977,-7,-15,-8,-12,-11,-5,-5,8
1522653379850977,-1,-7,-10,-14,-58,-11,-24,-11
1522653379860001,12,15,-3,-12,71,15,18,-7
1522653379860001,-1,-10,-1,3,5,-3,-2,-8
1522653379874038,11,-1,-5,-22,-32,-14,4,13
1522653379874038,-7,1,3,-2,-2,8,8,-6
1522653379876043,-10,-12,-1,13,-9,2,11,1
1522653379876043,-5,15,5,-3,-10,-25,-31,-3
1522653379897100,9,-6,4,18,19,20,37,13
1522653379897100,-2,-1,3,-7,9,-13,-27,-15
1522653379898102,-7,-2,-5,-5,-32,-16,-10,-13
1522653379898102,-5,-10,-5,-4,15,3,1,-4
1522653379910134,1,-12,-5,4,-49,-7,-5,10
1522653379910134,0,22,11,15,86,14,4,0
1522653379919158,11,-19,-5,3,-23,12,11,-6
1522653379919158,13,36,9,-4,7,9,18,9
1522653379934198,-10,-7,-4,-4,-9,-10,6,-2
1522653379934198,-3,1,0,5,3,9,-6,-3
1522653379936203,1,-10,-5,-9,-34,-18,-25,-5
1522653379936203,-17,-31,-9,9,23,-6,-22,-2
1522653379957259,15,20,7,5,33,27,15,14
1522653379957259,-13,4,4,7,-9,-8,16,-3
1522653379958262,-4,-15,-7,-4,-7,-6,-30,11
1522653379958262,-7,-10,-9,-4,-2,4,23,-16
1522653379970294,12,-27,-14,9,10,-21,-16,8
1522653379970294,-51,3,4,-14,48,26,40,-4
1522653379979318,0,-2,-2,-6,-28,-1,0,-1
1522653379979318,1,-16,-5,1,9,15,-2,8
1522653379994358,21,35,12,8,28,-10,-29,-4
1522653379994358,20,22,0,-13,-45,-8,21,-5
1522653379996363,-50,-15,3,12,13,1,26,-8
1522653379996363,-10,-35,-8,-1,-32,1,-36,-2
1522653380016416,-6,39,12,-14,30,20,24,-6
1522653380016416,19,-18,-10,-7,-35,-29,-64,-4
1522653380018422,10,-22,-16,-14,-27,-4,25,3
1522653380018422,-7,43,13,22,29,9,-3,9
1522653380030454,4,-13,3,1,-15,-9,15,-5
1522653380030454,-26,-12,-8,-7,1,15,20,-1
1522653380039478,31,-6,-11,-12,38,2,-28,-7
1522653380039478,23,-16,-7,-6,-16,-7,-14,10
1522653380054518,-27,27,5,-1,-24,-20,37,1
1522653380054518,-32,-35,-2,18,12,12,-10,10
1522653380056523,52,45,21,15,10,18,44,12
1522653380056523,-8,-15,-7,-24,-9,-19,-27,-8
1522653380076576,18,43,7,0,24,26,16,0
1522653380076576,41,-3,-11,2,-40,-22,-15,14
1522653380078582,2,8,11,4,24,11,-11,-10
1522653380078582,21,108,42,19,-31,-20,-3,-10
1522653380090614,-26,-44,-15,-1,14,-11,-2,-6
1522653380090614,2,-20,-6,-2,18,-7,-76,-6
1522653380099638,-37,-57,-32,-19,-15,6,57,13
1522653380099638,14,33,20,10,-2,-8,22,9
1522653380114679,-5,-37,-27,-26,-26,19,-5,-11
1522653380114679,14,-5,11,20,34,-18,-24,-6
1522653380115681,-27,13,7,-4,8,14,-23,-16
1522653380115681,-5,-122,-38,-10,-22,-45,-38,3
1522653380136736,7,119,45,13,24,33,51,25
1522653380136736,17,-53,-31,-6,35,33,8,-11
1522653380138742,-16,-3,-1,-12,-30,-8,31,2
1522653380138742,13,53,17,23,2,16,32,8
1522653380150774,12,-58,-24,-28,27,-18,-81,-16
1522653380150774,-4,1,-7,8,-18,-15,-4,15
1522653380159798,4,50,22,1,18,16,16,-16
1522653380159798,-24,-29,-16,-14,-13,-10,10,-10
1522653380174838,5,-41,-13,-7,-47,7,-22,2
1522653380174838,-3,44,22,15,56,14,20,14
1522653380175841,-15,-54,-4,28,13,-9,-3,-6
1522653380175841,9,41,11,-16,-23,13,74,21
1522653380197899,-18,-4,-1,11,-11,-22,-57,-23
1522653380197899,8,-40,-15,-6,-43,-23,5,-3
1522653380199905,-17,72,22,7,-1,-1,-45,0
1522653380199905,1,-54,-16,-2,-1,-7,5,-4
1522653380210934,5,0,6,23,70,12,25,-11
1522653380210934,-16,21,8,8,-6,40,127,18
1522653380219958,31,47,2,-31,-7,-15,-44,11
1522653380219958,-32,-21,-10,-22,-12,0,29,-23
1522653380233996,-13,-5,-5,-12,-52,-8,-48,1
1522653380233996,10,-5,-1,-19,-15,-28,-95,-12
1522653380236001,5,-7,-7,18,16,11,38,5
1522653380236001,-9,-6,-7,0,23,-2,-42,10
1522653380257056,-4,26,21,-5,-38,-19,-2,11
1522653380257056,1,3,6,25,50,37,94,4
1522653380258060,6,-26,-6,-15,-99,-61,-78,-2
1522653380258060,19,16,10,37,62,70,67,21
1522653380270091,3,-14,-8,-8,31,11,57,9
1522653380270091,-2,10,9,-10,-9,14,5,-12
1522653380279115,-1,-14,-13,6,-17,-21,-37,0
1522653380279115,6,-12,-3,4,10,-18,-27,2
1522653380294155,-20,-35,1,-13,15,21,12,9
1522653380294155,-17,44,22,4,-32,-10,-1,-22
1522653380300171,-10,-55,-15,-7,-17,4,40,-5
1522653380300171,-9,2,-2,-9,29,4,-17,2
1522653380317217,48,53,19,20,-45,2,48,12
1522653380317217,-7,-15,-18,-10,17,-20,-5,-1
1522653380318220,-15,-29,-8,-7,-7,22,-22,-22
1522653380318220,-32,12,6,14,41,-27,-22,-21
1522653380330254,-8,-16,-11,-20,-26,35,49,16
1522653380330254,2,-14,-8,-21,-93,-56,-46,-14
1522653380339275,4,13,6,37,116,57,104,32
1522653380339275,57,23,0,-21,-72,-18,-45,-2
1522653380353313,-27,47,13,-1,51,-28,-34,-18
1522653380353313,-13,-17,2,19,-30,18,36,-3
1522653380360331,-5,-12,-17,-13,1,-9,-24,-3
1522653380360331,31,-13,-15,-24,-14,-11,-38,-10
1522653380377376,-17,23,14,19,-18,-30,2,4
1522653380377376,8,37,11,-13,9,10,-41,-9
1522653380378380,34,-4,0,0,-8,-28,-91,-8
1522653380378380,-2,-22,-6,5,27,36,110,4
1522653380399435,-12,-35,-10,-10,-11,-3,1,5
1522653380399435,7,51,16,17,21,17,3,6
1522653380401441,10,-9,-7,17,67,-5,-37,-5
1522653380401441,2,-2,-2,-19,-69,-23,-27,8
1522653380413472,-41,-79,-30,-41,23,-4,-32,-12
1522653380413472,30,-19,2,-1,-11,13,1,10
1522653380421494,10,-20,9,36,43,10,9,27
1522653380421494,-42,6,36,49,85,82,57,-6
1522653380436534,1,-36,-35,-31,-42,-37,-21,-10
1522653380436534,-15,-19,-10,-19,1,-20,-62,19
1522653380436534,5,1,-6,9,-63,-25,-20,-19
1522653380436534,54,14,-5,-12,52,-8,12,16
1522653380458593,-12,-3,6,30,-19,35,27,-7
1522653380458593,7,8,12,17,48,60,37,-7
1522653380459595,-43,6,6,3,-7,-39,-77,-13
1522653380459595,-13,35,0,-1,-58,-11,-23,-18
1522653380472630,3,-11,2,3,-2,2,4,0
1522653380472630,-2,-45,-23,-27,8,-32,-31,5
1522653380481654,36,80,14,-13,-25,30,76,-11
1522653380481654,-27,-34,-23,-32,-33,-34,-39,-7
1522653380496694,7,-31,-7,0,-1,-10,-69,-1
1522653380496694,-31,58,25,9,-23,24,73,-4
1522653380496694,-13,-84,-23,-31,25,-16,-8,1
1522653380496694,45,78,11,-10,16,-8,-81,1
1522653380518752,-3,-6,3,8,-10,5,59,20
1522653380518752,13,-8,-7,5,-41,-32,-19,-5
1522653380519755,41,56,8,-42,-51,10,56,-6
1522653380519755,-48,-29,-7,24,69,-17,-84,-14
1522653380532790,-12,-31,-12,-10,18,-11,28,5
1522653380532790,15,10,6,11,-28,44,90,-3
1522653380540811,22,-5,-4,2,-8,-16,-79,-2
1522653380540811,-45,-1,-1,7,30,24,-19,-11
1522653380555851,46,29,3,-21,-5,-10,-62,-3
1522653380555851,-31,-24,-16,-24,-30,-53,-63,-15
1522653380556854,7,-22,9,17,-6,-14,24,18
1522653380556854,0,-4,-7,-13,-12,54,98,-15
1522653380578912,-40,-37,-12,6,-17,23,47,-6
1522653380578912,24,14,20,43,84,5,-61,22
1522653380579915,-44,-22,-8,-16,-64,-35,-12,-30
1522653380579915,21,-36,2,29,102,18,-65,44
1522653380592950,-3,54,18,24,-45,-11,-42,-9
1522653380592950,12,-29,-14,-22,-27,11,89,10
1522653380600971,-19,-3,10,27,33,5,11,-10
1522653380600971,-7,35,0,-1,-97,-17,20,-30
1522653380616011,39,7,4,-9,98,-9,-26,17
1522653380616011,19,-4,-15,-11,-8,3,-67,0
1522653380617014,-45,-17,-4,-18,-74,17,96,-3
1522653380617014,8,22,17,54,38,13,-34,16
1522653380639072,-23,-39,-19,-54,-81,5,81,-9
1522653380639072,2,-17,-9,-8,56,8,-56,19
1522653380639072,9,-23,1,18,-7,6,47,3
1522653380639072,-40,-10,-3,-23,-46,-15,26,12
1522653380653110,16,12,11,36,4,-42,-92,-31
1522653380653110,-17,10,8,16,12,44,127,34
1522653380661131,-6,-15,-15,-19,41,31,-71,-51
1522653380661131,15,-25,-15,-28,-127,-64,-70,6
1522653380676171,5,40,22,11,127,53,49,53
1522653380676171,-21,4,-8,-8,-38,-29,-91,-33
1522653380677174,16,11,-3,2,0,-8,40,29
1522653380677174,11,-5,0,0,-34,-19,-57,-25
1522653380699232,17,-8,-18,-13,18,-11,78,7
1522653380699232,-17,6,5,11,17,30,-75,-24
1522653380699232,9,8,2,10,61,24,15,17
1522653380699232,0,28,9,-9,-8,-19,-11,-4
1522653380722294,-4,-19,-10,-9,-37,-26,-28,-27
1522653380722294,-16,-30,-8,-1,35,15,27,-13
1522653380722294,24,27,-2,4,26,-3,-63,39
1522653380722294,-8,10,11,-6,0,32,94,11
1522653380736332,-5,15,8,14,-30,6,-81,-9
1522653380736332,-1,17,-3,-2,-36,-34,-40,-31
1522653380737334,-27,-3,-5,-18,-7,-41,-47,2
1522653380737334,13,-48,-7,11,29,37,91,-1
1522653380758390,15,37,19,13,-41,-25,-28,16
1522653380758390,-9,-7,-10,-16,20,19,52,-7
1522653380759393,-3,-16,7,5,-18,-19,34,-9
1522653380759393,-3,-18,0,-1,48,-9,-109,7
1522653380781451,-22,-35,-6,12,87,39,73,10
1522653380781451,33,44,8,-15,-36,0,22,1
1522653380782454,-3,5,2,-5,-45,-15,-46,-24
1522653380782454,-3,2,0,5,21,-21,-26,25
1522653380796491,-11,-7,-14,-27,-38,7,-43,-10
1522653380796491,-15,-21,-10,2,-42,-40,-14,-7
1522653380797494,37,25,6,12,75,39,16,18
1522653380797494,-33,38,22,0,-38,6,57,-26
1522653380818550,22,-7,-5,5,-40,-7,17,17
1522653380818550,-7,-19,0,7,33,-1,-37,19
1522653380819553,5,4,-4,2,12,24,110,-3
1522653380819553,13,-11,-7,-6,-14,-14,-31,-1
1522653380841611,6,-12,-6,10,33,-6,40,4
1522653380841611,-15,-4,2,0,-8,-6,-17,4
1522653380841611,-22,41,18,17,-10,-16,-12,-3
1522653380841611,2,-27,-13,-35,-39,-2,38,-5
1522653380856651,7,22,4,5,-9,30,10,20
1522653380856651,8,-29,-16,-8,3,-33,-22,-26
1522653380856651,14,16,8,4,40,21,-13,18
1522653380856651,-30,-33,-7,14,-35,8,71,-10
1522653380878710,6,3,-1,-17,-20,-10,30,1
1522653380878710,15,6,2,9,-40,-22,-53,15
1522653380879713,-27,11,3,3,29,13,-18,-23
1522653380879713,11,-13,-5,-8,-25,24,96,0
1522653380900769,-11,-8,-1,17,45,-10,-37,-12
1522653380900769,-7,-13,-9,-36,-64,-24,-20,-20
1522653380901771,9,-12,-5,2,1,-20,-40,14
1522653380901771,-3,1,-10,-11,4,5,-53,-3
1522653380915809,-7,-1,2,6,3,3,-12,-4
1522653380915809,29,24,10,21,26,14,37,-5
1522653380916811,-17,-10,-7,-14,-30,0,-71,7
1522653380916811,21,12,-6,-15,5,-17,4,-12
1522653380938870,7,-24,-6,7,-5,-3,-13,0
1522653380938870,-18,-18,-4,-7,13,11,50,6
1522653380939872,38,60,21,13,11,17,14,-2
1522653380939872,-6,-19,-6,4,29,-2,-24,-10
1522653380960928,-7,9,-1,-9,-29,-15,-19,-6
1522653380960928,-5,-45,-7,11,28,19,28,12
1522653380961932,28,24,4,1,2,-4,11,-1
1522653380961932,-14,9,3,-9,-22,-21,-33,-5
1522653380975968,-8,-6,1,-16,-95,-7,-4,-6
1522653380975968,-12,7,5,47,124,15,23,-21
1522653380976971,6,-30,-17,-36,-66,10,9,16
1522653380976971,-8,2,6,3,-12,-10,-28,16
1522653380999030,-18,-6,-7,-23,-18,14,43,-15
1522653380999030,7,7,2,8,-24,-29,-42,5
1522653381000033,-12,-36,-18,-2,-4,21,68,-17
1522653381000033,33,22,9,27,43,-8,-61,8
1522653381021089,-34,0,9,9,-37,-22,-32,8
1522653381021089,-9,8,-2,-12,70,25,63,-8
1522653381022091,-10,-17,-3,4,1,23,-6,-5
1522653381022091,6,-16,-6,3,3,-2,23,-11
1522653381036128,6,18,6,-8,7,-13,-71,1
1522653381036128,8,21,0,-35,-66,-7,10,16
1522653381037131,-12,-6,2,-2,-16,-18,-30,-10
1522653381037131,-15,-39,-17,10,5,-12,-22,-4
1522653381059190,20,34,10,8,26,9,1,5
1522653381059190,29,29,3,0,26,-32,-30,25
1522653381059190,-36,-15,2,9,-5,56,89,-21
1522653381059190,1,1,2,4,7,5,11,2
1522653381081249,-22,-11,-8,-15,16,-1,-19,-6
1522653381081249,41,35,8,-7,-58,-29,-65,-5
1522653381082251,-18,-20,-9,-5,3,-27,-12,1
1522653381082251,4,11,0,3,46,21,-32,-2
1522653381096289,-11,-22,-6,-14,-38,-19,30,1
1522653381096289,-11,2,8,7,13,47,54,2
1522653381097292,30,22,11,16,16,-17,-8,-8
1522653381097292,-16,-13,-13,-19,-66,-21,-5,11
1522653381118347,3,16,7,16,77,17,3,-7
1522653381118347,-4,-5,5,8,-37,-16,-40,-3
1522653381119350,12,-3,-6,-7,-11,9,-5,-13
1522653381119350,11,22,4,-13,17,-3,37,-1
1522653381141408,-3,-2,-1,20,50,25,-12,2
1522653381141408,-5,-4,0,-13,-39,-13,-13,-5
1522653381142411,-25,9,5,18,43,7,-11,11
1522653381142411,-5,-25,-11,-4,-40,-4,33,2
1522653381155446,6,-9,-4,-3,3,-10,-38,8
1522653381155446,-14,1,0,1,19,2,23,-19
1522653381163468,-2,-31,-16,-14,-19,-21,-38,-11
1522653381163468,25,73,31,9,-32,5,-46,13
1522653381178507,-7,-8,-9,-4,30,17,44,-12
1522653381178507,9,-12,-8,-15,-30,2,19,13
1522653381179510,-1,-17,-4,8,16,20,24,9
1522653381179510,-1,3,-6,-9,24,-7,11,2
1522653381201568,21,49,17,1,-24,-19,-93,-1
1522653381201568,10,5,2,6,2,8,26,-9
1522653381201568,-8,-9,0,-6,-49,-24,-9,4
1522653381201568,-11,-27,-8,1,59,21,31,0
1522653381216608,7,-5,1,1,-15,-1,29,24
1522653381216608,-11,-19,-10,-4,-12,-2,-46,-4
1522653381216608,13,17,6,7,7,-10,1,1
1522653381216608,-5,-9,-3,2,-4,-1,-11,-9
1522653381238667,10,6,-4,-13,4,8,9,-4
1522653381238667,-11,-18,-4,6,-2,13,23,-10
1522653381239670,-1,-1,-1,-13,0,-22,-62,-5
1522653381239670,7,1,1,9,-17,5,-17,32
1522653381261729,-8,-28,-13,-6,17,15,16,-11
1522653381261729,-7,7,9,10,-16,0,46,18
1522653381261729,-7,-2,3,5,8,-26,-118,-28
1522653381261729,-1,-9,-6,-22,-40,-13,59,1
1522653381275766,-8,-8,-4,-2,22,21,5,-14
1522653381275766,20,-16,-5,-6,3,-7,-3,39
1522653381276768,-19,30,19,15,-28,-20,-18,-8
1522653381276768,7,0,7,1,27,24,42,-9
1522653381298827,-7,5,2,-2,-5,-18,-24,3
1522653381298827,9,-16,-7,-1,24,-1,-11,-14
1522653381299830,-1,13,7,0,-35,0,-23,-20
1522653381299830,7,7,-5,-9,20,-38,-50,29
1522653381320886,-7,-9,4,4,-53,26,114,12
1522653381320886,-14,2,-5,-11,54,26,6,-34
1522653381321889,32,3,-4,8,0,0,43,31
1522653381321889,-18,-2,1,-3,-16,-10,-4,-30
1522653381335926,-11,-19,-9,-4,-11,-52,-128,-5
1522653381335926,-9,10,9,6,-46,33,54,-3
1522653381336929,-12,-39,-23,-3,64,15,62,-4
1522653381336929,2,-9,6,-1,-6,18,28,1
1522653381358987,-1,13,8,1,10,-13,-30,-8
1522653381358987,8,-9,-5,-10,-45,-21,-14,8
1522653381359990,-18,-8,-4,7,37,-16,-80,-20
1522653381359990,18,4,-5,-1,-9,29,48,16
1522653381381046,-1,11,4,0,31,8,5,-5
1522653381381046,-6,6,-3,-6,-17,-15,-46,-6
1522653381382049,-4,-20,0,4,9,20,63,14
1522653381382049,3,26,11,2,-22,-16,-34,-12
1522653381396086,12,9,-3,-1,-25,-6,-18,9
1522653381396086,2,11,4,7,33,-14,10,-5
1522653381397089,-5,-7,-4,-2,-17,15,18,13
1522653381397089,-5,-6,1,-7,-23,1,-44,-11
1522653381419147,14,8,6,5,38,17,55,0
1522653381419147,-22,-4,0,7,-14,-7,-49,-1
1522653381419147,16,4,-1,-16,-40,-21,-13,4
1522653381419147,-13,-2,-2,-1,20,-5,-1,-6
1522653381441206,-1,-7,-4,-12,-14,1,4,-5
1522653381441206,-1,-11,-1,8,25,-1,-21,-4
1522653381442209,10,31,5,2,-26,18,62,6
1522653381442209,-11,-1,-3,-11,-2,-36,-92,-15
1522653381464267,21,7,-11,-20,-4,-2,14,2
1522653381464267,-3,-10,3,19,50,27,43,0
1522653381465270,-24,-10,-7,-18,-41,-4,30,-12
1522653381465270,18,9,0,14,25,-10,-24,0
1522653381478305,-18,1,-2,-4,-33,-7,2,-3
1522653381478305,-4,-2,-4,-17,-16,-18,-56,-13
1522653381479307,7,-2,1,12,38,26,-9,6
1522653381479307,-15,-29,-11,4,29,14,42,4
1522653381501366,18,0,-1,-1,-11,1,41,-8
1522653381501366,-11,7,3,1,-16,-18,-41,-5
1522653381502368,-13,-4,-1,-6,33,-39,-49,4
1522653381502368,-3,7,-1,4,-6,25,67,12
1522653381515403,5,-20,-7,4,28,26,3,2
1522653381515403,8,-1,-4,-3,-22,-17,-16,-3
1522653381523424,-24,4,1,9,-22,-28,-48,5
1522653381523424,13,25,6,-4,11,9,38,-2
1522653381538464,-25,-19,-4,3,29,-3,-20,2
1522653381538464,20,22,3,-2,-23,21,69,2
1522653381539467,22,4,1,-11,-9,-8,-4,-6
1522653381539467,-18,-16,-4,-7,-56,-10,-40,-4
1522653381561526,-11,-3,5,22,71,19,-1,1
1522653381561526,11,10,-2,-4,-33,-16,-16,9
1522653381562528,-11,-8,-6,9,39,4,-8,2
1522653381562528,3,4,4,2,-16,0,-16,-5
1522653381575563,-1,-1,0,-18,-33,7,30,-15
1522653381575563,-6,-23,-9,7,7,-18,-20,12
1522653381583584,19,21,9,0,19,22,43,-11
1522653381583584,0,-10,-10,-14,-32,-6,-20,4
1522653381598624,2,-1,-2,2,-30,-21,-21,9
1522653381598624,-3,-12,0,8,49,6,10,-23
1522653381599627,1,2,-10,-7,-26,-2,35,-3
1522653381599627,-18,0,2,1,-29,-25,-72,0
1522653381621686,8,10,9,17,45,21,39,5
1522653381621686,0,-14,-5,-7,-39,-4,-9,-1
1522653381621686,10,15,5,-12,-43,-30,-68,3
1522653381621686,-7,-9,-3,22,80,13,50,1
1522653381635723,4,8,4,-12,-12,44,31,2
1522653381635723,-16,-15,-2,11,11,-9,-15,-8
1522653381643744,23,8,-3,-10,-14,5,18,12
1522653381643744,-10,13,0,-11,-35,-31,-42,5
1522653381658784,-1,-11,-5,1,47,-11,2,4
1522653381658784,-2,7,0,-2,-1,24,20,0
1522653381659787,-18,-19,-3,4,-22,-3,13,-1
1522653381659787,14,4,3,2,11,7,-33,13
1522653381680843,6,3,-5,-6,-30,-31,-4,-11
1522653381680843,10,16,8,2,-10,22,42,13
1522653381681846,2,-2,-1,4,-13,-21,-22,-12
1522653381681846,1,-34,-16,-30,-5,13,40,10
1522653381695883,-7,27,12,14,11,0,-28,5
1522653381695883,-2,-7,-4,5,15,-8,27,-8
1522653381703905,8,17,10,3,-3,11,-2,6
1522653381703905,-4,-18,-8,0,17,12,18,-14
1522653381718944,-6,-21,-11,-9,-19,-13,-9,5
1522653381718944,6,8,6,-1,19,14,10,-1
1522653381719947,-18,-27,-17,-13,-16,-11,1,-5
1522653381719947,2,29,12,0,15,6,-23,6
1522653381741003,-15,-9,-6,-9,-33,-23,-34,-14
1522653381741003,15,21,0,-7,28,-2,-5,-10
1522653381742006,-3,-12,4,6,-13,0,-14,-2
1522653381742006,-1,-2,-4,2,33,5,21,3
1522653381764066,5,2,-2,-2,-1,14,-15,-4
1522653381764066,5,-15,3,8,-6,-10,-13,-9
1522653381765067,-19,-2,-2,-3,10,7,-2,14
1522653381765067,20,21,9,7,11,-8,26,-7
1522653381779104,-8,-9,-4,-15,-55,-15,-52,6
1522653381779104,6,-7,-6,-1,-7,-10,13,-1
1522653381779104,7,14,2,7,21,16,-15,-11
1522653381779104,-16,-19,-1,-3,1,25,49,4
1522653381801163,3,-11,-4,6,2,-7,22,-3
1522653381801163,-16,3,-1,-6,-37,-19,-91,-16
1522653381802166,9,-7,-8,1,47,11,30,0
1522653381802166,-6,-1,3,4,-7,-3,-14,0
1522653381815200,11,13,5,13,2,-4,-4,4
1522653381815200,-26,-6,-2,-11,-6,6,50,3
1522653381824224,19,6,8,8,-24,-10,-64,-3
1522653381824224,-1,-16,-13,-11,19,11,33,4
1522653381838262,-22,-12,1,1,-19,-19,-43,-18
1522653381838262,6,15,3,-3,25,-5,-28,2
1522653381839264,10,-5,-2,6,33,17,44,-7
1522653381839264,7,9,2,-12,-29,-15,-13,7
1522653381861323,-6,6,4,-5,13,13,0,0
1522653381861323,-27,-22,-3,5,-5,-2,-12,-14
1522653381862326,6,6,2,-1,1,-9,-44,4
1522653381862326,-5,-15,1,8,-5,-12,2,5
1522653381875360,19,20,6,5,-18,17,40,2
1522653381875360,-10,-10,3,9,13,14,16,7
1522653381883381,-11,-4,-5,-11,-44,-27,-12,8
1522653381883381,-9,-8,-8,-7,40,11,38,-10
1522653381898422,8,-4,-1,8,53,19,10,-3
1522653381898422,9,16,2,-9,-27,-17,-53,-5
1522653381899424,17,-4,-7,-6,10,24,77,4
1522653381899424,-24,-22,-4,2,-33,-14,-7,9
1522653381921483,14,20,3,-14,-28,-26,0,-6
1522653381921483,3,-12,-8,6,48,20,22,1
1522653381922486,-20,-14,-3,-21,-30,1,3,-4
1522653381922486,14,-2,-4,-9,-3,-7,-44,-10
1522653381944544,-21,-10,-4,-5,-57,-15,6,0
1522653381944544,1,0,2,15,49,-6,-32,-16
1522653381945547,-11,7,5,0,2,35,91,17
1522653381945547,8,15,1,2,-21,-21,-55,-18
1522653381958582,15,3,4,12,50,7,-32,13
1522653381958582,-6,-2,-4,-9,-67,-11,56,6
1522653381959584,2,-9,-1,10,47,7,-6,-9
1522653381959584,-15,0,-1,-6,-17,10,11,4
1522653381981643,8,-8,-11,-12,-13,-1,-5,-11
1522653381981643,2,10,3,10,0,-5,2,12
1522653381981643,9,-5,2,2,-4,16,-21,-4
1522653381981643,-15,-15,-5,-10,13,-7,5,-13
1522653382003702,2,-3,3,12,-5,-10,-4,6
1522653382003702,-12,-23,-11,-16,-12,8,1,4
1522653382004704,18,25,7,12,-4,-4,0,4
1522653382004704,-11,2,0,-4,8,11,8,-3
1522653382018742,-1,-8,-3,5,29,29,30,6
1522653382018742,4,5,-3,-11,-26,-20,-15,-7
1522653382019744,-13,-13,0,5,-19,-2,13,-10
1522653382019744,33,43,10,-8,18,0,-19,4
1522653382040800,-11,-3,-3,-6,-6,-19,-6,-8
1522653382040800,15,-11,-3,4,-17,9,14,13
1522653382041803,-43,-13,-7,-6,27,-15,-30,-15
1522653382041803,10,-4,-3,6,-19,-9,7,5
1522653382063862,-2,-1,-3,-2,-11,-12,-10,1
1522653382063862,4,4,2,-5,-26,18,25,-7
1522653382064865,1,7,9,22,37,-14,-21,4
1522653382064865,-9,-16,-14,-16,26,31,12,4
1522653382078902,0,8,-1,-3,-1,-3,7,0
1522653382078902,-8,-12,-4,-2,-11,-12,-2,-12
1522653382079905,8,18,6,-3,-10,-13,3,9
1522653382079905,-9,-1,2,4,-51,-26,-12,-1
1522653382100960,0,-13,-6,-13,16,27,-6,1
1522653382100960,-9,-3,-9,1,63,19,-5,-8
1522653382101963,20,4,-4,-12,-23,-2,-18,-3
1522653382101963,-33,-12,-1,3,3,0,12,5
1522653382124022,12,11,-2,-2,-17,-23,-25,-2
1522653382124022,2,9,8,5,-51,-16,-17,-5
1522653382125025,-8,-6,-7,8,32,8,10,11
1522653382125025,14,-31,-9,-11,30,-25,-39,4
1522653382139062,-1,46,21,20,6,45,76,-11
1522653382139062,0,-19,-9,-10,4,6,13,11
1522653382139062,0,11,1,-7,-27,-36,-42,-1
1522653382139062,2,0,0,9,-31,-1,15,-4
1522653382161120,-11,-25,-2,21,35,1,-29,1
1522653382161120,2,3,1,6,31,6,-1,-4
1522653382162123,-10,-7,-4,-12,-15,-15,-12,-9
1522653382162123,16,34,17,13,15,4,43,12
1522653382184181,-1,-4,-4,-11,-61,-18,-28,-6
1522653382184181,1,6,5,18,29,5,5,3
1522653382184181,-7,-17,-7,-6,18,13,-13,-3
1522653382184181,-10,-2,-2,-2,4,3,24,-9
1522653382199222,8,-37,-15,-11,-10,-27,-42,13
1522653382199222,0,65,19,3,-9,-3,23,0
1522653382199222,-5,-10,-4,-1,-19,1,9,-11
1522653382199222,3,5,1,-1,-6,-8,-24,-5
1522653382221281,-8,-9,-2,-3,7,-2,14,-15
1522653382221281,9,-26,-7,11,22,10,-10,13
1522653382222283,-15,-4,-7,-23,-3,4,7,0
1522653382222283,13,37,13,-7,-25,10,6,-1
1522653382243339,-14,-29,-22,-18,16,-5,-18,-8
1522653382243339,-2,-6,-1,-3,-36,-24,-44,-6
1522653382244341,5,-1,0,9,30,30,53,15
1522653382244341,2,-6,-4,4,12,11,-21,-9
1522653382258379,9,-7,-3,-3,-25,-14,-11,2
1522653382258379,-13,22,10,3,-6,-2,15,-2
1522653382259382,8,-2,-2,-7,-9,-22,-42,-7
1522653382259382,-8,-20,-5,1,-25,4,24,12
1522653382281440,-6,0,0,1,52,17,-7,0
1522653382281440,13,-17,-8,-7,-19,11,60,-18
1522653382282443,2,25,7,2,3,0,1,11
1522653382282443,-15,-19,-1,-1,6,-7,-16,1
