timestamp,emg1,emg2,emg3,emg4,emg5,emg6,emg7,emg8
1519732255442388,-1,-7,1,-3,-4,-2,8,-2
1519732255442388,-31,-1,-3,5,3,5,-6,-21
1519732255443392,-8,-6,-6,-7,-12,-12,-10,-1
1519732255443392,-12,-17,-6,-7,-5,-6,1,-10
1519732255464442,14,6,-2,-1,3,1,-3,5
1519732255464442,-16,-13,-8,0,-1,3,-3,-6
1519732255465445,12,6,7,0,-3,-2,0,5
1519732255465445,-13,-1,10,10,1,0,-2,-5
1519732255479481,0,-11,-7,-3,-1,3,2,7
1519732255479481,6,7,2,-2,1,1,-3,-3
1519732255479481,-4,-4,-6,-5,-1,-5,-4,-7
1519732255479481,18,11,1,2,-3,-1,2,4
1519732255502550,-12,-7,0,-1,-1,-4,-3,-3
1519732255502550,16,1,3,1,5,15,14,11
1519732255503546,-7,-1,1,3,-1,-9,-9,-6
1519732255503546,12,5,3,0,-4,0,2,2
1519732255524600,1,5,3,1,3,6,-4,-8
1519732255524600,2,-4,-2,0,-1,0,7,12
1519732255525604,2,6,-1,-1,-3,-2,-8,-12
1519732255525604,-2,-3,-6,-3,-2,1,-1,3
1519732255539641,0,4,1,0,-2,1,0,0
1519732255539641,-2,-6,1,1,2,-3,-5,2
1519732255539641,27,12,4,5,2,8,12,23
1519732255539641,-19,-12,-6,-5,-5,-9,-12,-25
1519732255562702,-11,-9,-5,-3,-6,-5,-2,2
1519732255562702,19,11,-1,-3,-2,-3,-2,-4
1519732255562702,-6,-5,-3,0,-3,3,7,2
1519732255562702,1,2,-1,-1,1,-2,-1,1
1519732255584769,10,6,9,0,-1,2,9,12
1519732255584769,-3,-1,2,2,0,-10,-12,-7
1519732255585773,0,0,-3,0,4,20,-4,-10
1519732255585773,0,-10,-9,-6,-13,-16,5,9
1519732255598798,-6,3,2,0,-1,2,0,-8
1519732255598798,4,2,-6,4,20,7,3,5
1519732255607822,-9,0,4,-2,-10,-6,-2,-5
1519732255607822,7,0,5,7,8,9,13,8
1519732255621859,-10,-7,-5,-1,-16,-15,-18,-7
1519732255621859,-3,-9,-9,-8,2,15,2,-1
1519732255622862,-34,-16,-10,-4,3,-18,-16,-15
1519732255622862,11,8,8,2,3,5,7,8
1519732255644920,-3,-1,-2,-2,0,-5,-1,2
1519732255644920,13,6,-1,0,-6,-1,-1,1
1519732255645923,7,3,-4,-5,-5,-5,4,2
1519732255645923,15,5,2,0,1,-2,-12,-5
1519732255658958,-15,-2,-1,2,9,10,1,-7
1519732255658958,9,8,5,4,-4,-4,4,7
1519732255659961,-3,-9,-5,-4,-3,0,0,-4
1519732255659961,-1,2,1,0,0,1,-3,0
1519732255682019,5,2,0,-1,5,-5,-1,4
1519732255682019,5,2,3,0,-5,13,0,-2
1519732255683022,-13,-8,-4,-3,-5,-10,-1,-8
1519732255683022,37,18,-1,0,5,1,3,9
1519732255705081,-33,-14,-2,1,7,9,4,-11
1519732255705081,-8,-5,1,-1,-1,-8,0,11
1519732255706083,3,4,1,0,2,7,1,-6
1519732255706083,-14,-2,-6,-4,-9,-5,-2,-16
1519732255719124,8,-5,-6,-5,-7,-8,-10,4
1519732255719124,-9,-1,3,-1,0,-11,-2,1
1519732255728146,3,2,-1,-2,-2,-3,-5,-10
1519732255728146,7,8,2,3,-3,3,0,-1
1519732255742179,-5,-8,-3,-3,-2,-3,-6,-6
1519732255742179,-14,-14,-3,-3,-6,-7,0,-8
1519732255744185,7,-1,1,0,-2,1,5,9
1519732255744185,0,0,0,-3,-5,-6,-6,3
1519732255765241,4,-4,-4,-2,-4,-2,-1,-2
1519732255765241,19,9,4,4,3,4,2,3
1519732255766243,-9,-5,-1,-1,-7,-19,-15,0
1519732255766243,-22,-19,-10,-10,1,8,18,9
1519732255778275,-4,7,4,4,11,0,4,1
1519732255778275,9,1,2,-2,-1,3,4,-5
1519732255787300,7,12,6,4,-3,1,6,10
1519732255787300,-31,-25,-16,-8,-5,-10,-23,-11
1519732255802339,1,7,1,-1,-1,-3,2,1
1519732255802339,-15,-2,-2,-1,-2,-1,-1,-8
1519732255804345,2,-1,-2,-1,4,4,3,10
1519732255804345,13,9,3,3,2,3,4,1
1519732255824398,1,1,-2,-4,-2,11,5,8
1519732255824398,-3,-6,-6,0,-1,-12,-7,-2
1519732255826404,13,5,8,3,0,3,12,9
1519732255826404,-30,-19,-6,0,2,2,4,2
1519732255838435,7,10,4,3,0,-3,-3,-2
1519732255838435,-3,-12,-8,-5,-5,-8,-12,-9
1519732255847460,6,0,-4,0,0,14,5,2
1519732255847460,-3,2,1,3,6,-13,2,-3
1519732255861497,8,-2,-1,-1,0,10,5,3
1519732255861497,-27,-7,-5,-8,-5,-12,-11,-9
1519732255868515,-6,0,-2,4,1,1,-4,-8
1519732255868515,22,7,7,1,-3,2,-2,7
1519732255884558,-9,-8,-5,-6,-9,-21,1,14
1519732255884558,4,4,2,4,-4,-3,-4,-12
1519732255886563,-5,-5,-3,-1,8,2,-2,-8
1519732255886563,9,13,2,0,0,2,-4,0
1519732255898595,-1,-2,-1,-1,-5,0,0,-2
1519732255898595,-6,-4,-2,-2,-1,7,2,0
1519732255907620,24,9,1,-2,-1,-3,1,18
1519732255907620,-42,-15,-9,-4,-5,-19,-16,-41
1519732255922659,16,-2,1,3,3,1,0,1
1519732255922659,6,4,1,1,-1,3,3,6
1519732255923662,-7,1,2,3,4,1,-9,-13
1519732255923662,1,-6,-2,-3,-5,6,6,8
1519732255944719,-1,0,-2,3,-1,-15,-16,-10
1519732255944719,4,11,2,3,7,10,-2,3
1519732255946724,-16,-14,-6,-5,-7,-6,3,-1
1519732255946724,17,9,7,4,0,3,5,14
1519732255958755,-11,3,-4,-5,0,3,4,0
1519732255958755,22,6,4,2,-1,0,-1,-1
1519732255967784,-23,-13,-7,-2,-1,-4,3,-9
1519732255967784,9,5,-2,-5,-1,0,-6,7
1519732255981817,2,4,5,6,3,4,7,6
1519732255981817,-16,1,3,-3,-6,-7,3,-9
1519732255988836,12,5,-2,-1,-1,2,2,2
1519732255988836,14,-2,-3,-3,-6,0,-8,6
1519732256004878,-14,-7,-4,0,5,5,-1,-12
1519732256004878,3,-5,0,2,-1,-8,0,-4
1519732256006884,3,8,2,-2,-5,-4,-2,-8
1519732256006884,5,6,3,4,3,3,5,11
1519732256018921,9,8,1,1,-2,4,3,1
1519732256018921,-7,-11,-6,-2,3,2,-1,-1
1519732256027944,-10,-6,-3,-4,-3,-15,-10,-2
1519732256027944,1,3,-2,-1,3,17,6,3
1519732256040975,3,-7,0,2,-2,-17,0,-7
1519732256040975,-10,1,1,-2,-2,2,-8,-3
1519732256050002,-9,-7,-1,3,6,10,4,-2
1519732256050002,-4,-1,1,-2,-4,0,4,-8
1519732256065038,3,2,0,-2,-1,0,-7,5
1519732256065038,15,10,-2,-1,-3,5,1,-10
1519732256067050,13,3,1,0,2,-5,5,12
1519732256067050,-19,-11,-4,-2,2,-6,-8,-3
1519732256078073,15,10,1,0,2,9,9,13
1519732256078073,-12,-11,-4,-4,-1,-14,-5,-5
1519732256088102,-13,-11,-9,-8,-10,-3,-8,-7
1519732256088102,12,4,2,2,4,-3,8,-3
1519732256101142,2,2,-1,-3,-9,-4,1,-4
1519732256101142,-3,-6,1,3,1,11,9,8
1519732256110159,-5,-3,-1,-2,-3,-5,-6,-5
1519732256110159,16,2,-2,1,4,4,5,9
1519732256125198,-26,-10,-2,-7,-6,-11,-13,-19
1519732256125198,-13,-8,-1,0,0,1,-6,3
1519732256126201,13,8,2,1,3,20,9,3
1519732256126201,-12,-3,-2,0,-3,-1,-3,-5
1519732256138233,3,-1,-3,-2,-6,2,-4,-1
1519732256138233,-2,-5,-6,-4,-1,-17,-4,0
1519732256147257,0,0,1,-1,5,9,12,5
1519732256147257,11,8,2,0,1,0,1,7
1519732256161294,-9,-2,3,1,-1,7,-3,-9
1519732256161294,-14,-6,-1,1,-5,1,6,3
1519732256170319,11,6,2,4,4,1,-5,4
1519732256170319,-11,-4,-5,-7,-4,-6,-7,-15
1519732256185360,-7,-8,-6,-4,-2,2,3,-1
1519732256185360,22,11,2,-4,-5,5,2,11
1519732256186361,-1,-3,-2,1,5,-5,-4,2
1519732256186361,-19,-13,-4,-4,-5,-11,-7,-11
1519732256198393,4,-1,0,2,4,9,-2,-2
1519732256198393,7,4,3,2,2,9,1,2
1519732256207417,-14,-11,-4,-6,-8,-14,-17,-13
1519732256207417,1,6,1,5,4,7,2,-2
1519732256221455,14,0,-7,-8,-2,-9,2,9
1519732256221455,-1,-3,-5,-6,-9,-10,-4,-1
1519732256230478,-29,-5,1,-2,-2,11,10,-3
1519732256230478,6,7,1,4,7,3,0,3
1519732256244515,-2,-15,-2,2,1,-9,-13,-6
1519732256244515,-3,-3,-3,-1,-4,4,2,-1
1519732256246521,1,6,-2,-1,-1,-7,-12,-10
1519732256246521,7,-3,3,-2,-3,3,9,8
1519732256267579,12,15,4,3,2,5,4,10
1519732256267579,-20,-13,-6,-1,0,-7,-14,-11
1519732256268581,-9,-8,-6,-1,-4,-4,0,-5
1519732256268581,-4,-3,-4,-7,-6,-7,-2,-3
1519732256280611,3,1,-2,-1,-1,2,1,-2
1519732256280611,-1,2,7,-1,8,11,0,5
1519732256289636,28,11,8,8,-3,-13,5,10
1519732256289636,-21,-5,-4,-3,-4,0,-9,-11
1519732256304677,-4,-10,-4,-2,0,-9,-4,-1
1519732256304677,2,2,-3,-3,-1,8,2,-5
1519732256306681,3,-3,-5,-6,-5,3,-3,3
1519732256306681,7,5,5,8,2,3,12,13
1519732256327740,-7,-10,-2,-7,7,-8,-10,-13
1519732256327740,5,3,-2,4,0,-1,6,4
1519732256329742,-9,-4,-1,1,1,0,-5,-5
1519732256329742,6,4,-2,-2,-4,-10,-11,-7
1519732256340772,-7,-6,1,5,-1,17,10,2
1519732256340772,8,4,-2,-2,1,-1,3,0
1519732256349799,7,3,-3,-5,-3,-3,3,12
1519732256349799,-11,-11,2,-1,0,0,-6,-6
1519732256364836,-7,7,-2,1,0,0,-3,-7
1519732256364836,2,-8,-1,3,-1,-22,-8,3
1519732256366847,2,6,-2,2,-5,17,11,-2
1519732256366847,-3,-6,-5,-2,2,-11,-10,-4
1519732256386895,7,8,0,-2,2,4,6,5
1519732256386895,4,3,4,1,-2,5,1,0
1519732256388900,-10,-4,1,2,1,-1,-1,-6
1519732256388900,7,0,-2,3,-10,-17,-8,8
1519732256400936,5,2,1,-2,7,8,11,7
1519732256400936,-6,4,-1,-2,4,3,0,-9
1519732256409956,4,-3,-4,-1,2,-6,-13,-3
1519732256409956,-2,0,-5,-3,-1,7,6,0
1519732256424996,13,6,0,-5,-1,5,12,7
1519732256424996,-7,-1,2,2,-2,-10,-2,4
1519732256425998,-5,-2,1,-1,0,-2,0,-5
1519732256425998,18,13,0,0,-2,-2,0,3
1519732256447058,-18,-16,-6,-2,-9,-6,-8,-14
1519732256447058,-3,-4,-4,-5,1,7,0,-2
1519732256449060,0,-1,-7,-3,-3,-9,-4,-3
1519732256449060,-4,1,4,-3,-2,-3,-5,-3
1519732256461092,5,8,13,8,3,10,6,4
1519732256461092,-2,4,5,5,4,9,5,-3
1519732256470117,-3,-3,-9,-6,-9,-14,-14,-4
1519732256470117,-1,-7,-7,-4,8,11,4,0
1519732256485156,-10,2,-2,-1,-4,-6,-3,-5
1519732256485156,8,-5,-5,-5,-3,-2,3,9
1519732256486161,4,-1,5,3,3,10,11,6
1519732256486161,-16,-9,3,2,1,2,-4,-10
1519732256507215,10,2,1,8,-1,-5,-2,6
1519732256507215,-18,-5,-8,-7,1,-3,-8,-11
1519732256509220,1,1,-1,-5,-1,-1,-2,1
1519732256509220,6,6,-4,-2,-10,-7,13,7
1519732256521252,1,-3,9,3,-1,-6,-7,-1
1519732256521252,10,2,-2,1,4,6,10,13
1519732256530276,-11,1,1,1,-1,1,0,-1
1519732256530276,-6,-7,-6,0,3,2,-4,-7
1519732256545317,2,5,-5,-4,-4,2,-1,1
1519732256545317,3,-1,-1,-5,-5,-7,-2,-1
1519732256546320,7,4,6,3,5,4,0,1
1519732256546320,-5,-2,3,2,0,6,3,3
1519732256567389,2,-1,-6,2,-4,-7,-5,4
1519732256567389,58,34,14,5,3,13,15,23
1519732256569392,13,-7,-2,0,2,2,-10,-22
1519732256569392,-78,-36,-20,-15,-11,-12,-26,-57
1519732256581412,69,57,23,13,11,17,38,71
1519732256581412,-99,-86,-34,-21,-24,-33,-66,-83
1519732256590450,70,26,11,7,8,5,13,45
1519732256590450,26,3,6,4,0,9,9,17
1519732256604474,21,12,-2,-7,-14,-4,-2,9
1519732256604474,12,25,10,9,10,-4,10,9
1519732256606479,-33,-18,-6,-3,13,14,6,-10
1519732256606479,16,7,1,-3,-2,-1,-5,8
1519732256628538,-32,-20,-10,-8,-9,-10,-9,-23
1519732256628538,10,5,-1,-1,-8,-3,6,11
1519732256630543,-36,-12,-7,-4,-9,-8,-8,-23
1519732256630543,21,15,14,10,19,22,8,22
1519732256640569,-13,-12,2,0,-5,-14,-6,-16
1519732256640569,-9,0,-4,-1,-1,-3,-8,-6
1519732256650604,5,1,-3,-4,-4,-4,1,9
1519732256650604,-5,-4,-7,-7,-13,-6,-12,-5
1519732256664635,-13,-10,-6,-5,-8,-16,-11,-8
1519732256664635,43,32,18,12,19,32,26,34
1519732256666640,-45,-27,-2,-1,-18,-10,-11,-28
1519732256666640,-2,-10,-9,1,17,1,-9,-5
1519732256687694,-22,-17,-10,-3,-8,-4,-14,-19
1519732256687694,21,16,3,-5,-4,-4,6,21
1519732256688697,22,27,8,-5,-13,1,9,16
1519732256688697,3,-5,-1,7,15,-13,5,3
1519732256700733,-27,-18,-4,-3,1,6,1,-13
1519732256700733,-7,-4,-6,-3,-3,6,5,0
1519732256709754,17,15,4,3,-2,-5,1,0
1519732256709754,-16,-13,-9,-9,-9,-2,-1,-1
1519732256724793,25,13,5,6,19,6,-2,11
1519732256724793,-43,-16,-2,-3,-8,-16,-9,-22
1519732256726801,-8,-3,-4,-2,4,16,-2,-14
1519732256726801,6,10,2,-2,-10,-2,3,-3
1519732256747854,22,0,2,7,0,8,7,3
1519732256747854,-4,0,2,4,21,4,-1,-1
1519732256748858,-7,-4,-7,-4,1,-11,-13,5
1519732256748858,-10,-3,-2,-3,-6,3,5,-12
1519732256762895,3,1,1,-2,2,1,3,8
1519732256762895,-7,0,4,2,-10,-3,1,-7
1519732256769914,10,2,-5,-1,6,4,-1,4
1519732256769914,15,10,7,4,-1,-9,6,9
1519732256784953,-7,1,-1,-4,-3,2,-5,-13
1519732256784953,12,3,0,3,-4,1,6,12
1519732256786959,0,1,1,-2,2,-17,-13,1
1519732256786959,-7,-11,-1,1,-15,8,-2,3
1519732256807012,0,7,-2,-4,11,-9,9,4
1519732256807012,-20,-24,-11,-6,1,6,-7,-8
1519732256809018,19,6,4,3,5,6,10,15
1519732256809018,3,6,-1,1,-7,3,-4,-3
1519732256821049,-9,-2,-1,-1,-1,5,-2,-3
1519732256821049,13,7,0,2,4,-2,10,12
1519732256830074,-26,-9,5,5,1,10,9,-8
1519732256830074,14,11,7,2,3,1,-4,-1
1519732256845113,-83,-40,-19,-10,-8,-8,-18,-41
1519732256845113,-10,-6,-3,-4,-7,-10,-12,-11
1519732256846117,24,8,-3,-1,-7,-3,4,7
1519732256846117,12,7,5,2,5,9,16,11
1519732256867176,-1,-8,-3,1,-3,-2,-5,4
1519732256867176,2,5,5,0,2,5,-2,-23
1519732256869178,-11,-9,-2,0,-1,3,-1,0
1519732256869178,4,11,2,1,3,-5,-6,1
1519732256881209,-28,-22,-9,-6,0,-5,2,-3
1519732256881209,4,2,-2,-2,-15,-8,2,-14
1519732256890233,5,2,-3,-7,8,7,5,7
1519732256890233,20,12,6,5,3,0,9,19
1519732256905273,3,3,5,2,-3,3,-8,-8
1519732256905273,4,5,1,-1,-7,-6,-3,4
1519732256906276,-19,-12,-2,2,-1,-12,-8,-11
1519732256906276,17,4,-4,-6,6,3,5,10
1519732256929342,-5,7,4,-1,-4,-5,9,2
1519732256929342,0,-3,2,2,4,3,-5,8
1519732256931343,18,7,1,-1,-3,0,2,10
1519732256931343,5,4,-1,-1,-4,3,9,9
1519732256941369,34,5,4,5,7,7,-16,-8
1519732256941369,-29,-10,-9,-11,-21,-20,14,-16
1519732256950400,-50,-21,-8,-5,-7,-19,-21,-35
1519732256950400,15,2,1,1,14,16,9,15
1519732256964435,54,31,16,16,24,4,12,40
1519732256964435,-23,0,-4,2,4,-26,-31,-45
1519732256966442,-12,-21,-3,-1,-6,37,19,-3
1519732256966442,-24,-10,-12,-7,2,-35,-31,-18
1519732256987493,3,5,2,0,3,9,3,11
1519732256987493,35,21,8,6,1,13,16,32
1519732256989498,23,6,6,8,4,2,7,12
1519732256989498,-9,-5,-1,-3,-10,-6,-12,-14
1519732257001530,-11,-8,-16,-10,-5,2,-4,-11
1519732257001530,17,6,7,6,9,7,4,23
1519732257009551,-4,8,4,-3,-1,-11,-3,-3
1519732257009551,-13,-7,-1,1,-6,2,3,2
1519732257024591,-4,-5,-10,-5,-9,-10,-11,-13
1519732257024591,-1,-11,-11,-9,-5,9,10,8
1519732257030607,10,7,-1,3,6,-7,-10,11
1519732257030607,4,2,0,-4,-6,-5,2,-5
1519732257046649,47,23,6,-5,-18,6,40,32
1519732257046649,-67,-43,-10,3,13,9,-14,-10
1519732257054671,-26,-17,-7,-1,-3,-12,-13,-33
1519732257054671,91,40,14,6,4,13,17,32
1519732257060687,-41,-32,-11,-2,-3,7,3,-20
1519732257060687,37,3,5,-2,-12,-22,-9,50
1519732257069711,-34,-6,-6,-8,-5,-4,-6,-41
1519732257069711,-1,-8,-2,1,-4,-3,-7,-15
1519732257084751,6,-2,0,4,0,2,-1,9
1519732257084751,28,18,5,0,0,6,9,10
1519732257090767,2,0,2,5,7,5,4,10
1519732257090767,-12,0,2,2,-7,-6,-7,-11
1519732257107813,-13,-3,-1,-3,-6,-10,-18,-12
1519732257107813,-18,-10,-7,-2,1,3,-2,-24
1519732257108815,20,11,-3,-6,-17,-10,0,14
1519732257108815,-14,-3,1,2,15,16,12,6
1519732257120847,-29,-12,-2,0,-2,-14,-22,-17
1519732257120847,-38,-17,-12,-7,1,10,10,-25
1519732257130879,66,24,8,2,-2,-15,-17,34
1519732257130879,-41,-15,-9,-5,-7,-2,-18,-17
1519732257143908,2,-1,2,1,3,-11,-3,-7
1519732257143908,29,10,2,-1,18,45,14,15
1519732257150927,-5,-5,2,2,-1,1,8,11
1519732257150927,43,33,4,-2,-5,-2,2,7
1519732257166975,-28,-16,-8,-3,-2,-6,-12,-10
1519732257166975,31,27,12,7,-3,-6,0,14
1519732257168975,0,-5,0,0,4,9,7,7
1519732257168975,-25,-21,-2,-2,-1,3,9,3
1519732257181007,21,23,-2,-3,-4,-1,-3,-5
1519732257181007,10,1,3,3,-2,-10,-3,-2
1519732257190031,-12,-13,-7,-5,16,3,-4,-1
1519732257190031,-4,1,2,1,-2,7,8,-13
1519732257205071,-22,-15,-3,-2,-3,14,9,4
1519732257205071,-51,-26,-11,-7,-8,-19,-21,-44
1519732257207076,-16,-9,-2,0,10,4,-7,-5
1519732257207076,-13,-8,-4,-5,-9,-22,1,-3
1519732257227129,18,6,0,-7,10,22,8,11
1519732257227129,20,13,3,0,-2,3,5,9
1519732257229135,-12,1,-2,-7,-15,-2,0,-12
1519732257229135,-34,-22,-9,5,13,7,5,-8
1519732257250193,13,6,2,-3,-10,6,3,8
1519732257250193,-15,5,2,-3,-4,-14,-8,-17
1519732257251198,-48,-37,-13,-5,-9,-8,-13,-31
1519732257251198,-7,-5,2,1,1,-14,-13,3
1519732257264233,10,10,-7,-7,-5,5,-5,-12
1519732257264233,18,4,4,5,5,5,-8,12
1519732257271247,73,37,16,16,12,18,29,49
1519732257271247,-55,-27,-16,-8,-14,-13,-30,-44
1519732257287292,-18,-22,-4,-5,-3,-9,-2,0
1519732257287292,18,6,2,1,3,0,6,10
1519732257289295,27,25,7,2,-2,-1,8,25
1519732257289295,-13,-19,-16,-9,-4,1,-8,-9
1519732257310351,16,6,3,-1,-5,-5,4,-1
1519732257310351,3,-5,-8,-1,4,-1,2,4
1519732257311354,6,12,14,4,1,6,16,20
1519732257311354,23,12,7,5,-1,4,2,-1
1519732257323385,-37,-19,-7,-3,-11,-21,-12,-23
1519732257323385,1,-8,-8,-2,0,2,7,0
1519732257332410,-29,-9,-11,-13,-3,1,-13,-22
1519732257332410,70,30,13,5,0,3,14,44
1519732257347450,-13,-10,-2,5,8,1,-5,-7
1519732257347450,-12,-9,-2,-5,1,-1,-7,-8
1519732257349455,-2,-4,0,2,-5,-10,-4,-5
1519732257349455,22,5,8,2,3,6,4,15
1519732257369508,-26,-3,-13,-7,-10,-12,-9,-22
1519732257369508,-1,-5,-3,-5,-1,-2,-3,0
1519732257371514,-9,-5,-9,-2,-2,-10,-8,-13
1519732257371514,21,19,10,3,9,9,14,14
1519732257383554,-35,-21,7,10,1,0,-3,-14
1519732257383554,-8,-5,-5,-5,-9,-13,-7,-1
1519732257392570,-11,-13,-10,-6,1,12,4,-5
1519732257392570,-7,-2,-2,-1,4,6,5,4
1519732257407609,21,5,-4,-5,-2,-5,3,16
1519732257407609,2,14,1,-5,-1,5,-11,-3
1519732257408613,41,19,20,10,8,17,20,28
1519732257408613,-38,-12,-10,-1,-5,-10,-15,-22
1519732257429669,-17,-16,-7,-1,0,0,-6,-15
1519732257429669,-8,2,-5,-6,-14,-2,2,4
1519732257431674,-19,-10,-7,-3,16,11,-9,-12
1519732257431674,-9,-3,2,-7,-12,-30,-12,-6
1519732257443705,49,22,11,9,10,19,23,38
1519732257443705,-4,0,1,5,4,-4,-5,-17
1519732257452730,14,8,-2,0,-4,-3,9,11
1519732257452730,-26,-13,-3,-5,-6,-1,-7,-14
1519732257467789,9,2,1,-1,-3,-9,-7,0
1519732257467789,10,9,5,10,15,3,-1,14
1519732257468776,-1,-2,-2,-4,-9,-10,0,2
1519732257468776,4,0,-5,-1,-2,5,4,3
1519732257489828,6,11,-1,-7,-17,-6,-11,-5
1519732257489828,3,-4,12,6,3,-3,-6,3
1519732257491834,-16,-2,-2,3,-3,-19,-22,-23
1519732257491834,31,4,-4,-1,9,0,18,21
1519732257503865,-24,-15,-6,3,5,9,-5,-23
1519732257503865,1,-6,-11,-15,-11,-3,3,4
1519732257512890,-20,-21,-6,1,-4,-10,-17,-16
1519732257512890,-6,7,8,-7,-15,-2,3,-8
1519732257527931,55,43,13,8,16,2,13,27
1519732257527931,-48,-36,-9,6,-1,1,-8,-31
1519732257529936,2,2,0,-3,-11,-7,5,-2
1519732257529936,-14,-6,-3,-4,4,7,-4,-3
1519732257549996,5,5,3,-2,8,-6,-3,2
1519732257549996,5,-5,-1,-5,-6,9,16,15
1519732257551995,-10,-4,4,4,4,10,3,-4
1519732257551995,25,13,-4,6,3,7,5,9
1519732257563023,-45,-17,-2,-4,-1,-4,-4,-21
1519732257563023,21,16,3,2,-6,-7,3,8
1519732257572047,-13,-9,-3,0,-1,-3,2,-3
1519732257572047,-21,-10,-4,-5,2,5,-7,-6
1519732257587087,-3,0,3,4,2,-15,-2,-1
1519732257587087,13,10,1,0,-3,10,9,8
1519732257589093,17,10,1,0,-3,-1,9,15
1519732257589093,-29,-9,-5,-2,-1,3,-16,-25
1519732257610154,-12,-4,0,-2,-4,1,1,-2
1519732257610154,-3,-7,1,2,1,-6,-5,-4
1519732257613156,18,16,-2,-7,-11,-8,-7,5
1519732257613156,0,-8,0,4,21,2,3,1
1519732257623184,14,11,4,2,6,26,17,13
1519732257623184,-27,-14,-7,-3,0,-9,-12,-12
1519732257633220,5,-2,-1,-4,0,7,6,2
1519732257633220,-6,-2,-2,-3,-8,-13,-3,-3
1519732257647248,-26,-24,-8,-7,-17,-16,-15,-17
1519732257647248,16,13,8,8,10,8,11,4
1519732257649254,14,6,-2,-6,-7,0,2,6
1519732257649254,-16,-9,-2,2,4,7,2,0
1519732257670309,37,17,0,-7,-14,-15,3,15
1519732257670309,5,7,0,5,12,-6,-4,-8
1519732257671311,-42,-24,-6,-5,2,-4,-9,-12
1519732257671311,9,9,9,11,1,-3,-2,-8
1519732257683346,17,10,5,4,-5,3,2,14
1519732257683346,-4,7,-1,2,17,12,6,-5
1519732257692367,13,-6,-4,0,4,-1,-18,6
1519732257692367,-14,-1,-2,-2,-5,-15,-11,-14
1519732257707407,-3,0,-2,-3,-1,3,2,-6
1519732257707407,17,4,1,-1,-13,-13,-10,3
1519732257709413,11,6,2,2,2,5,8,6
1519732257709413,-11,-12,-8,-8,-12,-2,1,-1
1519732257729466,8,11,2,3,2,-8,-6,0
1519732257729466,-1,-5,-7,-5,2,19,3,2
1519732257731471,-20,-1,0,-2,3,-7,3,-7
1519732257731471,7,-6,-1,0,0,0,-8,-2
1519732257743503,17,14,4,1,-4,2,0,-2
1519732257743503,22,8,5,3,7,15,3,14
1519732257752528,-36,-18,-9,-10,-19,-35,-14,-32
1519732257752528,19,5,0,-4,-5,8,10,11
1519732257767571,-3,-7,-3,1,10,-5,-2,7
1519732257767571,1,5,4,2,-7,-2,-1,-5
1519732257768577,16,12,11,8,0,12,2,5
1519732257768577,-14,-17,-9,-5,-4,-14,-4,-4
1519732257789626,17,1,0,-4,-3,11,3,20
1519732257789626,-41,-18,-8,-4,-4,-17,-7,-21
1519732257791631,9,6,0,1,-3,3,5,-4
1519732257791631,12,10,2,2,4,9,-1,2
1519732257803663,13,1,-4,-7,-12,-6,-5,11
1519732257803663,-8,-8,-5,-7,-12,-9,-4,-3
1519732257812687,-23,-14,-3,2,12,14,12,2
1519732257812687,-8,-1,-1,-3,-7,-4,-4,-8
1519732257827728,-11,-5,-1,2,8,-1,-2,-4
1519732257827728,2,-3,3,-1,-6,-5,2,4
1519732257829733,12,10,-2,1,2,-4,-1,2
1519732257829733,12,6,1,-5,-3,14,9,10
1519732257849791,-15,-2,0,4,15,0,-7,-14
1519732257849791,-2,-2,2,1,-4,4,13,5
1519732257851800,16,6,0,1,0,7,1,12
1519732257851800,-5,-3,-2,-3,-5,-1,-3,-4
1519732257863823,17,0,-2,1,7,7,6,12
1519732257863823,-11,1,0,3,-4,-12,-4,-5
1519732257872847,25,10,4,4,2,17,-2,9
1519732257872847,-28,-20,-7,-3,-6,-5,1,-7
1519732257887887,-14,-10,-4,-5,-5,-6,-5,-2
1519732257887887,19,6,0,-1,1,9,6,9
1519732257888890,-18,-8,-3,-3,-13,-15,-12,-7
1519732257888890,1,5,0,1,8,0,4,3
1519732257909946,-20,-11,-2,2,-6,-2,1,-10
1519732257909946,7,4,0,-4,1,-1,-4,2
1519732257912954,0,-4,-5,-11,-15,-10,-1,-6
1519732257912954,2,-1,0,2,6,1,-3,3
1519732257923983,-4,5,3,5,4,-1,4,3
1519732257923983,9,3,1,1,-5,3,-11,-16
1519732257933015,-14,-9,-3,-4,-3,-5,-8,-29
1519732257933015,7,-3,-5,-2,1,5,-5,13
1519732257947045,-16,-4,-2,-3,-14,-12,6,-6
1519732257947045,-5,-3,-2,1,0,-11,4,4
1519732257953061,-7,-1,3,3,4,3,6,-3
1519732257953061,-15,-12,-5,-4,-1,3,-4,-3
1519732257970106,25,13,3,0,-1,6,-5,7
1519732257970106,-11,1,1,-2,-3,-7,-15,-16
1519732257971109,13,9,-1,-1,0,4,3,14
1519732257971109,-17,-8,-4,0,-4,-12,-8,-13
1519732257984148,-4,-2,0,1,4,5,5,2
1519732257984148,-14,-6,-5,-8,-2,0,0,-1
1519732257992164,6,1,2,4,11,6,13,27
1519732257992164,11,3,1,-3,-4,0,-3,-1
1519732258007204,1,-4,0,4,2,-1,-2,-1
1519732258007204,-10,-10,-6,-4,-4,-3,1,0
1519732258013220,-5,4,-1,-3,0,7,-1,-6
1519732258013220,-3,3,2,3,4,-2,0,-3
1519732258030266,-1,-1,-2,1,0,7,1,-14
1519732258030266,11,2,1,-4,-5,1,10,15
1519732258031269,-4,-1,1,5,9,-24,-25,4
1519732258031269,9,2,1,0,-8,8,14,9
1519732258043300,33,23,7,1,-1,2,6,15
1519732258043300,-27,-14,-6,0,17,10,-4,-8
1519732258052329,-11,-9,-6,-3,-3,1,-2,-18
1519732258052329,18,9,3,0,-1,-1,6,12
1519732258067369,-14,-4,0,1,-1,-12,-9,-23
1519732258067369,18,4,1,-4,0,0,-3,7
1519732258073380,23,10,5,3,2,-2,2,-3
1519732258073380,-25,-13,-6,-1,-1,-5,-6,-7
1519732258089423,0,-7,1,-1,-2,12,4,5
1519732258089423,-10,-3,-2,-1,-8,-17,-12,-3
1519732258091429,9,7,-2,-4,6,4,-9,-7
1519732258091429,25,16,8,5,-6,-18,4,13
1519732258103461,-18,-6,-1,3,6,5,-4,-17
1519732258103461,14,4,3,1,-10,-11,-2,10
1519732258113488,-3,-4,-3,3,13,16,14,9
1519732258113488,-9,-4,-4,-4,-5,-4,-14,-16
1519732258126523,-2,0,0,-3,5,-4,-11,-3
1519732258126523,4,3,2,4,-2,6,6,1
1519732258133548,6,5,0,-2,-4,-11,2,7
1519732258133548,9,5,2,2,-7,13,14,3
1519732258150594,-15,-13,-7,-5,16,-8,-15,-9
1519732258150594,3,-2,-3,2,2,0,1,0
1519732258151595,-11,-8,-2,-5,-9,-1,-2,-7
1519732258151595,4,8,3,5,4,2,3,-1
1519732258172644,-11,-15,-8,-5,-8,-3,-9,-3
1519732258172644,6,3,1,-3,-9,-9,-2,8
1519732258173648,-21,-11,-4,1,2,3,1,-12
1519732258173648,5,3,2,1,4,-1,-7,4
1519732258186682,-6,-6,-4,-3,-8,0,10,3
1519732258186682,11,6,-3,-3,-1,6,-8,-15
1519732258193701,-15,-10,-5,-2,-11,-21,-17,-8
1519732258193701,-3,2,1,5,17,15,15,-1
1519732258209744,15,11,1,1,-8,-15,2,17
1519732258209744,6,8,2,1,7,1,-9,-2
1519732258211749,-3,-3,-4,-6,-9,-2,-1,-2
1519732258211749,-6,-8,-4,-3,0,1,-2,2
1519732258232811,2,-1,1,1,-3,1,2,2
1519732258232811,13,11,2,0,-3,-6,-3,4
1519732258233815,-16,-12,-1,-3,-1,8,0,-11
1519732258233815,-3,-2,-2,-1,1,-7,-10,-1
1519732258246842,9,0,-1,-2,-1,9,6,2
1519732258246842,-10,-4,-1,3,3,7,8,2
1519732258253861,-7,-8,-5,-2,-3,-4,2,-1
1519732258253861,-1,-3,-1,-4,-4,-8,-13,-6
1519732258269904,0,3,-1,-4,-4,3,-4,-4
1519732258269904,-7,-1,0,2,4,12,18,4
1519732258271909,-4,-4,-3,0,1,3,0,3
1519732258271909,1,-2,-1,1,1,11,6,0
1519732258291962,7,11,2,-2,-9,-26,-10,4
1519732258291962,-8,-10,-1,-1,2,10,1,-7
1519732258293968,6,7,-1,-1,-3,4,4,-8
1519732258293968,0,3,2,-2,-3,0,4,0
1519732258306000,0,-10,-5,-1,2,-4,-6,1
1519732258306000,-12,-9,-2,0,-1,-3,-5,-1
1519732258316033,-2,2,3,2,4,-2,4,-2
1519732258316033,11,12,-5,-3,-11,-11,-11,1
1519732258330063,-6,-10,-4,0,6,6,2,-16
1519732258330063,-10,-9,-1,-2,0,3,0,-7
1519732258331066,8,3,3,0,-6,-7,-7,9
1519732258331066,5,10,6,3,1,11,11,4
1519732258352122,-9,0,-1,-1,2,-16,1,-2
1519732258352122,-4,-4,-5,2,6,2,-6,-2
1519732258354128,-2,-1,1,2,4,3,3,2
1519732258354128,3,4,1,1,-5,-12,-2,-2
1519732258366162,7,8,-1,-2,-7,12,-2,-6
1519732258366162,-2,-8,-4,-6,-2,4,-3,-12
1519732258375184,7,7,-1,2,-6,-16,-6,2
1519732258375184,4,-8,-1,-5,6,-6,-2,10
1519732258390224,-13,-5,3,2,3,6,7,-3
1519732258390224,0,4,-1,1,-5,-9,-9,3
1519732258391226,0,-7,-6,-5,-1,8,3,3
1519732258391226,-2,-7,-7,-7,-12,-12,-10,-5
1519732258413285,2,2,2,1,9,18,10,4
1519732258413285,2,8,6,2,1,-2,10,18
1519732258415290,7,0,-7,-5,-3,-1,3,3
1519732258415290,-12,-9,-3,1,2,-1,-5,-3
1519732258426319,-5,-5,-7,-10,-10,-2,-6,-6
1519732258426319,1,1,-2,0,1,-6,1,1
1519732258435344,16,12,10,6,1,1,9,7
1519732258435344,-19,-9,1,-1,5,-7,-29,-25
1519732258450384,-10,-5,-7,-7,2,28,0,0
1519732258450384,6,0,2,5,-4,-3,10,2
1519732258451388,-2,1,-1,-3,9,3,1,3
1519732258451388,1,-4,-4,0,-13,-10,-3,-11
1519732258472442,0,1,0,0,10,8,2,-2
1519732258472442,-1,4,1,3,-3,-4,-4,3
1519732258474448,3,1,0,-2,-2,-5,6,3
1519732258474448,-1,-5,-3,2,-2,10,9,1
1519732258486479,-1,1,-2,1,-6,-9,-3,1
1519732258486479,5,-2,-1,-1,0,-1,1,0
1519732258495504,0,7,1,2,0,3,-8,-3
1519732258495504,13,6,3,-1,-2,-4,3,2
1519732258509542,-19,-10,-5,-5,-9,-16,-6,-5
1519732258509542,-3,-6,-3,-3,0,-2,1,-3
1519732258511546,-8,-1,2,-1,0,7,-1,-5
1519732258511546,9,1,-6,-7,0,-9,-9,6
1519732258532607,5,-5,4,5,2,9,9,10
1519732258532607,4,14,3,-2,-9,-19,-4,-8
1519732258533610,3,-2,6,5,11,-2,-2,0
1519732258533610,-5,-5,-5,-3,-4,10,9,-2
1519732258554661,5,6,-1,2,-5,-7,3,3
1519732258554661,-6,-11,-11,-6,-2,0,-7,-4
1519732258556666,-6,-9,-1,0,-6,3,4,-1
1519732258556666,-9,3,3,6,4,1,8,-5
1519732258569701,-11,-11,-3,-5,-7,-9,-12,-7
1519732258569701,2,2,-7,-7,-1,0,-4,2
1519732258571706,37,10,0,1,-1,-2,5,12
1519732258571706,-50,-24,-7,-6,1,-11,-18,-18
1519732258592763,6,2,-3,-6,-3,4,0,0
1519732258592763,-3,-2,-2,2,-5,-11,-1,-6
1519732258593765,1,-1,3,3,0,3,-2,6
1519732258593765,22,17,9,6,0,3,7,8
1519732258605797,-1,-1,-1,4,1,-3,3,5
1519732258605797,-14,-6,-5,-5,9,5,-7,-17
1519732258616830,-6,-4,-9,-8,-11,-21,-5,-7
1519732258616830,8,-3,-2,-2,-1,9,7,15
1519732258629862,-8,4,6,5,-3,-12,0,0
1519732258629862,25,18,9,1,0,6,6,8
1519732258631866,-16,-17,-8,-2,-6,1,-11,-16
1519732258631866,13,12,-1,-3,2,-1,-3,1
1519732258651925,-7,-2,0,3,2,0,1,-6
1519732258651925,-19,-14,-6,-4,-5,1,2,-4
1519732258653925,-7,1,-1,-8,-7,3,2,-4
1519732258653925,6,-4,-3,2,4,-17,-17,5
1519732258665958,13,7,6,0,4,6,2,5
1519732258665958,4,-4,-4,1,-2,1,2,2
1519732258674981,-24,4,-1,1,2,0,-4,-6
1519732258674981,7,0,-1,-2,5,-1,3,-5
1519732258690021,25,10,4,4,-1,-1,4,-1
1519732258690021,-34,-15,-3,-3,2,-1,-8,-13
1519732258692026,14,6,1,1,-5,-3,-5,8
1519732258692026,-7,1,-3,-2,0,5,6,1
1519732258714085,3,6,0,-1,4,1,4,2
1519732258714085,17,2,7,7,0,6,6,5
1519732258716097,-5,-4,-3,2,9,0,1,4
1519732258716097,-9,-2,-1,-1,-4,-2,-2,-12
1519732258726117,-8,-2,-3,-2,-12,-13,-11,-2
1519732258726117,19,1,-7,-10,2,11,18,12
1519732258735141,-24,-7,0,2,12,6,-3,-11
1519732258735141,2,-1,1,5,0,-7,-4,-7
1519732258750181,3,0,2,0,-3,-1,1,6
1519732258750181,7,10,4,3,-7,-2,-1,4
1519732258751184,1,3,-6,-3,3,2,-4,-4
1519732258751184,-4,-2,-1,-3,-1,10,14,6
1519732258772240,20,7,5,3,4,-2,-12,-18
1519732258772240,-18,-10,-3,-5,-8,-2,-12,-9
1519732258774245,7,2,2,-1,3,6,4,-1
1519732258774245,-11,-1,-5,-3,-9,-9,-9,-3
1519732258786277,-12,-12,-3,-2,4,4,5,3
1519732258786277,15,14,10,6,5,0,-1,6
1519732258795302,-4,6,-1,1,-3,-8,-3,-2
1519732258795302,7,-4,-1,-1,3,-1,-11,-3
1519732258808336,-8,-5,-6,-5,-9,-4,-2,-11
1519732258808336,-4,2,0,3,6,4,6,-4
1519732258817361,1,-1,0,-4,-10,3,2,4
1519732258817361,7,2,3,3,2,-6,4,8
1519732258832400,-22,-13,-8,-6,-3,15,15,1
1519732258832400,1,-2,0,-1,-6,-8,-4,0
1519732258834407,4,-6,0,-1,4,-1,-5,-4
1519732258834407,1,5,3,0,-2,15,11,-3
1519732258846437,7,0,-2,1,-2,-10,-5,6
1519732258846437,-13,-9,-5,-4,-7,-8,-13,-2
1519732258855461,2,-2,-3,-3,-3,-6,-1,-5
1519732258855461,8,6,2,2,3,8,-1,-1
1519732258869498,-2,2,-1,1,1,-11,-8,-1
1519732258869498,3,-3,-4,-4,-5,1,1,2
1519732258871504,-1,-1,1,2,0,3,3,3
1519732258871504,-12,-8,-2,-2,-4,-12,-9,-4
1519732258892560,5,4,1,2,-1,3,3,8
1519732258892560,-11,-4,-3,0,2,-4,-3,-9
1519732258893563,-11,-12,-2,-3,-6,-17,-9,-5
1519732258893563,2,2,1,0,0,11,11,-1
1519732258905594,12,6,-4,-3,-1,-7,-1,8
1519732258905594,10,5,3,-2,-2,-3,-6,-14
1519732258915621,-2,-5,-4,2,3,8,-7,-2
1519732258915621,-16,-7,-4,-2,-8,-6,-6,-8
1519732258929658,-1,0,-4,-14,6,5,-8,-1
1519732258929658,8,9,9,11,7,-1,4,13
1519732258935675,2,-1,1,4,-1,6,7,3
1519732258935675,-4,0,-5,-3,-6,-1,2,3
1519732258952721,-2,-4,-3,-2,-8,-6,-8,-7
1519732258952721,-15,-9,-8,-6,0,0,0,-6
1519732258953723,-3,-1,-1,-4,0,-2,-8,-23
1519732258953723,-4,-8,-3,-1,1,-5,0,11
1519732258966759,-4,-4,0,2,-2,-3,0,-1
1519732258966759,16,5,1,-2,-7,-7,-2,7
1519732258974778,-13,-4,-3,-3,-1,-1,-1,-3
1519732258974778,-9,-4,-1,-3,0,-5,-5,-7
1519732258988816,-14,-6,-2,-1,-3,10,10,-10
1519732258988816,5,-2,1,1,-1,-4,-5,8
1519732258995834,7,7,0,0,-4,-4,-5,3
1519732258995834,5,-5,-5,-6,-11,-6,8,5
1519732259012879,-3,-6,-1,4,9,1,-15,-6
1519732259012879,1,0,-4,-4,-4,-1,11,8
1519732259015890,-13,-2,-1,-3,-6,0,-1,-7
1519732259015890,13,2,0,-1,3,9,6,9
1519732259025915,6,6,7,6,5,-6,-3,-11
1519732259025915,-11,-8,-6,-6,-4,-1,-8,-9
1519732259034942,10,7,3,3,1,-3,-1,6
1519732259034942,-2,-4,0,-1,-2,-3,3,-5
1519732259049983,2,-1,-1,-1,-2,-6,-8,4
1519732259049983,-9,6,3,1,5,7,3,-2
1519732259055995,11,1,-1,-2,-1,-1,1,9
1519732259055995,-16,0,-1,-1,1,-3,-14,-8
1519732259073040,2,-2,-2,-1,-8,-7,8,10
1519732259073040,-5,1,1,2,7,1,-3,-3
1519732259075046,21,4,3,0,-4,-10,4,8
1519732259075046,0,6,5,5,7,24,4,0
1519732259086075,-24,-13,-3,-2,-5,-4,-6,-12
1519732259086075,13,2,-1,1,-3,0,1,4
1519732259095099,-14,-6,-6,-2,3,3,-4,-3
1519732259095099,6,-10,-4,-4,-5,-10,-3,8
1519732259109137,5,7,4,3,6,16,15,-3
1519732259109137,0,-6,-2,1,0,1,-7,-22
1519732259116161,-2,4,0,-3,-1,-1,1,7
1519732259116161,-1,-1,1,-1,-3,-1,3,-4
1519732259132198,2,2,2,-1,-4,7,5,3
1519732259132198,-10,-16,-6,-4,1,2,4,5
1519732259134204,-3,0,2,0,-4,-1,10,-3
1519732259134204,21,11,1,2,9,1,-6,-1
1519732259155259,3,2,-2,-2,-5,-3,1,9
1519732259155259,19,7,2,6,5,6,3,18
1519732259156261,-10,-8,-5,-4,-5,2,-4,-5
1519732259156261,-14,-8,-5,-3,-6,-13,-5,-5
1519732259169296,-7,-3,-1,-2,0,-3,-4,-3
1519732259169296,5,9,6,0,-1,-3,-5,3
1519732259176315,12,0,-11,-8,-3,-5,0,-7
1519732259176315,-9,-3,-1,-7,-2,0,-14,-11
1519732259192358,-2,-1,1,3,1,-9,-15,-3
1519732259192358,-12,-3,-2,-2,-4,-7,5,-3
1519732259194367,7,5,2,1,1,4,3,4
1519732259194367,-1,2,-1,2,7,2,-9,1
1519732259215419,9,6,-1,-5,-6,-9,9,7
1519732259215419,-23,-13,-4,-4,2,3,-14,-12
1519732259216427,-3,0,2,1,0,-2,0,3
1519732259216427,-1,0,2,3,4,10,4,-5
1519732259229456,3,2,-1,0,-5,-3,2,2
1519732259229456,8,5,-1,-1,-2,-7,2,9
1519732259236479,-26,-10,-5,-4,-1,0,-5,-17
1519732259236479,0,1,0,3,-1,-3,3,2
1519732259252517,-2,-2,-2,-3,-2,7,8,3
1519732259252517,-3,-1,-3,-3,-4,-5,-2,6
1519732259254523,-3,-6,-3,-2,-1,1,-12,-8
1519732259254523,-1,2,-3,-1,0,7,10,1
1519732259274576,8,8,8,3,0,-3,-2,1
1519732259274576,-13,-11,-2,1,-1,1,2,-8
1519732259276581,7,1,1,0,4,13,9,9
1519732259276581,-5,-4,-2,-2,-4,-8,8,3
1519732259288614,14,4,-2,-1,1,-1,-4,0
1519732259288614,-15,-1,0,-2,0,-1,-7,-16
1519732259297637,-10,-7,1,1,-3,-13,-15,1
1519732259297637,8,4,2,-3,1,9,19,7
1519732259312677,-7,-7,-1,0,-1,-4,-8,-2
1519732259312677,4,4,1,-2,-6,-7,-8,-3
1519732259313680,5,-1,-2,2,-2,-8,19,3
1519732259313680,2,-1,0,-2,0,-7,-9,2
1519732259334736,15,8,1,0,-1,2,3,8
1519732259334736,-26,-10,-2,-1,3,1,-3,-10
1519732259336742,-7,-2,-1,0,0,-4,-9,-1
1519732259336742,5,7,-1,-2,1,3,6,2
1519732259348774,8,0,0,-2,1,2,4,5
1519732259348774,-22,-9,-5,-2,2,-15,-9,-11
1519732259357797,8,8,2,-3,-8,10,9,4
1519732259357797,5,7,2,9,11,8,4,4
1519732259372837,-21,-16,-7,-7,-5,-6,-3,-7
1519732259372837,38,17,10,8,4,12,17,20
1519732259373840,-23,-7,-3,3,-2,-10,-20,-14
1519732259373840,-2,-11,-9,-7,-10,-6,-8,-7
1519732259394896,-14,-11,-8,-3,5,11,1,-8
1519732259394896,7,-4,-2,-4,-3,0,5,4
1519732259396901,3,0,-4,-5,-1,-2,-7,3
1519732259396901,3,-2,1,1,-5,-9,-6,3
1519732259408933,13,11,7,6,2,0,-3,4
1519732259408933,-15,-7,-5,-5,-5,6,-5,-7
1519732259417958,12,7,1,-1,-3,4,11,0
1519732259417958,-12,-1,4,1,7,-17,1,0
1519732259431995,-3,-5,-6,-8,-5,6,-8,2
1519732259431995,11,5,-1,1,-1,0,0,2
1519732259434007,-9,-3,-1,1,2,8,-1,-7
1519732259434007,-1,-4,3,6,1,-1,-3,-3
1519732259462075,-7,-4,1,1,-1,-1,7,-1
1519732259462075,13,5,-2,0,1,0,-4,5
1519732259464080,1,-5,-3,-2,2,5,0,2
1519732259464080,-4,-4,-4,-6,-9,1,-5,-3
1519732259468095,-8,-4,-2,-1,-4,-9,-6,-6
1519732259468095,8,1,2,0,2,1,7,6
1519732259477115,-3,0,2,0,-1,-4,1,-1
1519732259477115,-28,-15,-6,-5,-4,-3,-6,-19
1519732259492155,-4,-2,-2,-4,-5,-8,-5,-4
1519732259492155,3,-1,-5,-4,5,3,-2,-2
1519732259494160,18,16,10,3,-3,4,-4,8
1519732259494160,4,-3,-3,0,1,0,9,3
1519732259515216,0,1,-1,2,1,-5,-4,-4
1519732259515216,-8,-8,0,-3,-7,-10,1,-4
1519732259516227,11,10,2,4,12,16,7,2
1519732259516227,-12,-5,-1,0,-5,-9,-17,-8
1519732259528251,-12,-13,-4,-1,-3,0,2,-2
1519732259528251,3,7,4,5,3,5,5,-2
1519732259537275,-1,-10,-5,-7,5,-3,3,1
1519732259537275,16,14,4,1,-3,3,5,6
1519732259552316,-27,-21,-8,-7,1,-5,-5,-11
1519732259552316,-4,-3,-11,-9,-10,-8,-10,-8
1519732259554320,10,6,12,8,3,-3,4,5
1519732259554320,3,8,7,1,-1,5,7,6
1519732259575377,11,8,-4,4,9,-5,-11,5
1519732259575377,-9,-8,-1,2,4,7,10,2
1519732259576379,-5,-3,0,1,-5,-5,-2,-3
1519732259576379,16,4,-1,-3,-3,2,-2,1
1519732259588411,-10,-3,2,0,-4,9,7,2
1519732259588411,13,13,2,2,-1,-4,-4,1
1519732259597435,-19,-22,-9,-4,1,-4,-2,-5
1519732259597435,-11,-3,0,1,0,3,-2,-6
1519732259612475,15,10,0,-5,-7,5,10,12
1519732259612475,-8,-2,4,2,7,-1,0,-11
1519732259616486,2,4,3,5,-3,-3,-7,3
1519732259616486,3,2,-3,-4,-4,-5,-4,1
1519732259634539,10,9,-5,-1,5,2,3,2
1519732259634539,-2,-5,4,1,-10,-8,-2,5
1519732259636539,5,2,-1,-6,-6,-6,2,-4
1519732259636539,-4,-2,0,2,4,7,2,-1
1519732259648571,6,9,3,5,2,5,5,-1
1519732259648571,2,-8,-9,-7,-1,3,3,4
1519732259657595,-10,-7,-7,-5,0,3,-11,-17
1519732259657595,8,2,4,5,-4,-13,4,13
1519732259672634,-14,-4,0,-3,-6,10,-5,-19
1519732259672634,15,16,7,10,14,-4,-5,9
1519732259673638,-2,-12,-10,-6,-6,10,14,-1
1519732259673638,0,-1,-6,-6,5,-8,-9,-1
1519732259694694,6,6,4,6,0,-9,-6,-1
1519732259694694,-3,-7,0,2,2,2,7,-2
1519732259696699,5,14,6,1,2,2,-2,9
1519732259696699,2,-10,-3,0,-3,1,-1,-1
1519732259717756,-10,-16,-11,-9,-8,-9,2,-7
1519732259717756,-4,-5,-6,-4,0,6,-4,-3
1519732259718759,3,11,9,5,6,-9,-4,-1
1519732259718759,-2,-1,1,6,2,5,2,-5
1519732259732796,18,10,10,4,-5,-4,-2,12
1519732259732796,-25,-12,-9,-5,-9,-19,-6,-8
1519732259733805,4,0,-10,-13,-6,2,-6,-4
1519732259733805,0,-2,-11,-11,-4,-2,2,-2
1519732259754854,17,12,12,7,5,7,13,12
1519732259754854,-7,-2,9,5,-4,-1,-8,1
1519732259756859,0,-6,-4,0,6,1,-8,-2
1519732259756859,-7,-6,-6,-6,-5,-4,0,-5
1519732259768891,3,-2,-13,-4,0,-3,-1,2
1519732259768891,7,3,10,5,1,13,16,5
1519732259777919,7,5,6,6,1,-3,-12,1
1519732259777919,-9,-7,1,-2,-5,2,-1,-2
1519732259792957,-3,-15,-12,-6,-3,-9,-10,-6
1519732259792957,2,3,-7,-13,-3,-6,-15,-10
1519732259793959,12,0,6,3,6,10,11,8
1519732259793959,-4,6,3,0,4,-7,-6,3
1519732259816021,-6,2,3,4,-3,-1,0,-3
1519732259816021,-4,-6,-5,-5,-3,0,-1,-3
1519732259817020,6,4,-1,-1,-15,-3,6,4
1519732259817020,3,3,2,5,17,16,-6,-4
1519732259829051,-8,-2,3,-2,-3,-17,-2,-4
1519732259829051,4,5,-4,-6,-6,2,0,1
1519732259837072,-21,-7,-2,-2,-2,-7,-4,-10
1519732259837072,9,-4,0,0,-15,-8,-1,-1
1519732259852112,-16,-17,-7,-4,7,5,-6,0
1519732259852112,2,5,3,1,-1,0,-1,-3
1519732259858128,1,0,1,4,-2,-9,0,-7
1519732259858128,2,5,-2,-3,-2,-3,-1,1
1519732259875174,3,7,7,3,4,6,0,0
1519732259875174,-15,-17,-11,-7,-2,0,0,-4
1519732259876177,-3,-4,-6,-1,-3,-8,-8,-1
1519732259876177,-6,-2,-1,-1,-3,2,-1,-6
1519732259888208,3,1,-2,-1,-4,0,0,4
1519732259888208,3,4,0,-1,2,-4,3,3
1519732259897232,13,1,3,1,3,8,5,8
1519732259897232,-18,-11,-2,-2,5,-9,2,-2
1519732259912272,11,9,6,6,2,3,5,2
1519732259912272,1,-8,-3,0,-3,-3,-1,5
1519732259918292,-6,1,-3,-1,-4,-3,-6,-4
1519732259918292,-3,-18,-10,-6,-4,-7,-3,-3
1519732259935340,2,4,-4,-6,-5,1,-8,-10
1519732259935340,-13,-2,-2,2,1,0,0,-12
1519732259936338,16,7,3,2,1,-5,0,12
1519732259936338,0,4,4,3,-2,3,0,0
1519732259957392,-27,-15,1,-2,1,-3,-4,-6
1519732259957392,13,4,0,-1,-4,-12,-7,4
1519732259959398,-15,-7,-3,1,2,6,4,-5
1519732259959398,4,3,-5,-6,-5,-12,-4,-4
1519732259971430,4,-4,-4,3,-2,12,6,8
1519732259971430,5,5,9,5,8,-3,-18,-23
1519732259978449,-7,-4,-2,-2,3,2,8,-2
1519732259978449,9,8,2,1,-5,3,-2,7
1519732259994492,1,-4,-4,-7,1,-6,7,-2
1519732259994492,-1,-5,-5,-2,-5,7,3,8
1519732259996497,0,0,-4,-1,-5,-4,-4,-12
1519732259996497,8,2,-3,-4,0,-3,-14,-7
1519732260009532,-13,-1,4,0,-2,1,1,-3
1519732260009532,13,9,0,1,1,-1,6,12
1519732260017553,1,-10,-4,-5,-2,-3,0,5
1519732260017553,-18,0,6,0,-3,10,6,-4
1519732260031589,3,8,2,1,3,1,-3,-2
1519732260031589,1,-1,4,2,-1,1,2,3
1519732260038609,-1,-2,-1,-5,-10,-5,-4,-2
1519732260038609,3,-5,-5,-1,11,3,5,0
1519732260054651,-20,-7,0,0,-8,-6,-5,-10
1519732260054651,6,7,1,-2,1,5,-3,5
1519732260056657,5,6,6,5,4,-7,3,4
1519732260056657,-8,-3,2,4,-6,-3,-2,-22
1519732260077712,1,-4,-7,-4,5,-3,2,9
1519732260077712,2,5,-1,2,3,16,17,19
1519732260078715,-7,-7,-6,-3,-11,-26,-32,-11
1519732260078715,-26,-20,-8,0,3,-7,-3,-5
1519732260091750,5,1,2,-1,-2,5,3,3
1519732260091750,-2,3,-1,0,-1,1,5,-4
1519732260098769,-14,-9,-4,-4,0,7,4,-8
1519732260098769,17,12,4,1,-6,0,4,8
1519732260115821,3,4,-1,2,1,-8,-12,-3
1519732260115821,-13,-11,-5,-3,-4,5,4,-3
1519732260117828,1,2,-1,1,4,12,9,1
1519732260117828,11,5,2,1,-5,-9,-12,-3
1519732260137872,-12,-5,2,-1,-1,-3,-4,-11
1519732260137872,1,5,-1,-2,-1,-7,-2,-9
1519732260138876,-13,-14,-5,-3,1,2,5,1
1519732260138876,21,12,0,1,3,23,14,20
1519732260152919,-36,-18,-7,-6,-10,-11,-6,-15
1519732260152919,-1,-2,1,1,1,-2,-8,-10
1519732260153915,3,1,-1,-1,1,3,3,11
1519732260153915,14,8,3,0,-3,2,5,11
1519732260174971,4,10,0,-2,2,7,3,-4
1519732260174971,4,-3,-3,-2,-2,1,-4,3
1519732260176977,-11,0,0,0,-1,-3,1,-6
1519732260176977,1,-5,-1,-2,-4,-1,-2,-3
1519732260197030,22,4,-1,1,10,6,-1,6
1519732260197030,-27,-6,0,-4,-14,-17,-1,-15
1519732260199037,27,13,5,0,5,13,11,21
1519732260199037,-13,-8,-2,-2,-5,-36,-17,-6
1519732260212070,-6,1,-2,-1,-1,21,5,-7
1519732260212070,-13,-8,-7,-5,-3,-9,-4,-7
1519732260218093,2,-3,0,0,0,-2,-3,-2
1519732260218093,-2,1,1,-1,1,6,2,-2
1519732260235132,12,-2,1,3,0,-1,-2,11
1519732260235132,16,3,-2,0,-1,-7,4,7
1519732260236134,-20,-7,-6,-1,1,-1,-11,-14
1519732260236134,-2,1,2,-3,5,10,8,7
1519732260257190,15,7,7,6,0,-9,-2,7
1519732260257190,-2,-5,-1,-1,-1,17,9,-1
1519732260259195,0,-6,-13,-8,-10,-6,1,-2
1519732260259195,-23,-6,2,0,6,6,-5,5
1519732260271228,-1,-2,-3,-3,-11,-25,-8,-4
1519732260271228,11,6,7,6,5,17,14,9
1519732260280252,-9,0,1,-1,-3,-19,-18,-13
1519732260280252,-2,-5,-6,0,-1,2,0,0
1519732260295293,5,4,3,1,4,11,7,-3
1519732260295293,-5,-7,-1,-2,-4,-6,-2,1
1519732260297297,10,6,2,0,4,10,16,10
1519732260297297,-6,-1,-4,-2,-4,-5,2,-5
1519732260317352,7,1,2,-1,-1,-6,-8,5
1519732260317352,-2,-1,0,2,3,-1,3,-3
1519732260319356,-1,-6,-5,-2,2,2,0,-5
1519732260319356,0,1,-1,0,-4,-2,-3,0
1519732260331387,-5,-1,1,2,2,-3,7,2
1519732260331387,-4,0,-5,-1,3,22,-4,-2
1519732260340412,-2,2,9,1,-6,-4,9,-1
1519732260340412,20,7,2,3,5,1,4,3
1519732260354449,-46,-15,-9,-3,-6,-2,-7,-19
1519732260354449,8,2,-4,-5,-2,-2,-13,-4
1519732260356454,8,6,-1,-1,-1,-16,-12,-16
1519732260356454,-2,-9,-1,1,-3,8,4,0
1519732260377511,26,10,4,-3,3,-5,4,14
1519732260377511,-7,-3,-7,-3,-3,2,10,-7
1519732260379515,-12,-7,2,3,0,6,5,4
1519732260379515,4,9,5,1,-2,-5,-5,-6
1519732260390544,17,10,3,3,1,10,0,7
1519732260390544,-12,-14,-3,-6,-17,-55,-18,-7
1519732260400572,-5,-5,-6,-5,-1,9,2,3
1519732260400572,-2,4,0,1,-1,15,5,-6
1519732260415613,-7,-8,-13,-6,0,2,3,-2
1519732260415613,-1,-9,5,0,-1,-2,-5,3
1519732260418625,12,8,4,1,0,-1,-4,2
1519732260418625,-4,-3,-2,-2,-7,-24,-13,2
1519732260437670,-3,4,3,-6,0,7,4,-11
1519732260437670,4,6,-6,2,3,1,-2,2
1519732260438673,-5,-6,-2,-1,-1,-5,-9,-2
1519732260438673,-3,-3,-1,-2,6,14,6,0
1519732260451708,3,-4,2,7,-4,-8,-1,3
1519732260451708,-5,2,-3,-3,1,-3,-7,-4
1519732260459728,1,0,3,1,-1,9,3,2
1519732260459728,6,8,2,2,0,-2,-1,-6
1519732260474769,6,-3,2,-3,-4,-2,-2,6
1519732260474769,2,6,7,6,6,18,2,4
1519732260476774,-11,-5,-7,-4,-9,-9,7,-6
1519732260476774,-13,-21,-14,-10,-5,6,-7,-6
1519732260497830,7,1,-1,-3,1,-4,-1,3
1519732260497830,3,1,3,4,6,11,6,1
1519732260498836,2,5,0,0,-3,-13,-7,-2
1519732260498836,-8,-6,-1,-3,0,2,9,-2
1519732260510865,0,-3,-3,-2,-2,-5,-8,-1
1519732260510865,8,13,7,3,2,-2,-2,3
1519732260519889,-8,-5,1,1,-3,-7,-10,-3
1519732260519889,4,3,-1,5,7,-3,1,0
1519732260534929,-12,-11,-10,-6,-6,-1,-3,-8
1519732260534929,7,2,0,-6,-4,-9,-5,2
1519732260536934,9,10,4,7,7,12,5,3
1519732260536934,-10,-2,7,-1,-2,-2,1,-5
1519732260556987,-5,-4,-8,-2,4,15,-2,-4
1519732260556987,0,-4,-2,-6,-11,-24,2,1
1519732260558993,3,9,4,1,2,10,5,1
1519732260558993,9,-1,-4,-4,-3,-3,-8,-1
1519732260572027,-1,-5,5,3,-3,2,8,0
1519732260572027,-4,-6,-3,3,8,6,4,0
1519732260580049,3,3,-4,-1,-1,12,0,2
1519732260580049,4,10,2,-1,-1,5,-1,2
1519732260595089,-3,-3,2,1,-1,-8,-1,1
1519732260595089,3,4,1,2,-6,-3,-5,-4
1519732260596091,-7,-8,-5,-7,4,-8,3,2
1519732260596091,0,-5,-8,-5,-3,-3,2,0
1519732260617148,10,12,11,0,-2,-1,0,3
1519732260617148,-19,-14,-2,1,-5,13,-7,-7
1519732260619154,19,0,6,9,8,-17,0,19
1519732260619154,-6,-2,-9,-2,-3,-4,-5,-14
1519732260631185,6,4,-7,-6,-4,-11,-1,1
1519732260631185,-7,-5,1,-3,0,5,2,-2
1519732260640209,-11,-13,-5,-3,-4,1,-2,-2
1519732260640209,8,5,-1,-2,-4,-2,1,1
1519732260655249,-2,-5,-3,2,9,-13,-9,1
1519732260655249,7,2,-2,-3,6,25,11,5
1519732260656252,-8,-1,-3,-1,-4,-1,-4,-8
1519732260656252,-3,-3,5,2,-3,-9,-4,2
1519732260677308,0,6,4,5,-2,1,4,2
1519732260677308,5,-2,-4,-5,1,-10,-5,4
1519732260679313,-16,-10,-8,-4,-3,4,-7,-13
1519732260679313,-1,-3,1,1,-3,11,13,3
1519732260691344,-2,0,-4,-3,0,-10,-10,-4
1519732260691344,4,6,6,7,5,-9,5,1
1519732260700370,2,-2,3,-1,-4,2,-8,0
1519732260700370,1,5,4,2,-1,-4,2,7
1519732260715409,-10,-10,-6,-2,-5,6,1,-7
1519732260715409,4,3,-7,-6,-2,-3,-1,3
1519732260717415,-10,-7,-6,-4,-18,-18,-5,-9
1519732260717415,31,22,18,8,24,14,5,17
1519732260737468,-30,-22,-5,0,-2,-8,-13,-9
1519732260737468,-2,1,-3,-2,-5,4,5,-2
1519732260739473,4,3,-3,-3,-4,0,4,1
1519732260739473,1,0,-4,-4,-6,-9,1,0
1519732260751505,5,3,2,1,6,19,3,3
1519732260751505,0,-2,2,4,-4,-16,-7,1
1519732260760529,1,2,-2,-3,6,6,-1,0
1519732260760529,0,-5,-5,-1,-5,3,2,1
1519732260774566,-4,1,-3,-4,-10,-22,7,-4
1519732260774566,-8,-8,-5,-3,-4,-4,-6,-5
1519732260781585,10,8,8,4,14,15,5,5
1519732260781585,-15,-9,-9,0,-6,-6,-8,-7
1519732260797627,7,0,3,-3,-7,3,1,2
1519732260797627,4,1,-6,-4,-1,-12,-10,3
1519732260798631,3,-4,-6,-6,2,7,14,5
1519732260798631,-7,-2,1,3,3,-7,-6,-5
1519732260810663,11,7,0,1,-1,0,5,9
1519732260810663,-1,1,0,-2,1,11,4,-6
1519732260819687,-2,-2,-1,0,-1,-3,-5,-3
1519732260819687,5,-4,-2,-2,-3,6,2,15
1519732260834732,-19,-14,-5,-2,-3,-20,-9,-15
1519732260834732,-8,-4,0,-1,8,13,-4,-7
1519732260840742,6,4,0,-3,-8,-6,2,0
1519732260840742,2,1,-7,-1,1,1,2,-3
1519732260857788,7,6,9,2,3,1,0,3
1519732260857788,14,8,7,6,0,-3,5,13
1519732260858790,-32,-16,-5,0,-1,7,-8,-12
1519732260858790,3,-2,-6,-7,-3,-8,-1,-2
1519732260870822,9,6,-1,-1,2,13,4,5
1519732260870822,-5,-2,-3,-1,-4,1,-8,-1
1519732260879846,11,8,10,3,4,2,3,8
1519732260879846,-8,-1,2,3,-4,3,2,-3
1519732260893884,-7,-3,-5,-4,1,0,7,10
1519732260893884,8,-4,-3,0,-2,20,14,16
1519732260900903,1,1,-3,0,-1,-8,-6,-6
1519732260900903,-6,0,-2,-1,-2,-9,-12,-4
1519732260917956,10,7,3,0,-2,0,7,1
1519732260917956,-15,-16,-4,0,0,-10,-5,-5
1519732260918951,-6,1,-2,0,-3,-5,-4,-6
1519732260918951,-2,-6,0,-2,-3,-4,-2,-2
1519732260930982,3,2,0,-1,-1,7,1,0
1519732260930982,5,5,0,-1,-2,-12,-5,-2
1519732260940007,-3,-7,-2,-1,1,5,5,-4
1519732260940007,-10,-1,-1,0,2,-1,-3,-6
1519732260954044,6,5,-3,0,2,2,0,0
1519732260954044,-4,2,-2,-1,-3,-3,-4,-8
1519732260961065,-1,-7,-5,-3,-4,-1,6,5
1519732260961065,-1,2,5,-1,-4,-3,-4,0
1519732260977105,-4,-8,-4,1,-2,-1,0,2
1519732260977105,-7,-1,-1,-2,4,10,1,-2
1519732260979110,5,7,1,-1,-5,3,-2,3
1519732260979110,5,-4,-1,-3,-3,-6,5,-1
1519732261000167,-7,-3,-2,1,-6,-6,-11,-7
1519732261000167,-9,-1,0,1,6,6,2,-8
1519732261001169,9,-1,0,-1,-2,-3,0,7
1519732261001169,4,1,2,0,2,5,1,5
1519732261015207,-10,-2,-3,-3,-5,0,-1,-11
1519732261015207,-2,-2,-3,0,3,-8,0,-3
1519732261021222,9,3,1,0,2,1,2,0
1519732261021222,1,-2,-2,-1,0,-4,-2,-2
1519732261037265,-15,-7,0,-2,4,3,1,-3
1519732261037265,5,3,-1,-4,-8,2,-1,3
1519732261039271,-2,0,1,-2,-3,-11,-4,-4
1519732261039271,5,7,1,1,4,13,1,0
1519732261060326,3,-1,-4,-2,-6,-18,4,-1
1519732261060326,-6,-4,-1,-2,-7,0,2,-1
1519732261061329,-1,1,0,0,2,-1,-5,1
1519732261061329,3,3,0,0,2,5,-1,0
1519732261074363,-5,-3,0,-2,3,3,-2,-3
1519732261074363,1,1,-3,-2,-1,-15,-12,0
1519732261081382,-4,1,0,-1,-2,-2,1,-2
1519732261081382,0,-2,-1,1,-2,-5,-2,-2
1519732261097425,22,6,1,0,2,6,7,9
1519732261097425,-16,-12,-4,-3,-2,3,-8,-6
1519732261099436,-7,-5,-4,-3,-4,-5,-4,-6
1519732261099436,-12,-2,-2,-3,1,-2,-2,-6
1519732261119484,8,-3,1,2,0,4,0,2
1519732261119484,-3,-1,-1,-3,-1,-6,-8,-12
1519732261121489,4,-5,0,3,-5,-6,11,8
1519732261121489,0,0,0,-1,-2,1,5,0
1519732261133523,-6,-2,-3,-1,-1,1,-7,-7
1519732261133523,5,4,1,-1,-4,-5,3,1
1519732261142545,7,4,-2,1,1,0,-3,1
1519732261142545,-12,-9,-6,-2,-2,-3,-2,-5
1519732261157585,4,4,0,-1,-5,-6,-1,4
1519732261157585,-7,-6,-4,-2,-6,-15,-9,-3
1519732261158588,5,6,-1,0,1,0,-4,-3
1519732261158588,-2,-4,-1,-3,-1,-6,0,1
1519732261179644,9,15,4,4,2,7,-2,4
1519732261179644,-21,-11,-4,-4,-5,-13,-5,-7
1519732261181649,3,1,-1,0,7,8,5,-7
1519732261181649,1,0,-3,0,2,-1,-5,-2
1519732261193681,-8,-2,-2,-2,-2,1,-1,-8
1519732261193681,20,5,1,1,0,0,1,11
1519732261202705,1,1,2,3,-2,8,2,4
1519732261202705,-2,-3,-2,-2,-3,1,1,-1
1519732261217745,-7,-4,-3,-2,1,-2,-6,-4
1519732261217745,2,2,2,0,2,2,5,4
1519732261218748,-1,2,0,-2,-2,11,-3,-6
1519732261218748,-4,-3,0,1,0,-6,-8,-13
1519732261239804,-3,-2,-1,1,1,-4,-2,-1
1519732261239804,-1,2,-1,0,-8,-19,0,-1
1519732261241809,-7,-6,-4,-3,-3,-7,-9,-6
1519732261241809,11,5,2,2,3,15,12,6
1519732261253841,-10,-4,-4,-3,-3,-4,-8,-6
1519732261253841,-6,-7,-4,-1,1,3,-2,-6
1519732261262865,6,4,0,0,-1,-2,3,6
1519732261262865,0,-3,1,0,-2,5,6,5
1519732261277905,3,-4,-1,1,0,-5,-1,10
1519732261277905,3,1,-2,0,3,9,5,-3
1519732261278908,-4,0,0,-3,-3,-6,-11,-8
1519732261278908,1,-2,0,0,1,10,-6,-2
1519732261299965,9,5,1,-1,-6,-20,4,8
1519732261299965,-6,-3,0,1,3,8,3,-3
1519732261301970,-3,-1,-3,-2,-3,-22,-4,-1
1519732261301970,-13,-15,-5,-1,-2,-3,-1,-3
1519732261314001,0,2,0,0,0,6,1,-5
1519732261314001,6,-1,-1,0,2,5,0,5
1519732261323025,-14,-10,-4,-5,-5,-1,3,-5
1519732261323025,8,9,-1,-3,-3,-8,-5,-3
1519732261337062,-13,-9,-3,-1,0,2,-3,-7
1519732261337062,8,4,0,-3,-1,2,3,5
1519732261339068,2,1,1,2,-1,0,-2,3
1519732261339068,-3,-3,0,0,0,-1,-8,-5
1519732261360124,9,3,1,1,2,-4,7,6
1519732261360124,-17,-8,-4,-3,-2,3,2,-11
1519732261361127,3,1,-1,1,3,2,-14,-3
1519732261361127,-8,-3,-3,-3,-3,-3,-2,-3
1519732261373158,-5,-6,-2,2,4,8,-2,-3
1519732261373158,14,8,0,-3,-2,-6,2,8
1519732261383189,-4,-5,-1,-2,2,-1,-3,1
1519732261383189,5,8,7,5,1,3,2,-1
1519732261397222,-3,-1,0,-1,0,-3,-1,5
1519732261397222,-5,2,-1,0,0,6,-5,-10
1519732261399235,0,-8,-3,-2,-4,-8,1,0
1519732261399235,6,7,0,1,-1,-4,1,5
1519732261420284,3,-2,0,1,0,7,1,4
1519732261420284,5,0,0,3,-4,-5,-1,3
1519732261421286,-11,1,1,1,7,9,3,-3
1519732261421286,-3,-1,-3,-2,-7,-17,0,2
1519732261433320,0,3,-3,-4,-4,-9,-8,-4
1519732261433320,7,8,5,4,1,5,0,6
1519732261442342,-4,-8,-4,1,2,16,15,1
1519732261442342,-9,-8,-5,-4,-4,-2,1,-4
1519732261457382,2,3,-1,-1,0,1,1,-2
1519732261457382,3,0,-2,1,1,-1,7,7
1519732261459388,8,6,3,0,3,3,2,4
1519732261459388,-8,-6,-4,-4,-7,0,-3,-3
1519732261480444,1,-4,-3,-3,0,10,2,1
1519732261480444,-12,-3,2,-1,-3,-8,-2,-6
1519732261482455,2,3,-3,-2,-4,-4,-4,0
1519732261482455,-15,-19,-8,-3,2,6,0,-6
1519732261493479,7,7,1,-2,-3,-9,-2,-1
1519732261493479,-4,-10,4,2,1,-13,-15,1
1519732261502503,5,5,-2,1,-1,1,7,-2
1519732261502503,16,14,-2,-3,-1,-3,1,4
1519732261524561,-9,-3,4,3,1,0,-3,-3
1519732261524561,-16,-7,-2,-5,0,1,1,-6
1519732261527569,3,0,-1,4,0,-7,-5,1
1519732261527569,-6,-9,-4,-3,2,1,1,-1
1519732261539601,-4,-8,-3,-4,-2,-7,-2,-2
1519732261539601,14,14,0,1,4,19,9,5
1519732261541607,-3,-1,-4,-3,-10,-18,-6,-1
1519732261541607,0,1,11,5,7,0,0,0
1519732261553639,11,2,-1,5,2,2,0,2
1519732261553639,1,-2,-4,-4,-6,-4,2,-1
1519732261562663,-16,-10,-5,-6,-2,3,-4,-9
1519732261562663,0,3,-3,-4,-3,-1,-6,-1
1519732261577703,-1,-5,-1,-2,-8,-12,4,0
1519732261577703,3,2,1,-1,4,2,8,1
1519732261578705,1,1,-3,6,6,-4,-5,0
1519732261578705,0,4,11,2,-3,0,-12,0
1519732261599770,2,6,-2,-3,-2,10,0,-1
1519732261599770,-3,-7,-9,-5,-1,-2,-1,-3
1519732261601767,11,5,4,-2,-3,-1,4,9
1519732261601767,-38,-12,-5,-3,-6,-5,-6,-19
1519732261614801,-7,-3,-1,-2,5,3,-1,2
1519732261614801,20,9,4,4,-2,-4,-5,2
1519732261622823,-9,-9,-5,-4,-1,0,-4,-2
1519732261622823,12,3,-1,3,2,-2,1,2
1519732261636860,-7,-1,-3,-3,-5,5,6,-5
1519732261636860,-20,-16,-6,-6,-1,4,0,-6
1519732261643879,20,9,9,4,1,2,1,7
1519732261643879,7,2,-2,-3,2,3,5,6
1519732261659922,0,2,-4,2,-4,0,2,-1
1519732261659922,-7,-11,-3,-3,-4,0,-7,-4
1519732261661927,-3,-2,-3,-2,-5,-1,-3,-2
1519732261661927,2,0,-1,-2,1,-7,-4,4
1519732261673958,-9,-1,2,-2,3,2,-1,-3
1519732261673958,14,7,-1,1,-1,1,-1,6
1519732261682986,-7,-7,-5,-5,-4,1,-6,-4
1519732261682986,7,2,-7,-4,-6,-6,2,1
1519732261697020,0,-1,5,1,-1,-3,-1,1
1519732261697020,-8,-3,4,1,2,2,-5,-5
1519732261704038,-5,-2,4,4,4,2,-1,-4
1519732261704038,8,5,-1,4,-4,-18,5,11
1519732261720081,-3,-6,-4,-5,0,9,1,1
1519732261720081,17,14,-1,-1,1,-10,-9,-4
1519732261726098,-12,-8,-2,-4,-4,-6,2,-1
1519732261726098,0,-2,1,2,4,12,2,-9
1519732261734123,3,1,-2,-1,-6,-3,-1,7
1519732261734123,-10,-3,3,3,7,-1,-10,-17
1519732261742140,-1,-6,-9,-11,-2,-4,-2,1
1519732261742140,6,7,6,1,-4,4,2,1
1519732261757180,5,4,5,4,7,10,5,5
1519732261757180,1,0,1,4,-5,-13,1,9
1519732261763197,1,10,-1,-2,3,11,5,-3
1519732261763197,-14,-18,-14,-6,-6,-7,-7,-5
1519732261780241,-5,-5,-1,-6,-2,-3,-3,-12
1519732261780241,12,9,0,5,7,4,8,9
1519732261781245,1,5,7,4,2,-10,-15,-20
1519732261781245,4,6,0,0,-2,5,7,10
1519732261793277,4,-5,-6,-4,-1,-15,-10,0
1519732261793277,-25,-22,-5,-4,-8,-1,-1,-9
1519732261802300,5,6,2,2,0,6,8,5
1519732261802300,-9,0,-2,-4,-1,-5,-12,-11
1519732261817345,6,6,0,4,8,6,-2,-1
1519732261817345,-4,-5,-5,-6,-3,10,13,5
1519732261823356,8,0,0,-1,-1,-1,0,6
1519732261823356,-6,-3,3,0,1,0,2,-3
1519732261840401,-7,1,-4,-4,-5,-2,-1,-5
1519732261840401,4,5,-4,-5,-7,-8,2,5
1519732261841404,-1,-4,1,3,6,5,5,5
1519732261841404,-1,-1,-1,0,1,4,1,-7
1519732261853436,-5,-5,-2,0,-3,-7,-5,-2
1519732261853436,9,6,2,0,-2,0,-1,5
1519732261862460,-12,-8,-3,-2,-3,-1,-1,1
1519732261862460,10,7,2,-1,0,-5,-8,-3
1519732261876497,4,3,2,1,4,6,4,-2
1519732261876497,-11,-3,0,-1,-5,-4,1,0
1519732261883517,-6,-3,-3,1,0,-2,-1,-3
1519732261883517,-5,-5,-3,-2,-1,-5,1,4
1519732261899565,-1,2,-1,-1,-2,0,1,3
1519732261899565,-7,-4,-1,-1,2,0,-1,-5
1519732261901565,4,-1,-3,-3,-5,-3,9,5
1519732261901565,0,-1,2,4,5,9,-1,1
1519732261913596,-12,-1,0,1,-2,8,2,-2
1519732261913596,-4,-2,-2,0,1,-5,-2,1
1519732261922620,0,0,-1,0,-4,2,-2,-3
1519732261922620,9,4,-1,-5,0,6,10,9
1519732261936657,5,-6,-3,-2,2,-3,-4,2
1519732261936657,1,2,3,3,2,4,0,1
1519732261943676,-9,-1,-1,-3,-4,-5,-7,-11
1519732261943676,-6,-4,1,0,-2,-3,-4,-5
1519732261959719,-4,-1,-1,1,-1,0,0,3
1519732261959719,9,5,0,-1,-2,-13,-1,-4
1519732261961725,-6,-10,-3,-4,-6,-4,0,6
1519732261961725,2,0,-3,1,5,-4,-5,1
1519732261982785,7,6,0,1,1,10,8,0
1519732261982785,4,6,4,3,3,5,-1,0
1519732261983783,-12,-3,-2,-2,-1,0,4,6
1519732261983783,0,-2,-2,-1,-4,-4,-5,2
1519732261996817,-9,-12,-7,-4,-1,-4,-5,-2
1519732261996817,0,0,-3,-3,-6,-6,-6,-4
1519732262003836,0,-2,-1,0,3,10,3,-6
1519732262003836,-3,0,0,2,2,4,2,-4
1519732262019879,7,3,3,1,2,-3,-6,-4
1519732262019879,2,0,-3,-3,-5,-6,-3,1
1519732262021884,7,3,2,-1,0,-4,-5,-4
1519732262021884,0,-2,-2,-3,-3,6,-2,-7
1519732262042940,-3,-3,-1,0,-2,3,-3,1
1519732262042940,4,2,0,0,-2,-8,0,2
1519732262043943,19,4,1,2,1,-4,-3,10
1519732262043943,-29,-9,-5,-4,3,7,-5,-16
1519732262056977,-4,-4,-2,-2,-5,-12,5,-4
1519732262056977,-5,-2,-2,-5,0,12,-1,0
1519732262063996,-1,3,2,1,2,-7,0,0
1519732262063996,14,2,1,1,2,-2,-8,4
1519732262080039,0,-4,-6,-4,-2,1,-8,-4
1519732262080039,5,4,2,2,3,-9,-4,-5
1519732262082048,-3,-3,-1,0,-3,-1,-2,-3
1519732262082048,-2,-1,0,-1,-5,-6,2,-1
1519732262102098,-5,-2,-1,0,0,-3,-2,-3
1519732262102098,-8,-5,-4,-2,0,0,7,13
1519732262104103,-9,-6,-5,-2,-1,9,7,-3
1519732262104103,16,6,0,1,-3,-5,4,10
1519732262117141,-10,-10,-4,-2,-4,-2,2,-5
1519732262117141,-11,-2,0,0,-2,-2,-15,0
1519732262123153,6,2,1,2,5,11,7,4
1519732262123153,-1,1,-1,-4,-5,-3,4,-3
1519732262140199,13,6,2,4,1,6,6,11
1519732262140199,-10,-10,-4,-3,-6,-8,-2,-4
1519732262141202,1,0,-1,-2,2,7,5,-1
1519732262141202,10,5,3,1,1,-8,-9,1
1519732262162257,-4,0,1,0,-1,-4,-7,-1
1519732262162257,-1,1,-2,-2,-1,11,5,-9
1519732262164263,1,1,1,1,-2,-5,-3,0
1519732262164263,3,1,2,1,2,-7,3,7
1519732262176295,-19,-6,-4,-2,-3,-6,-12,-14
1519732262176295,3,-4,-4,-2,3,19,16,17
1519732262184319,-2,2,-5,-2,-4,-5,-1,-3
1519732262184319,5,3,0,-2,0,3,-2,1
1519732262200360,11,3,2,-1,-5,-8,13,5
1519732262200360,2,1,-1,-1,3,7,0,-5
1519732262201366,-4,-3,-3,-2,-2,-1,-5,-2
1519732262201366,-6,-2,-1,-3,-6,-1,5,-2
1519732262222417,0,-1,-1,-1,0,-3,-1,4
1519732262222417,-1,0,2,3,0,-6,-4,0
1519732262224423,0,2,-3,-4,-2,-6,-1,-2
1519732262224423,-4,-4,-3,1,-1,-3,-6,-7
1519732262236455,1,5,3,-1,1,10,7,-2
1519732262236455,4,-1,2,2,4,-3,0,-2
1519732262245479,-6,-1,-3,-4,-3,-7,-10,-7
1519732262245479,5,-1,-1,1,-3,0,-3,-3
1519732262259516,1,1,0,-1,-2,3,0,0
1519732262259516,-1,1,-2,-3,-6,-12,-5,-6
1519732262261522,8,5,0,0,-3,7,3,7
1519732262261522,-13,-6,-4,0,3,-9,-4,-6
1519732262282581,-9,-6,-2,-2,2,1,-1,-3
1519732262282581,3,3,-3,-1,-3,-20,-8,-2
1519732262284586,-5,-1,2,-1,-3,2,5,-5
1519732262284586,0,-1,-2,-2,-1,2,-4,-4
1519732262295612,-3,-5,-3,-3,-3,-5,-5,-2
1519732262295612,8,5,2,3,4,13,15,2
1519732262304636,-8,-5,-2,0,-3,-13,-16,-7
1519732262304636,-2,-2,-2,-1,-1,8,8,13
1519732262319677,-2,1,-1,-2,-4,-14,-12,-6
1519732262319677,-1,-3,-3,-2,-3,9,4,-3
1519732262321682,0,-2,1,0,4,-4,-6,-3
1519732262321682,0,1,0,-2,-5,-5,5,2
1519732262342738,-3,3,1,-1,0,-7,2,2
1519732262342738,-9,-11,-3,-2,-2,-1,-5,-2
1519732262343740,9,6,-1,2,4,2,-4,3
1519732262343740,-11,-6,-5,-5,-6,-22,-11,-8
1519732262355772,8,8,3,2,4,9,6,3
1519732262355772,0,-2,0,0,1,-5,-8,0
1519732262364796,2,-2,2,1,-2,1,8,2
1519732262364796,7,-1,0,1,1,2,3,7
1519732262379836,-6,-4,-3,0,0,-5,-3,-10
1519732262379836,-11,-4,-4,-1,5,-6,-24,-13
1519732262381852,3,3,2,-1,-6,-3,-1,6
1519732262381852,3,-4,-6,-5,-2,4,0,-2
1519732262402898,5,1,-1,-2,0,7,-1,8
1519732262402898,0,3,2,0,2,3,11,1
1519732262403900,-7,-3,-1,2,-3,-6,-4,-3
1519732262403900,-8,-3,-2,1,3,9,-5,-6
1519732262415938,0,-2,-4,0,-4,-8,2,3
1519732262415938,4,1,1,-2,-2,12,7,-3
1519732262424957,1,-1,0,1,4,3,-11,-5
1519732262424957,0,0,2,3,1,7,3,0
1519732262439996,-3,-2,-2,0,-1,3,0,-5
1519732262439996,-1,-4,-3,-1,-2,2,-8,0
1519732262442002,-2,-2,0,-2,-8,-24,6,3
1519732262442002,-3,-4,-2,-4,3,1,-7,-9
1519732262462055,4,5,-1,-1,-2,2,-1,0
1519732262462055,2,1,2,1,-1,-10,-2,2
1519732262464061,2,-1,-3,0,4,7,-6,1
1519732262464061,-1,2,1,1,-3,-8,4,3
1519732262476093,-2,3,3,0,1,-5,-4,-1
1519732262476093,4,2,1,-2,1,21,4,3
1519732262485118,5,-1,-1,-2,1,6,6,5
1519732262485118,-2,-2,-3,-3,-7,-10,-4,0
1519732262500157,-9,-7,-4,-1,7,16,3,-4
1519732262500157,3,1,-1,0,-3,-27,-22,-4
1519732262501160,2,1,2,2,2,9,0,1
1519732262501160,3,5,2,1,-3,-2,6,0
1519732262522215,-9,-8,-4,-1,-6,-12,-7,-2
1519732262522215,0,2,0,-1,1,3,8,2
1519732262524221,-16,-8,-2,-1,0,-4,-9,-8
1519732262524221,13,9,2,1,3,7,-2,4
1519732262536253,3,1,-1,1,-6,-12,0,-1
1519732262536253,-16,-10,-7,-1,-5,-4,-12,-5
1519732262545277,2,2,-1,-5,-1,0,8,-3
1519732262545277,-14,-17,-2,3,4,14,7,4
1519732262560316,10,14,1,-2,4,2,2,1
1519732262560316,-2,-5,-3,-5,-3,5,-5,-5
1519732262561319,-1,-5,2,1,2,5,4,1
1519732262561319,-11,-3,-1,-1,0,-2,-4,-5
1519732262582394,7,-4,0,2,3,2,3,1
1519732262582394,0,5,-6,-5,2,5,4,1
1519732262584381,3,3,-2,-2,-10,-13,6,-1
1519732262584381,2,-1,-1,-1,3,1,-3,1
1519732262596412,-3,-5,2,1,3,7,-8,0
1519732262596412,-7,-2,1,0,-6,-16,11,-2
1519732262605437,9,3,-1,-1,1,-2,-6,0
1519732262605437,3,3,-1,-1,0,8,5,0
1519732262619474,-15,-10,-6,-3,-5,-10,-4,-9
1519732262619474,6,1,2,2,4,0,-2,0
1519732262621480,4,6,-1,1,4,2,-1,2
1519732262621480,-4,-5,2,1,-1,11,-2,-3
1519732262642535,-3,-6,-3,-3,-1,2,-6,-1
1519732262642535,-4,-5,-2,-4,-6,1,1,0
1519732262644541,-11,-10,-3,0,-1,-3,5,-2
1519732262644541,0,8,-1,-1,3,-2,-4,-3
1519732262656573,0,2,-1,-1,-3,6,6,-1
1519732262656573,7,6,1,-1,-11,-13,2,4
1519732262665600,10,0,1,0,3,10,7,3
1519732262665600,-30,-13,-8,-3,-4,-14,-20,-23
1519732262679634,3,0,-2,-5,1,-7,-1,7
1519732262679634,-6,2,4,3,-1,1,-1,-4
1519732262685651,12,9,2,2,-1,1,-6,1
1519732262685651,7,0,1,-2,1,0,3,3
1519732262702695,1,2,-1,-2,0,-3,-3,-3
1519732262702695,-7,-4,-3,0,6,6,2,-3
1519732262703698,-11,-6,-7,-6,-4,-2,-6,-4
1519732262703698,7,2,6,-1,-1,-8,3,3
1519732262715732,2,5,3,6,0,14,3,1
1519732262715732,3,-1,-4,-3,-3,-17,1,0
1519732262724755,-11,-5,-2,-1,0,17,11,-3
1519732262724755,6,3,-3,-2,-4,-1,-5,1
1519732262739794,-6,-3,5,3,7,-3,6,2
1519732262739794,26,17,2,2,2,8,2,5
1519732262753831,-4,-1,-4,-2,-3,-5,-4,-5
1519732262753831,-13,-15,-5,-2,-4,1,4,-5
1519732262762855,1,1,-1,-5,-7,-5,-2,2
1519732262762855,-12,-6,-1,1,5,9,-2,-2
1519732262763858,4,2,4,0,1,-11,-9,1
1519732262763858,13,7,4,5,1,4,9,8
1519732262775890,-7,-6,-4,-1,-3,-8,-8,-5
1519732262775890,-2,-3,-1,-2,-4,4,5,2
1519732262784915,-5,-7,-6,-8,-2,-1,-5,-5
1519732262784915,5,3,4,4,2,7,13,5
1519732262798955,-1,1,1,4,0,0,6,1
1519732262798955,-1,2,1,-1,0,0,2,2
1519732262805970,-3,-12,-7,-3,-2,-4,-5,-3
1519732262805970,-2,-3,-7,-3,3,16,2,4
1519732262823015,7,10,3,-2,-3,-10,2,2
1519732262823015,9,3,8,6,3,7,1,3
1519732262824018,-7,0,0,1,-1,-8,-2,-4
1519732262824018,-5,-4,-4,-3,0,2,-6,-2
1519732262836050,0,-5,-7,-4,-5,2,-8,-8
1519732262836050,-10,-6,-5,-2,0,-6,-8,-12
1519732262845075,3,2,3,2,-1,-2,3,5
1519732262845075,1,-3,-2,-2,-1,-11,-9,1
1519732262859111,7,8,-2,-3,2,9,0,4
1519732262859111,7,0,-1,-2,-1,1,4,6
1519732262866137,-28,-11,-1,2,1,-1,-6,-8
1519732262866137,6,4,0,-1,0,3,1,3
1519732262882178,1,-1,-2,-2,-5,-9,-2,-2
1519732262882178,-4,-3,-1,-2,0,1,3,7
1519732262884182,6,5,1,-2,-1,1,2,3
1519732262884182,3,1,2,-1,-4,-10,-1,1
1519732262905234,-6,-1,2,3,4,11,6,14
1519732262905234,-5,-8,-3,-1,-1,-1,0,-9
1519732262906237,9,5,1,-1,-1,-5,-4,-6
1519732262906237,4,0,-1,0,-3,-3,4,-1
1519732262918270,14,8,2,1,0,0,-5,6
1519732262918270,-4,-1,-2,-2,-6,-24,-2,0
1519732262928295,0,-6,-3,-3,-3,15,5,8
1519732262928295,-5,5,-2,-1,-1,-5,-9,-2
1519732262942332,1,-7,-1,0,1,3,7,-4
1519732262942332,8,5,0,0,3,7,-5,-2
1519732262944338,-13,-9,-2,0,0,5,2,-1
1519732262944338,-17,-8,-4,-4,-3,-15,-6,-3
1519732262965399,1,-3,-3,-5,-7,-4,-2,5
1519732262965399,-15,-7,-2,-2,-3,1,1,-7
1519732262966399,12,0,0,2,1,0,1,1
1519732262966399,17,11,1,-2,0,0,-5,2
1519732262979431,-15,-5,-1,-1,4,-1,-1,-10
1519732262979431,-2,-6,-2,-4,-6,-9,-2,2
1519732262986450,5,4,-1,-2,-3,-12,-11,-6
1519732262986450,-5,1,0,-2,-2,3,3,-4
1519732263002493,3,3,1,3,2,-7,-14,-9
1519732263002493,-2,-8,-2,1,4,12,5,3
1519732263005501,-14,-5,-3,-2,-2,-2,0,-2
1519732263005501,12,4,0,3,-2,-6,4,7
1519732263024551,4,0,-2,-2,-2,1,-3,-8
1519732263024551,-7,0,1,1,-2,14,1,-5
1519732263026557,-7,2,0,0,5,-3,-2,-6
1519732263026557,-8,-9,-5,-4,-3,-1,1,-2
1519732263038589,-1,0,2,1,-3,0,2,4
1519732263038589,-1,-6,-5,-2,-2,-4,-10,-4
1519732263047614,14,6,1,-1,-1,9,25,8
1519732263047614,-17,-9,-4,-4,3,4,-16,-7
1519732263062653,1,0,-1,0,-6,-22,-5,2
1519732263062653,5,2,1,0,3,7,7,-1
1519732263063655,0,1,-2,-2,-3,-6,-9,-2
1519732263063655,4,-1,2,3,0,7,6,6
1519732263084713,-10,-5,-2,-5,-4,2,0,0
1519732263084713,7,7,2,0,2,-5,-10,-1
1519732263086717,13,3,1,1,-3,-7,2,6
1519732263086717,-7,-3,0,0,0,-5,-12,-10
1519732263098754,-9,-6,-3,-1,2,9,0,-4
1519732263098754,6,7,2,1,-3,-12,-2,3
1519732263107773,-3,-1,0,1,4,14,-2,-1
1519732263107773,2,-8,-3,-3,-3,-11,-2,0
1519732263122813,3,2,-1,0,0,4,8,3
1519732263122813,-14,-4,-4,-5,1,17,5,-10
1519732263123821,-2,-2,0,1,1,0,0,-2
1519732263123821,5,5,2,1,-2,-5,-11,0
1519732263144872,1,0,-2,1,2,-17,-6,3
1519732263144872,-1,-9,-4,-1,-3,3,1,1
1519732263146877,-5,-1,-1,1,3,5,-7,-4
1519732263146877,6,3,-2,-3,-3,-6,1,0
1519732263158909,-5,-5,-1,-1,0,-3,-5,-6
1519732263158909,2,8,3,1,0,-4,-1,3
1519732263167933,4,-3,-4,-3,-3,-5,-1,-1
1519732263167933,-1,-1,0,1,-1,2,3,5
1519732263182978,2,2,-2,0,0,8,5,-1
1519732263182978,-2,-1,0,-2,-2,-8,5,15
1519732263183976,-6,-3,1,2,2,4,0,-2
1519732263183976,2,4,-3,-5,-4,-4,1,-4
1519732263205031,-1,2,1,0,-1,4,-5,-3
1519732263205031,11,5,-1,-1,0,5,2,2
1519732263207037,-4,-2,-2,-3,1,-5,-2,0
1519732263207037,-7,0,0,-1,-3,2,14,-2
1519732263219069,-1,-1,2,0,0,5,-10,-2
1519732263219069,8,7,2,2,0,-5,-3,2
1519732263228093,1,-2,-2,-1,-4,-2,-2,1
1519732263228093,0,-3,-2,1,1,5,3,-1
1519732263242130,-15,-6,-6,-5,-4,-11,-6,-10
1519732263242130,-10,-6,-1,-1,1,9,7,-4
1519732263244137,5,3,-1,-2,-4,-6,-6,0
1519732263244137,2,3,2,3,3,12,1,-1
1519732263265192,3,-5,1,2,-1,0,10,4
1519732263265192,-11,-9,-5,-5,-7,-22,-19,-10
1519732263266197,-1,2,-2,-3,-2,-11,-18,-1
1519732263266197,-5,-3,4,7,11,17,9,-2
1519732263278226,1,1,-1,-2,-3,-8,-6,0
1519732263278226,1,3,-2,-1,0,7,7,3
1519732263287250,-8,-8,-3,-3,-4,-3,1,-5
1519732263287250,-7,-3,-5,-3,-4,-12,-8,-4
1519732263302290,10,2,-1,-1,1,3,5,4
1519732263302290,-1,-3,2,1,1,-4,1,-1
1519732263304296,-6,6,3,1,-2,-8,-1,-3
1519732263304296,-1,-5,-4,-1,3,11,0,-2
1519732263325352,-1,2,0,-6,-1,2,4,-1
1519732263325352,3,1,2,3,-2,-5,-2,4
1519732263327357,-1,-7,1,-1,0,11,7,-4
1519732263327357,-3,-2,0,-1,-6,-7,4,3
1519732263338386,9,4,-6,-4,2,2,-3,2
1519732263338386,-1,2,2,-4,0,-5,-16,-9
1519732263347411,7,0,-1,1,-1,6,8,7
1519732263347411,3,9,5,3,1,-5,1,-1
1519732263362450,-6,-7,2,-1,0,-5,-6,-5
1519732263362450,-6,1,-1,2,1,-3,2,-2
1519732263364456,1,-1,0,1,0,4,5,3
1519732263364456,-3,-7,-7,-6,-4,-9,-6,-5
1519732263384509,0,0,0,-3,-2,-1,-1,-1
1519732263384509,2,-2,-1,0,2,4,-4,-1
1519732263386515,2,1,2,5,0,-5,-1,2
1519732263386515,0,0,-5,-2,-2,2,2,0
1519732263398547,0,1,0,-1,2,8,5,2
1519732263398547,-3,-5,-4,-1,-5,-3,0,-7
1519732263407571,-6,-1,-1,-1,-1,-5,-2,-5
1519732263407571,13,8,2,1,-1,-4,-3,6
1519732263421607,-5,-5,-3,-2,1,9,-3,-4
1519732263421607,7,0,-5,-4,-3,-3,1,2
1519732263428626,-25,-6,-3,-7,-4,3,-4,-15
1519732263428626,7,0,4,2,2,-8,-2,5
1519732263444669,-13,-3,-1,1,1,-1,3,-7
1519732263444669,1,-5,-3,-2,2,5,6,0
1519732263446675,5,4,-3,-1,-3,-1,-2,-2
1519732263446675,-7,-7,-6,-5,-4,-5,-6,-5
1519732263458708,1,-7,-2,-1,-4,-6,-8,-1
1519732263458708,1,5,4,4,2,6,10,4
1519732263467731,8,0,3,-1,2,-7,-2,5
1519732263467731,-17,-8,-3,-3,1,-2,-2,-7
1519732263482770,1,3,2,3,-2,-3,1,0
1519732263482770,0,-6,-5,-3,-1,2,0,0
1519732263483773,4,-1,-5,-1,1,9,3,1
1519732263483773,-4,-5,-3,-5,-10,-27,-18,-5
1519732263504829,18,7,3,2,5,10,6,11
1519732263504829,-17,-4,-4,-2,-1,-11,-15,-12
1519732263506834,0,1,0,-2,-2,1,3,2
1519732263506834,9,3,6,4,3,12,0,2
1519732263518866,-4,-3,-3,0,-3,-4,1,2
1519732263518866,9,3,2,1,-4,-12,-1,1
1519732263528893,-2,-5,-2,0,6,5,2,1
1519732263528893,-4,4,-2,-5,-1,0,1,-2
1519732263542930,2,-2,2,6,0,2,7,-1
1519732263542930,-10,-9,-6,-3,2,8,-4,-8
1519732263543933,7,4,-2,-2,-7,-25,-10,1
1519732263543933,-4,-7,-1,-3,-1,7,8,3
1519732263564989,0,2,-2,-5,-3,1,1,-4
1519732263564989,8,7,7,4,1,1,12,7
1519732263566995,3,-8,-3,1,1,-2,-5,-1
1519732263566995,-11,-3,0,2,0,6,-1,-7
1519732263579026,-8,-6,-1,-3,-2,-6,-4,-2
1519732263579026,4,2,-1,-4,2,3,-4,-1
1519732263588051,7,3,-2,-2,-9,-4,3,3
1519732263588051,5,4,0,0,4,4,2,5
1519732263602088,10,4,4,4,4,4,3,7
1519732263602088,-11,-2,1,2,-2,-4,-4,-5
1519732263609107,-6,0,-1,-1,3,2,1,-4
1519732263609107,0,-1,-3,-4,-4,-1,-3,0
1519732263625150,-6,-3,-2,-2,0,7,2,-3
1519732263625150,7,5,-1,-4,3,-6,-7,1
1519732263627155,-6,-7,-5,0,0,2,1,-4
1519732263627155,1,5,4,1,-1,-1,3,0
1519732263638184,4,0,-2,-1,-1,-2,-3,-3
1519732263638184,-1,-1,-2,-2,-8,-17,8,4
1519732263647241,-6,-1,-3,-1,-1,1,-5,-5
1519732263647241,5,-1,3,4,5,7,2,3
1519732263662248,-18,-13,-8,-6,-5,-18,-14,-11
1519732263662248,2,-2,-2,2,-2,1,-3,-1
1519732263668264,3,3,2,-3,-4,-1,5,2
1519732263668264,7,1,-5,-2,0,6,3,1
1519732263685309,1,5,5,-2,-3,-2,0,-1
1519732263685309,-13,-13,-4,1,4,10,-1,-4
1519732263687314,3,2,-2,1,-2,-11,-2,2
1519732263687314,-4,-3,-3,-2,-1,8,-1,-4
1519732263698344,-3,-2,-1,-5,-5,-8,-6,-3
1519732263698344,5,6,3,2,10,4,5,0
1519732263707368,-8,-9,-3,-4,-3,0,2,-7
1519732263707368,3,1,0,-1,-3,-11,-6,2
1519732263721405,-8,-3,-5,0,-3,-1,0,-3
1519732263721405,6,0,5,-2,-5,-2,-1,4
1519732263728424,-5,0,2,2,4,12,-5,-1
1519732263728424,0,-1,-5,-3,-2,-4,5,-2
1519732263745469,-2,-5,2,-1,4,6,7,1
1519732263745469,10,6,3,1,-2,3,-6,-3
1519732263747478,-1,-2,-2,-2,0,-5,-2,-3
1519732263747478,-3,-6,-5,-3,-4,2,-2,-3
1519732263758504,3,2,-2,1,-2,-5,-1,0
1519732263758504,-9,-9,-3,-3,-1,4,-1,-3
1519732263767528,13,7,2,0,0,0,4,8
1519732263767528,-13,-6,1,4,-3,-6,-1,-2
1519732263781566,4,1,-3,-3,-2,-3,-3,0
1519732263781566,5,6,2,0,-4,-2,3,3
1519732263788584,-3,-9,-1,0,0,0,-14,-21
1519732263788584,1,1,1,0,1,-2,1,0
1519732263804626,10,7,2,3,1,4,5,6
1519732263804626,-3,-3,-1,-2,-6,-16,-13,-4
1519732263806632,-12,-4,-7,-4,6,8,-9,-10
1519732263806632,8,-1,0,1,2,1,-3,-2
1519732263818665,1,1,2,1,-1,4,4,0
1519732263818665,1,-1,-2,-1,-3,-2,2,5
1519732263828691,3,4,2,2,1,10,4,7
1519732263828691,-10,-5,0,-2,-5,-16,-5,-3
1519732263841725,8,7,-2,-1,-1,-2,-1,3
1519732263841725,0,1,-2,-1,3,11,-3,-3
1519732263848757,-9,-4,-3,-5,-8,-9,7,8
1519732263848757,11,6,3,1,3,9,0,-6
1519732263864787,-10,-8,-2,-1,-1,-5,-4,-6
1519732263864787,-5,-2,-2,-1,0,12,5,1
1519732263866793,6,5,-3,-1,-5,-5,-2,-1
1519732263866793,-2,-6,-1,-1,3,3,3,2
1519732263887848,-6,-3,-2,-1,0,-1,-1,-3
1519732263887848,2,-2,1,2,0,-7,-3,-6
1519732263888851,2,-1,0,2,1,1,0,4
1519732263888851,-1,3,3,-1,-1,-1,0,-1
1519732263901885,0,0,3,2,4,15,6,2
1519732263901885,9,9,-1,-2,-6,-14,5,2
1519732263908904,-4,-1,3,0,-1,-10,-5,2
1519732263908904,-3,1,-3,-2,5,5,-4,-1
1519732263924948,-9,-4,-1,1,-6,-11,-5,-3
1519732263924948,6,0,-1,1,5,8,2,4
1519732263927955,-2,-2,1,1,0,5,11,5
1519732263927955,-11,1,-1,-2,-3,-2,-5,-7
1519732263948008,-3,-4,-1,-2,2,-6,-2,-3
1519732263948008,-5,-4,-2,-1,-1,5,2,3
1519732263949015,14,10,2,1,-5,-9,-8,7
1519732263949015,2,2,-2,0,7,26,5,7
1519732263962045,-3,-4,-1,-4,-11,-16,0,-4
1519732263962045,-8,-7,-3,-1,1,0,-5,-8
1519732263969064,1,0,-1,-2,2,-6,-2,1
1519732263969064,5,1,-1,-1,-2,3,5,2
1519732263985106,0,1,-1,0,5,6,-8,-6
1519732263985106,-6,-6,-3,-4,-6,-8,-5,0
1519732263993128,-10,-3,2,1,0,-6,0,-8
1519732263993128,7,0,-3,-1,-4,-7,-1,1
1519732264007166,3,2,-1,0,0,4,0,3
1519732264007166,-5,-7,-1,-1,0,0,4,-2
1519732264009171,0,1,1,0,0,6,-1,-1
1519732264009171,-2,0,1,2,1,-21,-11,-4
1519732264021203,-16,-8,-3,-3,5,17,0,-2
1519732264021203,3,1,-2,0,-2,-9,1,-1
1519732264030227,4,3,2,-1,-1,12,0,1
1519732264030227,-1,-5,-3,-2,-3,-6,-6,-2
1519732264045267,10,4,0,0,0,1,8,5
1519732264045267,-24,-6,-4,-5,-9,-16,-5,-8
1519732264046270,-5,-7,-4,-1,0,-1,-4,0
1519732264046270,-6,-2,-4,-4,-5,-6,-2,-3
1519732264067325,8,6,1,-1,1,2,-1,4
1519732264067325,17,7,4,4,1,14,10,9
1519732264069331,-20,-9,-4,-2,0,-10,-5,7
1519732264069331,-8,-8,-4,-3,-8,-3,3,-3
1519732264081362,-2,-2,-4,-1,-2,-11,-6,-2
1519732264081362,9,7,3,2,3,12,3,6
1519732264090387,4,4,1,-1,-4,-8,4,2
1519732264090387,-2,-1,3,2,0,-15,-4,3
1519732264105426,2,-1,-3,-4,2,25,3,0
1519732264105426,1,-3,0,0,1,2,-3,1
1519732264106430,-1,0,-4,-4,-3,6,0,-10
1519732264106430,-2,0,2,2,3,-3,-1,1
1519732264127485,0,1,-1,0,-3,-8,-4,-6
1519732264127485,-4,-1,0,-1,1,0,-4,2
1519732264129491,1,-4,0,-1,1,-1,-1,0
1519732264129491,-2,-4,-3,-1,-1,1,3,-1
1519732264141523,7,2,-3,-1,3,12,7,5
1519732264141523,-13,-10,-6,-5,-8,-34,-13,-10
1519732264150547,10,6,0,0,2,3,5,1
1519732264150547,-7,-7,-1,0,0,-2,-7,-3
1519732264165594,-8,-9,-3,-3,-5,-9,-1,-2
1519732264165594,-11,1,-2,-3,-1,9,-6,-6
1519732264166590,8,2,3,4,4,10,2,2
1519732264166590,4,3,-1,-2,-2,2,5,-1
1519732264187645,-4,-1,0,1,0,-7,-2,-5
1519732264187645,-3,-6,-4,-1,2,-3,-4,-4
1519732264188648,-2,1,-4,-4,-4,-3,-2,-5
1519732264188648,-3,-6,-3,-5,-3,7,3,-3
1519732264200680,3,2,2,1,1,-6,-15,2
1519732264200680,-3,0,-1,-2,-1,-10,2,-1
1519732264209704,-10,-4,2,5,4,7,3,-5
1519732264209704,5,7,0,0,0,3,2,0
1519732264224744,-5,-2,0,-1,-5,-3,-2,-2
1519732264224744,0,-1,-1,-3,-4,-2,-3,0
1519732264227752,6,-3,-4,-3,0,11,5,0
1519732264227752,-4,5,2,0,-5,-25,-10,-3
1519732264247808,4,3,1,2,0,1,3,0
1519732264247808,-2,-6,-4,0,1,13,-2,-4
1519732264248815,-5,-2,1,0,-2,-4,1,1
1519732264248815,-2,1,-2,-2,-4,-3,-3,-2
1519732264260840,3,2,0,2,1,-7,1,1
1519732264260840,11,6,1,2,-1,7,9,3
1519732264269864,-14,-8,-2,-3,-4,-26,-20,-8
1519732264269864,2,-3,-3,-2,1,9,3,0
1519732264284905,-5,-2,1,-3,-3,1,-5,-6
1519732264284905,-3,-6,0,2,2,6,7,-3
1519732264286911,0,1,-4,-3,-7,-7,-8,-4
1519732264286911,-3,-5,1,1,4,7,0,3
1519732264307966,-3,0,-3,0,-2,-3,4,0
1519732264307966,-1,1,-2,-1,-1,5,3,2
1519732264310973,-6,-3,-1,0,0,0,4,-5
1519732264310973,3,2,1,3,1,-6,-4,0
1519732264321000,0,-1,-3,-4,-5,-5,-2,-4
1519732264321000,-4,-9,-3,-1,2,2,3,1
1519732264338046,7,4,3,0,2,10,-1,4
1519732264338046,2,0,-2,-4,-9,-15,7,3
1519732264345064,-5,3,3,2,5,-5,-3,0
1519732264345064,-7,-1,-2,-3,-3,-2,-6,-4
1519732264347070,0,-4,-3,-2,1,6,-5,-1
1519732264347070,1,-2,-1,0,-5,0,7,2
1519732264367123,3,1,1,1,-1,0,0,3
1519732264367123,3,1,1,-1,-1,0,-7,-2
1519732264369128,4,0,-2,-2,1,0,5,3
1519732264369128,-3,3,3,4,2,7,2,0
1519732264381163,1,-5,-2,-1,-2,-5,-2,0
1519732264381163,3,5,-2,0,-2,-4,-1,2
1519732264390184,-3,-7,-4,-3,-4,-3,-3,-1
1519732264390184,5,2,0,-2,2,10,2,1
1519732264405224,-12,-8,-1,-1,-1,-3,2,-3
1519732264405224,10,8,3,2,4,10,4,1
1519732264406227,11,6,2,2,-2,-16,1,6
1519732264406227,-3,-2,-2,0,0,5,-12,-4
1519732264427283,0,1,1,0,1,0,-4,0
1519732264427283,-11,-5,-2,-3,-3,3,0,-4
1519732264429290,6,3,-2,0,3,5,2,1
1519732264429290,-7,-3,-1,-3,-1,2,0,-2
1519732264441320,4,3,0,0,0,2,3,2
1519732264441320,-4,-3,-4,-2,-2,-8,-10,-2
1519732264450345,1,2,-2,-1,-1,2,4,-2
1519732264450345,-8,-7,0,-1,1,-2,-2,-3
1519732264465391,12,12,1,-1,-1,3,-1,3
1519732264465391,-2,-5,-3,0,-3,-6,-1,3
1519732264466393,-9,-6,-2,1,-1,-7,-3,-3
1519732264466393,5,0,-3,0,3,14,5,1
1519732264487443,-12,-2,-4,-2,-1,1,0,-7
1519732264487443,-8,-9,-1,-1,-4,-13,-1,-3
1519732264489449,4,5,2,1,1,3,-4,0
1519732264489449,4,3,-3,-5,2,-7,-4,1
1519732264501480,-2,-5,-4,1,-1,4,3,-1
1519732264501480,3,5,0,-2,-1,4,-1,-2
1519732264510504,0,-2,-3,-3,-3,-4,-1,-2
1519732264510504,-13,-6,-2,-2,-5,-2,-2,-5
1519732264525545,-3,-2,1,0,5,6,0,0
1519732264525545,2,-3,-3,-2,2,-6,-3,-4
1519732264527550,1,4,2,2,-1,-1,4,3
1519732264527550,9,5,1,0,2,6,9,5
1519732264547607,-3,-8,-2,-1,-5,-7,-4,-4
1519732264547607,0,-2,-2,-1,0,4,-4,-2
1519732264549611,-4,-2,-3,-3,-7,-15,5,-4
1519732264549611,14,5,-1,0,0,-2,1,4
1519732264561640,-13,-4,1,2,2,5,-8,-7
1519732264561640,2,4,3,0,-3,-3,8,2
1519732264569661,-7,-3,-1,0,2,9,-2,-3
1519732264569661,6,3,2,1,0,-1,2,5
1519732264584701,-4,-12,-6,-4,-2,-9,-8,-3
1519732264584701,0,1,2,2,3,10,8,-1
1519732264586707,3,3,1,-2,-2,0,-1,4
1519732264586707,-13,-13,-3,0,0,-2,-1,-6
1519732264607763,0,3,-1,0,-3,1,1,0
1519732264607763,1,0,-1,-3,1,-4,-3,1
1519732264610771,3,1,-1,-1,-3,1,-1,-1
1519732264610771,-5,-5,-1,-1,-1,1,-3,-3
1519732264621802,6,3,-1,-2,-2,5,6,0
1519732264621802,-9,-3,-1,1,-6,-22,-13,-5
1519732264629821,-1,-2,-1,1,3,2,1,1
1519732264629821,-11,-3,-2,-3,-4,-1,-4,-6
1519732264644862,6,4,-4,-2,-3,-1,-1,2
1519732264644862,11,6,6,5,5,10,4,4
1519732264646867,-16,-9,3,1,-5,-14,-12,-10
1519732264646867,-7,-7,-5,-1,0,5,2,-2
1519732264667923,0,-2,1,-2,-1,-6,-1,1
1519732264667923,-1,-1,-7,-6,-2,5,2,-3
1519732264668926,2,0,-7,-5,-3,-1,-2,0
1519732264668926,4,5,3,2,3,0,-2,-1
1519732264680961,0,2,3,3,0,-2,1,0
1519732264680961,2,-1,-1,-1,-3,3,1,3
1519732264695998,-8,-6,1,3,1,0,-2,-3
1519732264695998,0,-4,-8,-4,-4,0,4,1
1519732264704019,9,8,1,-1,1,10,-2,1
1519732264704019,-4,-6,-1,-1,2,-1,2,4
1519732264712040,-4,-8,-2,-1,-2,2,1,0
1519732264712040,2,4,1,1,0,-3,-5,-2
1519732264727081,-4,-1,-2,-4,-3,-6,-1,-2
1519732264727081,1,-2,-3,-2,0,-7,-3,-2
1519732264729086,-1,2,1,0,6,6,-15,-4
1519732264729086,5,4,4,6,0,0,2,5
1519732264741117,-2,-1,1,-3,-4,-8,-3,-1
1519732264741117,-7,0,-1,0,-4,0,0,-3
1519732264750149,1,2,-4,-4,1,4,6,4
1519732264750149,4,-1,-1,-4,1,-12,-7,-3
1519732264764179,1,0,2,4,3,-2,1,2
1519732264764179,5,3,-2,-1,-2,-1,-1,2
1519732264771198,-3,-2,5,2,-4,5,4,1
1519732264771198,-8,-3,-4,-1,0,-3,-4,-2
1519732264787241,-4,-4,-2,-2,0,3,1,-1
1519732264787241,0,-3,0,0,-2,-2,4,2
1519732264789246,11,6,-2,-3,-3,0,1,2
1519732264789246,0,-2,1,3,-3,1,-2,-1
1519732264810302,-6,-6,-5,-3,1,-4,2,-4
1519732264810302,-6,-3,-3,-5,-3,-8,-9,-6
1519732264812307,8,4,0,0,0,0,4,4
1519732264812307,-4,0,2,0,-2,-4,-2,-1
1519732264824339,6,-4,2,4,3,11,0,-2
1519732264824339,1,3,-1,-1,-4,-9,-3,-1
1519732264831358,-2,-4,-4,-4,-4,-8,0,-2
1519732264831358,-8,1,-1,-2,1,5,1,-3
1519732264847405,-2,-5,-3,0,-4,-2,-1,2
1519732264847405,-3,-5,1,2,3,7,-1,-1
1519732264849406,-3,-4,-2,-1,-1,-1,-5,-4
1519732264849406,5,6,-3,-3,-3,-9,-4,-2
1519732264870462,0,-2,-1,-2,-5,-7,-6,1
1519732264870462,-1,3,2,2,0,2,0,0
1519732264871465,1,0,0,0,4,1,-1,2
1519732264871465,4,0,0,2,-4,1,1,0
1519732264884499,-5,2,0,-1,-1,-2,-2,-2
1519732264884499,9,2,-1,-1,-2,-1,-2,-1
1519732264891518,-3,-4,-2,1,0,-2,0,-1
1519732264891518,2,3,2,-1,1,-2,-3,-5
1519732264907565,-4,-4,-3,0,4,13,-2,-1
1519732264907565,-12,-7,0,2,2,-2,-1,-4
1519732264910568,11,5,0,-1,-3,-4,-1,0
1519732264910568,7,4,0,1,2,3,-1,4
1519732264929619,4,6,2,-1,0,-1,4,4
1519732264929619,-10,-8,-3,-4,-3,2,-10,-6
1519732264931629,-2,0,-2,-1,4,-5,-1,5
1519732264931629,-6,-7,-1,0,-1,1,0,1
1519732264943656,1,-1,-1,-2,-4,-6,-4,-4
1519732264943656,2,-1,-1,0,1,2,1,3
1519732264952681,-3,1,0,0,-1,1,4,-1
1519732264952681,-3,-2,-1,-1,1,0,0,-3
1519732264967720,-1,2,0,0,-1,-6,-8,2
1519732264967720,-3,-2,-3,-3,-3,-2,6,-2
1519732264968723,-3,-4,-2,1,0,3,3,0
1519732264968723,-5,0,1,-2,0,-2,-1,-3
1519732264989779,8,2,-2,-2,-3,0,1,3
1519732264989779,5,3,-1,-1,0,3,-3,1
1519732264991786,-3,-1,-1,-2,3,8,-1,-5
1519732264991786,8,-1,-2,-2,-2,-5,-11,-2
1519732265003816,-6,-5,-1,-2,-1,-6,-3,-1
1519732265003816,10,6,2,0,-4,-1,4,7
1519732265013844,-7,0,1,0,-1,-1,-1,-6
1519732265013844,-5,-6,-4,-3,-1,11,4,-1
1519732265027880,8,2,-2,-2,-3,-10,-2,0
1519732265027880,1,2,0,-2,-2,1,1,-4
1519732265028883,-5,-2,0,0,-2,-6,-10,-1
1519732265028883,9,7,2,1,0,3,3,5
1519732265049939,-28,-16,-5,-3,-1,-6,-3,-13
1519732265049939,-9,-6,-4,-2,3,5,-1,0
1519732265051945,8,3,-1,-2,-6,-7,1,2
1519732265051945,1,1,0,0,5,-1,0,0
1519732265063977,1,2,1,-1,-4,1,2,2
1519732265063977,-2,0,1,3,6,10,-7,-3
1519732265073001,-2,-3,-2,-2,0,-4,7,0
1519732265073001,2,2,-1,0,-6,-7,-6,0
1519732265087038,1,2,0,1,0,-2,3,-1
1519732265087038,-5,-1,-2,-2,1,5,-1,-4
1519732265089044,4,3,2,-2,-1,-1,0,2
1519732265089044,-12,-10,-4,-2,3,3,-2,-2
1519732265110099,2,-3,-6,-4,-7,-14,-4,10
1519732265110099,-1,-2,1,0,4,0,2,2
1519732265111102,8,3,0,1,-1,7,5,8
1519732265111102,-3,0,2,3,-5,-11,0,-4
1519732265124136,0,-3,-2,-1,4,-2,-6,0
1519732265124136,10,5,1,-1,-1,11,-4,2
1519732265132161,-13,-10,-3,-2,-1,-9,-1,-7
1519732265132161,-4,1,-1,-4,-2,1,0,2
1519732265147199,-1,0,2,1,0,9,1,-5
1519732265147199,12,7,1,1,0,2,8,5
1519732265149211,-12,-5,-1,1,1,-1,-9,-12
1519732265149211,-4,-2,-2,-3,-1,7,2,2
1519732265170259,6,5,1,0,0,0,0,-3
1519732265170259,1,-1,0,0,-4,-14,-7,0
1519732265171262,4,-2,-1,-2,0,7,3,4
1519732265171262,-14,-11,-5,-3,-3,-1,-4,-11
1519732265183294,-4,2,0,-1,-1,-9,-7,-6
1519732265183294,-6,-5,-1,2,-2,2,8,2
1519732265192318,6,2,-6,-3,-1,-9,-9,-2
1519732265192318,1,3,-1,0,-2,-4,2,-1
1519732265207359,-6,-4,-2,-2,1,8,-4,-5
1519732265207359,-11,-8,-4,-1,-4,-11,-7,-3
1519732265209363,0,2,2,2,-2,3,3,4
1519732265209363,2,2,1,1,3,5,3,-2
1519732265230420,4,0,-3,-1,-4,-15,-3,-6
1519732265230420,0,1,-1,-1,0,5,-2,-4
1519732265231423,-8,-5,0,0,5,13,-1,-4
1519732265231423,4,4,0,0,-1,2,3,1
1519732265243454,4,2,0,-3,-6,-1,4,3
1519732265243454,-3,-1,-2,-1,6,1,3,-2
1519732265252478,-1,2,1,-1,-2,-5,-8,-2
1519732265252478,-9,-6,-5,0,0,2,6,-5
1519732265267519,-5,-1,1,0,2,5,-2,-2
1519732265267519,11,5,-1,-2,-6,-6,2,3
1519732265269524,-25,-16,-4,-1,-1,-5,-6,-7
1519732265269524,10,6,2,0,0,-5,2,7
1519732265289577,-10,-4,-1,-1,1,12,6,-3
1519732265289577,0,0,-2,-2,-5,-13,-3,-1
1519732265291582,9,5,0,1,4,8,0,3
1519732265291582,4,1,-2,-2,-9,-33,-5,2
1519732265303614,-5,-3,-2,1,-1,6,1,-2
1519732265303614,-2,4,3,2,3,7,0,-3
1519732265313641,6,5,0,-1,3,12,15,2
1519732265313641,1,1,1,3,0,4,-6,0
1519732265334697,10,4,0,-1,-3,-12,-1,8
1519732265334697,-8,-6,-2,-2,-5,8,13,-1
1519732265336702,-9,-7,-3,-2,-6,-7,-4,-6
1519732265336702,0,-1,-2,0,5,10,-4,-3
1519732265349737,4,4,2,1,-2,-2,2,1
1519732265349737,-4,-5,-2,-1,1,-6,-6,-1
1519732265351742,10,4,2,-1,-4,3,3,3
1519732265351742,-2,-2,2,1,5,6,4,2
1519732265363775,-2,-4,-4,-5,-3,2,-1,-1
1519732265363775,-1,-1,1,2,7,4,-1,1
1519732265372798,-3,-2,-1,-1,-5,-10,1,0
1519732265372798,1,2,0,-1,-3,3,-4,1
1519732265387838,4,2,1,1,6,3,-5,-1
1519732265387838,9,7,-1,-1,-1,0,3,1
1519732265388841,-6,-5,-2,0,-3,-5,-2,-3
1519732265388841,2,-8,-3,-1,-1,3,3,1
1519732265409897,-12,-1,-5,-3,2,6,2,-8
1519732265409897,-6,-3,0,1,-1,1,0,-2
1519732265411902,5,2,-2,-2,-2,-2,-1,3
1519732265411902,-6,-1,-2,-4,-4,-10,-5,-6
1519732265423934,2,0,5,6,-1,0,1,4
1519732265423934,-11,-2,-1,-1,-2,-6,-6,-5
1519732265432959,7,0,-1,1,4,-10,2,2
1519732265432959,-2,-3,-2,-3,-1,9,1,-2
1519732265448003,-1,-2,-3,0,1,2,2,-1
1519732265448003,-2,3,0,0,-3,-1,2,2
1519732265450020,-1,0,1,1,5,-1,0,1
1519732265450020,-1,-2,1,-2,-1,0,-8,-4
1519732265470057,15,9,3,2,-2,-1,4,7
1519732265470057,-15,-14,-5,-1,-3,-8,-8,-7
1519732265472062,7,1,-3,-2,-1,11,2,4
1519732265472062,-4,-2,-4,-2,-3,-4,-1,1
1519732265484094,0,5,1,0,-2,-3,2,-3
1519732265484094,4,-10,-2,-4,-4,-2,-3,3
1519732265493119,6,6,3,1,2,0,-1,0
1519732265493119,-6,-3,-2,1,2,4,0,-3
1519732265507157,-16,-11,-5,-2,-3,-2,-7,-8
1519732265507157,7,7,1,-1,0,0,-1,0
1519732265509161,0,0,-2,-2,-3,-2,-5,-2
1519732265509161,5,2,1,0,3,3,3,0
1519732265530217,1,-4,1,2,4,-6,-1,-1
1519732265530217,6,5,1,2,2,0,-1,1
1519732265531220,-6,-2,-2,-2,-2,0,-3,-2
1519732265531220,-12,-3,0,0,-4,-7,-7,-5
1519732265543252,0,-6,-5,-4,-2,-3,5,-1
1519732265543252,0,-1,-5,-4,0,3,-3,0
1519732265552275,6,3,-1,-3,-5,-1,2,4
1519732265552275,-1,3,2,4,7,-3,0,0
1519732265567316,0,2,5,4,2,5,-3,2
1519732265567316,2,2,0,-2,-2,-1,5,-1
1519732265573332,-2,-3,-3,-5,-5,-3,2,-1
1519732265573332,2,-4,-4,-6,-4,0,-1,3
1519732265590377,-7,-8,-2,-2,-2,8,0,-3
1519732265590377,-1,-3,-3,-2,6,-4,-3,-3
1519732265591380,4,7,1,-2,-3,2,0,-2
1519732265591380,10,9,2,1,-6,-3,1,2
1519732265603411,-1,-11,-3,-1,4,4,4,2
1519732265603411,-6,-9,-5,-4,-6,-2,-1,2
1519732265620457,-12,-4,-1,2,5,-1,-6,-10
1519732265620457,-1,-3,1,-1,-1,3,-2,-1
1519732265626474,-2,4,-1,-3,-10,-12,-2,-1
1519732265626474,-1,1,0,0,-2,0,4,-1
1519732265633493,0,-1,-1,1,0,-6,-5,-2
1519732265633493,3,0,-4,-2,-1,1,1,2
1519732265649540,-9,-5,-2,-4,0,-1,-4,-3
1519732265649540,-4,2,1,1,-2,-9,-5,-2
1519732265651540,-9,-7,-4,-2,-2,18,5,-3
1519732265651540,8,0,-3,-1,-4,-18,-3,3
1519732265663573,-1,2,-1,1,2,2,-1,0
1519732265663573,3,2,-1,1,-1,-5,-1,-1
1519732265672595,-2,0,1,1,4,-2,-4,3
1519732265672595,5,4,-3,-2,-7,9,8,-1
1519732265686632,-6,-1,-4,0,3,-6,-6,-5
1519732265686632,0,-7,-3,-1,0,2,1,0
1519732265693651,4,2,0,-2,-2,-7,-6,1
1519732265693651,-9,-7,-1,1,2,1,-1,-2
1519732265709694,13,10,3,2,-1,-1,3,7
1519732265709694,-2,-1,2,2,2,7,-2,2
1519732265713706,-5,-6,-2,1,0,-1,5,-1
1519732265713706,-8,0,0,-1,-2,-6,-4,-3
1519732265732756,3,-4,-2,-4,-2,4,2,2
1519732265732756,-1,2,2,2,3,0,-3,-2
1519732265733759,-3,-1,-3,-1,-4,-3,-2,-1
1519732265733759,-2,2,0,0,-1,-1,-3,0
1519732265746793,5,-4,-3,0,-3,-13,-3,1
1519732265746793,17,9,-1,-1,-4,2,2,3
1519732265753812,-13,-6,-5,-2,0,-4,-5,-16
1519732265753812,-2,-5,-3,-2,-2,-4,-7,-3
1519732265769854,-4,-1,-1,-1,4,14,0,-1
1519732265769854,-10,-8,-4,-3,-6,-22,-6,-5
1519732265771860,11,7,0,-2,1,5,7,0
1519732265771860,-3,0,0,0,2,3,1,0
1519732265792916,0,0,0,-1,-3,-4,-1,-1
1519732265792916,-7,-6,-1,-1,-4,2,0,-4
1519732265793918,-4,-3,1,-2,1,1,-3,4
1519732265793918,-6,-2,-3,-3,2,2,-1,-4
1519732265806953,5,4,-1,-2,-1,-2,-1,1
1519732265806953,3,-1,3,0,-1,4,4,2
1519732265813972,-3,-3,2,1,-2,-2,0,-1
1519732265813972,2,-2,0,-3,3,-26,-5,2
1519732265830015,-8,-7,-3,-1,0,6,1,-4
1519732265830015,-8,-2,-5,-1,5,17,2,-11
1519732265832024,11,4,-1,0,-5,-12,-5,4
1519732265832024,1,1,0,-3,-3,2,-3,-3
1519732265852074,8,7,2,3,-2,3,-3,5
1519732265852074,-10,-5,-1,-4,-3,-10,-1,-5
1519732265854079,1,-4,-3,-2,3,2,0,0
1519732265854079,0,1,1,-1,0,5,5,0
1519732265866111,5,0,-2,1,0,1,-1,0
1519732265866111,3,3,1,1,1,4,2,4
1519732265875137,-13,-8,-1,2,2,2,-4,-5
1519732265875137,10,6,1,-1,-3,5,0,1
1519732265890175,-8,-7,-1,-3,0,-27,-10,-4
1519732265890175,11,2,-2,-4,-5,8,1,5
1519732265891178,-11,-3,-2,1,1,4,4,-7
1519732265891178,6,1,0,1,2,2,-6,1
1519732265912233,-10,-8,-3,0,0,-1,-1,-4
1519732265912233,6,7,2,0,2,-7,-4,4
1519732265914238,7,5,-3,-2,-2,6,1,1
1519732265914238,-6,-8,-4,-2,-3,-6,-1,0
1519732265926271,13,7,1,-1,0,7,4,7
1519732265926271,-9,-7,-1,-1,0,-2,-6,-4
1519732265935295,1,-1,1,-1,-3,1,1,3
1519732265935295,-2,-2,-1,-1,-3,-6,1,-1
1519732265950334,1,0,-2,0,6,12,2,-1
1519732265950334,-1,2,0,2,-3,0,2,1
1519732265951337,3,-1,1,-1,-1,-7,-3,1
1519732265951337,-5,-1,0,-2,3,14,5,-1
1519732265972394,-5,-5,-3,-4,-8,-1,3,-2
1519732265972394,-1,0,-1,-2,2,-2,-5,-2
1519732265974408,-8,-12,-4,0,2,-7,-4,-4
1519732265974408,14,7,1,-1,-1,11,3,9
1519732265986430,-6,-1,1,2,1,7,8,-3
1519732265986430,0,-3,-2,0,1,4,1,-2
1519732265993453,6,5,0,-3,-7,-22,-10,4
1519732265993453,-3,1,0,2,0,-1,-3,-6
1519732266010494,-15,-13,-3,-4,0,-3,-3,-6
1519732266010494,-7,2,0,1,1,-1,0,1
1519732266016518,4,2,-1,-1,-1,-1,0,0
1519732266016518,2,0,-1,-3,-5,-2,-1,-2
1519732266032558,0,3,-2,0,-1,-5,-4,-4
1519732266032558,0,-1,-2,1,-1,0,2,0
1519732266034559,-8,-1,1,3,4,4,0,-4
1519732266034559,-4,-4,-2,-2,-5,-15,-1,1
1519732266046592,7,5,0,-2,0,1,-2,-3
1519732266046592,3,1,0,-2,-2,3,3,0
1519732266053609,-10,-4,-3,0,3,-1,-4,-2
1519732266053609,-6,-9,-3,-1,-1,-1,6,-3
1519732266069651,4,2,-2,0,1,-5,2,3
1519732266069651,10,8,-1,0,1,3,0,4
1519732266071657,-10,-9,-1,-2,-5,-11,-10,-7
1519732266071657,2,0,-3,-2,3,8,-3,-5
1519732266092713,12,8,3,0,-4,5,1,5
1519732266092713,-10,-14,-2,-2,-2,-6,0,-1
1519732266093716,11,9,-2,-3,-1,5,1,6
1519732266093716,-9,-5,-3,-1,1,-4,-3,-3
1519732266106750,-4,-3,1,0,-1,-2,-1,4
1519732266106750,-5,-5,-1,0,-1,-4,-2,-2
1519732266120788,-5,-5,-1,-2,0,3,3,-2
1519732266120788,7,3,1,-1,-1,-1,-2,4
1519732266129812,-24,-15,-4,-4,-3,-5,-3,-4
1519732266129812,3,3,0,-2,-2,-2,-5,-8
1519732266131824,0,-4,0,0,-2,5,5,3
1519732266131824,7,9,3,3,2,3,-1,2
1519732266152873,-6,-6,-3,-3,-3,-2,-2,-2
1519732266152873,2,-3,-1,-1,-1,-4,-6,1
1519732266153876,2,4,-1,-3,-1,1,0,2
1519732266153876,6,4,3,1,-1,-6,-3,-3
1519732266166911,-5,1,0,0,7,12,-3,-7
1519732266166911,-3,-1,-3,-2,-7,-16,-4,-5
1519732266173929,20,5,2,0,2,2,5,8
1519732266173929,-13,-3,0,-2,-7,-11,-4,-4
1519732266189972,9,3,-1,4,6,28,8,1
1519732266189972,6,4,0,-2,-7,-8,3,5
1519732266191987,-10,-2,1,-1,-1,-11,-5,-4
1519732266191987,-8,-7,-2,-2,-2,17,7,-1
1519732266212030,3,5,3,1,-2,-6,-2,2
1519732266212030,5,4,-1,1,5,8,1,4
1519732266214038,-2,-3,-1,0,-4,-1,0,-5
1519732266214038,-2,-2,-1,1,0,0,-5,-3
1519732266226068,-19,-8,0,-1,-3,-11,-3,-6
1519732266226068,8,3,-2,-2,2,8,-1,0
1519732266241108,6,4,0,-1,-4,-9,-5,-7
1519732266241108,-4,-5,-1,-1,1,-8,-7,-2
1519732266250132,0,1,-2,-2,5,6,7,2
1519732266250132,-6,-3,0,-2,3,-2,0,-1
1519732266251135,4,0,0,0,5,14,9,7
1519732266251135,-11,-4,-1,0,-2,-7,-5,-9
1519732266272190,7,4,0,0,-7,-10,-2,2
1519732266272190,-4,1,0,-2,-2,11,-4,0
1519732266274198,3,-2,-3,-1,2,5,2,2
1519732266274198,-5,-7,-1,1,2,4,5,9
1519732266286228,8,4,-2,-2,-4,-5,-6,-6
1519732266286228,-1,4,2,1,-1,7,-1,-5
1519732266295252,-8,-10,-3,-1,-2,-4,0,0
1519732266295252,-6,-2,-2,-3,-2,2,3,-2
1519732266310292,-1,0,1,-1,0,-8,-5,-1
1519732266310292,1,2,-1,0,0,-4,0,1
1519732266313300,-6,-6,-4,-4,-4,-1,-9,-8
1519732266313300,7,4,1,1,3,4,7,2
1519732266332354,3,0,-1,-1,1,4,-3,5
1519732266332354,-3,0,-3,-3,-4,-17,-4,-3
1519732266334357,-7,-4,0,3,6,12,8,8
1519732266334357,7,1,-5,-1,-1,10,1,-5
1519732266346391,-3,-5,-3,-3,-3,-2,-2,-4
1519732266346391,-9,-6,0,1,-1,-6,-4,-1
1519732266355412,9,10,4,2,0,3,3,4
1519732266355412,-5,0,-1,-2,-1,-4,-4,-2
1519732266370452,4,2,0,0,-1,2,1,1
1519732266370452,-1,-12,-3,0,-1,0,6,12
1519732266371455,1,8,-1,-1,-5,-9,-6,-9
1519732266371455,-8,-7,-2,-2,0,-6,-5,-7
1519732266392511,-6,-6,0,-1,-1,-4,-2,-2
1519732266392511,10,10,2,1,1,1,6,4
1519732266394516,-16,-13,-5,-1,1,11,0,-3
1519732266394516,6,2,-1,0,-8,-8,-8,1
1519732266406548,3,-1,-2,-3,-6,-14,0,2
1519732266406548,-7,-6,-1,-1,0,1,-2,-4
1519732266415573,2,2,-1,0,-3,2,-2,-2
1519732266415573,-5,-4,1,2,9,-2,1,3
1519732266429609,2,-1,-3,-5,-2,-1,-5,-4
1519732266429609,-1,-4,-2,-1,-3,-6,0,-1
1519732266431619,4,4,1,0,0,5,2,0
1519732266431619,0,-2,0,1,2,2,1,0
1519732266452671,-4,1,2,1,-4,-12,-17,-3
1519732266452671,6,9,1,0,4,3,3,-4
1519732266453673,-16,-16,-3,-2,-5,-4,3,-1
1519732266453673,5,-2,-2,-2,-5,-1,5,0
1519732266466708,-2,-1,0,1,2,3,5,0
1519732266466708,-6,-4,-6,-2,-2,-1,-5,-4
1519732266474737,9,9,3,0,-2,-12,-7,1
1519732266474737,1,0,-1,-3,-2,11,-3,-4
1519732266489769,-4,-2,-2,-1,-4,3,1,0
1519732266489769,-3,-6,-2,-1,-2,-6,-2,-3
1519732266491775,2,-1,-2,0,5,3,-1,0
1519732266491775,-4,0,0,-2,-1,-7,-2,-3
1519732266512830,9,5,1,2,0,-2,-1,3
1519732266512830,-10,-9,-3,0,-1,6,-3,-3
1519732266513834,2,3,0,-1,0,-4,-10,-5
1519732266513834,5,1,-2,-1,-4,7,10,3
1519732266525865,-12,-7,-3,-3,-5,-16,-3,-2
1519732266525865,4,6,0,-1,-1,2,1,-2
1519732266534890,8,0,1,0,-2,-3,-7,6
1519732266534890,-19,-8,-4,0,0,0,-4,-12
1519732266549930,1,-1,-2,-1,1,4,6,2
1519732266549930,-2,-2,-1,-4,0,1,-2,-3
1519732266551935,3,6,2,-2,-3,-21,-4,1
1519732266551935,11,5,2,2,-5,-4,6,9
1519732266572993,-6,-4,-3,-1,4,16,7,-3
1519732266572993,-10,-6,-5,-2,-1,-8,-2,-4
1519732266573995,2,-1,1,2,2,4,2,1
1519732266573995,2,1,0,-1,-3,-10,-11,-1
1519732266586025,2,1,0,-1,-1,4,8,-2
1519732266586025,2,2,0,0,-6,0,-7,-2
1519732266595050,-12,-7,-3,-1,0,3,7,-2
1519732266595050,-4,-9,-1,-2,1,1,1,1
1519732266610089,10,15,-1,-1,0,-3,-2,0
1519732266610089,-9,-10,-3,-2,-1,-7,-2,-1
1519732266613097,4,1,1,0,1,14,5,3
1519732266613097,2,5,-3,-1,-2,-7,-7,-2
1519732266632155,-12,-16,-3,-2,0,0,0,-3
1519732266632155,10,8,3,0,0,3,0,2
1519732266634154,-8,-8,-1,1,-1,-3,-6,-4
1519732266634154,10,4,1,2,1,2,0,8
1519732266646186,-6,-1,-3,-4,-3,3,-4,-7
1519732266646186,-3,-1,-2,-3,2,2,1,1
1519732266655210,-6,-5,-2,-1,-4,-1,2,1
1519732266655210,3,8,2,3,4,0,0,-1
1519732266670249,3,-6,-2,0,1,2,0,1
1519732266670249,0,2,0,-1,-4,-2,2,1
1519732266671252,-3,-3,-2,-3,-4,-16,-7,-5
1519732266671252,2,4,-2,-2,-4,-2,4,0
1519732266692308,1,2,1,1,4,2,-8,-4
1519732266692308,0,-3,2,0,-1,-7,4,0
1519732266694314,-3,4,0,-2,-2,8,2,0
1519732266694314,-2,-3,-1,3,1,1,-1,1
1519732266722388,2,3,1,-2,-6,-14,-5,-1
1519732266722388,-7,-11,-6,-4,-2,16,3,-3
1519732266724394,5,6,2,0,2,-8,-1,-3
1519732266724394,2,-3,1,0,-1,-2,-1,2
1519732266730410,4,1,0,-1,-3,-2,2,2
1519732266730410,0,0,0,0,1,-3,-5,0
1519732266731415,3,1,-2,-4,-2,0,2,1
1519732266731415,-6,-4,1,0,5,4,4,2
1519732266752468,3,-1,-1,0,0,3,1,0
1519732266752468,-9,-1,-1,1,-1,-5,-11,-8
1519732266754474,7,4,0,0,0,2,8,4
1519732266754474,-6,-4,-4,-4,-4,4,-7,-7
1519732266774527,4,2,1,-1,-4,-9,8,6
1519732266774527,4,1,2,3,9,8,-3,5
1519732266782549,-5,2,-3,-1,1,3,-2,-6
1519732266782549,-11,-9,-2,-3,0,2,0,-4
1519732266789567,-1,1,2,1,1,-2,-1,3
1519732266789567,-2,0,-2,-2,-2,2,0,-1
1519732266796586,3,-2,-1,-1,-2,-2,-1,0
1519732266796586,18,14,0,0,1,-3,-1,4
1519732266812628,-15,-16,-7,-4,-4,0,-4,-9
1519732266812628,-6,0,-2,-1,-1,-2,-4,-6
1519732266814640,-9,-6,-4,-1,2,0,0,-2
1519732266814640,-3,-5,0,-3,-2,-7,-2,-4
1519732266834687,5,9,0,-2,-4,-3,-1,1
1519732266834687,0,1,1,3,2,-3,-2,-2
1519732266836692,-2,-4,-2,1,-4,-4,-1,1
1519732266836692,-3,-8,-5,-3,-3,-1,0,-2
1519732266848725,8,5,0,0,0,1,-4,3
1519732266848725,-9,0,-2,-5,-7,-14,-1,-5
1519732266857748,2,-1,-3,0,1,7,2,0
1519732266857748,-6,0,1,-1,0,-7,-5,0
1519732266872788,3,-1,2,2,1,6,-1,2
1519732266872788,6,3,2,0,-1,5,8,5
1519732266873792,11,3,3,1,3,4,5,4
1519732266873792,-16,-9,-7,-6,-4,-2,-4,-9
1519732266894850,-2,-3,-2,-4,-2,6,3,-2
1519732266894850,-1,-1,0,1,0,-11,-7,-2
1519732266896853,-1,-2,-2,-3,-5,4,2,3
1519732266896853,10,8,4,6,-1,6,4,5
1519732266908884,-7,-7,-2,1,3,2,0,-3
1519732266908884,4,-1,-1,0,1,6,3,4
1519732266917909,6,2,0,-4,-4,-3,-3,1
1519732266917909,-12,-2,-1,-2,-2,-7,-1,-8
1519732266932949,-9,-10,-9,-6,-4,-5,2,-5
1519732266932949,6,4,1,0,-2,-2,-3,3
1519732266933952,-1,-3,1,2,1,-6,-5,-5
1519732266933952,4,3,2,0,3,5,1,1
1519732266955007,4,1,4,4,4,-2,1,6
1519732266955007,-8,-8,-7,-4,-2,-1,-1,-8
1519732266957013,3,10,1,0,-2,1,-2,2
1519732266957013,-1,-10,-5,-1,-2,-3,-4,2
1519732266969044,10,12,5,-1,2,5,3,4
1519732266969044,-12,-8,-5,-3,-3,-3,1,-3
1519732266978068,-5,-1,1,0,-1,-6,-4,-3
1519732266978068,8,8,1,0,-3,-12,-1,4
1519732266993113,-1,-3,-3,-3,0,3,-5,-4
1519732266993113,14,7,2,2,-1,-1,2,6
1519732266994111,2,5,0,-1,-3,-2,2,-1
1519732266994111,-12,-8,-3,-2,1,2,-2,-5
1519732267015167,5,-1,3,3,-1,-10,4,4
1519732267015167,-1,2,0,-1,1,3,-5,-1
1519732267016171,-13,-12,-7,-4,0,-1,-2,-4
1519732267016171,5,-1,-3,-3,-2,2,-1,1
1519732267028202,0,7,1,0,-2,-6,1,0
1519732267028202,4,1,-1,-1,-4,-3,-1,2
1519732267037226,-1,-4,-1,1,2,1,-1,-1
1519732267037226,11,7,1,2,4,-2,-3,4
1519732267052266,-18,-10,-5,-1,3,14,-3,-13
1519732267052266,-4,-4,-3,-1,0,5,3,0
1519732267054271,2,-1,-2,-4,-9,-13,-4,1
1519732267054271,-7,-4,0,0,2,1,-3,-6
1519732267075327,4,3,1,2,3,-3,-5,2
1519732267075327,7,4,4,2,2,-2,1,3
1519732267076330,-8,-8,-5,-4,-3,5,0,-3
1519732267076330,0,0,-2,-1,-6,-2,0,-3
1519732267088362,0,-3,-1,-2,-2,-4,-8,-1
1519732267088362,-1,-2,1,-1,-1,-12,-7,-1
1519732267097386,-2,0,-2,-1,3,7,3,2
1519732267097386,-1,-5,-2,-2,-2,3,0,-2
1519732267112426,8,6,2,1,-2,-3,-2,2
1519732267112426,-4,-9,0,-1,-6,-8,1,-1
1519732267114433,-5,-3,1,0,2,7,-2,-1
1519732267114433,2,3,-2,-4,-6,-17,-8,-2
1519732267135487,4,1,0,2,1,0,6,4
1519732267135487,0,0,-1,2,3,3,-1,-1
1519732267136490,1,-1,1,2,0,-5,-5,-4
1519732267136490,-1,-3,-3,-1,1,9,6,-1
1519732267157545,-7,-6,-3,-2,-6,-5,-4,-2
1519732267157545,5,5,0,-2,-1,-2,0,1
1519732267159552,3,3,-1,1,3,-8,-1,2
1519732267159552,-15,-6,1,-1,-2,16,3,-7
1519732267172586,-3,-6,-4,-2,-1,-10,-4,-2
1519732267172586,-2,1,0,-1,3,10,1,-1
1519732267174592,2,-1,-2,1,0,0,1,-1
1519732267174592,14,8,4,2,-2,-3,3,8
1519732267194645,-5,-2,-2,-2,-2,-8,-7,-9
1519732267194645,-4,-2,-2,-3,1,29,2,-4
1519732267196654,4,6,0,-3,-7,-30,-2,2
1519732267196654,-3,-4,-1,-2,-2,0,1,3
1519732267208682,2,4,1,0,2,0,-7,0
1519732267208682,-2,-5,-1,-2,-4,1,1,1
1519732267217706,-10,-3,2,2,0,11,8,12
1519732267217706,10,-1,-6,-4,-1,1,4,3
1519732267232746,-5,-4,0,-2,-4,-12,-3,5
1519732267232746,10,6,0,-1,-1,-9,-4,0
1519732267233749,-2,-1,-1,1,0,7,3,-1
1519732267233749,-7,-4,-2,-3,-4,-10,-7,-8
1519732267254804,-6,-7,-5,-1,0,1,3,-1
1519732267254804,-4,0,-2,0,2,-1,1,1
1519732267256810,-2,-1,0,0,-3,-2,1,-6
1519732267256810,1,-2,1,2,2,-6,-8,-2
1519732267268842,-2,0,-3,-1,0,10,10,-4
1519732267268842,-1,-6,-6,-5,-4,-6,-2,0
1519732267277866,0,1,-1,1,1,0,-4,-7
1519732267277866,-12,-9,0,2,3,-2,-3,-5
1519732267292906,6,8,0,-3,-7,-9,0,-2
1519732267292906,2,-2,1,1,-2,4,4,0
1519732267293909,-9,-10,-4,-3,-2,-7,-10,-4
1519732267293909,2,2,1,1,6,7,5,4
1519732267314966,0,0,-1,-1,-3,7,1,-1
1519732267314966,0,2,0,2,2,-3,0,0
1519732267316970,3,-1,-2,-2,-1,4,-3,-2
1519732267316970,1,1,-2,-2,-2,-1,0,1
1519732267329001,-6,-2,-2,-1,0,-5,-5,-5
1519732267329001,4,-2,0,-2,-3,-20,-8,2
1519732267338027,-6,-2,-1,-1,-1,-1,2,-2
1519732267338027,0,1,-1,0,-1,0,2,-2
1519732267352063,3,2,1,-1,2,7,6,13
1519732267352063,-3,0,-2,1,2,1,-1,-1
1519732267354069,5,-1,1,-1,5,12,-4,-2
1519732267354069,-4,-1,-4,-2,-5,-19,2,5
1519732267375124,3,-3,-1,-2,2,7,2,-3
1519732267375124,14,5,3,2,1,4,-2,-3
1519732267377130,-6,-2,-2,-2,-2,0,-1,-4
1519732267377130,-13,-6,-1,-1,-5,2,3,-5
1519732267388160,15,12,3,1,1,-7,-3,6
1519732267388160,-6,-2,-1,-3,1,12,3,-3
1519732267398190,-2,-2,0,0,-4,-2,-3,-4
1519732267398190,8,5,3,-1,2,6,-4,5
1519732267413226,-9,-5,1,4,-1,-4,0,-3
1519732267413226,-18,-12,-4,-3,-2,-3,0,-5
1519732267418240,9,3,2,2,1,0,-5,4
1519732267418240,-7,-5,-7,-5,-9,-7,6,-14
1519732267435285,1,-1,-1,-1,1,1,-5,-1
1519732267435285,9,7,3,3,-1,-2,2,5
1519732267436288,-18,-9,-2,-3,-1,0,0,-6
1519732267436288,12,6,0,1,3,3,-7,-4
1519732267449326,-13,-8,-3,-2,-2,-4,-4,-8
1519732267449326,-4,-2,-1,-1,-3,-9,-6,-4
1519732267457343,11,3,-2,-4,1,9,4,4
1519732267457343,2,0,1,0,-1,-5,-2,0
1519732267471380,-9,-5,1,-1,-4,-8,1,-1
1519732267471380,-6,-7,-4,-3,-1,3,3,3
1519732267478399,2,5,2,0,-1,-5,-5,3
1519732267478399,2,2,-1,1,2,4,-2,4
1519732267495444,-3,-2,-1,1,1,2,-3,-9
1519732267495444,-8,-5,-4,-2,-2,-7,-7,-1
