timestamp,emg1,emg2,emg3,emg4,emg5,emg6,emg7,emg8
1529258670116875,-25,-19,-2,5,1,-5,-21,-20
1529258670116875,11,19,6,2,3,2,-1,-8
1529258670118870,-18,-10,-15,-12,-5,-6,-4,-2
1529258670118870,22,-1,8,5,2,4,4,8
1529258670131835,-29,-16,-20,-10,-4,-3,-4,-11
1529258670131835,-43,9,29,12,8,7,3,-20
1529258670137819,-44,-49,-19,-13,-11,-8,-2,-1
1529258670137819,90,43,19,21,15,13,11,24
1529258670154773,-18,-9,-3,-5,-3,-5,-9,0
1529258670154773,20,-25,-11,4,4,3,-2,4
1529258670155771,33,24,7,3,0,5,10,12
1529258670155771,-28,3,-5,-4,-2,-4,-12,-27
1529258670176715,-34,0,16,4,1,3,8,12
1529258670176715,-21,-24,-12,-6,-4,0,6,-1
1529258670178714,-10,-4,-1,4,1,1,-2,-6
1529258670178714,-46,-34,-4,-15,-9,-9,-5,-14
1529258670191675,32,38,20,13,8,8,5,17
1529258670191675,-30,-25,-6,-6,-7,-6,-7,-4
1529258670198656,42,43,19,15,8,8,13,17
1529258670198656,-1,13,8,-5,-4,0,-3,-12
1529258670214613,20,28,16,6,2,0,5,3
1529258670214613,-31,-19,-9,-5,-9,-14,-14,-10
1529258670216608,-16,-10,-7,-5,-3,-3,-2,-3
1529258670216608,22,14,4,8,6,0,-1,-1
1529258670237552,-1,-19,5,1,4,4,3,3
1529258670237552,16,56,14,-1,0,0,-1,2
1529258670238550,-66,-81,-29,-17,-12,-9,-4,-4
1529258670238550,-10,-17,-14,-1,-3,-4,-7,-9
1529258670251515,-16,-10,7,13,7,6,6,-18
1529258670251515,78,72,14,2,3,10,19,36
1529258670258496,7,-5,-9,-4,-1,-1,-3,5
1529258670258496,40,30,16,5,2,2,-4,-4
1529258670274454,3,-36,-12,4,4,6,11,2
1529258670274454,35,-1,-15,-1,0,2,14,7
1529258670276448,24,35,12,6,6,3,-5,4
1529258670276448,-49,-3,-16,-8,-12,-12,-9,3
1529258670297392,30,4,-15,-8,-5,1,8,4
1529258670297392,22,-9,-2,5,4,3,-6,-12
1529258670298390,62,44,5,0,-2,-1,2,4
1529258670298390,11,-1,-7,-2,-1,-5,-7,-19
1529258670310357,43,15,-2,5,4,7,12,17
1529258670310357,-44,-65,-30,-21,-13,-9,-2,-3
1529258670319333,8,-18,4,2,0,-1,-5,-5
1529258670319333,0,-19,14,19,14,10,-5,-1
1529258670334293,-66,-67,-33,-29,-15,-10,-4,-2
1529258670334293,-19,50,48,14,5,-1,-6,-10
1529258670336288,10,15,12,9,5,2,1,-18
1529258670336288,-5,-23,-3,-3,0,3,4,0
1529258670357232,-19,24,-3,-8,-10,-9,-8,3
1529258670357232,-9,-40,-33,-13,-4,-2,-8,-9
1529258670358230,-16,-2,-3,-15,-4,-2,5,11
1529258670358230,36,59,36,19,12,12,12,12
1529258670371195,-77,-54,-4,-1,-1,-7,-11,-12
1529258670371195,-11,-26,9,4,0,0,2,-7
1529258670380171,34,14,-1,9,3,2,1,9
1529258670380171,26,-32,-36,-17,-6,-1,9,26
1529258670395132,-7,9,9,2,-1,-1,-5,-10
1529258670395132,16,49,-3,-11,-15,-17,-10,7
1529258670396129,-76,-94,-26,-5,1,0,-6,-25
1529258670396129,-15,-10,-11,-8,-5,-4,2,16
1529258670417072,21,15,-1,-6,-6,-7,-5,5
1529258670417072,2,14,13,7,4,2,-1,4
1529258670419067,31,16,-3,-1,-2,1,8,-1
1529258670419067,0,14,-12,-11,-6,-3,-1,8
1529258670431035,24,21,9,4,3,3,2,-1
1529258670431035,43,4,7,7,9,11,10,8
1529258670440011,27,29,13,0,1,-3,-8,17
1529258670440011,18,29,8,-5,-10,-12,-7,0
1529258670454971,-44,-51,-18,-7,-4,-3,0,-19
1529258670454971,21,48,12,1,-2,-3,-8,10
1529258670455969,3,12,2,-1,-3,1,1,-4
1529258670455969,-27,-30,3,9,9,6,5,-11
1529258670476912,-46,-52,-39,-28,-20,-17,-18,-6
1529258670476912,15,3,9,4,2,2,6,10
1529258670478907,-1,8,-12,-7,-5,-6,-8,-3
1529258670478907,-2,29,9,3,3,0,-6,-13
1529258670490875,24,25,10,9,2,0,1,-4
1529258670490875,-74,-102,-33,-22,-14,-8,2,-5
1529258670499851,-40,-16,-9,-1,-3,-7,-17,-10
1529258670499851,43,36,4,-2,-2,0,-3,-4
1529258670514811,0,7,-4,0,3,-4,-9,-12
1529258670514811,-9,13,-13,-9,-6,-4,-4,-13
1529258670515808,2,-6,14,11,6,5,1,-3
1529258670515808,25,30,9,0,-1,0,-6,-4
1529258670536752,25,31,16,2,1,3,-1,7
1529258670536752,38,-25,-1,16,14,16,16,16
1529258670538747,-26,-28,-22,-9,-7,-2,18,6
1529258670538747,-19,-8,-1,-7,-6,-8,-3,4
1529258670550715,20,-20,-1,5,9,8,9,4
1529258670550715,8,49,38,17,8,6,3,-10
1529258670559691,-67,-46,-25,-20,-17,-16,-20,-27
1529258670559691,-86,-53,-6,2,-2,-1,5,2
1529258670574651,21,14,8,1,2,3,7,2
1529258670574651,13,-50,-36,-22,-9,-5,5,21
1529258670576646,61,90,30,13,10,10,13,11
1529258670576646,-24,-34,-12,-5,-2,-3,-7,-11
1529258670596592,-6,-23,-14,-8,-6,-6,-6,-4
1529258670596592,16,23,14,27,17,9,1,5
1529258670598587,0,-4,-2,4,1,0,0,-7
1529258670598587,43,-2,-6,-9,-4,-6,-14,5
1529258670610555,1,15,19,13,6,9,11,14
1529258670610555,-21,-7,-3,-4,-6,-5,-5,2
1529258670619531,9,-11,-9,-3,-3,1,-2,-3
1529258670619531,-9,-63,-46,-14,-7,-2,8,9
1529258670634491,24,90,79,31,15,13,3,-4
1529258670634491,-37,-40,-37,-26,-17,-13,-7,-1
1529258670636486,-49,-57,-13,-6,-4,-8,-12,-14
1529258670636486,-33,-41,2,0,4,6,12,-4
1529258670657430,54,20,-15,-3,0,3,8,25
1529258670657430,2,54,31,10,1,-3,-5,-7
1529258670658427,19,28,22,11,6,8,7,10
1529258670658427,31,52,6,-5,-3,-2,-1,-3
1529258670670395,-26,-39,-21,-3,-1,-4,-9,-1
1529258670670395,-21,4,3,0,2,2,7,-3
1529258670679371,37,40,17,-3,-7,-8,-4,5
1529258670679371,-35,-10,13,12,5,2,-8,-7
1529258670694332,-40,-7,-13,-12,-12,-16,-19,-25
1529258670694332,38,-19,-13,-4,-3,-6,-14,5
1529258670696326,2,-27,-13,4,3,5,11,11
1529258670696326,48,94,58,22,3,-1,-2,0
1529258670718267,-68,-106,-47,-20,-9,-6,0,-11
1529258670718267,1,25,11,-1,1,-1,0,-3
1529258670719265,-10,33,44,20,12,11,-4,-15
1529258670719265,-10,-7,-15,1,-4,-10,-15,-8
1529258670731232,24,-13,6,6,3,4,5,4
1529258670731232,-16,10,9,3,4,0,-2,-12
1529258670740209,15,-14,-11,2,-2,-4,-3,13
1529258670740209,-28,-27,-35,-13,-12,-12,-9,-11
1529258670754171,38,19,-1,4,4,3,1,-5
1529258670754171,23,51,21,17,7,2,1,8
1529258670756166,-4,36,15,9,5,-2,-11,-13
1529258670756166,-39,-51,-17,-12,0,6,3,-13
1529258670777110,14,10,-23,-9,-8,-5,5,13
1529258670777110,4,-36,-8,-6,1,2,4,-4
1529258670779105,6,70,19,-3,-5,-2,4,11
1529258670779105,10,32,9,3,-7,-4,-5,-21
1529258670791072,1,-42,-12,-11,0,6,12,7
1529258670791072,-29,23,19,1,-2,-3,-10,-15
1529258670800049,7,-38,-21,-8,0,-1,1,-2
1529258670800049,-12,-13,-14,-12,-7,-5,12,-2
1529258670815009,13,9,14,6,2,-1,-6,4
1529258670815009,16,-3,-21,-9,-4,-4,-1,-8
1529258670816007,43,43,4,-5,-3,-2,4,21
1529258670816007,-13,-22,-5,-3,4,6,8,1
1529258670836950,-13,32,12,5,-4,-6,-1,-3
1529258670836950,4,-1,-2,-5,-3,-1,-2,-2
1529258670838945,-16,-32,-8,-2,-1,0,-5,-11
1529258670838945,22,-34,-12,-10,-7,-6,-2,15
1529258670850912,-7,3,-4,-4,-5,-6,-7,-6
1529258670850912,-2,-25,-4,3,2,3,5,11
1529258670859889,-20,-29,-26,-9,-3,-5,1,-8
1529258670859889,-2,17,9,16,10,4,-3,-8
1529258670873851,5,-17,-12,-9,-4,-4,-3,-3
1529258670873851,9,24,-18,-12,-6,0,15,4
1529258670880833,24,-51,-5,2,4,4,3,2
1529258670880833,25,21,-9,-7,-2,-1,2,12
1529258670896790,-3,-6,-1,9,8,9,5,-5
1529258670896790,23,66,37,5,0,3,14,21
1529258670898785,-6,-26,-1,3,0,1,2,-14
1529258670898785,-6,-27,-11,-5,1,-3,-6,-5
1529258670910752,-3,-12,-1,3,2,1,-2,-7
1529258670910752,-6,-10,-13,-4,-5,-6,-16,-9
1529258670919729,-15,10,1,-6,-6,-7,-4,-7
1529258670919729,35,26,8,4,3,2,7,23
1529258670933691,-11,20,17,2,2,-1,3,-2
1529258670933691,-11,-32,-15,0,3,-4,-20,-25
1529258670940672,0,-45,-36,-16,-10,-3,-2,10
1529258670940672,-46,1,-5,-3,-6,-7,-17,-8
1529258670957627,11,5,-8,-4,-3,-3,0,9
1529258670957627,6,-17,-11,0,2,0,-6,-7
1529258670958625,19,5,3,-3,0,0,6,19
1529258670958625,-12,-27,-6,3,4,5,5,-6
1529258670978571,-3,34,15,4,-2,-5,-10,-20
1529258670978571,-41,-65,-17,-14,-9,-2,0,8
1529258670987547,-54,-12,-4,-13,-12,-11,-22,-19
1529258670987547,-12,21,12,0,-3,2,9,11
1529258670993531,-2,12,4,-1,1,0,-1,2
1529258670993531,28,-42,-18,-3,1,2,2,-5
1529258671000513,-6,73,34,13,5,5,13,11
1529258671000513,25,8,1,-11,-6,-2,-1,3
1529258671017467,-11,-16,-10,4,1,-4,-6,-11
1529258671017467,28,69,29,13,5,-1,2,1
1529258671018465,4,-6,0,5,3,-1,-2,4
1529258671018465,-3,12,11,3,-2,-3,-2,-7
1529258671039409,-4,-4,4,-2,-2,0,2,2
1529258671039409,-22,-22,-4,7,5,4,3,0
1529258671041404,-13,-20,-8,-4,-5,-2,-4,-15
1529258671041404,21,56,31,4,4,4,3,-3
1529258671054369,-21,-51,-39,-14,-9,-10,-14,-9
1529258671054369,-1,20,17,2,-1,3,2,4
1529258671060352,27,2,3,-1,0,-1,0,6
1529258671060352,-42,-34,-16,-4,-3,-1,3,-2
1529258671077307,7,15,-3,-4,-1,2,4,-6
1529258671077307,0,16,12,0,-2,-3,-4,-2
1529258671078305,-28,-26,-15,-5,-3,-1,-9,-17
1529258671078305,37,30,16,13,8,3,-1,-16
1529258671099248,-32,-41,1,-8,-4,-2,-2,7
1529258671099248,-16,6,3,-3,0,0,-2,-2
1529258671101248,25,24,19,8,3,2,5,4
1529258671101248,-8,-10,0,2,4,2,4,8
1529258671114208,13,18,6,-2,-7,-5,-8,-5
1529258671114208,-33,-55,-33,-6,-4,-6,-8,-17
1529258671121190,9,-16,-6,-2,2,2,5,8
1529258671121190,-7,-5,-3,0,-1,-3,-1,2
1529258671137147,-31,0,2,0,2,-3,-5,-12
1529258671137147,-16,-40,-30,-15,-10,-9,-8,-4
1529258671139142,28,11,-2,1,4,3,4,5
1529258671139142,-27,-35,-18,-7,-9,-9,-10,-7
1529258671160086,29,0,4,7,7,9,13,26
1529258671160086,20,48,28,14,5,3,-2,-6
1529258671161084,-20,-20,-11,-6,-5,-6,-13,-6
1529258671161084,41,17,2,-7,-1,3,3,11
1529258671174049,5,19,11,12,4,4,2,-3
1529258671174049,11,-16,-13,-6,-1,1,4,13
1529258671181030,16,56,40,18,6,2,4,-6
1529258671181030,-11,-8,-7,-11,-7,-3,-2,-7
1529258671196987,55,48,17,11,6,3,7,13
1529258671196987,-39,-38,5,-6,-2,-1,-4,-2
1529258671198982,-12,-18,-10,0,2,0,-2,1
1529258671198982,41,13,-11,-1,0,-2,-4,-2
1529258671219926,-52,-39,-16,-11,-3,-4,0,-15
1529258671219926,16,-2,-1,2,-1,2,10,2
1529258671220924,-21,-5,-4,-4,3,3,7,0
1529258671220924,-16,7,12,7,1,-1,-13,-5
1529258671232897,17,15,0,-2,-2,4,4,4
1529258671232897,7,-14,-14,-10,-7,-4,-1,3
1529258671242871,-10,-30,-12,1,0,0,1,-2
1529258671242871,-12,14,10,5,0,-2,-3,-1
1529258671256828,-8,-13,-8,-3,0,1,-1,-1
1529258671256828,-10,-6,-8,-6,-3,-3,0,-8
1529258671258823,-5,-29,-19,-9,-2,0,3,-2
1529258671258823,17,24,7,8,3,2,5,9
1529258671279766,-34,-23,-8,-4,-2,-5,-8,-10
1529258671279766,17,34,15,5,-1,-2,2,6
1529258671281761,22,31,7,1,2,1,-3,-1
1529258671281761,-12,-44,-14,-8,-3,0,0,11
1529258671293729,2,14,13,3,1,0,-3,-10
1529258671293729,-10,-13,-2,5,4,-1,-5,10
1529258671302705,4,-6,-5,-3,-4,-2,-2,9
1529258671302705,5,-20,-4,-4,-3,3,9,6
1529258671316667,4,13,12,3,1,-1,-5,5
1529258671316667,4,13,6,0,-3,-3,-6,1
1529258671318662,-19,-2,-1,-1,-2,-1,-1,-6
1529258671318662,3,1,7,8,4,3,1,-2
1529258671339606,7,1,-5,-8,-6,-3,-2,0
1529258671339606,-10,7,-7,-3,-1,-3,-5,-15
1529258671341601,0,-18,-4,1,2,2,0,0
1529258671341601,5,21,10,-1,-2,-4,-3,-3
1529258671353568,37,16,13,8,5,4,4,-3
1529258671353568,-2,-18,-15,-8,-4,-2,-3,-4
1529258671362545,56,36,13,3,-3,-3,1,18
1529258671362545,-45,-31,-10,0,3,4,6,-6
1529258671377505,37,24,1,-2,-1,-4,-6,12
1529258671377505,-38,-30,0,4,4,3,2,-12
1529258671378503,-28,-17,-10,-7,-10,-11,-7,-5
1529258671378503,-4,4,-5,-1,1,-2,-6,-20
1529258671399446,-9,11,-5,-4,-2,-2,4,-6
1529258671399446,41,13,5,5,4,1,4,10
1529258671401441,-23,-4,-10,-8,-6,-5,-6,-11
1529258671401441,-29,-11,-7,-2,0,-1,-4,-10
1529258671413409,4,-27,-12,-5,0,-1,2,3
1529258671413409,25,45,17,0,-6,-7,-9,-1
1529258671422385,20,-13,-10,-3,0,4,7,6
1529258671422385,-7,-20,-11,-7,-7,-10,-14,-8
1529258671437345,-2,11,16,7,2,1,-6,2
1529258671437345,4,-19,-7,-10,-6,-2,2,4
1529258671438342,2,-36,-16,8,9,5,6,-2
1529258671438342,26,50,11,2,-2,-1,2,13
1529258671459286,-26,-32,-9,-2,-5,-2,1,-4
1529258671459286,6,14,-1,0,2,0,1,0
1529258671461281,12,39,16,-3,-6,-2,-5,5
1529258671461281,-8,-15,-5,-2,-1,1,4,-3
1529258671473249,32,34,-5,-2,-2,0,1,13
1529258671473249,-13,31,24,3,1,2,4,-1
1529258671482225,-25,-6,-7,-6,-4,-3,-7,-14
1529258671482225,-9,8,10,1,-1,-4,-8,-6
1529258671497185,-21,11,-4,-3,-4,-3,2,-6
1529258671497185,-14,-34,-18,-4,-2,4,5,-8
1529258671499180,-16,55,29,14,2,-2,-7,-7
1529258671499180,-15,-11,-5,-10,-5,-3,1,-2
1529258671520124,-14,-18,-8,0,1,1,1,-3
1529258671520124,11,0,-7,0,1,1,1,0
1529258671521124,-20,-29,-6,-1,0,1,-1,-5
1529258671521124,28,4,9,1,-1,2,9,20
1529258671533089,-8,-10,-5,-8,-2,-4,2,-2
1529258671533089,24,40,14,15,9,5,-4,-1
1529258671542066,1,14,3,-1,-3,-3,-8,-9
1529258671542066,27,14,0,1,1,3,1,14
1529258671557025,-26,8,8,-2,-2,-4,-8,-15
1529258671557025,14,1,9,4,3,5,2,5
1529258671559020,-18,-34,-28,-12,-6,-6,-1,-10
1529258671559020,4,19,3,4,2,0,-1,-3
1529258671579963,33,17,18,7,0,2,0,4
1529258671579963,-62,-26,-32,-28,-20,-18,-8,3
1529258671580961,14,21,10,7,6,2,0,-1
1529258671580961,-38,-78,-20,-3,0,-1,-3,-9
1529258671592929,20,-25,-13,-4,-3,4,7,21
1529258671592929,5,4,-14,-12,-10,-12,-11,-8
1529258671601905,14,-5,-1,-5,-3,1,8,14
1529258671601905,65,82,38,22,9,8,12,19
1529258671616865,-40,-54,-15,-7,0,-1,1,1
1529258671616865,-4,21,-2,-1,-1,0,0,-7
1529258671618860,3,-26,-16,-10,-4,-4,-2,3
1529258671618860,26,9,12,11,5,4,-1,-8
1529258671639804,2,25,7,-2,-2,-1,-5,-11
1529258671639804,-3,-36,-27,-9,-6,-5,-7,-2
1529258671640802,-23,-8,14,4,0,-1,-4,-16
1529258671640802,-28,-24,-33,-18,-8,-4,-2,-4
1529258671653766,1,8,16,8,4,0,1,9
1529258671653766,-13,-13,8,6,6,3,2,-5
1529258671662743,12,15,3,3,-3,0,7,10
1529258671662743,-92,-78,-32,-24,-16,-16,-15,-24
1529258671677705,22,62,29,15,9,8,8,2
1529258671677705,3,-32,-11,-6,-4,-4,-4,-5
1529258671678700,-32,-42,-15,-5,1,6,9,6
1529258671678700,13,31,12,8,6,0,-7,-20
1529258671699643,-45,-36,-14,-9,-7,-7,-3,0
1529258671699643,-14,9,26,14,8,3,5,5
1529258671701639,7,26,1,-3,-4,-3,-8,-15
1529258671701639,-7,9,-8,-5,-7,-9,-6,1
1529258671713606,22,31,1,0,1,1,-3,-9
1529258671713606,2,0,-7,0,-1,2,1,-2
1529258671722583,55,51,25,10,10,5,11,25
1529258671722583,-38,-30,-11,-7,-3,-1,3,-1
1529258671737542,0,-2,4,0,-2,-8,-21,-17
1529258671737542,36,-35,-34,-9,0,3,5,8
1529258671738540,-4,-12,-3,-1,-2,-6,-5,3
1529258671738540,5,-17,-6,-5,-3,2,5,0
1529258671759483,45,39,15,8,4,5,10,11
1529258671759483,-19,-24,-12,-7,-5,-2,4,-2
1529258671761491,-52,-75,-24,-10,-5,-4,-8,-13
1529258671761491,39,35,8,6,4,1,-3,7
1529258671773446,2,0,0,1,-1,-1,2,6
1529258671773446,13,8,16,7,3,3,1,10
1529258671782423,13,4,-3,2,0,0,-4,-4
1529258671782423,-16,-16,-3,-1,-3,-6,1,-2
1529258671797382,-7,-47,-21,-6,-4,-4,-1,-1
1529258671797382,17,43,23,13,5,-4,-14,-17
1529258671798380,-4,0,-11,-7,-2,4,8,-1
1529258671798380,22,-42,-15,-1,-2,3,9,31
1529258671819324,-29,-5,9,5,-3,-7,-6,-10
1529258671819324,12,51,27,11,5,4,2,1
1529258671821319,7,19,3,-4,-4,-4,-5,1
1529258671821319,14,-21,-11,-4,4,3,-1,-9
1529258671833287,30,23,20,11,4,4,12,21
1529258671833287,-38,-27,-13,-10,-7,-3,-4,-3
1529258671842263,-2,-5,-7,10,7,-4,-12,-5
1529258671842263,-53,-19,5,-3,-6,-6,-9,-29
1529258671856225,1,-19,-19,-14,-7,-7,-11,-5
1529258671856225,38,2,11,9,5,7,11,14
1529258671863206,-11,2,-11,-10,-6,-4,2,-1
1529258671863206,8,-19,-6,-5,-2,0,-4,-3
1529258671880161,-33,-41,-25,-3,-2,-3,0,-7
1529258671880161,42,57,22,8,5,0,2,11
1529258671881159,10,25,11,6,1,1,1,-3
1529258671881159,0,5,7,7,7,7,7,18
1529258671902102,4,16,-2,-6,-6,-3,-3,-8
1529258671902102,-6,-23,-9,-4,-3,-1,0,-2
1529258671904097,-69,-53,-20,-17,-12,-12,-15,-24
1529258671904097,15,22,8,1,-2,-2,-5,-4
1529258671916065,-9,-3,7,8,2,0,-3,-7
1529258671916065,-71,-65,-25,-7,-5,-5,-7,-13
1529258671923046,21,-8,4,4,-1,-3,-7,-4
1529258671923046,-5,10,-9,-6,-8,-8,-7,3
1529258671940001,4,-13,-21,-11,-2,-1,-4,-4
1529258671940001,11,-5,5,10,4,5,3,3
1529258671940999,21,32,14,5,1,1,3,13
1529258671940999,13,16,2,7,3,4,6,6
1529258671961942,-10,-7,-8,-4,-2,-3,-6,-5
1529258671961942,-18,-32,-7,-9,-8,-5,-3,-4
1529258671963938,2,15,4,3,2,3,5,5
1529258671963938,-13,-10,5,-3,0,2,2,-3
1529258671976902,8,3,9,2,-1,2,-1,5
1529258671976902,6,-6,-12,-5,-2,-3,1,-2
1529258671982886,40,30,14,3,-2,-3,-9,-11
1529258671982886,35,62,6,-2,-1,0,2,13
1529258671999841,-69,-66,-20,-5,-1,-4,-1,-21
1529258671999841,2,30,13,1,-1,-2,-2,4
1529258672000839,13,13,-1,-2,2,4,8,5
1529258672000839,31,35,36,20,7,3,2,-4
1529258672021782,1,14,6,-4,-3,-1,2,6
1529258672021782,72,64,3,-3,-2,0,-1,8
1529258672023778,-26,-12,-17,-7,-4,-1,0,-2
1529258672023778,-10,-11,4,-2,1,0,1,0
1529258672036742,10,4,5,0,0,4,4,9
1529258672036742,-20,-33,-7,2,0,-4,-7,-15
1529258672043724,8,4,11,4,1,1,1,8
1529258672043724,-31,8,-1,3,-1,-3,-2,-5
1529258672059681,6,-37,-26,-8,2,1,1,6
1529258672059681,11,16,3,0,1,2,7,0
1529258672061676,16,-48,-15,-8,-4,-1,-2,6
1529258672061676,-22,-24,-8,-1,1,1,0,2
1529258672082620,-1,2,-12,-9,0,0,0,-4
1529258672082620,-11,15,34,27,14,8,-4,-10
1529258672083618,-5,13,11,6,4,0,5,15
1529258672083618,-9,10,-3,-4,-4,-4,-2,-16
1529258672096582,28,30,8,3,0,-1,2,11
1529258672096582,-54,-62,-34,-19,-10,-7,-8,-15
1529258672103564,26,26,7,5,5,5,5,8
1529258672103564,-17,-6,-10,-2,-2,-2,-7,-7
1529258672119521,-4,27,17,2,3,0,0,1
1529258672119521,-52,-17,0,-6,-6,-6,-4,-17
1529258672121516,17,5,-2,1,-2,0,3,15
1529258672121516,6,-2,-1,-9,-5,-1,-3,-7
1529258672142460,9,34,14,3,-2,-4,-8,-12
1529258672142460,11,7,6,4,0,-3,-5,4
1529258672143457,-28,-33,-15,-7,1,-3,-5,-14
1529258672143457,13,-16,-12,-8,-1,3,5,11
1529258672155425,-1,29,20,6,0,3,-5,5
1529258672155425,6,9,7,9,4,5,0,-2
1529258672164401,4,3,0,-4,-4,-5,-4,5
1529258672164401,7,-18,8,5,3,4,1,-2
1529258672179361,18,5,7,3,-4,-6,2,2
1529258672179361,20,0,-10,-10,-5,-1,6,14
1529258672181356,-11,-4,1,-4,-3,-2,0,-9
1529258672181356,3,-13,-20,-7,-2,-3,1,6
1529258672202300,25,9,-1,0,2,2,3,7
1529258672202300,-1,-8,-5,-1,1,1,7,11
1529258672203298,9,16,15,1,-3,-4,-4,1
1529258672203298,-6,-21,-21,-6,-3,-2,2,-2
1529258672216263,-7,-7,-12,-5,-2,0,4,5
1529258672216263,27,16,-11,-3,-3,0,2,15
1529258672225239,-6,-23,-5,6,8,6,2,-6
1529258672225239,35,66,22,1,-3,-5,-4,6
1529258672239201,0,-17,-7,-2,-4,-1,-1,0
1529258672239201,-5,-10,-2,-1,-1,3,4,-3
1529258672241196,-21,-22,-15,-1,-1,-4,-7,-11
1529258672241196,-15,5,-3,-6,-5,-4,-1,-13
1529258672262140,-9,-24,-8,3,-1,-1,-5,-7
1529258672262140,-3,-12,-1,0,0,-4,-10,-13
1529258672264135,-26,0,12,-5,-8,-7,-6,-10
1529258672264135,-2,-2,1,1,2,-3,-1,7
1529258672276103,-12,-7,-9,-4,-3,-3,-1,-6
1529258672276103,-4,-22,-3,3,0,-3,-7,11
1529258672285079,8,3,2,2,1,4,6,2
1529258672285079,3,6,10,11,8,5,1,8
1529258672300039,0,-34,-23,-14,-12,-9,-5,-3
1529258672300039,33,21,10,3,1,3,8,17
1529258672301036,-19,-27,-15,-4,1,2,6,-7
1529258672301036,7,9,-1,-3,-3,-4,-3,1
1529258672321980,-3,-17,-10,-4,1,2,3,8
1529258672321980,-5,26,6,3,2,0,-4,-19
1529258672323975,-16,-11,5,7,0,3,-1,-1
1529258672323975,7,18,3,1,2,1,-1,-10
1529258672335943,-57,-27,-7,-8,-4,-2,6,-2
1529258672335943,4,5,-5,-9,-4,-2,-4,-13
1529258672344919,10,25,13,3,1,1,-5,4
1529258672344919,26,13,0,5,0,-4,-8,-10
1529258672359878,-42,-6,4,0,-3,-4,3,4
1529258672359878,-14,-16,-14,-11,-6,-4,0,3
1529258672360878,19,19,14,7,2,3,11,7
1529258672360878,19,-17,-1,1,1,3,5,16
1529258672381820,27,23,7,5,3,-3,-21,-9
1529258672381820,-12,-7,-3,-3,-4,-2,-4,-1
1529258672383815,-5,-21,-15,-9,-5,-1,8,14
1529258672383815,-13,-20,-5,-4,-2,-6,-18,-4
1529258672395783,-26,-17,5,6,1,2,4,-16
1529258672395783,-2,-16,-6,-1,0,3,3,13
1529258672404759,53,43,5,2,0,0,-3,9
1529258672404759,-27,-6,6,1,-2,3,10,9
1529258672419719,17,14,3,4,1,2,6,-1
1529258672419719,3,3,-6,-8,-8,-8,-3,1
1529258672421713,-9,0,-4,1,1,-1,-3,-13
1529258672421713,-15,-34,-11,-5,-3,0,4,5
1529258672441660,15,27,8,0,2,0,-1,-4
1529258672441660,-23,-11,-4,-1,-4,-6,-2,-7
1529258672443656,32,40,-2,-3,-4,-4,0,3
1529258672443656,-14,-9,-4,0,1,-3,-3,-5
1529258672455622,-7,-23,-2,1,-3,-2,3,-1
1529258672455622,1,-11,-14,-12,-5,-6,-7,-9
1529258672464599,1,20,2,-5,-3,-2,-2,1
1529258672464599,9,22,13,6,2,0,2,-4
1529258672479558,8,17,6,-2,0,1,-1,0
1529258672479558,15,13,6,10,7,9,10,6
1529258672481554,-32,-11,-4,-6,-4,-2,5,3
1529258672481554,-38,-20,-19,-9,-6,-7,-16,-26
1529258672502497,-13,-21,0,3,2,4,5,2
1529258672502497,35,10,13,10,7,5,2,-3
1529258672503495,11,13,-2,-8,-6,-4,-3,12
1529258672503495,6,16,3,5,4,0,1,-5
1529258672515463,44,54,2,-8,-6,-4,-1,2
1529258672515463,-33,-51,-25,-6,-5,-5,-3,-8
1529258672524439,0,4,13,10,3,0,-2,-4
1529258672524439,15,0,-6,-5,-2,2,9,-5
1529258672539399,23,22,12,12,4,-3,-11,-1
1529258672539399,4,4,-3,-2,-2,1,1,3
1529258672541393,1,-24,-17,-5,-3,-4,-7,-5
1529258672541393,14,5,-1,0,-2,2,12,20
1529258672562337,1,-29,2,4,4,3,3,-3
1529258672562337,-48,-14,-16,-14,-14,-15,-13,-7
1529258672563335,-19,-31,-13,-6,0,1,5,3
1529258672563335,4,11,9,4,3,3,0,2
1529258672575303,-13,-58,-12,-5,1,2,6,-2
1529258672575303,51,116,91,45,18,10,2,6
1529258672585276,-32,-63,-24,-16,-12,-11,-6,-11
1529258672585276,-16,-29,-9,-12,-8,-4,-3,-3
1529258672599239,5,9,-6,0,0,-2,-2,-10
1529258672599239,38,19,3,14,11,6,5,6
1529258672601234,-21,-34,-16,0,1,1,-6,-17
1529258672601234,-10,3,8,3,1,-1,-3,-7
1529258672622178,-3,27,-1,-1,-3,-3,-1,-3
1529258672622178,3,5,-5,-11,-5,-1,0,2
1529258672624172,17,-6,5,8,4,5,6,8
1529258672624172,-48,-75,-45,-22,-16,-14,-11,-13
1529258672636140,14,29,10,3,0,0,2,8
1529258672636140,-34,-53,-21,-13,-3,-2,2,-12
1529258672645117,17,36,3,12,3,-3,-5,-4
1529258672645117,32,-6,6,6,2,6,9,23
1529258672658081,-45,-24,-33,-24,-16,-17,-19,-25
1529258672658081,21,38,30,16,4,-1,-5,-4
1529258672667057,-2,-5,-1,-5,-2,2,7,7
1529258672667057,17,28,18,8,5,2,1,-3
1529258672682017,15,14,9,6,2,1,-2,4
1529258672682017,-52,-82,-27,-16,-8,-1,2,-2
1529258672684013,-22,-16,-8,-9,-3,-7,-12,-22
1529258672684013,-27,27,17,3,-3,-5,-5,11
1529258672695980,18,6,0,-2,0,3,-4,-5
1529258672695980,-15,-23,-12,-9,-4,0,2,5
1529258672704956,51,81,62,27,14,10,11,14
1529258672704956,-23,-23,-11,-8,-5,-3,0,-7
1529258672719916,31,22,4,2,-1,1,2,9
1529258672719916,-46,-49,-39,-18,-14,-11,-9,-9
1529258672720914,10,49,25,11,7,6,0,0
1529258672720914,37,23,-1,3,3,10,16,17
1529258672741858,13,-37,-9,-3,-1,-2,2,8
1529258672741858,24,78,20,7,3,0,-3,2
1529258672743852,46,32,4,6,5,6,2,11
1529258672743852,-37,4,22,4,-3,-5,-7,-18
1529258672755820,-16,-8,-17,-4,-1,2,4,17
1529258672755820,-9,-7,0,-7,-5,-5,-3,-6
1529258672764797,-37,-72,-27,-13,-6,-5,-5,-14
1529258672764797,27,20,15,16,10,6,5,1
1529258672778759,-14,-14,-6,-8,-8,-6,-1,-7
1529258672778759,20,20,17,7,5,5,2,-2
1529258672785740,-38,-68,-29,-17,-7,-4,4,4
1529258672785740,24,27,11,7,6,6,7,6
1529258672801697,-62,-68,-17,-3,0,0,0,-7
1529258672801697,5,25,14,6,0,1,2,3
1529258672803693,-40,-23,-15,-4,-4,-4,-9,-19
1529258672803693,2,-34,-19,-10,-2,-3,-5,-3
1529258672815660,2,-17,1,6,0,-3,-6,-5
1529258672815660,-19,-24,-15,-7,-1,0,0,-3
1529258672824636,14,37,3,-3,-5,-10,-13,0
1529258672824636,8,8,-3,-2,-2,-4,-5,-2
1529258672838599,25,51,23,13,9,5,1,2
1529258672838599,24,0,-8,3,1,2,4,1
1529258672845581,-50,-29,-2,-5,-3,-3,5,3
1529258672845581,-26,-38,-23,-12,-6,-8,-9,-8
1529258672862535,24,30,11,-1,0,4,8,6
1529258672862535,-9,-30,-10,-2,3,2,-2,-5
1529258672863534,35,37,-1,-4,-4,-3,-9,-5
1529258672863534,-16,-21,0,5,-1,-3,-6,-3
1529258672884476,-16,-13,-11,-3,0,0,-1,-11
1529258672884476,11,7,5,-2,-1,-1,1,8
1529258672886471,-45,-8,9,-1,-3,-1,3,-14
1529258672886471,5,-16,-7,-5,-4,-1,1,6
1529258672899436,-26,-12,-8,-3,-5,-5,-3,-3
1529258672899436,-3,14,15,5,2,-1,-4,-16
1529258672905420,-11,3,-3,-2,-2,-4,-2,-13
1529258672905420,9,-22,-29,-10,-4,-2,-7,0
1529258672921378,-30,-25,0,0,-2,0,-2,2
1529258672921378,8,-8,3,3,2,1,3,-2
1529258672929356,0,-40,-4,0,-2,2,14,28
1529258672929356,2,34,22,6,2,0,-2,-15
1529258672944317,5,-9,-16,-10,-4,-1,8,13
1529258672944317,-4,-6,3,1,-2,0,0,1
1529258672946311,14,10,5,3,2,3,-2,5
1529258672946311,-13,-22,-5,-7,-5,-2,-2,-6
1529258672959276,12,52,31,13,3,1,1,4
1529258672959276,2,7,4,-2,-2,2,5,11
1529258672966258,40,29,4,3,-1,-1,-4,-6
1529258672966258,17,26,2,2,4,3,4,10
1529258672982215,-11,-5,4,0,-1,-1,-7,-9
1529258672982215,-4,4,-9,-13,-10,-6,-2,2
1529258672984210,22,12,-9,1,0,2,0,-1
1529258672984210,-30,-39,-18,-14,-7,-5,-6,-4
1529258673005154,19,16,13,5,-1,-3,2,7
1529258673005154,-6,-2,-18,-1,4,0,-2,-8
1529258673006151,5,25,11,9,2,1,5,4
1529258673006151,12,25,6,-6,-7,-5,0,7
1529258673019116,7,8,3,-4,-4,2,-3,-5
1529258673019116,23,25,5,11,5,2,-5,3
1529258673026098,-36,-39,-14,-5,-3,-7,-7,-10
1529258673026098,1,4,6,8,4,5,3,1
1529258673042055,16,27,11,0,3,0,5,9
1529258673042055,-15,-18,-7,2,-1,-3,-6,-13
1529258673044050,52,58,24,11,5,6,5,11
1529258673044050,2,-6,-3,-2,-2,-4,-2,-10
1529258673064994,-4,-23,-13,-5,0,1,3,9
1529258673064994,-1,1,-7,1,0,-4,1,2
1529258673065992,6,-29,-16,-9,-2,0,8,4
1529258673065992,-5,15,13,4,-1,-2,-7,-7
1529258673077959,-18,-7,-4,-2,0,-1,-5,-11
1529258673077959,0,5,17,10,1,1,0,-11
1529258673086935,4,1,5,3,-2,-1,2,15
1529258673086935,-4,-27,-8,-1,4,6,5,-2
1529258673101895,32,29,4,4,2,2,7,14
1529258673101895,-2,-3,4,-7,-2,-2,3,1
1529258673103890,-6,-8,2,-2,-2,-2,-5,-6
1529258673103890,20,25,10,5,3,-2,-11,-4
1529258673124833,-21,28,24,11,5,-1,-7,-5
1529258673124833,-16,-29,-17,-10,-3,1,3,11
1529258673125832,-39,-28,-8,-8,-2,-4,-7,-23
1529258673125832,10,39,13,12,2,-2,2,6
1529258673138796,-10,-47,-25,-9,-4,-1,-6,-6
1529258673138796,-6,-17,-27,-14,-8,-7,-7,-4
1529258673147772,-7,9,5,6,4,1,-3,-13
1529258673147772,14,2,0,-2,1,0,7,11
1529258673161735,23,-9,-8,0,2,3,4,3
1529258673161735,-30,-9,8,3,2,0,0,2
1529258673163731,18,-7,-4,-3,-2,-1,-1,-2
1529258673163731,-12,6,-8,-8,-6,-8,-7,-10
1529258673184674,-5,-13,-6,-6,-4,-2,1,-6
1529258673184674,51,36,-7,-2,-1,-1,-3,0
1529258673186669,-10,-11,1,-3,-3,3,6,11
1529258673186669,3,-3,2,5,2,4,4,2
1529258673198636,31,42,16,6,6,2,2,3
1529258673198636,-46,-54,-28,-13,-12,-11,-13,-14
1529258673207613,8,-8,-10,-7,-5,-7,-6,0
1529258673207613,-2,-10,-7,-1,3,4,10,8
1529258673222572,-7,0,8,5,4,4,5,-3
1529258673222572,5,12,9,2,0,-2,-8,-6
1529258673223570,-3,-4,-6,-4,1,-3,-10,-3
1529258673223570,-14,8,2,-1,-1,0,1,-2
1529258673244514,9,-3,-6,-3,-3,-2,-5,0
1529258673244514,3,0,13,4,2,6,10,8
1529258673246509,1,4,-6,-7,-5,-1,0,1
1529258673246509,27,-4,-4,2,3,0,-7,-10
1529258673258476,-31,-12,-4,-3,-1,-3,-2,-2
1529258673258476,16,23,13,5,1,2,9,3
1529258673267453,7,-12,-18,-12,-6,-4,-6,0
1529258673267453,18,56,39,18,7,4,2,8
1529258673282412,-6,-16,-8,-5,-5,-3,-2,-2
1529258673282412,4,-5,4,1,0,5,3,4
1529258673283410,-8,-29,-13,-4,-3,-3,2,4
1529258673283410,-7,1,2,-4,-2,-3,-13,2
1529258673304354,1,6,-13,-6,-4,-3,0,-5
1529258673304354,15,-12,0,-1,-1,3,10,4
1529258673306349,50,32,4,9,8,7,7,12
1529258673306349,-4,-17,-14,-11,-7,-5,-2,-7
1529258673318316,-6,3,4,3,2,1,-3,-9
1529258673318316,13,-8,-8,-3,0,1,3,28
1529258673327293,2,-7,-2,1,2,3,-4,-3
1529258673327293,-17,-18,-8,-3,-3,0,2,-5
1529258673342252,1,-47,-11,0,0,1,5,-2
1529258673342252,35,46,13,5,3,2,-1,-4
1529258673344247,-28,11,25,12,6,6,5,5
1529258673344247,-11,-27,-10,-4,-3,-4,4,4
1529258673364194,-12,-14,-3,-5,-4,-1,-2,-8
1529258673364194,25,66,47,17,8,3,0,11
1529258673366189,15,10,4,1,-1,-1,-3,-10
1529258673366189,-17,-18,-10,-2,-3,-2,3,10
1529258673378157,14,30,19,6,5,3,7,2
1529258673378157,-32,-38,-23,-17,-9,-5,-9,-9
1529258673387133,-31,-21,-3,-1,3,0,4,-9
1529258673387133,6,41,13,9,2,0,-3,-7
1529258673402093,-6,-16,-6,3,-2,-3,-2,-4
1529258673402093,-23,5,5,0,3,1,-2,-5
1529258673404088,-5,29,16,4,2,-2,-5,-16
1529258673404088,-41,-51,-13,-4,-1,1,-4,-15
1529258673425031,-35,-30,-10,-1,-2,-2,-2,-7
1529258673425031,3,-9,-9,-8,-5,-6,-2,-10
1529258673426029,-12,-2,5,3,0,0,-10,-10
1529258673426029,10,-11,-8,-7,-1,-1,6,-1
1529258673437996,19,27,11,8,4,1,-2,4
1529258673437996,-3,-13,3,3,0,-1,3,9
1529258673446972,13,6,-2,-6,-4,-4,1,3
1529258673446972,9,-11,-19,-6,-2,0,-1,4
1529258673461932,19,10,-7,-10,-3,-5,-10,-5
1529258673461932,-37,-44,-14,5,2,-1,3,-12
1529258673463928,24,39,12,3,0,0,5,9
1529258673463928,-27,-16,-14,-10,-6,-2,2,3
1529258673484871,1,18,3,-2,-1,1,0,5
1529258673484871,-3,3,-1,-3,3,5,2,-1
1529258673485869,11,-34,-29,-12,-5,-4,1,10
1529258673485869,20,27,14,10,4,5,6,14
1529258673497837,-12,-10,-14,-11,-11,-9,-4,-12
1529258673497837,-1,-23,-12,-6,-4,-5,-2,6
1529258673507810,-46,-38,-15,6,2,0,-1,-4
1529258673507810,18,4,9,-3,0,-1,0,6
1529258673521773,11,16,9,-1,-2,-4,-4,2
1529258673521773,-55,-55,-21,-2,0,-2,-6,-21
1529258673523767,25,33,7,-2,-6,-6,-6,5
1529258673523767,10,-3,11,8,5,4,4,-2
1529258673544711,-17,10,-2,-6,-5,-5,-4,2
1529258673544711,18,21,-3,-4,-2,0,6,11
1529258673546706,-30,-26,-10,-5,-3,-3,-4,-8
1529258673546706,24,10,-1,3,2,2,-3,-13
1529258673558674,32,43,25,2,-1,-2,4,25
1529258673558674,-6,-17,-7,-3,-3,-1,6,8
1529258673567650,-3,-2,0,-1,-1,1,3,-3
1529258673567650,13,25,4,0,-1,-2,-5,-3
1529258673582610,-44,-35,-11,-3,0,-2,-7,-19
1529258673582610,28,67,18,4,-3,-2,-6,0
1529258673583608,-5,-16,2,-5,-2,1,4,1
1529258673583608,19,6,-10,-1,-1,-3,-7,1
1529258673604551,1,-24,-13,-1,3,3,2,3
1529258673604551,3,1,0,-2,-1,-2,-3,-2
1529258673606546,-10,-24,-12,0,0,0,-2,-11
1529258673606546,-20,-7,-6,-5,-10,-8,-7,-8
1529258673618514,20,0,-9,-1,0,-1,2,6
1529258673618514,7,14,-6,-4,-2,-5,-8,-10
1529258673627490,-3,-14,-10,0,0,-1,0,-2
1529258673627490,-18,0,4,-2,-1,1,2,-2
1529258673642450,-30,-42,-21,-6,0,1,-8,-14
1529258673642450,1,12,4,-4,-5,-2,2,6
1529258673643448,12,15,2,-3,-1,-3,0,4
1529258673643448,-7,-1,1,5,4,4,1,6
1529258673664391,6,5,3,-7,-5,-2,2,2
1529258673664391,-6,-1,2,2,-2,-3,-5,-5
1529258673666386,23,30,16,5,3,4,4,7
1529258673666386,-22,1,23,4,1,3,0,-5
1529258673678354,-10,-29,-13,-9,-6,-8,-11,2
1529258673678354,-25,-36,-16,-4,-1,1,-2,-8
1529258673687330,31,39,35,15,7,7,10,22
1529258673687330,-16,-17,-13,-12,-8,-5,-1,-2
1529258673701293,19,29,25,10,6,5,0,-10
1529258673701293,5,0,15,7,1,-2,-7,-10
1529258673708274,-36,-10,0,5,-2,-4,-8,-10
1529258673708274,20,-1,-19,-10,-3,-6,-5,-6
1529258673724231,-3,-12,2,10,1,2,10,10
1529258673724231,39,-9,-10,-2,1,-2,-6,-6
1529258673726226,-7,4,-7,-8,-2,-5,-6,-3
1529258673726226,-26,-8,-10,-13,-11,-13,-18,-13
1529258673738194,-10,-16,-14,-6,-4,1,5,11
1529258673738194,48,65,32,12,6,2,-8,-7
1529258673747171,-9,-22,-11,-8,-5,-1,1,2
1529258673747171,39,9,-6,0,3,3,6,5
1529258673761133,-47,-83,-17,-2,-2,-8,-12,-7
1529258673761133,-6,-12,-13,-9,-7,-5,0,7
1529258673768114,13,9,6,0,-1,-2,-7,-13
1529258673768114,-1,-13,-12,-4,3,4,5,-7
1529258673785069,38,58,25,16,7,8,8,11
1529258673785069,3,-9,-5,-1,1,3,3,6
1529258673786066,-45,-25,-8,-9,-4,-2,1,2
1529258673786066,14,2,-4,2,0,0,-3,1
1529258673807010,0,13,3,-2,-1,0,-1,1
1529258673807010,24,13,2,-5,-1,2,6,10
1529258673809005,20,0,-1,10,7,8,8,12
1529258673809005,-44,-4,2,-2,-4,-3,-1,3
1529258673821970,9,6,-9,-15,-11,-6,-4,-3
1529258673821970,-25,-32,-24,-5,-4,-4,-1,-4
1529258673827954,3,-15,-4,12,11,3,0,-5
1529258673827954,3,9,10,10,5,4,3,1
1529258673844909,19,21,0,0,0,3,3,1
1529258673844909,-62,-49,-16,-7,-4,-1,0,-6
1529258673845907,0,-5,-10,-12,-12,-10,-11,-13
1529258673845907,-2,-5,8,8,6,6,6,17
1529258673866850,8,45,26,9,3,1,2,3
1529258673866850,-11,-1,0,0,-3,-1,-4,2
1529258673868845,5,16,7,3,2,3,3,-10
1529258673868845,-43,-28,-20,-23,-14,-13,-10,-6
1529258673881810,12,-30,-5,4,6,7,10,7
1529258673881810,-13,28,11,5,2,-2,-3,-12
1529258673888791,-1,12,10,-8,-8,-4,-6,-1
1529258673888791,25,15,5,9,6,8,8,7
1529258673904749,-7,-18,-2,-3,-4,-9,-11,-20
1529258673904749,-64,-31,-12,-9,-1,-1,-3,-10
1529258673906744,27,26,-13,-7,-7,-2,3,12
1529258673906744,18,26,25,9,4,3,2,1
1529258673926690,-27,-20,-14,-8,-5,-6,1,-4
1529258673926690,35,25,13,11,5,7,14,31
1529258673928685,-14,-17,-9,-4,-1,-2,-4,-16
1529258673928685,15,29,-5,-4,-4,-4,-5,8
1529258673941650,5,-9,-2,-3,-1,-2,-6,-9
1529258673941650,4,4,9,7,2,0,0,5
1529258673948631,-15,20,19,8,5,3,2,-7
1529258673948631,-65,-55,-12,-8,-7,-8,-7,-24
1529258673964589,20,8,2,3,2,3,4,14
1529258673964589,19,-2,-10,-11,-6,-5,-6,-6
1529258673966584,-22,-26,-14,9,0,-2,-5,-1
1529258673966584,26,4,7,4,5,4,7,2
1529258673987528,-29,21,2,-6,-7,-5,-1,1
1529258673987528,20,23,24,7,1,1,2,3
1529258673988525,-1,-33,-22,-13,-6,-3,1,6
1529258673988525,-12,-22,-8,-1,0,0,6,-9
1529258674001490,-9,-3,-2,1,-3,-1,-2,-1
1529258674001490,35,-33,-22,-8,-4,2,5,7
1529258674008472,40,76,27,5,1,3,12,21
1529258674008472,-24,9,17,7,0,-6,-11,-10
1529258674024429,6,-6,-8,-2,1,2,2,5
1529258674024429,-15,-2,16,11,5,5,-3,-22
1529258674026424,-20,3,13,1,2,-3,-5,-18
1529258674026424,17,8,-6,-3,-1,-1,1,11
1529258674047368,1,16,8,6,4,2,3,-2
1529258674047368,-12,-20,-19,-11,-5,-6,-7,-2
1529258674048365,22,7,12,5,2,3,9,12
1529258674048365,26,16,-4,-6,0,0,-5,-3
1529258674060333,13,8,-3,5,-2,0,4,5
1529258674060333,-36,-41,-14,-3,-2,1,4,4
1529258674069309,-20,-27,-12,-11,-9,-8,-10,0
1529258674069309,8,27,14,3,-1,0,-5,-3
1529258674084269,-14,-9,0,-4,-1,0,-2,-14
1529258674084269,15,63,28,19,4,2,-2,-11
1529258674086264,-1,-23,0,-1,-1,2,7,6
1529258674086264,-9,14,15,9,1,1,1,-1
1529258674107208,12,3,-15,-14,-11,-12,-11,-1
1529258674107208,7,0,-10,-6,1,-1,-2,5
1529258674109203,-3,-10,-1,0,3,3,0,-3
1529258674109203,-1,-24,-11,-5,1,1,3,-2
1529258674121170,10,21,11,4,2,2,3,8
1529258674121170,0,1,-4,-6,-2,-1,8,4
1529258674130146,0,-18,-12,-3,-3,-3,-4,-6
1529258674130146,-1,-48,-6,1,-1,2,3,-4
1529258674145106,34,33,-3,-3,-2,-6,-7,-3
1529258674145106,-28,-39,-19,-10,-5,-6,-9,-14
1529258674146104,-7,-26,-11,-6,-1,-2,1,8
1529258674146104,5,6,-3,-2,-6,-8,-11,-6
1529258674167048,-17,-31,-2,1,4,4,0,-7
1529258674167048,45,55,22,3,-2,0,5,17
1529258674169042,-18,8,-9,-10,-8,-7,-10,-15
1529258674169042,-7,-16,-4,0,1,-1,-2,0
1529258674181010,-25,-13,2,-1,0,-2,-7,-25
1529258674181010,31,41,13,2,0,-3,1,17
1529258674189987,-8,-18,5,4,2,0,-7,-14
1529258674189987,32,68,23,10,4,4,9,16
1529258674204946,35,53,23,15,6,7,3,-4
1529258674204946,2,-21,7,-1,1,2,0,4
1529258674205944,-9,0,-13,-11,-3,-3,-4,-4
1529258674205944,0,-13,-6,-5,-5,-5,-4,-3
1529258674226888,25,5,5,1,-1,1,0,8
1529258674226888,-20,-14,-11,-2,-2,0,5,-12
1529258674228883,19,15,1,-1,-4,0,-2,11
1529258674228883,-15,13,11,8,6,1,-2,-8
1529258674240850,-6,-9,-10,8,6,1,2,-1
1529258674240850,-5,8,5,1,-1,-3,-3,-3
1529258674249827,-7,5,7,1,-1,-1,0,-2
1529258674249827,12,20,-5,-3,-4,0,5,6
1529258674264786,-36,-36,-12,-8,-1,1,1,-3
1529258674264786,-25,-31,-22,-10,-6,-4,-6,-9
1529258674266781,22,38,10,7,5,4,3,-2
1529258674266781,-5,-34,-19,-2,-3,-3,1,12
1529258674286728,-28,-14,6,-1,-1,-1,-1,4
1529258674286728,2,-6,-12,-4,0,0,0,1
1529258674288723,-5,6,8,1,1,0,-2,0
1529258674288723,-1,-16,-5,1,1,1,1,-2
1529258674300690,-9,-12,-7,-5,-2,1,1,-6
1529258674300690,-4,6,6,3,1,4,11,6
1529258674315650,4,-13,-10,-1,-2,-1,-5,-5
1529258674315650,-1,13,2,-6,-4,-4,-3,-4
1529258674324626,11,-6,1,-4,-4,1,6,19
1529258674324626,0,5,0,2,1,1,-3,-18
1529258674326621,-6,-29,-18,-1,-2,-6,-6,-3
1529258674326621,-6,-13,-13,-4,-1,0,-3,-1
1529258674347565,4,13,7,1,0,-3,-4,-3
1529258674347565,12,2,-10,1,-2,-3,-4,-1
1529258674348563,11,8,-1,0,0,1,8,11
1529258674348563,8,-20,-11,-9,-4,-3,-5,0
1529258674360531,-14,14,17,0,2,3,-4,-17
1529258674360531,-14,-25,-13,3,1,-1,-2,4
1529258674369507,-14,-13,-5,-4,-1,1,3,-5
1529258674369507,-16,-16,-9,-8,-5,-2,9,4
1529258674384466,12,11,-5,-1,-3,-1,-1,6
1529258674384466,-25,-12,11,0,3,1,4,-11
1529258674386461,20,14,10,4,-1,-4,-5,9
1529258674386461,-10,5,-6,-8,-4,-4,-7,-14
1529258674407405,12,29,9,4,0,-2,-2,-3
1529258674407405,-3,-8,-2,-1,0,1,-1,0
1529258674408403,-26,-14,-2,2,1,-2,-1,4
1529258674408403,12,10,7,2,0,-1,-9,2
1529258674420370,-1,-15,-9,-1,-1,-2,-1,-4
1529258674420370,15,29,3,-7,-6,-4,1,3
1529258674429346,-7,8,11,10,5,4,1,-8
1529258674429346,12,-2,-2,-1,0,4,7,10
1529258674444307,-12,-10,-4,1,3,0,-2,-5
1529258674444307,8,17,5,-1,-2,-3,-9,7
1529258674446301,-6,-14,-17,-12,-8,-6,-3,-20
1529258674446301,-3,-16,-7,0,0,1,6,5
1529258674467245,-8,-30,-18,-5,-5,0,8,6
1529258674467245,13,11,11,4,1,-1,-5,-16
1529258674469240,-3,-14,-10,-3,-2,2,3,11
1529258674469240,9,15,17,8,2,0,-8,-5
1529258674481208,-9,-1,-4,-4,-2,0,4,5
1529258674481208,-1,-9,-1,1,-4,-3,0,0
1529258674490184,12,11,3,3,-1,2,0,7
1529258674490184,4,6,1,0,0,-2,-5,-5
1529258674504147,0,-1,-2,4,0,-1,-6,-6
1529258674504147,-8,-9,-2,-2,1,0,1,7
1529258674506142,5,10,1,-4,-3,-1,-1,-14
1529258674506142,0,9,7,6,1,1,3,2
1529258674527085,-45,-49,-12,-2,-1,-5,-6,-16
1529258674527085,-4,-8,-9,-8,-5,-2,0,10
1529258674529080,-10,13,6,-1,-1,-4,-9,-7
1529258674529080,2,3,1,-3,-1,1,4,-4
1529258674541048,33,37,14,7,3,1,-3,2
1529258674541048,16,15,2,-2,-4,-3,-3,7
1529258674550024,2,3,-6,-6,-5,-2,-1,2
1529258674550024,-6,-9,-15,-5,-1,-1,-1,-2
1529258674564984,10,24,21,6,-1,-1,2,9
1529258674564984,6,2,-1,-1,1,-1,-1,-9
1529258674565981,3,23,17,3,1,1,2,4
1529258674565981,2,0,2,1,2,1,-7,-7
1529258674586925,1,-31,-27,-20,-8,-2,1,3
1529258674586925,-6,-2,10,13,4,2,-2,-7
1529258674588920,-33,-20,-11,-10,-4,-5,-2,-5
1529258674588920,3,-9,-4,1,2,3,9,8
1529258674600888,-1,-1,-9,-8,-5,-3,-1,-2
1529258674600888,-3,-18,-7,-5,-1,2,-1,3
1529258674609864,39,28,15,7,4,4,4,8
1529258674609864,-20,-18,-7,-5,-2,-1,-2,-3
1529258674624824,16,36,18,10,3,1,-1,0
1529258674624824,-16,-11,-13,-7,-5,-5,-3,-6
1529258674625822,-8,-2,9,7,2,2,3,2
1529258674625822,8,27,10,-5,-3,-1,5,3
1529258674646765,-2,6,5,6,5,2,-4,-6
1529258674646765,-22,2,1,-3,-5,-4,-6,-19
1529258674648760,-14,-36,-12,-8,-4,-4,-3,-1
1529258674648760,-3,-1,3,7,4,3,0,3
1529258674660728,-7,-22,-3,0,0,1,0,1
1529258674660728,22,32,12,3,3,5,7,8
1529258674669704,-9,8,10,2,-4,-5,-13,-13
1529258674669704,-2,-7,-2,1,1,-1,-9,-17
1529258674683666,12,-19,-12,2,1,4,4,21
1529258674683666,-27,-21,-9,-10,-6,-7,-7,-13
1529258674690648,-5,-4,1,3,5,3,9,2
1529258674690648,33,32,19,6,-1,-1,0,11
1529258674707602,-30,-54,-8,6,7,6,-1,-15
1529258674707602,22,30,6,-4,-6,-3,-1,12
1529258674708601,-12,-8,-5,2,0,0,4,3
1529258674708601,-21,-39,-20,-8,-5,-4,-10,-29
1529258674720568,38,50,18,0,-3,-4,1,15
1529258674720568,-19,-14,7,7,6,8,5,1
1529258674729544,9,5,-2,4,5,3,-1,-2
1529258674729544,17,25,3,1,-3,-4,-4,8
1529258674743507,21,7,-1,-2,-3,-1,2,10
1529258674743507,-2,1,-11,-6,-1,-4,-9,-11
1529258674750488,0,4,-4,0,-1,0,4,7
1529258674750488,0,4,2,2,0,2,4,1
1529258674767443,-41,-14,-11,-6,-2,-6,-9,-11
1529258674767443,14,-16,-6,7,5,3,2,8
1529258674768440,9,14,14,1,-2,-1,-2,-2
1529258674768440,5,27,7,0,-1,-3,-3,1
1529258674789384,-14,-2,-8,-6,-5,-4,-2,-8
1529258674789384,-27,-60,-14,-4,-1,0,4,-4
1529258674791379,-1,13,-4,-3,-3,-2,2,5
1529258674791379,9,-24,-22,-10,-8,-6,-1,6
1529258674804344,10,39,29,10,1,0,-4,2
1529258674804344,12,-14,-15,-8,-2,-2,-1,-2
1529258674810328,5,-42,-22,-5,-3,0,1,1
1529258674810328,-31,-30,1,0,-3,-2,-2,-4
1529258674827283,-10,-43,-39,-17,-8,-4,4,9
1529258674827283,-7,-13,-6,-6,-3,-4,-6,-8
1529258674829278,-7,-4,-5,-2,3,2,3,-14
1529258674829278,-42,-68,-12,-3,0,-3,-7,-12
1529258674849224,7,6,20,7,3,-1,-7,-16
1529258674849224,15,18,-2,-1,-3,-3,3,12
1529258674851219,4,-10,2,-1,-2,-1,-9,-8
1529258674851219,-4,-44,-19,-10,-3,4,12,8
1529258674864184,20,42,13,2,-6,-8,-9,-10
1529258674864184,44,37,16,10,4,4,1,8
1529258674871165,37,-14,-16,-8,-2,1,3,13
1529258674871165,43,93,43,23,5,2,1,6
1529258674887123,-9,-26,-9,-6,-2,-4,-1,-6
1529258674887123,16,10,0,3,4,4,4,-5
1529258674889118,-10,63,47,23,9,3,5,-3
1529258674889118,-1,10,-5,-7,-1,-1,-2,-9
1529258674910062,18,7,-13,-5,0,0,0,-2
1529258674910062,-12,12,21,5,-1,-5,-6,-13
1529258674911059,24,12,1,4,4,2,-3,6
1529258674911059,-37,-3,-10,-9,-6,-6,-3,-4
1529258674924024,9,5,4,0,0,2,5,9
1529258674924024,-21,23,27,10,5,6,-2,-19
1529258674931006,-28,-64,-34,-17,-9,-5,-6,-11
1529258674931006,31,67,39,16,8,7,11,20
1529258674946963,28,47,-3,-6,-3,-2,0,2
1529258674946963,-21,-67,-37,-10,-2,0,5,16
1529258674948958,-17,1,9,4,-1,-2,-3,-5
1529258674948958,-18,-59,-18,-7,0,4,7,15
1529258674969901,28,54,46,25,11,7,5,-2
1529258674969901,-29,-29,-21,-9,-6,-7,-11,-19
1529258674970899,-13,-53,-54,-24,-12,-10,-4,7
1529258674970899,27,29,11,8,1,-3,-4,-3
1529258674982867,-25,-47,-16,-10,-4,2,1,2
1529258674982867,8,0,-13,-5,-5,-4,-2,12
1529258674992840,-32,-47,-1,-5,-5,-4,-5,-10
1529258674992840,3,-29,-24,-8,-5,-3,-6,-4
1529258675006803,-23,-26,1,-2,1,3,2,0
1529258675006803,-5,57,18,6,1,1,1,3
1529258675008798,-23,1,13,7,4,3,6,12
1529258675008798,11,10,-4,0,2,1,-3,-1
1529258675029741,-22,-42,-18,-11,-5,-4,-2,0
1529258675029741,30,21,11,0,0,2,7,14
1529258675031737,-29,7,13,3,-1,0,-3,-14
1529258675031737,5,3,2,3,-1,-2,-2,2
1529258675043704,-53,-49,-31,-7,-4,-3,-7,-17
1529258675043704,8,-8,1,2,0,0,2,4
1529258675052680,32,36,16,8,3,3,5,15
1529258675052680,-17,-39,-21,-18,-9,-7,-2,-1
1529258675067640,-5,-41,-16,-7,-5,-3,-1,-3
1529258675067640,21,24,6,2,4,2,3,5
1529258675068638,5,12,7,6,0,-3,-3,-3
1529258675068638,-28,-13,1,1,0,1,-1,-12
1529258675089582,12,13,7,3,2,1,1,7
1529258675089582,22,9,-10,-4,-3,-2,-4,-5
1529258675091576,-3,-40,-20,-13,-4,0,1,7
1529258675091576,-20,36,3,-1,-2,-3,-6,-13
1529258675103544,-32,-11,7,-1,-3,-3,1,-12
1529258675103544,15,20,7,3,1,0,-1,4
1529258675112520,12,23,0,-1,-1,-2,-1,1
1529258675112520,-12,-31,-13,-2,0,0,-2,-3
1529258675127480,25,60,33,8,4,4,0,5
1529258675127480,-8,-37,-18,-10,-7,-6,-5,-3
1529258675128478,7,35,7,-4,-4,-5,-7,-9
1529258675128478,-25,-22,0,2,0,-1,-3,-10
1529258675149422,3,-10,-19,-10,-4,-5,1,10
1529258675149422,-12,-4,7,7,2,0,2,-5
1529258675151416,-3,-10,3,1,1,4,2,1
1529258675151416,31,39,5,-4,-4,-1,-2,5
1529258675163384,52,42,22,12,9,3,3,10
1529258675163384,-43,-37,-14,-11,-10,-9,-7,3
1529258675172361,-15,-1,-9,-7,-1,0,6,-1
1529258675172361,14,-1,14,9,4,4,4,3
1529258675187320,-13,-9,-8,-3,-6,-6,-11,-11
1529258675187320,-5,-25,-16,-5,-2,3,8,3
1529258675188318,6,3,-13,-1,-3,-6,-8,-10
1529258675188318,1,33,14,4,0,-1,-1,-9
1529258675210259,-13,-39,-22,-5,-4,-3,-7,-8
1529258675210259,-9,6,10,3,3,2,-3,-6
1529258675211256,23,13,8,2,-1,0,-4,7
1529258675211256,-15,-19,-9,-4,-1,-2,0,-6
1529258675223224,-20,30,-7,-7,-7,-9,-11,-15
1529258675223224,-15,-24,-4,4,2,1,2,4
1529258675232200,48,23,10,4,6,5,6,2
1529258675232200,9,47,31,12,6,3,6,8
1529258675247160,-9,-23,-6,-8,-4,-2,4,4
1529258675247160,12,-16,-3,-5,-3,-1,3,9
1529258675249155,-3,29,8,6,2,-1,-8,-10
1529258675249155,8,-22,-19,-7,-1,-3,-2,-2
1529258675270099,17,9,-2,1,-2,2,5,1
1529258675270099,-17,-10,-3,-6,-3,1,4,-3
1529258675272094,49,51,6,2,-2,-1,2,13
1529258675272094,-2,-27,-20,-7,-3,-1,-2,-8
1529258675283064,11,3,-9,-4,-4,-2,-2,8
1529258675283064,32,53,13,6,4,1,2,3
1529258675292041,-21,-31,-8,-4,0,0,0,2
1529258675292041,-6,-8,2,3,0,-3,1,-4
1529258675307000,-17,0,1,-6,0,-1,-1,-2
1529258675307000,-5,15,-5,0,-2,-5,-13,-16
1529258675308995,-10,-17,-11,-9,-5,-4,2,3
1529258675308995,-4,-10,-9,-1,0,1,2,5
1529258675329939,6,-39,-12,-2,-4,0,0,7
1529258675329939,15,26,26,15,10,6,4,1
1529258675330937,-28,-28,-12,-10,-2,0,-5,-7
1529258675330937,-4,26,16,7,-1,2,1,4
1529258675342904,11,19,20,17,9,6,7,-1
1529258675342904,-19,-20,-12,-17,-13,-10,-7,3
1529258675351880,-10,-5,-3,1,-1,1,4,-17
1529258675351880,15,11,5,-1,1,4,8,9
1529258675366840,1,-3,-9,-3,-1,-2,-4,-8
1529258675366840,-20,-13,4,0,-3,-3,-5,-8
1529258675368836,-40,-8,2,1,-1,-4,-4,-11
1529258675368836,7,4,-8,-8,-6,-5,-5,3
1529258675389779,0,-14,-5,-1,-2,0,0,-4
1529258675389779,-1,6,-7,-2,-4,-4,-2,-3
1529258675391774,17,26,6,5,2,3,1,-4
1529258675391774,-19,-28,-14,-9,-5,-2,5,3
1529258675403742,-5,-10,0,2,1,2,-6,4
1529258675403742,22,-4,10,1,1,2,2,4
1529258675412718,24,9,17,7,-2,3,5,10
1529258675412718,-13,-13,4,3,2,-1,-5,-2
1529258675426681,-7,-5,5,13,10,5,10,-3
1529258675426681,-19,24,2,-2,-1,-1,-2,-4
1529258675428675,-23,-33,-12,-7,-4,1,4,4
1529258675428675,0,-9,1,0,0,0,-4,-5
1529258675449619,3,41,10,-3,-2,-1,-9,-5
1529258675449619,-2,-7,-7,1,1,-2,-8,-9
1529258675451614,-2,-17,-2,1,-1,-2,0,4
1529258675451614,21,8,-9,-7,-6,-4,-5,10
1529258675463581,-7,12,1,1,0,-1,4,8
1529258675463581,10,-17,-1,3,1,2,8,3
1529258675472558,-4,8,-16,-9,-3,-4,-11,-5
1529258675472558,17,15,7,7,4,2,5,4
1529258675486520,7,-8,-6,-8,-5,0,4,-4
1529258675486520,1,2,1,2,0,0,3,8
1529258675493502,19,19,16,7,4,3,-9,-4
1529258675493502,-21,-23,3,-1,0,-2,-9,-4
1529258675509459,-5,10,-10,-8,-4,-6,-7,-10
1529258675509459,-4,-9,-5,-1,3,2,0,-12
1529258675511454,-13,-11,-6,-5,-4,-6,1,2
1529258675511454,2,3,-1,-1,-1,1,1,-7
1529258675523422,8,-2,4,-1,-1,0,-8,-1
1529258675523422,-45,-33,-8,-7,-5,-2,-5,-8
1529258675532398,6,10,0,-1,-2,-2,-1,0
1529258675532398,7,0,-9,-8,-6,-10,-4,4
1529258675547358,4,9,3,-4,1,1,7,2
1529258675547358,14,13,-4,2,0,0,0,-4
1529258675548355,-3,-13,5,2,2,1,2,-1
1529258675548355,-3,-6,-3,-3,-3,5,9,10
1529258675569299,-5,-6,-7,-1,-1,-2,-2,0
1529258675569299,-19,9,13,0,-1,-2,-7,-13
1529258675571294,15,42,2,-1,-2,-2,3,6
1529258675571294,-1,-12,-1,2,3,1,-5,-7
1529258675583262,-6,-6,6,6,3,3,5,9
1529258675583262,-4,48,6,-3,-2,-1,-2,-5
1529258675592238,-5,-26,-4,4,0,0,-3,3
1529258675592238,-4,9,0,-7,-4,-2,-2,-9
1529258675606200,18,24,3,-5,-6,-3,9,8
1529258675606200,-8,-13,-7,0,1,4,4,-1
1529258675613182,12,2,-4,-3,0,-1,-1,0
1529258675613182,13,25,16,9,2,0,-5,-6
1529258675630137,-7,-23,-8,-6,1,-3,-3,-5
1529258675630137,29,22,6,5,-3,-4,-1,-1
1529258675631134,-7,-46,-30,-4,0,0,8,7
1529258675631134,-38,-41,-1,-1,-4,-1,1,-9
1529258675643102,0,8,-1,-1,0,-1,-4,-2
1529258675643102,34,2,-2,-3,-4,-5,-5,8
1529258675652078,-9,2,4,1,1,0,-7,-9
1529258675652078,14,30,3,4,3,4,5,5
1529258675667038,-24,-30,-13,-5,-6,-5,-1,-2
1529258675667038,23,2,-11,-3,0,-1,-1,11
1529258675673022,-33,-33,1,-3,0,2,5,-11
1529258675673022,-10,4,-7,-4,0,-4,-3,-1
1529258675689976,-8,-7,8,5,-2,-1,-2,-7
1529258675689976,4,-2,-20,-6,-6,-6,-4,6
1529258675690974,-16,-14,2,1,-2,-3,0,0
1529258675690974,22,-28,-11,1,3,6,4,2
1529258675711918,-15,-2,-8,-4,-2,-3,-10,-10
1529258675711918,-8,-38,-1,2,2,-2,0,-1
1529258675713913,13,24,-3,-4,-2,-1,0,6
1529258675713913,3,6,-2,4,2,0,-1,-1
1529258675726878,-40,-38,-25,-10,-6,-6,-8,-20
1529258675726878,7,10,2,-2,2,4,10,8
1529258675732862,25,8,12,8,5,3,-3,7
1529258675732862,12,6,7,2,-2,-4,-4,1
1529258675749817,3,-10,-7,0,0,4,8,9
1529258675749817,24,2,-1,1,2,-2,-3,-1
1529258675751811,15,-46,-26,-15,-6,-4,-5,3
1529258675751811,2,35,30,13,0,-4,-6,0
1529258675771758,30,0,8,2,0,1,2,12
1529258675771758,-49,-39,-15,-1,2,6,7,-8
1529258675773753,-42,1,-13,-8,-7,-9,-8,-6
1529258675773753,7,21,5,-1,-4,-4,-7,-1
1529258675786718,-5,-74,-25,-13,-2,3,4,-7
1529258675786718,16,58,43,16,2,-2,-5,5
1529258675793699,30,17,-7,-10,-4,1,7,6
1529258675793699,20,48,10,0,0,-1,2,9
1529258675809657,2,-31,-18,4,4,4,1,-6
1529258675809657,12,-7,-2,-1,-1,-1,0,6
1529258675811652,5,21,7,2,1,1,-7,-14
1529258675811652,-17,-11,-3,-5,-5,-5,1,11
1529258675832596,7,15,-3,-6,-1,-1,-5,1
1529258675832596,1,3,-6,-4,-4,1,0,0
1529258675833593,7,19,0,3,-1,-4,-2,-8
1529258675833593,-25,-26,-4,3,4,4,-2,-13
1529258675846558,0,10,-6,-2,-3,-3,0,5
1529258675846558,-20,12,18,6,1,1,-4,-12
1529258675853539,12,16,-9,-5,-2,-1,2,14
1529258675853539,35,22,16,11,8,7,7,5
1529258675869497,-23,3,-1,-2,-3,-4,-4,1
1529258675869497,10,11,-8,-2,0,1,-1,4
1529258675871491,-22,-34,3,5,-2,-3,-4,-15
1529258675871491,-27,-5,5,1,1,1,-1,-15
1529258675892435,3,36,21,0,-2,-1,0,3
1529258675892435,-78,-82,-35,-20,-11,-8,-5,-18
1529258675893433,2,9,4,12,6,3,1,-2
1529258675893433,3,-43,-46,-19,-5,-1,1,5
1529258675906398,19,32,16,0,-3,-2,2,9
1529258675906398,-44,-19,14,3,0,-3,-1,-8
1529258675913379,6,35,27,7,2,3,3,-2
1529258675913379,-14,-36,-33,-18,-9,-9,-6,0
1529258675929337,74,93,32,20,6,4,0,13
1529258675929337,-21,-50,-19,-9,-5,-5,-9,-14
1529258675931332,30,25,5,-2,0,3,5,14
1529258675931332,-7,54,42,14,9,7,3,-9
1529258675952276,-5,-13,-1,0,0,1,5,-1
1529258675952276,15,31,8,-1,0,-3,0,3
1529258675954270,-10,0,3,-5,-2,-4,-2,0
1529258675954270,-37,-52,-15,-6,-5,-5,-7,-13
1529258675966238,-36,-28,1,7,4,0,-5,-9
1529258675966238,7,32,24,18,9,5,5,3
1529258675975214,-30,-27,-27,-14,-7,-7,-12,-22
1529258675975214,41,34,-3,-3,-1,0,0,10
1529258675990174,-10,-17,-1,0,3,2,0,-1
1529258675990174,23,14,-4,5,3,5,2,5
1529258675991172,11,38,22,9,0,0,-2,3
1529258675991172,33,32,-4,-4,-1,-1,-1,3
1529258676012115,-45,-38,-3,-4,-10,-7,-3,-2
1529258676012115,27,-4,-12,-8,0,2,5,8
1529258676018099,-11,-29,-15,-2,0,-1,-1,2
1529258676018099,31,41,4,-4,-8,-6,3,12
1529258676026078,-7,-43,-18,-12,-4,-4,-12,-6
1529258676026078,37,20,16,11,7,5,0,4
1529258676035054,-36,-28,-8,-9,-7,-4,-5,-2
1529258676035054,-75,-89,-18,-10,-10,-9,-8,-14
1529258676050014,7,-10,-3,-1,0,0,4,-1
1529258676050014,-24,-6,-33,-22,-13,-11,-10,-9
1529258676051012,23,26,43,26,14,12,12,4
1529258676051012,-17,-41,-19,-5,0,2,4,-5
1529258676071955,5,17,-6,-12,-10,-6,-2,0
1529258676071955,-18,5,2,-6,-1,-1,-8,-10
1529258676073950,4,-28,-20,-9,-1,2,8,8
1529258676073950,4,19,27,13,4,3,3,1
1529258676085918,18,6,-9,1,0,0,4,9
1529258676085918,13,12,-4,-5,-6,-4,1,19
1529258676094895,2,-21,-3,-4,-3,-5,-6,-10
1529258676094895,-23,-13,-2,-4,-1,1,-1,4
1529258676109854,3,6,11,4,3,3,1,-5
1529258676109854,-7,-30,-5,-6,-4,-1,3,-4
1529258676110852,-6,40,27,13,7,7,5,0
1529258676110852,-19,-18,-18,-8,-10,-9,-7,-6
1529258676131795,9,3,-7,-6,0,-5,-12,-10
1529258676131795,0,11,17,9,2,-1,2,-1
1529258676133791,-8,-11,-2,-7,-5,-3,0,1
1529258676133791,36,26,2,1,5,5,4,2
1529258676145758,-6,16,4,5,-2,-1,-3,-8
1529258676145758,13,2,0,5,3,2,1,1
1529258676154734,2,-30,-29,-13,-7,-4,-6,0
1529258676154734,58,88,45,15,6,4,4,6
1529258676169694,-39,-37,-28,-13,-8,-8,-8,-10
1529258676169694,-26,-12,-20,-8,-3,2,2,-2
1529258676171689,-15,-67,-33,-2,0,-1,0,-1
1529258676171689,5,-12,-10,2,3,3,4,16
1529258676192633,-5,4,8,-4,-2,-2,4,3
1529258676192633,23,16,10,7,-2,-1,0,0
1529258676193630,53,38,6,3,1,-1,-1,9
1529258676193630,-26,-29,-11,-4,-3,-2,-4,-12
1529258676205598,22,50,31,15,5,7,4,8
1529258676205598,-2,-64,-32,-13,-2,0,7,4
1529258676214574,8,11,1,-5,-7,-7,-7,6
1529258676214574,3,-1,16,10,4,3,-3,-9
1529258676229534,8,24,-13,-12,-3,-3,2,2
1529258676229534,18,-7,1,-3,-1,-1,0,5
1529258676231529,-17,-14,9,1,1,3,6,-1
1529258676231529,1,30,15,-1,2,1,-7,-12
1529258676252473,-14,-19,9,10,0,1,2,-7
1529258676252473,-16,-6,6,1,-4,-5,-3,-1
1529258676253471,-28,-1,3,-2,-1,-3,-2,-6
1529258676253471,1,-31,-25,-14,-7,-3,3,7
1529258676265438,-9,19,-3,-2,1,1,-3,-5
1529258676265438,25,45,24,4,3,0,-2,-1
1529258676274414,-5,53,36,20,4,0,-4,-10
1529258676274414,-25,-25,-21,-7,-5,-3,-5,-12
1529258676289374,3,-3,-6,2,1,4,6,-1
1529258676289374,1,-4,-3,2,2,4,7,11
1529258676291369,-1,2,2,-3,0,-1,-6,-4
1529258676291369,-46,-51,-16,-9,-5,-4,-1,-7
1529258676312313,3,-15,6,11,6,2,-5,-12
1529258676312313,-12,-28,-17,-8,-6,-3,-5,-5
1529258676314308,-8,2,1,4,4,3,1,3
1529258676314308,38,17,4,3,5,2,-3,0
1529258676326276,39,32,11,2,-1,1,1,18
1529258676326276,-4,59,44,16,4,-1,-5,-7
1529258676335252,0,-45,-26,-10,-4,-4,-1,-2
1529258676335252,13,3,-1,6,5,5,12,4
1529258676349214,12,7,14,-1,0,-1,5,6
1529258676349214,21,16,1,2,-1,-4,-9,-5
1529258676351209,-5,-50,-45,-21,-7,-2,-2,1
1529258676351209,21,41,15,8,-1,-2,-1,4
1529258676372153,-30,-24,-7,-3,0,1,1,-9
1529258676372153,24,7,1,3,1,2,8,11
1529258676374148,-13,-19,-3,-4,-4,-5,0,2
1529258676374148,-7,11,-8,-2,-2,-3,-9,-10
1529258676386116,-4,4,4,-3,-1,-3,2,0
1529258676386116,7,6,-4,-1,0,-2,-5,-6
1529258676395092,28,43,20,5,0,0,4,11
1529258676395092,-16,-30,-14,-7,0,0,3,2
1529258676410052,-12,27,11,7,2,1,2,0
1529258676410052,-1,-8,0,1,4,1,-3,-8
1529258676411049,6,31,6,2,1,0,-3,-6
1529258676411049,-4,10,1,-4,-5,-3,-3,1
1529258676431993,13,-2,1,-2,-2,-3,-3,2
1529258676431993,-20,-39,-20,-8,-1,2,0,-6
1529258676433988,17,49,23,3,2,0,0,1
1529258676433988,-11,-20,-6,-2,2,1,-8,-5
1529258676445955,3,14,-7,-5,-3,-3,-8,-15
1529258676445955,-8,-3,-2,-7,-8,-3,7,7
1529258676454932,-30,-28,-10,-2,-4,-2,4,-8
1529258676454932,-14,-13,-12,-5,-3,-3,1,-1
1529258676469891,-8,-14,2,3,1,1,-3,3
1529258676469891,-40,-32,-13,-1,-2,-2,-4,-5
1529258676470889,1,-18,-1,-8,-6,-2,-1,-5
1529258676470889,3,-18,-1,4,1,-4,-2,8
1529258676491833,38,22,8,6,4,4,0,2
1529258676491833,-5,-32,-13,-4,-1,0,0,5
1529258676493828,-20,-31,-17,-3,-4,-3,-2,6
1529258676493828,-6,-10,-16,-9,-3,1,4,-9
1529258676505796,-7,-15,-18,-4,-4,-3,-7,0
1529258676505796,12,26,12,4,3,1,-3,4
1529258676514772,14,1,3,4,3,5,1,0
1529258676514772,-3,12,3,2,0,4,7,0
1529258676529732,-15,-29,-22,-14,-8,-9,1,7
1529258676529732,21,16,-1,-2,-3,-3,-4,-4
1529258676531726,-17,3,9,8,3,2,-6,-5
1529258676531726,25,11,3,6,2,-2,-5,3
1529258676552670,-43,-34,-10,-7,-4,-1,2,-3
1529258676552670,12,-20,-7,-7,-2,-1,4,5
1529258676553668,5,42,15,-2,-3,-3,-3,-2
1529258676553668,5,20,19,12,7,6,3,5
1529258676565635,-6,-5,-2,-4,-3,-1,4,5
1529258676565635,19,14,11,4,-2,0,-1,0
1529258676574612,1,28,-9,-5,-3,-5,-4,-10
1529258676574612,-10,-13,-5,-1,-3,-3,-5,-9
1529258676588574,-15,-16,-4,0,4,3,1,-5
1529258676588574,-12,15,6,3,0,-1,-8,-19
1529258676595556,-3,-26,-2,-3,1,4,2,-1
1529258676595556,-22,-6,19,9,-2,-5,-5,-5
1529258676612510,5,10,1,0,0,-2,1,1
1529258676612510,6,2,-1,1,1,3,6,10
1529258676613508,-8,-21,-2,1,3,4,6,-9
1529258676613508,18,-11,-9,-13,-5,1,10,15
1529258676634452,-10,28,18,7,1,-2,-11,-10
1529258676634452,-30,-34,-22,0,-4,-5,-7,-6
1529258676636446,-17,1,6,3,0,0,3,1
1529258676636446,5,3,-4,-8,-7,-7,-12,-4
1529258676649412,-5,0,4,3,2,0,1,-13
1529258676649412,-5,4,0,-4,-4,-5,0,0
1529258676655396,28,44,-6,-4,-2,-3,-4,8
1529258676655396,-11,-1,2,-2,-3,-3,4,-4
1529258676672350,5,9,6,1,0,-2,-7,-6
1529258676672350,-1,-8,0,-1,0,0,0,-1
1529258676673348,1,-28,-15,-4,-2,-5,-8,4
1529258676673348,7,12,17,1,-3,-3,-5,-2
1529258676694292,22,7,1,-2,-1,0,-3,4
1529258676694292,-36,-18,6,6,6,6,7,3
1529258676696287,-15,-16,-3,1,-3,0,-6,-6
1529258676696287,-1,8,-7,0,-1,1,-3,-1
1529258676709252,8,-4,2,-1,-1,4,5,3
1529258676709252,8,11,3,-2,-3,-3,0,0
1529258676716233,7,2,3,-4,-1,1,4,6
1529258676716233,8,0,9,5,5,1,2,3
1529258676732190,18,42,17,7,3,3,2,1
1529258676732190,27,64,26,8,2,-2,-3,3
1529258676734185,-23,-23,-14,-8,-3,-1,2,-5
1529258676734185,-3,-19,-11,-4,-1,-1,-3,-2
1529258676755129,-2,-6,-6,-6,-3,-2,-2,0
1529258676755129,-3,-20,-14,-4,-1,-2,-3,-7
1529258676756127,12,-6,-4,-1,-2,-2,-3,4
1529258676756127,17,2,-2,6,3,3,3,-2
1529258676768094,-11,-30,-10,-5,-4,-2,5,5
1529258676768094,-2,8,-12,-8,-6,-7,-7,-6
1529258676777070,9,-6,5,4,2,-1,3,-1
1529258676777070,-13,-4,-13,-7,-3,2,-2,2
1529258676792030,-2,1,-4,-2,-2,-4,-6,-2
1529258676792030,10,-8,1,-1,1,1,-4,11
1529258676794025,-5,-3,2,2,0,-3,-5,-7
1529258676794025,3,17,21,7,-2,1,10,13
1529258676814969,15,8,2,4,1,2,-1,-3
1529258676814969,-10,0,0,-3,-2,1,6,4
1529258676815967,-7,-15,0,1,0,-2,-6,-11
1529258676815967,-16,0,-4,-3,0,-2,-2,-2
1529258676828932,10,-21,-8,-3,0,3,-2,1
1529258676828932,11,12,2,1,1,3,5,3
1529258676835913,-1,10,1,1,0,-2,0,3
1529258676835913,-6,8,-5,-4,-2,-3,-3,-7
1529258676851870,11,-5,-2,4,1,-2,1,13
1529258676851870,-17,-31,-14,-9,-1,-1,-1,-7
1529258676853865,-12,19,20,5,0,-1,-4,-4
1529258676853865,24,0,-7,2,0,-1,0,0
1529258676874809,3,31,4,-5,-5,-4,0,8
1529258676874809,-16,-32,-11,0,0,0,-3,-6
1529258676876804,19,11,10,8,5,5,5,4
1529258676876804,-32,-8,0,-1,-2,-7,-13,-27
1529258676896750,-9,0,1,-3,-1,3,8,5
1529258676896750,4,2,-8,-10,-7,-6,-7,-8
1529258676897748,1,1,-13,-10,-7,-6,-7,-3
1529258676897748,-6,33,22,9,5,8,6,8
1529258676911710,-3,-20,-6,0,-1,-2,-6,-5
1529258676911710,15,45,14,3,-2,1,2,7
1529258676912708,2,-15,-23,-12,-7,0,12,16
1529258676912708,-5,-44,-29,-14,-2,-2,-4,0
1529258676933652,-8,32,-1,-8,-3,-4,-6,-5
1529258676933652,7,5,3,8,1,1,2,0
1529258676934649,-14,10,22,14,2,1,-2,-7
1529258676934649,11,-12,-4,-2,-1,2,3,6
1529258676957588,-15,-22,-5,-1,2,0,-3,-11
1529258676957588,-9,-2,-22,-11,-7,-8,-2,-8
1529258676957588,-26,-30,-30,-14,-1,2,4,4
1529258676957588,0,-7,-11,2,0,-2,-10,-11
1529258676971551,-2,11,10,8,1,0,-1,-4
1529258676971551,20,7,10,3,0,3,3,3
1529258676972548,15,13,-1,2,1,-3,0,-1
1529258676972548,9,3,1,-2,0,-1,-7,-5
1529258676994489,-17,-29,-10,-3,-5,-3,0,-4
1529258676994489,1,-16,4,0,-1,1,2,-1
1529258676994489,-3,30,20,5,-1,-2,-1,-4
1529258676994489,-25,-39,-11,-3,-3,2,4,-4
1529258677016431,14,9,8,5,2,-2,-3,0
1529258677016431,-15,-2,9,4,4,1,1,-4
1529258677017428,14,-16,-7,-3,-1,-1,-6,-1
1529258677017428,6,15,-6,-5,-6,-7,-8,-8
1529258677031390,3,-1,-8,-5,0,1,0,-1
1529258677031390,-10,-9,-7,0,-1,0,0,4
1529258677032388,10,2,-1,-1,1,0,1,3
1529258677032388,14,22,8,5,1,0,3,14
1529258677054329,-1,-1,-1,3,0,1,1,-3
1529258677054329,-8,-12,-13,-6,-1,-2,-8,-17
1529258677055327,17,5,-10,-7,-4,-1,6,15
1529258677055327,7,19,14,1,-2,0,-1,7
1529258677076271,-1,-11,-4,-6,-3,-3,0,-2
1529258677076271,12,-9,-2,1,2,3,4,10
1529258677077268,-27,-9,10,5,2,5,-2,-20
1529258677077268,24,5,-8,-9,-6,-7,0,10
1529258677091230,-30,-22,-4,-1,1,0,0,-8
1529258677091230,7,-4,-6,0,4,0,-5,-1
1529258677092228,2,29,27,12,4,-1,-1,-9
1529258677092228,18,13,18,11,4,2,4,14
1529258677114169,-7,-2,-5,-5,-5,-7,-15,-10
1529258677114169,1,-35,-6,-10,-4,-3,1,5
1529258677115167,19,41,11,7,1,-2,-3,2
1529258677115167,-1,0,6,1,4,5,6,-4
1529258677136111,24,20,14,9,1,1,3,7
1529258677136111,-33,-56,-17,-12,-6,-3,-4,-4
1529258677137108,15,-7,-13,-9,-6,-7,-8,1
1529258677137108,-19,-11,-1,-5,-1,0,0,-4
1529258677151071,12,8,5,2,1,7,6,2
1529258677151071,-4,2,6,9,1,-2,2,1
1529258677152068,-25,-11,3,-3,0,-1,-1,-8
1529258677152068,-15,-15,-8,-2,-1,-2,5,1
1529258677175007,5,-9,-7,-5,-3,-3,-4,0
1529258677175007,-11,-12,-14,-7,-4,1,-8,-5
1529258677175007,-8,-9,-1,5,1,1,1,0
1529258677175007,22,11,1,-2,-2,-2,-3,-1
1529258677196948,-23,-22,-3,1,-1,-1,4,3
1529258677196948,0,-6,-9,-6,-2,-5,-2,-9
1529258677196948,-10,-8,-3,-3,-1,1,4,7
1529258677196948,2,-3,-12,-4,-4,-5,-3,-2
1529258677211908,12,-5,0,4,2,2,-1,-1
1529258677211908,3,14,3,0,0,2,3,-1
1529258677211908,7,-7,2,-2,-1,1,-3,1
1529258677211908,-15,1,3,-2,0,2,3,-4
1529258677233849,6,-32,-35,-14,-8,-7,-12,-4
1529258677233849,21,46,32,16,4,2,-1,4
1529258677234847,-5,-7,-13,-4,-1,1,6,6
1529258677234847,-4,1,1,3,-1,-2,-6,-17
1529258677256788,-17,1,-3,-6,-2,-4,-3,-2
1529258677256788,12,22,14,8,2,3,7,7
1529258677257785,3,-2,-4,-3,-1,-2,-3,-7
1529258677257785,-37,-41,-18,-7,-4,-3,-10,-15
1529258677271748,11,41,31,8,2,2,4,-1
1529258677271748,-7,8,-6,-6,-3,-1,0,-3
1529258677272746,1,-4,-5,0,0,0,1,1
1529258677272746,3,1,-3,-3,-3,-3,-7,-4
1529258677293689,24,27,7,-1,-4,-2,-1,3
1529258677293689,8,0,-4,-4,-2,-4,-3,-3
1529258677294687,21,15,-1,0,-5,-2,3,6
1529258677294687,1,-14,2,0,4,3,8,10
1529258677316628,2,8,4,3,-2,-1,-3,2
1529258677316628,4,13,3,5,3,3,0,-5
1529258677317626,-14,-33,-10,-5,1,1,-1,-3
1529258677317626,3,22,4,0,-1,-1,3,14
1529258677331588,-6,-10,-8,1,1,3,5,0
1529258677331588,5,9,-3,1,2,2,7,9
1529258677332586,-2,1,14,5,0,-1,-2,0
1529258677332586,-13,-5,7,-1,-4,-3,-6,-6
1529258677353529,-8,-9,-20,-9,0,1,4,-1
1529258677353529,3,15,4,3,-2,-1,-2,9
1529258677354527,1,11,8,3,-1,0,-1,1
1529258677354527,9,5,-7,-4,-4,-3,-5,-4
1529258677376468,-3,-18,2,1,2,3,-1,-5
1529258677376468,-18,-9,-5,-10,-4,-5,-8,0
1529258677377466,-1,-3,-4,-1,0,-2,3,2
1529258677377466,-2,-19,-6,2,2,-1,-2,-2
1529258677391428,3,2,-1,-3,-3,-3,-6,0
1529258677391428,4,13,11,2,-2,-2,0,-1
1529258677392425,-2,-7,-3,-1,-1,-2,-2,-2
1529258677392425,-15,-1,2,-2,1,0,0,-9
1529258677414367,9,1,-7,2,-3,-4,0,8
1529258677414367,-12,-4,4,0,-1,-2,-4,-11
1529258677414367,1,-8,-4,0,-1,1,7,-4
1529258677414367,-34,-6,-5,-5,-1,-1,4,-9
1529258677436308,-5,-4,1,5,4,0,0,-2
1529258677436308,3,6,7,7,0,0,0,-2
1529258677437306,-8,1,-5,-4,-1,-1,-3,-2
1529258677437306,-9,-1,-7,-8,-9,-7,-9,-11
1529258677451268,-12,-9,-7,-7,-3,-2,1,3
1529258677451268,4,2,-3,-4,-2,-1,-2,-6
1529258677452266,14,2,-4,1,2,3,-1,3
1529258677452266,-19,-12,3,4,2,-1,-3,-6
1529258677474207,2,11,4,-3,-2,-2,2,10
1529258677474207,-4,-9,-2,0,-1,-4,-10,-13
1529258677475204,-5,-14,-9,-7,-1,-2,-6,-6
1529258677475204,9,6,6,9,0,4,6,8
1529258677496148,-1,-3,-6,-5,-3,0,-2,-3
1529258677496148,-3,-14,-7,-1,2,2,4,5
1529258677497146,-10,8,6,0,-2,-4,-8,-7
1529258677497146,10,20,-1,-2,-1,1,5,10
1529258677511108,-10,-16,-7,-3,-2,-3,-1,-4
1529258677511108,7,1,5,3,-1,-2,-2,4
1529258677512106,-8,-10,-5,-4,-2,-3,-7,-6
1529258677512106,-1,-6,-3,-1,0,2,6,6
1529258677534047,12,6,12,5,0,1,2,7
1529258677534047,-13,-12,-9,-7,-4,-5,-4,-7
1529258677535045,14,14,-2,-3,-1,0,0,-1
1529258677535045,8,2,0,-1,-1,-3,-5,4
1529258677556985,11,1,3,6,3,2,0,3
1529258677556985,7,19,12,7,1,2,3,5
1529258677556985,-11,-3,1,1,2,-3,-7,-2
1529258677556985,19,3,-4,-2,-1,-2,2,6
1529258677571945,-11,0,4,2,3,-1,-6,-19
1529258677571945,0,1,5,3,2,2,1,9
1529258677571945,5,-3,-3,0,1,1,4,1
1529258677571945,9,-4,-7,-5,-1,1,-1,-2
1529258677593887,4,5,5,0,-1,-3,-2,-4
1529258677593887,-18,-12,-10,-4,-5,-3,-1,-5
1529258677594884,-8,-14,-3,0,-1,-1,1,-6
1529258677594884,-14,-5,-2,2,-2,-5,-12,-12
1529258677616826,1,-3,-2,-3,0,0,0,6
1529258677616826,9,5,-2,1,2,3,1,0
1529258677616826,4,-3,-5,-4,-5,-2,-2,6
1529258677616826,-11,-6,-2,2,1,2,2,-9
1529258677630788,-8,0,-1,0,0,-2,-4,-4
1529258677630788,2,-5,-5,-4,-3,-3,-1,-2
1529258677646746,12,12,3,2,-1,-2,0,8
1529258677646746,3,1,4,3,1,0,3,1
1529258677653727,-3,-14,-7,-7,-4,-2,5,5
1529258677653727,-8,-7,-4,0,-1,-1,-3,-10
1529258677654725,-24,-10,-2,-6,-3,0,1,0
1529258677654725,5,-4,-4,-6,-3,-5,-7,0
1529258677676665,-5,10,7,3,1,-1,0,-8
1529258677676665,10,3,4,4,0,2,2,4
1529258677677663,-10,-7,3,2,2,1,0,-6
1529258677677663,17,5,-11,-7,-1,2,2,4
1529258677690628,2,-5,4,9,1,2,-1,0
1529258677690628,-3,-8,-8,-5,-3,-1,3,-5
1529258677698607,-19,-10,-1,-1,-3,-3,0,-4
1529258677698607,7,6,-2,-1,0,0,0,2
1529258677713567,-1,-3,0,-1,1,1,0,-5
1529258677713567,20,29,3,1,1,-2,-4,2
1529258677714564,-10,-25,-6,-4,-2,-2,-5,-7
1529258677714564,-3,-2,-6,-5,0,-1,1,-3
1529258677736506,-13,-3,-3,-1,-2,-1,-5,-6
1529258677736506,6,11,5,4,2,2,-2,2
1529258677737503,-4,4,-10,-9,-1,-3,-7,-7
1529258677737503,16,4,8,2,0,1,2,1
1529258677750468,3,-6,-3,-1,0,-1,-1,0
1529258677750468,-21,2,0,-6,-2,-5,-4,-4
1529258677759445,19,6,-6,3,3,5,3,5
1529258677759445,-15,1,6,1,-2,-3,2,1
1529258677774404,-2,-2,-2,-5,-1,-1,3,1
1529258677774404,11,9,1,-2,2,0,-2,0
1529258677774404,3,9,-1,-2,-3,-3,0,-5
1529258677774404,-18,-24,-5,1,-1,0,-4,-5
1529258677796346,-18,6,-7,-12,-11,-10,-9,-1
1529258677796346,8,-4,-3,-5,-2,0,1,4
1529258677797343,12,3,5,5,1,3,5,7
1529258677797343,4,-4,-2,0,-1,0,0,2
1529258677811305,17,20,3,6,5,1,-4,-6
1529258677811305,24,5,1,3,-1,-1,6,22
1529258677819284,-19,-13,-4,-4,-2,-2,-5,-3
1529258677819284,2,-3,5,6,4,3,9,4
1529258677834244,25,16,1,-1,-2,-3,-4,2
1529258677834244,-29,-56,-29,-17,-6,-2,-1,-10
1529258677836239,31,65,32,15,8,-1,-6,-6
1529258677836239,-40,-3,6,2,-5,-5,-2,7
1529258677856186,6,-18,-7,0,0,1,4,6
1529258677856186,2,-7,-4,2,-1,-3,-3,-11
1529258677857183,2,-14,-15,-10,-7,-7,-3,4
1529258677857183,14,19,7,1,1,0,-9,-13
1529258677871146,6,6,4,0,-2,0,-1,3
1529258677871146,0,4,6,5,2,2,1,-1
1529258677879124,-77,-43,-19,-10,-4,1,7,-1
1529258677879124,23,21,-1,-4,-3,-3,0,5
1529258677894084,-19,-29,-16,-11,-5,-4,-3,-9
1529258677894084,1,29,22,9,2,0,1,-6
1529258677895082,10,-1,5,3,3,3,5,9
1529258677895082,12,15,5,0,2,-1,-7,-5
1529258677917023,-15,-8,-11,-4,-5,-4,-7,-8
1529258677917023,-43,-28,-4,-3,-2,-1,-1,-9
1529258677917023,21,41,14,6,1,0,1,1
1529258677917023,-24,-27,-2,1,-1,-1,0,0
1529258677930986,28,9,14,9,5,2,0,1
1529258677930986,12,10,5,1,-2,0,0,11
1529258677938964,36,9,-11,-6,-5,-3,1,18
1529258677938964,-12,-7,1,4,1,0,-2,-26
1529258677953924,-8,25,3,6,6,4,8,8
1529258677953924,16,-11,-7,2,1,0,3,9
1529258677954922,1,-30,-21,-13,-6,-5,-5,2
1529258677954922,-4,-4,2,1,-1,0,2,4
1529258677976863,19,-15,-9,-7,-5,-2,0,6
1529258677976863,48,69,32,13,5,5,-4,-10
1529258677976863,-6,-23,-6,-6,-7,-7,-6,-8
1529258677976863,24,5,11,5,2,4,3,5
1529258677990826,-3,17,1,2,-4,-8,-11,-12
1529258677990826,39,15,5,3,6,6,10,10
1529258677998805,-3,-21,-11,-9,-4,0,3,5
1529258677998805,-7,19,11,1,-1,-3,-1,-8
1529258678013764,-27,-29,-10,-10,-1,-3,-4,-1
1529258678013764,10,-13,-20,-11,-9,-7,-5,3
1529258678014762,23,82,48,28,14,9,1,2
1529258678014762,-8,-24,-26,-17,-9,-6,1,11
1529258678036703,-37,-35,-1,1,1,6,8,0
1529258678036703,-31,-35,-17,-8,-6,-4,1,-5
1529258678037701,-38,-93,-39,-5,1,-1,-3,-14
1529258678037701,-16,38,8,2,-1,-2,3,6
1529258678059642,30,42,12,4,3,-3,-6,-1
1529258678059642,-37,-44,-6,-3,-3,-4,-5,-6
1529258678060639,-33,-49,-19,-12,-6,-4,-3,-4
1529258678060639,20,31,10,6,3,4,6,3
1529258678073604,18,-8,-15,-8,-5,-4,-6,-7
1529258678073604,-47,-3,21,13,9,-4,-13,-16
1529258678074602,80,99,41,15,5,2,-4,6
1529258678074602,-17,-24,-13,-4,-1,0,-1,-6
1529258678096543,-49,-43,-18,-14,-7,-3,3,0
1529258678096543,10,67,31,9,2,-1,0,3
1529258678097541,45,48,27,10,-2,0,-6,-17
1529258678097541,6,16,-4,-1,1,3,8,17
1529258678119482,27,16,-3,-5,-4,-4,-2,-3
1529258678119482,-32,-27,-26,-19,-5,-4,-5,-4
1529258678120480,-14,-14,-3,5,2,1,-5,-5
1529258678120480,14,10,-1,1,-3,-4,-4,3
1529258678134442,-3,-13,-2,0,-2,1,-3,0
1529258678134442,7,-9,-16,-14,-6,-4,-3,-6
1529258678134442,-11,-28,-8,-3,3,0,2,7
1529258678134442,27,-29,-15,0,3,6,4,10
1529258678156383,6,57,23,9,2,-2,-2,-6
1529258678156383,19,33,13,5,3,4,2,-2
1529258678157381,-29,-16,-9,-7,-7,-6,-6,-15
1529258678157381,19,11,2,0,-4,-2,-3,1
1529258678179322,23,72,55,25,10,7,7,3
1529258678179322,-8,-39,-24,-10,-7,-2,-1,5
1529258678179322,34,20,-4,-1,2,2,3,4
1529258678179322,-60,-32,-8,-5,-2,-5,-8,-10
1529258678194282,-6,-9,-7,0,1,1,0,2
1529258678194282,-23,-8,-2,-1,-4,0,4,0
1529258678195279,3,-17,-1,-2,-3,-1,2,6
1529258678195279,11,2,-1,-1,-5,-6,-13,-13
1529258678216223,-29,-39,-29,-13,-4,-2,3,2
1529258678216223,36,15,15,12,2,0,-1,2
1529258678217221,-19,-21,-21,-13,-7,-5,1,4
1529258678217221,2,-16,-13,-3,0,1,4,1
1529258678239162,-17,-46,-7,-4,-2,-2,-4,-1
1529258678239162,-1,-8,-5,0,0,2,3,-1
1529258678240159,-13,7,0,-1,2,1,-2,-10
1529258678240159,54,68,54,17,5,0,-2,7
1529258678254122,8,-8,10,5,5,6,12,12
1529258678254122,2,-16,-21,-11,-2,-2,1,1
1529258678255120,-43,-62,-21,-6,-2,-3,0,-9
1529258678255120,-11,23,21,11,4,0,-2,-6
1529258678276064,-7,-14,-13,-9,-5,0,-2,-3
1529258678276064,33,-2,-1,4,4,2,2,7
1529258678277061,-16,2,11,-2,-1,0,-5,1
1529258678277061,10,-1,-14,-3,-2,-1,0,7
1529258678299002,-19,-12,-4,-6,-2,-4,-7,-9
1529258678299002,13,-7,-4,4,1,-2,-3,7
1529258678300000,2,9,0,-2,-3,-1,3,-3
1529258678300000,-42,-68,-28,-16,-7,-4,-5,-17
1529258678314959,42,54,33,19,8,6,8,12
1529258678314959,-8,-12,-9,-8,-3,-4,-2,-5
1529258678315957,-13,9,-2,-8,-6,-8,-6,-4
1529258678315957,6,7,-6,-1,0,-2,0,5
1529258678336900,-5,-43,-26,-10,-4,0,5,5
1529258678336900,-20,4,5,1,-1,1,-4,-8
1529258678336900,55,59,36,12,7,8,12,15
1529258678336900,-21,-22,-18,-11,-6,1,2,0
1529258678358842,-7,-16,-14,-6,-1,-2,-5,-5
1529258678358842,-28,-8,13,2,-4,0,4,1
1529258678359840,28,-18,-19,-5,0,2,3,11
1529258678359840,-16,14,6,-3,-5,-5,-6,-1
1529258678375797,10,21,11,2,1,-2,-1,6
1529258678375797,12,1,-14,-7,-1,0,0,1
1529258678376794,-14,-34,-12,-5,-2,-4,-3,-4
1529258678376794,-6,-23,4,5,3,3,4,2
1529258678396741,-16,-15,-11,0,-1,-2,-3,-9
1529258678396741,-9,1,16,3,0,0,-3,1
1529258678397738,-41,-33,-36,-15,-11,-8,-9,-10
1529258678397738,29,-11,-8,-5,2,4,6,5
1529258678418682,34,46,13,-1,-2,-4,-3,5
1529258678418682,-5,-13,2,2,-1,1,4,-6
1529258678419680,-8,-4,2,5,5,2,-1,1
1529258678419680,6,-15,-7,-2,0,-2,-5,-7
1529258678433642,0,14,18,8,2,5,8,-5
1529258678433642,-32,-42,-18,-12,-6,-3,-1,2
1529258678434639,-34,-5,-1,3,-1,-3,-7,-16
1529258678434639,2,-26,-30,-12,-7,-5,-1,-4
1529258678456580,17,8,2,2,1,2,2,17
1529258678456580,-97,-54,-11,-3,-3,-11,-22,-40
1529258678457578,20,32,21,7,4,5,6,8
1529258678457578,-14,6,9,4,2,0,-3,-8
1529258678479519,-6,-50,-51,-23,-9,-9,-6,-1
1529258678479519,36,55,36,10,1,0,-2,2
1529258678480517,-20,9,5,2,-1,-2,1,3
1529258678480517,12,-3,-12,-8,-3,-4,-6,-2
1529258678494479,-23,-42,-4,-1,1,2,-3,-11
1529258678494479,24,48,-11,-13,-9,-6,0,16
1529258678494479,16,13,32,14,6,0,1,-4
1529258678494479,-17,-15,-6,-5,-4,-2,-2,-2
1529258678516421,-16,-10,2,-1,-4,-8,-14,-7
1529258678516421,22,-2,-15,-3,3,6,5,6
1529258678517418,20,14,-4,-1,-1,1,2,6
1529258678517418,-32,-20,-5,-7,-5,-6,-6,-19
1529258678539359,19,23,11,3,-2,-3,-4,-1
1529258678539359,55,77,38,24,13,8,7,8
1529258678539359,-2,-6,-3,0,-2,-4,-5,-6
1529258678539359,-6,-14,9,6,4,5,5,5
1529258678553322,-58,-26,-5,-5,-6,-2,1,-10
1529258678553322,-27,-36,-10,-1,0,-1,1,-1
1529258678561301,12,15,1,-3,0,2,-2,-9
1529258678561301,45,41,19,10,5,6,6,7
1529258678576261,7,35,15,9,4,4,-1,-7
1529258678576261,-73,-100,-35,-19,-12,-10,-13,-7
1529258678577259,-3,-2,-11,-10,-5,-5,-8,-5
1529258678577259,-13,-42,-15,-8,-2,-3,-5,-5
1529258678599200,3,31,7,1,-3,-4,5,5
1529258678599200,1,44,13,8,4,4,-1,-7
1529258678600197,3,-14,-10,-8,-3,-1,7,12
1529258678600197,4,34,13,5,2,0,-4,-6
1529258678614159,16,23,1,7,5,2,3,1
1529258678614159,-58,-63,-20,-3,-2,-3,-6,-13
1529258678615157,33,6,-2,4,3,6,9,17
1529258678615157,-2,14,10,6,4,3,-1,-4
1529258678636101,21,-22,-10,-9,-2,0,5,10
1529258678636101,78,48,1,-4,-6,-6,-10,11
1529258678637098,1,-22,-14,-11,-7,-6,-4,-14
1529258678637098,24,11,-8,-7,-7,-10,-8,8
1529258678659040,7,13,12,3,5,8,10,4
1529258678659040,13,18,11,3,3,4,9,5
1529258678660037,14,15,10,6,0,-2,-6,0
1529258678660037,-8,4,-16,-3,0,0,0,-5
1529258678673999,9,29,1,-5,-7,-10,-8,1
1529258678673999,-10,6,13,2,4,0,3,2
1529258678674997,29,33,18,11,6,4,1,5
1529258678674997,-18,-4,12,11,6,5,3,-9
1529258678696938,36,62,4,-3,-6,-1,3,17
1529258678696938,-23,-28,-16,-7,-1,-4,-1,-8
1529258678696938,-25,-7,-2,-4,-3,-4,-2,1
1529258678696938,-23,-11,-12,-13,-7,-3,-8,-11
1529258678718879,-7,20,24,16,2,-9,-10,-18
1529258678718879,17,-14,0,0,-3,1,7,6
1529258678719877,-18,-7,0,-5,0,-2,-2,0
1529258678719877,-16,17,3,6,2,2,9,2
1529258678733839,-9,15,-3,-12,-4,-1,-10,-3
1529258678733839,-32,-34,-7,-1,0,2,1,4
1529258678734837,26,29,1,4,0,0,-2,5
1529258678734837,23,28,20,3,3,4,-4,-13
1529258678756778,-50,-70,-29,-20,-10,-6,-5,-8
1529258678756778,-8,-5,-11,-1,0,-6,-8,-12
1529258678757776,32,2,5,3,4,8,11,12
1529258678757776,5,9,5,0,-5,-8,0,10
1529258678778719,-18,-51,-3,14,15,15,4,-5
1529258678778719,-14,1,1,3,1,-1,-1,-8
1529258678779717,44,81,2,-8,-7,-12,-7,4
1529258678779717,-18,-23,-6,-2,-1,7,5,3
1529258678793679,3,-19,9,14,14,7,-7,-28
1529258678793679,40,40,9,-7,-10,-1,4,16
1529258678801658,-43,-25,1,4,1,-11,-5,-14
1529258678801658,-31,-75,-26,-6,5,9,-1,3
1529258678816618,-49,-34,-20,-20,-15,-21,-12,-21
1529258678816618,14,35,9,9,3,17,2,-6
1529258678817616,1,-6,-1,15,16,10,6,-1
1529258678817616,21,19,5,-5,-5,-9,-2,8
1529258678838560,12,-15,-6,4,2,3,9,12
1529258678838560,8,14,4,-11,-9,-9,-5,2
1529258678839557,-37,-41,-8,-2,-4,1,4,-5
1529258678839557,-22,-10,-20,-14,-12,-15,-12,-11
1529258678853519,-1,5,16,6,4,8,6,3
1529258678853519,5,-8,-19,-10,-6,-11,-3,-5
1529258678861498,38,58,18,-2,0,5,2,9
1529258678861498,8,30,14,9,3,-1,1,3
1529258678876458,-34,-16,-6,-4,-4,-4,-8,-10
1529258678876458,-3,-34,-13,-3,2,0,-2,-8
1529258678877456,9,53,13,-1,-9,-13,-15,-6
1529258678877456,2,-8,-16,-5,1,5,13,17
1529258678899397,21,6,-8,-6,-4,1,5,19
1529258678899397,-29,-25,-2,4,2,-6,-5,-2
1529258678899397,-31,-50,-16,-3,2,5,1,-7
1529258678899397,45,49,41,22,8,6,2,7
1529258678913359,-15,5,-6,1,1,1,-1,-1
1529258678913359,-22,-10,-1,-2,-1,-5,-5,-10
1529258678921338,-56,-46,-14,-6,-5,-2,1,-6
1529258678921338,19,17,5,-2,-3,-5,5,12
1529258678936298,-35,-13,7,8,3,-2,-8,-20
1529258678936298,12,16,-8,-4,1,2,1,-1
1529258678937296,-27,-24,-3,-5,-2,-5,-10,-17
1529258678937296,-6,-22,-24,-7,-2,3,1,-4
1529258678967215,-71,-16,9,2,0,-3,-3,-6
1529258678967215,12,11,12,5,3,2,0,0
1529258678968213,-24,-23,-20,-14,-11,-6,-9,-13
1529258678968213,-4,-10,7,4,3,-1,-3,-1
1529258678973199,51,26,-14,-13,-8,-6,0,5
1529258678973199,4,-1,18,8,2,4,4,-5
1529258678981178,16,52,10,6,6,4,3,4
1529258678981178,-20,5,11,-6,-9,-14,-14,-17
1529258678996138,10,2,0,1,2,1,2,1
1529258678996138,22,7,9,12,11,12,15,17
1529258678997136,-26,8,4,5,0,-8,-11,-30
1529258678997136,41,41,-10,-13,-13,-8,-4,7
1529258679019077,59,16,3,3,4,8,14,29
1529258679019077,15,34,0,-2,-6,-11,-15,-8
1529258679020075,24,-5,2,6,3,9,12,27
1529258679020075,-38,-49,-8,-1,1,-4,-4,-9
1529258679033040,3,-15,-6,-2,-1,-2,-3,2
1529258679033040,77,13,-3,9,9,7,11,24
1529258679042016,-1,12,5,0,1,3,8,12
1529258679042016,20,21,-1,-2,-5,-5,-1,6
1529258679056976,9,-40,-11,-6,-1,12,6,9
1529258679056976,-38,-40,-26,-35,-27,-21,-4,-2
1529258679056976,4,-12,-11,12,3,-4,0,5
1529258679056976,-26,-19,4,21,21,-1,2,-4
1529258679078917,62,78,25,21,13,33,11,-1
1529258679078917,-63,-73,-31,-36,-20,-9,-5,-11
1529258679079915,0,-23,-8,5,7,0,0,-2
1529258679079915,1,23,22,-1,-4,-3,-6,-12
1529258679093877,-12,-54,-7,11,8,-5,-3,-4
1529258679093877,-9,34,2,-4,-3,1,-6,-3
1529258679101856,51,28,27,4,-2,-1,-6,-11
1529258679101856,-68,-74,-42,-25,-17,-8,-2,-4
1529258679116815,6,16,8,-4,-1,-1,3,7
1529258679116815,2,2,5,12,8,9,3,2
1529258679117813,41,20,8,-2,0,-2,6,17
1529258679117813,-42,6,-7,-7,-4,-4,-10,-15
1529258679138757,2,15,21,2,2,-1,-2,-12
1529258679138757,-30,4,-2,-1,-3,-15,-9,-13
1529258679139755,22,10,4,-3,-12,10,1,7
1529258679139755,25,-47,-28,-10,1,-6,-2,4
1529258679153717,-14,-5,-5,17,-7,2,1,3
1529258679153717,-14,-23,3,10,13,5,3,2
1529258679161696,-30,-16,-2,-3,-2,0,-4,0
1529258679161696,71,79,29,0,-5,11,15,16
1529258679176656,-2,-17,-22,-30,-14,-23,-18,-9
1529258679176656,38,27,7,18,6,8,13,11
1529258679177653,-18,-40,-7,0,-4,-6,-4,-8
1529258679177653,-36,-22,-6,-11,-11,-6,-7,-9
1529258679198597,33,19,3,6,7,-5,-3,4
1529258679198597,47,64,26,11,6,9,5,13
1529258679199595,26,1,-1,-1,9,11,17,16
1529258679199595,14,-8,-9,1,3,-2,-1,3
1529258679222533,23,12,1,-44,-25,-6,-1,3
1529258679222533,-62,-73,-27,33,14,-5,-3,-7
1529258679223531,21,7,0,-54,-20,-3,-3,3
1529258679223531,40,18,11,73,65,16,7,5
1529258679236495,-21,-9,-14,0,0,0,1,-2
1529258679236495,42,20,3,-18,-19,-10,-9,-5
1529258679237493,-70,-60,-27,-4,0,-9,-4,-18
1529258679237493,-6,38,16,-17,-23,-4,-4,-1
1529258679259434,-30,-31,-9,-5,-4,-7,-3,-5
1529258679259434,6,-3,5,-5,0,-21,-9,-4
1529258679259434,-15,-15,-13,-31,-17,26,7,-2
1529258679259434,-16,-2,0,28,22,0,-1,-5
1529258679282373,5,6,-10,16,7,-2,-4,-6
1529258679282373,-12,-9,5,-9,-9,5,1,-9
1529258679283370,23,-6,-1,5,0,-13,-9,10
1529258679283370,27,0,4,-43,-36,8,12,17
1529258679296336,-22,0,5,74,63,11,-4,-12
1529258679296336,5,16,-16,-19,-13,-4,-6,-7
1529258679297333,-21,-9,-13,-1,-22,-18,-16,-21
1529258679297333,-5,-3,7,9,11,10,6,-2
1529258679319274,-36,-60,-10,-14,-14,-7,2,-5
1529258679319274,63,49,-5,-16,-11,-8,-6,16
1529258679320272,-8,6,6,11,13,5,2,-7
1529258679320272,2,1,14,-32,-23,-1,-3,-9
1529258679342213,22,18,4,27,6,-20,-19,-3
1529258679342213,-59,-66,-13,-5,3,19,3,-7
1529258679343211,31,23,6,-21,-13,-6,9,17
1529258679343211,9,-15,-7,31,7,-11,-9,5
1529258679356176,44,55,22,-54,-57,18,20,22
1529258679356176,-70,-29,-7,-5,17,-6,-15,-30
1529258679357174,-8,-23,-1,97,65,31,15,14
1529258679357174,-10,-10,-2,-3,-9,-8,1,-5
1529258679379115,-23,5,-4,-11,-11,-2,2,0
1529258679379115,41,39,13,-6,-11,-3,10,24
1529258679380113,-3,4,5,-22,-18,-12,-8,-4
1529258679380113,-32,-43,-15,-2,9,4,1,-2
1529258679402053,-50,-31,-13,-20,-1,-6,-7,-15
1529258679402053,1,24,8,-6,-8,-3,-2,0
1529258679402053,5,18,13,16,15,-2,-5,-6
1529258679402053,42,38,-3,-3,-3,3,0,9
1529258679417013,-102,-79,-14,-52,-28,2,-6,-29
1529258679417013,9,6,-7,14,14,-8,8,20
1529258679417013,-82,-26,-5,64,53,12,-9,-39
1529258679417013,69,53,20,-4,4,12,19,24
1529258679438954,13,-8,-14,-5,-16,-10,2,10
1529258679438954,-25,-34,-2,-9,1,11,-3,-22
1529258679439952,48,44,13,-13,-12,-9,-4,7
1529258679439952,-33,-54,-27,-27,-7,0,5,7
1529258679461893,48,35,15,31,20,-6,-7,4
1529258679461893,-16,-41,-8,-26,-15,4,7,4
1529258679461893,36,24,2,13,11,1,2,7
1529258679461893,-23,4,-1,0,-7,-6,-4,-8
1529258679476853,96,71,28,29,14,7,3,33
1529258679476853,7,51,23,23,6,-2,-9,-19
1529258679477851,-2,-30,-10,-40,-23,-3,7,7
1529258679477851,-9,1,-4,22,13,-1,-16,-22
1529258679498795,-20,-18,-20,-31,-5,-12,0,2
1529258679498795,34,14,8,45,27,8,0,5
1529258679499792,52,61,22,-10,-19,-6,-2,11
1529258679499792,17,10,5,0,-2,-17,-11,-15
1529258679521733,-33,12,0,22,17,11,4,-14
1529258679521733,-14,-31,-7,-16,-14,0,2,4
1529258679522731,63,46,10,-4,-14,-5,-2,5
1529258679522731,-39,-11,-8,-90,-51,-13,-12,-18
1529258679536693,35,6,-3,39,-1,-8,-1,3
1529258679536693,-34,-24,1,37,28,4,7,-3
1529258679537691,-8,-4,-6,-29,-24,-8,-5,-2
1529258679537691,30,35,11,11,6,6,6,17
1529258679558635,-78,-35,-32,-59,-37,-24,-27,-29
1529258679558635,-22,-77,-18,-22,-11,2,7,7
1529258679559632,-22,-36,5,23,24,11,11,8
1529258679559632,13,22,4,-1,-2,2,-2,1
1529258679589552,-47,-59,-39,-17,-5,-8,-8,-13
1529258679589552,21,24,-3,-4,-7,-6,-1,10
1529258679590550,-27,-22,-7,-19,-5,0,1,-1
1529258679590550,37,40,-1,17,2,-12,-9,15
1529258679596533,29,20,15,-15,-27,11,20,20
1529258679596533,9,36,25,39,21,11,0,-13
1529258679597531,-9,24,-9,-9,-13,-12,-6,8
1529258679597531,-33,-65,-26,-9,-10,-5,-1,-4
1529258679619472,24,8,15,7,19,8,-1,-5
1529258679619472,16,3,-11,-24,-17,-10,-11,3
1529258679619472,-57,4,6,2,-6,-7,-4,-24
1529258679619472,-50,-50,-15,-1,2,0,-6,-14
1529258679641413,69,63,31,20,21,10,-2,8
1529258679641413,14,-34,-13,-9,-3,4,7,1
1529258679642411,-38,-40,-21,-10,0,-5,-7,-6
1529258679642411,-47,-23,-12,-5,0,2,5,2
1529258679656373,19,-25,8,11,10,5,4,5
1529258679656373,-24,36,32,26,12,8,2,-14
1529258679657371,-34,-6,-24,-28,-18,-11,-9,1
1529258679657371,-13,0,18,23,15,14,10,-17
1529258679679312,-32,-39,-16,-15,-5,-6,1,9
1529258679679312,16,8,-5,-9,-13,-9,-9,-4
1529258679680310,-19,-17,7,2,2,3,-1,-15
1529258679680310,72,67,40,27,18,10,3,3
1529258679701253,-78,-83,-28,-14,1,1,1,-14
1529258679701253,37,38,-3,-15,-11,-8,-1,13
1529258679702251,43,42,30,25,17,10,7,7
1529258679702251,-50,-90,-26,-17,-8,-3,3,-7
1529258679716213,25,47,28,17,9,6,1,5
1529258679716213,31,39,31,15,14,14,10,17
1529258679717211,-41,-22,-12,-13,-7,1,18,12
1529258679717211,-3,-53,-20,-5,-4,-5,-3,13
1529258679739152,17,30,21,24,15,11,1,-15
1529258679739152,-50,4,-10,-28,-18,-15,-13,-12
1529258679740149,-34,-38,-7,5,-2,-8,-29,-36
1529258679740149,21,21,2,4,2,4,7,15
1529258679761093,-9,-6,-12,-7,-3,-8,-5,-7
1529258679761093,31,50,0,-6,-9,-10,0,8
1529258679762091,-2,-36,-14,-7,-3,2,-2,-13
1529258679762091,-6,33,7,6,0,-6,-15,-11
1529258679777051,-24,-27,-10,3,0,-5,-4,-8
1529258679777051,26,27,-5,-11,-7,-7,-9,-10
1529258679777051,39,-5,-3,1,0,-1,5,28
1529258679777051,-54,-39,-7,-4,-4,-3,-8,-26
1529258679798992,38,10,6,2,-1,-3,1,3
1529258679798992,-3,-31,-6,2,1,2,-2,-6
1529258679799990,15,1,-7,0,2,-1,-9,-15
1529258679799990,45,108,30,9,-4,-10,-14,-16
1529258679821931,12,-13,1,-6,0,1,3,9
1529258679821931,-57,-65,-26,-6,-2,-1,2,-4
1529258679821931,36,13,2,2,3,6,9,14
1529258679821931,3,25,-6,-6,-5,-5,1,7
1529258679835894,-15,-2,-10,-7,-3,-5,-5,-13
1529258679835894,-1,1,-7,-1,2,7,14,10
1529258679843873,4,3,21,10,6,4,3,7
1529258679843873,1,-40,-19,-5,1,6,8,18
1529258679866811,-24,6,6,4,2,-1,-1,-6
1529258679866811,31,7,22,15,11,14,13,13
1529258679867808,-6,6,-4,-2,-2,-3,-1,-9
1529258679867808,18,21,11,2,4,2,2,3
1529258679881770,82,60,11,0,-4,-4,0,23
1529258679881770,-10,-3,-8,-3,0,2,2,4
1529258679882769,-7,-18,-14,-6,-3,-2,2,-1
1529258679882769,11,6,5,6,0,-1,-5,0
1529258679896731,-14,-14,6,3,2,-1,-1,-7
1529258679896731,18,-14,-6,-5,-2,4,11,28
1529258679897729,-49,-68,-14,-4,-2,-1,0,-3
1529258679897729,-53,-46,-19,-14,-9,-9,-13,-17
1529258679918672,22,64,28,15,7,5,5,9
1529258679918672,-10,-30,-22,-20,-12,-11,-10,-5
1529258679919670,-1,11,-1,1,1,-1,-1,1
1529258679919670,55,43,23,21,16,16,12,6
1529258679941611,40,89,3,-10,-11,-11,-10,-1
1529258679941611,-105,-82,-3,5,3,-8,-20,-46
1529258679942608,25,3,-11,-8,-4,-2,2,13
1529258679942608,81,61,41,19,10,12,14,24
1529258679955574,-40,-74,-37,-17,-8,7,13,12
1529258679955574,-8,-7,-10,3,0,-14,-12,-17
1529258679964549,11,49,7,1,-3,-4,-12,-13
1529258679964549,1,-20,-18,-7,-1,2,5,9
1529258679979509,-44,-43,-7,1,4,4,-2,-14
1529258679979509,26,24,18,10,0,-18,-7,-4
1529258679979509,23,2,-1,0,7,29,9,6
1529258679979509,-7,-22,-6,-4,2,1,1,-2
1529258680001451,21,18,11,5,7,7,5,11
1529258680001451,-30,-10,-22,-17,-10,-5,-12,-21
1529258680002449,-15,-10,-4,-3,-2,-10,-6,-5
1529258680002449,-6,-3,15,17,8,6,8,7
1529258680015413,-37,-49,-17,0,-2,-6,-8,-14
1529258680015413,76,38,10,2,-1,4,3,21
1529258680024390,-66,-43,-27,-17,-4,-5,7,-2
1529258680024390,-23,-10,6,2,1,6,3,0
1529258680039350,-11,-17,-5,-8,-6,-9,1,5
1529258680039350,12,20,19,10,4,10,4,8
1529258680040347,22,7,-2,-7,-6,-8,-7,0
1529258680040347,53,39,0,2,3,1,6,17
1529258680061291,10,19,5,-7,-9,-9,-7,2
1529258680061291,37,24,10,7,11,10,5,4
1529258680062288,-1,10,2,-2,-10,-12,-6,-7
1529258680062288,-13,1,-7,-9,-9,-10,-7,0
1529258680076251,30,14,6,9,6,6,3,3
1529258680076251,-27,-12,-9,-7,-6,-1,-3,4
1529258680084229,57,52,25,15,11,5,4,12
1529258680084229,-21,-26,-8,-3,-6,-13,-12,-28
1529258680099190,-16,-26,-22,-10,-5,-2,4,16
1529258680099190,-30,-31,-4,1,-6,-3,7,-5
1529258680100187,-14,4,12,8,6,9,11,9
1529258680100187,-15,4,11,3,5,8,0,-7
1529258680121131,-39,-49,-36,-18,-10,-15,-19,-35
1529258680121131,0,9,7,5,2,0,-2,3
1529258680122128,-5,-48,-19,-12,-10,-10,-4,-5
1529258680122128,-30,-20,-3,-4,1,-1,2,1
1529258680136091,24,32,25,14,7,4,4,6
1529258680136091,-15,29,1,6,3,1,-9,-22
1529258680144070,-5,2,8,-2,-3,-3,-1,-3
1529258680144070,-27,0,4,-1,-8,-11,-11,-9
1529258680159030,-31,1,-2,2,3,5,8,4
1529258680159030,-28,-40,-21,-17,-8,-4,0,2
1529258680160027,8,5,3,3,1,-2,-2,5
1529258680160027,-27,9,-5,-4,-2,-3,-3,-17
1529258680181968,36,66,27,10,3,-3,-8,-6
1529258680181968,12,-29,-10,-11,-4,6,11,15
1529258680182966,8,7,-5,-6,-3,-6,-3,3
1529258680182966,-8,-31,-15,-9,-6,-4,-4,1
1529258680195931,1,22,18,14,7,6,1,-10
1529258680195931,-59,-26,-13,-9,-5,-13,-15,-23
1529258680203909,23,23,4,5,2,-2,0,0
1529258680203909,-13,-30,-18,-16,-5,0,-3,-12
1529258680218869,4,-3,5,0,-2,-1,1,6
1529258680218869,33,10,1,3,3,10,8,3
1529258680219867,-5,0,4,3,0,-4,-4,-6
1529258680219867,6,-4,-13,-6,-3,-8,0,8
1529258680241808,20,-5,-4,-3,-2,-1,-1,-1
1529258680241808,14,24,12,5,2,1,-4,3
1529258680242806,5,50,18,9,-2,-3,-5,-14
1529258680242806,-29,-65,-31,-12,-6,-5,-7,-9
1529258680255771,-7,-64,-32,-15,-8,-3,6,12
1529258680255771,30,34,29,8,4,4,9,11
1529258680263750,-8,-18,-4,-1,1,0,-2,-8
1529258680263750,-1,13,16,11,4,7,3,10
1529258680278710,-4,-10,-18,-15,-11,-11,-11,-10
1529258680278710,-25,-26,-26,-16,-10,-9,-6,-2
1529258680279708,-3,-8,1,3,1,3,4,13
1529258680279708,17,18,9,3,0,3,1,-6
1529258680301648,-7,10,10,11,7,11,16,11
1529258680301648,0,-11,-12,-15,-9,-7,-5,7
1529258680302646,-47,-40,-13,-9,-8,-6,-7,-18
1529258680302646,23,7,-6,-1,2,-2,-3,6
1529258680315611,30,41,18,11,3,1,-3,-9
1529258680315611,-13,-16,0,1,-3,-2,-2,-4
1529258680324587,14,-2,3,7,5,3,-1,6
1529258680324587,-18,-9,0,-5,-1,2,5,5
1529258680339547,0,8,13,4,0,3,-4,-5
1529258680339547,40,48,-6,-9,-10,-13,-14,-5
1529258680339547,-15,-41,-11,-3,0,1,5,3
1529258680339547,10,25,13,9,4,1,2,-1
1529258680361488,9,-17,-19,-13,-10,-6,4,9
1529258680361488,7,25,5,-2,-1,-1,-1,-7
1529258680362486,10,40,15,7,4,4,5,7
1529258680362486,21,7,0,4,4,5,5,5
1529258680384427,-39,-48,-9,-6,-3,-1,1,8
1529258680384427,-6,-13,1,6,6,8,9,5
1529258680385424,-9,0,-5,-3,-2,-3,-3,-14
1529258680385424,15,2,0,1,1,-1,-4,0
1529258680399387,-38,3,11,6,4,2,0,-13
1529258680399387,24,13,-8,-5,-6,-3,2,9
1529258680399387,-3,0,5,1,0,-1,-5,-1
1529258680399387,-13,-23,-7,-4,-5,-5,0,1
1529258680421328,8,2,0,2,4,2,-1,-4
1529258680421328,37,32,13,12,8,7,-7,5
1529258680422327,34,14,-6,-4,-3,-5,-4,12
1529258680422327,-52,-35,-11,-7,-9,-17,-15,-22
1529258680444267,43,44,5,-5,-4,-1,0,7
1529258680444267,13,5,18,16,13,18,6,-2
1529258680445264,29,2,-3,-5,-3,-5,-7,-1
1529258680445264,-8,10,9,5,6,9,5,0
1529258680459227,-12,7,-2,-2,-1,-5,-7,-9
1529258680459227,-17,-12,1,0,5,-1,3,1
1529258680460225,-17,-39,-5,-1,-5,8,13,6
1529258680460225,19,11,-3,-2,0,-2,-1,-5
1529258680481169,5,3,5,1,1,2,5,8
1529258680481169,21,39,11,9,5,5,2,-3
1529258680482166,-22,-21,-2,2,0,-4,-7,-12
1529258680482166,12,0,-2,-1,3,0,0,4
1529258680504107,5,3,9,4,0,0,-4,-6
1529258680504107,-4,-24,-6,-7,-6,-4,2,2
1529258680505105,-2,-1,-16,-8,-3,0,2,-1
1529258680505105,-23,-22,-2,7,-2,2,8,-2
1529258680519067,-43,-30,0,6,10,8,-4,-23
1529258680519067,-59,-31,-18,-18,-11,-11,-8,-12
1529258680520065,4,1,-4,-3,-5,2,13,5
1529258680520065,-1,-4,-3,-1,0,2,1,9
1529258680542006,-7,-18,-7,-2,1,2,5,1
1529258680542006,26,23,6,3,0,1,3,11
1529258680542006,-5,4,1,-1,-2,-2,-5,-1
1529258680542006,6,12,-1,1,4,3,-3,-1
1529258680563947,19,13,4,-2,-6,-6,-4,-1
1529258680563947,48,22,11,11,6,4,5,9
1529258680564945,-25,-20,-29,-20,-10,-4,7,13
1529258680564945,3,-6,0,-8,-7,-5,-6,-8
1529258680578907,-4,-12,-6,1,-1,-7,-4,6
1529258680578907,15,-9,-2,1,3,6,-1,7
1529258680579905,-37,-21,8,8,8,6,-1,-15
1529258680579905,28,11,4,-3,-5,-6,-4,14
1529258680601846,-23,-38,-19,-11,-7,2,-1,-2
1529258680601846,-54,-33,-7,-1,-2,-4,0,-22
1529258680602843,28,8,13,12,8,4,-5,-2
1529258680602843,-22,-5,-3,-8,-8,-9,-5,-2
1529258680623787,59,44,10,-1,3,1,1,7
1529258680623787,-9,-23,-14,-8,-6,-6,-2,1
1529258680624785,-1,22,13,1,-2,-3,-13,-12
1529258680624785,28,20,5,4,5,5,7,2
1529258680638747,5,9,2,-2,1,-1,-2,3
1529258680638747,-9,11,4,7,5,5,0,-8
1529258680639745,-4,7,-8,-8,-3,-5,3,11
1529258680639745,17,-13,13,10,4,1,2,10
1529258680661686,-16,-8,-12,-7,-4,-5,-7,-7
1529258680661686,-18,-26,-5,0,-1,-6,-5,-16
1529258680662684,1,-20,-3,2,0,2,-1,2
1529258680662684,-56,-20,-26,-14,-12,-10,-12,-23
1529258680683627,-3,-3,-11,-9,-3,-6,4,2
1529258680683627,7,-1,11,7,7,11,6,6
1529258680684625,23,19,10,8,1,-9,-4,-1
1529258680684625,14,31,14,4,2,2,-11,-19
1529258680700583,-30,-42,-13,-7,-5,-4,0,-5
1529258680700583,-2,10,0,-4,-2,-2,-1,2
1529258680701580,2,0,6,5,5,6,4,3
1529258680701580,29,10,10,9,5,11,13,19
1529258680721526,14,11,1,0,-1,-13,-9,-2
1529258680721526,18,8,-8,-9,-13,-2,10,16
1529258680722523,2,0,2,-2,2,3,-4,-16
1529258680722523,17,34,9,3,-2,-3,3,12
1529258680744464,5,23,3,3,2,1,-5,-9
1529258680744464,-20,-9,0,-2,-1,-9,-11,-5
1529258680744464,-32,-4,7,-5,-4,-6,-3,-12
1529258680744464,-7,-4,-13,-6,-4,5,5,11
1529258680759425,22,9,2,3,2,2,5,11
1529258680759425,-10,3,0,0,2,1,-1,-17
1529258680759425,71,44,-8,-11,-10,-8,-4,15
1529258680759425,-26,-25,-5,-7,-4,-3,-7,-8
1529258680781366,-33,-30,-11,-6,-6,-5,-6,-4
1529258680781366,63,44,20,12,6,4,10,21
1529258680782364,-38,-22,-9,-4,-3,0,-7,-4
1529258680782364,0,-10,-4,-4,-6,-18,-6,-12
1529258680804305,23,26,15,10,8,7,-4,-7
1529258680804305,13,4,-10,-10,-11,-6,-1,6
1529258680805302,4,13,15,12,5,0,-2,-3
1529258680805302,0,-11,-6,-3,2,3,2,5
1529258680819264,-34,12,9,1,-3,-1,2,-2
1529258680819264,4,-14,-4,2,1,0,0,5
1529258680820262,18,13,9,13,8,9,11,14
1529258680820262,-59,-21,-12,-5,-6,-11,-16,-30
1529258680841206,20,-5,-1,-2,3,6,13,18
1529258680841206,-2,-18,-16,-5,-2,-2,-1,3
1529258680842205,5,9,-7,-7,-5,-3,-1,-5
1529258680842205,17,17,9,14,11,12,10,9
1529258680864145,0,14,4,1,-1,-1,3,2
1529258680864145,1,7,0,-5,-2,0,-2,-1
1529258680865142,-52,-16,-10,-2,1,2,1,-12
1529258680865142,60,70,36,20,10,8,1,-9
1529258680879105,-21,-36,-8,-10,-5,-2,0,-1
1529258680879105,44,19,1,-2,-3,-3,-1,5
1529258680880102,33,39,12,3,0,-3,-8,0
1529258680880102,-18,-27,-7,-6,-3,-1,3,5
1529258680901046,4,7,3,10,8,9,4,-5
1529258680901046,-52,-38,-7,-2,2,3,4,4
1529258680902043,-27,-11,4,0,0,-3,-10,-2
1529258680902043,-5,-17,-13,-9,-4,-3,-5,-4
1529258680923985,3,-25,-6,-1,-4,-4,-2,4
1529258680923985,-17,31,22,6,3,1,-1,-11
1529258680924982,46,1,-25,-17,-12,-6,5,15
1529258680924982,-33,-33,-15,-14,-5,-4,0,-2
1529258680938945,1,6,6,5,3,4,2,1
1529258680938945,-20,19,8,4,1,-5,-15,-18
1529258680939942,-11,-15,-2,-1,-2,-1,2,1
1529258680939942,7,14,7,1,-1,-1,-4,3
1529258680961883,14,14,3,-1,0,4,4,-1
1529258680961883,-45,-15,-26,-16,-11,-15,-12,-8
1529258680961883,-14,-35,-6,3,4,6,7,7
1529258680961883,-3,-7,-6,-6,-2,2,0,-3
1529258680983825,25,26,8,2,1,-4,-7,-14
1529258680983825,35,26,-4,-8,-9,-3,1,13
1529258680984822,-42,-30,-10,-4,1,1,-4,-22
1529258680984822,27,38,24,15,8,9,10,15
1529258680998785,-30,-59,-25,-8,-7,-3,-2,3
1529258680998785,29,2,1,-1,5,6,4,-2
1529258680999782,14,10,8,3,0,0,4,7
1529258680999782,69,79,13,3,-3,-4,0,22
1529258681021723,-35,-24,-21,-10,-3,-9,-19,-30
1529258681021723,-8,-24,1,3,0,1,1,0
1529258681022721,-8,-15,-11,-1,-2,-3,-3,-7
1529258681022721,50,21,3,9,3,5,11,17
1529258681043665,-86,-54,-6,-10,-10,-15,-11,-10
1529258681043665,-2,-26,-8,-3,-1,1,3,-1
1529258681044662,19,10,5,2,2,0,1,-6
1529258681044662,-37,-5,-8,-10,-7,-7,-9,-16
1529258681058625,36,22,1,1,1,2,2,13
1529258681058625,-15,-26,-5,-1,-2,2,1,-6
1529258681066604,-7,-2,-4,-6,-1,-3,3,8
1529258681066604,-18,1,-3,0,0,-3,-15,-32
1529258681081564,-12,-9,10,1,-3,-2,-1,4
1529258681081564,-19,-13,-3,1,4,1,1,2
1529258681082561,26,23,12,11,4,4,-1,-1
1529258681082561,-12,-34,-33,-22,-15,-13,-5,7
1529258681104502,11,38,23,9,4,5,8,8
1529258681104502,3,8,3,1,1,-1,-6,-12
1529258681104502,-21,-19,-15,-11,-7,-5,1,4
1529258681104502,-29,-28,-5,-4,-3,-2,0,-6
1529258681118465,10,4,-6,-4,-2,-1,-3,-1
1529258681118465,1,3,-5,-8,-3,-2,2,7
1529258681126443,5,4,20,9,4,-1,-3,2
1529258681126443,13,-8,16,10,8,7,-4,-17
1529258681141403,32,15,-10,-8,-5,-1,0,7
1529258681141403,-3,1,-13,-7,-2,-2,-4,-3
1529258681142401,-6,-7,6,13,7,8,4,-3
1529258681142401,-9,-25,-2,-10,-2,-3,2,5
1529258681164342,3,-2,-6,-2,0,2,1,-4
1529258681164342,12,15,17,11,4,0,0,-4
1529258681165340,14,35,1,-2,-1,0,1,-5
1529258681165340,-65,-77,-29,-14,-7,-5,0,-1
1529258681178305,10,4,-8,0,3,0,1,6
1529258681178305,9,9,5,-3,0,-3,-5,1
1529258681186283,-1,3,-6,-5,-1,-3,-2,2
1529258681186283,-8,7,15,10,3,-1,0,2
1529258681201243,10,-2,-1,5,4,4,0,-3
1529258681201243,-54,-8,7,4,-1,-1,-6,-19
1529258681202241,10,-10,-5,-3,-7,-4,0,5
1529258681202241,19,8,-4,-7,2,5,7,8
1529258681224182,-29,-5,9,7,1,-3,-6,-18
1529258681224182,6,-22,-15,-1,-2,-2,1,0
1529258681225180,-42,-10,-13,-12,-9,-12,-16,-20
1529258681225180,-38,-41,-16,-6,-2,7,2,1
1529258681238145,26,26,6,0,1,6,7,5
1529258681238145,5,13,1,7,5,-3,-4,-11
1529258681247121,-2,-11,-3,-4,-6,-2,3,12
1529258681247121,14,0,-2,1,0,-3,-1,2
1529258681262081,-4,-5,-2,2,-2,-1,-3,-5
1529258681262081,6,1,6,0,6,4,2,4
1529258681262081,-3,-15,-5,-8,-5,-2,-2,0
1529258681262081,-8,7,0,5,1,-2,-2,-3
1529258681284022,41,37,16,10,6,8,13,5
1529258681284022,-16,-12,-7,-5,-10,-5,-8,0
1529258681285020,2,-6,-5,-3,1,-2,-2,5
1529258681285020,7,6,0,-5,-1,0,3,0
1529258681297985,0,2,-7,-5,-6,-7,1,0
1529258681297985,23,27,13,5,4,6,6,6
1529258681306961,0,10,13,8,6,6,2,-1
1529258681306961,13,20,4,1,-6,-9,-11,-2
1529258681321921,-24,-16,-12,-9,-5,-5,-3,-4
1529258681321921,-3,-25,-13,-8,-3,-1,-4,-1
1529258681322918,4,13,4,-3,-4,-2,-1,-3
1529258681322918,16,6,5,4,5,2,0,3
1529258681343862,-7,-5,-5,-4,-1,0,-5,-5
1529258681343862,-8,-9,2,7,1,-1,-7,-8
1529258681344860,42,26,-7,-1,1,0,2,5
1529258681344860,-41,-30,-3,-1,-5,-5,-4,-13
1529258681366801,-15,-13,-10,-12,-6,0,9,13
1529258681366801,-2,-12,-8,-5,0,2,6,-1
1529258681367798,-11,-11,-4,-2,0,0,-4,-2
1529258681367798,4,10,4,3,3,5,-1,1
1529258681381761,-14,-3,-5,-4,-7,-10,-15,-19
1529258681381761,5,2,4,3,2,1,1,8
1529258681382759,20,26,10,7,5,5,7,6
1529258681382759,23,11,-2,-3,-2,1,4,1
1529258681403702,25,9,8,5,2,-5,-9,9
1529258681403702,6,11,10,3,-1,-5,-11,-14
1529258681404700,-24,-32,-22,-10,-4,-4,-5,-9
1529258681404700,17,16,0,-2,-5,-4,3,10
1529258681427638,47,27,8,5,6,5,-6,12
1529258681427638,-25,-5,-1,-5,-2,0,5,2
1529258681427638,-5,-3,7,6,2,-1,-2,-6
1529258681427638,-19,-31,-10,-2,1,1,3,-3
1529258681441601,-10,-9,-5,-4,-1,-1,3,1
1529258681441601,3,-13,-2,3,4,4,3,3
1529258681442599,-23,15,-2,-9,-8,-3,-7,-4
1529258681442599,-18,-35,-5,-2,1,0,2,-2
1529258681464539,-12,4,8,1,0,-1,1,5
1529258681464539,13,13,11,8,1,2,2,-12
1529258681464539,-15,-15,-5,-3,-2,2,6,-7
1529258681464539,-1,-5,-11,-2,-1,-2,7,-8
1529258681487478,-32,-22,-10,-7,-4,-7,-2,-9
1529258681487478,14,9,-5,-6,-3,1,5,13
1529258681488476,26,41,13,0,4,0,2,-4
1529258681488476,-52,-47,-7,2,-2,-3,-9,-10
1529258681501441,21,-5,-4,0,-1,0,8,8
1529258681501441,5,1,-7,1,-1,2,4,3
1529258681502439,-11,-5,-5,-3,-1,-3,-4,-7
1529258681502439,-2,6,6,1,-2,-2,-7,0
1529258681524380,3,19,4,-1,-2,-4,2,-4
1529258681524380,1,-14,-9,-3,-2,-4,-4,3
1529258681524380,14,-1,1,2,1,-1,0,13
1529258681524380,-21,10,-7,-3,-6,-6,-6,3
1529258681547318,8,-12,-12,-10,-4,1,-7,8
1529258681547318,-3,10,4,8,3,-4,-6,-5
1529258681548316,28,39,20,20,12,9,3,7
1529258681548316,-7,3,-4,-7,-4,-2,-1,-9
1529258681561281,-3,0,1,1,-2,1,5,5
1529258681561281,18,10,-3,-6,-1,0,-3,12
1529258681562279,-7,-10,7,7,2,1,-5,0
1529258681562279,29,28,2,-3,-3,-2,0,0
1529258681584220,-16,-16,-8,0,-1,0,-3,-14
1529258681584220,3,-9,-3,-2,-1,0,4,-3
1529258681585217,-11,-19,-4,-1,-3,-1,11,-1
1529258681585217,43,39,10,3,3,-1,-7,4
1529258681607158,-16,-17,-2,0,0,-3,-4,-6
1529258681607158,38,42,5,-1,-3,1,11,7
1529258681608156,7,-16,-10,-6,-3,-2,-9,14
1529258681608156,5,-4,-1,1,0,1,-3,-6
1529258681621121,18,4,6,4,1,0,-1,10
1529258681621121,-14,-17,-12,-9,-8,-6,-7,-2
1529258681622119,-10,-14,-8,-7,-4,0,-1,-8
1529258681622119,8,14,11,5,2,4,9,12
1529258681644060,-27,-7,6,1,-3,0,-3,-8
1529258681644060,2,12,4,1,2,0,-2,-2
1529258681645057,-7,-29,-19,-15,-9,-10,-7,-8
1529258681645057,-13,-9,2,8,4,0,-3,-5
1529258681666998,10,7,-1,-1,1,1,4,0
1529258681666998,-15,-21,2,4,2,2,5,5
1529258681666998,-15,5,-4,-6,-6,-5,-5,-14
1529258681666998,13,-17,-8,-6,-3,0,4,12
1529258681681958,3,4,-2,2,3,3,3,-3
1529258681681958,-20,-13,-8,-7,-5,-9,-14,-22
1529258681681958,3,1,0,0,1,1,-2,-5
1529258681681958,-4,-6,-6,-2,-1,-1,-3,4
1529258681703900,-18,-20,-3,-5,-3,0,0,0
1529258681703900,1,1,2,1,1,2,-3,6
1529258681704898,2,4,8,5,1,-1,3,3
1529258681704898,-1,23,13,5,2,-1,-3,-5
1529258681726839,31,20,5,4,2,0,-2,3
1529258681726839,2,-9,-8,-8,-2,-2,1,3
1529258681726839,-16,-17,-4,2,3,5,5,4
1529258681726839,23,-7,-1,-1,2,4,3,10
1529258681741799,-18,1,-2,3,0,1,-3,-5
1529258681741799,-11,-21,-8,-8,-5,-2,7,-3
1529258681742796,-7,4,5,2,0,1,2,-1
1529258681742796,-1,1,-3,0,1,1,4,0
1529258681763740,17,19,9,3,-1,-2,-7,-9
1529258681763740,-20,5,1,2,0,2,3,2
1529258681764738,-38,-44,-25,-8,-4,0,-6,-20
1529258681764738,-50,-30,-9,-15,-11,-13,-15,-20
1529258681786678,12,19,9,4,3,0,-3,-1
1529258681786678,21,11,1,3,-2,0,1,16
1529258681787676,7,0,5,0,0,-2,-5,-12
1529258681787676,-1,-6,-9,-3,-2,2,9,19
1529258681801638,-23,-14,-9,-11,-5,-6,-4,-9
1529258681801638,-25,-17,0,4,-1,-5,-8,-7
1529258681802636,-25,-12,5,6,4,0,-4,0
1529258681802636,-14,4,0,-2,-2,-1,-2,-8
1529258681823580,15,13,8,-1,-3,0,-1,5
1529258681823580,23,59,28,15,8,5,5,-8
1529258681824577,-1,-15,-2,-4,1,1,1,4
1529258681824577,32,20,9,3,0,-1,0,5
1529258681846519,-5,-14,-13,-8,-2,-1,3,6
1529258681846519,21,24,25,8,1,1,-6,-11
1529258681847516,8,8,-12,-8,-6,-6,-3,10
1529258681847516,14,5,5,0,2,3,5,6
1529258681861479,-25,-23,-18,-3,-1,-4,-4,-16
1529258681861479,20,-20,-12,-11,-4,-1,-4,4
1529258681862476,11,20,23,10,0,-3,-7,-3
1529258681862476,45,4,-2,7,3,2,0,29
1529258681884418,-11,-14,-16,-3,-1,-2,-1,-8
1529258681884418,-5,8,5,-2,-5,-4,-2,-2
1529258681884418,15,-5,-15,0,1,3,10,18
1529258681884418,19,24,12,-2,3,1,-5,-12
1529258681906358,15,30,25,15,1,-2,-1,11
1529258681906358,-50,-25,-22,-10,-3,1,1,-6
1529258681907356,29,7,1,-5,-4,-2,2,18
1529258681907356,-17,-20,-24,-10,-6,-3,-5,-27
1529258681921318,8,-8,-16,-9,-4,-2,7,19
1529258681921318,3,18,5,3,-1,-3,-3,-2
1529258681922317,3,40,28,11,2,0,-3,-6
1529258681922317,-6,-2,-12,-5,0,1,3,4
1529258681944257,29,21,25,12,7,7,4,6
1529258681944257,-26,1,1,-2,-1,-2,-2,-11
1529258681945255,12,-5,-14,0,-1,0,-3,-5
1529258681945255,14,8,10,4,2,1,6,13
1529258681966199,14,20,4,-2,-2,-2,-3,-8
1529258681966199,22,21,19,7,8,6,7,8
1529258681967196,11,25,1,-6,-4,-3,-2,-5
1529258681967196,-54,-25,-8,-3,-2,-4,-10,-22
1529258681981159,-13,-12,6,4,1,2,3,-2
1529258681981159,-8,-32,-15,-8,-4,-4,-1,1
1529258681989137,30,30,7,3,1,-3,-4,13
1529258681989137,-47,-37,-17,-8,-5,-1,3,-15
1529258682004097,4,-37,-19,-11,-6,2,5,9
1529258682004097,12,6,-17,-7,-6,-8,-12,-7
1529258682005095,-4,-10,5,3,1,5,7,-4
1529258682005095,6,27,12,7,-1,-2,-8,-6
1529258682027036,-7,-24,1,2,3,-3,-9,-7
1529258682027036,14,-31,-29,-10,-1,-2,0,8
1529258682027036,-2,13,1,4,2,-2,-9,-21
1529258682027036,19,20,12,3,0,2,5,3
1529258682040999,-38,-37,-15,-9,-5,-5,-6,-16
1529258682040999,-25,2,8,4,2,-1,2,-1
1529258682048977,-11,-29,-11,-9,-7,-7,-3,-6
1529258682048977,0,-5,-1,1,1,1,-1,2
1529258682063937,14,31,12,5,2,0,3,6
1529258682063937,18,-4,-1,1,-2,-1,0,2
1529258682064935,-7,-11,-5,-7,0,2,2,-8
1529258682064935,20,25,-1,-11,-11,-12,-5,15
1529258682086876,8,-1,3,6,3,-3,-8,-3
1529258682086876,-8,5,8,5,2,3,-4,-15
1529258682087876,-4,-3,15,6,3,3,4,1
1529258682087876,-10,4,-13,-11,-9,-11,-10,-11
1529258682100839,-3,10,12,2,2,-1,-7,-10
1529258682100839,4,-15,1,2,2,5,9,9
1529258682108817,14,28,9,7,1,-5,-12,-14
1529258682108817,59,25,4,2,7,9,15,24
1529258682123777,2,2,-9,-1,-6,-5,-4,0
1529258682123777,-74,-55,-16,-7,-3,-5,-3,-14
1529258682124775,5,1,-10,-10,-6,0,3,8
1529258682124775,-26,-42,5,4,4,2,3,-3
1529258682146716,-25,0,-17,-9,-1,-1,0,-6
1529258682146716,9,1,-3,0,-1,4,2,5
1529258682147714,-10,-13,-10,-8,-5,-6,-3,-2
1529258682147714,-2,-10,-7,-2,-2,-2,-4,-9
1529258682169655,-57,0,15,2,0,3,0,-8
1529258682169655,-37,-17,7,0,-3,-7,-5,-13
1529258682170652,-14,-16,-11,-4,1,1,6,12
1529258682170652,-15,-24,1,0,-1,1,-1,-7
1529258682183617,25,21,12,12,7,3,-1,-4
1529258682183617,41,3,-16,-10,-9,-3,2,19
1529258682184615,-13,11,18,8,1,2,4,-4
1529258682184615,-10,-14,-4,-3,0,-2,-5,0
1529258682206556,-17,3,-8,-15,-6,-1,1,-6
1529258682206556,4,-21,-8,-4,-3,-5,-3,-6
1529258682207554,19,-10,-2,2,1,5,12,17
1529258682207554,-13,-21,-14,-1,-2,-3,-3,-11
1529258682220519,7,25,10,-1,-5,-3,1,8
1529258682220519,-9,8,-13,-12,-2,-2,-2,-3
1529258682229494,-9,5,15,10,2,1,-6,-12
1529258682229494,58,37,10,7,1,0,2,13
1529258682244455,-17,-25,-10,-2,-1,-1,2,0
1529258682244455,-1,3,8,3,2,1,-2,-7
1529258682244455,25,7,-5,-3,3,6,7,17
1529258682244455,-12,7,13,10,8,7,7,2
1529258682266396,40,-1,-7,2,1,-4,-2,12
1529258682266396,53,42,12,4,-2,-3,-2,13
1529258682267394,-27,-34,-18,-8,-2,-3,-1,-1
1529258682267394,-27,5,10,8,2,2,0,-8
1529258682289335,7,-4,-7,-6,-2,-2,0,-4
1529258682289335,18,11,4,4,0,2,1,-1
1529258682290332,-31,-29,-19,-8,-4,-5,-5,-8
1529258682290332,6,17,6,2,-2,-3,-3,-4
1529258682304295,-21,-22,-7,-2,1,3,3,-3
1529258682304295,9,2,3,1,2,3,5,7
1529258682305292,-4,6,0,0,-2,-1,-1,-12
1529258682305292,-6,-12,-7,-5,-3,-1,-1,4
1529258682326236,0,17,6,1,-3,-4,-6,-6
1529258682326236,-5,-16,-6,0,1,2,1,6
1529258682327234,-15,-8,-1,-1,-1,2,0,-16
1529258682327234,-32,-12,-15,-9,-5,-5,-6,-3
1529258682350172,9,-12,-4,-2,-1,1,1,-2
1529258682350172,-11,-15,-2,2,0,-1,5,1
1529258682350172,-11,-8,-12,-5,-1,-4,-7,-7
1529258682350172,27,24,9,2,-2,-5,-12,0
1529258682364135,11,-4,-19,-9,-3,-4,0,0
1529258682364135,-12,7,30,11,2,1,2,0
1529258682365133,5,1,-10,-8,-4,-2,4,7
1529258682365133,-2,-9,5,5,1,2,2,-1
1529258682387074,1,-3,-3,-3,-2,-1,1,4
1529258682387074,16,20,5,3,5,2,1,-2
1529258682387074,-5,-13,3,0,0,-3,-6,7
1529258682387074,2,20,-3,-5,-3,-4,-2,-4
1529258682410012,11,3,1,0,0,-1,-2,2
1529258682410012,-4,-2,-6,0,0,-1,-10,-8
1529258682411010,23,16,4,-1,-1,1,5,23
1529258682411010,-9,-13,-4,2,3,4,8,2
1529258682423975,-2,1,14,10,3,4,0,-10
1529258682423975,1,-14,-14,-11,-8,-6,0,5
1529258682424972,-11,1,-3,3,3,-4,-6,-15
1529258682424972,-28,3,0,-5,-4,-3,-1,-6
1529258682446913,8,-1,5,3,2,4,6,9
1529258682446913,-22,-13,-6,-4,-1,-4,-5,-10
1529258682446913,-44,-34,1,2,-2,-3,-3,-20
1529258682446913,-2,-17,-15,-7,-5,-6,-2,-3
1529258682469852,-3,18,7,-3,-3,-3,0,6
1529258682469852,-18,-8,-3,-3,-2,-2,-11,-15
1529258682470850,-5,-6,-4,-1,-1,0,4,-1
1529258682470850,10,-9,-6,-4,1,2,-4,10
1529258682483815,10,14,14,4,1,-2,-2,-4
1529258682483815,0,8,6,6,5,0,-4,5
1529258682484812,-11,-4,-3,-3,-4,0,2,0
1529258682484812,2,1,0,-1,0,0,0,-6
1529258682506754,1,-22,-11,-5,-2,-1,2,2
1529258682506754,22,23,1,3,0,1,6,12
1529258682507751,13,13,17,7,5,4,7,11
1529258682507751,5,-3,4,5,3,3,1,-3
1529258682529692,-18,9,-13,-14,-10,-8,-10,-7
1529258682529692,8,0,5,4,0,1,0,-7
1529258682530690,3,-18,-21,-10,-4,-3,-3,5
1529258682530690,-9,19,12,7,3,2,2,-9
1529258682543655,-6,-26,-9,2,-1,2,7,-2
1529258682543655,0,1,-1,-2,0,-1,-4,4
1529258682544652,5,15,9,8,2,1,-4,-5
1529258682544652,12,-12,-10,-7,-3,-5,0,2
1529258682566593,-24,-12,-7,-3,-1,0,5,-4
1529258682566593,-1,5,1,-4,-2,0,-2,-4
1529258682567591,-8,-6,7,6,1,2,-2,-3
1529258682567591,6,16,-3,-8,-5,-4,0,7
1529258682589532,-17,5,7,8,1,0,-5,-8
1529258682589532,19,-4,1,4,3,2,3,5
1529258682590530,21,20,0,-5,-4,-7,-9,0
1529258682590530,10,-14,-4,4,1,2,1,-8
1529258682604492,-16,-14,1,3,2,2,-1,-7
1529258682604492,6,15,-2,-6,-4,-2,2,1
1529258682604492,9,-2,-3,-1,-1,2,5,8
1529258682604492,-28,4,9,4,1,-3,-5,-14
1529258682626434,-1,-5,-7,-4,0,4,18,10
1529258682626434,-13,-26,-17,-7,-2,0,-3,-17
1529258682627431,24,28,5,-7,-2,-7,-10,0
1529258682627431,5,-6,-3,-2,-1,-1,-4,-7
1529258682649372,6,14,6,12,2,-4,-6,7
1529258682649372,-20,-2,6,-1,-4,-5,-3,5
1529258682650370,26,9,-14,-7,-4,-2,4,4
1529258682650370,-10,-2,0,-2,1,-2,-3,0
1529258682664332,0,-21,-3,0,1,1,-6,-1
1529258682664332,-17,3,-6,-6,-6,-6,5,0
1529258682665330,-10,-20,-7,-7,-5,0,-4,6
1529258682665330,-9,-18,-5,2,1,-3,-6,-10
1529258682686273,2,16,-11,-9,-3,-2,2,-5
1529258682686273,-12,-21,2,5,4,5,-3,-10
1529258682687272,-16,3,-9,-6,-5,-3,12,0
1529258682687272,-11,-15,0,0,-1,1,3,-3
1529258682709212,11,-10,-4,-6,-5,-3,-3,6
1529258682709212,14,9,1,-1,1,-1,-3,-5
1529258682710210,4,8,3,3,0,1,3,-2
1529258682710210,-8,-2,0,3,0,-1,-2,2
1529258682724172,26,38,15,4,-2,-3,-2,8
1529258682724172,17,12,1,-1,0,0,3,8
1529258682725170,-1,1,4,4,1,2,0,2
1529258682725170,-9,3,1,-4,0,0,0,0
1529258682746113,-8,3,7,6,4,3,-4,3
1529258682746113,-5,0,-1,-3,-2,0,-2,-1
1529258682747111,-3,-7,9,5,3,0,-1,-4
1529258682747111,-26,-11,-1,-1,-2,0,2,1
1529258682770050,11,9,0,3,1,0,0,4
1529258682770050,-2,1,-4,-6,-3,-5,-7,-7
1529258682771047,-3,-13,-10,-2,-4,-6,-9,-15
1529258682771047,13,8,8,0,1,4,10,25
1529258682784012,-4,-3,-10,-4,-1,-2,-6,-7
1529258682784012,-5,-10,-15,-8,-10,-9,-1,10
1529258682785010,8,-2,12,11,10,10,9,7
1529258682785010,-14,-10,-10,1,0,-5,-7,-17
1529258682806951,21,-5,-8,-9,0,0,6,5
1529258682806951,4,11,7,4,1,1,-1,-3
1529258682807949,-12,-34,-12,-7,-5,-3,-5,-4
1529258682807949,10,17,-2,-6,-5,-2,-1,4
1529258682828892,7,7,4,-4,-1,-3,-8,-7
1529258682828892,-25,-13,6,7,4,4,2,-6
1529258682829890,-6,2,1,0,-1,-5,-3,-2
1529258682829890,32,5,2,3,2,3,-1,1
1529258682843853,-11,-9,3,-2,1,0,-1,-7
1529258682843853,0,4,-4,-9,-4,-2,6,15
1529258682844850,-12,6,0,0,-3,-6,-12,-15
1529258682844850,16,17,10,2,1,1,5,19
1529258682866791,-2,13,12,9,5,2,-2,-13
1529258682866791,-18,-38,-17,-7,-3,-2,-9,-7
1529258682867789,10,17,4,1,5,3,6,10
1529258682867789,19,12,7,2,-1,-5,-13,-32
1529258682888732,-9,-13,-8,-2,-3,-4,1,5
1529258682888732,16,29,14,7,1,1,3,-1
1529258682889730,-3,-2,-8,-9,-8,-4,-4,-6
1529258682889730,5,-14,-4,0,3,3,3,2
1529258682903692,-50,-18,-10,-6,-9,-11,-7,-3
1529258682903692,0,-10,0,1,3,3,-1,-2
1529258682904690,18,2,-1,1,1,5,6,7
1529258682904690,-8,-11,-14,-6,-4,-2,-1,4
1529258682926631,36,20,15,4,3,5,10,22
1529258682926631,-26,-15,-4,2,-1,-1,-2,-9
1529258682927629,2,1,7,2,-1,-1,0,13
1529258682927629,-4,10,22,9,4,5,9,4
1529258682949570,-7,-3,-17,-10,-7,-6,-7,-9
1529258682949570,52,-15,-7,-1,4,6,5,20
1529258682949570,-22,35,32,12,-1,-11,-20,-31
1529258682949570,8,-7,-16,-7,-3,1,5,11
1529258682963532,17,3,5,2,2,2,3,4
1529258682963532,3,-13,-7,-5,-2,-3,-4,-7
1529258682971511,-10,-12,-2,-1,-2,1,-1,0
1529258682971511,6,27,21,19,9,7,6,-1
1529258682986471,46,32,11,6,0,3,6,23
1529258682986471,0,-5,-3,-7,-2,-3,0,-3
1529258682987469,23,4,-8,-8,-1,2,1,3
1529258682987469,-11,3,-18,-3,-3,-10,-22,-30
1529258683009410,13,9,9,5,0,5,4,5
1529258683009410,-26,-7,-15,-11,-6,-8,-9,-6
1529258683009410,12,8,2,3,4,3,3,6
1529258683009410,13,-21,-17,-12,-5,-4,-4,3
1529258683023372,-31,-27,-28,-10,-5,-5,-6,-14
1529258683023372,-4,40,28,7,-2,-1,0,4
1529258683031351,10,-10,-8,-9,-4,-2,2,1
1529258683031351,1,-26,-9,-3,0,2,-1,0
1529258683046311,8,2,17,8,5,1,0,5
1529258683046311,-16,11,1,0,-4,-7,-6,-10
1529258683047309,-27,-17,-11,-9,-4,-3,5,1
1529258683047309,33,9,0,-3,0,1,2,3
1529258683069250,24,23,7,-1,2,2,1,6
1529258683069250,23,9,11,17,15,10,11,7
1529258683070247,-7,-7,-5,-1,-4,-6,-8,-10
1529258683070247,-14,13,-12,-16,-17,-15,-8,-2
1529258683083212,-3,-1,8,-3,-2,0,-2,-7
1529258683083212,-13,-30,-4,4,3,3,-1,-4
1529258683091191,-3,31,2,-2,-6,-7,-8,1
1529258683091191,-28,0,10,9,6,4,2,-3
1529258683106151,-11,-17,-10,-9,-5,-5,-2,0
1529258683106151,17,16,15,11,10,12,10,0
1529258683107149,-29,-13,-4,-9,-10,-12,-12,-6
1529258683107149,9,8,7,2,3,3,7,10
1529258683129090,-38,-33,-10,-2,-1,-4,-11,-22
1529258683129090,29,-19,-22,-6,-1,1,4,11
1529258683130088,8,-33,-19,-5,1,2,1,0
1529258683130088,21,9,6,3,3,7,11,20
1529258683143053,-31,-32,-14,-12,-6,-6,-6,-6
1529258683143053,21,75,29,3,-6,-10,-6,5
1529258683152029,10,-1,-11,-4,-1,3,9,6
1529258683152029,5,-37,-19,-17,-7,-6,-3,8
1529258683166989,-23,-37,-31,-3,-2,0,-1,-9
1529258683166989,-18,-23,6,-2,-4,-5,-4,-3
1529258683166989,21,36,10,7,6,6,7,3
1529258683166989,-34,-16,5,5,3,0,-5,-6
1529258683188930,-9,-15,-20,-17,-10,-7,-3,2
1529258683188930,-22,-34,-22,-12,-7,-6,-9,-12
1529258683189928,21,24,12,4,7,6,8,1
1529258683189928,-15,5,3,6,3,2,1,-6
1529258683203890,39,25,23,16,9,6,4,2
1529258683203890,-79,-52,-13,-1,-3,4,8,-5
1529258683211869,-11,-25,-20,-10,-6,-5,2,10
1529258683211869,-5,-33,-11,-6,-2,-2,1,2
1529258683226828,5,45,32,15,5,3,3,0
1529258683226828,19,41,-9,-11,-9,-6,-4,0
1529258683227826,-7,4,-5,1,-1,-3,-8,-15
1529258683227826,-37,-15,-13,-12,-7,-6,-5,-14
1529258683248770,12,-19,-12,-6,-1,1,2,4
1529258683248770,-32,-21,0,-4,-2,-1,-1,-8
1529258683249768,-24,3,9,4,6,3,-5,-13
1529258683249768,6,25,15,4,0,0,1,3
1529258683272706,-45,-62,-7,-1,0,-5,-10,-26
1529258683272706,-7,10,-3,-1,1,2,6,8
1529258683272706,3,-33,-2,6,3,3,1,-6
1529258683272706,1,9,16,5,-5,-6,-9,4
1529258683286669,-26,12,2,-2,-1,0,-3,-10
1529258683286669,13,16,6,4,1,1,0,5
1529258683287666,-33,-36,-7,-4,0,2,2,-7
1529258683287666,-4,33,7,3,-1,-1,-8,-12
1529258683309607,27,44,1,1,3,1,1,4
1529258683309607,20,5,1,-1,0,2,3,0
1529258683309607,6,-14,-7,-3,-2,-2,-3,-3
1529258683309607,-25,-13,-1,2,-2,-3,-1,-1
1529258683332546,30,12,-3,0,2,0,3,19
1529258683332546,44,-19,-12,-4,-3,-2,-4,2
1529258683333544,10,12,13,7,5,3,4,7
1529258683333544,-5,45,20,6,0,0,5,1
1529258683346508,-22,-44,-7,-1,-1,-1,3,-2
1529258683346508,4,-25,-11,-2,-1,-3,-5,0
1529258683347506,-21,-11,-22,-16,-10,-9,-5,-4
1529258683347506,25,24,8,6,4,3,-2,-9
1529258683369447,9,-3,5,0,0,0,0,3
1529258683369447,-12,11,-14,-11,-7,-6,-8,-16
1529258683369447,19,-11,-4,-2,-1,-4,-3,10
1529258683369447,9,1,-5,1,5,4,4,2
1529258683392386,-41,-6,-12,-14,-13,-12,-9,0
1529258683392386,-20,-21,-10,-4,-6,-5,-6,-3
1529258683393384,-15,7,8,1,-1,-3,-7,-18
1529258683393384,24,-5,-7,-1,4,2,0,6
1529258683406349,-3,11,10,6,0,1,3,-1
1529258683406349,43,25,9,-2,2,3,6,22
1529258683407346,-35,-23,-2,0,-4,-3,-2,1
1529258683407346,0,-6,-6,-2,-3,-3,-6,-11
1529258683429288,58,31,-2,-1,-3,-6,-11,9
1529258683429288,56,64,34,9,6,8,12,15
1529258683430285,-6,-41,-19,-3,-2,4,5,3
1529258683430285,-18,-19,-13,-4,0,-2,0,-3
1529258683452226,25,25,3,5,4,4,2,7
1529258683452226,-11,11,-1,1,3,-3,-6,-14
1529258683453224,44,31,8,2,-2,-1,1,14
1529258683453224,21,3,-5,-5,-6,-1,11,20
1529258683475165,-7,10,-1,0,1,2,3,-4
1529258683475165,-18,-9,15,13,4,0,-2,-10
1529258683475165,57,77,14,2,0,3,3,9
1529258683475165,-41,-28,-10,-11,-8,-10,-20,-24
1529258683489127,-8,14,7,2,0,2,1,-5
1529258683489127,-34,-41,-11,-3,-2,-3,-4,-12
1529258683490125,-1,7,8,1,3,3,4,2
1529258683490125,1,-20,-7,1,-2,-4,-4,-5
1529258683512066,21,36,8,-6,-2,-4,-9,11
1529258683512066,-23,-20,-11,-2,-1,-4,-8,-13
1529258683513064,-16,-28,-11,-3,-2,0,-1,-1
1529258683513064,8,8,16,8,3,1,2,8
1529258683527026,-11,-36,-5,1,2,2,7,-4
1529258683527026,-39,-7,1,2,-1,-1,-1,-14
1529258683527026,1,-59,-30,-20,-12,-8,-4,3
1529258683527026,11,4,-12,-11,-3,1,5,12
1529258683548967,-9,-10,5,0,-3,-2,2,-1
1529258683548967,29,27,8,6,5,7,-3,6
1529258683549965,14,25,22,8,2,4,7,4
1529258683549965,12,4,4,2,-1,-3,-6,-4
1529258683571906,-5,-26,-10,-2,0,-3,4,3
1529258683571906,15,4,-7,-7,-6,-2,-1,6
1529258683572904,-15,8,3,7,5,5,3,3
1529258683572904,23,25,-8,-8,-6,0,0,-6
1529258683586866,-26,5,12,-4,-6,-4,-1,-9
1529258683586866,11,-22,-1,10,6,2,-3,10
1529258683587864,2,-7,-4,-3,-3,-2,2,14
1529258683587864,-21,13,10,1,-1,-4,-8,-16
1529258683608808,-10,-59,-21,-2,0,1,0,-7
1529258683608808,17,18,11,0,0,1,4,-3
1529258683609806,-9,22,24,11,7,3,-2,-2
1529258683609806,-50,-61,-15,-2,0,-5,-6,-12
1529258683632744,-43,-49,-2,12,9,8,2,-18
1529258683632744,5,15,-6,-8,-7,-6,-2,6
1529258683632744,8,13,19,18,12,6,-3,-18
1529258683632744,24,14,-11,-15,-10,-12,-15,-16
1529258683646706,22,-11,-5,-10,-3,1,9,14
1529258683646706,-65,-25,-3,1,-2,-6,-10,-29
1529258683647704,28,22,1,4,8,8,-5,-4
1529258683647704,1,16,0,0,-6,-3,10,10
1529258683668647,35,61,7,-3,-4,-5,1,-7
1529258683668647,-5,-6,-10,-9,-9,-9,-9,-2
1529258683669645,-7,-2,-4,-7,-7,-8,-5,2
1529258683669645,5,-14,-1,5,7,12,10,10
1529258683692583,-15,-18,-23,-9,-8,-4,-2,-3
1529258683692583,17,-36,-12,-5,0,3,11,20
1529258683692583,-61,-32,4,6,0,0,-2,-23
1529258683692583,-42,-34,-19,-15,-7,-3,3,15
1529258683706546,14,8,11,6,2,3,4,8
1529258683706546,-4,18,15,4,1,0,-1,0
1529258683707544,-7,23,12,3,-1,-3,1,7
1529258683707544,20,6,4,5,4,6,12,15
1529258683729485,-21,-26,-8,-6,1,-1,-5,-7
1529258683729485,-49,-24,4,-1,-6,-6,-6,1
1529258683729485,17,41,0,-14,-15,-14,-5,7
1529258683729485,21,22,13,10,7,7,4,1
1529258683752424,-40,-35,-19,-13,-7,-3,-3,-3
1529258683752424,15,8,-11,-9,0,-2,0,1
1529258683753421,-13,-22,-8,7,4,6,9,-2
1529258683753421,-33,9,-4,-12,-9,-13,-16,-11
1529258683766386,7,5,3,3,1,3,0,6
1529258683766386,-2,-36,-13,-8,-5,-1,4,6
1529258683767384,18,31,-2,-3,1,0,5,3
1529258683767384,-2,17,3,3,3,1,1,4
1529258683789325,9,-4,-12,1,0,-3,-4,-3
1529258683789325,6,26,19,5,3,3,6,1
1529258683790323,48,9,-14,-20,-13,-11,-7,8
1529258683790323,-17,-22,-3,7,7,5,5,-3
1529258683812263,30,61,30,9,5,1,-1,-1
1529258683812263,49,15,0,1,1,3,6,20
1529258683813261,4,-44,-19,-9,-4,-3,-3,-12
1529258683813261,26,56,40,19,6,-1,-3,-6
1529258683826226,-4,0,4,5,7,6,4,9
1529258683826226,-20,-21,6,0,-2,-3,-8,-18
1529258683827224,-27,-46,-20,-2,-1,-1,-6,-11
1529258683827224,-14,-43,-26,-10,-6,-4,-5,-12
1529258683849165,-23,12,5,5,2,0,-6,-14
1529258683849165,-1,38,19,10,3,4,2,1
1529258683850163,-51,-52,-8,-6,-3,-2,-4,-11
1529258683850163,5,-12,-8,0,1,3,2,7
1529258683872104,16,-3,4,-1,-6,-7,-5,2
1529258683872104,12,24,-17,-7,-2,-3,-6,-7
1529258683873101,17,24,13,2,-1,0,6,16
1529258683873101,20,7,3,0,-1,0,2,3
1529258683886066,-15,-21,0,-2,-8,-9,-13,-17
1529258683886066,-6,-42,-22,-7,-1,0,0,9
1529258683894045,31,44,28,18,7,2,1,-3
1529258683894045,-27,-24,-10,-9,-5,-3,-5,-5
1529258683909005,44,31,-13,-6,-2,0,3,11
1529258683909005,8,-13,-5,1,2,1,-3,-6
1529258683910003,-23,-35,-5,-5,3,4,6,7
1529258683910003,-7,38,25,9,-1,-4,-2,-3
1529258683931944,3,11,11,-5,0,4,12,13
1529258683931944,25,-53,-41,-20,-5,-1,0,15
1529258683932942,-47,15,30,9,-3,-9,-11,-15
1529258683932942,23,67,55,24,8,1,1,7
1529258683945906,2,-21,-7,-4,-2,1,4,8
1529258683945906,-23,9,12,-1,-5,-5,0,-6
1529258683953885,23,-53,-47,-14,-8,-5,-7,-1
1529258683953885,2,-39,-8,5,8,8,6,-6
1529258683968845,15,23,22,14,5,2,-1,2
1529258683968845,-20,-14,-2,4,0,0,7,3
1529258683969843,22,57,11,7,3,0,-1,2
1529258683969843,0,-17,-30,-15,-5,-3,-4,-4
1529258683992781,37,32,29,22,13,9,6,0
1529258683992781,1,-30,-9,-9,-5,-5,-5,2
1529258683992781,-36,-13,3,0,0,-1,-1,0
1529258683992781,16,3,2,-5,-3,0,2,10
1529258684005746,-29,-44,-17,-14,-8,-9,-5,-1
1529258684005746,35,81,26,6,3,3,4,3
1529258684013725,-4,-9,11,4,1,3,2,-3
1529258684013725,55,11,-15,-9,-6,-5,-3,6
1529258684028685,-38,-52,-32,-13,-4,-6,-14,-17
1529258684028685,-1,28,15,5,1,4,11,3
1529258684029683,8,45,8,-2,-1,0,4,6
1529258684029683,41,-1,16,23,12,9,6,7
1529258684052621,-53,23,14,3,-2,-1,-3,-17
1529258684052621,4,-78,-58,-24,-10,-8,-5,0
1529258684052621,4,16,11,5,7,4,-2,-6
1529258684052621,40,12,-25,-10,-4,-1,4,13
1529258684065587,-46,-11,-24,-15,-11,-8,-7,-7
1529258684065587,-9,-2,-6,11,3,1,-5,-11
1529258684074563,-32,-79,-34,-12,-5,-6,-12,-18
1529258684074563,-12,29,2,-9,-7,-7,-1,0
1529258684089522,-23,23,23,27,16,7,-11,-28
1529258684089522,-3,-43,-13,-10,-4,-4,-9,-11
1529258684089522,-28,-40,-19,-15,-8,-1,5,3
1529258684089522,6,-1,9,2,2,-1,-6,-4
1529258684112461,-4,-39,-29,-12,-7,-7,-2,-4
1529258684112461,-8,-7,23,3,2,5,7,9
1529258684113459,7,56,15,17,8,5,2,-1
1529258684113459,8,36,13,0,-3,-1,3,15
1529258684125426,3,7,-20,-22,-7,1,17,28
1529258684125426,11,34,-5,8,9,2,-4,-5
1529258684134402,-2,-14,4,2,-2,-6,-8,-8
1529258684134402,-60,-41,-7,4,5,6,1,-16
1529258684149363,56,20,-6,-5,-5,-6,-8,11
1529258684149363,23,72,41,12,2,-2,-9,-14
1529258684150361,-4,29,11,-2,-2,0,6,12
1529258684150361,-18,-13,-5,-4,-4,-4,-9,-14
1529258684172301,-41,-14,-1,2,1,0,-5,-21
1529258684172301,0,-1,-15,-13,-5,1,15,18
1529258684173299,11,5,13,7,2,0,-4,-8
1529258684173299,-35,-59,-28,-18,-13,-10,-8,-10
1529258684186264,30,10,31,16,10,4,4,9
1529258684186264,0,41,35,12,1,1,-2,2
1529258684194242,23,3,-19,-6,-5,-5,-2,5
1529258684194242,-26,-28,-28,-14,-10,-9,-7,-5
1529258684209203,41,-5,-11,-7,-4,2,6,18
1529258684209203,-39,-26,-1,2,0,-2,-6,-17
1529258684210200,22,5,-16,-8,-2,0,2,9
1529258684210200,10,15,35,21,15,14,12,8
1529258684231144,28,73,-1,-1,-9,-15,-14,1
1529258684231144,21,-13,-5,0,1,-1,1,16
1529258684232142,-15,-25,-20,-7,-3,0,1,-6
1529258684232142,-16,-19,4,-1,-1,-4,0,2
1529258684255080,16,-11,-5,1,4,4,0,7
1529258684255080,10,21,25,19,12,10,3,-14
1529258684256077,-23,-19,-32,-26,-18,-12,1,12
1529258684256077,5,10,16,9,6,2,-2,-8
1529258684269042,8,-8,-14,-8,-5,-1,2,3
1529258684269042,-4,-10,-12,-1,-4,-5,-4,-3
1529258684270040,-4,-25,8,6,5,5,4,-2
1529258684270040,-7,-17,-31,-13,-6,0,3,5
1529258684291981,3,9,21,17,6,4,1,0
1529258684291981,-34,-17,4,1,-2,-2,-6,-8
1529258684291981,17,51,35,8,2,-1,0,-1
1529258684291981,9,-21,-21,-11,-6,-3,-3,-3
1529258684314920,-35,-10,11,3,3,2,2,-9
1529258684314920,-27,-37,-16,-12,-6,-8,-10,-12
1529258684315918,-5,-31,-11,2,3,-1,-6,-9
1529258684315918,-7,13,14,0,1,1,0,-2
1529258684328882,37,2,-12,-9,-3,0,5,9
1529258684328882,24,57,42,20,9,6,8,12
1529258684329880,-16,9,16,6,2,-1,-3,-12
1529258684329880,8,-41,-33,-15,-8,-8,-7,0
1529258684351821,-16,6,-8,-8,-2,-1,-1,-6
1529258684351821,-3,32,26,5,1,0,0,-5
1529258684352819,17,11,-1,0,1,0,-4,3
1529258684352819,-8,-18,0,0,-1,5,9,1
1529258684374760,-9,-7,-8,-8,-5,-5,-1,7
1529258684374760,5,-6,-5,-8,-6,-6,-5,6
1529258684375757,1,-14,-6,0,1,3,5,4
1529258684375757,-30,-5,7,3,1,0,-1,-9
1529258684388723,3,-35,-7,-6,-3,1,3,1
1529258684388723,10,11,-31,-21,-14,-15,-8,6
1529258684389721,-6,-17,-10,-6,2,1,0,-2
1529258684389721,22,30,7,12,7,5,2,4
1529258684411661,7,7,14,5,1,-1,-2,-7
1529258684411661,-18,-31,-20,-10,-4,0,2,3
1529258684412659,21,16,7,3,-2,-2,0,5
1529258684412659,32,35,10,-2,1,0,-2,9
1529258684434600,-9,1,14,4,4,2,-3,-7
1529258684434600,7,2,-9,1,1,0,1,-2
1529258684435598,-7,-12,-14,-1,-2,-4,-2,4
1529258684435598,54,55,23,14,10,8,4,12
1529258684449560,-20,-32,-13,-9,-5,-5,-1,-1
1529258684449560,8,-9,4,5,3,5,4,-3
1529258684449560,3,-1,-5,-2,-4,-2,-4,-2
1529258684449560,-8,11,3,4,2,-1,-5,-11
1529258684471501,-3,2,0,0,0,-2,-2,-6
1529258684471501,9,-17,-28,-11,-3,-3,-6,-3
1529258684472499,19,2,8,14,9,6,1,1
1529258684472499,-61,-53,-20,-17,-15,-16,-14,-19
1529258684494440,-4,-4,-1,-1,0,1,1,-2
1529258684494440,-13,-3,5,-1,-1,1,4,-1
1529258684495437,11,14,-7,-5,-2,-1,-4,1
1529258684495437,-4,-18,-13,-3,-1,0,-3,-4
1529258684509400,2,31,5,-5,-3,-3,-1,0
1529258684509400,-2,21,30,14,5,2,-1,-7
1529258684509400,8,-19,-7,-3,-2,2,6,6
1529258684509400,-42,-21,-17,-9,-8,-8,-7,-11
1529258684531341,-1,-17,-5,-2,0,-1,-6,0
1529258684531341,1,-14,-11,-4,-3,-1,1,-1
1529258684532339,-13,-4,2,-3,-4,-1,3,-4
1529258684532339,6,4,7,1,1,3,4,5
1529258684555277,6,-6,-5,0,-1,0,-1,-6
1529258684555277,-12,7,4,1,-1,-4,-4,-2
1529258684555277,-3,-13,3,5,0,-1,-5,-9
1529258684555277,15,46,16,9,3,4,5,1
1529258684569240,-37,-25,-8,-5,-3,-3,0,-5
1529258684569240,24,7,-7,-8,-4,-3,-1,3
1529258684570238,7,-15,-25,-7,-4,-1,9,25
1529258684570238,39,2,0,-2,1,4,2,13
1529258684591182,14,17,4,3,-1,-1,-3,-1
1529258684591182,-10,-10,3,3,1,0,1,-2
1529258684592179,-4,4,2,-2,0,-2,-6,-8
1529258684592179,-9,0,-1,0,0,-2,5,-11
1529258684615117,14,-2,-9,-7,-7,-7,-6,19
1529258684615117,1,-18,-12,-4,-2,0,-3,-6
1529258684615117,4,23,17,2,2,-1,-5,2
1529258684615117,-5,-14,-10,-5,-1,-1,-3,-1
1529258684629080,18,21,9,4,-5,-2,-2,-4
1529258684629080,-11,1,4,-3,0,0,-6,3
1529258684630078,-12,-17,-13,-8,-2,-1,5,-4
1529258684630078,7,13,14,5,-1,-5,-6,-4
1529258684652019,-1,-6,1,6,5,4,7,13
1529258684652019,2,5,5,5,3,-2,-4,-5
1529258684652019,-17,-11,-2,-3,-3,-1,-2,-3
1529258684652019,-6,15,5,1,-3,-5,-9,-6
1529258684674957,5,6,14,9,6,3,4,-4
1529258684674957,11,-9,-5,-4,0,1,-3,-2
1529258684675955,13,17,15,6,-1,-1,-1,13
1529258684675955,1,-9,-7,-3,-1,-1,5,2
1529258684688920,13,-6,-17,-9,-3,-2,1,0
1529258684688920,-33,4,1,1,-3,-1,-3,-13
1529258684689918,20,10,-7,-7,-4,-3,-3,0
1529258684689918,-10,-16,-2,-7,-1,0,4,2
1529258684711859,0,-6,4,0,0,0,1,-9
1529258684711859,2,17,0,-2,0,1,3,6
1529258684712856,-9,-16,-10,-4,0,1,2,-6
1529258684712856,-19,-11,-8,-6,-4,-2,1,4
1529258684734797,-4,26,17,14,8,4,-1,-17
1529258684734797,22,-29,-12,-8,-5,-4,-3,6
1529258684735795,-51,-16,4,2,-2,-3,0,-13
1529258684735795,15,-8,-11,0,-2,-4,-9,12
1529258684748760,6,-4,-11,-2,1,0,0,0
1529258684748760,6,-3,-4,0,0,-1,-5,-1
1529258684749758,4,26,8,7,3,1,2,2
1529258684749758,-19,-44,-16,-6,-2,1,-2,-7
1529258684771699,-7,-8,-9,-12,-5,-2,1,-6
1529258684771699,0,8,6,9,2,2,7,5
1529258684772697,-2,-6,-3,-3,-1,0,-2,-6
1529258684772697,8,16,12,7,3,3,2,-3
1529258684794637,6,-3,-6,-2,-5,-1,-3,9
1529258684794637,-3,-11,-14,-7,-3,-3,1,2
1529258684795635,-3,-4,-1,0,1,-1,-3,-5
1529258684795635,18,12,12,3,2,1,1,3
1529258684808600,0,1,-4,1,-1,-1,-2,-3
1529258684808600,-10,-9,2,0,0,-1,-1,-1
1529258684816579,6,10,2,-3,-2,0,0,-1
1529258684816579,4,8,2,-2,-3,-4,0,2
1529258684831539,10,12,13,7,5,4,1,2
1529258684831539,36,27,-9,-5,-3,-3,-3,2
1529258684832537,13,-1,3,0,1,0,-4,5
1529258684832537,-13,-19,-13,-7,-3,-7,-4,-12
1529258684854478,-19,-25,-10,-9,-4,-1,-4,-4
1529258684854478,29,23,14,15,6,6,8,7
1529258684855475,-25,0,1,-4,-4,-2,-2,-16
1529258684855475,8,-4,-8,-4,-5,-2,0,8
1529258684868440,14,-3,1,5,3,2,3,8
1529258684868440,-39,-29,-4,-5,-2,2,2,-6
1529258684876419,3,-3,1,-1,-3,-2,-4,2
1529258684876419,-16,-5,-10,-5,-2,-3,-2,-2
1529258684891379,11,10,7,6,3,-1,2,-3
1529258684891379,-13,-3,-6,-5,-3,-3,-1,-1
1529258684892377,4,2,1,-3,0,0,-3,1
1529258684892377,-2,-17,-3,0,0,2,-2,-8
1529258684914317,32,44,17,1,0,0,2,11
1529258684914317,-29,-19,-9,-5,-4,-2,3,-1
1529258684915315,-8,0,-4,-2,-3,-5,-2,-2
