timestamp,emg1,emg2,emg3,emg4,emg5,emg6,emg7,emg8
1519732146293040,0,-16,-25,-7,-8,-10,14,2
1519732146293040,8,27,19,2,4,9,-20,-9
1519732146295038,-5,-16,-2,-1,-7,-10,4,-2
1519732146295038,-1,0,-3,-1,7,5,-3,5
1519732146323112,0,-8,-8,-5,-9,-5,3,6
1519732146323112,-13,-12,-3,-1,3,0,-1,-6
1519732146325117,6,2,1,2,2,4,-4,7
1519732146325117,-1,2,1,-3,-3,-4,13,-3
1519732146330131,-4,-9,-10,-5,-4,-4,11,6
1519732146330131,-5,-1,1,-3,-3,-7,-28,-14
1519732146337150,4,0,-6,0,4,7,10,4
1519732146337150,-2,-4,-3,1,5,3,4,-2
1519732146353192,3,12,13,2,-3,0,-1,-3
1519732146353192,6,4,3,4,6,6,25,16
1519732146355197,-1,-4,-2,0,-4,-10,-43,-8
1519732146355197,-2,-6,-7,-2,-1,6,12,-9
1519732146376253,-5,0,-4,-6,-12,-8,-18,6
1519732146376253,4,6,0,2,9,4,-8,8
1519732146377262,-2,-6,1,-1,-3,-4,-4,-8
1519732146377262,2,6,7,-2,-8,8,23,6
1519732146389288,-5,-1,-4,0,6,-17,-45,-6
1519732146389288,-7,-9,-5,-3,-8,-12,-37,-14
1519732146398312,-2,-7,-8,-7,-2,7,36,9
1519732146398312,2,2,-3,-1,1,-5,-32,-4
1519732146413360,2,11,6,4,0,2,26,3
1519732146413360,2,2,4,3,3,3,-11,1
1519732146416360,-6,-1,-5,-1,-3,-4,13,0
1519732146416360,-4,-4,-6,-7,-4,-3,7,1
1519732146435410,-3,-7,-12,-6,-8,-4,-5,-9
1519732146435410,5,8,12,9,6,-3,12,-1
1519732146437416,-3,3,2,-2,1,-1,-45,-11
1519732146437416,0,-5,-5,4,1,-2,11,5
1519732146449448,-3,-5,-4,-7,-4,-5,-22,-10
1519732146449448,1,4,6,4,0,6,11,0
1519732146458472,-1,-5,-8,-4,-6,-1,3,1
1519732146458472,0,-4,-2,4,1,-5,-10,-4
1519732146473512,0,5,6,-3,1,8,8,0
1519732146473512,-5,-7,-6,-7,-5,-1,9,6
1519732146474514,1,-6,-3,3,0,-2,-10,-8
1519732146474514,3,4,2,2,1,-2,5,5
1519732146495571,6,2,2,1,2,0,15,15
1519732146495571,-7,-8,-11,-10,-8,-5,-19,-11
1519732146497576,-1,-4,-4,1,2,0,-3,-4
1519732146497576,-1,1,4,1,3,-3,-7,-4
1519732146510615,1,-1,-1,0,-1,3,6,2
1519732146510615,2,-3,-3,-1,3,6,25,7
1519732146518632,3,5,9,4,-4,-2,-5,7
1519732146518632,-1,0,-1,-2,-5,-3,-1,-12
1519732146533672,-4,-3,-4,-2,0,2,-8,-6
1519732146533672,-7,-5,0,-5,-7,-8,1,3
1519732146534674,1,0,-9,1,2,-2,0,-5
1519732146534674,2,7,13,3,0,5,15,12
1519732146555730,-3,1,-1,-2,-6,-1,9,-3
1519732146555730,-3,-8,-3,-6,-5,-2,-8,-6
1519732146557736,-1,-5,-3,-2,4,-3,-10,-6
1519732146557736,1,-3,-8,-3,-5,-1,7,1
1519732146578794,-2,3,2,4,3,-4,-21,-2
1519732146578794,2,3,5,2,-1,3,-3,3
1519732146579802,0,2,1,-2,3,7,19,9
1519732146579802,0,-5,-8,-7,-4,-4,-11,4
1519732146593838,-3,-1,-1,-3,-4,-5,-4,-11
1519732146593838,-5,0,-2,-2,3,1,4,-7
1519732146594840,-1,0,4,5,1,-1,-11,2
1519732146594840,0,3,3,0,-1,1,6,-3
1519732146615891,1,-1,-1,-1,1,-2,-13,0
1519732146615891,-6,-1,-5,-4,-6,-2,6,-15
1519732146617896,0,1,-1,-3,0,-1,14,7
1519732146617896,0,-2,-2,3,3,3,16,-5
1519732146629928,2,2,4,-1,-4,-5,-11,1
1519732146629928,4,-1,0,5,3,1,2,3
1519732146638952,-2,-1,-3,-3,1,2,9,3
1519732146638952,-2,-6,-4,1,1,2,-6,-7
1519732146652990,3,6,6,5,1,-2,-4,1
1519732146652990,0,3,3,-1,-1,-6,-4,-10
1519732146654995,-3,-2,-3,-8,-6,6,33,1
1519732146654995,0,-6,-5,-2,-1,-12,-41,-3
1519732146676050,-4,-4,-2,-3,2,6,23,2
1519732146676050,-2,1,0,3,0,-4,-17,0
1519732146677059,-1,0,0,-2,-6,-7,-11,-6
1519732146677059,-4,-1,0,-1,7,4,13,-1
1519732146689085,1,1,-7,3,-7,-3,1,1
1519732146689085,1,0,-4,-7,-5,2,6,5
1519732146698109,-1,-5,-4,-5,-3,3,26,7
1519732146698109,-1,-2,-4,-5,0,-8,-39,-1
1519732146713151,1,2,6,4,1,-3,-10,-11
1519732146713151,-1,3,6,7,6,5,-1,-9
1519732146715155,0,-1,-4,-1,0,1,5,-1
1519732146715155,-2,-4,-5,-2,-2,1,-2,5
1519732146743231,0,-5,-6,-2,11,4,-15,-7
1519732146743231,4,7,3,-3,-12,-11,-23,3
1519732146745237,-1,0,5,3,0,0,-5,4
1519732146745237,0,6,-1,2,-3,1,10,0
1519732146749245,-4,-12,-7,-4,-2,-4,-6,-7
1519732146749245,8,5,-4,1,4,14,23,8
1519732146758269,-6,-7,1,3,-1,-5,-14,-3
1519732146758269,0,2,1,-1,-3,-3,-11,7
1519732146773309,-5,-2,-4,-3,-4,-5,-3,-20
1519732146773309,-4,-6,-4,-4,-1,-2,7,8
1519732146775315,6,4,-1,3,2,1,-3,-8
1519732146775315,4,4,8,7,11,10,23,7
1519732146795368,-1,0,-1,-5,-14,-1,24,7
1519732146795368,-2,-3,-2,0,-1,-7,-15,-2
1519732146797374,0,-5,-7,0,1,2,3,-7
1519732146797374,-7,3,3,0,-5,-6,-3,-6
1519732146810414,-2,1,-1,-2,3,1,-2,-7
1519732146810414,2,-1,-2,0,4,0,15,7
1519732146818430,0,-5,-3,-3,-5,0,-10,9
1519732146818430,2,5,1,0,-6,-4,-2,-19
1519732146833469,-3,-3,0,-1,-1,-2,-12,12
1519732146833469,-3,-7,-5,0,2,3,8,-7
1519732146834472,-3,-5,-5,-3,1,-2,-5,-4
1519732146834472,2,16,10,1,-6,-2,1,1
1519732146855528,-1,2,4,-2,1,0,-7,-9
1519732146855528,4,1,-1,2,3,2,-4,7
1519732146857536,-2,2,5,-1,-1,0,1,0
1519732146857536,-3,-12,-9,-2,-1,-4,-16,1
1519732146869565,-3,0,-2,-3,-4,-3,-3,-4
1519732146869565,-7,-2,-1,-5,0,-2,-9,-9
1519732146878590,2,-1,-7,1,-1,-2,10,-2
1519732146878590,0,1,0,-1,-2,-1,7,3
1519732146893635,4,5,8,7,7,6,27,8
1519732146893635,0,-5,-4,0,1,-6,-36,-9
1519732146895638,-5,-2,-2,-3,-5,-1,-7,-9
1519732146895638,-4,-7,-6,-4,0,2,20,6
1519732146915688,5,-2,-7,-4,-5,-2,-1,8
1519732146915688,6,6,5,5,6,-4,-6,1
1519732146917693,1,4,7,0,0,3,-2,-4
1519732146917693,0,-5,-3,-5,0,3,12,3
1519732146929729,-2,-2,0,1,-2,-9,-33,-1
1519732146929729,-8,-5,-7,-8,-8,-1,9,-5
1519732146938751,3,1,-3,3,2,-1,-4,7
1519732146938751,6,0,2,-2,0,2,27,20
1519732146953789,-1,0,2,1,4,0,-23,-14
1519732146953789,-6,-1,-1,-5,-11,-9,-7,-5
1519732146954792,-7,0,1,-5,-5,-5,-21,-5
1519732146954792,-2,-6,-10,-3,-3,-1,-2,-6
1519732146975848,6,2,-1,4,3,4,21,16
1519732146975848,1,1,4,1,3,1,-5,5
1519732146977861,-2,2,-2,-2,-5,-4,-11,-16
1519732146977861,0,0,4,1,-3,0,0,2
1519732146989885,-4,-4,-3,-3,-1,-7,-16,-6
1519732146989885,1,-2,-4,2,2,7,27,-3
1519732146998910,5,2,1,-1,0,-6,-5,14
1519732146998910,0,0,0,0,1,-2,-14,-20
1519732147012947,-1,-6,-7,-5,-5,0,18,9
1519732147012947,-8,-4,1,1,-2,-1,-14,-13
1519732147019965,1,2,2,1,2,2,17,2
1519732147019965,1,-5,-2,3,2,1,7,13
1519732147036008,0,5,2,-1,-1,2,-10,3
1519732147036008,1,2,-1,-1,0,-4,-2,1
1519732147037011,-3,-3,-1,-2,-4,-5,-5,-2
1519732147037011,-3,-1,-2,-4,-8,-1,-13,-4
1519732147049043,-3,-4,-2,0,1,-4,14,0
1519732147049043,10,2,1,0,1,2,22,18
1519732147058067,-1,5,4,2,3,1,-10,-7
1519732147058067,-5,5,5,-3,-1,-4,-4,-6
1519732147073107,0,-4,-4,0,0,4,15,4
1519732147073107,-2,-7,-8,2,-3,-3,0,-9
1519732147079125,1,5,12,3,-2,-1,-2,2
1519732147079125,-3,-9,-7,-3,-2,1,-1,-2
1519732147096168,-4,-2,-3,-4,-3,0,2,-3
1519732147096168,8,6,-2,1,3,3,26,21
1519732147097175,0,-1,-1,2,-3,-8,-13,-10
1519732147097175,1,8,4,0,4,5,-4,-8
1519732147110215,-1,-3,-1,-2,1,-1,3,6
1519732147110215,-2,-3,1,-2,2,4,5,0
1519732147118226,-11,-7,-11,-5,0,-1,-10,-14
1519732147118226,-2,-4,-3,-2,-11,-3,-11,0
1519732147132264,2,1,-1,-1,-4,-8,-21,-6
1519732147132264,-4,1,4,2,0,1,-4,-6
1519732147139283,1,-3,-1,0,2,6,20,8
1519732147139283,2,0,-1,2,6,-1,13,8
1519732147155326,-1,0,1,2,-2,0,-18,-13
1519732147155326,-3,-1,-2,-2,-1,-4,-9,0
1519732147157331,4,2,-3,-2,3,6,13,0
1519732147157331,-4,-3,-1,-3,-4,-2,-5,-6
1519732147169363,1,-2,-3,-3,-1,3,11,11
1519732147169363,-2,3,0,-2,-4,-4,-2,-9
1519732147178388,3,-5,4,5,8,6,3,10
1519732147178388,-3,-3,-5,-3,-4,-5,-4,-8
1519732147192424,-6,-1,0,-4,-3,-1,14,-2
1519732147192424,4,-1,1,-2,1,7,1,0
1519732147199442,-4,-1,-1,-2,-4,-8,-8,5
1519732147199442,2,-1,-4,0,2,4,3,9
1519732147215485,-3,3,6,2,0,-7,5,-6
1519732147215485,0,1,1,1,-2,1,-10,-2
1519732147217491,5,0,-1,-1,-2,0,-10,1
1519732147217491,-2,-4,-1,3,5,0,19,-4
1519732147238547,0,-2,-9,-6,-2,9,11,11
1519732147238547,-2,-4,-7,-4,-7,-6,-4,-2
1519732147239554,2,9,7,1,0,-4,3,-8
1519732147239554,-3,-1,1,1,-1,-4,-30,-13
1519732147252584,-2,-1,1,4,3,7,16,6
1519732147252584,-1,-5,-6,-2,2,1,9,8
1519732147259603,-6,-5,-11,-9,-11,-10,-16,-20
1519732147259603,0,0,3,1,1,0,-4,-4
1519732147275645,4,7,9,3,2,1,-1,1
1519732147275645,-3,-6,0,2,1,1,21,4
1519732147277657,-3,-3,-5,-2,6,2,-8,-1
1519732147277657,3,-1,2,1,-8,-3,-4,2
1519732147298707,-4,-2,-1,-2,-1,-7,-25,-12
1519732147298707,-2,1,-2,-2,-2,-2,-14,3
1519732147299710,-2,-6,-7,-7,-3,2,40,-2
1519732147299710,1,1,-1,3,4,-4,-4,6
1519732147312752,0,2,5,2,3,0,-5,3
1519732147312752,2,-2,-1,-2,-7,-4,6,2
1519732147319763,1,3,2,0,-2,0,1,2
1519732147319763,-2,1,0,-2,3,-4,-17,-4
1519732147335805,0,-1,-1,-3,-3,1,30,3
1519732147335805,-2,-2,-2,-3,3,6,9,-2
1519732147337811,-2,-3,-3,0,-8,-9,-30,0
1519732147337811,-2,-3,-3,-3,-2,-4,-15,-3
1519732147357864,0,2,-1,4,2,-3,-9,-9
1519732147357864,-2,3,5,-1,0,-4,-10,-17
1519732147359876,-2,0,-1,-3,-3,-2,1,4
1519732147359876,-2,-4,-2,0,-2,5,17,10
1519732147371901,-1,-7,-8,-3,-1,-8,-20,-4
1519732147371901,-2,0,-3,-4,-1,-2,-3,3
1519732147380926,2,-1,1,-2,-5,-6,-10,3
1519732147380926,-1,0,1,-2,4,0,-3,-6
1519732147395966,3,-2,-5,2,-1,-1,5,11
1519732147395966,-5,0,0,-3,0,-8,-38,-23
1519732147397972,2,0,8,3,3,7,0,7
1519732147397972,-7,0,-6,-2,-4,-3,8,-13
1519732147418027,-1,-5,-2,-1,-3,-1,-11,-1
1519732147418027,0,0,-5,0,0,1,9,5
1519732147420031,-3,-5,-5,-3,-3,-4,7,-2
1519732147420031,4,5,9,4,3,9,21,14
1519732147432100,-5,2,2,-2,-1,-2,-24,-23
1519732147432100,-1,-5,-5,-2,-4,-1,-9,2
1519732147441086,1,-1,0,9,6,-4,-5,1
1519732147441086,2,-1,-5,-6,-4,-3,2,10
1519732147456127,-2,-2,-2,-2,0,4,16,3
1519732147456127,0,-3,-5,-2,-4,-13,-27,-20
1519732147457132,1,7,12,5,3,7,3,-1
1519732147457132,-1,-4,-5,-1,5,4,1,3
1519732147478185,-1,-4,-4,-5,-5,-3,6,8
1519732147478185,1,1,-1,2,-2,-1,7,0
1519732147480199,3,3,6,-1,-1,2,5,4
1519732147480199,-1,0,0,3,0,-4,-4,-5
1519732147492221,-4,-7,-12,-9,-3,1,6,-1
1519732147492221,2,6,0,-5,1,-2,2,12
1519732147501246,-9,-6,2,-1,3,5,5,-15
1519732147501246,7,7,5,1,1,0,-4,9
1519732147516286,-3,3,4,4,-4,-6,-7,-4
1519732147516286,-2,-1,2,0,0,4,6,-11
1519732147517289,-3,-9,-16,-7,-9,-4,17,8
1519732147517289,-2,-1,-4,0,0,4,-8,-9
1519732147538344,0,4,3,1,5,-9,3,9
1519732147538344,-2,1,7,3,-2,0,5,-2
1519732147540350,0,2,2,2,2,0,-3,0
1519732147540350,-2,-6,-9,-6,-6,-1,12,-1
1519732147552382,-1,-2,-5,-1,-1,-1,-6,-2
1519732147552382,-4,-4,-6,-12,-2,0,5,4
1519732147561416,3,1,0,4,-3,-3,-11,1
1519732147561416,0,5,4,0,5,-5,-17,-12
1519732147576450,1,2,7,6,-1,1,-1,4
1519732147576450,-2,-2,0,4,7,6,6,-1
1519732147577452,-1,-11,-14,-7,-4,1,5,3
1519732147577452,-1,0,-5,-3,-6,-4,-12,-14
1519732147598504,1,4,3,0,3,-4,-16,-6
1519732147598504,-1,-1,11,4,-1,2,-2,5
1519732147599510,6,2,-7,-4,-3,-1,32,11
1519732147599510,-5,-5,2,0,1,3,10,4
1519732147612548,-5,-3,-4,-4,-4,-9,-12,-21
1519732147612548,2,-1,-1,5,4,2,5,2
1519732147620564,-1,2,3,-2,0,0,-2,2
1519732147620564,2,5,-2,0,-3,-2,13,6
1519732147635603,1,-6,0,-4,-2,7,7,9
1519732147635603,-3,1,4,5,-1,-4,-10,-15
1519732147637608,-2,-4,-9,-8,-5,-2,7,-3
1519732147637608,-1,-1,-5,-1,-8,-6,-19,2
1519732147658664,1,4,4,0,5,3,10,8
1519732147658664,0,0,7,4,2,1,5,4
1519732147659667,-1,1,-3,-1,3,1,-8,2
1519732147659667,-4,-8,-7,-6,-8,-4,-4,-7
1519732147671699,0,0,-7,-1,-1,1,-20,-6
1519732147671699,-3,-6,-3,-3,-4,-4,-4,-1
1519732147680723,1,3,-2,3,2,2,-3,-2
1519732147680723,3,4,14,6,6,1,15,11
1519732147695763,-5,1,1,-5,-6,-10,-12,-6
1519732147695763,-2,-6,-8,-2,-1,5,6,10
1519732147697768,-6,-5,-6,-3,-5,-4,3,-7
1519732147697768,-3,-2,-5,-4,0,1,-5,0
1519732147717821,7,3,5,7,2,6,13,3
1519732147717821,0,4,3,-2,0,-4,-6,6
1519732147719828,-4,-7,-6,-4,-5,-5,-16,-12
1519732147719828,-3,1,4,1,1,-1,6,1
1519732147731859,-2,-2,-1,0,0,9,16,-5
1519732147731859,-1,-2,-4,-1,-1,-11,-27,-2
1519732147740883,0,2,4,-3,-5,-4,-1,-12
1519732147740883,-3,-5,-5,0,1,-1,-1,-4
1519732147755924,-1,-4,-7,-3,0,0,5,4
1519732147755924,0,0,-1,-1,-2,3,8,0
1519732147757929,3,3,6,7,2,-2,-13,1
1519732147757929,1,-2,2,-1,0,-1,-1,-3
1519732147778988,0,2,0,0,1,3,17,7
1519732147778988,3,3,1,0,-4,-3,-19,10
1519732147779988,-6,-6,-5,-6,-2,-1,-23,-23
1519732147779988,0,-3,-4,-2,3,1,10,8
1519732147792019,3,4,8,4,-7,-4,14,-2
1519732147792019,-1,2,-5,-3,4,3,6,7
1519732147801043,1,3,-1,2,4,4,4,10
1519732147801043,1,2,-1,-3,1,-2,-13,-4
1519732147816083,-4,-4,-3,0,1,0,1,-7
1519732147816083,4,0,-2,-5,-3,-3,5,13
1519732147817086,-3,0,-4,-3,0,-1,-3,-3
1519732147817086,-3,-4,-4,-1,1,4,7,-5
1519732147838142,0,6,10,2,-3,-10,-29,-3
1519732147838142,0,-1,0,2,0,5,17,-6
1519732147840152,-2,-1,-2,-2,0,0,-9,7
1519732147840152,5,-1,1,-1,-6,-3,21,-4
1519732147852179,0,1,-1,-2,2,-3,-29,0
1519732147852179,1,-1,-2,2,5,4,8,-3
1519732147861204,4,1,3,0,0,4,17,20
1519732147861204,-3,-1,-4,-4,-6,-6,-7,2
1519732147876245,-3,-2,-3,-3,-5,-3,-12,-14
1519732147876245,-2,-2,0,-2,-3,-1,-9,-11
1519732147877251,0,-1,5,2,-1,-1,6,2
1519732147877251,-1,-2,-2,-2,2,3,-6,9
1519732147898302,2,-3,-5,1,10,8,11,9
1519732147898302,-1,1,-1,0,-7,-9,-3,-8
1519732147900308,-2,-1,2,-1,-6,-5,-22,-9
1519732147900308,-2,-2,-3,-1,1,-4,-18,-5
1519732147912341,-1,-5,-8,1,8,8,20,4
1519732147912341,-3,1,1,2,4,3,2,0
1519732147921365,0,1,4,-3,-5,-5,6,0
1519732147921365,-4,-4,-4,-2,-3,-1,-3,-7
1519732147935401,-1,2,-1,-4,-5,0,13,4
1519732147935401,5,4,6,6,1,2,26,11
1519732147942420,-5,-2,-6,-4,-3,-7,-31,-26
1519732147942420,-4,-2,-1,1,0,2,-6,-2
1519732147958462,-2,-2,-2,-1,-5,-1,27,7
1519732147958462,-4,-4,-5,-9,-6,-5,-11,-5
1519732147960477,0,0,-1,7,10,3,-10,-8
1519732147960477,2,2,2,-1,-5,-6,-15,5
1519732147971496,-6,-4,-5,-5,-5,-2,-9,-5
1519732147971496,-4,-4,-1,-2,1,3,2,4
1519732147980521,5,6,5,7,5,1,19,9
1519732147980521,2,5,5,2,3,4,-16,-2
1519732147995560,2,-2,-1,-3,-8,-15,-34,-7
1519732147995560,-5,-7,-7,-6,-6,-5,-7,-7
1519732148001576,-1,-6,-7,-1,3,1,-1,-2
1519732148001576,-2,1,-1,2,2,1,10,6
1519732148018622,1,0,-2,1,1,0,14,5
1519732148018622,3,5,5,4,0,1,-8,3
1519732148019624,-1,2,6,0,-2,-3,-9,-1
1519732148019624,-2,-2,-4,-3,-3,0,2,2
1519732148031656,-7,-6,-3,-4,-5,-1,-9,-21
1519732148031656,0,0,-3,-2,4,-2,9,2
1519732148040681,-1,-5,-2,1,2,4,12,1
1519732148040681,0,1,2,-2,1,0,12,5
1519732148054718,3,-2,0,-1,-2,5,19,7
1519732148054718,2,1,1,1,0,-9,-52,-8
1519732148061740,-2,0,-1,-4,-1,1,4,-2
1519732148061740,0,0,-4,-3,-5,-12,2,-4
1519732148078784,-1,-5,-2,4,2,0,-22,-2
1519732148078784,5,8,6,6,3,3,8,3
1519732148079785,3,4,6,0,-2,0,11,7
1519732148079785,0,-1,-3,0,0,-1,-2,-2
1519732148091816,-1,-1,-3,-4,-2,3,9,12
1519732148091816,-8,-11,-14,-8,-8,-9,-26,-16
1519732148100841,-1,2,9,6,2,0,4,-9
1519732148100841,2,5,8,3,6,8,43,6
1519732148114878,-1,2,4,1,-6,-10,-34,-8
1519732148114878,-6,-6,-6,-5,-3,3,13,-17
1519732148121897,-4,-6,-8,-5,-3,-3,3,3
1519732148121897,-1,-2,-1,2,1,2,-10,-10
1519732148137940,2,3,-1,-1,-2,0,14,4
1519732148137940,0,1,1,-2,-1,-2,4,4
1519732148139948,2,1,-2,-1,0,4,2,11
1519732148139948,-1,2,-1,-1,-1,-10,-40,-22
1519732148161002,-4,-5,0,-1,4,0,2,-5
1519732148161002,3,-2,-5,1,1,5,-2,6
1519732148162007,0,1,-1,-2,-6,-7,5,0
1519732148162007,-1,-6,-4,-1,-2,1,24,16
1519732148175040,-7,-2,-2,-4,2,-6,-37,-12
1519732148175040,-2,0,1,-2,-1,-2,11,-7
1519732148182057,6,9,5,0,-3,-2,-10,0
1519732148182057,-6,-6,-1,-1,-2,1,-3,-3
1519732148199102,3,-4,-3,-2,-2,0,22,11
1519732148199102,2,3,-1,0,3,4,12,4
1519732148200105,-6,-7,-1,0,2,1,6,2
1519732148200105,-2,-2,0,-2,-2,-2,-12,-7
1519732148221162,0,2,0,1,4,4,11,-1
1519732148221162,1,-4,-3,-2,-3,-6,-17,6
1519732148223166,-1,-3,-6,-2,-6,1,22,-11
1519732148223166,0,5,2,-2,0,-3,-33,-5
1519732148235198,4,2,5,6,4,6,16,14
1519732148235198,1,-1,1,0,0,5,-1,6
1519732148242217,-6,-12,-15,-7,-1,-3,1,-8
1519732148242217,-1,1,0,4,-2,-5,-25,-11
1519732148258259,8,16,17,8,-1,1,-6,3
1519732148258259,-1,1,3,0,-2,-1,9,-4
1519732148260285,0,-4,-3,-2,-2,-4,5,19
1519732148260285,-5,-9,-10,-6,3,-4,-2,-12
1519732148280318,-3,-1,-12,-7,-2,-2,-10,-9
1519732148280318,-3,-5,3,2,0,1,-2,1
1519732148282324,-1,2,-2,-3,0,1,6,4
1519732148282324,6,1,0,-2,-1,2,6,9
1519732148294357,-6,1,-1,1,0,-2,-3,-11
1519732148294357,3,4,-1,0,-2,-1,6,15
1519732148303379,1,3,1,1,2,3,-11,-4
1519732148303379,-1,-1,-3,-1,-4,-1,15,8
1519732148318419,-3,-3,-2,-3,-3,0,-6,-1
1519732148318419,-4,-2,-5,-3,-1,-3,-9,-9
1519732148320425,-2,-2,-1,0,1,2,-3,1
1519732148320425,-3,5,0,-3,-9,-8,19,1
1519732148340478,1,-8,-4,2,3,2,17,5
1519732148340478,-2,7,10,4,5,3,-21,-9
1519732148342484,-2,-1,0,0,-5,-6,10,3
1519732148342484,-4,2,2,0,0,5,3,4
1519732148354516,-1,-4,-11,-3,-1,-5,-6,-9
1519732148354516,3,2,-1,-1,-2,1,19,9
1519732148363542,4,2,8,1,0,-1,-11,9
1519732148363542,-6,-6,-6,-2,0,3,10,-2
1519732148378580,-8,-6,-4,-1,-3,-3,13,-1
1519732148378580,-4,-3,-6,-3,-4,1,0,-7
1519732148379583,1,2,1,-2,0,-1,3,0
1519732148379583,4,-1,2,6,6,4,-2,5
1519732148400638,2,2,6,0,-1,0,-17,-5
1519732148400638,-5,0,-2,-3,-2,-2,9,2
1519732148402647,-6,-5,-7,-3,-3,-4,-27,-19
1519732148402647,1,3,1,-1,4,2,20,6
1519732148414675,2,0,-2,-4,-9,-8,-24,-1
1519732148414675,-7,-2,3,-2,-3,4,7,-10
1519732148423700,-1,-7,-4,2,1,0,11,6
1519732148423700,1,-1,-1,-1,-1,-1,-10,6
1519732148438740,0,3,3,1,2,-2,-16,-11
1519732148438740,-1,2,-2,-1,-1,-4,-1,-3
1519732148439742,-4,-1,0,3,-1,3,10,1
1519732148439742,-3,-2,-3,-5,-5,-2,2,-12
1519732148460799,-5,-7,-9,-5,-1,0,22,7
1519732148460799,0,-9,-7,-3,0,-2,-9,-7
1519732148462804,6,9,9,3,3,0,-1,5
1519732148462804,-5,1,5,1,-3,-1,-7,-1
1519732148474835,-3,-5,-2,0,-4,-8,-34,-8
1519732148474835,-4,-1,-2,-3,-2,-1,9,-4
1519732148483860,0,-5,-7,-4,-1,-1,-26,0
1519732148483860,1,2,-3,-4,-6,-8,-7,-8
1519732148497897,3,5,9,3,5,2,10,5
1519732148497897,0,-5,1,2,-2,2,22,5
1519732148499902,-2,3,0,0,-2,-1,-3,-2
1519732148499902,-1,-4,-5,-2,2,2,-8,-6
1519732148520958,-4,-10,-5,-2,0,3,12,-2
1519732148520958,0,0,-6,-1,0,-4,-4,1
1519732148522963,2,4,5,0,-4,3,11,-1
1519732148522963,0,1,3,3,2,0,-5,-1
1519732148533993,1,3,-4,1,3,8,18,2
1519732148533993,3,0,1,2,4,-5,0,5
1519732148544023,-2,-5,-4,-5,-1,-4,-15,-7
1519732148544023,1,0,-3,1,0,-5,-5,5
1519732148558057,-3,-3,0,-1,-2,-4,-10,-6
1519732148558057,1,1,-6,-3,-4,-2,3,1
1519732148560071,-1,-4,8,6,2,4,13,2
1519732148560071,1,3,7,1,3,0,19,7
1519732148581118,2,-3,-3,-3,-3,-4,-6,-2
1519732148581118,-2,-3,-6,-2,0,-3,-1,-1
1519732148582121,0,5,0,1,-2,-3,8,7
1519732148582121,-6,-11,-3,-1,3,-4,-21,-7
1519732148594153,-1,2,-7,-3,-3,-3,-8,2
1519732148594153,-2,0,11,1,-3,3,1,0
1519732148603178,-1,-3,-9,-7,-3,-11,-19,-7
1519732148603178,0,-4,-3,-4,-4,-1,7,-2
1519732148618217,2,3,-3,2,5,7,14,10
1519732148618217,1,0,-1,-4,-2,1,-1,1
1519732148620223,-4,0,3,1,3,5,11,3
1519732148620223,0,0,-2,0,-7,1,-15,-4
1519732148641278,-4,-2,-6,-7,-3,-2,5,-6
1519732148641278,0,-6,-4,0,1,-2,-16,-4
1519732148642281,-1,1,-1,1,2,4,1,2
1519732148642281,0,-1,2,-1,0,6,18,8
1519732148654313,-1,11,5,2,3,-3,-35,-8
1519732148654313,-1,0,-4,-3,-5,-9,-23,-4
1519732148663337,-5,-9,-8,-5,-3,-2,2,-7
1519732148663337,-1,0,-1,0,-2,-1,-4,2
1519732148678377,4,3,11,3,2,2,7,7
1519732148678377,-1,4,3,1,-1,6,15,-1
1519732148680382,-4,-4,-11,-6,1,0,-1,-10
1519732148680382,-4,-10,-3,-3,-2,-2,-8,1
1519732148700436,0,-3,1,1,-7,-5,16,-3
1519732148700436,-5,-4,-6,-5,4,5,-25,0
1519732148702442,2,4,5,6,-4,-5,4,1
1519732148702442,0,2,2,3,3,-5,-28,-7
1519732148714473,-4,-3,-2,-5,-3,0,21,-6
1519732148714473,2,3,6,5,-1,-2,-5,1
1519732148723497,-1,-2,-4,-4,1,-1,-2,1
1519732148723497,-2,-5,-10,-3,-5,-1,10,2
1519732148738538,3,-1,-2,-3,-3,-2,-3,11
1519732148738538,1,2,-2,-5,-3,1,3,-4
1519732148739545,0,3,5,5,2,-8,-4,0
1519732148739545,4,-1,1,3,-2,-2,14,3
1519732148760596,-6,3,5,5,8,6,-16,-3
1519732148760596,-1,1,-5,-1,-5,-3,13,1
1519732148762604,0,-6,-1,-2,-2,1,-10,-4
1519732148762604,-6,-6,-11,-10,1,1,-4,-11
1519732148774633,4,6,7,3,-7,-4,-1,9
1519732148774633,0,-1,7,8,6,-1,2,1
1519732148783658,0,-6,-10,-7,-5,0,-9,4
1519732148783658,-3,1,1,-2,-3,-7,-13,-9
1519732148798697,-3,-7,-12,-9,-1,0,5,0
1519732148798697,1,-1,-1,4,-2,-4,6,2
1519732148799700,4,7,8,1,2,5,15,12
1519732148799700,3,2,0,-1,-1,1,25,19
1519732148821759,-3,-6,-6,0,-2,-10,-65,-22
1519732148821759,0,1,3,-2,-5,4,19,9
1519732148822761,-3,-6,-9,-5,-1,-2,-14,-9
1519732148822761,-1,8,9,2,3,2,0,-13
1519732148834793,2,2,6,5,-3,1,23,9
1519732148834793,0,-7,-11,-4,-3,-3,-10,-4
1519732148843822,-3,-3,-3,-6,1,1,-12,-5
1519732148843822,-1,1,0,1,-4,0,40,5
1519732148858857,0,2,1,-1,3,3,1,-11
1519732148858857,0,0,3,-2,-3,-11,-13,1
1519732148859864,-1,1,2,1,3,2,8,4
1519732148859864,-3,-3,-5,-2,0,-4,-18,-10
1519732148880916,0,1,-7,0,0,3,25,9
1519732148880916,1,-3,-1,-3,2,-2,-17,2
1519732148882921,3,6,12,5,-2,-2,-31,-12
1519732148882921,0,-1,-1,1,-2,-3,8,13
1519732148894953,-3,-5,-4,-7,-4,-2,-14,-7
1519732148894953,-4,-4,-7,-8,-4,1,-2,-4
1519732148903981,0,-2,-8,1,2,-4,12,9
1519732148903981,-2,4,4,-3,-5,-1,-14,-14
1519732148918015,1,0,7,5,6,3,14,10
1519732148918015,0,-1,-2,3,2,4,15,1
1519732148924030,-2,-1,0,0,-7,-3,-7,-3
1519732148924030,1,-8,-6,-5,0,2,10,9
1519732148941076,3,15,4,0,-1,-5,-29,-11
1519732148941076,-6,-11,2,-1,0,2,10,0
1519732148942087,-3,-2,-7,-3,-3,0,3,-7
1519732148942087,3,0,1,4,3,3,5,7
1519732148954111,-2,-5,-10,-7,-3,1,-1,-1
1519732148954111,2,3,7,6,12,2,-11,-8
1519732148963134,1,6,4,3,-7,-4,2,-1
1519732148963134,-2,3,7,4,-1,3,3,-4
1519732148978174,2,-6,0,1,5,4,26,14
1519732148978174,1,4,-5,-1,-2,-11,-19,0
1519732148984190,-7,-8,-12,-10,-6,-3,6,-5
1519732148984190,4,0,0,1,4,4,2,-4
1519732149001236,0,2,7,4,-2,0,5,6
1519732149001236,0,-2,0,1,0,4,5,1
1519732149002239,2,3,7,2,1,1,-3,-3
1519732149002239,-4,-4,-6,-3,-5,-5,-17,-6
1519732149014270,-2,-8,-7,-6,-1,-7,-25,-2
1519732149014270,-2,4,0,-2,-7,1,19,-3
1519732149023295,-3,-6,-1,2,3,-6,-6,-7
1519732149023295,2,4,4,0,1,4,11,7
1519732149037332,-2,-5,-3,0,1,3,9,9
1519732149037332,1,2,-6,-2,-5,-3,1,-3
1519732149044351,2,0,3,1,0,-1,12,11
1519732149044351,-2,2,4,2,-2,-6,-22,-8
1519732149060398,-2,1,-2,1,3,-2,4,-10
1519732149060398,-1,-4,-4,-4,-7,-6,-5,3
1519732149062399,-4,-7,-10,-6,1,2,3,-7
1519732149062399,2,6,6,0,2,-1,-10,2
1519732149074430,-1,3,11,4,-2,-1,-9,-7
1519732149074430,-1,-2,-6,-1,2,1,-6,-9
1519732149083455,3,-1,2,-1,1,9,38,14
1519732149083455,-4,-5,-10,-4,-4,-11,-64,-21
1519732149097496,-1,2,0,0,-2,0,5,2
1519732149097496,-3,-3,0,0,0,0,-3,0
1519732149104511,0,0,4,2,-1,-2,-2,-2
1519732149104511,1,2,0,-2,0,5,18,1
1519732149121557,1,2,2,2,-2,-3,-1,-3
1519732149121557,0,0,1,0,5,-1,0,-7
1519732149123562,0,1,-3,-1,-2,3,-25,-6
1519732149123562,-4,-8,-7,-2,-5,-7,23,3
1519732149143618,1,-1,-4,-2,2,0,5,1
1519732149143618,1,-1,8,4,-1,7,31,9
1519732149144617,2,0,-3,-2,-5,-8,-56,-21
1519732149144617,-1,0,0,-2,1,-6,-13,-1
1519732149157652,-7,-8,-3,-4,-1,3,12,-10
1519732149157652,0,3,1,-1,-4,-1,11,11
1519732149164670,-3,2,0,-3,-2,-1,8,-10
1519732149164670,-1,-1,-5,-1,0,3,6,9
1519732149180713,3,-2,-1,-4,-4,-4,-4,1
1519732149180713,-3,-1,-2,0,5,2,0,-2
1519732149182719,1,-2,3,-2,-4,6,17,4
1519732149182719,-3,-1,-4,-1,2,-2,-9,-8
1519732149203775,-2,-3,-3,1,-1,0,25,6
1519732149203775,-1,-3,-3,-3,-3,-4,-23,-14
1519732149206782,3,-3,-4,0,-2,-1,13,13
1519732149206782,-1,2,-6,-6,-2,6,9,3
1519732149216809,-3,-1,1,1,-1,-1,-11,-1
1519732149216809,-2,-2,-5,-2,-2,-3,9,1
1519732149225834,-2,-3,-3,-1,2,-3,-12,-4
1519732149225834,-3,2,4,0,4,4,3,-2
1519732149240877,2,1,0,0,-10,-2,-7,4
1519732149240877,-4,-2,-5,-2,-3,-2,1,-4
1519732149242882,5,4,3,2,0,1,12,12
1519732149242882,0,-3,6,6,2,2,-1,1
1519732149262932,3,1,-5,-5,1,3,3,7
1519732149262932,-5,-3,-4,-4,-4,3,1,-4
1519732149264938,-3,-4,-4,-5,-6,-4,7,1
1519732149264938,1,0,-1,4,2,-2,-10,-4
1519732149276972,-2,-2,-1,1,3,0,13,8
1519732149276972,2,-1,1,-1,-6,0,0,-7
1519732149293017,-4,2,2,1,5,-4,-33,-12
1519732149293017,-2,-1,0,-3,-5,-1,23,6
1519732149301034,-2,-4,-7,-2,-2,-3,-3,-5
1519732149301034,4,2,7,4,5,0,-5,-1
1519732149302036,-2,4,1,1,0,5,11,5
1519732149302036,1,-6,-4,0,-1,-8,-23,-11
1519732149323092,0,-5,-5,-3,-5,1,9,6
1519732149323092,-4,-1,-1,-2,0,-7,-31,-5
1519732149325097,3,3,7,1,-1,1,8,6
1519732149325097,0,-3,-1,1,-1,5,11,7
1519732149337130,-3,-1,-5,-2,1,2,3,-4
1519732149337130,-1,-5,1,-2,-2,-7,-3,-1
1519732149346154,-4,1,-6,-4,-3,-2,-13,-3
1519732149346154,-2,-2,-2,1,8,5,18,-6
1519732149361193,-2,0,-1,-5,-10,-6,-13,-7
1519732149361193,3,2,-3,-1,-3,1,13,16
1519732149362196,0,0,-2,4,0,-2,19,-4
1519732149362196,0,5,6,2,-3,0,-6,-4
1519732149383252,-1,1,0,1,1,-8,-22,1
1519732149383252,0,0,0,0,2,2,-14,-9
1519732149385258,1,-3,-5,-1,-2,0,9,0
1519732149385258,-1,-2,-5,-2,-5,-1,3,0
1519732149397289,-8,-4,0,0,4,4,7,-16
1519732149397289,4,1,-1,-3,-4,2,21,6
1519732149406313,-3,1,0,-3,2,-8,-32,-8
1519732149406313,-1,-2,1,-1,-2,7,19,3
1519732149421356,1,-1,1,0,-1,-2,1,6
1519732149421356,7,2,-3,2,2,0,20,3
1519732149423359,-5,-1,3,1,0,-1,13,-13
1519732149423359,-2,-6,-5,-3,-2,-7,-29,-2
1519732149443416,0,2,-2,-2,0,3,2,1
1519732149443416,-8,-2,0,0,-1,-9,-24,-14
1519732149445417,-1,-4,-2,2,3,4,16,3
1519732149445417,0,0,-2,-4,-3,-5,-11,6
1519732149457450,1,0,1,4,0,2,2,-6
1519732149457450,0,1,-2,1,0,-1,-6,1
1519732149466473,1,-3,0,1,0,0,15,10
1519732149466473,-4,-3,-5,-2,0,-3,-2,1
1519732149480510,2,-3,-3,-6,-5,0,-5,-12
1519732149480510,-2,2,6,2,-5,-7,-20,-7
1519732149482516,9,5,6,8,11,13,13,9
1519732149482516,1,3,2,0,-4,-5,12,11
1519732149503572,-1,-1,-4,-3,-4,-3,-32,-2
1519732149503572,-4,-6,-7,-6,-6,-1,7,-8
1519732149509594,-4,-2,-2,-4,0,-3,0,-15
1519732149509594,1,0,-3,1,-1,-3,-24,-8
1519732149516606,0,2,5,3,-1,-1,5,-7
1519732149516606,4,2,0,0,2,2,5,14
1519732149526642,1,-2,-2,-3,-5,0,14,12
1519732149526642,0,1,1,-1,2,1,-14,0
1519732149540672,-1,-3,-2,-2,-1,-2,-4,-4
1519732149540672,2,7,6,1,1,0,-4,5
1519732149542682,-6,-5,-6,-5,-4,0,0,0
1519732149542682,-1,-4,-6,-3,-4,-2,4,3
1519732149563732,-1,-3,-1,-1,-3,-1,-8,3
1519732149563732,-3,-5,-5,1,1,-1,26,4
1519732149564735,3,6,2,2,0,-3,-20,8
1519732149564735,0,0,-4,-5,-7,-3,2,-12
1519732149576769,-8,1,2,1,1,1,17,0
1519732149576769,3,0,0,-1,1,11,13,2
1519732149585791,-2,-4,-4,-1,-5,-17,-49,-18
1519732149585791,4,2,2,1,1,3,5,10
1519732149600831,1,0,0,-1,1,-3,-18,-6
1519732149600831,-3,-2,-3,-4,-3,3,20,8
1519732149602837,1,-4,-5,-3,-2,-2,0,3
1519732149602837,-4,-1,-2,-3,7,3,6,-7
1519732149622889,3,3,1,1,-14,-7,2,0
1519732149622889,1,4,4,4,5,-1,-16,-10
1519732149624895,-4,-4,0,-3,-2,-1,-4,-7
1519732149624895,-2,-3,-2,-1,-5,-2,8,-3
1519732149636927,-6,-2,-4,-2,9,6,26,4
1519732149636927,-2,-1,-8,-3,-2,-2,-29,-17
1519732149645951,-3,-8,-1,1,-4,-10,-44,-3
1519732149645951,-5,2,1,0,-1,3,12,-8
1519732149660991,4,1,-5,2,5,3,8,15
1519732149660991,2,8,16,4,-3,0,-10,-2
1519732149661994,1,1,-3,-1,5,10,29,5
1519732149661994,1,-2,0,2,-3,-4,-19,3
1519732149683050,2,-3,-3,-5,-4,-4,-15,2
1519732149683050,-4,-4,-7,-4,-2,-9,-1,0
1519732149685056,3,3,0,0,2,8,13,4
1519732149685056,1,-2,-4,-2,-5,-3,-3,7
1519732149697087,0,0,7,3,1,1,8,7
1519732149697087,-5,-5,-4,-3,-1,-1,-13,-15
1519732149706111,4,4,0,0,-2,-2,9,7
1519732149706111,0,-1,-5,1,0,1,6,1
1519732149719146,2,5,4,-4,-6,-5,-5,-6
1519732149719146,-2,-8,-2,0,2,5,6,1
1519732149728169,-1,1,3,2,-5,-7,6,2
1519732149728169,0,-1,-2,1,2,2,13,-7
1519732149743238,-1,-4,-2,0,-3,-2,-17,-5
1519732149743238,3,5,-5,0,-1,2,37,14
1519732149745215,-7,-4,3,-4,-3,-3,-15,-5
1519732149745215,-1,1,2,1,1,4,6,-7
1519732149757248,-3,-1,-1,-1,-1,-1,11,5
1519732149757248,0,-2,-6,-2,-2,3,-7,2
1519732149766271,-2,-5,-2,0,-4,-5,10,3
1519732149766271,-3,1,1,-2,-6,-6,-20,-9
1519732149781311,-3,-3,-3,1,4,2,-3,-3
1519732149781311,0,1,1,1,1,-2,9,5
1519732149782316,-2,-6,-7,-5,0,1,-32,-11
1519732149782316,0,-2,-1,-5,-3,-4,3,6
1519732149803370,0,2,5,6,3,-7,-20,-9
1519732149803370,1,3,5,0,3,2,-9,2
1519732149805376,-2,-1,-4,-5,-4,0,5,2
1519732149805376,0,-2,-1,-1,3,2,-1,-1
1519732149817407,1,0,-4,-3,1,-5,8,-1
1519732149817407,-1,-6,-4,-2,-3,-4,-3,3
1519732149826440,4,-1,-2,0,-2,-1,-6,3
1519732149826440,1,4,0,-2,0,4,9,-3
1519732149840469,-6,-7,3,-2,-3,4,15,6
1519732149840469,-3,-2,-7,-4,-5,-5,3,-16
1519732149846485,1,2,-2,-2,0,1,16,5
1519732149846485,2,6,7,3,0,-4,-28,-2
1519732149863529,-1,-5,-6,-1,1,0,-2,1
1519732149863529,-10,-6,-3,-5,-5,-3,-2,-11
1519732149864532,1,3,-3,-3,-1,3,3,-6
1519732149864532,1,3,2,3,1,-5,-2,0
1519732149877567,4,2,1,1,6,9,15,11
1519732149877567,-4,-4,-3,-2,-1,-4,-23,-7
1519732149885589,-2,1,-3,-3,-4,-11,1,-7
1519732149885589,-2,-3,-2,-2,-3,4,33,7
1519732149900629,4,1,-3,1,4,-2,-4,-5
1519732149900629,-2,0,-1,0,-5,-8,-19,3
1519732149907647,-6,-3,-1,0,3,6,4,2
1519732149907647,-1,-4,-3,-2,-2,-5,-19,-13
1519732149923689,2,4,3,-1,-3,-1,13,6
1519732149923689,2,3,5,3,2,3,4,1
1519732149924692,1,-2,-2,1,5,8,16,4
1519732149924692,-3,-3,-2,-2,-3,-11,-13,3
1519732149936725,-1,0,-4,0,-1,1,11,-12
1519732149936725,0,1,8,3,0,-8,-44,-9
1519732149945748,-1,0,1,-1,-2,3,6,0
1519732149945748,3,-1,-2,-1,5,5,5,5
1519732149960789,-4,-3,-6,-6,-4,-6,-8,-9
1519732149960789,2,-2,-2,-3,-2,-2,-1,1
1519732149966804,0,0,0,1,-2,-6,-16,-3
1519732149966804,-1,-1,-4,-2,-4,-1,13,-7
1519732149983849,-1,-2,-3,-3,-2,0,-9,4
1519732149983849,2,2,3,2,-1,-2,21,3
1519732149984853,2,4,5,1,3,2,9,6
1519732149984853,-1,-2,-2,-1,5,12,18,-2
1519732149996884,-4,-3,-3,-1,-8,-13,-52,-12
1519732149996884,-2,-2,-4,-5,0,-1,-13,1
1519732150006911,-2,-1,-4,0,-3,0,7,0
1519732150006911,-1,-2,-1,-3,-2,4,16,3
1519732150019946,1,3,6,1,2,2,-2,3
1519732150019946,1,-2,-2,1,0,-2,-7,-1
1519732150026968,3,-1,-1,-2,0,5,23,4
1519732150026968,-9,-4,-3,-2,-3,-15,-83,-22
1519732150044011,4,-3,-6,-1,-1,11,41,16
1519732150044011,-2,1,2,2,-7,-6,-6,-4
1519732150045013,4,7,11,4,4,1,-5,-2
1519732150045013,-1,-4,-3,-2,-3,1,3,6
1519732150066068,-1,-2,-5,-10,0,0,8,-8
1519732150066068,2,-1,-5,0,4,4,26,10
1519732150068076,-3,-1,-1,6,2,-4,-28,-17
1519732150068076,-2,3,5,-3,-6,-3,22,-1
1519732150080106,-6,-1,0,-3,-5,-4,-6,-6
1519732150080106,2,-2,-11,-2,6,12,30,11
1519732150087124,0,1,8,-2,-5,-10,-15,0
1519732150087124,2,4,6,5,1,3,0,-5
1519732150103167,0,-3,-5,3,2,1,5,-2
1519732150103167,-6,-3,-9,-5,-4,-3,-6,-4
1519732150105173,-4,-3,-1,-6,-5,1,6,1
1519732150105173,-1,-3,-12,-6,-2,0,2,0
1519732150126233,9,13,23,18,11,0,5,5
1519732150126233,0,2,10,8,3,4,5,0
1519732150127234,-2,-6,-6,-6,-2,1,-18,-2
1519732150127234,-4,-7,-6,-5,-4,-3,-5,4
1519732150140266,-10,-11,-17,-13,-3,-8,-29,-15
1519732150140266,2,3,2,2,-2,4,18,2
1519732150147284,-1,0,2,1,-1,-3,-20,-13
1519732150147284,5,2,1,1,1,-2,8,11
1519732150163327,1,0,-1,0,-1,3,12,4
1519732150163327,0,0,5,-2,-2,-3,-5,0
1519732150165333,-1,-2,-4,0,-2,2,18,2
1519732150165333,0,-3,-10,-3,0,6,6,2
1519732150186388,-7,-13,-4,-2,-9,-22,-16,-9
1519732150186388,-2,8,8,-4,-1,3,7,8
1519732150187391,1,-4,-8,-6,-4,-2,8,6
1519732150187391,6,14,13,14,9,1,-13,-6
1519732150199423,6,9,11,1,2,6,-3,0
1519732150199423,0,-7,-11,-5,-1,5,54,6
1519732150208449,-5,-1,0,1,-4,-8,-43,-20
1519732150208449,0,-2,3,0,-2,0,15,7
1519732150223487,-6,-6,-5,-2,1,0,-7,-6
1519732150223487,-3,-6,-7,-8,-6,-4,-9,-1
1519732150225495,7,3,-12,1,2,4,13,5
1519732150225495,-3,-6,11,2,-1,1,9,4
1519732150245545,0,13,3,4,-4,3,2,-1
1519732150245545,0,-1,2,2,3,-11,-29,-3
1519732150247551,1,-4,-6,-4,2,2,8,11
1519732150247551,-1,2,-6,-8,-8,-6,-19,-14
1519732150260618,-6,-10,-4,0,6,1,3,-3
1519732150260618,-2,-5,-9,-3,-1,-2,-20,-10
1519732150268608,0,11,12,3,-2,1,18,6
1519732150268608,2,-5,-1,-3,2,1,10,2
1519732150283647,-3,0,0,-2,-5,-3,-19,-6
1519732150283647,-1,-5,-12,-3,1,-2,-14,-12
1519732150284650,-6,-9,1,2,-1,0,11,-2
1519732150284650,-2,8,4,2,-4,0,11,8
1519732150305706,2,-2,-3,-3,-1,10,37,9
1519732150305706,-1,-3,3,2,2,-6,-35,-5
1519732150308718,0,-1,-11,-6,-9,-8,-13,-1
1519732150308718,-3,-3,3,6,5,0,-13,-13
1519732150319743,3,2,0,-2,-3,3,-2,0
1519732150319743,1,4,6,4,0,2,14,2
1519732150328768,-5,-13,-11,-5,2,1,6,4
1519732150328768,-4,-17,-18,-9,-6,-10,-14,-9
1519732150343808,2,18,15,2,-1,-2,-4,8
1519732150343808,2,-2,5,0,-1,2,-2,-2
1519732150344810,0,1,-3,-1,4,3,6,-1
1519732150344810,-5,-8,3,4,3,2,2,-1
1519732150365866,-2,-12,-16,-7,-9,-7,5,-4
1519732150365866,2,15,16,5,2,-2,-3,1
1519732150367871,-1,-4,-3,0,0,3,5,1
1519732150367871,0,4,1,0,1,1,5,7
1519732150379903,-1,-11,-12,-9,4,1,-6,0
1519732150379903,-2,-4,-1,3,-5,-2,-2,-16
1519732150386923,3,2,-2,1,1,-2,1,0
1519732150386923,-1,3,7,2,2,5,25,2
1519732150402984,-1,4,-4,-4,-3,-5,-28,-5
1519732150402984,-7,-21,-17,-4,-3,0,9,-5
1519732150404970,5,22,18,2,0,-3,-20,-5
1519732150404970,6,0,-2,4,0,2,14,18
1519732150426026,0,-3,-2,2,0,5,-12,-11
1519732150426026,0,-5,-7,-5,-3,4,16,11
1519732150427032,-6,-6,-1,-1,-3,-5,-16,-17
1519732150427032,1,3,0,-2,2,0,0,6
1519732150440063,2,2,5,10,1,-2,9,6
1519732150440063,1,2,5,-3,-2,4,0,1
1519732150447082,0,-2,-1,-1,2,6,36,17
1519732150447082,-3,-5,-10,-5,-6,-13,-55,-31
1519732150463124,-7,-9,4,-2,-5,-7,-10,1
1519732150463124,0,15,10,3,2,3,-2,-4
1519732150465130,1,-1,0,1,-2,2,12,4
1519732150465130,-5,-3,-2,-5,-2,5,23,8
1519732150486186,1,-7,-7,-5,-4,-11,-10,-5
1519732150486186,0,5,-5,-5,-4,-2,-3,-7
1519732150487189,-2,-6,3,3,2,0,-16,7
1519732150487189,-3,-1,-3,5,2,2,2,-8
1519732150500223,4,10,5,0,0,3,-1,2
1519732150500223,-3,-7,-2,-1,3,3,17,9
1519732150507242,-1,-2,-5,0,-5,-6,-10,-6
1519732150507242,-4,-1,1,-6,-2,-2,-2,-5
1519732150523285,-3,-8,-8,-3,-2,-1,3,3
1519732150523285,2,3,-4,-3,0,-1,-1,3
1519732150525292,-3,-2,1,-2,-2,-1,3,-6
1519732150525292,3,3,4,3,-1,-7,7,14
1519732150546346,-5,-4,-1,1,0,-2,-8,-18
1519732150546346,-3,-5,-7,-4,-4,-1,4,1
1519732150547349,-3,0,1,2,5,0,1,1
1519732150547349,6,3,-3,-5,-3,1,5,9
1519732150559381,2,-1,-2,1,4,4,17,11
1519732150559381,1,-3,0,-1,-2,-6,-24,-7
1519732150568406,0,1,-8,-5,-1,-2,11,-1
1519732150568406,4,7,9,8,5,5,-15,0
1519732150583445,-2,-1,-1,-4,-3,0,13,2
1519732150583445,-3,-3,-5,-2,-4,-4,-1,4
1519732150585451,2,6,7,0,0,1,-1,-1
1519732150585451,1,-5,-2,0,1,4,25,7
1519732150605503,0,2,0,-1,-3,1,-10,-3
1519732150605503,0,-5,-4,-2,-2,-4,4,5
1519732150608514,-4,1,0,-3,-3,-4,-21,-5
1519732150608514,-5,-4,-12,-4,-1,-2,-2,-19
1519732150619541,3,6,12,4,1,6,20,5
1519732150619541,1,-1,-2,1,1,-2,5,0
1519732150628565,-1,-2,-2,0,-3,1,-4,3
1519732150628565,6,4,0,-2,-3,-3,1,20
1519732150643608,-4,-4,-4,-1,-1,-2,-3,-6
1519732150643608,-1,2,2,-1,-2,-6,-12,-10
1519732150644608,-3,-2,-2,2,2,2,1,-1
1519732150644608,2,1,1,2,0,0,7,-3
1519732150665663,-2,2,3,-1,-2,-4,-25,-4
1519732150665663,4,1,4,3,-1,-2,16,14
1519732150667669,-6,-3,-5,-3,-4,-5,-10,-11
1519732150667669,-6,-9,-8,-5,2,-1,6,-3
1519732150679701,0,1,-1,1,-1,0,12,0
1519732150679701,2,4,6,1,2,4,3,0
1519732150688725,1,0,6,2,-4,0,-4,0
1519732150688725,0,-2,-4,-1,-3,-4,-8,1
1519732150703765,1,-3,-6,-4,0,-3,-2,1
1519732150703765,-6,-2,1,-3,4,3,-6,-2
1519732150704767,2,-3,-6,0,2,0,0,-5
1519732150704767,-7,0,0,-2,-7,-7,-19,-10
1519732150725823,-2,0,0,-1,0,3,8,-5
1519732150725823,-1,-4,-3,-1,-2,-6,-14,1
1519732150727830,-2,-2,-3,-4,2,-2,-1,-7
1519732150727830,2,2,-1,0,3,3,-2,7
1519732150739862,-4,-8,-5,-4,1,-3,7,-3
1519732150739862,-2,2,2,6,4,-2,-13,-7
1519732150748885,1,8,0,0,2,3,15,7
1519732150748885,-1,-4,0,-4,-6,-4,-6,-2
1519732150762922,0,7,-1,-2,-3,-1,-7,3
1519732150762922,2,-8,-2,0,-3,3,9,-1
1519732150764928,-1,1,1,0,-1,-4,-1,-3
1519732150764928,0,-1,-5,0,4,3,-13,-6
1519732150785984,2,-1,0,1,-2,0,32,16
1519732150785984,-3,0,-2,-4,-2,-3,-29,-15
1519732150786986,3,1,-1,2,0,1,19,0
1519732150786986,-5,-1,-1,-5,-5,-3,5,12
1519732150799018,-2,-5,-1,-3,0,-4,-23,-18
1519732150799018,2,0,-3,-1,6,9,10,11
1519732150808042,-5,-9,-3,0,0,-4,-8,-6
1519732150808042,4,8,6,3,1,2,12,3
1519732150823082,-1,2,2,-2,-6,-3,4,-1
1519732150823082,1,-6,-9,-6,-9,0,1,5
1519732150829098,0,2,2,-1,6,5,-10,4
1519732150829098,1,1,5,4,-1,-10,-9,-3
1519732150846144,3,3,-4,1,-1,1,-2,5
1519732150846144,-5,3,5,0,-3,-4,0,-11
1519732150847147,-5,-8,-6,-5,-6,-2,5,1
1519732150847147,-1,-2,-7,-3,9,5,-7,2
1519732150859179,-7,-6,-3,-1,-8,-6,16,0
1519732150859179,3,2,0,-4,-7,-4,-3,3
1519732150868202,1,2,-1,1,2,-4,14,2
1519732150868202,-8,-6,1,0,0,7,6,-9
1519732150882240,3,-2,-1,5,4,4,4,10
1519732150882240,-7,-5,-6,-2,0,-9,-60,-11
1519732150889258,-2,-2,-3,-5,-6,-4,-2,-13
1519732150889258,5,8,10,4,2,5,-7,1
1519732150906303,-1,5,3,-3,-2,-10,-18,-8
1519732150906303,3,3,3,3,-1,3,26,14
1519732150909313,-8,-7,-6,-6,-4,-4,-14,2
1519732150909313,1,-5,-9,-3,-1,-2,-4,-9
1519732150919339,-3,2,1,2,4,3,14,-2
1519732150919339,-2,-1,-1,-6,-6,-1,21,-2
1519732150928362,0,0,-2,1,5,4,4,0
1519732150928362,10,5,4,0,0,-5,-30,11
1519732150943406,-3,1,6,2,2,8,2,-15
1519732150943406,10,5,3,2,3,-2,0,13
1519732150949418,-12,-7,-5,-3,-2,4,-1,-27
1519732150949418,-12,-7,-6,-5,-9,-8,18,-8
1519732150965460,5,-2,-3,-1,2,4,4,15
1519732150965460,12,2,0,0,2,7,41,37
1519732150967466,-16,1,5,3,-1,-15,-61,-41
1519732150967466,1,3,0,-2,-2,3,18,-3
1519732150979498,12,-2,-6,-4,4,7,-29,16
1519732150979498,-18,-6,-2,1,3,-5,21,-14
1519732150988522,9,-1,2,2,-10,-3,4,15
1519732150988522,0,-1,-6,-5,-7,-10,-11,-9
1519732151002560,-3,1,8,0,-1,2,7,0
1519732151002560,3,1,6,2,4,5,-12,1
1519732151009606,9,8,4,5,3,-3,-3,9
1519732151009606,-6,-6,-6,-1,-4,-3,13,-9
1519732151025621,1,0,-10,-5,-5,-5,-16,-1
1519732151025621,-15,-6,-5,-5,-1,-3,-31,-30
1519732151027628,8,7,9,1,1,8,33,20
1519732151027628,4,4,1,3,-1,-5,-11,14
1519732151048684,-10,-6,-4,1,1,-2,0,-20
1519732151048684,-6,-3,-6,-2,-4,-7,3,-13
1519732151049685,3,1,-4,-2,4,16,28,11
1519732151049685,15,2,4,3,6,5,-9,10
1519732151062719,-4,0,3,2,2,-8,-47,-15
1519732151062719,-1,-3,-2,-1,-5,-6,-15,-3
1519732151069743,-4,-5,-5,-2,0,1,6,1
1519732151069743,0,-5,0,-2,-2,2,7,4
1519732151085782,-2,0,-2,-5,-3,3,32,9
1519732151085782,4,3,3,0,3,9,-6,-4
1519732151087789,3,1,3,-3,-5,-19,-29,13
1519732151087789,-11,-3,-1,3,3,3,-1,-20
1519732151107839,0,-3,-5,-3,-5,-11,-12,16
1519732151107839,-7,-3,-3,-3,-1,10,35,-14
1519732151109848,-3,-5,-4,-2,2,-6,-63,-20
1519732151109848,2,1,1,-1,0,-3,-18,4
1519732151121877,5,3,4,4,-1,1,5,7
1519732151121877,7,0,-4,-5,-4,-2,32,15
1519732151130901,-5,-4,-1,2,4,6,-7,-20
1519732151130901,-4,-7,-7,-5,-9,-4,18,9
1519732151145941,2,-3,-6,-3,0,8,-29,-4
1519732151145941,1,3,4,4,3,-13,-25,0
1519732151147946,3,1,4,1,-2,-7,-27,-5
1519732151147946,-3,-2,-1,1,1,14,39,14
1519732151167999,-2,-2,-5,-6,-4,7,46,13
1519732151167999,-10,-6,-7,-8,-6,-13,-57,-50
1519732151170006,10,3,4,4,2,8,59,43
1519732151170006,-8,0,0,3,2,-4,-47,-34
1519732151182037,-4,1,3,-2,-8,-23,-63,-16
1519732151182037,-2,-3,-4,-2,1,6,-2,-8
1519732151191061,0,-3,-4,1,0,3,4,3
1519732151191061,-3,-1,0,-8,-3,2,20,-1
1519732151207104,-4,-1,-2,1,2,0,29,-7
1519732151207104,5,2,0,-1,0,-1,4,17
1519732151209109,-3,-4,-3,-1,2,-5,-6,-9
1519732151209109,6,6,8,5,-1,8,27,21
1519732151228160,-11,-3,-4,-5,-3,-15,-57,-60
1519732151228160,0,1,1,1,1,8,-3,2
1519732151234176,3,-2,-5,-2,-2,1,38,23
1519732151234176,-5,-2,-5,-6,0,-3,-15,-2
1519732151243203,0,-1,3,-1,1,5,8,-6
1519732151243203,0,3,4,8,1,-5,-12,3
1519732151249216,0,-2,-4,-3,5,19,21,0
1519732151249216,3,1,-6,-1,-1,-9,2,5
1519732151266261,-1,5,14,7,3,9,-19,-4
1519732151266261,1,-3,-8,-6,-6,-5,25,21
1519732151267264,-2,2,2,-1,-3,8,16,-1
1519732151267264,-3,-1,-1,-1,-5,-14,-8,-16
1519732151288320,0,-5,-6,-2,-1,1,28,11
1519732151288320,2,1,3,3,2,6,-4,-2
1519732151290325,-6,-3,-2,-4,-6,-17,-44,-11
1519732151290325,0,-4,-4,-9,-1,5,15,6
1519732151302357,1,2,0,3,0,-1,12,7
1519732151302357,0,3,7,3,-4,-2,6,3
1519732151309379,0,0,1,-1,0,0,-18,-6
1519732151309379,-5,-5,-6,0,5,0,-7,-5
1519732151326423,4,-3,-7,-3,-1,2,30,18
1519732151326423,3,1,0,-4,2,8,17,17
1519732151327424,2,4,4,2,-10,-12,-10,-3
1519732151327424,-2,3,7,5,4,1,-14,-6
1519732151348480,-3,-2,1,3,-3,-2,34,6
1519732151348480,-3,-4,-8,-5,6,1,-10,-6
1519732151350485,-3,-6,-5,-8,1,-1,-22,-12
1519732151350485,-1,-4,-14,-5,-12,0,4,0
1519732151362517,9,9,21,4,7,7,7,24
1519732151362517,-2,-2,-6,4,3,0,15,-10
1519732151369537,-8,-1,3,-4,-5,-5,-22,-28
1519732151369537,0,0,-1,-1,4,-1,1,8
1519732151385578,-2,-2,-10,-3,9,10,-5,-5
1519732151385578,1,4,9,1,-14,-18,-11,-17
1519732151387584,2,1,0,-3,-11,-2,41,18
1519732151387584,-10,-6,-6,-4,-4,-5,-49,-29
1519732151408643,3,1,-1,-2,-2,-1,16,5
1519732151408643,-4,-2,1,-1,8,10,12,10
1519732151409645,1,-3,-4,2,3,0,-7,-1
1519732151409645,-3,-4,-3,1,-1,-2,1,-2
1519732151423680,2,1,1,-1,-2,5,15,6
1519732151423680,4,10,5,2,-6,-1,-34,-4
1519732151429696,-4,0,5,5,3,-5,-22,0
1519732151429696,1,5,7,2,5,1,-17,-1
1519732151445738,-15,-20,-21,-10,-10,-9,-27,-23
1519732151445738,-3,-10,-21,-5,-2,-3,10,12
1519732151447746,10,22,25,3,-5,-3,0,4
1519732151447746,6,8,13,4,3,6,20,4
1519732151468801,-10,-11,-9,-5,-6,-7,-9,0
1519732151468801,-6,-8,-2,-4,-5,-3,-14,-13
1519732151469803,-4,-13,-20,-8,5,8,18,8
1519732151469803,3,-6,-8,2,1,3,28,14
1519732151482837,7,18,12,2,0,-8,-10,-15
1519732151482837,2,5,9,2,0,2,3,-1
1519732151489856,-1,4,5,1,2,0,9,5
1519732151489856,0,-2,1,0,2,0,13,6
1519732151505898,-2,-5,-8,-4,-7,-7,-17,1
1519732151505898,-4,-11,-9,-7,-1,-1,-8,-3
1519732151508907,0,1,-9,-1,0,-1,-5,-13
1519732151508907,-1,4,16,-1,-10,-9,-5,4
1519732151528960,1,0,4,6,5,8,13,-2
1519732151528960,1,4,3,1,2,-2,2,6
1519732151529963,-8,-12,-9,-7,0,-2,-13,-1
1519732151529963,-4,-7,-20,-12,-4,-3,-12,-15
1519732151541998,8,10,14,10,3,3,4,10
1519732151541998,-5,-1,7,3,-3,-1,8,1
1519732151551023,-2,-8,-8,2,7,5,11,1
1519732151551023,-2,-2,0,-1,0,3,2,4
1519732151566059,1,-4,-5,-3,-2,0,2,-2
1519732151566059,2,0,-2,-1,-3,-9,-13,-6
1519732151567061,-1,1,3,1,-2,-3,12,1
1519732151567061,0,-2,-3,-1,-4,-10,-32,-9
1519732151588117,2,4,7,0,0,2,23,6
1519732151588117,-1,0,0,4,2,1,0,7
1519732151590123,-8,-8,-10,-5,-1,-1,2,-12
1519732151590123,-2,-2,-2,-4,0,0,-11,-9
1519732151602154,1,0,-2,3,0,2,-2,1
1519732151602154,4,5,3,-3,0,-1,11,16
1519732151611180,-3,-2,-1,2,-2,-6,-9,-22
1519732151611180,2,4,1,2,1,3,4,11
1519732151626221,-5,-3,-1,-3,-2,-1,-5,-14
1519732151626221,-1,-1,-2,-4,-3,-2,-7,-6
1519732151627221,2,-3,-7,-4,-5,5,2,3
1519732151627221,-5,-2,1,0,-1,-12,-14,-9
1519732151648277,-1,-1,-3,-4,2,2,-5,1
1519732151648277,3,3,-1,2,1,4,10,0
1519732151650283,4,3,5,1,-3,-2,-20,7
1519732151650283,-2,0,4,6,4,3,12,-1
1519732151662315,1,0,-3,2,0,1,-9,1
1519732151662315,-2,0,2,-1,-3,-5,0,-8
1519732151671346,3,-3,-5,-4,-3,2,11,19
1519732151671346,-6,-6,-8,-6,-1,-3,-18,-4
1519732151686382,-2,-3,-5,-4,-5,-5,-3,-6
1519732151686382,7,10,10,11,11,11,8,9
1519732151687382,-3,-1,2,-3,-1,0,6,-9
1519732151687382,2,-1,-1,-2,1,0,0,5
1519732151708438,-6,-9,-9,-8,-5,-5,15,0
1519732151708438,-4,-18,-22,-9,-6,-1,-8,-6
1519732151710443,6,14,12,3,1,-2,-3,6
1519732151710443,3,5,11,10,6,10,25,7
1519732151722475,-4,-2,-7,-3,2,-10,-45,-8
1519732151722475,-4,-6,-4,-5,-5,0,7,-10
1519732151731498,-4,-11,-7,-1,3,0,3,1
1519732151731498,6,12,-1,1,-4,1,4,0
1519732151745535,1,3,10,4,2,1,8,6
1519732151745535,1,1,0,0,3,-1,-5,0
1519732151751552,-6,-5,1,-6,-4,-7,-24,-7
1519732151751552,-3,-11,-14,-3,-3,-2,-4,1
1519732151768597,5,4,8,5,-1,4,23,-3
1519732151768597,-2,6,8,-3,-4,-3,-15,-7
1519732151769603,-7,-5,-6,-3,-3,1,9,-3
1519732151769603,6,-6,-10,2,5,1,3,0
1519732151781632,1,9,7,2,-1,-2,5,2
1519732151781632,-3,-6,-1,0,1,0,-5,-3
1519732151790656,3,3,-1,1,0,-2,1,3
1519732151790656,-8,-6,-5,-10,-10,-5,-2,-2
1519732151805696,-2,-7,-10,-4,4,8,2,-3
1519732151805696,4,7,6,-2,-4,-5,6,4
1519732151811714,-1,-5,-2,3,0,-1,-4,0
1519732151811714,0,6,5,2,-3,-2,2,0
1519732151828758,1,1,-3,-3,-1,1,-2,-3
1519732151828758,-9,-5,-1,-3,-2,0,5,2
1519732151830763,4,-5,-11,2,1,-1,-1,-2
1519732151830763,4,8,14,1,1,3,12,-3
1519732151841794,-4,0,2,-2,-3,-7,-11,1
1519732151841794,-4,-14,-20,-10,-2,-3,-1,1
1519732151850816,3,17,13,3,-4,-4,1,-2
1519732151850816,-1,-1,6,4,1,3,1,-3
1519732151864853,4,1,6,5,5,2,3,5
1519732151864853,1,-6,-5,-2,-1,2,5,6
1519732151871872,0,-3,-6,-9,-3,1,-3,0
1519732151871872,-2,-2,-4,0,2,-2,-3,2
1519732151887915,-5,-4,-6,-2,-1,-5,-16,-16
1519732151887915,1,3,3,2,2,1,2,4
1519732151889920,1,1,-1,-1,0,-3,8,7
1519732151889920,-4,0,0,-1,1,1,-13,-6
1519732151901956,-2,-5,-5,-3,-2,0,5,7
1519732151901956,-3,0,-6,-1,-6,-6,-20,-18
1519732151910977,2,6,8,-7,-4,2,23,4
1519732151910977,-1,-1,5,9,8,-1,-14,2
1519732151925024,-4,-5,-7,-4,-4,0,7,2
1519732151925024,6,-1,-7,3,3,2,-1,3
1519732151932032,0,4,6,-4,-2,0,9,-1
1519732151932032,0,2,-1,-2,-1,1,17,7
1519732151948075,3,-1,1,-2,-1,-4,-10,4
1519732151948075,-3,0,5,4,0,-3,-10,-6
1519732151950080,-4,-8,-7,0,0,-2,-14,-8
1519732151950080,-2,-6,-9,-6,-3,0,7,-1
1519732151971136,-3,4,4,1,-1,-2,0,0
1519732151971136,6,3,-1,1,-2,3,11,8
1519732151972139,3,-1,3,6,4,3,9,14
1519732151972139,-4,-1,2,-2,-3,-8,-24,-12
1519732151985173,-4,-7,-10,-5,-6,0,15,-8
1519732151985173,-3,-1,2,-2,2,-1,5,-2
1519732151992192,0,-1,3,4,2,-4,-30,-7
1519732151992192,-1,-1,-2,-2,-2,3,7,4
1519732152009244,1,-3,-4,0,-3,-3,1,4
1519732152009244,-4,-1,5,3,-1,-1,7,-3
1519732152010244,2,4,0,4,1,0,12,9
1519732152010244,-3,-3,-3,-7,-2,-3,-11,-6
1519732152031296,0,-3,-2,-1,-2,0,-6,1
1519732152031296,-1,-2,-6,-2,0,2,3,3
1519732152032299,2,3,3,3,2,-2,-2,4
1519732152032299,1,1,1,3,-2,-3,9,-2
1519732152045334,0,-1,0,0,2,2,2,3
1519732152045334,-3,2,2,-4,-1,0,-6,-7
1519732152052352,-3,-2,-3,1,-3,-4,-5,-3
1519732152052352,-2,-2,-3,-4,0,1,8,-3
1519732152068413,1,-4,-6,-3,-3,-1,4,4
1519732152068413,1,0,-2,-1,1,-2,-8,-5
1519732152070401,1,1,6,0,3,1,-9,-6
1519732152070401,1,0,-1,-2,-3,0,7,1
1519732152091458,-2,-1,-2,0,2,-5,-16,-1
1519732152091458,-2,-1,0,-3,-2,1,-4,10
1519732152092459,-5,-9,-19,-7,-4,4,19,-13
1519732152092459,0,3,2,4,0,-10,-13,-1
1519732152105494,0,6,11,3,3,4,6,-5
1519732152105494,2,2,6,7,-1,-1,-1,10
1519732152112513,-4,-4,-8,-6,-1,-2,-5,-2
1519732152112513,0,-5,-8,-2,0,2,9,8
1519732152128555,-1,3,2,2,-5,-3,-4,-4
1519732152128555,4,2,6,2,1,2,5,0
1519732152129558,-1,-4,-5,0,-4,1,9,5
1519732152129558,-4,-3,-6,-6,-5,-8,-18,-10
1519732152150613,1,-2,-1,0,0,0,5,5
1519732152150613,-7,0,-1,-3,-4,-4,-12,-25
1519732152152619,-4,-7,-2,-3,1,5,19,7
1519732152152619,-2,4,6,1,-2,-3,-14,-7
1519732152165653,-1,-3,-6,0,2,-4,-9,-4
1519732152165653,-3,0,3,-1,-3,1,20,5
1519732152171674,3,1,2,2,2,2,-13,-6
1519732152171674,0,-1,-2,0,-2,5,28,2
1519732152188715,1,-6,-7,-3,-3,-3,-3,16
1519732152188715,-8,-5,-9,-4,-2,-3,-8,-14
1519732152189718,3,3,2,1,-2,-6,-20,-1
1519732152189718,4,3,6,2,0,5,22,9
1519732152210774,2,2,0,-2,-3,-2,-14,-3
1519732152210774,-4,-3,-4,1,1,0,-1,-7
1519732152212779,-5,-6,-3,-2,-2,-4,-12,-7
1519732152212779,-3,-2,-6,-3,-3,-3,-10,-7
1519732152225819,1,2,3,-1,-2,-2,7,-3
1519732152225819,6,2,3,-1,3,5,25,21
1519732152231830,2,3,4,3,-1,-2,1,0
1519732152231830,-10,-4,1,3,8,0,-21,-27
1519732152248875,-3,-2,-3,-4,-7,-6,-8,-5
1519732152248875,-2,-5,-2,-4,-3,-7,-30,-11
1519732152249878,1,1,-4,0,1,-3,4,3
1519732152249878,1,1,2,-1,-3,3,19,5
1519732152270933,-12,-5,-3,-2,5,3,12,-4
1519732152270933,1,0,0,-1,-3,-1,6,-3
1519732152272939,-2,-2,-1,-3,-4,-5,-14,-4
1519732152272939,2,-2,-2,-2,2,2,4,9
1519732152284971,1,1,2,3,4,5,18,9
1519732152284971,1,-1,-1,0,0,1,-2,-5
1519732152293995,-3,-1,-1,-1,-1,-1,0,-1
1519732152293995,-4,-2,-4,-6,-7,-8,-29,-8
1519732152309040,8,6,5,6,2,5,18,9
1519732152309040,5,3,0,-2,0,0,14,18
1519732152310039,-7,-1,0,1,1,2,-9,-16
1519732152310039,0,-3,-6,-6,-8,-11,4,-5
1519732152331094,1,-1,0,2,3,5,12,6
1519732152331094,1,0,-1,0,0,-3,-6,4
1519732152332096,0,3,4,0,1,-1,-19,-11
1519732152332096,-5,-6,-5,-4,-3,1,20,-10
1519732152344129,-2,-4,-4,-4,-5,-7,-28,-14
1519732152344129,-6,0,-2,-2,0,-3,-23,-4
1519732152353152,5,-1,1,2,1,4,30,19
1519732152353152,1,1,2,3,5,4,-7,9
1519732152368192,-1,0,0,-4,-4,-3,-1,-8
1519732152368192,3,0,-4,0,2,-2,7,-2
1519732152370203,-4,2,1,-4,-2,2,16,-2
1519732152370203,1,-2,-3,-3,-1,2,3,14
1519732152391254,-3,-5,-4,1,-1,-3,-31,-21
1519732152391254,3,0,0,2,5,1,-9,6
1519732152392261,4,1,2,-1,-5,-3,13,7
1519732152392261,2,-1,-3,1,-1,3,23,13
1519732152404288,-3,1,1,0,-1,-3,-15,-12
1519732152404288,5,-2,-3,-4,-5,-2,-3,9
1519732152413312,-8,-5,-4,-1,2,-6,-26,-15
1519732152413312,-1,-1,1,-1,3,-2,-3,-13
1519732152428352,2,2,1,4,-2,3,28,9
1519732152428352,-2,4,5,2,2,-7,-8,-5
1519732152430358,-2,-1,-3,1,2,1,1,4
1519732152430358,6,0,-2,-1,-3,-2,-12,2
1519732152450411,4,2,0,-2,2,2,9,13
1519732152450411,-9,-9,-3,-2,-3,-3,-17,-21
1519732152452417,0,-2,-5,-2,-1,2,4,6
1519732152452417,-3,0,5,2,0,-2,2,1
1519732152464448,0,-4,-7,-4,-3,-3,-14,-3
1519732152464448,2,4,5,2,-1,2,7,5
1519732152474475,-3,-1,3,3,2,-2,2,6
1519732152474475,-2,-2,-2,-2,0,3,-9,-5
1519732152488512,-4,-3,-5,-5,-4,-7,9,-4
1519732152488512,-1,-2,-4,-1,0,1,-1,6
1519732152489515,0,-3,-4,-3,-3,-1,3,-8
1519732152489515,-3,2,0,1,-2,-1,15,0
1519732152510571,1,0,1,0,1,1,-22,-3
1519732152510571,-7,-3,-1,-3,-3,0,8,-10
1519732152512577,1,-3,0,0,0,-2,15,4
1519732152512577,1,3,2,2,-1,2,4,5
1519732152524608,-6,-1,1,-3,-2,-8,-30,-6
1519732152524608,-4,-3,-5,-2,-4,-1,10,1
1519732152533633,1,1,-4,-1,-3,0,7,8
1519732152533633,5,3,3,0,-1,0,-6,6
1519732152547670,-3,1,5,1,-1,-1,1,-6
1519732152547670,2,-1,-3,0,3,3,9,3
1519732152554690,-4,0,0,-2,0,-3,-24,-6
1519732152554690,-3,0,-1,1,-2,-5,-28,-13
1519732152570731,-2,0,-3,-1,-2,-4,-12,-16
1519732152570731,4,-3,-3,-3,-1,2,-1,10
1519732152572736,-6,-4,-4,-1,-2,-3,1,-17
1519732152572736,4,0,0,1,4,4,11,11
1519732152584770,-1,0,3,1,0,4,-4,-6
1519732152584770,-2,0,-2,-4,-3,-2,-19,-11
1519732152593793,2,0,-2,1,1,0,-14,11
1519732152593793,-2,-3,-4,-6,-6,-3,20,-6
1519732152608836,0,0,4,7,4,2,15,7
1519732152608836,2,2,-2,0,-1,6,43,31
1519732152609836,-3,-4,-4,-5,-1,-6,-45,-16
1519732152609836,-7,-3,-4,-1,9,-1,-34,-27
1519732152630891,5,1,-3,-9,-12,4,18,13
1519732152630891,3,1,5,2,1,-1,4,7
1519732152632896,0,-1,2,1,0,2,2,-3
1519732152632896,-6,-3,-3,-2,-4,-4,-9,0
1519732152644928,3,0,0,7,4,6,41,14
1519732152644928,-8,-1,1,-2,0,-10,-60,-29
1519732152653953,5,1,-3,-3,-1,2,23,15
1519732152653953,-3,-7,-5,-3,-4,-4,0,-2
1519732152668993,-3,-2,-3,0,1,-1,16,-3
1519732152668993,-1,0,3,1,2,2,-20,-6
1519732152669995,-2,-1,1,0,-1,-8,-2,-10
1519732152669995,2,-2,-4,-1,-5,2,7,7
1519732152691051,0,2,2,-3,-2,-3,-9,1
1519732152691051,4,0,-1,2,-1,4,29,12
1519732152693057,-4,-3,-3,-3,1,-4,-28,-4
1519732152693057,-4,0,4,2,1,0,-13,-14
1519732152705088,-3,-5,-9,-4,-2,-4,16,-2
1519732152705088,-4,-3,-5,-1,1,-3,-41,-18
1519732152713110,4,2,8,2,1,-5,25,12
1519732152713110,3,2,1,1,-2,6,28,13
1519732152728150,-2,-2,-2,-6,-5,-6,-64,7
1519732152728150,-4,-3,-1,2,-1,0,19,-19
1519732152730156,3,0,-6,-2,-1,5,27,10
1519732152730156,1,2,1,-2,-2,-2,-18,-3
1519732152751211,5,3,5,0,8,11,63,23
1519732152751211,0,-2,-4,-2,0,-5,-18,-18
1519732152752214,-3,-4,-3,-1,-1,-1,-42,-7
1519732152752214,-1,0,-1,-1,-3,2,-2,8
1519732152764246,-2,-3,-6,-3,-1,1,33,7
1519732152764246,-3,-2,-4,2,-3,-8,-11,-9
1519732152773270,1,3,5,2,3,16,13,7
1519732152773270,-1,0,2,0,-5,-14,8,-3
1519732152788310,-2,-4,-4,-1,-2,-8,-47,-10
1519732152788310,3,-2,-1,-5,-2,4,56,29
1519732152790315,-9,-7,-9,-4,-2,-9,-59,-34
1519732152790315,0,-2,-7,-3,-2,0,-10,-7
1519732152811372,1,8,13,3,3,2,20,-4
1519732152811372,3,0,0,-2,-4,0,12,6
1519732152812375,2,0,-1,0,-1,4,14,16
1519732152812375,0,-5,-4,1,2,16,-11,-5
1519732152824405,-4,-3,-1,-4,-13,-42,-34,-26
1519732152824405,1,-1,-1,-2,2,11,16,13
1519732152833430,1,-2,-1,-2,-2,-5,9,7
1519732152833430,-1,-3,-5,-3,-1,0,-6,1
1519732152848470,2,5,4,4,6,11,11,4
1519732152848470,-2,2,7,4,2,-4,-20,-8
1519732152850475,1,-2,0,2,4,3,38,10
1519732152850475,-5,-4,-1,3,1,-6,-41,-11
1519732152870528,-1,-8,-11,-11,-11,3,-4,-1
1519732152870528,1,0,-6,-2,5,1,21,9
1519732152872534,1,4,7,3,-6,5,24,-10
1519732152872534,-1,1,7,2,-1,-11,-20,-2
1519732152893590,-1,-4,-6,1,-5,1,-4,1
1519732152893590,-1,0,-4,-2,1,-3,-20,5
1519732152894592,-3,-1,-1,-1,-1,2,13,-3
1519732152894592,3,1,1,-1,10,6,4,7
1519732152908637,-7,-2,2,-1,-8,-8,-11,-11
1519732152908637,-6,-8,-8,-6,-4,-4,-18,-6
1519732152909633,0,-2,-11,-1,-5,-3,16,0
1519732152909633,10,15,21,8,4,3,38,26
1519732152930688,-5,-1,7,8,13,9,9,-6
1519732152930688,1,-1,-3,3,-8,-1,-1,-2
1519732152932694,-3,-4,-5,-8,-2,-2,-6,-3
1519732152932694,2,-2,-9,-5,-8,4,13,7
1519732152953750,1,0,0,0,3,-14,-4,3
1519732152953750,-4,-3,-2,-2,5,-2,-17,-2
1519732152954754,-7,-4,-5,-1,-3,-7,-8,-12
1519732152954754,1,0,-9,-3,-2,3,23,0
1519732152968790,6,8,16,8,6,8,-6,16
1519732152968790,-4,1,6,8,-2,-2,-11,-27
1519732152969796,0,-6,-6,-9,-6,-3,-13,5
1519732152969796,-5,-9,-9,-3,2,2,28,2
1519732152990848,-2,-3,-15,-7,-4,4,4,-6
1519732152990848,5,11,15,3,5,2,12,6
1519732152992860,2,3,6,7,1,0,-1,0
1519732152992860,-5,-6,-1,-5,-2,-1,20,2
1519732153012907,-2,-9,-15,-6,-8,3,-21,-4
1519732153012907,2,4,0,4,0,-8,-8,-10
1519732153014913,3,9,17,1,4,6,-12,4
1519732153014913,-1,0,1,2,-1,-2,-1,2
1519732153026945,-5,-4,-7,-3,-4,1,-8,-9
1519732153026945,-2,-4,-9,-8,-7,-1,8,2
1519732153035969,1,-2,-8,-3,-5,-3,10,-4
1519732153035969,3,5,9,2,-5,-1,-2,0
1519732153051008,1,2,1,4,5,2,-35,-9
1519732153051008,-2,-3,-7,-5,-3,-4,14,8
1519732153052011,-1,0,1,4,7,2,-12,6
1519732153052011,0,-1,-1,-4,-7,-1,-5,-8
1519732153073067,-1,-1,0,2,0,-3,-1,-12
1519732153073067,-2,-4,-2,-4,0,0,5,3
1519732153075078,-3,-2,-1,-4,-4,0,3,3
1519732153075078,1,-4,-9,-1,0,-6,-3,0
1519732153087104,2,4,3,3,5,2,10,-2
1519732153087104,2,3,10,1,-6,1,6,5
1519732153096129,2,1,-1,5,11,2,9,0
1519732153096129,-6,-7,-7,-3,-2,-6,-34,-12
1519732153111169,0,-5,-8,-7,-2,1,12,8
1519732153111169,3,1,5,3,1,-3,-5,7
1519732153112171,-2,-1,-3,-2,-6,-1,-8,-12
1519732153112171,0,2,-1,-2,0,-3,7,2
1519732153133227,-1,0,4,-3,-6,-1,-2,-1
1519732153133227,1,0,-1,1,1,3,9,3
1519732153135233,-3,-2,-2,-4,0,-3,-9,-3
1519732153135233,-4,-5,-9,-2,0,0,0,-4
1519732153147265,-2,-1,-2,-9,5,2,3,0
1519732153147265,2,3,5,2,-12,-7,5,5
1519732153156289,-2,0,4,-1,0,-3,2,-5
1519732153156289,-2,1,-1,2,-1,1,2,-5
1519732153171329,1,0,1,1,0,1,4,8
1519732153171329,-2,-3,-6,-3,6,1,-3,-3
1519732153172332,4,7,6,2,-2,0,1,11
1519732153172332,-2,0,6,1,4,-1,0,-6
1519732153193387,-8,-9,-7,-3,-2,-7,-16,-17
1519732153193387,-5,-3,-4,-3,-2,-2,-7,-7
1519732153195393,1,-4,-6,-1,-1,1,1,-1
1519732153195393,8,12,9,5,-2,3,19,11
1519732153207425,-2,-4,5,1,-4,-3,6,12
1519732153207425,-3,-6,-11,-4,6,5,1,-5
1519732153216451,2,-3,-7,-2,-2,-1,1,6
1519732153216451,0,-4,-5,-4,-4,-7,-37,-15
1519732153230486,6,18,17,10,0,-1,-3,-2
1519732153230486,-4,-4,1,-2,0,-1,0,1
1519732153232491,-4,-9,-7,-7,-5,-1,2,2
1519732153232491,0,-1,-6,4,4,0,-6,-1
1519732153253548,2,-1,-1,-1,-1,-1,4,3
1519732153253548,2,-1,-3,-4,-5,1,8,5
1519732153254552,-2,1,0,-3,-3,0,18,-2
1519732153254552,-6,-4,-1,-1,8,-6,-45,-18
1519732153266582,3,3,6,1,2,3,15,5
1519732153266582,1,0,0,0,-2,1,-10,5
1519732153276612,-5,-6,-3,-1,-4,-4,-21,-17
1519732153276612,1,2,-6,-8,-12,-5,9,10
1519732153290646,-1,-3,-3,0,4,1,3,1
1519732153290646,1,6,10,6,1,3,4,-4
1519732153292660,-3,-1,-5,-4,-3,-7,-16,0
1519732153292660,-3,-6,-1,-3,5,3,10,2
1519732153313708,-4,-8,-14,-3,-5,-3,-8,-4
1519732153313708,5,4,2,-1,0,-1,9,5
1519732153314711,0,5,8,3,3,0,-7,4
1519732153314711,-2,-3,2,1,-3,1,14,-1
1519732153327745,-2,-3,-5,-3,0,2,1,1
1519732153327745,-5,-5,-2,0,-1,-4,-9,-14
1519732153334764,3,3,4,-1,1,-2,2,-1
1519732153334764,2,1,3,3,-2,0,7,12
1519732153350806,-2,-4,-4,-2,-4,-4,-6,0
1519732153350806,-3,-2,-5,-3,-1,-4,-1,-7
1519732153352812,1,-3,-2,0,0,1,1,9
1519732153352812,0,0,1,-1,0,2,9,-9
1519732153373867,0,-1,-2,-6,-6,-9,-21,-9
1519732153373867,-1,-3,-4,2,2,2,3,9
1519732153374872,-2,1,1,3,-2,3,19,1
1519732153374872,-2,-4,0,-7,-3,-3,-23,-2
1519732153386902,2,3,2,5,1,1,6,4
1519732153386902,-5,-8,-11,-11,-5,-5,-13,-10
1519732153395926,1,-1,-4,1,-1,-2,-1,-1
1519732153395926,3,11,7,6,-1,4,14,2
1519732153410966,1,6,14,6,9,3,0,-1
1519732153410966,-1,-2,-5,-3,-3,1,-5,4
1519732153412972,-3,-4,-4,-4,-3,1,10,4
1519732153412972,-2,-8,-10,-4,-6,-6,-12,-11
1519732153433025,1,0,-2,-3,-4,2,7,0
1519732153433025,0,3,6,1,2,-2,-11,1
1519732153435030,3,-5,-2,2,1,-2,-7,-3
1519732153435030,0,5,4,2,-2,-4,2,5
1519732153447062,-4,-6,-10,-4,-1,2,8,2
1519732153447062,-1,-2,-3,-2,1,-1,0,-5
1519732153456086,2,-1,-1,-1,-2,-1,-8,1
1519732153456086,-1,-3,1,2,3,1,2,0
1519732153471126,-1,-5,-3,-3,-5,-1,18,3
1519732153471126,-2,5,1,3,6,2,0,-2
1519732153472129,1,-1,-3,-1,-1,0,-4,4
1519732153472129,-1,1,-2,0,-1,-3,-4,-3
1519732153493187,-4,-6,-7,-8,-4,-4,-16,-5
1519732153493187,2,1,3,-1,-2,-2,2,0
1519732153495190,2,8,8,8,1,-2,-5,-8
1519732153495190,-2,-4,-1,0,0,3,24,4
1519732153507222,-2,-2,0,3,2,-9,-36,-5
1519732153507222,-4,-6,-10,-11,-13,-7,-7,-4
1519732153516246,-1,3,5,7,7,6,10,1
1519732153516246,2,1,-2,-1,-3,-3,-10,1
1519732153531287,0,3,4,1,4,2,6,3
1519732153531287,-1,0,-1,1,1,7,19,6
1519732153532289,-4,-5,-7,-2,-4,-9,-23,-11
1519732153532289,-3,3,4,-2,1,-2,4,4
1519732153553345,2,2,-6,0,-2,1,1,-7
1519732153553345,-2,1,3,0,1,-1,0,-1
1519732153555351,-2,1,-2,-3,0,-1,1,0
1519732153555351,-3,-7,-3,-2,-3,-2,-2,0
1519732153567382,-5,-7,-10,-11,-6,-5,-1,-4
1519732153567382,8,4,9,14,10,2,3,3
1519732153576412,0,3,9,0,-1,-2,-1,2
1519732153576412,1,1,-2,-3,-1,4,2,-2
1519732153591449,1,-1,-2,1,2,-1,5,4
1519732153591449,-5,0,-1,-4,-4,-3,-4,-3
1519732153592456,-3,-6,-6,-5,-1,-2,-2,2
1519732153592456,-2,-5,-3,0,-1,-4,-12,-13
1519732153613505,0,-2,-1,0,-1,5,10,2
1519732153613505,3,2,-5,0,2,2,14,21
1519732153615510,-3,3,5,0,-1,-3,-27,-22
1519732153615510,-3,-4,-4,-5,-5,-7,-12,-1
1519732153627542,4,3,-3,-2,-1,1,13,2
1519732153627542,-8,-9,1,-2,0,-2,-12,-6
1519732153636567,3,0,-6,-2,-2,2,11,7
1519732153636567,1,0,-2,-1,0,1,6,3
1519732153650604,0,7,10,4,4,4,5,-1
1519732153650604,1,-2,-7,-1,-1,-6,-13,-1
1519732153652609,-4,-2,1,-2,0,0,7,3
1519732153652609,-4,-7,-6,-4,1,-2,-4,-6
1519732153673665,-2,-4,-6,-6,-3,1,9,5
1519732153673665,0,0,-1,2,0,1,-7,-9
1519732153674670,-6,1,3,-4,-2,-4,3,0
1519732153674670,4,-1,-3,0,0,1,12,1
1519732153695724,-4,1,1,-1,-3,-1,-16,-8
1519732153695724,0,-10,-12,-5,0,-3,-22,-9
1519732153697729,4,22,12,2,-1,0,-5,-3
1519732153697729,-3,-6,0,0,0,4,11,7
1519732153710764,-3,-6,-3,-4,-7,-2,3,0
1519732153710764,-4,-9,-1,1,2,-6,-11,-5
1519732153712769,5,9,4,5,8,3,2,1
1519732153712769,2,5,2,0,-2,0,-4,1
1519732153733825,3,4,2,4,2,1,2,4
1519732153733825,-3,-9,-5,-6,-7,-2,10,0
1519732153734828,-4,-16,-15,-8,-5,-5,-1,2
1519732153734828,1,4,5,2,0,0,-4,-6
1519732153746860,1,1,8,3,2,-1,-4,4
1519732153746860,3,11,7,3,-1,3,8,1
1519732153755884,5,-6,-7,-1,0,4,16,-1
1519732153755884,-8,-9,-5,-10,-4,-9,-33,-19
1519732153770924,1,2,-3,2,1,0,12,3
1519732153770924,0,1,4,-3,-6,-9,-33,-11
1519732153772929,4,1,6,6,4,11,15,10
1519732153772929,-4,-3,-5,-2,-2,-2,6,8
1519732153792985,1,9,-3,-2,-1,0,3,-5
1519732153792985,-4,-6,5,1,-1,2,19,7
1519732153794988,-4,-13,-9,-3,-4,-4,-11,-3
1519732153794988,2,12,13,4,0,-2,-4,3
1519732153807020,-7,-3,0,-1,0,0,-2,-4
1519732153807020,3,0,-7,0,1,8,20,8
1519732153816044,-9,-8,-8,-5,-8,-10,-33,-17
1519732153816044,6,2,-1,5,2,1,12,6
1519732153830081,-3,-7,-3,0,4,4,23,1
1519732153830081,0,3,1,3,1,5,-21,6
1519732153837102,-4,-2,1,-1,-3,-4,5,0
1519732153837102,-3,-4,-4,-5,-3,-1,-4,-3
1519732153853143,-2,-6,-4,-1,-4,-3,-8,-1
1519732153853143,1,2,1,2,-2,0,17,6
1519732153855149,-3,0,0,-3,1,1,0,5
1519732153855149,-5,-2,-2,0,0,-2,-4,-27
1519732153876206,0,-2,0,-2,-3,-5,-22,-1
1519732153876206,2,3,1,0,-2,-2,10,3
1519732153877210,-7,-1,-1,-1,-3,-2,5,-9
1519732153877210,-1,-5,-3,-1,-3,0,6,4
1519732153891244,2,-2,-2,1,0,1,2,1
1519732153891244,-1,4,1,-1,1,-1,-25,-25
1519732153892253,4,5,1,-1,-2,-5,10,8
1519732153892253,0,-3,0,-3,3,4,8,13
1519732153913303,0,-2,4,0,-4,-2,4,0
1519732153913303,-4,-5,-3,-2,4,0,0,8
1519732153915308,1,-1,-4,-2,2,1,-2,-8
1519732153915308,1,2,-3,0,-5,-8,-20,-17
1519732153936364,0,2,2,0,1,-1,-2,3
1519732153936364,2,-2,-3,-1,0,1,15,-4
1519732153937367,1,-5,-2,1,2,2,3,12
1519732153937367,6,6,1,1,0,3,21,12
1519732153951404,-12,-9,-4,-3,-2,-6,-41,-27
1519732153951404,4,6,8,3,-3,-6,5,9
1519732153952407,-6,-1,1,0,-2,1,2,-4
1519732153952407,2,-2,-1,2,5,5,9,11
1519732153973462,0,-5,-6,0,6,6,18,4
1519732153973462,-2,-1,-6,-4,-11,-5,-6,-12
1519732153975474,-4,1,2,0,-1,-3,-22,-12
1519732153975474,-2,-5,-5,-2,0,0,-18,-5
1519732153995521,4,2,2,0,-3,-2,-2,5
1519732153995521,-3,3,1,1,2,1,-1,4
1519732153997526,6,2,-1,0,-3,0,8,7
1519732153997526,-1,-1,-3,-3,-5,-9,-39,-11
1519732154009559,-5,0,1,1,4,2,7,0
1519732154009559,0,-3,-3,-2,-3,-1,8,2
1519732154018584,-3,-3,-3,0,-2,0,0,-3
1519732154018584,-1,-1,0,-2,0,2,13,9
1519732154033622,1,-1,-1,0,-1,-3,-4,-3
1519732154033622,-3,1,4,1,3,0,-24,-11
1519732154034625,-3,-2,-2,-1,1,-2,9,-8
1519732154034625,-6,-5,-5,-4,-1,4,33,7
1519732154055681,3,-1,-1,-2,-8,-9,-26,2
1519732154055681,5,4,3,1,0,3,38,35
1519732154057690,0,3,2,1,3,-1,-17,-9
1519732154057690,3,-2,1,-1,-3,1,-8,8
1519732154069718,2,1,-2,-1,0,-4,10,4
1519732154069718,-8,-5,-7,-5,1,3,5,-9
1519732154078743,0,0,1,1,3,-3,-27,-9
1519732154078743,10,2,-3,0,-3,-5,15,0
1519732154093782,-9,3,2,-2,-6,-4,-3,2
1519732154093782,-2,-2,-2,0,4,2,-8,-13
1519732154094785,2,1,0,-2,-4,-1,8,3
1519732154094785,-3,-1,-2,-1,0,-5,-17,-16
1519732154115841,4,-1,0,2,2,4,26,13
1519732154115841,2,1,1,0,2,-4,-31,-12
1519732154117847,1,-2,-4,-2,-13,-5,4,15
1519732154117847,-8,-1,0,-3,0,-1,-19,-23
1519732154129878,3,-1,-5,-2,-1,3,13,5
1519732154129878,-3,3,8,1,-1,-7,-17,-1
1519732154138903,12,2,3,5,8,1,-2,17
1519732154138903,-9,-3,-1,0,-3,-4,3,-19
1519732154153943,0,2,-4,-3,-1,-2,-1,-1
1519732154153943,2,-2,-6,-6,-8,-2,-5,0
1519732154154945,-10,-2,-3,-1,0,-2,1,-4
1519732154154945,-12,-5,-2,-3,-5,-2,-16,-16
1519732154176012,5,-1,-2,4,1,3,11,8
1519732154176012,-5,-2,-1,-2,-3,-2,4,-1
1519732154178007,3,2,-2,-3,-2,0,-5,-7
1519732154178007,0,2,4,1,0,-4,-5,11
1519732154190038,-5,-5,-2,-3,-6,-2,-1,-8
1519732154190038,4,4,2,7,8,2,3,4
1519732154198059,6,3,3,0,3,5,21,18
1519732154198059,11,2,-2,1,5,6,-14,8
1519732154213100,-4,-1,1,-2,-3,-6,-9,-12
1519732154213100,-5,-4,-7,-4,-6,0,16,3
1519732154215105,1,0,4,1,0,1,7,5
1519732154215105,12,4,4,-1,-4,1,13,20
1519732154236162,-9,-6,0,-4,0,0,-9,-14
1519732154236162,1,-3,-6,-2,-1,0,1,-8
1519732154237165,1,-4,-7,-6,-5,-1,8,11
1519732154237165,1,1,0,3,3,5,14,3
1519732154249196,-5,-3,-3,-2,2,-2,-17,-18
1519732154249196,-1,-1,-2,-2,-3,-9,-30,1
1519732154258225,-4,-1,-1,-1,2,0,7,-4
1519732154258225,-3,-3,-3,-2,0,-1,12,12
1519732154273260,3,4,1,0,1,-2,-9,-5
1519732154273260,2,0,2,1,1,3,6,0
1519732154275269,-8,-5,-2,-3,-2,-6,-47,-11
1519732154275269,-2,-2,-1,2,0,-6,37,3
1519732154296321,7,3,2,2,3,3,8,10
1519732154296321,3,-2,-4,-6,-2,0,16,10
1519732154297324,-3,1,-1,2,-1,3,9,-12
1519732154297324,-7,-4,-7,-4,-4,-1,-26,-20
1519732154309356,-1,1,5,3,3,-2,4,7
1519732154309356,3,2,1,1,0,5,30,7
1519732154318384,4,0,-1,0,-4,-1,-9,5
1519732154318384,-9,-5,-2,-1,2,2,-9,-15
1519732154333420,0,1,-6,-2,0,5,27,11
1519732154333420,-10,-3,1,-2,2,-10,-37,-27
1519732154335425,1,-2,-1,-2,3,2,12,9
1519732154335425,-2,2,-1,1,-2,0,-1,-7
1519732154355480,1,-2,2,0,2,3,-7,7
1519732154355480,-4,-3,-7,-6,-6,1,24,0
1519732154357485,-1,-1,-2,0,-3,-3,1,11
1519732154357485,1,2,6,-4,0,4,18,-2
1519732154369516,-7,-2,-4,-2,-3,-6,-4,-22
1519732154369516,2,0,-3,0,-2,2,6,10
1519732154378540,-8,-4,1,-2,-5,-8,-6,-15
1519732154378540,1,-2,-1,3,0,2,3,9
1519732154393580,4,3,2,6,9,6,12,15
1519732154393580,-4,-3,1,-6,-11,-5,-12,-3
1519732154394583,1,1,-4,-4,-2,1,0,-6
1519732154394583,-5,0,7,4,1,-3,-2,0
1519732154415639,1,1,0,1,0,-1,0,8
1519732154415639,-7,-6,-6,-1,6,5,0,-7
1519732154417645,2,-1,-4,-2,3,3,16,3
1519732154417645,5,3,-1,0,-8,-11,23,20
1519732154429676,-6,-5,-5,-9,-6,0,-25,-18
1519732154429676,5,3,8,8,5,-2,20,14
1519732154438702,-5,-3,-4,-5,-1,5,-2,-18
1519732154438702,-7,-4,-1,-4,-1,0,-19,2
1519732154453742,1,1,1,6,1,0,0,-9
1519732154453742,0,0,0,-1,2,-2,-20,-1
1519732154454747,-2,-3,-1,-3,-3,-5,-18,-8
1519732154454747,8,1,-2,4,4,2,4,15
1519732154475799,3,5,3,-3,-5,0,-8,9
1519732154475799,-6,0,-1,-1,2,-1,-30,-23
1519732154477805,6,3,6,6,0,-7,14,11
1519732154477805,-4,-5,-6,-8,-5,-2,-3,-4
1519732154489836,-5,-6,-4,2,1,0,-22,-7
1519732154489836,-3,1,-5,-2,3,-2,9,-6
1519732154507884,-1,2,5,2,-4,0,-5,3
1519732154507884,-3,1,-1,0,1,2,-6,-18
1519732154513900,0,-3,0,-3,-3,-8,-2,-3
1519732154513900,4,-2,-1,2,3,5,16,20
1519732154514903,-2,-1,-4,-2,6,3,13,-11
1519732154514903,0,-1,-1,-1,0,1,-12,0
1519732154535959,2,1,-1,-2,-5,-3,-3,7
1519732154535959,-7,-3,3,2,-2,0,5,-6
1519732154537965,-2,-3,-3,1,0,1,0,5
1519732154537965,-2,-3,-3,-6,-5,-5,3,-2
1519732154549996,-4,-4,-5,-5,-5,-4,-2,2
1519732154549996,4,1,-5,-3,8,5,-10,-10
1519732154559026,3,4,7,2,-2,-14,3,9
1519732154559026,-3,-2,2,3,-1,3,2,-9
1519732154573057,0,-3,-2,1,0,-4,0,4
1519732154573057,0,-3,-3,-3,-4,2,4,2
1519732154575066,-4,-5,-6,-8,-6,-3,1,-1
1519732154575066,5,2,0,1,5,2,2,4
1519732154596119,0,1,4,-1,-6,-1,4,-11
1519732154596119,0,2,6,1,-4,0,18,9
1519732154597121,-4,-5,-1,6,6,5,-29,-11
1519732154597121,-4,-7,-10,-13,-5,-4,-4,1
1519732154609153,3,7,5,4,2,1,6,7
1519732154609153,-2,-3,-1,-1,-5,-4,0,-11
1519732154618178,-1,-1,-2,-4,2,3,26,5
1519732154618178,4,2,5,4,-2,-8,-23,-4
1519732154633217,-3,-6,-5,-1,7,3,-2,-3
1519732154633217,-2,-4,-3,-4,-2,0,-2,5
1519732154635223,-1,0,2,1,-8,-3,-2,2
1519732154635223,-5,-6,-11,-7,-2,-1,-2,3
1519732154656279,-1,-1,-3,-3,-2,5,12,0
1519732154656279,2,3,-3,-2,-1,1,-6,-2
1519732154657281,2,2,-2,6,8,-1,-3,5
1519732154657281,-1,2,7,2,-4,0,-5,-4
1519732154669313,0,0,1,-3,0,8,30,17
1519732154669313,-5,0,-2,1,-6,-7,-24,-15
1519732154678338,-2,-4,-6,-5,1,1,1,0
1519732154678338,0,-2,-5,0,-1,3,22,4
1519732154693377,0,-1,-1,-1,-2,1,20,-2
1519732154693377,2,6,9,6,0,-3,-1,3
1519732154695383,-1,2,2,-5,-7,0,3,-6
1519732154695383,1,2,0,2,2,0,14,6
1519732154715436,-2,-5,-7,-3,-4,-4,-10,3
1519732154715436,-4,-4,-8,-2,3,-4,-10,-14
1519732154717442,-5,-1,6,-7,-6,-1,-27,-14
1519732154717442,-2,-4,-10,-2,-3,-1,4,-3
1519732154729473,0,6,6,4,1,-2,-14,0
1519732154729473,3,2,5,4,-4,2,38,23
1519732154738498,-2,0,-4,-2,0,-2,-29,-17
1519732154738498,-2,-1,2,0,6,-5,-26,-13
1519732154753539,-1,-3,-4,-4,-6,-8,-11,-6
1519732154753539,2,0,-4,1,2,1,6,4
1519732154754540,-7,-7,-6,-5,-5,-3,3,-4
1519732154754540,2,3,-1,5,10,5,-9,4
1519732154775598,3,10,9,4,3,4,7,-2
1519732154775598,-3,-2,4,-2,-5,0,-1,2
1519732154777602,3,1,-2,-1,-3,0,4,11
1519732154777602,-4,-6,-12,-1,-3,-3,-12,-9
1519732154798658,-2,0,-2,-5,4,6,12,3
1519732154798658,0,-1,3,0,-3,-1,-6,6
1519732154799660,-3,-4,-8,0,-4,-7,-34,-27
1519732154799660,5,10,18,11,2,0,8,6
1519732154813698,-2,-4,-3,-1,-2,-6,-17,-3
1519732154813698,-4,-3,-5,-4,4,1,-4,0
1519732154814700,-1,-4,-1,-2,-2,3,26,8
1519732154814700,1,-2,-2,-4,-3,-2,-8,-5
1519732154835756,0,2,1,-5,-2,-3,4,-5
1519732154835756,-4,-3,2,0,-4,-6,-26,-10
1519732154837763,-3,-2,-4,2,7,4,13,10
1519732154837763,4,2,7,4,-2,2,15,12
1519732154858822,-7,-6,-7,-5,-4,-4,15,-8
1519732154858822,0,-5,-6,-5,-4,-1,-10,1
1519732154859821,3,7,2,2,-2,0,1,-8
1519732154859821,-1,-2,-3,-6,-5,0,13,6
1519732154872855,1,-1,2,1,-2,-2,-6,8
1519732154872855,0,-3,-1,0,8,1,-10,-14
1519732154879874,-1,-5,-7,-2,-6,-2,1,2
1519732154879874,-2,-1,2,0,2,-2,-1,-2
1519732154895916,0,-3,-3,-2,-2,-2,-8,0
1519732154895916,-1,3,-6,-5,-1,-2,-3,2
1519732154897922,2,2,10,1,2,0,7,6
1519732154897922,7,11,11,6,2,1,7,6
1519732154926000,-6,-7,-2,-4,-4,-2,-17,-9
1519732154926000,-3,-5,-6,0,0,1,18,-1
1519732154928002,1,-6,-7,-5,0,-2,-9,2
1519732154928002,-7,-3,-1,-2,-2,-8,-14,-12
1519732154932012,2,6,4,3,2,3,7,-11
1519732154932012,-1,-1,2,-4,-6,-1,1,1
1519732154941042,-1,-3,-6,-2,-1,-4,-5,2
1519732154941042,0,-1,-2,-3,-1,1,-2,0
1519732154956078,1,-2,-3,0,1,-1,-10,0
1519732154956078,-5,-8,-5,2,0,1,6,-2
1519732154958082,3,9,6,3,0,2,23,7
1519732154958082,-1,-2,-3,-7,-7,-3,-3,4
1519732154978136,0,7,4,4,-2,-4,-21,-9
1519732154978136,7,11,11,8,6,4,2,3
1519732154980141,-6,-7,-4,-2,-2,1,5,1
1519732154980141,-2,-6,-8,-9,-4,-4,-12,3
1519732154993175,-9,-12,-14,-7,-6,-3,7,-6
1519732154993175,5,6,14,4,0,-2,0,10
1519732154999191,-5,-8,-6,1,-1,-3,-12,-21
1519732154999191,-1,5,3,-2,-2,-5,-16,-7
1519732155016237,4,6,5,3,3,1,0,11
1519732155016237,-5,-6,-5,-3,-6,-3,-1,-6
1519732155018246,0,-4,-5,-2,3,2,16,0
1519732155018246,-3,7,13,6,1,4,7,4
1519732155038295,2,-10,-15,-7,0,-1,-7,-3
1519732155038295,2,5,0,1,-3,0,4,-2
1519732155040301,4,13,20,11,3,1,0,1
1519732155040301,-3,-14,-17,-5,3,5,3,-6
1519732155052333,-7,-6,-1,1,1,1,-12,2
1519732155052333,5,10,-1,-2,-3,-4,2,-3
1519732155059353,-7,-13,-10,-7,1,-4,-4,-10
1519732155059353,0,5,2,1,-3,-4,-1,-3
1519732155075399,3,8,12,7,2,4,8,6
1519732155075399,-14,-14,-11,-12,-5,-4,-11,-12
1519732155077399,13,4,-18,1,-5,0,-5,-2
1519732155077399,-2,-8,11,2,0,-1,8,14
1519732155098455,12,17,-1,4,4,4,3,-1
1519732155098455,1,4,2,1,-1,0,15,7
1519732155100461,-2,6,9,-2,-2,-2,-17,-3
1519732155100461,-12,-17,-25,-13,1,0,17,2
1519732155112493,5,6,-6,2,-3,-3,-5,-4
1519732155112493,-5,-5,10,3,3,-4,-25,-19
1519732155121517,-6,-4,0,-2,-7,-2,-7,7
1519732155121517,3,-3,2,1,1,2,-4,-3
1519732155135554,-9,-14,-4,-6,-5,-2,-1,-2
1519732155135554,5,-2,-22,-6,-2,-4,-10,4
1519732155137568,4,12,26,7,0,1,3,5
1519732155137568,0,4,6,1,-1,4,10,8
1519732155159619,-4,-15,-3,-4,-1,-1,-5,3
1519732155159619,0,0,-15,-2,0,1,7,1
1519732155159619,2,-1,-1,-1,4,0,-13,-2
1519732155159619,3,0,-1,-2,-4,0,-1,-6
1519732155172652,1,2,-2,3,2,-3,-2,-2
1519732155172652,0,1,8,2,-2,-3,-2,8
1519732155179671,-5,1,0,-3,-2,-2,19,-3
1519732155179671,-2,-2,-2,-3,-5,-1,0,2
1519732155195714,-6,-10,-7,-7,-4,0,12,-2
1519732155195714,4,20,6,3,0,-3,-24,-8
1519732155197719,-2,-11,-4,2,1,0,27,10
1519732155197719,-3,0,-1,-1,1,-3,-7,0
1519732155218777,-5,-9,-9,-6,-2,-3,-17,-11
1519732155218777,1,13,4,0,-4,-3,8,3
1519732155219778,1,-20,-7,-5,-2,1,1,6
1519732155219778,8,25,12,6,0,-3,-9,-3
1519732155232812,-8,-25,1,-1,0,3,21,10
1519732155232812,2,7,0,0,1,4,-5,-1
1519732155239831,-6,-3,2,-4,-3,-6,-30,-11
1519732155239831,4,-3,-4,6,5,4,2,4
1519732155255874,3,21,15,5,1,-5,-11,-2
1519732155255874,-15,-29,-20,-11,-4,3,6,-16
1519732155257882,9,-20,-32,-11,-11,-12,2,11
1519732155257882,-10,52,57,9,3,2,-20,-12
1519732155278935,-3,-12,-12,-1,0,-3,-1,4
1519732155278935,1,-5,2,-1,0,2,11,2
1519732155279938,1,6,-3,0,5,9,24,10
1519732155279938,1,-16,-18,-7,-5,-2,-16,-11
1519732155291973,-6,5,0,-4,-1,-9,-38,-7
1519732155291973,-6,-22,-19,-3,-2,-7,-15,-27
1519732155300994,3,23,26,10,6,7,10,2
1519732155300994,2,-14,-15,-2,-1,11,40,20
1519732155316034,-1,9,4,-2,-7,-14,-22,1
1519732155316034,-6,-29,-13,-5,2,4,6,4
1519732155318039,-4,17,-2,-5,-4,-13,-16,-25
1519732155318039,2,-11,-1,2,-1,-6,-22,-10
1519732155338092,4,8,5,1,3,9,45,21
1519732155338092,5,9,7,1,-4,-6,-17,18
1519732155340098,-14,-10,-2,0,-2,-4,-18,-63
1519732155340098,-5,-16,-8,-7,-7,-3,18,11
1519732155352130,5,13,-2,4,2,3,-26,-22
1519732155352130,1,13,10,4,5,3,23,22
1519732155361155,2,-3,0,-2,3,6,21,26
1519732155361155,2,-1,-10,-1,-1,-11,-29,-13
1519732155376194,-1,-8,0,-3,-3,6,23,2
1519732155376194,-2,0,1,-2,8,3,-12,-12
1519732155377197,4,4,1,6,2,0,-5,15
1519732155377197,3,0,-1,-2,0,-1,-10,-6
1519732155398253,4,3,5,4,-2,2,32,17
1519732155398253,1,-12,-13,-5,-1,4,23,1
1519732155400258,-13,1,18,6,9,6,-38,-10
1519732155400258,2,7,-5,-4,-6,-16,-15,3
1519732155412290,-16,-13,-5,-9,-10,-5,9,-15
1519732155412290,3,-2,1,4,-1,-4,-20,-5
1519732155422317,10,-4,-10,2,2,8,39,36
1519732155422317,-4,12,5,-1,3,0,-59,-40
1519732155436355,2,1,3,-2,0,-3,-7,4
1519732155436355,1,-1,1,-5,-4,-2,0,4
1519732155437358,-7,-3,-8,-6,-7,-2,13,-3
1519732155437358,-1,-10,-3,2,-2,3,24,13
1519732155458416,6,5,-1,2,1,0,6,0
1519732155458416,1,7,9,3,1,-4,-32,-3
1519732155460418,-1,-4,-10,-4,-3,2,21,0
1519732155460418,-5,-13,-7,-4,-5,-5,-15,2
1519732155472450,-1,1,-9,-3,2,1,-5,-3
1519732155472450,6,9,15,4,-2,-1,28,16
1519732155481474,1,-8,9,3,0,-3,-19,-4
1519732155481474,1,-5,-8,4,-2,5,21,2
1519732155495511,-2,-1,-5,-4,2,-3,-21,6
1519732155495511,-1,9,4,1,-2,-5,-2,1
1519732155497517,3,-8,-9,-6,-6,-5,-2,0
1519732155497517,0,8,4,0,2,6,21,-4
1519732155518572,3,-6,1,-3,-4,0,-9,-5
1519732155518572,-2,9,-2,1,-1,3,30,21
1519732155519576,-10,0,12,7,3,-10,-39,-33
1519732155519576,1,-7,-6,1,3,5,28,10
1519732155532610,-1,5,-3,-3,-5,-1,-4,0
1519732155532610,4,-7,-4,-3,-3,-2,-3,1
1519732155540632,-1,4,-4,-1,-1,7,18,7
1519732155540632,-2,2,-1,-1,-1,-3,14,-2
1519732155555672,-4,-13,-4,-2,-1,-10,-44,2
1519732155555672,2,-12,-9,-2,2,3,-3,-13
1519732155561687,10,20,14,4,5,6,27,23
1519732155561687,-20,-3,5,-1,-3,-8,-24,-31
1519732155578733,5,-5,-7,3,3,8,14,14
1519732155578733,-8,-2,2,0,-5,-9,3,7
1519732155579735,4,8,-13,-3,-2,-6,-16,-4
1519732155579735,1,1,7,4,2,5,16,9
1519732155591775,5,9,10,5,7,7,31,9
1519732155591775,-8,-6,-2,1,-3,3,6,-15
1519732155600791,4,-7,-9,-4,-2,1,10,10
1519732155600791,8,-10,-11,-6,-4,0,24,24
1519732155614828,-19,-4,-2,-1,-3,-10,-44,-63
1519732155614828,-1,-1,-1,-5,-3,-1,9,4
1519732155621847,2,2,1,1,-2,-4,-8,-3
1519732155621847,2,-7,-4,-4,1,5,13,17
1519732155638893,-7,5,0,-2,-1,-3,-7,-21
1519732155638893,2,0,2,3,1,6,20,7
1519732155639896,-2,-3,1,-3,-1,-2,-21,-1
1519732155639896,-6,2,-2,-1,-1,-1,-14,-17
1519732155651927,2,-5,-7,-3,-2,4,20,15
1519732155651927,2,4,4,0,-4,-4,-2,21
1519732155660951,1,2,1,-4,-1,-1,-5,-2
1519732155660951,-8,-26,-17,-1,-5,-12,-31,-39
1519732155675995,6,20,20,4,5,9,15,8
1519732155675995,-2,-5,-5,-1,0,3,34,6
1519732155682007,-1,0,-9,-4,-4,3,11,21
1519732155682007,-12,-8,-1,-4,-4,-10,-14,-4
1519732155698050,-2,-8,-5,-2,-3,-7,-5,-24
1519732155698050,5,9,7,3,3,7,0,-3
1519732155700055,2,-3,-1,2,0,1,50,33
1519732155700055,0,6,-4,-3,-4,-8,-65,-26
1519732155712088,-1,-3,-3,-3,-1,0,16,15
1519732155712088,4,10,14,8,5,5,-5,1
1519732155722114,-2,-7,-5,-5,-1,-1,-5,-9
1519732155722114,10,8,3,1,-3,3,37,30
1519732155735148,-14,-4,1,1,0,0,3,-13
1519732155735148,-2,-9,-15,-17,-7,-10,-30,-10
1519732155742170,0,-1,2,4,-4,-5,-11,-5
1519732155742170,-3,1,0,-1,1,1,1,-12
1519732155758228,6,-1,2,2,0,5,9,11
1519732155758228,-1,-1,2,-2,1,-1,2,5
1519732155760216,-10,-7,-9,-1,-2,-7,-24,-28
1519732155760216,5,7,5,2,4,5,-15,13
1519732155781271,3,3,2,-1,0,5,31,6
1519732155781271,-8,-7,6,2,-3,-5,-20,-2
1519732155782274,-7,-7,-10,-6,-8,-15,-19,-16
1519732155782274,4,1,4,0,4,4,2,7
1519732155795309,7,0,-6,-2,-1,5,17,16
1519732155795309,1,5,2,2,1,-12,-51,0
1519732155802333,0,1,2,-2,-5,1,-4,-11
1519732155802333,1,0,-1,4,-2,0,35,10
1519732155818370,-1,-2,-5,-6,-3,-5,-27,4
1519732155818370,1,1,-3,-3,2,6,3,2
1519732155821378,-2,-1,-1,-3,-2,0,8,-4
1519732155821378,-3,-1,-2,-4,-6,-5,0,6
1519732155841432,-3,-6,2,6,1,-8,-9,-7
1519732155841432,-2,-1,-9,0,-1,3,19,-8
1519732155842441,4,3,6,0,-1,1,-15,13
1519732155842441,-3,5,10,-1,-1,-8,1,-13
1519732155855469,-6,-6,-4,-3,-2,0,-11,-14
1519732155855469,-2,-4,-3,2,1,0,-10,-15
1519732155862487,4,3,1,-2,-2,3,27,14
1519732155862487,-1,-4,-5,-5,-3,-7,-15,-4
1519732155878530,0,-1,-3,0,4,3,-2,4
1519732155878530,2,2,7,6,5,6,17,13
1519732155880536,-3,0,5,0,2,3,-21,-8
1519732155880536,-8,-8,-15,-3,-5,-3,9,-5
1519732155900589,-3,-1,-3,-6,-10,-16,-40,-6
1519732155900589,-6,-4,-3,0,-4,-4,20,-5
1519732155903597,10,0,-3,-3,2,7,36,36
1519732155903597,-5,-2,3,-2,0,-1,-43,-41
1519732155914626,2,1,1,7,5,8,17,20
1519732155914626,-4,1,-4,-5,-7,-11,-41,-17
1519732155924654,-4,-3,3,-1,6,-3,-41,-5
1519732155924654,1,0,-7,-4,-1,3,35,4
1519732155938691,8,1,-2,1,2,3,27,12
1519732155938691,-6,4,12,1,-1,2,6,0
1519732155939693,-3,2,3,-1,-5,-9,-17,-13
1519732155939693,-2,-3,-5,-5,-2,3,3,-3
1519732155960749,3,-2,-10,0,-1,-4,-5,17
1519732155960749,6,1,2,-4,-2,2,6,10
1519732155962754,-9,0,2,6,5,1,-18,-27
1519732155962754,4,3,2,3,3,2,-5,20
1519732155975792,-5,0,4,-2,-8,-4,11,-11
1519732155975792,6,-8,-13,-1,4,9,41,23
1519732155981805,-11,-7,-10,-6,-5,-1,-40,-37
1519732155981805,6,7,9,5,4,3,-8,12
1519732155998850,1,1,2,0,2,6,4,7
1519732155998850,-1,-4,0,0,5,-5,-34,-21
1519732155999853,-3,0,-4,-3,-4,0,16,6
1519732155999853,2,4,4,7,3,7,14,15
1519732156021912,2,-3,-3,-5,-4,1,18,4
1519732156021912,-14,-5,-4,0,-5,-17,-67,-45
1519732156022914,-1,-5,-7,-7,-3,0,13,0
1519732156022914,8,1,-4,1,2,1,9,6
1519732156034947,2,8,16,1,-5,3,9,5
1519732156034947,7,3,0,1,3,-1,19,17
1519732156041968,0,0,2,2,-5,-13,-37,-18
1519732156041968,-2,-2,2,5,3,4,11,5
1519732156059013,-4,-5,-11,-4,0,-3,-20,-15
1519732156059013,-3,-4,-4,-5,-4,0,7,0
1519732156060020,-3,-2,-6,0,-1,1,18,1
1519732156060020,4,5,5,-4,-1,0,4,7
1519732156081069,-2,-2,5,0,-4,-15,-34,-1
1519732156081069,-4,-2,1,2,-3,-2,1,0
1519732156082072,0,-5,-2,0,-3,-3,1,-9
1519732156082072,-5,-11,-15,-3,-2,1,0,-3
1519732156095106,-1,4,2,0,5,1,-1,-4
1519732156095106,4,4,7,3,2,4,9,1
1519732156102125,8,8,12,2,3,0,3,26
1519732156102125,-6,-4,-7,-2,-4,-8,-15,-14
1519732156118167,-9,-7,-1,-10,-8,-5,-23,-23
1519732156118167,0,-2,-12,-2,-1,-3,-13,-2
1519732156120173,7,4,4,8,3,5,56,34
1519732156120173,-3,2,6,-4,-5,-7,-33,-18
1519732156141237,1,1,-5,0,6,7,15,4
1519732156141237,3,5,11,4,0,1,3,2
1519732156142237,-3,-3,-8,-4,3,5,5,-8
1519732156142237,0,-7,-11,-8,-2,-5,-3,12
1519732156155267,5,2,-1,2,-1,-1,0,11
1519732156155267,-10,-1,7,-11,-9,-5,-11,-13
1519732156169304,-4,-3,-4,3,1,0,-3,-12
1519732156169304,3,2,0,3,-2,5,33,15
1519732156178327,2,2,4,7,4,1,-11,-8
1519732156178327,3,3,-4,2,2,3,-8,0
1519732156180333,-1,-1,4,-6,-5,-7,-9,-1
1519732156180333,-1,-5,-10,-3,-2,-3,-2,4
1519732156201390,-2,-2,2,2,0,3,25,8
1519732156201390,2,-2,-5,1,-2,-3,-14,5
1519732156203394,-10,-10,-17,-13,-5,-3,1,-16
1519732156203394,2,3,9,5,0,-3,-2,-10
1519732156214423,3,10,9,0,-1,4,15,1
1519732156214423,-1,-3,4,4,6,2,7,9
1519732156223452,2,-3,-5,-2,-3,1,-2,2
1519732156223452,-7,-6,-4,-7,-2,-1,0,-4
1519732156238488,-5,-14,-24,-7,-2,3,8,-1
1519732156238488,2,11,16,2,-2,-6,-15,-7
1519732156240493,1,1,-1,0,-2,0,3,7
1519732156240493,2,0,4,2,4,4,3,5
1519732156260550,-3,-2,4,6,-3,-6,10,-8
1519732156260550,-7,-15,-24,-13,-6,-3,-5,-4
1519732156262552,4,-1,-2,6,-2,0,-9,0
1519732156262552,5,18,24,8,1,4,18,7
1519732156274591,-4,-6,-5,-3,1,-4,-9,-4
1519732156274591,-1,-4,-12,-5,-2,-1,9,-3
1519732156283608,0,6,-1,-4,0,5,21,6
1519732156283608,-9,-22,-17,-9,-3,-4,-25,-11
1519732156298648,5,6,9,7,-1,-3,-12,-1
1519732156298648,0,3,5,0,1,3,14,-1
1519732156299651,-6,-7,-4,-4,-5,-3,-5,-2
1519732156299651,6,5,-4,0,0,0,7,11
1519732156321709,-8,-4,-2,-3,2,1,-15,-14
1519732156321709,-6,-10,-5,0,1,-2,-7,-13
1519732156323714,9,15,8,-1,1,-1,29,15
1519732156323714,-2,-3,-1,4,1,-5,-33,-14
1519732156334744,-2,0,-1,-7,-10,-5,-5,4
1519732156334744,3,-1,-5,0,2,6,12,0
1519732156343770,-1,2,11,8,4,3,-7,-3
1519732156343770,-3,0,-2,-4,-5,2,35,5
1519732156358814,0,-2,-5,-3,3,-6,-15,7
1519732156358814,-2,-4,-17,-9,-5,1,9,-10
1519732156359815,0,-2,4,0,-1,-7,-25,-6
1519732156359815,0,2,-1,-1,0,1,8,2
1519732156380866,-1,-3,8,2,-2,2,5,-5
1519732156380866,0,3,-1,-2,0,0,7,4
1519732156382872,0,-5,1,1,2,-3,-16,-2
1519732156382872,2,4,2,2,0,2,9,3
1519732156394904,1,10,3,0,2,5,6,3
1519732156394904,0,8,7,4,1,-5,-17,-2
1519732156403928,-10,-30,-16,-5,-3,-1,-5,-12
1519732156403928,4,20,6,3,4,2,0,0
1519732156418972,1,-13,-8,-1,-1,5,9,6
1519732156418972,1,-3,-2,-1,-4,-3,-22,15
1519732156420973,-2,14,5,-1,-1,-1,0,-11
1519732156420973,-7,-8,-7,-4,-1,-4,-13,-11
1519732156441038,1,-4,-17,-9,-2,0,-2,-1
1519732156441038,4,7,11,4,-3,0,20,6
1519732156443033,5,4,13,13,8,4,10,8
1519732156443033,2,-3,2,-3,-3,2,-3,3
1519732156455064,-5,0,-11,0,3,4,-2,-3
1519732156455064,-5,-7,1,-2,-3,-5,14,-7
1519732156464088,-6,-9,-10,-5,-6,-2,-10,-7
1519732156464088,2,8,9,5,0,-6,4,0
1519732156478125,-2,-6,-2,-4,-2,-1,5,9
1519732156478125,-2,-5,-12,-9,-3,-3,-15,-3
1519732156480131,0,7,7,6,7,0,-6,-6
1519732156480131,-1,-9,-7,-3,-1,1,5,3
1519732156501187,0,4,6,3,-3,-5,-10,-5
1519732156501187,2,9,8,-3,-7,1,16,5
1519732156503192,3,4,4,0,8,5,26,12
1519732156503192,-8,-16,-6,-2,-3,-2,-22,-19
1519732156514221,4,8,2,-3,-4,-4,1,6
1519732156514221,0,-3,7,5,1,0,0,-9
1519732156524250,0,-2,-8,-7,-5,1,10,7
1519732156524250,-5,-8,-8,-8,-4,0,-2,4
1519732156538285,-2,-5,-1,3,6,1,-3,-9
1519732156538285,0,6,2,1,1,2,6,4
1519732156540293,-1,4,2,0,-2,-2,-16,-11
1519732156540293,-2,-1,1,-2,-1,-2,-6,-2
1519732156561347,-2,-6,-6,-4,-5,-5,-10,-8
1519732156561347,-4,-11,-7,-5,1,1,9,6
1519732156562351,2,5,-5,3,3,6,2,4
1519732156562351,4,4,2,-2,-3,-8,-20,-3
1519732156574382,-2,-1,2,1,0,-1,-2,-4
1519732156574382,-2,4,2,-2,-2,-1,4,1
1519732156583405,-5,-6,-1,-1,-1,-4,-7,-2
1519732156583405,-4,-4,-7,-8,-5,-1,15,6
1519732156598445,8,7,-1,4,2,-2,-10,-6
1519732156598445,-2,-4,3,6,2,1,9,-5
1519732156600452,-2,4,5,-3,-5,-3,-18,2
1519732156600452,-1,-3,-8,1,9,4,18,-2
1519732156621507,-7,-7,-2,-6,-4,-9,-35,-5
1519732156621507,1,0,3,4,5,4,4,-3
1519732156623512,-2,-11,-8,-5,-5,-5,-6,-5
1519732156623512,5,6,3,5,-1,3,13,5
1519732156634541,-6,-6,-1,-4,-2,-5,-9,-1
1519732156634541,2,-4,-9,-1,-4,1,-2,-2
1519732156643565,0,-7,-1,-4,0,1,2,4
1519732156643565,0,8,6,6,3,2,-2,2
1519732156665624,-1,2,2,-3,-1,1,8,-1
1519732156665624,-1,1,-2,1,-3,-7,-10,-5
1519732156667630,-4,-13,-11,-6,-1,-1,4,3
1519732156667630,4,17,9,3,-4,-4,-8,-3
1519732156680664,-5,-6,2,-1,-2,0,8,7
1519732156680664,2,5,-1,4,5,2,-9,0
1519732156682669,3,5,-1,-1,-5,-2,-2,-3
1519732156682669,-4,-9,-4,-4,2,0,0,3
1519732156703725,4,9,-3,3,1,1,0,-1
1519732156703725,-7,-6,14,-3,-3,1,5,1
1519732156705730,6,3,-2,2,0,2,10,6
1519732156705730,-2,-2,6,3,1,2,24,9
1519732156718765,-5,-1,-5,-2,-4,-6,-33,-18
1519732156718765,-1,-11,-13,-5,-1,1,7,6
1519732156719768,0,13,0,-2,0,-3,-29,-18
1519732156719768,-5,-7,4,-5,-3,-2,10,3
1519732156740824,3,0,4,1,3,4,22,11
1519732156740824,-2,-4,-6,0,0,-1,-1,4
1519732156742830,-3,-7,-4,-5,-7,-7,-9,-4
1519732156742830,-2,6,5,-1,4,-2,-22,-14
1519732156763885,0,-3,-5,3,0,0,15,4
1519732156763885,2,9,6,0,-1,-3,-25,-7
1519732156764888,3,15,19,7,1,3,16,10
1519732156764888,-1,-12,-6,-1,-1,-3,-16,-1
1519732156778925,-2,-3,-16,-6,-3,3,12,-4
1519732156778925,-2,-3,7,-3,-3,-2,23,11
1519732156779928,-3,-3,-1,1,5,-2,-19,-15
1519732156779928,-1,-2,0,3,-4,-4,-14,-7
1519732156800984,-4,-1,1,-2,2,5,10,11
1519732156800984,-3,-8,-17,-3,-3,-3,-9,-17
1519732156802990,0,-1,-3,-3,0,2,16,5
1519732156802990,-1,0,-4,-3,-2,0,-7,-1
1519732156823043,1,-3,3,1,-1,2,4,5
1519732156823043,-6,-3,-6,-5,0,-6,-14,-4
1519732156825053,-2,-6,-9,-1,-3,-2,9,5
1519732156825053,4,5,0,4,4,2,-3,-3
1519732156838083,1,3,15,3,-1,-1,-5,-4
1519732156838083,3,3,0,-1,-1,2,-1,0
1519732156845101,-3,0,-7,-3,-5,-7,-9,0
1519732156845101,-3,-19,-16,-5,-4,4,31,10
1519732156861144,-4,2,2,-3,2,-2,-24,-8
1519732156861144,4,6,-6,-1,2,0,0,8
1519732156867160,-1,6,16,6,1,-1,-2,-21
1519732156867160,4,3,5,1,0,-6,1,3
1519732156883202,3,2,8,5,2,-2,5,6
1519732156883202,-9,-9,-7,-5,-3,1,1,-10
1519732156885209,-2,-3,-6,-1,-1,-2,0,1
1519732156885209,-2,-1,-6,-4,-2,-1,-14,-3
1519732156898242,0,-6,-3,-2,-2,-3,3,-1
1519732156898242,9,3,0,4,2,3,7,4
1519732156904258,-9,-6,8,2,1,-3,-4,-2
1519732156904258,0,-2,-5,-3,-3,0,-16,-11
1519732156921304,4,0,1,2,1,2,15,4
1519732156921304,3,4,-1,-2,1,3,-6,8
1519732156923310,5,-11,-11,-2,-2,2,16,17
1519732156923310,-3,9,6,-4,-5,-5,-15,8
1519732156943363,-5,4,1,7,4,-1,-15,-22
1519732156943363,8,10,10,6,2,4,18,10
1519732156945368,0,-5,-5,-4,-2,-5,-20,0
1519732156945368,3,-3,-2,3,3,5,13,7
1519732156958404,-1,-1,-5,-11,-5,-11,-15,1
1519732156958404,12,3,2,5,-1,0,12,15
1519732156964418,-7,6,5,1,1,-2,0,-15
1519732156964418,-4,-3,2,1,-4,-2,10,13
1519732156980461,-6,-7,-7,-4,-6,-7,-16,-17
1519732156980461,3,-8,-5,-2,-1,2,13,12
1519732156982467,-5,-4,-10,-6,-4,-1,4,-12
1519732156982467,13,4,-3,1,2,1,-3,12
1519732157003527,-4,-6,-2,-2,2,3,1,-6
1519732157003527,-6,5,6,-1,-3,-2,-6,6
1519732157006531,6,-5,-6,-1,0,2,2,-3
1519732157006531,-3,2,1,1,1,0,23,5
1519732157017560,-6,-4,-5,-5,-5,0,-6,8
1519732157017560,6,4,6,0,1,0,-4,3
1519732157024588,2,3,3,4,4,4,-1,-16
1519732157024588,-8,-7,-5,-2,-2,-1,7,2
1519732157041627,8,4,0,-2,-4,1,13,16
1519732157041627,-31,-14,-9,-6,-3,-10,-43,-61
1519732157042628,18,6,1,1,0,6,11,21
1519732157042628,-5,-6,-2,-3,-3,-11,-33,-22
1519732157063683,9,2,7,7,2,7,32,5
1519732157063683,-5,2,-3,-7,-8,-7,-3,5
1519732157064687,0,-2,0,4,2,3,17,16
1519732157064687,-5,-2,-3,-3,0,-3,-19,-23
1519732157077720,12,8,-5,0,-2,-3,-2,20
1519732157077720,-8,-3,11,3,2,-3,-16,-20
1519732157084739,9,-5,-7,-7,-4,-3,-10,28
1519732157084739,0,-2,-6,-3,-3,-2,7,-3
1519732157100782,-7,3,6,2,2,2,9,0
1519732157100782,8,-1,-3,2,-2,-4,-18,-8
1519732157102787,-1,2,2,0,-3,-2,-20,0
1519732157102787,-12,-5,-1,0,-3,2,27,-13
1519732157123843,10,3,-3,-3,-1,-5,-31,12
1519732157123843,-12,-7,-6,-1,0,-6,-18,-38
1519732157124849,-7,1,2,-1,1,3,13,0
1519732157124849,13,5,4,2,2,7,5,20
1519732157137880,-20,-4,0,-3,-3,-9,-2,-30
1519732157137880,5,-4,-3,1,-1,1,4,-1
1519732157144899,-10,1,7,0,-2,-5,1,-5
1519732157144899,2,4,1,-1,0,0,-23,-7
1519732157160942,-7,-7,-4,-2,-2,3,12,-11
1519732157160942,-5,-5,-3,-1,2,1,11,8
1519732157162947,-7,-2,1,0,1,-3,-12,-16
1519732157162947,-4,-3,-4,-3,-1,-2,2,-5
1519732157183000,11,1,4,1,2,6,11,31
1519732157183000,-8,-3,-3,-4,-5,0,7,-3
1519732157185006,-6,-3,-5,0,2,2,10,2
1519732157185006,6,1,-1,-1,-2,1,-7,14
1519732157197038,-8,-2,0,0,-2,-5,-27,-28
1519732157197038,9,2,0,-1,-1,-1,13,9
1519732157208095,1,-1,-4,-5,-5,-4,-1,-2
1519732157208095,11,0,-2,3,5,4,-8,19
1519732157221102,-10,1,0,-1,3,-5,-16,-8
1519732157221102,5,3,-2,-2,0,3,13,23
1519732157224112,13,1,0,-3,-5,0,31,14
1519732157224112,-13,-8,-7,-3,-2,-4,-14,-6
1519732157243160,3,-2,-5,-4,-2,-3,4,-3
1519732157243160,13,5,5,2,1,4,9,18
1519732157245166,-16,-1,-1,-2,0,-4,-22,-17
1519732157245166,5,-1,-1,1,2,4,8,0
1519732157257197,-1,-3,-7,-7,-6,-4,2,2
1519732157257197,-6,-4,-3,2,0,-4,5,-6
1519732157266222,2,3,-4,-1,3,-1,-33,7
1519732157266222,-2,4,7,2,0,-1,1,-16
1519732157281261,0,-3,3,3,6,8,8,2
1519732157281261,6,-1,-5,-4,-3,-3,-8,21
1519732157282264,-5,-2,-6,0,0,-1,-6,-24
1519732157282264,-13,2,5,1,0,-3,-7,-20
1519732157304323,5,1,5,-2,-3,-2,-15,5
1519732157304323,-4,-2,0,1,2,-1,12,-7
1519732157306328,-4,-5,-5,-3,0,2,25,2
1519732157306328,2,0,-9,-2,-3,-2,5,11
1519732157317357,4,4,5,1,4,11,41,8
1519732157317357,-4,1,7,7,1,-7,-20,-13
1519732157326392,-1,-2,-1,0,-2,-8,-44,-10
1519732157326392,0,-2,-4,-3,0,-1,13,-1
1519732157341424,0,0,-2,-2,-2,-1,6,8
1519732157341424,1,-2,-5,-2,-3,0,4,3
1519732157342425,1,-2,-1,1,1,-4,-3,1
1519732157342425,-8,-6,-7,-5,-5,-3,-4,-19
1519732157363480,-1,0,-5,-1,0,0,-10,-5
1519732157363480,-2,0,4,0,5,7,11,2
1519732157365486,-3,1,1,-1,-5,-3,16,9
1519732157365486,3,0,1,-1,-2,-4,-8,6
1519732157377518,-2,-3,-6,-5,0,1,3,-6
1519732157377518,-1,-3,-4,-1,-3,-6,-4,3
1519732157386542,3,-2,3,2,0,7,29,8
1519732157386542,-1,0,2,-3,-7,-11,-20,-12
1519732157400580,0,3,2,5,3,0,-7,-3
1519732157400580,-3,0,-5,-7,-4,0,23,4
1519732157402585,-2,-4,-4,-2,2,0,-22,-10
1519732157402585,-4,-3,-2,-2,-1,-2,-8,-3
1519732157423640,3,-1,3,3,-1,-1,4,1
1519732157423640,-5,1,-2,0,0,-3,-11,-7
1519732157424650,0,-1,1,-3,-3,0,10,-1
1519732157424650,2,2,1,4,8,11,56,17
1519732157436678,-1,1,2,0,2,-7,-19,2
1519732157436678,6,4,4,5,2,9,-3,3
1519732157445699,-7,-3,-6,-7,-4,-14,-35,-20
1519732157445699,-7,-5,-3,-3,-4,-1,2,-10
1519732157460739,-3,-1,-5,-3,1,3,16,1
1519732157460739,-1,1,0,2,9,7,-21,-3
1519732157462744,3,4,6,0,-10,-4,9,8
1519732157462744,2,-1,1,1,-1,-4,3,0
1519732157483800,-6,-7,-8,-4,0,-3,-2,-8
1519732157483800,-1,-2,1,-1,-1,-1,-27,-10
1519732157484803,1,-2,-1,1,1,-5,-32,-4
1519732157484803,-2,-2,-5,-4,-5,-4,14,12
1519732157496835,-1,0,2,2,1,0,-19,1
1519732157496835,-5,-4,-4,-2,-6,2,16,-21
1519732157506862,-1,-2,-3,-2,-1,-2,18,10
1519732157506862,0,1,0,0,-4,-6,-34,-8
1519732157521902,-1,-5,-3,-1,6,4,10,6
1519732157521902,0,-2,-2,-1,-4,-1,11,0
1519732157522904,2,4,5,1,3,5,3,5
1519732157522904,-3,-4,-2,-4,-4,-2,-26,-14
1519732157543960,-1,4,6,3,-2,0,5,-8
1519732157543960,-3,-2,-1,-3,-1,-4,-14,0
1519732157544963,-1,-2,-4,-3,-1,6,19,7
1519732157544963,0,1,-3,-4,2,-5,-9,7
1519732157556995,-4,-3,-8,-5,-2,-4,-19,1
1519732157556995,-4,-2,2,-1,-2,-4,-15,-19
1519732157566019,2,3,7,9,0,3,7,4
1519732157566019,3,-2,-1,-2,2,7,14,9
1519732157581059,-2,1,-4,-3,-2,-7,-20,-14
1519732157581059,1,-2,-6,-4,-2,-2,29,16
1519732157583065,-3,1,0,1,2,1,-6,-10
1519732157583065,0,1,4,0,0,7,17,2
1519732157604121,0,-5,-7,-1,-6,-4,-1,-4
1519732157604121,5,0,-4,-2,4,-3,-1,11
1519732157606126,-1,2,7,1,1,8,38,3
1519732157606126,-4,-4,-1,4,0,-3,-26,-22
1519732157626185,-1,0,0,-3,-6,-5,4,4
1519732157626185,-4,-6,-5,-5,-7,-6,-8,-2
1519732157627182,2,3,2,0,1,1,4,-1
1519732157627182,0,2,2,-1,5,0,-30,3
1519732157641224,-2,-6,-6,2,-5,-2,2,4
1519732157641224,2,-5,-3,2,1,0,2,-5
1519732157642222,2,6,8,2,1,-3,-13,3
1519732157642222,1,-1,1,1,1,4,13,3
1519732157663278,-3,-2,-6,-6,-3,-1,-1,-2
1519732157663278,-2,-2,-5,-4,-3,0,0,4
1519732157665283,-3,-10,-18,-5,-2,-4,-13,-7
1519732157665283,7,11,20,9,4,3,17,8
1519732157686339,-5,-4,0,2,3,0,22,1
1519732157686339,-4,-4,-7,-8,-4,-1,-6,-4
1519732157687342,-4,-12,-13,-6,-5,-2,-6,-7
1519732157687342,4,2,-2,0,-4,0,-3,3
1519732157701379,2,11,18,5,4,3,8,1
1519732157701379,-4,-1,6,3,-1,-2,-5,4
1519732157702382,-7,-10,-19,-11,-4,-7,-26,-18
1519732157702382,4,5,7,0,2,6,31,13
1519732157723438,0,6,6,7,3,2,-20,-14
1519732157723438,4,5,2,-2,-1,0,-13,6
1519732157725451,-6,-7,-8,-4,-1,-3,-15,-10
1519732157725451,-5,-8,-12,-5,-5,-2,7,-4
1519732157745496,-2,-8,-5,-2,1,2,0,0
1519732157745496,4,11,11,3,3,6,19,7
1519732157747502,2,5,6,1,-1,-3,1,6
1519732157747502,-4,-4,-4,0,-1,1,-6,-6
1519732157760537,-1,-4,-7,-4,-2,-3,0,2
1519732157760537,-3,-3,-1,0,0,-1,-8,-5
1519732157762542,-5,-10,-6,-4,-1,2,11,5
1519732157762542,6,14,10,3,0,-4,-12,-9
1519732157783598,0,-1,-1,-1,-6,-4,6,7
1519732157783598,-2,-7,-3,-1,3,0,3,-5
1519732157785605,2,6,1,0,1,3,9,0
1519732157785605,-4,-6,-2,-5,-3,-4,1,6
1519732157805656,0,-4,-5,1,3,0,-16,-4
1519732157805656,-4,3,-1,-1,-4,-5,-3,-9
1519732157808666,-3,-5,0,-3,-2,1,-3,-4
1519732157808666,1,-1,-4,0,1,6,14,10
1519732157820696,1,1,2,-2,-3,-7,-10,-6
1519732157820696,-3,-3,1,1,1,0,13,-1
1519732157826718,1,0,0,1,-1,-4,-10,5
1519732157826718,1,-2,-2,5,3,2,3,-3
1519732157843758,-1,2,3,-5,-4,-5,-13,-7
1519732157843758,-7,-6,-9,-5,-5,1,19,-1
1519732157844762,3,-2,-2,4,-1,-6,-7,-3
1519732157844762,-6,3,3,3,2,-3,-13,-19
1519732157865816,10,3,0,-1,-2,3,13,22
1519732157865816,-1,-5,-7,1,1,-2,-8,-10
1519732157867822,-4,4,10,1,0,1,12,-3
1519732157867822,0,-1,2,2,-2,0,7,10
1519732157879854,-2,0,-1,-7,-7,-3,3,-8
1519732157879854,-7,-6,-10,-4,2,-5,-28,-9
1519732157894894,-1,1,4,2,4,3,8,-8
1519732157894894,-2,-3,-4,0,-1,-6,-8,-2
1519732157903918,-2,1,5,-1,-3,1,21,15
1519732157903918,8,15,-1,-2,-3,-2,-10,-1
1519732157905923,2,2,3,2,-1,0,-6,-5
1519732157905923,-7,-14,-7,-7,-1,-1,-1,1
1519732157925979,4,-7,-9,4,3,5,15,2
1519732157925979,0,17,20,3,-3,-6,1,-3
1519732157927982,7,8,4,0,3,3,11,16
1519732157927982,-2,-11,-13,-10,-7,-7,-12,-13
1519732157940015,-4,-4,-1,1,2,2,2,0
1519732157940015,-1,-16,-11,-2,-5,1,-2,6
1519732157947032,1,5,-1,-6,-4,-7,7,4
1519732157947032,4,1,0,10,6,1,2,9
1519732157963075,-1,-4,0,-1,2,3,-5,-3
1519732157963075,0,1,1,0,-5,-1,13,11
1519732157965081,-2,-5,-4,2,1,4,5,0
1519732157965081,-5,-6,-17,-10,-2,-5,-21,-4
1519732157986136,2,-3,-2,5,1,-2,-2,-8
1519732157986136,4,6,10,3,-2,2,-3,1
1519732157987139,-4,3,9,3,2,-1,-4,2
1519732157987139,0,0,-2,-2,-3,-1,-2,-7
1519732158000174,-6,-2,-12,-13,-8,-5,8,4
1519732158000174,4,-5,-2,4,10,-1,-21,-8
1519732158007198,0,-5,0,2,-2,-2,1,-1
1519732158007198,5,7,12,7,0,-2,-1,1
1519732158023241,-3,1,4,-1,-2,1,-4,-4
1519732158023241,-5,-12,-7,-4,-2,-3,3,7
1519732158026245,-1,0,-3,-1,0,0,-11,-6
1519732158026245,-14,-2,-4,-12,-8,0,4,-12
1519732158046298,5,5,-1,4,6,1,1,6
1519732158046298,0,2,8,2,1,0,2,6
1519732158047299,2,-1,3,1,1,4,3,0
1519732158047299,-3,-2,-4,-4,-3,-4,-3,-5
1519732158060364,5,9,4,-3,-2,1,13,2
1519732158060364,-4,-14,-8,-1,0,2,-4,-3
1519732158067352,2,12,-7,-6,-4,-6,-13,-9
1519732158067352,3,-4,5,0,-3,-5,6,12
1519732158083395,-5,-4,-4,-1,-2,2,0,-8
1519732158083395,-1,0,2,4,5,3,11,-1
1519732158085401,-2,4,1,0,0,0,-3,-1
1519732158085401,1,-2,-3,-2,1,7,12,1
1519732158106457,-4,-2,0,5,0,-1,-4,2
1519732158106457,-2,-1,0,-4,-4,-1,4,3
1519732158108463,-3,2,-2,0,-6,-5,-7,-5
1519732158108463,2,3,2,0,7,0,-8,1
1519732158119491,3,7,3,0,-2,-1,11,-2
1519732158119491,-3,-5,-4,-1,2,-3,-20,-4
1519732158128515,-2,-12,-11,0,0,3,11,5
1519732158128515,-2,2,5,4,-4,-2,20,13
1519732158143556,-2,4,2,-4,-4,-5,-28,-15
1519732158143556,-6,-10,-13,-1,1,-1,9,-17
1519732158145560,0,6,11,-2,-1,0,0,2
1519732158145560,0,-3,-6,-4,-1,1,10,5
1519732158165614,1,3,3,3,2,-1,-6,2
1519732158165614,3,5,5,-3,-4,-2,-2,0
1519732158167620,-13,-20,-9,-5,-2,-1,-8,0
1519732158167620,1,19,8,3,3,1,-9,-13
1519732158179651,-4,-14,-3,0,-1,-5,2,-5
1519732158179651,11,14,10,1,-1,1,-6,10
1519732158188675,-2,4,3,2,1,3,9,1
1519732158188675,-4,-19,-12,-7,-7,-8,-12,-6
1519732158203715,0,-7,-7,-7,-2,0,-2,-2
1519732158203715,-5,11,-1,0,-1,3,18,12
1519732158206724,4,-1,2,5,7,0,-16,0
1519732158206724,-1,3,6,0,-5,-3,3,-5
1519732158225775,7,-4,-6,-3,-2,1,12,8
1519732158225775,-3,-1,-4,-7,-3,-4,-25,-6
1519732158227784,2,1,-5,-4,-2,-1,9,3
1519732158227784,6,-2,-1,-2,-2,3,-3,3
1519732158239812,-3,7,4,3,3,-1,2,6
1519732158239812,-5,-8,-1,-2,-4,-6,-22,-19
1519732158248836,10,8,-2,1,2,5,13,20
1519732158248836,-7,-7,-4,-3,-2,-7,-21,-3
1519732158263875,5,3,1,-3,-4,0,-7,5
1519732158263875,1,8,7,7,4,5,20,3
1519732158264878,2,-4,3,3,2,-4,-13,3
1519732158264878,1,1,-2,-1,-1,0,-6,-8
1519732158285934,-4,-7,-6,-4,-1,1,1,2
1519732158285934,2,-7,-10,-5,-4,-5,-5,0
1519732158287940,-4,-1,3,-2,1,4,8,-7
1519732158287940,4,19,5,-1,-3,-2,21,13
1519732158299971,-6,-3,1,6,5,1,-12,3
1519732158299971,1,3,4,3,0,-1,-3,-9
1519732158308998,-1,-4,-1,-2,-4,0,27,-8
1519732158308998,1,1,0,4,3,0,-17,1
1519732158324042,3,1,-1,-5,-6,-4,3,-4
1519732158324042,-6,-6,-3,-3,-2,-2,5,5
1519732158325041,3,-6,-4,1,1,-4,-5,-1
1519732158325041,-4,7,3,-2,-1,0,0,-8
1519732158346094,-10,-4,-8,-3,-3,0,2,-8
1519732158346094,-7,-9,1,3,1,-1,11,-6
1519732158347097,-2,0,-1,-4,-9,-10,-23,5
1519732158347097,3,-12,-10,-1,5,0,-11,-2
1519732158360136,-25,-3,-3,-3,-3,-1,-6,-29
1519732158360136,4,5,2,0,1,-4,-16,-8
1519732158385198,12,17,5,0,0,3,3,10
1519732158385198,-5,-7,-1,1,-2,-1,24,15
1519732158386201,8,-7,-6,-3,1,-1,-8,9
1519732158386201,3,-2,-8,-5,-2,2,-1,4
1519732158389208,-7,-7,-1,-5,-6,-8,-11,-23
1519732158389208,5,1,2,4,6,10,4,6
1519732158406254,-2,4,2,5,1,-3,-14,-12
1519732158406254,0,7,9,1,-3,3,16,11
1519732158408261,-6,-7,-8,-2,1,-4,-11,-16
1519732158408261,9,3,1,2,-2,-4,-23,-1
1519732158419288,-7,-5,-2,-6,-1,4,38,8
1519732158419288,10,7,2,4,5,8,11,11
1519732158428313,-16,-7,-4,-2,-2,-4,-19,-33
1519732158428313,8,2,4,1,3,2,1,14
1519732158443353,-7,1,0,1,0,-2,-15,-26
1519732158443353,3,-1,-4,-2,-7,1,9,17
1519732158445358,-5,-3,-5,-3,4,5,-5,-4
1519732158445358,-20,-11,-4,-3,-5,-2,4,-32
1519732158466415,16,8,7,4,2,0,5,4
1519732158466415,-2,0,-2,-1,1,2,-6,-4
1519732158467417,0,-1,0,-2,-1,-1,7,6
1519732158467417,5,0,-2,0,0,-3,-8,8
1519732158479448,-8,-7,-1,-2,-2,0,17,3
1519732158479448,-1,-4,-4,-2,-4,-6,1,3
1519732158488473,-1,1,-2,4,2,2,7,-4
1519732158488473,2,0,9,1,0,-1,-1,2
1519732158503513,23,5,-5,3,0,-3,-33,17
1519732158503513,-26,-15,-3,-7,-5,-6,9,-21
1519732158507529,5,-6,-3,1,-2,-1,-5,19
1519732158507529,3,6,0,2,3,5,-10,1
1519732158525576,-1,2,5,2,-4,9,25,-1
1519732158525576,10,3,-1,-1,-1,-8,-7,3
1519732158527578,-4,1,0,-2,-2,2,20,3
1519732158527578,-7,-5,-4,1,6,8,5,10
1519732158539609,2,2,-2,-6,-3,-6,-6,-17
1519732158539609,-10,-3,-6,0,3,1,-2,-17
1519732158548633,9,2,4,6,5,5,1,16
1519732158548633,2,1,-2,-4,-7,-5,-16,-8
1519732158563673,-9,-6,-5,-4,-6,-9,14,-1
1519732158563673,0,-3,-5,0,2,4,8,0
1519732158564676,3,2,2,0,-4,-6,-10,3
1519732158564676,-5,0,4,3,1,-5,-22,-21
1519732158585732,-7,-4,-1,0,-3,2,6,4
1519732158585732,4,2,4,3,3,6,2,9
1519732158587737,-3,-2,-4,-4,-2,-2,23,3
1519732158587737,-5,-6,-6,-3,-1,-3,0,-6
1519732158608793,-2,-1,-1,-3,1,-2,-20,0
1519732158608793,3,4,-1,-4,0,-7,-29,-10
1519732158609796,-3,0,6,0,-2,-4,-28,5
1519732158609796,-6,-5,-4,-4,-2,-3,17,4
1519732158630851,-2,-3,-3,-3,-1,-8,-32,-20
1519732158630851,0,-2,-6,-7,-4,-1,4,2
1519732158632857,1,3,3,4,1,7,14,4
1519732158632857,3,-2,-2,-1,-1,3,14,13
1519732158645892,3,6,9,7,3,0,-6,16
1519732158645892,0,-1,0,-5,-4,-6,17,-5
1519732158647897,-7,-4,-12,-5,-3,-10,-54,-28
1519732158647897,-1,2,5,-2,-2,4,2,6
1519732158668955,0,-1,-4,2,2,1,1,4
1519732158668955,0,-3,-3,1,-5,2,5,1
1519732158669956,0,-5,-2,-2,6,15,22,0
1519732158669956,0,5,6,9,-2,-7,0,-5
1519732158683993,-7,-8,-9,-14,-9,-5,-5,-4
1519732158683993,-2,-1,1,3,1,-3,8,16
1519732158684997,7,4,8,4,3,7,4,3
1519732158684997,-4,-1,-9,-3,1,-1,-30,-19
1519732158707059,-6,-5,0,-2,-2,-4,6,-6
1519732158707059,-1,-3,-10,0,1,5,26,0
1519732158708060,-2,-3,-1,-8,-2,-3,1,4
1519732158708060,4,4,8,3,3,6,19,1
1519732158728111,9,5,1,3,2,-5,-13,12
1519732158728111,-5,-4,2,2,-7,1,17,-6
1519732158730116,-1,-4,-2,-6,-4,-8,6,4
1519732158730116,6,1,-5,0,1,3,15,12
1519732158743152,-7,-4,-2,-3,-2,9,18,-2
1519732158743152,0,2,5,4,2,-7,-35,-3
1519732158750170,0,1,2,4,2,-12,-15,-4
1519732158750170,-4,-4,-4,-9,-7,-8,-19,-11
1519732158766212,4,0,-5,-2,5,8,8,11
1519732158766212,0,0,4,-1,-8,-7,-7,-13
1519732158767215,-1,3,3,2,-1,-1,1,1
1519732158767215,-4,-3,-3,-4,-4,-5,-5,-2
1519732158788270,-2,-1,-1,-1,-4,-8,-23,-2
1519732158788270,-1,-5,-10,-4,1,-1,-14,-7
1519732158790280,3,0,1,3,-2,2,10,5
1519732158790280,-3,2,0,-1,-2,-3,8,-4
1519732158803311,2,3,5,1,-1,2,-4,2
1519732158803311,-1,-2,1,2,3,-1,-6,1
1519732158809331,-3,-4,-6,-5,-3,0,7,-8
1519732158809331,0,-3,-6,-2,-2,-6,10,19
1519732158826372,-3,1,3,5,5,-1,-18,-29
1519732158826372,0,1,-3,-6,-2,-3,-8,2
1519732158827375,0,0,-2,1,1,-3,3,4
1519732158827375,-1,-2,-1,-5,-1,3,19,2
1519732158848431,1,-3,1,5,5,5,8,3
1519732158848431,1,-1,-1,-5,-4,-5,-25,-1
1519732158850436,-2,-2,-1,2,3,2,14,5
1519732158850436,1,-1,-7,-2,-3,0,5,9
1519732158862468,2,5,5,-1,0,-5,-31,-11
1519732158862468,-9,-6,-5,-3,-4,-1,3,-9
1519732158869486,6,2,-1,-3,-4,1,2,1
1519732158869486,-6,-6,-1,2,-4,-5,-1,-3
1519732158885529,4,1,-5,-3,1,0,16,16
1519732158885529,0,0,9,0,0,-3,-17,-4
1519732158887535,-6,-7,-8,-4,-1,0,3,-3
1519732158887535,-1,-5,-5,-1,0,-3,-12,-10
1519732158908591,4,3,4,2,-1,4,23,3
1519732158908591,-3,-2,-2,-5,-6,-2,17,9
1519732158910596,-2,0,-4,0,4,2,-3,-5
1519732158910596,-1,1,4,-3,-5,0,6,-8
1519732158922628,-2,-3,-4,1,2,3,12,1
1519732158922628,8,7,0,4,5,3,-5,4
1519732158929646,-6,-2,2,0,-4,-6,-14,-3
1519732158929646,1,-1,0,4,7,4,6,-5
1519732158945689,-1,-1,2,-5,-5,-6,-10,5
1519732158945689,1,-2,-1,-2,0,2,18,-3
1519732158947695,2,-1,-3,-2,-2,-3,-20,-2
1519732158947695,-2,-1,-1,-3,-1,-3,-26,-12
1519732158968750,-2,-3,-5,1,1,1,0,-6
1519732158968750,7,5,6,5,0,4,24,7
1519732158969754,-4,-3,-2,0,-2,-5,-8,-4
1519732158969754,-1,0,-1,-2,-1,2,13,9
1519732158982788,-1,-6,-1,1,0,-4,3,1
1519732158982788,0,0,0,0,-2,-1,-7,-5
1519732158989806,1,3,0,2,6,5,-4,-5
1519732158989806,-3,-2,4,4,3,2,-5,4
1519732159006855,1,1,-4,-5,-12,-4,18,-2
1519732159006855,-3,-3,1,3,5,3,-1,3
1519732159007861,3,0,0,4,-3,-4,-9,-8
1519732159007861,2,5,4,-2,3,0,4,2
1519732159028910,0,-4,-5,-5,-6,-6,-1,10
1519732159028910,2,-1,-1,3,7,0,-22,0
1519732159029913,-6,-4,-8,-7,-2,1,6,-3
1519732159029913,3,-1,5,6,0,4,11,0
1519732159042948,0,8,6,4,0,-1,-13,4
1519732159042948,0,-1,-8,-7,-6,3,16,-2
1519732159049967,0,1,5,0,3,-1,2,5
1519732159049967,1,2,-2,-1,-2,-6,-12,-4
1519732159066009,-4,-4,-4,-6,-3,1,10,-6
1519732159066009,-5,-3,-4,-5,0,-2,-2,2
1519732159068015,2,-5,-18,-7,-3,1,7,-5
1519732159068015,-4,2,11,5,3,1,1,-2
1519732159088068,-2,-3,3,2,-2,-1,-6,-8
1519732159088068,-1,3,5,4,0,-5,-7,-3
1519732159090074,-2,-1,1,-6,-6,-1,6,3
1519732159090074,2,-7,-15,-4,3,-1,-6,6
1519732159102105,-1,-3,-3,2,3,5,16,4
1519732159102105,-2,1,1,1,-1,-1,7,0
1519732159111130,3,1,4,4,-5,-8,-17,-1
1519732159111130,-5,-3,0,-4,-3,-1,10,-6
1519732159126170,0,-2,-2,1,0,3,3,15
1519732159126170,2,-1,-4,-1,-1,1,-7,-2
1519732159127172,-1,2,6,-2,-2,-4,-3,4
1519732159127172,-3,-3,-9,0,-3,0,-10,-1
1519732159148228,1,3,6,0,1,2,4,-7
1519732159148228,0,-1,2,1,-2,-1,12,5
1519732159150233,2,-1,1,0,0,3,13,5
1519732159150233,-2,1,1,-3,-1,-3,-9,-4
1519732159162265,-1,-9,-15,-3,-2,-3,13,2
1519732159162265,-1,1,7,-1,-1,-1,-3,-5
1519732159171290,1,2,4,1,0,1,2,2
1519732159171290,-3,-3,-4,-2,0,2,14,2
1519732159186329,-7,-4,-9,-8,-6,-16,-63,-19
1519732159186329,1,-2,0,-2,1,4,6,3
1519732159187332,2,3,0,4,1,-3,5,-1
1519732159187332,5,4,7,0,0,-3,-4,2
1519732159208388,-1,-3,1,2,2,3,-9,2
1519732159208388,-3,-4,-6,-5,-1,1,4,-7
1519732159210395,1,1,-5,-1,-3,-4,-22,-3
1519732159210395,0,0,-2,-2,-4,1,20,-1
1519732159222425,-1,0,2,0,-1,0,-1,-3
1519732159222425,2,-1,-7,-1,2,-3,-15,-1
1519732159231449,-8,-3,0,-2,-2,0,1,-10
1519732159231449,5,0,-4,-1,1,-1,2,6
1519732159246489,0,5,8,3,-3,2,21,6
1519732159246489,-8,-4,1,-1,2,-4,-27,-13
1519732159247495,1,-6,-8,-1,5,4,7,7
1519732159247495,-1,2,4,-3,-3,-7,-19,-2
1519732159268554,0,2,-4,-3,0,3,7,2
1519732159268554,0,-4,-8,1,0,-2,-2,4
1519732159270553,0,9,19,5,0,1,6,-2
1519732159270553,0,0,-1,-3,2,5,7,7
1519732159282585,-3,-4,-6,-1,-3,-6,-3,-5
1519732159282585,3,5,11,0,-1,-1,6,8
1519732159291611,-2,-1,-5,1,-3,-1,-9,-6
1519732159291611,-2,1,4,1,-3,2,5,-8
1519732159306650,5,2,3,3,5,6,9,10
1519732159306650,1,0,-4,-1,-4,-3,11,-1
1519732159308656,-11,-3,1,-7,-3,-6,-18,-12
1519732159308656,-7,-16,-17,-5,-2,0,-7,-5
1519732159328708,6,4,-1,0,-2,2,19,4
1519732159328708,6,11,8,6,2,3,-9,-4
1519732159329711,0,2,3,-1,-1,4,-1,14
1519732159329711,-1,1,-5,-3,-6,-6,-11,-2
1519732159341743,-8,-6,-5,-9,-2,-1,-8,-13
1519732159341743,0,-10,-7,5,1,3,15,9
1519732159350768,-2,-2,-2,-1,2,1,-2,0
1519732159350768,-7,-7,-2,1,-3,-3,-11,-9
1519732159365806,-3,-7,0,-3,-3,-7,-15,-6
1519732159365806,1,-2,-9,-8,-4,-3,-4,-7
1519732159367812,-4,-3,-1,-4,1,4,22,5
1519732159367812,4,4,1,-1,-1,-5,-26,-6
1519732159388868,-2,-6,0,0,-1,1,8,6
1519732159388868,-8,-8,-6,-3,-4,-3,-7,-1
1519732159389871,0,8,4,-1,-1,-3,8,-5
1519732159389871,5,4,3,1,2,0,12,4
1519732159401903,9,5,1,-1,-1,-4,-5,3
1519732159401903,0,2,2,-2,-2,-1,14,10
1519732159410927,-9,-12,-9,-1,1,-3,-27,-32
1519732159410927,1,-1,2,0,-1,3,13,6
1519732159425967,-6,-5,-6,-3,-1,-2,-17,-6
1519732159425967,-5,3,5,-1,-2,4,15,-4
1519732159427972,17,1,4,-1,-3,1,26,26
1519732159427972,-23,-8,-5,0,1,-13,-45,-23
1519732159448025,0,-5,-4,-7,-6,-2,-13,-8
1519732159448025,4,0,-7,1,-1,0,-7,2
1519732159450031,6,4,2,5,5,5,6,10
1519732159450031,8,2,1,1,2,3,28,20
1519732159462063,-6,0,3,2,-3,-9,-34,-19
1519732159462063,-7,-4,-2,0,-1,-2,2,-3
1519732159471093,-7,-7,-5,-2,-4,-2,-2,-13
1519732159471093,0,1,-1,-1,0,5,28,11
1519732159486127,5,3,2,0,0,6,22,9
1519732159486127,-2,-1,0,1,3,1,6,-10
1519732159487130,-8,-3,-5,-3,-2,-5,-7,0
1519732159487130,1,1,0,-4,0,3,7,8
1519732159508188,0,1,4,3,0,-1,5,2
1519732159508188,3,1,0,-1,2,4,0,8
1519732159510191,-6,-4,-4,-3,-2,-2,8,-16
1519732159510191,4,-2,-5,-2,-5,-8,-35,-11
1519732159531247,-4,-2,-6,-5,-4,6,30,5
1519732159531247,5,6,11,6,10,-1,-22,-3
1519732159532249,8,2,2,3,-2,1,12,22
1519732159532249,0,-2,-5,-4,-1,-2,1,-2
1519732159546287,-6,0,1,5,1,3,20,7
1519732159546287,-2,-6,-7,-8,-4,-3,-1,-12
1519732159547290,-12,2,3,3,1,-1,-21,9
1519732159547290,9,4,6,7,0,3,1,0
1519732159568346,-4,1,-1,-2,0,-8,-36,-24
1519732159568346,0,2,3,3,-1,1,19,10
1519732159570351,9,-1,-6,-3,0,5,5,3
1519732159570351,-3,-1,1,1,1,-9,-42,6
1519732159591408,-13,1,3,-1,-3,2,17,-5
1519732159591408,6,1,0,-1,-2,0,-4,1
1519732159592411,2,-4,-1,0,-3,-5,-10,-9
1519732159592411,-3,0,1,-2,0,4,12,5
1519732159606447,0,-6,-6,-3,-2,-5,-30,-12
1519732159606447,8,0,-2,0,-1,-1,3,16
1519732159608454,-4,-1,-1,-3,-2,1,19,0
1519732159608454,11,5,7,4,1,-1,-10,6
1519732159628506,-11,-3,-4,0,2,-1,-11,-29
1519732159628506,1,2,-6,-2,-4,-2,-1,18
1519732159630511,-19,-13,-11,-6,-2,-13,-27,-15
1519732159630511,1,2,5,-1,-3,3,16,4
1519732159650564,-6,-2,1,2,4,3,12,0
1519732159650564,-5,-6,-6,-5,-6,-6,-15,-12
1519732159652570,9,0,0,1,0,1,15,16
1519732159652570,2,0,-6,-5,-4,-2,0,-6
1519732159664601,7,3,4,2,1,4,34,19
1519732159664601,8,2,7,3,-1,-5,-25,22
1519732159673638,-8,-1,1,-1,-1,-3,-10,-16
1519732159673638,-1,-2,-6,-2,-3,-4,8,8
1519732159688666,9,3,2,5,4,9,-17,-1
1519732159688666,-8,-3,-3,-5,-8,-9,-2,-5
1519732159690677,15,6,2,0,0,2,16,15
1519732159690677,-20,-6,-3,0,-1,-6,-14,-34
1519732159710725,20,8,2,3,4,4,17,32
1519732159710725,-25,-8,-4,-5,-4,-4,9,-25
1519732159712730,6,4,3,1,-4,-1,-36,-21
1519732159712730,2,0,3,2,1,0,-13,-17
1519732159724767,-6,-3,-1,-3,-4,-5,5,7
1519732159724767,11,0,-2,-1,2,1,21,19
1519732159733786,-7,-4,-6,-5,2,3,9,-6
1519732159733786,1,3,2,5,2,2,7,8
1519732159748826,3,-5,-3,-5,-7,-5,-6,5
1519732159748826,-6,-3,-4,1,2,1,-23,-11
1519732159749828,5,5,2,4,4,7,29,13
1519732159749828,0,0,5,-2,-3,0,-17,5
1519732159770884,-3,3,3,6,0,-5,-9,-7
1519732159770884,-5,-4,-3,-9,-5,-7,-5,-18
1519732159772890,-1,-4,-5,-3,-2,-3,4,12
1519732159772890,-9,-3,-2,0,0,-8,-51,-46
1519732159784921,1,1,0,-3,3,-1,4,11
1519732159784921,-8,-2,1,1,0,3,-5,-7
1519732159793946,-4,-7,-7,-6,-8,-11,-18,-14
1519732159793946,3,-5,-8,-6,-4,-1,38,26
1519732159808986,-1,-2,-2,-4,1,-7,-25,-17
1519732159808986,4,6,7,4,-9,-1,17,0
1519732159809990,-2,1,5,5,3,3,-15,-2
1519732159809990,-7,-5,-5,-3,1,6,-13,-6
1519732159831044,1,-2,-10,-4,-3,0,17,2
1519732159831044,4,4,7,-1,7,4,10,3
1519732159833050,1,2,1,2,1,5,8,9
1519732159833050,-4,-4,-1,0,4,1,12,0
1519732159845082,0,-3,-6,-5,-8,3,5,8
1519732159845082,2,2,0,-3,-1,2,7,9
1519732159854106,-2,1,4,0,0,6,9,-3
1519732159854106,0,-1,-1,0,-5,-10,20,6
1519732159868143,-7,-5,-1,-1,-4,-12,0,-5
1519732159868143,-3,-3,-9,-4,-1,3,15,1
1519732159870148,-5,-3,4,-4,0,-8,-34,-6
1519732159870148,-1,2,-5,-5,0,-1,25,1
1519732159891204,-2,-3,-2,-1,-1,10,24,4
1519732159891204,2,0,2,7,3,0,-5,-10
1519732159892207,-1,0,-2,-1,1,-3,-7,6
1519732159892207,-2,1,-3,-3,3,6,3,4
1519732159904239,-2,0,7,-1,-5,2,-30,-16
1519732159904239,-3,-2,-4,3,2,-3,-21,0
1519732159913263,2,-1,-5,-8,-4,-2,9,6
1519732159913263,1,0,5,6,0,2,17,-2
1519732159928303,3,0,0,-3,5,6,10,15
1519732159928303,-7,-7,-7,0,1,-11,-58,-29
1519732159930308,-5,-2,-5,-10,-11,-13,3,-4
1519732159930308,6,4,3,2,1,-1,-20,3
1519732159951364,1,2,12,6,3,3,19,6
1519732159951364,0,-2,-4,-3,0,6,7,-3
1519732159952367,-3,0,-1,3,1,8,22,-15
1519732159952367,-1,-3,-9,-7,-3,-6,-6,4
1519732159965402,-5,-4,-8,-5,-2,-3,6,-1
1519732159965402,1,1,2,0,0,-7,-14,0
1519732159972420,3,5,2,2,-2,2,-15,-1
1519732159972420,0,4,9,2,2,7,26,13
1519732159988463,-3,-4,-3,-2,-2,-5,-11,-23
1519732159988463,-2,-4,-6,-6,-2,1,34,8
1519732159990476,-5,-7,-9,-5,-1,1,5,0
1519732159990476,-10,-12,-13,-5,-4,-5,-27,-19
1519732160010522,12,17,7,7,1,-1,-2,1
1519732160010522,1,8,21,5,0,4,19,3
1519732160012528,2,3,1,7,5,-2,-2,6
1519732160012528,-6,-9,-2,-5,-3,1,11,6
1519732160024564,-5,-15,-21,-8,-1,0,-16,-10
1519732160024564,8,13,4,4,0,1,-2,-4
1519732160033584,0,6,9,4,2,2,5,8
1519732160033584,2,-1,3,3,0,3,4,8
1519732160048623,-13,-15,-12,-10,-5,-5,-23,-7
1519732160048623,-2,-10,-19,-6,-3,-6,-39,-13
1519732160049626,6,8,19,8,3,2,8,6
1519732160049626,1,3,0,-2,-3,-1,8,0
1519732160070682,0,4,11,9,5,4,12,6
1519732160070682,-6,-12,-15,-9,0,7,1,5
1519732160072688,-4,-2,-9,-8,-7,-6,-8,-19
1519732160072688,4,3,-2,-4,-1,4,-2,-5
1519732160084719,-1,0,10,7,1,-9,-39,-14
1519732160084719,6,10,2,-1,-2,-4,-13,11
1519732160093744,-4,-9,-5,-1,0,0,2,-7
1519732160093744,3,1,4,1,-11,-3,5,3
1519732160108784,-4,-2,-1,0,7,4,10,2
1519732160108784,-2,-8,-6,-3,1,-1,8,9
1519732160109795,2,1,-7,-2,-5,-3,-12,-12
1519732160109795,-1,2,4,-1,-1,-1,-3,-2
1519732160130842,3,0,-7,-1,-3,0,-5,6
1519732160130842,-6,0,8,-1,-3,-5,1,1
1519732160132847,-1,-2,-7,-1,5,2,-4,-5
1519732160132847,-4,-10,-15,1,0,0,7,0
1519732160144879,7,9,13,1,-2,-1,-7,1
1519732160144879,6,12,20,11,5,2,10,4
1519732160153903,-6,-6,-5,-3,-4,-7,1,7
1519732160153903,0,-2,-6,-4,4,5,14,7
1519732160168944,-2,-3,-8,-3,-4,-8,-20,-10
1519732160168944,-5,-8,-10,-7,-6,-1,12,8
1519732160169947,5,0,-2,2,0,3,9,-3
1519732160169947,0,4,8,3,2,-1,-3,-2
1519732160191004,1,3,0,-3,-3,-2,5,7
1519732160191004,0,0,6,3,5,9,21,8
1519732160193008,-5,-5,-3,-3,-1,-6,-16,-2
1519732160193008,-1,-4,-5,2,0,1,7,3
1519732160205039,0,-2,-6,-1,-5,-1,1,-8
1519732160205039,1,2,7,1,1,4,-18,-13
1519732160214063,-5,-5,-8,-5,-5,-5,9,4
1519732160214063,2,3,4,2,-1,-3,-13,-2
1519732160228100,-1,-5,7,-3,-1,-4,6,5
1519732160228100,-5,3,-6,2,1,0,3,-13
1519732160230106,7,6,3,4,4,5,2,9
1519732160230106,1,2,-1,-3,-2,-4,-14,-7
1519732160251162,-4,-10,-8,-4,-3,-1,4,5
1519732160251162,-2,5,4,-2,0,-4,-5,-3
1519732160252166,-1,-4,-2,4,5,6,9,5
1519732160252166,1,5,3,0,-2,-7,-11,-6
1519732160264196,5,9,10,8,6,4,-4,-7
1519732160264196,0,-9,-8,-3,-5,-2,13,6
1519732160274226,-10,-2,3,-3,-2,-2,0,0
1519732160274226,-2,-14,-11,-4,-2,1,4,-2
1519732160288261,3,3,0,0,0,-4,6,13
1519732160288261,0,-3,-5,-3,-1,1,26,3
1519732160294276,1,0,8,2,1,0,-20,-13
1519732160294276,0,-2,1,2,-2,4,2,8
1519732160311322,-4,-1,-5,-3,-4,-6,-2,0
1519732160311322,-1,2,-2,-4,0,-1,-2,-8
1519732160312325,0,-6,-10,-9,-5,1,18,12
1519732160312325,4,9,-1,4,3,0,-14,-4
1519732160324361,-2,1,8,2,2,4,2,-7
1519732160324361,1,-2,0,4,1,1,-4,-1
1519732160333381,-5,-3,1,-6,-4,-4,1,1
1519732160333381,-7,-3,-5,-6,-1,-10,-13,-16
1519732160347418,-3,-3,-12,-7,-4,-1,9,-1
1519732160347418,1,-11,-7,-5,-4,-1,-7,0
1519732160354437,5,19,10,3,0,2,8,2
1519732160354437,-4,-8,-1,-3,-3,3,16,5
1519732160371482,3,-9,-6,1,-2,-2,-1,6
1519732160371482,-3,8,8,0,2,-1,-2,-8
1519732160372487,2,-5,-9,-4,1,1,-4,8
1519732160372487,-4,1,1,1,-1,-2,-16,-13
1519732160384517,1,0,0,-5,-2,0,4,5
1519732160384517,-6,-15,-11,-5,-7,-4,-13,-17
1519732160393541,1,-4,-7,0,0,-1,2,4
1519732160393541,4,13,17,7,4,6,12,6
1519732160408582,-3,-6,-4,0,0,4,25,3
1519732160408582,-4,-3,-8,-4,-4,-9,-29,-7
1519732160410592,-1,0,4,1,-3,-1,-3,-3
1519732160410592,-5,-5,-4,-3,1,-6,-31,-8
1519732160430640,-2,3,0,-3,-1,0,7,-1
1519732160430640,3,-3,-5,2,3,3,15,12
1519732160432645,-3,5,9,1,0,-1,-17,-7
1519732160432645,7,0,-2,2,-3,2,6,16
1519732160444677,-5,-3,-2,-5,-4,-6,-4,-15
1519732160444677,-6,3,3,1,2,0,-22,-16
1519732160453701,-4,-7,-6,-3,1,-1,-9,-4
1519732160453701,-2,-4,-2,5,2,4,13,3
1519732160468741,-1,4,3,-1,-6,-1,11,8
1519732160468741,9,2,3,1,-1,1,8,4
1519732160469747,-7,-4,-4,-2,-4,-9,-37,-19
1519732160469747,3,-1,-3,-4,-3,-4,0,1
1519732160490802,0,2,2,1,2,0,-19,1
1519732160490802,1,-4,-1,-4,-3,1,8,-2
1519732160492809,0,4,3,7,5,3,5,12
1519732160492809,-6,-5,-3,-6,-7,-7,-5,-11
1519732160513860,-9,-2,-3,2,7,6,8,-11
1519732160513860,-3,-2,-4,-2,-5,-7,-37,-10
1519732160514863,7,-1,-4,0,-3,2,19,10
1519732160514863,-11,-5,-4,-7,-1,2,18,0
1519732160528901,10,7,6,8,3,-1,-32,-2
1519732160528901,-6,-1,0,1,2,-2,14,9
1519732160529904,4,-4,-3,1,-1,-3,-16,-10
1519732160529904,4,0,-1,-4,-3,-1,-15,9
1519732160550959,2,-2,-5,-8,-5,3,19,6
1519732160550959,12,6,6,4,3,-1,-5,-1
1519732160552968,-21,-7,-1,-1,-1,2,-7,-26
1519732160552968,4,0,-2,-1,2,-3,-1,-6
1519732160574024,-12,-2,-2,-6,-6,-7,-2,3
1519732160574024,9,-1,2,-1,3,8,11,23
1519732160575024,-9,-3,-2,-3,-1,-3,12,-9
1519732160575024,-10,-1,3,1,2,-5,-3,-7
1519732160588058,6,-1,-4,-2,-3,5,9,5
1519732160588058,-9,-2,-3,-2,-4,-7,-14,-1
1519732160595077,6,3,3,1,3,0,-5,-8
1519732160595077,2,2,2,5,0,3,12,6
1519732160611120,-8,-5,-3,-3,1,-1,19,6
1519732160611120,-5,-1,-1,3,2,2,19,1
1519732160612122,-1,-2,-4,-5,-6,-3,-1,1
1519732160612122,-2,1,2,-1,1,-4,-26,-12
1519732160633178,14,3,0,0,-4,-4,14,15
1519732160633178,-10,-6,-6,-2,1,-3,20,-8
1519732160635183,5,3,5,4,2,7,20,10
1519732160635183,10,3,1,0,2,3,1,-4
1519732160647215,-16,-5,0,2,-1,-3,-14,-13
1519732160647215,7,-2,-2,-5,-4,-3,0,5
1519732160656241,-7,-5,-5,-3,-3,0,25,6
1519732160656241,14,7,2,2,0,6,18,24
1519732160671279,-4,-1,1,-1,5,-2,-59,-36
1519732160671279,11,6,7,6,1,0,2,10
1519732160672282,-1,-4,-2,-3,1,2,25,3
1519732160672282,-10,-2,-4,-2,-3,-5,-13,-4
1519732160693338,8,-3,-4,-4,-2,-7,-14,0
1519732160693338,-6,-1,-3,-4,-2,1,19,-10
1519732160695344,6,3,6,4,7,2,-20,4
1519732160695344,-4,-5,-4,-2,-1,-1,12,-6
1519732160707379,1,-4,-5,-5,-4,-1,2,-3
1519732160707379,-6,1,2,1,0,7,26,3
1519732160716400,6,2,-3,-4,0,-2,-30,2
1519732160716400,-2,-5,-7,-1,-3,-5,0,2
1519732160731439,4,4,5,0,-2,-3,-2,3
1519732160731439,-3,2,3,2,3,0,-13,-2
1519732160732442,-3,-3,-3,0,-4,-1,1,-10
1519732160732442,1,0,-1,-2,-1,1,17,19
1519732160753498,1,0,-2,-1,-3,-4,16,10
1519732160753498,-5,1,-3,-1,-2,-8,-48,-24
1519732160755506,1,-5,-6,0,0,8,32,14
1519732160755506,-4,-3,0,-6,-7,-5,-12,-11
1519732160767535,3,2,-4,3,2,4,27,13
1519732160767535,0,1,9,4,1,5,-13,0
1519732160776560,1,4,5,4,-1,1,13,17
1519732160776560,-4,-2,1,4,4,-3,-28,-31
1519732160790600,-2,-1,-3,0,0,0,3,0
1519732160790600,0,-3,-7,-4,-6,-3,50,25
1519732160792605,-5,-4,-10,-7,-4,-13,-57,-20
1519732160792605,-3,-3,-3,-3,-3,7,10,1
1519732160813658,-1,2,2,2,4,-3,-31,-12
1519732160813658,-1,-1,-3,-7,-6,2,10,-1
1519732160814662,5,3,7,7,3,-4,10,10
1519732160814662,-1,-1,-3,1,0,2,13,5
1519732160826694,-1,1,4,-1,-3,-2,-10,-9
1519732160826694,1,-3,-4,-1,-7,-5,2,6
1519732160835717,-1,-2,-4,-1,-2,-9,14,14
1519732160835717,-3,1,11,1,4,6,-16,-13
1519732160850757,1,-4,-9,-6,-4,-3,-25,2
1519732160850757,2,4,7,3,2,1,6,-8
1519732160852763,0,2,2,-2,-4,-10,-30,2
1519732160852763,-4,-5,-7,-3,-4,-8,-1,-5
1519732160873823,-3,-6,-7,-7,-2,6,31,14
1519732160873823,4,1,0,8,3,-3,-17,-10
1519732160874822,3,4,3,-3,-2,4,-2,-2
1519732160874822,2,3,4,0,2,3,11,8
1519732160887855,-6,-4,0,-1,-4,-3,-3,-12
1519732160887855,-7,-7,-9,-5,2,-1,-10,-2
1519732160894874,1,0,-3,-1,-2,-1,-5,-1
1519732160894874,-3,0,-4,-7,-4,1,3,4
1519732160910917,-7,-4,0,5,-1,-3,-12,-14
1519732160910917,-4,-2,-5,-5,-4,-10,-17,-4
1519732160912923,0,-3,-3,-3,2,9,19,9
1519732160912923,-1,-2,-2,-7,-8,-3,5,4
1519732160933978,4,6,9,7,0,-6,-12,-4
1519732160933978,4,6,7,10,4,5,4,6
1519732160934982,-6,-6,-7,-5,-2,-8,-19,-12
1519732160934982,4,-1,-5,2,1,-1,7,4
1519732160948016,1,-1,-2,-2,4,6,28,5
1519732160948016,1,-1,-1,-2,-1,0,-20,0
1519732160955035,-9,-3,0,-2,0,0,-5,-12
1519732160955035,-4,-8,-9,-1,-3,-7,-8,-12
1519732160971077,1,0,4,2,-5,-2,12,6
1519732160971077,3,11,5,-2,4,3,7,4
1519732160973083,-1,-3,3,4,-1,4,7,-2
1519732160973083,-6,-9,-18,-8,-2,-7,-11,-5
1519732160993136,1,4,8,5,2,5,-1,-8
1519732160993136,2,6,10,2,0,1,20,7
1519732160995141,-2,-4,-2,-3,0,-1,4,-12
1519732160995141,2,0,3,6,0,3,19,9
1519732161007179,-1,-2,-6,-2,1,-2,-3,5
1519732161007179,-6,-7,-14,-10,-4,-1,-14,-7
1519732161016201,3,-1,1,0,0,3,22,11
1519732161016201,-1,1,4,2,-1,-2,-6,-4
1519732161031238,-1,0,-5,-2,1,-5,-30,-14
1519732161031238,-5,-2,5,0,-1,-3,-3,-6
1519732161032240,2,10,7,0,1,-1,-1,5
1519732161032240,1,5,8,5,2,4,3,6
1519732161053295,-3,-6,-7,-4,-3,1,28,15
1519732161053295,-3,-4,-14,-6,-4,-6,-40,-14
1519732161055301,-1,-2,-2,1,0,2,-5,-4
1519732161055301,2,5,7,4,2,0,8,9
1519732161067333,0,2,-1,-4,-1,5,12,-2
1519732161067333,-2,-10,-13,-6,-5,-8,-11,11
1519732161076357,3,10,2,0,2,-2,3,-4
1519732161076357,-1,-3,3,4,-2,-3,-13,-4
1519732161091397,-1,-8,-6,-2,-1,2,9,9
1519732161091397,-3,-4,-3,-5,0,3,13,-11
1519732161092404,-3,4,7,-2,-4,-6,-15,-3
1519732161092404,4,1,-6,1,1,4,17,4
1519732161113456,-4,-11,-8,-5,-2,-8,-25,-7
1519732161113456,4,10,11,7,8,8,14,-1
1519732161115461,-1,2,-5,-2,-2,0,5,5
1519732161115461,-7,-6,-4,-3,-6,-8,-28,-10
1519732161127494,0,0,0,0,2,2,12,12
1519732161127494,-6,-5,-4,-4,0,-3,-22,-23
1519732161136518,3,-6,-2,2,0,5,8,0
1519732161136518,1,-3,-5,-3,0,0,-2,2
1519732161150554,3,4,3,0,-4,-2,11,2
1519732161150554,4,-5,-6,-5,-4,-6,-13,9
1519732161152561,-12,6,12,6,2,2,-8,-4
1519732161152561,-1,-9,-5,-4,0,-1,0,-13
1519732161173621,-3,0,1,-2,-3,-4,-7,-7
1519732161173621,5,2,-3,0,0,3,16,8
1519732161175626,-5,-8,-8,-3,-4,-6,-14,-3
1519732161175626,-1,2,4,-2,0,1,3,-5
1519732161187653,1,7,4,1,-1,-6,-23,-3
1519732161187653,-7,-9,-7,0,-2,0,-5,-5
1519732161195674,6,1,1,-1,-2,0,16,16
1519732161195674,-3,3,3,1,4,-3,-20,-12
1519732161210715,4,6,4,2,2,3,18,6
1519732161210715,-1,-1,-3,-6,-5,-3,12,5
1519732161212720,3,-3,-4,-3,-1,-1,2,-5
1519732161212720,-4,-1,-3,-6,-4,-4,-5,0
1519732161233775,3,3,2,3,4,6,5,-1
1519732161233775,0,-1,0,2,1,0,7,17
1519732161234778,-7,-4,-3,0,-2,-7,-25,-21
1519732161234778,-3,0,-2,-4,-5,-1,26,2
1519732161246810,-9,-10,-6,-6,-1,-13,-40,-27
1519732161246810,0,0,6,9,2,6,16,0
1519732161256842,20,10,4,2,-1,3,11,28
1519732161256842,-26,-11,-7,-7,-2,-4,-1,-21
1519732161270874,6,4,1,1,2,11,35,18
1519732161270874,5,-1,-4,-5,-3,-9,-18,-7
1519732161272880,-3,-3,-1,2,0,2,-11,-7
1519732161272880,11,4,-1,1,-1,0,11,22
1519732161293936,-6,-7,-2,-3,-3,-2,1,6
1519732161293936,-7,2,5,3,4,1,3,-5
1519732161294939,13,0,-7,-1,-2,4,10,12
1519732161294939,-8,-1,-1,-3,-2,-8,-50,-31
1519732161306975,1,-4,-4,-2,2,2,2,8
1519732161306975,5,-4,-2,-3,-1,-4,-6,14
1519732161315995,-12,-3,-3,-1,-9,-3,12,-18
1519732161315995,6,4,3,0,-2,2,4,-3
1519732161330032,-4,1,4,1,-1,-1,-4,-3
1519732161330032,-2,-2,-2,-2,1,-1,22,3
1519732161337051,2,-3,-5,-4,0,7,9,1
1519732161337051,-2,-1,1,0,2,0,4,5
1519732161353093,-2,-1,-2,-5,-8,-1,3,2
1519732161353093,-8,0,-1,-1,-4,-9,-26,-21
1519732161355098,-4,-1,2,3,7,6,4,-1
1519732161355098,10,0,-4,-1,-5,13,40,28
1519732161367130,-6,-2,0,-2,0,-18,-44,-29
1519732161367130,-4,-3,-6,-3,-1,18,21,0
1519732161376155,-5,-3,-9,-5,-2,-22,-21,-6
1519732161376155,4,3,5,0,-7,1,18,14
1519732161390197,3,5,7,8,4,10,23,9
1519732161390197,-4,-4,-2,-4,0,-3,-17,-10
1519732161397210,-2,-4,-4,-3,-2,0,6,5
1519732161397210,2,0,-4,-2,1,-12,-38,4
1519732161413253,-1,-2,-7,-3,-3,-5,2,-11
1519732161413253,2,3,8,1,5,10,-7,3
1519732161415259,-3,-5,-8,-6,-6,-6,8,3
1519732161415259,2,0,7,2,2,1,0,2
1519732161436315,1,0,-11,-1,2,6,10,3
1519732161436315,3,5,17,4,2,0,18,16
1519732161437319,-1,1,3,4,5,-1,-26,-8
1519732161437319,2,0,-2,-2,-5,-12,4,-9
1519732161450352,-2,-2,-7,-3,-3,4,-2,1
1519732161450352,0,-4,-10,-5,-2,-6,0,5
1519732161457378,-1,0,1,3,3,4,11,2
1519732161457378,1,5,8,5,2,5,-10,-7
1519732161473417,0,0,3,2,2,-1,-9,-5
1519732161473417,-4,-4,-11,-8,-4,-6,-2,-3
1519732161475425,-4,-8,-5,-6,-3,-6,-22,-9
1519732161475425,0,0,-5,-2,-1,1,5,-8
1519732161496474,7,9,19,9,2,-1,17,10
1519732161496474,-4,-3,-2,1,-2,5,7,2
1519732161497478,1,-8,-12,-3,-3,-7,-56,-6
1519732161497478,-5,0,3,-1,2,-2,-7,-6
1519732161510513,-2,-3,-4,-7,-3,-1,0,1
1519732161510513,1,4,8,11,4,-3,8,-5
1519732161512517,1,-2,-1,-6,-2,0,14,7
1519732161512517,-1,-13,-13,-2,0,2,4,2
1519732161533574,-1,5,3,0,-6,-9,-18,-10
1519732161533574,0,-4,-4,-3,4,0,3,2
1519732161535579,-2,-1,-6,1,0,1,8,3
1519732161535579,1,6,11,4,1,2,8,3
1519732161556641,2,-1,-1,-1,-2,0,-3,-4
1519732161556641,-3,1,2,-2,-1,-3,-11,-12
1519732161557643,1,0,3,1,-2,-2,0,4
1519732161557643,0,2,1,4,1,2,4,5
1519732161570672,-4,-9,-11,-5,-3,-2,4,5
1519732161570672,-5,6,-1,-8,-6,-6,-11,-5
1519732161572678,0,0,5,8,4,5,-1,-4
1519732161572678,3,-3,-1,-1,3,2,11,2
1519732161593733,1,4,10,6,1,5,5,0
1519732161593733,3,-2,-1,1,-5,-6,-22,-4
1519732161594736,-2,2,-1,-2,-2,1,8,-5
1519732161594736,-5,-9,-14,-10,-5,-5,11,3
1519732161615792,2,2,-1,-5,1,-3,-2,1
1519732161615792,-1,-2,0,2,-3,-1,12,-1
