timestamp,emg1,emg2,emg3,emg4,emg5,emg6,emg7,emg8
1529258645486735,-3,-4,-5,-7,-5,-5,8,0
1529258645486735,4,4,7,2,5,-13,-14,1
1529258645486735,-5,-2,-5,11,-4,-13,4,-4
1529258645486735,0,-3,3,1,0,-7,0,-4
1529258645508659,0,-6,-3,-6,-1,0,-2,5
1529258645508659,5,2,-1,5,0,5,3,-1
1529258645509656,-11,-7,-6,-35,-15,-13,-5,-7
1529258645509656,4,5,2,1,0,-1,3,1
1529258645531597,-4,-1,-6,1,-4,-9,-7,-8
1529258645531597,3,0,11,4,3,6,3,5
1529258645532595,-1,-3,-15,-4,-2,12,1,1
1529258645532595,-6,-2,11,11,-2,-12,-10,-13
1529258645546557,5,3,-3,0,0,-2,-2,2
1529258645546557,-5,-8,-5,9,16,18,-8,-1
1529258645546557,-1,0,1,16,21,6,-4,-3
1529258645546557,7,4,1,-4,-12,-5,5,7
1529258645568504,-3,-3,-2,3,-6,2,-10,-5
1529258645568504,2,0,-4,0,-4,-9,3,0
1529258645569497,0,-2,-3,-46,-26,-8,0,4
1529258645569497,-3,-3,-4,36,21,18,-8,-1
1529258645591437,-1,-3,-1,0,3,-7,7,1
1529258645591437,-4,-1,5,-5,-7,-3,1,-4
1529258645592436,-6,-5,-5,-14,-3,19,-7,-4
1529258645592436,3,-5,-14,-17,-4,-3,4,2
1529258645606397,5,6,16,27,15,4,1,6
1529258645606397,2,-3,-3,16,-2,6,-1,-6
1529258645607395,2,4,3,10,12,8,0,1
1529258645607395,-10,-7,-3,-12,3,-11,-9,-7
1529258645628339,0,1,-4,-7,-5,-4,7,1
1529258645628339,-2,-3,-3,-11,-6,-15,4,-2
1529258645629337,0,2,7,11,4,12,-2,-2
1529258645629337,6,1,-7,-12,-7,-6,9,8
1529258645652275,2,-1,1,-19,-19,3,-10,1
1529258645652275,-4,-1,-2,-1,-1,-16,-1,-9
1529258645652275,-2,1,1,25,24,19,4,-2
1529258645652275,-3,5,9,-11,-11,-6,-4,1
1529258645666237,0,-2,-7,-50,-17,-5,-2,-1
1529258645666237,0,-3,-5,47,10,8,3,3
1529258645667235,-4,-3,-7,2,-6,-9,3,-3
1529258645667235,1,0,4,-16,-7,-4,4,2
1529258645688179,-1,0,-1,23,13,11,-2,-1
1529258645688179,6,5,2,-21,-4,11,-6,2
1529258645689176,-8,-4,0,-1,-9,-18,-2,-8
1529258645689176,4,0,-4,3,2,4,-2,0
1529258645712115,-9,-5,-3,3,1,-4,-2,-6
1529258645712115,0,-4,-6,-14,-9,-11,1,1
1529258645712115,0,3,6,-1,-9,7,-4,-2
1529258645712115,-3,-1,2,25,-6,-4,-1,-5
1529258645726077,-5,-5,-1,3,3,-9,-4,-4
1529258645726077,-6,-4,-11,-13,-9,-11,-3,-3
1529258645727075,6,4,5,17,20,26,-7,3
1529258645727075,-2,-3,-1,-12,-1,0,4,3
1529258645749016,-1,1,5,25,17,9,-1,-4
1529258645749016,-6,-5,-4,-27,-10,2,-3,-2
1529258645749016,-5,-6,-17,-6,-1,-10,-3,-3
1529258645749016,3,2,3,-9,1,21,-4,-5
1529258645771955,-2,-1,-3,6,1,3,-4,-2
1529258645771955,3,2,3,-17,5,10,1,1
1529258645772953,-4,-3,3,3,6,-15,3,0
1529258645772953,5,3,-3,2,5,-4,-2,2
1529258645785917,-1,-1,2,3,1,-2,3,2
1529258645785917,1,0,0,-3,-9,-4,-7,-2
1529258645786915,1,1,5,-9,-13,-10,2,-3
1529258645786915,-5,-4,-5,-28,-24,0,-7,-1
1529258645808856,0,3,4,33,42,14,5,4
1529258645808856,4,0,-5,1,-4,-26,1,3
1529258645809854,3,1,3,7,-5,-14,-3,6
1529258645809854,-8,-5,-5,-19,-4,-24,-3,-8
1529258645831795,9,2,0,-23,-19,-21,-6,1
1529258645831795,-1,2,1,1,10,19,0,0
1529258645832793,2,1,2,26,17,-8,14,5
1529258645832793,-1,-3,0,31,27,1,-6,-4
1529258645845757,-3,-2,1,19,10,20,12,0
1529258645845757,5,4,6,14,3,1,1,5
1529258645846755,-3,-2,0,-29,-17,1,-11,-5
1529258645846755,-2,1,-5,14,-4,11,0,-1
1529258645868696,2,-4,-4,-1,-2,-16,-8,0
1529258645868696,-1,-4,-8,-21,0,-11,5,3
1529258645869694,-10,-2,-2,-12,-12,2,5,-2
1529258645869694,-3,-10,-10,-52,-31,1,-3,-2
1529258645891635,-3,1,1,-18,-38,-12,-1,0
1529258645891635,4,4,9,63,53,23,0,1
1529258645892633,-4,-3,-1,8,-10,-8,-3,2
1529258645892633,4,-2,-4,-13,4,30,0,5
1529258645905597,0,3,-4,-5,8,-7,3,2
1529258645905597,-2,-3,0,-24,-23,-6,3,-1
1529258645906595,11,7,3,13,18,-5,2,5
1529258645906595,-8,-6,-2,4,11,-16,-1,-2
1529258645928536,-1,-3,-5,-31,-25,0,-3,-7
1529258645928536,-2,-2,-3,-17,-31,-36,10,3
1529258645929534,-2,-2,3,62,66,26,-10,-5
1529258645929534,-5,-4,-9,8,-14,-18,5,-6
1529258645951475,3,1,-6,-17,-6,2,-7,-3
1529258645951475,-4,0,5,-45,-17,3,-3,-5
1529258645952473,-3,-2,-8,-42,-36,-1,5,1
1529258645952473,5,6,7,7,12,-9,2,2
1529258645965437,-9,-7,-10,-24,13,-5,-15,-3
1529258645965437,5,-3,-3,-6,-21,-21,-5,1
1529258645973416,3,-2,-3,-8,8,-6,1,1
1529258645973416,2,5,3,32,17,19,-3,2
1529258645988376,2,2,2,-5,-25,-26,-13,-4
1529258645988376,-5,-1,-2,12,13,20,-4,0
1529258645989374,-2,-3,-4,-28,-17,4,-4,-8
1529258645989374,-3,-4,-2,0,1,-29,-5,1
1529258646012312,-3,-7,-3,3,-5,2,27,12
1529258646012312,2,4,0,-5,12,15,-12,-8
1529258646013310,-5,-2,-1,13,-11,-27,-4,-8
1529258646013310,0,4,3,-2,7,1,5,3
1529258646025277,-2,-3,1,8,12,-8,-5,-2
1529258646025277,3,-1,0,50,34,42,3,12
1529258646033256,-6,2,-1,-31,-26,-7,-2,-14
1529258646033256,3,-2,0,-4,0,-1,-3,-2
1529258646048216,5,3,5,-34,-19,23,-10,-3
1529258646048216,-10,-3,2,48,10,-39,4,-15
1529258646049214,5,5,6,43,21,7,-5,10
1529258646049214,-1,-2,-6,-8,-14,1,4,0
1529258646072152,3,0,-2,2,1,18,-3,-2
1529258646072152,-12,-2,3,-22,-8,-20,9,-8
1529258646072152,4,-6,-10,-13,8,16,16,9
1529258646072152,2,0,-1,10,-12,0,19,1
1529258646085118,-3,-4,-2,-20,-10,7,2,-3
1529258646085118,8,2,3,16,37,1,6,5
1529258646094093,-4,4,4,21,15,4,-1,-4
1529258646094093,-4,3,2,-11,-4,22,-16,-6
1529258646109054,5,2,-4,-25,-35,-43,4,5
1529258646109054,-1,-5,-4,0,-8,1,-7,0
1529258646109054,3,-2,-2,4,-1,-2,1,5
1529258646109054,-2,-1,7,59,54,-7,12,1
1529258646131992,2,3,4,32,14,-4,5,2
1529258646131992,-9,-3,0,-16,-25,-4,-17,-7
1529258646132990,4,-4,-2,28,16,-8,0,7
1529258646132990,5,2,1,12,0,-18,-16,0
1529258646144958,0,3,1,1,-13,9,-2,-6
1529258646144958,0,-3,-5,4,-6,4,9,4
1529258646153934,3,-2,-6,-50,-25,9,-7,2
1529258646153934,-4,0,-2,-32,-23,-14,3,-5
1529258646168894,-2,-2,1,31,19,1,2,3
1529258646168894,4,2,-2,-15,-13,-5,-2,1
1529258646169891,4,7,0,-105,-66,-18,-5,2
1529258646169891,0,2,10,41,36,14,6,3
1529258646191832,-4,-1,-1,21,2,-6,2,-2
1529258646191832,-1,-1,-4,-9,-8,8,3,-2
1529258646192830,0,1,0,0,-14,-5,0,-1
1529258646192830,8,1,-5,-30,-20,-3,-7,6
1529258646205795,-6,-2,0,0,10,8,-4,-3
1529258646205795,-2,0,3,-1,-8,3,3,-2
1529258646213773,-1,1,4,30,28,9,-6,-3
1529258646213773,-4,-8,-9,-5,-3,3,-3,-4
1529258646228734,-1,-1,4,17,19,21,-3,2
1529258646228734,1,5,9,75,57,14,4,-1
1529258646229732,3,1,4,25,26,-3,1,-2
1529258646229732,-4,-1,-1,-1,-28,1,2,-1
1529258646251673,4,0,2,-9,-7,-5,-3,-2
1529258646251673,-6,-2,-9,-23,5,5,-5,-6
1529258646252671,-8,-6,3,-13,2,23,11,0
1529258646252671,-1,0,-8,8,1,5,-3,2
1529258646265635,-9,-4,0,-2,3,-1,-4,-7
1529258646265635,4,-3,-5,-18,-20,-4,-2,-1
1529258646273614,2,0,-4,10,-1,-6,-4,-5
1529258646273614,-2,-5,-5,-34,-3,2,4,1
1529258646288574,-7,-4,-7,12,9,-7,-3,-3
1529258646288574,-3,-3,7,-3,5,11,-4,1
1529258646289571,-1,-5,-15,-34,-37,-26,0,2
1529258646289571,6,5,9,-10,-12,-7,-4,-5
1529258646311512,-1,-1,2,4,6,5,-6,-3
1529258646311512,-4,-4,-9,-92,-66,-12,-6,-5
1529258646312510,2,4,5,34,19,4,5,-3
1529258646312510,-3,-1,-2,-4,-4,5,-7,-5
1529258646334451,1,-5,-7,-7,-9,-7,1,2
1529258646334451,1,0,-6,-16,-12,-8,-4,2
1529258646335449,-5,0,6,-19,-6,12,-9,-7
1529258646335449,-1,-2,-4,-11,-11,21,12,3
1529258646348414,2,2,4,1,-16,3,-2,-2
1529258646348414,-3,-6,-6,-10,-10,19,-1,1
1529258646349412,-2,-4,-3,17,1,-12,1,-6
1529258646349412,3,4,-1,-10,-3,-2,-6,-2
1529258646371352,0,-1,2,20,7,5,-1,-2
1529258646371352,4,2,4,34,20,-2,2,6
1529258646372350,-4,-3,-3,-11,-12,1,3,7
1529258646372350,0,-2,1,38,17,-3,-11,-1
1529258646394291,2,0,-3,-14,-4,1,11,3
1529258646394291,-7,-1,0,9,5,-4,-5,-7
1529258646395288,7,9,10,13,-5,3,2,-3
1529258646395288,-1,-5,-1,12,13,-5,4,3
1529258646408254,-1,0,-6,-11,-1,-3,-7,-3
1529258646408254,9,9,10,13,10,1,5,7
1529258646409251,-7,-8,-7,6,1,-10,-3,-3
1529258646409251,-2,0,0,-22,-17,-12,-7,-3
1529258646432190,0,-6,-2,9,16,4,6,0
1529258646432190,1,3,-6,-64,-40,16,-1,0
1529258646432190,12,4,17,79,56,-8,2,3
1529258646432190,-18,1,-4,-34,-11,-11,-1,-10
1529258646454131,-6,-7,-6,-17,-14,-10,-1,4
1529258646454131,-2,-7,-7,-20,-12,-10,0,-4
1529258646455129,-2,1,-5,-14,2,8,0,5
1529258646455129,8,0,1,5,4,2,-2,1
1529258646469091,-3,3,4,17,13,4,-9,-5
1529258646469091,-6,-10,-11,-5,8,-8,2,0
1529258646469091,-5,-9,-4,4,-5,4,1,1
1529258646469091,5,7,5,7,-3,-6,5,2
1529258646492030,0,6,0,-26,-18,-7,-1,-3
1529258646492030,-2,-4,3,31,11,-1,0,-6
1529258646493027,-4,-3,-7,-27,-20,-5,-5,-1
1529258646493027,-1,-2,-6,-9,-8,1,5,-1
1529258646513971,7,1,1,11,12,2,-1,1
1529258646513971,-5,-2,1,7,6,-5,-10,-1
1529258646514969,-3,-2,-2,-10,-7,-4,6,2
1529258646514969,-3,-2,-5,-9,-1,1,0,-2
1529258646528931,2,-3,-7,-13,-13,0,-7,-6
1529258646528931,-2,1,3,25,20,8,1,2
1529258646529929,-1,1,0,-3,-3,7,-4,-9
1529258646529929,-3,-8,-4,-9,5,12,1,0
1529258646550873,0,1,-6,-2,11,0,-5,-3
1529258646550873,4,3,-1,-24,-38,-2,6,8
1529258646551870,-1,1,0,42,16,7,-5,-12
1529258646551870,-4,-8,-3,-22,-22,-14,-8,-5
1529258646573811,3,4,5,28,23,3,6,5
1529258646573811,3,6,-1,-6,-5,-5,2,-5
1529258646574808,2,3,0,-14,-4,2,-1,8
1529258646574808,3,-1,-1,-18,-10,-10,-9,-5
1529258646588772,-8,-4,-3,7,0,3,2,-5
1529258646588772,8,5,1,19,22,-6,0,4
1529258646589769,1,2,2,-22,-21,-21,0,2
1529258646589769,-11,-7,0,51,26,1,-2,-1
1529258646610713,2,-2,-1,-15,-8,-4,2,3
1529258646610713,-9,-5,-8,3,-1,-5,-2,-6
1529258646611710,-2,-2,-2,-2,-7,1,0,1
1529258646611710,5,6,4,2,0,13,-6,0
1529258646634652,-10,1,0,-3,-16,-6,2,-3
1529258646634652,-2,-6,-2,8,7,-2,-3,-2
1529258646635653,3,6,-3,-9,8,17,4,3
1529258646635653,2,0,5,-44,-7,-3,2,6
1529258646648613,0,-2,2,52,15,13,-1,-5
1529258646648613,-1,2,-5,-6,-5,-9,0,-3
1529258646649609,-7,-3,3,-12,-8,1,1,-3
1529258646649609,0,-5,-13,-7,-4,-4,2,2
1529258646671550,2,1,1,-18,-2,-4,-3,-4
1529258646671550,1,1,4,6,7,11,1,2
1529258646671550,-3,-8,-9,5,4,-2,-4,-8
1529258646671550,-2,3,5,11,-1,-3,7,4
1529258646694488,-2,-2,2,-10,-2,-2,5,3
1529258646694488,-2,2,6,13,8,1,-8,-6
1529258646695487,-3,-7,-14,-17,-5,-4,-16,-14
1529258646695487,-2,-3,3,8,3,-1,1,0
1529258646708451,6,3,3,-6,0,1,2,3
1529258646708451,-1,0,1,-1,-5,-8,1,2
1529258646709449,-12,-7,4,2,2,2,-4,-2
1529258646709449,6,3,-8,-5,-2,-2,-3,-2
1529258646731390,1,-2,-1,19,8,4,-5,-1
1529258646731390,0,1,1,2,-6,-12,2,1
1529258646732388,1,3,8,-15,-7,-3,0,3
1529258646732388,2,1,-10,13,14,-2,0,2
1529258646754329,1,-4,-4,-26,-2,0,1,7
1529258646754329,-6,1,6,5,7,4,-3,-12
1529258646755326,0,-4,-15,-34,-25,-12,1,-5
1529258646755326,-1,-4,-3,3,7,6,6,1
1529258646768291,7,12,17,-4,-4,0,-3,-1
1529258646768291,0,-1,-6,-1,2,1,-3,0
1529258646769289,1,2,3,1,6,13,7,9
1529258646769289,-7,-8,-6,-8,-9,-9,-6,-8
1529258646791230,-1,-1,-8,-2,-3,7,-7,-2
1529258646791230,-4,-7,-3,-6,-6,-17,2,-2
1529258646792228,-1,-1,0,16,4,-7,-5,2
1529258646792228,7,2,-3,-13,-13,-12,2,2
1529258646814169,-7,1,2,4,-17,-9,4,-2
1529258646814169,10,6,0,-2,-2,10,-3,5
1529258646815166,2,1,6,7,2,-5,2,1
1529258646815166,1,0,4,11,8,2,4,5
1529258646829129,-9,-7,-16,-30,-10,-14,-9,-10
1529258646829129,6,1,8,-5,-12,4,0,4
1529258646829129,3,4,0,-1,-1,-7,6,2
1529258646829129,2,5,5,19,27,18,-5,-2
1529258646851070,3,0,2,-1,-2,1,3,8
1529258646851070,-3,-1,-10,-8,-4,1,0,-4
1529258646852068,-3,-5,-8,-24,-11,0,-3,-1
1529258646852068,6,11,21,37,1,4,9,5
1529258646874009,-5,-3,-3,-3,-6,-13,5,2
1529258646874009,0,-1,0,23,18,7,-5,2
1529258646875007,-2,-4,-10,-15,-7,-5,-11,-10
1529258646875007,3,6,4,-16,-5,13,-5,0
1529258646887971,8,5,12,15,1,-6,1,-5
1529258646887971,-1,0,2,-1,-3,1,8,4
1529258646895950,-6,-4,-4,11,-7,-15,-13,-4
1529258646895950,-6,-7,-5,1,5,4,-9,-4
1529258646910910,6,3,1,6,4,4,1,2
1529258646910910,2,-1,-3,-2,-4,-5,-4,-1
1529258646911908,3,7,10,35,37,10,7,6
1529258646911908,-3,-4,-4,-10,-14,-8,4,-3
1529258646933849,2,-1,-5,12,9,7,2,4
1529258646933849,-1,1,4,-29,-16,-15,-10,-3
1529258646934846,-4,-3,2,12,1,1,18,6
1529258646934846,-2,-3,0,-1,-14,-18,-1,1
1529258646947811,1,0,-5,-7,31,-6,-2,3
1529258646947811,-8,-3,-7,-6,5,2,-9,-7
1529258646955790,2,3,-1,-2,-1,-5,-2,-2
1529258646955790,-8,-3,0,10,22,24,9,-3
1529258646970750,-5,-6,2,-5,-20,-20,6,0
1529258646970750,-3,-4,-11,-26,-15,5,-5,-6
1529258646971748,2,0,3,7,-2,1,-4,-1
1529258646971748,4,4,3,-16,-14,-5,-5,1
1529258646994686,0,-4,-7,10,1,6,-4,-2
1529258646994686,-2,4,11,25,4,-7,-4,-1
1529258646994686,-7,-3,-6,6,-4,-18,8,0
1529258646994686,-3,-4,-13,-49,-33,0,-1,-3
1529258647007651,2,2,8,7,-1,11,-7,2
1529258647007651,0,-1,-1,35,26,-4,-7,1
1529258647016627,6,0,-3,4,8,7,-4,-2
1529258647016627,-2,1,3,-16,-10,-15,-4,2
1529258647031587,-4,-2,2,38,30,18,-5,-3
1529258647031587,0,4,6,10,20,7,14,0
1529258647031587,-1,0,1,-32,-5,11,1,1
1529258647031587,-1,-4,-3,15,18,-1,-16,-7
1529258647054526,-4,-6,-6,-12,-8,4,-8,-15
1529258647054526,-2,-6,-9,-42,-27,4,18,5
1529258647055524,0,-1,-2,-14,3,5,-1,2
1529258647055524,-1,-1,1,23,7,20,2,-2
1529258647067492,1,-1,-7,-57,-21,-2,3,3
1529258647067492,-3,-3,-2,1,-9,-31,-11,-4
1529258647076467,-5,0,2,-8,-29,-51,0,-6
1529258647076467,2,0,-2,3,-3,-5,2,0
1529258647091428,-3,-7,-10,-22,-12,8,-1,3
1529258647091428,10,-1,-7,-12,-9,-6,-2,6
1529258647091428,-7,-2,-1,-56,-31,13,0,-2
1529258647091428,-4,1,2,7,-5,-6,0,-1
1529258647114366,0,-2,-6,-76,-62,-13,1,0
1529258647114366,-11,-4,7,75,63,7,4,1
1529258647115364,0,-5,-9,6,-5,1,-5,-1
1529258647115364,3,3,0,-10,-6,-21,-9,-5
1529258647128329,-6,-2,-1,-6,-20,-21,26,1
1529258647128329,0,-1,-3,-14,0,12,6,7
1529258647136308,1,1,5,24,14,5,-5,-5
1529258647136308,-2,-2,1,-12,4,-9,-1,1
1529258647151268,9,3,3,26,-1,-8,-4,3
1529258647151268,-4,1,3,5,-19,3,-8,-5
1529258647152266,6,3,7,75,43,-9,7,5
1529258647152266,-5,-6,-1,16,1,-24,-2,-6
1529258647174206,-2,2,0,5,17,2,-6,-1
1529258647174206,5,7,3,-32,-33,7,-2,3
1529258647175204,-3,-8,-3,-14,-5,1,-8,-5
1529258647175204,1,0,1,20,6,6,-1,-3
1529258647188169,-2,-2,-3,-12,-14,-2,7,-2
1529258647188169,1,-1,6,37,14,25,2,-4
1529258647196147,0,-2,-12,-70,-32,13,-4,3
1529258647196147,-8,-6,-2,24,22,6,-5,-7
1529258647211107,-1,5,7,-18,-3,10,2,1
1529258647211107,2,2,2,20,25,13,2,2
1529258647212105,1,0,2,16,25,5,-8,-1
1529258647212105,-1,-3,-4,-15,-4,3,8,6
1529258647234046,-1,-1,-5,-24,5,1,-9,-1
1529258647234046,1,-2,-1,34,16,-10,-4,-4
1529258647235044,-3,1,3,41,12,0,1,-3
1529258647235044,3,-1,-1,11,-10,2,-1,4
1529258647256985,-12,-7,-2,65,51,27,-12,-8
1529258647256985,0,1,-3,-46,-19,1,1,-2
1529258647257983,10,5,1,14,1,7,0,5
1529258647257983,-8,-9,-11,-19,28,-3,-2,-10
1529258647270948,0,-1,-4,4,-2,-22,-8,-10
1529258647270948,-8,-7,-10,-11,-19,-15,-5,-8
1529258647271946,-8,-2,3,16,13,13,7,0
1529258647271946,8,6,0,-33,-33,-13,-8,7
1529258647293886,11,11,6,22,18,21,2,1
1529258647293886,-4,-5,-6,-2,5,-8,-9,-4
1529258647294884,4,2,1,-49,-40,-10,-1,5
1529258647294884,5,4,6,7,17,22,4,6
1529258647316826,-9,-8,-1,48,22,5,-4,-2
1529258647316826,6,4,-3,-77,-61,-4,5,5
1529258647317823,-4,-6,3,80,21,-9,-6,-3
1529258647317823,-3,-2,-1,21,14,20,2,-1
1529258647330787,7,6,2,39,19,5,5,2
1529258647330787,-7,1,-4,-90,-58,-11,4,-2
1529258647331785,-3,0,-1,-18,-9,17,0,0
1529258647331785,6,2,-1,-6,11,-6,4,5
1529258647354724,-10,-3,0,-39,-23,-22,-15,-19
1529258647354724,1,-5,-7,14,10,-2,0,-4
1529258647354724,-6,-3,-2,11,14,11,4,-2
1529258647354724,-5,-2,0,4,-9,-7,3,2
1529258647376665,-5,-2,-1,-8,-14,1,4,2
1529258647376665,4,5,2,14,7,-1,0,3
1529258647377663,3,3,-2,-31,-3,-18,-6,-2
1529258647377663,1,1,1,-12,2,-16,-1,0
1529258647390628,-5,-11,-3,38,50,19,2,3
1529258647390628,2,1,-2,-25,3,4,-14,-7
1529258647391625,-8,-6,-4,-17,7,-1,1,-2
1529258647391625,-1,4,3,19,-5,2,-1,-6
1529258647414564,2,0,2,-1,-13,-21,8,5
1529258647414564,-8,-5,-5,-10,6,4,5,0
1529258647415561,8,3,0,6,2,-2,2,2
1529258647415561,-3,1,-2,-10,-13,-7,-11,-15
1529258647436505,3,1,-4,-4,-13,3,2,5
1529258647436505,-1,-1,9,30,15,-3,3,5
1529258647437503,-5,-7,-6,-11,5,-3,-8,-8
1529258647437503,16,6,2,-3,-4,20,-7,9
1529258647451465,-2,-2,-2,-35,7,3,5,6
1529258647451465,-6,0,5,112,61,38,-2,-6
1529258647451465,2,5,-4,-14,-21,-15,5,0
1529258647451465,-6,-3,-5,-6,-2,-2,6,-3
1529258647474403,7,3,-2,-25,-22,-11,-1,7
1529258647474403,2,-5,0,-13,8,1,7,16
1529258647475401,-6,-6,-3,13,10,-3,-5,-11
1529258647475401,-4,-9,-9,-6,-13,-9,1,-1
1529258647496345,-1,-1,2,-7,-9,2,-2,-2
1529258647496345,-3,-3,-8,-52,-43,-12,2,-4
1529258647497342,1,3,2,1,-15,-2,-2,2
1529258647497342,3,2,-1,-38,-16,-9,-2,2
1529258647511305,7,2,1,6,-6,-6,-5,6
1529258647511305,-9,-7,-11,-16,-4,-7,1,-4
1529258647512303,13,6,10,16,4,12,-8,-3
1529258647512303,-15,-5,-1,-8,-19,-3,-7,-10
1529258647534244,-6,-5,-5,-27,-32,-9,-3,-2
1529258647534244,0,1,2,54,19,-3,-8,-7
1529258647535241,3,-1,-3,-12,-14,5,5,9
1529258647535241,6,4,5,22,11,3,2,-7
1529258647557182,-6,-2,1,8,-3,-4,-2,-7
1529258647557182,2,-2,-4,-4,0,-9,0,-1
1529258647557182,-2,0,0,-6,5,-1,0,-1
1529258647557182,-11,-5,0,3,4,3,2,2
1529258647571145,0,3,2,-5,7,34,0,-8
1529258647571145,1,-2,-2,14,18,4,1,-4
1529258647572143,-5,-2,-1,-4,7,12,5,-4
1529258647572143,6,2,4,14,16,4,-1,7
1529258647594084,0,-1,-5,-31,-26,-3,-6,0
1529258647594084,3,6,18,66,55,8,3,6
1529258647595082,-8,-6,-8,-3,12,15,0,-3
1529258647595082,-2,-5,-4,4,3,4,4,-1
1529258647617023,-4,-5,-3,-19,-3,1,-1,-6
1529258647617023,3,3,-4,-17,-6,2,-3,-1
1529258647618020,-7,0,5,13,-2,-16,-10,-9
1529258647618020,1,1,5,1,2,7,3,3
1529258647630985,-3,-1,-2,24,17,-2,-1,-1
1529258647630985,-8,-9,-7,-23,-20,-5,-7,0
1529258647631983,2,-1,-6,-15,-14,-10,9,5
1529258647631983,-4,-6,-5,1,2,-4,4,0
1529258647653924,9,9,11,25,0,3,4,3
1529258647653924,2,5,6,-10,-15,-1,3,5
1529258647654922,-1,-5,-7,-10,-4,-3,-9,-8
1529258647654922,4,7,3,-18,-15,-6,-11,-1
1529258647676862,-4,-7,-13,-43,-34,-8,-2,0
1529258647676862,7,0,2,15,11,3,2,12
1529258647677860,-5,-2,3,5,4,10,-3,6
1529258647677860,7,3,1,-10,-4,-12,-9,-14
1529258647690825,-7,1,2,9,8,3,0,-3
1529258647690825,7,5,4,35,6,6,8,19
1529258647691823,-8,-8,-8,2,-5,-2,0,-9
1529258647691823,4,5,11,-5,-2,5,2,6
1529258647714761,5,6,9,32,28,-7,4,4
1529258647714761,-10,-3,3,30,24,-14,6,-6
1529258647714761,5,0,-12,-27,-11,-21,-6,2
1529258647714761,-10,-2,-2,23,-2,-5,1,-3
1529258647736702,2,-1,2,-20,-10,-16,4,9
1529258647736702,-2,2,0,-18,-16,2,-15,-20
1529258647737700,0,-2,2,2,2,-5,8,8
1529258647737700,-2,-6,-9,-8,6,-6,-1,-4
1529258647750666,-12,-11,-10,5,2,1,0,1
1529258647750666,-2,-2,-4,-27,-15,7,1,-6
1529258647758644,1,0,-2,3,4,-3,-2,-3
1529258647758644,-2,0,4,-3,0,9,12,3
1529258647773604,6,2,3,6,12,1,-3,-2
1529258647773604,-5,-3,0,2,5,-7,-6,-7
1529258647774602,8,3,2,-1,-9,-4,-7,2
1529258647774602,-7,-6,-9,6,-7,-8,2,2
1529258647796542,-3,-6,-8,-13,-3,-5,-7,-11
1529258647796542,4,1,-8,-5,16,5,0,2
1529258647797541,-10,-7,5,0,-6,-1,-1,-11
1529258647797541,9,7,7,14,8,5,3,6
1529258647811502,-4,-8,-11,10,6,-4,-10,-11
1529258647811502,0,-1,8,-25,-34,-25,-2,-4
1529258647811502,-1,5,1,9,7,5,-2,2
1529258647811502,0,-7,-8,-9,-6,-2,-1,-1
1529258647834441,-2,-2,-4,-13,-11,2,-5,-4
1529258647834441,5,1,-2,-10,-12,7,-2,-2
1529258647835440,-5,-6,-6,13,11,5,-4,-3
1529258647835440,-7,0,13,-1,-8,-5,2,-1
1529258647856382,0,-7,-10,-57,-20,-7,-2,4
1529258647856382,0,-4,-18,4,-2,7,-6,-5
1529258647857380,11,17,20,4,-4,3,11,8
1529258647857380,-12,-7,-5,0,1,-2,-5,-4
1529258647870345,7,5,5,5,6,1,3,6
1529258647870345,3,0,8,20,14,3,-2,6
1529258647878324,3,2,-10,-9,-3,-7,-3,-5
1529258647878324,2,-3,-8,-9,-4,-2,-1,3
1529258647893284,2,6,10,9,-2,-5,3,2
1529258647893284,-6,-5,-4,-26,-10,4,1,-2
1529258647894282,-1,-1,-1,27,34,23,0,2
1529258647894282,6,4,2,35,15,-10,2,3
1529258647917220,2,1,-2,-5,-10,0,-4,-3
1529258647917220,-6,-5,-7,-36,-14,5,-3,-6
1529258647917220,3,4,2,5,-4,6,3,6
1529258647917220,4,7,9,-5,2,12,-3,-3
1529258647930186,-8,-4,-7,-2,-7,-4,-5,-7
1529258647930186,6,1,-4,-27,-23,-26,3,2
1529258647938164,-5,-4,-4,-1,-5,-4,2,1
1529258647938164,1,-3,-6,-8,-7,0,-3,-2
1529258647954121,5,12,14,14,10,7,-3,2
1529258647954121,-14,-9,-4,13,-8,-9,-3,-14
1529258647954121,0,-4,-7,17,4,3,-3,-2
1529258647954121,2,-1,-1,7,0,5,4,3
1529258647977060,0,8,10,23,14,3,4,1
1529258647977060,3,3,2,-22,-14,-8,0,6
1529258647978057,-1,1,4,-2,-5,-6,0,3
1529258647978057,-10,-6,-5,19,5,-5,11,-4
1529258647990025,7,-1,-1,29,11,-7,-3,3
1529258647990025,1,4,6,25,1,-14,-7,-4
1529258647999001,0,-3,-1,-15,-4,-5,0,-1
1529258647999001,-9,-14,-16,-18,-4,-3,-5,0
1529258648013961,-4,2,5,16,8,15,7,-7
1529258648013961,2,4,3,-24,1,12,0,3
1529258648013961,5,-1,0,-13,-4,2,8,6
1529258648013961,6,3,6,66,49,9,-8,0
1529258648036900,-17,-14,-9,6,6,-3,-1,-5
1529258648036900,9,4,1,-7,-1,8,-3,7
1529258648037898,-4,-1,-3,-12,-3,2,-6,-6
1529258648037898,-1,-1,-4,-41,-18,-10,1,-2
1529258648050863,1,-1,-3,11,-11,6,-3,4
1529258648050863,-6,-3,-3,32,1,-21,-1,-6
1529258648058841,-3,-2,0,-38,-20,-5,2,3
1529258648058841,2,3,10,64,10,-1,-6,-5
1529258648073801,1,3,-5,-23,-13,-13,-2,-8
1529258648073801,-8,-10,-2,-21,-5,-6,-2,1
1529258648074799,-5,-5,-5,13,4,-10,-1,-2
1529258648074799,-8,-6,-7,-115,-62,-10,13,5
1529258648096740,-8,-5,-6,41,40,4,-3,-9
1529258648096740,4,4,2,41,38,15,5,1
1529258648097738,6,11,15,1,0,-9,8,2
1529258648097738,3,-3,-3,-13,-12,4,0,6
1529258648110703,-9,-4,2,16,-1,-21,-7,-11
1529258648110703,3,-2,-5,-13,-7,-10,6,6
1529258648118681,-2,-5,-10,13,10,9,0,-3
1529258648118681,-2,5,7,50,45,16,-24,-14
1529258648133641,8,8,13,3,-4,6,9,8
1529258648133641,-4,-2,1,-7,-13,3,-8,-7
1529258648134639,2,0,2,-25,-16,-3,0,0
1529258648134639,3,-3,-17,-40,-56,-24,-8,4
1529258648156580,-8,-7,-8,-19,-2,-5,4,6
1529258648156580,-1,1,-2,-25,-5,5,5,-3
1529258648157578,1,0,3,-19,-27,4,-10,-3
1529258648157578,-2,-3,0,24,19,2,5,-5
1529258648170543,5,-1,-5,-28,-16,-5,-4,6
1529258648170543,1,3,1,-8,-10,-9,7,4
1529258648178521,0,0,0,4,-20,-15,-5,-4
1529258648178521,-5,-2,-7,-45,-12,-5,-3,-1
1529258648193481,-5,-2,3,12,-4,-14,-6,-5
1529258648193481,-1,-2,-8,-20,0,-5,-6,-10
1529258648194479,5,7,10,28,54,30,-6,-4
1529258648194479,-5,-2,-2,8,2,-2,10,-2
1529258648216420,8,3,-1,-21,-11,0,-2,2
1529258648216420,12,5,2,-10,2,-11,-4,5
1529258648217418,-2,-1,3,49,12,-6,11,8
1529258648217418,2,2,-4,-22,-18,-3,-4,-3
1529258648239359,-9,-4,-7,-39,-18,-19,-17,-13
1529258648239359,3,2,2,27,-12,19,-1,-1
1529258648240356,1,3,-8,-18,-9,-6,-4,-3
1529258648240356,-7,-10,0,-4,-9,1,-1,-3
1529258648253321,1,3,-3,9,-1,6,9,1
1529258648253321,-1,-4,-3,-4,16,15,-4,0
1529258648254319,-6,-7,-9,-48,-16,-24,-4,-4
1529258648254319,0,2,-1,-11,0,38,-2,-3
1529258648277257,0,-2,-2,-8,3,-12,-2,5
1529258648277257,-10,-7,3,13,6,-1,4,-1
1529258648277257,1,-1,-8,-55,-20,0,3,1
1529258648277257,-7,-6,-5,-6,-6,-6,1,-1
1529258648299199,14,10,11,62,37,-21,19,13
1529258648299199,-6,2,12,65,47,26,1,-1
1529258648300197,-3,-3,-4,9,1,-6,-7,-6
1529258648300197,-2,-1,-2,-5,-1,-6,4,-1
1529258648313161,-3,-3,-3,-14,-12,17,1,-5
1529258648313161,-3,-2,-11,-66,-20,-6,-4,-2
1529258648314159,-2,-4,3,64,16,-3,-1,-3
1529258648314159,-3,-3,6,31,11,0,0,-1
1529258648337097,0,-5,-8,-17,-3,7,-4,-4
1529258648337097,-1,1,-4,-38,-20,-6,-5,-2
1529258648338095,1,4,15,73,55,0,5,2
1529258648338095,5,4,0,6,11,-4,-8,-6
1529258648359039,-1,-2,-3,-12,-14,-1,2,3
1529258648359039,-4,-1,2,26,4,1,2,-3
1529258648360036,-2,-3,-6,-69,-47,2,-1,-1
1529258648360036,1,0,5,11,2,13,7,6
1529258648373999,0,1,1,-20,-1,-11,-5,-1
1529258648373999,6,5,4,55,14,-48,7,1
1529258648373999,-1,-1,-6,-37,-26,4,4,-1
1529258648373999,-1,-1,1,4,-1,-3,-3,2
1529258648396938,-5,-10,-9,-8,-4,-1,-9,-5
1529258648396938,-3,1,-2,-9,2,13,8,2
1529258648397935,9,9,11,26,6,7,-4,3
1529258648397935,-1,2,0,-3,-20,-18,-14,-4
1529258648418879,-6,-4,-2,19,19,16,-4,-8
1529258648418879,-5,-10,-8,22,2,13,-1,1
1529258648419877,-1,-4,-8,3,7,-11,0,7
1529258648419877,2,2,0,-19,-11,0,3,1
1529258648433839,2,2,0,4,-14,13,0,3
1529258648433839,-3,-6,-4,-11,-4,2,-12,-7
1529258648434837,-2,-2,-3,5,0,18,-9,-2
1529258648434837,1,0,-2,2,10,13,2,5
1529258648456777,9,3,-1,-11,-9,5,-2,3
1529258648456777,-8,-6,-3,-15,-14,-2,-9,-3
1529258648457775,-10,-6,-3,3,3,7,-1,-2
1529258648457775,-1,-4,-5,-6,9,-7,-3,-3
1529258648479716,6,5,8,15,10,11,7,5
1529258648479716,1,-3,-6,-24,-11,3,-2,-2
1529258648479716,-4,-3,-1,-43,-14,7,-7,-6
1529258648479716,4,4,3,35,20,2,2,-2
1529258648493679,-5,-3,-3,-9,5,-9,0,-7
1529258648493679,-2,0,3,8,0,-1,4,0
1529258648494677,-6,-7,-7,-25,-17,-15,-3,-5
1529258648494677,6,3,7,30,31,10,6,6
1529258648516618,-9,-5,-8,-19,-15,15,11,0
1529258648516618,-2,0,3,10,11,2,-7,-9
1529258648517616,2,-2,-1,7,3,-3,-2,-5
1529258648517616,-1,-2,-8,-22,-9,1,-3,-1
1529258648539556,-4,4,10,22,30,-21,-5,-5
1529258648539556,1,2,2,8,-12,-2,6,-1
1529258648540554,0,-1,0,3,-5,-4,0,0
1529258648540554,7,5,-1,-13,-10,6,3,-1
1529258648553519,2,2,3,-2,-11,-3,4,3
1529258648553519,-1,-1,-3,9,-1,-1,4,5
1529258648554517,-7,-2,2,12,12,-3,2,-9
1529258648554517,0,-2,0,5,4,-5,0,5
1529258648576457,2,0,-4,-15,-7,3,-7,-1
1529258648576457,5,1,-1,-14,-5,0,-7,2
1529258648577455,-4,-4,-2,30,15,6,5,-2
1529258648577455,-2,2,-1,-33,-7,-7,2,1
1529258648599396,-12,-8,-7,-3,-9,-4,-10,-8
1529258648599396,2,4,2,21,17,3,2,1
1529258648600394,5,2,-2,-10,-2,5,1,3
1529258648600394,-18,-11,-5,-12,-8,-4,1,-8
1529258648613359,7,0,0,-1,-11,-11,1,3
1529258648613359,1,1,0,-1,5,-3,4,0
1529258648614357,6,3,2,16,11,-2,-4,1
1529258648614357,3,4,2,0,6,0,1,2
1529258648637295,0,0,2,29,44,28,1,-2
1529258648637295,1,-2,-1,5,25,-7,6,4
1529258648637295,-3,-4,0,5,-2,0,9,2
1529258648637295,1,3,1,10,3,2,-3,5
1529258648659236,-8,-6,-7,-33,-21,-5,-7,-15
1529258648659236,4,4,0,5,-10,-1,-6,5
1529258648660234,-1,2,5,6,13,21,-2,-3
1529258648660234,-13,-12,-4,7,-4,1,-3,-6
1529258648673199,-2,-1,0,0,-13,-3,8,5
1529258648673199,1,0,0,-12,-1,7,-7,1
1529258648674197,-3,1,-2,-3,-12,-10,-9,-8
1529258648674197,0,1,0,-2,-6,-2,1,-4
1529258648697135,-1,3,5,4,-8,0,0,3
1529258648697135,-2,-4,-2,6,-7,-6,-2,-5
1529258648698133,5,3,0,-21,-10,-5,3,7
1529258648698133,-2,3,1,-9,-8,-12,-7,-5
1529258648719077,7,3,-2,-12,-3,-14,-8,-1
1529258648719077,-4,-2,-4,-23,-15,-7,-8,-7
1529258648720075,0,-4,-1,4,8,2,-3,0
1529258648720075,-4,-9,-3,25,10,-6,0,0
1529258648734036,-7,-2,-1,-4,-24,-8,5,-1
1529258648734036,4,0,-1,-16,-9,8,0,5
1529258648734036,3,5,-4,-4,3,2,5,5
1529258648734036,-5,-4,-5,-13,6,3,-7,-14
1529258648756975,2,-4,-9,14,21,11,-1,3
1529258648756975,-7,-2,11,9,3,-8,5,-2
1529258648757973,-1,-5,-6,-4,-20,-14,-6,-1
1529258648757973,12,8,3,7,1,4,4,6
1529258648778916,-6,-3,-5,-9,-3,0,1,4
1529258648778916,-7,-5,-2,10,4,0,0,-2
1529258648779914,3,2,-1,-4,-1,1,-1,6
1529258648779914,5,2,6,-10,-20,-21,-1,2
1529258648792879,0,3,-1,-2,-2,7,-1,-4
1529258648792879,4,2,0,-9,2,-10,-6,0
1529258648800858,-8,-11,-1,0,-1,2,-1,-6
1529258648800858,-2,-4,-9,2,-2,-5,0,0
1529258648816815,5,9,8,-31,-29,-15,-4,0
1529258648816815,2,3,-4,-13,6,-15,1,5
1529258648817813,-5,-3,0,24,20,-4,-7,-6
1529258648817813,5,1,-1,-1,3,13,-4,4
1529258648839754,-3,-4,-2,6,3,5,2,-2
1529258648839754,-3,-2,-5,-17,-15,-3,-1,-5
1529258648839754,17,15,10,6,5,2,-9,9
1529258648839754,-6,-5,-5,0,-9,-6,0,-3
1529258648852719,-7,-6,-3,12,12,2,0,-1
1529258648852719,-2,-2,4,18,1,6,-1,-5
1529258648860697,-3,-4,-6,2,0,-14,1,-3
1529258648860697,11,4,2,-10,-10,-2,0,6
1529258648876655,-18,-10,-7,-2,-8,2,-12,-15
1529258648876655,1,0,0,0,0,3,2,-2
1529258648876655,-3,-2,-4,-7,-7,2,4,6
1529258648876655,-4,-5,-6,3,8,5,-2,-6
1529258648899594,1,-1,4,9,8,7,13,3
1529258648899594,3,-1,-4,-2,-4,7,-5,-1
1529258648900592,0,5,4,-4,-1,4,4,-3
1529258648900592,-5,-7,0,0,-6,-19,-3,0
1529258648912559,9,3,-2,9,21,-1,0,5
1529258648912559,4,7,5,-2,10,16,1,2
1529258648921535,-5,-1,2,-2,-5,-1,-2,-5
1529258648921535,3,3,-1,-8,10,12,-4,-1
1529258648936495,5,2,1,18,-5,0,-8,-3
1529258648936495,-3,0,1,9,-9,-14,-2,1
1529258648936495,2,0,-1,-17,-16,4,-1,0
1529258648936495,-3,-2,-3,18,17,-2,-2,-4
1529258648959434,-5,-5,-1,-2,10,9,4,2
1529258648959434,3,1,0,-7,-2,-1,-1,-2
1529258648960431,-5,-1,-6,7,1,-1,-3,-5
1529258648960431,1,3,5,-2,-6,-10,3,2
1529258648973397,12,5,3,2,-3,-3,0,6
1529258648973397,-4,-5,-1,11,7,3,2,-3
1529258648981375,-6,-5,-3,-4,0,-2,4,-4
1529258648981375,1,2,1,-12,-9,-9,0,-1
1529258648996335,2,-5,-4,-1,4,-9,-6,-4
1529258648996335,1,0,-3,-7,-5,3,3,3
1529258648997333,-3,-6,-1,-2,12,8,2,-1
1529258648997333,-4,4,2,-3,-7,2,-3,-2
1529258649019274,6,2,1,7,-4,-5,-7,-1
1529258649019274,-4,-7,-5,-1,-7,-8,-2,-5
1529258649020272,-5,0,-2,-4,-1,-4,-2,-2
1529258649020272,-2,-6,-4,2,-6,4,-2,0
1529258649033237,-3,-3,-5,-2,2,-22,-3,2
1529258649033237,4,3,6,-7,5,13,-2,1
1529258649041215,-10,-5,-5,4,8,3,-7,-7
1529258649041215,-1,1,0,6,-12,6,1,-4
1529258649064154,1,-1,-6,-20,-14,-10,0,2
1529258649064154,-5,-4,-4,-3,-2,5,-3,-4
1529258649065152,1,0,-3,-16,-4,-3,1,-1
1529258649065152,2,3,4,19,8,-1,-6,0
1529258649079114,3,2,3,-1,3,2,-3,0
1529258649079114,7,2,-3,-8,-3,15,2,8
1529258649080112,2,-1,-2,-8,-11,3,2,-2
1529258649080112,-1,2,8,-9,4,0,3,0
1529258649093077,-4,0,1,1,-3,1,-2,-3
1529258649093077,-3,-1,-3,-2,4,-4,4,0
1529258649101055,-3,-5,-7,5,-2,-3,-6,-2
1529258649101055,5,0,0,4,10,5,4,5
1529258649116015,-12,2,3,2,2,14,-1,-9
1529258649116015,-1,-4,-1,-14,-29,-41,2,-1
1529258649117013,3,-5,-9,-8,-1,-15,3,5
1529258649117013,-1,1,-4,-10,0,-3,-3,-3
1529258649138954,2,6,13,19,12,10,0,-1
1529258649138954,8,-1,-6,-2,2,6,-4,2
1529258649139951,-17,-6,-1,1,-5,-11,-3,-7
1529258649139951,-6,-9,-8,-17,-8,-7,-5,0
1529258649161893,-1,-1,-2,-13,-5,1,0,0
1529258649161893,5,6,7,22,23,2,-2,1
1529258649162890,6,5,8,7,-6,6,-3,1
1529258649162890,-7,-7,-6,-6,-1,1,5,-4
1529258649175855,6,-1,-4,2,-5,-4,-3,5
1529258649175855,-9,2,0,-7,0,0,-4,-1
1529258649176853,4,-1,-1,-6,-8,-1,8,1
1529258649176853,-2,2,3,8,7,0,-5,-6
1529258649199792,3,0,0,-32,-14,-10,8,6
1529258649199792,-2,2,0,29,7,9,1,-1
1529258649199792,3,2,13,11,3,12,3,7
1529258649199792,-3,0,-6,-7,-4,3,0,-5
1529258649221732,3,-4,-9,-6,-6,-5,0,4
1529258649221732,-13,-4,-6,-24,-11,-8,-6,-16
1529258649222730,0,-3,-2,17,-1,13,3,1
1529258649222730,-7,-2,-2,0,-7,-4,-1,-8
1529258649235695,-1,3,9,11,7,4,2,1
1529258649235695,-4,-6,-6,-22,-17,-7,-1,-5
1529258649236693,4,0,-1,8,5,-5,1,7
1529258649236693,0,-4,-3,9,20,12,-10,-2
1529258649259631,0,3,-1,35,-1,-1,4,-7
1529258649259631,-9,-11,-3,-6,-9,-7,3,-1
1529258649260629,0,1,-1,-11,-6,-6,-2,-3
1529258649260629,6,3,3,16,10,-5,9,9
1529258649281573,-11,-5,0,-6,4,-6,-9,-10
1529258649281573,0,1,-2,12,4,-3,-4,-2
1529258649282571,2,-6,-1,-12,-3,8,0,0
1529258649282571,-7,-5,-4,0,1,0,9,4
1529258649296533,-1,-5,-7,-1,-5,5,-5,-2
1529258649296533,2,1,1,-21,-4,-8,3,3
1529258649296533,-2,5,-2,4,8,-3,3,-3
1529258649296533,-5,1,9,10,0,2,-4,0
1529258649319472,3,-2,-4,-10,-9,8,5,3
1529258649319472,3,4,6,39,33,27,-5,4
1529258649320470,11,8,4,-7,-5,-14,-14,5
1529258649320470,4,1,-3,1,-10,-5,-6,-1
1529258649341413,0,0,-2,-2,10,3,1,1
1529258649341413,4,6,9,6,4,1,-1,-2
1529258649342410,-12,-9,-10,-9,-10,-15,-5,-9
1529258649342410,4,7,7,-18,3,5,-1,0
1529258649356373,-1,0,-5,-31,-10,2,1,1
1529258649356373,4,0,4,64,26,14,11,4
1529258649357370,1,1,4,3,6,6,2,-3
1529258649357370,-2,-1,-8,12,4,6,0,2
1529258649379311,-3,-2,4,-7,-14,-14,3,-1
1529258649379311,0,-4,-9,-14,1,2,-2,-1
1529258649380309,0,-1,3,1,-1,0,-5,-2
1529258649380309,-5,-3,-4,-12,-10,-5,-4,-7
1529258649402250,1,0,-2,-2,2,-7,-2,2
1529258649402250,-4,-11,-15,-42,-25,-17,-5,-1
1529258649402250,-5,-2,-5,8,7,1,-1,-4
1529258649402250,-6,3,10,-13,-13,-10,0,-12
1529258649416213,-2,-1,-3,13,13,-7,2,-2
1529258649416213,2,-2,2,3,-9,-10,-5,2
1529258649417210,-11,-8,-7,-7,3,-4,1,-13
1529258649417210,7,-1,-7,9,7,-8,-2,8
1529258649439151,4,3,0,-29,-8,-11,-4,2
1529258649439151,-2,-1,5,28,-1,-11,-9,-13
1529258649440149,7,3,2,-20,-17,2,5,7
1529258649440149,4,5,13,90,53,35,1,7
1529258649462090,-3,-9,-7,17,-7,13,-8,-6
1529258649462090,-3,0,-7,-25,-9,9,0,-1
1529258649463088,2,1,2,-2,-7,-9,0,2
1529258649463088,-1,-3,-2,-31,-14,-9,3,-1
1529258649476053,5,5,-1,7,14,7,-7,2
1529258649476053,-9,-3,1,-3,-4,-4,3,2
1529258649477050,-3,-5,-3,9,5,11,-6,-4
1529258649477050,2,0,-2,-15,-10,-7,6,2
1529258649498992,5,0,-1,8,8,9,-2,11
1529258649498992,-6,-1,-6,-50,-32,-28,-4,-5
1529258649499990,-1,-2,2,19,19,-7,1,1
1529258649499990,2,0,-4,-9,-7,5,-4,0
1529258649521930,0,2,0,-24,-27,-30,-16,-9
1529258649521930,5,1,1,-8,10,9,3,2
1529258649522928,7,4,0,-5,-22,-2,-7,-4
1529258649522928,-4,-3,-4,0,-2,-20,-4,-7
1529258649535893,-5,1,3,8,6,20,9,3
1529258649535893,-4,-8,-6,-10,-2,5,-6,-3
1529258649536890,-3,-3,-2,-18,-3,9,0,-2
1529258649536890,5,1,-3,7,-9,-1,3,7
1529258649559829,-2,-2,0,-6,-13,-19,1,-5
1529258649559829,-1,-2,1,35,14,29,-6,-4
1529258649559829,-6,-4,-4,-12,-6,-28,0,-2
1529258649559829,-2,-2,-4,-23,-15,1,3,2
1529258649581770,0,0,0,34,16,7,6,7
1529258649581770,4,6,4,2,-13,-10,-3,-2
1529258649582768,-6,-7,-4,-16,0,-7,1,0
1529258649582768,-5,-5,-6,-6,-4,7,-2,-5
1529258649595733,-5,-1,2,-10,21,-2,-5,-10
1529258649595733,2,-1,-1,18,6,10,1,4
1529258649596730,4,4,-1,-23,-6,-3,-4,3
1529258649596730,4,1,-1,7,5,-8,-4,1
1529258649619669,-3,-3,-2,-9,-5,-4,9,-2
1529258649619669,-7,-3,-4,-18,-15,0,2,-1
1529258649619669,11,9,8,13,10,11,-3,10
1529258649619669,-3,-2,-2,-6,-4,2,-1,-4
1529258649641610,0,0,0,-1,-7,-22,-2,0
1529258649641610,6,1,2,1,9,-4,4,5
1529258649642608,-3,-3,-3,20,3,1,0,-2
1529258649642608,3,3,3,-10,-3,-1,-4,1
1529258649656570,2,-1,-3,-9,-2,-17,-11,0
1529258649656570,-4,-6,-3,-2,1,-6,2,-4
1529258649656570,-4,-3,-3,6,0,19,8,6
1529258649656570,3,3,1,-6,-6,-8,4,2
1529258649679509,-5,-3,0,26,6,14,3,-3
1529258649679509,0,0,-1,-8,-4,-4,-5,-2
1529258649680507,0,-2,0,-6,-11,-7,10,0
1529258649680507,-1,-1,-2,4,5,6,-6,2
1529258649701450,-5,-4,-1,-2,1,10,-8,-7
1529258649701450,4,-1,-1,1,6,-1,0,-5
1529258649702448,2,3,3,15,3,2,5,2
1529258649702448,-4,-3,-2,-10,5,2,-2,-4
1529258649716410,-2,-4,-3,18,0,1,3,1
1529258649716410,-7,-3,-4,11,9,2,-4,-3
1529258649717408,0,2,3,-7,-2,-10,3,-1
1529258649717408,6,4,1,22,11,4,-2,2
1529258649739349,-11,-6,-2,-15,-2,8,0,-6
1529258649739349,6,2,4,26,2,15,9,10
1529258649740346,-1,-1,2,13,1,1,-7,-3
1529258649740346,0,-3,-4,-28,-14,-5,-1,-4
1529258649762288,0,-3,-2,-10,-10,3,5,3
1529258649762288,1,2,-4,-17,-13,-12,-3,-2
1529258649762288,2,1,3,24,23,5,1,0
1529258649762288,-2,-4,-4,-4,0,-17,-5,-1
1529258649784229,-2,0,-2,-8,-8,-4,-4,-1
1529258649784229,-9,-4,-7,-6,-10,-11,-2,-10
1529258649785227,1,-4,-2,8,13,2,2,7
1529258649785227,-8,-2,0,-8,-6,-1,6,-3
1529258649799189,9,6,4,16,14,8,1,6
1529258649799189,2,2,-1,-18,-3,-6,0,4
1529258649800187,-4,0,0,-8,-6,-1,-4,-6
1529258649800187,-6,-7,-4,9,4,2,0,-1
1529258649822128,1,4,-1,-1,5,0,2,-2
1529258649822128,2,-1,3,-2,3,4,1,5
1529258649823125,-1,-1,-3,-1,-1,-5,-6,-10
1529258649823125,1,3,3,-1,-2,4,0,1
1529258649836091,0,-4,-6,-10,-6,-5,2,1
1529258649836091,-2,-3,-4,2,5,2,-5,-7
1529258649844069,5,8,9,11,-6,1,-1,1
1529258649844069,-1,-1,0,-6,-11,-5,-5,-4
1529258649859029,-2,1,0,-18,-14,2,-7,0
1529258649859029,-4,-2,0,8,-2,-5,3,-5
1529258649860027,-14,-11,-8,1,2,8,-8,-4
1529258649860027,4,-2,-4,-12,0,2,5,4
1529258649881967,2,3,0,7,12,9,-1,-1
1529258649881967,-2,-2,3,1,0,-4,-2,-1
1529258649882965,3,-3,-5,-16,-7,2,-7,1
1529258649882965,3,2,3,-7,-5,-3,0,4
1529258649895930,-5,0,-2,-9,-1,2,1,0
1529258649895930,-2,-3,0,1,6,2,0,-4
1529258649904907,6,5,2,0,-6,-4,3,4
1529258649904907,0,-3,-3,1,6,2,-3,-1
1529258649917872,4,6,6,9,-1,-2,-6,-4
1529258649917872,-1,-1,-2,-6,-3,-4,2,7
1529258649926848,2,-1,0,-1,-4,-3,5,5
1529258649926848,-6,-3,-4,2,-2,-3,-7,-10
1529258649941808,-2,-11,-12,0,-17,-2,-1,3
1529258649941808,6,11,12,-5,6,2,-1,2
1529258649943803,-3,1,-2,-13,0,-3,1,-2
1529258649943803,-1,4,6,36,14,4,1,-3
1529258649955771,-1,-1,-2,14,1,-5,13,1
1529258649955771,-2,-4,-8,-12,-10,-8,-2,2
1529258649964747,2,-3,-3,1,0,-1,3,2
1529258649964747,2,3,8,50,24,9,4,1
1529258649977712,-6,-5,-3,-3,1,2,-7,-7
1529258649977712,-5,-3,-1,-3,11,10,2,5
1529258649986688,-3,1,-2,4,0,-7,-3,-8
1529258649986688,-3,-5,-7,-24,-15,-4,-2,1
1529258650001647,2,2,6,1,4,2,2,2
1529258650001647,4,1,-6,4,1,-5,-4,-1
1529258650003643,-4,1,1,-9,-2,3,-7,-5
1529258650003643,-5,-1,-1,-9,-7,-4,-2,-3
1529258650015610,0,2,0,-3,2,-1,0,2
1529258650015610,-3,-3,-4,-8,-11,-4,1,-3
1529258650024587,4,-4,-7,-10,-2,-5,2,5
1529258650024587,4,8,22,46,28,2,-7,-8
1529258650037552,-11,-6,-5,3,1,0,2,-4
1529258650037552,4,-2,-5,-6,-9,-10,4,7
1529258650046528,0,2,2,-3,2,-1,-3,-7
1529258650046528,-8,-9,-13,-49,-28,-10,-3,-5
1529258650061488,3,-5,-2,0,-3,0,0,0
1529258650061488,-3,1,2,25,15,14,4,1
1529258650063483,-5,-1,2,-1,-4,-7,1,1
1529258650063483,1,-2,-8,-24,-15,-1,9,4
1529258650084426,7,0,-6,6,1,-3,-1,-2
1529258650084426,-13,-7,-1,-12,-3,-3,-2,-2
1529258650086421,1,4,3,0,-1,2,-12,-6
1529258650086421,2,2,5,7,20,2,3,3
1529258650098389,-2,-5,-1,3,3,-2,2,3
1529258650098389,-1,-5,0,1,-2,-3,-1,-1
1529258650107366,4,3,-4,7,7,2,-10,4
1529258650107366,6,6,3,-8,-10,-13,-1,-1
1529258650122325,0,0,2,-5,-4,5,2,1
1529258650122325,0,1,0,-2,2,-1,-4,-1
1529258650123323,-6,-11,-11,-11,-10,-1,10,0
1529258650123323,4,0,-4,1,2,0,-2,4
1529258650144266,1,9,15,-3,2,-3,1,-2
1529258650144266,1,1,1,17,3,-9,-3,-2
1529258650146261,-4,-7,-7,0,-3,-9,0,-4
1529258650146261,2,0,-2,-3,-4,0,-1,3
1529258650158229,-5,-5,-5,-8,-4,-1,0,-4
1529258650158229,7,3,-3,-4,-2,-7,3,3
1529258650173190,-2,-5,0,-3,2,0,1,2
1529258650173190,-6,-3,4,5,0,3,-8,-5
1529258650182165,0,0,-2,-5,-1,-6,-6,-1
1529258650182165,2,-2,-4,-32,-21,2,4,-1
1529258650183163,12,9,7,29,14,3,7,5
1529258650183163,-11,-7,-6,-9,-13,4,-9,-5
1529258650204107,-4,-3,-13,-5,0,-4,-5,-4
1529258650204107,-5,-7,10,1,-4,-4,-6,-3
1529258650206101,2,5,4,-2,7,12,5,3
1529258650206101,3,2,-1,6,16,10,8,3
1529258650218069,-3,-4,-1,7,-1,-1,-2,-3
1529258650218069,1,2,-2,-1,3,-2,0,-9
1529258650227045,-3,-5,-3,-3,-3,-8,-4,0
1529258650227045,1,-6,-7,-8,-5,-2,-2,1
1529258650242006,3,3,0,0,0,3,-3,-3
1529258650242006,6,6,3,-1,-6,-9,2,11
1529258650243003,-7,-4,0,-17,-11,-3,-3,-5
1529258650243003,-4,-7,-13,-11,-7,-9,-1,-3
1529258650264944,1,-4,5,19,4,5,-4,0
1529258650264944,7,2,2,8,5,10,1,0
1529258650270928,-4,2,-2,-25,-19,-7,-2,-2
1529258650270928,-3,-4,-3,4,8,0,6,2
1529258650277909,-2,-2,-6,-59,-29,-7,2,0
1529258650277909,-3,-2,4,59,25,4,-2,-3
1529258650286886,-3,-8,-9,-12,-9,0,0,1
1529258650286886,-3,-2,2,13,14,6,-1,-6
1529258650301845,7,5,4,-16,-14,2,0,6
1529258650301845,-3,1,0,1,13,5,1,-1
1529258650303840,-9,-4,1,-6,-15,-9,-2,-5
1529258650303840,2,5,3,7,9,1,-1,-3
1529258650324784,0,0,0,7,5,2,0,0
1529258650324784,-2,-1,3,-3,-13,-1,-1,-5
1529258650325782,3,2,2,17,22,2,-7,-4
1529258650325782,2,2,4,11,5,-7,7,4
1529258650337749,-1,-4,-1,26,18,2,0,3
1529258650337749,-1,-1,-8,-17,-11,-2,-1,-2
1529258650346726,-2,0,1,22,23,2,-7,-4
1529258650346726,3,4,0,-27,-27,-2,-1,0
1529258650361685,-5,-1,2,1,26,6,3,-4
1529258650361685,-4,-9,-2,24,16,1,-7,-3
1529258650363680,4,-4,-8,-13,-9,-2,-1,2
1529258650363680,-7,-2,0,-7,-2,-3,0,2
1529258650384624,5,1,0,9,-1,-8,-1,-1
1529258650384624,-7,-1,1,-20,17,16,-3,-1
1529258650385622,7,5,5,19,2,-3,3,2
1529258650385622,-9,-10,-7,-11,-8,-2,-2,-5
1529258650397589,1,0,-3,-3,-7,7,-4,4
1529258650397589,-4,-6,-7,-14,-20,-7,-3,-4
1529258650406565,-2,0,-5,-9,7,-10,1,-4
1529258650406565,3,2,6,24,-13,2,-1,1
1529258650421525,0,5,9,1,7,-2,-1,-2
1529258650421525,1,-5,-4,-17,-13,4,1,2
1529258650423520,-3,-4,-2,22,17,10,7,-2
1529258650423520,0,-5,-10,-36,-34,-1,-7,-1
1529258650444464,1,1,2,53,38,0,1,1
1529258650444464,-4,3,12,38,18,17,0,-9
1529258650446459,1,0,4,-18,-39,-10,-3,9
1529258650446459,1,-4,-11,-39,5,-2,-2,-3
1529258650458426,-7,-8,-6,-36,-36,-13,3,-1
1529258650458426,-6,-7,-13,-19,-9,-10,2,-4
1529258650467403,2,2,2,2,-3,1,-2,-5
1529258650467403,4,4,6,-7,-6,1,-1,5
1529258650481365,-3,-5,-8,-7,1,-2,-2,-1
1529258650481365,-1,0,-3,-10,0,-11,1,3
1529258650483361,1,-1,4,36,32,5,5,1
1529258650483361,0,6,4,29,15,-1,-1,-1
1529258650504304,-5,-4,-2,-27,-17,1,8,-1
1529258650504304,3,-4,2,40,2,10,3,10
1529258650506299,0,1,-2,3,3,6,-4,-4
1529258650506299,1,-1,-4,13,-2,-6,-2,0
1529258650518267,-1,2,9,31,5,25,-5,0
1529258650518267,2,3,3,-4,1,-6,0,-1
1529258650527243,0,-1,0,-22,-8,3,2,1
1529258650527243,-7,-8,-8,23,9,-3,-5,-9
1529258650542203,1,5,2,-35,-47,-13,-5,-2
1529258650542203,-1,-1,-2,21,7,-3,-8,-3
1529258650543200,1,4,4,-8,-1,1,1,2
1529258650543200,-8,-2,-2,-17,0,0,4,-8
1529258650564144,5,-2,-9,7,10,-2,-3,1
1529258650564144,-12,-9,-8,-36,-32,-16,-6,-15
1529258650566139,-5,-3,-8,-1,2,4,2,-3
1529258650566139,6,2,9,-14,-10,18,3,2
1529258650578107,-11,-7,-10,13,28,3,9,-2
1529258650578107,11,6,6,4,-9,-5,7,12
1529258650587083,-12,-8,-9,-41,-19,-11,-8,-7
1529258650587083,1,3,1,40,26,6,0,-1
1529258650602043,-6,-6,-4,-9,-6,-5,3,-1
1529258650602043,4,2,1,10,18,14,-4,-2
1529258650603040,4,9,10,-7,-15,0,0,6
1529258650603040,1,3,5,-18,-26,-7,0,1
1529258650623984,1,0,0,5,-5,-6,-7,-4
1529258650623984,0,0,0,18,19,-10,1,3
1529258650625979,-4,-4,-7,-1,-12,-1,-6,-3
1529258650625979,4,0,2,-6,-9,14,-1,2
1529258650637947,-2,0,-1,-5,4,0,-1,-3
1529258650637947,-10,-4,-6,-31,-29,-7,5,-3
1529258650646923,0,-4,-4,-42,-22,-8,-6,-5
1529258650646923,0,2,-1,15,2,5,3,4
1529258650661883,3,3,11,68,50,-11,-1,-2
1529258650661883,-1,1,-2,-25,-8,2,2,-6
1529258650663878,9,3,2,0,0,-6,4,7
1529258650663878,-16,-11,-13,-39,-10,-6,5,-5
1529258650684821,1,-1,0,-26,-10,4,-4,-4
1529258650684821,4,5,1,-7,-2,-9,-5,2
1529258650685819,-7,-7,-5,39,16,-4,2,-8
1529258650685819,1,1,2,-9,-8,-11,-5,2
1529258650697787,2,1,-3,-20,-9,13,-1,2
1529258650697787,1,-2,-4,-25,0,-3,3,5
1529258650706763,-3,-6,-10,-14,-25,11,-8,-12
1529258650706763,4,3,-1,4,6,-19,-4,5
1529258650721723,1,2,0,-17,-26,-4,-12,-1
1529258650721723,-1,-3,-4,-33,-10,-3,0,0
1529258650727706,1,2,8,29,26,1,3,6
1529258650727706,2,1,-2,3,-2,-3,2,-3
1529258650744662,0,0,3,25,20,7,3,8
1529258650744662,-1,-2,-6,-47,-35,-11,-1,-3
1529258650745659,-6,-6,-4,-10,8,-4,5,7
1529258650745659,0,0,4,0,0,-11,5,1
1529258650757627,6,5,2,-1,9,2,-8,0
1529258650757627,2,0,-2,-34,-7,6,-2,0
1529258650766603,-2,0,1,13,9,-3,3,1
1529258650766603,4,0,0,13,12,7,-4,3
1529258650781563,-3,-1,-2,-19,-21,-11,3,1
1529258650781563,0,-1,1,12,-6,-10,-11,-6
1529258650783558,2,2,-1,-11,-17,-11,0,1
1529258650783558,-1,0,1,43,31,14,9,1
1529258650804501,-2,-2,0,5,-3,5,-2,-5
1529258650804501,-1,-2,-1,28,18,4,2,0
1529258650805499,6,5,-1,-24,-5,0,3,9
1529258650805499,-2,-3,0,10,-1,-1,-9,-13
1529258650818464,-8,-6,-6,-11,-6,-1,2,1
1529258650818464,2,-1,0,16,20,5,0,1
1529258650833424,0,0,6,12,-3,9,-4,-2
1529258650833424,5,4,5,-22,-21,-17,-5,0
1529258650840406,1,1,-3,-7,0,-7,2,-4
1529258650840406,1,-1,0,-2,5,15,-5,0
1529258650849382,4,4,0,9,15,-13,-12,-4
1529258650849382,2,1,-3,-3,8,6,6,9
1529258650864341,-3,-1,3,4,0,-3,-1,-2
1529258650864341,-1,-1,3,21,6,4,-4,-2
1529258650866337,-11,-5,-5,-6,-5,7,2,-6
1529258650866337,3,1,2,6,2,5,0,6
1529258650878304,-3,-2,-5,-14,-14,0,0,-5
1529258650878304,6,0,-2,5,3,-9,0,2
1529258650887281,4,2,3,28,14,5,9,6
1529258650887281,-11,-7,-8,-28,-3,-5,9,-3
1529258650901243,4,3,5,4,7,2,-1,7
1529258650901243,-4,-3,-4,-19,1,2,0,-2
1529258650908224,-7,-6,-5,1,4,2,-3,-7
1529258650908224,0,-3,-3,7,-2,-2,-3,0
1529258650924182,4,2,4,6,-7,-3,2,6
1529258650924182,-1,1,2,6,0,-3,-1,-3
1529258650926177,-1,-3,-2,6,9,1,-3,-5
1529258650926177,3,3,16,85,58,18,-1,2
1529258650938144,-5,0,1,-7,-6,-5,0,-1
1529258650938144,3,2,2,0,-12,-5,-9,-4
1529258650947120,-6,-3,-9,-46,-35,-8,-5,-8
1529258650947120,-2,-3,-6,-27,-17,-3,-5,-5
1529258650961083,1,3,4,9,3,-3,-2,-4
1529258650961083,-2,1,2,15,16,9,0,3
1529258650968064,-1,-2,-1,1,-7,-5,-1,0
1529258650968064,-9,-9,-13,-60,-28,-6,-13,-12
1529258650984022,1,-1,2,20,11,5,1,3
1529258650984022,4,4,-2,-37,-54,-8,10,7
1529258650986016,7,7,11,68,59,16,0,4
1529258650986016,-5,-3,-6,-20,5,-3,-4,-7
1529258651006960,-3,-6,-5,1,1,-1,-2,-7
1529258651006960,1,-1,-1,-1,2,-2,-8,-4
1529258651008955,0,-4,-11,-49,-18,-5,0,3
1529258651008955,7,8,5,35,11,4,7,8
1529258651020923,-6,-5,-5,18,26,3,-3,-6
1529258651020923,-2,-5,-1,-14,-22,-8,0,3
1529258651027904,-2,-1,4,6,16,6,-2,-4
1529258651027904,2,-4,-8,-6,-4,-3,0,1
1529258651043862,1,-1,-1,-28,-35,-5,2,3
1529258651043862,-3,2,1,12,28,8,3,-1
1529258651045857,-2,0,6,37,-13,0,-2,-2
1529258651045857,1,1,-4,-17,-14,-3,-4,-1
1529258651066800,-1,0,-3,-9,-10,-5,-8,-8
1529258651066800,-2,-1,1,0,1,-5,5,1
1529258651068795,-3,-3,-2,-8,-12,-5,-2,-1
1529258651068795,-7,-4,-1,-3,1,-6,-8,-7
1529258651080763,1,-3,-8,-28,-14,-5,-1,-2
1529258651080763,2,2,0,-14,-12,0,0,1
1529258651087744,2,5,8,62,47,7,0,-6
1529258651087744,3,1,-1,-31,-28,-7,-5,-10
1529258651104699,2,-1,-5,-7,-29,-6,-2,6
1529258651104699,-2,0,1,50,25,6,0,-5
1529258651105697,2,-1,-2,-35,-29,-5,3,-1
1529258651105697,3,2,3,49,12,6,-3,0
1529258651126640,6,5,1,0,6,0,-4,-1
1529258651126640,-8,-2,2,-48,-20,-3,-4,-7
1529258651128635,-2,3,4,33,5,7,-1,-5
1529258651128635,2,-3,-8,1,-1,-1,0,5
1529258651141600,-13,0,11,16,16,1,4,-1
1529258651141600,7,7,-2,32,25,3,1,3
1529258651147584,-2,-4,-1,2,17,4,2,5
1529258651147584,2,2,-2,-18,-9,1,3,-1
1529258651164539,-2,-3,-5,1,7,2,-2,0
1529258651164539,6,0,2,11,2,-2,2,4
1529258651165537,-8,-2,-10,-54,-22,-8,-9,-8
1529258651165537,4,5,8,21,20,1,2,8
1529258651186481,4,-1,-4,12,4,1,2,7
1529258651186481,0,0,-4,-13,-9,-2,-6,-9
1529258651188475,2,9,-1,-69,-32,-6,7,5
1529258651188475,-9,-1,8,30,5,-6,3,-4
1529258651201440,-4,-6,-9,-35,-16,-3,1,1
1529258651201440,-3,-9,-3,29,32,-1,-5,-8
1529258651208422,7,-1,-12,-23,-19,-3,4,5
1529258651208422,5,10,14,37,18,9,-5,7
1529258651224379,0,0,2,9,4,0,0,-3
1529258651224379,-5,-12,-16,0,-11,-3,2,-1
1529258651226374,4,8,12,12,9,-1,3,9
1529258651226374,-1,-1,2,-20,-3,-7,-4,1
1529258651247317,-5,-9,-11,-7,2,1,-3,-6
1529258651247317,5,3,5,3,-5,3,-5,6
1529258651248316,-7,-9,-12,-23,-1,-1,-6,-2
1529258651248316,-1,-4,-14,-27,-26,-1,3,-1
1529258651260283,5,6,12,3,-2,6,0,-1
1529258651260283,-8,2,5,-1,-6,-8,0,-6
1529258651269259,5,1,7,40,27,1,4,5
1529258651269259,-2,-6,-15,-15,-7,14,-6,-7
1529258651284219,-1,0,3,10,-5,1,1,0
1529258651284219,-4,-2,-8,-14,2,-3,4,3
1529258651286214,3,2,9,15,1,3,0,-3
1529258651286214,-11,-8,-11,3,7,-8,-3,-7
1529258651307158,3,0,8,-5,-1,0,1,4
1529258651307158,-2,-4,-11,18,-1,4,-5,-6
1529258651308155,-2,-1,3,3,-12,-3,0,-3
1529258651308155,-1,-3,-3,-27,-6,-5,1,3
1529258651320123,-1,1,0,8,12,-6,4,1
1529258651320123,-2,-3,-2,-3,-10,-5,1,-1
1529258651329099,-6,-6,-11,-29,-11,-3,0,-3
1529258651329099,3,6,18,9,1,0,1,4
1529258651344059,-1,-2,-5,23,18,2,0,0
1529258651344059,1,2,1,1,5,3,-1,0
1529258651346054,-6,-7,-11,-22,-5,0,-7,-5
1529258651346054,-2,2,2,-1,-3,-3,0,-1
1529258651366998,-3,3,11,3,1,-6,-4,-3
1529258651366998,1,-3,-6,-9,1,4,-4,-2
1529258651368993,3,1,-3,-14,-8,-12,7,3
1529258651368993,-5,-2,0,7,14,1,3,-1
1529258651380961,-5,-2,-4,21,14,-4,0,-6
1529258651380961,1,-3,-1,-12,-8,-5,2,8
1529258651389937,8,5,4,21,-3,0,-4,-2
1529258651389937,-7,-6,-10,-51,-11,-2,-2,-2
1529258651404897,0,4,7,63,39,3,4,2
1529258651404897,-1,0,5,-1,-7,-9,3,2
1529258651405894,-5,-6,-9,4,7,-2,-8,-9
1529258651405894,4,-2,-9,-18,-15,-6,2,0
1529258651426838,-2,0,-5,-33,-15,1,-4,0
1529258651426838,1,1,5,5,-5,-4,-4,-5
1529258651428833,-1,0,4,-17,-12,3,0,5
1529258651428833,-3,0,-1,23,3,-1,10,-4
1529258651440800,5,2,-8,-34,-23,-5,2,-1
1529258651440800,-7,-5,-9,5,8,10,1,-2
1529258651449777,-1,-1,5,-7,-13,-13,0,2
1529258651449777,2,2,6,17,-4,3,-2,-8
1529258651464736,-3,-5,-16,-29,-9,-1,-1,1
1529258651464736,4,4,12,14,2,3,6,3
1529258651465734,-6,-5,-8,-37,-20,-4,-8,-5
1529258651465734,-2,-2,0,12,-2,-3,-4,1
1529258651486678,-1,1,3,-28,-18,-4,-3,-4
1529258651486678,-2,-2,2,4,-8,-1,-3,-4
1529258651488673,-5,-4,-3,1,28,8,2,-2
1529258651488673,6,-2,-7,-22,5,2,2,5
1529258651500641,-4,-3,-6,49,4,3,-1,-2
1529258651500641,-1,1,12,-8,-7,-3,0,3
1529258651509617,2,4,2,16,-1,3,-1,-1
1529258651509617,0,1,-3,-30,-13,-6,-1,1
1529258651524577,-2,-3,-4,-8,26,3,-1,-2
1529258651524577,1,1,4,52,39,12,3,2
1529258651525574,-7,-8,-10,-42,-34,-14,-6,-6
1529258651525574,1,-4,-4,20,0,-1,-2,-1
1529258651546518,-8,-3,3,-31,3,-2,-10,-11
1529258651546518,-1,-3,-4,0,4,-5,-4,-8
1529258651548513,1,1,1,-10,-3,14,9,3
1529258651548513,-4,-4,-4,-24,-16,-1,-1,-2
1529258651560480,0,-1,4,48,51,8,1,0
1529258651560480,-5,2,-8,-8,-2,-1,6,4
1529258651569457,1,-1,1,59,40,9,-4,-8
1529258651569457,-2,-2,-2,-29,-15,-6,-1,0
1529258651584416,1,1,3,-22,-36,-6,-3,1
1529258651584416,-2,-4,-9,12,-8,-3,0,-5
1529258651586412,5,2,-10,-21,-7,2,2,5
1529258651586412,2,6,28,63,69,7,3,4
1529258651607355,-2,0,-5,-17,-20,-11,-5,-15
1529258651607355,-4,-1,-1,-3,-2,11,-6,-2
1529258651608353,-4,-7,-9,14,5,4,8,1
1529258651608353,1,0,8,-11,-15,1,7,-2
1529258651620321,7,-4,-10,-27,-15,9,-3,-1
1529258651620321,4,2,2,-49,-49,-19,-1,2
1529258651629297,4,6,11,83,51,14,-1,2
1529258651629297,1,0,-2,18,1,10,-4,4
1529258651644257,0,-3,1,8,-13,-13,8,7
1529258651644257,-7,-6,-10,-77,-15,2,-7,-5
1529258651646251,-5,-7,-4,-31,-20,12,-7,-4
1529258651646251,-1,3,-3,53,2,-19,0,-3
1529258651667195,8,7,13,20,0,-3,2,13
1529258651667195,0,-1,-2,9,13,5,-2,-5
1529258651668193,3,1,0,-19,-3,0,0,3
1529258651668193,-11,-5,2,18,19,5,-2,-6
1529258651680161,-1,-9,-15,-20,-25,-2,-4,-4
1529258651680161,2,6,8,38,20,2,0,1
1529258651689137,2,1,-1,-5,-1,-12,-8,-1
1529258651689137,0,0,-7,-50,-32,-10,4,1
1529258651704097,4,1,-2,-32,-8,-9,-6,4
1529258651704097,-7,-4,2,61,11,17,9,0
1529258651706092,-1,2,3,-1,-14,-9,6,0
1529258651706092,1,-2,-4,-3,-9,2,-10,-4
1529258651727035,-5,-1,2,12,11,9,2,0
1529258651727035,5,-1,-6,-45,-21,-9,-4,1
1529258651729030,8,9,8,19,5,5,2,7
1529258651729030,-3,-5,-4,-13,0,0,-7,-4
1529258651740998,-3,-3,-8,-21,-14,-9,1,-5
1529258651740998,1,1,0,-22,-20,-34,-1,3
1529258651749974,-3,1,8,65,52,7,6,1
1529258651749974,-1,-2,-2,16,-6,-1,-8,-6
1529258651764934,0,-1,-3,-11,-9,12,-6,-3
1529258651764934,7,4,3,13,24,8,-10,-2
1529258651765931,-5,0,0,-29,-20,-9,-17,-11
1529258651765931,-3,-7,-13,-56,-41,-20,-6,-2
1529258651786875,-1,7,14,48,29,7,0,-2
1529258651786875,1,-1,-3,3,7,-4,-1,3
1529258651788870,-8,-9,-11,-6,-10,-9,2,-6
1529258651788870,-2,2,3,14,18,15,-1,0
1529258651800838,2,-4,-4,-10,-17,1,2,3
1529258651800838,-3,2,-2,-12,2,-1,2,-3
1529258651809814,-5,-1,3,43,9,2,2,-2
1529258651809814,3,3,2,-4,-1,-4,2,4
1529258651824774,2,-1,1,-11,11,6,-3,4
1529258651824774,-8,-6,-3,3,2,1,3,-7
1529258651825772,0,-5,-11,-54,-31,-4,1,0
1529258651825772,7,3,2,34,20,3,-6,1
1529258651846715,-4,2,5,15,5,-10,-3,-3
1529258651846715,5,0,-2,-30,-30,20,-1,0
1529258651848710,-9,-5,2,29,4,1,-1,-8
1529258651848710,-1,-2,-8,-43,-15,-3,-2,-1
1529258651860678,2,2,0,-2,4,-9,-1,-1
1529258651860678,-3,1,1,1,9,-3,-1,1
1529258651869655,4,1,0,-9,-13,0,1,4
1529258651869655,-5,-4,-5,-13,-14,-1,-2,-7
1529258651883617,-2,-2,-8,-4,-4,2,3,-2
1529258651883617,1,2,11,27,12,0,1,0
1529258651890598,-1,3,5,-2,10,-4,3,2
1529258651890598,1,-2,-5,-5,0,-3,7,6
1529258651906555,-2,0,-5,-53,-48,-14,-2,-1
1529258651906555,0,-2,2,17,18,-3,0,-4
1529258651908551,2,1,-2,-15,1,1,-2,0
1529258651908551,-2,0,9,30,14,7,6,2
1529258651920518,-4,-6,-9,-10,-10,-5,0,-4
1529258651920518,0,-3,-12,-87,-42,-27,-8,-1
1529258651929494,4,1,2,36,15,13,9,7
1529258651929494,4,2,2,-7,-5,2,1,1
1529258651943457,-7,-5,-4,41,28,7,-2,-9
1529258651943457,-2,-4,-1,-7,-20,-8,7,1
1529258651952433,-1,-2,-4,-38,-27,-20,-10,-3
1529258651952433,-3,-4,-4,-38,-14,-3,0,0
1529258651966396,-1,-1,2,20,2,3,1,0
1529258651966396,0,0,2,7,1,6,-1,-2
1529258651968391,-6,-10,-15,-84,-75,-16,-7,-8
1529258651968391,3,2,2,34,7,2,0,3
1529258651989334,-2,0,3,-5,1,-14,-8,-6
1529258651989334,-3,-4,-7,-24,-13,0,4,1
1529258651991329,-1,2,4,24,32,12,-2,-1
1529258651991329,-5,-3,-5,-1,5,2,1,-9
1529258652003297,6,-1,-2,-5,3,5,4,8
1529258652003297,-7,3,5,19,11,5,-2,4
1529258652010278,2,3,1,9,12,0,1,0
1529258652010278,-1,-3,-1,24,6,3,0,5
1529258652027233,-7,-2,-3,-3,-1,-4,-1,-4
1529258652027233,5,0,-6,0,-3,6,-2,3
1529258652028231,-5,0,2,14,0,0,0,-2
1529258652028231,-3,-1,3,22,11,6,0,-7
1529258652049174,-1,-2,-4,-43,-51,-10,1,6
1529258652049174,1,-2,-5,14,28,7,2,-1
1529258652051169,1,4,12,26,26,4,-1,-1
1529258652051169,3,0,2,14,12,-4,-1,3
1529258652064134,-5,-6,-3,5,5,3,0,-3
1529258652064134,-1,0,-4,7,-4,-9,0,-3
1529258652070118,2,0,-6,-2,-2,-1,3,-2
1529258652070118,-2,1,9,-17,-8,-10,0,-1
1529258652087073,2,1,-1,11,17,7,1,3
1529258652087073,-1,-2,1,30,7,-3,3,2
1529258652088071,-6,-4,-5,1,-12,-7,-1,-2
1529258652088071,0,-1,-4,-37,-20,-6,-2,-1
1529258652109014,6,6,4,39,30,5,4,7
1529258652109014,-8,-4,-2,-2,0,1,0,-3
1529258652111009,-3,-6,3,35,19,2,2,-4
1529258652111009,0,0,-3,13,-5,-1,-4,-3
1529258652123974,1,1,4,6,3,4,-8,-5
1529258652123974,4,4,4,50,27,8,4,7
1529258652130956,3,4,8,66,43,8,2,-2
1529258652130956,0,0,-3,-31,-14,-4,0,0
1529258652146913,-3,-1,5,14,48,10,-4,-5
1529258652146913,-4,-7,-6,-18,-13,-9,-5,-8
1529258652148908,2,2,-8,-39,-42,-8,-4,1
1529258652148908,-2,1,8,6,-7,3,-2,-7
1529258652169852,0,1,-1,13,-4,-1,4,1
1529258652169852,-4,-1,-1,-41,-17,-5,-6,-5
1529258652170850,0,-5,-8,-45,-17,-5,-3,1
1529258652170850,0,-3,-7,7,5,2,0,1
1529258652183814,3,2,-1,-19,-29,-10,3,2
1529258652183814,2,1,3,22,15,4,-4,-4
1529258652190795,-5,-3,-1,-5,-12,-8,-4,-4
1529258652190795,2,2,-3,1,7,1,-3,2
1529258652206753,0,0,2,-3,-15,-3,0,-1
1529258652206753,4,-7,-11,-1,1,1,2,3
1529258652208748,3,1,-6,-19,1,1,-2,5
1529258652208748,1,6,12,7,0,2,-2,-1
1529258652229692,-4,-2,0,35,31,6,0,-6
1529258652229692,-2,-2,-8,-18,-15,-3,1,6
1529258652230689,4,-2,3,11,10,0,1,0
1529258652230689,-14,-11,-14,-4,1,-3,-2,-9
1529258652242657,2,-1,-2,-28,-31,-6,-1,-2
1529258652242657,-2,-3,2,12,2,-1,-1,-3
1529258652251633,2,4,2,-10,-4,0,8,18
1529258652251633,7,2,-5,-9,3,-2,1,4
1529258652266593,-9,2,1,-27,-18,-4,-3,-3
1529258652266593,1,1,5,27,10,2,-1,-7
1529258652268588,0,3,0,-2,-3,-1,0,5
1529258652268588,4,-6,-1,-3,-5,-1,2,-1
1529258652289532,1,-3,-7,-10,-1,0,-2,4
1529258652289532,7,11,5,-43,-31,-3,3,7
1529258652291526,-5,-6,-6,22,8,3,5,1
1529258652291526,-4,3,7,24,12,3,-3,0
1529258652303495,0,-8,-4,-2,-8,-3,-7,-8
1529258652303495,-5,0,-4,-26,-9,-2,-2,-1
1529258652312471,3,0,-4,-13,-2,-1,-2,-3
1529258652312471,0,0,-4,-2,-7,1,6,7
1529258652326433,6,6,6,4,4,0,4,6
1529258652326433,-4,-2,4,11,17,1,-3,-7
1529258652328428,-8,-3,0,16,19,7,-4,-10
1529258652328428,1,-3,-5,-8,5,-1,-1,0
1529258652349372,-4,2,2,-27,1,-4,-5,-3
1529258652349372,1,1,1,20,4,2,-1,-1
1529258652351367,2,-3,0,-7,-7,-3,-5,-2
1529258652351367,-2,0,-5,-5,-4,-1,-1,-1
1529258652363334,-6,0,0,2,-3,4,6,0
1529258652363334,1,-2,-3,-14,-5,-1,-4,-1
1529258652372310,2,2,5,21,16,4,-2,-5
1529258652372310,0,1,2,-1,-6,-4,-3,-1
1529258652386273,0,-4,-7,-3,0,4,-5,0
1529258652386273,1,1,4,-7,-10,0,8,8
1529258652393257,2,-1,0,-13,-7,-4,-1,1
1529258652393257,-1,-1,-2,4,6,-2,-4,-5
1529258652409212,-6,-5,-10,8,2,-1,2,-1
1529258652409212,5,10,18,6,3,-1,-2,1
1529258652411206,-7,-8,-5,-25,-19,-7,-4,-4
1529258652411206,-6,-9,-9,-12,-7,-2,-2,-8
1529258652423174,1,-1,-4,3,3,-2,-4,0
1529258652423174,2,-1,-6,-6,-4,-3,-4,-1
1529258652432151,0,2,2,-4,-5,-3,3,-2
1529258652432151,-8,-3,0,-7,0,1,0,0
1529258652447110,-1,-1,-6,-2,-3,-1,-1,-1
1529258652447110,1,-1,-1,18,17,3,-1,-4
1529258652448108,-2,2,7,-2,-2,2,0,-1
1529258652448108,2,1,1,4,-1,-4,2,0
1529258652469052,-2,-3,-2,5,1,2,-3,-4
1529258652469052,2,-2,-10,0,-5,1,-4,0
1529258652471047,-1,-2,-5,-5,-4,-2,-1,0
1529258652471047,0,0,4,1,2,0,6,6
1529258652483014,4,5,4,-8,-18,-4,-2,-2
1529258652483014,1,4,9,8,2,-3,0,-1
1529258652491991,0,0,-1,0,-1,0,-2,-5
1529258652491991,-6,-4,-13,-9,-2,-1,-1,1
1529258652506951,4,-1,10,9,6,0,2,1
1529258652506951,0,-5,-14,-25,-20,-7,1,4
1529258652512934,-3,3,14,55,29,15,-1,0
1529258652512934,2,2,-3,-2,-5,-7,-13,-14
1529258652529889,0,-1,4,-23,-22,-9,2,2
1529258652529889,0,0,0,8,9,3,1,0
1529258652530887,-2,-7,-7,-21,-10,-11,-3,-5
1529258652530887,-7,-2,1,5,2,6,3,3
1529258652542854,2,2,4,17,17,4,2,4
1529258652542854,-6,-8,-18,-20,-9,1,-4,-5
1529258652551830,-1,-2,-1,-15,-17,-11,-6,0
1529258652551830,8,8,9,26,22,12,1,0
1529258652566790,-6,-3,-2,-13,-7,2,0,-1
1529258652566790,-2,-2,2,5,-3,-3,2,-4
1529258652568785,-1,-4,-8,5,15,4,-6,-2
1529258652568785,1,-4,-3,-2,-3,0,-1,0
1529258652589729,2,2,5,11,5,-2,1,2
1529258652589729,-5,2,4,6,4,0,-2,-1
1529258652590727,-1,-1,-6,-13,-4,0,2,0
1529258652590727,1,-2,3,-12,-8,-6,-2,-1
1529258652602695,-1,-3,-2,26,18,4,1,0
1529258652602695,-6,-4,-1,-6,-5,-4,-1,-5
1529258652611670,3,1,-1,-9,-6,-4,0,2
1529258652611670,0,-1,0,0,-1,-3,0,0
1529258652626631,-1,-1,-8,-36,-9,-1,2,0
1529258652626631,0,1,5,49,17,7,1,-1
1529258652628625,-3,1,3,8,-1,-1,2,-1
1529258652628625,2,0,-1,-23,-18,-6,-1,1
1529258652649569,-1,2,-1,29,22,5,-2,-2
1529258652649569,-3,-4,-2,-5,-3,-3,-2,-3
1529258652650567,5,2,6,15,16,6,8,8
1529258652650567,3,2,3,42,3,6,4,4
1529258652662534,-1,-2,-2,-4,-10,-4,-3,-2
1529258652662534,-2,-3,-2,-15,-1,-3,-3,-1
1529258652672508,0,0,-6,13,1,1,1,-2
1529258652672508,0,0,3,-45,-11,-5,1,2
1529258652686470,0,-1,-4,22,15,0,-4,-5
1529258652686470,-3,-5,-7,9,-4,-1,-1,-3
1529258652688466,-2,-2,0,-26,-22,-6,-2,-2
1529258652688466,0,0,4,13,9,-4,0,2
1529258652709409,0,-1,-7,-3,-23,-17,-2,-7
1529258652709409,0,4,10,16,29,7,-3,-1
1529258652711404,3,2,-1,-1,-2,-1,-2,2
1529258652711404,-5,-5,-6,-9,-1,0,-3,-3
1529258652723372,-8,-8,-4,7,1,-3,-2,-5
1529258652723372,-2,-1,-7,-20,-13,5,2,1
1529258652732348,4,2,-1,-7,-6,-5,-2,2
1529258652732348,0,-2,-2,-27,-15,3,2,-1
1529258652747308,-1,-2,1,12,10,-1,-3,0
1529258652747308,1,-2,-6,-43,-10,-3,-1,-1
1529258652748305,-2,-1,1,21,15,7,-4,-5
1529258652748305,-3,-3,-8,-10,-9,-8,-2,-6
1529258652769249,2,-3,-5,-53,7,-4,-4,4
1529258652769249,-1,4,9,71,38,12,10,1
1529258652771244,1,2,-1,-19,-23,-8,3,-1
1529258652771244,3,1,1,40,16,11,-2,2
1529258652783212,-3,2,3,-6,-9,11,-1,-1
1529258652783212,6,-3,2,22,-5,-12,-1,1
1529258652792188,-2,-4,-6,-16,-3,-2,-4,-3
1529258652792188,-8,-3,0,-9,-1,1,5,-3
1529258652807148,-1,-1,-1,4,-10,-2,0,-2
1529258652807148,2,3,1,5,-3,1,-2,0
1529258652808146,1,2,3,13,3,0,0,-1
1529258652808146,1,-1,2,-20,-10,-4,-2,0
1529258652829089,4,1,1,-6,-6,2,1,2
1529258652829089,-1,-3,-13,-47,-25,-10,-8,1
1529258652831085,-4,-3,3,24,15,-2,1,-2
1529258652831085,-2,0,5,14,2,0,-2,-1
1529258652843052,2,1,0,15,19,3,6,2
1529258652843052,0,-2,-4,-20,-13,-4,-3,2
1529258652852028,-3,-2,-7,-26,-15,-3,-6,-5
1529258652852028,-6,-4,-7,-17,-13,-6,1,-3
1529258652865991,1,0,-1,-18,-13,-2,1,-2
1529258652865991,1,-3,-3,-38,-3,1,4,0
1529258652872972,0,-3,-12,-49,-34,-8,-10,0
1529258652872972,7,4,12,67,24,-25,-2,0
1529258652889927,-6,-3,-5,-3,5,4,-5,-4
1529258652889927,3,5,2,-32,-27,-6,-2,0
1529258652890924,-19,-10,8,67,58,16,2,-9
1529258652890924,-4,-5,-13,-20,-20,-3,2,3
1529258652902892,0,0,-3,6,0,0,2,-1
1529258652902892,-3,-2,-1,-24,-19,-15,-2,-4
1529258652911868,2,-2,-4,-22,-19,2,1,0
1529258652911868,5,-2,-13,-7,-7,-3,-2,11
1529258652925831,-7,-2,13,66,30,16,-5,-1
1529258652925831,-3,2,-4,6,0,5,1,-2
1529258652932812,6,0,-3,-25,-14,-15,-11,-4
1529258652932812,-6,-12,-7,40,25,35,-2,-5
1529258652949767,3,1,-5,-63,-39,-29,3,0
1529258652949767,5,3,-2,-3,-5,9,5,4
1529258652950765,6,1,5,35,41,15,4,5
1529258652950765,-5,-1,-5,-43,-25,-6,-4,-6
1529258652971708,0,1,0,-18,-14,0,-8,-2
1529258652971708,-2,-2,6,39,24,2,3,-2
1529258652973703,3,1,-5,-16,-28,-13,1,6
1529258652973703,0,2,1,-13,1,-5,-4,-8
1529258652986668,0,-2,11,67,69,22,5,3
1529258652986668,-11,-4,-3,11,6,-4,-2,-6
1529258652992652,0,3,-3,-51,-33,-7,-2,-1
1529258652992652,5,2,5,74,48,11,1,2
1529258653009606,1,4,1,-4,-4,16,2,0
1529258653009606,-3,0,5,-5,-12,-8,-4,-2
1529258653010605,-4,-3,-4,-12,7,2,-3,-7
1529258653010605,-9,-10,-4,-29,-8,0,-6,-11
1529258653031548,6,-2,-3,3,-13,-8,-1,0
1529258653031548,2,-1,-2,-1,-4,2,2,4
1529258653033543,4,2,-5,-24,-28,-9,1,-1
1529258653033543,-4,1,8,9,16,0,-4,-5
1529258653046508,1,2,-3,14,3,-1,2,5
1529258653046508,1,0,0,5,-4,-4,-3,0
1529258653053489,1,4,8,22,-2,5,4,0
1529258653053489,-1,-5,-10,-40,-21,-3,-2,2
1529258653069447,-8,-4,0,-8,-7,7,0,-5
1529258653069447,1,-3,-4,9,14,4,1,5
1529258653071442,3,2,2,18,4,3,-4,-2
1529258653071442,-6,-1,2,8,3,6,5,-5
1529258653091388,1,-1,-3,-24,-15,-4,1,0
1529258653091388,-1,1,-2,-15,-4,0,-4,-8
1529258653093383,-6,-5,-3,5,23,0,-4,-2
1529258653093383,11,12,6,9,6,25,2,10
1529258653106348,3,3,-1,-25,-33,-9,2,1
1529258653106348,-4,-3,5,27,27,1,-4,-4
1529258653113329,-12,-8,-7,-3,3,4,1,-2
1529258653113329,-6,-5,-4,-19,-9,-5,0,-6
1529258653129287,-1,-4,-6,1,-3,-6,4,3
1529258653129287,2,2,-1,-34,-16,-1,-4,-1
1529258653131282,13,10,5,12,22,2,-10,-1
1529258653131282,1,1,6,8,2,-12,-2,2
1529258653152225,-7,-2,3,28,39,10,-5,-9
1529258653152225,-3,-3,-4,-8,-9,-13,1,-5
1529258653153223,-4,-2,-3,-10,-6,-1,4,-1
1529258653153223,7,2,0,-24,-23,-11,0,4
1529258653166188,-3,2,3,25,10,0,-4,-2
1529258653166188,5,0,-2,0,2,4,-3,1
1529258653173169,-6,-4,2,4,-1,1,-1,-6
1529258653173169,4,3,-3,-16,-14,-14,4,3
1529258653189127,1,-1,-1,-22,-18,-7,1,3
1529258653189127,-12,-6,-5,1,1,-1,-2,-6
1529258653191122,5,-1,-4,-8,-8,-7,0,1
1529258653191122,1,1,4,10,4,1,0,6
1529258653212065,-3,-5,-6,-12,-9,-7,-3,-4
1529258653212065,5,6,3,13,5,8,-3,-2
1529258653213063,-5,-2,0,-1,-1,-9,0,1
1529258653213063,6,-1,-4,2,4,4,5,4
1529258653226028,-4,1,-2,-6,-5,-6,-1,-4
1529258653226028,-3,-2,-2,-3,-4,-2,-4,-1
1529258653235004,3,1,2,31,12,5,4,6
1529258653235004,-10,-4,1,28,11,2,-6,-11
1529258653248967,6,1,-7,-42,-30,-9,-2,3
1529258653248967,-5,-7,0,3,6,-7,1,2
1529258653250962,-3,-2,0,1,-7,-3,0,-3
1529258653250962,7,1,-3,-29,-25,-7,2,6
1529258653271906,-5,-1,2,20,20,0,-5,-8
1529258653271906,-12,-6,-5,-1,-5,1,2,-9
1529258653273900,2,-2,-1,-4,-3,-1,4,8
1529258653273900,-3,0,-3,-21,-11,-3,-4,-6
1529258653285868,1,-2,0,-6,-7,-3,-1,4
1529258653285868,1,1,0,-1,1,-7,1,3
1529258653294845,-5,-3,1,3,2,5,-5,-3
1529258653294845,0,-3,-3,-7,-4,0,-5,-1
1529258653309804,6,1,-7,-24,-17,-4,4,4
1529258653309804,-1,9,16,37,32,7,-1,-2
1529258653310802,6,5,-1,-17,-12,1,-1,2
1529258653310802,-7,-1,-2,-6,-6,-5,-2,-2
1529258653331746,-7,-10,-3,26,18,3,-1,-6
1529258653331746,8,0,-6,-35,-27,-5,-1,4
1529258653333741,-2,-1,-2,-1,2,5,4,0
1529258653333741,1,0,-1,10,6,1,0,0
1529258653345708,1,0,3,6,3,3,3,1
1529258653345708,5,1,-3,1,-5,0,-5,2
1529258653354685,-8,-6,-2,4,-4,-6,0,-8
1529258653354685,6,5,0,6,7,0,3,1
1529258653369644,4,0,0,-4,-5,-2,-11,-4
1529258653369644,-3,-6,-7,0,-3,-3,-1,-1
1529258653370642,-5,-4,1,7,9,5,3,1
1529258653370642,8,2,0,4,7,-2,-7,0
1529258653391586,-4,2,2,3,-7,-2,0,-1
1529258653391586,0,-2,-1,5,-7,0,-2,0
1529258653393580,-1,-3,-2,32,25,8,-2,-3
1529258653393580,-8,-3,0,23,6,-3,-3,-6
1529258653405549,-1,4,3,-2,0,-3,-2,-1
1529258653405549,4,0,-3,-7,-7,-1,5,5
1529258653414525,5,2,1,-3,-1,1,3,7
1529258653414525,-11,-8,-4,-16,-11,-3,-4,-10
1529258653429484,1,-2,-6,-10,-5,0,1,-4
1529258653429484,-4,-8,-4,13,14,5,3,1
1529258653431479,10,2,0,-13,-15,-4,-3,-1
1529258653431479,-2,16,13,4,4,2,-4,-2
1529258653451425,3,6,10,2,1,-3,0,4
1529258653451425,-2,-3,-6,-10,-3,-2,-7,-12
1529258653453421,3,-4,-5,0,1,0,0,2
1529258653453421,-2,-12,-6,-5,4,7,0,6
1529258653465389,-7,-5,-1,10,-2,-1,-2,-3
1529258653465389,0,1,-2,-13,-9,-3,1,0
1529258653474364,-1,2,0,-10,-10,-7,-4,-1
1529258653474364,-4,0,-1,-5,-3,6,0,-4
1529258653489324,6,3,-3,-1,0,0,4,5
1529258653489324,-6,-4,2,-5,0,-1,-2,-2
1529258653491319,-7,-3,-1,-3,-7,-4,-3,-3
1529258653491319,2,-3,-8,-5,-6,-3,4,0
1529258653512263,-6,-5,3,5,13,2,-2,0
1529258653512263,-1,2,-1,3,-2,-2,0,3
1529258653513260,-2,0,-1,-7,-1,1,-1,-5
1529258653513260,4,0,6,7,3,-1,2,3
1529258653525228,3,-2,-11,-6,-2,-2,-2,0
1529258653525228,7,8,8,0,7,-1,-1,3
1529258653534204,-2,5,5,5,-1,2,0,2
1529258653534204,1,-5,-8,9,10,-3,-5,0
1529258653549164,2,-3,-4,-34,-22,-3,0,1
1529258653549164,0,0,5,31,11,1,2,4
1529258653551159,-5,-1,3,-1,-2,-2,-4,-9
1529258653551159,2,-2,0,-5,-3,-1,0,-4
1529258653572103,-5,-6,-8,-6,-5,-1,0,-2
1529258653572103,-5,-4,-8,-13,-1,-3,-4,-3
1529258653573101,-3,-7,-9,-4,0,-3,-3,0
1529258653573101,2,7,9,13,9,1,6,9
1529258653585068,-2,2,8,6,1,0,-4,-8
1529258653585068,4,0,-6,-17,-9,8,2,0
1529258653595042,-5,-4,-6,5,0,-3,-1,-1
1529258653595042,-3,1,-1,-10,-1,-2,0,2
1529258653609004,4,1,3,4,0,-2,-1,1
1529258653609004,-2,-2,-4,-15,-4,-3,-1,-1
1529258653610999,1,0,-7,18,13,3,-2,0
1529258653610999,-5,-4,8,-3,-2,2,2,-2
1529258653631943,-14,-6,-4,1,-1,-4,0,-7
1529258653631943,3,1,-1,-2,-3,-4,-6,-5
1529258653633938,3,5,3,-12,-9,-2,1,5
1529258653633938,3,0,-2,7,1,-10,-2,-8
1529258653645906,4,4,3,7,5,-12,2,1
1529258653645906,-5,-3,2,4,-3,5,6,6
1529258653654882,-2,-3,-3,-9,-6,2,0,-6
1529258653654882,-1,-4,-8,-13,-2,-3,-3,-3
1529258653668844,-1,-2,2,-1,-5,-1,-1,2
1529258653668844,3,3,0,6,-3,-5,-5,1
1529258653675826,4,6,7,1,7,-3,5,6
1529258653675826,-3,-3,-7,-13,-4,-1,-13,-6
1529258653691783,-1,-2,-2,2,-2,0,-3,-2
1529258653691783,-7,-6,-4,-3,-2,-1,-2,-4
1529258653693778,2,0,1,-17,-19,-2,2,1
1529258653693778,3,6,14,35,8,7,5,5
1529258653705746,6,2,-4,-1,0,-6,3,3
1529258653705746,-10,-4,-4,-8,-5,-5,-3,-6
1529258653714722,-10,-11,-7,0,-5,-4,-3,-7
1529258653714722,14,5,5,8,1,10,0,7
1529258653729682,-9,-2,-2,8,3,19,0,-3
1529258653729682,0,1,7,6,1,2,-1,-2
1529258653730680,-3,-3,-2,-6,1,-3,-6,-3
1529258653730680,-9,-8,-10,-15,-7,-3,-1,-2
1529258653751623,-1,-3,-11,-3,4,-2,-8,-5
1529258653751623,1,3,15,18,9,-7,-2,-1
1529258653753618,4,2,0,1,3,10,-4,3
1529258653753618,-5,-3,0,0,0,-4,-1,-2
1529258653765586,-2,-3,-8,-7,-6,-3,3,2
1529258653765586,6,5,-2,-15,-2,-1,3,3
1529258653774562,-1,-2,3,23,4,-8,-3,-5
1529258653774562,-2,-2,2,1,-2,-2,-2,1
1529258653788524,-5,-6,-3,-5,3,1,-2,1
1529258653788524,-4,-6,-12,-16,-13,2,0,-1
1529258653795506,5,4,5,6,6,-14,0,0
1529258653795506,-1,1,-1,-16,-4,21,7,-3
1529258653811463,-1,3,1,3,-2,-2,8,4
1529258653811463,1,-2,5,11,0,-4,-7,-4
1529258653813459,-3,-5,-8,-29,-14,-3,2,1
1529258653813459,-3,-3,-3,50,32,-2,-3,-5
1529258653825426,3,0,-3,5,0,3,6,-2
1529258653825426,5,6,7,-3,-2,3,5,5
1529258653834403,0,-2,-1,1,0,8,1,1
1529258653834403,-7,-6,-2,-18,-11,-8,-3,-7
1529258653848365,3,-1,-1,6,6,2,-5,2
1529258653848365,-6,-7,-7,11,4,-7,-2,-2
1529258653855346,2,0,-2,11,5,5,5,4
1529258653855346,-2,1,-1,-22,-13,-3,-3,-4
1529258653872301,-8,-2,-1,-5,9,-9,4,-1
1529258653872301,-1,2,4,34,-2,-9,6,0
1529258653873298,-1,-2,-2,-22,-12,-2,-6,-2
1529258653873298,-2,-5,-9,-7,1,-3,2,2
1529258653894242,7,4,11,46,20,1,-3,-1
1529258653894242,7,4,2,-8,5,-2,-2,0
1529258653896237,-6,-3,-1,2,2,6,2,-2
1529258653896237,2,-2,-7,-13,-10,-2,-2,2
1529258653909202,2,-1,-1,-18,-10,1,-5,0
1529258653909202,-6,-7,-6,4,11,6,-2,-6
1529258653915186,9,7,7,39,22,0,-3,2
1529258653915186,2,3,1,-34,-15,-4,1,2
1529258653932141,-2,3,4,-4,-3,1,-3,1
1529258653932141,3,-1,-1,0,-1,7,0,-3
1529258653933138,-2,-4,-10,-59,-41,-18,-1,1
1529258653933138,-6,0,2,5,-2,-1,4,-1
1529258653954082,-2,-3,-4,-18,-6,-6,-3,-3
1529258653954082,1,0,-5,-2,0,-4,1,4
1529258653956077,-6,-3,2,-6,4,-5,-8,-10
1529258653956077,3,2,0,8,-12,-14,0,3
1529258653969042,4,2,-1,20,7,4,-2,5
1529258653969042,-2,-3,-6,-18,-9,-4,-9,-8
1529258653975026,1,0,0,9,0,0,5,2
1529258653975026,-1,-3,-7,-23,9,3,-4,-2
1529258653991980,-6,-2,5,55,14,-18,7,-1
1529258653991980,3,0,-3,-12,-10,23,8,9
1529258653993975,-2,5,7,-9,-1,3,-1,-1
1529258653993975,-3,-8,-14,-71,-25,-15,-3,-4
1529258654014920,2,0,-1,-39,-23,-3,-4,-6
1529258654014920,-4,0,-4,-22,-21,-11,-1,-2
1529258654015917,-1,-4,-4,-3,-36,-12,0,0
1529258654015917,8,13,8,9,6,3,-8,1
1529258654028882,-8,-6,-5,-26,-15,-4,-6,-2
1529258654028882,-2,-3,-4,-2,-3,-4,3,3
1529258654035863,-1,0,-7,-41,-21,-1,-11,-5
1529258654035863,3,1,5,36,2,-22,7,7
1529258654051821,0,-7,-7,-39,-22,-9,-5,0
1529258654051821,0,-1,2,21,16,3,3,4
1529258654053816,-8,-5,-3,-3,14,-2,5,-9
1529258654053816,-2,-3,-3,-26,-1,2,1,8
1529258654074759,5,6,-3,6,15,2,-5,2
1529258654074759,-3,-3,-1,-9,-3,-2,-4,-4
1529258654075757,0,-3,-2,21,17,14,4,3
1529258654075757,-6,-5,-12,1,1,4,-9,-7
1529258654088722,-5,2,8,-22,-11,0,1,-5
1529258654088722,-2,1,-4,4,3,0,-4,-4
1529258654095703,-3,-4,5,52,29,16,-3,-6
1529258654095703,2,7,7,11,-4,-6,6,-5
1529258654111660,1,-6,-5,-9,-5,1,1,5
1529258654111660,0,0,6,31,13,-3,-7,-6
1529258654113656,4,8,8,5,17,9,7,8
1529258654113656,-4,-3,-3,12,-3,7,-5,-3
1529258654134599,4,3,1,10,5,9,1,-1
1529258654134599,-12,-9,-4,-16,5,2,-4,-1
1529258654135597,-3,-5,-6,-5,3,-2,-5,-5
1529258654135597,1,-2,0,-4,2,-3,-1,2
1529258654147565,-1,0,-4,16,36,47,-2,-3
1529258654147565,8,5,0,-11,-21,-12,0,3
1529258654157538,-6,-3,2,-8,-2,-6,6,1
1529258654157538,-3,-4,-2,14,2,9,-10,-9
1529258654171501,-3,-7,-8,-48,-19,-15,-5,-7
1529258654171501,-2,0,1,-5,1,-6,1,-2
1529258654173496,16,8,4,9,-9,-1,2,13
1529258654173496,-3,1,-4,-16,-1,-6,1,-3
1529258654194439,-3,-1,1,17,2,-5,-2,-6
1529258654194439,-3,-4,0,20,8,-1,-2,1
1529258654196434,-3,-3,0,-16,-12,-12,-4,-3
1529258654196434,-1,-1,-1,-4,0,5,2,-2
1529258654208402,3,4,2,23,2,-6,1,4
1529258654208402,0,0,-1,-4,-6,0,4,4
1529258654217379,3,2,0,4,-1,10,-4,-2
1529258654217379,-3,-3,0,27,7,2,-1,-1
1529258654232338,-6,0,2,1,3,-1,-1,-3
1529258654232338,7,4,-3,-10,1,4,-1,0
1529258654233336,-9,-10,-7,-6,-2,-13,-4,-2
1529258654233336,1,-1,-2,8,17,20,-1,0
1529258654254279,1,2,1,3,-16,-7,-3,2
1529258654254279,3,1,-1,4,1,15,1,3
1529258654256274,2,3,3,15,11,-6,-1,-1
1529258654256274,-1,-2,2,-11,-18,-5,5,1
1529258654268242,0,0,0,5,11,-2,4,5
1529258654268242,-7,-5,-2,1,-4,-2,-2,-13
1529258654277218,-1,-4,-6,-1,-3,3,-2,-3
1529258654277218,1,4,14,14,2,-3,0,4
1529258654292178,-3,-3,-10,-16,-13,-6,-1,-2
1529258654292178,-4,-2,4,-6,-4,-9,-1,3
1529258654293176,-3,-1,-5,-3,-6,3,-4,-5
1529258654293176,-1,2,2,11,-1,-5,3,1
1529258654314119,6,4,5,9,11,-1,-2,0
1529258654314119,-12,-12,-9,-16,-7,-3,-5,-5
1529258654316115,3,3,6,11,8,3,-5,5
1529258654316115,0,-4,-5,2,3,4,3,0
1529258654328082,0,4,5,3,0,2,0,-3
1529258654328082,-1,-3,-7,-6,-5,-5,-5,-3
1529258654337058,5,1,4,-5,-4,-5,1,1
1529258654337058,-4,1,-3,-8,7,-5,-4,-1
1529258654352018,0,-5,-2,7,-3,-3,-3,-5
1529258654352018,3,0,-1,-3,1,-6,0,-1
1529258654354013,-4,-2,1,-1,-5,9,-1,-1
1529258654354013,4,2,0,13,6,-1,-2,2
1529258654373959,1,0,-2,-3,6,1,5,0
1529258654373959,-6,-3,-2,11,-1,11,1,-3
1529258654375954,-9,-4,-8,0,-12,-20,-1,-6
1529258654375954,1,1,4,7,3,-3,1,-4
1529258654387922,0,1,0,-10,0,-4,-1,2
1529258654387922,8,5,6,12,11,14,-3,4
1529258654396899,2,3,3,-1,2,2,0,1
1529258654396899,-5,-6,-12,-2,-3,10,5,-3
1529258654411858,0,1,4,-2,-3,-3,-5,-3
1529258654411858,2,1,-2,-16,-17,-6,0,-2
1529258654413853,0,-1,0,4,4,2,0,0
1529258654413853,-2,1,-2,-7,-5,-4,-7,-4
1529258654434797,-5,-5,-5,3,-3,-1,-2,-8
1529258654434797,1,2,0,-12,-9,-2,1,0
1529258654435796,3,0,5,3,7,6,3,2
1529258654435796,-1,-1,-3,-1,-3,-5,3,1
1529258654447762,-6,-5,-3,0,-2,0,2,4
1529258654447762,3,0,3,3,5,-1,-1,2
1529258654456738,-2,-3,-5,-3,2,6,-3,-3
1529258654456738,4,1,2,2,4,-1,-2,2
1529258654471698,1,2,-1,0,-3,1,0,-1
1529258654471698,-2,-2,-3,1,1,-5,2,2
1529258654473693,-2,0,-1,3,1,-2,-2,-2
1529258654473693,-1,-3,1,1,-2,4,2,-1
1529258654494637,5,4,0,-25,-6,-6,-2,3
1529258654494637,-1,1,2,1,6,-4,-7,-4
1529258654495635,3,3,-2,8,-5,-4,-1,-2
1529258654495635,-4,-1,1,-17,-31,-3,-7,-5
1529258654507602,-4,-3,-1,15,11,0,-1,-1
1529258654507602,5,5,-3,-2,-6,-1,6,2
1529258654516578,2,0,1,-8,2,-3,-9,-6
1529258654516578,-5,-3,-2,-12,-6,8,0,-3
1529258654531539,1,2,3,10,-2,-3,-3,-1
1529258654531539,-9,-9,-6,7,0,-4,1,3
1529258654533533,-5,-3,-4,-3,-2,2,5,-3
1529258654533533,5,2,-2,5,9,-2,0,2
1529258654554477,2,0,1,-5,-4,3,3,5
1529258654554477,5,4,2,20,16,4,4,-1
1529258654556472,-5,-3,2,-11,-8,-6,-2,-5
1529258654556472,-2,-3,-2,5,0,0,-5,0
1529258654568439,-1,-2,-7,-10,-10,0,-2,-9
1529258654568439,1,-2,-5,-4,0,0,-5,2
1529258654577416,1,2,11,4,1,3,3,2
1529258654577416,2,3,3,-7,2,-10,-9,-1
1529258654592375,-12,-8,-8,-3,-1,5,-1,-5
1529258654592375,4,5,4,3,3,-3,0,0
1529258654593374,1,0,-3,-1,3,-4,-6,-9
1529258654593374,5,1,0,4,7,9,2,2
1529258654614317,0,-3,-2,-4,-9,11,3,1
1529258654614317,-6,-3,-1,12,13,2,-1,-3
1529258654616312,-6,-2,-3,-3,-3,4,1,-2
1529258654616312,11,2,-1,4,2,-5,-7,3
1529258654628280,10,8,2,2,3,-1,1,8
1529258654628280,1,2,7,-14,4,5,-1,-5
1529258654637256,-5,-2,-1,31,12,3,-5,2
1529258654637256,-8,-8,-6,2,-4,-7,12,1
1529258654652216,-3,-2,1,7,6,-5,-3,-4
1529258654652216,-3,-3,-9,-21,-12,-3,-3,2
1529258654653213,-6,-2,-4,-17,-1,-11,-5,-1
1529258654653213,-2,-1,-3,5,4,-2,4,1
1529258654674157,1,3,2,0,-4,-2,1,2
1529258654674157,-8,-3,7,3,-5,-5,-12,-15
1529258654676152,2,-3,-8,-18,-15,-2,2,5
1529258654676152,-4,-2,1,8,7,2,0,-5
1529258654688119,2,-1,-9,-18,-5,-3,2,3
1529258654688119,-1,1,4,4,-1,-3,0,-2
1529258654697096,-2,-5,-5,-2,-4,-14,-6,-7
1529258654697096,0,-1,0,-6,-4,2,2,-2
1529258654712055,-3,-5,-5,1,1,-4,0,-3
1529258654712055,2,4,4,-1,-3,3,5,4
1529258654714051,1,1,0,-7,-12,4,4,5
1529258654714051,-4,-1,0,11,28,11,0,-1
1529258654733997,-10,-5,2,7,2,-4,0,-5
1529258654733997,2,0,-11,-13,-4,0,2,5
1529258654735992,-1,-4,-2,3,0,1,6,0
1529258654735992,4,7,6,0,-6,-4,-6,0
1529258654747960,-9,-5,2,4,-2,-3,-3,-3
1529258654747960,-3,-4,-2,6,4,1,0,0
1529258654756936,1,-3,-8,-7,3,0,0,1
1529258654756936,-2,-2,2,-3,-9,-5,2,2
1529258654770898,2,0,-2,1,1,-1,-3,-1
1529258654770898,-3,-2,-6,-5,-7,-8,-3,-5
1529258654777880,3,6,-1,-5,4,-2,-4,-2
1529258654777880,-4,-1,5,8,-2,-5,-2,-6
1529258654794834,4,5,10,2,-2,3,4,5
1529258654794834,-2,-6,-1,0,-1,-1,-1,-4
1529258654795832,2,-2,-4,0,-2,3,2,0
1529258654795832,-5,-2,-9,-10,5,13,-2,2
1529258654807800,1,7,13,7,2,-1,-2,2
1529258654807800,-3,0,3,0,-3,-4,-6,-5
1529258654816776,-3,-8,-6,-3,4,10,7,2
1529258654816776,-2,-6,-11,-15,-10,-11,-3,-4
1529258654831736,4,-1,5,7,1,1,-1,-2
1529258654831736,3,1,-3,1,3,3,7,3
1529258654838717,-1,4,4,2,2,-3,-7,-4
1529258654838717,-3,-2,3,-2,-6,5,-2,-2
1529258654854675,-4,1,-8,6,13,3,-2,-1
1529258654854675,3,-1,-1,-3,-1,6,2,4
1529258654855672,-16,-12,-12,-18,-9,-12,-7,-4
1529258654855672,3,4,8,14,3,-5,6,1
1529258654876615,0,-3,-3,-9,-10,-5,-5,-3
1529258654876615,-4,-3,-4,-3,1,9,-12,-4
1529258654878611,7,5,-1,-2,-14,-19,22,10
1529258654878611,2,2,9,8,-1,-4,3,4
1529258654891576,-4,-1,-2,-4,-1,4,1,-5
1529258654891576,5,2,1,5,0,-11,0,3
1529258654897560,-2,-4,-2,-4,1,4,-8,-5
1529258654897560,3,3,-8,-1,5,2,2,4
1529258654914514,8,3,6,9,-1,-8,4,5
1529258654914514,-10,-8,-9,-14,-1,5,3,-4
1529258654916510,2,5,6,7,-3,7,0,0
1529258654916510,-3,-4,-2,-5,-1,-2,6,1
1529258654936456,0,-7,-12,-3,-1,-8,-8,1
1529258654936456,6,7,14,-20,-11,-6,-2,1
1529258654938451,-2,-1,1,-7,-12,-5,1,2
1529258654938451,-3,-2,-8,-11,-3,-1,-5,-2
1529258654950419,-3,-2,-2,0,-12,-12,-10,-5
1529258654950419,-2,-4,-12,-29,-23,-20,-4,-5
1529258654959395,3,6,12,13,11,4,4,1
1529258654959395,3,2,2,2,-8,-8,-5,-2
1529258654974355,-9,-9,-12,-25,-12,16,-4,-6
1529258654974355,5,3,7,47,19,-8,0,1
1529258654976349,2,6,3,1,6,3,-1,1
1529258654976349,-3,-3,-3,-6,-4,-6,-4,0
1529258654997293,-2,-5,-14,-29,-16,-3,0,-3
1529258654997293,-7,-5,10,11,10,16,1,-3
1529258654998291,0,0,-9,1,14,24,1,0
1529258654998291,2,4,13,27,9,-13,-4,2
1529258655011256,0,0,-1,-2,3,-9,3,0
1529258655011256,-2,-4,-9,-16,-9,-1,6,2
1529258655018237,-2,-4,-2,11,21,0,-7,-3
1529258655018237,-2,-3,-7,-6,-19,-5,0,4
1529258655034194,0,1,4,4,-9,-9,6,-1
1529258655034194,-1,1,0,16,9,17,-4,-3
1529258655036190,2,4,6,-8,-17,-18,0,0
1529258655036190,0,-5,-8,-19,6,11,-8,-2
1529258655057133,-2,3,8,18,7,-8,-4,2
1529258655057133,2,1,-5,-22,-25,-14,-1,-5
1529258655058131,-9,-8,-10,15,-12,4,8,5
1529258655058131,-1,1,-1,-9,0,4,-1,-5
1529258655071096,-1,-1,0,-1,1,2,1,2
1529258655071096,0,-4,1,5,22,9,-5,-3
1529258655078077,4,2,-2,-15,-16,-27,1,4
1529258655078077,-3,-2,1,-3,-7,-3,2,-5
1529258655094034,-3,1,1,18,17,24,5,-1
1529258655094034,2,0,1,17,18,-8,-2,3
1529258655096029,-4,-4,-6,-11,-12,7,-8,-8
1529258655096029,-13,-9,-9,-36,-20,-3,-10,-13
1529258655116973,-3,-4,-4,27,13,6,-2,-4
1529258655116973,5,4,7,3,-10,3,1,4
1529258655118968,3,-2,-2,3,14,12,-3,-1
1529258655118968,8,5,0,-4,-4,-1,4,7
1529258655130936,-1,4,5,-25,5,16,-3,-3
1529258655130936,-2,-6,-4,0,-5,-14,1,-2
1529258655139912,4,2,3,2,6,-5,-9,-1
1529258655139912,2,3,6,25,40,2,3,1
1529258655154872,-5,1,-1,22,28,22,14,8
1529258655154872,-8,1,-3,-8,7,9,-4,-1
1529258655155870,5,1,6,1,8,9,2,4
1529258655155870,2,3,-2,14,0,-11,6,-1
1529258655176813,4,-1,-2,-23,-27,-19,-16,-4
1529258655176813,-1,-4,-4,-2,-2,2,2,-1
1529258655178808,-6,-6,-6,-13,-2,-4,-3,-4
1529258655178808,4,4,1,-22,-14,-2,3,-1
1529258655190776,2,5,10,48,16,0,4,2
1529258655190776,-4,-2,-7,-13,-26,-11,3,0
1529258655199752,-1,0,3,-9,-14,-5,-9,-4
1529258655199752,-2,-3,2,31,14,21,-2,-3
1529258655214712,-4,-2,-6,-21,-19,-5,-13,-7
1529258655214712,1,0,-1,-11,-19,-6,-4,-4
1529258655215710,-2,0,3,41,6,3,11,6
1529258655215710,-4,-3,-5,-9,-6,-1,-2,-2
1529258655236653,5,0,-4,-22,-9,-12,-7,-2
1529258655236653,-1,3,5,23,8,7,0,-1
1529258655238648,-1,-5,-14,-42,-15,-6,0,0
1529258655238648,-2,-1,11,34,8,0,0,0
1529258655250616,8,7,2,4,0,-8,-8,-6
1529258655250616,-4,-2,4,6,-1,-4,1,-3
1529258655259592,1,-1,-5,-32,-27,-4,0,-3
1529258655259592,3,4,4,41,9,12,5,2
1529258655274552,-4,-6,-7,-15,-18,-31,1,4
1529258655274552,-2,0,-2,-2,-1,-7,-5,-1
1529258655276547,-1,-1,-1,-24,-12,-8,-1,-3
1529258655276547,-3,-3,-6,-7,-13,-24,-5,-2
1529258655296493,-6,-2,4,-15,-11,4,6,-3
1529258655296493,2,2,2,26,17,5,-3,1
1529258655298489,-3,-2,3,26,30,-15,-11,-5
1529258655298489,2,-1,-5,-13,-6,4,-1,3
1529258655310456,-2,-1,0,3,10,1,0,-4
1529258655310456,5,2,4,-12,-7,-8,-2,5
1529258655319432,0,2,0,13,14,27,-3,1
1529258655319432,0,0,-2,-19,-5,-5,1,0
1529258655334392,-6,-7,-4,-15,-15,-17,4,1
1529258655334392,-5,-5,-11,7,4,2,-5,-4
1529258655336387,3,6,18,22,16,5,4,4
1529258655336387,-2,-2,-8,-12,-1,4,1,2
1529258655357330,1,2,-2,-11,-3,11,6,0
1529258655357330,-11,-8,-14,-20,-3,-3,-1,-5
1529258655358328,4,2,8,44,6,9,2,3
1529258655358328,2,-1,-4,1,-9,-20,-7,-1
1529258655370296,0,-1,4,3,12,2,1,3
1529258655370296,-1,1,1,-5,8,15,1,-3
1529258655379272,-4,-3,-10,-12,-3,-1,-5,-8
1529258655379272,-1,-2,1,-5,-2,13,-1,0
1529258655394232,-1,-1,1,7,1,-5,-1,-3
1529258655394232,9,6,5,10,-11,-9,-1,9
1529258655396227,3,2,-2,-15,-11,-4,-4,-1
1529258655396227,-11,-8,-4,-25,-1,4,-1,-4
1529258655417171,2,-4,-8,-15,-1,0,0,2
1529258655417171,5,0,1,-1,-11,-4,4,1
1529258655418168,-8,2,8,33,32,1,8,-4
1529258655418168,0,-1,0,2,2,4,-3,-1
1529258655430136,-2,-1,-6,12,12,4,-4,5
1529258655430136,-3,-3,4,1,4,-3,0,-3
1529258655439112,3,0,-7,-9,-8,-1,2,1
1529258655439112,-9,-3,-1,-6,-9,-17,-8,-10
1529258655454072,-2,-4,-2,2,1,2,2,1
1529258655454072,5,2,2,-2,-1,0,-2,4
1529258655456067,-2,-3,0,-6,1,-1,2,6
1529258655456067,-2,0,0,-6,-7,2,-1,-10
1529258655477011,-7,-7,-6,8,-1,0,0,-6
1529258655477011,8,8,7,6,-14,2,0,4
1529258655479006,-7,-2,-2,6,-1,-4,0,-5
1529258655479006,8,3,-4,6,12,4,7,9
1529258655490973,3,1,-3,-19,-9,-2,5,2
1529258655490973,-8,-6,-5,-2,8,-2,1,-4
1529258655499950,1,-1,-1,-26,-26,-4,-6,1
1529258655499950,2,1,-3,2,7,0,1,0
1529258655514909,-3,-4,1,17,32,5,-1,-3
1529258655514909,1,-1,-3,-13,3,-1,-1,1
1529258655515908,-1,-2,1,31,22,3,-2,-4
1529258655515908,1,-6,-9,-22,0,-3,-9,0
1529258655536851,5,11,13,29,11,3,-1,-2
1529258655536851,1,2,9,11,6,-3,3,3
1529258655538846,-3,-2,-7,-27,-14,-7,0,-2
1529258655538846,-6,-1,1,4,-1,-3,5,1
1529258655550813,-4,-1,-4,3,7,2,-9,-8
1529258655550813,1,-6,-5,-5,-3,-3,-2,-5
1529258655559790,2,2,-1,-5,-5,-12,-6,-4
1529258655559790,-2,-2,1,-13,-16,-1,-1,1
1529258655574749,-4,-5,-5,-15,-8,-4,0,-4
1529258655574749,-2,-1,1,20,6,-4,-1,-3
1529258655575747,-2,0,-3,-3,-3,-1,-3,-3
1529258655575747,-3,-2,-1,8,3,-6,-5,-3
1529258655596691,5,0,-2,-27,-32,-5,3,5
1529258655596691,-8,-7,-8,9,0,6,4,-1
1529258655598686,-1,1,11,8,6,3,-8,0
1529258655598686,-3,-3,-9,-4,-9,2,-1,-9
1529258655610654,6,6,8,7,-5,2,1,9
1529258655610654,0,-3,-5,-17,-4,-6,-2,-2
1529258655619630,-2,-3,-3,-1,1,22,1,0
1529258655619630,4,4,2,4,1,-1,1,4
1529258655634590,-5,-6,-4,-2,-6,-4,-10,-9
1529258655634590,-1,-3,-4,-8,3,4,2,0
1529258655636584,1,1,-1,6,8,1,3,0
1529258655636584,3,4,4,-6,-4,3,0,5
1529258655656531,-3,-3,-5,5,-5,1,0,4
1529258655656531,-4,1,3,6,13,0,-1,5
1529258655658526,-1,-3,-3,-15,-17,-9,-2,-3
1529258655658526,-5,-5,-2,30,24,3,1,1
1529258655670493,-1,-1,-1,-2,-7,-10,0,0
1529258655670493,2,2,1,-14,-3,-5,-3,2
1529258655679470,0,-1,0,14,8,-3,-1,1
1529258655679470,-2,0,-2,-20,-25,-3,-2,-2
1529258655693432,2,-2,-1,-5,-10,2,-1,-1
1529258655693432,-6,-5,0,11,7,3,-2,-4
1529258655700413,0,1,-9,-6,2,-4,2,1
1529258655700413,-6,-4,8,4,-1,3,-2,-2
1529258655716371,3,3,-2,7,1,3,4,5
1529258655716371,5,1,-1,-7,-9,-2,1,-4
1529258655723352,-5,-5,-1,-18,-11,-6,-1,-1
1529258655723352,-3,-5,-7,1,-4,-1,-5,-1
1529258655730334,-6,-3,-2,-1,4,-1,-5,-14
1529258655730334,1,-8,-16,-29,-14,-1,-1,0
1529258655739310,-3,10,17,15,8,2,7,3
1529258655739310,-1,-2,-4,-11,1,0,3,3
1529258655754270,-2,-3,1,0,6,0,-2,0
1529258655754270,0,1,-3,-4,-9,-2,-3,-1
1529258655760254,-1,-9,-13,-12,-3,-6,-5,-2
1529258655760254,1,-1,-6,-1,-4,-2,2,-2
1529258655777208,10,12,13,-4,-6,-3,-2,7
1529258655777208,-7,6,8,-17,-14,-2,-3,-7
1529258655778206,2,-5,-9,14,14,-2,2,-3
1529258655778206,3,0,1,7,5,1,2,1
1529258655799150,-3,-5,-4,-3,4,1,-1,-2
1529258655799150,-1,0,0,2,3,-3,-2,-1
1529258655801145,10,9,4,-4,-6,3,2,2
1529258655801145,-8,-12,-5,12,15,-3,-14,-12
1529258655814109,2,-2,1,-1,-4,0,4,6
1529258655814109,3,1,-5,12,5,3,-2,1
1529258655821091,-2,8,16,39,14,14,2,-2
1529258655821091,5,6,2,-9,-8,-2,4,1
1529258655838046,-4,-2,-3,17,2,0,2,2
1529258655838046,0,-2,-1,-2,0,-4,-11,-5
1529258655839044,-8,-7,-4,-17,-9,-3,0,-4
1529258655839044,2,7,9,5,-1,0,0,5
1529258655858990,-10,-9,-2,-5,0,-5,-5,-10
1529258655858990,4,3,-3,-5,-4,6,1,4
1529258655860984,-12,-11,-7,-1,4,-5,0,-6
1529258655860984,-2,1,-10,2,13,1,0,-2
1529258655873950,0,3,18,31,4,-6,2,8
1529258655873950,3,4,4,8,-4,0,6,3
1529258655880931,-1,-1,0,-20,-15,-3,-2,2
1529258655880931,-6,-6,-1,-16,-8,-5,-3,-5
1529258655896888,5,-1,-15,-22,-2,2,-7,0
1529258655896888,0,1,4,30,16,0,0,-5
1529258655898883,1,3,5,1,-4,-2,-2,0
1529258655898883,-2,-1,-4,-11,-3,1,6,2
1529258655919827,-3,0,-7,9,-4,-2,1,-2
1529258655919827,0,-4,8,-23,-20,-3,-3,1
1529258655920825,-1,-1,-7,-1,2,0,-4,-3
1529258655920825,2,5,9,11,5,3,-5,-1
1529258655933790,0,0,-1,-33,-15,3,2,-1
1529258655933790,0,-2,-6,-3,-9,-1,-1,5
1529258655940771,2,-1,-6,1,19,9,9,2
1529258655940771,3,2,6,6,-14,-12,1,-1
1529258655956728,-6,-4,-6,-14,-6,-4,3,-3
1529258655956728,-1,-1,-5,-13,0,0,-8,-1
1529258655958724,2,2,9,6,-1,2,-10,-11
1529258655958724,-3,-1,-1,8,-5,2,4,1
1529258655979667,5,5,8,4,4,1,1,3
1529258655979667,-5,-1,-4,11,5,-2,1,-5
1529258655980665,-1,-5,-11,-13,-11,-15,-6,3
1529258655980665,0,-2,0,19,27,9,2,-2
1529258655993629,-1,4,4,4,3,4,2,0
1529258655993629,-6,-5,-9,-8,2,-1,-1,0
1529258656001608,3,2,-1,1,-14,-16,-3,-3
1529258656001608,0,1,9,19,6,1,4,2
1529258656016568,-1,-6,-6,-13,15,-5,-3,1
1529258656016568,-4,3,5,25,19,1,8,3
1529258656018564,-2,-5,-11,-19,-11,-8,-8,-6
1529258656018564,0,-4,-5,-5,-4,-6,-9,-3
1529258656039507,2,7,10,12,9,3,6,3
1529258656039507,-4,-6,-5,-12,-9,6,3,-4
1529258656041502,4,2,3,11,-1,17,4,7
1529258656041502,1,2,1,-24,-10,-6,6,3
1529258656053470,3,-2,-4,8,-4,-2,-6,7
1529258656053470,-6,-4,-4,7,2,5,-6,-17
1529258656062446,0,0,-4,-11,-9,7,8,5
1529258656062446,-1,-4,2,3,-3,5,-8,-4
1529258656077406,0,-6,-10,-25,-23,-7,-3,-3
1529258656077406,-3,-1,6,47,22,15,2,3
1529258656078404,9,2,5,-11,2,-4,-4,8
1529258656078404,-3,3,0,-4,7,11,9,-3
1529258656099347,-6,-2,-1,6,6,2,-5,-3
1529258656099347,4,-1,-4,-11,-3,3,0,3
1529258656101342,-6,-8,-5,-14,1,-4,-3,4
1529258656101342,6,1,-2,5,-1,-3,-1,7
1529258656113309,1,-1,-5,-23,-12,-3,-9,-8
1529258656113309,1,2,5,-9,2,14,10,5
1529258656122286,1,2,7,34,20,9,5,0
1529258656122286,2,-2,-6,-16,-12,-23,-6,2
1529258656137246,-7,-2,-4,-4,-12,-7,-13,-11
1529258656137246,9,0,-3,-36,-33,-32,-11,6
1529258656138243,-11,-1,1,10,-15,-60,9,-1
1529258656138243,-8,-9,-9,-5,-13,-4,-4,-8
1529258656159187,3,3,4,-6,5,3,-3,0
1529258656159187,0,3,3,3,0,-15,-1,0
1529258656161182,6,-2,-5,-12,2,5,-4,0
1529258656161182,-1,3,-1,14,20,19,-4,-2
1529258656173150,-12,-13,-9,-3,-7,-28,5,-2
1529258656173150,4,2,8,-5,3,7,1,-3
1529258656182126,1,-1,-4,-22,-4,0,-5,-3
1529258656182126,3,4,2,13,-2,12,2,5
1529258656197086,6,7,9,12,0,4,9,3
1529258656197086,-6,-9,-7,-6,-7,-2,-4,-5
1529258656198084,-7,-3,-7,-14,-1,-5,-6,-9
1529258656198084,3,-4,-3,-11,-5,-4,-4,2
1529258656219027,1,0,5,30,16,10,17,5
1529258656219027,-6,-2,-3,-6,-9,2,-10,-13
1529258656221022,5,0,-5,-7,-2,18,1,-1
1529258656221022,-22,-3,4,-4,4,1,-2,-5
1529258656232990,7,-1,-1,-1,-11,6,2,1
1529258656232990,-7,-3,5,33,16,-6,8,-1
1529258656241966,3,-1,0,8,15,64,-11,0
1529258656241966,8,-1,-4,-3,-12,-12,2,0
1529258656256926,2,2,3,-13,1,-20,-17,0
1529258656256926,0,2,-2,-15,-4,9,-1,7
1529258656258921,-5,-5,-8,-22,-11,-6,7,-4
1529258656258921,9,13,16,17,8,12,4,3
1529258656279865,-3,-6,-8,-4,2,8,-6,-3
1529258656279865,1,-7,-12,-35,-15,-16,0,-1
1529258656280862,1,1,4,6,-2,-3,-3,-5
1529258656280862,-1,-4,-6,-41,-14,-21,-5,1
1529258656292830,6,7,9,55,51,30,14,8
1529258656292830,1,1,3,3,0,24,-2,1
1529258656301806,1,2,3,7,0,-5,7,8
1529258656301806,2,2,1,14,1,10,-5,-8
1529258656316766,-4,-2,-4,-2,10,17,-1,-7
1529258656316766,1,1,1,0,4,0,-10,1
1529258656318761,-3,3,8,44,24,18,11,3
1529258656318761,2,-6,-11,19,-5,-1,-5,2
1529258656339704,0,6,11,-18,-9,1,-5,-3
1529258656339704,4,7,5,11,8,-5,24,10
1529258656340702,3,6,0,-26,-33,-34,2,2
1529258656340702,-9,-9,5,0,1,-20,5,-11
1529258656352670,3,-1,-8,5,-13,-10,-3,-4
1529258656352670,-6,0,0,-9,-10,-1,4,-4
1529258656361646,-9,-16,-12,-14,-9,-16,-7,-8
1529258656361646,3,4,0,8,13,9,3,5
1529258656376606,-4,-4,-4,-19,-7,-1,6,1
1529258656376606,-7,-5,-6,0,-4,-6,0,-7
1529258656378601,7,3,5,-4,-1,10,-3,6
1529258656378601,-7,-3,-1,-12,-13,-9,-6,-7
1529258656399545,-2,-5,-7,13,-8,-21,-10,-4
1529258656399545,3,5,7,-1,-3,0,-9,-3
1529258656401539,-2,3,3,2,-5,-7,5,0
1529258656401539,4,2,-6,-10,3,-4,-57,-25
1529258656413507,-10,-8,-12,-41,-48,-37,-1,2
1529258656413507,1,-2,-1,22,9,-4,1,4
1529258656422484,-4,0,-3,-7,11,0,-19,-9
1529258656422484,9,0,-1,-18,-7,11,26,10
1529258656437443,-12,-3,-4,-4,2,17,-13,-8
1529258656437443,4,0,-1,0,-8,-14,1,-8
1529258656438441,9,0,1,13,13,5,-13,6
1529258656438441,0,-4,-10,-12,-4,-16,0,9
1529258656459385,-4,0,1,-3,7,-1,-1,-5
1529258656459385,6,1,8,-12,1,-3,4,13
1529258656461380,-3,2,1,-9,-26,-1,14,-4
1529258656461380,-8,-5,-7,13,15,13,5,-1
1529258656473347,6,4,-1,3,6,-6,-3,1
1529258656473347,3,5,5,6,13,-7,-6,0
1529258656482324,-3,-6,-6,7,13,-15,-10,-8
1529258656482324,-10,-5,1,-3,-2,-6,-2,-1
1529258656497283,-2,-8,-9,4,7,-8,0,0
1529258656497283,-8,-2,2,13,16,16,4,-6
1529258656498281,0,-3,-8,-40,-22,-10,-9,-6
1529258656498281,-10,-3,-5,-12,9,0,2,-2
1529258656519225,1,0,3,10,2,-2,3,-2
1529258656519225,6,0,-7,-9,-6,6,-3,2
1529258656521220,-2,0,2,12,15,39,10,2
1529258656521220,-5,-1,5,-24,-19,-32,-2,1
1529258656533188,1,-1,0,-2,19,36,-7,-14
1529258656533188,-10,-10,-8,-9,-20,-21,-7,-9
1529258656542164,2,2,-2,2,5,-21,5,6
1529258656542164,3,-1,-2,6,-5,-2,6,1
1529258656557123,0,-2,-1,-12,-14,-4,2,6
1529258656557123,8,6,0,0,-13,2,-4,3
1529258656558121,-5,-3,9,31,29,12,6,-5
1529258656558121,9,9,7,33,28,14,7,9
1529258656579065,2,5,9,-12,-5,-29,1,-1
1529258656579065,4,-4,-7,0,24,37,4,10
1529258656581060,-20,-10,-3,-15,-32,-11,-4,-7
1529258656581060,-4,0,2,-2,-11,-7,-6,-12
1529258656593027,1,0,-2,-4,5,0,5,5
1529258656593027,-1,-1,-5,-19,-5,-6,-4,-2
1529258656602004,8,3,3,21,3,-15,11,6
1529258656602004,-2,2,0,8,-1,-14,5,0
1529258656616963,1,-3,-8,-8,9,37,15,10
1529258656616963,0,8,16,32,2,-9,-7,-9
1529258656618958,-7,-5,-7,-18,-13,17,-2,-6
1529258656618958,5,3,0,0,-10,1,3,3
1529258656639902,7,-2,-2,-4,-14,-12,5,9
1529258656639902,-23,-18,-13,-17,-7,-3,-5,-12
1529258656640899,-4,-4,-3,-14,-3,-4,3,-6
1529258656640899,4,3,6,13,5,15,8,23
1529258656652867,-6,3,1,-3,-10,9,-15,-24
1529258656652867,9,-1,-10,2,13,-14,11,15
1529258656661844,-13,-8,3,13,7,7,-12,-15
1529258656661844,0,1,-2,2,1,-8,3,-1
1529258656675806,2,1,6,0,-26,-55,4,10
1529258656675806,-3,3,-5,-22,-19,-8,-1,-6
1529258656682788,9,3,0,9,-33,-1,13,16
1529258656682788,-2,-4,-2,-3,9,-4,-5,-10
1529258656699742,-4,-1,-7,-22,-14,-14,-6,-7
1529258656699742,2,3,3,6,6,14,-1,-4
1529258656700740,10,7,0,-21,3,-1,0,9
1529258656700740,-8,-2,2,20,24,28,2,-3
1529258656721683,1,-2,6,28,33,17,2,4
1529258656721683,-3,-2,-8,7,9,-10,-5,-6
1529258656723678,-10,-12,-8,8,18,13,-14,-10
1529258656723678,4,-2,-11,-22,-13,11,15,11
1529258656736644,1,3,14,10,10,14,-14,-3
1529258656736644,-1,0,0,-9,-35,-36,-7,-2
1529258656742627,5,7,2,-28,9,-2,3,6
1529258656742627,-1,-7,-11,-23,-26,-23,-4,-4
1529258656759582,-1,2,3,29,-14,-20,9,0
1529258656759582,-4,-6,-2,3,6,6,-5,-1
1529258656761577,8,4,1,-18,-24,-3,2,8
1529258656761577,-1,1,1,-23,-18,30,-21,-6
1529258656781523,0,1,-2,36,39,38,-1,0
1529258656781523,10,9,7,-11,-15,19,4,2
1529258656783519,-3,-1,-4,11,5,-4,9,11
1529258656783519,6,-1,-2,-4,9,24,-9,-7
1529258656796483,4,6,12,52,17,6,18,7
1529258656796483,-12,-7,-2,-3,32,3,-6,-6
1529258656803465,-2,2,-2,8,-28,-32,-12,-9
1529258656803465,6,0,-7,-18,-25,-24,8,-1
1529258656819422,0,3,4,-36,-17,14,0,2
1529258656819422,0,-2,0,-4,-6,-18,26,14
1529258656821417,-11,-7,-3,42,60,0,-9,-19
1529258656821417,-1,-1,-4,-21,-11,-5,-11,1
1529258656842361,-11,-10,-15,-18,-22,-26,5,-9
1529258656842361,3,-4,-8,-10,-7,-16,-6,-6
1529258656843358,9,9,6,-10,0,27,-12,6
1529258656843358,-8,-7,-4,8,-9,-8,0,-4
1529258656856324,-6,-5,-8,-29,-8,-14,-9,-7
1529258656856324,3,6,22,61,61,27,5,9
1529258656863305,-5,-3,-14,-10,-12,-17,-3,-12
1529258656863305,4,1,5,-1,13,4,-3,10
1529258656879262,-5,-10,-16,-28,-34,-22,-3,1
1529258656879262,-4,-5,-8,-35,-53,-11,-12,-8
1529258656881257,13,15,15,13,-30,-7,17,9
1529258656881257,-6,-2,6,26,6,-15,19,3
1529258656902201,2,1,-1,-9,24,22,-7,-5
1529258656902201,-3,-3,-2,34,4,-2,-9,-3
1529258656903199,-2,-5,-6,32,38,6,-5,3
1529258656903199,-4,0,1,3,6,-8,2,-14
1529258656916163,1,4,4,14,-1,10,-1,1
1529258656916163,-1,4,4,-17,1,9,14,-3
1529258656923145,-8,-5,-1,-7,-1,2,-2,-7
1529258656923145,16,6,3,32,28,-4,4,8
1529258656939102,-5,-8,0,-1,1,18,-2,-4
1529258656939102,-14,-4,-3,-18,19,12,6,4
1529258656941097,-1,3,14,43,30,2,-2,-2
1529258656941097,-9,-3,-6,-11,-9,3,-6,-14
1529258656962041,14,4,-6,-11,1,-1,-4,1
1529258656962041,9,3,0,0,-9,10,0,7
1529258656964037,-13,-14,-6,-35,-33,-11,-9,-11
1529258656964037,1,3,4,19,2,19,-7,0
1529258656976004,-6,-1,5,26,4,-12,3,3
1529258656976004,1,-10,-20,-7,-6,0,-1,0
1529258656984980,7,8,4,-14,-5,7,-6,0
1529258656984980,-6,4,8,-11,-6,1,4,-2
1529258656999939,-8,-11,-13,-35,-10,-3,4,2
1529258656999939,2,4,4,7,-1,3,-5,-2
1529258657000938,5,-4,-7,-17,-3,-12,8,13
1529258657000938,0,-5,-10,-5,-14,-6,-8,-2
1529258657021881,4,5,15,5,0,-16,-3,-1
1529258657021881,-2,0,-10,-3,6,30,-2,-6
1529258657023876,7,5,12,21,9,-5,5,3
1529258657023876,-2,-2,-1,-23,-22,-18,6,-2
1529258657035844,5,1,-11,6,-3,-18,-12,5
1529258657035844,7,6,15,15,-4,-8,-10,-14
1529258657044820,-2,-8,-13,-20,-12,-8,-4,7
1529258657044820,-14,-6,5,1,0,2,-2,-6
1529258657059780,-2,-6,-13,-8,-3,13,-1,-2
1529258657059780,3,8,13,5,-8,-7,7,2
1529258657060777,-1,3,2,-3,-18,7,6,4
1529258657060777,-3,-4,-7,1,9,16,1,-2
1529258657081721,5,1,2,-18,-21,-5,6,6
1529258657081721,-6,-6,-10,9,14,-21,-7,-3
1529258657083716,4,8,11,-3,3,3,-4,-7
1529258657083716,5,4,2,7,12,-4,2,7
1529258657095684,-7,-3,-7,-3,-8,-2,-9,-7
1529258657095684,1,-7,-10,-16,-11,24,11,10
1529258657104660,-7,-10,-9,1,6,20,-11,-14
1529258657104660,9,12,15,14,10,3,-6,5
1529258657119620,-5,0,-4,6,4,8,-1,-6
1529258657119620,1,6,8,-6,-2,-9,-6,4
1529258657120617,-8,-9,-7,-4,9,20,17,-2
1529258657120617,6,-4,-11,-7,0,-2,-6,13
1529258657141561,3,7,13,12,6,-33,-11,-7
1529258657141561,-3,-2,-2,18,3,-11,6,-2
1529258657143556,4,-1,-6,0,3,22,-3,11
1529258657143556,1,5,8,-3,1,10,-7,-5
1529258657155524,-8,-2,-1,4,2,12,5,-7
1529258657155524,-9,-11,-10,-10,-2,8,-5,-2
1529258657164500,4,2,-3,-1,3,-18,8,3
1529258657164500,-4,-6,-7,6,-8,-23,8,5
1529258657179460,4,4,3,1,9,6,-3,0
1529258657179460,-8,6,8,-1,4,0,-6,-7
1529258657181455,-1,-8,-8,3,-10,-1,-4,-10
1529258657181455,-11,-5,-7,-16,2,-3,0,-17
1529258657202398,0,-6,-9,-2,-15,-1,6,14
1529258657202398,-5,-6,-1,-3,1,-17,1,-11
1529258657203396,3,5,2,6,-2,-6,-4,-2
1529258657203396,4,6,5,-7,-12,-14,-6,-2
1529258657215364,-10,-9,-7,-17,2,-2,-8,-8
1529258657215364,1,-3,-4,25,-3,9,2,3
1529258657224340,0,-1,-6,-10,2,-13,-1,4
1529258657224340,-10,-6,-6,5,3,5,-3,-8
1529258657239300,5,5,16,0,8,17,-4,7
1529258657239300,0,2,-7,-24,-5,24,-2,0
1529258657241295,4,2,9,3,2,-15,-6,-4
1529258657241295,1,-5,-8,-10,-11,-9,3,0
1529258657262238,6,3,2,18,1,-36,-7,2
1529258657262238,5,5,2,-10,-10,1,1,10
1529258657263236,2,0,-3,-5,0,15,3,0
1529258657263236,-1,0,-1,-14,-12,-14,-5,-4
1529258657275204,-6,-6,-2,49,24,15,4,-8
1529258657275204,6,4,8,0,-9,-18,4,8
1529258657284180,-7,-1,-6,-18,1,-3,4,0
1529258657284180,-3,-6,-4,-13,-19,-2,0,0
1529258657299140,-1,2,5,16,13,14,8,-4
1529258657299140,-8,-8,-3,-4,-8,-6,-8,-10
1529258657301135,-4,-3,-9,8,11,4,-4,-2
1529258657301135,2,4,7,-18,-8,2,7,0
1529258657322078,7,3,-4,9,4,-4,3,6
1529258657322078,6,4,1,3,21,9,-7,-1
1529258657323076,-13,-9,-8,-13,-18,5,7,-6
1529258657323076,3,-2,6,20,23,28,11,6
1529258657336041,1,2,-12,-25,-24,-17,-5,0
1529258657336041,-8,-2,6,0,21,42,11,-3
1529258657345017,3,14,20,68,54,3,2,5
1529258657345017,3,1,-2,8,-1,-3,-1,6
1529258657358980,-3,-6,3,-9,0,7,-1,-2
1529258657358980,4,2,-9,-16,-14,-16,-7,-8
1529258657360975,2,-2,-3,-33,-27,-5,-3,1
1529258657360975,1,2,-1,7,14,2,-11,-8
1529258657380921,-16,-11,-3,-14,-13,31,-8,-8
1529258657380921,7,-2,-13,8,8,-23,5,4
1529258657389898,-4,4,13,-1,1,23,-5,-1
1529258657389898,3,1,3,3,-9,-16,0,4
1529258657395881,-6,-6,-5,-24,-1,-6,-6,-2
1529258657395881,-2,0,0,37,12,19,-9,1
1529258657404858,-1,-6,-9,-16,-2,-39,-3,-10
1529258657404858,-11,-5,-2,-1,8,16,-7,-13
1529258657419817,3,2,2,-8,1,-2,5,8
1529258657419817,1,-2,-2,-31,-21,-16,-11,6
1529258657420814,-3,-8,-9,3,0,-11,2,0
1529258657420814,-17,-8,-10,-17,-4,-8,-1,-11
1529258657441758,15,16,20,46,33,10,14,11
1529258657441758,8,4,9,7,-4,0,12,5
1529258657443753,-2,-5,-10,-23,-26,-19,0,-3
1529258657443753,5,0,-2,-25,-30,-10,2,8
1529258657455721,-3,-2,-1,59,44,22,7,1
1529258657455721,-4,-2,1,0,5,-16,6,0
1529258657464698,4,6,9,7,-11,-5,-18,-6
1529258657464698,1,-2,0,1,-5,-4,8,4
1529258657479657,-4,-8,-12,-17,-13,-7,-6,-6
1529258657479657,-3,-1,8,7,-6,1,-3,-7
1529258657480655,-10,-8,-9,-9,-18,-16,2,-6
1529258657480655,-4,-9,-6,39,32,26,-3,5
1529258657501599,3,4,2,-35,-13,16,-12,-3
1529258657501599,-7,-2,-1,-17,-24,-27,9,0
1529258657503594,5,8,13,-7,-10,-27,-10,-2
1529258657503594,0,4,-4,8,31,-1,-9,-5
1529258657515562,4,-3,1,-8,-14,-11,-9,-9
1529258657515562,-9,-5,-6,-1,-6,0,-4,-6
1529258657524537,4,-1,-2,7,8,16,-4,4
1529258657524537,0,-2,1,-13,-15,-17,3,3
1529258657539497,0,2,0,-12,-9,-7,3,-1
1529258657539497,5,1,-4,-1,-5,10,7,3
1529258657541492,5,2,1,19,22,-10,15,16
1529258657541492,-2,2,2,2,2,5,-10,-4
1529258657561438,-2,-3,1,-10,-15,-6,4,-13
1529258657561438,2,4,-4,-19,-15,-1,0,4
1529258657563434,0,3,4,-3,13,45,5,1
1529258657563434,7,9,0,-20,-29,-11,4,1
1529258657575401,-13,-11,-5,2,-7,-19,6,3
1529258657575401,-2,-1,-3,3,3,3,-9,-4
1529258657584378,1,-7,-7,2,-22,-5,-10,-7
1529258657584378,2,-1,2,-7,0,-4,-14,-2
1529258657598340,-7,-7,-8,-23,-20,12,1,-4
1529258657598340,0,-1,-3,14,2,-2,-5,-5
1529258657605321,1,6,7,11,-5,0,9,13
1529258657605321,2,-1,0,-1,3,4,5,0
1529258657622276,0,3,3,12,11,-8,-2,10
1529258657622276,-6,-4,3,-17,-28,-15,-7,-13
1529258657623274,2,0,-4,5,33,32,-1,-3
1529258657623274,1,2,9,20,8,-2,1,1
1529258657635241,3,6,4,6,-5,-29,-14,-10
1529258657635241,-5,-9,-7,-18,-8,-3,1,6
1529258657644217,-5,-5,-8,-15,-22,-18,1,-2
1529258657644217,6,6,4,21,14,8,11,6
1529258657659177,-3,-1,5,26,14,11,9,-4
1529258657659177,-3,-4,-5,-3,12,5,2,5
1529258657665162,5,1,0,-9,-26,11,12,0
1529258657665162,4,-4,-6,7,1,1,-9,-1
1529258657682116,2,9,3,-9,-7,-3,2,3
1529258657682116,4,2,-1,-1,-4,10,2,2
1529258657683114,-1,-5,1,5,-4,-5,-6,1
1529258657683114,-5,1,0,-5,-2,15,12,-3
1529258657704057,2,-3,-4,-3,-5,16,2,6
1529258657704057,-1,-1,-1,-6,22,-7,-7,-6
1529258657706052,-17,-7,-5,-11,-9,2,3,-6
1529258657706052,0,-2,0,2,-2,-2,-1,-4
1529258657719017,4,1,-1,-12,-3,8,-4,4
1529258657719017,-4,-6,-4,-1,9,2,2,3
1529258657725999,1,3,3,-3,11,-4,-5,1
1529258657725999,0,0,-2,7,2,-2,-1,-3
1529258657741956,1,0,-1,-6,1,-1,-9,-2
1529258657741956,0,2,1,4,4,-10,11,4
1529258657743951,4,3,0,6,9,-4,-7,1
1529258657743951,-16,-14,-6,-11,-10,-2,-3,-4
1529258657764895,1,-3,-4,-4,-3,-2,6,5
1529258657764895,2,3,3,4,-4,-6,-13,-10
1529258657765892,2,-3,-3,-3,-2,-5,1,2
1529258657765892,9,2,-2,-3,10,3,-16,-6
1529258657778857,-1,-1,-1,-2,-5,-9,0,0
1529258657778857,-4,2,6,4,3,16,-3,-2
1529258657785839,-2,-3,-13,-21,-12,-6,-1,-3
1529258657785839,0,0,1,-11,-10,-1,1,2
1529258657801796,6,9,12,12,9,1,2,-9
1529258657801796,3,-3,-4,0,-10,-8,-13,1
1529258657803791,-10,-5,-2,-7,-11,-22,3,0
1529258657803791,-7,-3,-4,26,21,1,12,-2
1529258657824735,3,-4,-16,-23,-9,-2,-4,3
1529258657824735,3,2,-4,-13,-2,3,3,0
1529258657825732,4,7,17,21,2,-1,3,2
1529258657825732,-4,-6,-6,-12,-7,-3,-4,-6
1529258657838698,6,6,3,3,1,2,-2,5
1529258657838698,6,5,7,1,19,-12,2,7
1529258657845678,-6,-5,-12,-10,-14,-13,-5,-10
1529258657845678,2,7,4,-1,1,-2,-2,-2
1529258657861636,-2,-3,-2,5,2,-2,-3,-7
1529258657861636,-3,-5,-3,-18,-7,3,5,6
1529258657863631,0,0,3,11,13,24,-2,-5
1529258657863631,4,1,-1,2,3,4,8,5
1529258657884575,-6,3,-4,-12,-9,-16,5,-3
1529258657884575,-4,0,1,34,6,-5,-5,-6
1529258657885573,0,-3,-1,-6,7,10,-5,-8
1529258657885573,-3,-12,-8,2,-6,-22,-13,-3
1529258657898537,3,4,4,-7,-7,18,-5,-1
1529258657898537,-6,-9,-6,0,-6,14,1,-1
1529258657905519,8,5,4,0,-11,-9,3,0
1529258657905519,-10,-6,-8,-3,-10,-5,-5,-13
1529258657921476,-2,-4,1,16,15,5,11,-2
1529258657921476,0,2,-1,-9,-9,-10,-4,0
1529258657923471,1,-3,-6,1,2,-3,1,10
1529258657923471,-5,0,7,6,-1,6,-4,-7
1529258657944415,-3,-7,-6,17,12,4,8,5
1529258657944415,8,12,6,-7,-1,-7,7,0
1529258657946410,-17,-13,1,6,1,29,-7,-8
1529258657946410,11,4,2,-32,-5,23,3,10
1529258657958378,-3,-4,-1,7,5,3,2,5
1529258657958378,14,4,4,14,2,-6,5,2
1529258657967354,-5,-4,-11,-10,6,5,3,-1
1529258657967354,4,4,5,3,1,-5,4,9
1529258657982314,-10,-8,1,-5,-3,6,-8,-7
1529258657982314,-2,2,-3,-6,-4,1,1,-2
1529258657983311,-2,0,-2,4,6,-2,-5,-2
1529258657983311,6,3,1,12,2,2,13,14
1529258658004254,-5,-7,-9,-10,-7,5,-1,0
1529258658004254,-1,-1,3,9,0,-15,-1,-3
1529258658006250,8,3,1,-1,5,-3,-3,5
1529258658006250,-5,-5,-6,-4,-3,-7,-8,-12
1529258658018217,5,6,5,-1,-6,-16,-5,-4
1529258658018217,4,0,-7,-7,3,6,-3,3
1529258658027194,-6,-6,1,0,-1,-2,3,-11
1529258658027194,-3,-1,1,-2,1,-7,13,8
1529258658042153,2,4,6,1,5,-27,-8,1
1529258658042153,8,0,-5,-9,-11,3,7,9
1529258658043151,-6,1,-2,-2,-6,-9,-1,-3
1529258658043151,-9,-1,4,6,1,-9,0,-3
1529258658064095,0,-5,-8,-10,-10,-7,2,5
1529258658064095,-14,-8,-1,-2,6,2,-3,-10
1529258658066090,7,2,-3,-7,-3,-5,1,2
1529258658066090,-3,-2,-3,-4,-3,-3,-4,-9
1529258658078058,3,4,12,37,-8,-17,9,8
1529258658078058,-5,-7,-9,-8,0,22,1,-4
1529258658087034,0,-5,-8,-11,0,-10,-2,-1
1529258658087034,10,8,7,6,-6,-9,2,5
1529258658101993,-20,-8,-5,-13,5,0,-6,-13
1529258658101993,-4,0,3,-4,2,0,2,5
1529258658103988,-3,0,-5,0,-4,-8,1,1
1529258658103988,-1,0,-1,-7,2,10,-3,-4
1529258658124932,6,4,2,-8,-2,12,-1,5
1529258658124932,-6,-4,-6,-7,2,-9,2,-9
1529258658125930,5,5,5,0,10,31,-7,9
1529258658125930,-5,-11,-10,-7,-5,-4,-1,2
1529258658137897,2,0,-11,-10,-11,2,5,1
1529258658137897,-9,-2,11,20,3,-9,1,-1
1529258658146874,4,5,6,-2,3,0,0,3
1529258658146874,0,2,3,8,0,11,0,-2
1529258658161834,8,-8,-13,-17,-9,-16,-2,2
1529258658161834,-10,-8,-10,-5,-7,1,-16,-14
1529258658163829,3,8,2,-23,-22,13,10,10
1529258658163829,-3,0,7,11,-3,-4,-7,-8
1529258658184772,-1,7,6,-4,-1,5,3,-5
1529258658184772,-1,-10,-14,-1,-3,-7,-3,3
1529258658185770,-1,1,11,7,-3,0,3,-5
1529258658185770,4,6,0,-5,2,3,-16,-4
1529258658197738,-5,-2,-2,6,11,7,8,6
1529258658197738,-6,0,8,4,0,-1,-15,-16
1529258658206713,-3,-4,-5,3,2,-14,-9,-5
1529258658206713,4,0,-7,-6,16,27,-2,5
1529258658221673,-6,-2,3,9,-1,37,-5,-9
1529258658221673,-5,1,3,-1,-3,-7,5,0
1529258658223669,3,-2,-5,-2,4,-2,-2,0
1529258658223669,0,1,2,7,5,-7,-4,-2
1529258658244612,1,-2,-6,-9,2,10,-6,-1
1529258658244612,2,2,-5,-16,-4,-8,7,2
1529258658245610,5,0,2,15,9,11,6,5
1529258658245610,-3,5,8,1,-6,-7,-5,-5
1529258658258575,-6,-8,-6,-6,-3,-4,0,-2
1529258658258575,1,4,2,1,-7,-4,-5,-5
1529258658267551,2,-1,-4,-1,0,-13,2,-1
1529258658267551,-11,-12,-5,-3,-5,-8,5,3
1529258658281514,3,1,2,-5,-5,-18,1,2
1529258658281514,-8,-1,-1,7,4,10,0,-2
1529258658283509,-5,-3,-2,-4,-3,-11,-18,-7
1529258658283509,0,-4,-12,-12,0,1,11,2
1529258658304452,0,6,2,16,1,-31,-2,0
1529258658304452,11,8,17,7,8,10,-2,4
1529258658306447,-6,-4,-4,-4,-3,-23,-2,-6
1529258658306447,1,6,2,1,-8,-6,4,6
1529258658318415,-2,-9,-18,-15,-11,-6,-6,-7
1529258658318415,6,3,4,1,-2,-5,3,8
1529258658327391,-3,0,4,-1,1,1,1,-3
1529258658327391,-2,3,-1,-6,-20,-38,0,0
1529258658342351,0,-6,-1,-3,1,1,-1,-1
1529258658342351,6,7,1,1,-1,-6,-11,0
1529258658343349,9,1,2,-5,-9,14,3,5
1529258658343349,-3,-2,-7,-8,-4,12,-10,-1
1529258658364292,-3,3,4,9,3,6,-1,1
1529258658364292,-4,-10,-8,-7,-6,-4,1,-1
1529258658366287,1,-6,0,8,5,1,5,5
1529258658366287,4,1,3,3,3,3,-7,-3
1529258658378255,2,7,3,-6,8,16,-13,-3
1529258658378255,-5,-8,-4,5,5,2,3,0
1529258658387231,-2,-2,-11,7,16,-4,-2,3
1529258658387231,4,3,6,-6,-7,-4,-1,-7
1529258658402191,-2,-2,1,14,14,6,-6,-2
1529258658402191,-7,0,1,-13,-13,0,1,-7
1529258658403189,-4,0,0,6,3,1,-11,-8
1529258658403189,-4,-11,-10,-13,-11,3,3,-3
1529258658424132,3,1,-6,3,5,3,-6,1
1529258658424132,9,7,3,3,8,-10,15,11
1529258658426127,-7,-2,2,7,-16,-6,-4,-12
1529258658426127,-4,0,2,9,9,-1,-8,-1
1529258658438095,0,-2,3,-10,-11,-1,1,-3
1529258658438095,2,-1,-6,1,-6,8,1,2
1529258658447071,-3,-7,-3,3,-5,-1,-10,-7
1529258658447071,-1,-6,-15,-14,6,7,0,1
1529258658462031,-1,6,16,41,8,-7,13,3
1529258658462031,2,0,3,1,11,10,-11,2
1529258658464026,1,2,0,-10,-5,3,11,0
1529258658464026,-10,-6,0,-2,2,28,-15,-13
1529258658483972,-2,-5,-12,-48,-18,-2,5,0
1529258658483972,0,1,-4,27,12,3,0,-3
1529258658485967,1,6,6,2,2,-4,-1,1
1529258658485967,1,-1,1,9,-2,-3,-1,0
1529258658497935,-1,2,3,-9,-8,4,-5,4
1529258658497935,2,0,-9,-41,-18,-4,9,6
1529258658506911,-7,-8,-4,5,4,-1,-7,-5
1529258658506911,2,0,0,6,-8,-22,-1,-1
1529258658521871,1,3,2,2,-3,-9,3,-3
1529258658521871,-3,-3,2,2,0,-1,-1,4
1529258658523866,4,4,-2,-11,-6,-5,-2,-3
1529258658523866,1,-1,3,-2,4,-3,0,1
1529258658544810,-12,-7,-7,-1,-4,-13,-4,-11
1529258658544810,3,1,-7,-7,20,0,0,-1
1529258658545807,1,7,7,10,9,14,2,5
1529258658545807,-3,-2,2,16,7,3,3,1
1529258658557775,1,-1,-3,-4,-4,-6,0,-3
1529258658557775,2,4,0,-3,-4,-3,-3,-1
1529258658566751,-1,-2,-4,-20,-16,-1,3,2
1529258658566751,2,-2,3,25,11,14,3,5
1529258658581711,-2,-4,-5,-18,-6,6,-7,-5
1529258658581711,-3,-4,-4,-9,-11,0,0,-1
1529258658587695,0,-2,-4,5,10,6,3,2
1529258658587695,3,1,0,-9,-8,2,4,3
1529258658604650,-10,-6,-6,-11,-4,1,-2,-6
1529258658604650,-4,0,2,9,-6,-4,-5,-8
1529258658605647,-1,2,3,3,-3,8,2,-1
1529258658605647,-1,-3,-3,-13,-3,-14,0,1
1529258658626591,-1,1,4,11,5,-2,5,3
1529258658626591,-4,-3,-4,-4,-5,-11,-4,-5
1529258658628586,0,-2,-2,7,9,-1,-1,6
1529258658628586,4,2,5,24,15,25,-4,-3
1529258658641551,5,4,1,1,-21,-15,4,4
1529258658641551,-5,1,8,47,15,6,-4,3
1529258658648532,3,-3,-2,7,-1,1,5,5
1529258658648532,-3,0,-1,-7,-2,-6,-3,-2
1529258658664490,2,3,1,5,10,11,6,4
1529258658664490,-6,-9,-6,-21,-21,-6,1,-3
1529258658666485,-1,-4,-8,-12,-9,-12,1,0
1529258658666485,-2,2,1,5,2,-5,0,-2
1529258658687428,-2,0,5,2,4,3,1,1
1529258658687428,2,4,0,-2,-3,5,4,-5
1529258658688426,-6,-6,-1,-2,-5,-10,-9,-3
1529258658688426,-2,-6,-8,-12,-3,-7,-2,0
1529258658701391,4,1,1,1,11,-1,4,6
1529258658701391,0,-1,0,8,-3,-5,1,-1
1529258658708372,-5,1,1,-7,-6,-7,1,-2
1529258658708372,3,2,-6,-33,-31,-13,-8,-7
1529258658724330,2,-2,-4,-25,-18,-6,-8,-4
1529258658724330,6,-1,2,42,30,8,0,2
1529258658726325,2,4,8,7,1,2,3,-1
1529258658726325,-4,-3,-2,-9,0,1,0,0
1529258658747269,5,5,4,17,9,5,1,3
1529258658747269,-5,-3,-4,-21,-12,5,-2,-8
1529258658748266,-4,-2,-2,-6,7,4,-3,-4
1529258658748266,5,2,5,19,15,5,4,4
1529258658761231,5,2,2,12,-7,-4,2,4
1529258658761231,-3,3,1,-6,4,-2,-4,1
1529258658768213,2,1,-4,3,7,4,-7,-1
1529258658768213,-1,-1,-1,-5,-6,-9,0,-3
1529258658784170,-3,-3,2,-11,-4,5,-10,-1
1529258658784170,-2,-2,-3,-6,-7,-9,-5,-3
1529258658786165,0,0,0,-8,-11,3,0,2
1529258658786165,8,6,-3,-9,-10,-14,9,8
1529258658807108,-15,-10,-8,-8,0,-2,-3,-8
1529258658807108,3,-2,-5,-27,-12,-3,-4,1
1529258658808106,4,-1,0,9,10,-2,2,0
1529258658808106,-3,-1,1,-1,-2,11,-6,0
1529258658821071,1,4,-2,7,13,0,-3,-4
1529258658821071,-1,0,0,-17,-11,2,-2,0
1529258658828052,-5,-6,-7,3,1,2,2,2
1529258658828052,-8,-3,-1,6,-7,-13,-1,-10
1529258658844010,3,-1,-2,-3,-2,-2,7,6
1529258658844010,-6,-2,1,6,-5,-25,-8,-2
1529258658846005,2,1,-5,-18,-9,-8,5,5
1529258658846005,2,2,7,26,25,13,9,9
1529258658866949,-5,-2,-2,7,3,-10,-6,-5
1529258658866949,5,0,-3,0,0,-3,7,6
1529258658868943,-7,-5,3,-3,0,1,0,-9
1529258658868943,1,-1,-4,-17,-7,-4,0,-2
1529258658880911,-9,-4,-2,10,7,5,-3,-4
1529258658880911,9,4,0,1,-1,9,1,5
1529258658889887,-3,0,1,9,-3,-3,-9,-7
1529258658889887,-1,-2,1,20,21,9,-2,-2
1529258658904847,9,4,1,-7,-21,-8,1,5
1529258658904847,0,1,0,5,3,7,-1,-3
1529258658905845,-13,-6,-1,-11,-8,-3,1,-1
1529258658905845,-1,-1,-11,-32,-19,-12,-3,-5
1529258658926789,1,-2,2,-2,13,3,3,0
1529258658926789,0,4,5,9,1,-3,-1,2
1529258658928784,4,3,1,4,0,-11,6,3
1529258658928784,-1,-1,0,-11,-13,-2,-4,4
1529258658940751,-4,-6,-7,-1,2,-3,-3,-7
1529258658940751,0,-3,-4,-10,-2,3,1,-3
1529258658949728,-1,0,-1,8,4,6,2,1
1529258658949728,5,-4,2,-6,-8,-1,-4,4
1529258658964688,2,3,-2,1,-5,-2,-4,-1
1529258658964688,-6,3,6,5,4,1,-1,0
1529258658965685,5,-2,-4,-3,-4,2,0,-5
1529258658965685,-12,-5,-4,4,8,3,-3,-11
1529258658986629,10,4,2,2,-3,3,0,8
1529258658986629,-5,-5,-4,-3,-2,-3,-3,-5
1529258658988624,3,-2,-3,-11,-8,-4,0,2
1529258658988624,-8,-6,-4,-1,-2,-2,5,-3
1529258659000591,0,2,2,3,5,-2,-7,-3
1529258659000591,4,3,0,1,2,-1,-6,-6
1529258659009567,-1,2,4,3,6,-1,-2,-2
1529258659009567,-5,-2,0,8,5,0,7,6
1529258659024527,-4,-7,-8,-5,-4,-1,3,7
1529258659024527,-3,0,-3,-10,-10,-4,-1,-6
1529258659026522,4,4,3,2,-2,8,-9,-1
1529258659026522,2,3,-5,4,8,18,-1,-2
1529258659047466,-4,-5,3,1,1,-7,-1,0
1529258659047466,-9,-7,-8,-9,-12,-1,3,-7
1529258659048464,4,2,2,-4,-8,12,9,1
1529258659048464,4,6,5,11,5,12,0,3
1529258659062426,3,-2,-6,-3,-1,-5,1,-3
1529258659062426,-2,-10,-4,1,3,-2,-5,2
1529258659069407,0,8,5,0,0,-4,-6,1
1529258659069407,1,4,6,2,-5,-6,3,0
1529258659084367,0,1,2,14,8,4,9,3
1529258659084367,-1,-4,-3,5,8,1,-1,1
1529258659086363,0,-5,-6,-4,-4,-6,5,4
1529258659086363,-1,-1,0,-2,-7,-6,-4,2
1529258659107306,-4,1,-3,-37,-15,4,-8,-10
1529258659107306,-3,-2,2,12,15,5,-1,0
1529258659108304,-3,-5,-6,-3,-2,-6,-2,-7
1529258659108304,-2,-2,-2,-4,-5,-8,0,-2
1529258659120271,-4,-2,-3,-3,-7,-5,-1,-2
1529258659120271,2,2,1,-1,-1,5,-2,1
1529258659129247,0,0,0,-4,-1,-1,-2,-2
1529258659129247,-5,-1,1,-4,-1,-8,-6,-1
1529258659144207,-5,-8,-9,-3,-2,-1,-5,-5
1529258659144207,6,2,1,-1,-2,-6,-3,0
1529258659146202,1,3,0,3,4,-2,0,1
1529258659146202,-4,-6,-6,-6,-2,-3,0,-2
1529258659167146,2,12,13,13,7,6,8,5
1529258659167146,3,3,3,0,0,-1,-3,9
1529258659168144,-2,-1,-7,-7,-7,-7,-2,-6
1529258659168144,0,-6,0,2,11,-3,-5,0
1529258659181109,-3,-5,-7,-1,-10,-11,1,-2
1529258659181109,-1,-2,-1,-1,-1,4,-2,1
1529258659190085,6,4,5,4,2,-3,0,6
1529258659190085,-6,-5,-7,-3,-3,-7,2,-4
1529258659204047,6,5,2,4,3,2,-2,1
1529258659204047,-8,-4,-3,-12,-9,3,1,-1
1529258659206042,-4,0,2,3,1,-2,1,-2
1529258659206042,2,-1,-3,0,-4,-3,1,0
1529258659226986,-2,-2,-3,-1,-1,1,-9,-9
1529258659226986,1,3,3,6,4,-5,2,-1
1529258659228981,1,-2,4,-1,0,2,-3,1
1529258659228981,9,4,-1,2,1,4,8,10
1529258659240949,-12,-8,5,-5,-1,0,-10,-11
1529258659240949,4,2,-8,-1,-2,-8,-2,1
1529258659249925,-8,-8,-5,0,7,17,-1,-4
1529258659249925,10,11,7,5,-3,4,8,8
1529258659264885,2,-1,-1,0,4,-1,4,4
1529258659264885,-3,-2,-3,-4,1,-6,-4,-4
1529258659265882,1,-2,5,11,-1,-3,2,3
1529258659265882,-7,0,3,2,-3,0,-6,-6
1529258659286826,2,-3,-6,1,3,3,2,4
1529258659286826,3,2,6,1,-1,-4,4,2
1529258659288821,-4,-5,-12,-11,-2,0,-5,-4
1529258659288821,6,3,-8,4,3,3,-2,0
1529258659300789,-5,2,9,-3,13,-2,-6,-8
1529258659300789,-7,-4,-2,15,14,3,-2,-2
1529258659309765,2,-2,3,5,-2,-7,-5,2
1529258659309765,-7,-3,-1,-5,-7,-8,-3,-5
1529258659323727,7,3,-5,-5,-3,5,-1,2
1529258659323727,4,5,14,6,-6,-19,0,-1
1529258659331706,-3,3,-1,-11,-5,8,3,0
1529258659331706,-9,-11,-4,-19,1,6,-9,-9
1529258659346666,-2,-2,-10,15,10,1,-5,1
1529258659346666,1,0,2,-4,-6,3,-5,-6
1529258659348662,-3,0,-1,-2,-4,-2,-1,-2
1529258659348662,4,-1,-4,-5,-8,-10,-3,-1
1529258659360629,-3,0,1,-11,-5,-3,-3,-1
1529258659360629,-4,-4,-14,-12,-6,5,3,-1
1529258659369605,8,1,6,11,5,0,1,5
1529258659369605,-1,0,3,-5,-4,4,0,1
1529258659384565,-14,-4,3,-2,11,4,5,-9
1529258659384565,-1,0,-4,4,2,3,0,-2
1529258659386560,0,0,0,12,5,-1,1,0
1529258659386560,2,-1,-3,6,3,0,3,5
1529258659406506,4,1,-1,1,-7,-3,2,1
1529258659406506,-1,-2,-2,-21,-8,-7,0,0
1529258659408501,-4,-7,-13,-18,-12,3,2,-3
1529258659408501,-2,2,8,22,11,2,-2,-1
1529258659420469,8,5,5,8,-8,-13,9,9
1529258659420469,-11,-6,2,-6,-4,0,2,-2
1529258659429445,1,-2,-8,-6,-4,-3,-9,-3
1529258659429445,-2,-3,-5,-15,-7,-4,-2,-6
1529258659444405,5,4,4,13,3,9,-1,3
1529258659444405,1,-1,-8,4,3,6,-3,-1
1529258659446400,1,6,11,4,14,-7,-3,-5
1529258659446400,-4,1,2,6,5,0,0,0
1529258659467343,-1,-7,-9,-7,-6,-5,8,-2
1529258659467343,4,0,-1,-4,-9,-7,6,5
1529258659468341,-3,-5,-5,17,12,-2,-1,2
1529258659468341,0,1,3,-4,-1,4,-1,0
1529258659480309,1,0,2,-27,-8,-12,-7,-3
1529258659480309,2,1,3,20,10,14,7,3
1529258659489285,3,2,2,-14,6,30,0,4
1529258659489285,-10,-11,-11,-19,-8,-6,-10,-10
1529258659504245,-7,-8,-3,12,-6,6,3,0
1529258659504245,0,-1,-6,-21,-10,-4,-2,0
1529258659510229,-1,2,8,-7,-4,-9,-6,-7
1529258659510229,2,6,6,22,7,8,4,1
1529258659527184,2,0,-6,-18,-13,1,-5,0
1529258659527184,-1,-3,-2,23,35,46,-4,1
1529258659528181,0,-2,-1,11,-5,-3,7,0
1529258659528181,-3,-1,-5,-30,-14,-12,0,0
1529258659540149,1,5,2,25,13,-2,7,3
1529258659540149,2,4,7,-4,-12,-14,-3,-4
1529258659549125,-1,-2,-3,-9,0,1,-8,1
1529258659549125,-2,-2,3,2,7,20,-1,1
1529258659564085,-3,-4,-5,-7,-7,41,3,1
1529258659564085,0,-2,-2,2,13,13,-8,-2
1529258659571067,-5,-5,-9,-39,-17,-57,-5,-4
1529258659571067,1,0,-3,21,16,1,9,4
1529258659587023,-3,-3,-3,-22,-14,-16,-9,-3
1529258659587023,-1,0,1,20,11,-15,-9,-6
1529258659589019,-6,-2,-6,-44,-28,-13,2,-1
1529258659589019,3,1,7,62,36,13,-3,-3
1529258659609962,2,1,1,8,9,-7,0,0
1529258659609962,4,-2,-2,-22,-43,-10,-1,0
1529258659611957,-11,-9,-4,35,-14,23,16,4
1529258659611957,1,-6,-6,2,1,-10,-9,-12
1529258659623925,-6,2,-1,-37,-20,2,-21,-5
1529258659623925,2,3,5,27,-3,-11,4,-3
1529258659630906,3,2,4,6,8,22,3,11
1529258659630906,4,0,-1,-22,-12,21,-9,3
1529258659646864,-1,2,1,16,15,-5,-11,-16
1529258659646864,-1,-1,-7,-18,-8,-4,-9,1
1529258659648858,6,1,4,-32,4,-4,17,5
1529258659648858,-18,-6,1,44,13,-19,2,-4
1529258659669802,0,0,-1,-8,-4,-2,4,2
1529258659669802,-1,-4,-1,16,21,10,-5,-3
1529258659670800,0,1,0,18,6,4,4,-1
1529258659670800,12,7,-1,-26,-10,1,6,9
1529258659683765,-7,-3,8,25,48,-15,-1,-2
1529258659683765,-7,-3,4,29,-5,-4,13,-4
1529258659690746,-1,-6,-7,-9,23,21,-10,1
1529258659690746,5,-3,-12,-23,-33,-22,-9,-6
1529258659706704,3,6,3,-9,2,-8,-2,3
1529258659706704,-4,-2,0,-27,9,2,0,-1
1529258659708699,-5,-1,0,12,8,-10,-9,-17
1529258659708699,-6,-3,-6,-34,-4,-8,2,-5
1529258659729642,9,1,1,28,9,17,-16,5
1529258659729642,-3,-6,-7,-25,-20,7,2,0
1529258659730640,-5,5,0,-27,-9,11,0,-6
1529258659730640,-7,-7,-6,11,-8,-7,9,11
1529258659743605,-4,-2,-6,-33,-42,-27,16,1
1529258659743605,-2,-4,-3,-3,5,8,8,1
1529258659750586,7,3,6,31,17,7,-6,2
1529258659750586,-3,0,-1,-31,-31,-4,-1,-11
1529258659766544,-4,-3,-2,11,6,0,3,-2
1529258659766544,3,1,1,-19,-7,-4,-3,1
1529258659768539,10,6,1,-2,-17,-13,-9,0
1529258659768539,-6,-6,-5,-46,-16,-6,0,-3
1529258659789482,-3,-2,-2,7,-17,-10,-5,-6
1529258659789482,-4,-2,1,32,14,-3,2,0
1529258659791478,3,1,-2,-15,-10,-21,5,6
1529258659791478,1,1,-1,-34,-18,-5,5,7
1529258659803445,-14,-6,-6,13,19,10,11,-8
1529258659803445,0,-1,0,5,16,-12,5,4
1529258659810426,-2,1,0,-4,0,-3,1,1
1529258659810426,4,0,3,30,5,-1,-4,2
1529258659827381,-10,-7,-5,-22,-1,-9,2,-4
1529258659827381,-4,-1,-2,12,11,-3,-10,-10
1529258659828379,-1,-3,0,30,15,8,-1,4
1529258659828379,9,9,11,12,2,-6,6,1
1529258659849323,11,3,-2,-25,-17,3,-10,5
1529258659849323,3,-2,-3,2,-14,-3,-11,-2
1529258659851318,-8,-5,-3,5,0,5,-7,-10
1529258659851318,2,1,4,59,48,14,0,-2
1529258659863285,2,1,6,46,-2,0,1,7
1529258659863285,2,1,-2,-30,-18,-37,2,3
1529258659872261,-4,-1,-3,-15,2,3,-11,-7
1529258659872261,0,0,2,19,3,1,0,-5
1529258659887221,4,4,2,-22,-22,1,-4,0
1529258659887221,3,3,5,21,16,3,4,7
1529258659888219,-1,-5,-3,-1,-11,-6,3,2
1529258659888219,-2,-5,-3,-32,-2,-6,-18,-11
1529258659909162,0,-2,-6,4,-6,1,-12,-5
1529258659909162,-5,-3,0,-6,-9,-7,4,-4
1529258659911158,8,4,2,1,-7,1,1,7
1529258659911158,-8,-5,-6,-12,-2,0,0,0
1529258659923125,3,-2,-1,18,18,3,5,4
1529258659923125,-1,5,2,-4,-21,9,4,-3
1529258659932102,-7,-5,-2,-1,5,0,6,-1
1529258659932102,-1,-1,-2,15,14,4,-3,-1
1529258659947061,2,0,1,-2,-8,1,5,-1
1529258659947061,6,5,-1,-4,9,4,-2,6
1529258659949056,-5,-1,1,-2,-11,-3,-3,-3
1529258659949056,-1,-7,-5,36,10,9,-3,-3
1529258659969003,3,1,-2,6,11,11,-2,2
1529258659969003,-13,-3,6,-12,-5,13,5,-5
1529258659970999,6,7,3,20,11,7,-8,2
1529258659970999,-3,-1,-2,-32,-28,-17,-1,-2
1529258659982965,-4,-5,-5,-27,0,-3,2,-1
1529258659982965,0,-4,-2,9,-7,3,-3,0
1529258659991941,1,-1,2,11,-4,-13,0,-3
1529258659991941,3,7,3,-9,-6,-2,4,8
1529258660006901,0,-6,-5,-8,0,-1,2,2
1529258660006901,3,0,-8,-15,-3,1,-2,-2
1529258660008896,-10,0,8,-14,-5,2,4,-4
1529258660008896,6,0,-3,-20,-4,-2,-2,-1
1529258660029840,-5,-1,4,40,19,0,4,-1
1529258660029840,2,-2,-7,-7,-4,-3,-6,-2
1529258660030837,0,-6,-6,1,1,-2,-2,4
1529258660030837,5,3,0,-11,-7,0,5,7
1529258660042805,0,-1,0,-24,-14,-11,-4,0
1529258660042805,3,3,2,6,16,3,-1,0
1529258660051781,-4,1,-3,-4,-3,6,-1,-6
1529258660051781,4,3,6,8,6,-2,9,3
1529258660066741,2,6,3,2,1,0,1,-1
1529258660066741,-10,-5,-2,-17,-10,-5,-3,-5
1529258660068736,-3,-10,-13,15,9,-2,0,-4
1529258660068736,7,6,1,5,2,6,2,8
1529258660089680,-1,2,-2,5,5,-3,-3,-6
1529258660089680,-2,0,10,-16,5,2,-4,-3
1529258660090678,2,1,-2,11,-2,-1,0,0
1529258660090678,-5,-7,-9,-34,-29,-6,-3,-5
1529258660102646,6,0,-6,-34,-23,-15,-3,4
1529258660102646,1,1,0,5,-16,-3,1,1
1529258660112619,-7,-7,0,21,17,1,-1,-6
1529258660112619,-2,0,-2,-1,5,17,-3,-4
1529258660126581,-2,-1,4,13,0,-2,-1,-2
1529258660126581,2,0,-1,-3,4,-2,-1,0
1529258660128576,-6,-2,-9,-37,-16,-6,1,-5
1529258660128576,2,0,13,52,27,0,-1,1
1529258660149520,-10,-3,-4,-3,-4,3,-1,-6
1529258660149520,1,1,0,12,11,4,-2,1
1529258660151515,9,5,2,-1,2,5,2,7
1529258660151515,-7,-6,-7,-12,-3,-1,-3,-4
1529258660163483,19,6,1,10,8,5,1,7
1529258660163483,-19,-9,0,-1,-9,-4,1,-6
1529258660172459,-1,-2,-2,1,8,-2,0,-1
1529258660172459,-2,2,3,12,6,-1,2,-1
1529258660187419,0,-4,-2,1,-3,-1,3,2
1529258660187419,13,5,-5,-7,-4,-2,-11,2
1529258660188416,-1,-8,-12,-8,-6,-4,-2,-4
1529258660188416,3,8,20,16,7,2,4,5
1529258660209360,-5,-1,1,0,1,1,-2,0
1529258660209360,-1,-5,-6,1,2,5,-5,-3
1529258660211355,-3,0,1,-9,-13,-4,2,1
1529258660211355,3,-4,-14,-4,-5,-7,-9,-6
1529258660223323,-6,-3,4,1,-4,2,5,2
1529258660223323,-3,1,0,0,-4,0,4,2
1529258660232299,3,2,0,-3,-3,-6,-3,6
1529258660232299,-1,2,-1,-10,-14,-5,3,3
1529258660247259,-3,-2,-1,-1,3,0,1,-3
1529258660247259,-2,-5,-15,-5,2,23,4,-2
1529258660248257,-4,5,15,37,25,3,-3,-5
1529258660248257,2,2,-4,-15,-1,2,2,4
1529258660269200,-9,-9,-5,-22,-5,0,-8,-3
1529258660269200,3,-1,-3,3,1,3,0,3
1529258660271195,1,-1,-4,-13,-13,-3,0,-5
1529258660271195,-9,-4,-7,-7,-10,-16,2,-3
1529258660283163,-1,-4,-3,-8,0,0,0,-3
1529258660283163,2,0,-3,-14,5,-6,3,3
1529258660292139,0,4,12,17,4,4,-1,1
1529258660292139,-4,-5,-7,-7,3,1,4,-3
1529258660307099,0,-2,-3,14,-3,-1,0,0
1529258660307099,1,-2,-7,-13,-8,-8,8,6
1529258660308096,7,8,10,7,10,-1,-4,-4
1529258660308096,-5,-4,3,2,0,2,-4,-2
1529258660329040,10,5,-1,3,15,3,1,4
1529258660329040,-12,-8,-1,-2,-10,-11,-5,-6
1529258660331035,1,0,-7,-3,-9,1,1,1
1529258660331035,1,2,3,-1,-3,14,-6,-3
1529258660343003,-4,0,0,5,0,1,3,-1
1529258660343003,7,8,6,-2,-7,-8,-1,2
1529258660351979,2,-6,-9,-23,-7,10,5,4
1529258660351979,-3,1,6,-1,-4,-3,-3,-4
1529258660366939,-3,-5,-9,-6,-8,-5,-3,-4
1529258660366939,2,2,0,8,9,2,0,-3
1529258660368934,-4,-4,-3,-26,-15,-6,-1,-2
1529258660368934,0,-2,2,18,3,-24,-2,3
1529258660389877,6,7,5,0,-1,3,0,2
1529258660389877,-3,-1,2,2,1,3,7,2
1529258660390875,2,-6,-6,-9,2,-8,0,-3
1529258660390875,-17,-14,-12,-4,3,0,-3,-10
1529258660402843,0,-2,0,-16,-7,-1,-2,3
1529258660402843,2,-2,-6,3,5,-2,-6,-5
1529258660411819,2,4,10,5,2,2,1,5
1529258660411819,3,3,-3,-3,0,4,-1,-3
1529258660426779,-13,-5,-1,-14,-7,-6,-6,-7
1529258660426779,4,1,2,2,3,-5,1,2
1529258660428774,-1,-2,-1,17,1,-6,0,3
1529258660428774,4,5,1,0,-1,2,3,0
1529258660449717,0,5,3,15,14,15,-2,2
1529258660449717,-1,-4,2,-7,-6,9,-9,-2
1529258660450715,1,-1,-8,19,14,-2,3,1
1529258660450715,3,1,3,2,-3,2,-1,2
1529258660462683,0,0,-6,0,4,-5,-2,-3
1529258660462683,-6,-2,-1,-6,-6,-4,-2,-1
1529258660472656,0,0,0,-4,-5,4,2,-1
1529258660472656,3,-2,-3,-11,-3,6,-5,-4
1529258660486619,-5,-3,-8,-4,-10,-6,4,-4
1529258660486619,-1,0,3,20,15,-3,-4,-1
1529258660493600,-5,-4,-2,-4,-6,-2,-3,-4
1529258660493600,-1,5,3,-16,-7,-4,2,2
1529258660509557,-1,-3,-6,0,2,4,-10,-3
1529258660509557,-2,-1,3,5,-5,-15,23,2
1529258660511552,0,-2,-8,-8,-2,1,-4,-3
1529258660511552,4,2,1,-6,-5,-5,-1,2
1529258660531499,-1,-5,0,-14,-1,-3,2,-1
1529258660531499,0,0,2,13,-1,5,-1,7
1529258660533494,-5,-1,-2,11,10,-6,-4,-5
1529258660533494,0,2,3,-4,3,-3,1,0
1529258660546459,2,1,-5,-16,-18,-21,2,2
1529258660546459,-2,-6,-10,-34,0,-6,-6,-6
1529258660553440,1,5,14,40,-8,-5,3,0
1529258660553440,2,-1,-12,12,16,16,-2,2
1529258660569397,2,8,23,13,0,-4,4,3
1529258660569397,-1,-3,-6,-9,-7,-13,-9,-7
1529258660571393,2,-2,-5,-32,-8,0,-3,1
1529258660571393,0,-3,-6,-14,-14,-1,0,4
1529258660592336,2,-2,0,14,4,15,2,1
1529258660592336,-3,-1,-5,-16,-13,-9,4,0
1529258660593334,-1,-2,5,5,7,16,0,3
1529258660593334,2,1,3,6,-5,-9,-6,-7
1529258660606299,-2,1,-1,-1,-5,-2,-1,-4
1529258660606299,3,-1,-6,-40,-13,-9,-14,-4
1529258660613280,-1,0,-2,19,6,6,5,-1
1529258660613280,-5,-4,-3,-13,-10,-4,5,-1
1529258660629238,-6,-3,-2,9,7,-7,-3,-2
1529258660629238,-1,-1,-5,4,-4,13,-5,-5
1529258660631232,6,1,-1,-8,5,-11,-2,2
1529258660631232,-2,-3,-4,4,-1,-17,5,-3
1529258660652176,-1,-2,-1,-19,-2,5,3,0
