timestamp,emg1,emg2,emg3,emg4,emg5,emg6,emg7,emg8
1526903562558532,-9,3,-4,-5,-1,1,0,-1
1526903562558532,-29,10,-1,-1,-2,-8,-4,-2
1526903562559530,19,2,-4,1,2,8,1,2
1526903562559530,13,1,10,10,2,-4,0,-2
1526903562560527,-9,-1,4,0,0,2,-2,-5
1526903562560527,-17,-11,-12,-7,-2,-5,2,2
1526903562563519,30,15,4,3,2,0,-4,-7
1526903562563519,-85,-20,-3,-9,-1,-2,-2,3
1526903562570504,70,8,-3,14,2,-17,-8,6
1526903562570504,29,-3,0,2,-5,6,0,-3
1526903562580474,12,2,3,7,-1,-4,-1,-2
1526903562580474,-54,0,5,1,3,5,-5,-8
1526903562587459,-8,-10,-4,-8,0,17,6,5
1526903562587459,-18,11,-2,-4,0,-1,-4,-1
1526903562600420,8,-4,-12,-9,-5,-28,0,0
1526903562600420,-6,0,9,4,-1,-2,-5,-3
1526903562612389,43,-8,-4,-7,-4,11,-9,-1
1526903562612389,33,13,0,4,0,1,4,-4
1526903562625354,-8,-14,3,-1,0,7,9,6
1526903562625354,12,5,1,2,-1,-5,-7,0
1526903562632335,-34,-3,0,2,-1,0,-2,-7
1526903562632335,16,4,-4,-3,2,-4,5,6
1526903562645300,26,10,-4,-5,-5,5,1,-1
1526903562645300,13,-4,-3,-2,-2,3,0,2
1526903562687189,20,-1,0,0,0,5,0,5
1526903562687189,12,-11,3,2,-3,-21,-3,-3
1526903562688186,54,9,5,2,2,23,3,4
1526903562688186,-58,0,-6,-1,-2,-13,1,-4
1526903562691177,51,3,-2,-5,-3,4,3,3
1526903562691177,13,-5,2,5,3,-4,-7,0
1526903562693173,-68,-4,3,0,1,12,5,-5
1526903562693173,32,10,1,-2,-1,-3,-9,1
1526903562698159,9,-20,-6,-3,5,1,2,3
1526903562698159,29,7,-2,2,-5,25,23,9
1526903562707135,-11,-2,-1,-1,1,-16,-11,-11
1526903562707135,16,10,7,5,1,6,5,2
1526903562713119,-23,-1,-4,-7,0,-12,-5,-3
1526903562713119,-12,-6,0,-1,1,2,-8,0
1526903562729076,-11,-5,5,5,1,6,-5,1
1526903562729076,13,13,-2,-1,-1,2,5,-6
1526903562735061,-14,-18,-6,-7,-4,-4,1,-4
1526903562735061,-51,-7,0,0,-4,7,-7,-8
1526903562757999,47,7,1,-4,-1,-2,4,9
1526903562757999,-15,-5,-4,-6,-2,-7,-4,0
1526903562758996,16,3,-8,0,-6,-1,-2,-2
1526903562758996,-14,0,2,-4,-1,-8,-1,-3
1526903562772959,11,-13,-4,-2,-2,-9,-4,0
1526903562772959,16,0,0,-6,-1,3,-2,4
1526903562779940,-33,7,2,7,-3,-2,-3,-16
1526903562779940,43,2,8,10,7,4,2,4
1526903562795897,-27,-11,-4,-3,-3,-6,-2,-9
1526903562795897,-15,4,-7,-8,-4,-2,2,0
1526903562796895,-37,-2,-7,-11,-8,-18,-7,-5
1526903562796895,101,8,-1,-4,0,4,0,12
1526903562818836,-92,12,4,17,3,-15,-3,-14
1526903562818836,22,-37,-6,10,3,1,3,15
1526903562818836,13,14,4,3,-1,2,0,-1
1526903562818836,-39,1,0,-9,-5,65,-3,-8
1526903562832799,-4,-1,-10,-24,-9,-8,-2,3
1526903562832799,-21,11,12,13,12,15,-6,-8
1526903562839780,28,-6,-11,6,-11,-27,-3,2
1526903562839780,-46,-14,-4,-12,0,-21,0,-4
1526903562855737,24,-2,-5,-3,-4,8,-2,6
1526903562855737,-7,5,-3,4,-3,2,-2,-6
1526903562856735,-42,-7,5,1,8,5,3,-4
1526903562856735,33,4,-4,-14,0,-15,-5,4
1526903562878676,-22,3,3,21,3,-3,2,-4
1526903562878676,33,-3,-12,-30,-8,-14,-2,3
1526903562879674,-36,5,7,-13,2,14,6,-5
1526903562879674,47,-4,11,33,6,-12,2,4
1526903562892639,-6,-8,-5,4,3,5,-4,-9
1526903562892639,26,5,-3,-11,-1,-9,1,2
1526903562900617,9,4,7,12,-2,5,0,1
1526903562900617,-7,2,-4,-23,-8,-18,-7,-1
1526903562915578,31,-1,-10,-2,5,-9,1,4
1526903562915578,-30,-4,1,-13,1,10,8,-6
1526903562916575,-49,8,1,-1,0,-1,2,-3
1526903562916575,25,-5,-11,9,-4,-9,-5,-2
1526903562938516,28,1,3,7,0,-12,-2,2
1526903562938516,-40,0,-2,-11,-7,2,0,-2
1526903562939514,10,-1,0,-5,4,14,-2,5
1526903562939514,-55,-6,-5,-3,-7,-33,1,-7
1526903562952479,12,5,-4,-26,-3,16,4,7
1526903562952479,9,1,7,12,-1,0,-1,-2
1526903562960458,46,2,-12,3,-10,-18,-4,-4
1526903562960458,-40,-3,4,10,14,20,-7,0
1526903562975418,12,6,2,-2,-5,8,-2,4
1526903562975418,10,3,-3,-6,-1,8,6,-9
1526903562976415,-13,-20,-8,-25,-9,5,-8,-1
1526903562976415,-2,3,2,28,1,1,14,1
1526903562998356,44,2,-1,-9,0,39,3,1
1526903562998356,-60,0,1,15,6,-40,-1,-3
1526903562999354,75,12,3,-10,-7,-13,10,14
1526903562999354,8,-15,-2,-16,3,15,-11,-6
1526903563012319,-44,2,7,6,-1,-3,-5,-3
1526903563012319,4,-9,-11,10,-6,2,5,-4
1526903563020297,-75,2,6,4,10,1,-14,-4
1526903563020297,27,1,-8,-12,-7,-6,0,-2
1526903563037252,-44,-5,0,19,-3,-19,-1,-1
1526903563037252,26,-20,-7,-18,-2,9,0,3
1526903563038250,15,11,7,26,7,-25,2,4
1526903563038250,10,2,-3,-7,-8,25,-2,6
1526903563058196,-53,-8,0,-10,-5,-18,-2,-7
1526903563058196,28,12,-1,2,3,3,-2,5
1526903563059194,-14,0,-3,0,-4,2,1,-1
1526903563059194,-17,-9,3,4,1,-13,-2,4
1526903563073156,34,5,2,3,8,-18,0,0
1526903563073156,-20,5,-1,-1,-5,12,-3,1
1526903563080138,56,3,5,0,4,8,-5,2
1526903563080138,-24,3,9,0,2,-15,2,1
1526903563096094,37,-21,-20,-25,-12,9,1,-4
1526903563096094,-17,4,-1,-8,-5,-29,-13,-9
1526903563097092,12,1,4,32,10,11,3,4
1526903563097092,-23,0,2,16,1,1,0,-4
1526903563118036,5,4,7,21,5,-10,-6,-2
1526903563118036,28,-1,-8,-21,-10,-13,-2,-3
1526903563119034,-24,2,-3,-19,12,15,9,5
1526903563119034,63,2,2,19,4,-22,6,-10
1526903563140975,43,0,-1,-5,-1,11,-2,-2
1526903563140975,-59,-14,0,6,3,3,-8,-7
1526903563141972,-7,2,-2,-14,-7,-3,2,3
1526903563141972,-25,1,2,-7,3,12,0,5
1526903563155935,23,10,2,-10,0,-5,0,1
1526903563155935,18,-5,-3,17,1,7,-4,-6
1526903563156932,-4,-8,0,8,0,4,-3,2
1526903563156932,-9,5,1,-10,-2,0,3,-1
1526903563178873,-41,-1,-1,-2,-7,0,0,-9
1526903563178873,40,3,2,1,1,0,0,6
1526903563178873,-16,-6,3,7,-3,8,-7,-4
1526903563178873,7,1,-8,-14,-3,-14,-15,-1
1526903563200814,14,10,5,3,2,4,4,6
1526903563200814,13,-8,-2,-1,-4,1,8,4
1526903563201812,-8,-3,4,10,7,-14,5,-4
1526903563201812,-3,-1,-7,2,-7,34,-9,-6
1526903563215774,-20,4,1,-10,-1,1,-2,3
1526903563215774,4,8,3,2,-2,-6,1,-1
1526903563216772,-65,-5,-2,-10,-6,-20,-22,-9
1526903563216772,47,2,5,-1,3,6,11,3
1526903563238713,14,2,-11,-6,-4,6,2,4
1526903563238713,-19,-5,4,17,5,2,0,0
1526903563239711,15,-6,-3,3,-7,1,3,-5
1526903563239711,-42,1,-2,-9,-4,6,-5,-2
1526903563260655,2,-3,5,17,9,18,5,1
1526903563260655,22,6,-4,-5,-3,-11,-3,-2
1526903563261652,33,-8,0,-4,-1,3,4,-1
1526903563261652,-33,-4,-11,-4,-4,-13,-8,-9
1526903563275615,39,2,4,1,-1,-21,3,7
1526903563275615,-45,4,2,-3,-2,5,-9,-3
1526903563276612,-39,-3,10,9,0,10,5,2
1526903563276612,16,-6,-26,-22,-9,-9,-6,-3
1526903563298554,-37,8,-1,-6,-3,-8,-7,-2
1526903563298554,-10,-15,-1,6,9,5,4,-2
1526903563299551,47,8,-4,-14,-7,3,-2,3
1526903563299551,-30,-5,9,20,5,-13,6,5
1526903563320495,-28,-7,-5,0,3,21,1,-7
1526903563320495,14,5,3,7,-5,-34,0,5
1526903563321492,22,5,-5,-5,-5,-7,6,0
1526903563321492,-15,-8,0,-1,-2,1,-5,-1
1526903563335455,-4,0,0,-7,-3,-14,0,-1
1526903563335455,-5,0,4,-1,1,35,2,0
1526903563336452,-10,-8,-9,-2,-2,-1,0,-7
1526903563336452,49,12,5,-3,-3,-17,2,6
1526903563358393,-45,-5,4,7,-2,-5,-3,-4
1526903563358393,19,-4,-15,-14,-8,-8,-10,-9
1526903563359391,-38,-3,0,1,0,4,-5,-3
1526903563359391,-6,-6,4,-1,6,12,-2,2
1526903563381332,22,-2,-6,-5,-3,-10,3,2
1526903563381332,-28,4,6,2,3,13,3,-3
1526903563381332,43,-3,-11,-7,-6,-7,-11,-3
1526903563381332,-20,-1,5,1,0,-10,2,0
1526903563396292,29,-3,-2,0,-4,8,-3,4
1526903563396292,14,18,1,-2,0,1,4,-4
1526903563396292,-17,-22,-3,-1,0,10,5,11
1526903563396292,10,7,4,-4,2,-5,1,-6
1526903563418234,13,-5,-8,-2,-2,-7,-4,-5
1526903563418234,-20,1,-1,-11,-3,-20,0,-7
1526903563419232,1,0,5,-6,0,27,-1,1
1526903563419232,-18,3,-2,14,3,4,1,2
1526903563441172,-2,-5,5,-8,4,48,-1,-5
1526903563441172,8,9,-3,15,-8,-30,2,2
1526903563442169,-19,0,-3,-11,0,-9,-5,-8
1526903563442169,-31,-7,0,-6,-2,1,0,-1
1526903563456132,-8,15,4,3,-1,2,-3,-5
1526903563456132,41,-21,-2,1,7,17,0,9
1526903563457131,-18,0,-2,4,-1,-10,-2,-9
1526903563457131,1,0,-1,1,-2,6,-1,-2
1526903563478073,-9,-4,-6,1,-5,-19,-1,1
1526903563478073,-15,6,-3,-5,-3,5,-3,0
1526903563479071,8,2,-4,1,1,-5,-1,1
1526903563479071,-13,-2,4,1,4,3,0,-3
1526903563501012,15,-7,-7,-7,-4,-13,0,2
1526903563501012,-14,2,3,-2,-2,-4,-2,-3
1526903563502010,20,2,-4,-14,-7,18,-2,1
1526903563502010,18,1,-5,-23,-4,-18,-2,2
1526903563515973,-21,-9,7,47,14,-7,1,-1
1526903563515973,-4,-1,-1,-4,-3,32,-2,-1
1526903563516970,21,8,1,16,4,37,-6,-7
1526903563516970,34,-4,1,-20,-2,-10,3,6
1526903563538912,-32,-1,-7,-15,-13,-13,-4,-3
1526903563538912,13,-2,0,-2,5,5,0,-1
1526903563538912,12,10,1,0,-3,-34,-3,-4
1526903563538912,-39,-7,2,4,2,14,6,0
1526903563560852,33,0,-3,-7,-1,6,-3,0
1526903563560852,35,0,-1,2,2,5,-3,3
1526903563561849,-44,3,7,3,3,-5,4,5
1526903563561849,22,-4,-5,7,-4,3,-2,-2
1526903563575815,-13,4,2,-3,1,-8,-1,-5
1526903563575815,40,-9,-3,-1,-4,-3,1,11
1526903563576809,-25,-2,3,3,5,-2,4,0
1526903563576809,0,-1,-2,-6,-8,-3,-5,-9
1526903563598751,-22,2,6,-7,-1,-2,-5,-4
1526903563598751,-9,6,4,12,5,6,-2,-2
1526903563598751,2,-5,-4,4,-1,-1,-2,-3
1526903563598751,-16,9,2,8,3,2,5,1
1526903563620692,15,-10,-2,-9,-5,-7,-6,2
1526903563620692,-26,8,0,-5,-2,-11,-5,-9
1526903563621690,11,-18,-8,-8,-5,-5,4,3
1526903563621690,14,5,0,1,-1,3,-4,0
1526903563635652,-10,-1,1,8,4,0,4,-2
1526903563635652,-41,11,3,1,-1,0,3,11
1526903563642633,29,-14,-7,0,0,-5,-6,-3
1526903563642633,7,1,-4,-5,-1,-4,-2,-4
1526903563657593,28,1,-3,-4,-3,1,-1,-1
1526903563657593,-36,-7,5,5,4,-2,2,-2
1526903563665572,24,10,6,3,0,-6,1,-6
1526903563665572,52,0,-4,0,-3,7,-2,13
1526903563680532,-24,2,-7,-3,0,4,-1,-9
1526903563680532,-3,-29,-10,-12,-5,-4,2,1
1526903563681531,-2,9,6,1,0,-13,-3,2
1526903563681531,29,5,-2,2,2,-4,-5,-2
1526903563703471,-3,6,0,0,0,3,5,7
1526903563703471,10,-1,-4,-5,-1,3,-3,-9
1526903563704468,-4,-9,-3,1,0,-3,4,-1
1526903563704468,-49,-2,3,3,3,8,-1,-4
1526903563726409,21,3,6,-1,1,-8,3,7
1526903563726409,28,1,-7,-9,-10,-3,-6,-1
1526903563727407,-23,0,-1,-1,0,-6,-3,-4
1526903563727407,-7,2,-1,-2,-2,-2,-2,-4
1526903563741369,-3,-1,-4,-4,3,-3,1,7
1526903563741369,42,-4,5,10,5,-2,2,1
1526903563741369,-11,6,0,-8,-1,2,0,1
1526903563741369,-11,5,-3,-15,-5,-4,-5,-1
1526903563763310,-11,-11,2,21,0,3,0,2
1526903563763310,-2,-5,-6,-2,-1,-4,1,-2
1526903563764308,40,7,4,-4,-2,1,1,4
1526903563764308,-5,-4,0,-10,3,5,1,-2
1526903563786249,7,3,-6,6,-2,-9,-5,-5
1526903563786249,-2,10,7,0,1,-13,3,-3
1526903563787246,-17,-20,4,3,4,14,4,6
1526903563787246,41,7,-10,-8,-7,-2,-6,-1
1526903563801209,-19,-14,-6,-9,-3,-10,-3,-13
1526903563801209,-50,-2,-1,0,0,45,-5,-6
1526903563802207,-3,5,1,3,0,-11,-9,-2
1526903563802207,-9,0,6,20,6,-8,8,2
1526903563823151,-16,3,-2,-8,-4,-8,6,-2
1526903563823151,-9,-1,-4,6,-2,-11,-3,-10
1526903563824148,-4,2,-2,-10,-3,0,-1,2
1526903563824148,45,-14,-2,7,2,9,-1,6
1526903563846089,-19,4,-1,3,-2,-2,-4,-1
1526903563846089,4,1,9,-14,0,-1,2,2
1526903563847086,17,3,-4,4,-6,-2,2,0
1526903563847086,-32,0,-3,22,6,-9,-11,-6
1526903563861049,31,3,7,-8,-1,4,-1,2
1526903563861049,-22,-11,-8,-4,-4,-3,-6,1
1526903563862046,4,2,-1,-3,-3,-4,1,-1
1526903563862046,-16,3,-1,-8,-2,-4,3,-4
1526903563882990,7,-2,-3,1,2,16,-2,-2
1526903563882990,9,-4,1,7,-1,-14,-2,4
1526903563883988,9,6,-1,-5,3,-11,0,-4
1526903563883988,-7,-3,1,-2,-5,28,-1,1
1526903563905929,15,3,-3,1,-1,-8,-1,-8
1526903563905929,0,0,3,2,-2,-7,-1,2
1526903563906927,2,3,0,-10,1,2,-2,0
1526903563906927,-26,-6,0,12,3,-10,0,-1
1526903563920889,-4,4,-6,-18,-7,-9,-8,1
1526903563920889,19,3,-1,13,-3,0,4,3
1526903563921886,-25,-2,-4,-13,-4,-21,-8,-5
1526903563921886,-45,1,6,21,10,23,6,-9
1526903563943827,49,-5,2,4,3,7,4,7
1526903563943827,-9,0,-6,-16,3,-6,1,-1
1526903563943827,-1,3,6,5,-1,10,0,5
1526903563943827,-1,-2,-4,-12,-2,-8,7,-1
1526903563965769,-26,0,-2,-7,1,-6,0,-2
1526903563965769,25,11,4,-1,1,-23,-6,8
1526903563966767,-51,-12,-6,-2,0,18,4,-15
1526903563966767,26,6,2,-3,-4,-6,-4,4
1526903563980729,-24,-8,-1,3,1,-11,4,4
1526903563980729,-4,-2,1,-3,-1,48,1,-6
1526903563981726,-14,1,3,15,-3,-19,-6,2
1526903563981726,-10,2,-4,-9,0,13,5,0
1526903564003668,21,9,-3,0,-2,-6,-1,3
1526903564003668,8,1,4,3,-4,-6,-2,-1
1526903564004665,39,-13,-9,-4,-4,-2,5,6
1526903564004665,-19,-1,2,-12,-6,-10,-5,-5
1526903564025609,10,12,8,16,5,17,2,3
1526903564025609,3,-8,-6,-28,-5,-22,-11,0
1526903564026607,-28,-1,4,36,8,-1,-1,-8
1526903564026607,47,6,-10,-30,-28,-14,-9,6
1526903564040569,-24,-15,1,34,19,10,3,-2
1526903564040569,6,2,-3,0,1,-14,2,0
1526903564041567,27,1,0,-18,-12,-3,-4,-2
1526903564041567,2,-4,4,16,18,-2,3,-1
1526903564063508,-29,-2,-5,-16,-18,0,0,2
1526903564063508,-29,-3,3,10,1,0,3,-8
1526903564064505,36,17,-3,-23,-9,17,-20,1
1526903564064505,-10,-24,-2,3,2,-10,3,8
1526903564085449,19,1,-6,-15,-9,-3,6,-7
1526903564085449,-15,-1,5,19,12,5,5,4
1526903564086446,6,1,-1,-1,0,1,-1,3
1526903564086446,3,7,6,3,-2,7,3,3
1526903564100409,-8,0,-11,-5,-2,-2,-6,-6
1526903564100409,-13,-4,-5,-11,-7,-1,-7,-5
1526903564101406,4,4,6,10,4,-6,4,6
1526903564101406,13,-8,-5,1,-2,-3,4,1
1526903564123348,23,-7,0,-16,-2,4,-4,2
1526903564123348,8,0,0,-6,-2,4,-2,-5
1526903564124345,-38,-4,-5,11,8,3,1,-2
1526903564124345,29,10,-1,-27,-7,-7,-7,-1
1526903564146286,-19,-4,-1,42,1,-12,6,-2
1526903564146286,13,12,-3,-9,-10,1,-4,4
1526903564146286,-6,-21,0,11,6,-1,9,-1
1526903564146286,-44,1,-2,-14,-4,8,-7,-11
1526903564161246,-6,2,0,-8,-2,-2,-6,-2
1526903564161246,5,0,-3,-3,1,16,-5,-3
1526903564161246,14,6,2,-5,-5,0,7,7
1526903564161246,-28,9,-1,14,3,11,9,-1
1526903564183187,14,-17,-3,-18,-4,-2,-14,2
1526903564183187,-3,2,4,12,8,1,8,3
1526903564184185,-1,-1,-6,-12,-3,24,-6,-5
1526903564184185,-26,5,11,13,7,-15,-12,-15
1526903564206126,47,4,2,-4,-3,-24,-2,6
1526903564206126,11,-4,-4,-3,-5,-8,0,3
1526903564207124,-10,0,5,6,1,-9,0,-3
1526903564207124,-5,-4,-5,0,2,7,2,1
1526903564220089,-41,2,-2,-7,-4,-12,0,-8
1526903564220089,47,0,0,8,-1,-4,1,4
1526903564228068,10,-5,1,1,1,-3,-3,-3
1526903564228068,42,7,-2,-3,-9,2,-6,-1
1526903564243027,-22,-6,-5,-14,0,-21,-1,1
1526903564243027,-13,-3,1,10,4,17,4,-1
1526903564244025,-10,-6,-4,1,2,-6,11,2
1526903564244025,5,4,-1,1,0,-1,-3,-8
1526903564265966,0,2,4,-4,2,1,-6,3
1526903564265966,25,-1,-2,-5,0,-2,-6,1
1526903564266964,-29,-3,-11,-12,-7,-4,-3,-3
1526903564266964,2,-12,-6,-12,4,1,5,4
1526903564280926,-9,19,10,12,-1,6,2,0
1526903564280926,-6,-16,-6,-6,0,-8,1,0
1526903564281924,33,4,1,2,-5,-11,-7,3
1526903564281924,13,-10,-4,5,1,8,7,3
1526903564303865,-27,1,-7,-11,-1,23,-3,-9
1526903564303865,10,1,5,0,-4,-6,2,1
1526903564303865,-14,-2,2,3,2,-8,2,3
1526903564303865,-6,-2,-5,-2,-3,-12,-10,-1
1526903564325807,-1,-1,-2,-2,1,-6,3,-1
1526903564325807,30,7,2,7,-1,-10,-6,-4
1526903564326804,4,6,2,-1,1,9,-5,2
1526903564326804,1,-9,1,3,-1,-12,2,-2
1526903564340766,9,3,-5,-3,-4,-8,-1,-2
1526903564340766,-43,0,1,7,1,-4,-6,-10
1526903564341764,-7,-1,-2,-2,-1,-6,-2,-1
1526903564341764,-36,-5,1,0,0,8,5,1
1526903564363704,51,2,0,-7,-4,-6,-1,0
1526903564363704,-36,0,1,1,3,1,-1,-3
1526903564364702,-15,1,1,10,6,30,1,-4
1526903564364702,34,-4,-4,-2,-3,-19,-2,4
1526903564385646,-48,0,-1,0,-3,16,0,-5
1526903564385646,16,-5,-7,-14,-4,-7,1,2
1526903564386644,35,4,4,2,-3,-4,-6,-5
1526903564386644,-32,0,-1,1,-1,2,1,3
1526903564400606,4,1,-2,-6,1,10,-1,4
1526903564400606,2,0,6,11,3,-1,4,2
1526903564408585,15,-2,-1,-1,-2,-10,-1,-2
1526903564408585,-55,8,0,-1,-1,-9,-6,-5
1526903564423545,73,-14,-5,0,2,24,4,6
1526903564423545,-26,0,0,1,-2,10,5,-2
1526903564424542,9,-1,0,-5,1,-3,3,1
1526903564424542,-13,0,0,-2,-4,-4,-6,-6
1526903564445486,-29,11,2,2,0,-6,-11,-8
1526903564445486,-31,-22,-8,10,5,15,8,4
1526903564446484,2,0,0,6,3,4,0,-2
1526903564446484,1,5,-2,-1,-6,-6,-2,1
1526903564460446,29,10,10,1,5,3,-2,6
1526903564460446,3,9,-3,-11,-9,-8,0,-5
1526903564468425,-53,-15,-5,-4,2,-5,3,-1
1526903564468425,19,-3,-4,-2,-2,39,-1,-1
1526903564483385,12,2,0,1,-3,-7,1,-1
1526903564483385,-75,9,1,-4,-3,-12,-7,-2
1526903564484382,53,-6,2,-3,-2,0,-1,1
1526903564484382,9,7,-1,0,2,-3,3,0
1526903564506323,-25,1,1,0,-2,4,-3,-5
1526903564506323,-16,-13,-5,-3,-3,-5,-1,2
1526903564506323,-15,3,0,1,1,-7,-4,0
1526903564506323,17,2,3,2,0,0,1,4
1526903564520286,-36,0,-1,2,0,-4,-3,-2
1526903564520286,50,-5,-5,-4,-3,-1,-3,-1
1526903564528265,2,6,0,3,-1,-2,0,8
1526903564528265,-22,-3,0,-6,-1,-10,0,-10
1526903564543225,-12,-6,-2,6,1,7,7,-2
1526903564543225,28,5,-1,17,-3,-12,-3,-2
1526903564544222,-16,-8,-7,4,-3,8,-2,-4
1526903564544222,37,0,-1,0,2,-10,-2,0
1526903564566163,21,-2,2,-9,-7,-3,0,1
1526903564566163,8,0,6,-8,1,20,0,6
1526903564567161,-4,-3,-5,0,-3,-6,0,-4
1526903564567161,-17,5,-3,-6,-4,-3,-3,0
1526903564580126,33,-2,-2,0,1,2,1,0
1526903564580126,-31,-6,1,-1,1,-8,-7,-7
1526903564588104,53,8,3,-5,-4,-7,-5,4
1526903564588104,-20,-12,-3,-2,2,3,1,0
1526903564603065,-3,-5,-2,0,0,-4,1,3
1526903564603065,4,7,-3,-4,-1,1,-4,-6
1526903564604062,4,-4,-2,-4,-1,-3,0,0
1526903564604062,2,-7,0,4,0,-1,3,4
1526903564626003,-3,-4,-6,-3,-3,-3,-4,-7
1526903564626003,-9,0,-2,-5,-1,-9,0,-3
1526903564627001,-26,0,2,-1,0,14,2,-2
1526903564627001,43,-1,-1,1,1,1,0,2
1526903564639966,-38,5,3,3,0,-4,-1,-3
1526903564639966,8,2,-8,-8,-3,-2,1,0
1526903564648942,38,-7,0,-6,-6,-14,-7,0
1526903564648942,-15,2,-1,-6,2,-31,-3,-6
1526903564662904,-29,2,1,11,4,18,6,3
1526903564662904,-3,-10,0,3,-2,-3,2,-6
1526903564663902,22,2,-6,-6,-1,0,-3,6
1526903564663902,21,-5,-3,-4,-2,-10,-1,-4
1526903564685843,22,5,-4,-10,-5,-7,-4,2
1526903564685843,-35,-1,5,2,1,1,-1,0
1526903564686841,-11,4,-2,-3,-2,-2,0,-3
1526903564686841,-9,-6,-1,0,0,12,0,0
1526903564708782,26,-4,0,-2,0,-4,2,1
1526903564708782,23,5,0,-3,0,2,-1,4
1526903564709779,-14,5,2,2,3,3,-1,-4
1526903564709779,-11,-1,2,3,-1,6,-1,2
1526903564723742,9,13,8,4,0,2,1,-1
1526903564723742,-37,-17,-10,-14,-5,-10,-4,-2
1526903564724739,-3,-6,-4,9,2,-3,-3,-3
1526903564724739,-14,3,5,14,4,11,4,-1
1526903564745683,-22,-7,-4,3,-1,2,-3,-7
1526903564745683,14,8,4,1,1,13,4,6
1526903564746681,24,-3,-4,-12,-5,-9,2,-3
1526903564746681,-23,0,-2,-2,-4,5,-12,-1
1526903564768622,-4,-7,-1,-2,-2,-7,0,0
1526903564768622,32,5,-3,-3,1,-1,-6,3
1526903564769619,-7,-5,-1,1,0,-1,-1,-8
1526903564769619,-27,1,0,1,0,0,2,-3
1526903564783582,65,4,-7,-10,-1,16,2,7
1526903564783582,-39,-10,-4,-5,-2,-6,-1,-8
1526903564784579,-26,-3,6,-3,-1,2,2,2
1526903564784579,11,0,-4,7,0,-10,-2,-9
1526903564805523,-23,-14,-4,1,2,-3,-1,1
1526903564805523,-2,5,0,4,1,-27,1,0
1526903564806521,-3,6,1,-6,-7,1,2,1
1526903564806521,50,5,0,-16,-2,-6,-10,0
1526903564829459,-41,-9,-3,6,-2,15,0,0
1526903564829459,8,2,5,9,3,-7,1,1
1526903564829459,-8,-6,-9,-8,-4,-7,-9,-10
1526903564829459,-31,6,1,-3,0,2,3,-1
1526903564843422,52,12,-2,-15,-5,-3,-3,-5
1526903564843422,10,-22,3,32,6,5,0,7
1526903564844419,-26,-1,0,-1,0,2,-1,0
1526903564844419,10,2,-4,-1,-5,13,4,0
1526903564866360,-12,-2,6,4,-3,-14,2,-1
1526903564866360,46,4,-2,-15,-3,23,-14,-4
1526903564866360,1,1,3,7,7,10,3,3
1526903564866360,18,3,-2,3,4,7,-1,1
1526903564889299,-41,-9,1,-8,-5,-12,-1,-5
1526903564889299,51,7,4,-1,8,49,7,4
1526903564890296,-30,-2,-4,-3,-6,-55,1,-1
1526903564890296,5,3,3,-3,-2,6,-4,-3
1526903564903262,-14,-4,-9,-5,-4,-3,-7,-5
1526903564903262,-16,2,-2,0,0,-7,0,1
1526903564904259,16,2,1,-1,3,12,-4,1
1526903564904259,-16,-7,-5,3,-3,-8,4,-1
1526903564926200,-21,-4,-2,-4,4,-5,0,-5
1526903564926200,87,8,2,-10,-6,0,3,5
1526903564927198,-16,-4,2,-6,3,10,0,-1
1526903564927198,-36,-12,-17,6,-6,-38,-9,-2
1526903564949139,17,-4,2,3,-4,11,1,0
1526903564949139,-35,-1,3,-5,2,6,-7,-10
1526903564950137,11,5,3,-11,-3,7,10,-1
1526903564950137,23,-2,1,2,2,18,14,7
1526903564963101,-18,6,0,12,3,-9,-15,-1
1526903564963101,-34,-5,-2,-6,-5,27,2,2
1526903564964099,20,-2,-1,0,-3,-40,-3,-1
1526903564964099,14,-3,3,-3,1,34,-9,1
1526903564986040,11,10,0,-4,-3,-23,8,5
1526903564986040,33,3,2,6,1,5,-6,-1
1526903564987038,-35,-19,-4,5,4,19,-2,-9
1526903564987038,9,8,3,0,1,-9,7,2
1526903565007982,51,-3,-3,-4,0,0,-2,0
1526903565007982,-2,4,0,1,-2,-10,-1,0
1526903565008979,-19,-5,-1,-6,-3,-16,-2,-1
1526903565008979,-7,-5,-2,3,-1,-13,-3,0
1526903565022942,7,4,1,0,1,8,1,1
1526903565022942,-29,-9,-5,-6,-4,-20,6,0
1526903565023939,10,12,6,13,6,30,-7,1
1526903565023939,-18,-8,-6,-22,-10,-8,4,-3
1526903565045880,-21,-11,-7,-12,7,20,-1,2
1526903565045880,-20,1,3,32,13,-22,11,-5
1526903565046878,-2,3,-2,-15,-11,44,-10,2
1526903565046878,9,9,3,15,7,10,3,5
1526903565068819,-44,-8,-4,-12,-10,-12,-8,-6
1526903565068819,33,-2,-1,0,0,-24,0,1
1526903565068819,16,-2,-5,1,-2,3,-2,-3
1526903565068819,-36,3,0,-9,-3,-13,-9,-2
1526903565083779,12,-11,0,-5,1,13,18,2
1526903565083779,-63,-3,-1,4,-4,-8,-18,-15
1526903565084777,7,11,3,19,6,8,6,11
1526903565084777,-20,-11,-2,-10,-4,-9,-7,-3
1526903565105720,-2,6,-1,7,3,-6,-1,-2
1526903565105720,15,2,-2,-12,-6,-6,-2,1
1526903565106718,-9,-6,-1,-4,-3,-14,3,-1
1526903565106718,-21,1,3,2,1,10,-2,-2
1526903565128659,34,8,0,-2,-4,7,4,5
1526903565128659,37,-7,-2,-14,0,-1,7,6
1526903565129656,-20,-5,-2,17,0,-8,-11,-2
1526903565129656,77,9,2,-7,-4,2,8,6
1526903565143619,-28,-7,-2,9,4,-6,-2,-5
1526903565143619,6,1,1,-5,-5,45,5,7
1526903565144617,-16,0,-4,-6,1,-31,-4,-7
1526903565144617,13,-4,-1,1,-2,33,9,-5
1526903565165560,-9,7,5,-1,1,-19,-19,-6
1526903565165560,-19,-3,1,-2,-3,-14,-2,-2
1526903565166558,23,-3,-1,-6,-1,-2,1,3
1526903565166558,19,14,0,1,4,-14,-9,0
1526903565188499,-65,-24,-7,3,-4,-5,5,-4
1526903565188499,-9,8,5,5,3,-7,-14,-6
1526903565189497,7,-2,-2,-4,-2,2,0,0
1526903565189497,11,-2,-2,-3,-1,-21,1,-2
1526903565203459,-9,1,-3,2,-2,-1,-3,4
1526903565203459,-7,-2,0,-7,-6,-7,-5,0
1526903565204456,-39,-5,-5,-8,-5,-21,2,-5
1526903565204456,26,7,7,15,5,-16,-7,-2
1526903565226398,-18,-1,-11,-2,-4,45,-3,-8
1526903565226398,21,-6,-2,0,-2,-7,1,5
1526903565226398,0,-9,-3,7,0,10,4,2
1526903565226398,-50,-1,-1,-2,-2,-19,-11,-7
1526903565249336,47,7,3,-3,0,19,2,2
1526903565249336,-10,-7,-10,-12,-6,-9,2,0
1526903565249336,21,1,0,-11,1,23,-3,1
1526903565249336,-9,0,5,39,4,-31,2,0
1526903565263299,24,5,0,0,-5,8,12,0
1526903565263299,-11,-10,-8,-10,-1,4,-11,-2
1526903565264296,16,1,1,0,1,-11,3,1
1526903565264296,11,-5,-7,-16,-6,20,-2,3
1526903565286237,-31,6,5,-2,4,-19,-1,-1
1526903565286237,10,-6,1,6,0,-14,4,-1
1526903565287235,-29,-3,3,5,-3,6,-1,-5
1526903565287235,-12,2,-14,-21,-5,-10,-4,-10
1526903565308179,19,-1,3,8,1,-18,-10,15
1526903565308179,-3,-3,1,-2,1,9,0,-10
1526903565309176,5,11,1,3,2,15,-6,1
1526903565309176,18,-7,2,-6,0,10,7,5
1526903565323139,4,-3,-5,2,-2,-13,0,-1
1526903565323139,-31,-2,-10,-13,-5,-11,-10,-5
1526903565331117,29,4,2,8,6,7,2,0
1526903565331117,-6,1,3,8,1,17,3,-2
1526903565346078,8,2,6,1,3,-16,-1,1
1526903565346078,-52,-5,1,-1,-4,2,4,0
1526903565347075,4,-3,-5,-12,-7,-9,-3,0
1526903565347075,22,0,-2,-13,-1,3,1,3
1526903565368019,-62,-2,1,15,0,-7,-4,-10
1526903565368019,52,10,0,-1,-1,-8,7,3
1526903565369016,-14,-8,-3,-4,3,17,-8,-3
1526903565369016,-30,-1,1,1,-5,-37,-4,-2
1526903565382979,13,-1,-3,-9,-3,4,4,1
1526903565382979,19,3,5,7,3,3,3,6
1526903565390957,3,0,-1,-1,0,-3,-7,-1
1526903565390957,-20,-6,1,1,1,11,-2,-3
1526903565405917,5,-5,-4,-6,-2,-1,0,-5
1526903565405917,15,2,-2,2,-1,4,5,4
1526903565406915,-7,3,3,1,-3,-25,3,3
1526903565406915,-14,-3,-5,-6,-1,6,-4,-7
1526903565428856,13,1,3,-1,-1,-3,-2,0
1526903565428856,-3,-4,-4,-3,-2,2,-1,-7
1526903565428856,-18,-5,3,7,0,-7,9,1
1526903565428856,-18,6,-4,-5,1,22,4,-2
1526903565442819,21,-3,-7,0,-3,1,-5,-1
1526903565442819,-55,-5,-1,-1,0,3,3,-1
1526903565450798,17,3,1,-7,1,-18,-2,-3
1526903565450798,13,2,0,10,-1,-17,-3,1
1526903565465758,-9,-2,2,5,5,-9,1,5
1526903565465758,26,1,3,17,1,3,4,0
1526903565466755,-20,13,-4,-12,-2,10,2,-7
1526903565466755,31,-20,-1,-7,1,4,0,4
1526903565488696,18,-4,-4,-9,-6,0,-1,-1
1526903565488696,5,8,5,-1,1,-11,-5,-1
1526903565489694,-7,5,0,4,-3,-11,2,-5
1526903565489694,-1,-9,-7,-5,-3,8,-1,4
1526903565502659,-12,5,1,-4,-1,-3,0,0
1526903565502659,38,-3,-1,0,-2,2,-3,2
1526903565510637,-19,-2,-1,3,-1,7,-1,-3
1526903565510637,14,3,-2,-2,-3,0,-4,-5
1526903565525597,-16,-6,2,2,3,-6,2,-1
1526903565525597,-12,7,5,3,3,3,-2,0
1526903565526595,27,-6,-3,2,-2,4,-2,-2
1526903565526595,11,3,2,-1,-1,-7,1,1
1526903565548536,-27,-11,-3,-5,-2,1,1,-2
1526903565548536,-1,3,3,10,1,2,1,2
1526903565549534,7,4,2,-1,5,10,1,1
1526903565549534,-24,2,-7,-4,-2,4,-7,-8
1526903565564494,20,-4,-5,-4,-4,-11,-2,5
1526903565564494,26,-5,-1,-12,-5,4,-1,-2
1526903565570477,-15,-9,0,11,1,-7,-6,0
1526903565570477,8,6,-2,-5,-5,6,2,1
1526903565586435,25,5,4,7,1,5,0,-5
1526903565586435,-26,-4,-1,-4,1,-17,-5,-2
1526903565586435,6,1,-4,-1,2,13,5,0
1526903565586435,4,-1,0,-2,2,-1,2,-5
1526903565608376,-34,1,1,-1,-3,-2,-6,-6
1526903565608376,2,-8,-9,-8,-5,1,3,4
1526903565609373,10,-4,0,-1,1,0,2,-5
1526903565609373,-20,1,2,3,-1,-7,-3,4
1526903565631315,21,5,0,-1,0,1,2,-2
1526903565631315,2,2,0,3,2,5,-3,-3
1526903565632312,-19,-9,-5,-6,-4,-7,-4,1
1526903565632312,15,-5,0,0,0,5,4,-1
1526903565646275,-37,1,-1,-2,2,-3,-2,2
1526903565646275,18,-4,0,-1,1,0,5,-2
1526903565646275,-10,1,-6,10,-1,6,-6,-5
1526903565646275,-8,8,-1,-4,-8,-44,1,4
1526903565668216,-22,-3,0,-1,-1,7,2,-3
1526903565668216,-28,-10,-6,-3,-2,-12,-4,1
1526903565669214,27,1,1,-11,0,7,0,3
1526903565669214,-17,-2,-2,16,3,5,2,-2
1526903565691154,18,19,3,-1,0,-10,-3,-9
1526903565691154,-34,-15,-3,-5,-2,5,-1,2
1526903565692152,24,10,0,-16,-11,-6,-4,-1
1526903565692152,-12,-4,5,33,5,6,-2,-2
1526903565706114,-26,-3,-2,3,-1,0,1,3
1526903565706114,71,10,5,9,2,4,-8,-8
1526903565707112,0,1,2,-1,4,0,2,2
1526903565707112,-34,-7,-10,-21,-4,-1,0,-5
1526903565728056,21,-12,-4,-1,-2,5,-1,2
1526903565728056,-21,1,0,1,0,0,-4,-1
1526903565729053,-1,-2,-1,1,-2,-4,4,2
1526903565729053,-5,7,2,-4,1,8,1,-5
1526903565751992,10,-9,-3,-3,-1,0,0,3
1526903565751992,12,2,-8,-13,-7,-2,-10,-2
1526903565751992,-38,-8,-6,0,-3,-9,4,-9
1526903565751992,24,0,5,2,2,-2,-4,3
1526903565765955,11,-7,-8,-4,-3,13,-3,0
1526903565765955,10,9,3,0,0,-1,5,-2
1526903565766952,-3,-6,0,-3,-3,3,-3,6
1526903565766952,18,-9,-3,-7,0,4,3,1
1526903565788893,-12,3,-3,-9,-4,-10,-1,-6
1526903565788893,-2,0,-1,-9,-1,2,-4,3
1526903565788893,-16,1,2,19,-2,0,-1,-2
1526903565788893,15,4,3,7,5,-38,-10,-2
1526903565811832,24,0,-1,5,-2,24,16,6
1526903565811832,-29,-4,-9,-4,1,9,-5,-4
1526903565812830,-15,3,6,-2,2,0,2,5
1526903565812830,2,-7,-8,-19,-4,-12,-6,-7
1526903565825795,-14,6,4,12,-2,-7,-4,-3
1526903565825795,5,-8,0,-11,-4,-6,5,1
1526903565826792,22,3,-4,18,10,13,4,1
1526903565826792,14,3,3,-12,-5,16,-10,-2
1526903565848733,-16,-3,-9,7,2,-13,-3,-2
1526903565848733,2,5,6,2,-1,4,5,2
1526903565849731,0,-10,-3,-11,-1,-6,-1,1
1526903565849731,-13,2,2,5,-2,13,7,1
1526903565871672,17,-7,-4,-5,5,3,-9,-3
1526903565871672,-39,5,3,13,1,-13,-3,-4
1526903565872669,17,-5,-1,-15,0,1,-1,-2
1526903565872669,-2,4,1,16,4,8,7,5
1526903565885635,31,4,5,-2,-4,-7,-4,1
1526903565885635,-15,-8,-4,-8,1,0,3,-3
1526903565886632,-5,2,-4,1,-4,-9,-6,-3
1526903565886632,-49,2,2,-13,-7,5,-5,-5
1526903565908573,16,4,2,6,7,-2,8,0
1526903565908573,23,1,0,2,1,5,-1,6
1526903565909571,2,-7,-6,-17,-8,6,6,-3
1526903565909571,-4,-1,-1,8,3,-2,1,4
1526903565931512,15,1,4,-4,-4,-6,-3,-4
1526903565931512,-15,1,3,3,-6,-14,-3,-3
1526903565932509,-17,5,3,5,8,8,0,-3
1526903565932509,12,0,-6,-15,-4,1,1,2
1526903565945475,-22,-3,-1,-2,0,6,1,-3
1526903565945475,2,-5,3,6,-4,0,-2,2
1526903565946472,45,7,3,-2,14,-6,-5,3
1526903565946472,-51,-5,-10,-4,-13,3,1,-7
1526903565968413,22,1,2,1,-4,-17,-2,3
1526903565968413,21,-10,-3,2,1,4,-2,2
1526903565969411,-12,3,0,2,-1,8,1,-3
1526903565969411,25,4,-3,-23,-6,6,6,2
1526903565991352,-27,1,1,-9,-20,-18,-6,-4
1526903565991352,36,3,1,13,-11,-26,-5,-3
1526903565992349,-27,-18,-8,5,-1,19,6,2
1526903565992349,24,11,7,12,6,-6,-9,0
1526903566006312,-3,-4,-4,-22,-7,10,0,0
1526903566006312,-36,-3,-2,-17,5,-15,-2,-7
1526903566006312,53,8,9,18,-7,-8,-6,0
1526903566006312,-51,-5,-4,5,4,3,0,-1
1526903566028253,50,-1,2,7,5,-6,-2,-2
1526903566028253,42,0,-11,-13,-3,8,-1,2
1526903566029251,-62,-7,-4,-9,-7,-1,0,-1
1526903566029251,15,-5,-7,-2,-4,4,3,5
1526903566051192,-24,2,4,3,9,1,1,-3
1526903566051192,-20,4,3,4,1,6,-5,-6
1526903566052189,-1,-8,-6,-12,-3,3,-1,1
1526903566052189,19,2,5,-12,9,8,-2,0
1526903566066152,-16,-5,-7,29,8,26,10,-2
1526903566066152,-10,2,10,16,2,6,-3,2
1526903566067149,-9,3,-14,-14,-3,-36,-11,-1
1526903566067149,-30,-3,-3,-2,-2,-3,-4,-10
1526903566088093,14,0,3,-15,-4,-18,-3,5
1526903566088093,-11,-9,1,-5,15,-5,2,-4
1526903566089091,21,12,2,1,-2,-4,1,-1
1526903566089091,-18,-3,2,9,0,1,-4,-3
1526903566112029,-8,3,0,7,-6,-10,-3,0
1526903566112029,5,-3,-5,5,-2,5,-6,-5
1526903566112029,-19,-9,0,-9,-4,-10,3,0
1526903566112029,14,9,-1,-11,1,0,1,-3
1526903566125992,-16,-1,2,11,3,-1,-6,-3
1526903566125992,-24,-5,2,1,2,18,7,4
1526903566126989,68,11,-2,-1,0,2,0,2
1526903566126989,-19,-16,-6,5,-9,-7,3,-8
1526903566147933,-22,-8,2,-19,3,23,-5,0
1526903566147933,22,6,0,17,-12,-32,2,-4
1526903566148930,11,3,3,-12,-8,1,0,1
1526903566148930,1,-7,-10,0,6,0,3,0
1526903566170872,-9,0,3,10,5,-12,-5,-3
1526903566170872,-4,3,-3,-13,-2,73,1,0
1526903566171869,4,6,1,8,-4,-16,1,-2
1526903566171869,5,1,4,-14,-1,20,-16,-2
1526903566185832,-8,-11,-8,3,3,11,19,-1
1526903566185832,16,5,4,-2,5,-4,6,6
1526903566186829,-14,-1,-2,6,-2,2,-7,-8
1526903566186829,-7,4,0,-2,0,1,0,8
1526903566208770,24,5,0,-5,-4,-6,-11,-5
1526903566208770,-15,-11,0,5,1,-7,-2,2
1526903566208770,2,-7,-10,-8,-12,12,1,-3
1526903566208770,-2,8,1,0,-15,-15,1,3
1526903566230712,23,0,-6,-4,-4,-7,-2,1
1526903566230712,-24,-3,-4,0,8,-9,4,2
1526903566231709,14,-4,3,3,2,-1,-7,-1
1526903566231709,-2,2,-3,-1,-3,-1,4,3
1526903566253650,23,1,0,-6,-5,1,-4,-2
1526903566253650,11,-8,-6,-6,-8,-5,-4,0
1526903566254648,-33,2,6,6,3,-2,-1,-3
1526903566254648,25,5,3,-5,-3,-1,-1,0
1526903566268610,-12,-14,0,-8,4,2,-1,0
1526903566268610,-5,16,2,-1,5,-18,-1,-4
1526903566269608,-25,-12,-5,12,3,-4,-3,-3
1526903566269608,-2,2,2,3,4,1,10,0
1526903566290552,1,4,1,-5,0,-16,-1,-1
1526903566290552,42,-9,-2,-21,-14,19,-9,-1
1526903566291549,3,3,1,17,8,-9,-4,-2
1526903566291549,24,0,-1,5,-6,-1,1,1
1526903566305511,-17,3,-1,2,-3,-10,-4,-2
1526903566305511,-9,1,-4,2,2,3,7,-1
1526903566313490,-9,-1,0,-14,-2,8,-2,1
1526903566313490,-21,-10,-5,15,8,-12,-2,-2
1526903566328450,12,0,2,-3,3,7,-4,-4
1526903566328450,-5,0,3,7,1,11,8,4
1526903566329448,18,9,-6,-16,-10,-18,2,-2
1526903566329448,-27,-5,2,-1,8,-12,-3,-4
1526903566351389,-6,3,2,0,1,17,0,3
1526903566351389,15,-12,-7,7,3,15,1,0
1526903566351389,-29,2,1,-3,2,-2,1,-4
1526903566351389,32,-3,-9,-2,-4,1,0,3
1526903566365352,-5,3,-3,-8,-1,-1,3,5
1526903566365352,-10,8,-1,-13,-5,-14,-8,-9
1526903566373331,-10,-15,1,32,9,8,-10,-2
1526903566373331,16,-7,-3,-2,1,0,0,-5
1526903566388290,-2,1,-4,-13,-6,-3,-2,1
1526903566388290,-6,3,3,16,-2,-8,2,6
1526903566389288,-15,0,-2,-10,-4,4,2,-4
1526903566389288,32,9,3,-2,-3,-3,1,2
1526903566411229,-21,-16,4,8,7,3,3,1
1526903566411229,4,-4,-12,-10,-6,-8,-2,-2
1526903566412227,-12,4,3,0,-1,-8,-5,0
1526903566412227,6,0,0,10,1,11,4,3
1526903566425191,11,-3,-3,-10,-5,1,0,-4
1526903566425191,-3,10,0,3,3,-9,-7,0
1526903566433170,-58,-13,-1,-6,-8,4,5,2
1526903566433170,9,5,3,-17,-16,-5,-4,-5
1526903566448130,35,-8,-9,31,7,1,-2,-3
1526903566448130,-17,1,0,-6,-4,-9,-4,-5
1526903566449128,52,6,2,-3,-3,3,1,6
1526903566449128,-25,-2,-1,-16,-4,5,2,-5
1526903566471069,-1,2,8,20,4,-5,-2,2
1526903566471069,22,5,1,-3,-1,-7,-2,-2
1526903566472066,13,-6,-5,-2,5,6,4,5
1526903566472066,-35,2,3,1,3,-1,0,-5
1526903566485032,24,20,4,-5,-4,1,1,0
1526903566485032,-2,-37,-10,-10,-3,-2,-2,0
1526903566493010,-1,11,3,-1,-2,-4,0,3
1526903566493010,16,-5,2,6,9,7,4,6
1526903566507970,15,5,-7,-10,-4,-7,0,1
1526903566507970,-3,-2,3,-2,0,-3,-3,-2
1526903566508968,-45,-7,-10,5,25,2,-1,-6
1526903566508968,18,-5,-9,2,-10,-9,-9,-8
1526903566530909,8,24,10,-3,1,2,-1,-1
1526903566530909,-32,-37,-5,8,9,0,7,7
1526903566531907,30,6,0,-22,-14,-5,0,1
1526903566531907,-47,3,2,33,4,2,2,2
1526903566544872,44,-11,-3,7,-3,0,-10,-8
1526903566544872,-43,10,6,5,-5,4,7,1
1526903566553847,9,5,-3,-2,4,7,-1,-4
1526903566553847,-9,-8,-5,-4,0,-6,-6,1
1526903566568808,1,-3,-1,-10,-15,-3,1,7
1526903566568808,-50,1,-9,-7,-4,8,-3,-7
1526903566568808,40,-2,7,6,0,1,8,4
1526903566568808,-17,12,-5,-13,5,-2,0,0
1526903566590749,-29,-12,-3,1,-1,-8,-3,-6
1526903566590749,48,10,6,7,5,10,3,9
1526903566591746,-31,-14,-18,-12,-10,-6,-10,-16
1526903566591746,-21,2,3,0,-5,-2,-1,-2
1526903566613687,17,-5,-4,1,0,-3,-1,1
1526903566613687,20,4,2,2,-2,-6,1,2
1526903566614685,11,4,2,-12,-6,1,0,1
1526903566614685,15,-7,-1,16,4,-8,-4,-1
1526903566628647,-25,-4,-5,-3,3,6,1,-4
1526903566628647,3,6,-1,-7,0,-10,-1,-5
1526903566629645,17,3,2,3,-3,11,-1,5
1526903566629645,-9,-8,1,-7,-1,2,1,-3
1526903566650589,-17,-11,-6,-4,1,-1,-9,-5
1526903566650589,-5,10,1,0,-3,-6,2,-1
1526903566651586,17,-13,-3,-4,-5,-2,-1,2
1526903566651586,-3,4,-1,-14,-7,1,2,4
1526903566674525,-29,13,3,3,2,-4,1,0
1526903566674525,10,-16,-2,-14,1,4,2,2
1526903566674525,24,13,11,31,9,-3,-7,-7
1526903566674525,-3,-1,-4,-14,0,-1,-2,-1
1526903566688487,-17,-3,-1,-12,-1,7,2,3
1526903566688487,21,4,-4,-8,-4,-12,-6,-7
1526903566689485,-35,-8,-1,6,2,1,11,1
1526903566689485,14,3,4,7,-6,-1,1,-1
1526903566711426,-25,4,-3,-13,-23,1,-8,1
1526903566711426,25,-3,4,8,15,3,2,9
1526903566711426,-3,-3,-8,-5,-5,-2,6,-6
1526903566711426,5,3,4,0,1,-6,-9,-2
1526903566734365,37,-2,4,-1,3,2,6,5
1526903566734365,-20,3,-7,-5,-11,-6,-7,-7
1526903566735362,8,2,6,12,0,2,-1,3
1526903566735362,-21,0,-6,3,8,-11,-1,-1
1526903566748327,7,-4,3,9,-7,15,7,-2
1526903566748327,-64,12,2,-11,-5,-9,-5,-6
1526903566749325,45,-21,-2,-10,0,-4,0,10
1526903566749325,-21,4,2,45,4,2,-4,-9
1526903566771266,42,0,-7,-7,8,6,-2,-2
1526903566771266,1,13,1,9,-2,0,-3,-2
1526903566772263,-26,-6,1,-12,-6,3,-2,0
1526903566772263,22,1,2,-12,-2,4,1,2
1526903566794205,-17,-12,-3,0,2,-2,0,1
1526903566794205,23,-2,-1,7,-1,2,-4,-9
1526903566795202,-20,7,0,-6,9,-5,-2,3
1526903566795202,4,-9,-5,0,4,10,1,-6
1526903566808167,-10,5,9,-6,7,-6,-3,-1
1526903566808167,8,-5,-7,6,0,0,-6,-1
1526903566809165,-49,-14,-14,9,9,18,0,2
1526903566809165,32,6,2,-6,-1,3,13,-3
1526903566831106,-40,3,2,3,-5,-8,-5,-2
1526903566831106,-21,3,12,5,2,5,0,0
1526903566832104,38,-5,-7,-11,-5,-6,-5,-1
1526903566832104,-26,2,-2,-6,-1,-3,-2,10
1526903566854045,39,-10,-6,-6,-3,-3,2,-4
1526903566854045,40,5,6,4,0,-5,0,-2
1526903566855042,-67,-2,-3,-7,-6,11,-4,-3
1526903566855042,2,0,0,-16,-8,-10,-1,0
1526903566868007,16,-2,-3,2,6,-4,2,0
1526903566868007,23,-2,2,-5,14,4,-1,3
1526903566869005,27,5,-1,28,4,-24,-4,-2
1526903566869005,0,-10,4,5,6,57,16,1
1526903566890946,6,-9,-7,8,-9,-5,-10,-1
1526903566890946,-9,10,-1,-7,4,-8,-1,-2
1526903566891944,-12,5,1,-13,-11,-9,6,-3
1526903566891944,3,-4,1,-12,0,0,0,1
1526903566913885,-1,-3,1,19,4,-8,2,3
1526903566913885,-23,-6,-11,-10,-19,-4,-8,-5
1526903566914882,63,20,-4,-6,1,5,-9,-4
1526903566914882,-36,-20,0,-3,7,16,10,2
1526903566928845,-35,0,-6,-11,-1,8,8,-1
1526903566928845,42,0,0,8,-3,-11,1,4
1526903566928845,-40,7,4,0,0,2,-2,-8
1526903566928845,51,-3,-10,-6,-3,-20,-14,-1
1526903566950786,-19,-6,-4,-1,-3,-8,-1,-3
1526903566950786,-5,-6,1,1,-1,11,7,2
1526903566951784,-18,5,6,-8,-3,-21,-8,-4
1526903566951784,63,4,-5,-15,-9,34,2,3
1526903566973725,-20,-1,1,-1,0,-23,-9,-1
1526903566973725,-4,-8,9,26,-9,-13,5,0
1526903566974722,12,4,-2,-11,0,0,1,-9
1526903566974722,10,0,-5,-1,-9,-17,-4,3
1526903566988685,-15,-1,-5,-21,-6,3,-7,-2
1526903566988685,8,4,-2,-24,-1,7,2,7
1526903566989682,0,-11,1,15,0,-2,2,-1
1526903566989682,8,8,3,20,3,-17,1,-2
1526903567010626,22,1,6,3,7,14,8,-1
1526903567010626,-72,-2,-7,1,-3,-2,-1,-6
1526903567011623,7,5,-3,-9,-2,-1,1,2
1526903567011623,-9,-6,-5,-26,-3,-13,-4,-1
1526903567034562,-12,-8,7,31,-20,2,1,-2
1526903567034562,-24,0,3,14,29,14,-1,-4
1526903567034562,9,-7,-4,-11,-12,3,4,4
1526903567034562,5,11,1,2,0,-5,-13,-5
1526903567048524,0,-4,-3,-14,-6,-12,4,5
1526903567048524,-9,-1,1,-8,-3,2,-3,-1
1526903567049522,-1,1,0,10,-2,-4,-1,-1
1526903567049522,-15,-2,-2,-4,-8,-9,-3,-5
1526903567070466,-6,-1,4,-16,11,16,0,-2
1526903567070466,51,-4,-2,16,-3,-5,-6,0
1526903567071463,2,15,0,8,7,-13,6,-2
1526903567071463,-28,-18,-1,12,-15,5,-6,2
1526903567094402,3,13,0,-13,6,-12,10,-4
1526903567094402,18,-3,0,-6,-11,11,0,4
1526903567095399,-16,-14,-7,-8,-8,-13,-1,2
1526903567095399,3,11,8,6,10,20,-2,2
1526903567108365,68,2,-6,5,-2,-7,-13,-3
1526903567108365,-57,-13,-4,-12,1,0,6,-3
1526903567109362,27,12,2,-8,-1,10,9,7
1526903567109362,-19,2,10,44,19,-9,1,-2
1526903567131303,-3,-6,-3,-6,-13,3,2,2
1526903567131303,-19,-2,-5,-8,-13,-1,-5,-5
1526903567131303,24,-7,3,16,23,18,-2,0
1526903567131303,-16,-1,-10,-15,-7,-23,0,-4
1526903567154242,-6,4,4,7,4,-5,-3,1
1526903567154242,20,1,0,-9,-14,-2,-8,-2
1526903567155239,-6,-9,-3,-3,15,8,7,2
1526903567155239,3,8,-5,-6,2,-12,-5,-9
1526903567168205,-13,-16,-2,-3,3,4,-4,0
1526903567168205,-10,-3,-9,12,3,-9,-2,-5
1526903567169203,15,6,4,-3,-5,2,-8,-1
1526903567169203,37,6,-2,-6,-1,-6,4,0
1526903567191143,-12,-5,-1,15,1,-6,-9,1
1526903567191143,8,-4,-4,-4,8,5,5,-1
1526903567192141,-21,6,4,1,-17,-8,-6,-4
1526903567192141,-7,0,-4,-23,5,6,6,-2
1526903567214082,5,-6,-3,25,3,-11,-1,2
1526903567214082,-6,4,3,-6,9,17,2,-4
1526903567215079,-25,3,0,0,-16,-3,16,4
1526903567215079,-13,-7,-7,-14,-6,-3,-16,1
1526903567228045,-2,-1,-3,-7,-5,-28,-2,-22
1526903567228045,0,2,0,-3,-22,-4,-8,-5
1526903567236023,-43,-2,1,-6,3,16,7,4
1526903567236023,35,-5,-2,1,-8,-46,-4,2
1526903567250983,-17,4,2,-3,10,16,5,5
1526903567250983,27,-6,-8,-2,-5,-7,-1,-1
1526903567251981,-35,-1,-3,-5,-7,3,-8,-12
1526903567251981,9,7,5,10,3,3,-4,0
1526903567273922,-20,-6,-2,-2,2,11,-5,0
1526903567273922,-1,-1,1,-6,2,-4,8,3
1526903567273922,12,-1,0,8,0,-10,-9,1
1526903567273922,-24,-17,-8,-3,4,17,3,1
1526903567287884,0,9,0,-5,-1,3,7,4
1526903567287884,-29,8,4,6,4,-21,-4,-6
1526903567295863,28,-8,-3,-1,2,26,-10,2
1526903567295863,-5,-1,-1,-3,-8,-9,5,-4
1526903567310823,-19,4,6,-24,-15,14,2,-1
1526903567310823,4,-7,2,24,41,-14,-9,2
1526903567311821,4,12,-1,-5,0,0,9,5
1526903567311821,-24,-5,1,15,-3,-4,0,-13
1526903567333762,-2,-6,2,-4,3,10,-3,-1
1526903567333762,35,11,0,-11,-11,4,3,11
1526903567333762,19,0,-3,-9,-3,-9,-7,-9
1526903567333762,-6,-13,-4,-4,1,0,1,4
1526903567347724,14,-1,2,5,1,0,3,-2
1526903567347724,-15,-4,-3,-5,-7,5,0,0
1526903567355703,40,-2,-2,2,0,-3,-1,1
1526903567355703,-24,8,6,2,-3,2,-1,3
1526903567370663,-14,-2,-7,2,1,-3,-5,0
1526903567370663,26,-12,-7,-7,-7,1,-1,1
1526903567371660,-26,1,0,-2,0,-10,-3,-3
1526903567371660,-2,6,5,4,-1,0,-2,0
1526903567393602,3,-5,2,0,5,-3,-2,-2
1526903567393602,-5,1,0,-5,-2,-1,3,-2
1526903567394600,-13,1,-4,-20,-10,-6,-3,-4
1526903567394600,18,-1,1,31,1,4,-1,0
1526903567407564,-5,-1,-4,18,6,1,1,1
1526903567407564,-8,-5,0,-3,-2,-4,-1,1
1526903567415543,8,0,0,8,3,-2,0,0
1526903567415543,-12,3,2,-27,-2,0,-1,-2
1526903567430503,18,-2,2,-3,-6,-5,0,2
1526903567430503,-8,0,-8,7,-3,4,-4,-3
1526903567431500,-19,-7,-8,-12,-5,-4,-7,-5
1526903567431500,71,5,2,0,3,1,2,7
1526903567453442,-93,-8,-1,1,-1,-2,1,0
1526903567453442,7,6,7,-6,-1,0,-2,-4
1526903567454439,-20,3,-1,4,0,3,3,2
1526903567454439,37,3,-7,-8,1,4,-3,1
1526903567467404,18,-7,1,-3,-6,10,0,1
1526903567467404,-16,2,-8,-7,-4,10,0,3
1526903567476380,-9,-4,-2,14,6,-5,4,-4
1526903567476380,-27,8,5,10,-18,12,2,-2
1526903567491340,-6,0,-2,-12,-7,-12,-6,-3
1526903567491340,1,-8,-8,-22,7,-5,-2,-2
1526903567491340,14,10,9,53,7,3,1,4
1526903567491340,-77,-3,-5,-17,-7,-9,-4,-6
1526903567513282,37,-13,-7,-1,-1,1,0,3
1526903567513282,-6,0,1,-14,-10,-2,-2,-4
1526903567514279,30,4,5,-8,-1,-7,-4,-1
1526903567514279,-35,-1,-19,-5,0,-3,-5,-10
1526903567536220,29,10,3,4,3,-1,-1,-1
1526903567536220,-14,-4,2,5,3,0,0,0
1526903567537218,4,-6,-3,-11,-1,0,-3,-4
1526903567537218,12,2,5,8,5,-1,2,4
1526903567551181,-17,-8,-2,-8,0,-1,-2,-7
1526903567551181,-29,5,-12,0,-8,-5,-2,-5
1526903567552178,28,2,4,-1,-3,-1,-3,2
1526903567552178,14,-7,7,-1,4,0,3,6
1526903567573121,-12,-4,-11,-6,-3,-4,-2,-8
1526903567573121,-6,5,4,5,-4,-31,0,0
1526903567574119,-8,-2,-2,-18,4,14,-5,3
1526903567574119,-43,-8,0,7,-7,2,8,1
1526903567597057,26,14,10,23,11,2,-8,3
1526903567597057,36,0,4,9,-1,0,1,2
1526903567597057,-5,-4,-7,-21,-8,-4,3,5
1526903567597057,33,0,-2,-7,3,-13,-8,-3
1526903567611020,-25,-7,0,16,-9,2,0,-2
1526903567611020,32,-1,0,-7,3,36,5,4
1526903567612018,-23,3,5,1,-1,-6,1,-1
1526903567612018,30,0,-7,-2,3,2,-5,-2
1526903567632962,11,-7,-5,-8,-7,-13,2,0
1526903567632962,-4,-3,6,0,4,0,-7,-6
1526903567633959,-32,-6,-12,-12,-10,-5,-2,-8
1526903567633959,-7,0,5,-5,-2,-13,2,5
1526903567656898,49,12,0,-3,6,26,2,3
1526903567656898,-44,-11,-2,0,-5,-3,5,6
1526903567657895,-6,-9,1,3,4,0,2,3
1526903567657895,-28,-5,-6,-3,0,-6,-3,-7
1526903567670860,0,9,4,-8,-1,4,-4,0
1526903567670860,14,6,4,8,3,-8,2,-2
1526903567671858,-17,0,0,0,-4,-2,3,1
1526903567671858,22,-2,2,-1,6,1,-1,4
1526903567693799,12,0,-8,-3,-2,-4,2,-1
1526903567693799,-20,3,0,-2,-4,-1,-4,0
1526903567693799,-16,0,-2,2,2,-1,-4,-10
1526903567693799,0,-1,4,-1,-1,1,3,1
1526903567716737,-4,-3,-3,-13,-2,-8,1,2
1526903567716737,-11,-8,7,11,-2,2,0,-2
1526903567717735,12,-1,-11,2,4,-3,-5,-2
1526903567717735,-3,5,0,-14,-7,9,-6,-5
1526903567730700,-19,-4,-5,0,3,-10,1,-2
1526903567730700,17,1,-1,29,8,1,-1,2
1526903567731698,3,-3,1,-3,-6,-16,1,-2
1526903567731698,-3,-5,1,2,4,6,-1,-2
1526903567753639,-36,2,-6,-6,-2,-1,3,0
1526903567753639,45,9,3,-8,-4,6,-4,3
1526903567754636,-29,-3,-9,1,-1,1,-4,-2
1526903567754636,2,-6,-3,1,-3,-4,1,-1
1526903567776577,28,1,5,-4,-1,-6,0,4
1526903567776577,-17,4,-2,-9,-1,-5,0,-2
1526903567777575,5,-5,2,20,6,18,1,-2
1526903567777575,34,9,1,8,1,4,1,2
1526903567790540,-23,-10,-2,1,-2,-20,-1,0
1526903567790540,17,0,-4,-7,-2,-2,2,2
1526903567791537,9,9,4,-7,-3,-2,-1,2
1526903567791537,-12,-3,0,-2,0,-1,3,-4
1526903567813479,-10,-2,-8,0,-2,4,-5,-6
1526903567813479,-15,-1,-7,-2,-3,-13,-1,-2
1526903567814476,-4,4,3,-3,-1,-3,0,-3
1526903567814476,0,-1,4,6,3,12,1,-1
1526903567836417,-20,-17,-3,-16,-10,-5,-3,-7
1526903567836417,25,1,-11,-11,-1,8,-4,1
1526903567837415,24,7,1,8,-2,-20,-2,4
1526903567837415,-11,0,2,20,17,1,7,0
1526903567851378,24,8,9,2,4,1,0,0
1526903567851378,-31,-11,-4,-7,-4,-5,-10,-5
1526903567851378,9,5,-5,-16,-3,3,2,-1
1526903567851378,12,-5,-6,-15,-6,-5,0,4
1526903567873319,-15,8,6,9,3,2,3,2
1526903567873319,52,-1,9,5,2,-4,8,1
1526903567874317,-21,-12,-9,-8,-9,-10,-9,-8
1526903567874317,-19,-10,-1,-2,1,1,1,4
1526903567896257,37,4,-2,2,6,23,4,-1
1526903567896257,-16,5,2,5,-1,-2,-6,-2
1526903567897255,-7,-1,-1,-14,1,-2,-2,-2
1526903567897255,12,-4,-3,24,-8,6,-6,-1
1526903567911217,-4,-2,2,-2,7,-17,-5,4
1526903567911217,-43,-5,-3,3,4,9,9,-4
1526903567912215,28,4,3,2,1,10,-1,4
1526903567912215,-31,-8,-4,-10,-3,-9,-2,-5
1526903567933159,16,4,6,-6,-7,-4,-5,6
1526903567933159,-11,-1,-10,-11,2,-6,-5,-1
1526903567934156,-10,0,6,35,11,-24,8,1
1526903567934156,20,2,-3,-13,-8,48,7,7
1526903567957095,18,3,1,8,3,-12,-6,-7
1526903567957095,2,-6,-5,-8,-5,3,2,4
1526903567957095,4,1,-4,-16,-5,-7,-3,1
1526903567957095,-43,-1,2,-7,3,-14,-3,0
1526903567971058,52,1,-8,2,5,16,0,-1
1526903567971058,-49,-10,2,1,-4,-17,-4,-5
1526903567972055,38,-1,0,-2,-1,11,-1,-3
1526903567972055,-13,5,0,-3,0,-13,-1,-1
1526903567992999,-6,3,3,-14,-5,7,1,2
1526903567992999,2,0,1,12,3,0,4,2
1526903567993996,-4,-2,-7,-2,2,4,-9,-6
1526903567993996,12,-1,-1,-13,-20,-11,-5,-1
1526903568016935,-24,1,3,15,14,6,10,2
1526903568016935,47,3,1,8,-5,4,-3,1
1526903568017934,-28,-11,-2,-8,-10,1,0,-8
1526903568017934,36,9,4,-3,6,13,-1,4
1526903568030897,-39,-11,-9,-7,-8,-20,-6,-4
1526903568030897,18,10,-6,-18,-15,0,-1,1
1526903568031895,15,-3,6,26,27,11,6,5
1526903568031895,11,3,-3,-1,0,-14,-9,-7
1526903568053836,-17,-2,1,2,1,4,3,2
1526903568053836,0,1,2,-3,-2,7,4,-3
1526903568053836,-11,5,-1,-14,-12,-4,-2,4
1526903568053836,-7,0,0,2,2,-10,-3,-7
1526903568076775,18,-6,7,13,3,11,3,2
1526903568076775,1,-6,-9,-5,-7,-12,-5,-7
1526903568077772,-68,-2,-4,-10,-25,26,-2,-2
1526903568077772,14,-3,-2,8,2,-14,-2,1
1526903568090737,-3,0,-3,-13,-12,-4,-12,-4
1526903568090737,-9,6,7,4,8,-16,3,0
1526903568091735,13,-3,0,1,6,25,6,2
1526903568091735,18,-5,-1,0,-6,-22,2,0
1526903568113676,-9,-1,-6,-2,-3,0,-12,-3
1526903568113676,27,-1,-1,-2,0,8,-1,2
1526903568114673,29,2,0,2,1,-15,2,1
1526903568114673,-6,1,1,-1,4,4,1,0
1526903568136615,-19,0,-1,1,-1,-6,6,2
1526903568136615,-11,-1,3,5,4,4,-5,0
1526903568137612,11,4,0,-9,-2,-8,3,-2
1526903568137612,-25,-10,-8,-3,0,3,-12,2
1526903568150577,4,-1,6,4,1,-10,-3,-7
1526903568150577,-3,6,-2,-1,0,8,11,-1
1526903568151575,-35,-6,-9,-9,-5,-9,-4,-8
1526903568151575,87,7,0,-5,1,-6,-2,3
1526903568173516,-35,-11,0,9,-1,2,-3,-2
1526903568173516,-13,3,4,5,-6,37,5,1
1526903568174514,-4,3,5,34,8,-11,-2,2
1526903568174514,-23,-8,-5,-5,7,13,1,-3
1526903568196454,24,10,1,-5,-6,-24,3,-1
1526903568196454,-27,-5,4,-11,0,-10,-16,-10
1526903568197452,59,1,-2,-14,-6,-5,2,6
1526903568197452,-28,-7,-1,-4,-6,8,-1,-4
1526903568210417,39,6,4,10,23,23,12,10
1526903568210417,59,1,-6,-3,-1,-12,0,2
1526903568218396,-18,-6,-2,-7,-1,-3,-9,-4
1526903568218396,-28,3,4,11,-2,-12,-1,-1
1526903568233356,0,-2,0,-2,-3,4,5,0
1526903568233356,-6,1,0,5,3,-3,1,0
1526903568234354,60,19,1,-3,1,-2,-6,-2
1526903568234354,-44,-34,-4,-2,-5,9,6,-1
1526903568256295,-24,2,-9,-7,-12,-14,-7,-1
1526903568256295,-4,0,0,2,6,7,3,-3
1526903568257292,-11,7,8,-5,-6,-6,-8,-1
1526903568257292,-13,3,-8,-4,-1,2,0,-5
1526903568270257,42,1,3,-5,-3,0,1,0
1526903568270257,-23,-13,-4,-1,6,0,0,-4
1526903568278236,-18,3,1,20,2,-20,0,2
1526903568278236,7,7,4,7,-1,-4,2,-1
1526903568293196,-9,-6,-6,-9,-3,-1,-3,-4
1526903568293196,-16,8,0,-3,-8,-25,-5,-5
1526903568294194,-12,-8,-3,-10,-1,32,6,1
1526903568294194,19,13,8,8,8,-1,-2,-1
1526903568316134,-22,-20,-4,6,-5,-2,-4,-3
1526903568316134,-19,6,-1,-9,-5,-10,-3,-3
1526903568317132,-9,-8,-2,-7,-1,-6,-2,-3
1526903568317132,5,16,2,7,-2,2,-1,1
1526903568330097,-23,-6,0,-7,0,11,-1,1
1526903568330097,28,-3,-2,3,-6,-19,-4,10
1526903568338076,-60,4,-5,-9,-2,6,5,-6
1526903568338076,-2,-6,-4,-10,-5,-4,-3,-1
1526903568353036,-4,7,2,1,3,2,-2,0
1526903568353036,-18,0,1,6,-5,9,-1,4
1526903568354034,17,-1,-2,-3,4,-3,1,-2
1526903568354034,-24,-4,-10,-5,-5,-5,-2,-4
1526903568376972,39,3,1,4,0,-6,8,2
1526903568376972,-21,-7,-3,-5,1,11,-7,-4
1526903568376972,12,4,1,-3,-2,5,-2,-2
1526903568376972,5,-6,2,3,3,2,-2,-2
1526903568389937,8,2,-3,-1,-2,0,-3,-3
1526903568389937,-22,0,-4,1,13,6,1,-5
1526903568398914,23,0,1,1,-2,-4,3,2
1526903568398914,20,-6,-7,-6,-15,-4,0,-1
1526903568413873,-45,-15,-4,-4,5,5,5,5
1526903568413873,12,1,1,-2,-2,-4,2,-2
1526903568413873,-3,2,3,4,1,0,-1,4
1526903568413873,-6,5,6,2,4,0,3,-3
1526903568435814,7,4,0,-4,-7,-14,-3,-1
1526903568435814,13,-3,2,7,8,21,3,2
1526903568436812,-21,-2,-4,-6,-1,1,5,-2
1526903568436812,18,8,4,1,-2,-1,-3,2
1526903568450774,4,-13,-4,2,8,-9,-4,-3
1526903568450774,-9,4,2,0,-23,-32,-7,-1
1526903568458753,3,-7,-4,-3,7,48,-6,3
1526903568458753,1,2,-2,6,3,-23,-1,-2
1526903568473713,-9,5,4,4,-8,-41,3,0
1526903568473713,-5,5,-8,-8,-4,0,3,-1
1526903568474711,26,-10,1,-4,-11,-22,-6,-3
1526903568474711,-19,-13,2,0,3,4,-7,-4
1526903568495654,-30,3,-4,-9,-5,30,-2,-3
1526903568495654,17,10,-3,-2,-2,-9,1,5
1526903568496652,41,-7,1,4,4,-12,-1,-2
1526903568496652,11,0,-4,-5,5,11,6,3
1526903568519590,-20,9,5,6,1,7,-2,-6
1526903568519590,17,-1,-3,-2,3,6,2,0
1526903568519590,-21,1,-2,5,1,-7,-1,-1
1526903568519590,-17,-10,2,-1,-1,9,-1,2
1526903568533553,6,9,-1,-3,-6,-1,1,1
1526903568533553,54,0,-5,-2,-1,0,-4,-4
1526903568534551,-23,-5,2,1,-1,-5,4,0
1526903568534551,-23,-4,-7,-6,-4,-9,-2,-4
1526903568555494,28,6,-1,1,2,2,-7,2
1526903568555494,2,4,7,5,6,10,7,-1
1526903568556492,-10,-7,-2,-1,-2,-6,-3,-5
1526903568556492,30,16,2,0,2,2,-1,-3
1526903568579430,1,-15,-2,0,1,9,-5,6
1526903568579430,-19,-3,-7,-6,-5,-2,-7,-12
1526903568580428,15,-4,-1,-1,-3,-2,1,2
1526903568580428,-13,2,3,5,-1,-13,-3,-3
1526903568593393,17,4,-3,-2,0,4,4,1
1526903568593393,-20,-3,2,-4,-15,-10,-1,2
1526903568594391,-28,4,6,7,14,16,12,3
1526903568594391,36,-2,-10,-7,-7,-14,-8,-3
1526903568616332,-8,-2,3,4,9,27,3,-2
1526903568616332,13,2,10,5,4,6,-3,-3
1526903568616332,-1,14,-2,-8,-7,-3,-1,6
1526903568616332,-22,-19,-4,0,-5,-3,1,-2
1526903568639270,22,3,-3,-8,-3,-5,-3,-3
1526903568639270,3,1,2,7,11,-2,0,-2
1526903568640268,13,-2,-3,11,-6,4,-5,-1
1526903568640268,30,6,5,0,4,1,4,5
1526903568653233,-40,-5,-11,-7,-9,-8,-10,-8
1526903568653233,26,-10,-4,-4,-1,1,0,-2
1526903568654231,-3,1,-3,-5,-1,-14,-2,-1
1526903568654231,-25,1,1,-5,-4,3,2,1
1526903568676172,32,8,11,13,0,-2,2,-1
1526903568676172,-57,-7,-6,-5,1,-1,2,3
1526903568677169,17,0,-11,-13,0,-20,-15,-8
1526903568677169,-5,-3,0,8,3,-11,9,2
1526903568699110,13,-2,-2,-2,-2,29,0,1
1526903568699110,-80,-2,1,5,-2,-3,0,-5
1526903568700108,-17,-5,0,3,2,-4,-12,-7
1526903568700108,-9,8,0,-11,0,-2,0,1
1526903568713073,10,-17,-7,-4,-4,-15,0,0
1526903568713073,-15,-5,-5,-1,-2,3,0,-2
1526903568714070,7,5,-5,-9,-6,4,5,6
1526903568714070,1,2,6,6,1,6,-2,-6
1526903568736012,-19,-1,-5,-4,-3,-7,3,3
1526903568736012,0,0,-5,-5,-2,6,-2,2
1526903568737009,12,-5,3,7,2,-5,-1,-4
1526903568737009,-14,7,2,0,-1,3,-1,-1
1526903568758950,-21,-6,-4,4,1,-10,0,-1
1526903568758950,-4,1,-5,-8,-5,6,-3,0
1526903568759948,11,3,2,-2,-3,-3,1,3
1526903568759948,19,-5,-6,7,-1,3,-4,-2
1526903568773910,-3,2,-1,-10,2,6,-4,-4
1526903568773910,-1,3,1,8,2,-23,3,6
1526903568773910,-34,-7,-1,-3,0,6,6,0
1526903568773910,36,1,-4,-3,-3,8,-2,2
1526903568795852,11,3,0,-2,-2,-1,3,5
1526903568795852,33,-2,1,-2,3,-2,-8,-3
1526903568796849,-4,0,-1,4,-1,0,4,-1
1526903568796849,-12,-5,-1,-6,-3,-6,0,-1
1526903568818790,12,5,-2,-1,-3,0,-8,-5
1526903568818790,20,10,4,5,1,-15,0,3
1526903568819787,-57,-7,0,2,-1,3,2,-3
1526903568819787,30,-1,-7,-4,-2,6,2,10
1526903568833750,49,2,1,3,-1,-5,-1,-1
1526903568833750,-2,-7,1,-4,2,9,-2,-5
1526903568834748,-35,2,-5,-4,-1,-4,-2,-5
1526903568834748,-14,-5,3,-3,0,7,-2,3
1526903568855691,-23,10,2,4,2,-3,0,1
1526903568855691,11,-17,-9,-5,-8,3,2,1
1526903568856689,19,4,6,1,-4,-3,8,-2
1526903568856689,-48,-6,-8,-10,-4,-26,-8,-6
1526903568879628,13,1,-1,-3,4,18,0,-2
1526903568879628,8,15,5,10,4,0,-2,0
1526903568879628,-33,-15,-5,-5,-5,-1,-1,2
1526903568879628,14,-2,-4,4,1,-3,-2,-3
1526903568893590,-3,-3,1,-2,-4,-6,6,0
1526903568893590,-3,-3,0,-13,-13,-9,-2,-1
1526903568894588,24,5,-6,20,6,8,2,2
1526903568894588,-11,-1,2,1,6,-15,-6,0
1526903568915531,-13,-1,-1,4,-4,-2,5,-3
1526903568915531,-32,-9,-6,-6,-4,11,-2,-6
1526903568916529,70,1,-1,-8,-2,-1,-2,6
1526903568916529,-2,1,0,-6,-4,0,5,1
1526903568939467,-1,3,2,1,3,-4,-6,-1
1526903568939467,-30,2,5,8,11,2,2,-3
1526903568939467,33,2,-2,-13,-6,-3,-2,4
1526903568939467,4,-13,-6,13,-5,7,-2,-4
1526903568953430,4,0,-3,-8,2,-10,3,1
1526903568953430,-7,3,-1,-3,2,5,-1,-3
1526903568954428,2,4,6,6,8,0,0,0
1526903568954428,2,-2,-10,-9,-8,2,-8,-2
1526903568976369,-19,-1,1,-7,-5,-2,0,0
1526903568976369,2,9,0,-1,-8,-14,0,-3
1526903568976369,-33,-10,3,13,18,22,-4,-1
1526903568976369,-8,2,4,9,4,-9,4,-4
1526903568999307,-30,-7,-5,-3,-5,9,0,-1
1526903568999307,31,1,-4,-8,1,5,0,4
1526903569000305,-7,3,1,-7,-4,-9,-2,0
1526903569000305,19,1,4,-7,-15,-6,-7,-1
1526903569013270,-43,-8,1,11,8,36,0,-10
1526903569013270,30,3,-2,4,4,-5,-9,2
1526903569014268,1,-2,-8,-6,-13,4,5,0
1526903569014268,-4,1,0,-6,4,2,0,-10
1526903569036209,-10,-4,2,0,-2,-20,-3,1
1526903569036209,25,-3,-4,-15,-11,0,3,0
1526903569037207,-19,-3,-3,23,-1,-4,-6,-2
1526903569037207,3,7,4,-6,1,-3,1,3
1526903569059147,10,-5,-3,-2,0,-2,2,0
1526903569059147,-16,2,-2,-19,7,1,4,1
1526903569060145,-12,-7,-2,25,4,-13,-2,-2
1526903569060145,20,3,2,-3,0,7,0,2
1526903569073110,3,-4,0,5,-4,-9,-3,0
1526903569073110,5,4,3,5,-12,-3,1,0
1526903569081089,-19,-3,-6,-17,24,-7,-1,-4
1526903569081089,-4,-4,1,7,4,21,8,3
1526903569096049,-42,0,0,-4,-3,-11,-10,-3
1526903569096049,28,-1,-2,-1,2,-4,0,2
1526903569097046,23,1,2,-13,-10,-5,-6,-4
1526903569097046,-11,-9,-5,3,0,-19,3,-5
1526903569118988,3,16,2,-2,5,41,1,-1
1526903569118988,-24,-25,-5,7,2,-5,-6,1
1526903569119985,4,10,4,-4,-10,-3,-4,-6
1526903569119985,10,-2,0,1,2,7,-1,3
1526903569132950,14,-4,-2,-2,-11,-25,0,-2
1526903569132950,-11,3,-4,6,3,5,-2,-3
1526903569140929,10,0,0,-8,-5,8,-3,1
1526903569140929,-11,-5,-6,-8,-8,-14,7,0
1526903569155889,-1,-1,-3,4,7,-8,4,2
1526903569155889,-7,-1,-3,1,-6,8,-5,-4
1526903569156886,-11,-6,-8,-9,-1,-10,6,-2
1526903569156886,-10,2,5,-4,0,-7,-6,1
1526903569178827,44,-3,-3,-13,-12,3,3,5
1526903569178827,-18,1,-1,2,5,-4,5,1
1526903569179825,0,7,4,19,3,-2,1,-3
1526903569179825,1,-3,1,7,0,14,-4,0
1526903569192790,32,1,0,-12,-2,-9,-2,3
1526903569192790,-10,7,2,9,1,0,3,-2
1526903569200769,5,-1,3,-11,-7,11,-3,3
1526903569200769,2,3,3,5,5,3,1,-2
1526903569215729,6,-7,1,6,1,-7,-5,-1
1526903569215729,-11,-2,2,-3,2,4,7,-1
1526903569216726,-11,-2,-15,-6,-1,-13,-12,-6
1526903569216726,-13,-6,-2,0,-8,41,-2,2
1526903569238667,-10,-1,1,-3,-1,-3,-5,-4
1526903569238667,-3,2,0,3,1,19,-1,1
1526903569239665,24,0,2,-4,1,14,4,-2
1526903569239665,-14,3,0,-4,-3,-22,15,0
1526903569252630,-2,-9,-5,-6,-15,-2,-4,-7
1526903569252630,-15,0,0,6,24,-4,-4,2
1526903569260609,42,-2,-1,-4,-10,4,4,-4
1526903569260609,35,19,2,-2,7,19,-4,-1
1526903569275569,-48,-20,1,-1,5,-11,-1,1
1526903569275569,-8,2,1,10,-7,-10,-5,-2
1526903569276566,-26,9,6,3,1,3,1,-6
1526903569276566,38,-15,-7,-2,0,2,-2,1
1526903569299505,-43,8,2,4,-1,0,1,-5
1526903569299505,23,-3,-6,-9,-3,0,-4,1
1526903569299505,-4,-5,-2,-7,2,4,2,0
1526903569299505,-17,-1,7,4,-1,-6,0,3
1526903569312470,2,4,-3,-4,3,9,-3,-7
1526903569312470,-3,-4,-2,8,-5,-2,2,-3
1526903569321446,13,6,0,-9,-8,-10,1,4
1526903569321446,0,-11,6,12,4,-12,-4,0
1526903569336406,10,2,-3,-1,1,-1,-3,1
1526903569336406,25,5,3,-4,1,-14,4,-2
1526903569336406,9,-1,3,5,-2,26,-11,2
1526903569336406,2,-1,-1,-4,-3,18,4,-2
1526903569359345,-2,4,-2,0,0,-9,-2,-2
1526903569359345,14,3,-4,-9,-4,-3,-8,-1
1526903569360342,-24,-5,-2,-1,-5,-22,12,4
1526903569360342,-7,0,-1,1,3,3,-3,-3
1526903569373308,27,5,-4,6,-5,2,-5,3
1526903569373308,-59,-3,-3,-7,-1,0,3,-5
1526903569381286,6,-5,-1,4,-5,-11,-1,4
1526903569381286,-1,-6,-4,-4,1,-2,-4,-2
1526903569396246,34,14,0,0,0,-8,3,6
1526903569396246,-42,-13,2,-1,1,3,0,-5
1526903569397243,16,3,2,-3,-2,-12,-2,-4
1526903569397243,-15,-2,-10,-6,-4,-2,-1,-4
1526903569419185,15,0,4,4,0,2,-3,2
1526903569419185,16,7,1,-6,-3,-2,-2,2
1526903569420182,-20,-1,5,3,0,5,2,4
1526903569420182,28,-4,-6,-4,-3,-14,-6,-5
1526903569442123,-9,-8,0,3,3,-1,2,-1
1526903569442123,20,-5,-7,-7,-3,3,-1,-4
1526903569442123,-22,-5,-2,-7,0,-6,-1,-3
1526903569442123,20,3,6,4,8,12,-1,3
1526903569456086,8,1,-1,1,-1,-5,2,-1
1526903569456086,-55,1,-1,2,0,-2,-2,1
1526903569457083,30,-6,0,5,0,2,3,2
1526903569457083,-25,-6,-2,0,-2,-3,-2,-6
1526903569479024,2,6,5,3,1,4,2,2
1526903569479024,24,-9,-2,-2,-1,-34,0,2
1526903569480022,-15,5,-3,-4,-2,26,-10,-3
1526903569480022,-21,3,2,6,-2,-13,3,3
1526903569501963,1,-7,-5,-1,-1,0,12,-1
1526903569501963,46,8,2,-4,-1,-13,-12,-1
1526903569502961,-8,-13,-7,-5,3,43,11,-4
1526903569502961,-4,2,0,-4,-5,-63,0,2
1526903569515926,-10,0,-1,-2,-6,21,10,-2
1526903569515926,-28,17,4,2,-4,-2,-14,2
1526903569516924,32,-17,-4,-1,-5,-13,-8,3
1526903569516924,-34,1,-3,-2,-1,13,-4,-6
1526903569538864,22,4,-2,-1,3,-5,-10,-2
1526903569538864,-8,1,3,2,-2,1,24,0
1526903569538864,10,9,5,1,0,-3,-11,-2
1526903569538864,42,-13,-8,-8,-5,-7,-3,1
1526903569561803,-8,4,7,3,0,-3,-8,-4
1526903569561803,-10,1,-3,-1,-3,-2,-4,-12
1526903569562801,-25,-1,1,0,-2,-16,-1,3
1526903569562801,23,11,2,1,1,20,3,6
1526903569575766,-2,1,2,0,3,-9,1,1
1526903569575766,18,1,-6,-2,-3,5,-1,1
1526903569576763,46,-9,2,1,2,-11,1,-1
1526903569576763,-57,-3,-8,-8,-3,14,1,-9
1526903569598705,-13,-7,-2,1,-1,0,-3,1
1526903569598705,11,1,-3,-1,-1,3,0,-2
1526903569599702,-14,2,-2,-3,-1,-6,-2,0
1526903569599702,-5,-2,8,6,2,5,-4,-2
1526903569621643,-14,3,0,1,3,-4,-6,-1
1526903569621643,20,-5,-9,-6,-4,10,1,-2
1526903569622641,3,4,2,1,4,-2,1,3
1526903569622641,4,-1,0,1,-2,4,3,-2
1526903569635606,6,-4,-4,-2,1,15,2,1
1526903569635606,-28,-5,0,1,0,-1,-5,-3
1526903569636603,32,10,-1,-4,-2,-10,6,2
1526903569636603,-33,-11,0,-2,1,-7,-1,1
1526903569658544,8,-12,-7,-2,-3,-4,-10,-7
1526903569658544,9,-3,-8,-2,-1,-26,0,-1
1526903569659542,-24,0,-3,-3,-6,21,2,-1
1526903569659542,38,8,4,3,4,15,2,3
1526903569681483,-14,4,-1,-2,-5,-12,-2,-3
1526903569681483,14,-2,9,7,5,4,5,8
1526903569682481,-34,-4,-7,-4,-5,-18,-3,-6
1526903569682481,-11,0,1,3,0,-5,-7,-3
1526903569696443,24,-3,-15,-7,-2,6,-2,-5
1526903569696443,-5,-7,-1,-2,-3,7,0,0
1526903569696443,-7,1,0,0,3,21,1,-1
1526903569696443,11,3,3,0,-4,-16,0,3
1526903569718385,-4,3,1,-1,2,2,5,10
1526903569718385,-16,0,0,-1,-3,10,1,-2
1526903569719382,-14,-11,-6,-3,-3,-6,-3,-7
1526903569719382,30,9,4,2,3,2,-2,4
1526903569741323,-17,-4,-3,-2,-4,-6,-3,-6
1526903569741323,17,2,-1,-2,0,10,-2,3
1526903569742321,6,5,12,4,1,-10,-3,3
1526903569742321,9,-1,-2,-3,0,4,-5,-3
1526903569756283,-9,5,4,-2,-2,2,-4,-2
1526903569756283,20,-5,-1,0,3,12,0,-3
1526903569756283,-34,-4,-7,-3,-4,-24,-5,-1
1526903569756283,12,-3,2,0,-4,24,1,-4
1526903569778224,-34,3,-6,-5,-3,-29,5,-3
1526903569778224,39,-3,2,5,1,4,2,4
1526903569779222,10,0,-2,0,-1,0,-3,-3
1526903569779222,-19,-3,-3,-1,1,-2,-6,-2
1526903569801163,-10,-8,-2,-1,1,5,1,0
1526903569801163,-13,6,-3,-3,-5,-5,-2,-2
1526903569802160,3,-1,1,2,2,-9,1,-1
1526903569802160,-1,-3,-4,-1,-2,-4,2,3
1526903569816123,45,7,4,1,0,-3,-3,-1
1526903569816123,-19,-5,-4,-3,-2,-2,0,3
1526903569817121,11,-2,1,2,1,3,0,-3
1526903569817121,21,1,1,-1,-2,-10,-2,4
1526903569838065,-16,-5,-5,-3,-1,7,2,-4
1526903569838065,28,12,4,0,1,4,2,7
1526903569839062,-62,-5,3,0,1,6,-2,-10
1526903569839062,-32,-6,-9,-7,-6,-13,-6,-5
1526903569862000,46,4,5,4,1,-6,2,6
1526903569862000,-15,-8,-3,-2,0,2,-2,-1
1526903569862000,10,0,-3,-2,-4,-5,-1,-1
1526903569862000,1,-2,4,3,3,12,7,4
1526903569875963,-35,0,-9,-6,1,12,-4,-9
1526903569875963,-2,5,1,5,-1,-7,7,1
1526903569876961,-2,-8,-2,-1,0,1,2,0
1526903569876961,-27,3,4,2,3,5,-1,-4
1526903569898902,11,-6,-2,4,-4,-4,0,3
1526903569898902,-1,0,-3,-4,-3,-2,-2,-3
1526903569898902,-4,3,-8,-4,0,-1,-4,-4
1526903569898902,66,1,0,-2,-2,-2,1,1
1526903569921840,-56,-8,4,4,1,-1,0,2
1526903569921840,-11,-6,-3,-3,-2,-7,-3,-7
1526903569922838,-7,3,4,2,-1,-2,3,3
1526903569922838,1,-1,-11,-7,-5,-5,-6,-2
1526903569935803,19,5,4,0,-1,-9,4,7
1526903569935803,5,-5,-2,-5,1,6,-1,-3
1526903569936801,-5,-2,2,6,-1,8,-2,4
1526903569936801,-40,-4,-2,-2,2,9,13,-2
1526903569958741,24,-5,0,0,-3,-14,-4,-5
1526903569958741,-15,6,2,1,0,2,3,8
1526903569959739,5,0,-3,-16,-2,9,-11,-4
1526903569959739,-62,6,-2,15,9,-43,-8,-3
1526903569981680,40,-14,-7,0,-5,-15,8,4
1526903569981680,-37,3,2,-3,-2,-1,-6,-6
1526903569982678,15,5,2,5,1,-3,3,3
1526903569982678,-2,-4,1,-9,-2,3,-3,-4
1526903569995643,-4,7,-2,-21,-4,7,-3,-3
1526903569995643,-5,-7,-8,21,10,-7,-5,-6
1526903569996640,13,-2,-1,-2,-8,-13,3,2
1526903569996640,8,-1,2,0,-4,3,-2,2
1526903570018582,-3,-5,3,7,4,7,-6,-6
1526903570018582,38,7,-3,-21,-11,-1,-3,1
1526903570019579,-6,1,2,3,0,-21,-4,-3
1526903570019579,11,-9,-4,1,-3,5,4,1
1526903570041520,-1,8,3,-4,0,0,-6,-3
1526903570041520,2,2,14,5,6,5,-2,2
1526903570042518,13,-6,-11,-11,3,-3,3,2
1526903570042518,15,-1,3,4,-2,1,-3,0
1526903570055483,-39,6,1,1,-2,-16,3,5
1526903570055483,-15,-6,-3,6,0,46,1,-10
1526903570063461,-4,-1,3,2,0,0,1,2
1526903570063461,22,0,0,-8,3,-1,1,2
1526903570078421,-9,-2,-1,-1,-17,3,-12,-2
1526903570078421,3,-10,-7,-8,6,-1,-4,2
1526903570079419,-44,4,0,8,2,-33,3,-5
1526903570079419,36,2,1,-5,2,30,2,2
1526903570101360,-11,3,2,-2,1,-20,1,0
1526903570101360,17,3,-1,10,-1,-12,6,0
1526903570102358,23,-8,-1,-5,-4,17,-11,3
1526903570102358,14,0,-3,1,-4,-10,-7,-2
1526903570115323,6,0,-7,-13,0,8,-3,-3
1526903570115323,-9,0,-2,-6,-8,-8,-4,0
1526903570123302,22,9,-2,3,3,6,1,0
1526903570123302,-32,-19,1,1,-3,-3,0,-5
1526903570138262,23,4,-1,0,2,16,1,0
1526903570138262,-26,-2,-4,-4,0,-10,1,0
1526903570139259,16,7,4,6,-2,-21,0,1
1526903570139259,-19,-1,-2,-3,2,15,-5,-1
1526903570161200,-4,-3,-5,4,5,-6,7,-3
1526903570161200,-16,7,1,-3,-9,-16,3,-5
1526903570162198,4,-8,-1,-3,1,11,2,6
1526903570162198,6,5,3,4,-7,-50,-4,0
1526903570175163,-9,-7,-2,1,1,-4,3,1
1526903570175163,-11,3,1,-7,9,-8,-4,-4
1526903570183141,-4,-4,-2,14,-8,23,3,-4
1526903570183141,-24,0,-7,-13,-4,-30,-17,-3
1526903570198101,24,-1,3,13,8,39,4,4
1526903570198101,-17,0,-3,-13,-18,-14,8,-1
1526903570199100,50,-1,-2,4,45,26,20,0
1526903570199100,-24,-3,6,13,1,11,6,4
1526903570222037,-14,6,0,-11,-1,-6,-8,-4
1526903570222037,24,-4,-5,-12,-7,46,-13,1
1526903570222037,-6,-4,0,-1,-11,-19,-2,1
1526903570222037,-28,0,2,1,2,11,3,-7
1526903570235003,46,7,1,4,-1,-32,2,4
1526903570235003,-11,-19,-9,2,-4,-6,0,2
1526903570242982,-43,6,1,-9,-18,-6,-8,-5
1526903570242982,15,-6,0,6,15,7,3,1
1526903570258939,-31,0,-2,0,-7,-3,-6,-10
1526903570258939,-31,16,6,5,1,-8,4,2
1526903570258939,55,-19,-7,-7,-6,1,-4,2
1526903570258939,-38,2,-2,-3,-5,6,3,-4
1526903570281877,5,-2,2,5,5,12,2,1
1526903570281877,9,3,-8,-5,-7,-24,-6,-2
1526903570282875,-33,0,3,-2,0,-3,2,1
1526903570282875,44,1,-1,-2,-6,-1,-3,4
1526903570294843,-8,-3,-6,0,-1,3,-1,-1
1526903570294843,13,-5,2,3,6,-1,-1,-2
1526903570303819,18,3,-3,-6,-14,-13,-11,-6
1526903570303819,-50,-5,-5,-11,-2,-3,5,1
1526903570318779,0,3,1,-8,3,-24,3,-4
1526903570318779,14,-4,2,23,-5,48,1,2
1526903570318779,-7,0,4,1,29,-6,-5,5
1526903570318779,36,-4,-2,-1,-5,10,-8,-3
1526903570341717,-51,3,3,3,1,-1,5,-3
1526903570341717,65,-1,2,-5,-1,-14,4,10
1526903570342715,-18,-12,-11,-11,-9,0,2,-3
1526903570342715,13,1,0,-2,-4,6,-1,-1
1526903570364656,-2,-1,-2,0,5,15,-6,0
1526903570364656,-42,-1,-3,1,-3,-13,1,-10
1526903570364656,19,7,8,9,6,15,0,3
1526903570364656,-4,4,1,-2,0,-11,-2,-4
1526903570378619,14,-9,-8,-2,-12,-3,0,2
1526903570378619,-1,6,1,-1,6,-3,-1,-2
1526903570379616,9,-4,0,0,-5,-1,0,-1
1526903570379616,-22,-3,-4,-1,1,2,2,-1
1526903570401557,4,-1,8,8,2,0,-5,0
1526903570401557,-7,4,2,-4,1,3,1,-3
1526903570402555,-5,-5,-3,0,-3,-4,-1,-1
1526903570402555,42,-1,2,1,-1,2,-2,2
1526903570424496,-7,4,1,-1,-6,0,-6,-2
1526903570424496,-16,-5,-5,-2,2,-15,4,-2
1526903570424496,-19,5,3,0,-6,6,-2,-4
1526903570424496,1,-1,-1,-1,2,5,3,6
1526903570438459,29,2,0,1,5,-3,-13,-2
1526903570438459,-13,-3,-2,-4,-7,8,1,-3
1526903570439457,4,4,4,0,-2,0,-4,1
1526903570439457,-32,-4,-4,3,0,-10,7,-2
1526903570461397,-28,-13,-8,-7,-4,2,3,0
1526903570461397,30,9,-1,-1,1,-9,-3,6
1526903570462396,16,-9,2,0,-5,4,1,1
1526903570462396,6,7,-1,-1,1,13,-6,-6
1526903570484336,-12,-10,-4,2,-2,-11,1,-1
1526903570484336,-21,-1,-3,-1,-1,-4,-1,-5
1526903570485334,-3,-2,-3,-3,-2,-8,-2,-2
1526903570485334,-5,2,-3,0,-3,-7,0,2
1526903570498299,2,-3,-2,0,-1,7,2,-5
1526903570498299,9,-1,4,1,4,6,-6,1
1526903570499296,-25,3,0,-3,-4,-1,-2,0
1526903570499296,-2,0,1,-1,1,-1,-5,-5
1526903570521237,8,3,-6,-2,-1,3,0,2
1526903570521237,5,-3,1,0,-1,-6,-2,3
1526903570522235,-9,2,-2,-3,0,2,-4,-4
1526903570522235,-38,-9,1,-4,-10,-9,-3,0
1526903570544176,24,-3,-3,-4,0,-10,2,-5
1526903570544176,-31,4,-1,4,4,1,0,-1
1526903570545174,31,1,-5,-6,-3,2,0,1
1526903570545174,12,-5,-5,1,-4,1,-3,3
1526903570558139,0,0,4,-5,8,5,5,0
1526903570558139,1,-3,-1,2,-6,-39,-4,2
1526903570559136,-3,7,-1,-3,-1,28,0,-1
1526903570559136,9,-4,-1,0,0,0,7,4
1526903570582075,-17,7,3,3,-2,5,-1,5
1526903570582075,23,-1,-4,-8,2,18,4,-2
1526903570582075,-12,-5,0,-9,1,-20,-4,4
1526903570582075,46,9,-1,0,-2,45,-7,-5
1526903570604016,-31,-8,0,2,15,11,12,2
1526903570604016,8,-3,1,9,-1,-2,-3,-4
1526903570605013,-29,-2,-1,-1,-2,-6,3,-2
1526903570605013,19,3,-2,-5,0,2,1,1
1526903570617979,10,6,7,6,-1,-1,-5,-1
1526903570617979,0,-9,-10,-10,-7,7,-11,-3
1526903570618976,2,-1,5,4,-1,-12,5,0
1526903570618976,-3,3,-5,-3,2,-27,-3,-4
1526903570641915,-3,0,-3,-4,-6,12,2,-2
1526903570641915,6,-4,2,-1,3,-3,-3,4
1526903570642912,0,0,-1,3,-5,3,5,0
1526903570642912,10,-4,0,-1,-1,-8,0,3
1526903570663856,16,4,-2,-1,3,-4,0,0
1526903570663856,-28,5,6,2,0,-5,-3,-8
1526903570664853,24,-10,-5,-2,0,-3,-2,-1
1526903570664853,-31,-3,0,4,3,-17,5,-3
1526903570678816,-2,4,0,1,10,2,-5,-3
1526903570678816,21,4,1,-6,-37,-6,7,9
1526903570678816,3,0,6,13,73,8,-2,-3
1526903570678816,-28,0,0,0,-3,2,-1,0
1526903570700757,18,-3,-1,1,-6,-17,2,4
1526903570700757,4,4,-1,-5,-2,-4,2,-2
1526903570701755,22,-5,-3,7,-3,-5,-4,0
1526903570701755,-48,-7,2,-2,8,11,-1,0
1526903570723696,59,8,-2,-1,-8,-10,-7,1
1526903570723696,5,0,2,2,7,6,-2,-2
1526903570724693,-34,1,-2,-7,-6,-2,-1,-5
1526903570724693,21,-2,-2,1,0,-2,-5,-2
1526903570738656,-2,0,1,-2,-10,-6,-2,1
1526903570738656,-51,-3,-3,-6,-7,0,0,-4
1526903570739653,49,4,-4,-4,-14,-3,-2,1
1526903570739653,-4,2,2,-1,-1,-3,4,-1
1526903570760597,-18,-1,0,-2,-3,9,-6,-5
1526903570760597,-3,-3,-4,-1,11,5,0,0
1526903570761595,-28,-3,2,2,-9,-1,-3,-3
1526903570761595,1,-3,0,0,2,-3,2,1
1526903570784533,4,4,-3,-3,-3,0,5,-3
1526903570784533,-24,-12,-4,-1,7,3,-9,1
1526903570784533,-31,-6,-2,-5,-14,-3,-2,-5
1526903570784533,52,0,-2,-3,-5,-4,-1,-3
1526903570798496,-53,-4,0,0,-1,-7,1,-3
1526903570798496,41,2,-3,0,1,9,2,0
1526903570799493,3,0,-4,-3,-5,-3,-8,-1
1526903570799493,-7,-8,1,0,-1,7,6,2
1526903570821434,-13,0,-4,-2,-2,-16,-2,-3
1526903570821434,45,-2,3,0,2,-13,-4,-1
1526903570821434,-40,-6,-1,-5,-8,5,3,4
1526903570821434,37,5,2,3,3,8,-3,1
1526903570844373,-11,-3,-6,-4,-4,-1,-1,3
1526903570844373,18,-1,-1,3,4,-4,2,-3
1526903570845371,-10,4,1,2,-1,-1,2,1
1526903570845371,7,5,2,-1,-3,-8,-2,-2
1526903570858336,-7,-3,-5,-5,-4,11,-4,-11
1526903570858336,-37,-5,0,-1,-1,-13,5,6
1526903570866315,4,9,-7,-2,-3,-15,-9,0
1526903570866315,25,1,0,-2,3,43,7,7
1526903570881275,19,-2,-1,1,3,22,-4,-6
1526903570881275,-3,4,1,-2,-14,-6,3,-2
1526903570882272,-1,-4,0,0,-9,-11,-2,-3
1526903570882272,-42,-1,-4,-6,-3,-3,0,2
1526903570904213,2,1,-1,-1,0,-2,-2,1
1526903570904213,-34,-6,4,1,7,19,2,1
1526903570905211,28,-4,-2,-4,-8,-9,5,0
1526903570905211,0,-6,-4,0,-3,-18,-8,-1
1526903570918176,-30,-3,-3,-4,-6,-5,3,-6
1526903570918176,16,4,0,2,4,0,-8,1
1526903570926154,-6,-6,1,3,0,4,0,-2
1526903570926154,-10,8,3,0,2,-5,-2,-2
1526903570941114,4,-7,3,-4,1,-6,5,5
1526903570941114,-39,4,-1,3,0,-2,0,-2
1526903570942112,-11,1,1,0,-1,9,0,0
1526903570942112,8,1,-2,-4,-7,-14,-6,-5
1526903570964053,25,5,2,4,-1,-3,-1,-1
1526903570964053,-20,-13,-3,-2,13,9,-2,-3
1526903570965051,10,6,-3,0,-12,2,1,-3
1526903570965051,-51,-1,1,2,3,5,0,-1
1526903570978016,-3,2,-4,-4,-6,-17,-5,-1
1526903570978016,22,-1,2,0,3,0,3,-1
1526903570979013,26,-1,-1,-4,-1,-2,2,9
1526903570979013,-6,-3,-1,2,3,14,-2,-14
1526903571000955,-35,3,2,-1,-6,1,-9,0
1526903571000955,21,-2,0,2,24,-24,1,2
1526903571001952,5,-5,1,-3,-9,38,3,-1
1526903571001952,26,3,-2,-2,-4,-12,0,2
1526903571023893,-16,-10,-3,0,-2,3,0,5
1526903571023893,5,-5,-7,-7,-10,-12,-5,-8
1526903571024891,8,3,4,3,3,-4,3,-1
1526903571024891,-12,-7,-2,-3,3,-7,-3,1
1526903571037856,31,4,-2,-3,0,1,0,-2
1526903571037856,-10,0,1,9,-9,-3,-3,2
1526903571045834,-15,2,-2,-1,3,7,2,-6
1526903571045834,37,-3,0,-3,-6,-1,-1,4
1526903571060794,-29,0,1,-3,-1,-8,4,0
1526903571060794,13,2,-1,7,0,9,0,0
1526903571061792,-29,-2,-3,-2,3,4,-6,-6
1526903571061792,-17,-13,-5,-3,-1,-19,2,-2
1526903571083733,33,5,-5,-33,-19,0,-9,8
1526903571083733,2,-4,0,-9,4,9,1,-5
1526903571084731,-4,9,2,40,3,3,0,0
1526903571084731,-7,-2,1,-1,-2,12,1,0
1526903571097695,-17,-2,-6,3,13,-3,2,1
1526903571097695,8,-2,-4,-24,-21,-10,-5,1
1526903571105674,7,-6,3,-13,-5,-32,1,4
1526903571105674,-1,2,2,8,5,-3,1,-5
1526903571120634,13,3,-1,3,-12,4,0,-1
1526903571120634,-10,-2,0,3,0,-7,2,1
1526903571121632,-1,-6,-1,-3,4,0,-1,1
1526903571121632,-14,7,1,11,-3,-5,-6,-42
1526903571144570,-40,3,1,4,6,0,2,26
1526903571144570,23,-4,4,5,-2,3,-3,-3
1526903571144570,-7,0,-1,-4,8,10,-4,5
1526903571144570,19,6,-2,-13,-8,-10,1,-13
1526903571157536,-14,-9,-4,5,-2,-8,-2,37
1526903571157536,2,7,-1,-2,-1,8,-3,-12
1526903571165514,-9,-8,0,-10,-5,4,2,-4
1526903571165514,22,6,-1,20,10,-7,-5,19
1526903571180474,-10,-5,0,7,-25,24,1,-16
1526903571180474,12,1,1,0,12,-6,5,8
1526903571181472,28,5,-2,-20,2,-16,-7,-9
1526903571181472,-33,-10,1,12,-2,8,-5,0
1526903571204410,27,0,-1,-5,3,-5,5,-6
1526903571204410,3,2,-3,16,-13,5,7,15
1526903571205408,-3,-5,-7,-14,-15,-3,-7,-5
1526903571205408,13,1,1,-4,6,3,2,9
1526903571226351,-10,3,1,-3,4,1,-2,-12
1526903571226351,-19,2,2,-3,-1,6,-1,-5
1526903571227349,54,-10,2,9,5,-29,5,10
1526903571227349,-23,1,-4,-10,-12,16,-7,6
1526903571241312,12,-4,1,1,5,-10,-7,-16
1526903571241312,-28,-2,-2,-2,2,4,5,-3
1526903571241312,-4,-1,6,11,4,0,3,3
1526903571241312,35,6,-1,-10,-2,-3,2,2
1526903571264250,-35,-17,-9,-7,1,-3,-1,-13
1526903571264250,-22,3,0,14,-2,-9,-7,-6
1526903571265248,13,-5,0,-1,-5,-1,-3,7
1526903571265248,-24,0,-2,-6,-1,-16,-1,6
1526903571278213,24,10,3,2,3,12,-3,-5
1526903571278213,-12,-12,-4,0,0,4,12,6
1526903571286192,-11,5,3,7,-16,-11,0,6
1526903571286192,-21,-8,-5,-3,31,-7,-6,-1
1526903571301151,12,5,2,9,4,27,13,-19
1526903571301151,28,5,-6,-17,-5,8,-21,-6
1526903571302149,-9,-4,-1,12,6,61,1,9
1526903571302149,13,-3,-2,-6,-14,-17,-4,5
1526903571324090,8,5,6,10,9,-4,0,8
1526903571324090,-18,-5,5,-14,-3,-8,1,-5
1526903571325088,-2,2,-11,-5,-1,-7,-4,-10
1526903571325088,-17,1,-1,-12,-7,-3,3,1
1526903571347029,15,-3,-1,3,4,8,-1,2
1526903571347029,-5,1,-1,-5,-4,-6,0,-2
1526903571347029,-19,6,3,-4,7,-7,-4,-3
1526903571347029,-20,-11,-2,3,-6,2,8,-1
1526903571360991,22,5,-1,-7,-1,-22,-4,-5
1526903571360991,24,-2,1,3,1,2,-1,1
1526903571361989,-46,-3,-5,-2,-3,-7,-1,-9
1526903571361989,28,7,-1,-7,-10,25,11,12
1526903571383930,14,-2,0,3,1,1,-8,-30
1526903571383930,12,-8,-1,2,4,-13,-3,16
1526903571384928,-20,-2,3,2,4,11,-7,-5
1526903571384928,34,5,3,5,2,-10,-4,-1
1526903571406869,-9,-3,0,-10,-5,-10,10,9
1526903571406869,-14,-9,-8,4,3,29,1,-6
1526903571407867,2,-3,3,10,4,-43,-3,-9
1526903571407867,-6,-2,-3,-6,-3,59,-2,-10
1526903571420832,-27,4,0,0,5,-7,1,6
1526903571420832,27,3,-5,-5,2,1,-3,-5
1526903571421829,10,7,6,8,-6,-3,1,7
1526903571421829,-20,-18,-12,-9,-2,-14,-4,-9
1526903571443770,-19,13,2,4,-9,-10,-16,-1
1526903571443770,-21,-4,1,-12,-7,-9,2,1
1526903571444768,55,-3,-1,9,7,13,2,-1
1526903571444768,-7,-1,2,3,-2,-16,4,3
1526903571466709,-34,2,-3,-3,-3,-2,1,-5
1526903571466709,-30,-8,-2,2,-2,-14,-9,-4
1526903571467707,13,1,2,-7,-1,2,2,-1
1526903571467707,11,2,2,2,2,-7,1,-2
1526903571480672,26,-4,-2,4,0,0,2,7
1526903571480672,0,7,2,-1,1,0,4,4
1526903571481669,-22,-3,-5,-9,-4,6,1,4
1526903571481669,6,-4,0,4,-1,-14,-8,-1
1526903571504607,-21,-3,0,-3,0,6,-5,1
1526903571504607,-6,0,3,2,-2,-14,14,0
1526903571504607,6,-2,-1,-5,1,2,0,-2
1526903571504607,-6,5,-4,-3,-4,-13,-5,-4
1526903571526549,7,0,0,3,5,10,-3,-2
1526903571526549,-14,1,1,0,0,-17,1,1
1526903571527546,9,-5,-5,-10,-9,14,1,0
1526903571527546,-18,3,0,-25,-8,-9,2,0
1526903571540511,17,0,2,29,9,7,3,3
1526903571540511,12,-1,-1,12,-4,-6,-6,-5
1526903571541509,-16,1,-4,1,2,-3,3,-2
1526903571541509,49,0,-1,-5,-6,-14,2,6
1526903571564447,-7,-16,-11,-32,-8,-7,3,0
1526903571564447,-10,5,3,4,2,9,1,-2
1526903571565445,16,-1,3,20,3,-10,-8,8
1526903571565445,-36,1,0,2,0,8,-3,3
1526903571586389,16,3,-1,2,-4,-9,0,-7
1526903571586389,18,0,-4,-10,-2,0,1,-3
1526903571587386,-36,-5,1,-10,0,5,4,1
1526903571587386,12,4,0,7,4,0,1,-3
1526903571601349,-2,-7,-1,-2,-3,-9,-6,-2
1526903571601349,52,-5,-8,-13,-8,12,-5,2
1526903571601349,-35,4,5,10,1,-1,1,-7
1526903571601349,20,-1,-2,0,2,-2,-3,-1
1526903571624287,-62,1,-3,22,5,4,5,0
1526903571624287,17,8,6,-2,-3,-14,-1,-8
1526903571625285,33,-10,-6,-14,-1,2,-3,0
1526903571625285,-24,1,-2,-7,-4,-3,-3,-9
1526903571646229,7,1,4,-9,-4,6,3,7
1526903571646229,-7,-3,-2,2,1,-12,-6,-4
1526903571647226,-19,1,-4,9,-1,-5,-5,-4
1526903571647226,46,2,0,9,2,3,6,2
1526903571661189,26,-6,-6,-11,-2,0,-5,2
1526903571661189,-27,3,-3,-1,-3,9,3,1
1526903571662186,9,-9,-1,-10,-1,-3,1,-3
1526903571662186,-6,7,4,8,1,1,-2,2
1526903571684128,14,2,-3,-5,-2,-7,-2,-7
1526903571684128,-2,-10,0,2,0,4,2,-1
1526903571685125,3,-2,-4,-4,-2,-9,-4,-3
1526903571685125,-32,-3,2,4,1,12,1,-1
1526903571707066,17,0,3,-2,-1,-7,5,5
1526903571707066,12,-1,-2,-5,0,10,-4,2
1526903571707066,-9,4,-1,-10,-6,-2,4,-2
1526903571707066,-12,-5,0,10,2,3,-7,-3
1526903571721029,-33,4,0,0,-1,-8,-4,-1
1526903571721029,38,1,-1,-3,-1,-4,-1,2
1526903571722026,-17,-5,-1,1,1,-4,-3,-8
1526903571722026,-11,-7,-4,-15,-6,-8,0,-4
1526903571743967,-11,1,0,8,-4,9,3,-3
1526903571743967,6,0,2,4,3,7,-4,4
1526903571744965,24,-3,-5,-9,1,-2,2,3
1526903571744965,-16,4,-6,-4,-2,-8,-5,2
1526903571766906,19,2,1,-5,1,-8,-9,-11
1526903571766906,-24,-6,-4,-4,-2,0,2,-5
1526903571767903,3,0,3,-1,-2,3,-3,0
1526903571767903,8,-1,-4,11,1,-1,-3,-2
1526903571780869,-11,-1,-3,0,-2,-1,0,5
1526903571780869,-3,3,4,1,3,5,3,3
1526903571781866,-2,-1,0,0,1,-6,-8,-8
1526903571781866,-3,-7,-1,-5,-3,0,-1,-1
1526903571803807,9,4,-2,-27,-6,-2,0,-4
1526903571803807,26,-3,0,15,9,-1,-2,2
1526903571804805,-2,0,-1,11,1,1,3,2
1526903571804805,-7,6,4,2,2,-4,-7,-6
1526903571826746,12,0,-2,4,-3,0,-3,0
1526903571826746,-13,-5,-3,-15,-6,-1,-1,-4
1526903571827744,-1,1,2,3,0,-3,-2,0
1526903571827744,12,1,2,4,2,1,1,1
1526903571840708,-2,-7,-7,4,2,7,4,-1
1526903571840708,-32,5,1,3,2,3,-2,-2
1526903571841706,18,3,3,-2,-1,4,3,5
1526903571841706,-44,-5,-9,-3,-4,-7,-1,-7
1526903571863647,16,0,4,2,0,-6,4,9
1526903571863647,-5,1,-2,4,-2,-4,-4,-9
1526903571864645,4,4,4,2,2,7,2,4
1526903571864645,3,1,5,-6,1,3,4,1
1526903571886586,-26,-3,-8,-3,-2,3,-6,-3
1526903571886586,0,4,1,4,-4,-5,-3,1
1526903571887583,-14,1,3,-7,-1,-4,1,-1
1526903571887583,28,0,-5,3,0,0,1,5
1526903571900549,-6,-1,-1,2,1,-4,0,0
1526903571900549,-32,-11,-1,-2,-3,1,3,-2
1526903571901546,22,3,-3,-4,0,0,-6,1
1526903571901546,-3,-2,1,-1,-6,-2,1,-3
1526903571923487,-2,3,3,2,4,9,-2,-3
1526903571923487,4,-4,-5,-10,-5,-7,2,1
1526903571924485,-9,1,0,9,7,-1,0,-1
1526903571924485,-16,1,1,12,3,0,-3,-4
1526903571946426,26,0,0,13,0,-3,7,3
1526903571946426,-9,1,2,-9,-4,-2,-4,-7
1526903571947423,2,3,-3,-11,-5,2,-2,-5
1526903571947423,-2,-6,-3,-8,-3,-9,1,6
1526903571960388,4,-3,0,-7,-1,0,-1,-2
1526903571960388,8,-4,-4,7,0,2,-4,1
1526903571968367,-15,2,0,-3,-3,-4,1,0
1526903571968367,9,5,-2,-3,-4,0,-3,-2
1526903571983327,6,-1,0,-2,0,-7,2,1
1526903571983327,-11,-1,2,4,1,4,-11,-4
1526903571984325,23,-2,-3,-3,1,3,-1,4
1526903571984325,16,2,-7,2,-5,-2,-1,-4
1526903572006266,5,-8,-8,-7,-3,-9,-3,1
1526903572006266,9,3,1,1,2,2,-1,3
1526903572007264,-1,-1,1,-2,0,4,5,-1
1526903572007264,-48,3,-3,-4,-2,0,2,-1
1526903572020228,-16,5,-1,0,1,-1,0,-3
1526903572020228,37,-4,1,2,-1,-1,0,4
1526903572028207,-25,-13,-1,-3,-6,-23,-3,-5
1526903572028207,9,0,1,-1,4,0,1,7
1526903572043167,6,-1,-3,-5,-5,-5,-4,-6
1526903572043167,-6,3,-2,4,2,9,2,2
1526903572044165,-8,-4,-3,10,1,12,1,-1
1526903572044165,-11,1,1,1,0,-5,1,-4
1526903572067103,16,3,2,2,0,-4,-3,2
1526903572067103,-12,-2,-3,-5,-2,-3,0,-1
1526903572067103,16,-4,-1,-2,-3,-3,0,2
1526903572067103,7,-1,0,-8,1,6,-2,-1
1526903572080069,-17,1,6,-2,0,6,-3,-1
1526903572080069,-16,-4,-7,1,-5,-8,5,-4
1526903572089044,16,0,-6,-12,-6,-13,-16,-6
1526903572089044,28,-2,0,3,3,16,3,3
1526903572103007,2,3,2,2,0,13,1,0
1526903572103007,-20,0,8,4,1,-11,2,0
1526903572104005,-16,0,-4,-4,0,22,5,5
1526903572104005,18,-2,-2,2,-2,3,-8,-6
1526903572126943,-1,1,-2,2,-8,-15,4,2
1526903572126943,-34,-3,0,-5,-2,-10,-3,-5
1526903572127941,-9,1,-4,-2,-1,-2,-9,0
1526903572127941,24,0,-4,-8,-8,1,0,5
1526903572139908,-16,-4,4,-2,5,5,3,2
1526903572139908,22,-3,-5,-7,-5,46,-6,-1
1526903572148884,-34,-5,1,5,1,-2,10,-5
1526903572148884,-8,1,-5,-5,-3,-7,-4,-4
1526903572163844,15,0,0,8,4,-10,-4,-5
1526903572163844,9,-11,-1,0,1,3,0,4
1526903572163844,-25,4,0,-1,0,5,2,-1
1526903572163844,8,-2,2,0,-3,6,0,1
1526903572186783,14,1,-3,-2,-2,3,2,0
1526903572186783,11,1,0,0,3,-8,-1,0
1526903572187781,18,-2,0,-1,0,-6,1,-5
1526903572187781,-40,4,2,-3,1,-5,-1,-3
1526903572200746,14,7,0,0,-5,-3,-1,0
1526903572200746,-44,-10,-7,2,4,2,-7,-1
1526903572208724,33,3,0,-5,-13,-41,-7,1
1526903572208724,1,2,-1,2,2,0,5,-2
1526903572223685,32,-4,-2,-5,0,-4,-5,0
1526903572223685,-23,2,-5,-3,2,-8,10,-2
1526903572224682,3,2,-1,-4,-2,11,4,-1
1526903572224682,-8,-12,-2,15,9,-14,2,-1
1526903572246623,-28,0,1,0,-10,23,-6,-6
1526903572246623,42,-4,0,-18,-6,-20,-5,4
1526903572247621,-11,1,-2,6,-1,-1,-2,-2
1526903572247621,-8,3,0,5,1,-6,-4,-6
1526903572260586,-59,-4,-2,0,2,-4,-3,-4
1526903572260586,59,7,6,-5,-7,1,-1,0
1526903572268564,-39,-7,-6,-23,10,9,0,-1
1526903572268564,33,1,7,30,2,1,0,3
1526903572283524,16,-3,-5,0,1,8,1,1
1526903572283524,-67,2,-1,3,-2,7,-2,-5
1526903572284522,52,4,2,-6,1,-27,-1,0
1526903572284522,-3,3,1,-8,-12,-3,-3,-3
1526903572306463,-12,-9,-4,2,4,-5,-5,-1
1526903572306463,18,3,5,5,1,-3,8,8
1526903572307461,11,-3,-11,-22,-10,7,-9,-3
1526903572307461,-20,0,3,33,9,0,0,-3
1526903572329402,-13,3,1,-5,-3,-24,1,-1
1526903572329402,31,-1,-4,4,0,21,-3,-1
1526903572330399,-22,-6,-4,-1,-8,5,-6,-5
1526903572330399,14,0,-6,-22,-2,13,11,3
1526903572343364,-18,-1,-1,1,1,-1,-2,-4
1526903572343364,14,4,-1,0,-3,-16,-2,6
1526903572344362,-4,-10,2,11,-3,6,2,1
1526903572344362,-12,-1,-4,-21,-4,0,-2,-1
1526903572366304,8,4,1,23,4,7,7,1
1526903572366304,4,-2,0,1,-1,-41,-14,-10
1526903572367301,-4,0,3,5,-2,37,-5,-2
1526903572367301,9,2,-4,-21,-6,-5,-3,2
1526903572389242,-5,-2,0,-6,-3,-8,-1,-1
1526903572389242,-21,3,0,-1,-6,-4,0,-8
1526903572390239,29,1,4,7,15,-4,4,7
1526903572390239,-5,-9,-1,11,-4,-1,1,-2
1526903572403204,7,-2,4,1,5,7,-2,-2
1526903572403204,-8,-3,-5,10,-3,-5,-4,1
1526903572404202,-6,8,2,-9,2,8,5,-2
1526903572404202,-5,0,-2,-7,0,-10,-4,0
1526903572427140,1,-2,0,-8,-4,-4,-2,-2
1526903572427140,20,1,0,0,1,6,4,3
1526903572427140,-17,-5,-5,3,-4,-11,0,1
1526903572427140,-10,10,4,-9,3,2,-4,-2
1526903572449081,4,-3,-7,5,-4,-12,-2,2
1526903572449081,-11,-4,0,-10,3,-2,5,0
1526903572450079,2,1,2,9,0,15,3,1
1526903572450079,-5,1,-1,-1,-2,1,-6,-6
1526903572463044,19,-8,-2,-13,-14,-61,5,5
1526903572463044,-4,3,-1,2,0,1,-10,0
1526903572464042,23,-3,-2,2,-2,-1,-5,-4
1526903572464042,-73,-8,0,-6,-2,-8,5,-1
1526903572486981,20,1,-3,-1,6,17,-6,-3
1526903572486981,14,4,2,1,0,2,-3,-3
1526903572487978,-3,-6,0,1,-3,-14,4,3
1526903572487978,4,-1,-7,-2,0,12,-2,1
1526903572508922,-4,1,-3,-5,0,-7,2,0
1526903572508922,-9,0,-1,-4,-1,6,2,1
1526903572509919,6,-7,-1,15,3,1,-2,1
1526903572509919,16,2,-2,-6,-2,-3,0,-1
1526903572523882,-28,-6,1,-4,-1,15,0,-4
1526903572523882,8,-1,-6,-4,0,-6,3,0
1526903572523882,-1,2,2,0,-1,-12,-6,-3
1526903572523882,30,-8,-6,-7,-2,-1,-1,1
1526903572546820,11,4,0,4,1,5,-2,-1
1526903572546820,-10,4,3,-1,0,-3,-3,-3
1526903572547818,-20,-3,1,2,0,-5,2,0
1526903572547818,13,4,-5,-10,-4,3,-10,-6
1526903572568761,-10,-1,-5,14,8,35,7,-2
1526903572568761,-17,-4,2,1,1,-16,13,2
1526903572569759,0,4,3,2,-2,37,-10,-4
1526903572569759,12,1,2,2,-2,-23,-1,4
1526903572583722,-19,0,-4,-10,-6,-3,-5,0
1526903572583722,5,-6,2,1,1,6,-5,-4
1526903572584719,0,-2,0,2,3,-8,4,3
1526903572584719,10,-1,-1,-8,3,8,4,-5
1526903572606660,-9,-1,0,17,-7,-6,-8,-3
1526903572606660,27,2,-1,2,3,18,4,4
1526903572607658,21,3,-1,-10,-7,-22,-13,2
1526903572607658,-24,-6,-6,-5,-6,4,1,-3
1526903572629599,-22,6,2,-6,4,-4,2,-4
1526903572629599,-2,-4,-2,10,-1,4,-2,0
1526903572629599,-23,10,2,1,1,-4,-6,-5
1526903572629599,9,-10,-4,-2,0,-4,5,8
1526903572643561,0,0,2,-8,-6,0,-2,1
1526903572643561,20,-3,0,-2,0,1,0,-3
1526903572644559,-43,-4,-6,-6,0,1,4,1
1526903572644559,23,2,1,6,2,-2,-4,-4
1526903572666500,18,-1,-2,-5,-2,0,-3,-2
1526903572666500,-9,-3,1,3,0,-8,-7,-5
1526903572667498,23,2,-5,1,1,-3,9,7
1526903572667498,-27,2,-1,1,-2,1,-2,-7
1526903572689439,5,-11,-3,-6,-4,-4,-2,2
1526903572689439,-11,1,1,0,-1,4,-3,-3
1526903572690436,16,1,-6,-12,-7,0,-1,-6
1526903572690436,-18,-5,-4,-2,-2,-6,-3,4
1526903572703401,-12,2,6,3,6,9,3,1
1526903572703401,-9,-3,1,0,1,2,-2,2
1526903572704399,-46,-6,0,3,-3,-2,-2,-8
1526903572704399,3,11,7,2,0,0,8,-2
1526903572726340,6,-10,-6,-8,-4,-5,-1,2
1526903572726340,-9,-10,-8,-6,-4,1,-5,-2
1526903572727338,-2,0,1,2,0,-1,-3,-2
1526903572727338,-13,3,-1,0,0,-2,-4,-3
1526903572749278,-6,-2,5,2,3,4,2,0
1526903572749278,11,1,-4,-1,-2,2,4,2
1526903572750280,8,2,-1,-1,-1,-7,-4,-4
1526903572750280,7,0,-1,2,-1,-3,-4,-1
1526903572763241,-5,-4,-2,-2,1,5,4,0
1526903572763241,28,6,0,1,-1,-12,-6,-1
1526903572764239,-22,-16,-7,-2,-1,-3,7,2
1526903572764239,30,5,-1,3,2,3,-4,1
1526903572787177,-26,1,-1,-3,-3,-7,-7,-8
1526903572787177,2,-1,5,2,1,5,0,0
1526903572788175,7,0,0,2,1,2,1,-1
1526903572788175,-3,2,3,-6,-7,-6,4,5
1526903572809119,13,3,1,7,4,12,-4,-2
1526903572809119,-4,-5,-5,2,-2,-2,-4,1
1526903572810116,23,4,2,1,-2,-6,10,0
1526903572810116,-9,-10,-6,2,6,-7,-9,-8
1526903572823081,27,7,-5,-8,-8,-7,-5,4
1526903572823081,-29,-5,1,-3,3,0,9,-1
1526903572824079,-5,0,4,3,1,-3,-4,-3
1526903572824079,16,-1,-10,-4,0,11,-4,3
1526903572847017,-19,3,4,0,-7,-5,11,0
1526903572847017,5,-5,-2,-4,-2,2,-1,0
1526903572847017,-18,-5,-3,-7,-1,-3,0,-3
1526903572847017,-5,7,-2,1,-2,-6,-8,-4
1526903572868959,25,-8,2,-1,2,1,0,2
1526903572868959,6,-4,-2,-2,-4,-3,-1,1
1526903572869956,-20,-6,-7,-5,-2,0,-2,-9
1526903572869956,-10,0,5,4,0,5,0,0
1526903572883919,-14,8,-1,3,0,-2,4,2
1526903572883919,-16,-5,-8,-10,-8,-5,-5,-4
1526903572883919,14,-1,6,3,1,2,-2,3
1526903572883919,9,2,-4,3,3,0,3,0
1526903572906857,-11,-3,-4,-6,0,1,-1,-1
1526903572906857,10,8,5,2,5,2,3,4
1526903572907855,14,-8,-9,-5,-6,12,-11,-4
1526903572907855,-9,-4,5,-5,-3,-5,15,4
1526903572928799,55,3,-3,-11,-5,1,-5,3
1526903572928799,-30,2,5,13,5,5,-4,-5
1526903572929796,30,5,5,16,5,-5,-3,5
1526903572929796,-55,-12,-8,0,-2,1,1,-10
1526903572942762,33,-2,-1,-2,-1,-3,-5,2
1526903572942762,18,4,1,-8,-4,-2,3,-1
1526903572950740,-10,0,-3,-4,-2,0,-4,1
1526903572950740,7,-3,0,-2,-4,0,1,1
1526903572965700,-30,2,5,4,3,-3,-2,-2
1526903572965700,10,-7,-14,-7,-2,-3,-4,-2
1526903572966698,5,5,7,3,0,0,4,2
1526903572966698,-3,-2,1,-2,-1,0,-3,-2
1526903572989636,-1,-6,-3,6,3,-1,2,-1
1526903572989636,-3,-3,-2,-2,-4,-1,-1,2
1526903572989636,43,10,1,-4,-2,-1,0,6
1526903572989636,8,-12,-3,-4,-1,1,-10,-7
1526903573002601,-22,0,-2,-2,-2,2,-1,-5
1526903573002601,7,3,6,4,1,-7,3,3
1526903573010580,7,-1,-3,-6,-2,9,2,0
1526903573010580,-6,-2,-1,-14,0,-7,0,2
1526903573025540,-4,0,-7,19,1,-5,-2,-3
1526903573025540,-6,-3,1,2,3,2,2,-2
1526903573026537,-4,3,-2,-5,-3,-1,-7,1
1526903573026537,17,7,6,0,-1,-2,7,0
1526903573049476,-15,-4,-8,-4,-1,-3,-3,-4
1526903573049476,15,3,5,6,2,3,2,-1
1526903573050474,-8,0,-1,0,0,-8,-3,1
1526903573050474,4,-4,-2,0,-1,6,-4,5
1526903573062441,13,-3,-1,-12,-4,-14,1,-5
1526903573062441,-21,-6,0,0,-4,3,-5,-1
1526903573071417,-5,6,4,1,4,1,4,-2
1526903573071417,-18,1,-8,-6,-4,-3,-2,-3
1526903573086377,-4,2,1,-3,-1,5,0,2
1526903573086377,17,-2,1,1,2,0,-2,-1
1526903573086377,-22,-2,-5,-4,-3,-5,1,-1
1526903573086377,3,5,-1,11,2,-2,-4,-2
1526903573109316,-10,-3,1,0,0,-2,-2,0
1526903573109316,4,0,1,-1,-4,6,0,0
1526903573110313,-13,1,1,-8,-1,-5,4,0
1526903573110313,26,-1,-4,-6,-2,0,3,3
1526903573123279,-2,4,1,6,4,-6,-17,-11
1526903573123279,26,-5,-2,-2,-7,1,8,5
1526903573131257,-29,-3,-4,2,-1,-8,-7,-6
1526903573131257,-18,-2,1,3,0,6,7,2
1526903573146217,1,-6,-2,-14,-5,-5,-2,-3
1526903573146217,-17,4,0,2,0,-7,-7,0
1526903573147215,-3,-2,-1,-1,0,3,7,-4
1526903573147215,3,7,7,7,1,-1,-1,6
1526903573169156,-31,-7,-5,-2,-6,-2,0,-7
1526903573169156,-17,-1,0,1,-4,-3,-10,0
1526903573170154,15,-4,-1,-4,-1,3,-2,-1
1526903573170154,21,6,5,8,-3,-2,-2,1
1526903573183118,-16,-7,-4,-8,-5,2,-1,2
1526903573183118,8,2,2,-3,-1,0,6,-2
1526903573191097,-13,-4,-3,0,-4,-2,-2,2
1526903573191097,-16,-1,-1,-4,0,-2,-4,-7
1526903573206057,22,5,1,1,2,3,1,6
1526903573206057,-15,-6,-5,-3,-3,-2,-1,-6
1526903573207055,0,-2,-1,-1,1,-3,-2,-1
1526903573207055,-1,3,2,7,-1,-3,-1,-4
1526903573228996,23,-2,-1,-1,2,12,5,4
1526903573228996,-9,-1,-7,-9,-3,-4,-4,-3
1526903573229993,-1,0,5,5,2,-6,1,-1
1526903573229993,8,0,-7,6,-1,2,1,-1
1526903573251935,-7,1,6,7,4,-7,-5,-1
1526903573251935,4,-2,-1,-9,-8,16,3,2
1526903573252932,8,5,1,-8,1,-14,-10,-4
1526903573252932,-15,-12,-7,-31,-1,9,0,2
1526903573265897,-3,1,6,71,5,-3,20,1
1526903573265897,30,3,-4,-9,-4,-1,-1,-1
1526903573266897,-12,4,-3,-3,-22,10,1,-2
1526903573266897,12,2,-2,-15,0,-8,-16,0
1526903573288836,-28,-1,1,-16,-4,1,-4,0
1526903573288836,16,-6,2,0,4,-5,1,1
1526903573289833,17,0,-4,15,-3,1,1,-3
1526903573289833,-21,6,1,4,0,-2,0,-3
1526903573311774,-5,-2,-3,-16,-9,-20,-4,-2
1526903573311774,-1,-3,0,8,0,4,1,-2
1526903573312772,-12,-6,3,4,10,8,-3,1
1526903573312772,20,3,-6,1,-4,-8,7,-3
1526903573325737,-1,-8,0,-2,2,0,-10,-2
1526903573325737,-14,0,1,-5,1,-3,-1,5
1526903573326735,3,-2,-2,-2,2,3,-5,-8
1526903573326735,-4,-1,0,5,-7,-19,-1,0
1526903573349673,4,0,-6,-29,-8,5,-3,-3
1526903573349673,12,1,4,36,18,4,1,3
1526903573349673,12,-2,-5,-13,2,-14,2,3
1526903573349673,-55,-4,2,27,3,8,-6,-3
1526903573371615,37,3,0,-20,-9,-17,0,-6
1526903573371615,3,-2,0,-4,1,10,2,1
1526903573372612,2,2,-8,-6,-3,-6,-1,-3
1526903573372612,-12,-4,-4,-24,-3,-13,-2,-2
1526903573385577,0,10,3,27,-2,21,-5,14
1526903573385577,47,-10,-2,-5,2,-9,2,-12
1526903573386575,-18,-6,1,1,0,1,2,-13
1526903573386575,8,7,-4,-16,-4,-6,-4,5
1526903573409513,-23,1,-2,3,6,6,4,-12
1526903573409513,5,5,6,7,-2,-8,-4,8
1526903573409513,-17,-10,-10,-6,-1,12,-3,0
1526903573409513,5,-4,-3,0,-3,1,8,-6
1526903573431454,9,3,4,10,12,-16,-5,1
1526903573431454,-18,-1,-1,-3,-1,18,3,-1
1526903573432452,0,6,1,-1,-12,1,-4,3
1526903573432452,-45,-26,-5,0,-3,5,-1,-2
1526903573446414,51,9,0,-3,13,-1,7,5
1526903573446414,-53,-8,-2,-6,-3,-9,5,-2
1526903573446414,22,1,1,-13,-5,2,5,1
1526903573446414,4,9,-5,17,-3,-12,-6,-4
1526903573469353,-16,-5,0,8,3,23,0,2
1526903573469353,-14,4,1,-5,-5,-4,-7,-6
1526903573470351,2,-1,2,-3,8,-14,6,4
1526903573470351,1,7,4,8,-3,-14,-7,-5
1526903573491294,-1,-12,-1,-15,-3,-6,0,0
1526903573491294,18,3,-10,-2,1,10,-4,3
1526903573492292,-28,-1,3,11,0,-18,-1,0
1526903573492292,35,7,6,0,8,22,0,0
1526903573506255,-30,-3,-1,-3,-2,12,1,-5
1526903573506255,-39,1,-2,-8,-4,-16,-12,-4
1526903573507252,4,-6,0,2,4,21,-2,-4
1526903573507252,13,-6,-5,-2,-2,-8,-2,-1
1526903573529193,21,1,-2,-5,-6,6,6,3
1526903573529193,9,-2,2,-6,-2,-5,0,-2
1526903573530190,-1,3,-4,-1,-2,-7,-5,-5
1526903573530190,23,4,4,3,1,7,4,5
1526903573552132,-19,-7,-2,-6,-5,-14,1,-5
1526903573552132,8,-10,0,2,0,-4,-5,3
1526903573552132,2,7,0,5,0,-7,2,1
1526903573552132,28,5,-3,-8,-1,11,4,2
1526903573566094,-26,-6,-3,-5,-6,3,-2,2
1526903573566094,-18,2,0,1,4,-6,-1,-5
1526903573567092,-17,-3,-2,2,-1,0,-3,-1
1526903573567092,30,2,2,-2,-4,1,0,-1
1526903573589033,-5,0,0,-1,-2,-8,-2,-2
1526903573589033,-14,3,0,0,-2,1,2,0
1526903573590031,-16,-5,0,-3,1,19,-2,-1
1526903573590031,28,-2,1,1,2,-9,-1,3
1526903573611972,-29,-6,-4,-6,-7,5,-5,-3
1526903573611972,4,7,3,9,0,-12,9,-2
1526903573612969,16,4,0,0,5,2,-2,7
1526903573612969,-83,-6,0,1,0,10,-2,-14
1526903573626931,90,4,-1,-2,0,-4,-1,11
1526903573626931,-24,-7,-3,-7,-1,3,-4,-5
1526903573626931,-6,2,1,2,-4,-10,1,-1
1526903573626931,-1,-1,-4,-1,-1,-1,0,3
1526903573648873,-4,-3,-6,-3,0,-4,4,1
1526903573648873,10,2,0,-1,-5,5,-5,-2
1526903573649871,13,3,0,1,5,-3,4,0
1526903573649871,-2,-2,-1,-2,-3,-4,-1,-3
1526903573671812,-31,-6,-1,-1,1,1,-2,-3
1526903573671812,39,-2,-1,1,-1,-1,3,7
1526903573672809,-21,-3,-3,-2,-2,-1,-2,-5
1526903573672809,2,3,1,-1,-2,1,-7,-2
1526903573685774,-5,1,1,-1,-2,-5,8,1
1526903573685774,-16,0,-3,0,0,0,0,0
1526903573693753,48,2,5,3,-1,0,0,1
1526903573693753,-18,-3,-15,-9,-6,-2,-2,-1
1526903573708713,-8,-4,-1,0,-1,-1,-6,-5
1526903573708713,3,-4,-4,-2,1,-2,-2,3
1526903573709710,-16,3,1,1,2,3,1,1
1526903573709710,14,3,5,1,-2,-12,3,5
1526903573731651,-3,0,4,2,1,-2,1,-1
1526903573731651,10,0,-8,-5,-7,-10,9,-2
1526903573732649,-21,-11,-6,-2,-4,-10,-13,-6
1526903573732649,10,5,3,1,2,0,-3,5
1526903573745614,22,-10,-4,-1,-1,-5,-6,2
1526903573745614,28,1,4,3,0,2,-6,-4
1526903573746612,32,1,-1,-4,-2,4,5,2
1526903573746612,-22,7,0,0,-2,-10,-2,-3
1526903573769550,-40,-1,1,-2,0,4,-3,-5
1526903573769550,9,-10,-3,-5,0,1,-4,-6
1526903573769550,0,5,0,-4,-4,2,3,3
1526903573769550,7,-6,-4,-1,3,5,-4,-1
1526903573791491,8,-2,-1,4,0,-1,1,-2
1526903573791491,-43,6,6,2,4,2,4,1
1526903573792489,6,-4,-10,-8,-2,-7,-5,-3
1526903573792489,35,-2,2,-4,-1,3,1,1
1526903573806451,-8,2,1,-1,0,-2,-2,-1
1526903573806451,-5,-6,-1,-3,-4,0,0,2
1526903573806451,-5,1,-3,0,-5,0,-3,-5
1526903573806451,4,4,3,2,5,3,-1,0
1526903573829390,-18,-2,2,12,0,-8,-8,-10
1526903573829390,11,1,3,-5,-2,21,2,2
1526903573830388,17,0,1,-2,0,-1,3,1
1526903573830388,-37,-9,-5,-4,-2,1,0,-1
1526903573851332,2,3,0,-1,-1,-14,4,3
1526903573851332,-1,-1,2,-4,2,4,-1,-1
1526903573852329,-8,-4,-8,1,2,10,8,0
1526903573852329,-40,5,1,1,1,-1,1,1
1526903573865294,48,-3,-5,-6,-3,4,-4,-1
1526903573865294,-37,-7,-1,1,-4,-11,-7,-5
1526903573873273,20,8,0,-2,0,-2,-3,2
1526903573873273,-11,-15,-3,0,-1,1,5,0
1526903573889230,12,10,0,-1,-2,-3,0,0
1526903573889230,-4,-6,-10,-5,-2,1,-4,-3
1526903573890228,2,0,4,2,-1,-3,-4,1
1526903573890228,-4,1,4,2,2,3,5,-3
1526903573912169,5,-4,0,-1,0,0,-2,5
1526903573912169,16,1,0,-1,0,-4,1,-2
1526903573912169,-13,0,-2,-9,-7,0,-3,-4
1526903573912169,1,1,-2,-3,-2,-5,-1,2
1526903573925134,-5,-5,-2,15,4,2,2,1
1526903573925134,14,6,0,2,1,-1,-4,2
1526903573933113,-43,-7,-2,-1,-4,-11,0,-1
1526903573933113,36,-3,1,-8,-3,2,1,-1
1526903573949070,-13,6,1,-6,-2,5,1,-2
1526903573949070,19,-3,-2,4,2,-4,-7,2
1526903573950068,-11,-11,2,1,-1,-3,-1,0
1526903573950068,28,4,-5,1,-1,2,4,-2
1526903573972009,-36,-5,-1,-3,-1,4,-8,-2
1526903573972009,25,4,1,1,0,-5,3,3
1526903573972009,-4,-1,1,1,3,4,0,-3
1526903573972009,-9,1,4,6,3,-1,-2,-2
1526903573984974,0,5,-1,-4,-3,5,2,2
1526903573984974,23,-2,-2,-4,-2,-7,-2,-1
1526903573993950,-5,-1,-1,1,0,4,1,1
1526903573993950,1,-1,-4,-1,-2,0,-6,-7
1526903574008910,16,-8,-1,-3,0,-2,1,1
1526903574008910,-36,-4,-2,-3,-2,-1,-2,-6
1526903574009908,16,2,2,7,3,-3,-3,0
1526903574009908,0,0,-5,-4,-1,-2,-3,-1
1526903574031849,6,9,-2,1,-5,-8,-3,-2
1526903574031849,-20,-10,-2,2,-3,0,3,-1
1526903574032846,-26,4,3,2,3,4,-2,-6
1526903574032846,-1,5,4,-2,-2,-12,0,0
1526903574045811,7,-9,0,-3,1,1,-3,1
1526903574045811,10,13,-3,-3,-2,-10,6,-1
1526903574053790,-25,-11,-4,-4,1,1,0,1
1526903574053790,-22,-8,-2,-6,-3,1,2,0
1526903574069747,37,4,6,10,3,4,0,2
1526903574069747,-11,0,-1,-6,-10,-4,-3,-11
1526903574069747,4,-2,0,6,1,9,-7,2
1526903574069747,-34,2,-1,4,0,-8,0,-4
1526903574091689,30,-4,-5,-3,-1,-10,1,4
1526903574091689,-21,-3,-1,-5,-1,14,3,2
1526903574092686,6,3,-1,-6,-3,-4,-13,-3
1526903574092686,-28,-1,0,0,1,4,1,0
1526903574105651,-4,-3,1,-4,-5,-2,-3,-5
1526903574105651,3,4,-3,-1,-1,-7,0,2
1526903574113630,-25,-5,0,-2,-2,-2,7,-3
1526903574113630,42,-2,-3,2,-2,0,-4,3
1526903574128590,-32,-2,-2,-16,-5,3,3,-3
1526903574128590,-7,0,2,1,8,2,1,6
1526903574129588,-25,2,0,21,2,8,-4,-8
1526903574129588,24,-2,-8,-11,-7,-23,-5,-4
1526903574151529,-6,-3,0,6,-1,-4,1,1
1526903574151529,-1,-1,-3,-7,-4,0,-3,0
1526903574152526,36,5,-1,-2,1,-9,-3,1
1526903574152526,-33,-6,-2,-3,-2,9,6,0
1526903574165491,2,-1,-3,3,5,12,-6,-1
1526903574165491,39,2,3,16,0,-4,5,-2
1526903574173470,-40,-5,-1,-2,1,-17,3,-3
1526903574173470,38,3,-2,4,-3,9,-2,6
1526903574188430,-10,10,3,-11,7,1,0,-5
1526903574188430,-27,-14,-10,-2,-9,7,-4,4
1526903574189428,56,4,-4,0,-1,-2,5,-1
1526903574189428,-17,-2,1,-7,-2,-3,2,-6
1526903574211368,-10,-4,-2,-15,-3,-3,-7,-5
1526903574211368,-14,2,7,30,8,-9,0,4
1526903574213364,-7,0,-3,-5,0,8,2,4
1526903574213364,1,-10,-3,1,-1,-6,-3,-8
1526903574234307,2,1,-5,-6,-7,11,3,4
1526903574234307,-8,0,-1,-9,2,-10,-2,-5
1526903574235305,23,-1,0,6,-18,5,1,4
1526903574235305,-32,-3,0,19,3,7,3,0
1526903574248270,-18,-2,1,2,2,-4,-3,-6
1526903574248270,-1,-3,-5,-25,-5,2,-6,0
1526903574249267,17,1,-6,-17,-10,-24,5,-10
1526903574249267,0,5,2,-3,7,28,-4,0
1526903574271209,6,-2,-3,3,-5,-10,1,3
1526903574271209,6,0,7,24,2,4,-8,-4
1526903574272206,17,4,-2,-2,3,0,10,3
1526903574272206,0,1,1,-6,-5,-9,1,0
1526903574294147,-1,-5,-1,1,2,3,2,2
1526903574294147,15,1,1,-9,2,5,-3,1
1526903574295145,-14,-3,-1,-1,0,8,7,-1
1526903574295145,-4,5,1,2,2,-9,-14,-5
1526903574308110,10,7,2,-2,-10,3,-1,0
1526903574308110,-3,-14,-5,5,0,-2,7,2
1526903574309108,22,6,-2,-8,2,-1,-6,-2
1526903574309108,-6,-4,2,5,0,-1,0,4
1526903574332046,13,-7,-6,-2,-4,-2,4,-8
1526903574332046,3,2,-1,-7,1,-3,3,-3
1526903574333044,-9,-1,-1,5,0,1,-5,5
1526903574333044,24,10,-1,-4,-2,-8,-1,-1
1526903574353987,10,-11,0,-11,2,3,5,7
1526903574353987,-32,-6,0,5,0,-2,6,4
1526903574354985,-19,-3,-5,-7,-2,-6,-7,-23
1526903574354985,2,5,-2,-7,-3,-2,-5,-3
1526903574368947,19,2,1,0,2,-4,1,5
1526903574368947,-21,6,-1,-3,1,2,-5,-14
1526903574368947,44,-4,0,2,3,-2,-6,13
1526903574368947,-23,0,-6,-9,-6,-12,-3,-7
1526903574391886,-8,-3,-3,-1,-2,0,0,0
1526903574391886,12,1,1,-5,-5,-4,2,0
1526903574392884,-29,6,2,-9,1,8,0,-3
1526903574392884,13,-1,-4,7,-6,-9,-4,-1
1526903574413827,-36,-12,0,19,42,2,-1,2
1526903574413827,3,0,1,2,-6,-5,-13,-1
1526903574414825,-23,-6,-4,-3,-3,-14,-3,-5
1526903574414825,-2,-1,-1,-21,0,42,17,6
1526903574427790,-15,7,2,12,-10,-16,-23,-4
1526903574427790,5,-3,-6,14,6,16,6,-4
1526903574436766,19,-3,1,-12,1,-1,-1,0
1526903574436766,-23,-3,2,6,4,-3,2,-2
1526903574451726,-13,-2,-1,-5,-9,-6,-3,-2
1526903574451726,14,-1,-5,-13,0,21,5,6
1526903574453721,-10,4,0,1,-4,-1,-4,-1
1526903574453721,6,3,0,6,2,-2,-3,-4
1526903574474665,3,-7,1,0,-5,0,3,1
1526903574474665,-9,-3,-5,-6,-2,-14,-2,-3
1526903574475662,5,3,-4,-2,0,7,8,8
1526903574475662,1,0,3,-1,-1,-25,-9,4
1526903574487630,-5,0,-1,7,-2,2,7,-4
1526903574487630,7,-4,2,2,-1,4,-1,-4
1526903574496606,-23,0,-12,-3,-1,-6,2,-7
1526903574496606,9,-4,1,-1,1,5,-4,3
1526903574511566,13,7,-2,-1,-6,-8,2,-3
1526903574511566,-13,-1,3,-11,-5,-5,-2,1
1526903574513561,-25,5,11,5,9,14,-3,3
1526903574513561,7,-10,-9,21,2,-9,2,-5
1526903574534505,-1,-6,-4,-6,-1,13,3,3
1526903574534505,-1,2,-1,-5,-4,-13,-5,2
1526903574535502,7,-2,1,-5,-6,-4,0,-3
1526903574535502,14,-1,-1,-7,2,-8,-4,-1
1526903574547470,4,4,0,-2,-9,-4,11,-3
1526903574547470,-22,-8,-2,5,4,-5,-9,-12
1526903574556446,-8,1,0,4,-2,-2,-7,1
1526903574556446,14,-1,1,0,4,-4,2,4
1526903574571406,-3,-3,-9,-6,-10,-2,-5,-9
1526903574571406,20,3,3,-8,1,-2,0,3
1526903574573401,-24,-8,1,-3,0,-9,0,4
1526903574573401,15,0,-5,-9,-5,-7,0,-1
1526903574593347,22,-1,0,4,6,18,-4,3
1526903574593347,-22,8,0,3,-4,-17,-2,-4
1526903574602323,-2,-11,-7,-3,0,8,-2,-5
1526903574602323,1,8,5,0,-3,4,5,0
1526903574608307,-11,-9,-1,-6,-2,-9,-7,-1
1526903574608307,6,7,-1,0,0,-2,0,2
1526903574617283,13,-7,-3,-1,-5,1,-2,-5
1526903574617283,17,6,-2,-7,-5,-3,1,-1
1526903574631246,-52,-10,-2,6,8,-4,0,-1
1526903574631246,8,2,4,5,3,18,-6,-3
1526903574633241,46,8,-1,2,-2,-9,5,14
1526903574633241,-20,-4,0,1,0,8,0,-2
1526903574662163,-4,6,6,6,1,1,1,-5
1526903574662163,8,1,-4,-11,-3,-3,-2,5
1526903574663160,-16,-4,1,1,1,3,2,-3
1526903574663160,-14,-9,-15,-5,-5,-1,-6,-3
1526903574668147,10,6,1,-7,-1,-7,1,0
1526903574668147,-31,-3,-1,3,-4,-2,-2,-5
1526903574677123,44,-2,-4,4,-1,4,4,1
1526903574677123,-36,-1,4,3,0,0,-6,-4
1526903574692083,26,-1,0,-2,0,1,2,4
1526903574692083,5,-1,-5,1,3,1,5,0
1526903574693081,-14,-2,-2,9,2,0,-5,0
1526903574693081,-31,-5,4,2,-5,6,1,-7
1526903574714024,14,-2,-2,-7,-3,-2,-3,5
1526903574714024,51,7,6,1,4,2,3,1
1526903574716019,-43,0,3,-1,1,0,-2,1
1526903574716019,41,-5,-7,-5,1,-1,-1,2
1526903574727987,-19,3,7,5,0,-1,-5,-11
1526903574727987,-59,-12,-1,1,0,1,4,-7
1526903574736963,4,5,-5,-6,-4,-6,-4,0
1526903574736963,7,1,3,0,0,2,0,3
1526903574751923,8,-5,-7,0,-1,-3,-1,4
1526903574751923,35,-1,-4,-4,-1,-5,-4,3
1526903574753918,-27,-7,1,0,-2,-1,-1,-7
1526903574753918,10,7,3,3,2,0,2,4
1526903574773864,-13,-3,0,-2,-1,-3,-2,-3
1526903574773864,9,-1,-3,-3,-4,2,1,0
1526903574775859,2,-2,-7,-10,-10,-5,-2,-2
1526903574775859,-16,3,3,12,35,0,-3,-4
1526903574787827,-10,-2,-3,-2,-7,-4,-8,-7
1526903574787827,29,1,1,0,0,2,6,3
1526903574796803,-2,0,2,1,2,2,1,-3
1526903574796803,12,4,2,-6,-6,-4,-4,0
1526903574811763,-17,-4,0,3,0,1,3,7
1526903574811763,7,-3,-1,-5,3,-4,-5,-5
1526903574813758,3,7,2,-7,-6,10,1,3
1526903574813758,-28,1,10,16,-4,-1,2,-1
1526903574834701,21,-1,-19,-6,-6,-5,-4,-5
1526903574834701,-15,1,-4,-4,-6,0,5,9
1526903574835699,18,0,-5,-3,-1,-6,-3,-3
1526903574835699,-27,-3,-4,-9,-8,-2,-6,-5
1526903574847667,-15,2,7,2,2,2,2,2
1526903574847667,12,0,-1,1,0,-3,-2,-5
1526903574856643,-41,-3,-2,0,-1,-4,-1,-3
1526903574856643,46,5,-1,-2,-3,1,4,6
1526903574871603,-24,-3,-1,0,1,2,3,-1
1526903574871603,33,5,4,-1,1,-4,-14,-1
1526903574873598,19,0,3,6,4,-2,1,-4
1526903574873598,-6,-8,-6,-5,-6,2,-1,-7
1526903574894542,17,2,3,-1,-3,0,-2,5
1526903574894542,-28,4,1,1,-2,-1,1,1
1526903574895539,11,-1,2,4,2,-7,0,3
1526903574895539,45,-2,-8,-3,-2,13,4,3
1526903574907507,-21,2,-2,-4,1,12,-8,-2
1526903574907507,-15,-6,1,3,-2,1,-2,-3
1526903574916483,-17,0,-4,3,0,-6,-2,-1
1526903574916483,4,-4,0,-5,-3,-3,-2,0
1526903574931443,33,2,6,0,0,-4,3,8
1526903574931443,-18,-8,-8,-14,-5,-5,-5,-14
1526903574937427,-6,5,7,35,9,8,-5,2
1526903574937427,-5,-6,0,-5,-3,-4,2,-4
1526903574954381,35,1,1,1,0,3,1,5
1526903574954381,-26,1,1,2,-2,-4,4,5
1526903574955379,28,1,-5,-15,-8,-6,-2,-3
1526903574955379,-71,-2,0,3,3,-2,2,2
1526903574967347,32,1,0,2,-2,-8,0,0
1526903574967347,-4,-13,-10,-9,-3,6,0,-3
1526903574977321,-2,-1,1,-4,1,5,1,-2
1526903574977321,8,0,-3,0,-6,-2,-1,1
1526903574990286,-20,-3,-3,-7,-1,-2,2,-7
1526903574990286,9,5,2,5,-2,-2,-1,4
1526903574999262,-10,-9,-1,-3,0,2,3,1
1526903574999262,2,-2,-1,-3,-3,-5,-4,-1
1526903575014222,0,-3,-2,-3,-4,-10,-2,-9
1526903575014222,16,4,5,2,-1,4,-2,3
1526903575016217,-13,-6,-7,0,-2,-2,-1,-3
1526903575016217,23,0,2,-2,-1,5,3,4
1526903575028184,-8,-1,-2,0,-1,4,-4,-3
1526903575028184,1,2,-4,-3,-1,1,-3,3
1526903575037161,6,-1,-1,-8,-2,-3,-2,-3
1526903575037161,21,0,-2,1,2,2,-2,-2
1526903575050126,-37,-8,3,-3,1,1,2,-1
1526903575050126,5,-5,-11,-5,-6,-6,-3,-1
1526903575059101,18,5,-1,7,2,2,2,3
1526903575059101,6,-6,1,1,0,-7,-4,-5
1526903575074061,-32,5,1,2,3,10,2,0
1526903575074061,23,0,3,2,3,0,1,4
1526903575076056,-23,-1,-4,-6,-3,-5,-4,-3
1526903575076056,12,4,-1,-2,-1,-4,-3,3
1526903575088024,15,-6,2,-1,3,7,-2,-5
1526903575088024,-47,-1,-3,13,-1,-5,0,-6
1526903575097001,21,4,-1,-14,-6,-5,-3,-1
1526903575097001,-22,-11,3,-11,5,1,-2,0
1526903575109966,25,4,-7,6,-4,-4,7,3
1526903575109966,-4,-2,1,-6,4,-7,-5,-4
1526903575118942,-18,0,2,-3,-3,3,-9,-5
1526903575118942,0,-3,-1,2,-3,2,4,-2
1526903575133902,-20,-4,-4,-6,-1,-6,-7,-1
1526903575133902,1,6,0,-4,0,4,7,3
1526903575135896,-7,-4,-2,1,-4,-3,1,-3
1526903575135896,-16,-5,3,2,5,-1,-3,-2
1526903575156840,8,4,2,18,4,-3,-4,-2
1526903575156840,-24,-3,-5,-4,-3,5,3,-6
1526903575158835,-19,-7,-5,-7,0,8,3,0
1526903575158835,4,5,-1,-1,-6,-20,-1,-2
1526903575170803,-3,-4,1,-3,-3,-15,-2,0
1526903575170803,9,2,-1,-5,1,9,3,-1
1526903575179779,3,2,5,3,4,1,0,3
1526903575179779,-3,-3,-7,2,-3,5,-1,-2
1526903575194739,6,-2,0,0,0,7,-1,-7
1526903575194739,33,7,2,-4,-1,-11,-3,0
1526903575195736,-13,-20,-7,-10,-6,5,-2,0
1526903575195736,-3,4,6,19,3,2,5,4
1526903575216680,15,-2,-5,-4,-4,-4,1,1
1526903575216680,12,3,7,-2,-1,2,5,4
1526903575218675,-5,4,0,11,7,-2,-7,-5
1526903575218675,10,-1,-3,-13,-5,0,-2,5
1526903575230642,1,2,3,-7,1,1,-4,0
1526903575230642,17,1,1,5,-1,0,3,2
1526903575239619,-18,4,-2,-11,-5,-7,1,-6
1526903575239619,12,-5,2,13,3,3,1,3
1526903575254579,-42,0,-3,-11,-1,-4,-2,-2
1526903575254579,18,0,-3,-4,-4,-2,-1,3
1526903575255576,1,-4,-2,2,1,-3,1,-1
1526903575255576,-16,0,-4,-1,-3,-1,-1,-7
1526903575276520,4,-8,0,-2,0,-4,-1,3
1526903575276520,-11,4,-4,-8,-3,8,-3,-1
1526903575278515,-1,-2,1,-6,-1,-15,2,4
1526903575278515,-18,0,-7,-5,-9,6,-4,-4
1526903575290483,23,2,4,33,2,-12,2,2
1526903575290483,-17,2,0,3,-17,-1,-2,-5
1526903575299459,39,2,0,-18,21,-2,0,1
1526903575299459,-11,-6,2,26,-14,2,2,-1
1526903575314419,-2,-3,-3,-12,-4,1,-4,3
1526903575314419,2,-1,-2,-3,-7,-5,-7,-4
1526903575315416,0,5,-1,6,-1,-23,7,-2
1526903575315416,0,4,2,-10,4,19,2,0
1526903575336360,14,5,-6,-8,4,6,-9,3
1526903575336360,0,-10,2,7,4,-1,-9,-5
1526903575338355,2,4,-1,0,-5,-2,1,0
1526903575338355,-30,-1,-1,-7,1,-9,0,-1
1526903575350323,10,0,2,0,-3,10,8,3
1526903575350323,-1,-8,-5,0,9,8,3,5
1526903575359299,-9,3,-1,2,-16,-3,-4,-10
1526903575359299,-19,-4,-3,-10,0,-3,-3,-3
1526903575374259,16,2,4,18,3,6,2,-1
1526903575374259,-10,-1,2,-8,0,-3,3,4
1526903575376254,-3,0,-1,4,4,12,3,1
1526903575376254,-10,3,-2,-11,-5,-7,0,-2
1526903575397197,45,3,5,-13,2,-27,-4,-3
1526903575397197,-53,-21,-12,13,-3,10,0,-10
1526903575398195,5,7,2,6,-2,9,-1,8
1526903575398195,29,-4,-1,-6,4,-3,1,-3
1526903575410163,-39,0,-5,-16,-15,-6,-1,-6
1526903575410163,7,5,5,18,4,1,-1,4
1526903575419139,1,-3,0,-7,-9,-29,1,15
1526903575419139,0,-10,-6,14,6,12,-4,-18
1526903575434099,6,-1,-2,-9,4,14,5,-3
1526903575434099,26,4,3,-1,-11,-1,2,4
1526903575436094,4,5,3,0,4,0,-9,-4
1526903575436094,12,-4,0,-1,-6,-16,-6,0
1526903575457037,-14,-7,-2,-4,0,1,4,0
1526903575457037,-1,-1,-4,-9,0,2,-4,-9
1526903575458035,-7,-1,-6,3,1,1,1,-4
1526903575458035,28,1,0,-12,-1,-2,1,8
1526903575470002,-26,-1,-2,1,0,3,0,-9
1526903575470002,-4,-2,1,0,9,-8,1,1
1526903575478979,0,-1,0,-2,-8,13,2,4
1526903575478979,-7,4,-2,-7,5,-1,3,4
1526903575493938,7,-3,-1,17,3,2,-9,-4
1526903575493938,-12,-1,-1,-6,2,-7,6,6
1526903575495933,-48,-2,-2,0,-8,-4,-20,-33
1526903575495933,35,8,2,-5,-2,10,2,3
1526903575516877,23,-11,0,-4,-3,-17,6,12
1526903575516877,-1,4,1,-3,4,10,2,3
1526903575517875,16,-1,-2,0,4,9,11,-2
1526903575517875,18,0,1,-7,-4,-10,-11,4
1526903575530840,-37,-13,-5,9,-1,2,-9,-11
1526903575530840,12,4,-7,-8,-3,-12,-5,0
1526903575539817,5,-2,1,-3,-1,6,6,6
1526903575539817,-3,1,-1,6,4,0,-3,-11
1526903575554776,19,6,3,-2,-3,4,3,7
1526903575554776,-20,-1,-3,-12,-4,-7,-3,-4
1526903575555774,41,3,1,17,2,-5,5,4
1526903575555774,-7,-10,-6,-6,-4,4,-5,4
1526903575576717,-50,2,-1,-2,-4,1,-3,-9
1526903575576717,-6,1,1,5,8,0,2,-3
1526903575578712,20,7,0,-7,-4,-1,-6,1
1526903575578712,14,0,2,7,1,-5,3,6
1526903575590680,18,-4,-5,-4,1,5,0,-1
1526903575590680,-17,-8,1,-1,-1,-3,1,0
1526903575599656,-7,2,-6,-3,-2,1,-1,-5
1526903575599656,-17,-2,-3,-5,-5,-7,-2,-1
1526903575614616,11,3,1,-4,-2,3,0,0
1526903575614616,4,-2,-3,2,-1,-5,-3,-4
1526903575615614,18,-3,-1,4,3,3,-1,3
1526903575615614,-12,1,0,-1,-2,6,2,-2
1526903575636557,12,1,0,3,1,-3,5,4
1526903575636557,-30,5,0,0,0,2,-2,-1
1526903575638552,-4,-8,-7,-5,-3,0,-4,-4
1526903575638552,-8,-4,2,-7,0,-5,-1,0
1526903575650520,4,5,-2,17,2,-3,-5,1
1526903575650520,-9,-3,1,0,-1,5,4,-3
1526903575659496,-2,-1,3,-1,1,8,-6,2
1526903575659496,24,4,-2,-1,-1,-2,6,5
1526903575674456,-27,-3,-4,-9,-4,-6,-6,-14
1526903575674456,-8,1,-3,-2,-3,-3,-2,-1
1526903575675454,-5,1,0,6,-1,-6,3,3
1526903575675454,13,1,1,3,2,4,0,2
1526903575696397,-33,-7,-2,-8,-4,1,-4,-5
1526903575696397,47,3,2,3,-1,-5,0,0
1526903575698392,-37,-7,-6,-6,-1,0,3,1
1526903575698392,-21,-4,3,4,-1,-3,0,1
1526903575710360,9,4,-9,-9,-4,-5,-5,-1
1526903575710360,-15,0,2,0,1,-3,-1,-2
1526903575719336,18,-2,2,-1,0,4,3,2
1526903575719336,-22,1,1,3,0,5,-2,-3
1526903575734296,17,-2,4,-1,2,-15,-2,-2
1526903575734296,-37,-2,-5,-4,-8,-11,-4,-5
1526903575736291,34,1,4,-1,2,3,8,5
1526903575736291,-31,-3,-1,5,7,-5,-1,-3
1526903575756237,25,-3,0,0,3,9,2,2
1526903575756237,-6,2,-4,1,-2,8,-2,-5
1526903575758232,3,0,1,3,2,-5,-1,3
1526903575758232,-18,-2,1,2,-4,-6,-6,-8
1526903575770200,3,1,-1,-5,3,2,3,6
1526903575770200,-10,-3,-2,-3,2,-3,-3,-2
1526903575779176,15,1,0,-2,0,2,-2,-2
1526903575779176,-29,-2,-10,-6,-3,-4,-5,-4
1526903575794136,8,-3,1,-4,-1,1,-1,0
1526903575794136,7,-2,5,3,2,4,2,1
1526903575796131,-15,-2,2,-1,-4,-4,-1,-2
1526903575796131,12,1,2,2,-1,2,5,6
1526903575817074,-15,-1,-2,-2,-6,-2,-2,-4
1526903575817074,7,5,0,-3,5,9,-2,-4
1526903575818072,-25,-9,-7,-6,-1,-6,-2,0
1526903575818072,-2,-5,-1,13,5,-1,1,0
1526903575830040,21,5,6,0,0,3,-1,1
1526903575830040,21,1,-6,-3,-2,-2,1,4
1526903575839016,-11,6,1,-3,-3,0,-5,-3
1526903575839016,24,-3,-1,-6,-3,-22,-3,-1
1526903575853976,-23,-6,-5,-4,-2,16,6,1
1526903575853976,11,2,0,0,-3,-5,0,2
1526903575855971,8,-4,0,-3,0,3,-1,-4
1526903575855971,-3,1,0,-3,-3,-2,-4,-4
1526903575876914,-14,-5,-2,1,1,-4,-1,-2
1526903575876914,23,2,0,0,-1,-3,-2,2
1526903575877912,-7,5,-4,1,1,1,1,4
1526903575877912,6,-8,-2,-2,-2,4,1,-4
1526903575890877,-19,-2,-4,-6,-1,-3,-1,-1
1526903575890877,19,-4,-2,7,0,1,0,-1
1526903575899853,-10,4,2,1,1,1,3,-1
1526903575899853,-22,5,2,0,0,4,-3,-3
1526903575913816,46,-3,-1,0,-2,-2,1,8
1526903575913816,-5,0,-1,-4,-3,-3,1,0
1526903575915811,10,-4,-8,-4,-3,-2,-1,0
1526903575915811,12,1,-2,-3,0,3,2,1
1526903575936754,19,-3,-2,1,2,0,1,3
1526903575936754,-28,-2,2,2,0,-4,-5,-6
1526903575938749,-1,0,4,1,2,1,1,0
1526903575938749,9,2,1,-1,-4,3,3,1
1526903575950717,-11,6,6,6,3,-1,-5,-8
1526903575950717,34,-3,-10,-6,-4,-4,-2,4
1526903575959693,-40,-13,-2,0,-2,-3,-3,-4
1526903575959693,25,-2,1,-9,-3,1,0,4
1526903575974653,-19,1,4,6,3,0,0,1
1526903575974653,-27,-1,-3,-10,-1,-1,0,-8
1526903575980637,35,0,-3,5,-1,-3,-3,-1
1526903575980637,-23,0,-2,5,3,1,0,-1
1526903575996594,13,-4,-2,-10,-6,-12,2,0
1526903575996594,-31,5,4,5,3,12,-7,3
1526903575998589,25,3,-3,-6,-3,-3,3,-1
1526903575998589,43,-8,-4,-4,-1,-9,0,-2
1526903576010557,-36,6,-4,1,-1,-5,-4,-4
1526903576010557,-9,-8,4,-1,0,-3,5,4
1526903576019533,-18,5,-1,-3,-4,-3,-7,-3
1526903576019533,-9,-3,-4,0,-1,1,-4,-6
1526903576033496,5,6,4,-6,1,6,0,1
1526903576033496,20,-1,-1,1,-1,-7,5,-3
1526903576040477,-27,-9,2,16,5,4,1,-3
1526903576040477,-14,1,-5,-4,-1,0,1,5
1526903576056434,16,-2,0,0,-4,1,1,-1
1526903576056434,-1,4,-2,-5,1,2,-1,5
1526903576058429,52,1,-1,-3,-4,-7,-3,-1
1526903576058429,-20,-3,1,0,-2,0,0,-2
1526903576079373,11,4,-7,-3,0,1,-1,-10
1526903576079373,-10,-16,-3,2,-2,-2,-4,2
1526903576080371,-11,5,-1,-8,-1,5,4,-1
1526903576080371,30,-5,-3,-4,-1,-16,-3,7
1526903576093335,-9,0,2,4,0,3,1,0
1526903576093335,1,6,1,-2,-2,-1,-4,-4
1526903576100317,-1,0,-5,1,0,-3,-3,3
1526903576100317,30,2,-1,-10,-4,8,-1,-1
1526903576116274,-28,-10,-1,13,3,-2,-3,0
1526903576116274,-10,1,-9,-2,-5,-7,0,-7
1526903576118269,0,2,5,0,1,1,0,5
1526903576118269,-11,5,6,3,2,6,5,-1
1526903576139213,-9,-3,-6,-15,-6,-3,-2,-2
1526903576139213,11,-2,2,4,1,6,0,-1
1526903576141208,-27,1,-3,0,-4,0,-7,-2
1526903576141208,-11,3,1,18,1,-3,1,-4
1526903576153176,46,-3,3,-3,1,-14,-1,1
1526903576153176,-21,-5,-2,2,1,9,4,1
1526903576160157,16,1,-1,2,0,1,-2,0
1526903576160157,-13,-2,0,-3,3,1,-2,1
1526903576177112,-1,-3,-2,2,-4,-1,-1,-2
1526903576177112,9,5,0,0,-2,-6,0,-1
1526903576178110,6,-5,-1,-6,0,-1,-2,-3
1526903576178110,-12,-4,-1,-2,-2,1,-1,1
1526903576199053,-12,5,-2,-3,-2,-2,-1,0
1526903576199053,31,5,2,-7,0,-1,3,3
1526903576201048,-13,-9,-3,-4,-3,-2,1,-2
1526903576201048,-10,-2,-1,3,4,2,-1,-5
1526903576214013,-4,0,-1,-2,1,7,1,5
1526903576214013,-7,2,-1,1,2,-2,-3,-3
1526903576219997,1,5,0,0,0,-5,1,-3
1526903576219997,-32,-8,-1,-3,-3,-2,-3,-1
1526903576236951,-2,-1,-3,1,3,4,-1,-1
1526903576236951,1,5,3,1,-2,-4,-1,-3
1526903576237949,-13,-5,-1,-3,0,-4,3,2
1526903576237949,-5,0,-5,-7,-2,-3,-7,-5
1526903576258893,16,3,4,2,-1,11,3,6
1526903576258893,-45,-8,-5,-1,-3,-9,-3,-10
1526903576264877,16,1,2,-2,1,2,0,1
1526903576264877,-4,2,2,0,0,6,1,2
1526903576273853,35,-1,-1,0,-3,-6,-4,1
1526903576273853,3,5,-2,-11,-3,10,-3,2
1526903576280834,-12,-12,-1,6,-5,-2,-1,-5
1526903576280834,-5,1,2,19,9,-7,0,-3
1526903576296791,-27,9,-1,-7,-9,-7,-6,-7
1526903576296791,0,-15,-5,-17,0,-14,1,2
1526903576298786,-44,10,-5,-31,-25,29,-8,-5
1526903576298786,71,-1,13,65,13,26,16,9
1526903576319730,-21,2,-5,-5,0,-7,0,-3
1526903576319730,-2,3,2,-5,-11,-7,-6,-5
1526903576320728,-1,-1,0,-12,31,-19,-7,5
1526903576320728,9,3,4,-16,-5,11,-2,2
1526903576333693,-30,2,-11,2,2,1,-7,-7
1526903576333693,37,-5,-2,9,1,-12,1,5
1526903576340674,-17,-4,1,4,1,17,6,1
1526903576340674,-10,1,-3,-12,-7,-6,-3,-2
1526903576356631,13,-4,2,-6,5,-2,-2,5
1526903576356631,-27,-1,-2,1,1,1,0,-3
1526903576358626,11,12,5,14,-2,-5,0,-2
1526903576358626,39,-20,-6,-10,1,-6,-3,4
1526903576379570,-17,-2,1,-11,-11,-9,-1,-4
1526903576379570,-1,6,-1,4,2,4,-4,-2
1526903576380568,25,4,3,12,1,-3,0,4
1526903576380568,-25,0,0,-2,0,16,-2,-5
1526903576392535,-34,0,1,4,-4,-12,3,5
1526903576392535,31,-2,-1,0,6,5,-1,0
1526903576401511,3,-2,-7,-9,-3,-9,-2,-6
1526903576401511,-4,2,-2,-20,-7,-9,-3,-2
1526903576416472,20,2,1,6,-1,-9,-1,2
1526903576416472,-20,-8,-3,-1,2,12,2,3
1526903576418467,-2,-4,-4,11,-4,9,12,4
1526903576418467,-54,1,-1,-8,-4,-3,-13,-12
1526903576439410,42,-1,5,8,3,-1,4,2
1526903576439410,8,10,-1,-5,-1,1,0,0
1526903576440408,-33,-21,-3,-4,-3,-5,3,-7
1526903576440408,3,3,-3,-3,-4,-16,-2,2
1526903576453373,-4,-3,-1,-1,4,39,-4,-2
1526903576453373,-30,2,-1,6,-6,-21,2,-5
1526903576462349,19,1,3,19,3,-3,-1,4
1526903576462349,13,4,-3,-7,-4,-1,1,4
1526903576476311,-8,0,3,-5,0,-6,-2,-3
1526903576476311,4,-3,-3,-4,0,5,0,1
1526903576478306,-30,6,-2,-3,-3,-1,0,-3
1526903576478306,7,-4,-3,-6,-4,-17,-4,-3
1526903576499250,8,-1,-2,0,-1,-2,1,0
1526903576499250,5,2,-1,2,16,14,0,1
1526903576501245,-19,0,3,1,2,-11,-3,-2
1526903576501245,17,0,0,-2,4,3,1,6
1526903576513213,-16,-4,-1,-4,5,-2,0,-3
1526903576513213,8,4,2,8,-4,-3,-6,-3
1526903576522189,33,-4,-5,-10,-6,-2,3,5
1526903576522189,-1,0,-6,-5,-29,2,-3,0
1526903576537149,-39,-3,-2,0,-12,11,9,0
1526903576537149,25,3,-2,-1,-6,-9,-7,-4
1526903576538146,31,0,-3,-7,9,-4,-3,4
1526903576538146,-13,-8,-3,-3,-11,5,2,-6
1526903576559090,41,0,1,6,-8,6,0,3
1526903576559090,-45,-4,3,2,30,-1,1,-2
1526903576561085,7,4,0,-5,-12,7,-5,-1
1526903576561085,8,6,-3,-4,4,-6,2,3
1526903576573053,-36,-10,-2,-4,2,-5,-1,0
1526903576573053,11,-6,-2,-4,-4,3,3,-1
1526903576582029,1,-1,-2,-1,-2,-6,-1,-3
1526903576582029,2,0,0,-3,8,-5,-3,1
1526903576596988,6,10,1,7,9,0,-1,-1
1526903576596988,2,0,1,-3,-20,-2,1,1
1526903576597986,1,-5,-1,1,-1,-11,-2,-1
1526903576597986,-28,0,2,1,4,11,1,-7
1526903576618930,-35,-7,-5,-5,-2,3,-4,-5
1526903576618930,10,4,-3,-6,-9,-4,1,-1
1526903576620925,-5,1,0,1,-1,1,-1,-1
1526903576620925,16,-5,3,0,9,-6,-1,2
1526903576632893,21,-5,1,1,3,-7,0,1
1526903576632893,-15,-1,-5,-2,-4,15,4,-3
1526903576641869,-15,1,0,-1,4,1,-1,-3
1526903576641869,24,0,-3,1,1,-7,-3,1
1526903576656829,-6,-7,-6,-4,-2,-9,-2,0
1526903576656829,30,13,5,0,-4,-3,0,2
1526903576658823,-15,-14,-5,-2,-6,1,-1,-1
1526903576658823,-6,1,-1,-3,-5,1,-4,-5
1526903576678770,3,-1,-2,-9,4,-4,-2,-2
1526903576678770,-4,2,1,6,-3,2,1,0
1526903576680765,-4,1,8,8,4,0,-1,2
1526903576680765,3,-2,-6,2,1,0,1,3
1526903576692733,-11,1,0,1,1,-2,3,-2
1526903576692733,4,-2,-2,-19,-22,0,-4,2
1526903576701709,2,-2,-5,15,12,1,-7,-7
1526903576701709,21,0,4,8,-7,-17,0,3
1526903576716669,23,3,2,5,5,13,4,2
1526903576716669,-36,-7,-8,-7,-8,-5,-2,2
1526903576718664,8,1,4,-7,-5,6,-2,-1
1526903576718664,-4,-1,-3,0,2,-5,-3,0
1526903576739607,-10,-2,-4,-1,-4,0,-2,-2
1526903576739607,8,-4,0,3,6,-3,1,4
1526903576740605,-3,2,-5,-8,-8,-7,-3,-6
1526903576740605,-4,0,1,0,2,4,0,-2
1526903576752573,3,0,0,-2,-5,-3,3,2
1526903576752573,0,0,-1,3,6,1,-6,-6
1526903576761549,-10,0,-1,-4,-3,-3,3,-2
1526903576761549,-21,0,0,-6,-2,-1,1,0
1526903576776509,19,-1,-1,2,1,11,1,0
1526903576776509,-3,-5,-4,2,4,-11,-1,-3
1526903576782494,11,2,-2,-3,-2,7,-1,0
1526903576782494,-17,-4,-2,0,-1,-8,1,-1
1526903576799447,4,5,1,2,0,-4,-5,-2
1526903576799447,-25,3,-3,0,0,6,-1,1
1526903576800445,1,0,1,-1,-1,2,3,0
1526903576800445,-9,-8,4,4,3,9,2,-2
1526903576812412,4,1,-9,-6,-8,-15,-9,-2
1526903576812412,4,-3,-3,1,0,-3,-2,-10
1526903576822386,9,6,0,-3,0,-1,-2,6
1526903576822386,31,13,5,1,2,2,-4,-2
1526903576836348,7,-19,-4,-1,1,0,2,2
1526903576836348,0,2,4,2,1,-3,1,2
1526903576838344,24,-3,1,-3,-2,5,0,4
1526903576838344,-44,7,-4,0,3,12,-4,-15
1526903576859287,-2,1,-1,-2,0,0,3,5
1526903576859287,-5,1,-2,-4,2,-3,1,0
1526903576861282,-4,-1,-1,0,-13,-13,-1,-4
1526903576861282,0,-7,0,-3,4,28,2,3
1526903576873250,-31,3,6,5,-2,-12,0,-7
1526903576873250,18,-4,-5,-2,0,-1,-3,3
1526903576882226,-37,-1,-2,-7,-6,-2,-2,-8
1526903576882226,-1,-5,-4,-3,0,-14,-4,-5
1526903576897186,13,5,3,6,3,11,-1,1
1526903576897186,-1,-4,3,0,-1,1,0,0
1526903576898184,4,4,-6,-5,0,-15,-5,0
1526903576898184,17,-11,-4,-2,-6,-3,3,8
1526903576919127,-2,1,-2,-3,2,5,-4,-7
1526903576919127,2,3,4,2,-3,-3,1,1
1526903576921122,-25,-1,-1,0,4,2,-1,-3
1526903576921122,-9,-4,-2,-1,1,-2,-3,-4
1526903576933090,33,7,0,-4,-7,0,-1,6
1526903576933090,-33,-8,-2,0,-2,-1,0,-9
1526903576942066,-1,0,-1,-1,3,4,1,0
1526903576942066,-8,-4,-1,0,-3,-4,1,5
1526903576956028,-7,-1,-3,-1,-1,-6,-1,2
1526903576956028,-1,-1,-3,1,0,2,-3,-2
1526903576963010,1,-1,3,0,4,-4,2,3
1526903576963010,-17,-8,1,3,1,-7,-2,-8
1526903576978967,15,-2,1,-1,2,8,2,2
1526903576978967,-12,8,-6,-5,-4,-2,0,0
1526903576980962,12,-11,0,-1,-3,-3,-3,-3
1526903576980962,17,8,0,-1,3,4,2,5
1526903576992930,27,-1,3,1,-6,-2,-3,1
1526903576992930,-22,-6,-5,-2,1,2,3,-2
1526903577001907,0,-3,0,1,1,0,-3,2
1526903577001907,-28,5,2,-1,-4,-6,-1,-3
1526903577015868,-15,-2,-7,-4,0,0,-3,-7
1526903577015868,1,2,1,-2,0,0,0,-5
1526903577022850,14,5,3,1,0,3,2,0
1526903577022850,-27,-12,-8,-4,-4,-9,-3,-1
1526903577038807,-10,-2,-2,-3,1,-1,1,2
1526903577038807,50,4,-2,2,-1,-1,-1,3
1526903577040802,-7,1,1,1,5,4,2,-1
1526903577040802,29,0,-1,-2,-3,0,-4,3
1526903577061746,-60,3,-1,0,-1,-4,-1,-9
1526903577061746,56,-3,-1,0,0,-4,-2,5
1526903577063741,-20,-5,1,1,-1,-3,-6,-1
1526903577063741,14,8,-1,-1,0,2,5,4
1526903577075708,-6,-4,1,-1,-1,-8,-1,-4
1526903577075708,-5,1,0,-1,0,0,-1,-1
1526903577082690,-7,-2,-3,2,-2,2,-1,1
1526903577082690,8,1,1,4,2,-6,-3,-3
1526903577099645,26,-3,-2,4,-2,-7,-4,4
1526903577099645,-21,-5,2,-4,-1,7,-1,-2
1526903577100642,39,3,-3,-2,-1,-4,4,-2
1526903577100642,-38,-6,1,-3,-3,-1,0,-3
1526903577121585,-16,4,-2,-4,0,-4,-1,-3
1526903577121585,9,-1,-4,-3,-6,-6,-4,-1
1526903577123581,-9,-3,0,-2,-1,15,0,-1
1526903577123581,48,2,4,3,1,-1,1,5
1526903577136546,15,1,1,-3,-1,-2,0,-2
1526903577136546,-25,-8,-4,-1,0,-4,0,-2
1526903577142530,10,-3,-3,-1,-2,-7,1,3
1526903577142530,15,2,-1,-4,-2,-3,-6,-6
1526903577159484,-24,-3,0,0,-2,3,-4,-1
1526903577159484,-2,4,3,2,4,8,4,-1
1526903577160482,3,1,-2,2,2,-3,1,-1
1526903577160482,-3,0,-2,-2,-3,-3,-6,-4
1526903577181426,0,-7,2,1,6,-19,-1,0
1526903577181426,-24,2,-5,-4,-5,39,0,-4
1526903577183421,11,-3,0,1,0,19,-2,1
1526903577183421,0,3,0,-3,-4,-11,8,1
1526903577196386,5,-4,-6,-3,-24,-27,-3,-2
1526903577196386,-3,-5,0,2,9,9,0,-4
1526903577203367,3,5,-2,0,-12,11,3,-1
1526903577203367,-5,-4,-3,-1,2,-6,-9,3
1526903577219324,12,3,0,-2,-1,49,11,-1
1526903577219324,-36,-2,1,2,0,-13,-5,-2
1526903577221319,1,-1,-6,-7,0,-14,-7,-5
1526903577221319,6,-1,0,-1,-2,4,0,-1
1526903577241265,-16,-1,0,0,6,1,1,3
1526903577241265,12,1,4,3,-2,-8,-5,-1
1526903577243260,-19,-4,-2,-4,4,-8,5,3
1526903577243260,23,-3,-4,-4,-2,-3,1,-4
1526903577256226,-11,0,-2,-1,1,-9,-5,0
1526903577256226,27,4,1,0,-2,-18,1,6
1526903577263207,-20,-8,-4,-3,0,-14,5,-8
1526903577263207,10,-3,4,0,-1,54,-1,2
1526903577279164,-12,3,0,0,2,-1,1,-11
1526903577279164,-8,1,0,-3,-4,-12,-4,2
1526903577281159,21,2,1,0,1,-6,2,2
1526903577281159,-13,0,-4,-1,-2,-11,0,-4
1526903577302103,-8,-3,-2,-3,4,0,-1,0
1526903577302103,11,-3,-1,2,1,-3,-2,0
1526903577303100,9,0,0,-4,-3,8,-6,2
1526903577303100,-11,0,3,1,2,0,6,2
1526903577315068,7,4,-5,-4,-2,-3,-4,-1
1526903577315068,-10,-1,-4,-2,-3,-23,-1,-4
1526903577324044,7,-6,-2,-1,-4,-2,-4,2
1526903577324044,-6,-6,1,3,6,28,-5,0
1526903577339004,9,6,2,-2,-6,-35,-3,-1
1526903577339004,-14,4,-1,-1,3,-13,5,-1
1526903577340999,-12,-3,-3,0,-7,8,-1,-3
1526903577340999,3,8,2,6,0,3,-2,4
1526903577361943,21,-11,-3,-2,4,13,4,0
1526903577361943,-3,1,1,-3,-1,5,-4,-4
1526903577362940,-10,-2,-5,-5,-3,-9,-1,-1
1526903577362940,-17,-1,-2,-1,-2,-18,-3,-3
1526903577375906,4,1,0,3,0,-19,-3,0
1526903577375906,-36,-4,-1,2,-5,18,3,1
1526903577384882,21,0,0,0,2,2,-5,-3
1526903577384882,-18,-1,2,-2,-3,-7,-1,3
1526903577398844,-1,-4,-6,-1,0,0,-3,-5
1526903577398844,13,-3,-3,-3,2,-3,5,0
1526903577400839,3,4,2,1,0,-5,-1,1
1526903577400839,-17,-5,-8,-12,-3,3,-4,-6
1526903577421783,32,3,5,0,-21,30,9,8
1526903577421783,-18,-1,-2,7,10,2,-9,-8
1526903577423778,0,2,2,1,0,0,-5,1
1526903577423778,1,-4,0,0,2,-19,5,-1
1526903577435745,11,0,-4,-7,0,8,1,4
1526903577435745,14,2,-5,-3,-14,6,2,1
1526903577444722,-40,-4,1,3,1,-15,1,1
1526903577444722,36,-4,0,1,5,8,0,2
1526903577459681,-25,0,-3,0,7,-4,-3,2
1526903577459681,-3,3,1,-1,0,-1,0,-7
1526903577460680,10,3,-1,-1,2,12,-2,0
1526903577460680,-14,-2,1,1,-7,-18,3,3
1526903577481623,5,-3,-2,-1,4,1,-5,-3
1526903577481623,29,2,-1,-3,-2,-4,-2,2
1526903577483618,-19,3,0,-2,-4,-1,-1,-4
1526903577483618,-3,-6,-1,1,0,-5,-3,0
1526903577495586,24,2,-4,1,5,16,-1,-2
1526903577495586,13,-5,0,0,-1,5,5,6
1526903577504562,-20,0,-2,1,-1,-21,-5,-8
1526903577504562,30,3,0,-2,1,0,2,2
1526903577519522,-19,0,2,1,0,-15,-2,-1
1526903577519522,3,-3,-3,-4,-3,-5,-2,1
1526903577520519,14,-2,2,2,3,5,1,-1
1526903577520519,-20,8,-3,-6,-2,-30,2,-4
1526903577541463,-25,-19,-6,4,-3,0,-3,-3
1526903577541463,10,7,1,0,2,8,0,1
1526903577543458,5,-4,-1,-3,-3,-12,2,2
1526903577543458,20,3,2,1,-1,7,-3,-1
1526903577555426,14,-2,-2,-7,-2,-3,-2,-3
1526903577555426,-15,-1,-3,-3,-2,2,-3,0
1526903577564402,10,-2,-2,-5,0,14,1,0
1526903577564402,-16,-9,-3,8,0,-5,-3,0
1526903577579361,-6,5,5,4,3,8,1,-1
1526903577579361,-3,-2,-2,-5,-3,-17,-3,0
1526903577581356,-13,1,-2,-3,-3,-2,2,-2
1526903577581356,-5,-2,-1,-2,-1,3,-2,-2
1526903577601303,-1,2,-1,-1,2,5,0,1
1526903577601303,-8,-2,-6,-4,-3,-4,-4,-6
1526903577603298,9,-7,-2,-1,1,6,5,0
1526903577603298,-7,-3,4,3,3,-3,-6,0
1526903577615265,-29,-1,-6,-5,-1,3,-1,-6
1526903577615265,35,8,2,-1,-2,2,-5,-1
1526903577624242,19,-10,-5,2,1,-1,5,1
1526903577624242,12,5,2,-1,-1,10,2,-1
1526903577639201,-56,0,2,-3,-1,-14,-1,-4
1526903577639201,39,-3,0,1,1,-6,2,2
1526903577641196,-64,3,2,0,-3,9,-6,-4
1526903577641196,44,-3,-4,-2,-3,4,0,-1
1526903577662140,-27,2,0,0,-1,1,-1,-2
1526903577662140,-4,-1,-1,-1,-2,-3,2,2
1526903577663138,-3,0,1,2,0,-1,-1,2
1526903577663138,11,6,-1,-2,-3,0,1,0
1526903577675105,0,7,3,0,1,0,-2,2
1526903577675105,2,-5,-2,3,0,1,-1,-2
1526903577684081,2,-5,-3,-1,-4,0,-5,-5
1526903577684081,2,4,-1,-1,0,-1,-1,-1
1526903577699042,4,-6,-5,-5,0,-4,-1,1
1526903577699042,-17,0,3,-3,-2,11,4,1
1526903577701036,28,2,-1,-1,4,10,2,1
1526903577701036,-40,-4,-3,9,-2,-8,0,-2
1526903577721980,46,5,-4,3,-3,7,2,4
1526903577721980,-21,-1,-2,-3,4,-2,-3,-1
1526903577722978,-14,-6,-2,-4,-9,22,0,-3
1526903577722978,-3,-4,2,-2,-2,-7,-2,2
