timestamp,emg1,emg2,emg3,emg4,emg5,emg6,emg7,emg8
1526903586814669,40,6,8,5,8,40,35,24
1526903586814669,-1,-10,-4,-1,-1,-4,-7,-17
1526903586814669,13,12,-6,-5,-3,4,0,0
1526903586814669,-16,-3,-4,-2,-5,0,9,12
1526903586815661,-38,-16,7,6,3,4,-18,-25
1526903586815661,15,-4,-3,-4,-5,-21,-5,0
1526903586819650,1,10,-2,-3,1,30,12,26
1526903586819650,-25,7,13,13,5,-30,10,-4
1526903586825634,25,5,-5,-3,-5,-13,-25,-7
1526903586825634,23,0,-4,-6,-1,18,-5,-1
1526903586835607,-83,-11,-2,2,-3,-11,-5,-14
1526903586835607,67,15,6,-2,2,12,12,32
1526903586842589,-48,-18,-8,-7,-8,-9,-1,-9
1526903586842589,12,3,5,6,5,-2,-9,-22
1526903586855554,22,3,-11,-12,-8,-2,-6,1
1526903586855554,25,0,3,6,5,11,23,33
1526903586867522,16,-12,-3,-4,-3,-15,-6,-7
1526903586867522,42,2,-4,-1,-2,6,-1,13
1526903586880488,-38,-3,1,1,0,-16,-1,-11
1526903586880488,-29,-5,-4,-5,-2,5,-20,5
1526903586887468,97,8,-3,1,2,6,4,4
1526903586887468,-64,-3,1,-2,-3,-5,3,-13
1526903586900434,32,1,7,8,7,3,12,41
1526903586900434,-28,-7,-9,-6,-4,-5,-22,-65
1526903586942322,-34,-22,-17,-8,-5,-7,-10,-21
1526903586942322,-44,-1,-2,-1,0,7,6,27
1526903586946311,0,-2,-2,-3,-3,-5,-11,-20
1526903586946311,-17,-4,3,3,5,2,2,2
1526903586947309,17,12,0,-3,0,3,-2,-4
1526903586947309,-25,4,-1,0,-5,-30,4,14
1526903586948306,-33,-22,-8,-4,-2,19,-2,-11
1526903586948306,3,0,4,1,-2,-12,-4,-13
1526903586953293,-8,3,3,4,1,-6,-4,10
1526903586953293,-19,-3,-3,-4,0,18,1,-39
1526903586962269,-4,1,1,3,0,-38,-3,16
1526903586962269,54,-2,1,-1,3,83,24,40
1526903586968252,-68,-2,-14,-12,-13,-34,-34,-19
1526903586968252,64,5,-1,-19,-3,-12,5,-4
1526903586984210,-22,1,4,16,6,19,0,-3
1526903586984210,-20,-6,0,33,-1,-28,7,13
1526903586990194,32,8,7,8,8,23,16,37
1526903586990194,71,-1,-5,-2,-7,-1,-9,23
1526903587014130,-78,-17,-5,-15,-6,-29,-10,-19
1526903587014130,35,2,-1,-15,-1,-11,-8,10
1526903587014130,2,5,-4,-2,-5,-1,-1,-61
1526903587014130,-37,-4,-1,1,-2,6,2,-16
1526903587029090,51,-1,3,-1,2,13,11,10
1526903587029090,-32,-2,-5,-5,-7,-15,-18,-33
1526903587029090,30,-6,-4,-3,1,3,4,-5
1526903587029090,10,5,-1,-1,0,-3,-2,16
1526903587051031,51,2,2,2,0,0,1,-6
1526903587051031,-99,-3,3,-2,2,1,11,-50
1526903587052029,4,-6,-1,-2,3,1,2,10
1526903587052029,-54,0,-2,0,0,-5,-11,-3
1526903587073969,100,5,3,5,0,3,5,37
1526903587073969,5,-3,-3,-14,-5,-6,9,8
1526903587073969,16,6,4,4,3,7,4,2
1526903587073969,52,-3,4,8,3,22,-7,10
1526903587088930,-17,7,-4,-33,0,-24,2,25
1526903587088930,10,-8,-6,7,-10,20,-2,-17
1526903587089927,21,8,5,19,0,-13,7,16
1526903587089927,-101,-1,2,3,0,7,0,-34
1526903587110871,40,7,-2,11,-2,-8,-15,-31
1526903587110871,-3,-4,-4,-19,-3,24,-8,-12
1526903587111868,-4,3,0,-6,0,-9,-3,27
1526903587111868,-21,-2,4,9,1,-9,-6,-12
1526903587133810,32,4,0,-3,0,14,5,5
1526903587133810,-20,1,-3,2,3,-14,-5,17
1526903587134807,66,-2,2,5,-1,8,9,-1
1526903587134807,-4,-2,-5,-7,-5,-10,1,2
1526903587148770,-103,-1,-1,-1,-2,-3,-11,-40
1526903587148770,40,-2,0,-4,-6,-8,-1,24
1526903587149767,-5,5,1,-4,3,-3,3,35
1526903587149767,3,-5,-5,-6,3,11,-8,-25
1526903587170711,-13,-1,-1,-4,-6,-31,-2,9
1526903587170711,-2,-2,-1,11,2,-10,-6,-22
1526903587171708,-44,7,4,17,1,2,-4,10
1526903587171708,31,-6,-1,-1,2,1,12,7
1526903587193650,-13,-9,-1,-1,-4,27,-7,-10
1526903587193650,5,6,-2,-28,3,18,-5,15
1526903587194647,-33,-2,1,6,-6,-19,9,-7
1526903587194647,41,3,-1,0,-2,-12,-4,0
1526903587208609,78,-1,4,1,3,11,10,40
1526903587208609,-17,-8,-6,5,0,-19,-17,-36
1526903587209607,18,-5,-6,-15,-3,13,-11,-23
1526903587209607,-21,1,-2,13,-2,-9,-1,4
1526903587231548,-20,-1,5,-4,5,-2,12,13
1526903587231548,43,0,3,31,4,-5,8,6
1526903587231548,-16,1,-10,-14,-1,0,-7,-9
1526903587231548,-60,1,4,-10,-7,-17,-3,7
1526903587253490,-79,-4,-3,-6,-4,23,-7,-44
1526903587253490,83,3,-1,-5,-3,-21,-8,23
1526903587254487,3,-16,-5,-6,-2,5,11,-21
1526903587254487,-15,-6,-3,-4,-3,-17,6,4
1526903587268449,41,9,5,23,6,6,-15,-9
1526903587268449,-43,-12,-1,-17,-4,-6,16,-21
1526903587275431,-42,10,4,23,-1,-6,-1,4
1526903587275431,45,3,-1,-7,2,20,7,15
1526903587291388,-29,-5,-1,0,-4,-28,-19,-16
1526903587291388,21,7,0,-8,5,-18,-19,4
1526903587292386,-1,-1,0,-9,8,4,17,2
1526903587292386,37,3,5,14,1,49,-2,6
1526903587313330,-51,-5,-2,12,-1,5,-6,-10
1526903587313330,60,-2,-2,0,-2,7,6,15
1526903587314327,-28,3,6,6,2,-8,6,16
1526903587314327,-31,-9,-3,3,1,-1,-15,-32
1526903587328289,21,5,-4,-18,-1,-2,7,23
1526903587328289,-2,2,-3,-2,-10,-31,0,9
1526903587335271,38,9,8,6,0,10,-5,19
1526903587335271,-46,-12,-10,-2,-5,-19,-17,-40
1526903587351228,-8,-3,-1,-1,3,11,8,-3
1526903587351228,-24,1,1,1,1,4,5,28
1526903587352226,25,7,-1,-9,-3,-4,1,14
1526903587352226,14,-4,0,-3,0,-15,-9,-2
1526903587374166,-2,-2,-4,-2,-3,-5,5,-19
1526903587374166,-29,-1,-1,-2,4,20,6,10
1526903587374166,6,3,-2,-10,-6,-14,19,-14
1526903587374166,-27,10,3,-2,1,0,2,4
1526903587388129,51,-11,-1,1,-4,0,-4,10
1526903587388129,-11,6,4,-8,4,-1,6,26
1526903587395111,-49,-3,1,24,1,11,-7,-19
1526903587395111,23,1,-1,11,5,-10,-5,-3
1526903587411068,17,1,2,4,-4,-16,1,17
1526903587411068,-10,6,-1,4,2,2,11,-16
1526903587412066,-69,-14,-9,-19,-7,0,-27,-33
1526903587412066,25,6,4,-2,1,12,10,17
1526903587434007,56,4,2,11,6,-13,13,15
1526903587434007,-43,-3,2,12,-4,31,-17,-12
1526903587434007,46,6,-1,-10,-1,5,-1,-21
1526903587434007,10,-16,-5,2,0,-8,-2,7
1526903587447969,-58,0,0,-13,-3,-1,-6,-40
1526903587447969,9,10,1,-1,-2,-27,-1,23
1526903587455948,13,4,1,-2,2,-17,4,27
1526903587455948,27,-4,-4,-7,1,20,-11,-5
1526903587470908,83,5,3,2,0,10,7,34
1526903587470908,-101,-15,-9,-7,-1,11,1,-65
1526903587471906,-7,-2,-3,6,-6,-23,-14,15
1526903587471906,14,-1,-1,-12,-6,-12,8,1
1526903587493847,-12,-9,-1,-1,3,-12,2,16
1526903587493847,-49,13,9,6,10,38,6,23
1526903587494844,-10,-11,-14,-16,-14,-57,2,-10
1526903587494844,66,9,0,-1,-2,-14,-3,7
1526903587507809,-40,1,0,1,-4,1,-3,-1
1526903587507809,6,-8,-3,-2,-1,-3,-8,-22
1526903587515788,-15,-10,-3,-8,2,19,-3,-4
1526903587515788,-25,3,3,3,1,-11,15,13
1526903587530748,43,-4,-5,-3,-3,-11,-12,10
1526903587530748,63,7,-1,-2,3,20,10,1
1526903587531745,-9,-6,-3,1,2,7,-10,-22
1526903587531745,-34,-1,-2,-5,-2,2,-2,-20
1526903587553687,-3,4,0,-6,2,9,4,11
1526903587553687,74,11,3,16,-7,-18,-3,18
1526903587554684,-1,-11,-2,-7,2,14,-8,-34
1526903587554684,-30,-6,0,1,0,12,11,12
1526903587567649,-5,4,0,0,-2,3,-2,12
1526903587567649,-6,-4,-5,-11,-4,-32,-9,-26
1526903587575628,13,15,2,-1,2,-1,5,14
1526903587575628,-7,-11,-1,-1,-3,4,7,18
1526903587591585,-42,-1,0,-8,0,9,6,-6
1526903587591585,54,3,1,6,1,9,-10,6
1526903587591585,-29,-17,-1,4,-2,-4,-2,-8
1526903587591585,5,11,3,2,3,-2,9,-8
1526903587613527,19,0,0,4,-1,3,4,2
1526903587613527,-48,-3,-5,-12,-6,-6,-9,-17
1526903587614524,-1,-1,1,2,7,4,2,19
1526903587614524,-25,-1,1,5,1,13,-1,-18
1526903587628487,-41,-6,-3,-9,-6,-3,1,-13
1526903587628487,13,5,2,14,2,-9,-7,-12
1526903587635468,59,11,3,-4,1,5,21,53
1526903587635468,-8,-5,-5,-10,-5,-5,-7,15
1526903587651425,22,-4,-4,11,4,6,-18,-51
1526903587651425,-39,-9,-1,-8,-3,-21,1,-7
1526903587652423,-4,7,1,-1,-2,19,6,21
1526903587652423,34,6,3,4,2,4,5,14
1526903587673367,11,1,1,-4,0,-4,6,14
1526903587673367,12,-7,-8,-7,-7,-30,-31,-49
1526903587674364,17,-6,2,6,1,19,4,-6
1526903587674364,23,6,-3,-8,-2,-3,0,14
1526903587696305,-24,0,-4,2,-3,0,-2,-18
1526903587696305,104,3,0,-4,-2,-11,-2,49
1526903587697303,-28,0,-4,-12,-1,16,-4,-24
1526903587697303,48,-5,-2,3,2,-16,-5,4
1526903587711265,-22,8,5,8,2,2,11,29
1526903587711265,-29,7,-1,0,3,0,-11,7
1526903587712263,-14,-6,5,15,-4,-11,-12,-22
1526903587712263,-13,-3,-1,-7,0,0,-2,-16
1526903587733207,24,8,-2,-3,-1,7,-3,5
1526903587733207,-68,-24,-9,-9,-3,1,18,9
1526903587734205,45,4,0,-2,3,2,-2,9
1526903587734205,-29,-11,-1,3,-3,-6,-9,-17
1526903587756146,1,5,0,2,-3,-6,1,-3
1526903587756146,-23,-11,-7,-4,-3,7,-2,-13
1526903587757143,34,-1,1,2,2,7,20,46
1526903587757143,17,6,0,0,-1,4,4,14
1526903587771106,-32,-2,-5,-6,0,5,-8,-18
1526903587771106,6,9,7,6,5,-2,13,31
1526903587772103,-20,-1,-1,-4,-3,-21,-13,-15
1526903587772103,-29,3,-3,-6,-5,44,-5,-1
1526903587794045,-21,-15,-4,3,-4,-3,13,7
1526903587794045,29,10,5,4,5,2,5,18
1526903587794045,-24,-6,-5,-5,-5,-5,-20,-46
1526903587794045,47,10,3,3,5,-9,7,16
1526903587815987,-31,-21,-4,1,1,0,-17,-15
1526903587815987,-40,0,-3,-6,-6,3,-5,-28
1526903587816983,-48,-4,-5,-12,0,1,4,3
1526903587816983,19,5,4,-12,-3,-7,0,16
1526903587830952,-35,-2,0,38,6,8,-7,-34
1526903587830952,-16,-2,2,7,2,-10,-4,-9
1526903587831943,27,6,-6,-11,-6,-8,-1,22
1526903587831943,-49,-4,-4,5,-1,4,-5,-45
1526903587853886,48,2,2,-2,1,3,26,34
1526903587853886,-9,-7,-6,-5,-5,-9,-8,-9
1526903587854882,9,4,2,2,4,10,-2,-3
1526903587854882,27,0,0,-1,-5,-19,8,12
1526903587875825,3,-3,0,-10,-1,-18,-4,11
1526903587875825,25,5,2,6,1,22,14,42
1526903587876823,36,3,-2,-3,-6,-7,3,0
1526903587876823,-52,-12,-5,4,0,-15,-8,0
1526903587890785,6,-2,-3,-6,0,-4,-12,-21
1526903587890785,-45,0,2,-1,2,9,4,-9
1526903587891783,45,-6,-4,-1,-2,3,-1,18
1526903587891783,-45,3,0,4,1,-8,-7,-26
1526903587912727,10,-2,0,-1,1,8,13,-6
1526903587912727,1,-5,-4,-4,-5,0,-16,-2
1526903587921702,-1,1,-4,-1,-1,6,0,-7
1526903587921702,8,3,0,3,0,0,17,8
1526903587935665,31,5,-2,-15,-7,7,-13,10
1526903587935665,17,6,2,3,3,-10,0,-12
1526903587936662,-90,-3,5,25,2,0,2,2
1526903587936662,34,-6,-1,-5,-1,-6,6,4
1526903587958604,0,-1,1,19,3,16,-11,-2
1526903587958604,37,4,0,-8,-6,-7,8,8
1526903587959601,1,4,-1,-5,-3,-6,-8,-24
1526903587959601,26,-1,-2,-6,-3,-1,-4,17
1526903587972567,39,-3,-3,-3,1,-3,2,31
1526903587972567,-19,-4,-4,-6,-3,1,-3,-13
1526903587981542,-5,0,0,-1,1,0,-2,10
1526903587981542,14,2,-3,-2,-2,-4,-8,-10
1526903587996503,25,5,0,-9,0,-8,10,13
1526903587996503,-51,-1,-2,-5,-1,2,-4,12
1526903587996503,-49,-11,-2,5,2,-17,-11,-28
1526903587996503,9,2,1,-2,-4,46,-13,-16
1526903588018444,16,6,2,-3,-2,-8,3,-17
1526903588018444,-35,-10,-6,-1,1,1,14,4
1526903588019441,3,2,0,-7,-2,1,3,4
1526903588019441,3,-5,-1,6,1,-11,-10,3
1526903588033404,-66,2,0,-4,-4,-2,-5,-27
1526903588033404,30,3,2,-5,-1,8,2,9
1526903588041383,83,2,-3,-9,0,-14,-4,-6
1526903588041383,-16,-12,2,1,1,3,10,18
1526903588056342,-2,3,1,4,-2,4,4,39
1526903588056342,-44,-3,-7,-2,-2,8,-3,-39
1526903588057340,39,4,-1,-18,-8,-10,-15,16
1526903588057340,-29,4,1,18,7,-3,-2,-6
1526903588078284,18,3,-3,-12,-2,-3,10,10
1526903588078284,35,8,4,4,3,-1,-2,11
1526903588079282,-45,-11,-6,-2,-2,9,-6,-46
1526903588079282,-22,-9,-5,-8,-4,-10,1,-2
1526903588093243,-14,1,-1,-2,0,0,-16,-22
1526903588093243,47,10,2,-2,1,-1,6,8
1526903588101222,-13,-2,2,9,2,9,12,21
1526903588101222,-29,-5,-6,-7,-5,-13,-7,-6
1526903588116182,-14,0,-1,3,1,3,10,13
1526903588116182,-53,-9,-4,-4,-7,-7,-16,-50
1526903588117180,28,15,1,0,-3,5,6,26
1526903588117180,33,-14,-1,-14,7,-2,-1,-17
1526903588139121,-50,-10,-2,18,-1,5,-8,-18
1526903588139121,24,1,-2,-13,0,4,-8,26
1526903588139121,-25,-5,1,28,2,-13,5,-11
1526903588139121,-3,11,-2,-10,-10,22,3,-39
1526903588162060,-13,-3,-2,-12,-1,-3,3,-19
1526903588162060,16,-8,-2,-4,1,-9,4,17
1526903588163057,-44,0,2,20,1,5,-6,-41
1526903588163057,25,-3,-3,-8,2,-8,-24,16
1526903588176022,-16,1,-2,-3,-9,-4,18,11
1526903588176022,-3,0,-1,0,-4,-15,-22,-13
1526903588177020,27,-1,0,-11,1,8,28,37
1526903588177020,15,2,1,7,2,38,-3,29
1526903588198961,-79,-11,-4,-12,-6,-18,-18,-35
1526903588198961,34,-2,-6,0,1,-2,10,31
1526903588198961,-18,-3,0,-7,-1,1,-3,-27
1526903588198961,28,9,8,5,3,8,-8,24
1526903588221900,20,3,-5,-2,1,-32,1,17
1526903588221900,-10,3,0,5,-2,-7,0,3
1526903588222897,40,-7,-1,4,9,23,6,4
1526903588222897,5,9,1,-19,-12,-17,15,-1
1526903588235862,-36,-9,-2,1,-2,0,-23,-42
1526903588235862,55,-2,4,14,10,2,10,-6
1526903588236860,83,4,-3,-19,-8,-4,10,21
1526903588236860,21,-5,-7,3,6,-15,-6,-31
1526903588258801,-14,-12,0,-11,-7,0,-16,2
1526903588258801,16,14,5,6,5,37,29,2
1526903588259798,-102,-9,-4,-7,-2,3,-26,-16
1526903588259798,81,16,3,3,0,-6,17,43
1526903588281740,82,-6,-2,-15,-4,1,6,8
1526903588281740,-92,-5,-1,30,10,-2,-11,-67
1526903588282737,77,1,5,-9,-3,-4,0,-28
1526903588282737,-83,-6,0,22,2,-7,2,-5
1526903588296702,4,11,0,-5,1,0,2,3
1526903588296702,11,2,2,-13,-6,0,-12,-10
1526903588296702,-14,4,-1,-8,4,-15,1,-5
1526903588296702,-67,-13,-4,7,-8,-17,-8,-5
1526903588318641,61,4,3,25,11,41,10,8
1526903588318641,-48,-3,-1,-14,-7,-2,4,-1
1526903588319638,33,3,1,0,-5,-10,-9,25
1526903588319638,-23,-6,-1,-10,1,-5,9,-32
1526903588341579,-2,16,3,5,0,-23,-21,14
1526903588341579,33,-10,-5,-10,-4,0,8,-7
1526903588342577,-52,-15,-8,7,-1,11,0,-14
1526903588342577,45,10,2,3,-5,-1,-1,6
1526903588356540,-12,-13,-2,-8,-1,6,0,-15
1526903588356540,5,5,-1,-1,-4,12,11,30
1526903588356540,14,4,3,-3,-3,-7,-1,5
1526903588356540,4,-2,-4,-6,0,-8,-4,8
1526903588378481,48,13,1,8,2,2,14,11
1526903588378481,-29,-9,4,0,-3,-14,-9,34
1526903588379479,36,12,-2,1,3,12,3,-8
1526903588379479,-81,-21,-5,-2,-1,-14,-5,-6
1526903588401420,56,16,5,-4,2,6,6,8
1526903588401420,-30,-24,-10,-26,-3,-7,-5,-3
1526903588402418,-1,4,3,33,0,1,-7,15
1526903588402418,-47,0,1,1,4,2,-3,-18
1526903588416380,11,-2,-4,8,-1,-23,5,-6
1526903588416380,1,0,-1,3,2,66,-15,-3
1526903588417377,1,-4,0,0,-3,-20,11,12
1526903588417377,42,6,1,-5,-1,-5,-2,2
1526903588438321,2,-5,-3,-10,-2,-2,4,46
1526903588438321,-58,-3,-7,1,-4,-27,-20,-63
1526903588439318,19,-10,-5,-20,-2,37,7,28
1526903588439318,52,12,5,21,1,14,0,23
1526903588462257,-22,-5,-3,-12,-5,-16,-10,-21
1526903588462257,67,-2,-1,13,0,-10,-2,-1
1526903588462257,-17,-1,-4,-16,-5,-22,-16,3
1526903588462257,-13,2,2,3,4,7,3,-4
1526903588476220,29,-1,-3,0,2,21,7,-5
1526903588476220,-23,5,2,0,-2,-12,18,10
1526903588477217,54,0,-1,0,-2,4,-4,-11
1526903588477217,-19,2,0,-4,-1,-11,4,5
1526903588499158,-42,-10,-2,-5,-4,-2,-7,-37
1526903588499158,17,8,-4,5,1,5,-2,4
1526903588499158,-43,-5,5,6,8,-9,-5,13
1526903588499158,6,-4,-3,1,-3,47,0,17
1526903588522097,-20,-5,-3,-21,-5,-21,-10,-5
1526903588522097,0,1,5,32,5,-6,4,13
1526903588523094,-52,3,-2,-1,-5,-4,-11,-18
1526903588523094,43,3,1,-4,1,-20,2,-6
1526903588536059,-56,-12,1,1,6,21,-7,5
1526903588536059,14,-1,-7,-17,-6,12,-8,1
1526903588537057,-37,-6,-3,6,-3,-25,5,-47
1526903588537057,-23,-9,-2,-3,0,-11,-11,-12
1526903588558998,24,14,3,-4,0,7,17,38
1526903588558998,-42,-4,-2,-7,-4,-8,-10,-16
1526903588558998,79,-2,0,2,1,-1,-1,33
1526903588558998,50,9,0,-11,-3,-13,17,40
1526903588581937,-77,-13,-7,21,0,-10,-14,-19
1526903588581937,16,-1,0,0,4,6,-2,11
1526903588582934,-32,1,0,0,-1,9,-1,-37
1526903588582934,-17,-6,-2,-2,-2,-2,0,22
1526903588595899,18,8,2,-2,-2,-5,-9,-16
1526903588595899,26,12,-1,1,1,-6,15,15
1526903588596897,16,-5,-1,-3,1,5,-2,5
1526903588596897,-9,2,4,1,1,-5,-9,-24
1526903588618838,-31,-3,-1,4,1,-1,2,-3
1526903588618838,48,6,0,-8,0,-8,4,-10
1526903588619836,35,-7,-2,-11,-7,-16,-7,23
1526903588619836,-56,-2,0,19,4,10,7,-36
1526903588641777,-46,-11,-5,0,0,-28,-12,10
1526903588641777,0,9,-3,-15,0,8,-4,-50
1526903588642775,17,0,-7,-9,-2,20,16,44
1526903588642775,16,-16,-3,-2,-3,1,7,0
1526903588656737,46,17,6,1,-3,-23,13,38
1526903588656737,-30,-5,1,4,-1,-6,-6,-5
1526903588656737,-4,-1,-3,-1,-1,-5,-1,3
1526903588656737,-4,1,-4,-9,-3,-5,-21,-15
1526903588678678,57,6,3,-5,0,20,18,23
1526903588678678,-23,-4,0,7,-2,3,-5,21
1526903588679676,19,12,4,-1,0,0,5,1
1526903588679676,-62,-11,-3,3,-2,-11,-5,-4
1526903588701617,44,6,-2,-5,-3,6,-9,-7
1526903588701617,-42,-20,-6,-7,-7,-22,-4,10
1526903588702614,17,0,-1,2,3,10,16,12
1526903588702614,18,-2,-6,-7,-7,-1,-2,-7
1526903588716577,-30,4,-1,2,3,7,2,-9
1526903588716577,39,3,7,12,3,-22,5,-1
1526903588716577,-32,-7,-3,-5,0,-1,-16,-31
1526903588716577,29,4,0,3,-2,-3,4,3
1526903588738518,-12,-8,-6,1,0,7,4,4
1526903588738518,58,5,-1,-22,-5,-7,-11,30
1526903588739516,-66,-2,1,22,-1,25,-11,-36
1526903588739516,9,-1,2,20,6,-16,2,0
1526903588761457,95,-2,0,-1,2,11,0,15
1526903588761457,-34,0,-5,-3,-2,-11,18,-16
1526903588762454,-2,1,3,-9,-3,-10,3,32
1526903588762454,-55,-6,-3,-13,-4,7,-21,-24
1526903588775419,16,4,-3,5,-4,-13,-25,-9
1526903588775419,6,6,3,-4,1,0,24,10
1526903588783398,39,-4,-2,-4,-12,-34,-5,8
1526903588783398,64,-4,-2,-4,1,8,6,3
1526903588798358,-90,-5,2,10,-3,-5,5,-34
1526903588798358,26,17,0,2,-4,7,-14,-23
1526903588799356,-21,-8,0,-9,0,2,-6,-2
1526903588799356,-25,-3,-3,-1,-4,-2,-1,-14
1526903588822294,53,5,-2,-14,-1,-4,9,-4
1526903588822294,-34,-3,0,-1,-4,13,-9,2
1526903588822294,-13,-10,2,32,11,4,1,-2
1526903588822294,24,3,-2,-4,-4,3,16,28
1526903588835259,-21,-10,-7,-8,2,7,-18,-15
1526903588835259,22,3,0,1,-3,2,46,18
1526903588843238,63,16,-2,-20,-5,-11,-65,-5
1526903588843238,-17,-9,2,-4,1,-9,13,39
1526903588858198,-55,-7,-7,8,-3,94,-22,-54
1526903588858198,15,0,1,-12,-9,-30,16,7
1526903588859195,26,4,3,-1,3,-4,-6,27
1526903588859195,-66,6,0,2,4,13,12,-28
1526903588881137,-65,-26,-10,-10,-7,-8,-7,-33
1526903588881137,29,9,-1,2,2,3,-13,14
1526903588882134,-40,-5,-1,2,0,0,24,36
1526903588882134,-38,-3,-7,-23,-9,17,-36,-97
1526903588895099,29,4,5,16,1,-27,18,22
1526903588895099,40,-7,-1,10,5,9,-10,26
1526903588904075,-57,2,-2,-1,-5,-17,11,-29
1526903588904075,61,12,3,-4,2,3,-21,23
1526903588919035,-5,-7,-4,-9,-5,-17,5,4
1526903588919035,7,2,-4,-12,-7,-4,-1,15
1526903588919035,-47,3,-1,2,8,13,4,-18
1526903588919035,23,-8,10,33,8,6,12,37
1526903588940976,13,9,-3,-7,-4,-11,7,25
1526903588940976,11,0,0,8,4,4,-6,24
1526903588941974,9,1,-5,-19,-5,7,-2,-32
1526903588941974,-44,-12,-2,-3,-1,-4,20,10
1526903588955936,32,5,2,6,-1,-18,6,30
1526903588955936,8,-3,-1,-7,2,6,-30,12
1526903588963915,83,6,1,3,3,13,32,22
1526903588963915,-57,1,-6,-3,-8,-48,-25,-14
1526903588978875,41,7,4,0,2,4,28,35
1526903588978875,-29,-7,-3,-1,1,-3,-13,-35
1526903588979873,14,-4,3,-7,-1,9,14,2
1526903588979873,56,13,1,1,-4,3,-8,25
1526903589009793,-40,-16,-4,14,3,-13,-16,-50
1526903589009793,-19,3,3,-2,5,21,11,7
1526903589009793,-65,-7,-2,0,-3,-15,-20,-22
1526903589009793,80,0,-1,20,5,20,24,14
1526903589015777,-37,9,2,-16,-5,-12,-17,-16
1526903589015777,5,1,-1,3,1,0,-4,-20
1526903589023755,84,1,-1,-1,-3,5,4,-9
1526903589023755,-18,-2,-2,-15,-2,-44,-20,-4
1526903589038715,42,4,8,4,3,57,4,0
1526903589038715,-22,1,-3,23,-3,-14,4,-18
1526903589039713,-35,-7,-3,-4,1,0,-5,22
1526903589039713,42,5,2,-3,1,-9,12,18
1526903589061654,21,3,0,-12,-4,-14,-10,8
1526903589061654,-88,-3,-1,-8,-2,8,-6,5
1526903589061654,24,-2,-1,9,-4,-1,12,-2
1526903589061654,20,-2,-1,-1,1,23,18,10
1526903589075616,10,0,0,6,-1,-25,-8,16
1526903589075616,17,12,2,-19,0,25,3,18
1526903589091574,17,-11,3,35,-2,-19,6,22
1526903589091574,6,0,-7,-14,-2,9,-14,-23
1526903589098555,-13,4,-1,-14,-2,-2,12,5
1526903589098555,47,-14,-4,20,2,-22,-9,-2
1526903589099553,-38,-5,-7,-15,-3,5,-7,-11
1526903589099553,44,10,5,-15,-1,4,7,-25
1526903589121494,-100,-12,-3,7,-3,-11,-5,-28
1526903589121494,51,6,-1,-9,-4,-3,-4,5
1526903589121494,-52,-10,-4,-10,0,-1,-14,-32
1526903589121494,-18,-3,-2,-6,-11,9,0,-2
1526903589144433,28,9,0,-8,7,-4,-2,46
1526903589144433,-88,-15,-2,9,9,0,1,-39
1526903589145430,73,5,3,-2,-7,-5,5,39
1526903589145430,-33,-3,-1,1,1,-6,-7,-5
1526903589158395,99,13,1,0,1,-12,2,11
1526903589158395,-35,-12,-4,0,2,21,8,19
1526903589159393,-12,-3,0,-2,-4,10,-1,-17
1526903589159393,-29,-3,-5,-4,-7,-20,-12,-3
1526903589181334,34,4,0,5,-1,3,-14,25
1526903589181334,45,-3,-5,-23,-3,-8,8,12
1526903589182331,-12,11,0,22,8,3,3,-4
1526903589182331,7,-10,2,10,-9,6,-7,13
1526903589203275,-23,-4,-1,6,6,-4,1,-25
1526903589203275,-24,0,3,-2,-5,-16,-3,36
1526903589211254,28,7,0,-14,-3,1,8,-7
1526903589211254,9,0,-1,-15,2,11,-12,7
1526903589218235,-76,-10,-8,7,0,-3,-10,-51
1526903589218235,40,7,4,16,-2,9,9,22
1526903589219233,-88,-8,3,-4,3,7,-3,13
1526903589219233,-21,-6,-10,-5,-4,-8,-23,-54
1526903589241174,4,8,1,-12,-4,0,11,21
1526903589241174,-1,-3,-1,0,-1,1,-1,-10
1526903589242171,-15,-10,-5,-26,-2,-7,-11,-1
1526903589242171,21,1,4,1,11,2,13,45
1526903589264112,-5,0,3,61,4,-4,8,27
1526903589264112,27,2,-3,-14,-5,-8,0,-3
1526903589265110,-20,-5,-7,-11,-13,-5,-12,-59
1526903589265110,-18,3,3,-12,1,2,4,37
1526903589287051,31,-3,-6,-28,-6,3,-2,-7
1526903589287051,10,1,8,63,8,-5,1,2
1526903589288048,-3,4,-1,-1,5,-15,4,-3
1526903589288048,-16,-12,-6,7,-7,-4,4,-56
1526903589301014,-14,3,2,-22,-3,3,10,60
1526903589301014,14,0,-7,-12,-3,-10,-25,-35
1526903589302012,29,1,0,-3,-2,-1,7,17
1526903589302012,12,10,2,17,4,-3,-2,20
1526903589331931,69,-6,2,-11,3,12,21,13
1526903589331931,6,-10,-7,-14,-6,-19,-18,-24
1526903589332929,-18,-5,-12,-69,-8,3,-25,-60
1526903589332929,-31,-5,5,68,6,-30,9,-10
1526903589338912,37,13,3,0,-1,19,6,-2
1526903589338912,-96,-13,-3,-2,-2,-3,-9,-78
1526903589339910,18,-2,-2,-7,-4,-7,-20,15
1526903589339910,63,4,-1,-24,5,24,6,-6
1526903589360854,43,-6,-10,-5,-4,-8,-2,20
1526903589360854,8,6,-2,-8,0,5,30,29
1526903589368832,-38,-10,2,21,1,1,-7,3
1526903589368832,7,10,-1,-18,-7,2,3,-6
1526903589384790,-13,-2,5,19,5,1,2,7
1526903589384790,16,4,0,-19,-1,21,2,31
1526903589384790,-3,0,3,16,0,3,27,-6
1526903589384790,-11,-2,-5,1,1,-33,-43,8
1526903589398752,-43,-2,0,-11,0,91,9,21
1526903589398752,16,5,0,31,-1,-32,-7,-6
1526903589399750,2,8,4,-2,-1,3,22,40
1526903589399750,-13,-17,0,28,-5,9,-2,2
1526903589421691,-43,-7,-10,-10,-3,-34,-18,-70
1526903589421691,-3,-1,4,-3,4,-1,2,-14
1526903589421691,-79,-2,2,24,5,-14,-2,21
1526903589421691,33,11,4,-24,-2,22,19,39
1526903589444630,27,-4,-4,-17,-9,-24,-7,-35
1526903589444630,-83,-2,-1,-2,-3,6,2,-21
1526903589445627,22,4,3,4,5,-7,9,11
1526903589445627,36,1,-4,-13,1,2,0,22
1526903589458592,-86,-13,-5,0,-7,-24,-29,-57
1526903589458592,28,8,-1,-14,-3,1,2,25
1526903589459590,29,-2,2,8,7,17,4,10
1526903589459590,0,-1,-2,0,-2,-2,-3,-10
1526903589481531,18,12,6,10,1,8,12,0
1526903589481531,21,-10,-9,-12,-9,-10,-15,-21
1526903589481531,47,3,4,7,0,-11,-5,12
1526903589481531,-49,-11,-2,2,1,15,16,-11
1526903589504470,38,11,4,-2,4,-1,-5,2
1526903589504470,-32,-9,-1,-10,-6,-33,-6,-21
1526903589505467,46,-3,-7,-13,0,23,-1,17
1526903589505467,-33,1,0,7,-1,-14,-11,-43
1526903589518432,-86,-10,-2,-2,2,-9,6,-1
1526903589518432,14,9,4,-6,1,6,0,26
1526903589519430,-20,-10,-3,4,-4,30,-28,-39
1526903589519430,37,12,2,3,-1,-12,-2,12
1526903589541371,-39,-14,-5,-7,-2,-2,2,-2
1526903589541371,-4,-10,-4,6,-1,9,1,1
1526903589542369,94,7,-2,-5,0,-12,0,26
1526903589542369,-61,-7,-6,-14,-4,1,0,-26
1526903589564309,12,9,7,10,-1,-9,-14,2
1526903589564309,18,8,0,1,0,-8,22,17
1526903589565307,4,3,2,2,-1,12,3,4
1526903589565307,-67,-5,-1,-1,3,-2,-10,-23
1526903589578272,31,-6,-4,4,-2,-3,4,10
1526903589578272,18,-3,-1,-16,1,-5,1,14
1526903589579270,-15,12,7,31,9,24,13,-7
1526903589579270,15,-4,-2,-10,-1,-7,-10,1
1526903589601211,10,4,0,-5,-1,38,12,3
1526903589601211,1,-5,-3,-4,-2,-2,-17,-46
1526903589602208,-11,-7,-2,4,-7,-14,-8,-16
1526903589602208,28,-4,0,-2,5,12,30,28
1526903589624150,-34,-2,-4,-1,0,-12,-27,-57
1526903589624150,95,5,1,-11,-4,16,5,61
1526903589625147,-74,-9,-4,18,-4,-7,-4,-42
1526903589625147,103,6,4,5,-2,-32,-12,29
1526903589638112,-14,9,12,9,3,-10,29,19
1526903589638112,21,0,-6,-4,-3,5,-17,10
1526903589646091,12,2,-1,-15,2,-13,2,24
1526903589646091,-13,-8,0,-4,1,17,11,-6
1526903589661051,35,10,-2,2,-3,-5,-1,13
1526903589661051,-66,-9,-1,1,1,-4,2,3
1526903589662049,49,0,-1,-4,-3,-7,-11,-1
1526903589662049,16,5,2,1,0,10,17,30
1526903589683989,11,-6,0,-24,-6,-17,-3,-12
1526903589683989,-2,2,1,42,9,-2,-9,-27
1526903589684987,-60,2,-2,-9,-6,5,-3,-40
1526903589684987,-1,-10,-5,-14,-3,0,-10,3
1526903589697952,-45,1,-3,8,-1,-4,-2,-2
1526903589697952,23,-2,-3,-5,-1,-3,-7,-12
1526903589705931,11,0,10,6,8,6,23,16
1526903589705931,-39,8,-1,0,-6,-4,-23,-15
1526903589720891,48,-5,-4,-5,-3,-7,8,-9
1526903589720891,-42,-4,-4,-9,-5,-2,-26,-21
1526903589721888,-14,3,2,-10,3,8,13,19
1526903589721888,4,1,-2,-2,-11,-36,0,2
1526903589744827,31,3,3,16,7,13,13,36
1526903589744827,-11,-2,0,-7,-3,-3,1,-35
1526903589744827,23,-9,-4,-9,-3,-2,-14,3
1526903589744827,16,2,5,4,4,12,13,40
1526903589757792,-46,4,-5,-6,-6,-20,-9,-9
1526903589757792,-13,4,4,2,-3,-3,9,7
1526903589765771,6,-5,-1,-1,-1,-7,-6,-33
1526903589765771,60,1,0,-5,2,15,-4,4
1526903589780731,3,5,-6,-2,-5,-9,-11,-1
1526903589780731,-15,-10,-3,-6,0,14,22,13
1526903589781728,-3,0,-4,-4,-7,-14,-10,-16
1526903589781728,35,5,3,10,4,8,8,2
1526903589804667,-14,-2,0,-5,-1,-4,-4,-9
1526903589804667,3,8,0,4,-5,9,0,15
1526903589805664,-38,-13,2,-1,7,0,2,11
1526903589805664,28,19,5,17,9,12,21,3
1526903589817632,66,-32,-14,-14,-9,-11,-24,-30
1526903589817632,26,5,3,-11,0,0,14,17
1526903589826608,0,-1,-1,2,1,0,12,21
1526903589826608,-36,2,-1,-7,-3,-7,-15,-7
1526903589841568,7,6,5,4,0,12,-8,29
1526903589841568,-6,-2,-3,2,4,10,0,16
1526903589841568,65,10,1,-2,0,-8,9,15
1526903589841568,-90,-24,-10,3,-2,3,-8,-77
1526903589864507,0,4,-2,-8,1,-4,3,17
1526903589864507,12,3,8,23,1,-2,2,16
1526903589865504,-18,0,-7,3,-4,-33,-25,-4
1526903589865504,-29,1,-2,-6,-2,26,16,6
1526903589878469,-26,5,2,-5,1,0,18,-13
1526903589878469,-26,-6,2,1,2,0,-7,-22
1526903589886448,20,3,0,5,-3,-4,1,44
1526903589886448,20,-4,0,-2,0,-11,-10,0
1526903589901408,-76,-10,-15,-5,-7,-26,-17,-50
1526903589901408,51,9,1,1,2,20,19,-9
1526903589902406,-34,-5,-4,-3,-6,-4,-12,-15
1526903589902406,47,-9,-2,-6,0,-1,-4,21
1526903589924347,-34,1,4,4,-1,10,19,12
1526903589924347,84,0,2,-3,3,-13,-17,8
1526903589925344,-55,-9,-8,6,-5,21,-5,-23
1526903589925344,1,1,-2,-3,-4,-7,-9,-14
1526903589938309,20,6,3,7,5,3,2,12
1526903589938309,13,2,-3,-12,-6,-8,-2,17
1526903589946288,-15,6,5,-1,2,17,13,9
1526903589946288,4,-26,-9,-7,-3,-13,-6,-25
1526903589961248,-27,13,6,-3,5,11,9,74
1526903589961248,34,-7,-10,1,-9,-7,-23,-34
1526903589962246,-23,-1,-1,5,5,-5,1,-5
1526903589962246,26,7,3,16,-1,-5,6,36
1526903589984187,6,-6,1,-4,1,1,-2,-12
1526903589984187,33,0,2,-2,-1,6,15,2
1526903589985190,-40,2,-3,-15,-5,-12,-1,-10
1526903589985190,-6,-5,1,1,1,-9,-13,-5
1526903589998152,29,8,2,3,-1,5,-8,-5
1526903589998152,-39,-17,-8,-10,-4,2,-2,-9
1526903590006128,54,-2,-2,-3,-3,-2,6,9
1526903590006128,-26,7,0,-7,-1,5,4,-7
1526903590021088,31,8,0,2,0,1,9,19
1526903590021088,-21,-3,0,0,-1,-9,-3,4
1526903590022086,24,-2,3,1,2,-2,-6,21
1526903590022086,-47,1,-3,1,0,4,18,10
1526903590044027,45,0,-1,-6,-2,-1,-3,-1
1526903590044027,-82,2,-8,-12,-5,-10,-37,-33
1526903590044027,28,-3,1,15,1,9,10,8
1526903590044027,33,-6,-7,-9,-5,-7,-11,6
1526903590066965,-5,-1,1,4,1,-4,-4,-29
1526903590066965,-15,-6,-3,-13,-3,3,9,1
1526903590067963,-11,0,0,-11,-3,1,-2,-4
1526903590067963,15,6,-2,7,0,-20,-7,-20
1526903590080928,-13,-4,0,5,-2,13,-5,45
1526903590080928,44,-18,-4,18,-1,5,-2,-28
1526903590081926,26,6,-3,-16,-4,-11,1,18
1526903590081926,4,-4,1,0,-1,1,5,-1
1526903590103866,-7,-1,1,-1,0,-4,-9,-2
1526903590103866,-30,6,5,4,3,-3,11,19
1526903590104864,24,-1,2,1,-1,5,-1,-3
1526903590104864,-42,5,4,-2,2,7,5,15
1526903590126805,84,2,-8,-4,-3,-3,-5,-8
1526903590126805,-29,0,1,-14,-5,-4,12,-2
1526903590127803,33,-2,2,22,7,-23,-14,37
1526903590127803,53,11,0,8,0,49,-3,7
1526903590140768,-29,-2,-6,-8,-8,-7,4,-30
1526903590140768,1,3,4,10,2,4,6,-31
1526903590141765,4,0,-1,7,0,-11,8,11
1526903590141765,5,1,2,8,7,-6,-9,-1
1526903590163707,-47,-8,-4,-3,-7,5,8,-1
1526903590163707,62,18,1,-13,4,-2,-5,4
1526903590164704,-80,-32,-4,5,3,12,-26,-35
1526903590164704,15,-8,-7,-9,-8,-7,18,-66
1526903590186645,-5,1,3,5,-1,-16,-2,6
1526903590186645,-22,5,1,-11,-1,-8,12,50
1526903590187643,-12,2,-1,-5,-6,3,-13,-83
1526903590187643,27,2,0,-9,-2,-9,1,37
1526903590201605,-16,-6,-4,-5,-3,7,-1,-12
1526903590201605,-38,3,4,12,0,4,-3,-4
1526903590201605,32,3,4,-3,-2,8,20,36
1526903590201605,-61,-11,-7,-9,-1,-12,-26,-80
1526903590223547,10,3,0,2,0,-7,1,-31
1526903590223547,-8,-1,3,8,4,-2,-12,9
1526903590224544,7,3,0,-4,-2,8,5,1
1526903590224544,-19,6,-2,-11,-5,-13,1,3
1526903590246485,0,-13,-2,2,2,3,-11,-17
1526903590246485,30,1,0,-6,-2,-9,7,11
1526903590247483,-24,-5,-1,4,3,3,7,-2
1526903590247483,0,6,4,-1,-2,-4,9,55
1526903590261445,-26,0,-4,0,2,16,-15,2
1526903590261445,23,-4,-6,-4,-15,-37,-2,-9
1526903590262443,-21,-5,1,9,5,-1,2,-13
1526903590262443,6,2,0,-4,-1,24,12,26
1526903590283386,-6,5,0,0,-5,-59,-5,1
1526903590283386,-31,-3,-6,-17,1,14,4,-16
1526903590284384,-39,-10,-5,8,-3,7,-10,9
1526903590284384,-64,-6,-2,8,0,-32,-7,-81
1526903590307322,26,5,2,4,2,20,-3,-4
1526903590307322,-17,-1,1,4,8,13,6,-3
1526903590307322,47,2,-3,-13,-8,-33,-6,3
1526903590307322,-39,-3,-2,0,1,15,-7,12
1526903590321285,19,8,3,-3,-2,1,8,4
1526903590321285,-9,-20,-5,5,0,2,-6,-13
1526903590322283,-15,7,0,-5,-1,10,5,-7
1526903590322283,27,7,8,8,6,-17,-6,20
1526903590343227,15,-4,-3,-3,-3,23,8,22
1526903590343227,11,9,3,7,-2,-5,-2,16
1526903590344224,-4,-15,-5,-11,-5,-6,-19,-31
1526903590344224,16,-4,-3,1,-2,-9,-3,8
1526903590367163,-12,10,-1,-2,-1,-6,14,2
1526903590367163,9,-5,5,12,3,12,-11,-24
1526903590367163,18,12,0,-5,-1,21,9,9
1526903590367163,-16,7,2,-6,-1,6,-6,-14
1526903590381125,17,-11,-6,-3,0,16,-8,16
1526903590381125,4,-2,-6,-7,-11,-47,-11,-37
1526903590382123,-20,5,3,1,0,-5,-2,7
1526903590382123,-33,-3,2,-7,1,12,7,3
1526903590404064,-27,-12,-6,-1,-3,11,-9,-19
1526903590404064,-37,10,2,-11,5,8,3,21
1526903590404064,46,-5,1,16,2,-8,-11,-19
1526903590404064,-37,-2,-4,-10,0,4,1,7
1526903590427002,11,-4,2,14,3,-8,4,-5
1526903590427002,-39,-4,-4,-3,0,18,4,12
1526903590428000,96,8,3,-3,0,-34,4,33
1526903590428000,11,2,-1,-4,-9,10,-2,20
1526903590440965,-7,12,3,-10,1,11,9,9
1526903590440965,-46,-10,-6,-3,3,36,-12,-26
1526903590441963,-10,-9,-6,-2,-5,5,11,15
1526903590441963,35,-2,-1,3,3,1,6,1
1526903590463904,6,0,2,-1,0,-12,-3,-4
1526903590463904,45,9,2,2,-4,-5,3,2
1526903590464901,-36,-1,-3,-12,-1,11,0,-2
1526903590464901,-49,-1,-1,4,0,16,3,1
1526903590486842,19,-1,0,11,-1,-13,-18,22
1526903590486842,66,3,-2,1,-4,-12,6,17
1526903590487840,-20,1,-1,-16,-2,1,3,-26
1526903590487840,33,-6,-3,13,-2,-3,-2,11
1526903590500805,-26,-1,-2,-8,4,5,4,-13
1526903590500805,25,6,0,3,1,-1,11,6
1526903590501802,-3,-10,-2,-2,-2,12,-11,0
1526903590501802,14,4,-1,-8,-5,-30,-2,14
1526903590523744,1,-4,-1,14,-5,-4,-1,-8
1526903590523744,-46,2,2,12,3,-5,-4,-1
1526903590524741,-107,-7,-5,0,1,11,-1,-36
1526903590524741,29,-10,-4,-8,-5,-3,-12,-11
1526903590545685,64,9,3,4,0,-3,1,-11
1526903590545685,-22,8,1,-4,1,-2,-3,18
1526903590553664,41,-5,3,6,-1,1,2,8
1526903590553664,10,1,-3,-1,2,6,1,8
1526903590561642,-32,2,-6,-12,-3,-12,1,-1
1526903590561642,32,-16,3,7,4,4,2,2
1526903590561642,42,16,3,2,1,5,9,21
1526903590561642,-2,-10,-7,-9,-4,-5,-15,-17
1526903590583584,28,9,0,-2,3,6,-3,1
1526903590583584,-73,-20,-1,4,1,12,11,11
1526903590584581,11,6,-1,-10,-3,-21,-16,2
1526903590584581,9,6,2,10,-4,-9,6,-23
1526903590606522,-32,-11,-7,-9,-4,-2,-4,6
1526903590606522,12,2,1,-2,-1,-5,-3,-9
1526903590607520,-26,-1,0,11,0,-7,12,13
1526903590607520,3,1,-4,-4,4,26,2,5
1526903590620485,-35,2,0,-4,-3,-9,4,-7
1526903590620485,49,-1,-7,-10,-3,-2,-8,-4
1526903590628464,-33,-9,1,1,2,-19,2,-10
1526903590628464,35,1,7,5,3,22,-5,15
1526903590643424,-35,-14,-3,-2,-1,-2,-8,-12
1526903590643424,-21,11,1,-4,-2,0,9,23
1526903590644421,20,1,1,0,1,-3,5,-23
1526903590644421,-40,0,-8,-6,-4,-14,-2,-7
1526903590667360,38,-1,4,1,4,5,-14,-7
1526903590667360,-24,1,3,2,-3,-6,-2,-9
1526903590667360,-17,-2,1,1,1,18,-1,11
1526903590667360,-6,-1,-2,-3,-4,-30,-3,-9
1526903590680325,-8,-2,0,-1,0,-1,12,5
1526903590680325,16,0,-4,1,-3,0,-15,-26
1526903590688304,-4,6,-2,3,-3,7,1,9
1526903590688304,57,-1,2,0,3,4,-1,9
1526903590703263,-9,4,4,4,3,-7,7,11
1526903590703263,3,-12,-2,-4,-3,-5,-9,-6
1526903590704261,19,1,-2,-4,-3,-1,0,3
1526903590704261,0,0,-3,-1,-1,13,-5,3
1526903590727199,15,4,0,-5,-2,6,18,2
1526903590727199,-6,2,3,3,7,46,17,25
1526903590728197,-7,-10,-7,-2,-7,-8,-9,-45
1526903590728197,19,6,1,1,2,24,9,23
1526903590740165,-46,-10,-7,-5,-9,-30,-32,-33
1526903590740165,17,-3,0,-3,-1,-10,3,14
1526903590749141,14,1,5,3,4,5,-1,4
1526903590749141,-4,-7,-7,-6,-3,-14,-5,-14
1526903590764101,4,-1,2,4,1,3,6,5
1526903590764101,-1,-8,-6,-4,-3,-8,-16,-35
1526903590764101,41,1,-4,0,-1,4,2,15
1526903590764101,-5,3,2,0,2,-9,12,3
1526903590787040,-27,0,1,3,0,7,1,-8
1526903590787040,-10,-10,-4,-1,-1,-13,2,1
1526903590788037,33,-5,0,0,3,7,0,8
1526903590788037,-39,1,1,0,-4,-19,-14,-13
1526903590801002,11,2,-7,-5,0,23,5,14
1526903590801002,-19,11,5,5,-1,-24,-10,-3
1526903590808981,12,-6,-4,-5,-2,0,9,-9
1526903590808981,-7,-5,-1,-1,-6,-8,-2,5
1526903590823941,-2,0,-4,2,10,-26,6,17
1526903590823941,2,-3,4,6,4,21,7,2
1526903590824938,-3,5,-4,-4,2,40,4,18
1526903590824938,5,2,-4,-3,-3,-20,-29,-10
1526903590846879,87,3,3,3,-2,11,32,56
1526903590846879,-53,-1,-4,-1,0,-5,-4,-43
1526903590847877,17,3,4,2,0,-30,-13,-3
1526903590847877,-29,-10,2,1,1,55,10,2
1526903590860843,-11,3,0,-2,-4,-3,-15,-12
1526903590860843,95,7,2,2,1,-6,-1,9
1526903590868821,-70,2,-2,-1,-2,1,-8,-41
1526903590868821,-19,-18,-5,-4,1,-9,1,22
1526903590883781,32,4,-4,-2,-2,-3,-4,-7
1526903590883781,19,8,1,0,-2,5,19,17
1526903590884778,-33,4,-2,-2,-6,-20,-16,-10
1526903590884778,30,8,6,5,5,-6,5,-7
1526903590906720,-52,-24,-4,-1,-1,5,-5,-21
1526903590906720,-7,1,-5,-3,-6,-21,-9,14
1526903590907717,20,-9,-3,-2,5,14,0,3
1526903590907717,-7,2,-1,0,0,-6,2,-7
1526903590929658,-10,2,0,1,-4,-20,-12,-12
1526903590929658,8,6,-1,-1,-1,3,14,14
1526903590930656,-8,-4,0,-2,-2,-4,2,16
1526903590930656,9,2,-3,-4,0,4,1,-11
1526903590943621,-33,2,4,4,2,4,-15,-5
1526903590943621,-20,-9,-1,1,3,17,0,-9
1526903590944618,-74,-12,-10,-5,-9,-17,-9,-75
1526903590944618,26,6,3,3,2,2,0,-1
1526903590966559,-20,-10,-4,-4,1,8,11,11
1526903590966559,-48,-6,-1,0,0,-2,-4,12
1526903590967557,107,16,6,3,2,12,18,49
1526903590967557,-65,-7,-6,-3,-5,-12,-7,-32
1526903590980522,44,6,-3,-2,-2,-4,-3,-16
1526903590980522,27,-14,-8,-7,-5,-10,-9,-5
1526903590988501,0,2,5,3,1,-1,0,36
1526903590988501,12,-4,-5,-2,-2,-6,-1,-10
1526903591003461,-16,10,-1,-1,0,1,5,11
1526903591003461,0,-3,3,0,1,9,-1,4
1526903591004459,4,2,1,-1,-1,-9,7,25
1526903591004459,38,9,2,0,-2,-3,12,46
1526903591026399,-70,-19,-8,-5,-2,14,-17,-43
1526903591026399,1,10,2,0,2,7,4,0
1526903591027397,20,-1,-1,-3,-2,-4,0,4
1526903591027397,-86,-1,1,1,4,-13,1,1
1526903591049338,1,0,2,1,-2,-12,19,-1
1526903591049338,-12,5,-5,-2,-9,-21,-6,-10
1526903591050335,-42,-16,-2,-3,1,23,-9,-15
1526903591050335,40,2,0,1,0,-10,-6,13
1526903591063301,3,2,-5,-3,-7,-4,-6,-41
1526903591063301,22,-6,-6,-15,-5,19,-4,12
1526903591064298,-53,-1,2,-3,-1,-16,7,-19
1526903591064298,-45,-6,0,7,-2,-13,-4,8
1526903591087237,97,1,2,0,2,3,3,19
1526903591087237,2,4,0,1,-1,-1,-5,-7
1526903591087237,-21,1,-7,-9,-5,-2,-9,-17
1526903591087237,25,2,2,-4,-2,9,-1,-4
1526903591109178,44,8,8,7,2,9,5,45
1526903591109178,-76,-9,-4,-1,1,-8,-10,-65
1526903591110176,7,6,3,5,-5,-11,-9,18
1526903591110176,-5,-5,1,0,3,11,11,-7
1526903591124138,50,11,1,0,-1,11,2,5
1526903591124138,-50,0,-1,-5,1,-7,-5,7
1526903591124138,-18,-18,0,10,0,-6,-9,-17
1526903591124138,30,9,1,6,2,5,7,-20
1526903591146080,-66,-3,-3,-14,-3,-4,-6,8
1526903591146080,15,-3,-2,-3,4,2,-10,-17
1526903591147077,4,11,4,12,-4,-4,1,-22
1526903591147077,30,-1,-1,1,-1,0,4,23
1526903591169018,-34,-2,0,3,3,3,2,-13
1526903591169018,46,2,2,-6,-3,-13,-3,24
1526903591170015,20,1,-3,-8,0,-4,5,-1
1526903591170015,-6,-2,-2,-8,-2,8,1,-5
1526903591183978,31,5,3,-3,1,-7,0,21
1526903591183978,-46,-11,-2,21,1,-8,-4,-2
1526903591184976,78,4,-2,-3,0,-1,1,9
1526903591184976,-14,-3,-10,-17,-11,-13,-20,-56
1526903591205919,-66,-1,-2,17,3,5,12,1
1526903591205919,94,1,2,-5,-5,-29,4,-5
1526903591206917,-10,-2,-1,0,2,11,-9,4
1526903591206917,12,2,0,3,-1,0,-2,-10
1526903591229856,-36,-9,-4,-5,-3,-11,-4,-7
1526903591229856,49,2,-2,-6,-4,20,5,16
1526903591229856,-25,-3,-1,-11,2,-7,1,-2
1526903591229856,34,4,3,9,4,13,8,33
1526903591243818,-14,-9,-9,-2,-2,8,6,-18
1526903591243818,-19,3,8,-3,2,21,16,8
1526903591244815,-14,-10,-7,-1,-2,-13,-6,-4
1526903591244815,28,10,3,15,2,-1,0,5
1526903591265759,2,-4,-2,2,0,-4,-12,16
1526903591265759,-19,-6,-7,-11,-4,-1,0,-6
1526903591266757,42,4,-3,-8,-2,3,4,6
1526903591266757,-1,-3,0,0,-1,-3,-5,-10
1526903591289695,1,-5,-2,-3,-4,-27,7,-2
1526903591289695,-1,8,6,11,5,-3,1,10
1526903591290693,7,-10,-2,-5,-3,15,-6,9
1526903591290693,-32,-1,-5,-8,-1,-11,4,5
1526903591303658,-5,-3,-4,-25,-5,4,-11,-38
1526903591303658,-4,1,3,23,6,-1,-1,26
1526903591304656,18,0,0,4,-3,-11,2,15
1526903591304656,10,2,1,5,1,-6,-1,14
1526903591326596,-22,3,-2,-7,-5,24,-5,16
1526903591326596,-3,-8,-4,-1,4,6,-9,-27
1526903591326596,-10,5,4,12,-4,3,28,10
1526903591326596,-14,-3,-3,-11,5,11,-7,-13
1526903591349535,54,4,4,11,1,-1,15,22
1526903591349535,-29,0,3,6,-2,-14,-25,-21
1526903591350533,-6,2,-3,-10,3,42,5,15
1526903591350533,-20,-8,-9,-17,-10,-22,-6,-27
1526903591363498,40,5,3,2,2,6,-13,1
1526903591363498,3,-17,-6,-4,-6,1,8,-43
1526903591364495,24,12,3,8,2,-11,-4,-5
1526903591364495,-51,-14,1,-3,1,13,10,5
1526903591386436,53,11,3,-10,-1,-1,-1,-1
1526903591386436,-28,-2,-1,4,-3,-8,5,9
1526903591387434,12,3,6,14,7,0,-11,18
1526903591387434,-15,7,0,2,0,3,-3,-3
1526903591409375,28,1,0,0,-5,-29,-4,2
1526903591409375,9,-7,-5,-13,-1,30,9,5
1526903591410373,-33,-6,-2,-12,-2,-10,3,-9
1526903591410373,59,12,7,15,-1,2,-4,39
1526903591423338,-44,-11,-4,1,3,-5,-5,-33
1526903591423338,40,0,-5,-15,-5,-6,19,20
1526903591431316,-33,2,-1,3,3,-8,-10,-20
1526903591431316,-22,-13,0,0,1,4,-1,2
1526903591446277,43,9,2,-10,-2,-11,1,12
1526903591446277,-27,-3,-1,22,-1,25,-10,-18
1526903591447274,3,-4,-1,-6,-8,-19,7,15
1526903591447274,25,2,-3,-1,0,5,11,-9
1526903591469215,-89,-2,2,20,6,-21,-20,-45
1526903591469215,-4,-2,-3,-8,-1,39,6,24
1526903591470213,40,4,3,1,-4,-19,-4,0
1526903591470213,-39,-13,-6,-5,-6,-13,-2,-22
1526903591484175,104,-1,-1,2,1,4,12,31
1526903591484175,-63,2,-1,-6,1,-20,0,3
1526903591484175,-13,2,1,-1,-3,16,-13,-10
1526903591484175,5,-6,-8,-6,-1,4,-6,2
1526903591506117,-21,-5,-6,-7,-5,5,-12,-20
1526903591506117,58,10,8,8,2,-7,7,30
1526903591507114,48,4,-3,-12,3,2,-1,11
1526903591507114,-72,-7,-2,-3,-9,-15,-6,-36
1526903591529056,30,2,3,9,1,14,4,20
1526903591529056,-13,4,0,-10,0,-18,-14,-24
1526903591530053,-27,-7,-4,13,0,-8,2,1
1526903591530053,34,14,3,-8,-2,12,4,-3
1526903591544015,-55,-4,-4,-1,-3,2,-2,-13
1526903591544015,15,-3,0,-5,-5,-13,2,15
1526903591544015,13,6,1,-1,1,8,4,11
1526903591544015,-57,-16,-1,-1,1,2,-11,-57
1526903591565957,7,11,0,6,1,-14,7,12
1526903591565957,31,-8,4,4,-1,-16,-6,23
1526903591566954,9,1,-4,-2,0,6,-5,-7
1526903591566954,30,10,6,3,0,5,7,32
1526903591589893,-9,-2,-1,-3,-5,-1,-1,4
1526903591589893,-24,-2,0,-1,1,-23,-11,-21
1526903591589893,52,-2,-5,-14,-7,60,-3,-3
1526903591589893,14,-2,0,7,2,11,4,12
1526903591602858,-17,-6,-2,0,2,10,4,-5
1526903591602858,17,5,3,16,3,2,4,20
1526903591610837,-62,-4,-2,-4,-3,-11,3,-23
1526903591610837,67,3,1,-5,4,-5,-11,25
1526903591625796,-38,-8,-3,-3,-3,7,1,-5
1526903591625796,17,2,0,-16,-2,1,0,12
1526903591626794,-28,-4,2,9,1,-18,0,-13
1526903591626794,-15,2,-6,-1,-4,-11,-2,1
1526903591649732,-4,-1,-1,-2,2,0,3,-2
1526903591649732,8,-9,-5,-7,-4,-1,-2,-7
1526903591650730,-53,-2,-2,-2,2,-12,1,8
1526903591650730,13,9,3,1,-1,-1,1,19
1526903591662698,-19,-7,0,2,-2,0,5,-5
1526903591662698,17,7,0,2,2,28,-17,-30
1526903591671674,-34,-7,0,1,0,-9,14,16
1526903591671674,36,8,0,1,-1,-2,0,0
1526903591686634,-52,-5,0,-3,-2,-4,0,25
1526903591686634,-4,0,-4,0,-2,-2,5,-2
1526903591686634,5,-5,3,7,2,-2,3,-8
1526903591686634,24,7,-1,-4,-6,-8,-28,-20
1526903591709572,-17,-1,-7,-4,-5,0,5,12
1526903591709572,-24,-6,-2,0,-2,-10,-15,-24
1526903591710570,19,4,0,-4,-1,-6,3,2
1526903591710570,-11,-5,-3,-1,-1,-4,0,-4
1526903591723535,8,6,2,2,-3,-20,-10,-12
1526903591723535,45,-7,1,5,1,18,5,16
1526903591731513,41,3,3,-2,1,3,19,25
1526903591731513,-51,-1,-6,-4,-4,-2,-9,-19
1526903591746474,-8,-2,4,0,2,2,8,20
1526903591746474,18,8,2,4,-2,-19,-3,9
1526903591747471,-38,-9,-6,-3,-6,-1,-27,-43
1526903591747471,-32,-4,-1,-7,0,2,8,4
1526903591769412,-2,-4,3,14,2,16,-1,2
1526903591769412,21,4,1,-3,-1,-9,6,28
1526903591770410,-30,-5,-6,-5,-1,3,-1,-7
1526903591770410,1,1,-1,1,0,-1,7,17
1526903591783375,-1,-12,-6,-6,-3,-3,-14,-25
1526903591783375,-12,-2,2,0,0,1,7,1
1526903591791354,9,0,-3,0,-1,-4,-6,1
1526903591791354,6,6,4,2,2,0,11,25
1526903591806314,70,-3,1,0,3,2,1,-9
1526903591806314,-1,-3,-1,-1,-1,8,0,6
1526903591807311,-1,8,-1,-4,-4,-26,-21,-8
1526903591807311,-13,-14,-6,-4,-4,10,16,-9
1526903591829253,-24,6,2,-2,2,0,-10,1
1526903591829253,-3,6,3,2,1,-3,9,8
1526903591830250,38,-10,-3,-1,4,59,-6,13
1526903591830250,7,2,-3,-1,-3,-9,-5,-9
1526903591843215,-26,-11,-5,-6,0,-2,3,-19
1526903591843215,-9,7,3,6,3,1,-1,-4
1526903591851193,-17,3,1,4,-4,-43,1,10
1526903591851193,9,-3,0,4,1,2,1,6
1526903591866154,-19,6,0,-5,-1,8,4,9
1526903591866154,-22,-11,-8,-5,-3,-13,0,-32
1526903591867151,-31,2,4,-6,1,-2,-7,-16
1526903591867151,-10,0,-4,-5,-2,2,-4,-6
1526903591889092,24,4,0,7,-1,-13,-1,-3
1526903591889092,-31,-7,-4,-4,-2,2,-12,-1
1526903591890090,8,-7,-4,-1,-2,-1,-4,-53
1526903591890090,14,-12,-2,-7,-2,0,-6,2
1526903591903055,64,10,4,-7,-3,6,4,19
1526903591903055,-22,-12,-4,1,1,-8,10,4
1526903591911034,10,5,-1,9,1,-3,-5,10
1526903591911034,-17,0,4,3,1,-3,-5,5
1526903591925994,26,4,0,2,-5,-27,4,20
1526903591925994,-18,-6,-3,-6,-6,-4,-7,-45
1526903591926991,19,5,-6,-8,0,-8,1,5
1526903591926991,28,-3,0,1,-1,-4,7,9
1526903591948932,3,-2,-4,-3,0,-1,-13,0
1526903591948932,62,10,5,0,-3,0,6,72
1526903591949930,-10,-8,-4,-1,-5,-2,3,5
1526903591949930,-3,4,-3,0,-1,1,-12,-3
1526903591971871,1,-1,2,0,0,3,-4,-17
1526903591971871,6,-2,-1,3,5,5,12,20
1526903591972868,52,7,5,1,3,10,7,12
1526903591972868,4,1,-7,-5,-4,-11,-12,-23
1526903591985834,-26,-23,-7,-4,0,-1,-10,-11
1526903591985834,-47,10,4,-1,-2,6,12,4
1526903591986831,-63,-10,-7,-2,-6,-8,-12,-14
1526903591986831,19,8,4,0,1,-2,-5,-19
1526903592009769,20,3,2,-3,-1,6,14,19
1526903592009769,-22,-4,-3,-9,0,-9,-8,9
1526903592009769,-20,3,2,10,1,12,17,-14
1526903592009769,23,4,4,-9,0,-12,-21,10
1526903592031711,-85,-4,1,9,4,-10,-1,-18
1526903592031711,22,-7,-7,-4,-7,-24,-13,-70
1526903592032708,26,6,3,-13,-2,4,-5,24
1526903592032708,35,1,0,19,6,4,17,19
1526903592046671,16,3,3,-3,1,-13,8,-5
1526903592046671,5,3,2,2,0,41,-19,-11
1526903592046671,72,2,2,-2,1,-4,5,25
1526903592046671,-63,-3,-4,-5,-3,3,-2,-18
1526903592069609,35,3,2,0,2,1,8,26
1526903592069609,-29,-5,-1,-1,-4,-8,-8,-7
1526903592070607,9,0,1,3,0,3,-2,0
1526903592070607,4,1,-3,-1,-2,2,0,14
1526903592091551,-61,1,-3,-3,-5,5,-10,-33
1526903592091551,5,-14,-8,-11,0,-6,-6,-15
1526903592092548,-42,2,1,13,0,-3,-2,-5
1526903592092548,7,-10,0,0,-2,-8,3,12
1526903592106511,11,-1,-5,-6,-3,1,-8,-11
1526903592106511,8,6,2,-1,-3,20,8,9
1526903592107508,-87,-8,-2,3,2,-19,11,-6
1526903592107508,31,-2,-3,-1,1,14,-14,-25
1526903592129450,35,2,1,-7,-3,-1,-10,20
1526903592129450,-9,-3,-1,5,6,18,-1,-29
1526903592130447,-8,-5,-1,6,-5,3,4,6
1526903592130447,3,11,7,17,5,1,25,27
1526903592152388,-38,-8,-4,-1,-1,-30,-15,-18
1526903592152388,80,7,-1,-12,-8,-20,2,21
1526903592152388,-46,-12,-2,-8,2,-13,7,13
1526903592152388,7,-4,-4,-16,-4,1,-7,-30
1526903592166351,20,6,-1,16,0,1,8,17
1526903592166351,-73,-6,1,-3,2,-8,-3,-7
1526903592167349,48,1,-3,-2,0,-3,-1,3
1526903592167349,-25,-5,1,-5,-5,-9,2,2
1526903592189289,-12,7,0,-3,-1,16,-1,-5
1526903592189289,73,-5,3,5,3,-8,18,30
1526903592190287,-48,-2,-4,-6,-1,26,-28,-33
1526903592190287,-27,-7,1,4,-1,-29,8,27
1526903592212228,55,8,0,-2,-3,0,-19,-8
1526903592212228,-46,2,1,8,-2,11,13,-2
1526903592213225,-39,-6,-5,-15,-4,-33,-22,-55
1526903592213225,6,5,-1,7,2,28,19,2
1526903592226191,8,0,2,-9,3,-11,0,26
1526903592226191,-49,-7,-3,4,-5,-7,8,-7
1526903592227188,25,4,4,-1,12,15,10,21
1526903592227188,-30,3,-4,-3,-4,-12,-12,-19
1526903592249130,-22,-1,-1,-3,3,9,9,-7
1526903592249130,-14,5,0,-4,-4,-9,-13,-12
1526903592250127,90,-2,2,12,2,16,8,9
1526903592250127,-62,-11,-7,-8,-4,3,-2,-11
1526903592272068,20,-3,-4,0,2,1,6,-5
1526903592272068,9,6,4,7,5,0,-9,4
1526903592273066,-10,4,-3,-7,-1,5,-21,-19
1526903592273066,81,1,0,-4,0,-3,0,26
1526903592286031,-7,-10,-2,-3,-5,1,3,-4
1526903592286031,27,6,0,0,4,5,-5,3
1526903592287028,-14,5,-1,-1,-7,-7,8,16
1526903592287028,31,6,1,-2,-3,-3,-6,0
1526903592308969,12,-2,0,3,7,9,9,-15
1526903592308969,-72,-13,-6,-2,-6,-5,-10,-23
1526903592309967,43,5,-1,-1,-2,0,0,2
1526903592309967,69,7,3,-7,1,-6,-4,9
1526903592331908,-49,-9,-6,3,-9,17,9,1
1526903592331908,35,8,7,2,7,-2,-4,9
1526903592332906,-42,-4,-1,-11,-1,4,-1,3
1526903592332906,-24,-5,-2,17,3,18,6,-21
1526903592345871,-10,-3,-6,-12,-7,-10,-10,-3
1526903592345871,-42,-2,-1,-1,3,-1,1,-4
1526903592346868,63,-5,-6,-4,-8,-9,4,-4
1526903592346868,-28,0,1,-13,0,-10,-9,-11
1526903592368810,-14,13,6,22,5,8,-7,12
1526903592368810,-34,-23,-9,-14,-7,2,12,3
1526903592369807,12,10,3,4,-1,-12,-5,2
1526903592369807,-32,-10,-6,-10,-4,0,-2,-13
1526903592391748,3,2,1,0,1,6,-2,-14
1526903592391748,13,11,4,1,0,-2,2,19
1526903592392745,-36,-4,-1,0,-1,-2,-1,-21
1526903592392745,25,0,-2,6,8,6,-3,18
1526903592406708,-28,-5,-3,-8,-8,-23,-1,-25
1526903592406708,-22,0,1,8,-1,-6,-5,10
1526903592406708,48,3,-1,0,-1,1,11,22
1526903592406708,-33,0,-1,-2,1,0,-6,-7
1526903592428650,-13,-2,3,-9,4,-1,-5,5
1526903592428650,50,-6,-5,-10,-10,24,-3,-17
1526903592429647,-30,-3,2,1,0,-38,-14,-9
1526903592429647,-16,1,1,40,7,47,9,0
1526903592451588,-22,3,4,-4,18,1,3,30
1526903592451588,19,-8,-11,-14,-33,-19,-12,-67
1526903592452586,12,3,0,-3,6,-8,-13,1
1526903592452586,-32,-6,0,-3,-5,-8,7,4
1526903592466548,20,-5,-5,-6,-2,0,-5,-15
1526903592466548,28,11,3,-7,9,2,3,25
1526903592466548,17,-2,1,13,-3,9,3,12
1526903592466548,-95,3,-4,-15,-3,-18,-9,-36
1526903592488489,119,3,2,10,-4,5,11,23
1526903592488489,-48,3,-2,-7,3,-10,-7,15
1526903592489487,-19,-7,-4,-3,-3,23,0,-17
1526903592489487,49,8,2,2,2,-1,5,19
1526903592511428,-79,-2,-3,-3,-6,-1,-3,-12
1526903592511428,3,-8,2,10,5,1,3,14
1526903592512425,26,15,3,-1,2,10,7,11
1526903592512425,-28,-18,-4,-10,-6,-7,-13,2
1526903592525391,-18,5,2,-2,-6,-12,-9,-19
1526903592525391,21,-1,-2,10,11,-16,-13,2
1526903592533369,-38,-5,-4,-9,-7,23,29,29
1526903592533369,106,8,2,-8,-2,1,-15,-3
1526903592548329,61,4,1,-4,-6,-11,2,20
1526903592548329,-91,-8,-2,9,6,-5,2,7
1526903592549327,36,2,0,-2,3,19,10,15
1526903592549327,63,8,1,1,-1,-12,12,14
1526903592572265,-89,-19,-9,-7,-3,-8,-12,-14
1526903592572265,61,14,6,2,1,10,5,-1
1526903592572265,-63,-6,-3,-1,-5,-12,-4,-8
1526903592572265,-38,-8,-5,-4,-3,4,7,13
1526903592585231,21,7,0,0,-2,5,0,1
1526903592585231,-14,-3,2,0,1,-2,3,-6
1526903592594207,11,2,0,3,0,-1,2,17
1526903592594207,-34,-6,-1,-1,-2,-12,-7,0
1526903592609166,66,0,-2,1,0,9,3,-5
1526903592609166,17,-1,-1,-2,-5,3,11,16
1526903592609166,6,-5,0,-6,2,-7,-3,10
1526903592609166,-23,-2,-4,-1,-2,8,-29,-19
1526903592632105,26,3,3,9,-1,-2,21,9
1526903592632105,6,-1,2,6,2,14,-14,-1
1526903592633103,34,-4,-8,-7,-6,-8,-2,-25
1526903592633103,-40,-3,-1,-6,-3,-10,9,-3
1526903592646068,-20,-3,-1,-2,-1,3,-1,-8
1526903592646068,12,1,-1,4,-1,-9,-4,-8
1526903592654047,-45,-6,-2,1,-1,-6,-4,-1
1526903592654047,34,2,-1,-2,-3,31,7,-21
1526903592669006,-18,2,2,-2,2,5,-8,12
1526903592669006,20,-5,-6,-8,-2,-5,-1,-8
1526903592670004,-4,7,4,5,1,0,-8,-10
1526903592670004,7,-4,2,0,2,-8,10,18
1526903592691945,-8,-8,-4,2,-3,-7,-15,-20
1526903592691945,1,0,-1,0,-1,1,6,13
1526903592692943,12,5,2,0,0,-20,1,20
1526903592692943,-52,2,-2,2,-5,-11,-16,-43
1526903592705908,22,1,4,0,1,25,18,11
1526903592705908,-52,-6,-2,-4,1,-5,2,-9
1526903592713887,13,0,-6,-1,1,-1,-7,-14
1526903592713887,-15,3,2,0,-1,-7,8,4
1526903592728847,18,-12,-3,-1,-5,-6,-10,-2
1526903592728847,30,7,3,-1,2,6,8,9
1526903592729844,-10,-9,0,3,2,1,0,21
1526903592729844,-20,-1,-6,-3,-4,-8,-5,-31
1526903592751785,7,-6,-8,-2,0,-3,-9,-21
1526903592751785,-15,-4,1,-2,-2,-1,-3,4
1526903592752783,-33,-3,-1,-1,-4,2,4,9
1526903592752783,67,7,0,1,0,-1,3,16
1526903592765748,-35,-2,1,-1,-3,-3,3,5
1526903592765748,12,1,-1,-3,12,-2,-1,9
1526903592773726,-38,-3,-5,0,-16,9,-3,-31
1526903592773726,18,0,-3,-5,2,-12,3,17
1526903592788686,-36,-7,2,1,-9,17,-6,-20
1526903592788686,38,3,0,9,13,-1,-4,16
1526903592789684,-23,-1,-3,-8,1,-30,3,-19
1526903592789684,59,8,6,9,2,42,0,38
1526903592811625,-47,-3,-5,-2,-13,-32,-2,-4
1526903592811625,-8,1,3,3,-1,9,-9,-23
1526903592812623,-47,-6,-3,-3,4,7,-13,-15
1526903592812623,-11,3,0,-3,-4,-15,8,15
1526903592825588,33,1,2,-1,4,-4,-10,-17
1526903592825588,-27,-3,-1,-5,-7,11,9,25
1526903592833566,34,0,-4,-1,-1,-9,-11,-12
1526903592833566,-30,-3,1,0,-4,-6,-1,2
1526903592848526,28,2,1,5,9,15,5,-18
1526903592848526,1,-1,-3,-2,-8,-9,0,2
1526903592849524,1,3,3,1,-2,7,3,6
1526903592849524,-27,-5,-6,-4,7,-7,-2,-16
1526903592871465,22,-1,-3,-2,-13,-22,-4,6
1526903592871465,17,0,3,-2,-1,-1,-8,10
1526903592872463,41,5,-4,-3,4,22,-6,-2
1526903592872463,11,-2,3,0,-2,-4,4,-3
1526903592894404,27,-5,2,0,4,-11,21,30
1526903592894404,-25,-6,-5,-2,-6,-2,-6,-25
1526903592895402,-30,-5,0,-1,0,3,-6,-6
1526903592895402,23,1,2,3,3,-4,9,52
1526903592908367,-25,2,0,-3,2,7,-11,-24
1526903592908367,26,4,0,-1,-6,-5,3,-7
1526903592909364,19,2,0,1,1,5,9,19
1526903592909364,-17,-3,2,0,-2,-5,-8,-15
1526903592939284,53,10,4,0,2,2,8,16
1526903592939284,-19,-15,-2,-3,-2,8,-3,-1
1526903592940281,4,0,-5,-3,-2,-8,-3,5
1526903592940281,-8,3,2,0,-1,-1,10,15
1526903592954244,-12,-1,-1,0,3,11,-1,17
1526903592954244,34,15,3,-1,-1,-9,-2,-3
1526903592955241,-7,-14,-2,-1,-1,-5,-6,-32
1526903592955241,-14,-3,-1,-1,1,6,9,8
1526903592969204,-33,0,-4,-3,1,5,-3,-11
1526903592969204,16,-4,-4,0,-2,-6,-6,4
1526903592969204,1,2,2,1,1,-5,-1,0
1526903592969204,7,-2,-6,-3,-5,5,-2,-13
1526903592992142,-92,-3,-4,-5,-1,3,11,-7
1526903592992142,-35,-2,-4,0,-2,-5,-28,-33
1526903592993140,43,0,2,1,-2,-1,5,35
1526903592993140,-8,1,0,-2,-1,-11,-7,-25
1526903593014084,11,-1,-4,-1,0,2,4,32
1526903593014084,-22,-4,-1,-2,0,1,10,-4
1526903593015081,-26,2,-1,-1,1,-4,-1,-18
1526903593015081,26,5,1,-4,-7,8,-6,7
1526903593029044,-64,6,5,9,12,-25,-8,-18
1526903593029044,20,-19,-10,-10,-2,18,-9,0
1526903593029044,-33,3,1,3,-1,-1,3,-7
1526903593029044,13,0,-2,3,1,-10,-11,-18
1526903593051982,14,-2,-1,-6,-10,-6,-9,3
1526903593051982,-16,6,4,5,6,17,14,8
1526903593052980,-42,-4,-7,-4,-4,-11,-4,-67
1526903593052980,-17,-11,-1,1,3,4,9,18
1526903593074921,5,0,-2,0,-2,-4,-17,7
1526903593074921,49,2,0,-2,-4,-11,8,-11
1526903593074921,-26,0,-1,-6,-2,13,8,14
1526903593074921,28,4,1,2,-1,-5,0,20
1526903593088883,35,-12,-6,-5,-4,1,-17,-17
1526903593088883,-18,5,1,-1,-3,-1,11,3
1526903593089881,23,-1,4,5,3,3,2,23
1526903593089881,31,7,-3,-3,-2,-1,7,11
1526903593111823,-25,-6,3,1,2,11,8,17
1526903593111823,41,1,0,-1,0,-21,8,-12
1526903593112820,72,11,6,5,0,-2,-4,16
1526903593112820,-33,-4,-5,-5,-3,-3,-7,-15
1526903593134761,-19,2,1,-2,-3,11,12,24
1526903593134761,-21,-5,-1,-2,1,-7,-14,-21
1526903593134761,34,3,-1,-21,-5,6,9,34
1526903593134761,-11,-13,-1,29,-8,1,1,-13
1526903593148724,-30,4,-2,18,1,-19,-15,0
1526903593148724,2,5,-2,-4,-1,1,3,2
1526903593149721,-55,-12,-6,-4,-6,8,-4,-30
1526903593149721,21,5,1,-18,4,6,5,21
1526903593171662,14,-7,-2,3,-7,-1,0,-27
1526903593171662,5,-3,-4,-7,-5,-22,-17,17
1526903593172662,-21,2,-2,4,1,11,-5,-30
1526903593172662,14,-4,-4,-6,-2,-8,-4,7
1526903593194601,4,-8,-2,-5,2,7,1,-18
1526903593194601,36,5,0,-1,-2,-2,9,29
1526903593195599,-8,3,-3,-2,0,-6,-6,5
1526903593195599,-83,-11,-7,-5,-1,-4,-8,-62
1526903593208563,55,5,5,-1,6,3,12,16
1526903593208563,-38,-6,-1,1,-5,48,-2,5
1526903593209561,48,-2,-4,-12,-2,-15,-12,6
1526903593209561,-6,-2,-2,-10,4,-4,-3,1
1526903593231502,12,-3,-2,3,-5,4,0,-5
1526903593231502,-29,0,1,3,4,-8,-1,-13
1526903593232500,16,7,5,22,-9,-1,11,31
1526903593232500,6,7,-1,-19,-18,11,1,-11
1526903593254441,38,-5,-7,-15,12,12,-10,-5
1526903593254441,-61,-6,-2,-6,-2,-6,-9,-29
1526903593255438,-52,-2,-3,-9,-70,-14,-9,-1
1526903593255438,38,4,6,16,102,3,14,11
1526903593268404,1,-1,5,11,4,5,7,-4
1526903593268404,15,-13,-5,11,1,-5,-6,1
1526903593269401,42,5,1,-9,9,0,11,33
1526903593269401,64,-2,-5,-7,-33,-11,-23,-11
1526903593292340,-31,3,0,10,-19,3,3,-3
1526903593292340,58,6,3,-9,11,-9,8,16
1526903593292340,-18,-2,0,5,18,2,15,4
1526903593292340,-4,-4,-3,-3,-19,2,-1,14
1526903593314281,-23,-1,0,-23,10,-5,0,0
1526903593314281,5,6,1,20,-19,-6,-14,9
1526903593315279,-17,-23,-9,6,11,1,-1,-12
1526903593315279,-28,3,5,18,-3,-2,13,-5
1526903593329241,13,4,-3,-18,-5,-12,-10,-5
1526903593329241,46,4,4,-2,-11,14,19,40
1526903593329241,-79,4,0,1,10,10,8,-7
1526903593329241,4,-8,-10,-18,-10,-11,-29,-17
1526903593352179,10,5,8,29,30,-24,8,20
1526903593352179,-1,-12,1,-2,0,-2,-1,2
1526903593353177,-13,16,0,-11,2,-37,4,6
1526903593353177,-12,-15,-4,1,-12,1,12,0
1526903593374121,42,7,3,-4,16,1,-4,13
1526903593374121,-75,1,-6,6,7,-1,2,5
1526903593375119,3,-10,-4,-2,11,11,-10,-45
1526903593375119,-11,17,4,-6,-8,-4,2,1
1526903593389081,3,-6,-2,-6,-13,6,0,0
1526903593389081,18,3,-2,-17,3,-7,-9,-1
1526903593389081,12,-5,0,34,4,12,-8,-14
1526903593389081,-6,7,0,0,-7,5,13,31
1526903593412019,10,-8,0,4,-8,-4,-22,-44
1526903593412019,-1,-1,-7,1,-5,-4,-5,-34
1526903593413017,43,10,0,-15,-1,2,10,20
1526903593413017,-64,-10,-1,19,4,3,-9,-14
1526903593433961,7,4,-3,-12,-9,11,12,-17
1526903593433961,-101,-14,-6,-13,-3,-5,-8,-46
1526903593434958,117,7,2,7,0,-19,-14,4
1526903593434958,-39,-4,0,0,3,22,12,19
1526903593448921,5,1,-4,-13,-8,0,-14,-18
1526903593448921,28,-6,3,3,-1,-2,-4,7
1526903593449918,-33,0,-2,-17,5,-5,6,11
1526903593449918,4,1,2,20,10,-46,-3,-5
1526903593470862,7,0,0,12,-12,60,10,13
1526903593470862,37,7,5,6,14,15,25,31
1526903593471860,-18,-8,-12,-13,-3,-13,-46,-46
1526903593471860,7,0,1,-14,-7,-20,7,14
1526903593494798,-24,-9,-5,7,3,15,-13,-32
1526903593494798,17,5,3,2,6,2,14,-12
1526903593494798,-75,3,1,-12,-3,8,9,10
1526903593494798,8,-5,-1,8,-2,11,-20,-24
1526903593507763,-1,-5,-4,-16,0,-7,4,17
1526903593507763,23,5,3,12,-1,4,-2,23
1526903593516739,-37,-7,-3,-7,-2,-9,13,8
1526903593516739,53,7,-2,4,-4,6,-13,-12
1526903593531699,-2,-5,-2,-5,-5,-22,2,-2
1526903593531699,14,10,1,-8,-5,-7,-12,-12
1526903593531699,23,-21,-1,2,2,20,13,57
1526903593531699,-29,3,-5,-11,-6,-3,-3,-46
1526903593554638,11,2,1,-8,-4,-21,-4,22
1526903593554638,24,-3,-2,6,6,15,-13,-4
1526903593555636,-10,6,0,3,0,-2,-1,-8
1526903593555636,28,-6,-4,-11,-5,11,11,38
1526903593567604,-33,-3,-5,-6,-6,-22,-18,-23
1526903593567604,37,7,-2,-1,-5,-7,1,-11
1526903593576579,2,-7,0,3,-3,-22,0,-3
1526903593576579,-22,-8,0,-5,3,46,-1,25
1526903593591539,-12,8,6,5,2,-21,-1,3
1526903593591539,-24,-12,-4,-1,-3,24,-8,11
1526903593591539,-19,9,1,4,-12,5,-2,-23
1526903593591539,-1,3,-3,-9,1,-10,-2,-22
1526903593614478,48,-3,-3,1,4,-1,-5,2
1526903593614478,-22,5,3,0,-7,-36,-3,-5
1526903593615476,-9,-6,-7,-14,0,9,-7,-23
1526903593615476,-6,11,2,11,-4,-9,7,-11
1526903593628441,-8,-8,-1,3,-3,10,6,13
1526903593628441,0,4,-2,-16,-3,-10,6,12
1526903593636419,-5,-8,1,40,8,-3,-15,-32
1526903593636419,-15,-10,-2,-9,0,-10,-5,-23
1526903593651379,31,8,-2,-2,-9,4,4,16
1526903593651379,35,-2,-1,-6,-4,0,5,-3
1526903593652377,9,5,2,-18,5,-15,9,5
1526903593652377,59,11,6,33,15,23,0,46
1526903593674318,31,-9,-1,2,-5,1,3,-13
1526903593674318,-20,0,-1,-5,-1,5,-14,-11
1526903593675316,1,6,2,0,2,19,7,23
1526903593675316,-9,1,1,-10,-7,-15,0,-23
1526903593688281,-21,-1,2,2,3,-7,21,9
1526903593688281,1,-9,-10,-5,-3,-2,-16,-3
1526903593696259,24,7,5,-1,2,10,6,14
1526903593696259,-39,-4,2,10,-1,-15,1,-17
1526903593711219,14,-5,-7,-3,0,1,-11,-25
1526903593711219,-37,-2,-1,-1,-1,3,10,-9
1526903593712217,57,4,-1,-1,-6,-5,-6,10
1526903593712217,-64,-6,-1,-6,3,-1,-6,10
1526903593734158,50,6,1,-1,-2,-23,3,9
1526903593734158,-61,-7,0,7,-1,38,-2,-17
1526903593735155,58,-8,-4,-11,-3,-1,-2,-13
1526903593735155,16,3,0,2,-5,0,0,19
1526903593748121,-25,1,3,-6,2,6,1,14
1526903593748121,26,7,1,19,5,-26,12,14
1526903593756099,-14,7,6,5,4,8,8,50
1526903593756099,28,-5,-6,-11,-6,1,-9,-43
1526903593771059,-7,-4,-2,-4,-1,4,-5,25
1526903593771059,-31,0,0,-4,-2,-7,0,0
1526903593772057,-22,1,1,3,0,1,-2,-1
1526903593772057,43,5,0,-4,-4,-8,8,10
1526903593793998,-84,-10,-4,-2,-3,-1,-10,-14
1526903593793998,0,-3,-1,3,2,8,-7,-26
1526903593794995,11,-2,-4,-9,-4,-11,1,1
1526903593794995,61,11,6,15,1,8,8,32
1526903593807960,-3,-4,-4,1,1,0,5,7
1526903593807960,-10,3,-4,-5,-3,-1,-4,-5
1526903593815939,41,4,3,-28,-3,1,1,8
1526903593815939,-18,-2,2,25,2,-20,-6,-11
1526903593831896,-3,0,4,0,3,29,0,9
1526903593831896,30,1,1,-2,-3,-13,7,23
1526903593832894,-19,5,-6,-6,-3,-4,-20,-52
1526903593832894,-10,-15,-6,-27,-6,-6,-10,1
1526903593854835,-1,-3,0,10,3,-2,7,6
1526903593854835,-33,-1,-6,-3,-1,-3,-4,-18
1526903593854835,-5,0,-2,9,0,3,-2,6
1526903593854835,-29,-2,-1,-7,-1,-2,3,-11
1526903593876777,49,0,-6,-2,-6,2,-17,-29
1526903593876777,21,1,0,-7,2,0,13,32
1526903593877774,-35,-8,-2,1,1,-1,-9,-22
1526903593877774,6,-5,0,10,2,-7,6,5
1526903593890739,14,6,4,12,0,2,17,18
1526903593890739,-26,0,-2,-8,-6,-9,-12,-8
1526903593891737,19,2,2,20,18,-16,5,12
1526903593891737,-57,-8,-8,-19,-23,-11,-4,4
1526903593914675,27,8,0,-5,0,-11,-2,-5
1526903593914675,21,-21,-2,-4,-2,-1,2,-20
1526903593915673,-3,-1,0,-5,-4,-10,-6,36
1526903593915673,-35,7,-3,4,4,7,-1,-20
1526903593936616,54,5,7,20,2,-2,2,15
1526903593936616,-52,-14,-6,-4,-2,3,5,4
1526903593937614,12,-8,-6,-3,-5,5,4,-6
1526903593937614,33,-1,-5,-12,-1,6,3,6
1526903593951576,-30,-1,-2,-5,-3,-1,-16,-12
1526903593951576,29,12,7,8,8,4,23,20
1526903593951576,74,3,1,2,-4,10,-12,3
1526903593951576,-36,3,1,-3,2,9,8,21
1526903593974515,-10,-1,-5,-3,-4,-11,-2,-37
1526903593974515,-30,-10,2,0,2,-1,-7,-2
1526903593975513,-39,0,-2,2,-1,6,10,-23
1526903593975513,7,0,-3,-7,-6,-29,-14,-40
1526903593996457,16,3,3,1,4,39,9,46
1526903593996457,-62,-2,-1,-1,-2,-3,-3,-25
1526903593997454,57,12,-1,-2,-7,-8,-11,-22
1526903593997454,17,-9,-3,-8,-3,-19,0,49
1526903594011417,-128,-12,-8,-7,-11,-20,6,-18
1526903594011417,26,7,1,3,6,0,-14,-8
1526903594012414,-43,1,4,25,3,6,19,6
1526903594012414,21,1,2,-2,3,12,-6,43
1526903594034355,-31,-2,1,-14,-2,-3,4,9
1526903594034355,41,2,-5,-9,-9,-3,2,2
1526903594035353,-62,0,2,4,0,0,3,15
1526903594035353,41,18,-1,-1,1,11,12,12
1526903594057294,36,-31,-11,-15,-5,-5,-12,8
1526903594057294,8,11,3,17,3,-2,-4,-8
1526903594057294,30,-3,-2,8,4,-1,-6,2
1526903594057294,-15,-5,-4,0,-2,13,-2,-2
1526903594071256,21,7,7,6,5,11,13,-11
1526903594071256,29,5,2,-5,-2,-2,11,28
1526903594072254,-2,-6,-8,-11,-3,-4,-11,-14
1526903594072254,-9,6,3,-2,2,3,3,-24
1526903594094195,32,-6,0,3,5,-3,3,12
1526903594094195,-63,-2,-2,-3,-1,1,-2,5
1526903594095193,-15,-2,-7,-22,-11,-5,-13,-18
1526903594095193,33,-2,2,21,2,-2,-12,-21
1526903594117134,-35,-8,-1,-21,1,-3,8,-23
1526903594117134,-52,-4,0,38,3,-1,-4,-28
1526903594118131,8,2,1,-5,0,6,12,10
1526903594118131,15,1,0,-17,0,-2,-2,8
1526903594131096,-14,8,2,11,6,-6,-3,7
1526903594131096,127,-4,-2,-9,-6,-2,-5,3
1526903594132094,-63,-7,-3,9,5,-18,0,6
1526903594132094,-18,-1,1,2,3,11,2,-40
1526903594154035,4,1,-2,-1,0,2,3,7
1526903594154035,19,6,-1,-14,-3,-8,-6,-20
1526903594155032,-46,-10,-2,0,-2,-1,8,6
1526903594155032,54,0,2,1,-1,3,8,51
1526903594176974,-98,-9,-2,3,-3,-17,-15,-25
1526903594176974,12,5,0,-8,-2,3,13,16
1526903594177971,64,-2,-5,-3,-4,-5,-19,-21
1526903594177971,-16,4,4,4,4,7,14,22
1526903594190937,31,8,0,-2,-3,-13,-1,10
1526903594190937,-21,-11,-5,-6,-1,-2,-9,0
1526903594191934,16,9,6,-3,0,11,14,44
1526903594191934,-41,-2,-3,5,2,2,-16,-25
1526903594214872,93,1,1,-9,-6,3,10,17
1526903594214872,-82,-7,-6,-5,5,-3,-6,-33
1526903594214872,13,4,1,24,1,-2,-2,7
1526903594214872,-28,-7,-1,-19,-6,-12,6,3
1526903594236813,-21,-6,-4,12,-3,5,-13,-11
1526903594236813,28,8,2,-9,-4,-44,4,34
1526903594237811,3,-3,-1,-2,-4,77,14,-19
1526903594237811,59,2,0,5,-1,-21,-25,-10
1526903594250776,-58,1,-8,-7,-2,-6,1,2
1526903594250776,66,8,2,-3,2,14,1,31
1526903594258755,-11,-4,-4,-6,-6,-27,-2,-34
1526903594258755,-5,-6,-2,1,4,9,-7,-11
1526903594274712,21,1,-1,-6,-3,-11,-10,9
1526903594274712,8,0,0,10,2,1,-20,-10
1526903594275710,-22,1,-1,0,1,-3,4,3
1526903594275710,-5,4,-4,-12,-2,9,10,-18
1526903594296654,-2,-8,1,22,3,0,2,-14
1526903594296654,-30,-8,-2,-6,2,10,-1,-6
1526903594297651,17,6,-2,-15,-3,-14,-8,5
1526903594297651,-12,-13,-1,-1,-3,2,12,-4
1526903594311614,-19,6,-1,24,3,-2,-9,1
1526903594311614,-10,-4,-5,-13,-7,9,10,-14
1526903594311614,6,-4,2,3,3,-5,3,6
1526903594311614,-15,-5,-6,-16,-6,-3,-16,-19
1526903594334552,88,6,1,-12,-6,-4,2,-9
1526903594334552,-62,-3,0,7,0,9,0,15
1526903594335550,41,-6,-12,-25,-6,7,-10,-1
1526903594335550,-55,5,6,17,1,-31,0,-1
1526903594356494,54,4,4,5,1,-12,5,6
1526903594356494,5,-12,-7,4,-8,2,-35,-52
1526903594357491,-9,7,4,-10,-5,-14,3,21
1526903594357491,-57,-3,0,6,4,8,-1,-6
1526903594371454,40,11,-1,-11,-2,10,16,21
1526903594371454,34,1,2,2,-1,-23,0,23
1526903594372451,-66,-8,-1,-16,1,0,9,6
1526903594372451,16,-9,-5,37,0,6,7,-15
1526903594394392,-25,10,5,-2,4,-2,5,28
1526903594394392,12,-5,-7,-12,-5,10,-6,-45
1526903594395390,-7,-5,1,5,2,1,-4,-1
1526903594395390,25,6,0,-15,-1,-9,1,18
1526903594417331,7,-16,0,9,-2,9,-9,8
1526903594417331,21,8,-1,0,0,1,14,46
1526903594417331,-37,3,0,0,-1,-19,-6,-40
1526903594417331,26,-2,-1,-4,2,11,5,-1
1526903594430296,-1,1,0,-5,-6,1,-8,-5
1526903594430296,-49,-4,-4,-6,0,3,-5,11
1526903594439272,1,9,6,4,12,18,26,36
1526903594439272,19,-3,3,27,3,-20,-18,-13
1526903594454232,-1,5,2,2,4,14,24,28
1526903594454232,-32,-11,-6,-10,-4,-15,-21,-26
1526903594455229,-32,9,-1,6,-3,2,-14,-33
1526903594455229,36,-13,-7,-37,-7,-8,-6,8
1526903594477171,-28,0,5,43,2,20,-1,2
1526903594477171,33,12,6,3,3,-2,10,13
1526903594478172,-56,-10,0,21,2,-15,-4,-11
1526903594478172,-14,4,2,-5,-3,6,5,3
1526903594490136,30,-7,-7,-23,2,37,4,2
1526903594490136,0,1,-3,-10,-2,3,5,-25
1526903594499112,-5,3,0,19,2,5,5,8
1526903594499112,-31,-2,-1,-9,-4,1,-3,-24
1526903594514072,26,-1,1,-12,1,-10,2,22
1526903594514072,-74,0,3,19,3,7,0,-16
1526903594514072,97,-5,-3,1,-7,-8,12,11
1526903594514072,-65,5,-1,3,3,11,2,-1
1526903594537011,-53,-10,-2,-9,-4,-5,-9,-13
1526903594537011,95,16,1,-14,-5,-11,7,41
1526903594538008,-52,-10,-7,-8,-6,-3,-12,-47
1526903594538008,55,-3,2,5,1,-5,14,50
1526903594550973,-97,-2,-4,-4,-6,-12,-16,-33
1526903594550973,43,-6,1,8,2,3,-3,-4
1526903594558952,33,2,1,-9,1,2,6,31
1526903594558952,13,-10,-3,16,-2,4,-18,-37
1526903594573912,54,5,0,-7,1,-19,0,2
1526903594573912,-33,-9,-1,11,0,34,11,3
1526903594574910,14,4,-1,-4,-4,-26,-8,-7
1526903594574910,57,-4,-6,-17,-7,-1,0,-23
1526903594596851,-16,1,-1,-1,1,-20,0,-15
1526903594596851,-40,-8,-4,-13,-6,-3,2,-3
1526903594597848,40,3,-1,-3,-3,10,-9,10
1526903594597848,-34,8,1,4,1,-4,-4,-8
1526903594610814,-7,-12,0,8,1,7,5,-9
1526903594610814,35,10,2,17,3,-4,7,18
1526903594618792,-9,1,-1,2,-2,-1,-5,-8
1526903594618792,23,0,-2,-7,-3,1,3,27
1526903594633752,-33,4,-2,-7,2,2,-5,-30
1526903594633752,38,-2,1,-5,-1,-4,-2,-2
1526903594634750,-27,-2,-4,-9,-4,4,-8,-30
1526903594634750,-37,1,1,9,0,-5,12,12
1526903594656691,-24,0,-1,-7,-5,-24,-8,-13
1526903594656691,-34,-22,-9,-3,2,-9,-10,-10
1526903594657689,24,5,0,15,3,-6,0,21
1526903594657689,-1,7,2,-9,1,-6,-2,7
1526903594670653,19,-4,-4,6,-6,66,-3,4
1526903594670653,-33,13,6,4,4,-16,20,27
1526903594678632,85,-1,2,-3,1,-6,-10,3
1526903594678632,2,-1,-4,-5,-8,-2,-6,-3
1526903594693592,-3,2,-2,-16,0,6,-7,-16
1526903594693592,21,-2,0,13,-1,5,-3,11
1526903594694590,57,-2,-2,-7,1,12,9,14
1526903594694590,-17,-5,2,1,0,-4,7,-18
1526903594716531,42,7,-3,-8,3,-27,-3,-7
1526903594716531,-44,2,-1,6,-2,9,6,0
1526903594717529,-35,-2,4,-1,4,6,3,33
1526903594717529,-12,-5,-10,-5,-12,-11,-31,-46
1526903594730494,-4,5,5,18,5,-6,16,22
1526903594730494,4,12,1,-8,-2,-1,-8,-24
1526903594738472,-13,-15,2,6,3,1,-1,24
1526903594738472,-54,-2,-3,-9,-1,11,5,-9
1526903594753432,12,2,1,1,-3,-3,-2,13
1526903594753432,25,2,1,-2,1,-10,-18,4
1526903594754429,-9,8,-4,-2,-3,2,9,3
1526903594754429,40,-1,-3,-6,-2,5,0,-37
1526903594777368,20,-9,-3,2,-1,-31,-31,15
1526903594777368,-20,-1,-2,-3,-2,-2,13,-30
1526903594777368,-91,-1,-1,2,-2,-3,-13,-34
1526903594777368,40,-6,1,6,3,3,4,21
1526903594799309,-12,2,2,-4,-2,-1,2,-27
1526903594799309,-13,2,-3,-7,-1,-9,2,44
1526903594800307,52,-13,-10,-6,-4,2,-7,4
1526903594800307,1,4,0,-14,-3,-16,-5,20
1526903594813272,-26,-2,-1,8,0,7,-2,-14
1526903594813272,-15,-4,0,-3,5,-15,9,-14
1526903594814269,-83,-4,-1,19,-5,-7,-8,-36
1526903594814269,58,7,2,-4,2,0,13,44
1526903594837208,-70,-14,-7,-13,-6,0,-16,-17
1526903594837208,91,8,-3,-15,-4,-14,4,-6
1526903594838206,-37,-2,-1,-12,-6,-2,-12,-27
1526903594838206,-7,-15,-4,3,2,10,13,-1
1526903594859149,20,10,8,0,2,-1,19,43
1526903594859149,36,-11,-8,4,-3,11,-6,-9
1526903594860147,55,6,-1,-7,-1,3,2,7
1526903594860147,-15,3,3,4,2,2,-7,6
1526903594874109,47,-5,-3,-3,0,-1,17,7
1526903594874109,-1,-3,-5,1,-3,4,-12,-15
1526903594874109,-18,-2,0,-1,1,-5,-4,-11
1526903594874109,-15,-2,2,0,2,-9,-13,-6
1526903594897048,19,8,1,0,2,12,3,8
1526903594897048,-37,-5,-1,5,1,20,-11,-5
1526903594898046,-1,5,-2,-5,-3,-3,8,7
1526903594898046,-19,-9,-2,4,-1,2,-3,-26
1526903594918989,37,3,3,5,1,-5,-5,13
1526903594918989,-33,1,-6,1,-1,2,-25,-39
1526903594919987,-47,-8,-2,-1,-4,-4,32,-19
1526903594919987,47,6,3,5,2,1,-2,18
1526903594933949,-53,-4,-2,-6,-1,2,4,-11
1526903594933949,-7,-5,-2,-8,-4,-10,-20,-22
1526903594934947,15,5,-5,-3,1,-5,-14,17
1526903594934947,54,2,1,2,-2,5,11,17
1526903594956888,-67,-10,-5,-4,-4,-8,-7,-53
1526903594956888,9,11,6,2,1,7,18,24
1526903594957886,9,6,6,2,4,8,9,15
1526903594957886,-43,-7,-5,-1,-5,-8,-7,-7
1526903594979826,36,-1,-6,-2,-2,-4,-11,2
1526903594979826,-34,-5,0,-2,-2,3,6,-7
1526903594979826,114,9,5,2,1,-3,5,62
1526903594979826,-122,-5,-3,-2,1,16,-9,-58
1526903594993789,15,-2,0,-4,0,1,1,7
1526903594993789,20,-2,-2,-17,-5,-8,11,20
1526903594994787,-17,-4,1,37,7,0,-7,-1
1526903594994787,62,6,-1,0,-2,-5,-5,-11
1526903595016728,-32,-10,-8,-3,-5,-1,-1,-12
1526903595016728,-4,-1,3,-3,1,1,0,2
1526903595017725,-13,-8,-8,-22,-15,-19,-20,-33
1526903595017725,23,-2,-1,-21,3,7,5,24
1526903595039667,-13,5,11,76,17,9,11,7
1526903595039667,48,9,-3,-12,-2,1,2,-9
1526903595040664,-106,-19,-4,-4,3,2,-7,-37
1526903595040664,26,13,2,5,-2,-12,1,14
1526903595053629,26,-4,-4,-29,-1,12,-6,8
1526903595053629,33,5,5,10,4,1,15,42
1526903595054627,-86,-1,0,1,0,4,-6,-30
1526903595054627,34,-4,-3,-9,-8,4,5,-16
1526903595076568,36,1,3,-6,3,-11,6,21
1526903595076568,-18,-3,-2,14,-2,5,-1,6
1526903595077565,5,8,-1,-15,-3,1,-9,28
1526903595077565,-19,-5,0,1,5,-8,8,-8
1526903595099506,14,3,1,17,-5,28,-7,-1
1526903595099506,-87,-11,-6,-3,-3,-2,-13,-20
1526903595100504,64,1,-5,-17,-9,-3,-4,-26
1526903595100504,-91,6,1,-18,1,-20,-10,8
1526903595113469,102,-12,2,32,2,2,-4,6
1526903595113469,-58,-2,-1,25,3,-1,3,-28
1526903595114467,27,4,1,-1,1,3,9,9
1526903595114467,-31,-2,0,-1,-1,8,-2,7
1526903595137405,1,8,-5,-40,-5,-12,-6,-17
1526903595137405,-28,-11,-1,-4,-4,-6,-25,-13
1526903595137405,54,1,3,6,8,-2,6,18
1526903595137405,24,-3,-3,9,-2,2,-1,8
1526903595159347,-19,2,-5,-10,-1,-10,-5,-15
1526903595159347,-5,-3,-3,-4,-1,9,9,-19
1526903595160344,-16,-4,-1,1,-3,-8,5,0
1526903595160344,52,5,3,10,1,-5,-7,16
1526903595173309,-55,-5,-1,-6,1,6,4,5
1526903595173309,84,10,-1,-16,-3,-1,-5,18
1526903595174307,-77,-13,-9,2,-4,-13,-17,-63
1526903595174307,-33,-2,-4,-6,-4,31,-2,-16
1526903595197245,4,-3,3,-8,2,-8,2,40
1526903595197245,-22,1,4,26,9,2,11,17
1526903595198242,-16,7,3,-10,6,23,17,5
1526903595198242,3,-5,3,6,-4,-6,-3,7
1526903595219186,-75,7,-2,3,-4,1,2,-32
1526903595219186,62,1,-3,-15,-6,-1,2,12
1526903595220184,-3,-17,-5,-1,0,-32,-9,-21
1526903595220184,37,7,3,7,3,5,3,13
1526903595234147,-9,-3,-5,-16,-3,19,-4,-17
1526903595234147,-9,2,0,-8,-3,-50,-7,11
1526903595234147,22,6,4,14,-1,-5,-6,26
1526903595234147,12,-2,0,1,3,9,5,24
1526903595257085,-14,-5,-4,-4,-2,6,-15,-19
1526903595257085,-14,1,0,-1,-2,19,16,3
1526903595258083,32,5,2,-3,2,15,-4,18
1526903595258083,-19,-6,-1,4,0,-38,-11,-25
1526903595279026,10,-3,-1,-6,-3,11,11,12
1526903595279026,-11,1,3,6,3,7,6,5
1526903595280024,21,2,-2,-8,-3,-21,-7,12
1526903595280024,-26,-5,-6,4,1,-5,9,-22
1526903595293986,-5,-1,-1,-3,-3,-7,10,4
1526903595293986,39,-2,-2,-5,-4,-14,-16,-15
1526903595294984,-17,-4,-1,-1,-2,-2,17,-11
1526903595294984,14,-1,3,3,2,1,-7,32
1526903595316925,-14,-2,-7,-10,-10,-26,2,-22
1526903595316925,9,8,0,4,1,4,-6,-11
1526903595317923,6,-9,-6,-4,-3,15,7,12
1526903595317923,-47,-3,0,-16,-8,8,0,3
1526903595339864,-14,-4,3,2,5,-32,-5,11
1526903595339864,-2,1,-1,22,5,-28,13,6
1526903595339864,0,2,-1,1,-3,37,-20,10
1526903595339864,68,9,-2,-10,-7,-6,3,-2
1526903595353827,-39,-8,-6,-12,-7,-8,-11,-6
1526903595353827,-31,-9,-4,-18,-4,-2,-8,-35
1526903595354824,0,4,1,7,4,-16,4,3
1526903595354824,71,-3,2,11,2,5,21,37
1526903595376765,26,6,0,-2,-3,3,-13,-19
1526903595376765,4,-1,-2,-11,-2,-13,-7,-12
1526903595377763,-7,6,1,-3,-7,8,-5,-3
1526903595377763,-47,-1,3,13,3,-12,0,-19
1526903595399704,25,-1,0,6,1,-21,-9,14
1526903595399704,43,-1,-2,-5,0,21,17,12
1526903595400701,-40,-1,-6,-2,-4,-10,-22,-64
1526903595400701,-24,-3,-2,1,-1,-3,11,-2
1526903595421645,22,-2,-2,-6,-5,6,9,12
1526903595421645,-17,2,2,16,5,14,-7,6
1526903595422643,2,1,1,1,5,-12,8,17
1526903595422643,-3,-4,-2,-3,3,6,-3,-30
1526903595436605,-60,-8,-4,-2,-4,-20,-1,-12
1526903595436605,41,0,-3,-16,-1,-12,-12,20
1526903595437603,32,0,0,13,1,8,12,-7
1526903595437603,-20,0,1,1,-4,-5,-12,14
1526903595459544,-16,3,-1,1,4,3,4,-13
1526903595459544,-30,-1,-1,-7,-1,2,-14,-29
1526903595460541,-14,-5,-2,1,-5,-14,-3,-17
1526903595460541,19,2,0,-9,-1,-3,3,29
1526903595473506,42,5,-1,3,-4,-1,-16,-6
1526903595473506,-25,1,-2,-3,2,13,13,9
1526903595481485,-13,-2,0,1,-2,1,-8,-26
1526903595481485,46,-17,-8,-5,-3,11,-10,-13
1526903595496445,-13,9,5,7,5,1,4,-11
1526903595496445,-36,-11,-6,2,-5,-7,-20,-6
1526903595497442,41,8,3,-3,0,22,24,21
1526903595497442,6,-2,-2,-1,0,-17,16,19
1526903595519384,11,-3,1,-2,1,2,-8,-2
1526903595519384,23,9,4,-2,0,4,9,30
1526903595521379,1,-3,0,-5,0,3,-14,2
1526903595521379,-62,-6,-1,7,-2,7,-7,-29
1526903595533346,55,2,-3,-10,-1,-8,5,22
1526903595533346,40,0,0,-1,0,21,10,10
1526903595541325,-60,-10,2,15,5,-10,7,20
1526903595541325,0,4,2,9,8,-8,-3,-7
1526903595557283,35,6,3,-7,-10,37,0,8
1526903595557283,-64,-1,-2,4,2,-9,-7,2
1526903595557283,-10,-5,-11,-16,-5,-5,-4,1
1526903595557283,14,6,1,-10,-1,-23,1,21
1526903595579223,-36,-3,-2,3,0,1,17,-19
1526903595579223,9,0,-3,-1,-2,5,0,-8
1526903595580221,-27,-1,-2,-6,-1,1,3,1
1526903595580221,5,5,5,3,2,4,-8,10
1526903595593186,-30,-3,0,0,3,8,2,16
1526903595593186,5,-1,-2,1,-8,-1,1,-21
1526903595601165,33,2,0,-10,0,-8,2,0
1526903595601165,-2,-6,-5,-1,-3,7,-12,-17
1526903595615128,-4,4,4,6,5,-10,-4,4
1526903595615128,51,-3,0,3,1,4,23,38
1526903595625101,-29,-2,-2,-4,-4,-9,-11,-29
1526903595625101,34,2,1,2,0,9,-9,6
1526903595639064,19,3,-4,-3,0,-6,7,4
1526903595639064,-31,2,0,-1,0,2,8,7
1526903595640061,7,-4,-3,-4,-4,0,-18,2
1526903595640061,15,11,4,2,4,-1,4,-8
1526903595653026,-6,-14,-4,0,-1,-34,-15,1
1526903595653026,-1,-4,-5,-8,-10,14,-6,-6
1526903595661005,41,0,2,0,2,6,18,22
1526903595661005,-30,-2,0,0,0,1,-8,-17
1526903595675965,11,3,1,1,0,3,2,0
1526903595675965,-45,-7,0,-1,1,-28,-5,-22
1526903595684941,36,4,2,1,-2,16,6,16
1526903595684941,-48,-5,-4,-3,-2,24,-1,4
1526903595699901,-17,-3,-1,0,1,8,-1,3
1526903595699901,40,-3,-2,-1,-1,-17,-29,-18
1526903595700899,-6,-2,0,0,-2,-2,3,-1
1526903595700899,4,-2,-3,-1,-1,12,7,9
1526903595721842,24,2,0,-1,-3,-3,10,22
1526903595721842,-30,6,0,0,2,6,5,-24
1526903595723837,-20,-1,1,-1,1,-16,-1,12
1526903595723837,24,-2,-2,-3,-9,-19,-12,2
1526903595735805,-38,-7,0,0,2,9,11,-15
1526903595735805,-18,-3,-6,-7,-4,-19,-17,-13
1526903595744781,71,2,3,0,3,44,9,-10
1526903595744781,-31,-8,-5,-3,-5,-16,4,9
1526903595759741,-58,-7,-3,0,-1,0,-1,-13
1526903595759741,-9,6,3,-1,0,3,9,8
1526903595760738,-27,-1,-3,-2,-1,-11,-5,-34
1526903595760738,-3,-15,-2,-1,1,-5,-3,-14
1526903595781682,48,10,0,1,1,21,-1,16
1526903595781682,17,0,-1,-2,-3,-10,18,6
1526903595783677,11,0,3,6,0,-4,-16,14
1526903595783677,-7,4,-3,-9,-3,5,7,0
1526903595795645,33,-4,-9,-26,-6,-18,-15,-21
1526903595795645,-63,-1,8,23,6,6,-1,-6
1526903595804621,30,2,0,-3,1,-9,16,-11
1526903595804621,56,-1,-3,0,0,13,2,24
1526903595819581,-12,-6,-5,-6,-4,-11,-15,-41
1526903595819581,65,6,-2,-19,-2,5,0,15
1526903595821575,-37,3,-1,1,0,-5,2,3
1526903595821575,-52,-18,-4,3,-2,-11,-4,-16
1526903595841522,11,4,4,-1,0,25,1,6
1526903595841522,28,6,-1,1,-6,-9,8,24
1526903595843517,25,-3,0,4,0,-15,-8,1
1526903595843517,-48,8,2,0,1,1,5,1
1526903595855485,-25,-5,4,11,3,-11,1,3
1526903595855485,21,-5,-8,0,-3,44,-16,-22
1526903595864461,-55,3,0,-3,-3,-20,-16,13
1526903595864461,43,-1,-3,-4,-4,-11,7,-9
1526903595879421,-6,7,2,7,0,-5,4,-6
1526903595879421,-5,-9,-2,-3,1,-7,5,-3
1526903595881416,6,-1,-2,-7,1,18,-1,-1
1526903595881416,-18,-4,-2,3,-1,8,-14,-23
1526903595902359,-27,2,0,4,2,-12,16,21
1526903595902359,34,-3,-3,-4,0,-3,-9,-9
1526903595903357,5,1,-2,0,-2,6,-6,-11
1526903595903357,-12,-4,1,2,1,15,1,7
1526903595915325,25,9,2,0,0,7,7,27
1526903595915325,-10,1,0,0,-2,-8,-5,-33
1526903595924301,37,-1,1,2,-1,-8,6,12
1526903595924301,0,3,2,1,1,-2,-20,-10
1526903595939261,32,-8,-7,-2,-4,-2,-6,-7
1526903595939261,15,-2,3,0,-1,-1,3,24
1526903595941256,-32,-8,-3,0,-2,-8,-1,-20
1526903595941256,33,3,2,-3,2,3,-1,8
1526903595962200,-2,1,-2,1,0,-4,-2,6
1526903595962200,-73,5,-1,-3,-3,-36,-7,-7
1526903595963197,21,-7,-1,-2,-4,-17,3,21
1526903595963197,5,4,1,-3,-4,-2,6,3
1526903595975165,-16,-3,-2,-8,-4,-8,-11,-18
1526903595975165,30,1,-2,-4,-6,1,7,13
1526903595984141,-26,3,2,2,3,-5,-3,1
1526903595984141,21,4,1,12,5,1,13,18
1526903595999101,-38,-3,-4,-2,-3,-1,-9,-9
1526903595999101,3,-5,-1,-1,1,6,-5,11
1526903596001096,-17,-1,-9,-12,-6,1,-16,-25
1526903596001096,-38,-7,-3,-4,-2,-7,0,-19
1526903596022039,37,10,5,5,1,23,11,13
1526903596022039,-49,-8,-1,-4,-2,13,5,-23
1526903596024034,48,-3,-3,0,-2,-6,6,24
1526903596024034,45,4,0,0,1,-2,-5,4
1526903596036002,-29,4,1,2,1,-9,-3,-13
1526903596036002,3,-5,-4,-1,2,7,0,15
1526903596044978,-3,-5,5,6,2,-12,1,-8
1526903596044978,-47,-5,-6,-5,-6,48,-1,-23
1526903596058941,89,7,-2,-3,-3,-6,-3,15
1526903596058941,-11,3,2,1,0,-3,7,2
1526903596060936,-5,-6,-2,-2,1,9,8,0
1526903596060936,22,1,0,-2,-2,-20,-12,-9
1526903596081880,19,-2,2,3,0,3,5,18
1526903596081880,-84,-6,-5,-2,-4,-2,-32,-13
1526903596083874,61,2,0,-2,-1,-8,4,7
1526903596083874,-8,1,2,2,-2,0,3,0
1526903596095842,13,-1,-2,-7,0,3,-1,14
1526903596095842,-3,5,1,5,1,-7,11,2
1526903596104818,-49,2,0,-1,2,4,0,8
1526903596104818,-2,-4,-7,-3,-1,13,-4,-13
1526903596119778,-18,2,1,-5,-5,-12,-10,11
1526903596119778,2,4,5,12,6,-5,12,7
1526903596120776,-10,-5,-2,0,-4,1,-4,-16
1526903596120776,-9,3,1,0,2,-5,2,22
1526903596141719,-11,0,-1,2,0,0,4,2
1526903596141719,-7,3,-2,-11,-3,8,-15,-26
1526903596143714,-52,1,0,8,1,0,4,14
1526903596143714,92,-1,-1,6,-2,-9,7,-2
1526903596155682,-32,-10,-1,-5,-2,-11,-9,-16
1526903596155682,27,0,-3,-1,-1,4,0,19
1526903596164658,-5,2,-1,-4,-1,9,-1,-6
1526903596164658,-32,-3,0,-3,0,-35,1,11
1526903596179618,69,9,2,0,2,58,12,8
1526903596179618,-11,-18,-12,-8,-10,-16,-17,-38
1526903596180616,11,3,0,-2,-1,7,6,17
1526903596180616,-20,-5,0,-4,-5,-22,-15,-34
1526903596201559,-21,-10,-2,3,1,-13,-15,-23
1526903596201559,23,12,4,2,3,0,13,39
1526903596203554,26,-1,-5,-3,-5,8,-6,-11
1526903596203554,5,3,-1,-2,-3,-6,6,1
1526903596215522,3,2,-3,2,0,-7,7,8
1526903596215522,30,0,2,-5,-1,-9,-4,34
1526903596224498,-4,1,0,2,1,9,-3,-14
1526903596224498,-23,-7,-2,-7,8,41,-1,-3
1526903596239458,-6,0,0,15,-3,-49,9,-5
1526903596239458,13,-1,-4,-4,-1,-22,-6,-7
1526903596241453,-12,-9,-2,-31,-12,-1,-12,-10
1526903596241453,6,7,9,64,14,9,8,29
1526903596262397,35,0,-6,-4,-1,9,2,15
1526903596262397,6,0,-1,-3,0,1,7,20
1526903596263394,7,-2,-3,-9,-1,-5,-8,-17
1526903596263394,41,6,2,-18,-8,-3,5,12
1526903596275362,-75,-8,-3,-3,-2,-3,-7,-6
1526903596275362,80,8,5,4,2,5,12,-15
1526903596284338,-32,-5,-5,-1,-3,8,-11,-15
1526903596284338,38,-3,-2,-9,-5,-23,-5,-7
1526903596299298,-15,3,-1,5,1,10,-11,3
1526903596299298,-39,-8,-3,-7,-4,-7,3,-8
1526903596301293,-12,1,1,12,2,-15,2,6
1526903596301293,14,-2,-1,-2,-3,-45,-4,5
1526903596322236,17,-4,-6,-11,-1,40,7,-17
1526903596322236,36,10,3,1,4,9,2,15
1526903596323234,1,-13,-3,17,4,8,-2,-4
1526903596323234,48,7,3,-6,-2,-16,-6,24
1526903596335202,-5,-7,-4,-9,-2,-14,-8,0
1526903596335202,-19,1,-2,12,-3,-16,4,7
1526903596344178,31,2,-4,-7,-2,3,8,4
1526903596344178,-51,4,0,-11,0,26,0,10
1526903596359138,-15,-11,0,12,7,-23,-3,-14
1526903596359138,40,5,1,-7,3,18,7,2
1526903596361133,-83,-1,2,20,2,2,-4,-21
1526903596361133,17,0,-1,-11,-2,8,19,16
1526903596382077,28,-6,-2,-11,-2,-5,-2,-14
1526903596382077,24,2,-1,-1,0,4,-21,-20
1526903596383074,1,4,0,-10,-1,-16,7,17
1526903596383074,-47,-5,-3,-5,1,15,3,-18
1526903596396039,51,11,4,7,0,9,10,14
1526903596396039,16,-4,-1,1,0,6,4,-9
1526903596405016,12,-3,2,-3,1,4,-2,2
1526903596405016,-45,-11,-4,6,1,6,-8,-3
1526903596418978,15,2,-2,-1,-1,0,-7,-13
1526903596418978,-61,-3,-3,-6,-5,-35,-10,-12
1526903596420973,24,3,-2,-1,-2,30,11,27
1526903596420973,-23,0,1,6,2,0,10,-2
1526903596441916,-37,4,-1,-8,-1,14,4,8
1526903596441916,-32,-15,-1,9,4,18,-8,-3
1526903596443911,44,7,0,-1,-2,-19,12,19
1526903596443911,-9,-4,-2,0,0,10,-15,-35
1526903596455879,-22,1,1,-1,-13,-46,-3,-4
1526903596455879,-6,2,-5,-5,-2,20,4,-2
1526903596464855,18,5,4,-1,1,-2,3,20
1526903596464855,30,-2,-1,-17,-2,5,1,25
1526903596479815,-31,-3,-1,6,2,-22,-11,-16
1526903596479815,19,-1,-3,-4,-6,-9,-4,-2
1526903596480813,0,0,2,15,0,-9,-2,-1
1526903596480813,13,0,1,2,0,-5,-17,25
1526903596501757,-38,-9,-9,-13,-4,4,7,-33
1526903596501757,-30,4,0,-2,-1,-1,9,3
1526903596503752,67,-1,0,-8,-3,-2,-6,7
1526903596503752,-39,-1,2,6,-1,-1,-6,-10
1526903596515719,33,3,2,-1,3,17,21,16
1526903596515719,-45,-9,-3,1,-3,4,-16,0
1526903596524696,4,-4,-3,-7,-3,-7,1,-18
1526903596524696,-30,0,-2,-1,-3,-2,-1,-23
1526903596538658,12,-3,-3,-11,-3,-14,-5,6
1526903596538658,60,5,3,14,1,50,11,18
1526903596545639,-74,-6,0,4,3,-5,-4,-29
1526903596545639,-2,-11,-3,4,-2,2,-3,-20
1526903596561597,-21,1,-1,-6,1,16,-4,0
1526903596561597,24,6,-1,-11,-5,-20,3,-10
1526903596563592,-8,2,-1,5,2,1,-6,0
1526903596563592,-8,-2,0,-3,1,4,8,9
1526903596575559,-49,-5,-3,8,0,-7,-11,-24
1526903596575559,-16,-5,-2,-3,0,-11,2,-1
1526903596584535,66,-4,-1,6,-2,-1,-8,6
1526903596584535,13,5,2,-3,0,-13,5,-4
1526903596598498,4,3,1,0,1,9,-2,19
1526903596598498,-42,-1,-1,-3,-3,-10,8,4
1526903596607474,0,-1,-2,2,1,8,-3,-1
1526903596607474,-26,-5,-6,-3,0,8,-13,-10
1526903596622434,16,1,-1,2,1,3,-4,-5
1526903596622434,-3,-4,-1,0,2,5,3,1
1526903596623431,11,-5,-2,-7,-5,-14,1,5
1526903596623431,22,-2,-4,-3,-3,5,-2,14
1526903596635399,-16,7,6,19,10,10,1,14
1526903596635399,49,1,1,0,1,-15,12,-4
1526903596644375,-51,-3,-3,-4,-2,-27,-32,-39
1526903596644375,-26,-6,-4,-3,-3,37,11,-6
1526903596658338,13,4,-1,-3,-5,-7,6,15
1526903596658338,12,-3,-3,-3,0,0,-16,4
1526903596667314,-23,-6,-1,-3,1,11,5,-13
1526903596667314,12,13,1,-3,-1,-16,0,1
1526903596682274,5,-10,-2,0,-2,-7,-4,-2
1526903596682274,-50,-2,0,3,-2,2,-7,-8
1526903596683271,11,12,2,-3,2,5,8,5
1526903596683271,-14,-12,1,1,2,-9,2,5
1526903596704215,52,5,1,0,1,5,2,-2
1526903596704215,-66,-5,-6,-4,-5,-10,-12,-21
1526903596706210,-2,-1,3,-1,-2,9,1,9
1526903596706210,16,-2,-3,-1,0,-7,1,-14
1526903596719175,-32,0,3,3,-1,0,-2,3
1526903596719175,64,-2,-2,0,2,7,-3,-15
1526903596725159,16,0,0,0,-3,-1,3,1
1526903596725159,-23,1,1,3,0,-5,2,8
1526903596742113,45,2,-2,-4,-2,1,-2,-7
1526903596742113,-76,-6,-4,-1,-2,2,-11,-9
1526903596743111,25,-8,0,1,-1,-3,7,45
1526903596743111,13,4,0,0,-2,-8,0,-36
1526903596764055,-4,-1,1,-2,0,-6,4,24
1526903596764055,18,4,1,0,-1,7,4,-7
1526903596766050,90,3,-1,0,0,0,-2,5
1526903596766050,-87,-6,-3,-1,-2,-2,-5,-4
1526903596779015,2,-10,-3,-3,-2,-4,-14,-13
1526903596779015,24,9,4,0,-1,-3,4,11
1526903596785996,-45,-13,-4,-2,0,2,0,-8
1526903596785996,28,7,-1,0,-2,2,-1,3
1526903596801954,30,-1,-1,-1,-2,-5,7,5
1526903596801954,33,3,3,0,-2,-9,-12,6
1526903596803949,-84,-2,-4,-2,-3,-8,13,-17
1526903596803949,66,-2,-2,-1,1,9,-13,-8
1526903596824892,-87,-9,-7,-4,2,-1,1,-33
1526903596824892,23,-4,-3,-2,-3,9,5,16
1526903596825891,5,7,5,-1,-4,-21,-14,-2
1526903596825891,9,0,3,3,-4,-19,4,-4
1526903596837857,-17,-1,4,2,-1,3,1,6
1526903596837857,21,2,-1,-2,1,-8,8,7
1526903596846834,-13,-3,-4,0,-1,5,-3,-6
1526903596846834,55,-1,0,0,0,-2,3,29
1526903596861794,-31,6,1,-1,-2,4,-2,-5
1526903596861794,32,-8,-1,0,-1,-7,-1,8
1526903596863788,-52,-2,-3,-3,0,8,-1,-7
1526903596863788,-3,1,1,1,2,-3,-2,7
1526903596884732,28,5,-3,-3,2,15,0,4
1526903596884732,43,-8,-3,-3,-8,-8,-4,10
1526903596885730,-14,4,-1,0,0,5,8,11
1526903596885730,0,4,0,2,1,-4,-6,9
1526903596897698,-27,-3,-4,-3,-7,-1,-1,-17
1526903596897698,12,6,2,1,7,29,5,7
1526903596906674,-21,-1,-2,-1,1,6,-10,-22
1526903596906674,69,-1,3,2,0,-1,-5,0
1526903596921634,-29,-7,-6,-4,-6,-8,5,26
1526903596921634,32,-1,-1,1,0,-11,4,7
1526903596923629,-15,-5,-1,-2,-1,-20,-14,-26
1526903596923629,8,2,0,-2,-2,10,2,-5
1526903596944572,20,-6,-2,2,-1,-6,-1,-2
1526903596944572,-39,1,-3,-2,0,-2,3,-5
1526903596946567,27,2,0,0,1,-9,10,23
1526903596946567,8,10,2,0,0,11,-1,-9
1526903596958535,-15,-13,-5,-3,-1,-15,-5,4
1526903596958535,-26,-10,-7,-6,-4,-11,-7,-43
1526903596967511,-30,1,2,3,2,11,0,-5
1526903596967511,-8,-7,-5,-3,0,-5,-1,4
1526903596981474,42,8,3,0,0,9,2,5
1526903596981474,-14,4,2,2,2,2,4,0
1526903596983473,-18,-9,-3,-4,-6,-15,-8,-6
1526903596983473,-6,1,0,0,-2,3,4,15
1526903597004412,-38,-1,-1,-1,1,-7,-1,-19
1526903597004412,-20,-2,1,-1,-5,-6,-2,-9
1526903597006407,53,-1,4,-2,2,12,2,24
1526903597006407,-68,-4,-7,-5,-4,-2,-5,-11
1526903597018375,44,2,-5,-5,-3,-4,-4,-4
1526903597018375,-23,-5,-2,1,1,-3,-6,-2
1526903597027351,9,4,1,1,-1,6,1,-10
1526903597027351,-21,-7,0,-2,0,-8,0,-6
1526903597042311,-13,7,-3,-1,-1,4,-9,-18
1526903597042311,-63,-4,-3,-5,-1,-3,7,-9
1526903597043308,26,3,1,3,1,2,3,9
1526903597043308,-23,-7,-4,-3,-3,-5,1,-20
1526903597064252,31,12,8,6,2,0,-2,18
1526903597064252,71,6,0,-5,0,7,3,20
1526903597066247,-1,-9,-3,-1,0,9,4,2
1526903597066247,-13,5,1,0,-3,-21,-4,-22
1526903597078215,26,-4,-1,-1,1,-6,0,14
1526903597078215,-51,10,5,6,0,17,1,7
1526903597087191,45,3,1,-3,0,1,1,-6
1526903597087191,2,-6,-5,-8,-2,2,-5,-17
1526903597102151,-19,-1,-3,0,4,-3,13,8
1526903597102151,26,-3,0,2,-7,27,-13,4
1526903597103148,30,5,1,9,1,4,16,0
1526903597103148,-24,-2,4,-3,0,-16,0,20
1526903597124092,-47,-5,-4,-8,-1,-7,-4,-28
1526903597124092,15,-2,0,1,5,20,14,4
1526903597126087,-30,-3,0,-5,3,17,-10,11
1526903597126087,42,7,0,5,1,2,-10,-12
1526903597138055,-7,1,1,-6,-2,7,-1,18
1526903597138055,3,0,0,-4,-1,-24,-1,-3
1526903597147031,-37,-2,1,-2,-3,-6,8,-14
1526903597147031,32,1,0,0,0,11,6,30
1526903597161991,-14,7,0,3,0,3,-13,-12
1526903597161991,-23,-11,-7,-4,-3,-14,-10,-38
1526903597163986,-21,-1,3,-3,0,-7,3,16
1526903597163986,-15,0,-2,2,2,14,8,-6
1526903597184929,47,-2,-2,0,-2,-1,7,17
1526903597184929,-16,5,3,3,1,-9,2,14
1526903597185927,-3,3,-1,-7,-4,5,-2,11
1526903597185927,28,-7,-2,13,0,-9,-12,2
1526903597197895,-29,1,-3,-3,-5,-6,-8,-33
1526903597197895,0,-4,-1,3,4,4,4,20
1526903597206871,44,-5,-4,-9,-3,-16,-9,3
1526903597206871,-28,0,-2,2,4,23,7,5
1526903597221831,37,4,9,26,9,-21,12,23
1526903597221831,47,5,3,-10,-11,-2,3,47
1526903597223826,-60,-11,-8,5,-5,-31,-24,-68
1526903597223826,-13,2,-2,-3,3,45,10,8
1526903597244770,-17,-3,-7,-5,-10,-35,-3,-14
1526903597244770,8,1,0,-2,3,-13,0,16
1526903597245767,47,3,0,0,0,0,-2,16
1526903597245767,-22,1,-2,-10,-2,0,-3,-26
1526903597257735,14,-7,-1,-5,-3,13,-9,-22
1526903597257735,-2,3,-1,1,-2,-1,7,-2
1526903597266711,-8,-10,-1,0,0,8,17,34
1526903597266711,39,9,1,2,-2,-23,-16,17
1526903597281671,-33,-6,-5,-7,-2,15,-4,-25
1526903597281671,-5,-3,-1,3,-1,-12,-5,-24
1526903597283665,13,7,4,8,4,13,9,23
1526903597283665,37,-6,-7,-11,-5,-15,1,5
1526903597304609,10,0,0,3,2,6,2,16
1526903597304609,-41,1,-1,0,1,5,-1,-21
1526903597306604,-23,-5,-5,-12,-7,-3,-13,-19
1526903597306604,-26,-2,0,-23,-8,-7,-2,3
1526903597318572,29,-1,3,62,13,6,-1,8
1526903597318572,5,-3,-3,-2,2,-7,1,-14
1526903597327549,-8,5,2,-5,-2,2,4,6
1526903597327549,5,-6,-3,-13,-8,-11,-6,1
1526903597341510,-67,2,1,-15,4,7,4,12
1526903597341510,-25,-11,-5,10,-1,-9,-30,-70
1526903597343506,-72,-7,-5,4,-3,-6,11,-8
1526903597343506,25,-2,-1,-5,-1,1,13,28
1526903597364449,-51,-4,-5,-19,-7,1,-6,-30
1526903597364449,-15,-3,0,4,2,0,5,-17
1526903597366444,45,5,-1,-12,-1,11,17,20
1526903597366444,-82,-11,-1,14,2,-13,-21,-22
1526903597378413,69,9,2,-5,-2,7,11,40
1526903597378413,-20,-1,-4,-7,-4,-4,-7,1
1526903597387388,41,-3,0,0,2,11,0,7
1526903597387388,-24,11,5,17,2,-1,6,2
1526903597402348,50,-5,-3,-18,-5,1,-1,32
1526903597402348,-3,-1,-3,-4,2,9,-1,-4
1526903597403345,-47,3,1,-8,-5,-26,-1,5
1526903597403345,24,-6,-2,-9,3,22,-13,-4
1526903597424289,-6,5,4,22,1,-16,5,1
1526903597424289,-52,-2,-3,-13,-2,-4,5,-18
1526903597426284,54,-2,-2,16,8,65,-7,0
1526903597426284,5,4,0,-5,-5,-23,30,-8
1526903597438252,-20,-1,-5,-23,-6,-4,-24,-31
1526903597438252,-27,0,3,9,1,6,6,22
1526903597447228,58,0,-1,-1,2,-15,-1,4
1526903597447228,45,11,8,9,5,10,9,43
1526903597462188,-43,-13,-10,-8,-9,-12,-21,-1
1526903597462188,68,10,3,0,0,-16,8,13
1526903597463186,-54,-2,0,1,-2,-8,-3,0
1526903597463186,14,4,1,4,0,2,1,1
1526903597484129,-5,8,1,-3,1,-1,7,-23
1526903597484129,-3,-19,-7,-7,-7,-5,-4,23
1526903597486124,14,-1,-1,3,1,0,-10,-18
1526903597486124,-25,-5,-3,1,-4,-3,-5,-21
1526903597498092,55,9,3,-7,4,5,9,30
1526903597498092,-74,-7,-5,-3,-6,-3,-2,-27
1526903597507069,37,-8,-3,-1,-5,-4,-1,-1
1526903597507069,-6,-7,-9,-11,0,-19,-3,-11
1526903597521031,22,5,1,-12,0,9,5,-10
1526903597521031,23,-8,3,20,0,-2,-15,11
1526903597528012,15,6,8,7,3,3,14,11
1526903597528012,-41,-9,-7,-10,-6,-21,-16,-53
1526903597543970,16,6,-1,-7,-3,-2,6,14
1526903597543970,21,4,0,-8,0,4,0,2
1526903597545964,-29,2,3,-2,1,-13,-3,-8
1526903597545964,65,-2,2,9,1,8,10,36
1526903597557932,-64,-7,-2,3,-1,-11,-13,-32
1526903597557932,40,8,0,1,3,7,14,14
1526903597566908,-1,-6,-3,0,-4,-11,-20,-11
1526903597566908,-101,2,-1,-1,0,8,2,-12
1526903597580870,5,-1,-2,4,-2,-3,4,-8
1526903597580870,30,0,1,-4,2,7,-1,25
1526903597587852,-14,-3,-2,-1,-3,-3,6,-4
1526903597587852,-42,-8,-4,0,0,7,-3,-6
1526903597604807,-12,-6,-1,-1,-2,6,-4,-2
1526903597604807,22,10,1,1,-2,-4,0,-11
1526903597605804,-7,-5,1,-4,-4,6,-4,5
1526903597605804,9,4,1,10,2,-10,2,-12
1526903597626748,-4,-4,-1,-3,2,9,-3,9
1526903597626748,37,2,-2,-6,-9,-6,9,25
1526903597628743,-42,5,-1,2,-2,-21,-11,-48
1526903597628743,43,-2,-2,-8,-3,2,2,11
1526903597641708,22,-12,-3,1,-2,-15,-2,0
1526903597641708,-25,2,-1,3,7,1,-11,5
1526903597647692,17,5,2,1,-4,10,15,11
1526903597647692,12,-6,-1,-2,-2,-1,-6,8
1526903597664646,-14,5,0,-5,-1,3,11,8
1526903597664646,10,-3,2,0,-2,-18,3,12
1526903597665644,-46,-6,-4,-4,-4,-12,-9,-14
1526903597665644,-12,-5,-4,-3,0,-4,1,-10
1526903597686588,42,6,0,-1,-2,-6,4,3
1526903597686588,-28,-3,-2,-2,2,9,-8,-2
1526903597688583,-26,-4,-3,2,2,5,8,12
1526903597688583,14,5,1,1,-2,1,1,12
1526903597701548,-87,-9,-6,-1,-5,0,-15,-69
1526903597701548,48,10,5,3,3,3,2,2
1526903597708529,2,-2,1,1,1,1,-4,16
1526903597708529,0,-8,-5,-3,-5,-10,-1,-13
1526903597724486,100,14,3,3,3,10,4,42
1526903597724486,-93,-9,-5,-6,-6,-1,3,-16
1526903597726481,13,2,0,0,3,-1,-1,-6
1526903597726481,4,0,0,3,0,2,-2,8
1526903597747425,8,-6,-1,2,1,3,6,22
1526903597747425,22,2,-2,-4,-4,6,5,16
1526903597748423,8,-6,-7,-3,-2,-5,-2,-12
1526903597748423,-9,-3,1,1,1,5,-23,-15
1526903597761388,-14,5,3,5,-2,-5,9,-6
1526903597761388,-7,-2,0,-4,-2,-11,-4,-10
1526903597768369,86,1,2,1,2,1,6,12
1526903597768369,-51,-5,-4,3,-2,11,-3,-10
1526903597784326,45,-2,-1,-2,-2,2,0,16
1526903597784326,-45,0,-3,-2,-3,-3,-12,-57
1526903597786321,-5,-9,-2,0,-1,0,-5,3
1526903597786321,26,12,-3,-6,-2,0,8,17
1526903597807265,50,-9,1,9,3,2,1,1
1526903597807265,-67,-1,1,-2,1,6,7,-7
1526903597808263,16,2,-1,-2,-1,-1,-15,-8
1526903597808263,24,0,2,2,0,-3,2,4
1526903597821228,-23,-4,-3,-3,-3,1,1,-3
1526903597821228,35,0,0,1,3,2,4,7
1526903597828209,8,3,1,2,0,-6,-1,1
1526903597828209,9,-5,-2,-1,1,-11,1,14
1526903597844167,-44,6,0,-3,1,62,8,7
1526903597844167,94,0,-1,0,-3,-19,-15,7
1526903597846161,-62,-5,-4,-5,-4,-2,-4,-27
1526903597846161,17,1,4,1,7,19,13,-4
1526903597867105,-24,4,-1,-5,-1,-4,0,-18
1526903597867105,-10,1,0,3,1,2,4,12
1526903597868103,-4,5,-2,3,0,5,-14,3
1526903597868103,-29,-14,-3,-4,-2,-10,-3,6
1526903597881068,26,-1,-5,-6,-1,-16,-5,-12
1526903597881068,-35,-4,-1,-1,1,10,13,7
1526903597888049,6,0,0,-1,0,-9,-1,-3
1526903597888049,-6,6,1,3,-2,-2,1,2
1526903597904006,-24,-8,-5,-5,-5,-13,-2,-4
1526903597904006,44,3,2,0,-1,0,1,37
1526903597906001,18,2,-3,-1,1,0,-10,-24
1526903597906001,-6,-9,-4,-2,-2,1,-3,-4
1526903597926945,-78,0,1,2,0,-4,-3,0
1526903597926945,43,9,3,1,2,-1,6,18
1526903597928940,-99,-20,-10,-6,-6,-7,-13,-34
1526903597928940,77,17,4,0,-2,-3,7,25
1526903597940908,-49,-6,0,1,2,1,-4,-4
1526903597940908,42,-3,-2,-1,-5,-13,-9,-3
1526903597949884,-69,-5,0,0,1,14,6,-11
1526903597949884,-2,8,0,-1,-2,-5,-3,-23
1526903597964844,47,2,-2,-2,-1,-7,0,26
1526903597964844,-42,-13,-2,-1,-1,1,-15,-11
1526903597965841,41,2,-1,-1,1,1,15,27
1526903597965841,-102,1,0,-2,-2,-1,-8,-12
1526903597986785,103,3,1,0,0,-5,-5,-18
1526903597986785,-28,-8,-3,2,-2,-2,3,-23
1526903597988780,-11,-1,0,1,-1,-2,-2,17
1526903597988780,-28,0,1,5,2,3,-3,-12
1526903598000748,-11,-10,-3,-2,-1,-1,13,31
1526903598000748,-55,-7,-7,-8,-3,-5,-15,-79
1526903598009724,45,3,2,1,-1,1,6,26
1526903598009724,17,4,-3,-1,-3,-2,-8,1
1526903598024684,17,-3,1,2,0,-3,0,6
1526903598024684,29,0,2,-4,3,6,-3,8
1526903598025681,-8,1,0,-1,0,-2,10,-7
1526903598025681,-7,-2,-6,-5,-2,-1,-3,4
1526903598046625,0,1,0,3,-2,-8,-6,-5
1526903598046625,16,-1,0,0,-1,0,10,18
1526903598048620,35,6,1,1,1,-2,-1,10
1526903598048620,-2,3,2,-2,-2,-11,4,28
1526903598060588,-81,-13,-7,-6,-3,-3,-23,-42
1526903598060588,26,8,0,2,1,1,4,37
1526903598069564,-8,-5,-5,-5,-7,3,-15,-22
1526903598069564,47,1,0,-1,0,-2,2,2
1526903598084523,10,13,2,-1,-2,1,6,8
1526903598084523,-5,-1,0,2,0,-5,1,-10
1526903598086519,15,-4,1,0,1,-1,-2,-1
1526903598086519,-26,-6,-6,-4,-4,-5,-12,-37
1526903598107463,17,-4,-2,-2,0,2,6,-8
1526903598107463,4,3,0,-1,-3,0,0,13
1526903598108461,18,4,3,2,2,-2,8,30
1526903598108461,-18,-1,2,3,1,2,-4,-15
1526903598120428,-15,8,5,2,2,-4,8,17
1526903598120428,63,-4,-1,-2,1,-2,1,-11
1526903598129404,-61,-5,-8,-6,-8,-9,-14,-9
1526903598129404,118,-14,-4,-7,-7,-13,-2,17
1526903598144364,-48,2,-4,-9,1,-8,-8,-7
1526903598144364,26,0,4,9,0,2,-2,18
1526903598146358,-33,4,2,1,3,-4,1,-10
1526903598146358,-31,3,3,2,4,15,3,-8
1526903598167302,15,1,-2,-5,-3,-8,1,14
1526903598167302,6,1,-1,-12,-2,2,5,10
1526903598168300,53,3,3,6,2,0,3,30
1526903598168300,-100,-7,-2,21,1,-7,-2,-12
1526903598180267,46,5,-4,0,0,1,-8,15
1526903598180267,-4,-6,-2,0,1,6,-12,-24
1526903598189243,18,-3,-1,-6,-4,1,13,7
1526903598189243,12,6,1,-8,0,2,4,5
1526903598204203,-50,-3,3,0,1,-1,4,-5
1526903598204203,-53,0,-2,8,1,-4,-11,-7
1526903598206198,61,5,-4,-12,-4,2,-3,-4
1526903598206198,16,-3,-3,-11,-2,1,7,-2
1526903598227142,14,-1,-2,7,-1,6,4,-8
1526903598227142,-53,-3,-4,-2,-5,-15,-1,-8
1526903598228140,-21,-7,3,10,5,6,-17,-13
1526903598228140,21,5,1,-8,1,33,5,-12
1526903598241105,53,3,2,0,1,-8,-5,15
1526903598241105,-35,-3,-2,14,3,-10,9,-14
1526903598250081,-28,-1,-3,-2,0,-1,-7,-9
1526903598250081,47,0,0,0,-4,-10,-7,4
1526903598264044,-43,-16,-7,-14,-7,-2,-8,-42
1526903598264044,53,-5,-2,-18,1,-2,-6,10
1526903598266038,19,1,2,13,-5,6,19,1
1526903598266038,-10,2,1,-2,6,1,3,15
1526903598286982,3,6,2,24,3,-6,-4,8
1526903598286982,-12,2,-5,-16,-7,0,6,7
1526903598288977,-19,-5,-2,-8,-2,-6,0,-8
1526903598288977,22,4,0,4,1,0,-6,8
1526903598300945,-15,-3,-3,-4,-3,2,2,2
1526903598300945,3,0,0,-6,-2,4,-3,32
1526903598309921,-5,-2,0,2,-2,0,-1,-3
1526903598309921,-36,-5,-3,1,-3,-11,-1,-16
1526903598324881,-29,0,1,-4,3,2,-1,-14
1526903598324881,56,0,4,9,-3,6,2,7
1526903598325878,-39,-2,-2,-12,-2,-14,-5,-26
1526903598325878,13,-1,-1,6,-1,3,7,15
1526903598346822,8,-1,-5,-12,-4,2,-8,-8
1526903598346822,12,-2,0,4,-1,5,1,-16
1526903598348817,8,6,3,8,4,-7,-1,10
1526903598348817,-3,-7,-3,-2,0,-5,0,-2
1526903598360785,-8,0,-3,5,0,4,-2,6
1526903598360785,-52,0,0,-5,-3,-4,1,-4
1526903598369761,22,-1,0,-2,1,6,0,16
1526903598369761,-15,1,0,-5,-2,8,2,-4
1526903598384721,-13,8,2,7,-2,-12,8,14
1526903598384721,-41,0,-1,-5,4,5,-5,-41
1526903598385719,13,-15,-8,9,-5,-5,-20,-21
1526903598385719,-20,-2,-1,-12,-3,-1,6,1
1526903598406662,10,2,1,-5,0,-12,-1,11
1526903598406662,24,9,1,3,-5,17,-3,-2
1526903598408657,13,8,4,1,9,10,9,22
1526903598408657,-31,-10,-8,0,-1,-6,-8,-18
1526903598420625,-74,-5,-1,-3,-3,1,2,-33
1526903598420625,87,3,1,-8,-2,-9,-2,21
1526903598429601,-1,-3,-4,-7,-4,-3,1,-12
1526903598429601,4,-1,-1,3,-2,0,-2,18
1526903598444561,48,4,2,-5,0,4,7,38
1526903598444561,-81,-1,1,-4,5,-5,-6,-29
1526903598446556,17,-6,-3,-14,-6,29,-2,6
1526903598446556,0,-2,3,51,7,-13,5,-1
1526903598466502,21,-4,-1,-1,-4,12,2,-2
1526903598466502,-18,3,2,5,5,-2,6,24
1526903598468497,-12,-7,-9,-14,-7,-16,-5,-24
1526903598468497,16,10,1,-17,-1,2,-4,10
1526903598480465,10,-1,-1,-2,-1,-7,-3,3
1526903598480465,-67,1,-1,1,-2,17,-4,-19
1526903598489441,14,-5,2,8,-2,-15,10,-1
1526903598489441,-54,-9,-6,-21,-2,7,-20,-22
1526903598503403,87,9,2,3,-2,-16,7,19
1526903598503403,34,-5,-3,-2,-1,-11,2,20
1526903598510385,8,3,2,13,3,4,3,3
1526903598510385,33,0,2,-5,1,-1,-1,-6
1526903598527340,-1,0,-4,-6,-7,-6,-1,5
1526903598527340,-10,0,1,1,-3,-10,-3,-7
1526903598528337,13,-3,0,-5,2,8,-13,4
1526903598528337,1,2,-1,0,-2,-9,-2,15
1526903598540305,-51,3,-1,-2,1,6,2,-37
1526903598540305,59,-8,-7,-7,-6,-4,8,8
1526903598549281,5,1,-3,-2,6,-30,-5,-3
1526903598549281,27,2,2,0,-3,48,-1,14
1526903598564241,29,-7,-1,15,2,-6,-5,-16
1526903598564241,-40,-5,-2,-3,-3,5,-4,1
1526903598570225,-17,6,1,5,2,-5,7,-4
1526903598570225,41,3,-2,-12,-2,-12,3,-3
1526903598587179,-11,1,4,-3,2,14,-4,-4
1526903598587179,-25,-11,-5,7,-5,-24,-7,-17
1526903598588177,20,1,1,-7,-4,5,3,26
1526903598588177,-4,7,-1,-8,-8,-13,6,-1
1526903598609121,-44,-6,-7,-1,-4,2,-3,-38
1526903598609121,85,2,-1,1,4,2,-6,1
1526903598611116,-63,-16,1,6,6,0,-9,3
1526903598611116,-6,-4,-5,-5,-6,-1,-7,-20
1526903598623083,68,2,-1,-6,-1,9,21,45
1526903598623083,-69,5,6,8,1,-8,-8,-17
1526903598632060,19,5,-2,-1,-4,10,-3,-9
1526903598632060,-14,-8,-2,5,2,-27,-5,-2
1526903598647019,28,3,0,-5,-5,2,-2,4
1526903598647019,-35,-2,-2,-4,0,2,0,-9
1526903598649014,4,7,3,2,0,15,6,24
1526903598649014,-24,-5,-4,-1,0,-22,4,2
1526903598669958,-12,4,-4,-4,-1,-4,-10,-6
1526903598669958,79,-8,-1,-2,0,13,2,13
1526903598670956,-29,1,1,0,-1,-6,4,-5
1526903598670956,39,-5,-2,-1,0,6,1,-2
1526903598683920,-36,-11,-5,-1,1,-3,-2,-1
1526903598683920,52,5,4,3,-1,6,5,22
1526903598690902,-32,4,1,1,0,-16,3,-8
1526903598690902,58,4,-1,-3,-2,24,7,2
1526903598706859,-33,1,2,1,8,0,-5,0
1526903598706859,8,-4,-1,6,-3,-9,4,14
1526903598708854,14,3,-2,-9,-4,-12,11,-5
1526903598708854,-27,0,1,14,4,-3,2,-6
1526903598729798,12,-2,2,7,2,6,-11,-11
1526903598729798,-62,1,-1,-4,-4,-24,6,-2
1526903598730795,3,-10,-2,-2,-1,0,1,3
1526903598730795,-63,1,1,-4,-3,6,-11,-13
1526903598743761,98,0,2,0,-2,5,1,17
1526903598743761,-57,4,-4,-2,-3,-38,-3,-18
1526903598750742,17,-12,-1,0,-1,33,9,20
1526903598750742,-55,4,-6,-6,-1,-16,-3,-12
1526903598766699,1,1,0,1,2,-5,-2,1
1526903598766699,-23,-3,0,-1,1,10,-4,-5
1526903598768694,39,12,5,-1,2,-1,-2,9
1526903598768694,2,-7,-4,-1,-1,1,-11,-15
1526903598789638,19,6,-2,-2,-3,-5,12,30
1526903598789638,-25,-8,-2,-2,0,15,4,15
1526903598790636,-43,-2,-2,-2,-4,-8,-3,-12
1526903598790636,22,3,3,1,2,5,3,10
1526903598803600,0,3,2,-1,-2,-3,3,-10
1526903598803600,-4,-9,-2,1,2,8,0,8
1526903598810582,-45,3,-3,1,-1,1,-4,-49
1526903598810582,-12,-5,0,0,-2,-9,7,2
1526903598826539,-35,-5,-1,-6,-1,-15,-17,13
1526903598826539,3,4,0,4,0,30,-2,-5
1526903598828534,38,4,1,9,-2,-12,6,9
1526903598828534,18,3,1,-2,0,9,12,-8
1526903598849478,-51,-10,-5,3,3,0,-1,-35
1526903598849478,9,1,1,-3,-2,-4,-5,-8
1526903598851473,45,2,1,-2,1,-8,-5,24
1526903598851473,39,5,1,2,-3,-2,3,13
1526903598863441,5,-4,0,0,-3,6,0,-21
1526903598863441,-10,-2,-4,-5,-2,-2,-7,-16
1526903598872417,-2,-4,-3,-4,-2,-1,-5,-1
1526903598872417,11,-2,-1,-1,0,-6,0,-7
1526903598887377,15,0,0,-2,-2,-3,-4,3
1526903598887377,15,0,-2,1,1,5,6,-7
1526903598888374,3,6,3,3,2,3,9,18
1526903598888374,-9,3,-4,-4,0,-4,-16,-14
1526903598909318,-59,-22,-6,-3,-3,3,9,0
1526903598909318,1,1,3,2,1,-1,-6,-7
1526903598911313,25,-4,-3,-4,-1,1,-6,17
1526903598911313,23,5,2,-2,-3,0,0,6
1526903598923280,4,7,0,4,4,3,5,9
1526903598923280,-43,-2,-3,-5,-2,-2,-7,2
1526903598932257,-16,-5,2,1,-4,-12,-1,-25
1526903598932257,-28,-10,-2,-1,9,3,0,12
1526903598947216,-2,6,0,-3,-16,-20,5,0
1526903598947216,-19,-3,-4,-2,12,43,-4,-39
1526903598948214,-54,-2,-4,-2,-22,2,-25,8
1526903598948214,38,-2,0,5,5,-10,5,5
1526903598969158,-16,-1,-4,-7,1,-10,-5,-8
1526903598969158,83,7,5,3,-3,-6,9,21
1526903598971153,-31,-6,-2,-5,-6,7,8,12
1526903598971153,-26,5,-2,-3,-1,0,-1,-18
1526903598983121,-38,-14,-3,0,3,5,-14,-23
1526903598983121,-4,4,1,-2,-4,-12,3,8
1526903598992097,19,2,1,5,10,10,-1,-13
1526903598992097,-13,-3,-1,-3,-8,-10,-2,22
1526903599007057,57,1,-2,1,2,4,8,19
1526903599007057,-35,-7,-3,-2,-3,-9,-9,-27
1526903599009051,10,-1,-3,-4,1,-9,3,-10
1526903599009051,4,0,4,3,1,3,-1,7
1526903599028998,-62,0,-5,-5,-7,1,-10,-29
1526903599028998,-14,-2,0,3,1,-4,0,9
1526903599030993,19,-2,2,2,3,0,2,1
1526903599030993,-24,8,-1,-2,-6,3,-6,-37
1526903599042960,-22,-12,-5,-4,1,-1,-8,-4
1526903599042960,-22,-4,-3,-2,-1,1,-1,5
1526903599051937,18,7,0,-1,5,-7,8,-12
1526903599051937,-2,2,4,1,0,6,5,22
1526903599066896,35,11,1,0,-5,9,4,-1
1526903599066896,7,-9,2,2,2,-3,1,27
1526903599068891,30,1,-4,1,0,1,-6,-29
1526903599068891,-1,-13,-5,-5,0,-2,-9,3
1526903599089835,27,11,3,2,0,2,4,29
1526903599089835,49,6,1,-1,0,8,5,15
1526903599090833,-55,-6,-1,0,0,-22,9,-25
1526903599090833,2,3,-2,1,-2,-5,-9,0
1526903599102800,-19,-4,-1,1,0,1,-6,13
1526903599102800,-19,-4,-1,-1,-4,-6,6,-4
1526903599111777,6,4,-1,-1,0,7,-16,-19
1526903599111777,-37,-9,-4,-4,-5,-9,-7,-23
1526903599126736,-37,1,2,-3,-1,0,-3,-17
1526903599126736,28,2,1,6,-1,-2,16,8
1526903599128731,10,-1,-2,-5,2,4,2,23
1526903599128731,-17,2,0,0,3,-5,1,8
1526903599149675,22,4,3,4,-2,2,-8,-3
1526903599149675,55,0,-1,-4,-1,-7,-1,7
1526903599150673,-75,-5,-3,-4,-2,0,-1,-3
1526903599150673,68,5,0,7,1,8,14,29
1526903599162640,14,3,-2,-1,-2,-7,3,4
1526903599162640,-78,0,0,1,-1,-8,-10,1
1526903599172614,19,-2,0,-3,-2,13,11,32
1526903599172614,-54,4,-6,-6,-1,2,-17,-40
1526903599186576,11,-9,0,-2,2,11,3,14
1526903599186576,43,4,-2,-3,-3,-32,-7,-9
1526903599188571,15,-17,-3,3,1,3,0,16
1526903599188571,7,0,0,-6,-4,0,8,-1
1526903599209515,9,3,1,5,3,-14,5,2
1526903599209515,-74,0,-2,-5,-2,4,-11,-36
1526903599211510,70,-2,-8,-14,-5,-4,-12,-4
1526903599211510,1,0,2,18,2,-10,10,19
1526903599223477,-24,1,-3,-7,1,6,-10,-14
1526903599223477,-17,-5,1,8,-1,9,4,14
1526903599232454,-16,2,1,-1,-2,1,-7,0
1526903599232454,3,-6,-3,-15,-7,-6,-2,9
1526903599247414,0,3,1,-3,-3,-3,-2,-4
1526903599247414,56,0,2,12,5,6,7,9
1526903599248411,-31,1,2,-4,3,-6,10,2
1526903599248411,-35,2,-2,-11,-5,1,-23,-6
1526903599269355,44,-1,-2,-20,0,-7,5,22
1526903599269355,64,-4,-2,35,7,10,-8,-16
1526903599271350,-55,1,-1,4,-9,-3,-1,-36
1526903599271350,-13,-4,1,8,6,17,15,1
1526903599283318,-19,-3,-3,-14,-5,-11,-7,4
1526903599283318,22,2,-3,-17,1,-3,1,15
1526903599292294,3,-1,0,2,-2,-1,3,0
1526903599292294,21,0,5,3,3,5,4,41
1526903599307254,-45,-2,-3,7,1,1,-13,-41
1526903599307254,65,-5,-1,-3,-3,1,-2,3
1526903599308251,-62,3,-3,-6,-3,-6,0,6
1526903599308251,70,2,1,-5,-2,-1,4,0
1526903599329195,-17,-8,-2,5,4,6,16,16
1526903599329195,-35,11,3,-7,-4,-1,0,-2
1526903599331190,22,-5,-2,0,2,-4,-7,-7
1526903599331190,5,3,-2,-1,2,4,-1,-29
1526903599343158,48,1,-1,3,-5,-7,-1,9
1526903599343158,-34,-4,0,-15,-8,-1,4,-16
1526903599352134,24,7,3,10,6,12,10,15
1526903599352134,-33,-1,-3,8,0,-16,-9,-7
1526903599367093,9,0,0,2,5,1,9,-16
1526903599367093,33,-4,-1,-14,-6,16,6,20
1526903599368091,55,3,-4,-12,-2,-1,-7,4
1526903599368091,-69,-7,2,23,4,6,11,-7
1526903599389035,38,5,3,3,-3,1,-4,17
1526903599389035,-21,5,0,-9,5,-5,6,24
1526903599391030,-23,-14,-11,-10,-5,-8,-20,-27
1526903599391030,14,-1,-3,-2,1,3,8,-7
1526903599402997,8,2,1,8,1,4,6,21
1526903599402997,-24,3,0,1,-1,-9,-14,-24
1526903599411974,-6,-12,-2,-4,0,2,-1,-4
1526903599411974,16,4,-4,-12,-4,-1,1,-2
1526903599425936,-32,-1,-1,-7,-4,-4,7,3
1526903599425936,-8,-5,4,18,5,2,-3,0
1526903599432917,-24,2,-1,-4,1,4,-12,-1
1526903599432917,2,-10,-7,-1,-5,-13,3,-30
1526903599449872,67,8,-1,-2,-4,12,-4,10
1526903599449872,-33,-10,-2,-18,-1,-14,1,-3
1526903599450869,49,9,6,24,1,12,18,17
1526903599450869,-10,0,-3,-17,4,1,-3,5
1526903599462837,-36,-10,-7,19,-2,-6,-8,-3
1526903599462837,-14,1,1,-4,9,-19,5,-3
1526903599471814,20,2,3,-2,0,26,-2,4
1526903599471814,17,0,-1,-10,-1,0,5,7
1526903599486774,-15,0,-2,-22,-12,-9,6,-17
1526903599486774,21,-15,0,30,9,-8,-6,14
1526903599492758,-30,-3,-5,-2,0,-2,2,7
1526903599492758,-25,8,0,6,-9,-9,-14,-8
1526903599509712,-7,3,4,3,3,12,2,-1
1526903599509712,-13,-2,-4,-6,-7,11,7,-8
1526903599510710,-5,-1,0,-2,7,-13,-16,3
1526903599510710,31,0,1,-4,-5,5,-3,8
1526903599531653,20,1,1,2,3,4,-4,-14
1526903599531653,3,-2,-3,-7,-6,-6,4,-2
1526903599533649,2,1,-1,0,-7,12,-6,-8
1526903599533649,-9,3,3,3,-1,1,-17,-7
1526903599546613,-38,-1,-3,1,5,6,4,-19
1526903599546613,16,-12,-6,-3,-2,-11,6,-4
1526903599553595,-1,3,1,-11,-3,22,6,0
1526903599553595,-10,4,6,26,2,-14,3,-4
1526903599569552,19,-4,2,5,3,-6,-4,9
1526903599569552,-37,3,-4,-11,-8,14,-6,-11
1526903599571547,55,2,-1,1,1,-49,-6,-4
1526903599571547,-7,-3,-5,-11,3,21,-1,2
1526903599591493,-58,-2,2,5,-2,-3,-3,-2
1526903599591493,43,4,0,-2,-12,-18,-17,3
1526903599593489,-16,0,0,-6,-2,-5,4,-18
1526903599593489,-12,-8,0,-3,-2,-2,0,8
1526903599606453,31,-1,-1,-2,0,-2,8,8
1526903599606453,9,6,-2,-11,1,9,-14,-19
1526903599613435,26,7,4,21,8,4,4,26
1526903599613435,-1,0,-3,1,-1,-8,2,-8
1526903599629392,-35,-8,-4,-2,-4,2,-6,-13
1526903599629392,-15,7,3,-8,1,9,4,3
1526903599631387,26,0,2,10,-1,-10,10,13
1526903599631387,15,-9,-6,-6,-2,-13,-8,1
1526903599652331,20,1,1,-2,6,22,0,8
1526903599652331,-66,-2,-1,-3,-12,-1,-7,-21
1526903599653328,31,2,-3,-3,-3,2,2,-4
1526903599653328,54,6,1,-7,-2,6,5,9
1526903599666293,-17,-8,3,-2,3,-25,4,-4
1526903599666293,14,-2,-3,4,-1,-13,-14,6
1526903599673275,-46,-4,-2,-8,-2,26,-9,-14
1526903599673275,46,16,3,2,1,27,18,-3
1526903599689232,-56,-5,-3,3,1,3,-1,12
1526903599689232,21,6,0,3,1,-1,7,3
1526903599691227,-27,-12,-4,-9,-6,-16,-2,-2
1526903599691227,45,6,1,6,1,-8,-10,7
1526903599712171,36,2,-2,-4,-5,-1,-1,1
1526903599712171,-53,-6,-2,2,3,2,10,0
1526903599713168,-21,-8,-8,-8,-5,-12,-12,-28
1526903599713168,-18,-2,0,-4,-2,-3,-2,6
1526903599726133,17,1,-2,-1,-2,-6,-1,-9
1526903599726133,11,-1,1,3,1,5,-6,-5
1526903599733115,55,4,0,1,0,6,2,20
1526903599733115,0,-9,-4,-8,-2,-6,0,-3
1526903599749072,-1,0,-4,-6,-7,-11,-7,-11
1526903599749072,15,2,4,14,3,2,13,14
1526903599751067,-61,-1,0,-1,-2,10,2,-14
1526903599751067,-4,-3,2,1,2,-1,-4,-2
1526903599772011,31,4,2,4,-1,-1,-7,6
1526903599772011,-68,-9,-5,-5,-1,8,6,5
1526903599774005,3,-10,-5,0,-3,-12,2,-12
1526903599774005,-33,1,0,-3,-4,-10,1,-6
1526903599785973,-16,-4,-1,-4,2,-1,-8,-12
1526903599785973,28,5,2,2,-5,28,-14,22
1526903599794950,-73,-2,-3,1,-5,-25,13,-20
1526903599794950,8,-4,-2,-5,2,1,-18,2
1526903599809909,-44,8,0,1,0,4,16,-2
1526903599809909,-12,-13,-3,-1,1,-6,-13,-7
1526903599810907,4,10,5,-1,2,-3,7,26
1526903599810907,48,-7,-1,-2,-3,5,6,-5
1526903599831850,-5,4,2,1,-2,-5,-3,8
1526903599831850,22,5,-1,-2,-1,-8,4,-7
1526903599833846,2,1,0,-2,4,3,-8,-1
1526903599833846,-25,-6,-3,-3,-4,-28,-2,1
1526903599845813,54,1,-3,2,2,30,1,-1
1526903599845813,-36,-13,-2,-5,0,10,8,-15
1526903599854789,74,6,4,4,3,-4,-5,4
1526903599854789,-54,-5,-6,-5,-5,-8,-10,-17
1526903599869749,40,-4,-2,-3,-4,-16,-8,-13
1526903599869749,52,9,1,-4,1,-5,9,23
1526903599870747,-21,-6,-2,-1,3,14,-2,1
1526903599870747,-6,-5,-1,0,-6,-14,3,-16
1526903599891691,3,-2,3,4,-2,4,-11,9
1526903599891691,-29,-9,-4,0,2,-9,-11,-18
1526903599893685,4,9,3,-1,-2,-4,0,2
1526903599893685,-28,-12,-4,-4,3,15,13,17
1526903599905653,-38,-6,-6,-8,-4,-3,-7,-19
1526903599905653,79,5,-1,13,1,7,7,12
1526903599914630,11,0,0,-2,-1,-7,-6,-4
1526903599914630,-12,2,-3,-1,-1,1,-4,-7
1526903599929589,-23,-4,-1,-4,-3,-5,-2,-11
1526903599929589,3,-3,-1,-4,0,-5,-1,0
1526903599931584,42,6,2,-4,-1,0,5,24
1526903599931584,-10,4,2,-3,-2,-2,13,17
1526903599951530,22,1,2,12,2,-9,1,3
1526903599951530,16,14,4,-1,0,-4,-7,1
1526903599953526,-24,-15,-3,-5,-2,-14,3,-14
1526903599953526,-22,-4,-1,-16,0,-6,-1,-13
1526903599965493,9,-5,-3,11,-1,14,-26,15
1526903599965493,-46,1,2,-2,0,-7,6,-13
1526903599974470,9,4,-1,4,1,-1,3,5
1526903599974470,-4,8,0,-5,0,-7,-6,-6
1526903599989429,12,-5,-3,-11,-2,-2,10,16
1526903599989429,-7,-6,-5,-1,-1,2,-16,-4
1526903599991424,-28,2,0,-1,2,0,-4,25
1526903599991424,63,-5,-3,-2,-4,8,-6,-23
1526903600012368,15,10,1,0,-1,-1,2,7
1526903600012368,-26,4,1,3,0,-1,7,15
1526903600013365,-34,-13,-4,0,-3,1,0,-6
1526903600013365,-47,-4,-1,4,0,5,1,-19
1526903600025333,54,8,4,0,2,-7,0,11
1526903600025333,1,-8,-4,-6,-2,-6,-1,6
1526903600034309,-10,-4,-3,-3,-1,1,-7,-17
1526903600034309,19,6,2,6,2,6,6,19
1526903600049269,-74,-7,-4,-6,0,-10,-8,-21
1526903600049269,72,4,3,0,-1,1,8,6
1526903600051264,37,1,-1,3,2,9,-10,-2
1526903600051264,6,-5,-3,2,1,7,0,26
1526903600072208,54,2,-1,-3,-1,0,18,-9
1526903600072208,25,-2,2,1,-3,-17,-3,12
1526903600073205,-84,0,-4,0,-1,-1,-15,-36
1526903600073205,59,13,3,0,0,-5,2,20
1526903600085173,-29,-9,0,-2,-4,7,5,7
1526903600085173,-2,-2,0,2,1,8,7,-19
1526903600095147,33,4,-1,-1,-2,-5,-8,-14
1526903600095147,-42,-2,-2,0,-1,-2,-5,-15
1526903600109109,-29,-7,-1,-11,-2,-1,8,-2
1526903600109109,-4,8,3,18,6,2,-1,8
1526903600111104,2,-18,-3,9,0,0,16,-8
1526903600111104,28,7,0,6,0,5,-30,-3
1526903600132048,-22,-9,-5,0,-3,-2,5,3
1526903600132048,-16,-2,-4,-14,-4,2,6,-5
1526903600134043,40,7,2,-7,-2,-4,-3,-12
1526903600134043,-12,-3,1,3,-1,-1,7,8
1526903600146010,9,5,1,-1,1,-11,-3,2
1526903600146010,7,-9,-7,-10,-4,11,-8,-14
1526903600154987,15,9,3,4,2,0,4,15
1526903600154987,-19,-6,-2,-6,-4,-14,5,-5
1526903600169946,9,10,0,2,0,18,9,5
1526903600169946,-9,-7,2,0,5,29,7,-22
1526903600170947,-2,-8,-4,0,-4,-22,-9,30
1526903600170947,-1,-2,-1,0,1,11,2,-12
1526903600191888,-56,-8,-5,-11,-4,-16,-18,-40
1526903600191888,30,3,1,28,5,4,0,27
1526903600193883,-15,4,-1,-18,-8,5,5,7
1526903600193883,-20,0,0,0,-3,-19,11,9
1526903600205850,37,6,5,-4,-5,-14,-6,1
1526903600205850,-39,-5,-1,5,6,10,-17,12
1526903600214827,30,-2,-6,-8,-7,-11,-10,-32
1526903600214827,-48,3,-2,-5,0,-9,-1,1
1526903600229786,-1,-3,-1,2,3,5,6,10
1526903600229786,-17,4,-1,-11,-6,-17,-2,-13
1526903600230784,19,1,3,6,3,4,6,38
1526903600230784,14,2,-3,-11,-3,12,-11,-22
1526903600251728,55,-4,1,0,1,-1,3,10
1526903600251728,-19,-3,-1,-7,-4,-17,0,1
1526903600253723,-22,0,0,-10,6,29,21,7
1526903600253723,20,-7,-7,35,0,-36,-13,-23
1526903600265690,1,0,-1,-8,-2,3,-19,1
1526903600265690,42,9,0,0,-2,-16,-6,2
1526903600274667,-6,-7,0,4,-3,9,2,15
1526903600274667,-3,2,2,-4,-2,0,-4,-12
1526903600289626,-17,-1,-2,7,3,9,9,6
1526903600289626,-31,-9,-5,-17,-9,-9,-2,-34
1526903600290624,-9,6,3,-1,6,1,-8,3
1526903600290624,-46,-2,0,-7,-2,7,5,2
1526903600311568,6,-2,-2,7,1,-9,-6,20
1526903600311568,2,-6,2,4,1,7,16,1
1526903600313563,-70,2,-3,-16,-8,36,-13,-14
1526903600313563,30,2,1,-1,1,-8,4,27
1526903600325531,-18,3,-3,-13,0,0,-6,-23
1526903600325531,41,-2,-1,8,-6,0,3,17
1526903600334507,-5,1,3,28,11,-9,8,1
1526903600334507,-29,-5,-2,-7,-1,7,-4,-16
1526903600349466,59,6,4,1,-2,14,9,47
1526903600349466,-23,-3,-5,-12,-5,-11,-10,-14
1526903600351461,30,8,1,-20,1,-3,3,-2
1526903600351461,10,-1,4,33,5,20,3,4
1526903600372405,-36,3,1,4,-2,-5,13,6
1526903600372405,-15,-6,0,-4,4,-2,-7,-19
1526903600373403,7,-4,-1,2,-4,-11,-2,-17
1526903600373403,34,1,-2,-15,-2,4,-10,10
1526903600385370,-5,-7,-3,-3,-3,-5,-9,-13
1526903600385370,-67,6,-1,-9,-4,-2,4,-3
1526903600394346,11,-12,-5,13,0,-9,-10,-11
1526903600394346,31,3,-1,-13,-3,-7,0,4
1526903600409306,-12,-16,-6,-3,-12,-3,-1,-9
1526903600409306,8,9,2,-5,2,-2,8,13
1526903600415290,9,5,4,16,13,-3,3,4
1526903600415290,8,-5,-2,8,1,-16,7,0
1526903600432245,-37,-3,-2,-3,-3,11,-13,-14
1526903600432245,36,-4,-5,-9,-5,-11,-3,11
1526903600433243,29,6,-5,-7,-4,4,9,4
1526903600433243,11,-3,-2,-7,0,-8,-3,6
1526903600445210,-8,0,1,-2,3,1,10,-9
1526903600445210,7,3,0,5,-1,0,-6,-6
1526903600454186,-33,-3,-3,-6,-8,-11,0,-14
1526903600454186,13,7,-2,-11,-1,8,-3,-7
1526903600469146,-17,-4,5,9,4,-2,2,9
1526903600469146,-12,-6,2,13,3,0,-9,-12
1526903600475130,11,7,1,-8,-2,-4,-7,7
1526903600475130,20,0,-6,-10,-10,8,17,0
1526903600492085,6,-8,0,6,6,-1,1,0
1526903600492085,-35,4,2,-2,-1,-9,3,1
1526903600494080,-20,-5,-1,-3,1,4,-11,14
1526903600494080,21,-3,0,-2,-1,1,-1,5
1526903600514026,-16,3,-3,-2,-1,-11,-1,-9
1526903600514026,27,-5,0,-2,-3,16,4,-2
1526903600516022,7,0,-2,6,-1,-13,3,-17
1526903600516022,-38,0,-4,-5,0,20,-11,12
1526903600528986,16,3,-1,6,-1,-9,-7,-5
1526903600528986,-4,-2,-4,-9,-1,3,10,5
1526903600535968,4,3,1,4,-3,-6,-7,-5
1526903600535968,2,0,3,1,3,-4,-2,1
1526903600551925,50,6,0,9,0,2,5,4
1526903600551925,-3,-2,-2,-9,-6,3,-13,-7
1526903600553920,-62,-12,-1,0,-2,-3,-3,-8
1526903600553920,-47,-3,0,14,5,-16,15,-7
1526903600574863,8,-4,-2,-14,-3,10,-2,8
1526903600574863,-47,9,3,13,3,9,6,-7
1526903600575861,38,-1,-2,-11,-6,-16,2,-11
1526903600575861,-3,-2,1,-13,-1,-9,-6,-5
1526903600588826,-34,-1,4,23,3,-10,2,17
1526903600588826,-8,-9,-4,-8,-2,8,-2,-24
1526903600595808,-23,-1,-4,-4,-4,1,-3,-6
1526903600595808,42,0,-1,0,-1,5,4,15
1526903600611765,14,2,-3,-5,1,-2,0,-13
1526903600611765,-42,-1,-1,1,1,-2,-1,7
1526903600613760,37,-1,-1,-3,-1,0,-8,9
1526903600613760,-12,3,4,6,-1,15,3,-6
1526903600634704,24,0,-1,-3,-1,12,0,15
1526903600634704,16,-1,0,-2,-4,-13,-6,3
1526903600635701,1,4,0,2,2,5,0,-7
1526903600635701,-11,4,-4,-3,-5,2,11,-2
1526903600648666,-23,-8,-1,-3,1,-2,-14,0
1526903600648666,-11,-10,-3,0,0,-7,-13,-15
1526903600655647,14,2,1,3,-1,-5,15,19
1526903600655647,35,9,2,-2,0,18,-18,16
1526903600671605,18,-6,-7,-6,-3,-23,2,-17
1526903600671605,-47,3,-1,-5,-3,-19,-14,-10
1526903600673600,1,0,-3,0,-2,3,0,1
1526903600673600,-28,-10,-3,-1,-4,-7,-3,-13
1526903600694543,-15,4,2,-4,4,18,9,8
1526903600694543,8,-5,-5,2,-1,-1,-6,-8
1526903600696539,-3,6,0,-1,0,2,5,12
1526903600696539,-37,-4,-1,-2,2,3,0,-11
1526903600708506,-24,5,1,0,-3,-5,-7,-2
1526903600708506,43,-7,0,2,3,12,15,15
1526903600715487,-32,2,-2,0,-1,-1,-9,-19
1526903600715487,26,10,2,0,0,2,6,11
1526903600732442,30,-8,2,-1,-2,1,-1,-12
1526903600732442,4,1,0,-1,-1,4,-2,19
1526903600733440,-11,-1,-1,0,0,-4,6,3
1526903600733440,16,-2,2,-1,0,-8,-3,5
1526903600754384,-29,3,-2,-2,-4,-10,-18,-31
1526903600754384,73,3,-3,1,0,-6,25,25
1526903600756378,-10,-5,0,0,2,12,-16,-10
1526903600756378,-41,3,-1,1,-2,-8,1,-17
1526903600768346,15,-11,-1,1,4,-2,7,11
1526903600768346,37,2,2,0,0,-4,-1,-3
1526903600777323,-1,6,-2,-5,-8,12,-9,-1
1526903600777323,8,-6,-3,-3,-4,14,2,1
1526903600792282,-18,3,1,2,-1,-13,-1,-15
1526903600792282,-16,8,-1,-4,1,10,-2,6
1526903600793281,15,-11,-1,1,0,0,8,4
1526903600793281,-53,-9,-3,2,2,-15,-26,-6
1526903600814223,-41,-1,-1,-3,-2,7,14,2
1526903600814223,78,8,2,2,1,1,-4,15
1526903600816218,-68,-2,-2,-3,-1,-8,4,-15
1526903600816218,59,2,-1,-3,-1,5,7,19
1526903600828186,3,-7,-3,1,-1,-4,0,-10
1526903600828186,-18,8,4,2,0,-1,-6,10
1526903600837162,-28,-2,-2,-2,-1,-5,-3,-23
1526903600837162,-15,-7,-4,-2,-4,-20,10,-5
1526903600852122,16,12,6,3,1,-5,-2,23
1526903600852122,-6,-6,-4,-2,-6,-11,-3,-11
1526903600854117,33,4,0,-3,1,-5,-4,9
1526903600854117,-25,-5,-1,2,2,0,10,-17
1526903600874063,18,8,-2,-3,-1,11,-19,0
1526903600874063,-84,-12,0,1,0,7,-6,-18
1526903600876058,16,1,2,2,1,-9,15,12
1526903600876058,36,1,2,0,2,33,-28,5
1526903600888026,7,-6,-4,-5,-4,4,14,12
1526903600888026,28,-2,-2,-2,-1,-1,-4,-42
1526903600897002,-19,3,-2,-2,0,6,5,27
1526903600897002,-9,4,0,-1,-1,-12,-3,-4
1526903600911962,17,-5,-1,0,1,0,2,-2
1526903600911962,13,7,2,4,0,4,3,16
1526903600913957,-24,-1,-4,-3,-1,-11,5,5
1526903600913957,29,-1,-2,-1,-1,0,-3,-28
1526903600934901,17,-2,0,-1,-1,-1,-1,15
1526903600934901,-57,-6,-6,-5,-2,-3,0,-23
1526903600935898,47,3,2,3,0,-1,2,10
1526903600935898,0,6,2,0,0,-3,5,9
1526903600947866,-4,-6,-2,-1,-1,1,-5,-1
1526903600947866,33,4,1,1,0,-1,5,9
1526903600956842,-17,-7,-1,-1,-3,7,-11,-1
1526903600956842,-11,-4,-4,-3,-4,-12,-9,-1
1526903600971802,-21,1,-2,-2,2,-2,18,-6
1526903600971802,10,-6,-4,-3,-3,-11,-17,6
1526903600973797,38,5,-1,1,0,4,-2,-5
1526903600973797,-3,-2,0,-2,1,-2,11,17
1526903600994740,-33,-2,-3,-3,-5,-3,-2,-15
1526903600994740,36,-2,5,2,1,2,6,50
1526903600995738,-9,-3,-6,4,-4,-7,-5,-27
1526903600995738,-34,-5,-4,-2,0,4,0,2
1526903601007706,56,-3,-2,1,-1,-4,3,-3
1526903601007706,1,3,2,-6,1,5,-4,12
1526903601017680,-1,-1,1,-4,-4,-6,-2,-11
1526903601017680,-18,-2,0,-1,-1,-3,0,8
1526903601031642,-1,0,1,5,0,-2,-6,2
1526903601031642,8,-8,-5,-1,-2,8,-4,-10
1526903601033637,25,2,1,-1,-1,6,10,15
1526903601033637,-54,-6,-4,-1,-4,-4,-3,-14
1526903601054581,7,7,1,-4,-2,8,-7,10
1526903601054581,7,-7,-2,-2,3,-7,2,1
1526903601056576,12,1,1,5,1,-9,2,3
1526903601056576,2,-1,0,-2,0,42,6,16
1526903601068544,-4,-2,2,-1,-3,-1,-4,7
1526903601068544,-31,1,0,-2,-2,-10,-2,-15
1526903601077520,-4,0,0,-3,-1,-3,1,-2
1526903601077520,35,-1,1,1,0,-10,-6,15
1526903601092479,-17,-9,-3,-4,0,-1,-2,-38
1526903601092479,-22,3,-4,-5,0,6,-3,-18
1526903601093477,29,2,1,0,0,-1,11,2
1526903601093477,-1,-6,-2,-2,1,-7,-19,-14
1526903601114421,8,3,2,4,1,-3,-3,7
1526903601114421,-66,-9,-7,-3,-3,-4,2,-44
1526903601116415,2,7,0,-3,1,0,-3,-12
1526903601116415,40,-4,-1,-1,-2,3,14,23
1526903601128383,-53,-4,-3,-9,-1,-3,1,2
1526903601128383,26,2,0,12,1,1,-4,7
1526903601137360,-25,1,1,0,1,5,-2,3
1526903601137360,39,0,0,0,-4,-17,7,0
1526903601152319,-31,-6,-5,-3,-1,-2,-11,-8
1526903601152319,5,1,0,-3,1,2,-7,0
1526903601153317,-1,-7,-4,-6,-3,-8,-7,-3
1526903601153317,-31,8,5,-3,5,22,3,2
1526903601174261,-2,-8,-4,2,-2,-7,1,9
1526903601174261,26,13,0,-19,-7,-1,11,0
1526903601176256,28,-8,-8,-5,4,-10,-15,-7
1526903601176256,4,-10,-2,-11,-7,-33,-10,10
1526903601188223,-4,7,5,41,5,50,15,-4
1526903601188223,2,-4,1,-3,-3,1,8,9
1526903601197199,-2,4,-1,-7,-2,-2,-10,12
1526903601197199,33,6,-1,-6,-1,-12,4,-8
1526903601212159,-34,-1,-1,-11,-3,-3,-9,-20
1526903601212159,-32,-3,1,2,1,-11,-17,8
1526903601213157,-5,-3,1,0,-2,16,10,24
1526903601213157,-23,-6,-4,4,-1,0,3,-58
1526903601234101,33,-2,-3,-7,-4,-10,-12,22
1526903601234101,-3,1,1,-1,2,6,2,-1
1526903601236095,27,-1,0,7,1,1,-6,-7
1526903601236095,-14,6,-1,5,1,1,2,3
1526903601248063,10,3,-1,-9,1,-8,11,15
1526903601248063,-14,-7,-2,-3,-5,-20,-4,-11
1526903601257039,-31,-4,-5,-7,-6,2,-8,-17
1526903601257039,3,-1,2,-13,-2,-5,-10,17
1526903601271999,-24,4,3,25,10,5,10,-11
1526903601271999,-56,2,-1,1,0,7,-7,-4
1526903601273994,-27,-3,1,2,-3,-6,9,2
1526903601273994,5,-2,-4,-13,-6,-6,-4,-9
1526903601294938,-12,-8,-1,-20,-1,-6,-4,6
1526903601294938,-36,0,5,36,3,-6,7,5
1526903601295936,51,-4,0,-2,0,12,4,-11
1526903601295936,-29,1,-4,-2,1,-3,-6,-1
1526903601307903,8,-1,0,-4,4,-18,4,4
1526903601307903,21,4,0,14,1,11,5,4
1526903601316880,-37,2,0,-2,-3,-8,-12,5
1526903601316880,-17,-4,3,13,3,1,11,-8
1526903601330842,41,3,-1,-15,-4,-6,4,6
1526903601330842,14,-5,-6,-20,-5,-15,2,-2
1526903601337823,21,-3,0,-7,1,-6,-3,-3
1526903601337823,-52,0,0,15,3,-4,-9,-4
1526903601354778,6,1,2,5,-1,-3,-10,1
1526903601354778,75,-3,0,-7,-4,12,8,15
1526903601355775,12,3,-5,-22,2,-9,-6,-4
1526903601355775,13,-3,2,28,-2,15,8,-7
1526903601367743,30,0,3,0,1,-12,-2,4
1526903601367743,-16,1,-2,0,2,17,-3,5
1526903601377717,-21,-1,-2,-3,-1,-16,14,0
1526903601377717,45,-3,-2,-15,-3,1,-7,11
1526903601391679,-42,-4,-3,-4,-7,0,-22,-35
1526903601391679,63,-2,2,22,7,-8,-10,-4
1526903601397663,-24,4,2,2,0,14,17,51
1526903601397663,10,-10,-4,3,0,-27,-4,-27
1526903601414618,-39,-9,-8,-10,-9,45,3,-5
1526903601414618,3,6,2,-10,-4,-2,2,7
1526903601416613,25,5,-2,12,-1,-1,-13,-11
1526903601416613,-2,3,-1,-5,-2,0,-3,17
1526903601436559,-2,1,1,-13,5,-7,8,3
1526903601436559,40,-5,1,10,-1,9,-5,8
1526903601438554,-42,-3,-1,4,2,-6,-2,-21
1526903601438554,6,5,1,0,-1,8,7,1
1526903601451519,11,-2,-1,-5,-3,-11,-3,-4
1526903601451519,-2,5,-2,-12,-2,2,12,13
1526903601458500,-44,-7,-3,-5,-6,0,-2,-10
1526903601458500,4,-8,-5,3,3,-1,-15,8
1526903601474458,41,3,1,4,9,2,17,7
1526903601474458,-61,-1,0,-5,-2,-3,-18,2
1526903601476453,33,-6,-4,2,-3,4,8,-5
1526903601476453,-16,6,3,-7,-2,-1,4,0
1526903601497397,48,-1,1,4,-3,1,0,16
1526903601497397,4,0,-3,-15,3,-2,-5,-15
1526903601498394,9,0,-1,20,-2,-22,1,7
1526903601498394,-51,-1,-5,-4,-1,25,9,-26
1526903601511359,-3,-5,-4,3,-2,-10,-7,-8
1526903601511359,-25,-4,0,-4,-4,-4,17,-1
1526903601518340,27,1,1,-5,1,-11,-8,3
1526903601518340,-1,-4,1,-1,-2,30,-13,13
1526903601534298,26,6,0,3,-4,-13,-5,-3
1526903601534298,30,1,-2,-8,-3,-8,2,-1
1526903601536293,-9,1,-2,9,-1,12,-3,-8
1526903601536293,-11,1,2,8,3,-2,4,-21
1526903601557236,-32,-4,-2,-3,-1,6,2,0
1526903601557236,43,5,1,0,-4,2,2,6
1526903601558234,-9,-5,-3,-8,-1,-6,-8,-5
1526903601558234,30,2,-3,-17,-3,-3,1,-4
1526903601571199,-36,0,5,15,0,-12,-3,-14
1526903601571199,-38,4,1,8,5,-10,5,8
1526903601578180,20,0,-3,0,-2,25,4,6
1526903601578180,39,-5,-3,-3,-1,-16,-14,-5
1526903601594137,-33,-4,-1,-12,0,8,0,1
1526903601594137,-13,-1,-2,0,2,1,-3,5
1526903601596133,11,-5,-2,-5,-6,-5,1,-2
1526903601596133,40,3,1,-2,0,-2,14,27
1526903601617076,21,0,-2,2,-2,-1,-6,2
1526903601617076,-76,-2,-1,1,-2,3,-17,-34
1526903601619071,24,-7,-2,-2,1,13,-2,-11
1526903601619071,38,1,0,0,-2,-27,8,9
