timestamp,emg1,emg2,emg3,emg4,emg5,emg6,emg7,emg8
1526903506519401,-36,-4,-14,-12,-4,-3,-7,-24
1526903506519401,27,-6,-10,-5,-4,-3,7,39
1526903506520398,27,8,5,4,1,-2,-2,-21
1526903506520398,-15,-6,3,2,0,1,-4,10
1526903506524387,43,11,9,4,7,6,7,33
1526903506524387,-77,10,-14,-8,-3,4,2,-60
1526903506527379,7,14,-4,-6,-7,-2,-2,-5
1526903506527379,5,-17,-1,-4,0,-5,-16,8
1526903506529374,8,1,0,14,-1,-6,11,-10
1526903506529374,-11,16,2,-2,0,1,-2,-7
1526903506539347,-30,12,2,6,-2,-2,1,18
1526903506539347,-36,-21,-4,5,-2,0,-11,-42
1526903506554307,11,-5,0,15,4,5,-1,11
1526903506554307,24,23,1,-38,-8,-14,13,5
1526903506560291,-81,-25,-15,-41,-20,-15,-12,-25
1526903506560291,0,-3,18,70,10,30,-2,3
1526903506568270,13,3,-4,-4,-1,6,22,10
1526903506568270,23,10,-3,-10,3,1,9,-9
1526903506591208,30,-1,-4,-18,-5,3,-13,5
1526903506591208,-28,-9,0,-3,-3,-32,-3,-5
1526903506593203,46,11,4,-1,2,14,2,4
1526903506593203,6,-8,3,13,2,7,-3,42
1526903506638086,12,6,11,21,10,39,3,23
1526903506638086,-4,5,-14,-5,-4,0,-2,-21
1526903506639080,-16,-1,-3,-9,-4,1,2,-2
1526903506639080,-5,-10,4,13,4,-4,-4,-7
1526903506640078,8,5,2,-18,-6,-7,0,19
1526903506640078,-15,-7,-7,7,8,1,0,5
1526903506643070,18,11,1,14,7,1,2,6
1526903506643070,-20,-8,6,10,2,2,-4,-19
1526903506650051,-12,-11,-4,-7,-3,-8,-8,-30
1526903506650051,15,12,-3,-12,-2,4,6,14
1526903506657032,-7,-4,-6,-7,-8,-4,2,10
1526903506657032,-5,-7,4,-4,0,3,-6,-34
1526903506666009,5,-9,-1,16,3,-3,-2,14
1526903506666009,1,6,-4,-12,-6,-7,2,-1
1526903506679971,-2,0,0,5,-1,-10,-3,-9
1526903506679971,16,-43,-3,1,-4,5,1,13
1526903506686952,-13,69,11,-7,2,4,-1,-3
1526903506686952,-38,-52,-20,-7,-2,2,0,-34
1526903506710888,-9,63,16,4,1,9,7,4
1526903506710888,5,-9,6,-1,-3,-4,2,14
1526903506712883,16,-36,-10,-3,4,-5,-5,3
1526903506712883,4,52,12,6,-3,1,-4,-1
1526903506724851,-11,-5,0,-1,3,-2,3,19
1526903506724851,-60,-20,-10,-3,-8,-1,0,-9
1526903506731832,-33,4,-2,-1,4,3,2,6
1526903506731832,55,8,0,0,4,3,4,-1
1526903506748787,-25,-15,-9,-5,-4,-2,-8,-24
1526903506748787,53,19,12,9,3,-2,1,37
1526903506749784,9,-3,1,2,-2,-4,-1,-5
1526903506749784,-39,-18,0,-2,-2,4,10,31
1526903506770728,2,5,-10,-11,-6,-6,-8,-20
1526903506770728,-9,3,1,5,4,3,-3,6
1526903506772723,29,6,2,4,-2,-1,-1,2
1526903506772723,-21,-2,0,-10,1,-1,6,25
1526903506785688,21,-15,-8,-20,-14,-7,-8,-27
1526903506785688,4,11,5,12,6,8,9,18
1526903506791672,-24,-3,-3,-9,-6,1,-11,-38
1526903506791672,16,2,-5,-13,-5,-22,-9,5
1526903506808627,-19,-4,9,38,3,6,9,10
1526903506808627,60,-13,-5,-16,2,-2,-3,-5
1526903506810621,22,6,-3,-43,-12,44,-15,-5
1526903506810621,-8,2,-4,14,-9,-15,24,9
1526903506830568,6,-6,10,77,25,-19,13,8
1526903506830568,-83,9,2,10,-9,-1,-6,-22
1526903506832563,50,-19,-3,-13,-8,-28,-20,-12
1526903506832563,15,11,-5,-15,-2,59,10,5
1526903506845528,13,-2,-1,-9,2,-6,21,-9
1526903506845528,1,15,3,13,1,-17,-57,4
1526903506852510,-17,-27,-4,-14,-3,-5,18,10
1526903506852510,-48,6,0,10,1,-13,-10,-28
1526903506868467,17,-4,-1,-14,3,10,-3,20
1526903506868467,31,9,1,-7,-3,12,10,0
1526903506870462,-25,-8,-3,-2,3,-11,3,0
1526903506870462,31,11,5,4,6,-4,-7,16
1526903506891405,-32,-14,-9,-16,-8,3,-20,-40
1526903506891405,29,-1,-2,0,3,-3,7,-3
1526903506892403,-62,-4,-1,21,5,-5,7,-1
1526903506892403,18,2,2,7,6,-2,4,20
1526903506905368,8,4,-4,-21,-10,5,-2,5
1526903506905368,9,-9,-2,-10,-3,-4,6,7
1526903506912349,-7,-4,3,20,5,-5,1,-2
1526903506912349,21,-57,-22,-6,-5,-3,-8,4
1526903506928307,-12,89,39,-4,4,-4,-7,-3
1526903506928307,3,-21,-11,-5,-5,15,5,0
1526903506930302,9,5,-3,7,8,13,9,13
1526903506930302,4,-4,-5,-7,-6,-6,-2,-10
1526903506951245,-28,-39,-13,-4,-10,-12,-9,4
1526903506951245,27,8,5,4,6,-7,5,8
1526903506952243,-16,23,10,4,-6,5,9,4
1526903506952243,-4,-9,-16,-14,-7,-6,-15,-26
1526903506965208,-11,-2,-3,-2,-1,5,13,32
1526903506965208,18,-2,1,0,2,-4,-3,9
1526903506972189,8,-13,-10,-3,-1,-10,-3,-13
1526903506972189,44,30,11,6,6,-1,-2,-2
1526903506988147,45,-3,-3,-3,0,8,6,27
1526903506988147,-61,-10,-7,-7,-3,-5,-5,-44
1526903506990142,-7,3,-3,4,1,-5,7,-5
1526903506990142,-52,9,5,0,-8,-5,-6,-7
1526903507011085,46,-15,-5,-8,3,1,-2,4
1526903507011085,-46,7,1,-4,1,1,5,12
1526903507013081,23,15,4,7,-7,-4,0,2
1526903507013081,-22,-4,1,0,0,5,8,-26
1526903507025048,32,-4,-12,-24,-4,-1,-14,-4
1526903507025048,27,-15,-1,16,5,0,6,5
1526903507034025,-15,7,-2,-4,-3,-2,3,20
1526903507034025,1,6,7,-17,4,2,-2,3
1526903507048985,-5,-12,-7,5,5,24,-17,-7
1526903507048985,-35,-2,-3,-12,-2,-11,-17,-14
1526903507049982,45,-1,-3,-10,-6,31,13,-3
1526903507049982,0,19,8,30,10,-6,-4,-7
1526903507070925,-54,-28,-4,-30,-4,21,16,-2
1526903507070925,10,13,-3,6,-5,-2,-41,-10
1526903507072920,-52,-19,-1,10,2,10,19,1
1526903507072920,10,-4,-4,-26,-3,-61,-31,9
1526903507084888,-20,-2,3,35,3,31,7,-22
1526903507084888,-5,-10,-3,-20,-4,-4,7,-11
1526903507093864,30,-10,2,11,4,13,-3,-7
1526903507093864,-14,-6,3,-1,-3,10,10,10
1526903507108824,3,-15,4,6,2,-33,-1,15
1526903507108824,16,-13,-4,-2,-4,7,14,17
1526903507109821,-63,-6,-5,-11,-4,-23,-19,-25
1526903507109821,39,-11,-1,10,-2,7,2,-4
1526903507130765,16,-11,-2,-4,-2,-5,-7,13
1526903507130765,26,5,2,1,1,3,10,-7
1526903507132760,42,-14,-4,-3,-2,-10,-10,10
1526903507132760,-11,1,-3,3,-3,7,1,6
1526903507144728,20,0,5,3,-2,-7,6,10
1526903507144728,-53,-5,-3,-3,-3,-3,0,-40
1526903507153705,12,-17,-7,1,0,-18,-7,-1
1526903507153705,-17,26,5,1,-2,11,7,9
1526903507168664,2,25,5,-1,0,-17,-7,-12
1526903507168664,7,-2,-5,-6,0,5,4,5
1526903507169662,-9,-63,-13,0,-9,-6,-2,14
1526903507169662,-2,64,15,4,10,14,8,-22
1526903507190605,-14,-17,-17,-14,2,-2,-1,10
1526903507190605,8,-3,6,3,-7,-7,-3,16
1526903507192600,-4,18,-4,-5,-1,-2,3,8
1526903507192600,36,-19,0,3,-6,-2,-4,3
1526903507213544,-7,0,1,3,-3,-12,-4,2
1526903507213544,-37,-5,-1,-1,3,-1,3,6
1526903507215539,4,27,5,-2,0,-4,-2,-18
1526903507215539,-21,-30,-10,-2,-3,-3,-6,-6
1526903507227507,15,5,-1,1,1,3,2,-6
1526903507227507,-31,2,-1,4,3,2,2,-17
1526903507234488,-2,16,6,-4,1,-2,-5,-16
1526903507234488,-56,-5,-7,-21,-5,-4,-5,-22
1526903507251443,4,-14,0,27,2,-1,0,-7
1526903507251443,14,14,6,-2,1,1,5,18
1526903507252440,4,13,3,-3,1,0,0,-14
1526903507252440,-37,-29,-16,-11,-4,6,6,21
1526903507264408,12,-2,0,-22,-9,-4,-5,21
1526903507264408,-14,15,4,10,-1,-3,-5,-35
1526903507273384,20,0,-2,7,2,-4,4,10
1526903507273384,22,-4,-1,-19,2,1,-1,13
1526903507288344,-30,-10,6,4,0,-3,-10,-8
1526903507288344,39,25,10,49,3,-1,0,18
1526903507290339,-39,-20,-13,-31,-6,-39,10,4
1526903507290339,14,-10,-3,2,1,50,4,12
1526903507311282,50,9,-2,-22,-6,7,8,5
1526903507311282,-14,0,-4,-8,1,-8,-21,-5
1526903507312280,-4,6,1,1,8,19,-10,-2
1526903507312280,85,0,-4,-1,-18,-80,8,6
1526903507324248,-7,2,5,-12,3,0,-58,0
1526903507324248,-8,-4,-3,10,9,31,69,14
1526903507333224,-59,-6,-3,2,-6,3,-6,-1
1526903507333224,-3,4,0,-6,2,14,2,-4
1526903507349181,3,2,-1,10,0,-5,6,-14
1526903507349181,12,-3,-3,-11,-6,-20,-13,-2
1526903507350182,-15,1,2,4,7,13,1,5
1526903507350182,-12,0,2,10,5,-3,-3,-7
1526903507371123,-43,-6,-5,-6,-7,-9,-1,-25
1526903507371123,12,-3,5,6,1,2,-8,5
1526903507373118,38,10,1,10,2,-1,10,4
1526903507373118,-18,-2,0,3,-1,5,-9,-2
1526903507385086,12,-2,-4,0,-3,0,7,-16
1526903507385086,8,-7,0,-17,-2,2,2,29
1526903507394062,0,-28,-13,-5,-4,-6,-13,-8
1526903507394062,11,49,17,18,3,-10,-10,-23
1526903507408024,-35,2,-4,1,-9,3,6,-23
1526903507408024,-6,-19,-18,-23,-6,3,2,7
1526903507415005,11,-2,1,3,-6,-7,-8,-20
1526903507415005,-9,-61,-13,7,-1,-3,-2,3
1526903507430962,5,67,31,14,21,9,14,8
1526903507430962,0,6,-7,-16,-4,3,-9,-10
1526903507432958,48,16,2,3,-4,3,5,29
1526903507432958,-31,-32,-7,-4,0,5,6,-20
1526903507453901,6,-11,-2,6,-9,-11,-1,22
1526903507453901,18,0,4,3,1,-6,-1,16
1526903507454899,-36,17,2,-4,2,3,1,-10
1526903507454899,34,17,10,12,1,2,7,27
1526903507468862,-22,-17,-7,2,2,-2,0,-1
1526903507468862,-42,5,0,-3,1,3,-4,-30
1526903507469859,43,2,2,-3,2,1,9,35
1526903507469859,-10,7,3,-1,1,4,3,2
1526903507490804,-30,-17,-12,-13,-9,-5,-10,-17
1526903507490804,12,-6,-2,-20,1,-3,-4,8
1526903507492798,-37,4,8,35,16,-1,-3,-3
1526903507492798,24,11,2,17,4,6,4,14
1526903507513741,26,-6,-1,-16,-3,4,15,3
1526903507513741,-60,-16,-9,-34,-8,-13,-8,-4
1526903507514739,5,-3,-3,-4,-2,-21,-17,-7
1526903507514739,10,12,1,32,1,19,17,7
1526903507528701,23,-9,6,44,9,6,-10,37
1526903507528701,110,11,-2,-41,-18,-27,-19,16
1526903507529699,-32,-9,-5,11,-7,13,45,-24
1526903507529699,-12,-2,-5,-25,-5,-23,-28,7
1526903507550646,-5,-6,-2,-10,-1,15,7,-28
1526903507550646,-1,10,7,3,-1,-30,9,10
1526903507552638,26,-7,-5,14,7,50,-19,-9
1526903507552638,-29,14,3,0,-4,-39,9,9
1526903507573581,-18,-8,-7,-6,-1,-14,-3,-37
1526903507573581,25,-2,4,15,5,20,1,0
1526903507575576,6,5,-3,-21,-11,-9,-6,6
1526903507575576,-19,5,-1,-6,0,12,1,2
1526903507587544,-9,-11,-3,-4,3,3,-4,-15
1526903507587544,-53,-11,-3,12,1,-1,12,-15
1526903507594525,-4,10,4,-3,-1,-9,-5,29
1526903507594525,9,-2,-7,-10,3,4,-16,-47
1526903507609485,1,-1,4,-3,-2,-8,10,2
1526903507609485,-18,-2,-4,17,4,14,-3,-4
1526903507618461,15,7,0,-7,1,-8,-2,5
1526903507618461,-15,-6,1,-5,-1,4,-5,0
1526903507633423,1,-16,-3,2,-6,-2,1,13
1526903507633423,-2,9,1,6,5,0,-5,-14
1526903507635416,10,3,-3,-11,9,18,2,8
1526903507635416,-1,-6,-8,-12,-18,-10,-7,-22
1526903507656360,21,-5,11,11,13,-4,5,11
1526903507656360,14,-19,-5,6,8,1,-4,6
1526903507657357,-10,5,-4,-17,-18,2,7,-9
1526903507657357,24,8,-6,-3,-2,6,2,13
1526903507669325,2,-12,2,-1,-2,5,6,12
1526903507669325,-16,5,3,6,0,-5,-6,-36
1526903507678301,17,8,5,2,8,-11,-5,-12
1526903507678301,-4,-33,-5,-1,3,5,4,3
1526903507693261,12,19,-2,-2,-13,-6,-10,-21
1526903507693261,-73,-13,-9,-16,-3,-3,-5,-74
1526903507699245,-2,6,-2,5,-1,-9,-3,28
1526903507699245,-25,9,8,36,3,2,0,7
1526903507716200,25,8,1,-10,8,0,5,21
1526903507716200,35,1,-1,12,-6,10,-7,1
1526903507717198,-40,-18,-5,-19,-4,-3,3,4
1526903507717198,-56,8,-1,-11,-1,-5,3,-45
1526903507730162,-41,-5,-5,-5,-8,-1,-10,68
1526903507730162,27,15,6,8,-1,7,8,52
1526903507739138,-26,7,0,4,0,-7,-7,-15
1526903507739138,48,-3,-2,-24,-6,0,1,24
1526903507753101,0,-10,-5,-24,5,0,1,-30
1526903507753101,-5,1,-2,58,2,2,-2,1
1526903507755096,25,10,5,-1,1,-4,4,27
1526903507755096,-26,5,2,14,11,-9,4,-7
1526903507776040,21,-1,-8,-11,-3,28,-23,-14
1526903507776040,-5,-5,-4,-32,-5,10,6,12
1526903507778035,48,-7,-1,-2,-1,-3,18,29
1526903507778035,-21,-1,-8,-19,-20,-58,-24,-33
1526903507798979,21,19,5,46,0,-20,5,0
1526903507798979,-9,-13,1,-12,-1,-4,0,25
1526903507799979,-1,2,-7,0,-1,3,-15,-14
1526903507799979,3,-10,1,-27,-4,7,-1,-18
1526903507811943,12,4,1,6,-2,-4,5,22
1526903507811943,-3,5,-2,0,-1,-3,-3,-16
1526903507820920,-4,-2,0,-1,-2,-13,-3,-2
1526903507820920,26,-2,1,15,3,7,-10,12
1526903507835880,-10,-11,-6,-10,1,6,2,-23
1526903507835880,14,12,0,4,2,1,3,15
1526903507837875,-7,-15,-6,-8,-8,-3,-7,-16
1526903507837875,10,3,6,4,0,15,8,21
1526903507858818,-20,-9,1,11,5,-2,7,-3
1526903507858818,7,6,-5,-18,-10,-6,-6,10
1526903507859816,-10,5,-2,2,0,-3,-10,-20
1526903507859816,7,-1,-7,1,-1,6,6,8
1526903507871784,17,-1,9,5,6,-12,-2,11
1526903507871784,-5,42,-7,-12,-3,2,-5,-19
1526903507880760,-1,-11,4,-1,0,8,9,4
1526903507880760,24,-25,0,11,-1,4,0,13
1526903507895720,3,-10,-8,-9,2,-2,-4,3
1526903507895720,-21,-11,5,5,1,1,8,8
1526903507897714,23,10,-2,3,-3,-2,-4,-1
1526903507897714,-26,8,0,-6,0,-1,-4,-8
1526903507918659,14,-4,7,7,-2,-2,6,16
1526903507918659,9,-3,5,6,12,15,15,75
1526903507919656,-75,-1,-19,-18,-12,-16,-25,-77
1526903507919656,-22,-8,4,8,5,8,3,21
1526903507931624,3,7,-3,-2,-5,-1,-3,-8
1526903507931624,-17,-9,4,1,1,-3,5,-8
1526903507941597,34,18,5,5,1,-2,1,4
1526903507941597,-10,-17,-4,-13,0,11,4,1
1526903507955560,-4,0,-5,-9,-6,-2,-2,-8
1526903507955560,1,-1,4,22,10,-4,-2,-8
1526903507957555,18,3,6,25,6,0,7,13
1526903507957555,-35,-1,-7,-22,-1,-2,-10,-45
1526903507978499,10,-1,-3,3,-4,1,1,-13
1526903507978499,21,-11,-1,-20,-10,-7,-1,5
1526903507980493,-42,4,-4,-30,8,-4,-4,3
1526903507980493,58,4,5,40,0,1,2,24
1526903507993459,1,6,2,-3,2,1,-5,-5
1526903507993459,-10,-9,-7,-9,-8,-5,-4,-27
1526903507995453,-1,-1,0,-3,3,7,11,13
1526903507995453,-9,6,-5,-37,-8,-16,-9,0
1526903508016399,-32,-7,3,-5,-3,15,-2,-9
1526903508016399,-1,-12,-5,23,2,5,-14,-65
1526903508017395,42,-3,-8,-23,-12,-30,-20,17
1526903508017395,-7,2,7,5,4,20,15,10
1526903508038338,-10,-2,5,21,7,-11,3,4
1526903508038338,6,11,-1,-23,-1,7,4,10
1526903508040333,-27,-8,-2,12,-7,9,-12,-29
1526903508040333,62,10,5,22,6,-31,-5,11
1526903508052301,-94,-15,-7,-10,-4,16,2,-19
1526903508052301,89,9,3,-12,3,0,-3,12
1526903508061277,-2,-9,-8,-26,-18,1,4,5
1526903508061277,10,12,5,20,7,3,1,10
1526903508075239,13,1,-3,-1,0,3,10,2
1526903508075239,-20,-10,-7,-1,-5,-9,-7,6
1526903508083218,-11,-2,-8,-3,-3,-7,-9,-35
1526903508083218,-18,-7,-1,-15,-6,12,4,3
1526903508098178,7,-1,1,0,-3,-7,-3,15
1526903508098178,-18,-4,-5,-1,-7,-10,-7,-24
1526903508100173,7,6,4,14,7,5,12,18
1526903508100173,-14,1,1,2,2,12,3,-2
1526903508112141,34,-29,-10,2,5,-7,-9,24
1526903508112141,-13,34,5,3,-20,-17,-8,-45
1526903508121118,-15,35,1,-5,20,22,9,-11
1526903508121118,-5,-8,4,7,-11,-5,-3,3
1526903508136077,19,14,3,-2,6,1,5,19
1526903508136077,-9,-29,-16,-11,1,5,-2,-5
1526903508138072,-6,-16,1,8,-7,-8,-5,-11
1526903508138072,-10,19,-8,-6,-2,-4,-12,-26
1526903508158018,23,-1,2,-2,-5,-8,0,-5
1526903508158018,-26,-9,0,4,2,-1,3,15
1526903508160013,15,5,3,7,1,3,4,10
1526903508160013,-8,-10,-4,-3,3,5,6,13
1526903508171981,-41,12,4,-5,-7,-2,-4,-47
1526903508171981,7,-10,-5,-1,3,3,5,25
1526903508180958,14,-2,0,3,-5,-2,2,22
1526903508180958,24,-4,-2,-7,-2,-1,-5,-25
1526903508195917,-6,4,-3,1,-1,-3,0,6
1526903508195917,-20,4,4,2,-1,1,5,21
1526903508197912,31,-12,4,14,6,3,9,41
1526903508197912,27,8,-2,-5,-2,8,4,-4
1526903508218856,-5,-5,-9,-12,-8,-6,-15,-38
1526903508218856,20,5,2,-16,1,-3,-2,3
1526903508219853,-16,-11,1,9,3,3,10,25
1526903508219853,26,1,1,-5,-4,1,1,15
1526903508232818,-22,-10,-4,-4,4,1,0,1
1526903508232818,0,6,6,67,21,-1,4,2
1526903508239799,5,-1,-5,-34,-6,6,-14,-13
1526903508239799,-15,0,-1,-3,3,6,15,11
1526903508255757,7,0,-3,8,-10,-10,-3,-10
1526903508255757,29,3,3,-4,-6,-12,3,23
1526903508257751,-64,2,-3,26,5,-4,-31,-34
1526903508257751,-14,-5,-3,-4,-4,40,-5,-13
1526903508278695,11,-3,-4,-11,-2,7,1,2
1526903508278695,-15,-7,-7,-12,-3,-3,-5,-5
1526903508279693,5,3,1,-2,-8,-10,3,-16
1526903508279693,21,-7,0,-2,-1,-17,-2,12
1526903508292659,16,9,6,1,1,4,1,18
1526903508292659,3,-2,-1,38,7,1,5,-10
1526903508301634,-27,-6,-3,-20,-4,-4,6,-3
1526903508301634,-3,-4,4,5,4,-4,2,0
1526903508315597,19,7,-2,-3,0,0,1,8
1526903508315597,-8,-1,-6,-24,-9,-1,-2,-31
1526903508317592,15,2,0,-3,-5,-2,9,18
1526903508317592,-12,5,5,20,7,-7,1,2
1526903508338535,-16,-8,1,-4,-3,-1,-5,0
1526903508338535,-12,2,-6,-21,-7,-1,-8,-6
1526903508340530,6,-3,0,7,-1,-1,3,-9
1526903508340530,-11,1,1,-2,-5,-7,-7,-13
1526903508361474,-2,-10,0,-3,9,-6,3,2
1526903508361474,-36,-2,-2,-16,-8,12,1,24
1526903508362472,32,0,2,6,2,4,2,5
1526903508362472,-6,6,5,2,-15,-16,4,1
1526903508376434,3,-14,-3,1,5,-8,-12,-26
1526903508376434,16,2,-3,-8,8,16,8,19
1526903508377432,-12,-15,-8,-4,-11,-5,-6,0
1526903508377432,8,-8,-4,-4,3,-3,-11,-17
1526903508398375,9,9,4,10,-7,-5,6,20
1526903508398375,4,-4,4,-2,8,-5,0,-2
1526903508400370,7,10,-1,-3,-1,3,5,17
1526903508400370,-24,-12,-6,-2,3,2,1,17
1526903508421314,-9,-10,-10,-10,-8,-8,-17,-45
1526903508421314,25,14,5,0,-3,0,3,12
1526903508422312,10,-2,-1,1,0,-5,-3,-13
1526903508422312,6,6,3,1,0,-3,4,17
1526903508435276,6,1,3,-8,1,17,13,24
1526903508435276,-30,-2,-3,-3,-2,-6,-6,-8
1526903508442258,39,14,2,-3,-5,-3,-2,26
1526903508442258,-21,-36,-13,-6,-4,-4,-11,-20
1526903508458215,-4,0,5,25,8,5,6,16
1526903508458215,-7,2,1,9,0,-4,1,-14
1526903508460210,-14,3,0,-4,8,2,5,11
1526903508460210,28,6,0,-11,-9,4,-3,14
1526903508481154,-42,3,-8,-36,-12,-4,6,-22
1526903508481154,-20,-14,-6,-13,-22,-20,7,14
1526903508483149,3,2,1,30,10,8,-7,-20
1526903508483149,-38,-7,3,0,9,-1,3,15
1526903508495117,34,8,-7,-8,-16,18,-18,6
1526903508495117,0,12,6,0,9,2,34,-3
1526903508502098,-65,-22,-11,-25,-7,23,-6,-2
1526903508502098,3,13,4,5,-6,12,13,2
1526903508518055,28,7,6,25,8,-23,-9,16
1526903508518055,-57,-4,-3,-10,0,2,-6,6
1526903508520050,103,3,2,2,2,4,2,-6
1526903508520050,-28,2,-3,11,2,-8,-7,-11
1526903508540994,-6,-4,7,2,0,6,12,25
1526903508540994,15,7,-7,-12,-3,-2,-17,-11
1526903508542989,-16,2,3,7,-1,-8,4,-6
1526903508542989,-20,-9,-5,-4,5,1,-8,-13
1526903508555954,50,4,0,-3,1,-5,3,9
1526903508555954,-15,-6,-2,-3,-1,3,-7,-18
1526903508557949,6,4,1,-1,-8,-8,-1,-7
1526903508557949,12,0,-2,11,5,-5,-1,-7
1526903508578892,-31,-1,3,6,5,4,3,-3
1526903508578892,25,1,0,2,0,1,-2,19
1526903508579890,-40,-2,-3,-9,-3,-9,0,-7
1526903508579890,24,-3,3,4,1,-1,-1,8
1526903508591858,-21,-6,-10,1,-1,-4,-9,-26
1526903508591858,32,-10,-2,-2,-7,5,4,21
1526903508600834,-17,2,-7,-7,1,-7,-1,-6
1526903508600834,24,5,0,5,-12,-12,-6,6
1526903508615794,1,33,23,3,10,13,11,1
1526903508615794,14,-25,-16,-13,13,9,-4,-22
1526903508617789,9,16,0,7,-12,-5,-5,0
1526903508617789,1,-39,-13,-11,0,0,1,0
1526903508638733,3,-1,0,3,-7,-11,-4,3
1526903508638733,58,15,10,15,5,0,2,12
1526903508639730,-9,-27,0,4,5,-2,8,30
1526903508639730,11,19,0,-5,-2,-5,-9,-2
1526903508660674,8,-2,3,-2,-2,0,3,8
1526903508660674,-34,10,2,4,0,2,-2,4
1526903508662668,-12,-18,-8,-7,1,-3,-2,-28
1526903508662668,22,18,9,-1,1,3,3,7
1526903508675634,-18,-6,1,1,6,4,3,25
1526903508675634,-22,-3,-13,-8,-11,-10,-20,-35
1526903508677629,-16,10,-4,-7,-3,-7,-14,-44
1526903508677629,-10,-1,5,1,3,4,7,4
1526903508698573,-22,-18,-5,3,1,1,1,-9
1526903508698573,4,11,-1,-29,-3,-3,-4,8
1526903508700567,14,-6,1,45,10,-2,5,19
1526903508700567,-18,7,0,-3,-1,-4,-6,-24
1526903508721511,27,-8,-7,-34,-11,-1,3,2
1526903508721511,-1,9,6,18,3,-1,3,10
1526903508722509,-7,0,-3,-21,-1,2,8,0
1526903508722509,5,-6,-5,-17,-4,3,5,8
1526903508735474,29,8,7,38,2,-22,-13,15
1526903508735474,2,-9,-6,-3,-7,47,-3,-6
1526903508743452,-10,-6,-2,-11,1,7,12,17
1526903508743452,19,4,-1,-7,-2,-4,-3,-17
1526903508758412,36,-2,-2,-2,-2,-2,-7,6
1526903508758412,13,-3,-4,-8,-3,-24,-10,-17
1526903508760407,-20,4,3,12,5,-6,15,6
1526903508760407,18,1,7,-3,0,17,-3,4
1526903508781351,-64,-6,-3,12,7,-4,11,-17
1526903508781351,37,0,-2,8,1,-16,-10,5
1526903508782349,31,5,-2,-15,-9,4,-3,-1
1526903508782349,-3,-12,-2,-7,-2,-10,-3,-2
1526903508796311,6,1,0,5,2,2,3,-8
1526903508796311,-28,1,1,6,-1,-3,2,4
1526903508797308,2,1,-1,-17,-5,-1,-1,18
1526903508797308,19,7,-2,13,1,-4,-8,-21
1526903508818253,-59,-12,-4,-8,-7,4,-5,-12
1526903508818253,-3,-2,5,12,4,5,15,-2
1526903508820247,17,11,-4,-5,-2,-6,-10,-2
1526903508820247,-15,-13,-2,5,4,-1,4,8
1526903508841191,-15,-13,-9,-19,-6,2,-10,-20
1526903508841191,9,-11,-8,-6,4,-23,0,4
1526903508842189,-22,71,28,13,-5,6,-5,0
1526903508842189,-24,-21,-4,1,4,14,7,-16
1526903508855154,36,-19,-18,-18,-14,1,5,23
1526903508855154,-30,-2,6,7,-2,-1,-2,-17
1526903508862135,7,-14,-3,7,5,-10,-9,-7
1526903508862135,3,-1,2,5,16,-7,-4,17
1526903508878092,12,9,4,-2,-9,5,-4,-7
1526903508878092,5,-3,-8,-11,-5,-1,-1,-4
1526903508880087,-26,-22,-7,-3,-4,0,4,-1
1526903508880087,-31,8,9,4,-1,1,8,10
1526903508901031,11,6,-1,0,5,-8,-11,-37
1526903508901031,34,6,3,7,0,2,6,40
1526903508903026,-16,-10,-3,-3,4,11,-1,-37
1526903508903026,8,-5,-5,-2,-8,-6,-5,18
1526903508914994,-21,8,1,2,1,-3,-5,-24
1526903508914994,-16,10,2,-3,-6,-1,-2,-15
1526903508923970,1,2,2,0,2,3,6,15
1526903508923970,-17,-2,-4,-12,0,4,2,-4
1526903508938930,6,-4,0,12,7,-2,-6,-3
1526903508938930,-2,9,1,1,-4,-1,4,15
1526903508939927,-6,-8,0,6,-2,-5,-1,10
1526903508939927,19,2,-3,10,-6,0,-11,-12
1526903508960871,-26,-1,-3,-9,2,-7,5,-5
1526903508960871,-17,-1,-1,-20,-8,-4,-13,3
1526903508962866,71,-1,-4,-18,1,-10,22,23
1526903508962866,-12,-6,-7,-8,-7,27,-18,1
1526903508975831,-10,5,19,77,21,8,29,22
1526903508975831,-38,-10,-10,-10,-2,-9,-7,-17
1526903508977826,53,-11,-5,-14,-7,17,-21,-23
1526903508977826,21,8,-2,-7,-1,-3,-14,-27
1526903508998770,-13,-7,-6,-32,-7,10,27,30
1526903508998770,-25,6,2,-2,3,-1,-1,-10
1526903508999767,56,-7,-7,-3,-3,8,4,8
1526903508999767,-16,-1,1,-11,-3,-11,-9,-6
1526903509020711,42,13,5,16,8,32,7,20
1526903509020711,-24,-5,-3,4,-3,-14,2,-8
1526903509022706,-20,-7,1,-1,2,-11,-6,6
1526903509022706,5,4,2,5,-2,-10,2,1
1526903509035671,14,-4,-5,-19,-6,-4,-5,0
1526903509035671,11,0,0,1,1,-1,2,-15
1526903509041655,2,-3,-4,9,0,-8,-2,5
1526903509041655,-16,6,3,9,4,5,10,16
1526903509058609,13,1,-1,-9,-6,-12,-12,-9
1526903509058609,-30,-8,-9,0,-3,-2,-9,-39
1526903509060604,-7,2,0,6,0,-3,-2,15
1526903509060604,4,0,4,4,3,-1,15,-1
1526903509080551,-4,-10,-7,-12,-5,-9,-11,0
1526903509080551,35,-23,-11,4,-5,-2,0,9
1526903509082546,-45,41,19,4,9,5,2,-8
1526903509082546,8,-31,-19,-9,-1,6,10,-1
1526903509095511,-16,35,13,4,0,-5,-7,2
1526903509095511,17,-22,-9,-6,4,16,5,4
1526903509102492,-29,-17,-5,1,-11,-21,-7,3
1526903509102492,-2,10,9,10,7,-8,2,-6
1526903509118449,-32,-30,-14,-20,-13,-5,-12,-14
1526903509118449,36,24,4,3,1,1,6,9
1526903509120444,-66,-1,-4,-3,2,1,0,-32
1526903509120444,27,0,2,-3,-8,-11,-7,7
1526903509141388,-25,-16,-6,-5,2,-2,-4,-22
1526903509141388,-44,22,10,2,0,-2,4,-28
1526903509142386,6,-8,-4,0,-2,0,2,24
1526903509142386,14,-9,1,4,-3,-4,-1,25
1526903509155351,-27,6,1,-1,0,-4,-3,-23
1526903509155351,4,14,4,-1,2,5,1,30
1526903509162332,1,-29,-14,-5,-2,5,4,-12
1526903509162332,17,10,5,-2,-4,-5,1,13
1526903509178289,49,8,-4,-13,-8,-7,-14,-4
1526903509178289,-10,-20,-2,2,4,3,5,21
1526903509180285,11,10,2,9,-2,1,-2,3
1526903509180285,-48,4,4,15,5,-3,6,-7
1526903509201228,19,-1,3,27,11,6,4,8
1526903509201228,4,3,-6,-10,-8,-8,-2,2
1526903509202226,-28,-3,-6,-23,-7,-7,-10,-31
1526903509202226,-60,-3,-2,3,5,-9,5,-18
1526903509214194,21,5,0,-19,-14,13,2,17
1526903509214194,-7,2,4,27,7,11,17,12
1526903509224167,1,3,3,-6,-3,-20,-14,11
1526903509224167,-49,6,-1,-16,-6,37,-25,-36
1526903509238130,16,-6,-3,-4,-2,-16,2,11
1526903509238130,-13,7,-1,3,1,-10,2,20
1526903509240125,36,4,-1,-14,-4,35,11,5
1526903509240125,6,-8,-1,-8,-5,-30,-3,7
1526903509261068,-32,-2,8,28,16,5,6,28
1526903509261068,23,-9,-5,-1,-4,-1,-14,-19
1526903509263063,32,4,6,19,10,-4,-1,30
1526903509263063,47,7,-1,-10,-1,-1,3,12
1526903509275031,19,-14,-7,-8,-4,4,0,5
1526903509275031,47,7,0,-22,-4,-12,-2,0
1526903509282012,-38,-4,-2,5,-3,-4,1,-15
1526903509282012,36,3,9,27,0,7,10,5
1526903509298969,3,-1,-7,-11,-4,-18,-7,-19
1526903509298969,-6,-2,3,32,6,6,-6,-25
1526903509299964,5,0,-9,-24,-5,-2,1,-7
1526903509299964,5,-5,-6,-4,-7,-4,-9,-20
1526903509320908,1,-10,0,-4,-1,-5,-5,-14
1526903509320908,-6,-8,-3,-12,-4,1,0,-2
1526903509322903,-12,44,10,15,3,6,5,18
1526903509322903,-2,-20,-10,-2,0,-7,2,3
1526903509334871,3,12,7,3,-1,2,2,14
1526903509334871,-17,-14,-5,-9,-8,-3,-3,-14
1526903509343847,7,-12,2,8,3,-3,6,1
1526903509343847,4,0,1,2,-4,-7,-9,-4
1526903509358807,-4,-5,-7,-8,2,-1,-2,-14
1526903509358807,-7,11,1,0,-11,0,7,25
1526903509359804,-22,-6,-4,-3,8,-2,-10,-20
1526903509359804,-14,-10,-5,-4,3,7,8,-8
1526903509381745,-2,-2,-2,0,-5,-5,-4,17
1526903509381745,-25,6,2,1,-2,-7,-2,7
1526903509382743,15,-3,3,6,0,-1,0,-15
1526903509382743,-8,-13,-4,-5,-2,-4,0,1
1526903509394711,-27,6,-4,-9,-4,-4,-5,0
1526903509394711,16,16,6,1,4,6,4,10
1526903509403687,1,-14,-1,-13,0,-4,3,35
1526903509403687,-35,-6,-3,21,-5,-10,-18,-37
1526903509417649,-6,11,10,39,8,20,25,26
1526903509417649,-15,2,-8,-27,-3,-2,-11,-39
1526903509424631,-61,1,-1,-2,-3,1,4,23
1526903509424631,42,-4,-2,-10,1,-1,-5,5
1526903509440588,8,3,-4,-42,-18,-12,8,-14
1526903509440588,19,-5,1,23,13,-6,-5,29
1526903509442583,2,-5,-10,-48,-36,-20,-10,-90
1526903509442583,27,11,11,58,20,26,-9,32
1526903509463527,-45,-9,-1,34,9,6,-20,-9
1526903509463527,21,22,6,-23,7,12,9,13
1526903509465522,29,-31,-10,-26,-17,-1,0,-4
1526903509465522,-42,-7,2,-11,4,37,35,26
1526903509478487,-21,4,-10,-11,-2,-38,-34,-60
1526903509478487,54,1,-1,4,-5,23,13,0
1526903509480482,-1,4,3,37,14,-23,-10,-12
1526903509480482,21,7,5,-2,-1,14,3,-6
1526903509501425,3,-5,-2,-5,2,15,9,22
1526903509501425,2,-8,-3,-7,-1,-10,-5,-21
1526903509502424,-10,-15,-10,-9,-3,5,-2,-20
1526903509502424,-11,8,3,-13,-4,-15,6,29
1526903509514391,6,2,-1,-3,-2,-2,-2,0
1526903509514391,-11,3,0,-8,-5,-16,-8,2
1526903509523367,42,-4,4,23,5,11,2,22
1526903509523367,12,8,1,-4,-1,-11,1,11
1526903509538327,9,8,5,0,4,-1,1,-6
1526903509538327,-40,-13,-8,-2,-6,6,-1,-5
1526903509540322,47,10,5,16,5,5,-1,18
1526903509540322,-63,-26,-9,-13,-3,-20,-11,-48
1526903509561266,18,27,2,-11,-5,-1,1,13
1526903509561266,11,1,-7,-4,-18,-14,-4,-5
1526903509562263,-8,-4,11,15,19,12,9,7
1526903509562263,33,8,-9,-18,-6,-4,-5,-2
1526903509574231,5,10,-6,2,-6,1,-6,-25
1526903509574231,-3,-8,2,6,-1,-9,-3,-8
1526903509583207,-41,-2,4,7,-18,-19,-10,-11
1526903509583207,16,8,0,-5,32,19,1,32
1526903509598167,-17,-23,-9,-8,-6,12,1,-18
1526903509598167,6,11,-4,-3,-5,-3,1,-10
1526903509605148,-19,-7,-7,-3,1,-5,-2,-54
1526903509605148,23,1,8,5,-7,-13,-2,21
1526903509621105,-21,-9,-2,-4,7,0,1,-19
1526903509621105,-10,0,-4,-10,-1,-2,-5,-55
1526903509623100,-12,-1,-2,10,-2,-4,-6,16
1526903509623100,-14,-9,0,1,-5,-9,-7,-13
1526903509643047,4,3,3,-13,3,2,6,6
1526903509643047,10,8,2,0,4,10,9,34
1526903509645042,1,0,5,14,5,6,3,-50
1526903509645042,1,-3,-9,-4,-11,-6,-4,-20
1526903509658007,7,-4,-6,10,-6,-6,-3,18
1526903509658007,12,-9,-3,6,10,-14,-9,0
1526903509664988,-1,5,5,4,14,17,19,59
1526903509664988,21,9,2,-12,-10,-4,-1,36
1526903509680945,81,10,2,0,-7,-21,-1,13
1526903509680945,-42,-31,-9,-21,0,14,10,-3
1526903509682940,-36,12,-4,15,-7,-44,-33,17
1526903509682940,5,3,7,2,1,38,14,-26
1526903509703884,34,-12,4,36,10,5,-11,30
1526903509703884,-35,14,0,13,0,0,21,23
1526903509704881,7,3,-6,-14,13,39,1,15
1526903509704881,47,0,4,3,-16,-67,-7,-18
1526903509717847,-108,-17,-12,-34,-6,65,-1,-52
1526903509717847,29,10,4,1,-3,-68,-22,49
1526903509724828,-5,-11,-5,-1,-5,24,2,12
1526903509724828,-56,9,-2,-11,-3,-2,-3,-30
1526903509748764,-16,-16,3,10,9,-7,4,-24
1526903509748764,38,14,0,2,-3,20,-2,24
1526903509749761,-32,-5,-8,-21,-8,-13,-4,-31
1526903509749761,18,-8,2,5,0,9,5,37
1526903509763724,7,2,2,10,-1,-20,-6,-65
1526903509763724,-11,-5,-10,-6,-4,15,-10,-24
1526903509764721,36,6,-2,-2,-2,-1,9,32
1526903509764721,-23,0,-4,-5,3,-2,-3,-8
1526903509777686,-22,-3,-1,-11,-4,0,8,19
1526903509777686,26,-2,4,3,1,2,0,-11
1526903509784668,-6,2,7,-3,1,-8,0,-2
1526903509784668,-13,-10,-2,8,4,-1,-3,5
1526903509800625,28,18,-2,-8,-14,-10,4,33
1526903509800625,15,0,0,-4,11,20,-3,-21
1526903509802620,72,-5,-1,1,0,0,6,31
1526903509802620,-33,-12,-9,-4,-4,-1,-9,-35
1526903509823564,-12,12,2,-4,-10,-15,-4,26
1526903509823564,4,-7,-1,3,5,4,1,-6
1526903509825559,-3,-2,0,-2,-5,5,12,30
1526903509825559,-49,8,-2,0,-2,-2,-11,-29
1526903509837527,-12,-20,-1,-2,1,-6,2,0
1526903509837527,0,3,2,0,-3,-5,-3,23
1526903509846503,6,-5,-2,3,13,5,-1,8
1526903509846503,7,-1,0,-5,-11,-1,4,12
1526903509861462,-1,6,0,5,11,5,6,21
1526903509861462,11,6,8,-1,-7,18,20,98
1526903509862460,-80,-12,-15,-24,-9,-27,-24,-48
1526903509862460,38,1,0,10,-1,-2,-8,10
1526903509883404,49,12,8,41,6,-3,-7,1
1526903509883404,-21,-4,2,-7,3,-7,7,4
1526903509885399,31,13,4,4,-6,2,5,-12
1526903509885399,25,16,9,-17,0,13,19,74
1526903509897366,-73,-35,-21,-29,-8,-9,-14,20
1526903509897366,-52,16,-7,-13,-4,-14,-17,-55
1526903509906343,59,-5,-1,0,-5,-7,-3,16
1526903509906343,-17,1,15,47,25,0,9,1
1526903509921302,37,7,1,-11,0,25,-5,25
1526903509921302,-17,-20,-6,35,4,16,15,-22
1526903509922300,-13,16,6,-1,9,-3,-5,-17
1526903509922300,4,-23,-7,-28,-16,-19,-3,-13
1526903509943244,74,16,5,6,21,-11,1,12
1526903509943244,-83,-6,-13,-35,-8,-1,-15,-44
1526903509945239,-76,1,12,5,-20,10,23,0
1526903509945239,82,0,-12,13,13,-38,-29,-8
1526903509958204,-37,5,-1,5,-18,10,-5,-41
1526903509958204,18,-9,-2,-2,21,5,3,12
1526903509964188,-5,11,10,11,0,-1,12,75
1526903509964188,-11,-7,-11,-26,-16,-4,-17,-23
1526903509981143,-7,-5,-4,-33,-17,-3,12,5
1526903509981143,44,11,2,17,3,-5,0,12
1526903509982140,-36,-17,-7,28,-1,0,-1,-14
1526903509982140,33,10,7,8,5,16,16,37
1526903510003084,-52,-6,-7,-5,0,-8,-14,-52
1526903510003084,96,0,-1,-2,-15,-7,-2,-31
1526903510005079,-11,-9,-8,-19,3,1,-11,2
1526903510005079,-10,-1,1,0,-1,12,2,-7
1526903510018044,3,7,7,10,0,-7,15,36
1526903510018044,2,4,7,4,-1,-4,2,8
1526903510025025,12,-7,-9,-10,-2,1,-8,-57
1526903510025025,-45,-1,-7,-5,-13,2,-2,-41
1526903510040983,-22,-18,-4,-7,-2,-10,2,27
1526903510040983,-3,37,11,2,-13,-14,-10,-14
1526903510042978,24,-13,3,7,16,-4,-2,18
1526903510042978,-29,-18,-8,-9,10,31,13,6
1526903510063921,19,37,5,-11,7,14,7,-26
1526903510063921,-48,-29,-8,-1,-9,1,2,-7
1526903510064920,36,10,5,8,-1,-16,-11,5
1526903510064920,-6,-4,8,5,-9,-12,-4,-29
1526903510077884,-4,-18,-6,-4,2,-3,-1,-15
1526903510077884,35,20,4,3,8,4,5,44
1526903510084865,45,16,7,3,2,5,11,-37
1526903510084865,14,-24,-9,-5,4,5,-16,8
1526903510100822,16,-7,-8,-3,-4,-18,-10,-34
1526903510100822,-7,-2,1,1,-3,11,-4,13
1526903510102817,5,12,0,-17,1,13,8,39
1526903510102817,17,-8,2,-3,-3,-21,3,48
1526903510123761,39,2,4,16,3,-11,-9,-13
1526903510123761,-1,-23,-11,-18,-8,-12,5,32
1526903510124758,-92,3,-10,42,4,27,-44,-76
1526903510124758,-18,2,0,-43,-16,-5,3,15
1526903510137724,30,12,13,-10,19,20,36,19
1526903510137724,15,-7,-4,17,-52,-68,-26,11
1526903510144705,-63,-5,-5,16,33,17,-21,0
1526903510144705,3,8,0,-11,-3,-11,8,-67
1526903510160662,-16,11,0,-1,1,23,4,29
1526903510160662,3,-3,-1,-33,-6,27,14,-16
1526903510162657,62,2,8,9,-6,-15,14,18
1526903510162657,-46,6,-2,8,0,-11,-15,-19
1526903510183601,-49,-13,-10,-12,-12,-1,0,23
1526903510183601,32,-4,-2,-5,18,19,0,5
1526903510185596,9,1,-2,-11,-16,-17,-4,-21
1526903510185596,-37,-11,1,15,15,15,9,21
1526903510197563,32,4,0,1,-8,-12,-3,21
1526903510197563,-41,-6,-3,15,11,1,-7,-12
1526903510204545,47,-5,-3,-16,-4,-6,9,-3
1526903510204545,40,12,5,9,-6,7,5,-4
1526903510220502,19,-5,3,6,1,-5,-3,13
1526903510220502,-23,3,-4,1,3,0,-1,-14
1526903510222498,38,-7,3,-16,-7,5,17,60
1526903510222498,9,10,-1,3,2,1,-12,-4
1526903510243441,10,-8,-3,-12,-3,-7,-6,27
1526903510243441,21,-1,-6,1,3,3,3,2
1526903510245436,14,-25,-10,-12,-11,-9,-3,-3
1526903510245436,-26,27,14,16,1,-13,-1,13
1526903510257404,0,-4,-12,-8,-1,8,-3,-20
1526903510257404,-21,5,-1,-20,8,18,1,-31
1526903510264385,-12,-86,-19,-1,-12,-31,-9,-11
1526903510264385,18,105,30,13,3,13,-3,4
1526903510281340,-12,-27,-19,-17,9,11,4,7
1526903510281340,-7,14,7,5,-1,-4,-4,-36
1526903510282337,4,-11,-1,0,-2,7,13,27
1526903510282337,-16,-55,-22,-3,-8,-15,-22,-87
1526903510303281,8,11,11,14,-2,-12,0,27
1526903510303281,-5,6,2,7,11,6,-5,10
1526903510305276,-27,21,5,-6,-5,-6,10,-8
1526903510305276,2,-10,4,-3,2,5,9,3
1526903510317243,20,0,-4,14,0,0,-2,2
1526903510317243,-2,-16,-13,-8,-3,-4,-2,2
1526903510326220,-54,20,8,-3,-3,7,4,-16
1526903510326220,61,-16,-9,-16,-4,-1,-8,6
1526903510341179,-25,4,11,33,16,9,2,0
1526903510341179,5,6,5,10,-10,-17,14,29
1526903510342177,54,30,5,-5,6,1,0,14
1526903510342177,-18,-18,5,4,12,21,27,81
1526903510363121,45,-19,-11,-26,-9,-36,-25,31
1526903510363121,59,3,0,30,2,24,-8,29
1526903510365116,-40,23,7,17,4,-4,-1,-5
1526903510365116,-9,-13,-7,-8,2,-12,-8,-9
1526903510377084,5,6,13,44,9,17,10,-6
1526903510377084,-21,0,-8,-46,-5,5,-31,-49
1526903510386060,25,16,-2,-16,-2,2,-21,1
1526903510386060,-33,-34,-7,13,-2,-4,0,16
1526903510401019,-24,10,-5,-18,-8,-3,0,-13
1526903510401019,2,5,7,2,3,5,16,16
1526903510403016,-46,-11,-2,7,1,4,-12,-18
1526903510403016,33,11,-14,-15,-13,-26,-8,-38
1526903510423958,1,-2,0,-7,-8,15,7,-14
1526903510423958,-73,-6,-3,-2,-3,2,5,15
1526903510424956,-3,5,7,7,6,-11,-1,-15
1526903510424956,45,-6,-3,-1,-1,4,4,3
1526903510436923,-38,-9,-13,-30,-7,-9,0,-22
1526903510436923,20,14,1,-10,-3,-16,-3,-21
1526903510453878,-3,-16,6,54,7,6,5,22
1526903510453878,2,2,1,-1,-1,1,-2,-10
1526903510460859,0,14,1,-15,-6,1,0,-8
1526903510460859,-13,-11,-5,-14,-1,-12,-2,-15
1526903510462854,15,0,-7,-28,-3,-1,-2,-16
1526903510462854,-2,-16,5,24,5,11,3,14
1526903510483798,5,12,2,0,2,-12,-7,-7
1526903510483798,16,-3,-5,-6,-6,-8,8,27
1526903510484796,-10,-20,-3,-3,-19,-11,-9,-10
1526903510484796,17,41,6,12,13,15,5,24
1526903510496763,-2,10,8,-7,6,7,2,-1
1526903510496763,21,-18,-5,11,-7,4,7,31
1526903510505739,28,1,0,-2,8,6,2,2
1526903510505739,-33,-43,-12,-10,-23,-12,-8,-1
1526903510520699,9,0,-4,6,1,-12,-3,-4
1526903510520699,-8,25,7,15,14,6,6,-4
1526903510522695,27,-22,-12,-18,-12,-7,-6,11
1526903510522695,-2,14,10,2,2,5,6,18
1526903510543638,-82,-11,-7,4,-7,-9,-13,-32
1526903510543638,45,4,4,5,2,-1,7,42
1526903510545633,-7,-1,-6,-16,-8,-1,-4,-3
1526903510545633,-10,0,-1,2,4,0,-2,-7
1526903510557601,37,15,8,8,-3,6,7,14
1526903510557601,-94,-7,-3,-4,-6,-14,-7,-32
1526903510566577,29,-5,-3,-9,2,7,18,8
1526903510566577,-11,-6,-2,12,1,8,4,-33
1526903510580539,-93,-3,-3,-13,3,-4,3,11
1526903510580539,35,-3,-5,-14,-2,-5,-11,-26
1526903510582534,2,14,11,27,5,2,4,5
1526903510582534,-77,-4,2,-15,-2,10,0,-6
1526903510603478,84,-4,-8,-17,-8,-18,1,24
1526903510603478,13,-1,-1,-4,6,-12,1,5
1526903510605473,72,12,6,24,-11,21,7,29
1526903510605473,-52,-5,-18,-30,-17,-27,-52,-82
1526903510626417,35,17,12,33,7,25,14,14
1526903510626417,-40,-34,-13,-24,-11,-26,-7,2
1526903510627414,-37,9,3,-12,2,28,-10,-11
1526903510627414,10,-9,-1,1,2,5,-4,21
1526903510641377,46,-2,-8,1,3,-1,12,-16
1526903510641377,-2,3,-2,5,-2,-37,-2,-11
1526903510642374,-53,-3,5,-7,6,-15,2,-14
1526903510642374,41,11,6,22,9,5,3,33
1526903510663318,-83,-21,-11,-15,-6,10,-17,-13
1526903510663318,27,8,5,16,4,5,15,11
1526903510665313,-4,-11,-1,14,5,5,0,-13
1526903510665313,43,12,5,-13,-7,-16,7,9
1526903510677281,-8,-12,-5,-20,-8,-17,0,-5
1526903510677281,-10,5,4,18,-5,20,-6,-2
1526903510686257,-20,4,0,18,1,-11,-4,-11
1526903510686257,41,-6,-5,-6,-1,3,5,12
1526903510701217,-21,-3,2,2,-1,-2,0,-4
1526903510701217,37,5,-3,-15,1,23,0,-2
1526903510702214,-19,-8,-14,-29,-10,-17,-14,-40
1526903510702214,-10,-16,-2,9,-6,-10,3,2
1526903510723158,22,26,11,9,11,12,5,13
1526903510723158,-8,10,-9,-7,1,12,-6,-9
1526903510725153,31,-35,5,1,-1,-17,14,12
1526903510725153,-26,62,15,3,6,11,-1,-1
1526903510746097,4,-19,-10,-5,-4,-2,-3,-3
1526903510746097,-29,-16,0,7,2,0,-4,-45
1526903510748091,9,-4,0,-7,-4,0,-3,7
1526903510748091,27,-17,-10,-7,0,3,3,5
1526903510761057,-2,11,6,8,-2,-8,-1,15
1526903510761057,-56,0,-3,4,3,5,1,-31
1526903510763051,39,5,-9,-14,-2,2,-6,1
1526903510763051,-3,-6,6,6,0,-4,6,18
1526903510783995,55,8,0,5,-7,-2,-1,-15
1526903510783995,-27,-15,-2,1,-2,0,-1,21
1526903510784993,-13,8,0,-7,-3,-1,-4,7
1526903510784993,34,6,1,-2,-3,3,-1,-2
1526903510805937,-7,-6,0,-2,-2,3,4,15
1526903510805937,-12,9,-3,-12,-7,-13,-3,-13
1526903510807932,25,8,3,10,4,-3,1,6
1526903510807932,-24,1,7,11,7,6,9,34
1526903510820896,-29,-18,-13,-25,-14,-5,-6,-6
1526903510820896,32,10,4,-14,-4,-1,6,47
1526903510822892,-19,-2,-2,1,10,1,-17,-31
1526903510822892,-12,-14,-10,-25,-16,-12,-3,-20
1526903510843835,-21,8,-4,-32,3,16,-9,-21
1526903510843835,106,10,8,18,-6,-9,14,31
1526903510844833,-109,-12,0,29,14,2,-1,-56
1526903510844833,-30,-20,-4,-10,5,7,1,-9
1526903510865777,24,7,2,12,-2,28,-6,-2
1526903510865777,22,0,-13,-41,-7,-11,12,-7
1526903510867771,4,7,4,-11,-4,-15,-3,15
1526903510867771,-77,-13,-2,13,1,-2,-4,-7
1526903510879739,27,8,-2,-2,-1,-12,6,-9
1526903510879739,-56,-18,0,13,19,25,-10,-17
1526903510888716,55,11,2,9,-21,-2,9,21
1526903510888716,26,1,1,-22,3,0,9,20
1526903510903675,-30,-7,-4,-12,-9,-13,-3,-17
1526903510903675,11,7,3,43,8,16,-8,-13
1526903510905670,-67,-18,-2,3,7,-11,1,15
1526903510905670,69,9,0,-14,-7,7,-2,-4
1526903510925616,11,0,-2,-13,-2,-10,-3,12
1526903510925616,0,-11,-3,29,-8,-7,0,-37
1526903510927612,-2,6,-3,-35,-9,-3,-2,-1
1526903510927612,18,0,1,10,6,-4,8,10
1526903510940576,-7,6,2,39,4,3,-3,-10
1526903510940576,-35,-2,4,-13,-6,-9,-2,8
1526903510947558,29,1,0,-2,-3,6,0,6
1526903510947558,-8,0,1,14,11,11,0,-11
1526903510963515,0,7,-3,-2,-7,-20,-4,5
1526903510963515,-10,-18,-2,-4,-9,-2,-4,0
1526903510965510,15,-11,-3,0,8,12,6,2
1526903510965510,-8,-5,-16,-2,-3,1,-3,-13
1526903510986454,-11,55,20,10,6,4,4,-5
1526903510986454,-6,-8,8,6,-1,-16,-5,28
1526903510987451,7,-32,-17,-16,-6,7,-2,-12
1526903510987451,7,23,4,3,-2,-1,7,27
1526903510999419,25,-15,-8,3,-5,-1,4,2
1526903510999419,-46,-6,0,-3,2,0,-4,-7
1526903511008395,24,13,11,5,3,-6,6,29
1526903511008395,-8,-6,0,6,0,-3,-9,-11
1526903511023356,38,-20,-8,1,2,-3,1,19
1526903511023356,-7,16,0,-4,-2,2,-2,-1
1526903511025350,-38,-11,5,0,1,0,5,26
1526903511025350,26,2,-8,-1,-6,-3,-3,-5
1526903511046294,-19,3,1,3,0,0,-3,-8
1526903511046294,36,1,-4,-9,0,-1,-4,-3
1526903511047292,-8,4,3,1,-3,7,7,30
1526903511047292,-14,7,2,0,-3,-5,-11,-55
1526903511059259,-36,-30,-6,-1,0,-3,0,6
1526903511059259,47,7,-8,-13,0,8,-2,-15
1526903511068235,36,2,-2,-3,-3,-8,-9,-25
1526903511068235,21,-15,2,-17,-7,-3,-1,5
1526903511083195,66,8,6,58,9,0,-2,1
1526903511083195,-67,-2,-3,-7,-6,-19,1,-12
1526903511085190,0,4,3,12,7,13,18,-22
1526903511085190,1,-8,-10,-20,-5,-23,-21,4
1526903511106134,-4,-7,-3,-20,-7,-33,5,27
1526903511106134,-63,-8,-4,-15,-5,105,-8,-28
1526903511108129,45,23,-3,-24,-18,-70,-19,-3
1526903511108129,-56,-9,-7,33,-6,-8,9,-4
1526903511120096,11,-7,1,43,14,46,10,-6
1526903511120096,-64,11,6,2,-1,-22,4,-15
1526903511129073,-8,-15,-11,-16,3,13,-6,-5
1526903511129073,6,-2,1,-19,-6,0,-1,-6
1526903511143035,-26,0,-8,-15,-4,-10,-11,2
1526903511143035,65,0,8,13,6,-8,11,33
1526903511150016,2,16,3,10,5,16,-11,-23
1526903511150016,-55,-23,-4,-3,1,-19,5,2
1526903511165974,5,6,-1,-19,-2,6,1,-4
1526903511165974,8,6,0,4,8,-11,3,6
1526903511167968,-24,-7,-3,-8,-2,-4,1,11
1526903511167968,27,6,6,11,5,14,-1,18
1526903511188912,9,-3,-9,-23,-5,-7,-3,-12
1526903511188912,-1,-4,-3,-2,-1,-8,-4,-1
1526903511189910,-9,-4,1,7,-1,-3,-5,-17
1526903511189910,9,15,7,8,3,10,0,4
1526903511203872,-35,-16,-3,-3,-1,2,0,-15
1526903511203872,37,10,-7,-11,-4,-25,-9,11
1526903511204870,19,16,4,2,-3,14,5,6
1526903511204870,24,-18,-2,3,4,4,1,15
1526903511225814,-19,1,-2,-13,-1,-16,-5,10
1526903511225814,22,-84,-20,5,-6,-23,-6,-4
1526903511227809,-37,102,49,21,1,-1,-1,-7
1526903511227809,9,-35,-8,-12,13,38,13,2
1526903511248752,18,-7,-9,-8,-10,2,8,71
1526903511248752,-4,-10,-5,-4,-5,-9,-18,-29
1526903511249750,9,-31,-16,1,-3,-5,-6,15
1526903511249750,16,17,9,10,3,-17,0,8
1526903511262719,-25,15,11,-1,4,6,3,9
1526903511262719,-53,-5,-8,-5,-5,-4,-2,-12
1526903511269697,33,-14,-10,-5,1,-1,2,8
1526903511269697,13,26,3,0,-1,-2,-9,-6
1526903511285654,-49,-18,-8,-7,-2,0,-1,-36
1526903511285654,32,23,10,2,-1,2,2,16
1526903511287648,2,-17,1,1,6,12,15,1
1526903511287648,24,7,-6,-5,-5,-5,-10,-10
1526903511299616,-31,-1,-3,5,1,-5,-4,-13
1526903511299616,33,20,14,18,9,6,8,8
1526903511308593,-32,-25,-5,-20,-3,4,7,16
1526903511308593,-14,-6,-5,16,-12,-12,-9,-8
1526903511323552,76,20,10,-6,1,-13,-3,-31
1526903511323552,32,2,-8,-26,-2,8,2,23
1526903511325547,-19,-20,-7,-15,-6,21,5,7
1526903511325547,-36,7,0,1,-7,-31,-7,-13
1526903511346491,-22,5,8,38,6,28,-5,-20
1526903511346491,14,-3,3,-12,-5,-3,22,21
1526903511347489,6,2,-10,7,3,0,-37,-44
1526903511347489,-1,-15,-5,-22,-2,4,5,-14
1526903511368432,-18,-2,-5,-6,-1,-10,-4,6
1526903511368432,37,34,9,5,0,-1,2,37
1526903511370427,-33,-43,-14,-7,-6,-8,-6,-11
1526903511370427,-31,19,9,7,5,0,1,10
1526903511383392,24,-8,-10,-11,-3,1,1,-6
1526903511383392,16,-1,-1,4,-2,3,0,-10
1526903511385387,3,8,1,-3,-2,-12,0,2
1526903511385387,-22,-17,-2,7,5,10,4,27
1526903511406331,-2,7,-4,-8,-4,-5,0,-21
1526903511406331,-14,-9,2,5,2,-6,-6,-16
1526903511407329,41,-6,-3,10,2,-2,0,16
1526903511407329,6,6,1,0,-1,2,0,-14
1526903511419296,12,39,8,-6,3,2,1,8
1526903511419296,-49,-11,-6,-1,-4,-4,-2,5
1526903511428272,-3,-11,-1,5,7,-4,-3,-17
1526903511428272,7,-4,-4,-6,-14,1,7,13
1526903511443232,82,-35,-10,-6,4,-10,-5,-1
1526903511443232,-30,12,-2,5,11,16,0,5
1526903511445227,32,38,16,-1,-13,2,12,17
1526903511445227,-8,-13,-4,-1,6,3,6,11
1526903511466171,-56,5,8,3,-5,-3,1,-9
1526903511466171,-18,-33,-18,-6,-4,-12,-11,-86
1526903511467168,25,1,2,1,2,-5,-7,19
1526903511467168,0,20,7,-1,3,1,4,19
1526903511488112,-15,-15,-11,-25,-7,1,2,-3
1526903511488112,-14,15,12,26,7,-2,1,9
1526903511490107,-75,-11,-2,-12,-1,-5,9,28
1526903511490107,11,0,-2,22,4,5,-9,-4
1526903511503072,29,3,-5,-5,-3,2,-2,12
1526903511503072,35,7,3,-12,-11,6,-11,-10
1526903511510054,1,12,2,21,12,5,7,-9
1526903511510054,-22,-24,-2,-17,-6,1,7,25
1526903511526011,26,26,-2,-3,-4,-45,-4,-8
1526903511526011,-47,-27,-1,0,3,42,-4,2
1526903511528006,15,8,-3,-22,-11,17,-3,-14
1526903511528006,-47,-19,-6,19,-1,-3,-3,-22
1526903511539973,35,6,-2,23,-2,-22,-16,-62
1526903511539973,-4,7,0,-16,0,-34,6,36
1526903511548950,-38,-21,-7,-29,-8,22,4,-11
1526903511548950,24,11,4,53,14,18,7,-13
1526903511563909,-46,-1,0,-28,-5,12,-7,12
1526903511563909,53,-6,-4,5,-4,-8,15,36
1526903511564908,-9,-5,-3,-12,9,-12,1,-15
1526903511564908,6,17,8,-16,-3,-21,-7,2
1526903511585851,-46,-16,-2,6,1,20,8,10
1526903511585851,57,18,2,3,-4,12,-2,9
1526903511587846,18,-22,-9,-23,-4,-6,-8,-5
1526903511587846,-42,6,4,57,21,-9,-2,-32
1526903511608790,14,-13,-4,-10,-6,23,3,29
1526903511608790,-12,6,2,-16,-5,-26,2,2
1526903511609787,4,3,-1,1,-3,7,-6,-15
1526903511609787,5,2,-2,-36,-12,3,-1,5
1526903511623750,-20,-2,-2,4,5,1,4,2
1526903511623750,0,-2,-2,-9,0,3,-2,4
1526903511624747,-12,-5,1,26,-3,-11,-6,12
1526903511624747,-6,-4,-7,-16,-4,-9,-7,-34
1526903511645691,-9,-6,-3,13,6,-1,1,-10
1526903511645691,18,22,9,-15,-15,8,8,67
1526903511647686,-6,-15,-15,-3,5,-12,-19,-57
1526903511647686,10,17,-3,-8,-11,-1,-2,17
1526903511668629,-29,-73,-24,-17,0,-11,2,-4
1526903511668629,-16,44,44,36,8,5,-8,2
1526903511670624,20,-22,-15,-4,-11,9,12,11
1526903511670624,30,47,10,-11,8,18,8,4
1526903511682592,-21,-11,-7,-8,-9,-4,-8,-22
1526903511682592,-6,-39,-6,16,12,-6,2,-36
1526903511689573,6,-11,2,21,2,-15,-10,1
1526903511689573,30,-14,-7,-28,-5,6,6,-3
1526903511706528,-25,11,10,7,2,-1,5,22
1526903511706528,13,1,-5,4,-5,-10,-1,-1
1526903511707526,49,41,14,1,8,1,3,12
1526903511707526,-35,-69,-29,-17,-10,2,-6,-49
1526903511728470,74,41,17,9,3,-1,-3,30
1526903511728470,-38,-14,-6,-3,2,-7,-3,-18
1526903511730464,16,9,5,10,-2,-6,-7,12
1526903511730464,9,4,2,2,3,4,26,37
1526903511743430,-19,19,1,-15,-1,-32,-16,-43
1526903511743430,-42,-21,-15,-11,-1,32,1,-29
1526903511745424,11,7,5,4,2,-25,4,19
1526903511745424,-18,-13,-6,-21,-1,31,-9,0
1526903511766368,-7,14,-5,-20,-4,17,-18,6
1526903511766368,29,6,-1,-3,3,-11,3,3
1526903511767366,-57,-3,4,41,25,30,21,-2
1526903511767366,28,-1,-7,-27,-14,-34,-25,2
1526903511788309,36,3,2,18,-8,7,30,8
1526903511788309,-43,-1,-4,-29,11,27,-9,6
1526903511790304,-55,-11,-10,10,-10,-8,2,-30
1526903511790304,81,7,6,15,3,-12,-14,-12
1526903511803269,-7,2,-1,6,2,14,-1,25
1526903511803269,2,-7,-6,-5,-11,-26,-9,-9
1526903511809253,-7,5,7,-6,-5,5,2,-20
1526903511809253,-41,0,-7,-25,-10,-17,-2,7
1526903511826208,6,-11,2,2,-8,21,-5,1
1526903511826208,18,4,5,72,14,-2,12,0
1526903511827206,9,2,-2,-14,-6,11,-8,0
1526903511827206,10,3,2,11,2,10,4,7
1526903511848150,-1,7,-4,-36,-5,-10,-3,0
1526903511848150,-15,-2,1,-7,-4,-8,-1,-15
1526903511850144,14,-15,-2,5,2,-1,0,2
1526903511850144,-31,-3,-3,0,-1,-6,-6,-2
1526903511863109,4,-20,-3,12,4,-5,8,29
1526903511863109,41,55,9,-4,-5,-8,-4,-3
1526903511870091,7,-20,-5,-5,0,-6,-4,6
1526903511870091,7,-52,-17,-14,-10,3,2,-5
1526903511886048,-32,76,28,24,10,-15,1,13
1526903511886048,-1,-73,-16,-5,-6,11,-4,-47
1526903511888043,12,-16,1,-25,-5,3,-2,33
1526903511888043,-1,-15,5,17,16,-3,4,10
1526903511908987,-14,12,-13,-2,-4,13,2,-5
1526903511908987,5,-2,3,-4,-3,-3,5,28
1526903511909984,-7,23,6,3,-2,-13,-17,-43
1526903511909984,-52,-20,1,6,1,-3,7,20
1526903511922949,-15,-11,-5,-1,-4,-11,-7,-15
1526903511922949,72,17,-3,-11,-1,-2,-1,21
1526903511929931,-27,-13,-8,-4,-6,-5,-4,-13
1526903511929931,16,42,16,14,4,4,0,9
1526903511945888,-3,-11,-3,-9,-2,1,3,12
1526903511945888,-31,-9,-5,-11,-4,-3,-1,-20
1526903511947883,35,-9,-3,8,-1,-3,-3,15
1526903511947883,-26,20,3,10,-4,-1,-4,-21
1526903511968827,21,1,0,-4,2,1,2,-6
1526903511968827,12,-18,-3,11,1,-3,-6,-4
1526903511969824,-12,8,8,-3,2,6,18,61
1526903511969824,13,22,-7,-22,-5,-1,-7,-48
1526903511982789,12,-29,-5,6,-4,-1,-5,3
1526903511982789,11,-3,3,-13,-2,-30,2,19
1526903511989771,-8,18,7,15,4,7,3,0
1526903511989771,-2,-1,-1,-17,2,-35,9,14
1526903512005728,64,8,-6,5,-2,73,7,-15
1526903512005728,-47,-7,-6,-26,-13,5,-3,-28
1526903512007723,11,3,3,29,7,-11,0,6
1526903512007723,21,-4,-7,-27,-8,-5,-10,-1
1526903512028667,-23,-11,-4,-7,1,15,-8,-15
1526903512028667,18,14,4,-6,6,-14,7,13
1526903512030661,-27,-10,1,21,-2,20,0,12
1526903512030661,-20,15,4,3,-2,-22,-5,1
1526903512042629,32,-13,-1,5,5,-11,7,1
1526903512042629,-20,-4,-2,9,-1,14,-7,0
1526903512049610,48,1,-3,-21,-5,-14,-1,18
1526903512049610,1,-5,-1,15,1,0,2,-3
1526903512065568,-23,-2,0,2,1,-12,-3,-1
1526903512065568,5,-4,-2,-8,0,9,2,20
1526903512067563,11,-2,1,-9,0,-15,-8,-20
1526903512067563,4,12,4,24,0,29,0,11
1526903512088507,-33,-31,-9,-14,-4,-14,1,-8
1526903512088507,3,39,8,15,2,-7,-4,-2
1526903512090502,-10,-10,-3,-16,-7,7,2,1
1526903512090502,30,-14,-8,-1,-8,7,-1,3
1526903512102469,-32,12,7,6,3,-21,3,10
1526903512102469,7,21,4,4,5,-1,-14,-11
1526903512111446,-3,-4,-2,-5,-9,0,3,-9
1526903512111446,21,10,2,-6,12,12,4,14
1526903512126405,-25,-22,-10,-3,-10,-21,-2,-14
1526903512126405,12,-9,-6,5,4,8,-2,-7
1526903512127403,1,12,5,-5,0,0,-4,-4
1526903512127403,14,-2,0,4,-4,0,8,16
1526903512148347,-5,10,1,0,1,-8,-8,-37
1526903512148347,14,-8,-5,1,5,1,1,11
1526903512150342,-14,-16,-2,-5,-5,-2,-1,-3
1526903512150342,-18,9,2,2,1,0,6,25
1526903512162309,-27,0,1,-4,0,-3,0,5
1526903512162309,-4,-14,-4,-8,-8,0,-2,-7
1526903512171286,-10,13,9,7,9,0,8,32
1526903512171286,-56,-6,-9,-10,-6,2,-12,-58
1526903512186245,-11,-4,-6,2,0,2,3,38
1526903512186245,-40,-15,-12,-5,-8,-10,-10,-70
1526903512187243,27,12,-2,-26,-4,0,-4,1
1526903512187243,-10,-10,1,30,1,-1,-1,4
1526903512208187,26,11,7,5,12,2,0,9
1526903512208187,24,-13,-1,24,10,-3,3,11
1526903512210181,20,-1,-10,-18,-9,-2,-4,-6
1526903512210181,22,5,-2,-28,-16,1,8,-1
1526903512231125,12,0,-2,6,0,-7,-3,-5
1526903512231125,-11,5,6,27,12,10,1,19
1526903512233120,-70,-22,-5,26,10,17,-5,-24
1526903512233120,77,8,-1,-19,-9,49,5,30
1526903512246085,23,10,-7,-42,-13,-41,-26,-20
1526903512246085,-82,-2,4,27,0,-1,17,-26
1526903512248080,36,0,2,-3,1,12,4,23
1526903512248080,-27,-1,5,20,4,-39,-19,-3
1526903512269024,-23,-2,-3,2,2,28,4,3
1526903512269024,101,1,0,-15,-8,-3,4,31
1526903512270021,-63,3,-2,-3,-8,-7,-12,-35
1526903512270021,-23,-6,-1,-4,0,0,2,5
1526903512290965,12,2,-1,1,-1,-4,4,-8
1526903512290965,16,1,5,1,2,-3,1,26
1526903512292960,-3,-3,4,26,7,2,-1,-12
1526903512292960,12,0,-4,-19,1,-6,-1,-7
1526903512305925,-10,4,-2,-14,-8,-4,0,-10
1526903512305925,-21,-8,1,23,2,10,-2,-4
1526903512311909,26,5,0,-12,-2,-13,-3,-6
1526903512311909,-20,6,3,-7,0,2,2,5
1526903512328864,-3,-22,-7,-1,-3,0,-1,-5
1526903512328864,-6,6,0,-11,-2,1,-1,19
1526903512329861,20,-23,-9,-10,-2,-6,-2,-19
1526903512329861,1,32,5,15,3,-2,2,25
1526903512341829,-7,-5,5,-1,0,1,1,-17
1526903512341829,2,-37,-22,-26,-13,-19,-14,-12
1526903512350805,1,64,25,14,7,4,-6,17
1526903512350805,-2,-26,-13,-9,4,22,15,14
1526903512365765,10,-36,-12,10,-6,-10,6,-13
1526903512365765,-17,27,2,-6,12,2,-5,2
1526903512367760,9,4,-7,-7,-12,-8,-9,-20
1526903512367760,-15,-1,-9,0,4,-4,-7,4
1526903512388704,-39,15,10,7,1,3,2,-13
1526903512388704,26,-33,0,2,0,-1,5,10
1526903512390699,34,8,1,-4,-1,-6,3,8
1526903512390699,-39,-4,3,-1,-4,-3,-2,-18
1526903512410645,-20,0,-3,4,0,-2,1,19
1526903512410645,32,15,6,-5,-2,5,3,-8
1526903512412640,-77,-20,-7,-8,-2,-4,-14,-69
1526903512412640,32,0,1,4,-3,-7,0,8
1526903512425605,17,9,0,2,1,2,4,16
1526903512425605,25,13,5,-6,-1,4,-1,8
1526903512432587,3,-27,-8,-13,-1,0,6,12
1526903512432587,4,-9,-6,8,-5,-6,-4,-28
1526903512448544,27,15,8,5,4,3,6,12
1526903512448544,-41,7,-1,-3,-3,1,-7,-22
1526903512450539,40,-13,-4,2,3,5,5,16
1526903512450539,11,-4,-3,-18,-4,-4,-4,-12
1526903512471482,43,22,3,6,7,-1,2,20
1526903512471482,-72,-17,-2,15,0,-6,2,-12
1526903512472480,-24,-13,-4,-1,9,4,8,12
1526903512472480,39,0,4,-6,4,-19,4,1
1526903512484448,40,18,-2,-23,-15,3,-2,10
1526903512484448,-43,-17,2,24,-6,-5,-4,-29
1526903512493424,-22,6,-3,-10,0,2,-9,-25
1526903512493424,-33,9,7,15,11,11,4,32
1526903512508384,-13,-18,-7,-14,-11,-28,-1,-16
1526903512508384,16,-4,-5,-16,-13,-55,-29,18
1526903512510379,-20,6,0,4,-9,-14,7,-7
1526903512510379,44,8,-2,-12,-4,3,0,-10
1526903512531322,-30,-10,1,16,1,12,1,-8
1526903512531322,-54,-12,-3,-6,3,-5,0,7
1526903512532320,41,11,4,1,-7,7,4,17
1526903512532320,-60,-13,-13,-7,-4,-11,-18,-34
1526903512545285,9,3,3,7,6,11,6,1
1526903512545285,46,4,0,-14,0,15,1,0
1526903512552266,-3,-10,-5,2,2,-6,-1,20
1526903512552266,1,-6,-1,3,-2,3,-1,-16
1526903512568224,-5,8,-3,-1,1,3,-2,5
1526903512568224,2,-25,-6,-10,0,12,6,7
1526903512570219,-2,37,15,4,5,-4,-5,-8
1526903512570219,12,-2,-5,-3,-10,-5,0,7
1526903512591162,7,-88,-28,-1,3,-15,-11,11
1526903512591162,-8,70,31,5,10,24,12,-12
1526903512593157,12,12,12,0,9,22,8,4
1526903512593157,5,-35,-11,-4,-6,-12,6,-12
1526903512606123,-5,36,13,5,0,-1,-7,8
1526903512606123,2,-48,-19,-7,-3,0,0,-8
1526903512608117,20,-8,-3,4,5,-4,-4,6
1526903512608117,-8,26,9,4,3,8,3,-19
1526903512629061,-38,-17,-2,-4,-9,-10,-4,-1
1526903512629061,16,12,5,0,2,3,5,15
1526903512630059,-10,10,-3,-3,-4,-2,-1,6
1526903512630059,-31,-20,0,2,4,3,7,-1
1526903512651002,12,10,-4,-3,-2,-1,0,9
1526903512651002,-10,1,3,0,1,6,2,-7
1526903512652997,1,-13,-2,2,-3,-5,-3,-5
1526903512652997,22,10,4,2,0,1,1,16
1526903512664965,-43,10,0,-20,2,7,-4,-11
1526903512664965,16,-1,-1,18,1,-12,-4,-13
1526903512673941,45,-23,0,47,4,14,1,22
1526903512673941,-79,-5,-17,-29,-2,-1,-7,-7
1526903512688901,2,17,7,10,1,-5,5,-12
1526903512688901,-12,-13,-12,-39,-6,-8,-7,-14
1526903512689899,-8,-5,-4,-24,-17,3,-7,-1
1526903512689899,-22,9,14,67,14,-24,11,17
1526903512710842,74,1,-13,-32,-16,32,-22,-35
1526903512710842,-5,-10,0,23,-1,3,17,28
1526903512712837,14,-1,-8,-36,2,-39,-4,-13
1526903512712837,4,10,1,-20,-9,21,-17,-4
1526903512724805,37,12,9,19,6,-5,18,42
1526903512724805,-66,-24,-6,-2,0,22,-11,-61
1526903512733781,74,10,-9,-16,-18,-61,-12,19
1526903512733781,40,-4,1,-4,11,5,15,20
1526903512748741,-47,-6,0,15,2,3,6,3
1526903512748741,-13,1,-3,-7,2,21,-4,4
1526903512749738,-14,-12,1,8,8,6,5,-5
1526903512749738,10,1,-6,-9,-1,1,-10,-20
1526903512770682,-2,0,4,2,-1,-6,0,-1
1526903512770682,8,7,1,0,-5,-11,8,-10
1526903512772677,-35,-11,-4,-1,-1,22,-2,7
1526903512772677,46,14,1,-4,-7,-9,-1,21
1526903512785642,-51,-4,-5,-13,3,-3,-3,-31
1526903512785642,30,-26,-4,28,-2,-6,-1,29
1526903512792623,-26,49,15,13,3,3,0,-34
1526903512792623,-13,-13,-8,-5,-3,7,-6,-12
1526903512808581,33,-35,-12,-2,-3,-15,0,11
1526903512808581,-51,63,28,-7,8,0,2,1
1526903512810576,15,-37,-20,-7,0,22,2,10
1526903512810576,-16,14,5,3,-1,-3,9,12
1526903512831520,-17,6,-2,-5,-6,-1,-4,-25
1526903512831520,35,-32,-5,-1,-7,-19,-10,12
1526903512832517,-21,10,5,8,12,7,2,8
1526903512832517,1,1,-1,-5,5,4,1,14
1526903512845482,6,-7,-4,4,-9,-8,-3,11
1526903512845482,-2,9,-1,-1,-2,4,5,6
1526903512852464,-34,1,0,0,-2,-5,-6,-2
1526903512852464,0,-8,-1,-1,0,2,0,14
1526903512868421,6,13,0,1,4,-1,-5,-23
1526903512868421,21,-1,-2,-9,-5,-1,1,7
1526903512870416,23,-5,2,-5,-5,1,2,21
1526903512870416,0,10,0,12,4,4,3,-25
1526903512891360,-18,-4,1,5,-2,1,3,19
1526903512891360,2,4,-3,-7,-2,-4,-8,-12
1526903512892357,44,-14,-9,-6,0,0,4,14
1526903512892357,31,3,-4,-20,-5,-4,-5,-11
1526903512905322,-30,1,7,43,18,2,2,-10
1526903512905322,14,0,-5,13,-1,16,-9,-3
1526903512912303,6,-8,0,13,-6,-35,0,1
1526903512912303,-13,0,-4,-16,-1,-2,-5,-7
1526903512928261,-5,3,5,-10,-5,14,-1,11
1526903512928261,9,3,-7,-2,0,-32,11,4
1526903512930256,-28,0,-1,-1,-6,43,-5,-5
1526903512930256,-6,2,-1,-12,9,8,-1,0
1526903512951199,-13,-6,-3,-5,-8,-20,3,-5
1526903512951199,12,-2,7,21,-1,-4,0,18
1526903512953194,-59,-4,-3,-16,3,-28,-3,-21
1526903512953194,36,-9,-12,-8,-9,62,3,14
1526903512965162,-1,1,-6,-31,-8,-55,1,-13
1526903512965162,-11,2,12,37,14,6,-4,3
1526903512972144,-15,-3,-4,-2,7,11,2,-6
1526903512972144,-2,2,2,6,-12,-3,0,-8
1526903512988101,15,12,0,-8,5,2,-1,15
1526903512988101,4,-16,-7,-8,-1,17,5,-11
1526903512990096,15,-2,-2,13,-4,-16,-8,0
1526903512990096,6,8,1,1,-2,-21,-5,-24
1526903513011039,-41,-2,0,-16,-4,22,3,-21
1526903513011039,1,-4,-2,-1,2,-11,0,13
1526903513013034,-5,0,2,-5,0,18,-1,-6
1526903513013034,-6,3,-1,4,-4,-22,0,-5
1526903513025002,3,-10,2,-2,-2,6,2,14
1526903513025002,10,6,-4,-18,-2,4,-8,5
1526903513031984,12,-4,-4,6,1,-1,5,-2
1526903513031984,-37,-2,0,2,-1,-4,3,0
1526903513048938,40,-9,-2,13,2,-2,-5,-3
1526903513048938,-18,24,5,-11,-5,-7,-9,-23
1526903513049935,6,-9,-4,-6,-4,7,5,17
1526903513049935,-8,-22,-8,3,-4,-21,-5,-5
1526903513070879,23,9,8,9,10,24,2,13
1526903513070879,-5,14,0,-6,1,6,6,-12
1526903513072874,0,5,7,-1,-7,-2,3,8
1526903513072874,-15,-11,-14,-12,4,-3,-11,1
1526903513084842,-6,-19,-9,3,-11,-10,-2,-9
1526903513084842,5,-5,-3,-10,0,-2,-3,2
1526903513093818,-5,0,7,5,2,-8,-7,-10
1526903513093818,33,8,4,9,-1,-4,5,35
1526903513108778,-32,9,-1,-1,2,5,-4,-43
1526903513108778,-46,-14,-8,-11,-8,-5,-5,-9
1526903513109776,43,5,-2,-1,-1,0,-2,10
1526903513109776,20,6,0,1,-3,-6,-5,2
1526903513130719,-29,5,2,3,1,3,2,12
1526903513130719,37,-7,1,-2,-2,1,-1,19
1526903513132714,-59,-14,-10,-10,-4,-6,-9,-62
1526903513132714,-6,10,5,0,1,2,3,17
1526903513144682,18,4,1,2,1,-1,-2,-6
1526903513144682,-40,-14,-5,-6,-5,-3,-4,1
1526903513153659,24,6,3,-4,3,6,8,27
1526903513153659,-21,5,-2,-19,-10,-7,-4,-20
1526903513168618,43,-4,1,30,6,3,-4,-6
1526903513168618,25,2,4,17,1,1,1,-12
1526903513170613,-39,-3,-2,-15,1,0,4,7
1526903513170613,35,3,1,0,1,-6,-7,0
1526903513190559,-10,2,-8,-32,-7,-5,7,11
1526903513190559,47,2,2,7,2,-2,1,10
1526903513192555,-1,1,1,-4,-5,3,14,-3
1526903513192555,-49,-7,6,34,10,9,0,-26
1526903513213498,19,3,-5,-17,-7,-11,-26,29
1526903513213498,10,8,1,-13,1,14,29,-11
1526903513215493,-57,-14,-9,-17,-3,-7,-12,-11
1526903513215493,6,-8,-4,12,-2,-15,-2,2
1526903513227461,-37,5,4,5,4,3,3,-14
1526903513227461,-24,-2,-5,-6,-5,-1,2,-1
1526903513234442,-33,-2,-3,3,-3,-6,-8,-9
1526903513234442,-10,-4,2,-2,0,-1,0,-2
1526903513251397,-60,-8,-6,0,-4,-2,-7,-6
1526903513251397,40,-3,-3,-5,-1,-7,-6,5
1526903513252394,23,7,0,10,3,10,5,12
1526903513252394,9,2,-5,-9,-4,-5,-6,5
1526903513273338,6,2,-1,0,-2,3,4,-17
1526903513273338,-23,-8,-2,-8,-1,2,-4,-3
1526903513275333,8,1,0,-1,1,-5,-5,4
1526903513275333,4,7,-1,-28,-10,4,3,-2
1526903513288298,40,3,13,78,15,6,11,25
1526903513288298,-1,-7,1,-7,2,1,3,16
1526903513294282,-7,-2,-6,3,-7,-9,-20,-21
1526903513294282,3,-8,-5,-28,-4,2,3,7
1526903513311237,-3,-1,-5,-22,-8,-7,-2,3
1526903513311237,-11,30,5,8,-5,-2,-6,-2
1526903513312235,38,2,-1,2,10,13,10,21
1526903513312235,-14,1,3,3,-7,-2,3,-14
1526903513333178,7,-18,-10,-6,6,-2,0,3
1526903513333178,-4,-19,2,7,-8,-2,-4,9
1526903513335173,25,-10,-6,-9,-7,-7,-2,-2
1526903513335173,-9,19,2,12,6,2,-7,-12
1526903513348138,2,-5,7,1,1,2,6,25
1526903513348138,1,-7,-14,-19,-5,-10,-13,-82
1526903513355119,-23,6,2,7,-1,1,-4,14
1526903513355119,1,-11,-3,5,0,-2,4,-10
1526903513371077,15,11,2,-11,-5,-2,-5,1
1526903513371077,21,-4,1,0,2,2,-1,26
1526903513373071,-22,6,4,6,2,-2,5,3
1526903513373071,15,5,-3,4,0,3,-4,-29
1526903513394015,-5,1,-1,-16,-7,3,7,8
1526903513394015,32,-6,1,7,6,-1,1,16
1526903513395013,28,2,2,7,-2,-5,-1,-2
1526903513395013,-55,4,0,-4,2,0,8,15
1526903513407978,16,8,0,-9,-1,8,-4,-21
1526903513407978,21,-3,-4,-14,-7,-3,-5,11
1526903513414959,-44,-24,-3,22,6,-1,-4,-22
1526903513414959,-1,7,7,57,6,2,0,7
1526903513430916,13,8,1,-34,3,3,6,17
1526903513430916,-3,-7,-5,10,-4,-8,-3,-4
1526903513432912,-26,11,10,29,16,-4,-20,-1
1526903513432912,-8,-6,-9,-13,-5,-5,8,-36
1526903513453855,-61,-11,-3,-13,-2,-1,11,-16
1526903513453855,5,-1,3,27,5,-2,-17,18
1526903513455850,42,9,-3,-31,-5,3,-5,-3
1526903513455850,3,-6,-5,3,1,0,6,4
1526903513467818,6,7,1,3,-1,-13,-40,12
1526903513467818,-11,-7,-6,-28,-5,-1,9,-5
1526903513474799,4,7,2,7,-6,0,20,10
1526903513474799,9,0,-1,-8,-2,3,-7,3
1526903513490757,-16,-7,-4,-18,-5,4,21,-10
1526903513490757,16,4,6,36,10,8,2,14
1526903513492752,-19,-7,-1,-2,0,-2,17,36
1526903513492752,33,8,-3,-13,-4,-14,-28,33
1526903513513695,-37,-9,-6,-9,-12,-1,-6,-27
1526903513513695,-15,-3,5,19,9,-5,-8,0
1526903513515690,28,5,2,-18,-3,10,10,4
1526903513515690,4,4,3,-12,4,7,16,13
1526903513527658,13,3,-7,24,-6,-14,-14,-16
1526903513527658,-44,-14,-1,3,5,4,-3,-18
1526903513534639,29,5,-5,-24,-10,-2,-5,-12
1526903513534639,10,2,2,-9,1,1,8,28
1526903513550596,3,-3,-2,-3,-2,-1,-10,-36
1526903513550596,-15,-6,-2,-18,-6,-1,7,3
1526903513552591,1,4,1,11,1,1,-1,-9
1526903513552591,-30,-11,-15,-10,-6,-8,-14,-33
1526903513573535,31,5,8,14,6,9,15,20
1526903513573535,-11,-17,-9,-15,-9,-11,-11,-15
1526903513575530,-6,-14,-5,1,-3,-17,-12,-23
1526903513575530,1,37,16,8,-3,8,0,11
1526903513587498,-5,-10,-6,-3,14,22,7,-8
1526903513587498,6,0,-5,-11,-12,5,8,14
1526903513594479,-21,-7,-5,0,5,2,3,11
1526903513594479,-15,-49,-10,0,-8,-16,-9,-17
1526903513611434,45,42,10,12,1,-9,-2,5
1526903513611434,38,7,2,-5,5,5,2,26
1526903513612431,-64,-13,-9,-5,-10,-1,-5,-4
1526903513612431,11,1,3,2,-1,-3,-5,-12
1526903513633375,14,-3,1,2,-2,-1,-6,23
1526903513633375,-9,2,-1,-5,3,2,15,27
1526903513635370,-41,14,0,-1,-5,-7,-12,-41
1526903513635370,43,-2,-2,-7,0,3,3,34
1526903513648335,3,-16,0,1,1,-3,3,3
1526903513648335,-9,15,6,7,0,-1,-6,-3
1526903513654319,-10,9,2,-8,5,10,9,2
1526903513654319,-21,-7,-16,-19,-13,-8,-9,-30
1526903513671274,23,-4,-1,18,-7,-8,-8,8
1526903513671274,11,-4,0,-2,6,0,5,-1
1526903513672271,-17,6,4,37,11,19,-2,-5
1526903513672271,40,14,0,-32,-4,-13,-4,0
1526903513693215,-77,-21,-12,-41,-28,14,5,-6
1526903513693215,-24,-4,9,45,9,2,8,-17
1526903513695210,41,6,-3,3,4,-1,10,-3
1526903513695210,-59,8,8,19,6,4,5,13
1526903513708175,97,-2,-1,-5,-5,-4,-10,14
1526903513708175,-96,1,-11,-55,-18,-36,-41,-85
1526903513715156,53,-11,-2,4,-2,21,10,24
1526903513715156,-60,-6,-1,12,10,-1,14,12
1526903513731114,20,7,4,1,7,7,-13,-2
1526903513731114,12,-1,0,-14,-5,3,2,20
1526903513733109,50,6,-1,-5,-5,-15,-5,-7
1526903513733109,-20,-3,-2,1,0,2,-2,-15
1526903513754052,32,-2,3,8,4,-1,12,9
1526903513754052,-13,-4,-4,-1,-5,1,-6,1
1526903513755050,5,1,4,9,3,-1,-2,-3
1526903513755050,23,-4,2,8,4,10,11,14
1526903513768015,-27,-2,-2,5,2,-10,-3,-10
1526903513768015,19,3,5,8,6,11,5,15
1526903513774996,-7,-2,-8,-20,-4,-9,-8,-4
1526903513774996,5,-2,-4,-4,-7,-1,-2,-2
1526903513790954,-2,-3,1,11,6,-4,3,0
1526903513790954,13,3,-2,-6,-2,-3,-2,1
1526903513792949,7,-1,-2,-8,-2,1,4,12
1526903513792949,-8,3,-2,5,1,3,0,-8
1526903513813892,-33,-3,-2,0,0,-5,-1,-1
1526903513813892,17,-10,-6,-2,-2,2,-1,-23
1526903513814890,-12,-2,3,-9,-5,-2,-1,20
1526903513814890,7,-4,-1,4,2,-1,-3,-5
1526903513827855,6,10,4,2,2,-4,4,-4
1526903513827855,9,0,0,-1,-1,4,3,7
1526903513834836,3,-6,-5,-5,-2,-3,-1,1
1526903513834836,2,13,3,-5,-4,-2,-3,-12
1526903513850794,-9,-7,2,4,2,2,5,4
1526903513850794,30,1,-1,2,2,-2,-2,7
1526903513852789,13,1,-1,-4,-4,-5,-6,-8
1526903513852789,3,-20,-9,-2,1,0,0,-1
1526903513873732,-3,23,8,7,2,1,-4,-13
1526903513873732,-5,-5,-5,-1,0,3,0,-4
1526903513874730,6,5,3,-2,0,-1,3,20
1526903513874730,27,-3,-7,-5,-4,-7,-10,2
1526903513887695,-41,-19,-6,0,-2,-5,-1,-14
1526903513887695,36,17,8,7,6,1,2,-3
1526903513894676,-75,-15,-7,-11,-12,-3,-7,-22
1526903513894676,22,8,0,-15,0,7,7,7
1526903513910634,-86,-21,-11,-16,-2,-7,-17,-73
1526903513910634,60,14,13,59,15,4,4,52
1526903513912628,14,-9,-1,-18,-4,-5,2,20
1526903513912628,10,9,8,54,10,3,-1,-3
1526903513933572,-11,-3,-3,-23,-1,0,1,16
1526903513933572,-38,-9,0,-44,-3,2,6,-8
1526903513935567,-23,7,1,18,6,8,-16,6
1526903513935567,23,4,-1,5,6,-3,4,11
1526903513947535,86,9,10,17,0,10,19,56
1526903513947535,-37,-15,-2,7,-1,0,4,-4
1526903513954516,21,17,-1,-10,-2,-3,1,17
1526903513954516,-10,-13,-8,-40,-13,-4,-11,-13
1526903513971471,14,-1,1,32,6,-16,-5,27
1526903513971471,-47,4,0,-3,0,9,-3,-17
1526903513972469,27,-5,-6,5,0,11,-2,-37
1526903513972469,7,4,4,8,2,4,3,27
1526903513993412,-34,3,-5,-10,-8,-19,-3,-32
1526903513993412,24,-4,-10,-40,-8,8,8,27
1526903513995407,-54,-4,-2,14,-3,-12,-7,-38
1526903513995407,-22,0,-3,-28,-17,-9,-12,-4
1526903514008372,-22,-4,2,56,16,-5,-6,-6
1526903514008372,0,7,1,-22,-9,-21,-10,15
1526903514014357,4,-10,-7,-10,0,38,17,-20
1526903514014357,-34,0,-3,-20,-6,-13,8,5
1526903514031311,36,-11,2,-9,-7,0,-2,6
1526903514031311,5,2,-4,-6,-2,-9,-1,-3
1526903514032309,41,6,3,2,3,-10,7,45
1526903514032309,-20,-1,-6,-1,-1,-1,-13,-58
1526903514053252,46,-2,-2,-12,-5,6,3,35
1526903514053252,9,-6,-6,16,2,1,-10,-18
1526903514055247,8,1,4,-4,-1,-6,-1,28
1526903514055247,-1,-16,-2,11,4,6,5,-8
1526903514068212,-23,25,6,-5,2,2,0,-5
1526903514068212,-29,-32,-7,0,-3,-6,-9,-22
1526903514074196,0,18,-6,0,-17,-19,-5,-17
1526903514074196,16,-62,0,3,16,5,17,49
1526903514091151,-38,76,-8,-24,-3,18,-20,-40
1526903514091151,37,-13,4,4,0,8,13,21
1526903514093146,-34,-25,-4,-4,-12,-7,2,-7
1526903514093146,17,-4,-2,11,5,0,-1,6
1526903514113092,40,-39,-6,3,5,-10,-5,2
1526903514113092,-19,-5,3,4,-2,3,-1,22
1526903514115087,34,22,6,-1,8,-5,3,16
1526903514115087,-38,4,-9,-1,-9,-2,-5,-29
1526903514127055,13,-7,6,-2,4,4,8,31
1526903514127055,-30,24,-5,-13,-9,-8,-21,-60
1526903514136031,63,-15,-3,-8,5,-2,1,5
1526903514136031,-27,20,12,46,10,-4,12,14
1526903514150991,4,-11,-4,-11,-6,7,5,10
1526903514150991,-6,-9,1,-5,4,1,2,2
1526903514152986,23,-1,-9,-11,-12,-7,-16,-1
1526903514152986,32,13,-1,-7,-2,-14,0,-17
1526903514173929,10,-8,3,13,-7,2,0,-9
1526903514173929,44,3,-1,-14,-1,-2,10,-10
1526903514174927,-12,-19,-4,8,17,17,2,-2
1526903514174927,-8,23,3,-26,-8,-11,4,26
1526903514186895,5,-22,-8,-19,-9,-9,-19,-15
1526903514186895,4,7,1,10,-13,-10,14,14
1526903514195871,-91,10,1,11,0,8,-5,-17
1526903514195871,0,-5,-1,37,17,36,11,6
1526903514210831,-20,-5,0,-15,2,-21,11,4
1526903514210831,0,-7,-2,13,4,-2,-13,-15
1526903514212826,-41,0,-4,-8,1,-30,1,5
1526903514212826,-9,-2,-4,-13,-11,40,-7,-9
1526903514233770,-6,0,4,-1,-3,0,-4,0
1526903514233770,0,3,5,9,8,8,7,12
1526903514234767,-15,-5,-4,3,-6,-7,-1,-22
1526903514234767,9,2,-3,-16,-2,-13,-9,3
1526903514247732,7,-11,-3,-5,4,24,6,-32
1526903514247732,-4,1,0,4,-8,-33,-7,-4
1526903514256708,38,5,-1,-6,3,6,-1,8
1526903514256708,20,6,-2,-11,-5,-6,-4,4
1526903514270671,-17,-5,3,9,2,2,3,1
1526903514270671,-1,-4,-1,7,1,3,-5,-9
1526903514272666,10,-18,-8,-3,2,3,-1,-1
1526903514272666,4,31,8,-2,-5,-13,-1,11
1526903514293609,-27,-12,0,6,4,-12,-3,-6
1526903514293609,-9,-27,-12,-5,-3,6,-3,0
1526903514295604,9,26,6,-9,7,14,3,15
1526903514295604,5,-12,-3,-2,-4,9,8,-9
1526903514307572,-3,-1,4,10,3,5,9,27
1526903514307572,-12,-9,0,-5,5,7,-3,-9
1526903514316549,-12,9,1,1,-3,-8,-7,-25
1526903514316549,40,-14,-4,3,0,-10,-6,1
1526903514331509,31,1,-4,1,-5,-4,-6,-11
1526903514331509,-18,-2,-3,-3,-9,0,-1,-6
1526903514332506,2,1,3,2,1,2,6,8
1526903514332506,58,6,-2,-5,-2,-2,-5,12
1526903514353449,-22,-14,-11,-7,-2,-4,2,-26
1526903514353449,-29,2,3,4,1,3,-6,8
1526903514355444,6,1,-2,-6,-5,-2,3,14
1526903514355444,14,9,2,-12,6,-6,-1,-4
1526903514367412,-21,-8,-6,5,-5,-4,-6,-6
1526903514367412,-5,8,5,16,6,6,0,-22
1526903514376388,40,2,0,-15,-5,-3,-1,-4
1526903514376388,-17,-3,-4,-5,-1,-3,-2,-10
1526903514391348,6,-1,2,17,-1,1,9,24
1526903514391348,50,5,0,-14,0,8,-1,18
1526903514392345,-23,-6,-4,4,1,-9,-4,1
1526903514392345,-25,-6,2,-7,-4,-7,-8,-13
1526903514413289,10,4,-1,-33,-9,-5,0,7
1526903514413289,-1,9,-3,0,-6,-8,-5,4
1526903514415284,12,-4,7,32,1,-20,12,-11
1526903514415284,-39,-8,-5,0,11,19,1,6
1526903514427252,-1,-4,0,-16,-7,-17,-10,-5
1526903514427252,20,6,1,16,3,5,5,14
1526903514436228,-17,3,-6,-22,-3,8,-10,-15
1526903514436228,-70,4,-4,-2,-7,-5,8,-7
1526903514451188,11,-4,4,-10,8,9,0,22
1526903514451188,-27,4,1,-9,-33,-25,-6,-10
1526903514453183,39,-16,-6,-8,58,-4,21,-2
1526903514453183,6,8,-2,30,-9,33,13,15
1526903514473129,6,7,-1,-5,-11,-2,4,5
1526903514473129,-6,-1,0,-10,7,-9,-2,6
1526903514475124,-55,-5,2,30,-7,12,0,-9
1526903514475124,2,-7,-4,-37,-4,-17,-13,-4
1526903514487092,2,5,4,18,6,-1,1,-1
1526903514487092,35,0,1,0,6,17,11,36
1526903514496068,-15,-12,-13,-27,-21,-15,-19,-2
1526903514496068,-15,1,-1,-7,0,-10,-9,-66
1526903514511028,1,2,8,48,2,5,-2,13
1526903514511028,-3,0,-3,-9,7,0,4,11
1526903514513023,7,10,-1,-9,-7,9,-2,8
1526903514513023,-18,-4,-1,3,-5,-12,3,14
1526903514533967,-17,-46,-5,-2,4,0,-1,-2
1526903514533967,-15,44,13,10,3,-13,-6,-16
1526903514534964,26,-8,-3,-3,-5,21,13,51
1526903514534964,-10,-18,-16,-13,-7,8,-3,-13
1526903514555908,17,-6,-8,-12,0,-9,1,8
1526903514555908,-9,-2,5,5,10,4,-4,-2
1526903514557903,-1,24,19,15,-9,-1,2,24
1526903514557903,0,21,-8,-12,-2,-1,-6,-2
1526903514570868,-13,-20,-12,-6,-2,5,-1,-1
1526903514570868,3,-19,-1,7,-4,-9,-7,-4
1526903514572863,-17,17,2,7,8,0,-1,-15
1526903514572863,35,-18,4,6,0,-6,4,20
1526903514592809,12,33,11,8,-2,-2,0,-16
1526903514592809,18,-7,-14,-11,-4,1,-4,-10
1526903514600788,-18,-8,-3,-8,-8,-6,-5,-17
1526903514600788,3,-5,2,10,4,-5,-1,10
1526903514615748,18,9,8,0,-2,4,3,23
1526903514615748,6,9,-2,-7,-2,6,-1,5
1526903514617743,26,-12,-8,-2,-2,1,-4,7
1526903514617743,-45,-5,1,9,-1,8,-1,-25
1526903514630708,28,7,1,1,0,-9,0,7
1526903514630708,-41,-15,-3,-8,4,20,5,-4
1526903514632703,19,0,0,15,-3,-7,-5,-5
1526903514632703,44,17,1,-10,1,-2,-2,25
1526903514653647,-112,-13,-7,-9,-4,-4,-12,-44
1526903514653647,-28,-4,-5,-20,-2,1,6,0
1526903514655641,-10,6,0,27,-1,0,-6,-17
1526903514655641,-13,-6,5,-7,2,-4,1,8
1526903514676585,5,3,0,-35,1,8,1,9
1526903514676585,5,-10,5,69,8,-1,3,-3
1526903514677583,26,9,-3,4,-4,-3,-15,-41
1526903514677583,19,0,1,-13,-3,-7,-3,22
1526903514690548,-51,-5,-1,39,6,-19,-3,-21
1526903514690548,28,0,-3,-36,-6,36,0,14
1526903514697529,-3,2,1,4,-2,5,23,-3
1526903514697529,13,0,1,1,-1,-20,-13,5
1526903514713486,41,3,2,0,-7,52,4,-3
1526903514713486,-4,16,-4,3,0,-27,3,-12
1526903514715481,-50,-37,-10,-10,-5,-27,-16,10
1526903514715481,7,8,6,-3,-1,5,7,17
1526903514736425,-52,3,-2,3,2,-16,-4,-32
1526903514736425,31,-4,0,3,-3,5,10,2
1526903514737423,2,10,1,-27,-8,13,4,2
1526903514737423,-26,-8,-1,14,3,-12,4,10
1526903514750388,53,7,-2,-21,-7,-2,-5,-7
1526903514750388,-21,-9,-2,3,2,-3,-8,-7
1526903514757369,-23,5,3,19,3,-5,1,-5
1526903514757369,-14,-3,3,19,7,5,-1,-17
1526903514773326,24,4,0,2,0,0,-1,16
1526903514773326,-25,-3,-10,-35,-7,-1,-11,-12
1526903514775322,10,-2,-4,-12,-5,-3,6,-5
1526903514775322,14,-4,-7,-3,-7,1,1,3
1526903514796265,14,16,12,4,-5,-24,-1,11
1526903514796265,-16,-49,-5,5,5,2,-1,16
1526903514797263,-14,66,3,-20,7,25,1,1
1526903514797263,-5,-32,-12,1,-13,-3,-3,-2
1526903514810228,19,21,8,4,2,-1,-1,-2
1526903514810228,-5,7,6,8,2,-11,0,13
1526903514817209,18,-19,-1,0,-16,-18,-5,24
1526903514817209,-4,6,-2,-8,10,10,-8,-45
1526903514833166,-18,-19,-6,2,4,10,8,7
1526903514833166,11,10,1,5,-2,-7,-4,-16
1526903514835161,13,-16,-7,-11,-1,3,0,10
1526903514835161,-55,3,-3,2,-7,-11,-4,-31
1526903514856105,12,-8,2,3,1,1,0,12
1526903514856105,26,7,-2,-6,3,3,-2,-15
1526903514858100,10,-2,1,-3,-2,-2,5,33
1526903514858100,5,-5,-2,2,-5,-6,-8,-20
1526903514870068,-19,4,-2,-5,4,6,-3,0
1526903514870068,-16,-6,-2,3,-3,5,5,11
1526903514877049,4,-4,-8,-21,-7,-12,-5,-19
1526903514877049,33,12,10,11,4,1,0,5
1526903514894004,25,5,5,30,9,13,4,-3
1526903514894004,52,-4,-9,-16,-12,-22,-11,-6
1526903514895002,4,-2,-1,5,12,1,11,-7
1526903514895002,-56,-1,-3,-12,-8,8,5,-2
1526903514915945,7,-2,0,14,8,-7,-5,5
1526903514915945,53,8,-3,-20,-6,-3,-6,-12
1526903514917940,-14,4,2,15,-4,-3,-10,-14
1526903514917940,16,0,5,43,8,5,19,28
1526903514929908,-18,-2,-1,-4,2,21,-3,20
1526903514929908,6,7,-2,-16,-1,-16,2,-3
1526903514938884,-35,-18,-12,-41,-15,9,-11,-16
1526903514938884,-21,18,12,54,6,-18,-1,-15
1526903514953844,15,-18,-11,-18,-13,-10,-15,-34
1526903514953844,-33,2,-4,-5,4,15,0,-4
1526903514954841,24,7,1,-11,1,-7,-4,1
1526903514954841,3,-11,0,-5,2,-1,1,19
1526903514975785,5,-8,-2,-4,-3,-9,1,-30
1526903514975785,-6,8,2,10,-1,-5,-5,-12
1526903514977780,9,4,2,18,2,-3,1,-7
1526903514977780,-24,-9,-4,-18,-2,10,1,0
1526903514989748,22,6,-2,-15,-5,-5,3,22
1526903514989748,-20,-8,0,-2,-4,5,5,4
1526903514998724,11,-5,-5,-9,-2,1,1,10
1526903514998724,6,-1,-1,8,3,-1,-9,-23
1526903515013684,-12,-1,-5,-7,-2,-4,-2,0
1526903515013684,-8,9,13,16,6,5,15,50
1526903515015678,-21,-6,-12,-2,-7,-8,-16,-15
1526903515015678,41,-1,-5,-29,-9,-5,-2,18
1526903515035625,-10,-36,-8,0,-2,-7,1,2
1526903515035625,19,81,23,23,5,-2,2,0
1526903515037620,4,-17,1,0,-10,-2,2,5
1526903515037620,19,5,-2,-16,26,28,-4,6
1526903515058564,-35,-8,-2,0,-14,3,10,4
1526903515058564,1,-12,-8,-2,-3,3,1,-2
1526903515060559,6,16,10,12,1,-5,12,9
1526903515060559,-1,-9,-10,-9,-5,-20,-18,-3
1526903515073524,-32,-10,-1,-2,4,6,-2,6
1526903515073524,1,-16,-8,-4,4,-1,-6,-30
1526903515075519,17,19,11,8,0,2,10,9
1526903515075519,38,-11,-1,1,-6,1,10,53
1526903515096462,-23,-3,-8,-11,-4,-12,-16,-26
1526903515096462,-33,-11,-7,-2,-10,-5,-4,1
1526903515097460,-17,-8,-7,-1,7,3,-1,-14
1526903515097460,-3,10,5,-4,-5,3,0,-11
1526903515118404,8,11,8,4,-1,-1,8,22
1526903515118404,26,-13,-7,-9,-1,-4,-9,-10
1526903515120398,-31,-2,-6,2,7,17,0,6
1526903515120398,30,6,2,-19,-1,4,6,-20
1526903515133364,2,-10,0,-1,-6,-10,-2,18
1526903515133364,-8,-16,2,24,3,6,4,0
1526903515139348,58,14,-2,-18,0,1,7,14
1526903515139348,-32,7,-8,-19,-13,-15,-9,-9
1526903515156302,40,-12,-2,0,3,1,-4,7
1526903515156302,-79,-2,1,-11,7,10,2,-6
1526903515157300,20,-7,-3,6,-3,-9,-9,30
1526903515157300,-17,-1,-1,-25,-20,-2,12,11
1526903515178243,25,33,14,22,7,-13,-2,-57
1526903515178243,-10,-29,-13,8,-5,62,11,17
1526903515180239,-10,24,6,-11,-5,-25,-13,37
1526903515180239,-91,-18,-12,-18,5,-15,-3,-60
1526903515193203,28,3,7,6,-5,40,-1,3
1526903515193203,59,6,-3,-8,-10,-72,-6,16
1526903515200185,-47,-14,-1,3,8,40,11,-36
1526903515200185,51,0,6,12,-4,18,22,69
1526903515216142,-21,16,-4,3,4,-9,-16,-15
1526903515216142,-33,-14,-3,-13,-9,-1,4,-9
1526903515218137,35,-3,1,6,3,-5,1,12
1526903515218137,-44,2,2,39,3,-17,-14,-27
1526903515230105,10,-5,-1,21,6,4,7,13
1526903515230105,-19,7,-5,-37,-10,2,-10,6
1526903515239081,5,13,4,8,2,-19,-3,-15
1526903515239081,34,-12,-3,-12,1,11,0,-23
1526903515254041,-49,-6,-1,-8,0,16,2,10
1526903515254041,60,6,1,14,4,-14,-10,-3
1526903515255038,-33,0,-4,-2,-4,5,4,-42
1526903515255038,-19,-3,-2,8,6,0,-6,-11
1526903515275982,17,5,0,-16,-4,-3,9,17
1526903515275982,-27,4,-3,-4,0,-2,3,-13
1526903515277977,34,-13,-2,8,2,5,-4,-21
1526903515277977,-34,4,4,-1,-1,-3,-8,2
1526903515289945,14,-13,-3,-3,0,-16,0,21
1526903515289945,5,-3,-4,7,-7,-1,-4,1
1526903515298921,-6,1,1,0,-6,-9,-2,-19
1526903515298921,34,30,5,-3,7,11,1,1
1526903515313881,11,-11,-4,-7,2,-3,0,20
1526903515313881,-20,3,2,6,7,12,6,4
1526903515314878,-30,-17,-10,-8,-10,-7,-2,-3
1526903515314878,38,-19,-2,4,-5,-21,-11,1
1526903515335822,-23,14,4,2,3,1,0,-16
1526903515335822,21,6,4,2,5,12,16,23
1526903515337817,-34,-2,-9,-7,-8,-12,-25,-13
1526903515337817,7,9,6,1,-3,-8,6,20
1526903515358761,-10,-12,-5,-10,2,1,1,4
1526903515358761,-24,-1,5,10,-1,-5,-3,-3
1526903515360756,-9,-7,4,26,9,18,16,26
1526903515360756,31,7,4,12,5,-4,1,9
1526903515372723,-16,-3,-3,-16,-7,-9,-8,-3
1526903515372723,18,0,0,-8,0,-2,2,-21
1526903515381700,-50,-15,-14,-8,0,1,-7,-20
1526903515381700,9,-2,-1,-7,-5,10,-5,0
1526903515395662,-18,2,3,-15,-8,-9,5,1
1526903515395662,41,1,-1,25,8,-2,-13,8
1526903515397657,20,4,3,13,-1,-10,2,7
1526903515397657,17,-5,0,-11,-8,6,4,2
1526903515409625,-7,-1,0,32,6,-1,-6,-23
1526903515409625,46,9,9,-6,2,8,7,46
1526903515418601,-75,-9,-23,-46,-20,-2,-22,-80
1526903515418601,-9,0,1,6,7,-11,1,0
1526903515433561,30,-3,5,20,-5,-4,-5,11
1526903515433561,-32,-7,-12,-37,2,7,-5,14
1526903515435556,42,15,6,4,6,59,25,23
1526903515435556,-6,-12,-4,19,4,-13,-8,18
1526903515456500,-33,-6,-8,-19,-6,9,-14,-39
1526903515456500,20,1,-1,-12,2,-16,9,-12
1526903515457497,-38,-15,-9,-29,-7,-18,-7,-43
1526903515457497,-21,4,4,15,3,12,-1,-9
1526903515478441,27,12,5,-18,3,-16,9,45
1526903515478441,11,-11,-7,27,-5,6,-11,-18
1526903515480436,19,13,5,-15,1,0,4,14
1526903515480436,15,-6,1,7,-5,-12,-1,-3
1526903515493401,-4,6,1,3,2,4,6,5
1526903515493401,-4,-5,2,5,-4,0,-3,-10
1526903515495396,-12,-8,0,4,1,-12,3,25
1526903515495396,48,9,5,16,-4,14,10,45
1526903515516339,12,-1,-10,-25,-10,-17,-16,-23
1526903515516339,-19,2,-4,-17,-4,6,4,-7
1526903515517337,-26,-11,1,27,6,-10,-3,15
1526903515517337,2,5,-5,-18,-6,-8,-7,-16
1526903515538281,-6,0,1,24,1,8,8,-6
1526903515538281,-29,-6,2,6,2,-3,6,35
1526903515540276,34,6,-6,-5,-5,-17,-20,-26
1526903515540276,17,-7,5,-9,-1,7,4,-7
1526903515553241,-22,1,-1,8,5,-1,6,8
1526903515553241,-2,-25,-11,-5,-17,-9,-7,-18
1526903515555236,24,53,20,7,8,12,13,34
1526903515555236,-15,-10,-10,-10,-6,4,-7,-23
1526903515576179,0,-12,2,8,11,8,16,18
1526903515576179,-9,-1,-2,-1,4,-4,-2,10
1526903515578174,0,-14,-1,1,-9,-11,0,2
1526903515578174,-56,6,0,3,9,5,-3,-27
1526903515598121,101,6,4,-3,-1,6,9,47
1526903515598121,22,0,-7,-6,-3,-9,-6,-22
1526903515600116,5,-1,0,8,0,-2,3,24
1526903515600116,39,10,3,-5,-1,-8,2,11
1526903515613081,-50,-6,-1,-12,-3,-11,4,3
1526903515613081,-7,13,6,11,5,10,5,-18
1526903515615076,94,-2,-8,2,-3,-7,-13,27
1526903515615076,-98,-27,-9,-10,-7,-3,3,-86
1526903515636019,20,7,1,-11,3,2,-1,-17
1526903515636019,-14,5,-2,-8,-11,-2,-4,1
1526903515638014,1,-1,8,37,14,0,1,11
1526903515638014,15,-19,-4,14,9,5,9,23
1526903515658958,-74,19,2,-11,-6,-7,-8,-27
1526903515658958,-39,-26,-8,-13,-3,1,6,-7
1526903515659956,21,1,4,-2,14,7,3,13
1526903515659956,28,6,-5,5,-8,-59,-17,-7
1526903515672921,-20,-6,-4,-17,-17,61,7,-12
1526903515672921,38,23,13,34,15,14,-20,44
1526903515679902,-80,1,-7,-9,-8,-8,10,-23
1526903515679902,-14,-38,-4,12,-6,-12,3,17
1526903515695859,84,13,-2,-26,0,-21,-6,7
1526903515695859,-37,6,5,-2,7,-7,16,-48
1526903515697854,14,-9,-9,-25,-20,-14,-20,-6
1526903515697854,9,22,12,34,18,34,13,27
1526903515718798,8,-23,-8,-5,-8,-11,-13,-11
1526903515718798,-39,0,2,9,3,20,9,9
1526903515719795,-33,-1,0,-3,5,-13,6,-19
1526903515719795,8,4,-5,-16,-14,6,-6,9
1526903515732761,43,8,11,28,9,3,11,43
1526903515732761,-17,-15,-21,-14,-7,-29,-22,-15
1526903515739742,-18,6,0,-28,-5,8,7,12
1526903515739742,18,-6,0,14,6,5,-3,19
1526903515755699,11,-2,2,19,7,3,-6,6
1526903515755699,-12,3,-4,-18,-15,-19,-6,-66
1526903515757694,3,-4,-2,-7,1,5,-3,-3
1526903515757694,19,2,2,-9,4,17,5,-1
1526903515778638,14,0,-3,5,-4,-18,0,37
1526903515778638,-74,0,-18,-14,-8,-8,-32,-67
1526903515780633,57,-13,1,0,0,3,3,19
1526903515780633,4,8,2,-16,-2,-4,0,6
1526903515792600,-20,-13,-1,33,5,-2,-6,6
1526903515792600,27,9,5,-4,0,1,6,16
1526903515800579,-37,0,4,17,5,2,13,31
1526903515800579,-3,5,-9,-24,-14,-8,-16,-18
1526903515815539,-24,-21,-12,-16,-10,-14,-8,-23
1526903515815539,64,21,21,15,4,6,14,61
1526903515816537,-31,16,-10,-12,11,6,-6,-71
1526903515816537,15,19,9,1,-1,6,8,32
1526903515837482,-14,-20,-10,-9,-5,1,-2,-16
1526903515837482,17,-5,6,12,-6,-4,14,64
1526903515838478,67,11,0,-4,-5,-12,-9,-6
1526903515838478,-39,-29,-3,-7,9,9,4,20
1526903515852441,-3,6,3,3,-6,-18,-13,-78
1526903515852441,21,-6,-5,-7,2,8,8,20
1526903515860419,8,3,-3,-26,-16,-2,-3,17
1526903515860419,-22,-11,4,26,4,6,5,-26
1526903515875379,30,25,12,18,3,-11,-1,-6
1526903515875379,-3,-28,-8,-12,8,13,12,38
1526903515876377,-59,-10,-6,5,-8,-10,-11,-74
1526903515876377,-11,4,-8,-29,-10,0,-9,-24
1526903515898318,2,1,6,-1,3,2,4,62
1526903515898318,27,-1,-9,-4,-10,-2,-10,-31
1526903515898318,9,-2,4,-16,-2,1,5,28
1526903515898318,-13,0,3,25,5,-5,1,4
1526903515912280,1,20,12,13,10,15,26,57
1526903515912280,21,-18,-9,-20,-7,-16,-18,15
1526903515920259,-6,3,7,52,3,12,4,23
1526903515920259,-9,-15,-1,-2,-1,-2,4,-1
1526903515935219,19,1,-2,-1,0,3,-4,-35
1526903515935219,7,14,-3,-27,5,-1,-3,-24
1526903515936217,-56,-18,1,8,4,-7,7,-10
1526903515936217,108,24,5,-32,-12,-61,-13,80
1526903515958158,-103,-30,-23,25,2,78,-29,-124
1526903515958158,-9,14,1,0,12,-19,20,30
1526903515959155,27,5,1,-24,-3,15,3,2
1526903515959155,31,11,11,48,9,6,-15,8
1526903515972121,10,-18,-9,-51,-4,-13,1,-11
1526903515972121,-26,6,5,37,0,-11,8,-39
1526903515980099,18,3,-3,-3,0,-1,0,-50
1526903515980099,-47,-11,-5,-23,-3,-5,-5,-10
1526903515995059,18,7,2,-5,-9,-13,-12,-8
1526903515995059,-15,1,2,18,3,12,-5,-5
1526903515996057,31,-4,4,-3,0,-9,7,42
1526903515996057,-30,-14,-9,-11,-1,24,1,-33
1526903516017998,9,9,-2,1,-3,-17,-5,26
1526903516017998,-21,3,4,0,-5,0,-5,-22
1526903516018996,31,-2,1,4,-2,-4,8,45
1526903516018996,-1,10,-7,-15,-3,7,-8,-29
1526903516040936,2,-10,-6,1,8,5,6,45
1526903516040936,-25,-26,-6,-10,-3,-5,-4,-52
1526903516041934,20,25,13,8,-3,-1,-11,14
1526903516041934,-30,-17,-9,-6,-9,-2,-2,-65
1526903516054899,17,3,2,-9,0,-25,0,7
1526903516054899,-2,15,5,0,-8,8,-2,24
1526903516055897,-3,-21,-9,1,18,13,-5,12
1526903516055897,-21,-2,-1,-5,-4,7,9,-29
1526903516077838,-18,12,2,-3,-3,-6,4,-7
1526903516077838,-20,-8,-9,-4,-2,-1,-4,17
1526903516078835,6,2,7,7,-7,-3,10,27
1526903516078835,8,1,0,-3,-6,-7,-6,-10
1526903516100777,-85,-7,-5,-6,6,3,-3,-31
1526903516100777,39,15,-4,-1,-6,0,-4,-25
1526903516101774,-74,-8,-3,-9,-5,-5,15,55
1526903516101774,48,1,7,1,12,0,-5,1
1526903516115736,33,-5,-8,5,-23,-10,-12,-2
1526903516115736,-35,-8,-11,-6,10,0,0,16
1526903516116734,5,4,2,20,5,5,-2,-9
1526903516116734,-21,-2,5,-10,-1,20,4,30
1526903516137678,21,-5,2,-17,-1,-11,6,-4
1526903516137678,-6,1,-2,11,1,-8,-8,6
1526903516138675,28,1,-6,-25,-6,-2,-6,10
1526903516138675,16,-4,-6,0,3,-4,0,-9
1526903516160617,1,5,1,-11,-6,4,-9,-32
1526903516160617,16,-7,1,13,-3,12,14,25
1526903516161614,72,-3,-6,-14,-6,-18,-21,-33
1526903516161614,4,-11,-1,36,2,-38,-14,17
1526903516175577,-4,3,5,29,4,22,10,11
1526903516175577,33,13,4,-5,0,8,-9,-35
1526903516176574,-34,1,-3,-47,-10,3,34,-62
1526903516176574,-18,-5,-2,8,-1,-33,-22,13
1526903516197518,59,-5,6,3,18,24,25,77
1526903516197518,-11,9,-1,-6,-16,-22,-11,-36
1526903516198515,15,-7,-5,2,2,12,-5,0
1526903516198515,-39,-3,0,-25,5,27,11,-35
1526903516220456,-68,1,0,17,4,-49,-13,20
1526903516220456,-6,5,3,-16,-3,18,13,36
1526903516221454,-37,3,-5,17,-8,-17,-33,-106
1526903516221454,-20,-13,-3,-21,-7,11,15,-5
1526903516235416,3,12,2,23,-1,4,-5,12
1526903516235416,31,-22,-2,0,4,3,9,4
1526903516236414,0,4,1,27,3,-7,3,24
1526903516236414,-15,12,5,3,0,13,3,19
1526903516258355,-43,-10,-2,-16,-6,0,7,-22
1526903516258355,19,14,2,-3,-3,-10,-11,11
1526903516258355,-48,-26,-9,7,5,6,0,-39
1526903516258355,45,10,3,3,-5,6,7,43
1526903516280296,30,3,5,-28,0,8,10,40
1526903516280296,49,9,1,11,4,-10,-15,23
1526903516281294,28,2,6,24,6,5,5,50
1526903516281294,-43,-8,-1,12,5,3,14,2
1526903516297252,30,7,0,-1,-4,1,3,5
1526903516297252,-31,-2,-5,-18,1,-4,-8,27
1526903516297252,-77,-26,-15,-16,-10,-14,-24,-68
1526903516297252,29,23,6,-1,-8,6,-5,2
1526903516318195,-8,-22,-2,4,17,18,3,-1
1526903516318195,-7,27,-1,-3,-10,1,9,8
1526903516318195,-4,-17,1,3,7,0,1,37
1526903516318195,18,11,3,8,-10,-9,-5,-39
1526903516340136,-5,-9,-4,-12,4,-5,-13,-39
1526903516340136,-26,5,1,2,5,9,2,-21
1526903516341134,17,-2,0,1,-8,-6,-5,17
1526903516341134,8,-3,1,-8,1,3,13,-23
1526903516355096,-33,15,-2,1,-8,-10,-12,-5
1526903516355096,42,-8,0,-6,0,-5,-3,-8
1526903516356094,-33,24,4,-4,4,4,2,12
1526903516356094,16,-20,3,45,11,0,6,42
1526903516378035,-14,0,1,15,1,-4,0,27
1526903516378035,3,1,17,11,7,18,20,10
1526903516379033,22,15,-6,-22,-15,-2,-1,31
1526903516379033,18,-9,-16,-29,-1,7,-6,9
1526903516399977,0,11,-3,2,-13,-13,-5,-23
1526903516399977,-17,-9,1,20,7,-1,1,7
1526903516400974,24,-4,7,14,5,4,8,15
1526903516400974,33,2,2,0,2,-5,-8,22
1526903516415933,-62,-13,-8,-16,-6,-3,-3,-28
1526903516415933,80,6,1,-21,-14,5,6,38
1526903516415933,-44,-14,-10,-4,-2,-9,-12,-7
1526903516415933,-75,13,1,-12,-3,0,-13,-11
1526903516437875,32,-13,-2,24,12,-6,15,-72
1526903516437875,25,-12,-6,3,-7,-15,-5,-32
1526903516438872,-25,6,5,67,14,14,-3,1
1526903516438872,38,-7,6,-14,0,23,11,58
1526903516460814,-6,1,-16,-27,-10,-28,-26,-48
1526903516460814,-35,-1,-6,-40,-4,65,21,9
1526903516460814,46,-2,0,10,-9,-53,5,53
1526903516460814,-26,6,5,19,7,-18,-1,-37
1526903516475774,68,-4,-9,-28,-18,1,-11,25
1526903516475774,-5,-5,-6,0,23,-37,-29,-28
1526903516476771,-16,12,1,-28,-1,30,-2,1
1526903516476771,-32,-32,-5,13,0,14,10,19
1526903516497715,-1,9,6,-4,7,-5,5,9
1526903516497715,-56,-6,-10,3,-13,-21,-11,-36
1526903516498713,18,5,5,-33,-4,13,4,5
1526903516498713,14,-1,2,44,9,-16,-7,-6
1526903516520653,21,3,0,-2,-5,14,7,19
1526903516520653,-17,0,-2,1,-10,1,-7,7
1526903516521651,33,0,6,-7,2,-2,8,28
1526903516521651,-33,-5,-7,-13,-3,0,-5,-45
1526903516535613,26,10,-1,-4,-4,3,5,37
1526903516535613,-14,-12,-2,33,5,-1,1,15
1526903516536611,25,-2,0,-5,4,-3,-4,-4
1526903516536611,16,4,0,-10,-2,-6,-3,16
1526903516557555,27,3,5,12,3,8,4,25
1526903516557555,-18,0,-3,-16,1,-10,-1,-4
1526903516558552,-9,-3,-1,7,-3,8,5,-31
1526903516558552,21,3,0,-11,-6,2,-10,11
1526903516580494,-20,-5,3,4,1,-13,0,-9
1526903516580494,-38,-10,-9,-10,-11,0,-1,-67
1526903516581491,10,23,-5,-8,-4,4,-10,-18
1526903516581491,9,3,7,-1,1,4,7,19
1526903516595454,-34,-18,-12,-3,8,-10,-4,-5
1526903516595454,31,6,0,-1,4,10,7,28
1526903516596451,-28,-11,-7,-2,0,5,0,-39
1526903516596451,1,9,4,-4,-7,-7,-6,-15
1526903516618392,-6,2,3,9,-1,0,-4,2
1526903516618392,-21,-5,4,5,0,-10,1,12
1526903516618392,-35,-11,-9,-21,-5,-3,-10,-17
1526903516618392,-3,11,-7,-45,-5,-5,-14,0
1526903516640333,-24,-33,1,53,-2,7,14,16
1526903516640333,0,17,1,6,5,1,-2,13
1526903516641331,19,1,5,15,4,0,3,16
1526903516641331,17,-3,-2,-17,-5,-5,7,3
1526903516663273,36,8,2,-19,0,8,3,22
1526903516663273,-15,-2,-9,-20,-11,-6,-12,-8
1526903516664270,-4,-10,1,7,-2,-2,-1,0
1526903516664270,15,-4,-2,7,0,-2,-5,11
1526903516678232,33,10,5,0,6,5,3,-7
1526903516678232,-1,-1,2,10,-3,1,3,10
1526903516678232,-8,5,-3,-7,-2,-3,-2,5
1526903516678232,16,-17,-4,8,0,6,4,-6
1526903516700174,-20,1,-3,-8,-8,-1,-10,-34
1526903516700174,70,15,-4,-50,0,0,3,23
1526903516701171,-42,-19,-2,26,-7,-17,-4,0
1526903516701171,2,11,9,20,4,-5,4,-16
1526903516715134,-24,-2,-12,-21,4,-5,-12,1
1526903516715134,15,-2,1,7,0,6,-7,17
1526903516723112,7,9,-2,-38,-8,1,10,8
1526903516723112,16,-11,1,7,14,39,0,17
1526903516738072,-21,3,4,10,-4,-8,11,-15
1526903516738072,-12,2,-7,-7,-3,-9,-35,1
1526903516739070,-40,-19,-9,-7,4,27,23,-27
1526903516739070,-21,3,-4,7,-9,-9,-12,-85
1526903516760013,-19,4,0,-16,-4,-12,-10,10
1526903516760013,-33,4,9,25,8,17,12,-6
1526903516761011,91,-5,3,5,-9,-15,-5,13
1526903516761011,28,5,-4,2,-7,-20,-7,19
1526903516774973,-8,-2,-3,-14,-9,24,-1,-3
1526903516774973,-17,1,3,26,6,-19,5,-7
1526903516782952,-34,6,2,-11,-3,1,-3,4
1526903516782952,2,-6,-3,-15,-8,-6,4,31
1526903516797912,35,9,-1,-8,-1,-12,-12,28
1526903516797912,-55,-6,5,16,3,-1,16,15
1526903516798910,21,-2,1,-1,8,5,-7,-29
1526903516798910,8,-1,0,-2,-6,0,4,29
1526903516820851,-43,0,-3,1,-2,0,-5,-42
1526903516820851,10,-2,-5,-4,-1,5,5,-4
1526903516820851,-1,8,7,10,7,-5,3,34
1526903516820851,-11,-12,-2,-7,0,-11,1,-10
1526903516834813,11,5,0,10,3,8,-1,-5
1526903516834813,37,13,3,-3,-2,2,7,-5
1526903516842792,-43,-26,-8,-9,-3,-11,-8,-11
1526903516842792,-1,7,0,3,0,1,-2,-24
1526903516857752,-10,2,1,16,0,9,4,3
1526903516857752,14,-10,-2,-4,7,-8,-3,-14
1526903516858749,11,1,1,4,-7,3,-1,15
1526903516858749,-17,-5,0,0,-5,-7,-2,8
1526903516880691,18,25,7,1,19,4,16,40
1526903516880691,-32,-1,-15,-17,-14,-1,-17,-36
1526903516881688,-12,-12,-2,2,-1,1,-4,-12
1526903516881688,-26,-17,-7,-4,-1,-2,-1,-4
1526903516894653,51,-2,2,0,-1,-14,-4,11
1526903516894653,-38,-2,1,2,-7,-1,6,-3
1526903516902632,37,10,-2,1,2,2,-5,-4
1526903516902632,-22,3,0,1,0,3,-2,-16
1526903516917592,33,4,2,2,8,-6,-2,-21
1526903516917592,-20,-12,-6,-28,-9,-4,-1,-6
1526903516918590,38,6,-3,34,8,-8,-9,-5
1526903516918590,30,6,2,-10,-5,0,1,12
1526903516940530,-11,-2,1,0,0,7,1,4
1526903516940530,-6,-3,-4,-3,2,1,0,-38
1526903516941528,5,4,4,-15,-3,1,11,7
1526903516941528,14,7,2,-9,4,4,-8,-19
1526903516954493,-34,-25,-19,-7,-8,-4,-8,-3
1526903516954493,13,25,6,5,0,-3,2,-2
1526903516962472,39,-29,-3,-3,3,-1,6,20
1526903516962472,-12,5,-6,-17,-4,-2,-3,-5
1526903516977432,-32,2,6,-24,-6,1,2,-32
1526903516977432,37,-5,9,77,19,-2,0,34
1526903516978429,0,8,-9,-18,-6,-7,-18,-45
1526903516978429,4,-6,0,-14,1,10,2,21
1526903517000371,-2,-1,-3,-29,-8,-18,-5,-23
1526903517000371,-5,-1,-1,-15,-7,10,-5,4
1526903517001368,32,0,3,5,3,-2,14,-10
1526903517001368,52,-17,-2,7,0,18,-10,-4
1526903517014334,14,9,1,7,7,-8,2,14
1526903517014334,-13,-3,-9,-31,-17,-12,0,-26
1526903517023309,-57,-1,-2,11,2,9,-6,-21
1526903517023309,-36,-4,-3,2,3,-3,3,-4
1526903517038269,91,2,-5,3,-2,7,3,-20
1526903517038269,-45,8,-1,-17,-11,-13,-18,5
1526903517038269,-12,-10,2,23,5,-13,11,34
1526903517038269,-44,3,-7,-5,0,0,-10,-31
1526903517060210,-20,-3,1,3,-3,10,-1,3
1526903517060210,16,-1,-2,-33,-9,-3,8,6
1526903517061208,15,10,4,-10,-1,-7,-5,50
1526903517061208,-37,-6,0,32,8,2,-1,-39
1526903517075170,-45,-6,-2,-13,-8,-9,1,17
1526903517075170,32,-1,0,10,7,11,10,13
1526903517083149,7,6,1,1,-1,-1,-3,22
1526903517083149,12,-3,2,8,2,-11,1,-11
1526903517098109,-9,10,-3,-4,-5,6,-4,-1
1526903517098109,6,-13,2,13,8,0,4,5
1526903517099107,-11,-1,5,10,2,4,-3,-8
1526903517099107,-48,3,-5,-22,-9,-8,1,0
1526903517120051,26,-2,-6,5,-3,-4,-5,-8
1526903517120051,16,-4,1,9,17,4,9,10
1526903517121048,-19,-20,-4,-16,-16,-3,-6,5
1526903517121048,-15,35,8,8,4,-3,-1,8
1526903517143987,-44,-1,-1,7,-2,0,6,13
1526903517143987,70,-17,-6,-2,1,0,0,4
1526903517143987,-16,1,3,-4,11,9,3,-6
1526903517143987,26,-6,7,11,7,-6,8,28
1526903517157951,-61,-7,-13,-3,-17,-5,-12,-32
1526903517157951,-14,9,4,-10,-3,-3,3,0
1526903517158947,-51,7,-5,-5,-3,-3,-7,-43
1526903517158947,42,-12,2,5,0,-1,4,37
1526903517180888,10,4,7,2,4,-2,5,8
1526903517180888,-17,1,2,5,-2,1,-6,-6
1526903517180888,47,15,0,-11,-3,1,-1,5
1526903517180888,-19,-12,-5,2,1,4,-3,19
1526903517203826,19,-12,-5,11,1,-12,-12,-16
1526903517203826,-4,15,5,18,0,11,18,10
1526903517204824,0,-5,3,-5,-3,-1,-3,10
1526903517204824,14,4,5,-6,0,2,-2,-5
1526903517217789,27,2,4,17,3,3,1,-6
1526903517217789,-31,-9,-8,-13,-2,1,-5,-7
1526903517218787,18,0,-3,-5,0,-4,-2,1
1526903517218787,-35,6,-4,-14,-9,-8,-4,-24
1526903517240728,-35,-13,-4,-7,8,3,2,11
1526903517240728,5,-1,-3,-20,-15,-10,-12,-32
1526903517240728,-10,-1,4,39,7,-8,6,-5
1526903517240728,-2,-9,-2,18,4,7,0,-15
1526903517263666,76,21,10,13,1,-27,-2,18
1526903517263666,-83,-18,-8,-27,6,34,-6,-2
1526903517264664,13,12,-5,-32,-4,-1,13,25
1526903517264664,-32,-11,-3,-7,-7,3,-12,0
1526903517277629,3,-9,-10,-9,-6,5,-4,-18
1526903517277629,-3,7,3,15,-1,-27,-1,14
1526903517278627,-27,-2,0,1,-4,-7,-10,-10
1526903517278627,-3,-2,5,-1,2,12,2,-7
1526903517300568,-19,-2,0,-19,-2,-4,8,18
1526903517300568,20,3,2,6,3,6,-13,-10
1526903517301565,11,-10,-10,-32,-17,3,11,11
1526903517301565,31,8,7,70,17,-21,3,4
1526903517322509,-17,-6,-6,-15,0,8,-4,-8
1526903517322509,4,-2,-2,-2,-5,-5,4,1
1526903517323507,-9,4,3,6,7,2,-8,-21
1526903517323507,0,-10,-2,-38,-8,6,10,23
1526903517337469,67,15,1,11,4,5,4,14
1526903517337469,-60,-6,-3,1,-2,-7,-7,-15
1526903517338467,66,2,-2,-20,-4,10,-1,3
1526903517338467,-33,-7,-3,13,-4,-3,3,2
1526903517360408,0,0,2,4,0,8,-1,4
1526903517360408,2,-4,-3,14,0,-6,3,-4
1526903517361405,12,-4,-2,1,0,-10,-7,18
1526903517361405,15,9,5,0,0,2,3,32
1526903517383346,-66,-2,-8,-5,-6,-1,-11,-51
1526903517383346,37,0,-1,-3,2,-11,-2,26
1526903517383346,-8,-1,7,17,0,6,2,0
1526903517383346,33,-5,-7,-8,2,8,5,23
1526903517398307,-22,-9,-10,-14,-8,2,6,5
1526903517398307,13,-1,6,11,-3,-22,-1,-25
1526903517398307,-14,9,3,13,7,9,-11,2
1526903517398307,-13,-7,-11,-26,-6,-1,-2,-40
1526903517420248,-11,-13,3,2,-8,8,1,16
1526903517420248,41,1,-8,-2,7,13,6,27
1526903517421245,15,3,0,4,-9,-13,0,-7
1526903517421245,-15,3,1,-3,-2,-16,-12,-8
1526903517443186,-16,-25,-2,6,3,-2,0,3
1526903517443186,43,25,8,7,-2,3,3,19
1526903517444184,-16,-6,-5,-4,0,-4,-5,-16
1526903517444184,20,-5,-1,-6,-3,0,-2,-15
1526903517458146,60,12,6,8,4,4,11,34
1526903517458146,-26,-3,-7,-15,-8,-4,-8,-17
1526903517459144,-56,0,2,1,2,-1,3,-13
1526903517459144,7,-6,-3,2,-1,1,-4,-29
1526903517480088,-6,11,7,5,2,9,3,17
1526903517480088,9,1,-3,-10,-6,3,-1,-3
1526903517481085,12,-12,-2,-8,4,6,2,-7
1526903517481085,-37,3,-4,24,1,-7,-6,-29
1526903517503026,7,2,-1,8,-3,-5,-13,-9
1526903517503026,46,-5,-3,-12,5,7,2,-3
1526903517504024,-48,-8,-5,-10,-11,-5,-4,2
1526903517504024,21,-2,5,-2,1,2,1,-7
1526903517517986,-41,1,-2,3,3,-3,7,-3
1526903517517986,6,0,-5,-31,-14,-6,-12,-4
1526903517518984,31,6,6,7,3,0,7,0
1526903517518984,29,0,-1,1,-1,-30,-13,2
1526903517539928,-54,6,1,-7,9,25,-1,2
1526903517539928,23,-9,1,6,-6,6,19,28
1526903517540926,-46,0,-2,-12,-8,-33,-15,-19
1526903517540926,67,-5,-8,-19,11,73,-16,21
1526903517562866,55,11,-1,-16,-6,-45,-7,-8
1526903517562866,-68,-8,1,51,16,-15,-1,4
1526903517563865,45,1,1,9,-2,9,8,25
1526903517563865,-46,9,6,29,9,-11,-4,-5
1526903517577827,8,-16,-8,-18,-12,0,-15,-4
1526903517577827,-26,5,-1,-12,-1,9,6,-14
1526903517578824,-21,-8,1,6,3,-3,-4,11
1526903517578824,60,3,-2,-2,-8,-19,-1,5
1526903517600765,14,0,-1,-5,2,12,6,0
1526903517600765,-2,3,0,-2,-5,-11,3,15
1526903517600765,-6,-2,4,14,7,11,7,4
1526903517600765,-35,-3,-11,-29,-13,-14,-10,-40
1526903517622706,-24,3,4,7,5,1,8,-2
1526903517622706,-1,-3,-2,3,4,11,-3,-19
1526903517623704,35,-5,-1,0,-3,0,-4,1
1526903517623704,-24,-4,-4,-3,-5,-6,8,7
1526903517637666,-6,-6,1,11,2,-10,-1,0
1526903517637666,-7,12,-2,-2,-8,-1,-7,-6
1526903517638664,-5,-2,-4,-11,4,20,3,-19
1526903517638664,-20,-8,1,-9,-10,-10,10,18
1526903517660605,28,-8,-2,5,-2,-10,-10,-12
1526903517660605,-5,-42,-1,2,-2,-11,-5,10
1526903517661603,28,64,13,-6,11,22,13,40
1526903517661603,-15,-10,0,-2,0,7,8,24
1526903517682546,-9,0,-7,-6,-6,-1,-8,-5
1526903517682546,7,-12,-4,-1,-2,-3,-2,3
1526903517683544,29,-9,6,15,0,-12,-6,8
1526903517683544,-19,9,4,0,0,0,3,3
1526903517697506,23,12,0,-1,1,7,7,-1
1526903517697506,-2,1,-4,-5,-3,-5,-3,-3
1526903517698504,-13,-16,-10,-1,-3,-5,-6,-32
1526903517698504,13,6,2,-4,-4,-1,1,-3
1526903517720445,-49,-1,0,-5,-1,-1,1,-5
1526903517720445,17,12,4,15,8,7,5,4
1526903517721442,-22,-18,-2,2,-2,-4,-2,-19
1526903517721442,0,-8,-1,-8,-2,-4,0,4
1526903517743384,-42,12,5,14,0,6,1,-23
1526903517743384,23,-5,-11,-11,0,4,5,24
1526903517743384,-49,-12,-10,-8,-8,-11,-17,-33
1526903517743384,45,5,4,-1,-3,-1,9,25
1526903517757346,5,11,-2,-8,2,-1,-5,8
1526903517757346,-10,-15,-1,-3,-4,0,0,-58
1526903517765325,-5,-7,0,3,7,5,-6,7
1526903517765325,8,7,0,6,2,5,-2,0
1526903517780285,9,-3,-2,-9,-15,-1,-2,13
1526903517780285,-17,2,3,25,9,-3,21,9
1526903517781282,2,-1,-4,-25,-9,3,2,-6
1526903517781282,-40,6,0,-2,2,12,-20,-2
1526903517803223,-26,-24,-8,-19,4,3,2,-15
1526903517803223,62,17,2,20,-2,6,3,18
1526903517803223,-14,-2,-1,-5,-12,-46,7,-52
1526903517803223,27,6,1,-12,0,3,2,19
1526903517818183,-26,-1,-5,1,2,-7,7,5
1526903517818183,-16,0,-1,-19,-3,6,-9,-5
1526903517819181,32,2,5,15,6,12,-5,7
1526903517819181,5,-6,-2,-7,-2,-19,-1,-4
1526903517840125,-20,-6,-3,-7,-2,-1,-2,-11
1526903517840125,3,6,-1,-3,0,-2,-4,-7
1526903517841123,-5,-2,-1,-20,-3,3,4,35
1526903517841123,8,-3,-2,23,2,-3,0,-13
1526903517863064,18,6,2,9,0,3,1,10
1526903517863064,-13,6,5,4,2,4,1,22
1526903517864061,-35,-16,-6,-8,-1,-5,-11,-36
1526903517864061,-15,-4,-2,-8,-7,-1,0,-2
1526903517877026,85,16,3,35,4,4,3,10
1526903517877026,-1,-10,0,-16,-1,-7,-5,2
1526903517885005,25,6,0,8,4,5,4,16
1526903517885005,-40,-5,0,0,2,1,6,-19
1526903517899965,14,6,-1,-18,-3,-1,1,1
1526903517899965,-46,-5,-4,-11,-7,-5,-10,-5
1526903517900962,20,-1,3,7,-3,-8,-3,8
1526903517900962,-1,-3,4,5,6,1,5,6
1526903517922903,12,-9,-9,-4,1,-1,-2,7
1526903517922903,-18,22,-3,-3,-19,-10,-8,-27
1526903517923901,-2,12,0,-5,20,15,5,26
1526903517923901,0,-27,-2,-1,-12,-1,1,7
1526903517945842,-6,21,9,9,3,-16,1,-14
1526903517945842,-3,-40,-8,-5,-1,8,0,12
1526903517946840,-8,-6,-13,-10,0,13,4,24
1526903517946840,28,12,3,3,-4,0,3,3
1526903517960802,-2,-21,-5,2,3,0,-4,1
1526903517960802,19,1,2,-1,-2,-8,-2,7
1526903517960802,18,9,6,13,-2,-7,-2,-3
1526903517960802,-14,-5,-3,0,8,2,1,-1
1526903517982743,-31,9,-3,-12,-10,-1,-6,-53
1526903517982743,-23,-3,-2,-2,2,-9,-5,-19
1526903517983741,21,-10,-2,7,-4,4,1,10
1526903517983741,35,12,0,-4,0,-3,-6,-28
1526903517997703,-18,1,0,-19,-6,21,14,20
1526903517997703,1,17,6,34,9,-10,-10,-13
1526903518005682,-25,-15,-1,0,-1,-6,1,-10
1526903518005682,-3,2,1,8,-2,-2,1,4
1526903518020642,17,11,0,-11,-1,3,-6,-3
1526903518020642,7,-38,-14,-29,-7,3,3,15
1526903518021640,49,11,6,-11,-16,-2,-8,5
1526903518021640,21,10,6,34,14,7,0,8
1526903518042583,11,1,-2,1,-1,-16,-1,6
1526903518042583,-69,8,1,-6,-2,5,-1,-2
1526903518043581,60,3,5,2,-2,-12,9,-3
1526903518043581,11,1,-2,-39,13,14,-19,38
1526903518057544,-28,-14,-4,31,-7,-14,12,7
1526903518057544,41,17,4,11,5,43,-7,3
1526903518065522,-11,-1,5,18,0,3,11,33
1526903518065522,-2,-4,-12,-24,-11,-18,-3,-41
1526903518080482,-27,-7,2,19,8,13,-9,6
1526903518080482,-8,7,3,16,0,-39,-6,4
1526903518081480,-2,-3,-1,-7,0,9,-7,-4
1526903518081480,10,0,-3,2,-6,-6,6,4
1526903518102423,6,3,2,-21,3,-18,-3,9
1526903518102423,22,9,4,-2,-1,13,5,-2
1526903518103420,-25,-16,-3,19,7,3,-3,0
1526903518103420,24,-1,-2,-4,-7,-11,4,28
1526903518117383,-17,0,-11,-15,-7,-16,-18,-44
1526903518117383,40,3,0,-2,7,-11,5,7
1526903518125362,-18,4,4,4,-1,-3,-1,-5
1526903518125362,-31,-8,0,4,3,8,4,10
1526903518140322,21,-1,-4,-1,-3,2,3,21
1526903518140322,-7,-2,1,-4,0,6,3,10
1526903518141320,-67,-2,-3,-6,-1,-2,-13,-92
1526903518141320,-16,8,0,2,-3,-8,-2,-16
1526903518163261,45,-5,-1,-2,1,11,4,9
1526903518163261,-10,1,-1,-9,-7,-2,10,23
1526903518163261,-7,-32,-13,-2,-1,-12,-17,-28
1526903518163261,-28,27,12,3,-3,0,1,-3
1526903518177223,3,13,3,-2,7,14,3,0
1526903518177223,28,3,-5,-12,-9,6,-2,-3
1526903518185202,-30,-21,-5,-2,-1,0,5,20
1526903518185202,-19,-8,-3,6,1,-5,-5,-18
1526903518200162,-15,-21,0,1,-4,-6,-2,6
1526903518200162,34,23,3,-2,8,1,2,30
1526903518201159,-30,12,-1,-2,-6,0,-5,-17
1526903518201159,18,-17,-4,-4,-2,-2,0,-13
1526903518223101,2,5,-3,-4,-4,-1,-1,8
1526903518223101,-20,-7,2,-1,0,-3,0,2
1526903518224098,23,20,10,4,3,2,5,25
1526903518224098,14,17,-2,-1,-2,4,-3,-6
1526903518246039,-73,-17,0,0,-1,3,4,2
1526903518246039,9,3,0,0,0,-11,1,-4
1526903518247037,66,15,7,1,2,12,9,58
1526903518247037,-98,-17,-15,-15,-7,-15,-27,-79
1526903518260002,69,11,1,-5,-4,8,2,21
1526903518260002,-43,-3,1,18,1,3,-4,-31
1526903518261000,18,-19,-1,10,3,1,12,36
1526903518261000,34,14,4,-1,-2,-10,4,21
1526903518282940,-43,-11,-7,2,-2,2,-4,-10
1526903518282940,-41,3,-1,-17,-3,-11,-1,-3
1526903518283938,45,-6,-6,-21,-5,2,-11,-18
1526903518283938,-6,-4,-1,3,-2,-15,-3,-16
1526903518305879,-2,2,-1,8,4,39,0,7
1526903518305879,-6,-8,-7,5,0,0,-12,-86
1526903518306877,-64,-18,-4,-31,-5,-9,0,4
1526903518306877,65,2,4,15,-4,-4,-5,29
1526903518320839,0,3,6,18,11,12,1,7
1526903518320839,29,7,0,18,5,-23,18,3
1526903518320839,4,-5,-5,-17,-5,2,-16,2
1526903518320839,-31,0,-3,-13,-4,20,5,-16
1526903518342781,-24,-3,1,-17,-3,-40,-4,-11
1526903518342781,118,12,2,3,6,30,-7,55
1526903518343778,-15,-17,-7,2,0,11,10,7
1526903518343778,0,6,7,16,8,-13,10,30
1526903518365719,-11,13,-2,2,-7,-2,6,-3
1526903518365719,0,-16,-3,-37,-1,-2,-15,-13
1526903518366717,13,11,2,34,-5,-14,-6,-32
1526903518366717,-12,-9,-5,-12,0,20,6,27
1526903518380680,2,-2,-2,-13,3,-9,-2,4
1526903518380680,-4,-4,5,11,2,7,6,-2
1526903518381677,-77,3,3,5,2,-18,-3,-26
1526903518381677,18,-5,0,6,-3,1,-1,2
1526903518402620,20,2,-5,-7,-7,-4,-5,-10
1526903518402620,-30,-8,-5,-15,-7,-4,3,16
1526903518403619,5,4,10,16,7,9,6,14
1526903518403619,-17,-1,-4,-3,2,2,-1,-9
1526903518426557,6,2,1,-8,-3,-6,-4,-13
1526903518426557,-34,-13,-1,2,-2,3,0,-4
1526903518426557,46,3,3,5,-1,0,3,7
1526903518426557,-14,4,-5,-9,2,-7,0,2
1526903518439522,1,-2,-3,1,-12,2,0,-15
1526903518439522,-26,-17,0,-3,-1,-5,-11,-8
1526903518447501,10,12,-3,-1,-1,-2,-4,-6
1526903518447501,-16,10,8,3,16,11,4,13
1526903518462461,43,27,7,5,-7,4,14,16
1526903518462461,-24,-7,-3,-1,6,2,3,18
1526903518463459,2,-18,1,-1,-6,-4,2,31
1526903518463459,-4,-3,-2,-3,-2,-3,-6,-4
1526903518485399,2,-5,-3,6,8,-2,1,11
1526903518485399,-2,1,2,-6,-9,-7,-3,-11
1526903518486397,-14,18,5,5,8,6,6,12
1526903518486397,-4,-10,6,3,1,-10,7,-2
1526903518499362,-56,-25,-16,-12,-4,12,-11,-12
1526903518499362,44,21,1,-6,-5,-2,-2,-15
1526903518508338,-28,-22,-7,5,4,-6,-5,-4
1526903518508338,44,7,-1,-25,-5,-11,17,8
1526903518523298,0,2,2,36,7,3,-7,2
1526903518523298,7,9,0,-5,0,0,1,2
1526903518523298,-6,12,5,-12,-3,3,0,-16
1526903518523298,-58,-24,-14,-10,-9,6,-13,-19
1526903518545239,26,0,-5,-31,0,-10,0,-10
1526903518545239,-73,2,-1,-6,-17,4,0,-4
1526903518546236,13,2,7,28,4,5,3,-6
1526903518546236,36,-1,-1,0,-5,11,-6,7
1526903518560199,-30,-9,-2,16,6,-3,7,-4
1526903518560199,6,9,3,-2,-2,-8,11,29
1526903518568178,-14,-4,-14,-80,-35,13,-35,-17
1526903518568178,106,-15,-9,49,33,-52,22,-3
1526903518583138,-40,14,4,23,2,33,3,14
1526903518583138,0,-11,2,-1,2,-2,6,-3
1526903518584135,4,3,2,3,-2,-9,0,8
1526903518584135,-34,-2,-2,-27,-10,13,-7,2
1526903518605079,35,3,-1,-14,-2,-11,-7,-3
1526903518605079,11,-8,-6,8,-2,-9,1,-8
1526903518606077,11,4,3,3,4,6,5,-9
1526903518606077,-71,13,10,3,-4,13,1,20
1526903518620039,96,-8,-10,6,1,-19,-9,-17
1526903518620039,-42,-12,-6,-12,-5,7,-2,-2
1526903518621037,0,0,-3,16,5,-6,-2,5
1526903518621037,-6,-4,2,-2,-3,14,3,15
1526903518642978,1,12,6,-2,-2,-15,5,4
1526903518642978,-22,-1,1,11,9,13,-2,-10
1526903518643975,29,-1,0,12,7,-5,1,6
1526903518643975,-9,6,0,0,-8,-4,-6,-18
1526903518665917,-31,-6,-2,-15,-6,-4,-4,-6
1526903518665917,51,-4,-2,-7,1,-5,-8,11
1526903518665917,-63,-8,-3,3,1,-3,2,-59
1526903518665917,29,3,1,-12,-11,1,-11,2
1526903518679879,20,-17,0,15,5,13,2,-13
1526903518679879,5,18,2,7,15,-15,-6,18
1526903518687857,8,12,6,4,-13,14,13,18
1526903518687857,-6,-16,-8,-16,5,13,-3,-17
1526903518702818,-33,-3,-12,-15,-12,-8,-5,0
1526903518702818,4,-21,2,7,-5,-8,-2,-7
1526903518703815,8,16,4,4,11,-6,-2,-1
1526903518703815,9,-45,-8,8,-5,-9,3,-1
1526903518725756,-16,53,18,-4,-4,-1,-3,26
1526903518725756,-6,-18,-10,-6,2,16,-6,-11
1526903518726754,14,-9,-5,-2,1,-7,2,27
1526903518726754,11,-18,-7,3,0,4,-6,1
1526903518740716,37,3,4,1,-1,-4,10,26
1526903518740716,-47,9,3,3,-7,-5,4,10
1526903518740716,44,-29,-8,-2,2,-4,-13,-36
1526903518740716,-75,34,5,2,-1,3,8,-17
1526903518762658,32,-17,-5,-6,-2,-5,2,15
1526903518762658,51,28,2,1,-1,2,-6,10
1526903518763655,-25,-30,-5,-5,0,-5,3,4
1526903518763655,-1,18,5,-3,-3,2,1,9
1526903518785596,-39,9,1,9,3,-8,-2,-18
1526903518785596,40,-16,-3,-4,-1,2,-1,-13
1526903518786594,-35,11,-6,16,5,-7,3,11
1526903518786594,11,2,1,13,-2,2,-4,7
1526903518800557,-31,-11,-7,-11,3,1,4,1
1526903518800557,25,5,-3,-21,-9,-1,-5,0
1526903518801554,-4,-10,0,-13,-3,-10,5,6
1526903518801554,41,15,-4,-11,0,-2,-8,6
1526903518822498,-15,-13,-3,26,6,-12,0,-1
1526903518822498,-70,2,0,1,-1,30,6,-23
1526903518823495,-14,13,2,-32,-5,-5,-12,-3
1526903518823495,49,-8,0,42,-4,28,2,-14
1526903518845436,-73,5,-1,-18,-4,-4,21,2
1526903518845436,39,-13,-3,-8,-10,-14,-7,11
1526903518846434,72,2,1,9,9,25,2,34
1526903518846434,-56,1,-6,-12,-1,-26,-7,-4
1526903518860396,7,-2,-3,-6,-4,16,-11,-8
1526903518860396,-9,0,4,16,0,-33,4,-1
1526903518861394,14,4,-1,-27,-8,29,2,1
1526903518861394,-33,-5,-1,-8,0,-5,-8,-8
1526903518883335,50,4,2,5,-3,-7,6,13
1526903518883335,-21,-12,-9,4,22,-3,-11,-27
1526903518883335,7,0,2,17,-4,-9,-5,-12
1526903518883335,15,11,0,-23,-3,1,-1,10
1526903518905276,-33,-10,0,-4,3,2,-6,-9
1526903518905276,13,-2,-3,-12,-7,4,2,-5
1526903518906274,17,5,0,13,-7,-5,1,-6
1526903518906274,-56,-5,-1,10,0,-7,3,-44
1526903518920236,2,-15,-6,-20,-7,0,-6,24
1526903518920236,4,18,5,12,2,5,-1,-13
1526903518928215,-3,2,-1,2,4,-16,-4,-9
1526903518928215,-9,-6,-4,-11,-7,-3,-5,11
1526903518943175,28,-8,1,1,-1,3,3,41
1526903518943175,-13,-28,-11,1,-3,-24,-4,-15
1526903518944172,-14,45,23,13,16,18,0,-3
1526903518944172,34,17,-13,-18,12,30,3,-16
1526903518965116,3,0,-7,-5,-8,0,3,-8
1526903518965116,-18,7,10,8,-8,-3,1,-10
1526903518966114,-12,-42,-9,-3,-11,-24,-7,-3
1526903518966114,25,19,11,12,4,-8,-5,-21
1526903518980076,-6,-13,-11,-10,3,-2,-7,-17
1526903518980076,-11,12,-2,-2,-5,0,-1,-12
1526903518988055,43,7,1,7,0,-5,-2,-5
1526903518988055,7,-24,-2,-2,-2,-1,6,24
1526903519003015,-3,7,-4,-3,0,-1,-3,-15
1526903519003015,16,-3,2,4,1,7,2,-5
1526903519004013,-6,1,0,5,4,6,3,18
1526903519004013,-21,-7,-4,-1,-1,-5,5,21
1526903519024956,-31,9,3,-1,-1,0,-1,-33
1526903519024956,-48,-15,-6,-3,-3,1,-10,10
1526903519025953,-18,-8,-6,-11,-3,-4,3,-3
1526903519025953,-6,10,5,2,-3,-8,-1,8
1526903519039916,33,-1,4,13,4,10,5,-2
1526903519039916,-8,-2,-6,-16,-3,8,1,0
1526903519047895,-47,-6,-10,1,-5,-11,-9,-47
1526903519047895,-6,2,4,2,2,-9,7,30
1526903519062855,-43,5,7,20,4,9,-7,-31
1526903519062855,37,0,-5,-17,-4,-1,3,33
1526903519063852,-65,-12,-2,0,-5,3,-11,-60
1526903519063852,40,4,-4,-3,-1,-24,3,7
1526903519085793,-6,1,-6,-7,0,4,0,4
1526903519085793,8,5,1,4,4,0,-2,-10
1526903519085793,7,-13,-4,-25,-15,-3,0,30
1526903519085793,3,5,4,35,14,-11,1,1
1526903519099756,14,-1,-9,-23,-4,10,-7,8
1526903519099756,-28,-2,3,12,-4,-46,-5,-13
1526903519107735,49,11,1,-5,2,11,8,32
1526903519107735,-90,-20,-11,-24,-13,30,-17,-40
1526903519122695,41,12,6,12,-2,-58,17,14
1526903519122695,30,4,0,-10,-14,9,3,3
1526903519123692,-28,9,5,30,2,-17,-4,-12
1526903519123692,0,-12,-8,0,-2,-7,-7,3
1526903519145633,8,-7,1,1,5,26,2,4
1526903519145633,-10,6,7,-8,-4,9,6,-2
1526903519146631,14,4,1,4,2,-4,5,17
1526903519146631,33,-2,-3,-8,-2,17,5,4
1526903519159596,-33,-3,-2,-4,-11,-5,-9,-7
1526903519159596,4,0,1,13,10,-1,2,19
1526903519167575,59,1,-2,-1,3,9,3,25
1526903519167575,-12,4,1,2,-1,2,-1,-12
1526903519182535,-48,-6,-4,-12,-1,-6,-6,5
1526903519182535,0,0,3,9,5,8,0,-25
1526903519183532,-34,-21,-4,-2,2,6,0,8
1526903519183532,10,47,12,-4,2,-12,-2,-25
1526903519205473,11,-39,-10,-3,-7,-3,-11,-19
1526903519205473,3,44,4,3,11,24,9,8
1526903519206471,11,-3,5,5,-8,-6,1,29
1526903519206471,-10,-46,-19,-10,-3,-10,-11,-21
1526903519228412,30,58,19,4,4,6,5,20
1526903519228412,2,-28,-13,0,1,-2,-2,-16
1526903519229410,1,6,-2,-10,-5,0,-4,12
1526903519229410,19,-2,7,1,-3,0,2,18
1526903519243372,1,-8,-6,-2,2,3,1,-14
1526903519243372,6,-9,-3,-2,-3,-2,-3,8
1526903519243372,-4,-9,-1,3,2,-7,-1,-18
1526903519243372,42,21,5,0,1,6,-2,-11
1526903519265313,-21,1,-5,-9,-3,-1,-4,12
1526903519265313,47,0,6,7,2,-1,0,-2
1526903519266311,-34,-14,-6,-5,0,5,-3,1
1526903519266311,-8,-2,-4,0,-4,4,-2,5
1526903519288252,42,10,1,-12,-8,4,-2,-22
1526903519288252,-34,-22,-15,-26,-12,3,-9,-21
1526903519289250,27,12,13,58,17,8,0,12
1526903519289250,-23,0,-3,0,-4,-1,3,13
1526903519303212,45,-4,0,8,4,-3,2,26
1526903519303212,-84,-21,-10,-22,-9,-6,-14,-54
1526903519303212,30,7,-1,-22,3,-11,3,2
1526903519303212,13,11,6,15,-3,8,7,19
1526903519325153,20,-8,-7,-22,1,-1,-4,10
1526903519325153,-42,-1,2,3,5,16,4,-14
1526903519326151,10,-12,-4,-20,-1,-22,-1,20
1526903519326151,31,10,-2,36,16,1,-2,-17
1526903519349089,-22,-7,1,-20,-8,-7,7,21
1526903519349089,67,4,8,33,14,22,5,47
1526903519349089,-66,14,8,-4,-5,29,9,-20
1526903519349089,30,-12,-15,-22,-15,-40,-18,6
1526903519363052,23,16,7,11,3,-1,17,68
1526903519363052,-38,-24,-13,-21,-6,-18,-27,-31
1526903519364049,-39,7,1,10,0,-22,-1,8
1526903519364049,70,-1,4,-7,2,35,6,26
1526903519384993,-42,-14,-6,-8,0,4,-2,-44
1526903519384993,-29,14,6,21,-4,-18,1,-7
1526903519385991,57,1,0,-13,5,6,-3,-31
1526903519385991,-27,-12,-6,-17,-9,-9,-1,23
1526903519408929,-13,2,-2,-4,-2,4,-10,-47
1526903519408929,27,-1,2,34,9,-8,-2,4
1526903519409927,32,1,-5,-7,-5,8,-4,-29
1526903519409927,-58,-1,8,2,3,10,22,31
1526903519422892,41,4,2,2,-2,-14,5,31
1526903519422892,-16,-3,-4,-35,-5,4,-7,3
1526903519423890,-17,8,6,45,8,14,0,15
1526903519423890,4,-11,0,-11,-5,-17,7,-12
1526903519445830,-12,-3,-17,-9,-1,9,3,25
1526903519445830,13,12,3,-2,-6,-6,-5,1
1526903519445830,21,-37,-12,-11,4,-1,-1,-26
1526903519445830,-75,38,20,7,-4,-19,-14,-19
1526903519468769,-3,12,1,9,0,17,-7,-16
1526903519468769,33,8,-2,-5,8,22,23,64
1526903519469767,11,-16,-7,-8,-8,-13,-6,4
1526903519469767,-25,-20,-7,-4,-2,1,-6,-31
1526903519482732,-20,-8,1,10,-2,-16,-13,-38
1526903519482732,37,7,10,10,1,-6,5,21
1526903519483729,-55,21,0,-10,-2,3,-1,10
1526903519483729,74,-15,-13,-9,-4,-7,-6,-2
1526903519505671,2,-2,5,6,-3,-11,-2,-17
1526903519505671,87,4,8,6,5,16,10,77
1526903519506668,-42,1,-4,-6,-4,-12,1,1
1526903519506668,-50,4,-9,-7,-3,-3,-7,-13
1526903519528609,-21,-11,-2,0,0,-9,-4,-21
1526903519528609,36,6,11,5,0,3,8,25
1526903519529607,-11,10,4,-1,-4,-5,-3,-25
1526903519529607,3,-14,-1,-9,7,18,19,57
1526903519542572,14,-5,-9,-20,5,11,-6,34
1526903519542572,-23,-9,-4,3,-11,-20,-9,-53
1526903519543569,-44,-9,2,6,7,8,5,3
1526903519543569,48,10,-2,-9,-13,1,-1,-16
1526903519565510,-14,2,2,4,3,0,-5,-18
1526903519565510,-78,5,4,-1,7,6,15,11
1526903519566508,51,-7,-11,-11,-6,-11,-22,-17
1526903519566508,-32,5,-4,-21,-2,-19,-6,-58
1526903519588449,-28,2,9,-11,9,38,2,0
1526903519588449,-22,-3,8,61,-12,-48,1,20
1526903519588449,95,15,5,2,4,23,-13,-11
1526903519588449,-91,-12,-3,44,2,30,17,-42
1526903519602412,-7,15,-6,-2,-2,-27,0,-24
1526903519602412,-23,-16,-5,-31,1,-2,-12,-12
1526903519603409,18,-5,-4,-8,1,-16,-1,21
1526903519603409,-18,3,0,-9,-4,30,-8,11
1526903519625350,61,1,4,8,0,-20,7,11
1526903519625350,-23,2,-4,-2,-3,32,-10,-10
1526903519626348,10,-9,-1,-9,1,-8,14,55
1526903519626348,-39,-8,-4,-15,-3,-7,-10,-38
1526903519648289,-23,1,0,11,-4,3,-4,3
1526903519648289,48,-4,3,4,23,28,17,28
1526903519648289,-14,6,0,15,1,-5,-2,4
1526903519648289,60,17,4,11,-1,11,5,54
1526903519663249,-69,-26,-4,0,-3,-13,0,-2
1526903519663249,51,-8,-9,-28,-10,-3,-13,-53
1526903519664247,-18,5,4,12,4,16,13,5
1526903519664247,-13,-1,-5,3,4,4,-11,-18
1526903519685190,20,10,1,4,-6,-29,-7,-36
1526903519685190,-14,-6,-4,-21,-6,1,0,-7
1526903519686188,-20,-7,-2,-4,-7,3,5,-7
1526903519686188,29,11,0,-4,2,-7,-2,13
1526903519708129,-35,-11,-5,-5,-3,3,1,-35
1526903519708129,1,-1,0,6,-1,-6,-6,4
1526903519709127,35,-3,3,2,-2,-4,-1,3
1526903519709127,14,-28,-6,-2,4,-21,-1,13
1526903519722092,2,68,6,-6,-9,15,-3,22
1526903519722092,16,-6,-3,5,-2,-1,10,37
1526903519730070,-22,-7,-6,-11,-3,-1,-9,-16
1526903519730070,20,-44,-10,-4,-3,-12,0,11
1526903519745030,25,42,16,17,8,14,10,49
1526903519745030,-31,37,9,-5,3,3,-8,3
1526903519746028,36,-2,-2,-8,-11,-1,-2,-1
1526903519746028,-12,-5,-3,-2,0,-6,2,-12
1526903519767969,-10,-36,-9,1,-4,-8,0,8
1526903519767969,21,20,-4,-6,-7,-13,-16,-54
1526903519768967,21,-7,-3,-5,2,2,-3,-12
1526903519768967,-5,19,4,0,-3,-5,0,-29
1526903519782929,-10,-2,5,4,2,3,3,18
1526903519782929,0,-15,-8,-9,-1,-5,0,-12
1526903519783926,-4,1,-3,3,-2,10,-1,1
1526903519783926,-22,10,-1,-7,-2,-8,2,34
1526903519805868,-13,-11,-6,-10,-2,6,0,-19
1526903519805868,-16,-4,2,1,-3,-16,-5,-17
1526903519805868,83,13,1,-1,-1,0,5,8
1526903519805868,-56,-8,1,5,2,-1,0,27
1526903519827809,47,-12,-2,17,-3,5,-3,26
1526903519827809,-86,-10,-7,-21,-2,0,3,-15
1526903519828807,-20,1,3,-5,1,-20,-5,19
1526903519828807,58,14,2,-18,-4,-3,-3,-20
1526903519842769,3,-22,-12,-14,-2,3,-9,0
1526903519842769,-18,-9,1,-5,-3,8,6,-36
1526903519850748,-8,14,5,14,1,-17,-1,17
1526903519850748,-72,-8,-4,4,7,-5,17,6
1526903519865708,35,-3,12,45,6,-1,-6,19
1526903519865708,16,11,-8,-12,-6,-26,-31,-7
1526903519866705,-71,-15,-3,-16,0,50,3,-5
1526903519866705,28,12,4,8,1,-58,10,-24
