timestamp,emg1,emg2,emg3,emg4,emg5,emg6,emg7,emg8
1526903629924373,4,-11,-1,-3,-1,0,-2,0
1526903629924373,-2,-3,0,1,3,-5,3,3
1526903629925372,9,-2,1,-1,-4,-30,0,0
1526903629925372,4,-2,1,2,1,32,2,6
1526903629926368,1,-3,0,1,-1,-2,8,7
1526903629926368,-3,3,5,4,3,-8,-1,6
1526903629929359,7,-6,-16,-14,-9,2,-11,-8
1526903629929359,-20,-4,0,0,-6,-20,11,-12
1526903629937342,-1,-3,-4,-6,-3,1,-17,-1
1526903629937342,4,5,-3,-8,1,7,7,7
1526903629946314,19,12,10,14,11,8,2,15
1526903629946314,-28,-11,-9,-40,-14,-24,-4,-15
1526903629951301,7,3,3,23,4,-23,2,1
1526903629951301,16,1,-1,-4,-5,19,5,6
1526903629966261,-12,3,0,2,2,-23,-29,-13
1526903629966261,0,-3,-9,-14,-3,3,8,-1
1526903629977231,-5,0,3,11,3,-13,7,-3
1526903629977231,14,1,-8,-3,-3,-7,3,16
1526903629991194,-34,-3,-2,-5,-3,2,1,-26
1526903629991194,6,-4,0,5,1,5,-11,-10
1526903629997178,0,-3,-5,-12,-1,11,3,-5
1526903629997178,-15,2,-1,5,5,34,-12,-8
1526903630011141,-4,-4,0,-5,-9,-29,15,9
1526903630011141,4,2,6,13,5,-4,1,2
1526903630053029,-9,3,-6,-13,5,-41,1,-3
1526903630053029,-16,-3,1,-40,4,-11,-9,-2
1526903630054027,10,1,13,64,18,8,-14,6
1526903630054027,11,-3,-4,-8,-2,-25,39,14
1526903630057018,-24,1,-4,0,-1,13,-29,-25
1526903630057018,12,-1,-7,-7,6,6,-4,4
1526903630058016,4,-5,-3,-56,-14,12,9,3
1526903630058016,3,1,9,63,5,-13,-1,9
1526903630063002,6,0,2,-1,1,-6,12,7
1526903630063002,-1,2,3,21,1,-4,11,-4
1526903630070981,-10,-1,-3,-2,-1,-2,-7,3
1526903630070981,6,-1,-8,-13,-4,12,0,5
1526903630079957,-16,4,-2,-9,-7,-6,8,3
1526903630079957,7,-3,4,19,-2,2,-7,-4
1526903630093920,3,-4,-2,-6,2,0,4,3
1526903630093920,29,3,0,-17,-4,5,-7,14
1526903630100901,-57,-1,-1,8,-1,6,-5,-31
1526903630100901,0,-2,-7,-13,-7,4,-2,15
1526903630124836,-9,2,3,9,2,-1,7,-17
1526903630124836,4,2,-3,-12,2,-15,-8,5
1526903630126832,8,-2,-8,-2,-3,8,-12,-10
1526903630126832,0,0,-3,4,-9,-25,-3,-3
1526903630138799,1,-6,1,-4,-3,-9,3,-11
1526903630138799,-15,-1,-1,3,3,18,-7,-9
1526903630147775,6,0,-7,-5,-3,26,12,24
1526903630147775,-11,-7,-5,-12,-7,-27,2,-19
1526903630162735,8,1,-2,15,-6,-16,-1,17
1526903630162735,-12,-1,1,-10,1,-1,2,-18
1526903630163733,9,2,5,2,-4,0,-5,12
1526903630163733,-2,1,-1,-8,64,43,24,-11
1526903630184677,7,-1,1,-4,14,-8,-1,4
1526903630184677,-5,5,-4,-4,-5,-15,-1,-1
1526903630186672,14,-3,4,37,-5,-29,-15,5
1526903630186672,1,-1,-11,-11,-12,23,8,13
1526903630198639,15,1,4,-5,0,-9,-12,-9
1526903630198639,-18,0,1,-9,10,59,-9,-12
1526903630207616,3,-1,0,1,3,-35,-3,-8
1526903630207616,21,-1,7,10,-11,-8,-11,19
1526903630222575,-3,-2,-7,-2,-4,16,-2,1
1526903630222575,13,-1,-2,-18,1,-7,-1,-1
1526903630223573,8,1,0,8,-9,13,-2,16
1526903630223573,0,2,2,20,-7,15,7,21
1526903630244516,10,-3,-2,-40,-7,-35,11,3
1526903630244516,-28,-10,-9,15,6,46,-60,-35
1526903630246512,3,3,1,-14,-8,-47,6,4
1526903630246512,2,1,-5,-9,9,-10,-11,8
1526903630258479,-11,-1,0,0,6,0,-9,-16
1526903630258479,-3,-7,-5,-21,-16,-74,19,19
1526903630267456,16,2,7,11,17,36,18,6
1526903630267456,-32,-4,5,16,-11,-4,-11,-34
1526903630282415,-12,-6,-13,-14,1,13,-10,3
1526903630282415,2,6,8,15,1,8,7,-1
1526903630284410,-20,-9,-16,-51,-12,4,0,-21
1526903630284410,20,6,8,22,-10,-16,-2,24
1526903630305354,-26,-2,5,19,7,12,-20,-41
1526903630305354,3,-1,-2,-17,-10,8,11,1
1526903630306352,14,-2,-8,-36,6,21,36,31
1526903630306352,-7,2,9,16,13,21,-21,-30
1526903630318319,4,-4,-2,6,-16,-32,-11,-12
1526903630318319,-17,2,-13,-13,-8,-22,-8,-6
1526903630327296,14,2,6,1,-1,10,-5,-1
1526903630327296,-11,-5,-9,-21,-15,-2,12,1
1526903630342255,2,0,2,12,1,4,16,17
1526903630342255,-6,4,0,-13,14,1,-43,-16
1526903630344250,34,-3,1,17,-2,-14,19,41
1526903630344250,7,-5,-2,4,-2,25,9,-9
1526903630365194,-21,1,-2,5,0,15,-4,-3
1526903630365194,-1,-3,0,0,-25,2,21,28
1526903630366191,13,2,1,2,2,14,-17,-2
1526903630366191,-11,1,-2,-10,-3,5,-9,4
1526903630378159,10,-2,2,3,-8,4,7,7
1526903630378159,-2,-2,-1,3,6,4,7,-31
1526903630387135,-2,2,1,5,0,-9,-22,-19
1526903630387135,-12,0,4,0,-9,-12,13,27
1526903630402095,13,-1,0,-6,-1,2,6,0
1526903630402095,-8,-2,-2,-7,-9,-12,5,-5
1526903630404090,12,2,6,48,16,-7,-9,-3
1526903630404090,-46,-4,-1,-8,-5,-7,4,-23
1526903630425034,14,-4,-4,5,-11,-14,2,20
1526903630425034,7,-2,-10,-11,-7,-29,-8,24
1526903630426032,-50,-8,-14,-17,-13,-6,18,-70
1526903630426032,41,3,6,9,-1,-37,-30,25
1526903630437999,-7,-4,-3,1,8,-19,-2,-7
1526903630437999,14,5,9,15,27,-8,3,24
1526903630446975,5,1,0,-39,-16,23,33,6
1526903630446975,3,-3,-1,37,2,-7,-15,-39
1526903630461935,-7,1,-1,-14,-13,7,17,12
1526903630461935,6,2,7,14,21,17,-9,13
1526903630463930,-37,-3,-10,-20,3,-8,-6,-35
1526903630463930,5,0,6,2,-31,11,30,14
1526903630484874,-7,2,-1,-1,3,4,1,-14
1526903630484874,11,-2,2,12,-4,27,0,12
1526903630486869,-16,3,4,12,-5,7,-9,9
1526903630486869,6,-1,-1,-10,1,-30,-19,-8
1526903630498837,11,6,-8,-13,0,-18,-4,-8
1526903630498837,8,-4,-3,0,-13,0,2,-9
1526903630507813,-29,-3,2,19,15,-1,-11,8
1526903630507813,4,-3,-1,-16,11,16,-8,-4
1526903630522773,-7,-5,-2,-5,-1,-10,2,3
1526903630522773,12,1,1,7,3,4,-12,-6
1526903630523770,22,3,-2,-7,1,-3,0,35
1526903630523770,-12,-2,-9,-33,-17,-28,-8,-2
1526903630544714,-7,2,11,49,1,-6,-15,7
1526903630544714,-63,-9,-8,9,-11,15,28,-23
1526903630546709,8,1,-2,6,13,7,-44,0
1526903630546709,10,-3,-4,-25,8,41,-7,-4
1526903630558676,16,2,-1,-17,-2,1,6,16
1526903630558676,8,2,1,-7,6,11,16,2
1526903630567653,1,-5,3,-7,-1,-27,8,9
1526903630567653,4,4,-3,15,-12,-18,6,-7
1526903630581615,10,2,0,8,-2,6,-5,13
1526903630581615,-34,-7,0,10,-1,-21,-7,-35
1526903630588597,21,2,3,-2,0,0,-5,4
1526903630588597,10,0,1,5,10,-18,-2,2
1526903630604554,10,3,3,-7,1,9,12,17
1526903630604554,16,1,-3,-14,-7,-9,2,-6
1526903630606549,-34,-1,0,6,-5,-10,0,2
1526903630606549,10,-2,3,9,6,11,5,7
1526903630618517,-32,-3,-1,0,-2,7,-15,-22
1526903630618517,15,-3,-10,-23,0,-5,-9,6
1526903630627493,7,-5,-2,0,-1,2,-6,-7
1526903630627493,-4,0,-4,-2,-7,-16,14,-14
1526903630641455,-3,0,-2,-8,2,7,8,18
1526903630641455,7,2,6,18,1,-10,-18,8
1526903630648436,-2,-1,0,0,-2,6,3,-8
1526903630648436,5,-2,1,3,4,22,-2,4
1526903630664394,13,-1,-3,-6,-1,3,0,-15
1526903630664394,9,2,1,-4,2,-7,4,6
1526903630666389,6,-2,2,5,-1,12,0,0
1526903630666389,2,-1,-1,1,5,4,-3,0
1526903630687333,-14,0,-1,-1,-6,17,0,-4
1526903630687333,-7,-1,0,-2,-2,-5,-7,4
1526903630689327,6,0,-2,5,-3,3,14,4
1526903630689327,-5,-1,-3,-15,2,-11,-36,-19
1526903630701295,-6,-1,-2,4,3,-2,0,-3
1526903630701295,6,3,0,3,-4,3,8,4
1526903630708276,4,-2,-1,-2,-3,-9,-1,-4
1526903630708276,-16,-5,-3,-7,-5,-5,1,-17
1526903630725231,7,-6,-9,-18,11,56,-3,-2
1526903630725231,11,4,5,8,4,-32,8,6
1526903630726229,12,5,0,-2,-2,5,2,0
1526903630726229,22,0,-1,3,-4,18,18,26
1526903630747172,-40,-3,-1,-2,-5,-3,-6,-51
1526903630747172,3,-1,1,-2,-1,15,7,13
1526903630749167,-2,1,-7,-8,-5,6,-5,-2
1526903630749167,1,6,0,0,4,-14,8,7
1526903630762132,-3,4,4,-2,-3,-19,1,16
1526903630762132,-4,-3,1,6,-2,12,-5,-22
1526903630768117,-12,-1,-3,2,-5,-22,-3,-8
1526903630768117,-2,-2,-6,-3,3,1,10,6
1526903630785072,-4,2,3,-3,-1,7,-8,5
1526903630785072,3,0,1,-1,-2,-17,7,-1
1526903630786070,28,-4,6,-4,10,-19,-14,4
1526903630786070,-12,-1,0,8,-2,6,5,-5
1526903630807013,29,2,2,6,8,-24,10,26
1526903630807013,-43,-1,2,10,-1,0,-11,-39
1526903630809007,-16,-4,1,-1,4,-12,2,-18
1526903630809007,21,0,-1,-15,-7,9,-3,19
1526903630821973,-14,-3,-1,15,-3,-11,-2,2
1526903630821973,28,0,-2,-8,2,19,-1,20
1526903630828954,-2,-1,1,4,2,15,3,-4
1526903630828954,0,-2,-1,-5,0,2,-1,-6
1526903630844911,2,-4,-5,-6,-3,-5,0,-3
1526903630844911,-12,-4,-6,-6,-2,10,0,-3
1526903630846906,-20,-1,2,2,-3,12,-2,1
1526903630846906,-9,-22,-12,-4,1,-2,0,-10
1526903630866853,25,6,-4,-1,1,1,3,15
1526903630866853,-35,36,19,8,2,-5,-4,-13
1526903630868848,25,10,14,11,5,14,3,8
1526903630868848,-26,-9,-7,-10,-5,-9,-11,-9
1526903630881813,4,-22,-4,-3,-8,-38,3,0
1526903630881813,9,-15,-14,-9,0,7,-4,1
1526903630888794,14,12,-1,-6,-2,4,3,7
1526903630888794,-20,4,12,20,7,2,6,-9
1526903630904752,4,2,-2,-1,-3,1,-7,-4
1526903630904752,14,-3,-6,-7,-6,-10,1,19
1526903630906746,-11,-3,-8,-5,-7,-4,-5,-24
1526903630906746,-9,0,-1,1,2,-2,-2,8
1526903630927690,-8,0,-1,-4,0,10,0,-9
1526903630927690,4,2,0,-3,0,4,-1,5
1526903630928687,16,-8,-2,0,4,9,1,17
1526903630928687,-16,0,-5,-6,-3,-9,-2,-14
1526903630940655,-2,11,1,4,3,2,-3,-6
1526903630940655,16,-3,0,-3,-4,-17,-3,4
1526903630949631,-5,-7,-6,-7,-4,12,2,-1
1526903630949631,10,-2,4,2,5,-1,-2,4
1526903630964591,-3,13,5,3,0,7,7,-1
1526903630964591,13,-16,-8,-3,-3,-8,12,-1
1526903630966586,-5,8,-2,-6,3,-19,-14,4
1526903630966586,1,-4,3,9,1,19,7,-1
1526903630987529,-13,-8,-9,-17,-10,-1,-8,-4
1526903630987529,-2,0,4,6,9,7,7,8
1526903630988527,-11,-5,5,8,0,3,-1,-14
1526903630988527,3,7,0,-3,-4,-4,-1,-7
1526903631000495,7,-1,-1,-20,1,-4,-2,8
1526903631000495,-17,-1,-4,10,0,12,7,-20
1526903631009471,-25,-8,0,10,-2,-8,2,11
1526903631009471,-10,3,1,3,4,0,-1,1
1526903631023434,-1,1,-1,-3,-8,-7,-4,-17
1526903631023434,5,-3,-1,-4,-7,-55,-10,7
1526903631032410,14,3,-2,-9,1,5,2,14
1526903631032410,-1,-2,-2,3,-1,-9,-3,4
1526903631047370,-8,0,-1,5,1,5,3,-18
1526903631047370,-4,-8,5,3,4,10,1,6
1526903631049364,6,9,-5,1,-3,-1,5,0
1526903631049364,19,11,2,-2,2,30,5,0
1526903631070308,-10,-11,3,6,0,-40,0,8
1526903631070308,-2,2,-8,-10,-7,9,-18,-12
1526903631071306,6,-16,-2,-1,-2,11,2,0
1526903631071306,34,-9,-5,-6,-2,-1,12,16
1526903631083273,-64,13,0,4,-2,16,-9,-23
1526903631083273,10,-2,2,-2,1,10,-3,6
1526903631092249,-13,-2,-4,-3,-4,-6,-6,-25
1526903631092249,3,-3,0,1,-1,-9,5,5
1526903631106212,17,-9,-5,0,0,6,12,15
1526903631106212,-8,2,-2,-2,1,-1,8,4
1526903631113193,-4,-7,-6,-14,-4,0,-4,-14
1526903631113193,-8,5,0,-7,5,-33,8,13
1526903631130148,25,2,2,3,-7,-27,3,4
1526903631130148,-15,0,1,8,0,33,-14,-12
1526903631131146,8,-1,5,-11,12,-1,-2,22
1526903631131146,9,1,5,17,-4,0,-1,-3
1526903631152090,0,-4,-14,-14,-4,33,-15,-1
1526903631152090,-18,-8,-5,-9,-23,-69,4,-12
1526903631154085,0,5,3,-2,-5,-6,2,-1
1526903631154085,8,2,0,9,0,10,-18,8
1526903631167049,-3,-2,0,-1,2,22,-12,3
1526903631167049,-24,-3,-5,-1,-3,28,-16,-13
1526903631173033,4,1,-1,0,-7,29,2,15
1526903631173033,-11,0,-2,-8,-1,-22,22,-11
1526903631189988,13,-1,7,12,9,-19,6,-17
1526903631189988,-9,-4,-15,-11,-6,-19,-20,1
1526903631190986,-11,2,6,19,7,-16,19,2
1526903631190986,-7,-2,-3,-11,-4,27,-13,-30
1526903631211930,11,-1,1,-7,-1,-7,0,6
1526903631211930,6,3,5,12,16,25,43,22
1526903631213924,-4,-5,-5,-21,-1,12,-24,-16
1526903631213924,9,1,-6,8,-4,-32,-5,-3
1526903631226889,-4,1,7,7,10,64,-7,-6
1526903631226889,5,2,3,-9,-5,26,-22,-5
1526903631233871,6,-4,-13,2,-7,21,0,15
1526903631233871,-17,3,3,-7,3,10,4,-15
1526903631249828,34,-1,-4,1,9,30,-1,20
1526903631249828,-28,0,3,-6,-9,-7,9,-18
1526903631251823,13,2,11,38,15,-13,2,2
1526903631251823,-14,-8,-11,-9,-11,61,1,0
1526903631272767,8,5,-5,-3,-12,-30,1,11
1526903631272767,12,0,0,-7,6,3,11,0
1526903631274762,-1,-3,-5,-20,-3,-33,-8,10
1526903631274762,-10,-2,5,34,1,36,31,-30
1526903631286729,-1,2,4,12,-6,-32,16,5
1526903631286729,13,1,2,-2,20,63,-23,2
1526903631293711,-6,-3,-12,-14,-29,-22,38,-8
1526903631293711,11,-2,-1,-18,-1,-6,-11,37
1526903631309668,-4,0,1,15,6,14,-12,6
1526903631309668,17,5,10,8,3,-9,15,-3
1526903631311663,1,0,-11,-10,9,46,-6,-20
1526903631311663,-23,-16,-22,5,-11,-56,-23,-5
1526903631332607,-3,17,36,0,-3,-18,-8,1
1526903631332607,2,-4,-3,1,-12,-22,3,24
1526903631333604,5,-1,5,12,4,4,-30,-16
1526903631333604,-15,5,5,-17,-6,-14,-18,-20
1526903631346569,23,-5,-20,-24,2,-4,6,60
1526903631346569,-57,-22,-49,-12,4,-19,-2,-71
1526903631353551,15,22,51,22,-6,-13,-8,-5
1526903631353551,-11,-7,-8,-1,-5,-26,7,11
1526903631369510,-2,-4,-1,-27,-2,41,1,-15
1526903631369510,6,9,15,20,-10,-23,-15,16
1526903631371503,-4,-9,-28,-9,-6,-37,4,10
1526903631371503,8,4,12,3,10,18,-70,-19
1526903631392447,-15,-10,-5,-5,-20,-32,71,11
1526903631392447,29,4,3,1,5,2,-49,-1
1526903631393445,0,-5,-1,-15,11,12,49,-3
1526903631393445,-34,3,9,-12,-1,24,-24,-38
1526903631406412,2,-4,-6,28,-2,-48,-17,-10
1526903631406412,15,1,-6,-9,4,26,32,61
1526903631415386,-20,0,9,16,-1,-12,-26,-26
1526903631415386,19,1,0,-15,2,-8,41,37
1526903631429348,-21,-10,-11,-5,-4,5,-56,-45
1526903631429348,-7,1,1,12,4,-66,-6,-7
1526903631431343,18,2,8,0,-3,7,14,36
1526903631431343,0,-1,-6,-5,-5,-16,18,23
1526903631452287,-7,2,0,-2,3,12,-16,-23
1526903631452287,8,1,5,-4,-4,15,-6,-2
1526903631454282,-10,-5,-15,-8,-2,-14,8,12
1526903631454282,33,0,2,1,-2,-18,-22,1
1526903631466250,6,1,5,6,10,30,48,9
1526903631466250,20,5,7,3,8,94,-12,-5
1526903631475226,-8,-6,-15,-13,-8,-31,17,-11
1526903631475226,-9,2,4,3,9,0,13,-2
1526903631490185,36,3,-1,1,-7,-7,-19,-23
1526903631490185,-35,0,1,-1,-4,6,30,37
1526903631491183,-6,-7,-5,-10,-9,-4,-41,-53
1526903631491183,20,3,-1,22,13,7,-24,1
1526903631512127,-14,0,1,-23,-15,-67,43,11
1526903631512127,-12,-3,-3,0,-8,-46,-9,-6
1526903631514121,2,-3,-3,-12,2,0,-4,24
1526903631514121,6,4,2,11,-1,21,23,-6
1526903631526089,-12,-4,-11,-12,-8,1,-25,-10
1526903631526089,-19,-5,2,16,4,-19,25,-25
1526903631535066,4,-2,-3,-17,6,3,-22,22
1526903631535066,33,6,3,4,-5,-11,43,34
1526903631550025,-60,-10,-3,9,5,-1,-30,-49
1526903631550025,44,7,0,-18,1,-6,-16,-1
1526903631551023,-8,-4,1,10,4,60,-7,4
1526903631551023,-14,-8,-5,-13,-5,-35,-28,-4
1526903631571967,-1,7,1,7,9,9,17,15
1526903631571967,13,0,6,2,-2,-6,-13,13
1526903631573962,-16,-8,-6,3,-20,40,-22,-31
1526903631573962,-15,0,0,-5,-7,-20,-11,-39
1526903631585929,0,1,0,-21,-6,-35,-14,11
1526903631585929,31,0,-14,21,-3,-6,-2,4
1526903631594905,-8,2,15,9,10,12,8,10
1526903631594905,-9,-6,-13,-13,-2,-13,8,4
1526903631609865,-4,-7,-6,-1,1,4,-18,-35
1526903631609865,3,4,2,-10,-2,60,24,-16
1526903631611860,2,2,1,5,-3,-25,7,17
1526903631611860,-4,1,4,-22,10,10,20,-4
1526903631631807,-43,0,6,30,8,27,-47,-9
1526903631631807,0,-2,1,-12,-2,-9,19,0
1526903631633802,3,-1,-3,-3,4,-13,3,-10
1526903631633802,-2,1,5,0,7,-12,4,18
1526903631645769,12,0,-9,-6,6,59,3,-9
1526903631645769,-31,-2,7,-10,-8,-24,27,-14
1526903631654745,13,2,-2,8,4,-18,-7,5
1526903631654745,-32,-7,1,9,-4,-5,-19,-22
1526903631669705,10,-3,-1,-2,-1,15,12,12
1526903631669705,17,-1,-5,0,-4,-10,-22,8
1526903631671700,-9,3,0,-5,0,-19,10,-7
1526903631671700,-12,-3,1,10,-4,6,-4,-16
1526903631692644,18,4,3,3,0,-5,17,23
1526903631692644,-11,-2,0,-7,-2,-3,-10,-8
1526903631693641,19,1,-4,6,-5,-2,-1,12
1526903631693641,-7,-2,-3,-5,-1,6,-7,-3
1526903631705609,7,0,-1,-1,-3,-7,10,12
1526903631705609,2,-2,-3,2,4,-1,-23,-27
1526903631714585,6,-3,-4,-5,-1,7,17,5
1526903631714585,-8,-1,1,5,-2,7,-5,15
1526903631729545,5,1,4,0,-1,-14,13,-14
1526903631729545,6,-2,4,6,3,6,4,25
1526903631731540,-17,-6,-4,-5,-2,8,-8,-22
1526903631731540,18,2,2,5,-10,-8,3,16
1526903631752484,4,-1,1,3,4,-2,4,11
1526903631752484,5,6,3,1,-5,-13,-1,-4
1526903631753481,-21,-9,-6,-4,0,-1,-10,-8
1526903631753481,-7,-1,-7,-3,-1,-13,-12,-2
1526903631765449,-4,4,6,5,1,-3,7,4
1526903631765449,7,-3,0,-3,1,13,7,-5
1526903631775423,38,1,1,10,2,23,-5,15
1526903631775423,-13,1,-2,-1,0,24,6,-17
1526903631789385,-2,0,-6,-6,-5,-6,9,4
1526903631789385,-13,-5,2,-3,2,-17,3,5
1526903631791380,5,3,-1,0,-4,1,-19,2
1526903631791380,18,0,3,5,3,10,-1,1
1526903631812324,-14,0,-1,-3,4,-10,-14,-8
1526903631812324,-15,2,1,4,-8,0,26,2
1526903631814319,-4,-1,-1,-10,-1,-4,7,-1
1526903631814319,5,1,3,4,0,6,9,-1
1526903631826286,-17,-7,-9,-5,0,5,-13,0
1526903631826286,-2,0,0,-2,-1,-6,-6,-7
1526903631835263,-15,4,1,-2,-6,-8,-10,-12
1526903631835263,-2,-10,-4,-7,2,-2,9,22
1526903631850222,-17,4,-1,-10,-5,-4,-14,-8
1526903631850222,4,-14,-6,0,-4,-6,3,0
1526903631851220,13,11,-1,6,2,-3,6,6
1526903631851220,41,33,15,3,1,0,-17,7
1526903631872164,-15,-17,-3,6,-2,5,2,5
1526903631872164,7,-1,-10,-11,-2,4,-9,3
1526903631874159,-17,-11,4,2,0,-13,7,-22
1526903631874159,-3,-6,-7,-4,-9,-8,-2,-5
1526903631886126,22,12,2,-1,1,1,3,8
1526903631886126,-16,-3,2,4,-1,2,-8,-3
1526903631895103,7,-2,-4,-3,-1,-24,3,2
1526903631895103,-8,-2,-3,-3,1,5,0,2
1526903631910062,13,-3,0,-2,-3,22,-3,8
1526903631910062,-2,0,1,-2,1,-9,5,3
1526903631911060,-11,-1,-1,-8,-4,16,-7,-8
1526903631911060,-1,-2,-2,2,-1,0,-11,2
1526903631932004,11,-4,-3,-4,3,-8,10,2
1526903631932004,0,6,3,6,1,16,-11,0
1526903631933998,6,3,0,-5,-7,-23,3,8
1526903631933998,6,-6,-4,-10,-2,8,33,0
1526903631945967,25,0,8,15,2,3,5,4
1526903631945967,-27,-3,-3,3,-1,-9,-29,-8
1526903631954944,-7,-5,2,5,-2,2,-2,-10
1526903631954944,-15,-3,-4,4,6,3,-6,-28
1526903631969903,8,-28,-14,-16,-7,-7,6,1
1526903631969903,13,42,0,-6,3,7,7,6
1526903631971897,2,15,24,14,4,2,-4,12
1526903631971897,-11,-14,-7,-10,-9,-7,5,1
1526903631991843,-5,-4,-6,-6,-4,-4,-9,-9
1526903631991843,1,-26,-7,-3,-1,-4,2,-4
1526903631993839,-21,-5,-9,-4,-1,3,2,-6
1526903631993839,5,15,12,3,-1,-4,-7,4
1526903632005806,-4,2,-3,-1,0,-7,-6,-1
1526903632005806,-9,-3,4,3,3,0,10,10
1526903632014782,-9,2,-7,-3,0,8,4,-26
1526903632014782,10,-3,4,8,2,4,-1,13
1526903632028745,1,6,-5,-3,-8,-11,-7,1
1526903632028745,-2,-8,-5,-9,-1,4,-1,-10
1526903632035727,-12,-2,0,3,6,7,26,16
1526903632035727,-1,-6,-4,0,0,0,-50,-11
1526903632052681,2,8,-2,-5,-5,-2,-10,-7
1526903632052681,-4,7,8,-2,-2,0,21,7
1526903632053678,14,-11,-5,-8,-8,-8,-22,17
1526903632053678,-12,-5,-2,3,-3,-4,6,-27
1526903632065646,-9,3,4,4,0,-1,9,2
1526903632065646,9,1,2,0,0,0,-8,6
1526903632074622,-8,-8,-2,2,2,-2,-3,10
1526903632074622,-2,1,-7,-7,-1,-1,3,-8
1526903632089583,-26,7,3,0,-1,-1,-1,4
1526903632089583,27,-10,-6,-4,-2,-4,-5,-11
1526903632095566,-17,-5,-1,0,-1,5,1,-10
1526903632095566,10,17,7,4,1,1,16,30
1526903632112521,-28,-3,0,2,2,-6,-6,-49
1526903632112521,21,3,-4,-3,-2,-2,-4,16
1526903632113519,5,-6,-2,2,2,9,10,7
1526903632113519,-4,-10,-5,-3,-3,-4,-7,-3
1526903632134462,7,-3,0,0,1,12,5,16
1526903632134462,-15,-4,1,-1,-3,-11,-6,-15
1526903632136457,13,-2,-2,0,3,5,10,3
1526903632136457,-9,4,0,-1,0,-2,2,8
1526903632149422,19,8,4,3,4,8,8,-4
1526903632149422,-31,-5,3,1,0,5,-5,-20
1526903632156404,6,0,-8,-2,-2,0,-31,-5
1526903632156404,13,-11,-3,-4,-1,3,16,12
1526903632173358,-8,33,9,2,-4,-12,-7,-3
1526903632173358,23,-17,1,1,2,11,9,14
1526903632175353,-18,4,-7,-4,-5,-20,-5,-21
1526903632175353,-3,-30,-7,-2,3,-1,-1,-8
1526903632195300,-12,14,-1,-2,2,4,9,6
1526903632195300,1,-3,2,1,-2,0,7,4
1526903632197294,6,-2,-2,2,2,0,19,-7
1526903632197294,12,-2,3,-4,-5,-5,-5,17
1526903632209262,12,-7,-7,-2,-1,6,-1,7
1526903632209262,-30,6,-3,-2,0,-6,-1,-10
1526903632216243,1,-6,5,5,2,4,4,-1
1526903632216243,19,3,0,-3,7,-5,13,17
1526903632232201,-30,-3,7,2,-4,3,5,-34
1526903632232201,9,4,-7,-5,-10,-20,0,-6
1526903632234196,7,2,-1,-1,2,9,6,15
1526903632234196,-13,6,-2,4,-2,-12,-37,-13
1526903632255140,21,-5,-1,-8,-1,4,20,13
1526903632255140,-25,-6,-9,-14,5,-6,1,-4
1526903632256137,-2,3,0,-15,-4,19,-25,0
1526903632256137,22,10,6,24,3,17,3,13
1526903632269102,-13,-16,-2,1,-1,-11,1,23
1526903632269102,16,0,-4,6,-6,-23,-14,-8
1526903632276084,-9,4,3,-14,-4,-6,4,2
1526903632276084,10,1,-3,-5,-2,-1,20,-3
1526903632292041,-4,-6,-3,-3,0,8,-22,-11
1526903632292041,2,2,0,-9,0,13,2,-11
1526903632294036,-1,2,2,16,-2,-5,-4,-3
1526903632294036,-17,-6,-11,-3,-5,-7,-1,-20
1526903632314979,0,2,2,3,-2,-17,12,19
1526903632314979,-7,0,0,0,0,7,-17,-9
1526903632316974,8,-3,-1,-9,3,45,-11,-17
1526903632316974,-17,6,2,0,-14,28,32,-10
1526903632328942,13,-4,-3,15,3,-16,9,9
1526903632328942,10,4,-1,1,0,11,-12,10
1526903632335924,0,-1,-2,-15,-1,-8,4,-11
1526903632335924,-26,-6,2,9,21,-10,-4,4
1526903632351881,10,-3,-3,2,-5,-1,-1,9
1526903632351881,0,1,1,-2,-4,0,17,9
1526903632353876,14,-1,0,6,-6,-43,7,10
1526903632353876,-5,0,-3,-10,1,2,-24,-18
1526903632374820,8,-3,-4,4,3,-10,-3,-7
1526903632374820,-17,1,0,-2,-3,-11,0,4
1526903632376814,-5,-3,2,3,12,18,5,-10
1526903632376814,-1,1,0,-2,-8,-8,11,8
1526903632388782,-4,-1,0,0,-4,8,-9,6
1526903632388782,18,-3,-7,-16,-8,10,-3,3
1526903632397758,-13,-2,0,19,-6,-16,-4,-2
1526903632397758,3,1,-10,-6,-9,-14,-10,1
1526903632412718,8,0,14,-7,17,65,-6,5
1526903632412718,-1,-4,-7,1,7,19,19,0
1526903632413716,4,4,6,0,-7,-39,0,17
1526903632413716,-4,-7,-5,-1,3,4,-3,0
1526903632434659,6,-4,-6,2,-6,-11,9,2
1526903632434659,2,1,5,7,3,-3,-8,15
1526903632436655,0,-4,-4,6,-1,-7,-27,-12
1526903632436655,1,2,-5,-29,16,-2,3,11
1526903632448622,10,1,3,4,-6,-54,4,-11
1526903632448622,-14,-3,-6,-3,-5,-3,-2,-25
1526903632457598,-14,-1,1,4,-5,-19,3,12
1526903632457598,15,0,6,-13,-12,-24,-7,20
1526903632472558,-26,-5,-4,11,11,21,-50,-40
1526903632472558,-1,3,7,7,5,-12,11,2
1526903632473556,10,-1,-3,-9,1,11,-3,15
1526903632473556,4,-2,-2,9,-2,23,13,-14
1526903632494499,-11,-3,-8,-6,-9,-16,-1,-4
1526903632494499,2,2,7,-4,0,-27,23,1
1526903632496494,2,-2,-2,-6,2,-4,15,8
1526903632496494,7,2,3,-4,-7,5,-8,7
1526903632508462,2,-2,-8,-1,-10,-23,-12,-7
1526903632508462,3,0,-2,-1,-1,-3,-11,16
1526903632517438,6,-1,2,-6,1,10,18,0
1526903632517438,-6,0,-4,3,-2,-9,-11,-16
1526903632532398,1,1,0,-5,-3,-4,6,17
1526903632532398,-7,1,-3,-16,1,6,30,10
1526903632533396,-9,0,0,34,-9,9,-42,-14
1526903632533396,-12,-2,-3,-15,-2,-7,0,-1
1526903632555337,2,2,-5,-24,-6,9,-5,12
1526903632555337,17,-1,6,13,1,15,-1,-10
1526903632556334,4,-3,-2,-5,2,-13,-1,1
1526903632556334,12,4,2,5,-3,-36,15,-5
1526903632568302,-30,-3,-5,-9,-6,22,-4,-3
1526903632568302,1,-2,-8,-10,-5,7,-16,0
1526903632577278,-7,1,-2,-3,-4,-1,13,-23
1526903632577278,19,-2,5,21,1,6,-19,-8
1526903632592238,-1,2,0,-14,5,1,22,8
1526903632592238,-3,-2,-1,7,-3,-3,-13,-12
1526903632594233,-1,-4,-3,-19,-5,7,-5,2
1526903632594233,-7,0,-1,2,-8,3,3,9
1526903632616174,7,-1,2,9,2,-5,9,-6
1526903632616174,-13,-5,-1,2,2,-22,-16,-14
1526903632618169,19,4,0,-3,2,-1,14,18
1526903632618169,-19,-8,-3,-4,0,6,11,-6
1526903632628142,-10,-3,-1,-3,-3,-7,-4,-4
1526903632628142,-1,0,0,5,-3,-3,-8,-6
1526903632637118,15,-1,4,-2,4,3,2,-5
1526903632637118,-16,2,-3,-3,-5,6,6,-3
1526903632652078,-3,1,2,11,1,-1,-13,-8
1526903632652078,11,1,2,5,4,-10,-5,2
1526903632654073,-11,-3,-2,6,2,15,0,-1
1526903632654073,-6,1,1,5,4,29,9,-1
1526903632675017,16,2,2,-6,0,-2,4,5
1526903632675017,-5,0,0,-2,3,1,1,2
1526903632676014,2,1,3,2,0,1,-6,-2
1526903632676014,-10,0,-4,1,-2,-6,-4,-9
1526903632688979,7,-3,-6,-7,3,-8,-1,-8
1526903632688979,-2,-3,-5,-12,-11,17,-7,-10
1526903632697956,-9,0,1,19,4,-6,1,3
1526903632697956,25,1,2,-10,1,3,-4,13
1526903632711918,3,-3,-3,20,-1,-4,-2,1
1526903632711918,9,2,2,0,2,6,-1,8
1526903632713913,-20,-6,-11,-14,-4,-6,-6,-36
1526903632713913,18,2,2,0,-9,-1,-15,11
1526903632734858,0,-4,-1,0,7,-3,-1,3
1526903632734858,12,9,1,3,-3,-1,-7,2
1526903632736852,0,3,4,-3,3,6,4,15
1526903632736852,-28,-5,-5,-6,1,-5,-1,-22
1526903632748819,7,-13,-8,-2,-1,1,0,3
1526903632748819,-23,3,3,5,3,8,-10,3
1526903632757795,-9,20,7,-3,1,-16,-3,-9
1526903632757795,-6,1,1,-2,2,19,0,-7
1526903632772755,-9,-4,-2,-5,-5,0,-4,5
1526903632772755,-20,-11,-9,-11,-6,0,11,-2
1526903632773753,8,-9,-3,2,1,-3,-3,-3
1526903632773753,-3,3,-2,-1,-1,-3,2,5
1526903632794697,5,1,-3,-1,-1,-19,1,7
1526903632794697,-9,-7,-2,-1,-2,3,4,0
1526903632796692,-8,1,-2,-1,-3,3,-10,-7
1526903632796692,6,-1,2,5,2,-9,6,3
1526903632817635,4,-5,5,-1,-1,19,5,3
1526903632817635,-3,3,-4,-1,0,-5,5,6
1526903632818633,5,-2,2,-3,0,1,-6,9
1526903632818633,3,1,-5,-1,-1,-1,-4,-3
1526903632832595,-7,-11,-4,1,0,4,0,-14
1526903632832595,3,35,7,4,1,-4,-4,2
1526903632833593,3,-34,-3,-1,-1,7,2,2
1526903632833593,3,5,-3,-1,-3,-2,2,9
1526903632854536,25,1,1,-7,-2,-1,-4,2
1526903632854536,-15,-9,-2,5,0,-2,-5,-13
1526903632856532,19,0,-11,-9,-2,1,9,11
1526903632856532,7,-3,-1,1,1,-4,1,9
1526903632868499,-15,6,0,-2,-2,-1,12,-1
1526903632868499,14,-16,1,3,0,2,-26,-10
1526903632877475,4,11,1,1,0,2,2,3
1526903632877475,9,-8,1,2,-2,15,3,3
1526903632892435,0,13,-2,-7,-2,-10,0,-2
1526903632892435,0,-4,-4,-2,-3,-5,7,0
1526903632893433,-12,3,-1,10,2,9,-2,-1
1526903632893433,-4,-8,-5,-16,-4,-6,-6,1
1526903632914377,17,5,5,6,0,7,-3,21
1526903632914377,-47,-7,1,-2,1,-2,-2,-43
1526903632916372,4,-7,-4,1,-1,-5,0,2
1526903632916372,-14,1,0,0,-1,-10,-5,-5
1526903632928339,1,2,2,-3,-1,6,-4,1
1526903632928339,21,-28,-5,-2,-1,2,10,15
1526903632937316,-7,46,2,-3,-1,-1,-2,-3
1526903632937316,1,-4,7,5,3,-5,-10,-4
1526903632952275,-10,-8,-2,-1,-1,1,3,-4
1526903632952275,2,-6,-7,3,0,-3,1,6
1526903632954270,-7,-9,2,-3,0,-7,-1,-6
1526903632954270,1,-2,-3,3,1,0,1,6
1526903632975214,7,10,1,0,-2,-6,-7,-12
1526903632975214,-26,-11,0,-1,-1,0,-2,-8
1526903632976212,28,10,6,3,3,2,2,15
1526903632976212,-22,-4,-1,1,-2,-2,-1,-11
1526903632988179,0,-12,-9,-6,1,0,2,2
1526903632988179,24,10,3,-3,-6,-12,-1,9
1526903632997155,-16,-10,-4,1,0,-2,-2,-16
1526903632997155,3,-4,1,3,2,-2,10,-1
1526903633012115,-13,3,-2,8,-4,-1,-14,-5
1526903633012115,18,3,3,5,3,3,-5,14
1526903633018099,1,-8,-4,-18,-11,-6,-12,-2
1526903633018099,0,-2,-7,3,-6,-10,4,-5
1526903633035054,-2,7,8,28,9,9,7,0
1526903633035054,19,7,2,-5,-2,-3,5,5
1526903633036052,11,-17,-2,1,-1,-1,-3,7
1526903633036052,-3,19,0,-7,-1,1,-2,16
1526903633056995,-55,1,1,-10,-7,-10,-3,-56
1526903633056995,20,-14,-5,1,-1,2,-5,13
1526903633058990,-24,-9,-5,-2,1,3,8,-13
1526903633058990,16,11,0,-3,-3,-4,-3,1
1526903633071955,6,16,2,-4,2,1,1,15
1526903633071955,3,-12,-1,3,1,3,5,1
1526903633078936,-10,-14,-6,-2,1,-7,-1,-11
1526903633078936,10,4,0,3,1,1,-3,2
1526903633094894,-13,-5,0,-1,-1,1,2,8
1526903633094894,-1,4,0,1,0,11,-3,-6
1526903633096889,18,4,-5,-11,-5,3,2,16
1526903633096889,-9,-2,0,11,2,3,-6,-7
1526903633116835,6,-6,2,-13,-1,-1,0,7
1526903633116835,-6,2,-6,-13,-9,-2,10,1
1526903633118830,0,-4,3,4,2,1,-3,-4
1526903633118830,-17,6,4,7,6,-2,-1,-8
1526903633131795,-3,-5,-5,-1,-3,2,-2,-12
1526903633131795,-6,5,-4,-9,-3,-16,-2,6
1526903633138776,11,-5,0,3,-5,3,-3,3
1526903633138776,6,-5,-4,-6,-3,-5,-2,-2
1526903633154734,9,-12,2,-1,0,4,8,8
1526903633154734,8,26,2,3,5,2,-7,0
1526903633156729,-8,-6,3,3,-2,-3,-9,3
1526903633156729,-8,-13,-1,-1,-1,0,-5,-12
1526903633177672,-4,-3,-5,-2,-4,-4,0,1
1526903633177672,-10,-17,-2,2,-1,1,-1,-13
1526903633178670,16,-2,-4,-17,2,1,5,15
1526903633178670,-19,21,-1,13,5,-1,-1,-13
1526903633191635,8,-12,1,2,-2,1,-5,-4
1526903633191635,-2,-4,0,-15,-6,0,2,-3
1526903633198616,4,11,-2,8,6,1,4,-13
1526903633198616,-1,-17,0,10,-7,9,-1,6
1526903633214574,16,7,0,8,7,-10,10,35
1526903633214574,-22,-3,-7,2,-6,-20,-35,-36
1526903633216569,-8,6,-1,-13,-6,-3,18,-12
1526903633216569,11,-1,3,-4,1,-1,-14,13
1526903633237512,-1,4,-2,11,-3,-6,-7,6
1526903633237512,-3,-5,-2,-31,-3,5,8,11
1526903633238510,-8,-3,1,47,8,-2,-2,-21
1526903633238510,3,3,1,-27,-3,-15,4,8
1526903633251475,5,-3,-13,2,-2,20,9,24
1526903633251475,-5,4,5,-1,-8,-3,0,-9
1526903633258456,5,0,6,6,4,10,-2,16
1526903633258456,-5,1,-9,-4,-3,0,3,0
1526903633274414,-6,2,5,-13,-4,-8,-7,-35
1526903633274414,2,-1,-2,5,5,2,6,7
1526903633276408,-30,-4,-2,-6,-10,-6,-2,-3
1526903633276408,16,0,3,0,2,6,-8,36
1526903633297352,-3,-5,-16,-37,-15,-5,-5,-38
1526903633297352,-4,4,-2,29,4,-4,-10,6
1526903633299347,6,0,-2,-7,3,-1,-5,-20
1526903633299347,-8,-5,0,5,-3,19,5,8
1526903633311315,-9,0,-4,4,-2,-6,-4,0
1526903633311315,23,1,8,-3,6,6,5,5
1526903633320291,-24,2,-9,-25,0,4,-1,9
1526903633320291,19,-6,-1,18,0,-1,4,-33
1526903633335251,2,4,3,11,-1,-1,-3,3
1526903633335251,2,3,7,4,1,4,4,3
1526903633336249,12,1,-3,-12,-2,-1,-2,4
1526903633336249,-15,-2,0,-6,2,-28,1,2
1526903633357192,0,-8,-3,-26,3,4,-25,4
1526903633357192,-12,-2,-8,-6,-1,-9,31,-9
1526903633359187,5,3,3,3,-7,8,23,13
1526903633359187,10,-1,-3,-4,-5,-4,-15,2
1526903633371155,-10,2,3,-2,8,-14,-7,-1
1526903633371155,8,-3,-3,-50,-5,32,3,-13
1526903633380131,-5,-4,10,52,27,66,-3,-30
1526903633380131,9,0,-9,0,-13,-2,12,26
1526903633395091,0,4,7,4,4,6,12,-9
1526903633395091,-39,-3,-2,8,-3,-10,-10,19
1526903633396088,9,-2,-1,-6,-9,-17,-12,-5
1526903633396088,-10,-5,-1,-14,7,4,0,-46
1526903633417032,3,1,-10,33,-7,27,5,11
1526903633417032,2,2,16,2,5,6,-1,-13
1526903633419028,14,-2,-12,-14,-12,-23,-3,18
1526903633419028,-35,-5,1,9,13,9,1,-40
1526903633430995,18,4,1,-5,-6,-16,12,25
1526903633430995,-2,-3,-6,5,14,11,-25,-28
1526903633439972,-10,3,1,-18,-6,-9,2,20
1526903633439972,14,-1,4,12,8,1,-7,3
1526903633454931,8,-3,5,9,2,5,6,-10
1526903633454931,-8,3,-5,-2,-17,20,-4,15
1526903633456926,-12,-3,-6,-46,-6,-37,-19,-30
1526903633456926,-10,2,-3,-21,-14,-25,11,8
1526903633477870,-7,0,10,58,34,40,-4,-3
1526903633477870,23,4,2,12,2,-44,-10,27
1526903633478867,-19,-5,0,7,-6,-24,5,-7
1526903633478867,-9,-6,-10,-14,-3,-10,-14,-17
1526903633490835,1,3,-12,-72,-22,17,-9,4
1526903633490835,29,0,1,38,-9,17,21,28
1526903633499811,-3,3,7,8,5,9,-8,3
1526903633499811,-45,-5,14,37,26,25,10,-35
1526903633514771,1,-4,-9,-29,-19,-19,-4,13
1526903633514771,9,0,-8,-56,-9,-10,-21,-52
1526903633516766,16,0,12,27,6,29,26,74
1526903633516766,9,-4,-15,-76,-3,7,-17,-7
1526903633537710,-23,-2,4,56,-35,14,0,-32
1526903633537710,-23,-6,-5,11,-2,23,0,8
1526903633538707,20,-5,-2,11,4,-69,-1,15
1526903633538707,27,3,-6,-91,7,-3,-5,32
1526903633550675,-31,3,-3,68,10,-7,-20,-43
1526903633550675,5,-6,-11,-2,-2,-9,17,2
1526903633559651,-19,2,1,11,14,40,5,-22
1526903633559651,11,3,3,44,-27,12,9,25
1526903633574611,20,1,2,5,14,-27,-3,1
1526903633574611,9,3,6,42,15,0,8,33
1526903633576606,-29,-2,-8,-26,-21,-26,-16,-45
1526903633576606,16,-1,-3,-20,13,3,1,11
1526903633597549,-2,-1,7,13,8,2,21,-10
1526903633597549,-7,5,8,-24,12,-2,11,40
1526903633598547,36,-4,-15,18,23,0,-15,25
1526903633598547,-22,-10,-13,-59,-26,53,-4,-7
1526903633611512,18,6,30,31,16,-29,53,31
1526903633611512,-5,6,-5,-9,-8,-9,-7,-7
1526903633619491,24,-1,-7,-1,26,-5,-15,-39
1526903633619491,35,-2,11,14,26,25,7,23
1526903633634451,-34,6,-11,-49,-1,-39,-7,-3
1526903633634451,28,-2,23,34,-11,1,8,-2
1526903633636446,6,-1,8,45,6,1,6,-13
1526903633636446,-24,5,10,54,-3,-18,-3,-5
1526903633657390,38,-10,-9,-95,-4,3,-11,23
1526903633657390,-4,3,3,89,15,9,-6,-26
1526903633659384,4,6,25,-32,30,-37,-4,21
1526903633659384,-17,-10,-26,4,57,-72,4,-15
1526903633671352,0,1,-2,-16,-39,5,-19,-7
1526903633671352,-51,-9,-6,-25,-11,-39,-23,-56
1526903633680328,15,-3,-4,43,-33,26,9,39
1526903633680328,-20,8,11,27,51,-29,4,-6
1526903633695288,20,-6,-9,-27,-23,39,-15,39
1526903633695288,-1,-4,-12,-34,-16,54,17,5
1526903633696286,-5,7,4,-18,-16,32,-1,-2
1526903633696286,-14,-9,-16,-6,52,-12,-20,-13
1526903633717229,27,4,-4,19,29,11,0,-10
1526903633717229,-24,-7,-5,-32,1,-80,1,5
1526903633719224,-36,-5,-14,3,-28,7,-5,-27
1526903633719224,44,10,6,-5,-63,17,7,29
1526903633731192,-22,-1,16,50,44,17,-15,-25
1526903633731192,51,10,11,49,15,10,32,15
1526903633740169,-46,-10,-15,-67,0,-18,-19,-45
1526903633740169,16,5,2,16,-53,-2,1,-12
1526903633755128,-38,-4,-3,-21,-13,8,2,10
1526903633755128,22,-2,6,-24,13,-10,-10,13
1526903633756126,-13,-1,-3,6,-1,13,5,1
1526903633756126,-6,3,-7,-7,-11,-2,-1,-8
1526903633777069,-19,-3,-4,12,-6,-13,-4,-8
1526903633777069,-29,-6,-5,-10,-8,22,-3,-3
1526903633779064,24,0,4,-35,12,-13,3,13
1526903633779064,-11,-3,-1,19,22,-15,-2,-13
1526903633791032,-12,-11,-14,4,7,23,4,-13
1526903633791032,15,2,-26,-59,-25,-12,-25,-7
1526903633800008,-4,-7,-8,-55,-7,53,11,3
1526903633800008,28,11,16,56,-3,-36,1,8
1526903633814968,10,-5,-4,-35,34,3,7,4
1526903633814968,51,-1,-3,41,11,14,1,10
1526903633816963,-53,-9,-8,18,17,-15,-18,-25
1526903633816963,5,-3,-3,-20,-31,23,2,12
1526903633836909,0,4,-4,-37,5,-17,5,4
1526903633836909,-39,-6,5,53,6,-9,-11,-31
1526903633838904,23,5,7,4,-2,-13,3,27
1526903633838904,31,4,1,-5,5,7,3,-1
1526903633850872,8,9,7,21,-9,-29,8,11
1526903633850872,-6,-5,4,15,-22,57,-22,-3
1526903633859848,-4,5,2,56,3,7,28,18
1526903633859848,1,-7,-10,-49,-24,9,-9,-7
1526903633874808,-13,6,6,102,4,20,1,-9
1526903633874808,-25,3,2,-26,1,1,1,10
1526903633876803,40,-3,-2,-23,-19,36,-10,-2
1526903633876803,-44,3,-9,-2,-16,-8,-3,19
1526903633897746,4,-6,4,-53,-18,-22,8,-7
1526903633897746,-11,17,4,18,15,-25,-3,-4
1526903633898744,13,-9,-4,-18,-4,-32,-7,12
1526903633898744,24,5,45,90,48,59,33,26
1526903633910712,-23,6,-7,-14,-14,-21,-8,-14
1526903633910712,14,-9,-6,-26,-3,-14,-8,11
1526903633919688,-43,5,0,-3,-10,-14,1,-7
1526903633919688,25,-2,9,-1,-8,47,-4,-3
1526903633934648,7,-3,0,-6,20,45,-3,4
1526903633934648,17,0,-3,-20,-15,-10,10,-1
1526903633940632,22,10,-10,2,-50,-2,-2,18
1526903633940632,-12,-3,-11,-37,19,-52,6,-5
1526903633957587,-51,-9,-10,32,3,10,-13,-39
1526903633957587,-9,-3,-13,-36,4,-33,4,-2
1526903633958584,-29,5,10,17,9,3,3,-5
1526903633958584,40,-10,-10,-26,-20,3,0,-8
1526903633970552,11,-7,-5,-44,-21,-7,3,18
1526903633970552,11,7,6,-24,14,-38,5,17
1526903633979528,51,1,5,55,9,5,3,-2
1526903633979528,-46,-2,-4,-17,-2,-3,-7,-15
1526903633994488,33,-9,7,-7,3,2,0,10
1526903633994488,-17,-14,-2,15,6,25,3,4
1526903634001469,48,19,-6,-19,-1,-18,-5,-7
1526903634001469,-41,5,-3,-6,-7,-3,-8,-10
1526903634017427,33,-10,-4,-5,-10,-23,2,15
1526903634017427,-53,-9,1,-15,1,10,4,-7
1526903634019427,3,-13,-12,-4,3,38,-9,-6
1526903634019427,-19,0,-1,19,0,21,-13,-32
1526903634039368,12,10,4,-46,79,-40,3,27
1526903634039368,-4,0,-3,43,15,4,2,-11
1526903634041363,-3,-4,5,-9,27,4,0,7
1526903634041363,-6,-7,-12,-13,-23,-25,-13,-12
1526903634054328,-4,6,-7,23,-9,-31,3,4
1526903634054328,-5,-7,-13,-61,-20,1,-7,-11
1526903634061309,-10,-3,9,37,13,-23,2,-7
1526903634061309,27,6,-1,13,-6,-8,6,15
1526903634077266,-13,-14,-9,-23,-39,-3,-4,-7
1526903634077266,34,27,13,23,3,5,-6,-1
1526903634079262,-91,0,8,0,-8,-3,1,-6
1526903634079262,9,-4,-13,-19,-7,-28,-5,-2
1526903634100205,6,-13,-1,9,-5,1,2,1
1526903634100205,11,10,1,4,-1,11,-8,13
1526903634101204,-15,-21,1,7,10,-24,8,-13
1526903634101204,22,36,2,-5,8,38,-1,-2
1526903634114168,-17,-14,-7,0,-17,-29,-4,2
1526903634114168,29,-7,6,31,12,5,5,4
1526903634121149,11,13,5,-7,1,6,8,30
1526903634121149,-60,-16,-6,3,-10,15,-6,-28
1526903634137107,22,7,9,44,0,25,1,-18
1526903634137107,-16,1,-2,-29,4,-9,7,13
1526903634139101,36,-1,-7,-16,8,-12,-18,-1
1526903634139101,-37,-8,-1,-9,1,-13,13,-4
1526903634160045,25,13,12,36,5,4,6,10
1526903634160045,20,-8,1,0,-1,-1,-18,-6
1526903634161043,-26,-3,-21,-41,-13,-14,10,-9
1526903634161043,8,-1,-2,8,-15,-10,6,5
1526903634174008,32,7,6,-13,15,13,-6,3
1526903634174008,23,-6,4,20,1,1,9,5
1526903634180989,0,1,2,3,-5,2,0,8
1526903634180989,-43,4,-2,-18,-6,-12,-14,-43
1526903634196946,7,-8,-10,-8,-18,-3,-5,10
1526903634196946,7,2,1,7,10,18,2,-5
1526903634198942,-13,-2,6,13,9,11,-8,-12
1526903634198942,32,-8,3,0,10,28,1,26
1526903634219885,-24,7,0,-42,-13,13,2,-12
1526903634219885,-31,2,-5,-7,-8,-35,0,-4
1526903634221880,16,1,-3,-18,-25,0,-6,-14
1526903634221880,5,-7,-3,43,1,-11,-4,7
1526903634233848,-4,0,-1,-9,15,17,1,-28
1526903634233848,-18,-7,-3,3,5,9,7,12
1526903634240829,17,-1,-6,-8,4,-4,-1,-6
1526903634240829,5,8,28,21,1,3,2,17
1526903634257784,11,7,-4,-15,-13,-10,-16,16
1526903634257784,-28,-11,-3,-2,9,-4,-6,-30
1526903634258782,16,1,-1,16,-14,0,-2,24
1526903634258782,2,-9,-7,-3,30,19,-20,3
1526903634279725,-9,-1,-6,7,-18,2,-4,-18
1526903634279725,9,0,2,-5,3,25,13,6
1526903634281720,-5,-1,-6,-11,-2,65,-11,-19
1526903634281720,-4,-2,-11,-37,-23,-27,14,3
1526903634293688,-25,3,12,40,3,7,5,12
1526903634293688,-2,-6,-9,-13,-14,6,-7,-8
1526903634302664,-19,2,-2,-19,5,31,7,-21
1526903634302664,10,2,6,7,2,-27,3,12
1526903634317624,-16,2,-5,-23,14,-7,7,-5
1526903634317624,8,9,4,-9,-5,-11,1,-1
1526903634318621,-14,-6,-6,20,7,-26,8,12
1526903634318621,0,-4,-3,-6,-21,-13,-4,9
1526903634339565,17,2,5,-3,-10,-33,-18,3
1526903634339565,22,-2,-10,-10,-28,47,-11,4
1526903634341560,6,4,14,-4,6,-14,30,10
1526903634341560,19,-2,-2,13,-3,0,-8,-6
1526903634353528,-86,-9,-6,21,-6,-7,-18,-19
1526903634353528,6,2,10,-1,-4,-6,0,16
1526903634362504,15,-4,-13,-27,-5,33,-10,-11
1526903634362504,12,2,-2,4,0,-31,-2,9
1526903634377464,0,6,4,-7,6,14,29,-6
1526903634377464,-2,-5,4,11,10,1,-15,-2
1526903634379459,-11,0,-2,18,-2,-31,-7,1
1526903634379459,-23,1,3,-1,13,18,21,-3
1526903634399405,18,1,-3,-14,-16,-13,-1,-3
1526903634399405,-24,-2,-1,14,17,-23,-13,8
1526903634401400,15,5,3,34,4,18,6,-7
1526903634401400,6,3,-4,-13,-43,-10,-31,0
1526903634413368,-6,-1,4,-8,9,-20,13,-13
1526903634413368,-8,-3,-5,-1,-5,12,-1,-23
1526903634422344,-22,-1,-3,-34,10,-9,-8,20
1526903634422344,17,1,14,46,19,16,11,5
1526903634437304,11,6,1,-2,-8,-18,-9,7
1526903634437304,2,0,3,5,-7,43,4,-29
1526903634439298,10,0,-7,-31,-14,-37,12,3
1526903634439298,-28,-5,-2,-21,12,4,-9,-1
1526903634460242,38,-2,1,2,5,14,0,13
1526903634460242,-25,-3,3,13,6,-3,1,6
1526903634461240,19,2,4,14,2,-22,9,-8
1526903634461240,5,1,-8,0,11,10,-2,-2
1526903634473207,-28,-6,-13,-13,-5,26,4,-3
1526903634473207,14,-2,-5,-20,-2,-34,-36,7
1526903634482183,-6,0,11,8,-2,-17,5,0
1526903634482183,-3,-1,-7,-13,-5,4,6,1
1526903634497144,8,2,0,12,11,24,20,-1
1526903634497144,-18,-1,-19,-57,13,-15,-2,1
1526903634499139,7,-2,12,46,22,18,-18,-22
1526903634499139,-7,-5,1,-1,8,12,-2,6
1526903634520082,19,5,-6,-33,2,-11,-4,13
1526903634520082,8,-2,13,75,-19,10,17,5
1526903634521080,-2,-3,-1,-3,-24,-81,-5,2
1526903634521080,14,4,-6,0,7,32,1,17
1526903634533048,-22,-6,0,1,4,-23,-32,-30
1526903634533048,18,-5,-11,-41,-5,-11,12,-14
1526903634542024,-10,-2,6,8,2,18,-6,8
1526903634542024,-10,-3,-6,-27,-26,-17,3,15
1526903634556984,1,-2,11,33,16,39,-1,-6
1526903634556984,17,2,-5,-7,3,-54,-5,-11
1526903634556984,-29,1,-6,-13,-6,46,-7,-6
1526903634556984,5,1,-6,-70,-12,-30,2,-10
1526903634578925,-18,5,19,75,25,10,-9,22
1526903634578925,-30,-20,-20,-18,-19,-26,-20,-17
1526903634579923,22,4,-5,-15,-2,-70,29,8
1526903634579923,8,2,-2,8,-17,14,2,-4
1526903634601864,-3,3,-7,-29,-5,20,-8,7
1526903634601864,-9,-2,5,33,9,-10,9,8
1526903634602861,10,-4,-9,3,1,12,-11,-5
1526903634602861,1,-3,5,13,17,45,8,18
1526903634616824,-14,-12,-23,-33,-29,-63,0,-4
1526903634616824,47,8,4,-21,-10,18,8,2
1526903634617821,-12,-4,5,0,13,21,-6,-20
1526903634617821,-24,-3,-1,22,0,-4,5,9
1526903634638765,14,4,8,32,6,17,-1,-1
1526903634638765,-5,0,1,-12,-7,28,15,-7
1526903634639762,32,6,13,3,-1,-3,3,13
1526903634639762,-37,-4,-9,-14,2,16,-17,-34
1526903634661704,6,0,-4,3,-19,-39,27,14
1526903634661704,-12,2,5,6,14,9,5,3
1526903634662701,1,-5,-2,-10,-2,5,-1,23
1526903634662701,-34,-3,7,25,35,58,22,-46
1526903634676664,20,-1,-13,-29,-18,-10,2,13
1526903634676664,-6,7,4,21,7,-14,-11,-12
1526903634677661,-22,-2,-17,-41,-14,24,-11,9
1526903634677661,13,0,1,-4,-24,-33,-15,-10
1526903634699602,7,-3,-3,-3,7,-23,5,6
1526903634699602,-3,3,-1,-1,-13,-8,7,14
1526903634699602,4,0,-4,-13,-11,16,-21,-5
1526903634699602,5,-2,-8,-28,-25,-48,24,8
1526903634721543,-6,0,5,31,9,16,-12,-20
1526903634721543,22,0,1,-6,11,33,-2,9
1526903634722541,2,-1,-6,-17,5,-7,5,-8
1526903634722541,16,4,16,51,11,-14,8,37
1526903634736504,-8,-8,-10,-31,-14,7,-33,-42
1526903634736504,-26,2,-3,-13,-1,18,7,4
1526903634737501,-9,-4,5,25,1,-4,13,-1
1526903634737501,23,0,0,-6,6,-16,-11,4
1526903634759442,-6,2,1,0,1,17,14,-8
1526903634759442,13,1,0,17,1,-9,-10,-18
1526903634760440,4,-1,-3,-3,-5,-21,-9,-13
1526903634760440,-25,1,5,15,3,5,-1,1
1526903634781384,14,-5,-6,-20,-16,4,-13,5
1526903634781384,13,3,3,-9,-11,-27,6,10
1526903634782381,0,3,3,10,3,12,2,5
1526903634782381,22,0,-4,1,-1,-14,-11,-19
1526903634796343,-4,-4,-4,-19,-5,-1,-1,10
1526903634796343,-38,-6,-10,-78,-2,16,-4,-7
1526903634797341,7,0,14,63,6,30,-1,4
1526903634797341,6,-7,-18,-22,-19,-64,-18,-14
1526903634819282,-22,4,2,-20,10,2,0,9
1526903634819282,34,-3,0,13,-3,-36,14,2
1526903634820280,-43,-2,-2,-11,-4,-5,-13,-11
1526903634820280,2,-1,-1,2,9,43,-1,-4
1526903634841223,20,3,2,2,4,-13,2,15
1526903634841223,30,-1,9,5,18,11,11,2
1526903634842221,-27,3,1,10,8,4,0,6
1526903634842221,30,-11,-5,19,-1,-14,-23,0
1526903634856184,-19,1,-2,-3,-7,-5,-1,-23
1526903634856184,-15,-5,2,18,1,15,-14,-2
1526903634864162,-35,-7,-28,-38,-11,-10,14,3
1526903634864162,40,11,3,-19,-4,-25,-3,25
1526903634879122,-6,2,8,9,5,-2,-2,-15
1526903634879122,6,-3,4,18,6,0,1,11
1526903634880120,-11,-11,-9,-16,-4,-48,-23,-32
1526903634880120,-35,-5,4,2,2,5,11,-14
1526903634902061,12,-20,-9,-9,-8,14,-6,7
1526903634902061,-28,31,19,35,6,3,0,-3
1526903634902061,52,-1,-19,-39,-27,1,9,26
1526903634902061,-31,6,25,25,37,66,18,-7
1526903634916023,32,-1,-8,-7,2,-11,7,-17
1526903634916023,21,-22,-9,-6,12,10,0,11
1526903634924002,26,22,5,8,-10,-29,-11,1
1526903634924002,42,2,1,5,-3,24,3,42
1526903634938962,-17,3,-4,0,5,21,27,0
1526903634938962,8,-7,-7,-4,3,-50,-46,-6
1526903634939959,-6,0,2,10,0,38,-5,-8
1526903634939959,2,4,11,30,13,-69,-4,-12
1526903634961901,-20,-5,-15,-29,-6,-7,9,3
1526903634961901,-80,-6,-1,3,-30,14,11,-9
1526903634962898,33,-6,4,-10,1,-3,-7,0
1526903634962898,-36,-5,-5,-10,-12,3,-10,-8
1526903634975864,19,6,0,10,0,-5,-5,10
1526903634975864,-16,22,10,3,5,-7,14,3
1526903634983842,6,-12,-6,-2,7,21,8,2
1526903634983842,-19,19,-4,-13,-7,1,0,-4
1526903634998802,35,-5,18,15,6,-2,-3,13
1526903634998802,-16,-11,-12,-3,-5,9,10,4
1526903634999800,19,18,-5,-6,5,16,-3,6
1526903634999800,13,-18,-8,-21,-1,-6,-1,-14
1526903635021741,-52,12,4,14,6,60,-13,5
1526903635021741,-7,-5,2,15,-7,-23,-2,-14
1526903635022738,20,-11,9,70,34,15,1,-1
1526903635022738,-16,-4,-4,-2,8,6,1,-1
1526903635035703,-12,5,-6,-22,-8,7,-2,-1
1526903635035703,-12,-2,-5,-9,-6,-8,2,6
1526903635044679,23,-1,1,-16,-4,-10,-5,-12
1526903635044679,-2,-1,-7,-7,-6,21,5,-1
1526903635059639,17,-13,2,14,2,-16,-1,17
1526903635059639,-15,11,-5,-5,-1,-4,-12,-23
1526903635059639,4,-15,-6,-18,-6,1,-5,-2
1526903635059639,2,5,-1,-2,-7,-14,-1,8
1526903635081581,4,3,14,9,2,-21,2,6
1526903635081581,-12,-11,-14,-6,-5,-11,0,-3
1526903635082578,-27,23,8,-10,0,12,-1,4
1526903635082578,-32,3,6,5,2,-61,-3,-46
1526903635095543,29,-11,-11,-3,-1,-4,16,4
1526903635095543,14,-18,-8,-5,-5,8,-8,6
1526903635104519,-7,7,12,7,5,-11,12,-1
1526903635104519,5,-10,-5,-7,12,-64,-25,3
1526903635119479,9,28,10,11,-10,14,11,7
1526903635119479,6,-7,5,-16,15,36,-8,-8
1526903635119479,-4,-10,-2,13,-10,1,9,6
1526903635119479,25,-4,-3,26,3,40,19,3
1526903635141421,2,-12,-4,-5,2,-10,-15,-1
1526903635141421,16,23,-3,-6,-4,0,6,15
1526903635142418,-14,-1,9,1,8,29,-10,-11
1526903635142418,-1,12,-8,-20,-9,-26,7,6
1526903635156381,-4,-12,3,7,13,41,-2,-7
1526903635156381,36,10,8,19,10,8,13,24
1526903635164359,11,-14,-8,-13,-9,-37,-13,1
1526903635164359,-21,-7,-7,-4,-9,17,-7,-16
1526903635179319,-18,16,-8,-18,-5,22,-13,-2
1526903635179319,32,1,15,7,6,-24,5,6
1526903635180317,13,-10,-6,-8,-6,0,5,-11
1526903635180317,17,-14,-2,-4,2,7,5,20
1526903635201261,-20,0,-3,1,-7,-38,-13,-25
1526903635201261,-12,-11,-2,1,-2,10,-5,19
1526903635202258,54,10,6,6,-1,-19,0,5
1526903635202258,-22,-8,-6,-2,-1,61,8,-2
1526903635216221,5,-7,-3,-14,-16,53,-1,6
1526903635216221,-37,3,-9,5,-10,-26,-1,-16
1526903635224199,-51,-3,10,11,15,35,5,-3
1526903635224199,-2,6,-2,1,-23,-29,-10,-6
1526903635239159,30,7,7,23,4,-24,10,30
1526903635239159,0,-6,-5,-11,-4,-2,0,-10
1526903635240157,-37,3,0,-5,-3,4,-11,0
1526903635240157,10,3,-7,-18,-5,15,-9,2
1526903635262098,-1,0,4,0,-3,-44,7,-6
1526903635262098,54,-2,2,15,28,-19,-27,27
1526903635262098,-2,-6,-15,-26,-14,-40,4,-33
1526903635262098,11,4,-2,-1,3,42,1,30
1526903635276061,-26,-9,-1,0,-3,-46,-6,-33
1526903635276061,6,2,2,-11,-3,13,6,-6
1526903635284039,21,-7,-2,0,2,10,-3,18
1526903635284039,-34,11,3,5,6,3,-5,-9
1526903635298999,28,-12,-6,-15,5,1,7,7
1526903635298999,-19,-7,-6,1,-3,49,-3,-5
1526903635299997,-11,11,16,29,18,4,7,8
1526903635299997,-1,-10,-4,-1,-6,-11,4,-20
1526903635321938,-9,-1,-2,-9,-1,-10,-12,6
1526903635321938,-2,5,6,-1,-7,-7,7,-1
1526903635322936,-24,0,-6,-33,25,-37,-2,-4
1526903635322936,-4,0,-7,-27,-4,-23,0,-11
1526903635344876,-2,-6,-3,12,-9,-6,-34,9
1526903635344876,9,-3,6,8,-2,-1,9,-13
1526903635345874,-30,0,-7,-12,0,12,7,2
1526903635345874,19,3,3,-4,5,-8,-11,1
1526903635358839,16,3,-1,10,-3,-9,25,21
1526903635358839,-17,-4,-2,0,-4,-24,-39,-6
1526903635359837,38,-2,-8,-4,2,4,0,28
1526903635359837,-17,0,2,20,6,4,14,8
1526903635381778,-32,0,7,29,-11,-4,9,11
1526903635381778,19,0,-11,4,2,15,9,5
1526903635382775,11,3,12,10,-5,1,-13,0
1526903635382775,2,-5,-4,-9,-8,11,-3,1
1526903635403719,9,1,1,-2,13,3,7,6
1526903635403719,27,0,0,-23,-8,-10,-2,3
1526903635404717,-48,-2,-9,-24,-24,-6,-16,-31
1526903635404717,8,-4,1,30,23,-3,4,-1
1526903635419676,6,5,2,-10,1,9,-3,7
1526903635419676,-15,-1,-3,-5,-13,-5,1,-7
1526903635419676,-23,1,-4,1,-5,5,2,-4
1526903635419676,30,-5,5,-1,-7,-1,-35,1
1526903635441618,-10,0,-1,-14,-52,21,13,-5
1526903635441618,-12,-8,-10,19,1,-8,2,8
1526903635442615,-8,3,0,-11,3,23,16,-27
1526903635442615,6,2,8,38,5,-25,-13,8
1526903635464556,-20,-4,-3,-6,16,-1,0,-34
1526903635464556,18,-3,-3,-9,-7,-21,-3,6
1526903635464556,-30,-8,3,11,-4,-25,26,-15
1526903635464556,-9,1,-18,-23,-8,20,24,22
1526903635479516,3,-4,6,-7,9,-12,-4,-5
1526903635479516,-14,10,14,-8,8,18,3,-24
1526903635479516,20,-4,-14,4,1,-13,-16,10
1526903635479516,-21,-2,3,-11,-5,-1,4,-13
1526903635501458,-11,-4,-8,2,5,-22,11,0
1526903635501458,-14,-1,-3,-9,1,66,-10,-2
1526903635502455,39,3,6,10,-4,-1,-6,25
1526903635502455,-8,1,1,-11,-6,6,-7,-19
1526903635524396,19,2,-7,6,-3,15,22,14
1526903635524396,11,-5,6,1,-1,-25,2,3
1526903635525394,-8,-4,-3,-8,1,3,-6,2
1526903635525394,11,3,-1,-2,-9,14,-10,1
1526903635539356,26,-3,-3,-45,6,10,-6,-29
1526903635539356,-37,4,7,62,0,-15,11,-1
1526903635540354,-3,-3,2,-6,-12,-16,-1,11
1526903635540354,34,-1,3,18,20,-16,2,26
1526903635561298,-29,0,-4,1,-10,-3,-15,-37
1526903635561298,10,-2,-7,-13,-3,-3,8,5
1526903635562295,-3,0,3,12,11,-4,-4,-4
1526903635562295,11,-1,2,-11,1,8,1,-10
1526903635584236,-18,-8,-3,-10,9,-12,-15,16
1526903635584236,-28,4,-6,-4,-3,-5,5,-7
1526903635585234,-26,-3,7,17,-2,20,0,-12
1526903635585234,2,2,12,-8,-6,-10,11,-5
1526903635599196,20,-1,-8,30,1,-10,-7,3
1526903635599196,-16,-8,-19,-88,-8,-3,4,8
1526903635600194,-13,2,4,49,14,23,-8,-24
1526903635600194,-1,1,4,53,-3,-46,-7,11
1526903635622135,13,0,-3,0,-5,3,1,-1
1526903635622135,-12,-3,-2,-9,0,2,-5,1
1526903635622135,28,1,2,-19,18,20,10,9
1526903635622135,16,-1,-11,-31,-30,3,34,7
1526903635644076,3,4,7,10,9,2,4,-1
1526903635644076,46,-11,-6,12,3,7,-28,22
1526903635645074,14,0,-6,-31,1,-6,-2,22
1526903635645074,-39,-3,-2,-11,0,26,12,-22
1526903635659036,37,5,-3,4,4,-9,-16,-1
1526903635659036,7,4,2,0,-7,12,24,-18
1526903635660034,-8,-7,-9,-8,-17,-9,-2,4
1526903635660034,-11,-1,-2,-18,-5,-5,-4,-12
1526903635681975,6,5,2,-9,-1,-25,-4,2
1526903635681975,17,-9,2,23,-10,-17,0,1
1526903635682972,-13,2,0,30,-3,9,-8,2
1526903635682972,0,-1,-14,-14,5,-15,-11,-7
1526903635703916,-19,-1,5,6,8,17,-3,-1
1526903635703916,11,2,7,9,6,48,7,1
1526903635704914,14,1,-7,-38,-17,-39,17,-5
1526903635704914,-35,-3,3,1,3,16,-14,-2
1526903635718877,-5,-4,-1,-13,-1,31,3,20
1526903635718877,13,4,1,9,1,-29,8,14
1526903635719874,12,0,-15,1,-10,7,-2,-1
1526903635719874,0,1,14,-14,12,9,-8,2
1526903635741815,-10,-5,-1,1,-2,-41,0,-12
1526903635741815,-8,0,0,15,-1,-22,-8,-8
1526903635742813,-8,0,0,1,0,1,-6,-10
1526903635742813,5,2,-2,-26,-12,-6,1,5
1526903635763757,26,6,-2,11,2,-32,-5,2
1526903635763757,-14,-7,2,-3,3,-6,10,-15
1526903635764754,3,3,5,10,-3,-6,-6,0
1526903635764754,-22,-11,-10,-10,-3,7,-2,0
1526903635779715,-28,0,2,-1,-1,-2,-2,-3
1526903635779715,26,3,0,0,2,-11,-4,11
1526903635779715,-3,3,3,-9,2,-9,2,3
1526903635779715,37,-1,0,-18,2,-29,1,1
1526903635801655,-33,-1,4,20,3,0,-1,-3
1526903635801655,2,2,2,22,6,3,-7,0
1526903635802653,2,-12,-11,-27,-4,-15,-10,-5
1526903635802653,17,0,-3,-8,-4,13,-7,-3
1526903635824594,10,-3,-1,5,5,4,2,-10
1526903635824594,-12,3,-6,-17,-1,-2,1,1
1526903635824594,4,5,9,3,-9,1,3,8
1526903635824594,13,2,-3,19,10,4,-2,9
1526903635839553,-7,3,-4,-15,-3,11,-5,-4
1526903635839553,-19,-4,2,0,0,1,1,0
1526903635839553,-38,-8,-8,1,-2,7,-7,-19
1526903635839553,-4,1,1,9,-2,-17,-4,0
1526903635861495,2,0,1,-2,-5,15,3,7
1526903635861495,-6,3,-1,0,-2,15,-10,-10
1526903635862492,-34,4,0,-3,-6,-21,20,11
1526903635862492,-13,-2,-8,3,-7,7,-3,-9
1526903635884434,-14,-1,-1,-9,-2,-21,-10,-9
1526903635884434,16,0,-2,-7,1,-41,0,-3
1526903635885431,1,0,4,4,-2,26,-1,2
1526903635885431,-33,-3,4,11,7,15,11,6
1526903635899394,12,-2,-16,-57,-9,14,-20,-6
1526903635899394,-4,3,14,58,18,-2,3,0
1526903635900391,-3,-3,0,5,3,-6,4,-2
1526903635900391,0,-4,-14,4,3,-30,2,-4
1526903635921335,6,2,10,-5,-6,11,-8,1
1526903635921335,-17,-5,-7,-14,-5,-14,0,-3
1526903635922332,11,1,-4,-8,-5,1,-11,-8
1526903635922332,-2,-5,-2,6,-3,4,0,2
1526903635944273,-17,-3,1,12,5,7,9,-4
1526903635944273,-2,4,2,-9,-7,11,3,0
1526903635945271,-6,-2,-2,4,0,-4,-4,-2
1526903635945271,7,0,8,2,-3,-3,-7,-10
1526903635959233,5,-8,-9,4,-3,-8,0,-3
1526903635959233,-17,0,-1,-8,-2,2,-2,0
1526903635960231,11,7,1,-3,2,-4,0,6
1526903635960231,-5,5,5,4,7,21,-1,-4
1526903635982172,4,-6,3,13,2,12,3,7
1526903635982172,7,-6,-4,-19,-7,-37,-1,-4
1526903635982172,13,-1,-5,4,4,40,-1,1
1526903635982172,-3,-2,0,-3,-6,-21,-1,-1
1526903636004114,2,-4,-11,-7,-11,-33,2,5
1526903636004114,-3,3,6,1,-3,12,-6,-6
1526903636005111,-7,0,4,48,18,41,0,-1
1526903636005111,8,0,6,-5,-12,-36,-2,-2
1526903636019074,-17,-1,-3,7,1,9,6,9
1526903636019074,-15,-3,-8,-13,-4,-9,-7,-15
1526903636020071,4,-1,7,-17,-7,-7,-2,4
1526903636020071,8,-5,-4,10,5,26,3,4
1526903636042012,-6,-25,3,-3,2,-2,-4,-3
1526903636042012,27,50,-4,-9,-6,11,0,3
1526903636043010,-1,-5,-7,-15,-3,-17,-4,-1
1526903636043010,-8,-10,-1,3,9,9,-3,-7
1526903636063953,6,-16,6,4,3,-2,5,-3
1526903636063953,-49,-12,-8,1,-6,1,0,0
1526903636064951,-12,31,11,1,1,5,-2,-5
1526903636064951,7,-8,-9,-19,-15,-47,-1,6
1526903636078914,30,5,3,14,4,9,6,13
1526903636078914,10,-21,-2,-5,5,16,1,-10
1526903636086892,-4,-9,-17,-28,-10,-23,-5,-9
1526903636086892,-1,-2,12,52,16,10,0,6
1526903636101852,-10,12,5,1,5,4,-1,3
1526903636101852,20,9,6,-6,-6,-4,3,4
1526903636102850,29,-7,8,11,8,-11,2,8
1526903636102850,2,-8,-17,-15,-11,9,-4,-3
1526903636123794,18,7,0,-9,6,4,0,19
1526903636123794,-25,2,-1,9,3,1,-4,-32
1526903636124791,17,-13,0,-2,-6,-15,-6,10
1526903636124791,-7,1,-4,5,4,8,-4,-6
1526903636138753,-4,22,0,1,1,2,0,0
1526903636138753,8,-5,0,-7,-1,-4,1,2
1526903636146732,-8,-3,-4,-8,-11,-27,-1,-4
1526903636146732,8,-8,-2,0,-3,7,4,3
1526903636161692,-15,-23,-5,2,-2,-2,4,6
1526903636161692,-7,21,0,-1,-3,1,-12,-12
1526903636162689,9,14,12,9,3,4,6,10
1526903636162689,2,-8,5,-6,2,6,-2,9
1526903636184631,-16,-11,-16,-14,-12,-1,-6,-23
1526903636184631,-14,-15,-1,-24,-4,4,3,8
1526903636184631,-2,-6,-7,14,7,0,-2,0
1526903636184631,0,6,-5,-46,-17,-38,-2,11
1526903636198593,2,2,0,32,-2,-35,-1,-10
1526903636198593,21,-2,8,-16,-3,5,18,11
1526903636206572,-40,3,-4,14,0,-5,-24,-9
1526903636206572,11,2,1,-9,5,43,-3,-7
1526903636221532,5,-1,2,5,-8,-16,-10,-2
1526903636221532,-2,-5,-17,-35,4,0,0,-4
1526903636222530,18,2,3,15,5,9,4,6
1526903636222530,-7,2,6,20,0,20,-2,-1
1526903636244471,-29,3,-13,-53,-4,13,-3,-10
1526903636244471,34,-5,8,57,4,-7,-9,15
1526903636245469,5,-4,0,-11,-8,22,11,-2
1526903636245469,-16,2,-7,2,5,-4,-3,-13
1526903636258433,19,6,8,-8,-3,0,5,13
1526903636258433,-8,-9,-6,2,5,13,-1,-4
1526903636266412,-9,-9,-7,-18,0,-8,2,12
1526903636266412,-1,6,0,-11,3,-3,-1,-32
1526903636281372,2,6,10,25,7,3,17,18
1526903636281372,3,-4,8,6,5,25,-9,-8
1526903636282370,8,1,-2,8,-13,13,1,-2
1526903636282370,-10,3,-4,-8,-4,-32,4,-1
1526903636304311,3,-2,4,5,7,56,-6,-3
1526903636304311,-3,-7,-3,10,2,-9,10,20
1526903636305308,-27,2,-10,-22,-1,3,-12,-21
1526903636305308,-1,2,5,-6,-2,14,11,19
1526903636318274,19,4,4,26,4,31,-9,7
1526903636318274,-46,-9,-1,1,-7,55,-17,-21
1526903636326252,39,-1,-12,-17,-5,-54,12,-5
1526903636326252,-21,-6,3,13,6,16,2,3
1526903636341212,-11,-2,-8,-44,-7,13,6,2
1526903636341212,31,7,11,61,3,-3,-19,-2
1526903636342210,-10,-4,-1,8,6,25,2,1
1526903636342210,-18,1,5,0,-6,6,-8,-7
1526903636364151,9,1,-3,-45,1,-26,4,-1
1526903636364151,-6,0,5,25,5,-9,5,-6
1526903636365148,3,-5,4,0,-7,14,3,2
1526903636365148,17,8,-2,12,0,-38,13,19
1526903636378113,-23,-7,-6,-11,0,-4,-18,-9
1526903636378113,-9,-1,-5,-10,-4,-56,-3,-12
1526903636387089,-6,1,6,2,1,9,-4,4
1526903636387089,22,2,0,-17,-3,1,5,26
1526903636402049,22,-2,2,22,14,35,-3,-8
1526903636402049,-3,-5,-16,-22,-8,-34,-3,-19
1526903636402049,24,1,7,-10,-13,51,4,5
1526903636402049,-11,-5,-16,6,-5,-31,9,14
1526903636423991,-2,12,14,30,8,-23,-13,-19
1526903636423991,7,0,5,-3,0,12,12,30
1526903636424988,-14,-4,-7,-4,1,5,-6,-8
1526903636424988,17,-6,-6,-22,-11,-16,-5,-15
1526903636438951,-5,-1,10,40,-1,-22,1,10
1526903636438951,-17,-8,-15,0,-1,30,3,-5
1526903636446929,-1,1,3,-2,-4,-39,15,1
1526903636446929,-3,-1,-3,16,9,30,-12,-12
1526903636461889,-4,2,5,-9,-3,-18,10,2
1526903636461889,16,-1,-10,-34,-19,-36,0,16
1526903636462887,-16,-6,-9,8,0,-11,-14,-24
1526903636462887,-8,3,0,-2,3,11,21,12
1526903636483830,6,-3,-7,18,-14,4,-19,-19
1526903636483830,-1,-2,6,-3,-3,6,9,0
1526903636484828,-8,0,-2,-15,-12,-37,-15,5
1526903636484828,6,1,6,24,19,15,23,1
1526903636507766,-6,-1,-4,-16,-23,-16,-30,-4
1526903636507766,-13,-4,-4,4,0,-10,-12,-9
1526903636507766,13,-2,4,7,-7,-20,-5,7
1526903636507766,-9,1,-1,-8,-9,8,2,-8
1526903636521729,5,-5,-5,-6,9,-17,17,-2
1526903636521729,0,1,3,-8,-16,3,-4,6
1526903636522727,1,-5,-9,-7,0,14,3,-5
1526903636522727,-10,1,0,-7,-6,7,-28,-17
1526903636544668,-2,-1,2,-1,3,-12,18,0
1526903636544668,26,-6,-3,-18,1,26,13,22
1526903636544668,-20,3,4,-1,0,17,9,-4
1526903636544668,-22,-8,-6,-11,9,-19,-18,-20
1526903636566609,13,-1,-8,40,-6,-13,-1,9
1526903636566609,-11,0,6,-19,0,-13,-2,-18
1526903636567607,25,2,-1,35,16,16,6,5
1526903636567607,7,3,9,0,-6,6,-8,-6
1526903636581569,-25,-10,-3,-26,2,-18,-11,-12
1526903636581569,12,2,-8,-17,-13,-21,17,20
1526903636582567,-13,2,-1,-4,22,-11,0,-15
1526903636582567,-8,-5,-10,-6,-34,17,-34,31
1526903636604508,-10,0,-1,1,16,10,14,-30
1526903636604508,22,5,8,15,8,5,-1,20
1526903636604508,-15,-2,-6,-11,-1,-8,0,7
1526903636604508,5,2,1,-3,-4,-12,0,0
1526903636626449,-15,-7,-8,-24,-1,18,-1,-26
1526903636626449,-7,2,2,18,7,3,0,9
1526903636627447,20,0,-3,-1,4,6,-10,-4
1526903636627447,1,5,-1,8,9,-3,2,-1
1526903636641409,15,2,-3,-14,-16,0,1,29
1526903636641409,-21,0,9,41,10,2,11,-16
1526903636642407,-23,-7,-6,-29,-18,-25,-10,-11
1526903636642407,23,0,10,37,10,-15,11,-6
1526903636664348,-1,4,6,17,-4,3,25,45
1526903636664348,-36,-4,-13,-32,-3,-29,-40,-43
1526903636665345,12,-3,5,16,-6,-28,18,12
1526903636665345,4,-2,1,2,4,-6,-15,-5
1526903636686289,-3,-3,-3,-16,-9,27,11,7
1526903636686289,9,-4,-3,8,8,-31,5,1
1526903636687287,-5,2,-9,10,-33,64,-8,-4
1526903636687287,-2,-2,10,-26,4,5,9,-18
1526903636701249,-1,-1,2,-10,15,-8,-10,1
1526903636701249,4,5,2,-3,-3,27,6,7
1526903636702246,-8,1,-4,-3,9,-16,-3,-3
1526903636702246,18,-5,-7,1,-2,-4,-2,1
1526903636724188,-2,-1,1,3,-6,5,-10,2
1526903636724188,0,-3,2,-4,2,6,-6,-6
1526903636725185,2,4,3,0,7,-8,16,23
1526903636725185,4,-2,-5,-4,3,20,5,-10
1526903636747126,-5,-2,-4,-3,-15,5,-14,-6
1526903636747126,-3,-10,-9,-11,-14,1,-1,-14
1526903636747126,-7,1,7,7,16,-10,-9,3
1526903636747126,9,-1,-1,-3,-5,27,1,12
1526903636762086,-17,0,-3,4,7,4,1,-19
1526903636762086,28,3,-6,7,-10,-1,2,9
1526903636762086,7,-2,4,-22,-12,34,-1,-1
1526903636762086,-20,-3,0,11,-9,-61,1,-13
1526903636784028,25,3,0,2,5,9,-2,9
1526903636784028,-6,0,0,-10,-7,18,-2,-2
1526903636785025,19,3,5,-10,6,3,-1,-4
1526903636785025,-48,0,-1,4,6,46,2,2
1526903636806967,6,0,0,1,3,-13,-1,3
1526903636806967,-18,-2,-6,-23,-1,-9,-1,-8
1526903636807964,18,-6,-9,8,-1,4,-13,-3
1526903636807964,6,3,9,-5,3,-6,9,5
1526903636821926,-17,0,0,10,-2,-4,2,-4
1526903636821926,13,-1,3,5,7,9,0,4
1526903636822924,-35,-5,-7,-10,-15,-20,2,1
1526903636822924,16,2,2,16,15,-28,0,-4
1526903636843868,1,-1,2,0,3,21,4,0
1526903636843868,19,5,-6,-3,1,-16,-5,1
1526903636844865,0,-2,-2,-4,-3,0,2,2
1526903636844865,-10,-5,-10,-13,0,-6,-7,-2
1526903636866807,7,0,4,2,-2,-2,-8,-2
1526903636866807,-12,-2,-1,2,0,-6,6,2
1526903636867805,-3,0,-1,-2,6,1,-4,3
1526903636867805,11,0,-7,-47,-4,-18,-3,-3
1526903636881766,-16,-1,9,32,-13,-32,10,-2
1526903636881766,-10,-4,-6,-4,1,30,-12,-5
1526903636882764,8,6,9,8,7,-20,-7,9
1526903636882764,-1,-3,-5,-12,-9,3,-7,-12
1526903636904705,4,-2,-7,-15,-1,-9,-4,-2
1526903636904705,-17,-4,0,-6,-1,2,8,3
1526903636904705,2,-3,-3,-3,-3,4,-15,-5
1526903636904705,-3,3,4,14,-4,-23,14,6
1526903636926646,11,-8,-7,-10,0,-1,0,-7
1526903636926646,-20,1,2,7,3,13,5,2
1526903636927644,-8,-11,-7,-6,3,2,-2,-6
1526903636927644,15,6,1,13,0,9,-4,7
1526903636941606,-22,21,9,11,4,6,-1,-1
1526903636941606,22,-5,-1,-11,-4,-11,3,6
1526903636942604,-20,-3,5,12,9,2,7,-4
1526903636942604,-4,-10,-7,-2,-3,9,-7,-2
1526903636964545,9,0,-7,-12,-2,2,2,8
1526903636964545,-15,1,7,4,3,-1,-2,-9
1526903636964545,-1,2,0,0,-2,-6,4,-3
1526903636964545,34,0,-2,10,-1,5,-1,1
1526903636986486,-21,-2,-1,-6,4,11,-1,-3
1526903636986486,-3,0,-4,5,-2,-8,-5,-11
1526903636987484,14,-8,-1,1,1,-6,-1,-5
1526903636987484,-3,-1,5,0,-1,5,-1,8
1526903637001446,14,-5,-8,-4,-2,-5,-2,-20
1526903637001446,-11,2,1,-6,-1,0,-1,-7
1526903637002444,13,12,5,1,-3,-8,3,13
1526903637002444,-22,-4,-3,1,1,3,-2,-15
1526903637024385,-5,-5,-1,-1,3,7,0,1
1526903637024385,21,2,2,5,3,1,-1,20
1526903637025383,-12,-5,-7,-20,-9,-6,-3,-20
1526903637025383,-2,-15,4,17,7,9,2,7
1526903637046326,21,17,-4,-4,-2,-29,-2,8
1526903637046326,-13,40,11,6,6,14,1,-1
1526903637047324,-3,-9,8,2,-1,5,1,-11
1526903637047324,-5,-12,-1,-6,1,-4,-6,-2
1526903637061286,11,-3,-9,-2,0,3,5,-5
1526903637061286,3,-62,-18,-1,-1,-8,-4,11
1526903637062284,-11,39,2,-3,-1,-10,0,2
1526903637062284,19,76,29,10,7,-11,12,20
1526903637084226,6,-33,-6,-1,2,44,-6,5
1526903637084226,-7,-5,0,-3,-15,-63,-5,-7
1526903637085223,-20,-29,-14,-2,-4,17,13,-2
1526903637085223,8,-10,-11,-4,-6,1,-11,1
1526903637107164,-1,8,-4,-14,-5,-21,-20,5
1526903637107164,5,-1,1,5,2,16,-3,-7
1526903637107164,15,-3,2,3,2,-2,0,15
1526903637107164,-26,-5,-12,-16,-2,-21,6,-17
1526903637122123,-5,7,8,-16,-10,15,-6,-13
1526903637122123,4,-3,0,-2,13,17,5,3
1526903637122123,-2,0,2,14,3,-7,-2,-12
1526903637122123,4,-6,0,-2,-8,11,3,12
1526903637144065,12,-13,1,5,-1,-4,1,18
1526903637144065,-6,13,-5,-12,-6,-4,5,-14
1526903637145063,-2,3,-1,-2,-3,-10,-6,-1
1526903637145063,-6,-13,-5,-4,-1,9,-18,-1
1526903637167004,0,-14,-4,-3,0,-7,2,-5
1526903637167004,-7,-15,3,4,-1,0,3,7
1526903637167004,19,72,12,5,6,5,1,13
1526903637167004,-3,-31,-6,-2,-3,5,0,-11
1526903637180966,-5,-1,-6,0,-1,-5,0,-7
1526903637180966,-15,-6,4,5,2,12,-5,-3
1526903637188945,-4,-15,-3,-5,-4,0,-2,-3
1526903637188945,10,2,1,-3,-4,8,-3,4
1526903637203905,-14,12,6,6,-1,-11,5,-6
1526903637203905,14,-5,-4,-2,0,8,6,6
1526903637204903,-6,-8,-8,-5,-2,-5,-3,-6
1526903637204903,0,11,6,0,-2,-14,9,-5
1526903637226843,4,-17,-1,-4,5,29,-25,0
1526903637226843,-13,11,-2,-14,-1,3,1,-7
1526903637227841,-6,-2,3,25,0,4,-15,-19
1526903637227841,2,-5,-6,6,0,-5,2,-1
1526903637240806,-13,-6,-7,-3,-2,-7,19,-9
1526903637240806,12,10,0,-32,-10,-15,-17,10
1526903637248785,4,-9,2,6,1,-4,7,7
1526903637248785,-2,-9,-1,10,6,-6,2,-5
1526903637263745,-7,13,3,3,-1,11,5,5
1526903637263745,19,8,1,2,0,11,2,3
1526903637264742,-24,-18,-5,-11,-1,-2,-6,-8
1526903637264742,4,-4,-3,-4,-3,-3,10,-9
1526903637286683,5,12,6,4,4,12,-2,14
1526903637286683,-2,3,1,12,-4,-12,-3,1
1526903637287681,-3,-12,-16,-12,-3,-11,-9,-15
1526903637287681,15,11,11,1,-3,-9,7,3
1526903637300646,-15,-1,-4,-5,-2,1,-5,0
1526903637300646,1,-3,-9,8,2,46,-2,-8
1526903637309622,21,4,15,9,6,-12,16,16
1526903637309622,-25,-4,-12,-13,-8,17,-12,-5
1526903637324582,7,-3,-3,3,2,3,-2,-5
1526903637324582,-5,5,5,-2,1,57,2,7
1526903637324582,1,-5,-5,2,11,-3,16,-6
1526903637324582,6,2,5,-8,-4,17,-27,0
1526903637346523,-2,-1,7,0,-6,-51,11,10
1526903637346523,-6,1,-5,-4,15,-24,11,-24
1526903637347521,1,-2,-7,3,-41,33,16,12
1526903637347521,0,-5,-11,-13,18,69,8,15
1526903637361483,-2,3,1,-1,11,-61,-37,-45
1526903637361483,-11,3,1,-1,-4,-5,1,20
1526903637369462,14,-2,1,-18,27,-6,5,14
1526903637369462,-4,1,2,11,-31,-9,-1,-1
1526903637384422,15,-3,-4,19,-5,12,16,11
1526903637384422,2,6,0,2,2,-66,-13,12
1526903637385420,-7,-3,10,9,-12,17,0,-10
1526903637385420,6,-1,-4,-5,18,-32,-3,2
1526903637406363,-9,0,4,0,-25,28,2,-4
1526903637406363,0,-4,-7,-7,13,-47,-12,1
1526903637407361,-11,-7,-5,-21,66,-21,-7,-6
1526903637407361,9,12,7,11,42,-8,10,-1
1526903637421323,3,-6,-5,-6,24,9,-8,21
1526903637421323,-4,1,0,3,-40,29,8,-37
1526903637429302,9,-4,-4,4,-34,-33,-2,-5
1526903637429302,7,-2,-1,7,-27,-82,25,25
1526903637444262,-28,-1,-1,-13,8,16,-24,-33
1526903637444262,16,3,7,2,0,16,18,18
1526903637445260,5,1,-3,-28,111,4,4,8
1526903637445260,-16,-3,-2,1,-25,9,-12,-23
1526903637466204,6,6,0,9,8,-14,-11,3
1526903637466204,7,-1,-6,-7,-9,17,-1,5
1526903637467201,-15,1,-1,0,-23,-1,6,-19
1526903637467201,-11,-7,-2,0,17,23,5,12
1526903637481163,3,2,-8,-14,1,6,-5,6
1526903637481163,5,2,17,13,-8,-21,-45,-19
1526903637489142,2,1,-7,6,-46,13,2,15
1526903637489142,-2,-3,-1,4,1,-5,-4,-1
1526903637504102,17,-3,0,1,-3,4,13,18
1526903637504102,-12,-4,-4,3,15,4,13,-9
1526903637505099,6,-3,-2,4,-22,-17,-34,10
1526903637505099,1,3,5,-7,-19,5,18,-7
1526903637527041,0,1,2,1,3,-2,8,10
1526903637527041,-4,-4,-11,-14,20,0,-7,-3
1526903637527041,-8,3,5,-8,75,13,-35,-4
1526903637527041,10,0,-4,-1,-33,-23,8,0
1526903637541003,-5,-2,2,7,5,23,2,-8
1526903637541003,-4,-4,-9,6,2,-15,10,8
1526903637548982,1,2,9,3,-14,0,-25,-5
1526903637548982,-9,-2,-8,-7,-37,5,-21,-7
1526903637563942,1,6,8,7,-24,-35,14,1
1526903637563942,-3,-1,-6,-12,86,30,-7,-1
1526903637564940,10,-2,-2,-1,-19,-10,29,25
1526903637564940,-23,-1,2,0,34,14,-47,-32
1526903637586882,-10,-6,-7,-1,13,-5,14,0
1526903637586882,5,2,2,-2,24,-24,-18,-7
1526903637587879,4,2,-3,1,-28,4,-5,9
1526903637587879,-5,3,4,5,8,5,1,-8
1526903637609819,-12,-7,1,1,5,-5,7,-40
1526903637609819,-7,0,-1,0,-14,-28,-3,13
1526903637610817,-3,-1,2,3,-1,23,13,-5
1526903637610817,3,-2,1,-8,-49,1,2,2
1526903637623782,-3,-6,-17,-30,3,-20,-1,4
1526903637623782,8,-3,5,26,42,34,41,8
1526903637624779,-25,-3,-5,-2,-42,-11,-27,-24
1526903637624779,24,1,6,18,-27,23,12,5
1526903637646721,-10,-2,-5,-15,-11,-24,-7,-2
1526903637646721,14,-1,3,-5,37,21,7,7
1526903637647718,-17,0,-3,5,-45,66,3,-7
1526903637647718,1,1,-5,-15,27,-49,-15,8
1526903637669659,23,0,5,11,28,32,3,0
1526903637669659,-21,-3,-2,1,-61,-48,33,-1
1526903637670657,26,0,-5,-6,-6,-50,-4,-5
1526903637670657,-24,-7,-1,-6,40,11,-19,-11
1526903637684619,5,2,6,13,5,-13,-36,5
1526903637684619,-5,0,1,3,-7,-14,0,-1
1526903637684619,-5,-3,-4,-6,0,18,7,9
1526903637684619,-4,-3,-4,-6,3,22,-13,4
1526903637706560,-1,1,1,6,-3,-20,12,-14
1526903637706560,-9,4,0,0,-26,12,-9,2
1526903637707558,0,-1,0,1,4,-17,2,4
1526903637707558,6,-1,-4,-9,31,3,15,10
1526903637729499,-15,-3,-5,-18,6,22,-2,-17
1526903637729499,-3,-1,-3,14,-8,1,-16,-7
1526903637729499,11,2,1,-1,23,-13,-7,1
1526903637729499,-20,2,2,23,6,37,34,-2
1526903637744459,10,-1,-1,-34,-23,4,14,16
1526903637744459,-1,-3,-5,5,-27,-16,-7,-6
1526903637745457,11,1,6,7,24,-19,9,10
1526903637745457,13,-2,-3,-9,-26,-9,-2,-4
1526903637766401,-11,-1,1,12,0,-21,6,4
1526903637766401,3,4,6,8,-11,40,9,2
1526903637767398,-5,1,-7,-5,-21,-1,4,-1
1526903637767398,9,-3,-1,-5,15,-30,-33,-12
1526903637789339,-3,-3,0,14,4,47,10,10
1526903637789339,4,-6,-5,-15,-29,-24,-20,-7
1526903637790337,-8,-5,-1,5,39,14,2,6
1526903637790337,-9,-3,-5,-7,9,-21,21,-13
1526903637804299,8,-1,-6,9,3,5,-5,4
1526903637804299,-6,5,7,-11,13,16,-14,6
1526903637805297,-15,-5,4,17,-40,-20,10,-26
1526903637805297,-17,-3,-3,-4,8,3,-3,-2
1526903637826241,-2,-1,4,12,2,2,-5,12
1526903637826241,16,4,-3,-10,29,-6,5,2
1526903637827238,9,1,1,3,-11,3,-3,-3
1526903637827238,-12,0,3,-2,1,-6,-5,-2
1526903637849179,2,-3,-1,8,-57,-12,-7,-4
1526903637849179,-4,-1,0,11,-7,-25,4,-1
1526903637850177,0,3,-1,-15,26,27,-3,-2
1526903637850177,2,-4,0,3,-15,4,-13,2
1526903637864139,11,3,-2,-7,30,9,-5,8
1526903637864139,-19,-4,-8,-27,-18,6,-1,-13
1526903637865137,1,0,5,28,-30,14,12,1
1526903637865137,4,0,-4,-7,23,8,1,-2
1526903637887078,-7,-1,2,4,13,50,1,2
1526903637887078,29,1,2,15,-49,-18,-5,15
1526903637887078,-38,-1,-11,-25,70,-4,8,-21
1526903637887078,2,-5,4,2,15,56,2,-3
1526903637909019,11,8,9,-5,78,6,-4,4
1526903637909019,1,-2,-6,4,-21,48,12,-1
1526903637910017,8,1,5,-2,19,-6,-5,9
1526903637910017,8,3,2,7,10,-17,12,12
1526903637923979,-11,0,-2,-3,60,-54,-71,-21
1526903637923979,4,0,3,-5,51,-15,89,13
1526903637924977,-1,-3,-6,-6,-36,-5,2,2
1526903637924977,8,-1,5,8,-12,34,4,4
1526903637946918,-4,-4,-4,-6,-39,-86,19,-4
1526903637946918,-4,-4,-3,-7,13,27,-57,-16
1526903637947915,0,-6,-9,5,-29,19,-12,5
1526903637947915,-2,4,0,-9,-2,-20,2,-2
1526903637968859,4,-3,1,-3,4,23,16,3
1526903637968859,6,-1,-4,10,-43,29,-5,-4
1526903637969857,-5,1,0,-7,13,-44,-2,3
1526903637969857,-3,-6,-8,-8,13,-30,-23,-6
1526903637983819,-7,-2,-4,1,-50,24,0,-1
1526903637983819,1,3,2,-3,33,-20,-16,-2
1526903637984817,16,1,0,-4,7,-6,-2,8
1526903637984817,12,-1,0,7,-6,2,16,-2
1526903638006757,0,-1,-2,-1,-22,5,14,-2
1526903638006757,-21,-1,0,0,13,-29,-6,-4
1526903638007755,11,3,-1,-5,-5,-9,7,3
1526903638007755,16,2,6,8,8,-26,-3,10
1526903638029696,1,-1,-1,-2,39,75,15,1
1526903638029696,4,0,1,-3,65,-39,-31,-4
1526903638029696,-16,1,3,-2,76,35,-15,-1
1526903638029696,-5,-5,-6,-2,-13,-7,-2,-7
1526903638044656,4,4,2,8,-3,-8,-2,-1
1526903638044656,-25,-8,-8,-5,-17,31,3,-4
1526903638044656,-11,-5,-2,-15,-11,-31,2,-7
1526903638044656,-2,-2,4,17,-17,-18,-10,5
1526903638066598,-9,-3,-7,18,4,7,45,1
1526903638066598,13,4,3,0,0,8,-2,7
1526903638067595,3,-7,-6,-5,-41,-24,-6,-13
1526903638067595,-25,0,-1,-2,-4,-1,2,0
1526903638089536,-4,0,3,-6,-14,-21,-10,6
1526903638089536,-2,-4,1,3,-22,-11,1,-2
1526903638089536,24,-14,-4,7,-6,9,2,3
1526903638089536,-20,23,-9,-12,7,3,0,-4
1526903638104496,10,6,17,5,-1,-8,-5,-2
1526903638104496,-25,-3,-2,-4,4,-9,0,-4
1526903638105494,22,-6,-2,0,-4,-7,-2,0
1526903638105494,8,-8,-6,-4,2,2,0,1
1526903638126438,-6,0,-3,5,-6,-11,-4,-5
1526903638126438,-7,-15,-10,-10,26,0,-8,-9
1526903638127435,0,27,12,5,-1,-6,0,5
1526903638127435,10,-7,3,4,-18,21,4,9
1526903638149376,9,3,-1,-3,9,3,-3,3
1526903638149376,8,-2,-5,-16,31,-12,-8,-7
1526903638150374,-15,-5,2,7,-3,-12,4,4
1526903638150374,13,1,1,-2,12,12,26,2
1526903638164336,-40,-7,-7,-8,-10,47,-21,-9
1526903638164336,16,4,0,7,-41,-22,7,5
1526903638165334,-8,-3,-4,-5,-11,-8,1,-4
1526903638165334,-4,-2,1,-1,-2,-18,-22,-6
1526903638186278,9,-9,-6,-8,-10,-74,10,3
1526903638186278,-3,4,-1,1,-6,-29,-10,5
1526903638187275,4,3,10,12,1,14,7,6
1526903638187275,-33,-3,-8,-10,0,1,-5,-11
1526903638209216,24,-1,-6,-4,-1,3,-6,1
1526903638209216,0,4,1,0,-3,9,-2,7
1526903638210214,1,-20,-2,1,-23,-26,-6,-3
1526903638210214,5,-8,-2,-2,6,6,-1,-1
1526903638224176,-5,28,1,1,-15,-8,3,4
1526903638224176,3,10,9,7,-5,-15,4,-5
1526903638225174,1,-10,-1,-3,4,27,-1,-1
1526903638225174,4,-9,-1,1,1,25,-2,6
1526903638247115,-11,-17,0,3,-2,10,1,-7
1526903638247115,10,0,-6,-2,-37,22,-6,0
1526903638247115,-29,3,-3,0,34,-23,2,0
1526903638247115,17,-1,-2,-9,-7,-30,-20,3
1526903638269056,-4,6,5,17,-33,43,-23,-7
1526903638269056,-12,0,1,1,11,31,-4,-11
1526903638270054,1,0,-3,-2,-1,5,0,-3
1526903638270054,-15,0,-1,-8,-8,38,7,-8
1526903638283019,6,-3,-13,-26,26,-11,1,5
1526903638283019,9,-1,15,15,-13,10,22,11
1526903638291995,-2,0,-9,2,-14,-8,8,-3
1526903638291995,3,1,-7,-1,-12,-33,-9,-7
1526903638306955,0,-2,1,-9,0,-2,-1,0
1526903638306955,-6,-7,-5,-12,19,-6,5,-4
1526903638307953,9,6,3,-1,-3,11,10,2
1526903638307953,7,3,8,7,-3,-61,-35,6
1526903638328896,-8,-6,-12,-3,63,-26,1,3
1526903638328896,2,3,9,0,-11,-29,6,1
1526903638329894,-5,0,0,1,7,-7,-11,-3
1526903638329894,2,-4,-8,2,-20,-17,20,-3
1526903638343856,12,0,-4,-22,-12,19,-7,-6
1526903638343856,22,3,17,41,25,21,5,15
1526903638351835,-41,5,5,6,-7,15,-15,-26
1526903638351835,-14,-1,-3,-6,13,-3,-7,-9
1526903638366795,5,-6,-14,-10,-11,63,-16,-2
1526903638366795,2,0,-2,-19,-6,-25,15,9
1526903638367793,26,2,8,9,-4,6,0,9
1526903638367793,-11,-3,-21,-18,-6,-9,-1,-12
1526903638388736,-8,-4,2,3,-3,25,22,-7
1526903638388736,-11,-3,-7,-5,27,47,24,5
1526903638389734,7,0,1,6,-7,-40,-35,-3
1526903638389734,-8,-5,2,-5,-2,59,22,-3
1526903638403696,11,0,4,6,-10,-49,-26,-4
1526903638403696,-10,-5,-14,-26,1,-41,-12,-14
1526903638411675,12,6,6,9,-2,-27,8,7
1526903638411675,-7,-2,3,10,14,32,20,3
1526903638426635,3,-4,-4,11,-18,-19,6,-5
1526903638426635,-6,7,3,-10,-3,3,-19,-15
1526903638427633,-11,-5,-10,-10,4,-12,6,-4
1526903638427633,8,-1,-5,8,8,-88,-19,3
1526903638449573,-9,2,23,6,-1,-11,7,5
1526903638449573,4,-4,-14,-9,-24,21,-10,0
1526903638449573,-10,-4,-5,-3,23,-18,5,1
1526903638449573,6,0,3,-5,-9,20,1,-12
1526903638463536,-5,1,-1,-5,12,-16,22,7
1526903638463536,-6,-7,-12,-4,-11,-15,-10,0
1526903638471515,8,-1,1,-9,16,48,-9,-1
1526903638471515,4,-1,5,14,-13,35,12,5
1526903638486475,-9,-6,-6,-1,-8,-32,4,7
1526903638486475,5,3,5,10,-2,10,-26,1
1526903638487473,-10,-4,-8,-8,-7,6,10,-18
1526903638487473,7,-1,2,-1,52,-11,7,9
1526903638509413,6,3,9,-14,-33,-2,11,3
1526903638509413,-11,-2,-6,17,-50,-3,5,-2
1526903638510411,5,0,-5,-10,7,2,-27,5
1526903638510411,4,0,6,4,23,7,-5,0
1526903638523376,-4,-2,0,4,1,-16,-14,-6
1526903638523376,-1,0,-6,6,-6,11,0,12
1526903638531355,4,0,2,-15,-23,-13,6,1
1526903638531355,1,2,2,2,-17,-4,-2,6
1526903638546315,-5,-6,-10,7,11,16,9,-8
1526903638546315,1,5,20,3,13,-4,2,-8
1526903638547312,-4,-5,-10,-4,4,4,-18,-2
1526903638547312,-1,-1,1,-8,1,-9,-7,1
1526903638569253,3,1,-3,2,1,2,0,2
1526903638569253,-2,-1,-3,-5,15,-4,-4,-4
1526903638570251,11,0,0,-1,-12,-1,13,1
1526903638570251,-2,-2,2,-1,-5,-6,-3,-3
1526903638583216,0,1,2,2,-4,-1,-11,-2
1526903638583216,-4,-4,-10,-4,0,-4,4,-4
1526903638592192,3,5,6,-9,41,13,5,6
1526903638592192,-1,-4,-2,-12,-65,19,14,-2
1526903638607152,0,0,3,25,14,0,-1,5
1526903638607152,-1,0,2,5,23,-6,10,-14
1526903638607152,-7,-5,-12,-24,-31,5,16,8
1526903638607152,3,3,14,1,21,-30,13,-3
1526903638629093,3,0,-2,-7,7,-48,40,15
1526903638629093,-35,-6,-3,2,-34,-7,-2,-22
1526903638630091,7,3,-1,0,34,-2,4,26
1526903638630091,7,1,0,-4,-12,29,-11,-10
1526903638643056,8,-3,-3,-8,-18,-5,-4,8
1526903638643056,-6,0,0,-6,25,-17,-13,-9
1526903638652032,-4,-1,-4,0,-9,-21,-3,-19
1526903638652032,-10,-1,-5,-1,6,3,-5,8
1526903638666992,14,-2,2,8,8,13,-11,-2
1526903638666992,4,-1,-4,-16,-3,5,1,14
1526903638667990,-3,0,3,16,-16,17,-3,9
1526903638667990,8,-3,-1,10,21,-17,-12,3
1526903638688933,-11,2,0,-3,-30,12,0,-16
1526903638688933,8,1,2,2,8,0,6,5
1526903638689931,-4,1,0,4,-13,1,-6,-1
1526903638689931,1,-1,-4,2,20,-5,1,1
1526903638712869,5,0,2,-8,12,-1,4,9
1526903638712869,-4,-3,0,-8,4,-2,-8,-3
1526903638712869,5,2,1,18,-40,-28,4,-4
1526903638712869,-11,2,4,8,3,1,3,-6
1526903638726832,-16,-7,-10,-4,0,13,-16,-10
1526903638726832,11,1,1,5,11,-9,-7,-1
1526903638727830,-9,-2,-3,-16,1,1,5,-2
1526903638727830,2,-2,1,-3,-6,3,-2,-3
1526903638748773,1,0,3,4,0,-11,-3,5
1526903638748773,-2,0,-3,2,9,4,5,5
1526903638749771,13,-1,-2,-1,8,1,-9,-2
1526903638749771,-6,-3,-4,-2,-8,1,-9,-4
1526903638772709,-6,-2,-6,-11,6,0,2,-9
1526903638772709,5,-1,-2,-3,-9,-7,-18,1
1526903638772709,-2,0,4,6,1,7,-5,-6
1526903638772709,10,2,1,-3,0,14,2,5
1526903638786672,-14,-1,-2,2,4,-25,-2,-13
1526903638786672,10,1,2,-2,6,7,6,8
1526903638787670,-5,-4,3,6,4,17,1,-4
1526903638787670,9,-3,-4,-1,2,-14,-10,1
1526903638809611,-14,2,2,1,1,10,22,2
1526903638809611,9,-4,-4,-5,-1,-9,-2,-4
1526903638809611,-3,0,0,3,5,9,0,2
1526903638809611,1,-1,-2,-4,-2,3,10,9
1526903638831552,12,-1,-6,0,6,11,-10,-17
1526903638831552,-9,-1,2,-11,4,-1,-10,2
1526903638832550,0,0,1,3,1,-3,1,-2
1526903638832550,-10,-4,-8,5,5,-5,-4,-4
1526903638846512,0,6,7,-6,-2,3,-2,12
1526903638846512,-2,-1,-5,9,8,10,6,0
1526903638847511,7,-2,-4,-11,-13,-5,-5,-5
1526903638847511,0,1,6,-4,-11,-8,4,4
1526903638869451,-2,-2,-6,11,1,13,-13,-2
1526903638869451,-2,-2,-3,-9,-8,-4,9,-9
1526903638870448,14,0,3,5,-5,-2,3,3
1526903638870448,-22,-3,-8,-6,-4,0,-2,-2
1526903638891392,24,-2,-2,-5,1,8,-3,8
1526903638891392,4,1,4,7,-8,-8,-4,-2
1526903638892389,-5,-1,-4,-8,3,-4,3,0
1526903638892389,-5,0,4,-1,2,0,-3,-5
1526903638906352,3,0,-2,-6,1,-10,-4,0
1526903638906352,-18,1,-2,2,-13,-1,0,-3
1526903638907349,3,-2,1,15,12,-3,2,2
1526903638907349,22,2,2,6,5,33,1,-3
1526903638929291,-13,2,0,-2,-16,-21,-6,1
1526903638929291,3,-5,-7,-13,-6,-2,-1,1
1526903638930288,-3,-1,1,0,3,2,1,-4
1526903638930288,11,0,0,1,-3,-8,-2,5
1526903638952229,-9,0,3,0,16,8,-4,-2
1526903638952229,23,4,1,2,3,4,3,6
1526903638952229,-37,-8,-7,-10,-9,-9,-3,-8
1526903638952229,4,-11,-2,0,5,-5,-2,-2
1526903638966192,-6,4,0,2,-4,3,0,-1
1526903638966192,3,0,-5,2,-2,-3,0,4
1526903638967189,-3,2,11,2,-5,1,0,-8
1526903638967189,-4,2,-3,-5,-4,-7,1,2
1526903638989131,-6,-4,2,2,1,1,0,0
1526903638989131,11,2,-2,4,-1,-1,-2,-2
1526903638990128,-13,-5,-4,2,3,1,-1,0
1526903638990128,-1,0,-5,-9,-6,-18,-2,-4
1526903639012069,-13,-3,-3,-5,-1,18,-2,-4
1526903639012069,0,-1,0,4,1,1,0,0
1526903639012069,6,-3,-6,-7,-2,-4,-4,1
1526903639012069,-6,-1,2,4,-12,-5,-1,-4
1526903639027029,0,0,-1,-5,-5,-8,-1,0
1526903639027029,-5,-5,4,11,0,-2,-1,-1
1526903639027029,-8,3,0,-2,-6,0,0,2
1526903639027029,-3,0,-4,-2,2,-2,1,-4
1526903639048970,8,-4,-7,-1,-2,1,-1,3
1526903639048970,-15,-1,5,-5,-2,2,-1,-5
1526903639049968,18,0,-1,-5,12,-4,-1,1
1526903639049968,-5,-1,-16,-7,3,2,4,-2
1526903639071909,-8,4,16,21,5,-1,-13,-3
1526903639071909,-6,-8,-5,-5,-1,-1,1,-8
1526903639072907,9,2,0,4,-1,3,0,5
1526903639072907,-6,3,7,-5,2,3,4,4
1526903639086869,11,6,-7,-9,-4,-3,-1,-4
1526903639086869,7,4,4,5,2,-3,-1,0
1526903639087867,-15,-14,-6,-3,-2,-1,-2,0
1526903639087867,2,-6,-4,2,-1,1,-2,-4
1526903639110805,2,21,5,-2,0,-5,-1,3
1526903639110805,-13,5,5,0,-2,-2,-4,-8
1526903639111803,11,22,7,3,-1,0,4,-7
1526903639111803,-6,-3,-4,-3,-3,-7,-2,0
1526903639131749,-15,-15,-4,-1,-1,2,0,-3
1526903639131749,2,-3,-7,-9,-2,-1,1,3
1526903639132747,3,-5,-3,0,-4,0,-5,0
1526903639132747,3,2,2,-3,6,14,-6,-3
1526903639146709,-6,0,0,7,2,-10,15,-1
1526903639146709,3,-2,-4,-4,-5,-4,-3,0
1526903639147707,-8,-5,-1,-5,3,6,2,3
1526903639147707,3,0,1,0,0,-19,-3,-3
1526903639169648,3,-4,-3,8,1,15,0,3
1526903639169648,1,-1,2,6,1,3,2,6
1526903639169648,22,5,2,-4,-3,-6,-3,1
1526903639169648,-27,-1,2,0,0,-2,-3,-17
1526903639191589,-6,-13,-14,-7,-4,-4,-4,-8
1526903639191589,0,6,9,0,1,-1,3,7
1526903639192587,-9,0,-7,-4,-7,-4,-6,-4
1526903639192587,16,-9,5,5,2,3,5,12
1526903639206549,5,-14,-8,-9,-5,-3,-8,-10
1526903639206549,-14,4,-6,-3,-2,3,-1,-7
1526903639207547,-4,8,1,3,1,-2,5,1
1526903639207547,5,-10,-3,-4,-5,-11,3,-6
1526903639229488,5,-4,0,-5,-1,-4,-4,7
1526903639229488,2,-4,-5,1,-1,-5,-3,-4
1526903639230485,-3,-2,-3,1,-1,-3,-1,-5
1526903639230485,-2,-2,3,5,0,4,4,7
1526903639251429,7,8,-2,-6,-4,-4,-2,5
1526903639251429,-10,-7,-2,-3,-2,0,-2,-1
1526903639252427,-11,-3,2,5,0,4,-5,-14
1526903639252427,7,6,0,3,-2,0,-2,2
1526903639266389,7,1,2,-2,1,5,6,7
1526903639266389,2,0,-6,-5,-1,-1,-1,2
1526903639267387,4,-6,-3,-2,-1,1,0,6
1526903639267387,-5,7,-1,-1,-3,-13,-6,2
1526903639289328,3,-2,5,4,5,16,5,0
1526903639289328,-7,-6,-1,0,-3,-4,-5,-1
1526903639290325,1,-6,-7,-3,-3,-4,-2,-4
1526903639290325,7,5,-5,1,-1,-3,-1,4
1526903639311269,-7,-3,13,3,2,2,-2,-3
1526903639311269,2,10,3,0,3,8,0,-1
1526903639312266,-1,-8,-3,-1,1,1,0,3
1526903639312266,-11,5,2,-10,1,6,-4,-4
1526903639326229,11,-2,-4,7,-2,-10,-4,-2
1526903639326229,5,-4,0,-1,1,4,5,1
1526903639334208,-27,0,-1,2,-2,-5,-7,2
1526903639334208,1,-6,-5,-5,7,3,1,-6
1526903639349168,10,4,3,3,-1,-13,5,4
1526903639349168,-9,-1,1,-3,-2,-4,-2,-5
1526903639350166,1,-3,-3,-5,-3,1,-1,-2
1526903639350166,-3,0,-1,2,2,0,-2,-4
1526903639372106,-9,-1,-6,-4,-3,0,-1,-4
1526903639372106,4,-4,3,-14,-5,-14,-12,-12
1526903639372106,14,1,-5,19,-2,25,13,6
1526903639372106,-9,3,15,9,-3,-5,12,-2
1526903639386069,4,-3,-4,6,-1,-6,-4,3
1526903639386069,-13,-3,-10,-20,-2,-5,1,-19
1526903639394048,11,-3,1,15,10,-1,1,-1
1526903639394048,0,3,2,-1,0,4,4,7
1526903639409008,-6,2,3,-2,-1,0,-25,-3
1526903639409008,23,3,4,3,5,5,8,14
1526903639410005,-14,-1,0,1,-4,19,-6,-11
1526903639410005,-5,-1,-5,-10,-15,-36,9,-1
1526903639431946,-4,-1,-2,-6,-2,0,8,-2
1526903639431946,11,2,-2,10,-2,5,-3,13
1526903639432944,0,5,7,-21,2,-15,-4,0
1526903639432944,-2,-5,0,33,-6,13,-10,-13
1526903639445909,1,-1,-1,-10,-3,3,1,1
1526903639445909,-6,-1,-3,-6,6,-6,0,1
1526903639453888,11,-5,-11,-10,0,12,6,10
1526903639453888,-2,-1,3,-1,8,8,-12,-14
1526903639468848,-2,6,7,7,-3,-6,5,7
1526903639468848,-1,-5,-9,3,-1,5,1,10
1526903639469845,-30,-6,2,-13,-3,-16,-3,-16
1526903639469845,20,-2,-5,-11,0,2,-6,17
1526903639491786,-17,-4,-9,-6,4,36,-2,-23
1526903639491786,-18,0,8,9,-3,-8,10,2
1526903639492784,-6,1,-9,-9,-5,-13,-7,-16
1526903639492784,19,2,-8,8,-2,0,4,13
1526903639505749,-17,6,15,-3,-9,-8,-6,-12
1526903639505749,-9,-4,1,8,-7,7,14,-2
1526903639514725,5,-2,1,-6,-3,-8,-14,4
1526903639514725,-2,-4,-6,-7,5,7,1,-2
1526903639529685,7,0,-2,-1,1,-5,0,7
1526903639529685,2,4,1,-1,1,7,-6,3
1526903639529685,-3,-5,1,14,1,-22,-4,-30
1526903639529685,-3,-2,0,-11,-5,22,10,6
1526903639551626,7,1,-3,3,1,-8,-3,10
1526903639551626,0,-2,0,-3,15,-10,6,1
1526903639552624,11,3,6,15,0,4,-1,14
1526903639552624,-7,-1,0,-9,4,-6,-6,-1
1526903639565589,5,-5,-13,-6,-5,-10,-7,-11
1526903639565589,0,2,0,-2,-2,9,-8,-2
1526903639574565,13,0,-1,-6,-7,-2,-1,10
1526903639574565,-5,2,5,5,0,-2,1,-3
1526903639589525,6,-2,-3,-4,2,-4,-3,4
1526903639589525,-3,-4,-10,-26,-13,2,-4,-4
1526903639590522,7,2,4,12,3,3,0,-16
1526903639590522,-2,-1,1,-2,-6,-4,-11,-6
1526903639611466,-4,-2,-4,3,-8,-2,11,-2
1526903639611466,4,0,-4,-49,4,-2,-1,15
1526903639612464,-33,-2,7,33,-8,3,-1,-13
1526903639612464,9,-3,-5,-12,4,0,-11,-17
1526903639626426,-16,0,-5,-34,-14,-4,2,3
1526903639626426,5,4,6,76,11,-1,-2,-1
1526903639634405,13,-1,-3,-3,-2,1,4,21
1526903639634405,-6,-4,-4,-10,-17,-8,-3,2
1526903639649365,-4,-1,7,-8,2,-1,-5,-19
1526903639649365,8,0,-1,13,-6,-3,1,33
1526903639650363,0,0,-1,1,5,-1,-4,-11
1526903639650363,-2,3,7,23,5,2,0,11
1526903639671306,-1,-3,-8,-11,-1,-3,1,-6
1526903639671306,-8,0,0,-5,-3,0,-6,-10
1526903639672304,6,-4,1,5,4,4,10,8
1526903639672304,-3,-2,-6,-25,-8,-6,1,1
1526903639695242,3,2,1,13,5,2,0,3
1526903639695242,-1,-2,2,3,0,0,1,-8
1526903639695242,12,-1,-3,-24,-3,-6,-8,2
1526903639695242,-19,-2,5,8,6,6,13,-4
1526903639709205,-5,-1,-9,1,-1,-5,-22,-1
1526903639709205,-2,1,2,7,-2,-3,-2,-16
1526903639710202,10,1,-5,-26,-7,-2,0,13
1526903639710202,11,1,0,-2,9,2,-1,0
1526903639732143,0,2,9,20,9,4,13,11
1526903639732143,3,-5,-11,5,-4,0,-1,-12
1526903639732143,1,1,3,12,4,9,1,0
1526903639732143,-4,-3,-3,1,1,-6,-5,-7
1526903639755082,-1,-3,-6,-11,-6,-3,3,1
1526903639755082,6,-1,-1,-8,-3,-6,-7,-5
1526903639756080,-1,1,3,-6,2,2,5,7
1526903639756080,15,0,1,11,8,6,1,8
1526903639769045,-17,-1,-5,0,2,-3,-2,-18
1526903639769045,5,-3,2,0,0,11,2,1
1526903639770042,-31,-3,-7,-7,-1,-6,-4,-1
1526903639770042,-6,-2,-5,0,-4,-3,-1,-8
1526903639791983,23,3,14,5,2,-3,2,17
1526903639791983,-4,2,-6,-8,-7,-7,-3,-14
1526903639792981,13,0,-1,-10,-1,-4,2,7
1526903639792981,9,-1,-2,3,-1,0,-3,2
1526903639814922,-5,-4,-7,-7,-2,4,4,3
1526903639814922,-4,2,2,18,-2,-2,-2,-2
1526903639815920,9,-6,1,-4,0,0,-1,4
1526903639815920,-13,4,0,1,-4,-2,-3,-4
1526903639828885,3,-2,5,8,2,1,0,-2
1526903639828885,2,1,-3,-16,-9,-2,0,5
1526903639829884,-1,-3,-5,5,1,-5,-3,3
1526903639829884,-7,-6,-3,-4,-6,-1,-4,-11
1526903639851830,-5,0,0,16,9,0,3,3
1526903639851830,5,2,-1,-4,1,5,-2,2
1526903639852821,5,1,-3,-6,0,0,4,-1
1526903639852821,-31,-1,-1,-4,0,0,0,-1
1526903639874762,19,-2,-1,-1,0,6,5,3
1526903639874762,-27,-2,-5,4,0,-7,-17,-6
1526903639875760,8,1,2,-6,-2,-1,4,3
1526903639875760,13,3,10,5,3,-4,2,-1
1526903639889722,-7,-5,-10,-7,-5,-4,1,-2
1526903639889722,1,0,3,-6,0,-3,0,-1
1526903639889722,0,-3,-2,-4,-3,-3,0,4
1526903639889722,-8,-6,0,6,-3,0,-7,-6
1526903639911663,1,14,3,0,-4,1,1,1
1526903639911663,5,-6,-3,-3,-1,-4,-2,-4
1526903639912661,3,1,-2,4,-2,0,-2,2
1526903639912661,19,1,-5,-7,-1,1,2,6
1526903639934602,4,-5,-1,3,1,1,0,5
1526903639934602,0,7,-3,-10,-3,-4,2,-2
1526903639935600,5,0,1,-12,-3,0,1,-4
1526903639935600,-7,-2,-7,-5,-9,-2,-4,3
1526903639949562,-1,-3,-1,1,6,-5,-3,-1
1526903639949562,-4,0,2,19,0,0,5,3
1526903639949562,-13,-2,-3,-1,-4,-2,-5,-8
1526903639949562,8,1,-2,-20,-4,-3,-8,1
1526903639971503,-3,2,2,15,-4,0,-1,1
1526903639971503,-4,-4,2,-17,2,-2,-2,-3
1526903639972501,-5,-3,-2,5,-1,1,1,-5
1526903639972501,-4,-1,-6,-10,-8,-6,-2,-1
1526903639994442,-7,0,-3,5,-4,-2,-3,-4
1526903639994442,5,-4,2,-11,17,7,9,1
1526903639995440,-9,-1,-1,0,-6,-5,-17,-7
1526903639995440,-2,-2,-5,4,7,1,6,-4
1526903640009403,-12,2,5,-9,-3,-5,-16,-4
1526903640009403,-1,-4,-4,0,-9,-3,1,0
1526903640010400,-8,0,-1,0,2,0,6,-1
1526903640010400,-2,6,1,7,2,3,3,5
1526903640031343,3,-23,-8,-3,-1,-5,0,0
1526903640031343,7,10,-1,0,-3,0,-1,4
1526903640032341,1,10,9,5,1,1,0,-7
1526903640032341,-22,1,-5,0,-3,-2,-3,-2
1526903640054282,14,-1,0,-8,-3,-1,5,1
1526903640054282,-31,-10,2,3,-2,-3,-5,-3
1526903640055280,22,3,-4,-7,-1,1,1,3
1526903640055280,-1,-2,-2,5,-1,-2,-2,-5
1526903640069242,-7,-5,-3,-4,-2,-1,-1,-2
1526903640069242,6,1,-4,1,-3,2,2,1
1526903640070240,-5,-5,1,0,2,1,0,-1
1526903640070240,-2,0,2,-10,-2,1,0,5
1526903640092180,1,6,-2,-3,1,0,-1,-6
1526903640092180,6,-1,-3,6,-3,-5,-8,-3
1526903640092180,-30,-3,5,5,-3,-1,4,-7
1526903640092180,11,-8,-8,0,1,2,-4,-2
1526903640114122,-6,2,-4,-12,-2,-2,-6,-8
1526903640114122,3,-5,-1,-6,-2,1,2,0
1526903640115119,5,4,0,-1,-1,2,-1,0
1526903640115119,12,5,1,7,3,-1,1,4
1526903640129082,-22,-5,-2,2,1,-1,1,-3
1526903640129082,7,8,0,-1,0,-2,-3,-6
1526903640130079,-13,-13,-2,-3,1,-2,-1,1
1526903640130079,17,-3,1,1,-3,0,3,2
1526903640152021,2,-11,-5,0,1,3,12,2
1526903640152021,-1,25,5,-3,-1,-4,-18,-9
1526903640153018,38,-3,6,8,3,2,6,11
1526903640153018,-17,6,-1,-5,-1,-2,-4,-6
1526903640173962,12,-14,-3,-2,-3,-1,1,4
1526903640173962,-3,-10,-1,1,1,1,5,3
1526903640174960,15,13,-2,-4,-5,-2,-4,-4
1526903640174960,-15,-7,1,6,-2,-2,0,4
1526903640188922,13,4,-2,0,1,2,0,4
1526903640188922,-6,-6,-4,-5,-3,-2,0,1
1526903640189920,-1,8,5,2,0,1,-4,-1
1526903640189920,13,-4,2,-4,-2,-1,1,-2
1526903640211860,-11,10,1,-5,-2,-1,-1,1
1526903640211860,-3,-10,-6,-1,-4,-5,-4,-6
1526903640212858,-10,-11,-4,-4,4,2,0,1
1526903640212858,8,4,3,1,1,0,0,0
1526903640233803,1,-1,-2,7,1,2,3,3
1526903640233803,-4,4,4,-3,-1,-1,1,4
1526903640234800,-8,-10,-6,-6,-5,-4,-3,1
1526903640234800,-4,6,-2,1,0,-2,-2,-4
1526903640248762,1,1,7,4,4,0,1,2
1526903640248762,10,-13,-7,-7,-5,-2,6,2
1526903640256741,-8,12,2,6,0,-1,5,-3
1526903640256741,3,0,3,-1,3,-2,-15,-6
1526903640271701,-19,1,-4,-3,-5,-11,-13,-3
1526903640271701,-8,-7,-8,-1,1,1,3,1
1526903640272698,12,-2,3,0,-1,-2,2,-3
1526903640272698,0,-7,-10,-2,-1,-1,2,4
1526903640294639,13,16,6,-3,-2,1,2,-4
1526903640294639,4,-3,5,2,2,1,-3,2
1526903640294639,-25,4,-7,-1,-3,-3,-4,-7
1526903640294639,2,-7,7,-1,-2,0,4,-8
1526903640308602,14,2,-5,0,0,1,1,1
1526903640308602,-3,-3,-2,-2,-1,-2,1,2
1526903640316581,5,1,-2,-9,2,1,4,3
1526903640316581,5,-2,-1,2,4,1,-2,6
1526903640331540,-14,2,-1,10,-1,1,-7,-8
1526903640331540,2,2,5,-4,-2,-3,3,-3
1526903640332538,-2,-10,-6,-4,-3,-4,-6,0
1526903640332538,-6,2,0,-17,-4,0,4,-3
1526903640354479,4,-1,-3,33,6,4,-2,3
1526903640354479,-4,-2,3,4,3,2,0,0
1526903640355477,-1,-4,-2,0,-9,-2,-6,7
1526903640355477,-9,2,-4,-10,-1,-2,6,-3
1526903640368442,-3,0,6,0,-3,-6,0,1
1526903640368442,-11,-5,-5,-11,-6,-2,6,-20
1526903640376421,7,-4,-5,3,5,2,2,-1
1526903640376421,5,6,12,-1,-3,2,3,-6
1526903640391380,-10,-2,-5,-13,5,13,3,4
1526903640391380,0,0,1,7,1,-1,-5,-1
1526903640392378,14,-2,-4,-7,-5,-4,3,-6
1526903640392378,-16,-2,-5,7,3,6,-2,16
1526903640414319,-3,-2,-2,-13,-6,-6,-5,-3
1526903640414319,7,4,-1,-1,0,2,8,3
1526903640415317,7,-2,-1,-7,-2,8,0,2
1526903640415317,0,-1,-7,14,5,-4,3,-2
1526903640428282,-14,-3,12,19,-3,-9,-4,12
1526903640428282,-4,-2,-18,-4,-4,1,-12,-9
1526903640437258,-5,2,5,-6,2,-8,-3,-2
1526903640437258,7,1,7,2,-5,-1,1,-4
1526903640451221,0,2,4,-20,16,-4,1,10
1526903640451221,8,-1,5,25,-10,2,8,-3
1526903640452218,-14,-7,-15,-18,-7,-2,-1,-4
1526903640452218,0,0,-5,-5,-1,7,6,0
1526903640474159,2,1,-2,-5,5,7,-2,-18
1526903640474159,3,-5,-4,-4,4,-3,-5,5
1526903640475157,3,9,13,7,3,-4,-1,6
1526903640475157,9,-7,0,-12,-12,0,-10,-2
1526903640488122,3,0,-6,2,-6,-7,12,0
1526903640488122,7,2,-4,-2,6,6,-14,6
1526903640497097,-10,-2,3,14,3,1,-11,-11
1526903640497097,-4,0,6,-7,2,-4,10,4
1526903640512058,8,-1,-16,-25,-19,1,9,-8
1526903640512058,-7,-4,9,0,5,-4,-5,-2
1526903640512058,7,-3,0,3,1,24,6,7
1526903640512058,-17,1,-1,10,7,-18,-8,-4
1526903640533999,14,-1,-7,0,-2,2,-5,-3
1526903640533999,-11,-1,3,-10,-3,0,9,-9
1526903640534996,1,2,-1,1,0,-3,1,9
1526903640534996,0,-1,-8,-4,-5,9,-6,-20
1526903640548959,-3,1,1,3,-3,-3,2,8
1526903640548959,7,1,-3,-13,1,-2,-16,-6
1526903640556938,-5,-2,1,10,3,-6,4,-1
1526903640556938,-2,0,2,7,-6,3,0,-1
1526903640571898,-1,-1,1,-8,-1,-3,-1,-5
1526903640571898,1,1,-1,6,-1,0,-4,16
1526903640572895,1,-2,3,-12,-2,-5,-8,-19
1526903640572895,-5,-2,-8,1,18,-4,0,-3
1526903640593839,0,1,0,-16,16,7,-8,1
1526903640593839,0,3,6,39,4,-4,1,8
1526903640594837,-4,-1,-4,-2,1,5,-3,-7
1526903640594837,9,1,2,-6,-2,-6,-1,-7
1526903640617775,-10,-4,-2,0,0,-6,-4,8
1526903640617775,2,3,-4,-12,2,1,-3,13
1526903640617775,-8,-3,3,-8,-4,-6,1,-30
1526903640617775,0,1,-2,15,0,4,-6,0
1526903640631738,-3,-2,2,8,-3,-1,-4,-8
1526903640631738,-1,-4,-6,-10,-10,-3,5,6
1526903640632735,9,-1,-3,2,-2,-3,-3,0
1526903640632735,-4,-4,1,-6,-6,1,3,11
1526903640654676,3,2,2,6,-5,-2,1,-5
1526903640654676,-1,2,4,-5,5,0,5,-10
1526903640654676,-14,-7,-9,-2,-1,-3,-2,3
1526903640654676,17,-2,-1,2,-2,1,-1,5
1526903640677615,-6,4,0,-8,-12,-2,-3,-2
1526903640677615,-2,-5,-4,-12,-8,-1,2,-4
1526903640678612,12,3,7,32,7,1,1,10
1526903640678612,-26,2,-3,-5,-7,-2,-3,0
1526903640691578,0,-12,-4,4,-13,-2,-2,-2
1526903640691578,2,2,0,-9,-2,-2,2,-4
1526903640692575,-8,-3,-4,-5,-3,-2,1,0
1526903640692575,28,4,2,3,-3,1,1,0
1526903640714516,-37,6,6,-4,2,2,1,2
1526903640714516,-10,-8,-10,-14,-1,-3,-2,-10
1526903640715514,5,2,5,6,1,-3,2,14
1526903640715514,13,1,-2,-18,0,-3,-8,-11
1526903640737455,-10,-3,-1,13,0,0,-1,-9
1526903640737455,14,2,3,5,1,-1,6,4
1526903640738452,-9,-2,-1,0,-3,-3,-4,-1
1526903640738452,-10,0,-5,-16,-2,-1,6,2
1526903640751418,11,2,-2,-10,-1,-4,-15,4
1526903640751418,-1,-2,-3,-13,1,-2,0,-3
1526903640752415,12,5,2,16,6,6,5,4
1526903640752415,-18,-1,-2,-5,-3,-2,-2,-6
1526903640774356,8,-4,0,19,4,-1,2,-2
1526903640774356,4,1,-2,-4,-1,-2,-1,-6
1526903640775354,-4,-2,-4,-12,-3,-4,1,11
1526903640775354,1,-1,0,7,1,6,1,4
1526903640797295,-3,5,-1,-2,0,0,-1,-7
1526903640797295,9,-2,4,2,0,-4,-3,1
1526903640798293,-13,-5,-5,-6,-1,-2,-1,-2
1526903640798293,-21,-2,-4,2,-2,-3,-2,-13
1526903640811257,11,0,0,-6,-3,-4,-1,7
1526903640811257,-6,-1,-5,7,3,4,3,-2
1526903640812255,2,3,3,-7,-6,-4,-4,-3
1526903640812255,-2,-1,-1,0,2,-4,-5,-2
1526903640834196,3,-1,-3,-6,1,1,4,7
1526903640834196,-7,-3,-1,9,1,1,-1,-1
1526903640835194,6,3,0,2,-1,2,5,-1
1526903640835194,1,-5,1,2,-3,1,-2,7
1526903640857135,1,2,-6,4,1,-2,1,-6
1526903640857135,-1,-2,1,6,-1,2,-3,3
1526903640858132,-2,-1,-1,6,1,-4,-2,-3
1526903640858132,-4,8,1,-5,-6,-3,1,2
1526903640872095,-1,-6,0,1,-1,1,0,-2
1526903640872095,-6,2,1,-2,0,1,0,6
1526903640872095,8,-6,-4,-6,-1,-1,-4,-14
1526903640872095,-6,0,3,9,0,0,4,15
1526903640894036,-4,-3,-7,-13,-6,-3,-3,-10
1526903640894036,4,-3,-2,-3,-1,0,-1,-14
1526903640895034,-14,-2,-4,-5,-2,1,4,6
1526903640895034,7,-1,-2,2,-1,-3,-8,-1
