timestamp,emg1,emg2,emg3,emg4,emg5,emg6,emg7,emg8
1526903646582827,44,27,1,1,2,14,18,27
1526903646582827,-73,-9,-12,-8,-7,-7,-11,-22
1526903646583826,-90,-5,1,0,2,2,7,46
1526903646583826,-15,-25,-6,-2,-4,-6,-11,-9
1526903646587809,16,28,6,2,1,-3,2,9
1526903646587809,59,-10,1,3,4,3,6,16
1526903646589804,61,2,-4,0,-1,-2,-7,-20
1526903646589804,32,36,14,3,3,8,18,19
1526903646595788,10,-59,-3,-5,-4,-5,-34,-21
1526903646595788,117,64,13,6,2,9,12,31
1526903646603767,50,-15,-8,-7,-5,-9,-9,3
1526903646603767,35,-12,-12,-3,2,0,6,7
1526903646617729,-51,4,14,4,1,1,6,4
1526903646617729,-47,17,-1,2,0,1,3,15
1526903646623713,4,9,6,-3,-2,-4,-2,1
1526903646623713,-3,-8,-16,-5,-6,-7,-11,-18
1526903646635681,90,12,-3,3,5,9,9,42
1526903646635681,-46,-12,-3,-5,-6,-7,-16,-23
1526903646657622,-128,5,-3,-2,-4,-4,-11,-80
1526903646657622,95,7,-2,-5,-4,-7,-12,2
1526903646659617,-128,-31,-15,-8,-8,-13,-19,-59
1526903646659617,111,47,13,6,5,10,20,58
1526903646676572,34,-2,2,5,4,8,14,62
1526903646676572,-45,4,7,-1,-2,0,-6,-2
1526903646716465,37,-47,-28,-14,-12,-15,-25,-89
1526903646716465,-14,-16,0,0,-1,-3,0,-4
1526903646717463,-84,-5,0,-1,-2,-1,8,-6
1526903646717463,127,39,11,8,7,8,11,30
1526903646718460,-67,-31,-13,-8,-7,-7,-15,-65
1526903646718460,-81,-34,-16,-10,-9,-12,-25,-81
1526903646721452,47,-33,-1,1,2,3,6,21
1526903646721452,-41,-9,-7,-4,-5,-6,-11,-26
1526903646722449,-58,31,13,6,6,8,21,70
1526903646722449,65,22,6,4,1,-1,-2,27
1526903646736411,-128,-1,8,4,3,8,16,30
1526903646736411,45,40,10,4,3,6,12,62
1526903646743393,117,-12,5,3,2,-1,-1,-2
1526903646743393,127,68,7,3,1,0,0,-3
1526903646752369,-62,-39,3,6,7,12,6,48
1526903646752369,-71,-10,-1,-1,-1,-8,1,-46
1526903646766332,-19,59,5,0,0,5,7,12
1526903646766332,43,-8,4,4,0,-3,10,38
1526903646781292,46,29,-5,-6,-6,0,-21,-25
1526903646781292,32,-7,0,0,0,1,4,23
1526903646782289,-13,10,4,1,2,-5,-6,24
1526903646782289,14,-23,-9,-5,-1,-1,-4,11
1526903646804230,127,24,6,2,2,-6,11,48
1526903646804230,-31,-20,-15,-4,-6,6,-25,-39
1526903646805228,59,49,10,-2,-1,3,1,7
1526903646805228,69,-6,-1,-3,-1,5,2,10
1526903646818193,65,-12,4,8,4,-2,2,-22
1526903646818193,103,53,2,-3,-2,-3,1,21
1526903646826171,30,-74,-23,-10,-8,-10,-18,-6
1526903646826171,-66,30,8,4,3,6,29,3
1526903646842129,7,5,-2,-4,-3,1,-11,-32
1526903646842129,-8,-22,7,4,2,3,9,7
1526903646842129,-50,-8,-7,-2,-1,-6,-7,-22
1526903646842129,53,-12,1,0,1,1,-10,-19
1526903646864070,50,-26,-11,-1,0,9,9,28
1526903646864070,-78,-55,-17,-12,-11,-30,-28,-54
1526903646865068,-55,14,4,3,-2,9,6,-3
1526903646865068,34,26,19,10,7,-1,19,17
1526903646887009,-128,-16,-18,-9,-2,18,-35,-92
1526903646887009,56,42,11,0,1,-10,13,23
1526903646888006,73,12,11,6,6,17,10,36
1526903646888006,3,35,7,7,1,-24,13,23
1526903646901969,127,21,1,-2,-6,-17,-43,-24
1526903646901969,-105,-50,-16,-10,-5,-22,9,59
1526903646902967,-34,34,1,-4,-10,5,-23,-23
1526903646902967,26,33,17,6,19,55,16,22
1526903646923910,-98,-102,-26,-4,-9,-35,-5,-29
1526903646923910,114,44,2,-1,-5,-33,-6,11
1526903646924908,-100,-9,-5,-5,1,0,18,13
1526903646924908,-128,-26,-3,-2,-1,10,-11,-46
1526903646946849,3,13,-1,-7,-2,-15,-5,-5
1526903646946849,-50,-43,-3,3,6,10,-11,-45
1526903646947847,-94,-21,6,4,2,0,6,-1
1526903646947847,88,-23,-22,-9,-11,-15,-14,12
1526903646961809,-15,39,8,-1,1,10,13,14
1526903646961809,-15,2,-3,0,-2,5,13,9
1526903646962806,35,9,8,5,6,7,13,15
1526903646962806,-128,-45,-20,-11,-10,-15,-19,-25
1526903646984747,31,20,9,1,1,-2,5,-2
1526903646984747,32,58,1,-1,-2,20,-5,25
1526903646984747,112,-34,-4,2,2,-9,3,11
1526903646984747,-64,-30,-10,-9,-10,-19,-11,-18
1526903647006689,96,54,23,14,12,20,33,83
1526903647006689,33,26,8,0,-23,13,1,-17
1526903647007686,120,12,-9,-4,41,-16,-14,-14
1526903647007686,38,-43,-5,-1,-2,-1,1,16
1526903647021649,2,22,8,-3,-31,3,6,-7
1526903647021649,-14,-13,5,7,47,12,14,-1
1526903647022647,80,4,-10,-5,-41,-7,-28,-29
1526903647022647,-37,17,2,-6,-6,-3,-4,6
1526903647044587,53,-4,-17,-7,12,2,-9,-24
1526903647044587,1,-25,-7,-6,-82,-21,-21,-30
1526903647044587,-99,9,4,4,57,-9,-1,5
1526903647044587,-35,15,12,8,34,6,4,-3
1526903647066529,17,53,2,-5,-44,-3,8,19
1526903647066529,-35,-16,0,-1,1,4,-10,-10
1526903647067526,-73,-37,-13,1,-21,-8,5,-2
1526903647067526,121,42,9,3,-12,6,1,21
1526903647081489,-128,34,2,-2,16,-11,-9,-9
1526903647081489,-3,-29,-5,-1,6,8,7,-8
1526903647082486,54,32,14,0,-2,7,10,45
1526903647082486,-94,-50,-23,-10,-7,-7,-12,-71
1526903647104427,51,-32,0,3,3,16,7,55
1526903647104427,-80,12,-5,-9,10,-29,-32,-47
1526903647105425,-109,-25,5,2,-12,16,31,20
1526903647105425,-72,-58,-25,-7,-10,-22,-9,-30
1526903647126369,60,-11,3,3,2,2,-32,-17
1526903647126369,-65,-23,-6,-3,9,14,9,-3
1526903647127366,-70,59,22,10,5,18,36,44
1526903647127366,68,-37,-15,-9,-17,-20,-30,-50
1526903647141329,-73,4,-6,-1,10,-14,5,-8
1526903647141329,-24,-41,-3,1,2,11,-1,11
1526903647142327,-21,2,-2,-6,-9,-6,-16,-45
1526903647142327,98,21,9,4,11,9,16,48
1526903647164267,105,-24,-5,1,-2,13,-4,-23
1526903647164267,-81,26,-3,0,3,19,-3,-17
1526903647165266,-50,-74,-9,-6,-13,-40,-24,-65
1526903647165266,-107,20,-3,-5,-7,-1,-3,1
1526903647187206,46,-35,1,0,12,2,15,-9
1526903647187206,35,32,10,9,9,-8,7,49
1526903647187206,57,-18,-2,0,11,18,1,-16
1526903647187206,-95,0,1,2,1,2,23,34
1526903647202166,-111,-20,-12,-11,-38,-21,-41,-41
1526903647202166,43,-5,3,0,16,8,26,0
1526903647202166,29,21,0,-5,-20,-12,-16,-20
1526903647202166,50,32,23,13,-29,15,16,40
1526903647224107,39,21,-4,-9,0,-4,20,38
1526903647224107,-83,-35,-12,4,-8,-8,-18,-42
1526903647225105,-8,8,-1,2,8,4,0,13
1526903647225105,-33,3,-3,-5,-8,-2,-4,6
1526903647247046,77,7,13,4,8,-4,23,54
1526903647247046,114,24,1,-1,32,9,-4,24
1526903647248044,58,-10,-11,-6,-16,-8,-1,41
1526903647248044,81,41,13,6,13,-9,15,61
1526903647262006,-123,-41,-7,-3,12,12,-4,-42
1526903647262006,-5,18,5,0,-23,5,2,10
1526903647263003,-90,-7,-5,-1,-40,0,9,-6
1526903647263003,127,63,14,9,67,13,7,45
1526903647283947,-90,-76,-28,-10,-8,-17,-28,-57
1526903647283947,-19,-6,-5,-8,-50,-4,-4,-11
1526903647284945,-53,30,5,1,28,4,-4,3
1526903647284945,62,0,6,4,-17,0,2,-3
1526903647306886,-6,-12,3,7,6,4,11,-2
1526903647306886,19,-36,-23,-15,-19,-9,-13,-39
1526903647307884,-8,-3,5,1,1,3,-4,10
1526903647307884,-84,-34,-13,-6,7,-4,-12,-27
1526903647321846,-44,47,9,4,4,8,6,-18
1526903647321846,45,-37,-8,-1,6,-4,3,22
1526903647322844,18,22,1,3,7,-2,3,-3
1526903647322844,-92,-39,-6,-6,-14,5,-20,-30
1526903647344785,-63,-59,-31,-12,-17,-23,2,-73
1526903647344785,-13,27,24,8,14,-4,13,0
1526903647344785,-7,-2,1,-2,11,15,-1,-13
1526903647344785,-51,4,7,1,-19,-1,-10,-19
1526903647366726,-99,22,-14,-13,-11,-17,-21,-33
1526903647366726,-15,-38,-4,2,20,-4,9,30
1526903647367723,-90,-28,-3,-6,-16,18,9,2
1526903647367723,-72,-37,-11,2,26,1,1,-72
1526903647380689,39,31,7,3,-3,-6,16,115
1526903647380689,-123,38,3,-3,1,-4,2,2
1526903647388667,52,-15,-8,-5,-14,11,-31,-13
1526903647388667,-10,32,2,-4,-8,-1,11,40
1526903647404625,-66,-64,-4,5,10,8,-4,-53
1526903647404625,-126,-28,-5,-4,5,-2,-17,12
1526903647404625,18,37,4,1,7,-4,7,18
1526903647404625,115,0,-7,-2,-7,6,-14,-5
1526903647426567,8,0,4,-3,-3,-20,-14,-15
1526903647426567,-55,-17,-4,-2,-6,4,1,-23
1526903647427564,-58,-10,-7,-4,-6,-12,-3,-21
1526903647427564,108,49,8,4,-1,6,0,1
1526903647441526,-43,27,14,4,4,9,11,31
1526903647441526,127,54,-3,3,2,6,5,12
1526903647448507,41,-16,9,1,-3,-6,-2,-20
1526903647448507,-73,74,8,-1,1,-4,6,15
1526903647464465,43,-7,5,4,13,9,9,13
1526903647464465,102,75,15,5,-3,8,21,25
1526903647465462,127,-30,-7,1,41,-4,-13,-17
1526903647465462,29,-53,-3,-1,-18,-7,-3,3
1526903647486406,18,52,3,4,1,2,-5,-10
1526903647486406,-28,-20,7,0,11,7,12,15
1526903647487403,-29,-35,-5,0,-19,0,7,29
1526903647487403,4,-13,-11,-9,0,-8,-13,-49
1526903647509345,-32,0,0,0,-8,8,-1,2
1526903647509345,14,7,1,-4,19,0,-4,8
1526903647510342,-120,-41,-7,-3,-39,-6,-9,-39
1526903647510342,46,-14,-4,-1,8,1,-7,-1
1526903647524305,91,-20,-2,1,-13,-3,-5,8
1526903647524305,3,18,3,-4,3,-1,12,-15
1526903647525302,56,55,9,-1,-9,1,0,-16
1526903647525302,-100,-43,-15,1,13,-3,-8,-35
1526903647547243,88,-13,19,5,2,6,4,34
1526903647547243,-4,25,3,-3,-13,-2,4,38
1526903647547243,-30,-28,-9,4,26,-2,-6,20
1526903647547243,65,-5,-9,-7,-29,-8,4,33
1526903647561206,-30,48,12,5,43,-3,-5,-36
1526903647561206,82,-31,-8,-1,-14,5,-13,6
1526903647569185,4,104,5,-6,15,-9,-2,-29
1526903647569185,-34,-60,-2,1,-3,6,-2,6
1526903647584151,73,34,2,2,-5,2,5,37
1526903647584151,104,36,10,4,5,-1,6,30
1526903647585142,92,60,5,5,-1,4,21,52
1526903647585142,-23,-21,-5,-6,-10,-5,-13,-31
1526903647607084,72,63,5,0,5,6,15,-8
1526903647607084,-65,-125,-17,-6,-4,-11,-25,-42
1526903647608081,-15,29,-1,5,1,9,28,108
1526903647608081,60,64,8,2,-2,3,-1,-34
1526903647621050,-128,-67,-4,-1,8,-2,-8,-18
1526903647621050,40,22,-4,3,1,8,1,-36
1526903647629024,-11,4,9,1,-7,-26,-31,-75
1526903647629024,70,-91,-23,-11,-7,4,-5,12
1526903647643985,-35,15,-9,-9,-12,-6,-7,26
1526903647643985,-68,34,15,9,3,4,7,-10
1526903647644982,3,-53,-13,-7,-3,-6,-2,18
1526903647644982,-24,12,25,9,6,0,-2,-13
1526903647666923,-22,16,-10,-3,-8,4,7,-1
1526903647666923,-85,-8,2,-2,0,-5,-8,-33
1526903647667921,-21,-43,-10,-4,-6,3,8,31
1526903647667921,-1,-20,-16,-7,-7,-14,-24,-61
1526903647688864,117,-25,3,2,-3,6,9,53
1526903647688864,-84,16,-2,0,-8,-7,-6,-33
1526903647689862,2,-6,2,-4,0,-2,-2,-33
1526903647689862,14,57,16,10,-23,6,10,10
1526903647711803,80,-40,-22,-9,32,-10,-13,5
1526903647711803,-50,-17,-13,-7,-20,1,2,-18
1526903647712801,76,-41,-8,-4,0,-1,-12,28
1526903647712801,-36,27,8,-1,-3,-11,5,-7
1526903647726763,-100,15,7,-1,-40,-3,2,3
1526903647726763,127,99,32,18,30,27,50,123
1526903647727761,-38,-96,-35,-17,-17,-15,-23,-42
1526903647727761,43,17,11,2,7,-19,6,44
1526903647749702,-60,32,9,5,-16,24,11,-10
1526903647749702,-106,1,-6,-2,7,-15,-20,-42
1526903647749702,-55,-14,-11,-5,-9,2,-4,-33
1526903647749702,92,74,8,-1,-4,13,8,67
1526903647772640,-66,-10,4,6,40,1,-2,-17
1526903647772640,-17,-6,-3,-2,0,-9,-7,-5
1526903647773638,127,53,12,-5,-63,5,28,23
1526903647773638,-87,-22,-11,5,60,12,-17,-10
1526903647786603,127,114,30,11,-27,18,25,86
1526903647786603,51,-72,-26,-13,-36,-12,-17,-30
1526903647787600,73,30,6,8,32,2,3,22
1526903647787600,-41,-25,1,-2,-24,-1,14,5
1526903647809542,127,123,38,14,21,11,17,38
1526903647809542,-67,-93,-39,-18,36,-28,-32,-56
1526903647810539,91,12,7,1,-31,-11,21,41
1526903647810539,7,9,12,9,26,18,14,34
1526903647832482,42,-45,-27,-8,-5,1,-16,-27
1526903647832482,-34,5,-7,-6,-31,-6,-16,0
1526903647833478,61,66,17,9,30,8,8,50
1526903647833478,-10,-68,-11,-2,-21,-10,-5,-3
1526903647846443,8,-66,-23,-14,-5,-14,-6,7
1526903647846443,-39,-17,-3,-1,-3,4,6,14
1526903647847441,-83,10,13,6,9,18,11,15
1526903647847441,77,108,8,4,6,5,10,30
1526903647869382,-105,-114,-27,-13,-21,-19,-32,-71
1526903647869382,13,48,8,0,2,3,10,-52
1526903647870379,10,-3,2,2,0,-64,-16,-3
1526903647870379,28,7,-8,-8,-47,52,-10,-40
1526903647892320,-32,-30,-3,6,74,-11,9,2
1526903647892320,108,79,8,2,-4,3,11,80
1526903647893318,-128,-65,-7,-1,-12,19,6,-21
1526903647893318,76,-83,-32,-18,23,-48,-35,-30
1526903647907280,-20,50,33,13,-24,-2,0,3
1526903647907280,-75,-46,-20,-6,2,17,4,-17
1526903647907280,-66,-9,0,0,5,6,-6,-34
1526903647907280,-93,3,-3,2,-4,2,26,59
1526903647929222,-21,11,2,-4,-17,-2,-17,-50
1526903647929222,-30,-51,-6,0,11,-22,-9,-1
1526903647930219,-122,-3,-7,-1,3,21,-10,-79
1526903647930219,-38,-57,-12,-9,-11,-30,-31,18
1526903647952160,-90,49,0,-4,-1,-7,10,7
1526903647952160,-12,12,14,2,-15,-6,-13,-35
1526903647952160,42,51,0,3,11,3,3,-25
1526903647952160,8,41,0,2,10,13,11,16
1526903647966123,21,-107,-18,-8,-22,-24,-10,-1
1526903647966123,-79,14,11,6,18,37,35,50
1526903647974101,-107,-64,-14,-6,-7,6,-20,-50
1526903647974101,-91,12,10,-2,-16,-36,-12,-9
1526903647989061,7,-12,-10,-6,-14,-1,-5,-20
1526903647989061,18,25,-1,4,30,-14,-10,-2
1526903647990059,66,-24,-5,-2,9,10,-11,20
1526903647990059,3,38,10,8,-5,16,17,4
1526903648012000,-74,8,0,-2,-8,-6,0,-23
1526903648012000,-50,-49,-11,-6,-21,-17,-22,-36
1526903648012998,14,-13,-6,-3,5,11,10,28
1526903648012998,-40,58,36,15,16,14,11,-28
1526903648025963,-101,-73,-54,-24,-23,-30,-58,-92
1526903648025963,72,80,17,2,-3,14,32,70
1526903648033942,2,28,3,-2,-3,4,4,21
1526903648033942,58,-49,-10,-5,-14,-10,-10,-11
1526903648048908,-5,27,28,14,23,2,8,9
1526903648048908,113,-47,-10,-4,-13,3,-10,-6
1526903648049900,53,-49,-16,-7,-3,-59,-28,-76
1526903648049900,111,40,4,-1,-1,57,6,-2
1526903648071840,-26,66,1,-1,-4,22,-4,22
1526903648071840,73,1,-8,-5,-12,-11,-11,-6
1526903648072838,-25,53,17,5,5,7,-2,-18
1526903648072838,55,-37,-7,4,29,-14,28,68
1526903648085803,26,-8,-11,-8,-29,-19,-9,11
1526903648085803,57,36,7,2,-1,10,7,-6
1526903648094779,90,60,23,10,14,23,47,69
1526903648094779,-2,8,-3,-1,-15,30,0,-1
1526903648109739,-25,-37,6,8,18,-11,0,8
1526903648109739,76,55,-2,-7,-11,8,-11,-13
1526903648109739,107,-3,-1,-3,-1,-14,0,56
1526903648109739,61,62,-2,1,-6,-11,5,17
1526903648131682,82,4,13,10,12,34,25,72
1526903648131682,-128,-128,-14,-5,-5,-9,-17,-93
1526903648132678,73,-24,-20,-2,-5,6,6,0
1526903648132678,-27,43,17,-1,4,-7,13,-4
1526903648145643,15,-35,-4,0,5,7,-7,5
1526903648145643,-35,45,9,4,1,3,21,34
1526903648154619,-102,-10,2,-1,5,15,-3,-63
1526903648154619,-123,-59,-28,-13,-12,-49,-27,18
1526903648169579,-4,46,4,-3,-5,-6,3,-16
1526903648169579,77,-30,10,6,2,27,17,76
1526903648170576,-128,16,3,1,0,-1,-17,-41
1526903648170576,73,46,7,2,3,-18,10,35
1526903648191520,-70,-42,-17,-16,-29,-1,-6,-52
1526903648191520,88,48,17,14,45,8,6,23
1526903648192520,60,43,-1,-2,-10,-8,8,27
1526903648192520,-18,-42,7,5,4,9,8,-13
1526903648206480,-2,42,1,2,3,9,18,29
1526903648206480,-101,-59,-19,-8,-16,-17,-24,-70
1526903648214459,-73,-40,-7,-4,-2,0,-12,10
1526903648214459,28,-20,9,3,6,2,2,-20
1526903648229419,-17,22,-1,-1,-5,14,20,-5
1526903648229419,94,-32,-2,2,-4,-2,-20,6
1526903648230416,28,18,16,2,2,-25,2,42
1526903648230416,-128,-85,-30,-11,-18,9,-22,-104
1526903648251360,127,-40,4,1,2,-34,-13,23
1526903648251360,-105,24,-9,-5,-4,24,17,12
1526903648252358,103,25,-4,-5,0,0,-15,26
1526903648252358,-40,80,25,8,11,9,0,-20
1526903648266320,21,-55,-18,-5,-4,-20,-9,3
1526903648266320,28,5,6,0,-1,-14,3,12
1526903648274299,127,70,16,7,-4,12,20,75
1526903648274299,-104,-17,-12,-9,-4,-4,-15,-13
1526903648289259,-36,37,8,4,-4,4,-2,-10
1526903648289259,-12,4,0,0,9,-5,-12,-18
1526903648290256,0,54,16,6,10,4,18,22
1526903648290256,93,-79,-25,-11,-6,2,-12,-14
1526903648312197,25,15,3,3,2,4,5,11
1526903648312197,103,60,11,6,-9,-16,20,60
1526903648312197,-128,-61,-7,-1,-2,25,-40,-107
1526903648312197,23,12,-7,-4,-3,-14,4,31
1526903648335136,-25,-34,-13,-1,7,17,8,23
1526903648335136,22,54,16,3,-8,-3,-6,-25
1526903648336134,-25,-110,-16,-6,5,-20,1,-15
1526903648336134,-81,13,13,10,12,8,20,35
1526903648349099,-86,-40,-20,-8,-8,2,-30,-91
1526903648349099,-66,-40,-15,-11,-10,-17,-21,17
1526903648350096,-58,-3,-7,-6,-7,-21,-17,-19
1526903648350096,-3,-17,10,5,1,11,14,0
1526903648372038,-22,28,17,11,18,9,18,41
1526903648372038,-39,-54,-21,-6,-8,-5,-8,14
1526903648373035,66,0,-13,-7,-14,-2,-10,-43
1526903648373035,-59,-4,-1,-2,2,0,-3,-15
1526903648394976,-13,53,10,3,5,0,8,-23
1526903648394976,-68,-29,1,-3,-6,-1,-1,-5
1526903648395974,-51,-25,-4,-3,-3,5,4,41
1526903648395974,-61,49,9,7,4,3,19,13
1526903648408939,99,-42,-46,-20,-6,-13,-18,31
1526903648408939,-97,-94,-4,-10,-12,-16,-30,-95
1526903648409936,86,84,24,13,9,5,11,60
1526903648409936,-57,14,-11,-6,-7,-12,-14,-17
1526903648431878,61,-37,-12,-8,-11,8,16,24
1526903648431878,58,38,11,6,19,15,2,-5
1526903648432875,-31,50,3,4,2,-17,8,1
1526903648432875,75,-21,1,-3,-6,13,0,12
1526903648454816,-36,56,20,8,7,8,16,58
1526903648454816,-15,-7,-9,0,-3,-1,-2,-94
1526903648455813,65,10,-4,-4,-7,3,-5,-13
1526903648455813,-82,-42,-10,-6,-3,-12,-19,-17
1526903648469776,47,11,16,5,-13,1,18,-5
1526903648469776,96,28,16,13,36,23,31,57
1526903648469776,46,-9,-22,-12,-13,-10,-24,-26
1526903648469776,79,-31,-5,-1,-4,-8,-1,-32
1526903648491717,-34,9,2,-2,-9,-2,0,-3
1526903648491717,127,115,23,7,2,4,4,81
1526903648492715,-77,-39,-20,-7,-4,-3,-6,-56
1526903648492715,73,10,-8,-9,-3,-4,-5,-17
1526903648514656,-7,11,11,5,1,-8,-8,15
1526903648514656,109,37,2,-2,-13,-3,-2,33
1526903648515653,-67,-95,-30,-9,-5,8,0,-5
1526903648515653,20,6,1,0,-3,-7,-20,-78
1526903648529616,1,-24,-15,-12,-2,-12,-17,-5
1526903648529616,-128,26,7,4,0,2,21,34
1526903648529616,82,-14,14,4,8,14,16,72
1526903648529616,-61,-19,3,1,-4,0,6,78
1526903648551557,-58,48,13,7,14,7,1,-49
1526903648551557,-128,-80,-4,-1,-2,-4,0,-33
1526903648552555,-70,60,7,5,-4,2,16,30
1526903648552555,-35,-32,-2,-2,0,-2,1,18
1526903648575494,39,114,35,15,16,16,14,15
1526903648575494,58,-118,-52,-26,-25,-27,-31,12
1526903648575494,-61,19,28,9,9,7,13,0
1526903648575494,51,65,10,10,10,10,8,-19
1526903648589456,-101,-128,-33,-15,-8,-14,-29,-56
1526903648589456,121,110,23,10,6,8,17,6
1526903648590454,-20,-107,-39,-15,-11,-15,-33,-94
1526903648590454,121,59,12,3,5,4,17,83
1526903648611397,-32,-96,-14,-7,-6,-8,-9,-12
1526903648611397,35,14,3,0,-1,-1,6,21
1526903648612395,-73,-26,12,8,7,12,21,10
1526903648612395,-103,40,-2,2,0,-2,-13,-29
1526903648635333,37,10,-9,-7,-4,-6,-8,-3
1526903648635333,-115,22,21,9,7,12,23,43
1526903648635333,-69,-59,-33,-17,-12,-18,-24,-68
1526903648635333,99,16,2,-3,-3,-5,-21,-19
1526903648649296,127,26,12,10,8,13,20,20
1526903648649296,-81,19,-16,-9,-10,-26,-35,-46
1526903648650293,50,24,5,-4,-5,14,5,113
1526903648650293,-3,-52,-12,-1,3,13,46,14
1526903648672235,60,-9,-13,-12,-15,-30,-35,-27
1526903648672235,89,8,3,3,4,14,19,28
1526903648672235,93,44,36,22,19,16,23,18
1526903648672235,81,84,-5,-9,-13,-5,-15,37
1526903648695173,18,-14,1,3,6,8,-3,10
1526903648695173,-34,0,8,4,0,0,8,-12
1526903648696171,-68,-15,-10,-5,-5,-8,-16,-23
1526903648696171,62,-70,1,2,2,-2,0,13
1526903648709136,0,88,24,12,12,11,18,-10
1526903648709136,101,6,11,5,0,5,17,30
1526903648710133,16,19,-21,-14,-13,-12,-26,-46
1526903648710133,13,24,17,9,9,-1,8,-23
1526903648732075,-2,-90,-29,-15,-11,-15,-30,-67
1526903648732075,73,-71,-21,-7,-3,-1,-24,-66
1526903648733072,127,118,57,30,24,27,41,54
1526903648733072,-80,-118,-61,-34,-28,-29,-44,-52
1526903648755013,47,52,5,-3,-1,5,16,36
1526903648755013,-17,78,31,17,15,23,44,62
1526903648756011,-23,-63,-35,-20,-17,-28,-62,-49
1526903648756011,1,6,1,-1,-2,-2,13,-34
1526903648768976,91,62,8,3,2,1,8,48
1526903648768976,-60,38,9,3,1,7,-1,4
1526903648769973,-70,13,-1,-1,-6,1,-7,-40
1526903648769973,11,19,32,18,16,15,36,77
1526903648791915,-45,-88,-55,-18,-12,-8,-7,-42
1526903648791915,-22,1,-5,-4,-6,-14,-20,-15
1526903648792912,121,23,16,9,6,-1,2,-10
1526903648792912,89,-12,-14,-7,-2,10,5,15
1526903648814854,-86,-15,19,6,2,-4,4,-29
1526903648814854,72,-26,-10,-4,-5,-9,-11,-7
1526903648815851,29,-15,-17,-6,-2,-15,-8,-29
1526903648815851,-81,85,21,8,9,3,-1,28
1526903648829814,-43,-26,-3,-2,-1,-7,-1,9
1526903648829814,-128,-67,-27,-17,-15,7,-27,-128
1526903648829814,52,20,8,3,1,0,25,6
1526903648829814,34,48,28,15,9,8,-17,-16
1526903648851754,61,21,-19,-7,-10,-16,-40,-11
1526903648851754,-58,-19,-10,-11,-10,-25,-2,-16
1526903648852752,-80,-35,6,5,6,10,12,41
1526903648852752,-109,-47,-10,1,1,13,3,-38
1526903648874693,-43,-3,7,0,0,-8,6,8
1526903648874693,120,18,16,12,12,3,13,41
1526903648875691,61,0,-23,-14,-13,14,-4,67
1526903648875691,-10,-59,-20,-9,-10,-24,-41,-45
1526903648888656,-63,34,26,10,5,30,44,18
1526903648888656,-54,-25,-5,1,6,20,21,29
1526903648896634,-95,-2,10,6,6,-1,5,4
1526903648896634,32,36,-19,-19,-21,-20,-24,-17
1526903648911594,-43,22,21,10,9,11,-1,20
1526903648911594,-75,-30,-7,-3,-3,8,-5,-42
1526903648912592,106,-37,-10,-4,-5,-20,-7,-54
1526903648912592,15,-39,-13,-7,-1,-13,-17,-8
1526903648934533,-51,52,15,5,3,-9,17,8
1526903648934533,-7,61,3,-1,-8,-1,-16,12
1526903648935530,-18,-64,-23,-8,-6,-5,-1,-23
1526903648935530,-16,-18,17,11,8,9,13,36
1526903648948496,66,-6,-10,-7,-3,-4,-15,-32
1526903648948496,-41,-25,-19,-12,-9,-22,-30,-11
1526903648956474,127,34,22,8,7,18,46,67
1526903648956474,-7,-13,-6,-1,-3,-18,-11,19
1526903648971434,-53,16,-2,2,0,3,-20,-20
1526903648971434,-60,-41,-10,-4,-3,2,4,-3
1526903648972432,10,-36,-10,-8,-6,6,-19,20
1526903648972432,61,40,-2,3,2,8,7,7
1526903648994373,-40,-13,-7,-2,0,13,24,-11
1526903648994373,6,-30,-11,-9,-5,-36,-45,-10
1526903648995371,-104,21,-2,0,-2,-19,17,-33
1526903648995371,42,2,3,0,-2,41,-5,19
1526903649008336,-12,55,4,0,-4,-33,-9,40
1526903649008336,121,-42,-10,-1,1,-2,15,20
1526903649017312,48,48,18,1,4,19,-14,24
1526903649017312,-11,24,9,5,3,-19,0,-37
1526903649032272,127,-26,-12,-2,-3,-13,-19,14
1526903649032272,52,50,17,6,3,19,52,58
1526903649032272,13,24,5,6,5,7,4,3
1526903649032272,-5,7,2,-1,-3,10,35,12
1526903649054213,56,-5,7,5,3,9,-6,13
1526903649054213,-67,17,19,12,11,-1,15,-5
1526903649055211,-110,-76,-56,-33,-28,-26,-63,-96
1526903649055211,-35,-93,-13,-5,-3,-7,-15,15
1526903649069173,25,34,15,4,7,5,28,44
1526903649069173,92,67,4,3,4,21,11,-14
1526903649077152,49,113,24,11,4,1,18,15
1526903649077152,86,-35,-28,-17,-16,-45,-63,-16
1526903649092112,19,-25,-4,3,3,19,21,24
1526903649092112,-4,-14,-22,-17,-18,-25,-45,-50
1526903649093109,-23,3,17,11,8,15,31,55
1526903649093109,-6,6,5,5,8,10,28,-14
1526903649114053,27,10,-4,-3,1,-6,-37,-1
1526903649114053,-10,-5,15,6,-1,30,21,-6
1526903649115051,77,-46,-11,-2,8,0,14,29
1526903649115051,-128,-5,-4,-3,-3,28,-34,-64
1526903649129013,-67,1,-1,-1,-7,-49,0,-13
1526903649129013,-24,7,8,8,8,-4,6,-5
1526903649136991,71,44,5,1,-6,-15,-20,16
1526903649136991,-14,-39,-17,-12,-13,-9,-36,-28
1526903649151952,-16,-43,4,1,2,34,54,11
1526903649151952,-83,-4,-10,-7,-7,-6,-18,-21
1526903649152949,55,-4,12,4,5,3,8,32
1526903649152949,89,44,16,10,10,2,51,42
1526903649173893,-63,16,2,0,-3,2,-31,-36
1526903649173893,-5,-6,-21,-17,-19,-33,-35,-9
1526903649174890,-128,-27,1,3,2,0,2,-1
1526903649174890,60,29,15,10,9,12,27,36
1526903649188853,57,-8,1,1,3,9,4,-8
1526903649188853,127,52,15,8,10,6,20,24
1526903649196832,72,-24,-15,-5,-4,-1,-30,2
1526903649196832,-55,-48,-9,-7,-5,-13,1,25
1526903649211791,-56,12,-2,-3,-4,-14,2,-44
1526903649211791,30,3,-1,1,-1,21,-13,14
1526903649212789,5,36,10,2,1,-8,0,-7
1526903649212789,17,17,13,9,10,17,27,43
1526903649234730,117,-23,-13,-8,-7,-2,-13,-16
1526903649234730,-109,-51,-8,-3,-3,-20,-9,-33
1526903649234730,-19,3,0,-3,-3,-6,4,11
1526903649234730,-26,52,22,9,7,-3,20,27
1526903649257669,-69,16,2,-2,1,18,1,9
1526903649257669,96,-12,-5,1,-2,-11,20,18
1526903649258666,-84,-9,3,0,2,5,-11,-5
1526903649258666,-128,-37,-23,-10,-10,-36,-30,-104
1526903649271632,-36,15,-7,0,1,13,-11,26
1526903649271632,93,-25,-7,-9,-7,-21,-5,14
1526903649272629,-55,20,13,3,7,13,30,23
1526903649272629,-118,15,-5,6,0,-12,-12,-64
1526903649294570,7,-38,-6,-5,-8,-11,-20,-14
1526903649294570,-43,39,3,2,5,45,23,21
1526903649295568,72,31,11,7,3,-42,-17,7
1526903649295568,-82,-55,-30,-22,-14,17,-31,-86
1526903649317509,1,-2,7,3,0,-13,7,17
1526903649317509,-71,50,19,9,6,9,9,4
1526903649318507,76,55,17,8,7,8,16,97
1526903649318507,-16,-30,-20,-9,-6,-7,6,2
1526903649331472,-59,-11,-3,1,1,-5,10,36
1526903649331472,62,57,10,0,-2,3,10,12
1526903649332469,-128,-71,-8,-6,-6,-3,-42,-55
1526903649332469,-40,5,1,4,4,12,23,7
1526903649354410,-47,10,12,3,2,5,0,-8
1526903649354410,-107,-32,-14,-3,-2,-16,-8,-11
1526903649355408,46,2,-22,-5,-7,8,-17,-87
1526903649355408,-28,44,30,3,2,-13,23,54
1526903649377349,7,-21,-5,-3,-5,-6,-4,-10
1526903649377349,35,-37,-3,0,2,-2,-12,32
1526903649378346,66,3,-1,-1,-1,3,17,2
1526903649378346,-75,-23,0,1,2,-2,-2,-12
1526903649391312,127,62,6,0,4,10,20,34
1526903649391312,119,-24,-4,0,0,-10,-12,41
1526903649392309,-40,-29,-3,1,-3,1,3,-31
1526903649392309,127,61,11,0,0,8,15,77
1526903649414250,33,6,2,0,1,17,-8,1
1526903649414250,-84,9,8,6,6,-3,17,18
1526903649415248,0,48,-2,-3,-3,-8,-20,-83
1526903649415248,-74,-7,2,1,-2,-12,-6,15
1526903649437189,9,20,2,1,2,27,11,5
1526903649437189,53,-21,-17,-10,-13,-35,-34,-22
1526903649438187,-21,-17,5,-4,-1,0,-3,-11
1526903649438187,-51,4,6,10,5,9,37,12
1526903649452149,-25,-35,-13,-9,-6,-12,-3,-13
1526903649452149,16,74,14,12,9,14,28,55
1526903649452149,-15,-37,-1,-6,-10,-5,-9,25
1526903649452149,-24,-25,-9,-3,0,-6,-6,17
1526903649474090,-74,-43,5,5,7,10,6,-21
1526903649474090,-91,1,-4,-6,-7,-5,-16,-50
1526903649475088,-128,-5,-8,0,0,6,23,33
1526903649475088,-69,15,-14,-4,-3,1,-16,-34
1526903649498026,-66,21,10,0,-3,-14,1,-19
1526903649498026,-94,-60,0,3,8,27,1,-1
1526903649498026,-101,-37,-11,-4,-8,-17,-11,-28
1526903649498026,45,42,24,9,8,12,7,12
1526903649511989,-46,-58,-18,-4,-1,-3,9,-25
1526903649511989,-89,-71,-25,-14,-10,-15,-49,-82
1526903649512986,-30,25,6,0,2,11,30,47
1526903649512986,97,18,-1,-2,0,-1,-26,8
1526903649533930,59,-12,15,6,6,12,30,88
1526903649533930,70,30,-7,-3,-5,-9,7,24
1526903649534927,73,27,22,12,13,18,-16,48
1526903649534927,18,-33,-23,-12,-16,-17,56,-53
1526903649557866,64,58,4,1,-6,-18,-17,-18
1526903649557866,67,-54,2,-3,-3,-9,6,-7
1526903649557866,115,39,-9,0,0,16,25,75
1526903649557866,98,-13,9,6,8,-1,-41,-1
1526903649571829,118,7,-1,-2,-2,10,16,-44
1526903649571829,42,37,10,2,-1,-21,15,21
1526903649572826,-46,-34,-9,-4,-5,-7,-39,-104
1526903649572826,108,50,3,1,4,24,7,8
1526903649594767,-120,74,6,0,-5,-16,18,-5
1526903649594767,-105,-73,8,11,10,16,3,-47
1526903649594767,25,-20,-14,-9,-6,-10,12,-28
1526903649594767,80,44,11,0,-4,-9,-2,74
1526903649617706,68,3,-5,-3,-3,6,-30,-25
1526903649617706,76,64,25,9,8,16,0,52
1526903649618704,-88,-110,-20,-7,-6,-15,-4,18
1526903649618704,101,6,-17,-5,-5,7,-1,20
1526903649631669,-124,-42,-4,1,0,13,25,41
1526903649631669,1,-41,-4,-3,-3,-18,-52,6
1526903649632666,-29,8,-4,-4,-5,-4,12,-9
1526903649632666,-91,-55,12,10,9,-2,-11,25
1526903649654607,-65,38,4,1,-1,2,6,24
1526903649654607,-80,-97,-37,-11,-8,-8,-5,-38
1526903649654607,105,78,16,6,7,24,24,32
1526903649654607,74,9,0,-3,-4,-13,-34,-53
1526903649677546,-26,-7,-8,-1,-2,-3,28,16
1526903649677546,48,-12,-11,-7,-3,-5,-16,100
1526903649678544,-12,60,24,11,9,8,8,8
1526903649678544,-69,-128,-37,-16,-15,-16,-34,-35
1526903649691509,127,85,25,10,11,19,24,91
1526903649691509,-82,-78,-27,-15,-18,-25,-40,-87
1526903649692506,-5,79,16,12,11,21,55,31
1526903649692506,-128,-49,-19,-12,-12,-11,-16,-31
1526903649714448,-25,22,1,-3,-1,-10,-23,-43
1526903649714448,16,19,20,13,12,24,28,30
1526903649715445,98,52,5,-2,-4,-8,-20,16
1526903649715445,-55,-73,-17,-6,-5,-7,-7,-68
1526903649737386,-91,-81,-18,-10,-9,-22,-35,-44
1526903649737386,-16,56,18,7,7,21,9,11
1526903649738384,-73,-79,-17,-6,-5,-11,13,-9
1526903649738384,60,71,12,1,2,6,12,-40
1526903649751348,3,-66,3,3,2,-6,-26,44
1526903649751348,22,52,-11,-7,-4,2,0,-16
1526903649752346,-91,-73,-16,-7,-8,-15,-15,-29
1526903649752346,-18,25,14,5,6,16,8,26
1526903649774287,-34,25,-9,-5,2,3,16,66
1526903649774287,117,19,6,3,-1,-8,26,-23
1526903649775285,127,0,-5,-2,-7,-3,-6,-16
1526903649775285,-81,17,13,6,7,16,35,36
1526903649797226,49,-6,-4,-2,-2,-21,-77,-27
1526903649797226,89,75,-6,-6,-5,3,19,45
1526903649798224,-3,-51,-9,-4,-2,-13,-24,-36
1526903649798224,127,19,10,4,3,3,17,57
1526903649811189,-99,-53,-19,-9,-9,4,-2,-83
1526903649811189,11,-10,-3,-5,1,-7,-2,-14
1526903649819167,29,64,24,9,5,12,14,6
1526903649819167,49,26,1,-3,-2,-2,-1,16
1526903649834127,-42,4,-5,-7,-4,-8,-3,-32
1526903649834127,-20,-11,10,29,9,-17,-10,-31
1526903649835125,55,-53,-8,1,2,19,3,1
1526903649835125,-46,16,5,2,4,4,7,45
1526903649857066,31,48,3,0,-2,-4,5,-24
1526903649857066,-112,25,3,-11,-5,4,5,27
1526903649858063,-128,-102,-29,-13,-10,-8,-43,5
1526903649858063,78,22,5,3,0,-22,17,-1
1526903649871029,127,15,13,4,2,6,17,11
1526903649871029,-33,-26,-5,-4,-2,11,4,-5
1526903649879007,16,38,0,-3,-3,-11,-9,12
1526903649879007,-50,-25,-8,-7,-6,5,-4,-28
1526903649893967,-50,8,-3,3,5,-3,-12,-5
1526903649893967,107,37,-4,-3,-8,-6,-9,-17
1526903649894965,6,-35,-8,-2,-1,2,6,40
1526903649894965,-1,-32,-9,-4,-7,-14,-21,-54
1526903649917903,108,-12,-5,-2,-3,-1,8,16
1526903649917903,17,6,17,4,3,8,3,-6
1526903649917903,42,37,1,-2,1,-7,-9,-26
1526903649917903,47,34,2,3,3,-21,5,23
1526903649930868,81,58,4,-1,-2,36,17,42
1526903649930868,-117,-47,-17,-9,-6,-9,-28,-90
1526903649939845,51,56,8,-2,-4,-17,18,7
1526903649939845,36,-51,4,5,6,3,-5,20
1526903649954804,38,0,7,4,3,-8,9,-1
1526903649954804,80,63,12,4,2,27,19,32
1526903649954804,-51,5,-6,-2,-3,-9,-22,-25
1526903649954804,-99,7,-10,-6,-5,-10,1,-33
1526903649977743,-78,-12,0,5,3,5,-1,2
1526903649977743,-84,-28,-12,-9,-7,-12,-7,-20
1526903649978741,-28,36,8,3,2,-6,-4,-29
1526903649978741,74,38,12,6,4,21,18,41
1526903649991706,-106,-87,-25,-16,-12,-22,-33,-50
1526903649991706,-97,-38,-4,0,0,0,20,9
1526903649999684,115,27,6,0,0,4,7,-2
1526903649999684,34,-3,-5,-2,-5,1,-21,-4
1526903650014645,64,16,0,-2,1,-6,10,28
1526903650014645,17,9,7,5,-1,-4,-4,-3
1526903650014645,8,-31,4,3,4,8,5,23
1526903650014645,-46,0,-1,-1,-3,12,-4,-8
1526903650037583,-66,-9,4,4,3,10,-1,0
1526903650037583,-28,-73,-35,-21,-18,-19,-35,-68
1526903650038581,-41,31,17,5,6,15,-2,24
1526903650038581,57,28,-25,-2,-3,-19,0,13
1526903650051546,-43,-23,-11,-10,-9,-1,14,-34
1526903650051546,-73,-7,10,3,6,7,7,31
1526903650059524,50,-15,-5,2,-3,-7,-1,3
1526903650059524,-66,4,5,-4,-2,14,-4,-28
1526903650074484,80,2,11,6,7,3,-11,-2
1526903650074484,6,10,4,-3,-2,8,-5,1
1526903650075482,13,32,1,-4,-2,-25,-4,7
1526903650075482,-94,-17,-3,0,-1,42,9,42
1526903650097423,-1,-31,-7,2,-4,-36,-18,-44
1526903650097423,60,16,18,10,11,11,40,78
1526903650098421,-84,-81,-30,-15,-11,-1,-60,-70
1526903650098421,-26,52,17,3,1,-14,9,12
1526903650111386,36,0,-7,-2,-1,-6,-11,-5
1526903650111386,-16,46,9,4,1,18,20,77
1526903650119364,-76,-7,2,2,-1,-16,1,-43
1526903650119364,121,-32,-14,-5,-3,-6,1,25
1526903650134324,-27,16,-1,-2,-2,5,-3,-14
1526903650134324,47,-16,7,6,8,4,4,-25
1526903650135322,97,75,23,15,9,20,47,116
1526903650135322,-90,-55,-21,-12,-12,-33,-28,-99
1526903650157263,27,17,7,2,4,-1,7,38
1526903650157263,32,15,1,-2,-1,1,-25,-48
1526903650158261,-69,-37,-12,-2,-2,12,12,9
1526903650158261,107,31,14,5,8,3,11,46
1526903650171226,17,36,4,4,3,15,4,-32
1526903650171226,-34,-53,-20,-14,-14,-56,-23,-43
1526903650179204,36,-13,3,-1,-2,11,15,32
1526903650179204,-58,-29,-14,-10,-6,-6,-28,-88
1526903650194164,26,-12,2,3,2,6,-5,-2
1526903650194164,23,-13,-1,1,0,14,17,36
1526903650195162,-3,-37,-18,-10,-8,-25,-4,-74
1526903650195162,-78,-4,3,3,1,1,-4,-9
1526903650217103,32,12,2,3,0,18,53,45
1526903650217103,-96,-2,3,4,4,11,-17,-11
1526903650218101,-32,6,3,1,-1,-9,19,-11
1526903650218101,105,4,8,2,3,0,1,58
1526903650240042,-47,-57,-14,-6,-4,-14,-15,-36
1526903650240042,11,49,8,2,2,4,17,11
1526903650241039,39,-19,-9,-6,-4,1,-13,-28
1526903650241039,-97,-15,-3,-5,-4,-5,-2,-14
1526903650254004,-17,27,4,1,1,6,5,86
1526903650254004,-57,-30,-14,-4,-5,-12,-18,-73
1526903650255002,-28,2,-2,-2,-2,-19,-27,0
1526903650255002,-99,-2,-5,-3,2,20,8,-28
1526903650276943,-54,-4,11,3,3,-2,5,50
1526903650276943,76,85,8,3,3,8,17,29
1526903650277940,-48,-76,-27,-9,-8,-8,-14,-48
1526903650277940,91,47,24,11,5,4,22,70
1526903650299882,-5,-3,-14,-11,-10,-11,-24,-2
1526903650299882,20,9,8,2,-2,-16,0,11
1526903650300879,113,65,12,7,9,16,18,52
1526903650300879,-45,-60,-22,-8,-6,-6,-17,-54
1526903650313844,63,-5,2,-1,-5,-3,-23,-86
1526903650313844,11,5,1,-3,2,1,7,67
1526903650314842,56,-15,-7,-1,1,4,0,-3
1526903650314842,-27,49,9,2,-3,-4,11,2
1526903650336783,-1,17,-1,-3,-2,-6,-2,-41
1526903650336783,-82,-39,-5,3,4,10,6,-13
1526903650337781,-103,22,13,-3,-6,-7,-18,-50
1526903650337781,84,-30,-7,-4,-2,-16,-12,42
1526903650359722,46,1,-4,-2,0,17,12,10
1526903650359722,88,-9,2,0,-3,-18,5,27
1526903650360719,28,-24,-13,-1,-1,16,-14,3
1526903650360719,15,79,25,9,7,3,9,8
1526903650374682,-36,-46,-16,-9,-6,-14,-12,-29
1526903650374682,79,-31,-3,0,1,11,7,-4
1526903650375679,29,14,13,5,2,2,8,13
1526903650375679,-37,15,2,6,4,6,9,-10
1526903650396623,101,45,-8,-3,-4,7,-8,22
1526903650396623,-67,-32,-6,-7,-9,-27,-20,-12
1526903650397621,-45,-2,12,1,1,2,-2,0
1526903650397621,-24,-12,-13,-5,-3,0,-13,-18
1526903650419562,4,31,16,4,4,-3,1,-22
1526903650419562,-30,19,4,3,4,11,3,46
1526903650420559,-77,5,-4,-3,-4,-1,24,-2
1526903650420559,-92,-3,3,2,3,1,5,-15
1526903650434522,101,52,3,6,4,-2,6,93
1526903650434522,-69,-15,-13,-9,-11,-9,-17,-33
1526903650435519,81,-12,6,0,2,0,-2,34
1526903650435519,127,-3,-9,0,1,10,9,23
1526903650456463,-128,4,19,5,3,4,-12,-7
1526903650456463,96,-2,-10,-6,-7,-5,22,-19
1526903650457460,53,55,10,6,5,14,33,95
1526903650457460,47,-72,-38,-18,-15,-27,-43,-87
1526903650480399,-57,-26,-7,-4,-7,-8,-4,-7
1526903650480399,2,-15,4,1,2,4,3,-6
1526903650480399,-2,7,9,4,3,0,1,2
1526903650480399,82,33,-1,-2,-2,1,-9,-31
1526903650494361,75,4,1,-1,-4,-15,5,2
1526903650494361,-70,-44,-11,-4,-1,2,-25,-68
1526903650495359,59,6,1,4,1,-1,-10,-50
1526903650495359,-119,-2,11,-1,4,11,23,85
1526903650517300,115,16,0,-1,-3,-2,2,-2
1526903650517300,1,59,4,4,1,5,2,6
1526903650517300,26,-32,-4,-1,-1,-4,-9,5
1526903650517300,-43,6,6,3,5,14,18,20
1526903650540239,-62,-54,-22,-8,-4,-13,-14,-22
1526903650540239,-28,8,21,4,2,3,1,-9
1526903650541236,-89,-21,-10,-5,-4,10,-3,-46
1526903650541236,84,47,18,7,4,-1,23,53
1526903650554202,-115,-38,-25,-12,-8,-15,-18,-11
1526903650554202,57,-3,0,3,3,24,3,53
1526903650555199,61,68,6,1,-1,-17,16,31
1526903650555199,57,-53,-2,-5,-5,-8,-12,-31
1526903650577140,49,56,10,8,7,16,13,53
1526903650577140,33,-48,-3,-4,-4,-9,-2,-23
1526903650577140,-68,-6,-4,-5,-1,1,-20,-3
1526903650577140,75,12,-8,-5,-5,-1,4,30
1526903650600079,70,-48,-4,4,3,2,3,55
1526903650600079,13,-6,-4,-6,-7,-13,-20,-49
1526903650601076,-7,21,3,3,1,-1,12,15
1526903650601076,18,17,-3,-3,-6,-12,-20,-71
1526903650614042,6,-18,-10,-7,-6,-4,-2,-37
1526903650614042,-85,-13,-8,-1,0,4,16,45
1526903650615039,42,25,19,9,7,10,13,26
1526903650615039,-88,33,-5,-3,-4,-14,-7,-87
1526903650636980,55,-10,4,2,-1,3,-2,0
1526903650636980,106,43,6,5,7,8,5,13
1526903650637978,20,19,-7,-7,-5,-7,-13,-45
1526903650637978,-32,54,2,0,-3,-3,-5,-17
1526903650659919,-67,-78,-7,-3,-4,-5,9,-2
1526903650659919,60,-9,-9,-6,-6,-12,-11,-27
1526903650660916,-128,-26,-5,-3,-1,-3,-13,5
1526903650660916,16,-20,3,0,1,-1,-10,-89
1526903650673881,32,59,12,4,7,9,5,-36
1526903650673881,118,22,4,6,4,3,-2,-37
1526903650674879,-101,-45,-14,-6,-5,-4,-13,-73
1526903650674879,-81,-54,-10,-4,-3,1,11,18
1526903650696820,-128,-48,-11,-9,-3,-9,-16,-73
1526903650696820,16,29,6,5,0,2,14,71
1526903650697818,121,63,19,11,5,10,21,15
1526903650697818,-12,41,4,2,0,-5,-14,-4
1526903650719759,42,-10,-11,-6,-6,-7,-14,-54
1526903650719759,38,10,-1,-3,-2,-2,7,99
1526903650720756,1,5,-5,-7,-4,-3,-6,12
1526903650720756,-28,-20,-2,-1,-2,-4,-3,49
1526903650734719,-102,7,5,3,3,15,21,85
1526903650734719,63,92,27,12,9,0,-6,-128
1526903650734719,21,-114,-35,-9,-8,-9,-10,50
1526903650734719,-55,39,7,1,5,9,-10,-18
1526903650756660,99,94,16,4,0,-1,15,19
1526903650756660,-127,-55,-16,-11,-7,3,0,10
1526903650757658,-24,-24,0,0,-2,-14,-13,-38
1526903650757658,-45,-38,-5,-1,0,-3,-12,-76
1526903650779599,51,13,8,3,1,4,22,24
1526903650779599,-7,-7,-7,-4,-1,9,-15,-35
1526903650780597,7,-2,-5,-5,-4,-21,-1,-19
1526903650780597,27,43,20,14,13,33,27,84
1526903650793561,2,14,-2,-7,-6,-17,-10,-33
1526903650793561,16,-49,-7,1,0,-3,-21,-31
1526903650801540,-63,-33,-6,-5,-1,3,-16,-26
1526903650801540,-18,-21,4,0,-3,-6,33,38
1526903650816500,5,7,12,6,3,-6,-5,22
1526903650816500,-51,-29,-10,-2,-2,-4,17,64
1526903650817498,29,61,8,2,4,9,-1,24
1526903650817498,35,-9,2,1,-6,-10,-21,-30
1526903650840436,67,-15,-10,-7,-6,-8,-17,-40
1526903650840436,34,-31,-10,-5,-2,-4,3,-4
1526903650840436,107,25,8,4,4,5,12,3
1526903650840436,-42,-7,0,-2,1,3,-21,4
1526903650853401,4,-24,-12,0,6,6,4,-1
1526903650853401,82,48,15,5,1,-4,-10,-29
1526903650861380,-31,36,5,4,-1,4,11,-14
1526903650861380,88,-53,-18,-11,-9,-3,6,6
1526903650877337,75,-26,4,4,4,2,-8,16
1526903650877337,53,28,12,5,5,4,23,57
1526903650877337,-48,-40,-14,-6,-3,6,-16,7
1526903650877337,104,35,2,0,2,-1,40,40
1526903650900276,-92,-37,-6,-6,-4,7,-9,-41
1526903650900276,32,-3,-2,-1,-2,-13,-8,1
1526903650901274,-27,-25,2,0,1,-6,-16,17
1526903650901274,-62,-22,-12,-5,-3,-2,-18,-43
1526903650913241,-23,-5,3,0,-3,-18,-18,9
1526903650913241,-20,-27,2,0,2,8,28,18
1526903650922217,35,-9,-3,-3,-1,23,11,39
1526903650922217,-64,21,6,1,-1,-8,-5,82
1526903650937177,-89,-38,-10,-3,1,4,12,12
1526903650937177,-128,-23,-15,-10,-9,-30,-23,-32
1526903650937177,51,30,10,4,4,6,17,3
1526903650937177,-34,-68,-12,-6,-3,3,-8,-15
1526903650960116,-28,65,11,1,-5,-8,1,13
1526903650960116,125,58,4,1,3,5,8,43
1526903650961114,-67,-47,-7,-3,-3,4,-15,-18
1526903650961114,119,45,10,3,4,-4,5,-55
1526903650974078,50,10,8,7,9,12,-1,13
1526903650974078,77,-22,-15,-7,-8,-12,-33,-88
1526903650982057,-33,19,-3,-4,-5,1,9,-33
1526903650982057,85,11,-6,-2,-3,-9,-43,29
1526903650997017,-49,-1,4,1,4,14,44,5
1526903650997017,-28,14,-2,-2,-1,14,-18,-29
1526903650998015,-54,-26,-8,-4,-6,-34,-10,-53
1526903650998015,67,36,10,0,-1,9,8,24
1526903651019956,24,-74,-3,4,1,5,-3,23
1526903651019956,1,81,11,4,3,6,9,2
1526903651020953,-64,-51,-10,-6,-6,2,-5,-27
1526903651020953,32,-22,1,-1,-1,8,3,31
1526903651033919,-8,32,-3,-6,-7,-16,-21,-54
1526903651033919,80,8,3,1,1,1,15,14
1526903651041897,88,5,1,2,2,-2,-5,30
1526903651041897,-70,-5,-3,-1,-1,-7,2,-42
1526903651056857,101,37,1,-1,-2,-3,-5,-21
1526903651056857,-113,-23,1,1,-1,5,2,29
1526903651064836,-16,-35,-11,-4,-1,-4,-2,-23
1526903651064836,119,27,8,6,2,1,23,81
1526903651079796,82,-54,-11,-1,-2,2,-9,-21
1526903651079796,25,21,8,2,0,-1,0,24
1526903651080794,101,11,1,1,0,-2,13,-7
1526903651080794,-33,23,8,4,3,7,10,0
1526903651093759,-58,-24,-17,-10,-9,-7,-7,2
1526903651093759,-19,-46,-19,-11,-8,-7,-12,36
1526903651101737,127,52,23,12,11,17,28,84
1526903651101737,-24,-16,-12,-8,-6,-22,-8,-2
1526903651116697,-21,-13,1,0,2,1,-2,23
1526903651116697,12,-4,8,3,2,4,1,7
1526903651117695,0,14,-4,-3,-4,-17,3,-20
1526903651117695,-27,-46,-1,5,6,8,13,19
1526903651139636,119,94,25,11,7,12,21,99
1526903651139636,-128,-115,-38,-18,-13,-6,-8,-54
1526903651140633,127,25,-5,-5,-6,10,-10,-6
1526903651140633,-96,19,12,5,5,0,4,-73
1526903651162575,-9,0,-4,-1,-2,-7,-5,-3
1526903651162575,-80,-15,-1,2,0,-9,1,7
1526903651163572,-66,-12,2,3,0,-6,-7,12
1526903651163572,17,16,-3,-3,-1,8,1,1
1526903651176537,-80,4,-7,-3,0,-2,-2,-44
1526903651176537,127,86,18,11,8,9,18,39
1526903651177535,-128,-105,-46,-21,-19,-26,-51,-85
1526903651177535,58,4,6,-1,1,0,6,36
1526903651200473,-89,0,10,4,3,8,12,21
1526903651200473,90,62,9,2,1,3,8,53
1526903651200473,-76,16,14,6,6,6,16,-8
1526903651200473,-44,-31,-22,-11,-9,-11,-25,-16
1526903651222414,11,-16,-10,-5,-6,-6,-3,-16
1526903651222414,42,39,14,6,6,5,5,-92
1526903651223412,127,29,8,6,3,1,-1,21
1526903651223412,5,-42,-15,-7,-3,2,-7,-31
1526903651236377,80,40,13,5,1,-9,6,16
1526903651236377,-105,-67,-19,-7,-6,-18,-8,-30
1526903651237375,39,3,1,-1,-1,11,-14,34
1526903651237375,-87,6,8,6,3,4,1,23
1526903651260313,127,80,11,4,3,11,12,38
1526903651260313,96,-104,-23,-9,-8,-18,-17,-12
1526903651261311,-24,3,4,0,2,-1,9,-4
1526903651261311,127,16,3,0,0,-3,-3,20
1526903651282255,18,-12,6,2,2,8,23,2
1526903651282255,-76,-24,-3,-4,-3,-5,-21,-35
1526903651283252,-25,24,6,2,1,4,18,3
1526903651283252,-63,-1,-15,-2,-3,-9,-2,-16
1526903651297215,40,-3,-2,-6,-6,-16,-28,-52
1526903651297215,39,14,7,1,-1,15,-3,-4
1526903651297215,-15,17,7,3,4,-3,5,26
1526903651297215,18,3,8,2,1,5,5,-9
1526903651319156,0,-24,-18,-6,-2,-6,12,45
1526903651319156,-44,-22,-16,-2,-2,-6,-14,-61
1526903651320153,-18,25,19,3,1,9,9,22
1526903651320153,6,10,-4,-1,-4,0,-16,-80
1526903651342095,3,-37,-9,-2,-3,-14,-12,-23
1526903651342095,-39,20,10,1,0,1,15,36
1526903651343092,97,38,5,3,3,-1,-13,3
1526903651343092,-54,-25,-19,-13,-12,-14,-32,-78
1526903651357054,-2,-38,-1,3,3,14,13,18
1526903651357054,124,63,17,-1,0,3,11,62
1526903651358052,16,-13,-9,-3,-2,-4,3,-13
1526903651358052,-61,-32,-5,-1,-3,-7,-4,29
1526903651378996,68,74,2,-2,-1,1,-13,-27
1526903651378996,21,32,-1,3,1,-1,16,82
1526903651379993,-77,-39,-1,2,0,1,0,6
1526903651379993,127,11,0,-3,-1,-2,8,46
1526903651402931,-128,-5,-7,-1,-1,-4,-1,-54
1526903651402931,65,7,27,13,11,20,11,12
1526903651402931,75,27,3,1,2,9,32,57
1526903651402931,-60,-33,-23,-9,-6,-11,-6,-27
1526903651416894,-71,-12,24,9,8,10,-1,-2
1526903651416894,34,-36,-36,-13,-10,-17,-17,-58
1526903651417892,2,39,14,5,2,9,12,-29
1526903651417892,63,5,7,4,4,-1,4,7
1526903651439833,91,84,6,-3,-5,3,-14,18
1526903651439833,38,-16,-14,-5,-6,-4,-14,11
1526903651439833,-29,-6,-8,-5,-6,-6,-9,-5
1526903651439833,76,56,28,15,13,19,43,90
1526903651462772,9,-36,-2,4,1,4,5,33
1526903651462772,-128,-54,-13,-14,-9,-11,-23,-34
1526903651463769,88,14,-12,-4,-4,-7,-5,18
1526903651463769,-19,12,25,10,7,12,19,49
1526903651476735,84,2,-3,-1,0,2,5,21
1526903651476735,-124,-1,-8,-1,-1,0,-4,-14
1526903651477732,25,-63,-9,-4,-5,-5,-3,1
1526903651477732,92,63,5,5,2,0,5,17
1526903651499673,-118,-10,-12,-9,-6,-4,-13,-28
1526903651499673,0,-30,6,5,5,5,17,5
1526903651500671,-104,5,-5,-6,-3,-7,-12,-84
1526903651500671,-11,11,0,-2,-4,7,-5,60
1526903651522612,9,-25,-14,-8,-10,-22,-25,-105
1526903651522612,-61,33,21,10,10,9,14,27
1526903651523610,-117,-37,-30,-17,-14,-23,-51,-119
1526903651523610,54,-13,-2,-3,-2,-4,14,88
1526903651536574,-88,14,9,3,5,16,-2,23
1526903651536574,-92,-13,-4,-4,-4,-5,0,-6
1526903651537573,123,-38,-13,-7,-5,-2,-13,-54
1526903651537573,-79,-64,-26,-9,-7,-10,-14,-122
1526903651559513,-70,27,22,9,7,1,7,86
1526903651559513,-6,-2,-4,-4,-3,-2,-15,-38
1526903651560511,-80,-11,6,-1,1,7,17,-22
1526903651560511,-128,-30,-4,-8,-6,-13,-40,-111
1526903651582452,-77,-42,2,7,8,14,46,42
1526903651582452,-62,18,-2,1,0,2,-14,-86
1526903651583450,-5,-3,-9,-5,-3,-9,-7,92
1526903651583450,117,17,1,0,-2,-1,11,67
1526903651596414,-6,-14,-3,-1,-2,3,-3,-47
1526903651596414,116,56,22,11,6,8,27,67
1526903651597412,-36,25,-7,1,-1,-6,-4,17
1526903651597412,28,-50,-12,-7,-7,-9,-27,-65
1526903651619353,-1,1,2,0,-1,1,10,41
1526903651619353,106,27,8,2,0,-2,-20,-71
1526903651620350,117,-4,8,8,8,14,19,82
1526903651620350,124,50,2,1,-2,-7,2,37
1526903651642291,4,30,-11,-9,-10,-17,3,-17
1526903651642291,49,27,12,4,4,8,8,-7
1526903651643289,116,-35,-12,-4,-6,-7,-19,-24
1526903651643289,-15,0,-5,-3,3,11,18,6
1526903651657252,105,-20,-2,-3,-3,-3,4,61
1526903651657252,-48,-20,-3,0,1,-1,1,-11
1526903651657252,-103,60,21,11,12,24,35,-11
1526903651657252,-39,-19,-11,-8,-9,-27,-39,-1
1526903651679193,114,-43,-8,-3,-2,-2,-21,9
1526903651679193,-70,-21,-5,-3,-2,-5,-7,39
1526903651680190,31,22,6,1,0,19,5,-23
1526903651680190,-74,-29,-8,-5,-6,-7,6,-60
1526903651702131,-128,1,2,0,1,-3,-18,-53
1526903651702131,76,39,11,4,2,-5,-3,25
1526903651703129,-52,-43,-5,1,-1,3,5,35
1526903651703129,-77,18,10,6,7,13,19,6
1526903651717091,16,14,-21,-15,-15,5,-20,-71
1526903651717091,47,-20,-1,0,-2,-8,5,12
1526903651718089,-1,52,9,2,-1,-7,-3,12
1526903651718089,-92,-97,-15,-5,-3,-11,-5,5
1526903651739033,61,26,7,1,1,-1,-4,21
1526903651739033,111,16,-7,-5,-4,0,1,26
1526903651740031,-54,-8,3,-2,1,-2,0,2
1526903651740031,38,53,16,9,3,9,4,0
1526903651762969,-33,4,6,4,5,5,8,-24
1526903651762969,-107,-77,-23,-13,-10,-19,-14,46
1526903651762969,127,72,10,4,3,3,13,19
1526903651762969,-87,-8,-6,-6,-1,8,-21,-38
1526903651775934,32,-26,-5,-3,-2,1,-19,-30
1526903651775934,-9,29,5,3,-1,-10,10,-13
1526903651783913,-70,-46,-11,-6,-4,-20,-8,-20
1526903651783913,126,41,12,8,6,21,17,56
1526903651798873,-86,-30,-11,-3,-1,-2,3,4
1526903651798873,-74,25,-3,-4,-4,2,-7,-32
1526903651799870,102,20,-2,-3,-4,-14,-10,17
1526903651799870,-61,-73,-6,-4,-4,-7,-3,-19
1526903651822809,104,15,4,-2,-1,-12,-13,-37
1526903651822809,56,-44,-9,3,5,9,9,7
1526903651823806,17,24,5,0,-2,-1,5,13
1526903651823806,127,67,11,6,3,6,2,-8
1526903651835774,-94,-62,-11,-4,-4,-7,-4,-1
1526903651835774,-86,-17,4,5,7,9,11,14
1526903651844750,84,-13,-11,-5,-3,0,-8,-32
1526903651844750,-24,-28,-6,-3,-3,-5,2,34
1526903651859710,-59,41,8,2,1,2,8,4
1526903651859710,-13,-28,1,0,1,3,-3,-9
1526903651859710,11,-30,-8,-1,-2,-2,-8,0
1526903651859710,86,62,17,8,7,15,24,36
1526903651882649,-6,6,-7,-4,-5,-18,0,100
1526903651882649,-2,-23,-5,-4,-6,0,-5,13
1526903651883646,30,24,12,4,5,10,10,-15
1526903651883646,-106,-1,-1,-1,-2,-14,-13,-13
1526903651896612,2,20,0,-1,1,18,8,-17
1526903651896612,19,4,-4,-3,-6,-16,-12,-13
1526903651904590,-128,-16,-11,-9,-6,1,-10,-33
1526903651904590,5,-1,2,2,-1,-8,4,36
1526903651919550,66,1,1,1,-2,-8,-14,-14
1526903651919550,43,5,-7,-3,-3,-5,-6,3
1526903651920548,-122,-13,0,1,-1,-4,-5,-30
1526903651920548,46,-5,-2,-4,1,2,2,-17
1526903651942489,-73,-25,-9,-3,-4,-8,-13,-34
1526903651942489,-73,15,16,7,5,16,19,20
1526903651943486,-10,-2,-12,-5,-6,-13,-11,21
1526903651943486,-83,-36,-7,-3,-3,-4,-6,-26
1526903651956451,56,-13,10,7,6,8,19,47
1526903651956451,55,14,-2,-2,1,4,-1,-11
1526903651964430,25,75,24,11,13,18,25,66
1526903651964430,54,-33,-12,-8,-7,-3,-2,-2
1526903651979390,-23,-12,-9,-4,-5,-11,-7,-16
1526903651979390,18,3,0,-1,-2,0,-3,3
1526903651980388,-28,-3,9,6,4,3,23,25
1526903651980388,-97,-1,-8,-4,-3,7,-10,-34
1526903652002329,-9,-23,-2,1,-1,-3,-4,11
1526903652002329,-7,-62,-36,-20,-18,-22,-43,-59
1526903652003326,54,-10,-7,-4,-1,-7,-17,-24
1526903652003326,45,70,14,5,3,5,19,48
1526903652016291,-29,-31,-3,0,-1,-3,-15,-34
1526903652016291,9,31,3,1,0,0,3,-5
1526903652024270,-44,-46,-11,-4,-4,-1,7,79
1526903652024270,-32,-14,-8,-5,-9,-15,-25,-56
1526903652039230,18,48,14,4,5,1,3,-17
1526903652039230,-9,38,-4,0,0,3,2,11
1526903652040228,62,-21,-3,-3,-1,-8,-6,21
1526903652040228,69,21,5,-1,1,0,-4,13
1526903652062169,-43,-1,6,6,2,8,7,-4
1526903652062169,18,18,11,7,3,3,10,18
1526903652063166,-11,-7,-1,-1,-4,-1,-1,-38
1526903652063166,-96,-29,-6,-2,0,-2,-6,-25
1526903652085107,75,46,1,-1,1,4,5,31
1526903652085107,11,-22,-6,-3,0,-5,5,0
1526903652086105,-117,-29,-14,-8,-6,-8,-15,-32
1526903652086105,90,10,12,8,7,13,27,64
1526903652099070,-44,-18,-16,-12,-13,-16,-25,-67
1526903652099070,-35,4,2,2,3,-8,7,33
1526903652100068,-62,19,9,4,4,25,-2,-29
1526903652100068,-46,3,-6,-5,-3,-11,2,7
1526903652123006,-33,-51,-7,-3,-2,2,11,33
1526903652123006,5,-16,-11,-7,-8,-9,-15,-34
1526903652123006,-31,4,2,1,-2,-9,-6,1
1526903652123006,46,37,5,3,0,0,-3,0
1526903652144947,8,9,2,1,2,3,6,2
1526903652144947,89,32,0,-3,0,7,11,35
1526903652145945,-32,-39,-3,0,-2,-12,-6,-37
1526903652145945,61,-15,-4,-4,-4,-4,-17,-47
1526903652158910,39,17,7,4,4,14,14,19
1526903652158910,29,-6,1,0,0,4,-2,15
1526903652159907,25,21,8,5,3,3,12,18
1526903652159907,-116,-3,-1,-4,1,-3,0,0
1526903652182846,66,33,6,3,3,3,8,30
1526903652182846,-48,-10,0,-1,-3,-2,-5,-12
1526903652183843,3,-3,1,0,0,0,6,9
1526903652183843,-14,-36,-6,-1,-3,-5,-3,5
1526903652204787,-61,6,5,4,6,20,8,-23
1526903652204787,-30,14,1,-1,-1,-4,-2,-22
1526903652205785,-10,-44,-11,-9,-6,-11,-8,-8
1526903652205785,18,38,16,8,7,7,3,1
1526903652219747,3,23,-20,-4,-2,0,6,43
1526903652219747,-61,-3,20,2,3,1,5,27
1526903652219747,78,-34,-16,-9,-9,-13,-31,-71
1526903652219747,-95,1,-4,-3,-1,2,-5,-62
1526903652242686,62,-14,7,3,3,-1,10,28
1526903652242686,81,29,4,6,7,12,17,13
1526903652243684,-6,5,-9,-3,-3,-7,-6,15
1526903652243684,45,13,21,3,0,1,0,13
1526903652264627,92,-1,-8,-3,-6,-17,-15,-16
1526903652264627,22,-27,-8,1,0,10,4,-26
1526903652265625,-36,18,5,-6,-2,-1,-2,40
1526903652265625,26,-17,-15,-6,-5,-10,-3,10
1526903652279587,30,3,1,-1,-1,-8,-6,-23
1526903652279587,1,16,13,4,6,11,16,44
1526903652280585,34,-1,6,6,4,15,12,60
1526903652280585,-30,7,-25,-6,-5,-5,-2,-32
1526903652302526,-31,-51,-8,-13,-10,-16,-14,-13
1526903652302526,-6,23,10,4,-1,-4,-3,3
1526903652303524,95,15,3,3,2,3,4,0
1526903652303524,37,15,2,4,-2,3,2,45
1526903652325465,63,3,4,1,1,0,4,-30
1526903652325465,-77,-17,-12,-4,-5,-3,-14,-62
1526903652325465,-96,34,6,-3,-1,-3,-6,-15
1526903652325465,75,15,-1,6,4,4,8,32
1526903652339427,-35,-4,-5,-6,-2,-4,-12,-39
1526903652339427,119,5,-8,-7,-6,-11,-11,6
1526903652340425,-11,21,10,4,3,4,8,-2
1526903652340425,-22,-38,-6,-4,-2,-3,-4,-14
1526903652362366,-28,23,-5,2,0,3,9,57
1526903652362366,-18,-15,13,-1,-1,0,-3,3
1526903652363365,55,-1,-7,1,0,0,15,20
1526903652363365,68,28,11,5,6,12,13,26
1526903652385304,-17,-46,-16,-10,-11,-14,-27,-27
1526903652385304,79,-7,-13,-4,-1,4,-5,29
1526903652386302,64,12,1,0,-3,-12,-7,-13
1526903652386302,-68,-2,2,-4,-2,-1,-8,-1
1526903652399267,70,57,21,8,8,10,15,14
1526903652399267,-49,-36,-37,-9,-6,-8,-1,-20
1526903652400265,50,10,15,-1,1,-3,-8,5
1526903652400265,-65,23,13,5,4,4,7,4
1526903652422206,-99,-39,-17,-10,-9,-16,-23,-56
1526903652422206,-63,12,8,4,3,6,4,-14
1526903652423203,-32,-40,-15,-4,-2,11,17,24
1526903652423203,-20,-17,-8,-6,-5,-7,-15,-64
1526903652445144,47,0,14,5,2,5,6,2
1526903652445144,83,56,0,-6,-9,-16,-26,-55
1526903652446142,-116,-90,-16,-4,-2,-1,-3,-43
1526903652446142,54,-3,-3,-3,-2,0,-4,24
1526903652459107,80,29,-5,0,-1,-1,2,-5
1526903652459107,-57,-47,7,1,1,2,10,44
1526903652460105,29,58,12,6,4,5,4,-4
1526903652460105,85,-2,-8,-6,-5,-8,-13,-33
1526903652482046,-85,-8,0,-1,0,2,3,1
1526903652482046,26,16,15,10,9,10,20,38
1526903652483043,87,35,-5,-4,-6,-5,0,70
1526903652483043,65,20,13,10,8,13,31,74
1526903652504984,-53,-57,-21,-13,-9,-10,-24,-91
1526903652504984,-96,-39,-4,-3,-1,1,3,-38
1526903652505982,54,67,17,6,6,6,12,41
1526903652505982,-71,-28,-15,-8,-7,-11,-21,-55
1526903652518947,46,53,16,3,3,6,7,4
1526903652518947,-109,-59,-9,-2,-2,-5,-3,-43
1526903652519945,9,23,-7,-8,-5,-6,-14,18
1526903652519945,32,26,9,2,2,1,-11,7
1526903652541886,89,12,1,4,3,7,14,20
1526903652541886,9,44,-4,-2,-4,-5,-11,-64
1526903652542884,43,-90,-31,-16,-16,-26,-34,-55
1526903652542884,70,38,23,12,8,15,35,62
1526903652564825,-77,6,8,4,4,2,-16,-4
1526903652564825,1,-4,2,1,-1,0,14,25
1526903652565822,37,31,8,5,3,6,6,-63
1526903652565822,-53,-57,-21,-10,-7,-12,-15,-19
1526903652579784,15,18,24,15,13,17,34,93
1526903652579784,-84,-11,-26,-19,-17,-20,-38,-71
1526903652579784,-38,-3,2,2,1,-11,-10,9
1526903652579784,95,9,11,4,4,18,29,62
1526903652601726,-103,-20,-14,-8,-8,-15,-25,-44
1526903652601726,122,49,18,7,6,9,20,94
1526903652602723,-99,-40,-11,-6,-2,-5,-8,-63
1526903652602723,75,60,14,9,9,7,13,64
1526903652624665,-103,-82,-15,-7,-5,-6,-11,-40
1526903652624665,86,45,5,2,1,4,6,27
1526903652625662,-115,-11,-4,-3,-4,-5,-6,-16
1526903652625662,-102,-7,-10,-6,-6,-6,-1,56
1526903652639624,-90,-33,-9,-4,-1,-3,-7,-48
1526903652639624,-14,-45,-2,-1,2,4,13,40
1526903652640622,34,40,14,5,7,14,18,10
1526903652640622,-128,-71,-15,-10,-7,-8,-17,-96
1526903652661566,117,24,6,4,-1,2,12,74
1526903652661566,50,58,9,6,3,6,8,7
1526903652662564,70,-5,-13,-8,-8,-11,-23,-26
1526903652662564,-93,-59,-6,-4,-2,-5,-10,-62
1526903652685502,108,64,14,3,1,1,4,24
1526903652685502,31,16,-1,4,5,6,3,-3
1526903652685502,120,-8,6,7,4,6,1,25
1526903652685502,103,52,1,0,-2,-14,-25,-35
1526903652698467,-12,6,-6,-9,-9,-8,-16,-13
1526903652698467,3,-31,4,4,7,8,24,115
1526903652706446,-94,-11,-8,-7,-4,-3,-4,-24
1526903652706446,-37,-37,-15,-4,-5,-5,-7,-2
1526903652721406,97,43,14,6,6,8,11,40
1526903652721406,-40,-26,-15,-7,-6,-6,2,-13
1526903652722403,-18,9,-1,-2,-1,-1,-8,21
1526903652722403,-73,-10,-6,-2,-2,-1,6,-12
1526903652745341,5,-36,2,1,3,4,15,19
1526903652745341,29,6,-2,-6,-6,-9,-26,-66
1526903652746339,-2,-31,-6,1,0,6,8,-12
1526903652746339,127,47,11,4,-1,0,1,28
1526903652758307,-20,-30,-21,-13,-13,-16,-18,-10
1526903652758307,16,1,-6,-6,-4,-7,-20,-54
1526903652767283,-110,2,19,11,10,11,16,15
1526903652767283,127,83,12,1,1,1,3,21
1526903652782243,-128,-91,-21,-7,-6,-17,-12,-42
1526903652782243,-37,-2,2,0,1,2,0,-8
1526903652782243,-6,-32,-7,-1,1,14,26,10
1526903652782243,30,15,-3,-2,-1,-1,1,9
1526903652805182,-45,18,-1,-5,-3,-8,-7,-30
1526903652805182,-37,-9,1,2,1,-5,-17,-34
1526903652806179,83,3,0,1,-2,-4,-3,-10
1526903652806179,25,-66,-9,0,-1,-4,1,5
1526903652819144,25,28,9,4,3,11,14,5
1526903652819144,-10,-12,-7,-6,-2,5,-8,33
1526903652834104,-13,31,8,3,3,-4,7,13
1526903652834104,-34,-25,-6,-4,-2,-2,-6,-16
1526903652842083,-45,-40,-13,-2,-4,-3,-7,-38
1526903652842083,49,8,6,3,1,5,10,25
1526903652843081,68,10,-4,-4,-5,-9,-13,6
1526903652843081,51,4,-1,-1,2,-2,3,-8
1526903652865021,-21,32,9,7,7,8,7,26
1526903652865021,-21,-37,-6,-1,-3,-9,-7,-14
1526903652866019,-128,-4,-14,-11,-7,-12,-18,-44
1526903652866019,29,7,-6,-2,-6,-4,-7,-3
1526903652878984,71,39,16,8,7,14,17,43
1526903652878984,127,57,6,2,-3,-5,-4,-8
1526903652886963,-52,-36,-13,-5,-3,-2,-5,-21
1526903652886963,-128,-11,4,1,1,5,10,30
1526903652901923,127,22,-5,-4,-4,-8,-13,2
1526903652901923,-128,-12,4,1,1,1,10,11
1526903652902920,-26,33,9,4,3,2,1,14
1526903652902920,77,1,-2,0,1,3,7,10
1526903652924862,7,-9,0,1,1,-1,-2,7
1526903652924862,-65,2,3,2,2,1,2,-3
1526903652925859,96,10,-11,-5,-3,-2,-1,0
1526903652925859,-34,-56,-8,-4,-2,-5,-11,-20
1526903652938824,72,42,18,11,9,7,26,65
1526903652938824,11,-10,-12,-9,-7,-6,-22,-22
1526903652946803,13,51,31,16,12,17,29,83
1526903652946803,14,-10,-14,-6,-4,-5,-6,-15
1526903652961763,-3,-4,-1,-2,-1,1,-2,9
1526903652961763,16,-28,5,3,3,1,5,-6
1526903652962761,28,7,0,-2,-5,-10,-3,23
1526903652962761,-108,-7,-10,-7,-4,5,-14,-68
1526903652984701,-77,-34,-6,-3,-4,-9,-12,-23
1526903652984701,-56,-6,3,3,4,3,6,5
1526903652985699,61,32,6,-2,-3,-4,-4,12
1526903652985699,109,-30,-4,-3,-3,-3,-1,-1
1526903653007640,30,-3,-6,-1,-1,0,-2,-19
1526903653007640,-6,19,4,1,2,1,11,30
1526903653008638,27,-1,0,2,1,4,3,6
1526903653008638,-128,-31,-9,-7,-5,-8,-13,-11
1526903653021603,95,59,12,4,4,9,17,30
1526903653021603,-31,-78,-29,-14,-11,-15,-19,-32
1526903653022600,43,-6,3,3,2,1,5,-4
1526903653022600,86,13,9,3,1,2,2,4
1526903653044542,-36,4,9,5,4,4,5,-2
1526903653044542,80,26,3,2,1,2,1,9
1526903653045539,-34,11,-22,-11,-8,-13,-18,-61
1526903653045539,-8,-25,-10,-7,-3,-10,-17,-13
1526903653067480,-18,-50,-10,-3,-4,1,-5,-19
1526903653067480,-45,33,9,2,2,7,16,25
1526903653068478,-64,4,-1,-1,0,-11,-2,7
1526903653068478,27,37,12,6,4,2,14,-4
1526903653081443,-31,-17,-9,-3,-3,-5,-4,2
1526903653081443,103,55,6,1,-1,6,-2,6
1526903653082440,-36,-63,-6,-4,0,5,5,-7
1526903653082440,-57,28,8,5,1,-3,1,26
1526903653105379,-31,-11,-8,-6,-5,-2,1,-23
1526903653105379,-7,18,3,3,3,3,9,32
1526903653105379,-46,-30,-11,-5,-4,-5,-12,-28
1526903653105379,-50,-20,-3,-4,-3,-3,-4,-20
1526903653127320,101,25,7,4,3,6,5,17
1526903653127320,-48,-53,-15,-7,-7,-9,-17,-29
1526903653128318,84,-16,11,5,6,10,14,33
1526903653128318,86,45,4,-1,-1,-3,-1,5
1526903653142281,-73,-55,-14,-7,-3,-8,-15,-34
1526903653142281,-6,15,12,4,3,5,9,-15
1526903653142281,-64,-18,-9,-5,-4,-3,-10,-4
1526903653142281,36,-22,-10,0,0,1,-10,-21
1526903653165219,14,34,-13,-9,-6,-10,-10,3
1526903653165219,55,-18,6,-1,-1,-2,-2,-4
1526903653166216,106,23,8,-1,1,2,-5,-30
1526903653166216,18,-8,2,4,0,-2,0,11
1526903653187160,-62,12,-4,-1,-3,-4,-5,-44
1526903653187160,43,13,-5,-2,-3,-3,-1,6
1526903653188157,110,24,3,-3,-2,-1,-6,13
1526903653188157,11,9,7,3,3,3,14,-10
1526903653202120,-8,-15,13,5,4,0,-15,7
1526903653202120,-65,2,-22,-4,-3,-4,-6,-17
1526903653203117,-128,-17,18,0,-3,0,0,-13
1526903653203117,75,34,-7,-6,-6,-12,-13,5
1526903653225059,17,10,11,4,4,11,24,30
1526903653225059,54,22,8,6,4,7,6,29
1526903653226056,-27,-36,-20,-6,-5,-4,-11,4
1526903653226056,-50,45,7,2,4,6,6,7
1526903653247998,-75,-48,-6,-7,-5,-5,4,6
1526903653247998,-62,-25,-11,-5,-4,-6,-9,-8
1526903653247998,20,22,-1,1,-1,-1,0,-20
1526903653247998,7,21,9,1,1,4,6,14
1526903653261960,16,-11,0,4,5,4,7,19
1526903653261960,-36,-15,-5,-5,-7,-9,-8,-34
1526903653262958,-12,10,5,6,3,3,7,1
1526903653262958,-2,-34,-3,-3,0,3,7,14
1526903653284899,67,44,3,-1,0,-3,-5,-10
1526903653284899,73,-67,-9,-1,-1,-3,2,48
1526903653285897,-2,30,18,2,3,7,18,20
1526903653285897,64,26,-1,1,-1,0,3,20
1526903653307837,4,-9,-15,-3,-1,-2,7,-9
1526903653307837,-106,10,20,4,1,2,0,-10
1526903653308835,103,8,-1,7,4,5,14,51
1526903653308835,-15,-72,-8,-5,-3,-4,-9,-32
1526903653321800,99,-13,-9,-7,-7,-9,-15,6
1526903653321800,127,30,-4,-3,-3,-4,-7,1
1526903653322798,-41,7,0,1,2,1,-1,-40
1526903653322798,-42,-11,-6,-4,-4,-5,-8,-7
1526903653344739,69,4,-7,-1,1,0,0,-4
1526903653344739,46,31,17,7,6,8,14,12
1526903653345736,42,-8,-15,-7,-12,-15,-26,-28
1526903653345736,56,2,-8,-4,-4,-5,-5,12
1526903653367678,40,5,11,5,0,3,-4,-8
1526903653367678,66,11,-8,-1,0,-3,7,11
1526903653368675,-8,54,19,7,6,11,26,90
1526903653368675,-109,-6,-12,-6,-8,-8,-15,-27
1526903653381640,85,-30,3,2,5,9,16,42
1526903653381640,43,24,9,5,4,7,12,31
1526903653382637,-74,-107,-44,-17,-16,-24,-39,-83
1526903653382637,97,24,19,5,5,8,13,34
1526903653404579,4,1,-3,-7,-3,-4,-11,-30
1526903653404579,83,47,17,10,4,7,15,41
1526903653405576,-93,-25,-27,-11,-10,-12,-25,-85
1526903653405576,-48,19,35,12,7,11,24,46
1526903653427517,-128,1,-17,-3,-3,-7,-8,-42
1526903653427517,71,-34,-4,-10,-5,-5,-9,-29
1526903653428515,-38,-1,-4,0,0,1,-1,-1
1526903653428515,-38,-29,-13,-4,-1,-2,-5,-47
1526903653441480,127,59,8,-1,-3,-2,1,27
1526903653441480,-10,-18,5,1,3,1,-1,-23
1526903653442477,-17,-12,-8,-8,-5,-6,-3,-7
1526903653442477,12,-8,-5,-1,0,-1,-6,4
1526903653465416,13,31,15,8,5,6,11,24
1526903653465416,-28,-39,-16,-7,-5,-7,-14,-26
1526903653465416,0,6,16,2,3,11,24,73
1526903653465416,98,-23,-23,-3,-3,-4,2,14
1526903653487357,-14,-30,-2,-11,-13,-17,-28,-8
1526903653487357,5,58,21,15,8,14,23,26
1526903653488355,101,-32,-16,-8,-4,-9,-9,4
1526903653488355,-117,-34,9,3,1,4,4,24
1526903653502317,30,97,26,15,13,21,29,6
1526903653502317,49,-86,-40,-22,-17,-25,-29,-31
1526903653502317,78,10,11,5,4,5,5,8
1526903653502317,57,-56,-11,0,0,-1,-2,-13
1526903653525256,73,10,-5,0,2,0,4,21
1526903653525256,-25,54,28,6,3,4,8,16
1526903653526253,18,-102,-22,-3,-1,-3,-13,-65
1526903653526253,-20,4,-8,-9,-7,-12,-14,-1
1526903653547198,-117,-26,7,2,1,0,0,-3
1526903653547198,-7,14,-5,2,1,5,15,0
1526903653548195,62,30,-2,-1,-1,-2,-3,35
1526903653548195,96,60,18,4,7,6,5,-4
1526903653562157,-73,-64,-11,-5,-4,-4,-9,-28
1526903653562157,81,91,0,-3,-3,-7,-4,58
1526903653563155,-100,-47,-5,-4,-2,-4,-3,-45
1526903653563155,53,59,23,11,8,11,18,0
1526903653584099,3,-75,-29,-16,-12,-14,-19,-51
1526903653584099,-79,-45,-7,-1,2,5,1,-42
1526903653585096,-64,99,22,12,7,10,17,35
1526903653585096,44,-81,-28,-12,-11,-14,-18,-15
1526903653608034,69,20,7,3,1,2,3,8
1526903653608034,35,-36,-24,-11,-11,-12,-22,-44
1526903653608034,-87,-5,11,1,0,3,5,10
1526903653608034,37,43,6,5,2,5,8,13
1526903653629976,-84,-22,7,-2,1,0,0,3
1526903653629976,-10,-33,-12,1,-1,-3,-12,4
1526903653630973,62,3,-3,-3,-4,-6,-3,0
1526903653630973,-56,2,11,4,0,2,-1,-12
1526903653643939,127,11,-12,-5,-6,-4,2,39
1526903653643939,-99,34,7,0,0,-1,-3,-45
1526903653644936,27,20,16,9,9,12,17,14
1526903653644936,-99,-78,-25,-13,-11,-13,-21,-30
1526903653667875,3,45,1,0,-4,-6,-8,-18
1526903653667875,-29,-60,-11,-3,-2,0,-3,-13
1526903653667875,27,56,8,3,3,6,11,15
1526903653667875,3,27,-5,-4,-2,-3,-7,-29
1526903653680840,-23,8,3,4,1,3,6,18
1526903653680840,-54,-30,2,-3,-1,-2,2,-15
1526903653689816,82,-5,-2,0,-5,-7,-8,-3
1526903653689816,83,12,0,1,1,2,-8,0
1526903653704776,-38,-69,-15,-7,-8,-9,5,12
1526903653704776,-14,25,6,2,2,25,1,21
1526903653704776,-53,-14,-4,-4,-4,0,2,-20
1526903653704776,-73,24,9,3,5,-3,10,15
1526903653727714,49,-10,-4,1,3,-3,-8,2
1526903653727714,-72,-39,-10,-4,-4,-6,-4,-3
1526903653728712,-6,23,13,4,4,3,-2,20
1526903653728712,-114,-30,-11,-5,-5,-3,-4,-8
1526903653741677,-82,14,-2,-7,-7,-6,-13,-45
1526903653741677,74,12,7,3,0,-10,0,5
1526903653749656,72,16,-8,-3,-2,-4,-15,-8
1526903653749656,81,4,1,-2,-1,2,10,32
1526903653764616,45,15,3,1,4,1,-7,-24
1526903653764616,-88,-23,-14,-5,-4,-7,-1,-9
1526903653765613,-73,-1,14,2,0,-2,6,10
1526903653765613,78,34,12,7,6,14,19,25
1526903653787554,-128,-53,-21,-9,-9,-23,-20,40
1526903653787554,72,31,-10,-3,-3,8,-4,-18
1526903653788552,4,8,8,-2,-3,-9,-5,-4
1526903653788552,-54,-35,-4,-1,0,-8,-3,-15
1526903653810493,47,-15,-2,1,2,9,12,23
1526903653810493,74,22,6,0,0,-11,6,11
1526903653810493,-48,-19,-11,-1,-1,2,-3,-10
1526903653810493,-29,-1,-2,-2,0,2,-3,-5
1526903653824456,-60,-17,-1,-4,-1,6,-15,-8
1526903653824456,3,-22,-5,-2,-3,-18,12,-15
1526903653825453,-23,-5,3,4,2,3,4,17
1526903653825453,43,41,13,6,3,5,10,35
1526903653847395,105,48,4,1,-1,-1,-1,-21
1526903653847395,17,-43,-3,-2,-1,-1,-4,20
1526903653848392,83,-20,-13,-5,-3,-6,-10,-23
1526903653848392,83,53,20,9,8,6,10,-6
1526903653861357,-7,24,-4,-6,-9,3,1,46
1526903653861357,-83,-67,-5,-4,-2,-2,-9,-3
1526903653869336,-17,23,13,13,11,11,25,15
1526903653869336,-84,-25,-22,-13,-11,-7,-28,-31
1526903653884296,73,27,14,5,5,0,14,1
1526903653884296,-36,26,9,3,3,5,4,6
1526903653885293,54,8,5,8,8,17,19,34
1526903653885293,-41,-95,-45,-25,-24,-41,-51,-88
1526903653907234,15,11,8,7,5,12,2,-18
1526903653907234,46,40,21,6,7,6,4,65
1526903653908232,-69,-10,-8,-4,-4,-4,1,12
1526903653908232,-28,-23,1,3,3,-1,-3,-42
1526903653921197,0,25,3,-1,1,4,10,17
1526903653921197,86,54,8,0,-1,6,5,0
1526903653929176,9,-69,-47,-18,-15,-23,-34,-52
1526903653929176,109,40,24,6,3,9,12,41
1526903653944136,2,35,9,3,4,2,12,16
1526903653944136,-47,-21,4,6,3,3,6,15
1526903653945134,109,28,-3,-5,-7,-7,-10,13
1526903653945134,-25,-22,2,2,3,1,7,0
1526903653968072,127,15,3,1,2,3,-1,-29
1526903653968072,85,70,18,8,8,13,26,63
1526903653968072,-82,-53,-13,-11,-6,-7,-11,-23
1526903653968072,99,85,16,9,8,14,22,75
1526903653990013,-116,-57,-19,-7,-8,-16,-26,-56
1526903653990013,-118,-22,-13,-8,-7,-5,-21,-85
1526903653991011,76,20,4,0,1,7,0,4
1526903653991011,43,38,21,12,9,13,22,58
1526903654003975,28,-9,-17,-7,-7,-12,-17,-73
1526903654003975,15,-56,-25,-17,-14,-17,-26,-5
1526903654004973,44,23,10,3,2,0,-2,-18
1526903654004973,76,43,6,0,-1,4,4,12
1526903654027912,-97,-5,0,3,1,0,7,49
1526903654027912,110,27,-12,-5,-7,-7,-10,-27
1526903654027912,74,22,16,5,4,0,9,14
1526903654027912,25,-41,-22,-10,-7,-8,2,-7
1526903654049853,-13,-17,-3,-4,1,-2,-19,17
1526903654049853,24,30,6,3,3,5,7,16
1526903654050850,-34,-35,2,1,0,-9,2,20
1526903654050850,-17,7,0,0,0,13,0,-24
1526903654064813,2,-12,-2,-1,-2,2,7,-6
1526903654064813,-128,-9,-12,-6,-5,-12,-23,-24
1526903654064813,45,15,8,1,2,7,9,3
1526903654064813,-127,-12,-3,-3,-1,-5,-11,-40
1526903654087752,-6,4,2,-1,0,-2,1,16
1526903654087752,75,-21,-1,-3,-5,-4,-3,-22
1526903654088749,-115,1,-17,-2,0,-1,-1,-3
1526903654088749,1,-28,6,-5,-3,-9,-11,-35
1526903654109693,39,13,13,8,6,13,12,68
1526903654109693,71,21,1,1,-1,-2,-4,-40
1526903654110690,26,20,-1,-1,-3,7,8,33
1526903654110690,-26,-5,-10,-3,-5,-6,-8,-7
1526903654124653,-73,-38,7,3,3,-1,5,-36
1526903654124653,-59,-20,-10,-6,-4,-3,-3,16
1526903654125650,-37,24,1,-4,-3,-2,-8,-29
1526903654125650,-59,8,-4,-1,0,-2,-3,-4
1526903654147592,-24,-23,2,1,2,5,13,11
1526903654147592,-100,-2,13,10,9,11,17,22
1526903654148589,-26,4,-12,-10,-9,-16,-28,-31
1526903654148589,-51,-22,-15,-7,-7,-10,-14,-11
1526903654170530,44,29,5,0,-2,-4,9,14
1526903654170530,52,-5,4,3,1,4,11,45
1526903654170530,34,-10,8,4,1,-3,9,-3
1526903654170530,101,14,11,8,9,26,20,31
1526903654184493,24,-29,-11,-5,-8,-17,-26,-31
1526903654184493,-16,11,5,2,3,-1,13,21
1526903654185491,-74,9,-8,0,0,6,-6,-14
1526903654185491,-94,-28,-6,-9,-7,-9,-12,-32
1526903654207431,-77,-5,10,5,4,4,4,-13
1526903654207431,-5,0,3,1,1,-3,1,3
1526903654208429,20,42,9,5,4,2,3,6
1526903654208429,-47,-44,-22,-4,-1,-2,2,-38
1526903654230370,54,-34,-16,-10,-7,-11,-20,-47
1526903654230370,-26,-9,-6,-4,-5,-7,-13,-19
1526903654231368,-37,6,11,3,5,9,22,22
1526903654231368,61,-8,-7,-2,-5,-9,-20,-18
1526903654244333,91,2,6,2,-2,0,-4,-26
1526903654244333,-14,-4,-7,-3,0,1,3,7
1526903654245330,42,-11,12,5,3,6,10,47
1526903654245330,40,13,-4,-6,-7,-8,-4,10
1526903654267271,-68,-14,-33,-8,-6,-7,-1,13
1526903654267271,-61,-29,20,-3,-1,-3,-5,5
1526903654268269,91,-21,-18,-3,-2,0,2,-14
1526903654268269,-10,49,28,11,8,7,13,34
1526903654290210,49,34,0,0,-1,-1,-7,-46
1526903654290210,52,-16,-10,-3,-2,-2,-4,8
1526903654291208,-116,-23,13,6,6,8,10,-29
1526903654291208,-50,-31,-35,-17,-16,-24,-43,-84
1526903654304173,78,18,21,8,7,14,34,86
1526903654304173,35,46,-3,-2,-4,-4,-16,-41
1526903654305171,-16,-41,0,0,2,2,-3,-20
1526903654305171,81,6,-1,-2,1,0,1,-30
1526903654327111,2,12,-19,-5,-4,-6,-6,6
1526903654327111,-102,-37,1,-3,0,-1,-6,-70
1526903654328109,101,42,18,9,6,9,17,93
1526903654328109,-62,-54,-20,-13,-9,-11,-25,-56
1526903654350050,30,22,16,4,3,4,3,12
1526903654350050,-4,43,-1,2,1,2,5,22
1526903654351048,50,-27,-7,-5,-5,-3,-2,-22
1526903654351048,-64,-57,-15,-5,-3,-6,-12,-51
1526903654364013,79,24,0,-10,-9,-11,-12,16
1526903654364013,-20,3,0,3,2,0,2,-1
1526903654365010,34,33,2,1,-1,-2,1,27
1526903654365010,45,71,29,13,7,10,20,36
1526903654387949,35,13,-21,-11,-6,-10,-22,-73
1526903654387949,19,-52,7,6,5,7,18,22
1526903654387949,60,98,25,7,6,9,17,69
1526903654387949,-85,-50,-12,-2,-4,-6,-6,27
1526903654409890,-128,-32,-1,-3,-3,-4,-11,-57
1526903654409890,33,-5,0,6,6,12,31,75
1526903654410888,19,0,-13,-7,-9,-12,-20,-88
1526903654410888,-24,12,6,4,5,6,14,67
1526903654424850,-32,28,21,10,9,8,15,54
1526903654424850,-32,-34,-9,0,-2,-4,-10,-45
1526903654424850,-128,-60,-11,-6,-3,-2,-3,-13
1526903654424850,46,1,-4,-4,-6,-6,-1,64
1526903654447789,-118,-81,-17,-9,-6,-5,-7,-28
1526903654447789,97,67,22,10,7,10,20,47
1526903654448786,-75,-105,-42,-27,-21,-30,-47,-79
1526903654448786,8,30,5,5,5,9,15,3
1526903654469730,75,-43,-4,-2,-1,-3,-4,6
1526903654469730,75,18,-9,-5,-4,-4,-1,49
1526903654470728,-74,-26,16,3,4,4,5,-1
1526903654470728,27,19,4,3,3,5,7,10
1526903654484690,-81,32,14,7,6,13,23,26
1526903654484690,-51,-60,-34,-21,-18,-25,-56,-104
1526903654485688,46,25,-5,-1,0,-3,-2,16
1526903654485688,-51,31,10,4,4,2,2,5
1526903654507628,42,8,21,8,6,9,13,-2
1526903654507628,18,12,-8,-5,-5,-3,4,14
1526903654508626,77,21,-13,-10,-9,-15,-20,42
1526903654508626,112,15,12,7,4,6,14,-17
1526903654529570,6,-1,-9,-4,-3,-1,-2,-6
1526903654529570,-60,18,3,2,0,-3,-13,-28
1526903654530567,125,10,3,2,3,5,5,-58
1526903654530567,-65,-10,-2,-2,-2,-5,-8,20
1526903654544530,-2,90,16,5,2,4,9,-8
1526903654544530,69,-22,-19,-8,-5,-5,-5,3
1526903654545527,-94,-14,-7,-6,-6,-8,-13,23
1526903654545527,80,35,4,-1,-1,1,5,25
1526903654567469,-112,-13,-6,-4,-3,-5,-12,-46
1526903654567469,7,-43,7,4,3,4,6,-16
1526903654568466,67,25,-8,-5,-6,-8,-12,-41
1526903654568466,58,-21,3,0,-1,3,8,36
1526903654590407,57,23,4,3,3,6,12,80
1526903654590407,-112,29,-11,-4,-5,-5,-6,-33
1526903654590407,-21,-65,-3,1,-1,-2,-3,36
1526903654590407,76,-9,3,0,2,4,8,5
1526903654603372,35,4,-2,0,-2,-4,-7,-16
1526903654603372,107,19,14,4,5,7,8,74
1526903654612348,-81,-17,-5,-1,1,5,9,-2
1526903654612348,-98,9,-1,-1,0,1,-12,-26
1526903654627308,-22,-45,-10,-5,-6,-7,-11,-50
1526903654627308,-71,-61,-21,-11,-9,-14,-25,-77
1526903654628306,-28,-34,2,4,3,2,-1,-1
1526903654628306,-4,7,-3,-3,0,-3,-4,5
1526903654650247,59,2,-1,1,1,1,5,35
1526903654650247,-46,34,14,5,5,5,26,-5
1526903654651245,98,34,0,2,3,12,-12,15
1526903654651245,-42,-57,-11,-3,-4,2,-8,-29
1526903654664210,-122,-18,-4,-1,-1,-3,-11,-18
1526903654664210,-3,20,7,4,3,1,18,-23
1526903654672189,-57,14,-2,-4,-4,-14,-4,-20
1526903654672189,46,28,7,2,1,14,21,34
1526903654687149,38,-7,-2,-2,-3,-10,-16,-14
1526903654687149,-5,14,9,6,0,1,2,20
1526903654688146,-6,-5,3,2,3,7,11,1
1526903654688146,-2,49,-2,-1,-1,-2,10,-19
1526903654710087,-50,-29,-1,1,3,5,10,41
1526903654710087,19,-53,-28,-17,-14,-16,-36,-31
1526903654711085,-32,29,10,2,0,-3,2,19
1526903654711085,10,-12,-4,-1,-3,-13,-11,6
1526903654724050,127,21,9,2,-2,-15,9,50
1526903654724050,127,-16,0,3,4,5,-4,44
1526903654732028,-35,-2,-2,-3,0,25,-1,-15
1526903654732028,11,-19,-3,1,-1,-5,3,-2
1526903654746989,-59,6,-3,-1,-2,4,3,-2
1526903654746989,-31,25,12,6,4,-3,23,18
1526903654747986,59,-7,-6,-5,-7,-21,-13,-2
1526903654747986,2,2,3,-1,-1,3,-4,4
1526903654769927,127,6,-6,-1,-1,11,-2,7
1526903654769927,117,22,5,3,1,-5,2,34
1526903654770925,9,21,1,1,1,5,5,-7
1526903654770925,-33,21,2,-2,-2,-9,-7,-26
1526903654783890,52,-19,-2,-1,1,3,2,-4
1526903654783890,-55,32,-7,-5,-6,-2,-6,0
1526903654791869,90,-13,9,4,3,5,9,24
1526903654791869,-70,-35,-6,-3,-2,0,-3,-11
1526903654806829,-51,0,0,2,0,1,0,-18
1526903654806829,-43,11,4,2,3,9,11,-9
1526903654807826,53,24,6,2,1,0,8,23
1526903654807826,98,-42,-18,-3,-4,-10,-13,-28
1526903654829767,8,16,9,-3,-1,2,4,-2
1526903654829767,2,-53,-5,-3,-4,-1,-3,-5
1526903654830765,-21,5,-4,-3,-1,-5,3,-13
1526903654830765,-36,6,-2,-2,-2,-4,-2,-19
1526903654843730,66,49,0,1,0,5,3,27
1526903654843730,86,45,7,4,6,10,5,50
1526903654851708,-59,-31,3,6,2,-2,-3,-6
1526903654851708,86,-5,4,0,0,3,-6,22
1526903654866668,44,17,0,-3,1,-3,9,21
1526903654866668,1,53,3,-1,-2,-1,2,8
1526903654867666,58,6,1,3,2,6,14,23
1526903654867666,-57,17,8,2,4,4,5,11
1526903654889607,-41,-53,-14,-5,-6,-8,-16,-30
1526903654889607,104,10,3,-1,2,5,5,28
1526903654890605,-20,18,7,5,1,-5,-2,-23
1526903654890605,27,23,-4,-3,-5,-9,-2,23
1526903654912546,30,-14,-10,-6,-4,11,-12,-52
1526903654912546,-112,-17,-4,-3,-3,-6,-23,-44
1526903654913544,4,-7,-4,-1,-2,-2,4,5
1526903654913544,-51,5,6,2,4,0,-1,18
1526903654926508,-107,-12,-7,0,-2,-16,0,-60
1526903654926508,6,-28,-2,-3,-5,-7,-5,5
1526903654927508,-60,-2,-2,0,-1,0,-7,-38
1526903654927508,55,14,8,6,5,8,13,34
1526903654950444,-81,-27,-11,-7,-3,0,-11,8
1526903654950444,-38,-15,-5,-1,-1,-3,11,6
1526903654950444,50,31,-3,-4,-5,0,-7,16
1526903654950444,-74,45,9,5,5,15,11,-15
1526903654972386,-12,-64,-9,-2,-2,-7,-2,-19
1526903654972386,21,16,9,2,3,7,7,19
1526903654973383,15,6,4,0,-2,2,-2,14
1526903654973383,51,-34,-4,0,0,-3,-2,10
1526903654987346,99,60,10,6,4,13,11,35
1526903654987346,-104,-3,-10,-4,-7,-18,-19,-58
1526903654987346,4,-1,2,0,0,-2,0,9
1526903654987346,38,-18,-12,-3,-4,1,1,7
1526903655010284,36,7,2,0,-2,-12,-1,1
1526903655010284,-54,-28,-4,-3,-3,-2,-11,-31
1526903655011282,8,-26,-11,-6,-2,-3,-4,10
1526903655011282,73,3,-2,-2,-5,-3,-3,-16
1526903655032226,68,7,7,3,4,4,12,31
1526903655032226,106,36,7,9,5,15,15,49
1526903655033224,-99,-35,-6,-6,-6,-9,-16,-23
1526903655033224,15,4,4,3,3,2,24,103
1526903655047186,7,11,-3,-1,-3,2,-10,-31
1526903655047186,-19,-34,-2,-3,-1,-1,-1,-2
1526903655048183,53,24,-2,3,4,0,8,28
1526903655048183,-42,-58,-5,-6,-4,-8,-21,-63
1526903655070124,65,12,4,0,-3,-1,11,51
1526903655070124,-26,-18,-16,-6,-2,-2,-3,-16
1526903655071122,103,23,12,2,1,4,9,-7
1526903655071122,-26,-5,-9,-4,-3,1,-30,-45
1526903655092066,-58,5,4,5,3,3,2,-2
1526903655092066,-17,15,9,1,2,-1,0,-18
1526903655093063,21,21,-1,1,-1,-3,7,6
1526903655093063,-4,-42,-15,-8,-5,-4,-4,-33
1526903655107026,-111,32,4,-2,-2,3,-4,-22
1526903655107026,127,-29,-16,-3,-1,1,-3,5
1526903655108023,85,12,1,-3,-6,-14,-2,28
1526903655108023,88,10,7,3,3,-1,-6,-52
1526903655129965,1,-12,-9,-4,-4,-4,-6,-14
1526903655129965,12,18,10,3,1,4,9,28
1526903655130962,-13,-3,-5,-1,-2,3,-6,-23
1526903655130962,40,43,7,3,3,1,5,26
1526903655152903,-48,-73,-18,-11,-7,-19,-15,-29
1526903655152903,45,25,3,1,1,16,8,-3
1526903655152903,64,5,7,1,1,3,3,-27
1526903655152903,48,10,1,-4,-2,-6,-4,-14
1526903655165868,113,50,3,7,10,11,13,39
1526903655165868,-58,-43,-14,-4,-8,-14,6,-23
1526903655174844,-16,8,20,3,-2,-3,-7,5
1526903655174844,-40,22,1,2,-1,4,21,29
1526903655189805,-42,-34,-4,-1,2,-1,-4,-8
1526903655189805,80,14,-2,-2,2,2,1,-1
1526903655190808,-43,-4,-10,-1,0,1,0,7
1526903655190808,10,-2,14,6,6,2,8,21
1526903655212743,113,24,-12,-10,-10,-5,-6,-7
1526903655212743,-73,-48,-3,-1,-2,-9,-34,-36
1526903655213741,91,-12,-7,-6,-2,2,-1,9
1526903655213741,4,-1,-1,2,-1,2,-5,-15
1526903655226705,-25,44,8,2,0,6,12,13
1526903655226705,-23,13,10,3,2,3,10,7
1526903655227703,-31,-27,-7,-1,2,-2,-3,-26
1526903655227703,-48,21,-2,1,0,4,14,78
1526903655249644,-13,-28,3,1,-1,-1,-4,0
1526903655249644,3,19,-4,-2,-3,-3,-1,-1
1526903655250642,-117,-28,-8,-2,-1,-3,1,46
1526903655250642,65,4,0,-2,-4,-1,4,-2
1526903655272583,-1,-4,-5,-4,-4,-8,-11,-1
1526903655272583,-56,-14,3,1,1,0,1,25
1526903655273581,36,27,6,0,3,4,10,8
1526903655273581,56,55,12,10,7,10,21,41
1526903655286546,25,-50,-18,-10,-10,-13,-16,21
1526903655286546,81,32,15,5,3,3,0,-6
1526903655287543,-70,-40,-11,-4,-3,-3,-4,-19
1526903655287543,-4,-25,1,-3,-2,-4,-4,10
1526903655310482,-26,55,-1,5,4,6,7,-8
1526903655310482,112,-11,2,-2,-1,-2,7,48
1526903655310482,94,29,13,7,3,4,-1,-8
1526903655310482,23,-83,-22,-10,-7,-12,-21,-14
1526903655332423,-64,10,4,1,1,0,2,-17
1526903655332423,-87,3,-9,-2,-3,-2,-1,-12
1526903655333421,19,10,4,2,1,1,-4,-16
1526903655333421,41,5,-6,0,-1,-1,-5,-69
1526903655346386,64,-15,-3,-5,-5,-6,-13,-12
1526903655346386,68,16,2,2,0,5,7,5
1526903655347383,-4,-35,-6,-1,-1,0,5,-4
1526903655347383,68,-56,-15,-9,-7,-11,-19,-51
1526903655370321,77,29,14,2,4,3,5,-10
1526903655370321,-56,31,11,3,0,2,1,-16
1526903655371319,24,16,-6,-2,-2,-3,-6,-19
1526903655371319,11,17,-6,-5,-4,-2,-5,15
1526903655392263,72,13,2,5,4,7,17,61
1526903655392263,-94,-56,-25,-16,-16,-22,-36,-72
1526903655393260,-67,27,7,4,3,5,7,-1
1526903655393260,35,55,14,5,3,5,12,71
1526903655407223,-128,-71,-10,-6,-7,-9,-17,-34
1526903655407223,65,20,2,3,1,2,9,9
1526903655407223,80,-4,-3,0,0,-1,1,8
1526903655407223,46,1,2,-2,-3,-1,3,-4
1526903655430162,-2,24,8,3,3,2,2,3
1526903655430162,-82,-30,-4,1,0,-3,-3,12
1526903655431159,41,57,15,6,6,6,18,26
1526903655431159,-116,-47,-19,-9,-7,-9,-19,15
1526903655452103,107,47,10,3,4,4,9,31
1526903655452103,70,20,0,-2,-2,-4,-5,-1
1526903655453100,-15,5,9,5,3,6,11,29
1526903655453100,-27,-38,-11,-5,-4,-2,-3,-28
1526903655467063,18,25,2,0,-3,-1,3,-5
1526903655467063,-44,-70,-13,-5,-4,-5,-11,-22
1526903655468060,65,13,-7,-4,-3,-1,-1,0
1526903655468060,-17,-23,-2,0,-1,-3,-11,-36
1526903655490001,-88,-47,-4,0,0,2,3,10
1526903655490001,127,30,-6,-2,-2,0,0,-7
1526903655490999,-128,-34,-15,-9,-7,-10,-14,-21
1526903655490999,-128,-5,-3,-1,3,-1,-3,-41
1526903655512940,59,18,8,4,2,2,7,14
1526903655512940,-94,27,15,5,5,8,13,17
1526903655512940,-40,-65,-26,-12,-11,-16,-24,-31
1526903655512940,-60,15,10,2,2,1,3,-10
1526903655525906,-1,5,1,-3,0,-4,-2,10
1526903655525906,52,-9,-3,-2,-2,-2,-1,-3
1526903655534882,73,15,1,0,0,-3,-12,-2
1526903655534882,15,34,13,5,2,4,8,18
1526903655549841,-40,-31,-8,-2,0,-1,-3,-27
1526903655549841,53,58,18,7,8,11,17,50
1526903655550839,15,-34,-8,-4,-4,0,3,9
1526903655550839,-36,18,4,-1,-1,1,6,27
1526903655572780,21,-77,-19,-6,-7,-5,-11,-8
1526903655572780,30,8,-3,-3,-3,-3,3,8
1526903655573778,-77,14,3,1,0,1,1,-12
1526903655573778,65,-34,-1,0,0,0,-3,-10
1526903655586743,-98,36,17,7,5,8,10,-9
1526903655586743,-51,-73,-24,-8,-6,-2,-17,-58
1526903655594721,89,-10,1,-2,-4,-6,2,35
1526903655594721,118,57,7,4,2,1,5,34
1526903655608684,-84,-38,-14,-6,-5,-8,-14,-44
1526903655608684,7,28,2,-2,-2,-2,-9,-28
1526903655617661,29,18,6,5,5,4,5,17
1526903655617661,127,50,4,-1,1,3,8,6
1526903655632620,47,-10,-4,-3,-1,0,0,6
1526903655632620,-97,0,-8,-8,-10,-18,-16,-21
1526903655633618,45,-20,-6,0,-1,5,8,0
1526903655633618,-53,7,-8,-8,-10,-10,-16,-11
1526903655646583,35,14,-1,1,2,4,2,5
1526903655646583,41,-10,-9,-3,-2,2,1,10
1526903655654561,3,25,10,2,1,-5,-2,4
1526903655654561,-68,-25,-4,-1,1,-1,-2,-17
1526903655669521,66,24,3,0,-3,-7,0,31
1526903655669521,55,28,12,6,6,10,10,16
1526903655670519,103,-31,-6,-1,-1,3,12,56
1526903655670519,-50,-19,-7,-4,-5,-12,-21,-60
1526903655692460,20,-3,3,0,-3,-5,-5,-13
1526903655692460,25,15,12,9,6,4,14,17
1526903655693458,28,60,9,3,2,5,7,8
1526903655693458,6,-91,-27,-10,-7,-5,-9,0
1526903655706423,13,6,-3,-5,-4,-7,-13,-31
1526903655706423,31,15,1,1,-1,-1,0,29
1526903655715399,42,-2,3,1,1,1,-4,-19
1526903655715399,-79,1,4,3,3,0,-1,-15
1526903655730359,51,10,-4,0,0,5,11,22
1526903655730359,39,15,2,-1,1,2,3,-5
1526903655731356,-85,2,-2,0,-2,-4,-11,-52
1526903655731356,-17,-56,-22,-10,-9,-11,-24,-50
1526903655752300,26,21,8,2,1,0,7,24
1526903655752300,26,11,3,2,0,1,2,15
1526903655754295,-44,3,1,-1,-1,2,3,-5
1526903655754295,36,26,5,2,2,4,6,10
1526903655766263,37,13,4,2,2,1,-4,30
1526903655766263,-94,-14,-3,-2,-3,-6,13,-6
1526903655775239,33,-15,-4,-1,-1,1,-12,-32
1526903655775239,-54,-20,-14,-9,-6,-9,-12,-10
1526903655788204,-5,-19,-3,-2,0,9,1,-18
1526903655788204,34,10,9,4,0,-6,-8,27
1526903655798177,-53,41,-1,-5,-6,-13,-13,-29
1526903655798177,73,1,8,7,4,4,16,22
1526903655812140,-65,15,0,-1,-1,10,1,-1
1526903655812140,7,-37,-8,-6,-1,-7,0,3
1526903655814135,-56,-20,-6,-4,-3,-2,-5,2
1526903655814135,97,71,23,12,8,10,19,53
1526903655826103,-123,-34,-28,-18,-16,-23,-27,-72
1526903655826103,46,-15,10,6,5,10,8,24
1526903655835079,7,-6,-10,-4,-1,-6,-3,2
1526903655835079,48,57,16,4,3,5,8,29
1526903655849041,54,-7,-2,1,1,2,5,-3
1526903655849041,-37,-19,-10,-6,-6,-8,-13,-15
1526903655858018,27,-12,-2,-1,0,1,0,-4
1526903655858018,-12,-19,-11,-6,-7,-8,-20,-49
1526903655872977,31,18,9,1,2,-1,5,12
1526903655872977,-6,-19,-1,2,1,2,1,15
1526903655873975,83,64,5,-2,-3,-1,-4,4
1526903655873975,68,-44,-7,0,-1,4,5,26
1526903655894919,81,0,3,2,2,-2,2,7
1526903655894919,79,48,9,2,1,4,9,21
1526903655896913,-90,-28,-2,-1,0,2,-2,-14
1526903655896913,-46,6,-3,-2,-2,-2,3,15
1526903655908881,-24,-23,-1,0,0,-1,1,15
1526903655908881,-2,19,2,2,1,3,0,4
1526903655917858,-1,-5,-2,-1,-3,-1,-2,6
1526903655917858,14,-10,-4,-1,-1,0,-3,-22
1526903655932818,-78,-16,6,5,3,3,5,6
1526903655932818,-39,9,-12,-8,-3,-1,-5,3
1526903655933815,-85,-61,-11,-5,-3,-7,-12,-67
1526903655933815,31,-13,-1,-2,-3,-3,-1,14
1526903655954759,19,14,-10,-9,-8,-6,-15,6
1526903655954759,-82,-35,-12,-2,0,-4,-14,-76
1526903655956754,62,2,5,0,-1,-3,2,44
1526903655956754,-49,11,-1,-2,0,2,1,10
1526903655968721,12,22,6,2,0,2,8,11
1526903655968721,15,-24,-4,0,-1,-2,-2,-14
1526903655977697,-112,-40,-12,-3,-3,-4,-9,-34
1526903655977697,77,26,14,4,6,9,20,23
1526903655992657,-51,-24,-8,-4,-4,-6,-9,-1
1526903655992657,-4,32,7,1,0,2,5,21
1526903655994652,-12,-26,-3,2,2,6,4,6
1526903655994652,-106,7,2,-1,0,0,2,-8
1526903656015596,48,-5,-2,0,0,-2,-4,-20
1526903656015596,58,19,0,0,-1,0,0,3
1526903656016593,-19,-7,4,2,1,2,5,19
1526903656016593,-57,7,-3,0,-2,-2,-2,-15
1526903656028561,77,15,5,3,3,4,10,35
1526903656028561,49,8,0,-1,-2,-2,-4,1
1526903656037538,127,-25,-4,-1,-1,-1,7,10
1526903656037538,35,6,6,3,1,3,6,39
1526903656052497,88,58,6,4,1,4,7,3
1526903656052497,-7,-30,-5,-5,-4,-6,-11,-12
1526903656054492,29,6,1,-2,0,-3,-6,-25
1526903656054492,24,10,2,4,0,-1,-2,14
1526903656075436,5,8,14,8,6,8,16,1
1526903656075436,-56,-35,-19,-10,-10,-12,-17,-15
1526903656076433,-13,18,-2,-2,-2,-2,-8,-5
1526903656076433,54,6,-5,1,2,0,1,-21
1526903656088401,28,27,9,-1,0,5,16,60
1526903656088401,80,-10,0,-2,-3,-6,-16,-16
1526903656097377,52,2,-1,0,0,1,-2,-33
1526903656097377,79,-2,0,-3,-2,-3,-6,28
1526903656112337,-35,21,-1,4,2,1,13,-12
1526903656112337,-15,-33,-6,-4,-7,1,-15,-36
1526903656114332,32,26,6,2,1,4,7,28
1526903656114332,-94,-26,-11,-5,-3,-3,-7,-28
1526903656135276,104,-9,0,0,-2,-4,-8,-20
1526903656135276,-17,37,8,6,3,1,10,6
1526903656136273,83,4,3,0,1,1,5,28
1526903656136273,-16,-17,-2,-2,0,-2,-5,2
1526903656148241,-81,-19,-3,-1,1,-2,-8,-26
1526903656148241,68,11,8,4,3,1,11,43
1526903656158215,20,19,-11,-8,-7,-4,-10,-2
1526903656158215,84,-14,1,1,0,-1,3,12
1526903656172177,40,6,0,-3,-5,-5,-14,-46
1526903656172177,120,-8,-2,4,5,6,9,25
1526903656174172,-30,2,3,1,2,1,5,15
1526903656174172,49,36,16,7,3,6,12,20
1526903656195116,-108,-38,-9,-4,-5,-6,-14,-39
1526903656195116,47,2,-7,1,1,5,13,29
1526903656197111,-31,-31,-12,-2,-3,-5,2,-24
1526903656197111,52,42,28,4,3,4,2,-6
1526903656209078,52,25,-4,-4,-2,-6,-7,22
1526903656209078,-94,3,6,3,2,2,2,-12
1526903656218055,64,13,6,4,0,1,6,23
1526903656218055,-5,-3,-22,-7,-5,-3,-7,-27
1526903656233014,-65,-91,-27,-12,-8,-12,-22,-44
1526903656233014,50,10,10,2,1,0,4,23
1526903656234012,81,45,12,6,4,4,5,20
1526903656234012,39,-29,-8,-4,0,0,4,3
1526903656254956,15,43,3,-1,-1,-1,4,26
1526903656254956,-128,-66,-12,-3,-1,-1,-1,-33
1526903656256951,3,4,6,-2,-3,-4,-2,3
1526903656256951,-102,-1,-3,-2,-2,-3,-4,-12
1526903656268918,20,-13,-3,-2,-2,-1,0,-1
1526903656268918,-12,19,0,0,1,0,1,12
1526903656277895,-1,22,1,0,2,2,5,17
1526903656277895,33,-13,-9,-3,-6,-6,-5,-12
1526903656292854,-60,-2,9,6,4,6,9,20
1526903656292854,76,6,-5,-4,-5,-9,-13,-31
1526903656293852,-73,-79,-18,-4,-1,-2,-5,-32
1526903656293852,-62,-39,-20,-14,-11,-17,-30,-43
1526903656314796,27,29,0,1,0,0,5,20
1526903656314796,83,48,16,5,3,6,13,31
1526903656316791,40,-2,-2,-1,-4,-3,-6,-6
1526903656316791,65,48,4,8,8,9,14,1
1526903656328758,43,-45,7,-4,-3,-5,-11,0
1526903656328758,77,30,-16,-6,-7,-9,-15,-52
1526903656337735,-109,22,2,2,2,1,2,8
1526903656337735,-126,50,27,10,6,12,24,30
1526903656352694,-41,-55,-22,-8,-9,-9,-11,-35
1526903656352694,-39,-3,2,-1,0,0,1,28
1526903656354689,94,6,8,2,3,4,10,9
1526903656354689,74,-3,-17,-7,-5,-7,-10,2
1526903656374635,14,54,11,0,4,3,6,21
1526903656374635,-69,-75,-15,-4,0,-3,-9,-61
1526903656376631,53,58,23,12,6,9,15,29
1526903656376631,-109,-34,-13,-8,-7,-9,-18,-41
1526903656388598,84,-11,-12,0,2,4,5,-5
1526903656388598,40,28,9,1,1,3,5,-3
1526903656397575,-36,3,-7,-7,-3,-6,-9,17
1526903656397575,-9,-4,8,5,-2,1,0,-23
1526903656412534,79,28,-5,-1,-1,0,2,12
1526903656412534,-48,11,9,4,2,5,12,46
1526903656414529,-80,-20,-2,4,5,3,10,9
1526903656414529,-11,-42,-7,-8,-3,-2,0,15
1526903656435473,-102,-43,-9,-3,-2,-6,-22,-19
1526903656435473,27,-14,0,-1,0,0,10,30
1526903656436470,-61,-25,-14,-8,-7,-8,-18,-80
1526903656436470,62,-1,3,-3,1,3,10,-1
1526903656448438,-6,42,13,6,4,7,11,5
1526903656448438,41,0,-4,-5,-5,-7,-14,-10
1526903656457414,76,-17,-2,-1,-2,0,-7,-41
1526903656457414,108,26,-3,1,0,0,0,35
1526903656472375,40,0,-6,-1,-2,0,1,-34
1526903656472375,-128,-27,-7,-4,-2,-3,-2,-20
1526903656474369,127,31,9,2,-1,3,8,14
1526903656474369,67,5,2,3,3,-2,-7,10
1526903656495313,-61,-49,-17,-12,-11,-13,-15,-9
1526903656495313,40,7,-2,0,-3,-3,-7,-7
1526903656496311,-89,4,4,3,3,1,3,34
1526903656496311,-5,-9,3,-1,1,4,8,18
1526903656508278,-94,-60,-12,-3,-2,-4,-9,-46
1526903656508278,2,28,1,1,1,4,12,39
1526903656517254,29,-18,-11,-7,-7,-7,-12,-2
1526903656517254,-66,-1,-2,2,-1,0,3,-7
1526903656532214,-28,1,10,3,7,7,15,32
1526903656532214,-61,-22,-5,-1,-1,-5,-7,-9
1526903656534209,35,-6,-6,-5,-1,0,-9,-17
1526903656534209,-49,-6,0,2,1,-6,1,-3
1526903656555153,-17,47,15,5,2,9,10,22
1526903656555153,40,20,11,3,2,1,-8,-19
1526903656557148,24,9,-8,-2,-2,-1,-2,12
1526903656557148,69,-26,-2,-2,-2,-2,-1,-8
1526903656569115,-15,0,-4,-2,-4,-5,-6,-12
1526903656569115,-9,19,10,3,2,3,10,8
1526903656578092,-114,-33,-10,-5,-2,7,3,-26
1526903656578092,-45,-43,-28,-18,-14,-11,-62,-76
1526903656593051,29,-20,-1,0,-4,-23,6,39
1526903656593051,-29,-21,-1,-2,0,9,2,34
1526903656594049,3,23,3,-1,-1,-3,7,42
1526903656594049,-74,5,1,3,1,9,-1,-26
1526903656614993,50,13,5,3,2,7,4,9
1526903656614993,-12,-25,-8,-4,-6,-13,-13,-34
1526903656616988,24,13,14,9,5,9,1,-5
1526903656616988,96,14,3,2,3,6,31,26
1526903656628955,-42,-1,-8,-6,-5,-8,-13,-30
1526903656628955,-1,24,9,5,4,6,11,11
1526903656637932,49,-2,0,-1,-2,-2,-2,6
1526903656637932,-16,-5,3,1,1,-3,1,7
1526903656651894,124,3,4,3,2,9,6,11
1526903656651894,-61,-13,-12,-8,-6,-11,-7,-26
1526903656658876,-88,-5,-6,-2,-1,-4,-8,-9
1526903656658876,-113,-46,-5,-1,-2,-4,-5,-20
1526903656674833,-22,39,1,-3,-3,-3,-10,-20
1526903656674833,50,-17,-11,-4,-3,2,-2,15
1526903656676828,83,-32,2,2,1,1,5,-10
1526903656676828,124,52,4,0,-3,-5,10,29
1526903656688795,-101,-13,0,2,2,5,-4,-24
1526903656688795,61,-6,-5,-4,-2,-2,-3,-7
1526903656697772,-19,-6,-3,-2,-2,-6,-4,-3
1526903656697772,25,27,10,5,5,7,12,17
1526903656711734,42,-12,4,1,3,7,11,29
1526903656711734,-34,-2,-7,-6,-4,-6,-11,-10
1526903656718716,-42,-5,0,0,1,-1,5,8
1526903656718716,83,31,7,5,3,1,1,16
1526903656734673,-4,10,-2,-1,-1,-3,2,4
1526903656734673,-46,6,6,5,2,6,10,-1
1526903656736668,-15,-18,-4,-4,-5,-14,-7,9
1526903656736668,-69,-15,-14,-5,-3,14,-1,-1
1526903656748635,63,18,3,1,1,5,0,10
1526903656748635,72,23,13,6,2,3,-1,14
1526903656757612,26,11,-4,-2,0,-4,-9,-33
1526903656757612,-56,-29,-14,-7,-7,-13,-13,-8
1526903656771574,-31,-29,1,-1,2,3,6,-2
1526903656771574,-70,55,13,3,7,10,8,9
1526903656780551,-78,-64,-21,-11,-10,-12,-24,-21
1526903656780551,-35,12,7,2,1,-1,4,-6
1526903656795510,5,10,3,3,2,-2,5,22
1526903656795510,-43,19,10,8,5,6,11,23
1526903656796508,20,15,-11,-8,-6,-4,0,12
1526903656796508,-82,-68,-15,-9,-8,-13,-16,-48
1526903656817451,-23,-25,-10,-8,-8,-4,-13,-19
1526903656817451,127,31,13,5,4,6,15,40
1526903656819447,-91,-33,-5,-2,-1,-1,-2,-24
1526903656819447,86,47,13,8,8,4,6,12
1526903656831414,83,-10,0,1,0,1,2,33
1526903656831414,32,-20,-11,-7,-8,-12,-7,-5
1526903656838395,26,20,3,3,0,7,5,7
1526903656838395,-78,-3,-1,-3,-2,-4,-9,-19
1526903656855350,-58,-8,2,0,2,-1,5,6
1526903656855350,11,3,-3,-2,0,-4,-2,-21
1526903656856348,-50,25,7,2,0,-1,1,-9
1526903656856348,-23,-14,1,2,0,-5,11,16
1526903656877291,46,1,-7,-3,0,12,-10,8
1526903656877291,-96,-40,-13,-6,-5,-6,-11,-40
1526903656879287,105,12,15,7,5,4,6,14
1526903656879287,-13,-1,-8,-4,-3,-4,-6,-6
1526903656892252,80,10,7,5,2,1,14,45
1526903656892252,-20,-29,-11,-8,-4,-6,-8,-19
1526903656899233,117,8,7,4,3,5,7,37
1526903656899233,78,23,7,2,1,3,5,16
1526903656915190,-6,-2,-2,-1,-2,-5,-3,-6
1526903656915190,11,5,1,-2,-1,2,6,12
1526903656917185,35,-14,-2,-1,1,6,3,11
1526903656917185,26,11,4,-2,-2,-5,0,8
1526903656937131,-62,16,-2,-2,-2,-8,-2,-25
1526903656937131,41,-33,-10,-6,-5,1,-11,-2
1526903656939126,30,9,0,-1,0,2,-4,-43
1526903656939126,-55,13,2,-1,-2,-2,-8,-13
1526903656951094,16,-31,0,0,1,5,14,31
1526903656951094,56,13,10,6,5,5,12,14
1526903656960071,-48,-24,-10,-6,-5,-13,-7,3
1526903656960071,126,15,7,3,0,1,-3,-6
1526903656975030,97,14,0,1,0,-1,4,26
1526903656975030,84,16,2,1,2,4,6,7
1526903656977025,-114,5,6,2,1,4,8,6
1526903656977025,-3,-7,-4,-2,1,-2,-1,-11
1526903656997969,27,2,-4,-4,-6,-6,-11,-12
1526903656997969,64,31,2,1,-1,-2,-3,5
1526903656998967,-96,-17,-11,-7,-2,-2,-9,-15
1526903656998967,-21,25,2,-1,-1,0,9,0
1526903657010934,-43,-4,-1,-1,0,0,-1,-9
1526903657010934,-9,-6,2,2,1,3,4,2
1526903657019910,-74,-8,-9,-6,-8,-17,-16,-25
1526903657019910,7,-36,0,1,3,1,8,17
1526903657034870,17,1,-10,-2,-2,8,-7,-9
1526903657034870,-39,-10,6,-2,-1,-11,0,5
1526903657036865,38,23,7,4,3,11,6,-5
1526903657036865,-55,-13,-4,-3,-1,4,-8,1
1526903657057809,42,23,1,0,-3,-9,2,14
1526903657057809,-17,-18,-1,2,3,6,3,-29
1526903657058806,-49,-30,-9,-5,-6,-8,1,56
1526903657058806,87,25,-10,-5,-5,-6,-5,-7
1526903657070774,7,-26,16,1,3,1,3,5
1526903657070774,-38,74,4,3,2,5,8,20
1526903657080747,-40,-21,-4,-1,3,3,0,-33
1526903657080747,-34,-76,-7,-7,-7,-9,-15,-32
1526903657094710,-12,-3,-13,-2,-2,-2,-2,-10
1526903657094710,-69,19,14,1,-1,1,1,7
1526903657096705,111,-12,-6,-6,-5,-5,-4,-19
1526903657096705,-39,-7,-8,-3,-4,-1,-3,13
1526903657117648,2,12,5,0,-1,-3,0,8
1526903657117648,9,0,-13,-1,0,-2,-7,-11
1526903657119644,97,-26,-10,-7,-4,-4,-4,11
1526903657119644,55,20,9,1,2,5,12,41
1526903657131611,61,10,0,-1,1,8,-4,-12
1526903657131611,-48,-16,-2,-1,0,-6,-1,1
1526903657140587,-14,21,11,10,4,4,18,23
1526903657140587,53,32,11,1,0,-2,-5,-4
1526903657155547,0,5,-1,3,2,7,12,41
1526903657155547,127,-26,-5,-5,-5,-3,-11,-61
1526903657156545,-47,1,-2,-3,-3,1,-9,-6
1526903657156545,38,9,-3,0,1,1,5,7
1526903657177489,3,34,5,1,0,0,0,-16
1526903657177489,-70,7,2,-2,1,0,-8,-15
1526903657179483,-7,-27,-13,-7,-7,-11,-9,-19
1526903657179483,24,22,10,3,-2,2,-1,-1
1526903657191451,-99,-21,-6,-3,-2,-4,-2,-4
1526903657191451,79,-14,-4,-3,-3,-4,3,25
1526903657200428,25,19,2,0,3,2,2,7
1526903657200428,26,37,9,6,5,7,10,21
1526903657215387,28,21,0,-1,-1,-5,-3,-3
1526903657215387,-25,-49,-10,-4,-7,-5,-14,-45
1526903657216385,126,20,4,3,4,5,14,19
1526903657216385,-91,-31,-13,-9,-5,-10,-19,-66
1526903657237329,-46,22,3,2,2,0,4,12
1526903657237329,94,29,10,4,4,7,12,32
1526903657239323,-29,5,21,8,6,8,9,36
1526903657239323,-113,-74,-41,-15,-11,-12,-20,-47
1526903657251291,-9,-3,3,0,-2,-2,-6,-36
1526903657251291,-124,-21,-3,-3,0,-1,1,-4
1526903657260267,94,11,2,-1,-4,-5,-6,-1
1526903657260267,82,6,7,6,5,6,13,45
1526903657275227,-19,69,17,6,3,4,9,-26
1526903657275227,69,26,-8,-3,-4,-3,-7,23
1526903657276225,55,-26,4,1,2,4,12,20
1526903657276225,34,0,2,4,4,3,11,-1
1526903657297169,17,-22,-3,-3,-1,-3,-4,37
1526903657297169,-32,14,-2,-2,-5,-4,-11,-45
1526903657299164,-87,68,-6,0,0,-3,-13,-42
1526903657299164,84,-67,-4,1,-1,4,15,55
1526903657311131,-100,-60,-15,-8,-5,-10,-7,-25
1526903657311131,-18,8,0,0,-1,-2,-7,-29
1526903657320108,-128,-31,-17,-7,-5,-6,-13,-34
1526903657320108,14,60,36,16,15,18,32,59
1526903657335067,-10,-39,-33,-18,-18,-18,-32,-69
1526903657335067,-128,-100,-7,-1,1,1,5,-1
1526903657337062,127,26,2,-2,0,-1,4,35
1526903657337062,68,45,13,2,1,4,6,38
1526903657358006,98,18,0,3,1,-1,-6,-24
1526903657358006,-21,-7,2,1,2,3,2,-22
1526903657359003,13,-40,-14,-9,-9,-13,-16,21
1526903657359003,-127,-12,-16,-7,-5,-9,-18,-29
1526903657370971,20,-28,1,-3,0,1,-2,0
1526903657370971,82,-3,-17,-9,-9,-15,-19,5
1526903657379947,-70,74,11,6,6,5,8,-6
1526903657379947,6,-1,-7,-1,0,3,7,6
1526903657394907,-91,13,0,-2,-3,-2,-3,17
1526903657394907,116,39,17,9,7,10,15,60
1526903657396902,24,-19,-8,-4,-3,-2,-11,-62
1526903657396902,17,-17,-7,-5,-6,-8,-11,2
1526903657417846,43,-9,11,7,6,7,12,-8
1526903657417846,-31,-48,-41,-15,-12,-12,-14,14
1526903657418843,-18,37,18,7,4,8,16,2
1526903657418843,21,16,1,-1,-3,-1,-1,-1
1526903657430811,-16,-83,-14,-5,-2,-3,-4,-28
1526903657430811,-23,-8,5,1,-1,-1,-9,-40
1526903657439787,76,-17,-13,-7,-10,-6,-9,16
1526903657439787,-89,-34,-1,0,0,-4,-9,-33
1526903657454747,-26,15,-14,-7,-6,-10,-10,-15
1526903657454747,53,44,13,2,0,0,4,-6
1526903657456742,15,-34,1,4,4,4,10,13
1526903657456742,-38,-16,-6,-5,-4,-5,-2,-32
1526903657477686,14,50,17,8,7,9,11,-5
1526903657477686,-31,-16,4,3,4,7,14,62
1526903657479681,-9,-12,-15,-8,-8,-12,-22,-31
1526903657479681,121,41,9,1,2,1,1,38
1526903657491648,58,-34,-10,-3,-1,0,3,45
1526903657491648,-27,7,5,4,2,5,0,-12
1526903657500625,-49,-1,6,2,1,-3,14,-15
1526903657500625,29,-22,-7,-3,-4,-1,-2,-7
1526903657514587,-40,13,5,3,0,1,-7,-21
1526903657514587,80,-39,-4,-4,-4,-12,-6,25
1526903657516582,-44,43,9,4,3,4,-3,18
1526903657516582,9,-26,-1,0,1,-7,2,-18
1526903657537526,-54,53,4,-5,-4,0,6,9
1526903657537526,-91,-24,-8,-3,-1,7,-8,-5
1526903657539521,-109,-29,-3,0,-1,1,5,-20
1526903657539521,-40,8,-14,-7,-6,-9,-13,14
1526903657551488,96,26,11,6,3,2,8,14
1526903657551488,-51,-2,4,5,1,1,7,-1
1526903657560464,-16,23,8,5,3,5,9,67
1526903657560464,-22,-14,-3,0,-2,5,1,-8
1526903657575424,58,8,2,2,3,4,-1,22
1526903657575424,52,-39,-9,-7,-6,-7,-3,-32
1526903657576422,89,48,9,5,4,8,5,49
1526903657576422,-94,29,6,2,4,1,9,-8
1526903657597366,26,-24,-1,1,-1,-1,-5,-16
1526903657597366,-11,21,0,-5,-2,0,0,9
1526903657599361,71,-1,11,6,2,-1,5,8
1526903657599361,48,19,-8,-6,-5,-1,-14,-36
1526903657611328,11,-30,-10,-6,-5,-7,-4,-1
1526903657611328,-30,23,2,1,0,1,-2,16
1526903657620305,74,-20,-12,-6,-9,-5,-13,-34
1526903657620305,-22,0,3,2,1,0,0,14
1526903657635264,-6,-29,-5,-2,2,-2,5,-13
1526903657635264,40,46,6,3,-1,1,-3,-23
1526903657636262,-102,-78,-13,-5,-4,-4,-8,-9
1526903657636262,13,35,-6,-6,-7,-5,-7,-3
1526903657657206,-78,9,8,4,2,-5,5,21
1526903657657206,50,25,4,0,3,7,2,6
1526903657659200,-65,-14,4,3,5,9,11,-8
1526903657659200,-4,-5,-4,0,-1,3,1,6
1526903657671168,-1,6,5,2,3,5,3,33
1526903657671168,-18,-7,1,-1,0,-4,10,26
1526903657680145,5,19,-8,-7,-3,1,-6,-25
1526903657680145,-64,-110,-8,-4,-3,-8,-9,0
1526903657694107,12,51,9,3,-1,1,1,5
1526903657694107,-87,2,5,3,0,7,1,-26
1526903657701088,80,19,4,3,4,-6,6,54
1526903657701088,83,29,2,3,2,3,5,4
1526903657718043,-128,-9,-16,-5,-6,-4,-9,-34
1526903657718043,-2,-3,1,-2,-1,-2,-1,11
1526903657719041,-110,-7,0,-3,-4,0,-4,-30
1526903657719041,-60,13,2,2,-2,-7,-14,-36
1526903657731008,127,34,3,6,5,6,11,39
1526903657731008,94,-17,-18,-11,-7,-10,-21,-19
1526903657739984,-6,-20,-2,-3,-1,-4,-4,-2
1526903657739984,65,4,-4,-5,-4,-4,-5,-5
1526903657753947,-29,4,7,-1,1,1,-1,-40
1526903657753947,-27,0,2,4,3,0,6,0
1526903657760928,4,29,3,3,1,6,6,3
1526903657760928,-49,14,5,0,2,1,1,-18
1526903657777883,-97,-41,-10,-5,-4,2,-2,-7
1526903657777883,-20,-17,-3,-3,-3,-4,4,-16
1526903657778880,92,-20,3,3,4,0,-4,20
1526903657778880,-28,1,-6,-6,-5,1,0,7
1526903657799824,-61,-8,-4,-5,-4,-6,-12,-15
1526903657799824,-125,-20,-1,0,0,-6,4,-8
1526903657801819,-14,14,-2,-2,-3,-2,0,-3
1526903657801819,42,16,4,3,2,2,8,30
1526903657814784,62,-22,0,0,-1,-5,3,39
1526903657814784,87,5,-8,-5,-4,16,-10,-14
1526903657820768,-24,-4,-4,-2,-5,-25,2,-16
1526903657820768,-15,19,5,3,3,3,5,4
1526903657837723,-74,-23,-4,-2,-3,-2,-4,-36
1526903657837723,-17,2,6,3,2,4,4,6
1526903657839718,9,-8,-5,-2,-1,-5,-7,-5
1526903657839718,66,1,1,1,1,19,9,-4
1526903657859664,-7,3,1,-1,-2,-5,-4,-12
1526903657859664,-68,-29,-5,-2,0,-3,-2,5
1526903657861659,-27,-2,-1,-2,-2,0,-5,-26
1526903657861659,-4,12,5,2,2,-9,-3,9
1526903657874624,11,24,5,1,1,6,0,1
1526903657874624,109,34,14,8,6,5,19,67
1526903657881605,-47,-63,-41,-20,-14,-18,-37,-57
1526903657881605,34,-14,2,4,2,5,14,50
1526903657897563,-39,20,0,-5,-3,-1,-9,-19
1526903657897563,103,26,6,2,0,-5,-1,13
1526903657899558,-27,16,9,6,4,14,17,29
1526903657899558,-32,-6,2,-2,-3,1,-3,-8
1526903657920502,67,3,0,2,0,2,5,13
1526903657920502,57,15,8,5,4,2,13,60
1526903657921499,-76,-22,-17,-10,-11,-7,-17,-37
1526903657921499,-109,-11,-5,-4,-6,-8,-12,-47
1526903657934464,2,12,12,7,6,5,10,29
1526903657934464,40,-13,-9,-3,-4,-8,-11,-22
1526903657941445,-6,-1,1,1,1,4,6,29
1526903657941445,56,31,13,5,5,1,4,-25
1526903657957403,98,-23,-6,-4,-5,-2,-6,40
1526903657957403,60,55,1,-1,-1,-1,-1,-11
1526903657959398,-54,-57,-1,0,-1,-1,-2,-29
1526903657959398,72,6,-6,-2,-4,-6,-8,-2
1526903657980341,16,9,2,2,1,2,4,9
1526903657980341,-66,-13,-12,-8,-9,-12,-28,-54
1526903657981339,9,22,5,2,3,7,12,49
1526903657981339,-84,-4,3,2,3,1,2,1
1526903657994304,55,-8,-7,-5,-6,-5,-1,4
1526903657994304,-128,-8,0,-3,0,-4,-4,-25
1526903658001285,127,5,3,0,1,1,0,-2
1526903658001285,-20,-38,-13,-6,-6,-13,2,42
1526903658017243,27,15,3,0,2,4,-3,1
1526903658017243,37,24,4,5,2,2,11,13
1526903658019238,-37,-19,4,4,2,1,-1,-1
1526903658019238,88,12,2,1,1,7,1,1
1526903658040181,-16,-11,-11,2,0,0,-1,-12
1526903658040181,-20,-11,10,-1,0,4,12,29
1526903658042176,44,19,-4,-4,-6,-10,-8,6
1526903658042176,32,10,2,2,1,0,-5,-38
1526903658054144,-92,-45,-16,-6,-4,-8,-10,-23
1526903658054144,-10,-17,2,1,2,4,6,-17
1526903658063120,4,45,11,4,3,6,11,22
1526903658063120,-20,-3,-2,-3,-3,-2,-3,43
1526903658077083,38,-9,-6,-2,0,3,3,-11
1526903658077083,-12,-24,1,2,1,-1,-6,-32
1526903658079078,127,79,13,1,-3,3,8,40
1526903658079078,-91,-48,-15,-7,-5,-5,-6,-10
1526903658100021,-18,-19,-10,-9,-8,-12,-21,-70
1526903658100021,77,18,-3,-1,-2,-4,4,23
1526903658102016,-70,4,6,2,4,4,5,1
1526903658102016,-75,7,2,3,3,4,1,-6
1526903658113984,100,15,12,4,2,3,11,26
1526903658113984,-128,-38,-16,-6,-6,-6,-13,-29
1526903658122960,55,13,-6,1,1,4,-1,-35
1526903658122960,59,31,6,-1,-2,-2,-9,-8
1526903658137920,-44,-52,-16,-6,-3,-6,-7,-38
1526903658137920,127,27,29,6,2,4,9,36
1526903658138918,4,-27,-3,0,1,0,3,1
1526903658138918,41,34,2,0,1,5,8,3
1526903658159861,24,-3,-4,0,2,1,0,6
1526903658159861,-39,21,-16,-7,-3,0,-7,16
1526903658161856,-2,4,10,5,4,4,9,6
1526903658161856,-21,14,-1,-6,-5,-6,-12,-46
1526903658173824,-58,-35,-10,-6,-5,-4,-3,14
1526903658173824,4,9,1,1,3,2,2,-17
1526903658182800,0,12,-3,1,1,0,-2,-10
1526903658182800,127,-41,-7,2,1,3,15,60
1526903658197760,-85,27,11,0,-4,-5,-10,-20
1526903658197760,69,15,-1,0,-1,-1,-3,-17
1526903658198758,37,-1,2,-5,-2,0,-7,1
1526903658198758,25,-11,2,1,1,1,7,28
1526903658220699,70,-8,-9,1,1,2,2,-14
1526903658220699,-65,-37,3,0,-2,-2,-7,-19
1526903658226683,50,51,7,3,2,1,-2,-22
1526903658226683,46,-35,-3,0,-1,-1,7,17
1526903658233664,42,7,4,0,-1,0,-6,10
1526903658233664,-90,-30,-19,-5,-5,-4,1,-11
1526903658242641,-128,4,-3,0,0,1,2,-3
1526903658242641,69,-17,0,-1,2,-6,-4,6
1526903658257600,20,38,10,1,1,2,-2,-13
1526903658257600,-73,-14,-2,0,2,5,10,-2
1526903658259595,-20,-41,-16,-8,-9,-13,-27,-80
1526903658259595,-95,-12,-3,-4,-5,-6,-13,-58
1526903658280539,-57,3,5,4,2,2,9,20
1526903658280539,-51,-18,-5,-5,-4,-9,-14,-25
1526903658281536,86,-14,5,7,8,12,23,42
1526903658281536,1,22,-4,-1,-2,-1,-5,-22
1526903658293504,127,24,2,-2,-2,-6,-2,11
1526903658293504,15,9,-8,1,1,2,5,-15
1526903658302480,37,-41,-3,-5,-5,-6,-3,18
1526903658302480,52,-15,5,5,5,7,10,20
1526903658317440,-112,3,4,3,1,5,17,58
1526903658317440,127,68,8,4,3,3,11,82
1526903658319435,-121,-34,-7,-2,-1,-2,-10,-17
1526903658319435,70,49,8,-3,-5,-2,2,37
1526903658340379,-127,-25,-11,-2,-2,-3,-2,-41
1526903658340379,67,16,18,6,4,6,5,12
1526903658341376,61,21,9,6,5,8,18,60
1526903658341376,-39,36,-6,-6,-7,-8,-17,19
1526903658353344,-48,-36,-6,-5,-5,-6,-13,-30
1526903658353344,102,-22,-18,-8,-5,-6,-8,41
1526903658362320,48,32,8,-1,0,-2,-4,4
1526903658362320,33,34,12,10,9,13,19,-17
1526903658377280,37,-10,-7,-4,-3,-8,-21,-22
1526903658377280,-78,-11,-2,-3,-4,-6,-14,-14
1526903658379275,60,-4,-9,-4,-2,-4,0,-4
1526903658379275,-20,-35,-14,-7,-6,-7,-9,5
1526903658400219,0,14,10,7,6,8,21,17
1526903658400219,-106,-24,1,-1,-1,-1,-4,-21
1526903658402213,25,14,-1,0,-1,-1,-8,-39
1526903658402213,27,28,4,1,-1,-1,-1,3
1526903658414181,48,36,4,1,0,-1,3,24
1526903658414181,19,-33,6,5,5,6,13,17
1526903658423158,-48,-46,-20,-13,-12,-16,-18,5
1526903658423158,10,-9,-6,-5,-2,-5,-11,-22
1526903658438117,50,40,17,7,7,9,17,24
1526903658438117,-40,-10,2,3,-1,-3,-7,-5
1526903658439115,-93,-33,-8,-5,-4,-3,-9,-14
1526903658439115,-8,-11,-2,2,0,-3,-2,-16
1526903658460058,119,19,-2,-3,-3,-5,-5,14
1526903658460058,81,49,15,5,6,10,20,27
1526903658462053,81,-15,-4,-2,-3,0,0,22
1526903658462053,29,-17,-7,-6,-6,-2,-6,-17
1526903658474021,-79,17,-3,-2,-1,-2,1,-45
1526903658474021,81,-33,2,-3,-3,-4,-7,15
1526903658482997,9,40,7,4,2,3,4,4
1526903658482997,-40,-39,-6,-3,1,2,4,14
1526903658496960,-7,1,-2,1,0,0,1,15
1526903658496960,26,-6,-6,-3,-3,-4,-11,-49
1526903658503941,-27,26,1,1,2,3,10,19
1526903658503941,-104,-9,-1,-2,-2,-5,-10,-33
1526903658519898,-19,9,7,6,3,7,12,22
1526903658519898,-85,-62,-24,-9,-6,-4,-20,-66
1526903658521893,70,22,11,5,4,3,28,4
1526903658521893,34,25,0,-2,-1,0,-4,-15
1526903658533861,1,-25,-2,-3,-1,-5,1,16
1526903658533861,85,46,6,2,-1,7,2,66
1526903658542838,-42,-1,3,3,4,17,-2,-16
1526903658542838,-35,4,-6,-1,-5,-23,10,24
1526903658557797,88,-3,-12,-6,-5,-5,-4,-7
1526903658557797,40,68,10,3,3,3,5,8
1526903658558795,-59,-96,-22,-8,-8,-16,-25,-25
1526903658558795,11,26,4,1,0,6,-1,4
1526903658579738,89,10,2,-2,-2,-3,-6,16
1526903658579738,33,-9,-3,-1,0,-8,-2,-12
1526903658581734,46,19,-7,-5,-5,-3,-2,8
1526903658581734,-14,13,7,2,4,8,9,14
1526903658593701,-51,-4,1,0,-1,0,3,-12
1526903658593701,-99,-30,-12,-7,-4,-6,-13,-19
1526903658602677,87,23,6,5,4,3,9,48
1526903658602677,-14,-10,1,-3,-3,-3,-15,-46
1526903658617637,44,-11,-3,-1,-1,0,1,21
1526903658617637,-14,-22,-7,-3,-4,-5,-1,-11
1526903658619632,-30,7,-3,-2,-2,-3,-3,-12
1526903658619632,-70,-7,-2,0,-1,2,2,23
1526903658640576,28,10,6,5,-1,1,-6,-15
1526903658640576,-59,-6,-2,2,1,8,8,-22
1526903658641574,-42,-3,4,-1,0,-13,-1,15
1526903658641574,-73,-59,-19,-8,-5,3,-5,-13
1526903658653541,-128,32,7,0,1,2,-16,-25
1526903658653541,57,-36,3,4,6,7,27,19
1526903658662518,-114,-31,-16,-10,-9,-15,-40,-41
1526903658662518,50,14,7,2,2,0,-4,-5
1526903658676480,-3,-9,4,1,1,3,-1,7
1526903658676480,-6,18,-3,0,-1,-3,-4,-29
1526903658683461,-12,20,6,1,0,3,9,-13
1526903658683461,20,-26,-4,0,0,0,-7,-21
1526903658700416,23,15,3,-1,1,4,9,14
1526903658700416,101,68,-1,0,-1,-4,2,22
1526903658701413,92,-51,-6,-5,-4,-20,4,10
1526903658701413,0,11,-1,-2,-3,11,-3,8
1526903658722357,34,4,1,2,0,2,15,8
1526903658722357,5,-3,2,-1,-1,-2,-6,16
1526903658724352,-1,41,5,4,3,10,8,13
1526903658724352,-21,9,5,0,-1,-2,-1,7
1526903658737317,-87,-26,-6,-4,-2,-8,-15,-33
1526903658737317,-31,-21,-8,-5,-4,-4,2,-4
1526903658743301,80,21,8,4,3,6,3,4
1526903658743301,84,9,13,8,7,7,20,71
1526903658760255,20,-52,-17,-5,-4,0,0,0
1526903658760255,-61,19,5,-3,-3,-9,-8,-16
1526903658761253,-24,6,-1,-1,0,9,6,-16
1526903658761253,37,17,3,3,1,-2,0,42
1526903658782197,-4,-32,0,1,-1,-2,1,-17
1526903658782197,35,39,-2,-2,-4,1,-4,-3
1526903658784192,-54,-30,3,3,-1,1,1,-27
1526903658784192,-75,6,0,1,1,2,13,-24
1526903658797157,15,-25,-7,-6,-5,-8,-14,-13
1526903658797157,-81,-29,-9,-3,-5,-1,-9,-19
1526903658804138,-79,28,10,5,3,6,4,12
1526903658804138,67,5,-1,-3,-2,-13,-9,-54
1526903658820096,1,-1,-3,-2,-1,3,9,16
1526903658820096,-115,14,5,-1,1,-3,-8,-66
1526903658822091,58,-30,-11,-4,-3,1,4,42
1526903658822091,45,7,8,2,0,3,3,-14
1526903658843034,37,-14,-3,0,-1,-9,-5,5
1526903658843034,82,16,5,1,1,-3,3,21
1526903658844034,-74,39,2,0,1,6,3,0
1526903658844034,-60,-37,-10,-5,-4,0,-3,-28
1526903658856997,-40,19,-3,-5,-4,-5,-8,-8
1526903658856997,41,-32,1,0,-1,6,5,16
1526903658863978,43,-3,2,0,1,-9,-5,-5
1526903658863978,-37,13,-5,-2,-1,3,2,13
1526903658879936,-19,46,6,1,1,10,2,5
1526903658879936,-40,-90,-13,-5,-4,-10,-13,-16
1526903658881931,62,17,3,2,1,3,4,7
1526903658881931,-88,0,-5,-4,-6,-9,-6,-5
1526903658902874,-24,1,-6,-1,1,1,-3,-7
1526903658902874,127,6,3,2,3,5,7,35
1526903658903872,-69,-16,-12,-9,-9,-12,-24,-80
1526903658903872,69,-30,-12,-8,-2,-5,-11,1
1526903658916837,-66,37,14,4,4,3,3,8
1526903658916837,38,-5,-8,-2,-2,0,6,28
1526903658923818,-97,-23,-5,-2,-3,-1,-4,-19
1526903658923818,83,37,9,4,2,3,2,-4
1526903658939776,3,-54,-10,-5,-6,-10,-15,-34
1526903658939776,81,29,8,6,8,5,12,14
1526903658941770,87,78,6,-1,-2,-5,-1,8
1526903658941770,-16,-94,-20,-5,-5,-7,-5,13
1526903658962715,124,54,13,5,3,1,3,24
1526903658962715,-83,-4,-1,-2,-1,0,-3,-13
1526903658964709,7,12,5,2,0,-9,-5,7
1526903658964709,-16,18,2,1,-1,18,4,-22
1526903658976677,14,-23,1,2,2,-1,5,0
1526903658976677,-110,0,-9,-7,-5,-5,-18,-24
1526903658985653,-30,-20,-2,-1,0,3,7,0
1526903658985653,60,19,9,2,0,-6,9,81
1526903658999615,-47,-52,-21,-9,-9,-11,-12,-31
1526903658999615,-28,1,-1,-2,-4,-2,-4,-13
1526903659001611,127,6,13,6,4,6,8,-3
1526903659001611,5,14,-8,-2,-1,-3,-6,-18
1526903659022554,-72,-19,-5,-3,-1,0,-1,1
1526903659022554,-1,54,5,3,1,-2,1,3
1526903659024549,83,-66,-5,2,1,9,6,21
1526903659024549,-120,-14,-8,-6,-7,-10,-9,-4
1526903659036517,127,1,3,4,5,5,13,45
1526903659036517,8,11,1,-1,-2,-3,-1,3
1526903659045493,-28,6,-2,0,2,6,5,27
1526903659045493,9,16,-4,2,3,3,3,-11
1526903659060453,-15,40,13,2,1,2,4,-1
1526903659060453,-71,-66,-17,-8,-9,-8,-12,-30
1526903659061450,3,7,-3,-1,0,0,-1,-14
1526903659061450,-40,2,-1,-2,-1,-3,-5,-8
1526903659082394,-49,7,-5,-4,-4,-5,-2,-6
1526903659082394,102,10,12,4,6,5,9,25
1526903659084389,-29,-18,-6,-4,-4,-4,-9,-9
1526903659084389,-33,-12,-14,-3,-3,-7,-5,-20
1526903659096357,-10,-10,15,5,4,5,9,8
1526903659096357,34,14,3,2,0,4,-1,2
1526903659105333,53,-1,-5,-4,-4,-5,5,13
1526903659105333,-11,-7,8,2,1,2,3,-15
1526903659120293,77,-11,-30,-10,-8,-7,-15,31
1526903659120293,-79,-34,6,0,0,-1,-4,-25
1526903659121290,-54,35,4,0,-1,0,1,30
1526903659121290,90,22,9,2,0,0,4,11
1526903659142234,32,16,3,0,-1,1,4,2
1526903659142234,-40,-21,-14,-4,-3,-5,-8,-20
1526903659144229,-8,-5,-7,0,-1,0,-2,-13
1526903659144229,87,8,7,0,2,2,8,49
1526903659156197,-77,-24,-3,-2,-4,-5,-8,-53
1526903659156197,14,-3,0,0,-1,-2,-1,9
1526903659165173,-22,16,7,3,2,2,0,-13
1526903659165173,-21,-11,-8,1,-1,-1,1,4
1526903659180133,4,17,1,2,3,4,4,-13
1526903659180133,20,7,0,1,2,3,8,18
1526903659182128,17,-3,6,3,2,3,7,11
1526903659182128,-53,24,-8,-7,-5,-7,-4,-20
1526903659203071,-43,0,-8,-6,-4,-5,-11,6
1526903659203071,-84,-41,2,1,-2,0,6,-4
1526903659204069,75,-1,-6,-3,-1,-1,-2,43
1526903659204069,20,10,10,3,3,4,3,-4
1526903659216037,17,-2,2,1,1,1,11,9
1526903659216037,22,26,-11,-3,-3,-4,-3,9
1526903659225013,17,11,9,-2,-2,-1,-6,-11
1526903659225013,-49,-18,1,4,3,4,-2,-26
1526903659239973,-58,-34,-12,-6,-7,-8,-13,-31
1526903659239973,-19,5,-2,-2,-1,-3,-5,-8
1526903659241968,32,12,-1,0,-2,0,1,-21
1526903659241968,68,27,-2,0,-1,-4,-3,20
1526903659262912,82,14,17,3,5,8,17,55
1526903659262912,-46,-88,-9,-5,-4,-3,-7,-43
1526903659263909,-40,1,-10,-4,-3,-4,-4,5
1526903659263909,45,4,5,0,1,2,2,10
1526903659275877,-23,18,2,2,1,1,-4,-20
1526903659275877,-21,52,3,0,-2,-1,4,9
1526903659284853,21,-42,-12,-5,-4,-2,0,19
1526903659284853,-102,-40,-11,-1,-5,-4,-4,-6
1526903659299813,60,22,14,4,1,3,5,6
1526903659299813,13,14,4,-1,-1,0,-3,-10
1526903659301808,-48,1,-2,-1,-1,3,3,10
1526903659301808,-15,12,0,-2,-1,0,-2,-24
1526903659322751,52,-29,-7,2,0,1,0,-32
1526903659322751,63,31,3,1,1,2,5,39
1526903659323749,-59,-4,1,-3,-1,-7,-9,-33
1526903659323749,20,-33,-10,-5,-6,-8,-14,-41
1526903659336714,56,45,11,5,2,5,16,48
1526903659336714,71,1,-6,-3,-3,-5,-11,-30
1526903659345690,6,-34,-4,-2,-1,-2,-2,-17
1526903659345690,18,45,8,1,2,-1,-3,-16
1526903659359653,-76,-29,-7,-6,-3,-7,-8,2
1526903659359653,67,21,-1,2,2,2,5,14
1526903659361648,-27,3,0,-2,-1,-1,-3,44
1526903659361648,60,-16,4,1,-1,-2,-5,19
1526903659382592,77,15,4,1,0,0,-2,-18
1526903659382592,28,-4,-2,-1,0,-1,2,18
1526903659384586,-55,3,-1,-1,-2,1,1,-44
1526903659384586,-2,26,5,1,0,1,9,34
1526903659396554,-52,-32,-6,-1,-1,0,-4,-27
1526903659396554,95,-12,-3,-2,0,-4,-8,1
1526903659405530,127,52,21,9,8,10,19,24
1526903659405530,-7,-2,-5,-4,-4,-4,-7,-23
1526903659420490,-106,5,-7,-3,-2,-4,-11,-36
1526903659420490,-16,30,10,8,4,6,15,64
1526903659421487,66,-14,-9,-6,-6,-8,-17,-43
1526903659421487,-51,17,9,3,4,7,18,44
1526903659442431,35,-7,-7,-5,-4,-1,0,36
1526903659442431,96,50,13,4,5,7,17,60
1526903659444426,-25,-16,-5,0,0,1,2,1
1526903659444426,-95,-39,-10,-7,-6,-8,-18,-45
1526903659456394,22,16,-1,1,1,0,0,13
1526903659456394,-72,13,-2,-3,-2,-1,-6,-48
1526903659465371,-100,-38,-12,-3,-5,-6,4,0
1526903659465371,59,-17,4,1,3,-1,0,-15
1526903659480330,30,21,0,0,-1,-1,-1,8
1526903659480330,-30,-26,-5,-3,-1,0,-6,-10
1526903659481328,0,0,-12,-5,-2,4,11,4
1526903659481328,127,22,7,6,4,-2,-4,16
1526903659502271,-61,-14,-2,-1,0,-7,-9,-6
1526903659502271,-38,10,-5,-4,-2,-1,-7,-22
1526903659504266,94,9,6,1,3,2,3,20
1526903659504266,44,5,-5,-4,-3,-3,-8,-18
1526903659516234,80,-28,-2,1,0,0,9,12
1526903659516234,-50,-5,-3,-6,-7,-12,-3,-40
1526903659525210,-11,15,7,2,3,9,-8,2
1526903659525210,102,14,1,2,0,7,14,47
1526903659540170,-48,-25,-8,-5,-5,-10,-16,-47
1526903659540170,-50,1,-1,-1,0,-4,-4,-46
1526903659542165,97,-26,-10,-6,-5,-11,-11,-11
1526903659542165,-75,5,5,-1,1,1,9,29
1526903659563109,21,17,1,0,0,3,-2,-4
1526903659563109,73,-21,8,3,3,5,14,26
1526903659564106,-128,15,-8,-4,-5,-12,-21,-25
1526903659564106,-61,-25,-3,-1,-3,-3,7,-19
1526903659576074,48,-17,0,1,1,15,19,29
1526903659576074,17,-4,-5,-3,-1,-1,-5,-14
1526903659585050,-79,0,3,2,-1,-1,-7,-11
1526903659585050,-40,-4,-10,-3,-3,-4,-4,8
1526903659599012,48,45,14,7,3,3,12,10
1526903659599012,3,-18,-5,-1,-2,-2,2,35
1526903659605994,-31,-4,-8,-5,-1,-4,-1,0
1526903659605994,-76,-13,-6,-7,-5,-8,-21,-45
1526903659622949,20,-1,6,2,3,3,2,1
1526903659622949,57,20,3,1,1,-1,-3,23
1526903659623946,127,18,5,3,-1,-17,-2,20
1526903659623946,113,24,5,2,3,21,32,3
1526903659635914,-59,-40,-9,-6,-7,-14,-30,-12
1526903659635914,-49,-15,-4,0,-2,5,2,-9
1526903659644890,-50,2,7,0,0,-2,0,6
1526903659644890,-37,-12,-7,1,1,2,-1,18
1526903659659850,-3,-1,-2,-2,-2,-1,7,4
1526903659659850,37,10,-1,1,1,0,4,14
1526903659665834,-89,-24,0,-1,-2,-1,-10,-23
1526903659665834,0,5,4,-1,-2,-4,-15,-32
1526903659682789,19,-6,-1,0,1,2,6,-2
1526903659682789,13,3,-5,-3,-3,-3,-5,9
1526903659683786,-33,4,-1,1,1,5,10,20
1526903659683786,-8,11,0,-4,0,4,2,7
1526903659704730,-105,-49,-10,-6,-4,-14,-13,-30
1526903659704730,71,-1,3,1,1,4,3,2
1526903659706725,127,28,-1,-3,-1,10,5,2
1526903659706725,28,-37,-4,0,-2,-4,0,23
1526903659719690,31,17,-4,-3,0,-3,2,6
1526903659719690,-38,-20,0,0,-2,4,-4,-11
1526903659726671,5,2,5,4,2,5,1,5
1526903659726671,-67,10,6,3,1,3,9,10
1526903659742628,-9,-21,-6,2,3,2,8,24
1526903659742628,-127,-32,-14,-9,-3,-3,-13,-37
1526903659744623,2,9,6,2,-1,-15,0,3
1526903659744623,47,2,0,-2,-2,3,-7,-10
1526903659765567,-37,11,2,0,1,1,21,15
1526903659765567,16,5,-2,-2,-1,-7,1,-3
1526903659766565,11,11,1,-1,0,4,1,3
1526903659766565,19,-28,-6,-3,-2,-11,-9,-13
1526903659779530,109,47,10,2,4,7,-1,-12
1526903659779530,-83,-55,-12,-5,-6,-9,-15,-12
1526903659786511,-7,11,-9,-4,-2,-4,-7,-15
1526903659786511,127,26,-3,-1,-2,-2,1,20
1526903659802468,-1,7,8,2,2,4,3,-10
1526903659802468,78,10,4,0,1,1,9,22
1526903659804463,-88,-32,-11,-4,-5,-8,-16,-40
1526903659804463,43,22,10,4,3,2,8,19
1526903659825407,-42,-9,-3,-1,-3,-11,-8,-8
1526903659825407,29,33,4,1,1,6,-11,0
1526903659826405,37,-15,-1,0,2,6,8,13
1526903659826405,-31,-12,-2,1,0,1,3,-5
1526903659839370,78,16,-3,-3,-4,-7,-15,32
1526903659839370,-10,-4,-4,-2,-3,-11,-6,-9
1526903659846351,32,14,3,1,0,4,5,9
1526903659846351,-33,-16,0,0,0,-5,-6,4
1526903659862309,16,-9,-1,1,2,2,2,0
1526903659862309,-10,18,0,0,0,6,11,-6
1526903659864303,-3,-9,3,-1,-2,4,-4,1
1526903659864303,-3,22,5,3,3,-3,4,2
1526903659885247,47,2,-7,-5,-5,-6,-11,-30
1526903659885247,72,36,0,-1,-2,-2,3,38
1526903659887242,-104,-30,-3,-3,-1,-7,-10,-47
1526903659887242,24,-13,-1,-3,-3,0,0,-5
1526903659899210,34,24,-5,0,0,2,-3,1
1526903659899210,-72,1,5,0,-2,-2,-2,-13
1526903659906191,43,-11,1,3,2,6,9,21
1526903659906191,8,4,-5,-6,-4,-6,-8,-5
1526903659922148,-73,-19,0,-2,-2,0,-3,-29
1526903659922148,85,-2,0,1,1,-2,2,33
1526903659924144,-90,12,6,1,1,3,14,3
1526903659924144,56,16,2,-1,2,1,-2,-11
1526903659945087,82,-9,0,1,0,2,6,29
1526903659945087,11,-3,3,2,1,1,4,-5
1526903659947082,80,33,4,2,1,0,-2,5
1526903659947082,-9,-3,-1,0,-2,-2,5,7
1526903659959050,46,2,-2,-2,1,0,0,4
1526903659959050,-29,1,2,3,2,-1,-4,-11
1526903659968027,20,-24,-11,-8,-7,-6,-4,35
1526903659968027,-40,-18,-5,-1,0,-1,-5,-17
1526903659982986,-30,2,3,-3,-3,0,-7,-7
1526903659982986,-33,2,5,1,1,1,0,-4
1526903659983983,-45,-5,-10,-4,-1,-1,3,-3
1526903659983983,-115,-53,-9,-4,-4,-5,-4,-17
1526903660004927,-55,26,7,4,3,3,0,-8
1526903660004927,3,-15,-8,-5,-3,-3,-6,-11
1526903660006922,82,22,8,5,2,2,3,-1
1526903660006922,36,-12,-5,-2,-3,-7,-12,-13
1526903660018890,-35,-3,1,4,2,5,7,3
1526903660018890,38,12,1,0,0,1,4,12
1526903660027866,-28,-37,-17,-6,-5,-11,-15,-23
1526903660027866,12,4,4,-1,0,0,2,-11
1526903660042826,106,30,2,2,1,11,7,37
1526903660042826,61,-26,4,-3,-3,-4,-6,-6
1526903660043823,11,14,-2,-1,-1,-2,1,5
1526903660043823,-17,1,4,2,2,1,8,35
1526903660065764,37,50,9,3,2,-4,-2,13
1526903660065764,-96,-75,-20,-6,-4,1,-8,-63
1526903660066762,-42,-19,2,-3,-5,-3,-8,-28
1526903660066762,72,13,-6,-2,0,1,2,4
1526903660078731,-23,-13,2,-4,0,-1,3,0
1526903660078731,-55,18,3,0,1,0,1,7
1526903660087706,37,7,0,4,3,1,4,25
1526903660087706,-92,-18,-5,1,-1,1,-3,-28
1526903660102666,-22,-31,0,-3,-4,-5,-10,-24
1526903660102666,127,54,6,4,4,4,18,86
1526903660104661,9,-30,-21,-12,-6,-7,-16,-35
1526903660104661,50,32,13,2,-1,0,0,6
1526903660124607,54,-30,-13,-4,-2,-3,1,1
1526903660124607,-105,-11,11,3,3,-3,2,-4
1526903660131588,105,46,1,3,2,1,10,21
1526903660131588,12,2,6,-2,2,1,3,17
1526903660138570,-84,-31,-11,0,-4,-2,-6,-33
1526903660138570,-58,-4,-8,-5,-5,-7,-8,-3
1526903660147546,-48,53,14,4,2,4,-1,-1
1526903660147546,55,-84,-18,-4,2,4,5,10
1526903660162506,-19,11,-1,-5,-6,-5,-1,13
1526903660162506,-66,-26,-8,-4,-5,-5,-13,-48
1526903660164500,24,20,12,4,3,5,6,11
1526903660164500,-21,-3,-4,-1,-2,-1,-6,-3
1526903660185444,77,44,-2,0,2,-1,1,12
1526903660185444,-1,-45,1,2,0,0,-2,-24
1526903660186442,-76,-23,-4,-3,-2,-3,-5,-10
1526903660186442,61,43,9,3,-1,-2,-5,-25
1526903660198409,-83,-66,-19,-7,-4,-3,-3,0
1526903660198409,24,57,2,1,1,1,-1,-18
1526903660207386,-38,-35,8,-1,0,2,5,-8
1526903660207386,-59,-3,-12,-6,-8,-8,-14,-14
1526903660222345,20,-10,4,0,-1,-2,-11,-45
1526903660222345,127,30,-5,-2,-1,-2,3,43
1526903660224341,-51,-23,-9,-4,-2,3,10,45
1526903660224341,-37,48,5,1,0,3,3,15
1526903660245284,49,-9,6,1,1,1,7,21
1526903660245284,-55,-10,-7,0,-2,-3,-1,6
1526903660246282,97,35,10,6,5,5,9,-10
1526903660246282,45,-7,0,-1,2,1,6,-1
1526903660259247,45,26,8,3,-1,-3,-3,16
1526903660259247,-16,-9,-9,-2,1,4,7,20
1526903660268223,-117,-39,-5,-1,2,-1,-6,-32
1526903660268223,105,27,15,8,5,8,15,34
1526903660282186,-128,-24,-4,-4,-1,-2,-4,-31
1526903660282186,72,15,3,-2,-2,-5,-5,7
1526903660284181,80,17,4,4,1,1,-1,-17
1526903660284181,-25,15,2,-2,0,1,8,-29
1526903660305124,-43,-33,-13,-6,-4,-1,0,64
1526903660305124,70,26,9,4,3,3,10,5
1526903660307119,-80,0,-8,-5,-4,-5,-10,-71
1526903660307119,64,-19,-2,1,-2,-2,-5,20
1526903660319087,47,0,-5,-3,-3,-6,-14,-39
1526903660319087,2,-44,-6,-3,-4,-3,-4,-16
1526903660328063,78,4,4,0,-2,-6,0,56
1526903660328063,-61,0,3,0,3,1,7,8
1526903660343023,24,25,5,1,2,3,10,-27
1526903660343023,-124,-35,-17,-8,-8,-7,-16,-46
1526903660344021,93,-9,10,3,1,3,8,32
1526903660344021,39,11,-14,-7,-5,-7,-8,18
1526903660364964,-34,19,7,4,2,0,1,6
1526903660364964,8,0,2,-2,-2,0,-3,-32
1526903660366959,-2,0,-5,-1,0,3,9,2
1526903660366959,-109,-26,1,-2,-3,-4,-8,-57
1526903660378927,-53,-26,-19,-13,-11,-13,-24,-49
1526903660378927,95,35,8,2,4,4,8,4
1526903660387903,49,9,-2,-5,-1,-3,-12,-30
1526903660387903,-71,-58,-4,2,4,4,28,114
1526903660402863,78,39,-4,-2,-6,-5,-16,-46
1526903660402863,-20,35,10,3,4,2,6,29
1526903660403860,-76,-75,-21,-8,-7,-10,-17,-25
1526903660403860,25,10,4,0,-2,-2,-11,-14
1526903660424804,76,-2,5,0,0,2,8,42
1526903660424804,-35,-23,-11,-4,-5,-4,0,34
1526903660426799,-10,56,13,5,5,10,20,27
1526903660426799,-48,5,2,2,1,2,-4,-56
1526903660438767,26,-67,-16,-8,-4,-11,-19,-6
1526903660438767,83,37,16,8,6,9,9,6
1526903660447743,6,-6,-10,-7,-8,-5,0,16
1526903660447743,34,26,16,8,6,6,23,33
1526903660462703,3,26,7,1,2,4,-3,-46
1526903660462703,73,-22,8,7,5,2,18,76
1526903660464698,121,14,-16,-9,-7,-7,-14,1
1526903660464698,70,-36,-5,1,-1,-3,-8,-16
1526903660484644,2,51,11,4,4,11,18,49
1526903660484644,-107,-58,-5,1,3,-6,5,18
1526903660486639,85,39,4,0,-1,-2,-1,58
1526903660486639,-58,50,0,-4,-2,2,-11,-51
1526903660498606,-14,-61,-6,-2,0,-6,-9,-37
1526903660498606,-128,-32,-9,-5,-3,2,-3,-32
1526903660507583,57,23,3,-1,1,2,5,21
1526903660507583,77,49,11,3,0,-5,-12,-25
1526903660522543,24,-32,-3,4,3,6,8,10
1526903660522543,50,25,0,-2,-1,0,-5,-4
1526903660524538,-128,-33,-16,-10,-8,-12,-23,-46
1526903660524538,75,-40,-12,-9,-5,-12,-10,-19
1526903660545481,-65,11,13,6,3,4,16,32
1526903660545481,33,8,-2,-2,-3,8,-13,-4
1526903660546479,67,-7,5,4,2,-10,7,-15
1526903660546479,-54,-20,-11,-5,-4,12,-7,-43
1526903660558447,-113,-8,-12,-8,-7,-11,1,84
1526903660558447,92,14,6,3,0,-7,-1,-15
1526903660567423,-4,-24,1,2,1,7,-2,-34
1526903660567423,13,8,1,-2,0,-7,0,17
1526903660582383,7,10,12,8,10,35,19,23
1526903660582383,-73,14,-4,-4,-11,-28,1,-23
1526903660588367,10,-20,-6,-3,-2,-16,-5,-5
1526903660588367,78,20,-3,-3,-4,-2,-2,35
1526903660605321,46,-32,-6,0,1,7,-4,-18
1526903660605321,-40,22,4,-1,1,5,11,10
1526903660606319,-3,-8,9,6,3,14,-6,-18
1526903660606319,-99,12,-8,-5,-3,-10,-4,-7
1526903660627263,0,27,1,-2,-1,-2,4,7
1526903660627263,127,-4,-5,0,-1,-10,-12,-22
1526903660629258,68,7,1,0,0,12,-3,-3
1526903660629258,46,-46,-11,-6,-3,-2,-11,-5
1526903660642223,-26,30,6,2,-2,-4,-2,-3
1526903660642223,7,-15,-5,-3,0,2,-1,-21
1526903660649204,-128,2,3,0,0,-1,0,-14
1526903660649204,13,3,0,3,2,0,2,37
1526903660665161,127,33,6,2,0,-1,8,7
1526903660665161,39,-26,-8,-6,-2,-2,-13,-33
1526903660667156,77,32,6,1,-2,-5,2,18
1526903660667156,-57,-3,-6,-4,-3,-5,-6,-29
1526903660688100,-82,-39,-1,0,0,-8,-1,2
1526903660688100,51,31,1,2,0,6,-5,5
1526903660689098,-40,44,12,3,4,2,14,23
1526903660689098,-55,-34,-16,-6,-5,-5,-3,4
1526903660702063,24,13,3,-1,-1,-2,2,-7
1526903660702063,46,6,7,7,4,8,5,-4
1526903660709044,11,11,-5,-7,-4,5,-1,-9
1526903660709044,36,-5,4,0,0,-2,2,24
1526903660725001,16,18,2,2,1,8,3,22
1526903660725001,-87,-30,-6,-3,-1,-5,-6,-27
1526903660726996,83,-16,-2,1,0,-11,3,47
1526903660726996,-32,24,3,-1,-1,2,5,-32
1526903660747940,65,-33,-4,-3,0,-12,-3,-7
1526903660747940,-74,28,-5,-6,-7,-9,-20,-18
1526903660748938,-1,-50,-13,-2,-2,10,-3,-20
1526903660748938,57,-24,-3,-3,-4,1,-2,-11
1526903660761903,-63,21,4,1,-1,-7,-4,-20
1526903660761903,-38,-13,-3,-2,-3,-6,-1,-4
1526903660768884,31,17,-2,-2,-1,-9,-2,-12
1526903660768884,-3,-36,-2,3,1,-1,-7,-20
1526903660784841,-52,11,-5,-5,-7,-3,-7,-15
1526903660784841,125,24,14,8,9,14,25,77
1526903660786836,48,-1,-2,-1,-3,-3,-15,-26
1526903660786836,111,30,9,4,4,6,12,63
1526903660807780,84,7,-4,-2,-1,-1,-14,-42
1526903660807780,-36,-14,-4,-4,-1,-5,0,-3
1526903660808778,-3,-3,-1,-1,-4,-1,-12,-20
1526903660808778,62,-9,13,7,8,6,12,25
1526903660821743,-42,21,-3,-3,-2,-14,-2,4
1526903660821743,55,-27,-6,-2,-2,3,3,11
1526903660828724,43,-7,5,2,2,6,2,17
1526903660828724,-106,13,0,-1,0,0,-5,-35
1526903660845678,-29,-4,-3,-2,0,5,-1,11
1526903660845678,-72,-23,-9,-4,-1,3,-3,-24
1526903660846676,-33,18,13,8,8,3,24,59
1526903660846676,-17,48,-9,-7,-11,-13,-40,-46
1526903660867620,-17,-38,-6,-3,-3,-7,0,21
1526903660867620,-1,10,-2,-3,-3,-2,-9,0
1526903660869615,-128,-35,1,2,3,3,18,-17
1526903660869615,79,52,16,9,8,15,25,40
1526903660881583,10,-35,-14,-8,-6,-7,-11,-37
1526903660881583,20,-13,-10,-5,-9,-12,-15,-32
1526903660890559,10,51,13,6,5,8,9,32
1526903660890559,89,18,6,5,2,2,14,28
1526903660905519,12,-65,-27,-13,-12,-19,-23,-47
1526903660905519,80,4,6,4,3,9,8,18
1526903660906516,20,-24,-6,-5,-3,-4,-13,-23
1526903660906516,44,21,-5,-3,0,-3,5,21
1526903660927460,-54,14,6,3,4,5,2,7
1526903660927460,-89,2,5,3,2,2,2,17
1526903660929455,58,10,-5,-6,-6,-9,-9,22
1526903660929455,-53,-52,-18,-7,-6,1,-17,-69
1526903660941422,11,19,11,6,3,-6,11,35
1526903660941422,38,-5,-1,-2,1,24,2,-1
1526903660950399,-72,13,1,1,-3,-18,-1,-8
1526903660950399,-108,-45,-6,-3,-2,-6,-8,3
1526903660965358,95,17,0,-1,0,4,4,11
1526903660965358,4,29,7,3,4,1,8,7
1526903660966356,39,-27,-13,-5,-4,-1,-9,12
1526903660966356,-17,1,6,2,2,5,9,24
