timestamp,emg1,emg2,emg3,emg4,emg5,emg6,emg7,emg8
1576147189236331,-47,9,-15,8,8,-1,-3,3
1576147189236331,-75,-5,-22,7,2,-2,-4,-2
1576147189241377,-61,2,10,5,-5,-1,1,-3
1576147189241377,-53,-6,-12,8,0,0,3,2
1576147189242272,-27,-6,-1,-3,-2,-4,1,-10
1576147189242272,-27,2,-3,4,-7,-5,1,1
1576147189244264,-42,-15,-10,-6,-1,-8,0,1
1576147189244264,-33,-2,6,-7,0,2,1,-1
1576147189254202,-19,-1,14,-18,5,2,1,3
1576147189254202,14,8,11,-3,4,7,1,5
1576147189266066,-21,7,2,-7,3,-3,-2,-14
1576147189266066,-11,10,-4,5,0,-2,-2,-3
1576147189269102,-4,4,-20,8,-9,1,-1,3
1576147189269102,3,1,-5,1,-9,2,-6,-9
1576147189286016,0,-6,-9,12,0,1,0,9
1576147189286016,15,2,-1,9,7,0,-1,1
1576147189292996,13,10,4,-4,5,-8,-3,-2
1576147189292996,3,4,-2,2,-3,-6,1,-4
1576147189307956,0,-1,-10,0,-8,3,0,-1
1576147189307956,-17,-7,-9,-7,-5,-4,-5,-12
1576147189314984,8,-8,1,-5,-2,2,-1,10
1576147189314984,-6,-4,2,1,8,3,2,11
1576147189352941,30,8,7,-1,2,1,3,2
1576147189352941,28,-2,-1,4,-2,3,9,8
1576147189361838,-4,-7,-3,17,-3,-2,4,-2
1576147189361838,-22,-4,-8,9,-3,0,-2,4
1576147189361838,4,12,2,-5,-1,2,-2,-1
1576147189361838,9,7,-2,-9,3,-4,1,-1
1576147189363805,-6,12,-7,-7,4,-3,-1,3
1576147189363805,8,1,-7,-2,-2,-2,3,0
1576147189374821,-24,-8,-4,3,-1,-1,-6,-14
1576147189374821,-3,-10,3,4,-6,0,-2,5
1576147189383756,6,-10,4,-7,-7,-5,0,-9
1576147189383756,20,-7,8,-8,0,-5,2,-1
1576147189389785,26,-6,9,0,4,-5,4,5
1576147189389785,-10,6,-2,2,3,-3,0,-1
1576147189413708,-13,0,-3,6,-2,10,2,2
1576147189413708,5,4,0,-9,-7,7,2,5
1576147189414670,13,1,-6,3,5,3,7,-3
1576147189414670,15,1,5,-5,0,-2,-6,-14
1576147189426641,-42,-8,-9,-12,-4,-2,-13,-9
1576147189426641,-2,8,5,-4,1,4,-4,0
1576147189434732,3,-1,7,2,-1,-1,5,-1
1576147189434732,8,-3,-4,-8,6,1,9,3
1576147189449457,1,-3,-2,4,-3,0,-2,-3
1576147189449457,14,9,0,13,-1,-7,-2,2
1576147189450454,-35,-10,-5,-11,-11,-4,-9,-6
1576147189450454,-8,2,2,-6,-15,-1,-7,8
1576147189472498,20,1,7,-3,7,-7,-1,12
1576147189472498,-9,-7,0,17,11,-5,-8,-15
1576147189473399,-3,-8,3,17,2,-4,-5,-6
1576147189473399,-1,-2,-1,-7,6,1,-5,-8
1576147189486402,-2,5,-3,3,0,1,-2,2
1576147189486402,-6,3,6,-1,-2,0,2,-4
1576147189494381,16,3,4,-11,-3,-3,3,6
1576147189494381,-16,-7,-6,6,-6,1,4,-2
1576147189510398,15,-4,0,6,2,8,1,4
1576147189510398,12,0,-9,5,6,8,2,5
1576147189510398,-5,6,-10,8,2,5,0,-1
1576147189510398,-33,-1,-3,2,-1,-3,-2,5
1576147189532265,-16,1,7,-4,3,-9,-2,-10
1576147189532265,10,-15,-6,-9,-9,-9,-6,-2
1576147189533239,17,4,4,-10,1,-3,-4,2
1576147189533239,-19,-4,-2,-1,-6,-4,1,-9
1576147189547319,2,3,3,6,-6,-3,8,5
1576147189547319,-2,-3,3,1,-4,-1,4,3
1576147189554820,4,6,-6,-3,0,-1,-1,6
1576147189554820,19,-2,7,-4,2,-6,-12,-8
1576147189569879,-6,-4,-10,-9,0,0,-7,-10
1576147189569879,-11,-6,-3,-3,6,6,3,10
1576147189570779,-9,0,-4,8,-4,3,-4,5
1576147189570779,9,7,-5,7,-1,4,0,-1
1576147189592817,26,-9,8,7,-7,-4,6,1
1576147189592817,-3,-4,5,-3,-2,0,7,0
1576147189593716,14,1,0,-14,-2,-2,5,4
1576147189593716,-41,-20,1,-10,1,5,-6,-13
1576147189614759,17,4,-4,-9,6,0,-5,-9
1576147189614759,-7,10,-9,-7,-1,2,-5,-12
1576147189615658,2,-1,-8,3,-1,0,0,-3
1576147189615658,15,5,-6,7,-1,-7,4,11
1576147189629719,11,-5,0,-6,0,-1,-3,4
1576147189629719,-13,2,9,-5,-9,-2,-4,1
1576147189630619,-2,1,5,-12,-13,-3,-3,3
1576147189630619,15,2,3,-2,3,2,-2,-2
1576147189652663,-22,7,-6,-11,7,-5,5,6
1576147189652663,9,3,0,-3,1,-12,2,-10
1576147189653558,5,-11,-12,10,4,-6,2,2
1576147189653558,3,-8,-12,12,2,4,2,-5
1576147189675497,-1,-5,6,9,7,8,-4,-14
1576147189675497,13,4,-6,1,0,42,-2,-2
1576147189675497,-8,-4,3,-1,1,17,-5,1
1576147189675497,10,3,0,3,-8,1,-6,-1
1576147189689460,-3,4,-1,3,-13,-15,-6,3
1576147189689460,5,7,0,-3,-4,-30,4,7
1576147189690458,-17,-4,-1,1,0,-14,9,-2
1576147189690458,9,1,-7,-6,0,-7,5,6
1576147189712503,-5,2,2,6,6,-10,-2,-1
1576147189712503,12,7,8,-1,3,-8,-1,8
1576147189713430,4,9,5,5,9,3,0,2
1576147189713430,3,1,3,8,3,1,3,0
1576147189735422,-3,-11,-2,-10,-11,7,-2,-17
1576147189735422,9,-11,-3,3,-2,6,-3,-4
1576147189735422,-4,3,4,-7,-14,2,2,-8
1576147189735422,11,7,-2,-11,-7,2,0,5
1576147189750331,-2,0,-5,-9,-2,11,0,9
1576147189750331,5,-6,3,2,8,-12,-6,-4
1576147189750331,-12,-10,0,-10,6,-14,-3,-4
1576147189750331,-4,6,6,1,2,-22,1,-5
1576147189772294,-2,7,9,12,0,4,4,5
1576147189772294,-17,6,-9,-4,-2,-2,1,4
1576147189773238,7,-9,-7,10,-3,-5,-6,-1
1576147189773238,-5,-2,1,3,3,-4,-4,-6
1576147189795277,10,-7,-4,-11,6,0,-3,3
1576147189795277,-5,-2,-3,-1,1,4,-7,-8
1576147189796210,-5,7,-5,-13,-2,2,-3,-2
1576147189796210,-33,7,-8,-3,-2,4,1,1
1576147189810141,4,-3,-4,14,-6,-8,1,-5
1576147189810141,-4,-6,1,4,-4,1,-2,3
1576147189817170,4,-5,2,-3,2,12,-4,2
1576147189817170,12,-3,8,9,14,13,-3,4
1576147189832126,16,11,0,-2,6,12,3,-1
1576147189832126,-16,1,0,-4,-6,5,5,-8
1576147189833079,-30,2,2,2,-1,-1,2,-20
1576147189833079,4,-2,-1,-9,-2,-5,-4,-2
1576147189855019,0,-9,1,5,-3,-5,0,13
1576147189855019,7,-3,2,-7,-8,-9,0,7
1576147189856058,6,-3,-10,1,-10,-6,2,-3
1576147189856058,26,8,-5,3,-9,-4,-4,-2
1576147189870082,6,10,3,2,1,-8,2,2
1576147189870082,-20,-6,-4,0,-1,-8,-7,-24
1576147189870987,-5,-4,6,4,3,6,3,0
1576147189870987,20,-4,8,-7,2,1,-1,-1
1576147189892962,-8,-15,-4,1,-5,5,-2,4
1576147189892962,3,-1,3,1,6,12,-1,5
1576147189892962,-8,7,-4,-1,1,6,-2,2
1576147189892962,-8,-1,-4,-2,1,3,-7,-6
1576147189914884,1,6,9,3,3,4,0,0
1576147189914884,3,-8,-1,1,-4,-5,-5,4
1576147189915855,21,-5,-6,-6,-3,-8,-5,2
1576147189915855,9,6,-13,-7,4,-6,2,4
1576147189929916,-43,-10,-11,-22,-8,-6,-13,-15
1576147189929916,-15,-3,1,-4,6,-3,3,-8
1576147189930817,0,6,-3,-2,2,-7,9,-3
1576147189930817,5,-3,-4,-8,-7,-8,9,-3
1576147189952873,15,8,6,-4,-4,-5,9,9
1576147189952873,13,-11,0,10,-6,-2,1,5
1576147189953753,-13,-7,8,34,-1,1,-2,-1
1576147189953753,-18,-3,2,16,0,4,-3,-3
1576147189974801,3,7,6,-2,0,3,-10,-4
1576147189974801,3,7,-8,-24,0,1,-4,4
1576147189975694,34,0,-2,-15,4,-5,-11,3
1576147189975694,-13,-2,-2,0,0,-4,-5,-17
1576147189989752,-5,-7,-8,10,3,-4,2,-3
1576147189989752,2,8,3,7,-1,-6,9,7
1576147189990657,10,-6,-8,7,-7,-5,5,8
1576147189990657,-19,-11,-5,-12,-16,-10,-10,-6
1576147190012699,10,7,-4,0,-1,3,-1,-1
1576147190012699,-10,4,6,-10,8,-3,-2,1
1576147190013638,6,6,4,-3,6,8,0,-1
1576147190013638,16,-1,19,3,-2,4,2,5
1576147190035535,4,-3,4,-8,-5,-4,2,8
1576147190035535,5,3,-6,-8,-6,-4,-3,-8
1576147190035535,-7,9,-9,-16,6,2,-6,1
1576147190035535,-9,-3,-20,2,0,-2,-5,-8
1576147190049501,9,3,-7,-2,-2,-5,-3,-6
1576147190049501,-3,-10,2,2,2,4,3,3
1576147190050501,-9,-13,1,-6,1,2,1,4
1576147190050501,-17,-4,-5,-8,-4,0,4,0
1576147190072539,8,7,-10,-1,-4,1,-3,-5
1576147190072539,7,14,-1,7,0,-2,2,10
1576147190073434,12,6,10,-2,0,-4,-4,-7
1576147190073434,5,-7,12,8,3,1,0,10
1576147190095374,-14,-1,13,10,-5,4,4,-3
1576147190095374,13,3,5,3,-6,2,-3,-1
1576147190095374,-2,2,-4,9,7,6,2,8
1576147190095374,7,-5,-10,-2,7,4,3,15
1576147190110336,4,-6,0,3,4,-3,1,1
1576147190110336,-28,-12,-14,0,-2,35,0,-2
1576147190110336,-9,-8,2,-4,1,51,-1,-19
1576147190110336,0,3,-8,-11,-4,40,-4,-13
1576147190132276,-11,-5,-15,-3,4,20,-4,0
1576147190132276,3,0,-5,0,-5,-3,-1,-4
1576147190133277,11,-2,-8,-11,-8,-24,2,13
1576147190133277,6,5,3,0,3,-2,6,14
1576147190155250,-16,4,11,-11,-13,-8,-5,-16
1576147190155250,27,10,11,12,1,-20,-3,-3
1576147190155250,-15,-4,13,11,0,-29,-1,-10
1576147190155250,-6,-16,11,6,2,-17,-5,-4
1576147190170178,-7,-4,-7,7,1,-11,3,6
1576147190170178,27,2,-2,5,3,-8,2,-3
1576147190170178,-3,4,-3,6,3,-10,0,2
1576147190170178,10,2,-7,-12,-4,-16,1,2
1576147190192150,11,4,-7,-4,-1,-5,-2,4
1576147190192150,-10,6,-3,0,-1,-13,-6,0
1576147190193117,8,3,-1,4,-8,-10,-1,4
1576147190193117,-23,-6,4,15,1,-6,-2,4
1576147190215054,-6,-4,7,1,0,8,5,15
1576147190215054,-13,-4,-14,-11,5,-1,-3,0
1576147190216051,6,2,-4,-12,-3,-1,-3,-3
1576147190216051,-1,10,5,9,-3,4,3,0
1576147190229017,-6,-16,6,0,-5,-8,0,-9
1576147190229017,-4,-7,-2,-10,-7,3,1,1
1576147190236995,-14,-2,3,-14,-5,0,-6,-10
1576147190236995,23,-3,4,6,5,1,-5,-9
1576147190251956,1,11,-16,-1,7,-10,-1,-2
1576147190251956,11,6,-6,10,8,1,6,8
1576147190252953,-22,4,-10,-2,-1,7,0,12
1576147190252953,14,-5,4,-4,-9,4,0,8
1576147190274894,15,-5,-1,2,4,4,4,5
1576147190274894,-2,-4,6,-8,-6,-7,-2,-7
1576147190275905,8,5,8,3,1,3,0,-3
1576147190275905,-11,10,1,-10,-4,-10,-2,-4
1576147190288857,-1,3,5,-5,-1,-2,1,-2
1576147190288857,-1,-5,-7,5,-5,-1,2,-5
1576147190296836,-6,-17,-8,-13,-8,-4,-4,2
1576147190296836,9,-2,-2,-1,7,-1,0,5
1576147190312793,-25,-7,-4,-6,6,4,-4,-6
1576147190312793,6,-4,-1,-10,-2,-3,-1,1
1576147190312793,17,5,-6,9,5,-1,-1,-6
1576147190312793,6,6,-9,-7,-3,2,-7,-5
1576147190334734,19,3,-1,9,-2,-4,-5,1
1576147190334734,12,-5,0,-1,-9,6,-1,-11
1576147190335732,-16,-3,3,-4,-9,6,3,-7
1576147190335732,-11,0,-1,-9,3,-3,2,-8
1576147190357673,5,5,17,-5,-3,3,1,-4
1576147190357673,-20,3,4,-8,0,-1,-4,-7
1576147190357673,3,-4,-8,2,3,-9,-7,-3
1576147190357673,-23,4,-2,10,8,4,3,-3
1576147190380611,1,2,-11,4,0,3,-3,-3
1576147190380611,9,-8,8,7,2,-1,5,3
1576147190381610,18,-1,-1,4,3,-4,2,-1
1576147190381610,-1,-9,0,4,-5,-3,-5,5
1576147190394573,15,-5,-3,-7,3,-1,-9,2
1576147190394573,-5,-1,-3,-11,4,1,-8,3
1576147190395571,-2,10,6,3,0,-3,4,7
1576147190395571,3,-3,0,6,-3,-4,4,-2
1576147190417527,4,-2,-7,-3,-9,-1,-1,-9
1576147190417527,1,2,2,9,-6,5,-7,-6
1576147190418512,12,13,-3,0,-4,5,-2,10
1576147190418512,9,-8,-1,-6,6,-4,-2,-3
1576147190439454,-8,2,-1,-15,6,-2,3,-3
1576147190439454,-21,-5,0,1,5,3,1,0
1576147190440451,5,-4,0,-7,-4,0,2,3
1576147190440451,0,12,0,-4,-15,0,-2,1
1576147190455412,7,1,-12,-1,-10,-2,-3,-2
1576147190455412,8,0,-11,-6,-2,-8,0,-1
1576147190455412,11,-6,9,11,-1,-2,-1,2
1576147190455412,-2,-11,0,8,5,3,0,4
1576147190477354,3,-5,12,0,9,8,7,21
1576147190477354,22,6,2,-6,11,4,4,9
1576147190478354,-1,7,-10,-12,-5,-2,-2,-9
1576147190478354,11,4,5,-2,-7,-6,4,3
1576147190500292,-1,3,-1,8,0,-2,3,7
1576147190500292,27,2,-8,1,-9,-4,-9,-11
1576147190500292,-9,-3,-8,-8,-6,2,3,-5
1576147190500292,-7,4,-10,0,19,-8,3,-7
1576147190515252,-25,-4,-6,3,4,-7,-3,-8
1576147190515252,-14,-9,-6,-1,8,4,0,-2
1576147190515252,0,-16,5,4,-3,8,-9,-3
1576147190515252,8,-1,9,2,-6,7,3,6
1576147190537192,2,-12,5,-3,-4,-11,0,3
1576147190537192,-15,1,6,0,6,-4,5,4
1576147190538191,-1,3,-56,-5,-1,-3,7,-6
1576147190538191,-7,-5,-25,-6,-15,-3,-1,-8
1576147190560134,22,3,-6,5,-12,-1,-2,8
1576147190560134,-9,-1,17,11,-9,1,-7,-1
1576147190561129,-7,12,27,1,8,-1,-5,7
1576147190561129,-9,2,1,-10,-1,1,-9,-6
1576147190575093,20,-1,18,4,2,0,1,-4
1576147190575093,19,-13,3,-2,-5,-8,-4,-2
1576147190576088,13,-11,-8,6,1,-5,-2,-8
1576147190576088,5,-6,-16,-2,-6,0,-3,-2
1576147190597034,-4,-2,4,-6,-4,0,-5,-11
1576147190597034,-11,0,3,-5,-2,-2,7,4
1576147190598031,-8,-1,26,2,-6,2,0,-1
1576147190598031,-21,0,13,9,-2,4,0,5
1576147190619972,-22,5,-17,-4,-4,7,0,1
1576147190619972,-29,1,-13,-10,-1,-2,-3,1
1576147190620970,-6,-10,-14,-2,7,0,-1,0
1576147190620970,-3,-7,-7,2,11,2,1,3
1576147190635930,7,-3,3,-6,1,-1,-3,-12
1576147190635930,-21,0,-6,-2,-5,-6,-3,-5
1576147190636929,9,8,8,-4,-2,-6,-8,-3
1576147190636929,-16,5,8,-1,3,-9,-5,2
1576147190657879,11,2,6,-6,-5,0,-3,-6
1576147190657879,27,8,11,-8,-12,1,7,0
1576147190657879,13,-8,10,-7,-6,-5,6,8
1576147190657879,14,2,2,5,4,1,5,-2
1576147190679820,9,1,-5,1,9,2,2,11
1576147190679820,-2,-2,-16,1,8,4,0,4
1576147190680819,-36,-8,-2,-11,-4,-11,-4,-5
1576147190680819,-17,5,9,4,-7,-5,-7,-1
1576147190694782,-19,-10,4,-4,-3,1,-3,1
1576147190694782,4,-1,-6,5,-6,4,-2,-11
1576147190695781,4,5,-10,12,-3,0,-3,-3
1576147190695781,-14,-14,-14,-2,4,-4,3,4
1576147190717718,1,-4,1,8,2,2,-8,-6
1576147190717718,-2,-4,-4,0,2,0,-6,-6
1576147190717718,-16,-6,9,9,3,3,-4,-10
1576147190717718,16,5,8,-3,-2,0,-3,-1
1576147190739695,-3,-4,14,-3,-2,-1,4,7
1576147190739695,3,9,5,-11,-1,-6,4,-2
1576147190740661,6,2,4,1,0,4,2,-5
1576147190740661,5,6,-6,-4,3,9,0,-10
1576147190754619,8,12,-12,-1,1,-3,2,-1
1576147190754619,-22,-4,7,4,-3,-1,-2,9
1576147190762596,-14,0,-4,-12,-7,5,2,3
1576147190762596,-9,-2,-7,-4,-1,5,3,8
1576147190777556,0,-6,-11,3,9,3,3,-3
1576147190777556,-5,5,-13,6,2,-6,-6,-16
1576147190778554,1,-6,-6,-1,-2,-9,-8,1
1576147190778554,0,-5,20,-5,-12,-3,-6,-1
1576147190799498,6,-3,2,6,0,-4,1,7
1576147190799498,22,4,-4,-2,0,-3,0,7
1576147190800496,-4,2,-14,-1,-1,7,-10,-4
1576147190800496,-15,-5,-10,1,-6,-2,-4,-6
1576147190814458,0,-1,-13,1,-1,-5,-3,-6
1576147190814458,20,5,0,-3,3,4,4,7
1576147190822436,26,4,1,1,6,3,6,14
1576147190822436,-14,-16,0,-8,-5,-1,0,3
1576147190837442,-30,-1,-1,-4,-1,-4,-7,-16
1576147190837442,-3,1,7,11,5,-7,-4,1
1576147190838398,-7,12,4,-3,1,1,0,0
1576147190838398,23,9,6,5,1,7,-2,-1
1576147190860370,-22,0,-1,-5,-6,-4,2,6
1576147190860370,-9,-11,-7,-10,-4,2,2,-5
1576147190860370,10,-1,1,-3,-4,-7,3,1
1576147190860370,-1,0,-7,-5,3,-1,2,-17
1576147190874344,-12,5,3,1,7,-2,-5,-7
1576147190874344,5,4,-8,4,-3,5,-2,-7
1576147190882277,-9,-11,-10,-2,-8,3,1,-2
1576147190882277,7,2,1,-7,-9,1,3,3
1576147190897242,8,-8,8,2,-1,1,2,-1
1576147190897242,12,-11,2,6,-2,-2,7,-3
1576147190898239,5,-4,4,-1,0,-5,3,3
1576147190898239,-5,-2,-4,0,-3,-8,1,9
1576147190920220,8,10,-11,-2,-2,2,-1,4
1576147190920220,3,-6,-7,8,5,4,-3,0
1576147190921174,-20,-8,-11,2,6,-4,-7,-16
1576147190921174,16,-2,-2,-1,2,-9,-4,2
1576147190934176,17,7,-1,-12,5,-1,6,11
1576147190934176,-1,7,8,-18,-3,-1,0,-3
1576147190942166,0,5,12,-4,3,-2,0,0
1576147190942166,-14,3,16,8,-1,-1,-4,-1
1576147190957734,6,0,1,7,-11,-3,0,-4
1576147190957734,-3,-1,2,6,-7,1,-4,0
1576147190958706,6,-2,1,0,4,3,2,11
1576147190958706,-11,4,-1,-2,5,7,1,-4
1576147190980674,9,-7,-7,-4,-9,2,-1,-5
1576147190980674,-12,1,-9,-6,-8,-5,-4,-7
1576147190987630,-12,0,-4,5,1,0,-1,-10
1576147190987630,8,3,-5,7,4,1,4,4
1576147190994643,-23,5,5,3,4,8,-11,7
1576147190994643,10,-4,8,-1,7,-2,-42,-3
1576147191002660,-2,0,-1,-8,-4,-5,-10,3
1576147191002660,-14,-16,-4,-14,-11,-13,0,-5
1576147191017602,5,1,7,8,5,-7,22,-8
1576147191017602,-4,-4,8,10,2,-2,20,5
1576147191018550,19,6,2,13,5,1,13,6
1576147191018550,17,3,-14,3,0,0,16,10
1576147191039564,-51,-25,-12,-10,-9,-1,0,-13
1576147191039564,-6,0,-6,-9,-1,-1,7,2
1576147191040488,-36,1,-1,-5,-2,3,0,-11
1576147191040488,-9,-3,-2,6,5,-1,-3,-18
1576147191054508,50,-1,-3,-1,4,-2,-9,2
1576147191054508,5,-6,-4,-2,4,4,-1,3
1576147191062470,1,5,10,-6,2,2,2,4
1576147191062470,16,9,8,-2,-4,-1,-6,4
1576147191077391,2,-3,3,4,-12,1,-5,-6
1576147191077391,-1,5,4,6,-4,1,6,5
1576147191078388,10,1,-6,5,2,0,-1,-1
1576147191078388,-14,-3,5,-5,12,2,-10,-12
1576147191100362,-7,-3,10,0,2,-6,-5,-2
1576147191100362,0,-5,-3,-6,-5,0,-2,8
1576147191100362,-9,-5,-3,-1,-17,-6,-4,-5
1576147191100362,28,8,-13,2,-5,-7,2,5
1576147191123278,15,-4,-14,-8,-3,-2,-3,-3
1576147191123278,-36,-3,-8,3,0,-4,5,3
1576147191124300,8,-15,-9,-7,1,1,-1,3
1576147191124300,-8,8,-1,-5,1,8,2,4
1576147191137275,-14,4,-3,-3,-2,5,3,1
1576147191137275,18,14,2,1,0,3,-6,-5
1576147191138230,-18,-3,5,-3,0,-2,-16,-14
1576147191138230,0,-6,-2,8,6,-7,-5,2
1576147191159793,6,14,-9,-3,7,-7,3,4
1576147191159793,-8,-2,2,2,1,-5,2,-7
1576147191160757,6,0,-1,-3,-3,-6,7,9
1576147191160757,-1,-12,15,1,-8,-3,-3,3
1576147191183694,9,5,-9,3,4,1,-3,2
1576147191183694,6,-9,-7,-4,-5,5,3,-11
1576147191183694,18,15,0,13,4,5,2,8
1576147191183694,0,-4,1,2,-6,0,-5,-2
1576147191197658,14,-2,-1,16,-7,0,-3,6
1576147191197658,-29,5,-3,-3,-5,-7,1,-4
1576147191198654,1,-8,-1,-9,0,1,-1,-5
1576147191198654,1,-3,-10,-11,0,1,-1,-5
1576147191219649,-17,-15,15,1,6,1,2,-7
1576147191219649,19,-8,0,-6,2,-2,0,-5
1576147191220597,4,-1,-3,-1,2,-12,3,5
1576147191220597,-7,5,3,-7,-8,-6,0,9
1576147191243569,2,11,-16,-3,-2,-6,-7,5
1576147191243569,28,3,4,-3,4,6,1,8
1576147191243569,-12,-5,3,-2,4,7,0,-2
1576147191243569,3,-5,-9,-5,2,6,6,-3
1576147191257548,-4,1,-4,-13,-5,8,6,3
1576147191257548,-12,-13,1,-10,-6,-5,-13,-22
1576147191258179,4,3,4,5,-3,3,-2,-6
1576147191258179,-9,3,12,4,-8,2,-2,-2
1576147191280077,4,4,7,-5,-9,-4,3,6
1576147191280077,-20,-4,-9,0,1,-3,-1,6
1576147191281102,-1,-4,6,-3,1,1,-4,3
1576147191281102,6,-4,-8,-3,3,1,-9,10
1576147191303111,-1,-1,-2,10,6,2,-3,-3
1576147191303111,18,6,5,5,5,-1,1,1
1576147191304012,5,-4,-8,-3,-6,-8,-3,-11
1576147191304012,-26,-9,-16,-5,-3,-3,-3,-11
1576147191317966,-4,-2,-6,-5,-1,-4,-3,-8
1576147191317966,6,3,5,6,-4,-1,7,11
1576147191317966,14,3,-1,10,4,-3,5,-1
1576147191317966,0,0,6,-2,3,1,2,-2
1576147191339911,-7,-6,0,-7,4,1,-1,0
1576147191339911,-16,-5,3,-3,-6,-3,-2,2
1576147191340907,2,6,-6,-6,-14,-1,-5,9
1576147191340907,-2,0,-9,3,-3,8,-3,-5
1576147191362849,2,0,-1,9,-10,10,2,-2
1576147191362849,-17,-1,-2,-6,5,1,0,-12
1576147191363846,12,0,7,5,13,-5,-3,4
1576147191363846,10,0,12,0,1,-7,-10,2
1576147191377809,1,1,-11,-14,4,-6,-7,5
1576147191377809,0,-1,-7,14,-2,0,1,-5
1576147191377809,-10,-12,-10,11,-6,2,-3,-1
1576147191377809,14,4,-7,1,9,3,9,2
1576147191399751,9,-1,9,-9,-3,-1,6,0
1576147191399751,19,4,7,-5,3,-1,1,1
1576147191400749,4,10,-1,-7,1,-5,5,-4
1576147191400749,-40,1,-3,8,-14,-9,-1,-2
1576147191422734,2,-7,4,16,-4,2,4,0
1576147191422734,6,-12,1,1,-7,0,2,-2
1576147191423683,-7,-3,4,-13,-7,-2,2,4
1576147191423683,3,7,1,-18,7,-4,-1,4
1576147191437649,-10,-3,0,-8,3,-13,-6,-7
1576147191437649,-4,6,-10,-6,0,-6,-3,2
1576147191438645,4,1,7,4,3,3,2,12
1576147191438645,4,-11,-4,9,-3,5,-4,-20
1576147191460110,3,-1,-14,11,1,2,-5,10
1576147191460110,-17,3,-6,6,0,6,-6,1
1576147191461108,2,7,-5,-7,-3,7,-1,0
1576147191461108,11,12,13,-6,-2,2,5,2
1576147191483049,36,5,13,0,0,1,-1,3
1576147191483049,18,-5,6,4,0,-1,1,14
1576147191484047,-23,-9,-12,-1,-5,-8,-4,-3
1576147191484047,7,2,4,11,4,-14,0,-2
1576147191497007,0,-1,1,-1,-1,-8,3,-14
1576147191497007,-10,-2,1,-8,2,-4,5,-2
1576147191498009,-5,-9,7,10,10,2,-3,-3
1576147191498009,3,-6,2,8,-1,11,-8,-2
1576147191519992,-19,6,-6,0,-9,7,-8,-4
1576147191519992,6,4,-20,-10,-5,3,-2,-7
1576147191520949,-14,-3,-5,-2,-3,-1,-5,-11
1576147191520949,22,1,-4,-6,5,-1,-3,10
1576147191542888,-16,-7,8,5,7,6,-2,2
1576147191542888,8,0,10,8,-2,-1,1,4
1576147191543884,2,-7,-7,6,-9,-5,3,5
1576147191543884,-2,-6,-7,-5,-9,-12,4,-2
1576147191557848,-8,-8,-10,0,-5,-8,1,-6
1576147191557848,-5,18,-9,-4,-3,-11,-4,-3
1576147191557848,7,9,1,-12,2,-7,-7,-4
1576147191557848,-15,5,-3,4,6,7,-4,2
1576147191579832,-4,-5,1,-3,6,8,0,7
1576147191579832,-10,-14,3,-12,3,8,1,2
1576147191580804,-3,-8,5,-9,8,5,7,0
1576147191580804,1,-13,8,2,-3,-7,9,-3
1576147191602769,5,2,-7,0,-4,-2,3,3
1576147191602769,12,-9,0,2,-5,-4,-6,-5
1576147191603726,10,9,-5,5,-9,4,-5,-6
1576147191603726,-28,-8,2,-5,-6,-8,-6,-7
1576147191617686,9,2,4,-1,2,1,-2,-1
1576147191617686,-10,1,-2,-2,2,3,-2,-8
1576147191617686,-2,-6,-1,-5,3,4,-4,-4
1576147191617686,11,3,-3,2,3,12,-3,3
1576147191639667,-5,1,-5,0,-6,2,-2,8
1576147191639667,18,0,-7,-6,5,2,2,9
1576147191640625,-33,-7,0,-5,-4,4,0,-6
1576147191640625,1,6,-3,-7,-4,0,-2,-3
1576147191662608,6,2,10,-1,-5,-14,1,-2
1576147191662608,14,-1,13,-1,1,-12,4,4
1576147191663588,-3,-1,12,-1,-3,-9,6,5
1576147191663588,-9,-7,-1,-10,-2,-9,-2,4
1576147191677570,4,4,-3,5,11,-2,-6,-4
1576147191677570,-2,5,-2,-5,-1,-8,-4,8
1576147191678526,4,11,9,11,-1,-4,0,-5
1576147191678526,3,-2,5,12,-5,-1,8,0
1576147191699555,-16,-18,-13,-3,-12,4,2,-10
1576147191699555,-18,-8,-12,-1,-5,16,5,-2
1576147191700558,14,3,-9,-11,-1,5,-2,15
1576147191700558,16,10,0,1,5,-4,-3,0
1576147191722550,6,-6,-9,-6,11,-17,0,-1
1576147191722550,-6,0,-7,-6,6,-14,-5,-3
1576147191723492,-7,1,3,-10,4,-9,11,4
1576147191723492,-5,-1,3,5,2,-3,4,-12
1576147191736502,22,9,-2,4,-12,2,-1,-5
1576147191736502,-16,0,6,13,-12,-2,-4,0
1576147191745446,-8,6,-15,18,-1,0,-8,-9
1576147191745446,16,-3,-10,-8,3,17,-4,6
1576147191760433,-6,-4,-6,-6,5,9,3,4
1576147191760433,17,2,5,1,4,25,3,10
1576147191760433,6,3,6,0,-3,79,4,-4
1576147191760433,-9,3,7,-6,-4,-22,-1,-13
1576147191782339,-23,-1,-3,-13,-4,-37,-3,-8
1576147191782339,5,-11,-7,-4,-1,-69,-3,-7
1576147191783331,-8,-15,-5,1,-2,-52,-7,6
1576147191783331,8,2,-12,4,-7,-10,-10,7
1576147191797301,2,-4,-6,-12,-8,-19,-4,3
1576147191797301,3,-2,-5,-9,2,-3,-3,-5
1576147191805274,-13,-8,5,-6,-3,-23,-6,-14
1576147191805274,4,5,12,-4,-5,6,8,-5
1576147191820290,-1,10,4,-6,0,6,-1,-8
1576147191820290,-15,6,10,-1,3,16,1,1
1576147191821231,20,-5,-10,-6,-4,-1,-2,2
1576147191821231,-14,-2,-11,6,2,-13,1,-3
1576147191842230,5,-1,1,11,-2,9,0,1
1576147191842230,2,2,1,7,-3,17,3,-2
1576147191843175,14,-2,7,2,-2,-3,1,12
1576147191843175,-4,-4,-3,-6,3,3,-6,4
1576147191857190,-12,3,-2,5,7,14,-3,1
1576147191857190,-3,11,-9,6,5,9,-6,3
1576147191865115,3,6,-6,6,4,-8,-1,3
1576147191865115,-1,0,-4,-6,-1,1,4,0
1576147191880129,2,-12,5,-2,-5,1,-1,-14
1576147191880129,13,1,7,-1,-8,-7,2,-6
1576147191881072,-13,-1,1,-4,-4,-8,2,-4
1576147191881072,-2,4,-9,3,-10,12,-1,-4
1576147191902069,25,7,-3,-2,-4,-7,-5,3
1576147191902069,-6,-10,4,3,3,-10,-7,-2
1576147191903013,6,-5,-8,-2,-3,-7,0,0
1576147191903013,0,-1,5,4,-4,2,8,11
1576147191916979,-21,8,12,2,3,11,-4,-10
1576147191916979,-2,2,-5,-9,4,3,1,-3
1576147191925008,-14,6,4,-1,14,4,-2,-3
1576147191925008,15,2,-10,2,4,-6,2,7
1576147191939915,1,-2,4,-9,-7,8,3,-1
1576147191939915,-2,-5,3,-3,-11,4,-3,-5
1576147191940910,9,7,0,9,3,-4,-7,-9
1576147191940910,-7,-1,-2,2,9,0,1,4
1576147191962910,10,-14,-6,-1,10,3,-2,5
1576147191962910,-5,-2,-3,0,-4,-2,0,6
1576147191962910,-10,-12,-4,-7,-7,3,-1,15
1576147191962910,4,-1,-11,-4,-5,4,-5,-11
1576147191976866,7,7,0,3,5,3,11,3
1576147191976866,1,0,5,6,-2,1,7,-5
1576147191984844,1,3,7,6,4,7,6,-8
1576147191984844,3,-2,12,-4,-5,5,-5,9
1576147191999755,9,-6,8,-9,1,2,-5,7
1576147191999755,5,0,-3,-11,-4,5,-8,-4
1576147192000755,18,-8,-12,-4,-11,3,-1,4
1576147192000755,6,-3,-18,1,-3,1,-7,1
1576147192022693,-32,4,-16,-1,-4,-2,-3,-10
1576147192022693,7,14,-1,9,3,3,4,7
1576147192023691,9,9,13,1,7,-1,5,-4
1576147192023691,-10,-11,4,3,0,0,2,2
1576147192036700,0,-8,0,0,0,-6,-3,5
1576147192036700,1,-20,-3,-14,0,-2,-5,-3
1576147192044688,-5,-4,-5,-8,-3,3,0,-7
1576147192044688,0,-6,-5,2,5,-1,0,-4
1576147192059650,1,5,-4,4,-10,-10,3,6
1576147192059650,14,-1,7,11,1,-12,2,0
1576147192060590,-7,7,5,11,-4,-12,-3,2
1576147192060590,-11,12,7,0,-5,-8,-7,-9
1576147192082566,8,-1,3,-6,1,-2,-13,5
1576147192082566,-4,3,-1,2,9,-1,-13,-4
1576147192083535,-3,1,3,-3,3,1,-11,-1
1576147192083535,2,-11,3,-8,-3,4,-2,1
1576147192105486,-2,0,5,11,-2,-8,10,-5
1576147192105486,-1,3,-8,-1,-10,-2,9,-2
1576147192106472,-19,4,-8,0,-3,-2,7,-1
1576147192106472,-28,-6,8,-12,9,-6,4,-9
1576147192120434,-8,1,1,-6,-2,6,3,-3
1576147192120434,-9,-8,2,1,2,9,-6,-6
1576147192120434,9,-1,-9,6,3,4,-8,1
1576147192120434,9,-1,-1,-64,1,-5,-4,6
1576147192142417,-5,-4,-1,-30,-3,-3,1,4
1576147192142417,-3,12,1,5,3,-1,2,11
1576147192143372,12,-11,0,7,-9,2,6,3
1576147192143372,-28,-12,2,38,-4,3,4,-2
1576147192165312,13,5,-8,17,-2,-7,0,-14
1576147192165312,6,-6,-15,12,2,-6,2,-2
1576147192166313,4,-1,-7,20,5,-7,0,8
1576147192166313,10,5,0,18,6,-6,-4,-3
1576147192180325,16,2,-2,12,9,9,4,2
1576147192180325,-5,3,-1,5,-4,14,6,-3
1576147192180325,0,-5,-7,-18,-8,-2,-4,-3
1576147192180325,18,1,-11,-5,-7,0,-6,-7
1576147192202256,-12,-14,9,-3,-3,1,-6,3
1576147192202256,1,-2,9,-5,5,-1,-2,1
1576147192203213,11,5,4,4,0,-4,2,-4
1576147192203213,-13,0,-14,3,-1,-7,8,5
1576147192226149,0,0,-4,10,-4,-8,-2,-17
1576147192226149,-15,2,-5,-2,8,-9,4,3
1576147192226149,-4,2,3,-6,1,-3,-6,-13
1576147192226149,11,4,12,-3,-5,8,-8,1
1576147192240160,11,4,4,-6,3,2,-4,4
1576147192240160,5,-1,4,-3,-11,-3,-2,0
1576147192241111,-3,5,-3,-13,-3,2,-9,-12
1576147192241111,-19,-2,-16,-6,4,-6,-3,-5
1576147192262087,-21,-5,5,-15,-5,4,-1,6
1576147192262087,-15,-15,-1,-1,-8,-2,-3,-8
1576147192263051,7,-10,2,15,-5,3,3,4
1576147192263051,16,-7,12,11,-5,1,2,-1
1576147192285989,10,7,-4,3,11,-8,0,1
1576147192285989,10,6,-1,-14,-1,1,4,10
1576147192285989,-22,2,-14,-14,-4,-4,3,-2
1576147192285989,-5,4,2,2,-7,9,-4,-14
1576147192299959,1,-1,-5,-4,-5,7,3,5
1576147192299959,9,4,0,6,5,3,-1,2
1576147192300948,-6,-3,1,3,2,-6,-4,0
1576147192300948,5,3,6,0,0,-11,3,11
1576147192322892,-9,-7,-1,1,-5,-7,-4,-2
1576147192322892,18,-2,9,4,-2,4,-4,-9
1576147192322892,-2,-5,-2,1,1,-1,-3,-7
1576147192322892,1,2,-6,8,7,-5,4,3
1576147192345883,8,13,3,15,2,2,5,8
1576147192345883,2,1,-1,-14,8,2,1,9
1576147192346829,-14,0,-9,-11,6,-1,4,5
1576147192346829,-8,-8,-17,-5,-2,-4,-5,-6
1576147192359838,-12,2,-6,-1,4,3,4,-7
1576147192359838,-28,-12,-4,-4,-17,-5,-3,-9
1576147192360787,12,3,6,-1,-6,-1,4,-3
1576147192360787,1,4,0,-8,-6,0,1,2
1576147192382730,0,-5,2,-16,-2,-5,-7,-12
1576147192382730,-8,7,3,6,5,-5,-8,-6
1576147192383730,17,-2,4,6,9,-8,-1,17
1576147192383730,-3,-2,-3,2,-1,0,-2,7
1576147192405669,4,0,-6,-18,-10,-9,-6,-15
1576147192405669,10,6,-13,3,-8,5,-3,4
1576147192406667,-4,-6,-3,-11,-9,11,-9,-15
1576147192406667,13,-5,5,2,7,5,2,-7
1576147192419675,-4,-7,14,5,8,-5,6,4
1576147192419675,2,-9,2,8,-5,-8,7,3
1576147192420630,-1,-1,5,8,-4,-7,0,-12
1576147192420630,35,17,12,4,7,5,1,3
1576147192442732,-24,10,-9,-5,3,3,1,3
1576147192442732,-19,0,3,-7,-2,-3,-3,-4
1576147192443680,-2,1,-3,0,-4,-6,2,10
1576147192443680,18,-3,-6,-3,-1,6,-8,-6
1576147192465617,-9,-9,-12,1,-4,0,-2,-1
1576147192465617,-5,-3,-13,9,5,6,0,-7
1576147192466628,-23,-2,1,-5,4,7,5,6
1576147192466628,6,-2,10,2,7,-5,2,12
1576147192480236,13,-6,8,2,1,3,1,6
1576147192480236,-1,-4,7,-6,-5,-2,-6,-5
1576147192481232,0,-3,1,7,-6,-1,-3,0
1576147192481232,-12,5,0,4,-7,-3,-1,-6
1576147192502200,2,11,-8,8,1,-6,-3,5
1576147192502200,8,-1,-6,-9,-4,-8,2,10
1576147192503164,4,-1,5,-12,3,-7,-3,0
1576147192503164,-27,-6,-5,-22,-1,4,-2,-7
1576147192525143,12,-9,3,-16,-11,3,-4,-5
1576147192525143,16,-9,-9,-3,-1,4,-4,0
1576147192532081,14,-1,-7,-3,5,-2,1,-2
1576147192532081,1,-11,-13,10,4,-6,-2,-1
1576147192540095,5,13,8,17,-23,-6,2,7
1576147192540095,-12,5,-5,9,-6,-2,4,-1
1576147192541116,-10,2,-62,3,-11,-3,-2,-4
1576147192541116,-5,-2,-28,11,5,2,1,8
1576147192562998,-13,2,-14,-6,19,4,-4,9
1576147192562998,-10,-4,17,-1,6,5,-5,-11
1576147192562998,1,2,41,3,10,11,-1,-1
1576147192562998,11,7,20,-12,0,6,5,1
1576147192585971,15,2,5,5,5,3,-1,-7
1576147192585971,8,1,15,-13,-7,-6,2,-4
1576147192586942,-17,-6,12,-9,6,1,0,-1
1576147192586942,-6,-2,10,-9,-4,-1,-4,-9
1576147192599899,-9,-6,7,-2,-3,2,4,3
1576147192599899,-11,6,-13,2,-4,-12,-1,-2
1576147192600898,15,3,-1,-1,-7,-2,1,6
1576147192600898,11,-3,4,-3,-4,-1,2,3
1576147192622873,1,-9,6,1,-1,-2,-113,-11
1576147192622873,-7,2,-9,18,8,-3,-57,-3
1576147192622873,-7,-2,0,11,-7,-7,2,0
1576147192622873,-21,4,-8,3,-4,-9,45,6
1576147192645821,35,1,-8,-7,0,6,82,9
1576147192645821,-6,-1,5,-12,4,1,49,1
1576147192646781,17,5,-7,-6,10,2,19,-1
1576147192646781,-11,-6,-10,8,3,-2,14,-4
1576147192659789,18,5,-4,10,1,-1,15,7
1576147192659789,-3,-8,-14,6,-2,0,-1,5
1576147192667717,3,5,-3,4,7,7,7,5
1576147192667717,12,1,-5,-4,-4,2,-11,-4
1576147192690692,-27,-8,-8,-15,2,2,4,-6
1576147192690692,-2,-2,4,-11,-3,5,10,0
1576147192691659,-11,-10,-1,-7,-10,-6,-6,-12
1576147192691659,9,3,8,8,-8,-4,-25,-4
1576147192705660,-8,-7,5,1,-12,-1,-10,-9
1576147192705660,-1,6,-1,-6,-2,-1,0,0
1576147192706630,-1,8,-2,-14,1,-2,-3,4
1576147192706630,1,9,-1,-16,4,-2,-11,6
1576147192719613,-1,-1,-2,-2,3,-7,4,5
1576147192719613,12,-19,-1,-3,-5,5,-6,-16
1576147192727570,-13,-80,1,25,2,5,-5,-7
1576147192727570,-4,-109,8,11,0,6,-3,-2
1576147192742619,17,-24,2,1,4,3,4,9
1576147192742619,0,22,-9,-14,-1,2,3,4
1576147192743526,5,76,-5,-2,0,-6,2,1
1576147192743526,2,69,-2,-2,-5,-16,-1,-5
1576147192765458,-6,47,-1,-11,-16,-8,2,6
1576147192765458,9,39,3,7,-2,-13,-5,1
1576147192766455,5,36,-11,-1,-8,1,-3,-2
1576147192766455,-19,32,-2,-3,-3,0,-4,-4
1576147192779450,10,21,-4,5,3,0,0,-3
1576147192779450,-3,15,-1,-2,9,6,-1,1
1576147192787498,-10,-8,3,-9,-2,-4,-3,1
1576147192787498,11,2,-1,-5,-6,-3,0,8
1576147192802458,-12,8,14,-4,-1,0,1,0
1576147192802458,21,-10,1,2,-5,6,5,-2
1576147192803399,4,-12,-13,0,9,-3,-1,-6
1576147192803399,6,9,-12,9,13,0,-10,-13
1576147192825339,9,1,-11,-3,-27,1,-2,-4
1576147192825339,-22,-8,-2,-5,-20,0,-3,2
1576147192826297,1,7,12,-16,-40,2,-2,5
1576147192826297,-26,-7,10,-14,-30,-9,-6,-9
1576147192839260,-3,1,-6,-3,2,-7,-1,-1
1576147192839260,-3,6,8,15,9,-4,0,-1
1576147192847342,14,0,-9,5,18,-2,-7,-11
1576147192847342,-12,15,8,13,23,0,0,2
1576147192862201,-7,-13,-7,-1,6,-5,-1,-9
1576147192862201,-7,-16,1,-2,9,-1,-5,-9
1576147192863197,1,-8,7,-6,8,7,2,8
1576147192863197,10,-10,-4,-3,7,11,4,2
1576147192885242,-2,-9,-15,-2,12,5,-3,-12
1576147192885242,5,-18,-3,3,11,-5,5,8
1576147192886137,-6,3,-3,12,4,-10,-2,3
1576147192886137,-12,-14,-6,0,-9,-3,-6,-7
1576147192899098,-9,2,9,10,-3,-3,4,5
1576147192899098,-13,2,-2,7,-3,8,3,1
1576147192907081,-6,-1,10,-20,-3,4,0,-5
1576147192907081,18,2,7,-14,0,4,3,4
1576147192922039,-6,-5,3,-4,2,1,1,-5
1576147192922039,14,-2,-3,1,-1,-13,-6,-4
1576147192923034,-19,-4,2,16,5,-3,-6,-4
1576147192923034,1,8,-6,-3,0,-5,5,-2
1576147192945082,0,5,5,10,4,9,6,3
1576147192945082,-2,-7,6,3,-9,8,2,-12
1576147192945980,0,0,4,5,-1,13,-4,8
1576147192945980,13,-1,5,0,0,8,-2,-3
1576147192959936,-6,2,-3,2,-6,-4,-5,-8
1576147192959936,23,7,13,25,-2,-10,-1,-2
1576147192967950,10,-4,5,-1,-6,-16,-3,6
1576147192967950,-10,-4,-13,16,2,-11,4,8
1576147192982873,12,-10,-17,31,-3,-7,-3,-2
1576147192982873,-26,-11,-11,8,0,5,2,4
1576147192982873,10,8,-14,4,0,-1,4,-1
1576147192982873,-13,19,-7,-22,2,6,-6,1
1576147193004818,-2,9,8,-26,15,-4,-2,6
1576147193004818,-5,-4,-8,-31,-4,2,-6,9
1576147193005818,-16,-8,6,-15,-3,-4,-6,-7
1576147193005818,16,2,7,-25,-7,5,0,10
1576147193027811,-13,-2,5,-7,-5,2,5,-7
1576147193027811,6,-10,4,-26,5,1,3,-4
1576147193028752,-12,-7,-7,-3,14,-5,9,6
1576147193028752,5,-5,3,7,16,-9,-3,2
1576147193042821,21,2,9,1,12,-1,-8,5
1576147193042821,-5,3,-5,2,2,-4,-6,6
1576147193043714,3,5,-32,8,-5,8,-1,-11
1576147193043714,-3,-2,-17,15,-11,-2,-2,-9
1576147193064658,14,-4,2,9,-12,-1,-4,-4
1576147193064658,-12,-6,-3,-8,-6,-2,-7,-8
1576147193065656,-8,-1,18,-4,-11,1,-5,3
1576147193065656,2,-11,17,-8,-2,1,-4,-5
1576147193088601,35,5,-4,-18,-8,-7,3,-2
1576147193088601,8,6,-1,-11,-3,-2,6,8
1576147193088601,-29,5,-2,6,-6,0,-1,-5
1576147193088601,20,4,5,25,-10,-1,2,-8
1576147193102655,4,3,0,3,3,9,6,18
1576147193102655,-20,-11,-6,4,1,6,-8,-11
1576147193103562,20,-8,-1,0,4,4,-1,3
1576147193103562,-14,-8,1,-3,-2,-11,8,3
1576147193125519,-7,-8,1,-7,-1,-10,0,-1
1576147193125519,-1,-2,-8,-5,-7,-7,-4,0
1576147193125519,-4,-3,0,-6,-2,-1,1,2
1576147193125519,16,-5,2,3,8,1,-4,3
1576147193148432,-22,-27,-7,6,10,3,1,-11
1576147193148432,-5,-12,4,11,9,0,-1,-2
1576147193149428,-20,-29,3,21,-2,7,-1,-5
1576147193149428,-2,-8,-3,-18,-23,-3,1,6
1576147193162491,8,9,2,-1,-19,-4,-6,-3
1576147193162491,6,21,-6,-20,-16,-5,4,4
1576147193163394,-16,21,3,-19,-2,-6,-1,-10
1576147193163394,6,19,-6,-3,2,2,-5,-10
1576147193185420,-3,11,-4,2,13,9,-5,-2
1576147193185420,4,17,-9,13,11,3,2,10
1576147193185420,23,4,4,11,0,1,-4,-2
1576147193185420,-8,-4,-7,9,13,2,4,7
1576147193208273,-8,12,4,9,0,0,0,5
1576147193208273,0,-9,-8,6,-12,31,-1,-6
1576147193209274,11,3,-1,-9,-9,84,6,7
1576147193209274,-15,-8,-7,-19,-12,50,0,-7
1576147193222341,-6,2,-7,-10,3,13,0,-10
1576147193222341,0,-2,8,5,5,-29,6,-5
1576147193223236,-13,1,1,-7,-1,-62,2,-6
1576147193223236,-10,-7,0,-7,-4,-42,4,1
1576147193245277,-7,9,-3,-18,-4,-27,8,5
1576147193245277,1,-4,9,-6,7,-13,-8,-7
1576147193246207,-2,-4,4,2,4,-2,-7,-5
1576147193246207,-19,-3,-5,16,35,-3,-7,4
1576147193268157,2,-12,-1,5,8,-7,11,7
1576147193268157,-7,2,4,-1,9,4,14,1
1576147193269115,15,1,1,-3,0,-7,4,-7
1576147193269115,29,15,9,-10,-21,-2,0,4
1576147193282075,7,-5,-3,-2,-17,4,-15,-14
1576147193282075,2,2,-15,-1,-7,3,-14,8
1576147193283076,-13,-8,-6,-2,-7,-12,-15,5
1576147193283076,-12,2,-6,-3,3,-7,-2,3
1576147193305016,-18,-8,-5,-8,-8,1,-3,-1
1576147193305016,11,2,9,-7,-5,0,4,2
1576147193306017,-15,-13,6,1,-2,-7,0,-3
1576147193306017,-2,-4,2,6,-8,9,-3,-2
1576147193327955,20,6,0,6,5,0,-1,-5
1576147193327955,-38,-14,-16,-15,8,-14,0,-5
1576147193328951,8,7,-10,2,23,-11,2,15
1576147193328951,1,-2,-13,-2,9,-5,-4,-10
1576147193342977,-6,-10,10,-3,3,-10,-8,-14
1576147193342977,11,4,2,7,-5,6,-3,-10
1576147193342977,-2,-3,-7,-4,-6,-4,4,6
1576147193342977,1,-6,-1,3,-14,-5,3,9
1576147193364853,-9,2,-14,3,-7,6,1,11
1576147193364853,19,3,11,-6,-11,-9,1,1
1576147193365850,8,-2,14,-1,-8,-3,0,-3
1576147193365850,-7,12,1,1,0,3,-3,-18
1576147193387890,-8,0,1,12,3,7,1,3
1576147193387890,-3,1,-1,5,-8,3,2,-6
1576147193388791,15,0,-14,-7,-3,3,-1,2
1576147193388791,17,0,-1,-9,-6,-7,1,4
1576147193402791,-3,-11,5,-9,0,-3,-3,4
1576147193402791,-2,-3,2,3,2,-6,-3,-7
1576147193403749,9,-5,5,6,9,-4,1,-15
1576147193403749,-6,0,-1,9,6,0,-2,8
1576147193424744,-11,-3,-5,-9,1,4,-1,-8
1576147193424744,11,6,-4,-5,6,6,3,17
1576147193425692,-17,-7,1,2,-5,7,-23,-3
1576147193425692,-1,8,9,-4,-6,-2,-10,4
1576147193448634,-6,1,-2,-3,-3,1,-3,-12
1576147193448634,14,-2,1,0,-2,-5,8,-6
1576147193448634,-32,-6,-1,2,0,-3,-1,-6
1576147193448634,17,-5,-4,11,2,2,5,5
1576147193462691,-2,7,-3,4,-1,-3,6,8
1576147193462691,-11,-2,-8,7,2,6,7,-7
1576147193463648,16,1,-3,0,2,-4,13,7
1576147193463648,-4,2,2,3,0,8,10,-2
1576147193484584,-11,-3,0,-8,-11,-5,3,-1
1576147193484584,-17,-12,2,-15,1,0,-5,0
1576147193485530,15,9,4,-16,0,0,-5,-7
1576147193485530,-6,-2,-10,-2,7,1,-6,-4
1576147193508470,17,8,-9,8,2,1,-3,8
1576147193508470,-6,-4,-4,11,-11,-6,-9,6
1576147193508470,12,-10,-1,-2,-13,-3,-4,5
1576147193508470,19,4,8,2,4,6,-1,1
1576147193522476,14,-1,8,-2,6,0,-7,1
1576147193522476,-30,-12,-9,-7,11,7,-11,-1
1576147193523450,-6,-17,3,1,5,3,-3,-3
1576147193523450,14,-4,-6,2,-1,1,6,4
1576147193545392,16,4,-2,2,-11,5,6,1
1576147193545392,2,5,-2,0,-9,-7,6,-2
1576147193545392,-11,9,-6,-13,1,-5,7,9
1576147193545392,-22,5,-3,-4,-1,-4,-5,-15
1576147193568310,6,-5,1,-8,-5,-2,-8,0
1576147193568310,8,12,15,3,-3,6,-8,-7
1576147193569308,2,2,1,6,-3,10,5,1
1576147193569308,8,12,-1,-3,6,-7,4,1
1576147193582274,-18,-2,-14,-4,7,-6,9,2
1576147193582274,2,6,-7,-1,4,-2,4,5
1576147193583273,10,4,-15,-13,-5,-8,0,6
1576147193583273,-20,-14,0,0,1,-1,-3,-6
1576147193605265,9,-1,6,2,0,0,-8,2
1576147193605265,-7,-5,-7,15,-7,-2,-6,-4
1576147193606209,-16,5,-4,3,-13,4,-8,-16
1576147193606209,8,-5,6,2,-6,-4,0,-5
1576147193628170,4,-7,6,1,7,-1,6,9
1576147193628170,1,-3,9,3,6,1,-5,2
1576147193629151,12,7,-2,0,1,3,3,-1
1576147193629151,-2,-5,-8,-11,-4,2,1,-2
1576147193642161,-18,-2,-2,-1,3,1,3,-7
1576147193642161,8,2,-4,0,3,-4,0,-2
1576147193650139,-4,6,0,3,-5,-6,-4,1
1576147193650139,-2,3,2,0,-2,-17,-11,15
1576147193665050,-7,-8,6,1,-4,-17,-7,-7
1576147193665050,7,2,2,-1,-3,3,2,2
1576147193666072,17,1,-2,10,11,12,4,3
1576147193666072,-3,-10,-9,-8,5,8,4,-3
1576147193688057,16,-6,-6,-7,-5,2,1,9
1576147193688057,8,-11,-11,2,-12,0,2,-10
1576147193688996,0,-4,-10,9,-9,7,5,-5
1576147193688996,-8,1,6,0,-4,0,-4,-1
1576147193702003,12,14,14,12,-10,-3,-3,5
1576147193702003,0,13,9,3,-1,-2,-1,5
1576147193709981,4,6,8,-6,6,-9,3,-1
1576147193709981,-19,-11,1,-10,-4,1,-5,-3
1576147193724890,0,-3,-15,-1,11,7,-7,-2
1576147193724890,-20,-15,-7,-1,0,0,-2,-2
1576147193725912,16,2,0,-2,3,0,-4,-7
1576147193725912,-5,7,-5,-2,-7,-5,-4,-4
1576147193747828,-10,-5,-5,0,6,-6,-3,-1
1576147193747828,9,3,-2,-2,3,-4,0,4
1576147193748829,-14,-4,-6,-7,4,-6,3,10
1576147193748829,2,3,-4,6,1,-4,3,0
1576147193761822,1,6,8,11,-3,-5,-4,-13
1576147193761822,4,1,-2,5,-2,3,4,13
1576147193769801,0,-8,12,-10,-7,6,0,-4
1576147193769801,28,6,8,0,-4,-3,7,2
1576147193784778,0,-5,4,-11,-2,-1,8,-1
1576147193784778,10,0,-10,-6,1,-3,-2,-3
1576147193785729,-2,0,0,1,-3,-6,-5,2
1576147193785729,9,2,-11,-1,-8,5,-6,4
1576147193808665,-18,-7,-3,-1,-2,7,-9,-26
1576147193808665,20,-7,7,-8,-3,5,-5,0
1576147193808665,-17,2,-5,-11,-4,3,-4,2
1576147193808665,-8,0,0,-1,2,2,0,-2
1576147193821670,-3,-5,-13,-6,-2,-8,5,8
1576147193821670,-18,7,3,11,0,-10,0,-13
1576147193829662,-7,-3,-4,5,1,-6,5,4
1576147193829662,5,-16,5,9,1,2,4,2
1576147193844601,2,-5,-2,-8,4,10,3,1
1576147193844601,-1,-5,1,-11,0,5,-5,0
1576147193845569,7,14,2,4,-5,-7,-5,5
1576147193845569,3,11,-3,9,9,-7,-2,6
1576147193868507,30,3,2,-1,8,-1,-1,13
1576147193868507,-14,-8,4,-10,-2,-1,-7,-12
1576147193868507,2,-3,-7,0,-4,3,-3,-10
1576147193868507,-1,-2,-6,-5,-7,3,0,-15
1576147193881471,-30,-8,-10,3,-11,5,-4,-16
1576147193881471,5,0,2,0,-2,6,4,7
1576147193889473,15,2,-2,4,0,2,-2,7
1576147193889473,-16,-8,7,-9,-5,2,-1,-2
1576147193905427,5,-6,14,0,6,2,4,2
1576147193905427,-2,-5,3,-7,4,-5,4,2
1576147193905427,-7,-16,6,10,8,-3,0,-10
1576147193905427,5,-2,4,-10,4,-3,-4,8
1576147193928368,7,9,-13,-5,-11,-10,-6,3
1576147193928368,-11,2,-18,-1,-6,4,-6,-3
1576147193929367,7,6,-11,9,-8,-3,0,-9
1576147193929367,-1,9,-14,3,7,-6,-1,-7
1576147193942308,-31,-5,3,2,0,0,5,-3
1576147193942308,13,3,7,2,7,-12,8,10
1576147193950342,0,-8,6,2,4,-1,-2,4
1576147193950342,-3,3,5,-5,-4,0,-5,2
1576147193965247,-8,-3,9,-8,-2,-4,-7,-7
1576147193965247,9,-2,-1,1,-8,-1,-2,2
1576147193966249,-13,2,7,-12,-4,-4,0,-2
1576147193966249,15,2,-6,2,1,-3,0,8
1576147193988206,13,-5,-2,9,-4,2,-6,-8
1576147193988206,-4,-1,2,10,7,-1,1,3
1576147193989192,2,2,-8,3,-1,4,6,-5
1576147193989192,3,3,-4,-3,-3,5,-1,-8
1576147194011131,-6,17,-3,-11,-9,-4,0,1
1576147194011131,-31,-16,-14,-13,1,0,-5,-5
1576147194011131,-5,-5,-10,5,7,-7,-4,-1
1576147194011131,2,0,2,7,0,-4,10,5
1576147194025137,0,-12,3,-9,-3,3,-3,-4
1576147194025137,-15,7,19,-13,-3,0,-3,5
1576147194026119,23,18,8,-1,-3,1,-5,16
1576147194026119,-21,-8,-2,-2,-4,-3,-6,-16
1576147194048026,9,10,-11,14,-1,-1,5,11
1576147194048026,-10,8,-10,13,0,1,1,-12
1576147194049030,2,-14,-20,-13,1,1,-1,-9
1576147194049030,5,-3,6,-4,3,-4,6,2
1576147194071009,13,2,-4,-6,-3,0,-5,1
1576147194071009,27,-6,-1,-5,-7,5,-6,8
1576147194071009,-35,-8,18,-3,-5,1,-3,0
1576147194071009,-15,-18,10,-1,-7,-2,-3,-8
1576147194084932,-1,-2,2,3,2,-4,2,-1
1576147194084932,-2,-4,-9,-1,3,-4,2,-2
1576147194085928,13,6,-10,5,3,2,5,5
1576147194085928,3,-1,-9,-12,-2,6,2,4
1576147194107891,-5,1,-1,5,5,-9,2,-2
1576147194107891,7,5,0,3,-7,-3,0,0
1576147194107891,-2,10,1,7,4,-5,-4,-7
1576147194107891,6,11,-3,15,-2,-9,-3,-4
1576147194137842,-2,-6,-5,4,-12,-1,-7,-2
1576147194137842,1,-11,5,-7,1,-4,-8,-5
1576147194138786,0,-12,11,-4,-1,-16,-2,3
1576147194138786,-2,2,-1,-3,9,-4,-5,0
1576147194144813,25,6,0,0,7,-2,1,0
1576147194144813,-9,12,0,3,-3,2,8,4
1576147194145770,-14,2,-11,-8,-1,-4,-1,-12
1576147194145770,12,-1,-1,-11,-3,-9,-3,-4
1576147194167812,-7,-13,11,5,2,-12,-3,-5
1576147194167812,24,-1,-6,10,-1,-3,3,2
1576147194168713,12,-5,4,1,-9,13,2,7
1576147194168713,-10,-1,-8,-15,-4,10,-3,-3
1576147194190689,7,5,-10,3,3,20,2,9
1576147194190689,-11,-5,-2,5,-5,4,2,-4
1576147194191647,-6,-9,2,-9,2,6,3,3
1576147194191647,16,-1,2,3,1,2,5,7
1576147194204610,-13,-2,6,-9,-1,2,2,-5
1576147194204610,16,0,3,5,5,7,-4,-7
1576147194205610,12,3,-12,11,6,3,-9,4
1576147194205610,-34,-4,-8,-3,6,7,-7,-3
1576147194227603,1,-3,-6,-6,-8,0,6,3
1576147194227603,-1,9,7,-2,3,-7,1,3
1576147194228547,0,-4,12,-11,-2,-4,1,1
1576147194228547,10,3,5,0,-5,-2,-7,-12
1576147194250487,3,8,-7,4,7,-4,-2,8
1576147194250487,-2,-1,-3,-5,-13,2,-7,-2
1576147194251487,-3,-3,-2,4,-4,-6,-8,-14
1576147194251487,-3,-4,1,10,-1,5,4,10
1576147194265446,-19,-7,5,-9,-5,1,2,-13
1576147194265446,-7,7,-6,-1,4,-2,1,-2
1576147194265446,-19,6,-8,0,2,3,6,-3
1576147194265446,15,-8,-8,-3,0,-4,4,0
1576147194287481,0,-3,-1,0,0,-2,-5,-2
1576147194287481,-29,-12,3,-4,-3,-9,-1,1
1576147194288387,-15,3,-1,5,-9,-12,-2,-9
1576147194288387,9,6,1,-8,-6,-5,0,4
1576147194310369,-4,-17,-4,-8,1,8,-2,1
1576147194310369,14,-8,-10,-11,-6,2,-6,-11
1576147194311324,2,-7,-6,-1,-1,6,-15,1
1576147194311324,11,1,1,2,-3,-1,-12,-2
1576147194325289,1,7,4,0,-1,-12,-13,-4
1576147194325289,-6,2,0,-4,8,-1,0,3
1576147194326287,1,2,5,-9,2,-10,1,-13
1576147194326287,2,13,-8,9,5,-4,7,3
1576147194347326,-17,1,-7,6,-3,4,11,8
1576147194347326,10,-1,-10,12,-1,10,8,1
1576147194348224,0,-71,-1,-1,0,5,8,-3
1576147194348224,2,-56,2,-2,-6,13,0,7
1576147194371206,-5,-12,9,-3,-12,-4,1,7
1576147194371206,4,3,8,4,4,-12,-3,3
1576147194371206,11,46,-6,1,-1,-1,-3,-3
1576147194371206,9,24,9,6,-3,-4,-2,-2
1576147194385170,10,23,-2,2,6,-4,2,3
1576147194385170,-28,17,5,-10,3,-2,3,-10
1576147194386133,-1,18,-6,-5,4,-5,0,-3
1576147194386133,6,6,-2,-4,3,6,-2,-3
1576147194408067,5,10,5,15,-2,4,-2,-5
1576147194408067,6,5,2,5,-3,-4,1,3
1576147194408067,8,-7,7,-4,1,-9,9,16
1576147194408067,-28,2,4,-4,0,-3,-1,-10
1576147194431050,-1,4,-6,-10,2,2,-5,-2
1576147194431050,7,-9,-5,-12,-8,0,-2,0
1576147194432004,-2,-2,-8,-14,-10,7,0,9
1576147194432004,8,-2,6,-7,-5,0,-6,-1
1576147194444971,-20,-4,0,-9,6,-3,5,-3
1576147194444971,5,-5,0,2,-1,-8,8,4
1576147194446006,6,5,4,-6,-3,-1,3,-3
1576147194446006,0,3,4,6,11,-5,5,0
1576147194467909,-16,-9,3,10,-3,1,-11,-12
1576147194467909,4,-3,-17,2,-9,-1,-5,3
1576147194467909,19,7,-9,16,-4,3,-4,0
1576147194467909,-14,-10,-3,2,-11,-7,-6,0
1576147194490761,-2,-7,14,20,5,-2,-2,5
1576147194490761,-13,-4,8,-1,-2,2,-3,2
1576147194491760,-2,-8,-1,-7,-1,1,2,4
1576147194491760,18,5,1,-4,4,3,6,7
1576147194504724,3,7,-16,-2,0,-4,2,4
1576147194504724,5,2,-9,-6,-6,0,-4,-10
1576147194505724,-48,2,6,5,-1,-9,-5,-10
1576147194505724,7,0,-2,5,-9,-5,1,-9
1576147194527665,5,-10,10,4,-1,-4,-1,-7
1576147194527665,12,1,1,9,9,3,-3,7
1576147194528660,7,-5,3,-16,-2,1,0,0
1576147194528660,-18,-2,5,-14,-5,-4,-1,10
1576147194550600,-16,-4,-10,-10,-6,-3,-11,-6
1576147194550600,1,-1,-3,13,7,6,0,-7
1576147194551602,5,8,-3,8,5,4,-5,-11
1576147194551602,7,4,-10,2,-4,3,0,2
1576147194564563,10,4,-12,-19,-8,1,-4,-1
1576147194564563,13,-5,-8,-15,-4,-1,-9,-12
1576147194572547,-25,-1,-4,1,2,-2,1,2
1576147194572547,2,-9,7,7,1,5,7,1
1576147194587114,-25,-11,3,2,0,-1,-1,-2
1576147194587114,10,-10,11,6,0,-3,-5,1
1576147194588113,14,-9,3,8,3,-1,4,10
1576147194588113,-9,-2,-5,-6,1,3,5,1
1576147194611082,1,4,1,-5,0,3,10,6
1576147194611082,-9,10,3,1,-4,-4,-1,-9
1576147194611082,14,2,-2,-1,-9,1,-1,0
1576147194611082,-12,-1,-12,-1,-6,-11,-2,-1
1576147194624067,9,4,2,-4,-5,-6,5,-1
1576147194624067,-10,15,2,-4,3,4,-4,6
1576147194633023,2,15,2,-5,1,0,-13,-16
1576147194633023,26,11,7,4,4,-24,-10,-12
1576147194647952,-6,1,-4,-4,2,-16,2,5
1576147194647952,3,-14,0,-1,-4,-7,1,-2
1576147194647952,-11,-8,-3,9,0,13,4,8
1576147194647952,-10,-4,-7,1,4,24,-2,1
1576147194670995,12,-10,-3,-4,4,6,1,-2
1576147194670995,13,4,10,-3,0,3,1,3
1576147194671905,3,-13,8,-2,0,-7,-3,3
1576147194671905,3,-1,1,6,-5,-3,-1,1
1576147194684853,-14,7,-12,8,-5,10,5,1
1576147194684853,-19,-15,-9,-4,-1,11,7,0
1576147194692952,13,-4,-2,-8,3,2,2,0
1576147194692952,-9,-8,-4,-5,7,-2,-7,-1
1576147194707907,20,4,4,-6,5,5,-6,1
1576147194707907,8,-2,-10,-1,-1,-2,0,14
1576147194708790,2,6,-7,-8,-5,4,-2,-7
1576147194708790,11,-2,7,-1,-4,1,1,-6
1576147194737767,6,4,4,-5,-4,-2,0,2
1576147194737767,-17,1,15,16,-4,-5,4,13
1576147194738709,-18,-12,-5,7,-5,-9,-6,-1
1576147194738709,1,-2,-3,-1,0,0,-3,-3
1576147194744793,18,0,2,17,3,4,-10,-2
1576147194744793,17,1,-5,1,4,-5,-69,1
1576147194752775,8,10,-4,-5,5,-3,-23,6
1576147194752775,1,14,-8,-6,3,-1,3,14
1576147194767729,-22,-4,0,1,-8,-4,35,0
1576147194767729,-4,2,14,-7,-1,3,48,4
1576147194768674,7,5,8,11,2,-7,25,-2
1576147194768674,-5,4,-3,-3,-2,-5,21,-4
1576147194790675,20,0,2,-7,-11,0,6,6
1576147194790675,-6,-2,-7,-1,-14,-1,9,-6
1576147194791570,-5,-8,3,-2,-4,10,6,9
1576147194791570,1,-11,0,-3,3,4,-2,-7
1576147194804636,-33,0,-14,4,12,-1,-20,-34
1576147194804636,-8,6,-5,-2,8,-4,-7,-5
1576147194812614,9,1,-6,-1,-6,-6,-6,-4
1576147194812614,-8,3,-2,4,-23,2,-11,-1
1576147194827578,-2,-16,6,-3,-6,-5,-12,1
1576147194827578,-11,-14,1,-5,6,-10,7,-3
1576147194828477,-8,-11,-9,1,16,-4,1,-14
1576147194828477,-1,-5,-7,-5,10,2,-1,4
1576147194850510,1,-9,-7,-5,-3,-4,-9,8
1576147194850510,6,10,10,-8,4,-2,0,6
1576147194851410,5,3,10,-6,-3,-1,-5,1
1576147194851410,-2,-1,3,11,-2,-6,-10,2
1576147194873454,15,13,-5,11,2,1,-2,0
1576147194873454,-35,-11,-16,-2,-8,1,-5,-19
1576147194874382,27,5,-8,-9,-9,5,5,5
1576147194874382,-5,4,8,5,-3,7,-2,-6
1576147194887418,15,-2,15,-15,-4,-3,1,8
1576147194887418,-4,1,0,2,1,0,6,1
1576147194888317,4,-9,-4,-6,7,4,7,-8
1576147194888317,-4,-3,-11,-1,10,4,5,-3
1576147194911248,-2,5,-10,6,1,3,-7,4
1576147194911248,-2,4,7,12,-2,-10,-14,-10
1576147194911248,-12,1,8,2,-1,-10,-7,6
1576147194911248,7,8,3,0,-4,-3,-1,12
1576147194933291,-20,-5,-1,5,-9,0,8,0
1576147194933291,-1,-13,-7,-17,-15,14,14,18
1576147194934192,11,-8,-9,2,0,7,-4,-21
1576147194934192,-4,-16,-8,-24,1,-3,-2,-6
1576147194947204,7,-1,3,0,10,-3,-3,-4
1576147194947204,-9,0,-9,2,2,-7,-9,0
1576147194948149,0,2,-5,0,-3,0,-1,10
1576147194948149,4,-2,2,-6,-1,2,-3,-2
1576147194971124,5,3,-7,7,1,5,0,-9
1576147194971124,19,9,6,10,0,1,1,-3
1576147194971124,13,14,3,7,10,1,-1,8
1576147194971124,-23,-4,1,5,0,-8,-4,-11
1576147194993084,4,-10,4,-1,-1,-6,-1,-1
1576147194993084,9,-7,8,-3,0,0,4,5
1576147194994048,-5,4,2,-2,-10,-8,-3,9
1576147194994048,-11,2,-9,-3,-9,-4,-1,4
1576147195007043,-32,-2,4,5,1,3,-4,3
1576147195007043,0,-14,-14,-4,-8,3,-9,-19
1576147195007989,-2,-7,-1,-7,-7,-1,-5,-24
1576147195007989,26,0,7,-3,2,-9,5,-4
1576147195030927,-4,1,1,-14,-5,-9,6,15
1576147195030927,-5,7,-5,3,11,6,-5,-9
1576147195031926,15,4,1,2,1,1,2,11
1576147195031926,8,-1,-12,2,1,2,-2,0
1576147195052903,23,-4,-2,-11,-4,-4,2,5
1576147195052903,-4,-6,1,1,-3,0,1,-5
1576147195053867,-26,-2,-2,-3,4,-21,0,0
1576147195053867,-2,2,8,-11,-5,-50,7,0
1576147195067874,5,6,-8,2,1,-13,2,-2
1576147195067874,8,4,-7,1,6,5,1,-3
1576147195067874,-4,6,-7,0,-6,29,-5,0
1576147195067874,13,-4,0,6,-6,32,-8,-9
1576147195090781,-6,-15,3,2,-11,16,-6,3
1576147195090781,-3,3,-3,9,-4,18,-3,-20
1576147195091819,3,-7,-4,-4,5,6,2,1
1576147195091819,2,7,-8,6,9,9,1,-2
1576147195113751,5,8,5,5,10,-2,0,-11
1576147195113751,-2,9,0,-1,0,-5,1,8
1576147195113751,5,9,6,-7,-14,-7,-2,-2
1576147195113751,4,-4,4,-12,-10,0,-4,3
1576147195127781,0,-8,4,-6,7,14,-2,-3
1576147195127781,-14,1,-6,-10,0,-6,-4,-6
1576147195128677,35,0,2,11,-2,0,6,15
1576147195128677,-54,-19,-6,7,5,0,-3,-6
1576147195150709,-6,0,-1,3,0,-12,4,-1
1576147195150709,16,-8,-3,-6,0,-8,-2,-2
1576147195151660,15,1,4,6,-4,-6,-7,-7
1576147195151660,19,5,11,-2,2,5,-3,4
1576147195173662,2,12,-3,0,-3,-8,3,3
1576147195173662,-7,-2,10,9,6,-4,4,10
1576147195174545,-29,-7,-4,-11,-5,1,-4,-8
1576147195174545,8,4,-5,-1,-2,8,-1,2
1576147195187621,-29,-12,-12,0,-2,6,-4,-11
1576147195187621,5,2,-6,-4,1,2,0,12
1576147195188519,-11,-5,-4,3,-1,-11,-5,-8
1576147195188519,4,16,6,2,-2,-8,-1,4
1576147195210551,13,18,6,-4,1,4,3,10
1576147195210551,2,-3,3,-6,3,-1,6,8
1576147195211451,-9,-8,-2,9,5,5,10,-5
1576147195211451,-8,0,0,9,2,5,0,3
1576147195233487,5,-4,-1,2,-5,1,-1,2
1576147195233487,-1,-6,9,-7,-9,-11,-8,-16
1576147195234395,-13,-3,2,-9,-2,-5,-3,-1
1576147195234395,23,-1,8,-3,-10,-1,3,1
1576147195247450,5,2,2,9,1,7,-5,-1
1576147195247450,5,-6,-14,-5,-4,-9,3,6
1576147195248357,-4,0,-13,-2,4,-4,3,5
1576147195248357,-12,2,-5,5,-1,-2,-5,-8
1576147195271288,-2,4,4,7,9,-4,-9,-4
1576147195271288,-17,8,6,8,3,-4,5,2
1576147195271288,15,9,2,1,-5,2,5,15
1576147195271288,-25,-8,-14,-18,-16,-3,-11,-39
1576147195293326,-11,-13,-4,-5,-8,-4,-3,-7
1576147195293326,27,13,1,1,4,-5,0,6
1576147195294279,16,2,-4,3,5,-2,-1,-2
1576147195294279,11,-6,3,-14,5,4,2,12
1576147195307291,21,3,-4,-16,-8,-13,-3,2
1576147195307291,-30,-13,6,4,-5,-5,-2,3
1576147195308189,11,-6,0,1,-4,-3,-2,-15
1576147195308189,12,-2,-5,7,4,-4,2,3
1576147195331128,7,2,-5,-2,2,3,3,5
1576147195331128,3,5,4,-3,-6,0,3,3
1576147195331128,-22,-4,6,1,4,-3,-1,10
1576147195331128,0,-26,-4,5,5,5,-1,2
1576147195353163,-11,-2,-11,2,6,1,-5,-18
1576147195353163,2,-6,-10,-9,-8,6,-4,2
1576147195354121,-31,-20,-8,-6,-11,3,-5,-4
1576147195354121,17,5,-4,7,-10,-2,-1,8
1576147195368028,-23,5,6,9,6,4,10,6
1576147195368028,-1,-8,-7,-16,1,-5,0,-16
1576147195368028,-1,5,5,-8,8,-1,-1,2
1576147195368028,5,11,5,2,2,-3,-1,8
1576147195390064,9,14,-3,-6,1,1,-2,-5
1576147195390064,7,18,4,9,0,2,-2,4
1576147195390979,10,5,-4,-4,0,-5,-1,1
1576147195390979,-10,-8,0,6,-1,3,1,2
1576147195413010,31,15,3,12,-5,3,-5,-1
1576147195413010,-63,-9,12,-13,-2,5,0,-7
1576147195413910,7,6,1,-7,-5,7,3,5
1576147195413910,-7,6,1,-6,6,0,0,-2
1576147195427920,3,-20,-4,3,0,-7,-1,-1
1576147195427920,21,-3,-2,12,-1,-9,3,12
1576147195427920,-4,-9,-5,3,-1,-8,1,-4
1576147195427920,-6,-3,-11,-12,-2,-3,0,0
1576147195449905,-14,-16,-6,-9,1,7,-1,0
1576147195449905,23,3,-16,-2,-4,-1,-5,3
1576147195450816,3,5,8,11,0,-3,-1,8
1576147195450816,-4,4,3,2,-1,-4,-2,-6
1576147195473756,21,-13,-4,-17,-5,-6,-10,-10
1576147195473756,-5,-1,12,8,3,5,0,0
1576147195473756,25,-6,6,6,4,7,7,2
1576147195473756,3,-3,7,3,-1,5,6,-2
1576147195487811,-12,0,2,1,-6,2,6,-2
1576147195487811,43,9,-11,-10,-6,8,3,-3
1576147195488716,-77,-12,-13,0,5,5,-4,-11
1576147195488716,-17,2,-3,10,2,3,-4,5
1576147195510648,-14,-11,-1,3,-2,-7,0,3
1576147195510648,9,5,5,2,-3,-8,-1,10
1576147195510648,-3,6,16,-4,-15,-12,-5,-11
1576147195510648,-6,-1,3,-12,-4,-2,-4,0
1576147195533640,5,-3,5,1,10,8,1,2
1576147195533640,-1,7,0,-2,0,-1,-5,-1
1576147195533640,4,7,6,-4,3,0,2,0
1576147195533640,-40,-13,5,3,7,-12,-13,-46
1576147195555623,17,6,3,5,-4,-6,-1,1
1576147195555623,1,-8,-8,5,3,1,0,-5
1576147195556528,22,-5,-8,0,-15,-2,1,4
1576147195556528,8,14,-10,-7,-5,5,3,10
1576147195570533,-21,10,-2,-10,-4,1,-3,-1
1576147195570533,-1,0,-10,-11,5,2,-5,-8
1576147195570533,7,6,1,5,13,6,5,-2
1576147195570533,-12,-14,-11,-14,0,-3,-1,-5
1576147195593527,-4,-1,-6,4,0,-9,-1,-4
1576147195593527,-13,-5,9,5,-2,-2,1,7
1576147195594429,18,-2,0,2,2,-4,-1,13
1576147195594429,20,9,2,16,3,6,10,19
1576147195607399,-18,9,4,3,9,8,3,1
1576147195607399,7,2,3,-7,-3,-1,3,2
1576147195615367,-24,-20,-4,-14,-3,-6,-1,-1
1576147195615367,2,7,-2,1,8,-4,-1,4
1576147195630437,4,-15,-7,-14,-4,-12,-8,-5
1576147195630437,-1,-2,2,2,4,-4,-6,-10
1576147195631335,10,-1,7,6,-2,5,-4,-1
1576147195631335,-2,0,2,2,-7,7,6,9
1576147195653365,10,0,3,11,-10,7,4,7
1576147195653365,-14,1,-12,3,0,-3,1,-9
1576147195654270,-15,8,2,4,1,-6,-7,-6
1576147195654270,2,3,5,-2,-1,-6,-8,-2
1576147195667231,10,15,-2,1,-1,-1,0,7
1576147195667231,-6,-9,1,-8,-1,-4,-2,-5
1576147195675306,-10,-13,-17,-17,-3,-1,-7,-25
1576147195675306,3,-1,-5,-24,-5,2,1,2
1576147195690317,4,2,-2,10,1,1,4,1
1576147195690317,14,-4,0,15,-3,2,4,19
1576147195691247,7,-19,-9,6,7,-3,-1,4
1576147195691247,2,-3,-6,6,2,-7,-2,11
1576147195713255,12,10,1,-5,-1,-7,-12,-10
1576147195713255,-30,14,-3,-6,3,-1,-2,7
1576147195714151,12,0,2,-16,-3,0,-5,-30
1576147195714151,26,4,1,7,2,4,11,0
1576147195727215,-15,-22,3,6,-5,6,3,-13
1576147195727215,3,4,2,2,-4,5,5,3
1576147195743105,10,9,0,-3,-2,2,6,18
1576147195743105,14,1,-2,-2,6,0,3,-3
1576147195750100,-8,-10,-4,-3,6,-6,-2,0
1576147195750100,5,0,0,3,2,-5,-8,-12
1576147195751094,-6,6,0,0,-2,-4,-2,-3
1576147195751094,25,13,8,9,-8,-1,-10,6
1576147195773093,-15,8,2,15,0,7,-6,15
1576147195773093,-8,-56,-20,-14,-11,-8,-24,-18
1576147195773995,2,15,-18,-3,0,-1,-6,-3
1576147195773995,13,-6,-7,-17,-6,-9,7,-13
1576147195787055,19,6,-1,5,5,6,18,-17
1576147195787055,-14,-4,11,1,1,7,11,17
1576147195795034,-1,0,5,-1,0,0,6,0
1576147195795034,-4,2,5,-2,2,-8,0,14
1576147195809997,-9,-1,3,-17,-2,-3,-6,-1
1576147195809997,11,2,-12,-5,-3,1,-9,-31
1576147195810929,-28,-10,6,6,-4,15,-1,-4
1576147195810929,-25,-7,9,12,-1,7,2,1
1576147195832836,0,-1,4,-4,-3,-10,2,10
1576147195832836,12,3,-4,1,0,-9,3,-1
1576147195833832,30,13,-12,0,-7,2,-5,19
1576147195833832,-35,-3,-15,-3,-4,-1,-5,-10
1576147195855867,18,0,-4,5,-2,-4,-5,-18
1576147195855867,-18,3,5,6,5,-6,1,-1
1576147195856776,17,14,6,0,1,-6,10,7
1576147195856776,9,16,13,9,6,10,7,27
1576147195869836,7,-16,-2,-11,-2,-9,-15,-23
1576147195869836,0,24,7,5,5,5,2,11
1576147195870735,7,4,3,3,1,4,8,5
1576147195870735,19,12,-1,3,-3,9,2,0
1576147195893732,-13,10,1,3,-7,4,7,11
1576147195893732,-1,-6,-8,-2,-4,-1,1,-13
1576147195893732,-6,-8,-9,2,4,-8,-1,0
1576147195893732,-15,-18,3,-6,9,-11,-11,-22
1576147195915644,-8,-18,-5,-6,1,-2,-8,4
1576147195915644,-9,-7,3,-15,-6,-1,-7,-8
1576147195916643,17,0,12,3,3,-4,-2,8
1576147195916643,-19,-22,-4,-6,-11,-7,-9,-30
1576147195930595,-3,-2,12,-10,-14,5,-1,2
1576147195930595,4,1,-8,5,-8,6,9,4
1576147195930595,5,7,-14,2,0,8,6,3
1576147195930595,34,18,-9,2,2,-2,8,15
1576147195953639,-49,-17,-12,-17,1,-10,-8,-16
1576147195953639,12,3,10,2,8,-1,-9,1
1576147195954541,-3,-4,0,-4,2,0,-7,-11
1576147195954541,-3,0,-4,5,-8,3,-2,1
1576147195975577,20,-8,-14,10,-2,1,0,6
1576147195975577,0,2,6,-4,0,-10,-2,2
1576147195976475,-14,-7,3,-3,-3,-11,-7,-5
1576147195976475,-3,3,1,2,6,-8,3,7
1576147195990445,-21,9,-1,4,1,2,8,10
1576147195990445,-4,-23,-1,-2,-2,3,1,-8
1576147195990445,9,-5,-5,1,-9,3,-3,-17
1576147195990445,9,-6,-6,-3,-10,4,1,0
1576147196013473,10,14,-8,-1,1,3,3,14
1576147196013473,-2,6,-8,-1,2,0,-5,-14
1576147196014372,-21,1,1,4,15,2,4,2
1576147196014372,-5,-23,7,-16,-1,-10,-4,-18
1576147196036312,2,1,13,-6,-2,-4,-2,0
1576147196036312,11,14,4,-3,-5,-5,-1,9
1576147196036312,6,13,-1,-6,-1,-2,-1,8
1576147196036312,-5,-4,-3,5,3,-3,-2,-2
1576147196050316,15,-6,-10,5,-1,10,4,9
1576147196050316,-6,1,-3,7,-3,3,2,-15
1576147196051280,-7,4,-2,5,-4,1,-1,10
1576147196051280,-12,-22,-9,-11,-9,-4,-12,-9
1576147196073256,9,11,3,-7,6,-8,3,0
1576147196073256,14,-1,10,2,-2,6,11,5
1576147196074216,7,4,8,-4,0,-6,5,-3
1576147196074216,4,14,-1,7,-7,8,3,12
1576147196096248,-7,-11,-5,3,-4,5,-6,2
1576147196096248,-6,-9,-4,5,-4,-1,-5,-1
1576147196096248,-6,-14,-1,-6,0,-1,-7,1
1576147196096248,-14,4,-8,4,11,-4,-6,-2
1576147196110267,-6,5,-2,3,3,3,1,1
1576147196110267,-4,-11,-16,-8,-5,-11,-8,-9
1576147196111205,-12,-14,-4,-10,-9,2,-7,-14
1576147196111205,27,10,9,5,12,9,7,15
1576147196133204,-16,5,1,5,10,2,7,5
1576147196133204,9,-6,-1,-1,11,3,5,-1
1576147196134114,3,-10,-2,0,-6,-11,5,7
1576147196134114,4,4,0,4,-7,-6,-5,-5
1576147196156154,10,9,8,5,-7,-16,-3,-5
1576147196156154,-14,5,1,-5,-2,-3,-1,1
1576147196157040,-10,-5,-5,-4,-7,6,-10,-21
1576147196157040,-3,14,2,2,-9,6,-2,-6
1576147196170109,8,-14,-2,-1,-9,-1,-3,-3
1576147196170109,11,2,9,-5,-2,1,2,13
1576147196171015,-11,1,-2,0,2,-3,0,3
1576147196171015,-27,-8,-7,-7,4,-8,-5,-16
1576147196193595,24,6,-8,2,1,1,-2,-3
1576147196193595,-12,2,-5,2,-5,2,1,6
1576147196194481,-3,-7,-5,-7,5,1,-8,-4
1576147196194481,1,6,5,-3,-5,-2,0,13
1576147196215475,-8,7,6,-1,-2,-4,-5,-10
1576147196215475,15,6,-2,4,1,1,5,3
1576147196216431,21,1,9,5,-5,-2,6,7
1576147196216431,14,-13,-2,3,-3,6,1,-5
1576147196230480,-4,-8,-6,3,-3,8,2,-1
1576147196230480,25,-1,2,4,3,4,-2,14
1576147196230480,-10,-5,-17,-2,0,-4,0,8
1576147196230480,-7,4,3,-6,8,-8,7,3
1576147196253424,-5,6,-9,-5,0,-14,0,-11
1576147196253424,-34,6,-3,-4,-5,-4,2,-1
1576147196254330,18,4,8,0,-8,0,3,11
1576147196254330,-29,-18,-3,-2,2,-3,-10,-20
1576147196276264,6,7,4,5,1,8,-2,6
1576147196276264,8,6,0,-2,5,7,1,4
1576147196276264,7,-6,6,-8,-5,-3,-8,-13
1576147196276264,18,3,8,-12,-10,0,-1,8
1576147196289884,-6,8,-5,7,-7,-5,-4,1
1576147196289884,-4,-1,-3,-2,-7,-6,-4,-7
1576147196290845,-14,-1,9,7,1,7,4,2
1576147196290845,-2,3,-2,-1,4,4,9,12
1576147196313788,-38,-19,10,-11,1,-4,0,-6
1576147196313788,4,-3,4,7,2,-3,-2,-2
1576147196313788,2,6,-7,3,2,-2,-6,-11
1576147196313788,-10,-2,-1,2,-6,-5,-5,-5
1576147196335820,30,1,-3,-5,4,5,7,13
1576147196335820,-17,-2,0,-1,3,-1,5,-12
1576147196336724,4,3,-4,1,4,9,4,-3
1576147196336724,7,4,-2,7,7,7,3,0
1576147196349725,-15,-15,-9,-15,-4,7,-2,-6
1576147196349725,9,-14,-13,-7,-8,-4,-8,-16
1576147196350681,2,-6,0,13,8,-7,-1,-4
1576147196350681,0,2,-16,3,3,-10,-5,-5
1576147196373629,15,9,5,3,-3,-4,-4,1
1576147196373629,3,5,-1,-7,-4,-4,-6,5
1576147196373629,-13,3,2,1,-9,-2,3,2
1576147196373629,10,-8,4,-4,-9,3,4,9
1576147196395661,-8,-17,-5,4,-2,-1,-3,-6
1576147196395661,0,-10,57,6,3,2,-2,1
1576147196396561,13,0,32,-15,0,-3,1,9
1576147196396561,-16,10,21,-10,-10,-9,0,6
1576147196410551,-19,-6,-8,2,2,-10,-1,-27
1576147196410551,10,1,-34,8,3,-2,-4,1
1576147196410551,-6,-7,-26,7,-2,-1,-1,-7
1576147196410551,-4,0,-16,7,2,7,0,-5
1576147196433555,5,10,-8,-6,-1,7,4,14
1576147196433555,-21,6,-15,-14,-2,-3,6,1
1576147196434465,5,11,-9,-1,1,1,3,-1
1576147196434465,24,3,-14,5,1,3,-1,7
1576147196455442,5,2,1,-3,-8,-6,-9,1
1576147196455442,4,-20,-8,-2,-1,-2,-6,-3
1576147196456400,6,-1,-9,-10,-6,-7,-1,10
1576147196456400,6,-8,0,-8,4,-3,1,-6
1576147196469403,2,-8,9,-8,8,4,-2,-6
1576147196469403,-8,12,-7,6,11,2,1,15
1576147196477382,-15,-3,-9,1,-4,2,-2,-10
1576147196477382,-2,0,8,9,-7,-3,-2,-3
1576147196493345,-16,0,3,4,0,-3,-4,-4
1576147196493345,19,-14,6,-11,-5,1,-1,6
1576147196494330,6,-7,5,-5,-3,8,-1,2
1576147196494330,-24,-9,0,-6,-4,3,1,2
1576147196516237,-1,6,-7,7,-1,-2,6,1
1576147196516237,20,27,1,20,-1,1,-2,-16
1576147196516237,-30,-13,0,6,0,-6,-9,-18
1576147196516237,-17,-9,4,-6,-2,-5,-6,-3
1576147196529305,14,0,0,0,0,-9,4,12
1576147196529305,5,9,-1,-5,-4,3,5,4
1576147196537227,17,1,-6,-3,0,-5,2,-3
1576147196537227,-12,-7,-19,-11,2,-4,-1,-6
1576147196553241,-18,-13,-6,-7,0,-1,-3,0
1576147196553241,7,-2,1,-8,7,4,-7,-2
1576147196554175,-2,6,-3,1,-1,-1,-2,5
1576147196554175,-5,-4,10,14,-3,2,-1,4
1576147196576165,7,4,11,4,3,6,2,-1
1576147196576165,-4,6,-5,-7,-1,-4,3,6
1576147196576165,-6,14,-2,-5,3,-6,-2,-12
1576147196576165,2,4,-2,-4,11,-7,2,-5
1576147196589046,12,5,0,-4,0,-10,4,4
1576147196589046,-4,-7,2,0,-5,4,-3,-8
1576147196598018,22,2,1,-3,-4,0,-3,1
1576147196598018,20,-1,6,-1,-7,10,4,7
1576147196613026,-20,-9,-2,1,-5,6,-4,-1
1576147196613026,-3,-2,2,1,-2,-3,2,6
1576147196613026,9,1,-4,3,3,0,2,5
1576147196613026,6,-8,-3,2,-5,-6,-6,-8
1576147196636016,21,-2,-2,6,-5,3,-2,9
1576147196636016,9,-6,-1,4,0,3,0,2
1576147196636926,-1,-5,13,1,-1,-3,-4,-1
1576147196636926,-10,3,-5,4,2,-3,-2,-6
1576147196649906,-10,7,-11,-7,-10,-2,-3,-4
1576147196649906,-12,6,-9,-6,-1,-1,-1,-1
1576147196657862,-7,1,5,-11,9,1,-2,-4
1576147196657862,-8,-1,9,-5,10,3,1,7
1576147196672927,-15,-6,3,-10,-4,-6,-11,-9
1576147196672927,-28,-9,0,2,-10,5,-1,-4
1576147196673829,7,-2,-10,8,-7,0,7,15
1576147196673829,7,-2,-10,7,-3,5,0,11
1576147196695853,14,-12,3,10,9,1,0,4
1576147196695853,1,-9,4,0,-1,-4,1,-5
1576147196696807,-6,8,4,-7,3,-3,5,-2
1576147196696807,7,16,-4,0,-3,-7,5,5
1576147196709832,5,13,9,5,11,8,0,-6
1576147196709832,5,1,4,-4,-1,-4,-1,2
1576147196717801,-7,1,-1,3,6,-5,-1,5
1576147196717801,-3,-14,-5,-2,-4,-10,-4,-3
1576147196732661,-1,3,1,-11,-7,-1,0,3
1576147196732661,-7,1,-2,-3,-5,-1,-2,-3
1576147196733663,27,6,-11,7,-2,8,1,-1
1576147196733663,4,10,-3,3,-1,0,-5,-5
1576147196755697,4,-6,6,-2,-4,-3,1,5
1576147196755697,-8,-10,-16,1,-1,-7,-4,7
1576147196756604,-3,-1,-4,-7,-6,2,0,5
1576147196756604,6,4,1,-5,2,-1,-6,-10
1576147196778594,13,4,-1,-8,-3,-5,3,-3
1576147196778594,-10,11,5,-4,-5,1,6,-2
1576147196779533,-16,-7,-1,2,0,-1,3,0
1576147196779533,-9,-6,-4,2,1,3,5,1
1576147196792602,20,-9,-5,-5,8,3,0,2
1576147196792602,-13,-11,6,-5,9,-1,-1,-4
1576147196793539,-14,-9,8,3,-2,2,-12,-5
1576147196793539,-10,5,5,-5,-1,2,-8,-10
1576147196815440,-22,0,0,5,-5,-5,-4,2
1576147196815440,-10,6,-4,4,-4,-6,-4,-8
1576147196816437,-14,-5,-1,-3,0,0,3,10
1576147196816437,15,8,8,-1,0,3,1,9
1576147196838414,10,1,-6,5,-9,6,-1,-6
1576147196838414,6,-3,-8,4,0,-2,-5,-8
1576147196839382,1,-3,-6,-9,-1,0,-1,-2
1576147196839382,4,-4,8,-7,-3,-5,6,6
1576147196852438,-14,-5,0,-9,-1,-8,-2,-14
1576147196852438,7,7,-3,-7,1,-2,-2,-3
1576147196853380,24,-1,2,6,-2,-8,-4,6
1576147196853380,6,3,-3,4,2,5,-5,-3
1576147196876277,-27,0,2,4,1,4,-3,0
1576147196876277,2,-5,-4,7,0,-4,7,6
1576147196876277,-6,1,-4,-3,-6,-4,-3,-4
1576147196876277,9,5,-4,-5,-16,-10,-3,-1
1576147196898217,21,9,-2,3,2,2,6,7
1576147196898217,-24,0,-3,-1,-2,7,3,-4
1576147196899220,-13,-17,-6,-19,0,0,-7,-28
1576147196899220,-19,-8,-7,9,5,0,4,-6
1576147196912281,9,-6,-3,3,1,-3,-3,3
1576147196912281,27,2,5,1,6,4,-4,6
1576147196913176,12,11,9,2,5,1,2,12
1576147196913176,-1,-8,3,-9,1,-5,-2,1
1576147196936157,-7,9,2,0,4,-6,0,-4
1576147196936157,-2,-6,-4,-11,-11,-1,-3,-1
1576147196936157,3,-2,-12,-6,-12,1,2,0
1576147196936157,-1,1,1,5,3,-4,-1,1
1576147196958091,-24,-2,-5,0,2,3,1,-2
1576147196958091,23,9,2,3,-1,-1,-2,-4
1576147196959088,0,2,-1,7,2,2,1,-2
1576147196959088,16,-6,0,0,2,4,-1,-1
1576147196973063,7,-6,9,1,-3,1,-5,-3
1576147196973063,-21,-11,-9,4,-4,1,-8,2
1576147196973063,2,2,5,-2,-7,-4,-1,2
1576147196973063,-2,6,5,-4,0,1,5,-4
1576147196996054,-4,2,6,9,1,-6,-1,-6
1576147196996054,13,12,-8,5,3,-7,3,-1
1576147196996997,-8,1,-1,6,-4,-3,7,3
1576147196996997,-13,-2,-10,-2,-4,-3,4,-8
1576147197017903,17,-9,-5,-8,3,-1,1,-5
1576147197017903,7,-16,-10,-11,-13,-12,-5,-10
1576147197018894,-9,-5,-6,-9,-6,3,-5,5
1576147197018894,-11,1,1,-1,-8,11,-12,-4
1576147197032967,-1,10,-1,-1,-4,5,-5,5
1576147197032967,1,4,13,7,9,6,-1,6
1576147197033862,-5,-11,5,-2,9,-4,-1,-4
1576147197033862,-1,-10,6,-12,7,-5,2,2
1576147197055892,8,-3,-1,-4,3,-1,2,0
1576147197055892,6,1,4,10,9,-6,0,5
1576147197056801,1,2,1,15,7,-3,-2,7
1576147197056801,-2,-8,-10,9,-5,-3,-6,-6
1576147197078734,-5,3,-14,-8,-5,-6,0,2
1576147197078734,0,-4,-3,-12,-2,0,5,-2
1576147197078734,-12,-3,5,-7,-2,3,6,-11
1576147197078734,25,-7,-2,-1,0,4,2,-9
1576147197092793,-3,-3,5,1,-2,3,-2,-1
1576147197092793,14,12,4,4,2,-2,1,1
1576147197093746,-31,-16,4,5,2,1,-1,4
1576147197093746,2,-1,-7,10,-3,-5,-1,6
1576147197115637,2,-2,0,0,-9,-5,-7,-9
1576147197115637,1,-15,-2,-13,-16,-1,2,14
1576147197116644,19,6,-12,-8,-3,3,-1,-5
1576147197116644,-18,9,-3,-5,0,1,3,-3
1576147197138621,7,11,-6,4,11,3,-1,-5
1576147197138621,-21,-3,-1,-14,0,4,-3,0
1576147197138621,9,-4,0,3,1,2,-6,-9
1576147197138621,-10,-6,7,6,-6,0,-4,0
1576147197152635,10,-1,3,3,1,-4,4,7
1576147197152635,-8,-1,-4,-3,0,-7,7,-4
1576147197153542,-6,5,-3,-6,-6,-4,4,5
1576147197153542,-7,0,-1,-11,5,1,-3,-4
1576147197175577,4,5,4,-7,3,-10,-2,2
1576147197175577,-23,0,-1,1,-2,2,-2,-3
1576147197176476,-2,-4,4,0,0,4,-3,4
1576147197176476,-6,3,2,4,-4,-3,-3,11
1576147197198415,-5,-4,3,10,4,2,3,5
1576147197198415,22,1,-5,9,6,2,-6,6
1576147197199411,17,6,4,5,-5,-1,2,5
1576147197199411,-11,5,-3,-2,-7,1,0,-8
1576147197212473,-3,12,-3,-7,3,10,4,1
1576147197212473,-4,0,3,-7,-2,-4,1,-6
1576147197213373,3,8,2,-2,-1,3,0,6
1576147197213373,2,-6,5,-3,-5,-5,-2,-3
1576147197236312,-20,-18,-2,1,-2,-1,-7,-5
1576147197236312,-14,-3,-3,-6,2,-2,-2,-6
1576147197236312,0,-6,-9,0,8,0,-3,0
1576147197236312,-5,2,-1,-5,-2,-1,-1,7
1576147197258297,24,-1,-11,3,-10,-4,-3,2
1576147197258297,-1,-10,-2,3,1,1,-3,-17
1576147197259252,-3,0,17,-3,5,-10,3,-10
1576147197259252,18,-4,-1,8,9,0,7,9
1576147197272315,-4,-8,-3,-11,-10,2,-1,-2
1576147197272315,-7,2,-1,9,-8,-1,0,-2
1576147197273214,-9,0,-5,1,-8,-2,-2,-8
1576147197273214,6,5,-5,-3,3,-1,-7,-9
1576147197296199,-6,-1,10,-4,-2,0,-2,2
1576147197296199,1,-1,6,-3,-3,2,0,0
1576147197296199,10,-10,-9,-5,7,1,-1,-3
1576147197296199,2,-3,-11,-1,-4,2,2,4
1576147197318498,-26,-5,-12,2,-5,0,2,4
1576147197318498,0,3,7,11,1,-2,-5,-7
1576147197319466,14,18,10,1,-2,-2,0,4
1576147197319466,-8,-9,-9,-20,-7,-11,-10,-16
1576147197332464,-6,-5,-3,-1,5,4,2,-4
1576147197332464,6,5,3,-1,4,1,-3,1
1576147197333456,-4,-3,1,1,4,-1,-1,-3
1576147197333456,-12,-6,-4,6,0,-1,1,-7
1576147197355460,20,6,-2,3,-11,-11,0,-6
1576147197355460,19,-13,-7,-7,0,-3,1,1
1576147197356363,0,2,-3,1,0,-2,-3,-8
1576147197356363,0,5,5,-3,4,-2,-1,8
1576147197378337,1,3,3,4,-4,3,1,-3
1576147197378337,13,11,-4,-10,-5,3,1,-5
1576147197379303,-4,-2,0,7,4,2,-2,-4
1576147197379303,5,-3,0,5,-2,-6,-5,-14
1576147197392308,-25,-7,-4,-10,-3,-9,-1,-2
1576147197392308,-1,-4,-8,-9,-3,-4,-7,-2
1576147197400127,-4,-10,-2,-10,-1,-4,-5,-3
1576147197400127,0,-4,4,-7,0,1,3,6
1576147197416025,12,4,-3,3,7,1,2,6
1576147197416025,5,-8,14,1,4,-2,3,3
1576147197416987,-14,0,-11,-3,-4,8,-1,7
1576147197416987,19,-1,-3,12,-2,5,2,13
1576147197438024,-1,0,-19,-1,0,2,-2,-7
1576147197438024,-11,-2,-13,12,-5,3,3,10
1576147197438926,14,10,5,6,-7,-8,0,4
1576147197438926,8,12,3,-1,1,3,5,5
1576147197451889,10,2,11,8,4,3,0,-13
1576147197451889,0,-1,12,-5,3,0,2,-10
1576147197459960,10,-6,-7,-3,-2,-2,2,-2
1576147197459960,-12,-8,-1,-7,-2,-5,-1,-7
1576147197475918,3,-8,0,-2,-10,3,-5,-4
1576147197475918,-24,-2,1,-3,-5,-3,-3,15
1576147197476874,6,-5,3,3,2,-8,-3,10
1576147197476874,13,12,9,-1,6,0,-3,-1
1576147197498760,-5,-6,7,3,4,-4,2,2
1576147197498760,7,5,-11,4,-4,1,-2,5
1576147197498760,-8,2,-7,2,2,1,-2,-2
1576147197498760,-4,-1,-10,-11,2,-2,-3,4
1576147197511824,-8,-3,5,-11,5,-2,-6,-11
1576147197511824,22,0,5,-4,-3,5,6,-7
1576147197519807,-29,4,4,-10,-8,1,8,3
1576147197519807,0,-11,-8,2,1,9,4,4
1576147197535760,4,-13,0,1,2,-5,-33,-3
1576147197535760,17,5,-1,9,10,-5,-14,6
1576147197536697,-10,1,-3,9,0,-4,-9,-14
1576147197536697,0,7,5,16,-3,-4,6,2
1576147197558654,-8,4,-2,-7,-9,-4,14,10
1576147197558654,-14,0,-6,5,-3,-2,6,-10
1576147197558654,18,-11,10,-13,-5,3,7,0
1576147197558654,-10,-5,0,-13,5,-1,1,1
1576147197571663,9,-6,-6,-14,-2,-6,1,-4
1576147197571663,-22,1,-10,-5,-3,-6,2,1
1576147197580544,-12,6,-16,9,-2,1,3,-3
1576147197580544,3,-1,-7,3,-5,1,1,-9
1576147197595602,-1,-3,1,7,2,10,5,7
1576147197595602,22,3,11,-10,1,-2,-3,5
1576147197596505,-9,0,9,-12,-7,0,-7,-13
1576147197596505,-1,11,4,9,-3,0,-5,-9
1576147197618479,-11,26,-1,3,4,7,5,1
1576147197618479,-13,-6,-7,-1,-7,1,-1,-14
1576147197619442,11,-4,-6,7,-4,-4,4,0
1576147197619442,-2,-14,-7,6,-7,-11,-3,-2
1576147197632404,6,-9,-12,6,-3,-7,9,3
1576147197632404,39,4,3,-4,0,-8,0,2
1576147197640386,-18,-2,1,-1,8,-7,-16,-18
1576147197640386,-12,-4,4,-3,5,0,-2,-1
1576147197655444,-24,-1,4,-9,3,4,-4,0
1576147197655444,-1,-9,-2,-10,2,6,0,5
1576147197656340,23,-5,-3,5,2,2,-6,-9
1576147197656340,-1,-3,-1,3,-1,7,-1,2
1576147197678283,0,-11,-10,12,1,-2,-2,-6
1576147197678283,-22,-7,3,3,-8,1,-4,-4
1576147197679332,19,11,-4,-1,0,1,9,24
1576147197679332,3,-2,4,1,6,-2,4,9
1576147197692300,19,9,4,-5,9,-4,5,11
1576147197692300,-7,3,-5,-1,2,4,-4,-18
1576147197700609,-4,2,-6,5,-1,0,-2,2
1576147197700609,6,4,-2,1,0,-1,-1,3
1576147197715592,10,3,0,-4,-2,-2,2,6
1576147197715592,-14,-6,-3,-8,-1,0,-6,-5
1576147197716571,0,-7,0,-2,-5,1,-2,-1
1576147197716571,8,12,0,-7,-15,5,0,-11
1576147197738564,-30,-16,-6,-6,-11,-3,1,-6
1576147197738564,15,-2,5,-5,1,-12,10,15
1576147197739506,-15,6,18,6,0,-7,4,-6
1576147197739506,-4,1,-13,-2,2,-6,3,4
1576147197760550,16,9,-6,-8,-3,7,-7,-1
1576147197760550,-3,6,0,-7,7,8,-1,8
1576147197761447,-1,-6,-16,-2,1,0,2,1
1576147197761447,-2,-6,3,1,0,-4,4,8
1576147197775515,5,15,1,8,5,-1,-1,-8
1576147197775515,-4,4,-4,-4,-8,1,-8,-5
1576147197776408,4,0,7,-7,-5,4,-5,-3
1576147197776408,-7,1,5,2,-4,5,-9,-10
1576147197798660,-27,-14,-8,-3,-2,2,-3,-18
1576147197798660,-11,0,-3,5,0,-4,1,-8
1576147197798660,10,-6,-21,0,4,-5,0,1
1576147197798660,3,3,-5,7,-3,-9,-1,-1
1576147197820662,2,-4,5,0,-6,-7,2,8
1576147197820662,18,3,2,3,2,-3,4,0
1576147197821564,-20,-11,0,-15,-3,2,-2,-2
1576147197821564,13,-19,-11,-20,-8,1,-10,-7
1576147197835571,8,-1,2,-1,-13,3,3,3
1576147197835571,0,9,6,9,1,-6,8,3
1576147197835571,2,1,3,1,6,-13,1,10
1576147197835571,1,10,15,8,9,4,5,12
1576147197858464,-34,-8,11,9,6,1,-8,-15
1576147197858464,5,-4,-6,3,0,8,-7,-1
1576147197859457,3,-8,-2,-1,-4,-2,-2,1
1576147197859457,-9,-1,6,6,-3,-12,-6,-9
1576147197880404,45,-1,-2,-8,-2,-9,3,12
1576147197880404,13,1,-9,-9,7,-3,-2,11
1576147197881400,5,9,-9,-20,0,4,-1,4
1576147197881400,7,-8,-15,-4,-4,9,3,2
1576147197895476,-13,-3,-2,7,-2,11,1,4
1576147197895476,-9,-8,2,1,-8,4,-2,-10
1576147197896359,8,-2,-1,4,-4,10,8,2
1576147197896359,-26,-1,-7,-11,2,3,5,-6
1576147197917929,7,6,-11,7,0,-8,0,-3
1576147197917929,5,4,-9,4,-3,-11,4,11
1576147197918832,-10,2,3,10,0,-3,-5,-2
1576147197918832,18,-1,5,-2,3,-7,-6,0
1576147197940865,17,-5,5,-8,2,-3,-7,3
1576147197940865,-7,2,11,-4,-5,3,-5,-5
1576147197941823,-2,-4,5,-1,-10,2,-3,-4
1576147197941823,-3,-1,-5,0,-8,-5,-2,-6
1576147197954833,-8,-2,-7,0,-3,3,-4,-12
1576147197954833,0,-7,-4,1,0,1,-2,-5
1576147197955732,7,8,12,7,6,-7,0,2
1576147197955732,-39,-3,3,0,6,-9,-8,-12
1576147197978701,9,-6,-3,-14,4,-5,-1,-3
1576147197978701,0,-3,-9,-2,6,6,6,1
1576147197978701,-14,-7,-12,-11,-4,2,0,-4
1576147197978701,23,-1,-6,3,1,-1,0,2
1576147198000708,6,-13,-4,-14,-10,-10,-5,-4
1576147198000708,12,-11,-3,0,-4,7,-1,1
1576147198001659,-16,-5,-8,13,-1,0,-3,-3
1576147198001659,2,12,-3,1,2,-1,1,8
1576147198015567,-29,10,2,2,11,0,-1,2
1576147198015567,10,12,6,-7,-3,-4,-3,-8
1576147198015567,-3,-1,4,3,-2,1,4,2
1576147198015567,-6,-11,1,5,-1,3,-9,-26
1576147198038553,16,-4,5,9,2,4,3,5
1576147198038553,0,-6,11,6,1,-1,2,14
1576147198039504,5,12,-4,-10,-3,5,3,11
1576147198039504,-1,2,5,-5,3,2,1,3
1576147198060491,14,9,-8,-6,-7,-2,4,13
1576147198060491,4,5,-13,-7,-5,-1,-9,-14
1576147198061449,-1,-14,0,-4,1,-4,-3,-1
1576147198061449,18,-5,-2,2,1,5,5,11
1576147198075489,-7,2,9,13,0,-2,-1,-3
1576147198075489,-4,-1,-6,3,-2,-5,4,5
1576147198075489,14,11,2,-3,7,-8,0,-2
1576147198075489,-6,3,-2,-2,1,1,5,4
1576147198098396,8,-2,-1,2,3,8,3,6
1576147198098396,-9,-3,-2,-2,-3,-1,-3,-3
1576147198099346,-4,-5,-6,-9,-3,-2,-10,-23
1576147198099346,7,-7,-2,-5,-11,-6,-8,-3
1576147198121287,10,-4,-2,-2,-1,-3,-7,0
1576147198121287,-23,-2,6,3,-4,-4,-3,-4
1576147198122291,3,8,0,9,1,-2,-1,9
1576147198122291,-2,7,3,-4,7,0,2,9
1576147198135352,-10,-11,-8,-5,0,-5,-4,-21
1576147198135352,8,-8,-14,-6,-2,-7,-1,-13
1576147198136256,7,4,-4,-1,2,7,1,5
1576147198136256,-20,-7,2,-5,-5,8,1,2
1576147198158224,0,-1,7,-1,-1,0,7,7
1576147198158224,-1,0,5,1,7,5,2,2
1576147198159227,-7,-1,1,5,-1,2,-2,-3
1576147198159227,-6,-2,0,1,-4,-7,-1,-2
1576147198181126,3,1,-13,-5,-4,-6,2,10
1576147198181126,9,3,7,1,5,0,-1,-5
1576147198182123,-8,3,19,0,7,8,-1,5
1576147198182123,-5,-3,7,1,-3,-2,-2,7
1576147198195090,26,12,-2,1,-12,-2,-7,1
1576147198195090,-33,5,-4,3,-1,-2,1,5
1576147198196129,11,-11,-13,1,-7,-2,0,-5
1576147198196129,10,-1,-10,0,-5,4,4,0
1576147198218028,4,-2,5,-5,-3,-3,4,4
1576147198218028,10,3,-6,-5,-3,0,2,-6
1576147198219023,5,7,6,0,-2,-2,4,7
1576147198219023,-12,2,0,1,4,-5,-8,-27
1576147198240965,-8,4,3,-1,3,2,-3,-5
1576147198240965,8,1,1,-1,7,0,-4,1
1576147198241961,-3,4,-7,103,-8,-8,-3,2
1576147198241961,5,-9,-4,44,-4,1,5,7
1576147198253933,-10,-2,-3,6,-3,3,-4,-6
1576147198253933,2,-2,1,-26,6,6,0,8
1576147198262905,23,0,0,-58,2,1,0,0
1576147198262905,15,4,1,-37,3,-1,-2,2
1576147198277866,-16,-13,1,-14,3,3,0,-18
1576147198277866,-5,-12,-1,-24,-9,-8,1,-12
1576147198279864,-12,1,2,-19,-1,-4,-4,-7
1576147198279864,-9,14,5,-12,2,-6,-7,-7
1576147198300805,2,8,0,-13,0,-2,-3,3
1576147198300805,1,-2,-8,14,2,-7,-5,6
1576147198301802,-14,-12,-8,-6,-4,-7,-7,-11
1576147198301802,2,-2,5,-13,-4,3,7,8
1576147198314767,-8,-9,7,-3,0,0,-2,-1
1576147198314767,15,4,4,8,1,2,0,6
1576147198323744,-24,8,-6,-8,2,1,5,-6
1576147198323744,-11,1,-14,-4,7,-5,3,5
1576147198337709,7,-1,-4,8,6,8,5,10
1576147198337709,7,-1,4,11,-2,2,-3,0
1576147198339701,4,-7,-3,-6,-3,2,3,-4
1576147198339701,8,6,4,12,-5,0,2,3
1576147198360647,16,3,-8,3,-9,-3,0,8
1576147198360647,-12,-5,5,3,-8,-3,-8,-7
1576147198362639,0,-3,7,-4,-12,-5,-9,2
1576147198362639,4,-10,-3,5,-6,-8,-2,-3
1576147198374607,-15,1,0,2,6,-3,-1,1
1576147198374607,8,4,-6,4,4,1,4,10
1576147198383583,-7,-1,0,0,5,-4,0,1
1576147198383583,19,-2,-4,6,4,1,4,-3
1576147198398547,-9,-4,8,3,-1,2,6,11
1576147198398547,-20,-3,3,6,5,7,1,-8
1576147198399545,-2,-5,0,-8,0,7,-1,1
1576147198399545,14,-7,2,-6,-6,1,-8,3
1576147198420485,9,2,-12,5,-9,6,0,2
1576147198420485,-9,-2,-4,2,-3,-6,-3,-1
1576147198422480,8,10,2,-2,7,-3,-1,4
1576147198422480,-24,2,-5,-7,6,4,-7,-7
1576147198434450,16,6,-7,-3,9,-2,-1,-4
1576147198434450,-13,-7,-10,4,-6,-2,1,-3
1576147198443424,14,1,-8,10,0,1,3,1
1576147198443424,0,3,3,2,-7,-4,2,-2
1576147198458386,-8,-10,8,5,-8,-9,4,-7
1576147198458386,9,1,3,3,-4,-1,2,5
1576147198459381,-5,-12,1,-2,2,1,0,-4
1576147198459381,-17,1,3,-4,4,-1,0,2
1576147198480325,12,6,0,-6,6,-1,-2,0
1576147198480325,18,4,-3,-2,1,0,2,-3
1576147198482320,-1,-3,5,-12,0,1,-5,-2
1576147198482320,-1,6,-4,11,-3,1,-4,-4
1576147198494290,2,14,-3,4,-11,-7,-4,-7
1576147198494290,-4,7,4,-2,-8,-1,4,13
1576147198503263,-3,-4,4,-3,0,3,-3,-3
1576147198503263,-10,-6,7,-2,14,-5,3,7
1576147198518228,-1,-7,-5,-3,10,2,-2,-3
1576147198518228,3,1,-4,-7,0,1,0,0
1576147198520221,-4,-17,-6,-1,-11,-2,2,-9
1576147198520221,-16,4,2,2,-8,1,-1,-2
1576147198541164,20,0,2,8,-7,-3,0,-3
1576147198541164,-4,-1,-3,-4,-4,-2,1,-4
1576147198542164,5,0,-11,0,-7,-2,3,1
1576147198542164,0,5,1,2,2,7,-2,-2
1576147198554130,-3,9,-6,-8,2,1,-2,0
1576147198554130,7,5,4,-5,7,-1,-6,1
1576147198563106,-5,-6,-3,-2,4,-4,1,0
1576147198563106,15,-9,0,1,-3,-8,-1,-5
1576147198578063,-6,-4,9,10,1,3,-1,4
1576147198578063,-20,-19,10,1,2,-5,0,-2
1576147198580062,-9,-1,4,-8,-1,-5,-3,0
1576147198580062,2,4,2,6,-2,6,7,4
1576147198601006,1,-7,-1,-9,-12,-6,0,-11
1576147198601006,-2,-2,-1,-4,-6,7,-1,-5
1576147198602000,4,16,-10,-2,4,12,-1,11
1576147198602000,19,-2,-12,-16,-3,-3,-6,0
1576147198613967,-9,5,3,1,2,2,4,14
1576147198613967,4,5,5,7,-2,-6,-12,-21
1576147198630922,2,7,0,10,0,-1,-2,-1
1576147198630922,18,-5,-17,-9,-2,-1,0,2
1576147198637907,0,-1,-6,-13,1,-2,-2,-7
1576147198637907,-9,-13,-2,-5,1,-7,-2,-5
1576147198639898,0,-4,8,2,3,-7,-2,-4
1576147198639898,-9,-13,1,7,-3,-9,-4,-6
1576147198660876,-1,-6,0,6,-4,-3,-3,1
1576147198660876,-2,6,-12,-7,-7,0,2,3
1576147198661847,4,-4,-5,-5,-3,1,1,-2
1576147198661847,-3,-2,-4,4,4,8,5,7
1576147198682815,-3,5,9,-2,1,0,-1,1
1576147198682815,-1,-3,-1,1,4,4,1,1
1576147198684783,-5,3,1,-4,-1,-6,-1,-1
1576147198684783,3,-1,2,0,3,2,-3,-2
1576147198697745,-2,5,-6,-8,-3,-2,-6,0
1576147198697745,-21,-1,-10,-7,-6,6,3,-4
1576147198699741,1,2,2,0,2,1,2,4
1576147198699741,14,8,6,-3,-4,1,0,-10
1576147198720753,4,-13,7,12,1,-5,5,0
1576147198720753,9,-5,1,3,-11,-3,2,-1
1576147198722678,-18,-11,0,-1,-10,-1,1,-1
1576147198722678,15,1,8,3,2,2,-2,7
1576147198743670,17,5,-4,-2,12,-1,-2,6
1576147198743670,5,-7,-4,-7,2,-1,-6,-4
1576147198744621,26,-5,0,-8,-5,-3,-4,4
1576147198744621,-16,4,-7,-3,1,-4,-1,1
1576147198757652,-11,6,1,-9,1,-3,-2,-2
1576147198757652,11,6,2,10,4,3,5,1
1576147198764600,-2,-4,-8,0,-5,1,-4,-23
1576147198764600,-4,0,-15,-9,-2,7,3,-4
1576147198780524,-11,-9,-9,4,0,-1,-2,-6
1576147198780524,20,5,2,2,5,-11,-4,7
1576147198782524,-1,-11,-2,-3,-5,-7,-3,-5
1576147198782524,-34,0,6,-5,-8,-5,-1,0
1576147198803474,-14,-4,-4,2,-1,-1,2,-8
1576147198803474,12,-3,-6,3,-5,5,-1,9
1576147198804497,18,3,1,8,-2,8,2,7
1576147198804497,14,-8,12,0,-8,5,-2,3
1576147198816886,-24,-11,4,-8,-2,10,-8,-8
1576147198816886,17,4,2,0,7,-2,-4,8
1576147198825821,-16,0,-14,-4,13,-6,-3,7
1576147198825821,-4,10,-13,2,5,-4,6,4
1576147198840875,8,4,8,8,-1,0,4,-10
1576147198840875,-1,9,16,1,3,-5,5,4
1576147198842816,-15,3,5,9,-3,-4,-8,-5
1576147198842816,6,-1,-7,-7,-12,-2,-4,-2
1576147198863718,1,4,-2,-9,-3,-3,-1,2
1576147198863718,-15,0,-10,-9,-2,-2,3,1
1576147198864715,16,-1,12,7,6,-1,4,4
1576147198864715,-15,-6,5,6,-10,-4,-6,-8
1576147198877780,4,-7,-4,5,-4,2,-1,-3
1576147198877780,-25,-13,-11,-9,-6,-3,-2,-9
1576147198884768,-8,0,2,-9,1,-5,3,5
1576147198884768,22,-2,-4,4,0,-1,0,4
1576147198900718,-7,-2,-6,9,4,-2,-8,-16
1576147198900718,3,4,-8,0,7,0,-7,0
1576147198902631,9,-4,-8,-7,0,7,-1,0
1576147198902631,-7,-1,1,-3,6,2,-3,-4
1576147198923656,-6,2,-2,-10,-2,3,2,7
1576147198923656,5,-3,4,0,-4,7,3,2
1576147198924555,-5,2,-1,6,4,10,4,-1
1576147198924555,3,-6,4,-3,4,-2,2,8
1576147198937565,9,3,-7,-5,0,-6,0,-3
1576147198937565,32,13,7,7,-3,-4,2,4
1576147198944603,-17,8,3,1,-13,-6,-3,-5
1576147198944603,12,-4,-3,-2,-14,-4,-2,-8
1576147198960462,-7,-2,-6,-2,-3,-6,-3,-9
1576147198960462,-1,4,2,1,7,4,-1,-2
1576147198962494,4,0,0,6,-1,-1,3,-2
1576147198962494,-13,2,-1,2,-4,0,-1,-8
1576147198983498,4,-2,1,-6,0,-3,0,5
1576147198983498,-3,-9,-10,-9,-5,-5,-3,-1
1576147198985396,-2,5,-4,-1,5,-1,-3,2
1576147198985396,-3,2,7,5,1,1,1,6
1576147198997410,-8,-7,9,-1,-7,3,1,8
1576147198997410,-2,-6,9,4,1,6,4,0
1576147199004350,1,0,5,-3,3,-1,6,1
1576147199004350,-2,-4,-2,-5,5,-3,0,-5
1576147199021244,22,11,-11,7,4,3,4,6
1576147199021244,-31,-18,-8,-5,-10,-9,-6,-5
1576147199022201,12,-6,-10,-2,-12,-2,-8,5
1576147199022201,-1,-3,7,-2,-3,3,-2,-3
1576147199043240,-4,3,5,-1,2,1,2,2
1576147199043240,-15,0,-5,-2,1,-2,-3,-8
1576147199045178,0,7,7,-1,8,2,3,5
1576147199045178,-8,-7,1,-2,11,-10,-8,-10
1576147199057203,15,3,-9,7,0,-3,1,6
1576147199057203,10,11,-6,9,-1,-4,-2,-6
1576147199066085,6,9,-4,0,-2,1,-2,-11
1576147199066085,-6,5,1,2,-3,4,1,8
1576147199081039,-8,-7,9,-6,-4,4,-3,2
1576147199081039,3,1,3,10,-5,9,0,6
1576147199082037,-1,-8,-4,3,-10,-2,0,-6
1576147199082037,5,-8,-8,-6,-2,0,4,4
1576147199103078,-39,-11,5,-13,-1,-6,-6,-20
1576147199103078,24,-1,0,-19,-3,-2,-3,-6
1576147199104984,-2,-1,6,-2,-3,1,1,0
1576147199104984,4,7,-16,-6,4,-7,0,-7
1576147199117043,2,3,-4,5,6,-7,1,7
1576147199117043,-3,-8,-5,8,5,1,2,3
1576147199125923,-4,-9,2,3,2,10,-1,-2
1576147199125923,-16,-10,-2,-3,-1,5,-5,-6
1576147199140891,5,0,3,1,0,0,-4,-2
1576147199140891,-5,0,4,-14,0,-11,-3,-4
1576147199142919,9,12,1,6,0,-8,-2,4
1576147199142919,4,0,1,7,-8,-7,1,-2
1576147199162917,7,-1,-10,-7,-9,-2,3,7
1576147199162917,2,-4,-1,0,-8,1,2,-5
1576147199164818,-5,-10,0,-2,8,7,2,1
1576147199164818,9,1,3,-3,15,6,3,9
1576147199176878,6,-8,1,-1,-3,2,-4,-4
1576147199176878,-3,1,-7,-1,-2,-7,-2,9
1576147199185760,-7,7,1,1,-5,-7,-1,1
1576147199185760,-11,2,2,-4,5,-8,-3,-12
1576147199200819,-10,-3,-4,-3,6,12,4,3
1576147199200819,-5,-6,-11,1,-5,10,0,5
1576147199202722,-2,-7,-3,7,-2,3,-3,-7
1576147199202722,-6,1,6,8,2,4,-1,2
1576147199223657,13,9,-4,10,2,-2,2,11
1576147199223657,-1,11,7,7,-7,-4,-1,-3
1576147199224661,-6,4,-4,3,-1,-3,-1,4
1576147199224661,29,4,0,-3,0,-6,-5,1
1576147199236719,-48,-18,-7,-26,2,-11,-2,-10
1576147199236719,1,6,4,-9,8,-1,7,2
1576147199245630,3,-5,0,-11,-6,-4,6,-2
1576147199245630,-7,-7,3,5,-9,9,3,-6
1576147199260656,20,7,-1,2,-11,4,-5,1
1576147199260656,-2,3,-2,-3,5,1,-2,-4
1576147199262559,-2,-2,-3,-9,10,-6,-5,-16
1576147199262559,-2,7,3,1,-2,3,1,3
1576147199283600,4,-5,-2,11,2,2,1,-3
1576147199283600,-2,-6,-1,4,-1,-1,-2,-5
1576147199284505,-12,-4,0,-5,-1,-2,1,-6
1576147199284505,-4,1,-2,1,2,-1,0,9
1576147199297461,5,-1,-3,10,-4,4,-8,3
1576147199297461,-3,1,-1,-3,-4,5,-2,8
1576147199306437,-2,-9,-3,-2,-6,-1,-7,2
1576147199306437,18,-6,-3,4,-10,-7,0,4
1576147199320498,-20,-1,7,-6,-3,-9,-1,1
1576147199320498,3,4,-4,8,0,-5,-7,1
1576147199322404,14,10,0,1,-2,4,1,10
1576147199322404,-13,9,-10,-1,-1,2,-3,-7
1576147199343437,23,15,-8,2,6,-2,3,10
1576147199343437,-7,-8,-1,-2,2,-6,1,-5
1576147199345333,5,-18,5,-5,3,2,8,0
1576147199345333,2,-6,13,-10,-3,3,6,2
1576147199357346,-1,-13,10,-7,2,6,0,-4
1576147199357346,-20,-9,-3,-1,1,0,-2,-10
1576147199366284,5,8,-9,1,-1,0,0,2
1576147199366284,-1,2,1,3,6,5,0,0
1576147199381235,-1,-1,-14,-4,-5,-11,-5,-13
1576147199381235,2,6,6,6,3,1,1,-4
1576147199382243,0,7,-1,6,-8,4,-8,-6
1576147199382243,1,0,-4,-7,-2,0,-4,-10
1576147199403216,-8,-12,9,1,1,4,7,36
1576147199403216,5,-7,-5,3,5,-5,3,7
1576147199405209,-1,-2,-13,5,-4,-5,-2,-2
1576147199405209,-5,11,-6,-4,-5,-7,-2,8
1576147199417183,24,5,-4,-7,0,0,6,-1
1576147199417183,-1,-1,9,-10,2,3,6,-6
1576147199426165,-28,-9,11,-3,4,-4,-1,1
1576147199426165,-9,-9,-1,0,-7,2,-3,0
1576147199441190,12,-3,2,2,-8,1,-1,-4
1576147199441190,-4,-5,-4,7,-3,-4,-5,-2
1576147199442073,-11,-4,0,-3,-4,-5,-12,-19
1576147199442073,-3,-6,2,-2,-5,-1,-10,-1
1576147199463083,27,7,1,-1,1,2,-4,-6
1576147199463083,-2,-4,-1,-9,-8,7,1,3
1576147199465020,15,9,1,-3,0,4,1,8
1576147199465020,-4,6,-8,4,2,-4,3,0
1576147199477080,-15,10,-5,-4,-2,-5,2,-6
1576147199477080,4,1,2,-6,-2,0,-1,2
1576147199485961,-4,-10,3,0,-1,-7,-2,3
1576147199485961,6,0,4,2,4,-6,5,4
1576147199501017,-3,-12,-5,3,-5,-1,-2,-11
1576147199501017,-5,-3,-4,-1,3,-5,-3,-2
1576147199502919,9,0,-2,-4,7,1,6,11
1576147199502919,-3,1,-8,-4,7,0,2,0
1576147199523781,-7,6,9,0,-4,0,0,0
1576147199523781,7,-11,5,1,-3,2,-3,-10
1576147199524766,3,5,7,2,-8,11,-8,1
1576147199524766,1,-11,-12,-4,-3,3,-6,-3
1576147199536822,1,10,-11,1,2,1,-3,-6
1576147199536822,-4,5,-5,3,0,-6,3,10
1576147199545702,0,3,-7,-11,-3,-5,6,-1
1576147199545702,-19,-5,2,0,-5,-5,2,-6
1576147199560758,11,-6,3,6,2,-1,-4,2
1576147199560758,21,1,-2,0,4,-1,-8,-9
1576147199562659,1,0,-1,2,8,1,2,-3
1576147199562659,6,4,4,-2,2,1,0,-1
1576147199583712,-15,-4,-3,4,3,1,-1,-3
1576147199583712,6,4,2,-1,-1,0,1,2
1576147199584598,-3,-5,-2,5,-11,-6,0,1
1576147199584598,14,2,-9,0,-10,-9,0,0
1576147199596570,-14,0,2,-9,-10,0,0,0
1576147199596570,2,3,4,-1,3,8,-3,-1
1576147199605590,-15,-8,-1,-3,9,5,-3,-5
1576147199605590,-9,-3,1,6,4,1,-3,2
1576147199621239,14,2,7,9,0,-3,-1,-4
1576147199621239,4,-2,-5,0,-5,-7,-3,7
1576147199622200,10,5,-4,-1,2,0,-4,5
1576147199622200,-8,-3,-1,-6,2,-5,-6,-5
1576147199643238,-8,0,-1,-6,5,-7,1,4
1576147199643238,2,9,11,10,1,7,3,0
1576147199645167,7,3,1,2,-8,2,9,5
1576147199645167,-1,-12,-23,-1,3,0,5,-17
1576147199666187,-9,5,7,8,-1,6,4,2
1576147199666187,7,-3,6,-10,0,0,4,-1
1576147199667082,4,-9,7,-8,-2,-5,-5,-2
1576147199667082,11,0,13,-11,-6,-2,-6,5
1576147199681086,-10,-3,-1,-6,-3,0,0,7
1576147199681086,-17,5,2,-3,-11,-8,-7,-5
1576147199682029,-7,5,-2,-2,5,-1,0,9
1576147199682029,13,3,11,12,4,5,1,-1
1576147199702983,10,-5,-7,4,0,3,1,-1
1576147199702983,5,0,1,-3,-1,6,0,2
1576147199704976,5,-2,-7,-2,-5,1,0,-1
1576147199704976,-26,-4,-5,-6,-3,-6,-4,10
1576147199726016,3,0,-3,5,-2,-3,-4,-10
1576147199726016,-5,-13,-15,10,-8,-8,-3,-2
1576147199727909,-5,-14,-12,6,-1,-6,-4,-5
1576147199727909,-2,-5,4,-5,6,5,3,-3
1576147199740969,19,15,8,-2,3,-2,-3,-4
1576147199740969,-2,7,-2,-7,8,-2,-96,-9
1576147199742867,-5,3,12,7,-4,3,-48,5
1576147199742867,3,6,-1,-2,-9,2,7,2
1576147199762911,-14,0,0,-3,-1,-5,32,-3
1576147199762911,5,7,-4,-14,2,-2,72,-4
1576147199764814,13,7,-4,-3,0,5,35,-4
1576147199764814,4,5,6,11,4,4,9,5
1576147199785848,-5,-4,-1,5,4,2,10,-2
1576147199785848,6,-5,-10,3,-1,0,10,3
1576147199787755,8,0,1,1,3,-9,-1,-4
1576147199787755,16,4,-6,-1,-2,-6,8,8
1576147199799717,-5,-10,2,-3,-5,-11,-16,-8
1576147199799717,-5,-11,-3,0,-2,-3,-5,3
1576147199806696,-9,2,-16,3,-4,0,-5,-6
1576147199806696,7,2,-6,3,-7,1,-7,-3
1576147199823671,27,6,-3,-12,0,1,-14,2
1576147199823671,-7,-3,-2,0,1,2,0,2
1576147199824657,-5,-2,2,-9,5,1,3,-7
1576147199824657,-25,-12,2,-1,6,6,-13,-2
1576147199845695,4,-5,10,2,4,10,-14,2
1576147199845695,-12,2,5,-3,-4,5,3,-2
1576147199847596,-1,3,0,-2,-3,3,3,-2
1576147199847596,10,10,-11,-2,-3,-4,0,4
1576147199860597,4,-4,-14,-19,-18,-10,-7,-3
1576147199860597,2,-4,6,-6,-4,-1,-3,-8
1576147199866582,-8,-9,0,0,-6,-9,-3,3
1576147199866582,-6,-5,5,-11,-3,-2,-5,-8
1576147199883602,-3,-3,-1,4,4,0,5,0
1576147199883602,-15,-1,0,6,5,6,7,-5
1576147199884505,3,3,0,6,8,-2,6,-7
1576147199884505,0,-6,1,10,-4,-6,3,-1
1576147199905507,-22,-7,-1,5,-2,-3,-1,1
1576147199905507,17,1,-5,-4,-5,-2,-4,1
1576147199907436,1,13,5,-5,-1,-2,-1,-2
1576147199907436,1,9,-5,0,5,2,-3,2
1576147199920399,-5,-7,-7,-4,-3,7,-1,-9
1576147199920399,-1,-12,1,-1,-5,-1,2,-4
1576147199927421,-2,-11,-3,-12,0,1,-1,-6
1576147199927421,-1,-8,3,2,0,-5,-4,-6
1576147199943433,-2,-6,2,2,2,-5,-3,6
1576147199943433,-3,1,2,11,2,-1,-2,3
1576147199945330,2,6,4,11,0,-1,-3,-3
1576147199945330,-10,-9,-8,-2,0,-2,-6,-3
1576147199966297,2,8,1,-12,-6,-2,-3,3
1576147199966297,-10,4,1,3,6,-3,4,-1
1576147199967279,-4,2,-1,-4,-1,-4,5,1
1576147199967279,21,1,-4,-6,-9,2,5,2
1576147199980233,-7,1,-1,2,-9,-5,-1,0
1576147199980233,-2,-8,-4,-8,-15,-9,0,2
1576147199987222,-2,2,2,2,-5,-5,1,2
1576147199987222,2,3,-6,1,6,5,2,-1
1576147200003172,-5,-2,-5,-6,7,3,-3,-7
1576147200003172,1,7,-1,-1,7,9,1,0
1576147200005166,8,-16,-3,0,0,5,0,0
1576147200005166,-8,10,5,-2,-1,-4,1,1
1576147200026116,-1,9,10,3,-1,3,-2,0
1576147200026116,-7,-4,-2,-10,-3,1,-7,5
1576147200027114,-17,-9,-7,1,7,2,-3,1
1576147200027114,6,1,-2,9,0,4,-3,1
1576147200040074,6,-9,-11,-3,-1,2,-1,1
1576147200040074,-8,8,-2,0,0,1,4,1
1576147200047055,5,-4,-5,-2,3,-4,-2,-8
1576147200047055,-7,1,0,-3,-6,-3,-6,-3
1576147200063010,-34,-7,2,14,6,-5,-3,-21
1576147200063010,6,3,7,2,-3,0,4,1
1576147200065014,-1,1,-1,-3,-3,-3,3,3
1576147200065014,-3,2,1,3,-2,-8,-3,-2
1576147200085995,8,5,-1,6,2,-4,1,5
1576147200085995,2,1,-5,-2,1,-5,0,5
1576147200086946,-21,-12,-4,-11,-6,-3,-2,-2
1576147200086946,6,-6,7,-10,-7,6,-3,6
1576147200099955,3,-3,-7,-10,-5,0,0,2
1576147200099955,1,-4,-2,2,-4,0,1,7
1576147200106938,36,18,-11,1,3,2,-1,8
1576147200106938,-33,-10,1,-9,-5,-3,-5,-10
1576147200122921,1,-1,14,8,-8,1,2,2
1576147200122921,2,-1,-1,5,-2,-3,-4,-6
1576147200124848,-7,-11,3,9,4,-1,-3,0
1576147200124848,1,-8,-6,0,3,1,-2,-9
1576147200145854,9,8,-5,3,7,-1,0,5
1576147200145854,-13,5,-4,-4,5,-2,-2,1
1576147200147784,17,-5,4,-6,-4,-5,6,7
1576147200147784,-2,-13,-6,-6,0,-12,-2,-23
1576147200159862,0,-2,-5,-5,-5,2,1,-5
1576147200159862,12,-8,4,6,-2,1,2,-9
1576147200168744,5,8,1,-4,-8,8,1,2
1576147200168744,-7,1,13,0,0,11,1,-2
1576147200183736,3,5,5,-7,-1,3,-3,8
1576147200183736,-108,12,-2,1,0,-3,-5,-5
1576147200184699,-56,-10,-13,1,-7,0,-2,-3
1576147200184699,15,-4,2,1,5,-6,3,0
1576147200205726,54,4,10,-6,5,-8,0,-5
1576147200205726,117,6,3,2,13,-10,3,3
1576147200207662,67,8,1,1,10,-8,0,0
1576147200207662,54,1,-17,0,4,-3,0,14
1576147200219596,40,-11,-18,-6,-5,7,-7,9
1576147200219596,23,-9,-5,-8,-7,5,-4,-5
1576147200228624,29,-4,-3,4,-1,1,4,3
1576147200228624,2,-5,1,0,-10,2,6,2
1576147200243642,-2,-4,-5,4,-6,-3,0,-1
1576147200243642,6,0,-7,10,-6,-1,-6,5
1576147200244526,3,5,-6,1,-5,0,-3,-2
1576147200244526,19,10,-4,-4,0,-3,5,7
1576147200265573,-29,-3,10,-5,-1,-1,4,-7
1576147200265573,27,2,16,0,4,3,6,17
1576147200267497,-36,-9,6,-1,5,-4,-6,-17
1576147200267497,-5,4,1,-7,2,0,-7,3
1576147200279438,-14,-4,2,0,5,0,-4,5
1576147200279438,15,-6,-7,-1,0,-1,-4,-8
1576147200288414,0,4,6,3,2,4,-1,-1
1576147200288414,-7,-4,4,0,1,4,2,-3
1576147200303472,1,3,-13,-13,2,0,5,-4
1576147200303472,-8,6,-8,-1,1,0,2,-4
1576147200305365,-9,4,0,-1,-12,3,3,6
1576147200305365,-7,6,-11,7,-1,2,3,3
1576147200326310,16,-5,4,8,0,5,0,-4
1576147200326310,8,-12,1,-1,-10,-5,3,1
1576147200327313,-14,-12,-7,-2,-4,-5,-7,-9
1576147200327313,-1,1,-1,3,-6,-3,-7,-7
1576147200339373,-3,3,-8,3,0,2,-5,0
1576147200339373,-12,-2,-1,-15,-3,-1,-6,-4
1576147200348259,13,9,0,-9,-2,-4,2,8
1576147200348259,18,15,17,6,12,1,4,15
1576147200363211,-9,-13,4,11,0,-11,-6,-26
1576147200363211,-8,8,4,8,4,-4,-3,-1
1576147200365240,11,1,15,0,-7,-5,-1,-1
1576147200365240,-5,5,5,2,0,-3,3,4
1576147200386192,-3,-2,-2,-5,-4,4,1,10
1576147200386192,2,-12,-9,-7,2,10,-8,0
1576147200387149,4,-3,-7,-4,5,3,-6,-4
1576147200387149,-18,-12,-8,-3,5,1,1,-4
1576147200399156,-1,8,-2,4,9,-5,6,6
1576147200399156,-20,-2,3,-9,8,-6,7,-2
1576147200408091,4,11,2,-6,3,-1,6,0
1576147200408091,-12,-9,-2,-5,-13,-2,0,-3
1576147200423147,5,-3,-5,3,-14,6,0,0
1576147200423147,-24,-11,-1,6,-7,3,-1,-1
1576147200425053,-1,-8,-4,-6,-2,3,-2,-2
1576147200425053,7,0,-6,1,3,0,-5,-10
1576147200446093,-24,4,1,6,-1,-5,-7,-1
1576147200446093,18,-3,3,-7,0,-4,-2,0
1576147200446987,1,-5,6,0,2,3,2,5
1576147200446987,4,-2,-5,1,2,-1,2,1
1576147200459950,2,5,3,-3,-5,-3,-3,-11
1576147200459950,-6,0,8,2,-1,-3,3,1
1576147200467971,16,7,-1,4,7,-9,2,8
1576147200467971,-21,-7,-1,-4,-2,-4,-6,-9
1576147200481935,-3,9,0,1,1,7,-1,3
1576147200481935,3,-6,-8,-2,-8,5,-2,-4
1576147200490874,-14,-1,0,1,-4,1,0,-6
1576147200490874,9,-6,-3,-2,1,0,3,6
1576147200505896,7,-5,2,-1,0,-7,2,5
1576147200505896,9,7,4,2,-8,-5,4,4
1576147200506827,-17,5,-4,0,-1,0,-4,4
1576147200506827,6,-3,-8,-5,-5,2,3,-5
1576147200519837,-12,-9,3,-8,1,0,2,0
1576147200519837,11,-7,-5,11,6,5,1,1
1576147200528773,-12,3,0,-12,-6,-2,-12,-2
1576147200528773,5,14,5,-4,9,-5,-7,6
1576147200543772,16,3,-6,-3,2,-5,2,7
1576147200543772,-30,-6,-16,0,-6,-4,1,-3
1576147200544726,6,-4,-2,11,5,6,-2,-6
1576147200544726,7,4,5,4,-3,-1,-4,14
1576147200565768,-18,-7,-3,-4,-1,0,-10,-6
1576147200565768,5,5,5,-6,-2,2,2,-5
1576147200571752,7,-10,6,1,-1,0,10,-2
1576147200571752,-2,-6,8,-1,-5,-4,3,-8
1576147200588628,12,0,2,9,-1,-2,4,-2
1576147200588628,3,9,-10,6,-3,-9,2,-2
1576147200589605,-2,8,-5,3,-7,0,-5,-2
1576147200589605,-11,-5,-2,-3,-3,-2,-2,-5
1576147200603614,-38,-8,2,-7,2,-1,-1,-2
1576147200603614,-13,-2,10,-3,4,-5,-1,3
1576147200604562,39,-8,0,6,11,-6,-5,3
1576147200604562,0,-1,4,2,6,-3,0,-5
1576147200625560,-1,-2,-8,-7,-2,0,-2,-9
1576147200625560,15,13,4,-4,4,11,7,6
1576147200627526,-12,4,-14,-15,-7,1,2,-4
1576147200627526,9,7,-12,-5,-3,4,-3,1
1576147200648447,10,-3,-6,1,-6,-1,0,-1
1576147200648447,6,-6,-6,-2,1,1,-4,-4
1576147200649488,-7,-6,9,3,3,0,-2,-11
1576147200649488,-23,-2,-1,-6,-1,-5,-3,-11
1576147200663405,8,-5,2,1,3,-10,-3,-5
1576147200663405,0,-8,5,9,2,-4,-8,-7
1576147200664404,-8,0,4,-2,-6,6,3,7
1576147200664404,19,-2,2,3,-14,3,-1,2
1576147200685399,1,6,-2,2,-9,1,-3,-1
1576147200685399,19,10,-13,4,0,-7,-4,3
1576147200687345,-41,-10,-3,-2,5,-7,-6,-11
1576147200687345,-1,-1,3,-6,5,-6,1,3
1576147200708331,1,-1,-7,-4,5,0,-2,10
1576147200708331,8,-7,-4,0,6,2,0,-5
1576147200710282,13,-4,6,8,2,6,8,9
1576147200710282,-6,-9,-6,-3,-8,6,0,-5
1576147200723259,10,7,2,6,-2,7,1,12
1576147200723259,-16,5,2,-12,-7,-7,-7,14
1576147200725241,14,9,-5,-3,5,-6,4,25
1576147200725241,-10,-4,-2,-2,-1,-5,-2,-6
1576147200746183,-4,-3,0,1,2,-4,4,-6
1576147200746183,5,11,4,4,1,7,5,-3
1576147200747184,18,2,-4,-1,-2,0,-1,-4
1576147200747184,18,1,-4,1,1,4,-1,-2
1576147200768128,-2,2,3,1,6,5,-2,-3
1576147200768128,-24,-9,8,6,1,-10,-7,-13
1576147200770125,9,1,7,7,-15,-1,-5,4
1576147200770125,-20,6,1,-5,-6,-7,-3,2
1576147200783085,0,-8,-3,-10,-4,6,-3,1
1576147200783085,-4,-6,1,-14,-1,1,-1,-7
1576147200789120,4,-9,-12,-6,8,-4,4,-3
1576147200789120,6,1,-1,7,7,4,6,2
1576147200806080,6,6,4,1,0,-2,0,-10
1576147200806080,-7,1,2,10,2,-3,2,-2
1576147200807021,2,4,-1,2,1,-1,-6,-9
1576147200807021,-4,5,-9,5,3,-7,-1,-3
1576147200828013,-2,-9,-3,-10,-6,0,-5,-4
1576147200828013,-6,-3,8,-11,-9,2,-1,4
1576147200829961,17,-1,3,-5,-10,0,-5,1
1576147200829961,4,-4,-2,3,4,9,3,10
1576147200842996,24,-2,-13,7,3,-1,4,-1
1576147200842996,9,2,-6,1,-3,-1,3,-1
1576147200849910,-34,-6,4,2,-2,-5,3,-6
1576147200849910,-8,-3,-2,1,-6,-2,-2,-10
1576147200865966,-28,-5,8,-4,-2,0,-3,-7
1576147200865966,2,-4,-2,-2,1,-1,-1,-3
1576147200867865,-4,6,1,-3,4,5,0,0
1576147200867865,-3,-2,-7,2,-1,4,-1,5
1576147200887905,-3,10,1,-3,0,-7,-7,5
1576147200887905,0,2,6,1,3,-1,-2,1
1576147200889802,5,8,0,5,-7,-5,-1,-2
1576147200889802,3,0,0,-4,3,-11,-4,-15
1576147200902867,-7,1,-4,1,3,-8,3,10
1576147200902867,-7,-4,0,-5,-6,-3,-3,5
1576147200909861,-10,3,-3,-1,7,0,-2,-6
1576147200909861,6,0,4,4,-3,15,2,7
1576147200925810,9,-1,-8,5,-6,4,4,0
1576147200925810,12,2,-16,-2,-6,-1,-1,1
1576147200927703,-25,-15,-8,-8,-8,-2,-1,-4
1576147200927703,2,1,-2,-7,2,-7,-3,-3
1576147200948642,-15,-4,-1,0,6,-6,2,0
1576147200948642,8,-9,1,1,4,-3,3,8
1576147200949642,13,7,4,4,3,-4,10,13
1576147200949642,-2,0,3,-13,0,0,-1,-2
1576147200962727,8,3,12,4,-5,6,5,13
1576147200962727,-6,3,-8,-2,-12,1,0,0
1576147200969633,4,-5,-6,2,-6,2,-2,3
1576147200969633,-12,-11,-12,1,-2,1,-4,-5
1576147200985648,-2,-1,3,-2,3,-3,-5,-2
1576147200985648,-7,0,-1,-1,8,-4,-12,-8
1576147200987541,-9,-10,1,-3,7,-1,-7,-11
1576147200987541,-3,1,7,-2,1,0,0,0
1576147201008488,37,2,2,-4,5,2,-1,-4
1576147201008488,-7,-1,-2,-5,3,1,1,-2
1576147201009508,21,12,-6,3,0,-4,0,10
1576147201009508,-8,4,4,5,-7,-5,-5,-1
1576147201022547,-13,-2,-4,-2,-7,-1,0,0
1576147201022547,-11,-2,2,-2,-5,2,3,-1
1576147201029458,-5,-3,-4,-3,-6,-1,-5,-14
1576147201029458,4,-2,13,6,-2,-4,0,2
1576147201045492,9,2,-4,5,-7,-3,-2,-3
1576147201045492,-1,-2,-2,-2,-5,0,-2,-6
1576147201047386,-9,0,-7,-1,-3,-1,0,-5
1576147201047386,5,4,4,-4,3,-1,-2,0
1576147201068360,-23,-2,-9,1,0,-5,-3,-10
1576147201068360,18,-1,-7,1,-1,-3,2,-5
1576147201070324,-26,-8,4,4,4,6,3,-4
1576147201070324,2,-9,2,-9,1,-1,4,7
1576147201082348,-10,-8,2,-14,7,0,2,8
1576147201082348,-7,2,2,-3,2,2,2,5
1576147201091265,17,4,-6,3,-3,0,-3,1
1576147201091265,-4,-9,6,4,-3,0,-6,-8
1576147201106272,-6,-5,0,-9,-10,-1,-1,1
1576147201106272,-16,1,9,4,4,-4,-1,-3
1576147201107222,9,-1,-3,-7,0,1,-2,-4
1576147201107222,8,5,-14,0,-2,4,3,4
1576147201128099,0,1,0,5,-5,1,-3,0
1576147201128099,-4,-10,2,9,1,4,2,-7
1576147201130050,21,2,3,1,-4,1,3,-1
1576147201130050,-9,9,-7,1,-2,1,3,7
1576147201142122,-46,0,-5,-5,1,-3,-3,-4
1576147201142122,13,1,-9,-7,1,-2,1,11
1576147201150995,-37,-13,-2,-9,-6,-12,-10,-20
1576147201150995,23,-6,-8,-6,2,-4,-2,-1
1576147201166057,7,-6,-4,2,2,4,-2,-4
1576147201166057,1,5,0,0,-1,0,-4,-2
1576147201166987,4,3,11,-1,-1,6,-4,5
1576147201166987,-13,9,0,0,-7,-3,0,-6
1576147201187998,1,-1,3,-4,0,-3,2,4
1576147201187998,-4,-16,-11,-5,-2,0,-6,-7
1576147201189887,13,-1,-8,2,5,-11,1,6
1576147201189887,-3,-3,2,-5,-3,-5,0,-2
1576147201201964,4,2,1,6,-3,-5,1,-4
1576147201201964,5,6,5,9,-1,0,2,-2
1576147201210835,8,-2,1,-7,-1,-2,1,-2
1576147201210835,-19,-7,0,3,-1,2,0,0
1576147201225891,10,-1,7,16,3,4,-1,-3
1576147201225891,-26,-7,7,-2,-6,3,-3,-9
1576147201227792,-20,-6,-1,-1,-1,-2,-5,-7
1576147201227792,16,3,-7,-9,3,5,2,-1
1576147201248731,5,-4,3,-14,4,-5,-1,-9
1576147201248731,13,3,-8,-1,7,0,0,1
1576147201249730,2,0,-2,4,0,3,0,3
1576147201249730,-17,-6,1,2,-4,-3,-4,1
1576147201261803,-1,5,-6,-4,-7,-5,0,6
1576147201261803,13,-1,0,-1,-4,0,-2,-2
1576147201270672,-6,-1,-5,2,-1,4,2,4
1576147201270672,10,-3,-3,13,5,4,-4,4
1576147201284736,-3,3,0,1,6,-3,-4,3
1576147201284736,-4,5,7,-1,2,-9,-1,-3
1576147201293614,10,2,1,-3,-2,-2,6,1
1576147201293614,0,1,9,0,-5,-3,6,-2
1576147201308688,-10,-4,-3,-6,-4,-3,-3,-7
1576147201308688,-3,-7,-4,-6,1,0,-4,2
1576147201309568,7,6,3,0,-4,5,-4,-5
1576147201309568,-17,-1,-9,-8,8,6,-6,2
1576147201322425,0,-5,-8,-5,-2,-2,-8,-5
1576147201322425,4,3,-5,-2,-5,-1,0,11
1576147201330427,-7,10,9,-3,3,1,4,14
1576147201330427,-12,-2,7,-4,-4,-5,-3,-8
1576147201345452,12,-2,-4,4,1,1,3,0
1576147201345452,3,-5,-5,1,0,-9,2,-3
1576147201347386,0,-6,6,6,-5,-9,4,1
1576147201347386,12,0,-3,6,-1,0,3,0
1576147201368344,0,-7,-5,3,-3,5,-3,1
1576147201368344,10,8,5,0,-4,7,-2,-1
1576147201374372,15,3,-13,-11,-6,-4,-6,-3
1576147201374372,-9,7,3,-1,-2,-6,-2,-5
1576147201382366,-9,1,5,-4,-5,-3,2,1
1576147201382366,-8,-1,2,-1,4,3,2,-2
1576147201391269,-15,-13,-4,-4,7,1,-6,-10
1576147201391269,-5,-4,1,-6,9,-5,-4,-4
1576147201406232,13,1,2,2,-1,1,5,7
1576147201406232,-15,2,2,1,-9,0,0,1
1576147201407184,33,0,-7,5,-4,0,-3,1
1576147201407184,6,-2,-11,2,1,0,-3,-7
1576147201428170,-5,-1,-8,-5,0,4,5,0
1576147201428170,-5,-11,0,-2,3,-4,-2,-4
1576147201430125,1,-2,-3,1,1,-6,3,6
1576147201430125,15,-1,-4,9,-5,-13,1,-5
1576147201442194,7,10,9,6,2,-1,4,12
1576147201442194,10,-2,1,-4,2,-1,5,2
1576147201451068,-8,5,1,0,-4,4,0,3
1576147201451068,24,10,-1,-10,-5,3,-2,4
1576147201466129,-32,2,-5,-6,3,6,-8,-18
1576147201466129,-3,5,-8,-2,-13,-2,-8,1
1576147201467021,-12,-11,-7,6,-5,-2,-11,-10
1576147201467021,0,-13,5,4,-4,2,-3,-2
1576147201488082,11,-5,-9,4,1,-4,-1,-1
1576147201488082,16,8,-2,-10,1,-2,4,5
1576147201489964,-13,5,10,-3,1,-5,8,0
1576147201489964,-5,3,8,0,1,-2,3,-8
1576147201502031,-13,-4,-2,0,1,-7,1,-4
1576147201502031,10,-5,-8,7,3,1,1,10
1576147201510906,-11,-6,-7,-1,-4,-2,-9,-2
1576147201510906,-4,-3,6,5,3,5,1,12
1576147201525968,7,3,9,-1,-1,6,2,-1
1576147201525968,-12,0,2,-1,-5,-3,1,-3
1576147201527863,13,0,-5,-1,1,-4,-1,-2
1576147201527863,-7,-2,-3,-5,-2,-6,4,1
1576147201547923,13,2,0,-3,-2,0,-3,1
1576147201547923,-16,0,-2,5,3,4,-1,-9
1576147201549801,5,-2,-3,-2,-1,3,-4,-6
1576147201549801,5,-2,-4,-3,-2,-5,-1,-1
1576147201570847,17,11,1,3,9,0,12,21
1576147201570847,4,-7,3,-9,2,5,-2,-8
1576147201572744,-16,-1,1,-14,1,5,-4,-8
1576147201572744,10,-5,-7,4,-3,1,-7,7
1576147201585813,-2,1,8,3,-7,-1,-9,-1
1576147201585813,-5,2,6,9,4,-7,0,-4
1576147201587703,9,3,7,-1,2,2,3,2
1576147201587703,-4,8,-5,-5,1,-1,1,0
1576147201608689,-6,-14,-9,3,-11,-8,1,-8
1576147201608689,0,5,-7,3,1,0,3,1
1576147201609641,5,-5,-6,-3,4,-3,2,6
1576147201609641,16,5,-2,-5,2,-5,4,5
1576147201630585,-3,10,-1,-2,8,-8,-3,-4
1576147201630585,-25,-15,-5,-4,-4,-3,-6,-11
1576147201632579,0,-1,1,-4,-7,6,-2,10
1576147201632579,-13,-14,5,3,-5,12,-6,-3
1576147201645591,12,-6,-2,6,-9,7,-6,5
1576147201645591,8,5,4,13,5,4,3,9
1576147201647540,5,9,-3,9,8,-6,4,0
1576147201647540,-16,-3,-4,-3,2,-6,-4,-4
1576147201674520,-16,13,-6,2,-1,-1,2,-3
1576147201674520,5,5,1,-3,-4,-8,-2,0
1576147201683445,-15,-4,-3,3,-2,0,4,3
1576147201683445,-3,-10,1,-6,-4,-2,-2,-12
1576147201690528,9,-2,11,-4,-4,4,3,-2
1576147201690528,7,5,4,-13,-3,3,5,2
1576147201692420,3,5,1,-10,-7,-4,-1,-6
1576147201692420,-4,-1,-6,-2,-1,0,0,3
1576147201705505,-12,-4,-8,-3,2,-3,-4,1
1576147201705505,18,-6,-4,-1,-1,3,1,1
1576147201712413,-2,-5,0,-1,-1,5,-2,4
1576147201712413,14,9,-3,1,-7,-4,-4,-7
1576147201728367,3,-7,4,2,-1,-3,-3,-1
1576147201728367,-19,3,-7,6,-2,-9,-6,-2
1576147201730317,5,5,-3,-6,3,-6,-2,4
1576147201730317,-5,2,7,10,6,5,3,4
1576147201751311,-2,-2,0,-7,-4,-5,4,2
1576147201751311,7,-25,-1,-5,0,2,-9,-26
1576147201752259,-15,-3,8,6,7,6,0,-2
1576147201752259,-14,-5,-10,-11,-2,3,-4,-6
1576147201765247,17,4,-3,-2,-2,0,-7,-7
1576147201765247,-11,-2,-5,-2,-6,2,-2,15
1576147201772327,17,-2,-4,1,-1,-6,-7,-8
1576147201772327,29,-7,3,3,1,-2,1,-3
1576147201788218,-15,-6,-9,-12,-4,-3,3,0
1576147201788218,7,6,2,-2,1,3,11,12
1576147201790204,-8,6,1,1,-1,1,9,3
1576147201790204,-2,5,2,-4,-3,-1,2,3
1576147201811207,-24,-8,-4,-6,-6,4,-8,-1
1576147201811207,-14,4,5,0,1,-1,-6,3
1576147201812100,25,-4,6,-3,1,1,0,2
1576147201812100,6,3,5,-5,3,-5,-3,-7
1576147201825163,-9,4,-1,-8,5,-7,1,4
1576147201825163,-6,6,-3,5,3,-5,-2,-5
1576147201832048,-3,-4,-2,6,-6,5,2,2
1576147201832048,3,-2,1,18,-2,4,2,-5
1576147201848048,11,-1,0,9,-1,-1,-5,-3
1576147201848048,-7,-6,-10,-5,-2,-4,-2,11
1576147201850003,-7,-2,-2,2,8,0,-4,-15
1576147201850003,6,1,-6,-7,4,4,4,-1
1576147201871045,-6,5,6,-2,-5,8,3,-3
1576147201871045,19,4,-2,-1,-3,0,-1,-2
1576147201871942,-3,5,-3,3,-6,-14,-2,-4
1576147201871942,-3,-1,1,-2,-5,-8,-2,0
1576147201885004,15,-2,9,1,0,-3,0,1
1576147201885004,-4,4,1,1,-2,0,2,4
1576147201891991,-7,-3,-5,-13,-5,-2,-3,-5
1576147201891991,-14,0,-4,-9,2,-2,0,4
1576147201907945,7,-2,6,0,3,6,-2,0
1576147201907945,17,-6,0,6,4,5,-4,-11
1576147201909836,-36,-4,0,8,3,1,-5,-1
1576147201909836,-3,7,-1,2,-3,-1,0,3
1576147201930783,-11,-4,-10,-3,-3,3,1,-2
1576147201930783,7,-8,0,2,0,2,1,-12
1576147201932780,6,-5,0,-5,1,4,7,0
1576147201932780,-6,-11,-5,-5,-8,-5,-1,-5
1576147201944850,6,1,-1,10,4,-10,-6,-6
1576147201944850,-14,-1,-1,2,-3,-6,1,7
1576147201951827,11,8,-6,3,-5,-2,-5,3
1576147201951827,2,2,3,-7,1,-5,-1,7
1576147201968704,-2,-2,-9,-12,3,-4,-3,-3
1576147201968704,35,6,1,-1,-8,-6,-2,-3
1576147201969679,-18,-7,-3,-12,-4,2,-6,5
1576147201969679,-11,4,6,8,6,9,-4,1
1576147201990726,-4,-1,13,-3,-3,1,3,-3
1576147201990726,-6,0,1,0,4,3,8,2
1576147201992664,10,-3,2,-3,-5,-1,6,1
1576147201992664,-3,0,-6,0,3,0,-2,-3
1576147202005629,3,-1,-11,12,4,3,-2,-1
1576147202005629,-17,3,-7,3,-9,1,-1,-4
1576147202012563,0,-8,-4,2,-8,-1,3,-4
1576147202012563,-6,-7,2,3,-9,-6,-6,-7
1576147202028547,-9,3,5,8,7,-6,-7,-8
1576147202028547,3,-2,-4,-1,7,-7,-4,4
1576147202029517,14,2,3,2,-1,-3,-1,-2
1576147202029517,6,0,1,-4,-1,8,4,10
1576147202050562,26,-10,4,2,-4,5,3,-3
1576147202050562,-31,-11,2,-2,-1,4,-3,-7
1576147202052465,-18,-8,-7,-1,5,-2,-6,-5
1576147202052465,10,7,-1,-4,5,-5,4,1
1576147202064424,-9,-1,-5,-4,-2,-3,2,10
1576147202064424,-26,3,-1,-8,-7,-6,-1,-14
1576147202073399,11,2,-3,-5,3,-1,5,5
1576147202073399,0,3,1,3,1,0,3,13
1576147202088371,5,-1,-1,-4,3,-1,-2,-7
1576147202088371,2,6,2,0,-3,-3,0,0
1576147202090362,-1,7,-3,1,-5,-4,0,-1
1576147202090362,-3,2,-11,1,-6,7,-3,-3
1576147202111304,-3,0,-2,-2,-7,-1,-1,-9
1576147202111304,19,2,0,-7,4,-7,0,6
1576147202112305,21,3,5,-2,4,4,-4,8
1576147202112305,-12,-2,-6,-5,-5,-3,-7,-10
1576147202124365,4,-6,1,2,-1,2,-1,3
1576147202124365,-18,-10,0,3,6,1,-7,0
1576147202133242,6,-2,6,-1,-1,-2,3,4
1576147202133242,-10,-18,-3,-9,-4,-5,0,-2
1576147202148205,0,1,-3,-6,-1,-2,4,-5
1576147202148205,-3,-6,-2,-8,-6,-1,5,3
1576147202150204,20,10,-13,4,-2,5,-2,1
1576147202150204,-10,10,5,5,4,1,3,-5
1576147202171218,-25,-5,-1,4,2,1,2,6
1576147202171218,16,4,-1,3,-4,6,0,7
1576147202172138,-1,-7,-4,-6,-12,-6,-4,-3
1576147202172138,10,3,8,5,-9,-1,-5,-5
1576147202184208,3,8,2,-1,-3,-7,-3,6
1576147202184208,-13,0,-10,-6,3,2,-5,-4
1576147202193127,-8,-1,3,4,4,-1,-9,-8
1576147202193127,9,-10,1,-2,6,-5,-2,-4
1576147202208055,-8,-7,-5,-7,1,-5,-7,-11
1576147202208055,-1,0,6,6,2,-1,3,-2
1576147202210089,-13,-4,2,-3,1,-5,2,-4
1576147202210089,8,-3,-4,-10,-2,0,5,10
1576147202231007,0,1,3,-7,-7,-3,-2,-8
1576147202231007,11,3,2,0,-4,3,-1,-3
1576147202231985,-15,-6,-5,2,0,2,5,-3
1576147202231985,-23,-7,2,-1,4,3,0,-2
1576147202244989,14,-4,-4,5,1,2,-2,6
1576147202244989,13,-1,-7,0,4,-4,-5,-3
1576147202253926,12,-1,0,6,1,16,-2,2
1576147202253926,6,3,-6,6,-4,11,1,6
1576147202267976,-5,5,-2,2,1,11,-1,0
1576147202267976,8,4,1,6,-3,6,5,-4
1576147202269880,-1,6,-7,-4,4,6,1,-9
1576147202269880,3,10,-7,1,-3,-2,0,-4
1576147202290830,-10,-6,-3,5,1,-7,-3,-1
1576147202290830,-5,-11,4,-3,-3,-13,-4,-1
1576147202292851,7,-8,4,-8,-3,-8,-1,-8
1576147202292851,-8,-4,9,-1,-1,-8,-3,-1
1576147202304892,-6,3,3,-13,-4,-10,2,10
1576147202304892,14,3,-5,3,1,-4,0,5
1576147202313763,-3,-11,-8,-3,-7,-3,2,9
1576147202313763,1,-5,1,5,6,-3,-2,-8
1576147202328732,4,-4,10,0,1,-8,2,4
1576147202328732,-20,1,4,-10,-3,-8,-2,3
1576147202329715,6,19,3,0,0,-2,2,0
1576147202329715,-3,-1,-9,-2,-3,-3,-7,-14
1576147202350756,9,3,-2,0,2,3,7,12
1576147202350756,-13,6,2,-11,4,8,1,-3
1576147202352659,-10,-1,-3,0,-6,-9,0,7
1576147202352659,4,5,3,-1,-8,-11,-2,7
1576147202364626,-18,-13,0,7,-13,-8,-4,-14
1576147202364626,-1,-9,2,1,-8,-1,-9,-11
1576147202373643,1,-8,0,0,4,1,-6,-4
1576147202373643,11,-6,1,-7,7,4,-3,0
1576147202388568,-16,0,-11,-10,13,9,1,4
1576147202388568,8,6,-10,3,-1,5,3,1
1576147202389556,13,3,-2,4,0,-5,2,-5
1576147202389556,7,5,-5,-2,-2,-5,-2,-3
1576147202410602,14,0,-2,-2,-6,-2,0,-4
1576147202410602,11,0,-3,0,3,10,6,3
1576147202412496,-4,5,9,-1,-1,7,5,7
1576147202412496,0,-3,-1,3,-4,-1,3,5
1576147202424563,-16,-4,3,4,-2,-1,-3,-3
1576147202424563,-4,4,9,8,0,-4,0,9
1576147202433475,-1,6,-1,13,8,3,1,0
1576147202433475,5,0,0,-6,4,-1,-4,-6
1576147202448402,-1,3,-8,-6,-9,1,-6,-15
1576147202448402,-2,-10,-2,0,-6,-2,-4,-2
1576147202450395,-3,-7,-5,-9,-6,-2,-1,8
1576147202450395,0,-5,2,4,4,0,2,7
1576147202471338,12,2,4,8,8,7,3,10
1576147202471338,-10,-2,-7,-1,0,-4,-2,-9
1576147202472342,-9,-5,-7,-6,2,-5,-1,3
1576147202472342,-5,2,-2,-4,1,4,4,9
1576147202493378,16,9,0,-2,0,-3,3,4
1576147202493378,-47,-10,-8,-6,0,-4,-4,-8
1576147202495323,22,7,3,1,2,-1,0,-8
1576147202495323,-17,-9,2,2,-11,-6,-6,-11
1576147202508275,-1,-8,7,-7,4,-1,-2,2
1576147202508275,1,-5,-5,-5,-1,-1,-9,1
1576147202510269,11,1,-8,-5,-1,4,0,10
1576147202510269,-1,6,3,-4,-11,6,0,-9
1576147202531015,3,7,8,5,-8,-3,-3,-6
1576147202531015,3,-1,6,-5,0,-3,4,3
1576147202532015,18,-3,-2,-2,2,-1,-2,-5
1576147202532015,-2,-6,-8,-5,4,-4,3,-1
1576147202552957,-4,1,-1,7,1,2,0,-5
1576147202552957,10,6,1,17,-1,-5,1,5
1576147202554988,-16,-5,6,7,-2,-2,-6,-9
1576147202554988,-2,-3,3,1,1,-1,-3,0
1576147202568010,7,-5,-4,-1,3,-3,-5,0
1576147202568010,-11,5,-4,-7,-2,-3,-1,-1
1576147202569911,-35,-6,-7,4,-1,1,2,-3
1576147202569911,-22,-8,-11,-4,4,5,-1,-2
1576147202590951,2,-3,-4,-7,-4,6,1,2
1576147202590951,35,1,4,1,-7,-4,8,4
1576147202592896,-8,-1,-6,-7,-8,-7,-2,-2
1576147202592896,-7,10,-2,4,0,-1,-2,-14
1576147202613788,-13,5,1,-1,5,-1,-4,-6
1576147202613788,5,1,8,-5,3,9,-1,-2
1576147202614791,-6,5,8,-6,-4,-5,0,-2
1576147202614791,-7,-10,-2,-5,3,-8,-1,-1
1576147202628746,0,-6,-7,2,-4,-2,-2,4
1576147202628746,16,0,-10,6,3,0,-1,-2
1576147202629745,4,-11,6,-3,-5,0,-4,-6
1576147202629745,20,3,1,-4,-7,1,-2,9
1576147202650790,-20,-1,-3,0,0,0,2,-1
1576147202650790,7,1,2,-4,-3,4,4,8
1576147202652693,4,0,-7,-8,0,1,4,0
1576147202652693,4,-2,1,-6,-6,-2,0,-15
1576147202673728,16,4,2,1,-13,-8,4,-1
1576147202673728,-12,-1,0,5,1,3,-2,-4
1576147202674626,-3,3,4,4,5,3,-5,-4
1576147202674626,-3,4,4,1,15,4,-1,4
1576147202687690,-17,-12,-13,-9,2,-5,-7,-7
1576147202687690,-8,0,1,8,3,-5,-2,6
1576147202694674,-9,-7,-8,3,1,-8,-6,-6
1576147202694674,18,4,3,15,5,5,2,14
1576147202710629,-1,-3,1,-1,-5,5,0,5
1576147202710629,-2,-5,3,-6,-7,-1,-3,0
1576147202712523,9,2,-6,-4,-3,3,4,0
1576147202712523,-2,8,-5,-8,-2,-2,5,7
1576147202733567,-15,3,2,2,0,-6,-4,-9
1576147202733567,-2,-2,3,0,1,-5,-3,-2
1576147202734474,-18,-3,8,-2,-2,-5,-1,-9
1576147202734474,0,0,1,1,-8,-4,2,-3
1576147202747454,15,-5,2,7,9,7,4,5
1576147202747454,-1,-12,-6,-5,-3,1,-1,-2
1576147202754424,14,2,-4,-3,0,6,-3,5
1576147202754424,-6,5,-9,-7,-2,2,0,3
1576147202771367,-9,12,-5,6,8,1,3,-3
1576147202771367,3,-3,-2,-4,2,-5,3,-6
1576147202772371,10,-6,7,-1,-5,-6,-3,-4
1576147202772371,-6,-8,0,3,-12,-6,-3,-4
1576147202801315,-18,-5,0,-7,-15,-5,-3,2
1576147202801315,13,5,-9,-1,-1,4,-6,-9
1576147202802293,13,-1,-1,4,7,2,-2,-1
1576147202802293,-4,-2,4,9,2,3,-3,3
1576147202807369,17,5,-2,1,2,-3,0,7
1576147202807369,3,9,-6,-7,-5,-8,0,1
1576147202814295,-3,37,-8,1,6,-9,-5,-5
1576147202814295,3,10,0,2,7,2,-2,1
1576147202830908,0,-5,5,1,2,4,-3,4
1576147202830908,-1,-16,4,5,1,0,-3,-9
1576147202832906,1,-27,3,-4,-4,7,1,0
1576147202832906,0,-12,-2,-3,-10,5,-2,-9
1576147202853846,-5,-1,3,-1,-8,0,3,6
1576147202853846,-11,-2,-4,-7,2,-5,-1,-1
1576147202854849,3,-2,-7,-2,0,-7,4,9
1576147202854849,-4,-3,-15,-9,-3,-2,0,3
1576147202867907,-18,-12,-6,-13,0,2,1,-5
1576147202867907,6,-2,-2,1,1,-5,-4,4
1576147202874895,-4,-4,-2,7,3,-2,-1,-5
1576147202874895,18,-1,10,13,6,-4,2,2
1576147202890846,-1,5,1,9,3,-6,-1,-2
1576147202890846,-7,2,3,-3,-3,5,-4,-7
1576147202892778,-11,5,1,-2,-7,8,2,1
1576147202892778,10,2,-2,-8,-1,4,6,6
1576147202913724,-5,-9,-4,-3,-2,0,-1,-19
1576147202913724,0,1,0,-1,-10,-3,0,1
1576147202914688,-7,-6,1,-7,-3,-10,-2,-2
1576147202914688,22,3,7,3,2,-7,0,0
1576147202927743,-3,8,3,1,1,3,-2,1
1576147202927743,-6,5,7,-1,0,3,3,-4
1576147202934727,-4,0,-9,0,-4,2,-2,-3
1576147202934727,-7,-7,5,6,-1,-2,-3,3
1576147202950686,14,-7,-6,4,0,2,-2,-7
1576147202950686,-2,-8,-8,-1,2,-1,-7,-7
1576147202952590,12,10,0,-3,1,-1,1,12
1576147202952590,-8,-1,-3,-12,0,-4,-2,4
1576147202973626,15,-1,-1,-2,3,1,2,9
1576147202973626,8,3,4,11,-1,3,4,0
1576147202974560,-8,-2,1,1,3,-1,0,1
1576147202974560,-4,4,-7,10,-10,-2,-5,0
1576147202987495,1,5,-1,0,-9,-5,-5,-1
1576147202987495,-12,-1,-8,-7,-2,2,2,-14
1576147202996463,13,2,-4,-1,4,4,1,3
1576147202996463,-5,-5,4,-4,2,4,-1,-3
1576147203010525,-9,2,-2,-4,6,-5,-6,-4
1576147203010525,1,13,3,6,0,-3,3,12
1576147203012422,-26,-9,5,3,-3,-1,-2,-6
1576147203012422,-18,-3,-9,-7,-7,5,-2,-6
1576147203033464,3,-1,-4,-7,-6,-3,2,7
1576147203033464,-12,-6,-7,-14,-3,-3,-2,-1
1576147203035365,7,-5,-3,-4,-2,-1,-3,-10
1576147203035365,3,-8,-2,3,4,-4,2,0
1576147203047373,-2,-3,-10,-4,2,-6,2,6
1576147203047373,8,7,5,8,3,1,2,11
1576147203056362,-6,4,1,2,-6,0,-2,2
1576147203056362,-9,-1,1,-6,-5,-3,-1,1
1576147203071264,5,-2,11,-3,0,-3,-3,-14
1576147203071264,-10,-11,0,-2,0,-3,-5,-11
1576147203072268,12,13,8,3,0,-7,4,5
1576147203072268,-3,3,-5,3,-1,2,3,-1
1576147203093307,-1,5,-3,12,1,7,-2,5
1576147203093307,-6,1,-6,5,5,7,2,8
1576147203095269,14,-12,-8,-6,-8,-1,-5,-12
1576147203095269,-4,-5,-6,-8,-2,-9,-3,0
1576147203107372,0,3,7,-7,1,-6,3,12
1576147203107372,3,7,11,2,1,-4,-2,-3
1576147203116181,-17,10,3,-4,-4,2,2,2
1576147203116181,7,-6,5,-1,-2,5,0,-13
1576147203131106,7,-3,-11,-1,0,7,-2,-7
1576147203131106,-11,-8,-6,-11,5,0,-7,-8
1576147203132106,-2,-6,-3,1,1,-4,-2,-4
1576147203132106,-13,3,-9,4,2,-3,-2,5
1576147203153144,-4,-2,0,2,-5,2,2,-2
1576147203153144,3,9,-7,-4,-10,2,2,-6
1576147203155046,4,-3,8,-1,-5,0,-6,1
1576147203155046,-3,-1,6,-3,-7,-2,-7,-5
1576147203167107,1,-5,0,-1,-8,-8,-4,-3
1576147203167107,5,-9,0,-1,-1,-3,4,3
1576147203176030,-5,-6,-2,-2,8,1,5,6
1576147203176030,20,2,-6,0,0,3,2,2
1576147203191043,-6,3,-5,6,-3,-6,-1,3
1576147203191043,2,11,-6,2,3,-1,-4,5
1576147203192939,6,-3,-7,3,6,2,-1,-2
1576147203192939,-13,-7,-5,-3,6,3,-2,-7
1576147203212885,-1,2,6,-9,2,1,3,3
1576147203212885,-9,-4,12,2,-4,-6,-2,0
1576147203214887,12,2,2,2,3,-1,-2,8
1576147203214887,-8,0,1,5,2,1,3,9
1576147203226947,-3,3,-2,5,3,2,1,-2
1576147203226947,2,2,-6,-7,-2,4,1,1
1576147203235824,-4,-7,-7,-2,-9,-5,-1,0
1576147203235824,10,-2,4,-5,-5,-6,1,-1
1576147203250881,-3,5,6,-1,-3,2,2,-1
1576147203250881,14,-8,-6,-9,-6,-1,-5,-13
1576147203252785,-2,3,-8,1,-2,5,-1,0
1576147203252785,-8,0,0,0,6,-2,-4,1
1576147203273889,-6,-3,2,-3,0,-5,-1,0
1576147203273889,4,2,1,-4,-2,-4,1,5
1576147203274837,6,3,-5,1,2,5,6,5
1576147203274837,3,0,0,3,-2,1,-3,-3
1576147203286900,-32,-11,-7,4,0,-1,-3,4
1576147203286900,5,1,4,-2,-6,-5,-1,7
1576147203295785,4,-8,-2,-4,-2,-6,-2,-6
1576147203295785,-10,-5,-3,1,1,-8,-1,-3
1576147203310830,18,2,-1,1,1,0,1,4
1576147203310830,1,0,-4,9,4,5,1,3
1576147203312729,4,6,-4,2,2,8,1,-2
1576147203312729,-7,8,-4,-9,-1,2,-4,-6
1576147203340749,7,-14,-3,-11,1,0,2,0
1576147203340749,-6,-15,4,-7,-4,-1,-2,3
1576147203342649,-15,-8,10,-7,2,-1,3,3
1576147203342649,20,6,7,-5,2,1,-3,-5
1576147203346646,10,13,-1,3,-4,-1,-7,-5
1576147203346646,-29,5,-8,2,-8,-5,-5,-16
1576147203355660,6,5,-3,7,4,-5,-5,-9
1576147203355660,1,-4,-7,3,0,-1,4,4
1576147203370648,-2,0,-1,-1,-1,0,2,-5
1576147203370648,18,4,9,6,3,6,2,3
1576147203372575,7,-8,3,-6,-1,-1,-2,-1
1576147203372575,-19,2,-10,-2,2,-1,2,5
1576147203393614,6,-11,-1,3,6,3,1,3
1576147203393614,-16,-11,-9,1,-6,3,-1,0
1576147203394512,-7,1,-3,-6,-6,3,0,8
1576147203394512,2,2,4,-4,-4,-6,-4,-4
1576147203407530,-13,10,1,6,-3,-7,0,1
1576147203407530,12,8,2,0,2,-5,5,7
1576147203416460,8,-7,-3,-1,-2,-5,-2,1
1576147203416460,11,-12,-2,-10,-4,-1,-2,4
1576147203430421,-3,-3,1,2,2,-2,2,-6
1576147203430421,8,2,-8,-2,2,0,2,-4
1576147203432417,0,9,-5,-4,-2,5,-5,1
1576147203432417,-14,-6,3,0,1,3,-1,-7
1576147203453452,2,-6,5,-9,-6,5,-1,-5
1576147203453452,5,2,8,-15,-10,11,0,14
1576147203455351,5,12,-1,7,0,1,-8,-19
1576147203455351,2,0,-4,7,-5,-6,-4,0
1576147203476337,-16,-7,-7,2,1,-13,-4,-4
1576147203476337,-2,5,-5,3,7,-7,4,4
1576147203477296,-13,3,4,-2,0,-5,2,-3
1576147203477296,2,6,4,-1,-11,7,0,0
1576147203491258,19,13,-5,1,-3,6,-1,2
1576147203491258,-20,-9,-8,4,0,-1,-2,-8
1576147203492249,1,-5,-8,-1,4,-4,2,0
1576147203492249,10,-7,2,3,3,-3,4,0
1576147203513316,3,-8,4,-2,-1,-2,1,1
1576147203513316,-6,-3,3,-12,-3,-4,-3,7
1576147203515271,-14,1,-1,3,-1,-2,-5,-10
1576147203515271,0,2,-4,4,5,2,0,-3
1576147203536195,4,0,3,1,2,5,-1,8
1576147203536195,13,-3,2,3,-2,1,-3,2
1576147203537192,-10,-9,1,-3,-9,3,-4,-2
1576147203537192,-12,4,1,-8,0,1,-4,3
1576147203551231,-4,6,2,-6,-2,0,-1,-10
1576147203551231,5,-2,3,-2,2,-5,2,-8
1576147203552155,-2,-12,-5,-5,-7,-5,-1,-1
1576147203552155,15,5,6,14,1,2,4,7
1576147203573197,6,4,2,-2,0,-1,-2,1
1576147203573197,5,4,-4,9,-2,4,3,-1
1576147203575128,-10,-6,-11,4,-6,3,3,0
1576147203575128,7,-6,-7,6,-4,-5,0,-1
1576147203596084,-12,-5,-13,-7,1,2,-8,-3
1576147203596084,-10,-3,2,-11,7,3,-9,-11
1576147203597032,7,4,8,-8,-3,3,1,-1
1576147203597032,-14,-8,-1,-3,0,-1,5,-1
1576147203610098,-6,-7,1,1,-4,-5,6,5
1576147203610098,13,0,-11,1,8,-8,4,15
1576147203617079,0,5,-5,-10,-1,-6,-4,1
1576147203617079,10,1,3,-7,-4,0,-7,-8
1576147203633040,12,8,3,11,2,0,3,1
1576147203633040,8,-4,-5,-2,-3,2,-5,-5
1576147203634968,-13,-4,2,-2,5,0,2,-1
1576147203634968,-23,-10,-6,5,-1,6,1,3
1576147203655976,1,-3,-3,5,-1,3,0,1
1576147203655976,-11,2,2,-1,1,2,7,1
1576147203657869,25,-6,8,-6,3,-7,3,6
1576147203657869,27,0,1,1,-6,-6,0,-6
1576147203670209,-13,-3,-2,-5,-2,3,-1,-2
1576147203670209,-1,8,-4,-13,-5,0,-9,0
1576147203677273,4,5,-6,2,1,5,-4,4
1576147203677273,-7,-3,-3,1,-1,2,-2,-7
1576147203693140,-5,-3,-3,-2,-6,-7,-5,-10
1576147203693140,9,-9,2,6,-1,-6,-2,0
1576147203695077,-18,-2,3,6,8,-4,6,1
1576147203695077,14,4,6,2,-3,-4,-5,-1
1576147203716083,0,1,-3,-4,-5,-3,0,3
1576147203716083,-2,-10,-1,4,-6,4,-4,-5
1576147203716980,6,-4,3,3,-3,0,1,12
1576147203716980,-2,-1,2,2,8,-1,2,-7
1576147203729982,-12,2,-6,-4,5,-1,8,3
1576147203729982,-5,-12,-7,2,1,-1,1,-8
1576147203737031,11,1,-7,0,-8,0,0,7
1576147203737031,-15,7,-6,-2,-3,4,-4,0
1576147203753887,-6,-5,5,-9,-1,-1,-5,-5
1576147203753887,12,4,-2,8,-2,-5,2,-1
1576147203754885,-18,-2,12,9,-4,-3,-2,-13
1576147203754885,-8,0,1,-8,0,-2,-2,2
1576147203775919,5,1,-3,-1,3,3,-8,0
1576147203775919,3,1,9,-3,11,4,2,7
1576147203777837,9,0,4,-2,4,7,-2,0
1576147203777837,-7,-1,2,-3,1,-4,3,-6
1576147203789885,-9,1,-3,-3,-1,-7,2,-5
1576147203789885,-11,1,-4,-3,-3,-4,3,2
1576147203796807,12,-4,-2,0,1,0,4,-2
1576147203796807,-12,4,1,5,-3,4,-4,2
1576147203813721,-2,0,-3,12,3,-1,-1,3
1576147203813721,-6,2,-11,-3,-9,-7,-5,-8
1576147203814721,8,5,2,-9,-4,-7,-6,-4
1576147203814721,16,-1,2,-7,-1,-9,1,7
1576147203835701,-22,-11,-3,-11,4,-4,-5,-2
1576147203835701,3,3,2,-1,2,3,-3,-4
1576147203837662,8,-1,-2,-1,-2,2,2,0
1576147203837662,-7,-6,-2,2,-5,-1,-1,1
1576147203850628,11,2,-4,5,-3,-3,-5,2
1576147203850628,-10,0,-2,3,-2,-2,-4,3
1576147203856712,-2,-1,-8,8,-1,-4,-1,-3
1576147203856712,2,-4,3,-4,-2,-5,4,4
1576147203873566,-5,-9,3,1,-2,2,0,-9
1576147203873566,-1,-5,-5,-9,-4,5,1,0
1576147203874564,9,5,1,0,3,0,1,1
1576147203874564,-30,2,-3,-12,1,-5,-7,-2
1576147203895508,5,5,-7,-7,-2,-21,-2,8
1576147203895508,11,1,-11,-2,-3,-9,-9,-13
1576147203897503,-4,2,-1,0,-2,-5,-3,1
1576147203897503,3,-5,0,0,0,8,8,6
1576147203910562,-3,-2,13,5,0,3,6,-5
1576147203910562,12,-1,11,8,1,-4,6,3
1576147203917445,-11,-3,-2,-3,2,0,0,-7
1576147203917445,-31,2,-7,1,0,-1,-7,-15
1576147203933504,26,0,0,5,-4,2,-7,-7
1576147203933504,-10,8,5,8,0,-8,-2,-2
1576147203935397,7,8,-1,4,4,-4,0,1
1576147203935397,-11,-7,5,0,2,-2,-4,-15
1576147203956341,-1,-5,-6,-7,2,6,3,1
1576147203956341,5,-10,-3,-9,1,11,2,8
1576147203957340,-7,0,-3,-2,-8,10,-2,3
1576147203957340,16,-1,-1,-1,-4,1,-4,1
1576147203969571,0,11,0,-3,0,2,-2,9
1576147203969571,-2,7,4,1,1,-4,0,2
1576147203978449,-5,-6,-13,-1,-1,-7,-1,6
1576147203978449,14,6,-7,8,-2,-1,2,9
1576147203993507,25,-2,7,8,-8,-3,-2,-2
1576147203993507,-11,-12,6,2,-1,-1,-1,-10
1576147203995406,-1,1,0,-5,-7,-3,1,-10
1576147203995406,6,3,0,3,2,8,0,5
1576147204023427,-12,0,-4,-1,0,13,4,6
1576147204023427,14,-3,1,1,4,13,1,1
1576147204025321,-2,-8,-5,-2,-2,6,-3,-4
1576147204025321,8,1,-1,4,5,4,1,-7
1576147204029352,-14,1,-10,-3,2,-3,0,-3
1576147204029352,-10,6,1,3,2,-6,0,-5
1576147204038290,-1,-5,10,2,3,-2,2,5
1576147204038290,-1,2,-1,1,0,-2,-1,8
1576147204053350,-10,1,-3,-7,-3,7,-7,-2
1576147204053350,1,-1,-1,-14,-2,4,-2,-1
1576147204055244,15,-2,-7,-9,-1,0,-1,-3
1576147204055244,-3,-1,-11,-5,-7,-8,-2,-3
1576147204076183,-13,-7,-4,-3,-4,-2,-4,-7
1576147204076183,-20,-5,-2,-2,-9,-2,-1,8
1576147204077181,2,6,7,4,1,-5,-1,-1
1576147204077181,-11,-7,8,8,-2,-13,2,-2
1576147204089157,3,0,10,4,-3,-5,-8,-7
1576147204089157,9,7,-8,0,-1,-3,-6,-5
1576147204098127,-26,-13,-11,3,-2,0,-1,-3
1576147204098127,16,3,-12,-5,-4,10,2,0
1576147204113094,16,6,0,-5,1,3,-2,0
1576147204113094,3,-9,8,-11,2,4,-2,-7
1576147204115088,11,-5,-4,-3,2,-2,3,2
1576147204115088,2,-8,3,-1,0,-1,4,10
1576147204136076,-49,1,-3,-2,0,-5,4,-3
1576147204136076,5,9,-2,6,-1,-2,-2,-1
1576147204137023,11,10,1,0,1,-1,2,5
1576147204137023,-13,2,2,3,2,-1,-5,-8
1576147204149032,-1,2,0,0,3,-2,0,1
1576147204149032,7,0,-6,-2,1,-4,0,4
1576147204158965,0,-4,3,-5,2,3,1,-1
1576147204158965,-11,0,7,4,0,7,-1,-4
1576147204173026,14,-1,-4,4,-11,3,1,1
1576147204173026,-11,-5,4,-4,-9,-3,1,8
1576147204174925,3,-4,-2,-6,-4,-8,-7,-2
1576147204174925,-21,-7,-8,-8,-5,-8,-4,-4
1576147204195908,20,-4,-6,-2,3,3,-6,-21
1576147204195908,5,3,-4,2,1,1,4,3
1576147204197859,20,8,9,0,1,0,1,5
1576147204197859,-33,-7,6,-2,2,2,-3,3
1576147204209909,-2,3,-2,6,0,1,-4,2
1576147204209909,3,2,-2,7,-1,-3,-3,3
1576147204218809,-12,0,-4,-2,-1,-4,-7,-16
1576147204218809,15,4,3,1,3,-7,-1,-4
1576147204233808,2,-9,9,-1,-2,-8,4,9
1576147204233808,-1,-6,-7,0,-2,3,-4,-10
1576147204234771,-13,-5,-9,1,-4,3,-2,-4
1576147204234771,24,1,-8,-4,-3,1,-1,-6
1576147204255859,8,1,7,1,-2,0,2,-2
1576147204255859,-4,-7,7,-3,0,-2,-2,0
1576147204257755,-22,5,4,6,-1,2,-7,-10
1576147204257755,-2,-10,-12,-2,0,2,2,3
1576147204269822,11,0,-2,2,-3,-6,6,2
1576147204269822,-8,-1,-1,-3,-2,-5,5,-11
1576147204278702,-10,4,-4,-16,-6,6,4,5
1576147204278702,4,2,-4,-3,4,1,-3,8
1576147204293735,-10,-1,0,0,5,2,-2,5
1576147204293735,2,-8,-4,-3,-1,-4,-6,-3
1576147204294657,19,-5,-3,0,4,4,1,14
1576147204294657,-28,7,6,0,1,4,-4,0
1576147204315699,20,-3,-8,-3,0,-2,2,4
1576147204315699,-10,-5,-5,-7,-11,0,0,3
1576147204317593,-4,-1,5,-1,-3,-2,1,-2
1576147204317593,-3,8,1,-15,-4,-7,-4,-11
1576147204329568,-10,0,2,0,4,-3,2,5
1576147204329568,17,-2,1,14,6,-3,-1,-1
1576147204338543,-2,-2,3,8,-1,-6,-3,-2
1576147204338543,17,0,-1,5,-5,-10,-4,-10
1576147204353601,-18,-9,-7,-9,1,1,-5,-5
1576147204353601,11,5,-3,0,2,6,0,3
1576147204354503,7,-5,-3,0,-6,12,-2,5
1576147204354503,7,4,7,6,-2,5,6,5
1576147204375540,4,2,5,1,0,-10,2,5
1576147204375540,-21,2,2,-4,1,-7,-1,-14
1576147204377446,-1,-2,7,9,7,4,-2,-4
1576147204377446,6,-3,-5,3,-1,1,-3,-1
1576147204398423,-7,-5,-1,0,-6,2,-4,-11
1576147204398423,13,0,-6,-9,5,-1,1,5
1576147204400377,-4,2,-12,-6,-5,-8,6,-2
1576147204400377,-24,-2,-4,5,-6,6,4,-7
1576147204413346,8,0,-5,-4,-1,6,-2,-8
1576147204413346,-1,1,4,-2,0,-1,-4,3
1576147204415334,7,2,-1,-5,5,-7,-1,15
1576147204415334,15,2,8,2,6,-5,-5,-6
1576147204436323,-11,-1,2,5,0,-1,-1,4
1576147204436323,-11,5,6,0,-7,5,-2,-2
1576147204437743,7,-10,-5,4,-4,0,3,-8
1576147204437743,6,-1,-2,3,3,5,1,7
1576147204458554,-2,1,-2,-7,-3,-3,-3,1
1576147204458554,26,3,-13,-12,0,-8,-4,-4
1576147204459550,-3,-14,0,-7,3,-8,-7,0
1576147204459550,-3,-5,-3,-3,-5,-9,3,1
1576147204473612,-6,5,-4,4,-2,3,0,2
1576147204473612,5,-5,1,9,-2,8,2,5
1576147204474509,-22,-8,-3,-1,-6,0,-2,1
1576147204474509,18,-2,-4,7,-1,3,1,0
1576147204495456,0,1,8,7,-5,3,-2,-6
1576147204495456,-2,5,7,1,1,-2,3,3
1576147204497448,18,14,1,-8,3,-2,0,-2
1576147204497448,9,-3,-1,-12,1,-3,-2,9
1576147204518394,-15,-4,-2,-5,0,-7,-3,-8
