timestamp,emg1,emg2,emg3,emg4,emg5,emg6,emg7,emg8
1526902771535002,-5,-5,3,2,2,-2,-2,16
1526902771535002,14,5,1,-3,-2,-2,-3,6
1526902771536000,-8,0,-5,-4,-3,-1,1,-17
1526902771536000,-2,-10,-2,-3,-2,-1,1,-4
1526902771536000,-4,11,-2,-4,-2,-3,-4,10
1526902771536000,5,3,3,1,-1,-1,-1,5
1526902771539989,-4,0,-6,-2,-1,-1,-2,-12
1526902771539989,0,-1,0,0,0,1,0,-8
1526902771546973,3,-8,-1,-1,2,-2,-1,7
1526902771546973,-6,-5,1,2,3,1,-3,6
1526902771558939,-5,-1,-2,-5,-3,-1,-1,-12
1526902771558939,-2,-3,-2,-2,-2,1,0,-5
1526902771561930,7,0,1,0,0,0,0,9
1526902771561930,-9,-4,-5,-3,-3,-5,-2,0
1526902771578885,17,9,-1,2,-1,0,-1,-6
1526902771578885,-2,1,-2,-1,-1,0,0,-3
1526902771586864,9,-3,3,0,-2,-2,-1,8
1526902771586864,-6,2,-4,-1,-1,-1,1,-3
1526902771601824,-18,-17,-3,-1,1,1,1,-10
1526902771601824,11,8,1,0,1,0,2,3
1526902771606810,4,4,0,-6,-6,-1,-3,1
1526902771606810,-12,-6,-4,-6,0,-1,0,-3
1526902771654683,7,0,1,-3,1,-1,-2,19
1526902771654683,-4,-1,-3,-6,-6,-3,-1,2
1526902771655680,-7,-2,-3,9,2,1,-1,-15
1526902771655680,0,1,1,-2,-2,-1,-1,-6
1526902771656677,12,3,2,-2,-2,-2,-2,10
1526902771656677,0,0,-2,2,6,-1,0,5
1526902771660666,-8,-2,-3,-6,-4,-2,-1,-16
1526902771660666,-1,-1,0,0,0,1,-1,-8
1526902771666651,2,-3,0,0,-1,-1,0,8
1526902771666651,-4,0,2,0,-1,-3,-2,5
1526902771675626,-5,-3,-5,-4,0,1,1,-10
1526902771675626,-2,-4,0,-1,0,1,-1,-3
1526902771681610,2,1,-1,-2,0,0,-3,8
1526902771681610,4,3,1,-3,-5,-2,0,3
1526902771698565,-8,-3,-1,6,5,4,0,-9
1526902771698565,-6,-6,-2,-4,-4,-2,1,-2
1526902771704549,7,-2,0,-2,0,-1,0,7
1526902771704549,-4,-10,-1,2,0,0,-1,0
1526902771719509,-12,-7,-6,-7,-5,-2,-2,-11
1526902771719509,21,15,0,-4,-9,-3,-2,7
1526902771726490,-6,-1,-1,12,9,0,0,3
1526902771726490,-2,1,-3,-2,2,0,0,-2
1526902771735466,-3,-2,-1,1,-1,-2,-1,-6
1526902771735466,-6,-6,-3,-2,1,0,-2,-2
1526902771741450,0,1,0,-3,-6,-2,-1,3
1526902771741450,1,0,2,2,1,1,0,3
1526902771758405,5,4,-1,1,0,4,2,1
1526902771758405,-4,-2,4,2,-1,-9,-1,-1
1526902771764389,-3,-1,-3,-5,-4,-1,-3,2
1526902771764389,-2,2,-2,-2,-1,-3,-4,-2
1526902771779349,-1,0,-1,-2,-4,-1,-1,-3
1526902771779349,3,4,-2,-14,-6,1,0,-2
1526902771787328,-4,-5,-1,2,6,-1,-2,1
1526902771787328,-6,-5,1,6,6,1,1,0
1526902771796304,7,2,0,-4,-3,0,-2,-1
1526902771796304,-5,-8,-3,0,0,1,-1,-2
1526902771802288,5,6,-1,-10,-7,-4,0,2
1526902771802288,0,-1,-2,-3,-3,1,-2,-5
1526902771818245,4,12,2,2,4,1,0,-3
1526902771818245,-4,-5,0,4,1,-2,2,-1
1526902771824229,-1,-7,-2,-2,3,0,0,0
1526902771824229,-2,0,1,2,-2,-2,-2,-1
1526902771839189,-3,-4,-3,-7,-6,-2,-2,-3
1526902771839189,3,3,3,4,3,2,-2,0
1526902771847167,-2,0,-2,-1,-4,-1,-1,-1
1526902771847167,-3,-4,-2,-2,-4,-1,-1,2
1526902771856144,0,-3,-1,-4,-2,-2,0,-2
1526902771856144,-6,-5,-8,-4,-1,1,-1,-2
1526902771862128,2,1,4,7,1,1,0,-2
1526902771862128,-3,-8,-5,-3,-1,2,-1,-1
1526902771878085,-5,-4,3,0,-2,-1,1,0
1526902771878085,6,-1,-4,0,-1,0,-3,-2
1526902771884069,3,3,3,-1,-1,1,-1,6
1526902771884069,-3,-5,-3,-3,0,1,0,-7
1526902771899029,-2,-3,-2,0,-1,0,1,-2
1526902771899029,0,-3,-6,-1,0,-1,0,2
1526902771907008,1,4,4,-3,-3,-2,1,-1
1526902771907008,7,6,3,4,1,-1,-1,1
1526902771915984,-6,-3,1,0,1,0,0,-1
1526902771915984,7,9,-5,-7,0,2,-1,0
1526902771921968,-6,-4,-2,4,0,0,-1,-3
1526902771921968,2,8,14,8,1,2,1,-4
1526902771938923,-2,-5,-8,-7,-5,-4,-1,-3
1526902771938923,-1,0,6,5,2,2,-1,1
1526902771944906,-3,-4,-1,-4,0,-2,-1,-2
1526902771944906,0,0,-3,-4,-2,-3,-4,-3
1526902771960864,-3,1,-3,-1,2,0,-2,0
1526902771960864,-13,-21,-9,-5,-2,-1,-2,-3
1526902771966847,8,-1,-3,-2,-1,-1,-1,0
1526902771966847,-4,9,-3,-5,-3,-4,0,0
1526902771975824,1,0,-2,0,0,0,-3,-3
1526902771975824,-5,-4,0,1,0,2,1,4
1526902771981808,0,-1,3,-1,-2,-1,-1,-1
1526902771981808,-5,-5,-8,-5,-2,-2,-1,-4
1526902771998762,-3,0,6,6,3,0,2,-2
1526902771998762,6,7,2,2,0,-2,0,-2
1526902772004746,-3,-1,-2,0,0,0,0,-1
1526902772004746,4,1,1,-1,-2,-1,-2,0
1526902772020704,2,1,3,4,1,0,-2,1
1526902772020704,-2,-4,1,1,-1,-1,-2,-3
1526902772026687,-8,-7,-8,-4,-3,-3,-3,-3
1526902772026687,21,32,13,5,1,1,1,4
1526902772035664,-4,-1,0,-1,0,0,0,-3
1526902772035664,-6,5,-7,-4,-3,-2,-3,0
1526902772049626,-11,-14,-7,-4,-3,-1,-3,-4
1526902772049626,3,-5,-5,-3,-1,1,1,0
1526902772058603,1,8,4,-1,-1,-2,-1,1
1526902772058603,2,6,1,4,1,-1,1,0
1526902772064586,4,9,16,8,5,1,2,3
1526902772064586,-8,-13,-7,0,0,0,0,-5
1526902772080543,-4,-5,-6,-5,-2,1,-1,-1
1526902772080543,12,9,9,3,1,-1,0,5
1526902772086527,-6,-3,-6,-3,-1,-2,-1,-1
1526902772086527,-7,-4,0,0,-1,-1,-1,-5
1526902772095503,3,-4,-3,-4,-4,-1,-1,1
1526902772095503,-5,2,5,2,2,0,-2,-7
1526902772109466,-4,-10,-3,0,-1,-1,-2,-5
1526902772109466,5,6,0,-1,-1,-1,-1,1
1526902772118442,5,0,-3,-2,-3,-3,-2,-3
1526902772118442,-8,-4,-3,-2,-2,0,-1,-1
1526902772124426,3,4,1,0,-1,-1,-1,0
1526902772124426,-10,-7,-7,-2,-1,-1,-3,-5
1526902772141381,-1,-4,3,4,0,-1,1,0
1526902772141381,3,0,-4,-1,-2,-1,-1,3
1526902772147365,-2,6,1,-3,-1,-1,-2,0
1526902772147365,-9,-7,-3,-1,-1,0,-1,-2
1526902772156341,4,7,3,2,3,1,0,-2
1526902772156341,-5,-5,-2,0,-1,0,0,-1
1526902772169306,-1,-2,-4,0,-1,-1,0,0
1526902772169306,3,8,-1,-1,-2,-1,0,-2
1526902772178282,-4,-1,0,-1,-1,-3,-1,-2
1526902772178282,2,-4,-3,-4,-1,-2,-2,-2
1526902772184266,3,0,-2,2,1,0,-1,0
1526902772184266,-7,-11,0,-1,0,0,0,-4
1526902772201221,-5,4,2,0,0,0,0,0
1526902772201221,8,2,-3,-2,-1,-1,-2,0
1526902772207205,-5,-1,-1,-3,-3,-1,-1,0
1526902772207205,-4,-8,-3,-1,1,-2,0,-1
1526902772216181,-6,-6,-1,-2,-1,-2,-1,-3
1526902772216181,0,7,3,1,-1,-1,0,2
1526902772229146,2,0,0,0,-3,-1,-2,0
1526902772229146,-3,-11,-2,0,0,1,-1,-3
1526902772238122,-3,3,-1,-3,-3,-1,-3,-3
1526902772238122,0,-2,-4,-4,-1,0,2,0
1526902772244106,-2,0,-2,4,0,-1,-1,-1
1526902772244106,-1,-2,3,-5,-2,-1,0,0
1526902772261061,5,2,-1,3,0,-2,-1,-1
1526902772261061,-10,-15,1,-2,-1,-2,0,3
1526902772267045,14,13,1,-2,-1,0,1,2
1526902772267045,-3,0,-3,-6,-3,-1,0,-3
1526902772276021,2,3,1,-8,-7,-2,-2,1
1526902772276021,-5,-4,-2,1,3,-1,-3,1
1526902772288986,-2,-6,0,7,8,1,-1,-2
1526902772288986,2,-1,1,1,-2,-3,0,-2
1526902772297962,-1,-4,-2,-2,-1,1,0,0
1526902772297962,-2,2,0,-5,-5,-1,0,-1
1526902772303946,-2,-1,-2,-8,-5,-1,-2,-3
1526902772303946,1,2,-3,1,0,0,0,-1
1526902772320901,-3,0,1,-1,0,0,-2,-3
1526902772320901,5,4,0,-4,-4,-4,-1,3
1526902772326885,-2,-2,4,0,0,2,0,-1
1526902772326885,-8,-6,-5,13,3,-1,-1,-5
1526902772335861,4,-3,-4,0,-1,-1,-2,-1
1526902772335861,14,13,9,4,0,1,0,1
1526902772349823,1,5,0,-10,-9,-5,0,-2
1526902772349823,-4,-7,-2,0,0,0,-1,-2
1526902772358800,-10,-11,-5,2,4,1,-2,-4
1526902772358800,-5,-5,-2,0,2,0,1,0
1526902772364783,1,-3,-2,-5,-3,0,-3,0
1526902772364783,-2,3,1,-5,-3,0,0,-3
1526902772380741,-2,-2,0,1,-1,0,0,-7
1526902772380741,0,-5,0,-1,1,-1,-1,-2
1526902772386726,-4,-4,-1,-1,-3,-3,0,1
1526902772386726,0,4,-2,-6,-3,-2,-3,1
1526902772395701,-3,-3,0,5,8,3,0,1
1526902772395701,-2,0,-4,-2,-1,0,-1,4
1526902772409664,10,4,-1,3,1,1,3,8
1526902772409664,11,13,3,-1,-2,-1,1,3
1526902772418640,3,-2,0,-3,-5,-2,-2,1
1526902772418640,-9,0,-4,3,1,-1,0,3
1526902772424624,-8,-4,-1,-2,1,1,-4,-2
1526902772424624,-4,-6,-3,-4,-2,-1,-1,-4
1526902772440581,2,-4,-3,-4,-2,-1,-1,-5
1526902772440581,-4,3,1,8,3,-1,0,-1
1526902772446566,0,-3,-2,-5,-7,0,-1,-1
1526902772446566,-2,-2,-2,5,9,2,1,-6
1526902772455541,-3,-3,1,0,0,0,1,-4
1526902772455541,0,5,1,0,0,1,-1,-3
1526902772469503,-1,3,-1,1,0,-1,0,2
1526902772469503,1,2,1,0,-1,0,-1,-3
1526902772478480,-14,-15,-4,-2,0,-2,-1,-4
1526902772478480,18,7,-1,-3,0,0,-1,6
1526902772484464,-6,3,2,0,-1,0,-2,0
1526902772484464,-6,-7,-2,-2,-3,-1,-1,-3
1526902772501418,3,2,-2,0,0,-2,1,-2
1526902772501418,-8,-7,3,-2,-2,-3,-1,-3
1526902772507403,0,-3,-4,0,2,-1,1,-2
1526902772507403,-1,-3,-4,-2,-1,-2,0,-3
1526902772516379,2,3,1,0,0,-1,-3,-3
1526902772516379,-6,-9,-5,-3,-3,0,0,-1
1526902772529344,11,10,3,2,3,0,1,-2
1526902772529344,-12,-20,-2,-2,-3,1,0,-5
1526902772538320,20,26,3,-2,0,-1,2,5
1526902772538320,-1,-2,1,-3,-6,-3,-2,0
1526902772544303,-12,-14,-9,-5,1,-2,-3,-5
1526902772544303,-4,1,0,-1,0,-1,-2,-3
1526902772561258,-5,-3,-1,12,3,3,-1,-2
1526902772561258,-3,-7,-1,4,5,-1,-2,-3
1526902772567242,-5,0,-1,-4,-3,-1,-2,0
1526902772567242,-1,-1,-2,-5,-3,0,-2,1
1526902772582202,3,1,4,-6,-3,0,1,2
1526902772582202,5,7,3,3,-1,1,-2,3
1526902772589183,-3,-4,1,4,2,0,1,1
1526902772589183,2,4,-1,0,0,-1,-1,-3
1526902772598159,1,3,-2,-3,-3,-1,-2,1
1526902772598159,1,-5,-1,-2,-2,-1,1,0
1526902772604143,-5,-4,-5,-5,-3,-1,0,1
1526902772604143,-1,2,-4,1,0,2,1,1
1526902772621098,-10,-6,5,3,0,-1,0,-4
1526902772621098,8,3,1,3,1,1,-1,-2
1526902772627082,-3,-8,0,6,-1,-3,-1,-1
1526902772627082,3,6,-2,-4,-2,0,0,-1
1526902772642042,-3,-5,-11,-7,-2,-1,-3,-2
1526902772642042,-4,-4,-35,-33,-2,-1,0,6
1526902772649023,-7,0,43,27,6,3,-1,1
1526902772649023,13,8,7,5,0,-1,-2,-2
1526902772664980,-1,1,7,5,-2,-3,0,0
1526902772664980,-3,-5,5,6,-1,-2,0,1
1526902772665978,-3,-1,-20,-11,-2,-2,-1,-3
1526902772665978,-8,-11,-4,-2,0,-3,-1,-1
1526902772680939,9,7,2,-3,-3,-2,0,2
1526902772680939,-6,0,-8,0,0,-2,0,-2
1526902772686922,-2,0,-3,-6,-3,-2,0,-1
1526902772686922,-2,3,8,3,-1,-1,0,-3
1526902772701882,-3,-9,-10,-6,0,-1,-1,1
1526902772701882,-5,-1,8,3,0,-2,-4,-2
1526902772709860,10,5,-19,-6,-2,-1,-2,-5
1526902772709860,4,7,11,2,0,1,1,-2
1526902772724821,1,10,5,-1,-2,-1,0,3
1526902772724821,-8,-11,4,4,-1,0,0,-2
1526902772725818,-1,0,-6,-5,-2,-1,1,-1
1526902772725818,-13,-27,-16,-11,-1,-2,0,-9
1526902772740778,14,43,9,4,1,-1,0,5
1526902772740778,6,1,6,5,-1,0,-2,-1
1526902772746764,-5,-4,-1,0,-1,0,-1,-5
1526902772746764,2,1,-12,-7,-4,-4,-3,0
1526902772761722,-18,-22,-5,0,0,-1,-1,-2
1526902772761722,5,-2,-5,-3,-2,-1,-1,3
1526902772769701,3,16,7,-1,2,1,-2,1
1526902772769701,0,4,-3,1,0,-1,-3,2
1526902772784660,2,-10,5,0,0,2,0,0
1526902772784660,-1,14,1,3,-1,-1,-1,0
1526902772785658,-7,-10,-2,1,1,-2,-2,-4
1526902772785658,3,7,6,2,-1,0,0,-2
1526902772800618,-2,-6,-6,-2,-1,0,-3,0
1526902772800618,-2,-6,1,0,-2,0,1,1
1526902772806602,-4,-5,-8,-3,-2,0,2,-5
1526902772806602,1,7,1,3,0,0,-1,1
1526902772821562,7,-2,-5,-1,-4,-1,-2,2
1526902772821562,-5,-6,-1,0,-2,-2,2,-2
1526902772829541,-4,-3,0,-3,-1,2,-1,-4
1526902772829541,1,-2,-1,-5,-3,-3,-3,-4
1526902772845498,-10,-7,-5,-3,-6,0,-1,0
1526902772845498,-8,-4,-2,-1,17,3,0,-1
1526902772845498,17,12,3,3,-2,0,2,3
1526902772845498,-6,1,0,1,1,3,0,-2
1526902772860458,-1,-4,-2,-3,-4,-1,-4,0
1526902772860458,-3,-1,0,1,-4,-3,-2,-2
1526902772866442,1,-3,-3,2,1,1,0,-1
1526902772866442,-3,-1,0,-2,-2,0,0,-5
1526902772882399,-4,-4,-4,-4,-2,-2,-1,1
1526902772882399,2,2,3,0,-2,0,0,1
1526902772889380,-9,-8,-2,0,1,-2,-2,-4
1526902772889380,5,3,0,2,-2,-1,0,2
1526902772905338,-7,-3,1,-1,0,-2,1,-2
1526902772905338,-1,1,-1,-2,-3,0,-2,-1
1526902772906335,-2,2,-2,-5,-6,-3,-3,-2
1526902772906335,-6,-2,-3,-1,-1,-2,0,-1
1526902772927279,0,-4,-4,1,4,0,-1,-2
1526902772927279,8,11,2,-3,-5,-4,-3,3
1526902772928276,4,-2,1,0,-1,0,1,-2
1526902772928276,2,2,2,0,0,0,-1,-1
1526902772942239,-4,-11,-3,-2,0,0,2,0
1526902772942239,-2,1,-6,0,-1,-1,-3,-5
1526902772949220,-4,-3,2,2,0,-1,-2,-3
1526902772949220,-2,-9,-2,-3,-1,-1,-1,-2
1526902772964180,9,6,3,-1,-1,0,1,3
1526902772964180,0,12,16,3,1,0,2,4
1526902772972159,-1,3,2,0,-3,0,-1,0
1526902772972159,-1,4,3,3,2,0,0,-2
1526902772981136,-3,-2,-3,-2,-1,-1,-1,-2
1526902772981136,0,-7,-7,-4,-2,-2,-1,2
1526902772987119,-6,-2,-2,-1,-1,0,-1,-3
1526902772987119,-4,-8,2,0,-2,-1,0,-3
1526902773002079,-6,0,-4,-2,-1,-1,0,-4
1526902773002079,8,3,-10,-4,-3,-2,-2,1
1526902773009060,8,10,10,3,1,-1,2,-2
1526902773009060,-5,-1,-4,-2,-2,1,-1,-2
1526902773024020,0,-2,7,1,2,1,-1,2
1526902773024020,-9,-6,-10,-2,-3,-1,-3,-4
1526902773032004,1,-1,-8,-5,-3,-2,-2,0
1526902773032004,0,1,-2,-1,-1,0,-2,-3
1526902773040975,-4,-1,-3,0,0,0,-1,-2
1526902773040975,2,3,10,1,-2,-2,-1,-2
1526902773046961,1,-4,-4,-2,0,-2,0,2
1526902773046961,-3,0,-6,-4,-2,0,0,-1
1526902773063918,1,-1,0,-3,-3,0,0,3
1526902773063918,-1,-8,-2,4,1,-1,1,1
1526902773069898,-7,-4,-1,5,4,-1,-2,-6
1526902773069898,1,7,-1,1,0,1,-2,-3
1526902773084858,-1,-5,-1,-1,-2,-1,-1,1
1526902773084858,1,-1,5,-3,-3,0,0,0
1526902773091839,-8,-1,-7,-2,-1,-2,-2,-2
1526902773091839,9,3,5,-11,-6,-1,0,2
1526902773100815,1,4,1,19,9,4,0,-2
1526902773100815,-4,-9,-2,-3,0,-4,1,-3
1526902773106799,-15,-8,-1,0,2,-1,-1,-2
1526902773106799,19,21,0,0,-1,-2,0,2
1526902773123754,2,-1,-3,-11,-6,-4,-1,0
1526902773123754,-3,0,2,-3,-2,0,-1,4
1526902773129739,-4,-6,-1,5,6,3,0,-3
1526902773129739,-7,-9,-4,-4,0,-1,-2,-4
1526902773144698,4,-1,0,-2,-2,-1,-1,-1
1526902773144698,-2,8,1,-2,-3,0,1,3
1526902773151679,7,4,2,-6,-4,-2,-1,1
1526902773151679,-7,-5,-2,5,4,0,-2,-7
1526902773167636,-4,-2,0,2,0,-2,-1,-3
1526902773167636,4,3,1,0,-1,-1,-2,2
1526902773168634,6,12,0,-8,-10,-5,-1,1
1526902773168634,-5,-7,-3,-1,3,-1,0,-5
1526902773183594,-5,-12,-1,6,1,1,0,-2
1526902773183594,4,9,-3,-3,0,0,-1,-1
1526902773189577,10,1,3,1,-1,0,1,1
1526902773189577,-7,-5,1,0,-2,-1,1,-1
1526902773204537,-1,-1,-5,-6,-3,-1,-2,1
1526902773204537,-2,-2,-2,0,-1,0,-3,3
1526902773211519,0,-4,-4,-2,-3,0,-2,-2
1526902773211519,-3,-1,-4,2,-1,-1,0,1
1526902773227476,2,3,7,-5,0,-3,-2,2
1526902773227476,-3,-6,-1,1,3,-1,-2,-1
1526902773228474,-3,0,-5,-5,-4,-1,-1,-5
1526902773228474,4,-7,-1,-12,-9,-4,0,-2
1526902773243434,2,10,-1,-13,-15,-2,-1,3
1526902773243434,-4,-9,-4,4,7,0,1,-2
1526902773249417,-5,-4,1,14,12,1,-1,-5
1526902773249417,-12,-12,-3,2,0,-2,0,-7
1526902773264378,16,13,-4,-5,-2,-2,-1,3
1526902773264378,-4,-1,-3,-10,-10,-3,-2,3
1526902773272356,-11,-8,-2,-6,-9,0,-1,-4
1526902773272356,2,-4,0,3,2,0,-1,1
1526902773287316,-6,-4,-2,0,1,0,-1,-1
1526902773287316,-4,-7,-2,1,-5,-2,-1,0
1526902773288314,3,2,-1,-2,-2,0,-1,1
1526902773288314,-4,-1,-8,-7,-5,-1,-3,-4
1526902773303274,-4,0,-1,5,6,0,-2,-4
1526902773303274,9,1,3,6,1,0,2,1
1526902773309257,-1,-3,-2,0,2,-1,-1,-2
1526902773309257,-3,3,0,-5,-6,-1,1,-3
1526902773324217,0,-7,1,4,1,0,-2,0
1526902773324217,0,-1,-1,-2,0,0,-1,2
1526902773332196,-3,0,-3,-5,-3,-3,0,-5
1526902773332196,0,1,-2,2,1,0,-1,-1
1526902773347156,5,5,0,4,6,0,0,5
1526902773347156,-1,6,6,2,2,1,0,0
1526902773348153,-2,3,5,7,1,2,0,-2
1526902773348153,-2,-2,2,-1,-1,2,-1,-3
1526902773363113,-3,-8,-1,-2,-1,0,0,3
1526902773363113,13,10,2,-4,-3,-4,-4,-4
1526902773369097,-7,-8,-6,-5,-4,-2,-1,1
1526902773369097,-7,-5,2,0,2,-1,1,-2
1526902773384058,-7,-15,-2,0,0,4,1,-4
1526902773384058,3,16,3,3,3,1,3,1
1526902773392036,0,-2,-1,3,3,-3,7,-4
1526902773392036,1,2,1,5,1,0,-3,-2
1526902773407993,-5,-6,-4,-5,-3,-2,-1,-2
1526902773407993,-3,-2,-2,-3,-4,0,0,0
1526902773407993,3,5,0,-3,1,1,2,-2
1526902773407993,0,1,-1,2,-1,1,0,2
1526902773423951,3,10,7,7,2,-1,0,1
1526902773423951,-9,-10,-10,-6,-2,-2,-3,-4
1526902773429937,4,3,-2,-3,-2,-4,-3,0
1526902773429937,0,0,-4,-2,-1,-3,1,1
1526902773444895,3,-1,2,-2,-1,-3,-1,3
1526902773444895,-6,-10,0,4,1,-3,-3,-3
1526902773451877,-4,3,3,-9,-3,0,-4,-3
1526902773451877,9,6,1,4,1,2,-1,-1
1526902773467833,0,1,-2,-2,-2,-2,0,0
1526902773467833,-3,-8,-6,-2,1,-1,0,0
1526902773468831,-2,-4,-4,-1,-2,-1,-3,1
1526902773468831,-6,-3,-3,4,2,-1,-1,-9
1526902773483791,-3,2,-6,-6,-3,-3,-1,-1
1526902773483791,-3,-5,5,4,0,-1,-1,1
1526902773489775,-1,7,-9,-6,-2,-2,-3,-3
1526902773489775,0,6,5,2,1,-1,0,-1
1526902773504734,-4,-4,0,-2,-2,-2,-3,1
1526902773504734,-6,-4,0,2,3,0,0,-1
1526902773511716,-5,-10,-1,-2,0,0,0,-1
1526902773511716,-3,-2,-4,-3,-14,-3,-2,-4
1526902773527673,11,9,1,0,11,1,0,3
1526902773527673,-2,-2,2,0,-10,0,0,1
1526902773528672,-2,4,2,6,7,1,0,-2
1526902773528672,-7,-13,-5,-3,-2,-1,-2,-4
1526902773543631,-2,-4,2,1,-2,1,-1,1
1526902773543631,-2,-2,-4,-5,-6,-2,-1,1
1526902773549615,3,1,4,1,1,1,0,-2
1526902773549615,-2,-1,-1,-2,1,1,-2,-2
1526902773564575,3,-2,-3,-2,-4,-2,-1,0
1526902773564575,-8,-7,-8,-5,4,-1,-3,1
1526902773571556,-1,-5,0,0,-4,-1,-1,-2
1526902773571556,3,7,4,0,3,-2,0,3
1526902773587513,1,-2,-2,-1,-2,-2,-1,1
1526902773587513,-4,-2,-13,-6,-2,-2,-3,-2
1526902773588511,1,0,13,3,2,1,-1,-6
1526902773588511,0,3,1,1,-14,1,0,-1
1526902773603472,-2,3,-5,-3,-2,-2,0,2
1526902773603472,2,-6,0,-1,-1,0,0,-4
1526902773609454,-4,-10,-5,-2,-2,-2,-2,-3
1526902773609454,11,11,-1,-3,2,-2,-1,4
1526902773624415,4,-1,1,0,-5,0,-1,2
1526902773624415,-21,2,6,4,0,0,-1,-5
1526902773632393,-2,1,-5,-1,-4,-1,1,-4
1526902773632393,-5,-1,3,2,4,-1,1,1
1526902773647353,7,-4,-1,-2,0,0,-2,0
1526902773647353,1,7,0,0,1,1,0,0
1526902773648351,6,-2,-5,0,-3,-1,0,-4
1526902773648351,-13,-6,-1,-1,1,-2,-2,1
1526902773663311,2,7,0,0,0,-2,-1,-2
1526902773663311,6,-6,3,0,-1,-1,0,0
1526902773669295,-4,-2,-6,-1,0,1,-1,-3
1526902773669295,9,5,9,1,4,2,3,2
1526902773684255,-22,-6,-4,-3,-4,-1,-1,-4
1526902773684255,5,0,-1,-1,-3,-2,-2,-2
1526902773692233,-4,2,-2,-2,-2,-1,0,-2
1526902773692233,-1,-14,-7,-1,2,2,1,-2
1526902773707194,-7,2,-8,-2,0,-1,0,2
1526902773707194,9,4,11,3,1,-2,1,0
1526902773708191,-5,0,-2,-1,-2,-3,-3,-5
1526902773708191,0,2,-5,-4,-3,-2,2,1
1526902773723150,3,0,0,1,0,2,2,4
1526902773723150,-2,-5,-11,-5,-1,0,3,-3
1526902773729134,2,-4,3,-2,-3,-2,-12,3
1526902773729134,-11,-7,-2,1,0,0,-2,-5
1526902773744095,1,1,0,-2,0,-2,1,-1
1526902773744095,4,0,-1,-2,0,-2,-7,1
1526902773752074,-3,-4,0,-2,0,0,5,-4
1526902773752074,9,12,-2,-2,2,-2,2,1
1526902773768031,0,-4,-1,-3,-2,-1,1,4
1526902773768031,1,1,6,3,0,0,0,1
1526902773768031,-3,-7,-5,0,0,0,1,1
1526902773768031,13,9,3,-2,-1,-2,-4,-9
1526902773797950,-10,-7,-6,-2,-2,-1,1,2
1526902773797950,0,-5,2,-2,-3,-1,-1,-1
1526902773798948,-8,4,-2,1,1,-1,0,-3
1526902773798948,8,-10,6,2,0,-1,2,2
1526902773804932,-4,0,-7,-5,-3,-2,-7,-2
1526902773804932,15,6,-4,-2,0,-1,0,1
1526902773811913,-5,9,1,-4,-1,-2,0,-5
1526902773811913,-4,-2,3,0,-9,-3,-1,2
1526902773827870,-3,-6,-4,0,14,1,-4,-3
1526902773827870,0,-3,1,-3,4,13,1,2
1526902773828868,0,1,-2,-1,-9,-1,3,-3
1526902773828868,0,-3,-6,2,5,-5,-2,1
1526902773843828,10,-3,5,0,-15,-11,-2,2
1526902773843828,-5,15,0,13,29,31,4,0
1526902773849812,9,3,2,1,0,-6,-1,-1
1526902773849812,-13,2,-5,-3,-4,5,-1,-4
1526902773864772,2,-5,3,-3,-8,-14,-3,-2
1526902773864772,-1,4,-4,-16,-16,-15,-3,1
1526902773871753,9,-6,3,19,11,11,1,-2
1526902773871753,1,8,1,-1,-3,-7,-1,4
1526902773887710,-7,-1,7,-6,-5,3,-1,-1
1526902773887710,1,2,0,17,13,-2,2,2
1526902773888708,-3,0,-4,-5,-3,-3,-2,-3
1526902773888708,-1,-5,-3,0,2,-2,0,-1
1526902773903668,2,0,3,0,-4,4,2,2
1526902773903668,-7,-13,-11,-13,-10,-6,-4,-2
1526902773909652,2,3,4,4,3,-3,-5,-3
1526902773909652,-18,-3,-1,1,1,4,4,-8
1526902773924612,3,1,-1,1,1,4,2,12
1526902773924612,10,-6,-1,-2,-10,-11,0,-11
1526902773931593,-30,-5,-6,-6,-1,-3,-6,-5
1526902773931593,8,-2,-2,-4,1,3,1,5
1526902773946553,-10,-7,0,4,3,-1,-11,-14
1526902773946553,9,5,1,-4,-7,-10,-8,0
1526902773954532,-2,-4,-1,-10,-7,3,-1,-7
1526902773954532,-9,-1,1,4,10,6,9,4
1526902773963508,9,4,-6,12,0,1,18,14
1526902773963508,-10,-7,-8,-14,-5,-8,-22,-32
1526902773969492,3,-2,2,7,14,5,11,4
1526902773969492,-3,-2,1,-3,-6,-4,-15,8
1526902773984452,5,5,0,-1,0,-2,3,-33
1526902773984452,1,-3,-3,-5,-1,-3,-2,11
1526902773992430,-10,2,4,-8,-8,-3,6,-13
1526902773992430,3,-4,-7,-4,-1,0,6,23
1526902774007391,3,-3,3,3,4,1,4,28
1526902774007391,-28,-3,1,-3,-14,-1,1,-8
1526902774014372,10,1,-7,-2,2,-1,-2,-4
1526902774014372,0,-1,1,4,4,0,-1,-1
1526902774023348,-6,-8,-3,-6,-2,1,-6,-1
1526902774023348,10,5,4,3,1,-2,3,6
1526902774029332,4,-2,-4,-1,-4,-2,1,12
1526902774029332,8,3,1,-2,-6,-2,-4,-17
1526902774044292,-3,0,-4,-9,-1,-1,-8,-3
1526902774044292,-21,-4,1,18,7,1,8,4
1526902774052270,2,0,-1,2,-2,-3,-3,-2
1526902774052270,6,-9,0,-4,-5,-5,-5,-5
1526902774067230,-2,-1,-5,-6,-3,0,0,-3
1526902774067230,2,0,-4,2,3,2,1,9
1526902774074212,9,15,1,0,-1,-1,-3,1
1526902774074212,-6,-3,-1,-2,0,1,-4,-9
1526902774090169,5,5,5,-4,-12,-2,-2,4
1526902774090169,-4,-8,-6,-10,0,-5,-1,1
1526902774091167,6,3,1,12,10,2,-2,-1
1526902774091167,4,6,0,1,-1,-1,3,-4
1526902774104132,-2,-1,1,5,4,1,-2,-3
1526902774104132,1,1,-3,-7,-7,-2,0,1
1526902774112111,-4,-6,-2,-10,-7,-2,0,-1
1526902774112111,-12,-16,-4,-1,0,-1,-2,-3
1526902774127070,17,23,4,2,1,-2,-3,4
1526902774127070,0,-7,2,3,0,-1,2,-2
1526902774134052,-8,-7,-9,-7,-3,-3,0,-1
1526902774134052,-1,2,-4,0,1,4,1,-3
1526902774150009,-4,-9,-3,-1,1,-4,-3,-1
1526902774150009,-2,2,8,1,0,3,3,3
1526902774151006,-11,-5,-5,-3,-3,-3,-7,-6
1526902774151006,-2,-5,-5,-3,-2,1,6,-2
1526902774163972,-6,-3,-1,1,4,2,-12,-2
1526902774163972,4,2,-2,-1,-2,-1,-3,-3
1526902774171950,1,-7,-2,-6,-8,-6,-3,-1
1526902774171950,4,5,0,-8,-17,5,2,-3
1526902774186910,4,0,4,19,37,-1,0,3
1526902774186910,-1,1,-1,4,0,1,1,-4
1526902774194889,-10,-7,-4,-4,-1,0,-3,-3
1526902774194889,8,5,3,0,-2,-9,-3,1
1526902774209849,-3,-4,-7,-9,-13,4,-3,1
1526902774209849,-3,-7,3,2,5,5,9,0
1526902774210847,7,6,3,2,1,1,3,-2
1526902774210847,3,7,1,2,2,1,-1,4
1526902774225807,3,7,5,0,-6,-5,0,-1
1526902774225807,-1,-2,-3,1,2,-4,-4,1
1526902774231790,5,-1,2,-1,-3,5,0,-4
1526902774231790,-11,-10,-6,-4,2,-5,-3,-5
1526902774246750,-1,1,0,-1,-4,4,1,0
1526902774246750,4,3,-2,-5,-4,-5,-1,0
1526902774254729,-6,-2,-5,-2,-1,-1,-2,-3
1526902774254729,-1,0,1,2,2,-1,-4,-2
1526902774269689,-1,-5,-4,-4,-4,1,1,-2
1526902774269689,4,-1,-2,0,-1,4,5,3
1526902774270686,-5,-3,1,2,-1,1,9,-1
1526902774270686,-1,2,-2,-2,0,-9,-19,-2
1526902774285646,3,-1,0,-5,-5,14,-27,-3
1526902774285646,0,3,2,0,-1,-20,5,1
1526902774291630,0,1,0,-1,0,-5,-11,-1
1526902774291630,-2,-3,-3,-4,-7,6,13,-1
1526902774306590,-4,-6,-2,0,-2,-3,21,3
1526902774306590,-1,4,0,2,4,10,-23,-6
1526902774314569,4,1,-3,0,-3,-5,-1,-4
1526902774314569,1,0,-1,1,1,-3,-6,-2
1526902774330526,-2,1,1,-1,-2,-4,4,2
1526902774330526,0,-3,-1,-1,-1,1,5,1
1526902774330526,-9,-5,1,-1,0,0,-1,-3
1526902774330526,6,8,-1,3,3,1,-3,-1
1526902774345486,-6,-9,-8,-5,-3,-11,-3,-3
1526902774345486,-2,-1,-3,-5,0,4,2,1
1526902774351470,-1,-3,-1,-1,-1,2,-3,-2
1526902774351470,3,-7,-5,-3,1,-4,2,1
1526902774366430,-3,6,3,-2,-1,-2,5,-1
1526902774366430,4,3,-2,0,-4,-1,-2,0
1526902774374409,-5,-4,0,1,1,2,2,-3
1526902774374409,-9,-3,0,-2,0,1,2,-2
1526902774390366,1,-3,0,-1,-1,-2,2,3
1526902774390366,1,7,3,2,-1,0,-3,-1
1526902774391364,-4,-5,-3,0,0,-1,1,1
1526902774391364,-1,0,2,3,2,-2,-1,-1
1526902774406324,-1,-4,-4,0,-2,3,-2,1
1526902774406324,-2,-3,-1,-2,1,-1,0,1
1526902774412308,-2,-6,0,0,0,-2,0,-2
1526902774412308,4,8,1,-2,2,7,1,0
1526902774427268,-4,-5,-2,-2,-5,-10,-1,1
1526902774427268,3,0,-2,-2,-3,-2,-1,0
1526902774434249,3,4,-1,-7,-4,-1,0,0
1526902774434249,-13,-11,0,11,4,2,1,-3
1526902774450206,5,2,0,0,3,2,0,-1
1526902774450206,-2,6,-3,-3,-2,-2,-2,-1
1526902774451204,5,5,2,2,-1,1,-3,0
1526902774451204,-6,-4,-1,-5,-4,-6,-2,-3
1526902774466164,5,2,-1,-1,-1,-1,1,4
1526902774466164,-2,-10,0,0,0,-2,-1,0
1526902774472147,-9,-1,-5,-1,-1,1,1,-2
1526902774472147,-2,-6,-1,-5,-2,-3,-2,-3
1526902774487107,1,4,0,-1,-1,-2,0,1
1526902774487107,-4,-12,-3,3,0,0,1,-1
1526902774494089,12,7,0,1,-1,-2,0,1
1526902774494089,-4,3,0,0,-1,-2,1,1
1526902774510046,-7,-8,-2,-3,-1,0,3,-5
1526902774510046,5,1,-1,-4,-2,-3,-3,-1
1526902774511044,-9,0,-3,1,-1,0,-1,-4
1526902774511044,13,5,3,1,4,1,0,2
1526902774526004,-1,-5,-1,-7,-8,1,0,3
1526902774526004,-4,-1,0,3,3,-1,0,-2
1526902774531987,-5,-6,-3,3,2,-2,-2,-5
1526902774531987,0,-4,-3,-2,0,0,0,-2
1526902774546947,0,3,1,2,1,-1,-1,0
1526902774546947,-2,-4,-3,-6,-7,-3,-1,-2
1526902774554926,-2,-2,1,-6,-1,0,-2,-4
1526902774554926,-1,9,0,3,2,-2,-1,-1
1526902774569886,4,-6,-2,-1,1,-1,-2,1
1526902774569886,-6,3,1,6,0,-2,-1,-1
1526902774570884,3,0,-4,-11,-5,1,1,-4
1526902774570884,1,0,0,8,3,1,-2,1
1526902774585844,-1,-4,-1,4,2,-1,-1,0
1526902774585844,1,0,-1,-1,-1,0,1,-1
1526902774591827,1,1,-1,1,-2,-2,-1,0
1526902774591827,-1,-5,-2,-11,-8,-4,-1,1
1526902774606788,0,1,-1,0,2,-2,-2,0
1526902774606788,-2,0,0,-2,-2,-1,0,-1
1526902774614766,-1,2,-2,-3,-4,-1,-1,-1
1526902774614766,-1,-5,-4,-17,-7,-1,-2,-2
1526902774629726,2,0,5,20,10,-2,0,5
1526902774629726,2,2,4,41,15,8,2,0
1526902774630724,-3,0,-4,-2,4,4,0,-3
1526902774630724,-1,0,2,3,-2,-11,1,-2
1526902774645688,0,2,-2,-16,-9,1,-2,-2
1526902774645688,2,-3,-3,-22,-13,-4,-3,1
1526902774651667,-1,-1,1,4,1,-2,-1,-2
1526902774651667,-2,-2,0,2,1,6,-1,0
1526902774666627,-9,-10,-2,-7,-4,-5,-3,-4
1526902774666627,3,7,1,-3,3,4,3,2
1526902774674606,-1,3,0,-2,-2,0,-1,1
1526902774674606,10,12,3,-4,-2,0,1,3
1526902774690563,-1,-1,-1,4,2,-1,-1,0
1526902774690563,-8,-8,-4,-5,0,-1,-2,-2
1526902774696547,-2,-6,0,-3,0,-2,0,-1
1526902774696547,-1,-2,-3,1,0,1,-2,0
1526902774705523,-1,4,0,1,1,2,0,1
1526902774705523,0,-5,-3,-11,-6,-3,-2,-3
1526902774711507,-3,7,0,4,3,-1,-2,-4
1526902774711507,-1,-2,2,10,7,-1,-1,-1
1526902774726467,2,0,-3,-4,-4,1,0,1
1526902774726467,-2,-1,-4,-6,-3,-1,0,-4
1526902774734446,2,-2,0,-2,-2,-1,0,-2
1526902774734446,0,-1,-1,4,1,-1,0,-1
1526902774750403,-1,-1,-1,0,0,1,-2,0
1526902774750403,-2,-6,-1,-3,-2,-3,-2,-1
1526902774751401,6,2,-1,-1,-2,-3,-1,-1
1526902774751401,-3,-2,-1,-12,-8,3,-2,-2
1526902774766361,-9,-5,0,17,10,1,-1,0
1526902774766361,-3,-4,-1,4,0,4,8,-5
1526902774772345,11,11,2,0,-2,-4,-11,0
1526902774772345,1,9,-3,-4,-3,0,0,2
1526902774787305,4,4,1,-8,-5,-3,-3,1
1526902774787305,-12,-8,1,0,3,0,2,-4
1526902774794286,-4,-10,-3,0,-2,1,5,-5
1526902774794286,-16,-29,-6,-4,-3,-2,-2,-2
1526902774810243,8,20,0,-1,-2,1,0,4
1526902774810243,6,6,-1,1,-1,-4,-4,-2
1526902774811241,0,-3,-1,-2,-2,-1,2,-1
1526902774811241,2,-2,1,3,2,-2,-4,-2
1526902774826201,-6,-6,-2,-10,-7,-1,3,0
1526902774826201,3,-2,-1,0,3,-1,-5,0
1526902774832185,-4,2,1,5,4,1,1,0
1526902774832185,-5,0,-2,1,-1,1,3,-2
1526902774847144,5,-4,0,-1,-3,-1,-1,0
1526902774847144,3,10,0,-6,-6,-4,0,1
1526902774854126,-10,-9,-4,-6,-3,2,-1,-4
1526902774854126,5,1,0,10,5,-5,-1,1
1526902774869086,5,0,-6,-8,-8,1,-3,0
1526902774869086,-4,-4,-1,0,0,-16,-10,-3
1526902774877065,-5,-3,1,4,0,20,8,1
1526902774877065,-1,-3,-3,-2,-3,2,-1,1
1526902774886041,1,0,-1,0,2,-3,11,-1
1526902774886041,-2,-1,0,2,2,6,5,0
1526902774892025,-6,-4,-2,0,-4,-14,-11,-5
1526902774892025,7,5,-2,-5,-7,-4,-9,-3
1526902774906985,-1,-5,0,-1,2,1,3,5
1526902774906985,2,2,-1,0,1,6,0,-2
1526902774913966,0,1,2,-1,-4,-11,5,-4
1526902774913966,1,-1,-1,-2,2,4,-5,2
1526902774929923,-5,-2,-7,-1,1,-7,-7,-3
1526902774929923,-2,0,3,-1,0,5,9,0
1526902774936905,4,1,1,0,-1,-6,-6,-1
1526902774936905,-5,-3,-2,-5,-4,-8,-15,-2
1526902774945881,0,0,3,-1,-7,-2,-9,1
1526902774945881,-2,-2,-11,-5,6,-1,-7,0
1526902774951864,0,3,6,7,4,9,1,-1
1526902774951864,2,1,0,5,5,-1,6,2
1526902774966824,1,-1,-1,-1,-1,12,7,1
1526902774966824,-4,-2,-2,-6,-8,-6,-10,-4
1526902774974803,0,-2,-3,-4,-4,-14,9,-3
1526902774974803,0,1,3,0,1,7,-15,-2
1526902774989763,-3,-3,0,0,0,-5,-10,-2
1526902774989763,-2,-1,-1,0,-1,2,3,-1
1526902774996745,-1,-2,-4,0,3,3,1,-1
1526902774996745,0,0,1,-2,-6,-12,7,4
1526902775005721,-2,-4,-1,0,5,11,0,-2
1526902775005721,-2,-2,-3,0,-2,-6,-4,-4
1526902775011705,-1,0,0,0,0,4,1,-1
1526902775011705,-4,-3,1,-2,-2,-2,1,-1
1526902775026665,-6,-7,-2,-3,-1,-5,-1,-1
1526902775026665,15,9,3,3,-3,2,-4,1
1526902775034643,-3,4,-4,-3,0,-4,-8,-2
1526902775034643,-2,0,-5,-5,-4,0,7,1
1526902775049603,-4,-3,2,3,1,0,1,-1
1526902775049603,-3,-6,0,-2,-3,-2,0,-3
1526902775056584,-14,-4,-1,-2,-6,1,0,-2
1526902775056584,4,3,3,1,1,3,4,0
1526902775072542,-1,0,-5,-2,-2,-3,4,-2
1526902775072542,-5,-5,3,-1,-1,-3,-4,-3
1526902775073539,2,0,1,-2,1,3,2,0
1526902775073539,-2,-1,2,2,3,1,4,0
1526902775086505,1,0,-2,-1,-1,-9,-8,-1
1526902775086505,-2,1,-3,-3,-2,9,9,1
1526902775094483,1,-3,-2,0,0,-15,-7,-4
1526902775094483,1,0,0,0,-1,12,5,-1
1526902775109443,1,-3,0,-2,0,-3,-1,1
1526902775109443,-1,1,0,0,-2,-5,-6,-3
1526902775117422,-4,-4,-4,-4,-2,3,0,-5
1526902775117422,0,-2,-4,-1,-1,-5,-4,-3
1526902775132382,2,3,3,2,-1,-1,-4,2
1526902775132382,-10,-5,-2,-3,-2,0,2,-3
1526902775133379,6,-2,-3,-5,-1,2,-1,-2
1526902775133379,4,3,-1,-1,1,-3,-1,1
1526902775147342,-4,1,1,0,0,1,1,3
1526902775147342,6,2,-2,-1,-1,-3,1,-1
1526902775154323,-4,-5,-3,2,0,2,-5,-4
1526902775154323,-4,-3,-4,-3,-2,-2,0,-2
1526902775169283,3,0,1,-1,-2,-1,0,2
1526902775169283,-7,-3,-2,1,2,0,-3,-3
1526902775177262,0,-2,0,-4,-2,-2,1,0
1526902775177262,1,1,-1,-6,-2,-1,0,0
1526902775192222,-1,0,3,16,6,1,1,2
1526902775192222,0,-1,-2,-1,-2,-4,-2,-2
1526902775193219,-1,3,-2,1,1,3,-1,-1
1526902775193219,-2,-6,-1,-3,-3,0,3,0
1526902775207182,-2,0,0,-6,-2,-3,-2,0
1526902775207182,-2,-2,0,1,0,0,-1,1
1526902775214163,-2,-2,0,-1,-2,1,0,-2
1526902775214163,-1,0,-1,-2,0,-2,-5,-3
1526902775229123,-7,-10,-4,-5,-2,0,-2,0
1526902775229123,5,2,4,2,1,1,3,1
1526902775237102,8,13,0,0,-2,0,0,0
1526902775237102,-6,5,1,0,0,0,0,1
1526902775253059,2,0,-2,-5,-4,-2,-1,-1
1526902775253059,-14,-10,-3,0,2,-1,-1,-1
1526902775253059,0,-6,4,2,0,-1,1,-1
1526902775253059,9,8,2,0,-2,-2,0,-1
1526902775267022,1,0,-6,-10,-6,0,1,0
1526902775267022,1,0,-4,3,-3,0,-1,2
1526902775274003,0,-1,-2,8,12,1,-1,-2
1526902775274003,-18,-5,4,-8,-6,1,1,1
1526902775288963,7,0,-1,-10,-4,-3,-5,-1
1526902775288963,-7,-3,-3,-8,-12,-1,0,-4
1526902775296942,2,0,3,19,13,0,0,-1
1526902775296942,11,6,-3,-4,-3,-3,-2,4
1526902775312899,0,-2,-3,-9,-4,-4,-1,2
1526902775312899,4,6,6,16,12,7,2,-2
1526902775313896,-3,-9,-4,10,-3,-1,-2,-6
1526902775313896,-7,-3,-3,3,-1,-1,0,0
1526902775328857,4,9,10,7,7,2,1,1
1526902775328857,-4,-5,-1,-10,-7,-3,-2,-2
1526902775334840,1,3,1,-9,-4,7,1,-1
1526902775334840,-1,-2,-3,-2,0,-6,-2,-2
1526902775349800,-9,-3,-4,-25,-19,-4,-3,1
1526902775349800,-8,3,-1,38,19,-6,-1,1
1526902775356781,4,-9,-4,-2,0,9,0,-3
1526902775356781,9,2,0,3,2,-1,0,3
1526902775372739,11,6,3,4,1,-2,0,3
1526902775372739,-7,-4,-4,-39,-23,-9,-3,-2
1526902775373737,-5,0,-3,6,4,-4,-1,3
1526902775373737,3,-1,-2,14,7,1,-1,-1
1526902775388696,-9,-8,-3,3,1,0,0,1
1526902775388696,1,2,-1,-8,-1,0,-3,-2
1526902775394680,0,-6,-5,-17,-11,-2,-3,-4
1526902775394680,-2,4,2,-8,-3,-3,-1,-1
1526902775409640,3,-5,-1,-2,-2,-2,1,3
1526902775409640,2,2,3,23,16,7,1,-4
1526902775416622,-8,0,2,-2,-2,-4,1,0
1526902775416622,-2,-6,-1,3,3,-1,-1,-1
1526902775432579,-8,-2,5,1,-1,0,-1,-4
1526902775432579,19,2,-10,-11,-5,0,0,1
1526902775433577,-3,-2,-2,-5,-3,-3,-2,-5
1526902775433577,-4,-7,0,1,-1,1,1,1
1526902775448536,-2,-2,1,2,1,-1,-1,-1
1526902775448536,-11,-5,-2,-6,-3,0,2,-2
1526902775454520,0,-3,-3,1,1,-3,0,2
1526902775454520,-7,-11,-6,-7,-5,-1,-1,-1
1526902775469480,0,3,-1,5,2,1,-1,2
1526902775469480,7,9,4,-7,-5,-4,-2,0
1526902775476461,-5,1,-5,-13,-6,-3,0,-4
1526902775476461,-3,-2,3,20,12,4,1,-1
1526902775492419,-3,-7,-3,4,2,-1,1,-1
1526902775492419,6,2,-1,-2,-2,-1,-2,-1
1526902775493416,-11,-5,-1,-19,-16,-3,-1,-2
1526902775493416,7,7,-3,-2,2,2,-1,1
1526902775508376,6,5,0,7,5,0,-1,2
1526902775508376,-29,4,1,-5,-5,-2,-2,-8
1526902775514360,6,-7,0,-2,-1,-3,-2,-2
1526902775514360,-1,0,-2,-1,2,0,-2,3
1526902775529320,-1,0,-1,2,0,0,-1,-3
1526902775529320,-1,-2,-2,-2,0,0,1,-5
1526902775537299,3,2,1,1,-3,-4,-2,1
1526902775537299,1,3,1,-2,-3,-1,1,2
1526902775552259,9,-1,-5,-3,0,1,0,-1
1526902775552259,-11,-15,-4,0,0,1,-1,-2
1526902775553256,11,15,4,6,3,0,0,2
1526902775553256,-16,-16,-3,-9,-7,-3,-3,-1
1526902775568216,-3,13,3,2,1,-1,0,0
1526902775568216,0,-10,-3,-4,-3,-2,-1,-7
1526902775574200,0,-3,-5,0,3,-3,-2,1
1526902775574200,8,2,1,-1,2,4,-3,0
1526902775589160,-5,-8,-3,6,3,-2,1,-2
1526902775589160,1,0,0,3,2,2,1,-2
1526902775597139,6,7,0,0,-2,2,1,4
1526902775597139,4,-1,-2,-7,-7,-7,4,0
1526902775613096,-14,-9,-3,-8,-3,0,-2,3
1526902775613096,8,5,-1,5,3,0,1,0
1526902775613096,0,-1,-2,-1,-2,2,-2,-1
1526902775613096,-5,-7,-2,1,-1,0,3,0
1526902775628056,1,5,0,-1,-4,-2,-6,-3
1526902775628056,2,3,1,-3,1,0,0,-1
1526902775634040,-6,-7,0,-1,-3,-3,-1,-3
1526902775634040,1,0,-1,-3,1,-2,-5,3
1526902775649000,4,3,2,4,1,0,1,1
1526902775649000,13,5,-1,-2,-2,-4,-1,-1
1526902775656979,-10,-5,-2,1,2,0,-2,-2
1526902775656979,4,-2,0,-3,-4,-3,0,2
1526902775672936,-2,-2,1,-3,-3,2,1,-1
1526902775672936,-6,-3,-2,-3,3,0,-1,-4
1526902775672936,6,5,2,10,2,-7,-1,0
1526902775672936,-2,0,0,-2,-2,-2,13,0
1526902775688894,-3,-6,-4,-1,1,16,8,-3
1526902775688894,5,3,3,-1,-2,-8,-19,1
1526902775694877,-14,-1,0,-7,-2,-3,5,-2
1526902775694877,2,1,0,-1,-3,2,5,3
1526902775709837,-4,-3,-3,0,1,-2,-23,-4
1526902775709837,1,-3,-3,-1,-1,-2,25,1
1526902775716819,-1,-6,-5,-4,-1,2,-3,-4
1526902775716819,-2,-3,-3,-2,-1,-8,-6,-1
1526902775732776,1,1,2,-2,-3,1,10,3
1526902775732776,-2,10,2,0,0,10,9,-4
1526902775733774,4,-1,0,1,0,-8,-12,1
1526902775733774,4,3,-3,-2,-2,8,1,0
1526902775748734,3,0,-2,-1,-1,-7,-1,-1
1526902775748734,-6,-5,-3,-7,-5,-9,-4,-4
1526902775754717,-4,1,2,-2,-2,4,8,-3
1526902775754717,5,3,0,-2,-1,-3,-12,0
1526902775769678,-4,-2,-1,2,-1,-3,0,-5
1526902775769678,-2,1,8,8,1,2,-2,-4
1526902775776659,1,-1,-2,-1,1,-1,-1,-2
1526902775776659,-6,-1,0,1,1,2,-4,1
1526902775792616,12,10,5,1,1,-2,0,5
1526902775792616,5,-6,-5,-5,-4,-2,-5,-4
1526902775793614,-3,0,-2,-1,0,-2,-1,-2
1526902775793614,-4,-1,2,1,-1,0,-2,0
1526902775808574,-6,-5,-3,-2,0,-2,3,-2
1526902775808574,-7,-6,-5,-3,-4,2,-3,-4
1526902775814557,-4,-3,-3,-3,-2,1,-2,0
1526902775814557,8,5,0,-1,-2,0,-2,3
1526902775829517,-4,-1,-2,-2,-1,-5,-2,-1
1526902775829517,0,0,1,3,2,6,-2,-2
1526902775836499,-11,-6,-3,-3,-1,-1,0,-2
1526902775836499,0,2,4,6,3,-2,0,-2
1526902775851459,-4,-4,-2,2,1,-4,-4,-6
1526902775851459,-2,3,-2,-2,-1,5,1,-3
1526902775859437,5,-3,-5,-5,-4,1,3,1
1526902775859437,-2,-5,-5,-2,-2,-3,-4,0
1526902775868414,-4,-4,-3,-3,-1,-1,-1,1
1526902775868414,3,7,3,4,-1,-5,0,3
1526902775874398,2,3,2,1,0,1,-1,1
1526902775874398,-3,-4,-3,-3,-2,-1,-3,-4
1526902775889357,2,-1,-1,-2,-1,-5,-1,0
1526902775889357,-2,7,0,-1,0,-1,-3,2
1526902775897336,7,-5,-1,0,-1,0,-1,-1
1526902775897336,0,0,-3,-1,0,-1,-3,2
1526902775912296,-5,-5,-2,-1,-3,1,0,-1
1526902775912296,-1,-1,-2,-2,-1,-2,-1,0
1526902775919277,3,2,0,1,0,0,0,2
1526902775919277,-3,-4,1,4,1,0,1,-1
1526902775928254,3,2,-2,-5,-2,-1,0,1
1526902775928254,-3,-3,-2,-2,0,-1,-3,-2
1526902775934237,-3,-1,1,1,-1,1,-1,-3
1526902775934237,-1,-6,-1,-1,-1,0,-1,1
1526902775949197,0,0,-2,-1,-1,1,1,0
1526902775949197,-5,-3,-3,-4,-1,-1,-3,-4
1526902775957176,-4,-1,1,2,1,1,1,-2
1526902775957176,1,-12,-3,-4,-2,-2,-1,-1
1526902775972136,-14,3,-2,0,-1,-2,-3,-5
1526902775972136,-6,-10,-2,-2,-2,-2,1,-2
1526902775979118,7,14,5,1,1,0,-3,1
1526902775979118,-2,-2,-2,-1,-1,-1,-2,3
1526902775995074,2,-5,-6,-5,-2,-1,0,0
1526902775995074,-10,-10,-1,2,-1,0,1,-4
1526902775996072,-1,3,-2,-3,-2,-1,-1,0
1526902775996072,7,6,-2,-4,-2,0,1,2
1526902776009037,-4,-5,0,-4,-3,-1,-4,2
1526902776009037,-4,2,0,7,2,1,-2,-4
1526902776017016,3,0,4,1,0,0,1,2
1526902776017016,-4,1,-1,-5,-3,-2,-3,-1
1526902776031976,0,-3,0,1,0,1,-1,-1
1526902776031976,-1,2,-1,-1,-2,-2,0,-2
1526902776038957,-8,-9,-4,-3,-1,-2,0,-2
1526902776038957,0,3,2,1,0,0,0,4
1526902776054915,6,6,5,2,0,-3,-2,-1
1526902776054915,2,-8,-8,-5,-2,0,-1,0
1526902776055912,-1,-2,-2,-1,0,0,0,-2
1526902776055912,-1,-5,1,-3,-4,0,-2,-1
1526902776069875,2,6,3,1,-2,-1,2,0
1526902776069875,-3,-1,-1,-7,-3,-2,-5,-5
1526902776076856,3,2,-8,-2,-1,-2,0,-1
1526902776076856,6,4,2,-2,-1,-3,-2,3
1526902776091816,0,-8,-3,4,1,-1,-1,0
1526902776091816,-3,6,-9,-19,-8,-3,-1,-2
1526902776099794,-2,-5,4,14,16,6,2,0
1526902776099794,1,6,0,-1,-1,-1,-1,-1
1526902776114754,-7,-4,1,-2,-2,2,-2,-4
1526902776114754,-1,-1,-2,5,1,0,1,-3
1526902776115753,1,0,-1,-11,-7,-1,0,0
1526902776115753,3,-1,1,5,-1,-1,2,3
1526902776129714,-3,3,-2,-4,-2,1,-3,-2
1526902776129714,1,-12,-6,-1,-3,0,-1,-1
1526902776136696,-4,1,-1,4,0,0,-2,-1
1526902776136696,-2,-2,-2,-3,-1,-2,-1,1
1526902776151656,9,10,2,-6,-4,-2,2,0
1526902776151656,-4,-6,-1,6,-1,0,0,-4
1526902776159635,-1,-6,-2,-9,-4,-5,-3,-2
1526902776159635,4,15,2,-2,-1,-1,1,1
1526902776175592,-7,-14,-5,0,1,-1,0,-3
1526902776175592,1,4,3,4,2,-1,0,-4
1526902776175592,0,-11,-8,-10,-6,-2,-1,0
1526902776175592,-5,-1,2,14,6,-1,0,0
1526902776189554,-4,-10,-8,-4,-3,-2,1,2
1526902776189554,4,18,0,1,2,-2,-2,0
1526902776196536,-7,-3,4,-3,-7,-4,0,-1
1526902776196536,9,8,1,-4,-5,-2,-3,-1
1526902776211496,-8,-11,-8,-4,0,3,17,11
1526902776211496,3,-5,6,5,2,3,-13,-6
1526902776219474,-3,5,-5,-2,-1,-10,-6,-4
1526902776219474,-13,-19,-4,-4,-1,0,0,-3
1526902776235432,2,9,2,4,0,0,0,-2
1526902776235432,13,17,6,-3,-3,-5,3,2
1526902776235432,-1,-4,-1,-16,-12,-3,-1,-2
1526902776235432,-4,-10,-3,9,6,5,-6,2
1526902776249394,-4,1,-1,-5,-3,-5,4,-3
1526902776249394,-6,-11,3,15,11,5,2,-3
1526902776257373,5,5,1,12,3,2,-1,-1
1526902776257373,-3,-8,-6,-8,-6,-7,-5,-1
1526902776272333,1,-3,1,-5,-2,0,-7,-4
1526902776272333,-5,-6,-1,0,-2,-1,2,1
1526902776279315,-9,1,-1,0,1,2,-1,1
1526902776279315,5,3,-7,-11,-4,-1,1,3
1526902776295272,5,1,0,0,-1,-2,-6,-6
1526902776295272,-10,-9,-2,-3,1,-2,3,-1
1526902776296269,-10,-4,0,4,2,0,-1,-3
1526902776296269,-1,-9,-2,2,0,-1,3,-1
1526902776309234,18,29,0,2,1,-3,-18,2
1526902776309234,-4,-5,-5,-4,-5,-1,-2,-3
1526902776317213,3,2,1,1,1,3,1,-2
1526902776317213,-8,-9,-4,-13,-6,-1,1,1
1526902776332173,-5,-12,-4,15,7,1,7,2
1526902776332173,5,7,1,-2,1,2,0,1
1526902776339154,-4,-3,1,2,1,1,0,1
1526902776339154,13,4,1,1,0,1,1,6
1526902776355112,-15,-2,-1,-8,-6,0,-2,-5
1526902776355112,-3,-5,-1,-7,-5,-1,-5,-4
1526902776356109,5,0,1,0,-2,0,20,2
1526902776356109,-2,2,-2,-5,0,-3,-4,-3
1526902776369074,0,0,3,1,-4,-2,-2,0
1526902776369074,-10,-9,-3,-5,-2,2,1,-4
1526902776377053,10,2,3,-1,-2,-2,-9,-1
1526902776377053,1,0,-3,3,4,0,-2,-1
1526902776392013,-11,-2,1,5,2,2,3,-4
1526902776392013,9,1,-3,-10,-4,-4,-5,-2
1526902776398994,-6,-7,-2,2,3,0,-2,2
1526902776398994,-6,8,1,-2,-1,-1,2,0
1526902776414951,2,-4,3,2,1,-1,1,-4
1526902776414951,-7,-3,-6,-4,-6,-4,-13,-3
1526902776415949,3,-6,-9,-7,-2,-2,0,2
1526902776415949,-6,6,3,5,0,1,1,4
1526902776429912,7,11,1,2,-1,-3,-3,-2
1526902776429912,-2,-5,-2,-1,0,1,4,-7
1526902776436893,5,0,-1,-1,0,2,-4,10
1526902776436893,-4,-6,1,0,0,-2,-4,-2
1526902776451853,-2,-8,0,-1,-1,0,0,0
1526902776451853,-2,4,-1,-2,0,0,2,-3
1526902776459832,0,-1,1,-1,0,3,-5,-2
1526902776459832,0,-16,0,-6,-8,-18,-14,-1
1526902776474792,5,15,-1,13,3,10,19,-1
1526902776474792,-14,-9,-5,2,5,7,0,-5
1526902776475789,5,8,1,1,-1,-3,-4,-2
1526902776475789,0,5,1,-3,-2,2,1,-1
1526902776490749,-10,-12,-3,-7,-3,-10,-10,-6
1526902776490749,6,3,-3,1,-1,-4,1,-1
1526902776496733,-7,-7,-3,0,-1,1,2,-2
1526902776496733,0,11,0,-4,-3,-1,-1,0
1526902776511693,2,-5,-2,-6,-1,2,-2,-4
1526902776511693,-2,-2,1,3,0,3,17,-1
1526902776519672,0,-2,-2,-2,-2,-7,-27,-5
1526902776519672,-1,7,0,1,2,2,3,4
1526902776535629,9,8,3,-2,1,2,0,-2
1526902776535629,3,0,1,-1,-2,-3,1,-1
1526902776535629,-1,3,-2,0,-1,-2,4,-1
1526902776535629,-3,-8,-2,-2,-1,3,3,0
1526902776550589,-5,-5,-1,-3,-1,-2,-6,-5
1526902776550589,-2,-2,0,0,0,-2,-4,-1
1526902776556573,10,6,4,5,2,2,7,2
1526902776556573,-1,0,-3,-2,0,8,3,6
1526902776571533,-3,-5,-3,-3,-3,-11,-3,0
1526902776571533,3,3,3,2,-1,-2,-4,-1
1526902776579512,-6,-3,-2,-2,-1,-1,1,-2
1526902776579512,2,-2,-2,0,-1,3,0,2
1526902776595469,-1,1,-2,-3,-2,-6,-7,-3
1526902776595469,-3,-2,1,0,-9,12,16,2
1526902776595469,0,1,-2,-2,11,-5,-26,2
1526902776595469,-15,-13,-4,1,2,5,11,-5
1526902776611426,8,-2,0,4,1,-8,-2,3
1526902776611426,3,0,-5,-5,-8,7,6,-5
1526902776617410,-11,-11,-12,-11,0,-6,-35,-5
1526902776617410,1,-2,2,11,2,1,7,-5
1526902776632370,-19,-17,-8,-9,-3,-3,-11,-2
1526902776632370,-3,-2,-6,0,-2,-5,2,-2
1526902776639352,2,0,2,-5,-11,2,11,-4
1526902776639352,-4,-4,0,2,2,-4,-10,-4
1526902776655309,-1,3,0,-4,-2,2,4,0
1526902776655309,2,1,-5,-5,-1,-7,-7,1
1526902776656306,-2,1,1,2,-1,5,12,-1
1526902776656306,8,7,1,-2,2,1,-7,3
1526902776671266,-1,-1,-1,2,-1,-2,7,-1
1526902776671266,0,-1,2,0,3,-1,-6,-1
1526902776677250,-6,-5,1,5,-1,-2,3,-3
1526902776677250,1,2,-2,-2,-5,-2,0,1
1526902776692210,0,-1,-5,-10,-7,3,-3,-1
1526902776692210,-9,-2,3,11,1,-7,-6,-3
1526902776699192,4,-1,0,0,13,7,11,1
1526902776699192,5,1,-1,0,-2,-4,0,4
1526902776715149,-7,1,0,-6,-4,-7,-2,-1
1526902776715149,-3,-9,-10,-19,-11,5,-4,-2
1526902776716147,1,5,2,7,3,5,18,-2
1526902776716147,-1,-4,-6,-6,-1,-7,-16,9
1526902776731107,-4,-1,3,11,8,2,-4,-9
1526902776731107,15,-3,-12,-21,-17,-13,-5,8
1526902776737090,-13,-4,-2,-6,-23,3,-1,-9
1526902776737090,3,1,2,13,22,4,0,-12
1526902776752050,-11,-8,0,11,5,1,-1,-9
1526902776752050,-3,-2,1,6,9,1,-2,-2
1526902776759032,14,9,0,-7,-15,-4,4,10
1526902776759032,-2,2,2,-8,-8,-5,-1,-5
1526902776773992,-10,-16,-8,-10,-3,2,2,8
1526902776773992,-4,3,0,10,6,2,0,-9
1526902776781970,-6,3,7,1,8,-4,3,7
1526902776781970,1,-1,-2,-7,-17,-2,3,2
1526902776790946,6,-20,-13,0,3,1,0,2
1526902776790946,10,49,24,8,6,3,0,2
1526902776796930,-6,-10,-2,10,4,-2,-1,-7
1526902776796930,11,13,7,7,0,0,-1,0
1526902776811891,0,6,4,-2,-3,4,4,1
1526902776811891,9,-6,-2,-2,0,-4,-1,-2
1526902776819869,-1,-5,-8,-3,-1,-1,2,0
1526902776819869,-8,-9,-1,-1,-2,-2,1,-2
1526902776834829,-4,0,-2,-3,0,1,-2,-6
1526902776834829,12,6,10,8,6,3,1,2
1526902776841810,-6,5,-7,-14,-8,-5,-3,1
1526902776841810,4,-3,-4,1,4,0,0,5
1526902776850786,-2,6,1,-1,-1,-2,-3,-4
1526902776850786,-12,-5,6,16,7,2,0,-3
1526902776856770,6,0,2,1,0,1,-1,0
1526902776856770,-4,1,-2,-5,-2,-2,1,1
1526902776871730,4,4,2,-1,-2,0,1,0
1526902776871730,-13,-20,-8,-6,-1,-3,-3,-8
1526902776879709,10,10,0,1,0,-2,-1,2
1526902776879709,-4,1,1,2,-1,2,-1,-3
1526902776894669,5,5,2,-1,2,1,-1,-3
1526902776894669,-10,-11,-10,-6,0,-3,-3,-5
1526902776901650,2,6,8,3,4,1,-1,1
1526902776901650,-4,-15,-2,-4,-2,-3,2,0
1526902776910626,7,6,0,6,0,0,-2,-3
1526902776910626,-6,8,-2,-2,-3,-1,1,-3
1526902776916610,-7,-14,-2,-2,-1,-2,0,-3
1526902776916610,15,20,-1,-2,-3,-3,0,2
1526902776931570,-1,-8,2,-3,-2,0,0,3
1526902776931570,-5,-14,-10,-8,1,-1,-2,-6
1526902776939549,-10,-9,-3,3,1,1,-1,-4
1526902776939549,8,22,5,-2,-2,-1,0,6
1526902776954509,15,20,6,3,0,0,1,5
1526902776954509,-8,7,-1,1,-2,-2,-3,-4
1526902776961490,-1,-14,2,-3,-3,-3,0,0
1526902776961490,-9,-20,-9,-14,-12,-4,-1,2
1526902776977447,-6,0,-3,-4,5,-1,-1,-4
1526902776977447,1,4,1,11,9,3,1,-1
1526902776978445,-4,-3,-1,2,0,0,-3,0
1526902776978445,2,4,10,10,7,0,-5,-2
1526902776992407,-3,-2,-2,-10,-10,-2,-1,-2
1526902776992407,6,-5,0,-11,-4,-3,0,-1
1526902776999389,1,0,-4,10,5,1,-2,-3
1526902776999389,-2,0,-1,-5,-2,-1,0,1
1526902777014349,1,-7,1,0,1,-1,-1,-5
1526902777014349,-2,7,-1,5,3,-1,1,-1
1526902777022328,3,2,-2,-7,-6,-2,1,3
1526902777022328,-1,2,0,8,7,3,3,-2
1526902777037287,-8,-5,-3,2,-1,1,-2,-2
1526902777037287,-9,-18,-3,-1,0,0,-1,-5
1526902777038285,8,11,1,-9,-3,-3,-2,1
1526902777038285,13,18,3,10,0,3,1,3
1526902777052247,-10,-7,-1,-2,-5,-11,2,-1
1526902777052247,4,11,7,6,2,5,8,0
1526902777059229,3,3,7,4,4,3,1,3
1526902777059229,2,-2,8,0,4,0,-1,0
1526902777074189,7,4,-8,3,-1,0,-2,-3
1526902777074189,0,4,1,-11,-7,-4,-3,0
1526902777082167,4,24,14,9,0,-2,1,4
1526902777082167,-1,-13,-8,-1,-1,2,1,1
1526902777098125,2,13,2,0,-1,1,-1,2
1526902777098125,-6,-13,-5,-2,-2,0,-4,-3
1526902777098125,4,1,-3,1,1,1,-2,-3
1526902777098125,-7,-10,3,-5,-2,-3,-3,1
1526902777112088,-5,1,-10,-9,-13,-1,-3,-1
1526902777112088,-4,-9,-10,-1,8,-4,-6,-5
1526902777119069,2,2,-8,-4,-3,-3,0,0
1526902777119069,-12,-3,-12,-9,-5,-3,-3,-3
1526902777134029,-1,-6,4,3,-2,-1,-3,-2
1526902777134029,-4,0,-1,5,1,2,-1,-6
1526902777142007,0,-8,-1,-2,-2,0,0,-6
1526902777142007,5,3,-2,-5,-2,-5,-1,2
1526902777157965,9,16,1,-10,-6,-2,-1,3
1526902777157965,-2,-5,1,11,3,3,2,-2
1526902777157965,-10,-12,-2,-4,3,0,0,0
1526902777157965,-3,4,7,4,0,-1,-1,-2
1526902777171927,-6,-13,-3,-7,-2,0,2,-2
1526902777171927,11,10,1,-6,-4,-2,0,2
1526902777179906,-9,-10,-6,-7,-10,-2,1,-4
1526902777179906,-7,-8,-4,10,13,5,3,5
1526902777194866,-3,-5,-3,4,3,-1,-2,-5
1526902777194866,-4,-7,1,-7,-10,-3,3,0
1526902777201847,-2,-4,-4,11,10,1,-2,2
1526902777201847,-3,-6,-5,-12,-6,-5,-3,3
1526902777217805,-6,-6,3,5,4,2,2,-3
1526902777217805,1,0,3,-1,-4,3,-2,-3
1526902777218802,6,-2,-7,-8,-7,-5,0,0
1526902777218802,-7,-3,5,5,2,1,-3,-4
1526902777231767,3,6,4,6,7,2,2,-3
1526902777231767,1,1,-11,-9,-7,-1,-3,-1
1526902777239746,4,13,7,5,2,-1,-1,1
1526902777239746,1,-3,-3,-3,-1,1,2,1
1526902777254706,-6,-7,-2,2,4,-1,-2,-2
1526902777254706,-4,-3,-3,-9,-7,-4,-1,-1
1526902777261688,2,-4,-2,1,3,-1,0,0
1526902777261688,0,5,-2,-1,-4,-2,0,2
1526902777277645,-3,-2,0,3,1,2,1,-1
1526902777277645,3,-3,-6,-5,-5,-5,-4,-5
1526902777278642,-4,-14,-5,-7,-3,0,-1,-1
1526902777278642,-4,-3,-3,-4,-2,-1,-3,-2
1526902777291607,-5,-4,-1,-1,0,0,-2,-2
1526902777291607,11,7,2,0,-1,-2,0,2
1526902777299586,2,5,1,-7,-10,2,1,2
1526902777299586,-4,-14,-4,6,7,-14,9,0
1526902777314546,-10,-6,-1,1,2,5,-6,-2
1526902777314546,11,10,1,-1,0,-4,-3,1
1526902777321527,1,2,4,-5,-19,-16,1,-2
1526902777321527,3,2,-2,0,11,24,-16,3
1526902777337484,-5,-1,1,3,2,10,-4,-4
1526902777337484,-3,-5,2,3,1,7,8,-3
1526902777338482,1,3,2,3,3,-11,-13,0
1526902777338482,-1,0,3,0,-14,-7,7,-2
1526902777352444,2,-1,-1,1,0,-4,-1,-9
1526902777352444,-7,-3,4,9,7,2,-6,-7
1526902777359426,-10,-13,-13,-6,-6,2,1,-1
1526902777359426,-3,1,3,4,2,0,3,-3
1526902777374386,12,18,14,11,8,2,2,-1
1526902777374386,0,7,5,-3,-3,0,10,4
1526902777382365,15,24,26,25,18,6,1,2
1526902777382365,-16,-27,-21,-18,-10,-7,-8,8
1526902777397324,-9,-18,-15,-13,-8,-7,-1,-3
1526902777397324,-29,-33,-18,-5,-3,-4,-9,-18
1526902777398322,15,5,-10,-9,-1,1,2,11
1526902777398322,5,27,-5,-6,-4,-2,-4,9
1526902777412285,-2,-19,-1,-4,-5,-3,3,3
1526902777412285,-12,-1,4,7,6,0,-3,-11
1526902777419266,-6,-18,-2,0,1,2,-1,-3
1526902777419266,4,3,-2,-5,-6,-3,1,-4
1526902777434226,-10,-8,-14,-13,-6,-4,4,8
1526902777434226,6,8,15,12,7,5,2,-2
1526902777442204,-15,-15,-10,-3,2,2,0,-3
1526902777442204,6,10,15,16,7,2,0,-6
1526902777458162,0,1,-9,-10,-6,-4,-4,-3
1526902777458162,0,-7,-5,2,0,-4,-4,-3
1526902777458162,-7,-2,-5,-6,-4,-2,-1,-1
1526902777458162,-3,-13,-7,-5,-5,-2,-2,2
1526902777472124,8,14,3,-1,0,-1,-5,-9
1526902777472124,-4,-16,-4,-7,-4,-3,0,0
1526902777479106,9,23,-1,-1,0,1,0,-1
1526902777479106,4,3,14,7,4,3,4,1
1526902777494066,-3,-15,-21,-11,-7,-5,-4,2
1526902777494066,8,18,3,1,-2,0,1,6
1526902777502044,-1,-3,2,2,3,0,-3,-7
1526902777502044,-3,-5,-6,-7,-4,-3,-4,-3
1526902777518002,1,0,7,8,1,2,2,1
1526902777518002,-4,-5,-7,-6,-2,-3,1,6
1526902777518002,-2,-3,-3,-4,-2,-2,-2,3
1526902777518002,7,6,11,9,5,3,3,4
1526902777531965,0,5,5,3,1,-3,-2,-6
1526902777531965,10,17,12,9,2,0,-2,1
1526902777539943,-11,-6,-8,-7,-5,1,-3,-3
1526902777539943,-6,-6,-9,-7,-8,-4,-1,-4
1526902777554903,7,13,11,11,4,0,2,-2
1526902777554903,-11,-6,-8,-8,-3,-1,-1,-3
1526902777561885,7,0,0,-1,2,2,3,8
1526902777561885,-3,5,0,0,-5,-3,-2,-8
1526902777577842,4,3,4,2,1,3,1,-6
1526902777577842,-3,-7,-10,-11,-6,-4,-2,-2
1526902777578839,6,1,2,3,-2,-1,-4,-3
1526902777578839,-9,-17,-10,-3,1,1,-3,-9
1526902777591804,1,12,8,6,3,1,2,-3
1526902777591804,-5,-3,-5,-2,-2,-2,-5,-2
1526902777599783,-2,-4,1,-1,0,3,1,3
1526902777599783,-4,-5,-4,-3,-2,-2,-3,-3
1526902777614743,-5,-11,-4,-4,-2,0,-3,-4
1526902777614743,7,11,3,1,0,-1,0,4
1526902777621725,-3,-2,-1,-1,2,0,3,3
1526902777621725,3,-6,-1,-3,1,0,1,1
1526902777637682,-19,-11,-3,-5,-4,-4,-1,-4
1526902777637682,2,20,-7,-2,-1,4,1,3
1526902777638679,-4,-8,0,-1,-2,-2,-4,-1
1526902777638679,13,5,1,1,1,-1,-3,3
1526902777653639,-3,-1,-4,-4,-2,0,-2,0
1526902777653639,-12,-18,-5,-3,-2,-2,1,1
1526902777659623,8,6,0,-2,-1,-2,0,1
1526902777659623,-10,3,2,1,-1,-2,1,1
1526902777674583,10,5,0,2,1,0,-1,-1
1526902777674583,-12,-8,1,2,1,0,-1,-6
1526902777681564,-2,-18,-7,-5,-4,-5,-7,-3
1526902777681564,16,33,11,0,0,0,0,7
1526902777696524,-6,-4,-7,0,-2,-1,-1,-4
1526902777696524,1,-6,-2,0,-2,0,-2,4
1526902777704503,-18,-5,4,2,5,0,2,-2
1526902777704503,12,0,1,-2,-1,-1,-1,-4
1526902777713479,5,3,-2,2,2,1,3,4
1526902777713479,-5,0,5,-6,-7,-3,-4,-6
1526902777719463,0,-9,-5,17,6,4,0,-1
1526902777719463,-2,9,2,2,2,-2,-1,1
1526902777734423,8,5,0,0,-2,0,1,0
1526902777734423,7,-8,-2,-3,-3,-2,-2,1
1526902777742402,3,17,7,-3,-2,1,1,3
1526902777742402,-10,-16,-6,-5,-2,-2,0,-3
1526902777757362,-8,-5,2,-19,-12,-3,-2,-5
1526902777757362,2,2,1,34,20,6,4,1
1526902777764343,-9,-7,0,8,0,-3,-2,-3
1526902777764343,-3,-2,-5,0,2,1,-1,-3
1526902777773319,-1,11,-2,-5,-4,-2,0,-1
1526902777773319,6,3,-2,-24,-12,-5,-2,0
1526902777779303,7,6,4,-3,-5,-1,0,6
1526902777779303,-10,-6,-5,3,5,3,0,-5
1526902777794263,-5,-6,3,5,4,3,-1,-6
1526902777794263,-3,4,0,-4,-3,-1,1,-1
1526902777802242,-1,5,0,-6,-2,-1,-1,0
1526902777802242,1,-2,0,-9,-9,-2,-1,2
1526902777817202,0,-8,-5,-3,-1,-2,-3,-1
1526902777817202,2,9,3,8,6,2,-1,-2
1526902777824183,-2,-11,-6,-4,0,-2,1,3
1526902777824183,4,-1,0,-17,-14,-4,-1,0
1526902777840141,0,0,-4,-26,-7,-6,-3,0
1526902777840141,-2,-8,2,45,29,8,5,0
1526902777841138,2,6,3,16,3,-1,-1,-3
1526902777841138,-4,-3,0,10,5,0,0,-1
1526902777854103,-10,-9,-4,-7,-6,-3,0,-2
1526902777854103,6,5,-3,-28,-18,-6,-4,-3
1526902777862082,-7,-13,3,-6,3,0,-1,-1
1526902777862082,4,1,-9,0,2,0,0,0
1526902777877041,1,9,1,-5,-4,-2,-3,1
1526902777877041,0,-2,-2,-1,1,-2,-4,-1
1526902777884023,-6,7,2,8,3,1,-2,1
1526902777884023,-7,-8,-3,-12,-10,-5,-1,1
1526902777899980,-5,-11,-10,-48,-26,-7,-5,-4
1526902777899980,2,0,0,47,32,13,5,3
1526902777900978,3,0,-4,8,2,-17,-2,-1
1526902777900978,-4,-11,2,12,5,0,1,-1
1526902777914940,5,18,1,11,3,2,1,-3
1526902777914940,-1,-1,-4,-39,-26,-5,-3,-1
1526902777921922,3,-9,-4,-13,-7,4,-2,3
1526902777921922,-11,-10,-3,7,7,2,1,-2
1526902777936882,-9,4,9,14,6,2,1,-9
1526902777936882,0,-6,-6,-10,-7,-4,-2,1
1526902777944861,18,-2,-4,2,1,3,-1,0
1526902777944861,-16,5,2,-7,-4,-4,-4,-4
1526902777959820,-1,-4,5,18,9,7,1,-4
1526902777959820,-10,-2,-1,-2,-5,-3,0,0
1526902777960818,0,-4,-1,-15,-6,-1,-1,-1
1526902777960818,2,4,4,0,-3,-1,-1,2
1526902777974780,-2,2,-3,9,4,-2,-4,-7
1526902777974780,-4,-12,-1,5,0,-1,-1,-1
1526902777981761,1,-1,-9,-4,-6,-2,0,4
1526902777981761,11,6,2,-2,-1,-2,-2,-1
1526902777996721,-7,-8,-1,9,6,0,2,-1
1526902777996721,2,-2,-3,-4,-6,-2,0,-2
1526902778004700,-4,-4,3,-1,-2,3,-1,-3
1526902778004700,3,14,1,3,2,2,0,-1
1526902778019660,3,-1,1,9,3,2,0,-1
1526902778019660,-2,3,-2,-13,-7,-4,-5,-3
1526902778020657,2,9,0,1,4,1,0,5
1526902778020657,-4,-11,-3,-1,-2,-3,0,4
1526902778034620,1,-8,-2,0,-2,-2,-1,1
1526902778034620,6,10,5,-8,-10,-1,2,2
1526902778041602,-1,3,0,6,9,1,-1,5
1526902778041602,-2,-2,1,4,3,0,-1,-1
1526902778056561,-4,-1,-4,3,1,0,0,-6
1526902778056561,0,-2,-2,2,0,-1,-1,-3
1526902778064540,-4,-2,-2,-16,-13,-4,-2,1
1526902778064540,4,0,2,0,2,2,0,1
1526902778080497,-2,0,0,6,3,0,-1,-4
1526902778080497,3,-4,-2,-5,-3,-2,-1,-4
1526902778080497,-4,0,-2,-8,-2,5,2,-2
1526902778080497,-6,-4,-6,3,-3,-15,-3,-3
1526902778094460,3,6,4,8,1,0,1,-3
1526902778094460,-3,-3,-4,-5,-3,-4,0,-2
1526902778102439,2,7,3,-1,2,0,-1,1
1526902778102439,-11,-14,-6,-2,-1,2,-1,0
1526902778117399,17,12,4,0,0,0,0,0
1526902778117399,-2,0,3,3,3,-2,-1,-4
1526902778124380,-9,-15,-8,-6,-5,-4,-1,-2
1526902778124380,6,5,0,-8,-7,-3,-2,0
1526902778140338,-7,-12,-10,-2,-6,-4,0,-5
1526902778140338,-4,-8,-5,0,3,8,1,-1
1526902778141335,4,6,4,4,-1,-1,5,-2
1526902778141335,-5,-6,-1,-1,-2,1,-1,1
1526902778154300,-7,-5,-5,-3,-1,-1,-6,-1
1526902778154300,2,2,2,-2,-3,1,4,0
1526902778162279,7,3,1,2,-2,-3,0,1
1526902778162279,4,-3,-5,-5,-2,1,2,2
1526902778177239,-6,-3,-3,-3,-2,-1,-2,-2
1526902778177239,-1,1,0,-3,-2,-2,-1,-1
1526902778184220,6,11,11,12,6,2,-2,-1
1526902778184220,3,3,4,4,2,2,1,1
1526902778200177,-4,-2,-1,2,2,-1,-6,-2
1526902778200177,2,2,4,1,1,-1,-2,-8
1526902778201175,-10,-18,-16,-11,-5,-4,-3,-2
1526902778201175,9,19,5,1,-1,-3,-3,-2
1526902778214140,-1,-4,1,1,0,2,4,-1
1526902778214140,5,-4,2,4,1,0,0,-2
1526902778222119,-2,-6,-5,-2,-3,-1,-2,2
1526902778222119,-6,-3,5,-1,0,1,1,-6
1526902778237079,-3,13,3,1,1,2,3,2
1526902778237079,10,-8,-12,-6,-1,-2,-4,0
1526902778244060,4,-3,2,-3,-3,0,0,3
1526902778244060,9,3,1,6,5,2,1,-3
1526902778260017,-20,-8,-7,-4,-1,-1,-2,-6
1526902778260017,1,5,9,2,0,-1,-1,2
1526902778261015,2,5,-1,-4,-1,-2,-1,2
1526902778261015,-5,-4,-5,-4,-1,-1,-2,-3
1526902778274977,9,-1,1,-5,-5,2,0,-4
1526902778274977,-6,0,-3,-2,13,-5,-2,4
1526902778281959,1,3,1,1,1,0,1,5
1526902778281959,-10,-9,-1,-2,-2,1,-1,-4
1526902778296919,4,-5,0,4,1,0,-2,-1
1526902778296919,-3,7,-2,-4,-7,-2,-1,3
1526902778304897,2,0,1,4,1,4,-2,-2
1526902778304897,-2,-7,-4,-7,-10,-9,-2,-1
1526902778319857,-4,0,0,5,7,2,-1,-7
1526902778319857,-5,-4,-7,-4,-6,-3,-3,-4
1526902778320855,-2,0,0,-4,-5,-8,-3,0
1526902778320855,-6,-3,-3,1,1,5,2,0
1526902778335815,5,4,2,3,-2,-2,0,0
1526902778335815,-9,-11,-2,-1,0,1,-1,-3
1526902778341799,11,15,3,-1,1,-1,-1,6
1526902778341799,0,-6,-11,-13,-18,-2,-4,-3
1526902778356759,-4,-4,-4,-1,8,-3,2,-2
1526902778356759,-4,-5,-1,0,1,0,0,1
1526902778364737,-4,-7,-9,-6,-6,-4,-2,-5
1526902778364737,3,6,-1,-3,1,-1,1,2
1526902778379697,4,1,0,5,2,7,6,-6
1526902778379697,-3,-4,-3,-4,-2,-1,-3,0
1526902778380695,-3,-6,-1,1,1,1,-1,-2
1526902778380695,-1,-2,0,0,1,-2,-2,-4
1526902778394658,-2,-6,-5,-6,-5,-4,0,-1
1526902778394658,10,7,3,-1,-5,0,2,4
1526902778401639,-1,-1,3,2,4,6,0,0
1526902778401639,-4,0,3,2,1,-10,-2,-6
1526902778416599,-4,-2,-3,-3,-3,-2,-3,-2
1526902778416599,5,4,-4,-8,-2,-3,-1,4
1526902778424577,-5,-1,0,0,-1,-1,-2,1
1526902778424577,0,5,4,3,5,3,-1,1
1526902778440535,3,-5,-1,-1,-1,0,-2,5
1526902778440535,18,17,-2,-3,-4,-3,-3,0
1526902778440535,-7,2,1,-2,-1,-2,0,2
1526902778440535,-7,-7,-1,2,2,0,-2,-6
1526902778454497,-5,-3,-3,-2,-3,-2,-4,-3
1526902778454497,-7,-14,-2,-2,-1,1,2,0
1526902778462476,3,11,0,-2,0,-3,0,1
1526902778462476,1,0,5,1,2,2,-1,2
1526902778477436,-3,1,-5,-4,-1,-2,-1,-4
1526902778477436,-8,-9,-2,-7,-6,0,-3,0
1526902778484417,-2,-5,1,4,0,-3,0,-3
1526902778484417,2,-2,-2,0,-1,-2,0,-2
1526902778500374,-6,-4,-1,0,1,0,1,-2
1526902778500374,-1,3,-1,-1,-1,0,-2,-1
1526902778501372,3,-3,-9,-14,-6,-2,-2,7
1526902778501372,5,2,2,14,6,1,-1,-4
1526902778514337,1,9,0,0,-2,-1,-2,-2
1526902778514337,-4,-3,2,4,3,1,1,-3
1526902778522316,-2,-16,1,-1,-3,-2,-2,-1
1526902778522316,18,20,-6,-6,-1,-2,-1,0
1526902778537276,-7,-2,-2,-4,-4,-1,0,1
1526902778537276,10,0,-2,0,-1,-1,-2,0
1526902778544257,-5,-3,6,9,2,-2,-1,-2
1526902778544257,-9,-11,-6,-14,-10,-2,-2,-4
1526902778560215,5,-3,-2,-4,3,0,0,-2
1526902778560215,-5,2,2,7,6,0,1,1
1526902778561212,1,-6,-2,4,1,-2,1,-2
1526902778561212,-8,0,1,-2,1,-1,-3,-5
1526902778576172,1,-1,3,-7,-9,-2,-2,-2
1526902778576172,-2,-3,-2,-3,1,-2,-1,1
1526902778582156,0,8,0,-3,0,-2,-1,-2
1526902778582156,-3,-2,5,4,-1,3,1,-2
1526902778597116,4,1,3,-1,1,0,-1,-3
1526902778597116,-1,-5,-4,6,0,-1,-1,-2
1526902778604097,-5,0,-3,-4,-2,-2,-2,0
1526902778604097,-7,-1,-3,-1,3,0,1,-1
1526902778620054,14,0,7,5,0,-2,-1,2
1526902778620054,-9,-2,-3,2,-2,0,-2,-1
1526902778621052,-7,-5,-2,-12,-7,0,-1,1
1526902778621052,11,4,-10,3,-1,1,-3,2
1526902778634018,-8,-5,0,8,5,3,1,-5
1526902778634018,-2,-12,2,-5,-5,-5,-2,0
1526902778641996,-2,19,4,-1,2,2,2,1
1526902778641996,-4,-8,-1,-1,2,1,0,-6
1526902778656956,-3,-2,-4,-1,-2,-1,0,0
1526902778656956,-10,-14,-3,0,0,0,-2,-3
1526902778664934,3,2,1,-2,-4,-2,-1,0
1526902778664934,2,4,3,-2,-6,-3,0,2
1526902778679895,0,-1,1,-3,-1,-1,-2,-5
1526902778679895,-2,-2,-4,-13,-2,-3,-1,1
1526902778687873,-5,-2,2,22,14,3,0,0
1526902778687873,0,-6,-1,9,7,0,-1,-1
1526902778694854,-1,1,0,1,-2,-1,0,-6
1526902778694854,-1,0,-1,-9,-6,-1,-3,0
1526902778701836,-5,-7,-4,-7,-5,-2,-2,0
1526902778701836,3,9,3,-5,-3,-9,-4,-2
1526902778716796,-3,-4,-2,0,2,8,-2,-2
1526902778716796,15,13,2,0,0,0,0,1
1526902778724774,6,-2,-5,-4,-2,-2,0,1
1526902778724774,-11,-5,0,-1,1,0,0,-4
1526902778739734,-6,-3,-5,-4,-3,-4,-1,-4
1526902778739734,6,7,4,-2,-3,1,2,6
1526902778747713,4,9,1,7,6,0,-2,2
1526902778747713,-25,-21,-4,7,-3,1,0,-7
1526902778754694,23,20,0,-1,1,0,-1,2
1526902778754694,-8,-11,-1,-1,-1,0,0,-1
1526902778761676,1,-1,-2,-7,0,-3,-1,0
1526902778761676,-4,-3,1,3,2,3,1,-3
1526902778776636,-1,-1,0,0,2,-1,-4,0
1526902778776636,-3,-2,2,5,1,-1,-1,1
1526902778784615,8,4,2,-5,-6,-2,-1,-1
1526902778784615,-4,-3,-2,-9,-3,-1,0,-3
1526902778799574,-5,-20,-4,1,-2,-2,0,1
1526902778799574,-6,6,-3,-2,-1,-3,-2,-2
1526902778806556,12,13,1,-4,0,-2,0,3
1526902778806556,2,-1,-3,4,3,2,0,-2
1526902778822513,2,0,3,3,-1,-4,0,-3
1526902778822513,-10,-5,-2,3,0,0,-1,0
1526902778823511,-7,-14,-5,-4,-4,-1,-1,-2
1526902778823511,13,16,4,-4,-3,-2,-1,2
1526902778836476,-5,-4,-4,-1,-2,0,0,-2
1526902778836476,5,3,3,2,2,0,-1,1
1526902778844454,-2,-5,1,1,-1,-1,-2,-2
1526902778844454,-4,3,-4,-6,-2,-1,0,-4
1526902778859415,-9,-3,-5,-1,-1,-2,1,0
1526902778859415,-2,-1,2,3,0,-1,1,0
1526902778867393,4,-1,-2,-2,-3,-1,0,1
1526902778867393,1,0,-1,-2,-1,0,0,-1
1526902778882353,-2,5,-3,-7,-3,-3,-4,-3
1526902778882353,1,-1,-1,-1,-1,0,-1,-2
1526902778883351,-1,-5,1,4,0,1,0,0
1526902778883351,0,-3,-1,0,1,2,-1,0
1526902778897313,-3,0,-4,-3,-3,-2,-1,-2
1526902778897313,5,6,3,2,0,3,-1,0
1526902778904294,-5,-4,-3,-5,-4,0,-3,-2
1526902778904294,1,-4,4,-1,-1,1,-1,-1
1526902778919254,-5,-3,-1,2,1,1,0,-5
1526902778919254,-1,-4,-8,-5,-3,-3,-1,-1
1526902778927233,0,-1,-2,-2,-2,-1,0,1
1526902778927233,-10,-6,-4,-4,-1,2,-2,-5
1526902778942193,7,5,5,2,1,-1,0,0
1526902778942193,-1,-2,0,-5,-3,-1,-4,1
1526902778943190,-3,-3,-2,3,0,0,-1,0
1526902778943190,0,0,-3,-2,-2,-1,0,-2
1526902778957153,0,3,8,6,3,2,2,-1
1526902778957153,5,0,-2,-1,0,0,-1,1
1526902778964134,-3,-1,-1,1,-1,-2,-2,-1
1526902778964134,-1,-2,0,1,0,0,-1,-2
1526902778979094,-3,-4,-3,-3,-3,-1,0,-1
1526902778979094,-3,-6,-2,-1,0,-3,-1,-2
1526902778987073,1,2,1,-1,1,-2,0,0
1526902778987073,1,0,-6,-5,-2,-1,1,-2
1526902779003030,-1,0,-1,0,-4,-5,-3,-2
1526902779003030,-4,-2,2,4,0,-1,0,-1
1526902779003030,-1,-4,-2,2,0,-1,0,1
1526902779003030,3,3,2,0,-2,-3,-2,0
1526902779016993,-2,1,-2,-3,0,2,1,-1
1526902779016993,2,2,0,0,-2,-1,0,0
1526902779024972,-6,-1,-1,-1,-1,-1,-3,-2
1526902779024972,-2,-2,-2,-2,-2,-1,-1,-3
1526902779039931,-6,-7,-4,-5,-4,-3,-3,-2
1526902779039931,3,4,3,3,3,2,1,5
1526902779046913,4,7,0,-1,-3,-1,0,-1
1526902779046913,6,3,1,1,-1,-1,1,3
1526902779062870,-1,3,2,0,-1,0,-2,-3
1526902779062870,-5,-20,-4,1,1,-1,-1,-1
1526902779063868,-13,0,-11,-6,-4,-1,-3,-4
1526902779063868,10,17,4,2,0,-1,0,2
1526902779076833,6,-2,1,2,0,2,1,2
1526902779076833,0,0,-5,-2,-2,-3,-4,-4
1526902779084812,-6,-17,-3,4,1,0,1,1
1526902779084812,-11,-8,-6,-5,-3,-1,-3,-5
1526902779099771,0,3,0,-5,-4,-2,0,-2
1526902779099771,4,5,0,1,-1,-1,0,1
1526902779106753,-1,-3,3,1,1,1,1,-1
1526902779106753,-2,0,0,-1,-1,0,-3,1
1526902779122710,-4,-4,-5,-3,-1,-1,-1,0
1526902779122710,9,10,3,2,1,0,-1,0
1526902779123708,2,1,1,-1,-1,-2,-1,1
1526902779123708,-4,-6,0,0,1,-1,-1,-7
1526902779136673,-4,-7,-4,-1,0,1,-2,-5
1526902779136673,-5,-4,0,0,-1,1,0,-4
1526902779144652,9,5,4,0,-1,-1,1,4
1526902779144652,-4,-2,-4,-1,-2,-2,-3,-8
1526902779159612,-11,-3,-1,-1,0,-1,-3,-3
1526902779159612,6,6,0,1,1,0,-1,2
1526902779166593,3,1,2,1,-1,-2,-1,4
1526902779166593,5,0,1,-1,0,-2,0,4
1526902779182550,-5,-1,-2,0,-1,-3,-2,-5
1526902779182550,-4,3,2,-1,-1,-1,-1,-1
1526902779183548,-5,-5,-1,-3,-1,0,-2,-1
1526902779183548,6,1,1,-2,0,1,0,0
1526902779196513,-1,4,4,3,1,0,0,-5
1526902779196513,-6,-7,-5,-4,-2,-2,0,0
1526902779204491,-2,-6,-5,-1,0,-2,-1,-1
1526902779204491,4,2,0,1,0,-1,1,0
1526902779219451,5,10,-1,-1,-1,-1,0,0
1526902779219451,-5,-8,-4,-3,-2,-2,-1,0
1526902779227430,-12,-7,4,3,-1,-1,0,-1
1526902779227430,-2,-1,-2,3,0,-1,-1,-3
1526902779242390,15,5,-2,-2,0,0,-2,1
1526902779242390,3,11,2,0,0,-2,3,3
1526902779243388,-2,-3,-2,0,0,0,0,0
1526902779243388,-11,-10,-3,0,-1,0,-1,-3
1526902779257350,-4,-8,-3,-4,-3,-1,0,-1
1526902779257350,2,1,2,-2,-2,-2,-1,1
1526902779264332,-1,0,-2,-4,-2,-2,-2,-2
1526902779264332,-3,-2,-2,-1,-1,0,0,-3
1526902779279292,-2,2,2,3,1,2,0,-2
1526902779279292,-2,0,0,1,2,0,0,2
1526902779287270,1,0,-2,-2,-1,-1,2,3
1526902779287270,-2,2,3,-2,-4,-1,-2,-6
1526902779302230,-1,-5,-6,-5,-2,-1,0,0
1526902779302230,-5,-2,0,-3,-1,2,-2,-2
1526902779303228,0,2,4,5,1,0,-1,-1
1526902779303228,6,-1,-3,-3,1,-1,0,-1
1526902779317190,-7,-7,1,1,0,-1,1,3
1526902779317190,6,16,-6,-5,-5,-2,-2,-1
1526902779324171,5,-7,-4,-2,-1,0,1,0
1526902779324171,-7,-5,-4,-3,-4,-1,-1,-2
1526902779339131,-3,-3,1,0,-2,0,-2,-3
1526902779339131,-5,-9,-1,-2,3,-2,-1,1
1526902779347110,1,9,0,-2,0,0,-3,-1
1526902779347110,-8,-2,-1,1,1,-1,0,-3
1526902779363067,4,-7,-2,-4,-4,-2,-2,-1
1526902779363067,-2,-3,-2,-1,-2,-1,1,1
1526902779363067,1,3,2,2,-1,-2,0,1
1526902779363067,-2,-3,0,-8,-4,-2,-1,-3
1526902779377030,-6,-3,-6,7,7,2,-1,-3
1526902779377030,3,-3,-1,2,1,1,-1,2
1526902779384012,-4,-1,-3,-1,1,1,0,1
1526902779384012,0,0,2,0,-2,1,1,-1
1526902779399969,6,9,4,-2,-2,0,1,1
1526902779399969,-1,3,1,0,-3,0,-1,0
1526902779406950,8,10,2,1,0,0,-1,-2
1526902779406950,-4,-5,-3,-2,-2,-1,-2,-3
1526902779422907,-3,-5,-5,-4,-1,-3,-2,-2
1526902779422907,-4,-2,-4,0,0,1,-1,0
1526902779423905,-1,-6,0,-2,-3,-1,-3,-3
1526902779423905,11,10,0,1,1,2,2,3
1526902779436870,-8,-6,-2,-1,-2,0,-3,-4
1526902779436870,1,-6,2,3,2,0,-1,3
1526902779444849,-3,-6,-1,-2,1,0,-1,-2
1526902779444849,-8,-1,-7,-13,-7,-1,-2,-6
1526902779459809,4,0,-1,3,-3,-1,2,2
1526902779459809,-1,-2,1,16,13,4,2,1
1526902779466790,-1,-5,2,3,3,0,-2,-1
1526902779466790,-7,5,-1,5,2,0,0,0
1526902779482747,2,2,-5,-10,-6,-2,1,-1
1526902779482747,-2,-1,-3,-10,-8,-1,-2,-1
1526902779483745,5,-2,2,2,1,-2,1,2
1526902779483745,-1,-6,2,4,2,-2,-2,-4
1526902779496710,1,0,0,-5,-1,0,1,0
1526902779496710,2,4,-4,-3,-2,-4,-1,-1
1526902779504689,-1,2,-4,-2,-2,-2,0,-1
1526902779504689,-5,-10,-1,-1,-1,-2,-2,-3
1526902779519649,4,10,3,3,3,4,0,2
1526902779519649,6,-2,-1,-5,-4,-4,-1,2
1526902779526630,-3,5,0,-1,-1,0,1,-4
1526902779526630,-4,-3,-2,1,0,-1,-1,-5
1526902779542587,-4,-8,-1,0,0,1,-1,-1
1526902779542587,-3,5,0,-1,0,1,-3,-1
1526902779543585,0,-1,-3,-5,-4,-2,-3,-3
1526902779543585,1,-3,2,4,2,1,1,1
1526902779556550,-2,-2,-1,-1,1,-3,-1,-2
1526902779556550,3,1,2,-3,-3,-2,-2,4
1526902779564529,-1,-1,-1,1,1,0,-2,-2
1526902779564529,6,4,0,1,1,-1,0,-5
1526902779579489,-4,-3,2,4,0,-2,-1,-1
1526902779579489,0,-5,0,-3,-3,0,0,1
1526902779587467,-4,12,-3,-2,-2,-2,-1,-3
1526902779587467,0,-6,-3,-2,-1,-1,1,0
1526902779602427,-1,1,-2,-5,-2,-1,0,1
1526902779602427,-3,-4,0,-4,-3,-2,-1,-1
1526902779610406,0,2,2,4,-1,-1,1,-2
1526902779610406,-8,-11,-4,-1,0,-1,-2,-5
1526902779617387,4,6,-2,-3,-1,-2,-2,-2
1526902779617387,-10,-15,-3,2,0,3,-1,0
1526902779624369,6,-1,-2,-5,-4,-4,0,2
1526902779624369,5,4,1,0,-1,2,2,-2
1526902779639329,-5,-5,-1,1,1,-4,-2,-2
1526902779639329,0,0,-4,-2,-3,1,0,2
1526902779647307,-8,-9,2,2,2,1,-1,-1
1526902779647307,0,5,-1,1,-3,-4,-4,-4
1526902779662267,0,-3,1,1,4,4,1,3
1526902779662267,4,5,2,-1,0,-3,1,0
1526902779670246,-3,-2,-3,-3,-1,0,-1,-1
1526902779670246,0,4,2,-1,1,0,3,-2
1526902779677227,-4,-4,-6,-6,-4,-1,0,-3
1526902779677227,3,2,0,1,-2,-3,-1,0
1526902779684209,0,-3,-4,-5,-10,-3,0,0
1526902779684209,-2,-2,4,4,6,3,0,-1
1526902779699169,-2,3,-1,-1,-1,-2,0,-3
1526902779699169,1,-4,-2,-2,1,-3,0,3
1526902779707147,-4,5,0,0,0,-1,-1,-4
1526902779707147,-5,-9,-9,-5,-6,-1,-2,-2
1526902779722108,-1,12,-2,1,-2,1,0,-1
1526902779722108,2,-11,-1,2,-2,-2,-1,1
1526902779730086,3,12,1,-3,-3,0,0,0
1526902779730086,-5,-1,-1,0,0,-1,-2,-4
1526902779737067,-1,-3,-1,-3,-2,2,1,0
1526902779737067,1,1,0,7,5,0,1,0
1526902779744049,-4,-5,-1,-3,-1,-4,-3,0
1526902779744049,0,-1,-1,0,0,-1,0,-2
1526902779759009,-1,-2,0,0,-1,-2,-3,-2
1526902779759009,2,5,3,-5,-4,1,-2,1
1526902779766987,-3,-2,0,-1,3,2,-1,-3
1526902779766987,-7,-3,-1,2,-6,-1,0,-4
1526902779781947,-3,-10,-4,0,-1,-1,-2,-4
1526902779781947,8,5,-2,-2,-3,-1,0,4
1526902779789926,15,7,5,3,0,0,1,8
1526902779789926,-8,2,-6,-8,-3,-2,-2,-7
1526902779804886,-7,2,0,-1,-3,-2,-3,-6
1526902779804886,-8,-36,-23,-9,-2,-3,-3,0
1526902779805883,9,38,20,7,5,0,2,7
1526902779805883,1,5,7,6,-3,-1,-1,-5
1526902779819846,-7,-13,-8,3,1,0,-1,-3
1526902779819846,-3,6,-6,-6,0,-2,-1,-1
1526902779826827,-9,-15,4,-3,-1,0,0,-3
1526902779826827,3,4,-1,-1,1,-2,0,4
1526902779841787,3,0,3,-1,2,-2,-1,2
1526902779841787,-3,-3,2,-1,-3,-2,-2,-1
1526902779849766,-7,-15,-13,-2,-2,-1,-1,-3
1526902779849766,3,5,4,3,3,0,0,1
1526902779864726,4,-9,-5,-3,-3,-2,-2,-3
1526902779864726,0,9,3,-3,-4,0,-2,2
1526902779865723,-3,-2,-4,-1,-4,-2,-1,-2
1526902779865723,2,0,2,2,1,6,1,-2
1526902779879686,0,0,4,3,16,-3,3,3
1526902779879686,0,7,2,2,1,0,-1,-4
1526902779886667,-7,-12,-7,-3,-1,-2,-4,-4
1526902779886667,0,1,-3,-4,-4,-1,2,1
1526902779901627,5,3,2,2,-4,1,3,1
1526902779901627,4,9,6,2,1,0,-1,4
1526902779909606,-3,-8,-4,0,0,-1,0,3
1526902779909606,-5,1,-1,-2,2,-2,-2,-4
1526902779925563,-15,-13,-6,-3,-4,-1,1,-3
1526902779925563,5,-5,-3,-3,-1,-1,2,3
1526902779925563,-6,-4,-4,-4,-3,-4,-6,-5
1526902779925563,-1,-1,0,-1,-2,-1,3,1
1526902779939526,2,6,5,3,-1,2,-1,-1
1526902779939526,-3,-6,-1,0,1,-1,1,2
1526902779947504,2,-3,0,1,0,-1,-1,0
1526902779947504,-1,-1,-3,-3,-2,-2,-3,-5
1526902779962464,-3,-15,-6,-6,-4,-2,-2,-1
1526902779962464,1,25,-2,1,-2,-1,-1,0
1526902779969446,6,-5,3,2,3,0,0,-1
1526902779969446,-12,-17,-7,-3,0,-2,-1,-7
1526902779985403,1,-4,-4,-1,-4,0,-2,0
1526902779985403,14,31,17,5,2,1,2,6
1526902779986401,2,3,-6,-3,-1,-1,1,2
1526902779986401,-1,-7,0,2,-1,-1,-1,-2
1526902779999366,-6,4,-2,-5,-4,-2,-2,1
1526902779999366,-14,-18,-3,-2,-3,-1,-3,-4
1526902780007344,7,2,-4,-1,1,1,0,3
1526902780007344,5,-3,0,-2,-2,0,-1,1
1526902780022305,0,21,-1,-4,-4,-3,-2,-4
1526902780022305,-6,-12,1,13,6,1,1,-2
1526902780029286,-5,-3,-2,-2,-2,-1,0,-1
1526902780029286,0,-2,-6,-4,-1,-2,-2,-3
1526902780045243,7,6,5,3,2,3,0,4
1526902780045243,-3,-4,-2,-7,-4,-2,-2,-4
1526902780046241,-11,-14,-6,4,1,1,0,-3
1526902780046241,6,8,-1,-4,-2,-3,-4,-2
1526902780059206,5,2,4,-1,-2,-1,1,2
1526902780059206,7,9,1,-2,-1,-1,-1,2
1526902780067184,-6,-6,-3,-5,-3,-2,-1,-4
1526902780067184,-6,-2,-4,5,2,-1,-4,-5
1526902780082144,-5,-8,1,5,2,3,-1,4
1526902780082144,-4,-13,-6,-5,-1,-3,-3,-3
1526902780089126,-5,9,-3,-5,-3,1,-1,-3
1526902780089126,2,1,4,1,0,0,1,2
1526902780105083,1,-5,-9,1,2,-1,-1,-2
1526902780105083,-7,-4,8,2,1,1,0,3
1526902780106081,3,-1,5,1,-3,-1,-1,0
1526902780106081,0,-2,-4,-4,0,-1,-2,-5
1526902780119046,0,1,-5,0,-2,-1,0,1
1526902780119046,-12,-14,0,-1,-2,-2,-2,-1
1526902780127025,6,-1,1,0,-1,1,2,0
1526902780127025,-1,19,3,-2,-2,-3,0,-3
1526902780141985,1,-10,-2,-7,-2,-2,0,-1
1526902780141985,1,3,-3,8,1,1,-2,0
1526902780149963,-12,-11,0,0,2,-1,-1,-6
1526902780149963,-1,0,-5,-3,-2,-1,1,-1
1526902780164923,6,7,4,-2,-2,-3,-1,-1
1526902780164923,-2,-6,-4,-6,-3,-3,-1,1
1526902780165920,5,3,0,1,-2,-2,-1,0
1526902780165920,2,-3,-1,0,-2,1,1,-2
1526902780179883,-1,1,1,-1,1,1,-1,0
1526902780179883,0,-5,0,-1,-2,-1,0,-1
1526902780186864,5,12,-3,0,0,-2,-2,0
1526902780186864,-3,-6,0,-2,-1,1,-1,-2
1526902780201824,2,-2,4,0,-2,1,1,3
1526902780201824,4,2,1,-1,0,-1,-3,2
1526902780209803,-4,1,-7,-5,-2,-1,-3,-6
1526902780209803,-1,12,-1,-1,-2,-2,-1,1
1526902780224763,-1,-3,1,3,1,0,2,2
1526902780224763,-2,4,-3,-2,-2,-2,-2,-2
1526902780225761,6,-5,-1,-3,-3,-1,-2,0
1526902780225761,-2,-1,2,2,1,1,-1,-7
1526902780239723,0,8,3,2,-1,-1,-1,1
1526902780239723,-1,-5,-4,-5,-2,0,1,-1
1526902780246704,-6,-4,-1,0,1,1,0,-4
1526902780246704,-5,-8,-2,-2,1,-1,-1,-4
1526902780261664,-2,2,1,-1,-2,-1,-2,0
1526902780261664,6,8,0,-1,-1,-1,-1,0
1526902780269643,-3,-1,-1,0,1,-1,-1,-3
1526902780269643,0,-4,-1,-3,-3,-2,1,0
1526902780285600,-4,-4,0,1,-3,-1,-3,-3
1526902780285600,4,-2,0,0,0,1,1,3
1526902780285600,-2,-3,-1,2,0,1,-2,-1
1526902780285600,-4,2,-1,-1,-1,0,0,-7
1526902780299563,1,-2,-2,-2,-1,-1,1,0
1526902780299563,-2,-3,-3,-1,-1,0,-1,2
1526902780306544,-1,2,-1,-1,0,1,0,-2
1526902780306544,2,-4,-1,1,0,1,0,1
1526902780322502,-1,-1,-2,0,-2,-2,-5,-4
1526902780322502,-9,-13,-6,-3,-1,-1,-1,-4
1526902780329483,1,9,1,-2,-3,-3,1,-2
1526902780329483,-3,-5,-4,0,1,2,2,-1
1526902780345440,12,24,2,-1,0,0,2,4
1526902780345440,-6,-21,-9,-3,-2,-2,-2,-2
1526902780346438,-8,16,10,0,-1,-2,-2,-3
1526902780346438,-6,-13,-5,-1,0,-1,0,-3
1526902780359403,-1,-7,-3,-1,0,1,0,1
1526902780359403,5,5,1,0,-1,-1,-1,1
1526902780367381,-3,-15,-8,0,-1,2,-2,-4
1526902780367381,2,4,-2,0,-1,-1,0,-1
1526902780382341,-1,-5,1,-2,1,5,1,-1
1526902780382341,2,4,0,0,-1,-11,-3,-1
1526902780389323,-2,-4,1,0,0,-2,7,-1
1526902780389323,-1,3,-1,-2,0,1,-10,-1
1526902780405280,-2,-8,-3,-1,0,-2,-1,-1
1526902780405280,2,18,5,2,0,1,4,2
1526902780406278,-1,-4,-2,-2,-2,8,1,-1
1526902780406278,-2,-7,0,3,2,-1,-9,-3
1526902780419243,-6,-3,-7,-9,-8,-3,22,1
1526902780419243,7,13,7,5,17,10,-28,-2
1526902780427222,-3,-2,0,1,-4,-11,-2,-5
1526902780427222,0,0,-1,-4,-1,8,-2,-3
1526902780442182,0,-2,2,2,-2,-10,5,7
1526902780442182,-5,-6,-2,-4,-4,2,6,3
1526902780449163,2,1,-4,-3,-1,-3,-4,1
1526902780449163,0,-4,-1,0,-1,-3,1,-5
1526902780465120,1,6,0,0,2,5,-6,-2
1526902780465120,-7,-9,-5,-4,-4,-3,3,1
1526902780466118,9,13,5,2,4,3,-3,5
1526902780466118,2,0,2,-1,-2,0,6,1
1526902780479083,-11,-7,-5,-1,1,-1,-6,-4
1526902780479083,-3,-12,-4,-1,-4,-2,2,1
1526902780487061,0,4,-7,-4,-6,-2,1,3
1526902780487061,0,7,11,3,-3,-7,0,-1
1526902780502022,2,-7,-1,-1,0,-1,-7,-1
1526902780502022,-8,9,0,-2,-2,-1,0,-3
1526902780510000,-4,-20,-2,1,3,-2,2,-1
1526902780510000,0,1,-2,-2,0,-3,2,-1
1526902780524960,-3,2,-3,-2,0,-1,-7,-3
1526902780524960,4,0,-1,-1,-1,0,2,2
1526902780525958,-2,-2,0,-1,-1,0,-1,-4
1526902780525958,-3,-1,-2,1,1,-2,0,1
1526902780539920,1,-9,-3,-1,-1,3,-1,-2
1526902780539920,7,19,-7,-6,-3,-3,0,2
1526902780546901,8,8,10,7,3,-1,0,0
1526902780546901,-13,-50,-10,0,-2,1,0,-6
1526902780561861,-2,28,2,-2,-4,-4,-4,-3
1526902780561861,0,25,17,5,1,1,3,0
1526902780569840,4,-11,-13,-4,-1,0,-3,1
1526902780569840,8,9,4,1,0,1,3,0
1526902780584800,-2,-13,-4,-4,-1,0,-2,-1
1526902780584800,-3,-13,-7,-1,0,0,0,-4
1526902780592779,-13,-7,2,0,-1,0,-2,-5
1526902780592779,1,0,-6,-2,-1,-1,0,-3
1526902780599760,2,0,-3,0,-2,-2,-3,-1
1526902780599760,2,0,-1,0,-2,1,1,3
1526902780606741,-7,-9,-5,-5,-1,-1,-2,-5
1526902780606741,-2,1,-4,-2,-3,-1,-1,-2
1526902780621702,-1,-1,5,4,2,1,0,0
1526902780621702,-2,-11,-2,-3,-4,-2,2,-1
1526902780629680,9,3,-2,3,1,-1,-2,1
1526902780629680,-9,4,-3,-4,-2,0,-1,-4
1526902780644641,3,2,3,2,2,0,-1,-2
1526902780644641,-2,-7,-1,1,1,-2,-4,0
1526902780652618,-2,4,-2,1,-2,-1,1,-1
1526902780652618,0,11,1,-2,-1,2,2,-2
1526902780659600,0,-2,-2,-1,-2,0,-7,-1
1526902780659600,-2,-5,-4,-4,-2,-3,0,2
1526902780666581,-1,3,1,-1,-1,0,0,-4
1526902780666581,-14,-13,-1,0,0,2,-2,-5
1526902780681541,18,2,-1,-1,0,0,3,3
1526902780681541,-6,-7,4,1,-2,-2,-2,-1
1526902780689520,-5,2,-3,-2,-2,-1,-2,-4
1526902780689520,-1,1,-4,-5,-3,-4,1,3
1526902780704480,-10,-7,-2,-1,-1,1,0,-4
1526902780704480,0,-5,0,-1,-2,-1,0,1
1526902780712459,3,2,-1,-1,-1,0,-1,-4
1526902780712459,-3,0,-5,-1,-1,0,-1,-2
1526902780727419,5,-3,-1,0,1,-1,0,3
1526902780727419,9,12,14,4,2,1,0,3
1526902780728416,-9,0,-4,0,-2,0,0,-1
1526902780728416,2,6,-4,-2,-1,-1,-2,-6
1526902780742379,-6,-11,-2,-3,-1,1,0,3
1526902780742379,5,20,-6,2,1,0,1,3
1526902780749360,-7,-14,8,1,2,-1,-1,-3
1526902780749360,1,3,3,1,1,-1,-3,0
1526902780764320,1,2,-1,0,-1,-2,0,1
1526902780764320,-7,-13,-5,-2,-2,0,-1,0
1526902780772298,-4,0,-4,-5,-2,-1,-1,-2
1526902780772298,3,1,3,2,-1,-1,0,0
1526902780787259,-15,-2,-4,-2,-1,-3,-1,-3
1526902780787259,11,12,5,1,2,-2,0,3
1526902780788256,-5,-13,-3,0,1,1,1,0
1526902780788256,4,2,1,-3,-2,1,0,-1
1526902780802219,-2,1,0,3,1,-2,-1,1
1526902780802219,-8,-12,-6,-3,-2,1,0,-3
1526902780809200,0,-3,-2,-1,0,-1,-1,-2
1526902780809200,11,25,7,2,0,-2,-1,3
1526902780824160,4,7,2,1,0,0,0,2
1526902780824160,1,-1,-5,-4,-4,-3,-3,-3
1526902780833136,-7,-10,-4,0,0,0,0,-7
1526902780833136,-8,-11,-4,-2,-4,-1,-3,-4
1526902780848096,8,11,4,0,-1,0,0,3
1526902780848096,-1,-6,-6,-3,-2,-1,0,2
1526902780848096,-5,1,0,-3,-1,-1,-1,-2
1526902780848096,5,-3,-1,3,1,-1,1,-1
1526902780862059,-5,-6,0,-2,-5,-1,-1,0
1526902780862059,-5,-7,-3,-5,-3,-1,-1,-1
1526902780870037,3,8,3,6,5,1,1,-2
1526902780870037,-5,2,-3,2,1,1,-2,-1
1526902780884997,-3,-13,-4,-2,0,-1,-1,2
1526902780884997,4,3,0,0,-2,0,-1,-2
1526902780892976,1,12,1,0,-3,-3,-1,-2
1526902780892976,1,-5,-2,-3,-1,-1,0,0
1526902780907936,-3,-1,1,2,1,-3,-5,-8
1526902780907936,-3,-4,2,1,-1,-1,-2,0
1526902780908934,0,7,-2,-1,2,0,1,4
1526902780908934,-3,-5,-2,-3,-2,0,0,-7
1526902780921899,-1,-1,-1,2,-2,-1,-1,0
1526902780921899,0,-4,0,0,-2,-3,0,2
1526902780929877,5,8,1,-3,-7,-1,-1,-3
1526902780929877,-6,-2,-4,-4,-1,-1,0,0
1526902780944837,-3,-1,-1,5,2,0,-1,-1
1526902780944837,3,-1,1,5,0,1,2,1
1526902780952816,1,0,-2,-3,0,-1,-1,-2
1526902780952816,1,-5,-4,-1,-1,-1,-1,-2
1526902780967776,-3,10,1,-3,-2,0,0,1
1526902780967776,5,3,-1,1,0,0,-1,0
1526902780968774,1,-4,0,-3,-2,-2,-2,-3
1526902780968774,6,-1,2,1,-1,0,1,2
1526902780981738,-1,-10,-3,-2,2,1,0,1
1526902780981738,-8,-4,-4,-3,-1,1,1,-5
1526902780989717,-2,-4,-2,-8,-6,-2,-1,-2
1526902780989717,-3,1,2,3,0,-1,-2,-3
1526902781004677,2,-1,1,7,7,-1,-2,-3
1526902781004677,0,2,-2,-3,-1,-2,-3,0
1526902781012656,-6,-6,-2,1,0,-3,-1,-1
1526902781012656,-1,-6,-2,-2,-2,0,1,1
1526902781027616,4,2,-1,-5,-5,-2,1,4
1526902781027616,-4,-5,-2,1,1,2,1,2
1526902781028613,-12,-6,-1,2,1,-2,-1,-9
1526902781028613,14,28,5,1,-1,-1,0,4
1526902781041579,6,-2,2,-3,0,0,1,2
1526902781041579,4,-1,-3,-2,0,-1,-1,0
1526902781049557,2,3,-2,-1,-1,2,0,2
1526902781049557,-7,-9,-1,-3,-3,-1,-1,-5
1526902781064517,-4,-5,-2,-4,-1,-2,0,0
1526902781064517,-1,3,0,3,0,-2,-4,-3
1526902781072496,-3,-7,0,0,-1,0,1,-3
1526902781072496,-6,-1,-5,-2,-1,0,-1,-3
1526902781087456,2,-4,-6,-3,-5,-1,-1,1
1526902781087456,-7,-7,-3,-5,-1,-1,-1,-1
1526902781088454,-1,4,-1,1,2,0,-2,-1
1526902781088454,2,3,-2,-1,2,3,-1,2
1526902781102416,0,-2,3,-1,-2,-3,0,1
1526902781102416,-1,3,1,2,1,-2,0,2
1526902781109397,-2,4,1,1,-1,0,-3,-2
1526902781109397,1,-2,-2,-2,-1,0,-1,-4
1526902781124357,0,-2,0,-2,-2,1,-1,1
1526902781124357,-8,-3,-2,-1,0,1,0,-3
1526902781132336,3,-5,-2,-1,-2,1,0,-2
1526902781132336,5,5,1,-3,-3,-3,-4,1
1526902781147296,1,3,-1,-2,-3,1,1,0
1526902781147296,-2,-6,1,-3,-1,-2,0,0
1526902781148293,-9,-8,-3,-3,-1,-1,-1,-2
1526902781148293,-5,-5,-2,0,0,-2,6,-2
1526902781162256,-1,1,-2,-1,-4,-8,-15,-2
1526902781162256,-1,-1,-3,-2,1,12,12,6
1526902781169237,2,3,1,0,-3,1,17,-3
1526902781169237,-1,0,4,5,3,3,-48,-5
1526902781184197,-2,5,2,2,-1,-12,0,1
1526902781184197,-2,-6,-8,-5,-3,-1,1,0
1526902781192176,5,6,-2,-4,-2,-1,-6,1
1526902781192176,-2,-2,1,3,-1,-6,17,0
1526902781208133,-5,-8,-7,-8,1,1,-2,0
1526902781208133,-5,-9,-10,-4,-24,-8,-14,-4
1526902781208133,-1,-3,-3,1,7,0,3,-2
1526902781208133,-1,4,7,5,-2,1,3,-3
1526902781222096,-2,-4,-6,-1,9,0,-4,-4
1526902781222096,3,4,3,1,-11,2,5,0
1526902781229077,-3,-1,0,-3,-5,-5,-8,-4
1526902781229077,0,-1,2,3,1,-1,4,-1
1526902781245036,-1,-1,-3,-5,-11,1,3,2
1526902781245036,5,5,6,3,7,-2,-2,1
1526902781252016,-4,-1,-1,1,-1,-1,-5,-2
1526902781252016,-5,-8,-8,-6,2,-4,1,-1
1526902781267973,-1,-1,-2,-4,-9,2,4,1
1526902781267973,1,3,1,0,7,-1,-1,-2
1526902781268971,-2,0,4,5,4,-1,-3,-4
1526902781268971,0,3,-2,0,-4,2,8,0
1526902781281936,3,1,4,3,1,-1,0,2
1526902781281936,-6,-4,-4,-2,3,-3,-4,-4
1526902781289914,-1,0,0,0,0,-2,-2,-1
1526902781289914,-5,-6,-8,-4,-1,0,3,-1
1526902781304874,5,6,6,8,5,5,2,2
1526902781304874,1,1,1,-1,5,-2,-3,2
1526902781311856,1,0,-2,0,-6,1,1,1
1526902781311856,-5,-4,-4,-2,1,-3,-2,-5
1526902781327813,2,5,5,4,-11,2,0,4
1526902781327813,-3,-1,0,-2,0,-2,0,-2
1526902781328811,7,2,-1,1,0,-1,-1,-1
1526902781328811,-6,-4,-2,-4,-1,-2,1,1
1526902781341776,-8,-8,-4,-4,-1,-2,0,-3
1526902781341776,7,5,1,1,-1,-3,-3,2
1526902781349755,-8,-2,-3,-5,-3,0,-4,-6
1526902781349755,1,-3,-2,-1,-3,-1,1,-2
1526902781364715,2,-1,0,-4,2,1,1,0
1526902781364715,-6,-8,-2,3,2,-1,-1,-5
1526902781371695,10,18,19,3,4,-1,2,4
1526902781371695,-2,-1,-6,0,-3,1,1,-3
1526902781387653,-3,0,-1,-1,-1,-1,-2,-3
1526902781387653,-2,-9,-3,0,4,0,0,-1
1526902781388651,-7,-9,-9,-1,-3,0,-1,-3
1526902781388651,2,2,3,0,0,0,0,3
1526902781401616,2,-1,0,1,2,0,0,2
1526902781401616,2,1,0,-4,-5,-1,-2,0
1526902781409594,-4,-4,-4,3,0,0,1,-5
1526902781409594,-5,-4,-1,1,1,1,-1,1
1526902781424554,6,1,3,-1,2,-1,-1,1
1526902781424554,-8,-13,0,-3,-2,-2,-2,-7
1526902781432533,-1,12,-13,-1,0,-1,-4,-6
1526902781432533,1,-18,6,-1,1,-1,0,1
1526902781447493,-8,-3,-6,-1,-1,-1,-2,1
1526902781447493,3,10,7,6,2,-2,1,5
1526902781448490,-13,-20,-16,-11,-6,-4,-4,-10
1526902781448490,4,-7,-1,-4,-4,0,-2,-1
1526902781462453,27,26,6,-1,1,0,1,4
1526902781462453,0,-7,-3,-2,0,-2,1,1
1526902781469435,-8,-3,1,1,1,-1,0,0
1526902781469435,-6,-8,0,3,0,-1,0,-1
1526902781484394,10,7,2,-1,-1,-1,1,9
1526902781484394,-3,13,-3,-1,0,-4,-3,-3
1526902781492373,-5,-16,-4,-3,-3,-2,-3,-4
1526902781492373,8,13,0,-5,-3,-1,-2,-1
1526902781507333,-9,-13,-4,-2,-1,1,1,-4
1526902781507333,2,6,-2,-3,-3,-2,-1,0
1526902781515311,-2,-1,4,2,1,1,3,1
1526902781515311,-6,-4,-6,-1,-1,-1,0,-2
1526902781522293,-1,1,-3,2,0,-2,0,2
1526902781522293,3,1,-1,-3,-2,0,-4,1
1526902781529274,3,0,3,-2,-2,1,-1,0
1526902781529274,1,4,-2,-3,-3,-2,-3,-8
1526902781544235,-7,-5,-1,-1,1,-2,-4,-2
1526902781544235,-9,-10,3,4,0,1,1,-1
1526902781552213,1,-3,-8,-4,-1,-3,0,-4
1526902781552213,10,17,4,3,2,-2,2,4
1526902781567173,-8,2,-3,-3,-3,-1,-2,-3
1526902781567173,-11,-13,-2,-1,-1,1,0,-2
1526902781575152,10,16,9,4,0,-1,2,2
1526902781575152,-5,-3,-4,-1,-1,-2,-1,-2
1526902781582133,-4,0,0,3,2,-1,0,-1
1526902781582133,-1,-4,-2,-2,-1,-2,0,0
1526902781589114,-1,-7,-3,-1,-1,-3,-3,-6
1526902781589114,-5,-5,1,-1,-1,0,-2,-2
1526902781604074,-2,-8,-5,-3,-1,-1,-1,4
1526902781604074,5,14,0,-1,-2,0,0,0
1526902781612053,10,6,3,-2,-1,0,-2,-1
1526902781612053,-6,-14,-2,0,-1,-2,-2,-3
1526902781627013,0,9,0,-2,-2,1,-1,-1
1526902781627013,2,-1,-5,-8,-3,-2,0,1
1526902781634991,-3,-2,5,11,2,0,-1,0
1526902781634991,0,6,-6,3,0,-1,-2,0
1526902781641973,-7,-6,2,1,1,-1,-2,-2
1526902781641973,4,10,4,1,1,0,-1,-5
1526902781649952,-2,-3,-3,-8,-4,-1,3,1
1526902781649952,0,-12,-5,-5,-3,0,0,-1
1526902781664912,-1,-4,0,0,-1,-3,-1,0
1526902781664912,-9,-15,0,0,-1,1,-2,-4
1526902781671893,0,2,-2,0,0,2,-2,-3
1526902781671893,13,3,4,0,-1,-2,0,3
1526902781686853,8,12,1,0,0,-1,1,5
1526902781686853,6,3,-4,-2,0,-1,0,-1
1526902781694831,-15,-24,-7,-1,-2,0,-2,-8
1526902781694831,-7,-11,6,3,1,3,1,2
1526902781709791,17,44,0,-3,-5,-6,-5,-1
1526902781709791,-11,-21,-4,0,1,0,2,-3
1526902781710789,8,7,1,-1,0,1,2,7
1526902781710789,-9,-7,-2,-1,-1,-1,-1,-3
1526902781724751,-8,-4,0,0,0,-2,-2,1
1526902781724751,0,8,2,2,0,0,0,-1
1526902781731733,-8,-18,-6,-8,-3,-4,0,-4
1526902781731733,4,19,3,1,3,0,1,3
1526902781746693,-3,-24,-1,3,1,-1,-1,-3
1526902781746693,5,13,-3,-2,-1,6,0,0
1526902781755669,1,6,2,1,-1,-4,13,0
1526902781755669,-3,1,-5,-9,-6,-2,-11,-3
1526902781770629,-11,-24,-3,5,7,5,10,2
1526902781770629,9,14,2,0,0,-4,-11,0
1526902781770629,-2,-2,3,0,-3,1,-2,-1
1526902781770629,5,19,-4,-2,-4,-1,4,0
1526902781784592,-2,-19,-5,-2,-2,0,-3,-1
1526902781784592,-8,-16,0,-1,-2,1,5,-2
1526902781791573,5,16,-1,0,0,0,-3,-5
1526902781791573,5,13,2,1,0,-1,1,3
1526902781806533,-2,-5,-1,-4,-3,-1,-4,1
1526902781806533,4,-2,2,2,-2,-3,3,0
1526902781815509,-11,-7,3,1,-1,-2,-5,-6
1526902781815509,5,8,-1,1,0,-1,-4,-1
1526902781830469,-7,-17,-6,-4,-3,-1,0,0
1526902781830469,1,12,-1,0,1,-1,1,0
1526902781831466,2,0,-2,0,0,-1,-3,-1
1526902781831466,-3,-8,-2,-4,0,0,2,-1
1526902781844431,-6,-5,0,3,2,-2,0,-2
1526902781844431,-3,-1,-2,3,-2,-4,-4,-4
1526902781852410,4,3,1,0,2,0,-3,-4
1526902781852410,-2,9,1,1,3,-1,0,2
1526902781867370,1,-3,1,-5,-4,-1,-1,-1
1526902781867370,-7,-8,-3,-5,-2,-1,-2,-2
1526902781875349,-8,2,-3,-5,-2,0,-2,-1
1526902781875349,-2,-12,-1,0,-4,1,1,0
1526902781890309,9,17,1,0,-1,-7,-6,-2
1526902781890309,-8,1,-1,-2,-1,1,-1,-4
1526902781891306,1,-11,-5,-2,0,-3,0,2
1526902781891306,0,-2,0,2,-2,3,3,4
1526902781904271,-1,1,0,-2,-2,1,-1,1
1526902781904271,9,10,-4,-3,0,0,6,2
1526902781912250,-7,-10,-1,2,0,-6,-22,-4
1526902781912250,-5,-9,-1,1,0,-1,3,-3
1526902781927211,-3,-1,-3,-1,-1,1,11,3
1526902781927211,-1,-8,-1,-2,-1,-3,-15,-2
1526902781935189,3,11,2,2,-2,-7,-2,1
1526902781935189,0,-3,-1,0,0,5,-8,-2
1526902781950149,-1,-1,-2,-3,0,3,6,1
1526902781950149,-5,-1,-3,-9,-5,-2,4,-1
1526902781951146,3,6,5,7,5,-3,8,-4
1526902781951146,-1,-1,-3,-2,-3,6,6,0
1526902781964112,-2,-2,-3,-2,-7,-8,0,-1
1526902781964112,-1,-10,0,3,18,3,-4,0
1526902781972090,-3,2,-2,0,1,0,2,-2
1526902781972090,-1,-4,-4,-3,-1,-6,3,-4
1526902781987050,-2,-6,2,-2,0,2,2,1
1526902781987050,3,15,1,0,-6,-1,-5,0
1526902781995029,-9,-9,-5,-6,-3,3,1,-5
1526902781995029,2,-3,1,1,1,-7,-5,-1
1526902782009989,6,5,-2,-3,-3,-1,-5,2
1526902782009989,-5,1,1,4,-3,-3,-2,-4
1526902782010988,-4,-3,-3,-6,-1,6,2,0
1526902782010988,-5,-2,-2,-3,-6,-8,-4,1
1526902782024948,-1,-3,-3,-2,1,3,-9,-1
1526902782024948,3,-3,-1,-4,0,5,9,2
1526902782031930,-4,-3,-8,-10,-7,-1,-2,-1
1526902782031930,0,-4,0,1,1,2,-1,-1
1526902782046890,0,1,-1,5,6,-6,-3,1
1526902782046890,-3,-3,-2,-4,-17,-5,-4,-2
1526902782054869,3,5,2,0,10,6,4,0
1526902782054869,0,2,0,7,7,-3,-4,-1
1526902782069829,2,3,2,-1,-4,3,-1,2
1526902782069829,-2,-5,-2,2,-1,-2,-1,-3
1526902782070827,-5,-9,-1,-6,-10,-2,-1,-3
1526902782070827,-6,2,-1,-3,-2,0,2,-2
1526902782084789,5,13,9,1,5,1,-1,3
1526902782084789,-3,-9,0,3,-5,-2,0,-1
1526902782091770,-4,-15,-14,-4,-2,-3,-1,-4
1526902782091770,-5,-1,7,2,5,4,-1,-6
1526902782106730,-4,7,1,-4,-3,0,-3,-3
1526902782106730,5,6,0,-7,-2,-5,-2,3
1526902782114708,3,-2,5,10,8,1,2,-5
1526902782114708,-4,-9,-6,-2,-2,0,-1,0
1526902782130666,-7,-3,-5,-6,-6,-6,-5,-4
1526902782130666,-1,-6,5,8,7,-1,0,-2
1526902782130666,12,16,0,0,-2,-1,0,3
1526902782130666,0,-1,-3,-5,-6,-2,-1,2
1526902782144629,0,-1,0,-2,-3,-1,-1,-1
1526902782144629,-5,-3,-6,-2,1,-4,-1,-2
1526902782151610,0,3,1,-1,-2,-1,0,-1
1526902782151610,5,6,2,-2,-2,-3,0,2
1526902782166570,-2,-9,-4,1,2,-1,-1,-1
1526902782166570,-7,-4,-2,1,2,4,-1,-3
1526902782175546,9,11,3,0,-2,2,2,-1
1526902782175546,0,-7,-2,0,-1,-2,-1,-1
1526902782190506,-2,-7,-3,-2,-2,-1,-2,-1
1526902782190506,0,2,-4,-6,-6,-3,-3,-2
1526902782190506,-7,-7,0,-2,-5,2,-2,-4
1526902782190506,0,-9,-2,-1,2,-6,-1,-2
1526902782204468,7,6,-1,1,0,-1,-1,1
1526902782204468,4,1,1,1,2,0,1,1
1526902782212448,-5,-1,-2,0,-1,0,-1,-3
1526902782212448,-7,-8,-6,-5,-4,2,-1,-4
1526902782227407,-4,2,-2,0,-1,-2,-2,0
1526902782227407,1,0,-3,-7,-1,-2,-1,0
1526902782234389,-9,-5,1,0,-1,1,0,-5
1526902782234389,11,11,5,2,1,0,1,1
1526902782250346,1,6,3,2,1,0,0,2
1526902782250346,-9,-12,-7,-5,-2,2,-1,-5
1526902782251343,8,10,1,0,-1,-4,-1,-3
1526902782251343,-9,-7,-5,-2,-1,-2,-2,-4
1526902782264309,-2,-15,-1,1,1,1,0,0
1526902782264309,-5,10,1,-1,-1,0,-1,-3
1526902782272287,-8,-14,-6,-1,1,-1,-3,-6
1526902782272287,8,4,7,6,0,-1,0,1
1526902782287247,-1,-5,-5,-1,1,0,0,2
1526902782287247,-8,-16,-8,-5,-3,-2,-2,-2
1526902782294229,0,2,-1,2,1,0,1,1
1526902782294229,1,5,0,-2,-2,2,-1,3
1526902782310186,-4,-1,0,-1,-1,-1,-2,0
1526902782310186,5,-1,5,6,0,1,2,2
1526902782311184,2,4,-3,-5,-2,0,0,-3
1526902782311184,-7,-9,-5,-10,-1,0,-1,0
1526902782324148,7,14,4,7,1,0,-1,2
1526902782324148,8,1,2,4,2,-1,1,-2
1526902782332127,-7,-4,-4,-3,-2,-1,-2,-2
1526902782332127,-2,2,-3,-7,-4,0,-1,1
1526902782347087,0,-4,-1,1,2,1,-1,-1
1526902782347087,5,10,1,2,5,0,-1,2
1526902782354068,6,3,0,2,-2,-1,0,1
1526902782354068,0,4,-2,-1,-2,-1,-2,-1
1526902782370026,-1,-5,-3,-7,-4,-4,-1,1
1526902782370026,-2,-2,2,1,-1,0,0,-3
1526902782371023,-2,1,2,-2,1,-2,-1,0
1526902782371023,-5,1,-2,-1,-1,0,-1,-1
1526902782384986,2,2,-4,-1,-3,-2,-2,-1
1526902782384986,-3,-1,-1,-1,0,0,0,-4
1526902782391967,-5,-14,-3,-1,0,-1,0,-4
1526902782391967,-1,12,3,0,-1,-1,-1,0
1526902782406927,1,9,1,-1,-2,0,0,2
1526902782406927,-1,-4,0,1,0,0,-1,0
1526902782414905,3,4,-1,-1,0,0,-2,-2
1526902782414905,-11,-20,-5,1,0,-1,-2,-6
1526902782429866,12,1,3,-1,-2,-3,-3,0
1526902782429866,5,15,-3,-10,-7,-2,0,2
1526902782437844,-8,-4,-2,-5,-3,-2,-3,-5
1526902782437844,-1,-11,-2,15,6,-1,1,1
1526902782444826,-5,-6,-1,1,3,0,-1,-3
1526902782444826,9,15,4,3,-1,0,-1,1
1526902782451807,8,2,-1,-6,-5,-2,1,3
1526902782451807,0,-11,-3,-6,-5,-4,-2,0
1526902782466767,-2,0,-2,-1,1,-1,-1,-2
1526902782466767,-9,-13,-7,-2,1,-1,1,-2
1526902782474746,4,5,6,5,1,0,0,0
1526902782474746,-1,4,-2,-5,-3,-2,-2,2
1526902782489706,-6,-8,-5,4,2,2,0,-1
1526902782489706,-4,-5,2,-2,-1,-1,-1,-4
1526902782497684,4,3,1,0,-2,-1,-1,-1
1526902782497684,0,4,-2,1,-1,0,0,2
1526902782504666,-13,-16,1,-3,-2,-2,-1,0
1526902782504666,7,-3,-3,-1,-2,-2,-4,-5
1526902782511647,2,5,0,1,1,1,2,1
1526902782511647,11,16,4,-1,-1,-3,0,3
1526902782526607,-9,-6,-3,-10,-8,-3,-2,-1
1526902782526607,-3,-6,5,23,11,6,0,-3
1526902782534586,-6,-4,-1,-1,-1,-1,-1,-4
1526902782534586,0,-4,0,-2,0,0,0,1
1526902782549546,2,11,-2,-3,-4,-2,0,-1
1526902782549546,-5,-9,-3,-11,-6,-4,-1,-4
1526902782557524,0,-5,-2,3,3,0,1,2
1526902782557524,0,0,-4,0,-2,1,0,0
1526902782564506,0,-7,-2,-2,-1,-1,-1,1
1526902782564506,-4,3,-4,-7,-6,-3,-1,-3
1526902782572484,-5,3,-2,-3,-2,-3,-2,-2
1526902782572484,3,-1,2,3,3,0,-1,1
1526902782587444,3,-1,3,6,5,1,-4,-15
1526902782587444,-1,5,-1,-2,-1,0,0,2
1526902782594426,-2,-1,-2,-5,-3,1,0,-3
1526902782594426,0,1,2,-10,-5,-2,-3,-2
1526902782609386,-1,-22,-3,13,-8,0,2,0
1526902782609386,0,19,1,-3,8,1,1,4
1526902782617364,-9,-15,-7,5,1,-2,-2,-9
1526902782617364,7,9,4,3,6,1,-1,2
1526902782632324,-8,-5,-4,-10,-4,-2,1,4
1526902782632324,0,-7,-3,2,-6,-2,0,-1
1526902782633322,-5,-5,-1,3,-3,-2,-2,-1
1526902782633322,8,11,1,-10,-9,-3,0,4
1526902782647284,-5,-2,-1,5,5,2,1,-2
1526902782647284,-6,-9,-2,0,1,-3,-3,-7
1526902782654266,1,4,-1,-7,-2,0,0,-1
1526902782654266,-3,-6,-5,2,0,-2,-1,-3
1526902782669226,3,7,1,-2,3,-1,0,-20
1526902782669226,0,-4,-3,-8,-5,-1,-1,27
1526902782678202,-4,-5,1,1,1,1,-1,-2
1526902782678202,3,-4,-2,-2,-5,-1,0,2
1526902782693163,1,9,0,-2,0,-2,1,7
1526902782693163,2,3,4,3,0,5,0,-11
1526902782693163,-3,2,1,-1,0,-7,-1,-3
1526902782693163,-2,-4,-2,1,1,-1,0,2
1526902782707124,6,11,-1,-2,-2,-3,-2,5
1526902782707124,-9,-8,0,2,-2,0,-2,-9
1526902782714106,-1,0,-1,-1,-3,-3,2,1
1526902782714106,-2,-3,-2,0,5,5,4,0
1526902782729065,-4,-2,-4,-6,-4,-4,-5,0
1526902782729065,4,4,1,-1,-3,-5,-2,-6
1526902782738041,0,-3,-1,-1,-3,-7,3,-2
1526902782738041,-2,-5,-3,3,2,13,-12,-1
1526902782753001,-4,-4,-2,-7,-4,-2,-1,1
1526902782753001,-3,-9,0,-3,-2,2,-1,-3
1526902782753999,0,6,-1,-3,-3,2,-2,-2
1526902782753999,3,-3,-1,-1,2,-7,-1,1
1526902782766964,-2,-1,-3,2,1,2,-2,8
1526902782766964,-3,-2,-1,1,-1,1,-2,-9
1526902782774943,-2,-3,0,-3,-6,9,15,-2
1526902782774943,0,2,3,4,18,-5,-13,-17
1526902782789903,3,-1,-3,-5,-5,-10,4,19
1526902782789903,0,0,1,3,4,10,3,-2
1526902782797881,3,0,2,-1,-2,0,-2,-2
1526902782797881,-6,-7,-4,-1,-9,-7,10,2
1526902782812842,-5,-3,-4,-5,0,-3,-12,-9
1526902782812842,-2,-2,-2,-4,-4,-6,-2,1
1526902782813839,-6,-4,-2,1,2,2,-2,-2
1526902782813839,2,0,-1,-3,-7,-11,-1,0
1526902782826804,2,-1,-2,-16,-20,6,1,1
1526902782826804,-1,2,3,21,17,-1,24,2
1526902782834783,-2,-1,-7,2,7,4,-30,-6
1526902782834783,-3,-7,2,3,-3,-5,-1,2
1526902782849743,6,5,2,-10,-8,-5,2,4
1526902782849743,0,0,0,0,-32,21,-6,-12
1526902782857721,4,0,1,12,26,-12,20,14
1526902782857721,-5,-4,-2,3,1,1,0,0
1526902782872681,1,1,3,0,5,-5,-3,-5
1526902782872681,3,14,-1,-13,-19,-9,-6,2
1526902782873679,3,0,-1,-2,-6,3,-4,1
1526902782873679,-5,-4,1,-1,-5,5,-2,2
1526902782886644,-3,-8,2,7,0,3,8,-3
1526902782886644,7,11,-5,-6,8,-6,-6,0
1526902782894623,-6,-11,-6,-13,-7,4,0,-5
1526902782894623,4,6,3,-2,-3,-1,4,2
1526902782909583,-8,-5,-1,7,9,4,-5,-9
1526902782909583,-1,-12,-4,-4,7,-6,0,4
1526902782917561,-8,3,2,1,0,-5,-6,-10
1526902782917561,1,-4,-6,-15,-16,0,-1,6
1526902782932522,2,2,1,4,6,0,-2,-3
1526902782932522,-5,-2,2,-4,2,-3,-3,-5
1526902782933519,5,3,2,0,-5,-7,6,13
1526902782933519,-12,-6,-6,-2,2,8,-6,-17
1526902782947481,-1,0,-3,0,0,2,2,3
1526902782947481,-3,2,-2,-6,2,-2,2,-2
1526902782954463,1,-5,-2,-6,-10,-2,-3,-1
1526902782954463,3,6,4,11,3,-1,1,0
1526902782969423,-2,2,-1,2,6,-1,-1,4
1526902782969423,-1,-7,-1,1,0,-2,-1,-2
1526902782977401,-5,1,-1,-4,-3,-4,-4,-6
1526902782977401,1,2,2,7,6,6,9,3
1526902782992361,10,6,2,5,-4,-4,-18,-1
1526902782992361,-10,-9,-2,-2,3,-1,-1,-4
1526902782993359,1,0,0,-2,-2,4,-2,-4
1526902782993359,-9,-5,-1,-8,-1,-2,-1,-1
1526902783007321,3,2,2,9,2,-1,3,2
1526902783007321,13,11,1,2,3,-2,-2,-2
1526902783014303,1,-3,1,2,0,-1,-1,-1
1526902783014303,2,7,-5,-10,-5,-2,-2,0
1526902783029263,-5,-4,2,1,2,3,5,1
1526902783029263,-8,-7,-7,-5,-2,-3,-5,-5
1526902783037242,17,5,-3,-4,-5,1,3,0
1526902783037242,9,8,5,3,0,-3,-3,5
1526902783053199,-1,-1,2,7,4,3,3,0
1526902783053199,-10,-10,-5,-3,-2,-2,-2,-5
1526902783053199,-3,-3,-4,-2,0,-1,-4,-3
1526902783053199,3,-2,0,2,3,-1,-1,0
1526902783067161,-1,2,3,-1,-6,0,2,2
1526902783067161,-5,-7,0,1,5,0,1,-3
1526902783074143,-6,-1,-3,9,2,2,-1,-4
1526902783074143,2,1,1,1,-2,-1,1,2
1526902783089103,-5,-5,-4,-7,-4,4,-1,0
1526902783089103,6,9,3,1,-1,-1,-1,3
1526902783098079,-2,1,-2,-3,-1,-3,-1,-2
1526902783098079,-3,-5,-2,-1,0,-1,-1,2
1526902783113039,3,1,1,-1,-1,1,1,2
1526902783113039,-2,10,0,-3,-2,-3,-2,-6
1526902783113039,0,-4,0,2,1,3,0,3
1526902783113039,0,-7,-1,-2,-3,-1,-1,1
1526902783127002,-11,-7,-9,-3,-1,-4,-1,-4
1526902783127002,-4,1,1,0,0,2,-2,-3
1526902783134980,1,3,4,2,0,-1,0,0
1526902783134980,-1,10,-7,-3,-3,-4,-3,2
1526902783149940,-1,-3,7,-2,1,-1,1,-1
1526902783149940,-10,-19,-5,0,0,-2,-1,-2
1526902783157919,-2,-7,-1,-1,-2,2,0,-2
1526902783157919,-4,4,2,0,-2,-1,-1,0
1526902783172878,0,-5,-2,-4,-1,-2,-1,2
1526902783172878,2,-3,-2,-5,-2,-1,0,-1
1526902783173876,-3,5,-2,-3,-1,-2,-3,-4
1526902783173876,-10,-9,-1,-1,-2,0,-1,-2
1526902783186841,17,15,-1,-5,0,-4,1,4
1526902783186841,0,-1,5,2,1,-1,1,1
1526902783194820,-1,0,-2,4,2,1,1,-2
1526902783194820,-9,-5,0,0,0,1,-1,-3
1526902783209780,-8,-13,-2,-2,-1,-1,-1,-6
1526902783209780,11,8,-4,-1,-3,-1,-2,3
1526902783217759,-25,-14,0,-3,-1,0,-1,-3
1526902783217759,9,1,-1,1,0,-2,-1,4
1526902783232719,6,10,-5,0,-2,-1,0,0
1526902783232719,1,-9,5,0,-1,1,-2,-4
1526902783233716,-10,-4,-5,0,0,0,1,-1
1526902783233716,6,-14,0,-4,-3,-1,-3,4
1526902783246681,-2,-3,-4,2,2,-2,-4,-1
1526902783246681,-9,1,-2,0,-2,0,0,-3
1526902783254660,0,-2,1,-6,-2,-1,-2,0
1526902783254660,-2,-3,-1,13,5,0,1,0
1526902783269620,0,4,-1,6,1,-1,-1,-2
1526902783269620,-3,-1,-1,2,-3,-1,-1,-4
1526902783277599,1,-1,0,-2,4,-2,-1,0
1526902783277599,5,9,-1,-5,-5,-2,-1,2
1526902783292559,-2,0,1,-4,-3,0,1,0
1526902783292559,-5,-5,-2,0,-2,-1,-2,-3
1526902783293556,5,8,-4,-5,-5,-2,0,-1
1526902783293556,-6,-12,-5,-12,-4,0,-2,-1
1526902783307519,10,7,-1,2,1,1,1,1
1526902783307519,-16,-13,-3,11,6,-1,-1,-10
1526902783314500,14,7,5,4,2,-1,1,2
1526902783314500,4,12,5,1,2,-2,-1,2
1526902783329460,-14,-27,-5,-17,-17,-5,0,-2
1526902783329460,3,7,-6,-26,-7,-2,-1,0
1526902783337439,1,4,0,27,17,3,0,-3
1526902783337439,-5,-7,3,14,5,0,-1,-2
1526902783352398,-4,0,1,1,0,-1,-1,-3
1526902783352398,3,0,-2,-2,-5,-3,2,-1
1526902783353396,-3,-2,-1,-10,-12,-2,0,1
1526902783353396,6,4,-4,-10,1,-1,-1,0
1526902783367358,-3,9,2,-1,-1,0,-1,-2
1526902783367358,-2,-8,-3,4,1,1,0,-2
1526902783374340,-2,0,-5,-11,-5,-2,-3,0
1526902783374340,2,0,-3,5,1,-2,-2,0
1526902783389300,-5,1,0,-1,4,2,-1,-1
1526902783389300,2,-3,0,1,-3,-2,0,-2
1526902783397279,4,6,2,-8,-5,-2,-2,1
1526902783397279,3,14,1,2,5,1,0,0
1526902783412239,-1,-9,-4,7,3,-2,-1,-3
1526902783412239,-7,-3,2,1,0,1,-2,-3
1526902783420217,6,-5,-3,-3,-5,-1,0,2
1526902783420217,-7,-6,-2,-9,-5,0,1,1
1526902783427199,6,7,2,3,6,1,-1,-1
1526902783427199,6,3,-5,1,-1,-3,1,-3
1526902783434180,-6,0,-1,-1,-2,0,-2,-3
1526902783434180,-1,-5,1,3,0,-1,1,-2
1526902783449140,-7,-7,1,1,-3,-3,0,-2
1526902783449140,12,17,2,-14,-15,-3,-1,0
1526902783458116,-2,-3,-2,16,16,4,0,1
1526902783458116,-2,-3,-1,-1,0,-1,-2,1
1526902783472078,-4,3,-1,4,2,0,1,-3
1526902783472078,-4,3,-3,-4,0,-2,-1,-4
1526902783480057,-2,-1,-1,-12,-13,-2,-1,-1
1526902783480057,2,1,-2,7,3,1,0,3
1526902783487038,-5,-1,-1,-2,-1,-1,-2,-3
1526902783487038,-4,-13,-1,-1,3,0,-1,-2
1526902783495017,9,4,-1,-4,-3,-2,-2,2
1526902783495017,-2,-9,-1,-4,-5,-2,0,0
1526902783509977,0,2,-1,-3,-1,-2,-2,-2
1526902783509977,-3,-4,1,8,7,3,0,0
1526902783517956,-7,-1,-1,0,0,-5,-1,-3
1526902783517956,2,-4,-2,-3,-4,-2,0,1
1526902783531919,9,3,1,-5,-2,-2,0,3
1526902783531919,-3,6,2,4,-1,-1,-1,-1
1526902783539897,-3,-8,-2,-2,-1,0,0,-4
1526902783539897,-3,1,-1,-1,0,0,0,1
1526902783554857,-4,1,-3,-4,-3,0,-1,-2
1526902783554857,-2,-2,-1,1,2,0,-2,-2
1526902783555855,0,-3,0,-3,-1,4,2,-1
1526902783555855,-1,-4,-2,-2,-4,-9,-4,2
1526902783569817,-3,-3,-2,-1,-2,1,-3,-1
1526902783569817,-1,3,4,3,3,1,0,-4
1526902783576799,0,-2,-1,-2,-1,-2,0,-1
1526902783576799,3,3,4,1,1,1,0,-3
1526902783591758,3,0,-2,-1,-2,0,1,-1
1526902783591758,-1,-7,-4,-7,-2,-3,0,1
1526902783599737,6,12,5,8,4,3,0,1
1526902783599737,-11,-19,-1,0,0,2,2,1
1526902783615694,23,30,2,0,-3,-4,-4,-1
1526902783615694,-13,-8,-6,-4,-1,-2,-1,-7
1526902783615694,9,7,5,-1,-2,0,2,6
1526902783615694,-8,-29,-2,0,-1,0,-1,-3
1526902783629657,5,21,1,-2,0,-1,1,5
1526902783629657,3,-9,-1,-1,-1,-1,0,-1
1526902783636639,5,18,0,-3,-3,-3,-1,0
1526902783636639,2,2,1,-1,-2,0,-2,2
1526902783651599,-13,-17,-9,-1,0,0,-1,-4
1526902783651599,-3,1,2,3,-5,-1,-1,-4
1526902783660575,-2,-8,1,1,3,0,-1,-3
1526902783660575,4,9,-2,-5,-3,-3,-1,0
1526902783675534,-5,-9,-1,1,0,0,0,-1
1526902783675534,2,7,-2,0,1,1,0,0
1526902783675534,-5,-10,-1,4,-1,-2,-2,-3
1526902783675534,3,11,1,1,0,0,0,0
1526902783689497,-4,-5,0,-1,0,0,1,1
1526902783689497,5,4,0,-1,-7,-1,0,1
1526902783697476,-8,-8,-3,0,-8,-2,-2,-2
1526902783697476,2,6,-1,15,18,4,-1,6
1526902783712436,-8,-7,0,-1,2,0,0,-4
1526902783712436,-2,2,-3,-4,-1,3,-1,-1
1526902783720414,-2,-2,1,-2,-8,2,1,-1
1526902783720414,5,8,4,-2,2,-9,-5,1
1526902783735374,-12,-18,2,3,1,1,0,-7
1526902783735374,-5,1,-3,0,1,1,-1,-3
1526902783736372,10,17,3,-1,-3,-5,-2,3
1526902783736372,5,1,1,-7,-9,3,2,2
1526902783749337,2,9,7,6,5,1,-1,-4
1526902783749337,-16,-16,-6,-3,2,-2,-2,-6
1526902783757316,-7,-15,-7,-1,0,-1,-2,-2
1526902783757316,3,3,-2,-4,-3,-3,-1,1
1526902783772276,1,2,1,-1,0,-3,-2,0
1526902783772276,2,2,-3,1,-1,0,-1,-2
1526902783780254,-5,-4,-1,0,5,0,-1,0
1526902783780254,2,9,0,-1,-2,0,-3,-5
1526902783795214,-1,-6,-6,-6,-4,-2,0,-2
1526902783795214,-1,-1,-1,2,0,-1,0,1
1526902783796212,3,-2,-2,-5,-3,1,-1,1
1526902783796212,-3,-3,4,5,-4,-3,0,-3
1526902783809177,-11,-12,-8,-3,15,3,1,-4
1526902783809177,-4,-5,-2,0,0,-5,-2,-6
1526902783817156,11,13,5,0,3,3,2,2
1526902783817156,0,1,-2,-10,-11,-13,6,3
1526902783832116,-4,-5,0,-1,-5,37,10,1
1526902783832116,-1,-3,1,7,-2,-16,2,-2
1526902783840094,-15,-17,-10,-6,-7,5,-26,-6
1526902783840094,1,-1,-1,-1,2,-6,10,5
1526902783855054,2,2,0,-2,10,-7,8,4
1526902783855054,4,6,3,-4,-1,13,-6,-5
1526902783856052,0,-3,0,3,0,0,5,-2
1526902783856052,0,-6,-2,-3,-4,-1,-5,-2
1526902783870015,-11,0,1,2,-7,-13,-12,-1
1526902783870015,22,11,2,1,1,3,3,3
1526902783876996,-4,-6,-3,-4,1,-9,1,2
1526902783876996,-3,-2,-2,1,4,6,-3,-3
1526902783891956,-1,-8,-8,-3,-5,-6,-1,-1
1526902783891956,0,18,3,2,0,0,-1,-2
1526902783899934,-3,-2,-1,-2,1,1,6,1
1526902783899934,-5,0,1,0,0,3,-7,-2
1526902783914894,-4,-8,-4,-2,-7,-5,-3,-4
1526902783914894,-3,-6,0,3,1,-1,0,-1
1526902783915892,1,5,-9,-15,-5,-6,-4,3
1526902783915892,-1,-1,3,-1,-2,2,2,4
1526902783929854,2,17,2,14,4,-4,-2,-1
1526902783929854,-4,-9,0,-5,-1,-3,-2,-4
1526902783936836,-7,-13,-5,2,4,7,4,0
1526902783936836,11,13,3,-7,-6,-3,-3,6
