timestamp,emg1,emg2,emg3,emg4,emg5,emg6,emg7,emg8
1526902838693398,35,7,0,1,0,1,0,2
1526902838693398,5,12,3,-1,0,-3,8,19
1526902838697390,-38,-19,-4,-3,-1,-5,-14,-2
1526902838697390,35,3,-5,-2,-1,5,10,-1
1526902838700379,-31,3,0,-2,-2,-5,2,1
1526902838700379,35,1,9,3,2,3,4,12
1526902838700379,7,24,-1,-1,-2,1,7,6
1526902838700379,-18,-7,0,-2,-1,-7,-20,-26
1526902838704368,-23,-20,-4,-4,-1,15,17,-19
1526902838704368,18,5,-1,2,1,6,3,40
1526902838712347,-44,-3,0,-1,-3,-7,-4,-18
1526902838712347,-5,-4,-4,-2,-2,-6,-4,-14
1526902838729302,7,9,1,-1,-1,3,-1,3
1526902838729302,-8,9,5,2,-1,-16,-8,-2
1526902838733291,27,-15,-4,-1,1,18,6,-5
1526902838733291,-31,0,-5,-2,-1,0,4,-9
1526902838748251,20,15,1,0,-3,-7,-8,3
1526902838748251,-25,-7,-4,-1,0,2,-2,-9
1526902838764212,-1,-7,-4,-2,-1,-9,0,2
1526902838764212,4,3,4,3,0,-1,-2,-2
1526902838766203,6,8,1,0,1,-1,-1,2
1526902838766203,5,-3,-4,-4,-6,-4,-3,3
1526902838812081,-11,3,1,2,1,2,5,-16
1526902838812081,19,8,5,1,0,4,4,28
1526902838813078,12,-3,0,1,0,3,-8,33
1526902838813078,3,-1,-6,-3,-3,6,-4,-19
1526902838816070,-1,-16,-3,-2,0,2,4,-7
1526902838816070,-12,20,-1,-1,-1,0,-4,-7
1526902838816070,3,-4,1,1,1,1,-1,-8
1526902838816070,0,-2,0,-2,-1,-2,2,-6
1526902838823051,0,-6,0,0,-1,-7,-4,8
1526902838823051,3,0,1,0,1,2,-8,2
1526902838830032,6,22,0,0,-1,-5,13,1
1526902838830032,3,-3,-1,0,-2,5,-5,-12
1526902838838011,2,3,1,-1,-1,0,0,-7
1526902838838011,6,-11,-2,-1,0,-3,8,17
1526902838852971,1,-12,-5,-5,-6,-15,-29,-21
1526902838852971,-23,5,4,6,4,-3,8,3
1526902838860950,-17,17,-4,-4,-4,-6,-11,-7
1526902838860950,25,-11,-2,0,0,2,-12,15
1526902838883888,0,2,3,0,0,2,10,0
1526902838883888,-19,-13,-4,-2,-2,-7,17,-14
1526902838884886,23,-12,-6,0,1,-1,-5,7
1526902838884886,-19,8,3,1,-1,-9,1,-10
1526902838897851,-4,-2,0,1,2,4,-7,14
1526902838897851,7,-3,0,-3,-18,7,-14,-7
1526902838898848,1,19,-1,0,10,4,35,1
1526902838898848,-4,-22,-9,-4,-2,-9,-11,-1
1526902838921787,-6,-12,-4,-3,1,2,20,3
1526902838921787,18,15,1,2,2,2,-9,2
1526902838921787,-17,-6,4,0,-10,0,-15,-2
1526902838921787,-13,-5,-1,-6,-13,-19,-10,-21
1526902838943728,2,13,7,5,-2,27,17,11
1526902838943728,7,-11,1,5,26,0,5,-6
1526902838944726,-22,17,-3,-3,-6,-21,-10,-9
1526902838944726,21,14,13,6,8,2,13,9
1526902838958688,-36,-8,-4,-5,-11,-1,9,-16
1526902838958688,34,0,-1,-2,-1,1,7,-2
1526902838958688,14,-3,6,3,6,4,-7,3
1526902838958688,-17,11,-6,-4,-2,4,2,-5
1526902838981627,2,5,0,-2,-2,-13,-17,-10
1526902838981627,-20,-17,-6,-2,-2,2,-3,-7
1526902838982625,9,-9,-5,-7,-1,-2,-2,2
1526902838982625,-12,5,1,1,-5,-8,-32,13
1526902839003568,10,-4,2,3,4,-6,-4,-8
1526902839003568,-14,9,1,1,6,5,44,-23
1526902839004565,34,-13,-1,3,2,28,-19,59
1526902839004565,-46,8,-3,-5,-8,-21,10,-45
1526902839018528,23,5,3,3,7,6,36,45
1526902839018528,-12,-15,-10,-9,-4,-10,-16,-7
1526902839019526,12,-4,6,5,1,2,4,-11
1526902839019526,15,29,2,1,2,-8,-3,12
1526902839040470,-14,-13,-7,-4,-11,7,-5,-13
1526902839040470,1,3,0,0,11,35,29,10
1526902839041467,8,-12,-7,-3,-13,-21,36,-7
1526902839041467,14,-18,3,3,1,8,13,15
1526902839064405,-62,-5,-13,-8,-7,-12,-23,-29
1526902839064405,7,-3,0,1,-13,-32,-14,1
1526902839064405,1,12,-2,-4,6,24,-2,-8
1526902839064405,1,-17,1,1,4,-6,-1,11
1526902839078368,5,1,-1,1,5,12,10,6
1526902839078368,-2,-15,-6,-3,-4,-8,-39,-18
1526902839079366,-21,9,-1,-3,-2,-2,4,-3
1526902839079366,3,-10,1,0,-1,21,16,-2
1526902839100309,34,9,2,1,6,12,-1,13
1526902839100309,-31,7,1,0,-1,29,32,7
1526902839101307,-18,-13,-2,-2,-6,-50,-39,-12
1526902839101307,2,-14,-3,-1,1,10,3,-5
1526902839124245,-18,1,-1,-2,-1,-21,-17,-26
1526902839124245,21,5,1,0,-4,12,26,21
1526902839125243,15,8,3,3,0,7,-2,-11
1526902839125243,-17,-13,-6,-3,0,7,1,14
1526902839138208,18,1,7,3,3,-5,-10,3
1526902839138208,-31,12,-1,0,-5,-26,-16,-6
1526902839139206,-4,-1,0,0,1,17,-2,-8
1526902839139206,-8,-12,-8,-3,2,8,4,-4
1526902839161147,0,1,1,1,-1,-24,2,-9
1526902839161147,14,7,-1,-3,-3,9,-18,21
1526902839161147,-6,-7,-2,-4,0,10,-4,-10
1526902839161147,22,10,2,2,0,3,11,-3
1526902839184085,-29,-22,-2,-2,2,5,-3,-5
1526902839184085,4,22,2,0,-2,-11,-14,-7
1526902839185083,-4,1,-6,0,0,5,6,26
1526902839185083,-13,-3,0,-2,-2,-6,3,-10
1526902839198048,10,-7,-5,-3,-4,0,-13,-14
1526902839198048,9,9,4,-1,0,-9,-24,5
1526902839206027,-39,-15,-1,0,0,1,4,-18
1526902839206027,-4,3,-6,-4,-3,10,-11,12
1526902839220987,-12,-5,-3,-1,-3,-17,-32,-20
1526902839220987,5,-12,-2,0,-4,-13,9,5
1526902839221984,38,28,1,-1,-2,1,2,5
1526902839221984,-10,-3,-1,-1,0,-5,-17,-3
1526902839243925,14,8,-4,-3,-1,7,6,-6
1526902839243925,2,-6,-1,-3,0,0,-4,-1
1526902839244923,-20,3,2,0,-1,-10,-3,-10
1526902839244923,8,-12,-4,-3,3,9,9,4
1526902839257888,3,4,0,0,-4,-27,-10,-7
1526902839257888,11,-4,1,1,6,58,37,24
1526902839265867,-16,0,3,3,0,-21,-26,-5
1526902839265867,24,-2,-4,-2,-3,-4,1,-2
1526902839280827,-16,-3,-4,-1,-1,3,-5,7
1526902839280827,-15,-5,0,0,-4,-30,-14,-25
1526902839281824,-9,-1,-4,-2,-3,7,-7,8
1526902839281824,33,-3,-1,-3,-5,9,29,-3
1526902839303765,17,5,1,1,1,13,8,23
1526902839303765,0,2,-5,-3,-2,-7,-14,-15
1526902839304763,5,-9,-3,-4,-1,0,8,7
1526902839304763,-7,14,3,1,-2,-18,-15,-3
1526902839317728,19,-1,4,2,2,8,15,-4
1526902839317728,1,9,-3,-3,-5,-9,-10,-2
1526902839325707,-30,-9,2,2,3,4,8,-22
1526902839325707,39,7,2,0,-3,1,-4,45
1526902839340667,-35,-5,0,0,-1,-1,-9,-21
1526902839340667,23,-18,1,-2,-1,-3,-8,6
1526902839341664,-21,0,-6,-4,-1,-4,3,-1
1526902839341664,-2,19,5,1,3,5,3,0
1526902839363605,0,-11,-4,-1,0,1,1,-8
1526902839363605,19,13,1,3,-2,-12,-2,11
1526902839364603,29,-2,1,-1,0,6,5,5
1526902839364603,-40,-16,-4,-1,0,-6,-13,-11
1526902839377568,-11,4,-4,-5,-2,9,28,-3
1526902839377568,-4,-13,-4,1,1,-7,-36,5
1526902839385546,19,-7,3,4,0,0,33,7
1526902839385546,-5,7,-3,0,2,-9,-20,-17
1526902839400506,-38,-18,-7,-4,-1,2,-1,-5
1526902839400506,-34,-10,-2,-1,0,3,6,-9
1526902839401504,38,15,2,-1,-2,-5,-18,12
1526902839401504,6,-9,-1,0,-3,-9,-1,-7
1526902839424442,13,4,2,2,2,11,-17,-5
1526902839424442,8,-1,0,-2,-7,-22,4,6
1526902839424442,-23,-3,-3,-2,-1,-4,-19,6
1526902839424442,23,11,2,-2,0,1,4,-1
1526902839437408,8,24,6,0,-2,-9,-7,3
1526902839437408,-17,-25,-9,-1,4,13,-4,-19
1526902839445387,7,-5,-5,-3,-1,-2,5,3
1526902839445387,2,2,3,-1,-2,-4,1,-1
1526902839460347,8,-8,0,-1,-1,-3,-12,4
1526902839460347,4,-2,-3,-4,-3,9,22,-7
1526902839461344,14,2,-2,0,-1,-3,1,-5
1526902839461344,-17,18,3,-1,0,6,6,13
1526902839484283,9,7,0,1,1,-2,10,1
1526902839484283,-26,-11,-4,-3,-3,-7,-6,-12
1526902839484283,17,-15,-1,-1,0,-3,2,0
1526902839484283,-27,-3,-2,0,1,6,-17,-15
1526902839497248,25,2,-1,0,-2,-11,5,14
1526902839497248,-26,4,4,1,-1,5,0,-2
1526902839506224,-9,8,-2,-2,0,12,-1,-5
1526902839506224,6,-15,-1,0,-2,-1,2,11
1526902839521184,7,11,1,1,-2,-15,1,-7
1526902839521184,-2,5,1,1,3,5,-4,7
1526902839521184,-11,-15,-3,-3,-3,-2,-5,-3
1526902839521184,17,10,2,0,1,4,1,-12
1526902839544123,-26,-22,-4,-4,0,2,-31,-2
1526902839544123,-3,11,4,2,0,-7,6,-9
1526902839545120,30,16,3,-1,-2,5,-10,17
1526902839545120,-23,-21,-8,-4,-2,-14,-3,-17
1526902839558085,6,-3,-2,-2,-2,6,-13,6
1526902839558085,1,9,1,-1,-2,-10,-6,-2
1526902839566064,-45,-15,-8,-3,-1,-3,-2,-14
1526902839566064,-7,-9,-5,-1,0,9,17,11
1526902839581024,-12,-5,-4,-2,-3,-12,-10,-13
1526902839581024,16,7,0,0,1,4,5,2
1526902839582022,-14,-3,1,2,-1,-4,5,0
1526902839582022,15,-4,-3,-1,-2,-1,1,-4
1526902839603962,-9,-3,1,3,0,8,13,-5
1526902839603962,10,2,-1,-1,-2,-3,0,8
1526902839604960,-4,-4,0,-1,0,-5,-4,-7
1526902839604960,7,-4,1,1,0,-2,-11,5
1526902839626902,18,7,-1,0,2,5,17,4
1526902839626902,-6,-9,1,2,1,0,-4,2
1526902839626902,6,8,1,-5,-6,-17,-12,-9
1526902839626902,-15,-11,-3,-1,0,12,-22,-5
1526902839640864,6,-3,-4,-4,-8,-6,51,10
1526902839640864,-1,-2,-1,-3,6,5,32,6
1526902839641861,-1,12,5,5,2,5,-14,-9
1526902839641861,39,8,3,-1,-24,-22,-6,-1
1526902839663813,-35,-12,-5,1,43,16,-6,6
1526902839663813,0,5,1,0,1,37,18,-15
1526902839664809,4,2,-1,-1,-1,-19,7,20
1526902839664809,-8,2,-1,0,0,5,-7,-9
1526902839686741,16,0,2,-1,-12,-5,1,-1
1526902839686741,-3,-4,-4,-4,-5,-14,-1,0
1526902839687739,-8,-6,-1,0,4,3,-1,-11
1526902839687739,-6,-7,-4,-1,2,-3,8,3
1526902839700705,8,15,0,-2,-9,-1,-4,1
1526902839700705,-10,-11,-5,-1,2,-13,-15,-8
1526902839701702,-6,-13,-7,-5,-9,1,-5,2
1526902839701702,2,15,5,5,9,8,20,3
1526902839723643,36,3,2,-2,-5,-12,1,-4
1526902839723643,-22,-5,-1,4,0,0,-20,-7
1526902839724641,3,-2,-1,-4,-5,-5,3,-6
1526902839724641,-16,-19,-7,-4,3,1,4,-4
1526902839746581,-7,9,5,4,7,34,-11,12
1526902839746581,33,11,2,2,-5,-21,-1,-7
1526902839747579,-44,-7,0,2,4,5,2,-1
1526902839747579,-11,1,-3,-4,1,-2,1,-8
1526902839760544,-9,-4,-1,-4,-11,-8,-3,-26
1526902839760544,8,3,1,1,2,15,16,29
1526902839761541,28,-2,4,5,4,-8,-46,3
1526902839761541,15,-2,-3,-3,1,-6,-5,1
1526902839782485,-4,19,-7,-4,-5,-6,1,-4
1526902839782485,3,-3,7,0,-3,-5,-22,-4
1526902839791461,-17,-11,-9,-4,-10,-3,20,5
1526902839791461,29,8,3,5,16,10,0,1
1526902839806421,13,-2,0,3,-3,-9,-8,10
1526902839806421,1,12,-5,-5,-2,-1,-2,5
1526902839808416,7,1,-4,-3,-15,-1,3,-9
1526902839808416,-13,-16,-9,-7,-1,-19,-13,6
1526902839829360,-2,-12,7,8,7,21,12,-5
1526902839829360,-6,28,8,3,-1,-5,1,0
1526902839830357,9,0,0,0,2,2,10,-2
1526902839830357,-15,-3,0,-2,-6,-1,1,-10
1526902839842325,-25,-15,-7,-3,-3,-12,-13,-9
1526902839842325,4,2,-2,-5,-2,-1,-4,3
1526902839851301,12,3,1,1,5,6,7,-8
1526902839851301,8,-9,0,-1,-1,-3,3,8
1526902839866261,-18,4,-7,-7,-6,3,10,0
1526902839866261,3,-9,3,3,1,0,-7,1
1526902839868256,45,17,4,1,7,10,13,14
1526902839868256,-49,-5,-3,-3,-6,-3,-6,-8
1526902839889200,9,0,2,1,0,-1,2,2
1526902839889200,21,-4,-5,-5,-3,-3,0,-7
1526902839890197,-30,-8,-3,-3,0,-1,-2,-5
1526902839890197,-32,2,4,3,-4,0,-1,4
1526902839903162,7,10,-1,-2,-4,-7,-6,-4
1526902839903162,-17,9,-8,-4,-2,0,7,4
1526902839912139,8,-12,5,1,4,-1,-10,7
1526902839912139,-13,-5,-6,-2,-5,-3,6,-17
1526902839926101,11,4,2,-1,-1,0,3,8
1526902839926101,-10,-7,-4,0,-1,-7,-6,-6
1526902839928096,12,14,1,-1,0,8,8,9
1526902839928096,-5,-1,3,4,0,-2,-3,-12
1526902839949040,1,-12,-3,-2,-3,2,-5,-3
1526902839949040,5,-2,-9,-4,0,-2,-6,5
1526902839951034,-26,-2,-2,-2,-2,3,10,-1
1526902839951034,7,-14,-2,1,-1,-10,-40,-6
1526902839963002,-24,7,4,2,-2,-10,-1,-2
1526902839963002,19,-5,1,-1,-1,9,-1,2
1526902839971979,-13,5,-4,-3,-1,-12,-8,-5
1526902839971979,11,-2,3,2,0,4,18,9
1526902839986938,6,5,-2,-1,0,23,6,11
1526902839986938,-14,-13,-2,-2,-5,-16,-5,-27
1526902839987936,-16,8,6,4,2,6,11,11
1526902839987936,17,17,-7,-8,-1,1,8,1
1526902840008879,6,-9,4,1,-3,-11,-11,-3
1526902840008879,-7,-11,-6,-3,-2,5,6,-8
1526902840010875,20,-15,2,4,2,2,7,5
1526902840010875,-7,12,-1,1,-1,-4,-4,-13
1526902840022842,5,-5,-3,-4,-1,-3,-2,-3
1526902840022842,9,-6,1,-1,0,-2,-10,6
1526902840031818,-8,-12,-18,-8,-3,-1,-5,-4
1526902840031818,11,12,14,5,0,4,13,17
1526902840045781,12,-1,-2,1,-1,1,8,-8
1526902840045781,2,-1,4,3,0,-4,1,2
1526902840052762,-5,-2,-4,-2,-2,11,-8,-4
1526902840052762,21,-7,-2,1,3,3,3,-2
1526902840068720,9,2,1,0,-3,-7,-3,3
1526902840068720,13,6,-1,2,-2,0,1,1
1526902840070715,6,7,2,-3,1,2,10,7
1526902840070715,-18,-8,-5,-6,-4,-6,-11,-1
1526902840091658,-5,-2,0,-1,2,0,-2,-3
1526902840091658,-39,-20,-6,-2,0,-3,-1,9
1526902840092656,14,12,2,2,0,2,15,-6
1526902840092656,14,4,4,2,-1,-2,-14,-1
1526902840105621,-4,-8,-9,-5,0,2,3,2
1526902840105621,4,14,4,-1,-1,-3,-2,-4
1526902840112602,-31,-15,-1,-1,-3,0,-1,-3
1526902840112602,7,6,0,0,1,0,6,6
1526902840128560,-9,-3,-3,-3,-4,-9,-11,-3
1526902840128560,7,0,0,-1,0,10,-8,1
1526902840130555,-6,-20,-4,0,-3,-19,9,-6
1526902840130555,4,10,-2,-2,1,13,19,1
1526902840151498,5,6,0,1,2,-3,-5,-3
1526902840151498,-2,-9,2,-4,-1,1,1,-1
1526902840153493,14,14,2,0,2,-8,-21,-1
1526902840153493,-32,-16,-5,2,0,-4,0,-5
1526902840165461,46,12,-1,-3,-1,-2,-3,7
1526902840165461,-5,-10,-6,-5,-4,-10,-6,-4
1526902840172442,3,9,6,1,0,2,-1,0
1526902840172442,7,10,4,-2,-1,-2,4,2
1526902840189397,-22,-15,-4,-2,0,3,-7,-2
1526902840189397,15,3,-5,2,0,0,-1,-2
1526902840190395,19,7,-2,-1,-1,5,-4,5
1526902840190395,-19,-8,0,-2,-3,-1,1,-1
1526902840211338,-4,8,2,-3,-10,-13,-5,-9
1526902840211338,-6,-13,-4,1,5,-12,16,2
1526902840213333,-2,4,3,6,1,7,-4,-1
1526902840213333,17,5,1,0,1,5,2,-2
1526902840225301,-28,0,2,4,2,-1,16,10
1526902840225301,9,6,0,-5,-5,4,-11,0
1526902840232282,-13,-16,-8,-4,-3,1,-1,0
1526902840232282,-3,-1,-5,-4,-4,-6,-5,-4
1526902840249237,-1,-14,3,1,0,-1,1,-9
1526902840249237,-7,17,6,5,2,3,17,-24
1526902840250234,3,1,-3,-3,0,-4,-26,-2
1526902840250234,4,0,0,1,0,1,-8,-5
1526902840271178,-21,-3,-2,-1,0,0,-1,-1
1526902840271178,-33,-12,2,1,0,3,12,-3
1526902840273173,-1,-12,-6,-6,-6,-8,-2,-7
1526902840273173,40,12,0,0,0,1,0,2
1526902840286138,-72,-25,-7,-3,2,1,-3,-17
1526902840286138,54,21,5,5,0,2,-8,-2
1526902840293119,-42,2,7,2,-1,-3,7,-6
1526902840293119,-10,-13,-4,0,-1,0,-6,-1
1526902840309077,20,3,0,1,1,3,-1,-5
1526902840309077,7,-5,0,-2,-2,1,-5,2
1526902840311072,11,2,1,2,0,-20,-4,13
1526902840311072,-34,-3,-3,0,2,13,-3,-15
1526902840331018,16,2,-4,-3,1,18,9,12
1526902840331018,-13,-1,-1,3,-3,-7,-10,9
1526902840333013,24,9,-1,2,2,-10,-3,3
1526902840333013,-14,-9,1,-3,-6,-8,6,-7
1526902840345978,17,0,-2,-4,1,21,-10,3
1526902840345978,-4,-7,-4,-4,-5,-28,-9,4
1526902840352959,12,18,8,3,2,5,-4,-1
1526902840352959,2,-3,-2,0,-1,-8,9,3
1526902840368917,11,-9,-1,1,-2,3,19,-4
1526902840368917,11,3,1,-1,3,9,-1,18
1526902840370911,-12,-1,-6,-6,-4,2,-3,-21
1526902840370911,7,-2,-1,-1,-2,1,-1,-4
1526902840391855,13,-1,1,2,0,4,6,26
1526902840391855,-7,14,0,-4,-2,-8,-4,-2
1526902840392853,12,-9,-5,-2,-2,0,5,9
1526902840392853,-9,13,2,-1,0,0,-6,3
1526902840404820,4,-2,-2,0,-5,-11,-19,-23
1526902840404820,-14,-5,1,0,-1,-2,32,11
1526902840413797,-14,-8,-4,-3,-2,4,1,-18
1526902840413797,16,-1,-2,1,1,10,-9,22
1526902840428756,16,7,-3,-2,-9,2,2,-1
1526902840428756,4,3,-1,-3,7,-4,-37,-2
1526902840430752,-2,4,2,-1,-4,-8,10,-3
1526902840430752,-4,-2,1,-1,-3,-9,8,-5
1526902840451695,-13,-9,-4,-5,-14,-25,-21,-10
1526902840451695,-13,-4,-5,-1,2,34,2,4
1526902840452693,12,3,8,7,4,2,2,2
1526902840452693,12,-4,-4,-2,-2,3,10,-4
1526902840464661,-29,1,-2,-3,-21,-24,-32,2
1526902840464661,20,0,-3,3,33,36,-2,4
1526902840473637,8,-10,-5,-3,-8,-30,-7,11
1526902840473637,-8,5,3,3,3,2,-6,-2
1526902840488597,-5,-3,-6,-2,0,-4,8,-3
1526902840488597,-2,-11,-2,-5,-15,-15,-23,-8
1526902840490591,2,0,-5,-6,-2,15,11,6
1526902840490591,-22,-7,2,5,7,-7,-35,-25
1526902840511535,39,10,5,6,6,9,13,10
1526902840511535,-5,-2,-2,0,-7,-19,-8,3
1526902840513530,1,7,1,1,4,13,13,14
1526902840513530,1,3,-6,-7,-13,-14,-7,-20
1526902840525498,-13,-1,0,-1,6,9,7,-2
1526902840525498,-16,-6,-3,-3,-5,14,40,-4
1526902840534474,21,-9,1,1,5,1,-15,-4
1526902840534474,4,10,-1,-5,-1,8,8,27
1526902840549434,14,5,0,2,9,-2,5,-5
1526902840549434,1,4,6,2,-11,-12,5,-3
1526902840550432,-6,-5,-1,-1,-11,1,-3,-6
1526902840550432,-18,-14,-7,-3,-14,-4,5,-7
1526902840571375,3,-1,-2,-4,28,6,-2,19
1526902840571375,-4,4,4,5,-7,-8,-9,-8
1526902840573370,-9,0,0,-2,5,6,-5,-1
1526902840573370,2,-4,-2,-1,-14,4,15,-2
1526902840585338,3,0,-1,0,6,-3,-4,3
1526902840585338,14,4,-2,-2,-1,-2,1,-1
1526902840594314,-34,-3,-4,-2,0,8,-6,-7
1526902840594314,0,-2,6,-1,0,-15,0,-4
1526902840609274,-4,-3,2,2,-2,9,11,-10
1526902840609274,12,-5,-1,-2,4,5,-2,-2
1526902840610271,23,8,-3,-8,-7,-6,9,14
1526902840610271,-8,-8,-10,-8,-3,-2,2,-3
1526902840631215,-17,6,6,4,-14,-8,0,-6
1526902840631215,-4,-8,-2,2,18,12,13,-2
1526902840633210,13,21,8,7,1,-4,-8,20
1526902840633210,-17,-6,1,4,10,5,0,-2
1526902840645178,4,-4,-2,-3,-8,-12,-5,-7
1526902840645178,-30,-3,-4,-4,-13,-17,-4,-3
1526902840654154,16,4,5,3,6,35,17,7
1526902840654154,15,11,4,6,12,-3,-6,8
1526902840669114,-47,0,-1,0,-5,-13,-1,-9
1526902840669114,-15,-2,-3,-6,-8,-6,-20,-7
1526902840671109,33,-17,-8,1,7,6,16,12
1526902840671109,-5,7,-2,-1,-1,-6,12,0
1526902840691055,33,14,0,-5,-1,5,-2,-1
1526902840691055,-16,-10,-6,-6,-6,-8,-9,-7
1526902840693050,-25,3,1,2,-3,-6,-3,-18
1526902840693050,27,-10,-3,1,-3,7,-1,0
1526902840705018,2,-1,-3,-2,5,7,13,-4
1526902840705018,14,11,4,6,3,2,11,13
1526902840713994,-3,-14,-7,-5,-5,-8,-11,-10
1526902840713994,-5,4,2,-2,1,0,-7,-1
1526902840728954,-1,-8,-3,-2,-5,-2,-2,0
1526902840728954,-1,0,0,-1,-8,1,-6,5
1526902840730949,5,8,4,2,15,1,2,-1
1526902840730949,9,-5,-2,-4,-1,0,-7,3
1526902840751892,-15,-2,-4,-5,-2,-2,-4,-5
1526902840751892,28,0,1,-2,-5,-1,1,8
1526902840752890,-11,-3,1,-4,-9,-12,-6,-2
1526902840752890,31,1,-2,4,5,2,0,0
1526902840764858,-14,-5,-2,4,3,3,1,3
1526902840764858,4,-1,4,4,3,5,4,5
1526902840773834,-21,5,2,-1,-3,-2,-6,-17
1526902840773834,-6,3,-5,-6,0,6,-3,-2
1526902840788794,-22,-8,-3,-1,-5,-13,-12,-8
1526902840788794,2,5,7,2,-1,1,-5,-2
1526902840790789,-6,-8,-4,-2,-1,-2,1,2
1526902840790789,2,-1,1,-1,-1,7,2,-1
1526902840811732,-27,-7,-3,-2,1,4,-1,-6
1526902840811732,10,0,-7,-4,-2,-2,3,2
1526902840812730,-12,-7,-6,-1,-4,-12,0,-2
1526902840812730,17,-2,-1,-1,-1,-3,-21,-1
1526902840824698,-1,2,3,1,3,3,3,-7
1526902840824698,8,-2,-5,-3,-1,-2,-1,4
1526902840833674,45,6,1,0,-1,-1,4,7
1526902840833674,-53,-11,-3,-2,-2,7,8,0
1526902840848634,9,10,2,1,-1,-6,-1,-3
1526902840848634,-2,-1,-4,-3,-1,5,13,-3
1526902840850629,8,-1,-3,-1,-3,-11,-34,-5
1526902840850629,-22,-12,0,0,-1,-8,1,-5
1526902840871573,18,-3,2,2,3,3,-1,1
1526902840871573,-23,-4,-6,-3,0,-4,1,-11
1526902840873568,-4,2,1,0,-1,3,7,10
1526902840873568,7,7,3,-1,0,-4,-2,-5
1526902840885535,14,-9,-2,0,0,4,1,-1
1526902840885535,-9,-7,-4,-1,-1,-3,-5,2
1526902840894511,26,3,-3,-2,-1,-2,0,5
1526902840894511,-17,-8,-3,-6,-2,-3,-1,-5
1526902840909471,7,12,3,3,2,7,-2,1
1526902840909471,-4,6,1,2,-2,-13,15,5
1526902840910469,4,-7,-3,-1,-1,17,-18,-13
1526902840910469,-6,11,-2,0,0,-13,11,-5
1526902840931413,20,-3,1,-2,-1,14,6,14
1526902840931413,-22,-12,-1,0,-2,-3,-5,-12
1526902840933407,-32,-4,3,0,0,-16,-6,0
1526902840933407,30,23,-2,1,3,41,34,6
1526902840945375,21,-9,-4,-4,-5,-28,-69,-3
1526902840945375,-2,9,3,2,1,-1,5,2
1526902840954351,-10,-21,1,0,1,-7,4,-5
1526902840954351,-11,-2,-1,0,0,-4,-12,-3
1526902840968314,20,22,2,-2,-1,5,13,-1
1526902840968314,6,5,-2,-4,-1,1,-17,2
1526902840975295,-29,-5,-2,-3,-3,6,1,-8
1526902840975295,34,-3,4,3,0,-12,0,8
1526902840991252,-54,-14,-2,-4,-3,2,6,-7
1526902840991252,53,10,1,1,-1,-3,10,7
1526902840993247,-52,-1,-3,1,0,4,13,-5
1526902840993247,39,2,0,-2,-2,-10,-21,2
1526902841005215,-32,-8,-2,0,1,-2,16,-5
1526902841005215,-2,0,1,-3,-2,-5,-10,-1
1526902841014192,-11,0,-4,-3,-2,4,-6,-2
1526902841014192,4,-6,-1,0,-2,-17,0,-7
1526902841028154,4,-8,-1,0,-1,18,26,-1
1526902841028154,4,6,-1,-2,3,-7,-32,1
1526902841035135,-10,-11,-3,-1,-2,-3,29,2
1526902841035135,-8,1,-3,0,-1,-6,-14,-3
1526902841051092,16,-1,-1,2,0,12,34,2
1526902841051092,-6,16,3,-4,0,21,-3,-9
1526902841053088,11,-3,0,-1,-6,-42,12,26
1526902841053088,-53,-3,2,2,-1,5,-10,-22
1526902841074031,3,-7,-4,-4,-6,-5,2,5
1526902841074031,54,6,6,4,3,9,-14,4
1526902841076026,-41,-4,-6,-4,-3,2,-22,-15
1526902841076026,-1,-6,-4,-2,-1,7,19,11
1526902841087994,5,5,0,-1,-2,-15,-12,-4
1526902841087994,-42,-27,-6,-1,0,6,11,-2
1526902841094975,14,9,6,1,-2,3,-9,-11
1526902841094975,13,-2,-2,-1,1,11,3,7
1526902841111930,7,-1,-5,-4,-3,-14,-23,5
1526902841111930,-30,-16,-9,-7,-6,-16,2,-5
1526902841112928,0,1,2,6,7,34,23,7
1526902841112928,-31,3,0,0,-3,-8,2,-7
1526902841133871,20,17,2,2,0,-6,-11,-3
1526902841133871,-6,-4,0,0,-3,-10,6,-3
1526902841135866,-9,2,-2,-2,1,14,-3,-5
1526902841135866,24,-10,-1,-4,-2,-13,14,2
1526902841148831,-4,1,-4,-3,0,1,1,4
1526902841148831,-29,-1,0,0,-2,-4,-3,-1
1526902841154815,33,-5,1,1,0,3,10,-7
1526902841154815,30,12,5,1,1,2,1,9
1526902841171770,-21,12,3,6,2,1,3,-10
1526902841171770,-21,-8,-1,-1,-2,4,8,4
1526902841172767,17,4,-2,-4,-2,-1,-4,1
1526902841172767,5,-13,-4,-1,-1,-2,-5,-4
1526902841193711,-28,5,0,-1,-2,-4,2,1
1526902841193711,12,2,4,3,3,11,-6,-2
1526902841195706,-3,-2,-5,-3,-1,-7,-7,3
1526902841195706,-15,9,4,1,0,-14,-1,5
1526902841208671,23,-11,-1,-4,-2,-2,-6,-7
1526902841208671,0,1,1,0,-2,-2,-4,-4
1526902841214655,4,10,0,-1,1,-4,-16,-3
1526902841214655,2,-13,-3,-2,-1,-3,-1,-7
1526902841231610,-14,-19,-5,-3,-2,12,15,2
1526902841231610,11,12,-4,-3,0,1,-19,16
1526902841233605,9,3,5,-1,-3,-12,-5,6
1526902841233605,-4,0,-5,-2,-1,-1,2,-9
1526902841253551,-32,-21,0,2,-2,-5,0,-8
1526902841253551,7,-15,-1,-2,-2,3,-4,-8
1526902841255546,4,15,3,-1,-2,-7,-3,-1
1526902841255546,-1,-1,1,0,-2,-2,-29,-2
1526902841268511,20,0,-2,-1,2,1,7,1
1526902841268511,-6,-13,-3,-2,-2,-7,-23,-1
1526902841275492,1,7,-5,-4,-3,-3,-2,5
1526902841275492,-9,-9,-4,-4,3,15,8,-4
1526902841291449,13,12,2,2,0,-6,-2,1
1526902841291449,-7,0,1,-1,3,10,9,2
1526902841293444,5,10,1,2,1,-8,12,4
1526902841293444,-10,-10,-5,0,0,9,-3,-5
1526902841314388,-11,-1,0,0,-1,-6,5,5
1526902841314388,6,2,-1,0,-3,-1,-4,2
1526902841315386,37,-5,3,0,1,8,13,0
1526902841315386,-4,0,-3,-3,-3,-6,-9,0
1526902841327354,17,19,-7,-5,1,7,-14,4
1526902841327354,-43,-17,6,0,-2,-15,27,-1
1526902841336330,5,-12,-3,2,-1,9,14,3
1526902841336330,16,20,10,6,3,1,1,-8
1526902841351290,3,-10,-3,-3,-5,-4,-8,-3
1526902841351290,11,14,-1,-4,0,4,5,3
1526902841353284,-13,-10,-7,-5,-3,-8,-15,-2
1526902841353284,-18,-7,2,2,0,3,12,-2
1526902841374228,8,0,4,2,1,-5,-8,-10
1526902841374228,1,-3,-7,-3,-1,-7,5,0
1526902841375226,-6,-9,-1,0,0,-1,-8,-9
1526902841375226,7,0,-1,-5,-6,-8,-2,1
1526902841387194,-16,6,-1,0,4,16,4,0
1526902841387194,3,0,6,5,-1,-14,2,0
1526902841396170,-8,1,1,-3,0,-7,-2,-1
1526902841396170,2,-1,-4,-5,-4,5,6,-9
1526902841411129,7,-7,-1,-1,1,1,-2,9
1526902841411129,-10,-2,-5,-2,-1,9,9,-8
1526902841413125,17,-2,4,0,-2,-8,-24,2
1526902841413125,-21,3,-8,-3,2,2,-19,0
1526902841434068,53,13,3,1,-3,-10,24,-2
1526902841434068,-70,-17,-2,-2,-1,2,-4,8
1526902841436063,8,16,4,4,0,-2,-1,-2
1526902841436063,-13,6,4,1,1,2,-4,-7
1526902841448031,7,-10,-2,-1,1,3,-7,0
1526902841448031,18,7,-4,-1,-5,-13,0,0
1526902841457007,-24,-12,-8,-5,0,7,2,-2
1526902841457007,12,4,1,3,-1,-1,4,10
1526902841471967,-27,6,0,1,-1,-5,-2,-4
1526902841471967,19,-4,-3,-3,-4,-3,-1,-4
1526902841472964,-27,-4,-1,-1,-1,1,0,-5
1526902841472964,25,0,-7,-4,-3,-6,-9,-3
1526902841493908,-33,-18,3,0,-2,1,17,2
1526902841493908,19,14,-3,0,0,6,-5,-5
1526902841495903,-21,-4,-7,-3,-5,-12,-6,-1
1526902841495903,-11,-10,-1,-2,-2,-18,-11,-5
1526902841507871,-5,-1,7,7,5,11,15,-1
1526902841507871,18,17,2,0,0,-1,-3,7
1526902841516847,-5,9,0,1,-2,3,9,-6
1526902841516847,-6,-1,3,1,3,8,5,1
1526902841531807,5,1,-2,-2,-5,-11,-24,-7
1526902841531807,-19,-11,-5,-1,0,-8,10,-10
1526902841532804,32,-3,-1,-2,3,25,6,21
1526902841532804,-23,8,-6,-8,-7,-14,2,-18
1526902841553748,25,7,0,-2,-2,-9,-9,13
1526902841553748,7,2,3,4,2,7,1,6
1526902841555743,-23,-10,-5,-1,-6,-9,3,-7
1526902841555743,-26,-8,5,6,3,7,-1,-9
1526902841567711,-41,-28,-10,-5,-1,2,-8,-9
1526902841567711,-10,3,5,5,2,-8,-5,-5
1526902841576687,-8,9,5,5,4,4,2,-3
1526902841576687,45,11,2,2,0,8,9,8
1526902841591647,-8,-7,-4,-4,-3,-10,-4,1
1526902841591647,-10,-14,-1,-2,1,0,-2,-1
1526902841592644,41,4,8,2,0,1,-1,-3
1526902841592644,-57,12,-1,0,-1,1,10,1
1526902841613588,6,6,-7,-7,-3,-5,-10,-3
1526902841613588,5,-8,-3,-3,-2,1,1,5
1526902841615583,4,-4,-1,-1,0,-2,-3,-1
1526902841615583,6,-4,1,-2,-1,-4,2,4
1526902841627551,-17,-15,-8,-5,-2,-3,-3,-9
1526902841627551,30,26,5,0,0,13,3,10
1526902841636527,-10,-12,-1,0,1,-5,-12,-5
1526902841636527,12,-7,-3,0,-4,0,7,3
1526902841651487,-1,5,-1,0,1,2,0,-4
1526902841651487,18,-12,0,-2,-2,1,0,-1
1526902841653482,-16,13,2,0,-1,-4,-8,0
1526902841653482,-7,-10,-3,-2,1,-5,7,-7
1526902841674425,15,9,-1,1,-2,10,-1,0
1526902841674425,-17,-4,-1,-1,-2,2,14,-20
1526902841675423,30,1,-10,-9,-4,-3,-28,24
1526902841675423,-18,-9,5,3,3,-10,-5,0
1526902841687391,16,1,3,3,-1,-5,-3,-3
1526902841687391,12,-8,0,-1,0,-1,-3,-1
1526902841696367,-7,27,-1,-6,-6,-1,6,-6
1526902841696367,8,-9,-1,2,-1,6,-5,-8
1526902841711327,9,6,3,0,-1,-3,-17,10
1526902841711327,-16,-4,2,2,0,-7,-2,9
1526902841713321,3,-6,-6,0,-1,-3,9,-6
1526902841713321,15,1,2,-8,-3,2,-11,1
1526902841734265,-4,1,-13,-3,1,1,11,-6
1526902841734265,24,6,-8,-2,1,1,-3,7
1526902841735263,-4,-32,26,10,1,-1,-3,-12
1526902841735263,-14,45,4,4,-3,-3,0,3
1526902841747231,10,-15,8,4,0,5,8,-10
1526902841747231,6,0,-16,-12,-5,-8,-7,9
1526902841756207,-9,2,-5,-6,0,7,9,-5
1526902841756207,30,0,3,4,1,-3,-18,2
1526902841771166,-40,-7,-3,-5,-2,6,16,1
1526902841771166,6,9,-1,-3,-3,4,-6,-6
1526902841777150,7,-20,-2,-1,-1,-3,9,-3
1526902841777150,-13,11,-14,-8,-7,-3,-3,-6
1526902841794105,5,-14,2,0,3,-2,-3,2
1526902841794105,-4,-4,3,5,2,2,6,-1
1526902841796100,-14,-1,0,-2,0,3,-4,-2
1526902841796100,11,-32,-14,-7,-3,0,13,7
1526902841808068,-3,18,-1,0,-2,-7,-17,-2
1526902841808068,0,-10,-2,-1,-2,-2,-3,2
1526902841817044,-13,-3,-5,1,1,3,-1,-9
1526902841817044,12,-12,-7,-4,-2,-2,3,5
1526902841831007,-13,-4,2,-3,-2,-3,-1,-6
1526902841831007,6,28,9,3,1,1,-6,5
1526902841833002,4,4,-2,1,-1,-3,4,8
1526902841833002,3,-10,-2,0,0,4,-1,-11
1526902841853945,-8,-4,-1,-1,-1,0,3,23
1526902841853945,-16,3,7,4,4,1,-3,-16
1526902841855940,-10,-8,-9,-3,-1,1,-1,-8
1526902841855940,9,14,8,2,0,-5,-1,8
1526902841867908,22,10,-3,-3,-5,-1,-1,-3
1526902841867908,-14,-18,0,-3,0,3,-5,1
1526902841876884,-17,7,-6,-1,-1,-2,12,-2
1526902841876884,0,-14,1,-2,2,9,-3,-6
1526902841891844,-10,5,0,1,0,-3,17,2
1526902841891844,22,5,4,1,-1,-3,-5,-1
1526902841892841,2,-2,-4,2,-2,-2,-1,5
1526902841892841,-14,5,3,-3,-2,-7,-8,-3
1526902841913785,1,0,2,0,0,2,-1,-3
1526902841913785,3,14,-1,0,0,25,36,6
1526902841915780,14,-14,-2,-3,-1,-14,-29,1
1526902841915780,13,5,1,2,-2,2,8,0
1526902841927748,3,-3,-9,-7,-3,0,-10,-5
1526902841927748,-5,3,3,0,1,-6,3,2
1526902841936724,-12,0,2,-1,0,6,7,0
1526902841936724,-43,4,-2,-1,-2,0,-1,-15
1526902841950687,48,14,13,7,5,7,12,25
1526902841950687,-33,-29,-13,-6,-9,-17,-20,-10
1526902841957668,-4,7,-1,-1,0,0,2,0
1526902841957668,-6,1,3,1,3,3,0,-5
1526902841973625,11,-14,-3,-3,-5,-18,-18,-10
1526902841973625,33,23,7,2,1,18,20,4
1526902841975620,-10,-1,-2,1,0,-2,-2,-1
1526902841975620,2,-11,-1,0,0,0,-6,-4
1526902841996564,0,3,-4,-2,-2,-3,-4,-1
1526902841996564,-17,-12,-3,-2,-1,-17,-12,1
1526902841998559,14,14,3,2,0,4,-8,-6
1526902841998559,15,-5,-1,3,-1,4,15,5
1526902842010526,-29,-5,1,-4,-2,-1,-21,-1
1526902842010526,12,-8,-9,-1,1,-1,-4,5
1526902842017508,22,36,5,0,-3,-8,-1,0
1526902842017508,-20,-15,-3,-5,-1,-3,1,4
1526902842034462,-20,-9,1,3,-1,-8,-20,-12
1526902842034462,7,-3,-8,-6,-2,2,-4,-9
1526902842035460,1,-21,-4,-1,-2,2,1,-2
1526902842035460,-4,-3,-3,-2,-1,-4,-2,4
1526902842056404,9,8,3,0,0,5,9,0
1526902842056404,3,4,-7,-7,-5,-12,-13,0
1526902842058399,3,-11,1,-1,1,14,25,-7
1526902842058399,-29,-13,-8,-5,-1,-6,-9,3
1526902842070367,-20,-10,-2,0,0,0,6,-7
1526902842070367,-1,11,4,2,1,-4,-7,4
1526902842077348,4,9,-1,0,-2,-6,-4,-3
1526902842077348,7,-7,1,4,2,2,-4,-5
1526902842094302,-5,3,-3,-3,1,10,7,-2
1526902842094302,-16,-18,5,5,0,-4,-4,-9
1526902842095300,18,-1,-4,-3,-3,-2,-5,1
1526902842095300,16,18,4,0,0,0,5,6
1526902842116244,3,-9,-7,-4,-3,4,-7,-3
1526902842116244,-14,-10,1,0,-3,-5,-27,2
1526902842118239,-4,8,-4,-5,-4,-5,3,2
1526902842118239,43,-3,4,5,4,2,0,5
1526902842131204,-28,10,-2,-1,-3,-4,7,-2
1526902842131204,-2,-11,-1,-3,-3,2,3,1
1526902842137188,-5,-2,-5,0,1,0,-6,-9
1526902842137188,-2,4,-1,-1,-2,-3,-1,4
1526902842154142,16,5,2,0,-2,-2,1,3
1526902842154142,6,9,6,6,4,3,7,-1
1526902842156137,-10,1,-2,-2,-3,-7,-3,-1
1526902842156137,-2,-5,-7,-3,-1,3,3,-4
1526902842176084,3,3,11,2,2,2,4,-1
1526902842176084,38,16,-3,-3,-1,-4,2,16
1526902842178079,-26,-29,0,-1,-1,-2,-1,-5
1526902842178079,-7,27,3,1,0,3,-2,-8
1526902842191044,-6,-12,-9,-3,-2,-3,-3,0
1526902842191044,-3,-1,5,2,0,0,1,-9
1526902842198025,-37,-4,6,4,-1,-2,-1,-3
1526902842198025,58,2,-4,-4,-2,1,0,8
1526902842213982,-3,-8,-9,-10,-5,-7,-2,5
1526902842213982,-6,-4,2,7,6,6,7,-9
1526902842215977,3,0,2,1,0,0,6,1
1526902842215977,-22,1,1,1,0,-4,-9,-10
1526902842236921,6,2,0,4,4,5,3,-2
1526902842236921,3,10,-6,-4,-1,1,3,8
1526902842237919,-5,-10,-1,-3,0,-3,-3,1
1526902842237919,29,-1,1,2,0,1,2,2
1526902842249886,-49,-1,0,1,-3,-2,-12,-9
1526902842249886,-2,-4,2,0,2,2,9,1
1526902842258862,59,8,-3,-2,-2,-3,-5,15
1526902842258862,-48,-5,-4,-4,-2,-7,-4,-20
1526902842273822,68,3,0,2,0,13,19,48
1526902842273822,-59,-5,-2,-2,-2,-10,-8,-10
1526902842275817,14,15,-3,-1,2,4,10,0
1526902842275817,14,-9,-1,1,-1,0,-1,-4
1526902842296761,-16,-11,-3,0,-3,-6,-8,-13
1526902842296761,10,4,0,-1,-2,-1,2,7
1526902842297759,-5,-6,-6,-1,-1,2,-4,-5
1526902842297759,3,-22,-8,-5,-4,-1,-4,3
1526902842309726,-20,26,4,0,-1,-4,-1,-10
1526902842309726,15,-7,-9,-4,-5,-1,0,5
1526902842318702,-6,-4,5,0,-1,-1,-2,0
1526902842318702,-30,-16,-6,-2,-1,0,-3,-12
1526902842333662,-3,8,1,-1,3,-3,6,1
1526902842333662,37,-18,0,-1,-6,-4,-8,-3
1526902842335657,-10,-10,-5,-1,-2,0,0,3
1526902842335657,8,1,1,4,2,0,3,2
1526902842356601,-51,-11,-5,-1,-2,-2,-1,-13
1526902842356601,11,3,-9,-8,-2,-4,-6,3
1526902842358596,-22,-6,-1,1,2,5,-3,-3
1526902842358596,15,8,8,0,-4,-9,-1,4
1526902842370564,8,-15,-4,0,1,10,-22,-6
1526902842370564,1,10,-1,0,-1,-1,10,4
1526902842379540,-20,-4,-1,-3,-3,-2,-5,-6
1526902842379540,-7,0,1,1,1,-1,1,2
1526902842393502,23,16,2,-2,-1,1,14,1
1526902842393502,-26,-7,-2,0,-1,-2,-4,-9
1526902842395498,9,11,-1,-2,-1,-3,-2,0
1526902842395498,1,5,6,2,0,-3,-9,5
1526902842416441,43,-10,-2,3,-2,-3,20,-4
1526902842416441,10,-6,-6,-6,-1,4,-22,2
1526902842418436,2,19,1,-1,-3,-18,-9,-3
1526902842418436,-15,0,-4,-3,0,7,4,-2
1526902842430404,34,7,3,1,0,-5,-3,5
1526902842430404,-50,-7,6,3,1,7,17,-11
1526902842439380,36,-11,-2,-1,1,5,0,6
1526902842439380,-4,12,-5,0,0,0,0,-1
1526902842454340,-1,10,0,-3,-3,-5,-10,-2
1526902842454340,-8,2,-2,-1,-3,-5,12,-2
1526902842455337,-3,10,3,0,0,2,-3,-3
1526902842455337,-27,-16,-2,-3,-2,3,4,-6
1526902842476281,7,-3,-4,-3,-1,-2,1,6
1526902842476281,-19,0,5,2,2,0,-8,1
1526902842478276,28,10,-2,0,-1,-2,-1,0
1526902842478276,-1,-1,1,-1,-2,-8,-3,-6
1526902842490243,-21,4,0,-1,0,8,2,2
1526902842490243,60,6,1,-1,-1,7,8,2
1526902842499220,-33,-18,-2,0,-1,-5,-10,-11
1526902842499220,8,-1,-3,-2,-2,0,-1,3
1526902842514179,-19,-11,1,0,-1,-13,-7,-7
1526902842514179,22,10,1,1,1,-1,4,-1
1526902842515177,3,-8,-3,-1,0,4,11,-5
1526902842515177,-17,-6,-5,-3,-1,-4,-1,-7
1526902842536121,-1,-10,-4,-4,-2,-7,-5,-2
1526902842536121,-11,-11,-5,-1,1,13,-8,2
1526902842538116,-13,-7,-8,-6,-5,-14,13,-11
1526902842538116,-4,-12,1,2,1,4,3,-3
1526902842550084,33,3,2,1,3,2,3,5
1526902842550084,-48,10,-4,-5,-3,0,-10,-1
1526902842559060,-2,1,3,1,-1,-2,-8,-7
1526902842559060,-3,0,4,3,2,4,4,5
1526902842574020,-8,-10,-5,-2,-2,-4,-1,-9
1526902842574020,-4,-24,-4,-4,-2,-6,-5,-2
1526902842576014,16,15,1,0,0,3,0,5
1526902842576014,-4,17,-2,-3,-3,-4,-2,-4
1526902842596958,24,2,0,0,1,3,-2,7
1526902842596958,-3,-6,1,-1,-1,-6,9,3
1526902842597956,-9,2,2,-2,-3,-6,-3,4
1526902842597956,-6,-8,0,-1,1,6,0,-1
1526902842609923,3,20,1,0,0,-4,-4,0
1526902842609923,2,5,-3,0,-2,-13,-1,-4
1526902842618899,-14,-18,-4,1,2,12,2,-1
1526902842618899,-6,-3,-6,-2,-2,-3,-14,1
1526902842633859,20,8,5,0,0,2,19,0
1526902842633859,-40,13,6,1,-1,-5,-14,-8
1526902842635854,17,5,0,0,1,-1,-4,-1
1526902842635854,-12,-12,-2,-3,-3,-3,-3,-2
1526902842656798,-20,-10,-4,-1,-3,8,10,-6
1526902842656798,34,-5,-2,-2,-2,-10,-27,16
1526902842657796,-3,4,1,3,2,8,6,-1
1526902842657796,1,2,0,-3,-4,2,-11,-2
1526902842669764,-19,-5,1,3,3,12,-2,-6
1526902842669764,23,-9,-6,-3,-3,-8,9,-6
1526902842678740,-4,-8,-4,-1,-1,5,-4,9
1526902842678740,18,18,6,4,3,-5,2,-3
1526902842693700,-29,-3,0,-1,-3,-8,-8,3
1526902842693700,26,3,1,2,3,12,-6,1
1526902842695694,-6,-6,0,-1,0,-9,0,3
1526902842695694,2,13,3,4,0,7,15,-3
1526902842716638,11,9,4,-3,-2,-10,-9,8
1526902842716638,-15,6,0,0,0,-3,3,-3
1526902842718633,18,-7,-4,-8,-5,4,-6,-9
1526902842718633,-8,-13,-1,-2,-1,1,16,5
1526902842730601,-10,-2,1,5,0,-7,-16,-10
1526902842730601,20,19,4,3,0,-7,2,2
1526902842739577,3,-3,0,1,4,10,6,2
1526902842739577,14,10,-3,-4,-5,-4,-10,-3
1526902842753539,-8,2,3,2,1,-1,7,5
1526902842753539,5,-8,-1,0,1,7,12,2
1526902842755534,4,-3,1,0,-3,-9,-11,-11
1526902842755534,-30,-1,-7,-4,-1,2,1,8
1526902842776478,28,-5,-7,-5,0,2,2,1
1526902842776478,-8,-3,1,0,-2,-6,-3,-3
1526902842778473,-11,14,3,1,-1,-3,1,2
1526902842778473,6,-6,-3,-2,-2,-2,-1,-2
1526902842790441,-4,-3,2,2,1,-4,-7,4
1526902842790441,-7,-2,0,0,1,14,9,1
1526902842799417,-20,-13,-2,-2,-4,-8,-1,-12
1526902842799417,18,5,-9,-8,-5,-1,9,1
1526902842814377,-5,-4,-1,-2,-1,4,-1,22
1526902842814377,29,7,1,3,-1,-7,-6,-6
1526902842815374,-19,11,8,11,4,0,3,4
1526902842815374,41,2,-8,-1,-2,6,-13,-3
1526902842836318,-39,-2,-6,-11,-7,-15,-7,-12
1526902842836318,-24,-24,-15,-8,-4,-7,7,-8
1526902842838313,6,13,-6,-11,-6,1,-12,-1
1526902842838313,-20,-4,6,4,3,-4,-7,-4
1526902842850281,17,-1,-9,-2,1,5,2,-3
1526902842850281,-19,-8,-7,0,-1,-3,-3,-6
1526902842859257,-39,-47,-3,-1,0,-1,6,1
1526902842859257,-11,27,3,2,-1,-3,-5,-2
1526902842873219,20,8,7,5,2,-1,-1,-3
1526902842873219,19,-10,-1,-2,0,8,6,8
1526902842880201,-68,3,-3,1,-3,1,-1,-8
1526902842880201,7,-1,6,2,1,-5,1,5
1526902842896158,14,-6,-2,-2,-4,-3,-5,-6
1526902842896158,-28,-7,-3,-1,-1,-1,-5,-6
1526902842898153,17,8,-4,-1,-1,0,1,-3
1526902842898153,49,-3,3,1,0,1,0,1
1526902842910120,-25,-6,-4,-2,-2,-5,-2,2
1526902842910120,-26,-6,1,2,2,4,-2,-1
1526902842919097,32,-3,-3,-3,-3,-11,-4,2
1526902842919097,-9,8,-1,-3,-3,8,3,-4
1526902842933059,13,-11,7,6,5,5,-6,7
1526902842933059,17,11,-1,0,-1,-3,12,7
1526902842940041,-1,4,3,2,0,-3,6,-2
1526902842940041,9,-5,4,6,3,-4,-3,-10
1526902842955998,12,2,-2,1,1,1,7,10
1526902842955998,-13,-4,-3,-3,-3,9,1,2
1526902842957993,28,-15,-5,-4,-1,1,2,-1
1526902842957993,-37,-15,-9,-10,-1,-2,-3,-1
1526902842978937,44,17,3,4,2,-9,-5,-8
1526902842978937,-41,-6,3,1,-2,-5,-5,-4
1526902842980931,29,11,4,3,0,0,-1,1
1526902842980931,-55,8,-3,-4,-2,0,3,-6
1526902842992899,0,-4,-4,-5,-2,-4,5,1
1526902842992899,-10,-2,3,3,1,-4,-7,-4
1526902842999880,28,3,1,1,0,5,9,4
1526902842999880,-34,-22,-4,-3,1,1,-13,-8
1526902843016835,-12,8,0,-1,-2,3,4,-3
1526902843016835,10,12,-4,-4,-5,-4,-2,9
1526902843017833,-19,0,0,3,2,4,-6,-10
1526902843017833,23,0,-1,3,0,-2,5,3
1526902843038777,-9,5,-3,-3,-2,1,0,0
1526902843038777,5,-3,2,1,0,0,-3,3
1526902843040772,16,17,5,1,0,-1,-1,3
1526902843040772,18,1,-3,0,-1,-1,-2,5
1526902843053737,-39,-10,-1,1,0,2,-5,-11
1526902843053737,13,0,-1,-4,-3,-6,-7,-3
1526902843059721,-8,11,1,-3,2,0,2,2
1526902843059721,24,-8,-6,-2,-4,9,-9,-8
1526902843076675,-25,-35,-3,0,-2,-2,8,6
1526902843076675,-3,28,1,0,3,4,2,2
1526902843077673,12,-8,-7,-4,-4,-8,-11,-9
1526902843077673,-16,6,2,0,-2,0,2,0
1526902843098617,37,-6,0,-3,-2,-9,-6,3
1526902843098617,-3,-15,-5,-4,-3,2,-4,-2
1526902843100612,-3,8,0,1,-1,0,-2,0
1526902843100612,-2,-4,1,2,2,-3,4,-2
1526902843113577,0,-5,0,-2,-1,4,2,0
1526902843113577,-5,10,0,-2,-2,-4,-1,-4
1526902843120558,17,-11,7,7,4,2,3,2
1526902843120558,25,29,7,0,-1,-4,1,3
1526902843136515,-29,-7,-4,3,1,1,-2,-9
1526902843136515,22,7,2,1,1,1,0,0
1526902843138510,-12,-25,-8,-4,-4,0,-3,-5
1526902843138510,4,-6,-2,-1,-1,-4,-1,5
1526902843159454,-3,22,5,1,1,2,3,2
1526902843159454,22,-1,1,0,-1,-3,-1,-6
1526902843160452,-30,7,0,0,-2,-1,-5,-9
1526902843160452,6,-12,-3,0,0,-3,2,6
1526902843173417,13,29,1,-5,-2,-2,-3,1
1526902843173417,-4,-20,-2,0,1,3,6,3
1526902843180398,0,7,-3,-3,2,1,-9,-5
1526902843180398,-11,-3,-2,-1,0,-6,-1,0
1526902843196355,23,14,1,-1,-2,1,8,-2
1526902843196355,-1,-15,-6,-4,-3,-9,-27,-5
1526902843198350,-18,2,2,-1,-1,-2,3,1
1526902843198350,-4,-15,-5,0,1,-2,-1,-2
1526902843219294,17,-10,-10,-5,-3,0,-11,-3
1526902843219294,-19,7,6,2,2,6,15,7
1526902843220291,-3,5,-10,-8,-5,-4,-4,-15
1526902843220291,-2,1,3,0,1,0,2,6
1526902843232259,15,-6,-1,-1,-2,-1,-1,0
1526902843232259,-2,-4,-2,0,0,0,1,0
1526902843241235,-5,-7,-3,-2,-3,-2,-1,1
1526902843241235,-4,-6,4,3,-1,0,3,-4
1526902843256195,-5,7,-2,-1,-3,-2,-5,-3
1526902843256195,19,7,-2,0,-1,-2,8,2
1526902843258190,-29,-20,-3,-4,-4,-4,-3,1
1526902843258190,24,6,3,3,2,-2,0,-11
1526902843279134,-20,-2,-3,-1,1,9,6,8
1526902843279134,2,-20,-3,0,0,0,-9,2
1526902843281129,8,-9,-3,0,-1,-4,9,4
1526902843281129,-20,0,-2,-2,-3,-3,-4,0
1526902843293097,-20,-1,3,2,3,3,2,-15
1526902843293097,15,-1,-4,-6,-5,-13,-15,-4
1526902843302073,-10,0,3,5,10,41,52,-3
1526902843302073,13,-19,-5,-3,-6,-20,-11,10
1526902843316035,-2,4,-2,-2,-2,-5,-10,1
1526902843316035,-3,6,0,-2,-1,-4,5,5
1526902843318030,4,-8,-3,-2,-3,-7,-11,-10
1526902843318030,5,8,-2,-1,-2,9,3,-6
1526902843338974,-20,-17,-5,-3,1,1,16,6
1526902843338974,14,-1,-1,-1,-1,-2,2,-2
1526902843340969,10,9,0,-1,-2,-1,-13,5
1526902843340969,-13,-2,4,2,1,-6,3,0
1526902843352936,13,9,-3,-2,-2,4,-8,4
1526902843352936,2,5,3,1,0,2,-11,-15
1526902843361913,-35,-2,-1,-2,-2,-3,16,12
1526902843361913,19,2,-5,-2,-3,-2,-2,1
1526902843376872,-15,-17,-2,-1,-4,-7,-3,0
1526902843376872,44,16,5,3,3,2,4,6
1526902843377870,-55,15,2,2,-1,-3,-19,-12
1526902843377870,6,1,3,3,0,3,14,1
1526902843398814,-26,-11,-5,-2,-3,-9,-17,6
1526902843398814,-29,-17,-7,-3,-3,1,11,-7
1526902843400808,42,-3,0,2,-1,-10,-8,7
1526902843400808,-4,15,2,-2,-1,2,-9,-4
1526902843412777,12,-4,4,2,3,16,6,-5
1526902843412777,-24,24,2,0,-1,-5,2,2
1526902843421753,15,-5,2,1,0,0,11,-1
1526902843421753,-18,-11,-4,-2,1,-7,-28,-7
1526902843436713,-40,-16,-4,0,-2,7,14,-16
1526902843436713,11,5,-3,0,-1,5,-12,5
1526902843437710,25,9,1,0,-2,4,24,-1
1526902843437710,10,-8,-3,-1,-1,5,-26,2
1526902843458654,-53,-15,-3,-3,-7,-26,-8,-7
1526902843458654,20,13,4,3,0,-2,5,2
1526902843460649,-3,-11,-4,-3,-2,-3,-13,-14
1526902843460649,7,3,-6,-3,-1,4,6,-7
1526902843472616,22,4,1,0,1,14,5,3
1526902843472616,-20,-9,-3,0,1,-4,1,0
1526902843481593,46,-3,-4,-2,-1,-8,-16,8
1526902843481593,-10,19,1,-4,-5,-3,5,-1
1526902843496552,21,-3,4,0,2,13,9,9
1526902843496552,-16,-2,0,-1,-9,3,16,-3
1526902843498547,9,0,-10,-8,0,-30,-40,2
1526902843498547,-33,-18,3,6,1,11,24,-16
1526902843519491,26,7,4,3,0,-12,-2,9
1526902843519491,-12,-18,-7,-5,0,7,3,-3
1526902843520489,-17,0,1,-2,-7,-6,-10,-8
1526902843520489,12,-7,-3,-4,-2,6,8,4
1526902843532456,-5,3,1,-1,0,-11,-8,-2
1526902843532456,-4,-2,-4,-2,-2,-3,2,-16
1526902843541432,-8,-10,-2,0,1,8,2,26
1526902843541432,10,7,1,1,4,7,1,10
1526902843556392,-8,14,2,-2,0,6,0,-6
1526902843556392,-8,5,7,5,5,-4,-12,1
1526902843558387,-5,3,-1,1,-1,0,11,-17
1526902843558387,-7,-10,0,0,-2,-1,16,1
1526902843579331,14,-3,-6,-4,-3,-11,-11,6
1526902843579331,-3,14,4,2,3,9,-2,-6
1526902843580328,-6,-7,-2,-2,-2,1,1,-5
1526902843580328,2,8,3,2,-1,-2,-4,6
1526902843592296,18,1,-6,-3,-3,6,-1,-3
1526902843592296,-37,-20,-6,-6,-2,-16,7,-6
1526902843601272,49,13,10,7,7,21,-7,1
1526902843601272,-41,-7,-2,-3,-3,-26,13,3
1526902843616232,12,4,1,2,-1,-2,-4,-2
1526902843616232,-9,-14,0,1,-3,-2,-5,-1
1526902843618227,7,17,-2,-5,-5,1,-3,4
1526902843618227,-34,-3,3,3,1,-3,-6,-31
1526902843639171,64,-4,-2,2,5,5,3,24
1526902843639171,-23,-2,-1,-2,-2,2,3,4
1526902843640169,-29,-17,-8,-4,-2,-4,2,-16
1526902843640169,10,3,-2,2,2,-1,-9,-1
1526902843653134,-22,-11,-4,-2,-2,-4,1,-10
1526902843653134,31,10,-3,-4,-3,-1,-6,8
1526902843662110,3,-13,1,1,-1,-4,-1,0
1526902843662110,7,11,-4,-4,-3,6,4,2
1526902843676072,-6,-12,-6,-8,-5,-15,-18,1
1526902843676072,-3,12,1,1,1,5,27,-1
1526902843678067,-7,-5,-1,0,-2,-4,1,-5
1526902843678067,20,9,-2,-3,-3,4,4,9
1526902843699011,-6,-10,-4,-3,-3,-10,-23,1
1526902843699011,4,11,1,0,-2,-5,-11,-2
1526902843701006,6,9,4,4,0,0,-2,-7
1526902843701006,-9,-6,-4,-2,-1,-5,-3,6
1526902843712974,-11,8,1,1,1,5,8,3
1526902843712974,87,7,7,4,2,0,-7,22
1526902843721950,-57,-13,-2,-3,-1,3,-10,-8
1526902843721950,64,-4,-3,-1,0,11,0,10
1526902843736910,-57,-10,-8,-3,-3,-15,0,-14
1526902843736910,30,4,12,8,7,10,7,9
1526902843737907,-13,12,3,2,1,-8,28,6
1526902843737907,63,4,1,-2,3,15,-11,-1
1526902843758851,-13,0,-2,-2,-8,-32,-4,-4
1526902843758851,-21,-12,-6,-2,2,2,-53,-34
1526902843760846,5,0,-4,-6,-6,-8,3,-3
1526902843760846,3,-7,8,7,0,-1,15,15
1526902843772813,-15,15,9,7,6,26,20,-3
1526902843772813,-19,-19,-12,-7,-2,3,6,-1
1526902843781790,14,-5,-2,-3,-3,-8,-15,6
1526902843781790,-12,1,-3,-4,0,-1,-2,1
1526902843795752,37,9,12,2,0,9,2,2
1526902843795752,-28,7,-9,-7,-6,-13,-5,-3
1526902843802734,6,-14,-4,3,5,13,14,0
1526902843802734,-19,2,-1,-3,-4,-7,-9,-3
1526902843818691,22,-7,4,4,1,0,1,-4
1526902843818691,1,9,-1,-4,-4,-2,7,1
1526902843820686,11,3,0,-1,-1,-5,-17,-1
1526902843820686,-16,-9,-5,1,0,-6,7,-6
1526902843832653,-9,7,4,1,1,5,-8,-4
1526902843832653,3,-17,-8,-5,-1,-2,14,10
1526902843841630,12,14,-1,-1,1,13,11,4
1526902843841630,-18,4,7,2,-4,-6,0,-2
1526902843855592,1,-7,-7,0,0,6,-13,0
1526902843855592,-17,-7,0,0,1,2,17,-7
1526902843862574,-2,3,-5,-3,-4,-9,-2,4
1526902843862574,-10,6,-3,0,0,8,-8,-3
1526902843878531,7,-11,1,-2,-1,-1,25,0
1526902843878531,-8,-2,-1,1,-2,-3,-36,-7
1526902843880526,-1,9,1,0,0,-4,-3,2
1526902843880526,13,-18,-2,-3,1,4,4,-6
1526902843901470,-26,34,3,4,0,-1,-15,6
1526902843901470,7,-19,-3,-4,-4,-5,2,-8
1526902843903464,-25,-8,-1,-1,-1,-1,-4,-10
1526902843903464,4,6,-2,-2,-2,-6,-4,2
1526902843915432,10,-5,-3,-3,-2,-1,9,-1
1526902843915432,8,-2,5,4,2,1,5,-9
1526902843922414,1,8,4,4,3,-1,-8,4
1526902843922414,-23,-10,-11,-9,-9,-12,4,19
1526902843939368,3,-7,-4,-2,-1,-1,-4,-1
1526902843939368,-10,15,1,0,-3,-2,-2,2
1526902843940366,9,-4,-3,-3,-1,5,24,-6
1526902843940366,6,1,5,5,2,-2,-9,-8
1526902843961309,-4,-8,-2,0,1,1,1,5
1526902843961309,-5,-10,-4,-1,-2,1,3,0
1526902843963304,7,3,-4,-4,-2,-1,-6,-3
1526902843963304,-15,1,0,-2,0,-1,-3,-9
1526902843976269,7,-3,-3,0,-1,-4,3,1
1526902843976269,-12,-4,-1,-1,-4,-24,-3,-6
1526902843982253,1,3,0,-1,5,42,12,-10
1526902843982253,-9,-5,-4,3,-1,-18,3,6
1526902843999208,27,3,1,-2,1,4,0,1
1526902843999208,11,7,3,1,-1,-3,2,8
1526902844000206,-10,10,2,2,-1,-3,-6,-9
1526902844000206,-16,-2,-1,-3,1,-4,-12,-1
1526902844021149,-15,-6,-4,-1,-1,7,39,-9
1526902844021149,-17,-16,-5,-3,-3,-4,-10,-5
1526902844023144,17,-6,1,-2,-1,-5,-5,14
1526902844023144,-11,10,1,1,-1,9,20,-6
1526902844036109,32,-4,-4,-3,-1,-3,-12,-4
1526902844036109,-19,-7,2,0,1,5,3,-2
1526902844043090,-4,0,1,3,-3,-22,-8,-6
1526902844043090,-16,-2,0,-2,-1,5,-2,-7
1526902844059048,-17,-2,-1,-3,-3,-26,-4,3
1526902844059048,-5,9,1,1,4,37,4,9
1526902844061043,0,-3,-1,-1,0,-2,-9,-4
1526902844061043,-4,-11,-4,-3,-2,-8,-8,-13
1526902844081987,0,6,1,2,0,2,-6,0
1526902844081987,22,8,2,2,0,-11,-1,3
1526902844082984,-40,9,-3,-4,-7,-8,18,-7
1526902844082984,4,5,2,1,4,23,-4,7
1526902844095949,-7,-11,2,1,-1,-6,-6,5
1526902844095949,-7,-16,-9,-1,-2,0,-1,-12
1526902844102931,7,3,-2,-1,-2,-4,-3,1
1526902844102931,13,-7,0,0,0,-2,-2,0
1526902844118888,-15,-1,-3,-3,-1,6,-8,-2
1526902844118888,4,9,2,3,0,-7,4,-4
1526902844120883,7,-6,-2,0,-2,1,-13,0
1526902844120883,-3,-8,-5,-4,-3,-4,19,-1
1526902844141827,-4,6,0,-1,0,-1,-16,-5
1526902844141827,-5,-7,-3,-4,0,-3,2,-8
1526902844142824,39,9,4,-5,-3,-9,-11,24
1526902844142824,-27,-15,3,7,0,0,-6,-24
1526902844154792,35,4,-7,-3,-1,-2,-4,5
1526902844154792,2,11,0,-2,-1,1,1,-1
1526902844163768,-29,-14,-4,-4,-3,-1,-9,-11
1526902844163768,30,10,1,-3,-3,-10,1,12
1526902844178728,6,-3,2,1,3,13,4,1
1526902844178728,-25,-3,-1,-2,1,-3,-3,-8
1526902844180723,3,-2,-3,-2,0,-2,-23,-6
1526902844180723,14,2,0,-1,2,-7,4,3
1526902844201667,-24,-3,-1,0,-2,-3,-7,-9
1526902844201667,4,0,-4,-2,-3,-1,-3,8
1526902844202664,-6,-4,-1,1,0,-2,4,-7
1526902844202664,-5,-15,0,2,3,12,0,19
1526902844215629,14,28,-2,-2,-4,-11,5,1
1526902844215629,-18,14,3,0,-2,-9,-4,-4
1526902844224606,0,-9,1,2,1,6,8,-3
1526902844224606,4,5,-1,-4,-1,-4,-15,-4
1526902844238568,-14,-15,1,0,-2,-5,-5,-4
1526902844238568,-4,-9,-4,-3,-3,8,-13,8
1526902844240563,9,-11,-2,1,0,-3,10,-8
1526902844240563,-1,4,-4,-4,-1,1,-6,0
1526902844261507,5,-5,1,-2,0,2,-3,-4
1526902844261507,-4,16,0,0,2,1,1,9
1526902844263502,3,1,6,3,0,-6,-6,5
1526902844263502,-3,-3,-3,-1,1,18,7,-6
1526902844275469,10,1,-5,-5,-3,2,8,5
1526902844275469,23,1,5,8,5,-2,-7,0
1526902844284445,-4,-1,-3,-1,-2,-3,0,-2
1526902844284445,13,11,-3,-3,-2,-12,14,1
1526902844299405,-13,20,8,-3,-1,9,2,1
1526902844299405,-6,-22,-3,-3,-1,3,-4,-4
1526902844300403,16,17,-9,-1,2,1,10,0
1526902844300403,-9,-3,6,4,-1,-4,-4,0
1526902844321347,7,-4,-2,-1,2,1,-2,2
1526902844321347,0,-3,4,0,-2,-1,12,-2
1526902844323341,-15,-8,6,3,0,-9,-8,-4
1526902844323341,2,-1,-9,-5,0,14,-2,-3
1526902844335309,-1,-5,-4,-2,-2,-2,3,7
1526902844335309,-1,1,-1,-1,-1,-5,1,-14
1526902844344286,-4,1,-3,-4,-2,5,3,7
1526902844344286,8,-1,0,0,-4,-9,-24,4
1526902844359245,-19,-8,2,6,2,0,1,-5
1526902844359245,28,11,0,0,0,-1,0,6
1526902844360243,-40,-10,-5,-3,-1,3,11,-10
1526902844360243,32,7,0,-3,-1,-2,0,25
1526902844381186,-79,-23,-9,-2,-1,-10,-19,-32
1526902844381186,39,7,-6,-9,-6,10,4,32
1526902844383182,-24,-3,6,4,2,2,0,-27
1526902844383182,-37,-28,-2,5,1,-4,-2,1
1526902844395149,23,16,2,2,1,-1,-1,-5
1526902844395149,-1,-7,-6,-5,-3,-5,2,-1
1526902844404125,7,-8,-12,-6,-3,2,0,7
1526902844404125,18,31,18,5,0,-4,-4,-20
1526902844419085,-28,-14,-1,-2,0,3,0,12
1526902844419085,-33,-5,-2,-2,0,-3,9,-7
1526902844421080,-1,-15,-5,-4,-3,-2,-5,-2
1526902844421080,-20,-7,-12,-8,-4,-7,-8,-5
1526902844442024,15,4,0,3,0,0,-4,-9
1526902844442024,21,-2,5,-1,-1,-3,6,5
1526902844443021,-20,2,3,2,4,17,8,-4
1526902844443021,-6,0,-4,-4,-4,-10,-5,1
1526902844454989,20,0,4,-1,-1,1,8,9
1526902844454989,-14,17,-4,0,-4,-5,-11,-18
1526902844463966,-10,-5,1,0,-1,-2,-8,-2
1526902844463966,2,-6,-6,-5,-3,7,23,4
1526902844478925,18,-8,-1,1,0,-12,-2,12
1526902844478925,-15,-5,-1,3,3,16,2,-21
1526902844480920,32,10,-1,1,-1,-4,-5,13
1526902844480920,2,4,0,1,1,4,-6,-6
1526902844501864,-4,5,-1,-2,-2,-3,-3,3
1526902844501864,-10,-7,-1,0,-1,-4,1,-6
1526902844502861,15,-5,-4,-2,-1,-4,-6,-22
1526902844502861,15,-15,-2,-2,-1,1,3,57
1526902844514829,16,2,1,1,2,4,1,-2
1526902844514829,4,5,3,0,-2,-7,-11,-5
1526902844523805,22,13,5,3,-3,-1,1,4
1526902844523805,-25,-5,0,0,0,-4,-1,-23
1526902844538765,1,-2,-5,-4,-3,3,0,7
1526902844538765,4,-4,0,0,2,2,8,9
1526902844540760,-4,-2,-1,0,0,3,-10,-3
1526902844540760,13,3,-1,0,0,-3,-8,-16
1526902844561704,-7,15,1,-1,-1,1,11,12
1526902844561704,-15,-15,-4,0,1,1,-3,-15
1526902844562701,0,8,2,-3,-2,-1,6,1
1526902844562701,18,-1,1,0,1,2,-2,8
1526902844575666,-19,-11,-5,-3,-3,-5,-6,-20
1526902844575666,14,8,-2,0,0,-4,5,30
1526902844584643,3,13,-3,-2,-1,-4,-3,-2
1526902844584643,9,11,4,-1,1,2,0,-1
1526902844598605,3,1,2,0,-1,1,0,-4
1526902844598605,-11,-18,-4,-3,-2,-3,-4,-6
1526902844605586,0,-8,-2,0,-1,0,3,2
1526902844605586,-7,6,-2,1,0,-5,-5,-13
1526902844621544,1,-6,-2,-2,-2,1,0,5
1526902844621544,10,5,3,0,-1,0,2,0
1526902844623539,7,3,1,-2,0,-6,-7,2
1526902844623539,-19,-4,0,1,-2,-4,-3,-24
1526902844635506,10,-6,-1,0,-1,2,-3,8
1526902844635506,5,1,-2,-1,-1,0,3,9
1526902844644483,14,-5,-2,0,0,-1,4,2
1526902844644483,-20,-8,-3,-2,-3,3,-2,-76
1526902844659442,27,9,-4,-3,-4,0,1,65
1526902844659442,-26,-1,1,3,0,-6,-3,-21
1526902844660440,-1,-7,-4,-5,-1,3,7,43
1526902844660440,0,-13,-3,-3,-3,0,-8,-5
1526902844681384,-10,-5,2,1,0,-4,3,-24
1526902844681384,-3,-8,-1,-2,0,4,7,-20
1526902844683379,-11,6,-1,1,0,-6,-6,29
1526902844683379,9,-24,-5,-4,-1,4,8,31
1526902844695346,4,36,6,5,1,-1,-10,-3
1526902844695346,7,14,1,-1,-1,-2,1,3
1526902844704323,-41,-16,-4,0,-2,-4,1,-33
1526902844704323,4,4,2,-1,0,-2,-4,12
1526902844718285,8,-22,-7,-2,0,3,5,1
1526902844718285,-9,-3,-2,-3,-2,0,-6,-4
1526902844725266,8,3,0,-2,-2,1,1,-6
1526902844725266,10,10,4,4,2,-4,-5,9
1526902844741224,-23,3,3,0,0,-1,-3,-34
1526902844741224,11,-5,-3,0,0,-1,3,40
1526902844743219,-41,-42,-7,-4,-4,-5,-13,-28
1526902844743219,9,34,5,1,0,-1,2,13
1526902844755186,-30,-29,-2,0,0,3,1,-17
1526902844755186,27,15,-1,-3,-6,-6,-9,17
1526902844764163,-20,-9,-2,-1,-1,2,-14,-5
1526902844764163,-3,11,3,1,1,0,15,12
1526902844778125,-6,9,1,-1,-1,-5,-11,-5
1526902844778125,-23,-26,-8,-3,-1,1,9,-3
1526902844785106,18,25,1,1,-1,1,-1,-29
1526902844785106,2,6,1,-1,-3,-1,-1,8
1526902844801063,44,10,-3,-3,0,3,6,23
1526902844801063,-62,-18,-3,-1,0,-4,-9,-24
1526902844803059,22,15,0,-1,-1,1,6,16
1526902844803059,-13,-25,-1,3,0,-2,-5,-19
1526902844824002,17,22,3,1,-2,-1,6,-4
1526902844824002,10,-1,2,1,0,-3,-12,7
1526902844825997,-30,-6,-1,-3,-2,-5,-1,7
1526902844825997,-16,-6,-4,-5,-2,-4,-6,-8
1526902844837965,2,-17,-3,-2,-1,0,-1,9
1526902844837965,5,6,-2,-1,-1,1,-3,-16
1526902844844946,20,12,-4,0,-1,0,6,5
1526902844844946,17,-3,-3,0,-1,-2,-3,-32
1526902844861901,-9,-15,-2,-1,0,0,0,41
1526902844861901,14,9,2,-1,-1,-2,-2,-3
1526902844862899,6,-16,-2,1,1,2,4,6
1526902844862899,-6,14,-1,-2,-2,-5,-1,7
1526902844883842,4,7,3,1,0,4,1,-27
1526902844883842,21,-2,-3,0,-2,-2,1,11
1526902844885837,7,-8,0,1,-1,-2,0,14
1526902844885837,5,2,-3,-1,-2,-4,-12,11
1526902844898802,-48,-3,0,0,-3,-18,-18,-36
1526902844898802,-1,-3,4,1,4,16,25,7
1526902844904786,-1,11,3,1,-1,-4,2,-22
1526902844904786,13,7,-1,1,1,5,-5,5
1526902844921741,-5,-8,-6,-4,-4,-11,-1,5
1526902844921741,20,-13,-2,0,-2,1,-5,-15
1526902844922738,-2,3,3,3,2,0,12,-12
1526902844922738,-12,-3,1,-1,-2,-12,-39,16
1526902844943682,4,6,-2,-1,-1,1,4,2
1526902844943682,-9,2,2,-2,-1,-2,1,-7
1526902844945677,35,18,5,2,-1,7,5,-16
1526902844945677,1,-11,-2,0,-2,8,6,11
1526902844958642,-49,-4,-2,-1,-1,-2,7,-2
1526902844958642,2,3,-2,0,2,8,-9,0
1526902844965624,8,2,0,-3,-2,-2,-7,-16
1526902844965624,27,-5,0,-3,-3,-8,33,22
1526902844981581,-19,-6,-1,0,2,23,-3,-4
1526902844981581,15,14,2,1,1,3,7,1
1526902844983576,-25,-9,0,0,-1,-1,-4,8
1526902844983576,7,5,-1,-2,-1,-3,-10,-21
1526902845004519,11,-3,-2,-2,1,0,5,-2
1526902845004519,-4,7,-3,1,-1,-10,-11,-6
1526902845005517,-3,23,6,1,-1,1,-4,-4
1526902845005517,-7,-29,-12,-4,-1,2,0,16
1526902845018482,19,0,3,1,0,-3,1,-3
1526902845018482,-9,0,-1,-3,-3,-8,-5,-4
1526902845025463,27,1,-3,-3,-1,-1,2,16
1526902845025463,-17,-3,0,0,-1,0,11,-10
1526902845041421,17,7,-5,-3,-2,2,10,4
1526902845041421,1,-2,3,2,2,0,-4,-2
1526902845043416,1,-14,-2,0,-2,-1,-5,-7
1526902845043416,-13,4,4,1,0,1,2,-1
1526902845064360,5,-3,-1,-4,-1,6,1,14
1526902845064360,1,-3,-5,-4,-7,-21,-13,-15
1526902845065357,2,-3,0,0,4,10,11,7
1526902845065357,-16,-4,-8,-9,-5,-5,-4,-19
1526902845078322,14,-1,4,7,3,2,-13,2
1526902845078322,-50,9,0,-3,-2,-10,5,12
1526902845085303,-7,-4,-1,-2,-1,1,1,2
1526902845085303,8,-5,0,3,1,-5,-6,-7
1526902845101261,12,4,1,1,-1,-2,-7,-6
1526902845101261,-10,1,1,0,1,11,10,-7
1526902845103256,-18,-14,-6,-4,-5,-9,-7,-8
1526902845103256,2,5,0,1,0,1,-5,14
1526902845124199,22,9,0,-1,-2,-11,-28,-1
1526902845124199,-7,-12,-1,4,3,13,2,14
1526902845125197,5,0,0,-2,-1,-5,-2,3
1526902845125197,1,0,1,-1,0,9,2,3
1526902845137165,1,-4,-1,-2,-4,-15,3,-3
1526902845137165,-15,-7,-7,-4,-3,-7,-7,-25
1526902845147138,3,-14,-1,2,1,6,19,12
1526902845147138,12,26,3,1,2,3,12,10
1526902845161101,-21,-10,-3,-5,-2,-2,0,-8
1526902845161101,8,-3,-2,-1,-2,-5,-6,-14
1526902845163096,-6,-7,-5,-5,-5,-17,-19,0
1526902845163096,-23,-1,1,2,2,18,25,-17
1526902845184040,33,-1,-6,-2,-1,1,-16,3
1526902845184040,5,-1,7,2,-1,-9,-4,-8
1526902845186034,16,24,-1,-1,1,12,-6,29
1526902845186034,-12,-4,1,-1,-5,-15,-10,-6
1526902845198002,6,0,3,0,10,36,55,6
1526902845198002,-4,-16,-5,-4,-8,-34,-34,3
1526902845206978,-5,6,-3,1,-2,-13,-9,2
1526902845206978,8,28,7,3,3,6,1,3
1526902845221938,-11,-12,-3,-1,-5,-8,-16,-5
1526902845221938,5,6,0,2,4,29,46,-9
1526902845222936,-2,-6,1,0,0,-4,6,7
1526902845222936,11,3,1,-2,-1,-5,-10,18
1526902845243879,-28,-13,-2,0,-1,11,-3,-38
1526902845243879,8,27,4,0,-2,-2,-21,33
1526902845245874,-34,-6,-6,-2,-6,-3,-9,-12
1526902845245874,-5,-15,0,-5,-3,0,3,-24
1526902845257842,55,18,9,6,1,-11,-4,66
1526902845257842,2,-20,-7,0,-1,3,8,-18
1526902845266818,33,14,2,-1,-1,8,9,-3
1526902845266818,-32,-3,3,3,1,-7,-16,11
1526902845281778,-23,-17,-7,-4,-3,-5,7,-10
1526902845281778,7,-9,-10,-6,-1,5,2,0
1526902845282776,-34,5,2,2,0,1,-1,-13
1526902845282776,1,-10,-1,0,0,-1,4,-7
1526902845303719,-47,-13,-4,-1,-2,-7,-8,-16
1526902845303719,15,2,3,-2,2,7,4,9
1526902845305714,8,-33,-8,-4,-2,-4,-4,-2
1526902845305714,9,30,-1,0,-1,-3,-2,7
1526902845317682,-13,8,2,1,-1,2,6,-4
1526902845317682,19,-19,-4,-1,-1,1,-21,-17
1526902845326658,-16,5,-3,-3,-5,-13,-2,16
1526902845326658,-16,-32,-7,-3,-1,5,4,-2
1526902845341618,13,11,-4,-4,-3,-8,-12,-10
1526902845341618,19,19,3,0,-1,2,9,-6
1526902845343613,9,-5,2,0,0,1,-7,-13
1526902845343613,14,1,-1,1,2,4,0,6
1526902845363559,-20,4,6,4,2,-2,7,-13
1526902845363559,-13,0,0,0,-3,-8,-4,-13
1526902845365554,-13,-3,1,-3,2,3,-3,-14
1526902845365554,8,-2,-4,0,2,7,3,10
1526902845377522,0,-12,-4,-4,-2,1,4,1
1526902845377522,-2,10,1,-3,-1,-4,-3,0
1526902845386498,-3,4,1,3,2,-3,0,-5
1526902845386498,6,-5,-3,-4,-5,-6,-2,-1
1526902845401458,10,-2,-4,-5,-3,-5,-2,6
1526902845401458,-16,-11,-5,-2,-1,1,1,27
1526902845403453,13,12,0,-2,-4,1,1,-4
1526902845403453,-3,1,0,0,0,-1,-3,-10
1526902845424397,6,-1,2,0,-1,-1,-4,-1
1526902845424397,-38,-6,-2,-1,-1,-1,-1,9
1526902845425395,23,-4,1,2,1,3,4,-8
1526902845425395,-24,-7,-2,0,-1,-3,-2,5
1526902845437362,12,10,-1,-3,-2,-2,-7,1
1526902845437362,15,-9,-4,-1,1,1,3,-1
1526902845446338,26,-2,3,1,-1,4,1,-3
1526902845446338,-37,2,-4,-1,-3,-5,-4,-6
1526902845461298,7,0,-1,2,0,-1,1,10
1526902845461298,-1,-7,-3,-3,-2,0,-1,-4
1526902845463293,6,11,5,4,5,8,6,-16
1526902845463293,-15,-13,2,1,-4,-9,-3,-4
1526902845484237,5,-8,-17,-7,-2,-1,-2,5
1526902845484237,6,33,16,5,1,-1,0,-12
1526902845485234,1,-15,-4,-1,0,-2,-2,-1
1526902845485234,-8,16,3,1,1,2,-2,-1
1526902845497202,-1,-9,3,0,0,1,4,0
1526902845497202,15,-4,-7,-3,-3,1,9,8
1526902845507176,-4,7,-2,-6,-1,-2,-7,-5
1526902845507176,-6,-8,5,1,0,2,1,8
1526902845521138,25,12,3,3,-1,-3,-1,1
1526902845521138,-33,-11,-1,1,0,0,0,-2
1526902845523133,14,2,0,0,-2,-3,1,36
1526902845523133,0,-10,-11,-5,-3,-4,5,-20
1526902845544076,-2,7,4,-3,0,10,9,10
1526902845544076,3,5,1,-1,-4,-4,-9,-9
1526902845546071,-3,2,6,4,0,-3,3,-21
1526902845546071,0,-6,-7,0,-1,-2,-7,27
1526902845558039,-12,1,3,-1,-1,-8,-5,-15
1526902845558039,-14,-5,0,-2,1,-1,-1,-12
1526902845567015,-12,-17,-10,-5,-3,2,-1,7
1526902845567015,48,14,0,-4,-3,-4,-3,7
1526902845581975,-27,3,2,3,0,-2,-6,-16
1526902845581975,4,-4,2,4,1,2,1,-7
1526902845582973,7,16,0,0,-1,-3,-1,18
1526902845582973,19,4,-1,-2,0,3,1,9
1526902845603917,2,5,-1,0,0,1,3,-1
1526902845603917,-2,-21,-4,-5,-4,-4,-10,-1
1526902845605912,-31,8,-3,-1,0,0,-1,-7
1526902845605912,-16,-7,1,-1,-1,1,4,-5
1526902845617879,26,5,1,0,2,3,-4,3
1526902845617879,-44,0,1,0,-3,-4,6,-3
1526902845626856,17,-3,0,1,-1,-2,-6,-2
1526902845626856,9,-4,-2,0,1,0,0,0
1526902845641815,-7,2,2,1,-3,-2,2,-31
1526902845641815,-4,-2,-3,-2,-1,8,-23,12
1526902845642813,-25,-6,-5,-4,-4,-13,0,5
1526902845642813,19,1,0,-2,1,18,-2,3
1526902845663756,-2,2,1,2,-1,1,1,11
1526902845663756,25,6,-4,-2,-2,-8,-8,-12
1526902845665751,-8,-13,1,1,0,0,-8,-15
1526902845665751,-5,-10,-4,-3,-4,-9,-2,5
1526902845677719,-9,-2,-2,-2,-3,-6,-7,-22
1526902845677719,11,7,1,0,2,5,3,7
1526902845686695,-13,-22,-5,-2,-3,-3,0,16
1526902845686695,-43,2,-3,-3,-1,-2,0,-35
1526902845700658,-19,-8,-2,-1,-2,-4,2,57
1526902845700658,31,-1,-1,1,1,-3,3,-4
1526902845707639,-2,23,3,0,1,3,5,-1
1526902845707639,13,-9,-2,0,-1,1,2,1
1526902845723596,-14,4,-1,-1,1,-1,-4,-10
1526902845723596,-1,9,-1,-2,0,0,4,-20
1526902845725591,15,-3,-1,-2,1,1,5,28
1526902845725591,-19,-1,2,1,-1,-1,-3,-12
1526902845737559,6,-6,-3,-2,-2,-3,-3,-18
1526902845737559,-4,-3,-2,-1,-2,-7,-6,-3
1526902845746535,10,0,-2,-3,-1,4,13,-1
1526902845746535,-21,-4,1,2,-1,-10,-21,-14
1526902845760498,-27,-15,-1,-2,0,2,3,5
1526902845760498,38,-2,-1,1,0,2,22,32
1526902845767479,-28,5,-3,-3,2,11,-39,-15
1526902845767479,16,-14,-3,-2,-2,8,6,14
1526902845784434,4,-1,-2,-2,-1,-2,-6,1
1526902845784434,-5,3,0,1,0,-2,3,-6
1526902845785431,-14,-21,-5,0,-3,-4,8,-24
1526902845785431,45,17,8,5,2,-1,3,38
1526902845806375,52,22,3,2,0,2,-4,27
1526902845806375,-40,-17,-7,-6,-3,-3,-3,-13
1526902845808370,16,7,-1,0,-2,-1,6,-6
1526902845808370,-3,-1,-1,0,0,0,0,-4
1526902845821335,0,0,-1,-2,-1,-3,0,-8
1526902845821335,22,0,-2,-3,-1,-1,-2,7
1526902845827319,-9,-6,0,0,0,-2,0,7
1526902845827319,20,4,-3,-3,1,-1,4,-2
1526902845844274,-6,-5,-3,-2,-1,1,-3,-6
1526902845844274,-17,17,5,0,-2,-3,-4,-18
1526902845845272,-9,-12,-3,1,-2,-3,-3,-5
1526902845845272,22,7,2,-1,-2,-4,1,-6
1526902845866215,-7,-2,-4,-3,-2,-2,6,22
1526902845866215,-4,-8,-3,0,2,3,-12,-4
1526902845868210,10,5,-1,-4,-2,-5,-19,1
1526902845868210,-5,14,1,-1,-3,-6,11,10
1526902845881175,-8,-13,-2,0,0,-2,-5,-13
1526902845881175,17,14,7,1,-2,0,1,4
1526902845888156,53,6,0,-1,1,3,17,32
1526902845888156,-28,-8,0,0,2,7,1,-10
1526902845904114,0,0,-5,-2,-1,-4,-1,-5
1526902845904114,5,9,2,2,0,-7,1,5
1526902845906109,-11,5,3,2,0,4,13,-14
1526902845906109,5,-6,-5,-3,-3,-7,-17,2
1526902845926055,-10,-7,1,1,1,0,2,-12
1526902845926055,-7,-1,-3,-1,0,1,1,-4
1526902845928050,-2,5,0,-1,0,2,10,1
1526902845928050,-9,-1,0,0,0,2,2,-2
1526902845941015,18,5,3,0,-3,7,15,-5
1526902845941015,-23,-13,-7,-2,-1,-13,-17,4
1526902845947996,-1,0,3,0,0,0,-3,-7
1526902845947996,3,12,1,-1,-1,-4,-2,8
1526902845963954,1,-1,-3,-3,-3,-4,-5,-10
1526902845963954,13,-3,0,0,0,6,3,0
1526902845965948,-74,-18,-3,-1,-2,-7,17,-25
1526902845965948,13,1,-5,-4,-2,2,2,10
1526902845986892,4,5,-1,1,3,3,3,13
1526902845986892,6,-3,-2,-2,-2,2,12,-12
1526902845987890,-22,-6,-5,-1,-2,-5,-19,-3
1526902845987890,27,7,7,2,1,0,4,-1
1526902846000855,-15,-4,-1,0,0,-2,-1,-5
1526902846000855,-19,-37,-5,-2,-1,-2,-1,-2
1526902846007836,24,30,5,0,-2,-6,-9,-3
1526902846007836,-8,-19,-8,-2,-4,6,2,-6
1526902846023793,4,-2,-5,-4,-8,-10,-23,4
1526902846023793,-18,7,2,5,31,17,10,-1
1526902846025789,55,3,-1,-2,0,14,15,5
1526902846025789,-62,-10,-5,-2,0,-8,-2,-1
1526902846046732,-23,-4,3,1,-8,-5,-11,-21
1526902846046732,9,-1,-4,-5,-11,0,4,5
1526902846047730,-19,-8,0,1,3,-7,-4,-5
1526902846047730,49,8,1,-1,0,9,0,20
1526902846059698,-9,-16,-4,-1,1,-6,-6,-5
1526902846059698,-2,25,5,1,-6,-6,-9,-12
1526902846069671,0,2,0,-1,0,5,14,10
1526902846069671,-1,1,-4,-3,-5,-18,-52,-6
1526902846083634,-7,-6,-1,0,3,9,8,-5
1526902846083634,8,-3,-2,-1,-1,3,4,8
1526902846085628,6,-7,0,-3,-5,4,-1,0
1526902846085628,-5,6,5,7,5,2,12,-9
1526902846106572,8,3,1,-1,3,-2,0,7
1526902846106572,-7,-10,-4,-3,-6,2,-5,0
1526902846108567,26,6,0,0,-1,-2,-7,5
1526902846108567,-25,5,1,-4,-2,-3,3,-11
1526902846120535,5,2,-1,0,3,-4,-4,4
1526902846120535,4,-4,-5,-3,-4,-7,3,-1
1526902846129511,-32,-21,-5,-2,0,-3,-6,-9
1526902846129511,13,1,-1,-2,-1,-2,4,7
1526902846144471,-10,15,4,1,-1,4,4,-3
1526902846144471,3,-4,3,4,0,-4,-4,-18
1526902846145469,10,-1,-6,-3,2,-3,-1,22
1526902846145469,16,-5,-1,-1,1,1,4,-10
1526902846166412,-29,-8,-6,-5,-2,0,1,0
1526902846166412,-10,5,2,-1,-2,-3,-3,1
1526902846168407,-7,-1,-2,-1,0,-1,-7,-9
1526902846168407,3,-10,0,2,-1,1,6,1
1526902846180375,18,10,-1,2,1,1,1,5
1526902846180375,14,15,0,-2,-3,-3,-2,3
1526902846189351,-9,0,5,5,0,2,0,-8
1526902846189351,-12,-12,-4,-4,0,1,2,-2
1526902846204311,-12,-2,1,0,2,-4,0,-4
1526902846204311,32,4,-2,-1,-1,0,1,13
1526902846205308,-34,-8,-3,-3,-1,0,-1,-9
1526902846205308,29,11,0,-1,-2,-4,-12,3
1526902846226252,-5,-4,0,0,-3,-1,-5,1
1526902846226252,0,-7,0,0,0,3,2,0
1526902846228247,5,4,1,-4,-3,-7,-4,-5
1526902846228247,6,-8,-5,-3,2,7,7,22
1526902846240215,4,-3,-2,-4,-1,1,0,-22
1526902846240215,-8,6,3,0,-3,-5,-3,10
1526902846249191,-16,-4,0,1,1,-1,-1,-10
1526902846249191,4,7,-3,-1,0,-5,3,1
1526902846264151,15,-8,5,-1,-2,-1,-2,5
1526902846264151,-21,8,1,-1,-3,-2,0,-12
1526902846266146,2,-5,-2,1,-1,-2,-3,0
1526902846266146,-8,4,3,0,-1,-1,1,-5
1526902846286092,5,-8,-6,-4,2,4,1,5
1526902846286092,1,-6,-5,-2,-1,-4,0,-5
1526902846288087,21,9,2,2,1,1,2,8
1526902846288087,-25,-8,-1,1,-1,-2,-1,-5
1526902846300055,12,18,-6,-4,-4,-3,0,6
1526902846300055,4,-1,2,2,0,2,1,-8
1526902846309031,10,0,-3,-1,-1,1,-4,-2
1526902846309031,-3,-5,-1,-1,-1,-3,2,-1
1526902846323991,-16,0,-1,0,0,-1,-1,-7
1526902846323991,-4,-8,-3,-2,-2,-2,-4,1
1526902846325986,-4,-22,1,0,-1,-3,0,-1
1526902846325986,6,64,6,1,-1,0,-4,-30
1526902846347927,46,-6,1,0,-2,-10,1,25
1526902846347927,2,-5,-1,-3,-3,9,-1,-4
1526902846349922,7,-6,-4,-3,-3,-1,1,10
1526902846349922,-20,-6,2,-3,0,-5,-4,3
1526902846359895,-25,0,2,3,2,6,12,-21
1526902846359895,-9,5,-6,-3,-2,-5,-2,2
1526902846368871,18,7,0,-4,-3,3,-2,-1
1526902846368871,3,-17,0,0,1,0,7,7
1526902846383831,-9,-12,-3,2,2,-3,-6,-7
1526902846383831,5,14,8,1,1,-2,0,8
1526902846385826,-12,8,-2,1,0,1,-3,-5
1526902846385826,-3,-19,-7,-3,-2,-1,2,5
1526902846406769,-21,-6,-3,-3,-3,2,-2,-2
1526902846406769,-1,-32,-11,-1,-1,0,-3,-12
1526902846407767,0,30,6,0,1,0,3,13
1526902846407767,-6,-28,-10,-2,-3,-5,-5,6
1526902846419735,0,11,1,-3,-3,1,-3,0
1526902846419735,4,-4,1,-2,-2,0,-3,-7
1526902846428711,-20,7,-1,-2,-2,-1,-9,-4
1526902846428711,0,-12,-2,0,-2,-1,-4,-8
1526902846443671,-11,-8,-2,0,1,-2,2,8
1526902846443671,-3,-3,-2,1,1,3,-7,2
1526902846445666,6,-10,-3,-3,-5,-19,-3,-14
1526902846445666,-15,12,0,-1,-1,18,18,-3
1526902846466609,37,14,-2,-2,1,3,4,12
1526902846466609,-9,-9,-6,-4,-2,-4,0,-6
1526902846468604,14,-11,4,0,1,3,-3,25
1526902846468604,4,10,3,1,-1,-7,-7,-4
1526902846480572,-20,-11,0,-2,-3,-3,-2,-10
1526902846480572,-37,-8,-2,1,1,1,10,-22
1526902846489548,19,4,-7,-5,-3,-4,-12,27
1526902846489548,-6,-9,-3,-2,0,-3,-1,0
1526902846504508,22,10,3,1,-1,0,-4,-3
1526902846504508,-21,-6,0,-3,0,1,2,-7
1526902846505506,-12,-7,-5,0,-3,2,4,-14
1526902846505506,-5,-9,-1,-1,-1,-4,-4,1
1526902846526450,-3,4,-1,1,-1,-4,6,0
1526902846526450,24,19,4,-1,-1,-1,-1,8
1526902846528444,-19,-11,-1,-1,0,1,-7,-14
1526902846528444,16,10,-4,-1,-2,0,-2,0
1526902846540412,19,-16,3,0,1,7,-1,7
1526902846540412,-6,-3,-1,-1,-1,-1,5,-3
1526902846549389,-19,2,2,2,1,-7,-2,-21
1526902846549389,-1,-9,0,-2,1,6,-1,-2
1526902846564348,9,11,-4,-2,-2,-8,-8,13
1526902846564348,-1,-7,-1,0,1,8,-4,5
1526902846565346,1,-8,-2,-3,-2,-1,4,-9
1526902846565346,0,3,0,-1,-2,-6,-18,-5
1526902846586289,-7,2,1,1,1,-5,0,0
1526902846586289,14,-2,2,2,0,-4,1,12
1526902846588284,25,3,-6,-3,-2,4,1,-1
1526902846588284,-22,-19,-1,0,-1,-5,1,-2
1526902846600252,-16,14,1,-1,-1,2,4,2
1526902846600252,-6,15,0,-3,-2,-7,-3,-10
1526902846609228,42,12,0,0,2,16,6,1
1526902846609228,-7,7,4,0,0,-10,-10,6
1526902846623191,-23,-23,-5,-4,1,-1,6,-14
1526902846623191,0,-4,-1,1,-3,-4,-5,3
1526902846630172,8,0,-2,0,0,0,4,6
1526902846630172,7,-2,1,1,1,1,-3,-3
1526902846646129,-17,10,-1,-2,-3,-1,-12,15
1526902846646129,10,-9,-3,-1,-2,-1,1,0
1526902846648124,-37,-4,-1,0,2,1,11,-7
1526902846648124,23,-3,-3,-2,-2,-6,1,3
1526902846660092,-7,-11,1,0,-1,3,-8,-10
1526902846660092,11,6,-3,-2,-3,-8,12,3
1526902846669068,-5,4,3,2,-1,3,5,-1
1526902846669068,-31,-9,-3,-2,-1,2,12,2
1526902846683031,28,17,-2,-4,-3,0,-5,3
1526902846683031,-15,-2,-1,1,1,-7,-4,-10
1526902846690012,-15,-1,1,2,3,4,-13,-15
1526902846690012,14,2,0,-1,-2,2,15,3
1526902846706967,-12,-6,-4,-1,-1,4,-5,-6
1526902846706967,-4,-20,-4,-1,-2,-2,-4,-2
1526902846707964,-8,-5,-1,-2,-1,-8,-1,4
1526902846707964,7,3,-1,-1,1,4,3,17
1526902846728908,-10,-3,0,1,0,-1,-3,-27
1526902846728908,18,9,-1,-3,-2,-1,-5,7
1526902846730903,-18,-10,1,0,0,-3,1,6
1526902846730903,9,-2,0,0,0,3,-3,5
1526902846743868,-34,-9,-3,-3,-3,-9,-3,-12
1526902846743868,0,-4,1,-2,0,1,4,-2
1526902846749852,1,5,-2,-3,-3,-5,-9,1
1526902846749852,-13,17,4,2,0,2,9,-8
1526902846766806,11,-9,0,2,2,-1,0,-5
1526902846766806,-19,-11,-2,-2,-1,1,-10,-13
1526902846767804,8,10,-5,-4,-2,-11,-8,13
1526902846767804,0,-5,-2,0,0,16,3,8
1526902846788748,7,1,-1,-1,0,-6,13,-6
1526902846788748,6,4,3,1,2,4,-3,3
1526902846790743,-3,9,1,-1,-1,-10,-6,-2
1526902846790743,-1,-3,-5,-4,-4,-3,3,-11
1526902846803708,5,-3,0,-2,1,5,3,5
1526902846803708,13,3,0,0,0,1,-5,4
1526902846809692,-36,-5,-3,-2,-3,2,9,-3
1526902846809692,18,-4,-1,-1,-1,-8,-9,-5
1526902846826647,33,15,-1,1,-2,-2,-2,7
1526902846826647,-46,5,2,-2,-1,1,2,-4
1526902846828641,29,-7,-3,-2,-1,0,-1,6
1526902846828641,-13,-13,-3,-3,0,0,-4,-14
1526902846848588,17,12,0,1,-1,-4,-5,-2
1526902846848588,-17,-4,-3,-2,-2,0,-1,1
1526902846850583,6,-5,-1,0,-2,4,1,-1
1526902846850583,-7,-3,2,0,-1,-7,-7,0
1526902846863548,9,8,-1,1,1,0,2,3
1526902846863548,19,-1,-4,-1,-2,-2,-1,2
1526902846870529,-21,-9,-2,-2,-1,3,1,-2
1526902846870529,6,1,1,0,-1,-5,-4,1
1526902846886486,1,-3,1,0,0,0,1,1
1526902846886486,-16,-2,-3,-3,-3,-3,-24,-11
1526902846888482,20,-1,2,3,1,2,6,10
1526902846888482,12,-3,-1,2,-1,-4,-6,-7
1526902846909425,-35,-14,-1,0,-1,-3,-2,7
1526902846909425,8,1,-6,-3,-2,-1,3,-4
1526902846910423,14,0,1,-2,0,-1,-3,-3
1526902846910423,-6,2,-3,-3,-1,0,-5,2
1526902846923388,-2,-7,2,-1,-1,0,0,-1
1526902846923388,14,-2,2,3,2,2,7,9
1526902846930369,2,-12,-5,-2,-2,0,-2,-19
1526902846930369,-15,20,4,-3,-2,-1,4,13
1526902846946327,-24,-5,-5,-1,0,-1,-5,-12
1526902846946327,10,9,2,0,-1,0,-1,3
1526902846948321,12,-4,0,-3,-2,0,-1,4
1526902846948321,6,4,-2,-1,0,0,-1,-2
1526902846969265,17,-2,-1,-1,0,2,0,0
1526902846969265,4,6,3,0,1,-3,5,9
1526902846970263,3,-14,-4,-2,-1,-2,1,2
1526902846970263,-21,2,1,0,-1,-3,-3,1
1526902846982230,5,5,1,-2,-3,-1,-3,-3
1526902846982230,-5,-5,-4,-1,0,1,3,-10
1526902846992204,20,15,3,2,-1,-1,5,11
1526902846992204,7,-4,0,-2,-1,-3,0,-4
1526902847006166,-11,-4,3,2,1,3,6,6
1526902847006166,2,-1,0,-1,0,0,-1,2
1526902847008161,-23,-10,-5,-2,-2,-2,-4,-1
1526902847008161,19,6,-3,-1,0,1,0,0
1526902847029105,-11,-8,-1,-2,-1,-3,-4,-5
1526902847029105,-2,0,1,-1,0,1,5,-5
1526902847031100,-3,-6,1,3,0,3,-11,-5
1526902847031100,8,10,-1,1,-2,-2,12,9
1526902847043068,9,-2,-2,-1,-2,-5,-14,-2
1526902847043068,-17,4,-2,-1,-2,-6,0,-1
1526902847052044,2,-4,-1,-1,1,5,-8,0
1526902847052044,-17,-2,-3,-3,-2,2,8,-8
1526902847067003,-7,-3,1,2,3,11,18,-4
1526902847067003,0,2,0,-1,-3,-20,-33,-4
1526902847068002,-18,-3,0,-1,0,7,4,-5
1526902847068002,17,5,3,2,1,-4,-4,11
1526902847088945,11,7,-2,-1,-1,-7,9,3
1526902847088945,-2,-16,-4,-1,-2,15,4,-8
1526902847090940,0,13,0,-1,-2,-5,-2,1
1526902847090940,-20,-11,-5,-3,-3,-5,0,-13
1526902847102908,10,2,0,-2,-2,0,0,2
1526902847102908,20,1,0,0,0,-2,-2,1
1526902847111884,-55,-18,0,2,0,-2,8,-1
1526902847111884,44,15,0,1,2,3,-5,11
1526902847126844,-8,-5,-3,-3,-3,7,-10,-10
1526902847126844,10,1,-2,-2,-2,-1,3,1
1526902847127841,-10,2,-1,-1,0,-1,-7,-7
1526902847127841,0,1,2,1,0,-2,-2,3
1526902847148785,-14,-18,-3,0,0,-3,-3,-3
1526902847148785,3,14,1,-1,-1,1,6,5
1526902847150780,41,5,3,0,0,7,2,-2
1526902847150780,-21,-2,-5,-1,0,-11,-22,-8
1526902847162747,24,2,-2,-2,-2,-3,11,20
1526902847162747,-7,-9,-2,-1,0,0,-16,-6
1526902847171724,-2,6,0,0,-1,-11,5,2
1526902847171724,-7,-7,2,0,-1,3,4,3
1526902847186684,-4,-19,-4,1,2,6,-4,-16
1526902847186684,-8,0,-6,-4,1,-3,12,-6
1526902847188679,16,17,3,-1,-1,-2,-3,11
1526902847188679,14,-11,0,0,-1,2,-2,0
1526902847208625,-10,10,-4,-3,-1,-4,-16,-1
1526902847208625,6,-4,2,0,-1,1,15,2
1526902847210621,-6,1,-2,-1,-1,-3,-5,-12
1526902847210621,-11,-8,-1,0,-1,0,4,-8
1526902847222588,-4,4,0,-1,-1,-9,-6,-2
1526902847222588,-14,9,0,0,-2,6,2,-3
1526902847231564,5,-8,-4,-2,-1,-1,-11,4
1526902847231564,-3,-6,-1,-2,-1,-2,-3,-9
1526902847246524,-8,3,2,1,-1,0,5,-2
1526902847246524,16,-12,1,2,2,0,0,1
1526902847248519,-27,-2,-1,0,-1,-3,4,1
1526902847248519,-15,0,0,2,0,-2,1,-8
1526902847269462,29,-8,-3,-5,-4,-7,-9,0
1526902847269462,-34,-5,-1,0,3,14,19,9
1526902847270460,6,5,-3,0,-1,-3,-2,-2
1526902847270460,-8,1,1,-2,0,-1,-2,-2
1526902847282427,-10,-10,-1,0,-1,2,4,-1
1526902847282427,2,7,-2,0,-2,-5,-7,-2
1526902847291403,16,-6,-1,-3,0,-1,5,-2
1526902847291403,-33,-9,-6,-1,-3,-1,-3,4
1526902847306364,4,6,3,1,1,0,-1,1
1526902847306364,7,-1,0,-1,-1,3,-3,-1
1526902847308358,-4,7,1,-1,-2,-6,-2,-2
1526902847308358,6,-9,-1,-1,-2,-8,-3,-6
1526902847329302,-22,8,4,1,-2,3,13,3
1526902847329302,8,-18,-8,-2,0,0,-1,-1
1526902847330300,12,6,1,-1,1,-1,-12,5
1526902847330300,-10,-5,1,0,0,5,7,4
1526902847342268,-5,7,-4,0,-3,-6,-9,-8
1526902847342268,0,2,1,-1,-2,-8,-10,-2
1526902847351244,-8,-7,-1,1,-1,9,13,-7
1526902847351244,37,6,-2,-2,1,-11,-6,5
1526902847366204,-1,15,1,-2,0,16,-3,-2
1526902847366204,-3,-10,-1,0,-2,-2,-2,-3
1526902847368198,-10,-9,-4,-5,-2,-2,-4,-1
1526902847368198,0,5,-1,-1,0,2,1,-9
1526902847389142,8,-6,-3,-1,1,-6,-2,-6
1526902847389142,6,7,0,-2,-3,-3,3,-1
1526902847391137,-16,2,-1,-2,-2,0,5,-7
1526902847391137,3,-7,-3,-1,-3,0,3,14
1526902847403105,5,9,2,-1,1,-1,0,1
1526902847403105,-3,1,2,1,1,0,-2,1
1526902847412081,23,0,-1,0,-1,3,6,2
1526902847412081,-14,6,0,-2,-2,-1,-26,-7
1526902847426043,8,-5,-5,-2,-1,0,-9,3
1526902847426043,-3,-1,0,-2,0,-9,-8,-4
1526902847433025,-9,-11,2,0,-2,-6,9,3
1526902847433025,2,-2,-3,-2,0,5,8,1
1526902847448982,-2,1,-1,-1,0,-1,4,4
1526902847448982,-28,0,-5,-3,-2,-1,-11,-17
1526902847450977,15,-10,-3,-1,-2,-3,-10,4
1526902847450977,5,6,2,0,0,-1,-3,-14
1526902847462945,-23,-12,-2,-1,-1,2,9,19
1526902847462945,17,15,3,1,0,4,11,12
1526902847471921,5,5,-2,0,-1,-6,-16,0
1526902847471921,-27,-5,-2,0,-1,-1,0,-1
1526902847486881,13,2,-1,0,0,-4,-2,-13
1526902847486881,-12,-4,1,0,-1,0,2,-3
1526902847487878,14,9,0,-2,-1,-1,3,15
1526902847487878,-9,-7,-2,0,-1,3,1,-3
1526902847508822,8,-8,-2,-1,-1,0,4,2
1526902847508822,8,10,-2,0,-2,-2,-3,-2
1526902847510817,-16,-20,-1,-2,-1,-2,0,-4
1526902847510817,5,14,0,-1,-1,2,1,0
1526902847522785,-1,-4,1,-1,-2,-4,1,-2
1526902847522785,8,-3,-1,-1,-1,2,0,2
1526902847531761,4,-3,2,1,0,2,1,5
1526902847531761,4,10,0,-3,-1,-3,-1,0
1526902847546721,-5,-16,-4,-2,-3,-2,-5,-9
1526902847546721,-6,-5,0,-2,-1,-1,0,-1
1526902847547718,-1,10,-4,0,-1,-2,-1,2
1526902847547718,10,-7,4,0,-1,1,2,4
1526902847568662,-21,5,2,1,-2,0,-3,-2
1526902847568662,-4,-18,-1,-2,-1,0,1,0
1526902847570657,11,26,-3,-3,-1,1,3,10
1526902847570657,21,0,-2,-1,0,-1,0,13
1526902847582625,-30,-6,-9,-4,-1,-2,-4,-15
1526902847582625,33,8,-3,-6,-4,-5,-1,0
1526902847591601,-12,-17,2,5,2,1,-2,-7
1526902847591601,-22,-13,-7,-5,-2,-1,-2,-11
1526902847605563,10,-2,-3,-3,-2,-5,-2,-4
1526902847605563,7,0,-1,-3,-1,1,7,9
1526902847612545,5,6,1,0,1,-1,-9,-4
1526902847612545,-9,-8,-2,-3,-3,-2,-3,-2
1526902847629499,4,-7,-2,0,1,2,8,2
1526902847629499,-2,9,2,0,-1,-3,-11,-11
1526902847630497,-18,8,3,-3,-2,-2,0,3
1526902847630497,35,12,8,4,3,3,4,14
1526902847642465,0,-6,-3,2,-2,-3,-7,-15
1526902847642465,-2,1,3,3,0,0,7,12
1526902847651441,-15,-3,-2,-1,0,-2,1,-3
1526902847651441,19,13,0,-1,-1,4,-2,-10
1526902847665403,20,5,6,-2,-1,-3,-2,12
1526902847665403,-24,-2,-4,-2,-1,-1,-3,-11
1526902847672385,-20,-13,-1,-1,1,3,1,-9
1526902847672385,-33,-12,-4,-2,-1,0,-7,-13
1526902847689340,9,15,2,1,-2,-5,6,6
1526902847689340,-4,5,3,1,2,9,3,2
1526902847690337,10,4,-2,-3,-3,-3,0,7
1526902847690337,-11,-6,-3,-1,-2,0,-4,-10
1526902847711281,-18,-11,-1,-1,-2,-2,-11,-6
1526902847711281,23,16,2,0,0,-7,-4,4
1526902847713276,7,8,-6,-3,1,0,10,6
1526902847713276,3,3,6,2,3,5,3,-5
1526902847726241,11,-9,-2,0,-2,5,7,6
1526902847726241,-8,-12,-6,-3,-4,-4,-8,-5
1526902847732225,25,14,2,-1,1,-1,-21,3
1526902847732225,-17,2,-2,-1,-2,-11,5,-4
1526902847749179,-9,-12,-1,-2,0,3,-8,-5
1526902847749179,3,2,-2,0,2,6,4,4
1526902847751174,2,-6,-2,-2,-2,0,8,-10
1526902847751174,10,7,2,1,-1,-6,-1,12
1526902847771121,2,7,2,0,0,7,1,-1
1526902847771121,-12,-10,-1,1,0,-4,-3,-3
1526902847773116,-4,-5,-10,-3,-2,1,-14,-10
1526902847773116,-9,-12,3,-1,1,-2,8,8
1526902847786080,14,14,-1,-1,-1,-3,1,5
1526902847786080,-17,-9,-2,-2,-2,-3,-4,-7
1526902847793062,-10,-9,-2,-1,-3,-5,-8,-5
1526902847793062,3,-4,-3,0,-2,-1,16,-2
1526902847809019,1,-6,-5,-3,-2,4,-13,0
1526902847809019,25,8,-2,-2,2,3,2,4
1526902847811014,-34,23,8,1,-1,-10,-1,-19
1526902847811014,6,-14,-3,1,0,0,-2,19
1526902847831958,3,3,0,-1,-1,-5,3,-7
1526902847831958,-2,-12,-3,-2,0,-2,1,4
1526902847832956,0,-9,-1,-1,0,4,-1,3
1526902847832956,6,1,-5,-5,-5,-4,20,-4
1526902847845921,-5,1,1,2,0,0,-5,-1
1526902847845921,-11,11,0,2,-1,1,0,-6
1526902847852902,2,1,1,1,-1,-4,3,5
1526902847852902,-6,2,0,0,1,4,-4,0
1526902847868859,-3,-4,-1,0,-1,-5,4,1
1526902847868859,-3,1,0,-2,0,8,13,-9
1526902847870854,12,-13,-2,-2,-1,0,3,11
1526902847870854,-5,11,0,-2,0,-1,-11,-1
1526902847891798,-7,-5,-1,0,1,0,5,-10
1526902847891798,12,-4,1,1,0,-6,-6,4
1526902847892796,-2,0,-2,0,-1,1,4,1
1526902847892796,-3,-5,-4,-1,-1,1,-6,-1
1526902847905760,-6,4,-2,-4,-2,-5,-6,-5
1526902847905760,3,4,3,0,-3,-1,5,9
1526902847919723,3,-16,-2,-1,-1,-2,-14,0
1526902847919723,1,0,1,-2,-2,-3,-14,-7
1526902847928699,-7,2,-7,-2,1,-1,4,-5
1526902847928699,-39,-10,5,3,1,3,-3,-1
1526902847930694,38,4,-2,-3,-4,-7,2,7
1526902847930694,-16,-10,-3,-1,-2,0,-4,-11
1526902847951638,-3,4,0,-2,-1,-4,-6,9
1526902847951638,-2,-8,-2,0,-1,3,2,-2
1526902847953633,-8,8,1,0,-1,-4,1,-10
1526902847953633,7,0,-4,-2,-1,7,-2,14
1526902847965601,-3,5,7,2,2,-1,6,-7
1526902847965601,-1,-2,-8,-3,-2,2,2,-1
1526902847974577,-2,-7,1,1,-1,-9,7,0
1526902847974577,2,-2,-3,-4,-4,4,-2,-4
1526902847989537,9,-13,-2,-1,0,0,0,4
1526902847989537,0,12,2,0,-2,-5,-1,-2
1526902847990534,-4,-13,-4,-1,1,2,8,-2
1526902847990534,-4,7,-1,0,2,-1,-6,3
1526902848011478,7,-1,0,0,-1,-1,3,2
1526902848011478,-4,-4,-1,-2,2,2,-11,-6
1526902848013473,-20,0,1,-1,-1,1,13,-7
1526902848013473,62,4,2,3,-1,-3,1,23
1526902848025440,-15,-3,1,2,0,2,-5,-11
1526902848025440,18,5,-1,-2,-1,-5,1,4
1526902848034417,18,18,-2,1,2,7,0,7
1526902848034417,-42,-8,-3,-4,-2,-4,-4,-13
1526902848049376,-3,0,0,0,0,1,1,-7
1526902848049376,3,-10,-10,-3,-2,-18,-10,-3
1526902848050374,-3,-3,7,1,0,14,7,5
1526902848050374,19,11,4,1,3,7,3,-10
1526902848071318,-33,-14,-5,-2,0,4,-1,2
1526902848071318,12,11,2,-2,-4,-9,-14,3
1526902848073313,-3,0,-3,-2,-1,-5,-8,-2
1526902848073313,-2,-10,0,2,0,-7,-2,-5
1526902848085281,-11,-3,-2,-5,-3,6,14,-5
1526902848085281,1,-6,-4,2,-1,-12,-11,-4
1526902848094257,-3,-8,-2,0,1,-5,-3,2
1526902848094257,-6,1,-1,-1,-2,7,2,-4
1526902848109216,7,2,-3,1,1,2,3,-1
1526902848109216,-14,-9,-3,-6,-6,-10,-8,-8
1526902848111211,31,5,-2,-1,-1,6,15,14
1526902848111211,-45,-15,-1,1,2,-12,-14,-5
1526902848131158,15,-3,-3,-2,-1,-1,-5,9
1526902848131158,15,28,7,2,0,8,9,8
1526902848133153,3,-6,-3,-1,-5,-15,-19,-8
1526902848133153,-24,1,-6,-8,-5,5,5,2
1526902848145120,22,-5,0,-1,-2,0,8,-9
1526902848145120,-7,-6,-3,0,3,-1,-23,0
1526902848154097,-7,4,-2,-2,-1,1,21,-1
1526902848154097,2,-3,3,3,0,0,4,-4
1526902848169056,-16,-3,-8,-4,-2,-9,-13,-11
1526902848169056,14,1,3,0,0,11,12,9
1526902848171051,3,-5,-2,1,0,-1,-8,2
1526902848171051,-3,-2,-2,4,3,-3,-1,-4
1526902848191995,-6,1,4,2,-2,-4,-3,-4
1526902848191995,20,-20,-4,-1,-1,3,9,-11
1526902848192993,-29,28,6,1,0,3,-5,12
1526902848192993,38,3,0,-3,-1,-3,1,5
1526902848204960,-11,-24,-2,-1,-1,-6,-1,-12
1526902848204960,-11,10,-11,-7,-4,-2,-1,7
1526902848213937,-3,5,6,1,0,1,-5,4
1526902848213937,48,14,3,-1,-2,0,3,-2
1526902848228897,-21,-3,-4,-1,-2,-2,-9,-8
1526902848228897,-19,-8,1,1,1,2,7,-6
1526902848230892,2,-1,-4,-2,0,-1,-7,-8
1526902848230892,10,0,-1,-1,-1,0,4,13
1526902848251835,18,8,3,1,0,0,3,-1
1526902848251835,-25,2,6,5,3,-6,4,3
1526902848252833,6,-13,-8,-6,0,13,-12,-3
1526902848252833,-5,7,-1,-1,-1,-2,0,1
1526902848264801,6,18,5,-1,0,1,4,7
1526902848264801,-31,-17,-4,0,0,0,-2,-12
1526902848273776,7,-20,-2,1,-1,3,18,13
1526902848273776,0,10,-1,-2,-5,-9,-19,6
1526902848288736,-8,-9,-4,-3,-3,-3,-11,-11
1526902848288736,3,-5,-4,-1,0,5,6,-3
1526902848290731,12,2,6,2,0,-14,-8,3
1526902848290731,4,0,2,1,3,11,14,-5
1526902848311675,4,23,2,1,-2,-5,2,27
1526902848311675,23,-9,-2,-2,0,3,2,-9
1526902848313670,-10,-6,-7,-3,0,-3,-1,-4
1526902848313670,-11,0,-2,-1,0,-1,3,5
1526902848325638,-18,-13,0,0,0,-1,-9,-11
1526902848325638,41,12,-4,-4,0,3,8,3
1526902848334614,-37,-8,0,-2,-2,-5,-4,-2
1526902848334614,-18,-7,-5,-3,-3,-4,-6,-8
1526902848348576,-4,2,3,2,1,2,1,-7
1526902848348576,2,-10,-1,0,-2,-2,5,5
1526902848350571,12,14,0,1,-1,2,-6,-3
1526902848350571,-16,-8,-5,-2,-2,-1,5,-8
1526902848371515,13,6,-5,-4,-2,-2,-9,0
1526902848371515,-7,11,9,2,-1,-2,-1,4
1526902848373510,-4,9,3,2,1,1,-2,-12
1526902848373510,0,-13,-1,4,0,-1,-11,-3
1526902848385478,16,11,-5,-2,-1,2,15,10
1526902848385478,-14,-6,-3,-1,-2,-4,-2,-18
1526902848394454,0,2,-2,-2,-1,10,12,29
1526902848394454,8,-16,-2,0,1,-1,-9,1
1526902848409414,-22,10,1,0,-2,-11,-4,-7
1526902848409414,2,1,-2,-7,0,15,-4,-1
1526902848410412,-26,-7,0,0,-3,-3,-1,-12
1526902848410412,2,10,4,2,0,-4,-7,1
1526902848431355,22,-1,-5,-3,-1,0,1,4
1526902848431355,-17,-11,3,1,-2,-4,-2,0
1526902848433350,30,1,-3,0,0,-1,-6,3
1526902848433350,-32,0,-6,-3,-1,4,0,-4
1526902848445318,6,-4,-2,0,-5,-11,-2,-17
1526902848445318,2,6,0,1,1,7,7,10
1526902848454294,19,-8,-4,-4,-1,-2,5,-2
1526902848454294,-19,-5,1,0,-3,-11,-5,-9
1526902848469254,6,-15,-3,1,3,11,22,-3
1526902848469254,6,0,-3,-3,-2,-1,1,14
1526902848470251,4,-9,-2,-1,-2,-4,-7,-4
1526902848470251,0,5,-4,-5,-2,4,2,-1
1526902848491195,-4,9,3,-1,-1,-2,7,-6
1526902848491195,3,7,4,6,1,-1,-2,2
1526902848493190,-26,-4,-1,1,0,-6,-3,4
1526902848493190,4,-4,1,-1,-1,0,-11,-11
1526902848505157,-2,-10,-7,-2,0,6,-2,8
1526902848505157,-13,-12,-1,-1,0,-3,-3,0
1526902848514134,1,33,1,-4,-2,-5,-16,-8
1526902848514134,9,-10,-4,0,0,-1,8,2
1526902848528096,-4,5,4,1,0,-2,-9,-5
1526902848528096,19,-3,-2,-2,-1,2,3,9
1526902848535078,-37,-3,2,1,0,-3,-1,-28
1526902848535078,8,-3,-1,1,-2,-2,13,8
1526902848552032,-11,-5,-2,-3,0,0,-11,-5
1526902848552032,50,11,2,-1,-3,-12,-8,11
1526902848553030,-48,-11,-1,1,2,10,11,-3
1526902848553030,5,5,-1,0,0,-3,2,-7
1526902848564997,-7,-8,2,-2,-1,-3,-2,-9
1526902848564997,-16,4,-1,1,1,4,0,9
1526902848573974,38,-13,-5,-4,-2,-9,-6,2
1526902848573974,-17,28,3,-3,-3,-3,2,13
1526902848587936,-10,-14,-1,3,1,-2,5,1
1526902848587936,-17,1,2,0,1,6,-3,-10
1526902848594918,1,-1,-3,1,-1,2,0,2
1526902848594918,-1,-18,0,-3,0,5,-3,-7
1526902848611872,7,0,-3,-2,-2,-4,-6,5
1526902848611872,-7,10,0,-1,-2,-1,3,-6
1526902848612870,-4,-7,0,0,-2,-2,-15,-16
1526902848612870,30,-6,3,2,2,-2,13,22
1526902848633813,11,11,0,0,-3,9,-5,3
1526902848633813,-16,-14,-2,-1,-1,-3,0,-8
1526902848635809,1,-3,-4,-3,-2,5,2,7
1526902848635809,1,-1,-3,-2,-4,-14,-22,-18
1526902848648773,33,2,3,3,3,11,18,25
1526902848648773,-23,7,-1,1,-1,-6,-6,1
1526902848654758,11,-2,2,0,1,-5,2,8
1526902848654758,-17,-1,-4,-1,-1,5,-14,-9
1526902848671712,-4,-9,0,-2,0,-2,-4,-3
1526902848671712,-6,-1,-5,-5,-1,-5,5,-7
1526902848673707,14,-2,4,0,-1,-3,-16,5
1526902848673707,-11,0,2,0,-1,-3,18,-5
1526902848693654,-10,-1,-5,-3,-2,-2,-8,-4
1526902848693654,17,-3,-1,1,-1,0,10,0
1526902848695648,6,-6,-4,-4,-1,0,3,7
1526902848695648,2,0,-2,-2,-1,2,-2,-6
1526902848707616,-18,1,1,0,-1,3,-3,-11
1526902848707616,-9,-12,-6,-3,-1,-5,-2,7
1526902848716593,13,4,-5,-3,-2,-5,2,-2
1526902848716593,-21,8,-1,0,1,4,-2,-1
1526902848731552,8,-6,-3,-2,-5,-8,-2,1
1526902848731552,-5,-7,-2,1,-2,-6,-15,-10
1526902848733547,14,-9,2,0,0,7,20,1
1526902848733547,-11,10,-6,-1,1,-6,-8,0
1526902848754491,3,12,3,-3,0,-1,5,-10
1526902848754491,-19,-16,1,2,3,6,-9,1
1526902848755489,14,-2,-3,-1,-3,-7,3,5
1526902848755489,-3,-9,3,0,-1,5,-7,-1
1526902848768454,2,3,-4,-2,-3,-8,2,-1
1526902848768454,-4,13,-4,-1,-3,-6,-3,-8
1526902848775435,-9,-3,3,2,-1,4,0,-4
1526902848775435,5,-3,-2,-1,1,0,-1,1
1526902848791392,-15,-5,-4,-1,-2,3,-9,-3
1526902848791392,2,1,0,-4,-2,-1,5,-2
1526902848793387,-12,0,3,2,3,2,-4,-4
1526902848793387,20,12,1,-2,-2,5,12,-1
1526902848814331,5,11,3,0,-1,-1,5,7
1526902848814331,-5,-16,-1,-1,-1,0,-5,-7
1526902848815328,-3,12,-1,-4,0,6,2,6
1526902848815328,0,-4,3,1,-3,-16,-2,1
1526902848828293,7,6,0,1,-2,5,4,-9
1526902848828293,7,-5,1,0,2,5,4,5
1526902848835275,17,5,-3,-1,-2,-7,-7,1
1526902848835275,-18,-15,0,1,1,3,1,-2
1526902848851232,-3,-11,-5,-3,-1,6,-14,3
1526902848851232,6,7,-3,-1,-4,1,-19,-2
1526902848853227,-14,-3,-3,0,-2,-5,11,-14
1526902848853227,27,2,-3,-4,-3,-6,-3,15
1526902848874171,-23,2,4,5,1,0,2,-7
1526902848874171,16,9,1,-2,-2,-3,-3,4
1526902848876166,-22,-2,-1,0,-1,0,-8,-4
1526902848876166,-7,1,-2,-1,-3,-2,-5,-12
1526902848888133,-10,-8,-5,0,3,-4,-2,-12
1526902848888133,28,-7,0,-1,-1,1,8,17
1526902848897110,-10,12,-3,-4,-2,1,-1,0
1526902848897110,11,-2,5,1,1,4,9,4
1526902848912069,-18,5,6,2,-1,-8,-6,-4
1526902848912069,18,1,-2,2,1,7,6,-6
1526902848913067,-6,-3,-2,-3,-3,-2,-10,4
1526902848913067,-6,-1,-6,2,-2,0,2,-9
1526902848934011,25,-6,-3,-4,-1,-2,8,9
1526902848934011,-13,-3,0,-2,-1,-8,-7,-7
1526902848936006,0,-9,0,0,-1,1,0,1
1526902848936006,-4,10,0,-4,-2,3,0,-2
1526902848947973,-6,-16,-2,0,-2,-2,1,-3
1526902848947973,4,12,-1,1,1,1,7,-3
1526902848956950,11,-9,0,-2,2,2,0,4
1526902848956950,-3,0,1,3,0,-2,-3,-7
1526902848971909,-2,1,2,-1,-1,7,9,4
1526902848971909,8,5,3,0,1,-4,-7,-4
1526902848972907,2,6,4,2,1,-2,1,9
1526902848972907,27,-3,-5,-2,1,2,2,4
1526902848993851,3,15,9,5,0,-3,-3,6
1526902848993851,-5,-5,-4,-6,-4,-2,1,2
1526902848995846,-13,-7,0,1,-1,-2,-2,-9
1526902848995846,-1,-5,0,-1,0,-1,2,0
1526902849007813,5,-6,-6,-1,1,0,-5,0
1526902849007813,-15,12,0,-1,-1,-1,1,-6
1526902849016790,5,0,-5,-2,-2,-9,-3,0
1526902849016790,-12,-7,1,-3,-2,14,0,-22
1526902849031750,3,-9,-5,-4,-4,-24,-7,28
1526902849031750,-40,-23,-3,-1,-1,11,7,-17
1526902849032747,24,38,-1,-3,0,-1,-1,5
1526902849032747,-1,-6,-2,0,-3,-1,-1,-2
1526902849053691,3,-4,-1,-1,-3,-1,-6,-10
1526902849053691,-13,-6,2,-1,0,-1,1,-2
1526902849055686,-1,4,1,4,1,0,-2,-1
1526902849055686,-11,-13,-4,-2,-1,-4,0,1
1526902849067653,9,15,0,-4,-2,4,1,-5
1526902849067653,7,-10,-5,-2,-1,-8,-3,3
1526902849076629,-16,-3,-3,-3,-1,6,3,3
1526902849076629,-17,3,5,2,2,-4,-2,-2
1526902849091589,-16,-9,-6,0,0,1,0,-9
1526902849091589,23,2,-3,-3,-2,-1,-3,7
1526902849093584,9,2,1,-1,1,2,-1,-8
1526902849093584,-10,-5,-4,-3,-2,-2,-4,-3
1526902849114528,6,9,2,1,1,5,4,5
1526902849114528,-4,-5,0,1,-1,-9,-3,-10
1526902849115526,2,-3,1,0,-2,0,2,19
1526902849115526,-17,0,-2,-2,-1,-1,1,4
1526902849127493,13,-8,-2,-3,-3,2,-5,-12
1526902849127493,-27,-3,-1,-1,-2,-2,4,10
1526902849136469,16,8,1,0,0,5,6,-9
1526902849136469,-9,-2,-1,0,0,-1,-12,2
1526902849151429,23,10,2,-2,-1,-4,5,4
1526902849151429,-8,-3,-2,-1,-3,-7,-1,-2
1526902849153424,-19,-18,-7,-3,-2,0,-3,-8
1526902849153424,-6,-2,-2,-5,-1,3,7,4
1526902849174368,10,-3,5,7,5,5,-1,-4
1526902849174368,-15,-15,-5,-4,-3,-3,-2,0
1526902849175365,11,-17,-6,1,-1,-4,-2,-11
1526902849175365,31,29,4,3,-2,-5,0,19
1526902849187333,-39,-14,-7,-4,-4,0,-9,-13
1526902849187333,-16,8,2,2,1,2,5,1
1526902849196309,7,-5,0,-1,-1,-5,0,8
1526902849196309,10,-11,-4,-1,1,4,7,-6
1526902849211269,-7,8,-3,-2,1,2,-2,6
1526902849211269,6,-5,1,-2,0,-2,-5,-1
1526902849213264,5,10,0,-3,-1,2,0,0
1526902849213264,-6,-8,3,2,0,-3,-7,-13
1526902849234208,-1,5,0,2,1,4,5,1
1526902849234208,-5,-15,-4,-1,-3,-2,-6,-11
1526902849235206,-1,12,-1,-2,-2,-4,-3,4
1526902849235206,-5,4,-9,-5,-3,-2,0,-2
1526902849248171,-5,-24,-3,-3,-2,-4,1,-1
1526902849248171,18,26,6,5,2,5,5,10
1526902849257147,-11,-6,-1,-1,0,-2,-5,-12
1526902849257147,-5,-1,3,2,0,0,1,-9
1526902849272106,-16,-8,-8,-4,-4,-19,-5,14
1526902849272106,10,7,-5,-1,2,19,7,3
1526902849273105,1,12,6,3,-1,-2,-4,0
1526902849273105,1,-12,-1,0,0,1,1,-12
1526902849294048,14,-1,-1,-2,1,1,1,-5
1526902849294048,-20,6,0,-3,-2,-8,-5,-2
1526902849296043,1,-5,-1,-1,0,0,3,8
1526902849296043,19,-4,1,0,0,1,1,1
1526902849308011,-16,2,2,0,0,1,-2,-4
1526902849308011,38,6,-2,-1,-3,-5,-2,10
1526902849316987,-20,-11,-2,-1,1,4,2,-4
1526902849316987,9,6,-2,-1,-2,-3,1,10
1526902849331947,7,6,2,1,1,4,-1,-7
1526902849331947,-19,-13,0,-1,2,1,2,-6
1526902849332944,-12,-25,-3,-2,-1,-5,-8,-16
1526902849332944,16,6,-2,0,-1,-3,-9,15
1526902849353888,-9,9,3,0,-1,0,18,-5
1526902849353888,-14,-18,-3,-3,0,-1,-5,-2
1526902849355883,18,35,4,-3,-1,-2,1,0
1526902849355883,8,-18,-10,-5,-1,-2,3,-10
1526902849367850,-15,-7,-1,0,0,2,-8,-6
1526902849367850,5,7,-1,1,0,3,13,-2
1526902849376827,-1,-13,-3,0,-1,-10,-15,4
1526902849376827,-16,9,2,-2,-2,-7,2,-1
1526902849391786,28,9,-9,-4,-2,9,-4,1
1526902849391786,-16,-6,7,2,-1,-1,3,0
1526902849392784,9,-11,-7,-2,-2,-6,10,10
1526902849392784,-24,5,4,0,0,21,3,-7
1526902849413728,26,-6,1,1,-2,-8,-2,1
1526902849413728,-1,1,-7,-3,-3,-7,-16,-10
1526902849415723,-8,5,1,1,-1,4,4,2
1526902849415723,-24,-8,0,0,-1,-8,-9,-4
1526902849427691,0,1,-5,-2,-1,3,8,-2
1526902849427691,7,-6,-3,-2,0,4,4,0
1526902849436667,15,1,-2,0,0,-6,-4,4
1526902849436667,-14,-8,3,1,0,-3,6,-3
1526902849451627,5,15,1,-1,1,3,-2,3
1526902849451627,-1,8,2,0,-1,-4,-8,-1
1526902849453621,11,-3,-2,1,1,6,3,4
1526902849453621,15,-2,-4,-4,-5,-4,-5,-5
1526902849473568,-27,-9,-1,-1,-1,-3,-9,-8
1526902849473568,35,9,7,2,1,2,-1,16
1526902849475563,-26,7,-8,-4,-3,2,6,-11
1526902849475563,2,0,1,2,1,-1,0,3
1526902849487530,8,5,4,1,-1,-6,10,3
1526902849487530,-3,-4,-5,-3,-2,-3,1,0
1526902849496506,-24,-2,1,-1,-2,-3,-5,0
1526902849496506,13,1,-2,0,0,7,8,-3
1526902849510469,-2,7,2,0,-2,-3,-4,-4
1526902849510469,6,-20,-2,-1,-1,-1,-9,0
1526902849517451,8,3,-1,0,0,-13,2,6
1526902849517451,0,-2,-3,-5,-5,1,-4,-5
1526902849534405,2,-4,-3,-1,-2,-1,2,4
1526902849534405,-2,6,0,-2,-1,1,-1,-8
1526902849535403,7,-5,1,-2,-2,-3,-8,-3
1526902849535403,-8,-10,0,2,1,-4,-1,6
1526902849556347,2,-1,-2,-1,-2,0,-8,-5
1526902849556347,-12,-4,-5,-1,-2,1,0,4
1526902849558341,5,9,5,2,1,1,2,-13
1526902849558341,3,-10,-2,1,0,-1,-8,13
1526902849571306,-29,17,-1,-3,-2,2,-5,-5
1526902849571306,12,2,-2,-2,-3,-8,-7,-1
1526902849577290,-18,-10,1,1,1,10,-2,-1
1526902849577290,5,3,-2,0,-1,-7,3,-5
1526902849594245,5,-7,-2,-3,-1,-2,-2,2
1526902849594245,8,12,-1,-1,-1,-2,3,-3
1526902849595242,-11,-17,-1,1,0,2,-2,-4
1526902849595242,-13,-5,-3,-2,1,0,20,2
1526902849616186,7,1,0,-1,-1,-4,-3,-3
1526902849616186,-4,11,0,0,0,2,3,2
1526902849618181,0,-7,-2,-1,-1,-1,-1,0
1526902849618181,-6,-3,1,2,-1,-6,-2,1
1526902849631146,7,-5,-2,0,2,12,2,-7
1526902849631146,-10,11,0,-2,-3,-8,-2,0
1526902849638128,10,8,1,-1,-1,4,-1,3
1526902849638128,-2,0,-2,-1,-1,-4,-4,-3
1526902849654085,-4,-1,1,0,-2,3,-12,-1
1526902849654085,23,-8,-1,0,1,-3,-9,-3
1526902849656080,-60,-22,-4,0,0,4,0,10
1526902849656080,-6,15,0,-2,-2,-7,-10,-6
1526902849677024,27,-2,-1,2,-1,-1,13,3
1526902849677024,1,7,1,2,-1,-1,-2,1
1526902849678021,13,3,0,-2,-1,4,19,-7
1526902849678021,-9,-2,-6,-4,-4,-4,-7,-4
1526902849690986,-19,-12,1,3,1,-3,-5,-2
1526902849690986,9,10,2,0,0,1,4,3
1526902849697968,5,-11,-1,-1,-2,-5,-7,-11
1526902849697968,18,-5,2,-2,0,4,0,8
1526902849713925,3,-2,-6,-2,1,1,0,-1
1526902849713925,-11,-6,-2,-1,-1,-1,0,-4
1526902849715920,0,-2,0,0,-1,0,-3,1
1526902849715920,8,4,-3,1,-2,2,-5,-5
1526902849736864,-4,-20,-6,-4,-3,-5,-2,0
1526902849736864,-5,7,7,1,0,2,7,4
1526902849737861,16,-12,1,0,-1,-3,-3,1
1526902849737861,-15,2,-5,0,-1,-1,-1,-5
1526902849750826,-2,11,-2,-2,-2,-1,-1,1
1526902849750826,-18,-12,-4,-4,-2,1,0,-3
1526902849757807,51,20,5,-1,-1,0,-1,8
1526902849757807,-6,-1,2,0,-2,-2,0,-5
1526902849773765,-12,-1,-3,-3,0,-5,1,-4
1526902849773765,-4,-9,1,1,2,7,-10,0
1526902849775760,-6,-4,-8,-3,-1,-2,-3,-4
1526902849775760,-3,-5,1,-1,-1,2,2,-4
1526902849796704,1,5,-1,0,-2,1,-2,5
1526902849796704,-1,-12,1,-2,-2,-4,1,2
1526902849797701,-24,10,-3,-2,1,1,5,-1
1526902849797701,17,15,5,-1,-1,0,-12,0
1526902849810666,-21,-11,1,3,2,2,3,-2
1526902849810666,1,-10,-5,0,0,-3,-1,-2
1526902849817648,-8,0,-1,-1,-3,0,-3,-3
1526902849817648,5,-2,-2,-2,-3,-1,1,-2
1526902849833605,9,-6,3,-1,-1,-3,-1,2
1526902849833605,8,9,-4,-1,1,1,1,0
1526902849835600,-40,22,2,-1,-1,-4,-5,-2
1526902849835600,2,-6,-2,0,-2,0,1,-3
1526902849856544,3,-7,-2,-2,0,-4,-1,-2
1526902849856544,6,0,-1,-1,1,0,4,2
1526902849858539,-9,-18,-8,-4,-1,-2,-1,-3
1526902849858539,4,-1,8,2,-1,-1,-2,-1
1526902849870506,-1,18,-2,-1,-3,0,2,11
1526902849870506,20,-1,-2,0,-2,-3,0,-2
1526902849879483,-9,-2,-2,-2,-1,-3,-3,0
1526902849879483,-2,13,1,-3,0,-1,2,1
1526902849894442,-5,-18,-5,-1,-2,-3,-5,-21
1526902849894442,6,13,3,-1,-1,-1,-2,15
1526902849895440,0,-17,0,-2,-1,5,0,-5
1526902849895440,28,0,-2,0,0,-5,3,7
1526902849916383,-20,14,-1,-2,-2,-1,-2,-3
1526902849916383,-23,-4,-2,-3,-2,-2,0,-6
1526902849918378,3,-2,0,1,-1,-4,-9,-2
1526902849918378,3,-11,-8,-2,0,-1,-2,1
1526902849930346,16,-4,3,0,-1,1,5,-1
1526902849930346,-16,3,-1,0,-2,-5,-3,3
1526902849939323,8,-5,0,2,1,2,2,-2
1526902849939323,-11,-5,-4,-2,0,4,-1,-1
1526902849954282,14,5,0,-1,-1,-8,-1,3
1526902849954282,-14,-10,-2,-2,-2,-2,-2,-5
1526902849955280,13,8,-1,-2,-1,-6,-9,1
1526902849955280,3,0,1,0,0,4,12,0
1526902849976223,-17,-6,-1,0,-1,5,8,0
1526902849976223,0,-3,-2,-1,-1,-1,-7,-2
1526902849978219,6,0,-4,0,0,-1,-1,4
1526902849978219,-7,-17,-8,-3,-1,-1,-4,-6
1526902849990186,-3,13,-5,0,0,1,1,2
1526902849990186,2,-2,3,-1,-1,1,2,-4
1526902849999162,1,2,8,3,0,-2,5,-2
1526902849999162,-20,-1,0,1,0,-3,-2,-5
1526902850014122,21,16,4,-2,-1,0,-5,-1
1526902850014122,5,-1,-6,-1,1,6,4,3
1526902850016117,-5,-7,-6,-3,-2,-3,6,-2
1526902850016117,-2,-10,-1,-1,-1,-5,-11,-6
1526902850037061,1,-11,0,-2,0,1,-10,1
1526902850037061,-25,1,-2,1,1,-1,-1,-3
1526902850038058,12,8,0,-3,-1,-2,5,4
1526902850038058,8,13,2,6,3,15,8,3
1526902850050026,2,-10,0,0,-2,-4,-3,-2
1526902850050026,0,13,0,-3,-1,-3,-3,-3
1526902850059002,1,-6,2,2,-1,0,-5,-2
1526902850059002,2,-1,-6,-4,-1,-3,-1,-3
1526902850073962,-1,-7,0,-1,-1,0,3,2
1526902850073962,7,-7,-5,0,-1,0,3,-1
1526902850075957,-11,-1,-1,-1,-2,1,-7,-1
1526902850075957,13,16,0,-2,-3,-6,14,-2
1526902850096901,-16,-4,4,4,0,1,2,-2
1526902850096901,17,3,-4,-3,-3,-5,-3,-1
1526902850097898,-14,-9,-2,0,-1,1,1,-2
1526902850097898,-9,9,-3,0,0,2,-7,-3
1526902850109866,-9,-9,0,-2,-4,-6,-9,-2
1526902850109866,14,-4,0,0,0,0,-1,4
1526902850118842,6,8,-1,-1,-3,1,7,8
1526902850118842,8,2,0,-4,0,4,-1,-1
1526902850133802,-40,-5,-8,-1,0,-4,4,-3
1526902850133802,18,12,12,0,-1,0,-5,-2
1526902850135797,7,-8,-2,-1,-1,-7,-13,-2
1526902850135797,-13,-4,0,-1,-3,-12,7,-4
1526902850156741,20,-2,0,1,2,15,5,3
1526902850156741,-15,-15,-10,-2,0,-1,-1,-2
1526902850157738,12,4,0,-3,-1,0,3,3
1526902850157738,-11,-1,-1,-2,-2,-3,-8,-7
1526902850170703,0,0,1,1,1,-4,-3,-1
1526902850170703,-12,-20,-1,-1,-4,-6,-1,-3
1526902850179680,17,26,3,1,0,3,1,-1
1526902850179680,-1,-11,0,1,1,-4,-2,0
1526902850193642,12,5,1,-3,-2,-2,-2,4
1526902850193642,-26,-3,-3,0,-2,-1,2,-10
1526902850195637,-8,-10,-5,-5,-1,1,-26,-3
1526902850195637,-8,-1,-1,1,0,-1,7,-1
1526902850216581,13,10,2,-2,1,1,1,0
1526902850216581,-4,17,4,3,0,3,0,3
1526902850218575,-6,-13,-2,2,0,-3,1,-2
1526902850218575,5,0,-4,-2,-4,-4,-16,-10
1526902850230543,-5,-1,-6,-4,0,2,14,-6
1526902850230543,18,-10,-2,-2,-1,-3,-8,22
1526902850239520,2,14,10,3,0,0,13,1
1526902850239520,-17,1,-2,-2,0,3,-2,1
1526902850254480,5,-10,-3,0,-1,-4,0,-4
1526902850254480,-7,-2,-6,-3,-3,-3,-8,-8
1526902850255477,3,-9,-2,1,1,4,12,5
1526902850255477,30,9,8,0,-1,0,1,6
1526902850276421,-14,3,-5,-1,-1,5,16,-2
1526902850276421,-1,7,1,-3,-3,-14,-24,-3
1526902850278416,-7,-6,-5,-1,-1,-1,6,-6
1526902850278416,-6,-10,-6,-4,-1,-3,-4,-4
1526902850290383,-3,0,2,-2,0,-3,-3,2
1526902850290383,-14,-9,-3,0,1,5,7,-7
1526902850299359,1,3,0,0,-1,-1,-5,1
1526902850299359,-5,1,2,0,-1,0,10,-1
1526902850312325,-16,2,-3,-3,-1,-5,-10,-2
1526902850312325,4,-5,3,2,0,5,11,0
1526902850321301,12,3,-1,-1,-2,-2,-10,2
1526902850321301,-14,-7,-2,-1,-2,1,-1,-4
1526902850336261,15,5,3,-3,-1,0,-7,3
1526902850336261,-8,-4,-4,0,-2,-3,5,-2
1526902850338256,0,9,1,-1,0,-2,6,-1
1526902850338256,22,-10,0,2,0,-10,-4,6
1526902850350223,1,2,-1,0,-3,17,6,-9
1526902850350223,7,8,3,1,1,-1,4,7
1526902850359200,-7,-22,-2,-1,0,-2,-3,-6
1526902850359200,-6,13,-1,1,-1,1,2,9
1526902850374159,7,7,-2,-1,-3,-11,-12,-3
1526902850374159,4,-14,-5,-2,-1,5,5,5
1526902850376154,-4,14,-2,-4,-4,-5,-2,-3
1526902850376154,-4,-11,-2,-1,-1,1,4,1
1526902850397098,4,1,1,0,-1,-7,-10,4
1526902850397098,-11,-6,0,-2,1,2,-3,-8
1526902850398096,13,12,-2,-1,-1,-4,1,0
1526902850398096,-9,-15,-3,-3,-1,3,-3,-12
1526902850410063,-7,-7,-4,-1,0,3,-1,3
1526902850410063,21,11,4,0,0,1,3,5
1526902850419039,-36,-12,-3,-2,-2,-2,-2,-6
1526902850419039,-5,-10,-1,1,-1,2,-5,-2
1526902850433002,-6,10,-1,-2,-2,-5,1,-2
1526902850433002,6,0,-1,-2,1,6,-8,-1
1526902850439983,6,1,0,0,0,1,8,5
1526902850439983,22,7,-1,0,-3,-3,-9,-3
1526902850456938,-7,-6,3,0,0,0,14,5
1526902850456938,-6,-1,-3,-2,0,-4,3,-5
1526902850457937,16,-6,-5,-5,0,-2,1,3
1526902850457937,-25,6,6,4,2,17,4,-5
1526902850469903,3,-10,-4,0,-3,-8,-10,0
1526902850469903,10,15,1,-2,-3,2,17,8
1526902850478879,-1,-9,-2,0,-1,-6,-22,-6
1526902850478879,2,2,-3,-4,-2,-7,-3,-4
1526902850493839,-20,2,0,0,0,-1,-1,-2
1526902850493839,16,1,3,3,1,-1,4,3
1526902850499823,-11,-7,-2,0,-3,-3,-11,-7
1526902850499823,-6,-3,-3,-2,-1,-1,0,-1
1526902850516778,4,7,-2,-2,-1,-1,-9,-3
1526902850516778,3,-1,-1,-3,1,2,-1,3
1526902850517775,-6,-1,1,2,-2,-6,10,0
1526902850517775,-4,1,2,0,-1,0,-15,-3
1526902850538719,17,-4,-4,3,2,1,3,3
1526902850538719,-8,4,4,-3,-2,-6,-4,2
1526902850540714,14,2,-1,-2,0,3,6,-2
1526902850540714,-3,1,2,1,-1,0,2,-5
1526902850553679,3,-8,-2,-1,1,0,0,2
1526902850553679,-11,-4,-7,-2,-3,-4,-7,-5
1526902850560661,-3,0,6,3,1,3,0,-2
1526902850560661,-4,3,-6,-4,-2,-3,5,1
1526902850576618,11,0,0,-1,-1,-5,-2,-2
1526902850576618,-2,16,1,-1,0,0,-5,-2
1526902850578613,-13,-5,-3,-2,0,3,2,-1
1526902850578613,3,3,-1,-1,-3,-4,-2,-1
1526902850599557,16,-10,1,2,-2,-2,-2,1
1526902850599557,-28,-10,-3,-2,-2,0,1,0
1526902850600554,-7,11,0,-4,-4,-1,0,-1
1526902850600554,10,-10,-1,1,1,0,1,1
1526902850613519,3,6,-1,-2,-2,2,1,1
1526902850613519,14,-1,3,5,-1,-2,-2,-1
1526902850620500,5,-3,-4,-1,0,1,2,0
1526902850620500,-19,-12,-7,-5,-3,-4,1,-1
1526902850636458,4,23,17,3,2,1,1,6
1526902850636458,10,-2,-9,-2,-2,-4,-2,-5
1526902850638453,-14,0,2,0,-2,0,0,-6
1526902850638453,12,0,-2,-1,0,-1,0,1
1526902850659396,-16,-31,-11,-4,-4,-2,-2,-2
1526902850659396,-1,30,4,1,1,-2,-3,-1
1526902850660394,10,4,-1,1,2,2,3,3
1526902850660394,-26,1,-6,-6,-2,-1,-1,-3
1526902850673359,5,3,7,3,-1,-2,-2,-2
1526902850673359,-35,-19,-1,0,0,2,-1,-3
1526902850680341,40,-4,-5,-1,0,-1,1,1
1526902850680341,7,6,2,3,1,3,2,2
1526902850696298,-24,9,-9,-7,-1,-5,-1,-4
1526902850696298,4,-20,-7,-4,-3,-1,-1,-3
1526902850698293,-11,0,2,0,0,-1,-1,0
1526902850698293,-12,-11,-2,1,0,1,-1,-1
1526902850719236,21,11,2,-2,-1,-3,1,2
1526902850719236,9,-3,-3,-1,-2,-2,0,-3
1526902850721231,-17,-3,-1,0,0,-1,0,-1
1526902850721231,14,6,4,3,1,-2,5,5
1526902850733199,-6,-16,-6,-2,2,-2,-5,-4
1526902850733199,-10,3,-1,-1,0,0,0,0
1526902850740180,16,0,-2,-3,-1,-1,-2,-1
1526902850740180,-17,1,1,0,-1,-1,-4,-3
1526902850757135,15,-5,0,0,-1,2,0,4
1526902850757135,14,13,0,-1,0,-2,-3,-4
1526902850758133,-42,-26,-4,-1,-1,-1,-1,-9
1526902850758133,40,15,3,-1,0,-1,0,2
1526902850779076,-17,-3,-3,-1,-2,-2,-1,-1
1526902850779076,-3,-19,2,-1,-1,-2,0,-2
1526902850781071,21,30,5,0,-1,-1,1,5
1526902850781071,-16,-12,-12,-5,-1,-3,-2,-8
1526902850793039,-19,-6,-2,1,1,1,1,0
1526902850793039,8,-5,6,2,-1,0,-1,1
1526902850802015,-10,0,1,0,-1,-1,-2,-1
1526902850802015,-8,4,-1,-3,-2,-4,-3,-2
1526902850816975,5,4,-5,-5,-2,2,-4,-6
1526902850816975,9,-2,-3,0,0,2,-2,4
1526902850817973,-20,-6,-2,-1,-1,1,1,-1
1526902850817973,15,3,2,0,-1,-3,-13,-3
1526902850838916,5,-10,-2,-3,1,0,0,2
1526902850838916,-5,5,1,-1,1,2,1,0
1526902850840911,4,1,1,-1,-2,-4,-3,-2
1526902850840911,-5,6,-2,-1,0,-1,3,-1
1526902850852879,7,-2,1,1,-1,2,-5,-4
1526902850852879,-13,10,-2,0,-1,1,9,1
1526902850861855,17,3,-3,-1,-1,-6,-3,0
1526902850861855,6,-4,5,3,1,5,3,-1
1526902850876815,-39,1,-2,0,-2,-4,-3,-5
1526902850876815,16,2,0,-1,1,-2,0,5
1526902850877813,7,-7,-4,-3,-1,2,5,-2
1526902850877813,-36,3,0,-2,0,-1,2,-2
1526902850898756,13,-3,0,0,-1,-1,-2,1
1526902850898756,3,5,-1,-4,0,-2,-4,0
1526902850900751,7,-5,3,1,-2,-3,-5,-3
1526902850900751,12,-1,-7,-2,-1,2,3,0
1526902850912719,5,6,1,-3,-1,-2,-12,2
1526902850912719,10,-1,-2,1,-1,-2,-4,-4
1526902850921695,14,3,-2,-2,0,0,3,2
1526902850921695,-34,-4,2,-1,-2,-4,0,-4
1526902850936655,19,1,-3,0,-2,-1,9,1
1526902850936655,6,-12,-2,-2,1,-4,-6,3
1526902850938650,-3,2,-2,-2,0,1,-1,-1
1526902850938650,3,-6,1,0,-1,-2,3,-4
1526902850959594,0,7,0,0,2,0,2,0
1526902850959594,-21,-5,2,0,-2,-1,-1,-5
1526902850960591,14,0,0,-1,-3,-19,-3,3
1526902850960591,3,-1,-3,-2,4,31,1,0
1526902850972559,1,-6,2,0,0,1,5,1
1526902850972559,-10,15,-3,-3,-1,-2,1,-4
1526902850981535,-13,-7,-2,-2,-2,-11,-22,-2
1526902850981535,9,5,-1,-2,-5,-12,2,-3
1526902850996495,2,2,1,1,2,2,-6,-1
1526902850996495,0,-4,0,0,1,4,-8,0
1526902850998490,-10,4,-3,0,0,5,25,-3
1526902850998490,4,-4,0,-1,0,-8,-8,-3
1526902851019433,-7,-3,2,0,-1,5,0,0
1526902851019433,-2,1,-10,-4,-3,-7,-7,-2
1526902851020431,-8,-12,1,-2,1,9,1,-1
1526902851020431,7,4,3,5,0,-2,3,2
1526902851032399,-6,0,0,-1,-1,-3,0,-4
1526902851032399,4,-4,-1,-1,0,-2,21,3
1526902851041375,-25,-4,-7,-3,-1,-1,-11,-5
1526902851041375,3,1,-1,-3,-3,-3,-1,0
