timestamp,emg1,emg2,emg3,emg4,emg5,emg6,emg7,emg8
1526902950482436,0,5,-5,-3,-1,-5,-12,-1
1526902950482436,-7,-10,-2,-2,-3,-3,-1,-6
1526902950483433,3,-4,0,-1,2,0,-2,2
1526902950483433,6,12,-1,-12,-11,0,2,1
1526902950484430,-6,-7,-8,3,1,-1,-1,-2
1526902950484430,-1,-3,0,0,7,1,5,-2
1526902950485428,-2,-3,6,7,6,-2,0,3
1526902950485428,-10,-6,-2,-4,-1,-2,-2,-1
1526902950494403,13,13,-2,-9,-8,-4,3,2
1526902950494403,-1,8,-3,-6,-3,0,-6,-1
1526902950499390,-4,-16,0,-2,-4,0,1,1
1526902950499390,6,17,2,3,1,-4,-1,-1
1526902950509363,-3,-6,4,3,1,3,1,-4
1526902950509363,-3,1,3,3,-2,0,3,-2
1526902950524323,6,-3,-6,-3,-2,-1,-2,0
1526902950524323,0,1,-6,0,-2,-2,-3,-1
1526902950529310,9,2,4,1,0,0,-1,-1
1526902950529310,-1,18,12,2,2,0,-2,1
1526902950554243,-1,2,-3,-2,-6,-2,1,-3
1526902950554243,-7,-17,-8,1,6,1,-3,-1
1526902950554243,-6,0,8,2,1,3,4,-2
1526902950554243,-5,-11,-6,-3,-4,-6,-5,-2
1526902950591144,3,11,-8,-2,1,-2,0,1
1526902950591144,-2,0,0,-5,-2,-1,-2,-4
1526902950592142,-2,-6,-2,3,0,2,-1,-3
1526902950592142,-2,-4,2,6,-2,1,1,0
1526902950593139,-5,-3,-4,7,1,1,0,0
1526902950593139,5,5,4,2,1,-1,0,-1
1526902950596131,0,1,-3,-11,-8,-2,3,0
1526902950596131,5,-9,-8,-11,-2,-3,-1,-3
1526902950604110,-9,-12,4,0,1,0,0,1
1526902950604110,-8,0,0,3,1,1,-1,-3
1526902950613086,8,-3,-1,-1,0,-2,-3,3
1526902950613086,8,13,-15,-5,-2,-2,4,-2
1526902950619070,6,2,17,1,-4,-1,1,-1
1526902950619070,-8,-7,0,1,1,0,-3,-4
1526902950635027,-9,-7,-2,-1,0,-1,-1,-5
1526902950635027,-15,-11,-6,0,0,-1,-4,-1
1526902950641011,8,9,0,-1,1,3,0,1
1526902950641011,6,6,4,4,0,0,-1,1
1526902950663950,-6,1,-3,-2,-4,-2,-1,-3
1526902950663950,3,-1,2,-4,1,1,1,0
1526902950664947,2,12,-10,-16,-8,-3,-5,-2
1526902950664947,-1,5,4,1,2,1,3,3
1526902950679907,-2,-3,3,14,6,0,-1,0
1526902950679907,-1,1,3,2,3,1,-2,-1
1526902950679907,-3,-17,-8,-4,-1,-2,1,-3
1526902950679907,2,-3,2,-10,-6,-3,0,3
1526902950701848,-1,16,-1,-15,-8,-2,-3,-2
1526902950701848,1,-6,1,23,7,1,0,2
1526902950702846,12,16,13,4,0,-4,-3,-1
1526902950702846,-5,-7,-9,-2,1,1,0,-2
1526902950724787,-11,-18,4,2,1,0,1,-4
1526902950724787,-4,-10,0,-10,-6,-1,-2,-3
1526902950724787,16,13,-6,-3,-2,0,0,7
1526902950724787,13,6,1,2,-1,-2,-3,1
1526902950739747,-7,2,2,-7,-2,-1,-2,-5
1526902950739747,-4,-14,-7,-4,-3,-3,-2,-2
1526902950740744,-14,-3,3,4,2,-1,-1,-1
1526902950740744,-4,-3,1,0,-1,-1,-2,-2
1526902950761688,10,14,-4,-1,0,0,0,2
1526902950761688,-10,-15,-5,-4,-2,0,0,-2
1526902950762686,-4,-9,5,1,0,0,-2,0
1526902950762686,-1,-4,-5,-3,-5,-2,0,-5
1526902950784627,-4,-12,-2,-2,0,-1,-1,-3
1526902950784627,1,1,-4,1,0,-1,-2,2
1526902950785625,-1,-15,-7,-3,-2,0,0,1
1526902950785625,-6,-5,4,0,1,2,-1,1
1526902950799587,28,39,-2,2,2,1,2,6
1526902950799587,2,17,6,-4,-6,-2,-3,0
1526902950800585,0,-4,-3,-7,-1,-3,0,0
1526902950800585,-4,-6,-6,3,-2,-3,-2,-2
1526902950821528,-4,-2,8,10,10,3,1,1
1526902950821528,2,7,2,-5,-4,-2,-2,-1
1526902950822526,-6,-7,-8,-10,-2,-3,-2,-3
1526902950822526,4,15,-3,-23,-20,-4,-3,5
1526902950844467,2,1,1,62,37,9,3,1
1526902950844467,-7,-16,5,-1,-4,0,0,-2
1526902950845464,-3,-7,-8,-6,3,0,-1,-2
1526902950845464,0,10,7,11,2,0,1,1
1526902950859427,2,2,-5,-16,-8,-3,-3,-2
1526902950859427,2,8,-3,9,8,2,1,-5
1526902950860424,-2,1,4,0,-4,1,-1,1
1526902950860424,-6,-15,-7,-5,0,-4,-1,-1
1526902950882366,0,13,-2,-21,-16,-6,-4,-6
1526902950882366,-5,-8,5,3,-1,2,0,1
1526902950882366,-4,11,-12,-10,-3,-1,-4,-4
1526902950882366,0,-18,-8,2,9,3,0,0
1526902950904307,-2,-3,12,4,-2,-3,-2,2
1526902950904307,10,11,-1,-7,-5,-2,0,1
1526902950905305,0,1,-2,-8,-8,-2,-1,-2
1526902950905305,-10,-17,1,19,21,5,2,-4
1526902950919267,-5,-17,-13,-8,-7,-3,-2,-2
1526902950919267,3,8,9,0,3,0,-1,1
1526902950920265,-5,-11,1,-4,-8,-1,1,-1
1526902950920265,-1,7,-2,14,0,-1,-1,-3
1526902950942205,-9,-16,-9,-27,-10,-2,1,-3
1526902950942205,1,3,2,30,13,2,-1,2
1526902950943203,-6,-7,1,4,4,-2,-1,-2
1526902950943203,15,24,3,-11,-7,-4,-3,-1
1526902950964147,-12,-16,2,-4,-3,-1,-2,-4
1526902950964147,1,2,-6,-10,-6,-3,-2,0
1526902950965144,-2,1,-2,6,4,3,2,3
1526902950965144,1,-8,0,-3,-1,0,0,-2
1526902950979107,-2,0,2,2,-1,-2,-1,0
1526902950979107,0,2,1,-6,-2,-1,0,0
1526902950980104,6,16,5,5,1,-3,1,-1
1526902950980104,4,17,-11,-10,-5,-3,-2,2
1526902951002046,-4,-17,4,-1,0,1,-1,-1
1526902951002046,-11,-17,-6,-4,-1,2,0,0
1526902951003043,-2,-4,5,3,2,-3,-4,-4
1526902951003043,-4,-15,3,-1,-1,0,-1,0
1526902951023987,8,30,-2,-8,-8,-2,-2,2
1526902951023987,14,19,2,0,7,0,-1,2
1526902951024984,-8,-11,-5,14,4,1,-1,-5
1526902951024984,-4,1,-1,-5,-2,-2,-2,-3
1526902951038947,-13,-25,1,2,-2,-1,-2,-5
1526902951038947,10,27,4,-9,-12,-5,0,6
1526902951039944,2,-1,-9,-11,0,1,-1,0
1526902951039944,11,3,3,0,1,0,0,-2
1526902951061885,-1,-4,-4,0,-5,-2,-2,-3
1526902951061885,-4,-2,-3,-5,-2,-1,-1,-1
1526902951062883,-5,-9,-2,-1,-2,-1,-1,-2
1526902951062883,-6,-12,-1,-2,-1,1,1,-4
1526902951084824,0,0,1,-1,0,0,0,0
1526902951084824,15,8,3,-1,-1,-2,-3,1
1526902951084824,8,16,4,5,0,0,-1,2
1526902951084824,-12,-14,-5,-4,-3,-2,0,-6
1526902951099784,0,1,-2,-10,-7,-3,0,1
1526902951099784,-9,-13,3,21,11,5,-1,0
1526902951100782,-1,-6,1,6,8,-1,2,0
1526902951100782,4,5,-3,-3,-4,2,-1,1
1526902951121725,2,1,-8,-4,0,-1,3,-1
1526902951121725,-5,-4,7,-12,-10,3,-10,-4
1526902951122723,-1,-2,-4,4,-8,-19,-6,0
1526902951122723,-5,2,-1,12,8,5,5,-2
1526902951144664,8,5,-5,0,10,2,2,1
1526902951144664,-10,-19,-7,-9,-20,-1,7,-1
1526902951145662,4,2,3,-15,-9,3,-11,1
1526902951145662,0,18,-1,-14,-24,-22,-2,-1
1526902951158627,1,-1,4,36,41,16,-7,0
1526902951158627,-9,-11,-2,-5,-7,-9,-8,-6
1526902951166605,4,-5,-3,-35,-22,-1,24,0
1526902951166605,-1,3,-5,7,7,-2,1,-2
1526902951181566,-2,4,3,19,6,-1,-5,-2
1526902951181566,-3,-11,0,3,5,1,-2,-2
1526902951182563,-6,2,0,-6,-3,6,-2,-1
1526902951182563,0,-3,-1,-38,-21,-5,0,-1
1526902951204504,-2,1,2,18,3,-2,4,-3
1526902951204504,-4,-7,-4,22,11,4,-5,-1
1526902951205502,1,4,4,6,-6,-11,-2,1
1526902951205502,-1,-6,2,6,25,8,-1,2
1526902951218469,-1,3,-2,-32,-37,-10,-3,0
1526902951218469,2,8,1,2,17,1,7,-1
1526902951226445,-3,-3,3,22,12,-5,-14,-3
1526902951226445,-3,-2,-1,13,-9,9,-5,0
1526902951242403,0,-8,0,15,12,16,4,-2
1526902951242403,-5,4,-6,-34,-24,-14,1,-1
1526902951242403,3,-4,1,19,5,2,1,3
1526902951242403,4,1,4,22,15,2,-1,-4
1526902951264344,-8,-12,-3,-19,-19,-10,0,-3
1526902951264344,11,11,3,-1,2,9,9,-1
1526902951265342,-12,-13,-5,-5,4,0,-2,0
1526902951265342,7,3,2,-7,-3,-2,-2,1
1526902951278307,-5,-3,-1,-4,-1,-1,2,1
1526902951278307,-7,-12,-4,-2,2,-6,-7,-5
1526902951286286,14,12,3,3,6,2,-1,0
1526902951286286,-1,-14,-5,-10,-9,-2,0,-1
1526902951302243,-1,1,3,-12,-5,-6,-3,-2
1526902951302243,-1,-13,-5,18,14,1,-3,-1
1526902951302243,-4,8,-3,-4,-6,3,1,-4
1526902951302243,-7,-9,3,6,1,1,2,-1
1526902951324185,6,-1,-1,0,4,-1,-3,0
1526902951324185,2,1,3,-6,-8,-1,-1,2
1526902951325182,-6,2,-7,-9,-6,3,2,-5
1526902951325182,-7,-6,0,5,8,-6,-4,-2
1526902951339145,-8,-3,0,5,0,5,-1,2
1526902951339145,10,28,0,-14,-2,2,2,1
1526902951346125,-7,-7,5,25,7,0,3,-2
1526902951346125,-8,2,-3,-12,-6,-4,-6,-4
1526902951362083,20,28,-1,-5,-3,-5,1,5
1526902951362083,9,16,0,-7,-7,-3,-1,-1
1526902951363080,6,6,0,0,3,3,0,-2
1526902951363080,-16,-9,-1,4,0,-2,-2,0
1526902951384025,-15,-26,-5,-2,-1,-2,-1,-3
1526902951384025,4,-3,-11,-5,-2,-2,-1,0
1526902951385022,-5,0,6,-4,1,0,-3,-2
1526902951385022,11,15,2,6,3,0,1,1
1526902951398984,7,3,3,-23,-13,-4,-1,2
1526902951398984,-16,-22,-1,31,5,-2,-2,-6
1526902951405966,0,-4,-6,-10,3,-1,-3,-4
1526902951405966,-3,-2,-6,3,5,3,3,1
1526902951421923,1,0,1,1,-2,-1,-1,-1
1526902951421923,-13,-10,-4,-10,-4,-2,1,-1
1526902951422921,13,9,1,-6,-4,-2,1,1
1526902951422921,3,8,4,-2,-6,-1,-3,0
1526902951444861,-5,-8,-8,-22,-10,-5,-1,-1
1526902951444861,2,15,-1,12,9,2,-2,-1
1526902951444861,-1,-11,-1,6,4,1,0,1
1526902951444861,-2,-4,-7,-7,-3,-2,-1,0
1526902951458824,-5,-6,0,6,-2,-1,-1,0
1526902951458824,-7,0,4,-3,-1,1,0,-2
1526902951466803,0,-8,-4,2,-3,-1,0,1
1526902951466803,11,4,-1,-1,0,-1,0,1
1526902951481763,-6,-4,-11,-3,2,-1,-1,-4
1526902951481763,-8,-10,8,-6,-3,-1,1,2
1526902951482760,4,1,-12,-8,1,-2,-1,-2
1526902951482760,8,2,15,4,-5,1,-2,-2
1526902951504702,4,14,-2,7,5,-1,-2,1
1526902951504702,12,6,-1,-9,-10,-4,-2,0
1526902951505699,-13,-12,-2,2,8,1,0,-3
1526902951505699,-4,-7,-8,-4,-2,1,0,-2
1526902951526642,-2,1,0,0,1,-1,-2,-4
1526902951526642,-8,-13,-5,-4,-3,-3,-2,-5
1526902951527640,2,14,8,-2,-6,-1,0,2
1526902951527640,-4,-1,-6,-7,-2,0,-1,0
1526902951541602,3,0,1,2,0,0,1,-2
1526902951541602,-2,-3,-5,8,5,-1,-2,0
1526902951542600,-5,-16,0,-1,-3,-1,-2,0
1526902951542600,-3,-1,0,1,3,-2,0,-2
1526902951564541,2,1,-5,-2,-5,-2,0,1
1526902951564541,-1,-1,3,-8,-6,-1,2,0
1526902951565539,0,-3,-4,-9,-1,-1,0,-2
1526902951565539,-8,-11,-6,11,2,0,-1,-2
1526902951587480,-3,-2,3,11,1,0,-1,-1
1526902951587480,8,19,2,-4,0,-1,0,-1
1526902951587480,-4,-9,0,3,-1,0,-2,-2
1526902951587480,12,6,-3,-9,-4,-1,0,3
1526902951609421,-3,6,3,2,5,0,-1,-2
1526902951609421,1,-5,-2,-1,-2,-1,0,2
1526902951610419,0,2,2,2,-4,-2,-2,-2
1526902951610419,-3,-3,-6,-5,0,-2,-3,-5
1526902951624382,-8,-6,-1,0,0,-1,-1,-1
1526902951624382,3,2,2,-8,-3,0,1,0
1526902951625379,4,0,1,13,5,2,2,-2
1526902951625379,-7,-5,1,0,0,1,0,-3
1526902951647320,1,-6,2,1,0,-1,0,-1
1526902951647320,-6,-1,-5,-3,2,-1,-3,-1
1526902951647320,-6,-18,1,0,0,-1,0,-3
1526902951647320,-4,8,-4,-8,-5,-1,-1,0
1526902951669261,11,11,4,-1,0,-1,1,2
1526902951669261,6,-3,-6,-13,-1,-2,0,-2
1526902951670259,-10,4,6,26,-4,-2,-1,0
1526902951670259,-1,-3,0,3,8,1,1,-4
1526902951684221,-1,-7,-13,-6,-4,-3,-2,-2
1526902951684221,9,13,9,4,1,-1,1,4
1526902951692200,-4,4,2,-7,-3,-1,0,-1
1526902951692200,-11,-10,-1,-2,-7,-4,-2,-7
1526902951707160,13,9,-6,-4,1,-1,-2,-2
1526902951707160,-6,-7,2,4,1,1,1,1
1526902951708157,6,12,-5,-13,-2,-1,-3,0
1526902951708157,-10,-13,1,5,3,2,1,0
1526902951729101,-9,-16,5,-3,0,0,-1,-7
1526902951729101,-6,-9,-8,-18,-19,-5,-4,0
1526902951730099,3,13,4,28,24,7,2,2
1526902951730099,10,13,0,-1,-3,0,-1,0
1526902951744061,-3,-1,3,5,1,0,-1,-2
1526902951744061,-3,-6,-1,-2,-5,-3,-1,-3
1526902951752040,-5,-4,-5,-8,-6,-4,-1,0
1526902951752040,-2,-9,-4,-2,-1,-1,0,-3
1526902951767000,9,16,7,5,-1,-1,0,2
1526902951767000,-9,-3,-2,-1,2,-2,-4,-5
1526902951767997,-3,-14,-12,-16,-10,-3,-2,-2
1526902951767997,6,14,6,-1,1,-1,-1,2
1526902951788941,-3,-13,3,8,3,1,-1,-2
1526902951788941,-13,5,-2,8,5,0,0,-2
1526902951789939,15,3,-2,-2,-2,-2,-1,0
1526902951789939,-1,13,4,-9,-5,1,1,1
1526902951803901,-6,-18,-15,-9,-6,-2,-1,1
1526902951803901,8,-6,3,10,5,-1,-2,1
1526902951811880,-12,-1,1,-18,-10,-2,-2,-5
1526902951811880,-5,-11,-4,16,0,1,-2,-5
1526902951826840,2,4,3,3,11,0,-2,-2
1526902951826840,-12,-13,-9,3,3,0,-1,-3
1526902951827837,-1,-18,-6,-16,-5,0,2,-1
1526902951827837,17,25,6,-6,-3,-2,-1,3
1526902951849779,12,26,5,0,-6,-4,2,6
1526902951849779,0,-2,5,15,5,6,-2,-5
1526902951849779,-2,2,1,-7,-3,1,-1,-3
1526902951849779,-16,-27,-9,-4,-3,-4,-1,-5
1526902951863741,-12,-6,-4,-7,-1,2,-2,-2
1526902951863741,13,24,6,6,6,-2,0,7
1526902951871720,28,26,7,12,17,0,-1,5
1526902951871720,2,14,5,-4,-9,3,0,-2
1526902951886680,4,2,-1,-3,3,4,0,1
1526902951886680,-13,-17,-14,-4,-12,-5,0,-2
1526902951887677,-6,-8,3,-7,-3,-4,-3,-1
1526902951887677,-3,-7,3,25,9,-5,-1,0
1526902951909618,-14,-7,-5,-14,-13,-3,-2,-4
1526902951909618,15,18,4,-4,-1,-1,0,3
1526902951910616,17,16,-5,-6,-22,-24,-6,-2
1526902951910616,1,-9,-4,-15,18,21,0,0
1526902951923581,-9,-13,-1,10,-4,-3,0,-2
1526902951923581,-5,-8,-1,-1,-14,-18,-2,1
1526902951931560,-11,-1,2,-6,-8,-10,-1,-4
1526902951931560,-7,-17,1,13,17,11,8,-3
1526902951946520,6,12,-7,2,4,19,-6,0
1526902951946520,-1,4,0,-10,-7,-2,0,0
1526902951947518,-3,1,2,11,-1,0,11,1
1526902951947518,-4,-14,-3,-9,-13,-18,-22,-3
1526902951969463,10,16,11,-6,-1,8,13,1
1526902951969463,2,-10,-9,-3,-2,-12,-16,-1
1526902951970457,-16,-19,-8,2,2,9,-1,-6
1526902951970457,5,14,-3,-2,15,5,1,4
1526902951983421,-6,-6,3,7,-1,-16,0,-4
1526902951983421,13,3,-13,-21,-6,9,-6,2
1526902951992397,7,10,8,-2,6,8,0,3
1526902951992397,-3,-15,-4,-6,-25,-10,-1,-1
1526902952007357,-9,-3,-2,-4,17,-7,-2,1
1526902952007357,-1,-6,-2,3,-11,-7,10,-3
1526902952007357,6,1,-2,7,9,-6,-4,2
1526902952007357,4,8,-1,-7,5,19,0,1
1526902952029298,-7,-8,-4,-9,-25,-9,0,-4
1526902952029298,-10,-8,0,-9,12,8,0,-3
1526902952030296,-5,-2,1,11,6,0,-3,4
1526902952030296,-1,-1,-3,8,-10,-20,3,7
1526902952052237,0,-1,5,3,9,9,-2,0
1526902952052237,2,-4,-3,-6,-7,-1,-3,-2
1526902952053235,-10,-14,-10,-38,-16,-8,-6,-8
1526902952053235,2,5,0,19,3,1,1,0
1526902952067197,5,0,0,30,13,-2,-2,4
1526902952067197,-9,-22,11,19,17,5,2,-5
1526902952068195,12,46,-6,-12,-10,8,0,1
1526902952068195,-2,-1,0,-14,-11,-10,-1,-3
1526902952089138,4,-1,0,-9,-13,0,-3,0
1526902952089138,-8,-7,-3,-16,-5,-2,2,-2
1526902952090136,-17,-18,0,30,14,11,1,-1
1526902952090136,13,22,5,-4,-5,-7,-1,2
1526902952113074,13,6,-1,-6,-7,-7,-4,0
1526902952113074,-9,-9,-10,-4,4,0,-1,-3
1526902952113074,-5,-15,5,3,-4,3,0,-1
1526902952113074,-3,-4,-15,-12,12,-3,-3,-2
1526902952127037,5,23,2,-15,-7,1,-1,-2
1526902952127037,-2,-8,-1,16,8,8,2,-4
1526902952128035,-6,-8,0,-4,-5,-6,-1,-4
1526902952128035,1,-4,-1,0,-5,-2,-1,0
1526902952148978,-3,-8,-5,-7,0,-5,-4,-7
1526902952148978,-5,-4,0,0,-5,1,-1,-1
1526902952149976,-1,5,-1,9,8,0,1,0
1526902952149976,-1,-4,6,-6,-7,-7,-2,-1
1526902952172914,-9,-17,-4,2,3,10,0,-3
1526902952172914,6,21,3,1,-8,-4,2,3
1526902952173912,-3,-9,-10,-11,-5,4,0,-1
1526902952173912,7,8,1,-5,-5,-8,0,4
1526902952186877,-10,-8,-1,3,0,-6,-4,-4
1526902952186877,-1,-2,-3,0,0,0,-1,-2
1526902952187874,1,-1,-3,-4,0,-2,-1,-3
1526902952187874,4,10,2,-3,0,4,-1,2
1526902952209816,3,-1,4,1,-6,-14,-1,0
1526902952209816,3,-2,-1,-3,5,10,6,1
1526902952209816,-3,-4,5,1,1,-3,-12,-2
1526902952209816,-13,-7,0,0,-3,2,1,-4
1526902952232755,3,-11,-16,-12,-4,-1,-1,0
1526902952232755,2,14,10,-1,-6,-4,3,2
1526902952233752,-1,0,2,-3,6,1,2,4
1526902952233752,-1,3,-1,3,-4,0,-3,-6
1526902952246717,-1,2,6,29,15,1,-1,0
1526902952246717,-14,-13,-4,-3,2,0,-3,-4
1526902952247715,15,17,3,1,-6,-1,3,4
1526902952247715,-4,4,-1,-10,-6,0,0,-1
1526902952269655,-5,-6,-2,-14,-6,0,1,-2
1526902952269655,6,6,-6,5,2,-4,-4,1
1526902952270653,-9,-20,-1,-4,-1,-1,-3,-3
1526902952270653,-4,-1,7,7,4,2,2,0
1526902952291597,-15,-11,-2,-2,-1,1,-1,-2
1526902952291597,9,7,-6,-3,1,0,-4,3
1526902952292594,4,-2,4,-2,-3,-3,-2,-3
1526902952292594,1,-1,-4,-1,-1,1,0,-2
1526902952306557,-7,-5,-6,-14,-7,-2,-1,-1
1526902952306557,0,-2,10,22,12,1,1,-1
1526902952307554,-10,-6,-3,1,-6,-1,0,-4
1526902952307554,7,-11,-11,-12,-4,-3,0,1
1526902952329495,-1,3,8,14,4,2,1,3
1526902952329495,-2,1,-4,-11,-8,-2,-2,-3
1526902952330493,-2,-9,-1,3,3,0,2,-1
1526902952330493,1,3,-4,0,-3,0,-2,-2
1526902952352435,12,14,1,-12,-6,-2,-1,4
1526902952352435,-1,2,9,6,2,1,-2,-2
1526902952352435,3,4,-3,12,3,1,1,-2
1526902952352435,-12,-20,-9,-9,-1,0,1,-3
1526902952367394,12,7,4,1,2,0,-1,3
1526902952367394,-5,4,4,6,2,-1,-1,0
1526902952367394,0,6,-3,-9,-6,-1,-1,-1
1526902952367394,-9,-16,1,6,2,1,0,-3
1526902952389335,14,35,-1,-1,-2,-5,-1,3
1526902952389335,5,1,2,-6,-3,-3,-4,-3
1526902952390333,1,-5,-5,-8,-3,-4,0,-3
1526902952390333,-1,4,2,8,6,1,0,0
1526902952412274,-10,-14,-1,13,3,-5,-2,-5
1526902952412274,1,4,-2,-7,-4,6,0,1
1526902952413272,2,-1,-7,-11,-5,2,-2,-2
1526902952413272,3,-1,5,-2,9,-4,0,-1
1526902952427234,-5,-7,-1,-4,3,11,2,-2
1526902952427234,-1,-3,-3,-8,-22,-15,-1,-2
1526902952428232,-5,-9,-5,0,20,13,-1,0
1526902952428232,1,8,6,2,-16,-22,-2,-1
1526902952449176,2,-7,-3,-7,4,19,-2,0
1526902952449176,2,5,-3,-12,-2,5,-1,0
1526902952450173,9,10,5,26,-10,-3,2,0
1526902952450173,1,10,-3,-8,8,-5,-4,-1
1526902952472114,-12,-17,-11,-8,-6,-11,-3,-2
1526902952472114,4,2,10,-14,-1,9,3,0
1526902952473112,-14,-11,0,29,5,-1,-1,-3
1526902952473112,17,14,0,3,-1,3,-1,2
1526902952487074,0,-1,-3,7,2,-10,-2,-2
1526902952487074,-4,-4,-3,-7,-3,-2,-3,2
1526902952488071,-4,-4,-5,-12,1,-1,0,2
1526902952488071,-2,-13,3,7,-1,4,1,-5
1526902952509015,-3,-4,-4,-12,-9,-6,-2,0
1526902952509015,4,-4,-2,4,9,0,-1,3
1526902952510013,-4,-8,-9,-5,0,-6,-2,-3
1526902952510013,0,-4,4,-1,-6,3,-1,1
1526902952531954,-3,6,-1,-10,-9,1,-1,-4
1526902952531954,-3,-3,2,27,16,-1,-1,-3
1526902952532952,0,-1,0,16,6,-1,1,2
1526902952532952,-1,-5,-6,-13,-6,2,-2,-4
1526902952554893,8,12,6,-1,-2,0,1,3
1526902952554893,0,2,1,9,-2,-5,-1,-1
1526902952555890,4,7,3,-17,-2,-15,-1,-1
1526902952555890,-3,-8,-7,-5,-2,14,1,-2
1526902952569853,-1,3,7,7,9,1,1,2
1526902952569853,-7,-4,-10,-2,-5,-6,-3,-3
1526902952569853,-3,11,6,-8,-8,0,-2,0
1526902952569853,13,3,-6,-4,0,-2,-2,1
1526902952591794,-4,0,-2,3,-3,-2,-3,-2
1526902952591794,6,-4,2,-4,-2,-1,-2,1
1526902952592791,-4,-7,-1,-6,-2,2,0,-2
1526902952592791,-9,-1,4,4,2,-2,-2,-1
1526902952606754,-6,-6,-5,-1,4,4,0,-3
1526902952606754,-3,-6,-14,-5,-5,-2,-1,-1
1526902952607752,-4,-11,3,1,4,3,0,-1
1526902952607752,7,9,1,-1,-8,-4,-1,2
1526902952629693,0,-8,1,-8,-6,-5,-1,-2
1526902952629693,-1,8,4,14,8,1,0,3
1526902952630690,3,2,-6,1,-4,0,-1,-5
1526902952630690,-9,-7,-7,-8,-2,0,0,0
1526902952651634,5,1,0,15,14,0,0,2
1526902952651634,-2,-6,7,1,0,-2,-2,2
1526902952652632,-3,16,1,-11,-8,-2,-1,-4
1526902952652632,0,-6,-5,-1,-7,-2,0,-2
1526902952666594,-1,4,-6,-5,3,-4,-1,-1
1526902952666594,2,1,-2,8,9,13,3,1
1526902952674572,5,4,9,4,1,-2,-1,0
1526902952674572,-7,-5,-3,0,2,1,0,-4
1526902952689532,-8,-10,-1,-6,-11,-5,-3,0
1526902952689532,7,8,1,-5,-3,-4,-2,0
1526902952690530,-6,-17,-2,-6,1,4,-2,-3
1526902952690530,0,11,-2,-2,-1,-3,-1,-1
1526902952711474,-6,-24,-1,-5,-3,-1,0,1
1526902952711474,1,19,0,-1,0,-1,-1,-2
1526902952712471,-1,-1,-2,-5,-4,-2,-2,-2
1526902952712471,-10,-11,4,9,1,-2,0,-1
1526902952726434,10,9,-3,0,-2,4,0,2
1526902952726434,1,-5,1,-4,-7,-2,-1,0
1526902952734413,-1,2,-5,-20,-4,-4,-2,-2
1526902952734413,-3,-5,1,33,17,8,6,1
1526902952749373,-1,6,-4,0,-4,-6,-12,-5
1526902952749373,-2,-17,2,-2,-4,-4,0,-2
1526902952750370,13,27,1,-7,-16,-4,0,2
1526902952750370,-15,-15,-3,0,20,9,-3,-1
1526902952772311,-2,-10,2,1,-5,-11,3,0
1526902952772311,-2,13,-2,-6,-7,-2,-3,-3
1526902952772311,11,19,4,6,3,9,0,4
1526902952772311,3,-1,4,-8,-2,-5,1,-1
1526902952786274,-2,-4,-1,8,0,3,1,0
1526902952786274,-11,-17,-8,-11,4,-6,-3,-3
1526902952794252,-4,-9,-4,1,-9,-10,-1,-1
1526902952794252,0,-5,2,-5,2,16,0,2
1526902952809212,2,19,2,-5,-5,-3,1,-1
1526902952809212,-1,-7,-3,6,-14,-13,-2,-2
1526902952810210,-3,7,1,9,27,15,-1,-1
1526902952810210,0,-14,-3,-8,-21,-15,-6,-3
1526902952832151,2,-3,-6,-12,13,6,2,1
1526902952832151,5,8,5,1,-11,-3,10,1
1526902952833149,-15,-31,-3,4,6,7,-11,-5
1526902952833149,6,40,4,-1,-4,-18,8,2
1526902952846114,13,27,10,0,0,20,-1,1
1526902952846114,-3,-4,-9,-9,18,28,5,-4
1526902952854093,-1,-13,2,3,-15,-23,1,-5
1526902952854093,-11,-17,-8,-5,-2,-5,-8,-1
1526902952869053,2,5,0,3,-10,-26,-4,0
1526902952869053,1,-9,-1,-2,-23,-18,-4,2
1526902952870050,-7,-16,-1,-2,23,14,2,-1
1526902952870050,6,0,1,0,-8,11,-1,-2
1526902952891991,-14,-23,-3,-2,-3,-1,-1,-3
1526902952891991,17,59,-3,-5,5,-8,-6,1
1526902952892989,0,4,0,-5,-19,-24,-1,-1
1526902952892989,4,-7,4,4,-31,-18,-1,6
1526902952905954,-8,-1,-9,-1,62,54,0,-4
1526902952905954,-8,-21,10,2,9,19,4,-4
1526902952914930,7,11,-2,-1,1,8,2,0
1526902952914930,0,15,1,10,-9,-11,-5,-7
1526902952929890,-5,-13,0,0,-21,-13,0,0
1526902952929890,-3,-16,-10,-1,2,-14,-6,2
1526902952929890,6,16,1,-7,-4,-13,-1,6
1526902952929890,2,2,3,-7,0,7,-1,-1
1526902952951831,-8,-22,-10,6,0,-7,9,-3
1526902952951831,-9,3,0,1,12,23,-1,-4
1526902952952829,2,-17,-1,0,-13,-7,-2,6
1526902952952829,7,21,3,-3,8,4,-2,1
1526902952965794,-1,-4,1,2,-16,-43,2,-4
1526902952965794,-10,-23,-5,-8,3,26,1,-2
1526902952974770,2,8,1,2,-18,-3,0,5
1526902952974770,-12,-14,-6,1,34,9,1,0
1526902952989730,-8,-30,-2,-6,-15,-1,-4,-3
1526902952989730,21,30,9,8,-10,-21,-4,2
1526902952990727,-14,-1,-6,-6,14,24,1,-3
1526902952990727,-3,-10,3,5,-5,-5,1,1
1526902953011671,5,4,2,-3,-8,-1,-4,0
1526902953011671,-10,-19,-2,6,0,-14,-6,-3
1526902953012669,-4,-26,-2,-5,-3,7,0,-1
1526902953012669,4,17,4,1,17,-4,-3,-2
1526902953035607,-5,-12,-2,8,3,10,1,-1
1526902953035607,0,7,4,-9,-8,-22,-2,-1
1526902953035607,1,1,2,5,-12,13,0,-1
1526902953035607,-5,-10,-11,-9,5,3,-2,2
1526902953049570,3,17,0,-6,-4,9,-1,-1
1526902953049570,-5,-15,-3,-2,6,-7,1,-1
1526902953050567,2,19,1,8,-6,-15,4,-2
1526902953050567,0,-13,0,-8,-24,-13,-5,3
1526902953071511,1,14,-1,-4,17,18,0,-1
1526902953071511,-5,-2,-3,-6,-2,10,1,-1
1526902953072508,0,2,0,5,6,-14,4,-4
1526902953072508,7,9,6,0,-20,-15,-1,0
1526902953095447,15,26,-5,-10,16,7,-1,5
1526902953095447,-10,-15,-3,0,5,13,3,-2
1526902953096445,-5,-12,1,-1,1,-2,-6,-4
1526902953096445,1,1,-6,-7,1,0,-1,-1
1526902953109410,3,9,2,-3,-17,-9,-2,1
1526902953109410,4,15,6,10,6,-3,-2,1
1526902953110407,-5,-14,-3,1,9,4,0,1
1526902953110407,-4,-3,-4,-6,-5,3,-4,-6
1526902953132348,-14,-11,-5,-3,-7,-6,1,-5
1526902953132348,14,1,-6,-10,-11,0,-1,0
1526902953132348,12,22,0,2,-8,-7,-2,0
1526902953132348,-7,-22,-2,0,30,9,1,-1
1526902953155287,-1,9,10,10,-8,2,-7,-1
1526902953155287,-11,-2,-7,-3,-3,-8,1,-7
1526902953156285,4,2,1,-13,-13,3,-5,0
1526902953156285,4,9,0,7,-2,9,3,3
1526902953169250,1,-14,-1,2,2,-4,-2,-2
1526902953169250,-6,-12,3,9,8,1,-2,-1
1526902953170247,5,9,-9,-11,1,-6,-3,-3
1526902953170247,-5,10,-13,13,4,3,1,0
1526902953192188,-5,-23,9,-3,-4,-1,0,2
1526902953192188,0,-4,-2,-6,-8,-6,-4,-3
1526902953193186,0,-4,-3,2,4,-2,2,-1
1526902953193186,0,-4,-13,-16,-2,5,-1,-4
1526902953215127,3,11,0,3,-11,-7,1,-2
1526902953215127,4,8,8,-1,2,-2,-2,0
1526902953216125,-7,-12,0,1,4,-1,-3,-1
1526902953216125,0,-8,-5,-3,-6,0,5,1
1526902953229090,-5,-1,-1,6,2,1,0,0
1526902953229090,-8,2,-4,2,10,-3,0,0
1526902953230087,13,10,2,3,13,-7,0,3
1526902953230087,3,1,8,2,-2,13,-1,-1
1526902953252029,-1,7,-1,-2,0,-5,1,-2
1526902953252029,-5,-12,-14,-7,-8,-1,-1,-3
1526902953253026,1,6,8,3,-4,-5,-2,2
1526902953253026,-7,-5,-4,-7,-1,-4,1,-2
1526902953274967,5,3,4,-13,-9,-1,-1,4
1526902953274967,4,-6,8,8,-1,1,-1,2
1526902953275964,-17,5,-13,11,7,-1,-5,-6
1526902953275964,11,17,5,-5,-2,-1,0,2
1526902953289927,4,9,4,4,1,-1,-1,0
1526902953289927,1,2,-6,-11,-8,-3,1,2
1526902953289927,-8,-22,1,-9,-6,3,1,-2
1526902953289927,7,13,6,7,6,-1,-2,2
1526902953311868,-8,-7,-11,-5,-6,-6,-2,0
1526902953311868,10,20,3,-3,-2,1,-1,1
1526902953312866,-5,-10,-3,6,2,4,2,-1
1526902953312866,-3,-3,-3,-3,-5,-4,-2,-3
1526902953334807,4,-7,1,0,-4,-4,2,-3
1526902953334807,-5,12,-6,2,9,5,-9,-2
1526902953335805,-2,-4,4,-5,3,-1,6,2
1526902953335805,-2,5,0,-1,-2,-8,-2,-4
1526902953349767,-4,-8,-1,3,-4,0,-2,-2
1526902953349767,-4,-8,-2,-5,0,-2,1,-3
1526902953350764,-7,-8,0,2,-8,-2,-3,-6
1526902953350764,11,11,-14,-12,-5,1,0,2
1526902953371708,-3,3,13,11,16,0,4,2
1526902953371708,7,-2,11,4,-8,-1,0,0
1526902953372706,-12,1,-7,-9,-1,0,-1,-4
1526902953372706,-6,-10,5,-3,-5,-4,-1,-1
1526902953395644,1,-4,-3,4,-1,4,-1,-2
1526902953395644,-6,-18,-5,-2,-5,-2,0,-1
1526902953395644,-2,2,-3,-1,1,1,-3,-2
1526902953395644,-4,-9,0,-8,-1,-2,-3,1
1526902953409607,11,2,-9,-8,-4,-1,-2,2
1526902953409607,1,8,3,13,7,1,0,-3
1526902953410605,3,-12,2,1,0,1,0,-1
1526902953410605,-19,-10,-6,-1,-5,-4,-2,-7
1526902953431548,5,14,0,-8,0,-1,-1,2
1526902953431548,-8,-20,-4,-11,-7,-2,0,-3
1526902953432546,8,21,-2,9,1,2,0,1
1526902953432546,0,-5,7,4,-1,-2,-4,-2
1526902953454487,3,1,-7,1,-1,-1,1,0
1526902953454487,-3,-3,-8,-15,-4,-9,1,2
1526902953455484,1,1,10,-8,-6,8,-1,2
1526902953455484,-4,-10,7,11,22,12,10,-3
1526902953469447,-2,15,-1,11,-6,-6,-18,0
1526902953469447,7,9,-1,2,1,1,1,0
1526902953470444,-5,-12,-8,-14,-13,-7,-2,-3
1526902953470444,5,0,-5,-3,-5,-3,1,2
1526902953492386,4,-1,8,2,5,3,4,0
1526902953492386,-7,18,1,-3,-12,-12,1,-1
1526902953492386,2,-8,2,-11,5,11,0,1
1526902953492386,-5,-2,-3,41,16,9,-1,0
1526902953514327,-3,-12,-4,-9,-4,-4,3,1
1526902953514327,-2,-2,3,7,2,0,-3,-3
1526902953515325,1,3,-7,-8,-6,-6,3,4
1526902953515325,8,4,1,-14,-7,-6,-4,-1
1526902953529287,-9,-18,-6,-4,0,9,1,0
1526902953529287,6,-2,1,-4,-29,-11,-3,-2
1526902953530284,-1,-11,-3,14,29,10,1,0
1526902953530284,0,2,-4,-6,-12,-6,-1,-3
1526902953552225,1,3,8,8,7,0,1,-1
1526902953552225,-3,-21,-3,-9,-6,1,-1,2
1526902953553223,4,13,0,-4,-9,-7,-1,-4
1526902953553223,-1,-5,4,1,1,-6,-7,0
1526902953574167,-12,-6,-9,-5,-9,-14,2,-4
1526902953574167,1,2,-1,2,17,17,0,-1
1526902953575164,3,3,0,6,1,-1,0,-2
1526902953575164,-2,0,4,-5,-3,0,0,-1
1526902953598103,-4,3,-3,-15,-30,-27,3,-3
1526902953598103,4,2,-1,3,18,9,-21,1
1526902953598103,-1,2,-3,13,15,22,11,-2
1526902953598103,-2,-3,-3,-6,-2,-16,2,-4
1526902953612065,-3,-7,-3,2,0,4,-1,-1
1526902953612065,-6,5,4,-4,11,-10,2,3
1526902953613063,4,0,-6,-9,-10,0,-7,-3
1526902953613063,-1,5,-12,-8,-11,7,2,1
1526902953634007,-5,-7,11,4,13,3,-7,-2
1526902953634007,4,10,2,11,1,-2,3,0
1526902953635004,-8,-6,1,0,-8,-9,-8,-1
1526902953635004,5,6,1,2,4,0,5,0
1526902953648967,3,7,0,-3,1,12,1,-1
1526902953648967,-5,-13,0,-3,-4,3,3,-1
1526902953656945,6,17,1,1,-1,-9,-3,0
1526902953656945,-8,-19,2,-5,-13,-10,-2,-3
1526902953671905,12,27,-2,-3,7,11,-3,2
1526902953671905,2,-3,-3,-1,-5,-6,1,-3
1526902953672903,-6,-18,-3,-4,-19,-18,0,0
1526902953672903,-4,10,8,8,30,28,3,4
1526902953694844,10,-3,-4,2,12,0,-7,-5
1526902953694844,-2,-3,-5,4,-6,4,7,1
1526902953694844,1,-3,-9,-12,-15,-15,-2,0
1526902953694844,0,-6,-2,-13,-9,-6,-14,1
1526902953708806,-1,4,5,5,0,1,9,1
1526902953708806,-6,-2,-4,-6,2,3,4,-5
1526902953716785,-2,-8,5,4,-6,-2,-3,-2
1526902953716785,7,11,-1,-2,1,0,1,0
1526902953731745,0,-9,-8,-4,-2,0,-1,3
1526902953731745,2,3,-1,1,-7,-6,-3,-2
1526902953732743,-4,-3,1,-5,6,6,2,-1
1526902953732743,-7,-2,-4,-3,-23,-16,-4,-3
1526902953754684,-5,-4,-3,1,11,13,-1,-1
1526902953754684,1,2,-1,2,-10,-5,-3,-4
1526902953755682,-4,-8,-2,3,7,6,2,0
1526902953755682,10,8,3,-1,-4,5,9,2
1526902953768647,-4,2,-1,2,-9,-19,-16,-5
1526902953768647,-4,-20,-7,-3,11,15,16,2
1526902953776625,2,14,12,-2,11,12,-11,0
1526902953776625,16,29,-8,0,-5,-9,-4,1
1526902953791585,-8,-14,1,2,1,1,2,-2
1526902953791585,0,-3,3,2,0,5,9,1
1526902953792583,0,-3,-1,0,-5,-20,5,0
1526902953792583,-9,-13,-7,-1,6,7,-2,-1
1526902953814524,1,2,-2,-4,-6,-5,4,0
1526902953814524,1,14,4,1,-4,-5,-11,0
1526902953815522,1,-6,-6,3,-5,3,0,-1
1526902953815522,-5,-12,1,-2,4,-3,-4,-3
1526902953837463,2,-6,-6,-5,-5,-1,0,0
1526902953837463,-4,12,7,3,0,-1,-6,-1
1526902953838460,0,9,2,2,2,4,0,1
1526902953838460,-2,-8,-22,-5,-23,-13,0,1
1526902953852423,-4,-8,8,1,19,14,0,-2
1526902953852423,3,-3,-5,-1,-3,5,-1,-1
1526902953852423,-1,11,10,4,-1,-3,1,1
1526902953852423,-9,12,-2,-6,-14,-12,-6,-2
1526902953874364,1,-2,-7,-4,3,3,-2,-3
1526902953874364,-2,-13,3,-3,0,-3,-2,1
1526902953875362,9,11,-9,1,-2,-4,-5,-6
1526902953875362,-4,-11,8,2,6,1,0,-2
1526902953897303,-2,3,-7,-6,-12,-6,2,0
1526902953897303,-3,3,1,-2,-5,-6,-2,-2
1526902953898300,-2,-8,-5,-8,12,1,1,2
1526902953898300,0,-1,10,2,6,14,2,1
1526902953912263,0,9,3,7,0,-3,0,-2
1526902953912263,-4,-13,-23,-4,-16,-2,-1,0
1526902953913260,8,14,7,0,14,-2,-1,4
1526902953913260,-2,-27,5,-1,-5,-1,-1,-2
1526902953934204,1,6,9,-1,-5,-2,2,1
1526902953934204,-5,0,-3,0,-2,-8,-4,-4
1526902953935201,-4,-8,-5,-3,-5,-1,0,-1
1526902953935201,10,3,-4,-5,5,3,-2,3
1526902953957143,0,-1,-2,3,-5,-2,-1,-2
1526902953957143,-5,-6,0,-4,3,-2,-1,1
1526902953958140,-2,-15,-2,4,-2,1,-2,-1
1526902953958140,-2,14,3,1,5,2,0,-2
1526902953972103,-11,-19,-2,-3,-8,-7,1,-2
1526902953972103,20,16,-9,2,8,6,-1,3
1526902953973100,-11,-2,2,0,0,6,1,-4
1526902953973100,-1,-1,7,9,0,-5,1,1
1526902953994044,6,-1,-8,-9,-3,-1,-2,-7
1526902953994044,-6,2,-4,-9,1,-5,-2,0
1526902953995042,4,3,11,5,-1,-1,-1,1
1526902953995042,-2,-1,-3,3,3,2,1,-1
1526902954017980,-10,-6,3,2,-1,-2,-1,3
1526902954017980,2,-8,0,-3,-3,-3,1,-3
1526902954017980,6,3,-20,-15,-6,-2,2,-2
1526902954017980,-2,18,8,19,10,3,0,3
1526902954031942,-3,-2,4,1,1,0,1,1
1526902954031942,2,5,3,6,-2,-3,-3,-3
1526902954032940,-19,-27,-3,-4,-5,-2,-3,-2
1526902954032940,5,10,4,-12,-2,-3,3,0
1526902954054881,13,5,-23,-3,14,3,0,2
1526902954054881,-2,3,24,4,-2,5,2,-2
1526902954054881,-4,-4,-3,5,-1,-7,0,-2
1526902954054881,-11,-12,-7,0,0,9,-1,-3
1526902954077820,8,11,5,2,-4,0,-5,4
1526902954077820,3,-7,-9,-11,-4,-10,3,-3
1526902954078817,5,12,0,-2,-3,-1,-4,-2
1526902954078817,4,-5,-2,2,-6,-5,-2,1
1526902954091782,-2,-8,0,1,0,-2,1,-4
1526902954091782,6,26,3,-1,0,3,-4,-1
1526902954092780,-10,-13,-5,5,-2,-1,-3,-3
1526902954092780,-4,-11,-6,-6,1,-1,1,-3
1526902954114721,-15,-16,6,-2,-1,1,0,-1
1526902954114721,23,20,3,8,5,-1,-2,5
1526902954115719,-4,-7,-4,-4,-6,-2,1,-3
1526902954115719,-1,-1,6,-11,-6,-1,-3,0
1526902954137660,-3,-4,-10,9,4,-1,0,-3
1526902954137660,-12,-16,-5,-13,0,-1,-3,-5
1526902954138657,-7,-8,7,10,6,2,0,0
1526902954138657,16,23,4,9,0,-2,0,3
1526902954151622,-7,-5,-1,-8,-10,-3,-3,-1
1526902954151622,4,-2,-7,-2,-2,-2,-6,-3
1526902954152620,1,12,1,-5,-2,2,12,1
1526902954152620,-11,-24,-3,-4,-1,-4,-19,-6
1526902954174561,-6,-3,-2,-2,-8,-3,1,-1
1526902954174561,7,-3,-2,3,4,3,0,1
1526902954175559,-7,-6,-6,-7,-7,-3,-2,2
1526902954175559,-2,-10,-1,0,3,0,4,-2
1526902954197500,9,26,1,-6,-3,0,1,3
1526902954197500,-13,-22,-1,7,-19,-3,-3,-1
1526902954198497,4,6,1,-2,17,12,-2,-3
1526902954198497,0,-4,-6,-5,-10,-8,2,0
1526902954212460,3,-2,4,4,5,5,-3,0
1526902954212460,-8,2,-1,-3,-7,-3,3,-2
1526902954212460,3,3,-1,0,-2,-2,-2,-2
1526902954212460,-6,-17,-8,0,0,1,0,-5
1526902954234401,14,15,-2,-5,-3,-6,-1,1
1526902954234401,-1,12,6,3,10,4,4,3
1526902954235399,-4,-15,0,10,-7,-4,-5,-4
1526902954235399,5,10,-3,1,7,1,-2,-2
1526902954257340,1,-3,-5,-1,-8,-3,0,0
1526902954257340,-4,-1,8,1,7,1,0,-2
1526902954258338,3,4,3,-1,-5,-2,1,-1
1526902954258338,2,0,-6,-8,-4,0,6,1
1526902954272300,-6,-10,0,-5,-3,-5,-3,-1
1526902954272300,4,15,-6,8,-20,-6,-1,-2
1526902954272300,0,2,-5,-8,15,4,0,-1
1526902954272300,-3,2,5,3,1,7,-3,0
1526902954294241,-11,-3,3,9,3,-4,7,0
1526902954294241,4,-8,-5,-3,0,-9,-3,-1
1526902954295239,-3,-12,-7,-9,-13,2,-1,-2
1526902954295239,5,15,2,0,3,2,2,1
1526902954317180,-4,-1,-1,0,0,3,-4,1
1526902954317180,-9,-8,3,0,3,-3,-2,-2
1526902954318177,6,6,0,-4,-6,-5,-3,-1
1526902954318177,-5,-6,-2,1,3,-2,-4,-1
1526902954332139,-4,-10,-1,-3,-2,3,10,2
1526902954332139,0,12,-1,-4,9,0,-14,-3
1526902954333137,4,4,-5,-9,-11,-2,-2,1
1526902954333137,-9,-13,5,5,4,-3,4,-1
1526902954354081,2,3,-1,3,-9,-2,-1,-4
1526902954354081,0,-7,-9,-7,16,13,7,2
1526902954355078,-1,-4,5,4,0,-13,2,0
1526902954355078,-7,-2,-1,-8,-8,1,8,1
1526902954378017,7,2,1,10,-19,-11,-17,0
1526902954378017,-11,-27,-3,-2,20,15,10,-2
1526902954378017,10,30,2,5,1,10,-22,1
1526902954378017,-4,-5,-3,-8,0,2,1,-3
1526902954391980,6,4,2,0,0,1,8,0
1526902954391980,-5,-2,-2,2,-9,-9,-20,-2
1526902954392977,-5,-13,0,-4,-9,-8,5,-2
1526902954392977,-3,0,2,11,13,1,-3,0
1526902954414918,1,2,-4,-5,2,5,-1,3
1526902954414918,-2,3,-3,0,-3,-8,9,-2
1526902954414918,-1,-2,2,-4,3,-2,4,-1
1526902954414918,-5,-3,0,1,-4,-4,-6,0
1526902954437857,1,10,0,-11,1,-2,-1,1
1526902954437857,2,9,7,12,4,5,0,0
1526902954438855,-7,-12,-5,5,-2,-2,5,0
1526902954438855,5,3,-7,-5,-8,-2,-3,1
1526902954451820,-3,-1,1,-8,1,-11,-1,-5
1526902954451820,-5,-11,-4,3,-1,8,-2,0
1526902954452817,9,34,2,0,13,1,-5,2
1526902954452817,-6,-13,3,-1,-3,-2,2,-3
1526902954474758,0,-7,-5,-2,0,-9,-1,0
1526902954474758,-5,1,-2,-6,-6,3,-3,1
1526902954475756,-8,-17,-1,3,-4,-6,1,-3
1526902954475756,-1,-8,-6,-5,2,2,-2,-3
1526902954497697,2,21,1,1,4,4,-3,-3
1526902954497697,-5,0,-1,-4,-5,-3,1,-2
1526902954498694,-2,-6,-8,0,-3,2,3,4
1526902954498694,4,17,5,-2,-3,-2,-4,-1
1526902954511660,-4,-22,-10,1,-3,0,-1,-4
1526902954511660,3,3,6,-1,-1,0,0,2
1526902954512657,-2,-8,-6,0,16,11,2,-1
1526902954512657,6,12,3,4,-1,-1,-3,0
1526902954534599,0,-1,3,3,0,3,0,-2
1526902954534599,4,9,-9,-1,-4,-6,2,0
1526902954535596,4,-12,9,-2,-3,-6,-2,3
1526902954535596,-5,-1,0,2,3,4,2,-3
1526902954557537,-1,-3,6,1,2,-1,0,3
1526902954557537,9,9,-6,-7,-4,-3,1,1
1526902954558535,0,3,-1,1,-9,-2,-2,1
1526902954558535,-2,-6,-5,-2,-3,-4,-2,-1
1526902954571500,-2,0,2,1,4,7,-1,-2
1526902954571500,-4,-5,-4,-2,-3,2,-2,-5
1526902954579478,-10,-33,0,-3,-4,-3,-3,-2
1526902954579478,15,31,-2,-2,-1,-3,1,3
1526902954594438,-4,-7,1,-3,-2,-1,-3,-3
1526902954594438,6,12,0,4,0,-5,1,1
1526902954595436,1,-21,-12,-5,1,4,1,-1
1526902954595436,-3,37,7,0,-3,-7,-2,-2
1526902954617377,-3,-22,-1,-2,1,0,-2,-5
1526902954617377,-1,-14,5,1,0,0,3,0
1526902954617377,14,40,4,-1,-15,-12,-4,1
1526902954617377,-3,-23,-8,-5,11,19,2,1
1526902954631340,-3,1,-7,2,7,6,6,-6
1526902954631340,-12,-8,-9,-9,1,-6,0,2
1526902954639318,-5,-2,9,3,-1,4,-6,0
1526902954639318,10,17,-2,-1,-9,-12,-2,-1
1526902954654278,-2,-2,5,8,5,4,-1,-3
1526902954654278,-1,0,-4,-8,-4,1,-1,-5
1526902954655275,-5,-3,-10,8,1,-2,1,-1
1526902954655275,0,-10,7,-4,-2,-4,1,2
1526902954677217,-9,-6,-7,-3,-3,3,-5,-3
1526902954677217,9,2,-1,4,-3,-6,1,-1
1526902954678214,0,5,-1,1,2,3,1,-2
1526902954678214,-18,-29,2,2,-3,-4,-2,-4
1526902954691179,18,39,-4,-6,-2,-3,-1,4
1526902954691179,2,-15,5,2,-2,0,-1,1
1526902954699158,5,25,6,0,2,-1,2,1
1526902954699158,-11,-25,-8,-2,-2,-1,-3,-7
1526902954714118,-6,-9,-2,-7,-4,-4,-1,-1
1526902954714118,-9,-13,-1,-1,-2,2,-2,-2
1526902954715116,3,13,-5,-4,0,-1,1,0
1526902954715116,11,2,10,5,-1,-1,1,4
1526902954737057,-6,-8,-4,0,-1,0,0,-2
1526902954737057,2,7,6,-2,-3,-4,-1,0
1526902954738054,-18,-50,-7,-4,2,1,0,-5
1526902954738054,15,41,-1,1,-3,-1,0,4
1526902954751019,2,1,4,3,6,1,-1,1
1526902954751019,2,-1,1,-1,-1,1,2,-1
1526902954759995,-6,-5,-5,-6,-6,-2,1,-2
1526902954759995,-3,-12,-5,-2,2,1,1,0
1526902954774955,-1,1,8,3,-2,-4,-2,-2
1526902954774955,-2,7,-3,0,-1,-1,-3,-3
1526902954774955,8,10,0,-13,-7,-2,0,1
1526902954774955,-8,-11,-2,2,-1,-4,-3,-4
1526902954796897,-4,-5,-2,2,1,0,-1,0
1526902954796897,-12,-20,-1,-1,-1,-1,-1,-4
1526902954797894,13,27,1,0,-1,-1,-1,2
1526902954797894,-9,-19,-5,-9,-2,0,-1,-3
1526902954810860,-4,-7,6,1,-1,-4,-1,-1
1526902954810860,8,12,-3,1,0,4,0,2
1526902954819835,5,-1,0,0,1,3,-3,-1
1526902954819835,-4,-9,5,-2,-4,-3,-1,-2
1526902954834796,4,16,-5,-8,-6,-1,-1,0
1526902954834796,-5,-9,-4,-10,-4,-6,-2,-1
1526902954834796,0,6,8,30,15,3,-1,-2
1526902954834796,-1,-10,-6,-3,0,0,-2,-1
1526902954856737,-1,-9,-5,0,2,-2,1,0
1526902954856737,-6,-1,-1,-9,-6,-2,-2,-4
1526902954857735,-3,10,4,-4,-2,0,-1,-1
1526902954857735,3,4,2,0,-6,-4,-2,0
1526902954879675,-1,-6,-8,-11,-3,0,-1,-1
1526902954879675,-3,-5,8,20,10,1,10,-1
1526902954880673,-2,-2,-5,-5,-4,-4,-8,-3
1526902954880673,-5,-12,-3,-2,-1,0,0,2
1526902954894635,13,17,1,-18,-16,-6,-1,2
1526902954894635,1,3,-3,-1,9,5,3,0
1526902954895633,-11,-11,0,10,8,0,4,-4
1526902954895633,0,-7,-3,-3,-3,-1,-2,-2
1526902954916577,-2,-3,-2,2,-2,0,-3,-1
1526902954916577,-3,-3,-1,-8,-8,-3,-6,-4
1526902954917575,0,-2,1,-7,-5,-1,0,0
1526902954917575,-7,-3,0,-2,3,-1,-3,0
1526902954940513,7,10,-8,-2,1,0,-1,-2
1526902954940513,-1,12,2,9,-2,-2,-1,1
1526902954940513,-7,-15,0,-5,0,0,-1,-3
1526902954940513,10,16,7,8,-2,0,2,2
1526902954954476,-6,-9,5,1,5,0,-1,0
1526902954954476,-7,-16,-3,2,-1,-2,-4,-6
1526902954955473,1,0,-3,-4,-5,-2,2,0
1526902954955473,4,10,-4,-8,-1,1,-1,1
1526902954977414,0,-10,0,9,3,-3,0,2
1526902954977414,1,5,-1,-11,-7,-4,-4,-1
1526902954977414,-2,-3,2,20,4,-10,0,-6
1526902954977414,-7,-17,-7,-5,3,8,-3,-1
1526902955000353,2,10,0,8,6,0,-1,-1
1526902955000353,1,5,4,-4,-4,-2,-1,-3
1526902955001350,5,-1,0,-6,-4,-3,-1,0
1526902955001350,2,9,-2,0,-2,-3,2,-2
1526902955014315,-1,-3,0,0,-2,1,-1,-1
1526902955014315,-1,-8,4,6,5,3,5,2
1526902955015313,3,1,-3,-9,-6,-3,-10,-5
1526902955015313,-14,-6,-4,0,0,-1,0,-2
1526902955037254,7,2,-3,-6,-3,0,0,0
1526902955037254,-5,3,-2,2,-1,-2,-2,0
1526902955038252,4,2,0,-5,-5,1,2,0
1526902955038252,-1,-4,-2,-2,4,2,1,0
1526902955060193,-7,-1,2,8,-2,-3,-3,-3
1526902955060193,8,5,-2,-5,0,-3,1,0
1526902955061190,-3,-6,-1,-3,-2,0,-1,-2
1526902955061190,0,11,0,-7,-3,-4,-1,1
1526902955074155,-3,-3,0,28,8,3,0,-4
1526902955074155,2,-2,-2,2,0,0,-4,-2
1526902955075153,-9,-6,-6,-8,-4,5,2,0
1526902955075153,0,-5,1,-1,0,0,-3,0
1526902955097094,6,-7,-1,-10,-5,-9,2,1
1526902955097094,14,17,-1,-2,-2,2,3,2
1526902955098091,-6,3,0,1,-1,-3,1,-1
1526902955098091,-5,-6,-3,1,-1,1,3,-3
1526902955120033,1,0,0,-6,-6,-1,-10,-2
1526902955120033,-6,-11,-5,0,4,2,1,-4
1526902955121030,8,4,1,-4,-2,1,7,1
1526902955121030,0,-5,1,5,0,-2,0,2
1526902955134993,-3,7,-1,-3,1,-2,-4,0
1526902955134993,-6,-5,-3,-11,-6,-3,2,-2
1526902955134993,-6,-3,-2,7,3,-7,2,-1
1526902955134993,4,-4,-1,4,-1,1,-9,0
1526902955156934,4,-2,3,-10,-7,-2,1,-1
1526902955156934,-4,0,-5,10,4,2,-3,0
1526902955157932,-9,-5,1,-7,-1,2,-2,-1
1526902955157932,5,0,-1,0,1,-2,1,0
1526902955179872,-17,-13,-4,-7,-4,3,7,-4
1526902955179872,7,18,6,-3,-4,-10,-21,0
1526902955180870,1,-4,-7,-9,-5,-4,-6,0
1526902955180870,-1,-2,-4,2,1,-2,6,-1
1526902955194832,-9,-5,2,-1,1,5,1,-4
1526902955194832,-5,-4,0,1,0,0,6,-1
1526902955194832,3,3,-1,0,-8,-1,-5,0
1526902955194832,4,-1,-3,-4,3,-2,-2,2
1526902955216774,-4,1,1,7,6,1,3,1
1526902955216774,1,-2,-3,-1,-4,1,1,0
1526902955217771,4,1,0,1,4,0,-4,1
1526902955217771,-8,-13,-3,-9,-6,-2,1,-3
1526902955239713,4,10,-2,-2,-4,0,-3,1
1526902955239713,-4,9,0,14,8,-4,0,1
1526902955240710,13,16,1,0,-3,4,-1,4
1526902955240710,-6,-12,-4,-3,0,1,2,-4
1526902955254673,5,7,0,-2,-4,-4,-3,2
1526902955254673,-16,-18,-1,-6,-4,0,-1,-6
1526902955255670,3,7,7,10,5,2,1,3
1526902955255670,-2,-4,2,-1,-13,-12,-3,-2
1526902955276614,6,-1,-14,-3,6,10,2,3
1526902955276614,4,1,-2,-4,2,-12,-2,-1
1526902955277612,-1,2,-1,-6,5,11,2,1
1526902955277612,3,4,9,0,-1,-2,-1,-2
1526902955300550,-12,-12,-1,4,2,-3,0,-3
1526902955300550,-7,-7,-4,2,-2,5,2,0
1526902955300550,-2,-13,-5,0,2,-5,1,4
1526902955300550,15,27,-1,-3,2,1,0,1
1526902955314512,-6,-9,1,-1,0,-4,-6,-13
1526902955314512,5,4,1,-5,-2,2,8,2
1526902955315510,-5,-13,-2,-2,-4,-6,-11,-1
1526902955315510,-8,-9,2,4,-1,0,1,-2
1526902955337451,7,11,-1,-6,1,-2,2,2
1526902955337451,1,-12,-1,-1,-3,3,2,-1
1526902955337451,-10,0,-3,-2,1,2,1,-6
1526902955337451,5,0,-5,-2,-7,-3,-4,0
1526902955360390,-3,6,-2,-2,6,-2,-1,2
1526902955360390,0,3,0,-5,-2,1,-4,2
1526902955361387,-6,-3,-3,2,-1,-3,4,-1
1526902955361387,-6,-3,-3,5,3,0,-3,-3
1526902955373355,0,3,4,-6,-6,-3,-1,-3
1526902955373355,0,-20,-2,-2,-4,0,-4,4
1526902955382331,26,40,-9,-3,2,3,1,0
1526902955382331,-6,2,6,4,4,0,2,-3
1526902955397291,0,-7,1,-1,-3,0,1,-1
1526902955397291,-5,3,1,-3,0,-2,-1,-2
1526902955397291,-7,-23,-5,-4,-7,-2,-1,-4
1526902955397291,-11,8,-8,-4,1,1,-2,0
1526902955420230,9,2,1,-1,-3,1,2,1
1526902955420230,-3,11,1,0,-1,-3,-3,-1
1526902955421227,-6,-12,0,-2,-3,-4,-3,0
1526902955421227,8,8,-3,2,2,2,1,-1
1526902955434192,-8,-15,-3,-3,-1,-3,1,-2
1526902955434192,-2,1,4,3,1,1,-1,0
1526902955435190,-3,-4,-1,0,-2,-1,0,-2
1526902955435190,3,-2,-3,-1,-1,-1,-1,-1
1526902955457131,9,7,3,2,-1,2,0,1
1526902955457131,-5,2,-3,-3,-4,0,-1,-4
1526902955458129,8,-2,4,3,3,-2,2,3
1526902955458129,-22,-17,-2,0,1,-2,-4,-3
1526902955480069,-12,1,-4,-1,-3,0,-3,-5
1526902955480069,15,16,-7,-5,-1,1,2,2
1526902955481067,-14,-11,5,0,-3,-3,1,-4
1526902955481067,8,7,3,-12,-3,1,0,1
1526902955494032,-1,2,0,21,5,1,0,0
1526902955494032,-12,-24,1,1,0,-2,-2,-2
1526902955502011,8,14,-4,-3,-4,-1,1,4
1526902955502011,2,3,-6,-6,-1,-1,-1,-1
1526902955516971,-1,-6,0,-10,-5,-3,-1,1
1526902955516971,2,4,-2,-1,-1,0,0,-2
1526902955517969,-3,-2,2,-1,-1,-1,0,2
1526902955517969,10,3,4,5,-3,-3,-1,-1
1526902955539910,-5,-11,-4,-11,-4,-2,-3,-2
1526902955539910,-12,-12,-6,8,10,-1,-1,-6
1526902955540907,7,16,1,-6,-8,0,0,1
1526902955540907,5,1,-1,1,1,2,6,3
1526902955553872,-8,-4,-6,-4,-5,-4,-7,-7
1526902955553872,8,0,-1,-11,-5,-6,-1,-1
1526902955561851,-19,-17,-2,-2,7,3,-2,-3
1526902955561851,7,6,3,15,3,-4,0,4
1526902955576811,5,1,-3,-4,-7,-1,2,-4
1526902955576811,-3,-2,0,-1,-2,0,-1,-1
1526902955577809,-11,-26,-4,-1,1,-2,-5,-3
1526902955577809,7,7,-4,-6,-4,1,2,1
1526902955599749,-3,-15,4,-8,-6,-4,-3,2
1526902955599749,-10,13,2,7,-1,0,-5,-5
1526902955600747,-2,1,1,9,6,1,4,-1
1526902955600747,-12,-1,-5,-6,-1,-3,-3,-3
1526902955613712,24,7,1,-3,-3,4,5,3
1526902955613712,28,7,2,1,-5,-6,2,1
1526902955621691,-26,1,0,7,0,0,-16,-1
1526902955621691,-14,-5,-3,-9,-2,1,-4,-1
1526902955636651,-3,4,-3,10,6,-9,-4,-1
1526902955636651,7,2,7,1,-1,11,3,6
1526902955637649,-12,5,0,-2,-7,-5,8,-4
1526902955637649,-33,-11,0,-2,6,0,-4,-8
1526902955660587,2,-10,-3,-3,0,1,-2,0
1526902955660587,8,9,-2,-3,-3,-2,-2,2
1526902955660587,21,5,2,-1,-1,0,0,3
1526902955660587,4,2,-1,-3,-3,0,-2,-1
1526902955673552,-6,0,-2,-4,-1,7,0,-1
1526902955673552,-9,-21,-2,6,7,-12,-1,-1
1526902955681531,3,10,-1,0,1,0,-1,0
1526902955681531,11,10,-1,-4,-7,-1,2,1
1526902955697488,-17,-7,-3,-3,0,-3,0,-1
1526902955697488,6,-9,-5,0,0,4,0,-1
1526902955697488,9,7,5,-4,-6,-3,-1,0
1526902955697488,0,-9,-2,-6,0,-2,-3,2
1526902955719430,3,-1,4,11,5,3,0,-2
1526902955719430,-26,-2,-11,-19,-9,2,1,-4
1526902955720427,14,2,6,8,8,1,1,2
1526902955720427,-1,-2,2,10,4,0,-2,0
1526902955733392,-3,-7,-1,-5,-13,0,7,-1
1526902955733392,-2,15,-3,-1,-2,-3,-17,-3
1526902955742368,-7,-22,-8,-13,-8,-3,-1,-3
1526902955742368,8,12,6,-4,-5,-1,-1,5
1526902955757328,-3,8,-5,0,3,-3,-1,-3
1526902955757328,-2,-3,0,0,0,0,3,-2
1526902955757328,-1,0,-3,-12,-5,-1,0,-3
1526902955757328,-1,-7,-1,14,4,6,-1,1
1526902955779270,7,4,4,1,2,-8,-3,-1
1526902955779270,1,-1,4,2,-2,0,2,-2
1526902955780267,7,11,-8,-3,3,1,0,2
1526902955780267,-8,-17,-4,-12,-3,-2,3,0
1526902955794229,2,-1,0,5,5,2,-2,-2
1526902955794229,3,-4,11,5,5,0,-1,0
1526902955802208,4,2,-4,0,-8,0,0,-3
1526902955802208,0,-9,-6,-9,-5,-4,0,-1
1526902955817168,-19,-11,-14,-4,-5,1,-3,-4
1526902955817168,13,12,6,-8,5,-1,1,3
1526902955818166,-3,2,6,15,1,-1,2,-1
1526902955818166,11,11,1,-3,-4,-3,-4,-3
1526902955839109,-9,-8,1,7,9,2,0,-3
1526902955839109,0,-2,-14,-3,-4,0,1,0
1526902955840107,1,4,0,-8,0,2,0,-1
1526902955840107,1,-1,5,6,0,-1,4,-6
1526902955863045,7,5,8,-7,-6,-6,-16,2
1526902955863045,-7,11,-10,-9,-7,-1,-1,-3
1526902955863045,-8,-9,-3,2,4,-4,-2,1
1526902955863045,-6,-9,-4,1,0,1,0,-3
1526902955877008,10,10,2,-8,0,0,5,0
1526902955877008,1,-8,-7,-3,-6,1,-1,-1
1526902955878006,9,3,-3,0,3,-7,-3,0
1526902955878006,0,1,3,0,3,2,0,1
1526902955899947,-8,-5,-4,1,-8,-2,3,-3
1526902955899947,-5,2,1,2,-10,1,2,0
1526902955899947,-9,-12,-5,-8,0,-1,-1,-1
1526902955899947,7,4,-2,12,8,1,-1,3
1526902955922885,-2,1,0,-4,-5,-3,-2,-1
1526902955922885,-2,-5,0,-4,4,0,0,-2
1526902955923883,-5,-12,-5,9,-5,-1,-1,-1
1526902955923883,6,9,10,10,1,-2,-3,-1
1526902955936848,-8,-8,-2,-1,2,1,4,-1
1526902955936848,4,-1,1,-2,-3,-4,-8,-1
1526902955937846,7,16,6,-2,0,3,-5,1
1526902955937846,-11,-10,-5,-8,-6,-3,1,5
1526902955959787,7,1,-4,-2,4,-1,6,-3
1526902955959787,-1,-5,6,3,4,7,-2,0
1526902955960784,-4,-6,-5,3,-1,-22,-3,-3
1526902955960784,1,4,-1,-2,3,6,-5,0
1526902955982725,0,1,-1,-1,-6,4,6,2
1526902955982725,-3,-10,-6,-6,3,-12,-9,-1
1526902955983723,0,5,4,4,2,12,-1,-3
1526902955983723,-1,-3,-4,-6,-4,0,1,-3
1526902955996688,1,2,-3,-11,1,-6,3,-2
1526902955996688,-1,-1,7,34,-9,5,-1,-1
1526902955997686,1,3,-2,1,4,0,12,5
1526902955997686,-5,-16,2,1,-2,-4,-6,-8
1526902956019627,10,29,3,-3,2,4,5,5
1526902956019627,5,-2,1,-3,-5,-3,4,-1
1526902956020624,5,-1,2,-4,-3,-1,-7,1
1526902956020624,-13,-21,-8,-6,-4,-1,2,-7
1526902956042565,-4,-3,-8,0,-6,-5,-9,3
1526902956042565,2,-5,9,4,6,0,3,4
1526902956043563,3,6,-2,-5,-1,2,0,-1
1526902956043563,8,9,-3,-2,1,-1,0,1
1526902956056528,-5,-1,2,7,4,-1,-6,-4
1526902956056528,-13,-13,-8,-4,2,-3,-1,-5
1526902956057525,0,-7,0,-5,-3,3,1,-1
1526902956057525,5,6,0,1,-4,1,-1,-2
1526902956079467,-6,-7,-1,2,-2,-4,-15,-6
1526902956079467,1,9,-5,-6,2,0,12,1
1526902956080464,-8,-7,-3,-2,-2,-3,-4,-2
1526902956080464,-2,-10,1,-5,-5,-4,-2,-1
1526902956102406,4,4,1,10,5,5,6,3
1526902956102406,-10,-8,-7,-10,0,-3,-21,0
1526902956103403,2,5,-6,1,-3,-2,0,-2
1526902956103403,0,7,4,-1,-3,1,2,2
1526902956117365,2,-13,-2,-2,0,1,-1,0
1526902956117365,-10,-10,-4,-2,-4,-4,2,-3
1526902956117365,-6,0,2,-2,0,2,1,1
1526902956117365,13,18,7,2,1,-1,-5,-5
1526902956139307,0,-1,-5,-4,-4,-2,0,-4
1526902956139307,5,2,-2,5,3,1,3,1
1526902956140304,-13,-11,2,-2,0,1,-1,-2
1526902956140304,0,0,-7,3,1,-1,2,0
1526902956162245,2,10,5,1,-1,-2,-1,-1
1526902956162245,0,-3,-2,-5,-1,-1,-1,1
1526902956163243,1,-1,3,-4,-2,-1,-2,-2
1526902956163243,1,-4,-2,-3,0,-1,0,0
1526902956177205,-7,-3,-2,4,2,0,-1,-1
1526902956177205,0,-7,3,-4,-1,0,4,4
1526902956178203,18,21,4,15,2,0,-1,2
1526902956178203,-2,0,1,15,6,0,-1,-1
1526902956199147,-7,-12,-11,-5,-1,0,-3,-2
1526902956199147,2,15,1,-7,-5,-3,1,-1
1526902956200144,-1,-9,-2,-4,-1,0,1,0
1526902956200144,-9,-6,-5,-3,1,1,0,-3
1526902956223083,8,4,-4,-2,-2,2,7,2
1526902956223083,-5,1,10,1,0,-4,-15,-2
1526902956224080,-5,-6,-6,-7,-5,-2,-4,-4
1526902956224080,1,7,-5,-4,-4,0,-1,2
1526902956237045,-3,-2,6,-4,-1,-2,3,-2
1526902956237045,8,6,-4,3,2,2,5,0
1526902956238043,-8,-3,1,3,1,-1,-1,-2
1526902956238043,-8,-2,-6,-7,-2,-1,-5,0
1526902956259984,-1,0,3,-1,-3,-2,-3,0
1526902956259984,2,-7,-5,1,0,0,2,0
1526902956259984,-7,-18,-9,-3,1,-3,0,-3
1526902956259984,-3,-5,5,0,0,-3,2,-1
1526902956282923,-2,1,0,1,-2,-2,-1,-2
1526902956282923,-1,-3,1,3,1,-2,1,-2
1526902956283920,-5,5,-3,-7,-3,-2,0,-2
1526902956283920,9,1,-11,-10,-3,-2,-2,0
1526902956296885,1,7,-1,-5,0,0,-2,2
1526902956296885,-7,-5,9,16,4,3,3,-2
1526902956297883,0,-2,-3,-2,1,-1,-1,0
1526902956297883,-3,0,6,1,-2,-3,-3,-3
1526902956319824,-8,-27,5,0,1,1,1,-3
1526902956319824,12,29,-9,-9,-5,-2,2,2
1526902956319824,-6,-1,3,-5,-3,-1,-1,1
1526902956319824,7,1,-2,1,2,0,-1,-1
1526902956342763,2,6,-4,-1,-5,-3,-3,-2
1526902956342763,-7,-13,-2,-2,2,2,-1,-1
1526902956343760,4,5,2,3,2,0,-1,0
1526902956343760,-5,-4,-3,-3,-2,-2,0,0
1526902956356725,-3,-4,-2,0,-1,-2,-2,-2
1526902956356725,-8,-17,-3,-3,-3,0,3,-4
1526902956357723,14,26,-2,-5,-2,0,1,4
1526902956357723,-3,-20,0,2,1,0,4,0
1526902956379664,-6,7,-7,0,-1,-2,-10,-2
1526902956379664,7,13,1,-7,-2,-2,0,1
1526902956380661,-6,-14,0,3,2,0,-1,-4
1526902956380661,0,3,2,1,-3,-2,-4,-1
1526902956402603,-13,-14,-4,1,0,2,0,-4
1526902956402603,7,0,-4,-8,-1,-1,1,1
1526902956403600,9,4,0,1,0,-1,-2,1
1526902956403600,-4,7,1,0,-4,-3,2,2
1526902956416565,5,3,6,2,2,-1,1,2
1526902956416565,-6,-9,-6,-2,-1,-1,-2,-3
1526902956417562,-3,-9,-7,9,-2,1,-1,-1
1526902956417562,-2,2,-1,2,-2,-1,-3,-1
1526902956439504,3,0,-6,3,0,-3,0,0
1526902956439504,0,-12,-1,-8,0,-1,-2,-1
1526902956440501,3,13,2,-6,-2,-4,-3,-1
1526902956440501,-1,-1,-2,-5,-3,2,3,-2
1526902956462443,7,14,10,1,2,0,1,4
1526902956462443,-9,-17,-11,-8,-6,-2,0,-3
1526902956463440,-4,-11,7,8,1,-2,-1,-1
1526902956463440,-3,1,0,-1,0,-1,-1,-2
1526902956476405,-9,-28,-6,-4,-1,-2,0,-4
1526902956476405,14,23,1,3,0,0,1,3
1526902956484384,-5,-5,0,-8,-4,0,0,-1
1526902956484384,-3,-3,-1,-16,-8,-5,-4,-3
1526902956499344,11,11,4,23,6,2,0,0
1526902956499344,-13,-15,-4,0,0,0,-1,-5
1526902956500341,-3,-8,-6,-6,-3,-3,-3,-3
1526902956500341,1,-1,6,5,1,1,0,2
1526902956522282,1,11,-4,-16,-10,-4,-1,1
1526902956522282,-1,1,1,1,0,-2,-3,-6
1526902956523280,2,-3,-2,6,4,1,2,1
1526902956523280,-2,-15,-8,-8,-3,-2,0,-1
1526902956536245,0,12,1,-2,0,-3,-13,-3
1526902956536245,4,-7,2,3,-3,0,1,-2
1526902956544224,-2,1,-5,-8,0,-2,0,-1
1526902956544224,-5,-8,3,3,-3,3,-1,1
1526902956559184,4,10,-5,-7,0,-6,2,-4
1526902956559184,4,-1,2,4,2,1,0,0
1526902956560181,-8,2,-2,-1,-2,-2,-2,-4
1526902956560181,0,-4,-2,3,3,0,1,0
1526902956583120,6,7,-4,-7,-2,2,2,2
1526902956583120,-3,1,8,2,1,-1,-2,-6
1526902956583120,-10,-22,-1,-8,-2,0,0,-2
1526902956583120,6,28,-4,13,1,-2,-2,1
1526902956596085,-2,-10,-1,-5,-6,-1,-2,-2
1526902956596085,-2,9,-1,10,5,1,-2,-2
1526902956604064,8,3,1,-2,-1,3,-2,2
1526902956604064,-8,-2,-3,-4,0,-3,-2,0
1526902956619024,-3,-2,3,1,0,2,1,-1
1526902956619024,-1,3,-1,-5,-4,-2,0,0
1526902956620021,5,6,1,3,1,-2,3,3
1526902956620021,-2,-2,-4,-4,-3,-3,-4,-4
1526902956642960,-5,-6,-2,2,0,0,2,-4
1526902956642960,-1,0,-2,-6,-1,-1,-1,-2
1526902956643957,0,-1,-2,-2,-1,0,0,1
1526902956643957,7,5,-1,0,1,-1,-1,1
1526902956664901,-3,1,1,3,-4,0,0,-2
1526902956664901,-9,-16,-7,-3,-1,2,2,-4
1526902956665899,15,26,3,-6,0,-5,-7,2
1526902956665899,2,0,-2,-4,-6,1,0,1
1526902956679861,-1,-6,3,8,9,1,5,1
1526902956679861,-2,3,-2,10,2,0,0,0
1526902956679861,0,-3,-4,-3,-7,-9,-1,-2
1526902956679861,-3,-6,-3,-6,0,-1,2,-1
1526902956702800,1,-4,2,-9,-4,4,-1,0
1526902956702800,0,-2,-3,-9,-4,-3,-2,-2
1526902956703797,-5,-1,-2,1,-1,8,12,0
1526902956703797,4,3,1,1,2,0,-17,1
1526902956716763,-7,-12,-7,-5,-5,-13,9,-3
1526902956716763,8,18,6,-1,0,-5,-3,3
1526902956724741,-4,-11,-2,3,0,9,-6,-1
1526902956724741,0,0,1,-5,-13,0,2,-3
1526902956739701,-6,-9,-4,4,20,0,1,3
1526902956739701,-1,-5,0,-2,-4,-6,5,0
1526902956740698,-4,8,0,-3,0,-1,-2,1
1526902956740698,4,14,3,5,3,-5,-4,-1
1526902956762640,0,-5,2,-1,-5,12,-2,-2
1526902956762640,4,13,-3,-2,-5,-2,-2,-4
1526902956763637,-10,-13,-2,-1,4,-1,-6,0
1526902956763637,-2,-7,-2,2,0,1,5,0
1526902956785578,-8,5,2,-1,-6,-3,-9,-2
1526902956785578,2,-17,4,1,2,1,-3,0
1526902956785578,12,27,-8,-3,-3,-1,4,-2
1526902956785578,-4,-9,-3,-4,2,-2,1,-3
1526902956799541,6,7,1,2,-2,-3,1,0
1526902956799541,-10,-8,-2,0,1,3,-4,-3
1526902956800539,-4,-12,-3,1,-1,-1,4,-1
1526902956800539,-4,-11,-10,-7,-2,-4,-15,0
1526902956822480,4,8,6,4,1,2,-5,-2
1526902956822480,-2,-1,-3,-1,-4,-2,-2,0
1526902956822480,0,3,0,-4,-3,-3,1,1
1526902956822480,1,12,9,4,2,3,6,6
1526902956845418,7,-8,-6,-4,-3,2,2,-1
1526902956845418,2,6,3,2,0,2,-7,1
1526902956846416,-8,-5,0,1,1,-3,0,-5
1526902956846416,1,-10,-4,-2,-2,-4,1,-2
1526902956859381,-4,5,-1,0,-4,-3,-2,-2
1526902956859381,-9,-6,-2,-3,-2,1,3,3
1526902956860378,4,-7,-1,1,3,2,-3,-1
1526902956860378,2,4,0,1,0,1,3,-2
1526902956882320,-7,-2,5,3,0,0,-1,0
1526902956882320,-3,-4,-5,-3,1,-1,0,0
1526902956883317,7,10,5,2,-3,0,-3,-1
1526902956883317,-12,-14,-11,-3,1,-2,1,-5
1526902956905258,17,18,8,1,-1,-3,-1,3
1526902956905258,-7,-12,-2,0,-3,1,6,0
1526902956906256,3,-2,3,-1,-1,-5,-15,1
1526902956906256,-3,10,-5,-4,-2,1,4,-5
1526902956919221,-11,-14,-7,-6,-2,1,-1,-3
1526902956919221,4,-3,1,4,0,-1,0,0
1526902956920219,-6,-14,-6,-2,-2,-2,-1,-5
1526902956920219,-3,10,1,3,0,-1,-3,-2
1526902956942159,4,-5,-4,-5,-2,-1,2,3
1526902956942159,4,13,1,-1,1,1,-2,2
1526902956943157,-4,-6,2,-2,-4,-5,0,-2
1526902956943157,-8,-8,-1,0,-2,-1,-4,-3
1526902956965098,3,9,1,-2,3,0,3,3
1526902956965098,4,7,0,3,3,-3,-1,-3
1526902956966096,-6,-13,-1,4,-1,1,0,-4
1526902956966096,2,9,4,-5,-1,-1,2,-1
1526902956979061,-8,-16,-14,-2,-3,-2,-4,-2
1526902956979061,12,7,13,0,0,-1,-2,2
1526902956980058,-6,-1,-9,-4,0,-1,-1,-3
1526902956980058,-3,-31,1,0,-2,1,6,0
1526902957002000,5,32,10,2,0,-3,-14,0
1526902957002000,0,5,-8,-3,-2,-1,-2,-1
1526902957002997,-3,-4,3,0,-1,-2,1,-4
1526902957002997,-3,-12,-1,-9,-6,-2,2,0
1526902957024938,3,4,-2,17,6,3,4,1
1526902957024938,-4,-3,3,-3,-1,-1,-1,-2
1526902957025936,-1,6,3,3,0,1,3,2
1526902957025936,3,5,-6,-1,-1,0,-3,-3
1526902957039898,-4,-14,-3,-6,-3,-1,0,-3
1526902957039898,-8,-15,-1,-1,-2,-2,-2,2
1526902957039898,0,2,1,1,3,2,2,3
1526902957039898,4,5,-1,-8,-2,-1,0,0
1526902957061840,-2,-9,-5,-7,-3,-3,-2,-4
1526902957061840,-2,0,-11,7,1,0,-1,-3
1526902957062837,-4,-6,2,-3,-1,4,-1,0
1526902957062837,0,-3,4,7,3,-5,-1,0
1526902957084778,0,1,-1,-7,-5,-2,-2,0
1526902957084778,4,3,-3,-5,-5,-3,-1,1
1526902957085776,14,4,-4,-1,-1,5,-2,1
1526902957085776,-5,4,0,5,3,-1,-2,0
1526902957099738,-3,-9,-4,-5,-1,2,2,1
1526902957099738,7,17,-3,-8,0,2,-1,0
1526902957100736,-6,-9,7,13,0,-1,0,-3
1526902957100736,2,-1,-2,2,-1,1,-1,-3
1526902957121680,-7,-10,6,0,-1,-2,-1,0
1526902957121680,3,6,-6,-9,-1,-3,-4,-2
1526902957122677,-3,2,-1,-7,-2,-3,4,2
1526902957122677,6,-4,-2,-2,1,1,2,0
1526902957145616,-8,4,0,6,2,1,-7,1
1526902957145616,1,7,3,1,-3,-3,-2,-1
1526902957145616,-2,-4,-12,-5,-3,-3,-2,-2
1526902957145616,2,1,10,4,1,4,-1,3
1526902957159578,0,2,4,6,1,0,1,-3
1526902957159578,-5,-12,0,0,-2,-3,-1,-1
1526902957160576,-3,5,0,4,2,-3,-2,-1
1526902957160576,0,6,0,-5,-2,-1,2,1
1526902957181520,11,13,0,-2,-1,-2,0,-1
1526902957181520,-12,-16,2,0,2,1,0,0
1526902957182517,15,21,-2,-1,0,-1,-1,1
1526902957182517,-4,-5,-3,-7,-7,-2,-5,-4
1526902957205455,-12,-13,-4,26,12,0,2,-2
1526902957205455,-9,-16,-4,-5,-4,-2,-3,-4
1526902957206453,16,19,2,0,1,-1,-1,3
1526902957206453,-4,-2,-2,-1,-1,0,-2,-1
1526902957219418,1,1,0,-14,-8,-2,-2,-3
1526902957219418,-7,-12,-6,-6,-4,0,3,-1
1526902957220416,-5,-10,0,-3,4,-4,-4,-1
1526902957220416,7,10,0,-9,-2,-2,-2,1
1526902957242357,0,-1,1,22,15,5,1,0
1526902957242357,0,6,-4,0,0,-1,0,-3
1526902957242357,-7,-14,-1,-8,-3,-1,-1,-2
1526902957242357,-5,5,-3,0,-4,-4,-1,-1
1526902957265295,15,-2,-1,-13,-11,-3,0,1
1526902957265295,-1,9,3,1,0,0,-3,-3
1526902957266293,-7,-7,-6,0,-2,-1,-1,-4
1526902957266293,-11,-15,3,2,4,2,0,-2
1526902957279258,-9,-11,-3,-7,-2,0,1,-3
1526902957279258,20,21,2,3,1,1,2,8
1526902957280255,-3,-8,-3,-4,-4,-3,-1,-4
1526902957280255,-4,5,2,6,1,-1,-1,0
1526902957302197,-1,-8,-2,-3,0,-1,0,-4
1526902957302197,-12,-3,-1,-2,0,1,3,-4
1526902957303194,-3,-6,-1,1,-2,-2,-11,-1
1526902957303194,-1,0,-2,-2,-1,0,0,-1
1526902957325136,3,10,-5,-10,-9,-2,-1,2
1526902957325136,-4,-10,1,5,2,1,-3,-2
1526902957326133,-6,-2,1,2,1,0,2,2
1526902957326133,-5,-20,-6,3,5,0,-1,-4
1526902957339098,-5,15,-3,-12,-8,-4,-1,-1
1526902957339098,18,15,-1,-8,-8,-1,2,0
1526902957340096,-5,-8,1,-3,-1,0,0,0
1526902957340096,5,6,-1,3,-2,-2,-4,-1
1526902957362037,-9,-17,-6,-8,-4,0,1,-4
1526902957362037,2,0,7,9,6,3,-1,-1
1526902957363034,-2,1,-7,-4,-3,-1,2,0
1526902957363034,5,1,3,5,1,-3,-1,1
1526902957384975,3,7,-3,-2,-1,-1,-5,-6
1526902957384975,-14,-18,1,-1,-4,-3,-4,-1
1526902957385973,7,14,2,-1,3,4,2,1
1526902957385973,-7,1,-5,0,2,0,1,2
1526902957398938,27,5,4,-9,-6,-4,-1,3
1526902957398938,-6,-4,-1,-2,0,1,5,-2
1526902957406917,-2,4,1,7,1,-2,-12,-1
1526902957406917,-7,-9,-5,-11,-6,-1,0,-4
1526902957421877,-7,-8,-4,2,1,-1,0,0
1526902957421877,2,17,2,-1,-3,-4,-4,1
1526902957422874,-4,-8,0,-4,-3,0,5,4
1526902957422874,7,11,-1,0,1,1,0,-3
1526902957444815,-9,-9,-3,2,-3,1,-2,-1
1526902957444815,1,-3,-6,-5,1,-3,-1,-3
1526902957445813,-9,-8,2,1,-1,-2,1,-3
1526902957445813,0,-3,-5,-3,-6,0,-3,0
1526902957458778,8,6,-8,-2,7,4,5,3
1526902957458778,-3,2,8,-8,-5,-2,-1,1
1526902957466756,2,0,3,21,8,2,1,-3
1526902957466756,-1,-1,1,-10,-4,-6,-2,1
1526902957481717,-4,-4,-5,-2,-3,6,2,-2
1526902957481717,-1,-2,-1,2,2,-11,-2,1
1526902957482714,-4,-7,-5,-9,-8,-1,-2,-1
1526902957482714,11,11,4,8,8,2,2,-1
1526902957505653,-9,-2,5,-2,-4,-1,-1,-2
1526902957505653,0,-5,-6,7,4,6,4,-1
1526902957505653,-2,-16,-8,-11,-3,-3,1,1
1526902957505653,6,12,-1,1,-2,-5,-1,2
1526902957518618,-2,4,13,-2,1,9,3,2
1526902957518618,-5,-12,-4,6,0,-6,1,-2
1526902957526597,-1,3,-4,-4,1,-1,3,-2
1526902957526597,2,0,-2,-6,-6,1,-2,1
1526902957541556,0,-1,1,9,3,-4,-5,-2
1526902957541556,1,0,-1,-1,-1,2,-4,1
1526902957542554,-1,-2,-10,-3,-9,-2,-2,-1
1526902957542554,-1,1,6,0,12,0,-2,0
1526902957565493,-10,-11,0,-1,-3,-6,0,1
1526902957565493,26,27,2,1,-1,1,5,3
1526902957565493,0,5,-1,-2,-2,-3,-9,-3
1526902957565493,-5,-11,-4,-1,-5,-1,-1,-3
1526902957578458,-12,-15,-3,1,-1,-4,-2,-4
1526902957578458,-11,-6,-9,-2,-1,0,1,0
1526902957587434,12,7,10,1,-2,-1,1,1
1526902957587434,-5,-5,-1,2,0,-1,-1,-3
1526902957602394,1,2,0,0,0,-4,-3,-2
1526902957602394,-8,-8,-5,-4,-4,-1,-4,0
1526902957602394,1,3,3,-1,0,-2,1,-1
1526902957602394,-7,-5,-1,-1,0,-1,-2,-4
1526902957625333,1,1,-12,-5,0,-1,2,2
1526902957625333,0,2,9,-2,-2,-2,-4,2
1526902957626330,-2,-13,3,1,3,2,3,-1
1526902957626330,4,14,-3,2,-2,2,1,-1
1526902957639295,-9,-8,-3,-3,-2,-1,-1,-3
1526902957639295,-1,1,0,-2,-2,-1,-5,-5
1526902957647274,1,2,5,0,1,-2,0,-3
1526902957647274,-8,-5,-3,-4,-5,-1,-2,-1
1526902957662234,6,-1,0,-1,0,-3,-3,-2
1526902957662234,-12,-14,-5,1,-1,-1,-3,-4
1526902957663232,0,-3,4,-1,1,-1,3,-2
1526902957663232,20,28,-1,1,-1,2,-1,5
1526902957685172,-3,1,1,-2,-3,-4,-3,-1
1526902957685172,-3,-8,-3,-1,0,1,1,0
1526902957686170,-7,-5,-3,0,-1,-1,-4,-1
1526902957686170,4,6,1,1,0,0,2,-4
1526902957708111,-4,-4,3,2,1,-1,2,3
1526902957708111,7,5,-3,-5,-1,1,1,2
1526902957708111,1,1,-5,-2,-3,-1,0,-4
1526902957708111,-15,-17,-4,0,-1,-1,-2,-4
1526902957722074,11,14,4,0,-1,0,0,-1
1526902957722074,-4,-2,-2,-1,0,-2,-2,-2
1526902957723071,1,-12,-5,-1,-2,-1,0,-1
1526902957723071,-11,-6,-4,-5,-1,-1,-2,-2
1526902957745013,16,12,0,-1,-1,-1,0,3
1526902957745013,-7,-12,-6,-2,0,0,-2,1
1526902957746010,-7,-4,0,1,-1,-1,-1,-2
1526902957746010,3,9,6,-1,-1,-2,-1,-1
1526902957767951,-2,-4,-10,4,0,-2,-1,-4
1526902957767951,-2,-1,8,-1,0,0,-2,2
1526902957768949,-8,-8,-8,-4,-1,-2,-1,-1
1526902957768949,12,20,8,0,-2,-1,2,1
1526902957781914,-1,0,3,7,1,-1,-1,-4
1526902957781914,-1,-4,-3,-1,-3,-1,-2,-3
1526902957782911,-4,7,-2,2,1,1,-1,0
1526902957782911,-5,-22,-8,-3,-2,1,0,-2
1526902957804852,-7,-6,7,-2,-1,0,0,0
1526902957804852,13,24,0,-3,-9,-10,-4,-2
1526902957805850,-3,-8,1,1,-1,0,1,1
1526902957805850,6,-2,-3,2,5,3,1,-1
1526902957827791,-4,8,-3,-3,0,0,0,-1
1526902957827791,-5,-22,0,1,1,3,8,-4
1526902957828789,3,26,7,-2,-1,-1,-9,2
1526902957828789,1,-13,-13,-1,0,-3,0,1
1526902957841754,-9,-9,0,-9,-4,-1,-4,-1
1526902957841754,4,3,6,0,3,1,3,0
1526902957842751,4,-4,-6,-1,-2,0,0,-2
1526902957842751,-7,-10,-3,-2,-1,1,-2,-3
1526902957865690,4,7,5,7,3,0,-2,2
1526902957865690,-3,-5,-4,-7,-1,0,-1,-1
1526902957865690,2,5,2,-1,-2,-1,1,-1
1526902957865690,-2,1,-2,-2,6,1,-2,0
1526902957887631,1,-4,-2,-8,-6,-4,1,-4
1526902957887631,2,7,2,5,3,0,-2,1
1526902957888629,-5,-11,-11,-2,0,-1,0,-2
1526902957888629,2,1,8,-1,-4,-4,2,1
1526902957901594,-2,1,-2,-2,-1,0,0,-2
1526902957901594,2,9,2,9,3,0,-2,0
1526902957902591,5,14,-1,-1,-3,0,-1,0
1526902957902591,-3,-10,4,-2,-1,-3,-1,-1
1526902957925530,-7,-2,0,-4,1,1,1,-2
1526902957925530,5,5,-7,6,-3,-2,-3,1
1526902957925530,-1,-6,0,2,2,2,4,-2
1526902957925530,4,12,3,7,1,0,2,-1
1526902957947471,1,-5,-10,-2,1,-1,0,-1
1526902957947471,-7,-6,5,-3,-3,0,1,1
1526902957948469,0,-2,-5,-4,-5,-3,-4,-1
1526902957948469,-6,-8,-3,-2,-4,-2,1,-5
1526902957962431,2,8,0,1,1,2,-1,1
1526902957962431,-6,0,-5,-1,0,-4,0,0
1526902957962431,6,-2,4,-3,-1,0,3,1
1526902957962431,-8,-8,-2,2,-1,-1,-4,-5
1526902957984372,-3,-5,-3,-5,-2,-3,-3,-1
1526902957984372,-5,-4,-3,-2,0,3,-3,-2
1526902957985370,7,16,4,1,2,-2,-2,1
1526902957985370,-4,-7,-6,-3,-3,0,-1,0
1526902958007311,4,0,3,4,-2,-1,-1,-1
1526902958007311,-6,-12,-1,-4,-2,0,0,-2
1526902958008308,-6,-4,-14,-6,1,-1,0,0
1526902958008308,13,20,10,0,0,-1,0,4
1526902958022271,-5,-5,0,1,-2,0,-2,-3
1526902958022271,4,5,0,0,-2,1,-1,0
1526902958023269,-3,1,-1,-7,-1,-1,-1,0
1526902958023269,-4,-4,-2,13,1,-1,-1,-3
1526902958044213,-7,-18,-5,-2,0,0,0,-2
1526902958044213,7,13,5,-4,1,4,1,0
1526902958045210,-1,-5,3,0,-6,-14,-3,0
1526902958045210,-7,-7,-6,-9,-2,-2,1,-3
1526902958068148,1,1,2,-1,-4,-4,-3,-3
1526902958068148,-8,-15,-7,3,0,2,4,-2
1526902958068148,-2,9,2,1,2,-1,-15,-2
1526902958068148,6,7,2,-6,-3,-2,-1,0
1526902958082111,9,5,-5,1,1,-1,1,3
1526902958082111,-4,-10,-11,-9,-3,-3,-4,-1
1526902958083109,8,12,8,1,2,2,3,0
1526902958083109,-10,-17,-3,4,-2,-1,-3,-2
1526902958105049,5,12,-5,-3,-2,-1,-1,-1
1526902958105049,-8,4,8,-6,-1,1,3,1
1526902958105049,-5,-11,0,8,0,-1,2,0
1526902958105049,-1,-2,-2,8,4,2,-2,-2
1526902958127988,-2,-7,-1,6,4,-1,0,-1
1526902958127988,-5,-9,-2,1,-1,-3,-4,-2
1526902958128986,5,3,3,-6,-3,1,4,0
1526902958128986,8,19,-1,-8,-3,-2,-2,0
1526902958141951,-10,-2,8,3,-2,-1,-1,-2
1526902958141951,8,-4,-3,7,4,-4,-1,-1
1526902958142949,-9,-9,0,0,-1,2,1,-2
1526902958142949,-12,-10,-5,-3,-2,-2,-1,-2
1526902958164890,11,1,3,-2,-1,-1,0,-1
1526902958164890,-3,6,-2,0,0,-1,4,0
1526902958164890,0,-9,-6,-4,-4,-3,-17,-3
1526902958164890,-3,-3,1,-7,0,-1,-1,0
1526902958187828,1,-1,2,3,-1,-3,0,0
1526902958187828,-5,-15,-8,-6,-2,4,-2,-1
1526902958188826,8,22,11,4,0,-10,2,-3
1526902958188826,0,-3,-3,0,0,0,-1,0
1526902958201791,-3,-3,-2,-12,-9,0,-3,-3
1526902958201791,-1,-2,-3,3,-6,-6,-2,0
1526902958202788,-4,-8,-8,-2,11,-2,5,2
1526902958202788,1,-1,4,-1,-2,10,1,0
1526902958224729,-1,4,1,1,3,1,2,-1
1526902958224729,2,0,3,-3,-8,-6,-7,1
1526902958225727,-9,-2,-5,-4,-5,4,4,-2
1526902958225727,-7,-13,-1,2,-1,-4,-1,-3
1526902958247668,6,7,-4,-1,0,0,-1,2
1526902958247668,5,8,0,-4,1,-1,-2,3
1526902958248666,-6,-5,5,5,0,0,-1,-2
1526902958248666,-1,-2,-3,-1,-3,-3,0,-2
1526902958261631,-13,-29,-8,-7,-3,0,-1,-3
1526902958261631,10,26,-3,-1,0,-1,-3,-1
1526902958262628,-3,-4,1,3,0,7,2,0
1526902958262628,-3,-7,-2,-3,-3,-3,2,0
1526902958284569,-1,4,-1,4,1,-1,-1,-1
1526902958284569,1,-2,-4,-4,1,-2,-2,-2
1526902958285567,-1,-7,0,-4,-2,2,0,-4
1526902958285567,3,4,3,2,1,1,-1,1
1526902958307508,-6,-12,-10,0,-1,-2,-1,1
1526902958307508,0,6,6,2,1,3,1,0
1526902958308506,3,-5,0,2,-2,-2,-2,-4
1526902958308506,8,7,1,2,0,1,-1,1
1526902958322468,-8,-10,-3,-2,0,-2,-1,-2
1526902958322468,0,-5,-3,-2,-2,-2,2,1
1526902958322468,-4,-3,-6,-1,0,0,1,-1
1526902958322468,3,5,1,0,-2,-3,0,-2
1526902958344410,4,7,2,-3,-2,-2,0,4
1526902958344410,-10,-6,-3,-3,0,-4,-2,-4
1526902958345407,4,9,-1,2,-1,0,-2,1
1526902958345407,-2,1,-3,-1,1,-1,0,-2
1526902958367349,-3,-12,-4,-2,-3,0,0,1
1526902958367349,1,34,12,6,1,-3,0,-3
1526902958368346,-7,-3,-6,-4,-1,-1,1,-4
1526902958368346,3,-5,-6,-1,-3,-3,-2,-3
1526902958381311,7,9,0,0,-2,0,-1,0
1526902958381311,-7,-20,-1,-2,-1,-1,-2,-1
1526902958389289,-3,-8,-9,-2,1,2,0,-1
1526902958389289,-1,14,11,1,0,0,-1,-1
1526902958404249,-4,-15,-2,-2,0,-3,0,1
1526902958404249,-3,-6,4,6,0,1,0,1
1526902958405247,0,-5,-7,-2,-3,0,0,0
1526902958405247,-1,3,1,-3,-1,-1,-2,0
1526902958428186,4,14,-2,0,-2,-3,-1,-2
1526902958428186,2,-6,0,0,-1,0,0,1
1526902958428186,-3,-7,4,-1,-1,-1,0,-2
1526902958428186,4,4,-5,-3,0,2,-1,3
1526902958441151,2,7,2,-1,0,-2,-1,-1
1526902958441151,-6,-6,-3,3,0,0,-1,0
1526902958449129,1,-1,-6,-6,-2,-2,0,0
1526902958449129,-11,-6,-7,1,-3,-1,-1,-2
1526902958464089,18,31,10,-3,-1,-2,2,1
1526902958464089,-5,-12,-5,1,1,1,-2,-2
1526902958465087,3,3,8,3,1,-3,0,0
1526902958465087,-10,-12,-8,-4,-2,-2,-2,-2
1526902958488026,-3,-4,-3,2,1,0,-1,0
1526902958488026,-5,-13,2,-1,-1,-3,-1,-3
1526902958489023,4,11,1,0,0,1,0,-1
1526902958489023,14,27,-4,-2,-2,-3,-2,0
1526902958500991,-6,-8,7,-1,-2,0,-2,-3
1526902958500991,7,8,-4,-5,-4,-1,-1,0
1526902958509967,-7,-10,-3,-2,-1,0,-2,-1
1526902958509967,-5,-12,1,4,2,-2,-1,-6
1526902958524927,-3,-3,-5,-2,0,1,0,1
1526902958524927,1,-4,-5,-2,2,0,-1,-2
1526902958524927,8,14,4,0,0,-2,-1,0
1526902958524927,-1,0,0,-1,0,-2,0,1
1526902958547865,-7,-11,-2,-1,1,-2,-2,-3
1526902958547865,0,-3,-7,-4,-4,-3,-2,-3
1526902958548863,-6,-11,-3,-1,-4,-3,-1,-1
1526902958548863,5,9,3,-1,2,1,2,2
1526902958561828,-6,-2,-4,3,-1,0,-1,-3
1526902958561828,8,10,1,-7,-3,-2,0,3
1526902958569807,6,6,1,-2,-1,0,-2,0
1526902958569807,-11,-11,1,-4,-2,-2,-3,-4
1526902958584766,3,-5,-13,-4,-5,0,5,1
1526902958584766,-4,3,9,-2,1,-1,-10,-1
1526902958585764,-2,0,-1,7,4,-1,1,-3
1526902958585764,-1,-6,-1,0,-2,-1,0,0
1526902958607705,-7,-6,2,-2,-3,-2,-4,-5
1526902958607705,1,-7,-3,-1,3,1,2,1
1526902958608703,1,-15,-3,-1,-4,0,4,3
1526902958608703,-2,1,2,0,-1,1,-1,-1
1526902958621668,10,23,0,1,-3,-2,2,0
1526902958621668,-7,-18,-8,-9,-5,-3,0,-3
1526902958629647,-1,0,-2,2,1,-2,-3,-1
1526902958629647,-5,-16,1,-1,-2,0,2,1
1526902958644607,-5,-6,-1,-1,-1,1,-2,-1
1526902958644607,1,1,2,2,3,0,1,1
1526902958645604,-2,2,-4,-4,-3,1,-1,-3
1526902958645604,0,-2,-8,-4,-3,-2,-1,0
1526902958667545,1,6,5,2,0,-1,-3,0
1526902958667545,-4,-6,-1,0,-4,-2,0,-3
1526902958668543,3,1,-10,-7,-1,-2,3,1
1526902958668543,-4,-6,4,5,2,3,0,-3
1526902958690484,4,13,5,-3,1,-2,-2,1
1526902958690484,6,8,-7,0,-5,-2,0,1
1526902958691482,-6,-5,3,-3,2,1,7,1
1526902958691482,-10,-16,-2,2,-2,-4,-15,-4
1526902958704446,8,15,1,-4,-6,-1,-1,0
1526902958704446,0,4,-2,-5,-3,-2,0,-1
1526902958705444,-3,2,10,11,5,2,2,0
1526902958705444,-5,0,-4,-4,-1,-2,2,-5
1526902958727385,-7,-19,-4,12,4,2,2,-1
1526902958727385,2,-8,-4,-6,-6,-2,-2,2
1526902958728383,6,17,2,-8,-3,-2,-4,0
1526902958728383,-1,-7,-1,9,2,-1,1,-1
1526902958750324,-9,-11,0,-3,-2,-2,-4,-2
1526902958750324,1,8,2,9,6,1,2,3
1526902958751322,1,3,-7,-4,-2,3,-2,0
1526902958751322,7,2,1,-7,-5,-1,2,1
1526902958764287,-3,2,-1,-5,-2,-2,1,-2
1526902958764287,-8,-10,2,2,2,1,0,-2
1526902958765284,4,3,4,1,-3,-3,-4,-1
1526902958765284,1,0,0,4,-1,-1,2,-1
1526902958787225,-2,-5,1,3,2,1,0,-1
1526902958787225,-5,-8,-2,3,4,-3,-1,0
1526902958788223,-4,-2,-8,-2,3,-1,-2,0
1526902958788223,-1,6,9,-6,-5,0,1,-2
1526902958810164,1,-3,-1,4,2,0,1,0
1526902958810164,10,9,3,-1,-4,0,-2,0
1526902958811162,-11,-15,1,-4,-5,-3,-4,-5
1526902958811162,1,-3,-12,-5,2,-1,-1,0
1526902958824127,3,8,9,-7,-1,-1,-1,1
1526902958824127,-3,9,2,14,1,0,-1,-4
1526902958825124,1,-11,-5,-4,-1,1,0,2
1526902958825124,0,-2,3,1,0,0,-1,-1
1526902958848063,-1,-5,1,-3,-3,-1,-1,-1
1526902958848063,0,3,-6,3,-2,-1,-1,-2
1526902958849060,-3,0,0,4,5,0,3,-4
1526902958849060,3,0,1,-3,0,-4,-17,-1
1526902958870004,-10,-5,-6,-4,0,-2,-1,-1
1526902958870004,-2,-3,-1,-2,-2,-2,1,-1
1526902958871001,-10,-5,-1,2,-1,-2,-1,1
1526902958871001,15,16,-6,-8,-7,-1,2,-1
1526902958884964,-4,-5,-2,-5,0,-7,2,-2
1526902958884964,-2,-9,-2,5,2,3,-1,2
1526902958884964,0,1,-5,3,-2,-2,-2,-2
1526902958884964,-2,0,-1,-1,4,1,4,-2
1526902958907903,1,2,5,8,4,0,-3,-2
1526902958907903,-1,0,4,-10,-3,-2,4,-1
1526902958908900,0,1,-1,-1,-6,-5,-5,-4
1526902958908900,-6,-11,-7,0,1,0,0,0
1526902958929844,5,-2,-6,0,1,1,1,1
1526902958929844,-1,8,-1,-1,2,6,1,-1
1526902958930841,9,4,8,0,-4,-9,-1,0
1526902958930841,-2,8,3,3,-2,-2,-1,-1
1526902958944804,-8,-8,-4,1,-1,2,5,-1
1526902958944804,1,5,-4,-9,-3,-2,-15,1
1526902958945801,7,9,2,-2,-3,2,-1,-1
1526902958945801,-2,-1,-3,-2,-1,1,3,-3
1526902958967743,-1,-3,-7,-1,-1,-9,-2,1
1526902958967743,-1,-6,1,6,0,4,6,1
1526902958968740,-4,-7,-2,-4,-3,0,-1,-2
1526902958968740,-1,0,0,-2,1,-2,0,0
1526902958990681,0,-4,-12,-3,1,1,-5,-3
1526902958990681,-9,-12,-3,0,0,-2,-2,-2
1526902958990681,5,13,9,4,2,1,-1,-1
1526902958990681,4,1,3,-1,-2,0,1,4
1526902959004644,3,6,1,-6,-6,-1,-4,1
1526902959004644,-2,2,0,3,2,-2,3,-1
1526902959005642,-6,-7,-6,-2,-1,6,4,-2
1526902959005642,-6,-10,-15,-7,-1,-5,-18,-2
1526902959027582,0,4,14,-1,-5,1,-3,2
1526902959027582,-1,-2,-4,-3,-4,-5,-1,-2
1526902959028580,-4,-20,0,-1,-1,-2,-1,-2
1526902959028580,1,24,-1,2,-2,0,3,-3
1526902959050521,8,13,-3,-3,-2,1,-2,0
1526902959050521,-4,-5,0,-4,-1,0,0,-1
1526902959051519,-2,0,-10,-3,-1,-2,-2,-3
1526902959051519,2,0,16,3,-2,0,4,-1
1526902959064484,-2,-14,-8,0,2,1,1,-2
1526902959064484,-2,9,3,-5,-2,0,2,-2
1526902959065481,-4,-6,-11,-1,0,-1,-1,1
1526902959065481,0,-7,5,1,1,1,2,2
1526902959087423,-7,-1,-3,3,-2,-2,-2,-1
1526902959087423,4,8,5,-3,-3,-2,-2,0
1526902959088420,-4,1,-5,-2,-4,-2,-3,-5
1526902959088420,1,-12,-6,1,2,0,2,2
1526902959110361,2,4,5,0,-1,-1,0,3
1526902959110361,-8,-13,-8,-2,0,-2,-2,-1
1526902959111359,-4,-3,7,2,2,0,-2,-1
1526902959111359,1,6,-1,-1,-2,-2,2,1
1526902959124324,-3,3,-4,0,0,0,-2,-4
1526902959124324,6,-9,1,-1,-1,-1,-2,-1
1526902959125321,-3,0,2,4,1,0,1,0
1526902959125321,-4,-11,-1,0,-1,-1,-1,-1
1526902959147262,-5,-12,-7,-2,-3,-1,-4,-2
1526902959147262,6,5,-1,-1,0,-2,-1,-2
1526902959148260,-4,13,9,3,-1,-1,-3,-6
1526902959148260,-1,8,-7,-4,-2,0,-1,1
1526902959170201,7,8,-2,1,1,0,-1,-2
1526902959170201,-8,-16,1,-2,-3,0,1,0
1526902959171199,7,1,1,-1,0,0,0,4
1526902959171199,-1,4,2,-1,-2,-2,-1,1
1526902959184164,-10,-11,4,2,0,0,0,-2
1526902959184164,7,13,-7,-1,-2,-1,-1,0
1526902959185161,-4,-6,-5,-2,0,-1,-3,-2
1526902959185161,5,10,5,3,1,1,1,1
1526902959207103,-8,-19,-1,-5,-3,-1,0,1
1526902959207103,-1,-5,-2,-3,0,0,-1,-2
1526902959208100,0,12,4,5,0,-1,-1,-1
1526902959208100,-2,-1,-9,-4,-2,-2,-1,-1
1526902959230041,-3,1,2,-3,-2,-1,0,-3
1526902959230041,1,6,0,-1,-1,-2,-1,0
1526902959231039,-1,-7,-4,-6,-2,-1,1,-2
1526902959231039,-6,-11,0,0,-1,-2,-2,-3
1526902959245001,2,4,-1,0,-1,-1,-1,2
1526902959245001,-3,-4,-5,-4,-1,1,1,0
1526902959245001,0,6,5,3,0,1,-1,2
1526902959245001,-1,-6,-9,2,2,1,1,-3
1526902959266942,3,4,2,-6,0,-1,0,1
1526902959266942,0,-4,12,9,1,-3,-1,1
1526902959267940,-5,0,-8,-7,-4,-4,-3,-3
1526902959267940,-3,-2,0,-8,-2,0,-1,-3
1526902959289881,5,4,-5,6,0,2,5,2
1526902959289881,-7,-2,-2,-1,-3,-3,-15,-3
1526902959290879,2,3,4,3,5,1,0,1
1526902959290879,-10,-26,4,0,-3,-3,-2,-4
1526902959303843,11,31,-3,-3,-1,-2,1,0
1526902959303843,-1,-3,-7,-1,-1,-1,1,-2
1526902959311822,-8,-20,-7,-5,-3,-2,-2,-2
1526902959311822,6,12,-3,-2,-1,0,-1,2
1526902959326782,0,-7,10,-1,-1,-2,-4,-1
1526902959326782,-6,0,-14,-5,0,0,0,0
1526902959327780,3,7,9,-2,-1,0,-1,1
1526902959327780,-7,-5,-4,4,1,-3,0,0
1526902959349721,3,3,5,-4,-2,-2,-2,-1
1526902959349721,-2,4,-2,7,1,2,2,0
1526902959350718,-2,-5,-2,2,-2,0,-1,-3
1526902959350718,2,-2,0,-3,-1,0,0,-1
1526902959363684,0,9,-2,-1,0,-1,-1,2
1526902959363684,-1,0,7,-3,1,-2,1,0
1526902959371662,7,-1,-1,-5,-4,0,0,3
1526902959371662,-3,-4,-2,2,2,0,-2,-3
1526902959386623,-7,-18,-25,-4,-5,-2,-2,-3
1526902959386623,10,8,14,4,5,0,1,-1
1526902959387620,-1,5,6,4,2,-1,-2,0
1526902959387620,2,3,-1,-2,-2,-2,-1,-1
1526902959410558,-8,-11,-10,-9,-1,1,-1,-1
1526902959410558,7,12,4,10,-8,-3,0,3
1526902959411556,-1,-5,-9,-5,1,2,3,-4
1526902959411556,3,-6,9,4,0,0,-6,0
1526902959423523,-10,3,5,5,1,-2,0,-1
1526902959423523,-4,-13,-6,-4,-1,3,4,0
1526902959432499,-6,-7,-19,-5,0,-2,-3,-2
1526902959432499,20,27,14,2,-2,1,6,6
1526902959447460,-4,-10,5,-5,-1,-1,-4,-4
1526902959447460,-5,-7,1,-5,-2,-3,-4,-2
1526902959447460,0,-5,-10,0,-3,-1,1,-5
1526902959447460,-17,-8,-11,2,4,2,-1,-3
1526902959470398,13,2,12,7,2,-1,-1,2
1526902959470398,-8,-16,-2,1,0,-2,0,-5
1526902959471396,22,45,2,-7,-5,-3,-2,6
1526902959471396,-13,-9,-7,-13,-3,-2,-2,-2
1526902959484361,18,22,11,4,1,-2,-2,4
1526902959484361,-9,2,-8,-9,-6,-1,1,-2
1526902959492340,-15,-17,-3,7,0,0,-2,-2
1526902959492340,0,-1,-2,9,4,2,3,-1
1526902959507300,-3,-4,-5,-3,-2,-1,8,-3
1526902959507300,4,3,3,-2,-2,0,-5,4
1526902959508297,-3,-5,1,-10,-4,-5,-2,-4
1526902959508297,-5,-6,2,-8,-3,0,-2,-3
1526902959530238,-6,-6,-5,0,-1,1,4,-3
1526902959530238,2,0,5,-1,-1,-2,-3,3
1526902959531236,1,-4,3,6,5,3,2,1
1526902959531236,-5,-3,-3,-1,1,-1,0,-6
1526902959544201,-12,-25,1,3,-2,-1,-5,-2
1526902959544201,21,38,-4,-6,-4,-1,-2,3
1526902959552179,-2,-18,-1,-5,-2,-3,-3,-3
1526902959552179,3,22,3,8,-1,-3,-1,0
1526902959567139,-6,-5,-3,-9,-3,3,-4,-7
1526902959567139,-19,-25,-4,16,13,1,-3,-6
1526902959568137,-6,-8,2,1,1,14,18,2
1526902959568137,25,24,0,-1,-4,-20,-21,4
1526902959590078,6,6,-5,-6,-7,-4,-3,0
1526902959590078,-3,-8,-1,3,-1,1,0,-2
1526902959591076,-3,1,-1,-4,-1,1,0,-2
1526902959591076,4,3,-2,-8,-5,5,6,0
1526902959604041,-4,-1,0,1,-1,-1,-3,0
1526902959604041,2,-5,-4,-10,-6,-1,-1,0
1526902959612020,-15,-12,-6,5,6,0,-4,-3
1526902959612020,6,12,7,-2,-1,-1,-2,-1
1526902959626979,0,-9,-9,5,1,0,1,-1
1526902959626979,-6,0,-8,-9,3,3,20,-1
1526902959627977,-6,-8,4,4,-3,-10,-29,-1
1526902959627977,0,-6,0,-6,-4,0,1,-1
1526902959649918,-7,-4,-3,-14,-7,-2,1,1
1526902959649918,2,10,0,7,1,3,0,1
1526902959650915,-4,-22,-1,-1,0,-1,12,-1
1526902959650915,2,7,-6,0,2,1,2,-2
1526902959672857,3,8,6,3,-2,-2,-4,-1
1526902959672857,-20,-27,-8,-12,-5,-4,5,-1
1526902959673854,32,29,5,2,3,0,-4,6
1526902959673854,-16,-21,-4,-3,-3,3,0,-4
1526902959686819,6,12,0,5,5,-1,1,2
1526902959686819,8,3,9,1,-2,-3,-4,0
1526902959687817,-11,-9,-1,7,2,-10,2,-3
1526902959687817,-2,13,0,-1,-1,7,-13,0
1526902959709758,-9,-31,-2,2,3,2,0,-3
1526902959709758,7,1,0,9,5,-1,-10,-1
1526902959710756,13,17,-6,0,-4,8,11,4
1526902959710756,-7,-11,-5,-5,-4,-14,-1,-2
1526902959732697,-4,-16,1,-3,-23,-6,0,-1
1526902959732697,-3,-4,-7,-19,6,-3,-20,-1
1526902959733694,-2,8,1,1,0,3,6,1
1526902959733694,1,17,-5,0,2,7,10,-3
1526902959746659,3,14,-3,12,10,5,8,-3
1526902959746659,0,0,-6,-3,-6,-5,11,-1
1526902959747657,14,13,8,-6,-9,2,3,6
1526902959747657,-10,-34,-6,-6,-2,-7,-21,-7
1526902959770595,4,15,-4,-10,-11,-8,-2,1
1526902959770595,-10,-23,-2,-4,19,2,0,-1
1526902959770595,3,10,-2,-2,2,0,1,-1
1526902959770595,-4,-10,2,5,-3,1,12,-2
1526902959792537,0,1,-1,-1,4,1,-4,0
1526902959792537,14,24,4,-5,-12,-1,-2,5
1526902959793534,-13,-21,-1,-1,-2,-2,-7,-5
1526902959793534,-3,-16,-1,-3,0,-2,5,2
1526902959807497,0,15,8,10,4,6,-5,2
1526902959807497,3,11,1,6,-5,1,-3,0
1526902959807497,-12,-22,-4,1,5,-2,-1,-3
1526902959807497,-2,-19,-7,1,-1,4,8,2
1526902959830435,-5,-11,-11,-11,2,-7,-9,-2
1526902959830435,8,7,7,3,0,-7,-14,-1
1526902959831433,3,0,0,15,5,-3,1,-3
1526902959831433,4,12,-4,-12,-16,-1,0,0
1526902959852376,-3,6,3,-2,11,0,5,-1
1526902959852376,-21,-62,-3,1,-5,4,-2,-4
1526902959853375,5,46,-4,4,-5,-12,23,-2
1526902959853375,3,4,-1,0,-2,7,-4,-2
1526902959867337,3,6,-3,-5,14,11,0,1
1526902959867337,-8,-5,2,-3,3,1,0,-5
1526902959867337,-3,2,2,-6,-7,0,-3,-2
1526902959867337,5,-5,4,0,-4,-9,5,2
1526902959890275,-11,2,-3,4,-5,-7,-6,-4
1526902959890275,0,1,-8,-5,1,4,-5,-5
1526902959891273,-10,-7,1,-9,0,-2,-5,-2
1526902959891273,4,-8,3,-4,-10,-2,-2,0
1526902959912217,3,-1,1,-4,2,-2,-7,2
1526902959912217,20,11,3,17,-5,-3,16,2
1526902959913214,-11,10,1,-5,6,5,-11,-4
1526902959913214,8,-13,8,23,8,-4,0,1
1526902959927177,-13,-38,-9,2,9,20,-12,-1
1526902959927177,2,42,4,-13,-12,-14,21,-2
1526902959928174,-4,-30,1,-3,-6,-13,-23,-3
1526902959928174,11,18,-4,-10,1,1,-5,0
1526902959950115,4,14,3,-3,-10,-13,8,-1
1526902959950115,-4,-19,-3,15,11,17,-10,0
1526902959951113,-9,-20,-5,-21,-18,4,-6,-5
1526902959951113,7,59,5,-7,-1,-32,1,6
1526902959973054,4,2,-3,4,29,31,1,-2
1526902959973054,-6,-1,2,7,0,3,-17,-2
1526902959974051,0,-17,-2,-2,4,16,13,3
1526902959974051,-9,-16,-1,10,-20,-12,-4,-4
1526902959987017,9,16,1,-4,-2,-11,10,0
1526902959987017,-13,-15,-6,-9,-8,-8,-3,-1
1526902959988014,21,43,4,-3,-6,-9,-10,-1
1526902959988014,-9,-33,4,-2,0,6,0,1
1526902960009955,-5,21,-3,-7,-10,-10,-4,-5
1526902960009955,-10,-26,1,0,3,9,-1,-6
1526902960010953,15,62,-10,-8,-9,-12,-5,7
1526902960010953,-14,-44,-8,-3,6,5,3,-5
1526902960032894,5,25,12,-3,-1,13,5,2
1526902960032894,5,9,2,12,9,-1,-13,-3
1526902960033892,-9,-20,-3,9,-2,-11,6,-5
1526902960033892,10,21,3,-5,18,22,5,3
1526902960046856,-6,-12,-4,12,-5,-7,1,0
1526902960046856,6,27,-7,-24,-16,-18,0,-1
1526902960047854,2,-10,4,11,8,3,4,2
1526902960047854,-11,-9,-7,4,1,7,2,-2
1526902960069795,-1,-17,2,-8,-13,-12,-10,1
1526902960069795,-1,5,-1,0,3,2,1,1
1526902960070793,-4,-23,-1,-2,0,1,2,-1
1526902960070793,-9,-2,-12,-11,-4,0,1,-2
1526902960092734,0,-1,4,8,0,-1,1,0
1526902960092734,5,9,-3,0,1,-2,1,0
1526902960093731,-3,-9,-3,-2,-1,3,-4,0
1526902960093731,-21,-26,-10,1,-2,1,-6,-6
1526902960106697,26,46,0,1,0,-4,-1,6
1526902960106697,-14,-17,0,-1,0,-4,0,-6
1526902960107694,5,2,-3,-13,-5,-2,-2,-1
1526902960107694,5,2,2,8,2,3,-2,0
1526902960130633,-9,-14,1,1,-29,-17,-2,-1
1526902960130633,0,-7,-2,-2,15,0,-3,-1
1526902960130633,13,27,3,17,14,14,2,-1
1526902960130633,-3,-7,1,8,4,1,-1,-3
1526902960152574,-11,-15,-1,-1,-3,-4,0,-2
1526902960152574,3,5,-1,-14,-17,-5,10,1
1526902960153571,-12,-26,-2,11,6,-4,-15,-3
1526902960153571,4,18,5,-1,0,-3,-1,-3
1526902960167534,0,-4,-1,-4,4,2,-6,1
1526902960167534,2,4,-1,0,-7,-1,5,4
1526902960167534,-10,-15,2,-8,0,-1,1,-1
1526902960167534,4,0,-4,-1,1,2,-1,-2
1526902960190472,-15,-38,-7,1,2,1,-3,-5
1526902960190472,0,6,-7,-3,-2,2,-4,1
1526902960191470,3,4,2,-6,-9,-6,-4,-1
1526902960191470,-10,-16,-4,-6,4,5,-2,-6
1526902960212414,13,10,-2,-8,-1,2,2,5
1526902960212414,10,-19,2,5,-1,-1,-1,3
1526902960213411,0,4,-1,-1,4,0,4,-1
1526902960213411,-14,-14,1,20,20,-3,-2,-5
1526902960226377,-18,-49,-13,-3,2,8,1,-4
1526902960226377,19,31,1,-11,-14,-1,-5,3
1526902960234355,-4,-16,-7,-6,-2,-8,-5,-4
1526902960234355,1,21,0,-3,-6,0,3,1
1526902960249315,1,-12,2,-2,-1,-5,-1,2
1526902960249315,-3,-8,5,9,-7,-2,1,-1
1526902960250313,-10,-21,-10,-15,-1,5,1,-3
1526902960250313,6,46,-3,-11,-7,-8,-5,3
1526902960272254,4,1,-4,3,5,1,1,-3
1526902960272254,-5,3,5,0,-4,-2,0,-1
1526902960273252,-4,-8,-3,0,0,-4,-3,-2
1526902960273252,0,-16,2,-17,-14,4,3,1
1526902960286216,5,22,4,4,2,-2,-6,0
1526902960286216,-2,14,0,3,1,2,7,1
1526902960294195,-3,-18,0,4,-2,-16,-2,-1
1526902960294195,7,4,-1,-5,2,2,-2,-1
1526902960309155,-1,-8,0,5,5,14,4,-3
1526902960309155,8,37,-5,-5,0,1,4,3
1526902960310153,-5,5,6,-1,-7,-4,-2,-3
1526902960310153,-8,-12,4,1,-16,5,-14,-2
1526902960333091,8,-14,-14,-12,10,-24,-6,-5
1526902960333091,4,-8,5,10,-1,6,8,-2
1526902960333091,0,10,3,5,18,12,-9,1
1526902960333091,-4,-7,6,8,0,-8,-1,1
1526902960346056,3,24,3,-10,-13,-3,-1,-1
1526902960346056,-9,-26,-6,-4,16,6,-3,-1
1526902960355032,7,26,-2,2,-4,-3,-2,1
1526902960355032,-2,-16,-2,1,3,-1,-3,-5
1526902960369992,-1,7,5,-3,-3,0,0,4
1526902960369992,0,8,-3,-8,-46,-17,-6,-5
1526902960369992,-1,-11,-5,1,40,12,-1,2
1526902960369992,1,10,3,-2,-3,4,10,-1
1526902960392931,6,-1,-1,-7,-17,3,2,-1
1526902960392931,-7,-7,-8,6,19,-17,-5,2
1526902960393929,0,0,6,-2,-16,0,-8,-5
1526902960393929,8,15,-4,4,7,-5,-25,1
1526902960406894,-4,-7,9,8,10,14,3,0
1526902960406894,0,-8,-4,-7,-6,4,18,-1
1526902960414872,5,1,-4,-4,-6,-11,-15,-4
1526902960414872,-21,-42,-3,-2,4,3,13,0
1526902960429832,10,30,0,-1,-10,-8,-2,1
1526902960429832,-8,-10,0,-3,5,15,-13,-4
1526902960429832,-4,-3,-4,3,-7,-8,24,2
1526902960429832,-1,-9,-1,-7,0,-1,-5,-1
1526902960452771,-2,-1,-2,4,4,-3,2,-1
1526902960452771,1,1,2,1,-20,-12,-7,1
1526902960453769,5,16,2,-9,12,12,-2,-1
1526902960453769,-4,7,-6,-12,-21,3,9,-4
1526902960466734,-13,-14,-4,14,23,-8,-22,-2
1526902960466734,0,2,2,3,11,3,0,1
1526902960474712,0,0,1,-2,-27,-31,-3,-3
1526902960474712,9,7,-1,0,27,39,20,7
1526902960489672,-1,-3,2,1,-4,3,12,0
1526902960489672,-3,-8,-3,-6,-2,-3,-12,-2
1526902960490670,-3,7,-2,3,0,5,2,1
1526902960490670,9,11,1,-3,-6,-21,-11,2
1526902960512611,-6,-21,2,0,-6,3,20,-2
1526902960512611,0,30,2,4,18,9,-1,-2
1526902960513609,-3,-12,-3,-1,-11,-5,-7,-3
1526902960513609,4,3,0,2,-11,-14,8,0
1526902960526574,-3,-7,-3,-3,14,22,-7,3
1526902960526574,-10,-8,4,2,4,5,-1,-4
1526902960534552,0,-24,-6,-3,-7,9,5,1
1526902960534552,13,25,-9,-1,-12,-19,-3,3
1526902960549512,-8,-19,13,4,7,2,-1,-2
1526902960549512,11,21,-8,-7,-5,-7,-3,1
1526902960550510,2,5,6,3,0,3,7,3
1526902960550510,2,5,5,6,12,1,-5,-3
1526902960572451,1,27,-5,-1,-6,-14,-5,-3
1526902960572451,-2,-22,2,1,2,1,2,-3
1526902960573449,-8,-10,-2,-2,-3,2,3,0
1526902960573449,1,13,-5,-4,-6,-6,-3,-2
1526902960595389,-7,-20,-12,-12,-6,-2,-2,-2
1526902960595389,-6,20,9,0,5,-1,-5,-3
1526902960596387,-3,-16,-2,4,-4,-3,-1,1
1526902960596387,11,10,-2,2,4,6,-2,-2
1526902960609352,-16,-20,-2,-4,-6,-2,-5,-6
1526902960609352,-12,-31,-8,0,-1,-2,2,-1
1526902960610350,8,37,1,-4,-5,0,-1,2
1526902960610350,4,13,5,1,2,4,-7,4
1526902960632291,-4,-22,-9,-9,2,-7,17,-3
1526902960632291,2,-13,-6,-5,-2,-7,-19,-4
1526902960633288,3,6,1,2,1,5,0,-3
1526902960633288,-8,-28,5,-2,2,-2,-3,3
1526902960655230,-10,-24,-1,9,-7,1,1,1
1526902960655230,20,45,12,7,-1,-4,7,3
1526902960656227,-11,-43,-10,-5,-6,-5,-4,-10
1526902960656227,-1,24,1,-3,13,12,-1,-1
1526902960669192,4,1,2,-6,0,5,-3,2
1526902960669192,-7,-25,1,15,1,0,6,1
1526902960670190,6,-2,3,7,-2,-7,-4,-2
1526902960670190,-5,3,-15,-10,-14,-14,5,-3
1526902960693128,7,27,12,1,0,4,-10,3
1526902960693128,1,-26,-11,12,8,-2,1,-3
1526902960693128,-9,3,-1,1,-3,3,0,-2
1526902960693128,4,-5,2,2,-3,-6,-2,-1
1526902960715070,-5,-24,-7,-4,-2,-4,-1,-4
1526902960715070,8,34,4,-8,-10,-2,-5,-2
1526902960716067,-2,-5,1,1,29,10,0,-1
1526902960716067,-20,-40,3,9,-4,6,6,-3
1526902960729032,10,33,-4,-2,-9,-11,-3,-3
1526902960729032,-2,-8,1,-9,-6,-1,0,4
1526902960730030,-2,-2,-7,-8,-2,7,4,5
1526902960730030,6,7,10,3,3,3,-4,2
1526902960752968,4,21,2,1,-4,-7,-4,0
1526902960752968,-12,-25,-3,-5,-9,-9,0,-7
1526902960753966,-1,-5,-17,-7,0,8,-1,-2
1526902960753966,1,0,11,2,3,-5,-1,0
1526902960774909,-18,-17,-2,-1,-8,1,1,-3
1526902960774909,10,23,-13,-13,-3,-10,-3,-1
1526902960775907,5,5,3,-3,10,10,0,2
1526902960775907,-6,-7,5,22,9,-4,8,-9
1526902960789869,-8,3,-16,-11,-9,-11,-24,-4
1526902960789869,1,-4,7,5,5,4,1,5
1526902960789869,-6,15,7,3,-9,-7,3,-3
1526902960789869,1,-10,-5,-9,-2,2,-12,1
1526902960812808,8,7,0,0,7,6,13,1
1526902960812808,3,15,-3,-1,-3,-1,5,1
1526902960813806,0,-9,3,-5,-3,-9,-6,1
1526902960813806,-11,-6,-2,-15,-9,-4,-1,-3
1526902960834749,4,14,7,33,9,7,-2,1
1526902960834749,-13,-21,-12,-7,6,12,-1,-2
1526902960835747,10,18,11,3,-9,-6,3,-2
1526902960835747,-5,-15,-10,-2,-2,-6,-3,1
1526902960849710,8,2,-3,-12,-6,-4,1,2
1526902960849710,-5,-25,3,-1,4,7,2,-1
1526902960850707,5,23,-3,11,1,3,0,1
1526902960850707,3,0,-6,-7,-2,-3,-2,-3
1526902960872648,1,-9,6,-7,-5,0,5,2
1526902960872648,-8,6,-9,4,5,-3,-15,1
1526902960873646,4,14,2,-5,-21,-10,-1,-1
1526902960873646,4,8,1,2,21,4,-1,-1
1526902960895587,2,-8,-4,-1,-11,-1,4,-1
1526902960895587,-6,-6,-1,-7,-1,-1,0,-5
1526902960895587,-4,-10,-7,-9,-2,1,-2,-2
1526902960895587,4,8,-1,9,-8,-1,0,1
1526902960909549,3,8,-1,-3,7,-3,6,3
1526902960909549,-1,-8,14,12,7,3,-1,1
1526902960910547,-1,4,-6,2,1,-7,3,-3
1526902960910547,-2,9,-5,-7,-4,-1,-1,-5
1526902960932488,-2,-17,-3,-10,-7,0,-6,0
1526902960932488,-8,-23,1,-1,-4,3,0,1
1526902960933486,14,45,-5,3,5,1,3,1
1526902960933486,0,1,7,-3,-6,0,-1,0
1526902960955427,2,10,-5,-2,1,-6,-2,-1
1526902960955427,7,14,-2,1,0,-1,3,3
1526902960956424,-4,-30,9,-3,-4,5,-1,-1
1526902960956424,-4,7,-7,2,4,-2,0,-1
1526902960969389,6,15,3,2,0,0,1,3
1526902960969389,-4,-3,1,-3,-2,0,10,-3
1526902960970387,-3,-17,-3,-6,-7,-3,-14,-1
1526902960970387,-13,-6,-2,-5,-3,-4,1,0
1526902960992328,-1,1,-5,-4,5,1,-5,-3
1526902960992328,-2,-3,1,5,6,3,4,-1
1526902960993326,10,16,2,-4,-3,-2,-1,-1
1526902960993326,1,-17,1,-3,-3,2,2,1
1526902961015267,-11,-4,-5,-12,-8,-4,-3,-3
1526902961015267,-4,-13,-6,2,-2,-1,-4,0
1526902961016264,-7,-6,-8,7,-1,-8,5,-1
1526902961016264,1,6,7,-3,9,8,0,3
1526902961029229,0,2,0,6,3,10,4,1
1526902961029229,14,17,7,-3,-1,-12,-6,1
1526902961030227,-16,-20,-6,-2,6,10,-3,-5
1526902961030227,-2,-5,-4,-3,-11,-10,1,-6
1526902961053166,8,-2,7,4,3,-1,1,2
1526902961053166,5,6,-8,-6,-10,-8,-6,-2
1526902961053166,-4,-3,1,1,4,-1,-1,1
1526902961053166,1,-2,4,0,2,2,0,0
1526902961075107,-5,-8,-5,0,-6,-6,-7,-4
1526902961075107,-8,-29,-3,-4,-2,3,1,-3
1526902961076104,6,22,0,-4,-2,-1,0,0
1526902961076104,0,-4,-7,4,-7,1,-1,-3
1526902961090066,7,19,1,2,5,-6,10,-1
1526902961090066,-2,1,2,-1,-3,8,-9,4
1526902961090066,3,-4,1,-9,7,-2,-5,-1
1526902961090066,-12,-4,-1,4,-1,-2,3,-1
1526902961113005,13,9,4,12,0,-1,2,3
1526902961113005,-4,12,-7,-8,-7,-4,1,-3
1526902961114003,-1,-1,4,2,-3,0,0,-1
1526902961114003,-4,-11,-3,-8,-5,-5,-6,-3
1526902961134947,-5,-1,-2,-3,1,0,-3,-4
1526902961134947,15,24,6,1,1,7,5,1
1526902961135944,-2,-16,0,0,-6,-2,-4,-3
1526902961135944,5,8,-9,-2,3,2,3,3
1526902961149907,-7,-10,1,5,5,0,-3,-4
1526902961149907,0,0,1,1,-10,-10,1,2
1526902961149907,-7,-18,-7,-3,8,5,4,-3
1526902961149907,-1,2,-1,-1,-7,4,-3,-1
1526902961172845,5,5,-5,-6,-2,-2,-2,1
1526902961172845,-4,-15,-3,0,-2,-2,-1,-1
1526902961173843,-2,9,-1,0,-2,-3,1,0
1526902961173843,6,8,4,0,0,-5,1,0
1526902961194786,-7,-9,3,-2,-4,4,-5,1
1526902961194786,-4,-3,-11,-5,3,1,13,-2
1526902961195784,-13,-24,1,2,-1,-1,-16,-3
1526902961195784,17,19,-5,-1,0,-2,-4,1
1526902961208749,0,23,0,-6,-3,-5,-3,1
1526902961208749,-2,3,-5,1,7,-1,-2,-3
1526902961216728,0,-7,-2,0,-2,2,2,0
1526902961216728,-8,-11,-9,-5,-9,-4,-2,-4
1526902961232685,3,11,3,2,-1,-2,-1,3
1526902961232685,-18,-34,-4,-3,-4,-4,-3,-6
1526902961233683,20,29,-2,-2,-3,-8,2,2
1526902961233683,-10,-16,0,0,-4,-2,-7,0
1526902961255624,18,16,-5,-2,3,5,13,5
1526902961255624,-9,-4,2,2,2,3,-1,-3
1526902961255624,6,11,0,1,0,1,2,3
1526902961255624,-2,-2,0,2,-2,-7,-1,0
1526902961268589,-13,-28,3,0,-1,0,-3,-4
1526902961268589,13,12,1,2,2,3,-5,0
1526902961277565,-11,-18,-5,-8,-5,-4,-3,-3
1526902961277565,11,38,6,3,2,2,-7,2
1526902961292525,-11,-15,0,4,1,-4,-3,-5
1526902961292525,1,4,0,-1,2,1,3,-2
1526902961293523,-9,-14,-4,4,-2,0,1,-2
1526902961293523,-2,-9,-2,-2,1,1,2,-1
1526902961315464,1,1,1,-1,-1,2,1,0
1526902961315464,1,6,0,-1,0,-1,0,-3
1526902961316462,4,-5,0,-2,-1,1,1,5
1526902961316462,-11,-17,-5,2,2,0,3,1
1526902961328429,-2,10,2,3,-8,-6,-5,-5
1526902961328429,14,23,-10,-6,7,3,-1,5
1526902961337405,-7,-13,6,-1,8,9,-1,-4
1526902961337405,12,3,2,0,-4,-2,1,0
1526902961352365,-2,1,-11,-4,0,0,0,1
1526902961352365,-10,-28,7,-1,-9,-9,-3,-2
1526902961352365,-8,6,-3,2,-1,-1,-2,1
1526902961352365,5,7,2,4,9,9,5,1
1526902961375304,-10,-41,-4,-4,-7,-7,-1,-2
1526902961375304,3,43,0,-4,-6,-7,0,3
1526902961376301,0,-21,-3,0,4,9,0,-1
1526902961376301,5,12,-7,9,2,3,0,-1
1526902961389266,-12,-22,8,0,-2,-1,-5,-5
1526902961389266,0,3,0,7,5,1,-2,-1
1526902961397245,0,1,3,0,-2,-2,-7,-1
1526902961397245,-4,-4,-7,-10,-9,-7,8,3
1526902961412206,-3,-1,2,2,7,4,-4,-5
1526902961412206,-2,-8,0,0,1,0,0,-2
1526902961413203,-11,-5,0,0,-3,-4,0,0
1526902961413203,9,-3,-4,-8,0,6,-3,2
1526902961435144,-5,-5,-4,-2,-2,-9,5,-2
1526902961435144,-4,-2,4,2,-1,3,-4,-1
1526902961436141,-4,2,-1,0,-2,-6,-2,-2
1526902961436141,6,11,0,-1,0,-1,-3,-1
1526902961449107,-1,1,-4,-6,-1,3,3,-1
1526902961449107,-6,0,-2,-5,-7,-2,1,-1
1526902961457085,-14,-33,-11,-17,-5,0,8,-2
1526902961457085,19,41,6,26,13,-2,-5,-1
1526902961472045,-5,-4,0,-4,1,5,-5,-6
1526902961472045,2,2,-5,-4,-2,-7,0,1
1526902961473043,6,2,1,7,-3,-2,3,1
1526902961473043,-11,-19,1,-12,-7,-2,0,1
1526902961494984,11,25,-5,0,0,0,-3,3
1526902961494984,-9,-20,2,6,3,3,-4,-4
1526902961495981,14,25,-1,-4,-2,-2,-1,3
1526902961495981,-9,-13,3,-5,-4,-5,1,-4
1526902961508946,4,-5,-2,6,1,0,-4,0
1526902961508946,-1,-9,-9,-10,-8,-1,-2,-1
1526902961516925,3,18,5,8,4,0,0,2
1526902961516925,-16,-26,-3,2,5,1,-3,-4
1526902961531885,7,4,-3,-6,-4,0,1,-2
1526902961531885,-4,9,2,3,0,0,-1,-4
1526902961532883,5,-3,0,-7,-5,-3,-3,-4
1526902961532883,1,-12,-5,-13,-4,-1,0,2
1526902961554824,-14,-16,0,14,8,1,2,-1
1526902961554824,11,18,-1,-1,2,-1,0,4
1526902961555821,6,17,2,-1,-5,-4,-2,-1
1526902961555821,-15,-21,-5,-8,-5,-4,-2,-6
1526902961577762,2,-5,6,4,4,1,6,5
1526902961577762,1,-3,-9,0,0,3,-19,-7
1526902961578760,-2,-11,-2,0,-3,-4,6,0
1526902961578760,7,15,-2,-8,-4,1,4,1
1526902961591725,2,14,-1,-14,-8,-12,-6,-2
1526902961591725,-4,-18,4,10,8,14,5,0
1526902961592723,-9,15,-2,-3,-1,0,-4,-9
1526902961592723,-2,-16,3,1,-2,-3,-3,1
1526902961615661,-3,-1,-2,-4,-2,1,2,0
1526902961615661,9,27,1,-12,-6,-3,2,1
1526902961615661,-3,-1,-6,14,15,2,1,2
1526902961615661,0,-5,0,4,-1,0,-10,-6
1526902961645581,-10,0,1,-7,-3,-2,2,0
1526902961645581,4,0,-2,-1,-7,-9,1,0
1526902961645581,0,2,4,2,-2,0,-2,1
1526902961645581,-11,-7,2,1,2,0,-1,-2
1526902961651565,13,9,-15,-8,-3,0,-3,1
1526902961651565,2,4,8,-3,-2,1,2,1
1526902961652563,-6,-14,-3,5,0,-2,0,-1
1526902961652563,-1,6,3,4,1,1,0,2
1526902961675501,0,-19,-5,1,-3,-1,-4,-5
1526902961675501,-4,-11,-1,-3,-1,1,4,1
1526902961676499,-3,6,-2,2,-1,-1,-1,-3
1526902961676499,-8,-3,0,6,0,-3,-1,4
1526902961697442,0,-2,-2,-1,-1,2,3,1
1526902961697442,8,13,4,0,1,-4,0,3
1526902961698440,-12,-27,0,1,-5,-1,-3,-5
1526902961698440,-1,7,-2,-6,-3,1,8,-1
1526902961712402,17,19,-4,2,1,-2,-21,0
1526902961712402,-5,-12,-1,6,-1,5,0,-3
1526902961712402,-1,-14,1,-7,-7,-3,1,-2
1526902961712402,4,0,-4,-3,4,1,3,0
1526902961735341,-3,4,3,5,-4,-6,0,-3
1526902961735341,-8,-17,-2,-10,-3,2,3,-2
1526902961736338,8,23,1,-2,0,4,-5,-1
1526902961736338,-3,-12,-3,10,7,-5,-2,-1
1526902961757282,-2,0,-6,-5,0,8,1,0
1526902961757282,-7,-28,6,6,7,4,-2,-1
1526902961758280,2,21,2,2,-2,-3,5,3
1526902961758280,4,7,-4,-14,-10,-5,-4,-2
1526902961772242,-4,9,8,14,7,1,4,2
1526902961772242,-1,-5,-12,-4,-3,-5,1,-2
1526902961773240,-2,-8,1,-4,0,0,0,1
1526902961773240,-1,-4,0,-9,-5,-2,-2,-3
1526902961795181,5,11,4,-8,-6,-5,-5,3
1526902961795181,-13,-7,-4,4,-1,-1,1,-5
1526902961797176,0,-5,-5,-2,3,1,1,3
1526902961797176,14,20,4,-1,-2,0,-1,3
1526902961818119,-6,-19,-2,1,0,0,1,-5
1526902961818119,-4,5,-8,-5,-1,-5,-4,-2
1526902961818119,4,11,4,-11,-8,-3,-2,-2
1526902961818119,-5,-8,-4,0,1,1,0,-2
1526902961832082,-3,-2,1,0,-3,-2,2,0
1526902961832082,2,2,3,-2,0,0,4,-2
1526902961833080,4,4,-5,-3,-3,-1,-5,9
1526902961833080,-11,-23,1,0,-1,-1,-1,-4
1526902961855021,7,19,3,0,-3,-1,0,4
1526902961855021,-2,-1,-6,2,4,5,6,0
1526902961856018,-3,-17,-2,5,4,-5,-11,-4
1526902961856018,-6,4,6,5,-18,-9,-6,-4
1526902961877960,6,7,-2,-4,20,5,8,4
1526902961877960,3,-2,5,-5,-12,-5,-1,-1
1526902961878957,-4,-15,-4,9,5,6,3,-3
1526902961878957,0,16,-3,-8,-4,-2,-3,1
1526902961891922,-4,-8,9,22,2,-2,-4,-2
1526902961891922,2,7,1,-4,3,-2,-3,0
1526902961892920,4,2,-3,-4,-5,0,3,-3
1526902961892920,-5,-8,0,4,5,2,0,-5
1526902961914861,-14,-6,-1,-5,-5,-2,1,1
1526902961914861,27,41,-5,-2,4,-2,-6,1
1526902961915859,-7,-6,-2,-4,0,0,2,-4
1526902961915859,2,-6,0,3,3,1,-2,-2
1526902961937800,-8,-9,-8,-11,-5,1,0,-2
1526902961937800,-13,-22,-3,1,-1,-3,-3,-2
1526902961938797,-1,7,4,-4,-8,-1,8,-1
1526902961938797,20,30,-1,10,11,3,-24,-1
1526902961951762,-6,-9,-3,-4,-6,-6,13,-1
1526902961951762,-6,-13,-1,-4,-3,1,-16,-1
1526902961952760,3,-6,-4,0,-3,-11,1,3
1526902961952760,-5,-3,-1,-6,2,9,4,2
1526902961975698,1,-2,-1,8,0,1,-1,-1
1526902961975698,-2,4,-2,1,0,-3,0,-1
1526902961975698,-6,-12,-1,-1,1,1,-1,-2
1526902961975698,0,1,0,1,-1,0,1,0
1526902961997640,9,5,0,-7,-3,0,-4,4
1526902961997640,0,6,-5,-4,-2,-5,6,1
1526902961999634,-4,0,0,3,-1,-1,-7,-4
1526902961999634,6,-1,-12,-6,-1,-4,7,3
1526902962011602,-10,-17,4,-4,0,5,-3,-6
1526902962011602,7,12,9,7,3,-1,1,0
1526902962012600,2,6,-4,-4,-4,2,-2,3
1526902962012600,-4,-4,0,3,-2,-2,1,0
1526902962035538,1,-5,-3,-10,-4,-5,-4,0
1526902962035538,-5,-1,-1,5,1,6,3,-1
1526902962036536,5,13,-5,-4,4,-3,7,-2
1526902962036536,-5,-14,10,1,-2,0,-13,-1
1526902962057479,-2,28,-4,-4,-3,-2,-4,-4
1526902962057479,6,7,2,-2,-1,6,0,-1
1526902962059474,5,0,-2,-1,-3,-13,1,1
1526902962059474,-8,4,-1,-3,0,-1,6,0
1526902962071442,-4,-16,-5,-3,-1,-3,-3,-4
1526902962071442,-12,-21,-1,0,0,-2,-2,-4
1526902962080418,12,33,-1,0,1,4,-3,1
1526902962080418,-4,-6,4,-1,-1,-1,-8,-4
1526902962095378,1,-5,0,-6,-5,-6,3,-3
1526902962095378,-4,-11,-18,1,-1,4,6,0
1526902962097373,0,-5,13,4,5,6,-3,0
1526902962097373,0,-6,0,0,2,-5,2,3
1526902962117320,4,19,-5,0,0,6,-6,2
1526902962117320,-4,-11,6,-1,-2,-9,-3,-2
1526902962119315,-11,-26,-5,-7,-5,-2,-5,-9
1526902962119315,5,-3,-13,-4,-2,5,3,-2
1526902962131282,9,16,9,6,1,-1,2,6
1526902962131282,7,15,0,-1,-3,-3,-1,0
