timestamp,emg1,emg2,emg3,emg4,emg5,emg6,emg7,emg8
1526902879178127,-28,-36,-9,-1,0,0,0,-39
1526902879178127,22,2,0,0,-1,-1,-2,17
1526902879182117,-3,-23,-7,-2,0,0,-1,2
1526902879182117,62,-10,3,2,1,-1,-2,10
1526902879185109,34,10,-2,-1,-1,-1,4,25
1526902879185109,-12,-9,-1,-2,-1,0,-1,-10
1526902879186108,24,15,0,-3,-1,-3,-5,-1
1526902879186108,-14,-2,2,-2,0,-2,-1,-6
1526902879188103,2,-7,-6,-2,1,1,2,2
1526902879188103,-19,-21,-2,0,1,1,2,6
1526902879200069,-55,-27,1,2,-1,-4,-4,1
1526902879200069,-10,60,5,-1,-2,-3,-3,-25
1526902879214031,46,-10,-4,1,1,2,-1,-2
1526902879214031,-35,-8,-3,-3,-2,-1,-4,-16
1526902879218021,20,-11,6,0,-1,1,8,33
1526902879218021,-28,-20,-9,-4,-1,0,-2,-16
1526902879227994,-13,36,1,2,0,0,5,19
1526902879227994,-55,-20,-2,-3,-1,-3,-7,-28
1526902879248938,17,10,-4,1,-1,-1,-4,1
1526902879248938,0,-19,-2,0,-1,-2,-2,3
1526902879249936,18,-36,5,-1,-1,0,2,2
1526902879249936,30,39,9,3,-2,1,4,-7
1526902879296810,-10,-7,-1,-4,0,0,3,6
1526902879296810,-5,-18,-11,-6,-4,-2,-1,0
1526902879297807,-50,-34,5,4,3,-1,-3,-10
1526902879297807,19,9,9,1,-1,0,2,1
1526902879300800,-11,1,-5,2,0,-1,-7,-32
1526902879300800,8,3,-1,-3,-1,1,0,-11
1526902879301797,-45,-33,-12,-3,1,0,1,36
1526902879301797,11,46,13,1,-2,-2,3,-2
1526902879307781,-42,-38,-4,0,0,-3,-3,-14
1526902879307781,-20,-1,-2,-4,-3,1,2,14
1526902879316757,47,24,4,1,0,1,1,-7
1526902879316757,-26,-14,-9,0,0,0,1,16
1526902879322741,11,14,-3,-5,-5,0,3,8
1526902879322741,-15,-17,-4,0,-1,-2,-3,-16
1526902879337701,57,14,5,-2,0,0,3,16
1526902879337701,12,-7,-10,-7,-2,-4,-6,1
1526902879345679,18,6,4,0,0,-2,0,7
1526902879345679,-1,-6,-4,1,1,-1,-2,-11
1526902879368618,13,2,-1,-3,-1,3,4,14
1526902879368618,-15,-12,-5,-2,1,1,-3,3
1526902879369616,2,4,1,3,1,0,-5,-46
1526902879369616,-81,-16,-1,1,-1,-2,-8,-9
1526902879383578,22,28,0,-2,-4,-6,-3,9
1526902879383578,-15,-8,2,-2,-1,-1,-3,-7
1526902879384576,-3,-5,-6,-3,1,2,4,0
1526902879384576,35,3,4,4,1,-2,0,14
1526902879406517,-23,-6,-4,-4,-1,-3,-1,-29
1526902879406517,-76,-37,-4,0,-1,-2,-6,-16
1526902879406517,42,80,6,0,-3,-2,1,18
1526902879406517,5,-12,-6,-5,-2,3,2,-16
1526902879428458,17,16,-1,-1,-2,-4,-3,0
1526902879428458,-19,-15,-3,0,1,2,2,2
1526902879429456,-16,-21,-2,0,-1,0,-1,2
1526902879429456,-6,8,-7,-5,-2,-3,5,22
1526902879443418,24,6,5,-2,-2,-2,-4,3
1526902879443418,24,-1,-6,2,-1,-2,-2,15
1526902879444415,3,-9,-2,-1,-1,-1,-2,-16
1526902879444415,12,2,5,-1,-1,0,-1,4
1526902879466357,-18,-10,-13,-3,1,1,5,13
1526902879466357,21,8,6,-1,-2,-3,-2,-19
1526902879467354,-41,-18,1,-1,0,1,-1,-14
1526902879467354,79,19,3,3,-1,0,2,11
1526902879488298,-77,-22,-4,0,-1,-3,-9,-29
1526902879488298,17,7,-6,-5,-1,0,-1,7
1526902879489295,24,14,1,-1,-3,-3,-1,18
1526902879489295,-39,-9,-3,0,0,0,2,-18
1526902879503258,19,-11,3,2,0,0,-3,-14
1526902879503258,5,18,0,1,0,-1,2,-6
1526902879504256,-37,-22,-3,-1,1,0,0,-17
1526902879504256,55,32,-5,-4,-1,-3,3,54
1526902879526197,-8,-14,-2,0,0,1,-4,-14
1526902879526197,-13,7,5,1,0,-1,-5,-16
1526902879527194,5,4,-6,-1,-1,1,-1,7
1526902879527194,-11,-3,7,4,1,0,0,-11
1526902879549135,-4,14,1,-2,-3,0,1,-8
1526902879549135,-4,-37,-9,-6,-1,0,3,1
1526902879549135,15,7,-1,-3,-1,-1,-4,-15
1526902879549135,-31,-19,11,7,1,2,-3,-21
1526902879564095,57,-2,-6,-3,-3,-1,2,41
1526902879564095,72,14,4,4,3,2,3,10
1526902879564095,-11,-15,-1,0,2,2,1,-9
1526902879564095,-72,-5,-5,-3,-2,-2,-7,-8
1526902879586037,11,35,16,3,-1,0,3,7
1526902879586037,-1,-3,-12,-7,-1,-1,3,0
1526902879587034,-29,-41,-3,0,2,0,2,6
1526902879587034,50,60,20,4,0,-1,-7,-32
1526902879608975,-7,-12,2,2,-1,-3,-6,-7
1526902879608975,-1,14,-2,-1,-2,1,1,11
1526902879609973,46,13,4,1,-1,1,5,30
1526902879609973,61,-18,-12,-5,-2,-1,-3,-4
1526902879623935,-28,-14,2,-4,-1,-1,1,10
1526902879623935,33,7,-3,-2,0,-3,-1,0
1526902879624933,43,6,16,1,-2,-2,-1,0
1526902879624933,-13,-18,-16,-3,0,-1,2,0
1526902879645876,-41,-7,0,-3,-3,-3,0,-8
1526902879645876,20,33,6,2,0,1,0,9
1526902879646875,-18,-3,-2,1,-1,-1,0,-4
1526902879646875,-24,-12,2,-3,-3,-1,2,4
1526902879668815,-26,15,-2,3,2,2,-4,-19
1526902879668815,37,-1,5,1,-1,0,2,-1
1526902879669813,-38,1,-7,-3,-5,-7,-9,-13
1526902879669813,-33,-3,-5,-3,-3,-1,-2,-7
1526902879683775,71,61,-2,5,7,5,6,16
1526902879683775,-50,-25,-8,-8,-5,-6,-1,12
1526902879684773,21,8,-9,-3,-2,-1,-1,-9
1526902879684773,28,-18,4,1,-1,4,3,7
1526902879705717,-41,-63,-30,-2,1,-1,-2,3
1526902879705717,81,85,70,19,1,0,1,5
1526902879706714,-17,-29,0,2,2,-1,-3,-20
1526902879706714,-10,-18,2,-4,-2,-2,0,7
1526902879728655,24,10,1,-4,-2,-1,0,-11
1526902879728655,7,-1,-12,-6,0,0,0,21
1526902879729653,26,61,21,3,-6,-10,-13,7
1526902879729653,7,-13,-3,7,4,2,-1,-14
1526902879742618,-53,-28,14,6,3,1,0,1
1526902879742618,-31,-32,-47,-17,-9,-10,-9,-23
1526902879751594,-35,-9,10,8,6,3,0,-2
1526902879751594,-52,21,-20,-10,-5,-6,-8,-11
1526902879766554,-48,-27,-6,0,0,-2,-11,14
1526902879766554,-105,-39,-26,-1,-2,-9,-21,-80
1526902879766554,54,15,-17,-13,-7,-2,1,49
1526902879766554,98,28,21,3,5,7,11,17
1526902879788495,-83,-51,-21,-15,-17,-20,-21,-24
1526902879788495,82,19,0,-3,-2,2,4,20
1526902879789493,-10,32,-6,-7,-8,-12,-20,-40
1526902879789493,67,-39,-1,-3,-4,-4,4,38
1526902879803455,3,13,-18,-1,2,6,8,-17
1526902879803455,-2,62,35,9,1,1,6,39
1526902879811434,-48,-45,-37,-18,-8,-10,-10,-55
1526902879811434,19,52,19,14,11,10,5,-24
1526902879826394,-26,20,25,5,2,-3,0,38
1526902879826394,-1,31,16,2,0,-2,-4,10
1526902879827392,21,-31,-18,0,3,10,13,-5
1526902879827392,-33,-13,4,2,0,-3,-7,-24
1526902879848335,-11,4,-5,-2,0,5,10,3
1526902879848335,-24,-11,12,7,4,5,1,-20
1526902879849333,35,-21,-6,-3,-1,1,6,42
1526902879849333,-56,12,6,2,1,1,0,-39
1526902879863295,84,58,5,0,-3,-2,-1,55
1526902879863295,-5,-99,-40,-9,-4,-2,-5,-33
1526902879870277,29,7,40,10,3,9,15,50
1526902879870277,-56,4,-3,0,-1,-1,1,16
1526902879886234,127,14,-9,-8,-7,-6,-6,-1
1526902879886234,-63,-17,-22,-6,-2,-1,-6,-56
1526902879887231,-94,-67,5,12,9,10,6,16
1526902879887231,77,92,16,2,-1,-4,-6,-5
1526902879909172,-2,-66,6,0,-1,-2,-4,3
1526902879909172,49,-17,-24,1,3,3,12,26
1526902879909172,48,70,5,3,1,0,1,7
1526902879909172,-23,-69,-12,-4,-3,-4,-2,5
1526902879923135,7,7,-15,-4,-2,-3,-3,-25
1526902879923135,-43,-45,-10,-1,1,1,4,12
1526902879930117,-7,3,19,5,0,-2,-4,-41
1526902879930117,-27,4,-15,-9,-5,-6,-4,18
1526902879946074,87,47,18,6,3,4,6,29
1526902879946074,-68,-39,-15,-8,-3,-4,-3,-13
1526902879947071,82,4,-16,-2,-3,-6,-13,-30
1526902879947071,21,9,16,0,-4,-3,-1,20
1526902879969012,-97,-70,-16,-8,-5,-3,-10,-49
1526902879969012,-45,49,18,5,1,2,1,5
1526902879970010,-25,-56,-31,-11,-3,-2,0,-14
1526902879970010,29,23,6,-2,-3,-7,-12,-40
1526902879982975,41,47,19,4,5,3,9,0
1526902879982975,97,-68,5,7,4,6,10,42
1526902879990954,-8,5,-17,-14,-10,-10,-5,-23
1526902879990954,76,-29,-19,-2,-2,-1,3,30
1526902880005914,-34,-20,4,-1,2,2,2,-15
1526902880005914,42,-11,-5,-4,-4,-5,-11,9
1526902880006911,-9,6,13,5,1,3,6,4
1526902880006911,14,-5,11,4,0,0,-2,4
1526902880028853,80,1,-13,-2,0,1,2,-1
1526902880028853,-80,15,-21,-14,-9,-8,-11,-51
1526902880029851,36,-52,-17,-1,3,4,5,26
1526902880029851,-15,54,7,-1,-2,-6,-11,-4
1526902880042816,9,7,18,10,6,4,-5,-42
1526902880042816,-15,-37,4,3,0,0,5,15
1526902880050794,60,89,4,-3,-3,-1,5,58
1526902880050794,-12,-34,-7,-1,2,1,-2,9
1526902880065754,-28,16,4,2,1,1,9,13
1526902880065754,49,27,0,0,1,3,3,9
1526902880066751,43,16,9,3,1,1,3,2
1526902880066751,74,-61,-14,-1,0,2,9,28
1526902880088692,-53,-70,9,2,2,1,-2,-15
1526902880088692,33,57,11,0,-3,-4,-6,-40
1526902880089690,-36,-40,12,2,0,2,0,1
1526902880089690,15,-12,-24,-6,1,2,-3,-34
1526902880102655,-27,48,28,4,-1,-5,1,23
1526902880102655,99,29,27,7,3,4,18,39
1526902880110634,27,34,15,6,1,-1,-9,0
1526902880110634,-115,-20,-25,-13,-6,-1,2,-57
1526902880126591,16,-19,-14,-2,-1,-4,-1,2
1526902880126591,65,18,15,7,4,0,-5,26
1526902880126591,-41,54,5,0,-3,-2,0,-5
1526902880126591,-5,-44,-8,-5,-2,-1,4,-11
1526902880148533,31,57,-6,-4,-4,-2,-10,5
1526902880148533,-22,-3,5,-1,0,2,8,-3
1526902880149531,-16,-66,-5,4,2,2,-4,-28
1526902880149531,-45,60,10,2,-1,-4,-6,2
1526902880171478,44,31,-11,-8,-8,-9,0,14
1526902880171478,-23,3,-4,-4,-1,-1,0,17
1526902880172476,13,-4,-23,-9,-5,-2,-3,-3
1526902880172476,20,12,10,6,1,0,4,24
1526902880186431,-24,-24,-5,1,3,4,-1,-24
1526902880186431,-80,-19,-1,0,-2,-1,-3,13
1526902880187465,34,-1,-7,-4,-2,-4,7,37
1526902880187465,-10,-59,-9,-1,0,0,-3,5
1526902880208373,-5,-28,-16,-7,-3,-2,-7,8
1526902880208373,1,-42,0,0,1,2,-4,-18
1526902880209370,13,43,11,2,2,1,4,-20
1526902880209370,-36,29,11,3,-3,-7,-9,0
1526902880231311,-27,-37,-17,-8,0,2,8,-10
1526902880231311,-10,-59,-7,2,3,1,-6,-28
1526902880232308,-2,45,12,-3,-5,-5,-3,-1
1526902880232308,14,-7,-1,1,2,3,4,7
1526902880246271,-23,32,10,2,-3,-4,-11,-40
1526902880246271,-18,26,-14,-6,-3,-4,-2,-3
1526902880247268,9,-6,9,2,4,3,-4,7
1526902880247268,47,-8,-7,0,-1,0,-3,9
1526902880269211,-4,-37,20,8,3,5,9,11
1526902880269211,-27,2,-3,-7,-7,-7,-5,-8
1526902880269211,-91,-29,-21,-6,-2,-2,-9,-2
1526902880269211,4,49,11,3,2,0,2,-9
1526902880291151,17,-10,-1,0,-2,-3,2,16
1526902880291151,-28,56,12,3,2,0,-4,-5
1526902880292148,20,-57,-13,-2,2,3,6,-12
1526902880292148,76,14,29,4,1,3,10,16
1526902880314089,9,55,9,0,-1,-1,1,6
1526902880314089,-42,-68,-8,1,0,-1,-14,-41
1526902880315087,-33,27,3,-2,-3,-3,-1,-15
1526902880315087,25,-3,-8,-1,3,5,5,20
1526902880328052,100,31,1,1,0,-2,-1,-18
1526902880328052,-64,-29,-8,-6,-2,0,6,-7
1526902880336031,70,11,9,6,3,4,8,25
1526902880336031,3,-16,-1,-5,-4,-4,-4,6
1526902880350991,-90,-68,-8,-4,-1,3,0,-6
1526902880350991,9,44,12,5,1,1,1,-14
1526902880351988,-2,21,-6,-2,0,0,0,-5
1526902880351988,-54,-44,-12,-7,-1,-2,-1,-11
1526902880374927,-35,-10,-14,-3,-2,-3,-5,15
1526902880374927,15,-4,-7,-4,-1,1,2,-19
1526902880374927,43,-53,5,13,10,9,16,29
1526902880374927,78,82,23,-1,-7,-9,-9,23
1526902880387892,-49,-3,-12,-8,-5,-6,-9,-18
1526902880387892,-6,-1,-5,-8,-3,-2,-4,27
1526902880395871,-122,-45,-15,-7,-5,-3,-4,-24
1526902880395871,46,4,-10,0,1,1,3,6
1526902880410831,-8,-12,8,2,2,0,-1,-7
1526902880410831,122,71,14,5,3,1,7,14
1526902880411829,-29,-60,-11,-13,-17,-8,-10,-31
1526902880411829,38,25,10,5,5,3,4,9
1526902880434767,8,-56,-37,-15,-6,0,3,36
1526902880434767,107,49,23,12,7,4,9,10
1526902880434767,-83,-21,-11,-8,-8,-6,-10,-26
1526902880434767,36,5,-1,4,1,3,3,18
1526902880447732,74,66,8,3,2,0,-2,-19
1526902880447732,-32,11,-2,-5,-7,-6,-10,-4
1526902880456708,39,20,2,-1,3,0,6,26
1526902880456708,-128,-61,-12,-8,-6,-11,-18,-15
1526902880471668,24,-21,0,5,4,3,6,8
1526902880471668,55,5,2,4,0,-1,-6,-2
1526902880471668,-51,5,-2,-9,-7,-11,-10,-37
1526902880471668,24,-10,-1,3,3,3,9,45
1526902880494607,24,14,6,-2,-2,3,6,-14
1526902880494607,-106,-37,2,3,2,3,2,-21
1526902880495604,41,31,3,2,4,-1,0,23
1526902880495604,-35,-41,8,9,3,5,3,-17
1526902880507572,5,18,16,5,6,9,12,6
1526902880507572,114,35,12,0,-4,-1,3,6
1526902880516548,36,-9,2,2,3,2,-2,-17
1526902880516548,4,13,-17,-7,-2,-4,-1,6
1526902880531508,19,-60,-3,-1,1,-3,-3,1
1526902880531508,-46,-17,-12,0,7,6,7,-12
1526902880531508,-63,-29,-2,1,-3,-1,-5,-21
1526902880531508,127,72,-5,-7,-7,-8,-10,-12
1526902880554447,-43,-24,5,1,-2,-1,0,10
1526902880554447,-70,-41,-28,-7,-4,-4,-7,-6
1526902880555444,114,36,9,4,3,3,3,18
1526902880555444,-19,-53,5,3,4,7,9,5
1526902880568409,-2,42,-11,-6,-5,-8,-13,16
1526902880568409,63,45,-2,-2,-3,-1,6,37
1526902880576388,-4,8,-3,2,3,5,5,28
1526902880576388,-128,-55,-10,-5,-3,-3,-7,-45
1526902880591348,127,110,27,9,4,3,9,34
1526902880591348,-21,-38,-7,-4,-1,1,1,16
1526902880592345,-44,-44,-19,-4,0,-2,-3,-23
1526902880592345,56,37,-12,-9,-8,-7,-5,-19
1526902880614287,-112,45,22,8,4,4,-3,-29
1526902880614287,2,-58,-22,-16,-8,-8,-8,5
1526902880615284,-78,22,18,-1,-3,-7,-9,-5
1526902880615284,-103,-67,-6,3,5,5,-1,-45
1526902880637226,71,-24,2,1,-1,-1,-6,-7
1526902880637226,70,29,3,0,1,0,2,19
1526902880637226,17,-47,-2,-4,-1,-3,-6,-13
1526902880637226,35,-9,1,-1,-2,-2,5,39
1526902880651189,0,14,-18,-10,-8,-8,-8,-9
1526902880651189,-91,-85,-10,1,-1,-2,-8,-40
1526902880652186,49,46,13,1,-2,-1,2,38
1526902880652186,7,-16,-8,-3,-2,-2,-6,5
1526902880674127,-17,-25,-9,-2,1,4,6,-24
1526902880674127,48,8,9,4,-1,-1,0,28
1526902880675125,42,48,8,2,2,1,0,0
1526902880675125,-65,-36,-10,-3,-1,-2,-4,-26
1526902880697067,6,40,13,4,1,0,4,34
1526902880697067,10,-10,-3,0,-3,-1,-4,-47
1526902880698063,1,45,3,-2,0,4,6,38
1526902880698063,18,-17,4,2,-1,-2,-9,-36
1526902880711028,11,25,2,-1,2,2,1,-8
1526902880711028,38,37,5,2,0,0,4,18
1526902880712025,16,-10,-4,3,-1,-3,-6,-10
1526902880712025,-7,4,4,-4,-3,-1,0,2
1526902880733967,-109,-61,-17,-5,-3,-4,-2,-34
1526902880733967,-31,11,-4,-2,-3,-3,-4,28
1526902880734964,23,-20,9,-2,-3,0,1,5
1526902880734964,39,60,-3,1,1,-1,1,14
1526902880756905,-18,-62,-32,-12,-4,-1,-4,-3
1526902880756905,25,21,24,-3,1,2,4,5
1526902880757903,-60,-12,-20,1,-1,-3,-6,-26
1526902880757903,-27,-3,20,6,-1,2,11,71
1526902880770868,5,-2,16,8,-2,-4,-1,5
1526902880770868,-47,-12,-5,4,-1,-1,-4,-31
1526902880771866,-4,-41,-7,1,4,7,16,4
1526902880771866,33,106,7,-5,-7,-7,-14,13
1526902880794804,39,-30,-19,-7,-3,-3,-1,-5
1526902880794804,-43,35,-17,-7,-2,-3,-8,-2
1526902880794804,1,-19,14,-4,1,-2,2,-6
1526902880794804,-16,-10,-5,3,2,1,-2,-35
1526902880816745,11,-21,2,1,-2,-3,-5,4
1526902880816745,-1,-31,-15,-2,0,0,0,-11
1526902880817743,-22,-45,-6,0,0,-3,-8,-17
1526902880817743,58,30,12,-5,-5,-9,-8,1
1526902880831705,7,20,-6,-4,-2,-1,-1,6
1526902880831705,-30,-25,7,4,2,3,0,-7
1526902880831705,9,-4,-14,0,-2,0,-3,4
1526902880831705,-14,-8,-5,-3,0,-2,-4,-45
1526902880853647,-57,-18,4,1,0,0,1,3
1526902880853647,4,33,10,-2,-1,-3,-1,10
1526902880854644,28,45,7,2,-1,1,-3,-10
1526902880854644,-66,-37,-5,2,4,4,2,-30
1526902880876585,58,31,3,-4,-4,-3,5,48
1526902880876585,55,-9,-14,-3,-1,-1,-3,15
1526902880877583,-52,-32,-1,-1,-1,-2,-2,47
1526902880877583,-21,-26,-12,-1,2,3,4,-9
1526902880891545,7,23,21,5,-1,0,-1,-11
1526902880891545,52,26,2,-1,0,-1,-6,-2
1526902880891545,-63,9,1,0,-2,0,-4,-42
1526902880891545,23,-9,-4,-2,-2,0,3,24
1526902880914484,-40,23,-3,-2,2,1,-1,-50
1526902880914484,9,4,5,3,1,-1,-5,12
1526902880915481,-4,16,11,2,0,-3,-3,-1
1526902880915481,-11,-13,-9,-1,3,2,5,13
1526902880937423,-18,1,9,2,1,0,0,-15
1526902880937423,-86,-29,-5,-4,-4,-5,-5,-23
1526902880937423,84,20,-6,-1,1,2,7,19
1526902880937423,39,33,12,-2,0,0,1,26
1526902880951385,32,-23,8,5,0,-2,-3,5
1526902880951385,-16,-7,0,1,-1,1,3,-21
1526902880952383,26,2,-6,0,-3,-1,-3,-40
1526902880952383,-59,-16,-9,-6,-7,-6,-2,33
1526902880973327,88,29,4,3,2,4,5,25
1526902880973327,68,10,-3,-6,-5,-4,1,10
1526902880974324,-50,-4,-4,-4,-2,-5,-8,-33
1526902880974324,80,33,5,2,0,2,6,18
1526902880997263,-19,-10,-5,-4,0,0,-4,-5
1526902880997263,9,-19,2,6,2,1,3,9
1526902880997263,44,-16,-10,-8,-2,0,4,21
1526902880997263,-18,31,-7,-2,-1,1,-2,-6
1526902881011225,68,3,-3,2,2,3,4,39
1526902881011225,-41,-5,6,-1,-1,-1,-3,-21
1526902881012223,8,44,0,0,-3,-2,-2,24
1526902881012223,17,-21,2,0,0,0,-4,-11
1526902881034164,-43,-20,-11,-8,-5,-4,-5,-10
1526902881034164,-87,7,2,4,2,1,0,-20
1526902881034164,-25,2,6,0,-3,-1,0,13
1526902881034164,-22,-31,-12,1,1,1,-2,-1
1526902881057102,-3,3,6,1,-4,-2,-4,-9
1526902881057102,14,-8,-7,-5,-1,-1,0,19
1526902881058100,57,0,10,3,2,4,9,28
1526902881058100,11,10,2,-5,-4,-6,-7,-5
1526902881071065,-21,-16,-15,-1,-1,-3,-3,-9
1526902881071065,-3,-18,-5,-3,-2,-2,-1,-10
1526902881072063,13,-10,-9,-1,1,1,-2,-12
1526902881072063,-79,-5,-5,-1,-2,-1,0,-22
1526902881094004,-12,13,4,0,-1,-3,-1,-1
1526902881094004,12,-6,4,0,1,0,2,0
1526902881095001,22,-13,-8,-4,0,0,0,-1
1526902881095001,1,-22,8,1,0,-3,-5,-17
1526902881116942,-22,-15,-18,-7,-2,-2,-5,-41
1526902881116942,-9,22,8,-2,-3,-2,0,7
1526902881117940,13,3,13,2,0,2,5,7
1526902881117940,-19,11,-2,-4,-2,-2,-3,3
1526902881130905,41,11,2,2,-1,-1,8,35
1526902881130905,6,-11,8,3,1,0,2,-17
1526902881131903,15,28,4,5,3,-3,-12,-26
1526902881131903,-8,9,3,0,1,0,2,9
1526902881153844,-12,-29,-12,0,0,0,-5,-16
1526902881153844,12,-16,-9,-2,1,4,6,18
1526902881154841,31,39,-5,-5,-3,-4,-3,4
1526902881154841,-51,4,-1,-2,-2,-3,-7,-49
1526902881176782,-24,-24,-8,-4,-1,-3,0,-8
1526902881176782,24,5,-6,1,-1,2,8,86
1526902881177780,-25,-51,-17,-6,-5,-6,-6,-17
1526902881177780,39,7,9,3,2,4,6,33
1526902881190745,28,-9,5,1,0,1,0,5
1526902881190745,-5,32,-4,-3,-1,2,0,-39
1526902881191743,72,-3,-2,-1,0,2,7,31
1526902881191743,40,-14,-26,-8,-3,-2,-3,-4
1526902881213684,-65,-16,16,2,-3,-5,-8,-21
1526902881213684,21,25,1,1,0,-1,1,-4
1526902881214681,-39,-29,-2,-1,0,2,1,21
1526902881214681,62,9,-34,-12,-7,-7,2,33
1526902881236622,-79,0,15,2,2,-1,-6,-40
1526902881236622,-19,-28,4,2,1,1,-1,-23
1526902881237620,-17,7,9,1,-3,-2,-2,9
1526902881237620,13,-31,1,2,2,2,2,-11
1526902881250585,-5,-4,-16,-8,-3,-1,4,15
1526902881250585,39,16,7,2,-1,-2,1,14
1526902881258564,-44,-43,-16,-7,-3,-4,-6,-51
1526902881258564,2,2,15,4,1,0,-1,-2
1526902881273524,27,22,-4,-1,-1,2,6,24
1526902881273524,-19,-14,10,0,1,2,2,-10
1526902881274521,-35,62,11,2,1,-2,-9,9
1526902881274521,-35,-36,3,0,1,1,-7,-23
1526902881296462,47,28,5,1,0,-1,1,11
1526902881296462,-46,-29,-11,-3,-2,-4,-13,-31
1526902881297460,-55,-23,-7,-3,-1,-1,5,-9
1526902881297460,11,-14,9,0,-1,1,6,21
1526902881310425,50,57,11,6,4,6,1,-33
1526902881310425,-13,-20,-6,-4,-4,-4,-4,-1
1526902881318404,114,48,4,1,0,-2,6,46
1526902881318404,-100,-57,-10,-3,-2,-2,-7,-61
1526902881333364,9,-3,9,-1,0,-1,-1,-4
1526902881333364,19,0,-7,-4,-3,-1,-3,2
1526902881334361,16,-3,9,4,3,1,3,-7
1526902881334361,32,3,2,0,1,3,5,21
1526902881357300,-71,-34,-12,-3,-6,-4,-9,-15
1526902881357300,10,37,-7,-3,-1,-1,-2,-15
1526902881357300,-102,-26,6,-2,-2,-4,-6,-11
1526902881357300,53,21,0,5,2,2,4,23
1526902881370265,58,39,0,2,-1,-3,2,32
1526902881370265,36,8,3,0,1,-1,8,23
1526902881379241,15,-35,-10,-1,-1,3,4,-7
1526902881379241,-12,51,-5,-4,-2,-5,-9,-18
1526902881393203,11,-34,1,-3,-2,0,2,-1
1526902881393203,-22,-1,9,1,0,-1,1,25
1526902881394201,45,-27,-11,-6,1,0,-3,-23
1526902881394201,-66,12,13,3,-3,-4,-8,-35
1526902881417139,-29,-21,-4,4,2,3,0,29
1526902881417139,-63,-32,-11,3,-3,-3,-1,18
1526902881418137,73,48,11,-1,-4,-3,-10,2
1526902881418137,-29,-21,-8,-6,-1,0,11,10
1526902881431102,41,-46,-55,-19,-4,2,5,-9
1526902881431102,-25,4,26,11,3,-3,-9,-28
1526902881439081,-4,10,10,5,2,3,4,33
1526902881439081,18,-1,3,3,1,-1,-3,-8
1526902881454041,0,-17,0,-1,1,-1,-6,-4
1526902881454041,67,48,18,-1,-1,0,10,42
1526902881454041,-30,-12,7,7,-1,-1,-4,-16
1526902881454041,15,21,1,3,0,1,-4,-11
1526902881476980,-39,-35,-2,0,-2,-1,1,7
1526902881476980,-31,-41,-19,-11,-5,-4,-5,-18
1526902881477977,-34,39,-41,-14,0,-2,0,6
1526902881477977,-13,-19,0,-8,-2,1,-2,-23
1526902881490942,28,21,10,11,-1,-2,6,47
1526902881490942,19,2,25,4,2,2,-2,-12
1526902881498921,26,-15,11,12,0,-1,2,29
1526902881498921,-25,19,1,-2,-3,-1,0,10
1526902881513881,-47,-23,-17,-3,-3,-5,-8,-21
1526902881513881,29,30,-4,-3,-2,-2,-3,-31
1526902881514879,-23,-40,1,-4,0,0,-1,-22
1526902881514879,-40,-42,-24,-1,-1,-1,0,-11
1526902881536819,-13,38,23,1,-2,-1,-2,39
1526902881536819,6,-34,-14,-5,-3,-3,-12,-26
1526902881537817,-28,18,-6,-7,-3,0,9,37
1526902881537817,33,-18,9,6,3,2,5,7
1526902881550782,-54,4,-5,-3,1,4,3,-24
1526902881550782,-18,36,-3,-1,-3,-3,-4,-9
1526902881558761,17,-39,-8,-3,-2,-1,0,-8
1526902881558761,46,12,11,0,-1,-3,-1,22
1526902881573721,22,17,9,-2,0,-1,4,-3
1526902881573721,18,-33,-16,-2,2,2,4,12
1526902881574719,-31,31,0,-4,-4,-2,2,16
1526902881574719,20,9,0,0,2,4,-1,-19
1526902881596660,25,-2,1,-2,-1,-3,-2,-10
1526902881596660,3,-14,-10,-1,1,0,2,-21
1526902881597657,-25,-4,-3,-2,-2,-4,-9,-4
1526902881597657,40,28,-4,-3,-1,1,15,64
1526902881619598,5,-4,11,1,0,-1,-2,-14
1526902881619598,-21,-29,-24,-5,0,-1,-3,-11
1526902881620596,18,-14,8,-4,1,4,14,23
1526902881620596,-40,-32,-2,1,-4,-8,-24,-37
1526902881633561,68,72,29,8,3,2,-3,-7
1526902881633561,-48,-38,-15,-6,-5,-2,0,-26
1526902881634558,40,-6,-7,-2,-1,-3,-5,-6
1526902881634558,12,-7,-5,-4,0,1,2,3
1526902881656499,34,17,-12,-5,-2,-1,1,10
1526902881656499,-3,29,9,3,1,-1,-3,10
1526902881657497,7,-23,-3,-2,0,2,3,-6
1526902881657497,-13,19,-2,-1,-2,-2,-3,3
1526902881679438,-31,-34,-7,0,-2,-3,-2,-4
1526902881679438,2,17,-6,-1,1,3,5,-4
1526902881680436,-42,20,28,8,3,1,-6,-45
1526902881680436,17,14,10,3,0,0,3,59
1526902881693401,-1,-2,-11,-6,-2,-3,5,14
1526902881693401,-5,-21,1,-3,-1,0,1,5
1526902881694398,11,14,-23,-2,-1,-5,-5,-9
1526902881694398,-6,-11,22,6,1,2,-1,-13
1526902881717337,7,-49,-20,-3,2,1,-6,-15
1526902881717337,-8,34,28,4,-3,-1,4,24
1526902881717337,11,15,0,9,1,-2,-2,-3
1526902881717337,-18,-3,-12,-4,-3,-3,6,11
1526902881739278,-6,-19,0,0,0,-3,-12,-29
1526902881739278,-60,-58,-16,-7,0,1,1,4
1526902881740276,81,88,36,6,-3,-3,-5,-1
1526902881740276,-1,-19,3,2,0,-1,3,17
1526902881753241,-7,-22,-18,-2,-1,-2,-5,-22
1526902881753241,39,10,16,1,0,-1,0,4
1526902881754238,-27,-30,-15,-3,-3,2,0,-23
1526902881754238,38,37,13,5,-2,1,3,28
1526902881777177,-35,51,6,-4,-3,-2,-4,-21
1526902881777177,13,-7,-9,1,-2,1,-1,-5
1526902881778174,-10,-13,-7,-1,2,1,-1,-12
1526902881778174,22,19,5,0,1,-1,0,-15
1526902881799118,-17,-29,-11,-3,-1,2,3,2
1526902881799118,-9,7,-4,-3,-1,-3,-4,-6
1526902881800116,-31,-38,-7,-4,-3,-4,-10,-7
1526902881800116,-46,14,-14,-4,3,2,-3,-27
1526902881814078,2,10,31,6,0,0,4,9
1526902881814078,-14,10,-2,3,1,0,-1,-20
1526902881814078,33,-12,9,0,-1,0,3,17
1526902881814078,-4,-29,-12,-3,-4,-1,-3,-10
1526902881837017,-7,42,2,-6,0,1,3,7
1526902881837017,30,24,3,2,0,-2,0,9
1526902881838014,-37,-16,-2,0,-1,0,-3,-2
1526902881838014,17,-6,-2,-5,0,-1,-1,-5
1526902881858958,-12,-16,-4,-9,-3,-2,-2,-10
1526902881858958,17,-2,-27,-9,-12,0,1,9
1526902881859955,-32,6,13,1,9,-3,-4,-6
1526902881859955,7,-4,26,16,3,3,0,-2
1526902881873918,9,-4,2,2,0,0,-2,10
1526902881873918,-8,7,-16,-6,0,-2,-5,-3
1526902881874916,-4,-2,-5,-3,-7,-2,2,3
1526902881874916,37,13,11,-1,-2,-4,-2,12
1526902881896857,7,-27,6,5,1,3,1,-19
1526902881896857,67,47,3,-2,-3,-2,1,27
1526902881897854,2,-1,-32,-2,-1,1,4,-9
1526902881897854,11,-2,9,-12,0,0,-1,9
1526902881919795,-15,1,4,5,-1,0,-2,-2
1526902881919795,-23,-26,2,1,3,-1,-3,-14
1526902881919795,-12,-9,12,2,0,-1,-5,-11
1526902881919795,43,84,2,-6,-5,-5,0,18
1526902881933758,3,-13,-16,-4,-3,-3,0,3
1526902881933758,-8,-8,12,2,1,0,-3,-17
1526902881934756,-35,-19,-1,-7,0,1,0,8
1526902881934756,-37,-11,-8,-1,-2,-3,-7,-32
1526902881956697,13,4,-13,0,-2,-4,-6,4
1526902881956697,7,16,10,2,2,4,1,3
1526902881957694,27,-3,-7,-6,-3,-1,0,10
1526902881957694,-38,-35,-15,-1,0,1,-2,-13
1526902881979635,-10,1,-5,-3,2,0,2,6
1526902881979635,-20,-22,2,2,-1,-2,-2,1
1526902881980633,0,15,-4,4,0,0,0,12
1526902881980633,-5,-24,-11,-7,-2,1,0,-16
1526902881993598,-5,-12,10,1,1,0,0,-5
1526902881993598,7,-21,-12,-3,0,-1,-1,-7
1526902881994595,15,57,21,8,-2,-3,-1,15
1526902881994595,7,0,-11,-1,0,-2,-1,7
1526902882016537,-32,-25,-5,-1,-3,1,-1,-19
1526902882016537,66,37,6,1,0,0,4,17
1526902882017534,-15,-17,-1,0,1,-1,-2,-9
1526902882017534,-6,-8,-4,-4,-4,1,0,0
1526902882039475,21,-6,3,8,4,2,1,-4
1526902882039475,-61,-27,-3,0,2,1,2,3
1526902882040473,31,47,16,-1,-3,-4,-1,19
1526902882040473,-8,4,-3,-2,-1,0,1,-23
1526902882053438,4,-12,-6,-5,-2,-1,3,15
1526902882053438,-32,-20,6,-1,0,1,-2,-2
1526902882054435,86,25,-4,6,1,0,-1,9
1526902882054435,-22,-47,-6,-4,-3,-5,-8,-16
1526902882077374,-18,6,1,-3,-4,-6,-5,-10
1526902882077374,16,12,5,0,-1,0,5,6
1526902882077374,-31,-57,-21,-7,-2,0,0,-8
1526902882077374,17,30,12,4,1,0,0,3
1526902882099315,13,19,4,-2,-3,-3,-3,2
1526902882099315,-40,-32,-17,-6,-3,-3,-2,3
1526902882100313,-10,-13,1,-2,-1,-2,-6,-18
1526902882100313,19,4,-5,2,1,0,0,15
1526902882113278,-24,7,0,-1,-1,0,-1,-8
1526902882113278,-13,-15,4,2,0,1,0,-3
1526902882114276,-23,13,-6,-5,-5,-3,-2,7
1526902882114276,1,-16,-6,0,0,-2,-3,-8
1526902882136216,-1,1,-6,-5,-2,1,2,6
1526902882136216,5,-13,7,3,1,-2,-2,-7
1526902882137214,56,37,9,0,-1,-3,-7,4
1526902882137214,-57,3,-3,0,-1,-4,-1,-13
1526902882159155,14,0,-5,-3,-1,-1,-1,-9
1526902882159155,-34,2,-7,-2,-1,0,-2,-13
1526902882160153,-23,-28,-2,-9,-2,-2,0,-3
1526902882160153,64,-37,-19,4,3,4,7,19
1526902882174115,-17,78,24,-1,-2,-3,-1,-12
1526902882174115,-20,5,11,1,-3,-3,-7,-12
1526902882174115,-12,5,-4,-2,-1,0,-2,-31
1526902882174115,-1,-11,-1,2,1,1,-2,-17
1526902882196057,28,-32,-5,-2,-1,-1,-2,1
1526902882196057,25,35,-1,4,-1,0,3,17
1526902882197054,-8,-15,-3,-3,-2,-2,2,12
1526902882197054,-8,3,0,-2,-2,0,-1,-7
1526902882218995,2,-12,-1,0,2,1,1,0
1526902882218995,-43,-14,-1,2,0,-1,0,-2
1526902882219993,46,16,-5,0,1,-1,-1,-11
1526902882219993,-31,-14,-2,-1,-1,0,3,3
1526902882232958,-4,-41,-23,-6,-3,-3,-3,-9
1526902882232958,85,37,25,5,1,1,-2,23
1526902882240936,-40,-52,-7,3,3,2,4,5
1526902882240936,-49,39,20,1,-2,-2,-7,-37
1526902882255896,-13,-4,-11,-5,0,-1,4,-1
1526902882255896,6,-32,-25,-7,-1,-2,-8,-6
1526902882256894,-12,-8,16,5,-2,0,4,22
1526902882256894,44,12,7,1,1,-3,-7,-6
1526902882279832,-74,10,8,6,0,1,0,-10
1526902882279832,68,10,-7,-4,-2,0,8,22
1526902882279832,-9,-3,0,-6,-4,-3,-1,23
1526902882279832,-23,2,-28,-4,0,1,-4,-9
1526902882292798,-60,-26,29,10,2,3,1,-30
1526902882292798,72,35,15,3,-1,-1,10,33
1526902882301774,-10,-7,-8,-3,-3,-3,-13,-31
1526902882301774,59,-14,0,-1,1,3,10,46
1526902882315736,-23,30,-11,-1,-2,-2,-4,6
1526902882315736,0,11,0,-4,-3,-3,-8,-11
1526902882316734,6,-17,-4,0,0,0,5,54
1526902882316734,2,-6,6,-1,-2,0,2,4
1526902882339672,50,-8,-21,-8,-3,2,7,11
1526902882339672,-32,-11,5,1,-1,-3,-9,-24
1526902882340670,15,24,-2,3,2,3,4,6
1526902882340670,-15,-22,2,-1,-5,-6,-10,-37
1526902882352638,49,23,-15,-8,-3,-4,-2,19
1526902882352638,13,15,-6,-13,1,1,0,-10
1526902882361614,-20,-8,33,20,3,0,-7,-33
1526902882361614,9,2,3,5,2,2,6,22
1526902882376574,-67,-34,3,4,1,-2,-12,-53
1526902882376574,-24,6,-11,-8,-6,-5,-2,9
1526902882376574,15,5,-22,-9,-1,-2,-7,-32
1526902882376574,-39,-22,-2,-3,-2,-1,-1,-7
1526902882399512,44,59,22,6,1,0,-2,19
1526902882399512,-16,-37,-3,4,-1,-2,-1,2
1526902882400510,-19,38,-1,-4,-2,0,-2,5
1526902882400510,6,-8,-4,2,-3,-2,0,6
1526902882413475,14,-25,-2,-3,0,-2,-5,-14
1526902882413475,-18,0,-18,3,3,4,-3,-18
1526902882421454,15,-4,22,5,0,2,13,20
1526902882421454,34,4,-3,-5,-1,0,2,8
1526902882436414,14,0,1,-2,-3,-1,-2,21
1526902882436414,10,-2,3,2,-3,-2,-5,2
1526902882437411,-17,-13,-16,-7,-2,1,0,-17
1526902882437411,6,21,13,7,-1,-1,5,32
1526902882459352,-54,-32,-10,-2,-3,-2,2,0
1526902882459352,9,19,-8,-3,2,3,5,-5
1526902882460350,-10,-34,0,-2,-1,-2,-2,-9
1526902882460350,-10,9,1,-3,-6,-5,-5,12
1526902882473315,17,3,-5,1,1,1,0,-13
1526902882473315,-9,15,-1,-4,-3,0,5,37
1526902882481294,-81,2,-12,2,0,-1,-2,16
1526902882481294,26,8,17,1,2,0,-2,0
1526902882496254,39,-5,-2,2,-2,0,-1,3
1526902882496254,-74,-41,-9,-4,-1,-1,-4,-28
1526902882497251,2,-8,-2,-5,-4,-2,-1,-19
1526902882497251,-35,-13,-34,-10,-3,-2,1,8
1526902882519192,26,48,32,5,2,-1,3,10
1526902882519192,-20,-32,-2,1,-2,-3,2,-3
1526902882520190,51,6,-1,-4,-1,2,1,16
1526902882520190,-54,-28,-3,0,0,-3,-6,-43
1526902882542131,24,8,-13,-10,-5,-2,-5,14
1526902882542131,-15,-2,6,0,0,2,1,-6
1526902882543129,-7,-11,-4,0,-1,-2,-3,-4
1526902882543129,2,18,4,-3,1,1,1,0
1526902882556094,8,-21,-7,1,-1,-2,-2,-7
1526902882556094,32,7,8,4,1,0,0,-2
1526902882557091,-1,-5,1,1,-2,0,4,38
1526902882557091,26,39,2,-2,0,1,3,5
1526902882579032,4,19,5,-1,-1,-1,1,-4
1526902882579032,-28,-33,-6,-4,-1,0,-4,-17
1526902882580030,0,-23,-12,-2,-1,1,2,-15
1526902882580030,6,70,34,8,1,2,-4,7
1526902882601971,5,-3,-13,-3,-2,-3,2,11
1526902882601971,-3,8,-13,-6,-2,0,-2,1
1526902882602968,-2,4,13,0,-1,-2,-3,-13
1526902882602968,-27,-37,-17,-5,-2,1,-2,-2
1526902882615934,0,-1,3,1,0,5,3,10
1526902882615934,26,-2,2,1,-2,-5,-5,-13
1526902882616931,43,33,0,1,3,2,4,-9
1526902882616931,13,-4,-2,-6,-3,-5,-4,0
1526902882639870,-20,-11,-1,3,2,1,1,-8
1526902882639870,-9,-3,-7,-4,-1,-1,0,-2
1526902882639870,10,10,6,1,1,1,1,1
1526902882639870,-6,-11,-2,2,1,0,0,-2
1526902882661811,18,-5,-2,0,-1,0,-1,-1
1526902882661811,34,-15,1,2,-1,-1,3,30
1526902882662809,-19,23,1,2,0,-1,-3,-14
1526902882662809,-23,-3,1,-1,0,0,-1,-8
1526902882675773,-11,-15,-9,-7,-4,-2,-5,-6
1526902882675773,26,-1,-6,1,1,-2,3,27
1526902882676771,-32,-19,6,-1,0,0,1,4
1526902882676771,3,5,-7,0,-2,-6,-8,-17
1526902882699710,-15,-17,-2,1,2,-1,2,-6
1526902882699710,16,22,23,6,0,0,-3,-8
1526902882700707,3,1,-5,-1,-1,0,1,27
1526902882700707,2,-29,-12,-4,-3,0,0,-5
1526902882721651,-37,-7,7,-1,0,-2,-3,-2
1526902882721651,-18,7,-11,-2,-2,-1,-4,-17
1526902882722648,8,1,7,1,0,1,-4,-6
1526902882722648,6,-18,-3,-1,0,1,0,-12
1526902882736611,-2,22,-1,-4,-3,-4,-3,8
1526902882736611,-10,-40,-5,-1,-2,0,0,-14
1526902882736611,-23,2,8,2,0,-2,-7,-34
1526902882736611,58,65,15,4,-2,-1,1,28
1526902882759549,-5,-19,-12,-3,1,0,-1,-6
1526902882759549,-18,-6,-4,-6,-3,-3,-5,-19
1526902882760547,8,-15,-16,-3,-2,-2,-3,-17
1526902882760547,-24,-17,-4,-2,-2,-1,1,11
1526902882781491,-25,-1,-1,1,-1,-3,-4,-31
1526902882781491,11,17,-6,-8,-3,-1,5,24
1526902882782488,-25,-20,0,1,-2,-4,-4,-1
1526902882782488,9,2,2,-2,1,0,5,7
1526902882796451,17,-2,6,5,0,2,1,4
1526902882796451,-34,-4,-9,-3,0,-2,-6,-19
1526902882797448,-1,8,6,1,-1,-1,1,21
1526902882797448,-3,-14,-3,-2,-1,0,-4,4
1526902882819390,12,7,5,3,-1,-1,0,1
1526902882819390,-4,6,12,7,5,5,1,-3
1526902882820387,9,-13,-11,-4,0,0,1,2
1526902882820387,-30,-3,2,0,1,-2,-3,-13
1526902882842328,-38,-10,-9,-8,-2,-2,-2,2
1526902882842328,3,-1,10,9,4,2,1,16
1526902882842328,64,-5,-10,-4,-2,-3,-1,14
1526902882842328,-35,16,6,1,1,-2,-2,-32
1526902882856291,9,-17,-12,-8,-4,-1,1,26
1526902882856291,-32,-16,-17,-3,-2,0,-4,-26
1526902882857288,-31,-2,14,4,0,-3,0,-32
1526902882857288,62,7,-1,-1,0,-1,1,9
1526902882879229,21,10,2,2,0,1,2,-4
1526902882879229,-17,-9,-2,-2,-2,-2,-3,-16
1526902882880227,-4,-4,-7,-3,-2,0,2,7
1526902882880227,16,-6,-1,0,-1,0,1,2
1526902882902168,0,-10,-8,-2,-2,-2,-3,-5
1526902882902168,6,1,10,0,-13,-4,-2,6
1526902882903166,2,17,-1,-2,12,-1,-7,-5
1526902882903166,-38,-18,-1,-1,-1,0,-1,0
1526902882916131,54,6,-2,-1,1,1,6,21
1526902882916131,-18,25,7,0,0,0,3,0
1526902882917128,-33,1,-7,-3,-8,-2,-7,-14
1526902882917128,22,-13,-7,1,1,3,5,43
1526902882939070,-20,-8,0,-4,-3,-1,-3,-12
1526902882939070,36,23,2,-1,-3,-2,-1,8
1526902882940067,-19,26,19,3,-2,-1,-4,-16
1526902882940067,0,-33,-5,3,5,2,6,12
1526902882962008,-7,-9,-4,1,-1,1,0,16
1526902882962008,36,27,8,-5,-4,-7,-4,13
1526902882963006,-9,0,-21,-8,-3,1,1,-1
1526902882963006,13,12,8,-3,-3,-4,-4,4
1526902882975971,-15,-6,3,1,0,0,-1,-12
1526902882975971,7,-10,-1,2,4,2,2,3
1526902882976968,49,12,-1,1,-2,-2,3,31
1526902882976968,-14,11,-4,-3,-4,-3,-5,-28
1526902882999907,13,15,2,0,3,1,-1,-1
1526902882999907,-34,-27,-6,-4,2,-1,0,-11
1526902882999907,11,18,6,1,-1,-1,0,2
1526902882999907,20,-36,-5,-1,-1,-2,-1,-11
1526902883021848,16,10,-2,-1,-3,-5,-12,-12
1526902883021848,-8,18,5,2,2,2,2,-3
1526902883022846,-23,-48,-12,-6,3,4,3,-8
1526902883022846,9,2,5,-1,-5,-5,-8,2
1526902883035811,-5,2,-5,3,1,-2,-4,-28
1526902883035811,58,-19,5,2,0,0,10,39
1526902883036808,-37,-7,-10,-2,-5,-4,-4,12
1526902883036808,42,25,-14,-10,-5,-3,1,6
1526902883059747,-12,-10,6,0,2,0,7,11
1526902883059747,-14,-11,-9,-1,-1,-4,-9,-13
1526902883060744,-13,-18,4,4,2,6,6,3
1526902883060744,41,17,-8,-3,-1,0,-2,-8
1526902883081688,-41,30,26,8,-1,-1,-7,-14
1526902883081688,13,-1,-12,-3,1,2,3,-15
1526902883082685,8,-36,-6,-3,-2,-2,1,17
1526902883082685,11,28,6,2,1,0,-3,-21
1526902883096648,-17,-19,-5,-3,-3,-1,1,-4
1526902883096648,32,-2,2,4,1,1,1,-7
1526902883096648,-54,12,-3,-1,-4,-4,-5,-31
1526902883096648,-34,-34,-11,-2,0,3,10,23
1526902883119587,65,3,-4,0,-3,-8,-7,-12
1526902883119587,25,53,31,2,1,1,-4,10
1526902883120584,57,-14,-1,3,-1,-2,1,4
1526902883120584,9,12,-6,-2,-1,-3,-5,-15
1526902883141528,-27,-32,-5,-1,1,4,7,7
1526902883141528,28,1,-10,-2,0,-2,3,20
1526902883142526,-1,17,9,1,-1,-2,-6,-4
1526902883142526,8,10,-1,-2,-1,-2,-3,13
1526902883164467,-8,-11,-10,-4,-3,1,1,-16
1526902883164467,-19,-32,-9,1,0,-1,-3,4
1526902883165464,-24,77,24,1,-2,-3,-3,-10
1526902883165464,-17,-48,-22,-7,-3,-3,-5,-13
1526902883179426,25,32,12,0,1,1,1,-18
1526902883179426,-38,-18,-4,0,-1,0,0,3
1526902883180424,41,-5,-5,-1,0,-1,1,15
1526902883180424,-34,-17,8,5,0,0,4,13
1526902883202365,-43,-15,-3,-3,-3,-1,-3,-8
1526902883202365,0,44,4,-3,-5,-2,-6,-14
1526902883202365,1,-36,-9,0,-1,-3,-4,-1
1526902883202365,-11,38,7,2,0,1,0,-8
1526902883215331,10,-43,-17,-3,1,2,5,25
1526902883215331,-61,37,13,3,-1,-3,-8,-32
1526902883223309,-24,-33,-18,-6,-3,-4,-3,22
1526902883223309,28,11,0,-1,1,-3,-4,-13
1526902883238269,22,-9,8,-1,0,-1,3,14
1526902883238269,-21,-28,-24,-7,0,0,1,-24
1526902883239267,43,-15,12,4,1,2,-1,21
1526902883239267,15,32,-2,-2,-1,-2,-6,-2
1526902883262205,-43,25,6,3,-1,-4,-2,6
1526902883262205,19,-13,-7,-2,-4,-4,-7,-3
1526902883262205,11,-36,-18,-5,0,2,2,-6
1526902883262205,8,15,21,1,1,2,3,-3
1526902883275170,-6,-12,-3,2,-1,-2,-1,-1
1526902883275170,-1,-1,-7,-5,-1,-1,1,4
1526902883284146,-5,18,-5,0,0,-1,1,-6
1526902883284146,-30,-7,11,6,1,2,2,-6
1526902883299106,7,-3,-11,-1,-2,1,1,10
1526902883299106,-40,-5,7,3,2,1,2,10
1526902883299106,21,15,-1,-5,-4,-3,-7,-9
1526902883299106,-53,-27,-5,0,0,-3,-2,-5
1526902883322045,-6,23,-1,2,1,2,1,4
1526902883322045,16,-8,-9,-4,-1,0,1,11
1526902883323043,-78,-27,-8,0,0,1,2,-43
1526902883323043,37,-30,16,7,1,-1,5,58
1526902883336008,-21,57,13,-1,-1,2,2,-14
1526902883336008,57,-16,5,0,-2,-2,-4,13
1526902883343987,-18,0,1,-2,-1,0,1,-3
1526902883343987,-21,-14,-2,1,0,-2,-1,-22
1526902883358947,-6,-23,-11,-4,0,0,-2,8
1526902883358947,-9,-20,3,0,0,1,6,18
1526902883359944,1,35,4,1,-1,0,-1,-8
1526902883359944,-11,5,-4,-1,-2,-2,0,-20
1526902883381885,-15,-29,-27,-13,-6,-5,-9,14
1526902883381885,12,25,31,3,2,1,0,-9
1526902883382883,17,4,6,3,1,1,2,8
1526902883382883,-14,-5,-5,2,2,0,-1,1
1526902883395848,19,36,10,-1,-3,-2,1,3
1526902883395848,-16,8,-7,1,-3,-2,-1,-8
1526902883403827,61,-7,-12,-6,-2,0,5,14
1526902883403827,3,13,2,1,1,2,5,22
1526902883418786,-41,-23,-2,-2,-2,-1,-1,-2
1526902883418786,-61,-1,-5,-3,-2,1,-4,-44
1526902883419784,49,6,0,-2,-4,-10,-13,1
1526902883419784,-90,-8,-6,-5,-2,1,-2,-22
1526902883441725,19,9,5,1,1,2,1,5
1526902883441725,-15,-52,-11,-5,-5,-3,1,7
1526902883442723,-17,84,1,-2,-2,0,-7,-21
1526902883442723,37,-16,-3,-2,0,1,-1,-18
1526902883455688,16,2,5,2,1,1,2,5
1526902883455688,26,11,-5,1,-1,-5,-6,8
1526902883463667,-11,-20,-3,0,0,1,5,3
1526902883463667,15,5,-7,-3,-2,-1,-1,7
1526902883478626,41,-3,11,4,0,2,6,-3
1526902883478626,6,2,-4,-2,-1,-1,1,0
1526902883479624,59,-5,9,2,1,1,5,29
1526902883479624,7,4,-16,-5,-4,-3,-4,-18
1526902883501565,-40,-40,-16,-9,-5,-5,-3,-25
1526902883501565,4,16,-3,-4,-3,-2,-2,10
1526902883502563,-15,41,9,8,4,2,-1,0
1526902883502563,-13,-20,-3,0,0,1,-1,-14
1526902883524504,-2,-11,-12,-3,-3,-2,-8,0
1526902883524504,35,22,15,0,-1,-1,-1,8
1526902883525501,-46,-21,6,3,-1,0,2,-3
1526902883525501,-19,-32,-5,-5,-2,-1,-5,-19
1526902883538466,30,16,12,5,1,-1,-2,5
1526902883538466,15,37,0,2,0,-1,-5,4
1526902883539464,-38,-39,-5,-3,-2,1,3,1
1526902883539464,32,7,7,0,-1,0,-4,3
1526902883562402,-29,-2,-14,-3,1,2,11,25
1526902883562402,-67,-17,10,1,1,0,-3,-8
1526902883562402,55,8,-8,-3,-4,-3,5,49
1526902883562402,20,39,2,-1,-1,-2,-2,3
1526902883584344,0,6,4,2,3,1,-2,-28
1526902883584344,67,-16,-7,2,1,3,7,31
1526902883585341,-69,0,-6,-9,-6,-4,-7,-14
1526902883585341,-17,8,7,5,1,1,-3,-4
1526902883598306,37,2,4,2,-14,-2,2,16
1526902883598306,7,-9,-3,2,14,5,9,-7
1526902883599304,0,-18,3,-3,-1,-2,-6,-19
1526902883599304,-7,-3,-11,-2,-1,0,6,5
1526902883622242,17,16,12,-1,1,-6,-18,-14
1526902883622242,-58,-17,-19,-8,-6,0,-2,-11
1526902883623240,40,-16,9,2,0,-3,-6,-8
1526902883623240,-50,1,1,-5,13,3,2,-3
1526902883644184,74,43,-5,2,-16,-6,4,-23
1526902883644184,-14,-17,1,0,-7,-5,-14,-13
1526902883645181,32,-10,-2,5,11,10,6,13
1526902883645181,-16,-33,1,-1,-1,-3,3,2
1526902883659144,35,24,-1,-1,1,2,5,20
1526902883659144,-109,-80,-8,-3,-4,-2,-3,-31
1526902883659144,-34,83,25,4,13,2,-1,-8
1526902883659144,-3,-14,-3,1,-17,0,2,-5
1526902883682082,-10,-20,-17,-1,13,5,3,12
1526902883682082,25,22,19,0,-8,-8,0,-12
1526902883683080,13,0,-12,-5,-5,-1,-2,7
1526902883683080,-4,4,-2,-6,1,-1,-6,-15
1526902883704024,-21,-13,12,5,6,6,0,14
1526902883704024,54,20,-6,0,-7,-5,1,13
1526902883705021,-24,-22,-10,-2,17,0,-2,-16
1526902883705021,7,16,2,2,-3,-4,-4,6
1526902883718984,-5,-10,-1,-3,0,2,-4,-17
1526902883718984,16,13,-4,1,0,-5,2,16
1526902883719981,10,5,2,0,-9,-1,1,0
1526902883719981,-33,-18,0,2,-1,-1,2,-6
1526902883741922,-38,-30,-7,-7,-2,-4,-1,5
1526902883741922,-8,44,10,6,3,1,-7,-9
1526902883742920,0,-39,-11,-3,-5,-2,-4,-4
1526902883742920,69,66,13,10,3,1,1,9
1526902883764861,-72,-30,-12,-8,-6,-7,-13,-27
1526902883764861,0,15,-9,-7,1,1,-2,12
1526902883764861,-35,-35,-14,-6,-3,2,5,-43
1526902883764861,39,-7,15,4,0,1,2,65
1526902883778824,67,61,3,2,1,0,3,1
1526902883778824,13,-5,-10,-5,-3,-1,-6,7
1526902883779821,-12,-22,1,0,-5,-1,0,5
1526902883779821,-20,-20,-8,-2,-3,0,1,-20
1526902883801762,18,-13,-2,-9,-3,-3,1,6
1526902883801762,25,2,0,0,1,0,4,12
1526902883802760,-60,-12,-8,-1,-5,-2,-6,-15
1526902883802760,-8,-9,-7,-4,-1,-2,-4,-15
1526902883824701,21,17,4,-1,1,1,2,0
1526902883824701,-31,-2,3,0,1,1,-1,-24
1526902883825698,-18,-39,-7,1,-3,-5,0,17
1526902883825698,21,10,2,-2,-1,-1,-2,18
1526902883838664,-17,-6,1,3,2,0,0,-10
1526902883838664,4,-16,-3,-4,-4,-2,-1,-2
1526902883839661,92,2,-7,-1,-1,0,2,14
1526902883839661,-55,-43,-17,-7,-2,-4,-6,-6
1526902883861602,19,-10,2,4,1,2,2,-6
1526902883861602,9,-3,-6,-5,-2,1,-5,-1
1526902883862600,40,13,2,1,-1,-1,4,8
1526902883862600,-7,-2,-6,1,2,2,0,-6
1526902883884541,-52,3,14,2,0,-2,-6,-14
1526902883884541,-31,0,-15,-5,0,-1,2,-6
1526902883885539,-17,-19,20,4,-2,0,0,0
1526902883885539,-19,12,-5,-1,0,-1,0,-6
1526902883898503,5,25,2,-2,1,1,-1,8
1526902883898503,3,-16,3,5,3,0,-4,-12
1526902883899501,-20,-20,-11,-5,-4,-2,-1,11
1526902883899501,-9,13,11,1,0,2,4,11
1526902883922440,10,11,-1,-1,-4,-5,-7,11
1526902883922440,-2,-1,4,0,1,1,0,0
1526902883922440,-1,14,0,0,-2,-2,-5,-7
1526902883922440,16,-10,0,-1,-2,-1,0,-1
1526902883944381,-13,-19,-8,-2,0,1,3,6
1526902883944381,50,15,8,3,1,1,7,12
1526902883945378,-8,16,-3,-4,-5,-6,-8,2
1526902883945378,-52,-17,-10,-5,-3,-5,-7,-34
1526902883958344,39,37,4,0,-2,-1,6,21
1526902883958344,-20,-17,-6,-5,-1,1,-2,3
1526902883959341,38,33,6,4,0,1,2,-3
1526902883959341,18,1,-2,-1,-2,0,-2,-7
1526902883982280,-9,-17,-3,1,-1,-1,-1,-15
1526902883982280,-3,0,11,3,0,-1,-1,-1
1526902883982280,-35,15,-3,-2,-2,-1,2,3
1526902883982280,30,3,-4,-4,-1,-1,2,4
1526902884004221,-15,-17,-8,-2,-1,-2,-5,-7
1526902884004221,-13,10,6,0,1,0,2,12
1526902884005219,-7,11,1,-2,-2,-3,-6,-18
1526902884005219,-20,-20,6,2,0,-2,-1,-10
1526902884019181,14,36,-20,-5,-2,-1,0,7
1526902884019181,30,-3,-9,0,2,1,-1,-4
1526902884019181,-66,-23,11,0,0,2,3,17
1526902884019181,38,15,-6,-1,-1,1,-2,-4
1526902884042119,-11,-31,-6,-2,0,-2,-2,-16
1526902884042119,3,28,10,4,-1,-5,-2,12
1526902884043117,9,-2,-8,-7,-4,0,0,-12
1526902884043117,-9,1,-4,-1,0,1,-2,-7
1526902884064061,-2,-17,6,-1,1,2,2,12
1526902884064061,51,1,-4,0,-2,0,1,23
1526902884065058,-59,-19,-5,-1,-4,-4,-4,0
1526902884065058,30,31,6,2,0,0,-1,-3
1526902884079021,18,-17,4,1,1,0,-1,-12
1526902884079021,4,10,-1,-3,-2,3,4,7
1526902884079021,20,-5,-16,-7,1,0,-4,-11
1526902884079021,8,-13,2,1,-1,-3,-5,-10
1526902884101960,2,10,16,7,3,3,2,3
1526902884101960,-38,-25,-12,-3,-2,-1,-3,-21
1526902884102957,42,7,5,3,0,3,1,1
1526902884102957,-13,15,0,-4,-1,0,3,-3
1526902884124898,2,-11,-7,1,0,0,-4,-17
1526902884124898,39,-2,7,0,-2,-3,1,27
1526902884124898,15,4,-2,-3,1,0,0,-9
1526902884124898,11,2,-1,-3,-2,0,0,7
1526902884137863,-40,-16,1,0,-2,0,1,2
1526902884137863,23,18,-8,-4,-1,-2,-5,7
1526902884145842,7,7,5,4,1,2,3,6
1526902884145842,-10,5,3,1,-1,-4,-4,20
1526902884161799,-13,-4,1,0,0,1,0,-12
1526902884161799,-17,-2,10,1,-1,0,-1,18
1526902884162797,-12,-4,0,1,-1,-2,-4,-25
1526902884162797,-9,1,-2,-1,-1,-3,0,-7
1526902884184738,-32,14,-5,-1,1,-1,2,-6
1526902884184738,-14,-15,1,1,-1,0,2,4
1526902884184738,43,16,2,1,-1,-1,-2,7
1526902884184738,-37,-28,-8,-6,-2,0,-3,-9
1526902884197703,11,13,-2,-1,-1,-1,0,12
1526902884197703,2,5,2,4,2,3,0,-11
1526902884206679,-39,-44,-9,1,3,1,-1,-3
1526902884206679,46,35,33,7,0,1,5,16
1526902884221639,2,6,9,2,-2,-6,-7,-10
1526902884221639,-49,-23,-8,-3,-2,0,2,-16
1526902884222637,16,10,-7,-4,0,1,-11,-12
1526902884222637,-6,-11,-13,-3,-1,-1,-1,9
1526902884244578,3,-6,0,-3,-1,-2,2,16
1526902884244578,3,-12,4,3,-3,-1,0,5
1526902884245575,-7,22,0,-2,-1,0,7,-1
1526902884245575,-24,-15,-10,-2,-1,0,-2,-27
1526902884258541,2,10,6,-3,-2,-1,0,6
1526902884258541,31,6,-11,-2,2,0,0,14
1526902884266519,-70,-11,-1,1,-3,-3,-4,-14
1526902884266519,-29,-13,-19,-8,-2,-1,-3,8
1526902884281479,38,-14,8,-1,-2,0,1,-8
1526902884281479,-17,0,3,3,1,1,3,2
1526902884282477,45,8,-6,-6,-3,0,2,19
1526902884282477,17,18,14,7,2,1,-4,-22
1526902884304418,-35,-31,-9,0,0,-1,0,-7
1526902884304418,6,6,0,-6,2,-2,-3,4
1526902884305416,15,0,8,3,-12,-3,0,0
1526902884305416,-10,-20,-16,-4,-1,1,0,-9
1526902884318381,24,9,-9,-4,-1,-1,-1,12
1526902884318381,-12,5,12,1,-1,-3,-4,-16
1526902884326359,19,14,4,2,4,-2,1,8
1526902884326359,12,-7,-3,-3,-2,-3,4,1
1526902884342317,-19,-9,-9,-1,-3,-1,-10,-6
1526902884342317,-43,-11,-8,-5,-1,1,2,-4
1526902884342317,-39,-4,-6,-7,-2,-3,-5,-3
1526902884342317,35,25,15,4,2,2,2,0
1526902884364258,7,-10,-11,-3,-2,-3,2,7
1526902884364258,6,-9,0,0,-2,-2,0,0
1526902884365256,6,-2,3,1,3,2,0,1
1526902884365256,-21,0,-5,-1,-1,0,-3,-5
1526902884378221,16,-2,1,1,1,1,1,5
1526902884378221,9,11,-5,-4,-3,-2,-3,-20
1526902884386199,11,-4,-3,-3,0,1,9,34
1526902884386199,20,5,5,1,0,-4,-5,-2
1526902884401159,-10,-10,0,0,-9,0,-2,-4
1526902884401159,-2,-1,-1,-1,-2,-3,-2,-2
1526902884402157,6,6,3,0,6,4,3,-5
1526902884402157,-9,-24,-11,-1,2,-1,1,3
1526902884424098,10,26,14,3,-2,1,-2,-6
1526902884424098,0,-10,-4,1,-5,3,2,0
1526902884425096,-20,4,0,-1,-2,-1,-1,-5
1526902884425096,-9,-6,-3,-2,-2,-1,-2,-2
1526902884447037,11,0,-4,-1,3,2,2,2
1526902884447037,-2,16,7,4,3,-1,-7,-2
1526902884448034,-14,-2,2,4,0,-2,-1,-8
1526902884448034,-7,-10,3,0,-3,1,3,3
1526902884460999,-4,10,-8,-5,7,-3,-7,-12
1526902884460999,-1,-6,-8,-5,-12,-1,5,9
1526902884461997,43,0,5,3,-1,1,0,6
1526902884461997,-40,19,5,1,-4,-2,-4,-20
1526902884484935,-45,-20,-6,0,-1,-1,3,17
1526902884484935,48,-4,-3,-4,5,-1,-4,0
1526902884484935,37,9,7,4,2,1,1,0
1526902884484935,-51,-32,-17,-7,-4,0,2,-3
1526902884506877,49,5,-3,-7,-4,-6,-8,-2
1526902884506877,-19,9,9,5,3,-1,1,11
1526902884507874,-20,-8,-2,-3,-4,1,0,-7
1526902884507874,21,10,8,3,3,1,8,8
1526902884520839,-9,-18,-14,-13,-8,-6,-12,-6
1526902884520839,34,38,11,8,1,4,3,1
1526902884521836,-54,10,-11,-9,-7,-7,-10,-14
1526902884521836,35,-9,-7,-4,-1,-3,-8,-15
1526902884544775,-57,-16,2,-1,-1,0,10,-46
1526902884544775,35,-14,-13,-6,-6,-10,-9,45
1526902884544775,-25,-23,-1,-1,3,3,-1,-14
1526902884544775,-14,12,-5,-5,2,5,0,-1
1526902884566717,-48,-1,-7,-6,-8,-10,-7,-5
1526902884566717,26,2,12,8,4,5,5,-6
1526902884567714,25,4,-2,2,-2,-3,-2,-12
1526902884567714,27,-3,-2,0,-4,-2,-1,48
1526902884580679,-6,-38,4,8,6,7,-1,4
1526902884580679,-79,37,-6,-6,-3,-4,-3,14
1526902884589656,7,-10,-4,-5,-4,-6,-4,-8
1526902884589656,32,25,16,4,-9,1,3,-3
1526902884604615,3,-13,-5,-1,2,5,1,-2
1526902884604615,-24,-8,-5,-4,1,2,3,-14
1526902884605613,29,-32,-26,-6,-4,-3,1,39
1526902884605613,-40,41,6,-2,6,-5,-12,-29
1526902884626556,-20,18,12,8,-3,-2,9,8
1526902884626556,33,-17,0,-1,0,3,-5,-12
1526902884628552,-8,-4,-1,1,2,2,-1,-32
1526902884628552,28,-21,-8,-1,-1,-1,5,10
1526902884640519,44,17,4,1,-1,-2,-5,26
1526902884640519,-26,-1,-1,-1,2,1,1,-26
1526902884649495,12,-21,-1,1,1,0,-5,0
1526902884649495,51,57,1,0,1,0,3,21
1526902884664455,-38,12,5,2,-1,0,0,-5
1526902884664455,-15,-54,-12,-7,0,-2,-1,-8
1526902884666450,-2,31,14,2,1,3,3,-24
1526902884666450,3,-11,-13,-5,-3,-1,0,35
1526902884687394,41,-17,-2,0,3,-3,0,18
1526902884687394,-21,18,8,1,-3,-4,0,1
1526902884688392,-34,-9,-6,-2,-6,-6,-12,-35
1526902884688392,12,-1,4,2,-1,1,5,7
1526902884700359,-43,-2,-1,-1,-1,1,0,-2
1526902884700359,65,-8,-10,-3,-2,-1,1,7
1526902884709335,-64,21,7,1,1,1,2,10
1526902884709335,3,-3,2,-3,0,-1,-3,-34
1526902884724295,12,-6,1,2,1,3,0,3
1526902884724295,-7,-10,-4,-4,-4,-3,1,22
1526902884726290,28,10,1,3,3,0,2,9
1526902884726290,-25,-21,-7,-3,-3,-4,-8,1
1526902884747234,-9,-9,-9,-5,-3,-1,0,-4
1526902884747234,17,22,2,2,2,1,1,-14
1526902884748231,3,-1,-2,-2,-2,1,4,20
1526902884748231,8,-20,2,0,-2,0,-2,15
1526902884760199,-6,9,2,-1,-1,1,5,-4
1526902884760199,-69,-19,0,-3,-1,-6,-11,-27
1526902884769175,70,13,-2,-2,3,-1,1,4
1526902884769175,-107,-20,-7,0,1,-1,-2,-23
1526902884784135,27,4,13,4,2,1,1,15
1526902884784135,28,37,6,2,-1,2,6,13
1526902884786130,10,-2,12,5,1,0,-6,2
1526902884786130,26,-18,-7,0,-2,0,3,-4
1526902884807074,-50,17,-7,-6,-2,-2,-1,-4
1526902884807074,-58,-39,-18,-4,-3,-5,-6,-1
1526902884809069,31,2,4,-4,-3,-3,0,30
1526902884809069,6,10,8,3,1,1,2,-34
1526902884821036,17,5,-1,0,0,0,-3,2
1526902884821036,-26,2,6,1,0,0,-3,-14
1526902884830013,-56,1,-12,-5,-3,-1,-2,-15
1526902884830013,-16,-16,0,0,-1,-1,0,-9
1526902884843975,28,10,3,5,5,3,4,30
1526902884843975,-28,-30,-13,-3,-4,-5,-5,-41
1526902884845970,6,-17,-5,-4,-4,1,1,-3
1526902884845970,-7,12,13,3,1,0,-3,2
1526902884866914,38,0,2,1,1,1,1,-44
1526902884866914,-75,-33,-28,-11,-5,-5,-4,10
1526902884868909,39,8,1,-7,-1,0,-2,1
1526902884868909,29,5,2,-1,-2,0,-5,-14
1526902884880876,54,7,7,5,0,-1,5,54
1526902884880876,2,6,4,4,2,2,5,9
1526902884889853,21,-4,-7,-2,-2,2,5,15
1526902884889853,-59,-11,-11,-3,-1,0,-2,-7
1526902884904812,7,9,8,0,-2,-5,-5,-9
1526902884904812,54,2,8,4,2,1,-1,20
1526902884905810,1,2,-4,-1,-4,-4,3,-2
1526902884905810,32,-11,1,1,-1,1,4,60
1526902884926754,-87,-14,-18,-13,-2,-1,-3,-19
1526902884926754,68,51,-9,-1,1,-1,2,38
1526902884928749,-61,-23,29,14,2,-2,-4,-27
1526902884928749,38,12,3,2,0,-2,-4,-22
1526902884940716,11,-1,3,4,-1,-1,-3,-3
1526902884940716,-13,-9,-11,-6,-4,-2,-3,-17
1526902884949693,-34,-10,-15,-7,-3,-3,-4,-5
1526902884949693,-25,10,10,5,3,1,3,-2
1526902884964652,39,0,-3,1,1,0,-1,1
1526902884964652,-7,-28,6,0,-1,2,3,8
1526902884965650,22,22,-24,-7,-2,-2,-3,-1
1526902884965650,-19,-24,-2,-2,-3,0,6,2
1526902884986594,37,19,8,3,-2,-1,-2,-10
1526902884986594,-38,-11,0,-2,-1,-2,-8,-35
1526902884988588,-4,-8,14,0,1,2,5,37
1526902884988588,9,-5,-14,-5,-2,-1,-2,-11
1526902885000556,-27,5,0,4,-2,-2,-4,-29
1526902885000556,50,13,10,4,2,1,-3,-22
1526902885009533,-40,-8,-1,0,2,2,7,6
1526902885009533,44,1,-8,-5,-1,-5,-6,-15
1526902885024492,-21,-2,1,-2,-2,-1,-2,-8
1526902885024492,22,-8,-3,2,-1,-2,-1,-2
1526902885026487,-20,25,16,3,0,-3,-1,-9
1526902885026487,39,-6,1,-1,0,4,1,14
1526902885047431,-2,23,-1,-1,-2,1,4,10
1526902885047431,30,4,-14,-2,-2,-2,-3,22
1526902885053415,-26,-13,-2,3,-1,-2,-5,-27
1526902885053415,-23,8,6,-3,-3,-3,-7,-34
1526902885060396,18,-22,-2,-3,-2,-3,-2,28
1526902885060396,76,45,15,3,-2,0,5,31
1526902885069372,48,-8,-10,-1,-2,2,11,27
1526902885069372,2,1,-15,-1,-1,-2,-2,-7
1526902885084332,-18,-19,10,-2,3,1,-5,-37
1526902885084332,-12,-2,0,1,-8,-4,11,66
1526902885086327,-62,-20,-4,-1,0,-2,-13,-36
1526902885086327,22,4,-2,-4,-3,-1,2,5
1526902885107271,12,15,-1,-2,1,-2,-3,-8
1526902885107271,-47,-29,1,1,1,3,2,-4
1526902885108268,36,30,-4,-6,-3,-1,2,3
1526902885108268,-57,-5,-2,-1,1,2,2,-16
1526902885120236,-14,-22,-6,5,-3,-5,-9,-25
1526902885120236,-33,-10,-1,-6,-1,-3,-6,-20
1526902885129212,24,33,14,2,0,-1,-1,18
1526902885129212,37,13,3,1,1,-2,-2,3
1526902885144172,4,2,-5,-3,-1,-1,3,8
1526902885144172,-21,-8,2,0,-1,-5,-3,-13
1526902885146167,-25,-4,-8,-3,1,2,-4,-37
1526902885146167,11,-14,0,0,-1,3,5,27
1526902885167111,54,45,4,0,-1,-2,-4,5
1526902885167111,-56,-12,-2,2,2,0,-4,-27
1526902885169106,49,-4,-1,1,-1,-1,1,7
1526902885169106,-12,-25,-1,-1,-1,0,0,-4
1526902885181074,1,18,-4,-1,-3,0,2,13
1526902885181074,11,12,7,-1,1,1,-1,-1
1526902885190050,16,-5,-9,-2,-2,-2,-3,-3
1526902885190050,-28,2,6,2,-1,-1,-1,-16
1526902885203015,-39,-26,-8,-6,-3,-1,-1,14
1526902885203015,33,11,2,1,10,0,-3,-14
1526902885211991,-18,-2,-2,-3,-11,-2,1,1
1526902885211991,-3,4,-6,-2,0,-3,-1,-1
1526902885226951,-16,-15,1,-4,1,-1,3,5
1526902885226951,15,15,12,5,6,1,-2,-1
1526902885228946,-16,-29,-21,-9,-13,-5,-6,-13
1526902885228946,-1,5,3,-6,-5,-1,-1,5
1526902885240913,4,1,8,11,-11,-1,2,6
1526902885240913,18,-4,-2,1,15,5,6,-3
1526902885249890,16,9,5,2,4,-3,-4,10
1526902885249890,-12,-4,-10,-4,-1,-2,-21,-8
1526902885262855,21,-7,-6,-8,-5,-1,3,27
1526902885262855,-17,-10,-2,0,-6,-2,-5,-4
1526902885271831,-2,3,5,2,2,-6,-3,-6
1526902885271831,-7,-2,-3,2,-8,6,14,5
1526902885286791,-7,-21,-9,-7,24,-7,-5,-3
1526902885286791,16,33,-11,0,-3,5,8,-2
1526902885288785,-2,-13,19,6,6,2,1,1
1526902885288785,-3,3,0,2,-7,-7,-6,-1
1526902885300753,-1,-5,-7,-1,-6,0,3,-1
1526902885300753,11,-10,-10,-10,-8,-1,-1,-2
1526902885309730,-3,4,4,-6,0,0,-3,0
1526902885309730,27,15,-2,1,4,0,6,5
1526902885322695,-3,-5,12,5,-2,2,-2,-5
1526902885322695,-2,-4,-2,1,-1,-1,-3,-3
1526902885331671,-35,-40,0,4,3,5,4,4
1526902885331671,-23,35,-4,-4,-2,-8,-10,-17
1526902885346631,2,7,-1,-5,-2,2,2,2
1526902885346631,4,-4,5,1,-5,-2,-4,-4
1526902885348626,8,-8,-2,-1,0,2,5,4
1526902885348626,-29,-21,-17,-10,1,-1,-1,-6
1526902885360593,3,8,9,11,0,-1,2,2
1526902885360593,-10,-13,7,1,6,-1,-4,-4
1526902885369570,13,19,-2,2,-8,0,2,5
1526902885369570,2,-15,3,3,5,1,-2,4
1526902885383532,4,22,-5,-6,-5,0,-3,-5
1526902885383532,18,-9,-3,-7,0,-4,-2,-2
1526902885392508,2,9,1,3,0,-1,-10,-13
1526902885392508,24,0,3,2,-2,2,5,6
1526902885407468,-25,-21,-11,-2,0,-3,-4,-12
1526902885407468,-22,-1,5,0,-5,0,-1,-3
1526902885408466,15,25,4,4,6,0,-1,-8
1526902885408466,5,-5,1,0,-2,-2,0,3
1526902885429409,-2,11,-4,-4,-3,-4,-7,-8
1526902885429409,-11,1,-6,-8,-6,-2,6,9
1526902885431404,24,3,0,-1,-1,-1,-2,0
1526902885431404,-31,-17,-1,1,3,-1,-2,-10
1526902885443372,-20,-5,-2,-1,2,4,8,13
1526902885443372,14,9,-2,0,-4,-2,-1,-15
1526902885452348,3,-22,-4,-6,-1,-1,-1,15
1526902885452348,31,9,-25,-1,-1,-5,0,2
1526902885467308,11,20,37,8,8,4,1,4
1526902885467308,14,-18,-5,-1,-2,5,5,-6
1526902885468306,-69,21,2,1,1,-2,-3,-10
1526902885468306,22,-23,-7,-2,-1,0,-3,-6
1526902885489249,-4,-15,-13,-4,-2,1,-1,-5
1526902885489249,-15,16,6,7,13,2,0,9
1526902885491244,-46,-41,-10,-7,-15,-7,-7,-12
1526902885491244,-12,6,7,-2,1,1,1,10
1526902885503212,-12,-8,-13,-3,-4,-2,1,-5
1526902885503212,30,-1,14,6,4,2,1,4
1526902885512188,0,1,-16,-5,-4,-5,2,4
1526902885512188,5,23,6,-2,-6,0,0,5
1526902885527148,4,-14,-5,-2,-1,0,0,12
1526902885527148,-2,2,-9,-5,-10,-1,-2,-2
1526902885528146,55,-25,3,3,3,-1,-1,1
1526902885528146,-20,-23,4,7,4,4,5,5
1526902885549089,-66,29,7,-4,-3,-6,-7,-20
1526902885549089,14,-8,-8,-9,-7,-4,-4,5
1526902885551084,-11,27,10,6,4,2,2,-5
1526902885551084,13,-25,4,2,0,2,1,2
1526902885563052,10,-18,-15,-5,-3,-1,2,4
1526902885563052,-19,-19,-12,0,-3,-2,-5,-13
1526902885572028,-6,17,4,-2,1,-2,-2,-1
1526902885572028,4,4,16,2,0,-3,1,1
1526902885586988,82,37,0,-2,-2,0,1,19
1526902885586988,-53,-31,-2,-1,-3,-3,-3,-15
1526902885588983,31,-11,-5,0,2,2,4,29
1526902885588983,-6,22,-2,-2,-2,-1,0,-23
1526902885608929,-14,-17,-9,-4,0,0,0,-8
1526902885608929,13,-2,4,-1,0,2,0,11
1526902885610924,21,-18,-2,-1,4,4,4,-3
1526902885610924,-2,28,5,-2,-1,-4,-5,-5
1526902885622892,11,-3,2,5,-2,-1,1,21
1526902885622892,-25,-3,-4,1,-4,-1,-1,-20
1526902885631868,-22,-24,-9,-2,-1,1,-3,-30
1526902885631868,76,39,6,1,0,0,0,38
1526902885646828,-48,-42,-3,0,-1,-4,-7,0
1526902885646828,94,103,20,5,0,-2,0,15
1526902885648823,-6,0,-3,-1,0,-1,-3,-32
1526902885648823,-67,-83,-21,-5,-2,-3,-3,-5
1526902885669766,76,66,16,2,0,0,3,2
1526902885669766,-25,-10,-4,-4,-3,-3,-8,-2
1526902885670764,8,-12,1,-1,1,0,3,-3
1526902885670764,-5,3,4,1,0,0,-2,-1
1526902885682732,-22,-4,-12,-5,1,0,2,0
1526902885682732,-49,-17,-17,-7,-3,-4,-5,-16
1526902885691708,13,19,15,3,-1,0,3,18
1526902885691708,-20,-11,-5,0,-1,-2,0,2
1526902885706668,61,-6,11,8,2,0,-6,-18
1526902885706668,-8,-23,-10,-3,-1,-1,4,28
1526902885708663,-14,23,-19,-12,-5,-1,5,13
1526902885708663,-10,-16,1,-1,-2,1,0,22
1526902885729607,60,10,1,0,0,-1,-2,-16
1526902885729607,-8,6,5,2,6,4,3,-1
1526902885730604,-43,-9,-7,-5,-2,-1,-8,-25
1526902885730604,36,13,3,0,-14,-4,2,3
1526902885743569,-49,-29,-7,-4,-3,3,3,19
1526902885743569,22,-28,-3,-1,0,-2,5,2
1526902885752545,83,74,13,8,2,0,1,-9
1526902885752545,-13,5,-8,-8,4,0,-4,-2
1526902885766508,-50,-19,-2,4,0,0,-4,-15
1526902885766508,50,18,15,4,-6,-4,-3,9
1526902885768503,-85,-20,-6,2,3,0,-10,-32
1526902885768503,60,16,-22,-7,0,0,-4,-10
1526902885789446,-5,14,16,0,2,3,4,21
1526902885789446,-23,4,15,6,2,1,1,-11
1526902885791442,9,-11,0,1,-3,-2,-1,25
1526902885791442,-7,12,7,4,2,-1,-1,-24
1526902885803409,-28,-32,-17,-6,-4,-2,-2,1
1526902885803409,-1,30,-5,-3,-1,-1,3,16
1526902885812385,24,-13,-5,-2,0,1,1,-12
1526902885812385,-19,4,7,-1,-1,0,3,47
1526902885827345,-18,8,-6,1,-1,-3,-6,-16
1526902885827345,38,2,-1,0,-2,2,3,13
1526902885828343,30,1,-8,-2,-2,-2,0,11
1526902885828343,-5,-19,5,3,3,-1,-5,-24
1526902885849287,61,-10,0,-1,1,-2,2,9
1526902885849287,-29,6,6,-1,-1,-1,-5,8
1526902885851281,16,9,-10,-5,-4,-2,-1,5
1526902885851281,-23,-9,6,-5,1,-5,-2,-12
1526902885863249,1,6,5,2,-2,5,2,-5
1526902885863249,-12,-27,8,4,5,-1,-4,-12
1526902885872226,19,7,-13,-2,-5,1,6,8
1526902885872226,-66,22,21,3,2,0,-2,-24
1526902885887185,-26,-4,-5,0,-3,-4,0,12
1526902885887185,5,-8,-4,-1,0,-2,-11,-73
1526902885888182,59,-12,-2,-1,1,-2,4,25
1526902885888182,-28,-14,-9,-1,-3,0,4,-6
1526902885909126,22,16,-1,-6,-2,-3,-13,-4
1526902885909126,-24,-23,-12,-5,-5,-1,1,4
1526902885911121,-29,-2,3,-2,2,0,-5,-17
1526902885911121,46,3,-4,0,-3,1,3,14
1526902885923089,-1,25,11,5,1,2,7,-7
1526902885923089,-16,-11,-10,-4,-2,-2,2,5
1526902885932066,2,-1,1,2,-2,-2,-4,10
1526902885932066,9,-9,-6,-4,-2,0,-1,-9
1526902885947025,-76,-17,-15,-4,0,-1,0,-2
1526902885947025,24,-6,15,4,-2,-4,-4,9
1526902885949020,-22,45,-2,-2,-1,-3,1,5
1526902885949020,10,3,-5,-4,2,-1,0,-12
1526902885969964,-42,-15,-1,1,7,2,-2,-5
1526902885969964,10,-5,-5,-2,-9,3,2,9
1526902885970962,7,-7,12,3,0,-1,-3,-2
1526902885970962,14,1,-9,0,-2,-4,0,-7
1526902885982929,8,-8,-1,-3,-1,-2,3,17
1526902885982929,-2,0,-2,-1,2,-1,-2,2
1526902885991905,-25,-9,4,-2,0,0,-1,-6
1526902885991905,30,10,2,3,0,0,1,8
1526902886006865,4,-14,-6,-5,-13,-4,-3,-9
1526902886006865,-11,7,4,1,2,-1,-3,-5
1526902886008860,-1,-26,-3,4,6,2,4,4
1526902886008860,-21,51,-2,-4,-1,1,-2,-2
1526902886029804,8,-2,13,4,0,-2,1,-2
1526902886029804,-9,7,-4,2,-5,-2,0,4
1526902886030801,-27,-18,-5,-9,-4,0,1,-2
1526902886030801,24,-8,5,5,7,3,1,13
1526902886042769,100,9,-6,-2,-3,-3,-1,5
1526902886042769,-86,-25,-17,-12,-6,-8,-13,-39
1526902886051745,18,1,9,7,1,-1,-7,-10
1526902886051745,-21,-19,-8,-5,-3,1,0,-20
1526902886066705,13,-3,-3,-2,-1,-1,0,6
1526902886066705,13,-5,2,0,2,2,2,6
1526902886068700,-15,0,-2,-6,-2,-2,1,-4
1526902886068700,-10,-5,-18,1,-3,-3,-4,-19
1526902886089643,22,26,27,4,2,-1,2,18
1526902886089643,-8,1,1,3,3,2,3,1
1526902886090641,-1,7,-1,-1,-4,-4,-3,-8
1526902886090641,-1,-14,2,2,0,1,0,5
1526902886102609,-41,2,-8,-3,4,3,2,2
1526902886102609,29,4,-6,-2,-1,1,1,-2
1526902886112582,-45,-11,4,0,-1,0,2,3
1526902886112582,28,17,11,3,-2,-3,-1,8
1526902886126545,-7,-13,-10,-5,-3,-3,-1,-9
1526902886126545,14,14,5,0,0,-1,1,13
1526902886128540,18,-5,-4,1,1,0,-3,-16
1526902886128540,-39,-6,5,5,2,2,3,24
1526902886149484,-20,33,-18,-7,-4,-3,-5,1
1526902886149484,16,-20,-6,-3,10,0,2,11
1526902886151479,47,22,0,1,-12,-5,0,8
1526902886151479,2,-22,9,5,3,-2,-10,-10
1526902886163446,-9,-9,-8,-3,1,-1,-1,-17
1526902886163446,24,29,6,4,-1,-5,-8,1
1526902886172423,21,16,8,0,2,1,3,15
1526902886172423,-19,-44,-13,-6,-3,0,-1,-9
1526902886187382,4,3,4,2,0,-1,2,5
1526902886187382,11,-3,-1,-3,-5,1,3,0
1526902886188380,-18,-2,-4,-3,-4,-1,-2,-6
1526902886188380,5,33,-4,-1,-2,0,-1,1
1526902886209323,6,-12,2,-1,1,-5,-4,-1
1526902886209323,-23,-2,-4,0,-4,2,0,2
1526902886211318,5,12,4,1,1,2,2,3
1526902886211318,-8,-22,-14,-6,-3,-1,0,8
1526902886223286,-11,-1,16,1,-2,-6,-7,-12
1526902886223286,5,17,-3,-2,1,2,1,-2
1526902886232263,1,-10,-6,4,4,2,1,2
1526902886232263,14,-14,8,2,1,1,0,5
1526902886246225,-52,-19,-10,-3,-4,-2,-6,-10
1526902886246225,-9,8,7,1,-2,-3,1,15
1526902886253206,-1,-17,-6,-3,1,0,1,-4
1526902886253206,-39,24,6,-2,-2,-7,-13,-37
1526902886269164,-16,-13,-1,1,0,2,3,-10
1526902886269164,-8,-19,-4,1,-1,1,2,32
1526902886271159,0,16,-1,0,0,-1,-3,-1
1526902886271159,3,-4,1,-3,-1,2,7,1
1526902886283126,17,-7,-5,0,1,1,-6,-7
1526902886283126,22,-8,0,5,3,1,1,13
1526902886292102,-28,-11,-1,-1,0,-1,2,-23
1526902886292102,33,-6,7,-1,-4,-4,-2,18
1526902886306065,-9,16,-2,-2,0,0,1,-3
1526902886306065,-5,-6,-13,-6,-4,-1,4,-1
1526902886313046,15,-7,-6,-3,-2,-4,-7,26
1526902886313046,39,-7,3,1,0,1,4,20
1526902886329003,-25,1,-4,-1,-1,-1,-5,-21
1526902886329003,-10,-14,-2,-1,0,-1,0,-18
1526902886330998,0,32,4,-4,-4,-1,2,17
1526902886330998,24,14,-2,-3,-3,-2,-2,-2
1526902886351942,30,-11,4,4,1,1,0,24
1526902886351942,13,0,1,-2,-2,0,0,-32
1526902886353937,-38,-14,-13,-5,-4,-3,-7,-22
1526902886353937,-46,-19,8,5,3,1,3,34
1526902886365905,30,45,-4,-5,-6,-3,2,-3
1526902886365905,34,14,3,-5,-2,0,1,-4
1526902886372886,32,8,5,11,8,5,7,20
1526902886372886,-105,-20,-5,-5,-3,-3,-2,-14
1526902886389841,-21,-25,-4,-2,-1,-2,-2,-6
1526902886389841,6,-3,-4,-1,-1,-1,-2,5
1526902886390838,-9,-9,2,-4,-2,-2,2,18
1526902886390838,-11,-6,-19,-4,1,-1,-5,-47
1526902886411782,41,25,19,6,2,3,8,27
1526902886411782,5,-7,-2,-3,-3,-2,0,3
1526902886413777,47,1,2,1,0,-1,-2,-2
1526902886413777,-80,2,-3,0,-2,1,4,-29
1526902886426742,-11,4,-9,-5,-2,-2,-10,-19
1526902886426742,-37,-5,-2,0,2,1,4,17
1526902886432726,-15,-1,3,-2,-5,-5,-8,-25
1526902886432726,74,25,-1,1,2,3,-2,-19
1526902886449681,7,-28,-4,1,-1,1,10,76
1526902886449681,-59,33,-2,-4,-1,-3,-3,-15
1526902886450678,-4,2,12,2,4,4,3,-24
1526902886450678,86,8,-2,0,-2,-3,-1,30
1526902886471622,65,-28,-7,-7,-3,-1,-1,-17
1526902886471622,-50,-3,-6,0,-4,-5,-10,-39
1526902886473617,0,-14,-1,-4,1,2,6,20
1526902886473617,-55,-4,-4,-2,-1,-1,0,-5
1526902886486582,5,-50,5,2,1,4,4,-4
1526902886486582,42,10,3,-4,-4,-7,-11,9
1526902886493563,-43,-11,-2,-1,-1,-3,-10,-25
1526902886493563,3,24,12,3,1,0,0,-4
1526902886509521,-13,2,-12,-5,-3,-6,-6,-8
1526902886509521,-12,-50,-1,4,5,6,2,-15
1526902886511516,-40,4,-5,-3,-3,-1,-2,-23
1526902886511516,19,23,5,-1,0,-1,2,10
1526902886532459,-2,7,-2,1,1,0,0,-8
1526902886532459,-11,3,2,1,-1,-4,-8,-21
1526902886533457,-3,-31,-3,-2,1,2,-1,-12
1526902886533457,-4,4,0,3,2,2,5,11
1526902886546422,21,-2,-14,-5,-1,1,7,32
1526902886546422,11,23,12,4,0,1,1,1
1526902886553403,27,-11,-1,-2,-2,2,4,15
1526902886553403,-59,16,1,0,-2,-1,-8,-37
1526902886569361,-72,-17,-5,-4,1,0,-3,-33
1526902886569361,120,5,1,0,1,1,2,27
1526902886571356,-47,34,0,-3,-5,-5,-4,-4
1526902886571356,127,29,6,4,0,0,1,-8
1526902886592300,-37,-21,-11,-6,-4,-3,-1,45
1526902886592300,-2,-41,-9,-3,-1,5,11,-4
1526902886593297,48,57,17,1,-2,-4,2,33
1526902886593297,36,-6,-8,-4,-2,-1,0,12
1526902886605265,-9,32,18,7,-1,-2,-5,-19
1526902886605265,5,-14,-10,-6,-3,-4,-1,6
1526902886614241,-10,-26,-6,3,3,4,1,18
1526902886614241,-60,-33,4,0,-1,-1,1,-12
1526902886629201,18,10,-16,-6,-4,-5,-7,-46
1526902886629201,-50,-3,-2,-3,4,-3,0,-4
1526902886631196,18,-6,-3,0,-4,0,4,-8
1526902886631196,11,-17,-2,-2,-7,-3,-6,2
1526902886652139,37,5,6,4,2,3,-5,2
1526902886652139,3,25,2,-1,-4,-5,-4,-11
1526902886653137,-18,-29,-16,-2,3,1,2,-14
1526902886653137,-6,4,2,-3,-2,-4,-1,16
1526902886666102,11,1,2,3,1,2,6,10
1526902886666102,-71,-37,13,6,4,1,-4,-20
1526902886675078,9,32,-9,-2,0,2,0,-5
1526902886675078,44,-2,-9,-5,1,-1,0,17
1526902886689040,-57,-16,4,2,-5,-4,-4,-22
1526902886689040,10,-4,1,-1,-1,3,5,26
1526902886691036,35,-3,-4,3,29,8,1,-27
1526902886691036,-8,-31,3,1,-29,-6,-1,-31
1526902886711979,67,44,10,-3,1,7,1,55
1526902886711979,13,-14,-11,-4,-2,-14,0,8
1526902886713974,-43,-4,7,-2,6,-6,-4,-18
1526902886713974,64,3,5,2,10,12,5,51
1526902886725942,-64,19,-4,-1,-6,-5,1,-12
1526902886725942,42,-11,0,-4,-7,6,4,21
1526902886734918,93,22,-4,-3,1,-11,2,25
1526902886734918,-68,-42,-11,-3,-9,-4,-2,14
1526902886749878,22,7,9,4,29,4,-3,-20
1526902886749878,32,50,2,1,-22,2,0,4
1526902886750875,-77,-44,-7,-7,-18,1,-7,-19
1526902886750875,29,8,-1,-1,32,-6,-2,-12
1526902886771819,-5,6,0,-2,-20,0,1,2
1526902886771819,1,18,-5,-2,0,10,-6,-23
1526902886773814,-2,-21,12,4,-11,-4,2,-7
1526902886773814,-60,25,7,3,15,9,2,-25
1526902886785782,83,-34,0,1,-1,-4,-2,10
1526902886785782,-3,29,-4,0,11,-3,-4,1
1526902886794758,-13,26,6,3,12,4,-6,-34
1526902886794758,52,-4,2,0,-18,1,5,28
1526902886809718,-18,-13,-13,-7,-15,-11,-6,-42
1526902886809718,9,-13,-1,-6,1,-11,6,35
1526902886810716,60,-10,8,6,9,2,4,22
1526902886810716,-81,10,-4,0,3,6,0,-19
1526902886831659,29,-11,0,2,-3,2,3,25
1526902886831659,62,-31,-2,0,-10,2,6,32
1526902886833654,12,21,-11,-13,-11,-4,-12,-33
1526902886833654,6,-19,-6,-7,-2,-4,-3,-13
1526902886845622,-4,19,3,5,1,4,6,9
1526902886845622,-38,-5,-5,-4,10,-1,-3,-27
1526902886854598,-17,2,2,2,-6,-2,2,24
1526902886854598,-69,-34,-7,-3,-10,-5,-16,-50
1526902886869558,80,19,18,11,13,7,13,30
1526902886869558,-86,46,-10,-8,-8,-11,-18,-52
1526902886871553,-1,-57,-23,-5,-10,-7,-4,-6
1526902886871553,23,28,7,0,2,-5,-3,-1
1526902886891499,10,-15,0,0,0,4,-1,4
1526902886891499,-45,-43,-4,3,2,-1,6,-9
1526902886893494,-80,24,-2,-1,-10,2,-15,-55
1526902886893494,104,44,2,-3,-2,-6,8,68
1526902886905462,-98,-65,5,3,12,1,20,-32
1526902886905462,72,63,2,-1,-5,-4,-14,16
1526902886914438,-20,-10,7,3,-8,11,5,15
1526902886914438,-18,-62,-19,-2,4,0,3,-36
1526902886929398,-31,41,-12,-16,-21,-14,-19,11
1526902886929398,-4,-34,0,3,9,-1,3,-12
1526902886931393,80,69,0,-7,4,-12,3,-5
1526902886931393,28,-22,-12,-4,-22,-4,-6,-5
1526902886952337,64,28,11,4,2,2,5,39
1526902886952337,47,1,-1,-1,3,4,21,11
1526902886953334,-28,-20,-4,0,5,0,-25,10
1526902886953334,71,-8,-10,-3,10,3,10,53
1526902886977270,-39,-17,-3,2,4,3,-6,-34
1526902886977270,-3,25,9,0,-14,-4,-2,13
1526902886979265,29,42,23,8,3,2,15,39
1526902886979265,-17,16,-3,-3,0,5,-4,-43
1526902886981259,-61,-28,-15,-5,0,-3,-3,-19
1526902886981259,0,-45,-10,-4,2,5,0,20
1526902886990235,-1,-37,-8,-3,-7,-10,-2,9
1526902886990235,-60,20,10,5,14,1,-6,-14
1526902887004198,15,11,-7,-5,-14,-8,-1,11
1526902887004198,9,-6,12,5,6,9,8,36
1526902887004198,10,-5,0,0,-1,-1,-6,-56
1526902887004198,-116,10,-10,-6,-7,-7,-6,44
1526902887018161,-5,-50,-14,-7,0,-2,-4,-1
1526902887018161,-47,23,-7,-4,-3,-9,-12,12
1526902887025142,-85,-62,-15,-5,-5,-3,0,5
1526902887025142,52,-36,-4,-2,0,2,5,0
1526902887041099,-35,9,0,-1,1,-2,-1,1
1526902887041099,53,-9,6,6,19,5,-2,-44
1526902887049078,-33,-4,-3,-8,-22,2,4,30
1526902887049078,2,-8,9,4,0,-1,4,1
1526902887064038,4,-7,1,-1,1,-7,-7,-13
1526902887064038,-94,-13,-8,-4,0,3,-2,-21
1526902887065035,60,24,7,5,19,5,7,46
1526902887065035,35,9,6,2,-24,-7,0,13
1526902887078001,4,-12,-1,1,3,-1,0,-41
1526902887078001,14,-5,-3,-1,-7,-1,-1,20
1526902887085979,52,12,4,1,4,3,6,-7
1526902887085979,-39,0,0,-2,2,-2,0,2
1526902887100940,0,3,9,5,10,8,-2,31
1526902887100940,47,31,2,0,-6,-7,-1,-9
1526902887108918,-17,-12,-3,-2,1,-1,-1,-13
1526902887108918,-40,-26,4,-1,11,6,2,26
1526902887123878,39,54,1,0,-23,-4,-6,-15
1526902887123878,10,-15,-2,-2,2,2,6,15
1526902887124876,11,30,11,1,-3,4,-1,-13
1526902887124876,43,30,-2,-3,4,-3,0,8
1526902887137840,8,3,-12,-5,-4,-4,-6,-2
1526902887137840,-7,5,9,4,4,9,3,-15
1526902887145819,23,-24,-9,-4,-3,-2,8,34
1526902887145819,-54,-13,-9,-3,-12,-4,-13,-24
1526902887160779,-14,-4,-8,-7,2,-2,10,4
1526902887160779,30,7,2,2,-4,-7,-4,-19
1526902887168758,54,-8,1,6,7,5,7,49
1526902887168758,82,6,-1,-2,3,-6,-9,-6
1526902887183718,-13,-2,-4,-3,0,-2,2,25
1526902887183718,-37,-10,-2,-1,6,1,0,-14
1526902887184716,-41,-16,-8,-2,-5,-3,3,-9
1526902887184716,34,18,11,0,-2,1,7,14
1526902887197680,12,46,7,5,0,0,-3,-9
1526902887197680,-48,-7,-5,-4,-3,-2,-1,0
1526902887205659,15,-65,-18,-5,-2,0,0,-10
1526902887205659,-73,67,19,7,1,0,-4,2
1526902887220619,-3,-8,9,1,2,-1,-6,-15
1526902887220619,-18,-12,-3,-3,-3,-2,-5,-20
1526902887228598,-36,3,4,4,0,1,0,-30
1526902887228598,21,2,-1,0,-3,-5,-4,18
1526902887243558,-5,33,8,3,11,-2,-2,8
1526902887243558,1,10,-1,-2,-7,1,-1,14
1526902887244555,-20,-7,-2,-4,-8,0,7,4
1526902887244555,8,-16,1,1,-3,4,-1,-34
1526902887258518,48,-8,-3,-1,5,-9,2,33
1526902887258518,-33,-7,1,0,-4,-2,-5,-36
1526902887265499,48,35,1,-2,10,0,1,32
1526902887265499,4,-24,-9,-3,-6,-6,1,-10
1526902887280459,18,-11,3,5,-2,2,-5,-1
1526902887280459,-4,3,5,2,2,-1,-2,-21
1526902887288438,-18,-15,-3,-6,-7,-8,-10,-45
1526902887288438,36,10,3,2,6,2,4,37
1526902887303397,-32,-22,-5,-1,2,1,-3,-17
1526902887303397,22,-15,-1,1,2,-1,7,42
1526902887311376,0,23,-9,-8,-4,0,-1,-7
1526902887311376,-4,7,1,2,-3,-4,-1,-17
1526902887318358,-33,-22,-1,-4,-3,0,-3,-29
1526902887318358,35,22,0,-1,0,0,5,31
1526902887325339,13,-19,-4,2,-4,-4,-5,8
1526902887325339,-16,26,-9,-3,-2,-3,-2,6
1526902887340299,-60,-37,-8,-4,0,4,1,3
1526902887340299,36,30,6,-1,-4,-4,-9,-24
1526902887349275,7,2,-2,-1,5,-2,-3,15
1526902887349275,-72,-34,-10,-4,-4,-1,1,-12
1526902887364235,57,49,3,1,-8,-3,0,2
1526902887364235,24,-9,0,-1,-7,0,2,0
1526902887371216,7,1,-7,-2,1,-3,-3,23
1526902887371216,-29,-6,4,2,8,-2,2,-14
1526902887378198,48,8,1,-2,-7,3,-1,4
1526902887378198,12,-31,-9,-2,1,-1,-1,-12
1526902887385179,29,20,12,4,-1,-2,-1,2
1526902887385179,-6,-4,-8,-4,-2,1,-1,-22
1526902887400139,31,15,0,-4,-3,-3,2,23
1526902887400139,-5,-18,-8,1,2,-4,-8,-56
1526902887409115,-21,17,3,-4,-14,0,-1,28
1526902887409115,48,19,10,4,3,6,4,8
1526902887423078,-82,-11,-4,-1,1,-2,-8,0
1526902887423078,-50,-17,-9,-4,-3,2,5,70
1526902887431056,-11,-7,-1,0,4,4,0,-13
1526902887431056,14,1,-3,0,-18,-14,-3,-3
1526902887438037,-52,-51,-9,-3,-1,1,-2,27
1526902887438037,16,38,2,2,3,-2,12,-15
1526902887446016,-28,0,11,1,-3,-2,1,-10
1526902887446016,36,0,5,2,6,8,5,4
1526902887460976,-16,-12,-1,-1,7,-1,-18,-12
1526902887460976,1,6,-1,1,-14,-5,-9,-24
1526902887468955,0,1,-5,1,8,-1,1,-8
1526902887468955,-10,-28,-5,-5,-8,0,-2,-3
1526902887482918,-2,10,3,2,-1,3,8,-5
1526902887482918,42,17,2,0,8,0,-2,12
1526902887490896,-2,3,3,0,-15,-2,8,45
1526902887490896,14,-31,0,0,7,1,-2,57
1526902887497878,7,33,-7,-2,0,1,2,-7
1526902887497878,-48,-2,6,-2,-1,2,0,-2
1526902887505856,27,-3,1,-1,2,0,-3,-13
1526902887505856,7,3,-5,1,0,-5,-8,-12
1526902887520816,14,-21,-1,1,-1,3,0,-35
1526902887520816,56,24,2,-4,0,-2,-2,30
1526902887528795,-9,4,-5,0,-1,-2,1,-18
1526902887528795,16,3,-5,-5,-1,0,0,-7
1526902887542758,8,-12,2,1,0,0,2,-19
1526902887542758,6,-20,0,1,1,-1,-3,10
1526902887551734,9,-11,-10,0,2,-2,-8,-27
1526902887551734,34,47,6,6,8,0,-8,-4
1526902887566693,-40,-10,1,0,-5,-2,2,-1
1526902887566693,9,-12,-4,-2,2,2,2,-6
1526902887566693,-73,-12,-10,-6,-7,-5,-8,-28
1526902887566693,-15,-18,-4,-3,3,0,-1,-23
1526902887580656,21,26,3,-1,3,-3,-2,16
1526902887580656,-13,-15,-3,2,-5,-3,-2,2
1526902887588635,-16,5,6,-2,-1,-2,-2,-23
1526902887588635,-10,-9,-2,-1,0,-1,-4,-13
1526902887603595,-6,7,-1,-2,18,4,6,-7
1526902887603595,-12,-10,-6,-4,-16,-8,-13,5
1526902887611574,4,-15,-5,2,4,4,-7,-22
1526902887611574,-1,23,11,-1,-2,2,-2,17
1526902887626533,-4,-15,-3,-2,-1,0,14,-2
1526902887626533,-13,4,-1,-1,5,3,2,-12
1526902887627531,11,5,3,-1,-16,-5,10,6
1526902887627531,5,-8,-7,-1,38,0,-16,-5
1526902887640496,-4,-4,3,2,-7,2,-3,17
1526902887640496,-4,12,6,4,4,-1,1,-18
1526902887648475,27,-19,-9,-2,-3,3,0,19
1526902887648475,-22,19,-4,-6,-13,-4,5,-6
1526902887663435,17,-1,5,0,-4,-5,-3,8
1526902887663435,-16,-15,-7,-4,-2,-2,-1,-7
1526902887671413,-27,-20,-4,0,6,3,1,1
1526902887671413,17,21,-3,-2,-9,0,2,9
1526902887686373,7,-12,-1,-1,-2,-2,-4,-11
1526902887686373,-44,-4,5,2,-1,3,2,-5
1526902887687371,11,14,1,0,6,-2,-1,14
1526902887687371,6,-34,-7,-1,-7,1,6,18
1526902887700336,-46,-1,-1,-2,-6,-1,-3,-25
1526902887700336,7,3,-1,-5,7,-7,-1,20
1526902887709312,-3,-4,1,0,-4,-1,2,-7
1526902887709312,13,20,2,0,-1,4,3,2
1526902887723275,22,2,1,-2,-4,-3,-2,6
1526902887723275,-12,-16,-9,-5,-2,0,-2,-16
1526902887731253,22,13,8,5,1,-1,1,8
1526902887731253,-85,-31,-5,-4,-9,-3,-6,-16
1526902887746213,40,9,-3,-1,-2,-2,-4,-2
1526902887746213,-15,-2,-2,-1,0,0,-1,-15
1526902887747211,12,3,2,-2,1,0,0,8
1526902887747211,16,8,2,1,-4,-2,2,-2
1526902887760176,55,6,-4,-1,2,2,-1,8
1526902887760176,4,-4,-6,-2,-6,-4,-2,-20
1526902887768155,-4,29,14,3,4,1,2,10
1526902887768155,13,-16,-7,-4,-3,-3,0,2
1526902887783115,-33,7,0,-3,-3,-4,-2,8
1526902887783115,11,0,8,8,2,5,3,-12
1526902887791093,-5,-2,-3,-2,0,-4,2,-11
1526902887791093,29,-1,0,-2,-2,-5,-1,0
1526902887806054,-1,-7,-4,0,-3,1,-4,-9
1526902887806054,-30,-12,-6,-5,-7,1,-9,-34
1526902887807051,12,9,7,6,-5,-4,1,55
1526902887807051,-11,0,0,0,0,-2,-2,-20
1526902887821014,17,9,3,-3,-5,-3,1,-5
1526902887821014,1,3,-4,0,8,3,2,6
1526902887827995,-4,-3,-3,-2,2,1,-6,-12
1526902887827995,10,1,2,4,-1,3,3,-5
1526902887842955,-6,-5,6,1,4,1,1,15
1526902887842955,-3,4,-2,-3,-3,-1,1,10
1526902887850933,-26,1,-4,-6,0,-1,-3,-36
1526902887850933,13,-4,2,-1,-2,-1,2,7
1526902887874869,-35,-7,-4,0,1,-1,2,15
1526902887874869,-35,-20,1,3,3,1,0,-9
1526902887875867,13,-4,-12,-9,-8,-7,-5,6
1526902887875867,-28,-13,5,1,4,3,-1,1
1526902887887835,-13,-6,-6,0,-3,0,-2,-4
1526902887887835,22,8,-1,-1,1,0,1,18
1526902887896811,-34,1,-2,0,0,2,-1,-20
1526902887896811,-1,-2,2,1,-2,-2,-3,-14
1526902887911771,62,23,4,3,0,1,8,17
1526902887911771,28,6,-5,-4,-5,-2,0,17
1526902887913766,-3,-11,-1,-1,2,0,-2,-16
1526902887913766,-14,-4,-1,-2,-1,-1,5,13
1526902887934710,24,-1,-4,1,1,3,1,-14
1526902887934710,13,13,8,-2,-1,-2,1,2
1526902887935707,-18,-41,-9,0,0,-1,0,2
1526902887935707,5,57,10,2,-2,-1,-1,-1
1526902887947675,0,-20,-4,-5,1,-1,-4,-9
1526902887947675,-10,0,-2,-3,0,-5,-2,0
1526902887956651,6,-3,-5,0,-3,3,1,-3
1526902887956651,3,1,7,2,7,3,0,14
1526902887971611,-25,-14,-5,-2,-5,-2,-2,-10
1526902887971611,14,24,-4,0,1,-1,-1,-3
1526902887973605,-21,25,12,1,-5,-5,0,3
1526902887973605,7,-12,-5,-2,2,1,-1,-1
1526902887994550,3,-2,3,-3,0,-2,-2,1
1526902887994550,-4,7,7,2,-1,2,0,-18
1526902887996544,-10,-2,-9,-1,3,0,0,7
1526902887996544,57,1,-4,-2,0,-5,-1,9
1526902888008512,-28,-25,-9,-6,-5,-1,0,-6
1526902888008512,-11,-7,-5,-6,-1,-1,-3,-10
1526902888017489,16,-18,2,4,3,-1,-5,27
1526902888017489,1,34,2,3,-3,-3,-5,-17
1526902888031451,8,-4,-3,0,0,-1,0,-4
1526902888031451,-28,-17,1,1,-3,-3,-1,8
1526902888038432,40,11,-9,-7,-1,0,-1,-21
1526902888038432,-35,-13,-1,-2,-3,-2,-2,28
1526902888054389,-12,9,3,1,1,-2,0,6
1526902888054389,22,7,-2,1,-2,0,0,5
1526902888056384,9,0,2,0,0,-1,-2,-11
1526902888056384,-59,-24,-10,-6,-3,-1,-3,-13
1526902888068352,5,11,4,-1,-2,0,0,9
1526902888068352,6,-16,-4,-4,-2,-1,-1,10
1526902888077328,-8,2,2,3,-1,-1,0,-7
1526902888077328,1,-2,-1,0,-3,-1,1,-25
1526902888092288,-23,-10,1,2,-1,-4,-2,0
1526902888092288,5,-1,-10,-2,8,0,2,-1
1526902888093285,-9,0,-9,-5,-5,2,0,-8
1526902888093285,-7,-1,17,4,5,1,1,13
1526902888114229,16,19,4,2,-4,-2,-1,-9
1526902888114229,-43,-22,0,3,2,-2,-3,-27
1526902888116224,21,18,2,-2,-4,-1,3,9
1526902888116224,42,-15,-9,-5,0,-1,-1,18
1526902888128192,-11,12,-2,1,3,0,-3,-23
1526902888128192,-12,-22,-1,-3,-7,-2,-3,10
1526902888137168,31,15,4,0,2,-2,-3,-22
1526902888137168,-36,-10,-8,-4,-4,-1,3,23
1526902888151131,-13,0,6,0,2,0,-1,-8
1526902888151131,19,5,-1,0,-5,-1,0,-6
1526902888158112,-6,-3,0,-1,0,-1,-3,1
1526902888158112,-20,-8,5,3,0,-2,-6,-20
1526902888174069,-8,2,-4,-3,-3,0,2,9
1526902888174069,32,32,7,3,-1,3,7,22
1526902888176064,7,-11,4,0,1,0,-1,-6
1526902888176064,-26,-21,-16,-5,-4,-5,-5,-1
1526902888188032,-15,2,-8,-2,2,0,0,3
1526902888188032,-10,-2,14,4,-2,1,-3,-18
1526902888197012,9,5,3,1,1,-2,-4,5
1526902888197012,7,-6,-1,0,-2,-4,2,-5
1526902888210971,11,0,-5,-3,0,2,-1,17
1526902888210971,-3,6,1,-6,-2,2,1,8
1526902888217952,-46,-12,-4,-3,-3,-4,-3,-30
1526902888217952,31,-6,2,3,-3,-1,0,-4
1526902888234907,31,17,5,0,6,1,1,12
1526902888234907,-11,10,-8,-2,-12,-4,-3,-17
1526902888235904,1,9,1,1,1,3,4,21
1526902888235904,-1,-4,0,-1,-1,-1,-3,-23
1526902888256848,-62,-21,-6,-3,-3,-4,1,38
1526902888256848,6,-17,-8,-7,-2,-2,0,26
1526902888258843,20,4,-6,-2,0,1,-2,-15
1526902888258843,-29,-5,3,0,-1,1,1,6
1526902888270810,9,12,3,3,-1,-1,-6,-19
1526902888270810,0,-1,5,3,2,1,-4,-13
1526902888277792,-45,-21,-4,-3,-2,-2,3,16
1526902888277792,30,22,2,0,0,-1,-4,7
1526902888294746,12,-9,5,1,-2,0,2,-9
1526902888294746,27,36,-4,0,1,0,2,28
1526902888295744,8,-10,6,1,-1,-1,-2,-19
1526902888295744,13,1,-14,0,-3,3,6,25
1526902888316688,-24,-14,7,-2,-2,-4,-3,-29
1526902888316688,10,-13,-5,-2,-2,-2,0,2
1526902888318683,-3,-9,-1,1,-1,-2,4,17
1526902888318683,25,26,6,-2,1,0,3,3
1526902888331648,23,-3,-7,-3,-4,-6,-2,10
1526902888331648,-40,-10,-1,1,6,1,-7,-32
1526902888337632,-11,-8,1,1,-1,5,0,-4
1526902888337632,14,3,-1,-5,-1,-1,-4,-7
1526902888354587,2,-12,-12,-5,-4,-2,-2,-3
1526902888354587,-3,6,7,0,0,2,5,-8
1526902888356581,24,15,6,5,2,-4,-3,4
1526902888356581,-9,-7,-1,1,-4,-1,1,-5
1526902888376528,30,8,4,1,-1,-1,-1,-17
1526902888376528,-65,-40,-14,-6,1,-2,0,10
1526902888378523,5,2,-7,-1,-4,-3,-4,-6
1526902888378523,7,6,7,-2,2,0,-2,0
1526902888391488,22,-2,-3,0,0,1,0,6
1526902888391488,-31,1,0,1,0,-1,-2,-28
1526902888398469,4,1,-9,-2,0,1,1,-3
1526902888398469,0,-6,3,-2,0,-1,-3,3
1526902888414426,33,12,2,1,-1,0,-1,2
1526902888414426,4,-1,1,-1,-2,-3,-4,-9
1526902888416421,9,1,0,-3,2,-3,3,7
1526902888416421,-16,-11,-6,-3,-4,0,1,-6
1526902888437365,24,6,4,3,2,2,0,0
1526902888437365,29,33,5,-1,0,0,0,18
1526902888438363,-48,8,-1,-1,0,0,-1,-3
1526902888438363,10,-8,-2,2,-2,-5,0,-3
1526902888451328,-14,-5,-1,0,0,5,0,1
1526902888451328,7,-13,-2,1,6,0,-2,-11
1526902888458309,-1,3,-5,-3,-14,-4,-1,4
1526902888458309,-6,4,-1,3,4,4,1,12
1526902888474266,-5,-4,3,-1,-3,-5,3,26
1526902888474266,8,13,1,2,-1,-1,-2,-26
1526902888476262,30,6,0,-1,3,0,-1,10
1526902888476262,-53,-22,0,1,2,-2,-3,-8
1526902888497205,31,17,0,-2,-3,-2,-2,3
1526902888497205,-1,-12,-6,-2,0,2,3,3
1526902888498203,12,6,2,1,1,-1,2,-8
1526902888498203,2,0,2,1,2,1,0,-11
1526902888510171,0,6,4,1,-2,0,2,1
1526902888510171,14,-18,-8,-1,-4,-2,1,20
1526902888520144,-22,5,5,-1,0,-3,-2,-10
1526902888520144,37,0,-2,-2,1,-2,1,10
1526902888534106,-28,-3,-6,-3,-1,-2,-6,-23
1526902888534106,24,-8,-9,-4,-4,0,3,11
1526902888536101,-67,-22,2,-2,-2,-5,-3,-9
1526902888536101,26,3,-1,0,0,0,1,12
1526902888557045,-8,0,0,-1,0,-4,-5,-19
1526902888557045,-11,-7,1,1,-3,-2,-2,-7
1526902888559040,26,0,-8,-1,2,3,1,29
1526902888559040,-8,-11,1,-3,-2,-2,-2,0
1526902888571008,-51,-6,-4,0,1,1,-1,-14
1526902888571008,27,20,9,0,-2,0,1,17
1526902888579984,-12,-3,0,3,2,2,-3,-11
1526902888579984,11,6,-3,-2,-3,0,2,7
1526902888594944,-31,-14,-8,-4,-6,-6,-4,-21
1526902888594944,-11,0,-1,-2,4,4,5,-9
1526902888595941,22,-2,2,-2,-1,2,0,6
1526902888595941,44,5,3,0,-1,-2,-4,-10
1526902888616885,-29,15,-1,2,1,-1,-3,6
1526902888616885,5,0,0,0,-5,-2,-3,-9
1526902888618880,-16,-15,-4,-2,4,0,-2,-8
1526902888618880,-5,2,2,2,-1,2,3,-4
1526902888630848,-6,-3,-3,-5,-1,-2,-4,-9
1526902888630848,-11,-9,0,2,-1,-1,-1,-2
1526902888639824,14,9,4,0,-3,-2,-1,4
1526902888639824,-49,1,-7,0,0,-1,-4,-12
1526902888654784,62,-5,6,-1,-1,1,6,13
1526902888654784,-41,-8,-5,0,2,-3,-4,-8
1526902888655781,10,8,0,-3,-5,4,2,-4
1526902888655781,-31,-1,-4,-6,-6,-5,-8,-36
1526902888676725,18,-8,4,2,5,6,14,51
1526902888676725,10,9,-5,-4,-2,-8,-6,20
1526902888678720,6,1,0,-1,2,-1,0,2
1526902888678720,-8,-2,-2,-4,-3,-2,-3,-3
1526902888690687,-4,-18,-8,-1,0,0,-3,-19
1526902888690687,19,-14,0,1,-1,0,1,2
1526902888699664,43,25,9,2,-1,-1,1,7
1526902888699664,-25,-5,-10,-2,-3,-2,-1,40
1526902888714624,-5,-9,0,-2,-2,-1,-4,-23
1526902888714624,-21,-10,-1,1,-1,0,1,-6
1526902888715621,2,-9,-4,-2,-1,-2,-4,-8
1526902888715621,13,5,4,0,0,2,0,-10
1526902888736565,-45,12,3,0,-1,-3,-5,-17
1526902888736565,15,5,0,-2,-1,-1,-1,15
1526902888738560,-45,-8,-4,-3,-2,0,-1,-9
1526902888738560,27,16,1,0,1,0,2,3
1526902888750528,-40,-25,-6,1,-1,-1,-2,-7
1526902888750528,-5,35,9,1,-2,2,2,-14
1526902888759504,-3,-7,-5,0,-1,-3,-5,-3
1526902888759504,-51,-28,-6,-3,-3,-2,1,-3
1526902888774463,47,20,0,0,-1,-1,-3,2
1526902888774463,15,-4,-2,1,0,0,0,1
1526902888776459,-7,-4,4,2,-4,1,0,11
1526902888776459,17,-7,0,1,0,1,-1,-10
1526902888797402,11,7,-5,-5,-2,-2,1,14
1526902888797402,47,-8,-12,-5,-1,-1,-3,-18
1526902888798400,-1,-5,15,3,-7,-5,0,23
1526902888798400,14,31,3,3,2,2,-2,4
1526902888810368,-4,-11,-3,-3,0,-1,-4,-4
1526902888810368,-5,-10,1,2,-1,0,1,3
1526902888819343,-8,11,-7,-5,4,-1,-1,-30
1526902888819343,30,3,5,1,0,-5,0,18
1526902888834304,-17,-5,-8,0,-2,1,3,11
1526902888834304,5,6,2,-1,4,0,-4,-8
1526902888836298,-17,-8,-2,-2,-2,-1,-3,3
1526902888836298,-15,6,1,-3,-3,-7,-6,-9
1526902888857242,-3,-3,-4,-2,-1,0,6,-6
1526902888857242,10,5,-2,2,-2,-1,0,10
1526902888858240,3,6,-7,-4,1,-2,-4,3
1526902888858240,15,3,2,0,-3,2,4,4
1526902888870207,-10,-6,4,1,2,-2,0,-5
1526902888870207,7,-11,-5,-4,-6,-3,-2,-6
1526902888879183,28,-20,0,-1,-2,-3,-2,7
1526902888879183,-3,15,-8,-3,0,2,1,2
1526902888894143,-7,-7,0,1,5,-1,2,7
1526902888894143,-16,5,-1,-5,-6,-3,-3,-15
1526902888896139,-17,-1,-5,-2,1,0,-4,2
1526902888896139,18,-14,-1,1,2,2,3,22
1526902888917082,6,-3,5,1,-1,1,4,3
1526902888917082,-14,12,2,-1,-2,-2,-9,-20
1526902888919077,4,-4,-3,1,0,0,3,19
1526902888919077,41,11,2,-2,-1,-4,-3,-10
1526902888931045,-37,-13,-3,-3,-3,-2,-3,9
1526902888931045,8,-14,1,1,8,3,5,-4
1526902888940021,-16,-4,-3,-3,-5,-1,0,3
1526902888940021,5,2,4,3,1,0,-1,6
1526902888953984,26,33,-2,-2,-3,-1,-5,-9
1526902888953984,-1,-2,-1,-2,1,1,4,17
1526902888955979,-18,6,4,3,4,2,1,-33
1526902888955979,-60,-38,-9,-3,-1,-4,-5,-23
1526902888976922,-30,0,-3,-2,-1,-4,-11,-22
1526902888976922,-16,-3,-2,-1,-4,-3,0,28
1526902888978917,38,14,0,-1,0,-2,0,-1
1526902888978917,-23,19,10,2,-2,1,-1,-23
1526902888990885,15,-17,-4,0,-2,-2,-5,8
1526902888990885,-8,6,6,0,-2,0,1,-8
1526902888999861,38,5,-1,-2,-2,0,2,0
1526902888999861,-22,3,-1,0,0,-4,-6,-1
1526902889014821,-31,-14,-5,-4,-2,1,4,6
1526902889014821,-1,-3,-3,-1,-2,1,0,6
1526902889015818,0,-9,-1,2,1,2,2,7
1526902889015818,-17,-23,-9,-2,-2,-1,-2,8
1526902889036762,60,28,2,1,-1,2,-1,-18
1526902889036762,-15,-16,-5,-1,-2,0,-2,-11
1526902889038757,-10,-6,-1,-1,0,-4,-1,9
1526902889038757,-13,11,-2,-2,0,-1,-5,-14
1526902889050725,29,1,3,1,1,-1,0,28
1526902889050725,-32,-17,-3,-4,-1,-2,-5,-7
1526902889059701,-21,-10,-1,-2,-1,0,0,-10
1526902889059701,17,1,2,1,0,-1,0,7
1526902889074661,1,0,-2,-2,-5,-1,-1,-1
1526902889074661,-8,1,7,4,1,0,-4,-13
1526902889075658,-4,-2,-7,0,0,-2,0,-5
1526902889075658,34,-9,-4,0,0,-1,2,29
1526902889096602,11,7,-1,0,0,-1,0,3
1526902889096602,18,1,-1,-1,-2,-1,3,7
1526902889098597,-23,-10,1,1,0,0,-2,-16
1526902889098597,22,20,-5,-2,-1,-1,1,12
1526902889110565,26,-7,1,-1,-2,-3,-2,0
1526902889110565,-11,5,0,0,0,-2,0,-5
1526902889119541,28,-4,-4,-2,-3,-1,-3,15
1526902889119541,-22,-9,2,-3,1,-4,0,-4
1526902889133503,-20,-15,-5,-2,-2,2,-4,-5
1526902889133503,-17,-2,-17,-3,-2,1,3,1
1526902889140485,0,6,-1,0,2,0,1,-8
1526902889140485,13,6,6,-1,2,4,3,4
1526902889157439,-8,-8,1,3,1,-1,-1,-14
1526902889157439,20,4,4,1,8,2,1,2
1526902889158437,-13,1,-3,-4,-6,-1,-1,-1
1526902889158437,-5,-12,-3,-1,-2,-1,-2,-6
1526902889179381,3,7,2,-1,0,-1,0,-1
1526902889179381,0,5,5,-1,0,1,0,-8
1526902889181376,5,-8,-1,-2,1,-3,-3,-6
1526902889181376,-16,4,-3,-4,-2,2,4,10
1526902889193343,-3,4,3,1,0,-2,0,-12
1526902889193343,3,5,2,1,-3,1,1,-5
1526902889200325,4,6,5,2,3,0,-1,-6
1526902889200325,8,-2,-1,-2,-4,-2,-1,0
1526902889217279,-19,-25,-4,0,1,0,-4,-26
1526902889217279,27,48,2,-1,-2,-3,0,13
1526902889218277,-3,-14,-5,2,-1,0,0,8
1526902889218277,25,-3,-2,-3,-2,-1,-2,3
1526902889239221,-7,5,-2,-3,-1,0,2,6
1526902889239221,5,-3,2,-1,-2,-1,2,-8
1526902889241216,-14,-1,-1,-3,-2,-1,-4,-2
1526902889241216,0,-5,-5,3,0,-1,0,-3
1526902889254181,-4,17,2,-1,-2,-2,-2,-5
1526902889254181,0,-10,-4,1,-4,-5,1,4
1526902889260165,-24,1,-2,-2,3,2,-1,-4
1526902889260165,-17,-4,1,-1,-1,1,-1,-9
1526902889277119,-19,-13,-3,-3,-2,-3,-3,-7
1526902889277119,22,12,-3,-1,1,0,-1,-2
1526902889279114,-10,-5,2,-3,-2,-5,-2,-3
1526902889279114,0,-5,-4,-2,-1,-1,-2,-6
1526902889299060,19,7,1,0,1,2,3,8
1526902889299060,-21,-19,-3,-3,-6,-2,-6,-9
1526902889301056,-19,-4,1,2,-2,3,0,0
1526902889301056,-7,4,1,1,3,0,4,-4
1526902889314021,8,0,-1,-1,-4,-2,-3,3
1526902889314021,-1,-15,-4,-2,3,1,0,-3
1526902889321002,-2,-2,-2,-2,0,-1,-1,5
1526902889321002,-5,18,11,3,-2,-1,-1,-6
1526902889336959,-7,-11,-5,2,5,1,3,2
1526902889336959,-1,-9,0,-2,-3,0,-2,0
1526902889338954,-16,4,0,-3,-3,-4,-4,-9
1526902889338954,22,1,3,2,-2,-1,-1,7
1526902889359898,-2,-9,-1,-2,0,0,1,-4
1526902889359898,24,14,3,-1,-2,-1,1,0
1526902889360895,4,0,2,0,1,1,2,1
1526902889360895,5,18,-5,-2,-1,-2,-4,-7
1526902889373861,-6,-1,-2,-2,-3,-2,-1,3
1526902889373861,-3,-17,-1,2,1,0,-5,-13
1526902889380842,4,4,-1,0,1,-1,0,4
1526902889380842,35,-11,0,2,0,1,3,13
1526902889396799,-3,16,1,0,0,0,-2,-7
1526902889396799,-16,2,0,-4,0,-3,1,-5
1526902889398794,11,-10,-3,-2,-3,-2,2,9
1526902889398794,-27,-7,-4,-2,0,3,-3,-9
1526902889419738,12,7,1,0,-1,0,-4,-16
1526902889419738,-18,-5,-1,1,1,-1,-1,11
1526902889420735,-13,4,2,0,-2,-4,-3,-14
1526902889420735,-9,4,-4,-2,-1,-2,2,4
1526902889433701,-8,-36,-8,-4,-2,0,0,-2
1526902889433701,-20,5,2,2,-1,-2,-2,0
1526902889440682,39,13,2,1,2,0,0,-4
1526902889440682,-30,-11,-4,-6,-4,-2,-1,-7
1526902889456639,-8,-6,1,-2,-2,0,-1,-1
1526902889456639,29,8,-3,0,-3,1,2,22
1526902889458634,4,8,3,0,-1,-1,-3,0
1526902889458634,-8,3,-2,-3,-2,-3,-5,-7
1526902889479578,7,15,1,-2,1,0,3,-2
1526902889479578,-4,-20,-3,-3,1,-1,-1,-2
1526902889481573,29,11,1,1,1,0,-1,4
1526902889481573,-8,-5,-1,0,-1,1,-3,-5
1526902889493540,-2,4,-1,1,0,-1,-1,1
1526902889493540,-19,3,-5,-3,-1,-2,-3,-6
1526902889502517,-23,-5,-2,0,0,0,-1,-1
1526902889502517,1,-7,-5,-1,-1,-3,2,15
1526902889517477,12,20,2,0,-3,-4,-5,-17
1526902889517477,-14,-1,0,1,-2,-2,-2,1
1526902889518477,-6,-4,-2,-3,-1,-2,0,-1
1526902889518477,10,-6,-2,1,-1,-1,-2,-1
1526902889539418,-16,-3,-2,-1,0,0,0,5
1526902889539418,12,3,0,-3,8,3,1,4
1526902889541413,9,2,1,2,-7,2,1,-2
1526902889541413,-6,-6,-2,-1,1,0,-1,3
1526902889553380,8,-5,-5,-5,-2,-2,1,10
1526902889553380,-14,-4,2,0,0,-1,-4,-20
1526902889562357,12,5,2,1,2,-3,-6,-5
1526902889562357,5,-15,-4,-1,-1,-1,-1,7
1526902889577316,3,-3,1,3,0,0,2,-24
1526902889577316,-1,18,2,0,-4,0,-1,8
1526902889578314,-2,-10,-5,-3,-2,-1,-2,-2
1526902889578314,20,1,6,-1,-2,-2,0,-6
1526902889599258,23,-2,-4,0,0,-1,3,15
1526902889599258,10,12,1,1,-2,-1,-1,-7
1526902889601253,-19,-8,-3,-3,-1,1,1,0
1526902889601253,-7,-1,1,2,1,-1,-2,-12
1526902889613220,3,8,2,0,-1,-1,0,13
1526902889613220,-13,-17,-9,0,-3,-1,-2,-37
1526902889622197,47,12,0,-2,0,-2,4,28
1526902889622197,-2,4,0,-3,-1,-1,-3,-3
1526902889637156,-7,2,3,3,-1,-1,-5,-1
1526902889637156,-4,-5,0,-1,-4,-2,-1,-6
1526902889638154,-11,-13,-1,-1,0,3,2,-5
1526902889638154,-22,8,-9,-3,0,2,-1,-1
1526902889659098,7,2,6,3,0,-1,0,-5
1526902889659098,11,9,3,0,-1,-1,-2,5
1526902889661093,-8,10,1,0,-1,-2,-2,-9
1526902889661093,-19,-21,0,2,-2,-1,1,-20
1526902889673060,-19,-6,-5,-4,-2,-2,-5,5
1526902889673060,7,-16,-9,-5,-1,-2,0,10
1526902889682037,21,12,1,-2,0,-1,1,11
1526902889682037,1,5,7,1,-1,0,0,-15
1526902889696997,6,-3,-3,-1,0,-1,-2,-3
1526902889696997,-16,-18,2,0,1,0,1,13
1526902889698991,-6,-6,-5,1,-4,-1,-1,1
1526902889698991,17,18,2,-3,-1,-1,0,10
1526902889719935,-6,-5,-2,-2,0,0,-3,-11
1526902889719935,-11,-7,-4,-2,0,2,1,-4
1526902889720933,1,3,8,1,0,-2,-5,-7
1526902889720933,-10,-1,0,1,-1,-1,2,12
1526902889732901,-33,-4,-1,1,0,-1,-2,-20
1526902889732901,37,11,-5,-3,-1,-1,4,17
1526902889741876,-35,-13,-5,-1,-1,-1,-1,-7
1526902889741876,-18,-6,2,-1,-1,-1,1,17
1526902889756836,15,11,-2,-4,-1,0,-1,0
1526902889756836,-14,-2,3,5,1,-1,-3,-14
1526902889758831,36,19,3,0,1,0,0,12
1526902889758831,15,-4,-5,-2,-3,-1,0,4
1526902889779775,-24,-8,-2,0,-1,0,-2,-15
1526902889779775,2,1,-2,-2,-4,0,0,8
1526902889780773,-2,-7,-10,-5,0,-3,-6,-15
1526902889780773,-16,0,-2,0,0,-2,-2,-1
1526902889792740,9,4,9,1,1,-1,0,1
1526902889792740,1,-13,2,3,0,-2,-2,-9
1526902889801716,-26,-1,-6,-2,0,0,-2,-8
1526902889801716,17,6,-5,-2,-1,-2,-3,0
1526902889816676,-9,-13,2,-3,-2,-1,1,-7
1526902889816676,-8,-17,-6,-5,-1,-2,3,29
1526902889818671,17,22,14,3,1,1,3,-3
1526902889818671,-2,8,2,4,2,0,0,-14
1526902889839615,9,3,-3,3,0,1,5,11
1526902889839615,-7,3,-1,-3,-2,1,0,-7
1526902889841610,6,3,-3,-2,-1,1,1,1
1526902889841610,-1,-14,-3,-2,-1,-1,-2,-10
1526902889853578,-8,0,-4,0,-2,-3,0,6
1526902889853578,11,3,4,2,0,-2,-1,2
1526902889862554,-21,-23,-3,-1,-2,-3,-7,-7
1526902889862554,-33,5,-3,-4,0,1,-4,-5
1526902889877514,-4,2,-6,-3,-2,-1,1,1
1526902889877514,8,4,0,-1,-2,0,-1,-4
1526902889878511,-3,-4,-1,0,0,0,-1,4
1526902889878511,13,0,-5,-3,-1,-5,-1,4
1526902889899455,-12,-13,4,2,1,2,-4,-4
1526902889899455,17,15,3,0,2,2,-2,-5
1526902889901450,1,-8,0,1,-2,-2,2,16
1526902889901450,6,-4,-1,-2,1,1,-1,-3
1526902889913417,0,1,-3,-2,-7,-5,-2,6
1526902889913417,-10,-5,-1,1,-4,-1,-1,-7
1526902889922394,-9,-8,-10,-3,1,0,1,6
1526902889922394,18,6,7,1,-2,-2,-1,-3
1526902889937354,-13,-9,0,0,3,-1,-1,-2
1526902889937354,34,23,4,3,-1,-2,0,7
1526902889938351,-1,2,-3,-3,-2,0,0,0
1526902889938351,-27,-18,-1,1,1,-2,-2,-8
1526902889959295,-5,3,-2,-2,0,0,-1,-2
1526902889959295,-4,-8,-5,1,0,0,-1,-8
1526902889961290,2,5,2,-2,0,0,1,13
1526902889961290,16,3,2,-1,-2,-1,-1,0
1526902889973258,-2,-1,-1,-1,2,-2,-2,2
1526902889973258,-11,-1,-2,0,-8,-1,-2,-7
1526902889982234,-14,-32,-2,1,-2,-1,-1,-3
1526902889982234,11,34,3,-1,-3,-2,0,6
1526902889997194,23,1,-3,-1,-1,-2,-1,4
1526902889997194,-3,-7,-1,-1,4,-1,0,-1
1526902889998191,-18,-7,2,1,1,1,1,-2
1526902889998191,26,-6,-3,0,0,0,-2,-3
1526902890019135,0,11,-6,-5,-2,0,-1,8
1526902890019135,-35,-14,6,0,1,-3,-3,-1
1526902890021130,8,5,3,1,8,1,-2,-7
1526902890021130,-4,-12,-3,0,-13,-3,-1,-6
1526902890033098,9,1,7,4,1,1,1,-8
1526902890033098,-44,13,-6,-7,-2,-2,-7,-6
1526902890042074,17,-2,0,0,0,0,2,9
1526902890042074,-7,-9,-3,-3,3,-1,-2,3
1526902890056036,-9,5,0,-2,-1,0,0,-8
1526902890056036,-4,-11,2,0,0,-2,-1,-10
1526902890063018,-16,6,-1,-2,-3,-3,-1,3
1526902890063018,33,8,-6,-2,2,1,-4,-5
1526902890079972,-18,3,-1,-2,-4,-2,-2,10
1526902890079972,17,2,1,-1,1,1,2,11
1526902890080970,-4,-12,-3,0,-2,-1,-3,-18
1526902890080970,11,13,7,3,3,7,9,14
1526902890092938,-33,-5,-2,-1,-2,-3,-9,-30
1526902890092938,48,-7,-9,-4,-3,-3,1,45
1526902890101914,-38,-4,0,-1,-3,-4,-8,-28
1526902890101914,-6,-7,0,-1,-1,0,0,5
1526902890115876,4,0,-1,-2,1,0,3,7
1526902890115876,-8,-17,2,0,-1,0,1,-24
1526902890122857,43,32,6,4,0,-2,1,30
1526902890122857,35,12,7,1,2,1,2,-9
1526902890139812,0,-7,-5,-1,-2,0,-1,6
1526902890139812,7,-5,-3,-2,1,0,-2,-21
1526902890140809,20,6,4,2,0,0,3,24
1526902890140809,-40,-22,-1,-2,0,-2,-2,1
1526902890161753,34,29,7,4,-1,0,-1,-6
1526902890161753,11,6,-4,-2,0,-1,3,33
1526902890163748,-2,-19,-27,-8,-4,-2,0,-6
1526902890163748,-35,-14,14,0,-1,-1,-1,9
1526902890176714,-22,-25,-10,-3,-2,2,10,6
1526902890176714,17,10,3,3,1,-2,-6,5
1526902890182698,16,17,-3,-3,-4,-3,-4,24
1526902890182698,-12,-8,-10,-5,-2,-4,-6,-13
1526902890199652,12,-6,-4,-3,0,0,2,-6
1526902890199652,-3,0,1,0,-1,0,-1,-14
1526902890200650,-1,-4,4,-1,-1,0,3,-3
1526902890200650,-4,-6,-11,-2,-1,-1,-2,-21
1526902890221594,2,8,11,4,1,-4,-11,-4
1526902890221594,4,-5,-5,1,-1,1,3,10
1526902890223588,11,0,3,2,0,-1,-3,-11
1526902890223588,-36,5,0,-1,0,-3,-3,4
1526902890235556,28,0,-10,-3,-2,-1,0,14
1526902890235556,5,-5,0,0,-1,0,1,15
1526902890244532,3,-4,-3,-4,-3,-2,0,-14
1526902890244532,14,18,6,7,2,-2,-2,-8
1526902890259492,-27,-45,-6,-3,0,2,2,-1
1526902890259492,16,37,-15,-6,-6,-5,-4,18
1526902890261487,-22,-4,12,1,1,0,0,-12
1526902890261487,-3,-8,-7,-2,-3,-3,1,-7
1526902890282431,-10,15,-2,0,-1,2,2,4
1526902890282431,11,-13,0,0,2,2,3,-3
1526902890283428,-56,-24,0,4,2,0,-1,-2
1526902890283428,11,14,-4,-2,-3,-2,-4,4
1526902890295396,-44,-26,-12,-6,-3,-3,-3,-17
1526902890295396,-20,-6,10,2,1,0,1,-7
1526902890304372,52,17,-4,-1,-2,-1,1,17
1526902890304372,-5,-6,2,1,0,-1,-3,-26
1526902890319332,30,21,2,0,-1,0,-3,-14
1526902890319332,-33,-18,-2,-2,-3,-2,-2,17
1526902890321327,-6,0,5,1,0,1,-2,-9
1526902890321327,19,-8,-4,-2,-1,0,-2,1
1526902890342271,-18,-4,1,-1,-1,0,4,-4
1526902890342271,-66,21,-1,-1,-2,-4,-8,-37
1526902890343268,29,4,0,0,-1,-1,3,1
1526902890343268,-14,-26,-2,-1,-2,-1,1,20
1526902890355236,-34,3,-1,-1,0,-1,-1,10
1526902890355236,12,-6,-3,-1,1,1,-1,-18
1526902890364212,-30,-22,3,0,-3,-2,-3,-3
1526902890364212,-10,26,1,-1,-1,0,1,-10
1526902890379172,51,9,10,4,3,1,1,3
1526902890379172,-26,5,4,-3,-4,-4,-7,-30
1526902890381167,-2,-35,-13,-4,1,-1,3,17
1526902890381167,8,31,13,4,0,0,-3,-8
1526902890402111,-35,-12,-11,-4,-2,-2,-3,-18
1526902890402111,13,7,-1,-3,0,-1,1,0
1526902890404105,25,2,-1,-1,-1,1,-1,3
1526902890404105,-11,-10,10,-1,-2,-1,-1,13
1526902890416073,17,-7,-5,-2,-1,-2,-1,-2
1526902890416073,6,-3,0,3,0,1,0,-15
1526902890425050,-17,-5,6,2,1,0,-2,-8
1526902890425050,26,28,-13,-5,-1,-2,0,5
1526902890440009,16,-1,3,2,0,0,3,27
1526902890440009,15,-20,5,2,0,0,1,0
1526902890441007,10,-14,-11,-1,0,0,-2,-9
1526902890441007,-13,22,-4,-4,-5,-4,-3,7
1526902890461951,2,-3,4,1,2,2,0,-26
1526902890461951,2,-12,-3,1,2,0,1,17
1526902890463946,42,15,4,-3,-2,-2,-2,12
1526902890463946,-33,-52,-6,2,1,2,1,-28
1526902890475913,7,30,-2,-3,-4,-5,-5,-17
1526902890475913,-2,-13,-3,-3,0,2,1,-28
1526902890484890,39,43,3,-1,-3,-4,-4,42
1526902890484890,79,26,13,4,3,4,8,16
1526902890499849,21,-33,-4,-1,-1,-2,-2,8
1526902890499849,-72,-26,-4,2,-1,-2,-7,-29
1526902890500847,37,2,-7,-3,-1,-3,-3,-32
1526902890500847,0,46,-2,-4,-3,-5,1,34
1526902890521791,83,32,8,3,2,4,3,0
1526902890521791,-59,-42,-10,-6,-5,-5,-3,3
1526902890523786,83,30,2,1,3,1,-1,-7
1526902890523786,-44,-53,-9,-6,-4,-1,-2,-5
1526902890535753,3,25,5,3,3,3,4,13
1526902890535753,14,-1,8,2,2,-1,2,32
1526902890544730,-62,-14,2,-1,-3,-5,-3,4
1526902890544730,-49,4,-2,-2,0,-1,-2,-11
1526902890559689,27,-37,-14,-6,-5,-2,-6,1
1526902890559689,20,5,1,2,2,1,2,12
1526902890560687,-115,-15,-9,-6,-5,-7,-9,-15
1526902890560687,15,-3,-4,-1,0,3,6,-18
