timestamp,emg1,emg2,emg3,emg4,emg5,emg6,emg7,emg8
1522606741209413,6,13,-4,-4,-1,15,-7,6
1522606741209413,7,6,3,3,1,4,18,7
1522606741210411,-8,-5,-1,0,2,9,-7,-1
1522606741210411,-1,-2,-1,-4,-5,-10,-3,-12
1522606741210411,1,-6,-2,0,-2,-8,3,-8
1522606741210411,2,9,1,-2,0,0,-18,-3
1522606741214421,18,4,3,5,7,5,17,26
1522606741214421,-2,-13,-9,-3,-2,-1,1,-12
1522606741220437,-9,-8,-14,-6,-10,-4,-18,-13
1522606741220437,3,-5,6,1,1,2,20,5
1522606741230463,-12,-1,2,-3,-4,4,17,-12
1522606741230463,1,0,1,-2,6,-7,-17,0
1522606741237483,5,5,1,-2,-6,-7,42,-5
1522606741237483,-2,-5,-11,4,10,-3,-28,-23
1522606741251520,-2,-13,-1,-5,-5,6,-9,1
1522606741251520,1,-5,-4,-7,-6,-3,14,18
1522606741259542,2,-1,3,6,0,0,-13,5
1522606741259542,1,2,-2,-3,-1,-4,0,-15
1522606741274581,-4,-7,-1,1,-2,-15,3,4
1522606741274581,12,17,2,2,14,24,11,6
1522606741282602,-7,3,1,-2,-6,-9,-29,-9
1522606741282602,-12,-14,-7,1,-6,-8,0,-7
1522606741295637,2,0,4,2,5,11,-6,-15
1522606741295637,-7,-9,-2,-1,-4,-11,-7,10
1522606741337749,-10,-4,-4,0,2,1,11,-2
1522606741337749,-4,2,2,-3,-4,6,-5,-6
1522606741341760,-1,-2,-4,-5,-5,-5,-13,-24
1522606741341760,-3,3,2,2,1,0,6,-5
1522606741342762,-3,-5,-4,0,3,5,-7,18
1522606741342762,5,-2,2,4,-2,0,4,-1
1522606741343765,-8,-8,-4,-4,2,2,-4,-5
1522606741343765,-4,5,-1,2,2,-2,3,2
1522606741347776,12,5,2,4,3,-7,0,-5
1522606741347776,-12,-11,-5,-6,-1,-1,-16,-5
1522606741356800,5,0,0,-3,-2,4,5,-2
1522606741356800,0,0,-1,-1,-7,-2,-11,4
1522606741362816,8,18,3,-2,0,-1,9,3
1522606741362816,-12,-15,-8,0,-4,1,-24,-8
1522606741379861,-1,-10,4,3,5,1,6,3
1522606741379861,5,7,0,0,2,-1,11,6
1522606741385877,15,9,4,-4,-8,3,6,7
1522606741385877,2,-1,0,2,-1,-19,-15,1
1522606741408938,-8,2,-3,1,-5,3,-4,0
1522606741408938,-8,-11,-8,-1,-1,13,6,-7
1522606741409941,-2,-7,3,0,2,4,-14,-3
1522606741409941,6,8,-1,-3,3,1,14,-18
1522606741423978,1,-2,-3,-1,-10,-8,-3,12
1522606741423978,4,0,1,1,1,2,-2,2
1522606741423978,2,0,-5,-5,-1,0,2,-2
1522606741423978,2,-1,4,5,7,1,15,-1
1522606741446037,-6,1,2,1,-10,0,-17,-2
1522606741446037,12,-1,1,-2,3,-3,12,-4
1522606741447040,-26,-9,-7,0,-2,-12,-23,-32
1522606741447040,-4,-3,-1,-3,0,8,4,6
1522606741469098,6,0,2,2,5,-5,8,-3
1522606741469098,-18,-9,-1,0,-4,-6,-14,6
1522606741469098,4,-6,-1,-1,1,14,9,-1
1522606741469098,12,8,5,-4,0,-3,3,18
1522606741484138,-3,-1,-7,4,1,-2,3,-5
1522606741484138,10,7,-4,-3,0,-6,-27,-2
1522606741484138,-26,-5,1,1,2,-15,-14,-19
1522606741484138,-6,-6,-1,-1,-6,7,10,-6
1522606741506197,6,10,5,-3,3,5,9,12
1522606741506197,3,0,2,1,-16,-3,-17,-14
1522606741507200,2,2,-5,-1,0,-2,0,-19
1522606741507200,-9,-8,-7,-4,-5,-2,-12,0
1522606741528255,-8,-11,-9,0,2,-6,16,-24
1522606741528255,-3,-1,2,0,5,0,20,24
1522606741529258,-3,-3,-5,-4,-7,1,-5,-26
1522606741529258,5,-5,4,5,4,0,5,-5
1522606741543296,8,6,8,3,6,-14,-6,13
1522606741543296,-6,10,-1,-4,3,19,6,-9
1522606741544298,-3,2,5,-2,-6,-10,8,18
1522606741544298,-12,-1,-5,-3,-5,5,-4,3
1522606741566357,-5,-1,-6,-2,2,-2,29,8
1522606741566357,0,-11,-3,6,6,-5,-60,-2
1522606741567360,8,5,2,-1,8,6,11,9
1522606741567360,-4,0,1,-3,-10,-1,-7,-3
1522606741588415,-13,-2,-4,-8,-20,1,-1,-1
1522606741588415,6,5,5,0,2,-5,15,10
1522606741589419,2,-5,-1,1,2,-3,-6,22
1522606741589419,4,1,1,5,7,-4,1,-4
1522606741603456,-4,-4,-4,-7,0,-1,-23,-12
1522606741603456,-4,-7,-8,-8,-2,-4,17,-10
1522606741610474,-1,8,3,3,-1,11,-17,12
1522606741610474,5,4,1,-3,2,-1,23,22
1522606741626517,-1,-5,0,1,-1,0,-14,3
1522606741626517,-3,-2,0,-1,-2,-5,6,-8
1522606741627520,10,8,6,1,1,-8,1,4
1522606741627520,5,1,2,-2,-13,5,15,4
1522606741648575,-10,3,-1,-2,-2,-1,-39,2
1522606741648575,6,6,2,-1,1,-3,16,15
1522606741649578,-30,-16,-13,-7,-5,-4,-13,-39
1522606741649578,8,7,1,0,-2,-6,7,6
1522606741663616,1,-1,-1,-1,2,6,-3,-7
1522606741663616,-1,0,-2,-1,-1,-7,15,3
1522606741664618,-4,0,0,-2,-5,-3,-3,5
1522606741664618,10,-1,-5,-4,-6,4,4,35
1522606741686677,11,-4,3,6,10,8,13,-6
1522606741686677,1,3,1,-3,-2,2,-13,-3
1522606741686677,-11,-15,-9,-1,1,-9,20,16
1522606741686677,-1,-5,-6,-5,3,2,-17,-1
1522606741708735,11,6,5,1,5,0,37,2
1522606741708735,3,5,1,-4,0,-1,1,2
1522606741709738,6,4,3,3,-3,-4,-23,6
1522606741709738,-3,1,-5,-3,2,-5,-9,0
1522606741722773,9,-1,-2,0,-1,7,15,13
1522606741722773,-13,-17,-1,1,1,1,-23,-25
1522606741730794,14,-5,-1,-2,0,0,13,-5
1522606741730794,-25,2,0,0,-3,-10,-9,-41
1522606741745834,-1,7,1,0,-1,-3,-5,-6
1522606741745834,2,-9,-6,3,2,4,10,-5
1522606741746837,9,20,9,6,-1,9,1,16
1522606741746837,-1,-14,-8,-10,-4,-2,-6,-8
1522606741768895,5,3,4,2,-3,-2,4,5
1522606741768895,9,4,-3,-1,1,-6,7,11
1522606741769898,-1,-6,-4,0,-2,7,-18,2
1522606741769898,-15,5,4,3,4,-6,2,15
1522606741782933,0,-3,-6,1,-1,-6,1,4
1522606741782933,-1,-5,8,-1,-4,5,-11,-8
1522606741790954,12,5,-6,-6,-2,4,22,16
1522606741790954,9,-6,7,6,3,-3,-8,-11
1522606741805994,-3,7,-1,-1,3,1,-20,-21
1522606741805994,-5,-10,-5,-2,0,-6,12,6
1522606741806997,-4,-2,3,0,-5,-2,5,0
1522606741806997,3,0,-4,-2,-1,4,-25,2
1522606741829056,5,0,1,3,-1,-3,-9,15
1522606741829056,-13,-9,-4,1,-4,-6,18,-32
1522606741829056,15,6,-1,2,11,4,13,21
1522606741829056,3,-5,0,-4,-15,7,0,-5
1522606741843093,-2,0,-1,1,4,-2,-14,9
1522606741843093,5,12,2,-2,-4,-3,-12,15
1522606741850112,-4,-7,-1,-2,-1,1,3,-5
1522606741850112,0,2,2,4,5,-2,11,2
1522606741866154,-1,3,-3,-4,-1,9,8,-5
1522606741866154,-10,-6,-9,-5,-5,-3,-5,-20
1522606741867157,2,0,3,0,0,-6,-9,-3
1522606741867157,-3,11,2,-5,6,-6,20,-22
1522606741888213,-17,-12,-7,-4,-11,-4,-26,1
1522606741888213,11,8,5,0,5,2,4,23
1522606741889215,-10,-21,-11,-6,-6,2,-10,-29
1522606741889215,-11,9,-3,-1,3,0,-16,-2
1522606741903253,-4,-6,-2,-3,2,-3,8,8
1522606741903253,-3,9,1,1,-10,5,7,2
1522606741910272,-1,-2,6,5,-3,-11,10,4
1522606741910272,8,-9,-4,0,3,2,-23,5
1522606741926314,-3,1,0,-2,-2,4,11,-22
1522606741926314,11,6,-3,-4,3,11,3,13
1522606741927317,-3,-5,-4,-1,-2,7,-21,-10
1522606741927317,10,12,7,2,-4,-15,10,-8
1522606741948373,17,3,4,1,4,4,-6,19
1522606741948373,-6,-9,-1,2,-2,1,2,-2
1522606741949376,-4,6,-2,-1,-4,-10,5,-4
1522606741949376,7,0,1,0,1,-1,1,9
1522606741963413,-9,-9,-4,-2,1,2,-13,-6
1522606741963413,-6,1,-2,-4,2,1,-2,-7
1522606741970431,2,0,-6,-2,0,-3,0,16
1522606741970431,17,17,14,3,-2,7,-10,22
1522606741986474,-6,4,-6,-4,-7,-6,19,-9
1522606741986474,5,-1,7,3,4,-20,-19,-12
1522606741987477,-3,-14,0,0,4,19,11,14
1522606741987477,-18,1,-5,-7,-8,-2,10,-34
1522606742008533,1,-5,-2,0,0,-21,10,12
1522606742008533,-8,-7,-8,-3,1,21,-11,0
1522606742009536,4,-2,-3,-4,0,-5,-2,-27
1522606742009536,-7,-17,-7,-1,3,-6,-1,-3
1522606742022570,4,7,2,-3,-4,9,23,12
1522606742022570,-4,-3,-3,2,-4,-12,8,-8
1522606742030591,3,4,7,2,7,1,10,5
1522606742030591,7,-3,-3,4,-1,6,-15,6
1522606742046634,-3,-1,3,2,-1,-6,1,-4
1522606742046634,8,1,-1,-1,2,0,2,14
1522606742046634,7,12,2,-4,-7,1,-6,-4
1522606742046634,0,-6,-8,-4,-2,-3,16,10
1522606742068693,-9,-5,-2,1,-7,-3,-9,-15
1522606742068693,0,-7,8,2,2,10,-2,-6
1522606742069696,-5,2,4,1,-2,-8,-1,-5
1522606742069696,10,-6,-4,-1,-1,-2,6,19
1522606742090752,2,12,2,1,3,0,-5,10
1522606742090752,-4,1,-11,-3,4,-3,-10,-16
1522606742091754,-1,1,2,-2,-12,-12,12,2
1522606742091754,-7,-13,-9,-5,-2,17,-20,-23
1522606742105792,6,5,-2,-12,-8,0,-23,5
1522606742105792,0,12,8,7,3,-4,14,-14
1522606742106794,-5,-9,-2,1,4,-6,-20,0
1522606742106794,-8,6,4,1,2,-8,-4,-7
1522606742128853,-6,-13,-6,-3,-3,1,-4,-20
1522606742128853,-7,-7,-4,-7,-4,-1,-6,-8
1522606742129856,-10,-9,-8,-3,1,4,7,-7
1522606742129856,-5,-4,3,-1,-9,4,19,16
1522606742150912,-4,-3,2,0,3,1,17,-2
1522606742150912,1,3,0,-2,-6,-1,-14,-18
1522606742151914,4,2,-5,0,-2,-8,-6,5
1522606742151914,-1,-2,-5,-2,5,-8,0,-4
1522606742165952,9,3,13,8,1,-3,4,16
1522606742165952,3,7,2,-4,-4,0,15,1
1522606742166956,-12,-3,-2,-4,0,18,0,2
1522606742166956,-11,-4,-8,-2,-1,-4,-3,-13
1522606742189013,-3,-12,-1,3,3,-1,-6,-16
1522606742189013,3,3,0,1,-4,-8,10,14
1522606742190016,0,4,-2,-2,0,0,3,-7
1522606742190016,-3,-1,1,-2,5,4,-1,8
1522606742211072,-9,4,-2,-6,-11,-9,-11,-6
1522606742211072,-13,-11,-2,4,4,7,25,0
1522606742212074,-3,-3,-2,-1,-3,1,5,-17
1522606742212074,7,3,-4,-3,-4,-17,-23,-9
1522606742226112,-5,-4,-3,-2,1,1,-9,1
1522606742226112,5,5,0,-2,-5,-6,6,22
1522606742227115,-6,-2,-2,0,3,9,-27,-27
1522606742227115,1,-4,2,1,-3,-2,4,-11
1522606742249173,0,-7,-2,-2,-5,0,-8,-1
1522606742249173,0,-6,-7,-1,3,3,-11,-4
1522606742249173,4,1,1,2,1,2,8,25
1522606742249173,-9,2,6,-2,-2,-10,-7,-25
1522606742271232,2,-3,-5,0,3,1,15,21
1522606742271232,-18,-24,-13,-3,-4,6,-5,-23
1522606742272234,4,3,0,0,5,-1,14,7
1522606742272234,3,-1,12,3,2,0,-28,2
1522606742286271,9,7,0,-1,7,-2,22,11
1522606742286271,-15,-12,-2,3,-5,-3,-25,-9
1522606742287274,11,16,-3,2,1,-3,20,12
1522606742287274,-17,-16,-5,0,-2,2,-20,-12
1522606742308330,14,5,6,2,5,2,4,15
1522606742308330,5,8,0,-3,-1,-6,10,-12
1522606742316352,-16,-18,-8,-7,-5,-2,3,-14
1522606742316352,1,7,0,7,3,-3,3,19
1522606742331392,-5,-8,-4,-2,-2,-1,-15,-19
1522606742331392,-4,-4,-3,-7,-1,6,4,6
1522606742332394,-5,0,2,1,-1,-3,-6,-3
1522606742332394,8,6,0,-3,0,5,18,4
1522606742354453,1,-3,-3,1,-3,-10,-15,-18
1522606742354453,6,8,5,2,-5,-9,-3,13
1522606742355455,4,-7,1,2,2,5,-7,10
1522606742355455,1,9,0,0,-2,8,25,2
1522606742368490,1,4,-4,-1,0,9,-4,-1
1522606742368490,-12,7,0,-3,-5,-12,-3,1
1522606742376511,-2,-4,-5,2,5,-10,-22,12
1522606742376511,5,-14,-2,0,-1,11,20,19
1522606742391551,-4,14,9,2,2,3,-7,4
1522606742391551,7,10,6,3,2,0,-3,12
1522606742391551,7,-10,-6,-7,-9,5,11,5
1522606742391551,1,-1,-8,-2,1,-5,-21,6
1522606742414613,-6,-6,-1,3,1,0,9,-7
1522606742414613,10,0,1,-7,-2,-4,-12,12
1522606742415615,-4,10,4,2,3,6,5,-18
1522606742415615,6,4,2,-1,-1,-6,1,12
1522606742427647,-5,-4,-4,-2,-2,3,4,6
1522606742427647,1,0,-4,0,1,-10,-7,7
1522606742436672,15,-1,4,2,-7,-3,1,9
1522606742436672,-5,-16,1,2,11,19,27,-6
1522606742450709,-5,9,1,-8,-18,-6,6,1
1522606742450709,5,7,3,2,0,-3,-6,-6
1522606742451711,-3,3,-6,-8,-4,-3,-8,12
1522606742451711,-5,-1,-3,4,0,-3,12,12
1522606742473770,2,-14,-1,-1,9,9,-1,11
1522606742473770,2,0,-4,0,-3,-1,1,0
1522606742474773,3,8,10,-2,-2,-11,14,-6
1522606742474773,-2,4,-2,-6,-9,6,-24,2
1522606742487807,-3,-6,-9,-1,0,-13,6,-11
1522606742487807,7,9,-4,0,-1,2,-3,0
1522606742495829,-15,-21,-1,1,1,-9,-5,-14
1522606742495829,-5,4,-1,-8,-5,-3,15,4
1522606742510869,-3,-1,-2,3,1,-1,-1,-25
1522606742510869,-5,-9,3,1,9,4,-4,2
1522606742511872,6,3,-5,-2,-3,3,-7,-4
1522606742511872,6,3,-1,0,-5,-3,10,-25
1522606742533930,-4,5,4,-3,2,8,-23,-25
1522606742533930,3,-13,4,3,-2,-2,-2,-5
1522606742534933,-4,8,-4,-5,-2,-5,-15,0
1522606742534933,-10,-10,3,0,3,-7,-3,-20
1522606742547967,4,0,1,0,-2,-9,8,2
1522606742547967,-6,-6,-8,-2,-5,8,0,-6
1522606742555989,3,1,2,-4,-1,0,-38,4
1522606742555989,-8,-1,-7,-1,-1,-9,-18,-8
1522606742571029,-8,-2,-9,-5,-4,-1,0,-14
1522606742571029,5,6,9,0,-1,2,18,31
1522606742572031,4,-7,5,13,5,-3,-19,-35
1522606742572031,2,14,-2,-3,-1,-15,13,3
1522606742594090,-3,-8,0,0,4,29,-22,7
1522606742594090,5,6,-1,-2,-8,-4,8,1
1522606742594090,7,7,0,-5,-7,-1,14,23
1522606742594090,-9,-11,-1,5,6,-15,-13,-5
1522606742617151,3,-2,-1,-5,3,4,6,22
1522606742617151,-2,2,-5,-3,-5,1,-2,-4
1522606742618154,-9,-14,1,1,0,-4,2,-26
1522606742618154,4,11,3,-1,-2,2,17,14
1522606742631189,5,6,-1,2,0,-8,4,5
1522606742631189,0,5,-4,-8,-5,3,9,1
1522606742632193,6,1,-2,2,0,-4,-10,13
1522606742632193,0,-6,-4,-3,-1,3,-5,-12
1522606742653247,-1,-2,-3,1,-3,3,10,6
1522606742653247,-4,4,5,-1,0,-5,-2,6
1522606742654250,-3,1,0,-2,8,1,1,-9
1522606742654250,6,-1,0,0,0,1,-6,-17
1522606742677312,7,3,1,0,-13,-12,-8,17
1522606742677312,-5,-12,-4,-1,0,-5,-12,-2
1522606742677312,-5,-1,-8,-12,-11,16,19,6
1522606742677312,5,-2,3,9,5,0,-11,1
1522606742691359,-4,3,4,4,6,-2,6,5
1522606742691359,-7,0,4,6,5,-8,-8,-3
1522606742692353,-6,-2,-6,0,-3,-3,-3,14
1522606742692353,8,5,1,-10,-4,20,6,0
1522606742713407,3,3,3,-1,-4,-10,23,15
1522606742713407,-7,-8,-4,1,-3,-9,-48,-31
1522606742714410,-2,4,7,4,2,2,20,-6
1522606742714410,-5,-9,-11,-5,-4,-6,-19,4
1522606742736469,-2,2,-4,-6,-1,7,-1,-2
1522606742736469,-3,1,1,0,5,0,15,-5
1522606742737471,-13,-3,-3,-5,1,-8,-3,-19
1522606742737471,4,-4,-9,1,-4,-1,8,0
1522606742751509,-1,2,8,6,-4,11,0,-5
1522606742751509,8,4,7,5,12,6,14,5
1522606742752511,4,1,-5,-6,-3,1,2,-11
1522606742752511,2,0,-1,3,1,-9,12,17
1522606742773567,-3,-4,-5,-4,8,-8,-16,-11
1522606742773567,-4,-4,-3,-4,-13,1,-7,-18
1522606742774570,2,0,3,5,-4,8,10,15
1522606742774570,-8,-3,-5,-5,-10,-4,-13,-12
1522606742796630,-3,-4,-1,0,4,-4,-1,-2
1522606742796630,4,-1,4,1,5,-2,12,6
1522606742797632,0,-2,-1,-4,-8,-9,-11,-4
1522606742797632,-7,-4,-3,-4,0,6,-3,4
1522606742811669,-2,-8,-4,0,3,-7,-15,-17
1522606742811669,-6,-2,-3,-3,-3,2,-6,-7
1522606742811669,2,4,-2,-3,-3,-1,18,15
1522606742811669,-4,-3,2,0,-3,-1,1,2
1522606742833728,15,6,7,3,3,-6,4,-2
1522606742833728,-10,-13,-12,-2,2,10,-12,-15
1522606742834730,-2,-3,3,4,2,-2,-9,-7
1522606742834730,-4,5,4,-2,-3,0,13,8
1522606742856789,-8,-10,-6,-4,-6,-10,-2,-12
1522606742856789,6,4,2,2,-2,1,7,16
1522606742857792,2,11,3,-3,13,14,-9,-17
1522606742857792,-2,0,1,6,5,-7,-14,-9
1522606742870826,-3,-4,-3,1,-8,7,22,8
1522606742870826,4,3,0,-4,-5,-14,-58,-2
1522606742871829,-2,-4,-2,7,-4,-7,2,-3
1522606742871829,9,4,1,-3,-3,16,9,6
1522606742893887,-7,-2,-5,-7,-4,-1,-12,4
1522606742893887,3,0,-9,0,2,4,24,15
1522606742894890,0,-6,3,2,8,-4,-1,3
1522606742894890,9,5,8,3,9,-2,2,2
1522606742916949,-1,7,1,2,-7,5,1,13
1522606742916949,-3,0,-4,-5,-4,1,11,-14
1522606742917952,-4,-2,-5,0,-4,-5,-6,7
1522606742917952,-4,-9,-2,-3,0,-2,5,-1
1522606742930986,7,11,0,5,1,-2,8,11
1522606742930986,2,-3,5,4,4,4,-13,-12
1522606742931989,-2,-3,2,-3,0,-9,-11,-2
1522606742931989,2,3,-6,-4,-1,8,-5,6
1522606742954047,0,-7,-6,-8,-1,-7,8,0
1522606742954047,3,4,3,7,0,4,10,11
1522606742955050,-2,-2,6,-3,-3,-4,8,9
1522606742955050,-5,2,1,3,2,5,-1,-1
1522606742977109,0,7,0,0,2,-8,-24,1
1522606742977109,12,0,-11,-10,-6,-4,16,2
1522606742978112,-8,0,3,0,-2,0,-6,-17
1522606742978112,-2,-10,-3,-2,2,-5,-9,-1
1522606742991146,-10,0,-5,0,1,4,10,-14
1522606742991146,4,4,11,-1,-2,9,20,17
1522606742992149,-1,-4,-2,0,-2,-1,-8,15
1522606742992149,-1,11,-2,-7,-6,-10,0,36
1522606743014208,-10,-4,2,3,2,-1,-8,13
1522606743014208,-3,-7,-5,-2,2,-5,9,-5
1522606743014208,5,0,-7,0,-1,5,13,-21
1522606743014208,3,-11,-1,2,0,-7,-1,-3
1522606743037269,-5,-4,5,-4,-6,7,-9,4
1522606743037269,-12,-5,1,-3,-1,-2,-2,-10
1522606743037269,-2,-1,-10,-2,-4,0,5,-19
1522606743037269,3,-7,-1,0,4,-3,-2,-5
1522606743051306,10,9,5,3,5,-4,2,-7
1522606743051306,-10,-11,-3,0,-4,-6,1,16
1522606743052309,-1,-1,-3,-6,1,-1,3,31
1522606743052309,3,4,0,0,-16,5,-9,-7
1522606743073365,-1,-3,-6,-2,-3,-7,-5,-8
1522606743073365,6,-1,6,2,3,7,2,-3
1522606743074367,-12,-5,-4,1,-4,-6,5,-24
1522606743074367,3,15,5,-1,-1,-5,-1,-21
1522606743096426,1,-10,-4,-1,-5,1,-8,-22
1522606743096426,1,1,1,4,9,-12,-11,-9
1522606743097429,-1,-10,-5,3,8,7,2,-1
1522606743097429,-2,1,-5,-4,-3,16,11,-6
1522606743119487,11,-2,1,3,-10,9,-19,2
1522606743119487,-8,9,3,-3,-2,-18,12,8
1522606743120490,10,10,9,3,1,-5,5,0
1522606743120490,-15,-6,-1,3,11,-7,-7,-5
1522606743133525,6,2,-11,-8,-4,3,7,6
1522606743133525,-1,-22,-7,-1,0,5,-3,8
1522606743134528,-1,1,7,2,-7,-9,-13,4
1522606743134528,14,5,-1,2,3,5,15,5
1522606743156588,-6,-3,0,2,8,-3,14,-2
1522606743156588,2,3,-3,0,-1,6,-14,-9
1522606743157593,2,-1,-3,-1,-7,0,-3,0
1522606743157593,3,-3,-2,-6,1,-4,5,11
1522606743171626,-2,-5,4,-2,-6,-3,-14,2
1522606743171626,0,1,0,0,2,10,5,-1
1522606743171626,4,2,-4,0,0,-4,2,13
1522606743171626,-3,-2,-3,-3,-8,-1,12,-23
1522606743193685,-4,-4,3,1,5,4,-32,0
1522606743193685,-1,10,-5,-6,-1,-5,-5,-11
1522606743194688,-4,-6,-6,-6,-2,-1,3,-6
1522606743194688,-12,-14,1,3,-4,-14,-37,1
1522606743216746,-2,-4,-4,-1,0,-1,35,-1
1522606743216746,1,14,2,-9,-2,4,-1,8
1522606743217749,0,0,8,17,3,12,-11,4
1522606743217749,-5,-4,-4,-4,0,-6,-3,-2
1522606743230783,-9,-4,0,0,-5,-3,5,-6
1522606743230783,-3,-7,-3,1,-5,-5,-1,14
1522606743231786,2,1,-7,-5,6,-10,-1,0
1522606743231786,-4,0,1,-2,0,12,1,3
1522606743253845,-9,-5,-3,-3,-2,7,8,-4
1522606743253845,2,1,0,-2,-4,-3,1,-25
1522606743260863,5,-3,-12,-7,-8,-4,-3,18
1522606743260863,3,7,13,2,5,-3,6,-5
1522606743276906,-13,-12,4,8,4,-4,-15,5
1522606743276906,0,-3,-4,-1,-5,2,-26,-6
1522606743277909,-7,-10,-6,-3,2,0,3,-10
1522606743277909,-1,1,-5,-6,-9,-3,4,-3
1522606743290943,12,12,-1,-2,1,-15,15,4
1522606743290943,-3,-10,-2,6,14,8,-5,-12
1522606743298965,-3,3,2,-2,-13,16,-7,-10
1522606743298965,-1,-1,-4,-1,-9,-25,12,20
1522606743314005,3,2,1,-3,-4,4,2,-8
1522606743314005,-2,-6,-13,-5,-3,-6,-5,2
1522606743315008,5,2,10,2,5,-2,0,1
1522606743315008,-10,-5,5,7,9,-5,1,-10
1522606743337066,-3,3,-2,0,-2,21,17,1
1522606743337066,-4,4,0,-8,-7,-1,12,14
1522606743338069,0,-8,-7,-8,-2,-6,0,-6
1522606743338069,-3,-4,-1,6,-3,3,-5,-8
1522606743350101,-1,-2,2,-1,11,-9,10,12
1522606743350101,1,4,5,5,0,6,-1,-2
1522606743359124,-2,-3,-1,5,-1,-3,2,-5
1522606743359124,3,6,-7,-6,-6,-10,-9,-4
1522606743374165,2,0,-1,-6,-10,-2,-30,-17
1522606743374165,12,7,5,6,20,2,3,21
1522606743374165,1,4,2,-3,-4,4,-2,6
1522606743374165,1,-3,0,5,-1,9,10,4
1522606743397226,-1,-3,-4,-2,2,-9,5,9
1522606743397226,-2,-10,0,-7,-18,3,-28,-9
1522606743398229,-3,9,-2,-4,1,-10,8,4
1522606743398229,6,3,0,0,4,11,3,9
1522606743410261,-3,-6,-1,0,-1,-2,2,6
1522606743410261,-2,-1,0,0,0,-9,13,-5
1522606743418282,3,-2,1,2,4,5,-3,-3
1522606743418282,-5,-12,-10,-5,-15,-2,-18,-17
1522606743433322,3,13,6,0,2,-4,4,0
1522606743433322,-4,-6,-3,-2,-2,-3,-5,-8
1522606743434325,-5,-1,-1,-1,-3,5,0,8
1522606743434325,2,-13,-5,-3,4,-4,-20,-4
1522606743457386,-3,4,-3,-2,-2,-6,-13,-10
1522606743457386,-1,12,8,3,-1,4,11,-3
1522606743457386,-10,-9,0,-2,-3,-6,-10,-12
1522606743457386,5,2,0,-1,3,0,25,9
1522606743470421,-2,-11,-7,-3,2,2,2,-9
1522606743470421,-4,-2,-2,5,4,2,13,3
1522606743478442,2,-2,-3,-3,6,-14,-7,-10
1522606743478442,6,5,2,-7,-13,27,-19,21
1522606743493482,-5,-7,0,1,0,7,10,-20
1522606743493482,-1,1,-4,-7,-5,-6,-26,0
1522606743494485,0,-2,0,0,0,-5,25,2
1522606743494485,-2,0,-3,-1,-2,-15,0,1
1522606743517546,9,13,2,2,0,3,-1,20
1522606743517546,-7,-2,1,0,-5,-6,16,-13
1522606743518549,1,-4,3,2,1,7,-21,-15
1522606743518549,8,13,3,-3,6,-2,10,3
1522606743530581,-3,-15,-6,0,-4,-2,-5,1
1522606743530581,3,2,-3,-1,4,-3,-3,-1
1522606743538602,-9,6,2,-2,-5,1,2,2
1522606743538602,-5,1,1,-1,-2,2,1,-7
1522606743553642,-1,-2,-2,-3,0,-11,4,0
1522606743553642,-2,-2,0,6,6,11,-3,3
1522606743554645,4,8,-3,-5,-3,-6,-23,14
1522606743554645,-1,0,1,-4,-11,0,4,-12
1522606743576703,-1,2,-2,-1,-1,4,-15,-2
1522606743576703,4,-6,-3,-5,-11,-4,-2,-3
1522606743577707,3,-6,-1,-3,0,13,4,6
1522606743577707,0,4,6,9,10,-11,8,7
1522606743599765,11,6,3,3,3,-2,-16,7
1522606743599765,-6,-3,-2,-1,-6,3,11,-1
1522606743599765,4,0,0,1,-1,-5,-5,4
1522606743599765,-1,-8,-2,2,-2,-4,8,17
1522606743613802,0,9,0,-5,1,22,-7,-21
1522606743613802,2,-5,4,-1,2,-21,17,8
1522606743614805,-4,3,-7,-4,-5,-7,-10,-1
1522606743614805,-2,-5,-3,2,4,7,-15,-5
1522606743635861,-2,4,5,2,-7,-3,-9,3
1522606743635861,3,3,-3,-3,1,4,18,6
1522606743636864,-3,-4,-3,-2,-8,-4,0,-11
1522606743636864,-1,-7,-2,2,2,-15,0,-12
1522606743659925,-5,7,1,-5,1,-3,-19,5
1522606743659925,0,-13,-5,-4,-3,16,-5,-3
1522606743659925,4,12,5,4,0,-3,16,0
1522606743659925,0,0,-5,-5,-2,-1,-6,-2
1522606743673962,-17,-7,-1,4,2,-10,-8,-10
1522606743673962,3,5,3,1,4,-10,-5,25
1522606743674971,-12,-15,-6,-1,-3,10,30,-10
1522606743674971,-4,-1,-6,-8,-1,3,-18,-4
1522606743696020,6,-10,1,1,-3,-3,20,-4
1522606743696020,-3,-3,-8,-2,-3,0,-2,-20
1522606743697023,-1,3,2,-1,-1,-6,-10,2
1522606743697023,-4,-1,0,1,5,-2,1,-1
1522606743719082,-1,-4,-6,-1,3,5,33,13
1522606743719082,14,1,4,1,-6,3,-26,-3
1522606743720085,-9,-1,-4,-2,0,-12,-21,-13
1522606743720085,-5,-3,-1,-2,-3,7,9,4
1522606743734122,9,13,-1,-5,-1,-4,-2,12
1522606743734122,-11,0,2,-1,-3,2,-21,-19
1522606743734122,8,2,6,-2,-4,6,0,12
1522606743734122,-4,-7,-6,-4,-1,-7,0,-10
1522606743756181,4,5,-2,2,-8,-6,2,6
1522606743756181,-9,0,3,-1,-3,-12,-1,-9
1522606743757184,1,-3,-3,-2,4,7,12,4
1522606743757184,-12,-6,-2,3,4,18,-1,-12
1522606743779242,-2,-1,2,-4,-9,-18,-22,2
1522606743779242,2,-1,4,4,3,3,5,3
1522606743780245,0,-2,-1,-1,3,-5,-22,4
1522606743780245,3,-3,-8,-7,-2,1,8,-7
1522606743793279,-3,8,2,1,3,-3,12,-4
1522606743793279,-17,-12,-8,-2,-4,4,2,-8
1522606743794282,-4,-7,4,-3,-5,-2,-31,6
1522606743794282,1,2,3,3,0,-3,-5,5
1522606743816341,-1,-1,-3,-4,-2,0,-1,-11
1522606743816341,11,9,3,-2,-9,-7,16,22
1522606743817343,6,1,-5,2,1,-12,5,-13
1522606743817343,5,-6,-3,-1,-4,2,-3,9
1522606743839402,-6,-18,-5,0,-4,6,-11,-12
1522606743839402,4,4,-4,-5,1,-11,32,3
1522606743840405,2,18,2,-6,0,19,10,16
1522606743840405,-2,4,4,3,-1,-20,-7,-1
1522606743853439,-5,-15,-2,3,4,10,-1,3
1522606743853439,-4,-11,-6,-1,-1,3,-14,-13
1522606743854442,3,-4,0,3,0,-8,16,-3
1522606743854442,-1,7,-6,-5,-3,-4,18,8
1522606743876501,1,5,5,-2,1,-4,-2,-19
1522606743876501,-6,1,3,4,8,6,-16,7
1522606743877504,0,-3,2,1,1,6,3,-12
1522606743877504,7,6,-2,-3,-10,-1,3,15
1522606743899562,3,-1,0,4,0,-2,5,-3
1522606743899562,-9,-5,-4,-4,-2,-6,-9,-15
1522606743900565,9,-1,-4,-1,2,-3,-1,-1
1522606743900565,-11,-10,1,2,2,9,-18,-5
1522606743913599,-1,7,-1,-9,0,-17,-22,8
1522606743913599,-5,5,0,2,-1,-5,2,-3
1522606743914602,-2,-7,0,1,0,7,8,5
1522606743914602,3,9,7,0,-7,4,7,-16
1522606743936660,-1,-9,-8,-4,-5,-3,-12,10
1522606743936660,1,7,-4,-5,4,7,7,0
1522606743936660,-2,0,1,2,-1,3,-3,-4
1522606743936660,-2,-3,2,4,1,-5,-1,-12
1522606743959722,-4,-1,1,4,2,6,19,11
1522606743959722,2,-5,-3,-3,-1,-14,-12,0
1522606743960725,5,2,-2,-3,-2,0,-5,0
1522606743960725,8,5,1,2,-3,0,-3,3
1522606743973759,-7,-4,-5,-1,1,-2,11,-14
1522606743973759,14,2,-3,0,0,2,21,23
1522606743974762,0,3,2,-1,1,-2,-24,8
1522606743974762,-4,-4,3,1,1,-1,-12,-10
1522606743995818,2,-1,2,2,5,8,-9,-4
1522606743995818,4,-5,1,-3,-1,-5,-4,9
1522606743996821,-8,6,-4,-3,3,-7,11,5
1522606743996821,-1,-7,-9,-3,-4,2,3,-4
1522606744019882,-5,-7,-6,-2,0,-8,-4,-10
1522606744019882,-10,-10,6,5,4,-1,-4,1
1522606744019882,-5,-5,3,0,2,16,3,-1
1522606744019882,-3,2,-1,-3,-2,-9,15,8
1522606744033919,2,-2,-5,-4,0,13,-8,8
1522606744033919,4,2,-4,0,0,5,-16,-21
1522606744034922,-3,-2,-1,0,-15,-25,20,14
1522606744034922,-3,3,2,2,3,1,-19,-13
1522606744055978,-3,1,1,-2,-1,-3,5,-1
1522606744055978,-2,2,-3,-3,-1,5,0,3
1522606744056981,8,2,0,-3,5,9,-12,4
1522606744056981,6,-2,-2,0,-11,-5,12,13
1522606744079039,1,1,-1,-3,0,-4,-4,5
1522606744079039,3,4,4,-1,-1,0,-1,-1
1522606744080042,-5,-5,-2,-2,-11,-2,21,-5
1522606744080042,0,-1,-1,1,3,4,-7,5
1522606744094079,-1,3,2,1,-3,1,-4,-18
1522606744094079,-1,-1,0,0,-3,-6,8,5
1522606744094079,6,4,-2,-2,-1,2,-9,0
1522606744094079,4,-7,-2,-1,7,-4,-4,-8
1522606744116139,-10,-2,-1,1,2,-1,7,7
1522606744116139,2,3,-4,-7,-13,4,-8,-1
1522606744117141,2,-5,-3,-2,-2,-8,-1,-12
1522606744117141,4,10,4,0,5,8,2,-4
1522606744139199,2,-4,1,-2,-4,-1,17,13
1522606744139199,-4,-4,2,5,3,-7,-22,9
1522606744140202,-8,-10,-5,0,5,1,-7,-11
1522606744140202,-6,-3,-2,-2,0,-5,7,1
1522606744153236,2,2,2,3,5,12,9,6
1522606744153236,0,-13,-8,-5,-14,-8,-4,-11
1522606744154239,-4,9,4,6,0,2,9,3
1522606744154239,-7,6,0,0,3,-5,-41,-4
1522606744176298,5,-4,-3,-3,-1,5,15,-4
1522606744176298,6,-5,2,2,4,-7,-10,-3
1522606744177301,-6,-3,2,1,0,6,-7,-12
1522606744177301,-7,2,2,-2,-9,-9,8,-1
1522606744199359,7,7,2,-1,3,0,0,5
1522606744199359,10,10,3,1,2,8,15,26
1522606744200362,-1,2,-8,-5,4,-14,4,-10
1522606744200362,-6,-10,0,2,2,17,-25,-6
1522606744213396,4,-14,-2,-4,-13,-2,-10,5
1522606744213396,-1,17,3,-2,4,2,6,4
1522606744221419,1,-14,3,0,3,-8,-7,0
1522606744221419,3,9,1,3,-3,1,31,10
1522606744236461,-8,-2,-6,-5,0,2,-8,-5
1522606744236461,-1,3,2,2,2,7,-9,-15
1522606744237461,-1,4,2,1,-1,-11,-1,15
1522606744237461,-7,-13,-9,-5,1,6,1,-10
1522606744259519,2,0,3,6,-6,-7,0,3
1522606744259519,-12,4,-1,-1,10,5,11,0
1522606744260522,0,4,1,0,-6,2,2,1
1522606744260522,-2,-9,-5,-5,-4,-6,-4,3
1522606744273556,-2,1,4,-1,2,-10,-8,-21
1522606744273556,-3,-9,-10,-8,-5,10,4,-8
1522606744281578,-3,-5,-1,2,1,-1,-1,0
1522606744281578,9,6,4,2,-2,-10,2,9
1522606744296618,0,-1,-7,-4,1,0,2,-10
1522606744296618,-3,-14,-4,-5,-6,-5,-8,-10
1522606744296618,0,-10,1,-2,-12,-4,13,-4
1522606744296618,0,12,-3,-1,1,3,0,6
1522606744319679,-3,3,1,-4,-3,0,-2,-6
1522606744319679,-2,-3,-2,0,-2,-3,-2,-14
1522606744320682,4,-5,-3,2,0,3,-7,-6
1522606744320682,-4,1,-1,-2,2,-6,9,-17
1522606744332714,-6,0,-3,0,6,10,16,18
1522606744332714,-1,-4,3,1,-10,-26,6,-4
1522606744341738,3,7,2,-2,-6,11,-23,-13
1522606744341738,0,0,1,1,-4,-3,-4,2
1522606744356779,1,11,2,1,6,5,-10,3
1522606744356779,0,-5,1,0,-3,-2,-1,-1
1522606744356779,-3,-9,-9,-2,0,3,31,15
1522606744356779,-6,-20,-5,0,0,-10,-29,-20
1522606744379839,0,-23,-5,3,-3,-2,-3,5
1522606744379839,-3,21,4,-4,8,9,9,22
1522606744379839,0,14,4,-3,-5,-1,-22,-7
1522606744379839,8,2,-1,2,12,7,39,23
1522606744392874,1,-8,-6,-2,-15,-7,-4,0
1522606744392874,2,10,7,3,-1,2,-6,-11
1522606744400895,0,0,-3,-3,0,-6,10,12
1522606744400895,-7,-5,-4,-4,-1,-2,0,-11
1522606744415935,2,1,-1,1,11,-9,-9,8
1522606744415935,1,4,-2,-3,-15,7,-3,-3
1522606744416938,-12,-3,-8,-1,-2,1,4,-8
1522606744416938,17,-1,10,2,-1,-2,1,16
1522606744438996,-4,6,8,6,8,6,8,-19
1522606744438996,5,15,1,-1,2,1,-11,15
1522606744439999,-9,-8,-5,-2,-3,-3,-16,-16
1522606744439999,-7,0,0,-7,-9,1,2,-8
1522606744453034,5,-7,-4,0,-8,-16,-7,1
1522606744453034,-1,3,1,-1,2,-1,11,-29
1522606744461055,8,4,1,-2,5,-3,-54,9
1522606744461055,3,1,-2,-5,-7,4,7,6
1522606744476095,0,0,-3,-5,-9,9,-8,-10
1522606744476095,1,-12,-2,4,3,-6,-1,-2
1522606744477099,-4,1,-4,-1,2,-14,12,-9
1522606744477099,-13,-34,-6,2,5,7,-14,-13
1522606744499156,-2,28,5,-5,2,4,-1,10
1522606744499156,1,-6,-2,2,5,-3,3,3
1522606744500159,4,-5,1,-6,-3,0,8,-9
1522606744500159,6,13,1,6,1,-5,6,7
1522606744522218,0,-2,0,-2,0,-6,-9,4
1522606744522218,2,-3,-1,-1,3,6,-3,11
1522606744523220,-6,-8,-2,0,0,2,1,-13
1522606744523220,1,10,1,-1,1,-4,10,2
1522606744536255,8,5,5,2,-4,-7,2,8
1522606744536255,-9,-4,-2,1,18,14,3,2
1522606744537258,-2,-14,-5,-2,-12,16,12,18
1522606744537258,9,13,-1,-2,-14,-21,-10,-6
1522606744559316,4,1,1,3,3,-12,-2,-8
1522606744559316,-3,-12,-8,-6,-6,-3,3,0
1522606744560319,11,0,8,5,1,12,18,17
1522606744560319,-18,-14,-6,-4,-1,1,-21,-30
1522606744582378,2,12,0,-3,-8,-9,8,-11
1522606744582378,-7,-11,-6,-2,3,-3,19,8
1522606744582378,0,-3,-4,0,5,-1,-9,-15
1522606744582378,3,13,8,2,-2,1,-1,12
1522606744596416,-2,-11,-2,-2,2,3,8,-6
1522606744596416,-2,-2,-2,1,-6,-3,-17,-4
1522606744597418,-1,6,1,-1,0,-1,6,16
1522606744597418,-2,-5,1,5,3,-13,-2,-6
1522606744619476,9,-4,-1,3,12,18,19,12
1522606744619476,-13,4,-1,-5,-19,4,-6,-9
1522606744620479,-1,8,2,4,3,-8,4,6
1522606744620479,4,13,-1,-7,-2,5,-8,-2
1522606744641535,-3,-2,0,-1,1,0,15,16
1522606744641535,-1,-10,-2,-1,-2,-12,-32,-4
1522606744642538,-1,-6,-6,-5,-1,-17,12,-19
1522606744642538,-2,4,4,5,7,11,11,2
1522606744656575,-3,0,-3,-2,-17,5,3,13
1522606744656575,9,-1,-3,-1,3,-4,13,3
1522606744656575,-4,3,0,2,3,0,-15,-12
1522606744656575,2,-10,2,-3,1,2,-9,5
1522606744679636,3,2,-5,-3,1,-2,4,3
1522606744679636,-10,-6,-6,-2,-2,0,-2,-3
1522606744680639,1,-1,1,2,2,-3,16,10
1522606744680639,2,6,-1,-2,-3,2,0,-3
1522606744701695,-11,-4,2,-1,-1,-9,-30,-28
1522606744701695,4,0,-3,-1,1,-6,9,2
1522606744702698,-6,-4,2,3,2,-1,1,-3
1522606744702698,-5,-5,-4,-4,2,16,-3,15
1522606744716736,-6,-9,-4,-3,-4,0,2,1
1522606744716736,8,2,4,2,9,-13,-5,-5
1522606744716736,-9,-10,-6,-3,-2,8,-16,-9
1522606744716736,1,6,1,-1,-10,15,13,-4
1522606744738794,-1,1,-3,-5,-3,-29,-26,8
1522606744738794,-1,-3,-1,1,5,-3,-4,-4
1522606744739796,5,10,4,0,0,11,-1,-13
1522606744739796,-2,-5,-2,2,-7,-13,13,18
1522606744761855,0,3,-1,-2,2,8,-16,-13
1522606744761855,0,-10,-5,3,-4,-4,5,0
1522606744762858,-2,-2,1,0,3,-2,-5,9
1522606744762858,-3,-2,-2,1,6,2,3,-8
1522606744775892,1,-8,1,0,0,-1,4,-10
1522606744775892,-1,10,3,-5,-4,-6,-2,4
1522606744776896,5,3,-2,-6,-5,6,-6,2
1522606744776896,-6,-6,-3,-2,-6,-11,-11,-7
1522606744798954,-3,-2,-2,2,4,3,4,14
1522606744798954,-1,8,2,0,-3,8,-9,0
1522606744799956,-2,-6,0,3,2,-5,-4,1
1522606744799956,-6,-1,-9,-4,-3,-5,3,-10
1522606744822015,-1,5,5,-1,0,-3,7,-16
1522606744822015,4,1,3,0,-2,3,10,-4
1522606744823018,1,6,1,-1,-3,6,-11,8
1522606744823018,5,-3,0,2,7,5,-4,8
1522606744836053,-1,-4,-3,1,-4,-24,-29,-10
1522606744836053,-1,-1,0,2,2,4,13,14
1522606744837055,-9,-7,-4,-4,-2,-14,-1,-3
1522606744837055,-5,-4,-3,-3,-2,15,-8,-11
1522606744859114,-10,-4,-2,-1,-7,-11,1,-5
1522606744859114,3,2,1,-1,-7,8,8,-4
1522606744859114,6,-7,-4,2,1,-9,-11,12
1522606744859114,1,15,3,-4,0,-4,-5,1
1522606744882175,-3,-8,0,2,3,2,8,6
1522606744882175,10,-4,-4,0,1,2,-1,2
1522606744883178,-17,-2,1,0,-8,7,19,-13
1522606744883178,0,-4,-4,-3,-3,-16,-20,-3
1522606744896212,8,4,1,2,8,30,11,-9
1522606744896212,2,2,-2,2,-1,-16,-17,-1
1522606744897215,7,1,-1,-2,-1,4,11,7
1522606744897215,1,0,5,5,6,-11,-4,2
1522606744919274,-9,4,-2,-6,-12,-4,2,-8
1522606744919274,-1,-6,-2,0,-1,4,-1,-1
1522606744919274,-5,2,-4,-4,-3,-5,-5,-18
1522606744919274,3,5,3,2,2,-9,26,19
1522606744942335,10,-7,-5,1,2,10,8,-9
1522606744942335,-16,-7,-1,-2,-4,-3,-25,-11
1522606744942335,3,3,2,1,4,5,1,11
1522606744942335,7,9,1,0,2,-9,15,1
1522606744956373,1,-3,-9,-5,-8,14,10,13
1522606744956373,-3,1,5,2,1,-5,-18,-20
1522606744957375,-1,-1,-1,-3,-7,-12,2,1
1522606744957375,4,1,-5,-2,1,17,5,2
1522606744978431,-24,-16,-7,0,-2,-10,-22,1
1522606744978431,-4,4,4,0,1,-6,12,-19
1522606744979434,7,3,3,1,8,0,-5,8
1522606744979434,4,-5,-4,-2,-4,15,4,6
1522606745001492,0,1,1,3,-6,-3,-28,-10
1522606745001492,0,-7,-3,1,-2,-8,6,21
1522606745002495,-5,5,-4,0,0,3,-4,-22
1522606745002495,5,2,3,3,1,-10,-12,-1
1522606745016532,0,-1,-4,-6,7,10,9,2
1522606745016532,-13,-2,-2,-3,-4,13,9,-5
1522606745017535,8,2,2,5,11,2,0,11
1522606745017535,-10,-13,-9,-2,-2,-5,-6,-16
1522606745038591,3,14,5,3,-2,-2,-3,4
1522606745038591,6,-1,1,-2,-1,1,4,12
1522606745039594,12,8,-2,-6,0,-2,11,21
1522606745039594,-17,-3,3,3,1,-2,-7,-25
1522606745061652,1,-5,0,-2,1,-3,19,11
1522606745061652,-1,-2,-2,0,3,-5,-17,-5
1522606745062655,-4,-4,-5,-6,-6,7,-5,2
1522606745062655,4,-2,2,-2,1,-4,-2,9
1522606745076693,16,4,-2,0,3,-8,17,23
1522606745076693,-3,9,6,3,-2,2,8,-2
1522606745076693,-3,-6,-6,-2,-3,12,5,8
1522606745076693,-3,-13,-5,0,-6,-18,-17,-24
1522606745098751,4,5,-1,-2,-1,4,8,-3
1522606745098751,11,16,6,0,3,-3,8,12
1522606745099754,-7,-7,8,1,-1,-5,-14,-10
1522606745099754,-1,1,0,0,2,17,15,7
1522606745121812,0,0,1,-1,-3,-17,-10,13
1522606745121812,-4,-18,-16,1,-4,-4,-10,-14
1522606745122815,-4,7,3,-1,-3,-15,-11,-10
1522606745122815,2,4,4,2,-3,10,-8,-5
1522606745135849,-10,2,0,-5,-2,8,12,-15
1522606745135849,7,0,1,-2,1,1,4,19
1522606745143871,6,3,-2,-2,-5,-8,-1,-2
1522606745143871,2,-8,-7,3,3,-2,-1,-1
1522606745158911,-14,1,-2,-2,-1,-10,-12,-14
1522606745158911,-7,7,6,0,1,10,-5,-9
1522606745159914,2,-10,-6,-4,-4,2,24,8
1522606745159914,-1,-4,0,-2,0,-1,7,-3
1522606745181972,9,-6,-5,-1,0,1,-12,-11
1522606745181972,-3,-12,-7,-1,-5,-6,13,-3
1522606745182975,-1,-7,3,3,2,-2,-12,-18
1522606745182975,-5,5,-6,-2,-1,-5,-8,5
1522606745196010,-3,-11,-1,-5,-1,2,7,4
1522606745196010,-5,-6,-1,-1,-4,0,4,8
1522606745204031,2,-3,-4,0,0,3,-6,-6
1522606745204031,-7,-15,-6,-4,2,-9,-3,-5
1522606745219071,1,18,4,2,6,3,2,1
1522606745219071,6,5,2,-1,3,6,5,7
1522606745219071,-5,-2,4,3,-2,3,-14,-2
1522606745219071,8,8,0,1,-2,-2,2,5
1522606745242133,-10,-6,-4,0,-4,-13,3,-6
1522606745242133,-3,-2,0,-3,3,2,2,6
1522606745243135,0,5,0,1,-2,10,-5,2
1522606745243135,-5,-4,-3,-1,0,3,9,-8
1522606745255167,6,-5,-1,-1,-6,-3,-32,-3
1522606745255167,-6,-1,-8,-6,-5,-8,-6,5
1522606745264191,-1,2,3,3,6,-1,-1,1
1522606745264191,13,1,2,-5,-3,13,-11,12
1522606745279231,-11,-12,2,1,-11,-17,21,-8
1522606745279231,4,0,1,-2,-1,-2,-10,1
1522606745279231,-5,1,-7,1,-4,-19,-17,0
1522606745279231,-7,-1,-1,-5,-4,10,15,-9
1522606745302292,6,11,1,2,7,16,5,18
1522606745302292,5,2,-2,-1,2,-1,2,-1
1522606745302292,-2,-3,2,-2,-1,-4,6,-9
1522606745302292,-5,2,0,-1,1,-9,3,11
1522606745315327,6,5,2,-1,0,3,-18,-5
1522606745315327,-7,-10,-6,1,0,-8,0,-20
1522606745323348,2,-6,-7,-1,-6,-5,-9,-4
1522606745323348,-10,4,6,-3,-3,-5,28,2
1522606745338388,10,0,4,5,3,14,-9,-1
1522606745338388,-2,9,0,0,-3,-6,-7,-5
1522606745339391,2,-7,-5,-1,2,-4,-5,-1
1522606745339391,7,13,3,2,2,-5,-10,10
1522606745361450,-1,-4,1,1,-9,3,15,-5
1522606745361450,4,3,1,1,6,4,2,7
1522606745362452,-11,-3,-3,-1,0,-5,8,-18
1522606745362452,0,-18,-10,0,-2,6,-4,7
1522606745375487,-3,4,4,1,12,-9,-38,8
1522606745375487,-2,2,-1,-6,-15,1,-5,-10
1522606745383508,-3,-4,0,-1,-2,1,9,13
1522606745383508,-9,-4,-3,-4,-4,-4,-3,1
1522606745398548,1,-6,-5,-1,1,5,13,9
1522606745398548,0,-1,0,-3,-4,-2,5,-5
1522606745399551,2,14,-1,0,2,-15,-1,-4
1522606745399551,9,0,3,4,13,32,10,-18
1522606745421609,-11,-9,-4,-7,-16,-10,5,1
1522606745421609,-1,-1,-1,-4,-3,10,-3,11
1522606745422612,0,-2,4,1,-5,-5,6,-2
1522606745422612,4,1,-5,2,2,-17,-7,10
1522606745435647,-6,4,4,-1,5,13,5,-6
1522606745435647,3,-6,-3,0,-2,1,-3,-13
1522606745443668,0,-6,-3,-4,0,7,-9,-3
1522606745443668,-3,0,-2,0,3,0,12,-15
1522606745458708,12,3,-1,-1,-4,-7,-13,3
1522606745458708,-13,-10,-1,5,-1,-9,0,-2
1522606745459711,-4,-1,0,-2,-4,3,-5,2
1522606745459711,-3,-2,0,-1,-2,-20,-4,5
1522606745481770,7,1,-5,-3,9,26,1,-5
1522606745481770,4,-1,-3,-5,1,4,-9,-13
1522606745482772,-6,-1,2,1,-4,-1,7,1
1522606745482772,-3,6,1,-1,-10,-16,-12,1
1522606745504831,-1,-1,-2,3,3,-5,-20,3
1522606745504831,12,5,-1,-1,-3,-5,3,-2
1522606745504831,5,0,4,1,8,18,0,6
1522606745504831,-1,-4,-3,-3,-2,8,-18,-4
1522606745518868,-4,-4,-5,0,-4,-22,6,2
1522606745518868,-2,-5,-2,2,4,9,3,3
1522606745519871,3,-1,-2,-4,-6,-5,12,3
1522606745519871,-6,6,0,-1,1,4,-1,-11
1522606745541930,-2,-2,-2,1,0,2,5,-6
1522606745541930,11,9,2,-6,-1,4,1,17
1522606745542932,-8,-2,0,0,2,-2,14,6
1522606745542932,-5,-6,-1,1,-1,6,-2,10
1522606745563988,2,-1,-2,-3,-1,-8,2,-13
1522606745563988,-3,-4,-2,-1,3,-17,-8,-17
1522606745564991,2,2,-5,-2,0,10,-6,-1
1522606745564991,6,0,4,-1,-14,2,11,11
1522606745579028,-4,-4,-2,-1,-5,2,-16,2
1522606745579028,-4,-2,1,1,2,-2,-2,-20
1522606745580031,-5,-3,-3,2,9,-14,-11,-21
1522606745580031,5,7,-4,0,1,3,-8,-5
1522606745602090,1,3,0,0,-10,-5,14,16
1522606745602090,-1,-6,1,-4,-7,7,2,7
1522606745603092,1,-4,1,0,-3,-2,-1,-7
1522606745603092,7,3,4,2,8,8,-12,5
1522606745624148,-15,-10,-9,-5,1,-28,-1,-14
1522606745624148,1,1,-4,-1,5,5,4,13
1522606745625151,6,7,0,-3,-9,-6,-15,-6
1522606745625151,-7,-11,-2,-4,-5,4,6,7
1522606745639188,12,5,9,4,0,3,-3,1
1522606745639188,-4,-2,-1,1,7,-2,3,-3
1522606745639188,5,-2,-1,0,-2,10,-8,17
1522606745639188,-2,11,3,-5,4,5,5,3
1522606745662250,-6,-6,-7,-4,-10,-1,-5,-19
1522606745662250,5,6,9,5,3,-6,13,14
1522606745663252,-10,-5,0,2,-1,4,-5,-25
1522606745663252,7,8,2,0,-6,-12,-18,11
1522606745684308,-19,-15,-7,-4,5,-8,-9,-19
1522606745684308,-2,1,-3,0,1,19,10,8
1522606745685311,-9,-14,-6,-4,-2,-6,-7,1
1522606745685311,1,-4,-1,2,-3,-6,-8,-15
1522606745698346,-2,-3,-2,-1,-8,4,13,15
1522606745698346,-1,7,0,-3,-9,-31,-9,11
1522606745699348,-5,-3,-4,-7,-3,16,7,14
1522606745699348,-6,-7,0,3,4,-19,-3,-12
1522606745722410,17,16,8,-2,1,14,8,15
1522606745722410,-12,-11,3,8,6,3,-3,-13
1522606745722410,-4,15,-4,-3,-9,-5,-8,15
1522606745722410,-1,-15,-5,0,-1,-6,18,9
1522606745744468,7,-3,0,1,1,2,6,0
1522606745744468,-4,4,-2,1,-1,2,-10,-11
1522606745745471,-9,-4,-1,0,10,-12,0,-22
1522606745745471,-8,-2,-7,-7,-10,5,-13,-11
1522606745758506,4,5,-3,-1,0,3,13,7
1522606745758506,-5,-16,-3,-2,-2,-2,-2,7
1522606745759508,-6,7,8,2,0,-7,-1,-35
1522606745759508,2,1,-5,-7,-4,-8,3,11
1522606745781567,-9,-5,-2,-3,-3,19,5,2
1522606745781567,-7,-10,-6,-3,-7,-27,-7,-6
1522606745782570,10,16,-1,1,4,2,10,8
1522606745782570,10,5,6,1,2,-4,12,-3
1522606745804628,-4,3,-2,-1,2,0,-16,-19
1522606745804628,7,1,2,3,-3,1,5,3
1522606745805631,7,-2,-1,0,-2,12,9,29
1522606745805631,-1,0,-3,-2,-1,-3,-2,-45
1522606745818666,2,4,-1,-2,1,-3,-11,7
1522606745818666,-4,0,-4,-6,-1,-1,1,2
1522606745819668,2,-2,1,4,-2,-9,-2,-3
1522606745819668,8,-1,0,5,4,12,-5,8
1522606745841727,1,2,3,-2,-9,4,3,5
1522606745841727,-1,-1,-3,-3,-2,-4,-11,-13
1522606745842730,0,-8,-7,-7,-5,1,-1,9
1522606745842730,4,5,0,4,1,-7,-4,10
1522606745864788,-4,-9,4,4,-2,-1,3,-20
1522606745864788,-2,10,0,-1,-6,-4,1,22
1522606745864788,-1,-13,0,1,11,12,-10,3
1522606745864788,5,9,-5,-7,-4,-3,-5,-3
1522606745878826,-2,6,6,7,12,9,7,10
1522606745878826,-1,-4,-4,-5,-8,-14,14,-5
1522606745879828,10,-5,-4,2,3,0,-3,1
1522606745879828,-12,9,5,-1,3,-1,17,-2
1522606745909908,5,-5,-5,1,3,0,1,2
1522606745909908,-8,-4,2,-2,1,9,-14,-17
1522606745909908,-5,-5,-3,-3,-1,-9,-9,-14
1522606745909908,0,-7,0,-2,-8,9,9,10
1522606745924948,0,3,-1,1,1,-5,-8,-4
1522606745924948,11,-3,-4,-1,-3,4,-1,-4
1522606745924948,-7,10,2,-5,-9,-10,2,-2
1522606745924948,1,-3,-1,3,1,9,1,0
1522606745937983,-10,-9,-6,-5,2,-13,-5,-5
1522606745937983,7,9,4,-3,-7,4,-6,14
1522606745946004,0,-2,-4,1,1,-5,-5,-18
1522606745946004,-9,-4,1,-5,-6,-1,-10,9
1522606745961044,1,8,2,-2,4,1,17,7
1522606745961044,-1,-8,-2,3,4,-3,-2,-21
1522606745962047,-3,1,-1,4,-2,6,-5,5
1522606745962047,9,7,1,-2,2,-3,-1,9
1522606745984105,-5,-5,-4,0,-3,1,7,1
1522606745984105,3,0,3,-1,-2,0,-22,1
1522606745985109,-13,-6,0,-1,-1,-1,8,-9
1522606745985109,-2,-2,-3,2,0,3,-8,8
1522606745999146,4,2,-2,0,5,0,7,-1
1522606745999146,-5,4,4,1,6,2,-1,-5
1522606745999146,3,3,2,-2,-5,-2,5,-7
1522606745999146,0,-4,-3,1,1,-1,-11,-2
1522606746021204,-5,-4,-2,-3,-7,-25,-2,4
1522606746021204,2,5,-1,5,5,3,-6,2
1522606746022207,9,-5,-1,-3,-2,0,24,19
1522606746022207,2,8,1,1,1,-2,-7,-15
1522606746044266,-1,5,-2,-3,-1,2,-1,1
1522606746044266,-2,-9,-1,-1,-1,6,-1,-2
1522606746045268,3,1,-2,-2,2,-5,-3,13
1522606746045268,-12,-11,-3,-2,-7,-2,11,-24
1522606746058303,6,5,3,2,4,-1,-1,12
1522606746058303,-1,-6,-8,-7,3,7,-7,-9
1522606746059305,2,2,3,3,-4,-4,-3,10
1522606746059305,3,-1,-1,-2,-4,-7,11,-9
1522606746081364,-7,-4,-1,-4,-7,-4,-16,-11
1522606746081364,-6,-2,0,-1,-6,1,-2,5
1522606746082367,-10,1,1,0,4,2,3,-18
1522606746082367,3,-3,-5,-1,-2,-9,2,13
1522606746104425,4,0,0,2,-1,-1,-6,-4
1522606746104425,-6,-2,-4,-1,1,3,14,-5
1522606746105428,-16,-14,-9,-1,-4,-16,-13,-15
1522606746105428,1,-1,1,1,1,7,-12,6
1522606746118463,-3,-7,0,1,6,3,-9,0
1522606746118463,-3,-4,-4,-5,-8,-1,-26,-5
1522606746126484,7,-1,0,-1,3,-1,1,0
1522606746126484,-12,-4,-2,-2,6,-15,-3,-7
1522606746141524,11,7,6,1,-8,13,2,9
1522606746141524,2,-2,-4,-6,-7,4,4,-5
1522606746142527,9,3,-1,-3,-10,-23,-3,-2
1522606746142527,-1,-8,-4,-2,1,-7,-13,-2
1522606746164585,6,0,-3,-1,-4,1,10,-6
1522606746164585,-2,4,3,1,5,14,-9,3
1522606746165588,0,-2,0,-3,-2,7,10,12
1522606746165588,1,9,2,0,4,2,8,1
1522606746178623,-4,-2,-1,-1,-1,-8,2,-3
1522606746178623,4,-1,-2,-2,-1,-6,3,-8
1522606746186644,12,-1,-1,4,6,2,-3,9
1522606746186644,-9,-1,0,0,5,15,-7,0
1522606746201684,-2,-6,-4,-1,-2,-5,7,7
1522606746201684,-2,2,0,-1,2,7,-1,7
1522606746201684,-1,3,1,0,-1,2,4,-2
1522606746201684,-5,-3,-4,-4,-3,-9,-3,-11
1522606746224745,-2,0,-1,1,-3,1,-8,-7
1522606746224745,3,1,-2,0,-3,-6,11,-12
1522606746225748,-5,-5,1,-1,3,8,-7,0
1522606746225748,6,2,5,-1,-3,2,1,10
1522606746237780,-1,-6,-4,1,6,-9,28,-8
1522606746237780,0,7,2,-2,-3,-7,-22,-1
1522606746246804,-12,-6,-5,-3,-16,12,-7,-14
1522606746246804,-1,-10,0,2,-1,-4,2,-16
1522606746260842,-3,10,4,-2,3,2,5,11
1522606746260842,-4,-9,-7,1,8,-1,14,9
1522606746261845,9,4,-9,-6,-6,7,5,-9
1522606746261845,5,8,4,0,-5,-15,-15,8
1522606746284905,-9,-13,-4,-2,0,-8,-5,-8
1522606746284905,-1,2,6,6,0,-6,2,8
1522606746284905,2,-7,1,0,11,18,8,-3
1522606746284905,-1,11,-6,-1,-10,-4,1,-1
1522606746297940,2,-2,-3,-1,2,4,-2,-5
1522606746297940,-1,-2,-1,-4,-10,-3,-3,-5
1522606746305961,-1,-1,2,0,4,-8,-22,8
1522606746305961,7,4,2,2,7,6,0,8
1522606746321001,-12,0,-1,-3,-12,-9,-14,-10
1522606746321001,3,-4,-4,-1,5,29,25,-6
1522606746322004,0,-3,2,1,-3,-23,-5,7
1522606746322004,2,-4,-2,-4,-3,0,17,0
1522606746344063,16,3,0,8,14,9,-14,-17
1522606746344063,-14,-7,-3,1,-2,-6,-11,-14
1522606746345066,-3,2,-1,-2,-4,3,5,11
1522606746345066,-4,-5,-3,1,4,-1,9,-1
1522606746358100,-2,-8,2,-1,7,2,-3,14
1522606746358100,3,0,1,-2,1,4,11,4
1522606746366121,-5,-2,-1,1,6,-1,-14,-13
1522606746366121,-2,-13,-5,1,-2,0,-2,6
1522606746381162,-7,11,-2,-6,-9,1,-5,-10
1522606746381162,7,2,3,1,0,-8,-2,18
1522606746382164,-9,2,-2,-2,1,-3,-5,-20
1522606746382164,5,3,1,0,5,2,-3,-1
1522606746404223,1,-7,0,-1,-12,-10,-5,-5
1522606746404223,-11,-8,-7,-4,4,8,15,-13
1522606746405226,2,10,-2,-6,-5,-2,-9,7
1522606746405226,5,0,0,0,-2,2,2,1
1522606746418260,-5,0,1,2,1,-3,-9,10
1522606746418260,-8,-5,-2,2,-3,-24,-7,-10
1522606746426281,3,-4,-5,-2,2,22,17,2
1522606746426281,-8,-13,-4,-4,-9,2,2,2
1522606746441321,-1,3,-1,0,0,16,5,5
1522606746441321,5,-1,5,2,3,-32,-16,-10
1522606746442324,0,12,1,0,-2,6,-6,4
1522606746442324,0,-11,-6,-4,-12,-4,1,-8
1522606746464383,3,2,2,1,-3,-4,13,11
1522606746464383,2,4,-1,0,-1,2,-30,4
1522606746465386,-3,-3,-2,3,4,-6,17,-6
1522606746465386,-1,4,3,-1,6,1,-5,-1
1522606746487444,2,-4,-4,-2,-1,6,5,3
1522606746487444,-3,0,-1,-2,0,-2,-2,8
1522606746487444,-5,-3,3,-2,-6,-6,-5,-19
1522606746487444,-7,-1,-5,-3,-4,7,1,3
1522606746501481,-2,0,0,-3,-2,-9,-7,-7
1522606746501481,3,0,-6,-8,-1,11,-9,2
1522606746502484,12,-1,1,2,2,-4,-3,-9
1522606746502484,0,5,1,-3,0,-6,15,-3
1522606746524543,-4,-5,-2,3,11,-5,-11,5
1522606746524543,-3,-4,-2,-4,-25,1,12,-1
1522606746525546,2,10,10,2,2,-1,11,12
1522606746525546,2,2,0,0,1,-3,-22,-1
1522606746546601,-8,3,-4,-6,-6,-1,8,-25
1522606746546601,3,1,-2,2,9,0,-7,15
1522606746547604,-7,-8,-1,0,-8,0,1,6
1522606746547604,6,14,5,1,-3,-5,-2,7
1522606746561641,-14,-9,-4,-3,3,6,0,-9
1522606746561641,-2,8,1,1,-5,-5,7,-7
1522606746561641,-1,-17,-7,0,-3,-1,-15,-6
1522606746561641,-3,16,3,0,13,-7,-10,-5
1522606746584703,2,-4,-4,2,-1,3,13,9
1522606746584703,-8,-4,-1,-3,3,13,12,-19
1522606746585706,-1,0,2,-1,-11,-8,-7,6
1522606746585706,-1,-3,4,5,2,0,-11,2
1522606746606761,-3,-4,-5,-4,-4,-7,-4,-7
1522606746606761,-8,-1,-1,1,3,-4,-1,9
1522606746607764,-2,-10,-2,-2,4,-5,13,-15
1522606746607764,0,0,-7,-8,-5,10,3,0
1522606746620799,-8,-1,-1,-5,-8,4,-6,2
1522606746620799,-1,-17,-5,2,3,-5,-2,-2
1522606746621801,-1,0,-3,-3,-6,-4,-3,-24
1522606746621801,-3,3,5,3,1,4,18,13
1522606746644863,3,-6,-3,-3,6,-1,-17,-7
1522606746644863,4,2,-1,-1,-9,-10,7,-5
1522606746644863,1,6,-2,-3,-3,1,-12,0
1522606746644863,1,-27,-7,-2,1,-2,3,-10
1522606746666921,-5,19,2,1,-13,-9,-5,11
1522606746666921,2,-15,-5,-1,6,11,-10,0
1522606746667924,7,13,5,2,4,13,-23,-7
1522606746667924,2,4,1,1,-8,-20,8,1
1522606746680959,2,-9,-2,-2,2,-4,-6,3
1522606746680959,2,6,1,0,-4,-10,12,8
1522606746681962,-10,2,-3,-2,3,3,-6,9
1522606746681962,-1,-6,-4,0,-3,12,-7,-9
1522606746704020,2,-1,-2,-2,-4,-4,-3,-2
1522606746704020,1,8,5,3,2,2,4,4
1522606746705023,3,-3,-4,-5,0,-6,3,11
1522606746705023,1,6,-1,3,1,0,-1,-4
1522606746727081,-3,-9,0,5,2,-4,-19,-6
1522606746727081,13,3,10,-2,-8,6,10,-1
1522606746728084,-5,7,-4,-3,5,1,12,10
1522606746728084,-5,-4,1,1,0,-6,-2,3
1522606746741119,10,2,0,-2,-11,6,29,4
1522606746741119,4,4,-4,-2,1,-2,-40,1
1522606746742122,-4,-1,1,0,-5,-3,4,8
1522606746742122,-2,4,-2,-3,5,5,6,-5
1522606746764180,3,-3,-4,-1,2,-3,8,14
1522606746764180,-1,7,4,1,-5,-3,6,-7
1522606746765183,-1,-1,1,3,0,-10,3,-13
1522606746765183,2,-3,-3,-2,1,22,0,-3
1522606746787241,-1,-1,0,-2,3,0,8,10
1522606746787241,-9,-8,-5,-3,-7,-18,1,-12
1522606746788244,8,0,-3,2,5,3,-10,9
1522606746788244,-1,-3,-1,0,-1,-11,-8,2
1522606746801279,0,0,4,-2,8,15,9,-8
1522606746801279,-4,5,-2,-2,-2,5,-7,5
1522606746802282,-5,-7,-1,2,-4,-10,15,-2
1522606746802282,-8,-5,0,1,-5,3,-24,10
1522606746824340,1,4,10,2,2,-3,3,-12
1522606746824340,-8,3,3,1,6,5,3,4
1522606746825343,0,1,-4,-1,-4,-4,9,6
1522606746825343,9,4,-5,-3,-1,1,4,2
1522606746847401,0,2,-2,-2,1,2,-1,2
1522606746847401,5,3,0,-1,0,-6,5,-4
1522606746847401,-4,-7,-4,-3,0,-10,1,0
1522606746847401,-4,-2,2,-5,-7,16,5,2
1522606746861439,-2,-1,1,1,2,0,-5,-3
1522606746861439,3,-2,-1,-1,-2,1,5,-2
1522606746862442,-2,-6,-2,4,1,-2,-14,-6
1522606746862442,-6,-5,-3,1,-1,-15,-1,-6
1522606746884500,-6,3,-1,1,-4,-8,-32,0
1522606746884500,-4,-5,-6,-4,-1,4,2,-1
1522606746885503,-1,0,2,1,-1,-2,-2,0
1522606746885503,-3,-2,-1,-2,0,-6,-9,-5
1522606746906559,-3,-4,-5,-3,-1,8,10,-18
1522606746906559,0,-5,-4,-2,-5,-4,-19,-13
1522606746907561,5,4,3,0,-2,4,8,3
1522606746907561,-14,-11,-4,0,0,-2,-6,-10
1522606746921599,4,1,-2,0,0,-9,-6,7
1522606746921599,-5,-6,-4,-4,-4,-6,5,0
1522606746921599,-5,-10,-4,-4,-4,0,-2,-6
1522606746921599,-3,-2,-4,1,2,2,14,6
1522606746944660,-4,-6,4,0,5,8,1,-14
1522606746944660,3,-1,1,2,6,6,17,10
1522606746945663,-3,4,0,-3,-1,-4,-20,1
1522606746945663,4,4,-2,0,-6,-10,9,1
1522606746966718,-1,-8,-12,-5,6,2,-11,-2
1522606746966718,4,-4,3,3,-2,10,15,2
1522606746967721,-4,-2,2,-2,3,4,10,-2
1522606746967721,4,7,3,0,6,-9,-4,-4
1522606746981759,0,0,1,1,-11,10,-4,-9
1522606746981759,4,4,-2,-3,-13,-28,0,10
1522606746981759,-3,-4,-1,1,-1,-3,-7,4
1522606746981759,-2,11,6,3,6,0,1,-5
1522606747004820,1,-2,0,0,3,8,11,11
1522606747004820,-5,0,-4,-6,-5,1,3,-3
1522606747004820,5,5,6,7,0,0,-8,-4
1522606747004820,-7,-9,-2,0,-3,9,11,6
1522606747026878,5,8,5,3,-1,-4,-13,-4
1522606747026878,-10,-2,-2,-2,-4,-16,-28,-7
1522606747027881,-1,-5,-2,-5,3,4,21,-4
1522606747027881,0,0,-1,-2,1,4,3,8
1522606747040916,-1,3,-5,-1,2,-3,-1,9
1522606747040916,-6,1,4,-1,-15,8,-1,-7
1522606747048937,0,1,-8,-2,-9,-8,-4,6
1522606747048937,-13,-6,-2,-6,-1,5,4,-20
1522606747063977,0,5,2,0,0,-7,-2,4
1522606747063977,-4,0,2,4,14,3,17,8
1522606747064980,2,-7,1,1,-2,-6,-22,-1
1522606747064980,3,6,-3,-2,-8,-3,2,3
1522606747087038,4,2,-3,-2,-5,-9,2,6
1522606747087038,1,3,1,1,6,2,-8,4
1522606747088041,4,13,2,-2,-2,17,15,-3
1522606747088041,3,-11,-1,7,-1,-6,-14,-12
1522606747101076,2,0,6,3,-2,-8,-5,4
1522606747101076,-5,-5,-6,2,-2,-2,-19,-16
1522606747109097,-3,4,5,1,11,-10,22,0
1522606747109097,26,12,4,1,1,9,2,34
1522606747124137,-15,-16,-11,-6,-11,-13,-4,-25
1522606747124137,2,2,3,-2,-2,22,1,6
1522606747124137,-3,6,-6,-6,-12,-1,7,8
1522606747124137,-5,-1,-5,-4,2,-17,-20,4
1522606747147198,3,-7,6,7,-1,-6,-4,-6
1522606747147198,3,-3,-1,0,0,0,9,4
1522606747148201,-2,-2,-2,1,2,10,-2,-8
1522606747148201,-3,-4,-3,-4,-2,-1,-5,-5
1522606747160233,1,1,-5,-2,-2,-4,10,7
1522606747160233,-20,-2,0,-4,-2,-2,-8,-20
1522606747169257,1,-2,1,0,-5,-4,5,6
1522606747169257,-3,-5,-2,2,3,-5,11,-3
1522606747184297,2,6,-1,-10,-4,6,-20,-7
1522606747184297,1,-2,-6,3,-2,-2,9,-6
1522606747184297,10,5,-1,-3,1,4,-1,-2
1522606747184297,-8,-7,-1,-4,-7,-11,-25,2
1522606747207358,3,-2,0,-4,-1,9,3,3
1522606747207358,-10,1,-8,-4,10,-4,-9,7
1522606747207358,-7,-6,-2,-1,-6,-10,-11,1
1522606747207358,-3,-2,3,2,-4,9,10,3
1522606747229417,0,1,3,1,-4,-11,4,1
1522606747229417,11,4,1,5,12,6,7,9
1522606747230420,-8,-1,-1,-1,5,3,6,9
1522606747230420,6,6,-1,-4,-6,16,1,-12
1522606747243454,-4,-2,0,2,0,-28,2,2
1522606747243454,9,6,-1,-4,-5,-1,-4,6
1522606747244458,10,6,5,2,0,-6,-2,3
1522606747244458,1,-3,-3,-5,-1,7,10,5
1522606747266516,5,7,-2,0,2,5,8,8
1522606747266516,2,0,5,0,-5,-1,4,-8
1522606747267518,-1,-2,-4,0,-7,-1,-2,7
1522606747267518,-5,-7,-2,-2,3,-6,2,0
1522606747280553,4,12,1,-3,-1,3,-12,7
1522606747280553,4,-7,-3,1,3,1,16,3
1522606747288575,-12,-13,-9,-5,-8,-3,-26,-20
1522606747288575,-4,4,1,-1,3,-12,-4,-6
1522606747303614,-7,-9,-2,-2,1,7,1,-13
1522606747303614,-2,-4,-1,-3,-1,2,-3,-5
1522606747304618,1,0,-1,-1,1,0,-25,-6
1522606747304618,4,-1,-2,1,-1,-9,1,0
1522606747326676,-1,-2,0,-2,-4,8,8,-11
1522606747326676,6,3,3,3,-2,-5,-8,6
1522606747327679,11,13,7,6,3,0,0,2
1522606747327679,-7,-2,-2,-2,-2,-4,-4,-7
1522606747340713,6,3,-1,1,1,-5,2,-2
1522606747340713,-5,-14,-4,-3,-3,8,-7,-5
1522606747348735,4,-1,-4,-3,-1,2,7,-1
1522606747348735,-1,-10,4,4,2,-5,-8,-2
1522606747363774,-1,-6,-3,0,1,-2,13,9
1522606747363774,-5,-8,-5,-6,-2,-8,0,-4
1522606747364778,3,13,3,0,1,5,2,1
1522606747364778,4,0,-2,0,-8,4,4,4
1522606747386836,-5,-4,-1,4,-1,-9,2,-2
1522606747386836,-2,-6,-1,2,6,9,-11,-18
1522606747387839,-2,-3,-7,-4,-3,-1,1,-3
1522606747387839,9,14,4,-1,0,-3,15,-4
1522606747409897,-3,-10,-5,-1,-7,-8,-11,5
1522606747409897,5,11,0,0,-1,1,20,8
1522606747409897,-7,-11,-4,1,-2,-15,-10,-17
1522606747409897,-2,-18,-2,-4,-4,2,-3,-10
1522606747423934,-4,12,2,0,-1,-1,-3,9
1522606747423934,-10,-7,-6,-10,6,-7,-22,-16
1522606747424937,-2,-3,-2,1,-3,8,20,4
1522606747424937,-7,-3,-7,-2,-5,-6,-1,1
1522606747446996,1,2,1,-1,0,9,8,12
1522606747446996,2,6,-1,1,-11,-8,-5,-5
1522606747447999,-3,-12,-2,-2,7,3,-3,-39
1522606747447999,-7,0,-1,1,-3,-9,5,4
1522606747469055,2,-2,-1,-2,5,10,-9,0
1522606747469055,-4,3,3,1,1,0,3,3
1522606747470057,3,0,-1,-2,0,-5,2,0
1522606747470057,3,4,-1,2,3,12,3,-4
1522606747484094,7,-3,0,-3,1,4,3,13
1522606747484094,6,0,4,2,4,-5,-10,10
1522606747485097,-2,-1,-1,-1,0,3,-5,24
1522606747485097,-6,5,2,1,2,-4,-1,-13
1522606747507156,-2,6,0,1,3,2,10,-6
1522606747507156,14,3,-1,1,-3,-1,9,7
1522606747508159,-3,2,2,-1,-2,-6,-7,7
1522606747508159,-7,-4,-5,-3,-3,1,-6,5
1522606747529215,-9,-3,-3,0,1,6,-13,-16
1522606747529215,-1,-1,-4,-2,3,-5,12,1
1522606747530217,1,-1,0,-1,-1,-6,-32,-5
1522606747530217,1,1,0,0,4,-1,2,11
1522606747544254,1,2,5,5,7,-3,15,0
1522606747544254,-4,0,-5,-3,-8,7,16,10
1522606747544254,-3,-14,-3,2,-1,1,0,2
1522606747544254,9,20,2,-4,0,-5,-12,5
1522606747567316,-3,-4,-3,-1,-3,-1,4,-9
1522606747567316,-6,0,2,1,7,-3,4,-3
1522606747567316,-8,-5,-2,-1,6,12,13,-2
1522606747567316,13,1,1,0,-13,0,-6,8
1522606747589375,2,-1,-1,-3,-1,-6,2,-2
1522606747589375,-1,-2,-1,-3,-6,-10,-18,-6
1522606747590377,-5,-1,-2,-1,0,-7,-5,-12
1522606747590377,-5,-6,-3,-4,-9,5,5,-2
1522606747603412,-8,1,2,1,-1,4,-5,-21
1522606747603412,-2,-7,-4,-1,-3,7,-21,6
1522606747604415,2,0,0,0,-1,-27,17,3
1522606747604415,0,-8,-9,-2,9,6,18,2
1522606747627476,-3,0,1,-1,-5,-2,-15,-6
1522606747627476,1,-1,-2,-3,-7,1,5,-1
1522606747627476,4,-2,3,0,1,12,14,8
1522606747627476,-1,2,1,-2,-3,-14,1,-10
1522606747649535,-7,-11,-5,-4,0,3,-2,5
1522606747649535,2,-1,-2,-2,1,5,13,-1
1522606747650537,-3,-1,-1,0,-3,-5,6,-10
1522606747650537,-10,-3,0,0,4,-1,-13,2
1522606747663572,1,-2,0,4,4,-4,-8,-3
1522606747663572,-3,5,-2,-4,-8,-9,-5,-2
1522606747664575,5,1,-1,-3,-6,22,16,23
1522606747664575,-3,1,-1,-2,-5,1,-5,-11
1522606747686633,-4,-13,-4,-1,7,-7,-7,-2
1522606747686633,8,3,0,0,-3,-2,7,-2
1522606747687636,9,1,0,0,-7,-10,-25,18
1522606747687636,-1,2,3,2,9,4,3,-13
1522606747709695,5,2,-1,-8,-9,-4,-9,14
1522606747709695,0,5,6,4,7,7,4,-20
1522606747710697,1,-2,-2,-1,-2,7,-13,0
1522606747710697,1,-8,-3,0,0,-5,2,-1
1522606747723732,3,3,-3,0,-4,-7,-8,-3
1522606747723732,-3,-4,0,-1,-5,-8,-1,-3
1522606747724735,-1,11,3,0,7,7,3,-1
1522606747724735,-9,-16,-8,-1,-5,1,-9,-1
1522606747746793,-5,7,3,2,-6,-8,8,-4
1522606747746793,-2,-4,-3,-1,3,1,-6,5
1522606747747796,-6,-2,-5,-1,-3,6,16,3
1522606747747796,0,-3,-3,-3,-2,-12,-12,-4
1522606747769855,-2,-8,-3,-2,-5,8,-16,-5
1522606747769855,8,15,0,-1,-1,-10,-6,19
1522606747769855,-13,-6,6,9,5,-5,2,-22
1522606747769855,-1,4,3,-2,10,8,-3,-3
1522606747783891,5,2,-2,0,-10,4,8,2
1522606747783891,-3,-5,0,-1,4,-2,3,6
1522606747784895,5,2,-4,-1,-3,-8,0,-3
1522606747784895,6,10,3,4,3,-1,-3,-12
1522606747806953,6,5,0,-1,2,-1,18,29
1522606747806953,6,-7,1,0,-3,29,9,-3
1522606747807956,-2,5,1,-5,-4,-24,-6,-8
1522606747807956,-3,-7,1,1,-1,3,-2,-3
1522606747829012,8,4,1,-2,-1,-5,-7,4
1522606747829012,7,1,-1,-3,-1,-7,1,7
1522606747830014,-9,-10,-4,-1,-3,-6,5,5
1522606747830014,1,23,12,3,7,15,4,0
1522606747844052,-2,-6,-6,-3,-1,10,2,-2
1522606747844052,-8,-9,-3,0,-4,-6,5,-3
1522606747845055,-1,-5,-4,-2,-1,-6,-1,-3
1522606747845055,2,-4,-6,-1,-4,-5,3,7
1522606747867113,-8,-3,3,1,2,-5,3,-13
1522606747867113,2,7,2,4,5,18,-7,5
1522606747868116,-24,-13,-11,-6,-8,-3,-6,-5
1522606747868116,-3,0,2,-1,-4,0,5,3
1522606747889172,-1,3,-1,1,-2,-3,-5,-28
1522606747889172,-4,-3,1,2,-3,-20,-10,-6
1522606747890175,11,0,3,4,17,13,13,2
1522606747890175,0,-2,-6,-5,-5,13,-2,8
1522606747904212,-5,-1,-4,-1,-10,-3,-3,-10
1522606747904212,-14,-4,1,1,3,-8,-16,-17
1522606747904212,4,-9,-1,-3,2,4,3,-2
1522606747904212,1,-3,-4,-1,-2,-7,4,7
1522606747927273,7,11,2,-1,6,4,9,12
1522606747927273,-7,-3,-3,-1,-3,-12,-16,-6
1522606747928276,1,3,1,-1,0,8,9,0
1522606747928276,-1,-9,-5,-4,-5,16,-1,-5
1522606747949332,-8,-12,-7,-1,-6,-39,-3,-19
1522606747949332,-2,8,6,0,3,11,12,1
1522606747950334,-4,4,2,0,-9,9,1,-9
1522606747950334,7,-1,-1,-2,-2,-11,-10,-2
1522606747963369,-8,-12,-4,2,1,7,-9,-1
1522606747963369,-3,-7,-3,-2,-3,-11,-4,-2
1522606747964372,13,6,0,-3,-2,0,-3,-5
1522606747964372,-5,0,6,4,4,0,7,-4
1522606747987433,0,7,4,-2,5,8,4,3
1522606747987433,9,-1,-4,-4,-7,-6,-6,1
1522606747987433,0,7,1,-1,-8,-1,2,9
1522606747987433,6,-7,1,1,5,-1,-4,4
1522606748009492,9,14,6,4,1,1,4,-2
1522606748009492,-22,-10,-2,0,4,3,19,-11
1522606748010494,4,-6,-8,-3,-1,-3,-9,6
1522606748010494,-2,5,3,-1,-2,-5,-6,-8
1522606748023529,-10,-25,-6,-5,1,0,0,6
1522606748023529,4,7,-5,-5,-8,-17,-32,-17
1522606748031550,-39,-24,-9,-1,4,18,5,-25
1522606748031550,5,0,-4,-6,-12,-6,0,41
1522606748046590,8,3,2,1,2,7,14,-6
1522606748046590,0,-3,-5,-4,-2,-4,6,18
1522606748047593,9,-2,-3,-3,6,-3,-5,11
1522606748047593,-19,-6,-3,8,-2,-4,-27,0
1522606748069652,-2,8,3,-5,-2,3,-1,4
1522606748069652,3,-13,-1,4,5,4,9,22
1522606748070654,8,5,3,2,3,2,4,-4
1522606748070654,2,10,-3,-4,-7,-14,10,-5
1522606748082686,4,-10,-2,0,-7,6,-1,2
1522606748082686,0,1,0,1,-1,-4,-4,-8
1522606748091710,10,9,-3,-2,4,1,9,29
1522606748091710,2,3,9,3,6,13,5,1
1522606748106750,-8,-16,-6,-7,-6,-10,-10,-3
1522606748106750,5,3,1,-4,-1,3,3,-1
1522606748107753,-3,4,-4,0,-6,-2,0,4
1522606748107753,4,-8,-7,-1,2,-7,19,4
1522606748129812,2,9,0,-1,6,-1,-35,-3
1522606748129812,-2,-4,2,2,-4,7,11,3
1522606748129812,3,-2,1,1,-5,-12,-14,-1
1522606748129812,-10,-3,-7,-5,-3,-3,-2,-4
1522606748142846,5,3,-3,-4,-4,3,18,37
1522606748142846,-9,-8,-5,-5,9,-3,-37,-26
1522606748150868,-2,2,-3,-4,-8,0,3,-3
1522606748150868,10,1,2,3,-1,-2,-16,-9
1522606748165908,-4,-2,0,-1,0,0,-9,-9
1522606748165908,-3,0,1,-1,0,-13,3,5
1522606748166910,6,8,1,1,1,7,10,4
1522606748166910,-2,2,3,-2,4,7,11,-9
1522606748189972,0,-4,2,2,-1,1,-12,7
1522606748189972,0,6,0,3,-1,4,-2,-22
1522606748189972,5,-7,3,0,3,-11,-13,0
1522606748189972,-6,-1,-9,-7,-13,0,12,-8
1522606748203006,0,0,-3,-2,3,-15,-15,1
1522606748203006,0,5,2,3,8,21,-1,6
1522606748211028,7,-2,1,3,-9,13,7,-2
1522606748211028,-2,-7,-1,-2,-6,-23,-15,5
1522606748226068,-3,2,2,3,2,-2,8,-12
1522606748226068,4,8,0,1,0,-8,1,9
1522606748227070,-2,3,1,-2,-7,0,2,0
1522606748227070,5,1,1,-4,9,1,-11,-2
1522606748249129,-1,-1,0,2,-3,2,21,-2
1522606748249129,2,1,0,0,-1,8,-6,-4
1522606748250132,-2,5,-1,-2,-4,-5,-3,2
1522606748250132,7,1,1,3,-2,-5,4,5
1522606748263166,3,-2,1,-1,-5,-3,0,3
1522606748263166,0,-7,-4,0,2,4,15,-4
1522606748271188,-7,1,3,4,3,-6,-13,15
1522606748271188,-6,-1,-3,-3,3,-1,-5,-12
1522606748286228,1,0,-3,-1,-7,4,-2,-15
1522606748286228,-1,11,1,-2,-3,-6,15,5
1522606748287230,-5,-7,2,0,0,-1,-22,-13
1522606748287230,0,2,1,4,4,-7,-8,2
1522606748309289,6,-4,-1,-1,-2,5,3,5
1522606748309289,1,-5,-3,-6,-9,14,25,-6
1522606748310292,2,3,0,1,3,-20,6,6
1522606748310292,-3,2,1,2,0,19,-7,-7
1522606748332350,-5,-2,-3,-3,-4,-16,3,-3
1522606748332350,-9,-9,-4,0,-1,-2,-19,-10
1522606748332350,10,1,-1,0,3,1,-3,-3
1522606748332350,-4,-5,-1,-1,0,5,21,-4
1522606748346388,6,6,2,1,5,5,-26,-11
1522606748346388,4,-2,-2,-6,-4,-1,12,3
1522606748347390,8,1,-3,-1,-1,-2,3,-4
1522606748347390,-1,-19,-2,3,0,-6,-11,-2
1522606748369449,-7,31,3,-2,8,17,6,-4
1522606748369449,1,-7,0,-1,-12,-3,4,12
1522606748370452,-5,-13,-2,2,1,-1,-28,-8
1522606748370452,5,1,-4,-1,-2,-7,4,-8
1522606748392510,-7,-3,4,3,4,-15,-1,2
1522606748392510,-1,4,-5,-6,-1,10,-31,7
1522606748392510,-5,0,2,-2,2,0,5,-12
1522606748392510,3,1,-1,1,-1,4,10,13
1522606748406548,2,-7,-1,3,5,16,11,-1
1522606748406548,-9,-1,-2,1,-10,-33,0,7
1522606748407550,-3,-27,-4,3,0,2,3,0
1522606748407550,-10,27,6,-3,-4,3,-21,-8
1522606748429609,0,-5,-7,-5,-2,-8,4,-3
1522606748429609,2,-2,-1,-1,5,6,12,11
1522606748430612,-1,5,-2,-4,-1,5,2,-2
1522606748430612,-3,-10,-2,4,1,-5,-12,-22
1522606748451668,-5,-5,1,1,-1,-1,5,5
1522606748451668,2,0,-1,-3,-12,-4,-1,0
1522606748452671,-5,2,2,-3,-7,-4,-45,-10
1522606748452671,-6,-8,-7,-3,2,1,1,-17
1522606748466708,-2,1,-3,-1,-4,4,1,33
1522606748466708,-5,-17,-4,6,2,-15,1,-14
1522606748466708,-7,7,-1,-2,2,20,6,-3
1522606748466708,-6,-5,-5,-6,-6,-2,-4,-2
1522606748489769,1,2,6,6,5,-1,-7,-5
1522606748489769,0,3,5,1,-3,-2,3,5
1522606748490772,1,26,6,5,4,-14,10,4
1522606748490772,-3,-6,-6,-5,2,9,-4,-2
1522606748511828,9,2,-1,-4,-10,-1,16,11
1522606748511828,10,-2,-3,-3,6,13,-3,3
1522606748513833,1,3,0,-3,-16,-9,28,-5
1522606748513833,4,2,1,0,-1,-8,-10,-2
1522606748525865,-14,-12,-4,-4,1,1,-3,-9
1522606748525865,-1,1,2,3,8,1,-8,-6
1522606748526868,0,-13,-7,-2,5,11,15,7
1522606748526868,11,16,10,3,-5,-1,6,10
1522606748549929,7,7,1,-5,-2,-1,-2,-6
1522606748549929,-9,1,-4,-3,0,6,-7,-11
1522606748549929,-7,-5,-3,0,1,-22,20,6
1522606748549929,5,2,-2,-2,3,15,-6,21
1522606748571988,-9,-4,0,-3,-9,1,-20,-10
1522606748571988,2,-23,-7,-1,4,-1,3,-17
1522606748572991,-2,20,4,0,2,2,-8,3
1522606748572991,1,-12,-4,-2,-2,-5,8,1
1522606748586025,-1,-8,0,-2,0,-4,-13,-10
1522606748586025,6,7,2,0,1,-4,6,20
1522606748587028,6,-10,-6,-3,-3,-4,-34,-30
1522606748587028,-12,-4,-6,1,3,11,4,7
1522606748609086,9,-10,-7,1,5,-3,5,14
1522606748609086,1,8,4,1,0,0,3,-1
1522606748610089,0,3,4,2,-3,-1,-9,-3
1522606748610089,16,5,3,1,2,-1,-10,-11
1522606748632148,5,12,-3,-5,-15,-18,-2,-3
1522606748632148,-7,-4,-1,-4,-1,2,7,-1
1522606748633151,-2,-3,-1,-1,1,1,5,2
1522606748633151,-8,-3,-1,1,4,-1,-13,1
1522606748646185,1,-2,-1,1,2,15,0,5
1522606748646185,3,3,-3,2,1,-10,-2,5
1522606748647188,-2,7,0,-3,-4,0,-5,-18
1522606748647188,7,5,2,-2,-4,-7,15,19
1522606748669247,-3,2,-1,1,4,-12,-11,-3
1522606748669247,-6,-2,2,-2,-5,9,11,16
1522606748670249,4,-3,-1,-2,6,10,12,8
1522606748670249,-7,-5,0,0,-1,-4,8,1
1522606748692308,-5,2,3,3,5,-3,10,-5
1522606748692308,-8,-16,-5,-4,-1,4,-12,-32
1522606748692308,-12,3,-4,1,1,-4,-3,2
1522606748692308,-2,-7,-1,-2,-6,-4,17,11
1522606748706345,12,3,0,0,-4,-2,-13,21
1522606748706345,-3,11,5,0,2,10,3,-2
1522606748707348,-5,-10,-7,1,-2,-7,1,2
1522606748707348,-9,-5,2,3,6,-1,0,-6
1522606748729406,-6,-2,0,-1,-10,7,4,-14
1522606748729406,5,6,-4,-8,0,2,9,9
1522606748730409,-1,-7,3,2,0,15,-5,1
1522606748730409,-4,4,-9,-4,-5,-29,-1,-5
1522606748752468,-1,-12,-2,0,1,-5,8,20
1522606748752468,3,-3,2,2,-1,-8,-12,-4
1522606748752468,-1,-1,1,1,4,17,10,3
1522606748752468,-10,-17,-10,-2,2,1,9,-12
1522606748766505,-11,16,-1,-7,-5,1,-8,-15
1522606748766505,5,4,4,1,-1,-2,9,11
1522606748767508,3,-1,5,-1,1,-16,-4,7
1522606748767508,3,3,1,1,-3,7,-6,5
1522606748789566,2,-8,-5,-2,0,8,10,2
1522606748789566,-3,-2,-5,3,-4,-11,-6,-8
1522606748790569,9,8,5,3,-6,-1,3,3
1522606748790569,-1,1,1,-3,-1,0,1,-5
1522606748811625,3,4,-1,2,12,9,17,6
1522606748811625,-6,10,1,0,-12,-5,-17,4
1522606748813631,-2,-2,-5,-4,-4,-8,12,2
1522606748813631,1,-1,-3,-4,-5,-9,-5,9
1522606748826665,4,5,4,-1,-1,2,-5,-15
1522606748826665,6,-8,-2,6,9,-5,4,9
1522606748826665,-4,1,-4,-5,8,16,9,1
1522606748826665,0,4,0,-5,-13,3,-10,-5
1522606748849726,-16,-8,-3,-5,0,2,-24,-12
1522606748849726,0,-1,-2,-1,-5,-9,-4,-7
1522606748850729,-3,-9,-3,0,-5,0,-4,3
1522606748850729,0,2,3,3,6,-2,2,0
1522606748871785,-2,-7,-4,-2,0,-6,-1,-18
1522606748871785,9,4,1,-2,1,17,-20,16
1522606748872788,4,5,-1,-2,0,3,2,0
1522606748872788,2,1,1,-1,0,-4,1,1
1522606748885822,-6,-5,0,3,3,1,2,5
1522606748885822,-10,-3,-3,-6,-3,-13,-8,-10
1522606748886825,-7,-4,-1,3,-5,0,-1,5
1522606748886825,4,9,6,0,3,5,-8,4
1522606748909886,-5,-7,-3,1,-4,-10,-4,-10
1522606748909886,-2,-10,-5,1,1,-7,8,-4
1522606748910889,-3,4,-1,-2,7,4,-20,-15
1522606748910889,0,-1,-2,-2,-11,5,-9,3
1522606748931945,0,-7,-6,-3,2,-6,10,7
1522606748931945,-3,6,1,-4,-37,1,3,-6
1522606748933950,2,-11,-1,-3,30,6,9,5
1522606748933950,-5,4,-1,4,1,-24,-16,-21
1522606748945982,-4,-10,-6,-2,-2,2,0,8
1522606748945982,1,7,0,2,-5,-5,2,-4
1522606748955006,0,-8,-5,-1,-4,-2,-19,-4
1522606748955006,-10,-10,-4,-1,8,0,2,-16
1522606748969044,2,4,4,0,-9,6,-9,1
1522606748969044,-3,4,2,-3,26,4,5,7
1522606748971049,-9,-7,-3,-2,-14,-6,3,-4
1522606748971049,2,-3,0,0,3,3,10,4
1522606748992105,1,5,4,1,-4,-10,5,-10
1522606748992105,3,-5,-3,0,0,13,14,22
1522606748994110,6,4,2,-4,-8,-2,-16,-21
1522606748994110,1,-14,-6,1,-4,5,8,6
1522606749006142,-9,16,6,4,8,5,10,8
1522606749006142,0,8,-4,-7,-1,-4,-5,-9
1522606749015166,2,-4,-2,-1,1,-9,13,21
1522606749015166,8,9,2,-2,-9,7,14,11
1522606749029204,1,-12,-2,2,-2,16,-10,-10
1522606749029204,-8,-15,-1,-1,1,-31,-2,-11
1522606749035220,-1,6,1,3,-4,-4,11,-4
1522606749035220,-6,10,1,-4,8,14,-10,15
1522606749052265,6,1,-2,2,2,-3,2,16
1522606749052265,-3,-8,0,2,-1,5,8,-2
1522606749053268,6,-7,-3,1,-10,-21,-6,1
1522606749053268,-4,-6,-1,0,0,16,4,-18
1522606749065300,5,0,-7,-7,-5,-3,-9,1
1522606749065300,8,13,8,0,5,2,-8,-20
1522606749074323,7,5,1,-1,-8,-4,8,20
1522606749074323,5,-3,1,3,7,-2,5,-1
1522606749088361,1,-3,-3,-2,-2,-5,-3,8
1522606749088361,-3,-3,-2,0,4,1,-6,1
1522606749097385,-5,0,1,-5,0,9,8,-3
1522606749097385,-3,-8,-6,-6,-10,-17,2,-8
1522606749112425,8,6,4,5,5,10,4,-8
1522606749112425,-7,-11,-1,-1,4,3,5,8
1522606749113428,-2,3,0,1,0,-8,-31,-2
1522606749113428,-2,-4,-5,1,1,4,6,-1
1522606749125460,8,6,5,-6,-4,-1,-23,13
1522606749125460,-11,-9,-2,1,-5,-17,-4,-7
1522606749134483,5,14,-4,0,-5,7,-5,-2
1522606749134483,-1,11,5,4,8,-3,4,9
1522606749148521,-5,-17,0,-5,-2,-9,11,-11
1522606749148521,14,15,2,0,-1,20,2,3
1522606749157545,-1,-5,-2,1,-3,-7,-1,-1
1522606749157545,-3,1,-3,-2,-1,-4,-12,-3
1522606749171582,-1,-3,2,0,-8,-10,-5,6
1522606749171582,-1,-12,-1,2,11,1,23,4
1522606749173588,-10,3,-7,-2,-8,-1,11,-16
1522606749173588,4,18,6,1,-1,9,-3,8
1522606749185620,-1,-14,-1,3,2,-3,2,-12
1522606749185620,-5,3,-5,-3,-10,0,-8,8
1522606749194644,6,-7,-1,3,6,2,10,2
1522606749194644,-15,-17,-11,-9,-16,-17,-8,-9
1522606749207678,1,10,-2,-1,5,2,10,-4
1522606749207678,-5,8,1,-4,-2,21,-13,-5
1522606749216702,-6,0,4,-1,-1,-16,2,3
1522606749216702,9,-21,-2,0,-4,-5,0,-1
1522606749231742,2,24,5,2,1,-8,5,6
1522606749231742,7,1,-4,1,8,7,-5,0
1522606749233748,-12,-10,-3,-1,-8,4,-17,1
1522606749233748,-10,14,0,-6,-4,-4,26,11
1522606749245780,-6,-21,-5,-3,0,-1,8,-12
1522606749245780,5,-12,-2,0,-1,-10,-2,-2
1522606749254804,-3,11,-1,-4,2,11,12,5
1522606749254804,5,-14,-2,4,5,0,-14,-16
1522606749267838,-4,-8,-6,-6,-4,4,-1,-7
1522606749267838,8,13,2,-1,-5,1,9,16
1522606749276862,-3,-6,-1,-5,-2,-7,-3,-8
1522606749276862,0,-2,-4,1,4,-1,-7,-3
1522606749291902,-5,-2,2,0,0,-8,-7,-10
1522606749291902,-5,-6,-5,-3,-1,5,-4,-8
1522606749293908,10,0,1,2,0,-3,0,14
1522606749293908,2,3,4,-4,2,13,5,-14
1522606749314964,-6,-2,-5,1,6,-1,-22,-9
1522606749314964,-1,0,-1,-1,-8,-8,-2,2
1522606749315968,1,1,5,4,9,-4,21,27
1522606749315968,0,5,1,1,-4,10,0,5
1522606749327998,8,-4,-6,-3,-1,-2,4,0
1522606749327998,-15,-13,-6,-1,-6,-12,-15,-26
1522606749337023,-1,17,5,-2,4,4,-6,-4
1522606749337023,5,-21,0,-1,-5,-6,-1,-6
1522606749352062,5,26,7,1,-2,2,16,14
1522606749352062,-6,-2,1,2,5,8,12,4
1522606749354068,-2,-22,-7,2,2,0,-7,-10
1522606749354068,3,16,5,4,-1,-2,-2,8
1522606749374121,-3,-6,-4,-4,-5,-4,-2,-3
1522606749374121,7,6,2,1,2,-6,-7,-14
1522606749376127,10,-2,0,-2,-2,-3,-4,11
1522606749376127,13,16,5,2,2,-4,-2,16
1522606749388158,-4,-5,-1,1,1,4,-7,8
1522606749388158,2,-3,1,1,-2,4,7,-2
1522606749397182,2,-6,-5,-2,1,8,-9,17
1522606749397182,-5,-4,-4,-2,1,-6,-38,-9
1522606749412222,1,10,2,2,-8,-3,2,-15
1522606749412222,2,-9,0,-2,11,-9,0,2
1522606749413225,-2,1,-2,-2,-22,10,-29,-12
1522606749413225,6,19,4,1,11,5,19,6
1522606749434281,-9,-7,-3,-3,-4,11,-2,-7
1522606749434281,4,-4,-1,0,-10,-24,-5,10
1522606749436287,1,-2,-2,3,14,7,1,-13
1522606749436287,-5,-11,-2,-2,-2,-1,-2,-4
1522606749448318,0,-3,-5,-3,-3,10,3,1
1522606749448318,-1,-15,-1,-3,2,0,-5,-5
1522606749457342,-1,27,3,-3,2,-6,9,-7
1522606749457342,-8,-18,-6,-1,-10,-6,8,-6
1522606749472382,-1,5,5,-2,2,-9,-1,0
1522606749472382,-9,-3,-1,-1,3,6,-20,21
1522606749473385,-6,-11,-3,2,-1,-3,3,-5
1522606749473385,0,-8,-3,-3,-6,0,2,0
1522606749494441,-1,-3,-4,0,0,-12,1,12
1522606749494441,10,10,-3,-8,-5,-5,-7,5
1522606749496446,-13,-8,4,0,1,-7,20,-19
1522606749496446,3,8,0,-6,-46,13,-1,-10
1522606749508478,7,-6,1,4,50,12,7,27
1522606749508478,1,6,0,1,-5,-1,3,-18
1522606749517502,5,2,2,0,5,4,8,9
1522606749517502,-3,-4,-3,-2,1,-13,1,-1
1522606749531539,-3,-4,-1,-4,-22,-6,-7,-6
1522606749531539,-4,5,-1,-1,4,19,-4,-16
1522606749533545,-2,-3,-2,-6,-10,-18,20,12
1522606749533545,-14,-14,-3,4,8,-10,-30,-14
1522606749554601,2,9,0,-1,-1,15,3,6
1522606749554601,-10,-2,0,1,0,-7,-6,-18
1522606749556607,2,-2,-2,-6,-13,9,-4,-5
1522606749556607,-2,1,-1,-3,8,-4,13,-4
1522606749568638,-2,-4,-3,1,-3,-12,-3,-4
1522606749568638,-4,1,-1,-6,-8,2,8,1
1522606749576660,0,-3,-1,3,2,5,-21,-13
1522606749576660,-2,-3,-1,-3,8,3,8,4
1522606749591699,-4,0,-2,2,-4,-7,-19,-13
1522606749591699,4,0,-2,-5,-7,11,2,9
1522606749593705,-2,-3,-6,-4,3,-14,-10,4
1522606749593705,1,-2,0,0,7,0,-2,-4
1522606749614761,8,0,3,0,-45,-4,8,19
1522606749614761,-7,-9,-6,-2,32,-6,3,-4
1522606749615764,4,15,8,6,2,2,-5,-2
1522606749615764,2,-4,3,-1,5,-5,2,11
1522606749627795,1,4,-1,-5,-2,-2,3,-15
1522606749627795,3,-1,-5,-2,-12,20,4,0
1522606749636820,2,0,-2,-1,-4,-17,1,4
1522606749636820,-1,-1,-3,0,3,3,12,9
1522606749651859,-4,-5,-1,2,4,-14,-32,-2
1522606749651859,-8,4,2,-2,-5,1,-1,-17
1522606749653865,-1,-5,-4,-2,5,7,-12,5
1522606749653865,6,12,3,4,-3,3,5,3
1522606749674921,-9,-12,-4,-1,7,-5,0,-2
1522606749674921,10,9,8,2,-6,-12,-10,19
1522606749675924,-3,-1,-4,0,-6,4,11,-24
1522606749675924,-3,4,-3,-3,3,2,2,5
1522606749687955,-3,-1,3,-2,3,4,5,2
1522606749687955,-2,-1,1,3,-10,-11,-39,-1
1522606749696979,0,-2,-1,-1,-2,0,-5,-3
1522606749696979,6,-8,-2,3,3,-1,-12,-4
1522606749712019,-3,4,0,-1,7,-2,4,-7
1522606749712019,4,3,4,3,1,7,8,7
1522606749714025,-8,-7,-2,-6,-10,-5,11,-3
1522606749714025,1,3,-2,-2,6,10,2,24
1522606749734078,-6,-1,-3,-6,-8,-3,1,-18
1522606749734078,-2,-6,0,4,5,-1,7,-8
1522606749736084,-2,0,2,2,4,8,-16,-2
1522606749736084,-4,-1,0,-1,-8,-18,1,-4
1522606749748116,0,4,1,-1,0,-1,10,12
1522606749748116,3,-3,-5,-4,-2,-10,-9,0
1522606749757140,5,6,-1,2,5,8,22,8
1522606749757140,-5,-20,-3,-1,6,2,-17,-9
1522606749772179,-5,15,1,2,0,7,-16,-4
1522606749772179,-7,-1,0,-1,-3,-8,-1,-21
1522606749774185,6,-1,-4,-7,-1,3,7,14
1522606749774185,-2,-5,9,9,1,-5,-13,-21
1522606749794238,-5,6,-5,-1,3,-5,3,1
1522606749794238,0,6,1,-1,2,11,6,12
1522606749796244,0,-8,1,0,-2,1,7,6
1522606749796244,1,3,-3,-4,-5,-1,11,-3
1522606749808275,6,-12,-4,0,7,8,-2,-25
1522606749808275,-5,2,-1,-3,-7,-16,-11,5
1522606749817299,-9,-2,-3,-5,-1,-4,-7,-5
1522606749817299,7,7,-1,-2,2,13,-1,6
1522606749832339,-2,-15,1,1,-9,-2,-5,-1
1522606749832339,-4,-2,-6,-2,1,-6,13,-7
1522606749833342,-1,-17,-5,2,3,-3,-10,-23
1522606749833342,0,34,7,1,-1,-1,14,8
1522606749854398,-3,-10,-4,-4,0,2,-5,14
1522606749854398,8,3,3,1,3,-2,9,10
1522606749856404,-4,-8,-2,0,-11,-7,-39,-4
1522606749856404,-7,1,0,0,1,1,17,-5
1522606749868436,9,-5,4,0,3,5,3,12
1522606749868436,1,-12,-6,-2,-4,5,-1,-12
1522606749877460,-16,-8,-1,2,8,1,13,-1
1522606749877460,0,10,-1,-5,-3,0,-21,-10
1522606749891497,-7,-3,-4,-5,-2,-4,5,-7
1522606749891497,-7,-4,-4,-2,-4,-6,-8,9
1522606749893502,11,-8,-5,0,1,0,10,21
1522606749893502,-4,-2,-3,-1,-5,-7,0,3
1522606749914558,3,9,9,6,16,11,11,-13
1522606749914558,-21,-20,-11,-8,-14,-6,-23,-22
1522606749916564,6,13,3,0,-9,2,2,-4
1522606749916564,1,-5,2,-4,-4,-3,2,9
1522606749928595,-3,-4,1,3,-1,-8,28,3
1522606749928595,9,4,1,0,7,10,11,12
1522606749937619,-9,-6,-7,-5,2,-4,-27,-23
1522606749937619,-7,-9,-7,1,-4,-6,-12,0
1522606749951657,4,11,2,-8,-5,-7,2,-1
1522606749951657,6,-1,4,3,8,19,10,-6
1522606749953662,-1,6,4,-1,1,-3,4,-1
1522606749953662,3,-5,-2,-1,3,3,2,10
1522606749974718,7,-1,1,0,-7,11,0,9
1522606749974718,-12,6,1,1,0,-23,3,-7
1522606749975721,2,4,2,-3,-4,5,11,8
1522606749975721,-1,-8,-5,-3,3,10,-32,-15
1522606749987753,0,-6,-3,2,-1,-9,-11,9
1522606749987753,-5,4,4,0,2,12,10,-7
1522606749996777,2,1,-4,-1,-7,-7,-3,-14
1522606749996777,-3,9,6,2,-1,-4,12,10
1522606750011816,-3,-4,-10,-8,-7,1,-8,-7
1522606750011816,-4,-18,-2,-4,-3,-4,-8,0
1522606750013822,4,8,5,2,9,-7,6,-12
1522606750013822,6,7,-2,-2,1,9,8,8
1522606750034878,-4,5,-1,-2,-2,-9,-12,-8
1522606750034878,6,-1,-1,-1,0,-6,-2,30
1522606750035882,-2,-3,-1,0,1,9,10,-1
1522606750035882,-1,-11,-4,-1,-3,-4,4,5
1522606750047913,-2,-3,0,-2,-4,-10,-15,-11
1522606750047913,0,8,-3,1,0,3,23,10
1522606750056937,1,0,3,-2,-6,-1,-18,3
1522606750056937,3,-2,2,2,2,-4,9,-2
1522606750071977,-2,-5,-2,0,5,2,3,11
1522606750071977,5,2,0,3,5,1,-7,-8
1522606750073982,-2,-9,-3,-2,-4,5,17,2
1522606750073982,-7,5,-4,-3,-6,-5,-7,-9
1522606750094035,-1,-5,-3,-4,-1,10,1,14
1522606750094035,-3,3,0,1,-6,-34,-2,-11
1522606750096041,-5,-1,4,4,5,12,4,2
1522606750096041,6,1,-7,-8,-4,0,3,-5
1522606750108073,-17,-5,0,-2,-4,-2,-18,-12
1522606750108073,-2,0,-3,0,2,7,8,15
1522606750117097,4,1,-3,2,0,-18,-5,3
1522606750117097,-2,-8,2,-1,-7,6,-2,10
1522606750131134,6,1,-1,2,4,3,6,-4
1522606750131134,5,3,2,-2,0,13,-2,10
1522606750138153,-7,0,0,0,-2,-11,13,4
1522606750138153,-2,-3,-6,-4,1,-3,-14,-7
1522606750154195,0,-2,0,-2,-8,0,15,5
1522606750154195,0,2,0,2,5,1,-7,-8
1522606750156201,2,2,-2,-3,-5,-1,0,9
1522606750156201,0,-1,0,2,7,-8,9,12
1522606750168233,-1,-5,-6,-5,-6,4,-5,-7
1522606750168233,3,-1,1,-2,-1,0,-6,1
1522606750177257,0,4,2,0,3,-2,-2,-12
1522606750177257,-2,-5,-2,0,2,1,3,-1
1522606750191294,-1,1,0,0,-3,-4,21,4
1522606750191294,8,5,2,0,-1,7,-11,2
1522606750198313,-5,1,-2,2,-1,-5,-3,2
1522606750198313,0,0,0,0,2,-4,0,-2
1522606750214355,-6,-6,0,3,7,7,-1,-7
1522606750214355,1,1,-1,-4,-20,-20,2,-4
1522606750216361,1,-3,1,-1,10,-2,-10,1
1522606750216361,-4,-2,-1,0,-7,10,9,-7
1522606750237417,3,0,-3,-2,0,-12,-5,-2
1522606750237417,-4,0,-2,0,1,4,14,7
1522606750238419,-4,-4,-5,-4,-2,-10,-4,-7
1522606750238419,-2,-1,2,0,10,1,-25,-12
1522606750252457,9,4,3,0,-4,8,12,5
1522606750252457,-7,-2,-2,-2,-3,0,1,-11
1522606750258473,6,-8,-3,1,-3,2,2,13
1522606750258473,-2,-1,-1,-1,-4,-3,19,6
1522606750274515,-5,3,-1,-1,-1,-4,-27,-20
1522606750274515,0,-1,1,1,1,9,17,14
1522606750276521,-1,6,1,-2,-5,-13,0,-1
1522606750276521,-1,-14,-3,1,-1,-3,-4,2
1522606750296574,-5,-2,-4,-4,4,6,-5,-8
1522606750296574,-1,-9,-1,0,-4,-3,-8,-3
1522606750298579,-14,2,-3,-3,0,13,-7,-8
1522606750298579,-1,-1,0,2,0,-12,-2,-2
1522606750311614,3,-3,-2,-2,-4,-4,6,18
1522606750311614,3,10,2,-2,2,-2,-10,-15
1522606750318633,-3,-6,-1,-2,-5,-3,-5,-7
1522606750318633,-2,2,0,-1,-1,14,14,1
1522606750334676,-1,2,1,1,-6,-7,-10,-5
1522606750334676,0,-8,-8,-2,3,1,4,7
1522606750335679,13,23,9,-2,-5,-1,18,11
1522606750335679,-6,-6,-6,-4,4,-9,-49,-18
1522606750356734,0,-7,-1,3,3,3,1,12
1522606750356734,-5,4,-1,-4,-7,-1,-5,-6
1522606750358739,4,1,4,3,3,1,2,6
1522606750358739,1,-2,-2,-1,0,-4,7,3
1522606750371774,-4,2,1,2,-1,-5,1,-6
1522606750371774,-1,-2,-4,-2,0,1,-20,-6
1522606750377790,5,6,0,2,12,18,6,8
1522606750377790,6,12,7,1,-12,-19,16,14
1522606750394835,-6,-4,0,-2,0,1,-17,0
1522606750394835,4,-5,1,4,-2,2,8,1
1522606750395839,-9,-7,-3,-1,6,2,-3,-9
1522606750395839,1,1,-3,-3,-3,6,-6,2
1522606750416894,3,8,4,1,0,-8,27,0
1522606750416894,0,3,-2,-6,-8,-4,-3,-2
1522606750418899,1,-3,-1,2,-2,4,-21,0
1522606750418899,-5,-11,-4,-2,2,-1,-11,-6
1522606750430931,6,12,0,1,7,11,11,9
1522606750430931,-2,-7,2,3,6,-1,-2,-21
1522606750437950,-1,-11,-7,-5,-6,-8,-13,-11
1522606750437950,3,19,4,1,-6,-6,9,-4
1522606750454995,1,-8,-2,-2,-3,-14,-21,-6
1522606750454995,4,-5,0,4,5,12,4,5
1522606750455998,3,3,-1,1,5,-3,4,1
1522606750455998,1,2,-3,-4,-2,-9,-4,-2
1522606750477054,-11,-14,2,-2,-2,9,-2,4
1522606750477054,-5,11,2,-1,-2,-5,5,-6
1522606750479059,-6,-4,-2,0,-1,8,-6,-13
1522606750479059,-6,-4,-4,0,4,-8,25,7
1522606750491091,5,0,-4,1,2,-9,5,-1
1522606750491091,-1,-4,0,-5,-3,-2,-3,4
1522606750500115,-4,-1,0,-4,-3,2,-1,-14
1522606750500115,-1,5,2,3,-2,3,-2,-15
1522606750514152,-7,-28,-9,-5,-3,-9,-8,-8
1522606750514152,0,19,1,1,4,-2,7,-8
1522606750516158,6,4,-5,-1,1,9,2,1
1522606750516158,-9,-5,5,-3,-10,-1,-20,-18
1522606750537214,-10,-23,-11,-3,-4,-8,-5,-5
1522606750537214,-6,16,0,0,-1,1,-2,-9
1522606750538217,-1,-12,-2,0,4,-9,-4,12
1522606750538217,6,-4,-3,-1,-11,2,-2,9
1522606750550248,-5,-2,-1,-1,2,13,-2,-11
1522606750550248,0,-5,-3,-4,-6,-11,-1,16
1522606750559273,-7,-23,-9,0,1,-4,8,12
1522606750559273,-9,0,-1,-1,3,4,10,7
1522606750574312,17,30,20,1,-7,0,-11,16
1522606750574312,-6,-6,-5,0,4,-3,-18,-9
1522606750576318,-2,9,4,0,-4,5,-5,-20
1522606750576318,7,-8,1,4,6,-4,-1,5
1522606750597374,-22,-14,-13,-4,0,-3,11,-7
1522606750597374,-1,-13,1,1,-3,2,-3,2
1522606750598377,-1,7,-4,-5,-6,6,2,-1
1522606750598377,-1,1,10,3,0,-12,-2,-5
1522606750610408,7,12,1,-1,1,4,3,2
1522606750610408,-9,-13,-3,2,2,-2,-2,-21
1522606750627454,0,-8,-11,-7,-10,-15,2,14
1522606750627454,7,10,1,-2,2,20,13,29
1522606750634473,-1,-1,1,-2,0,-4,1,-16
1522606750634473,1,-2,-3,-2,0,0,-18,4
1522606750636479,1,-4,3,2,0,-6,5,1
1522606750636479,2,4,-4,-3,-5,-5,-5,-2
1522606750656531,1,3,-1,2,11,0,6,-5
1522606750656531,3,-1,3,-1,-2,2,17,6
1522606750658537,-5,4,2,-1,-8,-10,3,-7
1522606750658537,2,-3,-3,-2,0,6,-12,-10
1522606750670568,-1,2,-1,-3,-1,2,2,5
1522606750670568,0,-3,-1,-1,3,-5,-3,-4
1522606750679593,2,4,3,0,3,6,3,-5
1522606750679593,1,-4,1,3,1,0,4,-4
1522606750694632,8,8,0,-2,-2,-3,-7,5
1522606750694632,7,-4,-1,0,2,0,2,21
1522606750696638,-1,5,1,-2,-1,-10,-15,-6
1522606750696638,-20,-9,-7,-4,-9,3,13,1
1522606750716691,3,-8,-6,-4,-2,11,5,11
1522606750716691,3,7,3,-2,-3,-4,3,7
1522606750718697,-1,-9,-2,-1,3,6,-4,-6
1522606750718697,-3,11,7,5,5,-10,-13,-14
1522606750730729,1,-3,-6,-2,-10,-4,-1,6
1522606750730729,-2,-3,-2,-3,-4,5,-7,-3
1522606750739753,-2,7,0,-2,7,-1,3,11
1522606750739753,4,-9,-6,-3,0,16,17,-9
1522606750754792,0,5,1,-1,0,-9,7,-12
1522606750754792,4,-5,-2,0,1,3,-47,4
1522606750755796,-2,-5,0,1,-2,-10,-10,3
1522606750755796,2,0,3,-4,-1,0,3,3
1522606750776851,2,2,2,3,2,-1,5,6
1522606750776851,-11,-6,-10,-8,-8,-8,12,-16
1522606750778857,-4,3,6,5,10,7,1,22
1522606750778857,0,0,-4,-2,3,-3,-16,10
1522606750790888,8,7,3,1,-1,3,-4,-16
1522606750790888,-3,3,-1,0,1,-4,7,1
1522606750799913,6,-2,1,1,-6,-6,-3,-3
1522606750799913,-2,-2,1,0,3,-6,-4,-6
1522606750814952,-7,-7,-1,1,-8,7,-4,-6
1522606750814952,3,2,1,-1,2,0,8,10
1522606750815956,-1,11,1,-3,0,14,-2,-13
1522606750815956,1,-4,-3,-2,-5,-13,8,2
1522606750837011,3,-3,1,-10,-6,-7,-11,5
1522606750837011,-4,-5,3,10,5,-9,4,0
1522606750839017,3,-3,-1,9,17,7,16,5
1522606750839017,-6,0,-5,-1,0,4,-13,-20
1522606750851048,-2,-2,-3,-5,-2,-6,-5,10
1522606750851048,-5,-7,-4,-1,-26,0,8,12
1522606750860073,5,0,0,0,-5,-4,7,8
1522606750860073,-1,-4,-2,4,3,-3,-4,6
1522606750874110,-1,9,4,3,10,2,-1,4
1522606750874110,-1,-5,-3,-6,0,6,-2,-8
1522606750876116,-2,2,-2,-4,-10,-9,-4,-6
1522606750876116,2,-7,-4,-3,-8,-3,20,1
1522606750897171,-14,-1,-2,3,2,-8,3,4
1522606750897171,2,12,7,-1,9,15,-8,-5
1522606750899177,-3,-5,-4,-2,-7,-6,-15,-18
1522606750899177,2,1,3,-2,1,7,5,8
1522606750910206,4,-4,-1,2,-8,0,-26,5
1522606750910206,1,-3,-3,-1,-1,-23,6,-4
1522606750919230,0,-7,-4,-2,1,0,4,1
1522606750919230,11,10,5,0,-1,9,-7,18
1522606750934270,-1,1,2,1,-4,-2,12,6
1522606750934270,0,-2,-3,-1,0,6,-3,-20
1522606750936275,-5,2,-2,-5,-8,-5,-11,-7
1522606750936275,4,-9,-4,-3,8,-2,9,-6
1522606750957331,0,4,-3,0,1,11,-19,-3
1522606750957331,1,-2,-1,-2,-4,-1,2,-5
1522606750958334,1,4,3,0,-5,-7,-15,4
1522606750958334,-7,-2,0,-1,-9,-1,-3,-12
1522606750970366,-4,-3,-5,-2,4,10,21,2
1522606750970366,2,1,-1,-2,2,-1,5,3
1522606750979390,-6,-2,1,5,1,0,12,-2
1522606750979390,3,3,-5,-1,4,0,-20,-1
1522606750994430,-4,7,7,-4,-7,-2,-1,-5
1522606750994430,0,0,-5,0,0,-5,-21,2
1522606750996435,7,0,0,1,4,12,9,2
1522606750996435,-2,-13,-3,2,6,-1,3,9
1522606751017491,0,3,0,-3,-12,-4,8,1
1522606751017491,4,-1,0,-2,1,0,1,1
1522606751018494,-1,-3,-5,-3,-1,10,-6,-13
1522606751018494,-6,3,1,1,-6,-17,5,-4
1522606751030526,2,-7,-1,2,10,-2,-21,3
1522606751030526,4,-2,4,2,2,4,12,13
1522606751039550,-7,10,-1,-3,-2,-7,-8,2
1522606751039550,-4,1,-5,-4,0,14,16,-4
1522606751054590,1,-7,-5,1,-4,-8,-1,-5
1522606751054590,4,-8,-1,-3,-5,-1,8,4
1522606751056595,-6,12,2,2,2,-4,10,2
1522606751056595,-6,-4,0,-1,1,-4,-38,-16
1522606751076650,-3,6,-4,-5,-2,3,18,-5
1522606751076650,-5,-8,-7,-5,1,7,1,-4
1522606751078654,1,-4,-1,-1,-5,-1,-6,5
1522606751078654,-3,-1,1,-1,1,-13,1,-6
1522606751090686,2,-4,4,2,6,7,0,-5
1522606751090686,-5,-3,-1,3,0,-2,-5,-26
1522606751099710,-7,0,-1,-5,-7,-2,5,3
1522606751099710,7,10,0,0,-1,1,-1,0
1522606751113747,-7,-22,-6,0,5,-9,-25,-13
1522606751113747,-4,6,2,2,1,4,12,3
1522606751120766,4,1,1,-1,2,-1,3,-3
1522606751120766,2,-11,-8,1,10,18,-3,18
1522606751136809,-3,14,6,0,-4,6,17,-5
1522606751136809,-4,11,-2,-1,-7,-18,-4,-9
1522606751138814,-1,-14,-4,-3,-5,-8,3,6
1522606751138814,-2,-2,-3,-3,-6,3,1,-4
1522606751159870,2,-4,1,4,6,-1,14,12
1522606751159870,-1,-6,-3,1,3,3,3,7
1522606751160873,6,4,4,-1,3,0,0,11
1522606751160873,0,8,-6,-9,-11,-2,-8,-15
1522606751173907,-6,-12,-6,-7,-5,-5,-4,-3
1522606751173907,4,2,1,3,0,4,3,17
1522606751180926,8,-1,4,1,-3,-3,6,-5
1522606751180926,2,23,5,-3,-2,-1,-2,4
1522606751196969,1,4,2,0,1,-3,2,-5
1522606751196969,5,7,-1,0,4,-2,-7,-10
1522606751198974,-7,-12,-6,-2,0,-7,-9,-11
1522606751198974,-4,-10,-3,-1,2,17,3,3
1522606751219027,-10,-6,-6,-2,-1,-10,-3,-11
1522606751219027,-4,-1,0,-2,-2,0,2,9
1522606751221033,0,0,-2,1,3,13,14,-20
1522606751221033,-4,-9,-1,-1,-8,-13,-34,-7
1522606751234067,-5,-3,-2,0,3,-2,-11,-15
1522606751234067,-1,-2,-2,-2,7,2,4,6
1522606751241086,-3,2,0,-3,-20,7,2,1
1522606751241086,-5,-3,-1,1,-5,-33,4,11
1522606751257129,6,-2,2,-5,-3,13,7,2
1522606751257129,-2,-4,-4,1,1,-8,-6,2
1522606751259134,-1,7,-3,-1,5,3,-1,0
1522606751259134,-1,-8,-1,-4,-7,11,5,-1
1522606751279187,-8,-3,-6,-3,-2,-11,-9,-2
1522606751279187,-1,-19,-4,-4,-4,0,7,-9
1522606751281193,1,19,4,4,4,-4,-3,2
1522606751281193,0,-4,4,6,5,-3,13,-7
1522606751294227,4,8,-1,-2,-3,-1,-11,21
1522606751294227,-7,-8,-2,2,4,11,-4,-7
1522606751300243,-3,-15,-8,-6,-6,1,-6,6
1522606751300243,6,8,2,0,7,-3,5,1
1522606751317289,0,0,1,1,3,2,0,5
1522606751317289,19,20,6,5,-3,-5,2,20
1522606751318291,-3,-7,-3,-2,-2,-4,-12,-9
1522606751318291,-2,4,0,0,-2,-4,14,-1
1522606751339347,8,-2,3,5,14,2,-24,-1
1522606751339347,-1,1,-2,-4,-4,10,4,5
1522606751341353,-2,-4,-3,-1,-3,-2,11,10
1522606751341353,-8,-11,-6,0,-2,-4,-14,1
1522606751354388,5,8,-3,1,2,12,16,1
1522606751354388,-7,-8,2,-2,-8,-37,-4,-9
1522606751360403,5,-9,-6,-2,7,21,-3,-11
1522606751360403,-5,-2,3,4,-2,-3,0,-10
1522606751377448,0,-1,-1,-2,-4,-8,0,-6
1522606751377448,-11,-3,-5,-2,2,2,-3,-14
1522606751378451,-4,1,0,-2,-4,-5,14,7
1522606751378451,1,-10,-3,-2,0,1,-8,4
1522606751399507,7,2,-2,0,-6,-4,9,-6
1522606751399507,1,5,2,0,-4,6,-11,-6
1522606751401513,-3,-3,1,-4,-6,-6,8,8
1522606751401513,3,6,1,1,0,4,3,3
1522606751413545,-6,5,2,-4,-2,6,1,5
1522606751413545,-9,-7,-8,-1,0,3,-1,1
1522606751422569,1,3,4,1,3,-8,-4,0
1522606751422569,-4,0,0,-2,-3,-1,8,2
1522606751436608,-3,-8,-2,1,0,-4,-8,-11
1522606751436608,5,4,1,-1,-4,-10,-4,4
1522606751438611,-6,-9,-6,-3,-2,14,-1,-15
1522606751438611,2,3,0,-2,-1,-4,-4,3
1522606751459667,2,-6,-1,0,0,-3,1,-3
1522606751459667,0,1,0,-1,3,0,-4,15
1522606751461673,4,0,1,-1,6,-6,-13,-14
1522606751461673,5,-2,-3,5,-9,7,12,0
1522606751472702,-11,2,2,1,-2,1,1,-5
1522606751472702,-5,0,0,-3,-1,6,0,-5
1522606751481726,1,4,4,1,-5,-6,-6,11
1522606751481726,-1,-5,-3,-4,11,-1,-2,-9
1522606751496766,3,-3,-3,0,-1,-1,22,6
1522606751496766,5,6,0,-3,-5,5,2,-1
1522606751498771,0,-2,-6,1,1,-6,-14,4
1522606751498771,-2,3,8,-2,-1,5,1,0
1522606751519827,4,2,2,0,-3,-9,3,8
1522606751519827,1,-2,-1,1,5,-6,8,-7
1522606751520830,-3,3,-2,-1,0,16,-2,1
1522606751520830,2,-4,-9,1,-7,-9,-2,-8
1522606751532862,2,-8,0,0,-1,-4,2,10
1522606751532862,-7,9,-4,-2,-1,9,-8,-33
1522606751541885,-3,-6,4,2,3,-7,-3,6
1522606751541885,-2,-6,-1,1,4,-6,-1,-12
1522606751556926,3,5,-2,-4,-2,2,-8,14
1522606751556926,2,-8,-1,2,-4,-1,-9,4
1522606751558931,12,11,1,1,3,-9,-6,-3
1522606751558931,-9,3,3,-4,-2,10,2,2
1522606751579987,4,-14,-4,-3,-4,-4,-6,-2
1522606751579987,2,21,1,-3,-5,4,-23,2
1522606751580990,-14,-11,-2,-1,0,-7,6,-8
1522606751580990,0,-2,3,4,3,-1,3,14
1522606751593022,-4,2,-1,2,1,-5,2,-15
1522606751593022,4,-6,-2,-3,13,14,12,8
1522606751602046,-12,-10,-7,-4,-7,-5,-4,0
1522606751602046,0,4,-5,-4,2,7,-8,-5
1522606751617086,-3,-2,0,0,-6,-2,-1,0
1522606751617086,4,4,3,-2,1,-20,6,21
1522606751619091,-1,10,3,2,-1,5,-10,-28
1522606751619091,-5,-7,-3,-7,-6,-5,-9,0
1522606751639145,3,2,-2,-3,4,7,-3,-2
1522606751639145,1,-6,4,5,1,5,25,9
1522606751641150,5,1,-2,-4,-1,-5,-11,12
1522606751641150,-1,0,-4,-2,-2,0,-32,-5
1522606751653182,10,10,4,1,-6,-1,-6,-3
1522606751653182,-12,-8,-3,1,0,-3,1,-2
1522606751662206,0,-3,-4,1,2,0,5,10
1522606751662206,-1,-4,-2,-1,4,2,2,-10
1522606751677246,-2,1,-2,-2,-6,-4,-8,1
1522606751677246,-3,-6,-2,-2,-2,2,11,2
1522606751678248,5,2,-1,2,3,-3,-4,3
1522606751678248,3,3,3,-1,-4,-2,4,-7
1522606751699304,-4,5,-1,-2,2,2,-2,-7
1522606751699304,-4,-18,0,1,-5,0,-5,-3
1522606751701310,-2,3,-3,-1,0,-4,6,-1
1522606751701310,0,-4,-4,-2,-3,-3,16,11
1522606751713342,-2,-1,2,-1,-1,3,-24,-4
1522606751713342,-1,0,-4,-2,-1,3,-5,1
1522606751722366,6,-1,0,2,1,6,-4,-7
1522606751722366,0,0,3,2,7,1,6,10
1522606751737406,-8,-1,-4,-2,-2,-6,15,-9
1522606751737406,-4,1,-1,-1,-12,0,10,-4
1522606751739411,5,5,0,-5,-3,-12,-16,3
1522606751739411,-4,-12,-6,1,2,8,-1,-8
1522606751759464,2,7,8,1,5,4,-2,2
1522606751759464,2,-4,1,2,6,-1,6,3
1522606751761470,-4,1,-4,-4,-5,-4,13,-3
1522606751761470,-1,-6,1,5,-5,-5,-5,-2
1522606751773502,-1,2,-4,0,-2,4,-22,-6
1522606751773502,5,13,6,-1,0,5,-12,4
1522606751782526,-4,-17,-6,0,1,-1,26,8
1522606751782526,1,8,1,-2,-3,-6,-23,-18
1522606751796563,-1,-13,-7,0,8,-3,8,19
1522606751796563,-1,6,1,-2,-10,5,-13,-28
1522606751798569,-2,-1,-3,-1,-4,-20,10,11
1522606751798569,1,-4,-5,-8,-2,6,9,6
1522606751819624,0,1,0,-3,-2,2,15,6
1522606751819624,2,14,3,1,7,0,-15,4
1522606751821630,-1,-6,-1,2,3,6,1,-1
1522606751821630,1,1,-1,-2,-9,-6,16,1
1522606751833662,6,-11,-1,0,2,4,6,4
1522606751833662,-10,-8,-3,-1,2,-6,-12,-7
1522606751842686,-3,2,2,3,-2,0,-10,-24
1522606751842686,2,4,3,-3,-1,-1,-5,20
1522606751856723,-1,-3,-9,-2,1,-7,-15,-10
1522606751856723,8,-7,-1,5,2,0,10,-8
1522606751858728,-6,6,2,-3,2,9,-3,7
1522606751858728,-5,-7,-3,-1,-12,3,6,-6
1522606751879784,-6,6,4,0,0,-3,8,6
1522606751879784,-2,-5,-5,-4,-3,-6,-11,-6
1522606751880787,1,-6,-1,2,10,1,5,6
1522606751880787,4,4,-1,0,2,9,25,11
1522606751892819,-3,2,0,1,-11,-4,-17,-16
1522606751892819,-7,-2,-5,-8,-4,-23,17,-6
1522606751901843,5,-4,3,1,-6,5,-3,-3
1522606751901843,5,6,0,0,5,-7,-2,4
1522606751916883,-2,3,1,-1,-1,4,2,-12
1522606751916883,-5,-3,-4,-3,0,9,-7,-6
1522606751918888,2,1,4,2,-2,2,7,12
1522606751918888,3,-4,-5,3,4,-4,-10,-17
1522606751939944,-3,8,1,-5,-5,-8,-3,-5
1522606751939944,-7,-4,-1,2,2,4,7,-7
1522606751940947,-1,-4,1,-1,6,2,-2,5
1522606751940947,-1,4,2,4,-2,-16,-13,-21
1522606751952979,-2,-4,2,1,-7,15,-6,0
1522606751952979,6,2,-3,-6,-9,-3,3,6
1522606751962003,-5,-5,-5,-3,4,6,23,-14
1522606751962003,-5,-15,-2,1,2,-11,-9,13
1522606751977043,-2,6,-6,-1,2,-4,11,-15
1522606751977043,5,6,1,-1,-9,1,-8,-2
1522606751979048,0,-6,-4,-4,-5,6,-16,-4
1522606751979048,4,-2,1,-1,1,-2,6,10
1522606751999102,-4,-4,-1,2,2,-10,9,7
1522606751999102,-4,-3,2,3,1,-10,-19,-14
1522606752001107,-1,-2,-3,-1,0,10,-11,-3
1522606752001107,-7,6,-2,-7,0,12,-3,3
1522606752013139,4,1,2,2,3,3,-7,-2
1522606752013139,-1,-2,-3,0,2,-5,11,13
1522606752022163,4,1,1,-1,-2,-14,-2,3
1522606752022163,-6,3,-4,-3,-1,7,6,-1
1522606752036201,4,-2,3,1,5,3,0,12
1522606752036201,-1,-1,0,-1,-2,-11,-7,-18
1522606752043219,-4,1,0,1,0,-2,3,-8
1522606752043219,-1,0,2,-1,5,14,-25,11
1522606752059262,0,-6,-8,-7,0,-14,-4,-9
1522606752059262,-1,-1,2,3,4,15,1,5
1522606752061267,2,0,0,-1,-5,-8,-7,11
1522606752061267,-1,0,0,-1,-5,-11,23,-15
1522606752073299,-10,-5,0,-2,-4,0,1,0
1522606752073299,4,-3,-2,1,3,-13,-14,10
1522606752082323,-1,2,-3,1,6,18,0,-9
1522606752082323,-5,0,-2,-3,-5,-4,-8,6
1522606752096360,1,-1,1,-2,1,3,1,-4
1522606752096360,-2,-1,0,-2,-5,5,0,-3
1522606752103379,-2,4,1,-2,-9,0,1,10
1522606752103379,-4,1,0,2,-3,-29,-13,-7
1522606752119422,1,-8,-3,-2,-1,11,17,9
1522606752119422,-2,-3,-5,-3,0,4,-2,-4
1522606752121427,6,4,0,-3,-3,-1,-10,2
1522606752121427,-2,-1,-2,0,4,8,1,4
1522606752142483,-3,-1,1,2,3,-1,-1,-5
1522606752142483,0,-4,-2,0,-6,8,25,6
1522606752143486,-1,0,1,-3,2,-6,-5,5
1522606752143486,5,6,2,-4,-5,1,4,-8
1522606752156521,-9,-16,-6,1,-2,-8,-5,-17
1522606752156521,2,19,6,1,1,-2,-4,5
1522606752163539,-10,-16,-4,0,-4,-3,6,-2
1522606752163539,3,13,2,0,2,1,4,0
1522606752179582,-11,-12,-7,-6,-7,4,-2,-5
1522606752179582,5,1,-3,-6,1,-4,1,20
1522606752181587,3,-1,4,4,4,-8,-3,-16
1522606752181587,-4,-2,-3,-1,-8,7,4,4
1522606752201640,3,-3,1,1,-6,-5,7,8
1522606752201640,0,6,0,0,4,-3,-3,4
1522606752203646,5,5,2,-2,-1,-6,-18,3
1522606752203646,-1,-15,-5,-3,1,7,6,-11
1522606752216680,1,9,-1,-3,-10,-2,-5,10
1522606752216680,-9,-9,-6,-2,-3,6,-4,-4
1522606752222696,10,6,-2,-5,-2,-6,12,5
1522606752222696,4,2,5,6,5,-5,14,5
1522606752239742,4,3,2,1,-3,0,0,-5
1522606752239742,-4,-2,-3,-3,-1,-6,-12,-3
1522606752240745,-2,2,-1,2,-2,-4,-3,1
1522606752240745,3,-7,-4,-4,9,11,-10,-5
1522606752261800,-1,3,-5,-6,-12,-1,5,10
1522606752261800,-2,6,3,2,-1,4,8,-17
1522606752263806,2,-8,-3,-1,-2,-5,6,2
1522606752263806,-5,2,-2,2,-1,-3,-11,1
1522606752276841,5,-5,4,4,8,-4,13,11
1522606752276841,-6,10,6,2,4,11,-21,-5
1522606752282856,-4,-6,-3,-2,-10,-6,-11,-3
1522606752282856,-4,-7,-1,0,5,1,-9,-10
1522606752299902,-2,1,-3,0,10,0,-9,1
1522606752299902,4,-11,-4,-3,-10,-6,11,8
1522606752300905,-4,5,0,1,1,-7,-12,-17
1522606752300905,-11,-8,-3,-3,-6,-3,12,8
1522606752321960,-1,2,1,1,3,10,-34,-20
1522606752321960,-2,-10,-9,-4,-1,-8,-1,0
1522606752323966,1,8,2,1,8,21,6,3
1522606752323966,11,-8,-4,-1,-2,-17,-19,-18
1522606752335998,-6,7,5,2,-3,-6,-1,10
1522606752335998,0,-1,0,0,-1,-3,7,-10
1522606752343016,-1,-7,1,-1,-1,-4,-10,0
1522606752343016,5,6,0,-2,-3,9,8,6
1522606752360062,-9,0,-4,-4,0,1,8,-12
1522606752360062,6,4,4,3,1,-6,-3,14
1522606752361065,2,6,-1,-4,-5,-6,12,-10
1522606752361065,2,3,3,5,5,8,10,8
1522606752382121,-3,-8,-3,-1,-3,-3,-7,-3
1522606752382121,-6,-12,-9,0,5,1,-5,-6
1522606752384126,-4,2,-2,-3,-7,1,-1,-4
1522606752384126,8,9,1,-1,-4,-10,17,10
1522606752396158,9,4,4,1,5,12,0,3
1522606752396158,-7,-16,-3,4,-3,6,1,-1
1522606752405182,-6,12,4,-3,-4,1,3,10
1522606752405182,-3,3,-1,2,-2,-8,-10,-8
1522606752419219,3,-12,-5,2,-3,-3,-3,-7
1522606752419219,-7,-4,-1,1,7,11,9,2
1522606752421225,1,-13,-6,-1,-13,-21,2,-1
1522606752421225,-9,8,4,-2,-6,0,1,4
1522606752442280,5,8,1,-4,1,-9,-6,3
1522606752442280,21,11,5,5,3,2,-1,2
1522606752443283,-9,-8,-3,0,6,7,7,2
1522606752443283,0,-6,-5,-3,0,-1,-2,-10
1522606752455315,9,18,2,-1,-5,-3,-2,9
1522606752455315,6,4,3,0,-2,0,5,9
1522606752464339,-8,-8,-7,-3,1,-6,1,-13
1522606752464339,7,-9,1,4,-2,-4,16,14
1522606752479379,11,1,-5,-4,1,7,-28,10
1522606752479379,-15,4,3,-2,-5,3,3,7
1522606752481385,-5,-6,-8,-4,5,6,18,9
1522606752481385,0,4,12,2,3,10,-22,-8
1522606752502440,-4,21,3,-2,-2,-14,10,-4
1522606752502440,7,-11,-8,-3,-6,-6,10,3
1522606752503443,-2,-3,-4,3,17,17,0,-6
1522606752503443,2,2,-3,-7,-12,-26,-9,-1
1522606752515475,-3,-14,-5,-1,-6,-7,-5,-19
1522606752515475,0,8,4,3,5,1,-9,-3
1522606752524499,6,-6,3,4,1,3,-1,-1
1522606752524499,-2,5,-1,1,8,11,6,4
1522606752539539,-2,-5,-4,-2,-2,-6,6,2
1522606752539539,1,-1,-3,1,0,-22,-2,-6
1522606752541544,-1,-4,2,-3,-9,25,-28,-4
1522606752541544,4,12,-2,-2,-2,3,-16,13
1522606752561597,5,-6,-5,-5,-3,-4,4,5
1522606752561597,-12,-7,-1,0,5,-2,-5,-12
1522606752563603,3,10,4,0,-11,-11,8,8
1522606752563603,-12,-11,-5,-1,-3,-1,-17,-6
1522606752575635,1,-5,3,0,0,6,7,10
1522606752575635,6,0,-5,-1,3,-1,-1,1
1522606752584659,-8,-12,-4,-1,0,-11,-6,-16
1522606752584659,-3,4,1,0,-2,3,-12,-7
1522606752599699,-5,-9,-2,1,-3,13,21,-3
1522606752599699,8,3,0,-2,-4,-17,-5,-2
1522606752600702,3,12,1,1,3,3,-4,6
1522606752600702,-1,-13,0,4,-2,-5,2,2
1522606752621757,-10,-2,1,7,14,2,-4,-5
1522606752621757,-1,0,-3,-8,-10,19,25,7
1522606752623763,3,-5,1,3,2,-8,-18,-3
1522606752623763,-5,-3,-6,-5,-3,-8,0,-11
1522606752635796,3,-1,-2,0,0,-6,1,0
1522606752635796,-10,1,2,-1,2,4,12,-4
1522606752644819,1,0,-4,-4,-9,7,-11,-14
1522606752644819,-4,3,-1,0,2,7,6,0
1522606752659859,1,-2,-1,-4,-5,-8,0,1
1522606752659859,-2,-8,-2,1,-5,-6,0,16
1522606752660862,-3,7,4,3,6,3,22,-2
1522606752660862,-4,-9,-9,-6,-2,-4,-27,-3
1522606752681917,-1,3,1,-3,-8,-1,6,-9
1522606752681917,5,6,0,-1,-1,-5,-13,3
1522606752683923,-5,-6,-5,-3,5,-11,0,-7
1522606752683923,6,1,1,2,-4,13,11,-1
1522606752695955,0,-1,-1,-1,4,-9,-3,10
1522606752695955,-3,-3,-5,-5,-10,17,14,-8
1522606752704979,-6,-3,-5,-2,-4,-22,-27,-1
1522606752704979,1,4,3,-1,2,-1,8,-2
1522606752720019,-5,-5,2,3,1,-2,-5,3
1522606752720019,1,-6,0,-1,1,3,9,-6
1522606752721022,8,15,-3,-3,-3,-7,-3,9
1522606752721022,7,1,1,4,1,1,11,-3
1522606752742077,-6,-4,-2,-2,-6,8,-6,-5
1522606752742077,-2,2,0,-4,-2,3,-3,-7
1522606752744083,-3,-7,-2,-1,2,-1,7,12
1522606752744083,11,5,-2,-3,-7,-3,-5,10
1522606752756115,-11,-7,-5,-2,-2,-6,0,-13
1522606752756115,4,-6,0,0,3,-5,-9,6
1522606752765139,0,-1,1,1,6,8,-11,-6
1522606752765139,2,1,1,-2,-6,1,8,-7
1522606752779176,-6,-11,-6,-2,2,-1,7,-5
1522606752779176,-1,3,1,-2,-3,-10,-24,-1
1522606752781182,7,6,4,0,0,2,-23,4
1522606752781182,-7,-6,-3,0,3,-6,0,2
1522606752803240,-1,0,0,3,-1,22,-8,-9
1522606752803240,1,5,-2,-2,-2,-28,-4,-1
1522606752804243,-2,-6,-2,0,-13,7,16,7
1522606752804243,-4,-8,-3,-2,2,-5,0,-7
1522606752815272,4,2,3,0,4,-4,-8,10
1522606752815272,-10,-4,-3,-3,-4,9,-5,-15
1522606752824296,-4,15,8,1,-1,-5,5,-4
1522606752824296,-5,0,1,1,9,0,3,8
1522606752839336,5,7,2,2,-5,7,4,-4
1522606752839336,-4,-15,1,5,6,6,-1,3
1522606752841342,-6,-4,-3,-3,-3,-2,12,-12
1522606752841342,-2,-3,-4,-3,-1,-8,-2,10
1522606752862397,6,4,3,-1,1,3,5,4
1522606752862397,5,9,2,-3,-3,-1,-35,-10
1522606752863400,3,4,2,2,-1,3,3,5
1522606752863400,5,-5,-2,-3,-2,-1,1,2
1522606752875432,0,4,-2,1,-2,-16,-5,6
1522606752875432,2,-2,-2,0,6,13,38,7
1522606752884456,-4,1,-5,-6,-3,-2,-17,-10
1522606752884456,1,4,2,-1,-3,5,-4,1
1522606752899496,4,6,2,-3,-4,-4,2,9
1522606752899496,-13,-15,-9,0,-3,-4,-5,-17
1522606752901502,3,-6,-4,2,7,3,7,19
1522606752901502,-5,-10,-3,-1,-4,-3,2,-7
1522606752922557,5,9,2,1,-3,-1,11,-14
1522606752922557,-8,-8,-3,1,9,-9,-1,-16
1522606752923561,8,3,4,-1,-3,27,25,21
1522606752923561,-12,-8,-8,-4,-2,-6,-23,-26
1522606752935592,-6,-4,-2,-1,-1,-2,6,17
1522606752935592,6,-1,3,7,2,-4,-4,6
1522606752944616,-3,0,1,-1,-2,-11,6,4
1522606752944616,-5,-3,-1,1,5,11,10,-7
1522606752959656,-2,-8,-4,1,5,-7,2,3
1522606752959656,-2,0,-10,-7,-12,6,-26,-6
1522606752961662,7,5,0,0,-3,4,-21,9
1522606752961662,2,1,4,2,-1,2,11,8
1522606752981715,2,3,3,-1,0,-8,-11,-3
1522606752981715,-1,4,-1,-2,-4,2,19,10
1522606752983720,-5,-5,-8,-4,4,-11,3,-8
1522606752983720,4,10,-1,-4,-2,5,-9,-2
1522606752995752,-8,-14,-6,-6,-4,-1,-6,-4
1522606752995752,-3,5,3,5,4,-4,-2,-11
1522606753004776,-4,-2,1,-1,-4,-1,0,-2
1522606753004776,3,4,2,-1,-7,4,21,6
1522606753018813,2,-5,-4,-3,-2,1,-14,-8
1522606753018813,1,10,1,-2,6,4,3,6
1522606753025832,-5,-13,-6,1,0,-12,-11,-34
1522606753025832,-5,-3,1,0,-7,-6,0,3
1522606753041875,-4,-15,-7,-4,1,-2,-16,-5
1522606753041875,5,-1,-7,-6,-13,1,-5,3
1522606753043880,0,5,-2,-2,7,-2,17,17
1522606753043880,-1,-6,6,4,6,6,-27,-6
1522606753064936,2,5,-1,2,-1,5,-6,13
1522606753064936,7,-2,1,-1,4,1,27,16
1522606753065939,-10,-13,-11,-8,-7,-6,-19,-16
1522606753065939,-8,-5,-2,2,-2,-8,-6,-5
1522606753078973,-8,-3,-4,-5,-1,-15,3,-11
1522606753078973,6,1,7,3,4,17,7,15
1522606753085992,13,5,2,2,-2,5,5,3
1522606753085992,5,5,0,-2,-1,-11,-3,2
1522606753102035,-4,0,3,1,0,7,6,1
1522606753102035,4,5,1,1,-4,-10,0,0
1522606753104040,-12,-6,-5,-1,3,10,-2,-10
1522606753104040,1,4,1,-7,-4,-13,-5,13
1522606753124094,-3,10,5,0,-4,0,1,-8
1522606753124094,-3,-3,-1,0,-2,0,0,-6
1522606753126099,9,-4,-4,1,-3,1,16,12
1522606753126099,5,-10,-3,-1,1,3,-31,2
1522606753139133,2,5,-1,-1,-7,6,7,-4
1522606753139133,2,-3,-3,-5,-1,-13,3,18
1522606753146152,6,1,0,-1,4,-6,-12,-16
1522606753146152,-16,-3,-2,3,2,18,19,-9
1522606753162195,2,-12,-4,2,0,-7,4,-3
1522606753162195,-1,1,2,-1,-3,3,-28,-6
1522606753164201,12,5,0,-2,3,0,5,21
1522606753164201,-2,12,2,1,3,-4,10,-7
1522606753184254,-8,1,0,0,0,-3,-6,-20
1522606753184254,-6,-8,-7,-2,-5,1,14,-14
1522606753186259,-6,1,0,1,-1,-5,-22,-11
1522606753186259,-1,1,2,-3,-3,5,7,-4
1522606753199293,6,3,-5,-1,-1,2,0,7
1522606753199293,1,3,2,-3,-1,-9,-8,-10
1522606753205309,-2,-2,4,0,-2,-6,8,8
1522606753205309,-2,-6,-11,-2,-1,3,1,-16
1522606753222355,-6,-2,3,2,0,7,6,11
1522606753222355,-5,3,-3,-5,4,1,6,12
1522606753223358,-5,-9,-4,0,0,-1,7,-5
1522606753223358,4,1,-2,-2,-9,-9,-3,7
1522606753244414,-2,-1,1,4,13,4,12,6
1522606753244414,0,0,5,6,3,6,-16,-9
1522606753246419,-1,3,2,-3,0,4,11,7
1522606753246419,-1,-1,-4,-5,1,0,-11,-5
1522606753258451,9,14,-3,-1,-3,-8,-7,17
1522606753258451,-6,-6,-3,-4,-5,-13,-2,8
1522606753265469,0,6,5,3,-4,-4,21,2
1522606753265469,6,-14,6,3,5,3,-4,-5
1522606753282515,-9,3,-1,-2,-8,8,-13,-3
1522606753282515,-4,-1,-4,-3,1,-1,6,5
1522606753283518,-12,-14,-3,-2,-9,-1,-11,-14
1522606753283518,-6,6,-4,-4,-6,-17,8,7
1522606753304574,8,-15,0,1,6,-9,0,7
1522606753304574,-7,-3,0,-4,-11,20,-15,7
1522606753306579,2,6,-3,0,3,-2,-1,-17
1522606753306579,1,-1,-2,0,0,2,-27,0
1522606753318611,2,-3,-3,-2,6,4,11,-1
1522606753318611,8,7,4,0,-20,-22,2,-9
1522606753327635,2,-2,4,1,0,4,3,8
1522606753327635,4,6,2,0,1,-2,6,-3
1522606753341672,11,7,5,5,1,-1,4,-4
1522606753341672,-3,-5,-2,1,10,4,6,1
1522606753343678,1,-1,1,1,3,5,-3,-7
1522606753343678,2,-6,-3,-2,-4,1,0,6
1522606753364733,4,9,-4,-6,-4,-1,-6,-2
1522606753364733,-3,-1,0,1,3,-2,5,3
1522606753365736,0,-1,2,1,0,-8,1,-7
1522606753365736,6,4,-2,-8,-3,-4,-7,8
1522606753377768,-1,-15,-1,2,1,2,6,15
1522606753377768,-6,5,-1,2,-3,-7,6,-2
1522606753386792,-12,-9,-5,-4,-2,7,-8,3
1522606753386792,6,-7,0,2,6,17,15,-12
1522606753401832,0,-1,-3,-4,-2,-6,16,-3
1522606753401832,-1,-4,-3,-1,-2,-8,-7,-11
1522606753403838,9,5,-2,-2,2,-7,-10,10
1522606753403838,-4,-1,0,-1,-1,1,12,3
1522606753424893,-5,2,2,1,-1,0,0,-4
1522606753424893,22,6,-2,1,0,5,8,7
1522606753425896,-10,3,3,2,-4,-2,-3,-7
1522606753425896,-2,-1,-3,-1,2,0,-14,-7
1522606753437928,-7,-11,-3,-4,0,-7,-9,-10
1522606753437928,3,2,2,2,3,9,6,5
1522606753446952,7,6,3,2,-3,8,-8,10
1522606753446952,-11,-8,-6,-1,-4,-31,13,1
1522606753461992,-3,4,-1,-2,1,-4,0,5
1522606753461992,-7,-7,-6,-5,3,11,-6,-18
1522606753463998,6,5,-1,-3,-10,-4,4,4
1522606753463998,1,6,1,4,5,7,-5,-4
1522606753485053,-9,-11,-4,-2,-10,-5,-11,-11
1522606753485053,-5,-1,2,1,7,-1,0,-1
1522606753486056,-3,-8,-3,0,5,-1,5,-4
1522606753486056,6,7,-2,-2,-7,-2,12,7
1522606753498088,0,-5,-2,1,-2,0,-3,-5
1522606753498088,-1,-2,1,-1,-1,-3,-2,7
1522606753507112,1,0,2,0,4,-1,-22,-11
1522606753507112,-1,-4,-1,-3,-6,-5,9,-2
1522606753522152,-12,-7,-3,0,-1,15,-10,-8
1522606753522152,-6,-8,-5,1,-2,-3,-9,-11
1522606753524158,-2,-4,-4,-2,0,-14,13,5
1522606753524158,-2,-5,1,3,6,9,2,-1
1522606753544211,2,3,1,-1,-7,-3,-3,4
1522606753544211,1,-6,-3,-3,-5,1,-17,-2
1522606753546216,-8,0,-3,0,3,-9,15,-9
1522606753546216,-6,-4,-2,-3,-9,0,5,-7
1522606753558248,-3,0,-3,-3,-7,4,-1,0
1522606753558248,3,5,-2,-2,-1,-4,-3,3
1522606753567272,1,0,-1,-1,-3,2,0,2
1522606753567272,2,3,5,5,7,3,-1,7
1522606753582312,2,2,2,0,-3,-11,10,-4
1522606753582312,0,-4,-1,0,1,6,-8,2
1522606753583315,1,-5,-3,6,2,10,3,1
1522606753583315,-2,-1,-1,-4,-4,-14,-34,-8
1522606753604371,-2,8,8,0,2,0,0,1
1522606753604371,-1,-1,-1,2,0,-6,1,-3
1522606753606376,1,-7,-9,-7,-6,4,0,4
1522606753606376,7,10,7,4,2,3,-13,16
1522606753618408,-4,0,-4,-4,1,-2,10,-12
1522606753618408,-4,-8,-4,-4,-1,-1,-3,-6
1522606753627432,-1,10,-3,-3,-5,-1,-5,-7
1522606753627432,2,-3,0,-2,-4,-4,12,8
1522606753642472,-1,-3,-1,0,1,-4,-10,-14
1522606753642472,4,-4,3,2,3,4,20,20
1522606753643475,4,0,-7,-9,-3,3,-2,4
1522606753643475,-5,0,-1,4,1,5,5,-9
1522606753664531,2,0,1,-1,-4,-6,-8,6
1522606753664531,-3,0,0,1,1,-6,-3,-6
1522606753666536,7,-1,4,3,1,2,34,16
1522606753666536,-9,3,1,-5,0,2,-14,-5
1522606753678568,-2,-5,-6,-8,-6,6,-4,5
1522606753678568,-5,0,-3,1,-1,-7,1,-10
1522606753687592,-3,-3,1,-1,-1,2,5,5
1522606753687592,-5,0,-3,-6,-7,-3,-9,-9
1522606753701629,4,-5,-2,4,6,2,6,3
1522606753701629,1,2,2,-3,-3,-1,-5,4
1522606753703635,-9,-5,3,0,-2,-5,-12,-20
1522606753703635,2,-7,-6,1,5,-5,8,6
1522606753724691,1,-11,-4,-6,0,0,-11,7
1522606753724691,-3,13,1,2,-1,4,3,-17
1522606753725693,1,1,0,1,1,9,-14,0
1522606753725693,1,1,3,1,-4,-3,33,11
1522606753737725,-1,1,-3,-2,-5,-15,-5,-19
1522606753737725,3,4,2,-3,1,-4,6,24
1522606753746750,-16,-13,-3,4,7,-2,-18,-10
1522606753746750,4,-1,-2,-1,-4,5,11,-17
1522606753761789,-3,2,2,2,2,0,-30,3
1522606753761789,-2,2,-1,-2,-2,6,-5,-8
1522606753763795,-3,-3,-3,-1,-4,-7,-3,13
1522606753763795,-3,-4,1,-4,-5,1,-6,1
1522606753784851,0,-4,-4,-1,0,-1,18,3
1522606753784851,5,6,4,1,-3,-8,-21,-11
1522606753785853,-1,0,-3,-3,-1,4,-1,3
1522606753785853,0,-5,-9,0,0,-5,3,-4
1522606753797885,0,14,3,1,-1,-1,-3,8
1522606753797885,6,3,8,4,-1,3,2,2
1522606753806909,8,4,-1,-1,-2,0,11,-1
1522606753806909,-6,-13,-7,-5,1,2,-37,-17
1522606753821949,-2,-5,-2,2,1,-2,3,-13
1522606753821949,-13,-9,-13,-6,2,2,2,-10
1522606753823955,4,8,7,3,-1,-8,11,8
1522606753823955,-12,-2,1,1,8,10,-26,-11
1522606753845011,-7,-8,-8,0,-6,-10,-6,-12
1522606753845011,3,-1,8,3,5,2,-1,1
1522606753846013,4,3,6,-3,-9,-3,12,2
1522606753846013,7,5,-1,-1,0,-4,-9,-12
1522606753858045,-14,-2,-13,-2,1,3,2,-6
1522606753858045,0,-13,3,4,4,-4,3,22
1522606753867070,0,21,9,2,-2,2,-9,-18
1522606753867070,-2,5,-1,-2,1,0,13,11
1522606753882109,3,-9,-5,0,5,1,-5,-14
1522606753882109,7,-4,-10,-6,-5,5,10,0
1522606753884115,-3,-8,-3,-1,-1,-12,-22,9
1522606753884115,2,6,9,2,-5,-3,-5,-25
1522606753904168,4,6,1,-8,-7,14,-3,11
1522606753904168,-4,1,-4,0,-1,-9,3,-4
1522606753906173,-1,-15,-11,-3,2,-8,4,2
1522606753906173,0,-1,-1,0,-2,-8,-5,5
1522606753918205,-2,-4,5,2,2,14,4,7
1522606753918205,-5,3,-1,-7,-8,-2,-2,-5
1522606753927230,-6,1,1,-2,1,9,-17,-9
1522606753927230,-3,-11,-10,-2,2,-27,13,14
1522606753941267,14,14,11,1,-8,-1,8,7
1522606753941267,-16,-15,-7,-4,0,2,-5,2
1522606753948285,0,9,-1,0,0,2,-2,0
1522606753948285,1,7,1,0,-1,11,5,4
1522606753964328,3,-5,-2,1,5,-12,9,-5
1522606753964328,3,3,1,2,2,0,-3,0
1522606753966333,8,-8,-4,1,3,7,6,14
1522606753966333,-5,-5,-2,-2,0,6,7,-11
1522606753978365,-4,5,4,1,0,-6,-13,1
1522606753978365,14,2,-4,2,1,-4,10,-4
1522606753987390,-16,-3,0,-3,-1,12,-13,-12
1522606753987390,1,-1,-4,-4,-5,6,-2,14
1522606754001427,-4,-5,-4,-1,0,-4,7,-3
1522606754001427,0,5,2,-1,-5,-13,4,-3
1522606754008446,4,-5,-4,0,1,-2,-20,4
1522606754008446,2,0,3,4,6,4,-1,4
1522606754024488,-3,-4,-4,-5,-4,-1,-6,-4
1522606754024488,-10,7,3,2,1,-2,5,-26
1522606754026493,3,-5,0,-2,3,11,5,-5
1522606754026493,0,-4,-7,-1,-3,-5,1,10
1522606754047549,16,10,7,3,9,-5,0,6
1522606754047549,-12,-26,-5,-1,-5,-8,-9,-12
1522606754048552,-2,15,3,-2,1,1,23,2
1522606754048552,5,1,-2,-3,-4,15,4,22
1522606754061587,-2,-1,5,1,0,1,10,5
1522606754061587,0,0,-2,-2,1,4,-10,-6
1522606754068605,-4,-11,-11,-2,3,-21,-10,-7
1522606754068605,0,-7,-10,-6,-9,3,1,0
1522606754084648,0,5,4,-3,-3,-4,4,1
1522606754084648,5,6,4,4,12,15,5,14
1522606754086653,-2,-5,6,1,-5,-6,-33,0
1522606754086653,2,9,3,3,-2,-14,-6,-11
1522606754106707,-2,-5,-9,-1,-2,2,3,-2
1522606754106707,-4,-6,-8,-5,-14,-6,2,1
1522606754108712,-7,-7,0,-4,0,-5,-4,4
1522606754108712,-3,-5,-3,0,7,7,6,-8
1522606754121747,-4,-4,1,3,-3,-1,-5,3
1522606754121747,1,5,3,1,-2,5,7,-1
1522606754127763,5,3,-2,0,-4,-10,11,-3
1522606754127763,-4,-13,2,-2,-2,-4,-19,-1
1522606754144808,-2,2,-3,-1,2,3,7,0
1522606754144808,-1,0,-7,-5,4,2,0,0
1522606754145811,-5,1,0,1,-1,14,-6,-5
1522606754145811,14,1,3,1,-3,-15,0,0
1522606754166867,-6,-5,0,-1,0,2,-7,10
1522606754166867,4,4,2,2,5,-6,-3,1
1522606754168872,5,4,-3,-6,-13,-3,-8,-12
1522606754168872,-9,-2,-6,-4,-6,9,18,-7
1522606754181906,-12,-21,-3,1,-4,1,-10,0
1522606754181906,1,1,2,1,1,-5,-30,10
1522606754187922,3,-2,-1,-1,6,-3,8,-2
1522606754187922,-8,3,2,1,2,-3,-4,5
1522606754204968,10,7,-4,-4,-2,2,12,4
1522606754204968,-10,-7,-2,0,-1,-5,-2,2
1522606754205971,-4,-8,-5,0,1,-2,13,-9
1522606754205971,-2,-1,-3,-5,-9,7,-3,10
1522606754227027,-1,-2,4,2,0,0,-4,-13
1522606754227027,-3,-6,-9,-4,-3,3,1,-4
1522606754229032,3,8,8,0,-5,-18,-5,-10
1522606754229032,4,4,-2,-2,5,6,9,-2
1522606754241064,-6,-8,-7,-3,-1,0,-7,-7
1522606754241064,9,5,7,-1,-4,5,5,4
1522606754248082,1,6,-2,0,-5,-9,-3,-2
1522606754248082,0,2,3,1,9,-14,17,6
1522606754264126,6,-1,0,-2,-8,12,-52,-2
1522606754264126,-2,1,-4,-3,7,10,0,6
1522606754266131,4,4,0,4,-3,-6,3,14
1522606754266131,-4,-5,2,3,0,-2,0,-7
1522606754287187,2,5,3,0,5,-5,21,1
1522606754287187,4,2,3,1,-10,-4,0,-7
1522606754289192,-4,-1,-2,-1,3,10,-3,17
1522606754289192,-3,-4,-4,0,0,-4,-24,-28
1522606754301224,-6,0,-6,0,2,-9,16,-2
1522606754301224,9,8,3,-1,-8,5,3,12
1522606754309245,-4,-3,-7,-1,0,-3,5,-2
1522606754309245,-1,-5,3,2,2,2,-5,-5
1522606754324285,-6,2,-1,-1,0,-2,5,-7
1522606754324285,2,0,1,1,3,-3,11,0
1522606754326291,4,-10,-3,-2,-3,0,8,-2
1522606754326291,0,2,2,3,1,-1,4,6
1522606754347347,2,8,2,-1,-5,9,-34,-4
1522606754347347,-1,-4,-6,-2,5,-7,-14,-4
1522606754348349,-2,-6,-3,1,1,3,7,-10
1522606754348349,-2,-4,0,1,-1,-3,-8,-3
1522606754360381,-8,-6,-4,-3,-8,12,29,-1
1522606754360381,2,5,-2,-1,-5,-21,-8,-3
1522606754369405,-9,-11,-4,-2,7,9,-10,-6
1522606754369405,3,6,5,1,-1,-3,3,-31
1522606754384445,6,6,6,1,0,-7,0,12
1522606754384445,-10,-5,-2,0,-3,5,1,-6
1522606754386451,0,9,0,-1,0,-1,8,3
1522606754386451,-1,0,-4,-1,0,5,-4,21
1522606754407507,6,-5,1,2,3,-5,-10,10
1522606754407507,2,8,0,-1,-1,0,3,-1
1522606754408510,2,6,4,-3,-1,3,13,3
1522606754408510,-5,-3,-4,-3,-8,-4,-5,6
1522606754420541,5,-1,-7,-3,6,-2,12,7
1522606754420541,-6,-12,-4,-1,-5,5,-1,-4
1522606754429565,-9,-5,-4,-3,1,-16,-28,-12
1522606754429565,-5,-13,-4,-3,-7,6,4,7
1522606754444605,-1,6,0,-3,-3,-3,15,-8
1522606754444605,3,-6,-5,-1,2,-1,-6,22
1522606754446611,3,0,0,-2,-8,9,-1,-4
1522606754446611,3,1,2,2,4,-3,0,17
1522606754466664,-2,-6,-1,4,9,12,-6,-26
1522606754466664,2,1,2,-5,-13,5,5,-7
1522606754468669,0,-2,-2,-2,-6,-16,0,6
1522606754468669,-2,0,-1,-3,-1,-7,0,5
1522606754480701,-6,-13,-7,2,1,-4,8,0
1522606754480701,3,14,1,0,8,-1,-34,-6
1522606754489725,0,-4,-2,-2,2,6,9,0
1522606754489725,1,1,2,-1,-4,0,-23,-9
1522606754504765,1,-2,3,1,0,-6,-10,0
1522606754504765,-10,2,-3,-3,-1,4,0,-28
1522606754505768,7,-3,-5,-3,-3,-1,-11,21
1522606754505768,4,4,-4,-6,-2,-6,13,-10
1522606754526824,-8,7,2,1,8,5,-6,-28
1522606754526824,3,-5,-3,0,-4,-4,11,6
1522606754528829,0,5,5,4,-2,-2,-5,-8
1522606754528829,1,-5,-3,-1,-4,6,9,3
1522606754540861,-7,-6,-4,-1,-1,-9,-7,3
1522606754540861,-6,-8,-1,0,5,-15,4,-5
1522606754549885,1,6,-1,-2,1,8,0,-7
1522606754549885,-3,-1,1,-3,0,4,13,8
1522606754564925,5,-9,-6,-3,-8,-8,-9,-2
1522606754564925,-2,3,-2,0,4,7,1,9
1522606754565928,0,-1,1,-2,0,8,8,2
1522606754565928,4,5,3,5,-1,-12,6,8
1522606754586984,2,15,8,0,0,-2,-24,-9
1522606754586984,-1,-21,-7,-1,-3,-4,3,0
1522606754588989,11,4,-2,2,7,1,4,13
1522606754588989,-5,-1,2,-3,-1,-2,-2,-22
1522606754601021,0,-3,-9,-5,-3,4,1,-6
1522606754601021,0,0,4,-4,-5,-4,-1,-3
1522606754610045,-14,0,-10,-5,-2,-11,-5,-10
1522606754610045,-6,-1,0,2,-1,3,-28,7
1522606754624082,6,4,2,1,1,-4,4,16
1522606754624082,5,-7,2,-3,-3,8,11,-4
1522606754626088,-2,-13,-4,-1,5,-3,-5,10
1522606754626088,11,22,1,2,-2,1,4,-20
1522606754647144,-6,-8,-2,0,3,4,3,0
1522606754647144,-6,4,3,4,2,3,5,-1
1522606754649149,4,3,5,4,-4,1,16,0
1522606754649149,-9,-14,-9,-5,-4,-3,-22,-4
1522606754661181,10,5,-2,0,3,4,8,10
1522606754661181,1,-6,2,2,2,-5,5,7
1522606754670205,-5,-4,-1,-1,-4,-10,-4,-11
1522606754670205,2,-5,1,3,10,5,-2,16
1522606754684243,-3,1,-1,0,-3,15,8,-9
1522606754684243,-2,3,-1,-5,-5,-9,-7,2
1522606754686248,10,2,2,5,3,5,2,23
1522606754686248,-9,23,4,-1,-3,-8,14,0
1522606754707304,-3,-15,3,2,-1,-4,-5,6
1522606754707304,-1,1,-3,1,5,-2,0,2
1522606754708307,5,-2,0,-3,-4,2,-10,-3
1522606754708307,-1,-7,-5,-1,-8,-5,12,-9
1522606754720338,-2,-2,-5,2,4,-10,10,-3
1522606754720338,1,2,0,-2,-1,19,12,-4
1522606754729362,-3,4,6,-1,-1,-1,-5,2
1522606754729362,1,-6,0,2,4,3,6,5
1522606754744403,-8,2,-1,-6,-7,-8,-9,-19
1522606754744403,2,-3,-8,-1,-1,-13,-5,-3
1522606754746408,2,-1,-3,-1,3,15,9,10
1522606754746408,-14,0,-8,-6,-5,-14,-13,-15
1522606754767464,5,-5,6,2,0,14,0,15
1522606754767464,-2,13,0,-2,11,-2,-18,-10
1522606754768467,-3,-1,-1,-1,-11,-7,-4,-2
1522606754768467,-3,-6,1,-2,-5,-2,-1,-5
1522606754780499,1,3,-3,-1,-7,-13,6,18
1522606754780499,-3,-3,-2,1,5,10,5,-5
1522606754789522,-2,-1,-1,-1,-6,10,-2,-11
1522606754789522,3,2,-2,-3,-2,-21,-17,4
1522606754804563,-1,-11,-3,-2,4,2,5,-5
1522606754804563,-1,0,5,0,-6,-8,1,12
1522606754806568,-4,-7,-3,0,5,-9,-26,-17
1522606754806568,4,-8,-4,-2,4,24,6,1
1522606754826621,0,16,4,-3,-7,-4,14,-4
1522606754826621,-8,-8,-3,-4,-4,-3,-10,2
1522606754828627,-2,-6,-1,1,2,-10,-1,-8
1522606754828627,4,-1,1,1,6,5,3,7
1522606754840659,-1,-1,1,-1,-3,-12,-18,-4
1522606754840659,3,1,-4,-3,-8,2,19,6
1522606754849683,-12,-3,0,-1,4,11,17,-9
1522606754849683,8,-8,-10,0,-5,-3,-2,0
1522606754864723,-4,0,1,-1,2,4,-8,-38
1522606754864723,0,-3,2,3,2,-9,-6,8
1522606754865725,7,2,-1,-3,-6,-12,16,-4
1522606754865725,-22,-13,-4,0,-2,20,-9,-27
1522606754886781,0,-2,-2,-1,-11,-21,8,18
1522606754886781,3,1,2,1,-2,-10,-6,-7
1522606754888787,-2,-2,-4,-3,11,5,-5,7
1522606754888787,2,0,3,0,1,8,22,7
1522606754900819,0,2,2,2,-1,6,-15,0
1522606754900819,-4,-3,-3,-4,-2,4,-8,-14
1522606754909843,-10,-2,2,4,0,-10,-1,-1
1522606754909843,5,-2,-2,-4,-4,-6,1,20
1522606754923880,5,8,2,-1,-6,-1,13,13
1522606754923880,-7,-9,-5,-2,-4,0,7,-7
1522606754930899,-12,-20,-12,-3,-2,5,-8,-25
1522606754930899,0,8,1,-1,1,-2,-9,-18
1522606754946941,-5,-15,0,-3,-1,2,10,3
1522606754946941,-4,5,-3,-2,3,-3,-8,-2
1522606754948947,4,7,3,0,-3,-2,4,17
1522606754948947,-6,-6,-1,-1,2,-4,-5,-13
1522606754970002,7,3,-4,-4,-5,0,8,10
1522606754970002,-12,-17,-9,0,-9,5,1,-14
1522606754971006,-4,-5,0,-2,2,-1,-12,0
1522606754971006,2,1,7,1,0,-15,-9,1
1522606754984040,-7,-2,-3,-1,5,5,-8,-14
1522606754984040,5,6,2,3,6,2,-3,8
1522606754991059,1,8,-1,-4,-17,14,-4,3
1522606754991059,2,0,-5,-2,-4,-11,5,5
1522606755007101,1,-4,-5,-2,0,-12,6,5
1522606755007101,1,0,0,1,2,11,12,7
1522606755009107,1,0,1,3,11,-5,-23,-16
1522606755009107,6,3,-1,-4,-9,8,2,9
1522606755029160,-5,3,0,1,-8,-2,-7,-8
1522606755029160,3,3,4,4,14,-4,-9,12
1522606755031165,4,17,5,-2,-3,9,8,-7
1522606755031165,2,-9,-4,1,11,-6,-19,-1
1522606755044200,3,8,0,-2,1,11,-1,9
1522606755044200,3,-10,-3,0,-9,-10,16,3
1522606755050216,3,6,-4,2,7,2,-8,9
1522606755050216,-2,-7,4,3,2,1,14,-44
1522606755067261,-2,3,0,0,4,-3,-8,-5
1522606755067261,11,5,0,-1,-11,3,-12,-8
1522606755068264,3,-9,1,-2,-5,-5,10,-1
1522606755068264,6,-1,-3,1,9,-1,2,12
1522606755089320,-1,-11,-2,0,1,3,-4,6
1522606755089320,2,12,1,-2,7,3,5,5
1522606755091325,6,0,0,2,-4,-3,9,4
1522606755091325,-11,2,-5,-4,-7,1,-1,10
1522606755104360,0,8,6,0,-4,-2,-2,-10
1522606755104360,-8,-6,-4,-4,0,-9,9,3
1522606755110376,5,-5,-8,-3,-4,-4,-33,9
1522606755110376,-7,1,-1,-2,-1,-6,1,-5
1522606755127421,3,-7,-3,-4,2,20,8,4
1522606755127421,-16,3,0,1,-5,-22,-9,-16
1522606755128424,-14,-8,-1,-3,0,-2,10,2
1522606755128424,4,-7,4,3,2,7,8,21
1522606755149480,-11,3,-7,-2,1,-7,-17,-34
1522606755149480,8,5,1,-5,-7,9,-5,8
1522606755151485,-7,-31,-7,1,-3,-13,25,-6
1522606755151485,-1,29,3,-1,1,-2,-35,-1
1522606755163517,3,-9,4,5,8,10,8,18
1522606755163517,-1,13,2,-2,-7,-6,9,-4
1522606755170536,-9,-2,-5,-3,-5,7,-10,4
1522606755170536,8,-9,-6,-6,-5,5,15,0
1522606755187581,5,14,5,0,-3,-5,5,10
1522606755187581,-5,-6,-7,-1,1,-8,-9,-10
1522606755188584,0,4,3,0,-1,-13,-1,2
1522606755188584,-2,2,3,1,-4,-4,2,-11
1522606755209640,2,-4,-7,-1,-5,6,10,5
1522606755209640,-8,-6,-2,-3,8,-3,-5,-1
1522606755211645,13,-10,1,1,-2,13,8,-10
1522606755211645,-21,16,10,0,-3,-33,8,-9
1522606755223677,4,-9,-1,0,3,7,4,21
1522606755223677,11,14,-3,-1,1,4,-6,-10
1522606755232701,5,-1,-3,-2,-2,-6,-3,12
1522606755232701,3,-13,-8,-1,-2,15,6,1
1522606755246739,-1,-5,3,1,2,-15,0,3
1522606755246739,0,1,1,-2,-9,10,-15,3
1522606755248744,-4,7,3,-2,2,-7,-7,1
1522606755248744,2,-8,-3,-1,4,8,9,5
1522606755269799,-2,14,-1,-1,-5,-8,-15,-16
1522606755269799,2,-15,-2,3,3,7,8,9
1522606755270803,-6,17,6,-2,-1,2,0,-15
1522606755270803,5,-13,-13,-4,-7,-14,-11,14
1522606755282835,-6,-7,4,4,17,-4,6,-4
1522606755282835,1,-6,3,-1,-2,33,-13,-5
1522606755291858,3,-1,0,1,-2,-33,-18,-2
1522606755291858,0,4,1,-1,0,11,4,18
1522606755306898,5,3,-1,0,-5,-10,-1,0
1522606755306898,0,0,-4,0,3,-14,4,7
1522606755308904,3,-16,-7,-1,5,15,16,12
1522606755308904,1,24,7,-5,-3,4,11,-14
1522606755329960,-1,-5,-1,4,-13,-2,-6,-1
1522606755329960,-8,-10,-3,-4,-2,-1,-5,-2
1522606755330963,1,8,-1,-2,3,5,10,-12
1522606755330963,-3,-24,-3,2,1,-5,-3,-4
1522606755342994,-3,4,0,-3,-8,-8,-4,4
1522606755342994,-3,1,0,-2,-7,7,13,6
1522606755352018,-4,-3,-4,-3,2,1,-16,-5
1522606755352018,-6,-9,-5,-3,2,4,-6,-14
1522606755367058,2,-1,0,-5,-9,-5,-13,6
1522606755367058,3,5,8,5,4,-3,6,-20
1522606755369064,0,5,3,1,-4,2,0,7
1522606755369064,0,2,1,-1,-5,14,-12,2
1522606755389117,5,2,-5,-5,-1,-17,-5,10
1522606755389117,-12,-38,-15,-1,4,0,13,-11
1522606755391123,-3,25,8,-4,2,8,15,6
1522606755391123,5,-8,1,0,-10,-5,-11,10
1522606755403154,-4,3,-5,3,7,8,11,-12
1522606755403154,3,-2,-1,-3,-8,-15,-3,6
1522606755412178,-4,-7,-6,1,0,0,-18,-10
1522606755412178,-4,-2,1,-6,5,8,-8,1
1522606755427218,4,-2,1,2,1,6,18,6
1522606755427218,3,5,0,3,-3,-7,-4,-5
1522606755429224,3,-4,-6,-1,1,-1,-15,-2
1522606755429224,6,13,5,2,-2,-3,0,4
1522606755449277,-8,-10,-4,-5,0,9,-6,0
1522606755449277,3,5,5,3,5,-8,12,7
1522606755451283,2,1,1,-1,-1,-3,26,11
1522606755451283,1,0,-2,-1,0,5,5,0
1522606755463314,-3,-3,-2,0,7,-3,-7,-10
1522606755463314,-8,-2,-1,0,-8,1,-5,-2
1522606755472341,-9,-17,-7,-3,-2,-15,1,6
1522606755472341,-3,4,-1,-1,-1,14,0,0
1522606755486881,-3,2,-1,-1,-5,-20,4,-21
1522606755486881,5,-6,0,-1,5,-13,-12,21
1522606755488887,2,-4,1,1,6,15,-2,-11
1522606755488887,1,4,1,1,0,-6,1,5
1522606755509942,-7,-3,-9,-5,1,13,-8,3
1522606755509942,0,0,7,1,8,4,-4,1
1522606755510945,1,3,-5,-5,-17,0,4,-5
1522606755510945,-2,-13,-8,-3,0,-7,4,1
1522606755522977,-4,-2,-5,-2,3,-1,-14,-3
1522606755522977,-3,9,3,-3,-5,-9,-3,11
1522606755532001,-2,1,8,4,-6,-3,4,0
1522606755532001,8,-11,-10,-6,-10,6,-2,10
1522606755547041,-6,15,10,3,3,-9,10,-8
1522606755547041,-5,-2,-2,-5,2,10,-21,-22
1522606755549047,12,5,1,2,-2,-6,3,27
1522606755549047,0,-1,-3,0,0,-13,20,0
1522606755570102,0,-14,-2,5,8,14,12,14
1522606755570102,-5,0,-7,-2,-8,8,2,-6
1522606755571105,0,14,5,0,3,5,6,-8
1522606755571105,-1,-14,-1,0,0,-22,-14,-12
1522606755583137,2,-4,-2,-3,-3,7,7,14
1522606755583137,6,16,0,2,2,-8,-27,5
1522606755592161,-3,-2,-4,-5,-13,8,-12,-28
1522606755592161,-5,-2,4,3,-4,-12,-11,7
1522606755607201,1,4,0,-4,-4,2,15,-1
1522606755607201,3,-18,-12,-4,-3,8,15,-3
1522606755609207,-1,9,4,-2,6,-3,9,8
1522606755609207,-7,-5,2,4,10,5,-11,8
1522606755629259,7,11,7,2,-10,-18,-10,-9
1522606755629259,-5,-8,0,3,10,9,12,-4
1522606755631265,2,-5,-11,-13,3,30,17,15
1522606755631265,-3,-5,-1,11,3,-34,-33,5
1522606755643297,-5,-5,-1,-7,1,16,-9,-12
1522606755643297,3,7,-1,-2,-8,-19,13,-3
1522606755652321,-3,-12,-7,1,-2,-8,-8,-15
1522606755652321,-2,1,-1,-5,-8,6,-3,14
1522606755667361,7,-11,-7,0,-2,-12,0,-7
1522606755667361,6,6,1,-5,-3,-4,-8,17
1522606755668364,-5,12,6,3,4,2,-9,-7
1522606755668364,-1,3,2,-1,3,-3,8,-13
1522606755689419,3,-18,-5,0,7,9,-15,-2
1522606755689419,13,21,5,-2,-12,0,20,12
1522606755691425,-6,-22,-5,-5,-16,0,13,2
1522606755691425,-3,15,0,1,3,10,10,4
1522606755703457,-5,-20,4,0,-1,-7,-21,-9
1522606755703457,-6,1,-10,-2,7,-4,0,-15
1522606755712481,-1,3,4,0,1,-9,-37,-1
1522606755712481,-1,-6,2,1,1,5,35,-6
1522606755727521,-5,7,-10,-5,-4,6,-29,5
1522606755727521,0,0,4,0,-1,5,8,-2
1522606755728524,10,-22,5,2,1,-12,6,1
1522606755728524,-4,30,-7,-1,1,6,2,-40
1522606755749579,-2,12,11,-1,-2,-4,-13,11
1522606755749579,5,-8,3,5,-3,3,-8,-5
1522606755751585,-6,1,1,-1,3,-10,-13,4
1522606755751585,1,-9,-1,3,7,0,18,0
1522606755763617,1,-2,-7,-2,1,17,14,2
1522606755763617,-6,-13,0,-4,-9,5,-18,-16
1522606755772641,8,18,-3,-2,3,-1,-11,12
1522606755772641,-6,0,3,-1,-10,-13,-9,-11
1522606755786678,-7,3,-13,-6,7,-19,2,-8
1522606755786678,0,1,14,5,6,7,14,23
1522606755788684,-6,-2,-1,1,-1,9,13,-11
1522606755788684,-12,-35,-9,-8,-2,4,-24,-7
1522606755809739,-1,33,5,2,-8,-5,4,8
1522606755809739,-11,-14,-9,-5,0,-9,20,5
1522606755810742,0,-8,-4,8,3,-1,23,6
1522606755810742,2,13,4,-1,17,18,-34,7
1522606755822774,-1,-23,-5,-1,-19,-6,17,-6
1522606755822774,-3,4,-6,-6,-7,0,-11,0
1522606755831798,-3,9,2,1,6,-20,4,1
1522606755831798,9,-2,-1,-4,-1,14,14,15
1522606755846838,2,-2,0,2,2,4,6,-3
1522606755846838,-7,3,-2,-1,4,7,-6,4
1522606755852854,-14,-19,-8,-2,-4,-2,-11,-19
1522606755852854,11,-3,2,-1,-6,-20,2,-1
1522606755869899,21,29,13,-1,-2,-1,16,25
1522606755869899,-1,-18,0,6,6,5,-16,-39
1522606755870903,-4,7,-5,-4,1,2,6,2
1522606755870903,-14,1,2,1,-6,0,9,8
1522606755882934,-1,-4,-3,-3,-1,-2,8,-6
1522606755882934,-6,-15,-3,-1,-1,-7,-34,-23
1522606755891958,4,27,-2,2,9,-20,-9,-8
1522606755891958,7,-14,-5,-3,3,44,42,8
1522606755905995,-4,-4,5,-6,-12,-7,-19,9
1522606755905995,15,10,2,0,2,-5,2,17
1522606755913014,-10,-7,1,4,-12,-9,-14,-10
1522606755913014,-2,4,3,-1,-1,-17,0,-12
1522606755930060,-9,-23,-9,3,7,12,0,-37
1522606755930060,6,18,5,-1,0,-2,8,7
1522606755931063,8,-11,-7,-7,-2,7,-11,15
1522606755931063,-15,1,4,3,-4,-12,-8,-21
1522606755952118,-16,-7,-9,-2,3,19,15,-4
1522606755952118,-14,-7,-8,1,3,-21,9,-18
1522606755954124,0,4,-1,-8,-13,5,-5,-2
1522606755954124,8,7,0,-2,12,0,3,-7
1522606755966155,3,-10,-4,-3,-13,-13,-9,0
1522606755966155,3,3,-1,0,6,5,5,15
1522606755973174,1,-7,2,3,4,3,15,3
1522606755973174,-8,-4,-2,-3,-7,2,-44,-7
1522606755989217,0,2,-1,-3,2,-1,-9,0
1522606755989217,6,11,-4,-3,-8,-2,5,8
1522606755991222,-2,-6,5,3,6,3,3,4
1522606755991222,8,-1,-1,0,-3,-14,0,14
1522606756012278,10,9,5,5,3,-3,2,3
1522606756012278,-4,-3,-1,-6,-10,-1,-1,16
1522606756013281,0,-2,1,2,-3,4,-5,-22
1522606756013281,5,3,-5,-4,-2,2,11,17
1522606756026316,0,2,1,0,2,2,13,-5
1522606756026316,8,7,0,-3,4,5,15,15
1522606756033334,-7,-1,-2,0,0,-7,-13,0
1522606756033334,3,-16,-6,1,0,-12,-5,-15
1522606756049377,-5,13,8,4,6,6,20,2
1522606756049377,-3,-2,-1,-4,-10,11,3,-11
1522606756051382,0,8,1,-3,-1,1,-10,17
1522606756051382,-1,-7,-1,-3,-9,-3,-16,2
1522606756072438,0,4,-4,1,0,-17,-10,-4
1522606756072438,-8,2,-2,0,2,4,4,-17
1522606756073441,8,-3,0,2,6,1,19,3
1522606756073441,-4,4,-1,-3,-5,5,-23,13
1522606756086475,1,2,0,-2,-1,-3,-13,0
1522606756086475,-4,-8,0,4,-1,-15,-8,-18
1522606756093494,-2,-3,1,0,0,9,2,-17
1522606756093494,-6,4,-3,1,2,3,-6,-13
1522606756109537,-7,-7,-4,-3,-4,2,5,25
1522606756109537,3,-3,3,2,-5,-1,-15,-10
1522606756111542,1,1,-4,-4,-3,-11,-1,-11
1522606756111542,-1,10,7,4,7,-2,20,10
1522606756132598,11,-9,-2,-3,-3,13,6,-4
1522606756132598,-18,-10,-5,-3,2,5,-11,-5
1522606756133601,-5,2,-4,-1,-11,-8,-7,10
1522606756133601,-4,-7,-5,0,-5,-2,26,-5
1522606756146636,-3,-10,0,2,12,-3,-42,-4
1522606756146636,3,-1,2,-3,1,5,2,9
1522606756153654,-1,2,-1,-3,4,5,9,-6
1522606756153654,6,1,-4,1,2,1,-16,0
1522606756169697,-11,-4,-6,-5,-10,-15,-5,-11
1522606756169697,-1,-2,1,1,0,-2,2,7
1522606756175713,2,-3,3,-1,2,9,-2,5
1522606756175713,8,7,4,5,-1,-5,-5,-3
1522606756191756,-3,-8,-5,-1,11,4,9,2
1522606756191756,-2,7,0,-1,-2,1,-9,-1
1522606756193761,3,-1,-5,-2,-4,-1,12,-5
1522606756193761,-3,-5,-3,-6,1,-6,6,8
1522606756205793,5,5,4,4,2,10,5,1
1522606756205793,-2,-6,-2,1,3,-13,-9,-10
1522606756214817,0,-3,-4,0,-2,5,7,10
1522606756214817,1,-3,1,0,2,-5,-10,5
1522606756229857,-2,5,3,1,-8,9,33,4
1522606756229857,-2,-3,-2,-2,-4,-14,-3,23
1522606756230860,-6,-4,0,-2,6,7,-15,-29
1522606756230860,-4,-5,-6,-4,-5,-23,9,-11
1522606756251916,5,-1,-3,-2,-9,-5,-1,9
1522606756251916,-5,15,2,1,0,6,3,-5
1522606756253921,-4,-8,4,3,1,-8,7,6
1522606756253921,-3,-2,-3,-1,3,10,-19,-12
1522606756265953,-6,4,1,-1,-6,-6,12,9
1522606756265953,0,-9,-11,0,2,-8,-10,-25
1522606756274977,9,3,5,-3,-6,6,4,11
1522606756274977,-1,6,-1,-5,-4,14,-5,-6
1522606756290017,-7,-8,2,6,6,-10,-6,-11
1522606756290017,8,3,4,0,3,5,0,4
1522606756291020,-4,5,0,0,-2,-8,-11,2
1522606756291020,-4,-4,-3,1,-4,2,1,7
1522606756312076,-1,-4,-6,-3,-3,3,-28,-26
1522606756312076,-1,1,4,-4,3,-1,12,5
1522606756314081,0,-5,-2,1,4,-9,-5,4
1522606756314081,-3,10,3,0,-8,15,-6,-2
1522606756326113,6,0,0,1,-6,-11,11,13
1522606756326113,-11,-5,-2,1,-2,-1,-4,-18
1522606756335137,-6,-1,-2,0,2,0,4,-1
1522606756335137,-3,-6,-1,-2,0,-5,11,-3
1522606756349174,7,3,-4,-4,3,13,0,-4
1522606756349174,13,0,2,4,-3,0,-29,14
1522606756351180,-7,-6,-4,-7,-11,-14,-19,-14
1522606756351180,2,15,3,1,-5,-3,6,-3
1522606756372236,-8,-7,1,-1,-2,-15,4,7
1522606756372236,-5,-9,-5,-2,7,19,13,0
1522606756373238,-2,1,0,-3,7,6,-4,-9
1522606756373238,0,-4,-9,-10,-14,-5,18,7
1522606756385270,-1,-1,5,3,-2,5,-1,-9
1522606756385270,-6,8,1,0,-1,-10,12,11
1522606756394294,7,-4,0,2,5,-6,-10,-9
1522606756394294,-7,-1,0,-1,6,4,1,-13
1522606756409334,-3,-12,-6,0,-5,-8,-1,16
1522606756409334,2,-5,-1,-1,-2,-3,-15,-23
1522606756411340,1,5,-3,-1,-4,11,19,18
1522606756411340,6,-7,1,6,4,5,6,-10
