timestamp,emg1,emg2,emg3,emg4,emg5,emg6,emg7,emg8
1522606482756489,2,-1,1,1,26,-16,-15,3
1522606482756489,-9,-6,3,1,1,-8,-9,1
1522606482763507,-2,-6,-6,-3,-4,-5,11,-1
1522606482763507,-1,0,-2,-2,-4,9,8,-2
1522606482764510,4,-9,0,-1,-11,-5,-15,-1
1522606482764510,2,10,0,-1,-2,-9,0,-6
1522606482765513,-13,-14,0,-5,-9,-19,-11,2
1522606482765513,3,1,2,4,12,-3,25,3
1522606482767518,0,7,2,0,1,12,31,2
1522606482767518,-15,-9,-5,-2,2,-15,-11,-1
1522606482776542,16,9,-2,-3,-18,9,-3,-4
1522606482776542,-6,-2,-2,-1,4,-35,-20,-8
1522606482792585,-2,-2,-2,-2,-2,-1,-2,-1
1522606482792585,7,5,1,-2,-9,15,13,3
1522606482796595,2,9,2,2,10,7,5,7
1522606482796595,4,-3,-2,0,-2,4,-10,-4
1522606482805623,-7,-6,0,2,0,4,0,-5
1522606482805623,-5,-2,-7,-3,0,-5,-8,-8
1522606482828192,3,-3,4,1,5,-7,-11,-4
1522606482828192,19,17,4,1,1,7,-2,13
1522606482829195,-6,-13,-3,-1,-9,-3,-1,-8
1522606482829195,6,-2,1,0,1,10,1,1
1522606482875828,7,-15,-3,-1,1,10,3,2
1522606482875828,-33,-6,-2,-3,-1,-1,-4,-11
1522606482876830,13,2,-4,-1,0,1,-3,-9
1522606482876830,18,5,1,0,1,3,1,7
1522606482879837,8,4,-4,0,1,-25,-9,-7
1522606482879837,4,-4,4,4,0,2,2,-1
1522606482880840,0,-3,2,-2,-7,5,1,3
1522606482880840,2,0,-4,-1,1,-7,-6,-4
1522606482887858,-10,1,-1,-1,-1,1,-2,-3
1522606482887858,6,6,0,-4,-2,16,8,5
1522606482893874,-20,-3,0,0,-3,-63,20,-8
1522606482893874,-9,-6,-1,-1,6,23,6,-1
1522606482901896,1,2,-1,-2,-4,-27,7,0
1522606482901896,16,5,0,-1,-4,-17,0,3
1522606482916936,4,4,0,-1,3,19,-8,-4
1522606482916936,-30,-19,-9,-4,-4,-5,-1,-9
1522606482923954,-16,-9,-3,-1,0,3,8,-7
1522606482923954,13,0,1,0,0,5,-2,0
1522606482948018,-8,-1,1,1,-1,5,-4,0
1522606482948018,5,-1,-1,0,-3,-1,3,-4
1522606482949021,-2,6,4,2,0,14,-7,-2
1522606482949021,-14,-7,-4,-2,-4,1,-5,-3
1522606482963059,-4,-17,-5,-1,0,-1,-8,1
1522606482963059,10,2,-3,-2,-18,-16,1,3
1522606482963059,-3,0,1,-2,24,9,-4,2
1522606482963059,5,1,-7,-2,1,-5,2,3
1522606482985117,-7,13,14,1,1,6,5,7
1522606482985117,9,-8,-6,-5,-6,-5,-10,-12
1522606482986120,-34,6,4,-1,-11,-22,-7,-3
1522606482986120,11,1,2,6,0,-5,-7,4
1522606483008178,-22,-13,-12,2,12,13,-6,-3
1522606483008178,17,15,7,3,10,24,1,7
1522606483009181,9,-8,-4,-4,-6,2,-2,1
1522606483009181,-3,-2,-2,-9,-16,-3,-8,-7
1522606483022216,-17,6,0,0,5,-1,-1,-2
1522606483022216,-9,-1,1,3,3,10,1,0
1522606483023219,39,10,9,0,-16,6,2,9
1522606483023219,-31,-14,-2,1,17,-14,-4,-5
1522606483045277,27,12,-1,-3,-14,11,19,-4
1522606483045277,-21,-7,-6,1,2,-6,-2,1
1522606483046280,8,-5,-11,-3,1,5,5,0
1522606483046280,12,7,8,-2,-14,-11,-5,0
1522606483068338,9,0,5,-1,7,18,-4,1
1522606483068338,2,2,6,8,7,-9,0,-4
1522606483069341,0,-2,0,3,0,22,-2,-13
1522606483069341,-36,-15,-10,-4,7,10,20,-2
1522606483082376,9,-3,-7,-7,-13,-11,-7,3
1522606483082376,7,1,-2,-5,-2,-8,0,8
1522606483083379,8,6,2,1,2,11,3,-2
1522606483083379,12,7,1,2,-2,3,-1,-1
1522606483105437,-25,-24,-1,1,-7,-1,11,-5
1522606483105437,20,14,1,1,13,-7,-38,1
1522606483105437,-13,3,-2,0,1,12,20,3
1522606483105437,-5,-3,-4,-4,-4,-32,-34,-3
1522606483128498,3,1,-6,1,-5,-14,-9,0
1522606483128498,-9,-3,-3,-2,-5,5,-4,-8
1522606483129501,42,6,0,0,3,-6,3,10
1522606483129501,-40,-18,6,2,1,9,19,-10
1522606483142536,17,-2,-6,-3,2,-11,-24,-4
1522606483142536,14,21,-2,-4,-9,-11,10,3
1522606483143539,-40,-23,-4,1,3,-7,-12,-3
1522606483143539,24,10,0,-2,-6,16,-2,6
1522606483164594,5,-2,1,0,-2,-19,1,-3
1522606483164594,1,4,0,-2,-1,7,23,0
1522606483165597,-2,6,-2,-5,-56,-65,-13,3
1522606483165597,23,0,-1,8,75,67,11,3
1522606483188658,-21,0,1,-4,-5,-5,16,-2
1522606483188658,-7,1,2,7,4,-24,-32,0
1522606483188658,11,2,4,-1,-14,-1,5,-2
1522606483188658,-36,-12,-5,-4,-16,-25,-20,-9
1522606483202696,-8,-8,-1,0,4,10,1,-9
1522606483202696,4,-9,1,-2,-8,9,22,0
1522606483203699,-9,-1,1,0,10,4,-7,-4
1522606483203699,6,2,-2,-2,-13,-10,-6,-3
1522606483224754,17,6,-3,-1,12,28,11,2
1522606483224754,-4,-6,4,1,-14,-17,-12,3
1522606483225757,-26,-2,-2,0,18,14,6,-4
1522606483225757,-1,2,0,-2,-5,-6,-12,-3
1522606483247816,3,2,-5,0,-8,-2,1,2
1522606483247816,10,-4,2,0,-4,6,10,-2
1522606483248818,-10,1,1,2,20,28,41,2
1522606483248818,-10,1,-3,-7,-22,-54,-77,-6
1522606483261853,12,-4,1,-1,-15,-3,7,4
1522606483261853,-9,0,-6,-1,43,34,15,1
1522606483269874,22,8,0,0,15,-4,-33,3
1522606483269874,2,-9,-1,-2,-14,1,33,2
1522606483284914,2,10,0,-3,-4,11,-37,-7
1522606483284914,-9,-7,-5,-8,-27,-19,-28,-10
1522606483285917,-5,-2,0,3,19,27,15,-1
1522606483285917,8,2,-4,-4,-6,-19,10,5
1522606483307976,4,-8,1,2,-7,-12,-11,2
1522606483307976,-22,-1,-3,-1,-8,11,17,-9
1522606483307976,-2,-17,-1,-2,-5,-17,-27,-1
1522606483307976,16,11,1,2,-3,21,13,2
1522606483322013,23,0,1,-3,-5,-19,-9,10
1522606483322013,-8,-2,-1,-1,4,7,6,-2
1522606483330034,19,12,3,4,6,-14,-1,4
1522606483330034,18,5,-1,-1,-3,14,26,11
1522606483345074,-16,0,-2,2,1,6,8,-11
1522606483345074,-12,-14,-4,0,5,-1,-3,1
1522606483346077,11,-4,-1,-1,-10,8,3,6
1522606483346077,-1,2,2,5,1,-11,-17,4
1522606483367133,-11,-1,-4,-6,3,-2,-4,-4
1522606483367133,10,3,2,0,-3,-7,-1,5
1522606483368136,-18,-9,-4,-5,-5,3,8,-7
1522606483368136,16,7,-1,-2,-2,5,4,-3
1522606483382173,7,13,2,3,10,15,8,11
1522606483382173,-10,-24,-6,0,-4,-19,17,-2
1522606483390195,6,0,-1,-2,-6,6,-17,-6
1522606483390195,-14,2,3,-2,1,-17,-19,-3
1522606483405234,-1,9,3,0,1,-2,4,2
1522606483405234,4,7,-2,-1,1,10,1,-1
1522606483406237,-15,-8,-6,-1,-2,-3,25,-1
1522606483406237,26,6,3,1,-1,22,11,3
1522606483427293,-7,-11,-4,-1,1,-33,-33,-11
1522606483427293,-9,0,-1,-1,-4,-4,-6,-1
1522606483428296,-13,-1,-5,-4,-6,-12,-16,-4
1522606483428296,-9,1,1,4,2,19,10,-7
1522606483442333,-9,-5,0,-2,0,-3,11,4
1522606483442333,20,5,-2,-1,1,16,1,10
1522606483450355,1,7,2,1,0,-16,-13,0
1522606483450355,-6,-12,-2,2,2,0,26,-7
1522606483465394,15,1,7,2,3,9,5,7
1522606483465394,-14,8,-2,-2,-4,-5,-2,-5
1522606483465394,1,-16,-5,0,-1,8,3,-4
1522606483465394,5,0,0,-3,-4,-10,-6,1
1522606483487453,-21,-13,-11,-1,1,6,3,-14
1522606483487453,-9,5,5,-1,0,21,-1,-5
1522606483488456,-9,-1,0,-3,-8,-43,-9,-2
1522606483488456,-8,-6,-6,-2,-1,-4,11,-8
1522606483501490,15,10,2,0,-3,1,-19,5
1522606483501490,11,-2,3,3,5,18,9,1
1522606483510514,-26,-1,1,0,2,19,7,-11
1522606483510514,10,0,-1,0,0,0,3,1
1522606483525554,18,3,-3,-1,0,12,7,3
1522606483525554,-25,-15,-7,-4,-12,-98,-32,-2
1522606483525554,29,14,12,0,0,27,-6,12
1522606483525554,7,7,0,-1,2,7,-3,2
1522606483547613,-18,-11,-3,0,2,14,0,-11
1522606483547613,13,-2,1,-1,4,7,-5,0
1522606483548616,12,0,-5,1,-1,-1,8,-2
1522606483548616,-18,-6,-1,-1,-2,-10,-9,5
1522606483571677,8,4,-1,0,-2,-10,1,-3
1522606483571677,-11,0,-1,0,1,13,12,-3
1522606483571677,-10,0,0,-2,-1,7,2,1
1522606483571677,5,-1,-2,-5,-4,-22,12,0
1522606483584711,-7,-6,-4,-3,1,-15,-61,-4
1522606483584711,8,1,8,0,0,5,2,1
1522606483585715,-14,-1,-2,2,1,9,-1,0
1522606483585715,2,-2,-6,-2,-2,9,-3,4
1522606483607773,-6,5,6,0,2,3,14,3
1522606483607773,4,-3,3,2,-5,-48,2,-4
1522606483608776,11,-4,-8,-3,-3,-4,-9,1
1522606483608776,-3,-6,-4,-2,0,7,0,-1
1522606483621810,-5,12,5,-1,-2,-6,14,-1
1522606483621810,10,2,-7,-7,-3,2,-16,-4
1522606483629832,-20,-9,5,4,8,0,13,-5
1522606483629832,-9,-1,-3,0,-3,-3,-6,-5
1522606483644871,30,4,0,-2,-3,1,10,9
1522606483644871,-51,-9,-4,-2,-1,17,-2,-4
1522606483645875,9,3,-7,-7,-5,0,-2,-2
1522606483645875,6,1,2,0,1,-5,-7,1
1522606483667933,-3,-5,-4,0,1,16,10,0
1522606483667933,14,3,5,-2,-4,-8,17,-2
1522606483667933,-4,1,5,11,2,-7,-9,-14
1522606483667933,-6,1,4,-1,2,15,0,-1
1522606483691998,-13,0,-1,-2,-2,1,11,3
1522606483691998,10,-1,-4,-3,0,5,3,-2
1522606483693001,4,5,-3,-7,-5,0,8,13
1522606483693001,13,2,2,4,5,29,12,-10
1522606483705039,-14,-12,0,-1,4,21,-6,-3
1522606483705039,13,9,-1,0,-1,-1,-1,6
1522606483706041,8,-8,3,0,0,10,5,-18
1522606483706041,-18,-3,-1,-1,-2,1,7,-2
1522606483727091,-1,-5,-4,-4,-3,-23,-19,-3
1522606483727091,-7,-1,-5,0,2,16,-1,2
1522606483728093,25,6,5,1,-3,-18,-18,4
1522606483728093,23,12,1,-2,2,3,-1,0
1522606483751154,-12,-10,0,4,-1,-8,8,-8
1522606483751154,-15,-2,0,0,-1,-1,-25,-5
1522606483751154,7,5,-5,-5,-4,0,5,7
1522606483751154,10,-3,-2,-2,3,6,9,3
1522606483765193,-14,0,3,2,-2,7,7,-1
1522606483765193,13,10,1,2,-6,-25,-2,1
1522606483766195,-8,-8,-5,-3,3,1,-4,2
1522606483766195,-18,-6,-4,-2,1,-15,0,-2
1522606483788255,-4,1,0,-1,-4,-14,-16,4
1522606483788255,11,-5,0,0,-2,13,1,2
1522606483788255,-22,-4,-3,-3,-5,1,6,-10
1522606483788255,6,2,1,3,-3,-10,8,-1
1522606483810312,-17,-8,-5,-2,4,7,7,-4
1522606483810312,4,-11,-2,2,1,7,24,4
1522606483811314,12,11,2,1,-2,-5,-15,3
1522606483811314,12,3,-1,2,-1,3,-6,4
1522606483825352,-37,-7,-2,-1,-2,0,12,0
1522606483825352,-1,2,-1,-1,2,7,-4,-4
1522606483826354,-4,0,1,-2,-1,0,7,1
1522606483826354,-3,-2,-2,-5,-6,-6,-10,1
1522606483847410,31,10,-1,-1,-2,-2,9,2
1522606483847410,-20,3,1,-5,-3,-19,-27,-3
1522606483855431,2,0,-2,0,-1,2,12,2
1522606483855431,-7,-5,0,1,-1,-5,10,1
1522606483870472,16,-4,-3,-1,-1,-2,-9,3
1522606483870472,-4,8,1,2,1,7,1,-1
1522606483872477,12,2,-3,-3,-7,3,-9,-1
1522606483872477,-22,-6,-3,-5,-10,-19,2,-1
1522606483893533,13,2,1,1,7,2,26,1
1522606483893533,13,5,0,0,1,7,-14,4
1522606483894536,-1,3,4,1,1,-11,10,3
1522606483894536,8,3,-3,-2,-1,-3,-34,-4
1522606483906568,-6,-7,-5,-4,-3,6,9,2
1522606483906568,-25,-4,-3,-3,-4,-29,-31,-6
1522606483915592,-27,2,-2,-2,-4,-4,-20,1
1522606483915592,-20,-10,-3,0,-10,10,-5,-8
1522606483929629,8,6,3,-2,13,-13,-11,0
1522606483929629,12,-1,2,1,1,24,32,7
1522606483938654,17,-4,0,1,4,6,6,4
1522606483938654,-18,4,1,-1,-5,-6,-7,3
1522606483953693,2,-2,-3,-4,-13,-26,-11,-10
1522606483953693,2,-6,-2,-4,-2,-1,-1,-2
1522606483954698,-18,-15,-5,-1,-4,30,22,-3
1522606483954698,20,3,0,-2,5,-41,-76,6
1522606483966728,3,6,2,0,-6,0,-1,3
1522606483966728,1,-19,-4,-1,-4,6,11,1
1522606483975752,-11,-6,-2,0,2,-1,3,3
1522606483975752,-3,-2,0,3,16,42,42,-3
1522606483990792,4,1,0,-1,0,-8,-20,-5
1522606483990792,7,11,0,-2,-3,-1,-10,1
1522606483992797,-4,-10,-2,0,-3,11,5,1
1522606483992797,16,8,4,-1,-2,-30,10,3
1522606484012850,-17,0,3,4,6,20,23,-4
1522606484012850,3,3,-5,-5,0,8,1,2
1522606484014856,12,4,-1,-1,0,-18,-23,-4
1522606484014856,-13,-5,-2,-2,0,18,2,-5
1522606484026888,-17,-1,1,3,3,20,25,6
1522606484026888,5,0,1,1,-1,-5,5,-1
1522606484035912,9,6,1,-3,2,1,17,6
1522606484035912,18,0,-1,1,-1,14,0,-6
1522606484050952,-1,-2,-3,-2,-6,-19,-24,-1
1522606484050952,-22,-2,-1,2,2,7,6,-7
1522606484051954,9,-4,-2,-2,0,-14,-15,-4
1522606484051954,-31,-7,0,0,0,9,12,-1
1522606484073011,17,2,2,-2,-4,-3,4,4
1522606484073011,6,8,0,-2,2,0,1,6
1522606484075016,19,-2,-2,0,-1,-6,-3,-3
1522606484075016,2,-6,-3,-1,-3,-4,-2,-3
1522606484087048,-13,-5,-2,0,-2,16,-3,-6
1522606484087048,12,0,3,1,1,-13,4,-2
1522606484096072,-2,-3,-2,-2,-1,1,-2,2
1522606484096072,3,4,2,-1,2,8,8,8
1522606484110109,6,2,-5,-1,-1,-2,-1,4
1522606484110109,7,4,0,2,2,8,5,-4
1522606484117128,-15,-15,-4,-2,-2,-4,-9,-9
1522606484117128,-9,-1,0,-1,-3,-10,-4,-6
1522606484133170,28,3,-1,-3,-1,-4,-2,2
1522606484133170,-15,1,0,-1,-1,-16,-1,-4
1522606484135176,-12,4,-2,-2,-1,-6,-2,3
1522606484135176,1,-7,-4,-3,-2,2,14,-10
1522606484156231,-27,-5,-3,1,-4,-15,-6,-10
1522606484156231,25,-7,1,0,-2,7,-1,1
1522606484157235,-5,3,0,1,1,-2,-4,-1
1522606484157235,7,7,6,0,0,-4,9,10
1522606484170271,6,3,1,-2,1,15,-8,-1
1522606484170271,-1,-4,-9,-2,-12,-71,-2,-5
1522606484177288,10,4,7,2,1,6,6,5
1522606484177288,-30,-4,1,-3,-2,2,-5,-5
1522606484193331,-3,-3,-2,-1,1,-1,2,2
1522606484193331,5,0,-3,-2,1,19,-8,3
1522606484195336,5,6,2,-1,-2,2,-3,-1
1522606484195336,7,-3,-3,-4,-5,-3,-4,-4
1522606484215389,8,0,1,-1,-2,-51,-10,6
1522606484215389,7,2,0,-1,1,18,-12,1
1522606484217395,-26,-6,-4,0,-2,2,4,-11
1522606484217395,-4,4,3,2,0,7,-3,1
1522606484230429,-6,-8,-6,-3,-2,11,2,-3
1522606484230429,19,1,-2,-7,11,10,5,8
1522606484237448,-10,-2,-5,6,-10,-14,-6,-11
1522606484237448,21,0,9,4,1,-4,-11,7
1522606484253490,-26,0,0,3,2,18,5,-8
1522606484253490,8,3,-2,2,1,13,9,3
1522606484254496,21,11,3,-5,4,20,-4,5
1522606484254496,11,-18,-14,-5,-6,-77,-13,5
1522606484275549,-43,1,-4,-1,-2,4,2,-6
1522606484275549,-10,-5,5,1,3,19,3,-7
1522606484277555,8,5,2,6,1,-2,-1,3
1522606484277555,20,6,-4,-12,-3,17,-3,2
1522606484290589,6,-5,2,10,1,-1,7,5
1522606484290589,-13,-3,-5,-3,-1,-22,-9,-2
1522606484296605,-6,0,-4,-3,-1,-5,-1,2
1522606484296605,-11,-13,-4,2,5,11,19,-3
1522606484313651,9,10,4,-4,-6,0,-19,-1
1522606484313651,-5,-10,0,0,0,12,-1,-5
1522606484314653,3,2,0,1,0,-5,11,-2
1522606484314653,-5,5,0,0,0,13,-12,-1
1522606484335709,9,0,-2,-3,-1,4,3,-1
1522606484335709,-12,8,3,0,-4,-3,-7,-7
1522606484337714,-8,-8,-2,-5,1,23,9,4
1522606484337714,0,0,-1,1,0,-39,-11,-8
1522606484349746,8,-1,1,0,0,-8,-5,9
1522606484349746,-3,-2,1,0,1,5,-11,-4
1522606484356765,9,4,-4,-2,-3,-8,-7,4
1522606484356765,-30,-12,-5,3,-1,22,5,5
1522606484372808,17,0,3,1,1,-1,7,3
1522606484372808,-26,-11,-3,-4,-6,-7,9,-2
1522606484374813,-7,4,-1,0,-1,1,4,1
1522606484374813,20,11,2,4,3,27,13,2
1522606484395871,2,-13,1,0,3,-1,3,-1
1522606484395871,1,-2,-6,-3,-3,6,11,-5
1522606484397875,-24,-11,1,-1,0,-10,-24,-9
1522606484397875,20,5,-1,-1,0,12,18,3
1522606484409906,-9,1,-3,-3,0,4,16,-1
1522606484409906,5,11,2,0,-2,18,1,1
1522606484418930,26,-12,1,1,3,-13,-6,2
1522606484418930,-56,-8,-2,-2,0,20,10,-9
1522606484432968,26,18,1,-2,-5,-25,-39,5
1522606484432968,-18,-18,-4,-1,-2,2,14,0
1522606484434973,-10,7,0,-3,-2,-6,-7,-2
1522606484434973,14,4,-1,0,-4,5,-1,3
1522606484456029,3,0,-2,-4,5,11,15,2
1522606484456029,-2,-1,0,2,-11,9,14,-4
1522606484457032,-3,-3,-1,-1,1,-30,-46,-5
1522606484457032,-5,2,-1,2,7,-2,-10,-5
1522606484469064,-7,-3,-2,-3,1,11,-7,0
1522606484469064,14,5,3,-4,-8,-43,-30,-3
1522606484478087,-1,-6,-8,-3,-2,9,38,3
1522606484478087,-12,-1,5,9,3,12,17,-2
1522606484493128,-5,-4,-4,-2,-6,-9,-19,-3
1522606484493128,-2,-10,-1,0,3,7,-11,5
1522606484495133,7,2,-2,-3,4,7,14,-2
1522606484495133,11,12,1,-4,-1,-18,-18,1
1522606484516190,-3,-15,-2,0,-10,8,3,-3
1522606484516190,16,12,6,5,6,8,-3,4
1522606484517192,-6,-1,0,0,1,13,22,0
1522606484517192,1,8,-4,-3,-3,-12,-33,1
1522606484529224,-21,-27,-5,-4,-2,15,19,-8
1522606484529224,1,0,0,0,4,-9,-6,6
1522606484538248,0,4,0,1,-4,7,31,2
1522606484538248,14,4,1,-1,-2,6,-7,-3
1522606484553288,11,9,3,0,-2,-16,-3,2
1522606484553288,1,1,1,-1,3,11,25,8
1522606484555293,-8,-4,-3,-5,-3,-3,-21,-1
1522606484555293,12,-12,0,4,0,6,2,0
1522606484575346,-22,-7,-4,1,1,-5,2,-4
1522606484575346,8,-2,-3,-2,-2,13,1,0
1522606484577352,-2,8,4,1,3,-17,-59,-8
1522606484577352,6,-4,-3,-5,-4,6,48,9
1522606484589384,13,6,0,0,-1,6,6,2
1522606484589384,-8,2,-2,-4,-6,-1,5,-2
1522606484598407,-2,1,-1,-4,-6,0,-14,-2
1522606484598407,-10,-10,-4,-2,-2,-26,-57,-8
1522606484613447,10,4,1,2,4,33,30,4
1522606484613447,-19,-7,-7,-1,0,-11,11,5
1522606484614450,10,2,3,2,1,7,20,6
1522606484614450,3,-2,-2,-3,-1,4,13,1
1522606484635506,-5,5,1,0,-3,-5,-18,-13
1522606484635506,-8,-4,0,0,0,2,1,0
1522606484637516,6,-6,0,-2,2,3,13,-1
1522606484637516,-10,-3,2,2,-2,-5,-35,0
1522606484649543,16,4,-3,-3,-1,-1,-15,2
1522606484649543,-13,-4,3,3,-1,-39,-29,-10
1522606484658568,-18,-9,0,0,0,-5,-5,0
1522606484658568,9,9,0,0,-2,4,26,-4
1522606484673607,1,9,-1,-1,2,-10,-28,-2
1522606484673607,18,1,0,-1,1,15,9,-1
1522606484674611,-24,-1,-2,0,-3,20,10,0
1522606484674611,0,-2,-1,-2,-4,-41,-19,-3
1522606484695666,3,0,0,0,0,-32,16,9
1522606484695666,-6,-1,-5,-1,0,4,-1,-7
1522606484697672,29,12,4,1,-2,-3,-5,3
1522606484697672,-35,-17,-3,1,1,19,4,-11
1522606484709704,11,-1,0,1,0,-1,-1,-1
1522606484709704,-4,1,1,-2,0,-1,-7,1
1522606484718728,1,11,2,0,2,12,3,6
1522606484718728,-24,-5,-3,-3,-2,1,0,-6
1522606484733768,7,-1,-1,-1,1,-1,-1,-10
1522606484733768,6,-4,-5,0,0,7,6,6
1522606484734770,-20,-3,1,-3,-1,-1,-7,-6
1522606484734770,-9,0,-4,-3,-3,0,6,0
1522606484755827,5,11,8,3,7,27,12,12
1522606484755827,20,3,-1,-2,-5,1,-3,-2
1522606484757832,-32,-14,-7,-6,-5,-31,-8,-18
1522606484757832,16,3,-2,2,0,-2,4,2
1522606484769863,-7,-10,-6,-4,-3,9,10,5
1522606484769863,-8,5,7,3,3,-2,-4,-4
1522606484778888,5,-7,-2,0,-4,-3,0,-6
1522606484778888,11,3,0,-1,-1,7,10,2
1522606484792925,1,3,-4,-3,-3,-11,-10,-4
1522606484792925,-10,-8,-7,-4,-3,-1,-3,-7
1522606484794930,16,6,6,1,0,8,6,7
1522606484794930,-24,2,3,3,0,-40,-16,-5
1522606484815986,9,4,0,0,-2,-8,-5,-2
1522606484815986,20,3,-5,-1,-3,-1,3,1
1522606484816989,12,2,6,2,1,14,3,1
1522606484816989,12,3,-4,-3,-2,-22,-4,12
1522606484829021,28,-7,-4,-2,-12,23,-9,-7
1522606484829021,-91,-2,1,-3,11,-16,28,-19
1522606484838045,-58,-21,-14,-5,-5,1,-23,-11
1522606484838045,16,-3,2,-2,-1,15,6,-2
1522606484853085,-9,3,1,0,0,-8,-8,6
1522606484853085,41,3,-4,-5,-6,9,3,13
1522606484855090,-5,-4,-4,3,4,-5,10,0
1522606484855090,6,3,6,-1,1,10,4,3
1522606484877149,8,3,-2,1,1,-10,3,7
1522606484877149,-3,-5,1,1,1,48,7,-5
1522606484879154,-10,-1,-8,-3,-3,-42,-3,-2
1522606484879154,8,-6,-3,-3,-2,9,-8,0
1522606484889181,-11,3,5,0,6,-1,11,-3
1522606484889181,13,-2,3,-3,-5,0,-8,6
1522606484898205,13,0,0,4,-1,23,-8,-1
1522606484898205,63,12,-3,-7,-26,-47,23,15
1522606484913245,-25,2,3,0,-76,-43,-10,-14
1522606484913245,-16,-4,-4,11,102,36,-12,-9
1522606484915250,-10,5,1,-2,-13,1,-5,6
1522606484915250,77,33,15,-3,-38,-5,-5,9
1522606484935303,-83,-50,-10,8,29,17,9,-30
1522606484935303,-32,-17,-4,-5,-71,-13,-4,-13
1522606484937309,38,6,-4,-1,46,31,28,12
1522606484937309,-74,-2,-4,-1,-5,21,13,8
1522606484949341,36,1,-12,-15,-6,-27,-41,-16
1522606484949341,44,-5,8,6,-11,0,22,12
1522606484958365,35,17,7,-3,-20,-16,-9,2
1522606484958365,-12,-10,-6,-5,-22,-8,-10,0
1522606484973405,-1,4,-2,-1,0,3,17,7
1522606484973405,-31,-9,-1,1,5,-15,0,-2
1522606484975410,55,14,1,1,57,15,-1,7
1522606484975410,24,12,10,12,-48,-15,7,0
1522606484995463,-44,-15,-8,-4,58,25,-1,1
1522606484995463,127,67,8,4,-80,-32,-4,26
1522606484997469,-122,-54,-9,-3,69,34,-7,-46
1522606484997469,-25,-15,-13,1,-10,31,14,-24
1522606485009501,34,34,5,5,-16,-1,18,12
1522606485009501,79,33,5,-15,-41,-25,13,11
1522606485018525,10,-10,-3,5,20,53,23,27
1522606485018525,-122,-37,-9,-3,-41,-51,-40,-27
1522606485032562,-25,-18,8,5,-8,58,35,1
1522606485032562,5,31,5,-1,-3,-28,3,6
1522606485039581,18,15,0,-6,-113,-40,-23,2
1522606485039581,24,-24,-5,-1,70,1,-13,2
1522606485055623,43,38,7,-5,-88,-77,31,16
1522606485055623,-108,-34,-11,4,127,28,-60,-25
1522606485057629,23,-49,-7,-3,-50,2,1,-5
1522606485057629,-26,35,3,-3,18,38,-2,-1
1522606485069661,49,30,8,0,-12,-2,-1,10
1522606485069661,2,-15,-5,-2,-50,-21,6,-11
1522606485078685,35,39,9,4,5,-24,-3,6
1522606485078685,27,-2,-7,-7,-15,-34,3,-2
1522606485092722,19,16,-4,4,70,65,-4,7
1522606485092722,5,11,8,-4,-71,11,-21,0
1522606485099741,-69,-41,-13,-9,78,10,-9,-12
1522606485099741,2,-34,-3,3,-16,26,22,4
1522606485115783,3,-7,-4,-3,-57,-66,-16,-3
1522606485115783,-22,-16,-1,1,16,65,-4,2
1522606485117789,50,42,8,2,-47,-20,21,8
1522606485117789,-15,-15,2,0,11,-2,-5,-7
1522606485137842,70,-6,-4,0,45,-1,-57,4
1522606485137842,-96,-22,-10,-11,-28,-52,21,-11
1522606485139848,-1,-1,-2,1,-12,-4,0,-9
1522606485139848,23,17,0,8,42,19,0,4
1522606485151879,44,4,8,-2,-47,-30,-11,3
1522606485151879,-90,-84,-19,1,49,12,10,-16
1522606485160904,-53,8,-10,-3,-65,-29,-2,-20
1522606485160904,19,-12,2,4,58,38,13,2
1522606485175943,2,-1,-4,-1,-2,10,13,2
1522606485175943,54,35,11,4,-15,-9,-19,10
1522606485176946,20,-2,-2,-2,1,-2,17,6
1522606485176946,-1,10,0,0,-4,-12,-10,-1
1522606485198002,-29,-1,1,0,-57,3,52,-7
1522606485198002,3,-13,-7,-2,71,-4,-21,2
1522606485200008,11,8,5,1,-12,18,9,8
1522606485200008,26,22,5,0,18,1,18,-1
1522606485213042,-35,-25,-5,-6,-9,-14,-1,-2
1522606485213042,16,5,-1,0,-7,23,3,14
1522606485219058,41,18,7,-4,-53,-33,-28,8
1522606485219058,-24,-27,-7,-5,4,0,27,-6
1522606485236104,-32,-5,-4,3,117,43,-18,2
1522606485236104,2,0,-1,-4,-34,-9,7,5
1522606485237107,9,16,3,6,22,2,-1,-2
1522606485237107,-20,-8,-6,-8,-21,8,-8,-4
1522606485258162,-27,-4,-1,-3,-11,-11,-13,-18
1522606485258162,9,10,1,-2,-16,-23,0,6
1522606485260167,2,-4,-3,0,4,-23,6,3
1522606485260167,-11,2,-4,-4,-14,-20,-20,-15
1522606485272199,28,-18,-1,8,18,8,-3,-4
1522606485272199,-80,1,-2,-1,-18,-6,3,-19
1522606485279218,32,2,0,-2,-14,-13,-4,7
1522606485279218,7,6,-6,0,3,2,-9,9
1522606485296263,8,17,2,0,-3,8,8,10
1522606485296263,57,9,5,2,-16,-12,1,-9
1522606485297266,-29,-13,0,2,56,38,-4,1
1522606485297266,10,3,0,-1,6,29,0,-8
1522606485318322,-40,-11,-6,-4,-16,1,1,-7
1522606485318322,44,21,-3,-5,-24,-16,1,5
1522606485320327,-37,-37,-5,-5,-26,-6,-14,-12
1522606485320327,-7,18,14,12,61,30,15,8
1522606485332359,0,1,-5,-2,30,23,10,-6
1522606485332359,-14,-26,-3,0,-17,15,-2,-9
1522606485339378,-15,25,-1,-5,-11,-43,-1,8
1522606485339378,0,0,0,-5,-9,-4,-13,0
1522606485355420,14,-5,0,4,-11,-13,-10,0
1522606485355420,2,-3,1,-5,17,18,6,8
1522606485357426,23,8,-1,0,6,11,4,2
1522606485357426,22,-1,-10,-8,-26,-11,-6,8
1522606485378482,-32,10,5,1,-21,-21,-6,-3
1522606485378482,12,4,0,2,6,-18,-7,0
1522606485379485,3,-28,-3,-3,-26,-1,6,0
1522606485379485,35,2,-9,-5,-30,-26,-1,9
1522606485391516,-20,-1,5,-8,9,59,4,-8
1522606485391516,21,7,8,15,10,-1,-17,1
1522606485400541,-36,-28,-1,-4,-51,-58,-8,-13
1522606485400541,0,17,3,3,-3,18,-7,4
1522606485415580,-9,-4,-9,-8,-7,-28,-1,14
1522606485415580,-38,-30,-11,-6,-8,2,-9,-46
1522606485417586,-3,8,-7,1,27,12,-6,3
1522606485417586,30,20,6,-6,-37,-15,-15,5
1522606485438642,3,4,2,4,-2,-13,-11,-3
1522606485438642,17,20,10,3,5,6,12,22
1522606485439645,-12,-5,0,0,15,11,-4,-16
1522606485439645,-3,0,0,-1,-11,-13,10,-1
1522606485451676,-12,-14,-1,-1,49,20,1,7
1522606485451676,13,13,1,0,-35,-21,7,8
1522606485460701,46,7,-9,-3,73,50,8,6
1522606485460701,-37,0,-1,-2,-16,-14,2,-2
1522606485475741,-17,-29,-9,3,9,-12,-3,-10
1522606485475741,69,25,14,-1,-97,-21,-1,17
1522606485477747,-40,-19,5,6,93,-4,-17,-25
1522606485477747,-29,-3,-8,-5,-4,0,-2,-7
1522606485498802,-6,-8,-5,0,0,-10,-1,8
1522606485498802,63,6,-9,-10,-1,16,10,23
1522606485499805,60,61,11,2,-57,-12,19,0
1522606485499805,-23,-76,-5,4,92,39,-5,-10
1522606485511836,-33,4,3,-1,-9,-11,-2,-3
1522606485511836,-69,-6,-9,-4,20,15,-5,-8
1522606485520861,25,8,1,-4,-29,-41,29,8
1522606485520861,31,13,-1,1,-15,-30,-14,-2
1522606485535900,9,-1,1,-5,-14,18,2,3
1522606485535900,50,39,9,6,37,11,-1,16
1522606485537906,-83,-87,-13,1,-4,12,-9,-14
1522606485537906,11,15,4,2,-15,5,11,12
1522606485557959,23,6,-1,2,-23,-3,-1,-9
1522606485557959,-8,8,8,2,43,-2,-4,-9
1522606485559965,-2,-1,0,1,-12,14,-4,2
1522606485559965,69,38,5,1,-35,22,44,8
1522606485571996,88,-11,-6,-4,10,-14,-55,5
1522606485571996,-103,5,-9,0,13,6,-19,-21
1522606485581021,-3,-16,2,2,11,63,44,50
1522606485581021,62,-2,0,-2,-47,26,-49,-2
1522606485596062,-108,-54,-8,2,61,22,28,-42
1522606485596062,17,-10,-3,-2,-17,-8,8,5
1522606485597064,75,45,3,-2,9,13,0,8
1522606485597064,-18,-27,-1,1,-17,-20,3,-4
1522606485618119,46,42,8,3,-34,-21,22,28
1522606485618119,-37,-21,-2,0,5,-2,4,-5
1522606485620125,-35,-18,-3,-1,6,-20,-19,-4
1522606485620125,0,-12,-7,-4,15,9,4,10
1522606485632157,-3,19,2,-6,-16,8,-31,-13
1522606485632157,-11,-11,-3,-3,-16,-20,26,-2
1522606485641181,29,33,1,-1,15,9,11,-2
1522606485641181,-24,33,6,-3,9,-9,-8,-10
1522606485656221,12,-15,0,5,-4,-2,9,5
1522606485656221,-30,-24,-4,-4,-16,-34,-25,-6
1522606485657223,0,-3,0,-3,-11,12,-5,-8
1522606485657223,-5,20,2,-4,-35,-30,7,1
1522606485678279,2,21,-4,-1,36,0,-11,3
1522606485678279,80,21,0,-1,-30,-29,21,11
1522606485680285,-102,1,0,2,40,12,-41,-13
1522606485680285,-63,-29,-10,-6,-12,-7,-2,-15
1522606485692316,-6,24,-1,-2,6,3,14,6
1522606485692316,-2,-35,-7,-2,6,26,-40,-9
1522606485701341,65,23,5,-4,-37,-26,11,14
1522606485701341,-1,-3,5,8,27,-6,16,-1
1522606485715378,-29,-11,-4,-4,-15,-4,-11,-2
1522606485715378,-11,-14,-4,-3,15,29,7,-8
1522606485717384,-8,24,3,1,-15,-53,-37,-4
1522606485717384,-4,22,1,1,14,13,-6,-3
1522606485738439,-4,-46,-7,-3,5,-31,-7,-11
1522606485738439,45,42,14,8,9,14,7,7
1522606485739442,-13,15,0,-2,-27,-8,-9,-15
1522606485739442,-31,-55,-14,-1,16,9,16,-7
1522606485751474,-56,11,-1,-3,-17,-6,-3,-4
1522606485751474,15,0,-1,1,-13,-3,-4,-7
1522606485760498,6,-24,-2,0,3,-16,3,0
1522606485760498,31,25,6,3,18,-4,18,7
1522606485775538,26,4,-2,-3,-28,-1,-10,11
1522606485775538,2,22,-5,-3,38,4,-17,-1
1522606485777543,-45,-42,-5,0,-35,4,18,-2
1522606485777543,-16,0,-3,-3,24,9,2,0
1522606485798599,-16,-13,-3,-4,-5,6,4,-11
1522606485798599,16,11,-2,-3,-6,1,-13,4
1522606485799602,19,-3,1,0,2,-1,-2,-3
1522606485799602,-5,-3,-3,-1,2,-13,-20,4
1522606485811634,23,17,10,12,-7,7,5,-21
1522606485811634,-21,-16,0,0,15,5,2,1
1522606485820658,0,-13,-9,-6,-4,12,8,-5
1522606485820658,-3,2,2,2,-7,1,12,2
1522606485835698,61,25,5,-1,-4,-4,5,21
1522606485835698,-43,-23,-5,-2,3,9,24,-4
1522606485837704,2,9,1,0,-3,-5,-5,0
1522606485837704,-40,-12,-6,-4,3,5,-14,1
1522606485858759,-1,5,2,-2,-6,-4,1,12
1522606485858759,-22,-15,-8,-8,-72,-67,-29,-19
1522606485859762,-11,12,0,7,79,52,12,15
1522606485859762,19,1,11,4,-7,-9,-10,-5
1522606485871794,-7,2,-4,-2,-3,12,11,5
1522606485871794,-13,-39,-9,1,5,22,8,-1
1522606485880818,46,12,8,-2,-24,-13,1,-17
1522606485880818,1,-5,-4,-1,2,0,-1,-2
1522606485895858,21,9,5,-2,4,23,12,0
1522606485895858,-7,5,1,2,-4,-65,-2,5
1522606485897863,18,-1,-1,3,25,37,-14,-6
1522606485897863,-4,8,-1,0,10,10,13,-7
1522606485917917,11,-21,-2,2,-16,-4,-36,-8
1522606485917917,-2,3,-2,-1,13,14,5,-4
1522606485919922,-21,-25,-10,-7,-22,-20,-3,0
1522606485919922,43,13,-4,-1,-7,-11,-8,9
1522606485931954,-49,6,8,2,1,-6,14,-1
1522606485931954,-5,0,2,1,20,19,4,-5
1522606485940978,25,3,-3,-7,-71,-38,-14,13
1522606485940978,-14,1,-3,4,72,43,14,-5
1522606485956018,0,-8,-9,-3,-22,-27,-1,-5
1522606485956018,3,2,8,2,21,39,8,4
1522606485957021,-28,2,0,-2,-22,-20,-14,-12
1522606485957021,28,4,-1,-1,-18,13,-1,13
1522606485978077,8,2,-5,-6,-4,1,24,2
1522606485978077,-23,-12,-7,-4,6,17,-12,-7
1522606485980082,6,-1,-11,-6,3,-26,-5,2
1522606485980082,-12,4,8,7,-24,-12,-10,-5
1522606485992114,-3,-9,14,5,26,8,8,2
1522606485992114,39,10,-2,-1,-8,18,15,18
1522606486001138,-34,-6,-7,-5,3,7,-6,-26
1522606486001138,-7,-3,-7,-6,-23,-31,-6,-7
1522606486015175,11,3,1,3,-7,21,-4,1
1522606486015175,-27,-6,-1,2,22,5,3,-12
1522606486022194,11,9,4,1,-2,-8,5,9
1522606486022194,-15,-4,-1,-2,-6,-12,-6,-7
1522606486038237,-10,-5,-3,-2,-10,-4,-7,-5
1522606486038237,32,4,6,-2,-2,-1,3,20
1522606486040242,15,10,4,9,2,20,14,1
1522606486040242,-78,-32,-4,-2,21,-3,11,-13
1522606486061298,-32,11,-3,-6,3,-9,-12,1
1522606486061298,14,3,-10,-2,1,0,2,1
1522606486062301,9,2,4,-2,-13,-9,-6,-2
1522606486062301,30,11,10,5,31,21,2,7
1522606486075335,-9,2,0,-3,-8,13,10,-1
1522606486075335,-14,-11,0,5,26,4,-3,-5
1522606486082354,9,-1,-6,-4,-2,7,10,-1
1522606486082354,11,8,-4,-5,-26,-3,-15,1
1522606486098397,13,-11,-7,-5,-3,-34,0,3
1522606486098397,3,-4,2,1,20,1,-1,6
1522606486100402,5,0,7,1,-2,3,-13,1
1522606486100402,20,10,2,-2,-26,-25,-3,-9
1522606486120455,-23,-22,-3,4,-6,-23,-5,-4
1522606486120455,27,7,-4,-5,-4,14,15,0
1522606486122461,-65,-8,-1,5,19,11,17,-1
1522606486122461,43,11,-11,-9,-8,-9,-26,7
1522606486135495,-4,-3,5,-1,-6,-1,-3,-6
1522606486135495,25,4,8,5,-10,-6,-3,-1
1522606486141511,-29,-6,1,3,13,12,9,-2
1522606486141511,10,3,1,-2,-12,3,10,6
1522606486158557,-43,-3,-8,-5,-1,-23,-10,-4
1522606486158557,-10,-4,-7,-7,-9,-7,1,-6
1522606486159559,16,4,-6,-3,1,4,-1,4
1522606486159559,-9,-9,0,1,-4,-13,1,0
1522606486188637,24,9,9,4,12,14,-4,8
1522606486188637,-6,0,-1,-7,-8,-4,-4,-8
1522606486189639,29,3,2,4,-2,-14,2,0
1522606486189639,-29,-7,-3,-1,0,12,6,-1
1522606486194653,1,-6,-2,0,-10,11,5,0
1522606486194653,-29,-1,1,2,-14,-18,-14,-5
1522606486201671,-1,6,-2,-4,11,11,-8,7
1522606486201671,16,-10,-4,-1,-2,1,25,-4
1522606486218717,13,8,-1,1,1,3,-8,0
1522606486218717,13,6,3,1,-33,-55,-29,4
1522606486219719,-2,-7,-5,-1,18,8,-21,0
1522606486219719,-26,4,5,0,-6,0,-12,-2
1522606486240775,13,2,-4,-2,21,38,21,1
1522606486240775,-1,-8,-4,-1,-3,-4,-23,-12
1522606486242781,14,17,2,0,-5,2,23,9
1522606486242781,-6,-11,0,0,2,-1,5,-1
1522606486254813,28,11,-2,-1,-15,-10,6,0
1522606486254813,-57,-17,0,2,48,27,2,-4
1522606486261831,2,-5,0,-3,-13,-5,-8,-1
1522606486261831,-11,-5,-4,-5,-6,-2,-4,-11
1522606486277874,-13,-9,-2,1,1,-14,21,1
1522606486277874,37,14,-1,0,-12,4,6,0
1522606486279879,-28,-9,-1,-5,-3,1,25,-2
1522606486279879,7,13,4,7,10,-5,-49,-2
1522606486300935,9,-36,-3,-3,-3,-10,-33,-9
1522606486300935,-11,-10,-2,-5,-11,-30,-8,-2
1522606486301938,-14,4,-3,0,11,23,18,-10
1522606486301938,24,17,4,-2,-5,21,4,12
1522606486314972,-7,17,3,3,16,2,-3,-2
1522606486314972,-8,-9,-4,-2,-15,-2,0,2
1522606486321991,29,-11,-3,-2,-10,-13,-17,-2
1522606486321991,-1,-15,-1,-3,-54,-55,-12,8
1522606486338034,-1,2,-5,-1,47,21,3,-4
1522606486338034,4,-1,-1,0,-4,7,-2,2
1522606486340039,11,13,-3,-3,-16,-21,-3,5
1522606486340039,-12,-7,4,4,8,23,31,-6
1522606486361095,15,22,4,-2,-13,-3,13,1
1522606486361095,20,8,3,-1,-2,10,6,7
1522606486362098,-44,-33,-7,-2,-6,-9,-17,-15
1522606486362098,19,13,-3,-1,26,14,-7,0
1522606486374130,-19,-6,0,-4,-8,-3,-5,1
1522606486374130,11,12,5,-2,6,15,8,0
1522606486383154,-3,-1,2,-1,-7,-3,-15,7
1522606486383154,0,9,1,-1,3,-12,15,4
1522606486398194,25,9,0,-2,-7,-1,1,4
1522606486398194,-10,1,-5,4,4,7,-5,-8
1522606486400199,9,18,4,-1,-2,-11,8,-2
1522606486400199,-21,-26,-6,-3,0,-14,-33,-10
1522606486421255,19,29,6,0,-17,15,18,5
1522606486421255,-27,-22,-3,-4,21,-18,11,4
1522606486422258,-7,-6,-4,-5,-1,8,-17,-12
1522606486422258,-3,2,-3,-3,6,12,9,1
1522606486434290,7,2,-8,-6,-19,-19,-2,-14
1522606486434290,-3,1,5,1,-27,-14,-6,-3
1522606486443314,-9,0,3,7,33,34,28,5
1522606486443314,17,2,4,-1,-4,0,7,4
1522606486458354,4,-4,-8,-1,8,15,-10,-11
1522606486458354,-17,6,-4,-6,-17,-16,-14,5
1522606486460359,8,-28,-10,-4,-10,-13,1,-18
1522606486460359,-7,-4,0,2,-4,6,10,-2
1522606486480413,5,-1,1,0,7,2,-2,8
1522606486480413,-42,-5,-3,0,4,19,44,-3
1522606486482418,26,12,3,1,-6,-15,-34,4
1522606486482418,-16,-3,-1,0,0,-34,-10,-3
1522606486494450,-22,-17,-8,0,0,0,2,0
1522606486494450,18,6,1,4,4,1,-20,-5
1522606486503475,1,7,-1,-5,-3,6,-1,5
1522606486503475,-17,-11,-10,-2,-3,8,-5,-9
1522606486518514,-14,0,6,3,2,-2,-2,9
1522606486518514,16,4,4,-2,2,4,-2,4
1522606486519516,9,14,7,4,-5,11,16,5
1522606486519516,-25,-11,-8,-4,4,-2,7,-11
1522606486540572,-10,-12,-3,1,-4,-51,-17,-7
1522606486540572,6,3,1,2,0,5,0,-4
1522606486542578,11,3,2,3,2,1,-4,12
1522606486542578,9,1,-1,2,5,26,7,2
1522606486554610,26,12,2,2,6,16,3,17
1522606486554610,7,-7,-2,-4,-5,0,-7,-9
1522606486563634,-7,-5,-5,-2,-4,-17,6,-4
1522606486563634,5,-3,-1,0,3,-4,-30,1
1522606486578674,-9,-8,3,0,2,56,17,-3
1522606486578674,6,4,-4,0,0,9,-16,3
1522606486579676,0,-10,-3,0,1,11,3,-13
1522606486579676,4,5,0,1,3,7,10,0
1522606486600732,6,3,-1,-2,-4,-4,3,2
1522606486600732,-7,-9,-1,-1,-3,4,7,-5
1522606486602738,-20,0,-2,1,9,13,-3,-2
1522606486602738,-9,4,6,0,0,27,-6,5
1522606486614770,-19,-4,3,-3,-23,-87,3,-9
1522606486614770,5,2,-4,3,8,13,11,0
1522606486623794,10,5,0,-4,2,-3,-5,4
1522606486623794,19,2,-5,-6,-3,0,7,11
1522606486637831,-5,-12,-7,1,5,11,-10,-1
1522606486637831,9,4,-1,1,-26,-9,-2,-6
1522606486639836,3,1,1,0,13,-10,-14,1
1522606486639836,-23,-2,4,3,0,-14,14,-10
1522606486660892,-12,-2,-5,-11,-6,4,-10,-2
1522606486660892,35,8,-7,-3,0,-12,3,4
1522606486662898,-38,-4,0,0,3,15,-7,5
1522606486662898,8,-7,4,-1,2,-5,0,-4
1522606486673927,8,0,4,5,2,16,-11,-3
1522606486673927,-19,-9,-3,-3,4,-22,30,3
1522606486683954,-11,-3,-3,-2,-9,-22,-4,3
1522606486683954,26,7,-1,1,9,19,6,6
1522606486697991,-9,0,-5,2,4,39,11,-4
1522606486697991,-15,-4,3,-3,5,0,8,4
1522606486699996,25,15,7,-5,-44,-11,-3,15
1522606486699996,-13,-10,1,12,50,17,9,-4
1522606486721052,12,1,0,-1,-1,-4,-8,6
1522606486721052,-40,-6,-7,-2,6,21,0,-14
1522606486722055,0,-2,-4,-1,-7,-15,5,-2
1522606486722055,5,4,-2,-8,-26,-4,-9,2
1522606486734087,17,4,-2,0,4,-10,-2,2
1522606486734087,-10,-19,3,3,5,-5,-12,-11
1522606486743111,5,-4,-2,1,-9,2,4,-3
1522606486743111,-20,6,1,1,-2,-16,2,0
1522606486758151,7,-2,-2,-4,5,16,-7,3
1522606486758151,-6,10,2,0,-8,-26,-10,6
1522606486764167,-11,-12,-3,-1,8,-20,11,-14
1522606486764167,21,2,2,2,-1,31,18,0
1522606486781213,-7,-1,-2,-2,-8,-14,-6,0
1522606486781213,12,-1,-2,-1,-3,-5,-7,0
1522606486782215,2,-2,0,1,18,11,2,4
1522606486782215,-27,11,-2,-2,-9,-7,-6,-5
1522606486794247,-9,-12,-2,-2,-4,-11,8,-1
1522606486794247,7,-1,0,-1,-2,8,-5,2
1522606486803272,16,7,1,-1,-1,1,-3,3
1522606486803272,10,-3,-5,-5,3,-39,-23,-7
1522606486817308,-14,-2,-1,2,0,4,2,-3
1522606486817308,-17,-4,3,-2,0,-21,-7,-1
1522606486826333,29,14,1,3,2,-10,5,2
1522606486826333,-10,-5,-3,-1,-16,0,-7,-3
1522606486840370,-30,1,-2,-3,-3,10,14,-1
1522606486840370,14,-4,-6,-2,13,7,-27,5
1522606486842375,-4,-6,2,0,0,-25,-31,-9
1522606486842375,16,6,2,6,-9,-5,30,12
1522606486854407,-8,-10,-3,2,24,15,-2,-7
1522606486854407,1,28,-1,-1,-13,7,6,6
1522606486863431,4,-26,-2,-1,0,7,7,3
1522606486863431,5,6,1,-5,-3,-6,-6,-5
1522606486878471,-5,-3,3,6,6,-2,-10,0
1522606486878471,0,-2,1,-1,-2,10,25,-2
1522606486879474,11,15,-1,-1,3,2,-5,-1
1522606486879474,1,-9,-3,-3,-8,-6,-6,1
1522606486900530,6,2,-1,-3,-14,-39,-17,-3
1522606486900530,-3,4,1,0,6,15,3,0
1522606486902535,-24,-30,-4,1,-5,-14,-29,-9
1522606486902535,0,-2,-3,-5,-6,-6,-9,-3
1522606486914567,10,7,-3,-3,-21,1,5,-2
1522606486914567,7,0,-1,3,27,25,7,-8
1522606486923591,-56,-13,-4,-4,-9,-20,-32,-10
1522606486923591,-10,3,3,1,2,3,-11,1
1522606486937628,4,-2,-2,-1,-11,-5,12,0
1522606486937628,25,-6,-1,-3,10,27,-3,-3
1522606486944647,2,7,1,0,-7,-41,-21,-5
1522606486944647,1,-2,-1,-1,-1,5,0,-2
1522606486960690,10,7,2,3,8,-14,-21,-3
1522606486960690,-16,-2,-3,-1,-12,-5,-6,4
1522606486962695,-12,6,-1,0,6,28,17,1
1522606486962695,-15,-20,-6,-3,-18,-28,14,-4
1522606486983751,15,-2,1,5,31,17,-3,-3
1522606486983751,-19,2,3,-1,-2,5,-11,-7
1522606486984754,28,-12,0,4,3,17,43,9
1522606486984754,-21,12,1,-2,-7,5,12,-3
1522606486997789,23,12,1,-4,-11,-7,-3,3
1522606486997789,-10,-37,-2,2,1,-12,2,-1
1522606487004807,4,11,0,-2,-7,14,1,-4
1522606487004807,6,-7,3,2,21,46,30,6
1522606487020850,18,3,-3,-5,12,-14,-28,-6
1522606487020850,23,20,4,1,-7,-5,4,-1
1522606487022855,-14,2,-6,-7,-9,2,7,-7
1522606487022855,2,-10,-5,1,-1,3,-7,-4
1522606487042908,-10,0,-3,-4,-6,3,1,3
1522606487042908,6,-1,-4,0,-4,-18,1,6
1522606487044914,15,-2,-2,-2,3,11,-2,1
1522606487044914,1,6,-2,-2,-4,-19,-20,-6
1522606487057948,13,8,2,-3,4,13,8,1
1522606487057948,0,-18,-3,-3,-5,-4,13,11
1522606487063965,-1,14,3,2,4,12,14,2
1522606487063965,6,-9,-4,1,3,7,-2,4
1522606487081010,-15,-8,1,-2,-15,-44,-14,1
1522606487081010,5,7,-1,0,2,-9,20,8
1522606487082013,8,10,2,-1,6,21,2,14
1522606487082013,-11,1,0,-1,-1,-20,-5,-3
1522606487103068,-6,-11,-2,-1,-4,25,-3,5
1522606487103068,-19,1,-3,-1,-2,-4,-29,-16
1522606487105074,26,0,0,0,3,-4,1,3
1522606487105074,24,13,3,3,0,-1,-14,-2
1522606487118108,-22,-17,1,2,0,3,8,0
1522606487118108,-4,0,0,-1,-4,-4,-3,-2
1522606487124125,6,4,1,-1,1,-2,5,3
1522606487124125,-11,-8,-1,-2,3,6,-19,-3
1522606487141170,2,-1,-1,-1,8,4,15,-4
1522606487141170,1,-1,-5,-2,-7,-11,-5,-3
1522606487142173,-1,-2,-2,-3,-3,0,-4,-6
1522606487142173,-1,9,2,2,3,-4,1,8
1522606487163228,6,-3,0,0,-2,26,11,7
1522606487163228,-21,-1,2,-3,-2,-17,-15,-18
1522606487165234,-29,-8,-4,0,2,7,12,-6
1522606487165234,24,3,0,-2,0,6,13,19
1522606487177266,1,3,-1,-1,-1,-27,-27,-8
1522606487177266,24,1,-3,-1,-4,25,-3,0
1522606487184285,-67,-22,-6,0,-1,1,1,-11
1522606487184285,17,5,7,-2,1,-9,-4,-8
1522606487201330,13,4,2,0,-3,4,10,9
1522606487201330,-13,7,2,2,1,0,1,10
1522606487202333,19,-1,-2,-5,-4,-20,38,-17
1522606487202333,9,-6,-6,-1,6,7,-8,4
1522606487223388,-33,-1,-1,-1,-8,0,5,-9
1522606487223388,29,5,1,-3,2,-3,-1,4
1522606487225394,24,-7,-5,3,2,3,5,12
1522606487225394,-17,3,4,0,-3,0,-7,-6
1522606487237426,15,-6,-2,-3,-3,9,6,-1
1522606487237426,-6,-2,-1,3,5,34,8,5
1522606487244445,-6,5,-2,-3,-3,15,-6,3
1522606487244445,11,0,-3,0,4,2,6,4
1522606487260487,-18,-3,-3,2,-4,-9,-10,-9
1522606487260487,-8,-7,-2,-4,-2,12,10,-5
1522606487262493,6,-3,1,-7,4,-1,-13,0
1522606487262493,-1,-3,6,7,-6,-12,-8,-4
1522606487283548,-26,2,0,-6,0,1,13,3
1522606487283548,6,1,-6,-20,-27,-14,-5,3
1522606487284551,15,3,-2,28,7,-5,-1,-1
1522606487284551,-3,-10,-11,2,5,-12,-10,5
1522606487296583,-8,2,9,8,3,-1,-2,-4
1522606487296583,10,0,-3,-16,9,-1,1,-1
1522606487305607,-8,-1,6,0,-3,21,-24,1
1522606487305607,-10,-2,0,3,-1,8,49,-3
1522606487320647,28,3,-6,2,4,15,23,2
1522606487320647,-46,-12,-4,3,2,-18,-19,-13
1522606487322652,27,8,3,-10,-3,11,7,9
1522606487322652,-26,-12,-6,-8,-6,0,-4,-3
1522606487343708,4,3,3,-10,6,-12,-9,-4
1522606487343708,8,6,1,17,10,14,21,7
1522606487344711,7,1,-4,4,-2,0,-3,-3
1522606487344711,-22,-8,-1,-6,-8,-13,-12,-11
1522606487356744,-5,-3,-6,-14,3,-6,-7,3
1522606487356744,4,7,0,8,9,3,-5,3
1522606487365767,-13,-3,5,11,-1,-12,-3,1
1522606487365767,20,5,-2,-2,2,-1,5,1
1522606487380807,-24,-8,-2,-2,-8,5,9,-3
1522606487380807,-3,10,1,2,1,-8,2,-3
1522606487382812,7,-16,-4,-6,-1,-1,5,3
1522606487382812,3,13,1,-4,-3,-22,-21,-2
1522606487402865,30,0,-2,2,4,-13,-13,-4
1522606487402865,-16,-21,-3,1,4,28,1,-2
1522606487404871,-2,9,1,-12,-16,-39,6,16
1522606487404871,29,15,3,3,0,10,-8,10
1522606487416903,-19,-26,-5,4,-3,4,3,-7
1522606487416903,1,7,2,-2,-8,-23,-19,-10
1522606487425927,-9,-2,-3,-1,4,15,20,-4
1522606487425927,-3,-3,1,5,2,2,0,-1
1522606487440967,3,16,5,4,-5,-12,-3,6
1522606487440967,-3,4,-4,-3,-5,-2,4,0
1522606487441970,-40,-36,-4,-6,-1,-5,-19,-14
1522606487441970,11,2,-3,-2,-1,-3,-2,-7
1522606487463025,7,9,3,1,-1,17,27,6
1522606487463025,-6,-9,-3,-1,-4,-5,-5,2
1522606487465031,11,21,1,1,1,2,-10,-4
1522606487465031,-12,-13,-5,-6,-5,-4,-9,-3
1522606487477063,-1,-17,-7,-2,-2,-5,-22,-2
1522606487477063,14,4,1,-1,-1,3,18,3
1522606487486087,2,10,3,-5,-5,-7,-6,-4
1522606487486087,-13,-3,-3,-2,-2,-30,-59,-8
1522606487501127,2,11,0,-1,-9,-43,-23,-1
1522606487501127,7,3,-1,0,-2,-6,-3,3
1522606487502130,17,0,-2,-2,1,12,4,-1
1522606487502130,-1,5,3,0,0,15,17,5
1522606487523186,3,-17,-4,-4,-17,10,-7,-4
1522606487523186,5,2,4,-1,17,-8,-1,2
1522606487525191,-19,2,-2,0,7,3,9,2
1522606487525191,3,-6,-3,-1,1,5,0,-3
1522606487537223,-10,2,0,-1,-1,-1,1,-4
1522606487537223,11,-4,0,-6,-5,0,17,-1
1522606487546247,14,5,3,7,-1,11,-12,0
1522606487546247,1,-9,-2,1,5,-1,-3,3
1522606487561287,8,7,2,2,0,17,30,3
1522606487561287,-30,-10,-3,-3,-5,9,18,-2
1522606487562290,-5,-5,-3,-2,1,-13,-6,0
1522606487562290,-9,2,-1,0,1,17,-1,-1
1522606487583345,27,5,-1,0,-2,-1,49,3
1522606487583345,-19,-16,-2,2,-13,4,10,6
1522606487585351,1,-3,-4,-3,32,17,21,7
1522606487585351,5,-2,1,0,-10,-6,7,-4
1522606487597383,-23,-2,-2,-3,20,47,41,-1
1522606487597383,19,8,-1,4,-3,-20,-17,5
1522606487606407,-14,-13,-2,-5,-22,-34,-27,-8
1522606487606407,-19,-6,-6,-2,1,0,-2,-3
1522606487620444,-8,-4,-2,-1,2,6,3,-1
1522606487620444,18,11,1,-3,-7,-23,-9,0
1522606487622450,-30,-12,-6,-2,1,13,-2,-8
1522606487622450,19,11,3,-3,-4,-11,0,3
1522606487643505,-16,-4,1,-1,-6,-14,-26,-1
1522606487643505,-27,-15,-4,1,3,9,-8,-9
1522606487644508,14,17,0,-2,-8,-6,0,2
1522606487644508,-3,-9,1,0,1,5,-5,-6
1522606487656541,9,3,-1,-2,-2,-6,15,3
1522606487656541,-13,2,1,-2,0,-5,-16,-3
1522606487665564,9,10,1,-3,-7,-1,-3,-4
1522606487665564,-10,-13,-2,0,2,13,14,-5
1522606487680604,0,2,-1,1,2,-19,-34,4
1522606487680604,16,2,-1,1,4,50,-12,2
1522606487682610,8,2,-1,2,0,-5,12,-1
1522606487682610,7,6,-2,-3,-6,10,39,14
1522606487703665,-17,-5,-3,-2,-2,-8,-52,-5
1522606487703665,5,-3,-3,0,1,10,17,-3
1522606487704668,7,-2,1,1,-1,-3,-46,2
1522606487704668,0,2,0,-2,0,-1,-4,-2
1522606487716702,20,-3,0,2,3,10,4,1
1522606487716702,-50,0,-5,-5,-9,-21,-25,-8
1522606487725724,3,-6,0,0,4,45,6,5
1522606487725724,30,2,-3,-2,-6,-49,1,3
1522606487740764,-10,2,1,3,0,1,-6,6
1522606487740764,-8,-12,-5,-4,0,-10,-4,-14
1522606487742770,-11,-2,1,-1,-4,-1,14,-6
1522606487742770,-28,-7,-4,-1,2,16,-4,-4
1522606487762823,23,6,2,-1,1,12,2,5
1522606487762823,20,6,4,2,3,-12,1,6
1522606487764829,-9,-4,-2,0,2,-6,3,-4
1522606487764829,-11,-2,0,0,-4,2,-4,-12
1522606487776860,-13,0,-2,0,-1,-7,-12,-7
1522606487776860,25,5,0,1,-2,-28,-1,2
1522606487785884,22,9,1,0,-5,-3,5,15
1522606487785884,-12,-6,-5,-6,-3,-48,-13,-8
1522606487800924,4,4,-1,3,0,-16,-2,2
1522606487800924,0,-1,5,9,5,10,16,3
1522606487802930,-24,-4,-3,-5,-3,-8,-1,-12
1522606487802930,3,0,2,-5,-2,7,-3,-3
1522606487822983,-5,-1,0,1,0,-5,-7,-7
1522606487822983,32,1,-2,5,4,3,14,9
1522606487824989,-16,3,0,3,-1,-5,-15,3
1522606487824989,2,0,1,-3,-3,6,0,-2
1522606487837021,0,-1,0,3,-5,-18,4,5
1522606487837021,7,1,1,-6,1,-7,6,5
1522606487846044,1,-5,-4,-1,-1,-4,9,-14
1522606487846044,-10,-3,-4,-2,-2,14,4,4
1522606487861084,8,4,4,2,7,62,-3,6
1522606487861084,-14,-10,-2,4,-9,-72,-5,-11
1522606487862087,-5,5,-2,-1,4,10,0,5
1522606487862087,16,1,1,-1,1,23,1,5
1522606487883143,1,-1,-5,-3,-1,8,2,-6
1522606487883143,-3,3,0,-8,3,24,-10,-1
1522606487885148,7,-12,0,1,-6,2,-3,-8
1522606487885148,-11,3,0,6,4,-4,27,4
1522606487897180,10,-2,-5,-5,-3,-10,-4,1
1522606487897180,-20,-2,0,-2,-6,5,-14,-5
1522606487906204,26,10,2,-7,-9,-19,8,10
1522606487906204,4,-6,-3,1,12,17,2,0
1522606487920242,-44,-5,-2,-1,-2,-23,-35,-10
1522606487920242,22,3,3,0,0,0,3,2
1522606487927260,-3,-2,2,1,0,10,-2,2
1522606487927260,15,7,0,-1,-8,-5,3,5
1522606487943303,-7,-5,-2,-5,1,-15,3,-7
1522606487943303,3,3,-2,0,12,55,16,1
1522606487945309,-12,-11,-4,-1,-11,-5,-19,-12
1522606487945309,-44,-5,-1,-2,-2,9,-4,-7
1522606487965362,21,5,0,0,-1,-6,8,-1
1522606487965362,3,3,-5,-4,-2,-12,-23,1
1522606487967367,1,-2,0,-1,3,-12,-10,-4
1522606487967367,12,3,2,0,-5,-7,-13,-7
1522606487980402,5,-6,-4,0,7,18,15,7
1522606487980402,8,-9,-2,-2,-4,-1,1,0
1522606487987420,-12,3,-1,0,2,-12,-4,2
1522606487987420,-20,-1,1,2,-4,-19,-15,-3
1522606488003463,-9,-7,0,-3,-6,-7,-2,-6
1522606488003463,0,8,-1,1,0,-3,1,-2
1522606488004466,5,-17,-4,0,1,-9,8,7
1522606488004466,1,11,2,1,2,34,19,-5
1522606488025522,23,7,0,3,-1,-15,-2,0
1522606488025522,-24,-13,-1,-2,-1,13,7,3
1522606488027527,-20,3,-3,-3,-1,-16,-4,-12
1522606488027527,7,-5,-4,-1,-7,-36,-40,0
1522606488039559,-9,4,1,-4,-2,10,11,-3
1522606488039559,35,-4,-1,4,-1,-12,-18,5
1522606488048583,-19,5,4,-2,3,13,19,-1
1522606488048583,-13,-11,-1,2,3,14,1,3
1522606488063623,-5,8,-3,-1,-1,-1,37,5
1522606488063623,7,-9,-1,-2,-7,-1,-12,-5
1522606488064626,13,7,1,3,15,19,14,5
1522606488064626,2,10,-1,-2,-10,-24,-44,-3
1522606488085682,-12,-9,-1,-1,-5,3,-13,-4
1522606488085682,-8,-2,-3,-3,-31,-3,15,-1
1522606488087687,19,0,-3,0,24,11,16,6
1522606488087687,-19,-4,0,0,4,7,14,-1
1522606488099719,3,-5,-3,-4,-1,-5,-17,-7
1522606488099719,3,5,0,-2,0,7,17,0
1522606488106737,3,0,-2,-2,-24,-18,-8,2
1522606488106737,17,-3,0,-1,10,2,9,4
1522606488123783,-26,-6,-4,2,2,1,-16,-4
1522606488123783,1,2,0,-1,5,7,7,0
1522606488124786,-17,7,-3,-3,-12,-10,-8,-2
1522606488124786,13,-4,0,-4,-10,5,9,1
1522606488145841,16,5,0,-2,-5,9,19,-9
1522606488145841,-13,-3,-3,0,7,-9,-7,-8
1522606488147847,-13,-5,-1,-2,-2,0,-14,-3
1522606488147847,-4,0,-2,-3,-7,-28,-8,-3
1522606488159879,-3,-16,-5,-3,7,-10,-15,-2
1522606488159879,0,9,3,-2,-4,-1,-2,-3
1522606488166897,16,4,-3,2,6,5,2,3
1522606488166897,-14,2,-3,-2,-3,-1,4,-5
1522606488182940,11,11,2,3,4,12,-2,5
1522606488182940,-15,-12,-4,-4,-8,-13,10,1
1522606488184946,18,10,3,4,-1,4,-2,5
1522606488184946,-35,-1,0,0,7,7,13,-2
1522606488206001,4,1,-1,-2,-6,-11,-27,-3
1522606488206001,2,-2,-1,-1,29,25,12,1
1522606488208007,6,1,-1,-2,-7,-9,-40,-6
1522606488208007,-20,-14,-5,-5,0,-8,12,1
1522606488219037,7,-8,-1,4,8,5,14,3
1522606488219037,10,15,3,3,-2,-3,2,-8
1522606488228060,-1,-19,-4,-2,0,9,25,4
1522606488228060,30,11,3,2,8,11,-1,0
1522606488243100,-4,-8,-4,-6,-12,-6,-6,-2
1522606488243100,-7,-6,-3,-1,-2,-7,-15,1
1522606488245106,16,13,2,-3,0,-3,5,-1
1522606488245106,-14,-7,4,2,-8,3,19,-2
1522606488266161,3,4,4,0,4,-4,-8,2
1522606488266161,-1,1,-1,1,-4,0,-5,2
1522606488267165,-3,2,0,-2,-1,-7,13,-2
1522606488267165,15,-2,-3,2,1,21,-10,1
1522606488279196,-2,5,1,-1,-2,4,9,1
1522606488279196,0,2,-2,-4,0,-8,-7,0
1522606488288221,-14,-7,1,0,-3,7,9,-5
1522606488288221,17,4,-2,-2,0,-1,-4,7
1522606488303260,-4,0,1,1,-3,7,0,4
1522606488303260,-2,3,-2,-1,-5,-37,-9,1
1522606488305266,-1,-11,-1,-2,-1,3,-26,7
1522606488305266,6,1,0,-1,-1,4,-10,-8
1522606488325319,4,-7,-2,0,0,-2,0,-9
1522606488325319,-32,-3,-3,-2,-1,12,6,3
1522606488327324,10,1,-3,-3,-3,-3,3,-6
1522606488327324,-6,0,0,4,5,-5,-6,3
1522606488339356,-4,-4,-3,-2,-4,1,-2,-1
1522606488339356,0,7,4,3,1,1,0,-6
1522606488348380,14,6,1,2,5,11,-2,8
1522606488348380,10,3,1,0,-4,-10,-3,2
1522606488363420,26,5,-2,0,-2,0,5,9
1522606488363420,4,-8,0,1,-2,0,-4,-9
1522606488365426,-19,-10,-3,-2,0,-9,-2,-2
1522606488365426,-6,0,-3,1,1,10,7,-7
1522606488385479,-5,5,1,0,-1,-11,0,1
1522606488385479,6,-8,-3,1,3,9,-1,3
1522606488387484,5,0,0,0,2,42,9,5
1522606488387484,0,3,-3,0,-4,-38,-3,-7
1522606488399516,-12,-1,1,-3,-3,-6,-4,-9
1522606488399516,8,-1,-6,-1,-1,4,-9,1
1522606488408540,-32,3,6,4,1,13,7,-6
1522606488408540,14,-1,-1,-3,2,32,15,8
1522606488423580,-5,-2,-3,-2,-2,26,1,-4
1522606488423580,-10,-2,4,5,-1,-33,1,1
1522606488424583,17,5,-4,0,0,0,4,4
1522606488424583,0,-4,-6,-3,0,4,-1,2
1522606488445639,-31,-7,-2,-6,-2,-5,-3,-1
1522606488445639,-2,-4,4,4,1,12,-3,-5
1522606488447644,11,0,-8,-2,-2,-7,6,-3
1522606488447644,2,0,4,2,-1,-5,-4,-1
1522606488459676,0,-1,1,-1,0,-3,0,3
1522606488459676,18,2,0,2,0,-1,-3,3
1522606488468700,-14,-8,-1,1,-1,-22,-3,-6
1522606488468700,-9,-6,-1,-4,-3,2,-3,2
1522606488483740,0,-1,-6,-4,-6,-17,-12,-6
1522606488483740,13,6,0,-2,1,9,10,2
1522606488484743,-6,4,0,1,-1,-11,-5,-3
1522606488484743,0,-8,-6,-5,-2,0,-4,2
1522606488505799,16,3,4,3,-1,-3,2,1
1522606488505799,-50,-5,-2,-3,-3,-27,-25,-5
1522606488507804,21,0,-3,-1,1,13,-1,3
1522606488507804,8,1,4,2,-2,-20,-16,6
1522606488519836,-16,-4,-2,-3,-3,-21,19,-8
1522606488519836,6,5,-3,-4,-3,-11,-36,1
1522606488528860,-9,1,0,7,-2,-4,1,-6
1522606488528860,6,8,2,2,0,-6,5,3
1522606488542897,11,0,-7,-1,3,4,-4,4
1522606488542897,-17,-9,6,-7,-37,15,12,4
1522606488544903,-14,4,3,8,19,2,1,-4
1522606488544903,21,-3,-4,-3,-2,14,14,4
1522606488565959,-21,-1,-2,-1,3,22,8,-6
1522606488565959,-8,-7,-4,2,0,-11,5,-2
1522606488567964,-12,-8,2,-6,-8,-8,-7,5
1522606488567964,19,8,1,2,-3,2,16,6
1522606488578993,-47,-3,-5,-4,-2,-2,-30,-20
1522606488578993,16,7,-11,-5,3,9,17,14
1522606488588017,-9,-2,11,0,-6,-5,-9,-7
1522606488588017,10,2,0,2,5,12,-4,-17
1522606488603057,-8,-6,-2,-1,-10,-51,-40,3
1522606488603057,13,4,2,4,10,10,9,2
1522606488605063,14,-3,-12,-4,-4,-8,-2,5
1522606488605063,-40,-20,0,0,-4,-15,-9,-6
1522606488626119,40,15,9,6,2,7,10,13
1522606488626119,-36,-8,-2,-3,6,9,-6,-9
1522606488627121,42,12,-1,-2,-7,-12,6,6
1522606488627121,-4,-3,-2,-6,0,1,3,-5
1522606488639153,-24,-1,2,5,-5,2,5,-2
1522606488639153,4,7,0,-3,13,5,-1,-5
1522606488648177,-12,10,7,2,-5,1,9,-1
1522606488648177,6,7,0,2,2,-4,-4,-1
1522606488663217,15,5,-1,-4,-8,-2,4,2
1522606488663217,36,5,-1,-6,15,-6,-16,3
1522606488665223,-34,-19,-11,-2,18,-15,-11,-6
1522606488665223,-33,-12,-3,-6,-9,5,14,-2
1522606488686279,35,5,3,14,26,18,9,1
1522606488686279,-31,-8,-2,-2,-9,-22,1,-4
1522606488687281,20,8,-2,-12,-15,16,21,2
1522606488687281,19,7,-6,5,6,-12,-9,2
1522606488699313,-37,-16,5,-4,-10,0,-12,0
1522606488699313,49,3,4,8,-15,15,47,10
1522606488708338,-72,-6,-3,-2,10,-7,10,-12
1522606488708338,10,6,-3,-1,1,2,-9,-3
1522606488723377,16,-22,-7,-13,-5,-4,-4,5
1522606488723377,27,17,0,2,-10,5,8,0
1522606488725383,-27,-18,-1,1,1,-1,-5,5
1522606488725383,9,5,1,-3,3,2,-10,-1
1522606488745436,-25,-7,-5,0,-22,15,11,-5
1522606488745436,13,1,-1,-4,1,-13,10,3
1522606488747442,13,-10,-6,-2,-6,-4,-6,-5
1522606488747442,-14,1,-1,0,11,0,-17,1
1522606488759473,12,7,3,-2,-11,3,25,4
1522606488759473,-26,-5,-1,-4,12,-2,-24,-8
1522606488768498,12,0,0,-8,-28,-8,-3,-1
1522606488768498,20,13,5,-1,-14,-23,-24,4
1522606488783537,-29,-10,-2,-3,33,-3,0,-2
1522606488783537,-9,-11,-4,7,-4,9,-14,-8
1522606488784540,10,3,-2,8,7,3,8,0
1522606488784540,-6,-7,6,0,-3,7,12,5
1522606488805596,15,13,-4,-5,-5,-13,-11,-13
1522606488805596,-22,-11,-4,-9,-11,-7,6,0
1522606488807601,14,8,1,8,39,29,14,7
1522606488807601,3,1,1,2,-10,4,25,3
1522606488819633,-5,-3,-4,-4,2,-2,-19,1
1522606488819633,-4,5,3,1,-10,-13,31,-5
1522606488828658,3,3,2,-5,-16,24,-5,-5
1522606488828658,-5,-2,-2,-5,11,-26,-15,8
1522606488842695,-19,-3,-1,7,6,15,17,-11
1522606488842695,13,-2,-1,-1,3,30,1,2
1522606488849713,-10,-13,-5,-3,-5,-22,-31,-21
1522606488849713,-8,3,1,1,9,10,5,11
1522606488866259,19,-3,-1,-4,-2,19,-3,0
1522606488866259,-4,-7,2,5,16,4,8,9
1522606488867763,3,6,1,1,5,-12,-10,2
1522606488867763,22,3,0,5,-13,-4,-11,-4
1522606488879795,-21,-8,-5,-5,0,-4,5,6
1522606488879795,-1,-3,-3,-3,-12,-5,2,-13
1522606488888319,10,-1,-10,-3,-2,-8,-10,-1
1522606488888319,-11,-4,4,-1,0,0,11,4
1522606488902356,14,16,6,4,-11,-8,-4,7
1522606488902356,10,-3,6,2,4,14,39,-1
1522606488909375,-5,0,-3,-5,-9,-47,-14,16
1522606488909375,8,-12,-8,-2,-5,-18,-7,-19
1522606488925418,26,3,3,3,-2,-6,7,11
1522606488925418,-7,-2,-9,-4,-3,4,-18,0
1522606488927423,-13,1,13,0,-1,13,-6,-29
1522606488927423,-28,-5,-6,-3,-2,-12,-4,-5
1522606488948479,19,0,2,1,-3,-13,3,5
1522606488948479,-4,-3,-1,-1,4,-7,-22,-1
1522606488949482,18,2,-2,-1,4,38,18,17
1522606488949482,-4,-1,-4,-3,-9,-59,-10,-6
1522606488962516,-13,0,-4,0,-2,-1,-6,-14
1522606488962516,-9,-9,-6,-3,-3,-10,-22,-10
1522606488969535,0,-4,0,0,-1,6,3,5
1522606488969535,-20,-5,4,-2,-5,27,8,7
1522606488985578,15,7,-2,-1,11,-20,-4,-9
1522606488985578,-25,-7,-1,-3,-2,3,-11,-6
1522606488987583,7,-1,-2,0,-9,-13,8,2
1522606488987583,9,3,3,2,3,16,3,-7
1522606489008639,13,-7,1,0,-2,25,1,16
1522606489008639,-25,-6,-9,-5,-5,-38,-16,-14
1522606489009641,30,4,4,3,5,20,7,16
1522606489009641,-19,-3,-3,1,2,12,-12,-25
1522606489022676,0,6,3,-1,-2,8,-1,0
1522606489022676,36,15,0,2,4,10,3,26
1522606489029695,-31,-23,-7,-2,-2,-10,-16,-17
1522606489029695,29,3,-2,-1,-2,7,11,12
1522606489046740,0,-6,-8,-7,-8,-12,-2,-6
1522606489046740,-8,12,10,1,4,11,-3,-7
1522606489047743,16,9,1,8,-2,-11,13,8
1522606489047743,-14,-8,-2,-12,5,18,2,-6
1522606489068799,0,-5,1,13,-1,-7,0,5
1522606489068799,11,6,1,0,-10,-8,-11,-1
1522606489069802,-27,0,-2,-8,-3,-4,-4,-11
1522606489069802,13,-4,-2,0,-3,9,-2,-9
1522606489082836,28,12,-6,-16,0,-3,1,23
1522606489082836,-42,-18,-1,3,0,24,-9,-5
1522606489089855,27,5,8,3,7,2,2,8
1522606489089855,-6,8,2,13,12,46,8,10
1522606489105897,-12,-5,0,1,5,-9,4,-14
1522606489105897,34,7,-7,-5,-1,0,-9,5
1522606489107903,-1,-4,-8,-6,-7,5,31,-6
1522606489107903,-13,-4,8,3,0,27,-10,2
1522606489127956,-17,6,4,1,-6,3,-2,-3
1522606489127956,16,1,0,4,-1,-9,0,2
1522606489129962,-11,-4,-7,-8,2,-7,-4,-4
1522606489129962,26,8,-1,-6,-2,-12,6,9
1522606489142996,-18,-1,-2,-3,-10,-10,1,-8
1522606489142996,-27,-14,7,14,11,-2,-10,-10
1522606489149012,15,6,1,4,-6,-8,0,8
1522606489149012,0,0,-4,-1,-5,-34,4,0
1522606489166057,-4,3,-3,-2,-1,-5,-2,3
1522606489166057,29,6,-3,-8,2,11,13,2
1522606489167060,8,2,0,2,-2,-4,-16,1
1522606489167060,-50,-20,-7,-2,-4,-1,-6,-16
1522606489188116,-12,-5,0,-4,1,-1,5,3
1522606489188116,4,0,0,0,-3,-7,-3,-1
1522606489190122,12,11,12,11,-6,25,8,2
1522606489190122,18,7,0,-5,4,-13,-21,-3
1522606489202153,-1,-9,-3,4,2,4,24,-3
1522606489202153,-60,-6,-2,-4,0,19,-5,-2
1522606489211178,-22,-19,-7,-8,-7,-30,-19,-10
1522606489211178,6,2,-3,0,-2,6,1,0
1522606489226217,24,1,2,6,2,2,-6,3
1522606489226217,18,5,2,0,1,-7,4,3
1522606489227220,-20,3,-3,-4,-3,-5,-7,-8
1522606489227220,-14,-25,-5,-3,-9,-9,1,3
1522606489248276,-17,-2,-4,-2,2,-8,-14,-8
1522606489248276,25,7,2,-1,-3,-1,16,0
1522606489250282,14,8,1,-2,2,2,-10,3
1522606489250282,4,6,2,2,1,-5,8,0
1522606489262313,-5,-9,-4,-3,-7,13,8,-5
1522606489262313,-24,-20,-3,-2,-9,-4,2,-5
1522606489271338,10,5,0,-2,3,-4,-3,3
1522606489271338,2,4,0,0,4,4,6,-1
1522606489285375,1,3,1,-1,-4,6,9,-1
1522606489285375,16,7,-1,0,-1,1,-32,0
1522606489287380,-34,-8,-4,-2,-6,-42,-36,-5
1522606489287380,5,12,-1,-2,-6,-2,-4,-3
1522606489308436,-4,0,1,-4,11,5,0,-1
1522606489308436,-30,-11,-4,4,21,0,-8,-6
1522606489310441,30,13,3,3,8,15,13,4
1522606489310441,-1,-12,-1,1,-3,8,0,-3
1522606489322474,-24,-11,-3,-2,-11,-23,-10,-2
1522606489322474,16,12,0,-3,-2,10,8,-1
1522606489330495,2,-16,-7,-3,7,-16,-20,-3
1522606489330495,15,16,6,2,3,-8,-2,0
1522606489345535,-39,-16,1,-5,6,9,36,-1
1522606489345535,-6,-11,-5,2,-2,-4,-7,-2
1522606489347541,19,14,-1,0,-7,-1,2,5
1522606489347541,-6,2,-2,-4,-13,6,-6,0
1522606489368596,27,10,3,4,20,-6,-10,-2
1522606489368596,-12,2,0,-3,-5,-3,9,2
1522606489369599,-18,-13,0,-3,-4,6,-3,-7
1522606489369599,-4,-2,-3,-1,-20,12,33,5
1522606489381631,10,6,3,6,13,-1,-12,4
1522606489381631,7,3,1,-1,-3,-34,-8,-2
1522606489390655,-2,-2,0,1,3,3,-29,-3
1522606489390655,-8,1,-2,-2,-3,1,4,2
1522606489405695,-2,-8,-6,-4,-11,3,-12,-6
1522606489405695,24,0,1,-2,-17,9,32,6
1522606489407700,-30,-8,-1,-2,6,7,-49,-12
1522606489407700,1,2,-3,-5,9,-22,48,-2
1522606489428756,35,23,7,7,6,14,-12,31
1522606489428756,-26,-2,0,1,-3,22,6,-17
1522606489429759,14,-5,2,3,-4,10,27,1
1522606489429759,-7,-6,-2,-1,6,-11,-38,-2
1522606489441791,5,2,-7,-3,-12,-17,-14,-15
1522606489441791,-14,-3,0,-4,-11,-2,-3,1
1522606489450815,7,16,2,1,8,11,19,5
1522606489450815,7,-3,0,2,7,2,-10,3
1522606489465855,3,-4,-4,-5,-7,5,11,-7
1522606489465855,31,16,2,-5,1,-2,-7,11
1522606489467860,-36,-10,-2,-2,-5,-20,1,-6
1522606489467860,19,6,3,2,1,-14,8,7
1522606489487914,-9,-4,-3,-2,-5,-9,-15,-5
1522606489487914,0,-1,-2,2,13,27,9,2
1522606489489919,12,3,-5,-6,-6,-16,7,9
1522606489489919,-14,-15,-2,2,0,1,-12,-5
1522606489501951,-8,8,7,3,-8,-43,-19,4
1522606489501951,-1,1,-4,-3,4,-12,-8,1
1522606489510975,-6,-4,-6,2,-1,23,27,-1
1522606489510975,-9,-1,9,1,2,0,-8,-1
1522606489526015,-3,-6,-4,0,2,7,-4,-6
1522606489526015,6,1,3,2,2,-3,3,11
1522606489527018,18,8,-1,-2,-5,-8,4,3
1522606489527018,-14,-13,-6,1,3,10,-7,-8
1522606489548074,-12,-1,0,0,-1,4,-2,-7
1522606489548074,17,-4,-3,-2,-1,-9,-5,-15
1522606489550079,-10,-2,-2,-2,-2,10,10,1
1522606489550079,8,13,-2,-3,-1,-2,-11,-13
1522606489562111,-37,-21,-4,-4,-4,10,10,1
1522606489562111,-19,-3,-3,1,0,-8,-3,-12
1522606489571135,31,1,1,0,-1,-1,-2,-12
1522606489571135,-29,1,-2,0,-2,2,-2,-2
1522606489586175,11,7,-1,-3,-3,-4,-1,5
1522606489586175,-10,-6,-4,1,1,-1,0,3
1522606489587177,-28,0,0,-2,-1,0,3,2
1522606489587177,31,0,-1,-4,0,-18,-3,2
1522606489608234,17,-2,-3,0,3,40,4,15
1522606489608234,-2,5,0,-3,-4,-41,3,1
1522606489610239,-11,-14,-4,-1,-4,-1,4,-8
1522606489610239,1,1,-6,1,-2,-8,-16,-8
1522606489622271,5,4,6,2,6,32,11,4
1522606489622271,28,1,-2,2,1,-3,12,-2
1522606489631295,-21,-1,-2,-3,-10,-60,-13,-4
1522606489631295,-4,-2,-2,-3,-2,5,5,6
1522606489646335,12,-6,-5,1,-3,-7,-8,-15
1522606489646335,5,-2,-3,-1,0,7,0,2
1522606489647338,12,4,-1,-12,6,13,7,5
1522606489647338,13,0,0,3,-10,14,-1,3
1522606489668394,-43,-6,4,10,-11,-72,5,-5
1522606489668394,-24,1,-1,-2,1,5,-9,0
1522606489670399,-7,-6,-3,3,1,18,8,-5
1522606489670399,45,0,3,-11,5,-1,-3,-1
1522606489682431,-26,-18,-11,-1,2,16,-1,-7
1522606489682431,1,3,-1,1,-6,1,-10,-2
1522606489691455,21,8,11,0,1,4,-1,4
1522606489691455,-16,3,-2,2,0,11,11,10
1522606489705492,-9,-4,-1,-5,-3,-7,-11,-14
1522606489705492,-29,-4,-8,-9,2,3,-7,-3
1522606489707498,-5,-7,-1,5,2,5,2,-2
1522606489707498,12,3,5,3,-1,-11,-10,-8
1522606489728554,11,11,2,0,2,13,25,5
1522606489728554,-24,-5,2,-2,-11,-50,-34,-8
1522606489729556,33,5,-4,3,-14,24,7,7
1522606489729556,-26,2,-3,5,-1,-51,-9,-1
1522606489741588,-4,-6,-7,-5,14,4,-4,0
1522606489741588,-6,-3,-1,-1,-3,21,12,0
1522606489750612,3,-1,5,-1,-1,-6,-3,2
1522606489750612,21,-1,-3,-3,-4,9,0,2
1522606489765652,9,18,2,-6,-7,14,1,2
1522606489765652,14,-27,-5,1,-11,-24,2,0
1522606489771668,-25,-1,-1,4,9,3,-7,-7
1522606489771668,-5,-1,-1,-1,2,18,11,-3
1522606489788714,12,-2,-3,-2,-2,-3,-6,-3
1522606489788714,9,9,1,-1,1,22,6,-2
1522606489789716,51,5,-2,-1,-7,-11,2,15
1522606489789716,-37,-4,3,-2,0,10,-8,-9
1522606489801748,-37,-10,1,4,-4,-6,-10,-4
1522606489801748,19,1,0,0,7,30,-13,1
1522606489810772,4,10,-5,-4,4,4,57,7
1522606489810772,29,6,-2,2,4,24,28,4
1522606489824810,-18,4,0,-1,-6,-34,-56,-12
1522606489824810,-14,5,1,-1,4,11,8,12
1522606489831828,0,1,0,2,4,7,-4,2
1522606489831828,5,-8,-4,-3,-5,-24,-28,-5
1522606489847871,-2,-8,-4,-2,-5,10,21,2
1522606489847871,23,7,2,2,6,1,2,1
1522606489849876,-25,4,0,1,-5,-9,-14,-12
1522606489849876,4,-4,-3,1,3,4,5,4
1522606489870932,25,23,3,0,-7,2,10,0
1522606489870932,-26,-14,-1,1,6,-16,-13,-7
1522606489872938,-11,-17,-1,0,-6,18,-8,-4
1522606489872938,3,5,-1,0,1,-47,-15,-2
1522606489884970,6,2,1,1,3,4,16,3
1522606489884970,24,17,2,-1,-2,11,15,2
1522606489891988,-16,3,0,1,-6,-7,-18,-9
1522606489891988,-34,-31,-4,-5,-2,26,26,2
1522606489908031,32,19,2,-1,-1,-10,-11,6
1522606489908031,0,-6,1,-1,4,2,19,-3
1522606489910036,-18,-8,-1,-6,-6,-8,-46,-4
1522606489910036,8,28,0,2,-8,3,-9,1
1522606489931092,33,-20,-4,-3,10,5,19,2
1522606489931092,-27,-8,1,4,5,37,9,-5
1522606489932095,8,7,-2,-5,-27,-32,25,4
1522606489932095,-6,2,0,-2,36,8,-34,-8
1522606489945130,45,18,1,-2,10,10,-5,8
1522606489945130,-41,-20,-12,-10,-26,-29,-20,-5
1522606489952148,-18,-2,10,5,27,10,5,3
1522606489952148,31,5,-2,3,-16,-3,9,15
1522606489968191,-2,-3,-1,-3,-1,-13,8,0
1522606489968191,44,24,3,0,6,4,6,6
1522606489970196,-38,-8,-8,-7,-10,-1,3,-6
1522606489970196,-12,-5,1,-2,-7,-25,-46,-3
1522606489991252,-8,22,1,0,-2,17,15,4
1522606489991252,1,-13,1,0,1,-10,-1,3
1522606489992255,5,2,-3,1,-1,2,4,-5
1522606489992255,-25,0,3,-1,2,16,11,-5
1522606490005289,-11,-18,-2,-2,-7,-14,-22,-5
1522606490005289,6,9,-1,-1,-8,20,3,-1
1522606490012308,13,-9,1,3,13,-14,-36,-2
1522606490012308,-17,-5,-1,-7,-16,5,17,-11
1522606490028351,-6,-5,-3,3,9,8,8,0
1522606490028351,-17,14,2,3,-1,-11,-14,6
1522606490030356,6,-10,-1,-1,-11,12,32,-6
1522606490030356,-20,-7,-3,1,16,10,12,-1
1522606490050409,4,-7,-4,-2,-18,-11,-18,0
1522606490050409,16,9,6,-2,15,14,3,1
1522606490052415,17,8,-3,-1,-6,-1,-16,4
1522606490052415,5,-3,1,-1,-11,-33,-12,-2
1522606490065449,-15,-11,-5,-2,-4,-1,0,-4
1522606490065449,6,-1,-1,3,0,-10,-1,11
1522606490071465,10,2,0,0,0,10,2,12
1522606490071465,-1,0,-1,1,-3,16,8,-6
1522606490088511,-7,-7,0,1,9,0,-3,4
1522606490088511,-8,-4,0,-3,-8,-20,-5,0
1522606490089513,13,0,-3,-3,3,-11,-4,-10
1522606490089513,9,6,2,0,-6,4,4,10
1522606490110569,14,10,2,-1,-8,-5,-5,2
1522606490110569,-16,-18,-5,0,-1,0,-4,-16
1522606490112575,-27,-1,0,-3,3,2,0,-6
1522606490112575,-3,-5,1,4,2,2,4,-2
1522606490124607,17,2,2,2,-9,3,1,-2
1522606490124607,0,-1,1,-2,7,0,2,3
1522606490133631,2,-6,-2,-1,4,6,2,-4
1522606490133631,-14,-10,-6,-2,-3,2,0,-8
1522606490148671,13,4,1,2,-1,-10,1,8
1522606490148671,-3,-10,-5,-3,-4,3,-4,-23
1522606490149673,-14,-1,-4,2,2,1,16,4
1522606490149673,4,-5,-7,-2,2,12,-20,0
1522606490170729,-13,3,9,0,1,-4,-7,-2
1522606490170729,21,11,1,-3,-1,9,12,17
1522606490172735,33,5,5,2,-7,-64,-5,-11
1522606490172735,-61,-15,-8,-4,-2,-13,13,-11
1522606490184767,-3,-5,-1,1,3,8,2,-3
1522606490184767,2,1,1,-1,-2,4,-4,-1
1522606490193791,14,8,-2,1,2,27,-1,11
1522606490193791,28,5,0,-2,-7,0,3,1
1522606490208831,-27,-7,-1,2,7,-8,-2,-2
1522606490208831,4,-4,0,0,1,-2,-10,-11
1522606490209833,-12,-1,-1,-4,0,-12,-2,9
1522606490209833,-4,-6,-3,-1,-6,0,2,4
1522606490230889,-12,5,11,3,1,21,-1,-5
1522606490230889,2,-3,-3,3,0,1,16,9
1522606490232895,0,1,-8,-4,5,7,-7,-1
1522606490232895,-19,-9,6,0,3,-1,3,-2
1522606490244927,4,-4,-9,-4,-5,-16,-1,-3
1522606490244927,9,6,0,-3,-4,6,7,-1
1522606490253951,-10,-6,-4,0,2,6,2,3
1522606490253951,37,11,-1,-1,2,7,-37,-1
1522606490267988,-33,-1,3,8,3,49,50,4
1522606490267988,-32,-6,-3,3,-10,-70,-5,-11
1522606490269993,-1,4,-1,0,10,16,-5,-8
1522606490269993,-3,-4,-2,-3,3,8,-3,0
1522606490291049,25,-7,-3,-4,-5,-5,-14,-6
1522606490291049,-13,-3,-4,-2,3,-1,-3,5
1522606490292052,32,-4,-4,-3,-10,4,-4,0
1522606490292052,-43,12,10,6,15,3,15,-3
1522606490304084,-14,-12,-10,-5,-6,-71,-20,-6
1522606490304084,11,0,6,-1,0,14,10,6
1522606490313108,11,1,-1,-1,-1,2,11,6
1522606490313108,9,6,0,-3,-7,2,-30,-8
1522606490328148,-4,-20,-8,-5,-3,9,-7,-4
1522606490328148,-22,-8,-4,2,10,6,-14,-12
1522606490330154,1,3,3,1,-3,3,2,-3
1522606490330154,-13,-6,-2,-1,-2,4,9,2
1522606490351209,31,13,-2,-4,0,-9,6,2
1522606490351209,-19,-6,-2,-2,-7,-5,-2,7
1522606490352212,-1,0,3,3,1,2,-14,1
1522606490352212,1,3,-4,-3,1,-3,22,7
1522606490364244,5,-7,-1,-3,-3,1,-10,-5
1522606490364244,-6,2,-2,-2,-2,11,7,0
1522606490373269,-25,-2,-2,0,6,-1,-27,-12
1522606490373269,26,-2,2,0,-1,4,-3,2
1522606490388308,-26,9,-3,-1,-6,-35,-21,-8
1522606490388308,38,-8,-1,0,2,5,10,4
1522606490390313,-16,-8,2,1,-1,3,1,-8
1522606490390313,15,6,-4,-3,-3,-3,4,3
1522606490411369,2,-3,-3,0,2,19,3,-1
1522606490411369,-13,2,0,-1,-5,-2,-7,3
1522606490412372,8,3,4,2,0,0,1,-2
1522606490412372,32,5,1,0,-3,4,21,3
1522606490424404,-7,-2,2,3,2,4,8,-1
1522606490424404,-1,-2,-2,-1,2,-5,-12,-4
1522606490433428,-5,7,-2,0,0,8,10,0
1522606490433428,1,-25,-2,-2,1,2,1,-1
1522606490448468,-12,5,-1,0,1,17,-7,3
1522606490448468,20,10,-3,-3,-5,-23,-25,-7
1522606490450473,-18,-6,0,-3,-1,-3,15,4
1522606490450473,5,2,-2,-2,-4,-5,2,2
1522606490470527,6,-4,-3,-2,1,6,8,2
1522606490470527,-24,-5,0,0,-1,28,10,-7
1522606490472532,8,11,0,-3,-4,-14,-4,5
1522606490472532,-10,-6,-2,-1,-3,-15,-19,-4
1522606490484564,11,5,2,-1,4,45,38,8
1522606490484564,11,18,-1,-3,-6,-3,9,-1
1522606490493588,5,-29,0,2,7,7,-18,-1
1522606490493588,-21,-4,1,3,-3,5,13,-4
1522606490508628,-30,2,-2,-3,4,-13,-5,-5
1522606490508628,26,9,-1,-4,-17,-11,13,5
1522606490509631,-6,-4,-3,-7,14,21,1,-2
1522606490509631,16,1,0,10,4,-3,6,4
1522606490530687,9,26,2,-1,-12,7,-11,1
1522606490530687,-21,-60,-7,-4,-4,-35,-48,-13
1522606490532692,-6,9,-1,3,26,8,-8,0
1522606490532692,-3,4,-6,-10,-24,-39,-18,-9
1522606490544724,-16,-5,-1,1,24,20,28,0
1522606490544724,27,14,3,0,-8,1,-8,-1
1522606490553748,-16,-10,-5,-5,-18,-33,8,-3
1522606490553748,17,6,3,-5,-33,-1,0,7
1522606490568788,6,0,8,11,60,33,-16,4
1522606490568788,16,26,4,3,5,11,30,6
1522606490569791,0,-28,-4,-1,1,28,4,2
1522606490569791,-45,-8,-9,-3,-14,-15,-5,-11
1522606490590847,-4,-13,-6,-6,-25,-31,-8,-4
1522606490590847,3,6,-3,1,11,33,7,0
1522606490592852,13,23,2,-1,8,-15,-24,2
1522606490592852,-8,-5,0,1,10,12,32,-2
1522606490604884,18,-9,-1,-8,-28,-27,-19,4
1522606490604884,-27,1,0,3,9,3,-18,-11
1522606490613908,-5,5,-3,-3,-27,-13,1,-3
1522606490613908,5,0,-5,-5,11,6,-20,4
1522606490627945,-8,-8,-4,-3,-17,-21,-9,-6
1522606490627945,12,8,1,4,16,18,-9,6
1522606490629951,1,1,1,1,-9,18,15,1
1522606490629951,16,10,6,5,15,5,27,12
1522606490651007,-5,2,-3,0,-11,-12,18,0
1522606490651007,-18,-13,-5,-4,-9,-15,-15,5
1522606490652010,-9,-2,2,2,3,12,23,-12
1522606490652010,-9,-1,1,2,12,8,-22,-7
1522606490664041,23,7,-1,0,-10,-7,-1,1
1522606490664041,13,-7,-2,0,3,7,7,0
1522606490673065,-10,0,-1,0,3,-5,-14,-3
1522606490673065,15,9,1,0,-7,-10,34,-1
1522606490688106,-21,-15,-1,3,13,59,-13,4
1522606490688106,-7,-3,0,-3,-6,-36,17,1
1522606490690111,-16,5,-3,-5,-9,-11,-8,16
1522606490690111,11,4,1,1,7,6,-11,-6
1522606490711167,3,4,-3,-1,-5,-23,22,-11
1522606490711167,39,15,3,-1,3,10,2,12
1522606490712170,-52,-20,0,2,-6,-8,-2,-9
1522606490712170,-15,13,-1,-1,3,-5,-16,-3
1522606490724201,-21,-17,2,0,1,-8,-20,-1
1522606490724201,18,3,-5,0,-4,18,-5,7
1522606490733225,30,7,5,0,-4,-30,21,-3
1522606490733225,30,9,1,0,4,13,-5,-4
1522606490747262,-20,-2,-4,0,-3,-3,-8,-3
1522606490747262,-38,-7,-5,-2,-3,-2,3,-11
1522606490754281,21,3,3,2,2,33,-1,-4
1522606490754281,1,-7,-2,1,2,-5,-5,0
1522606490771327,-6,3,-1,-2,-4,17,11,-2
1522606490771327,5,3,1,-1,-5,-42,-23,-2
1522606490772330,-10,-5,-7,-2,0,-5,-6,-4
1522606490772330,-4,-4,4,-3,-2,3,-3,4
1522606490784361,21,8,0,-1,-2,1,2,5
1522606490784361,-22,-6,-4,1,0,16,8,-2
1522606490793385,23,-4,2,0,-3,-3,-5,0
1522606490793385,-30,0,1,-4,-3,-6,-3,0
1522606490807423,19,-4,-6,-3,0,-3,-12,-4
1522606490807423,-19,6,8,0,-2,1,18,-3
1522606490814442,3,-9,-2,3,-1,-7,-1,-6
1522606490814442,-3,-8,-8,-3,-1,1,-3,4
1522606490830484,0,3,-1,1,0,-10,-4,2
1522606490830484,20,-4,-7,-3,-1,7,-2,-5
1522606490832490,-3,2,0,0,-3,-27,-6,4
1522606490832490,-19,-6,3,1,2,8,1,-12
1522606490853545,31,-1,-2,1,2,-1,-4,-2
1522606490853545,14,3,3,-4,2,48,14,6
1522606490854548,-16,4,-1,-3,-15,-82,-47,-4
1522606490854548,16,-5,-6,-8,-2,-34,-25,5
1522606490867583,-26,-1,1,3,3,5,15,-1
1522606490867583,6,-12,-2,-1,-6,7,-28,-3
1522606490874601,4,5,-3,-5,2,20,9,8
1522606490874601,16,-1,-4,1,-4,4,4,-5
1522606490890644,8,2,13,4,3,-24,-2,8
1522606490890644,-20,-1,-4,-3,-2,-5,8,-7
1522606490892650,17,-4,-2,-2,-2,29,12,8
1522606490892650,-11,-1,-3,-5,-4,-7,1,-4
1522606490913705,-10,1,-10,-17,-24,7,-21,-7
1522606490913705,-46,-29,6,19,35,-6,13,-1
1522606490914708,4,4,2,-2,-4,11,16,0
1522606490914708,10,-1,-3,-1,3,30,14,-3
1522606490927743,2,1,-1,-5,-5,-43,-32,-5
1522606490927743,18,11,-4,-4,-8,-22,1,3
1522606490934761,3,-7,-5,1,2,27,13,-2
1522606490934761,1,-8,5,5,8,17,29,4
1522606490950804,2,7,4,1,0,4,-13,-5
1522606490950804,19,6,0,-5,-9,-1,-1,2
1522606490952810,-18,7,-5,-4,-1,2,-1,-4
1522606490952810,-12,-33,-7,4,-3,-14,5,-1
1522606490973865,5,3,8,9,9,25,10,-3
1522606490973865,12,8,-4,-9,-4,0,-7,-4
1522606490974868,-6,-5,-7,-2,-1,5,-5,3
1522606490974868,19,21,7,-2,-5,0,-2,-2
1522606490987903,-15,-24,-3,2,-1,4,2,-2
1522606490987903,14,-13,3,3,0,-5,2,8
1522606490994921,1,28,2,-4,-7,-12,-11,-8
1522606490994921,-15,5,-9,-2,-1,-3,-14,-4
1522606491010964,7,-16,-9,-3,5,6,8,4
1522606491010964,38,31,8,4,-2,2,0,-15
1522606491012969,15,-3,0,1,3,-12,-5,1
1522606491012969,3,-6,3,2,0,-5,18,3
1522606491033022,20,24,1,0,-3,-22,-33,5
1522606491033022,-25,-6,-9,-4,-5,-7,-5,-4
1522606491035028,-4,7,1,1,3,13,-3,-2
1522606491035028,-23,-46,-8,-2,-2,-10,-29,-7
1522606491048063,-3,15,4,0,1,2,22,5
1522606491048063,-21,-9,-2,0,-4,-3,2,-1
1522606491054079,14,15,7,2,4,18,22,7
1522606491054079,-21,-9,-4,-2,-5,-18,-28,2
1522606491071124,6,12,-3,-4,0,26,9,0
1522606491071124,-9,-3,-3,-2,1,-24,-27,-4
1522606491072127,-10,5,2,-3,0,-4,2,-3
1522606491072127,4,9,0,-3,1,5,-6,2
1522606491093182,4,8,-1,0,6,4,10,-1
1522606491093182,-14,-6,2,8,-4,-22,-47,-3
1522606491095188,-32,-32,1,-3,-10,13,15,-5
1522606491095188,-14,9,-3,-2,-2,-10,-13,-9
1522606491107220,10,-4,2,1,-3,-24,-14,-4
1522606491107220,1,-1,-4,-9,-20,30,12,-2
1522606491116244,20,2,-3,2,45,-4,-7,2
1522606491116244,0,0,3,6,-1,-19,-32,6
1522606491131284,10,2,-8,-4,2,23,9,-9
1522606491131284,-20,-9,1,2,-7,-16,-4,4
1522606491132287,-3,-7,-3,-3,-14,-1,0,-3
1522606491132287,28,17,6,-6,3,11,-3,6
1522606491153342,-6,1,0,-3,-10,-22,16,5
1522606491153342,-1,0,-3,-3,7,28,12,-1
1522606491155348,10,-7,0,1,-2,-12,-42,-3
1522606491155348,-22,15,-1,-1,4,-6,43,-5
1522606491167380,-28,-44,-2,3,-2,1,-20,0
1522606491167380,4,6,0,-1,3,5,33,-5
1522606491176404,15,6,-5,-3,-7,2,-5,1
1522606491176404,-16,-18,0,1,-2,12,15,-2
1522606491190441,-6,-7,-5,-3,1,13,-4,1
1522606491190441,2,5,2,3,7,-7,4,0
1522606491192447,24,7,3,2,0,6,10,5
1522606491192447,-7,0,-3,-2,-4,15,7,-5
1522606491213502,14,3,3,4,3,1,23,8
1522606491213502,6,-11,-4,-5,4,13,-7,4
1522606491215508,-12,1,-4,0,-12,-33,-5,-6
1522606491215508,29,6,5,-2,-1,9,8,11
1522606491226537,-7,2,-4,-3,0,26,21,2
1522606491226537,5,17,3,1,1,-50,-21,-2
1522606491235561,-18,-32,-13,-6,-6,15,12,1
1522606491235561,10,8,8,2,1,7,5,7
1522606491250601,-12,2,8,1,-1,-25,-36,-4
1522606491250601,15,8,-3,-2,2,5,41,8
1522606491252607,-7,-3,1,-1,-1,0,-42,-2
1522606491252607,4,5,-5,-1,-1,-14,6,4
1522606491273662,-3,-6,-14,-1,-7,28,14,-5
1522606491273662,-2,-1,3,-3,-4,-77,-101,-6
1522606491274666,-13,4,9,2,1,28,50,3
1522606491274666,16,4,3,3,0,25,7,-1
1522606491286697,-6,2,-6,-3,3,26,17,-4
1522606491286697,0,3,-2,-3,-4,6,21,12
1522606491295721,22,-6,-10,0,6,21,14,3
1522606491295721,-25,-5,-3,-3,-9,-22,-20,-10
1522606491310761,-6,7,15,3,9,4,-2,-9
1522606491310761,13,-9,-7,1,1,5,17,4
1522606491312767,19,4,8,5,3,-9,18,1
1522606491312767,-14,1,-4,2,3,-51,-56,-8
1522606491333822,0,-15,-8,1,-6,-71,1,4
1522606491333822,-9,4,3,-1,5,38,22,6
1522606491334825,-15,-4,-4,-2,-7,-20,0,-12
1522606491334825,10,3,-4,-2,2,15,3,3
1522606491346857,2,4,-1,-2,-2,13,-5,2
1522606491346857,3,-1,3,1,-2,-7,0,10
1522606491355882,-19,-6,-3,-2,2,9,-8,-4
1522606491355882,23,3,0,0,-1,27,24,-1
1522606491370921,-13,-3,-9,-4,2,17,-11,6
1522606491370921,-5,3,10,-4,-3,22,22,-4
1522606491372927,4,5,-8,0,-2,-11,-21,-5
1522606491372927,-9,2,11,3,0,1,0,-1
1522606491392980,-16,1,-2,0,-4,-10,-3,-10
1522606491392980,23,2,-4,-3,-1,10,0,-1
1522606491394985,9,10,-2,-3,-2,-3,-7,-2
1522606491394985,-2,-13,1,1,2,3,4,12
1522606491407017,-5,2,-3,-4,1,3,2,4
1522606491407017,-9,4,-1,-2,-5,1,-4,-12
1522606491416041,30,-4,0,-3,-4,-12,-5,10
1522606491416041,9,1,-5,-2,-2,2,10,3
1522606491431081,-8,0,0,2,3,20,-8,-16
1522606491431081,-13,-7,1,2,2,23,8,-1
1522606491432084,-21,1,1,-3,-7,-55,10,-3
1522606491432084,-2,-12,-10,-4,-1,1,-16,0
1522606491453140,17,2,-4,-4,-1,6,10,4
1522606491453140,3,4,5,4,7,76,-6,-5
1522606491455145,-31,-13,5,12,0,-7,2,-8
1522606491455145,9,7,-1,-4,-3,12,30,2
1522606491467177,-11,-1,-6,-5,-7,-35,-18,-5
1522606491467177,38,-1,-4,-3,5,25,8,12
1522606491476201,-53,8,3,4,8,27,-1,-10
1522606491476201,8,-4,7,5,2,-3,4,-2
1522606491491241,-19,-18,7,4,3,3,-2,1
1522606491491241,22,6,-7,-2,-6,-30,5,16
1522606491492244,0,-5,-1,-8,-1,38,2,3
1522606491492244,-20,2,-23,-8,-6,-65,-25,-19
1522606491513300,10,5,17,12,0,8,11,1
1522606491513300,-17,-8,1,0,-6,-58,-41,-8
1522606491515305,28,0,-2,-2,-2,1,-27,4
1522606491515305,-2,-2,-3,-3,2,58,27,0
1522606491527337,10,6,-4,-5,-2,-46,-21,0
1522606491527337,-16,-6,-1,3,-5,2,30,-4
1522606491536361,-1,-3,-8,-10,1,11,-19,-4
1522606491536361,-9,-7,-1,3,1,-3,-17,-4
1522606491550398,12,13,16,1,-2,4,9,3
1522606491550398,-32,-7,-4,1,0,0,7,-13
1522606491552404,3,-4,-2,-1,0,-5,4,6
1522606491552404,-25,-4,-7,-1,4,15,7,4
1522606491573460,11,2,-6,-5,-3,19,9,-2
1522606491573460,26,-23,2,-1,-1,-12,-7,-7
1522606491575465,-26,-3,-1,8,-1,-3,3,-2
1522606491575465,-21,9,8,-1,-4,-3,-3,-3
1522606491587497,7,-10,-4,-3,-8,-32,-32,-4
1522606491587497,-16,-7,-12,-7,2,-12,1,-8
1522606491596522,38,10,1,1,1,-2,13,0
1522606491596522,22,-2,4,2,-2,-4,-11,3
1522606491610559,2,-5,-9,-5,0,-4,1,0
1522606491610559,-2,8,2,3,-1,16,0,3
1522606491612564,8,6,2,-2,-6,-37,-28,-2
1522606491612564,-12,-16,-1,0,3,-1,-8,2
1522606491633620,3,3,-1,-2,1,24,35,9
1522606491633620,18,24,-2,-2,-5,-43,-45,-5
1522606491634623,-33,-40,-2,-1,1,18,8,4
1522606491634623,6,-7,-2,-4,-3,-5,2,-4
1522606491646654,-7,-8,-5,-2,-1,-10,-19,-1
1522606491646654,-8,16,2,1,1,5,20,2
1522606491655679,10,9,1,-3,-1,3,-1,5
1522606491655679,23,3,-3,-1,0,21,2,3
1522606491669716,-51,-16,2,1,-2,-14,11,-10
1522606491669716,-12,5,0,-1,0,15,7,3
1522606491676735,18,11,-2,-3,0,6,4,-1
1522606491676735,3,-6,-6,-2,-7,-8,-3,-10
1522606491693780,24,24,5,-1,-1,-8,-33,0
1522606491693780,-21,-18,1,3,-2,14,29,-4
1522606491694783,-10,1,-2,-2,1,-2,10,1
1522606491694783,2,3,-2,-2,1,-6,-10,-2
1522606491706814,29,4,6,2,1,11,2,-1
1522606491706814,-24,-1,-8,-4,-9,-26,-12,0
1522606491715839,-32,-10,5,-1,-1,22,11,-7
1522606491715839,16,7,-1,-2,3,-1,11,5
1522606491729876,1,16,1,5,11,27,33,1
1522606491729876,6,-15,-2,-1,1,5,-15,1
1522606491736894,32,20,-1,-2,-5,-2,-25,-3
1522606491736894,3,-12,2,0,-4,2,5,2
1522606491752937,-35,-3,-2,-1,-4,-7,-6,-1
1522606491752937,7,3,-5,-3,2,9,-10,-5
1522606491754943,-19,-13,-1,-2,-5,-14,-3,-6
1522606491754943,0,7,-1,-4,-5,-22,-41,-8
1522606491775999,26,9,-1,2,6,24,36,4
1522606491775999,-17,-37,-2,-6,-5,-1,30,2
1522606491778004,12,15,-1,1,0,-1,0,-4
1522606491778004,8,6,4,0,1,4,-3,2
1522606491790036,0,-7,-5,-1,-2,17,19,3
1522606491790036,-11,11,6,0,0,-9,-19,-2
1522606491797055,17,-2,-2,-2,-3,-1,6,-1
1522606491797055,4,-3,1,2,-5,-12,28,1
1522606491813097,-7,-5,-6,-4,-4,-9,-21,-3
1522606491813097,12,-3,-6,-4,1,7,1,-5
1522606491819113,-8,-2,1,1,2,9,5,0
1522606491819113,-16,2,-2,0,2,6,-14,-5
1522606491836159,-4,-8,-3,-3,-3,-2,-20,1
1522606491836159,10,8,3,2,0,-10,7,-2
1522606491837161,2,-12,3,-2,1,12,6,3
1522606491837161,-42,-9,-3,-1,-3,-30,-1,-12
1522606491850196,5,-6,-4,-3,-2,-12,-14,1
1522606491850196,-8,5,-2,0,-1,13,-14,-4
1522606491857214,-1,-4,-3,-1,3,-2,10,3
1522606491857214,-1,-1,-6,-4,-8,-15,-18,2
1522606491873257,-7,-2,8,2,1,6,-2,0
1522606491873257,7,0,-3,2,0,-6,11,8
1522606491875263,1,9,1,1,-2,-4,-1,3
1522606491875263,-10,-8,1,2,5,26,7,9
1522606491896318,-6,-6,-6,2,0,-39,-18,-9
1522606491896318,-16,3,6,1,0,4,-4,-6
1522606491897321,37,-2,-4,0,1,1,-1,3
1522606491897321,-4,7,3,6,6,53,11,6
1522606491910356,2,-1,-3,-5,-8,-49,-42,-6
1522606491910356,10,4,-1,-3,0,10,11,1
1522606491917375,-17,-6,-5,-1,-1,-6,-9,6
1522606491917375,33,13,9,-1,0,14,8,3
1522606491933417,1,-2,2,5,1,15,23,2
1522606491933417,5,4,-2,-1,-1,-15,-27,7
1522606491935423,17,8,0,1,-1,-4,-3,-5
1522606491935423,-5,-8,-6,-2,-1,-6,-2,1
1522606491955476,-29,2,0,-4,-1,14,6,2
1522606491955476,1,-3,-5,-2,1,14,-7,-6
1522606491957481,-7,2,5,2,0,15,14,2
1522606491957481,32,1,3,1,1,-7,-1,-6
1522606491970515,-16,-6,-9,-3,-3,2,2,-2
1522606491970515,-15,3,1,-2,-1,-11,3,1
1522606491976532,-11,-6,-5,2,1,-6,-5,-14
1522606491976532,13,8,4,2,0,-10,5,8
1522606491993577,19,0,4,3,0,8,-1,2
1522606491993577,12,8,-1,-1,0,3,10,7
1522606491994580,-37,-20,-10,-6,-6,-10,-5,-11
1522606491994580,-9,2,-2,-4,-2,-8,-2,-3
1522606492015636,15,3,0,-1,-1,6,7,-1
1522606492015636,-1,-10,-2,1,2,0,2,-2
1522606492017641,0,9,-2,0,-2,-10,-1,1
1522606492017641,-1,-10,5,0,0,0,1,-1
1522606492029673,-21,-6,2,1,3,20,-1,-3
1522606492029673,13,7,0,-1,-7,-45,-10,-4
1522606492038697,29,5,-1,-2,0,-1,-2,2
1522606492038697,-56,-16,-12,-4,-4,36,-4,-22
1522606492053737,37,5,-5,-6,-4,-37,7,8
1522606492053737,-33,-17,-8,-6,-4,-46,8,-5
1522606492054740,-7,-2,7,6,0,11,-3,-7
1522606492054740,8,10,10,4,0,-21,-3,1
1522606492075796,8,1,-2,-2,-1,11,4,4
1522606492075796,-11,0,-7,-3,-1,21,1,-13
1522606492077801,-6,-12,-13,-8,-6,-21,10,5
1522606492077801,16,4,-4,-4,-2,-9,-7,2
1522606492089833,-30,0,-3,-4,-1,1,0,-12
1522606492089833,-14,-22,0,4,1,12,-2,0
1522606492098857,-1,8,18,9,1,-7,-1,5
1522606492098857,7,4,-8,-7,1,6,6,9
1522606492112894,16,-1,-2,0,-2,6,1,-6
1522606492112894,-11,-1,-2,-2,1,20,-5,4
1522606492114900,7,-2,-7,-3,-5,-26,16,1
1522606492114900,5,4,4,2,0,37,0,1
1522606492135956,-16,-1,2,-2,3,24,27,5
1522606492135956,25,11,2,1,-1,0,-7,6
1522606492137961,-5,-7,-1,0,5,41,-1,1
1522606492137961,-5,-2,-3,-1,-5,-51,-16,-13
1522606492149993,-5,-2,0,-3,-2,2,1,0
1522606492149993,9,7,6,3,5,33,-2,5
1522606492159017,12,9,0,-6,2,19,18,14
1522606492159017,-15,-16,-12,-1,-7,-45,-16,-13
1522606492173054,23,-3,3,0,-4,-38,-8,-11
1522606492173054,-19,-7,-3,-2,-3,-3,-4,0
1522606492175060,-11,8,-3,0,-1,-15,-15,1
1522606492175060,28,1,-6,-3,0,10,-9,-2
1522606492196116,-24,-9,2,3,0,-22,-2,5
1522606492196116,29,14,6,-2,-4,2,2,5
1522606492197118,-9,0,-7,-2,-3,-7,-1,-7
1522606492197118,7,-3,5,4,3,16,13,9
1522606492209150,-3,11,0,2,0,7,-9,-1
1522606492209150,21,-12,-6,-6,-5,-13,-6,-10
1522606492218175,5,7,4,3,0,-5,-16,-2
1522606492218175,-13,-4,2,-1,-3,1,7,2
1522606492233214,3,4,-8,-3,1,16,6,0
1522606492233214,-16,-8,1,0,-3,-34,-29,-8
1522606492235220,23,2,5,-3,1,12,4,0
1522606492235220,-4,-2,-8,-2,-1,0,5,0
1522606492256276,-20,2,4,0,0,7,-3,-7
1522606492256276,7,17,0,3,6,20,9,3
1522606492257278,16,-12,0,-1,-3,-6,-10,7
1522606492257278,3,10,5,-1,0,-13,-1,1
1522606492269310,-2,-15,-6,-2,-4,-23,-6,8
1522606492269310,-6,2,2,1,4,12,-2,-13
1522606492278334,8,-4,1,-2,-1,-13,-3,10
1522606492278334,-22,-1,-5,-5,1,14,-4,-12
1522606492293374,11,-22,-3,0,2,34,27,4
1522606492293374,-14,-5,0,-1,-3,-20,-19,2
1522606492295380,13,11,-1,-5,-3,-1,-3,0
1522606492295380,-31,-16,-4,3,4,10,2,-6
1522606492315433,18,8,1,-4,-7,-29,-57,-10
1522606492315433,-13,14,1,2,10,58,42,6
1522606492317439,-18,-24,-7,-3,-7,-15,2,-11
1522606492317439,3,-7,0,-2,0,8,15,4
1522606492329470,2,0,-3,-4,-4,0,0,1
1522606492329470,-4,-3,-5,-1,-3,4,20,0
1522606492338495,49,22,6,0,0,-1,21,10
1522606492338495,-16,4,1,0,-1,-1,-29,-3
1522606492353534,2,-1,-2,-2,2,24,27,2
1522606492353534,32,-5,0,-2,-5,3,-5,-6
1522606492354537,-40,-2,-5,2,4,-6,21,-8
1522606492354537,17,0,-2,-1,-6,14,44,13
1522606492375593,-26,16,1,-1,6,6,21,-3
1522606492375593,-13,-4,1,-2,-2,-9,17,-8
1522606492377598,-17,-10,-3,-2,-6,-19,-54,-19
1522606492377598,6,17,6,0,3,25,10,-3
1522606492389630,-1,-13,-3,-1,-6,-33,-62,-4
1522606492389630,1,-5,-3,-2,-6,-23,-2,10
1522606492398655,-6,-5,-8,-4,1,17,10,-6
1522606492398655,-5,6,2,2,1,-15,26,2
1522606492413694,26,10,4,0,1,5,1,-4
1522606492413694,-6,-4,1,2,1,-10,-40,1
1522606492414697,-14,-12,1,-3,-2,-2,4,2
1522606492414697,-13,3,-6,-1,2,1,13,-2
1522606492435753,5,-4,3,0,-3,-7,-20,4
1522606492435753,15,5,-1,-1,1,11,18,-1
1522606492437759,34,6,0,0,0,12,2,-2
1522606492437759,-51,-14,-2,-2,-4,-8,-14,-3
1522606492449790,2,-3,-5,-1,0,7,18,4
1522606492449790,-6,-1,-1,1,-1,-18,-38,-5
1522606492458815,-4,0,0,1,1,-16,1,4
1522606492458815,20,8,1,-1,-4,-37,-32,-2
1522606492473854,-22,-8,0,-1,1,8,-12,-13
1522606492473854,-1,-4,-4,-3,-4,24,30,1
1522606492474857,-17,-3,-1,-1,1,5,-31,-2
1522606492474857,16,0,-2,1,2,4,35,5
1522606492495913,1,5,-1,1,2,-5,0,8
1522606492495913,13,-3,-2,-2,0,-5,-13,5
1522606492497918,-14,-1,-2,0,1,24,-6,-3
1522606492497918,3,4,2,-1,-5,-26,-22,-12
1522606492509950,15,10,3,1,-1,-2,-9,-1
1522606492509950,0,-7,0,2,4,-20,3,-7
1522606492518975,-18,-8,-5,5,4,27,17,-6
1522606492518975,11,-4,4,-1,3,3,6,4
1522606492533012,7,6,0,-1,-4,-26,-24,8
1522606492533012,2,3,-4,-2,-3,-4,-15,4
1522606492535017,-12,1,3,-2,-4,5,17,-1
1522606492535017,15,-12,-5,-3,-6,-6,15,2
1522606492556073,10,5,1,3,3,14,18,6
1522606492556073,-35,1,5,-1,0,5,5,2
1522606492557076,-11,0,-4,-4,-3,-6,-17,-9
1522606492557076,-10,-10,-3,-4,-1,1,-20,-8
1522606492569108,24,-2,-2,0,0,1,10,6
1522606492569108,2,-1,1,2,0,4,10,-5
1522606492578132,5,8,1,-2,-2,-6,7,2
1522606492578132,22,3,0,2,0,-21,-17,4
1522606492593172,-26,-3,5,-1,-3,0,16,4
1522606492593172,7,2,1,0,1,-6,0,-9
1522606492595177,5,-1,0,-2,-4,-4,-1,3
1522606492595177,24,5,-2,-2,0,11,-9,5
1522606492616233,-27,-12,-3,0,2,7,11,-1
1522606492616233,7,7,0,0,-1,3,11,7
1522606492617236,-18,-2,-2,-4,0,3,-4,-8
1522606492617236,-19,-5,-2,-2,-5,-45,-11,5
1522606492629268,5,8,-2,-2,-2,5,6,-8
1522606492629268,-3,-11,-5,-1,-1,2,0,-1
1522606492638292,4,8,1,1,2,-7,-8,-1
1522606492638292,-18,-1,2,0,3,11,-23,-4
1522606492652329,2,-2,-5,-3,-2,-9,-3,-4
1522606492652329,18,1,-2,-3,-3,-7,-2,-8
1522606492659347,-3,-10,-2,-3,0,3,-3,-8
1522606492659347,-5,-7,-8,-2,-3,12,4,2
1522606492676393,9,-6,2,1,-1,-4,-2,-1
1522606492676393,-23,2,4,2,0,19,-2,-4
1522606492677396,20,3,3,-1,-8,-81,-6,6
1522606492677396,-10,7,0,1,0,15,10,5
1522606492698452,10,-9,-11,-3,-2,5,-15,-8
1522606492698452,2,1,0,0,1,-27,22,2
1522606492700457,-29,-14,-2,-5,-2,7,7,-6
1522606492700457,3,4,-5,-2,2,5,-4,7
1522606492712489,6,4,8,8,1,-12,-4,-2
1522606492712489,-5,-7,-5,-2,0,-14,2,3
1522606492719507,13,-1,2,0,1,-2,-24,5
1522606492719507,-9,8,2,0,0,7,16,-7
1522606492735550,13,-7,-9,-6,0,11,12,3
1522606492735550,2,0,-6,-2,0,1,1,-4
1522606492737556,-7,9,7,0,-1,13,12,4
1522606492737556,29,-1,3,-1,-2,-10,-9,2
1522606492758612,4,5,5,1,1,5,-3,1
1522606492758612,16,5,-3,-1,-1,19,2,4
1522606492759615,-16,-12,-8,0,1,10,-9,-4
1522606492759615,10,1,2,-2,0,6,-34,-11
1522606492772649,-40,3,-1,-1,-3,6,8,2
1522606492772649,-4,-7,0,-3,-2,4,-6,0
1522606492779667,26,11,0,2,2,2,2,2
1522606492779667,-18,7,-2,0,-1,9,-1,-4
1522606492795711,-11,-12,0,-3,1,-4,1,-3
1522606492795711,-19,2,1,-3,-1,14,2,0
1522606492797716,-8,-13,-3,1,-1,7,19,6
1522606492797716,2,2,-3,-1,-2,1,9,2
1522606492818772,19,0,-5,-3,-4,-9,-8,-7
1522606492818772,-10,-1,0,-1,-1,5,2,-1
1522606492820777,-24,-2,-2,-2,-1,0,3,-5
1522606492820777,-12,-8,-5,2,0,-6,13,-1
1522606492832809,32,0,-2,-3,-2,25,3,2
1522606492832809,-35,-9,-1,-1,-6,-57,-23,-10
1522606492839827,32,3,-1,0,0,-6,-14,4
1522606492839827,-38,-5,-1,0,1,12,29,-6
1522606492855870,-4,3,1,-1,-4,-10,-14,2
1522606492855870,-27,1,2,2,2,12,9,3
1522606492857876,13,-2,-3,-2,-4,-6,-6,-3
1522606492857876,-19,-3,2,-1,1,7,2,5
1522606492878932,16,4,0,-1,1,-5,-17,-6
1522606492878932,20,5,3,0,0,5,18,12
1522606492879935,-25,-2,-5,-1,-2,3,0,-8
1522606492879935,1,-17,-4,0,-1,9,-17,-7
1522606492892969,-1,6,0,0,-1,-22,-5,0
1522606492892969,28,-1,1,-2,-2,20,25,0
1522606492899987,2,14,4,-2,-3,-8,-20,0
1522606492899987,-2,3,0,-3,-1,10,15,0
1522606492916032,-10,-3,-3,-2,-1,-9,30,2
1522606492916032,22,1,3,0,3,8,-18,1
1522606492917033,-26,-2,2,-1,-3,-8,8,-2
1522606492917033,28,7,-3,-2,0,-2,13,5
1522606492938089,-26,-10,2,1,0,-2,-28,-8
1522606492938089,-2,4,-3,-2,-2,-13,-29,-3
1522606492940094,8,-2,-2,-1,-1,15,28,4
1522606492940094,-6,-5,-3,0,1,-6,-21,-4
1522606492953129,16,6,-3,-3,-3,-3,8,3
1522606492953129,-14,2,2,2,-2,-44,-79,-8
1522606492959145,-8,-8,1,3,-1,-7,8,-11
1522606492959145,16,16,-2,-2,0,7,59,9
1522606492976190,-32,-30,-8,-4,-5,-3,-8,-11
1522606492976190,36,1,-3,-2,-3,16,38,-3
1522606492977193,8,6,-3,-3,1,0,-41,0
1522606492977193,-21,-7,2,0,-6,-59,-54,-9
1522606492998249,-40,5,0,-2,-1,14,19,-12
1522606492998249,38,-4,-1,0,-3,0,9,3
1522606493000254,-11,6,-4,-3,-2,7,-6,-1
1522606493000254,15,-15,2,1,1,18,11,0
1522606493012286,15,0,2,1,0,-16,-18,7
1522606493012286,-21,-3,-5,-1,-2,4,6,-2
1522606493021310,31,9,2,2,4,18,43,7
1522606493021310,-22,0,-5,-1,0,0,-45,-2
1522606493036351,-7,-10,4,-1,0,4,4,1
1522606493036351,-16,-1,-3,-4,-3,0,14,-7
1522606493037354,-10,-18,-7,-1,0,-3,4,-8
1522606493037354,25,7,7,-2,-2,6,-3,4
1522606493058409,3,0,-6,-2,-2,-17,-25,-3
1522606493058409,-8,-1,0,1,-1,11,10,10
1522606493060414,2,-3,0,-2,-3,-31,-10,-5
1522606493060414,5,3,-3,0,0,-2,-4,1
1522606493072446,7,-1,-2,1,2,19,26,-3
1522606493072446,9,9,2,0,0,-7,-23,4
1522606493081470,-36,-13,-6,-1,-1,-3,-5,0
1522606493081470,20,1,-2,-4,-4,4,4,5
1522606493095508,30,2,2,-1,1,3,35,9
1522606493095508,3,-5,-4,-1,1,8,-11,3
1522606493097513,-36,-3,-1,-3,-2,9,14,-2
1522606493097513,-7,-3,-2,-3,-1,-2,-5,-11
1522606493118569,20,9,1,1,0,8,-7,7
1522606493118569,-2,-1,0,-2,-2,-9,0,-5
1522606493119572,19,5,6,0,1,13,-1,7
1522606493119572,-12,-13,-8,1,0,-2,-4,1
1522606493131604,-7,1,0,3,1,1,0,-19
1522606493131604,3,6,0,2,3,5,3,-5
1522606493140627,24,11,7,-1,-2,-6,-9,4
1522606493140627,-21,-10,2,-3,-1,-7,7,-5
1522606493163689,12,8,-3,1,0,4,-2,2
1522606493163689,-1,-8,-3,-2,0,2,5,0
1522606493164692,-14,0,-1,2,1,8,-5,-8
1522606493164692,4,-12,-2,-1,-2,-1,3,0
1522606493178729,-23,4,0,-2,2,15,-4,11
1522606493178729,-4,-8,-2,-2,-4,-8,-2,3
1522606493179732,22,6,2,2,-1,-4,-2,11
1522606493179732,15,6,3,0,0,1,1,-5
1522606493191764,9,4,-2,-2,-1,-1,0,11
1522606493191764,-65,-10,-4,0,-1,-4,7,-22
1522606493200788,31,4,-3,0,-1,-2,-16,4
1522606493200788,-17,-8,-3,2,1,5,0,-3
1522606493215828,7,-2,1,-2,-2,-10,-4,-7
1522606493215828,12,7,2,0,0,7,1,9
1522606493217833,-6,-7,-6,0,0,-5,13,-5
1522606493217833,-1,7,2,-2,-3,-5,16,0
1522606493237886,-13,-4,-1,2,0,20,2,-6
1522606493237886,4,-7,-3,-1,7,42,-8,0
1522606493239892,-22,-2,0,-3,-2,11,12,-3
1522606493239892,17,10,-1,-1,-1,-3,-1,21
1522606493251924,-22,-8,-1,2,2,20,-1,-19
1522606493251924,1,1,1,1,-1,-5,11,2
1522606493260948,2,-6,2,-1,2,11,-11,1
1522606493260948,21,5,-5,1,-2,-10,-1,7
1522606493275988,4,5,1,-2,-2,0,6,-3
1522606493275988,-32,-4,-4,-1,-2,24,-30,-2
1522606493277993,7,-3,-5,-2,-2,-16,1,-1
1522606493277993,0,-6,5,0,-1,-1,-4,-16
1522606493298046,0,5,1,0,-3,-17,2,1
1522606493298046,22,4,1,3,-1,0,7,8
1522606493300052,20,3,-1,-2,-1,-10,4,19
1522606493300052,8,-1,-2,-1,1,9,3,-12
1522606493312084,-85,-9,-2,1,-4,-8,-2,-9
1522606493312084,16,1,2,0,1,-19,6,-2
1522606493321108,17,2,-4,2,0,2,-11,4
1522606493321108,19,7,9,3,3,7,4,-1
1522606493336148,18,5,-1,-3,-3,-16,-3,9
1522606493336148,23,2,-1,-3,-1,-26,0,3
1522606493337150,-19,-8,-7,-4,-3,5,-3,-7
1522606493337150,-24,-1,-9,-6,-3,4,8,-7
1522606493358206,-4,-7,-1,-3,0,-13,-5,3
1522606493358206,-10,-1,4,4,-2,0,-1,-4
1522606493360212,27,8,3,1,0,3,-7,1
1522606493360212,1,-2,-1,-2,-1,-22,-2,-5
1522606493372244,8,-1,-4,-4,-2,-22,-33,-1
1522606493372244,4,-3,-5,-4,-1,1,6,-2
1522606493381268,-31,-2,3,-1,-1,-20,1,-4
1522606493381268,9,-3,-1,1,-1,6,-2,6
1522606493396308,9,-3,-4,-1,-5,-35,-2,1
1522606493396308,-26,-9,-3,-6,-3,-10,-22,-11
1522606493397310,8,-5,-2,6,0,-3,-8,-13
1522606493397310,-20,-1,-3,-1,-1,1,-17,2
1522606493418366,28,6,7,0,2,4,-1,3
1522606493418366,20,-1,-5,0,-1,-4,7,7
1522606493420372,-33,-3,0,-3,-11,-3,6,-3
1522606493420372,-3,11,0,-1,8,-3,-29,-6
1522606493432404,15,-7,-3,1,6,22,18,2
1522606493432404,3,-2,0,-2,-3,3,-2,-2
1522606493441427,-19,-3,0,0,0,8,11,8
1522606493441427,25,5,2,1,-5,3,7,8
1522606493455465,-4,6,1,-1,-3,-5,-6,3
1522606493455465,16,6,1,0,0,3,-4,-3
1522606493457470,-8,-9,-4,-1,-1,-11,-26,-3
1522606493457470,-51,-7,-1,-1,-2,-5,-13,-25
1522606493478526,-4,-7,-2,0,1,15,8,4
1522606493478526,19,-3,-4,-2,-4,-9,-2,-4
1522606493479529,-12,-1,0,-2,1,9,8,-5
1522606493479529,1,-8,-4,-1,1,12,24,10
1522606493491561,9,-2,-4,-1,-4,4,-10,-11
1522606493491561,-16,8,4,2,-2,-17,4,0
1522606493500585,-41,-10,-6,-4,-4,-7,-9,-11
1522606493500585,6,-4,2,1,2,6,8,4
1522606493515625,5,-4,-5,-4,-4,8,-6,1
1522606493515625,-4,3,1,1,2,6,7,3
1522606493517630,11,6,2,-1,0,12,5,-3
1522606493517630,0,0,1,-1,-4,-14,-21,2
1522606493538687,29,-1,0,1,1,-9,7,6
1522606493538687,-20,-5,-4,-3,-3,7,6,-3
1522606493539689,6,9,0,-2,1,-3,3,2
1522606493539689,-23,-2,-4,-1,-2,5,3,-7
1522606493551721,-3,-9,-2,-1,1,1,16,-1
1522606493551721,9,1,-1,-5,-6,-36,-63,-2
1522606493560745,17,-5,1,1,2,6,11,6
1522606493560745,23,13,3,-1,-1,-1,3,7
1522606493574782,-13,-1,-3,0,-1,1,-11,-2
1522606493574782,-35,-14,-4,-1,-1,13,32,-9
1522606493581801,1,4,0,-1,0,-16,-8,-4
1522606493581801,11,8,1,0,0,1,5,2
1522606493598846,2,6,0,-1,-1,-26,-1,4
1522606493598846,1,-1,2,-1,0,10,-4,2
1522606493599849,3,2,-2,-3,-3,4,0,-4
1522606493599849,-7,-9,-2,-2,-3,-4,2,-1
1522606493611881,-21,-10,-5,-3,-2,13,6,-6
1522606493611881,17,3,0,-1,2,4,-6,0
1522606493620905,-18,-1,1,0,-2,1,9,-3
1522606493620905,8,-4,-3,-2,-2,-11,6,-2
1522606493634942,25,10,3,-2,-4,-18,-42,2
1522606493634942,-15,-8,-1,0,-3,38,-29,-7
1522606493641961,26,7,0,-5,-4,-44,44,4
1522606493641961,-11,-8,-1,1,2,8,-2,-4
1522606493658004,-3,-21,0,0,-2,6,20,-2
1522606493658004,-12,9,-3,-1,1,13,18,2
1522606493660009,2,-7,0,0,-4,16,-34,-8
1522606493660009,2,3,-1,-2,-1,-19,-35,-7
1522606493681065,-1,9,0,-2,2,-3,0,1
1522606493681065,6,-5,-4,-2,-5,-27,11,4
1522606493682067,2,0,0,-2,-1,8,5,3
1522606493682067,-13,-1,-1,2,2,9,22,4
1522606493695102,-2,-5,1,3,1,-4,-24,-5
1522606493695102,1,-5,-1,-2,0,21,4,5
1522606493702121,-12,1,-1,1,-2,-25,25,4
1522606493702121,13,-6,-3,-1,-1,16,16,7
1522606493718163,-9,5,0,-1,2,30,12,-4
1522606493718163,23,-1,0,0,1,-10,12,-2
1522606493720169,31,-2,-2,-3,0,-6,-39,5
1522606493720169,-36,-6,-1,-1,-2,0,-9,-13
1522606493741225,-37,-6,-5,-2,-3,2,6,-12
1522606493741225,5,0,-2,-1,2,-14,-12,-1
1522606493742228,13,-2,0,-1,0,-13,21,7
1522606493742228,22,2,-1,-2,-5,-8,-9,1
1522606493755262,-12,4,0,1,-1,-6,-5,3
1522606493755262,-4,-1,0,-1,2,27,36,4
1522606493762281,14,-5,-2,0,0,-1,-7,6
1522606493762281,-15,-5,-3,-3,-3,-1,2,0
1522606493778323,3,2,1,0,2,-4,5,12
1522606493778323,0,5,-1,-2,-3,-4,-3,-2
1522606493780329,-2,5,3,4,3,15,-5,-4
1522606493780329,23,3,1,-1,5,10,0,-1
1522606493801385,1,-3,-1,-1,-4,6,2,-4
1522606493801385,-11,-5,-2,-3,0,-6,-7,-3
1522606493802388,-9,-2,0,2,-1,12,4,1
1522606493802388,16,1,0,1,0,-10,1,9
1522606493815422,-16,0,-1,-1,2,-1,0,-9
1522606493815422,4,2,2,2,-2,-36,9,7
1522606493822441,-10,-7,-3,2,2,7,-12,-4
1522606493822441,13,11,2,0,1,9,0,0
1522606493838484,-37,-28,-7,-1,-3,-4,9,-14
1522606493838484,-1,1,0,3,0,-2,-13,-4
1522606493840489,4,5,-1,-3,-2,7,-8,-3
1522606493840489,0,0,2,0,-3,-13,0,4
1522606493860542,27,12,2,1,1,10,3,10
1522606493860542,-2,-2,2,1,-2,-5,0,-3
1522606493862548,-18,-6,-3,-2,0,3,-3,-6
1522606493862548,4,0,1,1,0,2,5,2
1522606493875582,4,0,-1,-2,0,-4,0,4
1522606493875582,-12,-3,-2,-1,-1,-2,-1,-7
1522606493881598,6,4,1,-2,0,4,2,3
1522606493881598,-2,-6,-4,-1,-1,-4,-8,-2
1522606493898643,14,1,0,0,4,43,1,-6
1522606493898643,3,6,6,0,-1,-2,3,12
1522606493899646,-6,-14,0,3,0,7,-2,-9
1522606493899646,-24,-7,-6,-4,-5,-8,-5,-7
1522606493920702,8,6,-1,-1,-3,0,2,6
1522606493920702,5,-3,0,0,2,10,4,-3
1522606493922708,14,10,5,0,0,1,-4,1
1522606493922708,-1,-1,-1,1,-2,1,2,2
1522606493934740,-9,-6,-9,-1,-1,-11,-1,2
1522606493934740,0,2,-2,-2,-2,-4,-3,-13
1522606493943764,0,7,-2,-2,0,-7,-2,0
1522606493943764,3,-11,2,-2,-3,-2,-1,-1
1522606493958804,16,9,8,5,-1,-10,-3,6
1522606493958804,7,6,3,-1,0,-4,0,7
1522606493959806,-13,-15,-7,-4,-1,5,-1,2
1522606493959806,6,2,-7,-4,-3,0,-1,-9
1522606493980862,-29,-10,-9,1,-1,-12,1,0
1522606493980862,-15,-8,2,-1,-1,-3,-2,-10
1522606493982868,12,0,0,-3,-2,3,-1,-3
1522606493982868,13,0,-5,-7,-3,-11,-1,9
1522606493995902,14,3,3,4,6,7,-5,-2
1522606493995902,1,0,-1,2,-4,-30,4,3
1522606494003923,0,-2,5,3,1,26,4,-4
1522606494003923,-7,-1,0,1,1,-32,-10,-6
1522606494017961,9,11,0,-11,2,12,1,1
1522606494017961,5,-7,-8,-4,-14,11,9,-5
1522606494019966,-41,-10,-6,-1,10,-7,-22,-17
1522606494019966,13,5,-8,0,0,17,-1,5
1522606494041022,-19,-10,4,9,2,-1,0,-10
1522606494041022,-12,3,5,-4,3,-3,0,-2
1522606494042025,8,9,7,1,-5,-1,4,1
1522606494042025,-22,-4,-2,2,-2,7,5,-3
1522606494054057,27,5,-8,-13,-7,-23,-7,-1
1522606494054057,-16,-26,-14,3,2,4,-3,-4
1522606494064083,-3,5,6,3,-2,-10,2,-15
1522606494064083,17,2,-1,-13,-12,1,-5,-8
1522606494078121,-29,5,7,36,16,2,8,3
1522606494078121,18,-3,-4,-4,1,0,-5,4
1522606494080126,20,-1,-5,0,-2,-1,-2,8
1522606494080126,-62,-1,0,-4,2,-3,2,-4
1522606494101182,49,3,4,-12,-9,-3,-2,-2
1522606494101182,-45,-3,-4,2,1,0,-4,-25
1522606494102185,15,-4,-2,-3,-3,-8,2,10
1522606494102185,20,6,6,5,10,4,3,12
1522606494114217,16,-1,-4,-8,-21,-7,-1,3
1522606494114217,-11,4,2,-3,-22,-2,-6,3
1522606494123241,-15,1,-7,-6,22,-6,0,-3
1522606494123241,-36,-9,-3,9,15,8,-1,-5
1522606494138281,-4,4,6,8,19,3,1,1
1522606494138281,22,-2,2,8,11,4,2,10
1522606494140286,-9,-1,-4,-8,-21,-3,-3,-2
1522606494140286,14,0,-3,-3,-6,3,5,-1
1522606494161342,-26,-3,-1,-10,-7,-32,-13,-1
1522606494161342,4,4,-1,-1,11,12,6,7
1522606494162345,5,2,0,2,-26,-10,-1,-3
1522606494162345,8,8,4,-4,-60,-13,-6,-5
1522606494174377,3,-7,-4,-17,21,-1,-11,-2
1522606494174377,-22,3,1,11,38,-3,31,1
1522606494183401,-22,-5,-7,13,43,28,9,-13
1522606494183401,12,-1,1,2,-7,3,10,2
1522606494198441,-28,10,-3,-14,-38,-8,-20,-11
1522606494198441,55,12,4,3,-11,-2,-6,8
1522606494200446,-3,9,0,-2,-6,-6,9,6
1522606494200446,-18,-9,-1,-2,17,13,9,-2
1522606494220499,43,13,3,-1,17,0,-1,3
1522606494220499,-17,-4,-4,-2,-4,-1,-12,0
1522606494222505,19,0,1,2,0,-5,-8,9
1522606494222505,19,3,1,4,6,4,40,12
1522606494234537,-30,-11,-5,-2,-9,4,-11,-9
1522606494234537,-1,-3,-2,-4,-6,1,-15,0
1522606494243561,-18,6,-1,-2,-7,4,21,-1
1522606494243561,-11,-27,-4,-3,0,-6,-29,-4
1522606494258601,24,-1,-2,2,-6,-2,26,4
1522606494258601,-7,5,-2,-3,4,27,8,-1
1522606494259604,7,-1,0,-4,-1,-9,-30,-1
1522606494259604,5,-4,0,-1,10,-12,-7,-3
1522606494280659,-22,-18,-5,1,-7,-2,-5,-2
1522606494280659,27,12,-1,-7,-26,-6,6,4
1522606494282665,5,7,5,4,27,7,-7,8
1522606494282665,-19,-6,0,4,-12,-12,28,0
1522606494294697,20,10,0,1,17,26,-24,5
1522606494294697,-12,-2,-4,-8,-17,-15,9,0
1522606494303721,-3,-8,0,-2,-5,19,49,2
1522606494303721,26,12,1,-2,-13,-54,-51,0
1522606494318761,4,8,2,3,18,5,-15,0
1522606494318761,-76,-19,-5,-3,3,1,8,-12
1522606494319764,29,-7,-1,-5,-8,8,-19,5
1522606494319764,10,13,-1,0,4,16,44,7
1522606494340819,0,3,0,-3,-13,-8,18,5
1522606494340819,-10,-25,0,2,22,10,4,-11
1522606494342825,40,3,-1,-1,-8,-6,-22,5
1522606494342825,-45,13,2,-1,1,13,-20,-5
1522606494354857,22,-18,-4,2,-3,12,6,-15
1522606494354857,-54,-5,-4,-2,-5,-2,20,3
1522606494363881,-10,-3,-5,3,-5,-11,-15,-10
1522606494363881,17,-3,0,2,11,37,17,-1
1522606494378921,4,3,0,3,-4,-32,-12,1
1522606494378921,44,8,1,-1,1,2,-18,5
1522606494379924,-5,-7,-5,-6,-14,-10,12,-6
1522606494379924,0,6,-1,1,13,24,-8,-2
1522606494400979,-32,-10,-4,-4,-7,-22,5,-3
1522606494400979,26,-1,-3,-3,-6,-4,-14,-2
1522606494402985,-17,-1,-1,-3,-21,-17,-4,0
1522606494402985,18,1,1,3,39,12,-6,5
1522606494415017,-22,-5,0,-3,-7,6,11,14
1522606494415017,20,7,1,-5,-9,-21,-14,-3
1522606494424041,-11,3,-2,0,-1,20,3,-4
1522606494424041,-12,-13,-4,1,8,-1,-12,-4
1522606494438078,1,1,1,1,-5,2,10,1
1522606494438078,14,10,1,1,8,3,-8,-9
1522606494440084,-11,-8,-3,-3,-26,-11,-4,-5
1522606494440084,27,12,1,-5,-22,-15,-3,4
1522606494462142,-80,-16,-2,1,7,5,-3,-26
1522606494462142,9,9,0,-4,-40,7,-6,4
1522606494464148,73,13,2,0,-80,1,-2,12
1522606494464148,-66,-15,1,9,80,43,6,-11
1522606494474174,-19,-10,-5,-6,-19,-42,-1,0
1522606494474174,2,-6,-2,0,-2,3,-9,-17
1522606494483198,23,2,-1,-4,-26,-12,-5,12
1522606494483198,13,3,-4,-5,5,12,-4,1
1522606494498238,27,10,4,3,5,21,7,1
1522606494498238,-2,-8,2,2,3,-17,-6,12
1522606494500243,-49,-9,-5,-2,31,-3,10,-17
1522606494500243,17,5,-3,-7,-42,-29,-9,4
1522606494521299,-12,-4,0,0,12,3,1,0
1522606494521299,4,-3,-4,0,2,-5,-4,4
1522606494522302,-22,-8,3,0,7,-7,-1,-7
1522606494522302,8,5,-1,-1,16,15,-1,8
1522606494534334,35,-10,-5,-4,-40,-6,12,2
1522606494534334,-34,2,0,-1,-26,4,-12,-6
1522606494543358,-35,-7,-6,3,68,14,12,-17
1522606494543358,3,-5,0,-1,-19,-16,9,-5
1522606494557395,28,26,1,-3,-22,11,-6,26
1522606494557395,10,-3,-1,-1,-3,-19,-10,-28
1522606494564414,-20,-11,1,-1,21,24,-1,7
1522606494564414,8,-4,-5,-6,-73,-28,-4,3
1522606494580456,12,6,-5,4,42,2,-3,-5
1522606494580456,-8,2,8,3,23,25,14,4
1522606494582462,1,9,4,3,7,-5,-8,5
1522606494582462,22,-13,1,3,0,-8,-3,-1
1522606494603518,9,11,-1,-3,-21,-7,5,16
1522606494603518,-27,-13,-16,-6,13,1,-6,-7
1522606494604521,28,14,12,8,-7,-5,7,17
1522606494604521,-12,-8,4,-4,-41,-7,-7,-9
1522606494617555,-9,0,3,6,90,10,3,3
1522606494617555,52,7,-6,-5,-14,-3,8,14
1522606494624574,-14,1,-9,-2,17,13,-8,-6
1522606494624574,-7,-16,-5,-3,-41,-68,-40,-29
1522606494640616,-4,8,4,2,-12,2,-15,6
1522606494640616,4,3,7,-3,6,4,16,0
1522606494642622,13,-12,-14,-7,-7,-19,-5,1
1522606494642622,-15,8,2,-1,0,32,6,0
1522606494663678,37,-5,-1,-7,-25,22,3,-10
1522606494663678,-30,-1,1,4,24,-77,-5,9
1522606494664681,1,4,4,-1,-24,8,3,-18
1522606494664681,-8,1,-3,4,68,27,2,-4
1522606494677715,-7,2,-5,-6,-14,-4,3,-3
1522606494677715,14,-10,7,0,-25,15,1,19
1522606494684734,-5,-4,-4,2,13,-6,-3,-4
1522606494684734,42,17,7,-4,-20,-14,14,23
1522606494700776,-81,-31,-5,0,-10,47,5,-11
1522606494700776,-8,-1,-19,-10,-63,24,-50,-26
1522606494702782,-1,15,4,-7,67,-17,-10,-1
1522606494702782,0,-13,4,8,-57,-11,1,7
1522606494723838,-9,-2,-4,0,111,57,-1,-7
1522606494723838,-12,-21,-2,-3,1,7,5,2
1522606494724841,11,-4,-5,-3,-39,3,-2,-12
1522606494724841,-21,25,7,-3,-16,-20,-4,3
1522606494737875,28,4,1,4,-6,-15,4,4
1522606494737875,-21,-9,-7,-5,-5,-4,6,-5
1522606494744894,48,21,13,1,-6,-16,-7,14
1522606494744894,-37,-21,-10,2,24,9,6,-8
1522606494760936,-2,-13,6,3,-46,-25,-2,-7
1522606494760936,26,12,0,13,38,6,3,7
1522606494762942,-30,13,-4,-16,-21,6,10,6
1522606494762942,-18,-30,7,-6,10,8,-8,-10
1522606494782995,11,22,13,13,-120,-102,-4,-3
1522606494782995,-18,5,1,16,105,89,16,6
1522606494785001,-16,-21,-5,-2,-22,7,0,-3
1522606494785001,12,-20,-15,0,-17,9,-9,-2
1522606494798035,26,14,-5,-19,-14,-47,-11,3
1522606494798035,24,10,16,8,-49,-29,-9,9
1522606494804051,-85,-25,-17,-4,22,-2,-8,-19
1522606494804051,28,2,0,2,34,25,6,7
1522606494821096,-6,6,1,-2,-7,-25,-27,-4
1522606494821096,19,0,-4,-4,-9,-7,-1,2
1522606494822100,19,13,11,-2,58,29,12,5
1522606494822100,-1,19,2,3,-1,-4,6,5
1522606494843155,22,24,-2,1,8,15,29,4
1522606494843155,42,2,6,-5,4,-1,4,5
1522606494845160,-80,-26,-4,-8,-60,-32,-20,-10
1522606494845160,-39,0,-12,-1,18,0,3,-6
1522606494858195,7,5,-6,-6,-12,7,1,-1
1522606494858195,28,27,16,-11,-10,-6,9,4
1522606494864211,21,-1,6,25,24,17,-3,4
1522606494864211,2,-16,-5,-4,26,-3,9,-2
1522606494881256,-18,-31,-22,-2,-2,23,-2,-4
1522606494881256,-27,3,18,1,-22,-12,-13,-13
1522606494882259,31,4,1,-3,-37,-35,1,1
1522606494882259,30,23,5,0,53,14,-1,-1
1522606494903315,-36,-31,-9,-4,11,16,-10,-6
1522606494903315,-40,-12,-12,-3,-15,-18,17,-7
1522606494905321,17,20,5,-1,-20,-6,1,8
1522606494905321,-5,1,1,-3,17,12,12,-4
1522606494917353,27,-3,1,-4,-52,-24,-37,-1
1522606494917353,24,15,-1,8,92,31,-9,10
1522606494926377,5,-4,-2,-1,-42,-20,14,-4
1522606494926377,-13,-9,-5,-4,-14,-37,-32,-5
1522606494941416,-9,-13,2,-2,23,28,19,1
1522606494941416,-7,-3,-6,-4,-35,-8,2,-5
1522606494942419,-1,-12,-9,-1,-18,-13,-5,0
1522606494942419,18,20,6,4,12,-12,-15,-4
1522606494963475,1,6,8,7,45,50,28,1
1522606494963475,-2,-6,-8,-7,-26,32,36,6
1522606494965481,33,-2,-3,-4,1,-65,-66,2
1522606494965481,7,5,-1,-1,-2,21,35,6
1522606494977512,-9,2,2,-3,-8,-16,9,-6
1522606494977512,10,-2,-5,-6,-4,2,1,13
1522606494986537,17,-1,3,5,8,29,30,2
1522606494986537,-35,-2,-2,-4,-11,8,-25,-7
1522606495000574,34,13,4,3,41,23,-7,7
1522606495000574,3,-13,-4,-4,3,5,3,7
1522606495002580,-27,-18,-2,-2,4,17,13,-5
1522606495002580,32,7,1,-4,-28,-30,-22,6
1522606495023635,-24,-1,4,2,3,20,2,-11
1522606495023635,-29,0,-1,4,-8,-41,-9,-8
1522606495024638,11,1,-9,0,11,27,7,-3
1522606495024638,-18,-1,12,2,-10,3,5,-6
1522606495036671,1,-7,-1,-4,-10,0,-2,-3
1522606495036671,19,1,3,1,-3,-4,3,5
1522606495045694,4,2,-3,-3,12,6,-2,-1
1522606495045694,-1,8,-4,-3,-14,2,15,10
1522606495060734,17,2,5,5,-2,-13,2,4
1522606495060734,-30,-18,-7,0,0,-16,-9,-14
1522606495062739,-31,-16,-6,-2,5,4,-21,2
1522606495062739,4,-2,-4,0,-9,3,0,-10
1522606495083795,-9,-5,-5,-7,-5,-11,-8,3
1522606495083795,3,4,2,3,-12,-10,6,-14
1522606495084798,5,1,-3,-5,27,-11,-32,4
1522606495084798,-7,0,-4,0,-8,5,10,1
1522606495096830,9,-7,-3,-4,-4,5,-2,6
1522606495096830,-28,-4,-3,-1,-3,-15,-14,-12
1522606495105854,-23,3,1,-1,-10,-1,7,-7
1522606495105854,14,1,1,1,2,4,12,8
1522606495120894,-5,0,0,2,9,-9,2,-2
1522606495120894,41,7,1,-1,-3,4,6,22
1522606495122899,4,5,8,4,6,10,6,10
1522606495122899,-39,-17,-14,-5,-5,-9,-11,-15
1522606495142953,-3,15,4,0,-2,-3,4,-9
1522606495142953,-18,-3,-1,1,-1,1,-10,-5
1522606495144958,23,7,4,4,1,9,11,12
1522606495144958,20,-13,-1,2,-2,-6,-4,-7
1522606495156990,-1,2,-11,-4,-7,-7,3,8
1522606495156990,-4,3,5,-1,3,-2,-9,-3
1522606495166014,-7,-7,-3,-4,-1,5,10,-8
1522606495166014,3,10,-2,-2,-4,0,4,8
1522606495181054,26,-2,5,0,-20,41,-6,-7
1522606495181054,-24,3,-6,1,69,36,5,8
1522606495183059,20,-1,0,0,-5,9,12,2
1522606495183059,-3,-5,-7,-4,-11,-1,-6,-2
1522606495203113,-20,-3,1,2,8,56,-1,-11
1522606495203113,16,5,3,0,-10,-3,2,0
1522606495205118,3,6,6,1,0,18,9,3
1522606495205118,27,10,1,2,13,5,0,10
1522606495217150,-21,-1,3,-8,-24,-24,-1,-7
1522606495217150,2,-15,-7,1,48,-11,-5,-19
1522606495226174,-15,-2,-5,-1,-5,-13,1,-6
1522606495226174,14,11,2,-2,-12,4,-11,3
1522606495241214,-7,-5,1,-1,8,-16,1,3
1522606495241214,16,1,0,-2,-41,-14,-5,2
1522606495242217,16,3,-6,-6,-3,0,5,4
1522606495242217,-67,-16,-3,1,23,18,5,-10
1522606495263273,16,11,5,-3,-15,-44,-7,3
1522606495263273,-24,-9,-1,4,-12,2,-3,-14
1522606495265278,12,3,4,2,4,43,5,4
1522606495265278,27,4,5,0,-17,-18,-1,4
1522606495277310,-38,-9,-9,-2,8,-20,-8,-2
1522606495277310,11,-1,-5,-8,-27,-1,2,-4
1522606495286334,-9,-5,-3,1,18,36,4,-14
1522606495286334,-14,-2,7,4,-7,-17,-3,-2
1522606495301374,-7,-1,-2,-3,-4,-11,-4,-7
1522606495301374,28,9,-2,1,24,-7,2,17
1522606495302377,-31,0,-4,-5,-19,-9,-2,-2
1522606495302377,1,5,1,-3,5,17,-2,-2
1522606495323433,15,-4,1,5,2,-5,9,14
1522606495323433,39,23,3,1,-40,2,2,6
1522606495325438,-62,-34,2,5,34,9,4,-10
1522606495325438,11,2,-2,-4,4,-14,4,4
1522606495337470,8,-2,-4,-1,-3,-1,-1,4
1522606495337470,-9,-6,-5,-3,-7,-5,-16,-2
1522606495346494,42,23,5,2,-14,-12,-7,9
1522606495346494,-20,-7,2,3,-7,-9,28,-8
1522606495360531,-12,-15,-6,4,32,19,-3,-7
1522606495360531,-48,-9,-7,-5,-13,23,-4,-2
1522606495367550,7,8,-5,-4,-17,-70,-19,2
1522606495367550,18,-3,-1,-1,1,32,0,2
1522606495383593,13,9,6,3,-7,-26,-10,0
1522606495383593,4,1,4,2,6,4,5,-8
1522606495384595,16,29,1,-2,-5,5,2,2
1522606495384595,-18,-38,-6,-4,-2,0,-4,-6
1522606495396627,-2,-2,-1,1,1,1,8,-22
1522606495396627,-7,-5,-2,0,-3,-6,-4,1
1522606495405651,-15,-2,-1,-1,-7,-5,-2,-2
1522606495405651,48,4,-3,1,-6,-14,-6,2
1522606495420691,-35,-3,-1,-1,-1,16,-1,-2
1522606495420691,-6,-6,-2,-4,-2,-14,2,-1
1522606495422697,30,2,1,2,-2,8,-2,1
1522606495422697,7,9,0,1,5,12,-5,3
1522606495443753,-18,13,3,1,-4,-13,-5,2
1522606495443753,-4,-10,-1,-4,-6,-6,1,-14
1522606495444755,-1,-1,-2,1,4,11,18,4
1522606495444755,9,11,-1,-1,-5,-31,-33,-2
1522606495456787,-15,-11,-3,-3,-5,12,-1,-1
1522606495456787,11,6,-1,0,1,-33,-12,2
1522606495465811,7,-14,-4,1,-16,0,-5,0
1522606495465811,-7,18,5,3,19,16,0,-5
1522606495479849,-9,-21,-1,-1,11,15,12,-3
1522606495479849,1,-2,-1,-1,-9,4,16,7
1522606495488873,4,-6,-4,-6,-1,-1,-5,-2
1522606495488873,-3,3,-4,1,-10,-11,-6,1
1522606495503912,29,7,0,-1,-11,-6,-2,8
1522606495503912,-45,-12,0,1,13,-15,-17,0
1522606495504915,-9,3,2,-1,-4,-5,-10,-6
1522606495504915,-15,4,-4,-5,-18,-21,-8,-8
1522606495516947,17,-18,-2,-1,-4,11,-2,4
1522606495516947,10,7,1,4,25,55,18,-1
1522606495525972,14,13,3,-4,-34,-37,-11,1
1522606495525972,-26,-11,0,2,0,4,-4,-4
1522606495540008,2,5,-3,1,20,-3,4,1
1522606495540008,9,-13,-2,-4,-5,6,3,4
1522606495547027,-5,-3,-5,-6,-44,-7,21,2
1522606495547027,5,-8,-1,0,44,53,-17,-3
1522606495563070,4,17,2,4,-24,-26,-3,3
1522606495563070,22,1,0,-2,26,24,-7,1
1522606495565075,-23,0,8,9,-14,-10,-10,-7
1522606495565075,-43,-20,-8,-11,-6,-21,15,-2
1522606495586131,16,-1,-4,-1,3,3,10,-1
1522606495586131,31,17,5,-2,-12,-18,-3,4
1522606495587134,-18,-27,-5,-4,13,2,-2,-1
1522606495587134,-21,-2,0,-1,-6,-3,16,-4
1522606495600168,-4,16,-2,-2,14,13,-7,-3
1522606495600168,6,-24,-1,0,-20,-10,0,-6
1522606495607187,19,2,0,0,13,3,6,4
1522606495607187,12,-6,-3,1,-4,-1,-1,-11
1522606495623230,5,8,-6,-3,2,-7,-1,5
1522606495623230,3,-11,3,-1,-22,-15,0,10
1522606495625235,-6,0,-2,4,37,38,3,-8
1522606495625235,2,2,1,-2,-39,-26,12,-1
1522606495646291,-13,-11,-7,-3,50,19,-14,-6
1522606495646291,-1,21,-2,1,1,-1,3,9
1522606495647294,25,-5,6,0,7,4,0,17
1522606495647294,10,6,-8,-1,-15,9,38,-18
1522606495660328,-40,-16,3,-9,-22,6,2,3
1522606495660328,11,14,1,6,4,10,5,4
1522606495667347,-14,-8,-8,-8,13,8,10,5
1522606495667347,22,13,6,3,-10,-18,-39,22
1522606495683390,13,-3,-1,-1,-6,-5,11,11
1522606495683390,-20,-3,-3,-2,1,-1,5,-2
1522606495685395,-2,2,-7,-8,-16,-16,-11,-30
1522606495685395,-3,-4,7,6,19,15,6,6
1522606495705449,0,-6,-4,-1,-10,-7,-5,-14
1522606495705449,-17,-2,-5,-7,-3,-13,-14,-9
1522606495707454,26,12,1,2,13,12,10,12
1522606495707454,-5,0,-2,-3,4,25,3,1
1522606495720488,8,-15,-4,-1,-4,-5,-6,-12
1522606495720488,-2,4,2,1,-9,-16,-6,-1
1522606495727507,3,-2,0,1,9,7,0,-9
1522606495727507,8,8,6,-1,0,-7,-2,10
1522606495743550,14,1,-1,1,-14,-10,-6,-6
1522606495743550,-2,-11,-4,-2,5,36,5,-4
1522606495744552,-19,0,-2,1,5,-5,-1,-4
1522606495744552,11,2,4,0,-3,-4,-7,6
1522606495765608,16,8,1,-1,-5,-14,1,11
1522606495765608,-34,-7,-1,0,-1,-4,-2,-4
1522606495767614,-5,-6,-3,0,1,-9,-6,-3
1522606495767614,-9,-1,-9,-3,1,-10,-7,-13
1522606495780648,10,4,6,0,0,2,-10,2
1522606495780648,2,2,-1,-2,3,-11,24,0
1522606495786664,0,1,-4,-4,-4,1,1,13
1522606495786664,-17,-6,1,-2,5,2,-3,-10
1522606495803710,15,4,6,8,3,-1,2,2
1522606495803710,-2,-2,2,-1,-3,-6,-12,-7
1522606495804712,-19,-3,-1,-1,0,-9,-3,-1
1522606495804712,-1,-3,-10,-7,-1,-1,-2,0
1522606495825768,-38,-6,0,-1,-4,-4,0,-2
1522606495825768,52,9,1,2,-1,15,0,16
1522606495827774,-35,-10,-5,-7,-10,-72,-8,-19
1522606495827774,0,3,-3,-1,0,-2,4,-3
1522606495839806,-18,-2,0,5,-5,13,-15,-11
1522606495839806,4,0,-7,-6,1,-5,-3,2
1522606495848830,20,5,7,5,5,31,-8,5
1522606495848830,20,1,6,-2,2,-7,1,3
1522606495863870,2,8,-2,-1,-1,-7,6,3
1522606495863870,-35,-27,-7,1,0,-4,-3,-12
1522606495864872,18,5,-3,-3,-3,12,-3,6
1522606495864872,-2,1,0,-1,11,-2,5,3
1522606495885928,20,-2,2,-2,-7,2,3,-1
1522606495885928,-10,-2,2,1,-1,-2,-21,-9
1522606495887934,-37,-3,-4,1,0,6,10,-4
1522606495887934,16,2,5,6,-2,0,-3,6
1522606495899966,-7,0,-2,-4,-1,-6,12,7
1522606495899966,7,7,-1,-3,-3,1,-13,3
1522606495908990,8,-30,-5,2,-3,-19,-12,-16
1522606495908990,-20,0,-10,-5,-5,13,1,-3
1522606495923027,21,5,9,2,0,2,12,5
1522606495923027,-22,8,5,0,-2,20,9,9
1522606495925032,9,-3,2,0,-2,-24,-34,4
1522606495925032,-4,-5,-7,-3,-1,15,-3,0
1522606495946089,4,1,-7,-3,-2,-41,11,-5
1522606495946089,-1,-6,-5,-4,-6,-9,-12,-3
1522606495947091,10,13,4,4,5,32,30,5
1522606495947091,-38,-12,0,2,-4,-10,-19,-7
1522606495959123,0,2,0,0,0,10,3,4
1522606495959123,16,9,7,4,2,3,-5,-16
1522606495968147,-17,-2,-3,-1,1,10,-4,0
1522606495968147,32,-2,-2,-1,-6,-41,6,-4
1522606495983187,-27,-1,-4,-5,-1,-4,-23,-15
1522606495983187,-14,0,-6,0,-6,6,15,-11
1522606495985192,18,-1,2,2,12,13,3,-1
1522606495985192,-19,-8,3,1,-1,8,-2,-4
1522606496006248,-4,-3,0,0,3,31,7,-5
1522606496006248,22,8,-5,-5,-3,-20,16,3
1522606496007251,-27,-16,-4,-2,-8,-2,15,16
1522606496007251,16,15,0,1,7,6,10,5
1522606496019283,-6,-15,-1,-3,-8,-4,0,-5
1522606496019283,-3,-5,0,1,9,19,-18,1
1522606496028307,-6,21,3,3,-2,-7,3,-4
1522606496028307,12,-2,0,1,-1,10,1,2
1522606496043347,9,-8,-2,-1,0,4,13,2
1522606496043347,-11,10,-2,-2,-6,-29,-42,-15
1522606496045352,4,-3,-1,-2,0,13,28,4
1522606496045352,-1,-4,-2,-3,-4,-2,-16,1
1522606496066408,26,3,-2,-2,2,-4,3,-3
1522606496066408,-13,-4,3,3,-2,-8,12,2
1522606496067411,5,6,-2,-1,4,10,10,-2
1522606496067411,-10,-7,-3,0,-2,-5,-3,-6
1522606496079443,-12,-3,-1,-2,0,-1,-6,2
1522606496079443,15,1,-1,-3,1,1,3,2
1522606496088467,19,0,-2,-3,-7,-16,-7,-1
1522606496088467,-15,8,-3,-2,-1,-8,-33,4
1522606496103507,5,21,6,2,2,-9,11,3
1522606496103507,-15,-73,-9,-4,3,-9,4,1
1522606496105512,13,17,1,1,3,13,-14,-6
1522606496105512,6,2,-1,-4,-11,-16,-11,1
1522606496125566,0,3,-2,-1,9,5,-9,2
1522606496125566,-18,9,2,4,0,10,8,-1
1522606496127571,15,4,2,-4,-1,1,13,4
1522606496127571,15,3,-3,-2,-31,-14,-4,-2
1522606496139603,-24,-15,-2,-1,31,19,-9,-5
1522606496139603,22,14,-3,-2,1,7,47,8
1522606496148627,-3,-22,2,5,10,-2,-27,12
1522606496148627,-2,5,-3,0,1,6,11,2
1522606496163667,12,13,0,0,-10,-10,-6,4
1522606496163667,7,4,-2,-5,-5,3,11,-2
1522606496164670,-11,-2,-4,-5,-3,1,-20,-3
1522606496164670,-14,-12,3,6,11,-17,-5,-13
1522606496185726,-22,-7,0,-4,-15,-8,-14,-2
1522606496185726,-2,5,-1,2,3,-9,-8,-2
1522606496187731,5,6,-2,-3,-7,-9,-12,-6
1522606496187731,8,-9,-2,-1,8,9,8,2
1522606496199763,1,3,3,-3,-7,-6,-10,-2
1522606496199763,-11,12,2,2,-3,-17,-6,-1
1522606496208787,0,-1,0,0,0,18,12,0
1522606496208787,0,-2,-1,-2,1,-10,-3,-2
1522606496223827,3,-1,-2,0,-5,-12,-2,3
1522606496223827,11,-3,1,-4,-2,3,1,4
1522606496224830,1,3,4,-2,-1,5,10,2
1522606496224830,-13,-9,-5,-7,4,10,4,-4
1522606496245886,4,-3,-4,3,-10,-18,-12,-6
1522606496245886,-4,12,4,-2,-2,-5,-8,9
1522606496247891,-4,13,3,2,1,-2,10,-8
1522606496247891,-2,-22,2,-1,0,-1,-34,16
1522606496259923,-17,-7,-3,-1,-1,4,30,3
1522606496259923,23,6,-3,-3,-1,2,-5,6
1522606496268947,-22,-4,-3,1,-2,-9,0,-4
1522606496268947,45,17,-3,5,5,7,20,6
1522606496282984,-6,-15,9,5,1,6,-5,0
1522606496282984,-42,-13,-9,-4,-4,4,-13,-11
1522606496284990,10,-2,-7,-2,-3,0,-4,-11
1522606496284990,14,12,6,2,0,-28,-25,2
1522606496306046,-16,-15,-2,-2,2,21,5,-1
1522606496306046,-10,-4,-1,1,-4,-9,3,-16
1522606496308051,-3,-4,-2,0,0,15,-2,-2
1522606496308051,-10,-10,-3,1,1,12,10,-20
1522606496330110,24,12,-3,-2,-3,-13,-7,-1
1522606496330110,-15,-6,1,2,1,7,0,4
1522606496331113,-7,-4,-5,-3,-4,-53,-13,-4
1522606496331113,0,8,1,0,-2,-4,14,9
1522606496343144,6,0,4,0,1,-6,-8,-3
1522606496343144,1,1,-1,2,-3,-8,25,-5
1522606496345150,20,3,4,0,1,-4,6,5
1522606496345150,-14,1,-4,-3,1,6,15,-4
1522606496366206,-1,-1,-6,-3,-4,1,-3,-1
1522606496366206,5,-2,-1,0,3,-5,-12,4
1522606496367208,3,2,2,1,3,41,-2,3
1522606496367208,-22,4,7,2,-3,-16,14,-9
1522606496379240,3,-9,-9,-4,-3,7,2,0
1522606496379240,-12,1,-1,-1,-1,-1,-5,-3
1522606496388264,3,1,-4,0,-3,7,1,-1
1522606496388264,-3,-2,6,1,3,21,-1,0
1522606496402302,4,0,-5,0,-1,-7,-7,2
1522606496402302,-3,-5,0,-2,-2,-6,-4,-17
1522606496409321,0,0,-1,0,-1,-3,-2,-4
1522606496409321,36,2,-6,-3,-1,3,-3,5
1522606496426366,-70,-8,1,1,-1,-6,4,-9
1522606496426366,18,-6,-3,-4,-2,3,-4,-1
1522606496427369,-11,8,7,4,2,-8,-7,-7
1522606496427369,0,-7,3,3,0,5,12,0
1522606496439400,-3,3,-4,-2,-1,3,-1,-1
1522606496439400,2,5,0,-2,0,1,0,13
1522606496448425,-19,-3,-4,-1,-2,-7,1,4
1522606496448425,-13,-13,0,-4,-2,10,-3,-9
1522606496462462,16,9,-1,0,-2,-7,-5,6
1522606496462462,-8,2,-2,2,5,30,-20,10
1522606496469480,19,-3,-4,-6,-13,-86,18,-9
1522606496469480,16,6,4,0,-2,-36,-8,1
1522606496485523,-3,-6,-4,-1,0,14,3,3
1522606496485523,-6,-2,2,1,2,2,-9,-7
1522606496487528,3,-2,-1,0,2,10,1,7
1522606496487528,-6,6,-2,1,-2,13,0,2
1522606496508584,17,-8,-2,-6,-4,-7,26,-4
1522606496508584,10,-1,-1,-4,-5,-79,-52,-1
1522606496509587,-19,-8,-4,2,5,45,15,0
1522606496509587,0,5,-2,0,2,-3,-5,8
1522606496522622,-5,6,4,-2,0,9,14,1
1522606496522622,-16,-5,-6,-8,-2,23,26,-7
1522606496529640,13,-5,-6,4,4,-25,-28,-2
1522606496529640,-12,7,5,3,-2,8,2,0
1522606496545683,2,4,5,1,0,-2,-14,-5
1522606496545683,13,-2,-5,0,-2,13,12,2
1522606496547688,35,7,11,-3,-5,-27,-2,1
1522606496547688,4,4,-16,-4,1,36,13,4
1522606496568744,-11,-29,2,3,-2,-43,-35,-4
1522606496568744,-26,4,4,0,0,12,11,-2
1522606496569748,8,-1,-6,-6,-5,-11,-22,-4
1522606496569748,-7,-5,4,8,0,1,7,1
1522606496582782,12,-2,-2,-1,0,14,0,-2
1522606496582782,9,8,-1,3,0,-1,-5,2
1522606496589800,-28,-10,-2,3,1,29,28,2
1522606496589800,-24,-1,-6,-5,-4,-9,-21,-10
1522606496605843,2,11,-1,-1,-1,7,14,1
1522606496605843,21,-3,1,3,4,-5,7,2
1522606496607848,-17,-6,-4,-4,-12,13,-17,-4
1522606496607848,1,-6,0,-3,1,1,7,-1
1522606496628904,8,25,-1,2,5,30,19,3
1522606496628904,15,-23,4,2,1,4,25,6
1522606496629907,-40,-33,1,-4,-2,-13,-48,-11
1522606496629907,-8,-6,-3,-5,-1,-14,-26,-2
1522606496642942,5,-13,-11,-4,-4,6,3,1
1522606496642942,-24,6,0,-5,-2,5,13,-3
1522606496649960,9,13,9,5,9,19,15,3
1522606496649960,4,4,3,-2,-9,-4,-3,4
1522606496666003,0,37,-7,-9,12,2,0,0
1522606496666003,10,-16,3,9,2,-14,-47,-8
1522606496668008,-4,-23,-8,-5,-3,6,24,0
1522606496668008,7,27,1,2,4,12,21,4
1522606496688062,21,-4,1,-3,-11,-9,-7,3
1522606496688062,-17,18,-6,-6,-3,4,2,-5
1522606496690067,1,-3,0,-1,5,-8,-15,2
1522606496690067,10,-17,0,-2,-11,11,29,2
1522606496703102,6,11,-3,1,5,-15,-35,-7
1522606496703102,-25,-4,5,6,2,9,23,2
1522606496711123,-8,-8,-6,-4,-1,-4,-2,-2
1522606496711123,5,10,-5,-2,-1,0,-1,-1
1522606496726163,0,-13,9,0,-9,-1,3,-1
1522606496726163,18,-5,-8,-2,3,11,22,2
1522606496727166,-12,10,8,3,-2,-5,0,-4
1522606496727166,-4,-6,-4,-4,-1,-8,-7,-1
1522606496748221,1,0,-3,0,-1,-5,-14,-5
1522606496748221,20,10,4,-3,0,0,-35,5
1522606496750227,21,18,-4,0,-6,-17,10,4
1522606496750227,-5,-6,-1,-1,2,-5,-38,-6
1522606496762259,-27,-9,1,3,1,0,10,-5
1522606496762259,-6,-13,-3,-4,-5,-6,-10,-4
1522606496771283,16,20,-5,-5,-2,8,-11,5
1522606496771283,-4,-3,3,0,0,-2,33,-3
1522606496786323,-5,2,-3,-1,0,19,1,0
1522606496786323,0,-14,-4,-3,-7,-37,-33,-4
1522606496787326,-1,0,5,4,1,11,12,5
1522606496787326,10,-12,-5,-3,-1,-6,6,-12
1522606496808382,-7,1,0,1,-1,-4,3,0
1522606496808382,6,6,-4,-2,-1,9,22,2
1522606496810387,-5,1,-8,-2,-2,4,0,-6
1522606496810387,7,-5,8,0,0,-4,-20,2
1522606496822419,4,3,4,1,-3,-2,14,5
1522606496822419,-27,-10,-4,-2,-2,6,-36,-13
1522606496831443,5,1,-3,0,-1,-6,87,4
1522606496831443,-25,0,0,2,0,14,-6,5
1522606496846483,52,14,2,3,2,-5,-6,11
1522606496846483,6,-7,3,0,-4,2,8,12
1522606496847486,-13,12,-2,-5,-1,11,-8,4
1522606496847486,-41,-16,-6,0,1,-9,3,-11
1522606496868541,-5,-11,-2,1,-2,4,-5,-3
1522606496868541,20,11,-1,1,4,31,22,7
1522606496870547,18,0,2,3,-1,-45,-63,-11
1522606496870547,7,1,1,1,4,11,25,4
1522606496882579,-30,-9,-5,-7,-3,-6,-13,-1
1522606496882579,13,9,1,8,4,1,10,-9
1522606496890600,-12,-13,-1,-2,-1,14,-8,-4
1522606496890600,11,5,1,2,-1,-4,-8,4
1522606496905641,-11,-7,0,0,1,-3,7,0
1522606496905641,16,2,-4,-6,-2,-8,1,4
1522606496907646,8,3,4,2,1,10,6,9
1522606496907646,-21,-8,-6,0,1,-4,-10,-10
1522606496928702,16,-4,-2,-2,-3,2,0,11
1522606496928702,-5,8,6,-2,-6,-14,5,0
1522606496929705,-18,0,-3,0,0,4,-9,5
1522606496929705,-6,-2,-3,-3,1,2,-3,-5
1522606496941736,9,8,4,5,-2,11,-3,-3
1522606496941736,-14,-4,-3,-3,-7,-24,-1,-15
1522606496950760,-17,-7,-2,0,2,18,-4,-18
1522606496950760,27,-3,-7,-6,-3,0,3,10
1522606496965800,8,-1,0,-2,-2,0,0,-3
1522606496965800,-8,3,2,4,6,36,5,10
1522606496967806,14,2,3,-2,-11,-75,-12,1
1522606496967806,1,-7,-2,0,2,34,0,2
1522606496988861,26,7,-1,0,-4,-16,-4,-3
1522606496988861,-33,-5,-5,-1,0,16,5,3
1522606496989864,9,-8,-12,-5,0,15,4,8
1522606496989864,-5,11,11,6,2,5,-6,-4
1522606497001896,-2,-6,1,2,0,-14,5,-5
1522606497001896,17,6,0,-1,-1,-14,-3,1
1522606497010920,-11,-2,0,1,0,21,-2,0
1522606497010920,0,-2,-5,-3,-4,-15,0,-6
1522606497025960,-6,-9,-12,-5,-1,12,1,3
1522606497025960,13,3,6,2,-2,-17,-3,-4
1522606497027966,-21,1,4,2,1,10,-1,-6
1522606497027966,15,0,-6,-2,-3,-10,0,10
1522606497048019,-3,-1,4,-1,1,-8,-1,3
1522606497048019,-39,-2,-9,-4,-2,-3,-4,-13
1522606497050025,28,0,5,2,3,10,3,7
1522606497050025,-8,6,-2,3,-1,5,-2,-5
1522606497062056,5,-4,-4,-4,-5,-31,-2,4
1522606497062056,0,-1,-3,-3,-3,-7,7,6
1522606497071080,11,3,0,-1,-1,5,3,3
1522606497071080,2,0,6,1,4,21,0,-5
1522606497086120,-58,-8,-2,2,0,24,12,-4
1522606497086120,13,0,-9,-5,-3,-20,-11,-11
1522606497087123,2,-10,2,-2,-2,-8,5,-1
1522606497087123,8,2,-2,0,0,1,3,9
1522606497108179,-5,-1,5,3,3,27,-11,-16
1522606497108179,11,-2,-3,-2,-1,8,10,6
1522606497110184,8,-2,-5,-4,1,24,3,8
1522606497110184,14,-6,3,4,-1,-26,-5,-4
1522606497122216,-34,5,3,-1,2,19,-6,-5
1522606497122216,-11,2,6,1,-5,-41,2,1
1522606497131240,-2,5,-8,-6,-1,-3,11,3
1522606497131240,5,-6,-9,-12,-1,16,-27,-6
1522606497146280,21,0,-6,4,-5,-18,3,-3
1522606497146280,10,1,8,7,6,45,-9,9
1522606497147283,-23,-6,-1,3,-4,-23,27,-1
1522606497147283,2,13,5,-1,-3,-15,12,1
1522606497176360,-15,-15,-4,-9,0,39,7,5
1522606497176360,17,5,-4,-3,-3,-62,-22,-1
1522606497177363,18,-2,3,1,3,17,-8,-1
1522606497177363,-13,-7,-1,-4,-4,-9,0,-3
1522606497182376,7,5,-4,-4,-1,32,7,-3
1522606497182376,10,-4,0,3,0,-10,-12,6
1522606497191400,-2,10,7,4,2,13,22,-5
1522606497191400,-25,-12,-4,2,0,-19,-13,-2
1522606497205437,23,6,0,-3,-5,-7,2,0
1522606497205437,-15,-14,-6,-2,2,4,0,-8
1522606497207443,16,9,-1,5,0,-9,-22,-11
1522606497207443,4,11,7,-2,-2,1,8,2
1522606497228499,1,-2,0,2,-1,-27,-16,-5
1522606497228499,12,-34,-6,-5,-3,13,-6,-8
1522606497230504,4,11,-3,-2,-1,-10,-15,-2
1522606497230504,44,13,-2,1,-5,-29,-7,-2
1522606497242536,-61,-7,-3,1,2,-17,16,6
1522606497242536,31,18,5,0,-1,2,0,5
1522606497251560,-25,-10,-5,1,1,30,-2,-2
1522606497251560,-8,-5,-4,0,-2,-4,11,0
1522606497265597,12,4,-3,-1,-1,-11,-16,-2
1522606497265597,-8,3,1,3,3,20,31,8
1522606497267603,10,-3,1,0,0,9,2,-6
1522606497267603,-18,4,-3,-4,0,-1,3,-1
1522606497288659,4,6,5,4,2,-17,-26,-3
1522606497288659,-2,-14,-2,-4,-3,22,34,-5
1522606497289662,6,3,-3,-3,-4,-25,-60,-4
1522606497289662,-2,-7,-2,-1,2,17,32,4
1522606497301693,-26,9,-1,-2,-1,7,15,-1
1522606497301693,-38,3,-3,-1,0,-7,-12,-10
1522606497310718,-1,-1,-1,-2,1,-5,-19,1
1522606497310718,3,-2,5,0,-4,-12,23,9
1522606497325757,24,19,1,0,1,6,20,2
1522606497325757,-22,-12,-5,-4,-3,2,-6,-3
1522606497327763,-17,-12,-3,-2,0,-16,-19,-6
1522606497327763,8,5,-1,1,0,6,-43,1
1522606497348819,16,-2,4,1,-1,-7,23,2
1522606497348819,-1,12,1,0,2,-4,-15,0
1522606497349822,11,0,-3,-3,-3,7,25,4
1522606497349822,6,-6,-8,-5,-1,20,20,-3
1522606497361853,6,4,2,-1,-2,-29,-55,-1
1522606497361853,0,-8,8,12,8,8,51,6
1522606497370877,-7,13,3,0,0,15,18,-1
1522606497370877,0,-4,-4,-8,-7,-30,-17,-11
1522606497384915,-28,-22,-14,-10,-4,-7,-4,-2
1522606497384915,-2,6,-2,0,1,2,-12,-2
1522606497391933,10,3,5,1,0,1,-11,4
1522606497391933,-18,-4,-4,-1,-2,-5,11,-3
1522606497407976,11,-9,0,-1,-2,-9,-13,-2
1522606497407976,18,13,3,-1,-2,4,-11,2
1522606497409982,6,-4,-1,-2,-1,-1,21,-1
1522606497409982,-39,-7,-3,-1,3,7,-15,3
1522606497422013,10,3,-2,-1,-2,-4,-25,-15
1522606497422013,-3,-23,0,-2,-2,5,2,-2
1522606497431037,21,3,-1,-3,-1,-16,-18,-1
1522606497431037,-19,-7,-3,2,2,-3,5,0
1522606497445075,6,-3,1,1,-1,-1,7,-1
1522606497445075,10,14,-8,-6,-3,-4,-4,0
1522606497452093,-37,-22,-7,-6,-4,5,27,-25
1522606497452093,2,-2,8,8,0,5,-14,3
1522606497468136,-3,-6,2,0,3,20,17,6
1522606497468136,-9,0,-3,0,-5,-58,-32,-7
1522606497470142,8,8,3,2,0,-3,28,15
1522606497470142,4,4,-5,-3,2,13,3,-2
1522606497491197,-1,-6,-1,-1,0,-7,-10,-5
1522606497491197,-3,5,1,1,3,42,6,-7
1522606497492200,-16,-4,-7,-4,-5,-15,-2,-3
1522606497492200,4,-7,2,1,2,-3,-8,3
1522606497505235,-6,-12,-2,-1,-4,-11,-37,-8
1522606497505235,9,7,0,1,2,4,-7,2
1522606497512253,15,4,1,1,0,-4,0,6
1522606497512253,-7,-4,-1,-2,-2,7,-11,-19
1522606497528296,-4,-6,1,-1,-1,-8,19,-7
1522606497528296,10,8,-4,1,-2,11,0,17
1522606497530302,-18,-3,12,5,-1,-8,-16,-11
1522606497530302,-2,3,-2,-1,0,2,13,0
1522606497551357,12,3,-2,0,-1,2,9,6
1522606497551357,4,-2,-3,-4,-2,-8,-1,-7
1522606497552360,7,0,-5,-2,2,15,-2,6
1522606497552360,-18,-5,-4,-3,2,18,-12,0
1522606497565395,18,3,-1,-3,-12,-78,36,3
1522606497565395,-3,-2,4,3,-1,2,-2,3
1522606497572414,7,3,0,1,0,-28,7,5
1522606497572414,8,2,3,2,0,4,-6,-7
1522606497588456,-3,-3,-4,-1,3,25,-2,5
1522606497588456,-1,-2,-7,-5,-5,-11,2,-1
1522606497590461,1,-4,3,-2,-1,7,2,2
1522606497590461,-23,-2,-1,-1,-2,-14,-3,-11
1522606497610515,12,5,1,0,2,10,2,7
1522606497610515,-18,-11,-1,-2,-2,7,0,1
1522606497612520,-12,-2,-3,0,2,21,-2,-2
1522606497612520,33,7,-1,1,-3,-7,6,8
1522606497625555,-27,-5,-5,2,2,18,3,2
1522606497625555,-12,4,9,1,0,-8,-8,-11
1522606497632574,16,-3,-2,-1,-1,-1,-7,2
1522606497632574,-14,-3,-1,2,-2,-10,2,4
1522606497648616,5,-3,-4,0,4,9,3,-3
1522606497648616,32,10,7,-1,-1,-18,1,3
1522606497649619,-32,-9,-9,-5,-3,1,-8,-7
1522606497649619,16,-1,-3,-2,-2,4,6,14
1522606497670675,-35,1,-2,-4,-1,7,-6,-13
1522606497670675,-5,-6,0,0,1,1,-2,0
1522606497672680,11,5,-5,-2,1,17,-1,1
1522606497672680,0,-8,0,-2,-2,-6,2,0
1522606497685715,18,4,4,3,1,5,-3,10
