timestamp,emg1,emg2,emg3,emg4,emg5,emg6,emg7,emg8
1522606823875266,-28,-5,-3,-3,-5,-1,0,-7
1522606823875266,22,5,-3,-1,-2,-1,-1,2
1522606823876268,14,6,0,-3,1,32,1,1
1522606823876268,-29,-14,-3,-1,-12,-43,-2,4
1522606823877271,13,2,2,3,21,-13,-3,5
1522606823877271,-15,0,-4,-2,0,18,-1,-8
1522606823880279,28,29,6,1,-16,-51,1,8
1522606823880279,-7,-16,-9,-5,12,37,-1,-8
1522606823887298,0,-5,4,0,-9,-3,-4,-5
1522606823887298,-50,-12,-4,1,14,4,-3,-2
1522606823897324,20,0,-4,-3,-23,4,-3,-8
1522606823897324,-5,13,4,-1,32,0,0,6
1522606823902338,23,0,0,2,-4,-1,3,3
1522606823902338,-5,-14,-6,-4,-21,-9,-8,-30
1522606823917378,-25,-1,4,3,23,5,-4,-4
1522606823917378,10,2,0,-2,-17,15,-5,-8
1522606823926401,-7,-9,-5,0,-5,-36,-2,17
1522606823926401,23,19,7,1,5,19,3,18
1522606823941442,-1,3,-2,-2,-4,-39,0,-4
1522606823941442,-2,-15,-2,1,1,14,-4,-10
1522606823948460,22,14,4,1,-4,1,2,3
1522606823948460,-8,-9,-2,-3,-8,-13,-6,-8
1522606823961495,10,7,-1,-1,8,5,3,11
1522606823961495,-35,3,6,1,-15,5,1,-7
1522606824004612,14,10,2,-4,-7,-68,-1,1
1522606824004612,16,9,-3,-1,3,0,0,-5
1522606824007617,-20,-7,-1,-3,-3,-2,-3,-15
1522606824007617,9,-1,4,1,0,8,1,-9
1522606824008620,-12,-10,-1,0,6,18,2,-5
1522606824008620,25,9,3,0,-5,-5,-3,-2
1522606824009623,-17,-4,1,3,-1,-7,-10,-9
1522606824009623,18,1,-6,-2,2,3,-4,-14
1522606824014636,-8,3,1,-2,-8,23,0,27
1522606824014636,-6,-8,-3,-2,-2,-45,-2,3
1522606824021655,17,8,2,-2,2,8,4,17
1522606824021655,-20,-19,-1,5,1,-2,3,10
1522606824029676,14,6,-6,1,-2,14,-1,-3
1522606824029676,-33,5,2,1,-2,0,-2,-20
1522606824044716,-8,-24,-6,-4,-1,25,4,17
1522606824044716,29,15,2,-2,-7,-66,0,15
1522606824051735,-17,-5,1,1,-1,11,2,-1
1522606824051735,12,9,-4,2,1,13,1,-1
1522606824075800,-7,17,8,-2,2,7,-3,-13
1522606824075800,-19,-8,-6,-4,-3,-8,-1,-13
1522606824076802,19,8,0,0,-4,10,4,4
1522606824076802,-26,-16,-1,-4,-6,-31,1,10
1522606824089836,-2,-2,-14,-7,-7,-2,-8,-14
1522606824089836,-37,-18,-2,1,2,8,-9,6
1522606824090839,4,12,1,1,6,5,4,-4
1522606824090839,5,-4,-1,-1,0,21,1,12
1522606824111895,35,7,-1,-2,-5,-28,-13,-23
1522606824111895,-5,8,2,0,-17,5,-5,-16
1522606824112897,-26,-4,-3,2,18,-6,0,-6
1522606824112897,31,7,-1,-2,-1,11,-2,5
1522606824135959,-19,-22,-5,-3,6,3,9,20
1522606824135959,6,-2,-6,-4,-1,3,-4,-18
1522606824135959,-21,-16,-3,-2,-8,-8,-9,-42
1522606824135959,3,-14,-7,-2,0,3,-7,-9
1522606824149996,8,13,1,-2,-6,-13,-1,4
1522606824149996,-4,0,-1,2,9,13,8,19
1522606824150999,-1,-13,0,-3,-6,6,-1,0
1522606824150999,-5,9,3,0,-2,6,9,34
1522606824172055,28,17,4,6,14,21,7,23
1522606824172055,-13,11,0,-3,-3,-7,7,16
1522606824173057,4,1,1,1,-2,-13,7,14
1522606824173057,-29,-13,1,-1,-63,15,-9,-22
1522606824195116,16,7,1,2,56,-36,2,2
1522606824195116,-4,0,-1,-2,9,23,5,7
1522606824196119,5,2,-2,-2,0,-4,-9,4
1522606824196119,-24,4,5,-5,-2,-7,0,5
1522606824210156,-19,-11,-2,1,-66,6,0,-13
1522606824210156,23,-1,-3,-3,34,6,2,-2
1522606824211159,0,-10,-10,-4,43,-17,-9,2
1522606824211159,8,7,5,2,16,3,5,24
1522606824232215,29,-10,-3,-6,-95,-1,-8,-6
1522606824232215,-66,-15,0,-1,-44,-54,-4,-9
1522606824233218,23,25,6,2,80,42,1,8
1522606824233218,-22,-7,1,4,13,31,4,-21
1522606824255276,12,-5,-6,-6,9,-14,-4,-4
1522606824255276,-7,-3,-2,-1,-35,11,-3,2
1522606824256279,6,-5,-2,0,-42,8,-4,-4
1522606824256279,57,32,10,3,-5,-40,-2,5
1522606824270316,-95,-20,-3,-1,44,13,6,-16
1522606824270316,66,-6,-6,-5,-2,18,3,2
1522606824270316,-10,7,1,1,-8,12,0,-2
1522606824270316,-9,-11,-1,-2,-5,19,-5,-2
1522606824292374,3,-1,2,4,-57,-62,-1,0
1522606824292374,-9,-1,-2,3,57,41,0,-7
1522606824293377,-2,-7,0,2,-7,-52,4,-4
1522606824293377,2,0,-1,-2,-80,-28,0,-2
1522606824315436,-15,-18,-8,3,60,24,-7,-5
1522606824315436,-9,0,-3,-6,-16,2,-4,-7
1522606824316439,13,-1,-4,-1,-20,3,-1,-14
1522606824316439,-15,-1,1,0,-5,-16,2,0
1522606824329473,51,11,1,-2,15,5,3,15
1522606824329473,-20,6,3,2,3,-4,-2,10
1522606824330476,7,-2,-1,-6,-21,4,0,8
1522606824330476,-20,-12,-7,-4,25,1,-6,-18
1522606824352535,2,2,-2,-1,32,27,1,-1
1522606824352535,40,17,5,-1,3,2,1,9
1522606824353537,-18,-2,4,3,-41,-27,-2,1
1522606824353537,-37,-16,-8,-1,40,15,0,-4
1522606824375596,9,7,2,-1,0,-6,-3,1
1522606824375596,4,1,1,0,-24,-4,0,-8
1522606824376599,19,6,0,-3,4,23,0,-12
1522606824376599,-1,2,0,4,15,-26,-6,-18
1522606824389633,-26,-8,0,0,-19,17,-2,-5
1522606824389633,28,8,3,3,6,-27,-1,15
1522606824390636,-40,-8,-4,1,-4,-1,3,3
1522606824390636,47,-6,-3,-2,17,19,-2,-5
1522606824412695,-34,14,6,0,-6,-4,-1,-1
1522606824412695,38,14,4,0,6,-8,0,3
1522606824412695,-38,-41,-8,-2,3,5,-6,-8
1522606824412695,20,5,-4,1,-42,-1,3,1
1522606824434753,-9,4,3,4,61,1,3,2
1522606824434753,-32,-16,-6,-4,-7,8,-3,-6
1522606824442774,6,16,7,2,-3,2,1,-5
1522606824442774,2,-3,-1,-1,2,2,-1,0
1522606824448790,29,3,0,-1,-13,34,1,5
1522606824448790,-23,5,-5,1,-22,-57,-9,-19
1522606824457815,14,-3,3,-2,18,7,3,16
1522606824457815,-23,-5,0,1,14,4,-2,-9
1522606824472855,23,11,1,-1,-15,-10,3,3
1522606824472855,-13,-20,-4,3,26,26,1,-6
1522606824472855,30,7,-6,-1,-13,-11,-8,5
1522606824472855,-10,8,4,3,12,-1,0,-2
1522606824494913,20,3,-2,-1,-10,4,-1,0
1522606824494913,4,4,1,-1,-6,6,-1,-6
1522606824495916,-3,-2,2,-3,0,22,1,0
1522606824495916,6,-3,-7,-6,9,-46,-7,-11
1522606824508951,-17,-6,-5,-5,-10,-12,-4,1
1522606824508951,16,14,7,-4,-1,8,7,23
1522606824516972,-26,-13,-7,0,3,-9,-2,-7
1522606824516972,9,9,7,0,3,26,-4,-23
1522606824533014,-4,-2,-6,-11,-8,1,-1,-10
1522606824533014,-1,10,4,7,-5,-2,-4,-2
1522606824533014,-6,-14,-3,-8,-5,3,2,4
1522606824533014,13,20,1,2,4,5,3,7
1522606824555073,-6,-23,-7,0,-3,-17,-5,-6
1522606824555073,16,11,3,1,5,24,6,14
1522606824556077,2,7,1,1,-5,-12,-3,-10
1522606824556077,26,-5,3,-1,3,-1,2,33
1522606824569111,-55,-1,4,4,1,5,-1,-15
1522606824569111,0,6,-2,1,-2,0,-5,-21
1522606824577132,25,3,4,0,-4,-14,4,18
1522606824577132,-2,4,-1,-3,2,34,6,15
1522606824592172,25,-2,0,6,-2,-4,-2,1
1522606824592172,-6,-1,-5,-4,-8,-56,-9,-8
1522606824593175,-23,1,-4,-1,4,2,-4,-10
1522606824593175,6,-4,-7,-4,2,26,-5,-9
1522606824615233,24,5,1,1,-4,-15,5,13
1522606824615233,-14,-37,-2,0,1,11,0,3
1522606824615233,-52,11,0,-3,-5,-10,-1,-2
1522606824615233,25,13,0,-6,4,13,4,28
1522606824629270,-36,-6,0,4,-1,6,-2,-15
1522606824629270,-8,4,3,1,-3,-10,2,8
1522606824637293,60,-13,-13,-3,-2,18,-10,-22
1522606824637293,-19,3,9,0,-7,-49,2,10
1522606824652332,1,7,-5,-9,-8,-5,0,8
1522606824652332,-35,-2,2,3,6,10,1,-4
1522606824653335,9,-20,-2,-3,-3,5,-1,-4
1522606824653335,-28,-15,-14,-2,0,-4,-5,-24
1522606824675393,20,4,2,2,5,-4,-1,-11
1522606824675393,9,4,-1,-2,-3,15,-1,5
1522606824675393,15,8,1,1,2,23,4,7
1522606824675393,12,-16,0,2,-19,-59,-2,7
1522606824689430,-25,-14,-6,-3,6,2,0,4
1522606824689430,2,-2,-6,-4,3,20,-1,-14
1522606824697452,-36,9,8,2,2,1,6,0
1522606824697452,7,-3,-6,1,-7,-5,-7,-14
1522606824712492,10,3,1,2,10,31,1,11
1522606824712492,4,-5,-7,-4,-11,-74,-10,-10
1522606824713495,14,1,1,1,3,7,2,4
1522606824713495,-43,-8,-5,-4,0,18,1,-8
1522606824734551,14,15,7,4,-8,-3,3,20
1522606824734551,-6,-26,-9,1,10,29,-4,-16
1522606824735553,-4,12,1,0,-1,-18,2,4
1522606824735553,-15,-25,-4,-4,4,4,-4,-3
1522606824749591,19,15,8,3,2,-2,-1,5
1522606824749591,-6,-18,-11,-8,-9,33,-2,-7
1522606824757612,5,3,1,1,-10,-71,2,9
1522606824757612,-15,-5,-5,-2,10,11,-2,-8
1522606824772652,-18,-3,-3,-1,-2,4,-1,-10
1522606824772652,24,26,11,5,1,1,-2,28
1522606824773655,-9,0,1,-2,-1,32,-7,-12
1522606824773655,-19,2,2,-2,-3,-39,-3,-1
1522606824794711,-1,-5,-1,-2,-4,4,-2,-12
1522606824794711,-5,9,4,-1,5,-22,2,6
1522606824795713,26,6,-2,2,4,5,-1,2
1522606824795713,12,4,3,2,6,13,-1,4
1522606824808748,-21,-11,-11,-5,-34,1,0,-15
1522606824808748,-2,-9,-1,-1,52,13,5,0
1522606824817772,33,12,-4,-8,-17,-6,4,7
1522606824817772,-11,-11,3,7,14,-5,0,-2
1522606824832812,4,-4,-1,-1,0,13,3,4
1522606824832812,1,3,-2,-4,-18,-11,-2,-2
1522606824832812,-8,-3,-1,1,6,1,0,1
1522606824832812,12,5,-4,-5,-2,42,-2,-6
1522606824854886,-6,-1,0,1,-2,-68,-5,2
1522606824854886,20,6,2,0,-7,0,-4,-1
1522606824855879,-31,-10,0,2,0,4,3,-4
1522606824855879,28,-3,-5,-2,-1,7,2,-3
1522606824877932,-29,-12,1,-2,11,1,-3,3
1522606824877932,13,15,1,0,5,20,3,3
1522606824878935,8,-11,-5,-1,-20,-27,-11,-12
1522606824878935,2,5,1,2,21,1,-1,-2
1522606824891970,43,9,-3,0,3,13,0,-3
1522606824891970,-38,-10,-5,-2,-24,-10,-2,3
1522606824892972,6,10,6,3,18,17,2,0
1522606824892972,-24,-1,-1,-4,-26,-2,-1,-2
1522606824915031,27,2,0,0,3,-11,-4,1
1522606824915031,40,4,0,-5,-1,7,7,16
1522606824916034,-12,4,6,7,-4,6,1,-3
1522606824916034,7,-3,-1,1,0,-7,2,8
1522606824938092,-11,7,-6,-7,-8,1,-4,-4
1522606824938092,-9,-16,0,0,34,14,6,-3
1522606824939095,17,8,-3,-2,-7,-17,1,3
1522606824939095,5,8,-2,-5,-1,-1,-6,-6
1522606824952129,-1,11,8,-3,-12,15,8,12
1522606824952129,-35,-13,-4,5,31,49,3,-10
1522606824953132,-3,-4,0,-2,-72,-63,-3,-1
1522606824953132,15,8,5,2,36,-12,-1,6
1522606824974188,-35,-2,-4,1,10,3,-8,-10
1522606824974188,18,-13,-3,-3,-24,5,2,-9
1522606824983212,36,1,-6,-3,8,25,-2,2
1522606824983212,-39,-6,-2,1,-9,15,2,-9
1522606824998252,6,-17,2,-1,-6,-17,-1,3
1522606824998252,-15,6,0,-1,-16,-13,-5,-2
1522606824999255,-26,-4,-1,4,35,14,-4,-6
1522606824999255,20,12,-1,3,-21,-10,4,6
1522606825020310,11,-12,-2,-3,12,5,-5,-3
1522606825020310,-21,0,1,0,-8,-9,-4,-1
1522606825022316,13,13,2,-3,0,8,2,8
1522606825022316,-53,-18,-3,-1,-3,-11,-3,-6
1522606825034348,63,3,-5,-4,-5,0,-5,-3
1522606825034348,0,4,-2,0,-8,-16,-2,-7
1522606825043372,13,-4,-3,-5,10,14,-4,-7
1522606825043372,-35,-17,-7,0,-5,6,-6,-12
1522606825058412,-25,2,2,3,9,-5,2,1
1522606825058412,16,-6,-2,-1,-15,12,-1,2
1522606825059415,-3,4,4,0,8,-28,1,4
1522606825059415,5,-7,-6,-4,-1,4,-4,3
1522606825080470,6,17,5,-2,-4,4,4,16
1522606825080470,7,-1,-6,0,-7,-27,-5,-11
1522606825082476,-25,-14,-2,-1,-1,6,-1,-4
1522606825082476,27,-2,3,-2,2,1,-1,1
1522606825094508,4,-2,-6,-1,-2,6,0,0
1522606825094508,2,19,5,-1,-1,14,0,7
1522606825103532,-7,14,4,0,4,-16,-2,1
1522606825103532,14,11,2,-5,-8,3,2,9
1522606825118572,-8,-26,-7,5,4,17,-4,-20
1522606825118572,-32,-18,-2,-3,-7,-31,-3,-5
1522606825119575,-11,9,3,-3,2,12,-1,1
1522606825119575,29,-11,-2,2,2,6,0,3
1522606825140630,-1,22,0,-4,-6,5,2,5
1522606825140630,-12,-9,-2,4,1,19,-1,-5
1522606825142636,16,-9,-9,-3,0,-13,-5,-5
1522606825142636,-5,6,-1,-2,-1,1,0,-7
1522606825154668,-13,-11,-1,0,2,-9,0,-1
1522606825154668,12,2,-4,-6,-7,-9,-2,4
1522606825163692,-34,-16,-5,-3,4,21,0,-1
1522606825163692,29,24,1,1,1,10,-1,1
1522606825177729,-16,-16,-3,-3,-6,-41,-2,1
1522606825177729,-10,6,2,-1,1,2,-1,-3
1522606825179735,17,7,4,4,5,10,4,7
1522606825179735,-14,-10,-4,-5,-4,-5,-3,-6
1522606825200790,-11,-4,-4,0,2,36,0,-10
1522606825200790,-17,2,2,1,-5,-59,-2,4
1522606825201793,19,-1,-2,1,2,2,-1,6
1522606825201793,-36,-19,-2,0,-3,-4,-1,-7
1522606825213825,38,21,4,0,3,2,2,12
1522606825213825,-6,-34,-3,12,8,10,-1,-2
1522606825222849,-1,13,7,-2,8,8,2,5
1522606825222849,-23,-1,3,4,-1,36,6,5
1522606825237889,23,-14,-1,1,-11,-75,-6,-9
1522606825237889,14,25,0,-11,-6,15,1,11
1522606825239895,4,-2,-1,0,-3,-19,-5,-8
1522606825239895,-15,-10,-5,-3,1,11,-1,-4
1522606825260950,9,8,1,-2,1,8,-1,-4
1522606825260950,-28,-18,-12,-5,-1,0,-4,-15
1522606825261953,-25,-6,4,4,2,3,-1,-5
1522606825261953,60,39,7,-1,-1,-8,6,14
1522606825273986,-35,-28,-6,-5,-4,5,-3,-10
1522606825273986,18,8,2,-2,-2,-7,1,3
1522606825283009,-17,-7,-1,-1,4,28,1,0
1522606825283009,33,16,4,-1,0,-15,1,1
1522606825298049,-43,-2,-6,1,-2,3,-3,0
1522606825298049,-33,-24,-4,-7,-1,-6,-2,0
1522606825304066,57,8,-9,-4,-3,-8,-1,2
1522606825304066,-39,-24,-7,1,7,20,-2,-10
1522606825320108,35,9,1,0,-2,-2,0,3
1522606825320108,5,10,6,1,-2,2,0,3
1522606825322114,-4,4,-1,1,-4,3,1,-2
1522606825322114,-3,-11,-6,-5,-5,-22,-7,-8
1522606825334146,-24,7,-5,-4,2,23,1,0
1522606825334146,-2,3,3,2,2,0,-1,6
1522606825343170,16,3,0,2,-2,-5,4,-3
1522606825343170,-20,-18,-5,1,-1,2,0,-4
1522606825357207,5,16,-5,-5,-3,-6,-3,2
1522606825357207,58,-9,-2,0,0,7,1,1
1522606825364226,-30,-3,-1,1,1,31,5,-1
1522606825364226,-5,-1,-3,-6,-13,-65,-20,-14
1522606825380268,-4,4,8,5,5,-2,0,0
1522606825380268,-6,11,2,2,4,-9,-5,-8
1522606825382273,-43,-32,-10,-5,-6,12,1,-9
1522606825382273,52,19,3,-6,4,42,7,9
1522606825403329,-28,-2,3,8,-8,-14,7,3
1522606825403329,0,-1,-2,-1,10,27,6,-3
1522606825404332,22,-12,-6,-35,-6,-13,-9,-6
1522606825404332,24,11,-4,17,-19,-20,2,5
1522606825417366,-7,-3,5,0,2,5,-3,0
1522606825417366,46,27,2,2,-1,4,0,-10
1522606825424385,-110,-26,-6,4,0,2,-3,-16
1522606825424385,13,-11,-5,-17,-6,-7,-8,-6
1522606825440428,-2,-3,-5,-4,-1,5,-1,2
1522606825440428,13,4,1,2,-6,1,1,5
1522606825442433,17,8,1,-1,8,-14,-2,2
1522606825442433,0,3,0,-1,-2,-7,0,6
1522606825463489,-7,-14,-2,2,-1,8,6,-2
1522606825463489,5,3,1,-4,1,0,4,3
1522606825464492,28,8,-3,5,-3,-13,-5,4
1522606825464492,-44,-11,2,3,6,11,7,-3
1522606825477527,34,9,3,4,8,-6,-9,2
1522606825477527,-52,-13,-6,-6,-6,-4,-2,0
1522606825484545,35,14,2,4,0,-17,-3,3
1522606825484545,-24,-19,-4,-2,-1,10,0,-7
1522606825500588,37,15,3,-6,-1,9,-3,9
1522606825500588,5,-6,-2,-2,0,-14,1,2
1522606825502593,-27,-8,-1,4,2,25,-10,-8
1522606825502593,15,26,8,-10,13,-40,20,17
1522606825522646,2,-9,-2,11,-14,12,-4,-10
1522606825522646,22,2,-2,-1,-4,0,-9,0
1522606825524652,-13,-11,-3,-9,-5,3,0,5
1522606825524652,17,4,2,6,11,14,-2,-5
1522606825537687,-13,0,-2,-5,-1,21,4,0
1522606825537687,7,18,4,5,-3,-48,-3,-2
1522606825544705,-9,-5,-1,-1,-7,-8,-7,-1
1522606825544705,-22,-23,-8,-4,0,13,5,-5
1522606825560748,-33,-7,0,1,1,-7,0,-2
1522606825560748,14,7,-4,-3,-3,16,-4,-9
1522606825561751,13,6,-3,0,-8,-20,-1,1
1522606825561751,1,10,3,1,6,-2,-3,16
1522606825582806,-7,-15,-4,1,7,-6,0,-10
1522606825582806,-27,-2,-1,-2,0,46,1,3
1522606825584812,0,-3,-3,0,-4,-49,-2,-6
1522606825584812,15,5,-3,-1,-14,7,-5,2
1522606825596844,4,1,-2,-6,-4,-18,-3,-1
1522606825596844,-32,-16,-8,-9,-1,6,-7,-8
1522606825605868,37,14,13,8,4,6,4,-3
1522606825605868,-40,-32,-5,0,0,7,-5,-6
1522606825620908,5,0,-4,-6,3,1,2,-1
1522606825620908,19,14,0,0,-4,-10,3,9
1522606825621911,-24,-2,2,4,3,5,2,-3
1522606825621911,-1,-4,-6,-1,-1,4,-8,-15
1522606825642966,8,10,1,-1,-3,-6,-2,-8
1522606825642966,2,5,4,1,2,-7,1,8
1522606825644972,5,-3,-6,0,0,8,0,1
1522606825644972,2,8,6,3,-6,1,2,9
1522606825657004,5,-4,-3,-1,4,1,1,3
1522606825657004,19,14,0,3,3,-2,-3,-6
1522606825666028,-28,-25,-5,-4,-1,8,-4,-7
1522606825666028,4,12,4,4,-1,17,0,0
1522606825681068,5,7,2,-2,-2,-42,-3,4
1522606825681068,-6,6,3,8,10,6,4,1
1522606825682071,7,1,-2,-4,-4,17,2,9
1522606825682071,19,6,-5,-5,-9,-14,-4,-5
1522606825703126,5,-3,1,1,2,-4,0,-1
1522606825703126,-30,-2,4,1,-1,-1,3,2
1522606825705132,36,3,-4,-2,2,4,0,4
1522606825705132,-8,4,3,2,2,4,-1,10
1522606825717164,4,5,-4,-3,-1,2,0,-9
1522606825717164,-38,-19,-2,2,1,-7,-4,-11
1522606825726188,15,0,-2,0,3,21,5,4
1522606825726188,16,7,0,-2,-7,-39,-4,3
1522606825740225,-12,2,3,0,-1,6,-3,-4
1522606825740225,-15,-9,-1,-4,0,9,5,1
1522606825742231,2,9,4,1,1,-3,1,1
1522606825742231,38,6,-1,2,7,18,-3,-32
1522606825763286,-65,-31,-11,0,-2,7,-4,-15
1522606825763286,37,2,-1,-1,-9,-19,0,6
1522606825764289,-10,-8,-1,0,-1,2,2,3
1522606825764289,-14,0,3,-1,2,-1,-5,-39
1522606825776321,42,10,3,2,5,16,10,39
1522606825776321,13,-8,-5,-4,3,22,-1,-15
1522606825785345,-24,7,4,0,-7,-28,-3,-9
1522606825785345,14,2,-2,-1,0,11,2,12
1522606825800385,-35,-23,0,2,1,15,-4,-17
1522606825800385,1,-4,-5,-2,-7,-48,-4,-1
1522606825802391,13,-3,-3,-1,0,9,2,6
1522606825802391,3,23,8,1,1,-8,2,15
1522606825823446,-8,-3,1,2,2,17,1,2
1522606825823446,5,-18,-6,0,2,12,-2,3
1522606825824449,-4,10,-3,-4,-7,-13,-5,-9
1522606825824449,1,-11,-9,-2,-1,21,2,14
1522606825836482,-19,0,-1,-6,-9,-41,-2,-2
1522606825836482,29,6,1,1,5,16,2,8
1522606825845505,0,6,0,-2,-1,-2,-3,-1
1522606825845505,-7,-8,-2,-6,-5,-18,-3,6
1522606825860545,-4,-10,-2,5,5,19,4,6
1522606825860545,-7,-22,-4,4,0,-8,-3,-6
1522606825862551,3,1,-2,-5,2,11,-2,-2
1522606825862551,-10,-9,-2,-2,-2,-2,-3,6
1522606825882604,-10,5,-1,-3,-3,-8,-3,-3
1522606825882604,7,4,0,-4,-6,5,-1,5
1522606825884609,-13,0,3,7,9,19,4,-6
1522606825884609,-14,-18,-7,1,-4,-19,-2,-5
1522606825896641,55,19,0,-3,1,-19,-1,-3
1522606825896641,-13,6,3,-2,-5,16,-4,-17
1522606825905665,38,15,4,-1,-9,-36,3,22
1522606825905665,-59,-20,-1,2,4,13,4,-4
1522606825920705,-12,4,-1,0,0,11,2,3
1522606825920705,26,-1,-7,-4,2,1,-2,12
1522606825921708,1,-5,2,1,3,5,-1,-6
1522606825921708,-47,1,0,0,1,17,-1,-6
1522606825942764,35,16,3,-4,-8,-29,0,11
1522606825942764,-11,4,2,2,0,-2,2,-6
1522606825944769,2,-7,-2,-3,-1,-2,-4,2
1522606825944769,29,21,4,4,0,-7,3,7
1522606825956801,-17,-30,-8,-3,0,9,-5,-4
1522606825956801,18,13,0,-2,-4,-4,-3,7
1522606825965825,-33,-11,-3,-1,-3,-8,-3,-8
1522606825965825,28,7,0,-1,0,16,1,4
1522606825980865,-11,3,2,-1,-2,-4,0,-3
1522606825980865,5,6,2,0,0,3,7,10
1522606825981868,-10,-14,-3,-1,4,22,-2,-8
1522606825981868,16,-1,-1,-2,-8,-59,-8,4
1522606826002924,-34,-4,-2,-1,-5,10,-4,-5
1522606826002924,-13,2,2,0,4,-1,1,3
1522606826004929,-9,0,0,1,0,39,9,24
1522606826004929,50,-2,-4,-2,-8,-36,-10,-4
1522606826016961,0,-6,-2,-3,-4,-28,-6,-9
1522606826016961,-13,0,-1,-1,-4,-3,4,1
1522606826025985,-30,-4,-1,-1,3,5,0,-1
1522606826025985,24,2,-7,-3,1,7,1,-4
1522606826041025,-4,-11,1,-7,7,11,-4,0
1522606826041025,-15,-1,-1,9,-1,-6,-2,-10
1522606826042028,28,9,1,-4,-2,-21,2,-2
1522606826042028,-51,-7,1,-4,-2,6,-1,-3
1522606826063083,34,10,-1,-7,-36,30,5,-2
1522606826063083,-44,-9,-1,4,24,-7,-5,-4
1522606826065089,36,4,-6,-3,-5,-14,-5,-1
1522606826065089,19,7,0,-3,12,7,0,1
1522606826077121,-4,6,2,3,-17,16,8,-1
1522606826077121,-5,-9,-3,-2,3,19,-11,0
1522606826086145,-14,6,3,2,13,-35,0,-8
1522606826086145,-17,-20,-8,4,-12,13,-4,-8
1522606826100182,9,1,-1,-3,12,44,13,1
1522606826100182,1,-5,-1,6,-18,-87,-18,1
1522606826102188,4,3,1,-5,2,4,-9,1
1522606826102188,-3,-1,-1,-8,0,29,6,-1
1522606826123243,-9,-3,-2,4,23,-7,9,0
1522606826123243,13,7,-4,-12,-20,-16,2,-1
1522606826124246,-14,-9,-3,1,-13,-3,-8,-1
1522606826124246,0,6,2,0,3,-13,-5,-1
1522606826136278,-2,6,-1,2,5,8,-4,1
1522606826136278,7,-9,0,-4,1,18,3,0
1522606826145303,-3,-8,-3,2,-3,-12,-7,-7
1522606826145303,-18,-1,1,1,1,14,5,1
1522606826160342,14,6,0,5,10,-16,-2,1
1522606826160342,2,-3,-1,-7,-2,10,-5,1
1522606826162348,-11,-17,-4,1,1,19,6,-4
1522606826162348,-15,5,-2,1,2,-12,2,0
1522606826183404,-7,5,0,2,-4,-15,-7,0
1522606826183404,17,5,4,0,0,6,7,0
1522606826184407,-12,8,-4,-1,-1,12,3,-1
1522606826184407,11,6,4,-2,8,24,3,10
1522606826196439,21,11,0,3,-3,-26,-6,-2
1522606826196439,-30,-23,-4,-3,-7,15,1,-2
1522606826205462,-12,4,4,1,3,-2,1,-2
1522606826205462,23,9,-4,-2,-3,-13,-5,-4
1522606826220502,-10,-16,-3,-2,4,8,0,4
1522606826220502,23,20,2,2,1,11,5,0
1522606826222508,28,-4,-3,-2,-4,-10,2,3
1522606826222508,-32,-7,-4,0,-2,-4,-5,-5
1522606826243564,6,0,0,0,0,2,-3,-4
1522606826243564,-10,-3,-1,-1,5,27,5,-3
1522606826244567,-21,-1,0,0,-5,-16,-1,2
1522606826244567,18,3,-3,-4,-19,-59,-3,-4
1522606826256598,5,1,3,1,12,-5,-12,0
1522606826256598,-2,2,1,0,6,2,-1,-3
1522606826265622,-13,7,0,-3,-1,29,-1,-6
1522606826265622,-9,-21,-1,2,-3,-7,-2,-3
1522606826279659,28,10,-3,-7,-10,-11,0,-1
1522606826279659,-42,-17,-1,-1,1,-5,-1,-6
1522606826286678,41,12,1,1,7,16,1,1
1522606826286678,-60,-19,0,1,-2,5,-1,-3
1522606826302721,46,13,1,-1,-6,-2,-1,9
1522606826302721,-5,-4,-2,1,-1,6,3,-1
1522606826304727,12,7,-2,-5,-3,-20,-5,-1
1522606826304727,-36,-27,-6,0,2,7,-1,-8
1522606826325782,-9,6,1,0,-1,3,-2,-7
1522606826325782,4,12,0,-3,0,9,2,0
1522606826326785,5,-4,1,2,-3,-8,-1,3
1522606826326785,12,19,2,-1,5,25,2,8
1522606826339819,-27,-12,-4,-3,-6,-58,-3,-4
1522606826339819,16,5,-2,0,-2,-3,1,-2
1522606826346838,-2,-9,-2,1,-1,6,0,-9
1522606826346838,29,13,1,-2,2,19,-1,3
1522606826362881,-1,-14,-1,3,3,12,3,1
1522606826362881,-26,4,2,-3,-6,-9,-5,-4
1522606826364887,13,3,-4,-3,-4,-13,0,12
1522606826364887,6,3,1,0,-2,0,-1,-1
1522606826385942,0,12,1,-2,1,10,-1,-3
1522606826385942,-12,-13,-3,-2,1,-13,-3,-3
1522606826386945,9,-6,-4,-1,0,8,1,3
1522606826386945,16,-9,3,-3,-3,-11,-2,-10
1522606826399979,-23,-2,5,3,3,7,2,-1
1522606826399979,42,23,2,1,-1,3,1,16
1522606826406998,-66,-43,-11,2,1,-2,2,-11
1522606826406998,5,21,-2,-2,4,25,-3,2
1522606826423041,35,18,4,0,-10,-56,-2,6
1522606826423041,-15,-7,1,0,-1,6,-2,-41
1522606826425047,-4,-5,-1,-8,-4,-12,-3,2
1522606826425047,5,2,2,3,5,6,4,1
1522606826445100,-11,1,-4,-11,1,34,0,-5
1522606826445100,-26,4,0,10,-5,-13,-3,0
1522606826447105,6,-5,6,5,4,-4,-1,0
1522606826447105,-1,-5,-3,-4,-1,-3,-1,0
1522606826460139,-14,-6,-5,-1,-1,14,-2,-1
1522606826460139,20,4,-1,-6,-6,-12,1,1
1522606826467158,-38,10,-3,-3,-2,3,-1,-3
1522606826467158,29,-7,0,6,2,-2,2,5
1522606826483201,28,14,7,6,8,18,4,8
1522606826483201,-18,-26,-9,-4,-3,-7,-8,-6
1522606826485207,12,12,6,-5,-2,-10,-4,-7
1522606826485207,-15,-1,-1,6,-1,-1,-1,-9
1522606826506262,-14,-1,1,1,3,12,-1,-4
1522606826506262,18,8,-4,-1,1,-1,1,0
1522606826507265,-2,-16,-7,-4,-5,-8,1,3
1522606826507265,13,18,15,-1,-4,-12,0,6
1522606826520300,-14,-29,-12,-6,0,46,1,-4
1522606826520300,13,-5,-4,3,-1,-38,2,15
1522606826526316,-9,9,11,-4,-4,-14,-3,-6
1522606826526316,7,-1,5,4,2,3,0,-1
1522606826543361,5,4,-6,1,-1,22,4,10
1522606826543361,22,0,10,-1,-3,-32,-2,6
1522606826544364,2,3,-16,-1,-4,-32,-4,0
1522606826544364,-28,-2,1,-3,0,7,-1,-1
1522606826565420,10,6,2,0,1,9,3,-1
1522606826565420,8,1,-3,-6,-2,-22,-14,2
1522606826567425,29,-7,3,5,2,22,6,8
1522606826567425,-24,-3,-8,-5,-3,-6,-2,-5
1522606826579457,-44,-18,-5,-2,0,-15,-3,-16
1522606826579457,29,8,-2,-2,11,15,-1,6
1522606826588481,-53,-9,4,6,0,37,9,-4
1522606826588481,34,-14,-11,-11,-2,-31,-11,1
1522606826603521,-10,6,0,3,-5,7,-4,-1
1522606826603521,-13,-13,-4,-5,-12,-6,9,2
1522606826604524,-7,9,1,-4,6,18,2,-5
1522606826604524,36,-10,-11,-2,-1,42,-4,-1
1522606826625580,-38,-4,0,0,-4,-75,3,-7
1522606826625580,4,9,-2,-1,1,15,9,0
1522606826627585,-6,-12,-1,0,-1,1,0,4
1522606826627585,-16,-12,-9,-4,-6,-43,-6,-4
1522606826639617,4,-5,3,7,7,25,-13,-2
1522606826639617,9,19,9,8,1,47,18,24
1522606826648641,-50,-18,-1,1,0,-60,-10,-11
1522606826648641,36,17,-1,1,2,21,5,-2
1522606826662678,42,7,0,-7,-9,5,-5,3
1522606826662678,-74,-28,-11,-3,-3,-33,-38,-22
1522606826664684,27,30,3,1,9,38,23,7
1522606826664684,0,-12,-1,-2,-8,-33,-5,12
1522606826685740,-37,-38,-11,-6,-11,3,6,-13
1522606826685740,8,10,3,0,-4,-12,3,-3
1522606826686742,37,8,0,-1,0,5,-7,13
1522606826686742,-39,1,1,-1,0,-7,-20,-14
1522606826698774,11,15,4,1,8,41,-2,-2
1522606826698774,54,7,-1,-2,7,-30,24,-1
1522606826707799,-63,-19,0,-6,-10,11,12,3
1522606826707799,21,5,-8,2,-5,-34,-26,6
1522606826722838,-36,-16,-5,-2,-1,-15,-10,-10
1522606826722838,2,14,4,1,5,64,-16,-4
1522606826724844,28,1,-4,-1,-7,-65,-19,-17
1522606826724844,-20,22,10,3,5,29,24,6
1522606826745900,37,-12,-3,1,-6,-39,-5,0
1522606826745900,-51,-11,-2,-1,8,62,5,0
1522606826746902,78,24,-5,-7,-8,-62,1,4
1522606826746902,1,-11,2,5,-1,0,5,-7
1522606826758934,-10,-2,1,1,3,-3,3,14
1522606826758934,12,15,2,3,-3,5,-3,-8
1522606826767958,40,-13,1,-2,-2,45,13,5
1522606826767958,-64,-17,-4,-7,2,-32,-7,-19
1522606826782998,-3,22,9,3,1,-23,5,17
1522606826782998,-4,-35,-13,-9,-10,-6,-12,-8
1522606826785004,49,16,-6,-3,3,44,-4,8
1522606826785004,8,14,-1,-1,-4,-16,-4,-17
1522606826806060,-32,-30,-6,-4,-2,33,6,-3
1522606826806060,-25,-7,4,2,-4,-60,1,-2
1522606826807062,-3,15,1,4,1,2,-9,3
1522606826807062,23,-11,0,3,5,20,10,-2
1522606826819094,-24,13,-2,-1,-4,1,1,-10
1522606826819094,16,2,0,-1,1,26,4,7
1522606826828118,60,18,2,-1,-2,-9,-3,6
1522606826828118,-43,-30,-2,1,0,-28,4,5
1522606826843158,1,17,8,-1,3,1,2,8
1522606826843158,-28,-8,-5,-2,1,12,-10,-15
1522606826845164,13,11,1,1,1,18,0,-1
1522606826845164,-6,4,0,-3,-1,28,21,6
1522606826865217,28,-1,-5,-2,5,0,-3,0
1522606826865217,-7,-1,2,-1,-4,-33,1,0
1522606826867222,-44,-12,-2,-1,-6,6,-4,-2
1522606826867222,4,0,-1,-4,-3,30,-4,-4
1522606826879254,15,1,-6,-3,-1,1,0,-7
1522606826879254,11,-13,-2,-1,5,-1,-14,4
1522606826888279,-82,-28,-1,2,-5,-16,-9,-13
1522606826888279,62,32,0,-3,-8,-38,6,3
1522606826903318,29,7,4,1,5,38,18,7
1522606826903318,8,5,-7,-4,-6,-40,-9,3
1522606826904321,-5,2,-4,-2,-2,18,-9,-13
1522606826904321,-5,4,6,3,6,25,4,9
1522606826925377,0,8,-2,-3,0,-30,-18,2
1522606826925377,20,-12,1,-3,-1,42,19,10
1522606826927382,-14,7,3,4,0,-20,-3,-14
1522606826927382,-23,-18,-7,-7,-1,2,-6,-5
1522606826939414,21,13,1,-2,-2,-20,-5,-1
1522606826939414,-33,-10,-2,-2,-2,-1,-5,-8
1522606826948439,2,-4,2,2,4,21,10,-2
1522606826948439,-19,-5,-1,1,1,8,-4,7
1522606826963478,11,-2,1,4,1,4,-2,-2
1522606826963478,-19,1,2,1,0,9,8,5
1522606826964481,42,-9,-9,-2,0,-9,-3,9
1522606826964481,15,7,-2,-2,1,47,-1,-3
1522606826985537,-42,-7,-2,0,-4,-79,-7,-11
1522606826985537,-18,7,0,2,-6,2,-5,-12
1522606826987553,-6,2,1,-3,-5,-18,2,3
1522606826987553,5,-1,1,1,3,12,6,8
1522606826999574,10,-3,-1,2,2,30,12,5
1522606826999574,34,10,4,5,7,18,5,20
1522606827008599,-4,-4,-4,-3,1,-8,-7,-10
1522606827008599,15,9,-2,-6,-6,-7,-6,3
1522606827023638,-43,-33,-9,-8,-6,-2,-3,-10
1522606827023638,-14,2,1,-1,-2,-12,0,2
1522606827024641,22,11,2,-1,2,2,-2,10
1522606827024641,17,13,6,8,5,-6,7,7
1522606827045697,-2,-3,-3,-1,-3,20,-5,-6
1522606827045697,4,-6,-5,-3,1,-14,3,7
1522606827047702,-34,-4,-2,-1,-2,-15,-5,-18
1522606827047702,12,-19,-5,-6,-15,-71,-6,-9
1522606827059734,-32,-6,-7,-2,-2,4,-7,-8
1522606827059734,-6,7,1,0,3,13,0,-10
1522606827067755,56,11,1,1,5,23,3,10
1522606827067755,-20,0,-1,-2,0,-5,-6,-3
1522606827082795,19,18,1,1,-3,-7,-2,-5
1522606827082795,-2,-5,0,1,-1,5,1,-6
1522606827084801,5,6,3,4,3,-8,-2,-3
1522606827084801,-2,-9,-2,0,-1,35,5,-1
1522606827105857,8,8,3,-2,-2,-13,8,1
1522606827105857,-4,-3,-2,-1,1,5,0,-8
1522606827106859,19,-7,-6,-3,0,14,-8,-11
1522606827106859,-16,-3,-2,-3,-3,0,-4,-2
1522606827118892,-7,-17,-2,-1,6,-8,-5,2
1522606827118892,3,2,-4,1,-1,8,-3,-4
1522606827127915,-23,-20,3,-3,-10,-34,6,14
1522606827127915,2,11,-4,0,3,25,-1,4
1522606827142955,10,3,-1,0,-2,-5,-2,-7
1522606827142955,-13,-6,-4,-4,-1,-6,-2,-6
1522606827144961,-22,-15,-3,4,5,13,-2,-2
1522606827144961,3,15,-1,-3,-4,-2,-4,-3
1522606827166017,21,-6,0,-6,-5,-6,1,13
1522606827166017,8,-4,0,-1,4,-1,-6,-8
1522606827167020,-28,-1,1,-1,1,7,3,0
1522606827167020,-4,-4,-2,-1,-1,-41,0,-2
1522606827179051,-52,-9,-1,3,4,22,4,1
1522606827179051,41,9,-4,-3,-6,-10,-4,-1
1522606827188076,-4,10,0,-2,2,30,4,2
1522606827188076,10,-1,8,4,1,-25,-1,13
1522606827202113,17,7,-3,0,-5,0,-6,-14
1522606827202113,-19,-13,-7,-5,-3,-1,2,5
1522606827209131,2,16,2,1,1,-7,-5,-4
1522606827209131,-22,-46,-6,-3,5,30,-2,-2
1522606827226177,9,4,2,-1,-5,-41,-5,3
1522606827226177,18,19,5,1,0,-1,2,11
1522606827227180,-19,-19,-10,-7,-6,-1,-1,-6
1522606827227180,-17,5,1,3,1,17,7,-7
1522606827239211,13,-10,0,1,0,1,4,5
1522606827239211,6,12,0,-4,-2,-5,-3,-5
1522606827248236,-7,5,3,-2,-1,-13,-8,12
1522606827248236,-22,-4,-3,-1,0,4,-4,-13
1522606827262273,9,0,1,5,2,51,0,-3
1522606827262273,-18,-6,2,1,-6,-65,9,5
1522606827269291,-6,-4,-3,-3,-4,-28,-3,-5
1522606827269291,19,13,2,-1,-1,6,-3,3
1522606827285334,-25,7,3,1,-1,-24,-3,2
1522606827285334,6,-7,-5,-3,2,35,-4,-2
1522606827287340,-1,-19,-4,-3,-2,4,-1,-6
1522606827287340,-18,-10,-5,-2,5,-3,-1,-2
1522606827308396,43,15,1,0,-6,-9,-15,5
1522606827308396,-41,-8,2,-2,-1,18,7,3
1522606827309398,3,-2,-4,-3,-5,-7,19,5
1522606827309398,-11,8,-1,0,5,9,1,-2
1522606827322433,-12,-18,-5,-3,2,2,6,-2
1522606827322433,39,9,0,-1,0,-7,-12,5
1522606827329451,-46,1,-1,2,0,35,-4,-11
1522606827329451,36,1,-1,0,-6,-30,-6,3
1522606827345494,-6,-5,0,-1,-2,-9,0,3
1522606827345494,8,-8,-2,-4,-2,-4,-8,-2
1522606827347499,17,15,3,-1,6,8,5,4
1522606827347499,-23,3,2,0,-5,-3,-3,2
1522606827368556,-9,-11,-6,-3,-4,6,-4,-9
1522606827368556,43,14,-1,2,1,-29,0,4
1522606827369558,-29,6,5,2,3,23,8,-2
1522606827369558,7,-23,-5,-3,-4,-9,-13,0
1522606827382593,-13,6,2,-3,-2,18,3,-3
1522606827382593,-21,-1,-1,-1,-4,21,8,-3
1522606827389611,-14,-4,-5,0,-2,-32,-21,0
1522606827389611,64,7,-1,-2,-4,-11,0,3
1522606827405654,-16,9,2,3,6,46,7,3
1522606827405654,-24,-21,-3,2,-4,-41,1,-8
1522606827407659,34,1,-2,-2,-1,-20,-6,-1
1522606827407659,-18,2,-3,1,-3,-2,-6,-1
1522606827427713,14,7,0,0,11,33,3,3
1522606827427713,25,23,4,-3,0,-17,-18,11
1522606827429718,-18,-14,-5,-2,-8,-35,4,-11
1522606827429718,-28,1,1,-2,0,19,1,-7
1522606827442753,16,-9,-6,-3,-6,-21,-5,-3
1522606827442753,0,7,3,1,-3,7,6,-2
1522606827448769,3,-6,1,3,9,21,-4,4
1522606827448769,-15,7,1,-1,0,4,7,6
1522606827465814,-3,-5,-4,-2,2,-16,-2,-18
1522606827465814,18,-13,-5,0,-2,22,-5,-1
1522606827466817,42,28,3,-3,-7,27,-2,0
1522606827466817,-40,-26,-4,-2,-6,-51,3,-10
1522606827495894,4,3,5,1,1,-16,5,8
1522606827495894,-12,5,3,5,8,17,0,-2
1522606827496897,10,-13,-6,-2,-3,5,14,2
1522606827496897,37,21,0,-1,0,19,1,4
1522606827502913,-10,-6,-2,-1,0,-16,0,7
1522606827502913,-9,-7,2,3,6,22,7,3
1522606827508929,-8,-1,-8,-6,-7,-3,-15,-12
1522606827508929,-5,-4,3,0,1,-2,4,-1
1522606827525974,13,9,2,2,-2,-16,-1,1
1522606827525974,11,6,1,-1,-2,7,1,-2
1522606827526977,19,12,3,2,12,34,8,11
1522606827526977,-77,-50,-7,-3,-3,-15,-13,-16
1522606827548033,-2,-6,-5,-5,-11,-4,9,1
1522606827548033,3,-5,-5,-5,-2,16,-1,1
1522606827550038,17,7,5,-1,1,-14,0,17
1522606827550038,-4,13,1,1,3,17,5,-9
1522606827562070,-18,-7,4,5,3,9,1,-3
1522606827562070,-23,-12,-5,-4,-5,-16,0,-6
1522606827571094,8,-6,-1,-1,-2,2,-1,-1
1522606827571094,29,22,-1,0,2,16,0,8
1522606827586134,-7,2,-1,-3,-2,9,-6,2
1522606827586134,38,34,0,1,-3,-31,2,2
1522606827587137,-26,-32,0,1,-1,-14,-7,-6
1522606827587137,-35,-4,-3,-2,3,20,1,-1
1522606827608193,42,9,-10,-4,-1,-25,-3,-7
1522606827608193,-28,-14,-7,-3,-1,36,-10,-36
1522606827610198,11,-1,2,-3,-6,-45,-1,6
1522606827610198,-2,-11,-1,5,4,-1,4,1
1522606827622230,-3,24,4,-5,-8,9,-1,-2
1522606827622230,12,22,5,-1,3,6,4,16
1522606827630251,2,-19,-7,-1,-5,-11,-6,-9
1522606827630251,17,6,7,3,1,12,6,5
1522606827645292,-10,-10,-4,-4,0,-7,-6,-5
1522606827645292,-12,6,7,5,0,-10,5,3
1522606827647297,-2,-6,-5,-3,0,7,-2,-3
1522606827647297,22,3,-5,2,0,17,-4,-27
1522606827668353,-4,-6,-1,1,-5,-42,-2,8
1522606827668353,-28,-9,-3,-3,1,8,0,-4
1522606827669356,-12,6,0,-3,-2,6,4,6
1522606827669356,40,20,-2,-3,-6,-2,-7,-7
1522606827681387,-10,-18,-1,3,2,17,0,0
1522606827681387,1,-8,2,-5,-7,-32,-3,-8
1522606827690411,-29,4,-1,-7,0,18,1,4
1522606827690411,-16,7,1,-3,0,-6,-2,1
1522606827705452,13,-9,-1,2,-1,-5,-3,-1
1522606827705452,6,-8,-2,0,0,4,-1,5
1522606827707457,3,0,-3,-1,0,2,-5,-9
1522606827707457,-18,11,2,-2,1,-13,2,18
1522606827728513,36,9,-1,-3,-2,21,14,8
1522606827728513,5,-10,-3,6,-4,14,3,16
1522606827729516,11,12,3,3,0,-16,-5,6
1522606827729516,-28,-26,-6,-5,-9,-7,1,-1
1522606827741547,1,11,1,-2,4,-5,-6,3
1522606827741547,-8,-2,-5,-6,-4,-3,1,-8
1522606827750571,12,4,4,6,3,12,-6,-4
1522606827750571,-5,8,-3,-2,0,22,6,9
1522606827765612,-17,-3,-4,-8,-9,-60,-13,-4
1522606827765612,-6,-1,2,0,-2,0,-21,0
1522606827767617,-9,3,0,1,1,16,0,2
1522606827767617,42,-1,1,-1,-3,-15,6,-1
1522606827787670,-22,3,3,4,4,15,4,-11
1522606827787670,-9,-24,-6,0,5,23,-4,1
1522606827789676,43,13,1,7,1,-35,1,6
1522606827789676,-67,-12,3,5,-1,-16,-8,-5
1522606827801708,-12,-7,-2,-2,0,-5,-9,-6
1522606827801708,42,9,-3,-3,-6,-75,-20,1
1522606827810731,-8,6,0,0,-2,-7,28,-2
1522606827810731,8,-9,-2,-5,-5,8,-11,-1
1522606827825772,-10,-12,-3,0,2,-1,-9,-10
1522606827825772,-11,-4,-3,-4,-1,29,10,-3
1522606827826774,-19,-4,-1,-2,-4,33,-12,-4
1522606827826774,78,33,1,-4,-14,-90,-24,1
1522606827847830,-49,-30,-11,-5,1,24,-8,-8
1522606827847830,5,14,1,1,7,20,7,-1
1522606827849836,-24,-8,0,-3,-2,-5,3,-5
1522606827849836,-2,0,2,1,4,7,6,-1
1522606827861867,26,10,1,-2,0,11,-3,4
1522606827861867,4,-20,-6,-3,-5,-8,17,0
1522606827870891,-34,1,0,-9,-6,0,-7,-12
1522606827870891,18,3,4,1,3,20,-4,6
1522606827885932,16,1,5,5,2,-3,13,11
1522606827885932,-13,11,3,0,1,15,6,0
1522606827886934,11,-1,-2,-1,5,-16,-11,5
1522606827886934,-7,-13,-3,-1,-8,-26,9,-1
1522606827907990,9,7,0,0,-4,33,-6,-1
1522606827907990,-7,2,-2,-3,-5,-38,-17,-5
1522606827909996,-5,-11,-2,4,0,-3,28,2
1522606827909996,3,4,1,1,3,20,14,1
1522606827922027,-7,12,-4,-3,-6,-8,2,-4
1522606827922027,-9,-16,-2,2,3,17,-10,1
1522606827931051,-1,1,-4,-1,-1,-22,-1,-8
1522606827931051,-12,-4,-5,0,3,-4,-43,-7
1522606827946092,21,11,4,2,0,10,11,10
1522606827946092,-12,0,-3,-3,1,43,2,-7
1522606827947094,0,3,-3,-4,-10,-67,-18,2
1522606827947094,11,-8,-5,-2,-2,8,19,3
1522606827968150,14,2,4,3,4,2,-2,5
1522606827968150,-22,-4,-3,-1,1,10,4,-11
1522606827970156,5,9,6,5,7,10,-3,-2
1522606827970156,5,-22,-10,-7,-5,35,-1,-2
1522606827982187,-30,-3,2,1,-6,-84,-11,-5
1522606827982187,28,3,0,-3,2,-9,3,5
1522606827991211,-7,-12,-2,-2,2,58,-4,-2
1522606827991211,7,11,3,0,-6,-27,3,-2
1522606828005249,-16,-5,-2,1,5,21,6,-4
1522606828005249,24,10,1,0,-2,-20,-9,-3
1522606828007254,-1,5,5,4,-4,8,-3,-1
1522606828007254,-1,-3,-5,-2,6,16,11,-5
1522606828028310,3,-4,-2,-2,1,33,-17,2
1522606828028310,-29,3,-2,-3,-2,7,21,1
1522606828029313,39,17,4,-1,-7,-4,-14,14
1522606828029313,-34,-2,0,5,7,6,1,-7
1522606828041345,-19,-24,-4,-3,-2,1,8,-6
1522606828041345,11,4,5,4,6,24,5,5
1522606828050368,-7,-6,-2,-1,-3,-4,4,2
1522606828050368,16,9,0,-1,-2,14,7,4
1522606828065409,-12,-2,-4,0,-3,-30,-6,-10
1522606828065409,-7,7,6,3,1,-1,-4,1
1522606828067414,17,4,-4,-4,2,22,8,-7
1522606828067414,5,-12,-1,0,-3,11,1,6
1522606828088470,8,4,-5,-5,-1,-28,-2,2
1522606828088470,-11,-2,3,0,-5,21,16,2
1522606828089473,-39,-30,-7,-4,1,-3,-9,2
1522606828089473,-7,-1,-2,4,7,20,-16,-6
1522606828101505,32,10,0,-2,-4,24,17,-4
1522606828101505,4,-11,0,3,-4,-41,2,5
1522606828110528,-20,-6,-3,1,5,-2,1,-3
1522606828110528,-2,7,4,-2,-3,-9,2,4
1522606828124566,6,5,-3,-4,-2,34,-5,4
1522606828124566,-12,-9,-3,-3,-3,-18,-7,-5
1522606828133590,24,14,0,0,-3,11,4,2
1522606828133590,-33,-24,-5,0,-2,-1,-6,0
1522606828148630,21,3,1,5,3,5,7,1
1522606828148630,24,3,-7,-5,-3,-3,-3,-3
1522606828149633,1,6,2,1,6,4,-6,6
1522606828149633,5,11,4,-1,-6,-15,1,-7
1522606828161665,-10,-16,0,-3,-6,-27,-3,4
1522606828161665,-2,0,-5,-1,0,36,2,8
1522606828170689,-6,-4,0,-1,-5,-45,-6,-25
1522606828170689,24,20,1,0,4,5,6,5
1522606828184726,-45,-7,0,0,3,13,-5,3
1522606828184726,-1,-3,-1,-3,-9,-13,-11,1
1522606828191745,36,7,-8,0,-3,10,9,3
1522606828191745,-54,-30,-7,-5,-4,-3,-2,-18
1522606828207787,4,10,2,3,0,-7,-3,1
1522606828207787,-3,-3,-7,-5,-3,-15,-7,-3
1522606828209793,-11,-16,-2,4,2,16,-1,-8
1522606828209793,41,22,1,-2,-4,-31,4,17
1522606828230848,-3,11,0,-2,0,8,-1,-1
1522606828230848,-3,-15,0,0,1,-13,-2,-2
1522606828231851,-4,13,2,-8,-6,7,-3,3
1522606828231851,14,20,2,1,4,-1,-3,2
1522606828244886,21,-16,-2,3,11,78,16,2
1522606828244886,2,16,0,1,-13,-90,-10,-17
1522606828251905,-35,-15,-3,-4,-8,-12,-1,3
1522606828251905,-22,1,2,0,2,5,-3,-17
1522606828267947,5,16,10,1,2,-9,-2,12
1522606828267947,15,-3,-3,-4,-1,13,-16,-1
1522606828269953,11,-6,-1,0,-1,19,13,3
1522606828269953,-16,-7,-3,0,-3,-33,0,1
1522606828291008,43,29,6,0,-5,-15,1,10
1522606828291008,-51,-41,-7,0,2,11,-5,-18
1522606828292011,29,1,-3,0,0,-18,-1,4
1522606828292011,-23,-25,-4,0,2,26,0,6
1522606828306049,8,18,2,1,-3,8,5,2
1522606828306049,15,15,2,-3,-4,-32,-12,6
1522606828312065,-22,26,1,0,4,-1,-4,-1
1522606828312065,35,-29,-9,-3,5,63,5,1
1522606828328107,-47,-19,-1,0,-8,-74,-3,5
1522606828328107,26,32,12,3,8,14,7,14
1522606828330113,8,-9,-2,1,0,8,-4,-13
1522606828330113,2,10,5,1,2,-30,-5,17
1522606828350166,-13,-14,-9,-6,-10,-9,0,-11
1522606828350166,15,20,7,5,-1,27,8,15
1522606828352172,-5,-12,-6,-2,-2,-26,-5,-8
1522606828352172,-50,-3,-4,-3,1,20,2,-9
1522606828365206,45,-14,-12,-7,-1,-28,-12,6
1522606828365206,-23,-18,2,2,2,-4,-1,3
1522606828372225,-7,-3,3,-2,-2,23,-19,-2
1522606828372225,52,15,2,2,-4,13,11,-1
1522606828388267,-38,8,-2,-6,-2,12,15,4
1522606828388267,6,-14,-8,-2,2,6,-1,-5
1522606828390273,3,4,1,0,0,-6,-4,3
1522606828390273,-11,-7,0,-3,-2,15,12,0
1522606828410326,-5,20,2,-2,-2,-3,-7,-8
1522606828410326,30,-2,-3,1,0,-2,-3,-3
1522606828412332,-31,-25,-6,-3,1,5,6,-5
1522606828412332,12,2,1,1,-1,9,-10,-2
1522606828425366,-5,-12,-2,-3,-3,-30,4,-6
1522606828425366,-25,-2,-5,-2,4,2,-2,-5
1522606828431382,8,1,0,1,-4,36,7,6
1522606828431382,29,9,-2,-4,-9,-57,-9,2
1522606828448427,-7,5,1,3,4,24,-6,-2
1522606828448427,-23,-17,0,-1,-4,-25,5,-2
1522606828449430,12,-11,-4,-3,-1,-13,-13,-1
1522606828449430,-10,9,1,-1,1,0,-1,-1
1522606828470486,-6,4,2,3,1,27,-4,-9
1522606828470486,-8,-13,-6,-3,0,1,10,1
1522606828472491,-1,3,1,5,6,14,16,7
1522606828472491,-46,-11,2,1,-3,6,-26,-10
1522606828484523,27,-8,-9,-5,-10,-27,10,-11
1522606828484523,9,12,1,-1,0,7,7,1
1522606828493547,-7,-6,-3,-2,-2,-30,11,-3
1522606828493547,15,7,0,-3,-3,14,6,1
1522606828508587,-26,3,-1,2,7,15,-25,-2
1522606828508587,-12,-21,-5,-3,-8,13,5,-4
1522606828509590,15,8,7,2,-4,-31,-19,1
1522606828509590,3,11,5,3,3,-53,3,-1
1522606828530646,15,-15,-6,-7,-4,32,-5,-6
1522606828530646,-7,14,5,2,3,2,11,-1
1522606828532652,-8,-3,-5,-3,-4,15,-5,-4
1522606828532652,27,1,0,-1,-2,-15,-9,-1
1522606828544683,-4,-7,-1,1,2,12,10,3
1522606828544683,12,11,1,1,3,12,1,-4
1522606828553707,-31,-12,0,-2,-1,-4,-27,-3
1522606828553707,20,11,1,0,1,44,10,3
1522606828567744,-12,-11,-1,1,-4,-45,8,0
1522606828567744,-11,4,0,-3,-5,22,5,-8
1522606828569750,25,3,-4,-2,0,-50,-29,-3
1522606828569750,-3,-9,-1,2,6,3,2,0
1522606828590806,-29,-17,-2,-3,0,-5,-33,-4
1522606828590806,12,12,0,2,-3,-3,38,17
1522606828591809,-5,-6,-6,-5,-3,-13,9,-8
1522606828591809,1,5,-2,0,-2,10,16,0
1522606828603841,1,1,4,3,10,-4,-2,2
1522606828603841,-1,-9,-2,0,-3,13,-18,1
1522606828612865,-10,-13,-6,-9,-11,22,22,0
1522606828612865,-1,4,-2,7,3,-27,-30,-4
1522606828627904,4,5,0,0,2,91,10,-1
1522606828627904,3,15,0,2,-5,-107,-24,-8
1522606828629910,10,-5,2,0,-1,54,15,2
1522606828629910,-4,-8,-4,-3,-7,-9,-4,-7
1522606828650966,7,-8,-4,0,3,4,12,2
1522606828650966,9,-13,-4,1,5,46,13,2
1522606828651969,-7,10,0,-3,-1,-53,-33,-5
1522606828651969,-6,10,2,0,-3,7,7,-2
1522606828664001,3,-12,1,1,-7,-22,-14,-3
1522606828664001,-9,-9,-3,-3,4,26,2,3
1522606828673025,-7,2,3,4,-1,16,19,3
1522606828673025,-7,-8,-5,-5,-13,-5,-6,-3
1522606828688064,2,11,0,3,7,-42,-9,0
1522606828688064,25,4,3,1,-1,4,5,3
1522606828690070,-47,-17,-2,1,8,25,4,-1
1522606828690070,9,-2,3,3,3,-15,7,7
1522606828711126,9,7,0,-1,-7,20,13,-1
1522606828711126,1,3,-3,-3,-6,-27,-20,-7
1522606828712129,1,5,-2,4,8,16,4,0
1522606828712129,9,-2,-3,-5,0,-1,19,3
1522606828724160,-15,-13,-5,-1,1,27,-9,-1
1522606828724160,-3,8,1,1,4,23,1,3
1522606828733185,5,5,-2,-2,-3,-7,-2,-2
1522606828733185,4,-6,-3,-4,-3,6,5,-3
1522606828748225,-6,-1,-1,-1,-3,-3,4,-16
1522606828748225,-29,-16,-7,-7,-3,-6,-13,3
1522606828750230,1,2,2,1,6,5,9,1
1522606828750230,-8,-6,0,1,2,18,-5,-6
1522606828770283,31,28,8,-2,-9,-47,-1,8
1522606828770283,25,2,-2,-6,1,3,-7,4
1522606828772289,-32,3,-4,2,-1,20,1,-11
1522606828772289,-10,-5,1,0,0,-27,-3,-4
1522606828784320,-5,-10,-6,-2,-5,-16,-4,7
1522606828784320,11,-5,-2,-2,-2,2,-5,-16
1522606828793345,23,9,4,0,-1,7,1,6
1522606828793345,17,21,3,2,4,-4,-1,8
1522606828808384,-25,-15,-2,0,1,-3,3,-5
1522606828808384,-24,-3,2,4,-4,-2,-4,-2
1522606828809387,12,-11,-8,-1,0,5,4,0
1522606828809387,-18,-5,-6,-3,0,0,-4,-8
1522606828830443,25,11,4,1,4,1,5,12
1522606828830443,-15,3,3,5,5,26,-1,-5
1522606828832449,23,9,3,-3,-5,-47,2,9
1522606828832449,20,11,-5,-15,-6,4,2,11
1522606828844481,-26,-1,0,6,5,13,3,0
1522606828844481,6,-9,-4,-1,-2,7,-4,-7
1522606828853505,-30,-9,0,1,-3,-17,-5,-5
1522606828853505,7,-2,5,3,1,14,3,-1
1522606828868545,-13,-1,-3,-4,-5,-22,0,6
1522606828868545,-24,11,0,3,3,15,4,6
1522606828869548,60,17,0,1,2,12,0,-5
1522606828869548,-23,-42,-11,-8,-9,-31,-10,-3
1522606828890603,11,3,3,1,1,24,3,10
1522606828890603,-34,-12,-8,-6,-3,-13,0,-5
1522606828892609,57,20,3,2,0,-9,-2,-3
1522606828892609,-75,-14,1,3,7,26,4,2
1522606828904641,33,9,1,-2,-2,-9,-8,-19
1522606828904641,4,2,1,-4,-5,-20,-12,-3
1522606828913664,-12,-4,1,2,0,13,10,3
1522606828913664,23,15,-2,-1,1,7,-1,-6
1522606828927702,-11,-9,6,7,5,43,3,-3
1522606828927702,3,12,4,0,-9,-95,-4,2
1522606828929708,-9,-19,-5,-4,-3,7,2,14
1522606828929708,0,3,0,5,1,-4,3,5
1522606828950763,-5,10,-1,-2,1,-10,-11,7
1522606828950763,38,-2,-3,-2,4,56,11,1
1522606828951766,-15,-9,-2,-2,-3,-10,-3,-11
1522606828951766,-33,13,3,1,4,-6,0,-3
1522606828964801,42,-8,-7,-7,-8,-15,-1,4
1522606828964801,-37,-33,-1,5,-2,11,-4,-12
1522606828972822,-16,-6,1,-1,-2,-16,4,2
1522606828972822,0,0,0,1,3,40,-14,-3
1522606828987862,5,3,-1,0,0,-12,4,-6
1522606828987862,13,8,-2,-3,-1,0,-2,3
1522606828989868,-5,-8,-4,-4,-1,2,-1,-3
1522606828989868,-8,4,2,1,-3,-10,1,-5
1522606829010923,2,9,-3,-4,-5,-3,10,-1
1522606829010923,6,-9,-1,0,2,0,-5,2
1522606829011926,7,1,0,-1,3,41,-1,-1
1522606829011926,-9,15,-2,-3,-5,-37,-4,-6
1522606829023958,-26,-29,-6,-2,-1,-17,-8,4
1522606829023958,-25,-23,-4,-6,-6,-43,0,-2
1522606829032982,11,10,4,2,2,-10,-6,-2
1522606829032982,17,-1,-4,0,1,35,-3,-3
1522606829048022,-16,-7,1,1,-1,-17,-12,-6
1522606829048022,1,19,6,6,10,25,23,6
1522606829050027,6,-1,0,-5,-6,-14,-5,-3
1522606829050027,-26,-18,-6,-1,-3,0,8,1
1522606829071083,28,8,-4,-3,-3,1,-14,3
1522606829071083,-5,-11,-6,-6,-1,33,10,-3
1522606829072086,-16,1,-4,-18,-3,0,1,-5
1522606829072086,13,-1,-1,19,-8,-17,10,5
1522606829084118,-12,0,2,-2,6,-2,-28,-4
1522606829084118,10,17,4,5,3,-2,-10,1
1522606829093142,6,-15,-4,-2,0,29,-2,4
1522606829093142,-11,-3,0,-11,-10,-40,-6,-6
1522606829107179,2,8,-3,-3,-5,2,9,-2
1522606829107179,9,7,0,-2,0,3,0,2
1522606829114198,-12,11,1,2,4,25,-6,1
1522606829114198,9,-6,-2,-4,-1,28,11,-15
1522606829130240,-9,-5,-3,4,-6,-42,9,-9
1522606829130240,13,5,0,-4,-1,12,-7,0
1522606829132246,-5,-2,1,8,1,-7,7,2
1522606829132246,-1,-2,1,0,5,31,-7,11
1522606829144278,9,12,3,-1,-2,-27,4,3
1522606829144278,-17,-13,-5,-3,-2,12,2,1
1522606829153302,-1,-3,-3,2,2,-30,-12,-5
1522606829153302,16,-9,3,1,4,1,9,4
1522606829167339,-37,3,3,0,-3,44,5,0
1522606829167339,26,2,-2,-3,-6,-17,-3,8
1522606829174358,-11,2,-5,0,2,23,-1,-5
1522606829174358,28,12,4,1,-1,-37,5,5
1522606829190400,-10,-14,-5,1,5,16,7,-4
1522606829190400,5,13,1,0,-8,-6,-9,-3
1522606829192406,-20,-20,-3,-1,-1,6,-7,3
1522606829192406,19,2,-3,0,5,42,-1,-13
1522606829213462,-11,5,0,-1,-3,-41,-3,-1
1522606829213462,-18,-1,-2,2,3,21,11,-1
1522606829214465,38,-8,-5,-2,-7,-27,13,3
1522606829214465,-26,4,1,-1,2,1,-5,3
1522606829227499,17,-6,-1,2,5,19,-2,3
1522606829227499,-15,1,-2,-2,1,-19,-19,-9
1522606829234518,1,8,5,5,-5,-23,9,1
1522606829234518,18,-5,-3,-1,6,5,-3,12
1522606829250560,33,12,0,-3,-8,-11,2,0
1522606829250560,-32,-5,-2,1,4,3,-2,-8
1522606829252566,-23,-2,0,2,-6,-9,-10,-3
1522606829252566,10,-2,-1,-4,-4,-13,2,0
1522606829273622,22,21,-1,-2,6,21,3,4
1522606829273622,9,-16,-3,-2,-1,3,-2,0
1522606829274625,-25,-15,-3,-5,-6,1,1,-5
1522606829274625,-17,-5,-4,-1,3,-7,-6,-2
1522606829287659,25,13,3,5,9,23,5,0
1522606829287659,-9,-15,-1,-1,-5,-29,-13,2
1522606829294678,29,28,4,-1,-6,-37,-5,13
1522606829294678,-24,-6,1,-2,-6,-6,-3,-8
1522606829310720,4,-6,-3,-4,-2,-12,5,1
1522606829310720,6,9,2,3,4,8,5,4
1522606829312726,19,8,-1,-3,-3,9,-8,3
1522606829312726,-16,5,4,1,0,-2,2,5
1522606829332779,-12,-23,-7,-3,-2,4,-4,-3
1522606829332779,26,14,4,2,2,3,1,3
1522606829334785,-2,-9,-2,0,-1,-1,3,-1
1522606829334785,-9,5,3,2,0,53,3,-4
1522606829347819,-27,-11,-1,-2,-9,-77,-8,-7
1522606829347819,5,3,0,-2,-1,-4,2,3
1522606829353835,-9,3,3,0,0,-1,-1,-12
1522606829353835,37,6,0,3,3,-2,-3,-2
1522606829370880,-41,-19,-8,-4,-2,30,-3,-19
1522606829370880,40,14,3,4,-1,-4,4,5
1522606829371883,-45,-7,-3,-2,1,15,2,3
1522606829371883,7,-18,-10,-6,-3,-49,-8,-2
1522606829392939,19,28,11,3,-2,22,7,11
1522606829392939,-75,-46,-13,-7,-5,-6,-8,-31
1522606829394945,34,3,-5,-2,1,-8,-1,2
1522606829394945,38,8,-4,-6,-2,-8,-4,7
1522606829407979,-28,2,4,4,2,13,6,4
1522606829407979,22,-4,-7,-6,-4,12,-2,2
1522606829413995,-3,13,4,6,6,23,9,18
1522606829413995,-40,-21,-2,1,-4,-37,-7,-20
1522606829431040,30,2,-8,-6,-4,-5,-5,-5
1522606829431040,-11,3,2,2,4,20,9,17
1522606829432043,11,-7,-2,-6,-10,-17,-8,-41
1522606829432043,-9,14,5,2,-1,4,-3,2
1522606829453099,13,0,1,3,5,26,5,3
1522606829453099,-1,1,-2,-4,-1,-15,-3,-11
1522606829455105,9,-13,-5,-1,1,4,-1,-19
1522606829455105,-43,-26,-12,-10,-5,27,-7,-6
1522606829467136,13,-13,3,2,-4,-52,-6,-18
1522606829467136,-57,7,6,3,0,0,1,-1
1522606829476161,25,-19,-9,-3,0,2,-4,-2
1522606829476161,2,3,-2,-1,-3,-16,2,1
1522606829490198,-12,23,9,2,7,47,7,18
1522606829490198,26,-10,-2,1,-5,-40,-4,4
1522606829492203,19,27,1,-3,-5,-7,0,-3
1522606829492203,-11,3,3,4,2,9,-3,-11
1522606829513259,-29,-27,-7,-3,-2,9,0,3
1522606829513259,24,31,5,1,-1,6,-1,-9
1522606829515264,-10,-7,-1,0,-1,-5,-3,11
1522606829515264,69,17,1,1,-1,-10,5,18
1522606829527296,-23,1,-5,-4,-4,2,-4,-11
1522606829527296,3,23,6,2,2,13,4,3
1522606829535318,-16,-21,1,0,1,2,0,7
1522606829535318,-37,-8,-5,-2,-4,-24,-6,-1
1522606829550358,16,-3,-1,-7,-5,-3,-2,12
1522606829550358,11,23,3,5,-1,9,6,11
1522606829552363,-24,-40,-10,-4,0,11,-6,-5
1522606829552363,27,-4,-3,-1,3,-2,5,1
1522606829573419,-4,17,2,-1,2,24,3,9
1522606829573419,3,-5,-1,-4,-6,-40,0,1
1522606829574422,11,14,8,8,7,7,5,12
1522606829574422,-23,-2,-2,-4,-4,11,1,-4
1522606829586454,36,-1,-5,-2,4,12,-5,-7
1522606829586454,-60,-14,2,-4,0,10,5,17
1522606829595478,5,4,-2,2,-2,-9,-5,-12
1522606829595478,38,7,4,-1,-1,1,-1,3
1522606829610518,-5,16,-1,-6,-8,-10,-4,4
1522606829610518,-13,-6,0,1,2,7,1,-4
1522606829612523,-4,14,2,2,-1,-11,-2,7
1522606829612523,-10,-11,-2,-6,-3,0,1,3
1522606829633579,53,-6,-6,2,-1,-5,4,-4
1522606829633579,-7,14,-5,-6,-1,14,-9,-14
1522606829634582,-28,-25,-1,-4,-2,-11,-1,-1
1522606829634582,-7,21,7,4,-1,3,-3,4
1522606829646614,5,-16,-4,-1,-5,-53,-4,-11
1522606829646614,33,-8,-8,-2,-5,37,-3,-6
1522606829655638,-56,9,3,2,0,-51,-1,1
1522606829655638,23,3,0,-1,0,22,1,4
1522606829670678,-46,-53,-9,-5,0,-5,-7,-2
1522606829670678,30,7,-4,0,0,-26,-3,2
1522606829672683,-26,22,6,5,7,36,17,17
1522606829672683,35,-15,-5,-1,-5,-41,-6,-3
1522606829692736,-5,14,4,4,1,20,-3,9
1522606829692736,-9,-20,-2,-1,3,1,7,-6
1522606829694742,-12,-8,-2,-8,-13,27,6,-4
1522606829694742,25,20,4,3,12,-6,-4,2
1522606829706773,-23,3,2,-6,11,-4,-11,-1
1522606829706773,-4,-21,-6,-11,-61,-18,-8,2
1522606829715799,1,16,5,24,38,60,3,-6
1522606829715799,-20,-12,-6,-2,3,-59,-1,-8
1522606829730837,39,17,-1,-1,-8,25,-6,-9
1522606829730837,-24,-2,-2,-6,25,-34,-4,-5
1522606829731841,30,-4,-2,-8,-11,-4,-1,-3
1522606829731841,2,19,1,-1,-9,30,2,-3
1522606829752897,-19,-25,1,5,15,5,10,3
1522606829752897,20,13,3,-1,-9,20,1,6
1522606829754902,30,-8,-12,-12,-70,-46,-11,-2
1522606829754902,-32,-3,2,6,106,14,-1,1
1522606829766934,-2,11,4,-1,-40,-1,8,0
1522606829766934,-50,-21,3,8,50,20,3,-1
1522606829775958,30,15,2,0,-39,5,-5,3
1522606829775958,-17,-7,-4,-5,20,9,-1,1
1522606829790997,-18,1,-2,2,3,-8,-1,-1
1522606829790997,27,1,-1,1,-2,8,-2,-2
1522606829792000,3,-3,0,0,12,-10,2,-4
1522606829792000,3,-22,3,-2,-46,-4,-2,-5
1522606829813056,0,30,-3,-3,-2,11,-2,-4
1522606829813056,55,4,0,3,0,-7,1,5
1522606829815062,-35,-6,1,0,6,25,-3,-4
1522606829815062,9,14,-1,1,-32,-30,0,-5
1522606829827093,-34,-21,-4,1,25,-33,-8,0
1522606829827093,33,-7,-1,0,-16,16,2,2
1522606829836118,-28,2,0,-3,-33,-48,-14,-8
1522606829836118,15,-17,-6,-1,35,10,6,-1
1522606829851158,7,8,3,0,-3,7,4,8
1522606829851158,-49,-11,-1,0,46,-5,-3,-1
1522606829852160,55,10,-3,-1,4,3,-6,-2
1522606829852160,-44,1,3,3,-26,18,10,2
1522606829873216,8,-1,-1,-3,-5,-8,6,0
1522606829873216,-12,13,3,2,-17,8,-6,-4
1522606829875222,-1,-9,-4,-2,27,7,0,-3
1522606829875222,-1,3,3,3,-11,20,-4,-3
1522606829887253,7,-10,-1,-2,-3,-14,7,6
1522606829887253,-7,8,0,-2,-7,-17,-10,-3
1522606829896278,-8,-19,-8,-5,16,6,-1,-4
1522606829896278,13,-3,-1,-2,-17,3,0,2
1522606829910315,-23,-1,1,1,0,15,-2,-4
1522606829910315,66,9,2,4,-3,-4,5,6
1522606829912320,-12,2,-5,-5,17,-6,-2,-2
1522606829912320,-6,-8,-4,-4,-13,17,-1,1
1522606829933376,-9,-2,-3,1,-3,4,-3,-7
1522606829933376,14,7,3,1,-2,-16,2,0
1522606829934379,-6,13,3,0,10,10,6,6
1522606829934379,-4,2,1,-1,-10,-5,-4,-10
1522606829946411,36,8,0,1,16,-3,1,8
1522606829946411,-23,-8,-3,-6,-18,35,-3,-13
1522606829955435,-7,-1,3,-1,26,-49,-5,9
1522606829955435,16,8,0,2,-21,-29,-1,8
1522606829970475,-4,0,-2,-3,-5,-1,0,-2
1522606829970475,-15,-9,1,1,8,28,-1,-3
1522606829972481,43,12,-4,-6,-15,-3,-3,-7
1522606829972481,-78,-41,-7,-4,-6,-32,-6,-9
1522606829993536,-1,7,1,2,5,7,-1,-2
1522606829993536,36,6,-9,-2,-4,-3,4,3
1522606829994539,-19,-6,4,1,3,5,0,-5
1522606829994539,24,14,2,2,2,14,0,2
1522606830006571,-28,7,6,1,-7,4,5,5
1522606830006571,-14,-37,-13,-2,0,21,2,-10
1522606830015595,-22,25,5,1,-2,-57,-2,9
1522606830015595,73,11,-2,-1,6,11,0,0
1522606830029632,-32,-17,-4,-2,-9,7,-1,-2
1522606830029632,-23,10,5,1,4,-4,3,13
1522606830036652,5,6,1,0,-1,28,5,3
1522606830036652,33,10,1,-4,3,12,-1,2
1522606830052694,-1,-5,-4,-3,-6,-52,-6,-10
1522606830052694,-7,-7,-2,2,1,-14,-3,-6
1522606830054699,-33,-21,0,2,6,21,6,-2
1522606830054699,1,9,-1,-3,-9,28,3,5
1522606830066731,20,-11,-3,-1,-4,-10,-2,-5
1522606830066731,-29,0,1,-2,1,-1,-1,-4
1522606830075755,43,11,4,2,0,4,2,6
1522606830075755,-40,-26,-5,-1,5,26,-2,-10
1522606830089792,2,19,2,-2,0,-23,-1,8
1522606830089792,-38,-38,-9,-6,-10,-21,-5,-18
1522606830096811,7,8,-5,2,0,1,-2,-10
1522606830096811,-9,-2,2,-1,0,-11,-3,-6
1522606830112854,-2,-5,0,-3,1,47,0,-6
1522606830112854,0,22,6,2,-11,-49,0,5
1522606830114859,-3,-6,-7,-2,7,10,-2,-6
1522606830114859,7,-11,-4,-3,1,34,1,0
1522606830135915,9,10,-1,2,-5,-49,-5,-3
1522606830135915,-4,-42,-4,-3,1,-3,-2,2
1522606830136918,-12,-9,1,1,0,1,-3,-4
1522606830136918,21,21,-2,-1,-6,-13,1,13
1522606830149952,-55,-18,-1,2,9,32,0,-12
1522606830149952,44,22,0,-2,-1,8,-1,-1
1522606830156971,2,-1,2,1,1,-7,-3,-17
1522606830156971,-29,-3,2,2,-2,-4,2,-4
1522606830173014,68,24,-1,-3,-25,0,1,4
1522606830173014,-3,12,1,2,21,-6,-2,-6
1522606830175019,-69,-48,-11,-7,-8,5,-2,-8
1522606830175019,30,11,3,2,0,-10,2,2
1522606830196076,-73,-16,0,3,5,7,-2,-5
1522606830196076,104,42,4,-2,-4,9,4,17
1522606830197078,-4,-8,-6,-3,-3,37,-6,-8
1522606830197078,3,11,2,-2,13,-75,-2,1
1522606830210112,-14,-10,-4,0,1,-2,2,3
1522606830210112,-40,-9,2,0,-12,-2,2,6
1522606830217131,27,18,2,1,16,27,3,5
1522606830217131,14,10,-3,0,0,33,2,-2
1522606830233174,-17,4,3,-4,-2,-12,0,0
1522606830233174,-5,-2,-2,0,1,-6,-5,-7
1522606830235179,7,-4,1,-1,-18,-7,2,10
1522606830235179,9,5,-4,-2,-17,-15,-5,-6
1522606830255232,51,13,-1,-3,31,4,-1,-3
1522606830255232,-26,-26,-5,2,21,13,-1,-11
1522606830257238,1,9,3,-2,-5,7,2,5
1522606830257238,-29,-5,2,2,2,-3,4,4
1522606830270272,53,3,-4,-6,-13,-5,-18,-11
1522606830270272,-41,-22,-7,-4,-19,-40,1,1
1522606830277291,21,17,5,5,12,-10,-1,5
1522606830277291,0,4,3,-1,2,18,0,7
1522606830293334,-23,-40,-8,-2,-11,16,1,-4
1522606830293334,15,18,2,-1,-12,5,1,2
1522606830294336,1,0,-5,-5,0,-11,-1,3
1522606830294336,-23,-12,-4,-4,12,3,-1,-1
1522606830315392,24,8,10,8,-31,5,5,11
1522606830315392,-37,-4,-5,-8,10,11,-1,-4
1522606830317398,8,-6,2,13,-2,0,3,-1
1522606830317398,-3,-2,-6,-4,-11,-27,-12,-7
1522606830330432,8,2,1,3,16,2,2,2
1522606830330432,-9,6,2,0,-3,4,-1,-1
1522606830336448,36,30,4,-1,-15,39,7,-5
1522606830336448,-54,-52,-7,-1,-5,-51,-6,-7
1522606830353494,5,3,-4,-3,8,15,3,2
1522606830353494,21,33,8,2,5,18,0,5
1522606830354496,-8,-13,-9,-6,5,37,-6,-7
1522606830354496,-4,-8,0,1,-9,-26,-1,-1
1522606830375552,23,1,-3,-6,-40,-7,5,7
1522606830375552,-5,2,-2,1,37,11,-3,-5
1522606830377558,19,2,-1,-1,-3,-38,-8,3
1522606830377558,-44,-1,4,0,0,26,4,-2
1522606830389590,-13,-4,1,2,15,3,8,3
1522606830389590,62,13,-2,-3,-15,-2,0,4
1522606830398614,-42,-24,-5,-5,8,-9,-3,1
1522606830398614,12,8,-3,0,4,4,-3,-1
1522606830412651,-13,-5,-1,3,3,12,4,-2
1522606830412651,15,16,3,5,-25,33,3,2
1522606830414656,-68,-26,0,-2,32,-90,-3,1
1522606830414656,52,8,-3,-1,-5,46,2,-2
1522606830435712,6,7,-1,-1,11,-3,4,1
1522606830435712,-3,-17,-4,-1,9,28,-2,0
1522606830437718,-3,3,0,0,-31,-36,-3,0
1522606830437718,4,15,7,1,-7,3,2,3
1522606830449750,20,23,5,1,15,-5,-5,3
1522606830449750,-51,-40,-10,-2,-10,-13,-6,-11
1522606830458774,16,1,-3,-5,-6,21,3,1
1522606830458774,-9,11,3,2,-2,0,4,-2
1522606830472811,0,-6,-2,-1,10,39,-4,-4
1522606830472811,29,18,3,-1,-13,-69,2,4
1522606830474816,-36,-8,-2,-4,0,-3,-5,0
1522606830474816,14,11,-1,-1,8,2,-5,-5
1522606830495872,1,-22,-7,-5,-8,-1,-8,-12
1522606830495872,12,5,-2,-1,7,29,0,1
1522606830496875,2,-1,1,-1,-5,-33,-2,0
1522606830496875,-12,7,3,1,-3,-4,2,4
1522606830508907,0,5,1,1,0,3,1,-2
1522606830508907,-18,-14,-1,0,-4,-12,-3,2
1522606830517931,32,18,1,1,-3,13,2,0
1522606830517931,-26,-12,-2,-1,3,11,0,3
1522606830532971,-16,0,-1,2,2,-18,-4,-7
1522606830532971,40,6,-3,-8,0,-4,0,20
1522606830534976,3,0,2,4,3,14,1,0
1522606830534976,-36,-13,-5,-3,-7,-10,-5,-11
1522606830556033,14,-5,3,-1,1,27,-5,-1
1522606830556033,8,6,-2,-1,-16,-65,-15,-32
1522606830557035,-13,-14,-5,-3,1,9,-4,-19
1522606830557035,19,1,-1,0,6,20,-3,0
1522606830569067,-8,18,5,1,-5,-51,4,13
1522606830569067,-54,-28,-12,-7,-4,28,3,-9
1522606830578091,72,5,4,2,-1,0,1,12
1522606830578091,13,-18,-5,-1,3,-1,-2,-1
1522606830593131,-37,1,-2,-3,-3,1,-6,-23
1522606830593131,37,34,9,4,2,7,6,10
1522606830595136,-67,0,-4,-4,-1,2,-2,-3
1522606830595136,6,-2,0,-1,1,39,5,11
1522606830616192,14,-5,-8,-5,-13,-56,-2,12
1522606830616192,17,10,-5,-2,2,24,3,13
1522606830617195,-13,-27,0,3,-4,-30,-2,-5
1522606830617195,22,27,9,8,1,19,6,10
1522606830629227,-8,-13,-9,-2,6,9,-3,1
1522606830629227,-34,-4,2,0,-2,-1,-4,-15
1522606830638251,26,1,-4,-6,-1,27,4,7
1522606830638251,13,31,-2,-3,-2,-18,-2,5
1522606830653291,1,-31,-9,-4,0,-1,-6,-30
1522606830653291,-37,-14,2,3,1,-2,1,2
1522606830654294,-8,24,8,6,1,20,4,9
1522606830654294,-22,-12,-11,-11,-3,-19,-7,-21
1522606830675349,36,1,2,0,1,26,2,4
1522606830675349,39,-1,4,2,-3,-24,-2,5
1522606830677355,7,9,1,-1,-1,0,2,-6
1522606830677355,-36,-22,-3,0,-2,-15,-4,-13
1522606830689387,-7,1,-2,-2,5,24,1,6
1522606830689387,-23,-3,-3,0,6,7,2,-1
1522606830698411,-3,6,-2,1,-8,1,-6,-17
1522606830698411,46,-18,-8,-5,-9,-19,-4,0
1522606830713451,-26,2,2,-2,1,8,2,7
1522606830713451,-14,-1,5,7,3,22,-1,6
1522606830714453,-23,-19,-10,-6,-5,-56,-2,-1
1522606830714453,-19,12,4,1,6,13,2,4
1522606830735510,35,-7,0,-1,-4,-10,-1,3
1522606830735510,-14,-7,-7,-1,1,36,-5,-18
1522606830737515,1,-2,2,-1,-2,-42,-7,-3
1522606830737515,-18,-22,-5,-5,-5,-4,1,0
1522606830749547,2,8,2,-1,-4,-11,1,5
1522606830749547,-17,-1,3,2,11,12,10,8
1522606830758571,28,10,4,4,6,26,-9,-1
1522606830758571,-12,-14,-2,1,-9,-3,-1,1
1522606830773611,-19,10,1,-2,-6,-12,-1,-6
1522606830773611,20,-5,-7,-4,-7,-15,1,-1
1522606830774614,-1,-3,-1,1,1,20,13,21
1522606830774614,0,11,-4,-9,5,-7,-5,-19
1522606830795670,4,0,2,7,5,21,1,10
1522606830795670,-12,11,7,2,0,-2,3,6
1522606830797675,38,1,2,1,-1,-5,-2,-2
1522606830797675,-28,2,-4,-2,-3,29,0,-8
1522606830809707,9,4,-1,-1,-2,-36,-2,7
1522606830809707,-16,-14,-4,-5,-2,17,-1,-7
1522606830818731,0,-7,-4,-2,-4,-27,-1,-5
1522606830818731,17,6,6,-3,-5,-8,1,3
1522606830832768,-27,-12,-3,-2,-2,-31,-10,-1
1522606830832768,11,19,6,-2,-5,-25,-11,-3
1522606830834774,-2,-2,-1,1,21,36,-2,-18
1522606830834774,8,8,3,6,10,5,9,5
1522606830855830,-24,1,0,1,0,2,1,4
1522606830855830,38,8,1,0,6,21,0,8
1522606830856833,-11,-16,-11,-15,-32,-31,-5,0
1522606830856833,12,0,-1,-1,-8,-12,-3,2
1522606830868864,-15,8,-1,5,11,-3,-7,-4
1522606830868864,12,1,1,2,-3,-17,-2,-2
1522606830877888,-45,-4,2,1,15,31,4,2
1522606830877888,22,-11,-4,-6,-14,16,11,2
1522606830892928,-21,5,-3,7,-1,-19,0,-1
1522606830892928,19,-12,1,1,6,10,-7,3
1522606830894934,-2,10,-3,-16,-15,-37,-8,0
1522606830894934,-18,2,0,11,13,19,-8,-19
1522606830915990,11,-11,-1,-5,7,-15,-4,-4
1522606830915990,-47,-7,-3,-16,-23,7,10,-7
1522606830916993,40,10,0,28,4,4,-8,6
1522606830916993,-9,9,4,10,-1,-12,9,6
1522606830929024,18,18,3,-2,17,19,1,-4
1522606830929024,3,-8,-5,-7,8,-16,-4,3
1522606830938048,-22,-3,-10,-16,-23,12,-6,-4
1522606830938048,-10,-4,2,-1,11,34,6,14
1522606830952085,19,5,3,-5,-4,-34,-2,9
1522606830952085,-3,1,3,3,-25,-13,3,6
1522606830959104,-7,-2,-3,-2,21,25,-1,-3
1522606830959104,42,16,2,5,-5,-19,-12,16
1522606830976149,-13,-9,-5,-6,-4,16,8,4
1522606830976149,-9,-8,-2,0,-1,-38,-6,-9
1522606830977152,19,5,3,3,-2,13,5,7
1522606830977152,-13,-8,-2,-5,16,-4,-2,-7
1522606830989184,-7,7,-2,-5,-10,31,3,-5
1522606830989184,32,11,-2,1,-5,-3,-11,-2
1522606830998208,-25,-23,1,1,3,8,-4,-6
1522606830998208,17,10,5,1,0,24,3,4
1522606831012245,-11,-19,-5,-3,-16,-54,2,-9
1522606831012245,-3,-1,-3,-1,10,2,0,-24
1522606831019264,-6,9,2,-1,-2,-10,0,-13
1522606831019264,9,8,3,-4,1,-4,-6,5
1522606831035307,0,-25,-8,-2,-6,19,-5,-6
1522606831035307,-2,10,1,5,12,14,1,2
1522606831037312,18,8,-1,-3,-13,-25,-3,0
1522606831037312,-27,-11,0,8,-3,12,3,-4
1522606831058368,-4,3,1,5,1,14,-4,4
1522606831058368,-13,-1,-4,-1,-9,-25,11,10
1522606831059371,7,6,3,6,-7,20,13,11
1522606831059371,-5,-5,-4,-1,10,-13,1,-1
1522606831072406,22,-5,-5,-4,3,13,-8,-3
1522606831072406,9,5,-2,1,6,13,-4,9
1522606831079424,-10,-12,-5,2,4,3,6,0
1522606831079424,3,-1,-1,-2,-5,-28,-3,-11
1522606831103488,-9,9,5,3,2,54,-1,2
1522606831103488,2,-7,0,2,-8,-41,-3,11
1522606831104491,-1,3,-1,-1,-3,-56,-11,-4
1522606831104491,16,-4,-2,-3,-10,-5,1,7
1522606831118528,-8,5,2,-1,-1,7,9,-5
1522606831118528,5,5,-1,-1,7,19,-6,-5
1522606831119531,-21,-4,3,-4,5,61,7,17
1522606831119531,8,8,-7,-8,-16,-79,-12,-11
1522606831132566,-3,-20,-4,-5,-4,3,0,-8
1522606831132566,-23,0,2,0,2,5,0,-4
1522606831139584,21,-15,-3,-5,9,17,0,1
1522606831139584,-43,4,3,2,6,16,3,2
1522606831155627,28,2,-3,-6,-4,0,1,-2
1522606831155627,-15,-2,2,0,-2,5,1,-1
1522606831157632,-1,-8,-5,-2,0,10,-2,-12
1522606831157632,-4,-8,-3,-3,0,-31,-3,-3
1522606831177686,14,9,1,-4,1,7,0,1
1522606831177686,19,14,7,3,-5,-28,1,6
1522606831179691,7,16,4,1,0,1,2,10
1522606831179691,-8,-20,-8,-3,-1,10,-3,-18
1522606831192725,-21,-10,8,7,3,14,-1,0
1522606831192725,5,-1,-1,-2,2,16,-1,-3
1522606831199744,-28,-4,-1,-5,-3,-4,0,3
1522606831199744,-19,0,-3,-6,-7,-2,-6,-6
1522606831215787,35,14,5,2,-3,-10,3,16
1522606831215787,-36,-1,-4,-4,-2,2,-3,-20
1522606831216790,-25,-20,-12,0,-2,-14,-4,-11
1522606831216790,-12,-7,-4,-3,0,17,0,7
1522606831237845,52,4,-5,0,-1,-9,-3,10
1522606831237845,5,0,6,-5,-3,-7,4,13
1522606831239851,-3,15,7,4,1,9,-2,-19
1522606831239851,19,-18,-7,-3,1,39,-3,-8
1522606831252886,-23,3,3,1,-6,-66,-6,8
1522606831252886,-10,-9,-7,-2,0,0,-1,0
1522606831258901,-14,-2,0,-1,3,6,-2,-8
1522606831258901,18,3,2,0,-1,6,1,10
1522606831275949,4,8,-1,-4,-2,3,0,8
1522606831275949,9,-14,-9,-4,-2,9,-10,-34
1522606831276950,2,23,10,6,3,-8,4,5
1522606831276950,-12,-14,-2,3,7,9,-1,-2
1522606831298005,-5,7,-8,-7,-5,7,-1,-6
1522606831298005,24,0,-5,0,-9,-6,7,36
1522606831300011,32,7,2,1,4,17,9,20
1522606831300011,9,3,3,0,-2,-15,-7,2
1522606831312043,-44,-7,1,1,6,20,3,1
1522606831312043,2,-1,-3,-3,-6,-31,-12,-2
1522606831321067,9,7,1,1,9,6,6,8
1522606831321067,25,9,-2,-5,-7,-6,7,20
1522606831336107,-16,-12,-2,-4,-5,-25,-6,-5
1522606831336107,-5,7,-2,0,3,23,-3,-4
1522606831337110,-4,-12,-4,-1,-4,-8,-4,8
1522606831337110,-40,2,3,0,3,7,-4,-34
1522606831358165,50,13,-8,-1,-1,37,0,-13
1522606831358165,-39,-26,-2,2,2,-32,2,0
1522606831360171,8,-3,-2,-4,-4,2,-6,-12
1522606831360171,-17,16,-1,-3,-2,-1,2,13
1522606831372203,0,-4,6,5,0,8,8,12
1522606831372203,-2,-4,-4,1,0,1,2,-6
1522606831381227,2,3,-4,-2,-3,-25,-5,-4
1522606831381227,-4,-9,-2,-1,-3,13,-7,6
1522606831395264,-8,-1,-1,-3,-2,10,-3,-8
1522606831395264,30,15,4,0,0,-20,4,4
1522606831397270,-8,-7,1,0,-4,-4,-2,0
1522606831397270,8,-16,-5,-1,2,-40,-11,-15
1522606831418325,-13,4,2,1,6,23,3,-3
1522606831418325,-11,8,2,-1,-4,-16,-11,-4
1522606831419328,-14,-21,-9,-6,-7,9,20,3
1522606831419328,6,1,3,3,-2,-6,-21,1
1522606831431360,-1,6,1,1,4,-8,-7,-9
1522606831431360,-11,-18,-3,-7,0,22,2,1
1522606831440384,-17,-4,-6,-9,-25,-5,-5,-7
1522606831440384,37,16,0,10,17,9,4,7
1522606831455424,-44,-9,-2,-5,-1,-10,14,-7
1522606831455424,11,-9,5,3,0,20,-1,1
1522606831457430,51,1,-9,-7,4,16,-14,0
1522606831457430,-44,-10,4,1,-7,-45,3,3
1522606831478485,12,2,-8,-7,-11,-18,-5,-13
1522606831478485,-19,1,-8,-6,5,45,0,-20
1522606831479488,30,5,4,3,7,-1,-4,-24
1522606831479488,20,4,3,-2,-12,-42,3,3
1522606831491520,-25,-8,1,1,0,-5,-6,5
1522606831491520,36,-3,-3,-3,6,17,8,2
1522606831500544,-52,3,1,1,-20,-4,-10,2
1522606831500544,43,0,-7,-2,9,32,5,-1
1522606831515584,-16,-15,-1,0,-1,4,3,-3
1522606831515584,-21,-2,2,1,7,-14,-11,1
1522606831517590,22,18,4,-17,-51,-4,14,10
1522606831517590,3,-6,-2,0,66,10,-23,2
1522606831538645,-30,-15,-6,18,-2,-2,-13,-7
1522606831538645,-7,8,1,-6,-8,2,39,10
1522606831539648,-3,-1,-4,13,18,-6,-1,-2
1522606831539648,20,8,6,-6,-27,21,16,-3
1522606831551680,30,14,3,-5,4,-4,-16,1
1522606831551680,-25,-11,-3,2,12,52,-10,-1
1522606831560704,-16,-12,-10,-9,2,-68,4,1
1522606831560704,4,2,1,-1,-21,9,8,1
1522606831575744,-10,-4,4,5,7,28,2,2
1522606831575744,20,8,2,0,-19,-51,-4,-3
1522606831577750,-14,1,5,5,24,21,4,6
1522606831577750,-4,-6,3,-1,-6,13,1,-8
1522606831597802,1,-2,-1,-2,0,4,-1,-4
1522606831597802,-23,-8,-2,-3,-7,21,6,4
1522606831599808,61,13,-1,0,1,-26,-1,7
1522606831599808,-51,-4,-8,-2,-3,-10,-1,-4
1522606831611840,8,5,1,-2,7,9,4,-7
1522606831611840,1,-3,-1,6,18,-8,-27,-8
1522606831620864,6,-8,2,15,-6,-5,23,1
1522606831620864,-29,-11,-2,-2,4,17,21,-2
1522606831635905,20,12,8,-7,-4,-11,12,30
1522606831635905,28,13,0,1,3,33,1,23
1522606831636907,7,-10,4,-2,14,-18,-22,-9
1522606831636907,6,7,-2,-6,-17,-20,-9,-15
1522606831657962,-37,-17,-4,0,-11,11,4,6
1522606831657962,27,5,5,4,17,-14,3,-7
1522606831659968,16,13,-2,-2,3,62,-2,10
1522606831659968,-21,-15,-6,3,-4,-22,1,1
1522606831672000,-1,15,2,-2,6,-27,-8,-13
1522606831672000,-17,-17,-2,1,-20,9,4,-8
1522606831681024,-8,-20,0,-3,4,-1,-4,-4
1522606831681024,-18,16,3,-1,5,16,-6,0
1522606831696064,14,3,-6,-3,-9,-11,-8,-2
1522606831696064,5,7,-4,-6,-13,-25,1,4
1522606831697067,-36,-20,-3,-2,5,24,-7,3
1522606831697067,60,15,0,5,-1,-16,-4,17
1522606831718123,-6,-16,-3,-4,-8,0,2,-9
1522606831718123,17,18,2,-1,1,26,2,3
1522606831720128,-5,8,8,3,4,-36,-4,4
1522606831720128,-12,-8,-4,-3,-12,-28,-1,-4
1522606831732160,8,9,3,-1,0,10,5,5
1522606831732160,34,4,-5,-1,2,-46,-17,-11
1522606831741184,-66,-18,-8,-6,5,14,-11,-12
1522606831741184,10,9,6,4,-5,28,8,3
1522606831755221,10,7,-1,0,-2,-3,1,-6
1522606831755221,-12,-7,-2,-4,2,-15,-3,-4
1522606831757227,-22,3,-3,-4,-8,8,-3,-3
1522606831757227,16,12,1,-2,0,0,-2,8
1522606831778282,7,-13,-4,-4,3,-10,-5,1
1522606831778282,-10,-6,-2,3,-4,46,0,-7
1522606831780288,11,12,0,-2,-5,-67,-1,25
1522606831780288,-11,8,3,2,3,14,4,5
1522606831792320,-3,-15,2,0,-4,1,-1,4
1522606831792320,4,10,0,-4,-3,-9,-1,6
1522606831800341,17,-13,-6,3,4,30,-1,-13
1522606831800341,-30,-11,-1,1,-3,-9,-5,-21
1522606831815381,23,-4,-6,-6,-3,9,-2,3
1522606831815381,-43,9,5,1,-6,-30,-2,2
1522606831817387,15,-14,-5,-1,2,11,1,-12
1522606831817387,-10,-26,-8,-2,-1,3,-5,-9
1522606831838442,16,16,5,2,2,-2,0,17
1522606831838442,-2,-6,-10,-6,3,1,0,-28
1522606831839445,42,42,17,6,-1,15,2,1
1522606831839445,-50,-31,-17,-10,-6,7,3,4
1522606831851478,13,-29,-2,2,3,26,-2,-8
1522606831851478,-10,5,14,4,-1,-56,-4,-10
1522606831860501,6,14,4,2,0,6,2,4
1522606831860501,12,19,1,3,-1,3,3,0
1522606831875541,-4,-15,-17,-4,2,-11,-2,-6
1522606831875541,3,-20,3,-2,-2,17,0,-3
1522606831877547,3,-2,3,0,0,-3,-1,-3
1522606831877547,7,13,2,0,2,-1,-6,-4
1522606831898603,-36,-10,3,1,1,27,6,-19
1522606831898603,14,0,-6,0,-7,-51,-12,8
1522606831899606,11,-7,0,0,-2,7,9,8
1522606831899606,4,11,-3,-2,0,-2,-8,-8
1522606831911637,-30,-18,-11,-3,-5,-21,-2,-1
1522606831911637,1,4,0,-6,-1,46,7,8
1522606831920661,18,4,-3,2,0,-52,-8,-5
1522606831920661,-6,-2,8,-2,0,17,8,7
1522606831935701,-12,2,-2,-2,8,23,-19,-22
1522606831935701,-13,-2,-4,2,-10,-54,-17,2
1522606831941717,4,-2,-7,-2,-8,23,0,-1
1522606831941717,18,8,0,-1,1,-4,16,-1
1522606831957760,1,7,5,0,-2,-29,-32,3
1522606831957760,27,3,-5,-1,6,54,25,6
1522606831959766,-14,-3,3,-2,1,-7,3,17
1522606831959766,-9,-21,-6,0,-4,-62,-26,-3
1522606831971797,-9,3,-1,-2,-5,4,17,2
1522606831971797,13,13,-4,-1,-2,22,8,8
1522606831980821,-7,-5,3,4,0,-5,-4,-8
1522606831980821,-22,-16,3,-4,-1,22,13,7
1522606831994858,18,-3,-8,-1,0,-13,-16,5
1522606831994858,-24,0,5,3,6,16,-2,-2
1522606832001877,21,20,3,-5,4,18,-2,-6
1522606832001877,26,8,-10,-4,-8,0,-7,1
1522606832017920,4,15,7,1,-1,-40,12,7
1522606832017920,7,-32,-11,-3,-2,-10,6,-3
1522606832019926,-33,-6,2,-1,-3,-6,-13,-8
1522606832019926,-11,5,3,0,-12,39,-17,-6
1522606832040981,36,15,-1,-1,-26,-31,44,-2
1522606832040981,-9,7,0,4,52,-6,-6,17
1522606832041984,-8,-21,-12,-4,-10,8,7,0
1522606832041984,16,11,3,-5,11,49,6,0
1522606832055018,-12,0,1,-2,3,-14,-6,-1
1522606832055018,-23,4,3,11,4,1,0,2
1522606832062037,39,-7,-2,-5,-20,8,-20,-12
1522606832062037,-8,-8,-6,-6,15,-16,-5,0
1522606832078080,-7,5,9,27,6,25,8,2
1522606832078080,52,7,-11,-8,-3,-7,-3,-3
1522606832080085,-69,-16,-3,-3,4,3,0,-21
1522606832080085,8,-2,10,0,-12,-31,-4,0
1522606832101141,9,-3,-3,-11,21,17,4,-1
1522606832101141,-11,-3,-2,4,-26,12,-1,6
1522606832102144,-25,-22,-8,-5,3,-7,11,7
1522606832102144,10,12,1,2,-6,-21,-6,0
1522606832115178,-11,-4,-3,-5,9,8,9,-6
1522606832115178,-4,-20,-7,-6,-20,40,14,-5
1522606832122198,8,11,-4,-11,-3,-32,-10,-9
1522606832122198,-12,-5,-1,1,7,-37,-4,-3
1522606832138240,-18,10,7,20,-8,14,-4,4
1522606832138240,18,1,5,-4,25,9,-9,-19
1522606832140246,-41,7,2,6,-8,3,1,-5
1522606832140246,30,-2,-4,-5,3,-1,1,-4
1522606832160299,-21,-6,-4,-9,-18,-7,-15,-9
1522606832160299,20,11,3,1,-9,-4,8,-10
1522606832162304,-21,-24,-3,-4,15,26,-23,-3
1522606832162304,28,16,0,2,-9,-41,-17,8
1522606832175338,-3,3,-3,-5,-4,-7,1,11
1522606832175338,-20,-1,-3,-3,-1,-3,5,-9
1522606832181355,40,17,-1,0,5,7,20,5
1522606832181355,-28,-8,0,1,-3,15,0,-1
1522606832198400,-28,-15,0,-4,11,24,-17,-3
1522606832198400,-2,7,3,-2,-14,-25,-11,3
1522606832199403,37,22,1,1,-8,-13,-8,-1
1522606832199403,23,-31,-7,2,8,26,13,8
1522606832220459,7,10,1,-3,6,18,11,1
1522606832220459,-49,-19,-2,2,-9,-35,-11,-8
1522606832222464,-2,1,-4,1,1,2,0,1
1522606832222464,4,9,6,5,4,13,8,-1
1522606832234496,28,17,3,-1,0,-2,-6,-1
1522606832234496,14,-3,-2,-1,-1,42,-3,14
1522606832243520,29,-1,1,0,-13,-78,8,3
1522606832243520,-44,0,3,3,-7,1,3,-8
1522606832258560,11,2,0,-1,20,1,1,-6
1522606832258560,3,-1,3,-7,0,26,3,15
1522606832259563,2,4,0,1,-4,13,6,6
1522606832259563,5,3,-2,-2,-9,-30,-7,-3
1522606832280619,4,-8,-4,-2,-6,0,-3,0
1522606832280619,-19,4,0,-5,-3,-49,-4,1
1522606832282624,4,-1,3,1,11,8,-6,2
1522606832282624,-11,-21,-5,-2,0,30,4,-2
1522606832294656,-20,0,-2,-2,-10,13,2,-5
1522606832294656,11,2,1,2,-4,-63,-3,0
1522606832303680,-13,-5,-11,-5,-1,21,-4,-12
1522606832303680,25,-15,-5,4,4,1,1,0
1522606832317717,-40,-9,1,-2,-5,9,-1,-4
1522606832317717,6,3,1,3,7,22,-2,-7
1522606832319723,-14,-8,2,1,1,-8,4,3
1522606832319723,13,17,2,0,7,23,4,1
1522606832340779,28,-6,-10,-6,-5,-4,-2,-1
1522606832340779,2,-10,-2,-1,-14,-47,-7,0
1522606832342784,-25,-6,-1,0,4,10,5,-5
1522606832342784,-11,4,-3,-1,-1,2,-16,-3
1522606832353813,5,-1,1,0,-2,6,-1,-1
1522606832353813,19,23,5,1,10,7,4,0
1522606832363840,-25,-24,-9,-7,-6,43,-2,-6
1522606832363840,21,-5,-5,-1,-14,-70,6,17
1522606832377877,-6,0,-2,-5,-11,-34,-6,-4
1522606832377877,-12,-7,-4,-2,3,32,1,-3
1522606832379883,15,5,5,-4,6,32,2,12
1522606832379883,-11,0,-1,-3,1,17,4,-8
1522606832400939,-22,2,-1,3,4,-12,0,-1
1522606832400939,36,2,-2,-1,-4,0,-2,-2
1522606832401941,-24,-7,-3,1,1,12,-1,12
1522606832401941,-13,0,0,-1,3,28,2,3
1522606832413973,26,18,2,-2,-7,-42,-4,-3
1522606832413973,-28,-17,-2,1,0,15,-1,-13
1522606832422997,-5,-4,2,2,1,-10,2,-9
1522606832422997,-14,6,-6,-4,3,30,-8,0
1522606832438037,-27,-20,-11,-5,-5,-42,-11,-4
1522606832438037,2,5,0,0,-8,-11,-3,-3
1522606832440043,2,9,0,-1,-3,27,5,24
1522606832440043,-28,10,3,1,-1,-45,6,-6
1522606832461099,13,-12,4,3,8,37,2,15
1522606832461099,33,10,-3,-3,1,-1,-9,-9
1522606832462101,-3,-10,8,4,4,-20,5,18
1522606832462101,-11,0,-2,-2,-7,25,-1,-32
1522606832474133,-10,6,0,0,0,5,7,9
1522606832474133,18,-2,2,-4,-3,-8,10,13
1522606832483157,-26,-6,-14,4,7,15,-5,-8
1522606832483157,-12,-14,2,-9,-2,0,1,4
1522606832498197,-23,-3,6,2,-3,-9,-9,-35
1522606832498197,7,4,-4,-3,10,40,12,-9
1522606832500203,-19,-9,4,-1,-14,-75,-35,-7
1522606832500203,90,19,-4,-4,-5,-29,-12,11
1522606832520256,24,44,3,2,3,18,18,3
1522606832520256,-64,-50,-6,-2,-1,23,-8,-23
1522606832522261,-12,17,0,0,1,-31,3,-4
1522606832522261,4,-25,2,5,6,19,3,-6
1522606832534293,55,23,5,3,7,33,10,12
1522606832534293,-98,-5,-2,2,-9,-58,-24,-18
1522606832543317,36,1,-2,-4,-4,-2,6,-3
1522606832543317,-4,4,-4,-1,1,-1,-1,-1
1522606832558357,64,-11,-3,-3,1,6,4,9
1522606832558357,-3,-1,0,-1,-4,5,2,12
1522606832559360,-23,0,1,3,6,34,1,-15
1522606832559360,13,26,6,2,-2,1,3,3
1522606832580416,14,-22,-9,-2,-4,14,-4,1
1522606832580416,-4,-4,1,5,-7,-46,2,-14
1522606832582421,23,2,3,3,3,12,-2,4
1522606832582421,-24,-3,1,1,8,5,-6,-13
1522606832594453,-5,1,-3,-2,-3,27,7,6
1522606832594453,12,-3,-1,-9,-15,-8,-6,9
1522606832603478,46,34,9,8,4,11,-3,2
1522606832603478,-9,-16,-3,-2,5,2,9,8
1522606832618517,-30,-16,-5,-2,5,-23,-8,9
1522606832618517,32,8,-3,-3,5,4,4,0
1522606832619520,-11,20,-1,-4,-4,19,1,-49
1522606832619520,-22,-24,3,1,-4,-11,-3,22
1522606832640576,-8,-6,-1,-3,-11,-7,-18,-12
1522606832640576,-8,-1,2,4,4,32,39,4
1522606832642581,-20,-8,-6,-7,-1,-17,1,-1
1522606832642581,57,25,-3,-1,-3,10,0,-3
1522606832654613,-28,-12,1,3,5,3,1,-16
1522606832654613,-26,-4,-7,0,-2,16,-13,-9
1522606832663638,-6,-23,-7,-5,-13,-41,11,0
1522606832663638,-12,-4,-4,-3,-18,-4,6,3
1522606832678677,55,24,-1,-11,12,-9,-9,21
1522606832678677,-16,-14,-1,4,-4,16,-19,3
1522606832679680,-18,-1,-2,-3,15,6,24,2
1522606832679680,53,7,9,13,0,-17,-9,-4
1522606832700736,-56,1,-4,-4,-9,9,-8,-14
1522606832700736,-31,-21,-8,-4,12,-19,-15,-17
1522606832702741,-18,-15,-2,-9,-19,29,7,8
1522606832702741,4,19,-1,2,-2,-15,14,-5
1522606832714773,26,-13,5,9,0,-15,3,-7
1522606832714773,3,10,-3,-6,9,21,-9,9
1522606832723797,24,-1,2,3,2,-16,-23,-12
1522606832723797,-51,-4,-3,-6,8,23,2,-8
1522606832737834,9,14,6,1,-10,4,11,43
1522606832737834,13,1,9,7,-2,-20,-11,-23
1522606832743850,19,-15,-14,-4,2,8,42,4
1522606832743850,-40,-7,4,1,0,3,-20,-5
1522606832767914,3,-2,-10,-7,-4,-16,-19,-6
1522606832767914,5,4,-1,-3,10,36,15,10
1522606832769920,77,31,9,14,7,19,-3,22
1522606832769920,-86,-34,-10,-12,-9,-46,-9,-32
1522606832773930,-37,-14,0,5,5,18,5,-8
1522606832773930,14,10,-1,-7,-8,-21,-2,18
1522606832782954,-10,10,5,2,-9,-4,-8,8
1522606832782954,9,8,-3,-2,16,57,1,3
1522606832797994,-7,-26,-2,-1,-1,-34,1,-6
1522606832797994,-2,19,-1,-1,-9,-23,-1,-6
1522606832800000,56,-12,-4,-4,-3,33,-4,4
1522606832800000,-28,-18,-2,10,0,-16,0,-18
1522606832821056,-11,7,1,-4,-8,-32,-3,-5
1522606832821056,34,-1,-1,2,2,10,6,11
1522606832822058,-36,2,-1,-3,-2,-2,-10,-3
1522606832822058,17,6,1,1,1,42,4,-2
1522606832834090,-1,-4,0,3,6,-46,2,-6
1522606832834090,19,-6,-5,-4,-12,13,6,13
1522606832843115,-40,-9,-1,4,-4,-42,-17,-29
1522606832843115,54,6,-5,-11,-5,7,17,43
1522606832858155,-27,-11,-4,0,3,7,-1,-17
1522606832858155,26,21,13,4,4,5,0,18
1522606832860160,-23,-32,-9,-11,-3,-14,-18,-4
1522606832860160,-12,5,2,-1,2,11,15,-2
1522606832880213,19,17,-3,-4,-3,-9,4,11
1522606832880213,-3,0,-3,-1,0,3,-3,-20
1522606832882219,-6,9,2,4,3,25,2,-15
1522606832882219,21,-2,-2,-6,-11,-56,-18,5
1522606832894250,-39,13,4,3,-4,-30,-3,0
1522606832894250,36,-9,-3,-6,-4,-3,1,6
1522606832903275,15,11,2,1,3,5,1,6
1522606832903275,8,-4,1,0,1,11,-6,-2
1522606832917312,40,21,4,2,2,15,2,9
1522606832917312,-28,-24,-4,2,-1,-12,-3,-1
1522606832924330,-7,0,0,-4,-6,-27,3,7
1522606832924330,18,6,-2,-1,0,-7,-8,-6
1522606832940373,-3,-8,1,-1,2,11,-2,1
1522606832940373,6,17,7,5,8,19,14,11
1522606832942378,-16,-25,-3,-2,5,4,-4,-6
1522606832942378,-47,-11,-10,0,-5,-5,7,18
1522606832963434,35,6,2,-3,-7,5,2,-4
1522606832963434,-18,-17,-5,0,2,-3,-4,-9
1522606832964437,0,16,4,-1,2,5,2,7
1522606832964437,5,-5,-2,-4,2,1,-2,6
1522606832977472,6,14,-2,2,-3,-8,-4,-8
1522606832977472,-34,-18,-1,1,-2,-9,-5,-8
1522606832984490,48,13,6,-3,-3,-4,0,5
1522606832984490,17,11,-2,0,4,14,2,0
1522606833000533,-10,-21,-5,-1,1,23,0,-3
1522606833000533,-1,19,-2,-2,-5,-21,-9,-10
1522606833002539,-48,-3,1,1,0,-5,0,6
1522606833002539,10,-13,-4,0,1,5,-5,-7
1522606833023594,7,-9,0,-5,-5,-4,-3,-4
1522606833023594,10,13,1,-1,-5,-2,-3,-25
1522606833024597,0,-3,-2,1,0,4,-9,-14
1522606833024597,-14,26,8,6,1,-32,4,5
1522606833037632,-28,-48,-13,-2,6,36,2,-9
1522606833037632,-1,-8,-7,-14,-7,-28,-5,11
1522606833044650,-6,13,3,-24,-1,-11,0,-2
1522606833044650,18,3,-1,-24,-4,-5,-2,-7
1522606833060693,4,-4,-1,-14,-2,5,-2,15
1522606833060693,-53,-8,-2,0,4,21,8,-1
1522606833062698,-7,-8,-9,10,-2,8,-1,-3
1522606833062698,6,-16,1,8,-6,-34,-4,-3
1522606833082752,0,13,-6,7,-1,6,1,0
1522606833082752,9,-10,4,9,-3,6,9,66
1522606833084757,61,47,9,12,11,10,12,24
1522606833084757,-25,-6,-2,7,-3,12,-2,-12
1522606833097792,21,1,0,3,-3,1,1,7
1522606833097792,31,10,5,0,-6,-21,-11,-18
1522606833103808,-76,-20,2,8,1,-9,0,-5
1522606833103808,44,10,5,3,0,11,3,21
1522606833120853,2,12,4,6,15,15,0,-7
1522606833120853,-1,13,4,1,-5,15,9,6
1522606833121856,25,-22,-7,-4,-11,-57,-10,4
1522606833121856,-16,-5,-2,1,2,16,-3,-11
1522606833142912,2,5,-2,-6,-9,-39,-5,-9
1522606833142912,19,2,-1,2,10,28,4,0
1522606833144917,-21,-5,-3,2,1,9,0,2
1522606833144917,-18,0,2,-1,2,5,-1,-2
1522606833157952,28,-1,-4,-6,-5,11,2,6
1522606833157952,13,7,-3,0,3,-9,-6,-9
1522606833163968,11,2,-1,-2,-4,2,-1,-3
1522606833163968,-9,10,3,0,-5,0,1,-10
1522606833181013,-59,-11,-2,-1,0,28,3,-4
1522606833181013,7,-7,-3,-4,-6,-55,-17,-9
1522606833182016,8,2,-10,-6,1,33,-2,-6
1522606833182016,29,1,-2,-1,-4,-50,1,-1
1522606833203072,-25,1,4,0,1,-3,2,0
1522606833203072,-22,2,3,-1,-2,-19,-4,-2
1522606833205077,-1,2,3,-2,2,7,0,-2
1522606833205077,19,2,0,0,-1,9,-4,12
1522606833217109,-11,5,1,1,1,-7,-2,-1
1522606833217109,4,-10,-7,-1,0,29,8,3
1522606833226133,12,2,1,-2,-2,-3,8,5
1522606833226133,-53,-42,-9,-5,-2,13,-7,-25
1522606833241173,10,19,-3,-5,-10,-25,-3,-7
1522606833241173,14,-4,-1,1,4,7,-5,4
1522606833242176,3,-2,-1,-1,0,1,-2,-1
1522606833242176,-7,6,1,2,-1,20,2,2
1522606833263232,1,-3,4,1,12,4,-3,0
1522606833263232,-18,-1,-2,-1,1,7,10,-7
1522606833265237,12,5,2,2,-3,-12,-4,5
1522606833265237,20,11,-2,-1,7,7,1,-2
1522606833277269,-24,-12,-3,-2,-9,-21,-16,-5
1522606833277269,16,11,1,0,-11,-27,1,2
1522606833286293,-19,-4,5,2,8,10,4,-8
1522606833286293,22,-16,-11,-11,-3,2,-5,-4
1522606833300330,17,-3,1,-2,-3,-2,-5,2
1522606833300330,1,6,1,4,6,-13,1,2
1522606833302336,8,2,-1,-1,-15,-10,-8,-4
1522606833302336,-23,10,3,4,-5,0,-6,3
1522606833323392,5,-7,-1,-1,-2,6,12,3
1522606833323392,3,-3,-4,-7,23,28,-14,0
1522606833324395,-28,-5,-6,-5,-27,-3,-4,-3
1522606833324395,37,26,7,0,-55,1,3,15
1522606833336426,-18,-17,-5,2,64,-19,9,-1
1522606833336426,-17,-10,-2,4,-11,-9,2,1
1522606833345450,-10,-7,-1,5,18,24,3,-7
1522606833345450,14,11,-3,-3,4,14,-4,2
1522606833360490,-4,8,1,0,-24,-1,-5,-4
1522606833360490,9,-13,-2,-4,-4,22,5,1
1522606833362496,25,15,-3,-4,4,-49,-3,4
1522606833362496,-51,-14,0,1,7,14,6,-4
1522606833383552,47,11,4,1,-9,-44,-21,-1
1522606833383552,-24,3,-5,-3,4,21,9,-2
1522606833384555,39,1,-2,4,-8,1,1,-2
1522606833384555,-54,-34,5,2,6,-8,2,-10
1522606833396587,-3,-6,-4,-2,16,106,11,-3
1522606833396587,-22,6,-5,-13,-35,-82,-24,-7
1522606833405610,10,5,2,3,5,3,-17,0
1522606833405610,-2,0,-2,0,5,-9,-4,-1
1522606833420650,31,8,1,2,-3,20,16,9
1522606833420650,-15,-1,1,-2,-26,5,-5,-7
1522606833422656,-7,-18,-8,1,32,4,1,0
1522606833422656,-5,2,0,2,13,-1,5,-2
1522606833443712,-14,1,2,1,-9,34,-7,0
1522606833443712,35,8,-1,1,-5,-68,-1,0
1522606833445717,-21,-21,-4,-5,-20,-20,8,-1
1522606833445717,16,12,3,4,6,10,-7,-8
1522606833456747,-22,-9,-3,-2,-11,-18,1,-5
1522606833456747,23,4,-1,0,12,31,2,-1
1522606833465771,-26,11,3,-2,2,15,8,1
1522606833465771,21,-9,-4,-2,4,-20,-2,15
1522606833480811,-24,-2,-1,-3,-10,-7,-3,-9
1522606833480811,-19,-14,-2,-1,7,28,0,-2
1522606833482816,17,-2,-1,0,-7,-29,-5,-2
1522606833482816,1,2,-3,-3,4,17,6,7
1522606833502869,12,6,2,-1,-8,-26,-2,5
1522606833502869,-24,-2,3,3,11,29,3,-4
1522606833504875,-15,-3,0,-5,-2,9,-2,-7
1522606833504875,-20,-13,-9,-3,1,-14,-6,-9
1522606833516907,22,-1,-3,-1,-7,8,1,-1
1522606833516907,8,-2,0,-1,-12,31,6,1
1522606833525931,-2,-3,5,1,24,-34,5,11
1522606833525931,24,19,3,1,5,11,-11,-13
1522606833540970,-1,-5,-2,0,-5,-17,-9,-3
1522606833540970,-31,-17,0,-1,-4,-20,0,-6
1522606833541974,5,-3,-4,-3,-13,23,0,0
1522606833541974,7,7,5,3,1,-23,-1,8
1522606833563029,-17,-2,-4,1,1,-5,0,4
1522606833563029,-5,4,3,0,5,32,3,6
1522606833565034,52,-1,-5,-1,-6,7,-1,-1
1522606833565034,-2,0,0,-1,6,0,3,-2
1522606833577066,-47,-5,-5,-4,-9,-27,2,-10
1522606833577066,56,12,0,1,8,3,2,5
1522606833586090,-70,-14,-5,-5,-9,17,-5,-14
1522606833586090,60,27,3,0,1,2,2,1
1522606833601130,-27,-16,-5,-4,-1,-2,1,0
1522606833601130,29,14,1,0,4,2,-5,6
1522606833602133,-46,-22,2,-1,-2,8,-1,-3
1522606833602133,64,17,2,-3,-10,-22,-1,9
1522606833623189,-41,-9,1,5,5,8,2,-21
1522606833623189,-1,13,-2,1,7,-11,4,8
1522606833625194,3,-15,-1,-2,-1,12,-5,-8
1522606833625194,-37,0,6,0,-2,-6,3,13
1522606833637226,53,3,0,-2,-1,-3,2,13
1522606833637226,-45,-12,-2,-1,-2,-2,-5,-16
1522606833646250,-8,19,-1,4,3,18,-2,-3
1522606833646250,-20,-19,-2,-4,-6,-37,-1,-9
1522606833660288,-30,8,1,-4,2,7,3,1
1522606833660288,16,4,3,3,3,30,-2,6
1522606833662293,77,8,-3,-4,-10,-45,-3,6
1522606833662293,-37,-21,-10,-8,0,8,-2,-16
1522606833683349,-9,15,3,-5,-9,7,-3,4
1522606833683349,33,1,2,5,6,3,4,6
1522606833684352,-37,-18,-5,-3,-2,14,-1,-21
1522606833684352,-7,-3,1,2,0,5,2,14
1522606833696384,23,-17,-3,2,3,-6,1,5
1522606833696384,-22,4,-4,-5,-3,0,-2,-4
1522606833705407,5,14,1,-2,-4,-3,-4,1
1522606833705407,17,-5,0,2,2,7,5,6
1522606833720448,-40,-8,-1,0,0,54,-6,-10
1522606833720448,-9,-17,1,1,-11,-88,0,-2
1522606833722453,46,18,-3,-4,-8,-44,-6,7
1522606833722453,-43,-3,-6,-3,-2,13,0,-1
1522606833743509,29,-3,-3,2,5,13,1,5
1522606833743509,1,5,3,0,1,16,0,-2
1522606833744512,-9,9,6,2,2,17,8,12
1522606833744512,-16,-8,-3,0,0,-4,-2,-13
1522606833756545,39,-7,-4,-3,-5,-23,-3,0
1522606833756545,-24,-9,-8,-4,-6,16,-7,-10
1522606833765568,4,4,4,0,2,0,1,8
1522606833765568,-6,3,2,0,-1,8,1,-3
1522606833780608,-45,-2,4,2,2,-6,1,-1
1522606833780608,56,3,-7,-2,1,-7,-2,-2
1522606833782613,-9,3,2,3,7,25,0,1
1522606833782613,-14,-3,-3,-2,-5,-2,-4,-5
1522606833803669,20,20,4,1,-6,-19,1,4
1522606833803669,1,-14,0,-2,-4,15,-1,-2
1522606833804672,25,9,-2,-5,5,8,0,15
1522606833804672,4,-4,2,6,-2,-34,-10,-12
1522606833816704,0,2,3,-1,-7,-36,-5,0
1522606833816704,-37,-21,-2,-2,7,-26,-6,-3
1522606833825729,-23,-7,0,-1,-12,23,17,-2
1522606833825729,71,13,-4,-2,4,1,-3,7
1522606833839765,-27,9,5,2,8,9,-2,9
1522606833839765,-21,-5,-7,-2,-5,3,-7,-12
1522606833846784,4,0,3,-2,1,-12,4,-3
1522606833846784,-3,1,-1,-3,-9,16,-8,2
1522606833862826,-22,-8,-2,1,-1,-3,1,-3
1522606833862826,43,13,-4,-6,0,16,1,4
1522606833864832,-57,-14,2,6,6,20,10,-7
1522606833864832,66,17,-3,-9,-6,-7,-15,0
1522606833876864,5,-16,-2,3,3,22,-6,-4
1522606833876864,-30,-1,3,-2,1,42,0,1
1522606833885888,14,14,0,5,-9,-65,6,-1
1522606833885888,-33,-21,-1,0,14,-27,18,-2
1522606833899925,18,1,-7,-6,-8,2,-18,-7
1522606833899925,-1,5,1,-4,-3,-5,-4,6
1522606833906944,14,9,1,5,7,32,-5,-1
1522606833906944,-21,-11,-3,-1,-6,42,3,-1
1522606833922986,12,5,2,3,7,-44,27,4
1522606833922986,-28,-9,2,0,-28,0,-25,-1
1522606833924992,69,14,-3,-1,11,-46,-18,-7
1522606833924992,-50,-34,-9,-8,6,20,3,-6
1522606833946048,22,8,-2,-3,5,19,7,-1
1522606833946048,1,3,2,-1,-8,-40,-2,11
1522606833947051,-49,-18,-3,-1,14,14,-6,-15
1522606833947051,6,8,3,6,-19,-23,-5,3
1522606833960085,24,16,8,2,-7,17,3,2
1522606833960085,8,1,-2,2,14,-4,8,-3
1522606833967104,-71,-22,-4,-7,-7,15,-7,2
1522606833967104,83,23,-1,-3,-7,-44,-12,7
1522606833983146,-32,-13,-3,2,0,8,5,-5
1522606833983146,15,4,3,5,3,8,8,-4
1522606833985152,15,-2,0,-1,3,7,-8,3
1522606833985152,-36,3,7,8,9,29,10,0
1522606834006207,4,7,-1,-5,-7,-5,-13,-5
1522606834006207,-1,1,0,-1,2,-7,-2,-1
1522606834007210,3,-6,-6,-3,-17,-7,1,-6
1522606834007210,-12,-2,0,2,8,13,5,1
1522606834020245,2,4,-4,-3,-4,-10,-1,4
1522606834020245,11,1,-4,-2,10,7,8,-2
1522606834027264,29,-4,-3,-3,1,46,2,1
1522606834027264,-38,-14,-3,-3,-10,-69,-15,-5
1522606834043306,5,16,6,2,5,12,2,2
1522606834043306,28,-12,-6,0,-5,20,4,-6
1522606834045312,3,2,1,0,-7,-74,-9,2
1522606834045312,11,6,0,0,6,37,6,0
1522606834065365,-14,-4,-5,-7,-5,-14,-5,4
1522606834065365,-36,3,3,3,6,14,7,3
1522606834067371,30,-1,-1,-1,0,15,-2,0
1522606834067371,16,-2,1,-3,-1,11,4,3
1522606834080405,-21,-11,-7,-4,-4,-28,-10,-5
1522606834080405,1,7,4,1,1,2,1,-1
1522606834086421,-32,-10,-6,-4,-7,-9,-3,-10
1522606834086421,18,14,1,1,1,6,2,2
1522606834103466,-16,-15,-1,1,3,26,-4,-1
1522606834103466,-20,-13,-4,-5,-3,17,4,-3
1522606834104469,25,10,-3,-5,-9,-45,-14,-11
1522606834104469,-24,-7,1,2,3,10,1,-3
1522606834125525,18,2,-2,-4,-7,-45,-4,-1
1522606834125525,-30,-7,2,-2,0,-1,0,-2
1522606834127530,7,13,1,1,2,4,2,8
1522606834127530,17,0,-2,2,4,14,-2,-2
1522606834139562,15,1,-2,-1,2,7,5,-4
1522606834139562,-22,5,0,1,-1,-12,-3,-2
1522606834146581,24,10,2,4,5,26,10,15
1522606834146581,-23,-3,-3,-2,-2,-5,-9,-12
1522606834163626,2,3,4,3,0,-3,-2,4
1522606834163626,11,-10,-6,-4,-1,-6,-3,1
1522606834164629,1,5,3,2,3,12,1,11
1522606834164629,22,-6,-7,-7,-5,5,1,4
1522606834185685,-1,-9,-4,1,-2,18,2,-10
1522606834185685,-17,22,0,0,-8,-17,1,0
1522606834187690,-4,-41,-9,-4,-4,-21,-11,-16
1522606834187690,-28,-7,1,3,7,7,5,5
1522606834199722,10,4,0,-1,3,12,0,2
1522606834199722,-2,-12,-4,-2,-1,17,-1,-5
1522606834208746,8,8,2,3,2,8,6,4
1522606834208746,-28,6,-1,-4,-3,-4,6,14
1522606834222783,6,-17,-3,0,1,10,-2,-5
1522606834222783,23,14,4,-1,-1,-21,0,21
1522606834224789,25,23,7,1,2,11,0,-2
1522606834224789,-3,6,0,-2,-5,-2,-5,-25
1522606834245845,5,-21,-5,-1,1,2,-8,-12
1522606834245845,-18,-11,-2,-2,-2,-21,-2,-9
1522606834246848,-8,-11,-3,1,1,4,4,-1
1522606834246848,-4,6,3,1,1,9,6,13
1522606834258880,1,19,6,-2,0,-9,0,-3
1522606834258880,49,-8,-7,0,1,50,-6,-16
1522606834267904,-28,-12,-7,-8,-17,-78,-9,-16
1522606834267904,-30,8,4,4,0,-4,-2,-24
1522606834282943,16,8,-1,-3,0,9,0,3
1522606834282943,1,-30,-3,4,9,4,7,23
1522606834284949,1,17,4,3,4,25,5,24
1522606834284949,9,-13,-6,-3,-6,-1,-1,6
1522606834306005,-6,-7,-2,-2,-2,-15,-1,1
1522606834306005,-28,18,2,-1,7,-5,-3,-19
1522606834307008,10,-9,-3,-1,-2,4,-1,-2
1522606834307008,-23,-5,-2,-2,-6,-11,-4,-8
1522606834319040,-8,10,5,0,1,38,2,-2
1522606834319040,8,-5,-2,0,-6,-74,-5,-6
1522606834328064,-11,-2,-2,-3,2,25,1,4
1522606834328064,0,14,-1,-4,0,6,-1,8
1522606834343103,-2,-3,-5,-1,-1,8,0,-4
1522606834343103,0,-2,3,3,-3,-36,-6,-16
1522606834345109,-18,2,0,-2,-5,5,-1,-5
1522606834345109,22,-8,-3,-2,0,3,0,9
1522606834366165,-12,-4,-4,-6,-1,-5,2,10
1522606834366165,10,-7,-3,-2,1,15,1,0
1522606834367168,10,3,0,3,4,-8,-6,-6
1522606834367168,-34,-8,-4,1,-2,2,-3,-7
1522606834379200,26,-7,-6,-3,-3,-18,-6,-4
1522606834379200,-1,11,0,-1,1,21,-3,4
1522606834388223,1,-2,1,-1,-2,12,-3,-7
1522606834388223,3,-4,2,3,7,13,2,-1
1522606834403263,12,11,-1,-2,-3,5,-4,-1
1522606834403263,-10,-1,-1,-5,-13,-43,-7,1
1522606834405269,7,1,0,-3,5,17,6,3
1522606834405269,-12,-9,-1,1,-2,-35,-11,-4
1522606834425322,6,2,0,1,2,5,1,0
1522606834425322,13,11,0,-4,-2,8,-3,-1
1522606834431338,-17,-16,-2,1,0,21,9,-2
1522606834431338,22,8,0,-1,-1,18,-5,-3
1522606834439359,-14,-12,-6,-1,-4,-26,-1,1
1522606834439359,-28,2,1,-2,-8,18,7,5
1522606834448383,23,10,3,-2,2,6,5,13
1522606834448383,9,11,0,-4,-4,4,5,-3
1522606834463423,-5,-22,-3,-3,2,-15,-8,-2
1522606834463423,-69,-9,2,-2,3,7,0,-3
1522606834464426,61,3,-7,3,9,46,-1,-1
1522606834464426,27,8,3,-3,-1,-50,0,5
1522606834485482,-23,13,3,1,-9,9,3,1
1522606834485482,42,-3,-3,-29,10,-10,5,7
1522606834487488,-55,-3,0,2,-3,-22,-2,-7
1522606834487488,-2,-10,1,40,46,8,-13,-8
1522606834499519,-2,6,2,6,11,-20,-1,-1
1522606834499519,-1,2,0,6,1,11,7,-1
1522606834508543,1,-1,-5,-23,-25,-8,-7,-5
1522606834508543,12,-5,0,-6,-11,11,15,3
1522606834523583,-15,-5,1,2,4,2,-17,7
1522606834523583,21,12,6,4,-5,20,3,15
1522606834524586,-40,-2,-3,0,-4,-8,-3,-14
1522606834524586,-4,-9,-6,-2,-5,-10,-7,-2
1522606834545642,34,1,-2,-5,-10,-15,1,0
1522606834545642,-47,4,1,4,-1,34,5,-2
1522606834547648,47,5,-7,-2,4,-40,-6,-1
1522606834547648,-12,-4,0,-6,-4,60,0,-6
1522606834559679,2,7,1,-5,-15,-65,-6,-6
1522606834559679,18,-9,-2,6,12,-9,8,6
1522606834568704,-36,-7,1,9,8,31,-3,-4
1522606834568704,13,5,1,-3,-12,-2,4,0
1522606834582741,-16,-10,-6,-6,-1,-1,-1,-5
1522606834582741,5,-19,-6,4,0,7,-10,-20
1522606834584746,-33,-7,3,0,-7,-10,0,7
1522606834584746,18,2,0,-2,0,-17,2,8
1522606834605802,40,11,6,1,-13,16,-7,9
1522606834605802,-49,-9,-5,3,18,17,13,-10
1522606834607808,-17,0,3,0,0,9,2,8
1522606834607808,1,-11,-6,-8,-8,-42,-13,-6
1522606834619840,30,2,-2,1,-1,25,18,1
1522606834619840,30,5,0,3,-10,-9,-7,-6
1522606834627861,-42,-2,8,8,8,-6,-13,-7
1522606834627861,25,-6,-12,-11,-7,37,14,-3
1522606834642901,-4,17,2,2,-2,-24,-1,12
1522606834642901,8,-18,-2,-2,-2,28,-9,-7
1522606834644906,-14,-3,-5,-3,-1,-61,0,-4
1522606834644906,-38,-11,-3,-1,-2,7,-8,-13
1522606834665962,13,27,6,1,3,12,4,-1
1522606834665962,-4,-20,-7,-5,-3,-10,0,8
1522606834666965,9,0,4,4,-5,10,-7,-19
1522606834666965,-23,-8,-2,-5,2,-17,-1,-2
1522606834678997,-9,-11,-9,1,5,11,-3,-19
1522606834678997,12,24,8,5,4,-6,1,5
1522606834688021,-9,-9,-6,-4,-4,23,4,0
1522606834688021,27,17,5,-2,-16,-30,-1,28
1522606834703061,-49,-16,-5,-4,2,-13,-6,-14
1522606834703061,9,9,4,5,9,2,-3,-16
1522606834705066,55,1,-8,-6,-7,33,0,3
1522606834705066,-12,5,5,1,-3,-50,2,2
1522606834726122,22,-5,-1,-3,1,20,2,0
1522606834726122,-59,-10,-5,-3,-16,-28,-6,7
1522606834727125,-1,-7,-5,-2,9,10,5,-1
1522606834727125,19,34,10,1,3,23,-3,-3
1522606834739157,-13,-36,-3,0,-5,-12,-1,5
1522606834739157,-12,2,-2,-3,0,-4,0,-5
1522606834748181,5,-9,-2,-2,-1,13,-3,0
1522606834748181,17,5,-3,1,-3,-26,-2,1
1522606834763221,-1,11,2,1,0,3,0,-1
1522606834763221,15,1,0,-2,-4,0,4,27
1522606834765226,2,5,6,8,10,10,6,3
1522606834765226,-3,-3,-8,-7,-7,12,-5,-7
1522606834785279,-13,-25,-13,-6,-6,0,-3,-13
1522606834785279,1,6,2,3,-1,-18,-1,2
1522606834787285,-7,-7,-6,-3,-3,-13,1,4
1522606834787285,-7,-16,0,4,7,23,-1,-2
1522606834799317,-5,16,2,0,8,12,-1,-8
1522606834799317,6,-8,-4,-3,-7,-1,-5,0
1522606834808341,19,-10,5,2,-2,-10,-2,-3
1522606834808341,3,6,-1,-1,4,39,7,-6
1522606834822378,-9,-8,-2,4,-2,-26,-1,1
1522606834822378,8,3,-4,1,-5,-23,-10,-17
1522606834829397,17,31,9,-3,-1,-15,3,21
1522606834829397,-7,-36,-7,0,4,22,0,-20
1522606834845440,-24,-4,4,3,2,11,3,5
1522606834845440,27,20,-2,-4,-4,-9,-5,-9
1522606834847445,-10,1,-4,-2,-2,-9,-2,8
1522606834847445,-38,11,0,1,2,0,2,-13
1522606834868501,-11,-14,-4,0,2,20,0,-15
1522606834868501,33,-6,-6,-5,-6,5,-8,-15
1522606834869503,-3,8,1,1,-2,-27,-2,3
1522606834869503,-10,-9,2,7,0,8,0,6
1522606834882538,-2,14,-1,-6,-5,-17,-2,1
1522606834882538,0,-3,-1,1,4,16,3,0
1522606834889557,6,3,0,-3,-2,15,3,13
1522606834889557,-18,-1,1,0,-9,-30,-5,-4
1522606834905599,10,-3,0,-1,3,4,0,5
1522606834905599,-7,-4,-3,-3,4,20,2,13
1522606834907605,-15,0,-4,0,-6,-13,-4,-25
1522606834907605,8,-1,6,0,-1,-6,-4,-9
1522606834928661,32,17,1,-2,-2,8,7,26
1522606834928661,-44,-9,1,1,-5,-5,3,-8
1522606834929664,27,-3,-7,0,5,22,-1,-20
1522606834929664,-11,-10,-1,-2,2,-12,-4,3
1522606834942698,8,7,5,0,-2,-7,-5,-36
1522606834942698,-1,5,3,-2,0,8,0,18
1522606834949717,-22,5,4,2,0,-10,0,0
1522606834949717,5,4,-7,-4,-5,-10,-3,6
1522606834965759,1,0,-9,-11,-2,14,-1,2
1522606834965759,1,-2,1,10,1,-8,3,-28
1522606834967765,-19,-11,5,-1,1,-17,-7,-4
1522606834967765,20,11,-1,-4,0,37,6,0
1522606834987818,-28,-8,2,1,-4,-36,-7,-15
1522606834987818,33,6,-3,-1,0,-2,-2,2
1522606834989823,3,-3,-4,-5,4,-10,1,4
1522606834989823,-63,-11,-3,-2,1,9,-2,13
1522606835002858,72,13,4,-1,-8,17,5,22
1522606835002858,12,4,0,-2,0,-4,-2,0
1522606835008874,28,7,-3,2,0,24,6,-2
1522606835008874,-16,-24,-6,-5,0,6,-3,5
1522606835025919,-50,-8,-2,0,-3,-26,-7,-2
1522606835025919,41,19,6,1,-4,-10,0,2
1522606835026922,-3,2,0,-1,-22,-10,-18,6
1522606835026922,0,4,-1,-3,52,22,6,-6
1522606835047978,0,-6,-2,3,7,25,19,11
1522606835047978,0,-5,-3,-1,-5,15,9,7
1522606835049984,12,-2,-2,-19,14,16,-1,-1
1522606835049984,-35,4,2,5,-44,-18,-4,-3
1522606835063018,24,-7,-5,11,20,0,10,-28
1522606835063018,-25,-4,-1,-3,-4,-3,-22,2
1522606835069034,20,2,3,5,-2,-3,5,31
1522606835069034,30,9,-1,-13,-18,-6,17,19
1522606835086079,-12,-3,-4,-5,5,16,-10,-7
1522606835086079,0,-3,0,3,3,35,9,1
1522606835087082,-21,-2,-3,-9,-20,-56,-13,-9
1522606835087082,27,6,7,6,-3,5,-5,-5
1522606835108138,-8,3,4,4,13,10,1,8
1522606835108138,19,7,-1,-8,3,-20,-9,0
1522606835110144,-44,-15,1,6,-3,11,5,-6
1522606835110144,8,2,0,2,13,-9,3,10
1522606835122175,0,4,-1,-2,-16,-10,-4,2
1522606835122175,25,2,-3,-7,-32,-27,-7,-11
1522606835131200,-11,-6,0,2,32,14,8,-11
1522606835131200,5,4,-3,-8,-34,-8,-1,-5
1522606835145237,-25,-1,0,-16,12,-3,1,5
1522606835145237,-21,-9,-4,2,-14,-11,-24,-34
1522606835147242,5,3,-3,8,5,-27,14,1
1522606835147242,13,-2,-1,11,12,-49,-19,-6
1522606835168298,-18,-8,-2,-2,-2,1,1,-7
1522606835168298,12,-4,-5,-6,11,35,16,6
1522606835170304,-23,-9,0,-1,-13,2,0,-4
1522606835170304,35,0,-7,-7,-5,11,-10,-11
1522606835182335,-8,11,1,0,-6,-7,-14,-7
1522606835182335,-32,-13,6,0,7,5,-2,4
1522606835190357,5,17,3,5,-8,-2,13,-1
1522606835190357,-14,-11,-11,-5,4,-17,6,6
1522606835205396,23,-4,0,-1,-9,6,-2,10
1522606835205396,-13,-2,-2,-5,4,-18,-1,2
1522606835207402,8,15,10,8,1,17,0,-3
1522606835207402,10,5,-2,-3,3,21,-3,2
1522606835228458,3,9,2,3,-7,-28,-10,-3
1522606835228458,-21,-10,-2,2,0,-5,7,4
1522606835229461,18,-11,-10,-8,-7,3,-8,-10
1522606835229461,1,-3,-1,5,5,35,9,0
1522606835241492,-8,-6,-4,2,-10,-66,-11,2
1522606835241492,-6,14,-1,0,3,3,5,1
1522606835250517,-18,-8,2,1,-3,-6,-9,-1
1522606835250517,31,-6,-6,-5,-2,-13,-4,12
1522606835265556,13,3,7,5,5,46,15,4
1522606835265556,-33,-3,2,2,6,15,11,1
1522606835267562,2,3,-1,-1,0,9,-11,-2
1522606835267562,1,-1,2,-2,-6,-37,-2,-2
1522606835288618,1,10,-3,-3,-3,14,0,10
1522606835288618,6,-9,-5,0,-2,-15,3,1
1522606835289621,11,12,3,1,3,17,5,-7
1522606835289621,-12,-18,-2,-1,-4,7,2,-1
1522606835301653,12,-4,-4,-3,11,13,-4,4
1522606835301653,-1,9,2,3,-2,37,-1,4
1522606835310677,-4,-9,1,-4,-12,-82,-5,-1
1522606835310677,1,6,6,3,8,6,0,1
1522606835325717,-12,-1,-1,-2,-6,-4,6,5
1522606835325717,27,-8,0,1,4,16,-2,-3
1522606835327722,-10,11,1,1,6,19,-1,8
1522606835327722,4,0,-1,-2,-9,-29,3,15
1522606835347775,-17,-6,9,8,0,6,-2,-3
1522606835347775,4,9,-4,-1,0,-17,-8,-6
1522606835349781,-8,-18,-9,-3,-3,14,0,4
1522606835349781,-6,-11,5,1,0,-3,1,5
1522606835361812,38,20,-2,0,3,13,-5,-8
1522606835361812,-1,-17,-4,-8,-7,-20,-1,10
1522606835370837,-4,6,2,1,2,7,-3,-7
1522606835370837,-19,5,1,-1,-1,21,-6,-14
1522606835385877,10,-1,-1,-7,-6,-31,2,34
1522606835385877,-9,2,0,-2,-1,-9,-4,-3
1522606835386880,-4,-6,-9,-2,-1,2,-5,-22
1522606835386880,20,7,2,0,0,20,-6,-10
1522606835407935,-37,-23,0,7,10,19,0,-12
1522606835407935,19,26,7,4,2,16,6,11
1522606835409941,-24,-1,-5,-3,-17,-43,-3,-10
1522606835409941,-23,-4,-4,-6,2,-11,-1,-4
1522606835421972,17,-11,-5,-1,-6,-8,-1,7
1522606835421972,-22,-21,-1,-1,8,13,2,12
1522606835430997,59,22,4,1,8,36,13,49
1522606835430997,-25,-3,-2,3,-4,-19,-3,-11
1522606835446037,-38,-1,-2,1,-3,0,-4,-13
1522606835446037,34,-14,-7,-4,-5,-12,-5,-17
1522606835447039,-1,5,-7,1,9,52,4,18
1522606835447039,49,11,2,1,-5,-48,0,9
1522606835468095,-37,-7,5,-3,-3,4,-1,1
1522606835468095,-13,6,6,2,0,17,0,0
1522606835470101,-9,-11,5,2,-6,-62,-2,-8
1522606835470101,41,-7,-16,-8,1,36,-10,-1
1522606835482133,-24,-3,-2,0,-3,3,6,-12
1522606835482133,1,8,-1,0,-2,-19,-1,0
1522606835491157,46,-6,2,0,6,29,7,30
1522606835491157,-23,9,1,-2,-2,1,-5,-9
1522606835506197,-18,-6,-4,-6,-3,-5,-8,-21
1522606835506197,15,-8,-9,-7,-3,-11,-1,2
1522606835507199,-28,-8,4,3,3,23,-6,-11
1522606835507199,14,10,7,3,-4,-49,-3,-3
1522606835528255,-29,-13,-7,-4,-4,6,0,1
1522606835528255,31,11,-3,1,0,29,1,0
1522606835530261,-6,-6,-6,-7,-8,-62,-4,-23
1522606835530261,-12,14,5,2,3,21,4,19
1522606835542292,17,-1,5,1,0,14,-1,1
1522606835542292,-4,5,-2,-1,-2,-16,-4,-6
1522606835551317,-25,-24,1,2,3,13,2,2
1522606835551317,-14,1,-4,-5,-7,-17,0,-3
1522606835565354,36,8,-2,-1,-2,-8,7,12
1522606835565354,-28,6,9,7,3,-4,-4,11
1522606835572373,-4,14,-2,-1,1,13,-11,-18
1522606835572373,11,-10,-2,3,6,26,8,-1
1522606835588415,28,19,0,0,1,4,4,-1
1522606835588415,1,6,5,-4,-16,-15,6,6
1522606835589418,12,0,-8,-8,-4,4,-8,-5
1522606835589418,-28,-12,2,5,1,-18,-6,-22
1522606835601450,7,4,2,-2,2,4,0,1
1522606835601450,8,-2,-4,-3,0,-20,-6,1
1522606835610474,-14,6,-3,-11,5,47,8,0
1522606835610474,-5,-8,-1,-2,-8,-33,3,-13
1522606835625514,8,-7,-2,-1,1,30,-1,-6
1522606835625514,-30,-6,-1,2,0,-66,-11,-9
1522606835627520,-19,-3,-2,-13,-17,3,-1,-3
1522606835627520,6,15,5,22,24,32,7,14
1522606835648575,19,-10,-3,-1,-6,13,-4,-11
1522606835648575,-17,-21,-3,4,3,6,3,-9
1522606835649578,0,0,0,-27,-6,-1,-2,0
1522606835649578,16,5,-4,20,0,13,2,8
1522606835662612,-33,4,4,16,15,-1,-2,6
1522606835662612,24,-12,-5,3,1,17,-3,-8
1522606835670634,-16,-5,1,9,11,-34,1,-5
1522606835670634,-28,-3,-4,-22,-15,30,-1,-2
1522606835685674,7,10,1,-5,-4,-12,5,4
1522606835685674,3,-11,-5,-14,13,7,-2,-8
1522606835687679,24,5,2,9,-30,-15,-5,0
1522606835687679,-10,-5,-6,-3,-14,-6,-5,-3
1522606835708735,-12,-2,-3,3,-1,-4,-4,-5
1522606835708735,-3,10,4,2,12,3,4,3
1522606835709738,10,-2,-3,-4,10,39,3,-1
1522606835709738,-9,0,-2,-2,-19,-23,-6,-1
1522606835721770,0,-8,2,-10,16,-47,1,12
1522606835721770,22,-2,-13,2,-48,-7,-5,-7
1522606835730794,-53,-9,-3,11,34,10,2,3
1522606835730794,30,-7,-3,-7,15,31,-4,-1
1522606835744831,-4,9,-3,-13,-23,8,-2,1
1522606835744831,-31,-14,-4,-4,8,-23,-2,-5
1522606835751850,21,2,-1,9,-2,-3,7,7
1522606835751850,-11,-6,2,-3,1,7,0,-1
1522606835767893,1,-4,-4,-27,-8,-3,-7,-1
1522606835767893,-18,5,-1,16,-15,-4,-8,-8
1522606835769898,30,4,-1,3,12,36,-5,-6
1522606835769898,-29,-6,4,-3,4,-50,4,0
1522606835790954,19,2,1,6,-18,-10,7,-2
1522606835790954,-3,-6,-3,-21,5,9,8,-15
1522606835791957,-12,-12,0,21,-6,14,2,2
1522606835791957,-5,1,-3,0,-2,-15,-24,-5
1522606835804991,31,6,3,2,2,36,-1,-3
1522606835804991,-34,0,0,-3,14,-16,5,5
1522606835812010,-13,-9,-2,-3,-7,-4,3,-1
1522606835812010,11,4,0,0,6,22,11,6
1522606835828053,-4,-1,-1,6,-1,-18,-10,0
1522606835828053,28,12,2,-10,-1,26,1,7
1522606835830058,-21,-10,-4,6,-10,-21,-6,-5
1522606835830058,0,1,3,0,5,31,6,5
1522606835851114,-15,-3,-3,-5,2,-45,-11,2
1522606835851114,27,16,3,-8,-16,3,-6,11
1522606835852117,-2,-12,2,9,9,-3,8,-7
1522606835852117,-13,2,-2,-8,-5,-34,1,3
1522606835865151,21,-2,-6,2,9,25,9,-3
1522606835865151,-6,-13,1,0,1,14,1,4
1522606835872170,21,21,3,7,-18,-16,-3,2
1522606835872170,-19,6,2,5,10,3,-4,-6
1522606835888213,12,-19,-9,-5,-4,-3,-4,-7
1522606835888213,2,8,3,3,5,-9,1,-1
1522606835890218,15,0,-2,-16,6,44,3,-6
1522606835890218,1,2,0,2,-7,-44,5,-3
1522606835910271,-44,3,-1,2,-4,-15,-15,-12
1522606835910271,3,-8,-2,-7,7,4,-4,-3
1522606835912277,0,8,-1,3,-12,-15,0,1
1522606835912277,21,1,4,4,6,45,8,-7
1522606835925311,-1,-3,-3,3,3,-12,6,-2
1522606835925311,-11,5,1,3,0,19,0,10
1522606835932330,13,3,1,-18,-2,-5,-6,1
1522606835932330,-19,-7,0,11,9,-11,-5,-16
1522606835948373,19,-2,-4,7,-5,6,-11,-29
1522606835948373,10,26,6,8,6,0,5,16
1522606835949375,-5,-56,-16,-7,-2,-8,-20,-26
1522606835949375,-30,10,0,-9,-3,2,6,-1
1522606835970431,-9,-9,-5,3,3,29,4,0
1522606835970431,31,20,10,5,1,-17,-10,-4
1522606835972437,-13,3,-1,-4,-2,-59,4,1
1522606835972437,29,-27,-4,-8,-7,14,-2,8
1522606835985471,21,1,4,5,6,13,7,16
1522606835985471,-56,-31,-10,-3,-2,17,-1,-13
1522606835991487,25,4,-3,-2,-6,-19,0,4
1522606835991487,43,39,1,-5,-7,10,-3,3
1522606836008533,-33,0,7,-4,0,1,6,12
1522606836008533,2,-12,-1,6,7,3,6,-7
1522606836009535,6,11,0,-1,2,0,-1,0
1522606836009535,-41,-38,-11,-7,-4,48,0,2
1522606836030591,8,4,2,0,-9,-63,-10,-2
1522606836030591,-1,-6,-3,2,1,-19,1,3
1522606836032597,-20,4,1,-2,8,9,1,2
1522606836032597,27,12,1,-5,-5,-2,-5,5
1522606836044629,-34,4,1,0,0,33,1,15
1522606836044629,36,-8,-4,1,-2,-16,5,20
1522606836051647,-23,-10,1,1,1,20,-3,-3
1522606836051647,-4,8,4,1,-5,-47,2,0
1522606836068693,28,2,0,1,2,0,-1,-1
1522606836068693,-30,-12,-1,4,6,7,-5,-16
1522606836069695,54,8,-2,-5,-3,7,-1,-2
1522606836069695,-76,-20,-1,0,-2,0,-5,-1
1522606836097770,23,6,1,-1,0,5,4,3
1522606836097770,11,9,-2,-3,-6,0,-3,0
1522606836099775,-10,22,7,0,2,-7,2,3
1522606836099775,26,-10,0,1,2,8,3,1
1522606836104789,17,1,-1,9,4,-12,0,-7
1522606836104789,-15,-16,-3,1,-3,34,7,14
1522606836113813,-18,-7,-4,-4,-11,-54,-7,2
1522606836113813,9,9,1,3,7,2,-1,0
1522606836127850,13,17,0,-2,-4,9,5,15
1522606836127850,9,-24,-11,-6,-3,10,-5,-8
1522606836129855,-52,-6,0,1,6,-2,0,-2
1522606836129855,17,7,0,-3,-4,42,-1,9
1522606836150912,-11,-13,-6,-3,-10,-94,-5,-5
1522606836150912,-26,7,2,2,3,1,-2,1
1522606836151914,23,7,0,-4,-7,9,2,16
1522606836151914,21,-11,-1,3,13,10,-3,-7
1522606836163946,-9,3,-3,-4,7,28,0,-7
1522606836163946,-23,-12,-2,6,-2,-12,1,-5
1522606836172970,7,3,-1,-4,-4,16,2,4
1522606836172970,-15,18,1,-13,5,-23,1,1
1522606836188010,28,-37,-7,3,-25,17,-1,8
1522606836188010,2,13,2,11,5,8,2,-4
1522606836190015,2,7,-3,3,11,3,3,-11
1522606836190015,-12,-17,0,4,-2,5,3,-2
1522606836211071,-28,5,1,-9,-2,14,-1,-10
1522606836211071,-4,4,-1,-8,-2,-5,-6,0
1522606836212074,22,9,6,1,0,19,0,0
1522606836212074,-9,-12,-9,0,-24,-29,-5,-2
1522606836224106,20,23,-2,-8,0,-15,1,0
1522606836224106,3,-8,1,0,-6,8,-2,0
1522606836233130,-25,-6,6,4,-1,-27,3,-1
1522606836233130,19,12,2,-5,-3,-7,-2,4
1522606836248170,-38,-7,3,4,16,21,-1,-1
1522606836248170,15,13,0,-10,-21,-24,3,-7
1522606836250175,24,7,-1,3,48,31,-11,-2
1522606836250175,-16,-3,0,25,-10,-43,-24,-4
1522606836271231,-4,-3,0,2,4,30,-4,-2
1522606836271231,8,9,3,-7,-11,-32,17,1
1522606836272234,-7,-2,-1,-12,-5,0,0,0
1522606836272234,14,5,-5,-12,5,20,8,-4
1522606836284266,2,5,2,7,2,4,-1,2
1522606836284266,-25,-16,1,-2,10,-11,-14,1
1522606836293290,9,4,-10,-7,-31,-6,2,-3
1522606836293290,-5,-15,-6,1,7,4,2,-1
1522606836308330,-14,-1,7,-1,-2,-2,1,1
1522606836308330,-1,20,-1,2,7,15,4,-4
1522606836309332,-5,-19,2,5,-7,-21,-5,-2
1522606836309332,-19,6,0,-4,-1,37,4,6
1522606836330389,27,-1,-5,-9,-4,-18,-2,-1
1522606836330389,47,1,0,5,16,19,-3,-2
1522606836332394,-46,-9,-4,3,-7,-44,-3,0
1522606836332394,14,12,3,-2,-6,-15,-2,0
1522606836344426,-4,-2,5,-9,20,14,2,-5
1522606836344426,-9,-2,-6,11,-14,7,-19,-10
1522606836353450,-3,-13,-1,-4,-2,-20,19,2
1522606836353450,3,6,0,1,-10,5,0,-1
1522606836368490,25,1,0,-1,15,-14,1,3
1522606836368490,-3,9,-3,-13,-9,0,-9,2
1522606836369492,-2,-6,0,9,6,27,-6,-6
1522606836369492,-25,-8,1,-2,6,2,9,-2
1522606836390548,25,-4,-7,-1,-19,11,-4,-4
1522606836390548,14,6,4,-7,4,-28,2,4
1522606836392554,-18,-8,-5,4,-2,26,-1,-2
1522606836392554,16,0,-3,-3,8,-11,2,-3
1522606836404586,-35,-10,-3,4,-8,24,3,-1
1522606836404586,12,3,1,2,-3,-49,1,2
1522606836413610,-6,10,-1,-10,-4,1,2,4
1522606836413610,31,-11,0,0,-3,-6,-10,3
1522606836428650,-47,-14,-5,-1,1,14,-6,-12
1522606836428650,-10,-7,-3,-1,-1,11,2,-2
1522606836429653,28,8,2,0,-6,23,3,5
1522606836429653,15,5,-1,-2,-7,-39,-11,-2
1522606836450709,3,10,3,4,0,-8,1,0
1522606836450709,1,-11,-3,1,10,13,3,-1
1522606836452714,-10,3,-4,-3,-11,25,-6,1
1522606836452714,-5,6,3,0,-2,-28,4,7
1522606836464746,20,19,4,1,0,-16,3,8
1522606836464746,-26,-16,2,2,-2,10,-3,-9
1522606836473770,8,-2,-1,-1,0,1,4,3
1522606836473770,-4,-2,-2,-4,0,21,3,1
1522606836487807,5,7,3,1,2,3,5,10
1522606836487807,-10,3,-3,-3,-2,11,-1,-1
1522606836489813,4,-10,-3,0,2,4,0,2
1522606836489813,-27,-4,-2,0,-2,-13,-3,0
1522606836510868,-7,-6,-3,1,-3,-3,-1,-9
1522606836510868,25,9,0,0,-1,8,5,6
1522606836511871,6,4,2,1,0,-7,-9,0
1522606836511871,10,-5,-4,-3,7,28,-3,-2
1522606836523903,-27,2,-1,-1,-13,-29,-5,-5
1522606836523903,25,-9,-4,-2,-3,-11,-1,1
1522606836532927,0,4,1,-2,-2,17,1,-4
1522606836532927,5,-4,-7,-5,-3,-44,13,-1
1522606836547967,-59,-10,0,1,4,12,-6,-12
1522606836547967,6,8,4,0,-8,15,2,6
1522606836549973,16,8,-2,-4,0,-18,0,-14
1522606836549973,12,-3,0,4,4,49,4,-1
1522606836571028,-8,5,-3,-2,-9,-52,-8,-17
1522606836571028,-2,8,7,1,2,-3,-9,6
1522606836572031,13,-19,-3,-4,0,-7,-1,-1
1522606836572031,-7,8,5,2,5,24,-2,-11
1522606836584063,-1,-14,-4,-4,-1,-4,0,-2
1522606836584063,-59,-19,1,2,5,17,2,-10
1522606836593087,79,21,3,0,-4,-27,-2,8
1522606836593087,-27,-11,-2,0,-5,3,3,7
1522606836608127,26,7,5,5,2,16,6,9
1522606836608127,8,5,0,1,1,5,-2,1
1522606836610132,-32,-5,-7,-4,-1,-5,-6,-9
1522606836610132,-6,-5,3,4,5,17,-1,-10
1522606836631188,-8,-13,-5,-3,-7,-1,-2,0
1522606836631188,-9,-6,-5,-7,-5,-19,-5,-5
1522606836632191,-1,-4,6,3,4,-6,3,5
1522606836632191,9,11,-2,-6,-4,-12,-5,-5
1522606836653247,11,-11,-3,0,3,27,-1,-2
1522606836653247,-9,7,-2,0,0,-5,2,-12
1522606836655253,-22,-24,-5,-2,0,3,-1,3
1522606836655253,-2,13,1,-4,0,-9,-3,12
1522606836667285,61,5,-4,-1,0,32,2,12
1522606836667285,16,10,0,-4,-11,-73,-6,-3
1522606836674303,-45,7,7,5,1,16,4,10
1522606836674303,-6,0,-2,-2,-3,-2,1,2
1522606836690346,-2,-3,-8,-6,-4,-9,-8,-18
1522606836690346,25,12,-1,1,4,24,2,4
1522606836692351,-22,21,1,1,4,-11,-3,-4
1522606836692351,13,-29,-8,-4,-7,-12,-4,-1
1522606836704383,-16,3,1,2,-1,-1,3,9
1522606836704383,25,6,-3,-1,3,19,4,2
1522606836713407,-12,0,5,3,7,4,1,-8
1522606836713407,7,4,-3,-5,-2,2,-5,-3
1522606836727444,-24,2,-1,-5,-11,-19,0,2
1522606836727444,-34,-11,4,4,2,4,7,1
1522606836734463,67,19,-1,-3,2,28,5,2
1522606836734463,-14,-14,0,-1,-3,-35,-5,-6
1522606836750506,-5,-7,-4,-7,-1,-10,-6,-2
1522606836750506,-29,-6,-2,2,0,-1,2,0
1522606836752511,19,6,1,-3,1,-7,-1,1
1522606836752511,-21,0,2,6,0,29,1,-5
1522606836773567,6,-1,5,4,5,-2,3,3
1522606836773567,2,-17,-11,-7,-4,0,-10,-8
1522606836774570,-35,2,2,1,-2,-9,0,3
1522606836774570,42,-9,-2,-1,1,8,0,1
1522606836787604,6,18,0,-5,-9,-55,-9,-1
1522606836787604,-29,-15,3,3,7,13,-5,2
1522606836794623,40,6,-4,-2,-2,7,1,3
1522606836794623,-25,-4,-3,0,0,-10,-5,-5
1522606836810666,8,2,-1,-2,-25,7,5,-2
1522606836810666,5,2,-3,-2,39,-5,-6,-1
1522606836812671,3,4,3,0,-9,-15,-2,15
1522606836812671,-43,-9,1,-2,11,13,2,-4
1522606836833727,29,-4,-1,1,-26,33,-3,-3
1522606836833727,-8,2,-4,-5,2,-20,2,-5
1522606836834730,-14,-8,-2,-5,-44,-25,0,-2
1522606836834730,23,18,4,11,84,18,7,6
1522606836847764,-29,-26,-6,-2,-3,16,1,5
1522606836847764,2,10,-3,-3,-22,5,-6,-7
1522606836854783,9,-7,-2,0,-33,-1,-6,-6
1522606836854783,21,20,3,0,-13,-1,-2,2
1522606836870826,-20,-4,1,1,22,3,6,2
1522606836870826,28,5,2,-2,-20,7,8,9
1522606836872831,8,-7,-6,-4,3,26,-3,-8
1522606836872831,1,6,0,1,-30,-26,-9,0
1522606836892884,2,-5,-1,-3,29,-6,8,4
1522606836892884,-5,-1,2,6,-11,15,-1,-7
1522606836894890,4,7,0,-1,10,0,-4,9
1522606836894890,-32,-26,-6,-4,9,5,-7,-16
1522606836907924,-2,3,-1,-3,-24,-41,-9,-6
1522606836907924,19,4,3,2,-3,23,7,4
1522606836913941,-4,2,-2,-2,23,-3,-4,-7
1522606836913941,0,-10,-4,-5,-12,3,-1,3
1522606836930986,-4,2,1,2,-1,19,5,-1
1522606836930986,-49,0,0,-3,-1,-23,-11,5
1522606836931989,58,1,-3,1,5,-15,-10,1
1522606836931989,-1,2,-3,-8,-7,-9,16,1
1522606836953044,-6,-16,1,6,6,11,-7,-6
1522606836953044,-9,8,-4,-2,3,42,16,5
1522606836955050,-23,4,2,-2,-8,-74,-13,6
1522606836955050,18,4,-3,2,-12,1,0,2
1522606836968085,-22,4,2,-1,12,9,-1,-4
1522606836968085,44,-9,-3,-2,2,21,6,4
1522606836974100,-57,-18,-11,-7,-25,-30,-11,-17
1522606836974100,19,16,10,6,28,28,6,6
1522606836991146,18,28,2,4,-3,-23,2,-2
1522606836991146,21,-18,-4,-7,-5,-13,2,2
1522606836992149,-21,-9,-2,0,6,27,6,-12
1522606836992149,25,17,0,-3,-5,-17,-10,4
1522606837013204,-33,-16,-2,0,-2,27,18,-10
1522606837013204,8,15,4,3,13,-14,-9,-3
1522606837015210,-18,-19,-2,2,14,1,9,-2
1522606837015210,24,15,3,-5,-17,8,-1,8
1522606837027242,4,-9,-2,-3,-2,4,-1,8
1522606837027242,-1,8,2,2,-5,-25,2,-1
1522606837036266,0,-5,0,1,13,18,0,0
1522606837036266,-28,-14,-5,-2,-12,6,6,-3
1522606837050303,8,9,0,-1,-1,26,-13,3
1522606837050303,7,-6,-3,0,-18,-64,-6,-3
1522606837052309,-13,-1,-3,1,17,22,7,-3
1522606837052309,13,5,-8,-9,-14,-17,-9,-6
1522606837073364,9,-13,-3,-3,6,-3,-13,-1
1522606837073364,-41,10,5,4,10,58,4,-1
1522606837075370,23,-14,-1,2,-6,-12,9,1
1522606837075370,-62,-13,-2,0,-14,-23,0,-1
1522606837086399,34,11,0,1,18,-11,-2,7
1522606837086399,14,-7,-4,-7,-6,-10,-8,-7
1522606837095423,5,17,5,-1,0,25,8,1
1522606837095423,-11,-14,-2,0,6,16,2,-3
1522606837110463,-11,9,4,-1,-9,17,2,5
1522606837110463,38,-5,0,-2,0,-62,-5,-3
1522606837112469,-21,2,0,0,4,25,0,7
1522606837112469,3,-12,-9,-3,-21,-53,-12,-16
1522606837133524,-51,-20,1,3,2,10,2,-8
1522606837133524,37,8,-2,-4,2,1,2,10
1522606837134527,-5,-5,-6,-5,-1,-4,-5,-7
1522606837134527,14,-3,6,2,4,14,2,7
1522606837146559,2,-1,-3,0,-3,17,-2,1
1522606837146559,-49,-16,-6,-1,-2,-52,-6,-3
1522606837155583,-3,4,-5,-5,6,-10,-6,-2
1522606837155583,-1,5,1,-2,4,47,1,-5
1522606837170623,14,-7,-8,-5,-10,-70,-4,-2
1522606837170623,11,5,-3,-4,-16,28,-4,-2
1522606837172629,-30,5,4,0,8,-3,-2,-1
1522606837172629,1,3,1,0,-2,-4,2,-5
1522606837193685,23,6,1,1,16,8,2,5
1522606837193685,-3,4,-6,-5,-9,30,-2,-5
1522606837194687,-3,2,3,1,-18,-54,-4,3
1522606837194687,52,15,-4,1,7,17,3,6
1522606837207722,5,4,0,-4,-3,10,-5,-7
1522606837207722,-3,3,6,6,8,-14,1,-8
1522606837215743,0,-2,-9,-3,-1,-2,0,-5
1522606837215743,-2,10,10,2,0,-13,4,18
1522606837230783,-13,-25,-7,3,-1,4,-3,-19
1522606837230783,15,13,5,3,5,42,7,5
1522606837232788,-15,-6,-2,-1,-4,-19,-4,3
1522606837232788,0,-6,-2,-1,-1,-6,1,5
1522606837252841,-31,15,4,1,3,-11,-3,-12
1522606837252841,11,-11,-7,-6,0,21,-1,9
1522606837254848,33,-6,-4,2,-1,15,1,-4
1522606837254848,-20,0,1,0,-6,-18,-7,-17
1522606837266879,26,16,4,-1,-2,3,3,13
1522606837266879,-40,-14,0,0,2,-8,0,6
1522606837275904,-15,-1,-6,-4,0,5,-3,6
1522606837275904,-4,-4,0,-1,-3,1,-5,-7
1522606837290943,-6,0,-2,1,-5,-4,5,11
1522606837290943,19,10,3,-1,-4,-3,0,32
1522606837291946,32,14,7,3,6,28,4,12
1522606837291946,-38,-25,-3,3,-3,-32,0,-7
1522606837313001,-17,8,-1,-6,-6,-10,-4,11
1522606837313001,27,-11,-6,1,5,0,-7,-18
1522606837315007,-5,-2,3,2,6,25,5,9
1522606837315007,12,4,1,-1,1,1,-3,2
1522606837327039,-4,-3,-2,5,0,-10,1,-4
1522606837327039,8,-12,-5,-8,-4,-8,-4,-21
1522606837336063,-6,-3,1,4,2,11,2,-8
1522606837336063,4,-7,-6,-2,0,33,4,5
1522606837351103,-11,-3,2,2,-1,-45,-2,-2
1522606837351103,-27,-3,-1,3,1,4,3,-3
1522606837352106,9,0,0,-3,-7,-11,0,-3
1522606837352106,6,15,0,-2,0,0,-1,2
1522606837373162,4,-24,-2,-3,9,34,2,-2
1522606837373162,-19,-11,-3,0,-4,-6,-3,-7
1522606837375167,-41,0,2,2,-2,-21,0,-4
1522606837375167,32,-2,-2,-3,-6,18,-1,1
1522606837387199,36,14,1,-3,-8,15,-2,-4
1522606837387199,-21,-13,-3,-2,4,-27,2,-6
1522606837396224,5,-1,3,3,6,21,9,4
1522606837396224,-1,1,-1,1,1,-16,-7,-5
1522606837410260,-8,0,-5,-3,-3,8,-2,-2
1522606837410260,-9,-5,-1,0,-1,-15,-6,2
1522606837412266,-1,5,5,0,-5,-10,-4,-4
1522606837412266,15,8,1,-3,-3,-7,-2,-7
1522606837433321,-8,12,4,-2,2,8,4,2
1522606837433321,20,3,-3,-1,-17,10,3,6
1522606837435327,-3,-3,-2,-3,18,31,-1,-8
1522606837435327,-9,-16,-3,-3,-9,-42,-5,-1
1522606837447359,15,2,-2,-1,3,-6,-4,1
1522606837447359,-3,8,0,-1,6,23,12,7
1522606837456383,14,9,1,3,-13,5,-4,-2
1522606837456383,-26,-2,-2,0,4,-4,0,-2
1522606837470420,7,-4,-2,-1,-1,-11,-2,1
1522606837470420,-22,0,0,0,-6,21,15,-6
1522606837472426,21,-1,-2,-3,10,-21,-25,-1
1522606837472426,-28,-10,-2,-3,-2,14,-2,-2
1522606837493481,27,6,3,-8,-25,-32,-9,5
1522606837493481,-26,6,2,18,48,16,30,-3
1522606837494484,-6,-23,-6,-4,-11,-20,-4,-7
1522606837494484,-5,10,-2,0,-3,54,1,-7
1522606837506516,-12,-17,-4,-4,2,-43,-4,-3
1522606837506516,21,7,1,-5,-17,-21,-20,1
1522606837515540,9,8,3,0,-2,23,12,3
1522606837515540,11,10,-1,-1,10,-2,9,13
1522606837530581,-25,-8,-6,-1,-9,17,-2,-5
1522606837530581,-20,-1,4,5,26,-6,-10,0
1522606837532586,45,3,-3,-2,-4,-12,-7,-26
1522606837532586,-15,4,-1,-4,-14,-3,-5,2
1522606837553641,11,-9,-1,-1,-8,-3,0,1
1522606837553641,-25,-5,-5,-6,-13,35,3,-3
1522606837554645,-2,3,3,1,24,1,5,8
1522606837554645,-4,0,-1,2,-32,-6,11,-1
1522606837566676,-7,3,-2,-1,21,-38,-6,-15
1522606837566676,-7,-6,-4,-16,-18,0,-12,-21
1522606837575700,-14,-1,-3,0,-6,-7,-5,6
1522606837575700,5,0,2,14,17,24,3,2
1522606837589737,-14,-2,-2,1,4,17,3,-4
1522606837589737,5,3,5,3,-4,29,10,-5
1522606837596758,38,0,-8,-17,-24,-53,-12,3
1522606837596758,-36,-18,-2,-3,9,-30,-9,-4
1522606837612799,2,2,0,7,-4,17,3,2
1522606837612799,-4,10,3,-2,10,-18,-9,1
1522606837614804,11,3,0,8,-3,18,9,-3
1522606837614804,-6,-10,-3,-4,6,-7,-6,-15
1522606837626836,21,3,0,-3,2,0,0,9
1522606837626836,-3,6,0,0,-12,-4,3,6
1522606837635860,-14,-19,-3,0,3,4,3,4
1522606837635860,-3,5,-1,-2,4,-13,-5,-1
1522606837649898,9,-5,-4,-5,-10,27,4,-6
1522606837649898,-10,2,-2,3,-6,38,3,7
1522606837656916,-16,-5,-5,-4,8,-32,-11,-6
1522606837656916,24,5,-1,-3,-1,-82,-6,2
1522606837672959,-36,-26,-1,0,-2,16,-2,-17
1522606837672959,8,1,-5,-5,0,-8,-7,-5
1522606837674964,-20,2,3,3,-5,43,11,13
1522606837674964,2,-7,3,1,1,25,-4,-24
1522606837696020,-11,15,-3,-7,4,-13,-5,0
1522606837696020,10,-15,-2,-2,-5,-19,-6,-5
1522606837697023,-10,13,8,1,-3,1,0,-9
1522606837697023,19,9,0,-3,7,3,3,13
1522606837710057,7,4,2,8,-1,2,-1,-3
1522606837710057,-5,2,-2,-2,-3,-9,-6,-20
1522606837717077,7,15,3,4,13,16,4,-8
1522606837717077,-17,-14,-7,-5,-9,8,-6,-5
1522606837733119,-2,-17,-2,-3,-13,8,1,-11
1522606837733119,4,-1,1,2,-4,-41,-4,5
1522606837735125,-31,-6,-2,2,2,-2,-1,0
1522606837735125,21,14,1,1,2,37,12,16
1522606837756182,5,8,-1,3,8,6,-3,-20
1522606837756182,31,-4,1,0,-2,-2,-9,-11
1522606837757183,-8,-6,4,2,-8,-10,-1,3
1522606837757183,-13,-5,-6,-3,4,-1,0,3
1522606837770217,-1,5,2,-3,-6,-7,-7,-29
1522606837770217,31,14,-1,0,8,35,4,21
1522606837777236,-10,9,1,3,-8,-46,4,4
1522606837777236,22,-11,0,2,-2,-2,-5,10
1522606837793279,-5,2,-1,0,7,-11,1,23
1522606837793279,-1,14,5,-1,5,11,0,-3
1522606837795285,12,-15,-6,-2,-1,34,1,-4
1522606837795285,7,10,0,-3,-9,-24,3,-8
1522606837815338,17,8,1,1,1,-2,3,37
1522606837815338,2,-3,8,1,-2,-7,-3,6
1522606837817343,-15,-15,-6,0,-2,1,-4,-10
1522606837817343,3,0,-1,-3,4,8,1,1
1522606837830377,5,-5,-2,-4,1,11,1,3
1522606837830377,-25,15,-2,-3,-6,-22,-7,-1
1522606837837397,-2,-13,-4,0,-1,1,-4,4
1522606837837397,4,-9,-1,1,1,11,-1,2
1522606837853439,-2,11,-3,0,4,6,1,13
1522606837853439,-24,-9,0,-2,-5,28,4,10
1522606837854442,20,5,1,-4,-11,-55,-7,-12
1522606837854442,8,-6,-8,-4,-5,-23,-12,-30
1522606837875498,-9,7,5,1,4,-3,4,0
1522606837875498,-4,-10,-4,-2,1,1,0,-5
1522606837877503,19,20,3,6,5,34,-2,5
1522606837877503,-38,-10,-2,-1,2,10,3,0
1522606837890537,11,-2,0,-4,-6,-12,-1,-3
1522606837890537,7,-11,0,1,-4,-15,0,-5
1522606837896554,-18,3,-4,-6,-5,6,-1,-7
1522606837896554,66,32,4,1,1,-2,-2,1
1522606837913599,-89,-34,-5,4,4,9,-4,-18
1522606837913599,79,-10,-12,-6,-4,-12,-3,5
1522606837914602,-49,-8,2,-3,3,-9,-10,6
1522606837914602,-12,-7,-3,-6,-1,19,-2,1
1522606837935658,36,24,-2,0,10,38,2,10
1522606837935658,-14,5,5,3,-5,-15,11,-8
1522606837937663,29,-16,-4,-5,-10,-12,0,-2
1522606837937663,-13,10,0,-1,-2,-23,0,0
1522606837949695,46,8,5,0,-2,-20,-10,7
1522606837949695,-54,-9,-5,-1,6,0,-2,6
1522606837956714,-19,-11,-5,-6,-3,25,4,3
1522606837956714,3,10,8,2,-5,0,6,11
1522606837973759,8,-1,-4,-4,-3,-12,1,4
1522606837973759,33,9,-4,-3,-2,-1,-5,1
1522606837974762,-1,4,-3,1,2,-1,5,-1
1522606837974762,-20,-12,4,0,2,7,-3,-4
1522606837995822,-5,-6,-5,-2,0,20,3,-2
1522606837995822,-8,2,1,2,0,-28,-5,1
1522606837997823,5,16,-1,-5,-6,1,-18,-10
1522606837997823,-20,-24,-8,-1,-4,-32,8,13
1522606838009855,8,-4,-2,2,2,-3,5,-2
1522606838009855,-18,3,3,-2,-5,25,12,-3
1522606838016874,14,7,1,-2,-2,-46,-35,-8
1522606838016874,2,-12,1,-1,-1,6,17,1
1522606838031913,6,7,-1,-12,5,2,2,-3
1522606838031913,-23,-4,1,16,2,-3,1,14
1522606838040938,34,1,-2,-3,0,13,13,15
1522606838040938,-40,0,2,0,-7,10,-12,-3
1522606838055977,-11,-19,-6,-3,21,-9,-11,-1
1522606838055977,24,3,-4,-2,5,21,11,-7
1522606838056980,1,-10,-6,-4,-4,-1,-11,7
1522606838056980,7,10,5,5,5,-18,4,22
1522606838070015,5,0,-1,0,-13,8,6,2
1522606838070015,-36,-13,-2,-3,0,8,4,-4
1522606838077034,-1,2,0,3,3,-4,-2,23
1522606838077034,42,3,-2,-2,-1,40,-5,-6
1522606838093076,-18,9,2,1,-16,-26,-2,-3
1522606838093076,19,-1,-1,-2,11,0,-19,4
1522606838095082,-3,3,2,5,10,30,31,-4
1522606838095082,-55,-10,-5,-2,-8,19,4,-14
1522606838116138,39,8,1,4,-7,-7,-1,1
1522606838116138,1,0,0,-3,1,-1,-8,-7
1522606838117141,20,-1,-3,-2,1,16,6,-24
1522606838117141,10,6,-3,-4,-1,-47,-8,3
1522606838129172,-50,-24,1,2,-2,1,0,-5
1522606838129172,15,-1,0,2,-1,-17,-2,-2
1522606838138196,-14,3,0,-2,0,7,-11,-4
1522606838138196,19,7,-3,1,8,19,6,7
1522606838153236,-1,2,0,-3,-5,19,-5,0
1522606838153236,-8,1,-2,-4,-8,12,3,-2
1522606838155242,3,5,2,2,-4,-46,2,-2
1522606838155242,-29,-22,-6,-2,5,3,0,-9
1522606838175295,14,3,-2,-20,3,18,9,5
1522606838175295,-5,1,2,16,-19,8,-25,-4
1522606838177300,-22,-7,2,7,19,-2,1,1
1522606838177300,10,9,-1,0,1,-6,-17,-33
1522606838189332,8,4,-1,4,-1,-19,4,-11
1522606838189332,13,6,1,-11,-4,-11,-2,4
1522606838198356,5,-4,-4,-5,-25,23,1,12
1522606838198356,1,13,6,3,6,-35,-7,2
1522606838213396,-18,-37,-8,-3,-1,13,9,0
1522606838213396,11,0,-3,-2,1,-17,1,-1
1522606838215402,-1,4,1,0,-2,7,4,-6
1522606838215402,-25,-20,-2,-4,1,-8,-11,2
1522606838235455,11,9,-6,-2,-17,-43,-11,-2
1522606838235455,-5,-5,0,5,4,-18,2,-26
1522606838237460,0,-2,4,1,5,11,6,0
1522606838237460,-11,8,-4,-3,1,26,4,3
1522606838249492,5,-4,1,2,0,10,-10,-5
1522606838249492,17,-1,-2,-4,0,-6,1,1
1522606838258516,-16,-1,-4,-3,2,3,5,-2
1522606838258516,5,-10,2,4,-4,-1,1,3
1522606838273556,-17,-7,-4,2,-3,-1,-3,-5
1522606838273556,-12,-6,-3,-2,7,8,7,2
1522606838274559,7,3,2,-3,-7,-14,-2,34
1522606838274559,16,12,-1,-1,-1,3,0,6
1522606838295615,6,13,2,2,-2,-11,-3,-3
1522606838295615,-24,-16,-7,-6,-3,-13,-1,5
1522606838297620,-19,-12,-3,-1,10,21,4,-9
1522606838297620,10,-11,0,0,-3,53,-1,-9
1522606838309652,1,15,5,3,-9,-67,0,1
1522606838309652,13,7,0,-1,-4,-10,-10,2
1522606838318676,-23,-13,-9,-6,-2,-18,-4,-12
1522606838318676,17,-1,2,2,3,27,6,20
1522606838333716,-50,2,-5,0,4,30,1,-15
1522606838333716,6,3,2,-1,-4,-8,-3,4
1522606838334719,-4,-22,-4,-3,-3,-8,-3,-3
1522606838334719,3,5,-3,-2,-1,-8,-2,3
1522606838355775,3,9,7,3,1,6,-5,-14
1522606838355775,7,-4,-9,-7,-3,-12,4,0
1522606838357780,-17,-11,-3,-1,1,44,0,2
1522606838357780,44,16,3,-2,-10,-73,-2,6
1522606838369812,26,4,-2,1,1,0,-1,14
1522606838369812,-55,-15,5,2,4,18,-1,-14
1522606838378836,-3,4,0,-4,-5,9,3,-5
1522606838378836,0,12,0,-3,-3,8,-5,-1
1522606838392873,-11,-27,-6,-3,1,-23,-6,-3
1522606838392873,45,28,2,0,-6,-29,3,20
1522606838399892,-18,0,10,5,1,4,3,-3
1522606838399892,-44,-12,-1,-1,-5,2,0,-15
1522606838415935,32,19,1,3,6,20,-4,1
1522606838415935,-34,-23,1,3,11,37,12,-10
1522606838416938,42,19,-9,-5,-11,-25,-9,10
1522606838416938,-1,-10,-5,-4,-6,-40,-3,-6
1522606838428969,-20,-1,5,4,6,18,5,4
1522606838428969,24,8,-3,-1,0,23,-8,-1
1522606838437993,7,8,-1,1,-8,-39,0,-10
1522606838437993,-23,-20,2,-2,5,10,2,-2
1522606838453033,-17,-12,-9,-5,-7,4,-6,-13
1522606838453033,7,2,0,-4,-1,-6,-2,0
1522606838455039,2,11,1,3,8,28,-3,-7
1522606838455039,12,-11,-13,-5,-3,-14,4,21
1522606838476097,3,12,8,2,-3,-18,0,10
1522606838476097,23,8,1,7,5,14,6,17
1522606838477098,-9,-16,-9,-2,-1,5,4,0
1522606838477098,-11,4,2,2,2,10,-3,-10
1522606838489129,-14,-4,5,-1,7,24,3,15
1522606838489129,2,9,-5,-5,-3,10,6,-6
1522606838498153,23,-5,2,2,1,-8,0,5
1522606838498153,-1,1,2,2,4,42,18,-11
1522606838513193,-11,6,1,-1,-7,-55,-19,-4
1522606838513193,10,4,-1,-4,1,43,2,-3
1522606838515199,-6,-4,-2,-3,-3,-89,-13,0
1522606838515199,16,12,2,-1,3,16,-19,6
1522606838536255,-12,1,-2,-4,-8,-1,13,-8
1522606838536255,12,-9,-2,-3,-1,-20,26,5
1522606838537257,9,10,2,2,8,17,11,3
1522606838537257,-1,-9,-9,-6,-6,4,-17,4
1522606838549289,-22,-10,-5,-1,-1,6,-2,-2
1522606838549289,-20,-6,0,1,4,-50,-28,-16
1522606838558314,17,7,6,-2,-2,12,8,-5
1522606838558314,18,1,-3,-2,-5,-19,8,-4
1522606838572351,17,-17,-12,1,2,38,6,-24
1522606838572351,-31,-9,5,0,-7,-35,-7,1
1522606838579369,0,4,5,0,4,24,8,2
1522606838579369,-17,-1,1,2,5,11,0,-4
1522606838595412,-6,-4,-7,-6,-1,18,1,-3
1522606838595412,-16,11,-6,-3,-5,-1,9,1
1522606838597418,9,-25,-4,-3,-2,-8,-13,-2
1522606838597418,12,14,2,1,-5,-8,4,-5
1522606838609449,22,2,-1,-1,0,-5,5,8
1522606838609449,-21,3,3,1,-4,38,-16,0
1522606838618474,17,10,-2,-6,2,23,37,15
1522606838618474,-46,-27,-3,1,0,14,8,-14
1522606838632511,35,-5,-1,0,-2,-70,-41,2
1522606838632511,-2,6,3,-3,-13,-58,-14,-5
1522606838639529,-6,10,4,2,-5,39,24,12
1522606838639529,31,8,0,0,-5,-31,-20,-8
1522606838655572,-25,-6,-3,-1,2,29,-1,-2
1522606838655572,3,-4,4,2,-6,-21,-4,13
1522606838657577,-5,10,-4,0,20,11,-18,-14
1522606838657577,-29,-9,2,0,4,73,4,3
1522606838678633,-9,2,1,1,-6,-35,4,3
1522606838678633,0,-5,-6,-3,6,47,17,0
1522606838679636,13,12,-1,-4,-16,-52,-40,-24
1522606838679636,4,15,5,4,1,4,12,-1
1522606838692671,-22,1,5,-3,4,10,-9,6
1522606838692671,30,12,-1,5,6,36,15,-5
1522606838699689,-29,-17,-3,2,2,7,-1,-2
1522606838699689,28,2,-3,-2,-1,-70,-5,-5
1522606838715732,21,13,2,-2,-8,52,-42,-2
1522606838715732,-4,-12,-8,-7,-6,-26,12,-7
1522606838717738,-5,2,-1,1,0,-8,0,-5
1522606838717738,-15,-7,0,-3,0,14,-14,-14
1522606838737791,-31,-21,-1,0,3,22,20,2
1522606838737791,17,0,3,3,-1,-46,-8,-9
1522606838739796,-12,9,-2,-3,-2,21,-8,-1
1522606838739796,-40,-10,-5,-2,-1,7,6,12
1522606838752831,43,2,-7,-7,-4,5,25,-14
1522606838752831,8,-1,1,0,0,-4,-15,-4
1522606838759849,-30,-10,-1,0,-6,-19,7,-1
1522606838759849,27,18,-2,-2,8,5,-13,-3
1522606838775892,53,25,5,4,-2,-6,7,21
1522606838775892,-54,-21,-7,-4,-1,27,12,14
