timestamp,emg1,emg2,emg3,emg4,emg5,emg6,emg7,emg8
1522606593307550,35,5,2,1,-2,-1,-1,-1
1522606593307550,-2,-4,-2,-3,-3,0,-2,-2
1522606593313566,-39,-4,1,0,1,3,3,1
1522606593313566,45,2,-2,-12,-12,-5,-1,3
1522606593314569,-87,1,3,4,26,24,-8,-7
1522606593314569,-26,-21,-8,-2,-33,-58,1,-3
1522606593315571,13,14,6,-7,-10,8,0,7
1522606593315571,-12,-9,-10,-1,-22,-1,23,-10
1522606593326600,53,9,5,12,-17,-5,0,2
1522606593326600,85,23,7,-45,14,-11,-72,7
1522606593335625,-85,-19,0,43,12,55,74,5
1522606593335625,4,-20,-5,57,56,9,26,-14
1522606593341641,24,2,0,-4,6,24,-2,5
1522606593341641,-23,1,-7,-20,-87,-28,-17,-8
1522606593356686,50,6,1,-14,60,-18,-63,-3
1522606593356686,-12,-2,3,-8,-3,21,17,2
1522606593365704,51,10,5,9,-6,-32,42,10
1522606593365704,-24,1,-5,-14,-18,24,46,4
1522606593387763,20,-5,-2,38,79,25,-11,-10
1522606593387763,-5,12,-1,-10,-17,-23,-15,-2
1522606593388766,-89,-42,-2,-15,-37,-9,-25,-4
1522606593388766,86,41,-6,-22,-12,-49,-1,-10
1522606593400798,-24,-42,-7,18,69,60,4,-8
1522606593400798,24,-5,10,7,5,13,-10,6
1522606593442910,-30,1,-10,-16,-6,-6,-7,-8
1522606593442910,18,3,5,10,-41,-20,10,4
1522606593443913,-14,-7,2,1,41,31,5,1
1522606593443913,22,10,0,9,49,24,-3,1
1522606593446920,5,2,4,-5,-42,-15,-1,-3
1522606593446920,-9,-1,-5,-4,74,16,-5,-3
1522606593447923,6,0,-2,0,-18,-13,-1,-1
1522606593447923,-25,-14,-5,-4,-26,-14,-2,-4
1522606593453939,5,17,10,6,5,7,1,3
1522606593453939,0,-16,-5,-1,-7,-2,-2,6
1522606593460958,-7,1,2,-6,-19,-9,-3,-7
1522606593460958,9,11,-14,-4,13,-3,-5,1
1522606593475998,-8,1,23,12,0,-4,-1,-1
1522606593475998,2,-8,-4,-7,-15,-1,-2,-3
1522606593483016,-3,-7,-9,-4,7,3,-2,0
1522606593483016,-1,-31,-9,-5,-24,-14,-3,-4
1522606593492041,11,14,7,23,37,10,1,4
1522606593492041,-3,30,-7,-18,-15,4,-4,-3
1522606593515102,-4,3,-2,-2,-15,-1,12,9
1522606593515102,-42,8,0,-12,-15,-9,-8,-13
1522606593516105,2,-38,4,-4,5,5,4,3
1522606593516105,0,42,15,23,44,-3,-4,-2
1522606593528137,13,-12,-8,2,-8,-3,-3,-4
1522606593528137,9,-7,-9,-8,-14,2,9,10
1522606593537160,-8,-8,0,4,17,2,-3,-5
1522606593537160,-4,-8,-7,-34,-51,-5,-4,-4
1522606593552201,10,37,8,4,10,8,5,2
1522606593552201,-35,-43,1,8,4,-1,-1,-13
1522606593554206,-12,7,-10,-3,0,-5,-3,-3
1522606593554206,8,10,12,16,10,-5,0,4
1522606593575262,-3,-13,3,0,-2,-11,-10,-9
1522606593575262,55,15,8,5,11,6,2,16
1522606593576265,-37,-8,-14,-7,-14,-6,-3,-3
1522606593576265,-41,-21,-7,1,-3,-2,-2,-1
1522606593588297,20,10,4,6,7,4,1,8
1522606593588297,-18,2,6,7,-2,2,3,1
1522606593597321,28,5,-9,-13,-8,-3,-3,2
1522606593597321,35,-3,-1,3,-1,5,2,0
1522606593612361,-74,-20,-9,-8,-7,-8,-8,-3
1522606593612361,-15,9,7,0,2,5,0,-5
1522606593614366,72,1,-2,0,-3,-11,-2,1
1522606593614366,-10,8,2,2,0,47,8,0
1522606593634419,-33,-15,-7,-10,-9,-86,-45,-13
1522606593634419,-14,-10,2,-5,-12,-4,4,4
1522606593636425,21,18,-8,-3,18,37,17,2
1522606593636425,-4,-11,0,-10,-26,-60,-56,-4
1522606593648457,61,13,2,1,28,52,60,9
1522606593648457,-39,2,4,10,-71,-59,-18,-4
1522606593657481,-9,-9,-9,-23,89,6,-40,-4
1522606593657481,12,-11,-5,15,-4,-39,10,-12
1522606593671518,-24,3,5,-37,-7,1,-24,-5
1522606593671518,61,6,-3,65,23,0,-17,-6
1522606593679539,11,10,-2,-51,-37,12,25,11
1522606593679539,-32,-20,1,16,4,-19,-7,-5
1522606593694579,-41,-3,-3,10,-10,8,4,0
1522606593694579,-4,14,-1,-41,-15,0,0,-1
1522606593696585,2,-20,-5,22,-2,-15,-45,-8
1522606593696585,20,-3,5,-12,-11,26,30,14
1522606593717641,91,28,6,3,7,-4,7,-1
1522606593717641,-80,-8,-18,-18,-6,-5,-11,-17
1522606593718643,-11,-25,3,11,-41,0,5,4
1522606593718643,-88,-34,-1,3,40,20,12,-4
1522606593732681,82,40,-4,-13,-94,-37,-15,4
1522606593732681,68,6,3,3,124,45,12,4
1522606593733683,-19,0,7,27,-10,-1,18,-2
1522606593733683,15,-5,0,-4,-9,5,4,1
1522606593754739,-15,-18,2,17,4,4,4,1
1522606593754739,1,9,-4,-17,-31,-3,6,3
1522606593756745,-35,-4,1,-1,-10,-13,7,-7
1522606593756745,13,6,1,4,5,9,-2,3
1522606593777800,-6,0,2,6,19,16,-5,2
1522606593777800,-5,6,5,-3,-11,-5,2,3
1522606593778804,-9,-1,-11,-4,6,5,1,-1
1522606593778804,22,17,-6,-4,-11,2,3,1
1522606593791838,-26,-23,3,-8,2,3,0,-4
1522606593791838,-1,-1,-3,2,17,9,2,-1
1522606593798857,1,-12,-4,7,-17,-14,1,-1
1522606593798857,12,8,3,-1,15,10,2,3
1522606593814899,-24,-36,-17,5,4,5,-2,-5
1522606593814899,6,-4,10,11,17,14,6,8
1522606593816905,-4,-5,-7,-26,-33,-16,-4,-10
1522606593816905,24,43,3,-20,-24,11,9,6
1522606593828937,-35,-29,11,8,22,3,-3,-4
1522606593828937,-2,-36,-23,-1,-11,-2,-3,-3
1522606593837961,12,47,15,15,19,-3,3,9
1522606593837961,35,-13,8,12,20,0,-2,1
1522606593851998,-26,50,9,-2,-2,2,-1,-7
1522606593851998,1,-19,1,-3,-11,-4,1,2
1522606593858014,-13,-35,-24,-4,1,-1,0,-4
1522606593858014,13,-14,-11,-6,-7,-5,-2,-2
1522606593875059,0,13,12,7,9,6,0,-2
1522606593875059,22,9,7,-4,-8,-5,1,0
1522606593876062,1,4,-2,1,-1,1,0,-3
1522606593876062,-1,5,-4,-1,10,2,-4,-8
1522606593897117,-13,-12,-4,0,3,-1,1,2
1522606593897117,8,10,0,-15,-22,1,-2,-4
1522606593899123,-20,2,8,22,12,2,1,0
1522606593899123,23,7,2,0,-10,2,0,3
1522606593912158,29,-5,-10,-4,17,52,4,6
1522606593912158,-61,-8,-7,-41,-68,-76,-21,-19
1522606593918174,59,16,13,52,63,5,-6,-1
1522606593918174,-38,-18,-10,-13,18,16,-30,-5
1522606593935219,-66,-24,-6,14,-37,-3,-24,-5
1522606593935219,40,26,3,-20,49,-23,14,7
1522606593936222,31,3,0,4,-51,20,32,3
1522606593936222,-9,-2,-4,-18,-7,-27,-12,-2
1522606593957278,12,-14,-8,-9,1,-13,45,-2
1522606593957278,-57,2,8,23,7,16,-21,5
1522606593959283,30,20,-2,-32,-47,-8,7,2
1522606593959283,-35,-15,-4,-3,45,50,54,-5
1522606593971315,-12,-12,3,17,-12,-5,-17,2
1522606593971315,94,6,-5,-7,7,30,22,-7
1522606593978334,-66,-6,-1,-1,-2,-18,-5,1
1522606593978334,32,28,4,-5,15,9,10,0
1522606593994376,43,-2,1,-7,-5,-8,-6,-2
1522606593994376,37,-21,-1,21,-11,5,3,8
1522606593996383,-49,-22,-20,-29,-21,-28,-34,-14
1522606593996383,11,8,6,6,13,-8,-13,0
1522606594017438,-40,-8,-1,21,32,8,5,2
1522606594017438,16,21,15,7,-9,5,-3,-1
1522606594019443,2,-18,-11,-13,-4,-7,4,5
1522606594019443,-29,-33,-16,-1,-29,-11,-5,-4
1522606594031475,-2,14,1,0,13,-4,3,-8
1522606594031475,-8,13,11,-3,-33,7,6,2
1522606594038494,1,0,-7,0,12,7,1,1
1522606594038494,-5,21,11,20,4,-11,-4,-4
1522606594054536,23,6,0,-12,-18,-10,-7,5
1522606594054536,-41,-58,-8,2,12,-4,-6,-2
1522606594056542,1,27,14,7,21,17,1,-3
1522606594056542,-6,-12,-28,-15,-17,-11,-5,4
1522606594077598,5,0,-2,-9,-11,14,-4,1
1522606594077598,-6,46,16,12,25,-15,2,-3
1522606594078601,-12,-34,-14,-15,-2,20,-1,-4
1522606594078601,3,-2,-10,2,-24,-18,3,10
1522606594091635,13,21,30,25,18,-1,-5,-7
1522606594091635,-15,-30,-51,-37,-3,17,-3,-6
1522606594098654,7,-9,10,10,1,-8,-1,1
1522606594098654,-4,48,13,-22,-50,0,3,9
1522606594114696,5,-18,-23,-14,-2,-10,-2,-4
1522606594114696,-7,0,-3,23,25,0,-8,-2
1522606594116703,21,35,15,8,8,-9,-5,0
1522606594116703,-13,-14,-1,8,13,3,-6,-7
1522606594137758,3,-12,-11,-16,3,-1,4,1
1522606594137758,29,3,12,6,-12,6,4,5
1522606594138761,-36,-3,-26,-10,0,4,0,-1
1522606594138761,36,-1,13,14,0,-4,-3,-2
1522606594150792,-17,-1,-10,-3,-1,-8,-3,0
1522606594150792,-35,-3,-2,-3,-6,3,-4,-6
1522606594159816,37,11,6,1,2,4,3,3
1522606594159816,-27,-15,-2,5,3,-5,-7,-9
1522606594174856,10,7,10,-4,-7,-5,2,4
1522606594174856,15,11,0,-5,-29,-9,1,1
1522606594176862,-13,-8,5,-17,-5,21,3,-8
1522606594176862,39,-6,2,11,2,-9,-3,7
1522606594196915,5,-3,-6,-3,-42,41,2,-1
1522606594196915,-23,-3,3,-25,4,-62,-35,-10
1522606594198921,-31,6,8,55,45,71,41,15
1522606594198921,-54,-24,-12,-26,-2,-11,-30,-18
1522606594210956,53,19,5,7,20,15,12,15
1522606594210956,21,18,3,-3,-15,16,39,8
1522606594219976,-24,-26,-2,-24,4,-15,31,-1
1522606594219976,11,6,-1,-8,-19,16,-42,-11
1522606594235016,-59,2,3,45,-46,-26,54,-1
1522606594235016,-17,-5,-2,-1,78,4,-43,-4
1522606594236020,43,34,10,-11,27,-1,-6,10
1522606594236020,-53,-22,-11,-4,-14,8,40,-4
1522606594257076,-13,-15,-12,-35,-21,-22,-43,-13
1522606594257076,-1,0,3,12,-43,24,-2,-2
1522606594259081,39,7,4,5,24,-13,-11,1
1522606594259081,-22,37,20,14,-3,-7,8,13
1522606594272116,-65,-41,-13,-10,12,-20,-22,-7
1522606594272116,-1,-19,-19,-10,-80,-10,8,-12
1522606594278138,11,-15,1,1,11,-35,-19,-4
1522606594278138,70,4,-3,1,83,49,-5,-7
1522606594295177,7,5,0,2,-1,23,7,12
1522606594295177,-9,13,16,12,-26,4,11,7
1522606594296179,-7,-12,-11,-15,-82,-16,-24,-9
1522606594296179,24,13,9,4,-10,-26,6,-1
1522606594317235,0,-33,-14,3,8,-11,2,-3
1522606594317235,2,10,5,6,55,15,-3,4
1522606594319241,-6,16,-3,-1,-52,-26,-6,2
1522606594319241,-29,14,4,6,30,8,17,0
1522606594331273,15,15,6,-7,-47,-29,-14,-1
1522606594331273,-14,-56,-23,-7,69,47,4,-3
1522606594340297,10,23,19,2,19,19,8,5
1522606594340297,-6,5,-16,7,-28,-27,-7,0
1522606594354334,19,2,-13,-8,2,-30,-7,-3
1522606594354334,29,-13,12,-8,-41,3,7,0
1522606594356341,-31,9,6,-8,-3,-5,-1,-6
1522606594356341,-6,-58,-7,3,5,5,-3,2
1522606594377395,15,-59,-15,9,25,-2,-5,-1
1522606594377395,11,55,36,2,6,-2,10,7
1522606594379401,-18,35,1,-8,-9,13,-1,-5
1522606594379401,-3,-20,1,5,-31,-13,1,2
1522606594391432,5,-15,-21,-2,35,9,-1,5
1522606594391432,11,-25,-21,10,5,-7,-3,5
1522606594400456,-3,32,29,3,-5,-5,-6,-3
1522606594400456,27,-5,0,-4,-13,-3,4,-5
1522606594422515,8,45,12,-5,7,9,0,-5
1522606594422515,26,6,-5,0,12,-2,-1,7
1522606594423518,-66,-38,-17,0,-14,-7,-2,-1
1522606594423518,-3,-12,-9,-5,-4,-6,-2,-14
1522606594436552,2,19,14,-5,6,13,-1,1
1522606594436552,15,14,7,5,-58,-8,3,3
1522606594443571,26,-33,-11,4,65,-5,-6,1
1522606594443571,35,16,7,-3,-25,11,-5,10
1522606594459614,-17,18,9,4,9,-59,-44,-5
1522606594459614,3,-12,-14,-47,-19,19,56,-10
1522606594461620,25,-22,-13,41,16,27,-20,-4
1522606594461620,21,20,1,-15,-21,-12,15,7
1522606594482675,-64,-11,-1,-29,32,-3,-33,-23
1522606594482675,52,15,9,80,30,51,38,19
1522606594483678,65,5,-4,-49,-93,-20,-7,-6
1522606594483678,-88,-14,-5,24,13,-24,-72,-16
1522606594496712,92,3,4,-20,-62,15,100,21
1522606594496712,-65,7,-10,14,43,-40,-18,-19
1522606594503731,65,3,-1,1,-54,3,10,8
1522606594503731,42,28,17,-13,29,-8,-48,12
1522606594519775,-68,0,7,1,-2,22,50,-2
1522606594519775,-29,-25,-11,5,55,36,-94,-22
1522606594521780,3,21,2,13,42,26,34,14
1522606594521780,57,13,-1,-3,-77,-32,23,0
1522606594542835,-85,-49,-5,-3,26,25,30,-3
1522606594542835,19,27,-1,-4,-10,21,-49,-12
1522606594543838,-42,6,2,-13,-26,-24,-1,-3
1522606594543838,-2,-51,-9,-11,-73,-4,14,-16
1522606594556872,6,16,-4,15,108,35,-18,-5
1522606594556872,2,-8,-21,-14,-85,-22,8,14
1522606594563891,-4,7,9,-5,42,-10,0,-7
1522606594563891,-40,27,20,9,-3,15,34,3
1522606594579934,54,29,-13,5,-56,-20,-42,1
1522606594579934,-37,-16,23,-5,7,-35,7,1
1522606594580936,-27,-56,-30,1,-4,1,4,3
1522606594580936,9,28,20,9,38,28,12,6
1522606594601993,51,19,-1,7,-25,-17,-11,7
1522606594601993,-41,0,-8,-26,-5,-10,5,-2
1522606594603998,-3,-14,-14,-1,-13,-3,3,-2
1522606594603998,10,26,22,10,36,14,0,-9
1522606594616030,-19,-39,-27,-21,-21,9,-16,0
1522606594616030,12,32,3,-5,-38,-19,21,4
1522606594625054,-1,-6,15,40,50,6,-12,-1
1522606594625054,-19,-34,-35,-30,-8,-5,-3,-6
1522606594640094,10,32,4,-11,-54,-23,3,-2
1522606594640094,11,-37,21,0,-26,-6,8,5
1522606594641096,-20,15,-20,-22,-21,-16,-11,-2
1522606594641096,6,-48,-13,20,46,18,1,-5
1522606594662152,19,22,19,12,21,16,-6,-12
1522606594662152,-18,1,-17,-7,-3,-9,2,-7
1522606594664158,9,-17,6,6,13,7,-3,9
1522606594664158,-34,-3,-10,-2,5,-2,10,12
1522606594676190,-23,4,2,-7,-19,-6,-16,-24
1522606594676190,21,-27,-9,3,13,-3,5,6
1522606594685214,-39,42,28,-1,0,2,0,-4
1522606594685214,23,-3,-6,-7,-37,-13,-8,14
1522606594700254,-22,-4,9,8,27,16,21,3
1522606594700254,-35,17,11,9,16,8,32,-4
1522606594701256,21,-28,-15,-8,-10,35,-23,-4
1522606594701256,42,5,-9,-10,-47,-2,28,2
1522606594722313,-62,7,12,11,60,32,-10,3
1522606594722313,51,-13,-4,-5,7,37,2,5
1522606594724318,-42,-6,-10,-14,-19,-23,-30,-15
1522606594724318,10,10,1,-23,15,-9,-10,-1
1522606594736350,84,13,9,16,18,79,-17,8
1522606594736350,-87,-25,-11,9,-68,-88,-30,-18
1522606594745374,20,8,14,26,62,29,-58,11
1522606594745374,-2,13,4,5,27,34,6,6
1522606594759411,-11,-8,-12,-32,-25,-30,29,-5
1522606594759411,30,15,3,-37,-76,-30,-74,9
1522606594761416,44,3,7,22,54,32,58,3
1522606594761416,-84,-4,-14,-13,36,-52,-44,-20
1522606594782472,-26,7,3,22,37,2,34,20
1522606594782472,98,37,3,4,-12,-7,1,11
1522606594783475,-123,-34,2,-16,-97,-28,92,-19
1522606594783475,122,-3,-5,5,14,46,8,10
1522606594796510,25,-16,-23,-11,49,3,29,-14
1522606594796510,-21,38,33,-2,-21,0,-18,-4
1522606594803528,75,-23,-6,17,-13,-23,9,10
1522606594803528,-112,-2,-25,-3,45,-27,2,-7
1522606594819571,-4,40,32,6,-48,-39,-42,2
1522606594819571,14,1,-12,2,18,18,37,2
1522606594821576,20,-3,-3,-16,-29,-22,-23,-2
1522606594821576,-35,-26,-5,2,-36,-2,7,-4
1522606594842632,55,-2,-2,5,-28,-12,-15,14
1522606594842632,-43,-22,-22,4,81,14,7,-15
1522606594843635,-21,17,16,-7,-10,4,-2,-5
1522606594843635,1,-6,3,11,8,4,-15,-5
1522606594855667,21,27,14,4,-4,8,1,3
1522606594855667,-3,-10,-15,-3,-12,6,12,-4
1522606594864691,-8,-25,2,-15,-8,-8,-19,-1
1522606594864691,19,-46,-17,6,1,1,17,8
1522606594879731,17,50,3,6,-2,-17,-20,-9
1522606594879731,-29,-63,-3,15,34,10,12,-6
1522606594881736,-12,34,-13,-34,-56,8,-13,-5
1522606594881736,11,20,20,2,-4,-11,10,11
1522606594902792,-18,-121,-29,-21,-57,-16,-3,-1
1522606594902792,15,94,54,7,36,13,1,-3
1522606594903795,3,-24,-22,-4,4,-6,-1,-7
1522606594903795,19,-31,17,14,2,17,4,4
1522606594915827,-22,-58,-25,3,6,-3,-19,-12
1522606594915827,12,61,8,2,21,2,5,3
1522606594924851,-39,-29,-10,2,-2,-8,-3,-2
1522606594924851,-2,54,20,4,-7,3,-2,-13
1522606594939891,49,-22,-8,8,-18,-13,2,12
1522606594939891,-56,-36,-13,-2,39,26,1,-4
1522606594941896,47,36,-1,2,7,-2,-18,10
1522606594941896,-40,-30,-14,3,-3,25,55,-4
1522606594961950,45,36,10,-5,-5,-27,-9,7
1522606594961950,-19,-28,-11,-8,-40,-35,30,-2
1522606594963955,29,8,8,7,35,28,1,9
1522606594963955,6,20,5,-8,-11,-62,-114,-11
1522606594975987,49,9,10,-3,-10,26,70,-5
1522606594975987,-76,-21,-7,7,18,-6,24,6
1522606594985011,50,8,-3,-10,-52,-62,-30,12
1522606594985011,-39,0,-7,-32,-6,35,-9,0
1522606595000051,-11,19,2,22,-41,-5,-15,-10
1522606595000051,37,-20,-1,19,70,-9,-29,9
1522606595001053,-16,-9,-2,4,27,39,-67,-1
1522606595001053,-32,16,9,12,13,-1,41,10
1522606595022110,-9,14,-6,-51,-30,-7,-22,-9
1522606595022110,-2,-28,-10,16,-15,10,-8,-1
1522606595024115,-2,3,7,18,2,6,2,-13
1522606595024115,35,23,4,-9,-59,-65,17,1
1522606595036147,-35,-23,1,16,68,62,-13,4
1522606595036147,-9,4,-10,-18,-43,-10,1,-3
1522606595045171,29,4,-7,-11,22,3,15,-1
1522606595045171,47,19,9,8,-38,-3,29,-9
1522606595060211,-90,-11,-6,1,31,-18,-37,-5
1522606595060211,-3,-9,6,-10,2,17,1,9
1522606595061214,0,14,-6,-3,-18,-5,13,-8
1522606595061214,7,-16,-11,3,43,11,-14,-10
1522606595082270,0,-1,-5,-18,14,-13,16,9
1522606595082270,32,11,4,2,22,3,-39,-7
1522606595084275,-60,-18,4,29,9,3,34,-6
1522606595084275,31,-6,-3,-8,-33,-13,-1,7
1522606595096307,-14,19,3,14,61,37,-1,2
1522606595096307,22,2,-10,-12,-14,-20,-9,1
1522606595105331,12,-1,5,-19,22,4,3,2
1522606595105331,-29,-30,-17,25,19,9,-3,-6
1522606595119368,6,28,20,9,-40,-30,-8,-9
1522606595119368,6,-9,-6,-3,-8,19,11,-3
1522606595121373,-6,29,15,-4,-7,-16,15,3
1522606595121373,-3,-7,-7,-6,7,30,-2,-2
1522606595142429,3,-27,-18,2,-6,-16,2,0
1522606595142429,11,-15,4,-9,-18,4,6,-2
1522606595144435,-5,34,5,9,4,-10,7,3
1522606595144435,22,-42,-36,-15,-3,7,-10,10
1522606595156467,-12,15,20,24,46,48,0,-12
1522606595156467,-7,10,14,7,-21,-23,-1,-6
1522606595165491,-6,-21,-28,-59,-93,-32,7,4
1522606595165491,0,26,18,5,-1,22,4,0
1522606595179528,22,-60,-38,-6,-16,-21,1,7
1522606595179528,15,76,28,14,14,29,9,7
1522606595181534,-39,-81,-15,20,53,-1,-16,-34
1522606595181534,-35,37,14,-1,7,3,-3,-3
1522606595202589,-22,-19,-3,-10,-43,-19,0,1
1522606595202589,44,12,-8,5,44,12,0,8
1522606595203592,22,1,-1,9,-8,-6,4,0
1522606595203592,-33,-8,4,-3,9,6,1,-3
1522606595215624,-10,-8,1,-3,-17,16,4,0
1522606595215624,19,-9,-11,-11,-85,-76,-27,-4
1522606595224648,-79,0,2,2,102,53,-16,2
1522606595224648,7,-18,0,6,-13,-24,24,-3
1522606595239688,35,32,10,-2,-6,-13,27,4
1522606595239688,-25,-14,-9,-17,-26,68,39,3
1522606595245704,8,-17,-2,-4,-67,-76,-20,1
1522606595245704,20,18,-9,-32,71,47,-16,-10
1522606595262749,6,3,7,14,-34,16,-29,14
1522606595262749,-80,-32,-10,6,-97,-96,-72,-25
1522606595263752,-2,7,0,2,103,104,98,4
1522606595263752,22,2,8,44,-11,38,76,0
1522606595275784,65,30,5,-17,-23,-11,5,11
1522606595275784,-20,-24,4,-3,-25,38,66,12
1522606595284808,25,4,-17,-20,-52,-30,-101,-21
1522606595284808,-6,-5,-2,-4,-62,-96,-25,-2
1522606595298846,12,-10,4,-6,76,15,34,1
1522606595298846,-10,4,1,19,18,-12,-12,0
1522606595305864,9,-3,-2,0,-14,-10,40,5
1522606595305864,10,-6,10,5,31,65,-8,13
1522606595321907,14,17,-4,-8,-45,-35,-27,-16
1522606595321907,22,-17,-25,-34,-49,-15,-23,-5
1522606595323912,14,0,8,22,91,39,17,3
1522606595323912,-8,18,18,-4,-69,-36,-12,2
1522606595344968,-24,6,-1,7,-25,1,6,4
1522606595344968,4,-24,-12,0,103,15,14,-11
1522606595346974,9,24,6,-1,15,47,-6,10
1522606595346974,51,14,12,7,-18,-6,-6,6
1522606595359006,-83,-21,-6,-3,-39,-24,-5,-5
1522606595359006,37,55,22,2,21,23,3,-1
1522606595366024,30,-19,-11,3,-61,-38,2,4
1522606595366024,-25,7,1,-6,26,-4,-16,5
1522606595382067,-2,-44,-3,-4,9,9,-12,-7
1522606595382067,25,2,-10,5,15,1,3,8
1522606595384072,-37,-8,-5,4,-3,-12,-4,-2
1522606595384072,9,14,4,-9,-20,-15,-11,-1
1522606595405128,1,5,-2,7,41,22,0,-4
1522606595405128,-4,-8,-3,0,-1,14,1,-5
1522606595406131,19,-8,5,12,-15,-22,4,6
1522606595406131,-18,-41,-28,-19,-2,5,-9,0
1522606595419165,-2,33,27,2,-20,-10,-5,-18
1522606595419165,-8,-47,-8,18,61,-1,-3,-4
1522606595426184,6,-26,-38,-36,-68,4,-5,5
1522606595426184,-3,57,2,-20,-17,4,4,5
1522606595442227,-7,0,18,3,12,-22,-11,-6
1522606595442227,22,-6,-13,14,-22,10,4,10
1522606595444232,-23,77,58,13,69,4,-11,-15
1522606595444232,-3,-75,-5,-2,-32,0,1,-5
1522606595465288,20,-13,-28,-21,-10,8,3,3
1522606595465288,-6,75,-3,-5,7,-1,-1,-1
1522606595466291,-9,-45,0,17,-14,-13,0,5
1522606595466291,14,0,-6,15,31,10,-6,1
1522606595479326,-63,13,5,-2,1,8,-1,-6
1522606595479326,6,-18,0,-8,-5,-3,-1,-6
1522606595486344,7,21,-3,-3,-11,-1,1,4
1522606595486344,-21,-6,4,2,-37,-8,0,-3
1522606595502387,6,-15,-12,11,60,5,-2,-3
1522606595502387,-5,-3,0,-11,-22,1,2,2
1522606595504392,14,12,5,-5,-6,2,-6,-3
1522606595504392,-30,-10,-7,2,24,19,12,5
1522606595524445,99,23,8,5,-50,-28,2,18
1522606595524445,-96,-12,0,-23,2,7,15,-18
1522606595526451,6,-14,-2,41,62,78,0,10
1522606595526451,14,13,8,4,8,-90,-29,-5
1522606595538483,24,6,-13,-34,-14,39,19,0
1522606595538483,-77,-26,10,45,15,13,-10,-6
1522606595547507,33,5,-10,-10,-40,-68,27,-6
1522606595547507,56,20,3,3,69,49,-45,17
1522606595562547,-86,-16,1,9,20,49,76,2
1522606595562547,115,-7,-4,-15,-35,-1,-19,10
1522606595568563,-44,5,-2,-23,9,7,4,-1
1522606595568563,16,5,4,-6,-55,-13,-62,2
1522606595584605,-34,-5,-5,-1,17,-25,12,-5
1522606595584605,52,6,0,-14,-13,25,-9,1
1522606595586611,-103,-15,1,1,16,-20,-13,-8
1522606595586611,32,10,-5,-5,-16,-8,23,10
1522606595607667,26,-6,1,7,-23,-3,-23,-4
1522606595607667,-38,7,3,7,56,6,12,6
1522606595608669,67,-12,-20,-18,-51,-17,-18,-4
1522606595608669,-34,12,18,9,41,-8,46,-7
1522606595622707,-53,-12,-4,6,24,12,-14,2
1522606595622707,11,-24,-4,3,5,-15,-6,-1
1522606595623710,51,17,10,7,-6,14,9,10
1522606595623710,-18,4,-19,-21,15,13,3,-17
1522606595652787,14,17,1,2,-86,-47,-12,-1
1522606595652787,35,-10,-8,8,94,40,26,1
1522606595653790,-60,-29,7,11,-13,14,1,6
1522606595653790,31,3,-1,4,-6,14,13,-1
1522606595658803,5,4,0,-5,35,-17,-22,4
1522606595658803,-14,-11,-15,-16,-46,-26,-14,-1
1522606595665822,9,-11,2,-8,-60,-22,3,-7
1522606595665822,-27,39,0,12,15,3,4,2
1522606595681864,32,3,19,-2,-11,-15,-17,-2
1522606595681864,-37,-33,-16,-3,-21,-6,3,-4
1522606595683870,21,27,2,4,43,4,-6,-4
1522606595683870,-16,-64,-14,-1,-12,7,4,0
1522606595704925,19,27,19,-3,20,13,-14,-9
1522606595704925,13,23,13,4,-40,-22,5,1
1522606595706931,-2,-36,-31,-9,2,-11,-4,-5
1522606595706931,-35,31,33,3,1,-2,2,0
1522606595718963,5,-65,-24,1,15,12,-4,-4
1522606595718963,15,-3,-1,10,15,-6,-5,5
1522606595725982,6,85,45,-23,-61,-7,-4,3
1522606595725982,1,-39,-25,-7,-11,8,8,-4
1522606595742024,-4,39,-4,-7,-24,-6,-2,0
1522606595742024,7,-35,6,-4,7,-5,-4,-2
1522606595744030,9,4,2,16,39,6,-5,1
1522606595744030,13,-33,-9,11,3,-2,0,-6
1522606595765085,-1,55,0,-1,0,-4,-5,6
1522606595765085,-11,-31,-2,-8,0,-1,-2,-3
1522606595766088,7,20,1,6,-20,-18,2,-4
1522606595766088,-19,-22,3,-2,25,25,-3,-7
1522606595779123,-3,-13,-17,-5,-45,-20,-5,-1
1522606595779123,68,30,4,1,51,20,-12,10
1522606595786142,-54,-27,-8,0,16,12,43,-10
1522606595786142,-1,12,-4,-6,-15,-11,-9,-8
1522606595802184,-30,-16,-3,-18,-13,19,9,2
1522606595802184,-14,14,5,18,-74,-50,-17,-13
1522606595804190,63,4,4,-9,63,35,14,10
1522606595804190,-41,-3,-9,17,43,29,-3,-9
1522606595825245,27,-4,9,-32,1,-41,-22,4
1522606595825245,41,40,17,73,-54,-35,-33,17
1522606595826248,-24,-24,-12,-4,52,22,63,-26
1522606595826248,-12,-1,-6,-19,-98,38,-20,5
1522606595838280,48,-15,1,36,124,-10,7,-6
1522606595838280,-56,20,-5,-60,-19,31,51,5
1522606595847304,-5,-17,-6,24,-53,-39,-71,-7
1522606595847304,-28,10,8,4,33,40,124,6
1522606595862344,-41,-23,-7,-5,-21,3,-98,-17
1522606595862344,17,15,1,-20,-59,-31,10,1
1522606595864349,-10,-3,-4,1,69,46,43,12
1522606595864349,62,2,-2,-16,-20,22,-23,4
1522606595884403,-5,28,1,6,-63,-68,-39,-8
1522606595884403,-45,-16,-4,0,99,64,10,-7
1522606595886408,29,41,11,-19,-89,-38,-35,8
1522606595886408,-35,-28,-20,2,-79,-69,-8,-9
1522606595898440,19,-37,7,21,119,86,46,13
1522606595898440,27,35,-10,-16,-75,-9,1,-6
1522606595907464,3,23,6,-2,-72,-35,-25,0
1522606595907464,6,-26,-3,0,11,3,-15,-5
1522606595922504,-3,3,-1,0,-128,-60,19,3
1522606595922504,13,-7,5,6,127,62,8,2
1522606595923507,-8,-15,-13,3,9,-4,-6,2
1522606595923507,3,16,-1,-3,-14,-38,-28,4
1522606595944563,-24,-15,3,-10,-20,-8,17,2
1522606595944563,-7,-5,7,1,5,10,-5,-5
1522606595946568,15,3,-2,-2,-7,-4,-6,4
1522606595946568,-12,-16,1,2,21,-21,-12,-1
1522606595967624,16,-9,-21,0,20,29,14,3
1522606595967624,3,20,11,-1,-3,-18,4,0
1522606595968627,-20,-26,-32,-2,-8,-4,-15,-2
1522606595968627,13,60,42,-1,6,-14,-4,-2
1522606595981661,-2,4,-2,2,61,42,16,2
1522606595981661,-23,-6,7,-12,-26,-16,-9,-5
1522606595988680,-4,-48,-14,-2,-10,-4,1,2
1522606595988680,26,20,-9,5,19,-2,-4,8
1522606596004722,9,-31,3,3,-20,-6,4,-6
1522606596004722,-38,58,20,-2,-12,-5,-3,-1
1522606596006728,14,-44,-16,-3,-19,-3,-3,-2
1522606596006728,-1,90,46,0,54,6,-1,-1
1522606596027784,1,-36,-14,10,8,4,0,3
1522606596027784,-4,39,-10,-16,-8,-11,-3,-5
1522606596028787,-16,59,73,9,-21,1,3,3
1522606596028787,32,-45,-12,0,-1,-4,-8,0
1522606596041822,-27,-25,-15,-14,-16,13,9,-1
1522606596041822,-1,-63,-8,19,22,-1,-2,6
1522606596048840,27,33,2,12,23,10,2,10
1522606596048840,-3,18,-6,-26,-39,-16,-6,-10
1522606596064883,-19,50,6,4,34,1,1,-5
1522606596064883,14,-70,-26,-2,15,0,-4,-8
1522606596066888,41,-12,-6,-9,-4,-2,-3,9
1522606596066888,-25,-28,-1,9,-54,-1,0,-5
1522606596078920,-32,-19,-11,-7,58,-9,-4,-8
1522606596078920,-13,5,-8,1,-11,-1,-2,-10
1522606596087944,-17,1,-1,3,-3,-10,-7,-5
1522606596087944,16,-19,-10,-1,31,9,3,0
1522606596101981,7,24,6,6,-47,21,7,2
1522606596101981,32,0,3,0,-32,-63,-20,2
1522606596103987,51,-7,0,-6,50,-45,-26,-2
1522606596103987,-61,-46,-23,7,72,58,62,-9
1522606596125043,8,18,8,-8,-33,-19,-36,3
1522606596125043,1,-5,1,-13,-35,-10,-2,-8
1522606596126046,29,1,-10,12,-9,-1,-11,7
1522606596126046,-46,-6,-1,-18,-81,-58,-12,-1
1522606596138077,2,9,-2,23,74,41,-43,-6
1522606596138077,-32,-7,-3,-11,34,57,81,5
1522606596147101,-23,-2,-5,-27,-42,-25,-27,-5
1522606596147101,34,-10,-4,14,22,40,22,-3
1522606596162142,-28,20,17,16,-9,-13,20,4
1522606596162142,14,-26,-27,-25,22,15,-10,1
1522606596164147,46,27,14,-3,10,72,66,7
1522606596164147,8,-26,-3,-3,-43,-99,-61,2
1522606596185203,21,-15,-3,-24,-21,7,24,-2
1522606596185203,32,17,-1,16,-42,-20,33,1
1522606596186206,-57,4,8,-2,20,-10,-3,-10
1522606596186206,58,31,13,10,51,35,-28,3
1522606596198237,24,10,-7,-11,-66,-3,32,1
1522606596198237,52,-10,-4,4,28,-16,-72,11
1522606596207261,-104,-15,-3,6,-83,13,95,-9
1522606596207261,37,-23,-6,7,65,21,-4,9
1522606596222301,75,19,-16,-14,23,11,-6,0
1522606596222301,-60,6,9,4,-7,7,-11,-3
1522606596224307,-14,-2,-9,-2,-9,-1,-25,-4
1522606596224307,-18,10,3,1,25,0,-12,-3
1522606596245362,-13,-18,-7,-10,-31,-41,-7,-10
1522606596245362,-19,-38,-4,4,20,47,-3,-4
1522606596246366,3,65,7,7,14,0,-20,-1
1522606596246366,-27,-14,-7,-12,-22,-11,5,-5
1522606596267421,9,-8,11,4,-25,-16,-3,8
1522606596267421,-2,13,6,7,3,-9,8,-1
1522606596269427,-6,-43,-24,1,21,-3,-11,1
1522606596269427,19,-3,-38,-9,-28,5,1,8
1522606596282462,-15,-14,39,13,16,14,9,2
1522606596282462,10,14,-31,-16,-31,-21,-5,-3
1522606596284467,-14,-21,29,0,21,16,-12,3
1522606596284467,5,-2,6,5,-15,-29,1,2
1522606596304520,-17,3,-11,-2,-2,2,2,4
1522606596304520,-36,-43,-3,-1,-1,5,-3,-14
1522606596306526,37,-80,-45,-2,10,-14,-16,-4
1522606596306526,-23,99,81,13,14,17,7,1
1522606596327581,-1,19,1,-16,-36,2,5,1
1522606596327581,-6,-27,-6,-10,-20,-6,2,18
1522606596328584,9,49,-6,-5,5,-10,-15,-15
1522606596328584,-20,-53,-10,17,9,2,1,-8
1522606596342621,6,-17,-19,0,16,-7,-11,-6
1522606596342621,9,1,9,-2,-45,-3,2,3
1522606596343625,5,12,9,3,20,-12,-1,-1
1522606596343625,-1,-44,-34,0,22,6,-1,-8
1522606596364680,12,31,21,8,-3,0,1,2
1522606596364680,-24,21,5,2,1,1,2,-1
1522606596366686,-25,-27,-6,-2,-4,-7,-1,-2
1522606596366686,-4,15,-3,-8,-18,-7,-5,-4
1522606596387741,13,-16,-11,-4,-6,-1,-1,-1
1522606596387741,-8,15,15,11,12,27,8,-5
1522606596388744,22,5,4,-5,3,14,1,8
1522606596388744,55,18,6,-23,-56,-56,-34,14
1522606596401779,-105,-37,-13,19,94,73,64,-26
1522606596401779,86,-2,-8,-13,3,-10,-3,-6
1522606596408797,-24,-10,12,36,-66,-22,-9,-9
1522606596408797,-2,-21,-18,14,57,57,18,3
1522606596424840,46,4,-2,11,-8,-14,-25,7
1522606596424840,-1,34,17,-31,-13,4,11,2
1522606596426846,-64,-24,-3,3,-68,-26,-46,-9
1522606596426846,25,0,2,-15,62,64,-23,6
1522606596446899,-15,7,4,48,-97,36,79,1
1522606596446899,2,6,-10,-16,-22,-68,-74,0
1522606596448904,30,8,5,8,34,68,20,9
1522606596448904,2,24,8,-7,-87,-21,-21,1
1522606596461939,0,-34,-10,-25,-3,-90,-44,-12
1522606596461939,-1,-7,-1,1,46,56,34,5
1522606596468957,-74,6,5,-7,28,-38,49,9
1522606596468957,-19,-5,-7,4,-40,-15,-49,-16
1522606596485000,68,19,19,-2,46,27,19,16
1522606596485000,6,24,-6,2,-66,-41,-15,1
1522606596486003,67,8,0,-3,51,8,-12,1
1522606596486003,-83,-38,-19,-15,-48,-21,46,-13
1522606596507059,-38,12,-4,-62,29,26,-29,2
1522606596507059,2,-34,7,74,48,19,-5,5
1522606596509064,33,34,-5,-7,-20,4,-5,-9
1522606596509064,41,-1,-4,-3,18,-11,17,3
1522606596522099,-43,-22,-6,-14,-48,-10,-11,-3
1522606596522099,-23,-21,1,9,16,-3,7,-7
1522606596528115,107,39,-10,-10,-6,9,15,16
1522606596528115,-87,-45,-2,-2,0,0,1,-5
1522606596545160,9,33,2,5,6,-26,-16,-6
1522606596545160,-5,-14,-4,-14,30,45,8,5
1522606596546163,3,-42,-5,0,3,-4,-16,-5
1522606596546163,-2,5,-4,-9,-35,-31,0,-1
1522606596567219,12,-2,-24,14,47,8,-5,9
1522606596567219,8,-4,17,2,-18,-11,3,1
1522606596569224,-1,1,5,-14,-9,-5,-11,4
1522606596569224,-5,63,26,8,15,9,10,-14
1522606596581256,27,2,13,2,-33,-6,-5,2
1522606596581256,-1,-71,-76,-12,-5,-18,-2,-4
1522606596590280,-10,30,59,-1,0,15,-3,-5
1522606596590280,41,39,-11,31,68,13,15,13
1522606596605320,-8,-54,-2,-22,-63,-5,-12,-5
1522606596605320,-19,79,27,-22,-35,11,5,-11
1522606596606323,-11,-110,-96,-21,14,-61,3,3
1522606596606323,6,78,64,20,-31,-16,-7,-3
1522606596627379,29,-29,5,15,0,3,-2,11
1522606596627379,18,-12,-12,-15,-26,6,6,-1
1522606596629384,-66,-22,4,0,27,38,7,-4
1522606596629384,18,-17,-4,13,20,-9,-3,-4
1522606596641416,38,5,-21,5,30,-4,-6,2
1522606596641416,-50,22,33,11,31,10,0,-1
1522606596650440,39,12,-7,3,-20,6,-7,-2
1522606596650440,-84,-54,-29,-15,1,2,3,-8
1522606596664477,-13,35,17,-2,-16,-6,-11,-14
1522606596664477,32,-5,-12,5,-1,-5,6,9
1522606596666483,10,17,13,-9,-8,1,-3,-3
1522606596666483,48,-19,-12,-12,23,8,7,2
1522606596687538,-37,-5,-8,-22,-100,-37,-16,-6
1522606596687538,-54,14,22,71,108,30,14,5
1522606596688541,52,-11,-12,-22,-54,8,47,1
1522606596688541,65,2,2,22,-17,28,-9,7
1522606596700573,-20,7,-3,-26,-26,-10,-8,-9
1522606596700573,-7,-20,-15,-43,-8,1,13,4
1522606596709597,-79,-8,12,25,55,-28,-31,-20
1522606596709597,-29,-23,-15,29,27,44,87,-1
1522606596724637,-5,29,12,90,4,-62,31,3
1522606596724637,100,21,7,-12,63,44,-74,8
1522606596726643,-77,-11,-1,-17,-24,34,56,-2
1522606596726643,49,-38,-21,-49,-61,4,-45,9
1522606596747698,101,44,1,-8,-4,-24,20,7
1522606596747698,-108,-31,-3,-16,-89,-27,28,-24
1522606596748702,28,5,13,14,18,-22,-30,15
1522606596748702,-40,-16,11,4,35,17,-32,-8
1522606596760733,37,26,-15,-18,38,36,32,12
1522606596760733,63,-61,-35,6,46,43,-36,-7
1522606596769757,18,78,40,-1,-54,-29,-3,-1
1522606596769757,-101,-41,2,4,-26,-26,6,-2
1522606596784797,47,-6,-11,-29,-60,-41,-43,-6
1522606596784797,-83,14,2,-12,53,39,35,-9
1522606596786803,-3,-21,-17,36,34,-1,-36,3
1522606596786803,32,22,-5,-18,-63,-30,13,3
1522606596807858,-56,-20,6,5,46,16,-20,-6
1522606596807858,40,13,-1,-8,-66,-20,-5,5
1522606596808861,-8,-39,-18,-8,0,20,2,-5
1522606596808861,5,87,22,-2,7,-14,-16,-3
1522606596820893,-33,-66,-11,-6,2,15,1,-3
1522606596820893,6,26,15,7,-24,-35,1,1
1522606596829918,9,-9,-7,-8,2,9,-3,-3
1522606596829918,21,25,-4,0,0,-10,-3,-3
1522606596844957,-22,-67,-10,7,26,27,-3,-5
1522606596844957,32,84,33,4,-27,-25,9,3
1522606596846963,-53,-34,-28,-9,-7,1,-15,-18
1522606596846963,15,-35,-22,-6,2,-5,1,4
1522606596867016,-17,19,-17,5,10,17,-1,1
1522606596867016,6,1,31,6,-14,-26,-7,1
1522606596869021,28,59,4,-8,-18,-14,0,0
1522606596869021,5,-107,-28,0,18,24,3,5
1522606596881053,-14,75,53,-1,2,-21,-4,-1
1522606596881053,15,0,-8,9,-2,26,3,4
1522606596890077,-2,-9,2,-12,-18,-3,-2,-2
1522606596890077,-1,-27,-16,1,-2,-22,-2,-8
1522606596905117,0,-36,-43,-23,-17,26,-3,5
1522606596905117,6,27,17,-11,-26,-17,8,6
1522606596906120,16,-30,12,11,-5,3,2,3
1522606596906120,-45,33,2,6,53,8,-6,-3
1522606596927176,7,-35,-7,16,16,0,-7,-7
1522606596927176,-4,0,-6,3,-52,-44,-4,-4
1522606596929181,1,-24,-11,-3,57,51,5,3
1522606596929181,13,2,6,-6,-32,-12,1,4
1522606596941213,-15,27,16,2,-36,-12,1,3
1522606596941213,-17,-37,-17,-8,34,11,0,-8
1522606596950237,50,23,7,6,1,-5,-3,9
1522606596950237,61,11,6,-17,-15,1,3,7
1522606596965277,-52,-4,-4,17,5,8,-24,-8
1522606596965277,-12,-6,-11,-18,0,-3,54,5
1522606596966280,57,7,-1,12,-103,-74,-28,3
1522606596966280,-66,20,6,-29,107,44,20,-3
1522606596987336,23,-2,4,46,48,39,28,18
1522606596987336,7,-7,-1,-10,-99,-5,-34,0
1522606596989341,-56,-15,-17,-5,119,-19,-21,-21
1522606596989341,12,-8,7,62,-20,10,-13,8
1522606597001373,23,46,12,-22,38,30,21,5
1522606597001373,34,-19,0,-8,-89,-18,-11,3
1522606597010397,-78,-6,10,-4,-62,5,-6,11
1522606597010397,64,11,-8,-11,-12,44,5,-5
1522606597024434,12,-9,-16,-27,84,13,37,-7
1522606597024434,36,10,10,33,-2,-17,-16,5
1522606597026440,22,21,2,-15,31,23,-21,3
1522606597026440,20,23,17,3,-118,-56,18,13
1522606597047496,-19,-40,-25,-26,-8,-23,-40,-22
1522606597047496,-27,2,5,5,127,49,-8,-14
1522606597048499,-23,3,5,7,25,-1,4,3
1522606597048499,77,-3,3,-64,-15,54,52,2
1522606597061533,-16,31,11,54,-16,-51,-95,3
1522606597061533,-39,-37,-25,-14,-82,-56,14,-17
1522606597069554,41,-13,-10,-5,-25,9,32,-4
1522606597069554,-24,28,8,5,127,60,-27,0
1522606597084594,43,23,-5,-68,-94,-9,26,1
1522606597084594,-48,-30,-1,51,54,-2,-7,0
1522606597086600,27,34,9,20,-19,12,43,8
1522606597086600,-62,-61,-22,-18,-86,-58,-21,-11
1522606597107656,15,-9,16,17,57,11,-4,3
1522606597107656,30,27,-4,-3,5,5,-10,5
1522606597108659,-38,-12,4,-21,13,21,7,-4
1522606597108659,5,25,-2,17,-24,-45,-16,-3
1522606597120690,-11,-15,-5,8,4,9,5,5
1522606597120690,-8,-9,3,-15,32,20,7,1
1522606597129715,-5,-9,2,-4,-13,-11,-15,-5
1522606597129715,23,-8,-20,4,-3,-21,-13,-2
1522606597143752,-18,14,17,10,-8,14,15,2
1522606597143752,10,4,-7,-13,3,-7,-1,0
1522606597150770,15,20,12,-3,-25,-3,2,5
1522606597150770,-60,-6,1,11,6,2,-8,-8
1522606597167816,3,-9,-9,7,18,7,15,-2
1522606597167816,-3,29,13,-6,1,-14,-5,-2
1522606597168819,10,-3,-12,-11,-1,10,-2,2
1522606597168819,-2,-3,-11,-16,-1,0,3,3
1522606597189875,-4,-41,-7,7,-4,7,1,-6
1522606597189875,10,-1,-16,-9,-9,-37,-8,2
1522606597191880,-5,3,15,13,21,23,1,-2
1522606597191880,-7,-15,-12,7,-6,-8,-1,-2
1522606597203912,4,5,-3,-16,-5,3,2,2
1522606597203912,-2,18,13,-1,9,-6,-3,-5
1522606597210930,-17,-6,1,5,10,3,0,2
1522606597210930,-11,-1,-8,-1,-35,-18,-10,-12
1522606597226973,2,-12,-4,-12,36,5,1,1
1522606597226973,0,-21,-20,-6,-10,2,4,1
1522606597228979,24,-9,-7,-3,-5,-7,-5,2
1522606597228979,26,12,8,14,23,-2,-2,-2
1522606597250034,-26,9,-2,-3,-53,-27,3,2
1522606597250034,46,-3,-3,-12,60,29,-4,-13
1522606597251037,-63,-12,-14,6,-62,-14,-1,-7
1522606597251037,2,-9,1,-12,93,2,-6,4
1522606597264072,-2,14,13,25,-24,4,2,2
1522606597264072,46,11,6,1,-20,-2,-1,12
1522606597271090,-12,-17,-11,-11,-9,-33,-24,-10
1522606597271090,46,21,7,-43,-67,4,76,15
1522606597287133,-75,-31,-2,34,41,34,-45,-19
1522606597287133,-27,-6,6,51,0,-11,21,11
1522606597289139,43,12,-6,-24,-1,-4,10,-3
1522606597289139,-10,9,3,-25,-86,-29,-60,-5
1522606597310195,-12,3,5,-15,17,15,14,11
1522606597310195,22,0,-9,-24,-48,-16,-50,-13
1522606597311197,-50,18,4,8,108,33,2,-2
1522606597311197,-50,-56,-21,6,-30,2,37,-17
1522606597324232,51,34,11,-14,-113,-3,-24,5
1522606597324232,-6,0,5,21,61,33,4,1
1522606597331250,-20,12,12,-26,-124,-60,-22,17
1522606597331250,30,-14,-16,-14,56,51,-51,-29
1522606597347293,-94,-14,-2,-19,5,-36,-24,-4
1522606597347293,25,-13,-1,44,46,-14,40,5
1522606597349299,-37,-26,-18,-18,11,12,48,-9
1522606597349299,6,3,21,54,49,23,-3,16
1522606597370355,77,32,9,-31,-60,-38,47,8
1522606597370355,-46,12,-1,17,5,8,-51,-8
1522606597371358,-9,-52,-22,0,82,46,32,-6
1522606597371358,-11,-10,15,10,-57,-53,-15,4
1522606597384392,79,52,1,-12,-62,-39,15,2
1522606597384392,-57,-27,-10,-13,52,91,18,-14
1522606597391410,28,-4,-6,16,-46,-5,-14,-4
1522606597391410,-24,-33,-10,-7,-22,-13,9,8
1522606597407453,2,65,34,15,-11,-14,5,-1
1522606597407453,-6,-21,-3,-22,-47,-21,2,4
1522606597409459,14,11,-9,16,11,0,-25,-3
1522606597409459,3,9,-6,-3,12,-3,5,3
1522606597429512,11,-55,-9,10,31,13,-2,0
1522606597429512,-6,-14,-15,-13,-6,-7,1,-7
1522606597431517,11,96,62,2,7,8,1,-2
1522606597431517,17,15,-20,-6,-14,-1,5,12
1522606597443549,7,-19,25,14,38,16,2,-10
1522606597443549,-15,9,0,-15,-15,-18,-1,-1
1522606597452573,22,-60,-18,11,-25,-15,-5,5
1522606597452573,0,9,-29,7,26,2,-7,-1
1522606597467613,-12,-2,4,4,26,17,-5,-3
1522606597467613,-1,5,-24,-58,-84,-25,7,2
1522606597468616,7,52,21,5,-34,16,7,12
1522606597468616,0,-57,-22,2,16,-30,-8,-6
1522606597489672,-9,31,-12,10,8,12,3,-1
1522606597489672,32,-18,2,-2,24,3,-7,-6
1522606597491677,-18,-36,-18,-4,-1,0,-4,-9
1522606597491677,-15,53,36,13,17,4,1,3
1522606597504712,17,-59,-15,-1,2,-3,-7,-10
1522606597504712,-30,14,8,3,-2,-8,7,-2
1522606597510727,7,9,-8,-3,6,2,-9,-3
1522606597510727,29,-5,20,1,-13,3,4,2
1522606597527773,-37,-12,-15,3,7,-13,-3,-4
1522606597527773,32,21,7,4,-1,16,0,5
1522606597528776,-15,-21,-12,-2,13,0,-1,2
1522606597528776,-24,16,11,3,-14,4,0,-3
1522606597549832,88,10,-7,-29,-15,7,6,7
1522606597549832,-93,-11,4,21,5,-18,-5,-12
1522606597551837,41,0,2,14,-6,4,0,2
1522606597551837,-59,13,10,-7,-33,-2,-12,-7
1522606597563869,23,2,-18,-61,99,-38,-14,3
1522606597563869,-9,-6,6,40,-11,19,21,13
1522606597572893,38,-6,0,-8,-50,-27,11,-14
1522606597572893,-17,18,15,1,38,24,-38,-2
1522606597586931,-63,-27,-6,47,-30,6,-12,-1
1522606597586931,40,13,-4,-29,0,-35,-5,4
1522606597588936,83,26,5,27,13,24,26,13
1522606597588936,-57,-26,1,-42,-8,-25,41,-1
1522606597609992,-15,-27,-16,4,0,65,2,-21
1522606597609992,71,35,-2,-26,-95,-94,-111,-10
1522606597610995,-42,-62,4,11,42,50,-26,13
1522606597610995,127,38,-3,-3,46,29,36,14
1522606597624029,-75,-37,-7,13,10,8,-17,-7
1522606597624029,46,-2,5,-5,35,33,41,5
1522606597632050,-3,28,-8,-19,-46,-24,-25,-9
1522606597632050,8,9,3,18,35,-1,13,7
1522606597647090,-59,-9,-2,-11,-38,-3,3,-5
1522606597647090,-53,-28,-7,-39,-9,-2,30,-6
1522606597649096,40,9,-10,4,83,41,-6,4
1522606597649096,5,-4,8,18,-15,-23,-28,1
1522606597670152,-15,-1,6,-2,-86,-24,25,8
1522606597670152,-69,-12,-3,25,89,16,-37,-6
1522606597671154,11,34,-4,-18,-3,20,62,2
1522606597671154,31,1,-8,14,-80,-25,15,-7
1522606597684189,-10,-24,2,-23,1,15,2,3
1522606597684189,84,1,-7,5,-34,28,2,8
1522606597691207,-88,-8,13,4,8,-28,-19,-5
1522606597691207,27,23,6,-10,-31,-20,0,-10
1522606597707250,1,-5,-5,14,3,-26,-7,3
1522606597707250,-17,30,22,4,16,20,10,5
1522606597709256,22,-18,0,1,21,-12,-13,-6
1522606597709256,-28,-17,1,0,-21,-7,-4,-3
1522606597730312,28,17,-12,-9,15,6,0,3
1522606597730312,2,-72,-36,11,10,9,19,2
1522606597731314,0,75,40,-10,-43,-21,-9,-6
1522606597731314,-16,-7,-9,-3,4,15,-8,-3
1522606597752370,6,3,-4,-4,10,-5,-2,-2
1522606597752370,14,12,7,4,10,4,2,-4
1522606597754376,-28,-43,-7,2,-23,-30,-13,-6
1522606597754376,-4,-43,-61,-30,-4,22,-2,3
1522606597766408,30,53,46,5,4,0,-1,-7
1522606597766408,-5,-3,12,1,-35,-11,13,5
1522606597773426,-13,37,19,9,29,9,-9,-9
1522606597773426,-8,2,7,6,21,4,-8,-5
1522606597789469,21,-6,-14,-7,-19,-30,6,8
1522606597789469,-9,10,-21,-9,-15,4,0,1
1522606597791474,-5,-33,-2,4,12,-8,-7,-4
1522606597791474,11,9,23,16,18,11,-4,4
1522606597803506,13,-6,-9,7,11,7,-2,0
1522606597803506,-30,-17,-5,4,-7,-3,3,-1
1522606597812531,26,9,-20,-23,-14,-1,1,2
1522606597812531,-21,-6,-3,-5,-5,-5,-2,1
1522606597827570,12,-4,-6,6,5,6,3,3
1522606597827570,4,11,12,0,2,1,5,4
1522606597828573,31,-6,-15,-2,-21,-5,-3,8
1522606597828573,-13,-7,3,5,-20,-12,-6,-6
1522606597849629,-54,-6,-4,2,62,21,-2,-1
1522606597849629,0,20,7,-17,-27,-6,1,1
1522606597851634,-16,-22,-13,9,-15,-11,-6,-2
1522606597851634,74,22,13,-12,94,21,1,6
1522606597863666,-39,-4,-6,-12,-84,-30,-3,-8
1522606597863666,60,15,4,-2,15,3,-6,2
1522606597872691,-113,-42,-19,17,4,-9,15,-12
1522606597872691,36,16,11,14,13,-4,8,4
1522606597887730,70,14,0,-15,-33,20,23,7
1522606597887730,53,12,5,-26,-57,-42,-18,5
1522606597888733,-21,-5,2,74,51,49,98,7
1522606597888733,-89,-17,-12,-74,-105,-1,-23,-3
1522606597909789,-38,-5,6,80,78,22,42,1
1522606597909789,29,27,-3,-29,-71,-54,-49,-18
1522606597911794,-21,-13,-1,-8,84,1,-83,-1
1522606597911794,11,8,-7,3,-15,31,85,-5
1522606597923826,-6,-12,2,-29,-35,-25,-31,1
1522606597923826,-7,-2,5,8,-83,-31,36,10
1522606597932851,37,-7,-9,2,57,57,-5,-10
1522606597932851,-65,11,3,14,77,-4,-16,-7
1522606597946888,-61,-52,-3,-30,-38,-19,-58,-13
1522606597946888,61,58,4,47,85,61,22,11
1522606597948893,-56,-71,-6,-58,-128,-85,-40,-22
1522606597948893,26,13,8,79,87,38,-5,2
1522606597969949,-2,33,10,14,-26,9,13,6
1522606597969949,37,23,-12,-14,27,36,-12,-3
1522606597971954,2,-11,5,-22,17,16,58,20
1522606597971954,-13,-37,-6,-5,-60,-35,-28,1
1522606597983986,79,45,-4,0,78,17,11,2
1522606597983986,-70,-40,-15,-33,-37,8,17,-1
1522606597993010,64,14,6,21,-15,-19,-29,6
1522606597993010,-21,6,6,18,13,13,4,-4
1522606598007048,31,1,7,8,-8,-3,-2,5
1522606598007048,-21,-39,-3,-11,2,1,0,-1
1522606598009053,3,55,4,-14,-5,-18,-4,-4
1522606598009053,2,0,5,1,-20,-29,-14,-1
1522606598030109,10,-2,-12,-8,-5,9,5,-5
1522606598030109,-36,-27,-7,16,43,7,-7,-11
1522606598031112,1,0,-2,-5,-13,-11,-5,1
1522606598031112,7,25,7,-13,-35,2,-7,3
1522606598043144,19,-6,-6,-10,7,15,-3,4
1522606598043144,-42,-4,5,11,8,-18,5,-2
1522606598052168,40,2,-6,1,16,5,-6,3
1522606598052168,11,-5,-14,-14,-33,-7,-3,-1
1522606598067208,-11,-16,2,-3,2,-2,13,4
1522606598067208,-26,19,-25,-11,-4,-4,-11,-5
1522606598069213,17,-19,-8,-6,-16,6,5,6
1522606598069213,-1,72,50,-3,16,-5,-12,-6
1522606598090269,2,-21,-14,-1,-21,-10,-1,11
1522606598090269,4,-52,2,20,35,17,6,0
1522606598091272,-12,43,-14,-17,-13,-5,-11,-1
1522606598091272,0,-30,-10,0,-3,-18,-8,-8
1522606598103304,-4,-53,-5,20,-2,0,-4,-8
1522606598103304,-4,99,38,-7,10,20,4,-4
1522606598112328,89,-60,-23,-12,-5,-3,1,10
1522606598112328,-76,7,3,-6,-13,-3,7,1
1522606598127368,-16,20,-7,-7,-7,-4,-6,-9
1522606598127368,23,-23,4,16,11,-6,-4,0
1522606598129373,-21,-6,1,1,4,0,-4,-6
1522606598129373,29,-3,-10,0,-10,-5,-2,-1
1522606598149426,29,-1,-5,-2,7,1,0,5
1522606598149426,-60,-10,2,-16,-61,-29,2,9
1522606598151432,-5,32,11,15,102,39,-6,-3
1522606598151432,20,-34,-15,-4,7,14,1,5
1522606598172487,-100,12,2,-8,-46,2,-4,-21
1522606598172487,30,-9,3,11,-33,-19,-17,7
1522606598174493,92,34,10,-34,-53,9,45,27
1522606598174493,-50,-37,-13,10,2,17,18,-7
1522606598186525,-54,-2,-2,10,59,2,-47,-10
1522606598186525,12,-11,-6,-34,-33,31,65,-1
1522606598193544,-38,9,15,65,-94,-60,-37,-10
1522606598193544,58,-9,-20,-77,109,25,-32,-6
1522606598209586,2,12,12,65,-74,-12,80,4
1522606598209586,-108,-11,-12,-34,2,26,-28,-17
1522606598211592,2,-16,-5,-27,13,-13,-38,-11
1522606598211592,35,35,6,12,-90,-28,21,10
1522606598232647,33,-11,-1,-40,-16,-16,-29,12
1522606598232647,14,-6,1,27,45,17,3,-2
1522606598233651,-20,7,3,-17,-56,-49,-1,-2
1522606598233651,-71,-15,-8,-7,31,-6,-38,-9
1522606598246685,7,-14,-2,-10,-21,1,15,3
1522606598246685,35,33,9,27,62,11,-9,4
1522606598253704,-11,-5,-7,-12,9,22,1,-2
1522606598253704,-29,-50,1,12,-74,-16,-4,-9
1522606598269746,81,42,9,5,58,7,13,13
1522606598269746,-84,-16,-12,-7,-5,-13,-12,-8
1522606598271752,-30,-17,2,0,14,8,-8,-12
1522606598271752,64,18,2,20,-17,6,14,13
1522606598292808,-60,-7,-6,-11,9,5,-12,-5
1522606598292808,46,-17,5,-4,-107,-85,-6,6
1522606598293811,-18,-5,-21,-1,124,102,-2,-14
1522606598293811,14,12,1,13,-69,-6,2,-1
1522606598306845,21,-27,2,-7,-25,-3,-9,5
1522606598306845,4,26,7,7,-4,3,4,-1
1522606598313864,-7,-18,3,-2,-63,-35,9,6
1522606598313864,2,13,9,2,32,6,2,0
1522606598329907,0,10,-7,-11,26,12,-5,-8
1522606598329907,21,-21,-10,12,11,-4,-3,0
1522606598331912,-4,5,7,4,-1,-3,8,1
1522606598331912,4,-10,-14,-7,14,7,-2,3
1522606598351965,17,22,4,-2,-8,-16,0,2
1522606598351965,0,-21,-2,2,17,10,1,-2
1522606598353971,-4,12,6,0,-4,-4,2,0
1522606598353971,-2,-9,-2,6,11,-5,1,2
1522606598367005,6,12,0,-7,-12,-7,-5,-3
1522606598367005,26,-10,-4,8,22,15,-1,1
1522606598373021,-50,2,3,-1,-5,1,2,-7
1522606598373021,7,9,4,4,-11,-13,1,0
1522606598390066,22,-6,8,-3,5,8,2,12
1522606598390066,-3,8,2,0,13,13,-1,-6
1522606598391069,13,-3,-11,-6,-15,-18,2,1
1522606598391069,-26,-51,-17,13,24,3,-5,-1
1522606598412125,11,72,0,12,1,-1,-5,1
1522606598412125,-5,-10,42,-30,-17,7,7,6
1522606598414131,-22,1,-8,-8,-28,-1,7,-1
1522606598414131,-1,0,1,1,10,-2,-1,-1
1522606598427165,24,-28,-20,11,17,-2,-6,-7
1522606598427165,-15,6,-17,2,-4,-6,-10,-3
1522606598433181,18,6,3,0,-2,-3,0,-1
1522606598433181,-19,1,3,-2,-2,2,2,-3
1522606598450226,-32,-24,-4,-1,10,-5,-6,-13
1522606598450226,13,22,-5,6,10,4,2,5
1522606598451229,33,-3,5,1,-20,-12,1,5
1522606598451229,-18,0,-9,0,11,7,1,-6
1522606598472285,10,3,4,-8,-82,-27,-4,1
1522606598472285,-17,-19,-9,3,55,37,0,-13
1522606598474291,6,1,0,6,8,1,0,4
1522606598474291,2,20,8,-5,-14,-8,-1,3
1522606598486322,76,19,11,-27,-39,0,5,8
1522606598486322,-51,-46,-21,18,74,-4,-20,-20
1522606598495346,48,20,-1,-40,-74,-9,4,17
1522606598495346,35,-1,-3,0,-116,-68,-11,-4
1522606598510386,-85,-9,5,54,127,70,20,-1
1522606598510386,-45,-14,-10,-34,-76,29,35,0
1522606598511389,5,-2,3,4,90,66,-22,-9
1522606598511389,-18,1,-3,-32,-92,-87,-30,-5
1522606598532445,65,-11,3,23,49,17,51,9
1522606598532445,40,47,4,14,14,54,-57,14
1522606598534450,-74,-59,-10,4,3,-30,0,-25
1522606598534450,-18,-3,6,-12,19,100,23,12
1522606598546482,-16,14,0,-19,-8,-57,-71,-3
1522606598546482,-37,-4,-11,-25,-54,-44,40,-10
1522606598555506,50,30,5,2,-35,12,8,3
1522606598555506,36,-17,5,16,101,26,1,0
1522606598569543,-96,-39,-7,-7,-37,-3,-26,-11
1522606598569543,38,13,-4,3,1,-12,-6,1
1522606598571549,-1,21,11,4,-47,-32,-4,9
1522606598571549,1,-4,2,17,-12,-6,19,1
1522606598592605,72,25,-4,-22,-13,4,2,-1
1522606598592605,15,-8,11,17,32,5,5,9
1522606598593608,7,6,-7,12,-26,-4,-3,-4
1522606598593608,-7,13,6,-1,62,25,1,0
1522606598605640,1,-30,-8,-6,-46,-34,2,2
1522606598605640,-1,6,-5,2,-27,-17,-11,1
1522606598614663,-2,27,-3,12,29,7,11,6
1522606598614663,-11,-18,6,-7,-4,4,-1,-3
1522606598629704,-6,0,5,-4,-2,-2,0,2
1522606598629704,5,-13,-9,12,3,-4,6,0
1522606598631709,-8,-7,-9,-9,20,16,8,8
1522606598631709,2,-20,-33,-8,-31,-31,-13,-11
1522606598652765,-11,61,21,-6,16,19,1,-7
1522606598652765,18,-51,7,7,-11,-12,2,10
1522606598653768,-27,31,-9,-8,-37,-25,-7,-5
1522606598653768,5,-8,11,11,43,32,3,2
1522606598665800,-3,-34,-17,-9,-9,6,7,-5
1522606598665800,1,22,9,-6,-107,-49,-3,-12
1522606598674823,12,16,13,15,101,40,-1,2
1522606598674823,3,-63,-12,0,-37,0,1,-4
1522606598689864,9,59,3,3,33,14,-5,3
1522606598689864,-8,-24,0,-11,-51,-7,-4,1
1522606598691869,-19,-23,6,3,-12,6,1,2
1522606598691869,1,34,3,4,70,21,-1,-9
1522606598711922,-16,-13,7,5,-23,-5,2,-1
1522606598711922,1,19,-7,-4,-11,-20,1,15
1522606598713928,-57,-37,-4,-4,8,-3,-5,-20
1522606598713928,37,34,3,-2,-16,1,1,5
1522606598725960,-36,-28,-7,-6,-118,-40,-2,-4
1522606598725960,31,3,-5,8,127,38,2,3
1522606598734984,8,-10,1,-1,-22,-3,-1,-2
1522606598734984,-14,15,3,-2,-54,-45,-2,0
1522606598750023,37,3,3,0,0,0,6,4
1522606598750023,20,-5,-3,-1,-51,47,2,-10
1522606598751026,-24,-20,-5,-10,65,-1,-4,-9
1522606598751026,5,14,-2,-5,-17,-69,-49,2
1522606598772082,32,-1,1,17,86,37,61,10
1522606598772082,-65,1,6,9,-20,-3,1,-6
1522606598774088,30,1,-7,-13,-72,-35,-17,-4
1522606598774088,-13,8,0,-14,47,74,-2,11
1522606598786119,-52,-31,-9,-48,-28,-78,-37,-16
1522606598786119,-82,-9,2,60,-9,-8,10,-11
1522606598795144,41,8,9,24,61,80,-25,4
1522606598795144,10,8,5,-6,-47,-28,47,6
1522606598810184,41,3,0,-3,-14,20,-29,-2
1522606598810184,52,10,-11,-59,11,14,42,8
1522606598811186,39,16,6,36,3,23,-16,7
1522606598811186,-84,-20,-5,9,-55,-25,-24,-17
1522606598832242,104,27,5,15,86,75,44,15
1522606598832242,40,-15,-3,-28,-76,-54,-53,-16
1522606598834248,-63,-30,-20,-17,0,-54,15,-8
1522606598834248,68,5,4,9,40,28,-5,-3
1522606598846280,-128,-38,1,2,-77,-31,-2,-10
1522606598846280,127,74,4,2,117,52,7,22
1522606598855304,-107,-40,-1,-12,-66,-37,-2,-7
1522606598855304,29,12,-4,-5,-65,-21,11,-1
1522606598870344,-8,-13,-7,13,79,50,4,-7
1522606598870344,35,17,8,6,-5,-12,-3,7
1522606598871346,32,12,12,-7,-41,-32,8,19
1522606598871346,-52,-3,-7,-5,18,15,3,-5
1522606598892403,25,-8,-6,1,-11,3,-10,2
1522606598892403,-45,-2,-1,-1,-9,-18,-7,2
1522606598894408,10,-4,-3,3,30,2,3,0
1522606598894408,10,1,6,11,9,9,4,2
1522606598906440,-12,27,2,-3,-12,-2,-14,-1
1522606598906440,-32,-40,0,4,20,-12,-1,-2
1522606598915464,-4,15,-1,-21,-60,-1,8,-2
1522606598915464,34,37,-15,9,47,-6,-1,3
1522606598929501,-22,-35,-12,-12,-30,-2,-6,-2
1522606598929501,1,-14,10,15,8,-9,-3,-2
1522606598931506,7,28,1,0,6,13,5,5
1522606598931506,-11,-18,-24,-23,-16,5,1,-8
1522606598952562,5,5,-5,3,20,-7,-4,2
1522606598952562,-18,13,14,3,-19,-6,-4,-11
1522606598954568,24,-28,-17,7,20,-1,1,-3
1522606598954568,-16,-14,5,13,23,7,-4,-3
1522606598965597,9,7,-3,12,-15,-23,-10,-6
1522606598965597,-10,-25,5,-10,16,14,2,0
1522606598974621,13,5,-14,-18,-26,-7,3,-8
1522606598974621,-2,23,10,-17,-24,8,9,19
1522606598989661,-2,-19,-7,-2,0,-2,-3,-14
1522606598989661,20,-4,-1,12,4,-5,-2,-3
1522606598991666,6,4,9,8,17,-3,-1,2
1522606598991666,28,-9,-1,0,-1,1,3,9
1522606599012722,-18,15,7,6,-3,-3,-2,2
1522606599012722,-102,-12,-8,-5,1,-3,-4,0
1522606599013725,0,4,9,2,-11,-5,2,-5
1522606599013725,17,-2,7,5,-8,-14,-2,-9
1522606599025757,48,6,1,-1,12,20,0,9
1522606599025757,45,26,1,-11,-61,4,6,6
1522606599034781,-31,-38,-12,-22,67,1,-33,-14
1522606599034781,-11,-1,1,-3,-73,18,50,-2
1522606599049821,-9,6,5,4,-92,-25,-41,-3
1522606599049821,-4,-18,-14,29,96,52,-14,-3
1522606599051826,83,28,11,1,-97,-42,109,15
1522606599051826,-38,-11,-2,-4,124,100,5,2
1522606599072882,-11,-4,11,11,-39,-86,-55,-7
1522606599072882,54,1,-10,-40,-22,-3,-32,10
1522606599073885,8,2,1,-3,-79,-20,67,4
1522606599073885,47,23,11,15,49,24,-42,11
1522606599094941,52,10,-10,11,50,1,0,11
1522606599094941,-120,-54,-12,7,-34,-20,-52,-16
1522606599096946,63,19,9,-5,36,9,-18,3
1522606599096946,69,40,5,-20,-66,-21,22,19
1522606599109981,-54,-49,-11,-5,88,56,10,-23
1522606599109981,25,6,4,-3,-22,-68,-21,5
1522606599111986,-35,-25,-3,6,39,12,-8,-2
1522606599111986,-63,-1,-1,2,16,-23,-26,-7
1522606599132039,53,19,5,-18,-53,-5,21,10
1522606599132039,-101,-15,-10,17,55,27,29,-24
1522606599134045,-19,-6,0,1,3,10,-38,-8
1522606599134045,50,6,5,13,-15,-31,-32,-4
1522606599155101,-21,-7,-9,-25,-41,-14,23,1
1522606599155101,17,0,-1,-4,31,4,39,1
1522606599156104,9,25,14,19,2,9,-48,7
1522606599156104,-32,-20,-9,0,6,-4,-1,-9
1522606599169138,-16,5,7,-3,-4,7,23,-1
1522606599169138,43,-7,-8,1,-19,0,2,10
1522606599176157,-23,31,15,10,18,7,-25,-7
1522606599176157,-21,-21,-10,-19,-19,-12,10,-5
1522606599192199,3,-1,-8,5,14,1,9,6
1522606599192199,16,28,2,3,-25,2,-5,1
1522606599194205,-15,-12,2,-12,5,-6,2,1
1522606599194205,-21,-16,-4,3,-8,-9,9,-7
1522606599215261,1,10,4,4,9,11,-13,2
1522606599215261,16,11,10,2,9,-4,5,-4
1522606599216264,-22,-11,-19,-7,-22,6,1,-16
1522606599216264,42,21,12,-9,-18,-5,-4,6
1522606599229298,-48,-29,-7,0,20,1,-7,-10
1522606599229298,15,-17,-26,-17,-13,-7,5,-4
1522606599236317,-10,68,25,14,11,1,-4,4
1522606599236317,-12,-57,-6,18,12,-1,-8,-6
1522606599252359,15,37,19,0,3,0,4,6
1522606599252359,9,-5,-13,-14,-22,0,13,3
1522606599254365,-16,-14,5,3,3,-2,-13,0
1522606599254365,8,0,-8,0,5,-3,-1,0
1522606599275421,-6,-5,7,-2,-1,1,5,-1
1522606599275421,0,5,0,4,-3,-3,1,4
1522606599276425,39,-7,-14,-1,2,4,-2,11
1522606599276425,-10,11,8,-3,-7,-6,3,-2
1522606599289458,-103,-41,-17,-11,-4,2,-4,-19
1522606599289458,17,15,9,1,-5,-3,-1,1
1522606599296477,-2,-13,-12,0,4,-2,-1,1
1522606599296477,2,-8,-4,-2,-12,-3,0,-1
1522606599312519,69,22,0,-1,16,9,3,8
1522606599312519,-14,8,9,-22,-23,-12,-3,-3
1522606599314525,-51,-20,-11,3,-50,-4,-4,-8
1522606599314525,19,3,-1,-18,59,29,2,-4
1522606599334578,22,3,-6,-6,-62,-19,-23,-1
1522606599334578,-17,1,5,33,63,17,14,-5
1522606599336583,12,-17,-2,-1,2,19,-3,-3
1522606599336583,37,11,-3,-64,-47,-23,16,6
1522606599348615,-5,8,1,77,93,-13,22,-4
1522606599348615,25,12,13,29,-50,-5,14,6
1522606599357640,-52,-31,-10,-12,88,19,-71,-11
1522606599357640,-32,-6,-5,-2,-83,-26,9,-7
1522606599372680,9,-2,1,-36,10,53,35,5
1522606599372680,-14,39,13,-6,-60,-24,47,9
1522606599373682,-6,-49,-13,-9,-36,-31,-9,6
1522606599373682,-32,-2,-8,-2,82,5,-55,-17
1522606599394738,-25,-22,-1,-11,-19,-12,-17,4
1522606599394738,10,-2,-7,-2,-12,-26,-19,-16
1522606599396744,56,39,11,3,79,104,55,13
1522606599396744,-30,-23,8,14,-52,-44,7,5
1522606599408775,-17,-30,-15,0,-12,-28,-28,-11
1522606599408775,15,-1,1,-3,28,58,-1,8
1522606599417800,52,22,-11,-30,-61,-67,4,4
1522606599417800,-4,-5,-4,26,-64,-25,-14,6
1522606599432839,38,33,18,14,82,63,28,3
1522606599432839,-4,-19,-2,-17,-19,10,0,4
1522606599433843,-47,-3,-1,3,-24,-12,-6,-10
1522606599433843,6,-4,-11,19,27,24,16,6
1522606599454898,-3,23,10,-21,-76,-36,-17,-2
1522606599454898,10,-29,-20,-13,5,-18,-18,-3
1522606599456904,12,48,43,15,28,9,13,4
1522606599456904,-12,2,-13,11,8,2,-7,-2
1522606599468935,19,16,2,-17,-33,7,2,0
1522606599468935,-10,-43,-32,-5,28,0,-4,-3
1522606599477959,8,18,18,19,22,4,-4,-7
1522606599477959,-7,10,10,18,26,-7,6,-4
1522606599491996,-7,19,2,-21,-55,0,2,-2
1522606599491996,7,-34,-2,-27,-34,-30,0,8
1522606599494002,-41,-77,-32,-27,-66,-32,-1,-5
1522606599494002,52,95,14,3,24,-5,0,0
1522606599515058,-43,-51,-11,12,37,47,3,0
1522606599515058,17,38,-8,0,6,1,-14,-5
1522606599516062,-29,16,-5,-3,2,-24,0,-6
1522606599516062,-5,-74,-17,15,47,26,-5,-10
1522606599528093,60,2,-1,5,-13,-17,3,14
1522606599528093,-33,45,26,-10,-21,-1,-4,-4
1522606599537117,14,-15,-20,-4,-12,-7,-3,-3
1522606599537117,78,32,12,-4,-10,27,8,10
1522606599552156,-96,-26,-8,0,42,-10,-7,-16
1522606599552156,-16,1,2,7,-11,-10,-7,-10
1522606599554162,78,1,0,7,0,19,7,5
1522606599554162,-99,-13,5,-7,-36,-15,-4,-2
1522606599575218,30,13,-9,-4,7,-8,1,5
1522606599575218,104,16,10,5,5,10,-3,6
1522606599576221,-45,1,8,-6,-46,-19,9,0
1522606599576221,42,-17,-11,-3,106,46,1,-12
1522606599588253,50,-21,-14,-36,-90,-47,-9,0
1522606599588253,-51,11,16,69,103,28,-4,-2
1522606599597277,44,-13,-13,7,-104,19,30,-4
1522606599597277,10,0,8,-36,-3,-48,-9,7
1522606599612317,-22,-5,-7,40,43,7,-24,-7
1522606599612317,83,20,4,-17,76,-28,-12,8
1522606599614323,-36,-3,0,-34,-54,56,23,1
1522606599614323,-56,-12,-8,25,-82,-34,-34,-18
1522606599635378,21,2,8,19,95,3,22,1
1522606599635378,-4,4,-3,-7,-69,-39,-108,-2
1522606599636382,-89,-15,-4,2,3,4,53,3
1522606599636382,-17,-17,1,-36,46,50,44,5
1522606599648413,-11,24,5,-10,-13,11,68,5
1522606599648413,9,-7,-9,4,-38,-16,-51,-9
1522606599657437,1,-2,-1,-22,32,-29,-38,-9
1522606599657437,52,17,2,10,-29,-8,0,8
1522606599672477,-12,-16,-3,2,-9,-1,-3,4
1522606599672477,-107,-18,6,-12,-79,18,55,-7
1522606599674482,27,6,-5,9,105,-18,-47,-12
1522606599674482,59,27,6,2,-42,-6,6,9
1522606599694535,-26,-25,-5,10,44,19,-18,11
1522606599694535,30,37,-8,-27,-113,-55,-3,-12
1522606599696541,9,-6,1,25,107,23,4,8
1522606599696541,27,16,14,23,42,34,14,6
1522606599708572,-58,-21,0,-34,-81,-49,-30,-2
1522606599708572,-32,-30,-25,-8,42,22,27,-9
1522606599717597,41,44,11,17,-9,-11,2,10
1522606599717597,-20,-4,10,-6,-23,-7,1,-2
1522606599732637,6,11,-4,-4,-41,5,-5,-4
1522606599732637,-6,-27,-9,0,17,2,16,4
1522606599733640,-7,-4,8,12,7,-6,-6,-1
1522606599733640,-44,-47,-20,-13,3,3,-14,-6
1522606599754695,29,29,1,-4,-20,-3,-4,-4
1522606599754695,-2,-2,-23,2,37,19,21,4
1522606599756701,25,26,21,-6,-4,-2,-3,8
1522606599756701,-35,-32,0,8,-3,-28,-4,-11
1522606599768732,27,42,50,8,4,12,0,0
1522606599768732,10,-72,-44,-10,27,34,17,5
1522606599777757,-14,-7,26,8,-17,-22,-6,0
1522606599777757,-13,32,-7,-1,-17,-37,-2,0
1522606599792797,18,0,-19,-30,-56,4,10,8
1522606599792797,-4,12,27,-15,6,22,10,2
1522606599793800,-7,26,-21,11,25,-16,-11,-6
1522606599793800,10,-102,-10,26,49,16,-3,-1
1522606599814855,2,22,20,14,43,7,-5,-3
1522606599814855,-26,93,48,-14,-48,7,10,-5
1522606599816861,-3,-12,-27,-14,-20,-4,4,-2
1522606599816861,14,-23,-5,0,10,2,-1,5
1522606599828892,77,0,-16,-2,6,-1,1,15
1522606599828892,-91,-44,-2,7,11,-8,-2,-10
1522606599837917,50,-13,-11,1,-9,-3,-8,-1
1522606599837917,-6,53,13,0,-3,13,-13,5
1522606599851954,-41,-42,-14,-2,-4,-7,0,-13
1522606599851954,52,8,4,7,21,17,20,10
1522606599853960,46,11,1,-5,-12,-23,-21,1
1522606599853960,-42,13,6,-5,-9,-19,-6,5
1522606599875015,-10,-13,-13,2,13,41,25,-14
1522606599875015,70,10,0,-22,-34,16,28,8
1522606599876020,41,-38,-11,9,-3,-9,-51,-8
1522606599876020,37,59,10,0,51,-10,-11,5
1522606599888050,-8,-22,-12,-15,5,-33,-26,0
1522606599888050,-90,-34,2,9,0,-13,-21,-14
1522606599898077,83,6,-2,-28,-60,-76,-39,10
1522606599898077,-75,-6,-8,0,-108,-8,57,-3
1522606599912114,75,31,3,25,124,52,-23,11
1522606599912114,-46,12,2,-55,-81,-22,50,0
1522606599914120,-1,-3,2,61,122,37,-58,2
1522606599914120,-113,-26,-14,-36,-107,-10,-44,-10
1522606599935175,103,8,-3,-21,-3,9,-18,0
1522606599935175,-57,-6,-2,64,-11,-6,-24,-12
1522606599936178,-75,-2,1,-26,-11,38,85,3
1522606599936178,30,-31,-10,-13,24,6,7,-4
1522606599948210,-92,19,4,-6,-44,-21,57,15
1522606599948210,127,2,10,-16,-36,0,-40,2
1522606599957234,-37,-53,-26,-17,47,-11,-54,-38
1522606599957234,36,18,6,17,48,10,9,10
1522606599972274,20,0,-10,-14,-29,-3,1,-6
1522606599972274,77,0,12,18,33,-15,-14,12
1522606599974280,-96,2,3,1,-73,1,14,-12
1522606599974280,39,5,-14,-12,40,22,0,-7
1522606599995335,-5,-26,-9,10,-18,-21,-21,-14
1522606599995335,5,0,9,12,93,42,34,18
1522606599996338,6,17,-5,-1,-39,13,37,16
1522606599996338,-8,12,10,-3,-15,6,2,-5
1522606600008370,-20,-4,-16,6,-30,-17,-4,2
1522606600008370,-4,17,28,16,34,-11,-10,2
1522606600017394,-20,-8,-17,-18,-9,17,15,-5
1522606600017394,30,31,7,14,-6,-8,10,3
1522606600032434,1,-23,6,-3,-18,-20,-9,-2
1522606600032434,-26,-35,-23,-10,40,6,-3,-9
1522606600034440,-24,62,39,17,37,8,16,14
1522606600034440,16,-45,-48,-7,-25,41,-4,-12
1522606600054493,-44,-16,7,-8,-33,-89,-13,-19
1522606600054493,10,-50,-14,9,3,28,-11,14
1522606600056498,-9,61,8,-25,-33,-39,10,-9
1522606600056498,-27,-17,-13,-4,43,113,6,-7
1522606600077554,-24,-52,-14,-11,-30,-79,-2,-7
1522606600077554,12,-105,-62,-3,-40,8,0,-2
1522606600078557,10,86,84,44,33,-8,-2,-3
1522606600078557,-3,26,-62,-34,-8,-32,-5,-2
1522606600091591,16,78,55,28,51,63,2,5
1522606600091591,-45,55,-6,-30,-32,-21,5,-5
1522606600098610,54,-83,-34,-2,0,32,13,15
1522606600098610,8,-26,5,6,9,-26,-11,-9
1522606600114653,-47,-2,1,10,8,17,6,-5
1522606600114653,49,34,0,7,9,-30,-7,10
1522606600116659,-110,-67,-24,-15,-16,13,-3,-34
1522606600116659,79,38,38,11,-8,-30,-21,15
1522606600137714,26,6,-11,-1,0,19,33,10
1522606600137714,21,19,19,6,14,7,16,-4
1522606600138717,3,-33,-29,-19,-29,-12,-3,-5
1522606600138717,75,27,32,2,-5,-1,40,10
1522606600151751,-49,-24,-13,-19,60,45,-39,-17
1522606600151751,-72,-12,-8,-14,-34,-7,-16,-14
1522606600158770,74,15,7,3,-3,9,42,19
1522606600158770,2,-12,13,60,21,38,44,11
1522606600174813,49,9,-6,-60,-61,-60,-74,2
1522606600174813,-18,17,14,24,88,48,83,2
1522606600176818,-26,-14,-7,-13,-58,-52,-103,1
1522606600176818,3,-21,-6,27,94,47,14,-17
1522606600197874,42,3,3,47,-35,11,41,8
1522606600197874,-12,5,4,-49,-56,-86,-83,-6
1522606600198877,-1,3,-3,47,113,118,11,16
1522606600198877,4,-16,-1,-53,-86,-86,-3,-16
1522606600211911,-26,4,-5,6,-54,14,-11,-8
1522606600211911,92,-6,-3,-9,34,-6,20,13
1522606600218930,-9,-3,-1,-20,-48,7,61,-5
1522606600218930,-28,26,10,2,19,-16,-34,0
1522606600234973,-45,-50,-18,-14,-15,1,-15,0
1522606600234973,-23,4,-6,13,-14,13,10,-8
1522606600236978,101,30,19,0,-102,-59,-9,22
1522606600236978,-128,-45,-15,-6,101,53,-26,-36
1522606600257031,52,22,-9,9,6,-10,33,9
1522606600257031,64,-8,16,9,-11,14,-24,1
1522606600259037,-25,24,-18,-8,1,-17,7,-12
1522606600259037,-9,-11,6,-3,-44,-11,-9,16
1522606600272071,-13,8,5,3,46,39,43,-3
1522606600272071,-20,1,-5,6,-48,-11,1,-5
1522606600278087,6,-31,1,-6,58,29,-2,0
1522606600278087,3,43,11,0,-37,-16,-1,8
1522606600295133,-9,9,1,3,12,7,-10,-5
1522606600295133,-10,9,-1,5,-21,-2,-4,-7
1522606600296135,-2,-55,1,3,-11,-14,6,-9
1522606600296135,9,21,-3,-6,-11,-31,-7,1
1522606600317191,47,13,6,-5,-14,-2,-6,7
1522606600317191,-92,-4,-3,-4,3,10,-2,-17
1522606600319197,11,-2,-19,-8,20,17,5,6
1522606600319197,-3,-51,1,-9,-9,-61,-18,-2
1522606600332231,10,-23,9,18,41,41,6,13
1522606600332231,27,49,0,0,-17,-20,-9,-22
1522606600338247,-7,12,-10,3,23,-8,0,9
1522606600338247,-12,-10,-31,-37,-56,-17,-10,-13
1522606600355292,8,49,9,-23,-51,-22,8,8
1522606600355292,22,-69,-21,27,91,9,1,14
1522606600356296,-1,-2,4,14,-12,56,-6,-14
1522606600356296,6,71,38,-5,19,-20,7,18
1522606600378354,4,-37,-17,10,6,-6,-6,-8
1522606600378354,-11,5,-10,-11,-26,3,-8,14
1522606600379357,2,-41,-16,-13,-12,-38,-1,3
1522606600379357,8,19,18,17,3,9,7,7
1522606600391388,0,4,-1,-8,5,14,-7,-9
1522606600391388,-3,-8,5,0,7,8,2,-10
1522606600398407,-4,-14,-13,-2,-3,-23,-5,-6
1522606600398407,68,4,6,8,-11,10,5,14
1522606600415452,-53,16,0,8,16,2,1,-3
1522606600415452,23,-2,4,-2,-6,-11,-3,9
1522606600416455,10,17,7,-7,-4,-8,2,0
1522606600416455,-13,0,-10,0,-18,10,-7,0
1522606600437511,44,1,11,10,27,6,1,3
1522606600437511,-80,4,-6,-14,-9,-21,-14,-4
1522606600439517,-43,-14,-7,-13,-10,-34,26,-15
1522606600439517,14,-16,0,0,-9,6,-10,4
1522606600451548,13,3,0,8,-27,-10,-27,7
1522606600451548,19,14,13,-4,18,21,24,3
1522606600459570,-20,3,1,-17,58,-26,-89,-8
1522606600459570,-9,-10,-5,22,-12,3,-5,4
1522606600474610,10,-2,0,-4,-5,-8,16,-1
1522606600474610,-32,17,2,10,-14,16,-86,-5
1522606600476616,20,4,7,23,10,25,113,11
1522606600476616,40,5,1,-14,26,-5,-93,-7
1522606600497671,-54,-14,-9,-21,-27,39,7,-1
1522606600497671,89,3,2,5,-17,-6,-6,4
1522606600498674,-35,0,0,-11,-30,19,-18,0
1522606600498674,43,-32,-4,-8,14,-32,97,4
1522606600510706,10,46,5,7,-23,11,-54,-4
1522606600510706,-19,-18,-5,-12,21,30,24,-8
1522606600519730,20,5,0,5,-15,-11,-30,-3
1522606600519730,-14,-19,-7,-1,-1,44,43,3
1522606600534770,-20,-20,4,8,76,-44,-30,2
1522606600534770,5,21,-11,-17,-13,11,52,-4
1522606600536775,11,4,-6,-27,-79,-16,-4,-1
1522606600536775,-26,-10,-6,25,-3,4,-7,-6
1522606600557831,26,14,13,-2,16,-8,54,6
1522606600557831,19,-11,6,-4,21,-48,-76,0
1522606600558834,42,39,0,11,43,46,40,12
1522606600558834,-76,-6,-3,-19,-93,-40,-25,-17
1522606600570866,5,-22,-8,6,92,-3,5,0
1522606600570866,16,36,6,-1,-6,-7,33,6
1522606600579890,-3,-34,-1,10,2,-20,-21,-8
1522606600579890,-15,2,5,-1,-12,2,-6,-1
1522606600594930,-15,-40,-14,-6,-55,-13,-5,-10
1522606600594930,-22,19,-4,-8,-15,-3,9,-2
1522606600596936,-5,8,22,11,32,4,-8,5
1522606600596936,-1,17,2,3,14,15,-2,-4
1522606600616989,-10,-11,-19,-5,-24,1,10,-3
1522606600616989,17,-6,13,-3,19,1,6,4
1522606600618994,-8,9,-8,-2,-16,11,5,3
1522606600618994,-8,-14,-23,1,0,-20,-6,-9
1522606600631026,-17,-13,1,-11,1,-6,2,-8
1522606600631026,-1,-78,-34,15,7,37,6,-3
1522606600640051,-5,73,60,-1,2,-74,-22,-10
1522606600640051,22,-65,-41,11,3,46,12,0
1522606600655090,-5,91,34,-35,-51,-7,6,8
1522606600655090,18,20,-32,-2,-10,-71,5,8
1522606600656093,-39,-92,-14,2,24,63,-9,-21
1522606600656093,9,89,31,9,33,-16,-6,0
1522606600677149,9,4,-34,6,-10,-13,3,-9
1522606600677149,-19,32,38,13,-7,11,-2,-6
1522606600679154,22,-31,-26,-23,-23,17,12,23
1522606600679154,53,54,30,13,31,14,0,6
1522606600691186,-53,-62,-9,8,-2,-2,-6,-17
1522606600691186,-1,13,4,-5,28,1,4,1
1522606600700210,-13,10,-4,13,9,-16,1,-3
1522606600700210,-5,-57,-11,-9,-11,18,-2,-2
1522606600715250,13,33,14,7,-4,1,3,8
1522606600715250,22,-9,11,9,-5,-4,3,11
1522606600716253,-23,-25,-14,-3,-4,-2,-4,-9
1522606600716253,8,4,3,-3,9,2,5,4
1522606600737308,74,18,4,-2,-11,-18,-8,15
1522606600737308,-124,-26,-4,-2,-3,-7,-11,-34
1522606600739314,50,11,-10,-13,0,47,28,23
1522606600739314,-22,-5,-5,-16,-5,-41,-45,-12
1522606600751346,5,-17,1,19,22,-49,42,-2
1522606600751346,10,-12,8,-3,-1,17,16,15
1522606600760370,69,47,8,-27,-27,7,-5,14
1522606600760370,-106,-39,-15,3,-8,-46,-17,-26
1522606600774407,5,-16,10,40,49,67,50,9
1522606600774407,-10,-6,-8,18,-4,-15,-76,-20
1522606600776413,26,13,-2,-39,31,-35,4,5
1522606600776413,32,29,9,-26,-48,41,108,30
1522606600797469,-71,-37,-10,19,0,33,-102,-24
1522606600797469,-4,0,-1,11,-39,-5,41,0
1522606600799474,0,3,0,8,4,-5,-24,-12
1522606600799474,8,-7,-1,-24,5,-1,-9,2
1522606600811506,48,44,4,-19,-43,13,1,11
1522606600811506,-66,-69,0,32,20,0,34,-13
1522606600820530,-28,-8,-7,3,-9,-3,-8,-7
1522606600820530,5,42,-1,3,19,28,10,4
1522606600834567,-60,-26,0,-4,-2,-85,-42,-16
1522606600834567,76,23,5,-19,-40,-10,-6,24
1522606600836573,11,7,4,18,29,-3,30,6
1522606600836573,-8,-46,-11,-2,15,5,-21,-7
1522606600857629,-24,21,-8,-5,11,-20,-22,4
1522606600857629,-20,-15,-3,-29,20,9,-59,-4
1522606600858631,-4,7,0,40,53,5,10,-9
1522606600858631,3,30,16,10,-49,-34,-2,-7
1522606600870663,32,-16,-4,-15,-37,-4,-23,-1
1522606600870663,2,3,-5,-9,88,35,15,-6
1522606600879687,-12,12,-8,-12,-61,-11,0,-1
1522606600879687,3,-5,4,24,7,-5,-17,-2
1522606600894727,15,-37,-15,-6,58,27,32,-1
1522606600894727,11,66,26,1,-59,-14,-2,2
1522606600896733,-13,-66,-20,-3,-2,3,-15,4
1522606600896733,5,73,26,1,10,-7,-9,-1
1522606600917789,-15,-33,-4,-7,-25,-3,7,-4
1522606600917789,16,-17,3,0,5,21,15,5
1522606600918791,-12,-44,-10,7,8,12,-9,-9
1522606600918791,3,-17,-5,6,2,6,5,3
1522606600930823,20,35,-25,-18,-46,-40,18,1
1522606600930823,12,72,59,-1,16,35,13,5
1522606600939847,-11,-29,-22,15,-16,-20,-2,2
1522606600939847,-10,-16,-1,-11,-25,-46,-6,0
1522606600954887,3,-18,-10,3,40,80,8,-14
1522606600954887,14,5,-15,23,57,46,9,-1
1522606600956893,2,34,22,-48,-96,-101,-11,3
1522606600956893,8,5,-14,-6,-19,62,6,8
1522606600976946,-4,21,23,3,-2,4,-9,-13
1522606600976946,55,-26,-21,-7,-38,-12,6,12
1522606600978951,-54,-76,-1,36,80,56,5,-11
1522606600978951,20,50,8,5,28,-30,-8,1
1522606601000007,-7,45,22,-6,-29,2,12,6
1522606601000007,10,-19,-16,5,-18,-21,1,4
1522606601002013,13,45,-3,-1,39,28,-4,9
1522606601002013,-67,-67,-17,-10,-20,-20,-3,-3
1522606601015048,-16,-7,-12,3,33,21,0,-3
1522606601015048,25,21,14,1,-20,-17,2,2
1522606601017053,20,11,-6,-10,-25,-16,-6,-3
1522606601017053,41,12,8,6,11,25,6,7
1522606601037610,-24,-3,19,4,-9,-30,2,11
1522606601037610,-83,-57,-38,-30,-9,0,-17,-27
1522606601038613,20,-2,6,-5,33,18,33,-7
1522606601038613,23,-24,0,28,25,14,-17,-4
1522606601059668,98,31,4,-5,-11,8,-4,19
1522606601059668,4,-4,0,-5,-61,-33,5,1
1522606601061674,36,34,17,32,-1,26,1,16
1522606601061674,-63,-29,-11,-47,16,-25,32,-10
1522606601074708,-73,-30,-9,33,-5,-18,-76,-9
1522606601074708,-37,-19,-5,-7,-41,32,46,4
1522606601080724,11,42,6,-7,78,35,-81,-14
1522606601080724,13,-11,-2,25,-6,66,62,24
1522606601097769,39,21,1,-1,2,27,8,0
1522606601097769,-8,-17,-10,-32,-16,4,20,-4
1522606601098773,-16,0,6,7,-72,-71,-75,-1
1522606601098773,-17,-18,-5,-7,-38,-25,-53,-9
1522606601119828,-2,6,-3,-21,14,8,38,-4
1522606601119828,36,4,4,15,14,-17,-20,5
1522606601121834,17,41,-3,-15,-31,-6,27,7
1522606601121834,-60,-42,-6,-2,25,-5,-1,-23
1522606601134868,23,2,2,7,-23,-18,35,-4
1522606601134868,-57,-23,-14,-3,48,-28,-37,4
1522606601136874,18,-25,-17,-1,-15,14,28,-14
1522606601136874,27,86,38,4,-12,39,11,9
1522606601157930,-20,-34,-5,-11,-57,-67,-22,1
1522606601157930,7,12,0,10,98,18,4,-3
1522606601158933,-9,-1,1,-3,-36,-1,9,15
1522606601158933,8,-19,-15,4,69,31,38,-7
1522606601179988,39,-3,0,-7,-33,8,-18,-9
1522606601179988,-27,5,-2,-8,-5,9,-16,-3
1522606601181994,11,-6,9,18,27,16,2,16
1522606601181994,31,0,-5,0,-34,-15,-14,-2
1522606601194026,11,3,-2,-3,-49,-10,-2,-2
1522606601194026,19,-6,-12,-7,-19,-14,-5,-6
1522606601201044,-31,-18,2,-6,-74,-27,12,-10
1522606601201044,1,28,4,5,59,17,-18,-11
1522606601217087,-23,-31,-20,-10,21,-7,-4,1
1522606601217087,23,44,4,2,-29,-4,-2,7
1522606601219092,-24,-3,3,0,5,16,20,-6
1522606601219092,25,-31,-25,1,-1,-23,-22,-3
1522606601240148,-20,-24,-6,-2,36,26,20,0
1522606601240148,-22,65,16,11,15,-44,12,-5
1522606601241151,24,24,-30,-40,-79,5,-6,3
1522606601241151,16,-3,17,-3,-58,-82,3,38
1522606601254186,-7,82,32,30,86,45,1,-18
1522606601254186,1,11,-10,-13,-22,50,10,7
1522606601261204,-12,-111,-23,-2,6,-54,5,5
1522606601261204,0,16,17,5,4,58,-16,-10
1522606601277248,11,37,-44,-13,-3,-83,7,10
1522606601277248,6,-96,9,7,-2,-2,-9,-5
1522606601279252,1,103,55,2,-7,16,8,-4
1522606601279252,-2,-2,-20,-17,-30,-15,1,2
1522606601300308,11,-36,4,12,52,44,6,-3
1522606601300308,-18,-7,-12,4,-11,-9,-5,-7
1522606601301311,-4,-23,-17,-6,5,-18,0,-6
1522606601301311,-11,-17,2,3,3,9,-5,1
1522606601313343,7,7,10,-1,-9,7,-1,11
1522606601313343,78,11,-3,-6,-23,-19,0,3
1522606601322367,-47,-21,0,7,22,14,3,-12
1522606601322367,34,20,3,7,23,2,-7,0
1522606601337407,-31,-23,-3,-14,-44,-5,4,-6
1522606601337407,12,-17,-9,-9,-50,-16,-3,2
1522606601339413,73,32,2,1,82,26,-3,9
1522606601339413,-37,-16,-12,-3,2,-13,-14,-10
1522606601359466,-39,-22,9,-7,-45,7,37,13
1522606601359466,-85,-26,1,-4,5,52,-70,-12
1522606601361471,41,8,-7,-23,-104,-28,3,5
1522606601361471,41,26,-6,22,98,-43,49,-5
1522606601373503,2,10,15,17,50,54,-10,3
1522606601373503,-10,-16,-2,-38,-11,-69,-36,0
1522606601382527,-120,-28,-4,70,-41,49,54,-17
1522606601382527,103,-1,-8,-28,20,77,33,15
1522606601397567,25,31,-2,-40,-10,-70,-66,-6
1522606601397567,33,6,3,38,30,23,-3,-3
1522606601398570,23,13,2,-23,-2,-17,-10,-6
1522606601398570,-42,-42,-7,1,-38,-11,26,-17
1522606601419625,-54,-23,-3,12,14,17,-33,-6
1522606601419625,8,23,3,-16,-4,17,23,13
1522606601421631,30,4,-4,-8,-38,-1,-30,-2
1522606601421631,19,3,2,11,46,-42,-33,-9
1522606601433663,13,-33,-6,-8,-3,5,34,9
1522606601433663,52,2,1,5,4,15,47,-3
1522606601442687,-85,-8,4,11,14,-36,-47,-8
1522606601442687,16,15,-7,-13,-95,-23,13,-1
1522606601457727,-3,-13,-1,-4,61,13,3,3
1522606601457727,-34,-8,-3,8,-83,-35,6,-2
1522606601458730,39,23,10,6,120,59,38,5
1522606601458730,-48,-43,-9,-26,-72,4,-24,1
1522606601479785,28,20,7,33,58,-3,4,-8
1522606601479785,-61,-35,-16,8,-32,4,4,-5
1522606601481791,2,10,13,1,40,7,-1,1
1522606601481791,-28,19,3,-5,-21,-11,-30,5
1522606601493823,53,14,-1,-9,-55,11,15,6
1522606601493823,27,46,22,2,22,-27,-6,-3
1522606601502847,-11,-27,-12,-10,-4,-9,-2,5
1522606601502847,-6,-6,-7,9,21,16,-8,-3
1522606601517887,-23,-32,-8,-3,-49,-35,7,-9
1522606601517887,12,-32,-44,-6,43,23,3,4
1522606601518890,-7,54,75,13,-4,-11,-3,0
1522606601518890,-4,18,9,-2,-15,2,3,5
1522606601539945,-5,-56,-26,5,-2,43,5,3
1522606601539945,4,65,7,-4,21,-39,-3,-2
1522606601541951,15,2,5,-10,-31,15,7,5
1522606601541951,-10,2,-7,3,-8,-20,-17,-1
1522606601553983,-6,-60,-11,6,35,37,-1,-2
1522606601553983,16,91,40,3,-6,-26,4,0
1522606601563007,2,-14,-23,-13,-20,-1,7,1
1522606601563007,-18,-67,-12,-14,-55,-5,-3,2
1522606601577044,21,-1,-28,-12,16,-1,-1,2
1522606601577044,-7,31,36,43,57,6,5,-2
1522606601579050,-6,-28,-30,-21,-17,-9,-9,-8
1522606601579050,-2,19,9,-17,-1,15,-2,2
1522606601600105,27,-31,1,4,-10,-10,3,-9
1522606601600105,-33,-22,-22,-10,-56,-23,-4,-5
1522606601601108,-11,17,-8,9,77,27,-7,-2
1522606601601108,-14,-4,-5,9,12,4,-4,1
1522606601613140,49,78,14,-15,-58,-23,0,10
1522606601613140,-37,-38,4,-11,15,17,3,-9
1522606601622164,-25,-31,-28,-28,-29,-33,-14,-9
1522606601622164,3,8,17,98,21,8,9,6
1522606601637204,-7,36,14,-9,32,9,-4,-2
1522606601637204,60,1,0,4,14,58,11,15
1522606601639210,-32,-16,-8,-22,-30,-63,-5,-8
1522606601639210,70,1,-4,-30,-36,-4,-40,12
1522606601660266,-63,7,13,-39,31,30,-20,-6
1522606601660266,97,-12,-6,57,29,14,29,3
1522606601661268,-89,-40,-9,-9,-63,-82,20,-12
1522606601661268,-21,16,2,9,127,75,-44,-6
1522606601673300,51,16,7,15,-53,-85,-73,-6
1522606601673300,-3,-3,-7,-7,-57,-46,56,6
1522606601682324,-5,-2,-7,-7,46,46,61,14
1522606601682324,38,27,27,-16,-106,-70,-37,-9
1522606601697364,-68,-9,-18,-43,-110,-22,-57,-21
1522606601697364,20,-41,-20,-14,26,-16,-52,2
1522606601699370,0,59,17,30,89,12,25,2
1522606601699370,-19,-33,0,-17,-4,44,8,3
1522606601720425,64,33,14,22,35,18,75,13
1522606601720425,-81,-60,-22,-21,-45,1,7,-9
1522606601721429,61,65,20,13,-45,1,-8,12
1522606601721429,-36,-18,-14,-28,10,3,2,-5
1522606601733460,40,24,11,27,57,10,30,-3
1522606601733460,-6,-13,-8,-11,-64,-6,-14,4
1522606601742485,49,-20,-15,1,57,38,-19,-2
1522606601742485,17,16,-5,-13,-24,-48,12,-9
1522606601757524,18,3,0,10,-61,-7,3,0
1522606601757524,-72,-7,10,-14,88,23,13,13
1522606601759530,20,-11,-7,-1,-34,-31,-32,-11
1522606601759530,2,22,8,32,67,22,20,3
1522606601779583,-51,-39,-12,-3,-4,-19,-3,0
1522606601779583,45,39,12,-9,36,26,-9,-4
1522606601781588,4,5,-2,5,-40,8,-5,8
1522606601781588,-34,-12,-27,-19,-33,-38,11,-6
1522606601793620,-23,-20,10,6,34,30,23,1
1522606601793620,14,35,24,7,-19,1,-11,-2
1522606601802644,13,-18,-12,-6,-24,-3,1,7
1522606601802644,-12,-8,-13,-8,-1,-6,5,-4
1522606601817684,-15,-51,-24,0,12,4,-2,1
1522606601817684,18,-8,-8,7,21,25,-6,1
1522606601818687,-14,-27,-9,-8,-44,-40,-19,-6
1522606601818687,16,-31,18,12,15,8,13,8
1522606601839743,-36,49,19,13,-20,-19,-2,-10
1522606601839743,16,-8,-23,-55,-65,-11,-2,-5
1522606601841748,-42,-27,-24,0,48,35,1,-5
1522606601841748,-30,-71,-19,8,8,13,2,-11
1522606601853780,-6,19,11,4,14,-14,2,4
1522606601853780,1,-8,-16,10,16,0,-11,-2
1522606601862804,28,31,48,15,3,9,-7,-1
1522606601862804,-38,-2,-8,-1,-9,-28,6,5
1522606601877844,5,27,2,-4,8,23,1,-2
1522606601877844,25,-5,2,-1,6,-2,0,-8
1522606601878847,-15,-16,-1,4,-4,7,0,3
1522606601878847,39,36,12,4,-10,-10,4,-2
1522606601899903,-26,-26,-13,-4,-14,0,3,-3
1522606601899903,9,9,12,7,6,4,-2,4
1522606601901908,16,-14,-11,5,7,-1,-1,-4
1522606601901908,27,25,1,-10,-2,6,-2,-3
1522606601913940,62,18,6,-33,-23,-7,1,8
1522606601913940,47,-19,-8,17,-41,29,-19,2
1522606601922964,-48,-16,-8,-23,61,-10,50,-18
1522606601922964,86,20,7,14,39,30,17,1
1522606601937001,15,-17,-5,17,-41,26,-11,3
1522606601937001,17,28,8,-39,43,-62,-9,6
1522606601944020,-32,-9,7,94,41,49,-12,-7
1522606601944020,-9,-3,1,-18,-15,-4,29,-3
1522606601960063,25,1,-9,-61,-72,-41,-44,-7
1522606601960063,31,17,10,48,51,47,98,6
1522606601961066,-47,-8,2,11,22,20,-32,10
1522606601961066,-63,-5,-3,-6,0,-25,-44,-9
1522606601982122,57,17,4,15,19,0,4,12
1522606601982122,-48,-13,3,-33,-46,-18,-43,-10
1522606601984127,34,15,-9,-29,-46,-31,-17,-2
1522606601984127,-52,4,6,20,28,39,65,3
1522606601997162,-19,-40,-7,-11,3,6,-20,-7
1522606601997162,-6,20,6,13,27,-10,25,1
1522606602003177,69,-2,0,15,7,28,-46,11
1522606602003177,-71,21,13,-20,-64,-37,-42,-14
1522606602020223,-9,-34,-19,-24,42,-4,-6,-17
1522606602020223,-31,-26,-19,0,8,-41,-5,-3
1522606602021226,48,48,32,60,5,21,56,11
1522606602021226,94,16,-4,-42,-36,-2,4,8
1522606602042281,-65,-17,10,12,-21,-21,19,5
1522606602042281,13,-5,-16,-7,7,30,-41,-9
1522606602044287,-19,-22,-14,-8,22,-19,6,-5
1522606602044287,9,17,-8,12,-15,-11,4,3
1522606602057321,-35,31,27,-2,35,37,23,5
1522606602057321,-7,-9,1,-7,-33,-27,-27,-2
1522606602059327,0,-26,-14,-4,-33,-11,7,-2
1522606602059327,7,-8,-22,14,33,0,-8,0
1522606602080383,-23,31,26,-3,-91,-19,-3,-5
1522606602080383,1,2,8,13,48,17,8,4
1522606602081386,25,58,1,-36,-32,-6,0,-4
1522606602081386,-22,-56,-23,-6,-14,0,-8,-1
1522606602102441,20,32,10,8,5,-17,-3,5
1522606602102441,-8,-29,-10,-2,-23,8,10,-1
1522606602104447,-9,-22,-18,-25,-4,-15,0,4
1522606602104447,6,-40,-29,6,-3,-5,-15,-8
1522606602116479,-2,82,44,11,29,25,19,20
1522606602116479,11,-76,-13,2,-2,2,1,4
1522606602125503,42,51,26,-5,-7,-24,-10,-2
1522606602125503,-64,-22,7,12,29,7,-7,-19
1522606602139540,12,-44,-24,24,25,1,8,-2
1522606602139540,-14,3,-25,-24,-46,1,0,0
1522606602141546,34,-45,11,-11,-13,-4,-6,2
1522606602141546,26,70,25,-2,-2,3,0,6
1522606602162601,16,33,-19,7,27,-2,4,-10
1522606602162601,-49,34,49,20,8,-1,-8,6
1522606602163604,-32,-7,-26,-27,-24,4,5,-8
1522606602163604,-62,-24,-4,-7,10,4,5,2
1522606602176639,-30,-63,-27,-6,-14,-9,-9,-17
1522606602176639,20,24,1,11,18,1,1,4
1522606602183657,15,22,3,-6,-35,0,1,11
1522606602183657,62,-8,1,19,34,3,-3,2
1522606602199700,-88,-21,-9,16,15,4,2,-4
1522606602199700,3,10,7,-91,-30,20,-1,-10
1522606602201706,-2,-12,-1,67,27,-30,-19,4
1522606602201706,73,3,-2,-23,-5,9,33,12
1522606602222761,13,-11,5,-35,-27,9,-12,6
1522606602222761,24,21,0,44,53,34,-25,-6
1522606602223764,-5,-9,9,35,-24,-19,31,-3
1522606602223764,-80,-8,-3,-22,45,26,-18,0
1522606602235797,92,17,-2,-48,-28,0,-6,10
1522606602235797,-44,-6,6,68,63,18,-37,1
1522606602244820,43,6,-5,-11,-6,-17,-44,-5
1522606602244820,-41,3,4,33,2,-17,74,-6
1522606602259860,-17,-27,-5,3,45,55,38,3
1522606602259860,-69,-4,-2,-44,-52,-39,-57,-7
1522606602261866,33,17,-8,-52,-20,-39,-60,-6
1522606602261866,48,8,8,54,18,15,-6,-9
1522606602282921,-26,-31,-12,-6,10,-3,3,-4
1522606602282921,55,27,14,27,-21,2,74,10
1522606602283924,22,-7,-8,-17,-54,-7,-44,0
1522606602283924,-48,1,-10,-34,34,11,-21,-6
1522606602296959,-47,22,30,-2,-68,-11,22,10
1522606602296959,35,-31,-25,31,21,-39,16,-15
1522606602303977,-1,-21,-14,3,7,34,22,1
1522606602303977,48,50,15,-22,-40,15,-7,13
1522606602320020,2,9,10,35,43,-7,-7,-4
1522606602320020,6,15,-9,-40,-65,-10,12,1
1522606602322026,-23,-7,4,1,4,17,20,-3
1522606602322026,19,-3,-13,4,-6,-25,-20,9
1522606602342079,-7,-48,-13,21,39,-7,-4,-10
1522606602342079,5,22,4,-29,-41,-9,1,8
1522606602344084,-32,32,3,-12,18,7,14,-6
1522606602344084,-19,-38,-1,12,0,-1,-10,7
1522606602356116,13,-5,-11,1,-16,-14,-1,5
1522606602356116,-2,-17,-23,-2,9,5,-7,-13
1522606602365140,-15,3,15,5,30,7,19,2
1522606602365140,8,20,-4,-22,-44,-7,-1,-3
1522606602380180,8,-43,-32,-8,-6,-7,-8,0
1522606602380180,-13,25,22,24,27,8,-1,-4
1522606602381183,-20,-21,-16,-4,21,-11,3,-12
1522606602381183,38,21,-8,-32,-57,3,1,9
1522606602402239,-34,-4,-1,2,-17,-30,-6,-5
1522606602402239,-9,-76,7,39,80,17,-8,-3
1522606602404244,-4,67,34,4,4,-10,8,3
1522606602404244,-18,-64,-19,-62,-106,-9,6,0
1522606602416276,25,43,17,15,53,-9,-1,3
1522606602416276,-7,14,-7,8,18,4,2,2
1522606602425300,0,-27,-8,-15,9,5,2,-3
1522606602425300,35,-41,7,18,27,-8,-10,-6
1522606602440340,-10,80,8,0,-4,16,-8,-12
1522606602440340,-4,-48,-3,-9,-29,-12,0,-3
1522606602441343,5,49,25,6,20,7,1,-4
1522606602441343,39,11,7,8,3,-3,-2,5
1522606602462399,-56,-50,-14,-3,-14,2,1,1
1522606602462399,15,20,-9,-6,-14,-11,-7,-11
1522606602464404,-21,-22,-15,-27,0,11,7,1
1522606602464404,11,-10,5,22,21,-7,-5,-1
1522606602476436,48,22,5,-7,-27,1,-1,5
1522606602476436,-75,9,2,3,-7,24,19,10
1522606602485460,-14,-43,-15,-51,-28,-27,-22,-13
1522606602485460,8,18,7,5,11,-41,-11,2
1522606602499497,39,-18,-7,35,22,42,-3,-9
1522606602499497,-27,16,2,-32,-103,-34,-11,-8
1522606602501503,6,-29,-8,-15,-27,7,15,8
1522606602501503,-17,30,11,25,107,44,17,14
1522606602522559,-63,-17,4,81,77,-12,-39,-17
1522606602522559,29,-3,-2,-25,-43,58,-12,7
1522606602524564,14,-8,-5,-17,-61,-29,-16,-5
1522606602524564,-15,4,-9,-35,-23,-21,12,-10
1522606602536596,56,6,1,-32,-10,20,51,13
1522606602536596,79,24,13,29,48,12,21,17
1522606602544618,-103,-16,-10,-10,-4,5,-41,-21
1522606602544618,-16,-12,5,11,-45,-69,9,-20
1522606602559657,0,-25,-15,-5,-6,5,-4,-2
1522606602559657,-12,-24,4,-16,48,-15,-39,-2
1522606602561663,127,59,4,-4,-69,9,93,20
1522606602561663,-49,17,5,2,14,-26,-45,2
1522606602582719,-59,-55,-21,-33,33,31,-14,-20
1522606602582719,7,28,18,42,-18,-61,8,14
1522606602583721,-37,-26,13,28,85,50,-32,5
1522606602583721,2,16,-7,-14,-60,19,44,-2
1522606602595753,17,-10,-5,-42,-96,-41,-41,-6
1522606602595753,-10,53,0,16,35,53,8,-3
1522606602604777,-29,-84,-25,30,52,13,3,2
1522606602604777,36,34,28,6,-2,18,-13,5
1522606602619817,19,11,-5,-17,-34,-36,9,8
1522606602619817,4,9,-2,-30,-34,-16,-2,-6
1522606602621823,0,7,-1,24,-3,-15,8,3
1522606602621823,-19,-49,-21,-7,3,17,-18,-4
1522606602642879,2,7,16,2,16,-7,-7,6
1522606602642879,-10,57,21,13,23,-4,17,-8
1522606602643881,10,-80,-22,-17,1,-4,-1,7
1522606602643881,-15,43,-13,3,7,3,-11,-2
1522606602655913,16,53,59,16,-3,-3,14,3
1522606602655913,10,-55,-47,-20,-1,-3,2,-5
1522606602664938,-8,50,47,7,13,4,-4,-6
1522606602664938,1,-100,-49,-3,-6,5,-5,3
1522606602679978,8,18,-16,1,10,0,2,-4
1522606602679978,-12,-13,33,1,1,-11,-6,-5
1522606602681983,-1,-53,-48,-14,-5,9,0,-2
1522606602681983,-10,1,34,22,9,1,5,-2
1522606602702036,31,97,3,-23,-5,-3,-1,0
1522606602702036,1,-67,12,-1,5,-11,6,7
1522606602704041,-26,34,-33,-1,-4,0,-1,-8
1522606602704041,14,-14,10,11,23,-1,-5,-7
1522606602716074,-1,-42,-29,-3,-2,5,3,5
1522606602716074,17,46,-10,-15,-24,-6,-2,2
1522606602725098,21,-49,-22,0,8,-12,3,2
1522606602725098,-34,14,37,5,2,9,-3,3
1522606602740137,10,-10,0,15,3,-9,-6,-6
1522606602740137,-23,-33,-5,-14,-3,-2,0,-9
1522606602741140,19,34,15,2,-3,0,2,10
1522606602741140,40,-8,-24,-19,-27,5,0,10
1522606602762196,-26,-49,-12,14,13,0,3,0
1522606602762196,-59,4,-8,-6,15,-3,-3,-8
1522606602764201,-37,6,12,18,4,0,-6,-10
1522606602764201,49,32,12,2,-2,38,8,6
1522606602776233,13,4,-2,-22,-27,-62,-39,-1
1522606602776233,40,-6,-5,-32,5,-45,4,2
1522606602785258,-46,15,4,39,18,-6,10,-6
1522606602785258,21,20,8,-33,-15,55,-1,-1
1522606602799295,16,-21,2,106,73,78,-62,3
1522606602799295,-88,-35,-27,-12,-10,-60,-3,-28
1522606602806313,97,23,10,-52,-26,8,48,17
1522606602806313,10,13,5,-14,-17,-36,-42,-6
1522606602822356,6,5,-6,-30,-17,63,48,2
1522606602822356,-1,-2,-1,-12,-24,4,14,8
1522606602824361,-69,0,11,30,1,12,-2,-3
1522606602824361,36,-3,-8,-7,-38,-9,27,-2
1522606602836394,-25,6,-2,-5,65,-25,-62,-10
1522606602836394,19,1,1,13,28,57,21,6
1522606602845418,1,0,1,-17,-13,-46,-60,-6
1522606602845418,8,-10,0,3,-69,-47,-44,-5
1522606602859454,-29,4,-3,2,63,-5,7,0
1522606602859454,62,15,-5,-21,40,42,86,24
1522606602866473,2,1,16,64,61,14,-29,4
1522606602866473,-127,-28,0,4,-38,5,21,7
1522606602882516,21,8,-22,-29,-40,-16,19,4
1522606602882516,7,11,25,10,-33,9,-65,3
1522606602884521,44,10,-4,-35,-82,-2,48,9
1522606602884521,17,17,2,14,70,-13,0,-4
1522606602904575,17,4,18,-26,25,8,33,13
1522606602904575,-11,-35,-27,17,16,7,3,6
1522606602906580,20,60,33,8,24,-9,-18,-4
1522606602906580,-45,-44,-10,19,11,6,2,-12
1522606602918612,25,24,6,-16,-51,-19,12,5
1522606602918612,16,-49,-20,9,-17,-25,-26,-10
1522606602927636,-13,0,-1,-11,3,-7,-7,0
1522606602927636,3,19,0,-10,38,24,6,-5
1522606602942676,0,36,6,-8,-31,-17,22,-6
1522606602942676,6,-78,-18,-3,-22,6,-7,3
1522606602943679,13,41,-2,-2,6,15,8,0
1522606602943679,-51,-30,-45,-11,27,-18,0,-13
1522606602964735,5,-19,35,10,-27,4,1,0
1522606602964735,17,-35,-6,5,-10,7,-3,-3
1522606602966740,-20,74,5,-15,9,15,-7,-8
1522606602966740,39,-36,-13,21,47,-9,1,9
1522606602978772,-57,-7,-28,-7,-31,-12,7,3
1522606602978772,16,5,-6,-20,-39,-22,-4,0
1522606602985790,-4,-98,15,-1,-10,26,10,-1
1522606602985790,28,122,34,2,18,-6,0,3
1522606603002836,-44,8,11,8,-1,2,5,-9
1522606603002836,-3,-15,-8,6,28,10,-6,-11
1522606603003839,-4,-27,-11,-2,4,-4,-3,-1
1522606603003839,0,-18,-16,-8,-26,-4,-1,0
1522606603024895,33,44,31,11,11,1,4,0
1522606603024895,24,30,-1,-6,-7,-7,-10,-4
1522606603026900,-66,-6,-24,-3,-4,-9,-1,-8
1522606603026900,12,13,24,-13,-13,5,2,4
1522606603038932,36,-24,-17,-9,-6,0,7,3
1522606603038932,-42,28,12,12,-5,9,-7,-9
1522606603045951,48,-19,-17,7,5,-11,-7,2
1522606603045951,4,3,-2,8,-34,-4,3,-1
1522606603061993,31,-13,-1,-2,23,13,-5,7
1522606603061993,42,47,8,-22,-4,-30,12,0
1522606603063999,-76,-29,-11,-30,0,20,7,-16
1522606603063999,-14,-23,3,67,33,-17,-2,-10
1522606603085055,56,-17,-20,-80,-87,46,3,-5
1522606603085055,-43,-1,2,67,48,-62,-47,3
1522606603087060,-10,14,10,-8,16,51,92,11
1522606603087060,-16,-5,9,26,38,-79,-99,-5
1522606603099092,31,-3,-15,-15,-52,-31,41,-2
1522606603099092,46,19,-3,-48,5,59,-35,-4
1522606603106110,-6,7,12,44,5,-8,55,11
1522606603106110,-51,2,-12,-46,-5,17,6,-26
1522606603122153,36,-24,-1,60,54,28,-24,13
1522606603122153,-16,15,10,-48,-128,-63,-13,-10
1522606603124159,1,-18,-14,17,80,-37,-29,-13
1522606603124159,68,-13,-14,-4,17,34,37,4
1522606603145215,-54,6,16,6,-8,-21,-36,-1
1522606603145215,-55,-13,8,12,11,23,9,2
1522606603146217,20,-11,-23,-25,-65,-42,-34,-9
1522606603146217,34,48,34,-9,-11,36,25,7
1522606603159252,-37,-20,-14,-10,-13,-31,19,-3
1522606603159252,15,20,5,35,11,10,6,7
1522606603166270,47,4,7,0,94,24,-48,9
1522606603166270,-65,-25,-21,-17,-17,0,29,1
1522606603182313,-9,10,-10,12,-2,0,-5,-15
1522606603182313,2,19,17,-8,-1,13,14,1
1522606603184319,-3,-10,-5,-11,-121,-38,-20,3
1522606603184319,3,-9,-7,4,83,48,9,6
1522606603205375,-11,2,-2,-2,-7,-14,1,-4
1522606603205375,-5,-9,-4,5,14,5,6,1
1522606603206377,5,-46,-14,-9,-8,-3,-8,1
1522606603206377,-2,51,36,3,-22,2,-5,-6
1522606603218409,-14,-23,-14,-9,-5,-16,-1,0
1522606603218409,1,2,-15,0,23,8,4,-5
1522606603227433,9,2,18,11,6,9,-4,-4
1522606603227433,1,-15,-17,-19,-32,-12,3,10
1522606603242473,-13,-17,-6,-1,7,21,-1,1
1522606603242473,4,-28,-21,13,10,4,7,-4
1522606603244479,-29,77,33,-4,5,-1,-6,-3
1522606603244479,-9,-75,-25,-14,-26,-7,-9,-9
1522606603264532,1,63,9,-2,-6,1,4,2
1522606603264532,-4,-120,-44,-1,18,-2,-2,-4
1522606603266537,7,19,-12,0,-2,9,-5,-1
1522606603266537,-15,92,26,1,15,-7,-3,-8
1522606603279572,1,-60,-26,-2,-44,18,7,1
1522606603279572,3,-2,-7,3,49,20,5,8
1522606603286590,16,-69,-13,8,-16,-24,-9,1
1522606603286590,34,45,50,-16,-29,-3,6,11
1522606603302633,21,-9,-8,14,8,-26,-5,1
1522606603302633,-48,-11,14,-4,29,10,-4,-20
1522606603303636,-33,-32,-29,-23,-33,17,5,-8
1522606603303636,13,-4,-15,0,11,-2,0,7
1522606603324692,8,-15,2,3,30,-10,-3,-3
1522606603324692,23,43,27,8,-31,-25,-2,3
1522606603326697,15,12,6,4,88,20,-10,-4
1522606603326697,-27,-31,-12,4,-1,10,2,-5
1522606603338729,-5,12,2,-2,-9,-16,-7,-5
1522606603338729,5,27,4,2,-1,7,5,3
1522606603347753,115,35,7,-13,-27,1,6,19
1522606603347753,-94,-17,-8,-5,-31,-6,-1,-5
1522606603362793,-36,-38,-10,-21,54,21,-1,-21
1522606603362793,31,19,6,5,-51,-10,3,12
1522606603363796,20,8,10,-10,-3,13,-9,-2
1522606603363796,23,-14,-3,3,6,-7,29,5
1522606603384852,3,8,10,41,-40,16,-1,7
1522606603384852,-20,18,1,-14,93,21,-7,1
1522606603386857,30,21,9,-72,-81,-16,-21,8
1522606603386857,-13,-17,-13,79,91,-16,75,0
1522606603398889,-109,-10,-3,-32,16,9,-17,-13
1522606603398889,11,-16,-7,-29,-25,3,22,-11
1522606603407913,19,19,0,-7,-57,-64,-61,-1
1522606603407913,70,0,-4,-36,-34,8,30,13
1522606603421951,6,-1,7,-8,-25,-46,17,-7
1522606603421951,18,31,5,18,-14,10,-73,-5
1522606603423956,-60,-21,-2,3,56,4,0,-5
1522606603423956,-7,-11,-5,-5,-13,23,38,-2
1522606603445012,-30,6,14,31,21,-8,-17,14
1522606603445012,37,23,6,-25,-42,12,3,0
1522606603447017,68,8,-1,-7,-17,49,57,10
1522606603447017,-73,-34,-17,17,-79,-56,-128,-20
1522606603459049,92,-25,-21,40,112,105,53,4
1522606603459049,-20,-3,12,21,-29,2,64,2
1522606603468073,11,12,12,16,36,48,28,9
1522606603468073,42,16,10,-14,-27,-2,-6,6
1522606603482111,96,10,-3,-70,-96,-61,-30,26
1522606603482111,-75,-6,6,3,-16,-48,-27,-14
1522606603484116,-39,-81,-33,52,70,-2,24,-2
1522606603484116,48,100,29,-13,15,27,3,-2
1522606603505172,-19,-5,8,3,6,-5,-21,-1
1522606603505172,53,-23,-8,-20,-5,17,16,13
1522606603506175,-57,-44,3,-1,-59,-29,-12,-9
1522606603506175,-18,30,5,-8,15,-11,-26,-2
1522606603518207,10,17,-13,1,19,25,9,-2
1522606603518207,-12,16,14,10,-9,-11,2,0
1522606603527231,-37,-25,-22,-22,-39,-21,-11,-13
1522606603527231,18,-13,-25,-2,20,-1,-17,-2
1522606603542271,6,-8,17,34,82,71,15,-1
1522606603542271,-32,-3,12,-12,-65,-57,-6,-5
1522606603544276,-7,21,-19,-36,-57,-10,-8,-9
1522606603544276,22,-73,-33,-13,-2,-9,7,4
1522606603565332,-15,-5,-11,-20,-21,-21,1,2
1522606603565332,14,36,33,30,67,59,-5,0
1522606603566335,-21,-1,5,3,17,3,4,0
1522606603566335,3,-59,-17,-4,-11,-5,-3,1
1522606603578367,-15,18,6,9,-10,-17,-7,-9
1522606603578367,-17,-52,-24,-1,27,6,-3,2
1522606603587391,14,64,18,12,-13,-5,2,-4
1522606603587391,-28,-22,-18,-9,8,23,-4,-5
1522606603602431,14,-41,-1,-1,-17,-35,-5,2
1522606603602431,42,48,0,-16,-18,4,8,9
1522606603604436,-29,10,9,9,14,9,-2,6
1522606603604436,-3,-15,-5,5,7,-2,-4,-5
1522606603624489,-4,20,6,-7,-22,-7,1,-2
1522606603624489,-29,0,-13,-6,-3,-6,0,-6
1522606603626495,-19,-22,-13,-23,-8,-8,-9,-8
1522606603626495,17,15,22,26,67,47,4,4
1522606603638527,21,12,11,12,-2,-62,-16,0
1522606603638527,49,-1,-12,-3,-11,2,12,6
1522606603647551,-7,1,4,-12,10,-17,-20,-2
1522606603647551,19,-15,3,-11,5,33,84,-5
1522606603662591,-72,3,-1,-16,-75,46,-35,-1
1522606603662591,37,-2,-14,33,73,-80,-38,-5
1522606603664596,-34,15,14,-8,8,19,34,6
1522606603664596,40,3,-2,-39,-100,16,29,12
1522606603684649,-49,-2,9,96,63,-26,-34,-19
1522606603684649,-46,-10,-14,-71,-19,8,-49,-16
1522606603686655,78,-17,5,-1,-35,1,82,20
1522606603686655,10,43,16,-15,27,-10,-49,-4
1522606603698687,31,-20,-13,-44,-42,-6,40,14
1522606603698687,-115,-21,9,16,-64,22,-112,-6
1522606603707717,-78,34,-10,14,100,14,47,-27
1522606603707717,-24,-25,-1,5,-58,-72,-53,4
1522606603722751,39,8,7,11,23,67,34,-9
1522606603722751,-43,-30,2,-7,16,4,62,10
1522606603723753,76,68,1,10,-13,-19,-69,9
1522606603723753,-31,-25,8,0,8,-11,-21,2
1522606603744809,86,32,-9,-44,-92,-31,2,-7
1522606603744809,-39,-67,-27,32,38,-7,29,-4
1522606603746815,-34,54,57,13,43,32,-15,-3
1522606603746815,9,13,-16,19,15,20,6,7
1522606603758847,-6,2,15,-25,7,-13,-9,2
1522606603758847,31,-55,-6,-3,3,47,44,9
1522606603767871,20,25,-13,21,-55,-55,-28,3
1522606603767871,17,50,-42,-33,-25,-7,-2,0
1522606603781908,-40,-74,5,14,70,9,15,-14
1522606603781908,17,85,49,2,-19,-4,-7,-2
1522606603788927,2,-128,-62,-25,-65,-16,-6,5
1522606603788927,8,81,73,7,10,-55,-2,-6
1522606603804969,-26,-3,-24,-23,-51,-6,9,5
1522606603804969,51,8,-29,8,-6,12,21,12
1522606603806975,-25,68,66,28,60,23,-22,-9
1522606603806975,-1,6,5,-3,-11,50,11,-1
1522606603827028,13,3,-13,-2,0,-21,-1,11
1522606603827028,8,43,-1,-3,19,-20,3,-9
1522606603829033,27,-49,-5,11,-9,21,-1,0
1522606603829033,-52,-3,-14,17,16,-25,-10,-7
1522606603842068,-2,5,37,3,16,22,1,0
1522606603842068,67,45,-2,-10,-20,4,12,12
1522606603849087,-40,-27,-17,-8,-21,-8,-3,-7
1522606603849087,-4,-46,-21,-2,-22,14,-3,-6
1522606603865129,3,-3,-17,-5,14,-12,-4,7
1522606603865129,-8,4,7,-3,-17,0,4,-11
1522606603866132,36,-10,-3,-15,4,2,-1,6
1522606603866132,-53,-26,1,-1,-40,-13,-2,-6
1522606603887188,4,29,6,43,56,26,4,0
1522606603887188,73,-1,0,-39,-43,8,-8,3
1522606603889193,-36,1,-10,1,31,-46,-32,-8
1522606603889193,-6,-29,-11,-40,-14,13,53,4
1522606603902228,-32,-7,-4,24,64,-35,-66,-14
1522606603902228,33,15,3,-46,25,78,51,14
1522606603908244,14,-19,-1,81,36,4,-4,2
1522606603908244,86,36,5,-14,-6,8,30,-2
1522606603925289,-63,-37,-11,-41,-59,10,46,4
1522606603925289,73,17,7,-4,-10,-13,-110,-7
1522606603926292,-92,-28,-6,-32,-5,23,41,-5
1522606603926292,44,-5,9,14,-35,30,93,19
1522606603947348,11,45,1,16,65,29,-65,-23
1522606603947348,-89,-76,-22,-6,-15,-24,-17,-6
1522606603949353,21,29,7,-5,-12,-6,-1,-1
1522606603949353,9,-4,8,4,-70,-21,-18,9
1522606603961385,-20,-25,-22,-34,-1,-5,6,-17
1522606603961385,-21,16,7,65,84,25,14,9
1522606603968404,-13,-24,6,-3,13,-14,-23,-7
1522606603968404,78,1,12,10,-23,-17,-27,3
1522606603985449,-44,24,-26,-45,-58,-28,-38,-11
1522606603985449,-51,-14,-4,26,73,24,20,-5
1522606603986452,39,2,5,-5,-39,53,32,10
1522606603986452,6,9,13,11,47,-13,-48,4
1522606604007508,21,10,5,-3,-128,-51,24,12
1522606604007508,-25,-25,-21,0,32,9,14,-8
1522606604009513,16,32,6,-5,9,28,-4,1
1522606604009513,-44,-13,4,-8,22,-9,-24,-6
1522606604021545,6,-10,3,5,-19,-5,12,7
1522606604021545,2,-4,-5,0,-36,-27,22,6
1522606604028564,13,17,1,-7,-5,-10,-11,3
1522606604028564,-41,-68,-40,-6,18,-3,-26,-17
1522606604044606,-3,64,22,14,26,11,27,6
1522606604044606,12,30,22,7,0,-6,2,2
1522606604046612,27,-15,-33,-17,-34,-21,-5,9
1522606604046612,-35,0,-6,6,18,-1,-10,-26
1522606604067668,39,-39,1,4,32,15,12,7
1522606604067668,-26,-55,-14,-2,-34,-21,6,-4
1522606604068671,3,39,-26,-2,18,43,-10,-10
1522606604068671,-22,4,-13,0,14,-32,0,4
1522606604081705,7,53,13,-39,-104,-69,0,0
1522606604081705,23,3,7,-1,-1,-5,-1,7
1522606604088724,3,-112,-31,7,22,-3,-2,-12
1522606604088724,9,64,60,27,45,43,-10,4
1522606604104767,7,-10,10,10,41,20,1,-7
1522606604104767,-3,-53,-8,-17,-55,-32,5,9
1522606604106772,-40,62,48,-7,-31,3,4,-9
1522606604106772,7,23,15,12,58,17,-9,-8
1522606604127828,-7,-77,-12,15,-1,-5,1,2
1522606604127828,25,67,10,-8,-21,2,1,-4
1522606604128831,70,20,1,-1,-8,0,4,13
1522606604128831,-111,-45,-17,3,-15,-12,-7,-10
1522606604141865,-9,11,2,2,24,14,5,3
1522606604141865,12,-31,-29,-14,-31,-4,-5,-8
1522606604149886,-62,-10,10,12,28,-14,-7,-3
1522606604149886,68,35,1,-8,-21,-4,2,16
1522606604164926,71,-26,-14,-15,-1,39,6,7
1522606604164926,-100,25,14,-15,-5,-43,-31,-16
1522606604166932,3,-8,-7,24,-23,-61,6,-4
1522606604166932,6,-16,-2,14,61,55,-36,0
1522606604186985,-14,18,-6,-38,-71,-2,6,-5
1522606604186985,49,-15,4,69,85,3,46,4
1522606604188991,50,17,9,-15,-121,2,42,13
1522606604188991,-91,-24,-17,-43,7,-28,-35,-9
1522606604201022,71,65,-5,41,127,42,47,11
1522606604201022,-11,-25,0,-27,3,32,-32,-11
1522606604210046,-52,-48,-10,6,-59,37,84,0
1522606604210046,82,57,8,21,0,-20,-80,16
1522606604225086,-21,-27,-5,-40,-74,-2,-14,-7
1522606604225086,-35,24,0,-15,-26,-30,6,0
1522606604226089,6,-24,3,-10,114,41,-4,1
1522606604226089,36,7,4,-10,-71,-36,20,4
1522606604247145,-52,-47,-6,46,46,-3,12,-23
1522606604247145,8,26,-19,-11,-71,-44,6,2
1522606604249151,-29,-30,9,11,80,41,-63,-4
1522606604249151,109,28,9,-18,-46,10,45,27
1522606604262185,-84,-20,-5,-68,-46,-34,-6,-7
1522606604262185,127,43,-2,95,73,69,9,17
1522606604268201,16,-1,-1,-33,-92,-1,-39,-13
1522606604268201,-18,-43,-3,19,-9,10,28,-8
1522606604285246,16,-1,21,-1,-49,-8,-4,23
1522606604285246,-31,-24,-19,-54,-117,-33,-17,-3
1522606604286249,19,55,4,10,91,-10,-6,-5
1522606604286249,-28,-9,9,14,31,30,10,6
1522606604307305,-24,-9,-6,16,1,-23,-16,-6
1522606604307305,-17,-37,-16,-27,-15,-4,-2,-3
1522606604309311,48,59,33,28,17,6,-7,13
1522606604309311,-33,-47,-33,-20,-23,-33,13,-17
1522606604321343,14,68,25,-5,13,17,-1,5
1522606604321343,-3,-34,-25,1,31,2,1,-5
1522606604330366,1,-16,-12,23,63,43,-3,-8
1522606604330366,-44,35,-5,-47,-73,-41,-6,-21
1522606604345406,14,-48,-6,2,-62,-31,8,10
1522606604345406,36,66,1,16,24,30,-2,9
1522606604346409,-61,-28,-19,-54,-74,-50,-12,-9
1522606604346409,-6,-48,-5,28,50,24,5,-3
1522606604367465,14,-4,-16,24,66,25,-12,-6
1522606604367465,20,64,43,-31,-41,-1,6,-7
1522606604369471,-4,-27,5,8,8,-25,-1,7
1522606604369471,8,12,-2,17,36,23,7,-5
1522606604381502,-24,-12,-4,-5,-33,-18,-4,-6
1522606604381502,-41,-21,-10,5,20,13,3,1
1522606604390526,63,52,9,-4,-14,-17,-4,3
1522606604390526,7,-18,-10,-11,-32,2,3,2
1522606604404564,16,-3,10,21,53,15,-4,3
1522606604404564,4,32,13,-4,-20,-14,-5,-3
1522606604406569,-35,-34,-14,-16,-16,-10,1,-3
1522606604406569,-41,-13,-15,-7,-34,-14,-2,-9
1522606604427625,32,29,4,25,34,33,2,8
1522606604427625,11,-31,9,17,0,20,13,0
1522606604428628,83,10,4,-11,-14,-15,-33,12
1522606604428628,43,-19,-11,-3,20,-26,15,-13
1522606604440660,42,8,0,-20,-45,21,-2,9
1522606604440660,-26,-21,8,12,29,42,-22,-10
1522606604449684,-21,-9,-21,-25,-13,-97,-20,-27
1522606604449684,30,34,21,71,124,55,43,17
1522606604464724,20,-3,-5,-78,-28,1,33,0
1522606604464724,-42,-30,1,21,3,-23,1,10
1522606604466729,-54,10,-6,-39,-74,9,-63,-1
1522606604466729,18,-6,-7,-39,28,-4,32,-2
1522606604487785,28,5,-1,61,85,61,56,1
1522606604487785,-12,8,0,-37,-46,-47,-92,-5
1522606604488788,-19,3,3,21,12,13,51,0
1522606604488788,-34,-22,-1,-22,-87,13,38,2
1522606604500820,-35,-19,-3,15,-16,-8,-28,-11
1522606604500820,72,39,-6,-18,48,-10,3,1
1522606604509844,-28,-32,-4,16,-1,10,51,8
1522606604509844,0,21,3,-4,-11,4,-67,-2
1522606604524884,-30,-1,0,2,-5,-38,-5,-9
1522606604524884,-31,-30,2,-7,-22,10,19,-4
1522606604526889,38,16,-3,13,16,-21,-22,-3
1522606604526889,-14,-27,-12,-11,-32,-7,16,8
1522606604547945,-58,-4,4,2,63,49,-18,-9
1522606604547945,70,-4,-2,-11,10,-6,-14,4
1522606604548948,-55,16,-11,-6,-48,19,23,3
1522606604548948,43,22,10,-3,-13,-1,-28,3
1522606604560980,-26,-28,-18,-10,-14,-32,-20,-3
1522606604560980,-9,18,15,-16,12,22,23,-3
1522606604570004,28,-23,0,19,37,14,3,4
1522606604570004,-20,-1,-1,-1,-21,-6,-18,-5
1522606604585044,18,11,-6,0,-42,-30,-15,5
1522606604585044,-9,1,7,0,8,-5,29,5
1522606604587049,-5,-10,0,-3,-1,6,-3,3
1522606604587049,-9,-17,-8,1,2,-3,-7,-6
1522606604607102,11,14,5,0,10,-6,1,2
1522606604607102,-17,-12,-5,4,-2,-4,14,1
1522606604609108,19,8,1,-2,4,10,-3,1
1522606604609108,-2,7,6,4,12,-4,-7,-3
1522606604621140,26,-30,-11,-4,-1,-23,-13,3
1522606604621140,-21,-2,-11,2,-4,17,18,-5
1522606604630164,18,55,34,1,0,11,-2,1
1522606604630164,-16,22,-1,0,16,-6,2,0
1522606604645204,5,-85,-32,1,-23,-12,-7,-2
1522606604645204,0,88,24,7,1,-19,2,-3
1522606604646207,29,-62,19,8,19,1,4,1
1522606604646207,-38,21,11,-19,-42,1,-3,-11
1522606604667262,20,58,0,-8,8,11,3,20
1522606604667262,-15,-128,-31,35,35,-13,-1,-11
1522606604669268,14,121,39,-19,19,2,-4,-8
1522606604669268,0,-92,3,-15,-49,6,2,-1
1522606604681300,4,-11,-1,4,-13,-9,-2,1
1522606604681300,23,90,41,12,-5,-11,5,7
1522606604690324,-13,-51,-28,1,10,5,-1,-3
1522606604690324,-22,29,3,3,-11,-15,-3,1
1522606604705364,-5,-18,12,-1,31,0,3,-1
1522606604705364,-2,-23,-2,16,22,19,-4,-6
1522606604706367,11,1,-12,-15,-14,-2,-5,-1
1522606604706367,-3,1,-18,-10,3,-6,-8,-9
1522606604727422,22,17,8,6,-5,16,0,-3
1522606604727422,-82,-16,-6,-11,-11,-41,4,-10
1522606604729428,51,-23,-15,2,-2,11,11,7
1522606604729428,7,2,2,17,42,9,-6,6
1522606604750483,-46,28,5,2,-4,20,-9,-8
1522606604750483,7,-22,-10,-16,-23,-9,-30,-7
1522606604751487,-50,-9,-15,-27,-24,15,38,10
1522606604751487,58,20,1,3,36,5,9,12
1522606604764521,21,14,10,25,14,-32,-31,-16
1522606604764521,-16,12,-7,-12,-7,8,60,5
1522606604771540,-41,-34,-11,19,17,8,-21,-1
1522606604771540,70,3,-6,-13,19,-4,-4,-9
1522606604787583,-8,-19,-4,-46,-105,0,30,5
1522606604787583,-2,7,-4,17,47,8,-88,1
1522606604789588,76,17,-12,-27,-8,51,24,-3
1522606604789588,-11,-3,-1,45,7,-46,24,2
1522606604809641,31,9,10,9,74,50,-17,1
1522606604809641,-34,-43,-9,-14,-48,-20,24,-7
1522606604811647,8,48,-5,0,-21,3,-83,0
1522606604811647,-52,-48,-6,-54,-51,16,15,0
1522606604824681,31,7,-10,22,0,-90,-1,-4
1522606604824681,25,-6,8,8,41,-6,-11,-1
1522606604830697,-27,-33,-12,-6,15,-22,35,-12
1522606604830697,-73,-17,-4,-10,-49,21,36,0
1522606604847742,20,25,2,15,24,-17,-45,-23
1522606604847742,9,-17,-6,-23,-4,51,-37,6
1522606604848745,-50,-36,-1,9,-11,-77,39,-16
1522606604848745,82,43,4,37,68,21,7,15
1522606604869801,-109,-52,5,-12,-12,36,3,8
1522606604869801,116,60,-19,-26,-50,-51,-42,0
1522606604871806,-7,-22,-10,-16,-50,-9,1,-5
1522606604871806,-47,16,25,38,36,6,-40,-10
1522606604884841,16,9,-3,-9,-67,-33,51,16
1522606604884841,20,-13,1,9,70,44,6,3
1522606604886846,-37,-31,-17,0,-5,-10,-15,-4
1522606604886846,2,43,17,-7,-3,-17,-18,-7
1522606604907902,24,6,11,4,7,18,10,4
1522606604907902,-22,13,-12,-13,-55,-10,32,8
1522606604908905,18,2,19,21,23,2,-6,5
1522606604908905,-7,-16,-23,-5,33,16,-21,6
1522606604929961,-3,-18,-6,-12,-24,9,-4,-2
1522606604929961,-17,-29,-17,-9,-31,-7,17,1
1522606604931966,-4,24,-1,18,42,2,-9,3
1522606604931966,8,56,29,3,-6,-4,-11,-9
1522606604943998,-10,-45,-20,-16,-7,-16,-4,1
1522606604943998,-10,29,7,-22,-29,1,19,1
1522606604951017,9,-30,1,26,39,45,9,5
1522606604951017,-6,15,-12,-9,-22,-41,-10,-12
1522606604967059,4,39,-20,-34,-56,-14,-1,4
1522606604967059,-21,21,16,13,6,11,5,-4
1522606604969065,8,-82,4,2,0,-3,-5,1
1522606604969065,-1,71,52,14,30,19,-7,-10
1522606604990121,-5,-20,-8,8,44,14,-8,-6
1522606604990121,2,1,4,8,-21,-15,14,2
1522606604991124,-14,-12,-3,-4,-5,-6,-5,2
1522606604991124,10,5,-5,2,13,10,3,7
1522606605004158,47,17,2,2,10,5,2,-3
1522606605004158,-84,-54,-4,-7,-9,-1,4,-7
1522606605011177,46,45,11,-1,0,-3,-3,-2
1522606605011177,51,-42,-18,-4,-12,5,2,19
1522606605027219,13,26,-2,-2,-7,-28,-14,-17
1522606605027219,47,17,9,9,-6,11,3,0
1522606605029225,-53,-36,-10,-24,40,-22,-20,-8
1522606605029225,4,2,-14,21,-20,36,18,6
1522606605050281,70,22,16,7,6,-9,-24,5
1522606605050281,-59,-20,0,2,-12,14,10,-5
1522606605051284,91,21,-4,-66,-19,-45,-24,3
1522606605051284,-95,-38,-20,37,31,47,21,-9
1522606605063315,0,25,17,26,63,-65,-23,-2
1522606605063315,56,-28,-8,-31,4,5,47,2
1522606605072340,-6,16,10,42,7,30,25,3
1522606605072340,21,-19,-26,-102,-80,-34,-28,10
1522606605087379,-43,-13,4,77,15,48,-26,4
1522606605087379,35,28,-2,3,-11,-6,14,-5
1522606605089385,-81,4,0,-30,-16,11,-30,-13
1522606605089385,20,-38,2,42,21,-42,40,-4
1522606605110441,6,7,-2,-10,57,29,-53,2
1522606605110441,-52,7,11,5,-30,33,-17,10
1522606605111444,-34,22,-9,-26,-74,-44,-24,-1
1522606605111444,-69,-44,-17,2,50,-18,-7,-20
1522606605123475,-14,-32,-3,-20,1,12,29,-5
1522606605123475,23,2,3,15,41,11,-14,-4
1522606605132500,-9,4,6,8,-47,7,38,10
1522606605132500,70,19,-5,-13,-30,-4,8,6
1522606605147539,-2,3,5,-7,-65,-31,-7,-5
1522606605147539,-16,-31,-12,20,99,37,-9,4
1522606605149545,31,20,7,24,-4,8,7,2
1522606605149545,13,-1,9,-13,-4,2,-19,2
1522606605169598,-30,11,6,-16,-18,8,28,1
1522606605169598,19,17,-7,3,-38,-32,-23,-3
1522606605171604,19,14,10,11,33,7,-6,1
1522606605171604,-9,-89,-23,0,-5,8,-1,-2
1522606605183635,-24,65,13,-11,-23,2,18,4
1522606605183635,-3,-38,2,-6,-3,-3,6,1
1522606605192660,13,31,3,8,12,-8,8,-2
1522606605192660,-35,4,11,-8,-2,-6,-6,-3
1522606605207699,1,-18,-41,-2,6,16,22,-1
1522606605207699,4,-5,42,-5,-1,-12,-7,-12
1522606605208702,13,14,16,15,1,13,6,3
1522606605208702,9,-24,-31,-21,-32,-15,-13,-1
1522606605229758,-17,-19,15,7,37,20,4,3
1522606605229758,12,-23,-43,-2,-12,-22,1,7
1522606605231764,-22,-5,27,9,-8,5,-2,-5
1522606605231764,5,33,9,5,-27,-31,-8,-16
1522606605243795,-3,-36,-12,-5,49,34,12,6
1522606605243795,-6,9,-28,-23,-55,-15,2,0
1522606605252820,21,-31,1,7,18,17,2,3
1522606605252820,-24,33,11,13,10,4,-3,6
1522606605267859,-9,35,1,4,-7,-10,2,-4
1522606605267859,-13,-18,-5,-17,-27,-4,-5,-13
1522606605268862,-8,-13,-18,-14,-10,3,7,2
1522606605268862,-6,12,16,10,18,6,-2,2
1522606605289918,59,-33,-12,-14,-25,-9,2,4
1522606605289918,-59,-4,4,5,15,-9,-8,-11
1522606605291924,25,7,-13,0,1,-3,-4,-5
1522606605291924,11,-14,2,7,18,10,1,1
1522606605303956,0,1,10,-3,-15,-8,-3,-6
1522606605303956,18,21,0,2,9,3,3,12
1522606605312980,10,-2,-8,-5,7,-1,-1,-4
1522606605312980,24,22,1,-12,-42,0,-3,3
1522606605327017,-73,-26,-6,-30,-5,2,-2,-10
1522606605327017,38,24,8,13,65,-15,-22,2
1522606605329022,-40,-3,-14,11,35,-18,-26,-11
1522606605329022,48,-1,6,30,32,46,10,14
1522606605350078,57,17,12,-23,-78,-3,-18,11
1522606605350078,-100,-22,-13,0,48,-19,66,-14
1522606605352084,29,9,-1,43,43,11,-47,4
1522606605352084,67,4,-4,-51,-44,-26,-32,0
1522606605364115,-65,-17,6,8,-26,-54,-28,-7
1522606605364115,69,37,6,3,25,73,42,20
1522606605373140,-36,-18,-12,-8,-15,-57,-23,-11
1522606605373140,4,30,-5,32,-42,-21,5,2
1522606605387177,-39,-31,-3,-15,64,37,-21,-8
1522606605387177,58,6,9,-13,-27,-20,-37,-5
1522606605389182,-25,9,-7,-22,-43,19,41,2
1522606605389182,68,9,21,-8,26,74,29,14
1522606605410238,-66,-29,-21,-4,-74,-92,17,-8
1522606605410238,-3,26,-13,2,12,18,10,-17
1522606605411241,21,-7,1,-2,33,46,6,7
1522606605411241,-27,-9,6,-10,-30,-70,-46,-6
1522606605423273,94,39,27,-56,-63,29,30,32
1522606605423273,-47,-17,-37,61,83,-44,-29,-27
1522606605432297,-48,-9,0,32,66,40,8,1
1522606605432297,-60,-7,-6,2,20,7,-26,-6
1522606605447337,13,-6,4,21,28,16,-19,-4
1522606605447337,11,-6,15,-45,-97,-12,0,17
1522606605449342,69,27,0,-30,-68,-20,1,8
1522606605449342,-55,-30,-40,-9,54,-22,8,-14
1522606605469395,-15,-34,6,47,52,30,25,-4
1522606605469395,18,79,42,-9,-57,-2,-29,2
1522606605470398,7,-7,4,8,19,2,22,3
1522606605470398,-11,-57,-25,-4,7,6,25,6
1522606605491454,12,33,-17,8,-12,-8,-13,-10
1522606605491454,-3,34,28,-4,0,1,12,10
1522606605492457,17,13,-18,-15,-49,-2,11,4
1522606605492457,-10,-7,28,4,22,2,-3,-8
1522606605507497,1,-10,-23,4,23,19,-2,-6
1522606605507497,12,21,16,15,-12,-8,1,6
1522606605509502,-5,-80,-16,11,28,13,5,5
1522606605509502,-9,29,-22,-37,-58,-37,-13,-14
1522606605529555,10,2,5,-11,5,44,35,17
1522606605529555,-3,33,7,-4,-6,-4,-1,-6
1522606605530558,7,-4,-13,-10,-9,-17,-16,-9
1522606605530558,3,-23,5,30,22,18,6,0
1522606605551614,-2,-17,2,14,43,-19,1,0
1522606605551614,19,14,-28,-16,-22,11,-6,2
1522606605552617,-1,-66,7,5,8,0,1,-7
1522606605552617,0,61,16,9,-2,9,3,4
