timestamp,emg1,emg2,emg3,emg4,emg5,emg6,emg7,emg8
1522606663284658,-39,12,1,-5,-1,5,2,3
1522606663284658,-2,-12,-3,-6,11,-5,-7,-15
1522606663285661,-43,-13,-4,-15,10,30,-3,-1
1522606663285661,-6,-6,-6,-5,8,10,5,-8
1522606663286663,18,6,-1,0,-10,-5,-4,11
1522606663286663,23,18,0,-7,3,-4,4,4
1522606663288669,-5,7,-5,-9,7,-4,-8,-1
1522606663288669,41,8,4,8,-57,1,4,6
1522606663289672,-29,-10,12,50,12,-14,1,-19
1522606663289672,60,14,0,-38,-2,5,7,21
1522606663302706,-1,-17,-5,66,-18,-7,4,-12
1522606663302706,22,14,3,22,57,32,3,2
1522606663310730,-27,4,-3,-26,-18,-5,-19,-10
1522606663310730,-40,-10,-1,-12,-39,-47,-16,-24
1522606663316745,42,8,4,15,8,28,8,22
1522606663316745,-11,-9,-8,-24,-4,-32,-3,-18
1522606663331783,121,2,-1,-2,7,13,-20,15
1522606663331783,-69,-8,-2,-15,28,3,5,-16
1522606663347826,-8,-4,-3,-10,-3,1,1,6
1522606663347826,-13,9,5,-20,-34,-2,-6,-5
1522606663355848,8,-7,3,46,51,-3,16,-2
1522606663355848,23,1,0,12,2,21,4,12
1522606663395955,-16,-12,-8,13,-11,2,0,-6
1522606663395955,15,11,8,-8,-27,-1,36,4
1522606663395955,-17,3,3,-3,8,-1,-33,-6
1522606663395955,2,-16,-4,-12,5,24,-19,-6
1522606663396957,-19,-7,2,-12,-7,-6,-2,-13
1522606663396957,4,-3,-8,17,-21,6,4,1
1522606663399965,3,4,-2,22,23,24,17,2
1522606663399965,0,3,3,1,0,8,6,-1
1522606663406983,11,1,-2,-28,-18,0,-6,1
1522606663406983,-14,2,1,32,21,-11,-14,-13
1522606663414002,29,-4,-2,-17,-13,5,-4,14
1522606663414002,-22,3,-2,12,5,-1,30,-1
1522606663423026,19,7,3,33,59,-13,-14,15
1522606663423026,-31,-6,-5,-22,-11,-6,9,-9
1522606663437063,63,11,-2,-27,-25,4,3,6
1522606663437063,-38,-12,2,25,1,-26,-3,3
1522606663446088,15,12,4,-39,-63,13,8,-1
1522606663446088,0,-12,0,58,57,-3,-14,-19
1522606663468146,-12,-3,-9,-25,-66,-4,9,9
1522606663468146,24,18,0,-27,1,-5,-11,-3
1522606663470151,-38,-5,-2,1,-11,-32,-2,-4
1522606663470151,37,4,0,-11,10,49,-9,15
1522606663483186,1,0,1,-5,-3,-11,7,-24
1522606663483186,-16,-8,-8,-9,-30,-10,-6,-9
1522606663489202,17,2,-4,26,42,7,14,11
1522606663489202,46,10,11,-15,-44,-20,26,20
1522606663506247,-98,-28,-12,-23,2,-32,-27,-23
1522606663506247,23,15,-6,17,67,39,-6,5
1522606663507250,20,-9,21,60,27,18,-17,-4
1522606663507250,30,0,-6,-30,31,9,-62,-5
1522606663528306,27,27,5,13,32,3,11,8
1522606663528306,-32,-25,-9,-7,-41,-26,-3,3
1522606663530311,-6,-4,-18,-40,-42,0,-12,-6
1522606663530311,-12,-5,3,-9,16,-11,14,9
1522606663542343,-4,-2,-3,10,-13,4,-1,-6
1522606663542343,-16,7,8,-22,32,-12,-21,-20
1522606663549362,34,-1,7,-11,20,23,19,7
1522606663549362,-34,-10,-2,-14,-54,-36,-3,2
1522606663565405,-17,-14,-12,-27,4,1,-4,0
1522606663565405,32,2,1,16,-70,-4,4,1
1522606663567410,8,15,-4,23,79,29,9,7
1522606663567410,-94,-25,7,-3,13,-21,19,-30
1522606663588466,11,3,-4,-23,-35,-5,-12,7
1522606663588466,16,2,9,35,30,3,-3,-3
1522606663589469,18,-11,-13,-1,-22,-7,5,9
1522606663589469,-9,13,-2,-10,-18,8,-4,-3
1522606663601500,7,6,8,22,13,-2,15,7
1522606663601500,-5,-15,-8,-59,-50,-5,2,-3
1522606663610524,-20,8,4,27,-12,-10,32,-8
1522606663610524,25,4,-4,-12,48,113,-25,-1
1522606663625565,57,1,15,46,24,-12,-6,24
1522606663625565,-67,19,-2,12,-16,-2,-8,-18
1522606663627570,-2,-19,-8,-25,-11,-14,-2,-9
1522606663627570,-31,-11,-14,-12,-43,-28,8,-2
1522606663648626,25,2,3,-1,-3,4,14,-5
1522606663648626,25,-2,1,13,31,4,2,17
1522606663649629,-11,-6,-4,-11,-21,-23,-37,3
1522606663649629,13,12,6,6,-1,-8,-7,-8
1522606663661661,-2,-6,-7,-13,-5,2,1,-9
1522606663661661,-21,-8,0,-20,-17,-10,5,7
1522606663670685,-18,9,8,5,13,-11,-4,-3
1522606663670685,2,-17,-14,15,-14,-4,3,-1
1522606663685725,6,-2,3,15,41,-22,-6,3
1522606663685725,41,13,4,13,-20,-5,7,11
1522606663687730,-60,-3,-6,-53,-8,-1,-8,-9
1522606663687730,5,-7,-4,23,31,18,-7,-4
1522606663708786,-10,12,-4,16,-13,-14,14,-1
1522606663708786,56,-1,-5,-12,7,0,-24,1
1522606663709789,-64,1,7,-6,-14,0,56,1
1522606663709789,30,7,-3,22,12,-12,-1,11
1522606663721821,31,4,3,1,15,58,-10,21
1522606663721821,-44,-8,-2,0,-2,-4,-7,-38
1522606663730845,-3,-5,-5,-4,-10,9,-8,-6
1522606663730845,-17,-5,-1,-15,-25,-18,7,12
1522606663745885,8,-8,1,7,39,24,11,5
1522606663745885,39,8,-2,-8,19,7,12,23
1522606663746887,0,-1,-3,7,-16,3,-9,-5
1522606663746887,-4,2,4,-2,19,-16,-3,-7
1522606663767943,-3,7,-6,-4,-13,-21,-11,3
1522606663767943,-2,-5,-3,-11,4,-13,16,-5
1522606663769949,16,-2,2,-17,-13,-5,-23,-4
1522606663769949,24,10,4,42,-3,6,-1,16
1522606663781981,-34,-6,3,1,-11,1,-1,-20
1522606663781981,-17,-5,5,-10,9,47,-14,-1
1522606663791005,31,-1,-3,9,1,2,4,5
1522606663791005,17,-3,-3,-18,0,30,7,3
1522606663806045,-17,5,-9,-40,-37,10,-1,-10
1522606663806045,-4,-6,13,-25,-17,-22,4,1
1522606663807047,13,15,3,13,2,-48,-14,-2
1522606663807047,-25,1,-5,-10,11,-8,19,3
1522606663828103,-21,-22,-7,-8,-14,7,-7,-22
1522606663828103,13,-1,-4,-12,0,-6,-12,30
1522606663830109,12,-13,-7,15,2,3,2,3
1522606663830109,37,14,2,-11,-12,-27,5,-9
1522606663842141,-30,2,3,1,1,-7,0,-3
1522606663842141,-6,-14,-9,17,9,0,2,-5
1522606663851165,11,10,0,-1,-3,-1,-11,-13
1522606663851165,3,1,-1,6,-22,-6,-5,15
1522606663866205,-16,4,5,0,16,-4,-4,10
1522606663866205,-4,-6,-3,26,13,47,6,-3
1522606663867207,3,-8,-8,-13,3,30,6,-3
1522606663867207,-1,7,-6,-32,-29,-36,-9,1
1522606663888263,9,3,10,-17,-28,-19,-12,4
1522606663888263,2,5,-1,44,29,14,11,4
1522606663890269,-4,-6,10,-7,-34,7,-4,-7
1522606663890269,-2,7,4,-6,-2,9,-4,-9
1522606663902300,-5,-17,-13,-12,6,-50,-2,-10
1522606663902300,14,5,-8,-2,8,-17,11,1
1522606663911325,-19,0,4,8,-1,2,-20,3
1522606663911325,-19,-19,-3,4,25,1,-12,-15
1522606663925362,0,4,6,-22,1,0,-9,-4
1522606663925362,7,11,4,12,6,-11,9,27
1522606663927367,-9,-10,-8,-12,-1,-15,-3,-33
1522606663927367,-8,-11,-8,-7,1,0,0,8
1522606663948423,-1,9,-2,5,-5,0,1,2
1522606663948423,29,8,11,-13,-8,-11,2,14
1522606663950429,-20,-10,-8,-42,8,54,-3,-3
1522606663950429,-3,-6,0,29,-3,-10,-7,-14
1522606663961458,-2,-2,-6,23,6,5,4,-2
1522606663961458,-3,-8,-1,0,-13,-11,7,-11
1522606663970482,35,2,-1,-4,-8,-27,-4,14
1522606663970482,-20,9,-8,-42,-20,-14,4,4
1522606663985522,-6,3,16,51,20,-2,12,-11
1522606663985522,3,-6,-8,-28,-18,-10,-26,-3
1522606663987527,-25,-7,-5,-12,3,-8,-18,-11
1522606663987527,-1,2,8,41,18,9,11,6
1522606664008583,8,-9,-4,-7,10,8,18,21
1522606664008583,-13,5,-1,4,-15,11,-5,-20
1522606664009586,6,-5,-6,-22,0,-67,-4,6
1522606664009586,22,6,5,15,-25,-8,-9,7
1522606664021618,-50,-24,-7,0,27,17,-8,-17
1522606664021618,15,5,5,4,-2,26,3,3
1522606664030642,-5,7,-1,7,10,14,4,6
1522606664030642,25,3,-2,-31,15,8,0,0
1522606664045682,19,4,2,53,2,-6,-24,8
1522606664045682,-37,-11,-5,-37,-5,2,-5,-7
1522606664047687,20,10,5,34,3,2,14,4
1522606664047687,13,5,-4,-22,-33,-20,-14,-10
1522606664068743,0,-12,-7,-20,21,33,1,-4
1522606664068743,-7,-4,-1,20,-16,-7,-25,-4
1522606664069746,22,7,-3,0,26,20,5,16
1522606664069746,-48,-11,-1,18,-6,-10,21,-15
1522606664081778,14,6,0,-5,-46,-4,-5,1
1522606664081778,6,6,1,5,14,-13,10,0
1522606664090802,-28,-5,3,0,-5,8,4,9
1522606664090802,40,-1,-2,-14,10,21,1,13
1522606664105842,-23,13,4,-1,4,-11,12,-8
1522606664105842,-21,-21,-6,27,7,-4,-2,-9
1522606664107847,2,7,4,0,-23,7,4,0
1522606664107847,2,-4,0,-5,15,6,4,8
1522606664127901,16,-4,-2,24,9,2,-6,-2
1522606664127901,-8,10,6,-32,-69,-4,5,-4
1522606664129906,4,2,-3,-37,13,-6,-7,8
1522606664129906,8,0,6,55,55,10,8,-10
1522606664141938,-23,-10,-7,-30,-15,-8,-6,6
1522606664141938,2,3,-10,2,20,-1,-4,-15
1522606664150962,33,8,3,-5,-36,-8,0,9
1522606664150962,-51,-9,-3,-8,0,-37,-4,-9
1522606664166002,-1,-7,6,-19,5,1,18,1
1522606664166002,-4,-6,-5,-2,19,-6,15,-3
1522606664167005,7,-4,-6,29,2,15,3,-4
1522606664167005,16,10,0,-44,2,-23,-16,6
1522606664188060,47,8,0,23,-5,-2,-8,-20
1522606664188060,-45,-8,-11,-35,-54,-35,-14,11
1522606664190066,-13,-6,12,49,49,16,11,-7
1522606664190066,-22,2,-4,32,34,19,-1,7
1522606664202099,26,-11,-2,-6,-23,2,14,0
1522606664202099,-12,2,7,2,10,12,-6,-4
1522606664211123,-20,-7,-9,-20,-19,-8,-4,0
1522606664211123,-4,1,-1,-16,-18,24,-3,-11
1522606664225162,18,-5,-12,-30,-76,-12,6,15
1522606664225162,10,5,11,71,93,11,7,0
1522606664232178,0,3,-1,-11,-27,-12,-2,0
1522606664232178,4,-8,0,3,19,4,-4,5
1522606664248221,-39,13,-5,-12,0,-6,-5,-12
1522606664248221,29,-4,-11,-18,-16,0,4,4
1522606664250231,-5,9,10,0,-8,-3,5,-11
1522606664250231,7,-11,12,-23,-17,12,-1,-1
1522606664271282,6,10,7,66,30,10,4,17
1522606664271282,-1,1,-3,-17,16,-21,27,-2
1522606664272285,-32,-10,-14,-2,-42,-9,-7,-27
1522606664272285,17,4,6,20,37,18,-4,15
1522606664285320,16,6,-2,-34,-8,8,12,-2
1522606664285320,25,-5,0,-12,-17,11,-42,8
1522606664299356,-26,-4,-7,-2,-48,-9,-2,-6
1522606664299356,1,8,1,-1,39,-13,15,-4
1522606664308380,5,6,1,32,50,-2,-18,4
1522606664308380,15,6,6,-3,-2,10,14,6
1522606664310387,10,-3,-3,12,31,-2,-4,-5
1522606664310387,-21,-2,-6,-8,-48,8,-6,5
1522606664330439,-16,-14,2,-14,17,-6,-9,-7
1522606664330439,24,9,-8,-2,-14,-4,-7,-4
1522606664332445,1,-5,1,0,27,5,5,11
1522606664332445,-11,-4,-3,-11,-19,-2,6,-13
1522606664345479,3,-2,6,-12,3,-5,-1,4
1522606664345479,-46,-5,5,-27,-24,13,11,-7
1522606664351495,5,1,-1,31,36,-15,-12,0
1522606664351495,10,-2,-8,-26,-49,-19,19,0
1522606664366535,2,8,-3,19,14,9,-10,-1
1522606664366535,20,-3,-7,-8,-1,-3,1,9
1522606664375559,1,-24,-10,3,-8,8,-2,4
1522606664375559,-15,1,4,12,21,3,7,0
1522606664390599,-6,3,10,-17,-4,-1,1,-7
1522606664390599,-6,0,-1,14,-1,-9,-20,2
1522606664392605,28,15,-3,0,25,-2,10,16
1522606664392605,-8,-18,-8,4,-10,-1,-54,-23
1522606664413660,18,2,7,-8,-32,-9,1,8
1522606664413660,-45,0,0,-13,24,10,-6,-11
1522606664414663,-1,0,0,-19,-37,7,-5,-8
1522606664414663,-7,2,-12,-1,1,-5,5,17
1522606664426695,19,13,-1,17,34,21,-5,-11
1522606664426695,10,-12,0,-16,8,5,10,3
1522606664435719,-12,4,2,27,-7,-15,9,-12
1522606664435719,9,0,-1,-29,-29,2,-1,-4
1522606664450759,3,-3,-4,9,24,28,-3,0
1522606664450759,0,-3,2,18,2,-32,10,-7
1522606664452765,-2,9,-2,-28,-6,5,-5,4
1522606664452765,11,-1,4,14,7,8,17,0
1522606664472818,-53,-6,-3,-7,-7,-11,15,-10
1522606664472818,7,-6,0,13,-4,4,-37,-9
1522606664474823,23,7,8,-8,31,18,2,12
1522606664474823,19,1,4,22,-22,-4,-9,5
1522606664486855,-24,-18,-10,-9,-8,-10,1,2
1522606664486855,-4,7,-10,-13,5,-9,4,-8
1522606664495882,12,-3,1,0,-26,-52,30,2
1522606664495882,18,13,17,22,33,19,-1,8
1522606664510919,-5,6,-13,-19,-34,-62,-14,-5
1522606664510919,-50,-28,-1,29,2,1,4,-21
1522606664512925,15,0,-11,-16,15,0,-16,3
1522606664512925,-18,6,2,-9,-35,-5,10,-7
1522606664532978,28,8,9,-2,16,-32,1,14
1522606664532978,13,1,1,32,22,2,-4,1
1522606664534983,-18,-17,-8,1,1,11,-18,-7
1522606664534983,29,24,11,-10,2,-5,2,16
1522606664556041,9,0,3,8,3,29,-4,2
1522606664556041,-6,0,-2,-17,-21,-30,0,2
1522606664557042,-53,-9,0,12,3,7,-9,-27
1522606664557042,6,-2,-6,14,11,1,-2,-3
1522606664570076,-7,-9,-6,-20,-16,-6,0,-1
1522606664570076,38,11,4,29,15,10,0,9
1522606664577095,13,0,3,13,10,28,12,9
1522606664577095,-7,0,-6,-19,-20,-16,-6,11
1522606664593138,-12,-15,-8,-6,-7,35,2,-23
1522606664593138,7,-1,-3,-21,-9,0,6,31
1522606664595143,1,6,10,0,9,-2,-9,-1
1522606664595143,-12,-17,-4,0,-4,-6,-1,-15
1522606664607175,23,9,-1,-6,6,34,6,37
1522606664607175,-10,1,-1,-7,-7,1,-16,-36
1522606664616199,-17,-1,3,7,-5,0,20,-2
1522606664616199,-4,-6,-7,0,-11,-8,-20,-2
1522606664630236,-2,-12,-10,-48,-8,-9,-10,-6
1522606664630236,18,11,6,61,11,3,5,11
1522606664637255,12,-2,-4,-19,3,20,-13,1
1522606664637255,-19,-11,-7,-7,12,2,5,-16
1522606664661319,-9,4,4,40,-4,-6,-14,5
1522606664661319,0,2,5,-21,-7,-22,3,2
1522606664662322,14,3,-3,-11,7,-4,-3,9
1522606664662322,-6,-6,3,4,0,5,5,8
1522606664676359,-12,2,3,-12,-6,-17,-1,-16
1522606664676359,-5,1,-3,6,8,10,8,-1
1522606664677362,22,2,-2,13,-2,-4,-2,8
1522606664677362,-15,-21,-11,-26,-1,-6,-10,-23
1522606664690396,-44,0,3,32,0,-2,-1,-32
1522606664690396,6,-7,-5,-17,3,63,4,7
1522606664697415,9,7,0,-13,-10,-7,9,-4
1522606664697415,27,10,3,22,17,14,-1,9
1522606664713458,2,-11,-11,-51,-15,-5,-21,5
1522606664713458,-9,3,7,47,-13,-40,8,-6
1522606664714460,-2,-2,-1,2,14,-1,-5,-7
1522606664714460,-5,0,1,2,-2,-11,10,9
1522606664735517,2,0,-4,-38,-50,-23,11,-9
1522606664735517,13,-6,-7,8,-11,0,-30,7
1522606664737522,1,5,1,7,22,-4,3,5
1522606664737522,-39,-4,-6,-4,-8,1,4,-15
1522606664750556,1,-7,-3,3,12,2,14,12
1522606664750556,4,2,-1,-19,-13,20,9,-1
1522606664756574,9,-5,-1,-4,-11,-37,-2,-2
1522606664756574,5,12,-2,7,3,9,4,13
1522606664773618,-10,-8,-2,3,0,0,-4,-15
1522606664773618,3,3,7,-27,-1,-3,-7,-1
1522606664774620,-22,5,7,8,3,-15,-17,-7
1522606664774620,13,-8,-2,-5,2,-42,-4,6
1522606664795677,2,0,-3,18,-4,2,7,8
1522606664795677,2,-7,-8,-11,2,0,0,-10
1522606664797683,-5,-11,-4,-23,-6,6,3,5
1522606664797683,10,17,1,4,-4,-29,-8,-10
1522606664809714,-4,-6,9,54,36,-7,-17,-6
1522606664809714,3,-9,-5,-16,-8,-24,36,5
1522606664816732,-28,1,1,5,35,21,-31,-11
1522606664816732,0,-7,-5,-27,-27,14,15,-4
1522606664832775,1,4,3,20,8,7,-8,5
1522606664832775,-1,7,-1,-27,-5,-9,-7,-4
1522606664839794,38,-4,-5,0,-8,8,6,-1
1522606664839794,-40,0,-2,-28,-18,47,10,4
1522606664855836,14,5,-3,17,29,-3,4,-8
1522606664855836,-26,-4,0,-8,-8,-38,-17,-6
1522606664857842,18,6,3,2,-11,-3,18,3
1522606664857842,7,4,-1,18,9,19,-7,-3
1522606664869874,9,1,3,-28,-18,1,1,1
1522606664869874,-37,-19,-11,11,6,23,7,-1
1522606664876893,16,18,5,-4,-5,7,-8,1
1522606664876893,-14,-3,8,13,18,1,-5,-4
1522606664892935,-23,-9,1,-5,-10,-1,-9,-3
1522606664892935,4,6,-4,5,9,14,55,2
1522606664894940,22,-2,-7,19,4,-2,37,5
1522606664894940,5,10,5,-11,8,-1,-9,-4
1522606664915997,1,1,-5,-1,-7,-4,-10,8
1522606664915997,-15,-7,2,-2,-24,-3,-27,4
1522606664918002,-10,-8,-1,7,-21,-7,8,-6
1522606664918002,8,5,-3,6,22,20,-1,-4
1522606664930034,11,0,0,-2,3,-4,8,4
1522606664930034,33,1,2,-24,-5,3,-10,-2
1522606664937052,-19,-5,-3,2,-1,5,-6,3
1522606664937052,-24,-2,1,-4,-15,-16,-4,-5
1522606664953095,-3,-6,-2,-2,23,-12,-2,-5
1522606664953095,13,-6,-4,3,11,13,-36,4
1522606664955100,1,0,-1,0,-8,-1,1,5
1522606664955100,29,1,-2,10,0,-1,1,4
1522606664976157,-1,11,-2,-3,-1,11,4,7
1522606664976157,-27,-7,0,4,-4,-15,5,-10
1522606664977159,-1,-2,0,-26,-27,-12,-14,-2
1522606664977159,8,3,-3,29,15,1,0,7
1522606664990194,-15,-17,-3,17,12,-15,-4,-4
1522606664990194,26,18,-1,-18,3,0,-2,2
1522606664997213,-30,2,2,0,3,11,6,-2
1522606664997213,4,-8,-8,-25,-11,3,-9,-7
1522606665013255,3,8,12,2,-37,-12,5,12
1522606665013255,-2,-7,-2,-7,20,5,-3,-3
1522606665019271,3,-3,-2,17,55,7,-3,-5
1522606665019271,10,12,-1,9,-5,-16,16,9
1522606665036318,-7,-3,-4,-13,3,7,-34,-9
1522606665036318,5,-1,-9,-14,-13,-13,-4,6
1522606665037319,6,0,-2,-12,-19,8,3,-1
1522606665037319,-31,-14,7,22,20,12,3,-4
1522606665049351,0,-1,7,-19,8,5,11,3
1522606665049351,18,5,1,9,-5,-7,-1,-5
1522606665058375,11,1,-5,-7,-7,-7,-12,0
1522606665058375,-20,-7,-2,-3,-7,-31,-18,-2
1522606665073415,2,0,-1,-10,-22,-1,9,1
1522606665073415,7,0,-1,-6,37,23,11,1
1522606665075420,3,-1,0,2,9,0,-9,6
1522606665075420,1,-3,0,-4,-20,-16,-14,2
1522606665095474,11,7,-2,23,30,1,22,2
1522606665095474,-22,-5,6,-11,-12,-5,-38,-13
1522606665097479,-11,5,-4,10,-3,9,-8,4
1522606665097479,18,1,2,-8,-1,10,9,1
1522606665109511,-10,-3,-10,-21,-19,-21,-9,-6
1522606665109511,0,-1,6,20,13,5,14,-4
1522606665118535,5,4,0,0,-14,17,9,8
1522606665118535,16,-4,-8,-21,-21,-8,-5,2
1522606665133575,-13,-2,3,16,2,10,4,-6
1522606665133575,-5,6,2,4,4,0,3,-6
1522606665134578,-17,-14,-4,-12,-11,-4,8,-8
1522606665134578,19,1,-6,-6,4,-21,-19,6
1522606665155634,3,-8,7,-2,4,13,8,-6
1522606665155634,2,0,-4,-3,-23,-4,1,11
1522606665157639,-2,4,-3,2,-13,-7,12,-6
1522606665157639,28,6,6,18,1,0,-1,3
1522606665169671,-19,-9,-8,-16,13,3,1,-17
1522606665169671,-26,-8,-1,-3,2,-9,-9,-12
1522606665178695,-4,-3,9,15,12,5,8,3
1522606665178695,8,-3,-16,-10,15,12,31,2
1522606665193735,46,20,14,22,-9,16,-7,21
1522606665193735,-34,-8,1,-8,7,13,29,-1
1522606665194738,-8,-4,-3,-14,-33,18,10,-5
1522606665194738,-15,0,7,12,20,4,-10,-6
1522606665215794,2,-12,-18,-3,17,-15,-10,6
1522606665215794,1,4,-3,9,-14,1,1,1
1522606665217799,39,11,9,3,3,2,-22,15
1522606665217799,-31,-13,-5,-15,-3,-11,-4,-24
1522606665229831,2,3,-1,-4,-14,1,3,1
1522606665229831,20,7,-6,-19,-32,-8,-7,-10
1522606665238855,-41,-12,-8,6,21,-3,-5,-16
1522606665238855,11,0,2,24,8,21,4,-8
1522606665252892,9,-7,-8,-34,-3,-22,-4,5
1522606665252892,10,-1,11,54,-4,-41,-15,5
1522606665254898,6,-5,-4,-15,-4,-13,-2,-8
1522606665254898,1,4,0,-3,20,2,1,9
1522606665275954,-40,5,11,4,1,13,-3,-11
1522606665275954,16,4,-3,-10,2,10,-1,13
1522606665276957,-19,-17,-1,5,-4,-6,3,2
1522606665276957,17,12,3,4,-8,-3,-4,8
1522606665289991,19,-3,-4,-19,-20,2,3,4
1522606665289991,-54,-5,-4,10,19,3,-1,-22
1522606665298012,6,-2,-3,-1,8,-4,4,2
1522606665298012,-7,-11,0,-8,-15,3,1,10
1522606665313052,17,4,1,0,-15,6,-9,-3
1522606665313052,23,10,3,-13,-2,5,7,10
1522606665315058,-19,-1,4,10,16,-4,-8,-5
1522606665315058,2,1,-5,-4,-9,-9,-2,0
1522606665336114,-24,-7,2,10,3,8,1,-7
1522606665336114,20,-8,-5,-2,0,19,-3,10
1522606665337116,15,15,-1,-1,11,22,11,8
1522606665337116,-34,-7,-2,-23,-11,20,6,-26
1522606665349148,4,-4,-1,40,15,-8,13,10
1522606665349148,10,14,4,0,-1,1,9,6
1522606665358172,5,-3,-4,-7,-7,5,-2,10
1522606665358172,-23,-7,-6,-12,-13,-40,-14,-16
1522606665373212,-13,-11,-5,18,16,18,9,-4
1522606665373212,7,-1,-1,-7,2,54,-8,4
1522606665375218,-2,4,0,2,-6,-30,-7,-14
1522606665375218,4,-1,-3,3,-2,4,6,13
1522606665396274,-6,-4,-1,-15,-9,-2,-7,-6
1522606665396274,6,9,9,0,2,-14,0,0
1522606665397277,-6,-5,9,0,6,5,-5,-2
1522606665397277,-16,-5,4,-1,6,4,-2,-1
1522606665409308,12,0,-4,-3,10,1,4,2
1522606665409308,7,-16,-10,-7,-13,-13,2,10
1522606665418332,-7,22,-1,-1,-18,-2,2,-21
1522606665418332,9,2,2,1,-7,-7,-17,-3
1522606665433372,15,3,7,10,13,-6,3,4
1522606665433372,-26,-7,1,4,10,-5,6,-4
1522606665435377,0,-9,-4,-16,-9,-28,0,2
1522606665435377,13,5,-3,-20,4,4,-4,-6
1522606665455431,2,8,-3,48,-21,35,6,3
1522606665455431,-4,-4,-5,-4,6,-15,1,1
1522606665457436,4,-3,0,-8,-9,21,5,3
1522606665457436,5,6,4,-3,0,13,11,7
1522606665469468,-3,-4,-5,-29,-11,-60,-14,-6
1522606665469468,-4,4,-1,-8,-7,6,7,2
1522606665478492,1,-3,-8,12,-2,-5,-21,-9
1522606665478492,-17,-2,7,6,16,31,13,-6
1522606665493532,7,2,1,-4,2,9,3,6
1522606665493532,13,-5,-2,0,-8,-6,2,-13
1522606665494535,-11,-14,-8,-17,3,-22,-7,3
1522606665494535,15,0,-3,9,-7,-4,3,13
1522606665515591,-3,11,-1,-12,-7,0,-3,-6
1522606665515591,-19,-7,0,-21,2,-10,0,-4
1522606665517597,20,3,1,14,5,17,-10,1
1522606665517597,4,-3,-4,7,-7,-33,-5,2
1522606665529628,1,2,-4,-13,-2,1,0,-1
1522606665529628,-20,0,-5,-8,-2,-13,-15,-8
1522606665538652,-6,-9,-2,-6,11,-11,-1,-8
1522606665538652,40,8,3,12,-4,27,29,11
1522606665553692,-36,-12,-8,-16,-8,-15,-7,-3
1522606665553692,6,-2,4,3,-7,-12,-6,-17
1522606665554695,-13,3,3,3,7,4,0,-1
1522606665554695,-4,-4,-4,-10,-7,-35,-16,1
1522606665575751,26,6,0,-14,-7,11,8,-2
1522606665575751,5,-2,-2,24,18,26,4,7
1522606665577757,-2,-5,-4,7,35,-33,36,10
1522606665577757,-6,3,-1,-10,-13,-10,-29,-17
1522606665589788,-9,0,5,17,-4,0,-6,2
1522606665589788,29,-2,-3,-16,-14,-7,0,7
1522606665598812,21,6,-2,-14,-16,20,-1,9
1522606665598812,-38,-6,-3,13,3,-14,0,-2
1522606665612849,2,-2,1,-16,19,-3,-5,-1
1522606665612849,-6,-1,-1,-2,-2,5,-6,-7
1522606665614855,9,6,2,9,8,12,1,3
1522606665614855,-7,-6,-2,-1,-4,4,1,4
1522606665635914,-5,0,1,-4,-7,1,0,2
1522606665635914,12,3,-3,20,2,-9,2,2
1522606665637916,-10,3,4,1,-48,-1,-8,-4
1522606665637916,22,2,3,14,72,5,-1,-1
1522606665649948,1,-5,-1,-13,-3,-18,-12,-1
1522606665649948,-5,-1,0,17,6,-6,2,-8
1522606665658972,-57,-5,-3,-11,-29,1,14,2
1522606665658972,12,-3,-6,-33,14,16,-19,-5
1522606665673010,23,1,3,2,-8,3,-13,3
1522606665673010,0,-4,-4,4,16,-13,0,7
1522606665679026,-4,0,0,-6,-38,-2,1,1
1522606665679026,-3,4,7,10,-23,20,19,0
1522606665696071,-9,-1,-2,-9,10,16,13,-6
1522606665696071,15,5,0,6,2,-17,-11,2
1522606665697074,-1,-3,-5,-1,16,11,4,-2
1522606665697074,-8,5,3,6,5,-6,3,3
1522606665709106,-15,-9,-7,-14,-19,-11,-10,-12
1522606665709106,12,3,3,-10,-6,17,-3,-2
1522606665718129,10,4,9,31,25,1,3,2
1522606665718129,2,1,-5,11,10,5,20,7
1522606665733170,-19,0,6,15,3,-2,-14,-6
1522606665733170,3,-10,-6,-30,-26,1,2,-2
1522606665739186,22,8,-3,-12,13,11,-5,8
1522606665739186,10,-7,2,-5,-24,-11,-1,9
1522606665756231,-11,5,-3,27,26,-33,-20,-8
1522606665756231,-30,1,2,-6,7,8,2,3
1522606665757234,19,-7,2,-8,-10,-4,10,-2
1522606665757234,-23,2,-1,7,0,13,-29,-11
1522606665778290,20,-4,1,2,-6,-23,3,13
1522606665778290,-33,0,3,-9,-59,-12,11,-7
1522606665780295,8,0,-4,21,67,9,-14,1
1522606665780295,10,0,-6,-20,-30,-13,4,-1
1522606665792327,-4,-4,-3,-11,-5,21,11,4
1522606665792327,9,10,7,-19,-26,2,14,-3
1522606665799346,-17,-12,0,26,7,-32,-15,-8
1522606665799346,-15,-1,2,1,-7,0,3,-3
1522606665815388,21,6,0,5,-11,18,14,4
1522606665815388,1,-7,-11,5,31,-5,0,6
1522606665817394,2,-1,5,-30,-15,10,-7,-10
1522606665817394,-19,-5,-2,15,27,-22,-4,-7
1522606665838450,-18,-6,-4,0,-17,1,8,2
1522606665838450,20,8,4,-1,6,17,2,0
1522606665840455,-8,-3,-10,-20,3,13,-10,-1
1522606665840455,0,-6,-1,5,8,-11,5,-2
1522606665852487,8,1,1,-9,-7,8,5,1
1522606665852487,-1,-6,-1,2,10,-1,-9,1
1522606665859506,1,-1,-3,16,-24,10,6,0
1522606665859506,5,4,4,3,-4,24,19,-1
1522606665875548,9,-1,0,-11,-3,-1,-10,0
1522606665875548,26,2,-5,6,28,-9,-14,10
1522606665877554,-19,0,10,2,-8,7,5,-3
1522606665877554,-13,1,-6,-14,-15,-20,-8,-5
1522606665898609,11,-4,5,9,9,6,8,5
1522606665898609,2,-1,-1,-9,-12,-9,-4,1
1522606665899612,-1,5,-5,-3,-7,-3,-23,-14
1522606665899612,-4,-5,0,6,0,6,-2,1
1522606665912647,4,-4,-6,0,14,5,2,0
1522606665912647,-14,0,1,1,-6,3,3,3
1522606665919665,28,3,-3,-60,-7,7,6,12
1522606665919665,-15,-4,5,70,16,-7,1,-3
1522606665935708,-15,-1,-5,-1,1,-9,-15,1
1522606665935708,-15,-14,-6,9,-17,1,-6,-17
1522606665937714,4,9,11,1,10,8,2,0
1522606665937714,55,1,-3,-41,-11,-11,-9,3
1522606665958769,-26,6,2,18,10,39,7,1
1522606665958769,-23,-6,-2,7,4,-14,2,-8
1522606665959773,5,-1,-10,7,8,6,13,13
1522606665959773,7,5,1,-16,-12,-2,1,8
1522606665972807,20,-3,-6,-7,-5,3,-5,-13
1522606665972807,-1,0,4,2,27,16,-1,-12
1522606665979825,-15,2,1,13,-12,-29,-8,-9
1522606665979825,-2,3,3,-5,-12,14,-1,-6
1522606665995869,-6,4,-1,-10,7,-1,13,-4
1522606665995869,7,1,-2,5,7,4,-8,5
1522606665997874,5,-5,-5,6,6,-15,-3,5
1522606665997874,-6,-5,2,-3,-12,-3,-2,1
1522606666017927,-3,-4,-4,-3,2,29,5,7
1522606666017927,-14,7,1,7,-1,-6,-12,2
1522606666019932,2,0,6,7,5,-3,-10,-14
1522606666019932,-16,-11,-8,-11,-2,-1,-7,-15
1522606666031964,-2,-5,0,-1,-7,-11,6,-3
1522606666031964,24,15,3,0,0,6,10,18
1522606666040988,-24,-3,3,-1,2,2,1,-5
1522606666040988,6,-1,-3,-7,-3,3,-1,8
1522606666056028,6,-3,2,19,0,-13,0,6
1522606666056028,-8,-9,-7,-4,0,-5,-2,-21
1522606666057031,2,1,-6,0,-11,-13,0,7
1522606666057031,-5,-2,1,2,12,-1,3,3
1522606666078087,9,-1,-2,-5,-13,-10,-6,0
1522606666078087,-1,2,-1,-6,-1,7,9,5
1522606666080092,-4,-4,0,14,-5,33,-5,-2
1522606666080092,-2,0,-5,-3,6,19,-7,6
1522606666092124,3,3,2,-1,0,-10,3,0
1522606666092124,15,3,2,0,-12,15,-7,-8
1522606666101148,-5,-4,-2,-3,-4,-6,3,2
1522606666101148,2,1,-2,5,23,-6,11,5
1522606666116188,-8,-2,1,-5,-15,-10,-10,-6
1522606666116188,-9,-1,1,1,4,-5,3,-9
1522606666117191,7,1,-8,-3,1,19,2,-4
1522606666117191,3,-2,1,-4,-6,-24,4,2
1522606666138247,-3,0,0,-10,0,-9,-10,-10
1522606666138247,-13,0,1,6,1,-6,1,2
1522606666140253,-5,-11,-6,-11,1,-3,-2,-8
1522606666140253,9,3,2,17,3,14,10,0
1522606666152284,-24,0,-4,-2,0,1,2,-3
1522606666152284,2,-7,-8,-19,-10,16,-6,3
1522606666161308,12,5,3,14,-1,-24,6,7
1522606666161308,5,-1,0,-6,-2,10,-5,0
1522606666175346,-16,-1,-4,-1,4,-15,11,-7
1522606666175346,-7,-3,-1,1,-14,-2,-13,-8
1522606666177351,4,0,3,-4,0,-15,-2,1
1522606666177351,-4,-4,-4,-21,-17,-2,0,14
1522606666198407,-6,-5,-1,32,17,23,-3,-6
1522606666198407,-1,3,-3,0,-4,-63,-28,-12
1522606666200413,7,2,2,4,4,6,5,3
1522606666200413,-19,-4,3,-2,-13,-11,-4,0
1522606666212444,11,0,-4,-10,-6,-13,-2,2
1522606666212444,2,-13,-6,-5,6,7,7,-6
1522606666221468,3,11,3,-2,-5,-12,-7,0
1522606666221468,5,-7,-8,-19,-4,-40,10,-6
1522606666235506,-31,-1,-6,8,0,9,0,-5
1522606666235506,9,3,7,8,12,1,5,7
1522606666237511,17,-2,1,1,-7,4,2,7
1522606666237511,-6,-1,-4,-6,-1,18,-14,-5
1522606666258567,2,-1,-1,-5,-2,-52,-25,-2
1522606666258567,0,-1,-2,1,0,5,15,5
1522606666259570,-5,-6,-1,-7,27,-9,-15,-5
1522606666259570,-2,-2,-2,9,-4,-4,-1,-3
1522606666271601,34,5,0,4,-8,6,9,8
1522606666271601,-27,0,3,5,3,9,7,7
1522606666280625,3,0,-2,-10,-9,-14,-25,-9
1522606666280625,16,-3,1,1,-2,23,-3,0
1522606666295666,-29,-2,-2,-19,-8,3,1,-10
1522606666295666,-9,-7,0,21,24,-42,-5,-8
1522606666297671,-1,-1,-3,-1,-13,-2,10,4
1522606666297671,18,-1,1,1,-8,8,-4,6
1522606666318727,-8,5,2,1,19,15,-1,-2
1522606666318727,0,0,-2,-13,-12,3,11,7
1522606666319729,-15,-6,-1,-1,-1,-9,2,0
1522606666319729,1,0,-1,8,7,1,-4,-2
1522606666331761,11,-4,-6,-28,-14,-8,11,4
1522606666331761,11,6,-1,20,10,24,-12,-1
1522606666340785,-19,-8,0,10,8,3,2,-4
1522606666340785,-11,-2,-5,-19,-9,3,-8,-10
1522606666355826,8,4,6,22,-4,10,10,4
1522606666355826,2,2,-3,-19,7,-3,7,6
1522606666357831,8,-1,-3,-8,-48,-28,-7,2
1522606666357831,-27,-6,-2,17,39,-5,-4,-11
1522606666377884,9,-3,-6,-12,-3,7,6,4
1522606666377884,6,4,4,0,-7,7,0,-7
1522606666379890,8,-2,-2,-5,-8,-19,-17,-4
1522606666379890,-20,0,0,-5,-8,-4,1,-7
1522606666391921,11,2,-1,4,6,-9,4,-1
1522606666391921,5,-4,-5,-19,-6,-12,-37,2
1522606666400945,0,4,8,0,-13,22,-13,-2
1522606666400945,46,3,-7,-12,-23,-19,1,4
1522606666415986,-23,4,14,83,55,15,2,0
1522606666415986,-41,-9,-5,-17,-8,6,9,-5
1522606666416988,1,-5,-6,15,-33,-8,6,1
1522606666416988,15,0,-4,0,24,-15,-9,2
1522606666438044,14,5,1,-15,-15,5,2,7
1522606666438044,-10,-5,-5,11,-3,-3,15,-10
1522606666440050,-15,-2,0,7,-1,7,-27,-6
1522606666440050,-5,2,2,4,-7,11,-1,1
1522606666452081,54,3,0,-8,1,1,-2,4
1522606666452081,-19,4,1,-6,-24,-5,-5,0
1522606666461106,-10,-5,-7,-15,4,-6,17,-1
1522606666461106,-11,-3,3,7,-14,13,2,-5
1522606666476146,8,-1,0,-37,-20,-21,-25,-8
1522606666476146,16,5,5,35,38,20,13,11
1522606666477148,10,3,-4,-7,20,10,12,1
1522606666477148,-44,-6,-4,18,-5,-20,2,-10
1522606666498204,-21,-3,0,-7,-10,2,-1,-8
1522606666498204,18,-2,2,-13,-15,-1,3,1
1522606666500210,11,0,-5,-6,10,5,-1,2
1522606666500210,-15,3,-2,-5,15,-25,-17,6
1522606666512241,-24,-9,-2,-9,7,8,-1,-8
1522606666512241,2,0,-1,-1,11,4,-2,0
1522606666521265,26,0,-3,-1,11,2,10,1
1522606666521265,-20,-3,3,-9,-17,7,2,8
1522606666536306,3,-4,-7,-1,-7,0,2,-3
1522606666536306,-6,1,4,-8,-32,-26,-3,-2
1522606666537308,1,-1,4,-4,10,7,7,10
1522606666537308,6,-3,-5,-25,14,27,3,-6
1522606666558364,30,8,2,27,14,15,9,1
1522606666558364,-9,1,-4,7,-4,-8,-1,-8
1522606666560370,-27,-7,-1,7,1,-9,2,-4
1522606666560370,-3,-1,-2,-1,-40,-2,2,6
1522606666572401,-16,0,7,-7,-12,-19,-2,-3
1522606666572401,38,0,-12,-63,-19,24,15,7
1522606666581426,1,3,8,62,-29,-14,0,10
1522606666581426,-45,-11,1,36,73,4,35,-14
1522606666595463,0,-3,-7,-17,-16,-19,-41,-1
1522606666595463,7,-6,1,-10,-5,13,-3,1
1522606666602482,7,-2,-8,-26,3,17,9,2
1522606666602482,17,3,9,3,-23,-4,-1,-9
1522606666618524,11,6,-1,25,7,-2,3,15
1522606666618524,-35,-6,-1,1,-23,-24,-4,-14
1522606666619527,-4,-7,-4,-24,22,-3,-2,-7
1522606666619527,14,4,-4,-5,-9,5,-18,7
1522606666631559,13,-3,-2,-19,14,14,20,-3
1522606666631559,10,4,0,20,-10,-6,4,5
1522606666640583,-12,-7,-5,-25,-26,-17,9,-2
1522606666640583,-7,-1,4,-13,28,10,-6,2
1522606666655623,-9,-3,-7,8,12,-6,6,3
1522606666655623,6,4,1,4,7,6,-5,18
1522606666661639,-3,-2,2,12,11,32,2,-11
1522606666661639,18,2,-2,-24,-37,-18,1,5
1522606666678684,-14,1,3,-2,3,2,-7,-1
1522606666678684,-25,-11,-6,23,20,12,-4,-12
1522606666679688,4,5,-1,0,-18,-4,-1,-6
1522606666679688,24,10,4,1,-17,-5,-11,8
1522606666700743,1,-6,-2,-6,11,20,9,2
1522606666700743,4,3,1,8,15,12,1,3
1522606666702748,-8,4,3,-9,3,-11,-8,-9
1522606666702748,-4,-6,-4,8,4,-2,1,-7
1522606666714780,-2,-2,-4,-2,-4,-6,6,2
1522606666714780,4,-1,1,-11,2,-6,-2,-3
1522606666721799,4,-2,-3,1,-1,-2,-5,0
1522606666721799,9,-1,-5,-5,2,3,-2,-7
1522606666738844,-19,0,-1,-2,-9,5,-4,-2
1522606666738844,5,-3,0,2,3,-3,-4,8
1522606666739847,-14,2,-2,-2,8,-2,-1,-6
1522606666739847,3,0,2,10,2,5,1,-1
1522606666760903,1,1,0,-5,-12,-1,8,-2
1522606666760903,12,-3,-6,-2,4,-7,-6,5
1522606666762908,1,2,8,5,21,-1,2,4
1522606666762908,-5,0,-3,-4,2,-1,-9,-7
1522606666774940,7,6,5,-3,9,5,1,2
1522606666774940,15,10,8,0,2,-8,5,6
1522606666781959,-20,-5,-7,1,15,4,-7,-15
1522606666781959,-7,-8,-5,-5,7,-6,-10,-10
1522606666798001,-7,-7,-5,-1,-19,-6,0,-1
1522606666798001,3,2,1,5,4,3,-4,-2
1522606666800007,14,4,1,-24,6,2,12,10
1522606666800007,5,5,5,3,-14,2,-4,-4
1522606666821063,-13,-5,-4,22,-2,-2,-2,-7
1522606666821063,14,-6,-4,-2,-1,1,5,6
1522606666822065,-7,1,-5,-12,-7,-7,3,2
1522606666822065,-8,-1,4,-3,-1,-5,-1,1
1522606666835100,12,7,-5,-14,-2,4,-5,5
1522606666835100,-20,-1,6,6,2,-3,3,-18
1522606666842119,14,-3,-2,9,-13,-3,-4,12
1522606666842119,-8,-2,0,0,31,11,6,-2
1522606666858161,2,-3,-2,5,6,-1,4,-8
1522606666858161,-13,-5,-5,-14,-1,36,-10,-4
1522606666860167,-1,-5,-10,-29,-31,-13,-10,-6
1522606666860167,18,9,7,70,12,6,3,8
1522606666881223,0,6,7,-11,0,-6,4,3
1522606666881223,7,0,-1,-6,-8,9,-1,-2
1522606666882225,-14,-8,-4,-2,-18,2,-5,-15
1522606666882225,-17,-2,-3,8,4,-1,-7,-4
1522606666895260,12,0,-1,17,6,10,12,3
1522606666895260,5,5,0,10,-17,-16,-5,8
1522606666902278,13,1,-1,-39,54,24,-5,7
1522606666902278,12,0,9,61,41,-43,35,0
1522606666918321,-23,-2,-1,-5,1,1,-13,-3
1522606666918321,-2,0,-2,-13,-11,-21,-6,7
1522606666920327,2,-2,-2,-9,6,5,3,6
1522606666920327,17,2,-6,-41,-33,11,0,2
1522606666940380,4,-2,-4,-30,-9,-9,4,2
1522606666940380,-7,-4,-6,32,16,-4,0,0
1522606666942386,-8,5,18,38,-1,-1,3,-4
1522606666942386,3,-2,-4,-32,-4,6,-5,1
1522606666954417,6,-4,-5,-12,-12,-10,3,-1
1522606666954417,-29,-6,-3,-25,2,-1,-15,-11
1522606666963442,15,4,-1,52,-7,-6,0,5
1522606666963442,-8,-2,-2,-21,-8,-1,-5,-2
1522606666978481,-10,-4,-2,-25,-7,0,-15,1
1522606666978481,7,3,3,2,3,9,12,-10
1522606666979484,-4,-3,1,-1,7,-1,6,-5
1522606666979484,5,-5,-6,-30,-24,5,-7,-6
1522606667000540,-3,-5,-2,51,38,4,2,15
1522606667000540,-5,-1,2,-10,6,0,2,-15
1522606667002545,-2,2,1,25,-12,-22,-17,-7
1522606667002545,-4,-2,-6,-19,-23,-30,-4,4
1522606667014577,-8,1,-1,-6,4,6,-1,8
1522606667014577,18,3,-2,8,-31,-2,8,2
1522606667023602,-13,-1,2,-18,18,-5,8,-4
1522606667023602,13,-2,0,30,-21,27,3,3
1522606667038641,-30,-9,-8,-22,29,32,-31,-9
1522606667038641,-7,2,7,20,14,0,-28,1
1522606667039644,-2,4,-3,-11,-22,15,0,4
1522606667039644,10,-3,0,-2,-23,-13,-3,1
1522606667060700,39,1,-2,8,8,-12,4,-5
1522606667060700,-27,-3,-4,-10,1,14,13,2
1522606667062705,8,0,1,-4,9,-10,1,-2
1522606667062705,-7,0,-2,-10,-14,-9,-9,0
1522606667074737,-6,2,-4,-33,-47,27,17,-11
1522606667074737,23,-2,-5,29,4,-27,9,4
1522606667083762,-41,-7,5,13,33,0,-4,1
1522606667083762,-3,-1,-3,6,8,20,10,8
1522606667098801,11,4,6,-2,12,12,8,-10
1522606667098801,15,0,-3,-1,-39,-31,-11,2
1522606667099804,-27,0,-5,-8,-5,4,-1,-1
1522606667099804,-18,-4,-3,1,10,4,-4,-5
1522606667120860,-6,-6,-3,-1,13,-35,-16,-6
1522606667120860,13,4,-1,0,-1,3,1,5
1522606667122865,30,3,-6,-4,-7,1,4,-1
1522606667122865,-19,-2,2,0,-4,6,-16,-5
1522606667134897,-18,-2,0,8,-21,-20,-2,4
1522606667134897,1,-1,0,-14,10,8,7,0
1522606667143922,16,1,-2,3,2,-1,2,3
1522606667143922,-3,1,-2,-7,11,-2,1,-3
1522606667157958,4,-2,-1,-28,-34,-10,-3,-3
1522606667157958,3,2,4,30,25,7,1,2
1522606667159964,4,-3,-3,-1,-3,7,-1,0
1522606667159964,-18,-2,0,-21,-10,-7,0,-2
1522606667181020,-10,-6,-7,-25,-17,-11,-4,-2
1522606667181020,-11,3,9,51,82,8,-2,0
1522606667182023,12,0,0,6,-4,-4,-3,-1
1522606667182023,1,0,-6,-5,5,7,8,7
1522606667194055,9,8,9,15,-20,-7,1,-9
1522606667194055,18,-8,-10,-36,-25,5,1,0
1522606667203079,-50,-4,3,-3,-9,1,-3,-5
1522606667203079,-3,-3,4,9,35,-8,2,-15
1522606667218118,-5,-4,-4,8,1,0,4,-1
1522606667218118,8,2,0,-8,-11,-8,1,0
1522606667220124,17,0,-3,-3,8,11,0,4
1522606667220124,4,-1,0,-8,-17,10,4,-1
1522606667241180,-13,1,-1,6,-1,-1,0,-1
1522606667241180,3,0,-1,-12,19,-14,-1,8
1522606667242183,-8,-13,-9,4,-24,-3,-6,-9
1522606667242183,2,1,6,-6,35,-22,-29,-12
1522606667254214,18,1,2,29,15,5,14,9
1522606667254214,11,3,-3,-16,9,19,0,4
1522606667263239,-42,-4,-5,-14,-8,-17,-3,-11
1522606667263239,9,1,-2,8,-25,-4,-1,4
1522606667278278,4,-2,1,-6,21,3,-8,-14
1522606667278278,-8,8,-3,-13,-17,-19,1,13
1522606667280284,47,-1,0,-8,21,9,-1,4
1522606667280284,-41,-4,6,17,-8,14,8,-10
1522606667301340,9,0,-3,-11,-25,25,5,10
1522606667301340,-15,0,-2,-5,19,-6,43,-7
1522606667302343,38,6,1,11,7,-22,-28,12
1522606667302343,11,-6,-4,-23,-3,-6,-2,-5
1522606667314374,-24,-2,-4,32,-2,-21,-15,3
1522606667314374,-8,-6,-1,-29,-15,24,8,-11
1522606667323399,7,1,0,-3,-10,3,7,12
1522606667323399,7,-1,-5,-16,30,-4,13,16
1522606667338439,10,5,3,20,11,6,1,-7
1522606667338439,-7,-3,-2,-3,-24,10,-22,-12
1522606667340444,2,1,0,2,3,-19,2,-15
1522606667340444,13,2,3,2,-18,6,-2,15
1522606667360497,-36,-14,-10,-11,0,-2,1,-12
1522606667360497,-6,4,8,2,-12,-7,-4,15
1522606667362502,-9,-1,3,16,-21,14,-6,-11
1522606667362502,10,-1,-8,-4,2,-5,-10,-2
1522606667374534,27,0,4,-2,-2,-9,-3,10
1522606667374534,-27,-3,-4,6,-4,-1,-15,-10
1522606667383559,-4,-4,-6,-15,6,0,9,-1
1522606667383559,2,6,-1,3,-18,-2,8,4
1522606667398599,8,1,1,6,10,-7,1,5
1522606667398599,0,-1,4,11,17,0,-11,-8
1522606667399601,0,-4,-3,-6,-16,10,8,1
1522606667399601,20,2,3,9,6,7,4,-9
1522606667420657,-25,8,5,-2,-24,-1,-7,-11
1522606667420657,12,-10,-4,-9,4,-9,5,0
1522606667422662,-20,-9,-4,-4,10,-8,-2,-8
1522606667422662,3,-1,-5,-3,9,6,-2,4
1522606667434695,12,2,-1,-8,-8,-3,0,11
1522606667434695,3,3,3,12,4,34,-4,-5
1522606667443719,0,3,4,8,9,-8,7,7
1522606667443719,-4,-2,-4,-3,-10,1,-2,-1
1522606667458758,3,-1,-2,-6,-1,-24,5,-9
1522606667458758,-10,-4,-6,-8,-14,-5,-10,5
1522606667459762,9,6,2,0,-3,9,3,7
1522606667459762,-7,2,1,6,6,-3,-2,1
1522606667480817,-12,1,2,0,-4,0,-13,-6
1522606667480817,13,-1,-2,-1,-9,-12,8,10
1522606667482823,0,5,-2,-3,-2,-4,2,5
1522606667482823,0,-4,0,1,-4,-4,-6,-14
1522606667494855,-6,-1,-4,-5,-3,8,-2,-2
1522606667494855,11,6,4,-1,-6,-8,2,2
1522606667503879,-23,-3,-3,-3,-12,-2,-12,-6
1522606667503879,-18,-6,-3,4,26,11,2,-2
1522606667517916,5,-4,-3,4,-4,5,1,5
1522606667517916,-1,-4,-3,-6,-12,-12,0,-5
1522606667519921,17,10,2,1,5,23,3,-3
1522606667519921,14,-2,6,0,-10,-41,11,5
1522606667540977,-31,-4,-2,-4,8,2,4,-5
1522606667540977,-2,-2,-2,-11,-3,-6,-17,0
1522606667542983,16,-4,-5,8,-2,5,-2,11
1522606667542983,-7,2,-2,-3,-8,-28,-11,-14
1522606667554012,9,3,2,9,6,8,11,4
1522606667554012,-3,3,-2,-4,1,-10,-7,-5
1522606667563036,4,-4,4,7,13,5,7,0
1522606667563036,4,-1,-1,7,2,21,1,6
1522606667578076,5,-4,-5,-18,-7,-14,-11,-12
1522606667578076,8,9,2,16,-18,-4,0,0
1522606667584092,-5,2,2,-1,-2,-8,-3,-3
1522606667584092,-20,-4,-2,-3,2,7,3,-2
1522606667601137,-3,-8,-4,0,7,7,4,-3
1522606667601137,-6,-5,-4,-4,2,7,-6,-3
1522606667602140,18,1,-5,-18,-9,-10,-2,5
1522606667602140,-9,1,-2,1,-22,48,12,5
1522606667623196,-11,-1,5,21,34,-47,-8,-4
1522606667623196,-1,-6,0,1,8,1,-2,-10
1522606667625201,-12,-3,-1,1,-5,-7,13,0
1522606667625201,24,2,-5,-16,-8,-23,-6,3
1522606667637233,6,-2,-1,-8,-3,23,2,4
1522606667637233,-4,0,-2,3,-5,4,-3,-4
1522606667644252,-9,1,5,0,12,4,-7,-4
1522606667644252,-18,-8,-4,-12,-14,-20,-8,-12
1522606667661297,24,4,3,9,1,3,-7,-5
1522606667661297,-2,-2,-1,-2,-3,-7,9,2
1522606667662300,-11,-5,-4,-3,-3,-2,-1,-5
1522606667662300,6,2,0,8,-1,5,2,7
1522606667683356,8,3,2,-3,-7,2,1,8
1522606667683356,-15,-2,-6,-35,1,-3,1,-6
1522606667685361,-11,-4,-1,30,-11,-56,-14,-6
1522606667685361,-3,0,6,19,17,0,3,-2
1522606667697393,3,0,-5,-3,0,12,-4,5
1522606667697393,-15,-3,3,-10,-8,4,5,1
1522606667704412,23,1,1,-12,-6,6,-6,-1
1522606667704412,-22,-1,-4,-11,30,-7,-4,-2
1522606667720455,4,-1,-3,0,-8,-25,-4,4
1522606667720455,12,-2,0,11,7,6,12,4
1522606667722460,-19,-3,-3,-7,2,15,-2,-7
1522606667722460,24,0,-2,-3,-4,-1,-15,3
1522606667743516,-4,2,1,-8,3,-10,-3,-3
1522606667743516,-31,-4,-3,4,7,5,0,-2
1522606667744519,4,2,1,7,2,-1,3,1
1522606667744519,50,1,-2,-17,-61,8,52,15
1522606667757553,-72,-8,0,-8,35,12,-9,-15
1522606667757553,10,3,2,31,-11,-4,-6,1
1522606667764572,-11,-1,-2,-6,-8,7,2,-1
1522606667764572,17,5,-1,-11,-51,-31,-13,-5
1522606667780615,29,4,-1,-4,31,11,12,10
1522606667780615,-7,-1,-1,11,-19,-38,-23,1
1522606667782620,0,-7,-2,-6,2,8,-1,-3
1522606667782620,9,4,1,11,27,9,-7,-5
1522606667803676,8,-3,-1,0,-29,5,10,4
1522606667803676,-12,-3,-3,-9,7,8,-1,-1
1522606667804679,-3,2,2,-2,6,25,14,-4
1522606667804679,-17,0,0,3,3,-10,-12,-16
1522606667817713,-4,-3,-3,5,-10,-1,-4,-1
1522606667817713,23,-1,0,-5,15,8,8,-2
1522606667824732,16,2,0,-3,1,9,5,4
1522606667824732,-61,-7,-2,2,27,-2,-7,2
1522606667840775,-11,0,-1,-12,-40,14,1,-4
1522606667840775,4,0,2,6,4,-10,-1,-4
1522606667842780,3,-2,-1,-13,-20,-7,-2,2
1522606667842780,10,-1,-5,15,53,14,-8,-3
1522606667863836,24,4,4,6,-12,-2,2,14
1522606667863836,-21,-1,-1,-15,-20,-3,-6,-4
1522606667864839,1,-4,-7,-2,26,5,-5,-5
1522606667864839,-13,-1,2,-4,9,5,10,1
1522606667876871,-2,-2,-3,-12,5,-4,5,-5
1522606667876871,25,4,-1,0,11,51,56,9
1522606667885895,9,-1,0,12,-4,-34,-28,6
1522606667885895,-74,-10,-5,-4,-14,9,-10,-14
1522606667900935,19,-5,-1,15,-21,-5,2,3
1522606667900935,-21,0,0,-18,14,10,4,-6
1522606667902940,23,4,-1,0,-22,16,10,10
1522606667902940,29,-4,2,14,5,-38,-12,-1
1522606667922993,-19,1,1,8,11,8,-4,0
1522606667922993,-14,-8,-12,-18,-10,-18,-23,-12
1522606667924999,5,5,3,-2,-27,0,2,-2
1522606667924999,7,1,11,12,17,9,-2,4
1522606667937031,-4,3,-6,-24,-28,1,6,7
1522606667937031,13,-7,4,23,24,1,-6,0
1522606667946055,4,7,-7,-10,13,9,9,4
1522606667946055,2,-2,2,-3,-21,-2,7,-3
1522606667961094,2,-4,2,8,4,-5,-3,-1
1522606667961094,-3,8,-1,-5,-19,-4,-6,5
1522606667962097,-3,-9,-1,4,8,-2,6,-4
1522606667962097,25,5,-4,-26,-34,2,0,8
1522606667983658,-13,-6,-1,14,52,3,4,-9
1522606667983658,-5,1,-2,-3,3,10,-4,1
1522606667984660,-13,-2,2,8,2,-9,-1,-4
1522606667984660,2,-2,-2,-3,14,19,0,2
1522606667996692,2,-1,-5,-10,-6,-10,-2,0
1522606667996692,29,4,2,0,-11,12,-7,-4
1522606668005716,-16,-3,-6,6,-4,8,8,-6
1522606668005716,-6,2,1,-5,-17,-8,6,8
1522606668020756,1,4,4,13,8,1,2,3
1522606668020756,0,-1,-3,0,7,2,-3,6
1522606668022762,2,2,5,-10,-1,-2,-12,1
1522606668022762,-20,-7,-4,-3,2,-4,-6,-9
1522606668043817,22,-2,-1,13,-13,1,1,4
1522606668043817,-1,1,0,-1,-5,-8,6,16
1522606668044820,-29,-8,-2,1,4,-12,-8,-5
1522606668044820,9,2,-1,7,1,2,14,0
1522606668056852,8,3,1,-15,-9,-11,-11,-4
1522606668056852,6,1,1,13,4,1,6,6
1522606668065876,-17,-5,-5,-3,6,-2,8,-13
1522606668065876,1,-1,-6,-4,-12,-9,-12,0
1522606668080916,1,0,-2,-5,-5,-40,-6,0
1522606668080916,14,-4,-1,-3,-6,-23,-7,-3
1522606668082922,-3,1,4,-1,14,7,5,5
1522606668082922,-10,-2,-2,2,-6,7,-5,-7
1522606668102975,0,-1,-7,-3,-3,10,0,-11
1522606668102975,-19,-6,3,5,24,5,1,-1
1522606668104980,17,3,0,-6,-17,-47,-11,16
1522606668104980,-7,-4,-4,-4,-6,6,-5,-3
1522606668117012,-5,2,3,-5,3,8,-4,-7
1522606668117012,-8,-4,-1,5,-1,3,1,0
1522606668126037,6,0,-2,-1,4,12,-6,-6
1522606668126037,14,1,-2,7,12,-1,5,11
1522606668141076,2,-2,-5,-8,-6,1,2,4
1522606668141076,1,9,7,-3,-1,-10,-21,-12
1522606668142079,7,6,3,0,3,4,-2,-3
1522606668142079,8,-3,-1,-1,-6,-1,5,5
1522606668163135,-11,-9,-8,-1,-2,7,-4,-7
1522606668163135,-8,-4,-5,-6,-12,-10,6,1
1522606668165140,-1,-2,1,3,7,1,2,-6
1522606668165140,18,-2,-1,2,3,2,-6,16
1522606668177172,-9,-3,0,2,12,6,3,-2
1522606668177172,-17,0,0,0,-10,-6,-5,-15
1522606668186196,-5,1,1,0,-3,3,-3,-10
1522606668186196,1,0,-1,-1,10,14,7,1
1522606668201236,13,1,0,-4,-4,2,0,4
1522606668201236,9,1,-3,6,1,0,5,2
1522606668202239,-13,1,5,-8,-2,45,10,-2
1522606668202239,-2,0,0,9,3,11,-6,-3
1522606668223295,16,4,0,-4,2,-31,-5,8
1522606668223295,19,-3,-6,-6,-10,-10,0,-6
1522606668225300,-44,-7,-8,-7,0,3,-4,-5
1522606668225300,-7,-4,2,4,12,2,-8,-22
1522606668237332,-3,-3,3,-6,-32,-19,6,4
1522606668237332,4,0,1,10,17,10,7,5
1522606668246356,29,3,-3,-5,-6,-26,-7,12
1522606668246356,-9,1,0,-7,12,46,-16,-7
1522606668261396,-6,1,2,32,3,-5,9,-2
1522606668261396,6,2,-4,-8,-10,-12,0,8
1522606668262399,2,-3,-1,0,0,-6,-8,-6
1522606668262399,-6,1,1,-9,-5,-11,7,1
1522606668283455,5,1,-1,-8,8,22,2,3
1522606668283455,-8,-3,-2,-2,-4,-3,-1,5
1522606668285460,5,-2,-4,-7,-12,-41,-13,1
1522606668285460,-1,-3,-3,9,-8,-14,12,-4
1522606668297492,-3,-2,-2,-10,-6,0,-5,-4
1522606668297492,-25,-3,1,12,-4,-6,-3,-6
1522606668305513,7,-3,-3,5,6,27,-4,-5
1522606668305513,21,1,-1,-5,-1,-17,-1,3
1522606668320553,-11,6,6,0,11,24,1,-3
1522606668320553,-8,-4,-2,12,6,9,1,2
1522606668322559,-1,1,2,-2,5,20,4,-1
1522606668322559,6,2,0,13,-4,-11,-5,2
1522606668343615,-1,-2,-6,-7,-4,16,-2,3
1522606668343615,-2,-9,-6,-40,-20,-9,4,-16
1522606668344617,1,1,7,55,27,9,-25,-2
1522606668344617,-3,4,1,2,7,-23,0,3
1522606668356655,-3,-7,-2,-5,-13,24,-5,-2
1522606668356655,2,3,2,-3,12,-16,-3,-12
1522606668365673,-15,-9,-6,-29,-24,-15,18,-3
1522606668365673,-5,3,0,18,11,-31,-15,-2
1522606668379711,7,-2,-2,7,19,8,2,-6
1522606668379711,8,4,8,-2,2,26,-1,5
1522606668386729,10,-1,-3,-17,-13,-14,8,12
1522606668386729,2,-2,-6,-54,-12,19,1,0
1522606668403775,10,0,2,35,10,-13,20,1
1522606668403775,-4,-1,2,10,-14,0,-9,7
1522606668404777,-8,1,-2,-1,9,1,8,-1
1522606668404777,5,-4,-7,-33,-26,-13,-6,10
1522606668416809,24,5,6,10,-1,7,1,4
1522606668416809,-26,1,1,1,4,12,7,6
1522606668425834,1,-8,-2,-29,-24,0,-6,-24
1522606668425834,16,11,4,45,13,2,11,14
1522606668440873,-31,-13,-6,-16,-7,-14,-8,-8
1522606668440873,11,3,-2,5,-24,-5,-5,-4
1522606668442879,32,9,5,11,19,1,5,15
1522606668442879,-28,-10,-3,-5,14,13,3,-14
1522606668462932,-22,-6,-7,-9,-1,-14,-9,-19
1522606668462932,-1,-1,3,-5,-9,-2,2,-5
1522606668464937,-12,1,-7,-12,-15,-33,-21,1
1522606668464937,31,-2,5,13,-5,16,4,-4
1522606668476970,-14,8,4,-15,6,-18,5,5
1522606668476970,-6,-9,-13,-5,-12,5,-3,-4
1522606668485994,3,3,4,15,34,15,4,-3
1522606668485994,-8,-3,0,5,2,-6,-8,1
1522606668500031,3,3,-6,-23,-24,-6,-1,0
1522606668500031,20,5,4,-19,-36,-32,-15,-4
1522606668507049,4,-7,0,39,27,13,19,9
1522606668507049,-14,-3,0,-7,-37,-1,-19,-16
1522606668523092,38,0,-2,-16,11,2,-8,10
1522606668523092,-28,1,-6,43,38,-20,-21,-3
1522606668525097,15,6,7,-10,-7,27,-1,8
1522606668525097,-29,-6,-3,-15,-23,-33,14,1
1522606668537129,-4,-5,-1,18,-19,-17,-35,-13
1522606668537129,27,1,1,-16,39,19,-9,6
1522606668546154,-8,-3,-1,7,-35,1,7,-2
1522606668546154,17,7,1,6,8,2,-2,5
1522606668560191,-13,-2,-3,-28,-10,1,10,-1
1522606668560191,4,-5,-3,34,-7,17,9,-2
1522606668567209,3,2,2,0,-28,-16,-4,-1
1522606668567209,6,2,2,-14,44,22,34,5
1522606668583252,14,4,0,9,-2,2,-1,-5
1522606668583252,-25,-6,-4,-19,1,-10,9,-6
1522606668585257,6,1,-8,-13,-4,-33,-33,-1
1522606668585257,1,0,8,12,-41,4,0,0
1522606668606313,-12,1,3,-15,2,16,18,5
1522606668606313,12,-2,1,27,15,7,24,8
1522606668607316,-27,-7,-9,-6,4,6,14,-7
1522606668607316,4,1,0,-6,3,-9,-8,-1
1522606668619348,8,4,-1,14,6,-1,9,0
1522606668619348,12,3,2,-22,-27,-6,-24,4
1522606668628372,-11,-6,-3,-7,-14,-9,-1,-4
1522606668628372,1,-5,-7,-14,5,-8,-32,-12
1522606668643412,-6,-6,0,29,8,13,15,5
1522606668643412,-13,-1,-7,-7,10,5,7,-1
1522606668645417,9,8,4,-44,-26,-31,-9,-6
1522606668645417,-18,-2,2,29,32,6,-1,0
1522606668665471,18,1,-3,11,13,-8,44,-3
1522606668665471,10,-2,-6,-16,-7,-21,-58,6
1522606668667478,-20,-1,5,-8,-8,6,6,-17
1522606668667478,-18,-8,-4,4,-15,-5,-8,-5
1522606668680511,-10,-4,-7,5,10,-10,0,5
1522606668680511,24,2,0,-18,-14,-4,27,6
1522606668687529,-22,-7,1,11,22,18,-4,1
1522606668687529,-16,4,1,-3,-2,2,-2,-5
1522606668703572,-14,-4,5,-1,10,1,8,2
1522606668703572,8,-11,-3,-15,-5,6,40,3
1522606668704575,22,8,-8,3,-1,2,-7,-4
1522606668704575,-3,2,1,-5,5,9,46,-5
1522606668725631,-14,1,2,-4,-15,-22,-42,-9
1522606668725631,-4,-3,0,2,3,-5,5,-11
1522606668727636,4,-6,0,0,-18,-11,-22,0
1522606668727636,-17,-9,-15,-30,21,-5,15,1
1522606668740671,6,8,11,61,16,6,-40,-12
1522606668740671,-4,3,3,-13,-4,-26,15,0
1522606668746687,32,-5,-4,30,0,10,-25,8
1522606668746687,36,16,4,1,3,-14,-36,19
1522606668763732,-49,-3,9,-8,-28,-13,-13,-21
1522606668763732,-32,-6,-2,-2,1,13,-1,-9
1522606668764735,12,-1,0,12,14,51,56,13
1522606668764735,-1,-2,-6,-27,-17,-41,-25,2
1522606668785791,34,4,-1,8,11,15,1,18
1522606668785791,-22,2,0,20,28,-12,-1,-19
1522606668787796,4,-5,-10,-18,8,28,-6,-3
1522606668787796,-13,-3,0,9,-6,21,10,-7
1522606668799828,1,6,5,-19,-6,-61,-10,-5
1522606668799828,18,6,9,4,-10,31,-61,8
1522606668806847,-26,3,-4,-5,13,-4,0,20
1522606668806847,21,-21,-17,6,-2,5,-9,-2
1522606668822889,-26,-5,10,-4,-2,6,-29,-10
1522606668822889,12,7,7,-1,-5,-5,19,11
1522606668824895,-3,1,5,1,7,-21,24,-5
1522606668824895,3,6,-6,8,-14,-23,8,14
1522606668845951,9,-9,-25,-18,-10,-33,-25,-9
1522606668845951,1,-13,2,-3,1,15,19,12
1522606668847956,-22,-14,-6,-3,-1,-9,-11,-23
1522606668847956,-8,13,13,7,11,7,2,-9
1522606668859988,11,-6,-4,-8,-3,9,52,13
1522606668859988,8,17,5,-1,-6,-56,-3,-6
1522606668869012,-16,-8,-5,6,-5,-11,-11,-10
1522606668869012,12,-5,-5,0,-5,7,14,5
1522606668883050,-31,-5,-7,-6,5,7,24,-7
1522606668883050,2,2,-10,2,0,18,-5,-5
1522606668885055,6,1,2,0,11,2,6,1
1522606668885055,5,9,12,-2,-9,-50,-11,-3
1522606668906111,0,2,-2,-6,-14,-5,-6,3
1522606668906111,-11,-6,-4,6,11,27,-21,0
1522606668907113,-1,0,-6,-5,-8,-54,-16,-12
1522606668907113,3,-3,0,-21,3,39,6,12
1522606668919145,7,4,4,20,2,-8,-15,4
1522606668919145,4,-4,-13,-3,-4,3,13,-2
1522606668928169,-3,7,11,-3,2,6,-11,10
1522606668928169,0,-6,3,1,-6,-3,10,-17
1522606668943209,25,8,2,-10,-7,47,13,12
1522606668943209,-24,-10,-7,-12,-9,-26,1,-2
1522606668945214,-3,2,-3,21,7,-25,-3,6
1522606668945214,-2,1,7,-15,-17,2,-3,-9
1522606668966270,13,-1,-5,-25,-11,1,-7,6
1522606668966270,1,-4,-2,42,-3,-36,0,-6
1522606668967273,6,4,5,14,5,-50,-2,5
1522606668967273,-11,-14,-13,3,-3,6,-8,-12
1522606668979305,2,-4,2,-10,4,-4,5,3
1522606668979305,-1,6,0,-32,-7,48,1,3
1522606668988329,2,3,4,5,0,4,8,1
1522606668988329,6,1,-4,15,0,-39,-14,8
1522606669003369,-22,-10,0,0,5,29,5,-10
1522606669003369,13,-5,-2,-3,4,22,-25,-8
1522606669005374,-8,2,-1,5,9,47,29,5
1522606669005374,25,-16,-10,-3,-2,3,-2,1
1522606669025428,-37,19,5,4,-5,-1,-6,-12
1522606669025428,-9,2,14,-7,-6,-3,10,6
1522606669027433,17,2,0,-35,1,-3,-2,-8
1522606669027433,3,3,3,33,19,13,-3,1
1522606669039465,15,-8,-10,-3,8,-19,-9,9
1522606669039465,13,6,0,12,-5,-52,16,4
1522606669048489,-20,-4,-2,-9,3,62,16,-10
1522606669048489,-4,1,-1,-7,-2,22,-18,-3
1522606669063529,14,-6,-7,9,-2,15,-26,2
1522606669063529,-6,4,1,-12,6,12,1,-22
1522606669064532,19,-3,2,-22,-22,-3,-4,6
1522606669064532,-26,-4,2,32,13,16,-9,-7
1522606669085588,17,8,11,6,-8,24,52,4
1522606669085588,-6,-9,-10,-9,22,7,-32,-8
1522606669087593,4,-2,-5,-1,-8,10,-10,10
1522606669087593,-18,-2,-3,1,4,8,-6,-17
1522606669099625,17,-3,-2,-6,-9,-3,-11,14
1522606669099625,-13,4,1,-31,-25,-9,-5,18
1522606669108650,-6,-7,0,45,17,-9,0,-1
1522606669108650,10,7,2,1,39,20,4,4
1522606669123689,16,-3,-6,-24,-9,15,-20,-4
1522606669123689,2,3,4,26,21,8,12,5
1522606669124692,-32,-2,4,-5,-17,-3,-10,1
1522606669124692,-6,1,0,-16,-24,0,19,-1
1522606669145748,26,-4,-2,19,15,-9,4,7
1522606669145748,-13,-8,-7,-18,2,-27,27,-5
1522606669147753,22,5,-7,-10,-13,-1,27,-3
1522606669147753,-9,-1,3,2,0,-8,11,-1
1522606669159788,-24,1,-2,-21,3,2,0,-10
1522606669159788,23,-6,1,18,-44,7,-2,-2
1522606669168809,-16,1,0,14,33,4,-10,-2
1522606669168809,23,1,-9,-6,3,-28,12,10
1522606669183849,-29,3,6,-5,-11,-22,-37,-10
1522606669183849,11,0,0,9,18,20,16,1
1522606669184852,9,-6,-5,-6,-10,-3,-37,-7
1522606669184852,3,6,0,-37,-50,1,3,-2
1522606669205908,-16,-3,-1,5,23,-14,-26,-2
1522606669205908,-29,-5,-1,32,-4,-38,11,-8
1522606669207913,-7,1,0,-12,-3,-11,-12,-2
1522606669207913,10,5,-6,-9,5,3,9,8
1522606669219945,13,8,10,-6,-32,-1,-9,-1
1522606669219945,-18,-16,-9,-10,20,-9,-29,-18
1522606669228969,0,0,-2,8,5,11,29,2
1522606669228969,-21,3,9,4,-8,3,-77,-2
1522606669243008,8,-6,-9,6,-3,7,11,-2
1522606669243008,18,7,3,-8,-23,18,-20,3
1522606669245012,4,4,-1,-5,20,-2,11,-1
1522606669245012,-13,-4,3,12,5,11,25,8
1522606669266068,-19,0,-3,-12,-8,9,16,-6
1522606669266068,5,4,-1,19,25,18,2,6
1522606669267071,9,-6,-1,-14,-15,-10,-4,-8
1522606669267071,-23,-1,-2,2,0,3,7,2
1522606669279103,7,-2,-5,6,22,4,10,2
1522606669279103,7,-3,0,-30,-47,-2,-9,0
1522606669288126,1,1,1,27,39,14,-16,-4
1522606669288126,-6,3,4,16,2,7,-4,-8
1522606669303167,11,-9,4,2,0,-14,13,0
1522606669303167,-22,-3,-5,-32,-32,9,44,-3
1522606669305172,30,1,-5,-2,14,-7,-58,8
1522606669305172,-6,-2,-5,-3,-2,-9,22,1
1522606669326230,-18,-2,-2,1,-4,-13,-29,-5
1522606669326230,0,1,1,-3,6,9,-1,-2
1522606669327231,-5,2,6,-15,-30,30,36,2
1522606669327231,9,-7,-2,-3,23,-7,11,4
1522606669339262,22,3,-6,5,19,7,0,11
1522606669339262,4,1,-2,-10,15,11,7,-6
1522606669348287,-8,2,1,-1,-23,-14,-9,-8
1522606669348287,-10,-3,2,-5,-9,-11,23,0
1522606669363327,-12,-14,-4,3,-5,-6,12,-20
1522606669363327,0,7,6,5,14,1,-16,8
1522606669365332,-8,-3,-13,-14,-22,-10,23,5
1522606669365332,19,0,4,-1,3,-3,-64,-7
1522606669386388,-25,2,2,-29,9,14,45,6
1522606669386388,9,-2,3,48,21,-10,-3,5
1522606669387391,31,4,-3,1,-4,-1,-2,-3
1522606669387391,-39,-2,-3,-1,-10,2,-6,5
1522606669399422,8,4,11,2,-3,-32,-22,-2
1522606669399422,8,3,-1,-9,-7,1,-16,-3
1522606669408446,-27,-12,-3,-5,-14,-5,11,-7
1522606669408446,19,-4,-8,-6,-4,24,-18,-7
1522606669423487,-3,-2,-1,17,21,-25,-9,-3
1522606669423487,-6,2,-7,-10,-10,10,5,0
1522606669425492,13,10,12,7,13,-26,-14,4
1522606669425492,-6,-5,-4,-10,-9,-2,-2,0
1522606669445545,-8,3,-4,5,-2,17,0,2
1522606669445545,24,3,5,-1,7,18,21,5
1522606669447551,-9,0,-9,-3,-3,-8,-1,0
1522606669447551,2,-3,3,-3,7,1,2,5
1522606669459583,-5,-2,0,12,-6,20,14,3
1522606669459583,8,0,-3,-1,-4,-8,17,3
1522606669468606,-9,-10,-4,-13,-6,-14,19,-32
1522606669468606,15,10,7,8,2,4,19,10
1522606669482644,-15,-9,-14,-6,-6,-21,-31,-10
1522606669482644,-2,-2,2,-4,14,16,-13,-7
1522606669489662,3,-1,-1,5,-2,-3,8,11
1522606669489662,11,-6,-3,4,-4,-17,12,-8
1522606669505705,7,5,0,-3,6,29,3,4
1522606669505705,-50,-6,0,0,-2,-12,2,-8
1522606669507711,0,-3,0,-5,4,11,1,8
1522606669507711,-8,-6,-4,3,-3,-10,3,-10
1522606669528766,33,12,0,2,-6,7,14,17
1522606669528766,-2,2,3,-2,1,-4,-39,-5
1522606669529770,-11,-6,-7,0,-3,-2,-14,2
1522606669529770,8,3,3,-2,1,4,6,0
1522606669542806,-14,2,2,0,-5,-3,-9,-17
1522606669542806,-11,-5,-5,-3,-11,-15,-2,-3
1522606669549822,-5,-2,2,1,4,10,48,9
1522606669549822,5,-7,-9,-5,-8,-48,-36,-8
1522606669565865,12,-3,2,4,12,14,12,10
1522606669565865,0,1,-4,2,-4,16,22,5
1522606669567871,-2,-2,1,-2,-10,-18,-19,-2
1522606669567871,-8,7,2,1,7,11,12,10
1522606669587924,-12,-13,-6,-4,-8,-8,-13,-18
1522606669587924,23,3,-1,-4,-14,-13,-10,6
1522606669595945,-19,-1,2,-1,7,21,17,0
1522606669595945,-1,-10,-3,3,-1,-48,-6,-1
1522606669602964,3,4,-1,-2,-2,2,-10,2
1522606669602964,10,-2,4,-6,7,20,2,5
1522606669609983,23,4,0,15,1,2,15,4
1522606669609983,-31,-3,-6,-12,0,24,-4,-6
1522606669626028,2,3,1,10,-3,-10,-4,10
1522606669626028,10,-10,-5,3,5,-60,-8,6
1522606669627028,-3,-2,-1,-5,-6,-1,-13,-4
1522606669627028,13,3,-2,-9,1,12,10,3
1522606669648085,-10,-9,-4,-9,-5,3,4,-3
1522606669648085,7,-4,-5,5,13,32,10,17
1522606669650089,12,9,9,-1,-6,55,-17,-3
1522606669650089,-14,-5,2,10,-5,9,0,-19
1522606669663124,3,8,4,-5,-3,-4,-12,0
1522606669663124,-9,-3,-5,-1,3,12,1,-5
1522606669669140,-13,-4,-8,-6,0,-13,-3,-6
1522606669669140,14,10,5,4,1,5,3,0
1522606669686185,5,0,-3,-1,2,29,3,-1
1522606669686185,-4,0,4,-5,-6,-7,6,2
1522606669687188,-7,-3,-2,0,1,-10,-22,-22
1522606669687188,8,2,-4,-2,-4,0,12,4
1522606669708243,-4,-11,-2,0,4,-7,0,-7
1522606669708243,7,7,2,-5,-17,-17,-17,-4
1522606669710249,2,3,4,1,5,16,-27,5
1522606669710249,12,-1,-2,0,-2,-1,-12,6
1522606669722281,-14,-3,-6,-4,-4,-10,0,-9
1522606669722281,-11,-10,-2,0,3,3,-13,-8
1522606669729300,2,2,5,3,0,-5,7,2
1522606669729300,-6,-2,-4,0,0,32,9,-1
1522606669746345,8,6,1,1,-1,-20,4,8
1522606669746345,0,6,3,1,-1,-10,5,-1
1522606669747348,-3,-3,-3,-3,-1,-5,-5,-1
1522606669747348,1,-8,-2,1,-7,-48,13,-6
1522606669768404,-1,2,3,2,9,39,-12,5
1522606669768404,14,1,-2,0,-6,-23,6,-1
1522606669770409,-32,-5,0,-5,-5,-18,2,3
1522606669770409,0,2,-1,-4,2,18,-10,-7
1522606669782441,-8,-7,-11,-14,-2,-47,-18,-8
1522606669782441,-5,-3,-3,18,3,-2,4,-3
1522606669791465,9,-2,6,-2,-15,-48,-17,3
1522606669791465,-24,0,0,6,8,16,-7,-2
1522606669805502,-2,-5,3,-16,-11,-9,22,-1
1522606669805502,24,1,-3,1,1,19,-6,-6
1522606669807508,-9,1,-5,-1,2,-2,4,12
1522606669807508,6,-9,-6,-15,-3,-5,-1,-7
1522606669828563,10,4,2,13,7,3,-9,0
1522606669828563,-12,-1,-2,-6,-2,2,-6,-2
1522606669829566,0,1,-4,7,6,16,28,-4
1522606669829566,12,-2,2,-5,-7,-18,-15,4
1522606669841598,1,4,0,0,-4,15,5,-3
1522606669841598,-18,-2,2,0,1,-11,-2,-1
1522606669850622,22,6,0,-13,-2,12,0,14
1522606669850622,-24,-3,-4,4,0,-3,11,1
1522606669865662,19,0,-1,-5,-15,-14,-21,1
1522606669865662,0,-1,7,8,2,7,0,-4
1522606669867668,1,-3,-6,-4,10,-8,-22,-3
1522606669867668,5,5,3,6,-26,11,-7,3
1522606669888724,-3,-8,-4,6,10,11,-1,0
1522606669888724,2,0,-2,-10,4,-12,-2,4
1522606669889727,-11,-7,-2,-2,-18,5,-8,-3
1522606669889727,-21,-4,-10,-14,26,8,13,0
1522606669901759,8,9,8,12,-7,25,18,9
1522606669901759,11,7,3,7,0,13,29,2
1522606669910783,-3,-7,-1,-3,1,-16,-2,-16
1522606669910783,18,-2,-4,7,-4,11,28,4
1522606669925822,-42,-4,1,-9,-14,-24,-48,-9
1522606669925822,-5,-2,-4,-2,-15,-2,-13,-8
1522606669927828,18,5,-3,-3,8,7,7,1
1522606669927828,-22,-1,2,-4,3,-2,-16,-5
1522606669948883,10,-4,-6,-1,7,37,27,1
1522606669948883,1,1,-1,2,0,1,-20,-5
1522606669949886,0,2,0,1,-3,4,-18,3
1522606669949886,34,0,0,3,13,24,16,4
1522606669961918,-45,0,1,-1,23,-17,1,-3
1522606669961918,1,4,1,-10,-3,6,1,-1
1522606669970942,-12,-8,1,14,-29,-3,14,1
1522606669970942,25,10,5,11,36,-1,-11,4
1522606669985982,27,2,0,-10,-13,-4,10,3
1522606669985982,-18,-3,-4,-8,5,3,6,-6
1522606669987988,-6,0,0,-11,4,0,-37,-4
1522606669987988,3,-4,1,3,-37,-24,4,1
1522606670009044,-1,1,-2,2,-2,-10,-40,-3
1522606670009044,3,-1,-1,-8,3,-10,1,2
1522606670010047,-6,-6,-1,3,1,-3,11,-5
1522606670010047,-24,-1,1,-15,-27,7,3,-4
1522606670022078,13,3,-2,4,15,-10,-7,-3
1522606670022078,20,-2,-3,-2,13,1,27,5
1522606670031102,-5,3,0,-20,-27,-1,-2,-3
1522606670031102,-57,-10,-5,3,31,21,1,-10
1522606670046142,10,1,-3,16,11,45,64,4
1522606670046142,1,2,2,8,-7,-3,-9,3
1522606670047145,29,-1,-7,-5,18,-15,10,6
1522606670047145,-31,6,4,-6,-26,-24,-31,-15
1522606670068201,9,-3,0,-12,-13,-3,1,2
1522606670068201,-23,-4,2,6,21,14,5,0
1522606670070206,38,2,-5,-8,-8,-2,-4,-1
1522606670070206,22,3,1,2,-19,-30,-7,5
1522606670082238,-35,-5,1,-3,-11,-7,36,-6
1522606670082238,-16,-7,-5,1,2,-9,-2,-5
1522606670091262,-12,0,-4,-5,7,-15,-6,0
1522606670091262,47,2,-8,-3,6,15,10,12
1522606670106303,-21,-9,0,-1,-19,-21,-18,-12
1522606670106303,-1,-2,-1,-8,-6,12,-19,-3
1522606670107305,3,3,0,9,-9,-6,-1,1
1522606670107305,-16,-4,-1,7,14,10,-6,-5
1522606670128361,11,-1,-5,-2,5,4,13,9
1522606670128361,7,-1,1,-14,-14,-1,23,-2
1522606670130366,-23,-2,1,16,7,18,-8,-4
1522606670130366,11,4,0,-6,-17,-8,1,7
1522606670142398,11,4,-5,6,22,32,34,2
1522606670142398,7,3,6,6,-11,-25,5,14
1522606670151422,-29,-8,-3,-3,1,12,15,-7
1522606670151422,7,-3,7,-4,3,-1,-11,1
1522606670165459,1,3,0,-1,-4,6,24,2
1522606670165459,-5,1,-6,-4,14,8,-28,-7
1522606670167465,27,7,-1,1,2,3,17,13
1522606670167465,-2,-1,4,-2,-10,-1,-2,-3
1522606670188521,-13,4,5,-3,12,-15,-44,-5
1522606670188521,4,-4,-3,1,-6,-16,13,-5
1522606670190526,-7,-2,5,0,6,23,-12,-6
1522606670190526,16,0,-6,2,24,-2,28,1
1522606670202558,22,13,2,3,-14,-13,-15,7
1522606670202558,-24,4,-3,-4,-3,26,0,-6
1522606670210580,-6,-14,3,-1,19,8,8,1
1522606670210580,6,5,-2,6,-11,-2,23,2
1522606670225619,-11,-5,-3,-5,-1,-11,-39,-3
1522606670225619,-1,-2,2,4,-5,-19,4,-3
1522606670227625,-10,6,3,-4,-4,-5,-11,-15
1522606670227625,-3,0,-1,1,21,-4,3,1
1522606670248681,8,-14,-11,-4,-19,-13,4,-7
1522606670248681,-2,1,1,2,-6,2,-13,-2
1522606670249684,-12,-6,-3,-1,0,-12,4,-2
1522606670249684,-11,-10,-1,3,-6,-6,-16,-4
1522606670261716,21,5,0,5,8,-2,14,19
1522606670261716,39,2,1,-4,-3,11,-1,14
1522606670270740,-41,-2,-2,7,3,16,-1,-18
1522606670270740,0,-9,-3,-7,-1,-4,-10,-6
1522606670285779,2,2,3,-7,-15,-42,-7,4
1522606670285779,4,0,-1,4,14,1,-10,-7
1522606670287785,6,-1,0,-3,2,1,6,9
1522606670287785,1,0,-3,3,-1,19,-9,2
1522606670308841,-5,-2,-2,-2,1,-43,-4,-6
1522606670308841,-6,6,-2,0,-6,-15,-17,7
1522606670309843,9,-6,-2,2,-15,-18,-5,-15
1522606670309843,-12,1,-5,-10,-31,-5,-3,-6
1522606670321875,2,3,4,10,76,31,8,0
1522606670321875,-8,-4,-4,-4,6,-1,-4,-2
1522606670330900,14,3,-1,-4,-38,-16,18,13
1522606670330900,2,-1,4,10,78,12,-21,7
1522606670345940,-25,-6,-5,-2,-19,22,-3,-20
1522606670345940,-5,-3,-2,-4,-20,12,-2,-8
1522606670347945,-3,1,1,1,56,-1,4,6
1522606670347945,11,-1,-4,-4,-33,-59,7,0
1522606670367998,20,3,1,-2,-25,2,-8,5
1522606670367998,-18,4,5,1,27,15,1,-6
1522606670370004,0,-3,-1,0,-21,-4,-9,-1
1522606670370004,-1,-1,0,-1,-7,12,1,7
1522606670382035,-6,-9,-5,-4,1,0,-9,0
1522606670382035,-1,-7,-8,-4,-17,-19,-3,-6
1522606670391060,13,23,2,-3,-1,50,9,7
1522606670391060,-5,11,12,2,-4,6,0,0
1522606670405097,11,-4,-2,-3,-10,7,9,10
1522606670405097,-9,-10,0,3,-2,10,-4,-7
1522606670412115,-15,-9,-7,-3,-5,-20,-2,-11
1522606670412115,0,-2,-10,-2,6,13,-1,1
1522606670428158,-9,-8,4,0,-46,-25,-2,-3
1522606670428158,16,14,2,-1,16,8,19,21
1522606670430164,3,-10,-3,-8,4,-28,-5,-10
1522606670430164,-9,-4,-3,5,-8,-20,0,-9
1522606670451220,5,3,-2,4,-16,-18,5,-5
1522606670451220,4,-3,-2,-1,-35,-24,-22,0
1522606670452222,4,5,8,10,15,8,-4,-1
1522606670452222,2,1,0,-7,2,-1,-1,-2
1522606670465257,-7,-3,-4,-8,8,10,17,3
1522606670465257,13,-3,-2,0,20,44,10,-24
1522606670472275,-27,3,-7,-17,-33,-9,-2,4
1522606670472275,-27,-13,-1,-1,-20,6,-4,-11
1522606670488318,-6,8,9,16,15,12,14,-4
1522606670488318,2,-3,-2,-2,-4,0,0,0
1522606670490324,30,1,-1,-2,-1,-5,1,24
1522606670490324,14,5,-3,-13,-8,-3,2,5
1522606670511380,-19,-6,-6,0,9,75,-9,-5
1522606670511380,0,-7,1,0,11,1,5,-4
1522606670512382,-10,-1,0,12,5,3,24,-2
1522606670512382,-6,2,1,7,2,4,-16,3
1522606670525417,7,3,-1,-17,-5,-7,12,3
1522606670525417,26,-1,-2,-7,-18,-6,-41,0
1522606670532435,-21,-1,2,3,16,5,-6,0
1522606670532435,-30,-9,0,5,17,26,-17,-14
1522606670548478,-1,4,-2,-6,-3,-36,12,-3
1522606670548478,-10,-2,-4,1,-14,-30,-8,6
1522606670550484,26,0,4,0,-13,-4,-2,-1
1522606670550484,14,4,-2,-7,-4,-10,-11,-9
1522606670570537,-14,2,2,9,18,0,10,3
1522606670570537,-14,-4,-1,5,0,-2,14,3
1522606670572542,17,-2,-1,0,-1,1,-11,-3
1522606670572542,-3,-1,-5,-15,-9,0,16,5
1522606670585577,-1,-3,-1,-12,-29,-19,-28,5
1522606670585577,-10,3,0,14,23,8,3,-1
1522606670591593,-4,-2,0,6,10,32,3,-4
1522606670591593,28,4,0,9,0,-14,5,9
1522606670608638,7,-1,-5,-7,7,8,-3,-2
1522606670608638,-15,1,-2,-33,-32,-15,-5,-2
1522606670609641,-47,-11,-11,-63,-19,-3,-6,-5
1522606670609641,5,-3,3,54,39,8,5,1
1522606670630697,13,1,-2,10,11,-1,-10,0
1522606670630697,11,4,7,24,-3,37,17,5
1522606670632702,17,3,-3,-16,-17,-9,1,-3
1522606670632702,3,3,1,15,-19,6,8,4
1522606670645737,-8,-8,-4,-5,25,-14,-7,-7
1522606670645737,-5,-2,-5,-13,-8,-4,1,-1
1522606670651753,0,-2,2,14,6,-2,0,1
1522606670651753,16,6,3,-16,-5,-36,-7,-4
1522606670668798,-17,-2,0,15,23,31,1,-3
1522606670668798,-31,-3,-5,-1,-9,-20,4,0
1522606670669801,3,0,-1,0,2,-3,-6,1
1522606670669801,34,5,2,-10,-7,-21,-20,0
1522606670690857,-23,-6,-1,5,-6,-13,-1,-7
1522606670690857,17,7,-3,-12,-39,-30,1,2
1522606670692862,-4,-2,5,26,62,23,-3,0
1522606670692862,-3,-9,-5,-10,-6,15,9,-2
1522606670704894,23,4,2,-4,-33,-58,11,6
1522606670704894,-6,-1,3,14,52,38,-28,-4
1522606670711913,13,1,-1,2,-17,-21,-24,-4
1522606670711913,-14,-2,-4,9,-10,31,11,5
1522606670727955,-3,-4,-2,-25,-56,18,6,-5
1522606670727955,2,6,-2,23,42,-12,31,0
1522606670729961,15,1,0,16,14,-9,-27,17
1522606670729961,-54,-5,1,-18,-43,11,-23,-22
1522606670751017,-29,0,1,11,-1,-3,-13,-14
1522606670751017,2,-12,-8,3,16,10,-16,-2
1522606670753022,12,3,-1,-5,-9,-4,11,5
1522606670753022,5,2,2,-13,19,-8,12,8
1522606670765054,26,5,3,3,-4,-8,-14,-1
1522606670765054,-7,4,2,-9,-7,28,4,-5
1522606670773075,-12,-3,-8,-12,-36,-23,2,-6
1522606670773075,7,-9,-7,-17,12,10,5,-8
1522606670788115,-13,3,4,21,25,26,0,5
1522606670788115,-4,-1,-3,-15,-23,1,0,-1
1522606670790121,4,-4,1,12,35,8,9,3
1522606670790121,4,2,-5,-12,-13,-2,1,-1
1522606670811177,6,7,1,-3,10,33,6,-3
1522606670811177,-5,-4,0,-6,-5,-15,7,-5
1522606670812179,11,-12,-4,-3,-75,-28,0,-1
1522606670812179,5,2,0,12,71,-2,-1,1
1522606670824211,-16,-2,0,-6,10,24,-7,0
1522606670824211,9,5,2,2,-16,-24,4,-3
1522606670833235,14,5,1,-3,3,10,-2,-3
1522606670833235,23,0,-5,-7,-23,-13,-6,28
1522606670848275,8,-5,-5,-8,-19,-24,-6,-1
1522606670848275,-2,-6,4,-2,20,3,-7,6
1522606670850281,-6,2,1,4,-5,-29,7,-6
1522606670850281,-17,-5,-2,-16,-32,19,9,0
1522606670871337,10,1,-7,19,13,-9,-2,6
1522606670871337,0,-4,10,9,-6,-8,-2,-2
1522606670872339,12,3,-2,3,17,-7,0,-6
1522606670872339,-27,5,0,-3,-23,11,1,-5
1522606670884371,9,-6,-3,-16,-3,-15,6,-4
1522606670884371,7,3,2,-12,1,34,7,1
1522606670893396,-18,0,4,17,62,25,22,-3
1522606670893396,12,-3,-3,26,-9,9,-7,-6
1522606670908435,-17,-2,1,-13,4,-20,-3,-2
1522606670908435,8,-2,-7,-5,-26,-23,-10,-2
1522606670910441,-7,5,-2,-44,-54,13,-5,-1
1522606670910441,30,1,5,42,53,22,22,3
1522606670930494,-40,3,6,8,8,11,-3,5
1522606670930494,8,-12,-11,-7,-12,-32,22,-4
1522606670932500,3,0,2,0,-9,1,-23,7
1522606670932500,0,-2,-8,-9,18,-1,2,6
1522606670944531,23,0,10,4,-4,-10,-6,3
1522606670944531,-31,2,4,3,-31,0,1,-2
1522606670953556,-25,-9,-9,0,13,-28,-1,-13
1522606670953556,8,0,6,5,-12,-32,-16,0
1522606670968595,21,1,-3,-5,22,0,8,10
1522606670968595,-13,-2,-5,-3,10,2,-7,3
1522606670969598,14,10,4,13,-5,-3,1,11
1522606670969598,-32,-6,-7,-30,-20,-8,-3,-10
1522606670990654,9,-5,-4,-16,-41,-13,-6,2
1522606670990654,36,4,6,49,43,-4,-5,-2
1522606670992659,-35,-7,-3,12,7,17,-3,-11
1522606670992659,-11,0,-1,-18,-27,-13,8,-4
1522606671004691,3,-8,-8,-16,-17,13,-3,-5
1522606671004691,-8,-8,-9,-19,9,5,-7,-8
1522606671013716,11,-1,4,7,17,11,-2,-1
1522606671013716,-11,4,5,3,6,-19,-12,-9
1522606671028755,3,-4,-3,-9,-5,-4,1,-2
1522606671028755,-4,4,2,7,27,-8,-1,1
1522606671029758,19,-4,-3,7,-3,16,-6,-7
1522606671029758,-12,2,3,-6,-1,-1,-6,-5
1522606671050814,2,-6,-4,6,-3,6,-6,-9
1522606671050814,18,10,-4,-16,-16,2,2,-2
1522606671052820,-33,13,11,5,16,-3,4,-4
1522606671052820,21,-2,0,7,-8,6,0,6
1522606671064851,-2,-4,-4,-25,9,1,2,-1
1522606671064851,-8,-17,-4,36,4,22,-6,-1
1522606671073876,4,-3,-3,-5,-13,-52,1,5
1522606671073876,-1,5,0,1,1,-8,0,0
1522606671087913,10,-3,-3,9,4,16,5,5
1522606671087913,0,2,-1,-15,37,13,-9,12
1522606671089918,2,11,-1,1,0,16,1,-5
1522606671089918,6,-5,4,3,11,9,1,-7
1522606671110974,-7,-1,-4,1,3,-19,-2,-2
1522606671110974,4,2,-4,-12,-19,-8,-3,-2
1522606671112980,3,-16,-7,-7,-5,5,2,2
1522606671112980,-20,-1,0,1,1,-2,-1,-12
1522606671125011,3,3,-2,7,-2,8,2,3
1522606671125011,-1,3,0,-7,-13,-11,0,11
1522606671134036,3,-2,-2,-7,-10,4,0,7
1522606671134036,0,-1,-1,5,12,7,-1,-1
1522606671148073,-1,1,0,10,22,6,-2,-7
1522606671148073,-4,6,8,-8,-9,5,0,-10
1522606671150078,9,-1,-7,-1,10,2,6,5
1522606671150078,-2,-1,1,-2,-19,-7,-10,2
1522606671171134,-2,1,0,-1,4,18,0,0
1522606671171134,-3,-2,0,2,-1,-3,3,-1
1522606671172137,-2,-6,-1,1,-13,-4,2,-11
1522606671172137,-3,-1,-3,-10,2,-7,1,1
1522606671184169,-1,5,0,10,-5,-3,-1,0
1522606671184169,-2,-2,-5,-16,-16,-4,-1,-5
1522606671193193,-2,-2,3,11,-1,6,-1,0
1522606671193193,-4,-2,-2,-5,2,9,4,1
1522606671208233,0,0,3,4,3,-5,-3,0
1522606671208233,2,-4,-3,-7,2,18,-11,2
1522606671214249,-1,4,2,-9,-10,-24,10,12
1522606671214249,-7,-4,-5,4,-2,6,-15,-6
1522606671231294,4,-2,-3,13,6,2,7,-2
1522606671231294,-31,-3,2,-9,5,8,1,-7
1522606671232297,1,1,0,3,2,10,-2,-3
1522606671232297,-1,0,-1,-2,-19,-10,2,2
1522606671244329,5,3,-1,-4,-26,-22,-5,4
1522606671244329,1,-1,-1,19,5,-4,1,-5
1522606671253353,34,0,-3,-13,-1,7,-4,7
1522606671253353,-21,-1,-3,-4,-1,-12,6,0
1522606671268393,-26,-4,2,-8,30,33,-7,-9
1522606671268393,11,2,3,3,-21,-28,5,7
1522606671270398,-1,-3,-3,-5,-10,6,-5,-12
1522606671270398,9,-1,-3,3,14,6,2,9
1522606671290451,13,0,0,-3,-12,-3,-3,-2
1522606671290451,-6,2,0,-35,-21,-9,-3,-2
1522606671292457,-9,-11,0,36,41,23,-1,-1
1522606671292457,11,2,6,33,12,0,3,2
1522606671304489,16,1,-2,-4,3,-3,-1,1
1522606671304489,-24,-6,0,-8,-11,-7,2,5
1522606671313513,-2,1,-3,-5,2,-2,-4,-4
1522606671313513,2,-4,-6,-19,17,-3,2,0
1522606671327550,3,4,4,1,-27,-6,0,2
1522606671327550,-5,1,-2,11,3,29,9,-2
1522606671334569,13,-2,1,4,6,5,-7,6
1522606671334569,-41,-5,-5,-8,-11,4,4,-5
1522606671350611,10,3,0,5,6,-6,2,-6
1522606671350611,5,-5,-8,-9,0,3,-2,0
1522606671352617,-5,-1,1,-9,-6,-5,2,-4
1522606671352617,21,1,-3,-12,-19,-5,-2,4
1522606671364649,20,2,2,-7,-29,-5,-2,4
1522606671364649,-38,-5,-2,15,34,-2,2,2
1522606671373673,-6,-1,1,10,9,-15,-4,-2
1522606671373673,7,0,0,-5,-25,-5,-2,2
1522606671387710,-6,-4,-4,-7,-7,-5,-3,-1
1522606671387710,21,6,1,-2,5,-14,-1,0
1522606671394729,-5,1,-4,-6,-9,3,3,1
1522606671394729,5,2,2,-19,-14,2,1,0
1522606671410771,-2,0,1,21,6,6,1,-1
1522606671410771,4,-2,-2,9,14,0,-3,-2
1522606671412777,-27,0,-1,-3,10,9,1,-5
1522606671412777,14,-2,-3,-3,-4,-3,-2,-5
1522606671433833,-18,-5,-4,-18,0,3,4,2
1522606671433833,7,1,6,19,-8,-7,2,-2
1522606671434836,7,0,-3,-26,-28,8,5,2
1522606671434836,22,5,4,22,30,8,3,4
1522606671447870,-33,-8,-3,8,20,-24,-9,-10
1522606671447870,0,-3,-2,-2,-8,-9,-6,-2
1522606671454889,-5,3,-2,-8,-24,-1,4,1
1522606671454889,0,-3,-3,0,4,11,0,-1
1522606671470931,11,-2,-3,-13,-1,-10,-2,1
1522606671470931,8,2,2,-2,-9,-2,-1,-1
1522606671472937,-8,-6,-1,7,-2,-1,-1,-5
1522606671472937,6,-1,0,-1,5,-12,-9,1
1522606671492990,-7,4,-1,1,6,4,-1,0
1522606671492990,7,-1,0,-6,-9,-1,-2,1
1522606671494996,0,-1,-4,-3,8,-14,-2,0
1522606671494996,-9,-5,-1,-3,-2,16,1,-2
1522606671508030,-11,1,3,1,-3,-1,3,-2
1522606671508030,13,4,0,-1,-7,0,-3,0
1522606671514046,-6,1,1,-17,-25,-6,-1,-1
1522606671514046,-9,0,3,20,7,0,1,-2
1522606671531091,1,-2,-1,14,11,7,-1,1
1522606671531091,7,1,-1,-6,22,15,1,3
1522606671532094,21,2,4,-8,-22,-30,-8,2
1522606671532094,-16,-6,-6,-10,13,1,-4,-11
1522606671553150,-3,1,-1,21,-17,-4,-5,1
1522606671553150,9,-3,-1,-21,1,9,14,2
1522606671555156,4,2,-1,23,9,-42,-21,4
1522606671555156,-14,-3,-3,-6,7,-23,-7,-8
1522606671568190,-3,-1,3,-6,-13,-4,-5,-3
1522606671568190,-13,-3,-1,-6,-3,-17,2,-3
1522606671574206,15,2,-2,-17,-28,20,6,0
1522606671574206,-1,8,2,10,35,6,-7,9
1522606671591251,3,-2,-4,12,11,10,1,3
1522606671591251,-10,-4,-1,0,-5,-2,-10,-10
1522606671592254,-10,-5,-2,-3,-3,25,4,-2
1522606671592254,12,4,1,-2,-29,-24,3,4
1522606671613310,-5,-2,-3,-11,22,9,0,-1
1522606671613310,13,5,2,-1,-14,-7,-4,6
1522606671615316,7,-3,1,2,11,7,-2,-7
1522606671615316,-19,-6,-3,12,-7,-28,-6,-4
1522606671627348,8,3,2,-18,1,-4,2,-1
1522606671627348,-9,-2,1,19,0,-1,-3,-9
1522606671634366,-8,-3,-5,2,19,10,4,2
1522606671634366,6,2,0,-7,-12,4,0,-1
1522606671651411,17,4,2,-5,-22,-6,3,4
1522606671651411,-25,-9,-5,-8,-3,0,-5,-8
1522606671652414,-11,-1,0,2,12,-4,0,1
1522606671652414,3,-3,1,-1,3,12,1,-7
1522606671673470,17,-1,-3,-3,8,10,5,10
1522606671673470,6,4,0,-1,-10,-5,0,1
1522606671675475,-30,0,0,5,5,1,-4,3
1522606671675475,0,-10,-6,-13,-8,2,2,-7
1522606671687507,-7,2,0,-2,-2,-5,-8,-11
1522606671687507,13,1,0,2,4,10,0,4
1522606671696531,7,-2,-1,2,6,-2,0,-1
1522606671696531,3,2,-1,-2,-11,0,1,11
1522606671710569,-16,-1,-2,-3,-6,-2,4,1
1522606671710569,8,-4,-1,2,6,-4,-8,-1
1522606671712574,-5,-3,-1,2,-2,-4,1,6
1522606671712574,5,2,-2,-2,-2,12,3,-3
1522606671733630,-3,-4,-2,0,6,-2,-1,-1
1522606671733630,-4,-1,-2,1,-1,1,0,-1
1522606671734633,1,-2,-1,-1,-4,2,-3,-7
1522606671734633,-7,-1,-1,-2,-15,2,2,6
1522606671746665,-9,-6,-5,-2,-1,-8,-6,-12
1522606671746665,0,-1,1,0,2,3,0,-2
1522606671755688,13,7,3,1,9,4,-2,-6
1522606671755688,2,5,0,0,-5,-9,-1,-6
1522606671772734,-2,4,3,-1,0,4,-3,-4
1522606671772734,-19,-5,-3,-4,-6,-3,-1,2
1522606671773737,-1,-3,-2,0,2,1,3,-2
1522606671773737,-1,0,3,3,7,12,2,-2
1522606671793790,-5,-10,-5,-1,-3,-1,4,5
1522606671793790,7,4,2,-3,1,-5,-2,-1
1522606671794793,1,4,1,-4,-7,1,-1,-5
1522606671794793,6,-4,0,-1,1,-1,2,5
1522606671806825,-14,-2,-1,-1,0,-6,0,-4
1522606671806825,5,-1,-3,-1,-3,-6,-1,-2
1522606671815849,-11,-3,-2,-1,10,-4,-4,-6
1522606671815849,7,3,-3,-9,-8,-2,2,1
1522606671830889,6,1,-1,2,-19,-35,0,7
1522606671830889,0,-2,1,1,13,3,-2,4
1522606671832894,-1,2,0,2,-5,-1,1,2
1522606671832894,-10,-1,-2,-5,3,-1,-2,-2
1522606671852947,3,3,-2,0,3,10,1,12
1522606671852947,-15,-2,-2,3,-7,-1,-1,-20
1522606671854953,5,-4,-2,-5,0,-2,0,4
1522606671854953,12,0,4,5,14,2,1,4
1522606671866985,-19,-3,-2,0,-17,6,-1,-9
1522606671866985,8,1,-2,1,-7,1,1,8
1522606671876009,15,1,0,-2,-5,-4,3,4
1522606671876009,-23,-1,1,2,6,4,-6,-10
1522606671891049,13,-1,1,3,10,5,0,4
1522606671891049,-5,0,-1,-5,3,-4,2,1
1522606671892051,-2,-4,-3,-12,-14,-3,-3,-3
1522606671892051,14,5,0,6,4,-7,5,5
1522606671913107,9,-2,1,-1,4,4,-5,3
1522606671913107,-26,-10,-2,-1,-11,-6,2,3
1522606671915113,-4,-4,-2,5,17,0,-1,1
1522606671915113,7,2,1,-7,-4,0,-1,-3
1522606671927145,-4,1,-2,0,-3,6,-1,-6
1522606671927145,25,3,-1,-4,5,21,2,3
1522606671936169,-3,2,1,4,-5,-18,0,1
1522606671936169,-38,-6,-2,-2,-11,-12,-4,-3
1522606671951209,-9,-7,-3,0,4,6,-4,-9
1522606671951209,9,2,1,-3,-1,7,1,10
1522606671952211,10,-1,-3,-1,3,5,-1,-3
1522606671952211,9,-1,-1,-14,-17,2,-3,-2
1522606671973267,-10,2,1,22,16,-4,2,-1
1522606671973267,-1,-5,0,7,5,-17,-2,-5
1522606671975273,0,3,1,1,3,18,-1,-2
1522606671975273,19,2,-1,-8,-18,22,10,11
1522606671987305,-4,-10,0,0,4,-12,0,0
1522606671987305,-4,3,-1,0,-2,-3,-2,-5
1522606671996329,-8,-1,1,6,2,-7,1,-6
1522606671996329,-1,-5,-2,7,6,14,-1,1
1522606672011369,21,5,-1,-18,3,5,1,2
1522606672011369,0,1,0,1,-4,-6,0,5
1522606672012371,1,-2,-1,1,-16,6,-2,-3
1522606672012371,1,-1,-2,-1,3,-10,-1,-1
1522606672033427,10,0,-1,-4,-11,3,-1,1
1522606672033427,5,1,-1,0,17,-9,-4,-3
1522606672035433,-11,-5,-4,-14,-3,4,0,-1
1522606672035433,-5,1,1,17,-2,-7,-1,-2
1522606672047465,4,0,-2,-18,-21,-6,1,0
1522606672047465,-2,1,4,29,43,9,-1,-1
1522606672056489,-15,-4,-2,1,-26,-4,-1,-1
1522606672056489,-10,-6,-5,2,11,-14,-6,-8
1522606672070526,28,2,-2,-13,6,-4,-1,6
1522606672070526,2,1,-1,-20,-31,14,5,0
1522606672072531,-29,-3,-5,-50,-86,-37,-17,-3
1522606672072531,7,5,9,90,69,21,18,2
1522606672093587,2,-5,0,4,-2,-25,-23,-5
1522606672093587,10,0,-3,-31,-36,27,15,5
1522606672094590,35,6,5,20,47,3,-8,4
1522606672094590,-15,-1,-3,-29,-26,-11,-5,-1
1522606672106622,-27,1,1,10,13,13,4,-5
1522606672106622,4,-1,-3,14,-21,-10,1,2
1522606672115646,-7,4,0,-8,1,0,4,1
1522606672115646,-7,-3,-4,-21,-24,-2,-6,-8
1522606672130686,8,-1,-2,-1,10,3,0,4
1522606672130686,25,-4,0,1,3,-11,-7,-4
1522606672132691,-45,0,-1,5,13,3,3,-3
1522606672132691,13,-4,-2,-7,5,-11,-8,2
1522606672153747,-9,-1,-2,2,1,24,8,1
1522606672153747,-10,0,-2,-7,-21,-29,-5,-5
1522606672154750,32,6,0,10,48,7,-8,1
1522606672154750,10,6,1,-3,-3,4,0,5
1522606672166782,-31,-7,-3,-8,-28,2,1,-8
1522606672166782,17,5,0,-14,2,1,-1,3
1522606672175806,-8,-5,1,21,16,7,6,-5
1522606672175806,4,0,-4,-6,-6,3,-3,-5
1522606672190846,-2,5,1,7,13,-1,14,16
1522606672190846,-3,-2,-2,2,6,-5,-4,4
1522606672192851,-28,-5,-1,-11,-10,-3,3,-8
1522606672192851,-9,-6,-5,1,-8,5,-2,-1
1522606672213907,28,6,-2,-13,11,21,12,1
1522606672213907,-32,2,1,-4,-15,18,40,-2
1522606672214910,41,-2,0,35,22,22,-29,9
1522606672214910,-17,-1,-1,-6,23,-31,-26,-11
1522606672226942,-39,-16,-9,-15,-14,3,14,0
1522606672226942,-38,-5,-3,13,3,-12,-10,-13
1522606672235967,29,4,9,-15,2,7,12,9
1522606672235967,3,-6,0,4,-14,27,18,-3
1522606672251006,14,4,0,-11,-24,-25,13,-4
1522606672251006,25,-6,-4,38,30,-8,-36,4
1522606672253011,-24,0,-5,-19,-23,-6,-25,-10
1522606672253011,-5,-5,2,1,-34,-35,18,-3
1522606672275073,-20,0,2,8,45,4,-26,-7
1522606672275073,22,6,0,-11,6,3,21,0
1522606672276073,-4,-8,-3,-2,-6,-6,24,-2
1522606672276073,2,1,-3,3,0,1,7,-3
1522606672287102,-12,2,1,7,-24,-9,-16,-8
1522606672287102,8,-1,1,-10,-7,-10,-16,1
1522606672296126,-35,-5,-2,5,2,10,13,2
1522606672296126,19,5,-4,-22,-10,-6,3,4
1522606672310163,-6,-3,1,1,2,-42,-15,-3
1522606672310163,10,-12,-1,19,-6,4,-1,4
1522606672317182,9,5,-1,-9,-8,0,-4,-3
1522606672317182,-12,-9,-2,-1,21,-6,-17,-7
1522606672333224,17,19,8,2,-12,13,-6,8
1522606672333224,-3,-4,-5,-11,1,-2,-20,6
1522606672335230,22,0,-7,-1,3,-14,-13,4
1522606672335230,-28,-9,-1,3,-20,20,8,-6
1522606672347262,-5,-3,-3,7,11,-16,5,-2
1522606672347262,-9,-1,1,-8,-2,13,-12,-11
1522606672356286,1,-4,-4,3,4,-1,7,-2
1522606672356286,14,0,-5,-8,8,10,-16,12
1522606672370323,8,-3,0,-4,-14,0,20,8
1522606672370323,-15,-2,0,0,8,-7,2,-13
1522606672377342,2,3,-3,0,1,-6,10,3
1522606672377342,6,0,4,-9,0,-6,-4,-5
1522606672393384,3,-3,2,6,1,7,-2,3
1522606672393384,-1,0,-6,-6,2,-2,3,-1
1522606672395390,2,13,9,3,-2,3,-11,-5
1522606672395390,10,7,-5,-6,-6,-3,6,12
1522606672416446,-7,10,7,2,5,6,-3,-10
1522606672416446,-10,-5,-4,-3,2,5,-2,2
1522606672417449,-5,-7,-7,-6,-10,-10,10,-4
1522606672417449,5,0,0,1,4,-2,1,9
1522606672430483,17,-12,-12,0,4,6,0,-1
1522606672430483,-8,19,6,-6,-4,-7,1,-1
1522606672437502,0,-9,0,3,-3,-3,-1,-3
1522606672437502,2,0,2,-2,4,2,-1,-2
1522606672453545,-6,-6,-6,-4,-5,0,-9,-6
1522606672453545,14,1,0,1,-1,36,2,2
1522606672455550,6,2,2,2,2,-14,-3,9
1522606672455550,-7,-1,1,-1,5,-1,-3,0
1522606672475604,-2,0,-5,-10,-24,1,-3,-2
1522606672475604,0,-5,1,9,6,29,0,3
1522606672477609,1,-1,0,7,1,-13,15,7
1522606672477609,6,4,2,2,12,-1,-1,-4
1522606672490643,10,-1,0,-11,1,13,-3,-2
1522606672490643,-29,-5,-1,2,-1,-6,-4,-6
1522606672496659,5,0,-1,6,7,13,0,2
1522606672496659,2,-1,1,-15,-12,14,10,-2
1522606672513705,-17,-3,0,31,19,-19,-4,-4
1522606672513705,-1,-5,-4,-6,-6,-18,-3,-3
1522606672514708,-1,0,-1,-13,-3,-10,-2,-5
1522606672514708,-8,-1,-4,-10,-7,-2,1,-1
1522606672535763,8,1,1,-7,-7,4,-1,7
1522606672535763,6,-3,-1,-1,6,9,1,2
1522606672537769,-12,-1,0,-7,-8,1,7,0
1522606672537769,-5,-7,0,4,13,5,-9,-7
1522606672549801,-2,1,-2,-6,9,0,2,4
1522606672549801,10,-1,0,-18,-13,-14,-5,2
1522606672556820,-13,-2,0,11,1,11,7,-5
1522606672556820,7,2,0,-1,-13,-7,15,8
1522606672573864,-4,-2,1,4,10,-1,-4,-2
1522606672573864,5,-1,-3,-11,-12,-15,4,-2
1522606672574868,3,0,-3,-35,-8,20,-11,0
1522606672574868,-21,-1,-1,1,1,-11,3,-3
1522606672595924,13,-1,1,52,24,34,9,2
1522606672595924,-6,0,0,-2,2,-9,2,2
1522606672597929,8,-3,-3,-13,-25,-5,-9,-4
1522606672597929,1,3,0,12,20,2,-7,2
1522606672609961,20,2,0,-15,-14,2,1,1
1522606672609961,-41,-6,-2,-9,-1,-4,-2,-12
1522606672616979,-14,-2,-1,16,-10,-3,2,-1
1522606672616979,-23,-5,-2,-2,8,1,-7,-4
1522606672633022,5,3,1,-10,-6,-18,-4,2
1522606672633022,14,1,-1,8,1,-19,0,1
1522606672635027,12,1,-1,3,-3,0,1,2
1522606672635027,-9,-7,-4,0,-8,-5,-7,0
1522606672656083,-7,-4,-3,-13,-3,-6,-3,-4
1522606672656083,15,2,1,9,3,2,1,3
1522606672657086,-11,-3,-4,2,9,3,6,-2
1522606672657086,6,-1,-3,-6,-15,1,-5,-1
1522606672669118,1,-1,1,6,12,15,17,1
1522606672669118,-7,1,1,-5,-18,-20,-3,2
1522606672678142,19,3,1,6,26,24,-6,0
1522606672678142,5,-1,-2,-2,-22,-10,24,-6
1522606672693182,-8,3,-2,-10,-13,-4,6,2
1522606672693182,-4,1,1,3,6,1,0,-2
1522606672695187,-20,-1,-2,1,2,-41,-22,-7
1522606672695187,13,5,1,-2,-11,13,1,0
1522606672716245,9,3,-1,-15,1,-4,31,2
1522606672716245,14,-7,0,18,19,-6,-34,4
1522606672717246,3,-5,-1,1,-20,-7,-4,-3
1522606672717246,-6,2,-2,-2,29,7,-34,-3
1522606672729278,-6,2,-1,-15,-28,1,18,3
1522606672729278,22,0,-2,12,18,-3,1,2
1522606672738302,-2,-3,1,2,-12,-2,4,-2
1522606672738302,2,-3,-1,-19,-28,-9,-5,0
1522606672753342,12,3,4,21,22,15,-11,3
1522606672753342,-34,-3,-1,-5,-6,16,10,-3
1522606672755347,-6,6,1,2,9,7,-3,-2
1522606672755347,20,0,1,-6,2,-7,10,-1
1522606672776403,-3,-2,-8,-4,-1,-12,-18,1
1522606672776403,-34,2,8,-7,-8,12,8,-6
1522606672777406,1,2,4,9,-27,-26,0,-1
1522606672777406,-7,2,-1,0,24,7,-12,-4
1522606672789438,7,-3,-3,-7,19,-10,-8,-6
1522606672789438,11,-8,-9,13,14,0,8,6
1522606672798462,-2,9,2,-6,9,16,9,5
1522606672798462,-4,-4,-4,0,10,5,-6,-6
1522606672813502,-13,-7,4,10,-14,-8,-13,-5
1522606672813502,14,15,1,-19,-17,-14,-29,1
1522606672815507,-7,-25,-2,10,34,1,28,7
1522606672815507,21,-3,-5,2,-20,-6,1,-4
1522606672835560,-23,17,-4,-5,-3,-6,-8,-9
1522606672835560,-3,-16,-1,-5,5,14,7,-2
1522606672837566,46,16,-3,-19,-50,-22,-1,13
1522606672837566,-18,-2,0,23,45,3,-35,-3
1522606672849597,-35,-8,0,13,15,16,-14,-14
1522606672849597,18,6,0,-29,-55,-3,11,5
1522606672858622,12,-5,-2,36,61,4,2,1
1522606672858622,-17,-8,-7,-10,-34,-18,20,-7
1522606672873662,25,0,3,2,12,6,0,10
1522606672873662,-9,2,2,0,2,-4,-15,-8
1522606672874665,-23,-7,-3,-18,-35,-28,18,-5
1522606672874665,18,12,3,-4,2,0,5,11
1522606672895720,9,-3,1,-4,18,2,-1,4
1522606672895720,5,-5,-4,15,-10,-26,-2,-8
1522606672897726,-7,2,-4,-10,-2,14,-3,-6
1522606672897726,-3,7,4,3,18,7,38,6
1522606672909758,8,-2,-4,-17,-39,-8,-17,-16
1522606672909758,-12,-4,-3,3,15,14,9,2
1522606672918782,-4,0,-1,0,9,15,-15,-10
1522606672918782,4,3,2,-1,-20,-5,-10,6
1522606672933822,16,1,-2,-9,11,1,33,9
1522606672933822,0,2,1,-2,10,7,2,-1
1522606672934825,2,-6,-3,10,12,0,-7,2
1522606672934825,-23,3,5,-7,-21,5,-19,-10
1522606672955882,-12,-4,-2,-4,-19,-47,-17,-7
1522606672955882,-5,4,-3,6,18,9,1,-5
1522606672957886,1,-10,-2,-8,-3,0,3,5
1522606672957886,-11,-10,-6,-1,0,16,-9,-7
1522606672969918,-8,2,4,1,-7,-13,4,3
1522606672969918,-6,1,1,-3,0,-5,12,10
1522606672978942,2,2,1,0,9,45,-21,-11
1522606672978942,4,-1,-2,7,1,-37,-3,0
1522606672992979,18,5,3,2,-1,18,-2,7
1522606672992979,-11,-11,-5,-5,-2,-4,0,6
1522606672994985,-38,-14,-4,-7,-9,6,-4,-26
1522606672994985,7,7,7,8,9,3,15,6
1522606673016040,-5,-10,-5,0,-2,-11,-34,-5
1522606673016040,22,6,0,-3,-2,3,-1,10
1522606673018046,2,5,-2,2,0,-13,1,1
1522606673018046,-8,0,1,-1,-1,-1,2,-1
1522606673030078,11,0,-7,1,9,3,-10,0
1522606673030078,-8,9,9,-1,-25,-8,2,-10
1522606673039102,0,5,8,0,6,1,-1,5
1522606673039102,7,-4,-3,-1,-2,2,4,-2
1522606673053139,-9,-11,-3,-2,-3,14,-4,-7
1522606673053139,3,4,-4,2,11,-1,0,-10
1522606673055145,-4,2,-2,-6,-4,-9,0,-2
1522606673055145,25,6,3,2,8,5,12,13
1522606673076201,-18,-11,-1,1,-6,2,13,5
1522606673076201,-13,-5,-3,-8,-14,15,-8,-15
1522606673077203,2,4,0,1,-5,-28,5,-5
1522606673077203,-6,-4,-5,2,1,-1,-7,4
1522606673089235,-3,0,0,1,0,1,2,2
1522606673089235,6,-23,-3,-5,2,4,3,5
1522606673098259,9,12,-5,-2,1,11,-1,0
1522606673098259,8,15,7,4,0,1,-7,0
1522606673113299,-23,0,4,-1,-4,-5,10,-2
1522606673113299,-2,1,-3,-1,-1,-9,-3,-5
1522606673115305,6,-8,-2,0,5,8,-1,8
1522606673115305,1,-9,-4,0,-4,-5,0,-2
1522606673136360,4,6,-2,-2,-5,8,-2,1
1522606673136360,7,1,-1,3,4,-1,1,2
1522606673137363,-6,0,3,1,1,0,-16,-1
1522606673137363,-5,-4,-6,-15,-13,4,10,-1
1522606673149395,1,0,5,8,10,1,0,3
1522606673149395,5,-5,-6,5,6,-7,-3,-10
1522606673158419,-17,0,-1,-5,-5,-3,-4,-4
1522606673158419,1,-8,-2,2,1,-1,-7,-1
1522606673173459,6,-2,-4,-10,-9,-3,-3,-4
1522606673173459,5,8,2,1,2,-3,7,7
1522606673175465,1,0,-1,2,11,1,-3,-5
1522606673175465,-12,-3,-2,-12,-4,-1,-5,0
1522606673195518,-17,-5,1,12,-9,5,5,-13
1522606673195518,7,5,1,0,-2,-39,-3,5
1522606673197524,1,-4,-2,-5,-5,-1,0,8
1522606673197524,14,-2,-5,-6,-5,-43,0,-1
1522606673209555,13,6,5,25,9,6,-32,1
1522606673209555,-31,-12,-2,-11,-6,39,0,0
1522606673218579,-6,-6,0,2,-5,-13,4,-5
1522606673218579,1,-2,-2,4,8,10,-6,0
1522606673232616,8,1,-2,-9,-4,-5,6,1
1522606673232616,-14,1,1,6,2,3,-2,-5
1522606673239635,10,0,-4,-20,-11,3,11,2
1522606673239635,-16,-8,0,4,1,12,-7,-2
1522606673255678,11,1,-1,-5,5,4,3,-2
1522606673255678,5,1,0,0,-9,1,20,3
1522606673257683,-4,-2,-2,-3,-1,0,0,4
1522606673257683,15,4,1,6,0,-1,-3,-3
1522606673269715,-24,-10,-3,-5,-5,-8,8,-7
1522606673269715,-30,-2,-3,-3,5,-8,-13,-4
1522606673278739,10,2,0,7,0,-5,-4,1
1522606673278739,44,7,2,4,8,31,11,6
1522606673292776,-59,-6,-1,-7,-10,-46,-20,-6
1522606673292776,22,-1,-4,-14,-3,0,9,-1
1522606673299795,-2,-4,2,25,1,19,4,-1
1522606673299795,-11,-1,1,3,-2,-11,-1,-2
1522606673315838,24,8,-3,-46,-31,7,9,4
1522606673315838,-2,-3,6,64,48,-6,-14,2
1522606673317843,-5,1,-1,-8,-12,-10,1,-3
1522606673317843,-8,-10,-4,-14,5,34,2,-2
1522606673338899,34,2,1,26,-17,-5,5,6
1522606673338899,-13,0,-2,-22,-2,-2,0,2
1522606673339902,-2,0,-1,2,8,7,-4,4
1522606673339902,-25,1,-3,-20,-9,-3,-7,-4
1522606673352936,-15,-1,-1,18,26,6,3,-2
1522606673352936,16,-3,-3,-23,-28,-4,-18,4
1522606673359955,4,-2,1,24,10,-3,-9,-4
1522606673359955,-2,2,1,9,19,-4,3,1
1522606673375997,-1,-1,1,-10,0,-1,5,8
1522606673375997,14,-1,-2,-3,-8,7,-5,-5
1522606673378003,0,0,-2,-23,-20,-14,-7,2
1522606673378003,0,0,1,20,1,-22,-1,-6
1522606673398057,9,-6,-4,-1,1,-11,-18,2
1522606673398057,19,0,1,12,6,-22,-5,2
1522606673400062,-104,-16,-8,-45,-13,11,17,-16
1522606673400062,25,4,0,22,-23,-27,-53,-4
1522606673413096,7,2,-2,5,31,14,-1,-6
1522606673413096,16,5,-3,-25,-18,0,4,2
1522606673419112,58,5,5,21,15,19,6,8
1522606673419112,-37,9,-2,-21,0,-8,11,1
1522606673436159,-35,-10,-1,10,31,-7,3,-9
1522606673436159,6,-1,3,-6,3,3,-5,1
1522606673437161,64,9,3,13,-11,6,0,5
1522606673437161,-74,-6,2,0,-10,7,12,-1
1522606673458216,-16,-9,-9,-13,-12,12,-11,-18
1522606673458216,-11,4,6,-8,-5,-8,19,-4
1522606673460222,-2,-7,-6,-13,-7,-10,-5,-1
1522606673460222,18,0,0,36,30,17,15,0
1522606673473256,18,2,-1,-10,-10,13,8,-1
1522606673473256,-19,3,6,-1,3,-8,7,11
1522606673479272,20,-6,-1,15,-4,-9,-1,5
1522606673479272,14,7,-2,-27,5,33,29,4
1522606673496317,-7,3,2,3,7,-1,-3,-6
1522606673496317,13,6,2,13,-8,13,6,0
1522606673497320,-3,0,-2,-9,0,-6,-4,-3
1522606673497320,-13,-19,-8,-8,-2,0,38,-1
1522606673518376,32,3,-2,-14,-1,-2,15,14
1522606673518376,-42,-2,3,-10,-15,4,-19,-11
1522606673520382,23,0,0,13,31,-5,18,4
1522606673520382,-1,4,4,3,2,-8,-49,-10
1522606673532414,-4,-1,-3,-8,6,26,10,1
1522606673532414,13,1,-4,2,-16,-28,-3,8
1522606673539432,-16,2,-1,-9,9,12,6,0
1522606673539432,19,1,5,3,-1,-15,-26,-9
1522606673556478,17,-5,-5,-34,-34,-7,-4,9
1522606673556478,-7,-5,-6,10,37,20,-6,-7
1522606673557481,4,8,1,20,-6,-15,-14,8
1522606673557481,16,2,7,-19,-37,-9,-12,12
1522606673578536,7,12,4,37,25,33,42,15
1522606673578536,-28,-13,-6,-4,-27,1,8,-17
1522606673580542,6,-9,-2,-11,1,6,7,4
1522606673580542,15,1,-5,-17,-28,-1,5,-3
1522606673592573,-41,-6,1,-5,7,-29,-35,-7
1522606673592573,40,5,-6,15,25,1,-2,6
1522606673600595,-19,0,-2,-1,-9,-8,-33,-10
1522606673600595,-28,5,5,0,12,50,8,2
1522606673615635,3,-11,-5,-13,-32,-26,-11,-13
1522606673615635,4,0,0,18,7,3,2,2
1522606673617640,1,-5,-3,-41,-11,-35,0,-2
1522606673617640,17,1,-1,53,22,9,3,7
1522606673638696,-8,-3,-3,-6,-22,-2,42,1
1522606673638696,24,3,-4,-5,13,7,-24,-1
1522606673639699,-30,8,10,15,5,15,22,1
1522606673639699,-25,-14,-13,-32,-14,-35,-25,-10
1522606673651731,5,0,6,18,7,-11,-21,-3
1522606673651731,12,-13,-1,-1,1,1,-2,12
1522606673660755,-2,4,-5,-7,-24,6,2,6
1522606673660755,13,-1,-4,-2,10,-11,6,-1
1522606673675795,20,2,0,5,7,7,-7,5
1522606673675795,-33,1,-1,-14,-8,-6,16,-5
1522606673677800,-21,-11,2,9,6,5,-15,-7
1522606673677800,1,5,-6,0,-6,-6,0,-11
1522606673698856,24,4,0,2,0,1,0,9
1522606673698856,0,-1,1,-3,-4,9,1,0
1522606673699859,13,2,-3,3,2,-40,2,-5
1522606673699859,-3,-9,-2,1,-4,-2,2,6
1522606673711891,-7,-10,0,-1,2,-1,-5,-10
1522606673711891,-2,7,0,-2,6,9,-5,-7
1522606673720915,-19,8,5,2,29,1,-4,-3
1522606673720915,27,4,2,-5,-31,-2,-4,7
1522606673735955,-3,0,-4,-2,-12,0,-1,-15
1522606673735955,-8,-7,-3,-7,-1,14,8,-2
1522606673737960,18,-2,-6,-2,6,5,37,1
1522606673737960,-30,-1,1,4,17,-12,0,-10
1522606673758014,-7,-1,-1,12,7,19,-9,2
1522606673758014,3,3,2,-3,-8,-12,-4,11
1522606673760019,-11,-3,2,-25,-5,5,-11,-10
1522606673760019,-4,-4,2,42,4,-1,1,-5
1522606673772051,-2,2,1,-1,-14,-17,8,4
1522606673772051,24,8,-1,-7,13,0,0,5
1522606673781075,6,-6,-1,13,2,13,1,3
1522606673781075,-16,-2,-9,-15,1,6,7,-13
1522606673796115,-13,13,14,0,0,-2,-10,-5
1522606673796115,12,3,2,3,-7,-5,1,4
1522606673797118,-11,-2,-3,-3,-8,-1,-16,-23
1522606673797118,12,-4,-5,-8,-2,-5,-3,2
1522606673818174,8,-2,-5,3,4,27,0,7
1522606673818174,-8,2,5,-5,9,-28,7,-3
1522606673820179,12,1,0,6,-11,6,-9,14
1522606673820179,-4,-3,-2,-6,-1,-3,-1,0
1522606673832211,-2,13,-2,-6,2,3,5,3
1522606673832211,-8,1,8,3,-14,27,-3,-2
1522606673841235,0,-9,-7,-23,1,-26,7,-5
1522606673841235,9,1,3,18,-12,-9,-16,3
1522606673856275,23,-2,-1,18,44,0,-1,15
1522606673856275,-30,-6,-11,-6,-16,-8,-3,-24
1522606673857278,-28,3,2,3,-3,21,1,3
1522606673857278,3,-3,-2,-21,-3,7,3,7
1522606673878334,13,0,-1,-11,-12,-21,-11,1
1522606673878334,6,-1,0,4,5,3,7,-2
1522606673880339,6,2,-4,-20,-10,-1,-31,-6
1522606673880339,-14,-9,-1,16,11,25,10,-5
1522606673892371,-11,-1,-1,11,-1,-12,-9,2
1522606673892371,4,-4,-5,-5,-11,-29,-7,-1
1522606673901395,-4,-6,-3,-1,-18,0,3,-1
1522606673901395,29,13,5,-1,16,8,2,15
1522606673916437,-21,-10,-4,-5,-1,24,7,-18
1522606673916437,-24,-5,-3,-43,-23,1,2,2
1522606673917438,-2,0,1,66,16,2,-8,-13
1522606673917438,21,2,3,7,1,-9,7,11
1522606673938494,-3,-2,-2,-26,0,-1,7,-7
1522606673938494,-18,-2,-3,11,10,-1,10,3
1522606673940499,10,-2,-3,-9,-8,-11,-42,2
1522606673940499,-9,-2,-2,-9,2,10,8,-1
1522606673952531,32,5,2,6,-25,-32,-7,1
1522606673952531,-3,-7,-5,-12,-1,0,-4,-6
1522606673961555,-20,-3,1,3,-2,2,8,-7
1522606673961555,-12,-2,-4,-5,-2,-22,-7,-5
1522606673975592,31,1,-2,-36,-4,-13,-26,-3
1522606673975592,-42,-8,-1,32,-6,26,41,-3
1522606673977599,-2,3,4,19,23,-8,-38,3
1522606673977599,2,-8,-1,-9,-8,-7,-5,-5
1522606673998654,-20,-8,-6,1,-8,4,-4,2
1522606673998654,33,5,1,-26,-23,8,2,6
1522606673999656,5,6,-1,8,39,-24,17,4
1522606673999656,-17,-5,3,14,4,14,-13,-7
1522606674011688,-12,-3,0,13,6,-11,-1,2
1522606674011688,32,3,-2,19,8,-4,-10,-4
1522606674020712,-25,-10,-8,-32,-24,8,-3,-4
1522606674020712,-4,4,1,-16,-26,-18,-3,4
1522606674035752,-25,-1,1,-1,1,18,19,-13
1522606674035752,12,3,0,16,2,-18,-14,6
1522606674041768,22,-6,-1,-5,-5,14,17,8
1522606674041768,1,0,-3,-16,-32,-15,3,-3
1522606674058814,5,8,2,30,44,22,12,3
1522606674058814,-6,-5,2,3,8,15,-5,1
1522606674059816,-17,0,0,-3,13,-6,-5,-2
1522606674059816,26,0,-4,8,5,8,11,-10
1522606674071848,-6,-3,-3,-17,-34,-16,-4,0
1522606674071848,5,4,1,-6,3,-6,-13,4
1522606674080872,8,-1,-1,3,-6,10,19,2
1522606674080872,0,2,-2,-4,14,2,-1,0
1522606674095912,-14,3,-1,1,-4,-3,-8,-4
1522606674095912,3,-8,-3,-4,13,-19,-9,-4
1522606674097918,3,0,-1,-12,-26,10,10,3
1522606674097918,-2,1,-1,-10,6,-6,-2,-1
1522606674118974,12,6,2,3,2,2,-2,2
1522606674118974,30,-3,3,7,0,4,3,2
1522606674119976,-43,-3,-3,-6,-9,-7,5,-5
1522606674119976,14,2,3,4,13,1,-1,4
1522606674132008,-6,1,1,2,3,5,1,2
1522606674132008,-4,-4,-4,-17,-17,-11,-6,-5
1522606674141032,23,1,-1,4,28,3,2,-1
1522606674141032,-15,-4,1,0,14,-5,2,-1
1522606674156074,24,1,1,6,9,8,-1,-3
1522606674156074,-32,-3,-6,7,-2,-23,-16,0
1522606674157075,35,3,-3,-7,-14,0,-1,-2
1522606674157075,-40,-3,1,-19,-14,-15,-5,-9
1522606674178131,10,-5,-3,-7,26,2,-1,2
1522606674178131,-4,-6,-2,10,9,15,17,4
1522606674180136,3,2,1,7,-8,-7,13,7
1522606674180136,7,3,-4,-10,1,-4,-1,-2
1522606674192168,-11,-10,-1,-14,-25,-1,-3,3
1522606674192168,16,6,-1,-6,-32,-65,-40,-8
1522606674201193,0,4,-1,7,1,5,0,2
1522606674201193,-13,-9,1,19,4,9,0,-5
1522606674215230,3,8,-1,2,0,-3,6,13
1522606674215230,-12,-12,-4,-9,0,29,5,-19
1522606674222248,-8,-1,5,3,12,-9,-7,-7
1522606674222248,5,5,-2,-15,-22,-19,1,3
1522606674238291,-6,0,1,34,28,15,-3,-6
1522606674238291,11,3,4,1,13,31,3,6
1522606674240296,20,-2,-2,-23,-17,-24,-5,5
1522606674240296,-17,-6,-3,-17,-41,26,15,-11
1522606674261352,-11,-1,1,39,29,-66,-43,-8
1522606674261352,7,4,1,-15,6,-1,20,11
1522606674262355,-19,-7,0,7,-16,-16,-43,-14
1522606674262355,12,5,1,17,18,10,-7,10
1522606674275390,1,-4,-4,-22,-28,-8,13,1
1522606674275390,-16,-1,0,6,10,5,3,-8
1522606674282408,2,2,-3,-11,-10,11,9,1
1522606674282408,1,-2,2,-2,29,-9,0,6
1522606674298451,5,-4,-2,0,-19,15,-5,-2
1522606674298451,-1,1,-3,2,10,-3,8,8
1522606674300456,-13,-1,1,-8,-8,13,13,-6
1522606674300456,14,2,0,-7,13,49,8,2
1522606674320509,-18,1,3,23,5,-11,-4,4
1522606674320509,11,5,1,-4,-15,-3,-22,20
1522606674322515,2,10,2,15,16,0,2,-12
1522606674322515,1,1,-3,2,-14,-9,-3,4
1522606674335549,-8,-9,3,-29,-5,25,12,-3
1522606674335549,2,2,3,15,2,-9,-5,-1
1522606674342568,16,1,0,7,-1,14,11,16
1522606674342568,12,-1,-3,15,15,-32,-2,-2
1522606674358611,-19,2,-8,-22,-25,5,7,-7
1522606674358611,1,-3,4,6,6,3,1,-17
1522606674359614,1,2,-5,-14,-5,8,4,5
1522606674359614,16,-6,0,8,7,2,1,1
1522606674380669,-31,-2,0,-4,-4,3,6,-3
1522606674380669,2,-5,-2,-6,-7,-16,5,-7
1522606674382675,-21,-5,-2,0,7,10,-13,-8
1522606674382675,18,5,1,-2,-4,-3,-2,5
1522606674395709,-3,-13,-7,-6,-15,-2,1,-2
1522606674395709,-23,3,-3,-4,7,13,5,-1
1522606674401725,2,-1,-3,-3,-5,-9,3,-7
1522606674401725,-3,-8,1,4,-1,-7,-6,-7
1522606674418771,17,2,-1,-5,16,5,4,21
1522606674418771,-1,-8,-2,3,-15,0,0,-9
1522606674419774,5,-1,-3,3,1,1,7,16
1522606674419774,-4,-1,-4,-6,-5,-3,-1,-8
1522606674440829,-2,2,-1,-3,-1,0,-2,-6
1522606674440829,5,-1,-4,-6,-2,-3,1,6
1522606674442835,-8,-14,0,6,-1,2,-2,-2
1522606674442835,4,6,-1,-5,-1,-2,-5,2
1522606674454867,6,3,1,4,-10,-8,0,0
1522606674454867,-7,7,4,1,3,4,-3,-8
1522606674461885,-8,-8,4,4,15,12,3,2
1522606674461885,-11,-4,-3,0,-5,3,-3,0
1522606674478931,16,-2,-3,-5,-13,-11,2,3
1522606674478931,-3,-4,-5,-3,0,-3,-2,1
1522606674479933,12,11,6,-2,-2,-1,-2,-4
1522606674479933,-8,-6,0,9,13,2,3,3
1522606674500990,-2,7,-3,-10,-1,1,-5,0
1522606674500990,0,3,-1,-17,-12,32,1,-5
1522606674502995,0,-1,-1,32,10,-1,10,3
1522606674502995,-1,-4,-1,1,-7,-7,-4,-1
1522606674515027,-13,-7,0,-1,0,-5,3,-5
1522606674515027,-8,-9,-7,-4,0,6,-6,-1
1522606674522045,16,19,-3,-14,-8,-4,0,4
1522606674522045,10,5,6,-3,-3,-2,-5,4
1522606674538088,-8,-19,-7,-6,-1,4,-3,-9
1522606674538088,2,0,2,10,10,-11,3,7
1522606674540093,3,-3,-2,-7,-2,-3,-1,1
1522606674540093,-14,-3,-6,3,-5,-5,-2,-2
1522606674561149,8,9,1,-5,-3,-3,2,2
1522606674561149,7,-1,-2,2,7,-2,1,-3
1522606674562152,5,-9,-6,-6,-9,-7,-2,0
1522606674562152,-22,-5,0,-27,-22,0,-4,-6
1522606674574184,5,5,7,24,27,4,-1,2
1522606674574184,-18,-3,-3,-25,5,-5,-3,-2
1522606674583208,15,5,4,62,21,2,3,2
1522606674583208,1,-1,-3,4,4,0,3,0
1522606674598248,3,-4,-4,-21,-19,-3,-5,-6
1522606674598248,16,5,-1,5,1,-3,-2,13
1522606674600253,-3,0,2,-22,7,4,1,-1
1522606674600253,-11,-2,-5,-31,8,-4,1,-5
1522606674621309,-1,4,3,22,-68,1,4,-1
1522606674621309,15,3,2,-18,38,-2,2,4
1522606674622312,-8,-8,0,39,25,-30,-6,-6
1522606674622312,-17,-10,-3,10,4,3,-1,-4
1522606674634344,0,2,-2,-6,2,-2,2,-17
1522606674634344,-8,0,-4,-22,-47,-5,-15,-6
1522606674643368,1,-1,-3,-23,9,8,1,2
1522606674643368,36,4,0,25,9,-7,-1,2
1522606674658408,-14,-6,-5,-13,-2,6,1,0
1522606674658408,-28,-13,-4,25,-2,6,0,-4
1522606674660413,33,18,7,-15,-8,4,-2,-26
1522606674660413,-16,-4,5,5,-5,3,-1,5
1522606674681470,-4,-5,-4,-11,18,1,-1,-3
1522606674681470,20,5,2,2,-5,-8,1,2
1522606674682472,-16,-7,-6,6,-1,3,1,6
1522606674682472,13,10,-4,-13,-1,-6,-3,0
1522606674694504,-13,-4,4,11,7,0,0,-2
1522606674694504,10,1,-2,10,13,0,1,2
1522606674703528,7,2,1,-27,-29,-7,2,6
1522606674703528,-11,1,-3,-13,10,4,-8,-4
1522606674718568,3,-2,0,7,17,0,-3,1
1522606674718568,-7,2,1,29,32,7,7,8
1522606674720573,-23,-6,-2,6,1,-17,-4,-1
1522606674720573,4,0,2,-1,-20,-14,-6,-5
1522606674740627,-12,-3,-2,-15,-1,-4,1,4
1522606674740627,1,4,-2,-12,-26,-1,-3,-4
1522606674742632,9,-8,-5,-17,-19,-10,-20,0
1522606674742632,14,2,4,6,21,5,8,6
1522606674754664,-24,-1,0,4,0,9,2,-6
1522606674754664,-3,8,0,3,-5,-10,-2,-2
1522606674763688,-15,-17,-7,-10,0,6,-2,-4
1522606674763688,-4,1,0,4,-10,-3,0,-1
1522606674778728,36,5,0,-6,3,-1,-3,6
1522606674778728,-12,0,2,-10,-30,-2,-2,-9
1522606674779731,1,1,-2,1,27,4,3,10
1522606674779731,11,1,1,4,14,-1,-2,-3
1522606674800786,-12,2,3,15,-10,6,1,-1
1522606674800786,0,-2,1,3,1,6,0,1
1522606674802792,13,1,3,2,-1,-14,2,-2
1522606674802792,-21,-3,-5,-2,-5,3,-4,-4
1522606674814824,5,6,0,-5,0,-4,-4,0
1522606674814824,2,-6,-3,-32,-14,-2,-1,-3
1522606674823848,0,-2,0,20,7,31,10,10
1522606674823848,17,2,0,0,-9,-34,-22,-8
1522606674838888,-10,-3,-2,4,17,7,-2,-7
1522606674838888,-9,-1,-2,-8,-8,5,1,-3
1522606674839891,3,-5,-1,-20,-18,-12,2,-2
1522606674839891,-15,1,-3,-8,2,10,8,7
1522606674860947,25,2,1,9,-11,-10,-2,-1
1522606674860947,11,-3,0,9,1,-9,-5,-8
1522606674862952,-19,-1,1,-2,-16,9,8,-2
1522606674862952,-3,-1,1,-4,2,-4,3,-3
1522606674874984,10,0,-3,-8,3,-6,-4,9
1522606674874984,-7,-7,-2,16,1,-5,-2,-11
1522606674884008,-3,2,-4,-11,-1,-3,-8,-6
1522606674884008,2,-2,-4,-17,-38,-17,1,-3
1522606674898045,-23,-5,-2,13,16,29,-8,-2
1522606674898045,-4,-6,1,6,24,0,1,-9
1522606674900051,4,3,-2,-10,-18,9,2,9
1522606674900051,-19,0,5,4,-4,1,-5,-11
1522606674921107,19,1,-3,-14,-30,-24,1,3
1522606674921107,-3,4,-2,8,34,4,4,11
1522606674922110,-17,-17,-6,-2,-5,12,0,-9
1522606674922110,-8,-1,-5,-3,0,12,5,9
1522606674934142,8,3,1,1,7,-1,3,-6
1522606674934142,1,3,3,-1,-5,0,0,3
1522606674944168,-7,0,-3,-15,-13,-25,-5,-10
1522606674944168,-9,-2,0,22,16,12,1,6
1522606674958205,5,-3,0,-10,-1,-4,3,1
1522606674958205,-5,-3,0,9,0,-1,-2,-10
1522606674960211,-10,6,2,2,-12,2,-14,-6
1522606674960211,3,-4,-2,5,-3,11,8,-4
1522606674981267,27,1,-4,-5,-3,-3,-1,6
1522606674981267,0,-2,-1,-22,-25,-20,22,10
1522606674982270,1,2,1,33,19,30,10,-6
1522606674982270,-1,-4,1,-1,6,-4,-7,-13
1522606674994302,-8,-3,-3,-8,-14,-14,-8,2
1522606674994302,-1,-7,-2,4,-8,6,-4,-2
1522606675003325,-3,0,-3,-21,-14,-13,-2,8
1522606675003325,17,2,-2,3,18,7,9,8
1522606675018365,-7,-1,1,-8,14,-4,1,-2
1522606675018365,4,-3,1,13,3,-1,-23,-4
1522606675020371,-1,-2,0,12,3,7,4,-1
1522606675020371,-5,-5,0,-9,11,6,0,5
1522606675041427,20,-1,-3,-12,-25,-13,12,15
1522606675041427,-6,-2,-2,4,1,-1,-16,-20
1522606675042430,11,9,5,-11,4,-7,-1,-4
1522606675042430,-13,-8,-3,0,3,-1,-1,-9
1522606675054461,-10,5,1,8,7,-8,-6,-2
1522606675054461,10,4,-1,-3,-2,5,8,15
1522606675063486,11,2,-1,4,12,1,-2,-1
1522606675063486,24,7,0,-1,-9,-5,-1,5
1522606675078526,-39,-12,-4,9,-1,8,-4,-16
1522606675078526,-4,3,0,-4,2,-2,0,7
1522606675080531,-2,-4,0,-8,0,-12,-4,4
1522606675080531,11,0,0,7,-6,-2,-4,-3
1522606675100584,4,7,1,0,5,8,2,-4
1522606675100584,-8,-9,-5,-1,0,-5,-4,-6
1522606675102590,-4,6,-1,-2,-10,-10,-2,6
1522606675102590,5,-5,0,-1,-9,3,1,3
1522606675114621,7,2,2,1,3,2,-1,7
1522606675114621,-10,-1,-2,2,5,0,2,-10
1522606675123646,1,-1,-4,-3,-9,1,0,-2
1522606675123646,-3,4,3,1,5,-9,1,5
1522606675137683,-3,2,0,-2,6,5,0,-2
1522606675137683,5,-1,0,4,-3,3,11,-3
1522606675144702,-20,-6,-2,-5,-4,-8,-12,-9
1522606675144702,-18,0,-2,-3,-5,-1,-3,-6
1522606675160744,4,-4,-1,0,4,-7,6,-4
1522606675160744,25,2,2,-2,4,5,6,24
1522606675162750,-14,0,1,4,9,-1,-11,-2
1522606675162750,-11,-1,-4,-6,-9,-22,-5,-5
1522606675174782,-4,-2,-1,0,4,2,2,1
1522606675174782,-1,-2,-3,-9,-5,2,-2,2
1522606675183806,3,1,0,15,2,-5,4,-5
1522606675183806,-4,-1,-1,1,1,8,-3,3
1522606675197843,14,-5,-3,-4,-5,-3,-9,-5
1522606675197843,-26,-3,1,-10,-9,-14,1,-9
1522606675204862,8,0,0,3,8,5,-3,3
1522606675204862,19,-1,-2,-9,-6,10,5,2
1522606675220904,-4,1,1,17,4,3,4,6
1522606675220904,-6,-2,-4,-1,1,-5,-8,-17
1522606675222910,1,-8,-1,-12,-2,0,3,3
1522606675222910,-10,-2,1,1,0,0,0,-5
1522606675243965,-1,0,-2,-11,10,-2,-6,-4
1522606675243965,17,3,4,9,4,8,-1,10
1522606675244968,18,2,-2,1,-12,-16,1,1
1522606675244968,-13,1,-1,-4,-2,3,0,5
1522606675258003,-25,-10,-1,-4,-6,3,-2,-5
1522606675258003,16,1,-3,-34,-15,-4,1,2
1522606675265021,-7,0,1,32,14,9,4,1
1522606675265021,22,2,0,6,19,4,4,3
1522606675281064,-12,0,-2,3,4,-3,1,-4
1522606675281064,-7,-1,-1,-4,-8,3,-16,-6
1522606675283070,-2,0,-2,-35,-11,-7,-4,-4
1522606675283070,-7,-6,-2,23,-7,-6,-8,5
1522606675303122,-4,0,-1,-19,-2,-8,2,1
1522606675303122,12,4,0,15,22,6,3,8
1522606675305128,-2,0,0,14,-1,8,7,-4
1522606675305128,3,-3,-4,-1,-3,4,-4,-6
1522606675317160,-2,-2,0,-3,-6,-2,-3,-1
1522606675317160,-25,-4,-2,-10,-20,-1,0,2
1522606675326184,-20,-3,-5,-35,-21,-7,-4,-5
1522606675326184,-5,0,1,26,45,-1,0,-2
1522606675341224,16,0,0,-1,-20,-2,-2,2
1522606675341224,8,-1,-3,3,11,15,0,3
1522606675342227,-3,1,-1,-4,1,-11,2,1
1522606675342227,7,-3,-2,-5,-21,2,-1,-6
1522606675363283,7,2,-2,-4,9,3,-3,1
1522606675363283,3,1,2,9,-9,-4,2,-2
1522606675365288,18,-3,-4,-9,5,6,1,0
1522606675365288,-7,0,-3,-7,3,-2,-6,-6
1522606675377320,10,3,1,14,11,2,-1,2
1522606675377320,-36,-7,-1,-2,12,-8,6,-6
1522606675384339,15,1,-1,4,4,4,-3,7
1522606675384339,12,-1,-6,-21,-16,-5,-1,1
1522606675401384,-37,-4,0,3,-3,2,-4,-5
1522606675401384,-4,-3,1,3,-3,-10,-4,-4
1522606675402387,9,-2,0,-7,-4,-2,2,-2
1522606675402387,-19,3,1,-4,-4,-1,6,-7
1522606675423442,13,-4,-6,-3,-7,2,-5,2
1522606675423442,22,2,1,11,6,3,4,-4
1522606675425448,-20,-1,-4,-4,-26,4,-6,1
1522606675425448,3,-7,-3,2,42,-5,-2,-3
1522606675437480,4,1,1,-10,-26,-5,-2,-3
1522606675437480,-8,4,-2,2,-12,-8,1,1
1522606675444499,70,5,3,25,39,3,-2,4
1522606675444499,-48,-1,-4,-12,-48,7,-3,-5
1522606675460541,-43,-4,1,1,12,-5,-1,-8
1522606675460541,19,1,0,-11,-13,-4,2,2
1522606675462547,-5,-1,0,-5,0,1,-8,6
1522606675462547,27,8,2,3,-4,5,4,2
1522606675483603,6,-7,-2,-1,7,-5,0,-4
1522606675483603,-13,-2,-3,2,2,-2,-6,-4
1522606675484605,-9,0,-4,2,6,4,6,-2
1522606675484605,-4,-1,1,-17,-7,-12,-2,7
1522606675496637,10,2,0,16,-1,14,-1,-1
1522606675496637,18,-3,2,-8,3,-19,-1,0
1522606675505661,-21,-3,2,5,-15,0,-1,-7
1522606675505661,6,2,-1,-10,0,-4,-4,-2
1522606675520701,3,3,0,18,37,7,6,-4
1522606675520701,-38,-7,-2,-2,-22,-7,-7,-1
1522606675522707,-2,-5,-4,-7,-2,-2,-12,-5
1522606675522707,18,2,-1,-1,-37,7,2,4
1522606675543763,13,-2,-4,-16,24,-5,2,-4
1522606675543763,21,8,4,25,26,10,-1,-2
1522606675544765,-15,-8,-3,-3,-4,-3,6,0
1522606675544765,-7,-2,1,2,7,3,3,11
1522606675556797,11,4,-2,-16,-18,-5,-1,6
1522606675556797,-10,0,3,-4,-6,6,1,-7
1522606675565821,6,7,3,18,14,-1,4,2
1522606675565821,0,-2,-3,-3,-8,0,-2,-1
1522606675580861,6,1,-1,-6,-11,-5,7,-4
1522606675580861,11,-1,-3,-1,18,-8,-8,4
1522606675582867,-14,-3,-1,-14,-26,-22,-7,-12
1522606675582867,-4,-1,0,0,5,-5,-3,-2
1522606675603922,-8,-6,-2,37,16,10,4,-3
1522606675603922,11,1,-1,9,39,14,-15,10
1522606675604925,-14,-1,-3,-8,-18,0,5,7
1522606675604925,-11,-8,-2,-18,-3,-6,-3,-12
1522606675616957,0,3,2,-26,-21,-12,-5,2
1522606675616957,5,-2,-2,13,-5,7,3,3
1522606675625981,-5,0,0,5,3,-1,12,5
1522606675625981,2,-3,-1,-2,10,7,-9,-13
1522606675641021,-7,-1,0,7,-17,8,-1,-2
1522606675641021,23,0,-6,-15,-18,-1,3,4
1522606675643027,-21,4,3,-8,15,9,9,-6
1522606675643027,-13,3,4,12,-10,-18,3,-2
1522606675663080,17,-6,-2,-14,-15,-4,-12,-4
1522606675663080,-21,0,1,-16,6,-2,12,4
1522606675665086,13,-5,-1,43,18,-1,-5,2
1522606675665086,4,9,2,7,10,6,-11,-1
1522606675677118,4,1,2,-1,9,-3,-4,4
1522606675677118,-1,-1,-3,-9,-14,-1,3,0
1522606675686141,-5,-9,-5,-42,-5,4,-1,-5
1522606675686141,6,-1,1,28,-6,-5,4,-1
1522606675701181,2,-1,-1,-6,14,-4,2,0
1522606675701181,12,-2,-2,7,-14,1,-6,-5
1522606675702184,6,-2,0,7,7,9,-8,-5
1522606675702184,-10,-1,1,-11,-6,-10,2,-9
1522606675723240,-17,0,-3,-7,-21,-5,1,10
1522606675723240,15,-2,-1,-6,7,2,4,8
1522606675725245,7,2,2,-12,-24,-2,-1,-1
1522606675725245,-12,-2,4,47,48,8,4,5
1522606675737277,-1,-2,-1,8,-4,1,-1,-5
1522606675737277,-5,2,-1,2,0,-2,3,4
1522606675746301,10,7,-2,-8,-4,-3,1,5
1522606675746301,-7,-7,-6,-25,-11,1,-2,-1
1522606675761341,2,6,5,-5,3,-2,-7,0
1522606675761341,-17,-11,0,14,-2,-2,-6,-10
1522606675762344,11,9,-1,-6,1,-4,0,1
1522606675762344,4,-4,-6,-12,-4,5,6,0
1522606675783400,-6,-5,-4,13,4,5,3,-7
1522606675783400,-7,8,6,0,-7,-9,-9,-4
1522606675785405,-8,-5,-2,6,9,3,0,0
1522606675785405,7,-3,-5,-11,-8,-1,1,5
1522606675797437,7,0,-3,-9,-11,4,5,-3
1522606675797437,-23,-8,-4,-7,0,-5,-10,-11
1522606675806461,-5,-5,-3,6,2,-4,-1,-4
1522606675806461,8,-5,-5,-7,-7,0,-3,1
1522606675820498,6,9,-3,-8,3,-8,-3,6
1522606675820498,-3,2,-4,2,-7,-1,3,-4
1522606675822504,-5,-4,1,3,-9,4,-3,-3
1522606675822504,7,-7,-6,-6,0,0,-2,3
1522606675843560,7,17,12,6,-2,-1,2,4
1522606675843560,5,6,4,4,6,1,2,7
1522606675845565,-8,-6,-4,-4,3,-5,-5,-5
1522606675845565,3,3,0,-3,-5,4,6,3
1522606675857597,-4,-18,-5,4,2,0,-6,-5
1522606675857597,9,2,-1,-4,-2,-1,-1,0
1522606675866621,-2,-7,-1,-2,3,-1,1,5
1522606675866621,-8,10,4,1,-3,-3,-8,-12
1522606675880658,35,16,8,3,0,-3,2,11
1522606675880658,-43,-6,-1,-6,-9,3,-2,-11
1522606675882664,-4,-2,0,2,8,-8,-4,-5
1522606675882664,-1,-3,-3,3,6,28,2,0
1522606675903720,-4,-7,-3,13,-7,-13,7,5
1522606675903720,17,0,-3,-1,2,6,4,8
1522606675904723,5,1,0,-4,-4,-6,-9,-6
1522606675904723,-19,-3,0,-4,-2,0,-4,-1
1522606675916755,-2,1,-2,-10,-1,2,4,1
1522606675916755,-3,6,1,1,-3,-4,0,5
1522606675925779,-1,5,3,3,3,1,4,14
1522606675925779,17,-4,-3,-4,7,-2,2,3
1522606675940818,-29,-10,-5,-4,-2,-8,-6,-9
1522606675940818,-8,-5,-9,-2,-9,-7,-2,-9
1522606675942824,-5,-5,3,-4,0,2,-3,7
1522606675942824,8,9,8,-11,-7,-7,2,-6
1522606675963880,-1,-10,-5,8,7,-5,-5,2
1522606675963880,7,1,-2,8,17,12,-4,2
1522606675964883,16,4,-7,-33,-31,-2,3,5
1522606675964883,-9,-3,1,53,37,-4,-5,-14
1522606675977917,-5,-4,-1,-3,-18,-3,-4,2
1522606675977917,-11,-5,-3,-43,2,-5,-6,-9
1522606675985939,13,2,3,49,23,12,4,2
1522606675985939,19,-1,0,-18,-30,-17,4,4
1522606676000979,10,1,-3,-9,1,0,-2,-3
1522606676000979,-29,-5,-1,4,-1,-4,3,-5
1522606676002984,-17,-2,-4,-7,9,4,-3,-3
1522606676002984,-4,0,-1,-11,-9,-5,-4,6
1522606676023037,20,2,-4,-50,-61,2,-2,-4
1522606676023037,3,-4,5,64,51,9,8,3
1522606676025043,-8,2,0,4,24,2,0,-14
1522606676025043,-6,-1,-4,0,-7,-13,-18,4
1522606676037075,-2,-5,1,16,-4,10,-1,1
1522606676037075,11,0,-10,-70,-63,-3,-1,3
1522606676046099,13,4,3,42,-18,-5,0,0
1522606676046099,-12,-1,4,21,52,14,9,0
1522606676061138,-7,-5,-2,2,14,2,-5,-5
1522606676061138,14,0,-4,-31,-41,0,1,2
1522606676063144,-2,1,-4,-17,4,-9,2,-3
1522606676063144,16,3,-4,7,-4,-1,0,3
1522606676083197,-32,-3,4,31,21,-8,-5,-10
1522606676083197,-34,-6,-4,-22,43,12,-3,-6
1522606676085203,-4,-5,-6,-10,0,26,-5,-4
1522606676085203,26,3,1,36,11,-20,7,4
1522606676097234,-15,1,0,2,48,34,-2,2
1522606676097234,3,2,1,8,-51,-39,4,4
1522606676106259,-4,-3,-4,-30,-29,-16,-5,-7
1522606676106259,3,-4,-8,-76,-93,-2,-9,-4
1522606676120296,12,1,2,64,78,23,0,0
1522606676120296,18,2,5,45,24,-2,2,2
1522606676127314,1,0,3,5,6,-34,6,4
1522606676127314,-6,3,4,29,9,21,2,-2
1522606676143357,-6,-7,-7,-45,-48,1,-1,-4
1522606676143357,-4,1,-2,4,-9,2,-2,-2
1522606676145363,1,9,1,-16,1,-9,-4,0
1522606676145363,30,-7,-4,-7,-17,-8,1,5
1522606676166418,-15,-1,-3,-17,-22,-22,-4,-2
1522606676166418,-13,-6,-4,6,44,5,-5,-8
1522606676167421,10,1,1,-3,-24,27,4,4
1522606676167421,-12,1,-8,-20,8,-18,0,4
1522606676180456,12,4,6,5,1,5,4,-3
1522606676180456,10,-11,1,-3,-12,-3,-1,-3
1522606676187475,-3,0,1,-31,-14,-9,-11,2
1522606676187475,-9,2,-2,23,18,6,1,0
1522606676203517,-4,2,-4,-1,62,-8,2,5
1522606676203517,5,-2,-3,1,-21,-2,-1,-4
1522606676205523,-7,-1,-7,-3,-5,10,5,5
1522606676205523,-5,-10,6,5,17,-1,-14,-7
1522606676225576,-6,-2,0,-24,-82,-15,-7,-8
1522606676225576,33,5,-1,3,15,0,-2,2
1522606676227581,-32,-2,-4,0,15,16,3,-3
1522606676227581,-18,3,11,13,-22,4,4,0
1522606676240616,12,0,-3,25,10,-8,-3,-2
1522606676240616,0,4,2,-3,-3,7,-1,2
1522606676246631,3,-3,-4,9,2,-2,2,-4
1522606676246631,-8,0,-3,-34,-6,3,-4,-9
1522606676263677,11,-2,-5,-30,-35,-17,-4,-1
1522606676263677,-3,3,5,13,36,3,1,6
1522606676264680,13,1,-3,-17,-40,28,-1,0
1522606676264680,-11,3,0,1,32,8,7,1
1522606676285736,4,-4,-2,14,21,10,3,1
1522606676285736,-13,-4,-7,-15,1,7,-3,-2
1522606676287741,5,7,10,2,0,-18,-1,3
1522606676287741,6,-2,-2,-10,-34,-4,1,6
1522606676300776,1,-2,-2,10,4,5,1,-5
1522606676300776,-9,-6,-5,-1,-43,-15,-1,-1
1522606676306792,2,-4,0,9,42,-5,-2,1
1522606676306792,2,-1,-2,22,22,0,-8,-13
1522606676323837,16,4,-1,-2,3,-6,5,9
1522606676323837,-27,4,4,-3,-23,-7,8,2
1522606676324840,-16,-5,-2,14,13,4,-3,-3
1522606676324840,-1,-2,-5,-16,-5,-7,-11,10
1522606676345896,-10,-3,-1,-13,-12,-4,-4,-14
1522606676345896,12,0,3,-15,-7,2,-1,-1
1522606676347901,0,1,3,29,43,-6,-2,-13
1522606676347901,-12,-3,-4,-1,-26,-15,4,-1
1522606676359933,8,0,-6,-8,-4,-3,-5,2
1522606676359933,1,2,1,-9,0,-1,-1,1
1522606676366952,16,1,1,-3,-26,-6,0,12
1522606676366952,5,0,4,14,20,11,5,-3
1522606676383997,-44,-2,-1,-10,-30,-5,1,-7
1522606676383997,8,0,-1,19,23,9,-8,-5
1522606676385000,7,1,-1,-9,-10,-7,-5,-10
1522606676385000,-3,-1,-2,-12,-11,-3,2,-1
1522606676406056,-2,1,0,1,17,5,5,6
1522606676406056,15,5,-1,23,-11,-2,6,6
1522606676408061,13,2,-1,1,11,-1,0,1
1522606676408061,-16,-8,-4,-10,-13,-2,3,13
1522606676420093,-1,-12,-8,-6,10,3,-12,-9
1522606676420093,-11,5,2,-4,3,-5,-5,-12
1522606676428114,1,-2,-2,-1,-3,-8,-1,2
1522606676428114,1,2,0,-6,7,2,3,-1
1522606676443154,-10,-6,1,4,-8,-19,1,0
1522606676443154,20,-8,-7,5,21,18,2,7
1522606676445160,6,5,-3,0,-18,-10,7,20
1522606676445160,-19,4,1,-10,-13,2,-2,-8
1522606676466216,8,3,3,4,2,1,-10,-17
1522606676466216,-1,3,2,-2,-7,-10,-3,2
1522606676467218,-6,-6,-5,-5,6,0,2,-1
1522606676467218,-2,-7,-1,-1,6,1,2,-7
1522606676479250,4,2,-4,-31,-7,1,3,6
1522606676479250,-5,-2,9,36,12,-1,-14,-4
1522606676488274,-4,-2,-1,7,0,0,-18,-16
1522606676488274,13,7,3,-1,0,-4,3,3
1522606676503314,-7,-1,-4,-1,0,8,3,4
1522606676503314,13,-1,-4,-20,-5,-1,7,2
1522606676505320,-10,-4,5,4,-2,-2,6,-2
1522606676505320,-5,-1,-1,1,-3,-3,-10,-7
1522606676526376,-5,-12,-2,3,-1,-1,-2,-3
1522606676526376,-5,0,-8,-10,-8,-1,7,2
1522606676527378,-11,-4,1,8,-2,1,-7,-10
1522606676527378,2,-1,-6,-8,5,3,-1,-3
1522606676539410,10,1,6,9,5,4,3,10
1522606676539410,-5,-3,-2,-1,-2,-4,-2,-8
1522606676548434,-9,-6,-2,-7,-3,-2,3,1
1522606676548434,5,8,-1,3,5,2,-2,2
1522606676563474,0,-6,-3,5,-13,-3,-3,3
1522606676563474,2,1,1,-2,-1,-3,-2,0
1522606676565480,-8,2,3,-18,-5,-1,2,0
1522606676565480,4,-9,-1,12,-9,-5,-7,-3
1522606676585533,15,11,5,23,16,0,-2,-3
1522606676585533,-26,-6,-3,5,12,0,1,-15
1522606676587539,10,-1,-5,2,-7,1,0,2
1522606676587539,-10,-2,-3,-11,-2,-1,4,2
1522606676599570,1,0,-4,-17,-8,3,2,-3
1522606676599570,9,3,0,-28,-14,-4,-11,4
1522606676608595,-2,2,2,26,14,5,3,0
1522606676608595,8,-2,-1,-3,-7,-11,1,-2
1522606676623634,-3,3,-2,-28,-1,-8,7,2
1522606676623634,17,-1,2,24,7,8,-8,3
1522606676624637,-30,-2,-5,-2,1,2,2,-6
1522606676624637,4,-3,-1,5,-9,1,-3,2
1522606676645693,-12,3,-3,-35,-24,-7,2,-2
1522606676645693,-1,-2,4,20,11,-3,2,-3
1522606676647699,3,-7,-3,-15,-19,-9,-4,1
1522606676647699,13,-2,3,34,30,13,1,-24
1522606676659730,-18,2,-2,11,3,-1,-2,0
1522606676659730,4,5,0,-11,-5,-2,2,3
1522606676668755,-3,-8,-4,0,-8,-4,1,6
1522606676668755,-9,-1,-2,-16,-7,-6,-1,1
1522606676683794,10,3,0,-2,-4,0,-5,3
1522606676683794,5,1,-2,2,12,0,4,-1
1522606676684797,1,-1,1,-7,13,4,4,-3
1522606676684797,4,2,1,13,9,1,-4,9
1522606676705853,-12,-5,1,23,13,1,2,0
1522606676705853,-23,-7,-8,-28,-19,-8,-2,10
1522606676707858,36,3,-1,-14,-8,0,-3,3
1522606676707858,25,3,1,-17,4,-8,0,6
1522606676719890,-38,-4,2,36,-64,6,2,-2
1522606676719890,-1,-6,1,9,70,11,2,-4
1522606676728915,16,6,-2,-11,-10,-5,-3,-2
1522606676728915,-15,-8,-2,16,7,18,3,0
1522606676743954,19,-3,-2,-4,11,-22,-4,1
1522606676743954,3,1,-3,-52,-56,-10,-2,0
1522606676744957,-4,-4,0,45,18,8,0,-1
1522606676744957,-1,2,2,-24,-22,-8,-3,-1
1522606676767016,-8,1,0,17,16,6,1,3
1522606676767016,19,-2,-6,-15,0,10,4,-1
1522606676769021,-18,5,5,12,42,-9,-11,-3
1522606676769021,9,0,-4,4,-2,-2,1,5
1522606676780050,-27,-7,0,-8,-4,0,-2,-3
1522606676780050,-3,1,0,7,-4,4,-2,-4
1522606676789075,11,0,-4,-12,-39,12,10,10
1522606676789075,-39,-3,-2,-10,-2,-4,-10,-1
1522606676803112,29,1,1,7,10,7,10,5
1522606676803112,-2,-1,1,7,37,0,6,3
1522606676809128,7,1,2,2,-16,-14,-16,-9
1522606676809128,-4,-3,0,-9,24,46,14,2
1522606676826173,2,-4,-5,-17,18,29,-27,-10
1522606676826173,-9,2,3,19,-26,-29,9,7
1522606676827176,-21,-2,-2,-7,-9,11,2,-2
1522606676827176,20,5,-2,2,14,-13,10,-3
1522606676839208,32,-2,0,-15,-16,14,-14,-10
1522606676839208,-14,-1,-1,7,-11,-10,9,1
1522606676848232,12,1,-3,-5,11,-1,-11,-1
1522606676848232,-53,-9,-6,-7,5,-7,3,-14
1522606676863272,0,-3,-2,2,34,15,12,9
1522606676863272,16,4,2,3,-23,-28,-20,-12
1522606676869288,7,3,-2,-10,-9,-4,9,10
1522606676869288,6,-6,-2,-7,-25,-16,-16,2
1522606676886333,-6,0,0,6,4,-13,0,-5
1522606676886333,-5,-1,-2,-4,8,9,3,-1
1522606676887336,-1,-2,-3,-11,0,3,-11,-4
1522606676887336,18,5,2,2,6,19,5,-8
1522606676899368,-8,8,7,1,12,-32,-1,0
1522606676899368,6,-3,3,0,-9,8,1,0
1522606676908392,-16,0,-3,-2,13,19,4,-4
1522606676908392,3,1,-5,-4,-32,-33,-4,5
1522606676923432,11,-5,-10,-36,-26,-3,4,-3
1522606676923432,-15,-3,2,38,47,25,-8,-5
1522606676925437,-17,2,6,-4,-22,-14,3,3
1522606676925437,3,-4,4,9,26,9,-1,-3
1522606676946493,-18,3,-2,-19,-9,13,2,0
1522606676946493,17,-1,-1,7,-24,-65,-37,0
1522606676947496,-1,-6,-5,0,12,-6,-4,4
1522606676947496,9,10,1,4,2,5,2,5
1522606676959528,-2,-7,-2,13,-4,-14,-4,-5
1522606676959528,-8,-7,-6,-17,-12,25,4,-5
1522606676968552,-29,-2,-2,-3,-13,-8,1,-12
1522606676968552,8,2,-1,1,-15,-35,-11,1
1522606676983591,31,5,-1,-1,19,12,1,6
1522606676983591,-18,-3,-2,5,-39,-14,10,-7
1522606676985597,20,0,2,14,40,8,8,4
1522606676985597,4,0,-1,6,30,29,29,0
1522606677005651,-13,-4,7,13,-9,5,-36,-13
1522606677005651,9,-3,-2,-18,-3,-55,-10,10
1522606677007656,-14,0,-5,3,-10,1,-7,-3
1522606677007656,-6,-11,-7,-9,-6,31,-6,-1
1522606677019687,20,7,0,18,15,-17,15,10
1522606677019687,-10,2,1,-8,-2,29,10,-1
1522606677028713,1,-8,-4,-25,-14,5,-3,-5
1522606677028713,-1,9,2,19,10,-27,-10,5
1522606677042749,6,-4,4,4,20,14,37,3
1522606677042749,-17,2,-6,16,-6,19,-7,-6
1522606677049767,10,-3,2,0,-3,-16,-6,-1
1522606677049767,-13,-8,-3,-11,-14,7,-11,-7
1522606677065811,1,3,-4,-6,-3,-38,18,12
1522606677065811,8,3,-4,-1,-7,8,14,-3
1522606677067816,5,-2,-4,5,1,-2,6,-2
1522606677067816,-2,6,9,-6,-13,-9,-7,-6
1522606677088872,17,-3,-2,4,-2,5,-3,8
1522606677088872,-34,-22,-10,-7,4,8,7,-5
1522606677089874,-16,4,2,-3,-5,-3,-3,-8
1522606677089874,9,1,-2,-4,-4,-1,-1,13
1522606677102909,-4,6,6,5,-35,-14,-4,-7
1522606677102909,12,-1,0,-7,21,13,-4,6
1522606677109927,7,-4,-3,-2,-5,10,3,-1
1522606677109927,-1,0,-3,4,-2,-47,1,-2
1522606677125971,-6,1,-1,-3,-12,-23,-12,4
1522606677125971,-7,-1,0,-2,-10,26,-7,-9
1522606677127976,4,4,0,3,9,-12,-3,-4
1522606677127976,2,-2,2,-1,-1,3,2,0
1522606677148029,-4,0,1,4,14,51,-4,-7
1522606677148029,10,7,5,-3,-3,-2,-5,2
1522606677150034,-8,-7,-4,0,7,-2,0,1
1522606677150034,-2,-4,-4,-3,-3,18,-3,-10
1522606677163069,-14,-7,-4,-2,3,2,0,-7
1522606677163069,17,4,1,3,13,-2,9,25
1522606677170087,-10,2,7,-3,-16,6,7,-10
1522606677170087,-17,-3,-5,-4,-9,1,-8,-8
1522606677186130,-13,-6,-7,-3,9,2,-6,-7
1522606677186130,4,-2,1,-1,3,-12,0,-6
1522606677187133,5,5,-3,-4,1,-13,2,11
1522606677187133,15,0,1,-1,-3,43,0,10
1522606677208189,-17,-11,-2,3,-2,-32,6,1
1522606677208189,-2,6,2,-5,-1,1,3,-7
1522606677210194,5,-1,0,1,-2,5,-6,0
1522606677210194,3,2,-2,-1,5,16,2,4
1522606677223229,20,8,-4,0,-2,8,-5,3
1522606677223229,-16,-6,2,-1,2,4,-2,-9
1522606677229245,-12,-6,-4,0,1,-4,9,-4
1522606677229245,-1,-2,2,1,-10,-23,-5,-14
1522606677246290,1,-1,-1,-1,-1,6,-2,13
1522606677246290,1,-2,-6,-5,-5,-34,10,-6
1522606677247293,15,11,7,1,4,46,1,17
1522606677247293,17,0,-4,-4,-1,-15,3,11
1522606677268349,-24,-4,3,4,10,14,-4,-10
1522606677268349,1,-1,-4,-3,-8,12,-17,-1
1522606677270354,2,-9,-2,0,-11,2,-4,-5
1522606677270354,3,-2,3,-12,4,-7,4,-3
1522606677282386,-2,0,0,1,-11,2,0,0
1522606677282386,-2,0,-4,13,4,14,-9,-7
1522606677289405,1,0,-1,-3,-1,-40,6,-2
1522606677289405,-2,3,-1,0,3,18,-12,5
1522606677306450,-5,-1,2,-23,0,-20,-5,-6
1522606677306450,-13,0,-2,-15,5,32,2,2
1522606677307453,0,0,2,64,12,-2,12,0
1522606677307453,4,1,0,5,-4,-15,-3,0
1522606677328509,-30,-6,-4,-6,-2,0,-8,-11
1522606677328509,16,0,-1,-12,-8,-8,2,2
1522606677330514,2,0,-4,-30,-19,6,-5,-3
1522606677330514,-6,-1,-3,10,-1,2,-3,-3
1522606677342546,-2,0,3,13,22,4,6,-8
1522606677342546,0,0,-1,1,2,31,11,10
1522606677351570,0,3,5,-7,4,51,-1,-5
1522606677351570,-1,3,-1,2,0,-19,6,5
1522606677365608,11,-5,-5,-7,-12,0,-7,7
1522606677365608,-6,1,-1,4,-3,-13,-3,-10
1522606677367613,-9,-12,-7,-12,5,0,-11,-1
1522606677367613,-11,-3,-2,-9,-6,-1,14,-3
1522606677388669,4,5,2,6,-1,5,7,6
1522606677388669,7,2,2,-10,10,-23,-7,1
1522606677389672,0,-1,-3,21,3,19,26,-1
1522606677389672,-11,-3,-4,-6,3,-34,-30,-5
1522606677401704,21,-1,4,16,15,-8,-11,-2
1522606677401704,16,-2,4,6,0,7,2,2
1522606677410727,-26,-2,-5,-20,-13,-22,-15,-8
1522606677410727,-2,-2,-6,-11,-46,30,-9,1
1522606677425768,7,2,0,-14,10,-40,-17,1
1522606677425768,2,0,4,31,15,-5,-32,0
1522606677427773,1,0,-6,-2,2,-15,-14,-2
1522606677427773,-8,-3,1,5,7,21,6,-2
1522606677448829,1,-2,-5,-17,-22,5,7,2
1522606677448829,-3,1,-1,-19,-16,-3,-1,2
1522606677449832,18,4,1,18,4,-13,7,-1
1522606677449832,-28,-5,2,-1,-12,-21,-13,-14
1522606677461864,-9,-7,-1,-12,17,10,-5,-5
1522606677461864,8,3,-3,24,-17,-30,-3,1
1522606677470888,-3,-1,-3,7,47,2,-6,3
1522606677470888,38,0,2,-18,12,-5,3,0
1522606677485928,-41,1,1,18,12,-5,-12,-5
1522606677485928,0,-7,-5,-15,-14,10,48,1
1522606677487933,8,0,0,-17,-16,5,-17,-1
1522606677487933,2,5,3,5,11,5,6,1
1522606677508989,5,0,-1,7,-9,-1,34,7
1522606677508989,19,-6,0,-2,-3,2,26,5
1522606677509992,19,5,-1,-12,-22,-10,-33,3
1522606677509992,-49,2,1,2,43,-3,-2,0
1522606677522024,5,-13,-7,-3,-32,0,-35,-6
1522606677522024,-10,0,-4,3,-19,3,2,-2
1522606677531048,7,-2,1,-10,23,0,18,1
1522606677531048,39,6,6,2,-20,4,6,3
1522606677546088,14,7,-4,15,26,-9,-14,1
1522606677546088,-41,-5,1,-10,6,13,22,-5
1522606677548093,-2,-5,-3,4,-12,-31,-70,-4
1522606677548093,-1,-1,4,1,-2,4,3,1
1522606677568146,11,-3,-2,5,-15,9,18,2
1522606677568146,1,-3,2,-13,7,4,-12,-5
1522606677570152,-2,11,3,1,1,16,52,1
1522606677570152,-9,-5,-2,-3,4,1,-10,-1
1522606677582184,-1,2,-6,-5,-26,6,10,-1
1522606677582184,-2,-6,0,2,8,-1,-19,-3
1522606677591208,-20,-3,-4,-2,4,-4,12,-7
1522606677591208,19,1,-9,8,6,-13,-24,3
1522606677606248,5,6,14,-7,3,3,14,4
1522606677606248,-6,-1,-9,-3,-13,0,-9,-1
1522606677607250,-5,-8,5,-7,-15,-14,8,-3
1522606677607250,-3,-5,-2,-2,-1,-6,1,-5
1522606677628306,-3,-6,-9,-8,-9,3,-14,-11
1522606677628306,4,7,-1,-5,23,9,2,3
1522606677630312,8,1,0,-2,-36,-24,-11,9
1522606677630312,13,6,4,13,22,-3,22,2
1522606677642344,-5,2,8,5,-1,7,-22,-1
1522606677642344,1,4,1,1,10,-5,15,0
1522606677651368,-11,-8,-10,-16,-5,-20,11,-4
1522606677651368,-4,2,-6,-13,-22,-7,-15,5
1522606677666408,5,-1,-4,2,6,-8,50,-4
1522606677666408,17,10,9,11,8,-19,-34,5
1522606677667410,-31,-6,-4,1,0,23,23,0
1522606677667410,4,1,0,-1,-15,-2,21,-3
