timestamp,emg1,emg2,emg3,emg4,emg5,emg6,emg7,emg8
1522606786007052,8,-23,-7,-4,-2,-1,-12,0
1522606786007052,-12,10,6,5,0,-2,-2,-10
1522606786008056,-36,-19,-5,-3,0,11,2,-7
1522606786008056,-8,11,2,-4,-4,-13,5,-2
1522606786009058,96,2,-10,-13,-6,29,-1,29
1522606786009058,-89,-17,-3,0,-4,-53,-13,-34
1522606786012065,27,4,-11,-8,-3,17,1,-2
1522606786012065,28,-9,1,1,0,-37,-20,11
1522606786019084,-5,4,2,-1,-18,14,25,2
1522606786019084,63,-5,-3,0,30,20,-2,2
1522606786029111,-79,-37,-2,1,-3,-15,7,-2
1522606786029111,-94,-26,-18,-8,-3,7,-19,-42
1522606786035127,45,18,10,8,7,-11,-2,15
1522606786035127,16,0,-1,-5,-10,16,13,29
1522606786049164,-49,2,4,3,0,-17,-6,-17
1522606786049164,45,6,0,-3,0,20,14,19
1522606786060194,-69,-9,-9,3,-3,-1,2,-23
1522606786060194,-6,-32,0,4,0,0,-5,-19
1522606786074232,57,23,-2,-3,2,1,-17,12
1522606786074232,25,-3,2,-2,-5,26,-9,-3
1522606786080248,-13,14,-1,-3,-1,-37,9,-5
1522606786080248,84,42,6,-1,-1,9,-7,22
1522606786093281,-58,-25,-5,2,0,-10,-6,-9
1522606786093281,-14,-16,-9,0,2,16,-10,-4
1522606786135394,-18,5,0,0,0,-11,-5,4
1522606786135394,29,21,1,-1,0,-2,2,33
1522606786148428,-45,-17,-8,-4,-1,11,-18,-41
1522606786148428,82,17,-2,0,-4,-44,-11,5
1522606786149431,50,5,8,2,1,2,-2,6
1522606786149431,-63,-21,1,-1,-27,20,2,-10
1522606786149431,-9,-18,-7,-5,8,-14,-4,10
1522606786149431,-47,16,0,-4,-5,36,-36,-6
1522606786150433,127,11,-9,0,50,26,7,39
1522606786150433,-96,-24,-2,-2,-9,-21,46,-59
1522606786155447,81,26,14,6,-3,26,20,9
1522606786155447,-11,-17,-6,-10,-13,2,22,3
1522606786161463,6,18,3,3,28,9,-5,1
1522606786161463,23,7,-10,-2,4,3,-27,14
1522606786177506,-2,4,1,0,2,-32,-6,-1
1522606786177506,8,-16,6,3,-1,17,11,7
1522606786183521,-75,-10,-2,-8,-60,-49,-21,-24
1522606786183521,33,6,2,-1,22,-11,2,0
1522606786206583,-21,-7,-6,-1,-29,19,-15,-2
1522606786206583,35,23,6,4,19,13,24,26
1522606786207586,-128,-59,-12,-3,-11,3,-4,-44
1522606786207586,-3,-9,-3,-4,-30,-11,5,8
1522606786221623,-4,14,1,-1,62,23,6,17
1522606786221623,-22,-2,-5,-1,-19,0,-18,-20
1522606786222625,40,1,6,5,-6,12,14,-2
1522606786222625,49,0,-1,-3,25,12,-7,-8
1522606786244684,127,28,4,0,-49,-19,6,37
1522606786244684,-100,-33,-10,-3,10,-21,1,-43
1522606786244684,13,-1,2,-3,-36,-20,-12,5
1522606786244684,56,16,0,4,74,52,0,19
1522606786266743,4,-4,-7,-4,-23,-38,6,5
1522606786266743,29,9,11,8,80,46,0,0
1522606786267746,-31,1,-4,1,-41,-2,6,1
1522606786267746,47,2,5,-2,-59,4,-3,16
1522606786281783,-98,-42,-21,-9,-77,-39,-7,-38
1522606786281783,-8,23,-6,0,25,-3,-4,4
1522606786282786,-9,-4,28,4,-30,9,20,14
1522606786282786,-18,-9,-9,0,39,-6,-29,-5
1522606786303842,48,22,2,-10,-42,38,42,16
1522606786303842,7,-30,-8,-8,-30,-78,-41,-11
1522606786304844,8,7,-4,13,64,10,-1,-6
1522606786304844,-8,5,4,-3,-11,-19,2,0
1522606786326903,20,-4,-2,3,25,17,-19,-7
1522606786326903,-19,-1,0,-9,-42,-8,14,6
1522606786327906,26,34,-3,-6,24,20,15,19
1522606786327906,-73,-31,-3,-3,-71,-36,-38,-26
1522606786340940,5,4,2,6,97,19,10,25
1522606786340940,-84,-10,-1,-1,-22,34,5,-33
1522606786348961,68,26,-1,-5,-86,-22,5,19
1522606786348961,-22,4,5,6,96,40,20,6
1522606786364002,40,-3,-1,2,-26,4,-12,9
1522606786364002,7,-5,-4,2,-1,8,12,0
1522606786365004,7,-1,-4,-4,-30,-5,-5,-16
1522606786365004,-46,7,4,-5,-36,-24,-5,-9
1522606786387063,3,6,7,7,47,40,10,2
1522606786387063,29,-4,-3,2,-33,-23,-17,8
1522606786388066,42,7,-11,-11,74,-31,-5,1
1522606786388066,-44,-15,3,7,-1,5,5,-10
1522606786401100,-72,-27,1,0,12,-16,-5,-9
1522606786401100,-28,0,2,-1,-25,-1,5,-1
1522606786409121,-33,-4,-7,-5,-14,4,6,-3
1522606786409121,58,12,3,2,23,15,0,10
1522606786424162,36,17,2,0,-11,-24,-2,-2
1522606786424162,40,11,-1,-1,67,25,36,22
1522606786425164,-94,-33,-7,-3,-5,-7,-31,-20
1522606786425164,13,2,-1,-3,-32,3,12,2
1522606786447223,19,16,0,-5,-2,-24,-5,-2
1522606786447223,114,34,13,5,61,-10,-14,27
1522606786447223,-109,-42,-9,-2,18,2,25,-23
1522606786447223,-5,9,-4,-2,-22,-21,4,-8
1522606786461260,-40,-6,-1,-2,-19,-10,-20,-14
1522606786461260,43,0,2,0,-36,-9,-4,5
1522606786468279,43,20,2,2,14,19,-7,10
1522606786468279,61,-2,-2,-3,1,3,-10,11
1522606786484322,-40,-5,0,-3,-17,-13,0,-21
1522606786484322,-20,-9,-4,2,14,19,-3,0
1522606786485324,-7,-2,2,3,24,28,-5,-9
1522606786485324,48,9,-2,-7,-33,-35,13,10
1522606786506381,-15,-19,-1,2,14,-5,-13,2
1522606786506381,-40,6,-8,-2,-26,-9,-5,-10
1522606786507383,1,-33,0,-2,-13,-11,-13,0
1522606786507383,-34,-10,-8,-4,8,3,11,-1
1522606786521420,-46,-1,6,2,3,-17,-15,-8
1522606786521420,60,17,-1,0,-13,-5,5,14
1522606786528439,-21,11,1,0,-5,5,4,-10
1522606786528439,7,16,-5,-6,6,-1,-13,-2
1522606786544482,5,-23,-5,1,-3,12,8,3
1522606786544482,-42,-33,1,-1,-19,0,-1,-10
1522606786545484,12,11,-4,-2,14,0,-2,6
1522606786545484,31,-5,3,0,-7,7,-6,-2
1522606786566540,-89,0,-1,-1,-2,-7,-9,-7
1522606786566540,112,4,-3,1,-3,-6,7,6
1522606786567543,-63,-24,-5,-4,-6,1,-5,-24
1522606786567543,-23,-6,-5,-2,3,-11,-9,-13
1522606786581580,79,35,7,3,-5,-17,2,1
1522606786581580,17,-7,-3,1,-5,-4,9,10
1522606786588599,-4,-10,-3,-4,0,-8,1,-21
1522606786588599,12,4,0,1,-5,-2,-5,1
1522606786604642,-7,-11,-3,-2,7,13,0,-8
1522606786604642,20,21,3,-1,-9,6,3,16
1522606786604642,33,6,-1,-3,-8,-16,-6,2
1522606786604642,-6,-3,-2,3,11,13,3,-4
1522606786626700,-38,-12,-9,-5,-7,20,6,8
1522606786626700,-9,0,-4,-2,1,-9,3,-19
1522606786627703,37,8,7,-1,-28,23,-3,20
1522606786627703,-108,-18,-3,2,29,-59,-5,-7
1522606786642743,40,14,5,-2,5,-3,1,2
1522606786642743,-26,4,-8,-4,-7,-1,-6,-12
1522606786648759,14,-15,4,5,11,25,0,9
1522606786648759,61,2,1,-6,-20,-17,-7,4
1522606786664802,-16,5,6,6,2,1,-2,-1
1522606786664802,-27,-14,-1,-4,6,-29,-15,-5
1522606786664802,9,17,-2,-3,-21,-1,12,5
1522606786664802,95,25,7,2,-24,15,23,33
1522606786686860,-89,-37,-14,-6,55,6,-5,-40
1522606786686860,13,1,4,-2,-3,10,-7,-5
1522606786687863,55,14,1,3,-5,-8,-7,21
1522606786687863,23,-4,-4,-5,2,7,7,9
1522606786700898,5,3,0,-1,-24,12,6,-10
1522606786700898,19,-1,1,4,-1,33,-2,4
1522606786708919,-75,-9,-1,-3,11,16,26,5
1522606786708919,-4,7,4,2,-12,-7,-25,-3
1522606786723959,-38,2,-4,-4,-1,-11,1,-2
1522606786723959,-82,-19,-4,-1,10,24,4,-11
1522606786724962,41,8,-4,1,-5,0,4,4
1522606786724962,98,21,7,1,0,18,-3,10
1522606786747020,-65,-21,1,3,-1,6,-4,-16
1522606786747020,-51,-26,-10,-2,-20,-25,-6,-17
1522606786748023,71,37,7,2,49,4,11,14
1522606786748023,-54,-32,-3,-2,-14,15,4,-3
1522606786769078,0,20,2,-2,-55,-32,-25,-1
1522606786769078,-5,9,-2,3,69,-14,-3,-5
1522606786770082,90,-7,3,2,-29,-23,-9,9
1522606786770082,-109,1,0,0,14,15,2,-15
1522606786784119,99,4,0,-9,-98,20,19,31
1522606786784119,-34,-9,-4,3,-55,-9,-7,-17
1522606786785122,-21,7,3,6,90,-15,-22,-14
1522606786785122,30,-5,3,4,-8,7,14,16
1522606786807180,74,6,-5,1,-21,-15,8,14
1522606786807180,-84,2,1,-7,-12,10,-20,-19
1522606786808183,-23,-5,-4,-2,-28,18,4,2
1522606786808183,-77,-17,-6,-4,-14,-48,-16,-18
1522606786829239,21,9,3,8,24,-6,15,10
1522606786829239,42,-5,-3,-3,18,46,8,6
1522606786830242,-9,-4,-3,3,28,18,2,-4
1522606786830242,20,-5,0,-6,-108,-37,-16,3
1522606786844279,-61,-11,-5,-1,95,-10,-3,-21
1522606786844279,29,3,3,0,-54,-8,-7,11
1522606786845282,-29,4,4,-5,74,-12,12,-8
1522606786845282,67,18,-8,-1,44,64,-35,4
1522606786866337,24,-32,-2,-3,2,-81,-25,-9
1522606786866337,-54,4,-1,-2,-11,-23,10,11
1522606786867340,-9,-11,-7,-6,-47,-5,-6,-11
1522606786867340,9,1,1,-3,-26,13,23,-11
1522606786889399,94,19,3,2,43,40,5,33
1522606786889399,-34,-7,3,-5,-73,-10,-22,-33
1522606786890401,-1,6,0,0,40,-13,-6,1
1522606786890401,-24,-18,-8,6,47,6,2,-2
1522606786904439,17,6,-1,-3,-39,28,10,4
1522606786904439,-1,-1,4,0,15,-22,14,10
1522606786905442,-5,-2,-4,-4,-64,-3,3,-2
1522606786905442,-13,3,7,3,26,0,-8,-11
1522606786926497,1,-5,-7,-1,-2,6,-8,-7
1522606786926497,16,-3,-3,-4,-40,2,11,9
1522606786927500,-36,-14,-4,7,61,30,17,-2
1522606786927500,-23,-6,-1,-4,-23,-20,-2,-4
1522606786949559,8,16,1,1,30,6,-8,5
1522606786949559,25,5,-4,-2,0,-4,-20,-1
1522606786950563,26,3,-3,-6,-114,-13,3,-10
1522606786950563,86,6,5,10,104,28,12,17
1522606786964600,-105,-30,-4,-3,-32,-34,-7,-19
1522606786964600,80,11,1,0,40,-7,0,7
1522606786965602,-25,-17,-1,1,-31,-19,-11,-2
1522606786965602,25,14,2,-1,-13,6,3,1
1522606786986658,-18,1,-2,-4,-2,11,-1,-1
1522606786986658,35,25,11,4,33,1,10,15
1522606786987661,-29,-36,-20,-10,-73,-35,-22,-18
1522606786987661,-71,0,-3,4,58,50,15,1
1522606787009719,-36,-22,13,9,7,-19,13,5
1522606787009719,20,1,-3,-1,-5,-10,-7,-2
1522606787009719,10,31,6,1,15,-8,-12,-5
1522606787009719,1,-21,-14,-8,-20,-11,0,-1
1522606787024759,27,13,-2,-6,-74,9,5,4
1522606787024759,81,30,3,4,61,13,5,15
1522606787024759,-91,-47,-1,3,20,5,4,-6
1522606787024759,-5,5,-2,-2,5,-25,-12,-10
1522606787046817,20,8,1,-1,18,9,-3,3
1522606787046817,-13,-3,-1,-2,-47,11,10,8
1522606787047822,26,10,4,-3,-9,-7,-1,7
1522606787047822,-21,-5,0,1,-4,-9,-1,1
1522606787068876,2,1,-1,-1,-1,26,18,-4
1522606787068876,34,-16,-5,-3,13,2,-8,-18
1522606787069879,-17,13,2,5,17,1,3,11
1522606787069879,66,-4,-2,-1,-33,-15,3,-1
1522606787083916,-52,-2,-3,-7,-8,1,-8,-22
1522606787083916,-29,-3,-6,-1,-22,-5,5,-4
1522606787084919,32,1,2,5,51,24,1,8
1522606787084919,3,0,1,-5,-35,-11,5,-6
1522606787105975,12,1,-3,-1,7,9,-4,7
1522606787105975,-27,-15,-4,-4,3,-6,-6,-13
1522606787113996,-27,5,-3,-1,-27,-10,-1,-3
1522606787113996,-22,-7,-2,2,2,4,3,-7
1522606787129036,49,21,7,3,-43,-8,-13,9
1522606787129036,-54,-13,-2,-1,85,15,2,-4
1522606787130039,57,-2,2,2,-6,4,5,12
1522606787130039,-64,-21,-10,-5,1,-7,-6,-24
1522606787152097,2,1,-5,-5,2,11,5,18
1522606787152097,-28,13,2,-2,-26,-6,-1,-1
1522606787153100,-6,-9,0,-3,7,11,-2,-10
1522606787153100,43,25,0,-8,-8,-1,4,39
1522606787166135,-31,-12,10,11,9,-11,-11,-44
1522606787166135,59,4,5,1,-5,-1,3,37
1522606787174156,-64,-3,-11,-16,-5,-2,-8,-22
1522606787174156,5,8,3,3,-14,-7,3,2
1522606787189196,6,-23,-15,-3,17,2,-1,6
1522606787189196,-2,13,3,4,7,8,3,7
1522606787190199,6,5,-4,1,-11,-8,0,-3
1522606787190199,-2,-9,-1,-4,-8,3,-1,-14
1522606787212257,26,21,3,0,12,-37,-13,5
1522606787212257,39,7,-1,0,-3,8,5,8
1522606787212257,-14,-18,-12,-11,-17,-9,-16,-9
1522606787212257,-24,0,-6,-2,23,-37,-11,-6
1522606787226295,26,-12,4,4,8,39,10,6
1522606787226295,31,7,1,-2,-6,1,5,7
1522606787234316,44,13,5,5,10,3,4,8
1522606787234316,8,10,15,10,18,10,4,-5
1522606787249356,-65,-5,-2,-3,20,21,-2,-22
1522606787249356,-1,-25,-8,-1,-10,-8,3,-12
1522606787250359,-9,6,1,0,-23,-4,-1,10
1522606787250359,-49,-16,-12,-4,-4,-4,-16,-20
1522606787271415,41,4,-5,-3,-9,2,8,17
1522606787271415,-10,4,8,5,9,-2,-6,-3
1522606787272417,-5,-9,-6,-4,-6,5,0,-2
1522606787272417,64,20,14,7,-13,-21,-4,20
1522606787295479,-25,2,-5,-2,1,-35,5,13
1522606787295479,-30,-27,-13,-2,-9,-10,3,-44
1522606787295479,40,6,9,-2,-100,14,15,7
1522606787295479,59,10,-2,3,96,17,-25,6
1522606787309516,-82,-10,-5,-4,-18,12,1,-13
1522606787309516,-19,2,-3,-2,-20,-16,-6,-2
1522606787310519,44,-12,-2,2,3,-11,2,9
1522606787310519,-35,-8,-1,-4,-36,22,9,-13
1522606787331575,28,2,-1,3,-17,-1,6,14
1522606787331575,-29,6,0,0,16,3,-28,-11
1522606787332578,-5,11,2,0,16,-8,4,-5
1522606787332578,-12,-22,-5,0,-23,-4,6,2
1522606787354636,65,10,1,-5,-24,-9,-17,9
1522606787354636,-33,-1,3,4,32,17,15,-6
1522606787355639,32,11,5,2,5,3,-16,7
1522606787355639,-9,1,-2,-3,31,3,8,13
1522606787369676,20,12,-1,-4,-28,13,-4,-16
1522606787369676,-54,-25,0,2,-23,-10,4,6
1522606787369676,-54,12,1,2,36,8,14,-1
1522606787369676,-6,-19,-1,-4,32,13,-1,2
1522606787391735,30,7,-2,-1,-38,8,1,4
1522606787391735,43,12,-9,-3,28,5,2,13
1522606787392738,30,19,1,-2,54,-7,-15,-11
1522606787392738,-10,-12,14,11,-65,-19,8,0
1522606787414796,-60,5,7,1,-10,38,5,-11
1522606787414796,42,-9,2,6,22,0,-3,5
1522606787415799,-58,-29,-18,-10,-35,-67,-37,-23
1522606787415799,-42,5,-10,-12,-106,-31,-2,-2
1522606787429836,41,10,4,7,124,32,17,7
1522606787429836,27,6,-1,-4,-47,20,7,6
1522606787429836,20,5,-4,-8,37,-16,1,0
1522606787429836,-45,-2,5,8,20,-19,-17,-4
1522606787451895,56,9,2,0,-13,-17,1,8
1522606787451895,-69,-16,0,-3,-22,-1,-9,-3
1522606787452898,57,2,1,4,-13,7,4,10
1522606787452898,-40,-17,-19,-13,-76,-10,-7,-18
1522606787474957,-1,-4,-1,2,89,47,10,-1
1522606787474957,90,23,13,2,-20,-25,-18,12
1522606787475960,-88,-14,7,1,-16,16,7,-14
1522606787475960,21,8,-6,-7,-75,-22,11,-4
1522606787488993,20,-10,-9,0,48,-13,-27,-10
1522606787488993,9,2,-8,-12,-88,-49,3,5
1522606787489996,33,-6,4,9,104,55,10,9
1522606787489996,-26,-1,-2,-2,12,42,-5,-2
1522606787512055,-12,-14,-4,-5,-59,-6,34,0
1522606787512055,-20,9,4,2,53,-22,-28,5
1522606787513058,10,-12,-6,1,-13,8,-3,1
1522606787513058,-72,-4,-3,-1,34,6,1,-14
1522606787535116,13,2,1,0,-31,-22,-2,5
1522606787535116,3,-10,1,-1,-1,22,23,-4
1522606787536119,-4,-3,-4,1,-18,-3,-22,-3
1522606787536119,34,11,-2,-2,41,20,10,1
1522606787549153,33,2,4,-2,-29,-38,-11,3
1522606787549153,-70,-8,-2,-1,9,40,-4,5
1522606787550156,-23,-19,-7,-6,4,-66,8,-20
1522606787550156,38,15,6,2,-7,-3,-2,10
1522606787572215,9,2,-2,-5,5,-25,-16,-1
1522606787572215,16,-2,0,0,111,26,26,0
1522606787572215,45,15,-1,1,-11,36,12,6
1522606787572215,21,16,0,1,1,-19,-3,6
1522606787595276,-17,-1,-4,-4,-37,-43,-19,-8
1522606787595276,-54,-20,-3,-1,-9,0,12,-2
1522606787596280,20,22,10,3,6,42,17,10
1522606787596280,-13,0,1,-5,6,-23,-20,-7
1522606787609313,-10,-6,-4,1,-14,9,-9,-2
1522606787609313,-38,-9,-8,0,24,55,22,-11
1522606787610316,30,17,5,-5,-78,-88,-56,5
1522606787610316,11,-14,4,2,51,36,10,-6
1522606787631372,-31,-12,-7,-3,-2,15,5,0
1522606787631372,12,25,2,1,-62,-11,-4,4
1522606787632375,0,-22,-4,1,13,18,2,2
1522606787632375,6,0,-5,-3,46,7,1,-11
1522606787655436,-2,-5,2,1,-9,-18,-6,3
1522606787655436,58,11,-4,1,-29,-8,-3,-11
1522606787655436,-23,-3,2,-4,58,-7,0,16
1522606787655436,-4,0,2,2,1,0,13,-8
1522606787669473,-5,16,4,5,20,41,24,3
1522606787669473,8,-20,-7,-5,-1,-21,-9,5
1522606787670476,-46,5,1,-1,-47,2,2,-14
1522606787670476,13,-7,3,1,-1,10,1,13
1522606787691532,-6,6,-2,-4,20,-11,-7,-6
1522606787691532,-40,-17,-5,-6,-26,8,-8,-32
1522606787692535,10,3,1,3,1,1,5,6
1522606787692535,-1,-7,-8,-2,-18,-3,2,-4
1522606787714593,-26,-11,-3,0,-5,-1,-1,2
1522606787714593,31,-3,7,4,-3,-23,3,7
1522606787715596,-11,8,0,-1,6,46,13,11
1522606787715596,24,33,-1,2,2,-12,-10,-10
1522606787729633,-36,-42,-4,-6,-13,-7,0,2
1522606787729633,-23,-4,-3,-3,14,4,-5,1
1522606787730636,3,-20,-6,-1,-2,5,5,-5
1522606787730636,13,-1,-3,1,-16,4,5,7
1522606787751692,24,27,13,-2,6,-5,-6,1
1522606787751692,29,23,8,-2,-5,-14,-9,4
1522606787752695,-34,-19,-7,-1,-6,6,-5,-18
1522606787752695,-33,-22,-9,0,-8,9,9,-8
1522606787774753,23,-23,-7,-2,2,-24,-27,-9
1522606787774753,13,4,-2,0,3,-8,-16,-2
1522606787775756,30,6,0,-2,-32,2,11,-1
1522606787775756,1,-7,1,0,40,21,4,1
1522606787789793,17,24,0,-1,-74,-7,3,10
1522606787789793,-16,3,3,3,89,23,16,-9
1522606787789793,8,-9,-4,0,-9,-28,-25,-5
1522606787789793,-10,6,5,-2,-20,-3,0,13
1522606787811852,-34,2,2,2,0,0,5,-3
1522606787811852,9,8,-7,-4,-27,-3,-6,9
1522606787812854,-10,9,-3,0,6,7,12,-7
1522606787812854,65,-6,4,0,5,-3,3,20
1522606787834914,-54,-9,-3,1,16,13,1,-18
1522606787834914,-21,-28,-7,-3,-23,19,-2,-4
1522606787835917,-18,15,3,0,0,-17,3,4
1522606787835917,88,17,-3,1,10,30,4,16
1522606787848950,-46,-11,3,-3,7,-17,-14,-6
1522606787848950,-35,0,0,3,-5,-21,0,7
1522606787856972,-12,-3,0,0,15,6,-1,-9
1522606787856972,-6,2,-2,-3,-52,6,3,4
1522606787872012,79,33,-1,-3,51,-23,5,6
1522606787872012,-46,-27,-1,-4,-31,-23,-32,-15
1522606787873015,21,24,2,-3,24,17,29,33
1522606787873015,-16,-2,0,-3,-29,-6,-20,-14
1522606787895073,35,0,0,8,36,41,21,9
1522606787895073,36,10,4,-3,-39,-30,-10,0
1522606787896076,-68,-6,-2,0,22,45,6,-8
1522606787896076,-1,1,2,-1,-19,-23,0,-6
1522606787909110,8,-23,-9,-5,-16,-5,-7,-10
1522606787909110,-36,1,-7,-4,11,20,12,-7
1522606787917132,42,-3,3,3,-28,0,-8,1
1522606787917132,-15,-1,1,2,30,1,14,8
1522606787932172,-26,-7,-2,-3,-46,33,-12,-4
1522606787932172,-19,5,-2,3,32,-17,3,-2
1522606787933175,29,-13,-7,1,-7,-13,-8,-19
1522606787933175,-32,3,4,1,3,-14,-3,-9
1522606787955233,-32,-10,-2,-1,0,-7,6,6
1522606787955233,26,-1,-1,-4,-13,24,3,0
1522606787956236,42,3,1,0,-29,-12,-3,5
1522606787956236,-80,-15,-8,-2,-32,-18,-11,-29
1522606787968268,49,12,3,2,57,35,5,11
1522606787968268,12,-3,2,4,-25,-22,-6,0
1522606787977292,29,9,-1,-1,23,16,36,4
1522606787977292,-4,-3,-3,-3,22,-20,3,0
1522606787992332,-23,-9,-7,-4,-48,26,1,-19
1522606787992332,20,11,6,3,86,-7,0,15
1522606787992332,7,1,-1,-3,-14,39,-7,1
1522606787992332,24,5,0,-3,11,-12,-14,7
1522606788015393,-17,-10,-3,-3,-10,0,13,0
1522606788015393,4,2,5,5,-7,-27,-14,-4
1522606788015393,-5,1,2,-4,-96,1,20,-1
1522606788015393,76,9,4,7,114,26,-12,13
1522606788028428,-63,-27,-2,0,-25,-26,-30,-19
1522606788028428,9,4,-5,-3,9,47,10,-5
1522606788036450,-10,-9,-1,-2,-1,-60,-20,-1
1522606788036450,-65,3,4,-3,-97,-14,24,-13
1522606788051489,50,15,0,1,117,42,0,11
1522606788051489,28,7,1,0,-36,-60,5,1
1522606788052492,-27,-12,-5,-1,51,0,-24,-5
1522606788052492,66,8,2,-1,3,-8,6,15
1522606788074551,-98,-20,-5,-4,-64,-10,-1,-13
1522606788074551,20,-2,-1,-3,51,43,8,-8
1522606788075553,42,20,4,5,15,-11,-3,30
1522606788075553,35,-4,0,0,-14,-1,-7,5
1522606788088588,23,20,2,-1,-9,-3,10,7
1522606788088588,-44,-16,-4,-2,-36,-5,-4,-5
1522606788096609,-15,-2,3,2,-19,-13,-4,-4
1522606788096609,-22,-1,-3,-1,21,7,-2,1
1522606788111649,50,18,1,-1,28,-11,9,14
1522606788111649,-13,-10,-9,1,-14,4,-17,-13
1522606788112652,38,-13,-7,-5,1,-4,-10,-7
1522606788112652,-123,-32,-15,-7,-16,6,-12,-40
1522606788134710,66,7,5,0,-12,-26,4,13
1522606788134710,-6,13,6,-1,-1,17,7,8
1522606788134710,-20,-5,-1,-2,27,33,2,-5
1522606788134710,81,14,5,4,-9,-38,3,12
1522606788148748,-101,-35,-10,-2,1,-15,0,-11
1522606788148748,46,9,1,-1,-4,2,-3,9
1522606788156770,6,8,2,-1,-18,2,6,-2
1522606788156770,-29,11,2,0,23,33,-2,0
1522606788171809,19,-4,0,-1,-15,-19,-15,-4
1522606788171809,3,2,1,-7,19,27,-19,7
1522606788172812,-33,-3,0,-1,-14,-47,35,0
1522606788172812,36,4,1,3,33,22,-26,-4
1522606788194871,13,8,3,0,23,-22,-7,2
1522606788194871,15,-4,-5,-4,-43,-3,2,4
1522606788194871,-26,-4,-7,-6,4,4,-12,1
1522606788194871,85,14,-1,-4,15,46,19,15
1522606788217932,-113,-12,0,-1,-47,-90,-26,-31
1522606788217932,54,-2,-6,-4,-43,0,10,-2
1522606788217932,-10,-2,7,7,58,29,-1,-4
1522606788217932,9,12,5,-1,-51,-23,14,6
1522606788231969,74,2,-3,2,77,48,3,7
1522606788231969,-53,-6,-6,-4,-15,-21,-7,-4
1522606788232972,20,4,1,0,-9,-18,-5,6
1522606788232972,-76,-12,0,-1,-10,3,-14,-7
1522606788254028,63,3,-4,-3,-21,1,11,11
1522606788254028,-33,-19,3,6,19,0,10,10
1522606788255031,6,-5,-4,0,-21,-15,-20,-7
1522606788255031,-13,-3,0,-3,16,16,5,-6
1522606788277089,14,21,3,3,-9,19,7,7
1522606788277089,9,-8,-1,1,3,-24,9,-5
1522606788278092,-65,-18,-8,-4,-9,-2,-14,-18
1522606788278092,21,0,3,1,-7,-19,-2,10
1522606788292129,-21,-6,-1,0,1,72,11,3
1522606788292129,1,10,1,0,8,-50,-16,-9
1522606788293132,68,25,3,-3,-23,-25,-1,7
1522606788293132,-39,-5,-10,4,16,-5,-6,-12
1522606788314188,-17,-28,-1,2,14,25,11,-10
1522606788314188,32,27,17,4,6,30,5,13
1522606788315191,-7,-5,-1,-2,1,-6,-1,0
1522606788315191,-21,-11,-6,-3,-2,-10,-1,-4
1522606788337249,63,33,6,0,-23,-22,-2,18
1522606788337249,-52,-24,-5,0,-5,1,-5,-17
1522606788338252,35,32,2,-1,9,-1,-7,1
1522606788338252,-40,-58,-6,0,0,6,4,8
1522606788352289,31,14,3,3,-3,-15,-7,-5
1522606788352289,-33,-7,-2,-4,5,12,8,-5
1522606788352289,25,-2,-3,-3,-9,-21,-13,16
1522606788352289,-64,10,6,0,2,8,3,-7
1522606788374348,-21,-12,-9,-5,-9,-34,-10,-21
1522606788374348,11,17,7,8,5,-3,-2,3
1522606788375351,19,-4,-2,-1,4,17,9,10
1522606788375351,29,7,1,2,-5,-3,4,22
1522606788397409,16,8,1,-1,6,49,3,10
1522606788397409,17,12,0,-5,-10,-2,33,4
1522606788398412,-10,1,-1,0,13,16,-13,0
1522606788398412,-3,-31,-5,-6,-9,-20,12,-18
1522606788411446,-6,1,-3,2,-3,14,-5,-6
1522606788411446,-5,-34,-12,-3,-3,-10,-15,-22
1522606788412449,27,7,9,8,10,15,11,5
1522606788412449,15,4,-3,-1,2,6,-10,-16
1522606788434508,-55,0,-2,-3,-9,-26,-6,-4
1522606788434508,-2,-22,-5,-2,0,-2,1,3
1522606788435511,-40,-18,-7,-2,2,-13,-18,-31
1522606788435511,56,18,-5,-1,-8,0,-6,10
1522606788457569,6,-1,4,-1,13,-11,3,-2
1522606788457569,-29,14,4,1,4,2,-4,-3
1522606788458572,-6,-1,2,-2,0,11,3,-3
1522606788458572,37,-1,-1,-1,1,18,2,3
1522606788471606,7,9,0,-2,-18,-58,-6,6
1522606788471606,50,2,-5,-6,-3,18,0,10
1522606788472609,-89,-8,-4,-4,4,4,-9,-23
1522606788472609,29,12,3,1,-19,22,3,-12
1522606788494668,-27,-18,-5,0,4,-8,16,4
1522606788494668,41,15,2,0,0,10,4,17
1522606788495671,3,-4,-1,1,-5,-2,-3,7
1522606788495671,-41,-2,-2,-1,9,-12,6,3
1522606788517729,38,5,-1,-3,-1,39,-15,1
1522606788517729,-35,-1,3,3,7,-20,-2,2
1522606788518732,-17,1,-4,-3,1,23,-1,15
1522606788518732,-25,-25,-1,1,-2,-18,-13,-10
1522606788531766,21,20,-1,-3,-4,24,42,11
1522606788531766,-54,-11,-4,0,1,-5,-45,-15
1522606788532769,-3,-2,0,2,-1,-14,23,-8
1522606788532769,13,3,-3,-7,-15,-4,-6,5
1522606788554828,35,1,-2,0,13,-35,-11,4
1522606788554828,-23,3,4,5,32,14,-13,3
1522606788554828,7,0,-4,-6,-7,-6,6,0
1522606788554828,-30,-3,-1,5,14,-6,5,-8
1522606788577889,5,-6,0,-1,-66,40,-6,-2
1522606788577889,48,18,-2,-10,28,-47,2,10
1522606788577889,-38,-13,-2,10,9,7,-18,-4
1522606788577889,57,3,1,-10,-60,-23,-5,14
1522606788591926,-56,7,-1,6,95,34,15,-5
1522606788591926,-17,-17,-4,-1,-17,18,25,-14
1522606788592929,17,-12,-3,-4,-5,7,27,5
1522606788592929,-17,4,-6,-6,-7,-15,-7,-6
1522606788613985,-5,-3,4,5,-14,-32,-31,2
1522606788613985,17,10,-4,-3,-5,19,1,-2
1522606788614988,7,-1,-1,-4,13,-19,-11,-7
1522606788614988,32,13,3,-1,-42,-1,0,9
1522606788638049,-15,-17,5,-1,48,48,1,-2
1522606788638049,-57,0,-3,3,-17,-15,25,1
1522606788638049,92,18,7,2,-15,7,-5,7
1522606788638049,-50,6,-1,0,22,2,-23,-12
1522606788652086,-21,-27,-7,-4,-31,-10,3,-4
1522606788652086,43,-1,0,1,1,15,6,16
1522606788653089,1,-5,-6,-7,-13,-57,-14,-14
1522606788653089,16,11,2,-1,9,4,2,5
1522606788674145,-28,2,-1,-5,23,-13,3,-13
1522606788674145,-30,-14,-5,-1,-6,13,-19,-10
1522606788675148,22,8,3,5,-4,4,12,12
1522606788675148,-10,-2,-1,-5,28,-17,7,0
1522606788697206,-20,-5,-2,0,-46,-18,-8,-9
1522606788697206,41,17,-1,-3,8,20,-6,0
1522606788698210,-11,1,2,-1,11,63,22,2
1522606788698210,12,-9,2,4,3,-63,-76,-5
1522606788712246,-11,8,-8,-3,2,46,68,2
1522606788712246,-59,-8,1,0,-14,-12,7,-6
1522606788712246,-19,-21,-6,-5,-27,42,0,3
1522606788712246,9,2,-2,6,83,8,24,10
1522606788734305,42,17,5,0,-19,-39,-54,2
1522606788734305,-12,-9,-2,-1,-23,1,7,3
1522606788735308,40,24,0,-3,0,-6,4,9
1522606788735308,-40,-40,-6,-2,-19,12,10,-6
1522606788757367,17,1,-1,-2,0,-13,-16,-6
1522606788757367,53,13,1,0,12,5,6,5
1522606788758369,-48,-4,-2,-3,-3,-3,1,-8
1522606788758369,6,11,1,1,-4,-5,7,-2
1522606788771404,33,20,1,1,2,-1,6,18
1522606788771404,-4,-27,-2,0,-20,-18,-16,-7
1522606788772406,-40,-23,-4,2,18,-16,-14,-22
1522606788772406,-7,7,0,2,-9,30,11,2
1522606788794465,55,4,-1,1,-9,3,9,11
1522606788794465,-71,2,-3,-5,-10,-57,-13,-9
1522606788795468,57,-7,-3,-5,12,-8,-13,5
1522606788795468,-42,2,3,4,4,19,14,-8
1522606788817526,2,-10,-4,-3,-12,11,-12,-13
1522606788817526,35,6,-1,-1,10,-37,-2,8
1522606788818530,10,3,2,0,-8,-12,1,-8
1522606788818530,-16,-5,-3,-2,-12,-4,-2,3
1522606788840588,27,10,0,-3,0,-2,-9,6
1522606788840588,-83,-28,-3,-3,-6,23,-7,-21
1522606788840588,2,11,2,-1,-34,-37,1,6
1522606788840588,-8,-3,-3,0,24,11,8,4
1522606788854625,-52,-8,-3,-1,-8,-13,-3,-12
1522606788854625,29,0,-2,-2,7,19,6,4
1522606788855628,-10,-1,1,-1,-5,-8,-9,1
1522606788855628,-8,12,-1,-1,-8,12,5,30
1522606788877687,5,-14,1,0,11,-23,-9,-3
1522606788877687,13,6,2,5,-7,8,5,11
1522606788878689,3,9,-1,0,20,6,0,-8
1522606788878689,24,-4,-1,-1,-18,-2,-4,-8
1522606788890721,-19,-2,-3,-4,-4,-12,-7,-8
1522606788890721,5,-4,-2,3,8,8,-2,1
1522606788899745,15,-2,-2,1,4,37,3,7
1522606788899745,11,2,0,-4,-4,2,27,-6
1522606788914785,22,3,-6,-3,-8,-5,-21,25
1522606788914785,-2,11,3,-4,-2,7,4,-3
1522606788914785,-8,-9,5,3,9,7,-5,-1
1522606788914785,-53,-9,-5,-3,-7,-18,-11,-21
1522606788937847,-19,5,8,5,3,-6,5,-3
1522606788937847,36,14,-1,0,-3,5,20,1
1522606788938849,29,15,0,-1,6,-10,-3,10
1522606788938849,8,-12,-10,-10,-7,-4,1,-26
1522606788950881,3,8,1,1,-6,-6,3,-8
1522606788950881,41,-16,5,0,4,1,-6,6
1522606788959905,-55,-3,-3,0,2,-6,1,-14
1522606788959905,10,11,4,0,-3,21,1,9
1522606788973943,34,10,0,0,-3,-15,-2,10
1522606788973943,-2,-10,-3,-2,1,5,-3,-2
1522606788974945,0,8,0,-1,1,-2,-6,-10
1522606788974945,-13,-9,-3,1,-6,-19,-9,-6
1522606788998007,-29,-15,-4,-1,1,19,1,-12
1522606788998007,11,13,4,1,0,-8,-16,3
1522606788998007,37,7,3,2,-1,-8,10,15
1522606788998007,5,-16,-7,-1,0,0,-9,-2
1522606789011041,-28,-2,1,2,-1,-6,13,0
1522606789011041,11,-2,3,3,1,1,-4,3
1522606789019062,-20,-15,-6,-4,-2,3,-4,-5
1522606789019062,28,2,3,0,1,-1,3,10
1522606789034103,-55,-20,-3,-4,-3,8,5,-9
1522606789034103,-9,10,-3,1,2,38,12,-9
1522606789035105,-8,-9,-5,-2,-1,-23,-10,0
1522606789035105,35,19,4,-3,-4,-27,13,17
1522606789059169,0,0,1,-2,-4,-3,-1,-15
1522606789059169,-5,7,0,2,0,1,4,-9
1522606789060172,15,5,-1,-2,1,-2,-1,10
1522606789060172,-39,-13,-3,0,-3,-1,-9,-15
1522606789071201,-1,0,-3,-1,-4,16,22,-1
1522606789071201,7,-2,-6,-7,10,25,-10,-5
1522606789079222,14,-3,-1,1,7,-3,26,17
1522606789079222,19,8,3,0,-3,30,-31,8
1522606789094262,9,-1,0,-1,-3,-47,-6,-3
1522606789094262,3,-1,0,-2,-14,-15,-2,7
1522606789095265,-14,0,1,-5,-6,-10,-9,-14
1522606789095265,6,5,0,-1,10,18,10,-1
1522606789117324,48,-16,-4,3,1,14,0,10
1522606789117324,2,20,3,1,0,-8,-1,14
1522606789118327,-42,-11,-6,-4,-3,5,-4,-15
1522606789118327,-25,-14,0,2,-3,-27,-23,-26
1522606789140385,44,9,8,4,6,6,25,9
1522606789140385,-23,-11,-6,-2,3,25,-4,-3
1522606789140385,-10,3,-5,2,2,-6,7,0
1522606789140385,34,9,3,1,-13,17,15,11
1522606789154422,-87,10,2,1,17,19,7,15
1522606789154422,27,-26,-2,0,10,7,-24,-6
1522606789155425,-20,1,-3,-7,-52,8,-21,-12
1522606789155425,61,16,4,1,34,-15,12,16
1522606789176481,-57,-12,-5,-1,0,14,-32,-17
1522606789176481,25,8,-3,0,-16,-45,30,10
1522606789177484,-14,-3,-1,-9,-3,35,3,-4
1522606789177484,45,8,-3,1,-1,-26,-8,9
1522606789200545,117,21,6,5,9,-2,-8,16
1522606789200545,-116,-35,-10,-5,-5,2,-14,-46
1522606789200545,43,-5,-1,0,-6,-15,-9,1
1522606789200545,3,34,4,-2,-14,4,-9,-7
1522606789214583,-38,-43,-5,-4,7,4,19,3
1522606789214583,6,13,2,3,0,-18,-18,26
1522606789215585,19,8,4,4,6,2,8,11
1522606789215585,-23,-12,-3,0,8,1,-4,4
1522606789236641,-20,9,-4,0,-6,10,-1,-21
1522606789236641,44,-3,1,-2,-10,3,8,9
1522606789237644,-42,-10,1,3,13,-23,0,-10
1522606789237644,31,14,1,-2,2,17,6,6
1522606789259702,-37,-19,-5,-2,-9,10,8,-5
1522606789259702,-22,13,1,-4,-7,-17,-3,7
1522606789260705,-29,-15,-7,0,11,-2,-20,-19
1522606789260705,-25,-17,0,-1,-15,7,19,-8
1522606789275745,97,23,4,-1,-1,4,-4,15
1522606789275745,-54,5,-1,2,26,14,19,-9
1522606789276749,0,-8,5,4,7,15,7,8
1522606789276749,-5,-6,0,-1,-9,-18,-6,-10
1522606789296803,-14,-16,-4,-1,-15,-3,-24,-7
1522606789296803,52,18,0,-3,-42,-4,-9,10
1522606789297804,-16,-6,-4,2,61,19,32,-4
1522606789297804,68,6,2,1,-3,23,22,12
1522606789319862,-53,-9,-4,-4,9,-8,-8,-27
1522606789319862,50,6,1,0,-17,-16,-60,-2
1522606789320865,-3,-10,-2,-2,-9,-21,34,1
1522606789320865,-25,-2,-2,-3,0,-9,-8,-6
1522606789334902,19,-2,-1,1,-8,-3,13,9
1522606789334902,-9,-6,-5,-6,-3,-22,-22,-5
1522606789334902,-6,-1,1,0,-10,-39,-12,2
1522606789334902,-25,6,-2,2,13,22,-21,-12
1522606789356961,28,-3,1,-1,-29,-54,-12,15
1522606789356961,-14,-11,-2,2,29,27,24,-1
1522606789357964,36,10,0,-1,3,21,-1,-14
1522606789357964,-24,-12,-5,-1,-8,-9,11,7
1522606789380025,11,20,0,-2,-6,7,-9,-4
1522606789380025,8,-5,1,2,6,-4,13,3
1522606789381025,-7,3,-5,-3,-12,7,0,15
1522606789381025,-6,-5,-5,-5,-8,-25,-20,-7
1522606789394059,-6,8,-2,0,7,5,0,-9
1522606789394059,0,-3,1,0,7,3,17,2
1522606789395062,6,5,0,0,-10,-18,-23,-2
1522606789395062,-25,-17,0,-4,-3,8,1,1
1522606789417121,82,14,2,6,11,-1,11,15
1522606789417121,-106,-8,-3,0,-3,-12,-8,-31
1522606789418124,-1,-13,0,-1,-7,6,-9,2
1522606789418124,-13,-10,-4,-1,4,-1,2,-1
1522606789440182,25,9,0,-3,-3,3,6,13
1522606789440182,-25,2,0,0,-5,-8,6,-3
1522606789441185,32,10,0,2,9,23,0,1
1522606789441185,-24,-11,-7,-5,-4,-31,-8,-18
1522606789454219,-18,5,4,-2,-3,8,1,-6
1522606789454219,47,5,0,3,-1,3,11,9
1522606789455223,-12,11,3,2,-4,-3,-3,-3
1522606789455223,27,-10,-1,3,4,16,8,9
1522606789477281,-67,7,-2,2,3,-3,-14,-22
1522606789477281,22,-46,-11,-11,-6,-3,1,-12
1522606789477281,-6,7,5,2,0,2,-6,-2
1522606789477281,7,14,7,3,-2,1,-7,-3
1522606789500342,6,4,-1,-5,0,-5,16,30
1522606789500342,-8,-3,-1,1,6,4,-13,-9
1522606789501345,22,12,0,-2,-6,18,3,5
1522606789501345,-50,-31,-9,-4,-5,-20,-1,-19
1522606789514380,-4,2,2,-2,0,-38,-6,6
1522606789514380,62,15,1,1,3,-1,13,36
1522606789515382,1,17,-6,-2,-3,10,2,-2
1522606789515382,-1,-43,-5,1,3,13,7,9
1522606789536438,-95,-27,-2,-5,-5,14,-15,-45
1522606789536438,47,12,5,0,0,10,9,17
1522606789537441,-7,4,-2,-2,-2,-22,-11,-5
1522606789537441,57,28,6,1,1,4,6,16
1522606789560502,-1,-10,-7,-3,1,1,-4,-5
1522606789560502,-1,8,1,-1,1,30,6,-2
1522606789560502,-1,-12,-2,-6,-6,4,12,5
1522606789560502,11,18,-1,-4,-1,-2,-4,6
1522606789574540,17,-7,-2,4,7,26,0,8
1522606789574540,-39,0,3,-1,-11,-56,-22,-16
1522606789575543,-1,-4,1,0,-1,0,4,0
1522606789575543,-30,-1,-11,-8,-6,20,3,2
1522606789596602,-5,1,1,0,0,5,-1,3
1522606789596602,39,16,-2,1,2,11,14,19
1522606789597602,-10,-42,2,6,5,-25,-34,-12
1522606789597602,69,34,10,-3,-6,38,17,13
1522606789619659,-41,-27,-9,-5,1,34,0,-36
1522606789619659,60,12,-7,-4,-2,2,28,15
1522606789620662,39,20,4,0,1,-12,14,17
1522606789620662,2,18,10,3,3,-16,-1,5
1522606789634700,9,-1,2,-1,4,7,-20,4
1522606789634700,-27,-8,-2,2,-1,9,21,-11
1522606789634700,22,11,1,0,0,28,-17,-1
1522606789634700,-30,1,3,4,4,-35,-60,-4
1522606789656758,19,13,1,0,2,18,73,15
1522606789656758,-18,-7,3,-4,-1,8,4,-6
1522606789657761,-62,-19,-5,-4,-4,13,14,-4
1522606789657761,29,2,-11,0,2,17,-2,-11
1522606789679819,-4,-7,10,4,-4,-84,-51,5
1522606789679819,-23,5,5,3,-3,-10,-17,-9
1522606789680823,83,29,4,0,-1,30,25,13
1522606789680823,-111,-56,-10,-5,-3,12,6,-15
1522606789694860,111,14,-12,-6,-3,-12,5,15
1522606789694860,-1,-9,-2,0,1,6,-9,15
1522606789694860,22,14,8,-2,-2,-17,-14,-1
1522606789694860,69,4,0,4,-1,-56,-19,12
1522606789716919,-85,7,3,1,-3,10,7,-7
1522606789716919,-24,-18,1,1,2,-7,-17,-14
1522606789717922,-16,-24,-18,-11,-2,-29,-8,-3
1522606789717922,28,18,11,4,3,33,-2,-2
1522606789739979,44,6,9,6,5,11,26,17
1522606789739979,7,-5,-9,-5,-7,-1,17,-22
1522606789740982,-43,9,-5,-1,2,2,8,-8
1522606789740982,-40,-14,3,-1,-3,-61,-34,-11
1522606789754017,22,-2,-1,-1,1,9,37,4
1522606789754017,1,7,2,0,8,23,0,5
1522606789762038,29,0,0,-1,-2,23,-17,-1
1522606789762038,8,5,-7,-5,-18,-83,32,-12
1522606789777078,-73,-9,-1,1,1,8,-65,-12
1522606789777078,20,14,2,-2,-1,-4,8,7
1522606789778081,-42,2,-6,-3,6,16,22,-12
1522606789778081,-1,-15,0,0,-9,26,9,2
1522606789800139,-45,5,-4,-1,8,-8,-4,3
1522606789800139,6,-13,-4,0,-1,13,-17,-3
1522606789801142,41,0,7,1,-13,-25,65,4
1522606789801142,-16,7,-1,0,9,31,-8,3
1522606789814177,27,-15,-4,-8,-9,6,13,-22
1522606789814177,-25,-3,-6,-6,-4,-38,-67,-17
1522606789822198,0,2,-3,6,0,-2,-1,5
1522606789822198,1,5,0,-1,6,23,43,1
1522606789837238,75,26,-2,-2,-4,-7,-15,-7
1522606789837238,-23,-41,-5,-2,3,0,5,10
1522606789837238,-21,-7,1,-2,-9,-21,-34,-10
1522606789837238,27,22,1,0,8,30,31,15
1522606789860299,0,-16,-5,4,1,0,-19,1
1522606789860299,45,29,13,2,0,7,22,12
1522606789861302,5,-2,0,0,2,-28,-13,1
1522606789861302,-71,-33,-12,-3,2,21,-12,-12
1522606789873334,-16,6,-6,-3,-5,-4,1,-7
1522606789873334,8,6,6,5,2,-12,-3,-11
1522606789882358,31,-4,-3,-5,-3,-24,-16,8
1522606789882358,-56,13,2,-6,-1,5,-5,-12
1522606789896395,-16,-4,1,1,-5,-48,-2,1
1522606789896395,-26,-9,-5,-1,-1,-13,-15,-8
1522606789897398,-3,-1,1,-2,1,9,-18,7
1522606789897398,9,-1,-1,0,1,32,7,15
1522606789920459,17,2,-1,-1,-2,-11,-3,23
1522606789920459,16,3,1,1,-2,35,24,5
1522606789920459,-21,-1,-3,-2,-1,-13,-15,-5
1522606789920459,-35,-10,-1,1,0,2,-2,-17
1522606789933494,-14,-1,0,0,1,14,-14,-3
1522606789933494,46,18,0,0,-1,-11,11,10
1522606789941516,47,-5,-3,0,2,25,12,9
1522606789941516,-6,-2,-4,1,-13,-30,-20,-14
1522606789956557,-84,-17,-1,-6,1,7,-14,-19
1522606789956557,-64,-21,-12,-5,-8,-49,-11,-29
1522606789957558,7,-11,0,-2,3,21,-14,3
1522606789957558,54,12,2,5,4,-15,0,-6
1522606789979617,22,10,4,1,-1,20,18,11
1522606789979617,-2,-2,-5,-3,-1,4,-3,4
1522606789980619,-42,-9,0,0,3,24,13,-1
1522606789980619,10,0,-3,-4,0,-29,-9,5
1522606789993654,10,-4,-2,-2,-3,-28,-14,-10
1522606789993654,59,13,3,-1,-1,15,1,18
1522606790001675,-91,-16,-1,0,-3,-26,-6,-29
1522606790001675,-1,0,3,-2,0,18,7,-2
1522606790016715,13,-9,-3,-4,-1,3,3,5
1522606790016715,7,25,2,1,2,-5,-13,7
1522606790017718,-10,-14,-9,-2,-6,-17,2,-19
1522606790017718,-39,-15,-2,-1,-1,8,-3,4
1522606790039777,-11,-3,-1,-1,-3,-18,23,3
1522606790039777,-22,-7,-2,2,1,11,5,-11
1522606790040780,27,15,3,0,-1,-4,-7,5
1522606790040780,2,-10,-3,0,0,-10,-2,-7
1522606790053814,40,11,4,2,3,19,-2,5
1522606790053814,-71,-13,-9,-4,-4,-30,-9,-21
1522606790061836,28,17,3,-3,-3,-34,-4,13
1522606790061836,-3,-12,-8,3,0,7,-7,-12
1522606790076876,30,-6,2,1,1,14,-3,8
1522606790076876,-16,-1,9,0,-4,-5,7,3
1522606790077878,-2,-6,-1,-1,0,2,-14,4
1522606790077878,58,23,-1,0,2,8,2,-1
1522606790099937,-40,-18,-6,-5,-3,19,1,-18
1522606790099937,7,8,0,-1,-3,-35,-10,-5
1522606790100939,25,-7,-3,2,1,3,2,7
1522606790100939,-13,11,7,0,-1,6,10,12
1522606790122998,4,-6,-4,4,2,5,1,-21
1522606790122998,26,-1,-4,-5,0,42,19,12
1522606790122998,-42,-12,-2,-6,-2,-8,-5,-8
1522606790122998,100,38,3,-2,-1,-2,19,40
1522606790137035,-59,-2,-2,3,0,-3,3,3
1522606790137035,-1,-13,5,1,1,9,7,24
1522606790138038,-15,6,-1,2,1,10,-5,0
1522606790138038,31,-7,-1,-3,1,4,5,1
1522606790160097,-39,20,3,-2,-2,-11,-4,-12
1522606790160097,36,-21,-2,2,-3,20,-2,-1
1522606790161100,4,5,-3,-3,-8,-45,-8,13
1522606790161100,-5,4,4,0,-2,-7,-6,12
1522606790182155,10,-2,0,0,-3,2,-1,0
1522606790182155,-16,-5,-1,2,7,-1,-3,-14
1522606790183158,16,1,1,2,-1,-1,-2,7
1522606790183158,-14,1,-1,0,0,1,1,7
1522606790197196,25,-7,-9,-1,-1,-2,-24,-4
1522606790197196,5,9,-1,-4,-3,-5,10,-1
1522606790197196,10,7,0,-1,1,32,5,2
1522606790197196,-41,-12,1,0,-6,-24,-16,-25
1522606790220257,37,12,7,1,-4,-17,-7,15
1522606790220257,-10,-3,-2,0,-1,-5,-7,11
1522606790221260,2,-2,-2,-3,-2,0,-2,-13
1522606790221260,46,3,-1,0,2,7,4,3
1522606790242316,-34,-20,-3,-5,1,33,4,-21
1522606790242316,26,21,4,-1,-3,-16,6,-1
1522606790243318,14,-3,-2,2,4,13,-3,-5
1522606790243318,-60,-23,-3,-1,-2,-16,-15,-17
1522606790257355,98,23,10,-1,-2,9,16,28
1522606790257355,24,19,0,0,3,17,4,-8
1522606790257355,-82,-33,-6,-2,0,-5,-4,-23
1522606790257355,72,0,-6,-2,-2,21,4,6
1522606790280417,-70,0,-2,-2,-1,-5,2,3
1522606790280417,1,3,-3,-2,2,18,6,-1
1522606790280417,-3,3,-1,2,-5,-66,-28,-7
1522606790280417,32,17,12,5,-6,-1,27,0
1522606790302475,-26,-26,-2,0,2,2,5,1
1522606790302475,-20,-9,-4,-2,-3,3,-6,-1
1522606790303478,-15,-4,-3,-3,2,36,0,-4
1522606790303478,-26,-10,-8,-5,-3,-37,-11,-7
1522606790316513,36,9,2,2,-1,-8,0,1
1522606790316513,-5,-7,-2,1,0,-19,-8,5
1522606790317516,-48,-7,0,-1,2,10,28,-11
1522606790317516,27,4,0,-1,6,28,10,9
1522606790339574,6,3,0,-1,-2,-11,1,2
1522606790339574,-19,-9,-1,-2,-1,8,8,-14
1522606790340577,81,12,-2,0,-3,-42,-22,15
1522606790340577,-122,-15,0,0,-2,8,-7,-29
1522606790362636,82,8,5,2,8,3,-1,10
1522606790362636,-68,-16,-3,-2,-34,-1,6,-1
1522606790363638,-4,8,3,0,25,8,2,15
1522606790363638,25,3,-3,-1,-3,-42,-4,10
1522606790376672,-5,-15,-6,-2,2,-19,-17,-11
1522606790376672,2,13,-1,-5,-13,-3,-42,-6
1522606790377676,-34,-21,-3,-4,-3,45,32,-7
1522606790377676,17,14,3,1,3,-5,-9,21
1522606790399734,6,-4,-5,-3,-2,0,-18,-11
1522606790399734,-10,2,-1,3,11,-33,-22,3
1522606790399734,15,15,5,-1,-5,23,68,15
1522606790399734,-32,-24,-5,-6,-3,10,-5,-20
1522606790422795,27,-4,-6,-2,-3,20,5,0
1522606790422795,-8,3,3,4,3,-27,-33,2
1522606790423798,22,10,5,3,0,10,9,2
1522606790423798,33,10,-2,0,1,3,6,-3
1522606790436833,-25,4,6,1,-6,0,12,7
1522606790436833,51,-4,0,-1,10,52,-13,7
1522606790437836,-63,-10,-6,0,-3,-41,8,-16
1522606790437836,-33,-12,-5,-3,-1,7,-1,-14
1522606790459894,-12,0,-3,-2,-14,-24,-27,4
1522606790459894,50,7,-1,-1,21,31,74,15
1522606790459894,7,4,5,1,-9,-3,-39,-16
1522606790459894,-10,0,6,2,3,29,0,7
1522606790482955,-6,5,-2,0,3,-16,1,5
1522606790482955,42,-4,0,-2,-8,11,-6,-4
1522606790482955,0,4,-4,2,-2,5,-5,5
1522606790482955,-56,-8,-4,-1,3,9,-21,-13
1522606790496992,-25,-7,-3,-3,-4,-1,-1,0
1522606790496992,9,7,-1,-1,-3,-21,-3,-7
1522606790497995,-16,-22,-4,-3,2,37,-4,-5
1522606790497995,15,9,2,5,3,-4,9,13
1522606790519052,-7,13,3,-3,-3,4,-13,-15
1522606790519052,-15,-22,-5,-5,-7,-32,-1,-5
1522606790520054,-5,-8,-2,-4,-4,-13,-12,-2
1522606790520054,13,-5,-4,0,-2,24,18,2
1522606790542113,-35,8,2,0,-2,-21,-2,1
1522606790542113,-4,5,-3,-3,1,13,3,-12
1522606790543115,25,5,2,4,0,9,4,1
1522606790543115,-48,-8,1,-2,-4,-37,-4,-10
1522606790557153,52,3,0,4,0,11,13,13
1522606790557153,-42,-14,-6,-3,4,8,21,-14
1522606790558156,21,10,0,1,0,2,-16,15
1522606790558156,15,7,1,-2,-2,-11,8,-10
1522606790579211,23,-2,-1,3,0,-2,14,1
1522606790579211,-13,-5,4,2,1,-9,-7,2
1522606790580214,23,11,2,-2,-3,-10,-12,2
1522606790580214,1,-2,-4,-2,-2,19,10,-2
1522606790602273,-39,-18,-8,-5,-4,-19,-27,-23
1522606790602273,41,4,2,2,1,-4,3,6
1522606790603276,-56,-10,-6,-5,-9,-16,-23,-16
1522606790603276,-1,4,4,0,-1,-13,-4,7
1522606790617313,18,4,1,-2,3,13,10,4
1522606790617313,-11,7,-3,-1,0,-41,-8,3
1522606790617313,59,12,1,-3,-1,3,-8,-2
1522606790617313,-32,-15,-1,1,2,10,-9,4
1522606790639371,-7,0,-6,-4,-2,-7,7,4
1522606790639371,15,4,1,2,-2,7,-8,-1
1522606790640374,18,-3,3,1,-1,2,6,13
1522606790640374,16,11,-8,-2,-5,-8,-6,-7
1522606790662433,13,-11,8,9,8,19,14,6
1522606790662433,-2,2,-1,2,-1,3,3,2
1522606790663435,-18,3,0,0,-1,-7,-2,-2
1522606790663435,25,-3,1,-1,1,13,-12,6
1522606790676471,-47,-6,-3,-5,-4,-48,-2,0
1522606790676471,26,7,-1,-3,-3,3,3,6
1522606790677473,4,4,3,3,0,-2,1,-1
1522606790677473,2,-2,-3,-2,0,-5,-8,-15
1522606790699531,-27,-3,-7,-6,-3,12,-6,-2
1522606790699531,4,-3,5,3,6,28,12,3
1522606790700534,8,-3,-3,-4,-4,-25,-9,4
1522606790700534,13,11,1,-1,-1,5,0,6
1522606790722593,-4,1,-3,-3,-5,-3,-8,-13
1522606790722593,-33,-8,-3,-1,0,10,2,-12
1522606790723595,12,-5,1,1,2,11,-9,0
1522606790723595,-1,3,-1,-2,-2,8,7,0
1522606790736630,1,-9,-2,4,1,-15,-3,1
1522606790736630,-21,3,1,0,-3,-7,-13,-5
1522606790744651,67,9,3,-3,1,35,25,8
1522606790744651,-40,4,7,1,-1,-16,1,20
1522606790759691,-35,-8,-10,0,0,13,1,-23
1522606790759691,-36,-1,1,0,1,11,-4,-1
1522606790760694,41,-10,-5,0,-3,-47,-9,0
1522606790760694,-24,6,-1,-6,-4,9,5,-1
1522606790782753,0,5,2,0,4,22,9,2
1522606790782753,-32,-3,0,-1,-1,8,-3,7
1522606790783755,-63,-18,-3,-1,1,16,9,-13
1522606790783755,32,14,3,5,2,-4,0,3
1522606790795788,50,14,3,-2,-3,-7,-6,8
1522606790795788,-25,-6,2,0,-2,-3,1,6
1522606790804811,11,15,-3,-4,-1,-3,-5,10
1522606790804811,-78,-33,-15,-10,-7,-25,-18,-24
1522606790819851,115,17,4,6,2,23,17,14
1522606790819851,-75,-15,2,1,-1,-10,-13,-11
1522606790819851,30,0,-2,-3,-4,-1,-3,-3
1522606790819851,-3,-4,-9,-5,-3,0,2,8
1522606790842913,3,-6,2,-1,3,8,-9,-1
1522606790842913,76,6,-4,-4,-2,-23,19,25
1522606790842913,-46,-10,1,5,0,-4,-32,-20
1522606790842913,60,2,1,6,2,5,-2,-8
1522606790855947,8,4,-2,-7,-6,-7,1,5
1522606790855947,-58,-10,-2,3,5,15,-5,-28
1522606790863969,4,3,-3,-3,-3,-25,12,-3
1522606790863969,78,5,2,0,-1,-32,-4,5
1522606790879009,-44,-7,0,-1,0,-17,-17,-9
1522606790879009,42,2,-5,-6,-5,-5,-1,-6
1522606790880011,-12,1,-1,0,2,27,10,2
1522606790880011,1,-4,-2,0,0,11,-2,-14
1522606790903073,55,10,5,1,-2,-15,-9,17
1522606790903073,-88,-10,-5,-2,-2,-18,1,-35
1522606790903073,18,5,-2,0,-1,7,2,8
1522606790903073,-8,-4,-1,1,-1,4,2,2
1522606790916108,9,4,0,-2,0,16,-1,6
1522606790916108,107,13,0,1,2,9,0,27
1522606790924129,-105,-26,-3,-3,-3,0,13,-34
1522606790924129,-5,7,4,3,4,12,-36,3
1522606790939169,-7,-3,0,-3,-1,-4,3,3
1522606790939169,70,8,-2,-2,-3,-2,-7,11
1522606790940171,-29,7,3,0,-2,-33,-12,9
1522606790940171,0,-1,-5,-2,-3,-67,-7,-5
1522606790962230,-63,-2,0,-15,-15,20,26,-8
1522606790962230,3,-5,-3,11,-5,-9,-45,-12
1522606790963233,24,-2,-4,1,-1,-51,-11,1
1522606790963233,26,8,7,2,0,27,9,6
1522606790976267,-19,2,-1,6,10,2,4,3
1522606790976267,16,-7,-7,-21,-5,-4,6,0
1522606790984289,-15,16,1,3,-4,24,0,13
1522606790984289,-21,-20,-3,0,4,-4,14,-18
1522606790999329,0,-4,-2,-5,-5,-7,8,3
1522606790999329,-43,2,3,-27,1,14,-11,-4
1522606791000331,72,6,0,18,-1,13,-13,13
1522606791000331,-15,0,3,14,6,-19,49,-3
1522606791022390,-8,-2,2,7,4,16,4,-1
1522606791022390,50,7,2,6,-4,-7,9,3
1522606791023393,-34,-6,-5,-16,0,30,3,9
1522606791023393,35,7,0,-6,-2,17,-11,3
1522606791036428,-55,-23,-7,0,-7,-33,-24,-16
1522606791036428,-1,-6,-3,0,4,23,25,0
1522606791044448,2,-2,-4,-5,2,5,8,-10
1522606791044448,5,3,6,0,-11,5,6,4
1522606791059489,78,0,0,3,18,11,-7,8
1522606791059489,-60,5,0,1,-15,5,-3,-11
1522606791060491,13,-3,1,4,16,-30,-1,-3
1522606791060491,-22,-12,-10,-5,-5,-12,23,-10
1522606791082550,10,5,1,-2,-2,7,4,-2
1522606791082550,31,2,1,-3,2,-1,0,11
1522606791083553,17,11,4,-2,-63,40,18,6
1522606791083553,6,-2,0,8,60,28,6,11
1522606791104609,19,12,0,-2,-2,-8,-1,11
1522606791104609,-101,-22,-6,3,5,-20,-15,-34
1522606791105611,36,1,-1,-6,-6,8,4,0
1522606791105611,2,4,3,-3,-13,12,-13,3
1522606791119649,14,6,-1,-1,-5,13,4,6
1522606791119649,41,12,6,8,0,-19,0,13
1522606791120651,-25,-19,-7,-5,10,2,0,-7
1522606791120651,-45,-15,-8,-10,-15,20,-14,-26
1522606791142710,-42,-5,0,4,9,-38,0,-7
1522606791142710,36,2,1,-2,-1,1,-2,4
1522606791143713,35,13,3,0,14,4,-1,18
1522606791143713,-35,6,-1,-2,-6,-3,-7,-2
1522606791164769,-6,-13,1,-2,-8,11,-2,-6
1522606791164769,24,-1,-3,1,2,4,1,1
1522606791165772,-28,-4,-4,-11,-5,15,8,-10
1522606791165772,46,1,0,15,5,2,-5,17
1522606791179809,1,14,2,-2,-3,0,-1,-5
1522606791179809,1,-2,1,-1,7,-2,3,5
1522606791179809,19,5,-2,-25,-9,-7,-3,-2
1522606791179809,-31,0,-2,18,-3,-7,-15,-10
1522606791202870,-22,-5,-2,2,0,9,11,-6
1522606791202870,37,8,0,1,5,-1,3,15
1522606791202870,-35,9,0,9,7,-6,-9,-22
1522606791202870,13,-6,-1,-15,-15,-12,-4,-2
1522606791224929,13,-11,-5,0,2,1,-3,-5
1522606791224929,-36,4,-4,-2,-8,-1,7,0
1522606791225932,-34,-33,-2,1,6,-10,-20,-6
1522606791225932,126,44,7,-3,0,5,4,26
1522606791238966,-109,-22,-4,-2,-3,3,4,-4
1522606791238966,40,-3,-6,-4,-9,23,-13,-18
1522606791239969,53,16,3,5,5,-17,11,15
1522606791239969,-35,-17,-3,-8,-1,-1,-2,-12
1522606791263030,72,20,6,3,-2,1,3,30
1522606791263030,-88,-2,-2,-2,-2,-3,-2,-3
1522606791263030,2,9,-1,6,8,15,0,-2
1522606791263030,-18,-20,-6,-9,-7,-16,-2,11
1522606791285089,-1,-11,-2,-1,-1,-5,-7,-18
1522606791285089,23,3,1,4,1,-3,4,6
1522606791286092,46,8,2,4,5,1,8,7
1522606791286092,-104,-18,-5,-6,-6,-2,-5,-22
1522606791299126,27,9,-1,-2,-1,2,-5,1
1522606791299126,10,-26,-7,-2,0,-12,-9,-10
1522606791300129,4,10,7,3,2,-2,2,11
1522606791300129,22,10,-5,-10,-8,-2,-12,-15
1522606791322187,-24,-10,-3,3,0,-1,-5,-9
1522606791322187,14,-5,0,3,0,0,4,1
1522606791323190,-8,-11,5,-2,1,-5,1,4
1522606791323190,91,7,5,3,1,4,2,0
1522606791345248,-66,2,-12,-6,-2,-5,0,-14
1522606791345248,-10,-7,0,-3,-2,-6,0,-3
1522606791346252,26,-18,-5,2,1,-3,-3,-7
1522606791346252,-72,-4,-2,-1,0,8,3,2
1522606791359286,48,16,5,-2,-2,-6,-7,12
1522606791359286,37,5,-1,2,0,9,5,8
1522606791360289,-15,-14,-7,-3,3,10,-3,2
1522606791360289,20,22,9,5,1,-6,13,10
1522606791382347,-46,-15,-3,-3,-3,-3,-12,-9
1522606791382347,-2,5,-2,0,-1,0,3,6
1522606791383350,-47,-2,-3,-1,2,7,-3,-9
1522606791383350,24,-8,-6,-3,-3,2,-6,-1
1522606791405409,-12,11,4,3,1,-20,-3,5
1522606791405409,-5,-1,7,2,-1,14,21,5
1522606791405409,16,12,-5,0,-3,4,0,-2
1522606791405409,-34,-18,0,-4,-4,-38,-33,-3
1522606791419446,-12,10,2,3,2,-14,1,-5
1522606791419446,-41,-32,-5,-3,-2,-4,-3,0
1522606791420449,56,15,-4,0,-2,6,-5,6
1522606791420449,-30,6,0,0,-4,-12,2,0
1522606791441505,48,5,3,-1,0,8,3,10
1522606791441505,-3,2,3,3,2,-9,-3,-1
1522606791442507,-54,-8,-4,-2,-2,2,0,-14
1522606791442507,58,-8,-2,2,2,13,12,10
1522606791465568,26,4,-2,-6,-3,2,-18,2
1522606791465568,21,6,-1,2,0,-8,-4,-29
1522606791465568,-30,-6,-1,-1,1,0,-14,-7
1522606791465568,7,5,-3,1,5,48,14,-3
1522606791479606,11,-16,-8,-6,-8,-59,-19,-12
1522606791479606,74,18,3,0,-4,-2,5,28
1522606791480609,-98,-17,1,0,0,-8,-2,-26
1522606791480609,30,10,0,0,0,-6,-8,3
1522606791501664,41,15,5,-1,3,56,28,15
1522606791501664,-79,-12,-5,-5,-4,-69,-47,-7
1522606791502667,43,7,2,0,0,-31,-5,8
1522606791502667,-50,-6,0,3,-1,-3,7,-2
1522606791524726,-16,-20,-6,-4,5,7,4,-4
1522606791524726,25,21,5,-5,-21,11,0,18
1522606791525729,121,13,4,1,7,1,16,29
1522606791525729,-128,-43,-11,-2,-8,-8,-16,-64
1522606791539766,60,8,0,6,4,6,8,5
1522606791539766,54,8,0,0,6,13,9,0
1522606791539766,-19,1,-3,-2,-7,-6,-19,-5
1522606791539766,77,1,6,-3,9,49,14,23
1522606791561825,-21,-15,-6,-1,-10,-33,1,-12
1522606791561825,-26,-8,-5,-3,1,15,6,-6
1522606791562827,66,13,6,1,0,22,47,25
1522606791562827,-60,2,0,-4,-5,-33,-12,-3
1522606791584886,-21,-6,-1,2,-1,17,-3,-20
1522606791584886,-24,-15,-6,-21,0,-6,-1,3
1522606791585889,-10,-6,-4,12,9,6,0,-5
1522606791585889,58,10,4,9,1,-22,-28,15
1522606791598923,14,3,-2,-9,22,19,38,6
1522606791598923,-21,-3,-6,5,-22,-13,3,-13
1522606791599926,-46,-4,-1,4,9,9,-19,-8
1522606791599926,98,23,7,20,1,23,29,20
1522606791621985,-106,-8,-2,0,1,-28,-53,-26
1522606791621985,86,-4,2,-4,-13,12,-5,15
1522606791622987,-39,-26,-13,-23,-5,-30,-3,-27
1522606791622987,-75,-11,-4,-6,3,-2,-3,-19
1522606791645046,45,10,3,0,-11,14,-9,11
1522606791645046,28,13,1,-3,9,8,4,7
1522606791646049,-13,-4,-3,4,-13,-4,-9,-7
1522606791646049,70,-1,-1,-6,7,-7,-3,18
1522606791659083,8,1,-1,1,-7,-1,7,-2
1522606791659083,-89,-11,-6,1,2,-1,-2,-14
1522606791667104,18,8,5,6,10,5,6,8
1522606791667104,-4,0,-5,-5,-8,-3,10,1
1522606791682144,14,13,4,1,-3,8,9,8
1522606791682144,26,7,1,4,7,3,-7,-3
1522606791683147,-58,-24,-4,1,-7,2,-2,-10
1522606791683147,34,6,-2,-8,-3,1,1,4
1522606791705206,-6,-6,2,6,-2,4,3,11
1522606791705206,-4,6,2,3,7,-1,-16,-7
1522606791706209,-39,9,-1,-6,-7,13,-4,-28
1522606791706209,-48,-27,-2,-3,-9,-44,-11,-3
1522606791719243,-31,-13,-5,1,5,14,0,-4
1522606791719243,-8,-5,-2,3,-3,-6,-6,9
1522606791727265,85,10,4,-1,0,12,10,10
1522606791727265,-6,4,-6,-1,0,-1,-4,2
1522606791742305,5,18,3,-2,-7,1,-14,-2
1522606791742305,1,-27,-1,1,10,-5,5,4
1522606791742305,-24,1,-3,-1,-8,-19,-7,-8
1522606791742305,15,18,1,-2,5,5,-25,-2
1522606791765366,-10,-24,-2,3,9,-1,2,-5
1522606791765366,59,16,0,2,-8,-13,3,6
1522606791766369,-48,-9,-4,-4,4,0,3,11
1522606791766369,17,8,3,3,-1,20,14,10
1522606791778400,-1,1,1,-4,-7,-9,2,-5
1522606791778400,9,9,1,3,15,59,1,-3
1522606791787424,33,0,-4,-4,-16,-73,-31,4
1522606791787424,-76,-17,-9,-10,-16,-58,0,-23
1522606791801462,26,4,0,-1,-1,7,1,9
1522606791801462,-76,-2,2,6,4,15,12,-5
1522606791802465,50,17,6,-1,2,22,1,-3
1522606791802465,-17,1,-2,3,6,23,-2,-2
1522606791825526,13,-11,-2,-6,-5,-15,9,3
1522606791825526,31,-2,-2,4,2,0,-3,-5
1522606791825526,-18,7,6,12,6,15,3,-15
1522606791825526,-6,-3,1,3,1,5,-1,-10
1522606791838561,32,4,4,-1,-2,5,3,6
1522606791838561,-44,-2,-2,1,1,-9,-1,-10
1522606791846582,-42,-20,-6,-1,-2,-5,-6,-17
1522606791846582,47,17,9,0,1,13,14,22
1522606791861622,-4,0,-3,1,0,2,1,-3
1522606791861622,-15,0,3,-7,-5,-11,-5,1
1522606791862625,13,-6,-10,-7,-4,5,2,-10
1522606791862625,7,-11,-3,1,1,-8,6,10
1522606791884683,-33,10,8,-4,0,7,4,17
1522606791884683,0,16,4,6,3,-10,3,3
1522606791885686,12,-6,-3,-5,-1,8,5,9
1522606791885686,5,-11,-4,-2,0,12,1,-6
1522606791898721,-12,9,3,-5,-5,-10,-6,-11
1522606791898721,-9,-13,-8,-5,-9,-18,-2,-4
1522606791906742,-27,3,4,1,3,2,7,14
1522606791906742,67,27,0,-7,-3,6,4,25
1522606791921782,-35,12,2,7,1,-7,0,-13
1522606791921782,27,2,1,-5,-6,1,-9,-5
1522606791922785,-56,-15,4,3,2,1,-4,-13
1522606791922785,-49,-10,-1,-5,-1,14,-5,-18
1522606791944843,29,6,-6,-2,-11,-50,-4,9
1522606791944843,46,13,-2,-4,-8,-2,6,7
1522606791945846,-1,4,-5,2,0,-7,1,21
1522606791945846,31,2,16,16,11,18,-6,0
1522606791958881,-10,-8,-4,2,4,29,23,-3
1522606791958881,-27,-6,-6,-3,0,-1,-13,-3
1522606791966902,29,6,1,1,0,16,1,3
1522606791966902,17,-6,-6,-7,-5,-69,-9,5
1522606791981942,-4,-2,-9,-14,-8,-3,4,3
1522606791981942,-55,-12,5,3,3,7,-10,-13
1522606791982945,16,8,1,-2,2,17,5,3
1522606791982945,29,7,-5,-2,-2,0,2,3
1522606792005003,12,-6,1,2,2,21,-1,-2
1522606792005003,23,1,-3,-6,-5,-37,-7,9
1522606792006006,27,-20,-5,-2,-2,17,-5,-7
1522606792006006,-115,-1,-1,-2,-4,-38,-2,-8
1522606792028064,37,-12,-6,1,-1,-3,-6,2
1522606792028064,77,14,1,-1,2,20,8,14
1522606792028064,-60,8,0,-4,-2,-5,15,-2
1522606792028064,57,4,2,5,4,17,3,4
1522606792042102,-49,-18,-2,0,2,8,-22,-16
1522606792042102,7,0,-1,-5,-1,31,2,-1
1522606792043105,46,13,4,2,-2,-25,3,13
1522606792043105,-37,0,0,0,1,30,-6,-4
1522606792065163,-33,-20,-8,-1,-2,-2,11,-11
1522606792065163,-21,-6,-2,4,7,36,20,8
1522606792066166,5,4,1,-3,-5,-27,-8,1
1522606792066166,39,11,5,-2,1,13,1,8
1522606792087222,15,3,3,4,0,21,1,-1
1522606792087222,-65,-19,-9,-3,-2,-10,5,-18
1522606792088224,-11,-4,-2,4,3,-2,-19,-2
1522606792088224,40,-2,-5,-9,-3,14,14,2
1522606792102262,-30,-6,-6,9,-5,-33,-9,-4
1522606792102262,11,-1,3,-3,-5,-18,0,-2
1522606792102262,-20,5,0,-1,1,8,-10,4
1522606792102262,40,-5,0,2,4,5,4,-1
1522606792125323,11,-4,-1,-6,-5,11,2,5
1522606792125323,-13,-3,-4,1,-2,-10,-1,-5
1522606792126326,10,-6,3,3,1,-5,16,-2
1522606792126326,-26,-4,-6,-4,-1,19,4,-9
1522606792147382,34,9,3,2,5,2,1,7
1522606792147382,-31,11,0,0,-1,-17,-12,-9
1522606792148385,45,-11,-4,-8,-2,21,7,23
1522606792148385,-69,-34,-8,-2,-7,-18,-15,-35
1522606792162422,26,6,1,-1,-2,-7,1,-2
1522606792162422,-37,1,1,2,8,2,-9,-1
1522606792162422,8,0,-2,-2,10,33,4,-7
1522606792162422,-49,-19,-8,-10,-31,-23,4,3
1522606792185483,16,-2,-3,-1,4,-44,-33,2
1522606792185483,14,10,7,15,7,5,6,1
1522606792185483,29,8,-1,2,2,3,-6,2
1522606792185483,-20,9,-1,-17,-6,8,12,7
1522606792207542,5,-14,2,23,17,24,-2,-4
1522606792207542,61,6,-2,-7,10,-5,5,17
1522606792208545,-57,-9,-4,1,-18,-29,-22,-21
1522606792208545,54,20,2,-3,4,19,14,20
1522606792221579,-81,-24,-13,-16,-8,-12,-12,-24
1522606792221579,10,-7,0,-2,1,-3,6,2
1522606792222582,35,1,1,7,-2,-8,10,3
1522606792222582,-6,2,7,2,4,-2,-5,3
1522606792244640,40,37,5,-2,2,16,25,12
1522606792244640,-58,-46,-10,3,-2,-6,-51,-17
1522606792245644,-1,-7,-9,-12,-12,7,-5,2
1522606792245644,-33,-6,-5,0,-8,-53,-14,-8
1522606792267701,12,11,6,3,7,19,10,9
1522606792267701,114,21,4,-5,-10,7,34,22
1522606792268705,-104,-17,-4,-1,13,1,-19,-46
1522606792268705,32,-1,-3,9,5,38,16,4
1522606792281739,-12,-3,-6,-4,-2,11,3,-5
1522606792281739,34,8,2,-7,-3,-23,3,9
1522606792282742,11,-14,-6,-6,-7,21,11,0
1522606792282742,-24,11,4,15,8,2,6,-5
1522606792304800,-1,-2,1,-8,-22,20,-1,3
1522606792304800,-76,-22,-7,5,25,-35,6,-24
1522606792305803,22,4,2,1,-7,-8,2,9
1522606792305803,30,-2,-3,-6,12,-24,-23,0
1522606792327862,-6,1,-1,-2,-31,5,9,1
1522606792327862,-23,0,1,-4,-1,-59,-37,-7
1522606792328865,-35,-1,-1,-2,2,-3,15,-12
1522606792328865,33,1,-2,1,-10,-26,-3,1
1522606792341899,2,-3,-2,0,14,15,-12,-2
1522606792341899,44,9,5,-4,-14,18,11,5
1522606792342902,-47,7,1,-4,-3,-20,-30,-11
1522606792342902,-17,13,-4,1,0,26,3,-1
1522606792364960,-6,-20,6,1,6,-14,9,-7
1522606792364960,-4,12,-2,0,-5,-17,-15,-3
1522606792365963,16,2,1,-1,-3,-17,16,18
1522606792365963,31,11,-1,-3,-8,15,1,4
1522606792388021,-39,-5,-2,-2,7,-14,-14,3
1522606792388021,15,-6,-4,-2,-10,29,30,0
1522606792388021,29,8,4,7,1,-45,-10,3
1522606792388021,9,-13,-6,-6,-2,-8,-2,6
1522606792402059,-9,-7,-1,-2,6,5,-5,-13
1522606792402059,-42,-8,-2,-1,-8,19,3,0
1522606792403062,59,31,4,2,4,18,-3,6
1522606792403062,-54,-45,-4,0,4,1,6,-3
1522606792425120,74,9,4,3,2,0,6,0
1522606792425120,-25,0,-3,-3,-3,28,-2,-9
1522606792426123,67,17,6,-1,-5,-18,-1,25
1522606792426123,-79,-5,2,3,3,33,35,-8
1522606792448182,40,3,-10,-9,-5,-49,-29,5
1522606792448182,-5,-2,3,0,3,14,3,-7
1522606792448182,-33,-13,-5,-7,-5,2,-3,-9
1522606792448182,26,1,4,3,-2,-5,-7,-7
1522606792462219,4,-1,-6,-5,3,12,7,25
1522606792462219,16,19,9,10,4,8,8,21
1522606792462219,11,-16,-5,4,2,-1,16,9
1522606792462219,-1,-15,-13,-5,0,-4,-29,-33
1522606792485280,-10,20,17,5,2,9,7,-5
1522606792485280,-43,-20,-3,-10,-10,-11,-4,4
1522606792486283,19,-3,0,-2,1,13,12,-8
1522606792486283,-25,-21,-12,0,5,-1,-9,-16
1522606792507339,35,27,-2,4,4,-5,1,-1
1522606792507339,26,-1,-3,5,0,7,1,-7
1522606792508342,-82,-24,-4,-2,2,10,-4,-24
1522606792508342,77,36,1,-13,-7,-10,0,23
1522606792522379,-65,-32,6,16,7,-33,-12,-26
1522606792522379,30,10,6,9,3,3,-7,5
1522606792522379,-8,2,0,-2,-1,17,7,1
1522606792522379,29,15,7,3,6,6,-8,2
1522606792545440,47,13,5,-2,2,21,14,30
1522606792545440,-32,10,4,0,-6,31,15,-2
1522606792545440,5,2,4,1,-3,-69,-20,-8
1522606792545440,-24,-9,-2,2,1,4,-4,2
1522606792567499,-6,-2,-5,-7,-2,8,-14,1
1522606792567499,4,-11,-7,-8,-3,-30,4,-16
1522606792568502,46,7,-5,-6,-1,25,5,30
1522606792568502,-31,11,5,-15,-12,-8,-3,5
1522606792581536,-80,-9,2,2,-2,-6,1,-7
1522606792581536,27,16,4,4,12,57,8,30
1522606792582539,-91,-8,-5,-10,-12,-25,-13,-21
1522606792582539,57,4,2,7,1,-22,-2,7
1522606792605600,-27,26,1,-1,-3,27,18,5
1522606792605600,-49,-23,-3,-11,-6,5,-7,-10
1522606792605600,37,8,6,8,6,16,6,8
1522606792605600,-18,3,1,-2,-1,0,-6,-3
1522606792627659,31,-7,-8,-3,-6,-10,-2,-12
1522606792627659,13,4,-2,-6,-6,-29,-11,-7
1522606792628662,-31,-4,0,8,8,15,0,-11
1522606792628662,56,2,-1,6,1,6,12,-4
1522606792641696,-30,-12,-7,-4,-3,-10,-9,2
1522606792641696,-26,-10,-5,-3,-9,-17,-12,-12
1522606792649718,43,2,0,-2,4,51,11,0
1522606792649718,69,22,7,0,-2,-42,-18,22
1522606792664758,-18,-2,-4,-6,0,3,10,-4
1522606792664758,-52,-33,-11,-2,-3,-50,-20,-47
1522606792665761,39,15,-1,-5,-2,1,3,23
1522606792665761,-12,-6,7,8,2,8,-7,-4
1522606792687819,33,7,5,-1,2,15,5,6
1522606792687819,101,40,5,7,1,-26,-3,38
1522606792688822,-89,-34,-14,-3,-5,-17,-22,-23
1522606792688822,-23,-1,2,-4,16,23,23,5
1522606792700853,-19,-10,-4,-4,-31,-18,-16,-18
1522606792700853,45,17,1,1,5,31,14,15
1522606792709878,-30,0,0,-12,0,1,5,5
1522606792709878,-43,-20,-13,-12,-1,32,4,-20
1522606792723915,34,7,7,30,18,7,6,14
1522606792723915,-16,-6,2,2,12,6,12,-2
1522606792724918,23,3,-1,1,-5,-27,-15,11
1522606792724918,18,-4,-1,-14,-20,-6,0,24
1522606792747979,-29,-16,-7,-10,-42,7,2,-16
1522606792747979,55,5,-1,-20,31,-26,-22,-3
1522606792747979,-21,8,-2,-9,8,11,8,-13
1522606792747979,-117,-24,-2,50,19,33,0,-12
1522606792761013,91,8,2,0,6,-11,11,21
1522606792761013,-31,-8,-5,8,-22,9,-3,-11
1522606792769035,14,-1,-1,-16,-3,-14,3,-11
1522606792769035,-2,-5,-3,-20,-8,-16,-17,0
1522606792784075,-8,-6,-6,8,1,-5,-11,1
1522606792784075,-14,-2,-1,-4,3,-3,-1,-11
1522606792785078,41,4,8,2,-3,10,4,11
1522606792785078,-9,2,-3,2,-8,-15,-5,-14
1522606792808139,-2,-7,-2,-5,9,-7,-3,-11
1522606792808139,-11,9,-2,-5,-8,18,5,3
1522606792808139,14,-11,1,12,0,30,5,5
1522606792808139,-1,13,2,2,-2,-17,3,-6
1522606792821173,-10,-1,-4,-14,8,2,-4,-2
1522606792821173,20,-8,-2,2,0,2,-1,4
1522606792829195,-21,-16,-1,7,-11,1,-6,-1
1522606792829195,-26,9,2,-8,-2,-9,-1,-14
1522606792844235,-1,-7,-6,-6,5,2,10,2
1522606792844235,7,-2,-3,4,-14,-5,1,8
1522606792845238,32,6,3,6,8,39,-11,8
1522606792845238,-66,1,2,-2,10,-41,11,-16
1522606792867296,-11,-8,0,5,6,-10,-3,-2
1522606792867296,16,-12,-6,0,-3,16,7,1
1522606792868299,-2,5,3,0,1,-8,5,-2
1522606792868299,-11,2,-1,-3,-2,20,-7,8
1522606792881334,-21,11,5,4,3,-1,-13,-15
1522606792881334,-14,-11,-3,5,5,-8,-2,-8
1522606792889355,7,1,-3,-6,-3,-8,-4,-4
1522606792889355,53,-3,-3,0,-12,-6,-7,3
1522606792904395,-1,-1,0,6,12,-9,8,9
1522606792904395,-46,-11,-3,-3,-8,6,-2,-18
1522606792905398,0,4,1,3,3,-20,-1,-5
1522606792905398,29,-8,-5,-2,-15,10,-5,-10
1522606792927456,55,26,-1,-7,-2,0,13,6
1522606792927456,-83,-60,-8,-5,-1,37,-6,3
1522606792928459,9,-3,-5,-1,-6,-7,2,-9
1522606792928459,5,2,0,-1,7,15,3,4
1522606792950518,6,18,2,-6,-5,-26,-12,8
1522606792950518,31,21,2,3,-2,-3,11,2
1522606792950518,-72,-7,-3,-1,-1,-21,-9,-16
1522606792950518,29,-5,-1,-1,2,6,0,1
1522606792964555,-61,-6,-1,-5,-5,13,0,-11
1522606792964555,37,18,0,-3,-1,-10,-5,12
1522606792965558,17,-6,1,0,-3,-6,-4,-2
1522606792965558,3,14,4,2,0,12,0,7
1522606792987616,12,-24,-7,-7,-7,-13,-6,-9
1522606792987616,-28,-5,-2,-1,12,-9,-4,-5
1522606792988619,24,12,0,2,-2,-18,16,5
1522606792988619,-8,-5,-1,-6,12,14,-2,-15
1522606793009675,7,-2,1,2,-37,-16,-9,-5
1522606793009675,-1,6,-1,0,3,29,4,2
1522606793010678,1,6,-1,0,-1,-7,2,17
1522606793010678,27,-6,-1,-3,0,-13,-9,-5
1522606793024715,-11,-12,-3,-5,3,19,5,1
1522606793024715,79,24,6,1,-2,-16,6,9
1522606793024715,-75,-22,-8,-1,-4,2,-12,-38
1522606793024715,-45,-3,-1,-5,-4,-4,-1,-2
1522606793047776,19,-1,4,0,-17,-5,-4,-4
1522606793047776,4,-7,3,5,38,-2,0,7
1522606793048779,29,15,4,5,17,2,4,12
1522606793048779,42,5,-3,3,-5,-4,1,19
1522606793069835,-74,3,2,-1,-25,4,-1,11
1522606793069835,11,4,-8,-2,32,-5,-2,7
1522606793070838,23,-16,-3,-5,-12,2,-6,-5
1522606793070838,11,8,8,5,8,2,5,-1
1522606793084875,-6,4,-9,-1,6,6,-2,3
1522606793084875,-19,20,10,-2,-34,-9,5,-8
1522606793084875,-13,-9,-11,2,0,-25,-26,5
1522606793084875,15,3,8,2,5,3,11,38
1522606793107936,45,-18,0,-2,8,5,-2,2
1522606793107936,-43,-13,-15,-2,-15,-16,-15,-22
1522606793108939,67,32,11,1,6,15,0,-18
1522606793108939,-48,-9,-1,-3,-13,-7,6,-11
1522606793129995,-13,4,-3,0,13,11,7,3
1522606793129995,31,8,7,3,-1,6,-8,48
1522606793130998,-11,-3,-3,-4,-8,9,5,19
1522606793130998,-3,4,-7,-2,-4,-12,-11,-1
1522606793144032,47,-14,-3,-9,9,-6,12,15
1522606793144032,-23,-3,7,4,-6,16,-1,-19
1522606793145035,4,-7,3,1,-5,2,9,41
1522606793145035,3,2,-7,0,-2,3,-16,-14
1522606793168096,-12,15,3,-1,14,53,3,-19
1522606793168096,14,-32,-6,-6,-17,-46,-3,35
1522606793168096,-18,-3,-4,1,-28,-10,9,-4
1522606793168096,39,13,2,0,44,-4,0,-18
1522606793190155,-5,-7,1,1,-25,12,0,-16
1522606793190155,-39,7,2,-3,23,5,-17,-27
1522606793191158,18,-16,-8,-3,3,27,32,-8
1522606793191158,36,2,1,6,11,-11,4,10
1522606793204192,-21,5,-3,0,1,-19,-17,1
1522606793204192,-12,2,-2,-4,-72,-30,-4,-8
1522606793205195,-7,10,-2,4,68,0,-11,-7
1522606793205195,10,7,8,2,-7,13,7,10
1522606793227253,-23,-8,-3,-1,-16,-3,4,2
1522606793227253,-31,-21,-10,2,29,-19,8,-12
1522606793228257,26,8,7,-2,-15,-21,-15,-4
1522606793228257,-54,-13,-7,-1,-13,47,26,-6
1522606793250315,14,9,3,1,18,-15,-13,1
1522606793250315,26,6,-1,-7,-19,-21,9,-15
1522606793251318,-21,16,6,1,-11,-22,-12,10
1522606793251318,20,-18,-5,2,11,-4,-22,1
1522606793264352,-2,-4,-1,0,1,7,8,-5
1522606793264352,26,7,3,3,-11,44,32,-1
1522606793265355,-23,-22,-3,-1,46,8,-7,-6
1522606793265355,18,9,-4,-5,-34,-35,-38,0
1522606793287413,-22,-15,-4,4,9,-3,21,-9
1522606793287413,18,-4,5,1,16,38,-7,7
1522606793288417,-13,-4,1,-1,-31,-77,-6,-5
1522606793288417,51,5,2,-5,0,-6,4,5
1522606793310475,-26,-1,-5,-8,-33,-4,-29,-9
1522606793310475,-36,-6,1,33,76,8,42,-6
1522606793310475,9,-1,-1,1,-8,41,-2,-3
1522606793310475,-34,-16,-6,1,10,13,13,-13
1522606793324512,51,9,7,-5,-4,-21,-2,6
1522606793324512,1,14,-2,-8,-59,5,-12,3
1522606793325515,7,2,2,4,-15,-2,-1,-10
1522606793325515,-16,-16,-7,-5,24,-7,1,2
1522606793347573,38,2,-7,-3,-14,11,-4,-10
1522606793347573,-4,0,2,-4,30,-19,-6,2
1522606793348576,-63,-5,-5,-8,-21,-47,-22,-17
1522606793348576,-8,0,2,3,-11,-15,11,-2
1522606793370635,-14,-20,1,4,16,8,-1,0
1522606793370635,48,4,-2,-2,-8,9,2,10
1522606793370635,-22,-9,-2,-3,-2,37,6,8
1522606793370635,-14,6,-2,-5,-3,0,-6,-7
1522606793384672,-14,4,0,7,24,19,23,-3
1522606793384672,11,7,4,-2,-15,-9,-5,-1
1522606793385675,24,12,-2,-1,25,-9,-1,-2
1522606793385675,-42,-23,-3,1,-16,7,0,-9
1522606793407733,22,9,-2,-2,13,-24,-24,1
1522606793407733,-2,-2,-6,-11,-11,-11,-19,5
1522606793408736,8,0,-1,2,-13,24,25,17
1522606793408736,3,3,6,0,1,-1,-5,2
1522606793429792,5,9,4,-2,1,-14,1,-5
1522606793429792,-29,-3,1,-1,-4,24,-4,-5
1522606793430795,19,-7,-4,-2,-11,-26,-6,-10
1522606793430795,8,3,-2,-7,-7,-61,-20,3
1522606793443829,62,-6,-2,2,7,9,-17,7
1522606793443829,-90,-24,-3,-1,21,-1,0,-16
1522606793451851,-13,-8,-6,1,14,35,-8,-20
1522606793451851,-3,0,-3,-3,-19,20,22,-5
1522606793467893,18,10,2,-4,-18,-14,-1,0
1522606793467893,-3,-13,-5,-3,4,-14,-7,-1
1522606793468896,19,13,5,1,-13,0,14,6
1522606793468896,-6,-3,-1,-2,2,17,11,-4
1522606793489952,31,12,-1,3,16,-5,-22,11
1522606793489952,-40,6,-3,-4,-10,-1,5,-21
1522606793490955,22,9,4,2,5,8,2,11
1522606793490955,-13,-11,0,4,-14,19,-7,3
1522606793503989,-14,-4,2,0,32,-20,14,-2
1522606793503989,26,-2,1,-4,-21,-13,-21,-4
1522606793504992,-15,4,-1,1,-36,10,9,3
1522606793504992,25,9,-1,3,65,53,-3,6
1522606793528053,-39,-17,-3,-1,-22,-24,-9,0
1522606793528053,6,-2,-4,-4,4,-4,-3,-6
1522606793528053,22,-8,-4,-5,-4,12,7,-2
1522606793528053,22,15,8,3,-18,-25,1,9
1522606793550112,-53,-10,-5,-3,1,18,-15,-6
1522606793550112,-11,7,2,-4,-54,4,41,-15
1522606793551115,2,-4,0,4,64,22,-8,-2
1522606793551115,11,0,-5,-3,-7,-7,5,-6
1522606793564149,0,-3,0,0,4,12,0,-9
1522606793564149,29,12,2,-2,-14,15,1,4
1522606793572171,11,17,-2,-1,-13,-27,-23,12
1522606793572171,-4,-7,-5,-6,-16,-19,-7,-10
1522606793587211,-41,-14,-1,1,-2,0,23,4
1522606793587211,38,4,-2,-1,10,15,-3,-4
1522606793588213,-43,-10,-2,-5,-4,37,10,-11
1522606793588213,-17,0,-3,2,5,-23,-8,-11
1522606793610272,-10,7,-8,-7,-14,-7,3,9
1522606793610272,12,26,9,0,12,-6,7,24
1522606793611275,-8,-7,1,-1,2,1,1,6
1522606793611275,-5,-12,-5,0,-16,-2,8,-7
1522606793623307,16,5,1,0,2,13,4,-1
1522606793623307,29,2,-5,1,7,-10,-14,0
1522606793631328,-38,-8,1,2,-18,-14,-1,12
1522606793631328,1,14,1,0,10,8,-5,4
1522606793647371,-2,-13,4,2,-1,-21,13,10
1522606793647371,-12,0,0,4,14,-3,-14,4
1522606793648374,-29,1,-1,-4,-12,-10,-7,-24
1522606793648374,29,2,3,1,-8,-10,21,23
1522606793670432,77,2,-7,-4,5,44,-6,4
1522606793670432,-68,-12,-3,-2,-1,-19,-2,-19
1522606793670432,32,1,-3,-1,0,-2,0,-1
1522606793670432,-35,-13,0,-4,-6,6,0,-12
1522606793683467,7,9,4,1,4,-5,-4,-2
1522606793683467,-4,-24,-9,-1,1,2,2,24
1522606793691488,9,16,-5,-2,-3,-9,-4,6
1522606793691488,16,-8,4,1,0,11,-1,-2
1522606793706528,-15,15,6,5,-2,1,6,2
1522606793706528,-8,-16,-4,0,7,6,-9,-38
1522606793707531,20,-11,-7,-1,5,-3,7,9
1522606793707531,-17,7,4,1,-4,-10,-3,28
1522606793730592,-30,-9,-5,-4,-12,8,-2,-16
1522606793730592,30,20,1,-11,-6,-25,-5,24
1522606793730592,31,7,5,4,5,17,-1,-2
1522606793730592,-32,-8,-5,0,-6,-17,-3,0
1522606793743627,34,0,0,-2,2,-1,10,-3
1522606793743627,45,24,-2,-6,-2,23,-33,-1
1522606793751648,-92,-30,0,-2,-7,-16,-5,-43
1522606793751648,11,-16,-7,-7,-3,6,1,7
1522606793766688,-8,6,-3,-5,-3,-13,-4,-15
1522606793766688,41,25,5,7,5,17,-3,3
1522606793767691,-18,-11,2,-3,-1,-12,9,0
1522606793767691,-6,3,-11,-2,-3,1,-14,-24
1522606793789750,-2,-15,-4,-3,-1,6,10,18
1522606793789750,16,-12,8,4,-1,-1,0,-4
1522606793790752,30,4,-3,-4,0,7,-8,8
1522606793790752,-12,0,0,0,2,34,18,-12
1522606793803787,16,16,0,4,8,-2,0,3
1522606793803787,-42,-27,-4,5,0,-8,-4,-4
1522606793811808,32,8,4,3,0,-8,-12,3
1522606793811808,20,5,1,-1,4,6,0,8
1522606793826848,4,9,0,-1,-19,35,-1,0
1522606793826848,-26,-22,-7,-5,9,-36,-3,6
1522606793827851,0,-7,-9,-9,0,-1,12,0
1522606793827851,77,21,3,3,0,2,-3,5
1522606793849909,-78,-39,2,-1,2,1,-10,-21
1522606793849909,-59,-12,-7,-4,-9,13,2,-15
1522606793850912,14,3,-2,-2,-7,-28,-18,-4
1522606793850912,-33,-1,2,1,-14,-17,-2,7
1522606793863947,53,12,0,-2,14,25,8,3
1522606793863947,-14,7,3,2,4,-1,16,-6
1522606793871968,27,-1,2,1,-45,14,1,7
1522606793871968,-14,-11,-4,-4,23,-4,-11,-7
1522606793887008,-1,-3,-3,-1,18,-12,-3,-1
1522606793887008,9,5,2,2,-4,2,6,4
1522606793888011,5,13,0,-3,-45,8,5,8
1522606793888011,-15,-1,5,2,61,-47,-43,-9
1522606793910069,-20,-5,-4,-3,-20,31,8,2
1522606793910069,37,-1,-2,-3,-6,-18,16,11
1522606793911072,-35,-3,2,3,39,-4,-16,-2
1522606793911072,33,-4,-3,-7,-13,-16,-16,-14
1522606793933131,-52,11,1,5,10,21,7,-10
1522606793933131,29,-12,3,3,27,5,-9,7
1522606793934134,-5,-12,-5,-5,11,13,16,-10
1522606793934134,-9,6,-4,-2,-34,-31,1,7
1522606793947168,26,-2,1,-7,-41,-50,-6,3
1522606793947168,-1,5,1,6,22,21,-24,-10
1522606793948171,18,13,5,-3,-58,-14,-7,4
1522606793948171,11,3,2,2,82,29,11,3
1522606793970229,-13,0,-3,-3,-52,-18,-9,-4
1522606793970229,-41,-17,-5,-6,-24,-64,-11,-20
1522606793971232,54,10,4,4,39,15,5,14
1522606793971232,-30,-12,-1,0,-70,-11,-4,-18
1522606793992288,30,-11,-6,-6,30,-23,-8,-9
1522606793992288,-60,-7,-1,1,10,47,8,-11
1522606793993291,-25,-10,-9,-1,21,4,14,-12
1522606793993291,7,10,5,1,-37,6,12,6
1522606794007328,45,2,1,4,23,-3,-2,11
1522606794007328,12,-13,1,-3,4,-7,-3,-1
1522606794007328,-11,8,4,-1,-21,-9,-9,7
1522606794007328,28,2,-3,0,20,21,25,7
1522606794030389,-43,-8,1,0,-17,-6,-18,2
1522606794030389,-57,-2,-9,-6,-52,-70,20,-26
1522606794031392,21,1,-2,3,29,-3,-14,10
1522606794031392,-33,-1,-1,0,43,20,-17,3
1522606794052448,7,3,-3,-2,14,6,5,-2
1522606794052448,61,16,0,-2,-20,20,0,20
1522606794053451,-64,-16,-5,-7,-2,-21,-14,-17
1522606794053451,21,3,6,0,-42,-4,12,14
1522606794066486,31,5,4,4,13,1,4,0
1522606794066486,27,-4,-5,0,14,19,-2,6
1522606794067488,-37,9,1,-2,10,-2,10,-5
1522606794067488,30,20,3,1,-32,26,-12,12
1522606794090550,-56,-36,-9,0,38,-43,-3,-32
1522606794090550,13,12,0,-5,-21,12,4,14
1522606794090550,11,-5,0,6,41,20,1,-11
1522606794090550,3,-2,-2,-3,-44,-8,-1,-7
1522606794112608,-9,8,2,-4,-12,-6,2,8
1522606794112608,2,-2,-1,2,33,20,-12,-4
1522606794113611,39,1,0,-1,-33,-12,3,5
1522606794113611,-45,-9,-2,0,21,-5,-4,-9
1522606794126645,11,11,1,0,-6,1,-1,-19
1522606794126645,20,-19,1,-1,-7,3,1,9
1522606794127648,-29,-8,-6,-3,-4,2,-4,-3
1522606794127648,-15,-4,-2,2,10,7,5,-14
1522606794149707,-23,-2,-1,-3,-14,-20,-13,1
1522606794149707,40,3,-5,-2,-8,-2,-1,5
1522606794150710,57,21,5,1,3,-9,5,-5
1522606794150710,-70,-13,0,0,32,8,-2,-10
1522606794172768,45,17,3,1,-23,-5,6,19
1522606794172768,-43,-9,0,-1,35,21,-2,1
1522606794173771,-44,-20,-9,-2,-41,2,32,-34
1522606794173771,44,3,-5,-1,7,-6,2,9
1522606794186806,0,-4,-1,0,22,12,0,6
1522606794186806,17,4,3,1,-2,6,12,5
1522606794187808,5,15,3,-1,-18,-6,-1,12
1522606794187808,2,-15,-5,-2,44,4,-2,0
1522606794209867,-23,-7,-7,-3,-23,19,2,-2
1522606794209867,-6,11,3,-1,-32,-14,-9,-7
1522606794210869,22,-3,-1,-1,45,2,-9,3
1522606794210869,-12,-1,2,0,-27,-1,3,-17
1522606794232928,-33,-10,-6,-3,-26,1,-6,6
1522606794232928,6,29,2,0,52,5,8,3
1522606794233931,32,-18,1,-3,-75,-25,-26,19
1522606794233931,17,4,1,1,29,16,11,-8
1522606794246965,-48,-14,-2,3,57,7,-6,-30
1522606794246965,8,8,0,-1,-60,-2,1,4
1522606794247968,8,7,4,5,83,16,7,6
1522606794247968,28,9,4,-3,-63,-15,3,9
1522606794270027,34,4,-5,-7,72,-12,-3,-2
1522606794270027,-14,-8,1,0,-26,2,-6,-15
1522606794271029,39,6,4,1,20,2,-5,12
1522606794271029,-80,-15,-8,-5,28,6,-1,-7
1522606794293088,0,9,4,1,-41,5,5,9
1522606794293088,-24,-13,-9,-2,-69,-35,-7,5
1522606794293088,23,2,1,2,56,29,3,-9
1522606794293088,23,13,7,2,-41,-30,-3,16
1522606794307125,-17,-17,-10,-4,-10,-13,-4,-8
1522606794307125,2,-13,3,1,22,9,1,3
1522606794308128,-20,6,8,5,-31,-4,4,3
1522606794308128,29,0,-6,-1,3,1,2,0
1522606794330187,-53,-20,-5,-6,-6,3,-10,-4
1522606794330187,22,2,0,0,22,-2,-1,-2
1522606794331189,23,15,3,0,-11,-2,-3,1
1522606794331189,-17,2,11,7,3,5,1,-6
1522606794352245,15,12,1,-1,-56,-7,-2,19
1522606794352245,31,7,-2,-1,94,6,1,4
1522606794353248,-64,-32,-14,-1,-7,-18,-13,-19
1522606794353248,59,28,5,-2,-22,-2,5,16
1522606794367285,6,-12,5,7,10,3,9,5
1522606794367285,-72,-23,-12,-10,-40,-11,2,-8
1522606794367285,13,5,-1,-1,6,-2,-5,9
1522606794367285,11,6,-1,-11,43,24,-1,23
1522606794390347,22,8,3,1,-22,-38,4,0
1522606794390347,-9,1,-3,-3,-12,25,1,-5
1522606794391349,-8,6,5,1,26,-18,-8,7
1522606794391349,-36,-22,-12,-4,-38,9,-6,-12
1522606794412405,27,13,0,-6,49,30,2,-10
1522606794412405,71,13,8,8,23,-10,0,22
1522606794413408,-84,-8,-11,-8,-28,-21,-1,-42
1522606794413408,-28,-11,-2,1,3,-12,0,13
1522606794427445,46,12,-1,-5,-9,-1,1,15
1522606794427445,-28,-4,-2,-1,-6,3,-6,-2
1522606794427445,48,9,5,3,-40,29,10,25
1522606794427445,0,-5,-3,-3,18,-20,-1,-10
1522606794450507,23,2,5,1,-13,40,11,10
1522606794450507,-11,25,4,-1,9,-14,5,10
1522606794450507,-20,-36,-4,-3,-1,21,-6,-16
1522606794450507,-16,-2,-2,2,-16,-4,7,-7
1522606794473568,35,8,-1,-5,-100,19,15,7
1522606794473568,22,6,4,6,111,28,-45,-6
1522606794473568,-47,-25,-8,-6,-31,-5,12,10
1522606794473568,-87,-15,-6,-1,1,-66,-26,-46
1522606794486603,41,0,8,4,28,20,18,30
1522606794486603,-5,-1,0,-5,-60,47,0,-38
1522606794495627,12,4,-3,-1,-16,-78,-30,-35
1522606794495627,0,1,-2,0,-9,4,6,-8
1522606794509664,11,7,-3,0,-1,-21,-8,11
1522606794509664,-4,19,3,-1,-7,-12,14,14
1522606794511670,72,-4,0,0,7,24,4,12
1522606794511670,-39,9,5,-1,-91,-19,7,9
1522606794532725,-32,-8,-6,-3,96,28,-9,-36
1522606794532725,24,-10,-1,3,-4,-24,7,10
1522606794534731,4,14,1,1,15,24,18,-4
1522606794534731,39,4,1,0,-37,33,2,9
1522606794546763,-9,-11,-3,0,15,-71,-27,3
1522606794546763,-39,-12,-1,-5,-83,-17,4,-16
1522606794555787,3,17,2,1,75,30,19,28
1522606794555787,120,27,6,2,19,60,10,26
1522606794569824,-121,-38,-9,1,16,-14,-27,-74
1522606794569824,56,-15,-6,-1,-37,-12,13,0
1522606794575840,24,3,-3,-5,-26,-19,-6,9
1522606794575840,40,-4,-5,0,44,14,8,9
1522606794592885,22,12,1,1,-40,-15,-7,20
1522606794592885,-58,-5,4,0,-38,-20,-3,-1
1522606794593888,-4,1,3,3,25,22,2,-9
1522606794593888,-10,-9,-4,-3,-22,-17,-7,9
1522606794605920,14,12,1,-1,46,13,7,1
1522606794605920,-17,-9,-5,-3,-34,4,1,-6
1522606794614944,-1,-1,-6,-3,26,-2,-8,1
1522606794614944,60,10,4,-2,19,-5,-8,2
1522606794628981,-54,1,3,-5,-76,17,9,43
1522606794628981,59,-4,-7,-3,94,-26,-59,-69
1522606794638005,-22,6,-2,-2,-19,4,13,5
1522606794638005,-24,-38,-13,-5,29,-14,-8,-15
1522606794653045,31,13,0,0,-83,10,22,18
1522606794653045,4,14,9,2,80,23,-9,29
1522606794654048,-2,15,4,0,43,13,-9,-11
1522606794654048,-6,1,3,4,-6,-10,1,-12
1522606794666080,-84,-22,-10,-7,-6,-16,-16,1
1522606794666080,-8,2,-5,-3,-30,-4,17,9
1522606794675104,8,-7,-2,-1,-25,-18,-10,-17
1522606794675104,49,13,-4,-6,-50,0,17,15
1522606794689141,-68,-6,1,9,54,74,7,-28
1522606794689141,3,-5,8,3,4,-66,-8,-12
1522606794698165,10,-8,-3,-2,-12,38,-11,12
1522606794698165,19,16,1,-1,-22,-10,-2,5
1522606794712202,68,13,5,2,0,-5,11,11
1522606794712202,-11,-29,-14,-10,-15,31,-3,9
1522606794714208,-19,-1,4,2,-54,-31,18,34
1522606794714208,-44,-10,-1,5,40,-3,-4,-14
1522606794726240,17,8,-6,-1,49,-12,-10,-7
1522606794726240,5,-3,-6,-3,8,17,15,12
1522606794735264,9,5,15,1,-28,-18,-9,5
1522606794735264,-20,-14,-4,-1,18,12,-16,-22
1522606794749301,66,11,6,0,-21,-16,10,15
1522606794749301,-80,-12,-2,-1,-11,-16,-13,-24
1522606794758325,-27,-21,-19,-1,69,16,-5,-23
1522606794758325,-17,17,6,1,20,0,5,11
1522606794772363,56,-13,-6,-4,6,-2,-8,-7
1522606794772363,88,12,6,2,-37,26,18,18
1522606794774368,-6,-10,-3,-4,-13,2,-8,-38
1522606794774368,-10,2,2,-2,-3,-6,-2,-5
1522606794786400,-26,4,3,-3,-27,-25,-4,1
1522606794786400,40,11,-1,1,-75,12,16,24
1522606794795424,-19,-6,1,2,56,13,9,15
1522606794795424,26,2,0,-2,-15,-11,-2,3
1522606794808459,-8,3,-2,1,6,-6,-11,-7
1522606794808459,2,10,2,-2,-1,9,12,15
1522606794817483,0,10,-1,-1,-19,2,1,-13
1522606794817483,-78,-19,-6,1,-3,-17,-5,-8
1522606794832522,88,17,3,-3,-2,-8,5,18
1522606794832522,-7,-11,0,3,33,7,-1,10
1522606794834528,-88,-26,-10,-8,-38,-43,-12,-27
1522606794834528,28,12,-7,-3,13,15,-2,23
1522606794855584,-39,-40,0,2,8,-2,-8,-13
1522606794855584,0,17,3,1,15,-2,21,-16
1522606794856587,30,5,-6,-4,-12,-1,-28,22
1522606794856587,24,17,9,3,-8,4,6,-9
1522606794868618,52,18,-5,0,-1,-9,-5,13
1522606794868618,-104,-41,-4,0,19,12,0,-46
1522606794877643,-13,10,-4,-5,-49,-2,-6,7
1522606794877643,11,16,4,7,45,13,-3,2
1522606794892682,-27,-33,-9,-3,-14,-30,10,20
1522606794892682,-10,2,-7,0,21,-12,-6,-17
1522606794894688,39,9,8,1,-31,-12,11,25
1522606794894688,-33,-9,-4,-6,-15,22,-2,-43
1522606794914741,-5,3,1,3,32,24,0,-13
1522606794914741,2,5,-3,0,-14,0,-4,13
1522606794916747,19,5,-1,-2,18,-6,6,9
1522606794916747,11,-5,3,2,-23,-13,-1,16
1522606794928779,10,12,12,5,7,4,1,-4
1522606794928779,-89,9,0,-2,1,2,-12,-36
1522606794937803,4,-19,4,8,2,4,-1,-3
1522606794937803,-28,-20,-11,-7,11,-6,-6,-13
1522606794952843,4,6,-4,-4,-20,3,4,-7
1522606794952843,96,35,10,5,11,-6,2,25
1522606794953846,-57,-10,-5,1,3,5,-1,-13
1522606794953846,-33,-28,-7,4,-6,-7,0,-2
1522606794974901,10,1,4,-2,2,2,0,8
1522606794974901,17,5,1,-2,-3,27,5,-1
1522606794976907,10,1,-1,-3,7,-30,5,39
1522606794976907,14,1,-3,-1,-6,0,-5,-48
1522606794988939,-42,-21,-8,-3,-5,1,-5,-12
1522606794988939,63,18,9,1,4,13,7,30
1522606794997963,-1,0,-6,-1,-9,-19,-17,-32
1522606794997963,-17,-10,-5,-5,-14,-1,3,-12
1522606795013003,-32,-2,-2,-2,37,-5,-26,-21
1522606795013003,15,-4,-7,-12,-33,-21,-6,11
1522606795014006,24,-5,4,5,28,14,2,-9
1522606795014006,-5,8,3,0,-9,-3,3,-5
1522606795035061,6,13,5,7,14,-6,-11,-5
1522606795035061,1,-10,0,-3,-7,-1,17,-4
1522606795037067,13,7,-4,-6,-4,4,4,12
1522606795037067,-16,-3,0,0,5,3,1,3
1522606795049098,8,6,-2,-7,-29,28,11,2
1522606795049098,24,-1,-4,0,13,-14,-13,14
1522606795058123,24,0,0,-2,-5,7,9,6
1522606795058123,24,4,3,5,14,2,9,21
1522606795073163,11,8,2,-2,-35,50,7,5
1522606795073163,-86,-12,0,0,11,-81,-14,-19
1522606795074166,6,-10,-5,-2,-20,-2,-3,-12
1522606795074166,9,-5,-4,-4,35,14,-3,10
1522606795095221,17,6,0,1,-6,-26,-5,1
1522606795095221,25,11,3,2,-3,21,6,11
1522606795097227,-41,-7,2,0,-5,9,9,7
1522606795097227,12,-6,-4,-2,-11,-17,-12,-17
1522606795109258,24,8,2,0,-49,-17,4,8
1522606795109258,-42,-5,-6,0,41,10,1,3
1522606795118283,25,5,-7,-1,-4,-14,6,-2
1522606795118283,77,16,4,-4,-19,12,7,23
1522606795132320,-127,-30,-3,-3,42,-15,-50,-28
1522606795132320,14,0,-9,-3,-23,-5,19,4
1522606795134326,41,27,14,5,10,11,-2,-10
1522606795134326,-43,-34,-17,-4,-5,41,5,-10
1522606795155381,33,12,8,2,-5,-64,-27,2
1522606795155381,10,-9,6,-2,-5,3,-7,3
1522606795156385,-7,6,-8,-3,0,10,-3,-1
1522606795156385,93,23,5,-5,-93,-12,10,36
1522606795168416,-89,-23,-10,-3,12,3,-31,-40
1522606795168416,-13,-15,-6,11,64,29,9,0
1522606795177440,31,13,5,-1,-7,14,18,9
1522606795177440,39,15,5,2,3,-36,-10,19
1522606795192480,-9,-15,-5,-4,-23,11,22,10
1522606795192480,-24,-2,2,-6,-63,-8,-19,-5
1522606795194485,-12,-4,-2,-2,66,31,-4,0
1522606795194485,-24,5,-3,-1,21,-10,11,5
1522606795215541,1,-7,-1,6,6,16,23,-1
1522606795215541,11,3,-7,-4,-41,-50,-24,-2
1522606795216544,-32,-16,4,2,38,26,29,-6
1522606795216544,-45,-9,2,-1,-18,2,-16,-8
1522606795228576,33,16,-1,-3,43,-6,13,6
1522606795228576,118,1,-1,-2,-18,8,11,18
1522606795237600,-81,-14,-7,-1,-16,-31,2,-29
1522606795237600,-5,-7,4,2,29,20,-42,-18
1522606795252640,-9,10,1,-1,-26,3,30,2
1522606795252640,14,-17,-12,-2,18,23,-10,-9
1522606795254645,39,9,2,0,-22,-41,-15,3
1522606795254645,-48,-13,4,-3,-36,4,11,-4
1522606795274698,34,13,2,2,39,12,3,10
1522606795274698,-28,5,-1,-2,-1,8,7,-1
1522606795276704,39,-7,-5,0,1,20,-9,0
1522606795276704,-84,-16,-6,2,13,-53,-21,-17
1522606795288736,77,15,13,0,-32,12,3,22
1522606795288736,-87,-6,-4,-3,21,17,22,-28
1522606795297760,39,18,6,2,-18,11,-8,40
1522606795297760,12,-14,-10,-8,10,-53,6,-33
1522606795312800,-68,0,-5,0,-1,-9,10,3
1522606795312800,-1,-10,-1,1,-56,-5,-14,-6
1522606795313803,42,15,5,2,33,13,-2,19
1522606795313803,-39,-6,-1,3,81,22,-13,-11
1522606795334858,24,5,0,-1,-13,39,21,16
1522606795334858,40,0,-3,-1,-23,-45,-22,11
1522606795336864,-107,-8,-2,-2,8,-17,-11,-29
1522606795336864,51,10,1,1,-2,10,8,8
1522606795348896,-6,-15,-8,-3,-2,-8,3,-14
1522606795348896,1,10,4,2,24,22,2,6
1522606795357920,36,3,-2,-1,-48,-14,0,1
1522606795357920,-15,10,6,5,28,5,9,7
1522606795372960,-10,-17,-5,1,5,7,-7,-18
1522606795372960,11,3,1,0,-1,10,1,3
1522606795373963,-33,-9,-5,-3,-13,-26,-20,-10
1522606795373963,21,17,2,0,-21,18,4,17
1522606795395018,-7,-7,-1,0,-7,-22,4,1
1522606795395018,10,-2,-2,-1,27,30,-2,9
1522606795397024,-76,-28,-6,0,-9,-19,9,-22
1522606795397024,-9,-4,-3,-5,-3,12,-12,1
1522606795409056,36,17,5,4,3,-21,15,10
1522606795409056,42,6,2,1,2,7,1,3
1522606795418080,-49,-15,-11,-8,-4,12,-6,-18
1522606795418080,38,10,7,1,-15,-6,1,19
1522606795433120,-32,-6,-2,0,-8,6,0,-14
1522606795433120,18,3,0,-4,14,-16,-35,-8
1522606795434123,67,30,8,4,-4,0,0,16
1522606795434123,-112,-47,-12,-3,-4,-7,-2,-23
1522606795455178,26,2,-3,-3,-3,1,-2,6
1522606795455178,3,15,5,1,6,5,15,16
1522606795457184,6,-2,0,2,-2,6,3,2
1522606795457184,2,-2,2,3,3,6,2,-5
1522606795469216,-9,-8,-6,-6,-4,0,-13,0
1522606795469216,-15,-2,-3,-5,-2,-11,7,-4
1522606795478240,38,10,2,1,-1,2,0,0
1522606795478240,-26,-1,0,2,-7,5,9,2
1522606795491274,18,-6,-5,-3,-2,-5,-15,-25
1522606795491274,-34,0,4,0,5,-2,10,36
1522606795500299,21,3,-1,4,-1,5,-1,-22
1522606795500299,20,0,-1,-3,-2,-1,-3,17
1522606795515338,20,14,3,3,1,1,0,7
1522606795515338,-38,-8,-6,1,2,-2,-2,-14
1522606795516342,8,-15,0,1,-3,13,6,8
1522606795516342,32,4,-2,-1,0,-11,2,1
1522606795528373,-44,-9,0,-4,2,-4,-16,-12
1522606795528373,45,12,2,3,-5,2,8,-9
1522606795537397,-49,-12,-4,-5,-1,33,-5,-5
1522606795537397,26,-5,0,0,0,-15,8,5
1522606795552437,8,9,3,1,1,9,4,18
1522606795552437,31,4,1,2,3,-12,-2,13
1522606795554443,67,14,1,-1,-2,-5,-1,4
1522606795554443,-80,-25,-12,-5,-5,0,-11,-20
1522606795582517,1,1,-8,-5,-1,4,-1,21
1522606795582517,-71,-16,1,-1,0,-4,7,-39
1522606795584523,21,-14,5,1,-1,-10,7,22
1522606795584523,76,25,3,1,-2,15,-15,28
1522606795588533,-45,-29,-11,-6,-5,-10,-10,-31
1522606795588533,-5,1,-4,2,2,5,4,4
1522606795597557,2,1,3,0,0,-10,-6,-6
1522606795597557,0,-1,-2,-1,-1,4,12,-6
1522606795612597,28,12,4,4,0,2,7,12
1522606795612597,2,-3,-2,-3,4,4,-6,-8
1522606795614603,-32,-6,-6,0,-6,-9,-3,0
1522606795614603,25,8,5,2,15,32,6,5
1522606795635658,30,3,1,1,-14,-34,-28,1
1522606795635658,-60,-12,1,1,12,1,24,-13
1522606795636662,12,1,-5,-1,2,5,1,8
1522606795636662,-4,7,-3,-4,-8,-7,4,-13
1522606795648693,6,2,4,-1,-7,45,-8,3
1522606795648693,0,1,2,-7,-11,-53,10,1
1522606795657718,-18,-10,-5,1,-37,-11,-36,-2
1522606795657718,31,-8,-5,-3,47,-10,-2,-2
1522606795671754,-18,6,5,2,7,41,24,-4
1522606795671754,-19,-4,0,-2,-65,-45,-9,-11
1522606795678773,23,12,0,1,91,21,-32,4
1522606795678773,16,6,0,1,-22,-16,12,5
1522606795694816,7,-11,-3,-3,8,26,-15,16
1522606795694816,2,-8,-5,-1,-19,-5,-11,-7
1522606795696821,-4,2,4,0,-21,-28,11,0
1522606795696821,-32,1,2,1,0,25,-6,-12
1522606795708853,24,-6,-6,-2,-23,-41,15,1
1522606795708853,-33,-3,-3,1,17,23,-32,-7
1522606795717877,-16,-4,2,-3,-6,14,11,-3
1522606795717877,38,13,5,4,2,-7,0,13
1522606795731914,-1,-2,1,-1,-12,-24,-2,-11
1522606795731914,27,-2,-4,-3,16,10,18,9
1522606795738933,49,9,-5,-2,-3,-7,4,12
1522606795738933,-31,8,-5,-4,-27,-16,-7,-14
1522606795754976,-74,-27,-6,0,52,26,-8,-13
1522606795754976,5,8,6,3,-2,-6,-7,5
1522606795756982,7,1,1,-3,3,17,28,3
1522606795756982,45,12,5,2,-19,7,12,11
1522606795769013,15,10,-5,-2,-4,1,12,4
1522606795769013,-5,-5,-5,-5,-13,3,-33,-6
1522606795778037,-71,-14,-9,-8,9,-51,3,-32
1522606795778037,-39,-16,-2,0,32,6,-13,-6
1522606795792074,31,12,5,0,6,-27,-6,3
1522606795792074,47,9,5,8,19,28,17,18
1522606795799093,51,1,-1,-6,-51,1,5,5
1522606795799093,-53,-5,-5,-6,-81,-50,-42,-10
1522606795815136,26,-8,-2,3,111,-55,-13,-5
1522606795815136,-36,14,8,9,-9,47,25,6
1522606795817141,-53,-9,-4,-4,-14,4,9,2
1522606795817141,45,1,-1,-2,0,20,12,10
1522606795838197,11,6,-3,-1,-49,43,-7,-6
1522606795838197,20,-6,-1,-2,-1,-41,3,1
1522606795839200,-45,-6,3,2,20,6,0,-12
1522606795839200,-6,-5,1,0,4,3,-4,3
1522606795852234,-7,3,1,-2,-31,6,15,11
1522606795852234,-5,-11,-10,-5,37,22,5,-23
1522606795859253,-4,9,2,4,-13,13,-10,3
1522606795859253,-13,-7,-3,-3,6,-13,8,-5
1522606795875296,63,14,5,4,-8,31,4,27
1522606795875296,-35,-6,-3,-1,-5,-16,22,9
1522606795877301,7,-3,0,1,-3,-38,-22,-9
1522606795877301,24,9,4,1,12,17,17,18
1522606795897355,-51,1,-4,-2,-7,-10,1,-21
1522606795897355,-4,-6,-1,-2,-4,5,-16,-3
1522606795899360,48,11,1,3,3,24,11,20
1522606795899360,29,4,1,-1,13,-4,12,3
1522606795912394,0,0,2,0,-44,-6,-8,6
1522606795912394,-45,-12,-5,-7,45,5,2,-17
1522606795918410,19,-4,0,4,21,2,3,2
1522606795918410,-38,-3,0,2,-10,-7,20,-21
1522606795935456,6,2,2,-2,0,-9,-2,10
1522606795935456,-7,0,0,0,-35,14,-5,-7
1522606795936459,30,1,-5,-1,-7,-12,-6,13
1522606795936459,-53,-5,-2,-1,19,-3,-8,3
1522606795957515,9,9,9,2,-18,-7,6,-11
1522606795957515,12,-6,-4,0,5,-1,-13,9
1522606795959520,24,-2,-4,-4,-6,8,6,-2
1522606795959520,-14,1,0,-2,-5,40,1,-1
1522606795971551,-43,-10,-10,-2,4,-47,-2,-17
1522606795971551,33,-2,5,4,2,12,-16,-2
1522606795978570,-12,-9,-3,-3,-3,-34,-12,-13
1522606795978570,27,9,-1,-1,-8,4,-2,9
1522606795995615,-5,-7,-1,-2,4,31,10,4
1522606795995615,28,6,-1,2,5,-22,-12,0
1522606795996619,-17,-1,0,2,-8,11,15,5
1522606795996619,3,-6,-1,-1,1,-1,-30,-2
1522606796017674,25,3,1,1,5,9,7,26
1522606796017674,-27,0,-6,-1,-9,-3,-4,-19
1522606796019680,12,24,6,1,-2,3,0,11
1522606796019680,-8,-23,-7,-4,-2,-8,4,-4
1522606796031711,-30,-25,-12,0,6,-6,-18,-22
1522606796031711,39,17,7,0,-5,10,12,21
1522606796040736,-21,10,8,2,-1,-5,-2,-17
1522606796040736,-7,-3,-2,0,6,-6,-5,-12
1522606796054773,8,2,-2,-4,-8,-7,0,-34
1522606796054773,11,-4,-6,-3,-2,12,-21,2
1522606796056779,7,-6,-2,2,1,-23,6,-9
1522606796056779,-28,-10,-2,-2,-3,-46,-7,-5
1522606796077834,-18,10,-2,0,-3,1,-4,-10
1522606796077834,0,-10,-3,-8,-3,12,9,4
1522606796078837,-2,-1,0,0,6,13,3,10
1522606796078837,10,-6,1,0,1,9,2,4
1522606796090869,3,3,-2,-2,-5,-7,11,14
1522606796090869,8,-17,-9,-6,-2,-4,-6,-2
1522606796099893,-35,-6,2,0,0,13,0,12
1522606796099893,-15,10,11,2,0,2,3,-15
1522606796114933,10,-2,-2,0,2,-5,-3,7
1522606796114933,-11,16,2,1,0,0,5,1
1522606796116939,-11,-23,-8,1,-1,3,-4,-4
1522606796116939,28,10,-3,-2,-2,3,2,2
1522606796137994,9,-6,4,3,3,3,-3,-9
1522606796137994,-11,2,-4,-4,-6,-4,3,4
1522606796140000,9,-6,-5,-4,-4,-6,-10,-30
1522606796140000,15,13,2,3,3,18,-2,4
1522606796151029,-81,-20,-4,-4,-3,-6,-1,4
1522606796151029,47,-2,-4,1,-1,-9,0,-1
1522606796160053,-81,7,2,-2,-1,5,-2,-10
1522606796160053,37,11,7,5,2,3,8,12
1522606796175093,-7,13,5,-5,-1,3,0,4
1522606796175093,0,-11,2,2,-1,-7,-3,-12
1522606796177099,-13,-18,-6,-7,-4,6,0,9
1522606796177099,9,0,-6,6,2,-12,-10,-10
1522606796198154,22,15,-1,-3,-1,10,12,18
1522606796198154,6,12,11,5,5,18,7,11
1522606796199157,45,5,0,-3,-4,-17,0,5
1522606796199157,-4,-1,0,-3,-3,-2,6,13
1522606796211189,-10,-9,-13,-6,-2,-5,-6,-9
1522606796211189,-16,5,0,-1,-1,-7,-5,-3
1522606796220213,46,16,10,5,5,26,-4,-8
1522606796220213,-24,-14,-4,-4,-2,52,20,30
1522606796235253,-49,-12,0,0,-6,-35,-1,-10
1522606796235253,-19,3,-6,-5,-2,4,12,-5
1522606796237259,0,0,-2,-2,-3,3,-24,-5
1522606796237259,1,-2,1,-3,0,-6,0,3
1522606796257312,52,10,2,-1,3,18,1,6
1522606796257312,-35,-19,-8,-3,-5,-18,-6,-7
1522606796259317,16,8,-2,-2,3,17,0,9
1522606796259317,-29,-15,-10,-8,-10,-33,5,-18
1522606796271349,5,-13,-1,1,1,3,7,-13
1522606796271349,-8,-1,0,2,-2,-17,-12,-2
1522606796280373,-24,-1,-3,0,2,13,15,-7
1522606796280373,-17,-7,-6,-5,-4,-5,-41,-24
1522606796295413,4,-1,-1,-1,-3,-18,-13,9
1522606796295413,41,12,4,4,8,57,10,4
1522606796296416,-22,-6,-1,0,0,-23,27,-5
1522606796296416,43,9,-1,0,-1,-6,-12,10
1522606796317472,-27,-7,2,-2,-7,-12,-6,-6
1522606796317472,8,-3,-3,0,-2,-3,-3,9
1522606796319477,-18,-1,-2,-5,-3,6,-13,-1
1522606796319477,-1,1,2,3,-1,-43,5,-11
1522606796331509,15,-2,0,1,1,24,41,-3
1522606796331509,8,4,3,1,13,12,5,6
1522606796340533,-8,-6,-3,-1,-7,-13,2,-1
1522606796340533,85,16,3,2,5,6,-20,9
1522606796355573,-55,-11,-1,0,-9,-10,-23,-8
1522606796355573,40,7,3,3,7,4,37,13
1522606796356576,-69,-12,-2,-3,0,22,16,-5
1522606796356576,5,5,-2,0,-3,11,-2,-3
1522606796377632,91,15,3,1,6,-5,-17,9
1522606796377632,-37,8,3,-1,-6,40,-15,1
1522606796379637,-26,-21,-4,-2,-2,-15,-18,-9
1522606796379637,6,7,3,-1,2,9,20,9
1522606796391669,26,12,4,5,6,-5,-12,5
1522606796391669,30,10,3,2,2,-23,-3,4
1522606796400693,19,3,7,1,-8,-12,-4,-1
1522606796400693,-66,-9,-4,-2,-3,17,-2,-23
1522606796414730,-4,-9,-5,-1,1,10,14,-10
1522606796414730,17,0,-4,2,-3,-13,-13,0
1522606796416736,28,7,-7,-1,3,-7,4,11
1522606796416736,1,-9,0,-1,2,14,-4,-2
1522606796437792,-43,-5,-3,-1,-2,-36,-13,-10
1522606796437792,46,12,8,4,-2,-21,3,21
1522606796438794,-38,-11,-8,-7,-8,9,12,-22
1522606796438794,-7,-10,0,3,12,29,15,2
1522606796450826,87,12,0,-3,-2,7,22,17
1522606796450826,-113,-27,-8,-3,-6,-19,-20,-28
1522606796459850,68,15,1,1,-1,-9,13,16
1522606796459850,-8,-5,-2,-5,-13,7,-5,-3
1522606796474890,17,1,-1,2,22,45,17,-3
1522606796474890,-27,-12,1,-7,-16,-65,-47,-15
1522606796476896,16,4,0,0,-1,6,2,2
1522606796476896,-30,-2,-4,0,0,-45,-21,-16
1522606796497952,10,-1,-2,-2,-5,-18,-23,1
1522606796497952,-20,-17,-8,-4,0,16,8,-7
1522606796498954,38,11,4,2,7,-3,-12,7
1522606796498954,-39,-3,2,1,-1,-17,1,2
1522606796510986,-4,-2,-4,-4,-8,9,-2,5
1522606796510986,14,0,-5,1,1,5,9,-3
1522606796520010,-25,-10,-4,1,-1,-6,-11,-7
1522606796520010,44,16,5,5,6,9,18,13
1522606796534048,-14,-5,2,-1,-4,1,4,-4
1522606796534048,-71,-1,-1,-4,-4,-7,-1,5
1522606796541066,32,3,-2,-2,-3,-27,-11,-1
1522606796541066,-9,-7,-7,-4,-1,-7,-8,-1
1522606796558112,-14,-3,-3,0,-1,1,-3,-10
1522606796558112,63,16,6,3,2,6,13,20
1522606796559114,11,24,1,1,-1,11,-2,-2
1522606796559114,-80,-43,-7,-2,-1,-9,2,-10
1522606796571146,7,6,3,-2,-5,2,-9,-3
1522606796571146,15,3,-3,1,3,30,14,10
1522606796580170,12,6,2,-1,0,-15,0,2
1522606796580170,30,17,4,1,4,39,9,12
1522606796595210,-2,-6,-2,-2,-9,-57,0,-8
1522606796595210,-61,-5,-5,-2,-2,2,-10,-7
1522606796597216,-3,-8,-7,-7,-2,4,-5,5
1522606796597216,16,3,4,2,1,18,5,-2
1522606796617269,-22,-13,0,-2,0,-15,-3,8
1522606796617269,-1,5,-2,-1,1,-3,-3,-4
1522606796619274,37,4,5,3,3,5,11,7
1522606796619274,-15,-6,-4,-6,-6,-11,-10,-12
1522606796631306,54,13,-1,0,1,11,-5,-9
1522606796631306,-51,-11,-4,-3,-2,-8,-8,-19
1522606796640331,-36,-24,0,-1,1,12,1,4
1522606796640331,32,11,-1,1,0,-5,2,3
1522606796654368,-33,-13,-4,-3,-2,12,-2,-3
1522606796654368,13,7,0,1,1,-20,5,-2
1522606796661386,36,-7,-8,-4,-2,40,4,12
1522606796661386,1,15,-6,-1,-3,-17,4,-15
1522606796677429,-108,-37,-6,-1,0,0,-7,-11
1522606796677429,50,7,9,2,0,5,2,10
1522606796679434,-24,12,1,-4,1,5,6,13
1522606796679434,19,-9,-6,-3,-1,-2,2,4
1522606796691466,-1,15,1,4,2,11,1,-1
1522606796691466,23,-9,-3,-5,-3,11,7,-3
1522606796700491,-35,0,4,4,1,-16,-10,-11
1522606796700491,-12,2,-1,-5,-4,-7,-1,2
1522606796714528,-26,8,-2,-3,0,1,1,1
1522606796714528,37,-7,-9,-2,-1,-4,-4,-9
1522606796721546,10,-1,-1,-3,-6,-20,-10,1
1522606796721546,4,-10,2,3,-1,-2,5,-7
1522606796737589,-8,4,-2,-1,1,18,-3,-11
1522606796737589,41,8,3,0,0,1,8,14
1522606796739594,-11,6,-4,0,1,-2,-2,-1
1522606796739594,-16,-4,3,1,-1,0,12,-10
1522606796760650,-5,1,-4,-5,-2,-3,-1,4
1522606796760650,-12,-7,-2,-1,-2,-3,-5,-3
1522606796761653,41,-6,0,7,4,-2,8,5
1522606796761653,13,1,4,2,0,-2,-4,0
1522606796774688,-9,12,9,3,-1,3,3,3
1522606796774688,-9,1,-5,-6,-5,-3,-1,-2
1522606796781706,-24,-7,-3,-3,-4,0,-7,-6
1522606796781706,19,-1,-1,-3,-4,-8,-8,7
1522606796797749,79,9,4,3,2,2,4,16
1522606796797749,-41,-10,-2,-1,-2,-3,-3,-16
1522606796799754,-2,1,0,1,4,14,4,2
1522606796799754,65,-2,-12,-9,-9,-26,-13,-9
1522606796819807,-55,-8,-7,-3,1,5,6,6
1522606796819807,37,-4,3,-2,-2,2,6,2
1522606796821813,-68,-6,2,0,1,10,-2,-12
1522606796821813,38,6,4,3,6,22,-22,14
1522606796834848,-43,-6,-3,-2,-6,-58,17,-14
1522606796834848,5,-2,-5,-1,-3,-1,-23,-3
1522606796840864,7,3,-2,-1,1,25,13,-11
1522606796840864,-6,-6,2,0,-1,-16,9,2
1522606796857909,12,3,2,0,1,16,-12,0
1522606796857909,2,7,2,2,2,-3,12,10
1522606796858912,-20,-5,-6,-2,1,-7,-22,-11
1522606796858912,-20,8,-2,0,0,-2,34,10
1522606796879967,23,-14,-5,-12,1,24,21,3
1522606796879967,-47,1,2,17,2,-6,2,-9
1522606796881973,53,1,2,-2,2,1,-29,-13
1522606796881973,-78,-13,22,0,-2,-3,-14,-8
1522606796894005,-4,-1,-17,3,-2,-3,9,1
1522606796894005,7,-4,4,-3,-3,1,-1,-2
1522606796901023,-7,14,10,13,-1,-19,-4,2
1522606796901023,55,-4,-14,-8,-1,8,15,7
1522606796918069,-16,-3,-3,-5,-2,1,-11,-9
1522606796918069,15,0,3,8,-3,-5,-21,5
1522606796919072,7,9,13,-2,2,13,-9,1
1522606796919072,-17,-8,-16,-18,-6,-33,20,-2
1522606796940128,38,16,-9,9,-1,4,-18,9
1522606796940128,-2,7,6,-9,0,-10,-1,-5
1522606796942133,-15,-13,-4,16,5,-4,7,-9
1522606796942133,12,5,12,-1,10,36,-7,2
1522606796954165,-11,1,-3,-3,-6,-4,0,-1
1522606796954165,18,-5,-15,-13,-29,-13,-15,-11
1522606796961183,-56,-7,-4,-13,35,10,5,4
1522606796961183,-26,-4,-8,0,-11,-64,-21,-13
1522606796977226,13,9,7,0,-6,26,11,8
1522606796977226,10,-9,5,0,2,-36,-9,0
1522606796979232,94,9,-5,-2,-16,5,-11,17
1522606796979232,-55,5,1,8,-1,3,-7,4
1522606797000287,-66,-13,2,-2,11,5,7,-4
1522606797000287,-24,-7,-7,-11,-6,-26,-2,-6
1522606797002293,27,-4,-6,-15,-8,8,13,-2
1522606797002293,67,25,4,12,7,9,-3,22
1522606797013322,6,-6,10,8,-8,-9,-14,-10
1522606797013322,-31,0,-5,-3,6,51,22,2
1522606797022346,-11,-8,-8,-5,-18,-74,-13,5
1522606797022346,-10,-1,0,-2,6,-8,-12,-9
1522606797037386,14,-3,-4,-7,-4,7,-13,-6
1522606797037386,26,3,-1,3,8,13,6,5
1522606797039392,-49,-1,3,-3,-6,-7,-1,-4
1522606797039392,-19,-8,-5,-7,-6,25,5,5
1522606797060448,19,2,3,14,5,0,-2,-5
1522606797060448,9,1,-2,-8,4,3,6,6
1522606797061450,15,0,-2,1,-3,14,13,5
1522606797061450,-53,-8,1,1,-1,6,14,-12
1522606797073482,8,0,-3,-1,0,-1,-4,-4
1522606797073482,40,8,6,4,4,-1,5,8
1522606797082506,-35,-10,-4,-4,-4,6,4,-15
1522606797082506,-2,-8,-3,1,0,4,-13,-7
1522606797097546,65,7,5,-5,-1,-6,-2,12
1522606797097546,-59,-2,-1,1,-1,15,4,-6
1522606797099552,-6,-5,-3,1,-2,-10,4,8
1522606797099552,59,5,-1,-1,-2,6,-1,1
1522606797120607,-36,-7,0,-2,-2,-7,1,-1
1522606797120607,31,8,0,-2,2,1,2,11
1522606797126624,-38,0,-5,-2,-4,0,1,1
1522606797126624,27,-7,-5,-2,-3,-5,-5,-1
1522606797133642,8,5,3,0,2,2,1,3
1522606797133642,-3,-6,-4,-2,1,-3,-1,-5
1522606797142667,6,-6,0,1,0,4,0,6
1522606797142667,-36,0,-5,-6,-4,4,-14,-16
1522606797157706,47,7,4,-3,1,15,-1,21
1522606797157706,-113,-5,-5,1,-2,1,19,-21
1522606797159712,37,2,0,0,-2,-2,-2,1
1522606797159712,-6,7,3,3,0,-1,4,9
1522606797179765,8,2,3,-1,2,11,-6,6
1522606797179765,22,-10,-5,-4,-1,-1,-7,-3
1522606797181770,6,-7,-3,-2,-1,-3,2,-5
1522606797181770,-54,-6,2,3,3,24,7,-10
1522606797193802,18,6,-4,-4,-6,-23,-2,13
1522606797193802,69,12,1,2,0,14,-1,4
1522606797202826,-3,-18,-4,-1,-4,-17,2,-7
1522606797202826,-31,3,3,2,0,-4,0,7
1522606797217866,-42,-7,-2,-2,0,-2,-3,-14
1522606797217866,7,3,-2,-1,1,-4,0,5
1522606797218869,25,3,-3,0,0,14,-2,-2
1522606797218869,27,-5,2,1,-1,-7,-3,11
1522606797238922,-52,-2,-4,-7,-2,-7,-2,-21
1522606797238922,-17,-7,-1,1,1,3,-2,-1
1522606797247946,30,10,2,1,1,0,4,2
1522606797247946,8,0,-3,-3,-5,-5,2,9
1522606797253962,24,3,2,0,0,-5,-1,-4
1522606797253962,-1,-2,-1,2,4,2,-5,-6
1522606797262986,-54,-11,-7,-1,-2,-4,0,-8
1522606797262986,8,-9,1,-2,-4,-6,-8,-7
1522606797278026,-5,-3,-3,-3,1,3,2,7
1522606797278026,-34,-13,-9,-3,-3,-6,-6,-8
1522606797279029,39,24,9,6,2,1,7,10
1522606797279029,8,2,5,2,1,3,4,7
1522606797300085,-1,-10,-9,-5,-5,-4,-5,-12
1522606797300085,20,18,2,0,0,-3,-4,1
1522606797302090,6,-10,-1,-4,0,0,4,16
1522606797302090,59,15,0,2,3,4,8,10
1522606797314122,-20,-25,-10,-4,-4,11,-2,-17
1522606797314122,-54,6,5,-1,-6,-26,-13,5
1522606797323146,6,13,3,-1,2,23,5,-11
1522606797323146,16,11,0,1,-1,-20,-7,1
1522606797337183,49,5,6,6,3,-3,4,13
1522606797337183,-50,-11,-5,-4,-3,-5,4,2
1522606797339189,26,-12,-5,-4,-4,23,13,3
1522606797339189,-56,-3,-2,1,4,5,-4,-16
1522606797360245,20,26,5,1,2,-5,2,17
1522606797360245,-62,-28,-2,-4,-7,-4,-5,-27
1522606797362250,50,21,10,0,-5,0,-7,13
1522606797362250,-20,-6,-4,-3,-3,-35,-6,-2
1522606797374282,27,14,-1,1,1,-5,1,0
1522606797374282,8,-3,1,2,6,12,5,9
1522606797383306,-3,-2,2,-1,3,1,-4,-6
1522606797383306,-1,-4,-5,-4,-3,8,-2,-5
1522606797397344,44,4,1,-1,0,-7,-6,-4
1522606797397344,31,9,0,2,0,14,3,2
1522606797399349,-48,-13,-7,-1,0,-7,-16,-11
1522606797399349,17,2,-2,-1,-1,6,24,1
1522606797420405,4,-7,1,1,-2,-22,2,5
1522606797420405,-53,-15,0,2,2,9,-4,-4
1522606797421408,-39,-11,-11,-7,-8,9,-39,-16
1522606797421408,53,3,3,1,2,12,-1,10
1522606797433439,-53,-11,-7,-4,-6,-9,-3,-11
1522606797433439,-5,4,1,-3,3,8,14,5
1522606797442463,3,8,-1,6,1,-20,0,3
1522606797442463,12,-4,-1,-44,6,19,1,-3
1522606797457504,-12,-6,1,37,-28,-56,-47,-5
1522606797457504,70,8,0,-4,-3,6,39,3
1522606797459509,15,0,-2,0,7,4,15,-1
1522606797459509,-34,-8,-3,1,-1,-16,-24,-3
1522606797480565,-13,-5,-3,-10,3,16,11,-9
1522606797480565,65,11,3,-3,3,9,-1,1
1522606797481568,-49,-12,-4,-21,-19,-21,-8,-9
1522606797481568,91,11,1,7,35,19,20,17
1522606797493599,-125,-12,2,20,2,1,-24,-23
1522606797493599,86,10,3,6,-8,-21,-21,11
1522606797502623,-31,4,3,2,1,6,29,-1
1522606797502623,3,-3,-3,-1,-6,11,-16,-4
1522606797517664,-35,-13,-5,-14,-1,-32,7,-1
1522606797517664,15,8,1,2,7,-2,-4,6
1522606797519669,30,1,-2,-5,-2,-9,-11,-4
1522606797519669,-85,-19,-6,-5,-15,-8,5,-10
1522606797539722,2,3,5,10,7,28,5,15
1522606797539722,-14,-3,-3,-7,-4,7,-6,-11
1522606797541728,11,-2,-1,1,4,-13,-2,4
1522606797541728,27,-1,-6,7,-10,-4,-4,-5
1522606797553759,-35,-7,1,-12,-4,21,13,-2
1522606797553759,-5,-8,-3,-2,0,-15,-9,3
1522606797562784,-16,4,2,7,3,15,-10,-11
1522606797562784,63,3,0,6,-10,-55,-7,7
1522606797577824,-32,14,1,-12,2,7,3,9
1522606797577824,-29,-8,-10,-3,-6,-6,-7,-14
1522606797579829,4,-5,-1,5,2,-2,7,14
1522606797579829,-35,4,12,4,0,21,-9,-8
1522606797599882,15,-2,-5,-6,8,4,20,-1
1522606797599882,18,10,2,4,-2,-3,-21,5
1522606797601888,6,6,-2,-2,0,34,1,-3
1522606797601888,-7,-15,-3,2,-11,-82,-34,-5
1522606797613920,-21,-7,-2,-1,6,2,14,-17
1522606797613920,-23,-5,-3,-20,-2,7,6,2
1522606797622944,18,2,-3,9,1,-8,-2,4
1522606797622944,75,25,9,2,-7,52,22,13
1522606797636981,-63,-12,-3,-4,-8,-45,-26,-3
1522606797636981,3,-17,-6,16,16,-2,0,-6
1522606797644000,35,11,4,-1,-10,2,-1,4
1522606797644000,-61,-5,-3,7,4,21,21,-2
1522606797660042,78,8,-4,-5,0,30,7,-1
1522606797660042,-2,4,2,-6,-6,16,5,6
1522606797662048,-10,-2,-1,-3,0,-33,-3,2
1522606797662048,-56,-18,-8,-1,-5,20,-11,-20
1522606797683103,48,9,-2,-11,-4,8,15,12
1522606797683103,-18,-4,0,1,3,3,-13,-5
1522606797684106,6,2,4,2,2,-1,7,-4
1522606797684106,18,4,-3,-1,0,1,10,6
1522606797697141,11,-9,2,0,3,16,-5,0
1522606797697141,-8,-5,-3,1,-5,-9,2,-1
1522606797704160,56,7,2,3,3,5,2,10
1522606797704160,-53,-7,-5,-4,-4,7,-3,-16
1522606797720202,38,1,1,1,2,1,1,9
1522606797720202,-1,11,4,2,-3,-6,-6,-14
1522606797722208,-18,-11,-6,-6,-2,-6,-2,-9
1522606797722208,10,3,2,0,2,-6,0,2
1522606797742260,22,1,1,-1,1,3,-5,8
1522606797742260,7,9,0,-2,-5,-3,-7,-31
1522606797744266,4,-3,-3,-3,-1,9,5,5
1522606797744266,-59,-12,-4,-2,0,-12,2,-9
1522606797757301,22,2,-2,-1,2,13,-7,6
1522606797757301,26,0,-3,-1,-8,-21,-1,7
1522606797764320,-7,-5,-2,5,3,-2,-6,-15
1522606797764320,-80,-4,3,0,-3,2,-1,0
1522606797780362,42,-3,0,-1,-2,-4,5,6
1522606797780362,-29,-3,-1,-1,2,2,0,-2
1522606797781365,9,-6,-2,-6,-1,-8,1,-2
1522606797781365,34,22,5,5,3,3,5,21
1522606797802421,-9,-20,-5,0,2,4,-2,-5
1522606797802421,10,-9,0,3,2,4,6,20
1522606797804426,1,22,5,0,2,-1,8,29
1522606797804426,16,-3,0,1,-2,4,-3,-17
1522606797816458,-8,3,3,-1,-3,0,-2,-2
1522606797816458,-23,-11,0,-1,1,-2,3,6
1522606797825482,-20,3,1,-4,-2,-1,-7,-16
1522606797825482,44,9,0,-3,1,-2,1,4
1522606797840522,15,7,-1,-2,-2,0,2,-3
1522606797840522,26,6,4,4,3,0,-1,7
1522606797841525,-53,-3,-1,-5,-3,2,-5,-8
1522606797841525,38,9,-2,-4,-1,5,5,5
1522606797862580,-17,-16,-10,1,-3,-32,-20,-16
1522606797862580,9,-1,-1,-4,-2,4,4,-1
1522606797864586,-28,-1,3,3,2,1,1,-28
1522606797864586,44,-1,-3,1,-2,-7,-3,4
1522606797876619,-38,-9,-4,-2,1,4,-3,-5
1522606797876619,23,5,-2,0,-2,-2,6,17
1522606797883637,46,-4,-4,-3,-3,-7,2,12
1522606797883637,-22,4,1,-3,0,4,4,-4
1522606797900682,-11,-5,-6,-6,-4,20,5,0
1522606797900682,-9,-1,2,1,-2,-13,-18,0
1522606797901685,-32,-11,-3,2,2,-1,1,-4
1522606797901685,27,-10,-7,-1,1,35,-12,-1
1522606797922741,24,12,7,0,-5,-34,29,6
1522606797922741,-21,4,3,5,3,1,-13,-11
1522606797924746,1,-2,-1,1,2,45,9,2
1522606797924746,-33,-14,-5,-1,0,-15,-10,-8
1522606797936778,-56,-8,-5,-2,-1,23,-24,-10
1522606797936778,9,-6,-5,-2,-3,-13,43,-1
1522606797943797,67,10,3,0,2,-8,8,18
1522606797943797,-59,-17,-2,0,-1,15,-7,-13
1522606797959839,8,5,1,1,2,3,3,-7
1522606797959839,35,5,-1,-3,-1,17,3,-1
1522606797961845,-47,-4,-1,0,-3,-10,-10,11
1522606797961845,47,7,4,-2,0,-11,5,7
1522606797982900,-24,0,-1,-2,0,3,-16,-5
1522606797982900,-17,7,6,9,3,-2,13,5
1522606797983904,29,5,1,3,4,31,-8,15
1522606797983904,-10,-6,-7,-7,-14,-83,-3,-19
1522606797995937,18,6,-1,-1,3,28,-4,3
1522606797995937,-12,-11,-6,-4,0,8,-2,-3
1522606798004959,-4,1,-3,-4,-9,-15,-12,-12
1522606798004959,-27,-3,1,2,4,17,10,11
1522606798019999,44,15,5,3,3,0,5,4
1522606798019999,41,-6,-3,-2,3,0,-2,11
1522606798022005,-59,-19,-5,-5,-11,0,-9,-41
1522606798022005,-39,5,-2,-3,-1,-7,-4,8
1522606798043061,-84,-16,-2,-2,9,-5,-5,-18
1522606798043061,9,-2,-7,-3,-19,-9,-10,-6
1522606798044064,35,0,7,-3,5,12,1,9
1522606798044064,1,2,-2,-9,-9,-22,-6,-5
1522606798056095,20,1,4,32,9,5,8,11
1522606798056095,-30,8,0,-2,2,-11,-33,-3
1522606798065119,23,-6,-4,-2,0,2,4,-8
1522606798065119,2,-4,-3,-5,-9,21,1,4
1522606798080159,56,8,2,-6,-2,-72,18,13
1522606798080159,-75,-8,-2,-1,-10,13,-19,-28
1522606798082165,34,2,-1,2,-7,-8,20,1
1522606798082165,-27,-2,1,1,6,-7,-9,1
1522606798102218,26,2,-1,-9,-13,10,-15,5
1522606798102218,44,3,-1,6,17,18,24,25
1522606798104224,-76,-14,-5,-10,4,-25,-9,-10
1522606798104224,-19,-8,-1,5,-5,40,15,-7
1522606798116257,60,10,1,2,-2,-17,-12,10
1522606798116257,-15,-3,-1,-5,1,-4,-4,-7
1522606798125279,-14,8,2,1,-1,0,6,8
1522606798125279,26,8,-2,1,5,-2,-1,-3
1522606798140320,-5,-31,-11,-8,-2,11,0,-20
1522606798140320,31,14,9,-4,0,-14,7,4
1522606798142325,20,-6,-3,-2,-2,13,-15,1
1522606798142325,17,5,1,-6,-7,-6,-1,1
1522606798162378,-21,10,0,7,3,2,7,7
1522606798162378,-15,-9,-3,-2,2,24,9,-10
1522606798164384,-9,-11,-2,8,6,-1,5,9
1522606798164384,-20,-5,-3,-5,7,-18,-35,-7
1522606798176415,-3,4,1,-10,-18,-3,17,-1
1522606798176415,79,6,1,8,11,11,-1,11
1522606798185439,-91,1,0,1,-1,10,0,-13
1522606798185439,-20,-8,-4,-2,8,-3,-7,-1
1522606798200479,71,11,3,-3,1,28,0,8
1522606798200479,-58,-4,-2,3,-6,-12,-4,-8
1522606798201482,5,9,1,-4,-6,-19,9,5
1522606798201482,30,-6,-2,5,4,28,-12,-1
1522606798222538,-55,-5,-2,-3,3,-4,14,-6
1522606798222538,-3,4,1,-7,-11,4,-4,5
1522606798224544,72,5,-1,2,-1,-22,-5,16
1522606798224544,-47,-11,-2,1,2,15,14,-19
1522606798236576,34,6,3,1,0,11,-11,3
1522606798236576,-28,-3,-3,-7,-4,-14,-5,-4
1522606798245599,19,-4,-4,-2,1,-3,-2,-2
1522606798245599,7,-3,-1,2,1,29,17,0
1522606798260639,-26,-3,-2,-5,-4,-19,-3,-7
1522606798260639,-6,-7,-4,0,0,-9,0,-5
1522606798261642,11,2,-1,-3,-2,-15,-7,0
1522606798261642,25,3,1,-2,-4,22,7,13
1522606798282698,-22,1,2,-1,-1,-18,12,-11
1522606798282698,1,-6,-2,-1,-1,14,-4,-3
1522606798284704,44,5,-1,2,-4,-13,1,14
1522606798284704,-77,-7,-1,1,0,-15,2,-15
1522606798296735,-4,-2,-1,-1,-2,16,-15,2
1522606798296735,6,8,-2,-3,0,-10,0,-1
1522606798305759,-12,-1,-2,-2,0,19,-2,-1
1522606798305759,30,-1,-3,-1,-3,-54,1,7
1522606798319797,1,-8,-3,-1,-1,22,-2,-1
1522606798319797,-5,1,-2,-3,1,5,-1,1
1522606798321802,-22,-5,0,2,3,-2,-7,-14
1522606798321802,-9,4,1,-2,-7,1,-6,10
1522606798342858,26,1,2,3,1,-17,-20,-6
1522606798342858,2,4,0,-1,-4,-11,4,12
1522606798343861,-6,-1,-5,-3,4,7,-1,-5
1522606798343861,49,12,5,4,8,-6,7,5
1522606798355893,-32,-21,-11,-4,-5,11,-1,-5
1522606798355893,-20,-5,2,4,-1,-3,-5,-9
1522606798364917,-15,-4,3,-2,-4,-12,-2,-5
1522606798364917,29,-17,-4,-4,-5,2,0,-7
1522606798379956,-2,2,-6,-5,3,5,-6,1
1522606798379956,34,3,-5,3,-2,0,1,5
1522606798381962,-66,0,6,0,-5,-4,-3,-7
1522606798381962,0,26,-1,1,2,2,0,-3
1522606798403018,6,-11,2,1,0,3,9,8
1522606798403018,8,-1,-3,-2,-4,5,6,27
1522606798404021,-54,10,4,1,-5,-16,-5,-21
1522606798404021,6,-7,1,2,0,-2,0,24
1522606798416053,0,13,1,-4,-3,-6,2,10
1522606798416053,-5,-2,-1,0,3,0,-2,-5
1522606798425077,32,-5,-3,-3,1,3,-3,21
1522606798425077,52,20,2,0,-2,10,1,-11
1522606798440117,-36,-16,-4,3,1,-5,2,1
1522606798440117,-14,-17,-3,-6,-5,-1,-8,-28
1522606798442122,43,6,-2,1,3,-3,3,8
1522606798442122,4,5,9,6,2,-11,-3,2
1522606798463178,-6,19,2,0,3,2,0,-11
1522606798463178,-4,-21,-2,1,1,-6,1,-3
1522606798464181,-11,2,-2,-3,-8,-1,-3,5
1522606798464181,13,0,-2,-3,-3,-3,0,-13
1522606798476213,39,7,3,1,-1,4,2,20
1522606798476213,-25,10,5,3,2,0,1,-1
1522606798485237,-12,-6,-4,-2,1,1,1,-4
1522606798485237,-14,-5,-1,-3,-2,10,-3,-1
1522606798500276,31,8,-5,-6,-4,-23,-2,-3
1522606798500276,-64,-1,2,-1,-3,2,-5,-19
1522606798502282,-13,-10,-5,0,2,23,1,1
1522606798502282,-22,-16,-8,-5,-9,-65,-17,-18
1522606798522335,-2,-1,4,2,-2,3,-1,1
1522606798522335,80,14,3,1,3,11,9,35
1522606798524341,18,5,2,3,3,6,19,11
1522606798524341,-24,-10,-2,-1,1,17,-17,6
1522606798536373,0,-1,2,1,0,-7,1,-5
1522606798536373,-15,-7,-5,-3,-3,-21,10,-5
1522606798545397,-6,-8,-2,0,0,6,3,-1
1522606798545397,17,-6,-4,-4,-3,-10,-3,-5
1522606798559434,25,3,-1,-4,-1,-25,-7,2
1522606798559434,33,19,5,0,-2,8,7,11
1522606798566452,-26,-29,-2,1,3,23,-4,-8
1522606798566452,-89,-5,-3,-2,-7,-52,1,-16
1522606798582495,-12,1,-3,1,1,29,4,-7
1522606798582495,-6,2,-2,-3,0,0,3,-8
1522606798584501,41,6,-3,-3,-2,-9,-3,3
1522606798584501,82,6,5,1,4,21,4,15
1522606798605557,-88,-12,-6,-5,-4,10,5,-15
1522606798605557,17,12,4,1,-1,-6,-2,10
1522606798606559,-1,3,0,2,-2,-17,-34,-9
1522606798606559,14,-4,-4,1,3,34,22,0
1522606798619594,14,4,3,4,-4,-35,-25,-1
1522606798619594,22,-2,-4,-3,0,17,-2,1
1522606798626613,3,7,-2,-3,-2,6,26,2
1522606798626613,-35,-4,-1,-4,-4,-21,-11,-6
1522606798642655,-1,3,0,0,1,8,8,6
1522606798642655,-23,-8,-5,-5,-27,7,-23,-16
1522606798644661,24,8,-1,-3,28,-26,-9,-10
1522606798644661,-19,-2,1,0,-13,18,8,8
1522606798665717,23,-10,2,0,5,14,4,-7
1522606798665717,-58,-6,-4,2,-8,22,-1,-13
1522606798666719,-3,-4,-3,-1,13,-2,20,-3
1522606798666719,30,0,-3,0,-43,-26,-71,-5
1522606798679754,8,-1,1,-4,39,36,39,3
1522606798679754,-15,-3,5,-15,8,32,15,-6
1522606798686773,3,2,-3,13,-10,-3,11,-1
1522606798686773,9,2,-5,0,9,4,14,13
1522606798702815,-26,-4,-1,4,-24,5,2,-2
1522606798702815,7,0,2,3,12,-14,-31,10
1522606798704821,-9,2,1,-11,-8,39,23,-7
1522606798704821,53,4,-2,-1,19,12,25,-2
1522606798724874,-80,-22,-14,-4,-19,-2,-18,-45
1522606798724874,21,3,3,-1,7,-18,2,7
1522606798726879,26,6,5,-4,-1,-21,-33,9
1522606798726879,-55,-7,0,2,-12,6,12,-5
1522606798739914,80,6,-1,-1,0,-18,5,18
1522606798739914,-29,-2,-5,2,4,-15,3,-9
1522606798745930,4,2,-1,5,-15,-4,-14,11
1522606798745930,-54,-19,-6,-3,3,45,15,-5
1522606798762975,28,-1,-1,0,8,-81,-13,7
1522606798762975,16,1,4,0,0,15,-2,7
1522606798763978,25,6,-3,-3,-11,-3,-9,8
1522606798763978,-74,-12,-3,-3,14,3,12,-18
1522606798785034,-5,4,1,3,1,8,-19,12
1522606798785034,44,-3,-4,2,-51,-23,10,5
1522606798787039,-15,2,0,-5,42,-1,-5,-9
1522606798787039,24,3,3,5,2,6,-11,-15
1522606798799071,-6,-5,2,-1,-12,2,25,-1
1522606798799071,-46,-4,-8,0,10,-10,-15,-11
1522606798806090,19,-6,2,1,-13,16,-1,-3
1522606798806090,49,19,4,1,6,-30,-3,22
1522606798823135,5,14,-2,1,5,29,-2,2
1522606798823135,-66,-25,-10,-4,0,0,10,-25
1522606798824138,-58,-27,-6,-5,-9,-15,-3,-11
1522606798824138,22,5,6,3,6,-11,5,4
1522606798845194,27,14,3,0,-10,-14,-30,11
1522606798845194,39,10,6,2,7,-1,4,16
1522606798847199,-29,0,-4,0,-7,-5,35,-6
1522606798847199,40,3,-2,-2,-5,25,-21,2
1522606798859231,-23,-13,-4,-2,0,0,-5,-13
1522606798859231,48,3,-1,0,9,-2,6,21
1522606798866250,-12,4,1,1,-4,-3,-20,7
1522606798866250,20,-2,-4,-3,-6,-18,11,-2
1522606798882292,-36,2,0,-2,1,13,12,-1
1522606798882292,0,-12,-4,-2,-7,-7,-14,-11
1522606798884298,26,4,-3,-5,-5,-20,-7,2
1522606798884298,-38,-8,-1,0,6,-2,-6,4
1522606798905354,11,1,2,0,2,11,17,1
1522606798905354,3,4,-6,-2,-2,-8,-4,-8
1522606798911370,31,-6,0,-1,-8,25,11,-5
1522606798911370,-47,1,-3,-2,-6,-35,-15,-6
1522606798918388,22,7,6,3,6,12,2,15
1522606798918388,-9,-11,-5,-1,0,-3,-2,-10
1522606798927413,56,28,9,1,-1,14,2,30
1522606798927413,-47,-20,-8,4,9,13,3,-19
1522606798942452,-13,0,-1,0,-7,-4,-9,3
1522606798942452,-1,9,-1,-3,1,-2,5,6
1522606798944458,-4,1,-3,1,1,-16,-13,-7
1522606798944458,36,6,3,0,-1,3,5,-9
1522606798965514,-43,-14,-5,-4,-5,-1,-4,-4
1522606798965514,31,2,7,5,8,-1,13,19
1522606798966517,-15,-8,-6,-2,-3,0,2,-13
1522606798966517,51,14,7,8,1,-2,1,7
1522606798978548,-12,-7,-7,0,2,5,-5,-10
1522606798978548,-58,-13,-5,-2,-1,-2,-2,-11
1522606798987572,-28,-1,1,1,-5,-4,-5,-8
1522606798987572,38,-5,-15,-11,-4,8,-3,3
1522606799002612,-11,-2,8,-2,-2,-14,-5,-31
1522606799002612,12,-3,3,1,2,5,0,-4
1522606799004618,-54,-1,-1,0,-1,1,0,5
1522606799004618,18,1,-2,-5,-4,1,6,13
1522606799025674,19,13,1,4,4,-2,1,21
1522606799025674,49,12,2,-1,0,-3,-3,-3
1522606799026677,-20,4,2,-1,-1,27,-2,-2
1522606799026677,-36,-18,-9,-2,1,-10,5,28
1522606799038708,94,21,8,0,-2,4,9,15
1522606799038708,-54,-1,10,4,5,-5,0,-3
1522606799047733,-33,2,0,-2,0,8,-2,4
1522606799047733,27,12,9,2,3,20,7,16
1522606799062773,-26,-11,-10,-7,-7,-18,-4,14
1522606799062773,44,13,-4,-1,1,3,-3,10
1522606799064778,88,1,-8,-5,-6,-10,-16,-20
1522606799064778,-50,-7,2,-2,0,-2,9,-4
1522606799084831,-67,-35,-14,-3,-4,-2,-37,-35
1522606799084831,-15,25,4,3,3,7,4,-10
1522606799086837,33,0,7,5,-1,-14,-3,9
1522606799086837,36,17,6,3,2,-4,8,5
1522606799098868,14,2,-2,-4,0,17,-5,3
1522606799098868,-5,-17,-8,-1,-2,-5,-2,-18
1522606799107893,30,-7,-5,1,1,-5,-13,-4
1522606799107893,-42,-7,3,-1,-8,-39,-15,-17
1522606799122932,15,2,-1,3,3,34,32,8
1522606799122932,-16,-12,-6,-3,-2,-7,-16,13
1522606799123935,22,8,-1,-1,1,16,8,28
1522606799123935,-2,-13,-2,-2,-3,-27,0,-11
1522606799144991,-20,2,1,-1,2,6,-6,-11
1522606799144991,13,1,-8,-5,-3,-29,-11,17
1522606799146997,-13,-4,3,2,-5,15,25,-7
1522606799146997,-16,-5,-2,-2,1,27,-1,-8
1522606799159028,18,10,2,-2,-5,-12,-12,0
1522606799159028,28,-3,-5,-3,-1,3,11,-19
1522606799168053,-87,-9,0,-1,-3,-20,-22,-20
1522606799168053,3,2,-1,-2,-4,-7,8,12
1522606799183092,19,4,0,3,2,-14,18,10
1522606799183092,-5,-10,2,1,1,20,-12,-22
1522606799184095,19,1,1,2,2,-2,0,6
1522606799184095,-22,1,-1,-3,-1,12,9,-3
1522606799205151,-36,-9,-5,-4,-1,6,-5,-8
1522606799205151,24,5,-3,0,-1,15,-4,-40
1522606799207157,0,-8,-1,-1,-6,-81,-21,-11
1522606799207157,35,12,3,2,2,5,-12,4
1522606799219188,37,-9,-9,-5,-4,-32,43,5
1522606799219188,-93,-6,3,4,3,18,-20,-38
1522606799228213,34,4,-5,-7,-3,39,18,6
1522606799228213,-27,2,-7,-2,-2,1,-6,8
1522606799243253,-40,-10,1,0,1,-17,-11,-7
1522606799243253,37,7,3,-2,-3,-20,-6,24
1522606799244256,19,5,1,0,2,6,31,6
1522606799244256,-37,-9,-4,-3,-4,13,-15,-20
1522606799265311,17,2,-5,-4,-1,40,-1,-1
1522606799265311,-7,-2,2,-2,-7,-81,-13,17
1522606799267317,-18,-10,-8,-6,-26,-9,-22,-18
1522606799267317,25,3,-2,4,33,18,26,3
1522606799279348,-11,16,15,1,-4,-24,-27,-1
1522606799279348,11,-24,-8,-2,3,32,3,-12
1522606799287370,-15,1,-3,-1,1,-15,21,-10
1522606799287370,-7,2,-1,-3,-12,-24,-15,-4
1522606799302410,15,-16,-8,-1,2,34,26,19
1522606799302410,-76,-6,0,-5,-4,33,-2,1
1522606799304415,-13,-3,-2,1,3,-11,4,-19
1522606799304415,57,8,0,2,1,-1,13,5
1522606799325471,-40,5,3,3,0,-28,-38,-13
1522606799325471,0,2,-2,-1,-4,16,19,11
1522606799326474,-13,-3,-4,-5,2,-18,-20,-9
1522606799326474,-9,-3,0,0,-5,4,-44,-17
1522606799338506,19,9,3,2,-1,10,15,-5
1522606799338506,23,12,2,0,1,-2,14,11
1522606799347530,-27,-27,-4,0,7,8,-4,6
1522606799347530,41,7,3,0,-5,3,15,9
1522606799361567,-29,-4,-1,0,-1,-3,-17,-3
1522606799361567,92,13,-1,-1,3,16,16,9
1522606799368586,-79,-3,1,3,6,8,-2,-7
1522606799368586,21,-10,-2,-3,-6,4,2,11
1522606799385631,4,1,-3,-1,2,-6,5,-2
1522606799385631,16,2,-4,-4,-6,-17,-16,-14
1522606799386634,58,11,6,3,7,15,4,31
1522606799386634,-7,-2,-4,-5,-30,-2,9,-5
1522606799398666,-31,0,1,3,35,24,21,-10
1522606799398666,24,8,0,0,-5,-51,-16,8
1522606799407690,-22,-8,-2,-3,-1,4,4,-2
1522606799407690,-30,3,-1,-1,-1,18,0,-7
1522606799422730,36,1,0,0,-9,-8,-19,-6
1522606799422730,22,1,2,-1,-1,32,39,16
1522606799424735,-12,4,0,3,8,5,-6,-13
1522606799424735,-86,-15,-4,-1,4,-2,8,-10
1522606799444789,54,10,-3,-2,-5,-2,-20,4
1522606799444789,-64,-3,5,5,4,-5,5,5
1522606799446794,44,0,-1,-5,-12,-1,-7,6
1522606799446794,20,2,1,1,6,-3,11,-12
1522606799458826,-15,-5,-3,-3,-8,15,4,-8
1522606799458826,19,-1,2,1,0,28,1,2
1522606799467850,8,5,-2,-2,-2,-8,-22,17
1522606799467850,28,1,-1,0,2,-11,-6,-16
1522606799482890,-25,-12,-2,-2,-6,-2,13,-6
1522606799482890,-61,-15,-4,-1,0,-10,-19,-13
1522606799483893,15,-3,0,3,3,26,32,16
1522606799483893,15,10,2,0,8,32,-1,28
1522606799504948,13,0,3,0,-15,-38,0,9
1522606799504948,-6,-6,-6,-1,-1,-2,12,0
1522606799506954,4,4,3,-2,-2,-19,-7,12
1522606799506954,24,3,3,1,2,3,-5,14
1522606799518985,-8,3,0,1,4,8,8,-15
1522606799518985,-16,-6,-8,-2,-3,-1,-22,-18
1522606799528010,20,-4,-5,-2,-2,-4,-4,0
1522606799528010,-25,-8,-4,-1,0,1,-5,-12
1522606799542047,14,8,-3,-6,-1,-2,-2,2
1522606799542047,30,10,6,-3,1,-7,-6,21
1522606799549066,-14,-2,3,4,1,-1,-2,-20
1522606799549066,-64,-9,-1,1,0,-8,6,2
1522606799565108,13,-3,-8,-1,-2,-5,-9,5
1522606799565108,3,2,0,1,1,0,3,-4
1522606799567114,-21,-1,-1,-5,-4,-5,-4,-10
1522606799567114,65,15,7,3,-1,-3,0,10
1522606799588170,-27,-17,-5,2,-2,-1,-9,-10
1522606799588170,3,-17,-3,0,2,6,11,44
1522606799594186,-74,8,3,0,-4,-55,-5,1
1522606799594186,44,0,-7,-4,-2,-3,-8,-4
1522606799602207,13,9,2,-3,-2,5,1,17
1522606799602207,-10,-10,-4,-3,-4,-12,-6,-17
1522606799609226,-12,-31,-9,-4,1,26,8,2
1522606799609226,22,2,-2,-3,-2,-14,-8,7
1522606799625269,-31,7,3,-5,-5,8,14,-9
1522606799625269,-27,-3,-5,-4,-3,-2,-3,-15
1522606799627274,28,11,2,1,0,-3,10,-9
1522606799627274,-23,-11,-8,-3,1,0,-16,-10
1522606799647327,87,12,9,5,2,2,4,44
1522606799647327,-89,-11,-7,-5,-5,-9,-4,-26
1522606799649333,35,14,5,2,0,9,-1,-5
1522606799649333,25,1,8,2,-1,-1,4,9
1522606799662367,-27,9,8,1,0,-7,-6,-12
1522606799662367,67,19,7,3,2,12,5,16
1522606799668383,-15,3,-5,-6,-4,-8,-4,26
1522606799668383,-20,-6,-4,2,0,7,8,2
1522606799685428,6,-23,-15,-5,-6,-13,-21,-29
1522606799685428,4,18,7,4,3,-12,12,-1
1522606799686431,55,-1,-2,-4,-3,15,-2,-4
1522606799686431,-75,-8,-1,1,1,-3,-1,-21
1522606799707487,51,-1,-4,1,4,46,13,25
1522606799707487,-37,-8,-3,0,0,-21,-3,9
1522606799709492,25,-4,-7,-3,1,18,5,-1
1522606799709492,-12,-5,5,-1,-2,-5,-2,2
1522606799722527,45,6,0,4,3,4,0,14
1522606799722527,-28,-3,0,2,-1,14,0,-3
1522606799728543,-4,6,4,2,0,-7,-7,16
1522606799728543,73,11,4,2,3,38,18,13
1522606799745588,-103,-14,-3,-2,-2,-20,-22,-23
1522606799745588,32,3,-4,0,0,26,-3,2
1522606799746591,-27,-15,-1,3,-1,-42,-2,-10
1522606799746591,-4,9,0,-4,-1,1,1,-1
1522606799767647,20,-4,1,-6,-8,-39,-26,-2
1522606799767647,1,7,3,0,3,15,15,1
1522606799769652,12,-4,-5,0,4,13,3,-11
1522606799769652,-52,-4,-8,-4,-6,24,1,-8
1522606799781684,0,-7,-1,0,-3,-47,-4,1
1522606799781684,-6,3,1,0,0,-5,-10,-2
1522606799788703,23,3,-3,0,-2,-1,-9,-7
1522606799788703,24,13,3,1,0,-15,-13,-2
1522606799804746,-68,-27,-2,-3,-3,10,23,-22
1522606799804746,41,-3,-3,-1,0,6,-26,6
1522606799806751,-15,-1,-1,0,-1,15,-13,-8
1522606799806751,-11,2,-3,-2,-6,-79,-33,-12
1522606799827807,-4,12,0,0,-2,12,29,6
1522606799827807,30,-3,0,4,3,-8,2,-13
1522606799829812,-17,-9,-2,-2,-1,14,9,1
1522606799829812,17,13,-6,-4,-4,2,-9,-6
1522606799841844,70,11,6,5,3,17,13,12
1522606799841844,-58,-6,0,-3,-5,-16,-8,-14
1522606799850869,-12,2,-2,-4,-1,48,-5,-15
1522606799850869,31,5,3,-1,-6,-74,-16,13
1522606799864906,22,-2,-5,-3,3,-6,24,5
1522606799864906,-10,2,1,-1,-14,13,14,-8
1522606799866911,-17,-2,-1,0,6,6,-6,-12
1522606799866911,32,-15,-1,1,9,-4,-9,9
1522606799887967,-58,0,-2,2,5,-16,-6,-6
1522606799887967,16,-5,-3,-4,-8,-41,-20,2
1522606799888970,30,11,4,1,-3,-3,13,26
1522606799888970,-3,-8,-4,-1,-9,5,9,-1
1522606799901002,-13,3,2,2,-19,20,11,-2
1522606799901002,-16,1,-2,3,25,39,-7,-9
1522606799910026,29,5,2,-4,-9,-29,11,7
1522606799910026,-6,1,0,3,8,37,4,-6
1522606799925066,-1,6,2,2,-4,2,3,11
1522606799925066,16,1,-2,-2,-5,-6,-32,4
1522606799927071,-14,-22,-6,-3,4,17,14,-5
1522606799927071,-4,-4,0,0,-29,-35,-55,1
1522606799948127,13,2,-1,5,30,39,39,7
1522606799948127,19,9,2,-2,-15,-61,5,12
1522606799949130,-33,-4,0,0,19,-2,-9,-15
1522606799949130,31,-2,-3,-2,-9,25,14,2
1522606799961162,-23,-3,2,-1,-19,-15,-41,-17
1522606799961162,65,3,-5,0,20,28,24,7
1522606799970186,-43,0,-3,-1,-12,-4,-3,-6
1522606799970186,-15,1,-2,-6,3,-12,8,-4
1522606799985226,13,2,2,0,-1,-8,-15,0
1522606799985226,-10,4,2,2,-7,-4,6,1
1522606799987231,24,-3,1,1,-8,-15,-13,3
1522606799987231,-29,4,-2,1,17,20,19,-1
1522606800007284,2,-4,1,-5,-2,-5,-20,-6
1522606800007284,11,1,1,-4,-4,3,5,-6
1522606800009290,-51,-13,-8,-3,-2,1,1,-26
1522606800009290,-11,3,6,0,-7,-33,-11,2
1522606800021322,14,-3,-9,-6,-7,-2,-41,-8
1522606800021322,29,-5,0,0,-3,20,11,0
1522606800030346,44,18,6,4,5,47,16,20
1522606800030346,-61,-21,-6,0,5,6,18,-17
1522606800045386,15,-1,-3,-4,-3,-7,-3,-4
1522606800045386,22,-4,-2,-1,1,-5,6,6
1522606800046388,-46,-3,-4,0,0,-5,-8,-9
1522606800046388,4,1,1,-1,2,40,4,4
1522606800067444,-3,-3,2,1,4,-13,15,6
1522606800067444,7,-2,-1,-2,-5,17,4,1
1522606800069450,-8,-3,-1,3,1,-25,1,-1
1522606800069450,27,2,-1,0,2,13,7,-2
1522606800081482,-32,1,-4,-3,-1,-7,-8,3
1522606800081482,-31,-8,-1,0,-4,0,0,-10
1522606800090506,4,8,3,-1,-5,-21,-9,3
1522606800090506,3,-7,-5,-3,0,-3,-1,-1
1522606800105546,22,9,3,3,4,14,9,11
1522606800105546,24,-2,-3,-4,-1,-7,1,6
1522606800106548,-30,0,2,-1,-3,-3,-5,-10
1522606800106548,12,-3,-3,-1,2,9,4,7
1522606800127604,-23,-5,-7,-2,-4,-2,4,-2
1522606800127604,3,10,5,6,8,5,-1,7
1522606800129610,16,-6,-3,-2,-2,-11,-4,5
1522606800129610,25,3,6,0,2,-20,11,8
1522606800141642,-60,-21,-10,-5,-6,9,-12,-9
1522606800141642,-5,1,-2,-1,0,0,-2,3
1522606800150666,48,6,2,-6,-3,-6,-3,6
1522606800150666,-14,-5,-15,-2,-4,5,-3,-5
1522606800165706,57,0,15,7,7,4,9,2
1522606800165706,-4,4,7,0,-1,0,-4,-6
1522606800166709,12,10,-4,8,-1,-41,0,22
1522606800166709,1,5,16,2,-2,8,7,3
1522606800187764,-72,-16,-21,-8,-1,-1,-7,-27
1522606800187764,-15,-11,-9,-2,-2,-13,-3,-1
1522606800189770,31,1,-1,-2,1,31,4,-7
1522606800189770,8,14,2,0,2,-7,8,-1
1522606800201802,38,8,5,0,-2,-12,-1,9
1522606800201802,-27,5,6,-1,0,10,-2,-1
1522606800210826,-25,-11,-10,-5,-3,5,1,2
1522606800210826,-3,-2,0,2,3,7,5,19
1522606800224863,-8,-7,0,4,1,6,-7,-19
1522606800224863,-31,-6,-8,-5,-8,-11,-1,1
1522606800226868,32,1,-2,5,3,0,-3,-27
1522606800226868,-3,6,13,1,-1,2,1,4
1522606800247925,37,2,4,0,1,-8,6,8
1522606800247925,9,-11,-7,-2,-2,-1,0,6
1522606800248927,-12,-8,-2,-1,-3,-7,-8,15
1522606800248927,-61,-28,-10,-12,-7,2,-6,-12
1522606800260959,45,7,-6,4,4,9,-2,-15
1522606800260959,-45,4,2,3,1,-4,1,2
1522606800269983,64,0,13,3,1,0,3,32
1522606800269983,-50,-5,-5,-3,-2,-2,-7,-31
1522606800285023,7,5,8,2,1,1,6,45
1522606800285023,-10,2,0,2,0,4,-4,-33
1522606800287028,-24,4,-1,0,0,-5,-4,-7
1522606800287028,13,-8,-9,-2,-2,-1,-5,-5
1522606800308084,-15,11,1,-1,0,4,6,14
1522606800308084,57,4,1,-2,1,0,6,21
1522606800309087,-115,-12,-3,-4,-5,0,-2,-5
1522606800309087,50,10,2,3,2,2,-1,7
1522606800321119,-41,-21,-9,-11,-7,-28,-8,-28
1522606800321119,31,2,6,7,4,23,5,-3
1522606800330143,44,11,0,-2,-1,14,9,11
1522606800330143,-33,-3,-4,2,-1,-5,-6,-5
1522606800345183,9,0,-5,1,-2,5,2,-2
1522606800345183,-18,-2,-2,-3,1,-5,1,-3
1522606800347188,12,-3,-4,0,-1,-5,-4,-10
1522606800347188,6,9,6,2,-4,12,1,8
1522606800368244,26,-3,1,2,3,3,16,0
1522606800368244,-27,-15,-5,-2,0,21,-3,-10
1522606800369247,-10,4,-1,-2,0,-6,0,3
1522606800369247,58,6,-5,-2,0,-11,7,11
1522606800381279,-53,-7,3,-4,-4,-9,-13,-6
1522606800381279,-13,-5,-4,0,-1,2,-4,-14
1522606800390303,-9,0,1,2,2,25,0,-8
1522606800390303,0,-3,-4,-2,0,6,13,0
1522606800405343,33,8,0,-3,-2,6,10,0
1522606800405343,-31,-5,2,0,-1,-22,-17,7
1522606800407348,51,7,1,-4,1,27,3,0
1522606800407348,-27,-6,0,-1,-3,-9,-1,-1
1522606800427402,3,11,1,1,0,6,-2,4
1522606800427402,8,2,3,4,0,-14,2,8
1522606800429407,24,2,-1,-2,-2,-22,-22,0
1522606800429407,-26,-10,-5,-4,-1,5,21,-13
1522606800441439,-3,2,-1,0,-1,1,-11,-8
1522606800441439,10,1,-6,-6,-7,-37,-6,3
1522606800450463,12,-4,-2,-2,0,19,29,0
1522606800450463,3,5,5,5,2,-4,-55,-9
1522606800464500,0,-2,-1,-1,2,54,1,-25
1522606800464500,-34,1,-2,-4,-9,-48,-3,-7
1522606800471519,-7,-3,-1,0,-1,8,16,1
1522606800471519,-32,-15,-6,-3,-2,-7,-3,-12
1522606800487562,24,3,1,1,4,2,-2,4
1522606800487562,39,0,-2,-2,-3,14,-1,1
1522606800489567,-37,-11,0,-6,-4,-13,0,2
1522606800489567,-27,8,-1,-1,2,5,2,2
1522606800510623,18,2,0,-2,-49,-2,-7,17
1522606800510623,-29,-7,-2,3,55,-28,-8,-19
1522606800511626,7,3,-1,2,-7,-12,-8,3
1522606800511626,35,-1,-5,-3,1,-33,-9,18
1522606800524660,-20,7,1,2,-10,-63,-1,-6
1522606800524660,0,-5,-4,-4,-15,14,-7,-1
1522606800531679,-9,-2,3,2,4,-4,-19,-17
1522606800531679,14,1,-5,-3,0,21,14,-2
1522606800547722,-5,-6,-2,2,9,-1,-35,2
1522606800547722,12,5,0,-3,-9,-15,25,5
1522606800549727,21,4,-1,0,2,-34,-34,-7
1522606800549727,-10,3,1,-3,-11,22,15,-2
1522606800569781,-22,-14,-3,0,18,-3,3,-2
1522606800569781,13,2,-1,2,-2,17,4,2
1522606800571786,-8,-5,-4,-3,4,28,-9,-13
1522606800571786,41,0,-2,-19,-41,-95,-10,3
1522606800584820,-52,-1,0,20,36,28,39,-3
1522606800584820,5,0,0,0,-8,33,16,-1
1522606800591839,8,1,-2,5,4,-10,-2,0
1522606800591839,8,-3,-3,-2,-1,15,-2,-10
1522606800607881,-11,-4,-2,-10,-8,-5,-30,5
1522606800607881,11,11,4,0,-2,3,16,9
1522606800608885,19,-2,-1,-3,-6,-5,12,-1
1522606800608885,-25,-9,-1,-1,10,19,-28,-3
1522606800629940,36,8,-2,-5,-5,5,13,2
1522606800629940,23,12,8,5,2,9,-14,7
1522606800631946,-13,-8,-8,-6,-7,-9,-4,0
1522606800631946,-7,-11,-2,8,7,14,11,-5
1522606800643978,18,12,11,2,4,-2,3,4
1522606800643978,-17,-5,-3,-3,-8,7,-13,6
1522606800653002,-2,11,2,-4,-3,-9,6,-8
1522606800653002,3,-4,-4,5,7,-2,9,4
1522606800668042,-8,-3,-5,-2,0,15,0,-4
1522606800668042,24,-4,-3,-1,-3,-23,-11,4
1522606800669045,5,-6,-2,-2,-10,-53,-5,6
1522606800669045,-12,-2,-2,8,2,14,-2,-14
1522606800690100,-1,-11,0,-3,-2,0,-6,2
1522606800690100,8,4,-1,0,-2,2,0,-4
1522606800692106,3,-7,0,4,6,11,6,12
