timestamp,emg1,emg2,emg3,emg4,emg5,emg6,emg7,emg8
1526902153367197,-8,7,-2,0,-7,-22,10,5
1526902153367197,-16,8,3,-1,14,-10,1,-7
1526902153368194,14,-9,-5,-7,-16,58,-4,-3
1526902153368194,3,-4,-3,-15,-21,-1,3,-3
1526902153369191,-1,7,3,16,19,-72,-7,6
1526902153369191,-5,3,1,-8,2,55,5,4
1526902153370189,0,-3,3,12,6,-25,-1,-1
1526902153370189,10,-11,-5,6,8,5,2,-6
1526902153375175,-24,-3,-6,-11,-3,15,-21,-5
1526902153375175,-7,1,0,-7,-27,-66,-6,7
1526902153388140,8,-6,-6,-10,27,35,0,-3
1526902153388140,2,-18,-9,2,-18,19,6,-3
1526902153396119,-9,7,4,3,8,13,8,1
1526902153396119,-12,8,1,7,23,-2,7,3
1526902153405095,3,-6,0,-9,-17,5,29,-4
1526902153405095,10,-2,-2,15,-27,12,-10,-5
1526902153419058,-1,-1,-3,-15,26,35,10,-3
1526902153419058,-4,3,3,7,-14,71,18,5
1526902153434018,8,-4,3,2,-15,-27,-8,0
1526902153434018,-3,3,-3,2,89,17,2,-2
1526902153473912,11,-10,-3,-13,-32,-19,-9,-5
1526902153473912,5,-10,-4,1,6,5,0,-9
1526902153474909,0,1,-4,-7,-11,-40,15,3
1526902153474909,-17,15,7,4,-3,-51,10,11
1526902153474909,9,-3,7,14,34,50,8,1
1526902153474909,3,-11,-8,-5,-33,-9,-3,-8
1526902153478898,0,-3,-5,-11,46,-14,-7,-7
1526902153478898,-7,4,2,8,-14,15,-4,4
1526902153484882,-4,8,5,15,3,-13,6,5
1526902153484882,5,-8,-5,-9,-8,15,-3,-2
1526902153492861,15,-8,-6,-7,-21,14,-4,-1
1526902153492861,-25,0,0,-14,-9,7,-4,3
1526902153501837,-2,0,6,4,-10,-20,-6,-2
1526902153501837,5,-6,-5,-8,50,-60,-1,-5
1526902153515799,4,-6,-2,-3,-28,36,-9,-6
1526902153515799,-4,-2,-8,-22,-1,10,6,-2
1526902153522781,-5,5,8,25,32,-29,3,7
1526902153522781,16,1,-2,2,-26,92,40,-6
1526902153546717,-17,4,0,3,0,-5,22,3
1526902153546717,5,8,5,0,64,-20,6,4
1526902153548711,1,-5,-2,-4,-10,32,4,-4
1526902153548711,0,-4,-3,8,2,-24,-19,-6
1526902153560679,-19,-3,-5,5,1,-33,-4,1
1526902153560679,15,-4,0,-5,-18,101,5,-1
1526902153567660,-5,-11,-10,-21,-24,-10,-5,-5
1526902153567660,3,3,3,-6,10,-55,-10,8
1526902153584615,3,-5,0,12,-7,12,-5,-2
1526902153584615,5,-5,0,9,-19,6,-2,-3
1526902153585613,-21,-3,-2,2,36,2,-17,-11
1526902153585613,6,-6,-4,7,-22,-29,2,9
1526902153606556,6,-3,-7,-19,-30,20,2,-7
1526902153606556,2,7,2,3,21,12,-35,0
1526902153608552,12,-2,1,11,-7,-8,0,6
1526902153608552,9,0,-1,-3,15,5,-3,-7
1526902153621516,-44,-4,-2,0,12,-48,-17,-1
1526902153621516,1,-8,-4,-4,-42,5,9,-3
1526902153627500,-1,1,-1,-12,-18,-38,2,-5
1526902153627500,-8,0,1,9,8,21,-1,1
1526902153644455,26,7,0,7,6,0,-8,-1
1526902153644455,7,-8,-5,-12,-36,4,-8,-4
1526902153646450,-21,-3,-5,-6,-37,-5,5,-3
1526902153646450,6,1,9,15,34,20,7,2
1526902153666396,5,17,12,12,9,10,1,0
1526902153666396,-9,9,1,-1,3,-24,-2,1
1526902153668391,22,-6,-7,-19,-16,26,5,0
1526902153668391,-5,1,-3,0,30,-52,3,1
1526902153680359,-10,-4,-2,-4,-48,11,-12,-1
1526902153680359,1,2,6,25,70,1,12,2
1526902153689335,-3,-5,-6,-8,0,-23,9,1
1526902153689335,2,-1,-6,-7,-21,-2,-4,-4
1526902153705292,14,-4,-8,-25,1,-25,-4,-6
1526902153705292,-14,-4,0,1,-13,-75,14,5
1526902153706290,5,0,-1,2,7,-9,-15,3
1526902153706290,4,-5,0,8,-16,34,-17,-8
1526902153726236,-7,-4,-2,4,-2,7,4,-1
1526902153726236,7,0,-1,-1,-7,-17,-4,3
1526902153728231,-3,2,-2,4,47,6,8,3
1526902153728231,11,-1,-1,-15,-26,49,-7,-2
1526902153740199,8,1,-7,-15,-7,4,-3,-2
1526902153740199,0,19,17,35,13,-21,-1,4
1526902153749175,0,-3,4,25,46,3,9,-3
1526902153749175,4,-6,-6,-10,-24,-4,-7,-3
1526902153764135,5,3,3,9,-13,10,2,5
1526902153764135,-2,-7,1,17,57,33,2,-3
1526902153766130,-1,-1,1,14,-40,10,-6,1
1526902153766130,-14,3,4,16,40,-9,5,0
1526902153787073,4,-10,1,1,6,8,2,-2
1526902153787073,15,7,-1,-19,-34,-42,-10,-5
1526902153788071,10,-3,-2,-7,-7,15,-1,-4
1526902153788071,-4,-1,-1,-4,-19,-8,4,3
1526902153800039,-9,1,-2,0,16,-49,-6,3
1526902153800039,-9,-10,-4,-12,3,46,3,-6
1526902153809015,13,-6,-6,-12,6,13,-4,-10
1526902153809015,8,9,3,-12,-53,-2,-7,-11
1526902153823975,-17,-6,-10,-23,39,-25,-4,-6
1526902153823975,-4,-4,-4,-22,-18,-21,-8,0
1526902153825970,-8,4,13,28,39,4,15,14
1526902153825970,5,-13,-15,-25,-71,27,-2,-23
1526902153846914,-1,1,6,33,50,29,2,2
1526902153846914,-5,-11,-12,-18,-22,-7,-6,-7
1526902153847911,4,-1,-4,-18,-15,5,-4,1
1526902153847911,-6,5,2,3,10,-21,6,7
1526902153859879,3,15,9,4,-6,-33,5,6
1526902153859879,1,-6,-6,4,4,35,-6,1
1526902153868855,5,-3,-1,-18,-40,55,3,-3
1526902153868855,-14,2,3,9,63,-26,0,5
1526902153883815,-2,1,3,-1,-46,-17,-2,-5
1526902153883815,4,-2,0,15,-22,-6,-20,2
1526902153885810,-1,5,10,23,0,17,-4,4
1526902153885810,-4,-2,-3,3,54,-38,12,7
1526902153906753,-11,-6,-5,1,3,45,-9,-6
1526902153906753,5,0,4,5,-10,-14,-9,3
1526902153907751,-2,-5,-8,-22,6,-7,-3,-3
1526902153907751,1,2,-1,1,-17,-7,0,1
1526902153920716,9,-7,-3,-3,-8,-64,-16,0
1526902153920716,-9,-6,-4,-5,11,19,12,-17
1526902153929692,1,-6,-9,-15,-10,-78,-24,-1
1526902153929692,7,-2,2,3,11,69,2,-25
1526902153943655,-2,-5,-2,-8,-23,15,7,15
1526902153943655,8,-7,-11,-32,-40,-10,0,-4
1526902153945650,-4,1,4,9,-11,-17,4,-1
1526902153945650,-24,-11,-7,7,25,-18,-1,9
1526902153966594,2,6,2,-4,-11,30,4,-8
1526902153966594,11,-3,1,8,27,-8,6,-3
1526902153968588,7,2,-7,-16,3,-4,5,-4
1526902153968588,5,1,2,5,-5,-16,2,4
1526902153980556,-5,-3,-8,-32,-32,2,8,-6
1526902153980556,-1,12,15,33,65,39,14,15
1526902153989533,3,-8,-8,-5,2,25,-1,-7
1526902153989533,-4,3,2,-5,-3,5,3,0
1526902154004492,4,-3,-4,-19,-45,-89,-27,1
1526902154004492,-2,5,8,26,11,29,8,4
1526902154005490,8,0,6,19,38,6,0,2
1526902154005490,-6,0,-1,-11,-43,3,-4,-4
1526902154026434,-1,-4,-3,15,28,17,3,4
1526902154026434,-4,-10,-15,-52,-42,-25,-7,-6
1526902154028428,-12,-3,2,6,-10,-3,-1,-5
1526902154028428,3,-2,2,16,26,9,-2,6
1526902154040396,5,6,4,6,28,8,6,5
1526902154040396,5,-6,-8,-17,-47,0,4,-10
1526902154049372,6,-5,-6,-6,36,-11,-6,-11
1526902154049372,-3,0,1,7,63,2,-2,0
1526902154064332,20,3,8,16,-18,32,9,5
1526902154064332,-8,-4,-3,1,6,-9,-5,5
1526902154065330,-12,-12,-12,-15,-54,-20,-4,-12
1526902154065330,-6,-1,-1,5,-6,17,17,4
1526902154086274,5,-7,-3,-6,-19,111,12,-3
1526902154086274,1,6,4,10,2,15,-11,5
1526902154088269,-3,-17,-18,-58,-56,-30,-13,-9
1526902154088269,0,3,9,20,-19,15,13,1
1526902154100236,-8,-1,-2,5,0,3,-1,-4
1526902154100236,-1,4,-1,-27,14,-20,-18,-9
1526902154109212,2,0,3,-6,-46,16,2,9
1526902154109212,-11,-8,-6,-8,9,-3,-13,-29
1526902154124172,-1,8,7,20,29,-28,2,17
1526902154124172,1,-5,-4,-13,-29,-10,13,2
1526902154126167,-2,8,3,3,7,-10,-12,5
1526902154126167,8,11,8,5,18,4,-3,13
1526902154147111,-7,-12,-13,-26,-38,-21,-3,-16
1526902154147111,-4,2,5,29,35,56,-10,-15
1526902154148109,11,3,0,-7,-5,11,16,2
1526902154148109,8,-12,-12,-26,-5,-17,-31,11
1526902154160076,-7,9,9,31,-20,45,-2,4
1526902154160076,0,-8,0,11,-12,-63,-7,-28
1526902154169052,-3,5,5,31,42,7,1,3
1526902154169052,7,-10,-12,-10,-19,23,-9,0
1526902154184012,3,6,2,-7,34,-21,6,6
1526902154184012,-8,-9,-7,-11,-1,-17,-9,2
1526902154186007,3,-1,-3,-9,1,-30,6,9
1526902154186007,-9,1,-2,-16,-34,-11,-9,-7
1526902154206951,14,0,1,0,14,8,1,-10
1526902154206951,-14,5,1,-1,8,-64,14,1
1526902154207949,9,-9,-3,6,5,16,-8,3
1526902154207949,-4,6,-2,-19,-24,-14,11,8
1526902154219916,-21,9,9,2,42,43,-21,-15
1526902154219916,7,-5,-3,-7,-11,20,18,17
1526902154228892,3,1,-1,13,-9,-7,4,-8
1526902154228892,4,-14,-9,-8,-8,-18,-11,-23
1526902154243852,-1,-2,3,17,3,-5,-17,-1
1526902154243852,8,-4,-1,-2,-11,-49,5,19
1526902154249836,9,-4,-4,-18,7,49,-13,-8
1526902154249836,19,1,2,22,-18,4,8,1
1526902154266791,-17,-11,-8,-20,-4,-22,9,6
1526902154266791,1,-3,-3,4,30,-2,-12,-1
1526902154267788,5,-7,-3,-10,-47,22,12,2
1526902154267788,-5,9,4,5,10,-8,0,-7
1526902154280754,-3,-6,-2,6,47,-33,11,-5
1526902154280754,-3,2,3,1,-18,14,-7,4
1526902154289730,-3,-3,-1,6,-2,-22,-9,-8
1526902154289730,1,-2,0,14,10,78,-1,13
1526902154303693,0,0,-1,0,4,7,6,24
1526902154303693,-5,2,1,6,1,-1,5,-19
1526902154310674,-4,-6,-1,6,23,-11,-6,-52
1526902154310674,-9,2,-1,-16,-59,-80,-18,17
1526902154326631,14,3,1,-4,-27,22,8,6
1526902154326631,0,-1,-5,-7,24,29,-4,-3
1526902154328626,-2,7,14,49,43,8,7,19
1526902154328626,-3,-4,-5,-15,50,-85,-18,-8
1526902154340594,0,-2,0,16,11,14,3,-15
1526902154340594,-5,-6,-2,-10,-39,41,-7,0
1526902154349576,-10,0,-1,-5,27,4,-2,-6
1526902154349576,11,-4,-3,-8,-18,-14,18,0
1526902154363532,2,0,-1,-9,-3,-1,-5,5
1526902154363532,-1,-5,0,7,21,-2,8,-21
1526902154370514,2,-2,-3,-11,-23,-19,1,25
1526902154370514,-3,-1,2,8,2,40,3,-1
1526902154386471,-8,-3,-3,-8,0,-12,-1,-6
1526902154386471,10,-9,-12,-30,-21,-8,-11,2
1526902154388466,-1,-2,1,-5,-24,14,-2,-6
1526902154388466,6,0,-1,-8,-57,21,12,33
1526902154409409,-15,18,13,28,85,4,14,-8
1526902154409409,-1,-7,-4,6,16,-4,-17,-16
1526902154410407,-2,-11,-8,-6,-11,23,-1,14
1526902154410407,2,-3,-7,-16,1,7,5,-17
1526902154423372,-2,-5,-4,-18,-37,-20,-19,18
1526902154423372,-7,8,14,48,32,29,27,14
1526902154430353,3,1,-6,-18,-9,-25,2,-1
1526902154430353,-19,20,24,46,70,15,5,-41
1526902154445314,15,-7,-8,-8,-37,-12,-8,19
1526902154445314,-7,8,7,6,-1,-4,-3,8
1526902154454290,3,-2,0,13,6,-24,-18,-6
1526902154454290,3,-8,-10,-25,-36,16,-3,2
1526902154469249,-3,0,-5,-18,-4,-14,-5,18
1526902154469249,2,3,7,22,12,4,-7,6
1526902154471244,5,-4,-6,-30,-50,-1,3,8
1526902154471244,-6,2,2,17,43,12,2,6
1526902154491191,-7,-3,-6,-15,-7,-60,-1,-19
1526902154491191,4,4,4,20,1,75,2,7
1526902154493186,2,-13,-4,-11,6,-8,14,2
1526902154493186,-7,8,10,30,0,5,0,6
1526902154505153,-25,-4,0,10,-44,2,26,-16
1526902154505153,-12,4,0,14,-16,-32,-6,7
1526902154514130,4,2,1,9,19,13,2,-20
1526902154514130,0,-1,-2,-4,1,-46,-2,8
1526902154529089,3,2,-1,-4,-9,-17,-3,0
1526902154529089,-1,-9,-8,-30,-16,16,-8,-4
1526902154531084,1,1,1,8,29,36,-5,0
1526902154531084,15,-18,-15,-24,-26,-13,-20,4
1526902154552028,-11,12,12,29,63,2,-1,-23
1526902154552028,9,-11,-8,-12,2,-32,5,0
1526902154553025,-6,4,1,8,5,-4,-3,3
1526902154553025,2,-8,-7,-23,-38,15,-3,1
1526902154564993,8,-8,-12,-39,-21,15,-4,-11
1526902154564993,-7,1,2,2,23,-16,15,4
1526902154573969,-8,6,1,6,-6,-2,2,-13
1526902154573969,0,2,-2,-13,-36,-17,-9,-5
1526902154588929,-5,3,5,11,52,15,-4,13
1526902154588929,0,-7,-12,-34,-28,-21,2,-4
1526902154590924,0,3,5,22,11,-7,-2,5
1526902154590924,-10,-10,-9,-13,-18,-26,-7,-21
1526902154611868,-3,1,1,-3,-11,23,11,-22
1526902154611868,13,-4,2,6,-5,-25,-4,14
1526902154612866,-8,1,1,-4,48,27,9,-12
1526902154612866,-7,3,1,10,15,-5,-1,9
1526902154624833,3,-2,-4,-6,-51,-1,-8,-12
1526902154624833,20,-16,-15,-41,-28,-13,-7,8
1526902154633809,1,0,5,7,5,-17,10,-5
1526902154633809,-7,7,5,5,6,54,21,8
1526902154648769,-2,-4,-1,10,7,-5,-5,-8
1526902154648769,5,2,-2,-11,-51,-27,-17,-8
1526902154650764,7,-3,-4,0,44,8,-8,21
1526902154650764,-4,1,7,29,19,19,-2,4
1526902154671708,9,-2,-2,-15,-14,-35,-44,7
1526902154671708,-3,5,6,27,25,108,24,11
1526902154673703,5,-10,-12,-20,-41,-35,-2,-15
1526902154673703,-1,11,7,7,25,50,12,5
1526902154685671,-2,0,6,6,13,21,-3,8
1526902154685671,-2,-4,-8,-14,-4,22,-1,-4
1526902154694647,0,-1,-6,2,-16,25,-25,-1
1526902154694647,-2,-1,-13,-15,-12,-96,-10,-2
1526902154709607,3,0,14,17,39,72,2,18
1526902154709607,10,2,17,12,-44,61,29,9
1526902154710604,-3,6,1,12,40,-97,-2,-7
1526902154710604,-11,-13,-23,-32,-40,75,16,-52
1526902154731548,-8,3,2,8,-4,-77,36,6
1526902154731548,-6,3,-3,9,53,-62,-12,-22
1526902154733543,-8,-1,12,18,-26,-6,-3,10
1526902154733543,3,-6,-8,-6,26,-17,18,-23
1526902154745510,-2,0,1,-6,-41,-6,6,12
1526902154745510,-4,-9,-9,-14,-3,70,10,-9
1526902154754487,-12,-3,-4,-5,-16,-6,4,-21
1526902154754487,0,-2,2,-5,-10,-37,-28,0
1526902154767452,15,-9,-10,-15,7,18,11,12
1526902154767452,-9,5,5,9,-2,-123,-37,-13
1526902154776428,13,-6,-1,-7,-14,75,6,11
1526902154776428,2,3,11,19,38,12,-4,20
1526902154791388,-3,-10,-12,-17,22,-4,-1,-18
1526902154791388,-5,5,2,-2,-25,-28,-4,5
1526902154793383,-3,6,0,7,41,5,-9,4
1526902154793383,-6,3,5,0,-24,-9,-5,7
1526902154805350,-1,4,2,27,19,5,-17,-16
1526902154805350,6,-12,-9,-20,16,4,-16,-20
1526902154814327,4,5,0,-9,-38,-11,5,1
1526902154814327,-1,1,-3,3,15,-7,14,20
1526902154828289,-4,0,-12,-30,-20,-10,5,-7
1526902154828289,-7,-4,3,12,-40,49,-3,-12
1526902154835270,12,3,10,11,23,4,0,0
1526902154835270,6,8,5,10,0,-8,10,32
1526902154851228,-3,-1,-3,-7,-19,5,6,-14
1526902154851228,-10,-9,-14,-24,-22,-23,7,-7
1526902154853223,-4,-2,-5,-10,27,6,-23,11
1526902154853223,-15,1,3,-5,-9,-41,-5,3
1526902154874166,-11,-6,-4,-3,-8,-9,4,-23
1526902154874166,6,4,1,7,40,-14,5,12
1526902154876161,1,-3,-7,-3,-25,-5,-6,10
1526902154876161,-5,6,1,1,-24,-77,1,-7
1526902154888129,6,0,5,13,10,60,16,27
1526902154888129,1,-4,0,4,34,73,-7,-6
1526902154895110,-3,-1,-4,-10,-23,-19,-6,-8
1526902154895110,-1,-1,1,20,55,51,0,1
1526902154912065,2,-2,-3,-13,-41,-48,-10,6
1526902154912065,6,3,1,7,-6,-27,3,8
1526902154913063,-3,-4,-2,-3,15,4,-9,-9
1526902154913063,3,-7,-2,-6,-19,59,7,11
1526902154934006,0,2,-4,-2,11,2,-15,3
1526902154934006,10,-1,-1,-1,-17,-26,-13,16
1526902154936001,-14,2,0,0,18,13,8,-13
1526902154936001,11,-1,3,2,-1,-15,1,16
1526902154948966,-17,-8,-2,-1,-3,-3,-4,-7
1526902154948966,-11,-4,-1,-1,8,-21,5,6
1526902154954950,-2,2,-4,-12,-32,74,14,1
1526902154954950,2,6,0,-1,17,-8,-1,6
1526902154971905,10,3,5,11,17,48,24,0
1526902154971905,-6,-4,1,10,4,5,1,-7
1526902154972902,5,-10,-3,-4,-4,38,1,2
1526902154972902,-5,-2,-1,1,10,8,-9,-28
1526902154993846,-10,-1,-8,-12,-58,-10,-10,-3
1526902154993846,-5,6,-2,6,21,-42,10,-3
1526902154995841,3,4,8,21,11,-36,19,10
1526902154995841,3,-2,3,4,-8,-2,-7,-2
1526902155008806,8,1,9,14,28,11,8,10
1526902155008806,7,-1,-21,-17,0,-43,5,-3
1526902155015787,-1,-7,4,-13,-19,-31,2,-3
1526902155015787,-9,-2,-4,-11,-15,40,-12,-9
1526902155031745,10,7,9,7,2,26,-2,-25
1526902155031745,-5,-6,0,0,8,7,11,-1
1526902155033740,3,-3,-17,-18,-12,-64,-14,-4
1526902155033740,-8,4,4,7,13,-37,13,4
1526902155053686,2,1,-5,4,17,-4,0,-5
1526902155053686,20,1,15,2,11,20,-17,0
1526902155055682,-4,5,1,10,-6,-15,-3,-8
1526902155055682,6,-3,-2,-9,-23,9,-3,6
1526902155068646,-14,-4,-2,5,2,-33,-8,-2
1526902155068646,5,-1,-7,1,-2,19,4,-2
1526902155075628,-7,0,1,-7,0,-25,-7,3
1526902155075628,3,-6,-3,-13,-15,28,-36,-15
1526902155091585,2,2,3,21,20,9,6,6
1526902155091585,5,-7,5,-4,-23,39,-8,9
1526902155093580,-24,-3,2,15,59,11,13,3
1526902155093580,15,-5,-13,-23,-31,-53,2,-1
1526902155114524,-16,11,10,11,11,19,10,8
1526902155114524,-4,1,1,0,-10,-26,21,-14
1526902155115521,9,-5,-6,-3,-33,6,-16,7
1526902155115521,-1,0,-1,4,31,21,5,1
1526902155127489,10,-5,-5,-20,-40,-103,-23,-13
1526902155127489,-8,0,2,3,20,-5,8,-3
1526902155136465,18,-5,-4,1,-28,2,25,18
1526902155136465,-26,3,5,0,23,27,2,-8
1526902155151425,1,-2,-4,-6,-30,-58,-15,0
1526902155151425,4,-4,-1,2,11,90,7,-4
1526902155153420,4,-4,-3,-10,-9,-24,-12,-14
1526902155153420,9,4,1,10,4,19,7,5
1526902155174364,-9,-3,-8,-35,-3,-80,-64,-10
1526902155174364,1,0,3,28,-7,47,-15,5
1526902155175361,3,4,5,13,17,6,3,-6
1526902155175361,4,1,-2,-1,0,6,21,-3
1526902155187329,14,3,3,-2,23,27,18,33
1526902155187329,-20,-9,-10,-16,-20,-52,-18,-12
1526902155196305,2,8,4,-4,-29,-19,-4,9
1526902155196305,-11,-2,-1,7,6,-7,0,-18
1526902155211265,3,0,0,13,1,27,14,16
1526902155211265,5,8,5,-8,-1,-27,9,1
1526902155213260,0,-6,-2,1,4,8,-1,-13
1526902155213260,-10,5,-3,-8,-36,-44,4,8
1526902155234203,3,-8,-7,-21,5,18,5,-1
1526902155234203,-1,-3,-4,-2,-26,-14,-13,-11
1526902155236199,-6,5,7,19,59,37,-17,0
1526902155236199,3,-3,-1,2,-7,-13,4,-2
1526902155248166,0,-2,-2,-3,-18,35,15,-1
1526902155248166,8,-4,-4,-7,-2,-48,6,4
1526902155257142,-4,-6,-8,-18,-16,-61,-21,1
1526902155257142,0,-6,1,2,12,41,1,4
1526902155272103,8,1,3,13,-2,4,4,-13
1526902155272103,-2,1,-2,-3,13,-2,-1,-1
1526902155273100,4,-10,-5,-5,-2,-1,-3,-6
1526902155273100,-5,9,8,6,9,2,-3,4
1526902155294044,0,-6,-8,-14,-19,31,-21,-4
1526902155294044,5,7,5,1,31,-46,9,3
1526902155296038,15,-3,-3,8,-1,82,5,-1
1526902155296038,-23,-1,-3,3,-12,-12,-8,-7
1526902155308006,-5,5,7,11,16,-44,5,8
1526902155308006,-4,-5,-2,2,6,-13,1,-3
1526902155316982,-6,4,1,-2,-34,-27,23,-9
1526902155316982,23,0,-4,-26,-25,1,-6,0
1526902155331942,0,0,0,7,32,-26,7,-10
1526902155331942,7,-5,-3,-5,11,9,-16,-2
1526902155332940,-5,-2,-2,-4,3,31,18,7
1526902155332940,-5,-4,-5,-3,-11,7,-1,-5
1526902155353883,-5,2,4,8,-9,-4,12,3
1526902155353883,8,-2,0,-4,-14,0,-12,1
1526902155355879,7,-1,-8,-13,7,-5,-8,-5
1526902155355879,-5,0,2,4,-19,-57,-13,2
1526902155367846,9,-6,-1,-7,44,76,13,3
1526902155367846,-16,2,1,2,-5,-15,-5,2
1526902155376822,10,6,5,8,-9,30,-8,1
1526902155376822,4,-2,-2,4,-7,-47,-5,2
1526902155391782,-1,0,2,-2,6,16,-24,-7
1526902155391782,-9,-7,-8,-4,-14,-6,4,-9
1526902155392780,14,1,1,-3,10,-10,-13,-4
1526902155392780,2,2,4,15,7,-4,3,1
1526902155413724,1,-3,-3,5,-11,14,0,2
1526902155413724,4,-3,-3,-7,1,27,-2,1
1526902155415718,-6,-5,-6,4,3,1,1,4
1526902155415718,-5,-2,-1,-11,14,31,1,1
1526902155427686,-5,1,0,6,-30,-2,-1,-5
1526902155427686,-8,0,4,7,23,13,-1,1
1526902155436662,-13,3,-2,-5,-24,-117,-3,-1
1526902155436662,8,0,3,14,30,61,-12,-9
1526902155451622,-2,1,-3,-7,0,0,-13,-2
1526902155451622,9,0,3,9,-2,19,10,6
1526902155453617,-9,-6,-3,-19,-52,-12,-3,-6
1526902155453617,-13,9,9,19,50,-28,10,7
1526902155474561,-2,3,0,-4,32,53,-14,-6
1526902155474561,23,-9,-2,1,21,12,0,-4
1526902155475558,-22,-3,-6,-4,-4,-8,-24,-8
1526902155475558,5,4,-6,-14,-7,-8,19,4
1526902155487526,-6,-3,1,-2,-24,31,3,1
1526902155487526,14,2,-1,2,-5,-3,6,5
1526902155496502,0,-3,3,7,15,23,2,-1
1526902155496502,-6,-6,-4,-14,-20,-3,-6,-3
1526902155511462,4,-2,1,8,3,-27,9,6
1526902155511462,-5,4,-2,-8,-20,-79,-12,-3
1526902155513457,4,-3,0,-2,8,110,11,-2
1526902155513457,-5,-1,-3,-9,-1,-6,-2,-3
1526902155534401,-1,-1,1,-9,-50,-80,-1,0
1526902155534401,-7,-2,2,8,36,40,11,-5
1526902155535398,3,-2,-2,-1,-1,-26,-3,0
1526902155535398,0,0,1,-12,-12,13,4,1
1526902155547366,-10,3,2,14,33,10,8,-1
1526902155547366,9,-9,-8,-7,-16,-36,-24,-6
1526902155556342,1,6,4,10,42,43,12,-2
1526902155556342,6,-3,-2,3,-16,69,5,3
1526902155571302,-2,-8,-8,-15,-6,-18,-8,-7
1526902155571302,-2,2,9,14,-11,-22,-5,5
1526902155577286,1,-3,-2,-5,-1,54,7,-3
1526902155577286,-9,1,-3,3,0,-101,-10,1
1526902155594241,-4,-3,-4,-4,4,35,3,4
1526902155594241,3,-6,-8,-5,3,4,16,-4
1526902155596235,6,-4,-5,-9,-26,-36,4,6
1526902155596235,0,4,3,2,41,-16,-14,-4
1526902155608203,5,2,3,3,2,-7,8,-1
1526902155608203,-4,-1,-3,-6,3,19,-4,-3
1526902155617180,-7,4,-1,-3,-17,-39,-1,4
1526902155617180,-1,-2,-1,5,11,22,-3,3
1526902155631142,-7,-12,-8,-1,-17,6,-6,-5
1526902155631142,5,-2,0,1,9,18,-10,-5
1526902155633137,3,0,-3,-6,-12,-103,-21,3
1526902155633137,3,-4,0,-3,-9,45,-3,-3
1526902155654080,7,3,0,0,-6,-44,0,-4
1526902155654080,-8,-1,-2,-10,-34,6,4,-4
1526902155656076,-12,-8,-6,1,13,65,15,-3
1526902155656076,-1,7,5,6,-2,-15,2,3
1526902155668043,22,1,1,13,9,3,4,8
1526902155668043,0,0,-3,-14,-20,-20,2,0
1526902155677019,-4,8,8,15,43,7,1,5
1526902155677019,3,-13,-6,-9,-45,-31,-8,-1
1526902155691979,0,-6,-3,-8,-4,21,0,1
1526902155691979,-5,-2,-3,-6,-10,2,-3,-4
1526902155692977,1,0,-1,-4,-11,-4,19,-1
1526902155692977,-10,2,2,9,24,17,-4,0
1526902155713921,0,1,-2,-4,0,-25,-4,-1
1526902155713921,-11,0,1,0,-9,-10,2,1
1526902155715916,1,0,-3,-2,-11,-37,-9,-4
1526902155715916,-3,1,-1,2,5,-8,13,-1
1526902155727883,9,-3,2,-2,10,108,1,0
1526902155727883,-2,1,-2,0,7,32,5,-2
1526902155736860,6,0,-2,-5,-2,-20,-9,-7
1526902155736860,-7,-2,-6,-4,2,3,16,0
1526902155750822,3,-1,-1,-13,-8,-24,-17,0
1526902155750822,-3,-4,-1,7,49,-11,14,-1
1526902155757803,-4,-4,0,-2,-2,-36,-3,-1
1526902155757803,3,0,0,-10,-24,40,-10,-1
1526902155773761,-8,1,1,3,6,3,7,-2
1526902155773761,9,-1,-3,-5,-19,-3,-8,-5
1526902155775756,-13,-2,-4,-5,28,-5,-23,-5
1526902155775756,-18,-1,3,0,7,8,-2,-2
1526902155787723,15,-2,-3,-2,-30,-64,3,10
1526902155787723,-5,-2,-2,2,19,7,-6,-6
1526902155796699,-19,-1,0,3,-4,-23,6,2
1526902155796699,10,2,2,0,-7,39,-2,-11
1526902155810662,-5,-1,0,10,14,-6,1,-7
1526902155810662,2,0,-1,0,-14,-12,-22,-7
1526902155817643,8,2,-3,-4,-3,28,2,-5
1526902155817643,4,-6,-8,-6,3,-45,2,4
1526902155834598,-12,2,7,11,-23,37,5,0
1526902155834598,13,-1,1,-7,8,-62,-8,0
1526902155835596,-9,-3,-3,4,17,66,9,-3
1526902155835596,-8,-2,3,14,0,-35,6,6
1526902155856539,7,-8,-7,-13,6,10,-6,-3
1526902155856539,5,-1,-2,5,-53,-13,10,7
1526902155858534,2,0,3,-5,-9,8,-2,3
1526902155858534,-3,-4,-1,1,-1,-12,12,-2
1526902155871499,-2,-3,-3,-3,-1,-16,-6,-4
1526902155871499,2,5,1,6,7,-24,4,3
1526902155877483,-2,-7,-4,-4,-2,72,-6,-5
1526902155877483,3,5,0,0,0,-37,-11,-2
1526902155894438,-5,6,5,5,6,1,-4,-15
1526902155894438,6,-3,-3,0,12,23,-4,-3
1526902155895435,2,2,0,-7,-17,-18,11,4
1526902155895435,-3,0,2,2,-13,-17,-2,2
1526902155916379,7,1,1,2,8,9,-19,-2
1526902155916379,-3,-12,-7,-12,-14,-2,15,0
1526902155918374,-16,6,4,2,-13,17,11,3
1526902155918374,0,7,9,33,40,24,4,9
1526902155931339,-1,-10,-8,-6,-1,-23,7,-2
1526902155931339,-5,5,5,10,5,45,-1,1
1526902155937323,13,-1,1,1,-15,-27,-8,0
1526902155937323,3,-1,-4,-17,-11,1,-4,-8
1526902155954278,-16,-7,-7,-1,1,5,5,3
1526902155954278,2,-7,-2,-1,-9,-2,-1,-4
1526902155955275,-4,-5,-3,-9,10,-15,0,3
1526902155955275,-5,2,1,-3,-8,7,7,7
1526902155976219,3,0,1,8,6,-14,-5,-1
1526902155976219,-6,-7,-7,-20,-17,-1,-14,-9
1526902155978214,-1,5,5,19,0,-18,3,2
1526902155978214,-2,-2,-3,-18,-48,14,-5,-1
1526902155991179,-3,-1,2,14,82,2,2,3
1526902155991179,-4,-1,-5,-1,-7,7,10,-2
1526902155998160,1,1,-2,-4,-22,-7,-14,3
1526902155998160,12,-9,-8,-23,-28,-8,-4,-6
1526902156014118,-7,7,13,50,53,13,24,9
1526902156014118,7,1,-1,3,12,5,6,3
1526902156016113,8,-5,-6,1,-3,-16,-24,-14
1526902156016113,-1,-6,-3,3,7,4,2,-9
1526902156037056,5,-1,-4,-29,-37,-11,-3,4
1526902156037056,-17,0,3,7,6,11,7,6
1526902156038054,3,2,-1,-3,4,-5,-1,3
1526902156038054,6,-1,1,-9,12,2,-5,-2
1526902156050022,-7,-7,-8,-17,-24,1,14,0
1526902156050022,-2,5,6,6,5,9,-37,-2
1526902156058998,5,1,1,7,-6,28,11,-7
1526902156058998,-5,2,0,1,31,1,-4,6
1526902156073958,9,3,2,-5,-43,-32,-4,-2
1526902156073958,10,0,1,5,10,61,4,1
1526902156075953,-8,-3,-8,-33,-13,-19,-2,-1
1526902156075953,0,13,16,34,26,16,13,7
1526902156096896,0,-4,-4,-3,-24,0,-7,-9
1526902156096896,0,-3,-7,-16,11,-20,-4,6
1526902156097894,8,1,-2,-2,-19,-11,-12,-9
1526902156097894,-7,-6,-4,-2,19,10,6,5
1526902156109862,-1,-9,-6,-12,-12,6,5,-18
1526902156109862,-6,2,2,1,-12,-19,-1,17
1526902156118838,-3,-2,1,-2,-4,-25,-11,-1
1526902156118838,5,0,-7,-8,21,-27,1,1
1526902156133798,-26,0,6,5,-3,-4,-16,-4
1526902156133798,11,-3,-3,10,12,-2,-8,-9
1526902156135793,-2,-2,0,-8,-2,8,16,3
1526902156135793,12,-3,-2,10,13,19,-11,-11
1526902156156736,-13,-7,-9,-27,-15,-6,-2,8
1526902156156736,8,-6,-4,1,-2,1,19,9
1526902156158731,-8,-2,4,17,9,2,-12,-19
1526902156158731,-4,3,1,-16,-15,28,-8,-15
1526902156170699,11,-2,0,0,-8,77,1,7
1526902156170699,-4,-9,-7,-5,-21,-3,-19,-19
1526902156179676,-9,4,1,4,29,-18,23,12
1526902156179676,-4,-2,-3,-15,-39,-12,-2,4
1526902156194635,11,0,0,12,11,-17,-6,-2
1526902156194635,-7,8,9,3,34,7,21,4
1526902156195632,10,2,-1,8,0,-24,-2,-8
1526902156195632,-14,-2,-7,-8,-33,-49,4,2
1526902156216576,5,7,6,16,21,24,-1,8
1526902156216576,-8,-5,-1,-3,-3,-17,5,-9
1526902156218571,12,1,1,4,0,4,7,4
1526902156218571,-14,-8,-3,5,6,-12,-11,-5
1526902156230539,8,9,0,-3,0,-10,0,-14
1526902156230539,2,-2,-1,1,5,8,-6,-17
1526902156239515,8,1,0,4,6,15,2,31
1526902156239515,5,6,1,-8,-16,12,5,22
1526902156254475,-4,-5,-6,-13,-36,-97,-2,-16
1526902156254475,5,2,3,-1,12,68,-22,-14
1526902156255473,-4,1,3,4,22,6,10,4
1526902156255473,-3,-3,-4,-2,-45,-16,-15,-18
1526902156276416,1,-4,-3,-6,30,-16,4,1
1526902156276416,4,-7,-6,7,-12,-24,1,8
1526902156278411,-3,0,-4,-4,-3,-1,-2,-8
1526902156278411,-3,5,6,7,12,20,-4,-4
1526902156290379,4,-5,-6,-7,-13,9,2,-1
1526902156290379,-1,-2,-1,3,-5,-18,5,1
1526902156299355,-4,-5,-2,2,5,13,0,6
1526902156299355,0,-5,-3,-1,2,-14,-14,-6
1526902156314315,0,1,0,-6,-5,10,-1,4
1526902156314315,9,-6,-4,-12,26,-17,7,7
1526902156315312,-5,-8,-7,-24,-32,-13,0,-6
1526902156315312,0,1,3,13,19,9,19,4
1526902156336256,-1,-1,0,0,24,5,-1,8
1526902156336256,-6,-1,0,9,-26,-3,0,-9
1526902156338251,5,3,-2,-14,-10,-4,-3,1
1526902156338251,-10,-4,0,15,23,5,-2,15
1526902156350219,11,-6,-4,-7,-16,5,-2,-7
1526902156350219,-1,3,-4,-15,-29,-19,-1,-12
1526902156359195,-12,0,1,15,23,5,-3,-11
1526902156359195,3,2,0,-11,-23,-6,3,0
1526902156374155,-6,3,4,27,24,1,-1,-5
1526902156374155,0,-2,-3,-8,-25,-7,-4,1
1526902156376150,5,-6,-4,0,-1,0,-3,-1
1526902156376150,0,-6,-4,5,-36,0,1,-1
1526902156397093,-2,0,2,5,52,4,-2,-2
1526902156397093,5,-2,-1,0,9,5,-3,0
1526902156398091,-4,8,1,-1,15,-1,-8,-20
1526902156398091,-7,0,-1,-7,16,-3,-5,-9
1526902156410059,4,-2,-3,-1,-51,0,-6,10
1526902156410059,3,3,2,2,-17,-6,0,13
1526902156419035,10,-5,-4,-14,-13,-5,-4,-6
1526902156419035,-3,14,10,14,21,6,4,12
1526902156433995,-7,2,3,5,17,1,5,-3
1526902156433995,-1,-5,-4,5,-2,-26,1,-11
1526902156435990,3,-3,-1,-3,-12,30,4,-6
1526902156435990,3,1,-4,-5,-1,2,-7,23
1526902156456934,-3,-6,-9,-14,11,-30,-5,1
1526902156456934,6,-4,9,27,-8,59,9,-4
1526902156457931,7,-2,-3,1,47,2,-10,-5
1526902156457931,-6,-3,2,21,7,10,17,-1
1526902156469899,-11,4,0,0,-1,-14,7,10
1526902156469899,-3,-3,-7,-10,12,-1,-6,9
1526902156478875,2,9,8,26,-11,-12,5,-3
1526902156478875,1,-7,-5,-6,-5,7,-2,-18
1526902156493835,-1,-8,-3,-11,1,18,-6,2
1526902156493835,-6,-2,-2,9,9,-23,1,-13
1526902156495830,-7,0,-6,-20,-34,-3,-7,0
1526902156495830,13,7,0,-10,-8,-17,-5,7
1526902156516773,-6,9,15,19,25,13,6,-10
1526902156516773,17,-5,-8,-24,-24,-26,5,19
1526902156518768,-8,-8,-7,-24,-26,-4,-2,6
1526902156518768,-14,7,9,38,32,-26,-7,-21
1526902156530736,18,-4,-5,-17,-27,20,-13,18
1526902156530736,-11,6,2,13,41,7,8,-1
1526902156539712,-1,-6,-5,7,-27,-16,-6,-3
1526902156539712,-6,3,-4,-35,-31,-27,11,15
1526902156553675,3,-4,-1,11,11,51,4,-4
1526902156553675,-8,1,-1,-15,19,-17,-11,-1
1526902156555670,2,1,3,8,-7,-9,-2,7
1526902156555670,15,0,-1,-3,26,16,-11,-10
1526902156576614,-1,-3,-1,1,-12,-14,4,7
1526902156576614,-36,-15,-15,-43,-42,-12,-33,-24
1526902156578608,24,7,9,5,29,8,17,6
1526902156578608,-15,-11,-4,10,19,2,-11,-2
1526902156590576,5,-5,-1,7,-9,-32,-2,-21
1526902156590576,19,-3,0,16,29,11,-12,-2
1526902156599552,-17,-1,-4,-19,-27,-6,4,-12
1526902156599552,2,-7,-3,-15,-47,3,-5,-1
1526902156614512,-20,-2,-1,-2,47,4,15,-1
1526902156614512,-4,-1,0,3,3,-3,1,15
1526902156615509,-4,-12,-13,-12,4,11,-25,-12
1526902156615509,6,4,2,-10,-44,67,20,9
1526902156636453,0,9,14,39,7,-10,4,-4
1526902156636453,-1,2,6,15,10,66,19,-11
1526902156638448,0,3,4,14,-1,-38,-2,10
1526902156638448,-5,-4,-7,-21,-1,-19,-1,-7
1526902156650416,5,-5,-7,-23,-38,-5,-2,-4
1526902156650416,5,2,-3,-12,-20,-30,3,-1
1526902156659392,-7,12,13,25,21,26,29,31
1526902156659392,-3,-1,2,5,54,16,-9,-36
1526902156673354,5,-12,-13,-15,-69,14,-25,-7
1526902156673354,20,3,0,-6,-14,-22,19,16
1526902156680336,-30,-5,-1,-16,-13,-13,-15,7
1526902156680336,4,0,2,1,10,46,20,6
1526902156696293,-11,0,-2,-10,-56,-17,2,-1
1526902156696293,3,-2,2,10,26,0,3,-5
1526902156698289,4,-3,-5,8,31,40,-19,-7
1526902156698289,-5,1,3,12,5,-84,-19,8
1526902156710256,7,0,-4,-17,13,5,-11,-11
1526902156710256,-2,1,-1,-14,-59,12,-5,-8
1526902156719232,-5,3,4,1,8,-14,29,-2
1526902156719232,-3,3,3,3,24,-3,-13,24
1526902156733195,1,-12,-17,-53,-66,-27,-6,-15
1526902156733195,-4,2,3,23,30,-7,-6,-7
1526902156740176,2,-3,-2,11,-2,-5,-46,-14
1526902156740176,-1,-3,1,12,25,26,9,-1
1526902156757131,9,-4,-3,-4,-35,-17,8,-3
1526902156757131,-4,-3,-7,-5,8,0,14,21
1526902156758129,-3,1,2,4,-7,19,-18,-8
1526902156758129,-1,3,-3,-18,-13,70,22,7
1526902156779072,15,1,6,10,46,-68,-31,9
1526902156779072,7,0,-3,-5,-15,27,4,0
1526902156781067,-6,-1,-6,-12,14,-6,16,3
1526902156781067,0,-4,-7,-8,-45,-23,-21,-9
1526902156793034,-3,6,4,11,48,26,52,8
1526902156793034,3,-7,-6,-20,2,14,-62,-15
1526902156800016,20,-1,0,20,11,32,60,4
1526902156800016,-39,-4,-5,-14,-9,-15,-8,-5
1526902156816971,3,-10,-6,0,-41,-68,-36,-17
1526902156816971,-14,-6,-7,-2,-23,56,4,4
1526902156817968,-5,-8,-6,-11,-6,-66,27,-4
1526902156817968,22,-4,-3,-1,12,50,15,-2
1526902156838912,6,7,-1,-1,46,81,48,40
1526902156838912,-2,3,2,-2,-54,15,1,-18
1526902156840907,-11,9,7,12,11,-5,5,6
1526902156840907,9,4,9,9,-11,-78,-16,-4
1526902156853872,-5,-4,-2,-3,16,111,-90,-30
1526902156853872,10,6,6,-14,1,-14,52,20
1526902156859856,-2,-10,-2,7,-9,-86,-27,10
1526902156859856,10,1,-4,-11,-41,7,-6,21
1526902156876811,4,-4,-1,-3,40,-82,2,-29
1526902156876811,-11,5,0,17,9,-31,-17,-21
1526902156878805,5,10,9,4,-34,27,-45,-2
1526902156878805,0,-8,-8,3,-2,-6,3,2
1526902156898752,-9,15,10,19,5,20,26,1
1526902156898752,9,-4,0,8,34,-10,17,13
1526902156900747,0,-3,-9,-36,-43,33,-2,-2
1526902156900747,6,-2,8,28,73,-9,8,1
1526902156913712,1,-6,-6,2,-22,17,43,6
1526902156913712,0,4,6,8,11,-91,-23,-7
1526902156920693,-8,3,0,-1,7,-2,-19,1
1526902156920693,2,3,-1,0,7,-10,16,7
1526902156936650,-3,-6,2,-2,34,72,-25,-7
1526902156936650,1,0,2,0,1,58,24,7
1526902156938645,4,1,-9,-28,-16,17,13,16
1526902156938645,2,0,-3,1,-17,8,-5,-24
1526902156959589,-15,5,5,16,5,41,-25,4
1526902156959589,2,-6,2,9,21,-56,-22,-1
1526902156960587,1,1,-3,-22,-50,66,47,-4
1526902156960587,6,-7,2,-2,40,-79,-3,-3
1526902156973552,-8,-8,-3,-7,-53,-69,13,8
1526902156973552,14,2,-4,-5,-20,34,-7,12
1526902156980533,-8,1,0,7,62,-23,-6,-14
1526902156980533,-8,-4,-2,-2,-11,-14,-16,-7
1526902156996490,25,0,3,-1,-18,-5,-30,1
1526902156996490,-25,-8,-2,4,-4,-31,-26,-20
1526902156998485,13,0,-2,-13,-30,-52,3,2
1526902156998485,2,-4,-4,-9,20,78,-16,-8
1526902157019429,-10,0,-1,10,20,-33,-9,-7
1526902157019429,-8,1,-5,-3,16,82,32,7
1526902157020427,25,-9,0,8,-39,-58,-8,21
1526902157020427,-27,9,3,-5,-6,93,-6,-26
1526902157032395,6,-5,0,-1,27,-31,46,5
1526902157032395,4,-4,-1,4,0,-10,3,12
1526902157041370,-13,-1,-2,6,17,23,-1,-6
1526902157041370,8,-7,-4,-6,-42,-58,-15,-5
1526902157056330,4,-10,-9,-24,-42,42,-30,7
1526902157056330,0,2,1,21,39,-37,0,-12
1526902157058325,-13,-7,-1,4,-14,76,-20,-16
1526902157058325,11,-1,-1,7,36,-1,2,7
1526902157079269,0,-3,-3,3,-10,5,11,3
1526902157079269,-42,-9,-8,-20,-12,-16,9,-7
1526902157080267,5,-4,-3,-10,-9,91,-49,-2
1526902157080267,16,10,6,3,-16,-5,21,3
1526902157093232,5,-4,2,-2,-39,-31,24,-3
1526902157093232,17,1,1,1,10,3,-11,0
1526902157100213,-14,4,2,21,35,14,5,-5
1526902157100213,-21,-5,-6,-15,3,-18,-10,-5
1526902157117168,4,3,0,13,22,-17,34,-5
1526902157117168,-2,7,-2,-11,-17,33,-1,9
1526902157118166,-3,8,8,29,34,-6,35,3
1526902157118166,-2,-2,0,1,5,35,-6,-1
1526902157139109,7,-3,-5,-9,-15,10,-13,-10
1526902157139109,21,0,-4,-21,-54,-85,-5,6
1526902157141104,-21,10,10,32,82,-61,29,10
1526902157141104,6,-6,-2,-2,-10,8,24,1
1526902157153072,-1,-5,-5,2,-4,25,-45,1
1526902157153072,-10,-1,2,3,20,50,-5,-21
1526902157162048,7,-6,-6,-20,-32,-21,1,4
1526902157162048,-7,-6,-1,5,-10,-50,-54,-33
1526902157177008,0,1,2,6,41,23,9,10
1526902157177008,13,-3,-3,-9,-26,-16,-2,2
1526902157178005,-6,-2,-1,5,5,-23,-6,-32
1526902157178005,-5,-6,-4,-11,0,85,17,24
1526902157198949,-7,-2,-8,-21,-13,-30,11,4
1526902157198949,3,8,5,-2,14,110,-2,6
1526902157200944,13,1,5,14,2,-34,-1,2
1526902157200944,-5,2,-3,3,19,36,-2,-12
1526902157212912,-8,-6,-5,-4,6,-3,15,7
1526902157212912,6,5,0,6,3,83,29,2
1526902157221888,10,-3,-3,-34,-40,-103,-7,4
1526902157221888,-5,3,7,10,-28,-49,2,16
1526902157236848,5,-3,3,10,14,15,10,0
1526902157236848,-2,-4,-1,14,11,-19,4,10
1526902157237845,-5,1,-5,-11,-9,67,-21,5
1526902157237845,4,2,-4,-5,-16,-84,7,-5
1526902157258789,9,0,-1,-1,0,-17,0,6
1526902157258789,-2,-7,-5,-7,-13,-79,-14,0
1526902157260784,-8,2,0,1,5,-18,33,4
1526902157260784,9,-5,-4,-12,22,-8,9,6
1526902157272752,-6,8,5,15,-12,8,-6,-6
1526902157272752,-6,-9,-5,2,11,0,21,2
1526902157281728,12,-4,-4,0,-8,-12,-13,-8
1526902157281728,-34,-1,-2,-1,-9,-45,-5,6
1526902157296688,-2,1,0,-5,22,-16,19,-6
1526902157296688,10,-1,-3,-3,-19,-40,-26,2
1526902157298683,-13,-7,-3,-3,27,64,-33,-31
1526902157298683,21,-2,-1,-1,-32,29,14,5
1526902157319626,-17,-3,-1,2,9,-8,-3,-1
1526902157319626,-2,0,0,-3,-3,-18,10,5
1526902157320624,1,0,0,-7,-6,73,7,13
1526902157320624,8,4,3,7,-4,8,-9,-4
1526902157332592,0,-2,0,0,-6,-27,-23,-10
1526902157332592,13,2,-3,-12,18,35,17,20
1526902157341568,-18,-2,2,12,-22,-26,-15,0
1526902157341568,-1,-6,-2,4,5,-24,-2,-3
1526902157356528,2,2,-2,-4,-5,-36,-5,7
1526902157356528,-4,-2,2,3,-2,-11,-9,-18
1526902157358523,1,0,-2,-8,-3,9,15,9
1526902157358523,2,3,2,-3,-17,-23,-10,6
1526902157379466,17,-3,-2,4,19,7,11,-6
1526902157379466,-25,-3,-3,-4,-9,6,2,-6
1526902157380464,0,-2,-1,1,8,0,3,5
1526902157380464,-5,-1,0,-2,17,36,-3,-9
1526902157392431,5,-5,-2,-9,-11,8,5,9
1526902157392431,-12,-3,-5,-9,-30,-41,-15,-22
1526902157401408,0,8,10,24,47,33,-3,15
1526902157401408,0,3,-1,-6,-6,-55,2,-3
1526902157416367,-3,-1,0,-2,0,26,-17,2
1526902157416367,20,-4,0,5,-15,7,-10,-9
1526902157418363,-12,9,2,-2,3,10,30,10
1526902157418363,8,-5,-3,-7,-1,22,-33,4
1526902157439306,12,-3,-6,-6,-4,28,-15,-17
1526902157439306,3,0,-3,-3,9,-4,19,6
1526902157440304,5,-1,-1,0,-3,-68,-42,-1
1526902157440304,-20,3,4,8,35,110,44,-2
1526902157453269,-2,-3,-1,-8,-8,22,19,8
1526902157453269,-10,3,4,15,5,-4,-34,-9
1526902157462245,26,-1,-4,-6,-45,-83,9,-5
1526902157462245,-10,2,3,-1,7,-19,-14,9
1526902157476208,3,0,0,5,-10,18,8,-4
1526902157476208,-15,-1,-3,-16,31,-22,6,-4
1526902157478202,14,-1,4,16,10,92,4,6
1526902157478202,-18,1,2,-3,-28,-11,-1,-4
1526902157499146,3,-2,-3,5,10,-21,-13,-13
1526902157499146,10,2,2,2,-6,-7,0,-3
1526902157501141,-4,-5,-8,-25,-29,-43,40,-4
1526902157501141,9,6,1,4,20,-10,6,2
1526902157513109,-5,-2,1,-2,-18,45,3,6
1526902157513109,-1,1,3,14,24,-17,6,1
1526902157522085,-4,0,0,3,1,17,-16,-9
1526902157522085,0,-1,-1,-8,-30,-75,-3,4
1526902157537045,-8,-1,2,3,13,-7,-2,4
1526902157537045,12,5,1,3,12,30,17,-1
1526902157538043,-35,-2,-1,0,13,-59,-10,3
1526902157538043,24,-6,-8,-10,-22,33,-15,-3
1526902157558986,0,2,8,12,14,36,1,3
1526902157558986,-8,-10,-5,-12,-28,-18,-24,-7
1526902157560981,-5,2,1,2,12,11,43,6
1526902157560981,8,-6,-6,-7,4,7,-6,1
1526902157572949,0,-2,-2,-1,-8,-37,-14,-7
1526902157572949,2,2,3,8,11,6,-4,5
1526902157581925,1,-2,-3,-7,-17,-12,-12,-1
1526902157581925,-26,-4,-3,4,14,3,-4,-6
1526902157595888,23,-2,-3,-1,-8,-3,6,1
1526902157595888,13,1,-1,-4,-36,-44,-21,0
1526902157602869,-3,2,2,0,28,30,-6,0
1526902157602869,16,-2,0,2,-19,-24,-16,4
1526902157618826,-16,-6,-2,2,3,60,7,-8
1526902157618826,3,-1,-1,-2,-13,-36,30,-3
1526902157620821,-1,-4,-3,5,13,0,-5,-5
1526902157620821,-6,0,-2,-2,-4,11,-3,2
1526902157632789,3,-5,-6,-11,-3,-21,-20,-2
1526902157632789,-17,0,0,7,-7,-5,1,-8
1526902157641765,26,-3,-2,2,10,88,12,-1
1526902157641765,-3,0,1,1,2,-28,41,3
1526902157655727,-2,-2,-4,0,4,-34,-26,-3
1526902157655727,-7,-4,-2,0,-6,8,2,4
1526902157662709,1,2,1,-4,-9,-25,-2,3
1526902157662709,0,-2,-3,-4,6,23,4,-7
1526902157679664,-10,-1,-2,-1,5,-23,12,5
1526902157679664,18,0,-1,-1,-2,-9,-10,5
1526902157680661,-9,3,0,-5,-4,-43,9,3
1526902157680661,2,-3,-4,-4,1,84,15,-7
1526902157692629,8,0,-1,-1,21,-9,-9,0
1526902157692629,-5,1,-1,-6,13,-30,11,-2
1526902157701605,-20,-2,-3,-1,9,79,-5,3
1526902157701605,21,3,0,-14,-36,-42,-5,-4
1526902157715567,-4,3,3,25,-3,-31,14,1
1526902157715567,-6,-3,-3,-1,10,70,15,6
1526902157722549,4,2,-1,-2,-8,-2,-27,-2
1526902157722549,1,-5,-4,-3,25,-26,0,-6
1526902157739503,2,2,2,-8,-34,-13,1,6
1526902157739503,2,1,0,2,16,31,-5,-8
1526902157740501,-6,-3,-2,1,-3,-7,-1,-8
1526902157740501,0,-5,-1,-10,3,4,8,3
1526902157761445,0,-4,1,9,-22,28,-4,0
1526902157761445,-25,-10,-7,-5,3,12,-17,-13
1526902157763440,-1,0,-3,-4,-6,-21,-5,1
1526902157763440,4,-4,-2,1,-6,-15,6,3
1526902157776405,-3,-2,-4,-10,-6,52,0,-2
1526902157776405,22,5,5,7,-14,-2,12,1
1526902157782389,-25,-8,-4,-2,-13,9,-11,-11
1526902157782389,-2,-1,1,6,39,0,-5,-1
1526902157799343,6,-2,-7,-5,-9,-33,6,1
1526902157799343,-4,1,-2,-15,0,20,7,3
1526902157800341,8,0,5,13,16,-105,-18,2
1526902157800341,1,0,-1,1,0,-26,5,-8
1526902157821285,-10,-6,-2,5,-1,-1,11,-7
1526902157821285,-6,-1,-2,-3,-54,-15,-7,11
1526902157823280,-14,4,0,1,37,-48,-5,-1
1526902157823280,8,-2,-1,-2,-13,43,-33,-9
1526902157836245,8,-5,-2,-4,18,-13,10,-1
1526902157836245,-4,-1,-2,1,-4,-5,-6,0
1526902157843226,-4,-3,-3,-7,-14,12,9,2
1526902157843226,-8,-3,2,3,-11,-8,-1,3
1526902157859183,-1,4,-2,-12,-19,-19,0,1
1526902157859183,0,7,6,15,13,-59,-5,3
1526902157861178,7,0,-1,-15,30,79,1,-1
1526902157861178,0,-1,-1,11,1,52,2,-1
1526902157882122,-6,-2,-3,6,-7,-29,-5,-4
1526902157882122,-2,0,0,-7,3,-24,-1,1
1526902157883120,16,0,-1,-4,-25,-21,-32,-6
1526902157883120,6,-7,-5,-15,-16,33,-9,-6
1526902157896085,2,3,1,13,51,-41,16,3
1526902157896085,3,1,-2,7,18,14,-24,-11
1526902157903066,-15,-3,-2,-2,-21,19,14,-1
1526902157903066,4,1,2,10,8,-10,-3,10
1526902157919024,-9,-1,-1,-12,-24,-25,0,2
1526902157919024,-3,-5,-3,-5,15,14,11,2
1526902157921018,13,1,-1,-3,-15,0,4,-8
1526902157921018,-19,-2,-3,-3,14,-13,-1,-1
1526902157941962,-13,0,0,-5,-3,-15,-3,-5
1526902157941962,7,-3,-3,-10,-8,83,-10,-3
1526902157942960,9,-1,1,4,-8,10,0,0
1526902157942960,5,2,0,-1,-10,-32,-4,-4
1526902157955925,-20,1,1,-9,22,63,-6,3
1526902157955925,4,-3,-1,1,-4,-36,2,1
1526902157962906,-7,4,1,-6,-11,-11,-10,2
1526902157962906,4,4,1,12,39,49,36,-3
1526902157978863,6,-3,-3,-19,-23,-44,14,1
1526902157978863,-2,2,2,6,17,4,-2,-3
1526902157980858,-6,1,0,-1,20,39,4,4
1526902157980858,1,-2,-4,-10,-38,11,-16,-1
1526902158001802,8,-2,-2,9,1,-47,-23,-7
1526902158001802,-26,-2,0,0,9,4,3,1
1526902158003797,6,-7,-3,0,-14,-30,0,-6
1526902158003797,-23,-6,-5,-5,2,-6,13,10
1526902158015765,-1,1,1,-2,6,35,-10,-3
1526902158015765,2,6,1,1,-5,-19,-4,-8
1526902158024741,11,-10,-5,-2,-12,0,2,5
1526902158024741,3,-5,-2,1,-3,-26,-3,-7
1526902158038703,9,1,-1,-3,-1,33,8,2
1526902158038703,0,-2,0,0,-6,-6,5,0
1526902158040698,6,5,5,0,11,33,-11,1
1526902158040698,-5,-5,-2,7,13,-11,7,1
1526902158061642,0,-3,-3,4,-18,-11,-22,-9
1526902158061642,8,3,3,-6,14,72,15,3
1526902158063637,-4,-4,-1,15,9,10,-9,-3
1526902158063637,5,-8,-6,-9,-20,-32,3,7
1526902158075605,3,-1,0,-6,-10,10,4,-1
1526902158075605,-33,8,9,24,68,13,14,3
1526902158084581,21,-7,-7,-11,-19,-15,-2,-6
1526902158084581,-4,6,7,28,21,12,0,4
1526902158099541,6,-3,-3,-10,-18,-38,10,9
1526902158099541,5,-4,-5,-12,-24,-26,-10,1
1526902158100538,2,3,1,-1,7,-24,9,0
1526902158100538,13,2,1,-8,0,2,1,-3
1526902158121482,-24,4,4,0,4,6,2,3
1526902158121482,9,6,-1,1,-9,9,8,-8
1526902158123477,-6,-5,-6,-1,-3,-15,5,6
1526902158123477,1,-4,0,1,-11,-3,-1,-9
1526902158135444,9,1,0,5,12,16,-9,-5
1526902158135444,6,-4,-4,-5,-10,-8,-8,7
1526902158144421,-5,4,4,-1,-2,-1,5,-1
1526902158144421,-10,5,0,-6,-5,-41,11,3
1526902158159380,7,-6,-5,-7,6,11,-7,-6
1526902158159380,-12,-6,-3,-5,-21,-22,-2,-2
1526902158160378,5,-5,-2,-9,-15,12,-10,-6
1526902158160378,6,-2,-1,-3,-28,-39,-8,-1
1526902158181322,-7,9,10,22,48,37,16,8
1526902158181322,4,-12,-9,-11,-31,-20,0,0
1526902158183317,-5,4,1,-3,4,-22,-4,-5
1526902158183317,2,-5,-3,-5,-1,9,-8,-7
1526902158195285,-3,-4,-8,-10,-16,-4,-15,1
1526902158195285,-1,-2,3,5,8,-3,-6,4
1526902158204261,-7,0,-1,4,0,-22,1,1
1526902158204261,5,-1,-1,-4,1,17,9,-2
1526902158219221,-1,4,-2,0,-8,-18,3,1
1526902158219221,0,3,2,2,12,-11,2,1
1526902158221215,8,-2,-1,1,-3,5,1,0
1526902158221215,-23,-6,-4,-11,2,8,-6,0
1526902158242159,6,-3,-1,9,0,-10,-14,-1
1526902158242159,5,2,1,-14,-5,62,7,-3
1526902158243157,3,-1,-4,-7,1,23,20,-4
1526902158243157,5,4,2,5,12,-24,-19,2
1526902158255125,3,-8,-3,4,2,33,-1,-15
1526902158255125,-4,-1,-2,-3,-25,-10,0,3
1526902158264101,-10,3,2,3,18,-13,15,-4
1526902158264101,6,2,0,-1,8,16,0,12
1526902158279060,-4,-2,-4,-9,-4,-1,7,-16
1526902158279060,12,-3,-3,1,-5,-40,-6,21
1526902158281055,-8,-3,1,-4,-15,7,8,2
1526902158281055,14,-2,0,6,4,-4,0,-4
1526902158301999,-21,-7,-2,-2,-6,-2,1,-13
1526902158301999,0,4,1,1,6,-10,-10,2
1526902158302997,-11,-2,2,5,-1,-17,-13,-9
1526902158302997,9,-5,-2,-2,-2,62,0,-11
1526902158314965,3,-7,-4,-7,-6,-3,-1,26
1526902158314965,-23,-5,-3,-9,-5,-8,-15,-16
1526902158323941,-3,0,-1,9,1,-2,-11,6
1526902158323941,9,-4,0,-1,-1,-23,4,8
1526902158338901,1,-3,-2,-6,-5,67,-37,-9
1526902158338901,1,-1,0,4,9,2,-3,-9
1526902158340896,3,1,-1,-3,-2,-3,-6,6
1526902158340896,-7,-1,-2,2,3,12,0,3
1526902158361839,5,-1,-3,-7,-5,-13,5,4
1526902158361839,5,2,2,13,-1,-25,2,-2
1526902158362837,-11,-5,-1,-6,11,20,-7,4
1526902158362837,-3,2,0,12,1,-15,-13,-8
1526902158374804,2,6,-2,-9,-24,-87,-12,-2
1526902158374804,9,-2,0,6,16,18,-18,-10
1526902158384778,11,2,0,1,-43,-42,-2,2
1526902158384778,-10,13,4,6,108,48,8,-7
1526902158398740,10,1,0,6,-12,-25,18,16
1526902158398740,7,0,-3,-2,-8,15,2,0
1526902158400735,6,-1,1,1,-4,3,-19,2
1526902158400735,-1,-9,-8,-20,-36,-25,-9,-12
1526902158421679,-3,7,4,3,16,-24,16,-26
1526902158421679,8,1,4,14,24,55,23,31
1526902158423674,-5,1,-1,-5,1,29,15,-24
1526902158423674,-20,-6,-6,-7,-19,-21,2,36
1526902158435642,19,-5,-6,-6,2,-2,2,-3
1526902158435642,0,2,0,-4,-19,-18,-1,-10
1526902158444618,-17,0,0,-4,10,-5,-2,-4
1526902158444618,12,3,2,-4,-26,-13,7,0
1526902158459578,4,0,4,18,20,68,19,12
1526902158459578,-5,-3,-1,-2,9,-23,-6,-2
1526902158460575,6,-3,-1,-4,-2,4,-2,4
1526902158460575,0,-3,-3,-2,-10,-35,-5,-8
1526902158481519,-1,-3,0,-8,-31,23,-8,6
1526902158481519,-3,0,-3,2,42,-13,10,-13
1526902158483514,-3,4,1,10,33,31,-4,9
1526902158483514,5,-8,-3,-11,-4,13,-2,-11
1526902158495482,4,-10,-5,-8,-3,-32,2,3
1526902158495482,-11,6,0,2,-18,7,5,-9
1526902158504458,30,-1,-5,-17,-11,-20,0,10
1526902158504458,-25,-5,-3,-3,-13,-17,-13,-9
1526902158519418,1,0,4,16,-7,85,0,26
1526902158519418,-7,-7,-2,0,9,-22,-4,-14
1526902158520415,3,-1,2,3,-9,-43,-5,-7
1526902158520415,10,-1,1,-2,-1,-5,-16,-8
1526902158541359,-10,-3,-9,-27,-25,-46,24,-21
1526902158541359,0,-1,2,2,-41,-1,-17,11
1526902158543354,-14,0,-1,-5,19,-2,17,-7
1526902158543354,4,-2,5,13,-26,-7,6,2
1526902158555322,0,-2,-2,9,39,-4,10,-4
1526902158555322,4,-2,-4,-9,-16,-4,10,16
1526902158564298,-10,-3,0,-2,-10,-5,-3,12
1526902158564298,0,-2,-2,-1,-12,11,-3,-20
1526902158578260,-16,0,-3,-6,6,-4,-11,5
1526902158578260,27,5,-1,-7,-6,-6,-12,7
1526902158585242,-19,0,3,4,6,-3,-5,4
1526902158585242,9,-3,2,4,-1,18,24,-2
1526902158601199,0,2,-2,-3,14,8,-7,-21
1526902158601199,-9,-1,-7,-11,1,-4,2,4
1526902158603194,-13,8,3,12,3,-21,10,7
1526902158603194,16,-6,-8,-31,-78,4,-8,6
1526902158615162,-1,11,14,52,40,43,42,-8
1526902158615162,3,-1,1,-7,38,-10,5,2
1526902158624138,9,-1,-2,15,6,9,15,-7
1526902158624138,-8,-2,-5,-1,13,-5,-3,7
1526902158638100,-11,1,-1,-4,-6,-45,-16,-8
1526902158638100,-8,-1,-3,-7,-14,18,4,-24
1526902158645081,3,-3,2,0,-11,-5,-33,-5
1526902158645081,-2,0,1,4,20,-45,4,8
1526902158662036,0,-2,-2,-13,-17,10,-33,-15
1526902158662036,3,-1,1,6,10,-5,-25,3
1526902158663034,-12,1,-1,-11,2,11,2,-6
1526902158663034,-15,1,0,17,9,14,9,1
1526902158683978,8,-6,-2,-9,0,-67,-25,-12
1526902158683978,0,2,-3,-2,-33,-49,8,28
1526902158685973,17,-2,-1,-6,5,52,-7,-6
1526902158685973,-10,-6,-7,-22,-32,-31,-21,-9
1526902158698938,1,-2,7,27,22,28,13,18
1526902158698938,-1,-2,-4,-1,-6,5,-5,3
1526902158704922,4,-4,-3,-2,-9,-65,-6,-21
1526902158704922,4,7,5,6,-10,45,41,8
1526902158721876,7,-13,-9,-21,9,27,5,11
1526902158721876,-1,2,-1,6,-14,-9,10,9
1526902158722874,-10,-1,2,4,5,24,-12,7
1526902158722874,2,-2,2,9,4,-7,-13,-5
1526902158743818,-10,0,-1,-6,-15,-24,-4,-8
1526902158743818,3,0,1,-3,16,35,-7,-5
1526902158745813,7,0,-2,-3,-6,64,18,16
1526902158745813,-2,-1,-2,1,17,-49,-13,-1
1526902158758777,3,1,0,-3,-11,35,-31,-8
1526902158758777,-5,2,2,-1,3,12,23,-3
1526902158765759,3,-2,-3,-2,-14,-14,-3,14
1526902158765759,3,2,1,-2,-9,-8,-18,-23
1526902158781716,1,5,6,19,59,50,6,11
1526902158781716,-6,-4,-3,0,-9,3,3,-28
1526902158783711,-3,-2,-2,-1,-7,-15,0,0
1526902158783711,1,-3,2,4,24,-15,2,4
1526902158804655,2,1,0,-6,-20,23,-2,4
1526902158804655,-11,-4,-3,-7,-31,-44,-14,-9
1526902158805652,-10,4,5,0,32,64,9,-7
1526902158805652,12,-5,-2,-1,15,-15,11,2
1526902158818618,-5,-6,-13,-27,-52,-35,-1,-3
1526902158818618,4,-2,2,18,16,23,-2,-12
1526902158825599,-1,0,-2,1,3,11,14,18
1526902158825599,7,-1,-1,7,8,28,11,0
1526902158841556,-1,-1,-2,2,1,-11,-7,-2
1526902158841556,8,3,2,-6,-1,-3,-11,36
1526902158843551,-8,0,-3,-7,-15,9,-1,-6
1526902158843551,0,1,0,-6,14,1,1,-5
1526902158864495,1,3,-2,-3,-4,-1,26,4
1526902158864495,-5,-4,-2,-2,-4,-21,5,-1
1526902158865493,-2,-3,2,5,3,-39,3,-3
1526902158865493,8,0,-2,-1,6,28,0,6
1526902158877460,6,-6,-7,-8,-13,-30,2,1
1526902158877460,-7,2,1,-2,8,-40,-4,-2
1526902158886436,0,-9,-4,-8,-6,75,-10,-19
1526902158886436,-5,-4,1,5,-3,4,-17,-7
1526902158901396,0,-1,-2,-3,-12,-47,-3,8
1526902158901396,-5,-1,-5,-16,28,-15,-22,-56
1526902158903391,-6,-2,4,17,-20,-26,0,12
1526902158903391,0,4,3,4,26,5,1,8
1526902158924335,7,2,1,4,10,-11,-13,-21
1526902158924335,-11,2,-3,-4,-16,22,17,31
1526902158925333,15,-3,0,-2,0,-32,-13,14
1526902158925333,-9,10,2,5,8,-3,-3,-22
1526902158938298,-10,-3,-3,11,8,-6,7,6
1526902158938298,13,1,-1,-2,-1,0,-4,8
1526902158947274,-18,-9,-6,-9,-6,11,15,6
1526902158947274,8,-1,0,6,5,-30,-1,8
1526902158961236,4,2,1,-8,-6,42,-15,-9
1526902158961236,-11,2,-1,6,0,21,-1,-21
1526902158963231,2,-3,-4,-4,1,-26,0,-1
1526902158963231,5,-12,-7,-15,-37,-20,-6,12
1526902158984175,-6,6,5,9,61,56,-7,-16
1526902158984175,6,-5,4,9,-2,17,0,5
1526902158986170,0,6,5,12,0,-32,-3,20
1526902158986170,-2,2,2,8,31,23,-6,4
1526902158998137,5,-2,-4,-12,-79,-7,22,4
1526902158998137,-24,6,9,15,45,30,-13,25
1526902159007114,5,7,4,8,31,-20,16,-33
1526902159007114,-5,1,1,-6,-23,5,1,-10
1526902159022073,-2,3,0,2,-6,-97,-18,6
1526902159022073,3,-7,-5,-8,-2,30,40,10
1526902159023071,5,7,6,1,-15,16,7,-4
1526902159023071,6,-4,-1,4,14,-9,-3,27
1526902159044015,-5,6,-2,-3,-13,36,-24,-10
1526902159044015,-8,-1,0,6,3,-12,15,-1
1526902159046010,12,-7,-8,-16,5,1,-13,25
1526902159046010,-12,-8,-6,0,-2,2,23,-38
1526902159057977,0,4,6,-1,6,-17,6,35
1526902159057977,-5,3,-2,-6,-15,53,-16,-19
1526902159066954,-20,-12,-12,-23,-55,-85,33,2
1526902159066954,12,1,-3,2,48,19,-26,-8
1526902159081913,5,-2,-1,3,-9,-8,8,4
1526902159081913,-5,2,4,6,7,-32,-6,-17
1526902159082911,16,3,8,3,3,8,-25,0
1526902159082911,-10,-5,-8,-15,-50,-68,-10,9
1526902159103855,-12,-3,-2,-2,-2,-70,16,-16
1526902159103855,25,-3,-1,-8,-34,-3,18,50
1526902159105850,1,-1,4,6,38,31,-6,-18
1526902159105850,0,-9,-8,-10,-54,-8,2,15
1526902159117817,9,5,7,18,32,71,-16,9
1526902159117817,-19,10,2,8,2,-76,-25,-24
1526902159126794,-2,0,-2,-2,-1,-9,18,-8
1526902159126794,0,3,0,2,-1,27,33,36
1526902159141753,-3,-10,-9,-16,-24,-11,3,-24
1526902159141753,-22,-10,-7,-12,1,16,-10,-3
1526902159143748,2,2,0,4,6,-8,-30,-37
1526902159143748,3,3,4,-1,19,35,7,-13
1526902159164692,-13,-7,-5,-1,0,12,6,2
1526902159164692,11,4,1,-1,-10,-49,-13,13
1526902159165690,-15,-8,-7,-3,-3,20,25,6
1526902159165690,4,-4,-4,-7,12,-27,6,-12
1526902159177657,-5,0,0,1,7,36,12,-2
1526902159177657,-1,-4,1,6,-8,11,-26,-22
1526902159186634,4,1,1,9,15,-44,22,-1
1526902159186634,1,4,-1,1,-17,-23,-27,-20
1526902159201593,8,-6,-5,-12,11,36,22,18
1526902159201593,-22,2,-1,-2,-1,11,18,-19
1526902159203588,21,-6,-6,-6,-36,12,-21,26
1526902159203588,-7,-11,-2,3,37,63,-50,-25
1526902159224532,20,2,3,4,-13,-53,-10,-12
1526902159224532,-2,4,2,8,21,-16,-1,-8
1526902159225529,8,-6,-5,-5,-12,44,-14,-1
1526902159225529,-7,5,1,-4,-4,-23,-3,3
1526902159237497,-5,-4,-3,-8,-18,-33,-43,-9
1526902159237497,10,-1,4,4,29,17,-23,2
1526902159246473,-9,-3,1,5,3,-4,1,-40
1526902159246473,10,-3,-2,1,-16,22,17,5
1526902159261433,-4,0,-2,1,29,21,2,14
1526902159261433,1,-1,-6,-17,-34,-52,4,-10
1526902159263428,-11,-2,-1,-12,-6,-20,-25,-7
1526902159263428,11,-5,-1,10,-15,3,25,-11
1526902159284372,2,-8,-9,-6,1,2,14,1
1526902159284372,8,-3,0,-1,-17,4,5,16
1526902159285370,0,-3,-2,-3,9,14,-13,-39
1526902159285370,-6,0,-2,-9,11,1,-3,13
1526902159298335,5,-1,-2,4,3,10,2,-6
1526902159298335,11,-3,-4,-7,-3,10,-2,8
1526902159307311,-2,-4,-5,-4,12,25,-18,-13
1526902159307311,-2,-2,1,2,-8,3,7,-3
1526902159321273,-14,1,3,5,8,-32,-17,-3
1526902159321273,12,-2,-1,2,7,51,16,10
1526902159323268,-24,-6,-4,-4,-11,-8,-1,2
1526902159323268,6,2,3,5,-9,-44,3,5
1526902159343215,-2,4,2,1,10,23,0,6
1526902159343215,-3,-1,-1,-8,-20,-53,18,-15
1526902159344212,2,3,3,7,28,27,2,15
1526902159344212,4,-4,-3,-4,-3,35,-5,-4
1526902159366153,-8,-1,0,3,-5,-15,14,-12
1526902159366153,8,0,1,-3,1,4,-14,5
1526902159373134,-23,-5,1,2,-28,6,6,-2
1526902159373134,10,3,0,-3,17,-38,-35,-8
1526902159380116,2,-1,-1,0,-13,30,-1,-3
1526902159380116,-10,4,-1,3,35,61,-12,-14
1526902159388094,3,-2,1,5,7,-20,-7,15
1526902159388094,-2,-1,0,1,-5,16,12,10
1526902159403054,-7,-2,-4,-1,2,-6,-2,-18
1526902159403054,10,-1,-2,-2,-10,-21,11,-1
1526902159404052,4,11,9,5,6,-8,3,15
1526902159404052,-7,-1,1,0,15,44,0,-1
1526902159425993,4,1,-2,-3,-6,5,16,16
1526902159425993,3,2,1,0,2,-4,1,10
1526902159426991,-2,-4,-4,3,-9,2,6,2
1526902159426991,11,0,1,7,7,-42,5,4
1526902159440953,-5,1,0,-5,12,-46,-22,0
1526902159440953,-7,2,2,0,-13,12,12,-5
1526902159441951,19,2,-3,-2,19,-1,8,12
1526902159441951,-3,-11,-4,-3,-12,-10,-13,-35
1526902159463892,-6,3,2,2,-7,-6,-5,13
1526902159463892,-2,-3,-2,-2,3,-8,-4,7
1526902159463892,-7,1,1,-5,-10,-27,8,-12
1526902159463892,1,-3,-1,0,-10,6,1,-9
1526902159485833,5,1,2,-2,24,42,18,7
1526902159485833,-5,-1,2,4,-10,-22,1,-2
1526902159486831,5,-2,0,0,-7,21,-22,-7
1526902159486831,-8,0,-3,0,1,-5,13,6
1526902159500793,0,3,0,2,-10,-24,3,-4
1526902159500793,-12,3,1,-5,-1,-32,21,7
1526902159501791,8,-7,-5,-9,5,6,3,5
1526902159501791,-2,-4,-2,6,14,10,-1,2
1526902159523732,3,6,5,3,17,5,-2,12
1526902159523732,-1,-4,-2,4,-2,-7,-5,-7
1526902159524729,9,2,0,0,3,-11,5,16
1526902159524729,1,-2,-3,-7,-6,11,-4,0
1526902159545673,-3,-2,-4,-4,-13,-8,-10,3
1526902159545673,-3,0,1,-2,-4,9,-10,-2
1526902159546671,3,-3,1,-4,-3,-2,4,8
1526902159546671,16,-3,-4,-3,-10,-2,-1,20
1526902159560633,-1,-4,-1,1,-4,-1,-1,-11
1526902159560633,5,1,0,-2,1,12,2,6
1526902159568612,9,9,4,1,-3,-11,-2,-7
1526902159568612,0,1,-1,1,4,-5,2,7
1526902159583572,5,0,-2,-3,-8,-7,4,-18
1526902159583572,7,-6,-4,-4,-4,16,12,0
1526902159584570,-4,-3,0,2,-3,30,-12,-9
1526902159584570,-10,-1,3,4,2,17,21,-8
1526902159606510,0,0,0,-3,-10,-21,12,6
1526902159606510,-7,-5,-5,-2,-4,54,-22,-2
1526902159606510,-13,2,-1,-11,25,33,12,4
1526902159606510,11,1,-3,2,-12,-6,-2,-2
1526902159620473,-3,-3,4,15,20,11,-3,-4
1526902159620473,7,3,1,4,6,-27,3,11
1526902159628452,-28,1,1,-2,-13,-18,-3,-8
1526902159628452,-1,-1,-3,-6,-10,3,-17,-7
1526902159643412,-5,0,0,-2,-1,4,4,5
1526902159643412,6,0,1,-2,-4,-12,-14,3
1526902159644409,12,1,0,4,1,-17,2,6
1526902159644409,1,-5,-3,-6,-6,6,-7,15
1526902159666350,-4,-9,-7,-8,-12,-13,5,-36
1526902159666350,-6,-5,-2,-2,5,59,10,5
1526902159666350,8,-5,-5,-3,-15,-29,-17,-2
1526902159666350,-13,12,8,6,11,-54,-4,-1
1526902159680313,4,-3,-5,-5,24,67,-17,9
1526902159680313,1,-5,-5,0,3,-24,-3,-16
1526902159688292,4,-2,0,1,-4,-6,8,6
1526902159688292,-3,-3,-3,-3,7,-6,11,-3
1526902159703252,0,2,-2,-2,-19,-5,-15,4
1526902159703252,-5,-4,-2,-7,-5,-7,-9,0
1526902159704250,1,4,2,5,4,0,-2,1
1526902159704250,3,-1,1,0,1,-12,-7,-3
1526902159726190,-22,-5,0,1,-4,23,-1,5
1526902159726190,0,6,0,-6,-2,-93,14,1
1526902159727188,1,-7,-3,-6,-13,88,-17,-3
1526902159727188,4,-1,-3,0,5,35,3,2
1526902159740153,-1,0,0,1,14,7,-11,-8
1526902159740153,-7,1,0,-8,-10,3,-17,-9
1526902159748132,-4,8,4,10,47,-17,6,5
1526902159748132,2,-12,-1,1,-5,-10,9,2
1526902159763092,4,-2,-4,-1,-3,-5,-2,18
1526902159763092,2,0,0,-6,-10,30,10,-1
1526902159764089,-3,-3,-4,1,-21,-33,8,-26
1526902159764089,-4,-2,-2,3,10,43,-11,-4
1526902159786030,3,-2,0,0,-3,-28,14,-7
1526902159786030,-6,-3,-2,-2,-15,8,-15,-9
1526902159787028,11,4,-2,-8,-8,10,38,12
1526902159787028,-23,-1,-3,-3,20,-3,-27,-17
1526902159799993,7,6,0,-3,-16,-2,11,9
1526902159799993,-11,-3,0,2,-3,58,-9,1
1526902159808969,10,-6,-2,-3,-4,-33,-16,1
1526902159808969,4,2,1,1,-29,-6,11,-2
1526902159823929,-5,6,1,-5,39,33,12,6
1526902159823929,-7,1,0,5,-10,-32,6,5
1526902159823929,-13,-3,-5,-4,8,32,-7,-5
1526902159823929,6,-1,-1,-3,-8,-2,19,3
1526902159845870,-6,-7,-4,-7,-28,-31,-26,-8
1526902159845870,6,5,1,-1,-9,-69,-1,4
1526902159846868,-3,0,1,2,4,-3,10,-1
1526902159846868,4,0,0,-3,11,-8,-7,-2
1526902159860830,4,0,0,0,-18,0,-6,-5
1526902159860830,-4,1,3,3,22,-5,4,-7
1526902159868809,6,-6,-4,-5,-23,-19,-22,12
1526902159868809,-3,-2,-4,-3,-14,-39,8,-1
1526902159883769,11,-10,-2,2,-2,45,4,7
1526902159883769,-1,-7,-5,0,-10,-4,-16,0
1526902159884767,2,4,2,-1,-29,-45,-10,9
1526902159884767,-4,-6,-2,0,6,26,4,-29
1526902159905710,-7,7,0,-1,1,-41,-1,-13
1526902159905710,5,3,0,1,9,42,13,13
1526902159906708,-2,-3,-2,-9,-11,-27,-5,-16
1526902159906708,-1,9,5,14,-43,-38,-8,10
1526902159920670,1,2,-1,-9,-4,-7,22,-1
1526902159920670,-9,-2,4,22,48,20,3,-3
1526902159928649,4,-4,-2,1,-14,-21,2,2
1526902159928649,-1,3,2,-5,-2,-12,2,-4
1526902159943609,-3,-1,-1,-3,-13,14,-15,15
1526902159943609,-4,7,-1,-8,-31,-71,32,16
1526902159944607,-8,-1,3,4,6,20,12,-16
1526902159944607,4,-5,-5,7,24,-35,2,14
1526902159965550,8,-1,-1,2,4,11,-16,-4
1526902159965550,11,-6,-9,-11,2,-9,-8,7
1526902159966548,4,-3,-1,-1,-12,-30,-4,4
1526902159966548,-17,0,2,-4,16,42,-11,-21
1526902159989486,15,-3,-6,-9,-11,-26,5,16
1526902159989486,3,5,5,18,24,25,1,8
1526902159990484,-3,5,4,15,23,18,-9,1
1526902159990484,12,-4,-3,-5,-10,31,-5,5
1526902160003449,-9,1,2,7,17,-16,-2,-3
1526902160003449,2,4,3,-3,-16,12,-13,-13
1526902160004447,-3,-10,-7,-12,0,45,1,12
1526902160004447,11,4,0,3,17,-57,-30,-12
1526902160026387,-13,-1,3,3,-13,3,-2,-18
1526902160026387,10,-4,-5,-23,11,-9,-1,-15
1526902160026387,-7,6,5,19,41,21,5,-5
1526902160026387,-5,-5,-4,0,2,24,6,0
1526902160049326,3,-4,-3,3,3,-50,0,15
1526902160049326,-13,-11,-6,-16,-42,-45,-11,-31
1526902160050324,15,1,0,10,39,24,-9,-2
1526902160050324,-11,-8,-7,-4,-11,32,11,-6
1526902160063289,6,10,4,-6,6,12,5,29
1526902160063289,7,-6,-6,-15,32,27,5,-3
1526902160064286,-12,-2,0,21,-42,-27,6,14
1526902160064286,-2,8,1,4,36,13,1,-7
1526902160086228,-6,1,2,5,-9,-11,-8,-21
1526902160086228,-3,0,1,3,-11,2,-15,3
1526902160087225,1,-6,-3,-16,4,-12,18,-2
1526902160087225,5,3,1,-9,-2,48,1,-3
1526902160108169,-13,-4,-2,-1,5,22,10,0
1526902160108169,3,-2,-1,10,7,25,-24,4
1526902160109167,5,-4,-4,-12,-1,-12,-9,12
1526902160109167,8,-10,-3,-5,-38,-54,8,0
1526902160123129,-9,-4,-9,-25,12,18,1,-5
1526902160123129,-5,2,5,1,16,-9,-5,6
1526902160124126,-9,-8,-9,-2,20,0,-2,-6
1526902160124126,2,7,5,11,-7,-2,7,12
1526902160146068,-10,-4,1,18,1,0,6,-4
1526902160146068,5,1,1,-1,-15,-39,-13,-7
1526902160147065,-6,-5,-4,-13,-12,15,0,-8
1526902160147065,12,-6,-5,-10,22,-4,-12,-7
1526902160168009,-13,8,6,6,-17,-15,-3,3
1526902160168009,1,3,1,-2,-7,-46,5,9
1526902160169006,16,10,3,-16,-33,13,-7,-12
1526902160169006,-8,-9,-14,-12,-15,-10,0,7
1526902160183966,12,-6,-3,-2,21,-22,7,23
1526902160183966,-10,11,16,38,30,37,15,-9
1526902160183966,25,-2,-1,7,-2,-11,-7,16
1526902160183966,-11,4,8,15,31,-16,10,17
1526902160205907,25,3,1,-2,-17,65,-2,-18
1526902160205907,-32,-11,-11,-6,-16,-19,-14,-2
1526902160206905,8,-9,-6,-11,-8,-21,2,-29
1526902160206905,-8,-5,-2,-11,-27,27,-7,22
1526902160228846,0,20,8,-1,-2,-23,0,-23
1526902160228846,8,-13,-7,-21,-20,56,-17,28
1526902160228846,1,-2,1,10,37,4,-9,-10
1526902160228846,-17,-2,1,17,27,-9,-5,7
1526902160243806,11,-3,3,10,-13,-6,21,7
1526902160243806,12,0,0,-8,-2,31,-26,-9
1526902160243806,-27,-1,-3,-9,1,-65,-6,1
1526902160243806,14,7,2,3,-7,60,11,-1
1526902160265747,-7,-2,-1,-12,4,9,0,3
1526902160265747,4,4,-1,1,3,9,20,-7
1526902160266745,-12,-6,-3,1,-12,-16,4,4
1526902160266745,3,-7,-1,-12,-10,-21,-1,-5
1526902160288686,-12,-9,-8,-25,-61,-54,-16,2
1526902160288686,-10,-9,1,12,31,57,11,-7
1526902160289684,21,0,0,2,17,19,4,8
1526902160289684,-10,-14,-9,8,-33,7,8,-4
1526902160303646,7,-6,-7,2,5,-17,-13,-42
1526902160303646,-8,-3,-6,2,-28,-28,-4,-8
1526902160304644,21,6,0,-10,-28,9,-5,-8
1526902160304644,1,11,5,-13,23,-33,-6,-11
1526902160325587,-15,-2,2,0,14,2,5,11
1526902160325587,12,-2,-2,-1,3,-9,16,-9
1526902160326585,-13,-5,-3,-1,-2,22,-6,4
1526902160326585,6,0,-5,-38,-88,-64,-44,-1
1526902160348526,-10,-7,3,43,46,2,5,-4
1526902160348526,-29,10,5,30,61,43,23,4
1526902160349524,11,-6,-1,16,26,-3,-1,20
1526902160349524,11,-4,-5,-22,-28,-7,-3,-15
1526902160363486,-4,-3,0,-13,-93,-7,14,17
1526902160363486,25,4,9,30,23,-21,-11,20
1526902160364484,-21,-5,-1,9,-4,55,5,-44
1526902160364484,-2,-6,-7,-5,22,24,0,-1
1526902160386425,-18,-3,-6,-20,-99,-109,-29,-9
1526902160386425,-7,6,2,-13,74,36,17,0
1526902160386425,8,5,4,0,26,42,3,40
1526902160386425,-1,-6,-5,0,-87,-72,-15,-22
1526902160408366,4,8,10,6,113,97,14,11
1526902160408366,0,-13,-17,-7,-124,12,-6,-11
1526902160409364,-6,25,15,10,111,106,42,23
1526902160409364,-12,-3,0,11,44,8,-15,-13
1526902160424324,1,-6,-5,27,-50,-87,-72,-38
1526902160424324,16,-4,3,-24,-39,-68,14,40
1526902160431305,-3,-12,-8,-19,-70,-34,-25,-41
1526902160431305,7,5,2,4,6,37,27,-4
1526902160446265,-25,-16,-8,2,74,91,10,6
1526902160446265,7,13,2,-4,-8,7,-17,-17
1526902160447262,-3,-10,-8,-17,-38,-90,-20,1
1526902160447262,10,16,14,19,29,32,15,-3
1526902160468206,3,-7,-11,-28,-38,-10,1,-1
1526902160468206,-8,1,0,-27,-103,-82,5,-15
1526902160469204,-5,0,13,41,91,17,-6,26
1526902160469204,9,-3,-10,-6,-32,51,5,12
1526902160483166,12,12,10,25,47,-3,20,15
1526902160483166,-12,-12,-14,-23,-2,-18,-2,-7
1526902160484164,0,-3,-7,-33,-98,-55,-3,2
1526902160484164,5,-7,1,-5,-34,-26,-18,11
1526902160506105,3,-1,-1,25,87,83,14,10
1526902160506105,5,-22,-10,-9,37,9,-26,-34
1526902160507102,-29,0,1,19,18,-38,24,-20
1526902160507102,-14,-5,-3,1,8,-41,-11,18
1526902160528046,9,13,6,-4,-36,15,10,-17
1526902160528046,3,9,5,10,-9,-14,22,70
1526902160529043,2,-11,-7,-10,-41,-34,-10,-12
1526902160529043,-6,-6,-2,2,44,40,-34,-16
1526902160543006,-3,1,-5,-23,-33,-71,-5,13
1526902160543006,-7,1,4,9,9,32,5,-5
1526902160544003,17,-1,-1,-13,-25,-5,-15,-13
1526902160544003,-11,1,-1,-5,-3,-11,-3,1
1526902160565945,5,-7,-10,-28,-41,37,-13,-9
1526902160565945,15,11,23,70,78,24,-2,10
1526902160566942,-6,1,-6,-18,-55,28,18,0
1526902160566942,-1,7,2,3,65,89,-7,-14
1526902160588883,-11,6,4,25,39,12,42,17
1526902160588883,4,-2,-4,-13,-38,8,-7,-8
1526902160588883,16,-4,1,12,19,13,0,21
1526902160588883,-17,-13,-6,-12,-10,-6,0,-18
1526902160603843,4,2,-6,-21,-39,-92,-26,-1
1526902160603843,-2,2,-3,-30,-82,23,13,-3
1526902160610825,1,12,16,50,111,-35,24,-5
1526902160610825,12,0,5,23,-27,4,10,7
1526902160625784,1,1,-1,-2,5,10,-14,12
1526902160625784,-3,-4,-3,-8,1,-9,-11,-30
1526902160626782,8,-3,-8,-24,-40,-31,-19,19
1526902160626782,-7,8,5,10,8,6,34,20
1526902160648723,10,6,2,6,40,49,14,-17
1526902160648723,-21,-13,-10,-20,17,1,2,2
1526902160649721,12,3,-1,5,-36,-3,-7,-4
1526902160649721,6,-3,-3,-16,8,-44,8,-18
1526902160662686,-7,-15,-5,-15,-18,70,2,12
1526902160662686,-1,0,-2,-7,-9,-26,2,3
1526902160670664,-6,-2,-3,-10,-108,-26,-11,-11
1526902160670664,-8,12,14,47,118,-43,26,21
1526902160685625,1,-2,-6,-36,-70,-31,-29,-14
1526902160685625,-1,0,6,38,40,-10,-2,-17
1526902160686622,-4,-12,-7,-3,-8,3,9,-1
1526902160686622,17,3,-9,-24,-40,20,-6,2
1526902160708563,-3,8,3,0,-7,-10,-3,-4
1526902160708563,-14,-10,-1,4,6,1,4,7
1526902160709561,8,7,2,-9,11,31,-15,-17
1526902160709561,-15,2,-1,-6,-6,-52,-6,-3
1526902160722526,4,-2,-3,5,-15,-47,-2,21
1526902160722526,5,-5,-3,-12,16,-41,-35,-9
1526902160731502,1,-7,-5,-9,-41,54,-28,-14
1526902160731502,10,14,17,59,98,98,41,14
1526902160746462,-19,0,1,15,24,60,1,-20
1526902160746462,0,-5,-16,-36,-5,-89,-30,-12
1526902160746462,-1,-6,1,20,-24,80,-3,-1
1526902160746462,3,-7,-6,-19,-74,-68,-19,-11
1526902160768403,-5,-2,1,10,14,79,25,7
1526902160768403,7,0,2,0,-25,-23,0,-6
1526902160769401,9,1,-5,-9,45,-23,7,39
1526902160769401,11,3,-4,-17,-5,54,43,3
1526902160782366,-5,4,11,25,49,-43,-11,-14
1526902160782366,-2,-1,-2,-7,-15,32,7,-4
1526902160791342,11,0,-3,-12,-11,-62,3,-9
1526902160791342,-8,-10,-8,-16,-31,24,-22,-1
1526902160806302,-1,12,11,20,60,84,17,10
1526902160806302,12,3,6,23,39,28,26,25
1526902160807299,-26,-4,-4,9,44,-14,-7,-31
1526902160807299,7,-18,-21,-37,-89,-66,-30,0
1526902160828243,-1,6,9,3,-78,-61,-4,-11
1526902160828243,-7,9,6,14,31,57,10,13
1526902160829241,-5,-6,1,14,41,31,-4,-8
1526902160829241,-1,-8,-4,-8,-17,-24,-60,-11
1526902160843203,5,2,-4,-24,-1,-32,-13,-4
1526902160843203,9,4,4,4,-24,45,9,50
1526902160851182,-1,3,5,8,40,15,-30,-4
1526902160851182,3,-3,-4,-6,11,12,6,-2
1526902160866142,-2,-11,-14,-30,43,10,-22,-5
1526902160866142,-5,-2,3,17,-56,-84,-8,12
1526902160867139,6,-1,-7,-18,22,46,13,-10
1526902160867139,-25,2,4,-4,-32,2,6,-28
1526902160888083,7,-2,-1,-7,-6,7,7,23
1526902160888083,6,8,0,4,51,57,23,34
1526902160889081,-24,-10,-2,-9,11,38,21,-11
1526902160889081,10,6,3,-5,-12,16,10,-22
1526902160903043,-16,-6,-5,-3,-60,-47,22,11
1526902160903043,-4,2,-2,-9,49,30,-5,-28
1526902160911022,5,3,0,-4,-45,-57,-1,7
1526902160911022,2,-5,-4,-13,-16,-16,4,14
1526902160925981,-4,5,4,3,42,21,10,-7
1526902160925981,-5,5,6,22,-4,26,-21,-13
1526902160926979,-3,-8,-4,-11,-17,15,17,1
1526902160926979,3,-6,-8,3,-21,-55,-3,1
1526902160948920,10,1,0,-1,-75,-38,-10,7
1526902160948920,-15,-9,-7,-4,29,-83,-7,-23
1526902160948920,8,4,1,2,-13,-18,-13,0
1526902160948920,-2,2,3,8,42,103,30,10
1526902160962883,4,2,-3,-1,-11,-126,-8,27
1526902160962883,10,-2,0,-16,-61,40,6,-30
1526902160970862,5,-6,-6,-6,19,-28,0,23
1526902160970862,-5,0,2,26,15,35,4,8
1526902160985822,1,0,1,12,36,8,-5,6
1526902160985822,-17,-9,-5,-3,3,-25,-17,-21
1526902160986819,4,0,-5,-11,-31,-19,-10,-4
1526902160986819,2,1,-3,-18,-16,-51,-20,13
1526902161008760,-19,-7,-1,7,38,32,-4,-28
1526902161008760,12,-1,-3,-6,-24,-1,6,39
1526902161009758,17,-4,-5,-9,9,-17,-10,-9
1526902161009758,-16,6,-2,-9,7,-15,-6,2
1526902161022723,12,-3,0,6,-18,20,-14,15
1526902161022723,3,0,-2,-8,-3,-14,10,-12
1526902161030701,-12,1,1,-7,-21,-9,-21,-4
1526902161030701,4,0,1,4,-1,-49,-26,-4
1526902161045662,6,1,0,4,-12,-21,9,0
1526902161045662,-4,-3,-4,0,-16,16,-16,-18
1526902161046659,0,0,-1,4,9,39,15,-10
1526902161046659,9,8,9,5,-4,-21,-5,6
1526902161068600,-1,3,1,1,-33,-11,11,-15
1526902161068600,3,-3,-3,-1,9,-10,-8,-5
1526902161069598,4,1,3,9,22,36,-4,-9
1526902161069598,-3,4,5,9,31,-30,26,20
1526902161091539,10,0,-6,-18,-20,-12,-7,-13
1526902161091539,5,2,2,5,39,30,-20,-2
1526902161092536,-1,-4,0,5,-11,-41,6,1
1526902161092536,0,-6,-6,-4,2,-37,-7,-15
1526902161106499,-1,1,-1,-1,20,51,3,9
1526902161106499,-4,3,3,2,-23,2,8,-1
1526902161106499,1,0,-1,-5,-15,-19,7,24
1526902161106499,-9,-6,-6,-5,2,16,2,-6
1526902161128440,-5,1,-3,-7,19,3,-9,-6
1526902161128440,-4,0,5,-2,-51,-16,20,7
1526902161129438,5,6,8,16,48,-6,-7,6
1526902161129438,2,1,-1,1,-5,33,12,5
1526902161151379,2,-8,-7,-16,-41,-55,-13,-6
1526902161151379,5,-13,-3,2,14,10,9,-9
1526902161152377,4,-2,-5,-12,-17,-11,-13,11
1526902161152377,-7,1,-1,-11,-68,-46,2,-6
1526902161166339,-1,0,4,24,47,19,20,1
1526902161166339,3,-1,-4,-10,10,4,0,-6
1526902161166339,-4,-3,0,-3,-35,-13,-2,-14
1526902161166339,-3,-11,-7,-8,-5,23,-5,6
1526902161188280,-14,3,7,13,40,10,-2,-2
1526902161188280,5,-2,-1,-6,-17,12,10,9
1526902161189278,-8,4,1,9,14,-21,15,-6
1526902161189278,-9,2,5,10,33,35,-2,-1
1526902161211219,9,-9,-5,-10,-3,12,3,5
1526902161211219,-1,4,-1,-5,9,-7,-2,11
1526902161212217,-1,-5,-3,-23,-31,-4,-8,-8
1526902161212217,10,0,3,21,6,1,11,6
1526902161226179,3,5,2,9,44,55,8,6
1526902161226179,-8,-7,-3,-13,-1,-20,-22,-15
1526902161227176,-1,-6,-5,-21,-67,-13,-4,-1
1526902161227176,2,10,5,17,30,17,22,-3
1526902161248120,-3,-5,-3,-3,3,11,-42,-5
1526902161248120,-1,0,-6,-9,-10,-9,22,-4
1526902161249117,0,-1,2,20,20,31,9,-1
1526902161249117,-11,-3,-6,-15,-47,-50,-9,-2
1526902161271059,4,2,2,-11,24,-6,3,1
1526902161271059,5,1,-1,2,-8,9,3,8
1526902161272056,-21,-11,-4,-4,-4,-53,-20,-58
1526902161272056,-6,-2,1,9,13,27,5,5
1526902161286019,3,-2,-4,-11,-42,-25,4,-5
1526902161286019,1,4,-1,-6,21,6,-19,4
1526902161287016,3,4,1,8,17,-9,5,9
1526902161287016,-14,-9,-7,-11,27,21,-11,-8
1526902161308958,1,1,0,0,-36,-22,5,13
1526902161308958,9,-5,-2,4,-17,-5,-17,-38
1526902161308958,-5,5,1,1,8,-3,2,10
1526902161308958,-2,-3,1,-4,14,-2,11,2
1526902161330899,0,-1,-3,-4,-30,-9,-6,11
1526902161330899,-5,5,4,4,11,6,12,6
1526902161331897,3,-2,-4,0,-33,-3,4,4
1526902161331897,0,-1,-2,-5,22,1,-14,-5
1526902161345859,-9,2,4,2,4,-11,15,4
1526902161345859,5,-3,0,2,-22,10,-19,9
1526902161346857,11,-5,1,8,13,-2,-3,10
1526902161346857,-16,4,2,5,-13,-3,17,-15
1526902161368797,4,-2,-3,-4,-8,-3,-2,-7
1526902161368797,0,-1,1,3,-20,-2,1,-11
1526902161369795,4,0,1,1,27,20,23,36
1526902161369795,11,-2,-1,2,-26,2,-14,5
1526902161390739,-9,-2,-3,-6,11,-5,-6,-16
1526902161390739,-4,-2,1,5,-14,-45,-7,-3
1526902161391736,2,1,-6,-13,24,70,26,12
1526902161391736,6,1,7,20,-20,-34,-1,-14
1526902161405699,-10,5,4,11,20,19,7,-3
1526902161405699,-3,-3,-4,-8,18,19,14,13
1526902161406697,2,0,2,-2,-16,-26,13,2
1526902161406697,1,2,-2,3,-4,15,-23,-7
1526902161428637,-6,-3,-6,-8,-19,-7,-15,-11
1526902161428637,2,-2,-2,-1,6,-21,27,15
1526902161429635,2,-3,-2,3,7,-2,-14,-11
1526902161429635,7,2,-1,-8,-13,13,4,1
1526902161450579,-11,-2,0,5,5,-21,-7,8
1526902161450579,8,0,-1,-4,9,-2,3,4
1526902161451577,-12,-5,-5,2,22,9,-2,-17
1526902161451577,14,-2,-4,-22,-16,-20,-8,8
1526902161465539,-9,6,7,20,30,30,18,11
1526902161465539,-4,-1,-3,-3,-2,-73,-22,-6
1526902161466536,3,-1,3,3,5,70,-6,-5
1526902161466536,-1,-3,-5,-6,9,8,-1,-5
1526902161488477,-1,-5,-5,-15,-33,-17,-3,-10
1526902161488477,-1,-2,3,6,-13,-6,0,3
1526902161489475,4,-2,-2,-8,-2,-19,9,-2
1526902161489475,-3,-2,-4,-1,22,-2,-5,0
1526902161511416,0,-2,0,-10,-22,0,7,-4
1526902161511416,-2,-3,-3,1,4,12,-8,-7
1526902161511416,-4,-4,0,-2,-21,-28,-8,2
1526902161511416,-6,-6,-3,-2,6,32,0,-2
1526902161526376,2,0,-2,1,3,-31,7,-1
1526902161526376,-6,-5,-4,-6,9,33,-2,-7
1526902161526376,6,3,1,-3,-1,-1,-8,-2
1526902161526376,-12,2,-4,-5,15,-3,5,7
1526902161548318,1,-3,-2,-5,-80,-29,-5,0
1526902161548318,-4,13,11,24,103,35,2,9
1526902161549315,-3,-7,-5,0,-29,-18,-10,-11
1526902161549315,-1,8,3,0,0,-56,4,4
1526902161571256,1,-4,-2,6,13,55,-6,2
1526902161571256,12,-8,-10,-18,-31,10,-21,-3
1526902161572254,-19,1,1,3,-1,-10,7,-4
1526902161572254,6,4,-1,1,0,-10,-4,-18
1526902161586216,3,2,-2,-2,12,-5,-4,9
1526902161586216,-5,-9,0,-3,-23,-6,-2,1
1526902161587213,8,-1,-5,-2,11,-11,-8,-6
1526902161587213,-3,-1,-1,2,-27,3,-6,1
1526902161608157,3,-5,-1,-1,15,7,-5,2
1526902161608157,3,3,0,-5,-11,31,4,-10
1526902161609155,3,-4,-3,-6,-16,-25,-3,1
1526902161609155,-2,1,4,4,4,15,6,4
1526902161631096,-1,3,0,-3,15,11,-4,-5
1526902161631096,-2,-7,-5,-9,-14,-15,-3,-3
1526902161632094,-4,1,1,3,-3,-7,-4,3
1526902161632094,4,-5,-2,-6,13,24,-14,6
1526902161646056,3,-1,2,-5,-74,-28,-11,-10
1526902161646056,-17,-1,1,12,54,0,21,3
1526902161647054,11,-1,-3,-15,-15,26,-26,-7
1526902161647054,-23,-9,-2,8,-14,-32,-4,-6
1526902161668994,1,-1,-3,-4,5,-25,0,1
1526902161668994,3,-3,-4,-14,-14,7,0,-6
1526902161668994,-3,-3,-3,0,-7,-7,-2,0
1526902161668994,-6,2,1,8,12,12,11,4
1526902161690936,8,2,0,2,19,6,2,-4
1526902161690936,-2,-3,-2,-6,-36,-41,-17,-6
1526902161691933,2,0,1,8,26,-9,10,1
1526902161691933,6,1,0,1,2,9,5,1
1526902161705896,-3,2,1,0,22,1,-8,-6
1526902161705896,1,2,0,0,-5,4,6,-1
1526902161706893,2,3,-2,-4,-7,-8,-4,-1
1526902161706893,10,6,1,0,7,19,33,16
1526902161728835,-10,2,2,1,4,-2,-45,-3
1526902161728835,-2,-4,-1,3,14,26,10,-9
1526902161728835,1,-1,-3,-1,-13,-2,-13,-8
1526902161728835,-6,2,3,6,21,-18,4,5
1526902161750776,-8,1,-1,4,64,58,30,7
1526902161750776,10,-1,1,-8,-29,20,-11,5
1526902161751774,-1,2,-1,7,44,0,14,3
1526902161751774,-8,2,3,3,-13,-5,-15,-2
1526902161765736,19,-3,-3,-5,-26,-25,-27,8
1526902161765736,-30,-3,2,3,7,10,5,-21
1526902161773714,7,-5,-4,2,-13,3,4,-4
1526902161773714,6,-4,-5,-9,-18,-1,-9,-4
1526902161788674,-3,1,1,-1,7,-3,12,1
1526902161788674,8,2,-3,-6,-3,-12,1,8
1526902161789672,0,-5,2,3,-11,-1,-5,3
1526902161789672,-6,-4,-2,-4,27,-22,-2,1
1526902161810616,12,0,-3,6,-12,2,4,-7
1526902161810616,11,6,2,1,6,8,0,5
1526902161811613,-5,1,-2,-8,-31,-15,7,-1
1526902161811613,7,-4,-2,-5,8,7,1,4
1526902161825576,11,2,2,-6,9,11,1,-2
1526902161825576,-16,-4,-2,0,-4,-39,-3,-7
1526902161833555,-3,6,1,-11,32,14,4,2
1526902161833555,3,-6,-1,0,-34,3,-6,-9
1526902161848515,-3,-4,-1,6,20,-2,13,5
1526902161848515,-3,-7,-1,1,-8,-17,7,-5
1526902161849512,-5,-8,-9,-13,-16,-30,-3,2
1526902161849512,0,2,2,4,-4,37,-5,0
1526902161871453,-13,0,2,12,11,1,10,-4
1526902161871453,14,-4,-7,-16,-27,-2,-6,5
1526902161871453,-7,3,6,27,70,47,7,-1
1526902161871453,5,-3,-3,-1,-3,-12,-14,-4
1526902161885416,-6,-6,-4,-6,-18,-52,0,1
1526902161885416,14,-2,-4,-3,-1,16,-15,-4
1526902161893394,0,3,1,0,-22,-12,-4,1
1526902161893394,-2,3,2,-6,3,-41,-3,2
1526902161908354,-9,-2,2,3,-10,3,3,-2
1526902161908354,0,-12,-7,-6,-12,-5,-6,0
1526902161909352,-6,2,0,-5,-6,15,10,-1
1526902161909352,-1,8,1,8,23,-20,3,6
1526902161931293,3,-5,0,-13,-37,-18,-12,-9
1526902161931293,0,-1,2,18,51,5,5,-12
1526902161932291,4,0,-2,-3,-25,-23,3,5
1526902161932291,-9,-2,-4,-8,-5,16,5,-2
1526902161945256,5,1,4,6,6,12,8,3
1526902161945256,8,1,0,2,-14,11,4,15
1526902161953235,-6,4,1,5,1,0,-10,-5
1526902161953235,-3,4,1,-1,-9,-4,1,-10
1526902161968194,0,-2,-5,-8,2,22,3,-5
1526902161968194,2,3,2,-1,13,-17,6,3
1526902161969192,3,-7,-3,0,4,0,-16,-1
1526902161969192,-5,4,2,-6,-6,9,-5,-5
1526902161991134,-1,-6,-6,-2,-4,-10,-7,-7
1526902161991134,-13,-3,-3,-5,-8,0,-15,-2
1526902161992131,8,-6,-1,-2,-10,-16,13,-4
1526902161992131,-2,-2,-1,-9,-6,5,-4,5
1526902162005096,8,5,2,12,-13,-13,-15,-3
1526902162005096,-2,-6,-7,-29,-17,61,6,-2
1526902162013074,-8,1,-1,8,46,33,-11,-4
1526902162013074,-3,-5,-2,3,-3,10,1,-3
1526902162028034,10,-2,0,-1,11,-13,10,2
1526902162028034,-11,-8,-9,-6,-25,-21,-18,-7
1526902162029032,-9,5,5,9,-8,-9,4,-2
1526902162029032,7,5,0,4,16,20,10,6
1526902162050973,-5,-6,-4,-8,-3,8,-3,-7
1526902162050973,11,7,4,9,10,-19,5,-7
1526902162051971,0,-4,-5,-7,-7,4,7,4
1526902162051971,-3,-3,-1,5,-20,-38,-13,-4
1526902162064936,0,4,3,-2,31,75,4,-6
1526902162064936,10,1,3,16,1,-6,-1,-1
1526902162073912,-13,-5,-4,1,2,-21,-3,3
1526902162073912,-3,-9,-3,-7,-20,13,7,-22
1526902162088871,-9,-3,-2,-5,23,-79,-22,-4
1526902162088871,3,7,9,12,-15,27,9,27
1526902162088871,4,6,4,8,19,17,26,-9
1526902162088871,6,-1,-1,6,24,-2,0,12
1526902162110813,-19,-2,-3,0,-8,-3,-9,-3
1526902162110813,-1,6,2,5,5,-22,3,3
1526902162111810,-1,-9,-6,-13,-32,-29,-1,-4
1526902162111810,-1,-5,-3,-11,-6,2,-2,2
1526902162125773,12,0,1,6,0,15,12,11
1526902162125773,2,-8,-7,-21,-1,-14,-8,-7
1526902162133752,5,-2,-4,-6,-26,-1,-13,-2
1526902162133752,-13,7,1,11,20,-4,5,-7
1526902162148712,0,9,4,5,22,5,24,32
1526902162148712,-13,-2,3,10,24,-81,-5,-8
1526902162149709,6,-1,-2,-8,-9,28,-1,-3
1526902162149709,6,-1,-2,4,13,-18,-1,5
1526902162170653,-2,-1,-4,-10,-22,-39,6,3
1526902162170653,7,2,3,0,1,67,8,-1
1526902162171651,-4,0,2,5,-17,4,-2,6
1526902162171651,3,-2,-6,-17,13,-29,-12,1
1526902162194589,-8,9,6,5,42,48,10,-6
1526902162194589,10,-4,-3,7,-11,-32,-19,-9
1526902162194589,1,-5,-2,-8,-26,-24,-1,-27
1526902162194589,-1,2,-4,-4,-13,25,8,4
1526902162208552,-2,-4,1,-8,-35,-39,-2,-7
1526902162208552,-2,-7,-2,3,35,41,16,8
1526902162209549,2,9,6,2,54,19,13,14
1526902162209549,0,2,2,1,-41,-29,-7,-2
1526902162231490,-7,1,1,13,2,34,1,-8
1526902162231490,1,-1,-4,5,-19,3,-1,1
1526902162231490,5,-5,-5,-7,-15,-8,-33,-1
1526902162231490,-11,3,2,2,31,-50,-8,-3
1526902162254429,6,-5,-3,-10,-6,34,4,-4
1526902162254429,-2,1,-3,-6,16,8,22,1
1526902162255427,-8,-1,-4,-26,1,-27,-3,0
1526902162255427,7,-7,2,8,-56,-39,0,2
1526902162268392,-2,-9,-8,-4,-4,71,-31,-3
1526902162268392,-1,3,4,23,18,-25,4,-6
1526902162269389,5,1,-2,-2,-25,-35,8,2
1526902162269389,-5,3,-1,-18,-33,10,16,4
1526902162291330,2,-7,0,-4,5,-31,1,-4
1526902162291330,0,-7,-7,-23,-33,-33,-7,-7
1526902162291330,4,-2,0,18,12,87,0,0
1526902162291330,-3,-1,-4,-3,-16,23,-7,-4
1526902162313272,-1,0,-1,-2,6,-10,9,-5
1526902162313272,-1,0,-6,-14,-14,-16,-23,-2
1526902162314269,-1,-3,0,14,-5,-34,20,2
1526902162314269,-4,-1,-1,-4,28,46,-1,-3
1526902162328232,5,0,-2,-11,-91,-78,2,7
1526902162328232,-14,11,11,19,87,13,12,9
1526902162329229,6,-4,-5,-6,7,60,-7,1
1526902162329229,3,2,-1,3,7,13,-9,-6
1526902162351170,-5,-2,-3,-2,-9,-25,-9,-2
1526902162351170,5,-4,1,3,-36,-16,-10,-4
1526902162352168,-4,6,4,2,4,-40,1,1
1526902162352168,3,-1,-3,2,6,16,-1,6
1526902162373112,-5,4,0,8,39,-6,-6,-8
1526902162373112,-1,-4,-8,-24,-55,5,-3,-3
1526902162374109,-2,-2,-1,5,41,72,-5,-5
1526902162374109,7,-2,-3,0,-20,-17,10,-10
1526902162388071,-2,8,12,32,-15,16,-13,20
1526902162388071,2,-6,-3,3,19,26,-9,-4
1526902162389069,1,-2,-2,-2,-17,-36,-6,1
1526902162389069,-9,-1,-3,-7,-17,-19,-9,2
1526902162411010,-11,0,0,-3,9,12,24,-4
1526902162411010,13,-3,-5,-12,-6,68,-23,16
1526902162412008,-9,3,3,4,0,-12,1,-1
1526902162412008,2,-3,1,12,34,9,-4,-5
1526902162433949,5,-2,-3,-1,-1,21,-1,-26
1526902162433949,-17,-2,-6,-19,-59,-16,36,3
1526902162433949,0,12,3,-6,88,-25,3,34
1526902162433949,-5,4,6,18,13,33,11,-6
1526902162448909,3,7,2,8,45,4,7,20
1526902162448909,-2,-6,0,8,-41,-22,4,-19
1526902162448909,3,-2,-2,-1,-12,4,21,1
1526902162448909,-9,1,-2,-4,19,-15,13,3
1526902162470850,1,-1,2,-8,-13,5,-13,10
1526902162470850,2,-1,-2,1,25,-21,-2,6
1526902162471848,-3,1,0,-2,-31,-8,-7,-11
1526902162471848,1,0,-2,-4,-1,6,-11,1
1526902162493789,-2,-1,-3,2,-7,-58,-2,-16
1526902162493789,2,-4,-3,-8,29,75,-8,3
1526902162494786,11,-6,-3,-19,-73,-72,-10,-1
1526902162494786,-6,4,3,12,3,0,27,10
1526902162508749,1,-7,-5,-7,21,38,-26,-7
1526902162508749,3,-4,0,-23,-44,53,-18,-20
1526902162509747,-12,5,6,46,56,61,-73,-9
1526902162509747,8,1,0,-6,-10,-24,-16,6
1526902162530690,-5,1,2,9,12,49,17,-1
1526902162530690,4,6,6,7,-23,57,-2,11
1526902162531688,-5,0,-1,-2,61,-69,46,0
1526902162531688,-1,-7,-6,-13,-38,-25,-4,-9
1526902162553629,0,-4,0,0,-4,48,-2,-2
1526902162553629,-1,0,-2,-10,2,10,8,2
1526902162554626,-1,-4,-1,6,-4,1,6,-1
1526902162554626,-2,0,1,0,7,24,2,1
1526902162568589,0,-3,-3,-9,-12,-51,7,1
1526902162568589,-4,-3,-5,1,8,-46,-5,-16
1526902162569586,5,-8,-5,-22,-29,15,-5,14
1526902162569586,-8,2,-1,-3,11,-22,7,7
1526902162591528,-2,-3,-3,-1,6,29,5,-16
1526902162591528,0,-2,0,12,-10,5,-3,-8
1526902162591528,8,-6,-2,1,24,-1,-31,14
1526902162591528,-8,-3,-1,2,0,-22,-4,-26
1526902162613469,-1,3,-1,-15,3,21,-12,18
1526902162613469,2,-4,-1,19,38,-50,4,0
1526902162614466,5,3,-2,-3,-29,22,18,-2
1526902162614466,3,-2,-1,-3,2,-46,-33,9
1526902162628429,4,-4,0,-8,-21,19,10,-2
1526902162628429,-5,3,5,6,32,-42,24,3
1526902162629426,-3,2,0,12,33,73,-9,-18
1526902162629426,8,-13,-9,-22,-51,-38,-12,-11
1526902162651367,-6,0,5,30,55,31,4,-17
1526902162651367,4,5,2,-10,28,-6,1,28
1526902162651367,6,-2,-3,-6,-41,-9,2,-4
1526902162651367,1,4,-1,-2,-1,14,10,12
1526902162673309,-5,0,0,10,37,-7,4,-13
1526902162673309,1,-4,-3,-9,-23,39,13,-1
1526902162674306,2,-4,-4,-15,-23,9,-8,-9
1526902162674306,-5,7,9,17,40,68,-21,10
1526902162688269,13,2,-3,-9,-37,-48,-11,16
1526902162688269,-3,-2,-2,6,-22,-55,-21,-8
1526902162689266,-4,0,-1,-3,38,-39,14,-13
1526902162689266,1,7,1,9,29,36,22,24
1526902162711207,-2,-11,-12,-42,-45,-74,-45,-8
1526902162711207,0,1,13,37,37,56,15,-6
1526902162712206,-4,-5,-6,-19,-57,12,-9,15
1526902162712206,-3,3,3,22,38,36,17,-4
1526902162733149,-5,0,-3,-18,-35,-43,-31,-7
1526902162733149,6,0,1,-6,8,-51,-9,-7
1526902162734146,-1,-8,-4,3,-39,-30,-3,-1
1526902162734146,-1,-8,-10,-18,18,26,-59,-12
1526902162748109,-13,3,2,10,-21,-2,28,4
1526902162748109,12,-8,-5,-6,-48,22,7,1
1526902162749106,-5,6,5,18,53,-11,8,-16
1526902162749106,-3,-2,-2,-4,-16,-2,11,-8
1526902162771047,3,0,-2,-6,-26,-22,14,9
1526902162771047,-9,-4,-6,-14,-14,-16,-23,-10
1526902162772045,-8,8,13,22,9,10,7,-6
1526902162772045,8,-4,-2,-14,-16,3,-11,-4
1526902162793986,0,-1,4,12,6,19,17,18
1526902162793986,-2,-2,-5,-10,-8,-32,13,-1
1526902162793986,2,1,-1,-6,-8,4,30,12
1526902162793986,-16,7,2,4,-14,-90,17,-20
1526902162808946,4,-8,-10,-27,-13,118,-17,-4
1526902162808946,-7,12,12,34,63,-45,-7,-1
1526902162808946,15,-5,-5,-7,7,13,11,31
1526902162808946,-6,-2,1,7,-13,5,2,-11
1526902162830887,0,6,2,-4,-32,-4,-8,-13
1526902162830887,-8,-3,-9,-16,21,-46,-20,-12
1526902162831885,9,-7,-6,-22,-23,22,-20,5
1526902162831885,-7,0,3,14,-6,-34,27,11
1526902162853826,0,-4,1,7,43,-2,9,5
1526902162853826,8,-3,-2,-11,-18,-7,-2,-13
1526902162854823,-4,-2,-3,6,-9,-20,-8,-6
1526902162854823,-2,-4,-6,-28,7,25,6,4
1526902162868786,-13,14,18,59,84,-47,17,10
1526902162868786,9,0,-2,8,0,9,14,17
1526902162869784,-1,-6,-8,-9,-6,-23,-10,-12
1526902162869784,8,6,-2,-11,-31,0,-1,6
1526902162890728,-6,1,-4,-5,40,78,24,0
1526902162890728,8,-4,-2,-14,-23,-55,-6,32
1526902162891725,-8,-4,-1,9,-6,-15,13,-21
1526902162891725,-1,3,-3,-6,-21,37,6,9
1526902162913666,9,-4,-2,-6,23,-16,-11,-2
1526902162913666,-2,1,0,-5,-27,17,17,-4
1526902162914664,-6,-9,-6,-2,7,13,-30,-19
1526902162914664,-1,-3,-3,-8,10,30,10,-2
1526902162927629,-6,-2,2,24,6,-90,-15,-1
1526902162927629,6,-6,0,12,11,-5,3,4
1526902162935607,-10,2,1,-1,-12,1,19,-10
1526902162935607,0,-6,4,19,34,10,3,-4
1526902162950567,9,-9,-9,-17,-57,-18,-6,-5
1526902162950567,1,-2,-3,-1,3,42,-45,-16
1526902162951565,-4,0,-1,-14,-21,-75,-11,3
1526902162951565,2,-8,-3,-1,26,44,0,6
1526902162973506,11,-7,-7,-13,-27,2,0,18
1526902162973506,-11,-3,-3,4,4,50,3,-28
1526902162974504,14,-5,-5,-13,-31,-16,15,8
1526902162974504,-4,4,6,1,-22,-14,-27,2
1526902162987469,4,3,7,10,45,54,7,-3
1526902162987469,-9,0,-4,-9,-20,11,13,-20
1526902162996445,3,7,1,3,-11,-11,-15,24
1526902162996445,-4,2,1,7,16,50,-2,-23
1526902163011406,-3,-1,0,-9,7,-10,10,-9
1526902163011406,3,3,3,7,1,-3,-14,12
1526902163011406,-3,-2,-3,-16,-2,-24,-2,-15
1526902163011406,-1,2,3,19,-13,-61,-16,6
1526902163033346,5,-8,-6,-9,-31,86,-5,-4
1526902163033346,7,-10,-6,-2,22,-5,-8,-6
1526902163034343,-7,4,2,-1,6,24,9,-2
1526902163034343,5,0,2,-5,-5,-62,-9,9
1526902163048306,4,2,-3,-7,18,-49,-11,-7
1526902163048306,8,-7,-4,-7,-31,-1,-8,4
1526902163056284,-4,7,6,11,14,26,45,16
1526902163056284,6,0,-4,-9,12,12,-2,-14
1526902163071245,-6,1,-2,-1,-34,-20,9,-3
1526902163071245,-2,3,1,1,-5,-28,-2,5
1526902163072242,4,-3,-5,-17,-62,5,-7,-8
1526902163072242,-6,3,5,19,59,-12,19,15
1526902163093186,0,-5,2,10,-19,-7,-7,1
1526902163093186,-4,4,2,11,25,15,0,-4
1526902163094184,4,-8,-5,-5,-11,4,-31,-11
1526902163094184,-7,-3,-5,-11,-37,32,11,-5
1526902163108146,3,-3,-2,-2,0,-9,6,10
1526902163108146,-5,-7,-5,-12,-23,-30,3,-2
1526902163116124,-5,3,7,13,45,92,4,-2
1526902163116124,-1,1,-3,-18,-12,-23,0,4
1526902163131084,-2,1,2,9,-14,-35,-8,-4
1526902163131084,4,-6,-1,1,-3,44,-6,3
1526902163132082,-4,-3,-3,4,7,-23,2,2
1526902163132082,-10,2,2,8,10,-33,18,9
1526902163154023,2,4,-2,-7,1,-9,20,0
1526902163154023,3,2,-2,2,8,-16,6,-5
1526902163154023,-2,0,-2,1,-8,-10,-5,-14
1526902163154023,-1,2,2,5,34,56,-5,10
1526902163176962,-3,1,2,9,-8,-14,1,-9
1526902163176962,-2,-4,-3,-4,-8,0,8,6
1526902163177959,-4,4,0,1,23,-13,-5,-4
1526902163177959,-2,-1,-4,-7,-29,-5,-3,-6
1526902163190925,-2,-1,-4,-12,-9,-7,-8,-2
1526902163190925,-3,5,4,3,35,-16,4,-1
1526902163191922,3,-4,-3,1,-22,25,-4,2
1526902163191922,13,4,0,4,32,54,37,7
1526902163213864,0,-10,-8,-3,-1,6,-13,3
1526902163213864,-1,-2,-3,-6,-9,0,-8,-5
1526902163214861,1,2,1,5,6,-32,-3,7
1526902163214861,0,1,-1,-3,-33,-4,-19,-2
1526902163227826,-1,0,-1,-5,-5,-14,-14,-1
1526902163227826,0,-3,-2,-7,19,-27,-3,0
1526902163235804,-6,3,3,5,6,-9,4,3
1526902163235804,5,-3,-6,-15,-24,7,-10,-17
1526902163250764,-5,0,-1,2,-14,-25,2,-4
1526902163250764,-11,7,3,-4,74,-5,-12,3
1526902163251762,7,-4,-3,5,-22,36,26,-3
1526902163251762,-3,-1,-1,-4,-8,-44,-25,1
1526902163273703,-4,0,1,-7,4,4,-8,-3
1526902163273703,2,-3,-4,-6,-38,-2,26,-9
1526902163274701,-1,3,3,4,19,-13,-2,3
1526902163274701,-7,-4,-2,-7,-28,12,-8,-1
1526902163287666,2,0,-2,-2,-1,10,11,-2
1526902163287666,-1,-3,-3,3,-10,-4,-3,5
1526902163295645,-4,-5,-5,-8,-3,-14,-12,-7
1526902163295645,-2,0,0,-2,-19,-3,7,-1
1526902163310605,-6,1,3,-2,0,-18,14,1
1526902163310605,13,-7,-6,-12,-40,12,-30,-7
1526902163311602,10,2,6,15,25,-16,-3,2
1526902163311602,-11,4,0,-2,-17,3,-3,2
1526902163333543,2,-2,-1,8,-4,-4,26,-5
1526902163333543,-1,-2,-4,-5,1,-14,1,4
1526902163334540,0,-2,-5,-4,-5,-19,4,-7
1526902163334540,0,-2,0,3,5,-17,-7,5
1526902163356482,-3,-3,-3,-5,-10,7,-9,-2
1526902163356482,-4,-1,5,10,-8,-13,-3,1
1526902163357479,-4,0,-2,-9,-2,20,-12,-4
1526902163357479,6,3,5,10,-15,32,4,-1
1526902163371442,-2,0,-3,-17,53,-20,-10,-7
1526902163371442,-8,9,4,11,0,-52,69,10
1526902163371442,0,4,3,2,25,52,-2,2
1526902163371442,3,0,0,4,-49,-115,17,1
1526902163393383,-10,-2,-4,-18,6,-11,-17,-4
1526902163393383,7,6,12,36,59,21,8,6
1526902163394381,-5,0,-1,-1,-23,-2,3,1
1526902163394381,1,-3,-4,-3,14,13,0,-3
1526902163416322,-2,-3,-2,-3,-38,-6,-4,5
1526902163416322,-4,-12,-10,-26,7,24,-15,-11
1526902163417319,2,-5,-9,-22,5,-33,-13,-1
1526902163417319,-9,-4,0,7,0,19,-8,-5
1526902163431282,5,-1,0,4,-3,72,-3,5
1526902163431282,-1,3,1,5,21,-21,-11,-6
1526902163432279,2,-7,-1,4,-28,-31,-6,0
1526902163432279,-6,-2,-6,-12,31,42,22,3
1526902163453223,12,-1,-2,-12,8,41,8,-2
1526902163453223,-4,2,1,6,-10,14,20,1
1526902163454220,2,9,4,8,9,-48,-15,5
1526902163454220,-2,-7,-1,3,8,-18,-18,-4
1526902163476162,-2,-1,0,0,-74,-21,-12,-8
1526902163476162,8,-5,-7,1,21,49,-11,0
1526902163477159,-6,3,-3,-13,-9,-23,-5,-9
1526902163477159,-1,7,3,4,6,-61,-6,12
1526902163491122,10,-4,3,9,30,37,6,-3
1526902163491122,-15,-14,-10,-21,-54,37,-13,-9
1526902163492119,-1,1,0,-9,-16,67,3,5
1526902163492119,-8,4,0,10,30,-15,44,5
1526902163513063,4,-5,-3,8,-18,-57,-4,6
1526902163513063,1,-2,-3,-11,-20,-16,-17,4
1526902163514060,-3,-8,0,4,17,-51,-10,-2
1526902163514060,-3,5,5,12,-14,46,-10,-2
1526902163536001,-1,1,-1,3,25,-32,-14,-8
1526902163536001,-5,-1,3,-12,-48,8,16,1
1526902163536999,-5,-2,-2,14,42,-21,9,7
1526902163536999,4,7,5,-12,-18,86,-5,0
1526902163550961,-4,-7,-3,1,10,-11,-1,-3
1526902163550961,5,-4,-9,-15,-2,-34,-15,0
1526902163551959,0,2,5,5,-15,76,30,3
1526902163551959,5,0,3,9,50,-44,-32,-3
1526902163573900,-4,3,8,4,-1,19,2,0
1526902163573900,7,-3,-3,-6,11,42,-5,-7
1526902163573900,3,-1,-5,-2,-19,-18,-1,0
1526902163573900,-4,-9,-7,-14,-36,-45,-28,-13
1526902163595842,8,-2,-4,-10,-15,7,12,3
1526902163595842,-13,0,2,9,21,0,4,0
1526902163596839,2,-3,-4,-12,-1,-72,-2,-4
1526902163596839,3,-2,-1,-6,-10,31,5,-4
1526902163610802,-1,-1,1,0,-5,-17,-5,-4
1526902163610802,2,2,1,13,-34,-39,-3,-1
1526902163611799,-6,1,-3,-6,25,42,-4,-1
1526902163611799,1,1,0,-1,15,14,13,1
1526902163633740,-7,0,-5,-11,12,-30,43,3
1526902163633740,8,-7,-5,-6,3,75,14,-3
1526902163634738,-18,1,6,4,-24,-23,11,0
1526902163634738,14,-1,-2,0,-7,-4,3,6
1526902163655681,-15,1,1,9,10,55,0,-3
1526902163655681,5,-9,-12,-14,-39,-20,-10,4
1526902163656679,-10,0,5,17,30,1,5,0
1526902163656679,3,-6,-6,-6,25,9,-17,0
1526902163670642,8,-5,-3,-1,-30,-28,-25,-15
1526902163670642,-5,7,4,0,7,7,-12,-2
1526902163671639,2,-3,-3,-5,25,12,-9,-3
1526902163671639,-4,4,7,11,13,84,46,10
1526902163693580,13,-11,-4,7,0,-32,-27,3
1526902163693580,2,9,2,9,5,-71,12,5
1526902163694578,6,5,-4,2,-6,36,9,-9
1526902163694578,-14,-3,-2,-12,-11,-37,7,-5
1526902163716519,5,-3,-2,-6,-9,3,-3,3
1526902163716519,9,7,7,9,12,50,12,-8
1526902163716519,-2,-7,-5,-12,5,-15,-2,2
1526902163716519,5,-2,-3,4,-16,-16,-5,-3
1526902163731479,-4,0,1,-5,-11,-7,-7,-6
1526902163731479,-18,-6,-4,10,21,-40,-10,-5
1526902163731479,8,-4,0,-2,-10,-13,-12,4
1526902163731479,6,0,-3,3,13,-12,-39,-10
1526902163753420,0,-4,-4,-14,-1,9,-16,3
1526902163753420,1,-2,1,-16,-23,-28,-39,7
1526902163754418,-2,5,8,29,37,83,14,4
1526902163754418,0,-7,-3,4,-18,-41,-9,-2
1526902163776359,-24,3,-1,4,-8,-93,-8,-5
1526902163776359,22,-6,-7,-3,9,30,-9,-1
1526902163776359,-10,1,-3,-9,-22,-5,-19,-10
1526902163776359,-6,1,2,-4,-5,31,9,2
1526902163791319,3,-1,-3,-5,-6,-22,10,-7
1526902163791319,8,4,0,5,20,36,10,-1
1526902163791319,1,-4,-3,-10,-45,-19,9,-1
1526902163791319,-9,1,3,0,15,-34,-10,5
1526902163813260,-2,3,3,-1,23,7,-1,4
1526902163813260,-2,-2,-4,-19,-36,17,17,-5
1526902163814258,7,8,6,11,-24,-55,-1,3
1526902163814258,-38,-13,-6,11,23,-27,-9,-1
1526902163836199,14,3,0,5,9,-11,10,-4
1526902163836199,8,-7,-5,-3,-19,-43,-32,-4
1526902163837197,-1,1,-6,-16,-25,33,0,6
1526902163837197,3,3,3,-4,-11,-32,-3,-8
1526902163851159,3,-1,2,11,20,24,-8,2
1526902163851159,-3,-5,-3,0,-11,2,16,2
1526902163852156,-17,-5,-3,-5,-19,-27,-6,2
1526902163852156,13,0,-1,11,25,-13,3,0
1526902163873100,-42,-11,-10,-22,-3,61,4,-9
1526902163873100,3,14,9,22,-2,-15,9,8
1526902163874097,5,0,3,6,52,14,-5,1
1526902163874097,7,-4,-4,-5,-22,2,1,-4
1526902163896039,13,4,3,10,19,27,-6,3
1526902163896039,-10,-1,3,0,-14,-57,14,-3
1526902163897036,-14,-2,-5,-10,6,-47,-22,-9
1526902163897036,5,3,2,-6,-10,61,5,-1
1526902163910999,16,0,0,-8,-51,41,1,1
1526902163910999,6,6,8,23,72,22,25,7
1526902163911996,-12,0,-1,4,-18,1,-10,3
1526902163911996,2,-1,-1,-4,11,-25,12,6
1526902163933938,-6,-4,-2,2,-23,13,-12,1
1526902163933938,-1,6,0,-4,40,1,-14,-4
1526902163933938,11,5,2,-9,1,25,4,-5
1526902163933938,-3,-6,-5,-5,-11,85,15,-2
1526902163955879,0,0,-5,-3,4,-37,10,3
1526902163955879,-4,-2,0,6,1,-5,4,3
1526902163956876,-3,-4,-3,-1,5,-25,-5,-8
1526902163956876,-4,4,-1,-10,-13,-41,-1,1
1526902163970839,9,-3,-2,-1,1,-21,21,2
1526902163970839,-8,-7,-10,-16,-24,1,-23,-5
1526902163978817,2,1,1,-4,-8,-45,6,9
1526902163978817,-1,3,4,17,0,14,18,-5
1526902163993777,7,4,1,9,26,26,-22,-6
1526902163993777,-8,-1,2,-2,-12,-15,-9,-8
1526902163994775,3,-9,-6,-17,-24,16,6,-2
1526902163994775,3,0,-1,-13,30,-33,-25,-7
1526902164015719,8,3,3,11,-5,-26,13,10
1526902164015719,-8,-5,-4,-12,-17,21,-29,-7
1526902164016716,3,10,8,34,109,53,5,1
1526902164016716,8,-7,-6,-16,-37,-59,-5,-4
1526902164030679,-4,-1,1,8,4,16,-1,-7
1526902164030679,11,-5,-5,-1,4,-26,-13,3
1526902164038658,-16,0,2,-11,-32,51,1,2
1526902164038658,0,1,0,2,2,-19,3,5
1526902164053617,-12,-1,0,-10,9,38,-3,-9
1526902164053617,2,0,-1,-6,-10,-50,16,3
1526902164054615,-9,0,3,15,-1,0,-10,-1
1526902164054615,14,0,-2,-10,7,24,-6,4
1526902164075559,-6,3,2,17,-12,-11,-15,-9
1526902164075559,-6,-1,-4,-2,1,-5,10,-1
1526902164076556,4,1,-1,6,13,41,11,0
1526902164076556,-3,-5,-3,-11,-33,14,-1,-1
1526902164090519,-3,-7,-7,-14,11,-72,-9,3
1526902164090519,7,-3,0,14,1,60,9,-2
1526902164098497,-5,1,-4,-6,-9,-92,-14,1
1526902164098497,0,-8,-2,-1,-3,0,-7,-5
1526902164113457,7,-4,-5,-10,-7,4,2,2
1526902164113457,-9,0,-1,-6,-27,-11,-3,-3
1526902164114455,0,0,0,-1,-2,-35,23,-1
1526902164114455,0,-1,-4,-4,-18,2,3,3
1526902164136396,0,-4,0,7,22,-39,-10,-2
1526902164136396,-6,-4,-1,-1,1,9,-8,-6
1526902164136396,2,-4,-6,-12,-20,3,3,2
1526902164136396,0,2,3,0,8,-18,-1,4
1526902164150358,2,0,-2,-2,8,-59,17,7
1526902164150358,0,-2,1,1,8,32,6,3
1526902164158337,4,1,1,6,-8,-8,-7,-4
1526902164158337,0,2,-1,-2,3,21,30,5
1526902164173297,-23,-4,-2,-9,-78,-2,23,-1
1526902164173297,3,-4,0,0,64,53,-12,-2
1526902164174295,6,-5,-3,18,-9,-49,-5,-4
1526902164174295,-9,3,2,2,16,45,9,0
1526902164196236,15,-3,0,0,2,30,-23,-5
1526902164196236,-6,3,2,0,-4,14,13,1
1526902164197233,3,-3,-3,-14,-18,9,-13,-5
1526902164197233,-6,-3,0,5,11,-2,-17,-1
1526902164210199,2,-3,-6,-25,-6,6,-4,-1
1526902164210199,-7,4,1,1,-22,-39,-14,-3
1526902164218177,4,1,2,3,19,63,-8,4
1526902164218177,5,-1,-1,0,-22,-7,-3,-4
1526902164233137,5,0,0,-7,26,24,0,-2
1526902164233137,-2,2,-5,-13,-12,17,36,-5
1526902164234135,-7,12,10,21,15,75,15,9
1526902164234135,-5,-1,-5,-6,-30,63,21,-2
1526902164256076,8,4,4,3,35,8,0,9
1526902164256076,-8,-5,-1,4,36,-12,-5,3
1526902164257074,-2,-4,-4,-8,-14,-24,-7,-9
1526902164257074,-4,-1,-3,-11,-22,-37,-4,-1
1526902164270039,-1,5,3,14,21,11,6,0
1526902164270039,9,-2,0,-3,-17,53,-10,-3
1526902164279014,-10,9,5,-8,8,37,-14,-12
1526902164279014,-3,-3,1,4,11,-48,-14,-2
1526902164293974,2,-5,-8,-8,-12,-36,3,-1
1526902164293974,9,-3,-6,-7,4,-14,-25,2
1526902164293974,-6,-3,-5,-8,-57,-9,31,4
1526902164293974,-10,7,6,28,72,-2,-3,-1
1526902164315916,0,5,14,21,-14,-46,16,-5
1526902164315916,6,-1,3,-3,9,25,3,-3
1526902164316913,0,-3,-1,9,-37,40,10,10
1526902164316913,1,1,-2,12,41,27,-18,-8
1526902164338855,0,-7,-9,2,3,8,-2,4
1526902164338855,-5,-2,-3,-7,-16,-16,-6,-5
1526902164339852,1,0,-3,-12,-4,-16,-9,-6
1526902164339852,0,-2,0,-7,-22,-15,16,10
1526902164353815,-1,-2,1,1,-1,29,-4,-8
1526902164353815,-6,4,2,2,5,-4,9,1
1526902164354812,9,-3,-6,-10,24,30,1,-2
1526902164354812,2,0,1,-3,-34,-19,-13,3
1526902164375756,-1,-4,-2,-10,54,-8,16,-1
1526902164375756,-4,7,7,12,-4,-36,16,3
1526902164376753,-4,-1,-1,-6,-5,-37,-7,-4
1526902164376753,3,2,3,5,13,17,-6,1
1526902164399692,1,-6,-7,-14,-27,62,7,3
1526902164399692,2,-10,-9,-10,-17,-44,-5,-2
1526902164399692,-15,2,5,6,49,-14,10,9
1526902164399692,2,-4,-3,-14,17,14,4,0
1526902164413654,5,2,5,25,-21,-48,-34,-4
1526902164413654,-6,-1,-5,2,21,13,14,7
1526902164414652,1,-1,-4,-9,3,-49,-7,-23
1526902164414652,-4,-4,-4,-4,-16,2,-12,-2
1526902164435596,1,0,0,-2,-11,6,-8,-2
1526902164435596,8,4,-1,-5,-8,-14,-9,-3
1526902164436594,-7,-6,-3,-8,-28,-27,-5,0
1526902164436594,-2,6,2,1,-2,-1,10,-2
1526902164459532,3,1,-5,-13,7,-27,-8,-6
1526902164459532,2,-1,4,14,-29,21,0,5
1526902164459532,2,-4,-7,-15,-41,0,1,4
1526902164459532,-4,7,11,17,29,33,-12,-7
1526902164473494,3,-12,-5,2,27,63,1,1
1526902164473494,8,-6,-7,-9,-44,-35,-5,-7
1526902164474492,-7,10,10,19,29,20,-3,4
1526902164474492,3,-5,-3,0,1,-31,-7,-2
1526902164496433,1,-1,-2,-14,-42,-36,-1,2
1526902164496433,-9,-5,0,-3,28,80,-37,-9
1526902164496433,12,0,2,-2,-33,-33,2,3
1526902164496433,-1,7,1,-12,25,-4,-13,-5
1526902164519372,2,-4,-3,14,11,14,1,-7
1526902164519372,-2,0,-5,-8,-8,-29,0,-2
1526902164520369,5,-5,-8,-27,7,-18,-10,-2
1526902164520369,-1,-3,1,10,-2,0,10,5
1526902164533334,4,-1,0,5,-4,7,-12,-7
1526902164533334,-5,0,1,2,6,-31,14,3
1526902164534332,-4,-1,-5,-3,-6,-71,-23,-9
1526902164534332,-4,-14,-12,-30,-7,37,-4,-1
1526902164556273,-4,3,5,5,11,12,-2,3
1526902164556273,-5,3,2,-3,-27,-14,15,-6
1526902164557271,2,0,-1,8,1,-21,7,9
1526902164557271,-7,-6,-8,-18,-70,-85,-12,-18
1526902164578214,4,5,3,21,6,36,6,2
1526902164578214,-22,0,3,8,30,7,12,7
1526902164579212,-1,-1,-3,-9,13,9,7,12
1526902164579212,-1,1,2,8,-43,3,-9,-5
1526902164593174,-2,-2,0,7,41,13,12,-3
1526902164593174,3,4,2,6,-2,-21,-7,-5
1526902164594172,-1,-7,-4,-7,-3,25,-9,-10
1526902164594172,3,-8,-4,10,-23,-1,-19,1
1526902164616113,5,-5,-6,-34,-10,-44,-12,7
1526902164616113,-5,7,7,26,-22,39,10,11
1526902164617111,-2,-7,-2,-4,-5,-17,-7,-22
1526902164617111,-3,-2,2,8,43,-11,3,-18
1526902164638054,4,-6,-3,-1,-20,65,13,14
1526902164638054,2,-1,-8,-6,1,-28,-12,-25
1526902164639052,1,0,-1,-6,-25,3,13,2
1526902164639052,-23,-1,-1,1,9,5,0,6
1526902164654012,3,-1,-1,0,-4,-16,0,-8
1526902164654012,3,-5,-5,-19,-5,3,9,13
1526902164654012,-2,-5,-5,0,24,28,-19,-11
1526902164654012,7,0,2,9,19,14,2,5
1526902164675953,-7,1,-4,10,12,-10,7,0
1526902164675953,0,3,-1,-8,-26,-7,-19,2
1526902164676951,7,-4,-4,-11,-12,17,22,-12
1526902164676951,6,1,2,7,42,-20,22,24
1526902164698892,-12,8,3,4,7,-22,6,0
1526902164698892,10,-6,-4,-7,8,69,17,2
1526902164698892,-8,5,0,-22,-45,-23,-10,2
1526902164698892,-5,21,20,65,56,60,28,19
1526902164713852,5,-4,2,1,-18,-40,-17,-18
1526902164713852,-8,-1,-4,-6,-1,-57,-12,-1
1526902164714849,-6,6,10,16,38,33,17,19
1526902164714849,9,-7,-10,-23,-3,6,-31,-1
1526902164735793,-4,-1,-3,-9,-23,-5,-10,-2
1526902164735793,2,-2,1,16,12,26,-13,1
1526902164736791,-3,-5,-4,-1,-10,-15,-1,-7
1526902164736791,-6,-4,-9,-33,-123,10,6,-26
1526902164758732,10,-4,1,14,68,-30,-7,6
1526902164758732,-8,-2,-10,-23,-49,-100,21,-4
1526902164759729,-6,22,21,57,99,24,10,20
1526902164759729,6,-3,0,4,-9,-70,5,-10
1526902164772694,-3,-2,-2,-17,-70,89,8,-5
1526902164772694,-8,2,0,8,40,18,-9,0
1526902164780673,6,-5,-7,-7,-29,-42,-2,4
1526902164780673,-3,2,-3,-27,23,-12,-5,2
1526902164795633,0,-4,-5,-3,-66,6,-9,-2
1526902164795633,0,3,6,21,61,-2,-15,0
1526902164796630,3,4,8,28,90,27,1,7
1526902164796630,3,-5,-5,-17,-29,-12,-15,-3
1526902164818572,-20,-9,-8,-2,21,3,-11,-8
1526902164818572,8,1,1,-9,-43,-16,18,15
1526902164819569,-1,-9,-9,-22,-6,65,3,-3
1526902164819569,4,-1,3,10,-29,-41,14,-1
1526902164833532,-5,-1,-7,-32,22,-7,-10,-6
1526902164833532,1,1,3,17,-33,0,-2,-12
1526902164834529,-9,-5,0,20,33,-19,0,11
1526902164834529,23,-1,-2,-11,0,18,1,8
1526902164856470,16,0,-4,-1,-13,-72,-5,-6
1526902164856470,-10,-4,0,0,29,36,20,-10
1526902164856470,17,3,-5,-32,-68,-19,31,14
1526902164856470,-45,-5,-1,12,37,4,-1,1
1526902164878411,14,6,0,-4,-45,-11,18,1
1526902164878411,1,6,3,-8,55,-60,-2,5
1526902164879409,6,10,6,-11,-23,69,-30,-50
1526902164879409,5,6,1,6,12,19,1,5
1526902164893371,5,-5,-3,14,74,21,11,-4
1526902164893371,-4,2,1,25,32,-51,-13,-2
1526902164894369,-16,11,12,29,31,3,9,13
1526902164894369,15,-7,-4,1,-6,10,-8,-7
1526902164916310,-21,3,2,9,11,32,2,-5
1526902164916310,20,-6,-4,4,-11,43,17,2
1526902164917308,-5,-6,-8,-5,-12,-22,7,-2
1526902164917308,3,-7,-4,-5,-16,-6,-9,1
1526902164938252,2,-5,3,-6,-12,-4,18,-4
1526902164938252,-7,-1,-6,-21,-7,24,16,2
1526902164939249,-2,-9,-7,-8,-30,-38,-12,-9
1526902164939249,19,1,-2,-25,-13,9,-7,19
1526902164953212,-11,-9,-6,-1,-33,-76,-20,-34
1526902164953212,-6,10,8,25,66,34,2,23
1526902164961190,5,-12,-8,8,-81,-45,-24,-21
1526902164961190,3,-1,7,20,71,-7,-4,-5
1526902164976150,2,1,-2,-5,-4,4,-13,16
1526902164976150,-6,4,2,20,-61,17,1,-6
1526902164977148,-4,2,1,16,97,-14,-14,19
1526902164977148,17,-3,-2,0,-2,-16,24,-6
1526902165000086,-19,2,-2,-11,-55,-22,3,-3
1526902165000086,10,-7,-5,-30,27,-57,-19,-3
1526902165001084,-3,1,-1,-4,-29,15,20,13
1526902165001084,1,-4,-6,-3,-15,2,-6,-8
1526902165013051,3,6,4,10,58,-43,3,13
1526902165013051,-6,-10,-10,-23,-28,31,-7,-16
1526902165021030,-4,5,6,12,25,6,-5,1
1526902165021030,-4,3,3,4,0,-14,9,-1
1526902165035990,22,-6,-6,-4,-46,41,-10,5
1526902165035990,-16,15,11,9,18,65,4,2
1526902165036988,1,0,0,-4,-2,-20,11,9
1526902165036988,-11,-5,-8,-11,-7,51,0,-20
1526902165058929,5,-8,-9,-26,-36,11,-23,-2
1526902165058929,10,2,5,19,17,2,5,17
1526902165058929,2,-7,0,-9,34,45,-49,-5
1526902165058929,-7,2,1,13,65,73,29,-3
1526902165072891,1,-8,-3,4,-28,31,4,1
1526902165072891,1,-4,-5,-13,-17,-42,-3,-7
1526902165080870,-21,-3,-10,-26,-42,-41,-6,-4
1526902165080870,3,-3,-2,-13,-28,-44,-8,3
1526902165095830,4,-6,-4,7,36,9,-28,-2
1526902165095830,-5,-2,-4,-21,-40,-20,-2,1
1526902165096828,0,-7,-1,4,26,14,14,3
1526902165096828,-11,1,-2,-7,-42,-10,-9,2
1526902165118769,-4,0,2,10,-2,12,16,-19
1526902165118769,-4,-2,-4,-12,-13,-35,-8,8
1526902165119766,4,-2,-6,-9,-10,-12,-34,-18
1526902165119766,5,0,2,8,31,-16,-9,6
1526902165132731,-2,1,4,9,3,27,15,-3
1526902165132731,16,-6,-6,5,-18,27,-5,20
1526902165140710,16,-2,0,-3,19,-14,16,-19
1526902165140710,-3,-9,-6,-8,-6,18,-11,-3
1526902165155670,-1,1,0,-7,-21,-28,4,8
1526902165155670,-7,0,4,30,-1,24,-11,-3
1526902165156668,-11,1,-6,-5,-13,38,22,9
1526902165156668,2,0,-1,-6,-26,-75,-3,-2
1526902165178609,-2,3,3,1,32,78,15,7
1526902165178609,-14,-9,-10,-18,-5,-9,6,-16
1526902165179607,-3,4,4,1,-15,-4,16,15
1526902165179607,-7,-1,2,9,-14,9,-3,-6
1526902165192571,3,8,2,-11,8,-38,-4,9
1526902165192571,8,5,3,0,0,42,-14,-9
1526902165201547,-30,-3,-3,5,-42,-1,6,-15
1526902165201547,5,-4,1,-4,-9,1,2,1
1526902165216507,2,-8,-6,-17,-53,-15,-7,1
1526902165216507,1,-5,-6,-7,19,-12,0,-3
1526902165216507,-1,3,5,-8,-6,-21,10,8
1526902165216507,-2,-1,-1,-4,-25,23,9,-4
1526902165238449,-9,5,4,20,42,-7,21,2
1526902165238449,-7,-4,-2,-7,-33,-30,-4,-8
1526902165239446,10,-3,-2,-4,-2,33,-27,-5
1526902165239446,4,0,-3,-7,-15,-22,-9,8
1526902165252411,11,-4,-3,-1,11,14,0,6
1526902165252411,-9,5,0,-2,-9,-4,10,3
1526902165261387,8,3,-1,-2,8,-13,11,8
1526902165261387,-3,-3,-4,-12,0,30,-16,0
1526902165276347,-1,1,4,22,19,-8,3,2
1526902165276347,2,-2,-2,1,5,-21,-64,-20
1526902165277345,4,-3,2,5,-22,54,-6,-4
1526902165277345,2,1,-1,3,3,-16,2,1
1526902165298289,-8,-11,-9,-31,-23,-86,3,6
1526902165298289,-7,9,4,16,52,-4,9,-8
1526902165299286,20,-7,-5,1,-33,-4,-5,9
1526902165299286,-1,2,-2,-18,16,3,-8,-5
1526902165322225,8,3,-1,0,27,-7,4,-3
1526902165322225,7,0,-1,-4,-30,-14,19,-1
1526902165322225,5,1,1,0,3,9,-17,4
1526902165322225,-12,-2,-1,4,18,-9,16,-2
1526902165336187,-16,-3,-1,-3,-15,15,-8,-5
1526902165336187,12,-3,-3,-7,8,29,-1,5
1526902165337185,-6,4,-1,-5,6,-5,-5,-11
1526902165337185,8,-3,4,0,-21,10,-3,-4
1526902165358129,-4,3,2,6,18,14,-6,-5
1526902165358129,-8,1,-2,-5,-10,-9,7,-1
1526902165359127,-5,-1,0,3,11,-39,-24,0
1526902165359127,6,1,3,6,-2,17,-5,1
1526902165382065,-1,2,2,4,-4,11,-5,0
1526902165382065,-2,-8,-2,-13,-9,24,8,-7
1526902165382065,9,7,0,-12,-2,-43,25,9
1526902165382065,-1,-1,0,12,16,-11,-2,-4
1526902165396027,10,-8,-3,3,-13,23,-1,-4
1526902165396027,-9,-6,-2,-7,-26,-10,-9,-1
1526902165397025,-16,4,7,-2,11,5,5,6
1526902165397025,-2,-7,-8,-5,-16,-45,-5,0
1526902165418966,6,2,4,-3,49,1,-20,-3
1526902165418966,9,4,6,27,5,-7,11,1
1526902165418966,-12,-6,-2,5,-2,-4,5,0
1526902165418966,-5,4,3,6,22,2,-2,-1
1526902165441905,-1,-6,-7,-12,-21,-17,-14,-7
1526902165441905,4,4,2,-10,-1,-8,-2,-2
1526902165442902,-5,0,-1,3,17,1,0,0
1526902165442902,10,-5,-7,-9,-26,13,-2,-6
1526902165455867,-8,1,-1,0,-6,3,7,0
1526902165455867,-13,-1,3,7,29,16,1,2
1526902165456865,9,-1,2,-1,-31,-2,5,-3
1526902165456865,-5,3,-3,-4,-2,-7,2,5
1526902165478806,6,0,0,4,-4,13,1,-1
1526902165478806,11,-3,-7,-9,4,-15,-4,-6
1526902165479804,-21,-4,-6,-18,-14,-5,-10,3
1526902165479804,0,3,9,14,4,3,3,3
1526902165501745,-8,5,7,15,22,10,-5,-3
1526902165501745,3,7,1,-9,-18,-19,14,3
1526902165502742,3,1,2,13,43,55,3,0
1526902165502742,6,-2,-6,1,-28,-19,-1,-3
1526902165515707,-6,-5,-5,-11,-7,-19,5,1
1526902165515707,9,-5,-2,-7,-18,1,2,-2
1526902165516705,-10,1,3,12,31,-7,-20,-5
1526902165516705,15,-7,-4,-9,3,2,-3,2
1526902165538646,-5,1,-1,5,-8,7,8,0
1526902165538646,-22,-7,-5,-4,2,-4,-11,2
1526902165539643,13,-1,0,-7,-16,-22,-8,-2
1526902165539643,-2,2,-1,-10,2,5,-7,-7
1526902165561585,2,-6,-1,11,0,2,1,3
1526902165561585,-4,2,0,-6,-34,-16,-7,3
1526902165562582,7,-5,-5,-10,30,20,10,-2
1526902165562582,-12,5,9,26,-16,4,0,1
1526902165575547,8,4,-1,-5,6,31,11,4
1526902165575547,-4,3,2,7,32,13,-2,2
1526902165576545,6,-7,-4,-10,-30,-31,-8,3
1526902165576545,5,1,5,-5,26,1,-2,-3
1526902165598486,-7,3,0,0,-11,11,-12,-5
1526902165598486,13,-2,-5,1,0,3,-1,1
1526902165599483,8,1,-3,-2,-11,-9,3,-2
1526902165599483,2,-7,-3,-1,11,17,1,0
1526902165621424,-2,-4,-7,-33,-9,-4,10,-5
1526902165621424,-13,2,5,17,4,5,-16,3
1526902165622422,7,6,6,17,-77,16,16,7
1526902165622422,-12,-2,-4,9,68,-4,16,2
1526902165636384,7,3,2,4,-25,-40,-4,-2
1526902165636384,6,-1,-1,-12,-8,13,3,-4
1526902165636384,-5,-2,-1,-6,8,-22,5,-5
1526902165636384,1,-5,-5,-6,-16,20,5,2
1526902165658326,1,2,-1,0,-25,-35,-7,-2
1526902165658326,-3,4,1,-13,67,48,11,2
1526902165659323,-5,1,1,5,-10,2,-3,1
1526902165659323,-4,-1,0,-3,1,-4,-7,-5
1526902165682262,7,-2,-2,16,34,25,0,2
1526902165682262,-4,-1,1,-1,-37,-14,-5,1
1526902165682262,-2,-3,-1,1,30,53,16,2
1526902165682262,-6,-7,-3,-9,-27,-18,-5,-3
1526902165696225,0,4,3,7,3,-9,14,2
1526902165696225,-6,2,0,12,27,16,-9,1
1526902165697222,-2,-1,-6,-14,-16,-26,-4,-6
1526902165697222,6,6,3,2,-4,40,-6,-10
1526902165719163,-8,0,1,7,2,16,-7,0
1526902165719163,-3,-3,-5,-11,-29,-31,4,-2
1526902165720161,-6,-3,-2,5,29,0,-19,-1
1526902165720161,6,-1,-2,-3,4,-16,-1,-5
1526902165741104,-5,-2,-3,-14,-20,-10,-10,-2
1526902165741104,-5,2,2,7,16,-7,7,-3
1526902165742102,4,0,0,4,3,14,-2,1
1526902165742102,10,-2,-2,1,0,-1,1,2
1526902165756064,-23,-9,-4,-9,-27,3,-13,-9
1526902165756064,-5,5,-1,0,40,-1,5,2
1526902165757062,-5,0,1,12,36,-6,5,1
1526902165757062,-7,-5,-2,-10,-35,8,4,1
1526902165779003,7,0,1,20,33,-1,6,1
1526902165779003,-1,-5,-7,-18,-49,10,14,2
1526902165779003,-7,7,5,5,5,-2,-3,-4
1526902165779003,-4,-5,-3,-6,8,27,7,0
1526902165800945,-1,2,-4,-3,3,-40,-15,0
1526902165800945,-1,-4,-1,3,-2,19,-7,-9
1526902165801942,6,0,-2,-17,0,-10,-5,-5
1526902165801942,-14,-2,-3,20,-6,-17,0,1
1526902165815904,3,5,1,-16,-2,12,3,1
1526902165815904,6,0,1,12,0,-24,0,5
1526902165816902,1,-11,-5,-16,-32,14,-13,-8
1526902165816902,3,3,1,4,28,-13,-10,-1
1526902165838843,4,3,-2,-9,2,0,-4,-3
1526902165838843,-13,-6,-6,-7,-48,-2,-1,0
1526902165839840,5,2,5,9,24,5,5,1
1526902165839840,5,-4,-2,-5,21,-14,0,-2
1526902165860784,6,-9,-6,-9,-19,8,2,2
1526902165860784,-3,8,7,3,-11,-6,0,-1
1526902165861782,-8,-4,-7,-10,-18,-22,2,3
1526902165861782,4,-4,-1,-12,-27,-12,-4,1
1526902165875744,-6,1,1,6,18,1,3,-6
1526902165875744,3,-3,-3,-9,1,10,9,2
1526902165883723,7,-3,-1,-7,-14,8,1,0
1526902165883723,-1,4,2,10,22,28,3,3
1526902165898683,3,-1,3,11,17,15,6,4
1526902165898683,3,-4,-2,0,4,1,-18,-1
1526902165899681,-16,-1,-5,-7,-8,-21,-7,-3
1526902165899681,11,-14,-11,-21,-38,-55,-8,-8
1526902165920624,-5,0,10,24,26,85,9,6
1526902165920624,5,0,-2,-2,18,-9,-8,-3
1526902165921622,3,0,0,14,26,1,7,1
1526902165921622,3,-4,-4,-13,-38,-17,-9,-8
1526902165935584,-6,5,1,2,-5,-27,0,1
1526902165935584,-4,-2,2,2,-9,-13,-5,-1
1526902165943563,2,-8,-8,-8,-13,11,4,4
1526902165943563,-15,5,5,1,11,1,8,4
1526902165958523,5,0,-3,-6,-1,-13,11,3
1526902165958523,-5,2,1,7,4,6,-3,-1
1526902165959520,10,-2,3,0,-3,-26,2,0
1526902165959520,-6,-4,0,5,10,16,-7,-2
1526902165981462,-1,-1,-3,-3,-1,-11,1,0
1526902165981462,-1,0,-1,-2,-4,-37,-9,-2
1526902165981462,4,-2,1,0,-10,56,11,-4
1526902165981462,6,-3,-2,-1,7,-13,-1,-4
1526902165995424,1,-1,-1,4,3,7,-3,2
1526902165995424,4,-4,-3,-6,-1,-4,-2,1
1526902166003403,-8,-3,-3,-5,-21,-19,-15,-6
1526902166003403,-1,-4,-1,4,36,23,-8,1
1526902166018363,-5,-2,-4,-14,1,-19,-8,-5
1526902166018363,-1,2,4,11,3,-7,6,4
1526902166019361,-3,8,6,0,2,-55,-3,4
1526902166019361,5,-3,-3,-4,-10,32,0,0
1526902166041301,3,-3,-3,1,1,-14,-3,1
1526902166041301,-4,-4,-4,-8,1,9,1,1
1526902166042299,-7,-4,0,9,5,-7,-1,-2
1526902166042299,-21,-3,-1,0,-6,-16,-4,-3
1526902166055264,-2,-3,-1,6,0,2,-4,2
1526902166055264,-3,-3,-2,-3,-2,2,2,-7
1526902166063243,3,1,1,-1,-7,4,1,1
1526902166063243,2,1,1,2,6,-25,-9,-2
1526902166078203,2,-6,-8,-7,12,82,0,-4
1526902166078203,-2,1,4,11,-7,-11,2,4
1526902166079201,-6,0,2,14,5,3,4,-2
1526902166079201,9,0,-6,-24,-56,-15,12,-6
1526902166101142,-9,8,9,23,45,-16,10,7
1526902166101142,1,-2,-2,-5,33,-7,-6,-4
1526902166102139,0,5,7,9,-7,31,-9,5
1526902166102139,11,-6,-4,4,14,-13,-20,1
1526902166115104,-15,-3,-1,-4,1,-3,-4,-4
1526902166115104,-8,4,-2,-2,-8,2,2,-1
1526902166124080,-14,-2,-1,-3,-5,27,-3,-4
1526902166124080,13,0,-2,0,-6,4,5,5
1526902166139040,4,-1,-2,-7,-16,-16,-1,2
1526902166139040,4,3,2,1,3,7,-15,-1
1526902166139040,-2,-5,-4,-15,-2,-12,1,-2
1526902166139040,-2,4,3,9,15,6,10,7
1526902166160981,-2,-2,-2,0,1,-3,-2,-12
1526902166160981,7,-3,-7,-21,-13,-5,9,2
1526902166161979,-6,6,3,17,-5,1,-5,2
1526902166161979,1,3,2,3,-12,-50,4,-7
1526902166174944,6,-2,-2,-8,20,-13,7,-3
1526902166174944,-2,-5,-2,7,13,-4,-12,-3
1526902166183920,1,1,0,-3,15,-12,21,-2
1526902166183920,-6,1,-1,5,20,-4,1,0
1526902166198880,0,2,-3,-6,-39,-12,-5,-3
1526902166198880,-5,-1,-2,-3,-7,3,4,6
1526902166198880,10,-4,-5,-18,-9,-24,-16,0
1526902166198880,-13,6,9,37,13,-18,-13,0
1526902166220821,6,-4,-3,-7,-32,-29,0,-1
1526902166220821,-3,1,2,4,12,26,2,-3
1526902166221819,5,4,1,-3,-12,-8,4,9
1526902166221819,5,-8,-7,-21,-5,4,-1,-8
1526902166243760,4,2,3,3,-6,5,-12,4
1526902166243760,-7,3,2,6,-7,-22,-1,4
1526902166244757,-2,-2,-1,-3,6,7,1,5
1526902166244757,5,0,-1,-8,-5,19,3,-1
1526902166258720,-7,-3,-2,-4,12,-7,-5,-7
1526902166258720,3,2,-1,0,-11,-2,1,2
1526902166259718,-9,-7,-8,-10,2,-18,-13,-13
1526902166259718,3,-5,-3,-11,-12,70,15,-2
1526902166280662,7,-4,-9,-25,-43,41,1,11
1526902166280662,-8,3,6,29,24,-18,0,-27
1526902166281659,-2,-3,2,8,6,2,15,0
1526902166281659,-2,0,-1,5,-2,-3,-4,-1
1526902166304598,-7,1,-4,-10,14,5,0,1
1526902166304598,-1,-1,-5,-13,-22,13,-6,4
1526902166304598,-2,1,2,4,7,4,-4,-2
1526902166304598,6,-1,-6,-10,1,-5,-11,-10
1526902166318560,5,1,2,8,-9,-13,-1,-9
1526902166318560,-9,0,0,0,5,0,4,7
1526902166319558,3,2,0,5,10,2,2,11
1526902166319558,7,-5,-4,-7,-12,28,1,0
