timestamp,emg1,emg2,emg3,emg4,emg5,emg6,emg7,emg8
1576753991795002,-12,-1,2,-1,1,-1,-6,-7
1576753991795002,-1,0,0,-7,2,-2,0,1
1576753991795933,5,-4,-1,3,-3,3,8,4
1576753991795933,-3,1,1,5,-1,-2,-4,-6
1576753991795933,0,0,0,-2,-1,-6,-2,-8
1576753991795933,3,-5,0,-2,1,0,-3,1
1576753991796895,2,-4,-4,-2,-3,0,3,5
1576753991796895,-5,-3,-3,0,-5,-2,0,-8
1576753991807865,-5,1,-2,-3,0,-4,-4,-1
1576753991807865,-1,1,0,-3,2,3,-3,0
1576753991816840,4,-1,-1,-2,1,0,5,3
1576753991816840,-2,-4,0,3,-4,-1,0,-3
1576753991823820,1,3,-1,1,1,-2,-7,-4
1576753991823820,5,-2,-2,-2,-2,-2,2,-1
1576753991838836,-1,0,1,2,1,2,2,2
1576753991838836,-1,-1,0,0,-4,0,-2,-1
1576753991846852,-4,2,-1,-1,-2,0,-2,-7
1576753991846852,1,0,1,-6,1,1,0,0
1576753991861840,-3,-3,0,2,0,-2,-2,0
1576753991861840,-3,2,-2,0,-3,-1,-3,-4
1576753991869702,4,0,2,-3,0,-1,-5,-1
1576753991869702,-1,0,1,-2,0,-3,-1,-5
1576753991882714,2,1,-1,0,-2,-2,1,-4
1576753991882714,-4,-1,-2,2,-3,-2,-1,-10
1576753991923556,7,-2,-2,-1,1,0,10,10
1576753991923556,-2,1,-2,3,-3,0,1,-3
1576753991924554,-4,3,-1,-2,-2,-2,-5,-3
1576753991924554,-3,-2,0,-5,1,-1,-1,0
1576753991928646,2,2,-4,-1,-3,1,4,6
1576753991928646,1,-8,-1,3,-1,-2,-2,0
1576753991928646,1,2,-1,1,-3,-3,-3,-6
1576753991928646,-9,-3,-2,-4,-2,0,0,-2
1576753991935522,4,-4,-2,1,-3,-1,1,3
1576753991935522,-2,-1,-1,2,-4,0,-1,2
1576753991943619,-7,-1,-4,0,-2,1,-5,-8
1576753991943619,-5,1,0,0,1,0,-2,1
1576753991950482,3,-2,3,-1,0,0,3,2
1576753991950482,-4,3,-3,0,-2,-2,-3,-4
1576753991966440,-4,-1,-1,2,2,-1,-5,-2
1576753991966440,-4,1,-2,-4,3,-3,-4,-2
1576753991972426,-5,-4,-2,-3,1,1,3,1
1576753991972426,1,-2,2,3,-2,-2,-1,0
1576753991995471,-3,2,1,-3,-2,-2,-3,-3
1576753991995471,0,3,-2,-3,0,2,-2,-2
1576753991996362,-1,-3,-3,3,2,0,3,0
1576753991996362,3,-1,-1,2,1,-1,-1,-4
1576753992010425,-5,-2,2,-1,0,0,-2,-3
1576753992010425,1,0,-2,-2,2,-1,-1,-5
1576753992011319,-3,-2,-1,-1,-3,-2,1,-2
1576753992011319,1,1,-4,-3,0,2,0,1
1576753992033261,-3,-2,2,-1,-3,-2,-4,0
1576753992033261,-1,-3,4,-1,1,-1,0,0
1576753992034263,0,-2,-4,-1,-1,0,2,1
1576753992034263,2,1,-1,2,2,1,0,1
1576753992055308,-12,-3,0,-2,1,0,-3,-6
1576753992055308,7,2,0,-1,1,-4,-3,3
1576753992056201,0,-1,0,-3,-1,0,-1,-3
1576753992056201,-1,-1,4,1,-3,-2,-1,-3
1576753992072161,3,2,-1,-2,-3,0,0,-2
1576753992072161,-1,0,1,-1,-2,1,3,1
1576753992073160,0,4,3,4,2,0,-3,1
1576753992073160,-3,2,-3,0,-3,-1,0,-6
1576753992093201,-9,-1,-1,-1,0,-4,-2,-2
1576753992093201,1,1,-2,-2,0,1,-2,1
1576753992094103,-3,-1,2,0,-3,-1,-4,-1
1576753992094103,-3,-1,-4,-2,-4,2,-1,0
1576753992116040,2,-2,-3,3,-2,-2,0,-1
1576753992116040,4,0,-2,0,-2,1,-3,1
1576753992116040,5,1,1,-1,1,0,2,6
1576753992116040,-1,-6,-3,-5,-2,-4,0,-2
1576753992131124,5,0,-1,2,-2,-1,-3,-2
1576753992131124,-1,-2,0,-2,0,0,2,3
1576753992131124,2,0,-3,0,-1,-1,-1,-2
1576753992131124,0,3,-2,2,2,-1,1,1
1576753992153045,3,2,-1,1,4,-2,-2,2
1576753992153045,0,0,-2,-1,-2,1,3,-3
1576753992153940,0,-2,0,-1,0,-2,0,-2
1576753992153940,7,-1,2,1,-1,0,-1,0
1576753992175984,-1,0,-2,-1,0,0,0,0
1576753992175984,2,-1,1,1,0,-5,-2,-1
1576753992176913,1,0,0,1,-1,3,2,5
1576753992176913,6,0,1,-2,-6,-2,-4,-6
1576753992189945,1,1,0,-1,0,1,-1,1
1576753992189945,4,-2,0,1,0,-6,0,-2
1576753992197941,4,-4,-3,-1,-5,-4,-1,-1
1576753992197941,-7,2,2,-5,-2,-5,0,0
1576753992212885,2,-1,-1,1,2,1,0,-3
1576753992212885,3,1,0,-1,-1,1,0,5
1576753992213784,-2,-4,-1,-1,-3,-2,-4,-4
1576753992213784,-6,2,-2,2,-1,0,-2,-6
1576753992235721,-2,0,-1,-5,-5,0,1,-3
1576753992235721,-1,-3,-3,-1,1,-5,1,2
1576753992236721,1,3,2,4,1,1,3,-2
1576753992236721,-1,0,0,-2,1,4,-3,0
1576753992249681,2,-1,-1,-4,-2,-3,-1,-3
1576753992249681,-2,-3,-2,0,-1,-2,0,1
1576753992257681,2,2,0,-4,-5,-4,-1,1
1576753992257681,2,-2,-1,2,3,0,-1,3
1576753992273648,-5,-2,0,-1,0,1,0,-1
1576753992273648,4,1,0,-1,-1,0,-4,-2
1576753992273648,-2,1,-1,-5,1,0,-3,1
1576753992273648,-1,1,1,1,0,-3,0,1
1576753992295608,0,0,0,0,1,-3,1,2
1576753992295608,-3,-4,-2,-2,0,-1,1,1
1576753992296594,-6,-3,-1,2,-3,1,0,-3
1576753992296594,1,-1,-3,-1,-1,-1,-2,1
1576753992310519,-9,-4,-3,-4,-1,-1,1,-3
1576753992310519,-3,-1,0,-3,-2,4,1,-1
1576753992317502,-3,-2,-4,1,2,-2,0,-2
1576753992317502,-2,0,0,-2,1,-2,-3,-2
1576753992333503,0,-3,-3,1,0,-3,-4,5
1576753992333503,3,-1,-1,-1,1,1,0,2
1576753992334459,5,-3,-3,-1,2,1,-1,-1
1576753992334459,-5,1,-4,-1,0,0,3,-2
1576753992355442,-2,-2,0,-2,0,-1,0,-1
1576753992355442,-8,0,-2,2,-2,-2,2,-6
1576753992356399,-3,-2,-3,1,-1,1,-5,-3
1576753992356399,-1,-2,2,2,-2,-3,-3,-3
1576753992370483,2,-1,0,-1,-3,0,-1,-1
1576753992370483,-2,1,-2,1,-1,-1,-1,-2
1576753992377385,-3,-1,-2,-1,0,-2,-1,-3
1576753992377385,-7,0,-2,1,0,-1,-1,-2
1576753992393374,4,4,1,0,0,2,-2,-2
1576753992393374,2,-6,-4,-1,-3,1,-1,1
1576753992394337,-2,0,1,0,-3,-2,-3,-4
1576753992394337,-1,2,-4,-5,0,1,-3,1
1576753992415340,-2,-1,-2,-2,2,-2,-3,-1
1576753992415340,-2,2,-1,-1,0,0,-4,-6
1576753992416238,-1,3,2,2,-2,-2,-2,0
1576753992416238,-3,-2,-3,-6,-4,-3,-2,-6
1576753992430306,-1,-1,-1,0,3,-1,0,-2
1576753992430306,0,-3,2,-3,-2,-1,-2,-1
1576753992437288,-3,-2,0,-2,0,0,-1,1
1576753992437288,-4,-1,4,-3,-1,0,-1,-5
1576753992453168,-3,1,0,-1,-2,-3,-3,-2
1576753992453168,-1,-2,-2,-2,-2,4,1,-3
1576753992454137,5,-2,1,1,2,0,2,4
1576753992454137,-7,-5,1,0,-2,-1,1,1
1576753992476108,1,1,-4,-1,-3,-2,-3,-3
1576753992476108,-6,3,2,3,1,0,-3,0
1576753992476108,-4,0,0,0,0,0,1,0
1576753992476108,-3,1,-2,0,0,0,-2,-3
1576753992490095,1,-4,-1,-1,-2,-2,2,-1
1576753992490095,0,-3,-1,-2,1,-5,0,-3
1576753992497071,-2,-1,-3,-1,0,0,0,-4
1576753992497071,0,-1,0,0,0,-1,-3,-6
1576753992513029,0,-1,-1,-2,0,1,-1,-4
1576753992513029,-5,1,-2,-3,-2,-2,-2,0
1576753992513976,1,-3,0,-1,1,2,-1,1
1576753992513976,-2,2,-1,-1,-2,-3,1,0
1576753992535968,-2,-1,3,0,-1,0,0,2
1576753992535968,-1,-5,-1,-1,-1,0,3,-3
1576753992536912,-7,0,-2,-1,-2,1,-1,-5
1576753992536912,0,-1,0,0,1,1,-1,2
1576753992549879,2,-1,-1,-1,-1,4,-2,3
1576753992549879,-4,4,1,0,1,1,0,-2
1576753992557859,-4,1,0,0,-5,-1,-1,-2
1576753992557859,-3,-4,0,0,0,-3,-4,-3
1576753992572871,3,0,2,1,2,-1,0,0
1576753992572871,-1,-2,-3,-4,-1,-3,-2,0
1576753992573816,-6,-1,-1,-1,1,1,-1,-2
1576753992573816,0,-6,-4,-1,-1,0,-4,1
1576753992595810,1,3,0,0,-1,0,-1,-1
1576753992595810,-7,0,1,2,1,5,0,0
1576753992596771,3,-1,1,-1,-4,-2,-3,-5
1576753992596771,-4,1,-2,1,1,-1,3,6
1576753992618697,-3,-3,-1,-2,-1,-1,-2,-3
1576753992618697,1,-2,1,0,-2,-3,-1,1
1576753992618697,-2,2,-5,-1,-4,-2,-4,-4
1576753992618697,-4,0,1,1,-1,-1,-1,-6
1576753992632657,-2,-3,-1,1,1,1,0,-2
1576753992632657,2,0,-1,1,-4,-3,0,2
1576753992633655,0,-4,1,-2,-3,-2,0,2
1576753992633655,-3,3,-1,0,-3,3,0,-6
1576753992655641,-3,-2,-2,-2,1,-1,0,-2
1576753992655641,2,-4,0,-2,-1,0,-3,-3
1576753992656598,1,-3,1,-1,2,-1,1,-1
1576753992656598,3,-5,-4,-1,0,1,0,2
1576753992678539,-2,2,1,-2,-2,-2,2,2
1576753992678539,2,-1,-2,0,-4,2,-2,-1
1576753992678539,1,-3,2,0,0,0,1,0
1576753992678539,-3,-2,1,1,-1,4,1,3
1576753992693499,-6,0,-3,0,0,0,1,-1
1576753992693499,4,-3,1,-1,1,-2,-1,3
1576753992693499,0,-2,-1,0,2,-2,1,-4
1576753992693499,2,4,2,2,0,1,-4,-2
1576753992715472,4,-1,-4,-4,-3,-2,-1,-3
1576753992715472,-2,1,-2,-1,-3,-2,0,2
1576753992716433,-4,0,1,4,1,-1,2,0
1576753992716433,1,1,3,-1,-2,-1,0,-4
1576753992738374,1,-2,-2,-3,-2,1,-3,-2
1576753992738374,6,-1,-1,-1,0,-1,3,-2
1576753992739373,-3,0,0,-2,-1,1,-3,-2
1576753992739373,-3,-3,-1,-4,-2,-2,0,-2
1576753992753334,-1,2,-1,-2,1,-2,-3,1
1576753992753334,2,-3,-3,-2,1,2,0,2
1576753992754337,-1,1,-1,0,-5,0,0,-13
1576753992754337,1,2,0,-1,3,-2,-1,2
1576753992775320,-2,-2,2,-2,-1,0,-3,-2
1576753992775320,5,3,0,-1,2,-1,2,1
1576753992776275,-5,-4,-4,1,-2,-1,2,2
1576753992776275,-1,1,-4,-3,0,-2,2,0
1576753992798261,1,0,0,0,1,0,0,-2
1576753992798261,3,-2,3,1,1,-1,1,1
1576753992799213,2,2,1,-2,-3,0,-6,-2
1576753992799213,-2,-3,-1,-1,1,0,0,0
1576753992813175,3,-1,-2,0,-2,0,-3,3
1576753992813175,6,2,-2,1,1,-4,4,-3
1576753992814173,2,-1,0,0,-3,-1,-4,-3
1576753992814173,-1,-1,0,2,3,1,-2,-1
1576753992836114,-3,-4,-1,-2,-1,0,-2,0
1576753992836114,4,-2,-5,0,1,-1,-1,0
1576753992836114,-1,4,2,0,1,0,-1,-2
1576753992836114,0,0,-2,-1,-4,-3,-4,-4
1576753992858054,-4,1,0,0,2,0,0,3
1576753992858054,-4,-1,1,-1,-5,0,-5,1
1576753992859052,-2,1,-2,-2,-2,-3,1,-4
1576753992859052,-5,0,-1,-4,-4,-4,-3,1
1576753992873018,-2,-2,-1,-1,0,0,1,-6
1576753992873018,-2,1,-1,0,2,-2,1,2
1576753992874013,1,-1,-1,4,4,-1,1,3
1576753992874013,5,-2,-1,-2,0,-1,0,0
1576753992894956,2,0,0,-5,-1,-2,-2,0
1576753992894956,1,-1,-3,-1,1,1,-2,1
1576753992902936,5,-2,-2,-2,-2,-2,-2,1
1576753992902936,1,0,0,0,-4,-1,1,-3
1576753992917895,2,0,0,-1,1,2,3,0
1576753992917895,7,-8,-3,-2,-6,2,-2,-1
1576753992918895,6,0,1,-3,3,1,-3,1
1576753992918895,-1,-2,-1,-1,1,0,-4,-3
1576753992940834,8,2,3,1,-2,-3,-3,-6
1576753992940834,4,-1,-4,-1,-1,-2,1,-3
1576753992941831,6,-2,-3,-2,-3,-5,2,1
1576753992941831,-1,-2,-3,-1,3,1,1,0
1576753992954796,3,-1,-4,0,-1,-1,1,3
1576753992954796,0,0,-1,0,-1,-1,-3,-2
1576753992962776,4,0,0,0,-5,-4,-3,3
1576753992962776,-1,-3,1,0,0,2,-3,-2
1576753992977737,5,-2,0,0,-3,0,-1,3
1576753992977737,3,0,3,1,-1,0,0,3
1576753992978734,-2,-1,-1,-1,1,3,-1,2
1576753992978734,-1,0,-4,-4,-2,-2,-5,-6
1576753993001671,7,-1,0,2,-2,-2,1,3
1576753993001671,6,-5,-1,-1,-1,1,-3,-3
1576753993001671,0,-1,-1,1,1,-2,-2,0
1576753993001671,3,1,1,0,1,1,-1,3
1576753993014638,-1,-1,2,-4,-2,-2,2,-4
1576753993014638,11,0,3,-2,-2,0,2,3
1576753993023611,5,1,0,-2,2,-1,-3,-2
1576753993023611,1,0,-3,-3,-4,-2,1,4
1576753993038572,5,-2,2,6,2,-1,1,5
1576753993038572,-2,3,-1,2,-1,-3,3,-1
1576753993038572,-5,-3,-1,-2,-5,1,1,-2
1576753993038572,8,-6,2,-1,-1,1,-1,-1
1576753993061510,4,1,-6,-3,0,1,2,-2
1576753993061510,-1,-5,1,-1,-1,0,-1,0
1576753993062511,2,3,-4,1,0,-1,0,-3
1576753993062511,-1,4,-1,1,0,-3,2,-4
1576753993075482,-3,-1,-1,-2,-1,-1,-3,3
1576753993075482,-4,-4,0,0,0,0,-3,-1
1576753993083452,-3,-2,-3,-1,-2,1,0,0
1576753993083452,-1,0,-1,-2,1,-4,-1,-3
1576753993098417,10,-2,-1,-4,-3,-2,2,-2
1576753993098417,-1,2,1,-2,3,1,1,3
1576753993099411,6,-1,-1,4,-2,2,-1,1
1576753993099411,4,0,1,1,-2,-1,0,1
1576753993120356,0,-1,-3,-4,0,-3,-3,0
1576753993120356,0,0,-3,0,-2,-1,-1,-5
1576753993121356,-1,0,-1,-2,-3,1,0,1
1576753993121356,3,-2,-3,0,-3,1,1,-2
1576753993144295,-4,0,1,0,1,-1,-1,0
1576753993144295,-5,-1,-2,2,-4,0,2,3
1576753993144295,-2,-1,2,-2,-1,-2,-3,-3
1576753993144295,0,-2,0,-2,-3,0,-3,-2
1576753993158287,6,-1,1,0,-1,-4,1,1
1576753993158287,-2,1,-4,-2,-2,-2,-2,1
1576753993159253,3,-2,1,4,4,3,-2,1
1576753993159253,-2,-4,0,-3,1,-2,-2,-1
1576753993181193,0,0,-1,-1,0,-2,0,1
1576753993181193,4,-1,-1,1,-2,0,-1,1
1576753993181193,2,-3,0,-2,-3,2,1,-2
1576753993181193,1,1,1,0,2,-1,-3,-1
1576753993204163,-2,-1,-1,-1,-1,-2,-2,0
1576753993204163,7,2,1,0,-2,0,0,2
1576753993204163,1,0,0,-1,-1,-4,-2,-1
1576753993204163,4,0,-4,-1,1,0,2,1
1576753993218127,2,-6,-1,0,-2,1,-1,-1
1576753993218127,-3,-1,0,-2,1,-2,2,1
1576753993219094,-7,-3,0,-2,1,-4,-3,-3
1576753993219094,-5,0,-2,-1,-2,0,-3,-3
1576753993241097,-5,2,-3,1,-3,-1,1,-1
1576753993241097,-4,0,0,0,-3,-3,-2,-2
1576753993241097,-3,2,0,2,-4,-2,1,-2
1576753993241097,2,-2,1,0,-2,-2,-2,-1
1576753993264031,-2,1,0,0,2,1,1,2
1576753993264031,4,2,0,2,1,3,1,1
1576753993265011,-3,-1,-1,-2,-2,0,0,-4
1576753993265011,-1,-5,-1,0,2,-4,-2,0
1576753993277965,-8,1,0,-3,0,-1,-1,-7
1576753993277965,-3,-3,-1,-2,1,-2,-2,-3
1576753993278931,3,-3,-1,-2,-1,0,-1,-1
1576753993278931,-1,1,0,-2,-2,0,-3,0
1576753993300879,6,-7,-4,-3,0,1,0,1
1576753993300879,-2,1,0,0,-4,-5,-1,-6
1576753993301874,1,-2,-1,-4,-2,-2,1,2
1576753993301874,1,0,0,-3,-4,-2,-3,-1
1576753993323841,6,-2,-2,-2,-3,-1,3,2
1576753993323841,1,-3,0,-2,0,3,-2,0
1576753993324811,0,2,-1,0,-1,0,0,0
1576753993324811,3,-1,0,-3,-1,1,-2,4
1576753993337774,-1,1,0,0,-2,1,-5,-3
1576753993337774,0,-2,0,-2,-3,2,-1,7
1576753993338774,1,0,-2,-1,-1,-2,-5,-4
1576753993338774,0,-3,-2,0,3,0,0,-1
1576753993360712,6,0,0,0,1,0,1,2
1576753993360712,-1,-5,-1,3,1,1,-1,0
1576753993361714,-2,-2,0,-1,1,-2,1,2
1576753993361714,-1,5,2,3,1,0,3,0
1576753993383651,5,-5,0,-3,-3,-2,-3,1
1576753993383651,-3,0,1,0,2,-2,2,-2
1576753993384658,2,-3,0,0,-3,-2,-2,1
1576753993384658,3,0,-3,-1,1,-1,1,-6
1576753993397614,-4,0,-1,1,-1,-1,2,-5
1576753993397614,4,2,1,0,-2,0,0,-3
1576753993398609,-1,-1,-3,-1,1,1,-2,-3
1576753993398609,5,-1,-1,-1,-3,0,-1,5
1576753993420552,2,1,2,-2,-1,-1,-1,-4
1576753993420552,0,0,-3,-3,-2,-2,-1,2
1576753993421551,2,0,-2,1,0,-2,-1,-2
1576753993421551,0,-2,-2,0,-2,2,-4,1
1576753993443533,11,0,-2,0,0,-1,0,4
1576753993443533,4,0,1,-3,-3,2,0,-5
1576753993444493,2,-1,1,1,0,0,-1,-1
1576753993444493,-3,0,-1,1,2,0,2,-2
1576753993458477,-8,1,0,0,0,-1,-5,-4
1576753993458477,-5,-2,-1,-1,-3,-6,2,-7
1576753993459446,2,-1,-3,-1,-1,-4,-3,-1
1576753993459446,0,-2,0,-4,0,3,-1,-1
1576753993480425,4,-1,-1,0,-1,-2,1,-1
1576753993480425,-6,-2,-1,-1,-2,1,2,1
1576753993481393,4,1,-2,1,-2,0,-1,-7
1576753993481393,-2,-2,-1,0,3,-3,0,-1
1576753993504360,5,2,-1,2,0,0,-2,5
1576753993504360,-1,-4,-4,-2,-2,-2,2,2
1576753993504360,-2,3,-1,1,-1,4,0,-1
1576753993504360,2,0,-2,0,0,-2,-2,-2
1576753993518291,-1,-1,-2,-2,2,0,0,2
1576753993518291,-2,-1,1,-2,3,-4,-3,-1
1576753993519290,-4,-1,-2,-4,-1,0,1,0
1576753993519290,0,-2,0,-1,-2,-2,-1,3
1576753993540297,-3,-2,0,3,-3,1,0,-1
1576753993540297,1,0,-1,4,-2,1,0,-2
1576753993541229,5,-2,0,-3,-2,-2,-3,-2
1576753993541229,-3,0,2,-1,-2,-1,1,-4
1576753993564267,3,2,1,0,0,-1,-2,4
1576753993564267,-1,2,-3,-1,-5,-3,-5,-2
1576753993564267,-5,-1,-1,-4,-2,-1,2,-2
1576753993564267,7,-3,-4,-2,-2,-3,-3,0
1576753993578230,5,-1,1,-1,-2,1,1,0
1576753993578230,5,3,1,3,2,1,-4,1
1576753993579172,-1,-2,-1,-1,0,-2,-4,-6
1576753993579172,-5,0,-6,-1,0,-3,1,-5
1576753993601147,-9,0,0,-2,-2,2,0,-5
1576753993601147,4,-1,0,-3,-2,-3,1,5
1576753993601147,2,-1,0,0,0,1,-3,-4
1576753993601147,-8,3,1,-2,-1,-1,2,1
1576753993624107,4,-2,0,0,-1,-2,-1,-1
1576753993624107,-4,-3,-3,0,-5,0,2,-5
1576753993625008,-2,2,0,2,0,0,-2,-1
1576753993625008,5,-1,-3,-1,-2,0,-3,-2
1576753993638072,0,-3,-2,-4,-4,-4,2,4
1576753993638072,6,-5,-2,-1,1,0,-2,-9
1576753993639002,3,0,2,-1,-2,-3,-1,-1
1576753993639002,4,1,-2,0,0,-1,0,0
1576753993660909,3,-2,0,-1,0,0,-1,2
1576753993660909,10,0,0,1,0,1,1,3
1576753993661904,-1,-2,-1,1,-1,-5,1,0
1576753993661904,5,-4,2,1,2,1,-1,0
1576753993683858,3,-1,-4,-4,0,-2,1,1
1576753993683858,2,-2,1,0,3,2,-1,0
1576753993684849,4,-1,0,0,0,-1,1,1
1576753993684849,2,0,-1,2,0,-1,-1,2
1576753993698810,-2,-1,-2,3,0,0,0,-4
1576753993698810,-1,1,3,1,1,-1,-4,-2
1576753993698810,-5,-3,-3,-3,-2,2,0,0
1576753993698810,0,-2,-1,0,-2,2,0,1
1576753993720801,4,3,0,0,0,0,0,1
1576753993720801,-5,-1,-1,-2,-3,-4,-2,-4
1576753993721747,-4,1,-5,-2,-4,0,-2,2
1576753993721747,2,2,1,-3,1,-3,0,1
1576753993743721,0,1,-2,-1,-4,-1,-1,-5
1576753993743721,4,0,0,3,0,-5,2,6
1576753993744685,4,-5,-1,0,0,1,0,-1
1576753993744685,1,1,2,-3,-1,-2,-4,4
1576753993757695,-1,0,0,0,-3,-1,-1,1
1576753993757695,2,-2,-2,-1,2,-1,-2,3
1576753993765628,-4,1,-4,-1,-2,-1,-3,-4
1576753993765628,-3,-1,0,-4,-2,-1,0,-4
1576753993780640,3,-3,-2,-4,-4,-3,2,5
1576753993780640,-1,0,-2,1,-3,0,1,2
1576753993781615,3,1,1,-3,2,0,-5,-1
1576753993781615,2,-4,-2,-3,-3,-2,1,-2
1576753993803633,2,-4,-2,3,0,-1,2,-3
1576753993803633,2,0,-2,-2,0,0,0,2
1576753993804525,-1,-3,0,0,-1,-1,0,1
1576753993804525,3,-2,-2,0,-1,0,-2,-5
1576753993817533,-1,-7,0,0,0,0,-2,2
1576753993817533,-1,-1,-2,-1,-3,-1,-2,-3
1576753993825571,2,-1,1,2,2,0,-3,-4
1576753993825571,-1,-1,-2,-3,-1,-2,2,3
1576753993840430,7,-1,-1,-1,-1,2,1,-2
1576753993840430,2,-1,-2,1,2,-1,-2,-3
1576753993841427,2,0,-2,0,-5,-5,-2,0
1576753993841427,1,-5,-1,-2,0,-1,1,-2
1576753993864412,-1,-1,-2,1,0,0,0,-1
1576753993864412,-3,-2,-3,-4,-1,-2,-1,-5
1576753993864412,-3,-1,-2,-4,-2,-1,-1,-3
1576753993864412,4,3,-2,2,2,-1,-3,3
1576753993877432,0,-1,-2,0,-1,-3,1,-3
1576753993877432,0,0,-1,-1,-4,0,0,-1
1576753993886306,0,0,-1,1,2,-1,1,-1
1576753993886306,-1,1,-1,-2,-2,-4,-3,-6
1576753993901266,7,-2,2,-1,-3,0,-2,1
1576753993901266,-5,-2,-3,-3,0,-1,1,1
1576753993901266,4,-2,1,-1,-3,-1,0,2
1576753993901266,-6,0,3,-3,-2,0,-4,0
1576753993924309,-4,1,0,-2,0,-4,2,5
1576753993924309,-1,-2,-2,2,-3,0,-1,-4
1576753993924309,-6,1,-3,1,0,-2,-3,-1
1576753993924309,5,-2,-1,1,-1,-1,0,-3
1576753993946240,1,1,-1,-2,1,-2,-1,2
1576753993946240,4,-2,-2,-2,-3,1,0,-4
1576753993947146,-2,0,-3,-1,1,2,0,0
1576753993947146,-1,1,0,0,-4,0,0,-2
1576753993961160,-3,-2,-5,-1,2,1,0,-2
1576753993961160,2,0,1,0,0,3,-2,3
1576753993961160,-4,2,4,0,-1,-1,-1,-5
1576753993961160,1,0,0,1,1,1,2,0
1576753993984149,-6,1,-1,-2,-3,1,-2,-3
1576753993984149,-4,0,-2,3,1,-1,0,0
1576753993985044,6,-2,-2,1,-2,-2,0,-2
1576753993985044,-2,1,2,-2,0,-1,-1,0
1576753993998050,-7,-1,2,-1,-3,-2,2,-1
1576753993998050,3,2,-2,0,0,-4,-2,0
1576753994006091,3,-2,1,-2,-4,-3,-4,1
1576753994006091,6,1,-1,-2,2,-2,1,1
1576753994021048,6,3,0,2,4,0,1,4
1576753994021048,2,-1,-4,-3,-1,-1,-2,0
1576753994021943,2,2,-2,0,0,-1,0,-2
1576753994021943,1,-2,-1,-1,-2,-2,0,-1
1576753994043927,0,0,1,-1,-3,1,1,1
1576753994043927,0,2,1,4,-2,1,-2,-1
1576753994044908,3,-1,0,-2,-2,-1,-2,-2
1576753994044908,2,0,-2,-1,-3,-1,2,-2
1576753994057966,0,-2,-1,-2,-1,0,0,3
1576753994057966,3,-3,0,-3,0,-1,-1,1
1576753994065827,-2,0,-1,-1,0,-2,1,-1
1576753994065827,2,-1,-3,-1,2,0,1,-2
1576753994080888,16,-5,-1,0,-1,0,2,4
1576753994080888,-7,-1,-2,0,-1,0,2,-2
1576753994081829,0,1,-1,1,3,0,0,-1
1576753994081829,8,-2,1,-2,-4,1,-2,4
1576753994103831,0,2,-2,-2,0,-5,-2,-2
1576753994103831,2,-2,1,1,-2,3,0,-1
1576753994104723,-4,-2,-6,-2,-3,-1,2,1
1576753994104723,-3,-1,-1,-3,-3,0,0,-1
1576753994126779,4,1,-1,-1,-3,-3,-4,1
1576753994126779,3,-1,3,2,0,-2,-1,3
1576753994127660,-3,-3,0,-4,-2,0,-4,1
1576753994127660,3,0,-2,-1,2,-3,-4,2
1576753994140728,10,-2,2,-1,-2,0,0,-2
1576753994140728,4,-1,-2,-1,1,-2,0,-6
1576753994141629,1,-1,0,0,0,3,-1,-5
1576753994141629,-2,-1,-2,0,-2,0,0,-10
1576753994163670,0,-3,0,-1,0,0,-3,-2
1576753994163670,-2,3,0,-4,-1,0,0,-1
1576753994164562,7,-4,1,0,-3,-2,-1,-2
1576753994164562,4,-4,1,6,5,0,2,5
1576753994186607,-2,1,-2,-1,-2,4,0,-3
1576753994186607,-4,0,1,-1,-6,-3,-1,1
1576753994187503,0,-3,-1,0,-1,-1,-2,2
1576753994187503,-6,0,-2,-4,-2,-3,-3,2
1576753994200500,-8,-2,0,1,4,2,-1,-4
1576753994200500,-2,-1,-2,-2,-2,-3,-2,-4
1576753994201465,0,0,-1,-1,-1,1,3,1
1576753994201465,0,-2,-5,-2,-2,-1,1,-4
1576753994224449,-7,1,-1,-2,-1,1,0,1
1576753994224449,-3,-2,-1,-1,0,0,-2,-7
1576753994224449,5,2,0,2,2,-1,-1,3
1576753994224449,-2,2,0,-2,-1,-1,-1,-2
1576753994246442,0,-2,-2,-1,-2,-3,2,1
1576753994246442,0,0,2,0,-1,1,1,2
1576753994247342,3,0,-1,-2,0,0,-3,0
1576753994247342,-1,0,1,-1,-2,-3,-3,-4
1576753994260408,-9,0,-2,1,0,-2,-1,-5
1576753994260408,0,-4,-1,-2,-2,-1,1,-3
1576753994261303,-7,3,-2,1,1,-2,-1,0
1576753994261303,-4,-3,-1,-2,-1,-1,-2,1
1576753994284355,11,-4,1,0,0,0,1,-4
1576753994284355,-2,0,-3,1,0,3,-3,0
1576753994284355,-4,1,-4,-2,2,-2,-2,0
1576753994284355,-2,-3,-1,0,-2,1,-3,-4
1576753994306288,5,-1,-2,0,-1,0,-1,4
1576753994306288,4,0,2,3,1,0,2,1
1576753994307182,0,-3,-2,-2,-3,2,0,-2
1576753994307182,1,-1,0,0,1,-3,-2,-1
1576753994321189,-5,0,0,1,-2,-1,-4,-4
1576753994321189,-4,1,-4,1,-4,-1,-3,-2
1576753994321189,-5,-1,0,-3,-2,-6,-1,-3
1576753994321189,-3,-4,-3,2,2,0,3,-1
1576753994343188,4,-1,-1,-5,-3,1,-1,1
1576753994343188,2,-2,-3,1,1,-4,-2,0
1576753994344084,1,0,1,0,1,-3,-3,-3
1576753994344084,-1,1,0,-1,-1,-1,-1,-3
1576753994366023,4,-2,2,0,0,-1,1,4
1576753994366023,0,0,-1,0,-1,2,-2,-2
1576753994367023,4,0,1,-4,-1,1,-3,-2
1576753994367023,-2,1,-2,-3,0,-1,0,-1
1576753994381107,-16,-3,-5,-2,0,1,-2,-5
1576753994381107,-1,-1,2,0,-3,-1,1,-2
1576753994381107,2,-2,1,-1,-1,-2,0,2
1576753994381107,5,2,0,-1,-4,-1,-1,-2
1576753994403028,7,-1,-1,0,0,-5,3,1
1576753994403028,-6,-3,-1,2,-1,1,2,-2
1576753994403924,10,-2,-1,-1,-1,-1,-2,-2
1576753994403924,-7,0,2,0,-1,-1,1,2
1576753994426905,5,-2,-3,-2,-4,-3,-2,-4
1576753994426905,2,-2,0,0,2,0,0,1
1576753994426905,-1,-3,2,-1,-1,1,0,-1
1576753994426905,-2,0,-1,-2,0,2,-1,0
1576753994440929,3,2,0,-1,0,-2,3,1
1576753994440929,-3,-3,-2,-2,-3,0,0,-5
1576753994441868,-6,-1,0,-1,-1,-1,-1,-4
1576753994441868,13,-1,1,-1,-1,-2,-2,0
1576753994463761,0,1,-1,-3,-2,1,1,1
1576753994463761,3,-2,0,-1,0,-3,-1,0
1576753994463761,0,-2,-2,-3,-1,-2,0,3
1576753994463761,51,-5,0,1,-4,4,11,18
1576753994486746,-21,-2,-7,11,-11,-2,-7,-18
1576753994486746,-14,3,0,-2,2,-4,-9,-11
1576753994486746,-3,-1,-3,-9,2,-5,-4,-3
1576753994486746,-15,-4,1,-7,5,1,-1,1
1576753994500706,-2,-3,2,-2,3,0,2,10
1576753994500706,1,-1,-3,1,-1,0,-2,2
1576753994501662,-10,-4,-4,1,0,-1,-1,-7
1576753994501662,-8,0,-1,-2,-3,-1,0,-4
1576753994523604,13,1,3,1,3,0,3,6
1576753994523604,-7,0,-1,0,-2,-2,-1,-7
1576753994523604,6,3,-1,-1,-1,0,3,0
1576753994523604,1,-4,-1,-1,-2,-2,-1,-1
1576753994546542,6,2,1,1,-2,0,-5,2
1576753994546542,13,1,-2,-3,0,0,-2,-1
1576753994547541,-4,0,2,1,0,0,1,0
1576753994547541,-4,-1,-1,2,-1,-3,-4,1
1576753994560608,2,-2,-1,-2,0,1,-1,-2
1576753994560608,6,-3,-2,-3,0,-2,2,3
1576753994561502,7,-3,0,3,-1,0,-1,-1
1576753994561502,-6,0,-3,0,1,0,-2,-5
1576753994583495,1,3,3,-1,1,-5,0,5
1576753994583495,6,-4,-1,0,-4,-2,-1,1
1576753994584438,-3,-2,-3,-1,-3,1,2,0
1576753994584438,-4,-1,-2,-2,-1,-1,-5,-5
1576753994606484,1,0,1,-3,-3,0,0,5
1576753994606484,8,0,3,0,-2,-5,1,4
1576753994607386,-4,4,-1,1,-3,-2,-2,-2
1576753994607386,-2,-2,-1,-1,0,1,-2,3
1576753994620447,-4,-2,0,-1,0,1,1,-6
1576753994620447,7,1,-2,-2,0,-5,-6,-1
1576753994621345,-2,-1,-4,-2,-1,-2,1,-2
1576753994621345,-6,2,1,-1,-1,1,-2,-2
1576753994643378,5,1,-4,-1,1,2,-3,3
1576753994643378,-2,-1,0,-1,-5,3,1,-2
1576753994644333,12,-4,-2,2,-4,-1,-3,1
1576753994644333,-11,0,0,2,-1,0,1,-4
1576753994666221,0,3,-1,-1,0,-2,-3,-1
1576753994666221,-10,0,-1,1,0,-2,-2,-4
1576753994667222,-1,1,-3,-2,0,-2,0,4
1576753994667222,2,-5,0,-2,1,-1,1,-3
1576753994680285,4,-1,-2,-3,0,-2,-1,-1
1576753994680285,3,-1,0,0,2,1,0,3
1576753994696210,3,0,1,1,0,0,-3,-3
1576753994696210,2,2,0,1,-1,-3,-4,1
1576753994703159,2,-5,-3,0,1,0,5,3
1576753994703159,1,0,-4,-3,-2,1,-3,-1
1576753994704128,-1,-2,1,0,-2,0,-4,-2
1576753994704128,4,2,0,-1,3,-1,1,1
1576753994726163,4,-4,0,1,0,0,-1,1
1576753994726163,0,0,-1,1,-2,-2,0,-3
1576753994727060,0,1,1,-2,2,1,-2,1
1576753994727060,-4,-4,-4,-3,-4,-2,-1,-5
1576753994740078,-4,-2,-1,0,1,1,0,-1
1576753994740078,0,-2,-3,0,1,1,-1,-3
1576753994748104,-1,0,0,-2,-2,0,0,-2
1576753994748104,-4,-1,-5,-1,-2,-2,-1,1
1576753994763058,2,2,0,0,-4,-1,0,-3
1576753994763058,1,0,3,-3,0,1,-3,3
1576753994763969,8,-3,0,3,2,0,-2,-2
1576753994763969,4,0,-1,1,-1,-2,2,3
1576753994786924,2,-2,-4,0,0,0,2,-2
1576753994786924,-3,0,4,0,-1,-2,-1,-2
1576753994786924,4,-4,-1,-2,-2,-5,-2,-6
1576753994786924,10,0,0,-3,1,-1,0,-2
1576753994808942,2,0,2,-2,0,0,-4,2
1576753994808942,-1,-2,0,1,-3,-1,-2,-2
1576753994809893,-5,0,1,0,2,-2,2,0
1576753994809893,-2,-1,-1,2,0,-1,-2,3
1576753994823801,0,-1,-3,-1,-3,-2,0,-2
1576753994823801,1,-3,-2,0,0,1,3,-1
1576753994823801,3,0,-1,0,-2,-1,-1,3
1576753994823801,0,1,2,-2,-2,-2,-5,-5
1576753994846852,2,-3,-1,-1,3,0,3,3
1576753994846852,1,2,-2,1,1,-5,-1,-1
1576753994847737,-8,-3,-4,-2,-4,-2,-4,-1
1576753994847737,4,-2,0,-4,-2,0,0,3
1576753994859807,6,2,-1,2,-1,-3,0,1
1576753994859807,-4,-2,-4,-3,-1,-2,-1,-3
1576753994868719,4,1,2,1,1,0,-1,4
1576753994868719,0,0,-1,-1,-1,-2,-2,-6
1576753994883687,5,-3,1,-1,-3,-1,1,0
1576753994883687,1,2,3,0,-3,-3,-2,5
1576753994883687,4,1,-1,-2,0,0,1,1
1576753994883687,0,0,-1,-3,-3,2,3,-2
1576753994906678,6,-1,3,-2,-1,-1,-2,3
1576753994906678,-7,0,-4,-1,-3,0,2,-4
1576753994907612,2,-2,1,-2,0,1,-1,-2
1576753994907612,-1,-1,0,2,-2,-3,1,1
1576753994920580,0,-4,-2,2,-1,-2,-1,-1
1576753994920580,5,-4,2,2,-1,1,3,0
1576753994928633,1,0,2,1,0,1,-3,1
1576753994928633,7,-2,-4,-2,1,0,-4,-2
1576753994943489,17,0,1,2,1,0,2,2
1576753994943489,5,-2,-3,-1,-1,-3,-1,-1
1576753994944477,-4,-1,-1,-2,0,2,1,0
1576753994944477,-3,-2,1,-3,0,0,-2,-1
1576753994966425,-3,0,-2,-2,-1,-1,-1,-1
1576753994966425,1,-3,-2,-1,-1,0,-3,0
1576753994967420,-3,0,0,-3,0,-2,-3,-1
1576753994967420,1,0,-1,0,2,-2,2,4
1576753994980479,-15,1,1,0,-3,0,0,-5
1576753994980479,-2,1,0,-1,1,3,0,0
1576753994988460,-1,2,-5,-4,-6,-4,-3,-1
1576753994988460,6,-2,-1,0,1,-2,-3,-1
1576753995003422,12,-3,-4,-1,-3,-1,1,2
1576753995003422,2,-2,2,-1,-3,-2,0,0
1576753995004327,-9,-1,-1,-4,1,-1,0,6
1576753995004327,9,0,0,-2,-4,1,1,3
1576753995026354,-4,-2,1,-2,-1,-3,0,-5
1576753995026354,4,-3,-3,0,0,2,0,-2
1576753995027260,5,1,-5,0,2,-1,-1,-3
1576753995027260,-1,-1,-5,0,1,-1,3,3
1576753995049197,2,1,1,-1,0,-3,-1,5
1576753995049197,2,3,-3,-2,-3,-2,-1,-1
1576753995050202,2,-4,0,-2,0,0,1,-8
1576753995050202,0,1,0,-2,-2,-2,1,0
1576753995063260,8,-3,-3,2,1,4,1,2
1576753995063260,-1,0,0,-2,-1,-2,-2,-3
1576753995064201,5,0,0,0,-2,0,-3,-2
1576753995064201,9,-3,-2,-1,0,0,-1,4
1576753995086197,1,0,0,0,-2,-2,-3,-2
1576753995086197,-9,1,-1,-3,-1,-2,-2,-1
1576753995087097,8,0,3,-2,1,-4,-2,0
1576753995087097,-2,-2,-3,-3,2,0,-1,0
1576753995109140,-6,1,1,1,-2,1,-2,-3
1576753995109140,-1,0,-2,2,-1,-1,0,-4
1576753995110088,-4,-2,-1,0,0,-1,0,3
1576753995110088,-3,0,-1,0,0,-4,-1,0
1576753995123008,-7,-3,-2,-2,-2,0,-4,-3
1576753995123008,4,-3,-2,0,2,-2,-5,-2
1576753995124004,2,0,2,-1,-1,0,-1,-5
1576753995124004,0,1,-1,1,-3,-1,-3,-1
1576753995145939,-2,1,-2,-1,-1,0,3,0
1576753995145939,2,-1,-2,-1,-1,-3,-3,0
1576753995146934,2,1,-1,1,-2,0,0,-3
1576753995146934,4,-4,3,0,-2,-2,2,-1
1576753995168977,-3,1,-1,-1,1,1,1,-5
1576753995168977,4,3,0,1,0,-2,0,1
1576753995169909,-1,-3,-1,1,1,0,1,2
1576753995169909,1,-1,0,-1,-2,1,-3,-3
1576753995182841,-12,-1,1,1,-1,0,-5,-2
1576753995182841,2,-3,-2,-2,-4,1,-2,6
1576753995183836,-1,1,1,-3,0,0,4,-2
1576753995183836,2,-1,-1,-2,-2,-1,1,-1
1576753995206886,2,1,-1,0,1,-2,1,2
1576753995206886,4,-3,-2,-1,-2,0,-2,-2
1576753995206886,0,-2,-2,0,-1,-1,-2,-1
1576753995206886,-1,-4,1,-2,0,4,1,2
1576753995228819,-4,-3,-1,-2,-3,-3,0,-3
1576753995228819,0,3,0,2,0,0,-1,0
1576753995229719,7,-1,-2,-1,-3,-2,-2,-2
1576753995229719,3,1,0,1,0,0,2,0
1576753995243717,-1,-4,-3,-2,-4,-2,-4,-3
1576753995243717,-3,5,-1,-1,-2,1,-4,-6
1576753995243717,-11,-4,-1,-2,-2,-2,0,-3
1576753995243717,-5,0,-3,2,1,0,0,0
1576753995266654,8,0,-1,0,-1,-1,-1,1
1576753995266654,-4,-1,1,-1,-4,-2,-1,-3
1576753995267621,2,2,-2,0,2,-1,-3,-4
1576753995267621,-3,-2,-4,-2,1,-2,0,-1
1576753995289556,2,2,4,0,0,1,0,-1
1576753995289556,1,-4,1,-1,0,-2,-1,-1
1576753995289556,-1,-3,-1,-2,-3,-3,-3,-2
1576753995289556,5,0,0,-1,0,-2,-2,-2
1576753995303625,-10,0,-3,-2,-2,-1,-3,-2
1576753995303625,1,-4,-1,-5,-4,1,-2,-4
1576753995304526,-5,3,-1,-1,0,-1,-1,1
1576753995304526,3,-1,-2,-2,0,-2,-1,-3
1576753995326556,0,-1,-2,0,-3,-2,1,0
1576753995326556,-3,3,0,1,-1,3,-4,0
1576753995327467,3,1,-1,0,3,-1,-2,0
1576753995327467,-5,-1,2,-1,0,0,4,0
1576753995349398,5,2,0,1,1,0,1,5
1576753995349398,-3,-1,-1,0,0,-4,1,-5
1576753995349398,-4,-3,-5,0,-1,2,1,0
1576753995349398,-5,1,2,0,-2,-1,-2,8
1576753995363456,2,-2,0,-1,-1,0,-2,-2
1576753995363456,-1,-2,1,1,4,1,2,3
1576753995364402,-2,0,0,-1,-1,0,-1,-3
1576753995364402,8,2,-3,0,-2,1,0,-1
1576753995386394,0,-8,-5,-2,-4,-1,-1,2
1576753995386394,3,-2,0,-1,-2,-2,-1,1
1576753995387299,0,-3,-3,-3,-3,0,0,0
1576753995387299,0,-3,-2,0,0,-1,1,2
1576753995409340,1,1,1,-2,-3,1,1,-1
1576753995409340,-1,3,-3,-1,1,-1,-1,-1
1576753995409340,0,-1,1,2,-2,-3,-4,1
1576753995409340,0,-1,-1,0,-3,-2,-1,-2
1576753995423299,2,-1,-3,0,1,-1,-1,-3
1576753995423299,0,-3,-2,-2,-2,-3,-3,3
1576753995424201,3,2,1,-1,0,1,-1,-3
1576753995424201,4,-4,1,-1,1,2,-1,-1
1576753995446231,0,0,-1,0,0,0,-1,-2
1576753995446231,-7,-5,-2,-3,2,-1,-1,0
1576753995447140,0,0,-1,-2,-1,-1,-1,-1
1576753995447140,-5,1,-1,0,2,1,2,-3
1576753995469177,6,-2,-2,-1,-3,1,-1,3
1576753995469177,1,-4,-1,0,0,1,-1,-3
1576753995470082,1,2,-3,-3,-2,-4,-1,-1
1576753995470082,0,0,-2,-2,-4,0,0,0
1576753995483036,-6,-5,1,2,-2,-1,-1,-1
1576753995483036,-2,0,2,0,-1,-2,-1,-5
1576753995491126,-2,-2,1,-3,0,0,1,-3
1576753995491126,1,1,-2,2,-1,-3,-3,1
1576753995506078,0,-1,0,0,-2,0,-4,-2
1576753995506078,-7,3,-3,-2,-5,1,1,-3
1576753995506984,1,1,-1,2,-1,-2,3,-1
1576753995506984,2,-2,-2,0,1,-2,-1,1
1576753995529015,0,-1,0,-2,-1,-6,0,-2
1576753995529015,-5,-2,-2,-2,-1,-3,-1,-1
1576753995529964,-2,-3,1,-1,-1,-1,1,-2
1576753995529964,1,1,0,-3,-1,-2,4,0
1576753995542979,3,0,-2,2,-2,-2,-1,-4
1576753995542979,1,1,0,-1,-1,-6,-2,0
1576753995543875,-1,-2,-3,-1,-3,0,-3,-3
1576753995543875,3,-1,0,0,1,-3,0,1
1576753995565817,2,0,-3,-3,1,0,0,3
1576753995565817,7,-2,-2,-1,0,4,-1,-2
1576753995566820,-1,-1,-1,-1,2,-4,-3,5
1576753995566820,6,-3,0,-2,-1,1,-2,-1
1576753995588855,2,-1,-1,-1,-1,-1,1,2
1576753995588855,-1,1,2,3,-1,0,0,-2
1576753995589753,4,-3,-1,0,1,0,1,3
1576753995589753,1,-1,-1,-3,-2,2,1,-3
1576753995602817,-2,-1,-1,0,-2,-1,0,-2
1576753995602817,6,-1,-1,-2,-3,-3,0,-1
1576753995610796,-2,1,-1,-3,-3,1,-2,2
1576753995610796,6,-1,1,3,1,-2,-1,1
1576753995625758,0,0,1,0,0,-1,2,1
1576753995625758,-1,0,-1,-2,1,-4,-2,0
1576753995626705,5,-2,1,-1,1,0,-2,-1
1576753995626705,0,-1,-2,-1,-2,1,-1,-2
1576753995648594,3,1,1,-1,0,1,-2,-2
1576753995648594,2,-1,0,3,-3,3,-1,-3
1576753995649592,2,-3,-2,-2,0,-3,1,2
1576753995649592,3,-2,2,0,-1,-1,-2,2
1576753995662659,7,-2,-6,-1,1,0,-1,1
1576753995662659,6,3,0,1,2,-1,-1,2
1576753995670632,1,3,-3,-1,0,1,1,0
1576753995670632,3,-2,0,-1,1,-1,-3,1
1576753995685595,-1,-1,-1,1,-4,-2,3,1
1576753995685595,0,-1,-1,-1,-2,1,-2,-1
1576753995686498,4,-2,-2,-3,0,-1,3,-1
1576753995686498,0,-1,0,0,1,-2,-2,-3
1576753995709455,1,-2,-1,2,-2,-2,0,1
1576753995709455,5,1,0,0,2,3,-3,-2
1576753995709455,-4,-4,-3,1,-4,0,1,-3
1576753995709455,0,-4,-2,-5,-1,2,0,-4
1576753995722497,-5,0,-1,-2,-2,-1,-1,-3
1576753995722497,-2,-1,2,-2,-1,-5,-1,2
1576753995731375,1,-1,-2,0,0,-2,-1,1
1576753995731375,-6,2,-1,3,-4,1,2,-3
1576753995746333,1,2,-1,1,0,1,-2,-1
1576753995746333,-2,0,-2,-1,0,-2,0,-3
1576753995746333,-2,2,1,-1,1,-1,-2,0
1576753995746333,-2,-1,1,0,-2,0,0,5
1576753995769379,2,2,2,0,1,1,2,-3
1576753995769379,0,1,-4,-1,0,-1,-2,0
1576753995769379,7,1,0,-1,3,2,-2,-1
1576753995769379,-1,-5,0,0,-2,-1,0,-1
1576753995782238,6,0,-1,-1,-2,-1,-3,-2
1576753995782238,0,-2,-2,-1,1,-2,3,-2
1576753995791252,-8,-3,1,-4,-3,-4,1,0
1576753995791252,4,0,-3,-2,0,-1,2,6
1576753995806212,5,0,-1,-2,-1,0,-4,-2
1576753995806212,-3,-3,-1,0,-1,-5,-1,-3
1576753995806212,-4,-1,-1,1,2,5,-3,0
1576753995806212,-1,-2,1,-2,-4,-4,-3,3
1576753995829206,-9,-1,0,3,-3,-2,-1,-3
1576753995829206,2,-1,-2,-2,-1,2,-2,1
1576753995830154,3,0,0,0,1,-4,1,-5
1576753995830154,4,0,-4,0,0,1,1,3
1576753995843114,-1,-1,0,-2,-1,1,-1,-1
1576753995843114,1,-4,-1,-3,-2,-1,-4,-6
1576753995851059,1,-2,-2,-1,-1,-1,-2,-3
1576753995851059,3,-3,-3,-1,0,-1,1,1
1576753995866013,3,1,-1,-4,-4,-3,0,-4
1576753995866013,-1,0,-3,-1,-2,1,-3,-5
1576753995867009,0,-2,0,4,1,1,-2,-4
1576753995867009,10,2,0,-2,3,0,-3,-7
1576753995888962,0,1,-1,0,-1,1,-2,-1
1576753995888962,-3,-3,0,0,3,1,1,1
1576753995889992,0,0,0,-1,-4,0,-2,0
1576753995889992,-2,0,1,-2,-2,2,0,2
1576753995902922,4,0,-1,1,0,-1,1,1
1576753995902922,-2,0,-2,-1,-3,-2,0,-5
1576753995910993,7,-1,1,-3,1,0,0,1
1576753995910993,-5,0,-2,-1,-3,-1,3,-1
1576753995925955,-4,-3,1,-2,1,-1,3,1
1576753995925955,-3,0,-3,-2,-3,-1,-1,4
1576753995926908,5,0,-2,0,0,0,-1,-1
1576753995926908,7,-3,-1,0,0,-3,1,2
1576753995948793,5,-2,-1,1,-1,1,-1,-3
1576753995948793,-2,0,-1,1,-2,2,0,-1
1576753995949796,1,-5,0,-4,-5,-3,-3,0
1576753995949796,6,-2,2,6,3,0,0,3
1576753995971840,-6,-5,0,0,0,0,-1,-5
1576753995971840,13,2,0,-1,-2,1,-4,0
1576753995972739,0,-2,-6,-2,-1,0,-4,0
1576753995972739,-4,-1,-1,-1,0,-1,-2,-1
1576753995985728,10,-2,1,0,0,-1,-1,0
1576753995985728,6,1,-1,-2,-1,-1,2,-4
1576753995986696,-3,-1,2,2,2,-1,-2,1
1576753995986696,-2,-5,1,-3,-2,-1,-1,1
1576753996008736,3,1,-1,-1,-1,2,3,-2
1576753996008736,-1,-2,-3,0,-1,-3,1,-1
1576753996009628,-1,-1,-2,-1,0,0,0,2
1576753996009628,-4,3,-1,0,1,0,-1,9
1576753996031668,-7,1,-2,-1,-1,1,-4,1
1576753996031668,7,-2,0,-1,0,-2,-1,0
1576753996032568,2,-2,-1,-1,-1,-3,1,4
1576753996032568,0,-1,0,0,-5,-4,-1,-4
1576753996045568,5,-3,-1,1,-1,1,2,1
1576753996045568,-1,-3,0,3,1,-2,0,-1
1576753996046572,2,2,1,-1,-1,0,-1,-5
1576753996046572,1,-1,0,-2,-4,-2,2,-3
1576753996069468,-2,3,-3,-2,-1,-2,-3,2
1576753996069468,-2,1,0,-2,0,-2,-1,-2
1576753996069468,3,-1,1,-1,-4,0,1,0
1576753996069468,4,-2,4,1,1,2,2,-3
1576753996091510,-6,0,-2,-1,-1,-1,-3,1
1576753996091510,-5,2,3,1,0,-1,-1,-2
1576753996092460,-7,2,-4,0,-2,-1,0,2
1576753996092460,4,1,-1,-1,-2,0,-1,-4
1576753996105384,-10,-2,0,4,0,1,0,-3
1576753996105384,-3,-2,0,-3,1,0,-1,-2
1576753996106371,-1,0,-2,-2,0,-2,0,-1
1576753996106371,-4,1,-2,-1,1,-1,2,-3
1576753996129376,-3,0,0,0,0,0,-3,-2
1576753996129376,-4,3,2,0,0,2,-2,-2
1576753996129376,1,-3,0,-7,1,-3,0,-3
1576753996129376,-3,-5,-2,-4,-1,-4,-5,2
1576753996151346,1,1,-1,-1,-1,-2,1,3
1576753996151346,-4,-2,-2,0,-3,0,2,2
1576753996152299,1,0,1,1,-1,-4,-3,-8
1576753996152299,-4,-4,1,1,-1,4,4,-2
1576753996166221,-6,-1,-4,-1,-4,-2,-4,-6
1576753996166221,3,-2,-3,0,-3,-2,0,-3
1576753996166221,-3,0,0,0,-1,-1,-3,-4
1576753996166221,-4,3,-2,0,0,-3,-3,-3
1576753996189246,5,0,2,0,1,1,-2,-3
1576753996189246,-2,-2,-2,-3,-2,0,-2,-7
1576753996190157,2,0,-1,-2,-2,1,-3,0
1576753996190157,-2,0,-1,-2,-1,-2,-2,-4
1576753996211189,6,-4,-3,-4,0,-2,-1,4
1576753996211189,-2,1,0,-3,0,-1,-5,1
1576753996212089,0,0,-2,-1,0,0,1,-1
1576753996212089,1,-1,-3,-1,1,0,3,-1
1576753996226163,-8,-3,-1,1,-2,-3,-1,-8
1576753996226163,-9,-2,0,-2,-3,0,1,-2
1576753996227048,-5,-5,0,-4,-1,-1,-1,0
1576753996227048,-3,2,-1,1,-1,1,-3,4
1576753996248990,-2,-1,-2,-1,-5,-4,-1,-3
1576753996248990,-1,-1,-1,1,0,1,-3,-1
1576753996250009,-2,-2,-4,-2,-5,-1,0,-4
1576753996250009,5,-1,-1,0,0,-2,-2,6
1576753996271927,3,-3,-1,-1,0,0,-2,-3
1576753996271927,4,-1,-2,-1,-2,0,-5,1
1576753996271927,-1,-2,1,2,2,0,0,2
1576753996271927,0,-4,-2,-2,-1,2,2,-3
1576753996285896,-6,2,0,1,0,-3,-2,-4
1576753996285896,-1,-1,1,-4,0,-1,0,-1
1576753996286895,4,-3,1,-1,0,-2,0,-4
1576753996286895,3,-1,-1,-2,-1,1,4,3
1576753996308863,3,-3,0,0,-1,0,2,0
1576753996308863,0,-1,2,-1,-1,0,1,-1
1576753996309865,0,6,-2,1,-2,-3,-3,-1
1576753996309865,0,-2,-1,0,-2,-1,0,-3
1576753996331768,-2,2,-2,-3,-2,1,1,-3
1576753996331768,-4,-3,-3,0,-1,-2,-1,1
1576753996331768,-2,-1,-2,0,-1,-2,-2,0
1576753996331768,-1,1,-1,-2,-3,0,0,-3
1576753996345825,2,1,2,2,-1,-3,-1,3
1576753996345825,3,-3,-2,2,0,-3,-3,0
1576753996346769,-4,2,1,0,-1,-1,-1,-1
1576753996346769,5,0,-2,-1,-2,-2,0,1
1576753996368769,3,0,-2,-2,-4,-3,-4,1
1576753996368769,0,-3,-2,-1,-1,-2,2,-1
1576753996369671,1,-1,-1,-3,1,2,-1,-1
1576753996369671,2,-3,0,1,2,-2,-2,2
1576753996391650,3,-1,-1,1,2,2,-3,-5
1576753996391650,3,2,-2,-1,0,-1,-4,1
1576753996392611,4,-1,-3,-3,-2,0,-3,0
1576753996392611,2,-1,0,0,-2,0,-2,0
1576753996405576,6,-5,-1,0,0,-1,-2,3
1576753996405576,0,2,-1,0,-3,-1,-2,-4
1576753996406567,10,-1,3,-3,1,-4,-2,5
1576753996406567,-4,-5,0,-2,-3,4,-2,-4
1576753996436531,-2,-1,-5,0,1,-1,-3,0
1576753996436531,-2,-5,-2,-3,-1,-3,-2,-2
1576753996437487,5,3,-2,0,-1,3,4,2
1576753996437487,1,-4,0,-1,0,-1,4,0
1576753996451447,-1,-3,-1,0,-1,1,-1,1
1576753996451447,1,-1,-1,0,0,-2,-1,0
1576753996452445,-3,0,-1,-1,0,0,0,-5
1576753996452445,2,2,0,0,0,-4,-3,-1
1576753996465408,6,-1,0,-2,-2,1,1,-1
1576753996465408,-2,1,3,0,1,-3,-3,-4
1576753996466410,2,-3,-2,-3,0,-1,-1,-5
1576753996466410,1,-2,-2,1,-2,0,0,-5
1576753996489345,-4,2,-1,-5,-1,-3,0,-2
1576753996489345,6,-1,1,-3,1,1,0,3
1576753996489345,-3,0,2,-2,-3,-4,1,2
1576753996489345,1,2,-2,0,4,3,2,2
1576753996511387,3,-1,0,1,-1,-1,-2,-2
1576753996511387,2,-1,1,-1,-4,-1,-2,-2
1576753996512286,-5,-5,-4,0,0,2,0,2
1576753996512286,4,1,0,-3,-3,-3,1,-1
1576753996525251,-4,0,-2,2,-1,1,-2,-1
1576753996525251,0,3,-5,2,-1,2,-1,1
1576753996526252,2,-4,-2,-1,-1,0,-1,-3
1576753996526252,-1,0,0,-1,-1,2,0,-4
1576753996549188,2,-1,1,0,1,-2,-1,0
1576753996549188,-2,-2,0,-4,0,-1,1,-5
1576753996549188,-7,1,1,0,0,-1,-3,0
1576753996549188,-1,1,-3,-1,0,0,-1,-4
1576753996571170,-2,-3,0,-3,-4,-2,1,-1
1576753996571170,1,-3,-2,0,-1,2,-2,5
1576753996572128,8,-1,-2,0,1,0,0,-1
1576753996572128,1,2,1,3,0,-2,-2,6
1576753996585090,4,-2,-1,-2,-1,-2,-4,-4
1576753996585090,-4,0,-2,-3,-3,-3,-2,-2
1576753996593102,-1,0,-1,-1,-1,1,0,1
1576753996593102,1,-4,-2,0,-2,1,0,2
1576753996609055,2,3,0,-1,0,0,0,-2
1576753996609055,-9,-2,0,1,2,0,2,-4
1576753996610026,-6,-5,-1,-1,-4,-2,-2,-1
1576753996610026,-3,-1,0,1,-3,-4,0,1
1576753996630964,-8,-1,0,0,-2,0,1,-5
1576753996630964,3,0,0,-1,2,-5,-2,1
1576753996637954,5,-4,1,4,-1,-1,-1,6
1576753996637954,7,-5,-2,-3,-3,-2,-1,-1
1576753996644932,1,1,0,1,-1,0,1,1
1576753996644932,4,0,-3,-4,-1,0,-1,-2
1576753996653011,2,-1,1,-1,1,2,0,4
1576753996653011,7,-1,-1,-2,-1,1,-1,-2
1576753996668869,0,-3,0,1,2,-1,1,4
1576753996668869,4,-1,-1,-1,-3,-1,-2,-7
1576753996669867,6,0,-1,-2,0,-5,2,1
1576753996669867,2,-1,3,-1,-3,1,1,1
1576753996691823,2,-1,-2,-1,-2,-2,-2,0
1576753996691823,0,1,2,1,1,-1,-2,2
1576753996691823,5,-3,0,1,0,-1,0,-3
1576753996691823,-1,-2,-3,-2,-4,-2,-2,0
1576753996704813,4,-1,0,-2,-3,-2,1,-3
1576753996704813,-4,-1,2,-2,-1,0,0,2
1576753996713744,6,-3,-2,1,-1,0,-4,-4
1576753996713744,-6,1,-1,-1,-1,1,1,-2
1576753996727751,1,3,-2,1,-1,0,-3,-1
1576753996727751,-2,-3,-1,1,-1,-2,1,2
1576753996728704,1,2,-1,-3,-1,0,-1,2
1576753996728704,-1,-3,1,2,0,-3,-2,-6
1576753996751643,0,0,-1,-2,-2,-4,-1,3
1576753996751643,0,0,-2,0,2,-1,-2,-2
1576753996752640,-2,1,-1,-5,0,1,3,1
1576753996752640,0,-2,0,-1,2,1,0,5
1576753996773586,5,-2,-3,-2,-2,2,-1,-7
1576753996773586,4,-3,-3,0,0,-1,0,-6
1576753996774586,-3,-1,2,0,-1,-1,1,2
1576753996774586,4,2,-1,-1,0,1,-7,1
1576753996788587,-4,-1,0,-1,1,2,0,0
1576753996788587,3,-2,2,2,-1,2,1,2
1576753996788587,3,-1,-3,-2,0,1,0,-1
1576753996788587,3,0,1,3,0,-1,2,1
1576753996811528,-3,-2,2,-4,-3,1,-2,1
1576753996811528,4,-3,-4,-4,-2,-2,-4,-1
1576753996812485,9,2,0,-2,1,-1,-2,0
1576753996812485,5,-1,-1,-1,4,-3,1,-2
1576753996825479,1,-2,-3,-1,1,-2,-4,-1
1576753996825479,2,-1,2,-1,0,2,1,2
1576753996833468,-5,-4,1,1,-1,0,1,3
1576753996833468,-5,1,0,0,-4,0,2,-1
1576753996848385,12,-4,4,-1,-2,0,-2,-5
1576753996848385,-3,0,0,-3,-2,0,-1,0
1576753996849384,8,-2,-1,-2,0,3,-1,4
1576753996849384,1,0,-1,-2,-1,-1,1,-4
1576753996871366,-2,-1,1,2,-1,0,0,2
1576753996871366,0,1,-3,-3,1,0,-4,-2
1576753996872323,-2,2,-3,-1,-3,-2,-2,-4
1576753996872323,3,0,-1,1,1,-1,-1,4
1576753996885327,1,0,-4,-1,2,-3,-1,0
1576753996885327,2,1,2,-5,-5,-3,-3,-8
1576753996893306,-4,0,2,-1,0,1,0,-3
1576753996893306,5,-1,-1,0,0,0,0,0
1576753996908268,9,-2,-2,1,-2,0,-1,-1
1576753996908268,4,-1,0,0,1,1,2,2
1576753996909225,-1,-1,1,-1,0,-1,-1,-5
1576753996909225,1,-4,-3,-1,-1,0,2,-1
1576753996931208,-7,-2,0,1,-2,1,0,-5
1576753996931208,1,-2,1,2,-2,-1,-1,1
1576753996932163,-5,1,-2,-2,-3,-2,-4,-3
1576753996932163,4,-2,0,1,-1,-1,-1,3
1576753996954101,0,-2,-3,-2,0,-2,0,-1
1576753996954101,0,-1,-1,-1,2,-3,-3,3
1576753996955102,2,-6,-2,-3,1,-1,2,-1
1576753996955102,0,0,0,-1,-2,0,3,6
1576753996968063,1,1,-1,-1,-1,-1,-3,2
1576753996968063,0,-4,2,-1,-1,-1,-1,0
1576753996969066,1,1,0,-1,0,-4,0,-2
1576753996969066,-1,-3,-1,-2,-1,1,-1,-5
1576753996991002,-5,0,-2,-3,-4,0,0,1
1576753996991002,-5,3,-1,-1,0,-4,-1,-1
1576753996992006,2,-6,-3,-1,1,0,3,5
1576753996992006,-4,0,0,-2,-3,-3,0,-4
1576753997013941,-2,4,-1,2,1,-1,-1,2
1576753997013941,3,-4,-2,1,-1,0,-2,0
1576753997014939,2,4,-1,-1,-3,1,-2,6
1576753997014939,7,0,2,0,1,0,1,4
1576753997027905,-4,0,1,1,0,-1,-3,-5
1576753997027905,4,3,-3,-1,0,-4,2,4
1576753997028901,0,-1,1,2,-2,-1,0,1
1576753997028901,-1,-2,-4,0,-2,0,-3,-3
1576753997050843,0,3,1,-1,0,-4,-1,2
1576753997050843,2,-6,-3,-4,0,2,-2,-1
1576753997051839,2,1,-2,0,-4,-2,1,-2
1576753997051839,-3,1,-1,-2,-2,1,-1,-2
1576753997073780,5,2,-1,1,2,1,0,-3
1576753997073780,0,1,0,-3,-2,-3,-3,0
1576753997074778,-1,-3,-1,1,2,-1,1,-3
1576753997074778,6,-2,0,0,-1,-2,-1,0
1576753997087743,-15,-3,-5,0,-2,1,-4,-3
1576753997087743,-1,1,0,-2,-2,-1,3,-3
1576753997088742,8,1,1,0,3,0,-5,-1
1576753997088742,-5,1,0,-3,-2,-5,-3,-1
1576753997111680,14,-5,-1,-1,-2,-1,3,-1
1576753997111680,2,3,0,1,-2,-2,3,4
1576753997111680,-2,-2,-2,-3,-2,-2,-2,-4
1576753997111680,-5,1,-4,-1,-3,0,-2,-2
1576753997133621,2,-2,0,-1,0,-2,-1,-4
1576753997133621,-6,0,-2,-1,2,2,0,-1
1576753997134618,0,-3,1,1,1,1,-1,0
1576753997134618,2,-3,0,-1,0,0,-3,-2
1576753997148581,-10,2,0,-3,-2,2,-2,-3
1576753997148581,-2,-1,1,-1,-1,-2,-1,0
1576753997148581,-1,2,-4,-2,-3,1,1,0
1576753997148581,-2,-2,-3,-2,-3,-3,0,-1
1576753997171519,3,-4,1,-3,1,-2,1,-2
1576753997171519,2,-3,0,-2,-1,-1,-1,-6
1576753997172518,-2,0,-2,-3,-2,-3,1,0
1576753997172518,-2,0,1,-2,0,1,2,0
1576753997193461,3,1,-1,-2,-1,-2,1,2
1576753997193461,6,-4,-1,0,1,2,-4,2
1576753997194459,-4,-4,-3,-3,-2,-2,-3,1
1576753997194459,3,0,-1,-1,-2,-2,-2,-1
1576753997208420,-14,-2,-3,-1,-4,-2,-2,-3
1576753997208420,3,-2,0,-4,1,-2,1,2
1576753997209419,-1,-1,-1,1,-2,-1,2,-1
1576753997209419,1,-3,0,-1,-1,0,-2,-3
1576753997231359,-3,0,4,-5,1,0,-2,0
1576753997231359,2,-2,-2,-2,-7,-2,-4,-3
1576753997232357,-5,0,0,3,0,2,2,-2
1576753997232357,2,0,1,2,2,0,1,-1
1576753997254299,5,-1,0,-3,-1,-3,-4,-3
1576753997254299,-6,-3,-2,-2,1,0,-1,11
1576753997254299,4,0,2,-1,-1,-1,-2,-1
1576753997254299,4,0,-4,1,-1,2,1,1
1576753997268261,-1,0,-2,0,2,-3,0,0
1576753997268261,-4,-2,0,1,0,0,2,-1
1576753997269259,8,-4,-1,0,-3,1,1,0
1576753997269259,1,-1,-1,2,-1,-2,0,0
1576753997291199,7,-2,-1,2,-1,0,-2,-1
1576753997291199,0,0,-4,-2,-1,-1,-1,-4
1576753997292197,1,0,1,-1,0,1,2,1
1576753997292197,-3,-1,2,2,-2,-2,-1,-4
1576753997314139,-2,1,-2,-2,0,-2,1,2
1576753997314139,3,-3,-3,1,-3,-2,-3,-5
1576753997315135,-2,0,-2,-3,1,-4,-3,4
1576753997315135,1,-3,-3,-3,-2,0,-1,-2
1576753997328101,-3,-1,0,2,-3,1,0,-4
1576753997328101,7,3,2,2,3,1,-3,0
1576753997329098,0,-2,-3,0,0,-1,-4,0
1576753997329098,-8,-4,-1,0,0,1,0,-3
1576753997351040,9,-4,-2,1,-1,0,3,5
1576753997351040,-1,-2,0,-3,-2,-1,-1,-5
1576753997352039,0,1,-1,1,0,-1,0,-4
1576753997352039,-3,-1,-1,-2,-1,-4,-3,-1
1576753997373978,0,-1,-3,-2,-3,-2,-4,-1
1576753997373978,-1,1,-1,1,1,-1,1,4
1576753997374976,1,-4,-2,-2,1,-3,1,0
1576753997374976,5,1,3,3,-1,-1,0,1
1576753997387941,-3,-2,0,-2,-2,1,0,-2
1576753997387941,4,-1,-2,-4,1,2,3,-7
1576753997388938,1,0,0,-1,2,1,0,-8
1576753997388938,-1,-4,1,-1,-4,-1,-2,-3
1576753997411877,5,-3,-1,0,-2,-1,-4,-1
1576753997411877,-1,0,-2,0,-3,-1,-1,2
1576753997411877,5,-1,-3,3,0,-1,2,4
1576753997411877,2,3,-3,-1,0,0,2,4
1576753997433819,3,4,1,2,4,-2,-5,-5
1576753997433819,-3,0,-2,-3,-1,-1,-2,3
1576753997434816,1,-3,-1,-5,-4,-1,0,3
1576753997434816,-2,-1,2,-3,-3,-1,1,6
1576753997447780,1,3,-3,-2,1,1,0,0
1576753997447780,-4,-1,-3,-3,-2,-2,0,-2
1576753997448781,-2,-1,0,0,0,2,3,-1
1576753997448781,0,-5,-1,-1,0,-3,-1,-1
1576753997471717,-1,-1,-1,-3,-3,3,1,-1
1576753997471717,3,0,5,0,-1,-1,-2,-3
1576753997471717,-5,-3,-2,-2,-4,0,0,1
1576753997471717,0,2,-3,0,-4,-2,-1,-6
1576753997493658,-1,-2,0,0,0,0,0,-1
1576753997493658,1,-1,-1,1,-4,0,0,0
1576753997494656,8,0,1,-1,1,1,1,0
1576753997494656,3,1,-2,3,3,1,1,1
1576753997507621,0,0,-1,-1,-1,-1,-1,-8
1576753997507621,-1,-1,0,0,-1,-2,-1,-2
1576753997515602,3,-4,2,-2,-2,-2,-1,-1
1576753997515602,0,0,0,-1,1,0,0,1
1576753997531556,-7,0,0,0,-1,0,-3,2
1576753997531556,-3,-1,0,-1,1,0,1,-3
1576753997532553,4,-1,-3,-1,0,-3,0,3
1576753997532553,3,1,1,-1,2,0,-2,-1
1576753997553497,-3,-1,-5,0,-3,-3,-1,1
1576753997553497,-2,0,-3,-1,2,-1,-3,1
1576753997554495,-1,0,-2,-1,-1,-2,3,1
1576753997554495,4,-3,-3,-1,-2,1,1,-1
1576753997567462,0,2,-1,2,1,-1,-4,2
1576753997567462,6,-1,-1,0,-1,1,0,-2
1576753997575439,2,0,-1,-2,-2,1,-1,0
1576753997575439,-1,1,3,2,0,3,1,-1
1576753997591397,1,-2,-2,0,0,-2,-3,0
1576753997591397,1,0,-2,-2,-3,0,-1,2
1576753997592394,-4,-3,0,4,3,-1,0,-1
1576753997592394,0,-1,-1,-2,-2,-5,0,1
1576753997614335,6,2,0,0,0,0,3,1
1576753997614335,6,-1,-3,0,1,0,1,-2
1576753997614335,4,3,0,0,1,1,-3,-7
1576753997614335,3,-2,0,-2,-3,-1,-3,0
1576753997627301,-9,2,-2,-1,-1,-4,2,-4
1576753997627301,3,-1,-2,-3,2,1,2,3
1576753997635280,0,-2,-1,1,-2,1,0,-4
1576753997635280,-2,1,-3,1,-1,-3,-2,0
1576753997651237,2,-4,2,-1,-1,2,0,4
1576753997651237,-5,-1,-1,-1,-1,1,-1,-7
1576753997652235,0,0,0,-1,-2,2,1,8
1576753997652235,-1,0,-3,-2,1,1,-2,-2
1576753997674175,2,-2,-2,-3,-2,-3,-3,2
1576753997674175,-6,0,-2,-1,-1,0,3,2
1576753997674175,-2,-1,3,-2,-1,-2,-5,-4
1576753997674175,-1,0,-4,-1,-3,0,1,-3
1576753997687140,-1,-1,0,0,0,-2,0,-3
1576753997687140,1,-2,-1,-3,-1,-2,-4,0
1576753997696117,4,-1,-2,-5,0,-1,0,2
1576753997696117,-6,0,0,0,-2,0,-1,-4
1576753997711077,8,-2,-1,-2,1,1,-2,-5
1576753997711077,-1,-1,-2,1,0,0,0,-1
1576753997712075,-3,0,0,1,0,-2,0,1
1576753997712075,0,1,-1,1,1,0,1,-4
1576753997734016,-6,-2,0,-1,-4,-2,0,-3
1576753997734016,-6,0,0,-3,-2,0,-4,-4
1576753997735013,-1,-2,-2,1,0,1,-1,1
1576753997735013,-4,-2,2,-2,0,-3,-2,0
1576753997747980,3,-2,-1,-1,1,1,-1,-1
1576753997747980,4,0,2,1,0,-5,0,5
1576753997755956,2,0,1,2,0,-2,1,4
1576753997755956,11,0,-2,-2,-4,3,-2,-6
1576753997770916,10,-1,0,1,0,2,0,-1
1576753997770916,5,-1,0,0,-2,0,0,-2
1576753997771914,6,-1,0,2,1,1,1,2
1576753997771914,5,0,0,1,-6,-1,-2,2
1576753997793856,1,-1,1,-3,-3,-1,-4,-3
1576753997793856,2,-1,-1,-1,0,-2,1,-1
1576753997794853,-5,-4,-5,2,-3,0,0,-5
1576753997794853,4,3,-1,-1,0,-2,1,0
1576753997807818,-3,0,-1,0,-2,-1,-1,-6
1576753997807818,-1,0,-1,0,0,-2,-3,-2
1576753997815797,-5,2,-1,-3,-3,-2,-3,-2
1576753997815797,6,-3,-3,1,5,0,0,1
1576753997831754,3,2,3,-3,2,-3,-5,0
1576753997831754,-1,-2,1,-2,1,4,-2,2
1576753997831754,0,-1,-1,-3,-1,-2,1,1
1576753997831754,-2,3,-2,1,-4,1,0,-6
1576753997853696,2,-1,-1,-3,-4,-2,-2,-2
1576753997853696,2,-3,-2,-1,1,-2,-2,-7
1576753997854693,13,0,2,0,-1,-1,0,4
1576753997854693,5,0,2,3,3,1,0,6
1576753997876634,1,-2,0,0,-1,-1,1,0
1576753997876634,7,-1,-2,0,-4,-4,0,4
1576753997877632,1,-2,-1,2,-1,1,-1,-2
1576753997877632,-8,-4,1,-3,-1,-6,-3,-3
1576753997898577,10,-4,-5,0,2,-1,2,1
1576753997898577,-6,-1,-1,0,-1,0,3,5
1576753997899573,-4,-1,0,1,0,-2,0,0
1576753997899573,-1,-2,-4,-1,-1,-4,-3,-1
1576753997913535,-8,2,0,1,0,0,0,4
1576753997913535,-7,-1,0,-2,-1,-2,-2,-1
1576753997914532,1,0,-4,-1,-3,-1,1,1
1576753997914532,-6,-1,-1,-2,-1,0,0,-1
1576753997936474,-2,1,-3,1,0,1,0,0
1576753997936474,5,-2,0,0,1,3,-2,-4
1576753997937472,1,2,-1,-4,-5,-3,-3,-1
1576753997937472,0,-3,-2,-3,-2,0,-4,-5
1576753997950437,-6,-1,1,-3,6,0,2,-2
1576753997950437,0,1,-3,-3,2,-4,0,-3
1576753997951434,4,-2,-5,0,1,0,1,0
1576753997951434,9,0,-1,-4,-4,-1,-2,2
1576753997974373,-7,0,1,0,-1,-1,0,-1
1576753997974373,1,0,-1,-5,-4,-1,0,1
1576753997974373,-1,-4,0,-4,-1,1,2,-3
1576753997974373,0,-2,1,2,1,-3,2,6
1576753997996313,5,-1,-1,0,-2,-1,-3,-4
1576753997996313,-1,3,-2,2,-1,-3,0,3
1576753997997312,2,-3,0,1,-1,0,-1,-2
1576753997997312,-4,3,1,-1,-3,0,2,-3
1576753998010277,-12,1,0,0,-4,-1,-3,-2
1576753998010277,1,-1,1,-2,-1,2,2,-1
1576753998011274,-1,0,2,0,-1,0,-2,-1
1576753998011274,-1,-1,-3,-1,2,2,-1,-2
1576753998034213,1,-2,1,0,-2,-2,1,2
1576753998034213,-1,-1,-2,-1,0,-2,-2,-3
1576753998034213,2,-1,-1,-2,-1,4,3,2
1576753998034213,-4,-1,3,4,5,3,0,-2
1576753998056154,7,-3,-4,-4,-1,-4,-1,-5
1576753998056154,4,0,2,-2,-2,2,1,0
1576753998058148,-3,0,-1,3,0,-1,2,1
1576753998058148,3,-2,-5,2,-3,-2,-4,-3
1576753998071113,-1,-1,-1,0,0,0,2,0
1576753998071113,-7,-2,0,-1,2,-2,-2,-1
1576753998071113,0,-2,0,-3,-2,-2,-3,-4
1576753998071113,-3,0,0,-3,1,-3,1,-5
1576753998094052,8,0,0,1,1,-2,0,3
1576753998094052,4,-2,-2,-1,-1,0,0,4
1576753998095049,-1,-2,0,0,-3,-2,-2,-9
1576753998095049,-2,-2,-3,0,-1,1,-3,-3
1576753998115994,3,-2,-3,-3,-4,0,-4,-3
1576753998115994,-5,0,0,2,-2,0,-1,2
1576753998116991,4,1,0,0,-2,-3,2,2
1576753998116991,-9,0,0,-1,-1,0,-1,3
1576753998130955,-7,-3,2,4,4,2,-4,-3
1576753998130955,10,1,0,-1,1,1,-2,-5
1576753998130955,-1,2,0,-3,-3,0,0,-3
1576753998130955,3,0,2,-1,-3,-4,-2,-2
1576753998153893,8,1,0,-2,0,-4,0,1
1576753998153893,-3,0,2,0,3,-4,-3,0
1576753998154889,0,0,0,-1,2,0,0,-8
1576753998154889,5,-1,0,-1,-1,2,-3,-6
1576753998176831,9,-3,0,-3,-2,1,0,0
1576753998176831,4,-6,-1,-2,-2,0,0,-1
1576753998176831,-1,-3,-2,-1,-2,-3,-1,5
1576753998176831,8,-2,-2,0,-1,-3,2,6
1576753998190793,-10,0,-1,0,1,-2,-4,-7
1576753998190793,2,0,-1,-2,-3,-1,1,2
1576753998191791,3,-2,-3,-4,-1,2,-4,-2
1576753998191791,-6,2,0,-4,-3,-1,2,-6
1576753998213732,-6,0,0,-2,4,-2,1,5
1576753998213732,3,-2,0,-2,0,0,-3,-2
1576753998214729,-1,0,-3,3,1,-1,3,4
1576753998214729,26,-6,-3,7,-5,-1,7,9
1576753998236670,-3,4,2,6,-8,-1,-8,-15
1576753998236670,-10,1,1,-3,1,-2,-4,-8
1576753998236670,1,0,-2,-8,-1,2,-1,1
1576753998236670,-5,-1,2,-2,4,-4,-4,-2
1576753998250635,1,-6,0,-5,1,3,7,3
1576753998250635,0,-2,-1,2,1,0,3,0
1576753998251631,1,-1,-1,1,-2,0,-1,1
1576753998251631,-8,0,0,-1,0,1,-2,-2
1576753998273572,-4,2,1,-4,-3,-1,-1,0
1576753998273572,-6,-1,-3,-1,-3,-1,0,0
1576753998274569,1,-3,0,-1,0,-4,-2,0
1576753998274569,-3,-2,0,0,-2,0,-3,0
1576753998295513,-5,1,-2,1,-4,-1,-4,-3
1576753998295513,0,1,-1,-2,-4,-1,-2,0
1576753998303492,-2,0,-3,0,1,-3,4,2
1576753998303492,-4,1,-3,0,-1,2,0,-3
1576753998310474,-1,-2,1,-1,0,1,-1,-1
1576753998310474,7,-2,0,-1,-1,1,0,-3
1576753998311471,4,-1,-1,0,0,1,4,1
1576753998311471,-2,3,0,0,-1,-2,-2,-2
1576753998333413,3,-2,-1,-1,0,-2,1,-1
1576753998333413,6,1,-3,-2,-2,-1,-2,-2
1576753998334410,2,-4,1,-2,-1,0,-2,3
1576753998334410,1,1,1,-1,-2,-2,-5,-4
1576753998356352,-3,0,-4,-2,0,0,-2,2
1576753998356352,-5,-4,0,-1,-2,-2,1,1
1576753998357349,-3,1,-3,1,0,-3,1,1
1576753998357349,-5,-2,-1,-1,0,1,-3,2
1576753998370315,-9,0,-4,-3,-1,-3,1,-1
1576753998370315,-6,-1,-1,-1,0,-1,-4,-4
1576753998371312,5,1,1,-1,-1,-2,1,2
1576753998371312,-3,0,-1,-2,-2,0,-2,-4
1576753998394250,6,3,-2,-3,-1,0,-2,1
1576753998394250,0,0,-1,-1,1,-2,0,1
1576753998394250,-3,1,-1,0,-5,-1,-2,-1
1576753998394250,-3,-1,0,-2,-3,-4,0,2
1576753998416191,0,-3,0,1,-1,-3,-1,-5
1576753998416191,1,-1,2,3,2,1,5,1
1576753998417188,0,-1,-2,1,-1,0,-4,-4
1576753998417188,1,0,-1,-1,0,-1,-5,-14
1576753998431152,2,-2,-4,-2,1,1,-3,-1
1576753998431152,-1,1,0,-1,0,-1,-1,-3
1576753998431152,-4,-3,-2,-3,-4,-1,-1,-2
1576753998431152,-3,0,-1,-2,1,-1,-1,1
1576753998454089,0,-2,-2,-3,0,1,-2,3
1576753998454089,3,2,1,1,-2,-1,0,3
1576753998455086,4,-1,0,1,1,-1,-1,-2
1576753998455086,-2,-2,-5,-3,-5,-4,-3,1
1576753998476031,0,-3,0,-2,0,1,-1,2
1576753998476031,-5,-1,1,-2,-1,0,-1,3
1576753998477030,-4,-2,-2,2,0,-1,-2,-2
1576753998477030,-4,-6,3,2,-2,-3,-1,-3
1576753998489994,-3,1,-1,2,0,-1,2,-1
1576753998489994,2,-1,-5,-3,-2,0,1,-3
1576753998497973,-6,-2,-1,-1,-2,0,-4,2
1576753998497973,1,2,-1,1,3,0,1,0
1576753998513930,-3,-1,-3,-2,0,-1,0,-1
1576753998513930,6,-2,-3,-3,-2,-1,-2,0
1576753998514927,1,-3,3,-2,-2,1,3,1
1576753998514927,0,-1,-1,1,-1,2,0,-3
1576753998535870,2,0,6,2,-4,-4,0,-3
1576753998535870,4,-1,2,0,0,0,0,4
1576753998536868,2,-1,0,1,-1,0,0,-5
1576753998536868,2,0,-2,0,-1,0,-1,-3
1576753998549833,-2,-3,2,-1,-1,2,-4,2
1576753998549833,0,-2,-1,0,-3,-3,2,1
1576753998557812,-2,1,0,0,-3,2,1,-1
1576753998557812,-2,-2,2,-1,0,-2,0,2
1576753998573770,3,0,-1,-4,-3,-8,-3,0
1576753998573770,1,0,-1,2,3,-1,0,5
1576753998574767,4,3,0,-1,-1,-1,1,-1
1576753998574767,3,-2,-1,0,-1,-3,-2,2
1576753998596709,1,-3,-2,-2,1,1,-1,-5
1576753998596709,-4,0,-1,0,2,0,0,1
1576753998597706,0,-2,-4,0,-3,0,-1,-2
1576753998597706,-1,-3,-2,1,1,-1,1,0
1576753998609673,0,1,-2,-2,-4,-3,2,-2
1576753998609673,-2,-3,0,1,2,1,1,-2
1576753998618651,3,-1,2,0,2,-1,-4,1
1576753998618651,-2,0,-1,-3,-2,0,-2,0
1576753998633611,-9,0,-2,-2,-1,0,-2,0
1576753998633611,-1,-4,1,-2,-2,0,-2,-4
1576753998634607,-4,-1,-1,1,0,-1,-1,3
1576753998634607,-3,-4,-1,0,-1,0,1,-1
1576753998656548,0,1,0,2,4,3,0,1
1576753998656548,-5,1,-1,0,-1,-3,-2,9
1576753998657546,0,-1,0,0,-2,-3,-2,-2
1576753998657546,1,1,-2,-1,-3,-4,-3,-2
1576753998669514,2,0,3,1,0,0,-3,-1
1576753998669514,-1,0,-2,-5,-3,0,0,-2
1576753998678489,7,1,0,-1,1,2,-1,2
1576753998678489,-3,-1,0,-2,-1,-1,-2,-2
1576753998693449,-3,0,0,-2,-3,-2,1,1
1576753998693449,4,-1,0,-2,1,-3,3,2
1576753998694447,-3,3,-3,-1,-2,-1,2,-4
1576753998694447,4,0,1,-3,-1,1,1,1
1576753998716388,0,-3,-4,-4,-2,-1,-3,-3
1576753998716388,4,-2,0,-3,-4,2,-3,-4
1576753998718385,4,0,0,0,2,1,3,9
1576753998718385,4,1,1,-3,-1,-2,-1,-1
1576753998730351,5,1,2,1,1,0,2,4
1576753998730351,8,-3,-1,1,-4,0,-3,-4
1576753998739327,-2,-3,-1,0,-1,0,-1,-3
1576753998739327,3,-2,-2,1,-4,-1,1,-2
1576753998753290,3,0,0,0,-1,0,-2,-3
1576753998753290,0,-1,-3,0,1,-2,-1,-1
1576753998760273,-3,-1,0,-1,-1,-1,-3,-6
1576753998760273,-3,2,0,-1,1,-1,-7,0
1576753998776229,-6,-2,-2,-3,1,-2,1,0
1576753998776229,1,3,-1,0,0,0,-2,-2
1576753998778224,-2,-4,-2,-1,-5,3,-2,-5
1576753998778224,1,0,3,-2,-1,0,-2,-5
1576753998790190,0,-1,-1,-2,-1,0,-1,-1
1576753998790190,-10,-2,0,-2,1,-2,-2,-7
1576753998799169,1,0,1,-1,0,1,2,2
1576753998799169,-4,-1,-3,1,-1,2,-1,-3
1576753998812132,8,-3,-3,-5,-3,0,-3,-2
1576753998812132,-2,0,-2,1,1,-1,2,2
1576753998821108,1,-2,1,1,-2,-2,-2,-1
1576753998821108,-3,-3,1,0,-2,0,-1,2
1576753998836068,3,-1,1,2,0,0,0,-8
1576753998836068,2,-3,-2,-2,-1,0,2,2
1576753998838063,-1,1,-3,-1,0,1,-4,-3
1576753998838063,0,0,-2,-1,1,-1,-3,-2
1576753998859007,-3,-1,-2,2,-2,-2,-2,1
1576753998859007,0,-2,-4,-2,-1,0,2,-2
1576753998860005,-6,-2,1,1,0,-1,-1,-2
1576753998860005,1,-2,-2,0,0,-1,-1,-1
1576753998872969,-3,1,-2,0,3,1,1,0
1576753998872969,-4,-2,-3,-4,-3,2,-2,-5
1576753998881947,-1,-4,-3,-1,1,1,1,1
1576753998881947,0,1,-1,-1,-1,1,0,0
1576753998895909,-3,0,1,-3,2,-2,2,-1
1576753998895909,-3,-2,1,0,-1,1,-3,-3
1576753998897902,7,0,0,0,2,-1,0,0
1576753998897902,-1,-5,-2,1,0,-3,-2,-6
1576753998918846,1,1,-2,0,-4,-1,-1,0
1576753998918846,-1,-2,-2,0,2,-1,0,3
1576753998920843,-5,1,-1,-1,-1,-1,0,2
1576753998920843,-2,2,-2,1,-2,-1,-1,0
1576753998932810,0,-2,-2,-3,-3,-1,-1,-7
1576753998932810,10,0,-3,2,0,-2,3,-1
1576753998941786,5,-3,-1,-3,0,-3,-4,-2
1576753998941786,-4,2,-3,-2,0,-2,0,-2
1576753998956745,2,-1,-2,-3,-2,3,-3,0
1576753998956745,-1,-3,0,2,-1,0,0,4
1576753998957742,2,0,0,0,1,0,1,-1
1576753998957742,-1,2,-3,-3,0,1,-3,-1
1576753998978687,-1,-3,2,-2,-3,0,-2,2
1576753998978687,-1,-4,-1,-2,-1,-3,-3,-2
1576753998980682,-5,-3,-1,0,-2,-1,1,4
1576753998980682,0,-1,-2,-1,0,-1,1,-4
1576753998992650,4,-1,0,0,3,-3,3,3
1576753998992650,0,1,1,2,2,1,-1,5
1576753999001625,3,-3,1,1,-1,0,0,-1
1576753999001625,-1,-2,1,-2,-3,-3,-1,-1
1576753999016585,-7,-2,-4,-3,-2,-2,0,-3
1576753999016585,1,3,1,-3,-1,1,0,-3
1576753999017583,-7,-1,-1,-1,-1,-1,-1,-3
1576753999017583,-1,0,3,2,1,-1,2,2
1576753999038527,1,0,1,2,0,-3,-1,0
1576753999038527,-2,-1,2,-2,-2,-3,-3,-2
1576753999040521,2,2,-3,2,-1,-1,1,-3
1576753999040521,-5,2,0,-1,0,1,-1,-1
1576753999052489,-6,-2,-1,-1,2,-4,-3,1
1576753999052489,-1,-4,-2,-1,-3,-2,2,-3
1576753999061465,6,-4,-4,-2,-3,-5,-2,-3
1576753999061465,1,-1,-2,-4,-2,0,1,-4
1576753999076426,-1,1,-3,-1,-1,-1,0,6
1576753999076426,4,-1,0,-2,0,-2,-1,-2
1576753999078420,-3,-1,-1,0,0,0,-2,1
1576753999078420,-7,0,0,-2,1,1,-1,2
1576753999099365,7,-5,-1,-1,1,1,-3,5
1576753999099365,8,0,-2,-3,-3,-2,-3,0
1576753999100362,-7,-1,-3,0,-6,-3,-1,-3
1576753999100362,4,1,-2,1,-1,2,-2,-2
1576753999112329,-3,-1,1,-5,-1,0,0,-2
1576753999112329,-5,-2,0,-3,1,-1,1,5
1576753999121307,-4,0,2,-2,-2,2,-1,-1
1576753999121307,-4,1,-6,1,2,-3,-1,-1
1576753999136266,2,0,-1,1,-3,-2,-4,-7
1576753999136266,4,-2,-3,2,-3,2,2,1
1576753999138261,3,-1,0,0,-6,0,-2,-2
1576753999138261,9,-4,-2,-4,-1,-2,-1,1
1576753999159204,2,-1,-2,0,0,1,2,-1
1576753999159204,0,-1,-1,-2,0,-2,0,0
1576753999160201,3,-3,1,0,0,-1,-2,-2
1576753999160201,0,-2,-1,1,-1,2,-2,-1
1576753999172170,2,4,0,-2,0,-2,0,-1
1576753999172170,0,3,1,-3,-2,-3,-4,-7
1576753999181145,-2,-2,-1,-1,2,-1,-1,2
1576753999181145,3,-3,-1,-2,0,-2,1,-1
1576753999196106,-8,-1,3,0,0,-2,0,0
1576753999196106,-2,-2,-1,1,1,1,-1,2
1576753999198102,-2,2,-1,-2,-2,4,2,-4
1576753999198102,2,-1,-2,-4,-2,-1,-3,-2
1576753999219044,-6,-1,-2,1,-4,1,1,-3
1576753999219044,-4,0,-3,1,-3,-3,2,8
1576753999220042,5,-4,-3,-2,-3,-4,-4,-5
1576753999220042,-6,2,2,3,1,1,-2,-3
1576753999232011,-5,4,-2,-1,2,-2,0,2
1576753999232011,-9,-1,2,0,1,2,1,-2
1576753999241983,0,1,-4,-1,-1,4,-2,-5
1576753999241983,-4,-4,-1,0,-4,-6,-4,1
1576753999255946,0,-2,-2,-4,-1,-1,0,-4
1576753999255946,6,2,-3,-2,0,0,-2,3
1576753999257940,-2,2,4,2,-2,-2,1,6
1576753999257940,-1,-1,-1,-3,1,-1,0,0
1576753999278885,-6,-2,-2,-2,-5,-1,-3,-4
1576753999278885,2,-2,-5,-1,-4,-1,1,-5
1576753999280879,3,-3,2,1,-1,-1,0,-2
1576753999280879,0,1,-4,-1,-3,0,0,0
1576753999292846,8,0,1,1,1,-2,-2,4
1576753999292846,-3,0,-2,-1,-3,-1,1,-6
1576753999301824,1,1,-3,-4,-1,-2,-3,1
1576753999301824,2,-1,-2,-1,-2,-2,0,-1
1576753999316786,1,-2,0,-1,-3,-2,0,-2
1576753999316786,0,-4,1,-1,0,-2,-1,0
1576753999317780,3,-1,-3,-1,-1,0,1,-3
1576753999317780,0,-3,4,1,2,0,-1,2
1576753999338724,6,0,0,-1,-1,0,-5,0
1576753999338724,6,-1,0,-1,0,0,0,7
1576753999340719,-3,1,0,-1,-1,-1,-3,-1
1576753999340719,0,-2,-5,-1,2,0,0,-2
1576753999352687,7,-2,2,0,-1,0,0,0
1576753999352687,1,-1,1,0,0,0,3,1
1576753999361664,-2,-1,-2,-2,-2,-2,-5,-4
1576753999361664,-2,4,3,-1,-5,3,-4,-9
1576753999376622,1,-4,-3,-2,1,1,-2,3
1576753999376622,-3,-1,-3,-3,0,2,-3,-1
1576753999377620,-1,0,0,0,-1,-2,4,-1
1576753999377620,-2,1,1,2,-3,2,-2,8
1576753999398566,-8,0,0,-2,0,0,-1,-14
1576753999398566,3,0,0,-1,0,-2,1,2
1576753999400561,2,-3,0,0,1,-1,-1,3
1576753999400561,-1,-2,-2,-2,-3,-2,0,-5
1576753999412526,-1,-4,1,-1,1,-1,-2,0
1576753999412526,-1,2,0,0,-2,0,-3,1
1576753999421503,6,-1,-3,-1,-3,1,-3,-5
1576753999421503,2,-1,-2,-2,-1,-2,-1,-3
1576753999436463,-4,0,-3,0,1,0,2,4
1576753999436463,-3,-2,-2,-1,0,-2,-3,0
1576753999438457,4,1,0,0,0,1,-2,2
1576753999438457,6,-1,-2,-2,-3,-2,1,-1
1576753999458404,-4,-1,0,-2,1,-2,-2,-3
1576753999458404,-2,1,2,2,0,2,3,2
1576753999460399,-7,0,-1,1,-1,-2,0,-4
1576753999460399,0,-1,0,0,-1,-2,-4,-4
1576753999472366,-5,2,2,-1,-2,-3,-1,-2
1576753999472366,-1,-1,-1,1,1,3,-1,-1
1576753999481345,4,0,0,0,5,0,0,3
1576753999481345,-2,1,-1,-2,1,-2,-1,-3
1576753999496303,-2,2,-4,-1,-3,-2,-1,-5
1576753999496303,2,-4,-3,-4,-4,0,-3,-6
1576753999498297,-1,0,-1,0,2,0,4,3
1576753999498297,3,0,0,-1,3,-3,0,-1
1576753999519242,-1,-2,1,1,1,4,-1,-3
1576753999519242,0,-1,1,1,-2,-3,-1,-5
1576753999520239,-6,-1,-2,-1,-3,0,1,-1
1576753999520239,-1,-1,-1,2,-3,-2,0,-3
1576753999532208,-2,1,-1,-2,-2,-3,-2,0
1576753999532208,5,0,-2,1,-3,2,1,0
1576753999541183,2,-2,2,0,-3,-3,-2,-1
1576753999541183,-6,-1,-5,0,-2,-1,1,-3
1576753999556143,6,1,-1,0,2,-1,-2,3
1576753999556143,-4,2,-1,2,-1,0,-1,-2
1576753999558137,-2,2,0,2,-1,0,-2,-5
1576753999558137,0,-1,-1,1,5,1,-4,3
1576753999579082,-5,-5,-1,-4,-3,-4,0,-3
1576753999579082,2,3,1,-3,0,-2,1,-1
1576753999580079,-6,-2,1,-1,-1,-2,-3,-5
1576753999580079,-4,-2,-2,-5,-4,-3,-3,-2
1576753999592047,0,-3,-2,-2,-1,-3,2,0
1576753999592047,0,0,0,-2,1,2,3,-1
1576753999601023,-4,-1,-1,0,-2,-1,-1,-2
1576753999601023,-4,-3,1,-1,0,3,-4,0
1576753999615982,-1,0,-3,0,0,-1,-2,2
1576753999615982,-9,-1,0,2,-2,-4,0,-4
1576753999617978,-2,-3,-3,0,-1,-4,-4,-1
1576753999617978,-1,-1,-2,-2,1,0,-1,1
1576753999638922,6,0,-1,1,-3,0,0,0
1576753999638922,-3,-2,-1,2,0,-3,1,-2
1576753999640916,0,-1,0,-1,-2,2,0,-3
1576753999640916,4,0,2,-1,3,0,0,-6
1576753999652883,2,0,-1,-3,0,0,-2,-2
1576753999652883,9,-3,0,-2,-2,3,-3,4
1576753999661860,4,1,-2,-1,-1,-2,0,-4
1576753999661860,1,1,-1,0,-3,-2,2,0
1576753999676821,6,-2,-3,0,0,1,0,0
1576753999676821,4,-1,-4,-3,-2,-4,-2,1
1576753999677817,-4,1,2,1,3,2,1,3
1576753999677817,1,-3,1,1,-3,-1,1,-3
1576753999698762,1,0,-4,0,-4,-1,0,-1
1576753999698762,-1,-5,-1,-1,-1,-1,0,3
1576753999700756,-1,1,-1,-3,0,1,0,-1
1576753999700756,7,-4,-4,-3,-2,-4,-5,-1
1576753999712724,-4,0,-3,-2,-1,2,0,-2
1576753999712724,5,-3,1,0,0,2,-1,1
1576753999721699,-3,0,-3,-3,-4,-1,-2,1
1576753999721699,4,-1,1,-2,-2,1,2,-10
1576753999736661,2,2,1,1,2,-2,0,1
1576753999736661,2,0,0,-1,2,-2,-2,-1
1576753999737658,-1,-3,-1,0,-3,1,-1,1
1576753999737658,5,1,-1,-2,0,1,-3,5
1576753999758602,-2,-3,-1,0,1,-2,-1,0
1576753999758602,2,1,1,-2,1,0,1,1
1576753999760596,9,0,1,1,0,-4,0,-3
1576753999760596,1,0,-1,-1,-2,-2,-4,0
1576753999781542,3,1,-1,-3,2,0,-5,-1
1576753999781542,3,-2,-2,1,-1,-2,1,-3
1576753999782539,-6,2,-3,1,-4,0,-5,0
1576753999782539,-1,0,0,-1,0,1,0,0
1576753999796499,-2,-3,-1,-1,1,0,3,1
1576753999796499,5,-4,-2,0,-1,-2,-1,-3
1576753999797500,0,2,0,-5,-3,0,-1,-5
1576753999797500,-3,2,2,1,4,-1,2,14
1576753999818442,-5,1,-3,0,-2,-2,-1,-2
1576753999818442,4,-2,-1,-1,-1,1,0,3
1576753999820437,-1,-3,-2,1,-1,-3,-3,1
1576753999820437,-3,-2,-1,-2,-2,-2,0,-3
1576753999841380,1,-2,-2,-4,-3,-2,-1,-3
1576753999841380,1,0,0,4,-2,3,2,3
1576753999843375,-2,0,-3,1,1,-1,-1,-1
1576753999843375,-3,-1,-1,-2,-1,-3,-4,-4
1576753999856340,-2,2,1,1,1,1,0,4
1576753999856340,-3,-1,0,-3,-2,-1,0,-3
1576753999858336,-2,-2,0,0,0,0,-2,-5
1576753999858336,-1,4,-2,0,1,-1,6,-2
1576753999879278,-2,1,2,-2,0,2,0,1
1576753999879278,-4,-1,-3,2,-3,0,-2,-2
1576753999880277,0,-4,-4,-2,0,-1,1,1
1576753999880277,-3,-1,-2,0,-4,-3,0,-3
1576753999901221,5,-1,-1,-2,-1,-2,-4,-2
1576753999901221,-1,-1,-1,0,-2,-2,0,0
1576753999903217,4,-1,-4,2,-1,-2,-2,-1
1576753999903217,-8,-1,-2,-1,-1,2,-2,-4
1576753999916181,3,-2,1,-3,0,0,0,1
1576753999916181,-3,-3,-4,-2,3,1,-1,0
1576753999922166,-6,2,3,-4,-2,-2,-2,-8
1576753999922166,2,-2,-3,-2,1,-1,-4,-2
1576753999939173,3,-3,0,-1,0,1,4,11
1576753999939173,-3,1,-3,-3,-3,-1,1,-1
1576753999940141,-2,-1,3,0,-2,0,2,-1
1576753999940141,-1,1,0,-2,2,-3,-4,-6
1576753999961097,1,-3,-2,-5,-3,-2,-1,-4
1576753999961097,-3,-1,-1,2,0,-1,3,-2
1576753999963057,-4,-3,2,0,-1,1,-2,-1
1576753999963057,0,-4,2,-1,-4,2,-2,1
1576753999976058,4,-2,-3,2,-2,-2,-2,-4
1576753999976058,-4,-4,-1,-4,-1,-2,-1,-2
1576753999983002,2,-3,-3,0,5,-1,0,-1
1576753999983002,-9,-3,-1,-1,-2,-1,-2,-4
1576753999998961,3,2,-1,0,-2,-3,0,-1
1576753999998961,3,0,3,2,0,-1,1,-2
1576754000000957,-1,-2,-1,2,-1,0,-2,2
1576754000000957,-2,-2,0,-1,-2,1,0,-2
1576754000021947,-1,-1,-1,-4,-2,-1,1,-4
1576754000021947,3,-2,-1,1,-2,1,0,1
1576754000022901,6,1,0,0,1,0,-1,1
1576754000022901,7,1,0,3,3,0,0,0
1576754000035931,-6,-3,-3,-1,-3,0,-2,-8
1576754000035931,1,4,1,-1,2,-2,-2,6
1576754000042843,0,-1,1,-1,-3,1,1,-7
1576754000042843,9,1,1,-2,0,-1,-4,0
1576754000058903,3,-2,-3,0,1,-1,-2,-1
1576754000058903,1,1,-2,-2,1,1,0,-1
1576754000060843,8,0,-4,-2,-3,0,-1,-3
1576754000060843,1,-4,-1,-2,-1,-1,1,-1
1576754000081783,1,0,1,-1,2,1,-4,3
1576754000081783,5,0,-3,-2,-4,-3,-1,4
1576754000082736,1,-1,-1,-3,-3,-3,-2,0
1576754000082736,0,-5,-2,-4,-2,-2,-1,-4
1576754000095805,-7,-2,-3,-2,2,-1,-2,1
1576754000095805,0,3,-1,2,-1,1,-1,-4
1576754000102783,0,1,-2,2,-2,-3,0,3
1576754000102783,-2,1,-2,0,-4,-2,-1,2
1576754000118740,0,1,1,0,-1,2,1,4
1576754000118740,-8,2,-3,0,-4,0,-1,-4
1576754000120639,1,-1,1,0,0,0,1,-1
1576754000120639,-5,2,-2,3,-1,0,1,-6
1576754000141683,-3,-3,0,-2,-1,-2,-1,-3
1576754000141683,3,-1,-2,0,0,-2,2,1
1576754000142611,-4,0,-1,-2,-2,-3,0,-6
1576754000142611,-3,-4,1,-1,-1,-2,-2,-3
1576754000155645,2,1,0,0,1,0,-2,2
1576754000155645,2,-6,-3,-3,-3,0,0,-1
1576754000162570,-4,2,0,-1,1,1,-1,2
1576754000162570,6,-1,-1,-4,0,-1,-4,-1
1576754000179476,-6,-1,1,-1,0,-5,0,2
1576754000179476,0,-2,-2,0,-1,0,0,-4
1576754000180475,2,-2,-2,0,-1,-1,-2,-1
1576754000180475,-5,-1,-1,0,4,1,0,0
1576754000201469,0,-2,-3,3,-3,-1,-1,-2
1576754000201469,-5,0,-1,-4,-3,0,-1,2
1576754000203417,-2,-2,-2,0,1,-2,0,0
1576754000203417,-6,-1,0,0,-1,-1,-1,-4
1576754000215381,-4,-1,0,-1,2,-2,-2,0
1576754000215381,-7,-2,-2,1,-1,0,-3,2
1576754000224372,1,1,-1,-3,-1,5,0,-4
1576754000224372,0,1,-4,1,0,-1,0,3
1576754000239350,-3,-2,0,-1,-1,-1,4,-2
1576754000239350,2,0,3,-2,1,-1,-2,-4
1576754000240315,-9,-3,1,1,-1,-1,-1,12
1576754000240315,4,3,-1,-2,-2,0,-2,-4
1576754000261289,4,-2,-3,0,-1,-1,-4,1
1576754000261289,5,-3,1,-1,1,1,-2,0
1576754000263287,0,2,-4,0,-1,1,-4,-4
1576754000263287,3,-2,3,-3,-1,-1,1,4
1576754000275267,1,-1,0,-1,1,-3,0,0
1576754000275267,0,-4,-1,1,-1,1,0,-1
1576754000284200,-3,-1,-3,-2,-4,-1,-2,-4
1576754000284200,-2,-1,1,-2,0,2,-2,-9
1576754000299201,2,-3,-2,-2,-2,-4,1,-7
1576754000299201,2,0,0,-4,-1,-3,-3,-3
1576754000300155,-1,0,1,0,-2,-2,-2,-4
1576754000300155,1,-1,-4,-1,2,0,-1,5
1576754000321147,-4,0,-2,-4,-2,0,-3,-2
1576754000321147,9,-3,1,1,-1,-3,1,1
1576754000323094,-3,-4,-1,-4,-1,-2,1,-1
1576754000323094,-1,0,1,-2,-1,-3,-2,3
1576754000335114,10,-2,0,1,-2,1,-1,-3
1576754000335114,-1,1,-3,3,-2,-1,1,-1
1576754000344038,3,2,1,-3,-1,-2,-4,-5
1576754000344038,-2,-2,-3,-2,-1,1,0,-4
1576754000359050,1,-1,-2,-2,-1,1,-4,0
1576754000359050,-4,3,-1,1,0,-1,-1,-2
1576754000360991,-2,0,-1,-3,-1,-3,-2,-1
1576754000360991,-7,-2,-5,-3,-2,-3,-1,-3
1576754000381934,-4,-3,3,-1,2,1,0,2
1576754000381934,-4,-1,-2,-2,-2,-1,-2,-3
1576754000382934,-5,-1,2,-1,-3,0,-3,-3
1576754000382934,-2,2,1,-5,1,0,-2,0
1576754000395006,1,2,-2,-1,-1,0,0,-7
1576754000395006,-2,-3,-1,1,-1,0,3,2
1576754000403877,5,-4,-6,2,-3,0,-1,-3
1576754000403877,1,-1,-1,0,0,-2,3,1
1576754000418942,-1,0,3,0,-1,0,0,2
1576754000418942,0,1,-1,-2,-2,2,2,-3
1576754000420834,5,1,0,-1,0,-1,-1,-4
1576754000420834,4,0,-3,-1,0,-4,-4,3
1576754000448758,-2,-1,0,2,-1,-4,2,-2
1576754000448758,1,-1,-1,-3,1,2,0,-6
1576754000450751,1,1,-2,0,-1,1,-1,-2
1576754000450751,3,1,1,-1,-1,0,-2,-2
1576754000454744,-9,-5,-4,-2,-5,-1,2,1
1576754000454744,6,1,0,0,1,-1,-1,4
1576754000471700,-6,-1,1,1,1,-2,-1,-3
1576754000471700,-2,-4,-3,-3,-1,-1,-1,-3
1576754000478781,1,3,1,0,-3,3,-1,-2
1576754000478781,-1,-1,2,-1,-3,-3,-4,3
1576754000480671,-5,-1,-1,0,-1,-2,-1,-2
1576754000480671,-4,0,0,1,0,-1,1,-5
1576754000501714,-1,-1,1,-3,-1,-4,1,-1
1576754000501714,-8,-1,-4,-2,-1,-1,-1,0
1576754000502617,-2,-2,1,-1,-2,-4,-3,-2
1576754000502617,-2,0,-4,-2,-2,-1,-1,-2
1576754000515578,4,1,-3,1,2,0,2,3
1576754000515578,-5,-1,1,0,-3,1,5,-2
1576754000524554,-2,-3,-3,-2,-2,2,0,-1
1576754000524554,5,-2,2,-3,1,0,2,4
1576754000539515,0,-2,-3,1,-2,1,-4,2
1576754000539515,0,0,2,2,0,-1,0,-2
1576754000540513,0,-1,0,0,-1,-2,0,0
1576754000540513,0,0,-1,2,1,4,3,1
1576754000561560,7,0,-3,-1,3,1,-2,0
1576754000561560,4,0,-3,0,0,-2,-1,2
1576754000563450,0,-3,1,-1,0,-3,0,-3
1576754000563450,-1,-1,-1,-4,-4,-5,0,-1
1576754000575423,3,1,1,0,-3,0,-1,13
1576754000575423,3,1,-2,-1,-5,0,-3,-4
1576754000584400,4,1,1,-1,0,-2,-4,0
1576754000584400,0,-2,-1,0,-1,-1,-1,3
1576754000599386,3,-4,1,1,0,-3,1,-2
1576754000599386,-1,-4,-2,1,0,0,-1,-2
1576754000600353,0,-4,-2,-1,-1,-1,2,0
1576754000600353,3,1,-1,0,-4,3,-3,-3
1576754000621396,1,-1,2,-3,-2,0,-2,0
1576754000621396,9,0,-1,-1,2,-2,-2,-2
1576754000623292,1,0,-2,-3,-1,-2,-3,-7
1576754000623292,-1,-2,1,0,3,1,0,0
1576754000635359,0,1,0,-4,-4,0,1,-8
1576754000635359,-2,-3,1,-1,-1,1,-1,3
1576754000644236,5,0,0,0,-1,2,-1,1
1576754000644236,-3,0,-2,0,0,-4,-3,2
1576754000659297,-4,-2,-4,-1,0,1,-3,-4
1576754000659297,-3,-1,-1,1,-1,-2,-1,-5
1576754000660226,-1,1,1,-1,-1,2,2,-2
1576754000660226,-1,-1,0,-4,-3,-3,0,-3
1576754000681135,-1,-4,-2,-2,-1,1,-2,-2
1576754000681135,-9,-1,-2,2,-3,0,-2,-3
1576754000683138,2,1,-4,-2,-2,2,0,2
1576754000683138,1,3,1,1,-1,-5,-4,-4
1576754000704076,1,3,-2,-2,-1,1,1,-3
1576754000704076,7,0,2,-1,-1,-1,0,-1
1576754000706067,-1,1,1,1,2,0,1,-1
1576754000706067,-1,-3,0,-1,-1,0,-2,-5
1576754000719137,5,-1,-1,0,-1,-3,-1,1
1576754000719137,2,1,-2,-2,-1,1,0,1
1576754000721037,2,-3,-2,-2,-1,-2,-1,-3
1576754000721037,-1,-1,1,0,-2,-3,-2,-4
1576754000742013,-4,0,-2,-1,0,-1,2,1
1576754000742013,-2,0,0,0,0,-1,-3,1
1576754000742972,-8,-2,-5,-1,1,-1,-2,6
1576754000742972,-5,-2,-1,0,1,1,-1,-4
1576754000763921,-3,-1,2,-2,-1,0,1,-3
1576754000763921,3,-2,-2,1,-2,-3,-3,2
1576754000765910,-3,-3,-1,-4,-5,-1,-1,-4
1576754000765910,2,-1,-3,-2,1,-3,-1,3
1576754000778976,-4,-1,-4,-2,1,3,1,0
1576754000778976,0,-3,0,-1,-1,2,1,-5
1576754000780868,2,0,-3,1,-1,0,-2,-1
1576754000780868,4,2,2,0,-3,0,-1,2
1576754000801929,1,-5,1,2,-1,-4,1,-1
1576754000801929,2,0,-3,1,0,-1,-1,-5
1576754000802811,-2,-1,1,-2,0,-3,-2,-4
1576754000802811,6,-4,-5,-2,1,2,3,-1
1576754000823860,-3,3,-1,0,-2,1,0,2
1576754000823860,-9,0,-4,-1,-1,1,-1,-1
1576754000825751,3,-2,-1,0,-3,-2,-1,-4
1576754000825751,-1,-5,0,0,0,-1,0,1
1576754000838817,10,-5,0,-1,-1,0,2,2
1576754000838817,-2,-2,0,0,-3,1,-2,-8
1576754000840714,-1,0,1,0,1,-3,-1,-1
1576754000840714,3,0,-2,0,0,-1,0,0
1576754000861757,-1,-2,0,-4,-1,-2,-1,2
1576754000861757,2,0,-2,-2,-3,-2,1,-1
1576754000862695,-2,0,-1,1,-1,-2,-4,-2
1576754000862695,-6,-5,0,-3,-2,1,-3,0
1576754000883699,1,1,-1,-2,2,1,1,-2
1576754000883699,4,-2,-2,0,1,-1,-6,11
1576754000885593,-2,4,3,1,1,-1,-1,-4
1576754000885593,0,-1,-3,-2,-3,-1,3,-3
1576754000898556,3,-1,1,-2,-3,0,-6,0
1576754000898556,-4,-2,-2,1,0,0,2,1
1576754000905605,5,0,1,0,1,-2,-1,-2
1576754000905605,1,3,1,-1,0,-1,-2,-3
1576754000921598,2,-3,-2,-1,-1,-4,1,-1
1576754000921598,3,-1,1,2,0,1,3,-1
1576754000923489,-5,1,0,1,2,0,0,-1
1576754000923489,1,0,1,-4,-5,0,0,-3
1576754000944479,0,-4,-2,-1,1,-6,-4,-2
1576754000944479,-4,3,3,-2,0,-1,2,-1
1576754000945431,-3,-2,-3,-2,-1,0,1,3
1576754000945431,-5,0,0,-1,-3,2,-2,-2
1576754000958497,9,2,-2,2,1,0,3,-3
1576754000958497,-2,-1,2,0,-1,-1,-3,-5
1576754000965421,2,-3,-2,-2,1,1,-1,1
1576754000965421,-6,1,0,-2,-1,-3,0,0
1576754000981370,7,1,-2,-3,-3,0,-2,-4
1576754000981370,-2,0,-1,-1,-2,-2,-2,-3
1576754000983330,-1,2,-1,1,-4,-2,-2,-1
1576754000983330,3,-1,-3,-2,-2,-2,-2,1
1576754001004382,-4,-1,-2,0,2,-1,3,0
1576754001004382,-2,-2,0,-1,-4,-2,-2,-3
1576754001005269,-1,-2,1,-2,0,-1,-1,-1
1576754001005269,-1,0,1,-2,1,-3,-1,-5
1576754001018334,-2,1,0,1,2,1,0,2
1576754001018334,0,-1,-1,-5,0,0,-2,1
1576754001025321,3,0,1,2,2,-1,0,-2
1576754001025321,4,-1,0,-3,-2,-3,-2,-7
1576754001041278,-1,-1,-1,1,0,0,2,4
1576754001041278,4,0,-1,-2,-2,-3,-2,-1
1576754001043203,-6,-1,-2,-2,-2,-1,0,-8
1576754001043203,1,-4,-3,-1,1,1,1,-1
1576754001064112,-4,0,2,-1,-2,4,2,3
1576754001064112,0,-2,0,-1,-2,-1,-1,-3
1576754001066110,-2,-1,1,-4,-4,1,-1,0
1576754001066110,3,-4,1,1,-1,-4,0,2
1576754001078177,3,0,-3,0,-1,0,-3,-1
1576754001078177,-3,0,-1,0,2,0,-1,1
1576754001085160,-1,-2,-2,-2,-1,-1,-3,-1
1576754001085160,3,-1,-1,1,1,1,2,1
1576754001102010,3,-3,2,1,-2,0,-2,-1
1576754001102010,-2,0,-2,-3,-3,-1,-2,-4
1576754001103010,3,-1,0,-2,-1,1,0,-3
1576754001103010,3,-1,-4,-1,0,-2,-3,0
1576754001124050,-3,-2,-2,-1,-2,-1,0,-2
1576754001124050,-1,0,-1,2,3,-3,-1,0
1576754001125948,-2,-1,0,0,1,-1,-4,3
1576754001125948,-2,1,1,0,0,-3,-1,-2
1576754001138912,-2,2,-2,1,1,1,1,-2
1576754001138912,1,0,-3,4,-2,-1,1,-5
1576754001145000,4,0,-3,-1,-2,0,-1,-2
1576754001145000,-2,-1,0,1,1,2,2,1
1576754001161906,3,1,0,-1,-2,-2,-1,2
1576754001161906,3,1,-1,-1,-3,0,0,-5
1576754001162850,1,-4,-2,-1,1,-2,-2,2
1576754001162850,-3,-3,-2,-3,0,-3,-2,0
1576754001183896,-1,-5,-1,-2,-5,-1,-2,-2
1576754001183896,-2,-1,-1,0,0,-2,-2,-1
1576754001185789,0,-3,-3,-1,-3,-2,-4,-3
1576754001185789,1,0,-5,-4,0,1,2,1
1576754001197754,1,-5,-1,-2,0,1,1,2
1576754001197754,4,-3,0,0,1,-1,-1,1
1576754001206732,-1,-1,-2,-3,1,3,3,-4
1576754001206732,4,-4,1,-1,-1,-2,-4,-6
1576754001221793,-1,0,-2,3,0,1,-3,1
1576754001221793,1,-2,-3,-1,-5,-3,-2,-4
1576754001222690,-3,1,1,-2,0,-2,2,-1
1576754001222690,-4,-1,-1,-1,-1,-2,2,2
1576754001243732,2,-2,-2,-1,0,-1,0,-3
1576754001243732,-2,-2,-3,0,-1,-2,-3,-2
1576754001245628,1,2,-3,-2,0,0,1,1
1576754001245628,-4,0,-1,-1,-3,2,-2,-2
1576754001257696,0,0,2,-3,0,-2,3,2
1576754001257696,1,0,0,0,-1,1,1,0
1576754001266572,5,-2,-3,-1,-1,-3,-1,-1
1576754001266572,8,3,2,0,-3,2,-5,-2
1576754001281564,3,1,-3,1,1,2,-1,0
1576754001281564,-1,-1,1,-2,-1,-3,0,1
1576754001283524,2,-3,0,0,-1,-1,0,0
1576754001283524,-7,1,0,0,-1,-2,-1,9
1576754001304468,-7,0,0,1,0,-3,1,0
1576754001304468,-8,2,-3,-3,-3,-1,2,-1
1576754001305473,1,-2,0,-1,-1,1,-2,-3
1576754001305473,4,-2,-2,0,2,-2,1,-1
1576754001317536,5,0,1,-2,-3,-3,-2,-4
1576754001317536,0,1,-2,0,0,0,0,2
1576754001326451,-4,2,0,0,-2,2,0,1
1576754001326451,-1,-3,-1,-3,-3,0,-2,-6
1576754001341472,1,1,-2,1,0,-2,2,2
1576754001341472,-3,-3,2,-2,-2,-2,-2,-3
1576754001343410,2,1,0,-1,-1,1,-1,0
1576754001343410,0,0,-1,0,-2,-4,-2,-1
1576754001364309,-2,-2,2,-1,-1,4,-3,-4
1576754001364309,-2,-5,-1,-2,-2,1,0,-1
1576754001365306,-4,0,-1,1,-2,-4,-2,-2
1576754001365306,2,3,2,-2,0,-3,-2,-2
1576754001377375,7,-5,-2,-1,-1,-2,1,2
1576754001377375,2,-3,1,-1,0,-1,-1,2
1576754001386298,-1,-1,-3,2,1,-1,-2,-4
1576754001386298,3,-5,-2,-3,-3,1,-2,0
1576754001401312,-4,-2,-1,-4,-2,-2,-1,1
1576754001401312,0,3,-4,2,1,-1,2,-2
1576754001403209,2,3,0,-1,-1,0,1,0
1576754001403209,-3,0,-1,0,0,-4,3,0
1576754001424253,6,-3,-1,1,0,1,1,-3
1576754001424253,0,0,2,1,1,1,-2,-4
1576754001425180,-5,-1,-2,-1,-1,-2,-3,-9
1576754001425180,3,-1,2,0,1,3,0,6
1576754001437214,0,-1,-5,-5,-4,-3,0,-6
1576754001437214,2,0,-1,-4,-1,-2,-3,-2
1576754001447087,1,-5,-3,0,-1,-5,1,4
1576754001447087,2,0,-3,-4,1,0,-3,-2
1576754001462048,-8,2,1,-1,-2,-3,-1,1
1576754001462048,2,-4,-2,0,0,0,-1,-2
1576754001463046,1,3,1,0,0,0,-5,1
1576754001463046,-8,-2,0,0,-3,-1,2,-2
1576754001484093,2,1,0,1,3,0,-1,0
1576754001484093,-3,1,-3,-1,0,0,-3,-5
1576754001485987,1,-4,1,-1,0,-1,-2,-2
1576754001485987,-4,0,-3,3,0,0,-3,0
1576754001497987,-2,0,-5,-1,-4,-1,-2,2
1576754001497987,-9,-3,0,-1,-2,-3,-3,-2
1576754001506971,-4,0,-2,-2,-1,-1,1,-2
1576754001506971,-1,0,-3,-4,-3,-1,-1,-1
1576754001521894,-5,-2,3,-2,-1,-2,0,-1
1576754001521894,2,-3,-1,3,0,1,1,3
1576754001522886,3,1,1,-2,-2,0,-4,-1
1576754001522886,5,-3,-1,-1,-1,1,-1,0
1576754001543932,7,-4,-5,-1,-3,-3,-1,-1
1576754001543932,-1,2,0,0,-2,0,1,-1
1576754001545867,3,-1,-1,-1,-1,-1,-1,2
1576754001545867,5,-1,2,1,3,1,3,0
1576754001557897,-1,-1,2,-2,-2,-1,-2,-1
1576754001557897,5,1,-1,-2,-2,-2,-1,10
1576754001566769,2,-1,-3,1,0,-2,-2,-5
1576754001566769,4,0,1,-2,-2,-1,-4,-1
1576754001581729,4,0,-2,1,-1,0,2,-1
1576754001581729,3,-3,0,-1,-1,-3,-4,-6
1576754001582724,0,0,0,-3,0,-3,1,1
1576754001582724,-3,1,-2,0,2,-1,-2,2
1576754001603671,1,-1,-3,1,-3,-3,2,-1
1576754001603671,-3,1,0,0,-4,1,-1,-7
1576754001605668,-3,-3,1,-2,-1,3,0,0
1576754001605668,-5,-4,-1,1,-1,-1,2,-5
1576754001617737,6,3,0,-1,-2,2,0,3
1576754001617737,-2,-1,-1,1,1,-3,1,-1
1576754001626609,-5,-6,-1,0,0,0,-1,-4
1576754001626609,2,-2,2,-2,1,1,1,1
1576754001640670,-1,1,-2,-1,0,1,0,0
1576754001640670,-3,-4,0,-3,-2,-3,-1,0
1576754001647551,3,1,-3,-1,1,-3,-3,-1
1576754001647551,6,1,0,2,-1,0,2,3
1576754001663627,-7,-1,-4,-1,-3,0,-1,-2
1576754001663627,-2,2,0,2,2,0,2,-3
1576754001665505,-1,-4,0,-1,-3,-2,1,1
1576754001665505,-2,0,-2,-1,-2,-1,-2,-2
1576754001686552,1,1,0,1,-1,-3,-1,11
1576754001686552,4,-2,-3,-2,-1,1,-6,-4
1576754001688443,-3,3,0,-2,0,0,1,5
1576754001688443,3,0,-1,2,2,-2,1,-3
1576754001701513,-2,0,2,0,-1,1,0,-2
1576754001701513,-8,-2,1,0,-1,0,1,-5
1576754001703406,2,6,-1,-1,-2,-1,1,-6
1576754001703406,-6,0,-1,1,0,0,3,1
1576754001724451,7,0,-2,0,1,1,-1,-3
1576754001724451,-1,2,0,2,0,-1,1,1
1576754001725343,-2,-3,0,-1,-1,1,1,-3
1576754001725343,-4,-3,-1,0,-2,0,-2,-6
1576754001746388,-3,-3,-3,1,1,-3,0,-2
1576754001746388,-6,1,1,-4,-2,-1,-1,-7
1576754001748287,6,1,-2,-3,-1,-4,-5,3
1576754001748287,0,0,-1,-3,-2,-4,-3,-2
1576754001761251,5,-2,2,-1,0,0,0,3
1576754001761251,1,0,-2,-2,-3,1,-2,-1
1576754001763280,-5,-1,-2,-4,-1,-1,3,-4
1576754001763280,-2,-1,-3,-3,-2,0,1,0
1576754001784222,0,-2,-1,-1,0,-3,-2,-7
1576754001784222,7,-1,-3,-1,1,-4,0,6
1576754001785191,-4,0,3,-1,-1,2,-5,-5
1576754001785191,2,-2,0,-1,-1,-1,0,1
1576754001806134,-2,2,0,0,-2,1,-1,-3
1576754001806134,5,0,-1,3,-2,-2,-3,-3
1576754001808129,3,-3,-1,0,2,-1,2,-3
1576754001808129,-1,1,-4,-1,0,-1,0,1
1576754001821091,6,-4,1,-4,-1,-1,1,-3
1576754001821091,-2,0,0,-3,-2,2,-2,-1
1576754001828076,3,1,-3,0,-1,-1,1,-3
1576754001828076,-4,-2,0,-2,0,2,-2,0
1576754001844033,-2,-3,0,2,0,1,-2,-2
1576754001844033,-1,-1,-4,0,-1,-2,-4,-2
1576754001846024,-6,-3,-1,-2,-3,-4,-2,1
1576754001846024,2,-3,-2,-2,0,0,0,2
1576754001866010,-4,1,-3,1,-2,-2,-5,0
1576754001866010,-8,2,2,1,1,1,-1,-2
1576754001867966,-3,-1,-2,-2,-3,-1,-3,-2
1576754001867966,2,-4,-3,-1,-1,-3,-1,0
1576754001880929,7,2,1,1,-1,2,0,-4
1576754001880929,-7,-3,-4,-1,-4,2,0,-5
1576754001887950,-2,1,-1,0,0,-1,0,0
1576754001887950,3,-3,-1,1,0,0,2,0
1576754001903907,-3,-2,2,-2,-1,1,-1,1
1576754001903907,-1,-1,0,-2,-3,-2,-5,-2
1576754001905864,-3,-2,1,0,1,-1,-4,4
1576754001905864,2,-1,0,-4,-2,0,2,1
1576754001926920,-7,-2,0,0,1,-2,-2,-2
1576754001926920,10,2,-3,-1,0,-1,-1,-3
1576754001927802,3,-5,0,2,-1,2,0,1
1576754001927802,-1,4,-2,-1,-1,-4,-5,-1
1576754001940873,-2,-1,-5,-2,-2,1,0,2
1576754001940873,4,-2,0,0,-1,-1,-3,-5
1576754001947752,-2,3,-3,-1,1,0,2,-5
1576754001947752,2,-2,-1,-1,-3,-2,-4,-4
1576754001963706,-2,-1,0,1,1,1,-1,1
1576754001963706,0,-1,-3,3,2,-1,-2,6
1576754001965703,0,-3,0,0,-1,-2,2,3
1576754001965703,-1,1,0,-1,0,1,2,0
1576754001986746,-9,0,-5,-3,-5,0,-1,-8
1576754001986746,0,-2,1,2,1,1,-2,2
1576754001988641,0,-2,-1,-2,-3,-7,-2,-5
1576754001988641,-3,1,-1,-1,1,2,-5,0
1576754002000644,1,-4,2,1,0,-3,-1,1
1576754002000644,3,1,-3,-3,-1,4,-4,-2
1576754002007689,3,-2,-2,1,1,-2,-2,2
1576754002007689,5,-1,-1,-2,-3,-2,2,-1
1576754002024544,-4,-1,-1,-1,0,-1,1,3
1576754002024544,-2,-3,1,-2,-1,-4,2,-1
1576754002025550,-2,-2,0,-1,-1,1,-1,-1
1576754002025550,5,0,-2,-1,-2,-3,-3,1
1576754002046490,5,-2,-1,1,0,-1,1,2
1576754002046490,-4,-1,-1,-2,-5,-5,-2,-1
1576754002048487,0,2,-2,-1,0,1,0,7
1576754002048487,4,-3,2,0,0,-3,-1,-1
1576754002060454,1,1,0,0,1,-3,-2,-1
1576754002060454,-6,2,-2,0,0,-1,0,-1
1576754002067432,10,2,3,-3,-1,-2,0,-1
1576754002067432,-3,-2,-1,0,0,2,-2,-3
1576754002084381,3,-2,0,-1,-3,2,-1,-3
1576754002084381,-1,-1,-2,-4,-4,3,-2,-2
1576754002085378,2,-1,-1,-2,-1,1,-2,2
1576754002085378,3,0,1,-2,1,-1,2,1
1576754002106359,0,-1,0,-1,-2,-4,-2,0
1576754002106359,-4,-5,0,-2,1,-2,-2,-1
1576754002108325,7,0,-3,-3,-5,-1,-5,-1
1576754002108325,2,-2,-2,-1,0,0,3,2
1576754002121289,0,-1,-1,0,-4,-2,-1,-4
1576754002121289,2,1,-4,0,0,-2,0,1
1576754002127270,-4,0,-1,-2,-2,-4,0,-7
1576754002127270,-2,-2,-2,-2,-2,-2,-2,-1
1576754002144225,7,-3,-2,-2,1,-1,-3,1
1576754002144225,4,-1,-2,0,-3,-3,-4,-2
1576754002145222,-3,0,2,-3,-1,-2,2,0
1576754002145222,1,-1,-1,0,-2,-2,-2,-2
1576754002166165,0,-2,-5,-1,-1,-3,-2,-3
1576754002166165,0,-1,3,0,1,-2,3,1
1576754002168158,-2,0,-3,0,0,0,-1,-1
1576754002168158,-1,-2,-1,1,-1,0,2,0
1576754002180127,-3,1,1,-1,-1,-1,-2,-1
1576754002180127,9,0,-1,1,-2,1,-1,2
1576754002189106,-3,-5,-2,2,1,2,0,-1
1576754002189106,3,1,3,-2,1,-2,-1,0
1576754002204096,-3,0,-2,-1,-2,3,2,-5
1576754002204096,-2,-3,0,-2,2,-3,2,0
1576754002205066,-3,-3,-2,-3,0,0,1,-2
1576754002205066,0,-1,0,0,-4,-2,-4,-4
1576754002226050,0,-3,-2,0,-1,0,0,1
1576754002226050,1,-1,3,0,-2,1,-4,-5
1576754002228002,4,1,3,-1,1,-1,-2,2
1576754002228002,-5,0,-1,-2,-2,-2,-2,-3
1576754002239969,1,1,-3,0,-1,-3,4,2
1576754002239969,-3,0,0,0,-3,-3,-2,-8
1576754002248946,-1,-1,-5,-2,1,1,-2,-5
1576754002248946,-3,-1,-1,-3,2,1,2,1
1576754002263905,-1,0,1,-4,1,-1,-1,-2
1576754002263905,-4,-1,-2,-3,0,4,-1,-4
1576754002265901,-1,-1,2,-2,0,-5,-4,-1
1576754002265901,5,-1,-2,3,-1,-1,1,3
1576754002286843,-1,-2,1,1,2,0,1,-1
1576754002286843,-3,4,0,-1,1,-1,1,1
1576754002287842,-3,-2,-2,1,1,-1,2,-1
1576754002287842,-1,-1,-5,0,1,1,2,1
1576754002299809,2,1,-2,4,1,-4,-6,2
1576754002299809,1,1,-2,-1,-5,-2,-5,-4
1576754002308785,-5,-1,1,-1,0,0,4,2
1576754002308785,2,2,-1,3,0,-1,-1,1
1576754002323745,-3,-6,-3,-3,0,-2,4,0
1576754002323745,-2,-4,-3,-1,0,-2,-2,-7
1576754002325741,-2,-1,0,1,-3,-2,-2,-3
1576754002325741,3,-3,1,-3,-4,0,1,-1
1576754002346684,-3,-1,2,-1,-1,-2,-2,0
1576754002346684,5,-2,-3,2,0,-2,3,2
1576754002347681,4,-2,-3,-2,-2,-2,-3,-4
1576754002347681,9,-3,-2,-4,-2,-5,0,4
1576754002359649,8,2,4,3,-1,3,-4,-3
1576754002359649,-3,-1,1,0,1,-1,0,0
1576754002368625,5,-1,-1,0,-2,0,-7,-4
1576754002368625,0,3,-1,-2,0,1,1,4
1576754002383585,-4,-3,-2,-4,-1,-3,-1,-1
1576754002383585,4,-1,-1,-1,1,-2,-2,1
1576754002385576,2,2,0,1,3,-1,1,5
1576754002385576,-5,-4,1,-1,0,2,-2,-5
1576754002406523,-2,-1,-1,0,-2,-3,2,-2
1576754002406523,-6,1,0,0,-2,0,-2,0
1576754002407521,1,1,-3,-3,-2,-2,0,0
1576754002407521,-4,-2,-1,-2,-2,0,-1,2
1576754002420488,1,-1,-3,5,1,2,-3,2
1576754002420488,-1,-2,-4,-2,-1,-1,-3,-2
1576754002429494,2,-3,3,-1,-2,0,-2,1
1576754002429494,3,0,-2,0,-3,-1,0,-5
1576754002444424,-5,2,1,0,-2,2,-2,-1
1576754002444424,0,-2,0,-3,-1,-3,-3,1
1576754002445421,-5,0,1,3,1,-2,-2,1
1576754002445421,-5,0,-2,3,-1,-2,-5,-2
1576754002466363,3,0,-2,-1,0,3,0,0
1576754002466363,-2,-1,1,-6,-4,-2,-3,-5
1576754002468359,-3,1,-2,-5,1,-3,-1,-2
1576754002468359,-2,0,0,-3,1,0,2,4
1576754002480324,1,1,-1,0,2,0,0,1
1576754002480324,-2,5,1,1,0,0,-1,2
1576754002489304,0,-2,-2,-1,-1,2,4,-4
1576754002489304,-6,-2,-1,1,-2,-2,0,0
1576754002504265,9,1,-3,-1,-2,2,-1,-1
1576754002504265,-6,-3,-1,0,0,0,1,0
1576754002505257,-3,-1,1,-3,0,0,-2,-3
1576754002505257,2,0,2,1,1,-1,-3,-1
1576754002526201,-8,-5,1,-1,-2,-4,0,1
1576754002526201,1,-1,-1,-1,-1,-2,0,-2
1576754002528202,1,-3,-1,-1,-2,-3,-2,-4
1576754002528202,-1,-4,-2,-3,-1,0,0,-4
1576754002540167,-1,0,0,-2,-2,-1,0,-5
1576754002540167,-6,-3,-2,-1,-1,-2,-1,-3
1576754002549140,0,-1,-3,-5,-2,-3,1,-1
1576754002549140,8,-2,-1,-1,0,0,2,0
1576754002564103,-6,0,-2,-2,-5,-2,-1,-2
1576754002564103,0,0,-1,-2,-1,-1,0,-2
1576754002565099,1,0,-1,-2,-2,-2,-1,-1
1576754002565099,-5,4,0,2,1,0,0,-1
1576754002586042,1,-2,0,-2,0,2,-3,1
1576754002586042,2,-1,-2,1,2,1,0,-1
1576754002588037,7,0,-3,-1,0,-1,-2,0
1576754002588037,0,-1,0,0,1,-1,-3,1
1576754002608980,3,2,-2,-1,-5,-1,-1,3
1576754002608980,-1,1,-2,0,-2,-1,-3,-4
1576754002610974,2,-2,0,1,-2,-3,-2,1
1576754002610974,-1,-1,-1,-3,-1,-2,0,1
1576754002623941,-6,2,-2,4,0,0,-2,-1
1576754002623941,1,-3,-3,-4,0,-1,-4,-3
1576754002625934,-6,1,-1,-1,-2,4,3,1
1576754002625934,-3,-2,0,-2,-3,-3,-3,-2
1576754002646879,-1,-3,-1,0,-1,-2,-1,-5
1576754002646879,1,4,-1,2,1,0,-2,1
1576754002647876,-2,-1,-4,-2,-1,-1,-1,12
1576754002647876,2,-1,0,0,0,2,-2,2
1576754002668820,-2,2,1,-3,0,-1,-4,-7
1576754002668820,3,-3,1,-2,-1,-3,1,-2
1576754002670814,2,-2,2,2,1,2,-3,-7
1576754002670814,6,2,0,0,-1,1,2,0
1576754002683781,-2,-3,-5,0,-3,-2,0,-3
1576754002683781,-5,-3,0,1,0,0,2,-2
1576754002685775,1,-1,0,-1,-1,-2,-2,2
1576754002685775,-3,-3,-3,-2,-2,-3,5,-5
1576754002706719,4,0,2,0,-2,-1,1,-3
1576754002706719,-4,0,-2,-2,1,-2,-5,-6
1576754002707716,-2,-1,-1,-1,-1,1,-1,-5
1576754002707716,7,-3,-1,-1,0,1,0,1
1576754002728659,-5,-1,0,2,-3,-2,-4,0
1576754002728659,-6,-2,1,0,-1,-1,2,-3
1576754002730655,-6,-1,-4,-2,0,-2,-1,-2
1576754002730655,-1,-1,-2,-1,0,-1,-3,-3
1576754002743618,-1,1,2,-2,-3,-1,0,0
1576754002743618,5,0,-3,-3,0,1,0,2
1576754002750600,0,1,-2,1,1,-4,-3,-1
1576754002750600,0,-3,0,0,-2,-2,3,2
1576754002766558,4,-1,0,-2,2,-1,-4,2
1576754002766558,-3,0,-2,2,-2,1,-1,0
1576754002767557,-2,1,-1,-4,-2,0,0,-4
1576754002767557,-1,1,-1,0,-2,-2,-1,5
1576754002788503,7,0,0,2,1,-2,0,-3
1576754002788503,3,-4,-1,-2,-2,-1,-3,-3
1576754002790498,-3,-2,0,-3,-2,1,3,-3
1576754002790498,1,2,-2,-1,0,3,1,0
1576754002803464,3,-5,0,-1,-3,-2,-1,-1
1576754002803464,3,2,-1,-1,0,-3,-3,-8
1576754002810447,0,2,-2,-2,0,-3,-1,-3
1576754002810447,4,-4,0,-3,1,1,-1,-4
1576754002826397,-12,4,-5,-3,-1,0,-2,0
1576754002826397,11,-5,0,-3,4,1,0,1
1576754002828395,-6,1,-1,0,2,-1,-1,0
1576754002828395,0,-1,0,0,-3,-1,1,-2
1576754002849342,0,2,0,1,-1,1,-2,-3
1576754002849342,-4,0,-1,2,-1,-3,-1,2
1576754002850336,5,-2,0,-1,-3,-2,-1,3
1576754002850336,1,0,1,-3,-1,-4,-2,1
1576754002863302,6,-2,-3,-1,-1,4,1,2
1576754002863302,-10,1,-1,1,-3,-2,0,-2
1576754002870284,2,2,-3,1,1,-3,-2,3
1576754002870284,-8,-1,-2,0,0,0,-1,-8
1576754002886241,-6,-3,0,-2,0,0,-2,-4
1576754002886241,1,4,3,-1,-1,2,1,5
1576754002888235,-3,-2,2,0,1,-2,-3,-1
1576754002888235,-2,-3,-1,-1,1,1,-2,-1
1576754002909182,1,-1,-1,-1,0,-4,-1,2
1576754002909182,4,-1,0,-1,-2,-1,0,-3
1576754002910176,3,3,0,1,1,-2,-3,-1
1576754002910176,0,0,-2,-1,0,-1,-1,3
1576754002922147,-8,0,-3,-1,0,0,1,-4
1576754002922147,-1,-3,-1,-2,-2,-1,-3,0
1576754002931118,0,-3,1,0,-2,1,0,1
1576754002931118,0,2,-3,-1,-2,-3,-1,0
1576754002946078,0,-3,1,0,-2,-2,-1,-1
1576754002946078,0,0,-2,0,-1,1,0,3
1576754002948073,0,0,-2,2,1,1,2,-2
1576754002948073,3,0,-1,1,-3,-2,0,-6
1576754002969019,8,-3,-2,0,-2,-4,2,1
1576754002969019,-4,-1,1,-1,-2,1,-4,-5
1576754002971011,2,0,0,-2,-1,-2,-1,-4
1576754002971011,-9,-1,2,-4,-1,-1,1,-5
1576754002982985,-3,0,0,2,0,1,-1,-1
1576754002982985,-2,0,-1,-2,-1,-3,-4,0
1576754002989963,1,3,-3,-3,-1,0,-1,-2
1576754002989963,1,1,-5,-1,0,-2,-1,6
1576754003006915,-4,0,-2,-1,0,-4,0,-5
1576754003006915,-4,3,-3,1,0,-1,0,-4
1576754003007917,-2,-7,-1,-1,-3,2,-1,-2
1576754003007917,-1,0,4,1,-3,3,-3,2
1576754003028859,-8,0,-1,-1,-2,2,1,-2
1576754003028859,-1,0,0,-2,-3,-1,0,-4
1576754003030855,-4,-3,-2,-4,1,-3,-2,2
1576754003030855,2,-2,0,1,1,0,0,3
1576754003042819,-1,-2,-1,3,0,-3,0,-1
1576754003042819,-2,-2,4,1,3,0,-1,-1
1576754003049804,3,0,0,-2,-2,-1,-3,-4
1576754003049804,2,-1,-1,1,-2,-1,3,1
1576754003066754,4,1,-1,1,1,3,-6,-4
1576754003066754,-6,-2,0,-2,-1,-2,1,0
1576754003067753,3,1,-1,-2,-5,1,1,0
1576754003067753,3,2,-3,1,0,2,0,1
1576754003088698,-1,0,-1,-1,-5,-1,0,-4
1576754003088698,-3,-1,-4,-1,-4,-3,-3,-3
1576754003090693,-2,1,1,0,1,-2,1,1
1576754003090693,-3,-2,-5,-3,-3,-1,-3,-2
1576754003102662,2,0,-2,-1,1,1,-2,1
1576754003102662,4,-2,0,-3,-1,-4,-2,-1
1576754003111637,-4,0,0,-2,-5,-3,2,-3
1576754003111637,4,0,0,0,0,1,0,0
1576754003126596,-2,-3,0,-1,1,0,-1,-3
1576754003126596,-3,1,-1,-1,0,2,-2,0
1576754003127592,2,-2,-2,-2,0,-2,-1,-5
1576754003127592,-2,-5,2,-1,0,0,1,5
1576754003148538,2,2,-2,0,-1,-1,0,0
1576754003148538,2,0,-1,-3,-1,-1,0,-3
1576754003150540,1,-3,-3,1,-1,2,-1,1
1576754003150540,-2,1,-3,-2,-4,-4,0,-3
1576754003162535,2,-2,1,-2,-2,-2,-1,-2
1576754003162535,-1,3,-1,-2,-1,1,-1,-5
1576754003171476,1,-2,2,-2,2,0,-2,-1
1576754003171476,3,-1,0,0,0,-1,0,-1
1576754003186435,1,-1,-3,1,-1,2,-3,-2
1576754003186435,3,-1,-1,0,0,-2,-3,0
1576754003188430,4,-3,1,-1,0,-4,0,1
1576754003188430,3,2,1,-1,-2,2,2,3
1576754003209374,0,1,0,-1,-3,-5,2,3
1576754003209374,-1,-1,-3,0,-1,1,-3,2
1576754003210370,-6,0,-1,0,-2,2,-1,1
1576754003210370,-3,-1,-3,0,-1,-4,1,0
1576754003222342,-4,2,2,-2,1,-1,1,-5
1576754003222342,2,-3,-3,-1,-1,1,1,1
1576754003231315,4,-2,-2,-4,-2,0,0,1
1576754003231315,2,-2,-5,-1,-1,-2,-2,-2
1576754003246275,3,-1,1,-2,0,-4,-3,0
1576754003246275,0,-3,-3,-1,3,-2,-1,-1
1576754003248271,2,-2,-1,-1,-1,0,-4,-1
1576754003248271,2,1,4,1,0,1,3,-1
1576754003269215,0,-3,-2,1,-2,0,-2,1
1576754003269215,-2,-2,2,-2,-2,-3,-3,-4
1576754003270214,-1,1,-3,0,-1,1,-1,5
1576754003270214,0,-1,0,3,1,1,-1,-1
1576754003282182,-2,1,-1,-2,-1,2,-2,-3
1576754003282182,-1,-2,1,-1,-1,-4,0,0
1576754003291156,-3,1,-2,-3,-3,1,-2,-5
1576754003291156,-4,-4,-2,0,-3,-2,-1,-2
1576754003306114,-2,1,1,0,1,0,0,-1
1576754003306114,1,1,1,-1,1,-2,1,0
1576754003308112,-2,2,3,-2,1,-1,5,-7
1576754003308112,2,-6,0,-5,-1,1,-2,-7
1576754003329056,-8,-1,-1,1,-2,-2,0,-9
1576754003329056,-2,0,-3,-1,0,-1,-1,-2
1576754003330053,5,0,-1,0,2,-1,0,-1
1576754003330053,-6,1,0,-2,-3,2,-5,0
1576754003343017,1,1,0,-1,-3,-4,-2,-1
1576754003343017,-3,2,-1,-4,1,2,-4,0
1576754003351992,1,0,-1,0,-4,0,2,1
1576754003351992,7,-6,-5,-1,-3,-1,-4,-1
1576754003365956,-4,1,0,-2,-3,-1,-1,-2
1576754003365956,1,-2,-2,2,-1,-1,-1,-3
1576754003367953,-4,0,-3,0,-1,-1,0,-2
1576754003367953,-2,4,2,0,0,1,1,0
1576754003388931,-5,1,-2,-3,-1,0,-2,-2
1576754003388931,-6,0,-2,2,0,-1,-2,-2
1576754003390919,-5,-1,-2,-4,0,-2,-1,0
1576754003390919,1,2,-1,-1,0,-1,-2,0
1576754003402891,5,-1,-3,0,-3,2,1,-3
1576754003402891,0,-1,-4,-3,-2,-2,-1,0
1576754003411834,-4,-1,-2,1,1,-3,-2,4
1576754003411834,4,1,-2,1,1,-2,2,-1
1576754003426869,-2,1,-2,-1,1,1,-3,0
1576754003426869,9,0,-1,-3,-3,-1,1,3
1576754003427791,2,-1,1,1,0,-5,-1,3
1576754003427791,4,0,1,0,0,-2,-2,-3
1576754003448803,4,-3,-3,1,0,-1,-2,-1
1576754003448803,-2,1,2,0,0,-3,1,1
1576754003450734,10,-4,-2,3,-1,0,0,3
1576754003450734,0,3,0,-1,-2,2,3,1
1576754003462698,2,2,1,-2,2,2,-1,0
1576754003462698,-2,-4,-4,-1,-3,-2,-1,-2
1576754003471678,3,0,1,-2,1,-2,-4,1
1576754003471678,2,0,0,-1,-3,0,-3,-1
1576754003486738,2,-2,-4,-2,-4,-4,-2,4
1576754003486738,2,-5,-2,-2,-1,-1,2,-4
1576754003487667,-4,4,-4,-1,-2,4,1,-2
1576754003487667,2,-3,-2,0,-1,-2,3,-1
1576754003509572,0,-1,-3,1,1,2,-3,0
1576754003509572,0,-1,1,0,0,-1,0,-4
1576754003510571,-6,1,-1,-3,-3,-4,-2,-1
1576754003510571,-1,-1,-2,-1,0,-1,-4,-1
1576754003522642,-4,-3,1,0,1,-1,-1,-1
1576754003522642,-2,-3,0,-3,-1,1,-3,-2
1576754003531515,6,-4,0,-1,-1,-2,0,-1
1576754003531515,1,-3,-2,1,0,-1,0,1
1576754003546521,-1,-1,1,-2,-2,-3,-1,-4
1576754003546521,1,4,1,-1,0,1,-2,-4
1576754003548472,-2,-4,-1,-2,0,-1,-1,-2
1576754003548472,0,2,2,-1,-1,1,4,4
1576754003569412,-1,1,2,3,-1,-3,-2,-4
1576754003569412,6,1,-3,-1,-1,-2,1,1
1576754003570411,2,-1,1,1,1,0,-3,-1
1576754003570411,-3,-2,-3,0,0,-1,1,-1
1576754003591456,1,0,-1,-1,1,1,1,0
1576754003591456,-2,-1,0,0,0,1,2,-2
1576754003593401,-3,1,-1,-2,1,1,-3,-4
1576754003593401,-3,0,-3,-1,0,-4,-5,-2
1576754003606418,3,-1,-3,0,0,-1,0,1
1576754003606418,-4,-2,-2,-1,1,-1,-2,2
1576754003608310,0,-1,2,-3,-2,1,1,1
1576754003608310,-7,-3,4,4,-1,-1,1,3
1576754003629352,-11,-2,2,-4,-1,-3,-2,-5
1576754003629352,-3,-1,1,-1,1,1,-2,-3
1576754003630250,-3,-2,-1,1,-1,0,2,1
1576754003630250,-1,2,1,-1,-1,-1,1,2
1576754003651296,-2,0,1,0,-3,-3,-2,-2
1576754003651296,-3,0,-3,1,0,-5,-3,0
1576754003653192,-4,-3,-3,1,-2,1,1,-3
1576754003653192,-6,1,-2,-3,-2,-2,-1,-3
1576754003666257,8,-2,3,-1,1,1,0,4
1576754003666257,1,0,3,-3,-3,-4,0,-4
1576754003668152,8,1,-1,-3,1,-1,5,-2
1576754003668152,4,-4,-1,0,0,3,1,1
1576754003689196,-2,3,-2,2,-3,0,2,3
1576754003689196,14,-3,1,5,-6,4,4,4
1576754003691087,-12,5,1,5,-3,-5,-10,-10
1576754003691087,-7,0,0,-3,-1,-6,-4,-5
1576754003711038,-2,-2,-4,-6,4,0,0,-4
1576754003711038,-2,3,-2,-5,3,-1,-5,1
1576754003713029,-1,-2,0,-5,0,0,1,2
1576754003713029,-4,3,1,2,-3,0,3,-4
1576754003726097,-8,2,-3,-2,-2,-1,-2,-1
1576754003726097,0,-4,1,-3,-3,-2,-3,-4
1576754003732999,2,-2,0,1,1,1,1,0
1576754003732999,-1,-3,0,0,1,0,-3,2
1576754003749033,0,0,2,1,0,1,-1,-3
1576754003749033,-10,1,-1,-2,-2,1,1,-4
1576754003750931,-3,2,-2,0,-1,1,1,3
1576754003750931,-1,-4,0,-2,-2,-2,-1,-2
1576754003771975,-2,0,-4,0,-1,1,-1,-2
1576754003771975,-3,-1,0,1,1,0,-2,-3
1576754003772868,2,-1,1,-3,0,-1,1,5
1576754003772868,1,-3,-1,0,-2,1,1,-1
1576754003785937,8,-1,-1,0,-2,0,-2,0
1576754003785937,-1,0,0,-3,-2,-5,-3,-3
1576754003792919,-2,1,0,-2,0,-1,1,-2
1576754003792919,1,-1,-2,-1,-4,0,1,-1
1576754003808877,2,-1,2,3,3,-2,-3,-4
1576754003808877,3,-1,-3,-2,1,-3,-3,5
1576754003810768,3,-4,-2,-3,0,-2,-2,1
1576754003810768,1,-2,-2,1,1,-1,-6,-1
1576754003831816,-8,0,2,-4,-3,-3,-1,-3
1576754003831816,-2,-2,-2,-2,0,-1,0,-1
1576754003832745,-2,3,2,0,2,-4,1,3
1576754003832745,-2,2,-3,0,0,0,-2,-2
1576754003845725,4,-5,-3,-1,-4,-1,-1,0
1576754003845725,2,-1,-3,-2,1,1,-4,-2
1576754003852754,7,-2,-4,-1,0,-1,1,2
1576754003852754,-2,0,1,-1,0,0,-2,-2
1576754003868663,2,-2,1,-1,0,0,-2,-2
1576754003868663,-3,-2,-1,-1,-2,0,-1,0
1576754003870609,3,-4,-3,0,-2,-2,-2,-1
1576754003870609,6,2,1,-1,0,1,4,5
1576754003891657,-1,2,-2,0,-1,-1,-4,-6
1576754003891657,0,-3,0,0,0,0,0,1
1576754003892586,-2,0,2,-2,-3,1,2,-2
1576754003892586,5,-3,-4,-2,0,1,-1,-1
1576754003906510,-5,-5,0,-3,-2,-1,-2,2
1576754003906510,-7,-1,1,-1,-2,-2,2,0
1576754003912599,-1,2,-1,-5,-1,-3,-1,-6
1576754003912599,14,-1,-2,0,0,0,-2,-2
1576754003929496,-6,-2,-3,-2,-2,-2,-1,2
1576754003929496,1,4,0,-1,-3,0,1,-1
1576754003930447,0,-4,-2,0,-1,-3,-1,-1
1576754003930447,-1,-2,1,2,-1,-1,-2,2
1576754003951496,6,3,2,-1,-2,0,-4,-1
1576754003951496,4,-2,-2,-1,0,-2,0,-2
1576754003953391,-1,-3,-1,-3,0,2,0,1
1576754003953391,-1,0,-4,1,-4,0,0,0
1576754003966350,-3,1,2,1,0,0,1,0
1576754003966350,-2,1,-3,0,0,-1,-4,-5
1576754003972441,1,-2,-1,-3,-1,2,-2,3
1576754003972441,-3,0,-1,1,-1,0,0,1
1576754003989388,-4,-3,-3,-3,-3,1,-2,2
1576754003989388,1,2,-3,-3,-2,-3,1,-1
1576754003990322,4,0,-3,0,-1,-4,-1,1
1576754003990322,-2,3,-1,-1,-2,-3,-3,-2
1576754004011331,2,0,-3,2,-1,-2,0,-3
1576754004011331,-3,-2,2,-2,2,0,0,-1
1576754004013225,-4,1,-1,-1,-1,3,-2,1
1576754004013225,-1,-3,0,1,-1,-1,3,0
1576754004026287,-5,1,-1,0,-1,-1,0,-4
1576754004026287,1,-3,0,-2,1,-1,0,1
1576754004033171,1,-2,1,2,-2,1,2,2
1576754004033171,-5,-4,-1,0,0,-2,-3,-1
1576754004049173,2,0,-1,1,-2,-2,1,-1
1576754004049173,-5,-4,0,-2,-2,-2,-2,-2
1576754004050129,0,-3,-1,0,-5,0,-2,-3
1576754004050129,-4,1,0,-1,-1,0,2,1
1576754004072068,6,2,1,2,1,1,2,4
1576754004072068,-4,2,0,-3,-1,-2,-10,-5
1576754004073067,4,-1,-1,-3,2,-4,-2,-1
1576754004073067,2,-4,0,-2,1,-2,-3,1
1576754004094113,-3,0,-2,-6,-1,-1,-1,-1
1576754004094113,6,-2,-3,0,2,-3,0,5
1576754004096006,0,-1,-2,1,0,-1,3,3
1576754004096006,-3,0,-2,-1,-3,0,0,-8
1576754004109074,-3,-3,-2,1,-1,3,-6,1
1576754004109074,1,-2,-2,0,0,-2,-2,10
1576754004110965,2,-2,1,0,-1,0,-2,-7
1576754004110965,0,-1,0,0,-2,-1,4,-2
1576754004131974,-9,1,2,-3,0,-2,-3,-6
1576754004131974,-2,0,1,1,0,3,2,-4
1576754004132908,-1,2,-3,0,1,0,-2,6
1576754004132908,-4,2,-2,-1,-1,0,0,3
1576754004144978,-5,-2,0,-2,-2,-1,-3,-9
1576754004144978,0,-4,-2,-2,-3,-1,2,1
1576754004153895,0,0,0,-2,0,2,3,1
1576754004153895,-3,1,2,1,0,1,-2,-3
1576754004168914,-1,0,-2,-4,0,-4,-5,1
1576754004168914,1,1,1,1,-1,1,1,-4
1576754004170806,1,-1,-3,1,3,-3,2,-2
1576754004170806,-1,0,-2,-3,0,-2,-4,-1
1576754004191852,1,-4,-1,-2,2,-1,1,-5
1576754004191852,-5,3,-1,-1,-3,2,-3,-1
1576754004192793,-1,-6,0,-2,1,-3,2,0
1576754004192793,-2,0,-2,-2,-2,1,-1,-5
1576754004205711,6,3,2,1,1,-2,1,-1
1576754004205711,-2,-2,-1,-2,-4,0,3,-1
1576754004213690,-1,-2,1,0,-5,-1,-1,-5
1576754004213690,-1,-2,-3,-3,-2,2,-3,2
1576754004228754,-3,-5,-2,-1,-2,-2,0,0
1576754004228754,4,1,1,-3,0,0,-2,-1
1576754004230647,-3,-6,1,1,1,1,2,0
1576754004230647,1,0,0,-2,-1,3,-2,-2
1576754004251687,0,-3,0,1,1,-2,-1,-2
1576754004251687,4,-1,0,-1,1,-2,-5,0
1576754004252588,1,0,-1,-1,-1,-1,1,2
1576754004252588,4,-5,-1,3,-3,-2,0,-5
1576754004265626,-5,1,-4,0,1,0,-3,0
1576754004265626,2,1,2,-2,-1,1,2,-2
1576754004274561,5,1,-1,-2,-3,-2,-2,2
1576754004274561,-2,-3,0,-1,-2,0,-1,-1
1576754004289531,2,0,1,-1,0,0,0,-4
1576754004289531,1,-2,-1,-2,0,-4,1,-2
1576754004290486,1,2,-1,0,-3,-2,2,1
1576754004290486,-2,2,-2,-3,-2,-3,-1,-5
1576754004311532,0,-1,-1,-3,0,-3,0,1
1576754004311532,1,0,-5,1,0,0,-3,-3
1576754004313422,1,-4,-2,1,-1,-1,-4,-2
1576754004313422,-3,3,-1,-3,-2,1,1,2
1576754004325494,-3,0,-1,1,-1,-1,-7,0
1576754004325494,-8,-2,-1,0,-2,1,1,-2
1576754004334369,-4,0,-1,-1,0,0,1,2
1576754004334369,0,-1,-2,2,0,-2,-2,1
1576754004349448,1,-2,-3,0,-1,-3,1,1
1576754004349448,0,1,-1,-1,0,0,-4,1
1576754004350324,2,-3,0,-2,3,2,-5,0
1576754004350324,5,-1,-2,0,0,1,0,1
1576754004371370,1,-3,0,-1,-3,2,1,3
1576754004371370,0,-2,1,-1,-1,-4,-3,-4
1576754004373264,-4,0,0,3,-2,1,1,0
1576754004373264,0,-2,0,0,-2,-2,-1,-1
1576754004385331,1,0,-1,0,-2,-3,-1,-2
1576754004385331,5,-3,-4,-1,0,-1,-2,-3
1576754004394208,-3,0,1,0,0,1,1,-1
1576754004394208,-2,-1,1,0,-1,0,0,1
1576754004409269,-2,1,-1,-2,-2,-1,-4,-1
1576754004409269,2,0,-1,0,1,-1,-1,8
1576754004410200,3,2,-2,-2,0,-2,0,-4
1576754004410200,-2,-2,2,1,0,-2,-3,-2
1576754004432105,-1,-1,2,-2,-1,-1,-1,0
1576754004432105,-4,-3,-2,0,-2,0,-2,-1
1576754004433105,-1,0,-2,-4,-1,0,-3,0
1576754004433105,2,-1,2,0,1,0,-1,-1
1576754004445174,-5,0,-1,-2,-4,-1,-4,-3
1576754004445174,0,-1,-3,2,1,-2,0,0
1576754004454049,-5,0,0,-2,-2,-3,-2,-7
1576754004454049,-4,0,-3,-1,-3,-1,-1,-3
1576754004469108,-4,3,-1,0,0,-3,-1,-4
1576754004469108,-4,-2,-2,-2,1,0,2,0
1576754004471005,-2,1,3,-1,-2,-1,0,3
1576754004471005,8,-1,-2,1,3,-1,-1,1
1576754004491995,2,-3,-4,-1,-2,0,1,-2
1576754004491995,4,0,1,2,3,1,2,3
1576754004492945,11,-5,-1,1,-2,2,-2,-1
1576754004492945,-7,-4,-1,0,-2,-1,0,-2
1576754004513931,3,2,-1,0,2,0,-2,2
1576754004513931,-7,-2,1,-2,-2,0,-1,-7
1576754004515884,-5,0,0,1,-2,0,0,7
1576754004515884,-1,2,2,2,1,-1,-2,-7
1576754004528896,-3,-2,0,-4,-1,0,1,-10
1576754004528896,-1,0,0,1,-4,-1,2,-1
1576754004530878,7,4,-2,1,2,0,-2,4
1576754004530878,0,-1,-2,-1,-3,-3,0,-6
1576754004551903,-2,-2,1,-2,-1,-4,-3,1
1576754004551903,-1,-2,0,-4,0,-3,-4,-4
1576754004552790,4,-2,-1,-1,-2,-1,1,1
1576754004552790,1,-1,-6,1,-3,0,1,-1
1576754004573833,3,1,-3,3,0,1,-1,1
1576754004573833,8,0,0,-2,-1,0,-2,2
1576754004575724,-5,0,-4,-4,-3,-1,-2,-3
1576754004575724,-2,-1,3,-2,0,2,-4,3
1576754004588789,-2,2,-1,-1,1,-4,-1,1
1576754004588789,1,-2,-3,-1,-1,1,-3,-2
1576754004590683,-3,-2,2,2,-3,-1,-2,-4
1576754004590683,1,-1,0,0,-1,-2,-1,0
1576754004611731,-2,-4,0,0,-1,2,-2,-1
1576754004611731,-5,-1,2,-1,1,0,-3,-1
1576754004612656,0,0,-1,2,0,-1,1,-3
1576754004612656,-5,-5,-5,-2,-1,0,0,-4
1576754004634564,-2,-1,-2,-3,-2,-2,-2,-3
1576754004634564,-4,-1,0,0,3,-4,-1,2
1576754004635563,5,-1,-1,-3,-2,-1,-1,1
1576754004635563,-6,2,2,0,1,-1,-2,-2
1576754004648629,8,-1,-4,-1,1,0,3,-2
1576754004648629,1,1,-1,-2,-2,-1,-1,1
1576754004655509,-2,0,-2,-1,1,2,-1,-2
1576754004655509,4,-1,0,0,-1,-2,-2,-1
1576754004671569,-3,-3,0,1,-3,1,-2,-1
1576754004671569,-3,0,2,-1,-2,-2,-2,-5
1576754004673496,2,-3,-1,-1,-1,-2,3,5
1576754004673496,4,0,-3,-2,-1,0,0,6
1576754004694479,-1,1,-1,-3,-2,-1,-3,-5
1576754004694479,0,1,-4,-5,-2,-3,3,-1
1576754004695403,-4,-4,-2,-2,-1,-2,0,-3
1576754004695403,4,-1,-3,-1,-2,-2,-2,-6
1576754004708469,9,-1,-1,4,2,0,-2,15
1576754004708469,5,-3,-1,-3,0,-1,1,-5
1576754004715392,2,0,-1,2,1,-1,0,1
1576754004715392,-2,2,3,-1,-1,1,0,3
1576754004731357,-4,-3,0,0,4,-2,-2,-4
1576754004731357,-2,3,0,-1,0,0,-1,0
1576754004733303,2,-5,0,0,-2,-1,2,3
1576754004733303,-2,-1,0,-2,-2,0,1,-3
1576754004761325,-2,0,0,0,1,3,-1,-2
1576754004761325,-1,2,-2,0,-1,-3,0,2
1576754004763256,-2,-4,-3,-4,-1,0,-1,-4
1576754004763256,-1,-2,-3,-2,-2,-1,-2,-3
1576754004768311,1,-2,-5,-4,-4,-1,3,-2
1576754004768311,2,1,-3,-1,-4,-3,-4,-1
1576754004775291,0,1,-1,1,-1,1,3,-3
1576754004775291,-3,1,-2,0,-2,-2,-2,-2
1576754004791243,-2,-1,-1,-6,-6,-4,-1,-4
1576754004791243,-1,-2,-2,0,1,-1,-3,3
1576754004793141,3,0,0,-2,1,-4,1,0
1576754004793141,1,-3,2,2,0,-2,0,-1
1576754004814119,0,-3,1,-3,-2,0,-2,-3
1576754004814119,-2,-1,1,-4,-3,-1,1,-3
1576754004815084,2,1,-1,-2,-2,2,-5,1
1576754004815084,-2,0,-1,-4,2,-2,0,0
1576754004828146,-9,-3,3,-1,1,-1,-3,2
1576754004828146,1,-1,0,-2,1,1,2,1
1576754004835132,-1,-1,2,1,0,-1,1,-1
1576754004835132,-4,1,-4,-1,-2,1,-1,-3
1576754004852028,1,1,1,1,-1,-2,-2,-2
1576754004852028,-2,-5,-1,1,0,1,-1,-2
1576754004852980,1,0,-1,-2,-5,-3,-1,-3
1576754004852980,1,-5,1,1,-2,-1,-2,-2
1576754004874023,-2,0,0,2,1,-4,-2,-4
1576754004874023,5,1,1,-2,0,1,0,-2
1576754004875920,3,0,1,1,1,-1,-2,0
1576754004875920,3,-1,-1,1,-3,-3,0,-5
1576754004888896,2,-2,-4,-2,1,-1,-3,-3
1576754004888896,-6,2,0,0,2,1,-1,-2
1576754004894972,-1,-3,-2,-1,0,0,2,2
1576754004894972,-3,-1,0,1,-1,0,1,-1
1576754004911826,-1,-3,-6,-3,-3,-1,2,-6
1576754004911826,-3,-2,0,1,0,-2,-3,0
1576754004912824,-3,0,5,-1,0,2,3,-2
1576754004912824,2,-3,-2,1,-1,-2,-4,-1
1576754004933766,3,-1,1,-2,-2,0,-2,1
1576754004933766,4,-2,-4,2,0,-3,-3,-4
1576754004935762,-3,3,-4,-1,-2,0,-3,0
1576754004935762,3,-2,0,-2,0,0,-1,0
1576754004948757,-5,1,-2,-2,-2,1,1,-5
1576754004948757,1,-2,0,-2,-3,0,-1,0
1576754004954711,1,-4,-1,3,-1,0,2,-4
1576754004954711,-1,0,-3,-3,-4,-2,-3,-5
1576754004971706,0,3,-2,0,3,0,0,1
1576754004971706,8,-2,-1,-3,-1,-2,0,-1
1576754004972663,-5,-3,0,3,-2,-2,1,3
1576754004972663,8,-3,2,0,-1,-1,0,-3
1576754004993605,-2,3,-2,-3,-2,-2,0,-3
1576754004993605,-6,-2,-3,-2,0,-1,2,3
1576754004995600,3,-1,-1,-3,-1,1,-4,0
1576754004995600,-1,5,0,1,1,-3,0,-1
1576754005007600,-1,-2,0,-3,-3,-3,-6,-5
1576754005007600,0,-4,3,-3,-3,-3,1,-2
1576754005016546,3,-3,-2,-2,-1,-3,-1,-1
1576754005016546,-7,-1,0,0,0,-2,2,-1
1576754005039509,-6,-2,0,1,-1,1,-1,0
1576754005039509,-1,1,-3,1,-3,1,-3,2
1576754005040479,5,0,2,0,-1,-1,-3,-2
1576754005040479,0,3,1,-1,0,-2,-2,-1
1576754005054439,3,-3,0,-1,2,-3,1,5
1576754005054439,2,-3,-1,-1,1,-1,0,-1
1576754005055437,2,0,-2,4,-3,0,2,0
1576754005055437,-4,-2,-1,-1,-2,1,-2,2
1576754005067411,2,-4,-1,0,0,2,-2,-4
1576754005067411,1,4,0,1,3,2,3,-1
1576754005076381,-4,0,1,-2,0,-1,-2,-3
1576754005076381,1,-6,-3,0,-3,-1,-1,1
1576754005091346,0,2,-3,3,-1,0,-1,1
1576754005091346,-6,1,0,-3,-3,-1,-2,1
1576754005093341,2,0,-1,-2,1,-1,-2,1
1576754005093341,-1,-2,0,0,2,2,1,-1
1576754005114286,4,2,-3,-2,-1,-3,-5,-2
1576754005114286,-4,-4,-4,1,-1,-4,2,0
1576754005115278,0,-2,-2,1,-2,-1,0,-2
1576754005115278,2,3,-3,-2,-2,3,-1,-2
1576754005127249,-3,0,-1,-1,-3,-3,0,-3
1576754005127249,2,-6,-1,-1,-2,1,-2,0
1576754005137222,-6,0,-4,0,-2,-1,2,0
1576754005137222,4,-1,-2,-2,-2,-2,-4,0
1576754005151186,3,3,-1,1,1,-2,-1,-1
1576754005151186,-3,3,0,-1,0,-1,-1,-5
1576754005153181,0,-1,0,1,-1,0,-4,1
1576754005153181,-1,1,0,0,1,-2,-1,-1
1576754005174167,-1,-3,-1,-3,-3,-4,-4,-1
1576754005174167,-2,0,-4,0,-1,-1,-2,0
1576754005175122,2,0,-1,-2,-1,1,3,3
1576754005175122,0,1,-2,0,2,0,3,-4
1576754005188116,-2,-2,3,-1,-1,-1,-1,-1
1576754005188116,5,-1,1,0,4,-1,1,3
1576754005197061,1,0,-3,-2,-3,-1,1,0
1576754005197061,-4,1,-2,-1,-2,-1,-6,-7
1576754005211021,-2,-2,2,1,2,2,3,-7
1576754005211021,-6,0,0,-4,-3,0,-4,-5
1576754005213019,1,3,-1,-1,2,0,0,1
1576754005213019,9,-1,-2,-2,0,-1,-2,-1
1576754005241974,-8,2,1,-1,-1,-1,0,2
1576754005241974,-2,3,0,-2,0,0,-2,-1
1576754005242938,3,-3,1,0,3,-1,3,-1
1576754005242938,-6,-4,-1,-3,-4,-1,-1,-2
1576754005247928,1,-2,-3,-1,2,0,-4,-1
1576754005247928,4,0,0,3,0,-2,0,0
1576754005256904,-7,-1,0,-1,-2,-3,-3,-3
1576754005256904,-2,0,1,1,-1,-1,-2,-1
1576754005271858,-1,0,-2,0,0,1,-1,-5
1576754005271858,-4,-1,-1,-3,-3,-2,0,-3
1576754005272856,2,-3,-2,-1,0,-1,0,-4
1576754005272856,-6,0,-2,-1,0,0,-1,2
1576754005293843,5,0,2,-2,1,-4,-1,0
1576754005293843,-6,0,-2,0,-5,-1,0,-1
1576754005295799,-2,-3,-1,-1,-1,5,-2,0
1576754005295799,4,-5,1,-2,-2,-1,-2,-1
1576754005307765,-2,-1,0,0,0,3,2,-2
1576754005307765,5,1,-2,-4,0,-1,2,2
1576754005316743,-1,1,-4,-1,-4,-2,3,0
1576754005316743,1,0,-2,2,0,-1,-2,0
1576754005331743,-2,0,-2,-3,1,-3,-2,-1
1576754005331743,3,-1,2,-2,-1,-1,1,2
1576754005332736,-2,-3,1,0,-1,-2,3,0
1576754005332736,1,0,1,-1,1,-1,2,2
1576754005353676,6,0,-3,-2,-2,-1,-4,-2
1576754005353676,2,-1,-3,-1,0,-3,-1,-5
1576754005355637,1,4,-2,1,0,-2,0,-1
1576754005355637,-1,0,0,-2,-2,-2,3,-2
1576754005367603,3,-2,4,0,-3,-2,-6,0
1576754005367603,3,-3,0,-2,0,1,0,-1
1576754005376581,5,-3,-1,-3,-2,0,-3,1
1576754005376581,-3,-1,2,1,0,-2,-4,9
1576754005391573,-6,-1,-1,-2,-4,-2,-2,-4
1576754005391573,0,-4,-1,1,4,-1,-1,0
1576754005393537,-1,-1,0,0,0,0,-4,-3
1576754005393537,-5,2,-4,-5,-2,0,-1,-4
1576754005414481,-8,-2,0,-3,-1,-1,0,-3
1576754005414481,2,-1,-2,0,-2,0,-1,3
1576754005415477,4,0,1,3,0,-1,2,9
1576754005415477,-2,-1,-2,-1,-3,1,-4,-13
1576754005436422,-1,-4,-1,0,1,0,0,4
1576754005436422,0,0,-2,-1,0,-2,1,-5
1576754005438419,-3,-1,-1,0,-2,-3,-3,-1
1576754005438419,-5,-1,-1,-2,-3,0,-1,-4
1576754005451383,9,-3,2,0,0,0,-2,1
1576754005451383,0,0,-1,-4,-1,3,-1,3
1576754005453378,4,-5,-3,3,-2,0,0,-1
1576754005453378,-2,-1,-1,0,1,-3,-1,-2
1576754005474360,2,-1,-1,-1,0,-3,-2,3
1576754005474360,6,0,1,2,1,1,0,2
1576754005475314,-6,-1,0,-3,0,-1,2,1
1576754005475314,5,-1,1,0,-1,-2,-3,-3
1576754005496259,-7,2,-3,0,0,-1,2,0
1576754005496259,-1,-2,0,2,0,-2,-1,2
1576754005498258,0,1,-4,0,-3,1,0,-1
1576754005498258,-1,-3,-2,-1,1,1,0,1
1576754005511289,-3,1,-2,-4,-2,-1,0,-4
1576754005511289,-7,-2,2,1,1,-3,-1,-2
1576754005513214,-3,2,3,0,0,1,0,1
1576754005513214,-5,-2,1,3,-2,-2,0,4
1576754005534226,0,1,-1,0,2,1,2,0
1576754005534226,-1,0,-2,-1,0,-2,0,-1
1576754005535158,3,-1,0,1,-1,-1,-2,-4
1576754005535158,1,1,-4,-2,-1,-2,-1,-4
1576754005556202,3,-3,-2,0,-1,0,-2,1
1576754005556202,-7,-1,-2,-1,-4,-4,0,-4
1576754005558096,3,-1,0,-2,1,-2,-3,4
1576754005558096,6,1,-2,-2,-1,-2,1,-6
1576754005572056,7,-3,0,1,-1,-2,-3,-3
1576754005572056,-2,0,0,-1,-1,1,-2,-2
1576754005573056,-7,-3,-1,-2,0,-3,-3,-3
1576754005573056,-4,-1,1,2,1,0,-3,5
1576754005594102,-1,-3,-3,-3,-2,-3,0,-1
1576754005594102,2,-2,1,-3,-1,0,-4,-1
1576754005595992,-6,-1,1,1,-1,2,1,-2
1576754005595992,0,1,-1,-2,0,0,1,1
1576754005616985,0,1,1,-3,-2,-1,-1,-2
1576754005616985,5,1,2,-3,-2,-2,-2,-1
1576754005617936,4,1,-1,-2,-3,-1,0,-1
1576754005617936,-3,-6,1,-1,-1,0,-5,-5
1576754005630900,-8,2,-2,-2,-4,-3,-3,-2
1576754005630900,-2,1,0,2,6,4,2,5
1576754005637983,-6,0,-3,1,-1,-1,-3,-2
1576754005637983,-2,4,0,0,-2,0,0,0
1576754005653941,2,0,-2,-2,0,1,-4,-1
1576754005653941,0,1,-4,1,0,-4,2,-2
1576754005655834,-4,-4,-1,1,-1,0,0,0
1576754005655834,-2,-1,1,-2,-1,-2,0,-4
1576754005676882,-2,-1,-3,0,-2,-4,-2,-2
1576754005676882,0,1,-1,-2,-3,2,2,4
1576754005677774,5,-3,-1,-2,-1,-2,-3,-3
1576754005677774,1,-1,0,5,1,1,-1,-1
1576754005690845,10,-3,-2,-4,-3,-3,-1,-3
1576754005690845,7,-1,-2,-1,-1,0,0,3
1576754005697765,-1,0,0,-3,-3,-3,2,-11
1576754005697765,0,3,1,-3,-1,2,-5,4
1576754005713681,-1,-4,-1,0,2,-3,1,0
1576754005713681,-1,-4,1,1,0,0,-2,-2
1576754005715677,1,1,-2,-3,-4,0,1,10
1576754005715677,3,1,1,-2,-1,-1,-4,-3
1576754005736688,-7,4,-1,0,-3,2,-1,0
1576754005736688,3,-3,-2,-2,0,-1,2,0
1576754005738618,1,-4,-1,1,-2,-3,0,-2
1576754005738618,1,-3,-3,0,-2,-3,4,-3
1576754005750651,-1,-1,0,-1,3,-2,-3,0
1576754005750651,-2,-1,1,-6,-7,1,2,-4
1576754005759599,8,2,3,0,2,-2,2,0
1576754005759599,-6,0,-1,-1,0,4,-1,-1
1576754005774548,5,-2,-2,0,0,2,0,-2
1576754005774548,2,-1,1,1,2,0,-4,0
1576754005775535,2,-1,0,-1,-3,-3,3,-2
1576754005775535,-2,-3,0,-2,-4,-4,-1,2
1576754005796460,-6,1,-1,-1,1,-1,0,2
1576754005796460,-3,0,-1,-1,-2,-1,-4,-5
1576754005798461,-4,-1,-2,1,-1,3,-2,-2
1576754005798461,3,-3,-3,-1,-1,0,-2,2
1576754005811454,3,1,2,-2,-2,-3,0,-2
1576754005811454,0,0,0,-2,-1,-5,2,-1
1576754005817501,0,3,0,1,3,2,1,1
1576754005817501,1,2,-2,-1,-2,0,0,-1
1576754005834463,-7,-1,-1,-3,-3,-2,-1,-1
1576754005834463,5,-1,-2,0,1,-2,0,2
1576754005835364,-3,0,0,2,-2,-2,1,-1
1576754005835364,0,-2,-2,0,-1,3,-1,-3
1576754005856393,4,-1,-2,4,2,0,-1,0
1576754005856393,0,-2,2,-2,-2,-1,-4,2
1576754005858300,-6,0,-1,0,-2,-3,-3,-7
1576754005858300,1,0,-2,-3,0,-3,1,0
1576754005871364,0,0,-3,-5,-2,-1,0,0
1576754005871364,-1,-2,-1,-1,-2,-2,1,-3
1576754005878243,2,-2,1,-2,-1,3,0,4
1576754005878243,-5,-4,1,1,3,-2,0,-6
1576754005894294,3,3,2,1,0,0,0,0
1576754005894294,8,-1,-1,0,-2,1,-2,-1
1576754005895239,8,-4,1,1,2,4,-2,-1
1576754005895239,-3,0,-2,0,-1,-2,-1,-4
1576754005917135,-3,-1,-1,-2,0,-2,-2,-2
1576754005917135,-5,-3,-2,-3,1,0,0,3
1576754005918142,-5,0,1,0,-5,-4,-2,-4
1576754005918142,-10,0,-2,1,-1,1,1,0
1576754005930154,0,-1,2,-1,4,1,-1,-2
1576754005930154,-2,-1,0,2,-1,-1,-2,-1
1576754005939082,-3,3,-1,-1,-3,-3,-3,-5
1576754005939082,4,1,-1,-3,0,-2,1,-1
1576754005954136,-2,-2,-4,-1,-7,-1,0,-1
1576754005954136,-6,0,-3,3,2,2,1,-4
1576754005956039,-2,1,-2,0,1,0,1,3
1576754005956039,1,-2,0,0,-2,-3,-5,-2
1576754005977014,-3,2,-1,1,2,-3,-4,-2
1576754005977014,0,-1,1,-2,-2,-1,2,-2
1576754005977977,0,-1,-4,1,0,-4,-2,-1
1576754005977977,3,-2,-1,2,5,-1,0,0
1576754005990043,4,0,0,-3,3,1,-1,-4
1576754005990043,-2,2,-1,-4,-8,-1,-1,0
1576754005998916,0,-1,0,-2,7,-2,0,1
1576754005998916,2,0,-2,-1,-5,0,-5,-6
1576754006013876,-2,0,-1,2,4,0,-1,3
1576754006013876,-2,-1,-4,-1,-2,1,2,2
1576754006015876,-8,0,0,-1,-6,-3,-1,-5
1576754006015876,5,2,0,-2,-3,-3,0,-1
1576754006036856,0,-4,0,-1,-4,-3,0,-2
1576754006036856,0,1,-2,0,0,1,-1,1
1576754006037820,5,-2,-2,5,2,5,3,11
1576754006037820,-4,-1,0,-3,2,0,-2,-3
1576754006049822,-1,-2,1,-2,-3,-1,-1,-3
1576754006049822,-3,-1,-3,-2,1,-1,2,0
1576754006058792,3,0,-6,0,0,-2,-4,-5
1576754006058792,6,1,-2,-2,-3,-2,-3,2
1576754006073817,4,0,2,-1,0,-1,1,-3
1576754006073817,5,-1,-2,-1,1,-3,-2,0
1576754006075718,3,-3,-3,-5,-4,1,-3,-2
1576754006075718,0,-3,-1,-2,0,0,-1,3
1576754006096655,-3,1,0,0,-1,1,-2,2
1576754006096655,-1,-4,0,0,1,-2,-1,-4
1576754006098657,-1,-2,2,-3,-4,1,3,-5
1576754006098657,1,-3,0,-2,-1,-2,-2,1
1576754006110658,5,-1,0,-4,0,1,0,1
1576754006110658,-3,-2,-3,-2,-3,1,1,3
1576754006119603,-5,1,1,4,4,-1,-2,5
1576754006119603,-4,-1,1,1,-5,1,0,-4
1576754006134568,-3,-1,1,5,3,2,3,6
1576754006134568,3,-1,-1,0,-3,0,1,-4
1576754006135558,1,-1,1,-1,0,0,-3,-1
1576754006135558,4,-3,-1,-1,-2,-1,1,-5
1576754006156595,2,-1,-3,-2,-2,1,-1,-1
1576754006156595,7,-2,3,0,1,1,2,1
1576754006158541,-4,-1,1,-1,-1,-2,-1,-2
1576754006158541,-5,4,0,-2,-2,-3,-2,-2
1576754006170570,-3,-2,-2,-1,0,0,2,-2
1576754006170570,-4,1,-3,0,1,-1,-1,-1
1576754006179435,7,-3,0,-2,-2,0,-1,-1
1576754006179435,5,-2,-1,-2,0,-1,-3,-1
1576754006194486,-3,0,-1,-3,-3,-4,-3,-2
1576754006194486,0,0,-4,0,-2,2,0,0
1576754006195390,-3,-2,-4,-1,-2,-1,-2,-1
1576754006195390,-7,0,-1,2,-1,-2,0,12
1576754006216435,-9,1,1,-1,2,0,0,0
1576754006216435,3,-2,0,-3,-2,0,0,-3
1576754006218383,-5,-4,-1,-1,-2,1,0,-2
1576754006218383,4,0,0,-3,2,-1,0,-4
1576754006230299,-5,-2,1,-1,-5,-3,1,-3
1576754006230299,-6,0,2,1,-1,-1,0,2
1576754006239281,-1,3,0,0,0,-1,1,-2
1576754006239281,-1,0,-2,0,0,1,-3,-1
1576754006254329,0,-4,-2,-1,0,2,0,2
1576754006254329,3,1,-1,-1,-1,-3,-1,-2
1576754006255241,-4,-4,-1,0,-1,-1,-1,-2
1576754006255241,-1,1,-1,1,0,0,1,-1
1576754006276275,1,1,-3,2,-1,-2,-2,-1
1576754006276275,-9,-2,0,-1,-2,0,-5,0
1576754006278181,1,1,0,-3,-2,-1,-1,-3
1576754006278181,-6,-3,-3,-2,-4,0,1,-3
1576754006290233,5,-2,4,-4,0,-1,-3,-1
1576754006290233,6,0,-1,0,1,1,0,3
1576754006299118,-7,-2,-2,-4,-2,-2,-2,-3
1576754006299118,-2,-3,0,1,2,-4,-1,-5
1576754006314135,-2,0,-4,-3,-3,-1,-1,-1
1576754006314135,5,-2,-2,2,0,-1,-1,2
1576754006316069,0,-2,2,0,-2,0,0,2
1576754006316069,-3,0,1,-2,0,-2,1,2
1576754006337052,-5,-5,0,-3,-1,-2,-3,-10
1576754006337052,0,-5,-3,2,0,-3,1,-1
1576754006338014,-7,0,-3,1,-4,1,3,-2
1576754006338014,3,-2,2,-3,0,1,-3,0
1576754006350013,6,1,-2,3,0,-2,-2,-4
1576754006350013,-4,-3,-3,-2,-5,0,0,-7
1576754006358957,6,3,-1,0,1,-3,-1,1
1576754006358957,3,-1,-1,3,-2,0,-5,-1
1576754006374014,-6,0,-3,-5,0,-2,0,-2
1576754006374014,0,0,2,-2,-1,0,-4,-8
1576754006375912,-3,0,-1,1,0,2,-2,-7
1576754006375912,1,2,0,-1,0,0,-1,3
1576754006396851,-1,0,-1,0,-3,-2,0,-3
1576754006396851,-6,-2,2,0,-1,2,2,-1
1576754006397855,4,-1,-3,-3,-1,2,-1,-1
1576754006397855,-4,0,-2,-1,0,-2,-1,-3
1576754006418894,-1,-3,-4,-1,0,-3,2,-1
1576754006418894,-1,-1,3,-2,-1,-1,3,5
1576754006420795,4,-2,0,-1,-1,-2,0,1
1576754006420795,2,0,1,3,0,1,-2,-4
1576754006433850,1,-1,1,1,1,1,2,5
1576754006433850,14,-1,-2,-2,2,-2,-5,1
1576754006435798,-3,1,1,0,0,-2,1,-1
1576754006435798,-4,-1,-1,-1,-2,-4,0,-1
1576754006456792,0,1,0,1,0,1,-3,0
1576754006456792,-1,-2,-1,1,2,2,-1,0
1576754006458686,-2,-3,0,-1,-1,-1,-1,-2
1576754006458686,2,0,-1,1,2,-2,1,-2
1576754006478735,-2,-1,1,-1,-2,0,-3,-2
1576754006478735,3,-1,2,2,-3,-5,2,3
1576754006480636,-1,2,-3,-1,-3,1,-4,4
1576754006480636,-4,0,-2,-4,-3,-1,0,-6
1576754006494592,3,-1,-4,-1,-4,1,1,3
1576754006494592,-2,-4,-2,-3,-1,0,-3,-8
1576754006495596,2,-3,1,0,2,0,1,2
1576754006495596,-4,-1,-1,-1,0,0,-2,-9
1576754006516634,-2,-1,-2,-1,0,-1,1,7
1576754006516634,-6,0,0,0,-1,2,1,-1
1576754006518532,-4,-1,2,-1,-3,-5,-4,-5
1576754006518532,0,1,-1,-4,-4,0,-2,-1
1576754006539512,4,-1,2,-1,1,-1,2,-3
1576754006539512,-6,0,-3,-1,-4,0,-1,0
1576754006540473,0,-2,-3,-3,-1,-1,1,-3
1576754006540473,2,2,1,2,3,-2,-1,1
1576754006553490,5,0,0,-1,-2,-3,-5,-4
1576754006553490,-2,1,0,2,1,1,2,0
1576754006560514,3,-2,0,1,-1,-3,-2,-4
1576754006560514,-5,-1,-1,1,-2,0,-3,-3
1576754006576472,0,-1,1,1,1,2,1,-3
1576754006576472,2,1,1,-1,1,-2,0,2
1576754006578382,-6,-3,0,-2,-4,0,-3,-2
1576754006578382,3,-4,1,1,-3,0,-1,0
1576754006599420,-4,1,0,-1,-2,-3,-1,-2
1576754006599420,0,0,-3,0,-1,0,2,-1
1576754006600309,1,-1,0,0,0,3,-2,-2
1576754006600309,0,0,-2,-3,-1,-1,-4,0
1576754006613273,8,0,0,-2,1,0,-3,-7
1576754006613273,-6,-1,-2,-4,-3,0,2,-4
1576754006620353,7,1,-2,-2,-2,-5,-1,-3
1576754006620353,-4,1,0,-1,-2,-3,-4,3
1576754006636314,-5,-2,-3,0,0,0,-3,1
1576754006636314,3,0,0,-1,2,2,0,3
1576754006638213,-5,0,-1,0,-2,2,-1,-6
1576754006638213,5,-1,0,-3,0,-1,0,2
1576754006659251,-1,-1,0,-2,0,-3,-1,0
1576754006659251,1,0,-4,1,-4,-2,-3,0
1576754006660200,-2,1,1,1,-1,-2,1,-1
1576754006660200,0,0,-3,-4,-4,-2,-2,-2
1576754006673211,-6,-2,-5,-1,-2,0,0,-1
1576754006673211,2,-2,2,0,1,-1,-1,3
1576754006680095,-2,-4,-5,0,1,1,-2,-1
1576754006680095,0,-5,-3,-1,1,0,1,-2
1576754006696054,-3,0,1,-4,0,0,0,-7
1576754006696054,-3,-3,-2,-2,-4,-1,-2,-4
1576754006698047,-3,0,-2,0,0,-1,-1,1
1576754006698047,1,1,0,2,4,-1,-1,1
1576754006719093,-2,2,3,0,-1,-2,0,3
1576754006719093,4,-2,-1,-1,-3,0,-1,2
1576754006720989,0,-1,-2,-2,0,-3,3,0
1576754006720989,-2,1,0,-1,-1,-1,-3,3
1576754006733951,-4,-2,2,-2,0,0,0,-2
1576754006733951,2,0,0,0,-3,1,0,-2
1576754006740035,0,-2,-2,0,-5,-1,-3,0
1576754006740035,1,-4,-3,1,-1,-3,-2,-5
1576754006756988,3,-2,-1,0,1,0,-1,1
1576754006756988,-2,-1,2,0,1,-1,-3,-1
1576754006757888,1,-1,1,3,0,1,0,-3
1576754006757888,-3,-2,0,0,-2,2,-3,-2
1576754006778931,-2,-1,-3,0,-2,0,-3,0
1576754006778931,1,2,-1,-1,0,-1,2,3
1576754006780828,-1,-2,0,-2,1,-2,-2,-1
1576754006780828,-2,-1,-2,-4,-2,-4,-4,-3
1576754006793846,1,0,-2,0,1,0,-1,2
1576754006793846,-2,-1,-3,0,-1,-2,1,0
1576754006800773,2,3,-3,-4,-2,-1,-1,-4
1576754006800773,0,0,0,-1,-3,-2,-3,-6
1576754006816832,0,0,-1,-3,-2,-2,1,2
1576754006816832,0,-4,-1,0,0,1,-2,0
1576754006817737,3,-1,-1,1,1,-2,2,4
1576754006817737,-2,0,-3,-2,-2,-2,2,0
1576754006838770,12,0,-1,0,1,-4,-7,-3
1576754006838770,-4,-1,0,0,-2,1,-1,0
1576754006840678,2,0,1,1,-4,-3,-2,-4
1576754006840678,-4,1,1,-2,4,1,1,-5
1576754006853668,-2,-3,-1,-2,1,-1,3,6
1576754006853668,4,0,0,-4,-3,-2,-2,-1
1576754006860652,1,0,-3,-3,0,-1,-4,-6
1576754006860652,0,-4,1,1,-3,0,5,2
1576754006876671,3,0,-1,0,-3,-1,-1,-1
1576754006876671,-2,-3,-4,-2,0,-1,-2,2
1576754006878604,0,-1,-1,-1,-3,0,0,-5
1576754006878604,-5,-4,-1,0,-2,-2,-1,-3
1576754006899548,2,-5,-3,-4,0,1,0,0
1576754006899548,0,4,0,3,3,-1,0,5
1576754006900516,-4,-3,-2,-1,-4,-1,-2,-8
1576754006900516,2,-1,-1,-1,0,0,-2,3
1576754006912474,-3,-1,1,-1,-4,0,2,-1
1576754006912474,-6,-1,-2,-3,-1,-2,-3,6
1576754006921461,-5,1,-3,-2,0,-3,0,0
1576754006921461,1,2,2,0,2,1,1,0
1576754006936485,-3,2,-3,-3,-1,0,-3,-7
1576754006936485,1,2,0,1,2,2,4,-2
1576754006938446,-2,-3,-1,2,1,0,-1,3
1576754006938446,5,-3,-3,-2,2,0,-4,-1
1576754006959458,1,-2,0,-3,-3,-4,3,1
1576754006959458,1,-3,-1,0,-3,-1,-2,-3
1576754006960346,3,-4,0,-1,-2,2,-1,3
1576754006960346,-2,-2,-2,-3,0,-2,-2,0
1576754006973310,2,-5,-2,1,-2,0,-2,1
1576754006973310,4,1,-1,-3,-4,-2,1,-4
1576754006981292,4,2,3,-2,-2,0,-2,0
1576754006981292,-1,4,-2,-3,0,-2,1,-1
1576754006996249,1,1,1,0,2,1,2,7
1576754006996249,1,-3,-1,0,-1,-2,0,-5
1576754006998255,-2,0,0,3,1,-2,0,0
1576754006998255,2,0,0,0,0,0,-2,-3
1576754007019292,3,-2,2,2,-1,-3,-3,-1
1576754007019292,4,2,0,0,-4,0,0,0
1576754007021188,1,3,-1,-3,1,0,0,-1
1576754007021188,5,0,2,2,-1,0,-6,-3
1576754007033190,-7,-1,-3,-3,-5,-4,2,-3
1576754007033190,3,-8,-1,2,1,-3,2,4
1576754007042154,-3,-2,-2,-2,1,2,-1,-2
1576754007042154,0,-3,-3,-2,-3,-1,-4,-6
1576754007056092,2,0,-2,-2,3,2,-1,6
1576754007056092,1,1,0,2,0,-2,-3,-4
1576754007058087,-2,0,0,2,0,-1,-2,-4
1576754007058087,-2,-7,-2,-1,0,-1,3,-3
1576754007079052,1,-3,-2,0,0,-1,0,1
1576754007079052,1,0,-2,-1,0,0,-2,-5
1576754007081028,0,-4,-1,1,0,1,0,1
1576754007081028,1,0,-2,1,-1,-2,0,2
1576754007093113,2,1,-3,2,-1,0,-3,-3
1576754007093113,-2,-2,3,0,1,2,-1,3
1576754007101971,-1,2,-2,1,-4,-1,0,-4
1576754007101971,-3,0,-1,-3,-1,-4,-3,-1
1576754007117022,-6,3,0,-3,0,2,1,0
1576754007117022,-6,-4,-3,-3,1,-2,-1,3
1576754007117924,1,-1,0,-2,0,-2,-4,-2
1576754007117924,-8,0,-1,0,1,-2,2,-1
1576754007138972,-2,-1,2,0,-1,-6,-3,-2
1576754007138972,-6,5,1,-3,-1,0,-1,0
1576754007140864,-9,3,1,0,0,1,-1,-5
1576754007140864,0,2,-2,-2,0,0,-3,2
1576754007152935,-6,-7,0,0,-1,-1,1,-4
1576754007152935,0,-2,-2,0,-2,1,-1,-3
1576754007161808,-1,-1,2,-1,-1,-1,-1,2
1576754007161808,3,0,0,0,-2,-2,-1,-5
1576754007176871,-2,-1,-1,0,2,2,2,3
1576754007176871,2,0,2,0,-4,-3,0,-4
1576754007177769,-1,-3,-4,-2,-1,1,-1,1
1576754007177769,1,-4,-3,-1,-2,-1,0,0
1576754007198813,1,2,3,0,-1,-2,-1,0
1576754007198813,2,2,2,3,0,1,0,-3
1576754007200739,1,0,0,-2,-1,-1,-5,0
1576754007200739,4,2,1,-1,0,-2,-3,0
1576754007212671,4,0,-2,-2,0,-1,1,1
1576754007212671,4,2,0,0,-2,0,-3,-1
1576754007221649,2,2,-2,0,1,-5,-1,-2
1576754007221649,-1,0,-1,-1,-1,-1,-2,4
1576754007236711,9,-1,-3,-1,-2,-2,-1,-1
1576754007236711,5,-2,-1,-3,-2,1,1,1
1576754007238599,0,-2,-4,0,-2,-1,4,-2
1576754007238599,-1,-1,-2,1,-1,-3,0,7
1576754007259597,-1,-1,-1,-2,-1,-1,-2,-2
1576754007259597,2,-2,-1,1,0,-2,-1,2
1576754007260544,2,0,-3,0,1,-1,-2,4
1576754007260544,0,0,1,-1,-2,1,-2,-4
1576754007272616,-3,3,1,-1,1,0,1,-3
1576754007272616,0,-2,-3,0,0,-3,-2,-2
1576754007281486,2,-1,0,0,-3,-2,1,-2
1576754007281486,0,-1,-3,-1,0,-2,2,2
1576754007296449,-2,1,1,0,-3,3,-4,-2
1576754007296449,-1,-1,1,1,1,-3,-1,-2
1576754007298445,0,1,1,-1,-3,0,-2,0
1576754007298445,1,0,0,-1,-1,2,2,-1
1576754007319384,-3,-3,-7,-2,-3,-1,-1,-2
1576754007319384,-4,1,-1,2,-2,1,3,1
1576754007320381,5,0,-1,-1,-1,-1,0,1
1576754007320381,-3,-3,0,-3,1,-1,-1,-3
1576754007341430,-4,-2,-1,-4,-3,-2,1,-1
1576754007341430,-3,1,-1,-2,1,1,0,6
1576754007343323,-2,-4,0,2,1,-2,0,-3
1576754007343323,-6,0,-1,0,1,1,0,-3
1576754007356384,7,-2,-4,1,2,1,1,-2
1576754007356384,-1,-3,-3,-3,-4,-2,-4,-4
1576754007358283,-7,1,1,1,-3,2,0,1
1576754007358283,6,-2,-2,-2,-2,-3,-5,0
1576754007379226,1,1,3,2,-1,0,-2,-6
1576754007379226,6,-2,0,-1,1,0,1,0
1576754007380228,-3,-3,-2,0,-2,-1,0,-2
1576754007380228,-3,0,3,-1,-1,0,-2,-1
1576754007401268,0,1,-2,-4,1,-2,-1,5
1576754007401268,-1,-2,0,-1,-3,-1,-2,-2
1576754007403198,0,-1,0,-2,-3,1,-4,-4
1576754007403198,2,2,-1,-1,2,0,5,2
1576754007417123,-5,-3,1,0,0,-4,-3,7
1576754007417123,-5,2,-4,-2,-1,-3,-2,-3
1576754007418160,-4,-2,0,-2,-2,-2,2,0
1576754007418160,-3,-1,-3,0,-2,-1,0,-1
