timestamp,emg1,emg2,emg3,emg4,emg5,emg6,emg7,emg8
1526902121944233,-14,7,0,3,18,19,-3,7
1526902121944233,-12,2,7,-3,-8,-7,3,15
1526902121945230,7,-9,-3,-6,11,16,18,-8
1526902121945230,8,-15,-17,-6,-8,-13,-1,-12
1526902121949219,-10,14,7,2,-5,-9,-6,0
1526902121949219,-7,6,1,0,-2,-5,-5,8
1526902121950217,3,-8,1,3,4,10,0,-7
1526902121950217,11,-8,-7,-2,0,2,0,-8
1526902121955203,8,4,-6,-2,-33,-47,-3,-1
1526902121955203,-23,-7,3,1,26,37,2,7
1526902121965176,15,10,9,2,-16,-33,1,2
1526902121965176,6,-9,-5,-2,30,34,-8,-21
1526902121971160,25,-3,-3,-4,-22,-1,-17,-4
1526902121971160,4,-7,1,4,-11,-34,12,7
1526902121986120,-42,12,3,-2,12,14,-1,-1
1526902121986120,20,-5,-5,-4,2,13,-14,-13
1526902121995096,-12,-9,-3,12,10,-3,-9,-6
1526902121995096,9,22,13,1,0,21,20,6
1526902122017038,19,-10,-3,1,5,5,-18,0
1526902122017038,-10,-1,-6,-3,-18,-43,19,4
1526902122018035,-14,3,1,-4,4,26,-3,0
1526902122018035,-3,-7,-8,-5,23,30,4,16
1526902122063913,-11,11,-4,0,-6,-5,14,13
1526902122063913,-15,-4,0,-5,-6,-3,2,17
1526902122064910,7,22,4,-3,-7,-4,17,22
1526902122064910,-4,-35,-10,0,3,5,10,22
1526902122068899,3,9,13,2,0,-5,0,-65
1526902122068899,-8,6,-6,-1,1,-16,-43,-15
1526902122069896,20,-7,1,-2,-2,9,-8,-13
1526902122069896,0,9,-8,-2,-5,-5,-12,-21
1526902122074883,-14,10,1,0,0,0,10,39
1526902122074883,-11,-2,-6,-5,-5,-7,4,19
1526902122082862,6,-17,5,2,13,23,-3,18
1526902122082862,22,-26,-16,-10,-12,-28,-40,-88
1526902122091838,-5,-11,-9,-2,-1,5,-14,18
1526902122091838,-2,-12,-1,-3,-2,-3,-10,26
1526902122105800,-17,34,9,1,-22,-26,-22,1
1526902122105800,8,2,11,3,5,21,59,58
1526902122112782,-1,7,6,8,7,-12,-66,-74
1526902122112782,5,-11,-15,-5,21,8,-29,-50
1526902122136718,10,-6,3,-1,-3,3,37,24
1526902122136718,-1,9,4,2,-3,-6,-46,-39
1526902122137715,-27,-3,-6,-7,-17,-7,24,99
1526902122137715,-10,21,26,10,16,17,48,-13
1526902122150680,20,1,2,-3,-10,-21,-68,-126
1526902122150680,-12,13,-7,-1,-4,4,39,48
1526902122157662,13,-10,-12,-5,2,2,1,23
1526902122157662,-10,2,4,3,-6,7,-3,11
1526902122173619,-6,-18,-3,-2,9,7,15,16
1526902122173619,22,-9,-2,-3,-5,-20,-19,-37
1526902122175614,-4,17,7,1,-32,-30,-6,7
1526902122175614,1,-17,-5,-3,15,-6,-5,6
1526902122196558,2,1,-5,-4,8,22,6,11
1526902122196558,-1,-7,-6,1,-10,-25,28,18
1526902122197555,-2,27,0,-2,18,53,6,-17
1526902122197555,5,2,4,12,-7,-8,-15,-8
1526902122209523,-2,-37,-19,-7,2,-12,-28,-25
1526902122209523,-9,-22,-5,-2,2,10,18,9
1526902122218499,9,-25,-15,-7,-8,-27,-5,20
1526902122218499,-14,58,60,12,-14,7,54,45
1526902122233459,9,-46,-20,-8,14,21,38,26
1526902122233459,9,-9,3,4,0,-18,-37,-63
1526902122235454,-9,-11,-9,-2,-5,5,35,-2
1526902122235454,8,-12,-5,-6,-30,-50,-21,40
1526902122256397,-3,20,4,5,18,19,-28,-15
1526902122256397,11,2,-4,-2,6,7,-17,20
1526902122258392,0,3,8,3,4,9,-17,-16
1526902122258392,-3,12,0,-3,20,42,34,14
1526902122270360,-3,-18,-9,1,-14,-29,30,23
1526902122270360,-7,52,8,-3,-1,-1,-26,-8
1526902122279336,2,-6,-9,-4,11,8,-2,-18
1526902122279336,-14,-18,-6,0,-17,-5,8,29
1526902122294296,4,-25,-12,-2,3,7,9,2
1526902122294296,11,27,4,0,5,12,-61,-36
1526902122295294,-6,-34,-14,0,-1,0,90,30
1526902122295294,7,-26,-11,-6,-17,-22,-51,-87
1526902122316238,-5,33,5,-1,2,-8,-59,18
1526902122316238,3,-1,31,8,-6,1,60,-10
1526902122318232,3,13,-2,-2,16,7,10,25
1526902122318232,14,-16,-14,0,12,13,-44,-12
1526902122330200,-10,2,5,0,-10,-16,10,-9
1526902122330200,-12,-17,-18,-4,-7,3,20,23
1526902122339177,9,-12,1,0,2,10,55,-7
1526902122339177,1,-6,-4,1,9,0,-41,3
1526902122354136,10,43,18,4,-19,-14,-24,-35
1526902122354136,-7,-12,-8,-3,4,1,35,35
1526902122355134,7,-22,-14,-4,-4,-8,-32,-34
1526902122355134,-13,46,16,0,-3,-6,3,15
1526902122376077,-14,-19,3,4,11,28,85,64
1526902122376077,24,-22,-17,-6,-5,-24,-87,-89
1526902122378073,-13,38,29,8,5,8,11,38
1526902122378073,14,-14,-11,-2,4,11,27,-6
1526902122390040,-10,-9,-8,-3,-9,-14,-5,40
1526902122390040,7,26,20,7,18,29,-55,-35
1526902122399016,-6,-14,-11,-5,-10,-11,-16,38
1526902122399016,0,-17,-9,-1,-3,-1,24,41
1526902122413976,2,-18,-9,-1,-11,-25,-10,-39
1526902122413976,-8,-15,-6,-6,-6,20,34,20
1526902122414974,4,8,4,3,8,-18,-54,-30
1526902122414974,10,-26,-14,-4,9,24,3,-43
1526902122435918,3,6,5,5,3,9,28,17
1526902122435918,-9,-7,5,-1,-11,-22,-1,21
1526902122437912,-1,47,26,5,-3,-2,-35,-34
1526902122437912,-8,-8,-11,-6,-5,-3,33,18
1526902122449880,3,0,1,-1,5,5,11,6
1526902122449880,0,3,-9,-2,0,-4,-3,-16
1526902122458857,-8,12,2,-2,-4,0,17,10
1526902122458857,6,46,25,2,-4,-7,-30,-2
1526902122473816,-9,-18,-11,-2,1,1,17,-9
1526902122473816,-6,-17,-4,0,-1,3,18,23
1526902122475811,4,-8,-2,-3,-2,-3,-5,-6
1526902122475811,0,7,-2,-3,-2,-1,13,6
1526902122496755,5,-31,-20,-9,-6,-9,-29,-17
1526902122496755,-4,33,20,6,6,15,30,51
1526902122497752,5,-41,-20,-3,5,5,9,-50
1526902122497752,5,25,9,3,-3,-5,2,4
1526902122509720,1,-11,-7,-1,-2,3,-17,-17
1526902122509720,-9,-4,-8,-3,-20,-42,-3,16
1526902122518696,1,-7,6,5,7,28,6,24
1526902122518696,2,-37,-24,-11,5,-7,-27,-15
1526902122533656,-2,54,32,9,8,9,9,-19
1526902122533656,8,-11,-11,-4,-5,-4,9,-6
1526902122535651,-5,2,-6,-6,-9,-4,9,-1
1526902122535651,-7,-8,2,3,-3,-6,-17,-21
1526902122556595,3,-4,-2,3,-3,-4,5,-4
1526902122556595,-6,-13,-7,-4,5,14,25,13
1526902122557592,13,-7,-8,-5,-6,-16,-51,-36
1526902122557592,-11,-22,-3,-3,0,1,27,26
1526902122569560,-1,68,29,6,3,5,32,18
1526902122569560,-5,-1,1,3,6,10,-5,-2
1526902122579533,9,-26,-11,-2,0,-3,-14,7
1526902122579533,-8,7,5,1,-4,-5,7,-3
1526902122593496,8,-17,-9,-5,-4,-6,-32,-2
1526902122593496,-2,-17,0,-1,5,13,29,23
1526902122595491,-9,37,21,4,3,-7,6,5
1526902122595491,6,1,-5,0,-6,-4,-11,-13
1526902122616435,4,-38,-20,-8,-3,-7,-46,-3
1526902122616435,1,20,9,2,0,-1,-7,-18
1526902122617432,-5,-15,-4,1,0,-2,17,6
1526902122617432,1,-4,-1,-1,-4,1,-8,-9
1526902122630397,0,-12,-8,-3,1,3,4,9
1526902122630397,0,7,-12,-6,-1,0,6,-3
1526902122639374,-3,-23,-6,-6,-15,-10,-27,-13
1526902122639374,-5,0,5,0,5,3,16,10
1526902122653336,5,-37,-18,-1,-1,0,4,-12
1526902122653336,-9,-12,-5,-2,0,2,-8,-3
1526902122655331,2,27,12,2,1,1,3,6
1526902122655331,7,38,8,2,-1,5,28,2
1526902122676275,2,-12,0,-1,-1,-5,-14,-17
1526902122676275,-4,-25,-11,-6,-3,-4,-8,-16
1526902122678270,-1,16,1,-2,-2,-3,-6,6
1526902122678270,7,-23,1,0,-3,-6,-18,-17
1526902122690237,-2,15,4,0,0,5,38,28
1526902122690237,-1,7,-1,0,-2,0,-10,-8
1526902122699214,0,-11,-7,-1,-1,-8,3,6
1526902122699214,-8,-17,-5,-4,-9,-3,-15,-22
1526902122714173,-1,-35,-13,-5,7,7,38,14
1526902122714173,9,24,14,3,4,-3,-16,-29
1526902122715171,-4,-4,4,1,-3,0,-7,5
1526902122715171,5,-19,-13,-4,1,3,12,9
1526902122736115,-6,6,7,4,-2,-9,-41,-39
1526902122736115,-7,1,-3,0,-1,2,6,23
1526902122738109,4,-12,-1,1,3,1,9,6
1526902122738109,3,13,-3,-4,-6,-4,1,-18
1526902122750077,4,-29,-6,-3,-1,-4,-3,12
1526902122750077,4,17,7,2,0,2,-14,9
1526902122759054,-3,9,9,7,2,1,3,1
1526902122759054,2,-3,-4,-2,-1,-2,2,8
1526902122773016,-1,10,-2,-3,-3,-4,-26,-1
1526902122773016,1,-34,-15,-5,-8,-6,-15,-8
1526902122779998,-1,20,17,3,12,12,56,17
1526902122779998,5,-14,-1,0,0,-4,-35,-26
1526902122795955,-5,27,5,1,2,4,5,15
1526902122795955,-3,-12,0,1,-5,-7,-11,6
1526902122797950,3,-12,-13,-5,-5,-4,-17,-11
1526902122797950,-4,-5,-5,-1,2,-1,-1,0
1526902122809918,-1,7,4,1,-7,-8,11,0
1526902122809918,3,0,-1,3,8,11,15,3
1526902122818894,-1,-37,-17,-4,-2,0,0,-7
1526902122818894,-3,28,17,3,-1,0,1,20
1526902122832856,8,-5,-1,-1,-1,0,-5,-22
1526902122832856,-7,-15,-8,-2,-2,0,7,16
1526902122839838,1,-1,6,-1,0,1,-11,-7
1526902122839838,6,-1,-9,-1,-2,-1,5,7
1526902122856792,-3,11,8,1,7,-2,-10,-10
1526902122856792,-8,-21,-6,-5,-7,-4,3,-7
1526902122857790,-7,-10,-6,4,5,7,-3,-7
1526902122857790,5,8,-8,-3,-1,1,9,-1
1526902122878733,3,3,-5,-2,-6,-3,-8,-15
1526902122878733,-2,-8,-5,-2,0,-2,-4,3
1526902122880729,6,-33,-15,-9,-5,-6,6,9
1526902122880729,-15,39,30,9,4,3,-6,-9
1526902122892696,-2,12,4,2,-7,1,-7,-14
1526902122892696,-1,3,-2,-2,7,-3,-15,7
1526902122899678,3,-1,0,-3,-3,4,17,11
1526902122899678,12,-34,-13,-2,-1,-4,-7,-24
1526902122916633,-2,2,-6,-3,-5,-3,13,6
1526902122916633,-1,11,2,2,-1,-1,-21,-7
1526902122917630,4,16,8,1,-2,-2,-15,-4
1526902122917630,-1,-21,-7,-4,-1,-1,9,16
1526902122938574,1,-7,-6,-1,-4,1,6,-16
1526902122938574,4,20,10,4,0,0,18,12
1526902122940568,-2,-2,0,-2,1,-6,-30,-16
1526902122940568,5,-8,-12,-4,0,6,28,17
1526902122953534,-7,-2,9,5,3,2,-5,-2
1526902122953534,-4,7,4,-1,-2,-2,2,-6
1526902122959517,1,3,-2,-1,-2,-1,3,-3
1526902122959517,-3,-15,-5,-3,-3,-8,-29,3
1526902122976472,11,8,1,-2,-1,3,23,-14
1526902122976472,-1,-4,-8,-4,-3,-3,15,3
1526902122977469,-8,14,4,0,-2,-2,-15,-5
1526902122977469,6,-39,-17,-4,0,1,11,2
1526902122998413,-8,30,22,5,4,2,-1,13
1526902122998413,2,6,2,-1,-1,-4,-5,-5
1526902123000408,-2,-16,-7,-2,-4,0,0,-8
1526902123000408,-1,4,-1,0,2,-1,0,3
1526902123013373,3,-11,-8,-2,-3,0,-14,-3
1526902123013373,0,-3,0,-2,-3,-5,5,6
1526902123020354,4,12,6,-1,3,4,17,-2
1526902123020354,-4,6,0,-3,-3,-2,-8,-10
1526902123035315,-4,-9,-6,-1,-2,-2,-7,-2
1526902123035315,1,-8,-5,1,1,3,3,10
1526902123044291,-4,-18,-9,-5,-5,-4,-11,-4
1526902123044291,6,-14,-6,-1,-2,1,16,-21
1526902123059251,-11,8,16,5,2,-1,-7,13
1526902123059251,0,32,12,3,4,2,-4,-3
1526902123060248,1,1,-5,0,0,2,9,-2
1526902123060248,1,-11,-4,-2,-3,-3,0,10
1526902123081192,3,10,8,1,-1,1,22,-5
1526902123081192,4,-2,3,1,2,2,22,0
1526902123083187,1,9,2,2,1,-2,-5,2
1526902123083187,3,2,3,0,-1,-3,-9,0
1526902123095154,-4,-9,-10,-3,-1,5,-3,13
1526902123095154,-4,3,5,1,2,3,-5,5
1526902123104131,1,0,-6,-1,1,-4,-4,-9
1526902123104131,1,-12,-5,3,2,0,-3,-6
1526902123119090,-2,2,0,-4,-4,-4,-7,14
1526902123119090,-5,2,-3,-4,-6,-2,-2,-4
1526902123120088,-3,-29,-7,-3,-4,-1,-7,8
1526902123120088,1,32,9,4,3,3,8,-5
1526902123141032,-1,-4,-3,-1,0,-4,-4,4
1526902123141032,-3,-6,-2,2,2,-3,-15,-9
1526902123143027,4,-14,-8,-5,-4,-3,-9,-6
1526902123143027,-3,41,10,-3,-2,-2,-2,2
1526902123154995,-3,-5,-10,-3,-3,-5,-16,-1
1526902123154995,2,-8,2,0,4,5,32,-4
1526902123163971,3,5,-3,-1,-3,-2,7,8
1526902123163971,-1,-15,-7,-3,-1,-2,-3,-4
1526902123177933,-2,14,-2,-3,-2,-3,-20,-3
1526902123177933,-5,-6,-7,2,0,-1,-6,-8
1526902123186909,3,3,2,2,2,1,-8,-5
1526902123186909,3,-7,0,1,1,2,1,6
1526902123200872,-13,9,6,-2,-5,-7,-4,-6
1526902123200872,4,4,-2,-1,-3,1,-1,10
1526902123202867,5,6,3,4,2,1,6,-7
1526902123202867,-12,-9,-3,-2,0,3,10,6
1526902123214834,2,-16,-12,-5,-2,-7,-14,-1
1526902123214834,-2,-4,-1,-1,-2,2,6,2
1526902123223811,0,-3,0,-3,-3,-6,-4,-10
1526902123223811,-6,28,15,3,0,0,2,-4
1526902123238770,7,20,0,0,1,2,15,10
1526902123238770,-11,18,9,1,0,-1,-12,-8
1526902123240765,1,0,-2,0,-1,1,4,2
1526902123240765,2,0,-4,-1,-3,-2,2,1
1526902123261709,1,-38,-15,-4,-2,-2,-4,-8
1526902123261709,-5,-6,-2,-2,-3,-4,-1,14
1526902123262707,-5,8,9,2,1,-2,-19,-4
1526902123262707,1,-5,2,2,0,3,16,-4
1526902123274674,2,0,-2,1,2,3,12,-3
1526902123274674,-2,-8,-10,-7,-6,-6,-4,-2
1526902123283650,-5,10,9,3,4,4,1,-7
1526902123283650,9,-14,-6,-3,-1,-1,-3,-3
1526902123298610,-5,14,1,-4,-4,-5,-9,-2
1526902123298610,-2,0,-5,-4,-3,0,-1,-3
1526902123304594,0,-24,-9,-1,0,-2,-6,7
1526902123304594,4,13,6,1,0,0,-7,-7
1526902123321549,0,6,0,1,0,-5,-2,-5
1526902123321549,-3,-9,-9,-3,-1,-3,-7,-4
1526902123322546,-6,16,6,-3,-4,1,13,25
1526902123322546,9,-33,-4,1,1,0,-7,-23
1526902123334514,1,27,-2,-1,-2,-1,3,2
1526902123334514,-4,-14,5,1,1,6,9,12
1526902123343490,0,6,-1,2,-1,-7,-22,-20
1526902123343490,-5,0,-3,-7,-4,-3,2,6
1526902123358450,2,-6,3,0,2,7,16,4
1526902123358450,-1,-7,-9,-3,-1,-4,-6,-4
1526902123365432,1,11,4,0,-1,4,13,4
1526902123365432,3,-7,-9,-3,-4,-5,-6,2
1526902123381390,-8,-10,-2,1,0,-1,-1,1
1526902123381390,3,17,5,1,2,6,1,4
1526902123383385,-5,-15,-9,-5,-3,-5,5,1
1526902123383385,4,-40,-9,-2,-1,-3,-17,-6
1526902123403330,-3,37,21,7,6,9,-2,-5
1526902123403330,-1,-13,-2,-3,-4,-8,-5,-3
1526902123405332,6,4,-3,0,2,4,3,3
1526902123405332,-5,-11,-7,-2,0,3,18,12
1526902123418290,-4,-15,-9,-3,0,1,-8,-6
1526902123418290,0,5,3,-3,-4,-6,-3,-8
1526902123425272,11,-3,0,-2,-1,1,6,-11
1526902123425272,-4,29,6,0,-3,-5,-13,3
1526902123441229,-3,-21,-10,-1,-2,0,2,3
1526902123441229,5,1,1,1,0,0,-7,-17
1526902123443224,-9,-17,-4,-3,-6,-3,-1,4
1526902123443224,4,-13,3,3,1,0,-17,3
1526902123464168,3,38,12,4,1,-2,5,-8
1526902123464168,2,-13,-6,0,-2,-4,-5,7
1526902123465165,3,2,-3,-6,-3,1,-5,-24
1526902123465165,1,27,9,3,1,-1,0,1
1526902123478130,-4,-33,-12,-5,-5,-5,-8,-4
1526902123478130,-2,5,2,1,1,3,10,9
1526902123485111,-1,23,11,0,-1,1,7,14
1526902123485111,0,4,-1,-3,0,-6,-18,-11
1526902123501069,5,-18,-8,-3,1,4,13,4
1526902123501069,3,-8,-8,-3,-4,-2,-9,-1
1526902123503064,-4,4,8,6,7,5,0,5
1526902123503064,2,-30,-14,-2,-4,-8,14,-19
1526902123524007,-3,9,9,0,-1,-2,-10,1
1526902123524007,-8,-23,-12,-4,0,1,11,-3
1526902123525005,3,35,5,-3,-2,-5,-13,3
1526902123525005,-5,-8,0,1,-2,3,3,3
1526902123537970,2,-6,-3,-1,-3,-1,2,-6
1526902123537970,-4,13,3,1,2,2,9,19
1526902123544952,6,-21,-5,-1,0,-4,-20,-11
1526902123544952,-9,23,8,3,0,2,20,0
1526902123560909,5,-18,-10,-3,-2,-7,-19,-4
1526902123560909,-7,6,1,-3,-1,3,2,2
1526902123562904,-3,2,-5,-1,-2,-1,-1,-1
1526902123562904,4,-1,5,0,-2,0,-7,4
1526902123583848,-1,-17,-9,-2,0,4,18,9
1526902123583848,-1,12,-3,-3,-5,-4,-9,-5
1526902123585842,-8,-14,-3,-1,-3,-2,9,6
1526902123585842,-3,8,3,-1,1,3,-19,9
1526902123597810,8,-4,-4,-1,-2,-5,-8,-17
1526902123597810,-2,-13,-6,0,2,-3,-6,-11
1526902123604791,1,14,13,2,2,3,4,4
1526902123604791,1,4,-5,-5,-3,-5,-21,-1
1526902123621746,1,9,6,1,0,0,-3,3
1526902123621746,-4,0,-2,2,2,-2,-7,-6
1526902123622744,-6,5,6,2,1,0,1,3
1526902123622744,4,-2,-2,-1,1,3,27,-1
1526902123643687,1,-17,-9,-6,-3,-4,-24,-12
1526902123643687,-1,22,7,2,-2,-2,-1,-2
1526902123645682,-5,-14,-5,-3,-3,0,12,7
1526902123645682,-3,26,4,0,-1,-3,-7,-11
1526902123657650,-2,-8,-7,-4,-4,-6,12,4
1526902123657650,-2,-5,3,2,3,5,23,4
1526902123666626,-3,-4,-2,2,-4,-5,-18,-12
1526902123666626,0,-6,-1,-3,-2,0,14,5
1526902123681586,2,-11,-4,-2,-3,-2,-5,-7
1526902123681586,-3,14,5,0,-2,-2,-16,3
1526902123682584,0,-5,-3,3,6,6,21,9
1526902123682584,7,-5,-8,-1,1,2,15,-6
1526902123703527,-6,13,11,3,0,-1,-2,-2
1526902123703527,7,4,9,0,-1,-3,-1,2
1526902123705523,-3,-3,-11,-2,-1,-3,-16,-8
1526902123705523,-1,-20,-5,0,-4,-3,-6,-13
1526902123717490,3,37,8,2,1,4,8,14
1526902123717490,-5,-28,-1,-2,-1,-1,-2,-5
1526902123726466,-1,45,10,1,2,-3,-7,0
1526902123726466,-3,5,-2,-2,0,-1,6,3
1526902123740429,-4,-22,-12,-2,-1,2,10,4
1526902123740429,1,10,0,0,0,-2,-3,-4
1526902123749405,0,-8,0,-3,-5,-6,-17,7
1526902123749405,1,-6,-4,-1,2,6,24,-1
1526902123763367,1,9,1,-3,-3,-6,-14,-12
1526902123763367,4,16,2,0,-1,0,-2,3
1526902123765362,-5,-28,-11,-8,-3,0,-2,-19
1526902123765362,-5,3,0,-1,-1,-3,13,11
1526902123777330,7,-12,-5,-1,0,0,0,-6
1526902123777330,-6,-4,2,2,0,2,20,2
1526902123786306,2,-6,0,-1,-1,0,-14,1
1526902123786306,2,-20,-5,-1,-3,-5,-26,-8
1526902123801266,-3,20,8,1,-1,0,3,-6
1526902123801266,-2,-16,-10,0,-1,1,-12,5
1526902123803261,1,-1,-2,-2,-3,-2,-2,-6
1526902123803261,-1,-10,-4,-1,0,1,2,1
1526902123824205,3,-30,-17,-7,-2,-5,-8,-5
1526902123824205,9,45,30,7,2,5,7,7
1526902123825203,-3,-11,0,3,0,1,11,9
1526902123825203,0,14,1,-1,2,4,-23,3
1526902123837170,0,-9,-5,0,-1,-5,-1,-4
1526902123837170,-2,-2,-5,-6,-1,-2,1,-3
1526902123847144,5,-17,-7,-2,-1,-1,8,-1
1526902123847144,0,-22,-1,-1,-4,-7,-22,-6
1526902123861106,-5,20,9,2,1,5,6,0
1526902123861106,1,-13,-7,-2,-1,-1,5,3
1526902123863101,-2,2,6,1,0,-2,2,5
1526902123863101,-1,-2,0,-2,0,-1,2,-3
1526902123884045,1,-17,-7,0,0,6,-13,1
1526902123884045,0,-13,-6,-4,-4,-8,19,1
1526902123885042,-5,-1,-4,-4,0,0,-6,4
1526902123885042,1,26,3,0,0,3,7,10
1526902123897010,7,-12,-3,1,2,-2,-1,-10
1526902123897010,-13,-4,-2,-2,0,-4,-23,-6
1526902123905986,0,4,-5,-3,-5,-5,4,-1
1526902123905986,-2,-4,-6,-3,-4,-4,4,5
1526902123920946,3,4,4,3,0,2,6,9
1526902123920946,-1,12,-6,0,1,3,9,-5
1526902123922941,-1,-15,-6,-3,-4,-5,7,-1
1526902123922941,2,11,7,1,4,2,-4,-5
1526902123943885,-7,2,0,-2,-2,-1,-3,4
1526902123943885,5,-45,-18,-7,-2,0,9,2
1526902123945879,-2,78,32,9,6,4,6,0
1526902123945879,2,-11,-4,-2,-4,-8,-7,-7
1526902123957847,-1,-4,-1,1,-3,2,23,10
1526902123957847,-2,-5,-7,-3,-3,-4,-44,-11
1526902123966823,-1,-10,-5,-2,-1,1,27,7
1526902123966823,1,-9,-1,0,-1,1,-7,-9
1526902123981783,-7,11,-2,-8,-3,-4,12,0
1526902123981783,-2,5,3,-4,-5,-1,-7,2
1526902123982781,-2,-22,-4,7,6,1,21,2
1526902123982781,0,12,8,3,6,0,-13,-2
1526902124003724,-4,-13,-7,1,-2,2,3,-7
1526902124003724,-2,4,0,-1,-1,-8,4,-2
1526902124005720,-1,8,-1,-5,-5,1,-11,-5
1526902124005720,-2,8,-4,-8,-1,4,1,-1
1526902124017687,3,-5,2,10,1,0,0,5
1526902124017687,-4,11,0,-2,-1,-4,-18,-13
1526902124026663,-1,-12,-3,-1,-1,-2,-3,7
1526902124026663,8,-14,-18,-6,-2,-2,19,-2
1526902124041623,-7,18,20,1,-2,-1,-5,-3
1526902124041623,0,5,0,1,0,0,0,1
1526902124042621,2,-5,1,0,-1,-3,-21,-2
1526902124042621,-3,-6,-2,3,0,-1,5,-2
1526902124063564,3,-8,-9,-4,-1,-3,-21,4
1526902124063564,-4,-4,1,3,1,1,30,-8
1526902124065559,0,-4,-6,-5,-3,-2,-9,-11
1526902124065559,-2,-2,4,3,-4,-2,-1,0
1526902124077527,2,-3,0,-1,-1,-4,-2,8
1526902124077527,-5,14,5,0,1,7,9,6
1526902124086504,5,-9,-3,-5,2,-1,-17,-13
1526902124086504,-4,1,-7,-5,-2,-5,2,-1
1526902124101463,0,-9,-4,6,2,-1,17,-9
1526902124101463,2,1,-6,0,-2,2,1,5
1526902124103458,-1,-8,1,0,1,0,2,11
1526902124103458,-3,-13,-2,-4,-6,-6,-1,-15
1526902124123404,1,5,1,1,4,3,6,-6
1526902124123404,-16,15,7,4,0,-13,-10,13
1526902124125399,1,-15,-6,-4,-4,29,10,1
1526902124125399,6,10,6,4,4,3,6,5
1526902124137367,-1,11,2,-1,-3,-2,-13,-6
1526902124137367,2,-19,-9,-1,1,2,-3,-4
1526902124146343,-5,-10,-7,-3,-2,-6,9,7
1526902124146343,-1,4,3,3,0,3,-2,5
1526902124161303,-4,-5,-5,-6,-4,0,-11,-4
1526902124161303,1,-5,0,-4,-5,-6,-10,5
1526902124163298,2,14,5,3,1,-7,-1,4
1526902124163298,1,-10,-4,0,2,-1,-29,-21
1526902124184242,3,2,-5,-1,-2,-6,24,5
1526902124184242,0,-6,1,0,2,4,-3,9
1526902124185240,-1,-9,-3,-2,0,-5,7,-9
1526902124185240,-1,7,6,-1,-2,1,7,8
1526902124197207,-3,-3,2,2,0,-3,-23,-8
1526902124197207,-2,1,-8,1,0,3,32,17
1526902124206183,-1,-8,14,2,-1,0,-16,-27
1526902124206183,3,18,2,1,-3,-4,-10,-7
1526902124220146,-3,-7,-8,-4,-3,0,4,19
1526902124220146,0,-7,-5,1,2,5,-20,-34
1526902124227127,6,-6,-9,-3,-1,-8,0,16
1526902124227127,-4,-18,-3,0,-2,-3,-1,-12
1526902124244082,1,2,0,-2,1,1,3,4
1526902124244082,2,4,5,2,-1,3,7,8
1526902124245079,-4,-4,-9,-2,-4,-18,-1,-11
1526902124245079,-1,-6,-3,-3,-4,7,-8,0
1526902124257047,3,4,-3,0,2,5,10,3
1526902124257047,-2,-11,0,-1,-2,0,5,8
1526902124266024,-2,12,0,-3,0,-2,-9,2
1526902124266024,3,-8,-2,5,2,-4,-6,4
1526902124280983,-5,-5,5,-3,-2,-2,1,-7
1526902124280983,4,16,9,0,-1,0,-23,-8
1526902124286967,1,-4,-5,-3,-1,4,24,7
1526902124286967,-1,6,8,1,1,-1,-1,3
1526902124303922,-2,-15,-15,-4,-3,1,6,1
1526902124303922,0,5,5,1,1,-1,-5,-5
1526902124305917,-1,5,3,1,0,1,-13,4
1526902124305917,-3,-12,-5,-1,0,0,9,3
1526902124325863,-7,23,5,1,0,18,-10,5
1526902124325863,0,-4,1,-4,-4,-17,3,-1
1526902124327858,8,-5,-9,0,1,-5,-23,-14
1526902124327858,-4,-10,-3,-1,-1,0,19,13
1526902124340823,-3,-9,-8,-4,1,1,-13,-19
1526902124340823,-5,18,12,3,2,3,4,5
1526902124347804,-1,-8,-2,-1,-1,1,-17,-5
1526902124347804,1,0,-4,-2,-1,-2,3,1
1526902124363762,-1,-1,0,-1,-3,-13,-7,3
1526902124363762,-3,-12,-6,-4,0,8,14,0
1526902124365756,-3,0,-3,0,-1,-3,-1,-7
1526902124365756,-2,11,4,-2,-5,-2,-4,-5
1526902124386701,2,-3,0,1,3,-3,17,22
1526902124386701,0,-8,-5,-2,-3,-4,-14,-13
1526902124387702,-1,11,5,3,3,8,-3,-3
1526902124387702,2,-15,-11,-4,-3,4,7,0
1526902124400663,1,19,10,-4,-2,-1,-16,6
1526902124400663,-6,-9,-8,2,-1,-7,3,-23
1526902124407644,3,-11,-4,-2,-2,-4,9,0
1526902124407644,2,7,4,1,-3,-1,-4,3
1526902124423602,1,-4,0,2,0,-4,-12,-10
1526902124423602,2,-11,-8,-4,1,2,-2,7
1526902124425597,-2,-2,3,2,0,3,9,1
1526902124425597,0,-2,-8,-3,-3,-2,4,-6
1526902124446540,-2,2,6,0,-1,-2,-4,-4
1526902124446540,-1,3,0,-9,-9,0,-10,13
1526902124447538,-1,0,1,0,-2,-1,-6,-18
1526902124447538,-2,1,6,13,16,1,7,5
1526902124460503,0,-4,-3,5,3,-4,6,0
1526902124460503,-1,-4,-2,0,-4,22,13,1
1526902124467484,5,-4,-6,-7,-6,-23,-23,-8
1526902124467484,-2,-2,-2,-3,-8,-9,14,-4
1526902124483442,-4,-1,-7,-5,-1,-3,-3,-9
1526902124483442,1,11,9,3,5,3,2,3
1526902124485437,-5,19,11,1,-1,6,0,13
1526902124485437,3,-6,-10,-6,-4,-5,-14,-15
1526902124506381,-3,-11,-4,3,-1,-3,11,-6
1526902124506381,5,0,6,-1,-2,-9,-5,5
1526902124508375,0,-3,-4,-1,0,6,14,5
1526902124508375,3,9,6,2,1,-3,-5,2
1526902124520343,-4,-2,2,-1,-3,1,-6,-7
1526902124520343,2,-8,-7,-3,-4,-8,-16,-5
1526902124527324,2,-2,0,1,1,5,10,0
1526902124527324,2,-5,-9,-5,-1,5,-1,-1
1526902124544279,3,10,7,3,0,-3,2,-1
1526902124544279,-3,2,0,2,1,-4,-3,-1
1526902124545277,-4,-12,-7,1,1,0,5,1
1526902124545277,1,1,6,-2,-2,-2,-18,-2
1526902124566220,-3,-4,-6,-5,-3,-2,6,-2
1526902124566220,-9,12,2,0,2,0,4,3
1526902124568215,6,-3,-2,-1,-2,0,-4,-7
1526902124568215,2,0,-2,-1,-2,0,6,5
1526902124580183,-3,-1,1,1,0,-1,-6,-9
1526902124580183,0,-5,-3,0,-1,1,0,4
1526902124589159,0,0,8,2,-1,1,6,7
1526902124589159,1,-2,-7,-2,-2,0,-1,-5
1526902124604119,-2,-17,-2,0,0,0,2,5
1526902124604119,-1,14,0,-1,1,3,0,-4
1526902124605120,-1,2,8,3,2,-2,-10,-5
1526902124605120,-1,1,3,1,-2,-2,-5,-5
1526902124626060,0,1,-3,-1,-4,0,8,6
1526902124626060,3,-16,-8,-4,0,-5,-20,-6
1526902124628055,-1,13,4,2,0,0,2,1
1526902124628055,0,-1,1,1,0,-1,-6,-3
1526902124640024,-2,2,-2,-1,-1,-1,-5,-8
1526902124640024,2,-4,0,0,0,-6,-1,6
1526902124648999,6,-4,-6,-1,-1,1,3,-3
1526902124648999,-7,-10,-3,-2,-1,-3,3,-5
1526902124663959,2,11,9,1,0,2,2,6
1526902124663959,1,-4,-3,-3,-4,-4,-13,-19
1526902124665954,1,-10,-5,-1,0,-2,1,-2
1526902124665954,2,11,-2,-2,0,1,13,9
1526902124685900,-4,-4,-6,-2,-2,-1,-14,-6
1526902124685900,-3,-4,-1,-2,-3,1,18,5
1526902124687895,-1,-5,-4,-3,-3,-1,-10,4
1526902124687895,2,-4,4,4,1,-4,5,-3
1526902124699863,1,-2,-1,-2,0,-1,8,-3
1526902124699863,1,11,6,1,1,1,8,8
1526902124708839,-6,-2,-8,-4,-3,-1,0,-6
1526902124708839,-1,-5,-4,-2,0,1,4,3
1526902124723799,-2,-4,-4,-2,-2,-6,-17,-5
1526902124723799,0,-18,-6,-2,0,2,-3,-3
1526902124725794,-1,24,15,0,1,1,16,8
1526902124725794,1,-10,-4,-2,-4,-3,-19,-10
1526902124746737,-2,1,-3,-3,-4,1,6,4
1526902124746737,-4,-8,-2,0,0,1,-1,11
1526902124747735,-1,-16,-7,-3,-3,-4,8,-5
1526902124747735,-1,21,10,3,0,1,-9,-3
1526902124759703,-3,-6,-10,-1,2,2,-10,2
1526902124759703,0,-5,-4,-3,-1,-4,3,13
1526902124768679,-1,-5,2,0,2,2,2,2
1526902124768679,-1,-6,-4,-2,-1,-2,-9,-16
1526902124783639,-3,3,-6,-2,-3,-3,1,7
1526902124783639,-3,5,4,3,3,1,2,0
1526902124785634,4,-4,-2,1,-1,-1,-4,-5
1526902124785634,-4,-7,-5,-4,-1,1,3,4
1526902124806578,0,6,1,-1,-3,0,-2,13
1526902124806578,-4,-10,-6,-1,-4,-7,-15,-32
1526902124807575,2,3,6,-1,-3,-2,-8,-1
1526902124807575,-4,-8,-3,-1,0,-1,1,-1
1526902124819543,0,1,4,0,0,2,22,3
1526902124819543,-1,2,-2,-2,-1,-5,-25,1
1526902124829516,1,-4,-3,-4,-1,-1,5,-6
1526902124829516,2,-4,3,0,0,4,7,1
1526902124843479,-3,-6,1,-1,-3,-8,21,2
1526902124843479,0,8,-3,1,5,8,12,7
1526902124845474,-2,-5,-3,-3,-3,0,-2,-2
1526902124845474,-2,-3,-3,-3,-7,-6,-7,1
1526902124866417,-2,8,5,-7,-2,0,-3,-3
1526902124866417,2,-4,-9,-4,2,2,5,-9
1526902124868413,-4,-6,-4,17,5,3,4,-3
1526902124868413,-1,-6,-8,-4,2,-1,4,-1
1526902124880380,0,-7,3,4,1,-1,-25,-11
1526902124880380,4,11,5,-4,-6,-1,10,-6
1526902124889356,-2,0,-3,-2,1,1,-8,5
1526902124889356,1,0,1,1,-1,-4,-14,-10
1526902124904316,-1,-3,-4,-5,-5,-7,-15,-12
1526902124904316,4,25,12,-4,1,1,7,14
1526902124905314,4,-14,-6,-1,0,-1,3,-13
1526902124905314,0,6,4,2,5,0,8,4
1526902124926258,2,4,1,-5,-7,-1,-19,-6
1526902124926258,-6,-11,-10,-5,-5,-6,14,0
1526902124928253,2,10,13,2,-1,0,-5,-5
1526902124928253,-1,-4,-5,-3,-3,-2,1,1
1526902124940220,-3,-1,-1,3,3,-1,-6,0
1526902124940220,2,-8,2,2,0,0,1,6
1526902124949197,-4,-5,-7,-5,-3,-4,-9,-12
1526902124949197,3,0,5,0,-1,-2,-5,7
1526902124964156,-1,7,-4,3,4,5,4,-2
1526902124964156,-2,4,9,6,2,5,1,7
1526902124965153,2,-11,-9,-5,-3,-2,2,0
1526902124965153,1,-2,-2,-2,0,1,-5,4
1526902124986097,-4,-4,-2,1,0,-2,9,-4
1526902124986097,-3,-25,-7,-7,-2,1,2,-1
1526902124988092,5,15,11,-2,-1,0,6,9
1526902124988092,-1,-7,-4,-2,-4,-2,1,-6
1526902125000060,3,5,5,2,-1,-5,-13,4
1526902125000060,-1,-6,-2,5,0,-1,-12,-14
1526902125009036,1,-1,-4,-1,1,2,2,7
1526902125009036,-1,3,-2,-3,-4,-3,-4,-3
1526902125023996,-7,2,0,1,3,2,19,5
1526902125023996,3,-4,-1,-3,-3,-6,-21,-10
1526902125024994,4,-9,-8,-7,-5,-3,-15,3
1526902125024994,-2,0,-5,-1,-1,0,-1,-3
1526902125045937,-1,-1,3,3,0,1,6,6
1526902125045937,-1,-3,-2,1,-2,1,1,4
1526902125047932,1,-11,-7,-2,-1,-4,-6,-14
1526902125047932,-1,8,3,1,-2,-2,8,9
1526902125059900,-4,-3,-1,-1,3,0,-5,0
1526902125059900,3,5,3,1,2,1,18,6
1526902125068876,0,-6,-5,-3,-2,-1,-5,2
1526902125068876,-4,-1,-8,-2,-3,-2,8,0
1526902125083836,-4,0,-3,-3,-3,-1,2,1
1526902125083836,0,5,7,0,-2,0,-2,-4
1526902125085831,-4,-9,-6,-2,-1,-3,2,2
1526902125085831,-2,-5,-3,0,1,2,-5,-3
1526902125106775,0,5,-1,-1,0,-2,1,-3
1526902125106775,-2,-8,-5,-1,-1,-2,-1,5
1526902125107772,-3,-1,3,0,-2,0,-2,-1
1526902125107772,-1,-1,0,2,1,-1,-1,-3
1526902125119740,-3,-5,0,-3,-1,-3,-3,-2
1526902125119740,1,11,5,0,0,-2,1,0
1526902125128716,-3,5,-2,-3,-3,-1,14,8
1526902125128716,1,5,6,3,1,-4,-12,-7
1526902125143676,-3,-1,-1,1,0,3,-3,-5
1526902125143676,0,-1,-1,0,0,3,9,-1
1526902125145671,3,1,-1,2,0,-2,-11,-2
1526902125145671,-1,0,0,0,2,6,11,1
1526902125166615,-5,-2,-2,1,-3,-21,-3,-5
1526902125166615,1,2,4,-1,0,5,1,2
1526902125167612,1,3,0,2,1,3,1,1
1526902125167612,3,3,2,0,0,-2,-7,-13
1526902125179580,-2,0,1,0,0,3,-3,3
1526902125179580,-7,-5,-6,-5,-2,-6,0,11
1526902125188556,-4,-5,-3,1,1,-7,-14,-10
1526902125188556,-5,-2,-2,-1,-2,4,20,10
1526902125203516,3,6,2,1,0,8,-4,3
1526902125203516,-1,-10,-6,-2,-3,-11,-18,-19
1526902125209500,0,-1,2,-1,1,5,7,5
1526902125209500,-1,-1,-4,-3,-3,-8,-20,0
1526902125226455,-4,6,-1,-2,0,5,9,-1
1526902125226455,2,-6,-1,-2,-1,-4,17,11
1526902125228449,4,5,5,0,3,1,-10,-14
1526902125228449,-4,-2,-5,-5,-5,-3,6,13
1526902125248396,5,3,3,2,0,-2,4,-2
1526902125248396,1,4,2,0,-1,0,-19,-2
1526902125250391,-2,-1,-1,-3,-4,-7,27,-3
1526902125250391,-3,-5,-1,-1,-2,0,1,-3
1526902125263356,-2,-6,-9,-7,-5,0,-10,9
1526902125263356,-3,2,-3,-1,-1,-2,1,0
1526902125270337,3,-8,-5,-2,-1,0,-5,2
1526902125270337,3,-5,-3,0,1,3,11,-7
1526902125286295,-5,-3,-1,-1,-2,-2,-11,4
1526902125286295,-3,-7,-5,0,-3,-1,2,-7
1526902125288290,0,-5,-3,-3,0,2,4,5
1526902125288290,-2,-4,1,1,-1,-6,-7,-7
1526902125309233,-3,-3,0,1,1,6,9,-1
1526902125309233,2,1,-1,0,-4,-4,-15,-2
1526902125310231,5,4,-5,-4,-3,-2,14,-6
1526902125310231,-1,4,-1,2,-2,-1,-5,-9
1526902125323196,-2,4,2,0,-2,-1,-3,-3
1526902125323196,-1,3,-2,0,3,0,-7,-3
1526902125330177,3,2,2,0,-2,1,-3,5
1526902125330177,0,-1,-2,-2,-1,0,4,2
1526902125346135,-1,-10,-8,-5,-3,0,1,-1
1526902125346135,-3,-1,-1,-1,0,-3,0,-2
1526902125348129,2,-9,-4,-1,-1,3,-21,-4
1526902125348129,-7,8,-1,-2,-3,-7,-1,-12
1526902125369073,0,-7,5,8,3,3,2,0
1526902125369073,1,-12,-7,-1,0,-1,7,-9
1526902125370071,0,-3,-2,-1,-2,-2,-1,6
1526902125370071,-4,-8,-5,-1,0,2,-2,2
1526902125383036,1,-4,-8,-5,-3,-7,-4,-5
1526902125383036,3,-3,1,-1,0,0,-3,1
1526902125390017,3,1,0,1,0,-1,-2,-6
1526902125390017,-5,-7,-4,-4,-3,-1,-9,7
1526902125405974,1,-2,1,1,1,-1,4,0
1526902125405974,4,1,2,2,3,5,4,-1
1526902125407969,2,-6,-4,-1,-2,-4,-3,-2
1526902125407969,2,9,3,0,-1,-2,-5,5
1526902125428913,-2,6,4,1,-1,-3,-12,-16
1526902125428913,2,-2,0,-4,-4,-1,1,-2
1526902125430908,-4,-6,-1,0,1,0,0,6
1526902125430908,-1,-1,2,3,3,4,14,-3
1526902125442876,-3,7,2,-2,-2,-4,1,8
1526902125442876,3,-3,3,0,-3,-4,-19,-6
1526902125449857,0,-3,-2,-2,-2,-2,8,2
1526902125449857,1,5,0,0,3,2,-2,-5
1526902125466812,-4,-1,-3,-3,0,2,15,2
1526902125466812,-4,8,13,3,0,-1,-5,4
1526902125467810,-1,0,-7,-1,1,0,-1,-1
1526902125467810,-2,-6,-4,-2,-2,0,0,7
1526902125488754,-5,-5,-3,-2,-2,0,3,-4
1526902125488754,4,0,-6,-2,-2,-2,-3,-3
1526902125490748,0,4,-2,-3,-2,-3,-6,-5
1526902125490748,-2,-3,0,1,1,1,-4,2
1526902125502716,0,3,-1,-2,-3,-7,-7,-5
1526902125502716,0,-5,-3,-1,1,4,17,13
1526902125509697,1,-2,3,1,2,1,-9,-16
1526902125509697,-4,-2,1,1,0,-1,-4,1
1526902125526652,4,-3,0,-1,-1,2,-1,3
1526902125526652,-3,-5,-1,-3,-2,2,7,2
1526902125527649,5,-2,-7,-5,-4,-5,1,-1
1526902125527649,-10,-1,0,0,-2,-2,-8,-1
1526902125548593,1,-10,-4,1,2,1,0,5
1526902125548593,-7,0,2,-2,-2,0,14,8
1526902125550588,-2,11,0,1,-1,-3,-13,-13
1526902125550588,-2,-6,-4,-5,-2,-1,-4,2
1526902125562556,-1,-3,2,1,-2,1,0,1
1526902125562556,0,-3,-5,0,-4,-4,1,-4
1526902125571532,-1,-6,3,4,1,2,-13,-4
1526902125571532,4,4,0,-4,-5,-4,4,-1
1526902125586492,-3,4,2,-1,0,3,1,11
1526902125586492,0,-7,-4,-1,0,-6,-11,-14
1526902125588487,1,-3,0,0,-1,1,0,0
1526902125588487,-1,-5,-4,0,-1,0,1,8
1526902125608433,-2,-2,-3,0,-3,1,1,0
1526902125608433,1,2,-2,-5,-5,-3,1,1
1526902125610428,-1,-8,-1,-3,0,-3,-5,1
1526902125610428,2,-2,3,1,1,1,8,-2
1526902125622396,-1,-4,-3,-1,0,2,4,6
1526902125622396,-1,5,5,3,2,-4,-6,-6
1526902125631372,-7,-3,1,1,0,1,9,3
1526902125631372,4,-3,-1,-2,-3,-5,-17,-12
1526902125646332,-1,6,-3,-1,-1,-1,-8,5
1526902125646332,3,-1,8,2,2,2,-2,3
1526902125648327,3,-4,-3,-1,1,0,6,-1
1526902125648327,5,11,5,5,3,0,4,2
1526902125669270,-5,-6,-8,-3,-2,-6,-8,-6
1526902125669270,1,-4,-3,1,3,6,14,5
1526902125670268,-1,-1,-1,0,-2,-3,-11,0
1526902125670268,2,-2,8,3,1,1,12,3
1526902125682236,1,4,-5,-5,-4,-6,-7,-15
1526902125682236,0,1,-2,-2,-2,0,6,8
1526902125691212,1,0,-1,-1,1,2,12,3
1526902125691212,0,-2,-6,-2,0,-2,-17,-7
1526902125706172,-2,1,3,0,0,0,4,4
1526902125706172,-4,-2,0,-1,-1,-5,-13,-9
1526902125708166,1,-6,-1,0,-3,1,0,6
1526902125708166,-2,2,-4,-3,-2,-2,6,-7
1526902125729110,-1,2,4,2,2,-1,-2,-2
1526902125729110,1,-7,-6,-2,-2,1,-13,-7
1526902125730108,-4,-3,0,0,-2,-3,-9,5
1526902125730108,-1,-1,-3,-1,0,0,7,-4
1526902125742075,1,-8,-3,1,-1,-1,10,-2
1526902125742075,0,5,1,0,0,-2,-13,-1
1526902125751052,1,-2,0,-3,-1,-1,7,-3
1526902125751052,0,-6,-6,-2,0,1,-7,1
1526902125766011,3,9,4,2,0,0,1,-3
1526902125766011,0,-6,-4,1,2,2,8,2
1526902125768007,0,2,0,1,0,-3,2,-7
1526902125768007,-1,-2,1,-1,-2,-2,-7,-4
1526902125788950,-2,-2,1,-1,-1,2,0,11
1526902125788950,-1,-1,-4,-2,-4,-3,9,-2
1526902125789948,-2,-1,-2,-2,-2,-4,3,-3
1526902125789948,3,-1,-1,-3,-3,-1,-1,0
1526902125802913,1,4,0,1,0,1,1,1
1526902125802913,0,2,3,0,-1,0,-3,-1
1526902125811889,-1,-2,3,2,2,1,-1,-4
1526902125811889,2,-2,-3,-1,-4,-3,6,0
1526902125825852,-5,3,0,-1,-3,-5,-8,3
1526902125825852,-1,0,0,-1,0,-1,2,1
1526902125827846,-2,-8,-5,-6,-3,-2,2,1
1526902125827846,-2,1,1,1,3,3,-3,-1
1526902125848790,1,-3,-2,-1,-3,-3,-12,-3
1526902125848790,3,0,-4,0,-1,0,7,-5
1526902125850785,3,-3,0,0,-2,-3,-1,2
1526902125850785,0,5,7,3,3,0,2,0
1526902125862753,-2,4,-2,-3,0,0,3,-2
1526902125862753,-6,-6,-6,-3,0,-2,-5,3
1526902125871729,3,-2,-2,-2,0,-1,1,-1
1526902125871729,1,-1,0,0,-3,-2,3,6
1526902125886689,-4,5,2,0,-1,-1,-4,-12
1526902125886689,0,3,1,0,-1,-1,-6,3
1526902125887687,6,0,-1,-2,-2,0,1,8
1526902125887687,-6,-7,-8,-4,-3,-1,-1,-19
1526902125908630,0,1,4,2,5,2,6,24
1526902125908630,-8,-6,-7,-6,-6,-7,-10,-37
1526902125910625,-1,-5,-1,-5,-1,-3,0,1
1526902125910625,4,2,2,-4,-4,1,-2,3
1526902125922593,1,-3,-1,-9,-5,1,16,6
1526902125922593,-3,1,4,17,2,3,-3,10
1526902125931569,0,5,-1,5,6,-1,-6,-6
1526902125931569,-1,3,2,5,1,1,-8,-9
1526902125946529,-6,1,0,-3,-4,0,13,4
1526902125946529,6,-4,-2,-9,0,1,-7,7
1526902125947526,-1,1,-2,-4,-5,-2,-2,-7
1526902125947526,2,-10,-12,-2,0,-1,-4,3
1526902125968470,-2,-1,-2,-1,-1,-4,-12,-4
1526902125968470,3,-1,-1,-1,-1,2,11,12
1526902125970465,2,-4,2,4,0,0,-5,-12
1526902125970465,-7,-2,-3,-5,-3,-4,4,-7
1526902125982433,-4,-2,-1,-1,-2,-3,-6,10
1526902125982433,1,-4,-5,-1,1,0,2,-2
1526902125991410,-3,-3,-7,-4,0,2,-2,0
1526902125991410,-3,1,3,0,0,-1,1,0
1526902126006369,2,-7,-1,0,-5,-4,-16,-17
1526902126006369,-3,4,3,-2,-3,-2,-3,8
1526902126008364,3,-2,0,1,2,2,-5,-2
1526902126008364,1,-1,-1,-1,-2,0,8,4
1526902126029307,0,5,0,2,0,-2,-8,5
1526902126029307,0,-3,-1,-3,-1,-2,-2,-22
1526902126030305,-3,0,-3,-2,-2,0,0,4
1526902126030305,3,-1,0,-2,-1,-1,-3,4
1526902126042273,-2,-1,-2,1,-1,-3,0,-16
1526902126042273,-3,7,4,-1,1,-1,-5,7
1526902126051249,5,-3,-5,-2,-2,1,12,17
1526902126051249,-2,-1,-2,0,0,2,5,-7
1526902126066209,-3,0,-1,-2,0,-1,4,0
1526902126066209,0,0,2,-2,-1,-3,-12,-3
1526902126068204,5,0,0,-1,-2,0,-7,-6
1526902126068204,-2,0,-4,-2,-1,-4,-2,2
1526902126089147,-4,3,3,2,1,3,7,3
1526902126089147,2,-2,0,0,0,1,-8,-7
1526902126090145,-2,0,0,-1,-4,-2,-7,-1
1526902126090145,1,3,1,1,-1,0,5,8
1526902126113084,-3,-1,-1,-2,1,0,-7,-4
1526902126113084,0,2,1,-2,1,3,9,1
1526902126114081,-2,0,1,-2,-2,0,-15,-5
1526902126114081,-1,-1,-3,0,-1,-3,15,5
1526902126126049,-1,-4,0,1,1,0,16,3
1526902126126049,0,-5,-3,-2,-1,0,1,8
1526902126132033,6,-7,0,1,0,-4,1,-7
1526902126132033,-2,1,2,-1,-4,-3,-9,3
1526902126148987,0,3,1,-4,1,2,2,-7
1526902126148987,2,0,-3,-1,0,-2,3,2
1526902126149985,-5,-8,-5,-1,-2,-3,-7,0
1526902126149985,2,0,-3,-3,2,1,-13,1
1526902126162950,0,-1,-3,0,-1,-1,-4,3
1526902126162950,-2,-2,3,-2,-3,-1,8,2
1526902126171926,3,-3,-6,-2,0,-1,0,-6
1526902126171926,-3,2,1,2,0,-2,-1,-1
1526902126185888,-1,2,-1,-2,-1,-2,-7,4
1526902126185888,-5,0,3,1,1,0,6,-5
1526902126192870,4,-2,-3,-2,-2,-1,13,10
1526902126192870,-2,-5,-3,0,-4,0,-9,-14
1526902126208827,-2,-2,0,-2,0,4,20,8
1526902126208827,2,-6,-5,-12,-8,-3,-20,-2
1526902126210823,2,2,4,2,5,3,0,-4
1526902126210823,-1,0,-2,10,9,1,8,-3
1526902126231766,-3,2,1,1,-2,-2,-10,-4
1526902126231766,-1,8,5,4,2,-1,4,1
1526902126232764,-3,-8,-11,-12,-9,-2,-1,-4
1526902126232764,-1,1,4,-3,-3,3,2,10
1526902126245729,3,-1,0,-1,0,0,0,12
1526902126245729,1,-3,-6,1,-2,-1,1,-12
1526902126252710,-3,-1,2,-1,1,0,2,2
1526902126252710,0,3,4,1,0,0,-4,0
1526902126268667,0,4,1,1,2,-1,1,4
1526902126268667,1,-6,-5,-5,-3,-2,0,9
1526902126270662,2,0,1,2,3,-2,-3,5
1526902126270662,1,-2,2,4,3,0,4,-11
1526902126291606,-7,-1,-1,-1,-5,-7,-20,-22
1526902126291606,-1,-4,-3,3,6,3,6,11
1526902126292604,-4,-4,-3,3,0,0,2,-10
1526902126292604,4,8,2,-20,-24,-3,-3,1
1526902126305569,-8,-7,-5,10,26,0,-5,-31
1526902126305569,3,-2,1,4,-4,-3,-5,5
1526902126312550,0,9,6,8,8,1,-6,-25
1526902126312550,-6,-3,-1,1,0,-3,-14,-18
1526902126328507,1,-5,-5,-6,-7,2,10,18
1526902126328507,0,2,2,-1,1,-2,0,-11
1526902126330502,3,-8,0,-6,-6,-3,9,-7
1526902126330502,2,0,-8,-3,0,-2,2,16
1526902126351446,-3,-2,-2,-1,-6,-3,-4,-26
1526902126351446,4,-3,2,1,3,3,3,20
1526902126353441,0,2,1,-1,-4,-2,-5,-3
1526902126353441,4,11,3,1,3,-3,-18,-7
1526902126365409,-3,2,0,-3,-2,-1,3,8
1526902126365409,0,-3,-5,-2,-3,-2,-5,4
1526902126372390,2,-4,-5,0,-1,2,8,0
1526902126372390,-3,0,-2,2,0,-3,-14,-10
1526902126388347,-2,6,0,-3,0,7,19,12
1526902126388347,-1,-3,-1,-4,-5,-3,-30,-19
1526902126390342,1,-1,4,9,3,-1,20,6
1526902126390342,-6,-4,-5,-2,1,-2,2,5
1526902126411286,0,-4,-2,-4,-5,-2,10,15
1526902126411286,-4,-1,0,-2,-3,-2,3,-5
1526902126413281,-1,-5,-9,-6,-2,-3,-7,5
1526902126413281,1,-2,0,4,2,2,3,17
1526902126425248,-3,-5,-1,-3,-5,-6,-17,-10
1526902126425248,-4,2,2,2,-1,1,14,5
1526902126432230,0,-3,-4,-3,-5,-4,-8,-2
1526902126432230,-2,0,-1,-2,2,1,0,-8
1526902126449184,2,-4,-3,-1,-2,1,13,32
1526902126449184,5,-3,1,-1,-1,-4,-21,-6
1526902126450182,-3,-4,-6,-3,-2,0,12,7
1526902126450182,-5,-6,-5,-4,1,-2,-7,-5
1526902126471126,-4,-2,-1,-2,-1,-1,-2,3
1526902126471126,1,-1,-2,0,1,1,-3,4
1526902126473121,-3,1,5,1,-4,2,0,-35
1526902126473121,-1,-1,-1,-2,1,0,-5,3
1526902126485088,2,1,3,-7,-7,0,1,5
1526902126485088,-1,-5,-5,3,1,-4,6,6
1526902126494065,2,-6,0,-1,0,0,-8,3
1526902126494065,-2,-2,0,6,1,-4,2,-3
1526902126509024,-2,3,2,0,-3,1,-2,-12
1526902126509024,1,-2,-4,-7,-3,0,-2,11
1526902126510022,-1,1,-3,0,1,-1,-5,-3
1526902126510022,2,3,5,1,1,1,7,3
1526902126530966,3,-2,1,-3,0,0,4,7
1526902126530966,-9,-6,-9,-3,-1,1,6,-6
1526902126532961,5,0,3,0,-2,0,-20,6
1526902126532961,-7,-3,-5,-5,-4,2,16,4
1526902126544929,2,0,-1,2,3,0,-21,1
1526902126544929,1,-1,1,1,0,2,9,-17
1526902126553905,-1,-2,-6,-1,-2,-5,-7,2
1526902126553905,1,3,3,0,2,2,5,-1
1526902126568864,-3,1,-3,-1,-1,1,-9,-6
1526902126568864,-2,-3,-4,-2,-2,-1,4,-6
1526902126570859,0,6,4,3,4,0,1,9
1526902126570859,-2,4,4,3,-2,1,6,0
1526902126591803,-1,-1,-3,2,0,-1,-9,-2
1526902126591803,1,4,4,2,3,3,2,-17
1526902126592801,3,2,-3,-4,-2,-1,-8,-6
1526902126592801,-3,0,-7,-3,-1,0,1,2
1526902126604768,1,5,3,1,1,-2,-2,-6
1526902126604768,1,-5,-1,-2,-2,-1,1,5
1526902126613744,5,2,2,-2,-1,-1,0,15
1526902126613744,-6,3,1,-3,-2,0,-13,-35
1526902126628704,-1,-2,-3,-4,-5,-6,7,-1
1526902126628704,-1,-2,-3,-1,3,0,6,2
1526902126630700,2,1,4,4,10,4,13,-6
1526902126630700,-2,-6,-1,6,-8,-2,-11,6
1526902126651643,-6,-1,-2,-4,0,0,-2,9
1526902126651643,3,5,3,4,0,-2,5,-7
1526902126652641,0,-3,-4,-6,-2,2,22,9
1526902126652641,-5,1,-2,-6,-1,-2,2,-3
1526902126664609,-1,0,4,1,0,1,-8,-6
1526902126664609,1,-12,-11,-7,-2,-3,-9,0
1526902126673584,-1,-2,-3,2,1,2,-5,2
1526902126673584,2,4,1,-1,0,-4,1,13
1526902126688545,-1,0,2,-1,1,0,5,-14
1526902126688545,-1,-1,-1,-2,1,0,-2,-15
1526902126690539,3,-1,0,-2,-5,-3,-11,-8
1526902126690539,-1,-4,-4,0,-2,2,8,6
1526902126711483,1,-2,1,2,0,-3,-10,3
1526902126711483,4,2,2,1,3,6,16,13
1526902126712481,-1,-4,0,-1,-4,-3,-5,-8
1526902126712481,-3,-4,-5,-6,-2,-2,-5,1
1526902126725446,-2,2,-1,3,1,2,5,16
1526902126725446,2,-4,0,0,-1,-4,-15,-14
1526902126734422,-1,1,3,1,-3,0,-5,-5
1526902126734422,2,1,-3,-3,-1,-2,2,2
1526902126748384,-5,-2,-2,0,-2,-2,-2,-4
1526902126748384,1,-3,-3,-1,-2,-1,-10,3
1526902126750379,3,-1,-2,-3,-1,-4,-5,-20
1526902126750379,-3,0,0,1,0,-2,-12,9
1526902126771323,-1,1,-3,-3,-2,1,10,-11
1526902126771323,3,1,1,0,-2,1,9,2
1526902126773318,-1,-3,-2,1,0,-1,-2,4
1526902126773318,1,-5,-1,2,1,1,5,4
1526902126785285,1,4,2,0,1,0,-17,18
1526902126785285,-2,-7,-3,-2,-3,0,19,-14
1526902126794262,-2,-2,-1,-1,-2,0,7,9
1526902126794262,-4,-4,-3,-2,-1,-1,3,-2
1526902126809221,-1,-1,1,0,-1,-6,-23,-3
1526902126809221,6,-11,-5,-3,-1,1,19,6
1526902126810219,-6,-6,-3,-1,0,-3,-20,-11
1526902126810219,0,2,1,0,1,3,16,-5
1526902126831163,0,-2,4,3,-2,-1,-13,-6
1526902126831163,2,-3,-2,0,0,-1,-10,2
1526902126833158,2,-1,-5,-3,-2,2,18,0
1526902126833158,-1,0,2,-1,0,-2,-15,3
1526902126845126,-1,0,-5,-1,0,-3,-7,-17
1526902126845126,2,-4,5,3,2,-3,-14,6
1526902126854102,1,-1,0,1,2,2,11,-4
1526902126854102,0,-4,0,1,0,2,4,2
1526902126869062,3,-2,-3,0,2,3,27,1
1526902126869062,-1,1,-1,0,-3,-5,-36,-29
1526902126870059,-1,-6,-10,-4,-4,-5,7,22
1526902126870059,1,-30,-9,-5,1,-4,-43,-18
1526902126891003,5,51,27,4,0,0,12,-6
1526902126891003,3,-14,-11,-5,1,4,7,3
1526902126892998,-7,0,-1,0,3,0,-9,8
1526902126892998,-7,1,3,4,2,2,16,14
1526902126904966,2,-21,-15,-8,-5,-4,-6,3
1526902126904966,0,11,5,0,-4,-2,4,4
1526902126913942,-1,1,2,-3,3,-2,-7,-6
1526902126913942,-1,8,-1,-1,-9,-3,3,2
1526902126928901,0,-8,-8,-1,3,2,-21,-16
1526902126928901,1,4,2,0,-3,-2,27,4
1526902126930897,-2,-16,-3,0,0,-1,10,3
1526902126930897,-2,9,2,-3,-3,2,12,2
1526902126951840,0,-5,0,1,4,2,-11,1
1526902126951840,-3,-4,1,-1,-3,-7,-12,-22
1526902126952838,-1,4,0,-2,-3,0,-9,13
1526902126952838,2,-18,-13,-4,-4,-1,10,-22
1526902126964806,1,-9,-2,1,-3,-3,4,2
1526902126964806,2,3,-4,1,0,1,-5,10
1526902126973782,-5,7,10,1,-1,7,28,20
1526902126973782,8,-7,-5,-5,-5,-8,-41,-32
1526902126988742,-7,-3,1,-4,1,0,-5,9
1526902126988742,-8,2,-2,0,26,7,5,13
1526902126990736,3,-4,-4,-8,-33,0,0,-11
1526902126990736,-5,16,11,0,-7,-11,-26,5
1526902127011680,-3,-13,-7,7,-3,-8,15,-9
1526902127011680,10,-8,-3,1,8,-1,-16,-19
1526902127012678,-2,7,-9,1,4,11,38,24
1526902127012678,-6,5,-4,-7,-7,-13,-57,-39
1526902127024645,-9,-1,4,-1,-5,-2,-12,-4
1526902127024645,-4,13,2,-5,-9,0,17,20
1526902127033621,7,-18,-5,-3,7,-7,5,-24
1526902127033621,-9,29,-13,-4,-2,2,22,23
1526902127048581,6,30,26,10,12,11,43,13
1526902127048581,-4,-17,-5,-1,-7,0,6,13
1526902127050576,-4,15,2,2,4,-2,2,10
1526902127050576,2,-27,-11,-2,2,0,-22,-21
1526902127071520,-3,-1,-6,-5,-1,-2,3,17
1526902127071520,-2,18,-1,2,3,8,2,16
1526902127072518,2,-17,4,0,-17,-3,-10,-25
1526902127072518,3,-11,5,9,20,7,29,22
1526902127085483,1,6,-2,-3,-4,2,-22,-26
1526902127085483,2,0,2,0,-23,-4,10,4
1526902127094459,-1,2,2,2,23,-3,-28,-4
1526902127094459,-5,7,5,3,-1,8,53,31
1526902127108422,1,-6,-2,-4,-17,-1,-30,-23
1526902127108422,-8,-13,-6,-7,-8,-3,-2,20
1526902127115403,3,8,4,-2,24,-6,-51,-39
1526902127115403,-2,-6,0,1,-4,9,32,12
1526902127131360,-3,19,-5,0,4,-4,-14,-9
1526902127131360,5,-25,-17,-5,-4,0,0,5
1526902127133355,-16,2,-3,-1,-5,-4,-11,0
1526902127133355,5,-4,7,0,-27,-4,1,27
1526902127154299,-3,14,-1,-1,12,-3,-6,-30
1526902127154299,7,9,13,0,3,5,17,-26
1526902127155297,5,-6,-4,0,-7,-1,16,14
1526902127155297,-6,12,6,1,14,4,10,15
1526902127168262,-13,-27,-10,-14,-10,-2,-28,38
1526902127168262,14,17,7,11,-21,-14,-16,-81
1526902127175243,0,-13,-12,-5,51,12,12,-4
1526902127175243,6,-2,-3,-1,12,8,-5,-5
1526902127191200,4,1,5,9,2,14,21,23
1526902127191200,-9,3,-2,-8,-2,-7,-12,-21
1526902127193195,5,5,-4,-3,-42,-10,-30,0
1526902127193195,-8,-9,11,4,16,-2,1,-4
1526902127215137,10,8,-1,-6,-6,8,36,21
1526902127215137,-4,-25,-10,-4,0,-6,-17,-10
1526902127217131,7,1,-2,0,-8,-1,8,6
1526902127217131,3,4,-5,-3,4,1,7,19
1526902127228101,-6,-29,1,2,-5,-7,-4,-14
1526902127228101,-3,41,18,8,6,5,-5,22
1526902127235083,4,0,1,-3,-6,-7,-8,-25
1526902127235083,-1,-9,-6,-7,4,-5,-7,-11
1526902127251040,-3,-15,-3,-1,-10,-6,10,21
1526902127251040,-6,-34,-21,-8,7,5,32,8
1526902127253035,9,16,13,4,2,7,-14,5
1526902127253035,-8,17,-2,-3,8,-3,-6,-5
1526902127273979,-4,-15,-8,3,27,14,11,-4
1526902127273979,2,-15,-1,-1,-5,-2,-38,7
1526902127275973,1,4,4,1,-12,1,50,18
1526902127275973,-9,11,8,1,-44,-6,5,-5
1526902127287942,4,2,-6,-2,25,-13,-18,-1
1526902127287942,-10,-23,1,1,20,8,15,28
1526902127294923,2,-28,-10,1,21,7,-18,-31
1526902127294923,0,32,12,5,-4,4,3,4
1526902127310880,6,9,2,-3,-20,-5,17,-7
1526902127310880,3,-13,-15,-4,-27,-10,-13,-5
1526902127312875,-14,16,7,1,10,-2,15,7
1526902127312875,7,5,5,-6,-5,-1,-28,-16
1526902127333819,-3,26,-2,3,-15,-6,11,-7
1526902127333819,4,-5,2,2,27,0,-14,-1
1526902127335814,0,6,6,3,-22,-14,-34,-13
1526902127335814,-3,-2,-13,-4,0,6,3,-7
1526902127347781,-5,-13,0,-3,0,1,-15,1
1526902127347781,10,4,0,-1,5,0,10,-7
1526902127354763,-4,11,8,0,-20,-4,-10,-1
1526902127354763,-6,-1,5,4,11,-2,50,18
1526902127371717,12,-27,-11,-6,17,10,-19,-19
1526902127371717,-2,-25,-11,-4,3,6,16,8
1526902127372715,4,41,10,5,6,4,-22,5
1526902127372715,-3,-27,-12,-4,-30,-16,-1,1
1526902127393659,-5,13,2,-2,2,-11,5,0
1526902127393659,-2,-25,-10,-7,-3,3,12,20
1526902127395654,6,25,-11,-3,5,-5,-10,-53
1526902127395654,-3,-1,-1,5,5,7,-4,3
1526902127407622,4,-7,-1,0,-11,-7,-28,-16
1526902127407622,-1,20,4,-6,-19,-10,-28,-8
1526902127416598,5,-44,-15,-10,-1,-17,-16,9
1526902127416598,-13,-5,-9,-3,-4,-6,-5,-6
1526902127431557,2,-17,-4,-2,19,8,23,26
1526902127431557,2,58,22,7,1,-7,-59,-35
1526902127432555,-13,-33,-5,1,-18,11,52,47
1526902127432555,20,-9,-4,1,18,5,-27,-28
1526902127453499,-18,-50,-11,-4,-20,-1,27,1
1526902127453499,7,78,26,3,0,-22,11,-6
1526902127455493,-24,-8,-7,-5,-7,4,49,26
1526902127455493,2,-6,4,-2,21,12,-16,4
1526902127467461,5,-38,-20,-4,12,-9,-48,-48
1526902127467461,-4,2,4,6,-4,15,52,22
1526902127476438,16,-38,-30,-11,-15,-14,-36,-64
1526902127476438,-16,24,25,5,7,11,51,57
1526902127491397,-8,8,-9,-7,-17,-10,-3,4
1526902127491397,0,-19,-8,-1,-7,-6,-33,-1
1526902127493392,-7,0,1,1,16,6,6,53
1526902127493392,15,-30,-16,-6,-8,-10,-49,-62
1526902127514336,8,55,31,10,7,12,18,31
1526902127514336,3,-21,-15,-1,-16,-3,4,2
1526902127515334,-10,-20,-1,-8,10,0,36,14
1526902127515334,-2,46,8,3,8,-14,-44,-52
1526902127527301,7,0,13,10,3,10,2,22
1526902127527301,3,-20,-13,-9,-3,-3,-10,-27
1526902127536277,-9,19,15,4,-24,-6,17,19
1526902127536277,-7,-31,-29,-16,-16,-22,-11,13
1526902127551237,-7,7,-1,-3,-5,-7,74,40
1526902127551237,5,-1,2,10,28,18,7,-27
1526902127553232,1,-6,-10,5,30,10,-19,-13
1526902127553232,-6,-42,-11,-7,-21,12,52,12
1526902127574176,16,33,11,2,-23,-12,-10,-11
1526902127574176,-10,7,-3,-1,5,1,-19,-4
1526902127575173,-3,-6,-2,1,-3,11,50,38
1526902127575173,18,6,6,3,14,-1,-76,-30
1526902127587141,-13,7,9,4,-4,11,46,0
1526902127587141,-2,-17,-8,-6,-14,-11,-31,25
1526902127596117,-5,6,6,3,0,2,-9,1
1526902127596117,-8,-13,-9,-1,-12,-10,54,17
1526902127611077,3,8,4,-6,7,-3,-24,-5
1526902127611077,11,-21,-9,-1,7,8,17,-3
1526902127613072,-5,19,14,3,-9,3,-26,-27
1526902127613072,-7,23,6,1,4,-5,6,28
1526902127634016,-10,-12,-10,-3,-2,-25,-53,-38
1526902127634016,-3,13,10,-3,0,26,58,45
1526902127635014,11,-29,-11,-3,-18,-11,-35,-34
1526902127635014,7,37,18,13,13,-7,-5,-9
1526902127647978,-11,-9,-10,-7,-18,6,-16,-3
1526902127647978,0,1,6,3,46,68,25,20
1526902127656955,3,-18,-15,-11,-69,-93,-15,-2
1526902127656955,-16,9,-1,-5,59,96,-12,5
1526902127670917,24,-15,-6,6,14,40,32,12
1526902127670917,8,-10,0,0,-2,16,-12,-32
1526902127672912,7,35,13,12,29,15,-8,-14
1526902127672912,-4,-37,-17,-10,-45,-52,0,-15
1526902127693856,-11,12,-22,-16,-21,-19,-17,20
1526902127693856,6,-37,-6,-1,12,-13,-13,-28
1526902127695851,3,68,43,17,14,0,-34,-46
1526902127695851,-5,6,-5,-3,-14,-24,-2,18
1526902127707819,4,-40,-10,-1,7,-4,-6,-7
1526902127707819,4,8,-3,-6,-43,-33,22,7
1526902127716795,0,-11,-15,-6,23,10,-15,1
1526902127716795,9,8,2,2,1,11,20,12
1526902127731755,-1,2,11,-3,-7,-1,-20,-18
1526902127731755,-27,40,32,11,-9,-35,-3,16
1526902127732752,22,-9,1,2,18,18,-10,-8
1526902127732752,-4,0,-7,-5,4,13,10,1
1526902127753696,-2,-12,-9,-2,-20,-18,-9,0
1526902127753696,-6,15,2,-4,-5,-14,14,20
1526902127755691,-6,-20,-10,1,18,36,-29,19
1526902127755691,5,-10,7,1,-17,-41,14,-22
1526902127767659,13,19,11,9,35,34,13,6
1526902127767659,-4,-38,-15,-7,-27,-10,-22,-29
1526902127776635,-6,19,-13,-9,-14,-2,-3,20
1526902127776635,5,-9,12,6,12,2,10,37
1526902127791594,4,3,8,5,-1,-1,9,-28
1526902127791594,-1,1,-8,-2,2,-18,-20,-14
1526902127792592,-2,-6,2,-1,-17,-9,-11,-12
1526902127792592,0,0,-2,1,26,19,30,-24
1526902127813536,-8,5,4,0,-48,-38,-15,6
1526902127813536,1,-16,-1,1,58,67,-17,7
1526902127815531,-2,-33,-25,-10,-15,-17,17,10
1526902127815531,11,46,46,9,-28,-19,-11,19
1526902127827498,-17,30,10,2,45,52,29,-2
1526902127827498,25,-37,-23,1,-9,-26,-8,-24
1526902127836475,-3,10,7,0,2,13,24,15
1526902127836475,-16,17,-2,-3,3,10,-8,0
1526902127851434,-2,-12,-10,-6,-19,-30,-48,-11
1526902127851434,-10,27,10,2,2,-7,43,19
1526902127853430,18,-29,4,5,12,13,8,0
1526902127853430,-11,24,10,5,-13,-5,-19,-8
1526902127874373,4,7,5,-3,-32,-13,7,8
1526902127874373,-4,-37,-16,-6,-8,-44,-13,-13
1526902127875371,2,21,16,6,45,61,11,-8
1526902127875371,5,-33,-34,-12,-19,13,-7,2
1526902127887338,-2,-6,10,8,43,56,25,-6
1526902127887338,13,14,10,0,-75,-76,-4,7
1526902127896315,-16,15,-4,-11,0,-41,-22,0
1526902127896315,-3,-13,4,0,10,-15,-17,8
1526902127911274,-10,-15,-26,-10,11,-2,-25,-10
1526902127911274,29,7,15,16,110,101,-11,-29
1526902127913269,13,14,-10,4,-40,1,29,-7
1526902127913269,-16,3,-16,-11,-17,16,-6,3
1526902127934213,-8,-40,-12,-11,-127,-96,-9,11
1526902127934213,-25,63,17,-1,55,-69,-21,15
1526902127935211,-5,11,2,-1,81,33,3,-6
1526902127935211,14,-44,-4,9,28,45,2,4
1526902127947178,4,30,-14,-2,-11,-8,-19,-20
1526902127947178,-12,-54,-26,-14,-105,-32,10,-14
1526902127956154,-3,33,22,3,0,-24,5,36
1526902127956154,-5,-12,-9,-2,-3,-10,1,-25
1526902127971114,13,-5,5,1,11,9,13,-1
1526902127971114,-16,-14,-11,-8,-50,-1,15,25
1526902127973110,1,-15,-10,-7,-33,-95,-27,-4
1526902127973110,-7,33,15,5,70,84,12,8
1526902127994053,11,1,2,5,62,2,3,-13
1526902127994053,11,-76,-37,-9,-10,20,-17,13
1526902127995051,-23,32,38,4,-21,12,48,13
1526902127995051,-10,7,-10,-8,-26,-80,-54,-17
1526902128007018,22,-25,3,11,52,56,5,0
1526902128007018,18,21,9,3,48,21,25,7
1526902128016992,5,-52,-34,-17,-83,10,11,-6
1526902128016992,-4,25,13,1,-3,-15,-6,-5
1526902128030954,-15,70,11,1,13,-20,2,7
1526902128030954,-2,29,16,3,-32,-1,-6,3
1526902128037936,7,1,10,6,-75,-20,31,5
1526902128037936,-11,-28,-4,-4,54,-34,-23,10
1526902128053893,16,7,6,12,77,71,25,3
1526902128053893,16,-14,-11,-2,-8,26,-14,-40
1526902128055888,-8,41,3,-6,-21,-41,7,21
1526902128055888,-8,-24,-5,5,-10,35,-3,-25
1526902128067856,-9,-56,-31,-22,-110,-44,-28,3
1526902128067856,-5,127,74,8,27,-18,12,18
1526902128076832,13,-76,-29,2,68,49,-3,-67
1526902128076832,8,-26,-21,-5,-39,-26,10,25
1526902128090794,-1,10,10,1,-12,-46,-21,-5
1526902128090794,-10,-2,-7,-11,-67,17,7,-9
1526902128097776,-4,-37,-16,-4,45,-10,-24,-28
1526902128097776,6,67,16,1,-11,7,20,32
1526902128113733,6,-49,-28,-9,-13,37,15,13
1526902128113733,-8,-22,1,7,9,-47,-24,-17
1526902128115728,13,-29,-15,-2,33,36,22,8
1526902128115728,-18,31,17,2,-24,-10,-24,2
1526902128136672,-21,14,9,-7,-50,-12,0,15
1526902128136672,15,-22,-17,-1,-21,-3,0,10
1526902128137669,16,23,-2,-3,43,28,-37,-8
1526902128137669,-24,-50,-3,10,68,37,91,14
1526902128150634,-9,45,10,-7,-84,-85,-52,-12
1526902128150634,-17,-11,0,8,127,104,-2,-7
1526902128157616,38,-43,-53,-16,-25,17,-4,-5
1526902128157616,-5,32,19,-4,-90,-36,1,2
1526902128173573,-9,-51,-11,1,34,1,36,3
1526902128173573,-1,22,12,1,-76,-26,-41,-35
1526902128175568,-43,1,23,5,43,-7,34,50
1526902128175568,49,-76,-43,-8,54,30,-5,-63
1526902128196512,-9,-9,3,8,5,25,45,30
1526902128196512,4,-21,-6,3,-2,-38,-19,-2
1526902128197509,-18,25,7,-3,-35,18,-55,-12
1526902128197509,-5,-13,-11,-9,-6,-35,10,-16
1526902128210474,2,20,26,5,18,19,2,-8
1526902128210474,-4,-7,-15,1,-2,3,11,51
1526902128217456,-6,25,21,3,-16,-38,17,-46
1526902128217456,-4,18,-6,3,11,21,-1,46
1526902128233413,-2,-28,-23,-14,1,-28,-67,-28
1526902128233413,15,-51,-23,-7,6,41,70,7
1526902128235408,-14,18,9,9,28,-2,-55,-34
1526902128235408,12,6,8,6,-5,35,47,47
1526902128256351,7,-26,-21,-11,-12,-61,-15,-39
1526902128256351,-6,52,23,5,43,36,18,37
1526902128258347,-5,4,15,12,-10,-1,-22,14
1526902128258347,0,-20,-17,-7,-20,-28,15,-24
1526902128270314,-3,-21,13,10,29,19,12,35
1526902128270314,-10,-1,-8,-9,-43,-50,-54,-21
1526902128278293,5,-28,-14,-7,32,5,98,51
1526902128278293,1,55,10,1,-53,-44,-27,-45
1526902128293253,0,-19,-6,-8,73,97,23,24
1526902128293253,1,4,9,12,59,3,2,-13
1526902128294250,-4,18,6,4,-29,-11,-4,-7
1526902128294250,-15,-60,-26,-15,-85,-47,-18,39
1526902128316191,14,35,28,7,-18,-3,24,-32
1526902128316191,6,76,30,8,17,16,24,23
1526902128318186,-6,13,8,4,26,35,0,-9
1526902128318186,14,-12,-4,-2,38,11,-46,-24
1526902128330154,-23,40,6,0,-68,-26,48,54
1526902128330154,6,-60,-15,-4,84,24,-16,-10
1526902128338133,32,-34,-24,-6,-45,-40,-80,-81
1526902128338133,-10,61,25,5,-12,12,3,32
1526902128353093,2,2,3,8,32,20,3,-18
1526902128353093,-16,-55,-36,-13,-51,-31,-8,-14
1526902128354091,4,82,46,6,4,-13,29,46
1526902128354091,10,-42,-10,1,2,25,-9,-27
1526902128376031,-5,42,13,3,12,-9,-17,5
1526902128376031,2,-31,-19,-13,-26,-29,-21,-27
1526902128376031,-5,-31,-14,0,18,19,-9,8
1526902128376031,14,-22,-2,-3,31,25,-5,-26
1526902128398970,-6,25,10,5,8,-4,49,38
1526902128398970,9,9,-8,-11,-32,-19,-35,-43
1526902128399968,-2,15,3,-5,-27,-6,-14,17
1526902128399968,-19,1,20,13,28,-4,18,19
1526902128412933,24,-37,-18,-10,1,13,7,-20
1526902128412933,-23,5,-1,3,-99,-44,34,43
1526902128413930,10,-5,-12,-4,64,10,-54,-27
1526902128413930,2,-15,-2,8,29,33,14,8
1526902128435872,-4,-35,-19,-5,9,2,-14,-12
1526902128435872,2,54,27,0,-42,-34,10,-1
1526902128436869,-26,-39,-22,-14,-22,3,18,24
1526902128436869,-2,80,44,3,-16,-19,-11,10
1526902128457813,13,-39,-20,-7,26,-18,-24,-35
1526902128457813,12,24,0,-2,0,8,19,17
1526902128458810,-12,-23,-7,-3,-61,-24,-8,-4
1526902128458810,-1,22,1,-1,5,-25,-21,9
1526902128472773,-3,-10,-1,4,60,29,22,-15
1526902128472773,16,-10,0,7,29,22,-37,-40
1526902128473771,-6,8,2,1,-39,-3,11,33
1526902128473771,5,-63,-34,-12,-62,-56,-34,0
1526902128495711,-17,70,38,9,21,58,-24,-9
1526902128495711,9,-28,-2,17,121,93,62,27
1526902128496709,12,-9,-12,-10,-17,-38,-25,-58
1526902128496709,-10,-23,-15,-5,-11,19,27,20
1526902128518650,0,0,-6,-6,-60,-77,-22,-5
1526902128518650,0,-16,1,-11,-22,13,-11,-26
1526902128518650,-26,45,32,20,45,32,43,28
1526902128518650,2,-54,-22,-26,-46,-62,-81,-49
1526902128533610,15,45,31,24,79,33,35,23
1526902128533610,7,-23,-12,-1,-8,-2,-43,-26
1526902128533610,-5,-4,-7,-8,-86,-41,49,23
1526902128533610,-15,-9,-1,1,80,16,-6,-11
1526902128555551,-3,0,-1,2,-27,-22,0,12
1526902128555551,14,-13,-20,-5,-4,10,6,8
1526902128556549,6,-27,-7,3,34,19,-36,-26
1526902128556549,1,45,16,-2,-84,-29,59,27
1526902128578490,-2,-29,-19,-12,30,33,-45,-31
1526902128578490,-8,3,6,5,21,-6,-20,14
1526902128578490,-8,17,-1,-6,-2,-10,-4,-13
1526902128578490,2,-11,-9,2,4,28,90,22
1526902128593450,0,-63,-23,-12,-32,-41,9,21
1526902128593450,-7,96,31,-4,-19,-9,-5,-25
1526902128594447,5,-23,-18,1,27,15,-38,16
1526902128594447,2,52,19,6,5,-16,-16,-5
1526902128615391,-13,4,1,0,-31,-2,30,3
1526902128615391,-4,-51,-22,-1,14,10,19,28
1526902128616389,9,-14,-3,-6,-21,-10,-44,-25
1526902128616389,-8,32,16,7,25,6,-14,-11
1526902128638330,14,-21,-14,-5,4,3,-45,-15
1526902128638330,7,-2,-5,-4,-29,-16,39,6
1526902128639328,-20,-1,12,1,22,-2,8,29
1526902128639328,4,30,3,-4,-24,-14,9,-28
1526902128653290,6,-11,-8,-3,15,36,-1,18
1526902128653290,-1,-18,-8,-2,-3,-2,16,20
1526902128654288,-1,-9,6,8,-8,-4,-27,-14
1526902128654288,-1,-35,-12,-2,10,-2,-25,1
1526902128675231,15,49,22,3,-35,-20,29,26
1526902128675231,-10,20,18,5,-13,-21,-28,-35
1526902128676229,3,-9,-10,0,44,28,13,3
1526902128676229,-4,-22,-5,1,17,39,61,37
1526902128698170,10,0,-5,-1,-17,-25,-26,-52
1526902128698170,-1,-5,-6,-5,0,-9,5,23
1526902128699167,2,12,6,-2,-59,-52,-17,3
1526902128699167,-13,9,8,6,64,48,-7,-3
1526902128713130,8,-36,-10,-3,-7,16,7,-3
1526902128713130,3,-17,-6,-1,-17,-6,-11,-29
1526902128714127,-11,2,2,-1,-4,-10,19,13
1526902128714127,-1,53,11,-2,-58,-17,1,28
1526902128736069,-14,12,4,5,57,9,-13,-34
1526902128736069,4,-35,-24,-3,-7,2,-25,-1
1526902128736069,11,16,7,2,36,11,36,11
1526902128736069,1,-20,-2,3,8,14,-12,2
1526902128758010,-10,16,5,-2,-23,-19,0,3
1526902128758010,8,-4,-4,-6,-7,-13,-15,-23
1526902128759008,-13,-13,0,0,-3,17,39,21
1526902128759008,-7,7,9,-1,-18,-18,-32,-18
1526902128772970,0,-6,-6,-1,4,-10,16,11
1526902128772970,-5,5,0,1,4,-4,-19,11
1526902128773968,2,-39,-18,-9,-32,-10,-1,-17
1526902128773968,12,15,12,8,44,1,24,4
1526902128795908,1,-4,-7,1,7,6,-16,-8
1526902128795908,-2,-11,-4,-4,-14,0,4,-5
1526902128796906,-1,25,9,5,9,14,15,0
1526902128796906,0,-7,0,1,1,18,-2,2
1526902128817850,-7,-14,-7,-7,-27,-26,-11,9
1526902128817850,-6,70,18,-1,-42,-26,-13,-6
1526902128818848,-1,-20,-5,7,69,35,48,8
1526902128818848,6,-13,-14,-3,8,2,-41,-4
1526902128832810,5,-4,-5,-3,-15,-5,-10,-31
1526902128832810,3,-12,-11,-8,0,1,-4,10
1526902128833808,-9,-11,-2,-3,-17,-4,1,-12
1526902128833808,-7,2,1,-4,-20,-18,-25,-9
1526902128855749,8,19,13,2,14,18,11,18
1526902128855749,-1,5,-3,2,8,6,29,13
1526902128856746,4,-6,-6,2,4,2,-19,-2
1526902128856746,-3,-20,-7,0,12,7,5,-16
1526902128878687,-1,3,-1,-2,-22,-4,1,11
1526902128878687,-7,-14,-4,-6,0,-14,-2,-10
1526902128878687,-2,27,5,-2,-12,-6,-7,25
1526902128878687,2,-26,-14,-6,19,-6,-30,-19
1526902128892650,3,-10,-8,-2,30,32,33,12
1526902128892650,0,-17,-2,2,13,14,-7,-11
1526902128893647,8,32,15,5,-8,3,-24,5
1526902128893647,-13,-17,-7,-2,-23,-18,-12,-6
1526902128915589,-5,17,-1,-6,-33,-27,-20,9
1526902128915589,8,-10,10,6,47,29,30,8
1526902128916586,2,11,-1,-6,-24,-2,15,0
1526902128916586,4,-11,-7,-1,1,3,12,12
1526902128938527,-2,24,17,10,8,1,-9,-3
1526902128938527,-7,-13,-13,-6,-13,-13,-16,-1
1526902128939525,-2,5,1,-5,-29,-11,-3,-4
1526902128939525,-7,9,8,3,31,16,16,26
1526902128953487,5,-29,-15,-4,11,5,-14,-45
1526902128953487,3,23,11,4,-21,-11,-12,1
1526902128954485,-1,-37,-18,-6,24,18,13,-9
1526902128954485,-2,4,-2,-2,-26,-15,-13,-5
1526902128975428,3,34,13,-1,-26,-14,4,22
1526902128975428,-12,-16,1,-1,1,-2,-17,-5
1526902128976426,9,-12,-1,5,39,21,18,-11
1526902128976426,-1,3,-4,-2,-16,-1,10,-5
1526902128998367,-2,-22,-10,-5,-5,-27,-23,-2
1526902128998367,0,-1,3,3,20,20,24,4
1526902128999365,-3,1,-8,-5,-19,-8,-14,-7
1526902128999365,-1,5,-7,-5,1,3,11,8
1526902129013327,-1,12,10,4,-6,2,7,3
1526902129013327,-3,-1,-1,-3,-1,-11,-16,-8
1526902129014325,3,-1,-14,-5,-27,-8,3,-2
1526902129014325,-12,7,21,10,19,0,2,-12
1526902129035269,5,-35,-12,-2,19,15,-14,-6
1526902129035269,2,-1,-5,-4,-11,-10,0,-9
1526902129036266,0,-15,-7,-5,-5,-4,10,8
1526902129036266,3,30,8,-1,-21,-10,-7,1
1526902129058207,-2,11,5,8,13,12,-8,-5
1526902129058207,3,-32,-11,1,23,11,21,-14
1526902129059205,-3,24,9,-1,-16,-4,5,14
1526902129059205,12,-24,-16,-13,-13,-18,-38,-30
1526902129073167,-10,23,20,4,-15,-4,4,12
1526902129073167,7,-51,-18,1,19,13,17,1
1526902129074165,-1,71,35,8,0,0,-27,-19
1526902129074165,1,17,-2,0,9,9,20,7
1526902129096106,0,-36,-20,-9,-6,-8,-8,-12
1526902129096106,2,5,1,1,6,-3,-14,-3
1526902129096106,-1,5,6,0,-3,-2,-3,-3
1526902129096106,-1,-29,-13,-2,2,6,12,11
1526902129118047,-3,3,4,2,0,-3,-1,-1
1526902129118047,-3,20,6,1,-16,-10,1,3
1526902129119045,-5,-20,-4,0,12,7,12,9
1526902129119045,3,8,2,-2,-3,4,-2,-4
1526902129133007,4,-26,-5,1,-17,-8,4,4
1526902129133007,-9,27,7,-2,18,9,24,4
1526902129140986,3,-17,-6,0,25,-6,-49,-9
1526902129140986,8,-18,-7,0,-7,1,9,-9
1526902129155946,-5,-26,-8,-3,-1,7,12,1
1526902129155946,2,33,11,2,-14,-8,-2,2
1526902129156943,-4,-5,-7,-1,-32,-20,-21,-9
1526902129156943,1,19,5,-3,30,-5,-1,4
1526902129177887,7,-6,-9,-5,-1,1,-5,5
1526902129177887,-4,-1,-3,0,-15,-10,-7,-13
1526902129178885,2,-18,-11,-2,9,6,11,7
1526902129178885,-9,18,17,6,1,3,5,9
1526902129192847,2,1,-7,-1,-10,-5,18,-12
1526902129192847,-2,-5,-7,-1,-2,-1,-18,-4
1526902129200826,2,-14,-4,-8,-6,-1,11,11
1526902129200826,-3,-4,6,1,11,-4,1,-19
1526902129215786,1,10,9,3,1,4,7,14
1526902129215786,-1,-5,-5,-5,-13,-11,-12,-5
1526902129216783,-2,-4,0,4,31,9,-13,-15
1526902129216783,8,-7,0,2,-13,15,25,17
1526902129237727,-2,-3,-6,-3,3,-4,2,-10
1526902129237727,-4,11,5,-1,-19,-9,4,6
1526902129238725,-11,-4,-8,-3,9,0,-5,-5
1526902129238725,6,-14,-3,1,2,0,-5,0
1526902129252687,3,25,5,2,-11,0,-15,-11
1526902129252687,-2,-30,-5,0,5,-5,-12,13
1526902129260666,-1,37,13,3,-5,3,64,19
1526902129260666,3,-17,-9,-3,-9,-11,-46,-10
1526902129275626,-4,0,-7,-2,16,3,12,-8
1526902129275626,1,-15,-7,-3,4,-2,-15,7
1526902129276623,-4,12,4,1,2,7,-11,-17
1526902129276623,0,-6,-7,1,-7,2,14,3
1526902129298564,1,-1,4,-1,-1,-8,-20,-1
1526902129298564,-5,-2,2,2,10,6,6,3
1526902129298564,0,-2,-3,-3,-5,-6,-17,-9
1526902129298564,0,15,7,-1,-14,-6,12,9
1526902129312527,-7,-13,-8,-4,-1,5,-9,10
1526902129312527,3,10,3,2,21,12,18,-3
1526902129320506,-2,-12,-3,-1,1,2,-5,3
1526902129320506,-8,0,-4,-3,-10,-9,-35,-19
1526902129335466,2,-6,-5,-7,-26,0,21,2
1526902129335466,-4,-10,1,-2,-1,-3,-1,7
1526902129336463,4,36,11,4,11,5,-4,13
1526902129336463,-1,-12,-12,-3,1,-3,-19,-23
1526902129358404,1,-10,5,6,7,-1,7,-8
1526902129358404,-3,-15,-17,-8,-25,-5,6,9
1526902129359402,-5,-14,2,2,7,-9,-19,-7
1526902129359402,5,17,10,2,13,16,32,14
1526902129372368,1,-10,-9,-3,-2,-3,-5,-2
1526902129372368,-3,-8,5,0,-15,-7,-8,-11
1526902129380346,-1,12,3,-5,-10,-16,-2,5
1526902129380346,1,19,8,2,7,8,7,12
1526902129395305,4,7,5,-1,-14,-5,17,-1
1526902129395305,6,10,-1,-2,9,0,0,-5
1526902129396303,0,-26,-9,-3,-10,0,-5,1
1526902129396303,-6,5,-1,-5,-4,-10,-14,-2
1526902129418244,4,11,6,2,12,5,7,4
1526902129418244,0,0,-4,2,9,0,-4,-14
1526902129419242,-2,1,5,1,9,5,11,4
1526902129419242,0,-22,-9,-3,-32,-9,-1,-4
1526902129432207,0,-10,-7,-5,16,-3,-11,3
1526902129432207,1,39,12,7,5,12,13,-5
1526902129440186,-5,-33,-10,-5,-9,-10,11,2
1526902129440186,4,-12,-2,-4,2,0,-5,5
1526902129456143,6,1,3,-2,-15,-2,15,-1
1526902129456143,-4,31,8,2,11,1,1,4
1526902129456143,2,-20,-7,-1,-5,2,-17,-6
1526902129456143,0,-3,-3,1,4,-2,2,-2
1526902129478084,1,17,4,2,3,0,-20,0
1526902129478084,1,-22,-12,-8,-19,-5,24,7
1526902129479082,-3,6,6,1,-2,-2,17,11
1526902129479082,-4,-5,-8,-6,0,-5,-35,-12
1526902129501023,2,-17,-9,1,16,8,10,-9
1526902129501023,-1,-1,0,3,-13,-7,-3,3
1526902129502021,-4,5,-5,-5,-9,-2,-10,-2
1526902129502021,-7,-6,0,0,-9,2,29,7
1526902129515983,2,-14,-5,0,31,0,-20,-16
1526902129515983,-5,11,3,1,-22,0,-10,0
1526902129515983,0,-43,-20,-7,5,-3,-1,-4
1526902129515983,3,46,25,5,11,6,11,2
1526902129537924,-5,8,-3,1,-15,-1,4,11
1526902129537924,1,-36,-15,-6,6,-5,-1,-9
1526902129538922,-9,24,11,3,-12,-4,1,1
1526902129538922,1,-20,-5,0,10,0,4,-7
1526902129561860,0,4,2,-1,-1,2,4,9
1526902129561860,5,-20,-4,0,-1,-2,-23,-17
1526902129561860,-6,37,4,-2,-34,-5,14,13
1526902129561860,-2,-26,-3,3,39,12,-4,3
1526902129575823,1,-22,-11,-1,4,4,-12,-19
1526902129575823,-2,4,-6,-4,-4,-3,-10,-2
1526902129576821,-1,0,7,3,-4,0,6,1
1526902129576821,2,-2,-3,3,11,-6,8,1
1526902129597764,-1,-2,1,-2,2,4,3,-5
1526902129597764,1,1,-3,-3,3,5,-7,3
1526902129598762,-3,-16,-7,2,5,2,-20,1
1526902129598762,0,27,7,-1,-20,-9,6,-12
1526902129620703,-4,-23,-5,2,1,-1,3,6
1526902129620703,0,30,7,-2,0,-5,-7,-6
1526902129621700,-4,7,0,-3,-16,-10,-9,-2
1526902129621700,-4,-12,-7,0,13,8,20,14
1526902129635663,8,-22,-7,-1,-3,0,-36,-12
1526902129635663,-6,12,14,3,10,5,3,8
1526902129636660,9,-17,-5,4,26,12,16,7
1526902129636660,0,5,7,2,-13,-3,-16,-7
1526902129658601,-10,13,-1,-8,-13,-10,10,11
1526902129658601,1,-4,1,1,-1,-2,-13,-1
1526902129658601,-1,-3,-5,-4,5,3,19,-8
1526902129658601,4,-10,-8,-3,-7,-4,-21,-6
1526902129680543,0,23,2,-2,-19,-9,7,-10
1526902129680543,-4,-22,-2,1,29,4,-8,12
1526902129681541,6,21,3,-1,7,9,-1,-16
1526902129681541,4,17,-3,0,-9,-1,-7,4
1526902129695503,-5,7,6,-1,-13,-6,-9,-9
1526902129695503,1,9,-20,-4,3,2,19,3
1526902129696500,0,-9,22,8,14,7,-12,10
1526902129696500,-2,2,-12,-5,-9,0,15,-1
1526902129718441,4,-3,-2,1,-4,-6,-14,3
1526902129718441,-5,-6,-5,1,-11,-6,4,-10
1526902129719439,-6,-17,-11,-3,12,-2,-11,6
1526902129719439,1,21,10,-3,-6,2,-8,-6
1526902129740383,1,-3,0,-1,-6,-5,8,11
1526902129740383,-5,-2,3,4,5,8,1,-1
1526902129741380,-1,3,-6,-4,7,-2,-10,-19
1526902129741380,1,-43,-11,-8,-41,-10,4,5
1526902129755343,8,33,16,4,35,3,-4,1
1526902129755343,-8,-11,-1,5,21,16,22,13
1526902129756340,6,-8,-17,-6,-11,-3,-1,-12
1526902129756340,-3,18,12,4,7,-3,4,-3
1526902129778281,-3,-3,-6,-3,-16,-8,-21,-11
1526902129778281,5,-9,-1,0,-12,-8,3,2
1526902129779279,0,-5,-6,-2,-2,-4,4,9
1526902129779279,2,2,5,2,29,9,9,2
1526902129800223,0,-25,-18,-5,-26,0,9,-2
1526902129800223,5,7,6,-2,10,-8,-26,-6
1526902129801220,-10,27,12,5,-1,5,21,3
1526902129801220,0,-15,-9,-3,-11,-4,9,15
1526902129815183,-4,-9,4,2,11,6,12,-1
1526902129815183,4,-20,-11,-5,-17,-5,-6,-19
1526902129816180,-4,7,3,-3,-14,-14,-11,4
1526902129816180,2,-17,-6,0,7,2,-8,-2
1526902129838121,0,5,3,0,15,11,28,14
1526902129838121,8,5,7,3,-3,4,-12,1
1526902129839119,5,19,10,3,-3,-1,29,-3
1526902129839119,-6,2,-4,0,2,0,-13,-7
1526902129861060,-4,-34,-14,-4,-4,-4,0,-3
1526902129861060,-1,-23,-20,-9,-12,-3,-2,0
1526902129861060,-4,43,25,9,1,1,-7,8
1526902129861060,-6,-27,-10,-4,2,-6,-15,-10
1526902129876020,2,6,-3,-2,8,-3,-20,-18
1526902129876020,2,11,4,1,-5,5,22,12
1526902129876020,-5,-24,-12,-3,-9,-1,-8,-6
1526902129876020,1,2,-10,-7,12,2,2,-1
1526902129897961,-3,-3,1,4,2,2,10,8
1526902129897961,4,20,19,1,-17,-12,-28,-3
1526902129898959,-9,0,-5,2,27,11,-15,-13
1526902129898959,4,1,3,1,-18,-3,-3,0
1526902129920900,4,0,-4,-5,7,1,-13,-6
1526902129920900,-5,-1,0,0,-1,0,7,5
1526902129921898,1,-5,-8,-8,-27,-18,-12,4
1526902129921898,-4,-2,4,-1,18,6,1,1
1526902129935860,16,18,7,2,-5,4,15,5
1526902129935860,-9,1,-2,3,11,1,6,-5
1526902129936857,0,19,9,-1,2,1,-19,0
1526902129936857,-2,2,-7,0,-8,-4,25,7
1526902129957801,-1,-17,-7,-4,-28,-11,-20,-7
1526902129957801,7,36,10,3,14,-2,-24,-9
1526902129958799,-1,-21,-11,-4,2,7,32,-13
1526902129958799,0,17,11,0,-3,0,-12,6
1526902129980740,-5,-4,2,0,-3,-3,8,-6
1526902129980740,-8,-10,-9,-7,-20,-12,-25,-11
1526902129981738,-1,-1,1,1,10,9,23,16
1526902129981738,1,0,0,0,-9,-2,-3,-3
1526902129995700,-3,10,5,1,-2,-6,2,1
1526902129995700,3,-9,-6,-2,22,7,7,-9
1526902129996697,0,26,5,1,-18,-5,4,17
1526902129996697,-5,-17,2,2,-6,7,24,-7
1526902130018638,0,5,-2,2,41,11,-2,7
1526902130018638,-1,-23,-8,0,-15,3,28,8
1526902130018638,-4,8,5,1,3,0,-20,5
1526902130018638,-3,-26,-13,-8,-13,-12,-16,-12
1526902130040580,0,33,13,6,-9,-5,-17,-3
1526902130040580,-10,-3,3,2,8,2,10,3
1526902130041577,2,-22,-15,-4,1,-5,-2,-9
1526902130041577,-3,-6,-2,0,-6,-2,2,9
1526902130055540,2,14,5,-1,7,3,0,-6
1526902130055540,2,9,-1,-3,1,0,7,4
1526902130056537,-3,-9,-1,-3,-11,-6,-12,0
1526902130056537,-6,29,2,0,-8,0,5,11
1526902130078479,0,-29,-10,-5,10,1,3,-8
1526902130078479,3,-2,-4,0,2,2,-14,-1
1526902130079476,-3,-12,-6,0,-5,-1,0,-12
1526902130079476,2,-4,-2,-1,3,-3,2,-3
1526902130100420,-5,-12,-6,-4,-23,0,-1,14
1526902130100420,-5,30,5,1,3,-10,-14,-6
1526902130101418,-6,0,8,0,7,6,8,-4
1526902130101418,-2,-17,-3,-1,10,1,-5,-6
1526902130115380,4,1,6,0,-6,-1,-4,-9
1526902130115380,-4,-38,-15,-5,-10,-2,8,7
1526902130116378,0,40,15,1,-6,-9,-21,-16
1526902130116378,3,9,6,2,5,2,6,28
1526902130138319,-4,-11,-8,-4,-1,-5,1,-20
1526902130138319,-1,-5,-4,-3,-3,0,17,2
1526902130139316,8,-8,-4,-1,-2,-4,-16,-13
1526902130139316,-4,-7,-4,-2,4,1,-8,1
1526902130160260,3,12,5,3,-12,-3,-1,10
1526902130160260,-2,-7,0,-1,9,-1,7,-6
1526902130161257,0,-18,-7,-1,-8,5,22,12
1526902130161257,3,3,-3,0,4,-6,-40,-23
1526902130175220,0,-3,1,2,-1,-3,-9,-2
1526902130175220,-2,8,1,0,-5,7,33,18
1526902130183198,3,-13,-4,1,8,-6,-15,-12
1526902130183198,2,8,2,-4,-25,-12,-11,-1
1526902130198159,-5,-11,-8,-4,15,-2,1,5
1526902130198159,1,-10,-2,3,0,9,-21,-7
1526902130199156,-4,11,5,-2,9,6,13,8
1526902130199156,2,-3,1,2,1,6,26,3
1526902130221097,-2,-7,-11,-7,-20,-9,-10,-14
1526902130221097,3,17,8,5,6,-3,-39,-2
1526902130221097,-7,2,1,2,3,0,41,21
1526902130221097,3,-3,-3,-1,14,4,-3,-27
1526902130235060,7,20,0,-3,-7,3,6,22
1526902130235060,-8,-20,-2,-2,-3,-1,1,-16
1526902130243038,-2,3,3,-6,-14,-10,-26,-11
1526902130243038,0,27,7,1,13,-1,9,6
1526902130257998,-4,-20,-9,2,9,10,18,-3
1526902130257998,3,3,2,-3,-29,-13,-4,2
1526902130258996,-3,-29,-11,-4,3,-1,-16,8
1526902130258996,-6,-2,-4,-2,16,11,20,-7
1526902130280937,4,-13,-4,-3,-6,1,-7,-7
1526902130280937,-2,8,1,-1,-13,-9,-18,-4
1526902130281935,-2,-8,-6,0,-8,-7,0,-8
1526902130281935,-3,-10,-3,0,-3,-4,-19,8
1526902130294900,12,-1,5,5,4,1,-8,-16
1526902130294900,-7,25,4,0,20,6,7,5
1526902130302879,0,-11,-11,-2,-13,-3,10,2
1526902130302879,5,-26,-3,-5,-2,-5,-16,10
1526902130317839,-6,41,12,0,-15,-4,19,0
1526902130317839,-2,0,4,2,-1,-5,-4,3
1526902130318836,0,14,1,2,13,6,-13,-4
1526902130318836,3,2,5,-1,-7,2,11,10
1526902130340777,-3,-31,-17,-5,2,0,-1,-5
1526902130340777,3,-2,4,-2,-7,-3,-6,-24
1526902130341775,-6,25,8,3,-5,0,15,30
1526902130341775,-2,-4,-6,-2,9,-10,-9,-7
1526902130354740,3,-13,-4,2,27,13,-3,-13
1526902130354740,2,9,2,-1,-7,4,11,12
1526902130362718,-4,-8,-3,-2,-2,2,32,-1
1526902130362718,-1,-4,-3,-3,-25,-19,-37,-11
1526902130377678,-13,5,6,3,21,18,2,7
1526902130377678,5,-2,1,2,4,2,-3,-4
1526902130378676,8,3,-4,-6,2,1,-15,-16
1526902130378676,-11,-9,5,4,-3,6,26,5
1526902130400618,1,11,-3,-4,-1,-8,2,7
1526902130400618,3,0,-5,-3,-3,-4,-19,-3
1526902130401615,-9,-29,-8,-5,-6,3,-13,3
1526902130401615,4,29,17,7,-7,-3,20,-11
1526902130414580,2,0,2,-2,-3,-17,-24,0
1526902130414580,-6,-15,-5,2,1,5,23,8
1526902130423556,-4,10,5,-1,9,-2,-21,-2
1526902130423556,3,-2,-2,-2,7,10,30,15
1526902130438515,-1,-10,-5,-3,-11,0,-5,-31
1526902130438515,-4,21,3,-1,-7,-2,22,8
1526902130439513,3,-3,-2,0,2,-1,-17,8
1526902130439513,-1,-1,-3,-1,1,-5,-5,-16
1526902130460457,0,4,5,6,-4,-3,2,11
1526902130460457,4,-17,-8,-3,0,-1,1,0
1526902130461455,1,-8,-3,-1,-4,-2,-5,-5
1526902130461455,-3,11,-5,0,7,1,3,9
1526902130475417,0,-2,11,2,-22,-8,-27,-5
1526902130475417,0,22,-3,-5,-4,-1,16,12
1526902130483396,0,-4,-6,1,25,9,5,-8
1526902130483396,3,-21,-9,-1,-4,3,-10,1
1526902130498356,-4,18,9,5,9,2,18,8
1526902130498356,4,-8,-3,0,-15,-10,-17,-21
1526902130499353,-1,0,-3,-2,-10,-3,0,1
1526902130499353,-1,-8,-3,-3,9,7,-6,0
1526902130520297,-1,-5,-2,0,-18,-7,-14,7
1526902130520297,-3,-16,1,0,6,-1,3,5
1526902130521295,4,0,-3,1,4,3,8,-1
1526902130521295,0,-4,-3,-1,4,0,-9,-2
1526902130535257,5,-10,-6,-4,-11,-5,-8,-5
1526902130535257,-4,-15,-3,-4,-5,-2,5,-3
1526902130543235,-7,16,11,2,-3,-5,3,4
1526902130543235,2,-10,-1,0,-7,-1,-8,2
1526902130558195,2,23,4,2,13,3,-5,-7
1526902130558195,-2,-5,4,3,2,3,10,-15
1526902130559193,5,0,-3,-5,-5,-3,4,7
1526902130559193,-6,-24,-5,-5,-13,-4,2,3
1526902130581134,-3,-9,-12,-5,-2,-5,3,3
1526902130581134,-1,37,18,5,9,1,-12,3
1526902130581134,-2,-14,-5,-2,-8,-4,6,8
1526902130581134,5,1,-3,-1,2,-3,-14,-13
1526902130604073,1,-18,-12,-2,1,3,17,10
1526902130604073,-2,-2,-4,-4,0,-2,-28,-5
1526902130605071,-2,5,5,2,-1,-2,13,3
1526902130605071,-6,3,4,3,15,2,-2,9
1526902130618036,3,-13,-3,0,-2,6,12,-20
1526902130618036,-2,-17,-6,-4,-8,-2,1,0
1526902130619033,-1,27,13,2,1,-5,-10,-6
1526902130619033,4,-1,-13,-7,-7,0,9,-3
1526902130640975,-4,19,15,5,10,1,-1,14
1526902130640975,-2,-10,-5,1,7,2,7,0
1526902130640975,1,-10,0,0,3,9,10,-2
1526902130640975,1,0,-2,-2,-4,-6,-12,-9
1526902130663913,-6,0,-13,-9,-6,-8,-4,-3
1526902130663913,4,20,9,2,2,-1,0,6
1526902130664910,0,-4,1,-1,2,0,-9,5
1526902130664910,-3,19,10,4,-2,-1,-2,-6
1526902130677875,6,-15,-5,-2,-17,-6,-11,-11
1526902130677875,-3,0,-6,-6,4,-5,0,24
1526902130678873,-2,-17,-6,0,14,12,4,-47
1526902130678873,5,-1,-2,-2,-5,-2,-3,1
1526902130700814,-3,3,-2,-1,-2,2,9,8
1526902130700814,-2,-5,-6,-4,-13,-5,-1,-3
1526902130701812,-1,-14,-6,-2,-3,-8,-9,12
1526902130701812,3,4,7,-2,0,3,10,-3
1526902130722756,-1,-11,-3,1,12,1,-14,-5
1526902130722756,1,7,2,3,6,6,-8,-6
1526902130723753,1,-11,-9,-2,-22,-10,-14,-5
1526902130723753,-5,-8,3,0,11,4,-8,-9
1526902130737715,5,5,2,-1,-2,3,16,16
1526902130737715,-8,10,3,-1,3,1,-6,-5
1526902130738713,1,-1,1,-2,-8,-6,-17,-1
1526902130738713,2,1,5,1,-10,-5,-3,1
1526902130760654,2,22,6,-1,3,-1,6,-1
1526902130760654,-2,-21,-7,-1,2,6,6,-4
1526902130761652,-1,8,6,1,-1,2,15,9
1526902130761652,0,3,-1,-1,0,-1,-9,-5
1526902130783593,3,-23,-14,-6,1,4,35,14
1526902130783593,-2,1,-6,-4,-13,-6,-8,-7
1526902130783593,-6,24,17,5,22,1,-2,7
1526902130783593,3,-13,-9,-3,-8,4,6,3
1526902130798553,1,-3,-3,-4,-18,-13,-21,-18
1526902130798553,-4,-14,-6,-1,0,-2,-6,-9
1526902130798553,-2,-7,-3,0,11,5,12,14
1526902130798553,-4,5,-4,-1,-5,-3,-9,-1
1526902130820494,-2,-7,-4,1,7,2,3,-2
1526902130820494,4,13,6,-2,-7,-3,7,5
1526902130821492,-7,-5,-4,-3,-1,-4,-7,-6
1526902130821492,-3,-3,-8,-5,4,-3,-3,-4
1526902130843433,-3,-5,1,0,-3,0,2,-7
1526902130843433,-5,-6,-6,-2,-4,-3,13,9
1526902130850414,3,-9,-6,-2,6,4,7,9
1526902130850414,3,6,4,0,-4,0,12,-5
1526902130858393,0,10,3,1,1,-5,-23,-8
1526902130858393,-8,3,0,1,0,1,-4,4
1526902130859391,1,-10,-4,-1,-8,0,30,9
1526902130859391,3,1,1,1,4,-3,-19,-13
1526902130880334,0,-3,-3,-3,-2,-1,-4,-1
1526902130880334,-5,-7,-1,0,-5,2,15,6
1526902130881332,-5,12,0,-2,5,-4,-9,6
1526902130881332,6,-6,8,5,2,5,3,-2
1526902130903273,0,0,0,0,-4,-2,-1,-11
1526902130903273,-4,3,-4,-1,2,-2,-12,-4
1526902130904270,4,-5,1,-3,-8,-5,-9,-14
1526902130904270,-5,32,11,1,3,1,-5,4
1526902130918233,-1,-16,-5,1,13,13,20,9
1526902130918233,4,27,13,0,-17,-13,-20,-15
1526902130919230,1,3,5,4,11,6,22,11
1526902130919230,6,-9,-9,-5,4,-2,-48,-15
1526902130940174,0,-16,-6,-3,-3,0,10,-10
1526902130940174,4,21,5,-3,-2,-2,0,5
1526902130941172,-9,-6,-6,-1,-19,-9,-6,-1
1526902130941172,-1,5,3,3,4,5,18,5
1526902130963113,0,-8,0,3,6,3,4,10
1526902130963113,3,-7,-6,-2,1,-5,-32,-16
1526902130964111,-2,-6,-11,-5,-7,-5,9,-3
1526902130964111,-1,-19,2,1,7,1,1,10
1526902130978073,-1,14,6,0,7,3,2,-2
1526902130978073,-3,-16,-9,-2,-5,-1,0,-1
1526902130979070,7,1,-3,-4,-16,-5,-30,-13
1526902130979070,-18,-11,-6,0,-1,-5,-2,3
1526902131001011,1,23,-4,-5,-15,-2,33,13
1526902131001011,0,-17,-2,2,12,6,6,7
1526902131002009,1,2,-2,-2,2,-1,-19,-10
1526902131002009,3,-6,-3,-2,-2,5,37,8
1526902131022953,-3,-4,4,1,-4,-9,-31,-28
1526902131022953,-5,-10,-11,-4,1,2,12,2
1526902131023950,3,0,-1,-2,-13,-3,2,3
1526902131023950,1,-2,-9,-1,1,-1,-1,-10
1526902131037913,-1,-8,-7,-2,-1,-3,-9,9
1526902131037913,1,1,3,-1,5,1,9,2
1526902131038910,-1,-11,-4,-1,7,0,-5,-5
1526902131038910,4,24,1,-3,-4,3,22,5
1526902131060851,2,-3,4,5,-4,-2,-1,-7
1526902131060851,-3,-7,-7,0,3,0,-11,-2
1526902131061849,0,4,3,-3,3,-1,-6,6
1526902131061849,0,-4,-2,-2,0,4,29,10
1526902131082793,8,0,-2,-2,-2,-1,-2,-4
1526902131082793,-3,3,0,-1,7,6,24,-2
1526902131083790,-3,0,1,1,1,6,-5,0
1526902131083790,5,-11,-3,-2,-9,-11,-11,-9
1526902131097753,-4,24,12,2,0,-4,-19,7
1526902131097753,-6,-1,1,-3,-9,-1,4,9
1526902131098750,1,-5,-8,-1,2,-2,-2,0
1526902131098750,4,-18,-2,0,-1,-1,-4,5
1526902131120691,1,24,9,3,5,4,14,0
1526902131120691,1,7,5,0,6,0,12,14
1526902131121689,-1,2,-2,-1,-9,-1,-24,-17
1526902131121689,1,7,1,-3,-3,-4,-11,-5
1526902131143631,-7,-15,-6,-1,9,3,-12,3
1526902131143631,0,-8,0,-1,-6,0,3,-3
1526902131143631,-3,8,5,0,0,-1,5,6
1526902131143631,-3,-3,-8,1,-17,-4,4,1
1526902131158590,-3,-9,-7,-7,-1,-3,2,-7
1526902131158590,-3,5,1,-1,14,3,-8,1
1526902131158590,3,-6,-6,0,1,8,19,4
1526902131158590,7,8,0,0,-1,-5,-17,-15
1526902131180531,-6,4,2,3,-11,0,6,10
1526902131180531,0,-5,-5,-1,-7,-7,-13,-3
1526902131181529,-7,1,1,-4,-4,-7,-16,-9
1526902131181529,1,1,-3,-5,15,4,5,3
1526902131203470,0,-9,-1,1,1,2,-1,0
1526902131203470,-1,8,-3,-1,-2,-4,-12,-5
1526902131204467,-6,1,3,3,-1,0,-2,10
1526902131204467,0,-11,-6,-1,-4,-2,0,-5
1526902131218430,2,-6,-9,-4,1,-6,-8,-13
1526902131218430,-1,-8,-1,1,0,2,6,5
1526902131219427,1,-3,-2,-3,-3,-3,-1,-2
1526902131219427,2,-10,-7,0,1,1,1,-2
1526902131240371,-5,-9,0,-1,-1,-1,5,4
1526902131240371,-5,8,6,-1,-13,-6,-2,4
1526902131241369,3,1,0,2,21,6,-9,-6
1526902131241369,1,-4,2,6,11,6,16,-4
1526902131263310,-1,-5,-6,-5,-22,-5,-9,-5
1526902131263310,-3,1,-3,-1,8,-2,0,0
1526902131264308,-1,0,2,0,-6,4,23,16
1526902131264308,-1,-18,-14,-8,-6,-12,-30,-19
1526902131277273,4,12,6,2,11,8,9,4
1526902131277273,10,-8,2,1,-4,-1,-4,-11
1526902131285251,-12,16,7,3,-1,1,15,0
1526902131285251,0,-4,2,1,-9,-6,-17,-4
1526902131300211,-1,-7,-7,-4,-2,-6,-6,-6
1526902131300211,-3,-6,-5,-5,3,-1,-9,6
1526902131301209,7,-4,-1,-1,1,3,10,1
1526902131301209,-7,-1,0,-2,-1,1,5,7
1526902131323150,-2,-6,0,-1,-1,-3,-13,1
1526902131323150,1,2,3,1,2,5,16,7
1526902131324147,3,-3,-1,-1,-5,-8,-20,-18
1526902131324147,1,9,6,1,-10,-2,-9,0
1526902131337113,0,-2,-6,-3,11,-6,-7,1
1526902131337113,-1,5,4,7,16,11,20,1
1526902131346089,2,1,0,1,-5,3,1,1
1526902131346089,3,5,2,0,3,2,0,2
1526902131361049,-7,-4,-1,-3,-11,-7,-10,-10
1526902131361049,-4,4,6,-1,-7,-5,5,3
1526902131361049,2,-4,-2,-1,5,3,26,-4
1526902131361049,-2,5,2,-1,-5,-2,0,5
1526902131382990,2,3,-1,0,1,0,-12,-8
1526902131382990,4,4,5,1,-3,-6,-15,0
1526902131383987,-2,-4,0,-1,-11,-3,5,-10
1526902131383987,-3,-10,-9,-4,8,0,-3,4
1526902131397950,0,12,5,3,-1,4,4,9
1526902131397950,-2,-2,2,0,1,2,-4,-21
1526902131405929,3,5,-4,0,3,-2,-15,9
1526902131405929,-4,-5,4,0,-19,-5,7,-9
1526902131420889,-11,-14,-9,-4,10,-4,3,3
1526902131420889,3,13,6,2,-3,-1,-21,-3
1526902131421886,-2,-7,1,-1,1,-2,-2,-11
1526902131421886,5,-10,-9,-4,0,-3,0,-9
1526902131442830,-2,5,2,-1,-5,0,4,13
1526902131442830,0,6,1,-2,-22,-3,27,16
1526902131443827,-3,-1,-1,-2,6,-10,-29,-10
1526902131443827,-4,-5,-2,3,16,13,9,7
1526902131457790,10,-27,-8,-2,-6,3,-13,-4
1526902131457790,-5,38,20,3,14,0,-2,5
1526902131465769,1,-5,3,3,-4,4,8,-1
1526902131465769,5,13,3,0,-3,-4,12,2
1526902131480728,-3,-4,-2,-2,0,-5,-17,-17
1526902131480728,-7,-19,-14,-3,-14,0,16,10
1526902131481726,3,-1,-2,-2,-3,-1,3,3
1526902131481726,0,10,12,3,7,-1,-12,-8
1526902131503667,1,7,-1,2,4,8,22,14
1526902131503667,6,-19,-9,-2,1,-6,-23,-18
1526902131503667,-8,5,0,-3,-18,-5,17,6
1526902131503667,0,-17,-18,-8,13,-3,-21,-16
1526902131517630,0,6,7,3,2,7,-8,9
1526902131517630,7,-15,-17,-4,12,8,-2,-9
1526902131525608,-8,-4,7,2,-3,2,5,6
1526902131525608,-6,0,-1,-1,-13,-6,3,2
1526902131540569,-5,-3,-2,-2,-8,-8,-7,1
1526902131540569,-6,-8,-10,-7,-4,-7,-2,-4
1526902131541566,7,-6,-5,-3,10,7,3,3
1526902131541566,3,1,-2,-2,-4,-3,7,-7
1526902131563507,-1,13,8,4,5,2,0,-2
1526902131563507,-4,-4,1,0,-13,-7,-3,5
1526902131564505,6,2,-4,-1,17,0,-9,-2
1526902131564505,-2,1,-2,1,0,4,4,2
1526902131577470,0,1,-2,-1,-3,2,14,-4
1526902131577470,-6,1,1,-5,-4,-6,-22,-6
1526902131585448,1,-3,0,0,-6,-3,-9,0
1526902131585448,4,-1,-3,-3,-4,-4,-19,-2
1526902131600408,-5,1,-2,-3,-15,-6,11,-2
1526902131600408,-6,-2,-2,-1,22,5,12,8
1526902131601406,0,-5,0,1,-2,-1,-9,-2
1526902131601406,5,-6,-9,-2,13,12,-18,1
1526902131623347,2,18,18,3,-3,-6,-5,-5
1526902131623347,-3,-7,0,2,-3,4,15,2
1526902131624345,0,2,-6,-3,2,-5,-5,-7
1526902131624345,-2,-5,1,2,-5,1,4,10
1526902131637310,0,-3,-8,-4,-5,-4,6,2
1526902131637310,3,1,-5,-2,2,0,-14,-10
1526902131645288,2,2,8,3,7,6,24,11
1526902131645288,-2,-1,-3,0,-7,-5,3,-12
1526902131660248,-1,-5,-7,-5,2,-5,-15,-1
1526902131660248,-2,-9,0,-1,0,5,20,12
1526902131661246,3,-15,-9,-8,-22,-12,-16,-24
1526902131661246,-4,8,7,1,3,-2,6,8
1526902131683187,-1,-17,-14,1,11,5,1,-1
1526902131683187,-2,-3,1,4,15,8,16,12
1526902131684185,7,4,2,-1,-10,-4,-29,-10
1526902131684185,-4,-3,-3,-3,-6,-2,28,0
1526902131706126,-2,1,3,1,1,-1,-19,-7
1526902131706126,2,-14,-7,-2,-9,-4,-7,-12
1526902131707123,1,6,2,1,5,5,-3,4
1526902131707123,2,-5,-2,0,-6,-5,2,-3
1526902131721086,-1,-1,-3,-5,0,2,5,6
1526902131721086,-2,-2,0,-2,-8,-5,-22,-12
1526902131721086,-1,-10,-8,-2,-4,-2,10,6
1526902131721086,2,21,6,-3,3,-2,15,3
1526902131743027,2,24,20,6,0,1,-9,2
1526902131743027,1,-3,-8,0,5,0,-1,-5
1526902131744025,-1,-14,-5,2,-9,-3,-5,-2
1526902131744025,3,4,4,2,1,0,0,8
1526902131765966,-9,-8,-10,0,3,-1,4,-7
1526902131765966,6,2,0,1,-9,-4,0,-4
1526902131766964,-2,9,2,2,4,1,-5,1
1526902131766964,2,-11,-4,-4,-7,-1,4,5
1526902131780925,-5,-4,-4,0,4,-1,-30,-1
1526902131780925,-3,-8,1,-2,2,2,13,-9
1526902131781923,-1,0,-12,-9,-4,-4,-11,1
1526902131781923,-2,6,11,6,-3,-3,-8,-4
1526902131802867,1,-8,-2,0,2,-1,17,6
1526902131802867,-4,-4,4,0,-15,-4,0,2
1526902131803865,-2,7,8,3,18,6,-1,0
1526902131803865,2,-7,-8,-7,-18,-5,-6,4
1526902131826803,3,10,-2,-1,4,-3,1,-13
1526902131826803,-3,-8,-2,-1,0,-1,-12,4
1526902131826803,0,11,-2,-3,-3,-4,7,-5
1526902131826803,-1,-2,0,1,5,2,-6,5
1526902131840766,-3,-3,0,-1,-5,2,16,2
1526902131840766,-2,7,0,-4,-1,-2,-8,2
1526902131841763,-5,-5,-5,-6,-1,0,6,7
1526902131841763,-1,4,-12,-3,-8,-6,-31,-17
1526902131862707,-1,-5,3,8,4,0,31,7
1526902131862707,1,10,19,13,8,3,-12,-1
1526902131863704,1,-1,3,3,-1,0,-4,9
1526902131863704,-1,-7,-3,-2,3,3,10,-10
1526902131885645,0,-6,-13,-12,-11,-5,11,1
1526902131885645,-3,10,-1,-3,-2,-2,-8,5
1526902131886643,-3,-8,1,0,8,1,-11,-1
1526902131886643,4,-5,-4,-2,5,1,2,-12
1526902131900605,0,-1,1,-2,-4,-1,-6,6
1526902131900605,-3,-3,-2,-1,-5,-4,2,-9
1526902131901603,-4,-8,-8,-6,-16,-5,5,6
1526902131901603,0,-7,4,-1,11,2,-15,3
1526902131923544,0,3,5,3,-2,1,-15,-9
1526902131923544,-1,-4,-2,0,2,4,24,8
1526902131923544,-1,5,1,0,5,-5,-9,-8
1526902131923544,-5,7,2,0,-4,-3,-1,6
1526902131945486,2,-24,-13,-4,-4,-3,-9,-19
1526902131945486,-2,18,10,-1,-13,-10,-8,5
1526902131946483,-1,-15,-5,2,16,5,1,1
1526902131946483,2,-5,-5,-1,13,4,2,-9
1526902131960446,6,15,11,0,7,9,6,9
1526902131960446,-3,-4,-9,-3,-1,3,11,1
1526902131961443,-1,1,2,-3,-16,-15,-36,-18
1526902131961443,-1,0,1,1,0,7,15,14
1526902131983384,0,-11,-9,-5,-5,-5,-20,-4
1526902131983384,-1,4,-5,-3,2,-2,-3,1
1526902131984382,3,-13,2,3,0,2,14,6
1526902131984382,0,20,17,3,4,-2,-9,-8
1526902132005325,-3,2,-3,-2,-5,0,1,10
1526902132005325,-2,-5,-2,-1,2,4,32,3
1526902132006323,0,7,-1,-3,-3,-4,-21,-17
1526902132006323,-6,-11,-5,2,-7,-2,9,0
1526902132020286,3,-2,-1,-2,-3,-3,-5,7
1526902132020286,1,6,7,-1,1,0,-23,4
1526902132021283,-1,-5,-6,-3,-5,-1,15,1
1526902132021283,5,-3,-1,1,2,3,16,7
1526902132043224,-3,-5,-5,-3,-17,-3,-10,-11
1526902132043224,-2,-13,-6,-2,18,-6,-20,-16
1526902132044222,2,9,2,3,9,8,6,8
1526902132044222,-1,8,1,-3,-8,0,-11,-1
1526902132066163,1,10,11,8,7,4,29,4
1526902132066163,-2,-6,-4,-1,-10,-1,6,-2
1526902132066163,-3,1,-2,-4,-9,-6,-12,4
1526902132066163,-9,-9,-5,-3,4,-2,5,7
1526902132081123,6,-10,2,0,1,-5,-22,-31
1526902132081123,-4,17,4,1,-2,-4,-7,3
1526902132081123,1,-12,1,2,7,7,11,2
1526902132081123,5,-18,-14,-4,-6,-3,-3,-5
1526902132103064,0,1,-3,-4,-7,-5,3,4
1526902132103064,0,-23,-13,-2,2,2,-14,3
1526902132104062,-1,21,17,3,-9,0,4,4
1526902132104062,6,-15,-11,-5,4,-5,6,-13
1526902132126003,-1,8,8,6,20,12,1,10
1526902132126003,4,-5,-5,-3,-12,-4,17,-8
1526902132127000,-5,-5,-8,-1,-5,-1,-7,5
1526902132127000,3,-21,-8,-1,-2,-3,-20,-5
1526902132140963,-8,10,8,1,8,0,7,6
1526902132140963,-4,5,5,0,0,-1,-4,-4
1526902132141960,4,-1,0,1,-6,0,6,-3
1526902132141960,4,3,-2,2,-2,-2,-9,-9
1526902132162904,-2,-8,-9,-6,-7,-9,0,3
1526902132162904,2,2,0,1,5,9,36,-2
1526902132163902,1,-8,-2,-3,-15,-25,-1,2
1526902132163902,2,4,4,1,13,19,8,2
1526902132185843,0,-1,-1,0,-35,-50,-7,-3
1526902132185843,-3,-3,-11,-7,29,50,-5,7
1526902132186840,1,-14,-1,-1,-3,-8,-34,-5
1526902132186840,-5,-4,-14,-7,-1,5,23,12
1526902132200803,4,14,9,4,-8,-11,-10,-20
1526902132200803,-13,-20,-12,-4,-7,-18,-23,-7
1526902132201801,-7,7,0,-2,9,8,9,13
1526902132201801,8,-28,-14,-4,0,5,0,-5
1526902132222744,-3,6,18,4,5,15,23,14
1526902132222744,0,-8,-2,0,-21,-16,-3,26
1526902132223741,7,57,22,4,25,14,8,-10
1526902132223741,2,-14,-4,0,-6,-14,1,-24
1526902132245683,-14,-25,-21,-8,7,10,-3,15
1526902132245683,7,54,-1,-1,-12,-11,-19,-13
1526902132246680,-7,-19,16,2,-2,-5,-7,12
1526902132246680,-8,23,7,0,-3,4,-6,-15
1526902132260643,-6,4,-1,4,19,20,24,18
1526902132260643,-1,7,7,2,-4,-1,-1,8
1526902132261640,2,-19,-12,-2,1,5,-6,2
1526902132261640,3,17,5,-1,-13,-23,-29,-41
1526902132283581,-2,4,-5,-7,-2,2,6,-11
1526902132283581,-7,-13,4,-2,5,8,14,28
1526902132283581,5,-4,-13,-4,-7,-12,-4,-23
1526902132283581,-4,1,10,3,-11,-3,-7,20
1526902132305523,4,2,-8,-1,5,5,-18,-11
1526902132305523,-2,-10,2,0,5,-3,49,14
1526902132306520,-1,6,8,5,2,4,-23,-5
1526902132306520,-5,-54,-37,-14,-12,-2,3,-10
1526902132320483,0,53,44,10,12,4,-4,8
1526902132320483,5,-20,-4,2,5,-1,20,-16
1526902132321480,2,16,14,6,-3,8,24,20
1526902132321480,-1,-10,3,0,6,-9,-8,17
1526902132343421,-6,-22,-17,-3,-10,-3,-2,-26
1526902132343421,-5,28,17,5,-1,-6,-30,-8
1526902132344419,-4,-20,-11,-3,3,1,21,8
1526902132344419,-1,17,4,-1,-5,2,15,13
1526902132365363,19,7,-24,-12,-7,-9,-25,-6
1526902132365363,-14,-21,5,1,-2,-4,-23,-12
1526902132366360,-1,-12,-10,-5,-2,2,4,-21
1526902132366360,4,18,13,2,-4,-14,-25,-10
1526902132380323,-1,-36,-23,-3,10,13,6,16
1526902132380323,3,15,1,-1,-5,0,0,1
1526902132381320,-8,-1,-1,-1,-5,-3,-5,-4
1526902132381320,2,3,4,4,5,4,8,12
1526902132403262,-4,-7,0,-3,-7,-5,9,-7
1526902132403262,2,-21,-10,-6,-5,-6,-26,0
1526902132404259,1,24,15,0,-15,-3,10,-11
1526902132404259,1,-5,-3,-2,14,5,1,5
1526902132426200,3,58,43,15,8,8,15,7
1526902132426200,9,-4,-12,-4,-1,-4,-15,-28
1526902132426200,-6,-20,-11,-1,4,3,19,16
1526902132426200,3,4,3,-1,-7,2,17,13
1526902132440163,-4,-12,-9,-2,-6,-8,-27,-32
1526902132440163,-9,-6,-7,-5,-4,-7,-16,-7
1526902132448141,5,-12,-7,-6,-2,0,1,22
1526902132448141,-9,14,-12,-4,2,-4,-12,-33
1526902132463101,0,-15,11,-10,-1,8,25,37
1526902132463101,-1,-38,-15,22,6,7,8,-21
1526902132464099,-1,30,0,-6,-5,-12,-14,-21
1526902132464099,-3,14,36,22,6,13,37,42
1526902132486040,9,-34,-34,-9,2,-15,-19,-49
1526902132486040,15,-32,1,-9,2,-1,-29,12
1526902132486040,-22,38,19,14,13,12,17,-3
1526902132486040,-2,-23,-22,-15,-11,-4,-6,3
1526902132500002,-3,-5,-8,-4,-10,-4,-4,4
1526902132500002,-1,54,4,-9,-14,-8,7,7
1526902132507981,0,-55,-17,-7,11,-3,-1,-15
1526902132507981,11,23,14,-1,-5,-2,-7,12
1526902132522941,-7,-9,13,16,8,8,10,-5
1526902132522941,-1,23,-1,-1,-2,-4,-21,1
1526902132523939,-2,8,1,0,-2,3,-1,7
1526902132523939,-1,-9,-3,-1,-5,-6,-4,-18
1526902132545880,2,-8,-23,-11,-8,-8,-10,19
1526902132545880,-2,4,10,2,1,13,35,26
1526902132546877,6,-16,-7,-5,-4,-4,-19,-31
1526902132546877,8,-10,-8,-2,-1,-1,1,5
1526902132559843,-8,6,-4,0,-2,1,-11,7
1526902132559843,-6,31,15,1,10,2,16,15
1526902132567821,7,-16,-9,-3,0,0,2,2
1526902132567821,-2,6,7,2,-3,2,-11,-16
1526902132582781,-2,24,12,8,11,6,-22,-10
1526902132582781,-5,-24,-10,-2,-5,-4,-7,-26
1526902132583779,7,-2,-9,-5,-3,3,9,26
1526902132583779,-8,-4,2,2,-6,-10,-11,-15
1526902132605720,-5,5,-7,-4,5,10,28,24
1526902132605720,0,18,16,0,-6,-6,-7,-13
1526902132606718,9,-37,-29,-7,-7,-4,-7,-13
1526902132606718,-18,22,13,0,6,-15,-2,14
1526902132619682,-5,-14,-8,0,19,27,-3,7
1526902132619682,2,-15,-2,2,11,9,-22,-32
1526902132628658,4,5,-3,-1,-7,-1,18,5
1526902132628658,0,1,0,-2,-10,-1,-22,-8
1526902132643618,-4,-7,-2,-4,-9,-19,22,-9
1526902132643618,-3,-18,-25,-9,-1,2,2,15
1526902132643618,1,1,19,7,6,9,21,10
1526902132643618,0,-17,-10,1,-2,1,0,-12
1526902132665560,-4,28,11,0,-10,-11,-13,9
1526902132665560,2,-24,-11,-3,-3,4,20,14
1526902132666557,-7,-12,-9,-6,0,-16,-32,-35
1526902132666557,2,3,0,0,-2,6,23,14
1526902132680520,7,-35,-16,-3,0,-1,-18,-23
1526902132680520,-4,50,27,7,11,5,23,28
1526902132688498,-2,1,3,2,-4,-1,-10,-6
1526902132688498,-2,0,3,-1,10,1,2,4
1526902132703459,-4,-14,-7,-6,-7,-8,-14,-16
1526902132703459,-1,8,6,0,-3,-4,6,12
1526902132704456,0,11,3,0,2,5,10,6
1526902132704456,-1,19,12,4,-13,-5,-25,-16
1526902132725400,-6,20,7,-2,-9,-9,9,26
1526902132725400,1,-4,1,-1,18,2,-2,3
1526902132726398,1,10,-7,-1,0,5,-6,-4
1526902132726398,3,-45,-18,0,7,5,15,15
1526902132749336,5,27,9,0,-15,-6,-20,-18
1526902132749336,-14,19,19,4,-10,-4,23,22
1526902132749336,9,-24,-6,-3,-1,-5,-38,-21
1526902132749336,3,-14,-12,-6,1,-1,12,-7
1526902132763299,-2,-18,1,1,0,-2,-9,3
1526902132763299,3,-4,-5,0,6,0,-13,-8
1526902132764296,-8,-2,-3,-1,-5,-1,21,22
1526902132764296,4,20,6,0,11,9,-4,-5
1526902132785240,-2,-4,-6,-5,-7,-8,-8,-18
1526902132785240,0,-12,-4,-1,-6,0,6,4
1526902132786238,-4,9,6,-2,-6,-7,-19,8
1526902132786238,3,12,-1,-3,-8,-6,2,-14
1526902132800200,0,-27,-13,-3,8,11,21,9
1526902132800200,1,18,8,0,-5,-8,-25,-16
1526902132808179,-3,3,1,1,0,1,10,5
1526902132808179,1,-15,-7,-4,0,-1,-6,-6
1526902132823138,-6,21,7,2,2,2,0,8
1526902132823138,0,-11,-7,-3,-7,-4,34,2
1526902132824136,6,2,-3,-1,-3,-6,-13,-6
1526902132824136,-4,-2,-3,4,11,5,2,10
1526902132846077,2,-2,1,-1,3,7,15,10
1526902132846077,-1,16,12,1,-2,-3,-10,-25
1526902132846077,1,-8,-5,-4,0,-3,3,13
1526902132846077,-2,-3,-3,1,2,4,14,10
1526902132869016,5,-2,-6,2,-3,-2,13,6
1526902132869016,-6,-22,-14,-5,-4,-3,-12,6
1526902132870013,3,18,17,2,0,6,0,-11
1526902132870013,6,1,-6,-2,4,3,2,-1
1526902132882978,-8,-9,5,-1,-11,-10,-19,-7
1526902132882978,-4,-4,-6,-4,4,1,-6,0
1526902132883976,2,-8,-3,-3,-1,-4,4,-19
1526902132883976,4,24,6,-2,5,-3,-3,-2
1526902132905917,-1,-3,-3,0,-1,3,0,-8
1526902132905917,0,-6,-5,1,1,-2,15,10
1526902132906915,-6,-25,-13,-2,7,5,9,3
1526902132906915,-1,50,19,6,-9,1,5,1
1526902132928856,-3,8,10,-1,-3,-6,-9,0
1526902132928856,14,8,1,0,-1,-1,-8,-7
1526902132929853,-6,51,13,2,-2,1,19,7
1526902132929853,-1,-36,-12,-8,-3,-4,-33,-5
1526902132942818,4,2,-6,-2,-4,-2,0,4
1526902132942818,-7,-19,4,-2,-4,-6,-5,-29
1526902132943816,9,29,15,5,11,3,-12,6
1526902132943816,0,-11,-7,-3,-6,0,15,7
1526902132965757,-4,8,5,1,5,-3,-26,-1
1526902132965757,-4,-8,-4,-3,-6,7,45,9
1526902132966755,-4,1,3,-2,-1,-6,-11,3
1526902132966755,4,-21,-9,-4,0,-3,-13,-15
1526902132988696,2,4,-1,0,12,11,16,14
1526902132988696,-8,-8,6,2,-6,-4,-18,-20
1526902132988696,1,17,7,0,-5,-4,5,-7
1526902132988696,-1,-15,-5,0,-7,-2,3,5
1526902133003656,8,9,-11,-5,-2,-5,5,13
1526902133003656,-10,6,8,2,-4,-8,-18,-12
1526902133003656,1,-20,-3,3,3,6,9,13
1526902133003656,7,6,-9,-5,1,-2,-37,-27
1526902133025597,-8,-24,-10,-3,-4,-1,2,-1
1526902133025597,4,21,0,-3,-1,-1,-18,12
1526902133026595,-3,-23,-11,-6,-12,-10,-2,-7
1526902133026595,0,-15,1,4,7,6,14,17
1526902133048536,-4,-21,-5,-5,-3,-3,-9,-26
1526902133048536,4,30,3,0,1,0,-12,11
1526902133048536,-3,-26,-13,-4,-10,-10,-24,-10
1526902133048536,0,-13,-5,-2,11,8,28,16
1526902133063495,-6,17,7,2,-6,3,1,-1
1526902133063495,-6,-2,-2,-2,-4,-2,-13,-6
1526902133064493,7,-31,-14,-4,7,-1,-4,-21
1526902133064493,-7,50,24,5,-2,-2,-3,-10
1526902133085437,-4,5,-7,3,0,-5,10,7
1526902133085437,3,-23,-12,-3,-2,4,15,-2
1526902133086435,1,0,7,2,-4,6,16,6
1526902133086435,-2,-21,-13,-3,-3,-1,-6,14
1526902133108376,-2,15,12,4,6,-3,-32,-33
1526902133108376,1,-20,-16,-4,-2,1,8,15
1526902133109374,-7,-6,2,-2,-3,-3,8,8
1526902133109374,-3,2,3,-1,-2,-5,-8,-8
1526902133123336,6,-8,-6,-4,-3,0,26,2
1526902133123336,3,-42,-20,-9,-4,-4,5,4
1526902133124333,9,36,24,6,3,0,-11,-15
1526902133124333,-4,-37,-12,-3,-4,-4,-4,4
1526902133145277,-1,53,26,5,1,3,15,10
1526902133145277,3,-6,1,0,2,1,-8,-7
1526902133146274,0,-6,-12,-6,-10,-8,-16,13
1526902133146274,-1,10,6,-1,-4,-3,2,-9
1526902133168216,3,-17,-6,0,6,8,-7,-33
1526902133168216,-2,-16,-8,-2,-1,1,5,5
1526902133169213,-11,17,7,2,-8,-6,-3,5
1526902133169213,17,14,-3,-2,-2,9,-6,-4
1526902133183175,-5,-8,0,-3,7,1,13,-4
1526902133183175,-8,6,7,4,9,11,-3,6
1526902133184173,5,-6,-4,0,-4,-3,24,0
1526902133184173,-3,1,1,2,-3,-6,-1,4
1526902133206114,-7,-20,-8,-7,-16,-9,-19,5
1526902133206114,3,10,4,-1,-6,-18,-24,-10
1526902133206114,-1,33,-7,-5,22,12,-3,-4
1526902133206114,1,-23,-3,1,-9,1,10,0
1526902133228055,-5,13,13,4,15,14,13,11
1526902133228055,1,9,9,6,-8,-2,-8,-2
1526902133229053,1,-26,-12,-4,-3,-1,5,3
1526902133229053,-6,9,3,-1,-7,-7,-3,-16
1526902133243015,-1,-33,-19,-6,-8,-11,-4,7
1526902133243015,2,13,8,2,7,3,-4,2
1526902133244013,-2,-6,-5,0,2,6,5,-7
1526902133244013,4,-16,-8,-5,-4,-3,10,6
1526902133265954,-6,0,2,3,-5,-4,-6,6
1526902133265954,-2,-4,-4,-3,1,2,12,1
1526902133266952,6,-4,3,-1,-6,-3,-4,-5
1526902133266952,-13,13,5,1,4,-5,-5,-2
1526902133287895,-2,-9,-1,-2,-18,-8,-2,6
1526902133287895,5,-19,-16,-9,-4,1,-3,1
1526902133288893,-4,-8,2,3,20,8,4,-1
1526902133288893,9,11,8,5,8,10,1,-4
1526902133302856,2,11,2,-2,-5,-1,-3,-11
1526902133302856,4,-6,-1,-2,-4,-9,-1,0
1526902133303853,0,-14,-8,-4,-13,-9,-5,-2
1526902133303853,-9,-4,-1,2,4,-4,-4,-6
1526902133325794,0,-1,-15,-6,6,1,-2,14
1526902133325794,1,-13,5,5,0,3,12,3
1526902133326792,7,29,5,-1,5,6,9,2
1526902133326792,-6,8,-3,-2,-2,-5,-28,-12
1526902133348733,-6,-10,-1,1,-9,-8,-9,-13
1526902133348733,-5,2,-5,0,4,1,-3,-10
1526902133348733,-5,-5,-2,-1,-3,-4,0,15
1526902133348733,4,-5,-5,-5,-4,-4,-25,-23
1526902133363693,2,-4,-3,-5,-6,2,3,3
1526902133363693,-2,17,6,-2,-3,-1,1,9
1526902133363693,1,-14,1,-1,5,1,0,-14
1526902133363693,0,-20,-9,-4,-4,0,15,13
1526902133385634,-1,31,11,0,5,6,16,8
1526902133385634,0,19,0,-7,-15,-11,-29,-17
1526902133386632,-2,-11,-7,5,9,11,15,4
1526902133386632,-1,-4,-2,3,3,-10,-4,1
1526902133408573,-5,3,13,4,4,1,-1,10
1526902133408573,-4,-10,-4,1,4,2,1,0
1526902133408573,14,58,10,4,6,14,17,7
1526902133408573,4,-34,-9,4,10,8,11,-6
1526902133422536,-7,10,5,3,3,1,-6,-10
1526902133422536,-2,2,-12,-12,-15,-16,-4,1
1526902133430514,-3,-12,10,-3,-10,-9,-14,1
1526902133430514,-1,5,-4,0,-1,1,9,-4
1526902133445474,3,21,7,1,8,8,-3,7
1526902133445474,5,-64,-26,-9,2,-3,-5,-11
1526902133446472,-6,41,15,0,-3,3,45,39
1526902133446472,5,-10,-4,-8,-24,-9,-5,-25
1526902133468413,-3,-14,-8,-3,0,-19,-31,-22
1526902133468413,-2,-7,-1,5,11,13,18,18
1526902133469410,-1,-9,5,6,2,2,-10,-7
1526902133469410,-4,15,1,-5,-4,1,7,17
1526902133482375,2,-21,-3,4,4,0,8,6
1526902133482375,2,38,15,0,-6,-3,-3,-6
1526902133490354,-4,-20,-11,-4,-5,-10,-18,-6
1526902133490354,-5,-8,-12,-3,1,5,0,-2
1526902133505314,-5,0,6,0,-2,1,3,4
1526902133505314,8,24,4,-2,-4,-7,-11,-16
1526902133506311,-3,-35,-10,-2,-5,-2,-18,-10
1526902133506311,-7,13,1,-1,4,-3,3,9
1526902133528253,4,-11,-9,2,2,6,33,18
1526902133528253,9,-31,-1,4,9,7,-10,-6
1526902133529250,5,34,12,3,-1,0,1,-20
1526902133529250,-16,12,9,1,-4,-7,1,0
1526902133542215,6,11,13,5,-8,0,7,15
1526902133542215,-6,-3,-2,-6,3,-4,-2,3
1526902133551191,6,-33,-17,-8,-4,-1,8,-3
1526902133551191,6,8,6,3,9,5,1,5
1526902133566151,-6,3,-2,-2,1,0,-2,-2
1526902133566151,-3,3,3,2,-4,-2,-7,-1
1526902133566151,-1,-19,-15,-6,-4,-13,-39,-32
1526902133566151,-1,22,12,3,0,10,27,25
1526902133588093,1,-18,-10,-7,-7,-9,-18,-5
1526902133588093,7,-3,-4,4,7,9,15,4
1526902133589090,7,-27,-14,-3,-1,-2,10,3
1526902133589090,-20,41,45,13,3,-2,-10,-11
1526902133603053,2,7,-12,-2,3,1,-7,-8
1526902133603053,-1,4,-1,-2,-7,-6,1,4
1526902133611031,-4,-17,-6,-2,2,-1,1,1
1526902133611031,6,-9,-10,-6,-1,-1,16,4
1526902133625991,0,-21,-9,-5,-1,-1,-7,-17
1526902133625991,-11,28,14,2,-3,0,21,12
1526902133626989,1,-5,-5,-1,-11,-7,1,-5
1526902133626989,5,-11,-9,2,17,8,10,1
1526902133647933,-8,6,5,1,-1,-1,-9,0
1526902133647933,7,17,9,4,2,2,-7,-13
1526902133648930,-4,1,-2,-3,-7,-7,-6,3
1526902133648930,-2,5,-4,-4,-11,-8,-14,2
1526902133662893,2,-12,-7,-1,4,-3,3,-8
1526902133662893,6,-45,-15,-1,6,3,-4,2
1526902133670871,-8,66,39,15,6,10,21,6
1526902133670871,5,-24,-16,-5,1,-8,-33,-10
1526902133685831,7,10,3,-1,0,-2,-16,-8
1526902133685831,-5,-6,-3,-4,-4,-2,17,7
1526902133686829,7,-21,-9,-8,-10,-22,1,7
1526902133686829,-7,22,10,8,13,24,-17,-8
1526902133707773,5,-10,-2,-1,-13,-13,11,-9
1526902133707773,-6,6,-2,0,13,13,-3,8
1526902133708770,4,-35,-20,-12,-11,-4,-17,-8
1526902133708770,1,24,12,4,0,-6,-19,-2
1526902133722733,-12,44,35,7,4,0,12,17
1526902133722733,-2,15,2,2,-10,-6,5,-14
1526902133730711,-10,-21,-14,-3,-1,-6,-26,-16
1526902133730711,6,-23,-10,-6,-2,-1,13,14
1526902133745671,-7,-10,-7,0,-1,1,-2,-2
1526902133745671,1,7,6,2,3,4,8,0
1526902133746669,-3,-10,-3,0,-6,0,-3,4
1526902133746669,2,-8,-20,-12,-14,-16,-14,-5
1526902133768610,-1,-1,7,5,16,14,17,13
1526902133768610,-2,25,11,2,1,-7,-10,-4
1526902133768610,-1,-7,-6,2,6,11,-7,9
1526902133768610,-1,-59,-25,-11,-6,-1,17,0
1526902133791548,-4,52,21,-1,-9,-8,-25,11
1526902133791548,1,-13,-6,3,4,-3,-8,0
1526902133792546,0,9,0,0,8,7,7,-5
1526902133792546,-3,-2,-1,-3,-13,-6,-1,-4
1526902133805511,-3,-3,-14,-7,-3,-3,-2,3
1526902133805511,-8,2,2,0,1,-1,-7,2
1526902133806509,7,-8,-3,-2,0,0,-2,-3
1526902133806509,5,6,-5,2,1,-1,8,-10
1526902133828450,-4,-9,-7,-3,-9,-2,16,8
1526902133828450,-4,-4,-5,-3,7,1,4,-6
1526902133829447,-2,-6,3,1,4,-1,-6,3
1526902133829447,2,35,16,1,-4,3,18,10
1526902133851389,3,-24,-12,-3,0,-1,-8,-13
1526902133851389,3,0,-2,-3,-11,-6,-19,0
1526902133852386,-2,-7,-2,-4,8,3,-4,0
1526902133852386,-2,-4,0,1,-4,-4,-3,5
1526902133865351,-2,-1,9,2,4,4,9,6
1526902133865351,2,-3,6,1,4,1,4,-1
1526902133866349,3,9,3,3,-7,0,2,-9
1526902133866349,-1,-35,-16,-7,-3,-5,-9,5
1526902133888290,-2,54,24,5,-3,0,-13,-5
1526902133888290,-3,-27,-12,-4,-11,-12,-13,-4
1526902133889287,4,28,1,0,3,6,11,3
1526902133889287,-8,0,10,1,1,1,13,4
1526902133911228,6,-27,-16,-3,2,0,-2,-8
1526902133911228,4,27,11,-4,-2,-3,-8,-8
1526902133912226,-2,-2,-4,1,-2,-3,-12,-3
1526902133912226,0,-11,-1,-1,0,-1,0,0
1526902133926189,-5,-5,-5,-4,4,4,9,8
1526902133926189,0,7,3,1,2,4,5,1
1526902133926189,0,-12,-5,-2,-5,-2,-8,-39
1526902133926189,-2,22,9,3,1,-1,-8,1
1526902133948130,1,-33,-15,-2,-4,-8,-10,6
1526902133948130,3,-1,-4,-4,0,4,11,-6
1526902133949128,0,20,8,2,2,1,-9,1
1526902133949128,-2,-4,-10,-4,-4,-1,11,-7
1526902133971068,4,-47,-16,-8,-7,-6,-4,4
1526902133971068,-7,57,14,2,-8,-3,7,2
1526902133972066,1,-27,-6,-3,4,-4,-3,-2
1526902133972066,2,-2,-6,0,5,6,7,-4
1526902133986028,5,6,3,0,-3,-2,2,0
1526902133986028,-8,-36,-13,-2,-2,-4,-3,-5
1526902133986028,0,-8,-4,-3,-7,-6,-3,0
1526902133986028,0,32,19,7,2,0,-2,-3
1526902134007970,-5,-18,-11,-5,0,1,3,6
1526902134007970,1,-3,-4,-3,0,0,2,-9
1526902134008967,5,10,2,0,1,-3,-15,-8
1526902134008967,-1,-9,-6,1,-7,-1,2,-3
1526902134031906,-5,-2,-7,0,15,1,1,0
1526902134031906,1,12,8,1,-5,-2,-2,10
1526902134031906,0,-14,-10,-4,-5,-2,16,10
1526902134031906,2,-17,1,0,3,3,-12,-3
1526902134045868,0,7,-6,-3,-5,-5,-13,-17
1526902134045868,1,32,24,5,-3,-3,-13,4
1526902134046866,2,-14,-12,-2,1,0,5,-4
1526902134046866,3,5,1,-2,-1,0,0,3
1526902134067810,-5,3,-1,1,4,1,-2,-9
1526902134067810,-1,-40,-12,-2,4,1,-10,-1
1526902134068807,1,68,22,0,-10,0,0,7
1526902134068807,-1,-4,-6,0,4,-1,6,2
1526902134091746,-7,-11,-6,-2,-8,2,20,1
1526902134091746,0,-9,-3,-1,2,-2,-3,-3
1526902134091746,-3,23,12,3,2,-1,-2,0
1526902134091746,5,8,5,1,0,-1,-1,-2
1526902134105708,-9,5,9,2,-4,0,3,-1
1526902134105708,1,1,-10,-2,-5,1,7,7
1526902134106706,-6,-13,0,1,8,1,8,-8
1526902134106706,-3,-10,-9,-3,-2,0,-19,4
1526902134128647,4,-9,0,0,0,0,0,-8
1526902134128647,-11,-3,-5,-3,-19,-20,-11,2
1526902134128647,-2,-6,-5,-4,7,14,18,2
1526902134128647,-7,-2,-6,0,7,6,4,-4
1526902134150589,6,-10,-10,-4,-8,-5,-27,-4
1526902134150589,-5,10,5,-1,9,12,9,13
1526902134151586,-10,-28,-8,-4,-12,-11,-16,-28
1526902134151586,-4,12,3,0,-1,-6,0,10
1526902134165548,-1,2,-2,-3,1,0,3,3
1526902134165548,-7,18,5,2,-2,-1,13,2
1526902134166546,2,-68,-17,4,7,5,-5,1
1526902134166546,10,34,3,-1,0,5,8,-10
1526902134188487,-10,45,15,6,-2,-4,-9,4
1526902134188487,-4,-14,-6,-4,-14,-34,-22,0
1526902134189484,1,-1,0,-4,-2,18,72,15
1526902134189484,-4,-10,-6,-1,9,19,-10,-19
1526902134210428,7,-16,-10,-3,3,1,-15,1
1526902134210428,-7,-14,0,-2,-1,5,-1,1
1526902134211426,9,19,17,5,-5,-13,-15,3
1526902134211426,1,2,4,2,-13,-13,-1,8
1526902134225388,-7,-11,-6,-3,8,2,19,7
1526902134225388,2,1,1,4,15,12,6,-2
1526902134226386,4,-17,-17,-6,-10,-9,-26,3
1526902134226386,-6,-10,0,-1,-7,-5,-1,-18
1526902134248327,5,4,8,-1,-3,-2,-4,2
1526902134248327,1,-9,-4,-5,-9,-2,-7,-5
1526902134249325,0,13,-3,3,11,1,-4,0
1526902134249325,1,5,-5,-2,-3,1,9,11
1526902134270268,3,-3,6,4,-7,-7,-24,-5
1526902134270268,-7,20,-13,-5,12,5,21,1
1526902134271265,7,-10,-4,-8,-13,-2,-11,-5
1526902134271265,-8,-20,-10,-4,-3,-11,-10,-23
1526902134286226,-1,12,1,2,3,7,20,19
1526902134286226,2,-13,-3,-1,2,4,-15,0
1526902134286226,-1,14,2,-1,-4,-4,-10,0
1526902134286226,4,-2,1,-3,-2,-7,-7,0
1526902134308167,-9,-12,-3,-1,-9,-1,9,12
1526902134308167,5,-9,-9,-3,7,6,1,-19
1526902134309164,-6,6,6,3,5,5,6,0
1526902134309164,14,-7,1,1,0,-1,4,8
1526902134331106,-2,20,6,0,2,-3,-9,-16
1526902134331106,2,-8,0,-3,-15,-6,-15,6
1526902134331106,-1,-7,-6,1,7,2,16,2
1526902134331106,-3,6,1,-1,6,3,9,-5
1526902134346066,-4,40,20,3,1,2,-4,1
1526902134346066,1,-2,1,4,1,4,3,-7
1526902134346066,2,5,0,0,-3,-5,-4,6
1526902134346066,-5,-16,-5,-3,-6,-6,-18,13
1526902134368007,1,-7,-7,-2,3,0,12,-27
1526902134368007,1,6,11,5,-3,-3,-8,-9
1526902134369005,8,1,-5,-2,1,2,0,6
1526902134369005,-11,20,10,3,-1,0,-10,-11
1526902134390946,-2,-13,-8,-6,-1,-2,12,6
1526902134390946,4,0,-3,-1,0,-2,-2,-6
1526902134391943,-5,-31,-10,-1,-5,-3,-4,8
1526902134391943,0,16,7,0,2,0,-20,-5
1526902134404908,-1,-9,-3,-1,-1,0,12,1
1526902134404908,2,-31,-15,-4,2,3,-3,-7
1526902134412887,-3,27,18,3,0,-2,0,-4
1526902134412887,-1,-32,-17,-4,-10,-7,-11,8
1526902134427847,-10,7,3,-1,3,-1,-21,-25
1526902134427847,8,22,7,0,-2,2,11,32
1526902134428844,-3,-18,-7,-3,3,-1,-7,-43
1526902134428844,2,6,5,4,6,3,20,16
1526902134450786,1,-5,-6,-3,-12,-4,-10,10
1526902134450786,-3,-2,0,-6,-5,-2,10,-2
1526902134451783,4,4,3,5,-3,-4,-6,10
1526902134451783,-7,29,11,-1,0,-5,4,-3
1526902134464748,-3,8,-10,0,5,7,19,13
1526902134464748,4,-25,-8,-3,5,2,-4,-6
1526902134473725,-10,0,4,4,1,1,4,-3
1526902134473725,7,4,-2,-3,-5,-5,-13,-9
1526902134488684,-3,-10,-5,-3,1,2,7,21
1526902134488684,2,-14,-14,-4,-1,-6,-15,-6
1526902134488684,-6,-1,5,2,0,1,2,4
1526902134488684,-7,-10,-6,-3,-5,-8,-3,5
1526902134518604,-9,-4,3,-1,-2,9,1,0
1526902134518604,3,2,4,3,16,21,14,-10
1526902134519602,5,-2,-3,-4,4,13,8,15
1526902134519602,5,-34,-18,-9,0,11,-4,10
1526902134524588,-3,24,18,8,-9,-13,-5,-11
1526902134524588,-11,-9,5,2,-9,-20,-11,-8
1526902134533564,-2,21,5,-2,2,13,-4,1
1526902134533564,12,6,3,2,5,-6,16,-12
1526902134548524,1,-17,-17,-6,0,4,6,-5
1526902134548524,-2,35,17,7,3,12,8,14
1526902134549522,8,-24,-16,-6,-23,-31,-13,-14
1526902134549522,-10,25,9,2,19,10,-4,10
1526902134570466,2,-33,-8,-1,5,8,3,-6
1526902134570466,-2,39,29,6,-3,-1,7,1
1526902134571463,-1,-9,-14,-3,-2,0,1,5
1526902134571463,-6,-21,-4,-4,-7,-10,-15,-12
1526902134585425,0,48,13,-4,-5,-8,-12,2
1526902134585425,-14,-23,-11,-3,-1,-1,11,0
1526902134593404,8,20,1,2,-6,-11,-11,-6
1526902134593404,-3,-6,-2,3,3,8,5,-3
1526902134608364,0,-5,-3,-3,7,-5,4,13
1526902134608364,4,-7,-4,0,-12,-5,-5,-5
1526902134609362,-3,30,13,1,5,1,-4,-22
1526902134609362,-3,-5,-6,-2,-1,-7,-3,14
1526902134630305,1,2,8,3,-2,3,6,7
1526902134630305,8,-2,-5,-3,9,1,0,-1
1526902134631303,-2,-11,-4,-2,2,2,10,0
1526902134631303,2,3,1,1,-9,-1,-4,0
1526902134645265,2,-15,-9,-2,-2,-7,-12,-8
1526902134645265,-3,38,22,3,3,-2,-9,-6
1526902134653244,-3,-8,-6,-1,-2,3,15,1
1526902134653244,-3,1,1,-1,-12,-7,-8,-17
1526902134668204,-2,-2,3,1,7,1,3,1
1526902134668204,6,-16,-19,-7,-4,-1,-7,35
1526902134669202,2,10,4,0,0,-3,0,-25
1526902134669202,-10,14,8,2,-3,3,23,4
1526902134691143,2,-14,-9,-2,-2,0,-12,-10
1526902134691143,-4,-15,-6,-3,-10,-7,-3,-7
1526902134691143,-7,-3,-3,0,13,-1,-12,18
1526902134691143,4,3,0,-1,-2,6,14,11
1526902134714081,-3,-7,-1,0,-1,-4,-19,-10
1526902134714081,-4,-4,-5,-2,0,-2,5,-4
1526902134715079,0,-12,-1,0,-1,1,-3,3
1526902134715079,0,7,1,1,-1,-1,-2,-4
1526902134728044,-5,-3,1,-1,-2,-5,-10,-12
1526902134728044,4,-1,-3,-2,-3,2,26,9
1526902134729042,-4,-12,-6,-1,-12,-8,-29,-5
1526902134729042,6,-29,-12,-4,2,-8,9,10
1526902134750983,5,53,16,2,11,24,-1,0
1526902134750983,-2,-19,-5,-1,-2,4,4,-11
1526902134751980,2,-4,2,-3,-4,1,13,-26
1526902134751980,-5,3,-4,-1,-2,-2,-13,9
1526902134773921,1,-14,-9,-2,-9,-13,9,3
1526902134773921,11,32,17,0,3,-2,-19,-10
1526902134774919,-5,-1,-7,-5,4,8,21,13
1526902134774919,-3,5,2,4,-3,-3,-6,-7
1526902134787884,1,-15,-3,2,2,-2,-5,-3
1526902134787884,1,-7,-4,0,6,2,-2,-5
1526902134788882,3,-2,6,2,-2,-5,-18,-2
1526902134788882,-2,-10,-13,-10,-4,-3,-17,-11
1526902134810822,-1,7,12,2,-2,-2,19,19
1526902134810822,-1,-6,-5,-1,-6,-8,-8,-4
1526902134811820,0,-2,-1,-1,0,-2,-3,14
1526902134811820,-1,0,1,-4,6,5,2,-14
1526902134833761,0,-12,-4,6,-2,3,6,13
1526902134833761,-1,-9,-2,-3,-6,-1,-9,-2
1526902134834759,-4,-30,-9,-4,6,1,1,-7
1526902134834759,-3,54,19,5,-1,0,3,-1
1526902134847724,5,-10,-12,-6,-2,-3,-18,7
1526902134847724,-4,-20,-3,2,-3,-1,25,7
1526902134848722,2,38,7,3,-7,-6,-6,-12
1526902134848722,-2,-22,-1,-1,-7,0,-1,7
1526902134870663,3,-11,-11,-6,1,-7,-4,-8
1526902134870663,-2,-16,-9,1,3,2,-9,5
1526902134871660,4,14,2,-1,-1,0,-4,-7
1526902134871660,-5,-10,-8,-4,-3,-4,3,11
1526902134893601,-5,7,4,2,-2,3,10,0
1526902134893601,0,-30,-9,1,2,3,-6,-7
1526902134894599,-7,17,7,1,0,0,-3,2
1526902134894599,-2,-4,-1,1,-9,-6,6,1
1526902134908561,1,-16,-8,-8,3,0,-8,3
1526902134908561,1,5,-2,-1,0,3,2,-8
1526902134908561,1,-8,0,1,-3,-6,-8,0
1526902134908561,-2,1,4,0,4,-1,5,-8
1526902134930503,1,-2,1,2,-2,2,-16,4
1526902134930503,1,6,2,1,-1,2,11,1
1526902134931500,-5,5,1,-3,-13,-30,-3,12
1526902134931500,-3,-12,-5,4,22,35,7,0
1526902134954438,4,-10,2,-2,-4,-3,3,-11
1526902134954438,3,36,7,0,3,-2,-4,5
1526902134954438,1,-40,-15,-2,1,4,8,3
1526902134954438,4,0,6,2,-5,-8,0,7
1526902134968401,-2,16,10,1,-2,-3,-1,-5
1526902134968401,0,-16,-13,-5,0,2,-9,-20
1526902134969399,-1,6,0,-3,4,3,-5,9
1526902134969399,0,-3,6,1,-5,0,38,13
1526902134990342,-5,-9,-7,-4,-3,-4,-42,-22
1526902134990342,2,-1,2,-2,-11,-8,1,6
1526902134991340,6,1,0,2,11,7,-7,-10
1526902134991340,-4,5,-1,-2,1,1,-10,-12
1526902135014278,-2,5,2,3,-5,-5,17,8
1526902135014278,-6,-4,1,-4,0,-5,-6,-7
1526902135014278,1,2,1,-2,-5,5,3,10
1526902135014278,-3,3,2,1,-2,-5,-14,-11
1526902135028241,5,7,-8,0,1,3,-5,-13
1526902135028241,-1,2,6,3,0,1,8,0
1526902135029239,0,-5,-4,-4,-2,-1,-4,-3
1526902135029239,4,14,6,0,-4,-8,-1,-2
1526902135051180,-7,-35,-15,-6,0,-6,0,11
1526902135051180,0,-1,3,-2,4,7,22,-4
1526902135051180,1,10,4,0,-2,3,-6,-3
1526902135051180,-1,-20,-14,-2,-5,-6,-10,-5
1526902135074118,-1,-3,-3,-1,-2,1,-8,-1
1526902135074118,1,3,0,1,1,2,4,8
1526902135075116,-5,-11,-4,-4,-8,0,14,1
1526902135075116,-3,-11,-7,-5,10,0,-1,6
1526902135088081,-2,16,13,5,7,6,15,0
1526902135088081,3,-5,-6,-3,-1,-2,-29,-8
1526902135089079,-3,3,-1,0,0,2,16,1
1526902135089079,-4,2,-5,-3,-9,-7,-14,-6
1526902135111020,-3,-3,-4,-1,5,4,8,7
1526902135111020,-5,-3,4,3,-2,-4,-11,-9
1526902135112018,0,1,-6,0,2,3,-2,-1
1526902135112018,5,6,-2,-2,-2,-3,0,2
1526902135133958,-6,-22,-1,0,-3,-3,-2,3
1526902135133958,6,-16,-11,-2,1,-1,0,3
1526902135134956,-13,18,15,6,-1,-1,-4,-22
1526902135134956,-2,-28,-7,-1,1,0,-5,3
1526902135147921,4,16,1,-2,-3,-2,8,-4
1526902135147921,1,-2,-6,-5,-10,-2,-10,4
1526902135148919,1,-15,-4,-3,2,-4,-2,-7
1526902135148919,-1,1,-2,-1,-4,-1,3,2
1526902135170860,-2,9,6,0,-3,-2,-3,-6
1526902135170860,0,5,2,0,-3,-7,-19,-22
1526902135171857,1,0,1,3,4,2,5,16
1526902135171857,-3,7,3,0,-3,-1,6,-1
1526902135193798,4,7,8,3,7,4,-2,5
1526902135193798,2,-9,-8,-2,-2,5,16,-3
1526902135194796,-1,-5,-6,-3,-10,-5,-24,-10
1526902135194796,-7,-23,-15,-5,6,1,-1,-6
1526902135207761,-2,23,21,6,-5,-1,2,11
1526902135207761,0,8,-5,-3,-1,0,20,1
1526902135208758,6,-3,-2,0,-3,-2,-3,1
1526902135208758,-3,3,3,0,-1,2,5,7
1526902135230700,-2,-8,-8,-3,0,-2,0,-1
1526902135230700,-4,4,1,0,3,-4,-3,8
1526902135231697,2,-4,-3,-1,-1,1,-7,-5
1526902135231697,1,19,4,-2,-5,-3,-1,0
1526902135253638,0,-7,-5,-6,-13,-6,-2,7
1526902135253638,0,-3,-1,1,13,1,0,-9
1526902135253638,-1,-3,-2,-4,-4,2,8,15
1526902135253638,-6,-2,-3,-1,-2,2,12,-19
1526902135268598,1,-1,0,2,3,-3,-9,-11
1526902135268598,2,7,3,-1,-9,-4,-13,7
1526902135268598,3,-2,-5,1,3,1,6,-2
1526902135268598,-5,2,5,-1,2,-1,2,-7
1526902135290540,8,-21,-16,-6,3,2,0,11
1526902135290540,-4,26,27,8,-3,1,6,-11
1526902135291537,0,-2,-4,2,7,3,-1,0
1526902135291537,-3,2,-1,1,-3,-4,-1,1
1526902135313478,2,-9,-8,-5,4,-1,-5,2
1526902135313478,1,-3,-3,-1,2,-3,-7,4
1526902135314476,-2,4,-2,-3,-3,2,8,12
1526902135314476,-2,3,3,0,-2,1,-1,-7
1526902135327441,-5,8,3,-3,-3,-3,8,-8
1526902135327441,-4,-19,-12,-6,5,-1,6,4
1526902135335420,-2,4,7,4,-4,2,19,7
1526902135335420,1,-12,-6,0,2,-6,-24,-11
1526902135350380,0,4,0,-7,-10,-8,-7,-6
1526902135350380,-5,2,-3,1,-1,1,16,5
1526902135351377,1,7,6,2,1,-5,-23,-12
1526902135351377,5,-11,3,-3,-4,-1,2,17
1526902135373318,-1,25,14,9,14,7,14,0
1526902135373318,3,-22,-11,-4,-7,0,-2,-5
1526902135374316,-3,12,4,0,0,0,12,10
1526902135374316,-2,3,2,3,-3,-5,-34,-18
1526902135387281,-4,-3,3,-1,-4,-4,0,-5
1526902135387281,-1,-5,-5,1,4,4,8,8
1526902135395260,3,1,-2,-1,3,1,-9,0
1526902135395260,-1,-8,-10,-4,-5,-5,-10,-23
1526902135411217,0,1,-3,-1,-3,-3,-10,-4
1526902135411217,0,1,-2,-2,4,1,-2,2
1526902135411217,-1,-10,-1,0,0,3,13,8
1526902135411217,-1,2,-1,-1,1,1,9,9
1526902135433158,0,-10,-6,-5,-8,-5,-12,-8
1526902135433158,4,-6,-6,-2,-8,1,5,-2
1526902135434156,-6,3,-1,-6,-5,-5,-4,-9
1526902135434156,-4,9,3,1,9,7,18,18
1526902135447121,5,-4,0,4,-3,3,-12,-7
1526902135447121,-2,-11,-7,-2,1,-5,7,-15
1526902135456097,1,-8,4,3,3,-5,-19,-16
1526902135456097,0,9,-1,-6,-5,2,27,18
1526902135471057,2,-1,4,3,-1,-2,-15,2
1526902135471057,-2,-19,-15,-6,-1,2,-1,3
1526902135471057,-1,14,13,2,-5,-6,-14,-1
1526902135471057,-3,-4,-5,0,2,2,2,7
1526902135492999,-2,0,3,2,-3,5,21,-1
1526902135492999,8,14,6,1,4,1,-9,5
1526902135493996,-6,-22,-12,-3,1,3,18,2
1526902135493996,3,33,18,4,2,-3,-27,-13
1526902135507958,-1,-13,-6,-3,1,-7,-6,-10
1526902135507958,-5,1,1,0,-14,-2,-10,-4
1526902135515937,7,5,-1,-1,3,-1,-18,0
1526902135515937,-5,-7,0,2,-1,2,10,8
1526902135530897,-1,-12,-12,-6,-4,-1,22,-1
1526902135530897,0,18,8,2,6,-6,-33,-19
1526902135531895,-2,-6,-8,-4,-7,-1,8,12
1526902135531895,2,-4,1,-2,-3,0,-3,0
1526902135552838,-7,6,-1,0,2,-2,-1,1
1526902135552838,2,-5,1,-1,-2,1,0,-3
1526902135553836,-8,-4,-7,-3,-5,-2,4,1
1526902135553836,1,0,-2,-1,4,0,3,1
1526902135567798,4,-7,-4,-5,-2,-1,16,12
1526902135567798,2,-3,0,2,3,-3,-28,-30
1526902135575777,1,7,-3,-2,-1,0,4,0
1526902135575777,3,4,1,-2,-5,-4,-3,-7
1526902135590737,-2,12,3,-1,-5,3,11,6
1526902135590737,-1,-6,-1,0,14,1,14,11
1526902135591734,0,0,4,5,-1,0,-13,5
1526902135591734,-3,2,-5,-2,-3,1,-2,-6
1526902135613676,-1,-4,-3,-1,-1,-1,-5,0
1526902135613676,4,10,6,6,-8,-2,-4,-3
1526902135613676,0,-3,-5,-1,5,6,36,13
1526902135613676,1,-22,-12,-3,3,-3,-40,-6
1526902135627638,-3,45,27,2,-3,-6,-5,-19
1526902135627638,-6,-10,-6,-3,-1,-1,11,9
1526902135635617,2,7,-2,-1,4,-4,-22,-15
1526902135635617,-4,-2,5,4,-4,2,13,13
1526902135650577,3,-15,-12,-2,3,1,4,-5
1526902135650577,-6,-7,-10,-8,-11,-7,-17,2
1526902135651574,-4,-1,9,6,4,0,31,-8
1526902135651574,-4,13,-3,-4,2,1,8,1
1526902135673516,0,-15,-3,3,-3,0,-16,-6
1526902135673516,0,7,2,-2,2,0,18,6
1526902135674513,-5,-9,-9,-4,-2,0,-19,-2
1526902135674513,2,5,1,-3,-9,-6,-19,0
1526902135696454,-5,-9,-3,-3,3,3,26,5
1526902135696454,2,-16,-5,-2,-3,0,-9,-5
1526902135697452,1,21,17,4,-2,-2,-13,-9
1526902135697452,-6,-2,-2,3,1,1,4,-9
1526902135710417,-2,-5,-6,-1,-2,-3,-13,10
1526902135710417,0,-10,-1,-5,-9,0,10,5
1526902135711415,-1,-2,-5,-3,4,-4,-1,-4
1526902135711415,1,7,8,-2,-1,0,4,2
1526902135733355,6,-16,-4,2,-1,1,1,12
1526902135733355,-5,-4,3,0,3,1,-5,0
1526902135734353,-4,-24,-18,-8,-7,-3,9,4
1526902135734353,2,26,13,2,4,-2,-23,-18
1526902135756294,-1,-13,-12,-3,1,-2,-2,9
1526902135756294,0,-7,3,2,1,-1,-6,-3
1526902135757292,-3,1,-1,-2,-8,-3,-3,15
1526902135757292,-3,-12,0,3,7,-1,-1,8
1526902135770257,11,0,-5,-4,3,1,6,-19
1526902135770257,-3,0,2,2,-2,1,4,-1
1526902135771254,3,2,-3,-3,0,2,0,-6
1526902135771254,-6,17,1,1,-3,-3,2,2
1526902135793196,3,1,10,5,-4,-3,-8,-10
1526902135793196,4,-6,-6,-1,1,-2,10,4
1526902135794193,2,-1,5,6,5,-1,-3,-3
1526902135794193,-1,0,0,0,3,1,-17,-11
1526902135816134,-1,-8,-2,-2,-1,-2,-15,-14
1526902135816134,6,-2,-3,-2,-2,0,12,2
1526902135817132,-8,17,8,3,1,-4,-25,-4
1526902135817132,-1,-17,-5,-2,1,4,31,10
1526902135831094,5,-1,-7,-4,-9,-8,-15,-8
1526902135831094,1,3,4,1,9,3,-3,-4
1526902135831094,2,6,1,-1,-4,2,2,0
1526902135831094,2,1,3,3,-1,0,7,4
1526902135853035,-4,-13,-3,-4,-2,0,1,-4
1526902135853035,-1,1,-7,3,-13,-2,9,1
1526902135854033,3,-1,5,-1,3,1,13,6
1526902135854033,-4,-5,1,0,0,2,7,6
1526902135875974,-1,2,-2,-1,0,2,-5,-4
1526902135875974,0,-2,-7,-6,-8,-8,-11,-6
1526902135876971,3,-19,-10,-2,0,3,-1,0
1526902135876971,2,18,7,-2,-3,-4,-3,5
1526902135890934,-4,-8,-1,1,4,3,8,5
1526902135890934,-2,-8,0,-2,1,-4,-8,-13
1526902135891932,2,6,-9,-4,-4,1,12,-2
1526902135891932,4,-12,2,-1,-3,-4,-8,-3
1526902135912876,0,13,-7,-5,-2,-1,4,13
1526902135912876,-8,34,18,6,4,3,-5,5
1526902135913873,0,-11,-3,-3,-8,-4,-7,-23
1526902135913873,0,-16,-9,0,-3,2,16,1
1526902135936812,-4,1,4,1,1,0,1,4
1526902135936812,4,-9,-7,-3,-1,-5,-6,-16
1526902135936812,-1,8,8,0,-3,-3,-5,7
1526902135936812,-5,-8,-10,-6,-8,-6,-12,8
1526902135950774,2,-13,-5,3,7,6,9,-2
1526902135950774,4,10,1,2,3,2,-7,1
1526902135951771,-5,5,-1,-2,-8,-4,2,0
1526902135951771,-1,-3,-2,-4,5,-6,-7,-4
1526902135973713,2,7,10,3,8,5,6,4
1526902135973713,-5,15,7,4,-1,-3,-14,-19
1526902135973713,-3,-24,-19,-5,0,2,0,4
1526902135973713,-1,30,8,1,-7,-2,0,-2
1526902135996651,0,1,-7,-5,-5,-6,8,-1
1526902135996651,2,-3,7,3,6,1,-2,-2
1526902135997649,-4,-1,-3,-2,-3,-2,-5,1
1526902135997649,-4,-16,-14,-6,-3,0,11,7
1526902136010614,-1,-4,3,0,-2,-5,-19,-7
1526902136010614,3,-9,-12,-7,-5,3,18,3
1526902136011612,-5,8,-3,3,2,0,-2,2
1526902136011612,-7,-19,-5,-2,-4,2,-8,3
1526902136033552,-2,21,11,1,2,3,18,8
1526902136033552,2,0,-2,-2,-1,-2,-17,-1
1526902136034550,5,-15,-8,-2,-4,-7,2,-2
1526902136034550,0,-19,-6,1,4,4,13,2
1526902136056491,-2,13,7,-2,-3,-1,-3,2
1526902136056491,-1,-2,0,-2,-16,-4,5,2
1526902136057489,-3,0,4,1,18,5,9,7
1526902136057489,-3,-8,-7,-3,0,-3,-6,-12
1526902136070454,2,9,4,3,-1,1,3,-11
1526902136070454,3,-13,-9,-1,0,4,10,10
1526902136071451,-3,20,11,1,-9,-5,-16,-7
1526902136071451,2,-4,-4,-1,0,-2,15,-2
1526902136093393,-5,-9,-6,-2,3,4,19,15
1526902136093393,-4,-16,-7,-4,0,-4,-14,-25
1526902136094390,-3,16,6,1,-1,-3,-6,-1
1526902136094390,-2,1,3,4,2,1,-7,0
1526902136116331,-2,12,1,-2,-5,-4,1,-2
1526902136116331,3,10,3,2,3,-4,-4,3
1526902136117329,-3,-10,-3,-4,0,1,3,1
1526902136117329,0,-28,-7,-6,-3,-2,-8,-3
1526902136130294,-4,32,9,2,1,2,5,0
1526902136130294,2,-13,-4,-1,6,-1,5,8
1526902136131291,1,3,-7,-2,-13,-4,-14,-19
1526902136131291,1,13,8,2,8,5,16,22
1526902136153232,-4,-21,-5,-2,-4,-3,-30,-17
1526902136153232,0,-3,-7,-5,-5,-7,-10,8
1526902136154230,3,-8,-1,1,2,1,10,-4
1526902136154230,-3,1,-1,3,1,5,5,3
1526902136176171,5,-19,-5,-2,2,0,2,15
1526902136176171,-7,5,4,6,-3,-3,-15,-27
1526902136177169,2,-10,-3,-1,-1,-2,11,-3
1526902136177169,-2,25,15,-1,0,-2,-7,-7
1526902136191131,0,-5,-2,-1,2,0,8,2
1526902136191131,3,-11,-7,-5,-3,0,-2,6
1526902136191131,5,-7,-9,-4,-5,-3,-5,-2
1526902136191131,-2,39,12,4,5,-1,-10,-11
1526902136213073,-2,-12,-8,0,-4,-3,-4,-3
1526902136213073,8,-4,4,0,0,-1,5,0
1526902136214070,-5,-8,-2,-2,0,-3,-3,4
1526902136214070,3,-2,-1,-1,-7,0,6,11
1526902136236011,-3,-13,0,2,6,-1,-16,-22
1526902136236011,0,-2,-7,-1,0,3,10,22
1526902136237009,-1,-5,0,-3,-3,-5,-13,-3
1526902136237009,2,-17,-12,-20,-18,-3,5,-11
1526902136258950,-6,-4,-3,-10,-20,-5,2,7
1526902136258950,1,3,6,22,45,11,15,13
1526902136259948,-1,-3,-3,4,5,2,-10,-16
1526902136259948,2,0,2,5,5,-2,-11,-1
1526902136272913,6,-6,-4,-2,-5,-2,10,27
1526902136272913,-10,4,-2,0,-13,-7,-5,-26
1526902136273910,3,-13,-7,3,4,4,5,16
1526902136273910,1,25,9,4,3,-4,-10,-20
1526902136296849,7,2,4,-1,3,3,-1,4
1526902136296849,-4,-17,-10,-12,-9,-2,0,-20
1526902136296849,4,-4,0,-6,-5,-5,-2,12
1526902136296849,-7,1,-3,0,-2,1,1,11
1526902136309814,-2,3,2,2,3,6,18,-8
1526902136309814,6,11,14,1,-3,-4,-19,11
1526902136317793,-5,-5,-5,-3,-8,-5,-30,-49
1526902136317793,0,-13,-6,0,11,9,9,11
1526902136333750,-5,-3,-6,-5,-1,-4,-1,-6
1526902136333750,3,-6,-5,-22,-24,0,11,21
1526902136333750,-2,16,15,18,20,10,14,7
1526902136333750,-2,-20,-7,18,4,0,-19,-10
1526902136355691,-9,0,-2,9,0,-10,-11,-2
1526902136355691,6,15,6,1,-5,-1,13,15
1526902136356689,-5,4,-7,-16,-10,-2,8,1
1526902136356689,-4,30,8,1,0,-3,-4,-10
1526902136369654,-1,-23,-11,-5,-3,-3,-10,-16
1526902136369654,2,-31,-11,-11,-1,-4,2,-12
1526902136378630,-2,26,1,-1,-5,-1,4,10
1526902136378630,1,0,3,2,-6,-4,6,9
1526902136393590,-1,-13,2,-4,5,3,6,-2
1526902136393590,6,9,5,2,1,-3,-6,-16
1526902136394587,-6,6,-1,-9,-8,1,20,5
1526902136394587,2,-16,-15,-23,-15,-8,-10,8
1526902136415531,-8,6,6,27,9,4,-15,-17
1526902136415531,5,0,2,-1,0,4,4,1
1526902136416529,-1,2,9,23,15,4,3,17
1526902136416529,-1,-11,-2,-1,3,0,5,-10
1526902136430491,4,7,5,-1,7,0,2,22
1526902136430491,-4,14,2,7,-3,0,1,-15
1526902136438470,3,-12,-13,-14,-10,-4,-5,-3
1526902136438470,-7,-9,0,-8,-7,-3,1,15
1526902136453430,2,-12,-6,-6,-3,0,-7,-9
1526902136453430,-2,0,-5,-1,-9,-8,2,-11
1526902136454427,-1,21,13,-1,6,5,-7,10
1526902136454427,-4,-5,2,6,1,-3,2,-5
1526902136475371,4,-2,4,-3,4,3,26,9
1526902136475371,1,-18,-10,-1,-4,0,-21,0
1526902136476369,-5,13,0,-5,-3,-7,-20,-10
1526902136476369,-6,-4,0,6,3,2,8,4
1526902136490331,3,1,-3,-3,-3,1,-2,7
1526902136490331,-5,8,5,2,6,0,-6,-15
1526902136498310,1,-13,-2,4,1,-5,3,-6
1526902136498310,-1,8,2,-6,-6,0,0,2
1526902136513270,3,-2,-5,-15,-17,-9,-18,-23
1526902136513270,-3,-5,-2,3,3,8,2,8
1526902136514267,0,-7,-2,3,6,-1,-9,-8
1526902136514267,-2,-3,2,8,-3,1,16,10
1526902136536208,2,-1,-1,1,9,-8,-9,5
1526902136536208,0,-11,-9,-1,2,6,-1,-9
1526902136536208,-3,-7,-5,-8,-9,-5,9,-3
1526902136536208,-5,7,3,-2,-1,-1,-16,-3
1526902136550171,0,-8,-7,-6,-15,-1,16,2
1526902136550171,7,-8,-10,-4,2,-3,-4,1
1526902136558149,-6,-11,3,1,-3,2,-2,7
1526902136558149,-1,4,-8,-1,7,-1,-1,-9
1526902136573110,7,17,5,3,0,4,0,3
1526902136573110,-4,4,10,2,1,-4,16,0
1526902136574107,3,-1,-2,1,0,2,-17,-4
1526902136574107,-1,-3,-5,-4,-4,-5,9,-4
1526902136596048,-4,-12,-8,-2,2,-2,-27,-2
1526902136596048,9,19,8,0,2,4,30,13
1526902136596048,2,-5,3,5,3,1,-3,-1
1526902136596048,-3,-13,-4,-2,1,0,-2,3
1526902136618987,-2,2,-2,-2,-3,-6,-11,-23
1526902136618987,-2,-8,-2,-4,-2,2,9,11
1526902136619985,-3,2,-3,-6,-9,-12,-17,-8
1526902136619985,0,1,-2,-1,6,-1,2,-2
1526902136632950,4,-7,1,3,-5,2,6,-2
1526902136632950,3,-1,2,2,10,-2,-5,-2
1526902136633947,1,1,-1,-1,-13,0,3,15
1526902136633947,-2,-5,-2,-3,2,2,15,3
1526902136655888,11,29,10,-4,-3,-3,-8,4
1526902136655888,-18,-10,-1,2,0,-3,-20,-25
1526902136656886,6,-5,-7,1,0,1,20,7
1526902136656886,0,0,1,-5,-7,-6,-19,-17
1526902136678827,3,-16,-1,0,2,4,19,14
1526902136678827,3,8,-3,-1,-4,-3,-1,-3
1526902136679824,-10,4,5,0,1,-1,-9,-24
1526902136679824,6,10,13,3,-1,1,4,16
1526902136692790,-3,-12,-14,-6,-2,-2,1,0
1526902136692790,3,-2,-3,4,-2,-3,-6,1
1526902136693787,0,-6,0,4,-2,-1,-3,-6
1526902136693787,1,2,5,-1,3,6,12,1
1526902136715728,-7,-2,-2,-1,2,-4,-11,-2
1526902136715728,0,0,0,-2,-7,-4,-3,3
1526902136716726,-7,9,-1,-3,3,-1,5,-8
1526902136716726,5,-6,-1,4,5,0,1,8
1526902136738667,0,-1,-2,-3,1,5,3,-15
1526902136738667,0,-4,-7,1,-1,0,-25,0
1526902136739665,-3,2,0,-3,-7,-8,17,0
1526902136739665,-6,2,0,-5,-2,-5,-8,5
1526902136753627,0,-17,-8,-5,-20,-6,5,6
1526902136753627,0,18,17,1,13,-3,-8,-15
1526902136753627,0,-2,-7,1,8,13,1,10
1526902136753627,-1,-5,-6,0,9,0,-10,2
1526902136775568,7,-4,1,2,-10,1,24,15
1526902136775568,-5,-20,-12,-4,-12,-4,-18,-33
1526902136776566,3,-8,-4,-1,-2,0,4,10
1526902136776566,-1,3,5,-3,-1,3,5,-7
1526902136798507,-2,6,1,7,4,0,-22,-6
1526902136798507,2,-9,-2,0,4,0,11,6
1526902136799504,-5,1,1,-1,2,3,1,-2
1526902136799504,-5,1,-4,0,-12,-9,-16,-5
1526902136813467,-1,-10,-1,-2,17,-2,2,0
1526902136813467,7,9,2,-2,-15,4,9,-1
1526902136814464,1,2,5,2,7,2,9,8
1526902136814464,3,-7,-7,-2,-6,-1,-15,-21
1526902136835408,1,24,13,2,2,-1,-4,2
1526902136835408,-6,-12,-11,-4,3,-4,-4,2
1526902136836406,3,4,3,0,-7,-5,2,2
1526902136836406,0,-2,-1,-4,-4,-3,10,2
1526902136859344,0,-1,1,1,0,2,-8,-8
1526902136859344,-2,-8,-9,-4,4,4,-2,0
1526902136859344,-4,9,1,1,-2,-1,5,1
1526902136859344,1,0,-3,-1,-1,0,-9,3
1526902136873307,4,-10,-4,-2,0,-2,-4,-8
1526902136873307,-1,3,0,0,-4,0,17,14
1526902136874305,-4,-5,-3,-1,-1,-4,-14,-20
1526902136874305,1,-3,3,4,8,1,2,11
1526902136896245,0,14,-2,-4,-13,-5,-4,0
