timestamp,emg1,emg2,emg3,emg4,emg5,emg6,emg7,emg8
1526902232209345,-4,10,0,-1,16,17,0,3
1526902232209345,9,-3,-2,-2,2,13,0,0
1526902232210343,0,-11,-4,-2,-1,14,3,-3
1526902232210343,-2,7,-4,-3,1,-2,-3,-8
1526902232211340,-12,13,1,-2,-8,-3,-2,4
1526902232211340,-6,-5,-1,1,1,1,-5,-3
1526902232215329,8,-10,-1,0,5,-3,5,-4
1526902232215329,1,-17,0,2,-12,-16,18,2
1526902232221313,5,8,2,0,-1,2,-2,1
1526902232221313,-12,21,0,-3,-5,3,3,-4
1526902232230289,6,-8,-3,-2,-4,-4,-3,-2
1526902232230289,-8,-6,0,-1,-5,-19,-6,3
1526902232238268,-16,-15,-3,-2,13,22,1,-4
1526902232238268,12,-12,-1,2,8,-5,1,3
1526902232252231,-12,5,-2,1,-1,3,-2,-4
1526902232252231,9,15,-1,0,3,8,-1,5
1526902232261207,12,-3,0,-1,-6,-16,-1,-1
1526902232261207,-26,-17,-6,-5,-10,-5,-6,-3
1526902232276167,6,9,1,-3,2,-3,-5,-5
1526902232276167,-3,-10,-5,-1,-3,-2,-8,-3
1526902232283148,-7,-3,0,-2,-10,-9,-3,2
1526902232283148,-5,-4,-4,-1,0,-5,-1,0
1526902232296118,9,5,0,0,-4,-2,1,0
1526902232296118,-8,-9,0,-1,4,9,0,-4
1526902232338002,12,-12,2,-1,-5,-60,-6,0
1526902232338002,-1,-17,-5,0,2,7,5,0
1526902232338999,-24,-5,-3,-2,-2,-3,-4,-4
1526902232338999,21,17,2,-2,-9,2,2,2
1526902232341991,10,2,0,0,1,11,-1,-4
1526902232341991,-6,0,0,-1,-2,-7,0,2
1526902232342988,7,-15,2,1,-4,-11,0,0
1526902232342988,-17,26,-4,-8,10,8,-11,-11
1526902232348972,-20,-14,-3,1,-5,12,0,-2
1526902232348972,19,-1,-1,-2,-2,-5,-1,3
1526902232357948,7,-1,5,3,6,9,2,5
1526902232357948,-26,-23,-3,2,-6,-11,-1,-5
1526902232363932,11,11,1,-1,-7,-8,-2,-7
1526902232363932,1,-3,1,1,12,24,-3,-3
1526902232378892,6,13,-4,-4,-6,-8,0,0
1526902232378892,-4,9,4,-2,-4,18,-3,8
1526902232385873,6,-12,-2,2,11,12,5,1
1526902232385873,-9,-18,-7,0,-9,-11,-4,-4
1526902232408812,26,10,2,-1,6,3,4,10
1526902232408812,5,-1,2,3,-3,-5,1,-2
1526902232409809,-64,-12,-12,-10,-9,11,-12,-22
1526902232409809,-6,1,0,0,-4,-14,-14,3
1526902232424769,13,13,-2,1,-5,-9,25,5
1526902232424769,-7,-24,-3,0,2,-4,0,-6
1526902232424769,26,0,5,1,-2,-1,5,9
1526902232424769,23,11,2,0,1,1,1,7
1526902232446711,-16,-24,0,0,-17,-7,-8,-2
1526902232446711,23,24,6,0,17,-5,2,8
1526902232447708,-12,-23,-6,-1,12,12,4,4
1526902232447708,-14,11,-5,-4,-7,0,-1,-15
1526902232469649,15,9,6,2,4,-5,-5,3
1526902232469649,-6,-33,-3,2,-5,15,7,3
1526902232469649,5,26,0,-1,-4,1,-4,4
1526902232469649,-12,-6,-6,-5,1,-1,-1,-6
1526902232484609,3,3,0,0,-5,-2,-9,-5
1526902232484609,6,6,1,-3,-2,-9,-7,2
1526902232484609,-1,-12,0,-1,1,-6,0,3
1526902232484609,-9,-21,-3,1,0,17,3,-8
1526902232506551,-5,13,1,0,6,9,-1,-3
1526902232506551,-5,1,-1,0,-2,-6,0,-4
1526902232507548,24,3,-2,1,1,6,3,5
1526902232507548,1,0,1,-1,-3,-12,-7,-6
1526902232529489,-33,-21,-7,-4,-3,-9,-5,-1
1526902232529489,12,9,1,1,6,22,3,1
1526902232530487,8,10,2,-2,-3,-5,-1,2
1526902232530487,-8,-12,-1,-2,-4,-26,-8,-2
1526902232544449,4,4,3,4,5,2,15,0
1526902232544449,-4,-25,-4,-1,-7,-15,-1,-4
1526902232545447,2,17,-3,-3,-5,-3,-6,-3
1526902232545447,9,14,2,2,2,5,1,1
1526902232566391,-16,16,-3,-4,0,3,-8,-8
1526902232566391,11,-7,0,-1,-5,-21,-1,2
1526902232567388,0,-11,-2,-2,-2,0,-4,3
1526902232567388,2,3,-1,0,6,23,7,4
1526902232589329,-10,-8,-1,1,0,6,-4,-9
1526902232589329,2,3,-2,1,1,2,1,5
1526902232590327,2,-26,-3,-1,-3,-3,-4,-11
1526902232590327,-19,38,-2,-6,-8,-12,-1,1
1526902232604289,-16,-16,-5,-2,0,3,-3,-1
1526902232604289,4,-12,-2,-2,-4,3,-6,1
1526902232605287,35,21,1,2,1,0,6,6
1526902232605287,-14,-11,-3,-2,0,-3,1,-2
1526902232627228,-1,-3,-2,-2,1,2,-1,0
1526902232627228,-2,-7,-4,-4,-3,-3,-2,-1
1526902232627228,5,2,3,3,0,-1,2,0
1526902232627228,4,-13,-4,-1,-1,-7,-9,-4
1526902232649169,0,10,0,-3,0,8,8,3
1526902232649169,10,-3,-2,1,1,-3,2,-1
1526902232650166,-26,-8,-2,-1,-3,1,-1,-9
1526902232650166,13,10,1,1,-1,0,0,2
1526902232664129,-23,-31,-2,-3,-1,-1,-8,-3
1526902232664129,37,23,-4,-5,-4,0,-1,2
1526902232665127,-27,-9,-1,-3,-4,1,0,-6
1526902232665127,11,-13,3,3,-1,1,3,3
1526902232687068,-20,-10,-4,-2,-2,-13,-7,0
1526902232687068,0,2,2,2,0,7,4,-4
1526902232687068,-2,0,-3,-2,-1,-1,-3,4
1526902232687068,13,-1,-2,-4,-3,-4,1,1
1526902232709009,16,6,4,1,1,-3,1,4
1526902232709009,-26,-5,0,0,-1,-3,-6,-9
1526902232710007,4,-1,-1,0,-1,-4,-1,-1
1526902232710007,2,-1,0,-1,-1,2,2,3
1526902232723969,13,7,0,-1,-2,-1,-4,-1
1526902232723969,-13,-1,-3,-1,0,-2,-1,-2
1526902232724967,14,4,0,-1,1,4,1,-1
1526902232724967,-6,-13,0,1,0,-5,2,1
1526902232746908,10,10,-1,-1,-3,7,-7,-3
1526902232746908,-5,-3,-1,-1,0,-2,-1,3
1526902232747906,-6,-16,0,-1,2,12,-3,-3
1526902232747906,-1,8,-4,-2,-2,-3,2,-3
1526902232768849,6,-10,-5,-1,0,2,-2,0
1526902232768849,-13,11,2,0,0,-5,-2,-7
1526902232769846,12,-2,-4,-2,0,5,-2,0
1526902232769846,6,4,2,0,-1,-7,0,0
1526902232783809,1,19,-1,-1,-3,-3,-3,-6
1526902232783809,-16,-9,-5,-4,-2,1,0,-6
1526902232791788,25,-6,-1,0,-1,-7,-3,1
1526902232791788,-35,-3,-3,-2,-2,-10,-5,-9
1526902232806748,-9,-9,-3,-3,-4,-16,-3,-4
1526902232806748,39,-1,3,3,5,13,-3,6
1526902232807745,-36,7,2,0,-1,0,-3,0
1526902232807745,22,-9,-2,1,2,6,7,-3
1526902232829686,8,-4,2,-2,-2,-12,-2,1
1526902232829686,-27,-9,-2,1,1,-2,-3,-6
1526902232829686,9,4,-3,-1,1,4,-3,-2
1526902232829686,4,2,2,-1,-1,-20,-2,5
1526902232843649,-14,-10,0,2,2,-1,0,-1
1526902232843649,17,-11,-2,-2,-4,6,4,4
1526902232851628,4,27,-1,-3,-22,-14,1,-6
1526902232851628,-10,-8,1,0,19,20,-3,1
1526902232866588,-5,-11,-5,-2,0,2,11,-6
1526902232866588,23,23,3,1,-2,-17,-12,7
1526902232867585,-4,-3,-2,-2,1,-4,2,-6
1526902232867585,10,-7,1,0,-8,15,2,-5
1526902232889526,-9,10,-5,-2,-1,1,-3,-5
1526902232889526,-15,-25,-5,-3,0,-7,-3,-3
1526902232890524,-5,21,0,-2,2,28,0,3
1526902232890524,4,7,1,0,-8,-27,-10,-1
1526902232903489,8,-4,1,0,0,20,-4,1
1526902232903489,-15,-14,-1,-2,-3,-5,6,-3
1526902232911468,5,6,-4,-2,2,-7,-4,-4
1526902232911468,1,1,-1,-2,-4,6,1,2
1526902232926427,9,5,1,1,-4,7,-4,2
1526902232926427,-7,-17,-5,-1,-2,-25,-2,-5
1526902232927425,-9,5,0,-1,-1,-6,2,0
1526902232927425,12,10,3,1,0,8,1,5
1526902232949366,-3,-7,-1,0,0,-3,-1,-1
1526902232949366,-5,-6,0,-1,-3,9,1,1
1526902232950364,17,-9,4,5,6,-4,2,4
1526902232950364,0,16,-4,-3,-5,-1,-2,0
1526902232963329,-16,-1,-1,-1,-3,-2,-2,0
1526902232963329,7,4,1,0,0,4,1,-3
1526902232971308,-21,-42,-2,0,1,-12,-4,-5
1526902232971308,27,28,-1,0,-2,5,3,5
1526902232986268,11,4,2,1,1,0,3,5
1526902232986268,-9,-3,-5,-2,0,-6,-2,-4
1526902232987265,-13,-24,0,3,3,9,2,4
1526902232987265,6,9,0,-3,-3,-14,-4,-7
1526902233009206,-10,-4,-1,0,4,15,0,2
1526902233009206,19,15,3,0,-2,1,0,1
1526902233010204,-3,-15,-4,0,1,-4,0,-1
1526902233010204,-11,-25,1,0,1,1,0,0
1526902233023169,16,30,0,-1,-1,-8,-1,2
1526902233023169,-13,0,-2,-3,-1,1,-7,-4
1526902233032145,11,-3,-3,-2,-1,-5,0,0
1526902233032145,-11,-12,0,0,2,-4,-3,3
1526902233047105,17,9,2,3,7,29,12,3
1526902233047105,-12,1,-2,-1,0,6,-7,-1
1526902233047105,-3,15,-2,-3,1,-2,16,-1
1526902233047105,-15,-34,0,2,3,-16,-1,-3
1526902233069046,11,14,0,-1,-2,-8,-9,-1
1526902233069046,0,5,-4,-2,1,-2,3,2
1526902233070044,-1,-23,0,2,-5,3,-5,-2
1526902233070044,11,24,-3,-3,-4,3,0,4
1526902233084006,-16,-21,-1,-1,0,-7,0,-5
1526902233084006,16,12,2,3,-4,-7,2,1
1526902233091985,-4,-3,-4,-2,-1,5,-5,-6
1526902233091985,-1,-6,-2,-1,-1,10,1,-2
1526902233106945,-1,-5,1,0,-3,-19,-11,0
1526902233106945,8,10,1,1,3,11,2,-1
1526902233107942,-5,3,-1,-2,-1,-5,-5,1
1526902233107942,-7,-2,-1,-1,2,4,3,-4
1526902233128887,-1,-10,-1,-1,-13,-9,-1,0
1526902233128887,13,-5,2,0,23,8,4,1
1526902233129884,-11,3,-4,-3,-3,-5,-6,-8
1526902233129884,7,3,2,4,-4,2,-5,0
1526902233143847,-20,0,-5,-4,-3,-7,1,-4
1526902233143847,-15,-29,-3,-2,-9,-5,-1,-1
1526902233150828,30,21,0,0,-2,-2,-2,3
1526902233150828,0,-8,1,-1,3,2,-3,-3
1526902233166786,-10,-2,-4,-2,-1,-3,0,-6
1526902233166786,5,5,-1,-1,-4,3,0,-1
1526902233167784,24,12,4,2,4,4,1,4
1526902233167784,-33,-3,0,0,-5,-4,0,-3
1526902233189724,17,-2,-1,0,3,3,-1,0
1526902233189724,6,1,-4,-3,-5,-8,-3,-1
1526902233189724,-8,-8,0,-2,-1,-6,1,3
1526902233189724,22,-5,-3,-2,2,8,-3,-9
1526902233212666,6,11,2,-3,0,-14,8,3
1526902233212666,-25,-9,-3,-3,-2,8,1,-5
1526902233213660,5,-7,1,1,-2,-1,-3,3
1526902233213660,-7,-7,-1,0,-1,-22,1,2
1526902233226625,-3,6,-1,0,1,13,0,4
1526902233226625,9,-5,-3,0,-4,-4,-1,-2
1526902233227623,6,13,5,2,2,-1,1,-2
1526902233227623,-9,-8,-3,-1,0,5,-1,3
1526902233249563,-12,-12,-2,1,-1,-5,-5,-3
1526902233249563,2,14,1,1,-3,-13,-2,1
1526902233249563,-6,-26,-11,-1,2,18,-3,-4
1526902233249563,3,21,1,-6,-1,-1,-1,0
1526902233272502,11,-13,1,-1,2,3,-1,2
1526902233272502,-9,-13,-3,-1,-2,-1,0,-3
1526902233273500,-4,-6,0,-2,-1,-7,-2,1
1526902233273500,4,22,1,-1,0,3,1,3
1526902233286465,-4,-19,-4,-4,0,-1,-3,-1
1526902233286465,-16,-4,2,0,-1,2,-4,-6
1526902233287462,0,2,-8,-5,-4,-11,8,-1
1526902233287462,4,-9,4,4,2,7,1,2
1526902233309403,-3,-1,-2,-3,0,-3,-6,-3
1526902233309403,5,-3,-2,1,-1,-4,3,3
1526902233310401,-12,-3,-1,-1,0,14,0,-2
1526902233310401,11,-3,-4,-2,-2,3,3,5
1526902233331345,4,13,4,-1,-5,-16,-4,-4
1526902233331345,19,17,1,-1,1,9,0,6
1526902233332342,-16,3,2,1,-4,1,-3,-1
1526902233332342,-7,-11,-3,-1,-2,-1,0,1
1526902233355281,9,0,-2,1,4,5,2,-2
1526902233355281,16,-31,-6,-3,0,-4,0,-3
1526902233356278,-3,43,0,-7,-4,-11,-8,0
1526902233356278,-10,5,3,2,0,5,1,1
1526902233368246,23,-2,5,2,-2,-1,-1,0
1526902233368246,-22,-3,0,-2,-1,-14,-10,-5
1526902233377222,11,-6,-2,-2,-1,2,10,-2
1526902233377222,6,-14,-4,0,-3,-3,3,1
1526902233392182,-10,-7,-4,-1,1,5,-3,-4
1526902233392182,4,11,-2,-3,-2,0,0,3
1526902233392182,6,-18,1,3,0,-4,-7,-2
1526902233392182,-14,14,0,-5,-3,-14,-11,-7
1526902233415121,11,10,1,1,0,14,-7,1
1526902233415121,-24,-10,-3,0,-3,0,1,-5
1526902233416118,21,12,5,3,0,-5,-1,4
1526902233416118,-16,-16,-3,-2,-1,1,1,-1
1526902233429083,-22,-24,-6,-3,0,0,-2,-5
1526902233429083,2,13,-5,-5,-5,-14,-6,-1
1526902233437062,0,-1,1,-2,1,12,-1,-3
1526902233437062,7,6,-4,0,1,0,-1,-4
1526902233452022,12,3,-1,-1,-2,-2,3,3
1526902233452022,-25,-12,1,2,2,4,-3,-7
1526902233453020,3,-1,-2,0,-1,-20,-1,-1
1526902233453020,10,-5,-4,-3,0,17,0,-1
1526902233474961,-13,0,2,2,-3,-4,-1,-2
1526902233474961,31,15,-1,-1,-2,3,4,0
1526902233475959,-4,-9,-2,-3,-1,-2,-7,-2
1526902233475959,-19,2,0,-1,-2,1,7,-2
1526902233488923,11,4,-2,0,-3,-5,-10,3
1526902233488923,3,2,0,-1,1,19,5,0
1526902233496902,-17,-20,-2,0,-1,1,1,-4
1526902233496902,2,-2,-6,-5,-5,-1,-5,1
1526902233511865,-12,-6,-1,0,0,-20,1,-3
1526902233511865,6,7,7,6,2,-1,-3,0
1526902233512860,21,11,-2,-1,-1,-1,-2,-1
1526902233512860,-16,-25,0,1,-3,-4,-7,-5
1526902233534801,17,11,-2,-4,-3,3,-1,-4
1526902233534801,-6,2,-2,-4,-1,-3,-4,1
1526902233535798,-5,-6,-2,1,1,-4,2,-4
1526902233535798,4,-2,-1,-1,-1,-14,-5,-1
1526902233548763,-8,-7,2,1,3,4,-3,-2
1526902233548763,4,-3,3,4,3,17,10,3
1526902233556742,-9,-16,-3,0,-1,3,-1,3
1526902233556742,-29,23,-3,-3,-1,-4,0,-8
1526902233571702,-8,-19,-4,-1,-3,-1,1,-1
1526902233571702,8,5,-1,-4,-4,-5,-4,-1
1526902233572699,2,-7,1,0,-3,-6,-8,4
1526902233572699,-1,6,3,4,0,-23,12,-4
1526902233594641,11,16,1,3,3,17,8,5
1526902233594641,-1,-18,-1,-2,1,-27,-5,-2
1526902233595638,-14,7,-2,-2,-3,5,15,-4
1526902233595638,10,-6,0,0,0,3,-6,2
1526902233608603,-2,3,-2,-1,-1,-14,-1,-3
1526902233608603,-11,-10,-3,0,-2,15,4,-5
1526902233616582,1,11,-3,-5,0,5,-10,-3
1526902233616582,15,-1,3,2,1,0,-2,5
1526902233631542,-12,-14,-2,-2,-3,4,4,0
1526902233631542,-6,-2,-4,0,-2,5,-4,-3
1526902233632539,14,13,4,2,-2,-10,-1,1
1526902233632539,0,9,6,1,4,16,3,1
1526902233655479,13,-11,-1,-2,-3,-10,2,1
1526902233655479,5,5,-6,-6,-3,-9,-3,2
1526902233655479,-24,-10,-3,-2,-3,-2,-1,0
1526902233655479,1,-7,-1,4,1,-2,-3,0
1526902233668443,1,-12,2,2,2,6,-1,-4
1526902233668443,14,27,4,1,-2,-16,-3,4
1526902233676422,0,-7,-6,-3,1,18,-2,-2
1526902233676422,6,-5,-1,-5,0,5,0,1
1526902233691382,-17,15,-3,-5,-4,-4,-5,-5
1526902233691382,15,-14,2,4,1,7,4,7
1526902233692380,-10,10,-1,-3,-2,7,-10,-7
1526902233692380,-8,-4,-1,-1,-1,-16,-12,1
1526902233715318,7,-1,0,-1,0,0,9,-2
1526902233715318,1,-9,0,-2,0,7,0,-2
1526902233715318,-5,0,-2,1,3,-2,1,-2
1526902233715318,3,3,1,1,0,6,-2,-1
1526902233737259,2,6,-2,-4,-25,-13,-4,0
1526902233737259,-11,-1,-3,-2,14,-13,-4,-4
1526902233738257,12,7,3,1,2,16,-4,5
1526902233738257,-5,-14,-4,-3,0,2,14,-1
1526902233752219,10,3,-1,2,0,-5,-3,0
1526902233752219,3,7,-1,-1,-6,-1,-1,-2
1526902233752219,-13,3,3,1,-2,-12,-1,-1
1526902233752219,-3,3,0,2,-2,0,-4,-1
1526902233775158,1,-9,-2,-3,4,5,-2,-1
1526902233775158,-10,-22,-2,-1,-2,0,-1,-3
1526902233776155,11,18,0,1,2,-6,4,3
1526902233776155,0,0,-3,-3,-6,1,0,4
1526902233797099,-12,1,1,-1,4,-1,-4,-6
1526902233797099,-9,-3,-1,0,-3,5,-3,-4
1526902233798096,-1,-16,-1,-1,-4,-10,-1,-5
1526902233798096,14,4,2,2,2,5,-1,-2
1526902233812059,2,-6,-2,0,0,-8,-5,1
1526902233812059,2,6,-1,0,-3,16,0,4
1526902233812059,-12,-8,-1,0,-3,-21,15,0
1526902233812059,-6,-8,-6,-5,-2,4,-1,-4
1526902233834998,8,13,0,-1,3,10,1,0
1526902233834998,4,-2,0,0,-4,-7,-3,-3
1526902233835995,3,-13,0,2,3,-2,-4,0
1526902233835995,-21,-10,-2,0,1,-2,-3,-2
1526902233857937,25,4,5,0,0,-3,2,4
1526902233857937,-12,-1,-8,-6,-2,-1,0,0
1526902233857937,-2,-5,-3,-3,-1,0,-4,-5
1526902233857937,-4,-6,-2,-2,0,-4,-1,-3
1526902233871899,-3,-17,-4,-1,-2,-7,-3,1
1526902233871899,28,17,9,3,2,15,0,-1
1526902233872897,-34,-9,-8,-2,-1,1,-1,-3
1526902233872897,17,3,-1,-1,-1,1,-1,1
1526902233894838,-15,-10,0,1,1,1,0,-2
1526902233894838,9,-7,0,3,-1,-4,4,4
1526902233895836,22,6,7,-1,-3,-4,-1,1
1526902233895836,-17,9,-12,-7,-4,2,-3,-1
1526902233917776,-7,0,0,-1,1,2,-1,-5
1526902233917776,-19,-25,-2,1,-2,-8,1,-4
1526902233917776,37,29,4,-2,0,4,-1,7
1526902233917776,-3,-23,0,-1,0,-4,0,-2
1526902233931739,11,17,7,1,1,-3,1,2
1526902233931739,-33,-12,-9,-2,-3,4,1,0
1526902233932737,11,-4,8,2,3,2,-1,-2
1526902233932737,-8,2,-5,-2,-2,-1,-1,-3
1526902233954678,12,-1,1,1,-2,6,-3,1
1526902233954678,15,4,3,1,0,-8,0,-1
1526902233955676,-8,-1,-2,-1,-1,-5,-1,-1
1526902233955676,-12,-8,0,2,0,-8,1,1
1526902233977617,-10,2,-3,-5,-1,12,0,-4
1526902233977617,-9,-5,2,-2,-2,-2,-4,0
1526902233978614,21,-3,-8,0,-2,-2,3,-1
1526902233978614,10,2,5,1,1,6,-1,-3
1526902233991579,-12,12,2,-3,1,-5,0,-2
1526902233991579,-17,-8,-4,-2,-3,-12,2,4
1526902233992576,-26,-9,-2,0,0,13,-3,-5
1526902233992576,22,8,1,0,-2,-2,-3,2
1526902234014518,0,8,-1,0,-3,0,0,-2
1526902234014518,-23,-18,-5,-3,-2,0,-5,-6
1526902234015515,17,7,-1,-1,-4,-32,-4,-1
1526902234015515,7,9,4,1,0,4,5,3
1526902234037456,-4,-4,-4,-3,-3,-3,-4,-5
1526902234037456,2,9,-3,-1,-1,-2,-1,-1
1526902234038454,-23,-27,-4,0,1,6,1,-2
1526902234038454,25,26,1,-1,1,4,0,-2
1526902234051419,-7,-11,-3,-1,1,-2,1,5
1526902234051419,16,-7,-4,-2,-3,-4,-1,0
1526902234052417,-20,9,-1,-3,-6,-4,-2,-6
1526902234052417,-4,2,5,3,2,12,-1,0
1526902234075355,-9,-13,-7,-2,-1,2,-9,-3
1526902234075355,14,12,1,0,1,-4,0,-4
1526902234075355,19,-16,-3,-2,-1,10,0,4
1526902234075355,-36,1,-4,-4,-5,-12,-7,-8
1526902234097296,0,15,-1,-2,-1,0,3,3
1526902234097296,-6,-1,2,1,0,-2,-2,-5
1526902234098294,-1,-9,1,-1,1,-3,-10,4
1526902234098294,-4,-3,0,-2,2,56,0,0
1526902234111259,0,-18,-6,-4,-11,-51,-8,-5
1526902234111259,11,18,0,-3,-5,0,10,-5
1526902234112256,1,20,1,2,2,5,0,3
1526902234112256,7,-1,5,5,0,0,-2,-1
1526902234135195,5,0,-1,2,6,27,-2,-1
1526902234135195,4,-1,1,-2,-1,-3,-2,3
1526902234136192,6,3,-1,-1,-2,0,5,3
1526902234136192,1,-8,-6,-2,-1,-23,4,1
1526902234157136,0,-12,-2,-1,-1,-1,3,0
1526902234157136,-6,8,-1,-1,0,-5,-3,-1
1526902234158134,-3,11,4,0,-1,3,3,1
1526902234158134,-39,-24,-4,-3,-4,-16,-2,-4
1526902234172097,33,24,2,-1,2,18,4,6
1526902234172097,-21,-18,-3,0,-2,10,-5,-6
1526902234172097,9,3,-2,-3,-1,2,-7,0
1526902234172097,18,-8,-2,-2,-4,-16,4,0
1526902234195035,-25,-3,0,1,1,3,-1,-2
1526902234195035,5,2,2,0,-2,-1,10,0
1526902234196033,-4,-13,-4,-3,-6,-7,-5,1
1526902234196033,19,4,-1,0,0,-6,-2,-6
1526902234216976,-6,-11,-1,0,-1,1,1,-2
1526902234216976,14,6,-1,-3,1,7,-4,5
1526902234217974,1,4,2,3,1,-14,-1,0
1526902234217974,-2,-14,-5,-2,-2,12,-1,-3
1526902234231936,-9,13,0,-1,-1,1,2,2
1526902234231936,-4,2,-1,-1,-1,-11,-4,-1
1526902234232934,-10,-10,-3,-2,-1,4,5,-1
1526902234232934,18,10,8,3,2,-6,-1,6
1526902234254875,-7,-13,-3,-1,0,-4,-3,-9
1526902234254875,12,19,1,1,2,3,-2,5
1526902234255872,-25,-18,-7,-4,-1,4,-1,-10
1526902234255872,29,36,2,-1,-1,-4,-1,4
1526902234277814,-22,-19,-1,2,-1,-4,-1,-3
1526902234277814,4,-6,-2,0,-1,7,1,-3
1526902234277814,22,24,-2,-3,-3,1,-2,7
1526902234277814,-17,-5,0,-1,-3,-6,-7,-2
1526902234291776,8,3,9,5,6,0,6,2
1526902234291776,-7,-11,-4,-2,1,-11,-15,-6
1526902234292774,12,21,0,-1,0,-33,9,-5
1526902234292774,-4,-10,-1,0,-1,-8,0,-1
1526902234314715,1,-6,-4,-2,-2,-3,-7,0
1526902234314715,-8,-9,1,3,-2,3,-3,-1
1526902234315712,-1,-5,2,1,1,-2,1,-1
1526902234315712,8,12,-3,-4,-1,9,-1,-1
1526902234337653,0,3,4,1,0,-2,4,1
1526902234337653,10,13,2,0,0,-7,2,4
1526902234338651,-22,-28,-7,-1,-4,5,-6,-5
1526902234338651,24,4,2,2,4,14,5,4
1526902234351616,-9,-1,-2,-1,-2,7,-5,-4
1526902234351616,-10,2,1,0,-1,1,1,1
1526902234359595,-20,-7,-5,0,-3,-2,-3,-8
1526902234359595,-2,-5,-2,1,2,-5,0,3
1526902234374555,20,-8,-1,-2,-2,1,-2,-4
1526902234374555,-7,21,2,-2,-3,-15,11,0
1526902234375553,3,-9,2,2,0,-19,0,0
1526902234375553,-3,-9,-1,-3,3,-3,-8,0
1526902234397493,5,11,-3,-1,-4,-10,7,-3
1526902234397493,-15,-13,-1,1,1,8,-5,-4
1526902234398491,-3,-9,1,1,-1,-3,7,-2
1526902234398491,8,23,3,1,0,11,2,4
1526902234411456,8,-6,-3,-2,-1,0,0,8
1526902234411456,1,-8,-3,-5,-4,-1,-1,-4
1526902234419435,-6,8,4,0,0,8,-3,4
1526902234419435,1,-2,-1,0,-3,5,-5,1
1526902234434395,-32,-1,-7,-4,-5,-11,4,-9
1526902234434395,19,5,-1,0,-1,9,0,-2
1526902234435392,7,-7,-2,-3,2,12,-2,7
1526902234435392,-34,-22,-4,-5,-6,-11,-4,-9
1526902234457333,11,4,0,0,1,6,-4,1
1526902234457333,-15,-23,-6,-2,-1,-7,-2,-4
1526902234458331,27,16,3,3,1,9,1,3
1526902234458331,-31,-14,-8,-3,-3,-8,-3,-7
1526902234471296,25,8,4,2,1,0,-1,6
1526902234471296,-15,2,-4,-2,-3,-2,-1,-5
1526902234479275,-5,-10,1,-1,0,9,-2,1
1526902234479275,-9,-8,4,2,0,-1,4,0
1526902234494235,1,-1,-4,0,-2,1,-1,-2
1526902234494235,1,-4,-2,0,1,2,-1,4
1526902234495233,1,17,-2,-5,-5,5,-4,-2
1526902234495233,-19,-21,-3,-2,-3,-31,-5,-11
1526902234517173,24,3,-2,0,1,-7,-14,-2
1526902234517173,10,16,7,4,6,23,8,5
1526902234518171,14,12,0,-3,-9,-23,-7,-7
1526902234518171,-9,-8,-7,-4,-4,5,5,2
1526902234531136,-7,-18,-2,-2,-1,-3,-5,-3
1526902234531136,-1,12,0,-2,-2,-7,-2,2
1526902234539115,9,12,6,2,3,6,-4,-2
1526902234539115,4,-5,0,1,0,1,-1,0
1526902234554075,-16,-29,-12,-2,0,1,4,-3
1526902234554075,-14,8,-3,-2,-3,-6,-2,0
1526902234555072,-20,-16,-4,1,2,6,4,0
1526902234555072,16,8,2,-2,-1,-2,-1,-1
1526902234577013,-7,2,1,1,1,5,3,4
1526902234577013,22,-6,0,-4,-3,-2,-1,-1
1526902234578011,-5,11,-1,-2,-2,-10,-3,5
1526902234578011,-6,-9,5,4,5,18,3,-2
1526902234590976,10,18,2,-2,-1,-3,0,0
1526902234590976,-1,-5,-4,-2,0,4,-3,-3
1526902234598955,-11,-10,-2,0,1,3,-4,2
1526902234598955,22,8,1,-1,-2,-11,3,1
1526902234613915,-7,11,-1,-4,-4,-1,-1,1
1526902234613915,-8,-21,-1,-2,-15,-14,-7,0
1526902234614912,-4,-2,-1,2,13,23,3,-4
1526902234614912,-1,9,2,0,-2,0,6,0
1526902234637851,11,-11,-3,-1,5,4,3,3
1526902234637851,-4,4,0,3,-5,-10,-2,0
1526902234637851,-21,-15,-4,-3,-4,-3,1,-4
1526902234637851,-1,8,-2,-1,0,3,-5,0
1526902234659792,-8,-7,-1,1,-3,-4,2,-1
1526902234659792,13,-7,-5,-2,3,3,6,5
1526902234661787,23,24,1,-3,-4,-10,-5,-7
1526902234661787,-28,-19,-3,-3,2,11,-2,1
1526902234674752,20,20,4,1,-2,0,-2,-4
1526902234674752,-17,-18,-5,0,2,4,-3,-5
1526902234674752,-3,-7,0,0,0,0,1,0
1526902234674752,17,13,-3,-3,-6,-11,-3,3
1526902234697691,-14,-15,-4,-2,-2,-1,-3,-7
1526902234697691,3,-2,-1,2,2,0,-2,-4
1526902234698688,-22,-7,-2,-3,-2,6,-7,3
1526902234698688,8,-11,-4,-4,-4,9,6,-1
1526902234719632,5,9,-1,0,0,4,0,-2
1526902234719632,-7,7,3,0,0,13,-3,-4
1526902234720629,-17,-29,-8,0,-1,-2,-2,-4
1526902234720629,38,41,6,2,-1,-2,-4,6
1526902234734592,-29,-26,-6,-1,1,-3,0,-1
1526902234734592,0,-18,0,1,1,0,1,-2
1526902234734592,31,41,5,-2,-2,-3,4,4
1526902234734592,8,-8,4,1,1,-1,0,4
1526902234757531,7,3,4,4,-3,-7,-4,-6
1526902234757531,-1,3,-3,2,2,-5,-2,0
1526902234758528,7,-16,-2,-2,-2,2,0,0
1526902234758528,-42,-25,-9,-3,-1,-19,-3,-4
1526902234780469,21,29,3,-3,-2,16,2,4
1526902234780469,-14,-12,0,0,1,1,-4,-3
1526902234780469,7,9,-3,-3,-2,-4,3,1
1526902234780469,3,-5,-2,-1,-1,4,-1,5
1526902234794432,-13,-8,-1,-1,-2,-6,-3,-3
1526902234794432,24,19,4,-2,-2,-4,0,4
1526902234795430,6,4,0,1,1,5,-4,2
1526902234795430,-11,-1,-1,1,-2,-20,3,-9
1526902234817370,-8,-24,0,0,6,18,1,-1
1526902234817370,30,42,2,-4,-2,-4,16,7
1526902234818368,-22,-15,-3,1,-3,-7,-8,-6
1526902234818368,-2,-10,-3,0,-1,10,-4,-6
1526902234840309,23,-3,-5,-3,-1,-5,-1,0
1526902234840309,-22,0,-5,-3,-2,-6,-1,-2
1526902234840309,0,-2,1,1,-2,0,3,1
1526902234840309,-5,7,3,1,2,3,1,3
1526902234854272,10,8,-4,-5,-4,-5,0,3
1526902234854272,-4,-14,-2,-3,-1,4,-5,-1
1526902234855269,-18,3,-1,1,1,19,-1,2
1526902234855269,13,-5,4,5,-1,2,-8,-6
1526902234877211,15,6,5,2,1,1,13,-3
1526902234877211,-8,-6,-9,-3,-2,-10,-5,-10
1526902234878208,-11,-14,-2,-2,0,7,5,2
1526902234878208,10,23,2,-1,-1,1,-2,2
1526902234900149,7,2,2,-1,-2,-16,-11,0
1526902234900149,3,-1,0,3,5,17,4,3
1526902234901147,-4,-17,-1,-1,-4,-16,4,-6
1526902234901147,10,6,-4,-3,-1,4,-9,5
1526902234914112,-13,-1,-3,2,0,-7,12,-2
1526902234914112,6,1,5,2,1,-6,-1,2
1526902234915110,3,-6,-3,-2,1,2,0,1
1526902234915110,4,4,-1,-3,-4,-10,-2,0
1526902234937050,-36,-12,-5,-2,1,2,-6,-4
1526902234937050,4,-1,0,-2,0,-1,-4,-4
1526902234938048,1,-7,-2,-2,-3,-5,1,-2
1526902234938048,-8,-3,-3,-4,-1,-3,1,-2
1526902234959989,15,9,0,-1,-1,6,-3,-2
1526902234959989,-6,-8,-1,0,-1,-1,-1,-3
1526902234960987,-7,-2,0,1,0,-2,-7,-3
1526902234960987,16,1,-4,0,-1,-3,16,0
1526902234973952,-14,-5,0,-2,-4,0,-7,-8
1526902234973952,-16,0,-2,-1,-2,-10,-6,-4
1526902234974949,27,16,-2,-5,-4,-6,2,4
1526902234974949,-28,-31,-1,2,0,-8,-1,-8
1526902234997888,23,15,0,2,4,3,3,7
1526902234997888,3,-6,0,1,-3,8,4,0
1526902234997888,-20,-16,-1,-1,-5,-32,-4,-6
1526902234997888,17,19,-1,-1,1,3,-14,6
1526902235019829,-4,-18,-1,-4,-2,-5,6,-2
1526902235019829,-10,-3,-1,-1,1,-5,-3,-1
1526902235020827,-2,7,3,3,2,3,-1,1
1526902235020827,11,-5,1,1,0,5,-5,0
1526902235033792,-28,-7,-3,-1,-3,-4,-8,-3
1526902235033792,8,4,-4,-1,0,4,1,-1
1526902235034789,12,5,-1,-1,-1,8,-4,3
1526902235034789,-4,0,3,3,1,-11,3,-1
1526902235057728,-30,-25,-2,-2,-2,7,-5,-6
1526902235057728,45,31,4,1,2,4,6,9
1526902235058725,-32,-32,-9,-3,-1,-5,-8,-8
1526902235058725,12,17,0,-1,0,16,10,4
1526902235079669,-4,10,2,1,0,0,-7,1
1526902235079669,-3,-20,-2,0,-3,-30,-8,-3
1526902235080667,7,10,-1,0,2,0,5,1
1526902235080667,-13,-9,-2,-3,-3,-1,-2,-2
1526902235094629,3,-10,-2,-1,-2,-4,1,-1
1526902235094629,3,8,-3,-2,-2,8,0,2
1526902235094629,-13,-2,-1,-2,-1,3,1,-5
1526902235094629,6,3,-1,0,-1,-3,-5,1
1526902235117568,-13,-6,0,0,-2,-6,8,-6
1526902235117568,10,5,-1,-2,2,11,0,2
1526902235118566,4,-3,0,-2,-2,-2,6,3
1526902235118566,3,1,-1,-1,2,28,-4,-1
1526902235139509,9,11,-3,-6,-5,-26,-5,1
1526902235139509,2,-6,0,1,-1,-1,5,3
1526902235140506,-2,9,-1,-1,-2,2,-1,-4
1526902235140506,-10,-14,2,2,1,0,-1,-6
1526902235154469,13,7,-3,-2,-3,3,-5,1
1526902235154469,-9,-4,-7,-6,-2,-6,-5,-1
1526902235155467,7,18,3,1,2,18,-2,4
1526902235155467,-22,-21,-5,-3,-3,-7,0,-2
1526902235177408,22,2,1,2,2,1,-6,1
1526902235177408,-25,-13,-5,-3,-4,-14,9,-5
1526902235178405,8,1,3,0,0,6,6,1
1526902235178405,4,-6,1,0,2,-6,1,-2
1526902235200347,-6,13,-2,-2,0,5,2,3
1526902235200347,2,7,-4,-3,-2,5,-4,-4
1526902235200347,-4,-5,2,-1,0,-1,-3,0
1526902235200347,7,-6,-2,0,-6,-20,-3,2
1526902235214309,0,9,-3,-2,17,18,-4,-3
1526902235214309,-11,-16,0,4,9,13,0,-2
1526902235215307,11,8,-2,-1,-4,2,-4,1
1526902235215307,5,8,-3,0,5,2,-3,-4
1526902235237248,-2,-21,0,1,-13,-21,-7,2
1526902235237248,0,11,-1,-5,-8,12,14,2
1526902235238245,-3,-4,1,-2,8,21,-10,0
1526902235238245,-10,-7,-2,-2,-13,-6,11,-6
1526902235260186,18,6,5,2,1,0,0,-4
1526902235260186,-6,-16,-2,2,1,-17,-7,-2
1526902235261184,-11,9,-2,-2,-4,2,0,1
1526902235261184,-17,-8,-2,-5,2,2,-4,-6
1526902235274149,6,-9,-3,-2,-2,-2,2,0
1526902235274149,0,23,2,0,2,4,-8,-1
1526902235282128,-4,-5,0,2,-4,-9,4,4
1526902235282128,29,36,2,-2,1,-13,-3,8
1526902235297088,-34,-36,-5,-1,1,16,3,-7
1526902235297088,6,0,-1,-1,-7,-3,-7,3
1526902235298085,8,-2,-1,1,2,-9,4,1
1526902235298085,9,3,1,-2,-2,1,0,0
1526902235320027,6,10,-1,2,2,4,-5,6
1526902235320027,-1,-10,2,3,1,-3,10,3
1526902235321024,5,-1,-2,-3,-2,-7,1,-3
1526902235321024,-11,-15,-2,-2,3,4,-2,-4
1526902235333989,15,10,7,1,-1,0,0,-2
1526902235333989,9,14,1,-1,-3,-2,-5,-3
1526902235341968,-19,-15,-4,-2,1,-5,-1,-5
1526902235341968,13,10,3,2,-2,-8,-2,-2
1526902235357925,10,-3,-6,-3,-3,8,5,8
1526902235357925,-22,-13,-3,-2,-1,-5,-6,-11
1526902235357925,18,18,2,0,-3,-6,0,-1
1526902235357925,9,-6,-3,0,0,4,0,3
1526902235379866,18,11,4,-1,-1,-2,4,5
1526902235379866,3,9,1,4,3,1,-3,-6
1526902235380864,3,3,0,1,-3,3,-1,1
1526902235380864,-66,-50,-9,-2,-1,-3,1,-4
1526902235393833,18,0,-3,2,2,-2,1,3
1526902235393833,0,-10,1,-3,-2,13,0,2
1526902235401808,-4,-12,-3,-3,-3,-33,-6,-6
1526902235401808,44,30,-1,-1,3,6,2,7
1526902235416768,-43,-31,-6,-5,-3,-2,-3,-9
1526902235416768,-1,3,-3,-7,-3,0,-6,5
1526902235424746,-13,0,1,2,2,11,-3,-5
1526902235424746,19,-4,0,3,1,15,1,-5
1526902235439706,-10,-3,-2,-5,-5,-2,-4,-2
1526902235439706,11,12,-1,-4,-2,-8,-1,3
1526902235440704,0,-1,0,0,1,4,2,6
1526902235440704,-28,-14,-3,-4,-1,-11,-3,-3
1526902235453669,13,-3,-2,2,3,14,2,-2
1526902235453669,-27,14,1,-1,-3,-3,-2,-2
1526902235462645,23,12,-1,-1,-3,-1,2,0
1526902235462645,-17,-8,-4,-3,-3,-5,-4,-4
1526902235477605,-9,-14,0,1,-3,-12,-4,-5
1526902235477605,35,5,0,-1,2,-3,0,-2
1526902235478602,-14,-6,-3,1,1,4,3,4
1526902235478602,-2,16,0,-4,-4,-4,-11,0
1526902235499546,5,13,3,1,0,-4,12,5
1526902235499546,-14,-32,-1,1,-2,-2,-4,-9
1526902235500544,6,11,-2,-2,0,0,-1,-2
1526902235500544,-17,-4,0,1,1,5,0,-2
1526902235513509,-8,-11,1,0,-1,0,-3,-5
1526902235513509,1,9,-4,-3,-3,-3,1,6
1526902235521487,-11,-20,-3,0,-1,-2,-1,-9
1526902235521487,-1,4,3,2,0,0,0,2
1526902235536447,30,23,1,-3,-3,14,-2,-2
1526902235536447,-26,-8,-1,1,1,-2,-2,-8
1526902235545424,2,5,-2,-1,-1,-2,-3,4
1526902235545424,-18,-18,-4,0,3,5,1,-1
1526902235560383,39,24,1,-1,-2,-3,-6,4
1526902235560383,-10,-9,-6,-1,0,-2,-4,5
1526902235561381,-23,-5,0,-4,-1,10,-6,-11
1526902235561381,9,9,1,-1,-7,-37,0,1
1526902235573349,-20,-21,-4,-1,-1,-9,-3,-6
1526902235573349,25,2,4,3,0,5,2,2
1526902235582325,-15,-9,-3,-2,-5,-3,0,0
1526902235582325,0,-2,1,-1,-1,-4,-6,-4
1526902235596288,-7,-3,1,-2,1,11,1,2
1526902235596288,13,9,1,0,-2,-3,-1,-3
1526902235605264,10,13,3,0,1,-6,2,6
1526902235605264,-24,-15,-3,-3,0,8,-1,-9
1526902235620224,2,9,0,3,1,-7,1,2
1526902235620224,-1,-8,-1,-1,-2,-2,1,-3
1526902235621221,7,-4,-1,-2,-2,3,1,4
1526902235621221,1,-6,-5,-3,0,-4,-2,1
1526902235642165,-12,3,0,-3,-5,-9,-5,-4
1526902235642165,-11,-6,0,-1,0,-3,-6,-1
1526902235644160,8,6,4,3,1,-1,1,-1
1526902235644160,11,-4,3,2,0,5,7,3
1526902235656127,-1,24,-2,-2,-3,-13,-4,-3
1526902235656127,6,-11,1,0,0,-1,1,1
1526902235665104,-12,-10,-4,-1,0,3,-5,-7
1526902235665104,9,6,-3,-2,-2,1,-1,4
1526902235680064,2,-2,-4,-2,-3,-23,-2,-2
1526902235680064,14,8,2,3,2,9,4,4
1526902235682058,1,-6,-4,-2,-3,-3,2,-2
1526902235682058,3,-1,0,-1,-2,9,0,-4
1526902235702005,4,-1,0,3,3,-4,-1,3
1526902235702005,-22,-8,-5,-5,-4,-6,-4,-9
1526902235704000,3,-7,0,0,1,-4,-1,0
1526902235704000,23,32,3,-2,-1,-6,-2,6
1526902235715967,-13,-7,-2,-4,-2,35,-1,3
1526902235715967,-17,-25,-5,-3,-7,-18,-2,-6
1526902235724944,5,1,0,1,1,21,2,0
1526902235724944,15,21,-2,-1,-3,-9,-3,2
1526902235739904,-4,-15,-1,0,1,1,-3,-1
1526902235739904,-3,-10,-1,-1,0,-3,3,0
1526902235741898,6,14,4,0,-1,7,-1,2
1526902235741898,-3,-9,0,4,4,3,-11,2
1526902235762842,-12,-17,-3,-2,0,-6,2,-14
1526902235762842,22,22,2,-1,-5,-5,3,8
1526902235763839,-17,-14,-2,0,5,-7,-2,-8
1526902235763839,5,1,0,-1,2,9,-2,1
1526902235775807,-15,-22,-1,1,2,-5,11,-1
1526902235775807,29,15,-4,-3,-4,5,-3,4
1526902235784783,-1,9,2,0,-4,-8,-1,5
1526902235784783,-9,-8,0,-1,2,13,3,-1
1526902235799743,-2,-5,-9,-5,-6,10,-4,-6
1526902235799743,-3,-4,1,4,3,-6,1,-1
1526902235801738,0,3,-1,-1,-1,-7,0,4
1526902235801738,4,-12,-4,-1,-1,15,3,-2
1526902235822682,3,4,3,2,4,0,-4,-2
1526902235822682,-9,-9,-4,-3,2,2,-5,2
1526902235823680,12,17,1,-1,-5,-9,-1,0
1526902235823680,-26,-17,-4,2,4,0,0,-5
1526902235835647,7,0,1,-1,-2,-2,0,5
1526902235835647,3,10,1,2,6,48,-4,-1
1526902235845621,5,-4,-4,-3,-13,-64,0,0
1526902235845621,-11,-16,-4,-2,-5,-3,0,-7
1526902235859583,28,32,2,-2,-4,-9,-3,4
1526902235859583,-16,-19,-3,0,-18,-2,-2,0
1526902235861578,-3,-6,1,0,15,27,3,-5
1526902235861578,-3,15,2,-2,-12,-11,0,2
1526902235882522,-1,-3,0,-2,26,8,2,8
1526902235882522,0,-12,-2,0,-7,-14,0,2
1526902235884517,6,17,1,1,-4,6,-7,-6
1526902235884517,4,-1,-1,1,4,-5,4,0
1526902235896485,-34,-12,-6,1,-11,-3,-5,-7
1526902235896485,5,18,4,1,5,-6,6,2
1526902235905461,6,-15,-2,0,3,6,0,-3
1526902235905461,1,7,2,0,-1,2,1,1
1526902235920421,-8,7,1,0,-6,-7,-1,-3
1526902235920421,-33,-28,-5,-2,6,-5,1,-2
1526902235921418,-16,3,-4,-9,-5,-8,0,2
1526902235921418,-3,-4,0,-1,3,15,2,-4
1526902235942362,55,19,5,3,2,-1,3,14
1526902235942362,-26,13,7,6,5,9,-6,6
1526902235944357,3,-12,-2,1,-3,-6,-16,-14
1526902235944357,-8,-15,-4,-7,-12,-41,10,-1
1526902235956325,-16,-2,0,5,17,35,4,4
1526902235956325,6,-11,-3,-1,4,8,-2,-9
1526902235965301,-17,-2,-3,-2,-3,-3,-2,1
1526902235965301,12,8,3,-1,3,5,-4,2
1526902235980261,7,1,-6,-4,-16,-15,-5,-7
1526902235980261,0,1,3,-2,-2,-17,0,-7
1526902235981258,-17,-6,2,0,2,15,3,6
1526902235981258,31,13,-3,2,-2,-2,0,1
1526902236002202,-27,-20,-5,-1,-7,-8,-1,0
1526902236002202,0,0,0,-4,1,0,2,4
1526902236004197,23,6,0,0,-2,1,1,2
1526902236004197,16,2,2,5,6,13,1,1
1526902236016165,-7,-15,-2,0,0,-7,-1,-1
1526902236016165,22,24,-6,-8,-5,-8,-5,-2
1526902236025141,-29,-18,1,3,13,-1,1,6
1526902236025141,20,21,5,2,1,16,-5,-6
1526902236040101,-9,-25,-9,-5,-5,-8,7,-2
1526902236040101,1,7,2,3,5,6,1,-5
1526902236042096,2,13,0,-1,-5,7,5,7
1526902236042096,-22,-9,-3,0,-2,-1,-4,-2
1526902236062042,-3,-10,0,1,1,-1,-2,-5
1526902236062042,-4,-7,0,0,-6,-25,-2,-2
1526902236064037,-5,-11,-4,-1,2,12,5,-6
1526902236064037,4,6,-1,-1,0,-4,0,12
1526902236076005,-2,11,-4,-4,-6,-7,-5,-5
1526902236076005,-45,-28,-12,-4,-3,-3,-1,-6
1526902236084981,15,7,4,4,-2,4,-1,0
1526902236084981,-7,-20,-13,-6,-1,-7,-1,-4
1526902236099941,5,3,2,-1,-2,0,1,-1
1526902236099941,5,3,-2,0,4,13,1,4
1526902236101935,-13,-16,-3,-1,-2,-2,-8,-4
1526902236101935,-7,-19,0,-2,-3,-2,0,-4
1526902236122879,7,36,4,-1,-3,-5,-2,5
1526902236122879,-4,-2,-4,0,-2,-1,1,-4
1526902236123877,32,6,0,-3,-6,-2,-6,4
1526902236123877,-2,5,1,4,1,-8,3,-3
1526902236135844,5,-12,-1,-1,0,0,-3,-3
1526902236135844,-6,-7,0,0,1,5,-3,0
1526902236144821,-12,3,-3,-2,-4,-20,1,-3
1526902236144821,6,8,4,-2,-2,9,4,10
1526902236159780,-5,-6,-2,-2,2,0,-1,-10
1526902236159780,11,1,-2,3,-3,-3,1,-4
1526902236161776,-41,-25,-6,-3,-3,-3,-2,-7
1526902236161776,4,0,2,1,-1,-4,-2,1
1526902236182719,-2,20,-3,-6,-5,-3,1,4
1526902236182719,42,5,6,2,3,3,4,7
1526902236183716,-55,-13,-10,-6,-3,-1,-11,-13
1526902236183716,-4,-7,-1,-7,-6,9,-8,-5
1526902236195685,16,-7,-2,7,0,2,-14,-8
1526902236195685,11,7,4,4,2,-7,8,1
1526902236204660,20,9,1,2,1,9,1,9
1526902236204660,-7,3,-4,-3,-2,-1,-1,-7
1526902236219621,-20,-24,1,1,-4,1,-6,-4
1526902236219621,5,37,5,-3,-5,-14,-2,3
1526902236221615,18,5,1,-1,5,15,6,-1
1526902236221615,13,17,0,-2,-5,-28,-7,2
1526902236242559,-15,3,3,1,4,28,9,1
1526902236242559,-17,-21,-4,-2,2,2,-2,-9
1526902236244554,14,8,2,2,-3,-10,3,4
1526902236244554,-4,-3,-1,-2,0,3,-1,-4
1526902236256522,10,-12,-7,-4,-2,-6,3,2
1526902236256522,7,10,-3,-7,-5,-4,-4,4
1526902236265498,-7,-5,0,0,2,8,-7,-4
1526902236265498,-2,-8,-2,1,0,-2,-1,2
1526902236280458,6,-3,7,2,1,-6,4,-3
1526902236280458,-16,0,-7,-1,-2,-1,-7,-4
1526902236281456,13,2,1,-1,-1,-1,-8,5
1526902236281456,-21,-9,-4,-2,1,0,3,-11
1526902236302399,5,-9,-3,-5,-1,-8,3,4
1526902236302399,21,1,4,0,1,2,-2,1
1526902236304394,-5,3,-1,-1,1,-4,-9,-4
1526902236304394,-3,2,-1,1,6,24,7,-2
1526902236316362,-1,6,-4,-3,-3,-12,-5,-5
1526902236316362,-13,-18,-1,2,0,18,0,-4
1526902236325338,-1,2,1,0,-4,-7,5,4
1526902236325338,9,7,0,-3,-4,-2,-2,-4
1526902236339301,15,8,-4,-4,-1,-8,4,5
1526902236339301,4,18,3,3,1,2,-1,2
1526902236346282,-18,-8,-2,-2,2,33,4,0
1526902236346282,-12,-12,-1,2,-2,-8,0,0
1526902236362239,24,19,0,-1,-2,2,-3,1
1526902236362239,-39,-43,-9,-5,-3,-14,-2,-9
1526902236364234,17,2,-2,-7,-6,6,7,6
1526902236364234,-18,5,-1,10,7,8,-7,-1
1526902236376202,-27,-37,0,1,-4,-4,-13,-11
1526902236376202,37,53,1,3,3,7,5,8
1526902236385178,4,-2,3,2,-2,-12,3,6
1526902236385178,-11,-18,-3,-3,-3,-14,2,-2
1526902236399140,2,15,-1,-1,-4,14,0,3
1526902236399140,-20,-28,2,4,4,10,-1,-9
1526902236414101,12,9,-1,-3,-3,-12,0,-6
1526902236414101,28,18,-3,-4,-3,-13,-2,13
1526902236422080,-46,-29,-6,0,-10,-4,-6,-10
1526902236422080,37,18,3,-1,6,5,2,11
1526902236424074,2,8,-3,-2,-4,-1,3,-1
1526902236424074,-16,-13,-1,-2,4,7,1,-1
1526902236436042,17,18,4,-1,-15,20,3,6
1526902236436042,-17,-26,-3,3,8,7,0,-1
1526902236445018,-10,-4,-3,-2,-3,2,-8,-9
1526902236445018,0,16,-3,-5,-6,-13,-12,-1
1526902236458980,7,-17,-3,-3,-1,16,18,1
1526902236458980,11,5,4,5,-2,-15,-1,10
1526902236465962,-2,2,4,4,7,2,4,-9
1526902236465962,15,-11,-2,-5,-9,-8,-3,-8
1526902236482916,-19,20,-3,-4,6,-6,-3,3
1526902236482916,8,-5,0,-3,-3,-1,1,-1
1526902236483914,6,-9,-4,-2,0,-11,-9,2
1526902236483914,-3,14,0,-3,-1,7,8,4
1526902236495882,-4,-18,0,3,3,-23,-3,1
1526902236495882,-4,-6,-3,0,2,2,1,-1
1526902236504858,-7,-8,-5,0,-2,-1,-2,-6
1526902236504858,10,16,2,2,0,0,-3,-5
1526902236519818,7,-5,1,-1,5,0,2,-1
1526902236519818,-16,-9,-2,-7,-13,-5,-5,-5
1526902236521813,5,4,-2,-1,-1,-14,2,2
1526902236521813,3,5,0,0,-4,11,2,-3
1526902236542756,12,-8,2,1,31,27,2,11
1526902236542756,-12,36,-1,-2,2,9,-9,-16
1526902236543754,-58,-30,-10,-6,-9,2,-1,-17
1526902236543754,7,-10,2,0,10,0,0,-1
1526902236564697,9,-2,-2,3,-16,-8,-6,0
1526902236564697,6,-6,2,-2,-6,-10,13,7
1526902236566693,12,16,6,0,11,11,5,11
1526902236566693,-2,6,-3,0,-12,-8,0,-4
1526902236578660,-9,-3,-1,1,1,-4,-3,-8
1526902236578660,10,-12,-1,-3,-3,-9,-4,1
1526902236587636,4,7,2,2,-4,-12,0,-1
1526902236587636,-3,-11,-5,-3,-4,-4,-1,1
1526902236602596,-2,11,1,0,5,-1,2,0
1526902236602596,2,-8,-2,-3,0,-5,-2,2
1526902236604591,-6,0,2,3,-4,1,2,-3
1526902236604591,8,10,-3,2,4,-6,-5,4
1526902236624538,4,9,0,1,3,7,1,-2
1526902236624538,-14,-2,-4,-2,-9,-5,-2,2
1526902236626532,8,-13,1,1,0,4,1,0
1526902236626532,7,6,-1,-4,-1,-7,-2,3
1526902236639498,-8,7,-1,-1,-3,-6,-4,-6
1526902236639498,10,3,2,-3,-6,-20,-4,-3
1526902236646479,-10,-9,-5,1,-16,-6,-10,2
1526902236646479,-2,-21,0,-1,27,-2,11,0
1526902236662436,-13,2,-4,-1,-5,5,1,2
1526902236662436,-21,13,-1,-3,-5,1,-5,-16
1526902236664431,37,27,1,-1,2,-6,-5,9
1526902236664431,-4,-9,1,1,-28,-19,-2,-3
1526902236685375,-6,-20,-3,2,28,10,0,-4
1526902236685375,17,-5,-1,1,4,-7,-4,5
1526902236686373,-19,-1,-4,-4,3,12,2,-4
1526902236686373,3,-4,-3,-1,-8,8,0,2
1526902236698340,7,-1,1,-4,-12,-18,1,-2
1526902236698340,-19,-3,-1,9,7,18,4,5
1526902236707316,13,12,5,2,-4,-4,1,2
1526902236707316,0,-6,-1,0,2,3,-2,-2
1526902236722276,15,-1,0,-2,-5,-9,-4,-1
1526902236722276,-16,-4,-7,-6,-11,-9,-5,-5
1526902236724271,17,15,1,-2,25,4,2,5
1526902236724271,-46,-26,-2,1,5,7,-7,-14
1526902236745215,10,1,-5,-4,-8,-22,2,14
1526902236745215,3,-6,-3,0,3,27,5,-9
1526902236746212,22,6,3,0,-1,-3,-6,4
1526902236746212,-14,-1,3,1,0,-6,1,-6
1526902236758180,-3,19,1,0,-1,1,-3,-19
1526902236758180,-4,-16,-2,-1,-2,-8,-3,3
1526902236767156,15,4,3,2,-5,-17,-2,2
1526902236767156,-8,-7,-6,-3,2,27,-2,-6
1526902236782116,13,20,2,0,-9,-7,-2,-2
1526902236782116,10,-5,-1,-1,1,-2,0,10
1526902236784111,-14,-17,0,0,-3,4,4,-5
1526902236784111,12,13,2,1,-4,-8,-4,4
1526902236805055,1,-1,-3,2,-1,0,1,1
1526902236805055,0,13,2,-3,-2,-3,0,1
1526902236807049,13,-14,-1,0,-16,-5,4,-3
1526902236807049,0,21,-3,-3,19,7,-1,5
1526902236819018,-19,-12,-3,-1,-3,-3,-8,-12
1526902236819018,-5,1,0,2,2,2,0,-6
1526902236827994,0,-7,-1,0,-5,-2,0,0
1526902236827994,-1,-5,-3,-3,-6,-4,0,4
1526902236842953,13,8,0,-3,-2,6,-5,7
1526902236842953,-18,-14,-1,-1,0,-8,12,-8
1526902236843951,-1,-7,-1,-1,-1,-3,3,2
1526902236843951,7,17,-1,-2,-4,1,-3,-2
1526902236864895,15,1,3,2,4,16,10,8
1526902236864895,24,6,-6,-2,-6,-11,-5,1
1526902236866890,-37,-11,-3,-3,1,-3,-3,-6
1526902236866890,18,10,2,2,-2,12,1,4
1526902236878857,-25,-19,-1,1,1,-2,1,1
1526902236878857,-3,-4,3,-2,-2,4,-5,-3
1526902236887834,-11,-1,-5,-2,5,9,0,-7
1526902236887834,6,-7,-3,-2,-10,-35,-7,-1
1526902236902793,13,9,4,2,-3,-5,6,4
1526902236902793,-12,7,-4,-3,2,2,-2,-4
1526902236903791,16,0,-1,-2,-6,-8,0,3
1526902236903791,-14,-4,3,3,1,7,1,-5
1526902236924735,-2,0,4,3,1,-3,-3,-2
1526902236924735,17,11,1,-2,-2,-7,-4,7
1526902236926730,-13,-6,-2,-4,-1,6,16,-6
1526902236926730,13,-7,-3,0,-4,-11,-1,4
1526902236938697,-13,-12,-4,-3,5,23,-11,-5
1526902236938697,-3,-4,-4,-3,-7,-27,14,0
1526902236947674,4,10,5,4,5,5,-2,4
1526902236947674,-14,-31,-2,1,3,-1,1,0
1526902236962634,10,24,-5,-4,-8,-13,-2,-1
1526902236962634,6,-1,2,0,-4,-2,-9,4
1526902236963631,-3,-3,-4,-2,1,6,-3,3
1526902236963631,-22,-13,0,0,0,3,4,-8
1526902236984575,11,-2,-2,-3,-2,-8,-2,-1
1526902236984575,3,2,0,0,4,13,-1,1
1526902236986570,-33,-15,-2,1,1,-6,-1,-3
1526902236986570,32,16,1,-2,-2,9,-1,8
1526902236998537,-4,-4,0,-4,-2,-1,2,-3
1526902236998537,-23,-6,-1,1,0,3,-2,-4
1526902237007514,9,-5,-3,-2,-3,-3,-4,-2
1526902237007514,3,1,0,0,0,5,0,-4
1526902237022473,-10,-2,-4,-1,-6,-32,-7,3
1526902237022473,-4,-8,-4,-1,4,29,19,1
1526902237024469,6,18,4,4,2,8,-3,5
1526902237024469,-8,-20,0,-3,3,7,3,-3
1526902237045412,4,-3,-3,-1,1,2,15,-7
1526902237045412,-3,9,-2,0,-2,-3,-9,-1
1526902237046410,-6,-5,0,-1,4,-26,-5,-1
1526902237046410,18,11,1,3,0,6,6,2
1526902237058377,-2,-6,-2,0,-4,-6,-5,-2
1526902237058377,6,-3,-1,-2,-2,-3,-4,-1
1526902237067353,-10,-4,-1,-1,-2,10,2,-2
1526902237067353,-16,0,0,-2,-3,-11,-8,-2
1526902237082313,31,16,2,1,-1,-9,-1,3
1526902237082313,-18,-15,0,0,-1,5,-3,-1
1526902237084308,16,21,1,-2,1,19,1,-1
1526902237084308,1,1,-7,-5,-9,-20,-5,-2
1526902237105252,-34,-33,-6,-1,1,15,-14,-6
1526902237105252,2,8,1,-3,-4,-20,19,-5
1526902237106250,19,-4,2,0,-2,-3,-1,5
1526902237106250,-6,3,-2,-1,-1,3,-2,-1
1526902237118217,5,-2,0,0,-1,0,2,5
1526902237118217,13,18,4,0,0,-11,-11,-3
1526902237127193,-6,-7,-8,-5,-1,55,-2,2
1526902237127193,11,-4,2,0,-4,-26,-2,-2
1526902237142153,-14,-18,-3,-1,-3,-1,1,-3
1526902237142153,13,22,4,0,1,4,-7,7
1526902237144148,5,5,-2,-1,-3,1,6,-2
1526902237144148,-2,-10,-1,0,1,10,-3,1
1526902237165092,-8,9,-3,-2,-4,-7,-4,-6
1526902237165092,-17,-26,-4,0,2,13,-3,-2
1526902237167087,23,17,-1,-2,-3,-13,-4,1
1526902237167087,-9,-5,2,1,2,10,3,1
1526902237179054,6,-10,-6,-2,-4,-11,-11,-5
1526902237179054,-6,5,-3,-3,-4,-26,7,-4
1526902237188031,-17,-17,-5,1,-2,-20,-2,-5
1526902237188031,2,4,-2,-1,0,3,1,1
1526902237201993,-7,7,5,1,2,14,2,-3
1526902237201993,-6,-1,-1,1,-2,0,-12,-3
1526902237203988,12,-5,-2,-4,-3,-8,-1,1
1526902237203988,5,5,0,0,-1,1,-4,1
1526902237224932,2,3,-5,-3,-15,-18,15,0
1526902237224932,-9,-10,-2,2,25,2,-11,-5
1526902237226927,-7,-6,1,0,0,16,6,0
1526902237226927,12,16,-2,-3,-3,8,-1,-2
1526902237238895,4,-11,0,-1,-25,-21,-2,2
1526902237238895,1,0,1,1,23,23,1,3
1526902237247871,-12,-3,-2,0,-3,-15,-6,-5
1526902237247871,-20,-9,-2,0,7,17,-6,-4
1526902237262831,10,-6,0,1,4,-16,4,0
1526902237262831,-15,-34,-8,-1,-13,-12,5,5
1526902237263828,14,34,5,0,-23,-22,-9,-1
1526902237263828,1,-7,0,1,23,14,4,0
1526902237284772,-16,-12,-1,-1,6,6,-3,-8
1526902237284772,7,5,-7,-7,-9,12,-4,4
1526902237286767,20,5,3,0,-1,-6,0,-1
1526902237286767,-25,-7,0,0,-10,-7,3,2
1526902237298734,6,1,-1,-1,5,0,-2,-1
1526902237298734,5,-4,-1,0,1,12,-10,-2
1526902237307711,-8,-7,-2,-2,-1,-4,7,1
1526902237307711,5,-11,1,0,-4,-4,5,-1
1526902237322671,6,16,-1,0,10,11,-5,0
1526902237322671,6,2,-1,-3,-10,7,-9,2
1526902237323668,8,-5,3,0,7,2,1,0
1526902237323668,-3,-2,-4,-2,-4,6,-2,-4
1526902237344612,-4,2,6,1,2,12,3,2
1526902237344612,14,-1,-2,-1,-11,-10,3,-1
1526902237346607,-19,-7,-5,-3,23,5,-7,-1
1526902237346607,-7,-14,-7,1,-2,29,0,-6
1526902237358575,26,9,5,-1,-3,6,2,4
1526902237358575,-8,3,0,0,-4,-15,-13,-3
1526902237367551,-23,-1,4,3,2,15,2,-6
1526902237367551,-3,-7,-4,-3,-9,-16,-5,0
1526902237382511,4,9,-9,1,7,4,1,5
1526902237382511,-4,-2,7,3,-2,1,6,-4
1526902237384506,8,-18,-4,-4,-10,-32,-6,-5
1526902237384506,4,11,2,0,1,-13,5,1
1526902237405449,-15,-6,-3,-6,-5,0,-4,-2
1526902237405449,1,-2,-2,0,1,-13,3,1
1526902237406447,9,15,1,0,0,18,-1,4
1526902237406447,-12,-5,-3,-3,-5,-12,1,-6
1526902237418414,6,-18,-5,1,2,4,-4,12
1526902237418414,9,20,-1,-1,-2,-4,-4,-19
1526902237427391,-12,-6,-2,0,2,-6,2,4
1526902237427391,29,24,2,0,-2,13,-4,4
1526902237442351,-8,-14,1,-1,1,-16,4,3
1526902237442351,10,4,-1,-1,-2,3,2,0
1526902237448335,6,5,-1,-1,-5,-5,-3,-3
1526902237448335,8,9,0,-1,-2,-7,-3,0
1526902237465289,-9,8,-2,-4,-3,10,-2,-9
1526902237465289,-2,-6,2,0,1,6,5,4
1526902237466287,-1,-12,-4,-2,0,-4,-2,1
1526902237466287,8,3,0,0,-1,-16,-10,3
1526902237487231,-33,-3,0,0,4,11,3,-6
1526902237487231,-21,-4,-6,-1,0,1,-3,-6
1526902237489226,12,29,4,1,1,20,6,0
1526902237489226,9,-17,-2,0,-2,-17,-3,1
1526902237502190,-1,-5,-1,-1,0,6,0,-2
1526902237502190,-22,-6,-2,-1,1,5,1,-11
1526902237508174,14,4,2,1,-2,-10,-3,2
1526902237508174,-3,2,-3,-4,-3,-3,1,-2
1526902237525129,15,-3,3,1,0,1,0,4
1526902237525129,-33,-9,-7,-3,0,-2,-1,-8
1526902237527125,20,4,2,0,-1,-3,-1,-1
1526902237527125,-18,-11,-4,-7,-5,-7,-1,-1
1526902237547070,3,7,0,1,0,1,-2,-1
1526902237547070,6,-3,4,-1,-2,-3,-2,4
1526902237549066,-14,-18,-3,1,-1,-5,1,-1
1526902237549066,6,12,1,3,3,8,0,0
1526902237562030,1,-14,0,-2,-3,-10,-4,6
1526902237562030,25,22,2,0,-1,-14,3,8
1526902237569012,-19,-13,-1,-1,0,0,0,-12
1526902237569012,-3,-9,1,0,0,-10,0,1
1526902237584969,-5,6,1,-3,-2,11,0,-5
1526902237584969,-3,-10,-7,-5,-4,-1,-6,1
1526902237586964,15,8,3,0,0,3,10,6
1526902237586964,-2,0,1,1,1,12,6,-4
1526902237607908,2,8,-5,-3,-4,-5,1,-1
1526902237607908,6,-8,-5,-2,0,1,0,-2
1526902237608905,-11,-10,-1,8,3,8,-5,-3
1526902237608905,1,-6,6,3,1,-2,11,-3
1526902237621870,17,7,-2,0,-1,-2,1,1
1526902237621870,-4,10,-1,-7,-3,1,1,2
1526902237628852,-17,-16,-5,-5,-5,-14,-4,-4
1526902237628852,10,0,-3,-3,-1,9,-1,0
1526902237644809,-11,3,5,3,2,27,-5,-7
1526902237644809,-2,-22,1,2,-2,-6,3,9
1526902237646804,-8,1,-7,-6,-1,3,-3,1
1526902237646804,-19,1,-3,1,-1,-9,-12,-6
1526902237667748,7,-13,2,7,7,14,10,-3
1526902237667748,7,11,7,2,0,-4,-6,4
1526902237668745,-2,-7,4,2,3,0,-4,0
1526902237668745,-7,-14,-7,-5,-3,11,-1,3
1526902237681710,14,27,-5,-6,-6,-16,-5,-5
1526902237681710,-4,-6,4,4,3,5,5,2
1526902237688692,-3,-3,-3,-1,-4,1,-4,3
1526902237688692,-11,-11,-3,-2,2,0,0,0
1526902237704649,11,9,2,1,0,16,-3,-3
1526902237704649,-8,2,-3,-3,-7,-11,-8,-3
1526902237706644,14,22,-1,-1,-3,-7,13,-3
1526902237706644,7,-2,1,2,-2,-10,1,-2
1526902237727588,-12,-16,0,0,3,-18,0,6
1526902237727588,20,12,0,-2,6,18,6,4
1526902237729583,-20,-1,-2,-1,-4,-16,-8,-4
1526902237729583,0,2,-2,-3,-1,15,1,-1
1526902237741550,-24,-21,-3,1,-2,-12,-4,-6
1526902237741550,39,24,0,1,1,4,1,6
1526902237748532,-28,-25,-2,1,0,-11,3,-2
1526902237748532,43,27,2,-1,0,-24,1,8
1526902237765486,-34,-14,0,-5,0,-9,-5,-8
1526902237765486,6,10,-1,-4,-1,5,1,-2
1526902237766484,16,-8,-1,-2,0,5,0,-2
1526902237766484,-7,11,1,0,-2,-1,-12,0
1526902237787428,-3,-4,2,3,2,2,-5,0
1526902237787428,11,9,1,0,-5,5,2,2
1526902237789422,-9,-4,-3,-2,-1,-31,-3,1
1526902237789422,-4,-10,1,3,4,-5,1,-5
1526902237801390,2,10,-2,0,-4,-4,-4,2
1526902237801390,-31,-31,-2,4,3,11,2,-7
1526902237810367,21,12,0,-5,-2,10,-3,7
1526902237810367,11,-3,-2,1,1,0,1,0
1526902237825326,-21,2,-2,-1,-1,-5,-2,-1
1526902237825326,-7,-1,3,0,0,-30,8,-1
1526902237826324,-11,-17,-3,2,-1,7,2,1
1526902237826324,4,3,4,0,-3,-7,-2,-9
1526902237847268,-9,-1,-7,-7,-4,7,0,-3
1526902237847268,-1,-27,-2,-4,-4,12,-2,4
1526902237849262,7,32,0,0,0,2,-6,-8
1526902237849262,13,-14,3,1,-3,-11,1,0
1526902237861230,9,26,0,-1,-1,-4,4,2
1526902237861230,12,18,1,-2,-2,-3,-13,3
1526902237870207,1,-10,-4,-4,-3,5,15,7
1526902237870207,3,-14,-2,-1,-4,-52,-5,-9
1526902237885166,-8,10,2,1,0,-8,4,-4
1526902237885166,-20,-26,-6,-3,-1,-1,0,-3
1526902237886164,8,-1,3,1,0,11,-5,0
1526902237886164,-12,10,-3,-3,-4,7,-3,3
1526902237907108,15,-14,2,1,3,10,5,6
1526902237907108,12,19,3,1,4,5,0,-2
1526902237909103,-44,-16,-6,-2,-4,-10,-10,-16
1526902237909103,-1,-8,5,0,1,16,13,10
1526902237921070,27,41,-7,-10,-7,-25,-11,-10
1526902237921070,-17,-16,-4,-2,-5,26,7,-1
1526902237930046,18,14,3,6,3,1,-1,1
1526902237930046,-11,-13,-1,2,4,12,-5,2
1526902237945006,-11,-10,2,4,-1,-2,10,-6
1526902237945006,13,-8,-1,0,-5,-26,-9,-1
1526902237947001,-8,-12,-3,-8,-3,-10,-2,-12
1526902237947001,-15,-3,-7,-5,-2,2,3,-8
1526902237967945,16,5,2,4,1,9,-1,7
1526902237967945,-7,4,-2,1,1,13,2,1
1526902237968942,11,-5,0,0,-7,-38,-6,1
1526902237968942,6,1,0,2,1,18,-8,2
1526902237980910,-2,-10,0,-4,0,-8,9,4
1526902237980910,-2,11,-1,0,-4,-4,-4,-4
1526902237989886,-26,-35,3,4,5,13,1,-7
1526902237989886,76,59,-4,-6,-4,-1,-5,9
1526902238004846,-29,-7,-1,-1,0,-14,-3,6
1526902238004846,4,-11,0,3,3,0,0,-4
1526902238006841,9,7,5,3,2,18,7,8
1526902238006841,-43,-39,-10,-3,-4,-8,-6,-11
1526902238027785,5,-7,-6,-3,1,2,1,3
1526902238027785,-3,-3,1,-3,-3,-5,-2,-1
1526902238028782,15,19,5,0,4,1,-1,4
1526902238028782,-15,0,-2,1,-1,6,-1,-11
1526902238040750,5,-17,-2,-2,-4,4,-4,0
1526902238040750,-10,5,-2,-8,-4,-4,0,0
1526902238049726,17,8,-2,-4,1,-5,-3,6
1526902238049726,-3,4,5,9,4,0,4,7
1526902238064686,12,-3,0,0,4,9,3,-6
1526902238064686,-8,-8,-1,4,1,-11,-2,-8
1526902238066681,-17,-11,-4,-3,-6,3,-3,0
1526902238066681,21,35,-1,-4,-4,4,0,2
1526902238087625,6,-7,1,3,-2,-5,-3,-1
1526902238087625,4,-7,0,-2,4,0,-12,1
1526902238089620,-23,-8,-3,-3,-1,2,-2,-4
1526902238089620,9,-7,1,8,8,3,3,-2
1526902238101588,-11,7,-1,0,-1,3,-1,-3
1526902238101588,0,4,-8,-6,-6,-7,-2,-3
1526902238110564,-5,1,0,-3,-9,7,3,0
1526902238110564,-6,-23,0,1,9,-10,0,1
1526902238124526,-8,-9,-1,-2,0,15,-2,-1
1526902238124526,1,10,-5,-6,-4,-2,1,-3
1526902238126521,26,3,3,-1,1,6,0,2
1526902238126521,-46,-19,-7,-4,-6,-4,9,-6
1526902238147465,26,19,4,2,0,-6,-3,0
1526902238147465,-13,-24,-4,2,-2,0,0,-6
1526902238149460,9,15,-8,-6,-1,0,3,4
1526902238149460,4,-1,4,-5,-3,3,-3,-3
1526902238161427,-5,-17,-5,-3,-5,-5,-2,-7
1526902238161427,8,13,-2,-5,-3,-1,2,3
1526902238170404,4,4,5,8,5,1,-3,-1
1526902238170404,-23,-7,-9,-6,-1,19,-4,-10
1526902238185363,4,-15,-2,0,-7,-17,-4,-2
1526902238185363,17,3,2,3,-1,-14,-1,-2
1526902238186361,-31,-11,-5,-2,2,11,3,5
1526902238186361,15,-3,0,-2,0,14,4,4
1526902238207305,8,29,6,-1,1,5,1,5
1526902238207305,-17,-7,2,5,2,-3,0,-2
1526902238209300,-6,-7,-2,1,-1,-10,0,-5
1526902238209300,-10,-33,0,-2,-5,-7,-1,-1
1526902238221267,30,13,0,-2,-1,-1,1,12
1526902238221267,1,36,3,4,2,-1,0,3
1526902238230244,-19,-23,-11,-4,-4,2,-2,-4
1526902238230244,-12,0,1,-1,-3,-4,-2,-9
1526902238244206,5,-9,0,2,1,1,-3,-1
1526902238244206,-19,-22,0,-1,-1,-14,-5,-8
1526902238251187,19,23,9,1,0,32,2,4
1526902238251187,21,23,-3,-4,-10,-11,-3,5
1526902238267145,-36,-6,-7,-1,4,-3,-3,-9
1526902238267145,18,6,6,4,0,4,3,10
1526902238269140,8,6,-1,1,0,-4,-10,0
1526902238269140,-25,-3,1,-1,0,-6,-2,-3
1526902238281107,9,-8,2,1,1,3,4,1
1526902238281107,19,0,-5,-4,-2,0,3,-1
1526902238290084,2,10,-3,-4,-2,-11,-8,-4
1526902238290084,20,2,3,2,3,8,0,5
1526902238305043,-55,0,-4,-4,-5,-13,-6,-4
1526902238305043,-17,-33,0,1,4,19,0,-4
1526902238307038,26,20,1,0,0,-6,1,-1
1526902238307038,-22,8,0,5,5,18,5,1
1526902238327982,17,1,-5,-1,-4,-16,-16,1
1526902238327982,14,6,8,5,5,14,8,2
1526902238328980,-12,-10,-5,0,-3,-6,-1,-11
1526902238328980,18,24,6,1,0,-2,4,2
1526902238340947,3,-31,-12,-3,-1,4,-3,0
1526902238340947,-18,19,-1,-1,-2,-1,-3,-2
1526902238349924,-1,-18,1,0,-2,-6,-2,-6
1526902238349924,-5,-11,-1,2,1,-2,-10,-4
1526902238363886,60,27,3,-2,-2,-3,14,6
1526902238363886,-54,-13,-2,-2,0,-4,0,-1
1526902238370867,-9,-10,-1,0,0,-5,2,-2
1526902238370867,5,-5,-2,-2,-1,1,-4,-1
1526902238387822,10,-6,-1,1,2,11,3,-1
1526902238387822,13,1,-4,-4,-4,-1,-3,-1
1526902238388819,-4,7,-1,-3,2,-6,-3,1
1526902238388819,-6,2,-4,-5,-5,-8,-3,-4
1526902238400787,-21,-12,-3,-2,-3,1,1,-3
1526902238400787,35,11,3,-1,-2,-10,-2,-2
1526902238409763,-12,7,0,-2,-3,5,2,4
1526902238409763,3,-16,-5,-4,-1,0,-3,1
1526902238424723,-26,2,-3,-5,-6,-28,10,-6
1526902238424723,10,-14,-1,2,4,2,3,3
1526902238430707,8,8,-2,-1,-6,-14,-5,-1
1526902238430707,-14,3,4,2,6,20,15,-5
1526902238447662,7,16,7,-1,-2,9,-8,0
1526902238447662,-8,-10,-2,7,3,-1,-1,-1
1526902238448660,12,-7,0,-2,0,-6,2,-3
1526902238448660,12,16,-2,-3,-4,-6,-1,7
1526902238469603,-15,-20,-4,0,3,9,-3,-1
1526902238469603,9,3,-1,-5,-3,-4,1,-2
1526902238471598,-4,-5,2,-2,3,-4,-9,3
1526902238471598,30,28,-2,-2,-4,-18,-1,2
1526902238484563,-33,-18,5,6,6,19,-1,-9
1526902238484563,-28,-21,-9,-6,-3,-4,-3,0
1526902238491545,44,21,2,1,2,-10,-6,3
1526902238491545,-40,-23,-6,-4,0,-2,-5,-7
1526902238507502,-4,13,1,2,-1,-11,8,1
1526902238507502,14,4,2,0,0,10,-1,1
1526902238509497,-14,-10,-6,-3,-2,0,-2,-6
1526902238509497,11,-15,0,0,-2,-4,-1,1
1526902238530441,42,31,6,2,-1,7,-3,6
1526902238530441,-25,-5,1,1,-1,-1,-6,-8
1526902238531438,9,-1,-3,-1,-3,2,4,-2
1526902238531438,-6,1,-2,-1,-4,-7,0,-6
1526902238544403,-8,-23,-6,-5,-1,1,-6,3
1526902238544403,10,42,4,-1,-1,-5,0,6
1526902238551384,-14,-20,0,1,-3,-10,2,-6
1526902238551384,-16,-11,-3,0,3,19,-8,-3
1526902238567342,13,-2,2,-1,0,3,0,0
1526902238567342,5,-12,-3,-2,-4,-27,-2,3
1526902238569337,7,4,-2,0,6,25,6,4
1526902238569337,-25,-14,-1,-1,-5,-8,1,-7
1526902238590281,19,17,0,1,-1,0,-4,-1
1526902238590281,1,3,0,1,-1,1,-2,2
1526902238591278,18,1,-1,-3,-8,-23,0,6
1526902238591278,14,1,1,6,5,-4,3,-3
1526902238604243,-20,0,-2,0,2,8,-4,-3
1526902238604243,0,-5,-1,-1,0,17,5,-3
1526902238611225,10,-4,0,-3,-3,1,6,-5
1526902238611225,-2,5,2,8,3,-1,1,11
1526902238627182,6,4,4,0,-2,-7,-2,-7
1526902238627182,-38,-6,-5,-3,-1,1,-6,-5
1526902238629177,-7,-18,-3,0,2,11,-4,-3
1526902238629177,7,5,0,-6,-5,-4,3,1
1526902238650120,-3,1,-1,-3,-2,-9,0,0
1526902238650120,10,2,2,1,3,19,2,3
1526902238652115,8,2,1,2,0,1,-1,-1
1526902238652115,-17,-11,-10,-9,-5,-5,1,4
1526902238664083,-29,-22,-4,-5,-4,-2,-7,-9
1526902238664083,5,17,-1,-1,-5,-4,-1,-6
1526902238671064,-13,-2,5,9,4,8,2,0
1526902238671064,35,5,0,-3,-5,-14,-3,3
1526902238687022,-18,-12,-5,-11,-5,13,2,-2
1526902238687022,4,8,5,16,12,4,-4,1
1526902238689017,-6,7,-6,-4,-1,0,-3,1
1526902238689017,-1,-4,-3,-8,-13,0,-3,-5
1526902238709961,26,4,2,2,4,1,1,9
1526902238709961,-28,-24,-7,-4,-6,-7,-12,-17
1526902238711955,2,13,0,1,-1,-4,13,3
1526902238711955,13,-7,-3,-5,1,-4,-3,-5
1526902238723923,0,17,2,2,-2,1,-1,1
1526902238723923,-3,1,0,-13,-21,-8,-2,2
1526902238732900,-14,-10,-5,-8,6,0,-8,2
1526902238732900,-10,-14,3,25,8,-6,0,-6
1526902238747859,-6,-18,-2,-5,-1,6,3,-4
1526902238747859,22,24,3,13,20,2,6,11
1526902238748857,2,-5,-1,0,-8,-3,-2,-6
1526902238748857,-30,-12,-7,-11,2,5,-4,-10
1526902238769800,8,21,5,9,3,-11,0,9
1526902238769800,31,-5,-6,-9,-10,-4,3,3
1526902238771796,-14,-3,5,-2,-2,2,-3,-1
1526902238771796,26,11,6,1,3,-3,-1,4
1526902238783763,-32,-12,-7,-3,-1,-4,-2,-9
1526902238783763,-11,-16,-4,-9,-2,-4,0,-5
1526902238792739,-2,7,-1,2,-1,-1,-1,4
1526902238792739,18,0,5,2,1,7,-4,5
1526902238807699,-15,-19,-3,-7,-8,-11,12,-9
1526902238807699,20,27,0,3,5,-3,2,3
1526902238808696,-20,-21,-1,3,-5,1,-4,-9
1526902238808696,9,15,0,-4,2,3,1,4
1526902238829640,36,18,1,8,6,-1,-3,4
1526902238829640,-16,-12,4,2,1,1,-2,-2
1526902238831635,-5,7,-1,0,1,2,1,-1
1526902238831635,-7,4,-5,-9,-11,-3,-1,-1
1526902238852579,-6,-14,-2,0,4,-2,-4,-9
1526902238852579,-4,-17,-2,4,1,-3,4,3
1526902238854574,29,24,0,-3,-5,1,-3,4
1526902238854574,-40,-6,-8,-4,0,4,1,-4
1526902238867539,-13,-24,-4,0,-3,-12,-6,2
1526902238867539,12,7,-2,-4,-1,10,3,0
1526902238869534,-25,-6,-3,-4,1,-3,-1,-2
1526902238869534,5,-3,0,-5,-2,-5,1,-2
1526902238890478,6,9,-3,2,3,5,0,2
1526902238890478,-11,-24,-2,-2,-16,-7,-1,0
1526902238891475,20,-7,-4,-6,6,-2,-1,1
1526902238891475,-13,28,3,6,0,2,-7,-3
1526902238903443,1,11,2,7,0,-3,-1,3
1526902238903443,14,-9,-1,2,4,1,1,2
1526902238912419,16,18,4,-2,-13,1,3,0
1526902238912419,-16,-15,-1,-5,6,-2,-4,-6
1526902238927379,11,-8,0,-2,2,1,-2,4
1526902238927379,5,22,0,-3,0,-4,-3,-4
1526902238929374,6,-18,-7,0,-1,4,-4,-5
1526902238929374,-8,-8,-2,0,-1,-4,4,1
1526902238950318,4,21,2,-3,-3,4,2,3
1526902238950318,-8,-13,-1,-6,0,-1,-1,0
1526902238951315,3,-12,2,0,-1,-3,0,2
1526902238951315,-3,3,-1,2,-1,3,5,2
1526902238963283,-5,1,0,15,3,2,-2,-6
1526902238963283,7,8,6,1,5,0,-4,-3
1526902238972259,-20,3,-6,4,9,-2,-1,2
1526902238972259,3,-10,1,-3,-7,-2,1,-1
1526902238987219,8,-26,-7,-13,-6,3,0,0
1526902238987219,-16,12,0,5,2,-10,-4,-2
1526902238989214,-13,-16,2,3,0,10,1,-8
1526902238989214,-13,-1,-6,-5,2,-2,0,0
1526902239010158,-1,12,2,-3,-4,-1,-8,-1
1526902239010158,11,-9,-4,-2,-4,-3,-3,0
1526902239011155,-28,-12,-5,-3,3,-4,-2,0
1526902239011155,18,-3,3,1,-1,-2,0,5
1526902239024120,-3,-1,-3,-3,-1,-5,-2,0
1526902239024120,-7,-11,-1,0,0,2,-1,-10
1526902239033097,29,16,-4,-1,-3,-2,-1,7
1526902239033097,8,4,4,-1,-6,-2,-3,1
1526902239047059,-31,-4,-3,3,2,1,-1,-6
1526902239047059,20,2,-1,-4,-5,0,2,7
1526902239049054,2,-8,1,-4,-2,-1,0,-1
1526902239049054,2,22,-2,-9,-5,-4,-4,-6
1526902239069998,-1,-3,2,14,9,-1,-1,2
1526902239069998,13,4,0,-1,0,2,3,-3
1526902239071993,-23,-20,-2,5,4,-7,-1,0
1526902239071993,23,6,6,2,-8,-4,-4,4
1526902239083960,-12,7,-8,-9,-1,18,3,-2
1526902239083960,9,0,2,0,-1,0,-1,1
1526902239092936,8,11,1,-4,-5,-5,-2,-3
1526902239092936,-8,-21,-2,1,2,-3,3,-3
1526902239107896,21,7,0,-7,-5,-10,-2,5
1526902239107896,-37,-2,-2,0,0,0,-3,-4
1526902239108894,11,7,-3,-5,-4,-1,-2,-4
1526902239108894,-7,-14,-4,2,1,-1,1,4
1526902239129838,9,11,0,-2,-2,-2,-3,-6
1526902239129838,16,-2,-4,-4,-2,0,0,10
1526902239131832,-20,-10,0,1,0,0,-3,-13
1526902239131832,1,3,-6,2,-7,1,-3,-5
1526902239143800,-10,-16,3,-6,3,-4,-1,2
1526902239143800,1,9,-2,-2,4,-1,2,2
1526902239152777,-2,-4,-2,-4,-17,0,0,1
1526902239152777,10,0,1,6,16,2,0,-2
1526902239167736,-4,-3,-1,5,-6,0,-2,-3
1526902239167736,-37,-11,-3,2,5,-1,-2,-8
1526902239168734,42,11,2,2,3,-1,-1,3
1526902239168734,-18,-10,-6,-23,-26,-2,-2,-2
1526902239189677,-2,-10,1,2,12,1,3,5
1526902239189677,3,13,-1,0,0,2,-3,-7
1526902239191673,-1,-20,-3,-1,-1,11,-1,-3
1526902239191673,14,13,0,1,2,-6,-1,0
1526902239203640,3,8,-3,-14,-11,-3,-6,-3
1526902239203640,-21,-22,2,-2,5,52,4,1
1526902239212617,4,-5,-7,-9,-9,-37,-14,-4
1526902239212617,49,17,-2,2,-9,6,5,5
1526902239227576,-45,-29,-2,5,8,-10,1,-4
1526902239227576,15,25,-1,2,-2,-3,-9,0
1526902239229571,-7,-6,0,10,11,7,2,6
1526902239229571,-5,-3,-4,2,5,-3,-2,-4
1526902239249518,-1,-6,2,0,-5,0,-5,-2
1526902239249518,27,27,5,1,-5,-15,2,9
1526902239251513,-6,-4,7,4,9,6,6,-4
1526902239251513,-24,-23,-10,3,2,-6,-1,-5
1526902239263480,21,14,0,-2,-5,-5,0,4
1526902239263480,-14,5,5,-6,-3,4,-3,-2
1526902239272457,-8,-16,-8,-7,-4,-7,16,-1
1526902239272457,-3,5,8,8,7,11,2,3
1526902239287416,0,4,-4,-4,-8,-3,-2,-6
1526902239287416,-4,-6,-2,-8,0,-18,-1,0
1526902239289411,-2,4,-2,-3,-5,2,-8,0
1526902239289411,-10,3,0,5,6,4,-3,-9
1526902239310355,-2,-7,-1,0,-3,-2,2,2
1526902239310355,1,-18,-1,0,-2,-9,1,1
1526902239311352,0,11,-4,-14,-9,-7,-5,-2
1526902239311352,-24,-10,-2,3,12,8,0,-4
1526902239323320,12,4,4,16,8,8,-1,4
1526902239323320,5,-5,5,16,6,-1,0,-2
1526902239332296,14,-1,0,1,3,-3,11,8
1526902239332296,-4,12,-1,-11,-11,-22,-5,-8
1526902239347256,-28,-10,-10,-11,-7,9,-3,-2
1526902239347256,4,-9,0,-1,-1,-3,-1,0
1526902239353240,-4,-8,-2,0,0,3,-5,3
1526902239353240,10,1,-1,-5,-1,7,-2,2
1526902239370195,17,13,6,-2,-3,-30,3,-5
1526902239370195,-7,6,-1,-4,-7,-3,-3,-1
1526902239371193,-4,-1,5,5,0,4,-5,-8
1526902239371193,10,-16,-1,4,1,1,2,3
1526902239392136,-3,22,-4,-8,-3,1,-6,1
1526902239392136,-1,-18,-4,-6,-6,-1,0,0
1526902239394131,8,21,6,-1,4,0,-1,2
1526902239394131,-3,-11,3,10,-3,1,2,2
1526902239407096,2,-8,4,4,2,4,1,-1
1526902239407096,10,2,-6,-6,-7,-6,2,-1
1526902239414077,-27,3,-4,-2,4,7,-1,-4
1526902239414077,9,0,0,-5,0,-10,-5,-1
1526902239430035,-5,-2,0,1,0,6,0,1
1526902239430035,-2,-2,-2,-1,-4,1,0,3
1526902239432030,9,9,0,-6,-1,4,-4,-15
1526902239432030,-16,-13,-2,-5,-6,-6,-1,1
1526902239452974,26,24,-1,-5,-5,-5,-1,3
1526902239452974,-16,-29,-2,0,0,-4,0,-5
1526902239453971,4,2,-6,-9,-4,-4,-3,-1
1526902239453971,4,4,5,18,15,8,1,3
1526902239466936,-13,-16,-5,-2,-9,-2,0,-6
1526902239466936,11,21,-2,-3,-2,-2,-2,3
1526902239473917,-4,-11,4,9,5,0,0,4
1526902239473917,7,4,1,0,-4,3,1,-4
1526902239489875,15,29,3,-4,-1,-1,-1,4
1526902239489875,-13,-16,-9,-5,-3,-4,0,-4
1526902239491870,17,11,2,6,3,1,0,4
1526902239491870,-3,-8,1,-6,-1,0,-1,2
1526902239512813,-15,-20,0,11,-4,2,0,-5
1526902239512813,41,35,3,-4,6,-1,-10,11
1526902239513811,-29,-17,-4,-1,-1,-7,5,-10
1526902239513811,14,4,-4,-8,-5,6,1,1
1526902239526776,-8,3,0,0,1,-1,0,-8
1526902239526776,5,-10,5,13,6,-7,-2,-2
1526902239533757,1,4,1,1,-3,6,-3,0
1526902239533757,-4,-6,-2,-5,-5,-6,-2,-3
1526902239549715,10,3,4,-5,2,2,3,5
1526902239549715,-37,-15,-2,-3,0,-2,3,-8
1526902239551710,32,27,4,2,-1,-2,-3,1
1526902239551710,-17,-10,-5,-1,-1,-3,0,-5
1526902239572654,14,-10,0,0,0,3,1,4
1526902239572654,5,-10,-1,2,0,1,3,0
1526902239573651,-23,9,-6,-2,-4,-2,-3,-2
1526902239573651,-4,1,-2,-4,0,-1,-3,0
1526902239586616,-11,-8,-1,1,3,-4,-3,-8
1526902239586616,5,3,-2,-2,-4,-1,-4,-7
1526902239593597,-9,-26,0,2,1,1,1,7
1526902239593597,26,27,-4,-8,-5,-5,-3,-5
1526902239609555,-23,-15,-6,-7,-5,-2,-7,-1
1526902239609555,3,0,2,-2,3,-3,17,8
1526902239611549,-11,-15,-3,0,-3,-5,-5,-14
1526902239611549,31,28,5,8,5,-2,1,9
1526902239632493,-2,-5,0,-4,2,14,5,-1
1526902239632493,-7,-1,-5,-6,-6,5,-7,-4
1526902239634488,-1,5,-2,-2,-2,-6,-1,9
1526902239634488,-12,-13,-2,-1,-2,-3,0,-3
1526902239646456,16,3,1,0,-2,-4,-3,1
1526902239646456,-38,-27,-2,-2,0,-3,-2,-3
1526902239655432,16,8,-4,0,1,1,0,-1
1526902239655432,-2,12,1,-3,-2,0,-2,1
1526902239670392,-5,-3,-5,-2,0,-1,0,-1
1526902239670392,-7,-13,-1,3,2,1,-3,-1
1526902239671390,-7,2,1,-1,-4,0,-2,-2
1526902239671390,1,-6,-2,0,1,5,-3,-4
1526902239692333,-20,17,-5,-5,-9,-7,-3,0
1526902239692333,2,2,1,-6,-1,-1,1,2
1526902239694329,-12,-33,0,3,8,3,0,-3
1526902239694329,28,37,4,9,3,1,5,9
1526902239706296,-15,-16,-3,1,-2,-2,0,-1
1526902239706296,8,13,-1,-3,-5,-3,-5,-5
1526902239715272,9,9,1,-4,-4,-1,0,7
1526902239715272,3,-21,-4,-4,0,-2,0,-3
1526902239730232,10,3,2,-1,-2,-2,1,4
1526902239730232,-28,-14,-2,0,-1,2,-10,-7
1526902239731230,22,24,1,-2,-2,-5,16,3
1526902239731230,-3,-9,-1,-1,-4,-4,-1,0
1526902239754168,-8,1,-3,1,2,-1,1,-1
1526902239754168,10,-10,-5,-2,0,-3,-1,-3
1526902239755166,-5,-6,-1,-1,-1,-4,-5,0
1526902239755166,-9,-19,-6,-4,-4,5,1,-2
1526902239766136,-2,12,4,0,2,1,1,3
1526902239766136,18,2,1,1,-2,-1,-3,-2
1526902239775112,0,8,0,1,-1,5,-4,-4
1526902239775112,-13,-2,-1,-6,-2,-4,1,-1
1526902239790072,17,1,7,11,6,-2,-1,0
1526902239790072,-25,-20,-5,-1,-2,3,3,0
1526902239792067,-8,1,-2,3,-1,-5,-2,0
1526902239792067,10,7,6,1,-2,-3,-3,0
1526902239812013,-16,-14,-4,-5,-1,1,-1,-1
1526902239812013,29,19,5,10,4,1,3,3
1526902239814008,-16,-23,-3,-4,-1,1,-1,-1
1526902239814008,1,15,-1,-3,1,0,-2,0
1526902239825976,16,0,1,-3,-4,-2,-1,-4
1526902239825976,-6,17,-1,1,1,-3,2,1
1526902239834952,-20,-20,-4,-5,-1,0,-6,-1
1526902239834952,-6,-7,1,2,1,0,0,-2
1526902239849912,6,3,3,0,-1,-4,-2,-6
1526902239849912,-3,-13,0,-2,-3,-1,0,-1
1526902239851907,32,16,1,1,-1,2,2,14
1526902239851907,-41,-20,-7,-3,-7,-5,-7,-22
1526902239872851,3,10,0,-1,3,9,1,5
1526902239872851,7,6,2,1,-1,0,-2,-4
1526902239873848,-20,-27,0,-6,-1,4,0,-7
1526902239873848,37,30,-1,-3,-8,-17,-11,5
1526902239885816,-13,-7,-4,2,7,9,2,-4
1526902239885816,1,-1,-7,-7,-3,0,-3,-5
1526902239894792,5,-1,3,0,-4,0,-3,-1
1526902239894792,-17,-17,-1,1,5,-2,2,-1
1526902239909752,14,16,-3,-6,-6,5,0,-1
1526902239909752,5,0,2,0,1,-4,2,2
1526902239911747,-7,-4,0,4,-1,4,-3,-8
1526902239911747,5,1,-1,-2,0,3,3,3
1526902239932690,-16,-8,-3,0,-3,-8,0,3
1526902239932690,-31,-34,0,1,0,7,2,0
1526902239933688,39,37,-2,-2,-1,-2,-3,-3
1526902239933688,-17,-16,5,4,1,2,2,0
1526902239945656,0,-3,-3,-6,-2,-7,-1,-4
1526902239945656,8,10,-2,-1,0,-2,-2,1
1526902239955629,-14,-19,-2,0,0,-4,-1,-2
1526902239955629,0,-10,-4,-1,1,1,1,0
1526902239969592,21,26,1,-4,-2,-3,-1,5
1526902239969592,-7,-2,1,0,1,1,0,-1
1526902239971587,16,0,-6,-2,-3,-2,-2,-6
1526902239971587,4,-4,1,2,0,4,3,4
1526902239992531,-33,-13,-3,-3,-4,-4,-2,-2
1526902239992531,-1,-7,-1,2,1,-1,0,-2
1526902239994525,2,10,3,1,0,-2,2,1
1526902239994525,-10,-22,-5,-2,-3,-13,-6,-3
1526902240006493,19,24,0,0,3,15,-1,-1
1526902240006493,0,-2,-1,-3,0,-1,0,3
1526902240015469,13,12,1,1,-1,4,-5,3
1526902240015469,-12,-11,-6,-8,-5,-6,12,-6
1526902240030429,1,-4,0,-2,0,-8,-3,-1
1526902240030429,-2,15,0,-1,-2,0,0,1
1526902240031427,-4,-6,-1,5,2,-15,-5,-4
1526902240031427,6,12,0,-1,-4,15,-1,0
1526902240052370,1,-13,2,5,3,-2,1,1
1526902240052370,-12,-16,-5,-4,-3,-2,-2,-8
1526902240054365,40,30,6,-2,3,-1,3,8
1526902240054365,-29,-5,-3,-2,-1,-5,-4,-5
1526902240066333,-8,-6,-3,-1,-3,-2,-1,-2
1526902240066333,11,13,1,-2,-1,-3,-6,-4
1526902240075309,-24,-30,-7,-4,-5,-10,4,-4
1526902240075309,-3,7,-2,2,4,14,-2,1
1526902240090269,11,-10,0,1,-4,1,-1,2
1526902240090269,5,10,3,1,0,-4,0,-5
1526902240091267,15,10,-1,-6,-7,-1,-2,0
1526902240091267,-1,0,1,-2,5,0,0,4
1526902240112210,-18,-29,-3,8,3,-3,2,-4
1526902240112210,5,15,-3,5,2,2,0,6
1526902240114206,-11,-8,-2,0,0,2,0,-5
1526902240114206,-3,9,2,-3,-5,-3,-2,-4
1526902240126173,8,4,-2,-8,-2,-16,-5,1
1526902240126173,-2,-8,-2,-5,-3,10,0,-3
1526902240135149,-12,-8,2,1,-6,6,-4,-2
1526902240135149,2,2,-4,0,12,2,8,1
1526902240150109,5,-5,1,6,2,8,6,-3
1526902240150109,-5,12,-1,-2,-4,-8,-2,-1
1526902240152104,-12,-4,-1,2,1,-3,6,-2
1526902240152104,13,5,-1,-2,-6,3,-6,3
1526902240172050,-14,-6,-3,-5,-4,-6,-5,-9
1526902240172050,17,3,0,-6,-3,-3,2,0
1526902240174045,-25,-24,-2,4,3,4,-7,0
1526902240174045,33,35,1,3,-1,2,0,6
1526902240186013,-3,-13,-3,-2,0,-1,-2,-1
1526902240186013,3,17,4,1,-5,1,-4,3
1526902240194989,-4,-11,-3,-4,4,-4,0,-3
1526902240194989,-6,-4,-1,-1,0,-6,-1,-2
1526902240209949,1,-3,-5,-4,-5,-1,3,2
1526902240209949,-13,-13,2,1,0,0,-2,-4
1526902240211944,-5,1,-3,-4,0,-1,1,-1
1526902240211944,-1,-1,1,-4,-7,-3,0,-1
1526902240232888,1,4,2,9,5,6,-3,1
1526902240232888,-2,-11,-7,-8,-1,-7,-9,0
1526902240233885,-3,-4,-1,-7,1,1,11,-3
1526902240233885,-11,-4,2,18,3,-5,-2,-2
1526902240245853,1,17,-1,-7,-3,13,-2,0
1526902240245853,0,-9,0,3,5,0,3,-2
1526902240254829,19,23,0,-3,-6,-5,-5,2
1526902240254829,-11,-19,2,-4,-1,-2,-3,-4
1526902240269789,8,4,-1,-1,-6,-4,0,4
1526902240269789,2,3,-3,0,2,15,1,0
1526902240275773,12,-2,-1,-3,0,-13,-3,0
1526902240275773,-16,-13,-2,-4,-2,-3,-2,-5
1526902240292728,-12,-3,3,2,0,-5,-2,-1
1526902240292728,13,1,0,-2,-2,4,3,4
1526902240293725,-14,-3,-4,-1,-1,-1,-2,-2
1526902240293725,14,7,1,2,2,3,-1,4
1526902240305693,-16,-8,-4,-6,-3,-7,-2,-7
1526902240305693,-2,-5,-4,2,0,-6,-1,0
1526902240315666,-3,-9,0,6,2,8,1,-3
1526902240315666,-5,-3,-7,-5,-4,-12,-7,0
1526902240329629,18,32,3,3,1,6,12,1
1526902240329629,-2,-9,-3,-3,0,1,-13,-3
1526902240336610,-8,-11,1,0,-5,1,3,-2
1526902240336610,3,-1,-2,-4,1,-1,1,0
1526902240352568,7,-13,1,4,-3,-6,-2,0
1526902240352568,-8,20,0,-1,5,3,-6,-1
1526902240354562,-9,-2,1,6,1,5,1,2
1526902240354562,-2,-19,-4,-2,0,4,1,-1
1526902240375506,-7,-9,-3,-6,-1,-7,-3,0
1526902240375506,-13,-8,3,2,-2,-5,4,2
1526902240376504,4,5,-5,-5,-1,2,-5,-1
1526902240376504,7,18,2,0,-1,-2,1,3
1526902240389469,-13,-12,1,3,2,18,-3,-1
1526902240389469,11,-9,2,-1,-5,-39,0,-6
1526902240396450,13,34,-7,-7,-1,15,1,5
1526902240396450,-16,-19,-3,2,-2,0,-2,-5
1526902240412407,13,14,-1,-4,-3,-1,-5,-7
1526902240412407,-15,-25,0,3,-1,4,2,-2
1526902240414403,4,0,0,1,2,-7,-5,-2
1526902240414403,1,7,-3,-5,-3,2,-8,-1
1526902240435346,0,0,3,11,7,-6,6,0
1526902240435346,-10,-12,-12,-4,-2,1,6,5
1526902240436344,-1,-10,2,-3,-7,-7,-4,-5
1526902240436344,-6,1,-1,-1,3,8,-2,0
1526902240449309,-8,-12,-2,-3,-3,-8,-3,0
1526902240449309,12,-2,2,0,-2,3,-3,-4
1526902240456290,25,34,0,1,1,0,2,1
1526902240456290,-37,-22,-5,-7,-18,-12,0,-7
1526902240472248,1,3,0,0,9,12,2,3
1526902240472248,28,6,0,1,-1,0,1,-1
1526902240474242,-27,-28,-7,-4,2,3,-1,1
1526902240474242,2,11,5,2,-5,-9,0,-5
1526902240495186,-3,0,2,-1,-5,-20,-6,-2
1526902240495186,5,-1,-1,-3,1,23,2,1
1526902240496184,10,23,-1,0,-2,-6,0,3
1526902240496184,6,-8,1,3,5,6,4,2
1526902240509149,-3,-1,0,0,-3,-1,-1,0
1526902240509149,-7,9,-1,-5,-5,-6,-6,-8
1526902240516130,-2,-21,-5,1,1,-1,0,2
1526902240516130,2,1,-3,-1,1,1,-3,-3
1526902240532088,4,-9,-4,-9,-5,0,3,1
1526902240532088,5,12,9,2,0,-5,1,-5
1526902240534083,5,-3,2,-2,-1,1,-2,3
1526902240534083,0,0,-4,-1,2,-7,3,1
1526902240555026,2,11,1,3,-1,11,-6,-3
1526902240555026,0,6,-6,-5,-1,1,1,-4
1526902240557021,-6,-5,5,2,0,-1,-1,-1
1526902240557021,23,-4,4,0,1,2,1,2
1526902240568989,-10,-4,-5,-4,-3,-4,-3,-4
1526902240568989,1,7,1,0,-3,-16,-2,2
1526902240575970,-18,-32,-7,-2,2,6,0,-9
1526902240575970,36,48,8,-1,-3,13,-1,7
1526902240592925,-30,-17,-1,2,0,-2,-1,-8
1526902240592925,-27,-16,-8,-2,1,0,-8,3
1526902240593922,2,-8,-2,-1,0,-8,-1,-2
1526902240593922,7,-3,-1,2,1,-4,2,-5
1526902240614866,1,0,2,-3,-1,-3,2,4
1526902240614866,19,13,2,-1,0,1,-2,4
1526902240616861,-1,-5,1,1,1,-1,-4,-5
1526902240616861,-26,-27,-8,-1,0,1,-3,-7
1526902240628829,13,20,-2,-2,-2,0,-1,7
1526902240628829,8,-2,3,4,2,3,3,-2
1526902240637805,3,16,-1,-4,-7,-13,-3,2
1526902240637805,7,0,2,0,-1,13,2,2
1526902240652765,9,-4,-7,-3,0,-1,-5,-1
1526902240652765,-6,-7,-2,0,1,-4,8,2
1526902240653762,-13,-22,-1,-1,1,-1,2,-5
1526902240653762,1,3,-3,-3,-2,-7,-3,3
1526902240674706,-15,-21,1,1,2,2,-12,-8
1526902240674706,2,25,-3,-3,0,-2,7,6
1526902240676701,4,-1,1,2,0,0,-5,-1
1526902240676701,-10,-1,-3,-1,-3,-8,3,-2
1526902240689666,1,-4,-4,-2,1,7,2,3
1526902240689666,8,3,4,2,1,-1,-1,1
1526902240695650,-11,-5,-3,-3,-4,-10,-4,-9
1526902240695650,2,2,2,1,2,9,-3,2
1526902240712605,3,1,-2,-2,-3,6,4,-3
1526902240712605,-17,-8,-2,-1,1,4,-1,-2
1526902240714600,15,0,5,1,3,4,-10,5
1526902240714600,9,7,1,2,-1,-6,14,1
1526902240735543,17,32,0,-3,-1,-13,1,2
1526902240735543,-4,-21,-1,-1,-3,-1,-2,-4
1526902240736541,-1,9,3,4,0,-2,-6,-1
1526902240736541,-11,-14,-2,-1,1,7,-7,-4
1526902240748509,-9,-19,1,2,2,-2,4,0
1526902240748509,20,11,-5,-5,-6,-5,-1,5
1526902240757485,-12,1,-2,-3,-1,3,6,-1
1526902240757485,18,16,-2,-2,-1,-7,-4,4
1526902240772445,-6,-3,0,0,-1,-8,1,-5
1526902240772445,-11,-12,0,2,3,8,-2,-7
1526902240774440,2,-2,-6,-4,-4,-1,2,2
1526902240774440,-7,3,-1,-2,-1,-5,-4,-3
1526902240795383,7,-3,-2,-3,-2,6,-1,5
1526902240795383,4,-2,3,0,0,2,-8,0
1526902240796381,5,18,1,-2,0,0,2,-5
1526902240796381,-23,-21,-3,-2,-7,-19,-1,-8
1526902240808349,2,13,2,0,2,3,0,2
1526902240808349,2,-4,-6,-10,-7,3,-4,-6
1526902240817325,2,-8,0,-1,-5,3,2,-1
1526902240817325,-6,2,-2,4,2,2,-4,-1
1526902240832284,-13,-14,2,1,0,0,-1,0
1526902240832284,2,-1,0,1,-1,-9,2,0
1526902240834280,6,2,-1,-2,0,7,-4,-4
1526902240834280,1,3,-4,-5,-3,-6,0,0
1526902240855223,-7,-12,-3,-2,-5,-6,-1,-6
1526902240855223,-17,0,-2,-2,0,12,-8,0
1526902240856221,17,5,6,5,1,-1,5,5
1526902240856221,2,-4,0,2,2,5,-4,1
1526902240868189,-3,-3,-2,-2,-2,-7,1,0
1526902240868189,1,-12,-5,0,-1,-5,-3,-2
1526902240878162,-5,4,-10,-4,-4,9,4,-1
1526902240878162,-4,0,0,1,0,0,1,0
1526902240892125,12,10,2,-2,-2,-5,-6,4
1526902240892125,-5,-2,-1,-2,-2,3,1,-3
1526902240894120,-8,-20,-3,2,1,-5,2,-2
1526902240894120,2,2,-1,-1,1,4,-2,2
1526902240915063,-4,5,0,2,-1,-9,5,-1
1526902240915063,5,-5,0,0,-1,-2,3,1
1526902240917058,-4,-3,-4,-2,-2,-14,-6,1
1526902240917058,-6,-1,-2,0,5,38,-9,-1
1526902240929026,17,7,3,2,1,-47,-3,2
1526902240929026,-8,4,0,2,-1,-9,18,0
1526902240938002,-6,-8,-2,0,1,3,1,0
1526902240938002,4,5,-1,-2,-2,-12,0,-2
1526902240952962,-22,-13,-6,-1,1,21,-5,-1
1526902240952962,22,5,1,0,-3,-12,-1,5
1526902240953960,-18,-6,1,-2,-1,11,-3,-8
1526902240953960,3,-4,3,0,-3,-8,-1,-5
1526902240974903,-7,-8,-11,-4,1,15,3,1
1526902240974903,4,12,-1,-3,0,-5,-7,3
1526902240976898,-4,3,-3,-2,1,3,0,2
1526902240976898,0,-1,1,-1,-5,-13,9,-1
1526902240988866,7,-6,-1,0,-1,12,-4,-8
1526902240988866,-4,2,-7,-2,-1,2,1,4
1526902240997842,2,6,4,1,1,-3,2,2
1526902240997842,3,13,-2,-2,-2,-5,-2,-5
1526902241012802,-12,-16,3,-3,2,9,-5,5
1526902241012802,2,7,7,6,9,12,11,-1
1526902241013800,11,3,-1,1,0,-1,-2,-4
1526902241013800,-14,-16,-4,1,4,6,5,-2
1526902241034744,6,2,-5,-1,-8,-14,-4,-2
1526902241034744,16,7,0,-9,-5,6,-5,4
1526902241036738,0,1,2,4,8,35,-1,-5
1526902241036738,3,-2,-1,0,-11,-13,3,5
1526902241048706,4,6,-2,-2,1,7,-2,-2
1526902241048706,-8,-4,2,12,-27,-28,-7,-2
1526902241057682,6,1,1,-3,30,7,-3,-4
1526902241057682,-9,-16,-3,1,-2,15,-5,-5
1526902241071644,-6,1,-3,-2,1,0,0,-1
1526902241071644,19,5,-2,-7,-2,5,1,-1
1526902241078626,4,5,-1,-5,-16,-20,4,9
1526902241078626,-4,2,5,1,1,-6,-3,-6
1526902241094583,-17,-18,-2,-1,0,-1,1,-4
1526902241094583,10,10,0,1,2,-2,2,-1
1526902241096578,10,3,4,0,-5,-8,-1,3
1526902241096578,-22,-25,-6,-1,6,8,0,0
1526902241108546,11,12,-3,-2,-6,-1,-5,2
1526902241108546,-6,-23,-4,-2,5,-9,-3,-6
1526902241117522,-13,30,0,-2,6,9,-6,-2
1526902241117522,-7,-11,0,-1,-5,-10,1,-4
1526902241132482,15,15,4,3,0,22,4,4
1526902241132482,-14,-15,-1,2,9,8,3,-2
1526902241134477,0,-10,-5,-3,-11,-16,-4,-5
1526902241134477,13,18,3,1,-2,-3,-1,-2
1526902241155420,-9,-1,-1,-4,0,-5,-1,-3
1526902241155420,0,0,0,-2,-1,3,-5,0
1526902241156418,-3,-11,-2,-1,-8,-5,2,1
1526902241156418,-10,2,-5,-1,2,3,-17,1
1526902241168386,2,8,5,2,-2,-10,16,-3
1526902241168386,-2,3,-5,-3,-1,-12,-3,-2
1526902241177362,-14,-20,-5,0,-3,7,1,-6
1526902241177362,19,7,2,1,4,5,-11,2
1526902241192322,-5,1,4,-2,-3,-7,-4,4
1526902241192322,-14,-8,-5,0,1,3,-4,-10
1526902241198306,9,4,1,-1,-3,-7,2,1
1526902241198306,-3,2,2,0,-3,-2,1,0
1526902241215260,3,-4,3,3,0,4,0,2
1526902241215260,3,11,-1,-3,0,2,0,1
1526902241216258,-16,-20,-8,-1,-5,-3,-4,-4
1526902241216258,0,5,-3,-3,-2,-9,4,-2
1526902241228226,4,1,-3,-1,-2,3,-2,9
1526902241228226,3,0,2,2,3,6,-4,-7
1526902241238200,5,9,-4,-2,-2,-8,2,0
1526902241238200,0,5,2,-1,-2,-17,3,0
1526902241252162,-14,-7,-3,-4,1,10,-6,-6
1526902241252162,1,-11,1,1,-1,2,2,-1
1526902241259143,0,2,-1,-2,-2,0,0,1
1526902241259143,11,10,1,1,1,-5,8,4
1526902241275100,-2,2,-3,1,0,-2,-11,-4
1526902241275100,-3,-5,4,1,-4,-1,13,-1
1526902241277096,2,-3,-3,-2,-4,-8,0,-3
1526902241277096,-11,-9,-5,-3,1,7,-2,3
1526902241297042,-2,-4,-1,0,0,-3,0,-6
1526902241297042,2,14,3,-3,-1,2,-5,3
1526902241299037,-9,-3,0,-1,-3,-6,1,2
1526902241299037,4,4,-8,-5,-2,2,-4,-9
1526902241312002,-6,-6,1,2,1,3,3,-2
1526902241312002,0,-2,-5,-5,-3,-8,-6,-4
1526902241318983,11,-3,-1,1,-1,3,-2,0
1526902241318983,-6,-7,-2,-2,-2,-4,-3,-2
1526902241334941,4,3,-1,-2,-3,-12,-8,-3
1526902241334941,-2,3,3,3,4,20,10,-2
1526902241336935,8,-3,-2,0,-1,-7,-1,-1
1526902241336935,12,6,2,0,0,5,1,3
1526902241357879,1,1,-1,1,0,-1,1,-1
1526902241357879,-13,-10,-2,2,4,15,-15,-2
1526902241358877,5,4,-1,-4,-7,-3,20,3
1526902241358877,4,8,-4,-1,-3,-8,6,2
1526902241371842,0,-8,0,-3,-1,2,0,-4
1526902241371842,-4,-6,-6,-2,-1,25,-1,0
1526902241378823,-6,-17,-4,-1,-4,-39,-9,-4
1526902241378823,-6,-5,4,3,2,7,-3,0
1526902241394780,10,10,-2,-5,-5,-10,4,1
1526902241394780,1,-11,-1,-1,0,-6,-8,-2
1526902241396775,-19,15,-2,0,1,-1,7,-1
1526902241396775,-7,-19,-8,-8,-3,-7,1,-6
1526902241417719,5,7,2,-1,0,-7,-3,0
1526902241417719,-3,-4,1,1,-1,-20,-1,0
1526902241418717,-6,-13,0,0,1,23,-5,2
1526902241418717,11,15,0,0,0,0,-3,-2
1526902241431681,3,12,5,4,4,8,6,-3
1526902241431681,3,2,-4,-5,-4,-17,-4,-5
1526902241438663,0,-11,-4,-1,1,14,-3,-4
1526902241438663,3,9,4,3,0,3,3,2
1526902241454620,3,-8,-4,-3,-1,0,-1,1
1526902241454620,8,9,-1,0,0,-10,1,0
1526902241456615,-4,1,1,-2,-1,-3,-6,-1
1526902241456615,-11,-11,-1,0,0,6,-3,-4
1526902241477559,2,-3,-2,1,-1,-21,-12,1
1526902241477559,0,-3,-2,-1,0,-10,25,1
1526902241479554,9,1,-3,1,2,7,-5,1
1526902241479554,-10,9,-2,-5,-8,-5,-1,0
1526902241491522,5,-6,1,1,2,12,0,3
1526902241491522,-7,-13,-2,3,1,3,-10,-1
1526902241498503,6,6,3,3,4,2,-3,0
1526902241498503,6,0,-6,-2,0,-13,0,5
1526902241515458,-17,-11,-2,-4,-2,27,2,-4
1526902241515458,13,11,0,-4,-7,-27,-6,1
1526902241516455,12,3,4,3,1,3,2,0
1526902241516455,-11,-4,-3,-1,-3,-3,-5,1
1526902241537399,-1,-3,-1,1,0,-2,4,0
1526902241537399,-12,-7,-4,-2,0,10,-5,6
1526902241539394,1,-1,-4,-1,0,-4,-5,-6
1526902241539394,-20,-2,-1,-3,-2,0,-2,3
1526902241551361,-6,3,0,0,-1,-9,12,-7
1526902241551361,-2,-11,2,2,1,9,4,5
1526902241560338,21,13,-4,-4,-2,-7,-4,-4
1526902241560338,-13,-12,-1,-2,1,6,2,-9
1526902241575298,-5,-2,-4,-1,-2,-2,-3,-2
1526902241575298,5,10,-1,-2,-6,-16,-9,-4
1526902241576295,-2,-11,3,1,5,30,7,10
1526902241576295,19,1,2,2,1,2,-1,10
1526902241597239,-2,4,2,1,0,-2,-9,-11
1526902241597239,-1,-8,-6,-2,-2,-12,4,2
1526902241599234,7,7,1,-2,-1,-9,-6,-4
1526902241599234,-16,-13,-2,-1,1,4,1,2
1526902241611202,3,18,2,-3,-6,-29,1,4
1526902241611202,0,-5,-4,1,6,21,2,10
1526902241620178,1,-3,-1,-1,-3,0,0,-12
1526902241620178,-23,-14,-3,0,0,-18,1,-26
1526902241635138,16,15,-3,-6,-2,20,-6,11
1526902241635138,-8,-5,1,-3,-3,1,4,-11
1526902241637133,-1,-3,-2,-2,-2,-8,1,7
1526902241637133,5,-6,1,5,-1,-8,-2,4
1526902241657079,-1,-5,-3,5,5,15,-1,-1
1526902241657079,5,7,-1,-4,-5,0,-2,6
1526902241659074,-6,-8,-4,-3,0,1,-1,0
1526902241659074,9,11,4,1,1,-4,-2,2
1526902241671041,-13,-4,-1,-3,-1,-2,-10,2
1526902241671041,7,9,-1,-12,-4,-9,-6,-3
1526902241680018,-10,-3,-6,-14,-18,-1,11,-1
1526902241680018,7,-1,4,23,14,11,-1,0
1526902241694978,-3,-12,-1,9,3,-5,0,-1
1526902241694978,-10,-10,0,1,0,6,-7,-6
1526902241696972,-4,1,2,4,-4,-13,-5,-4
1526902241696972,3,9,-1,-9,-3,27,3,3
1526902241717916,10,-6,-4,-2,-6,-27,4,-2
1526902241717916,4,9,-1,3,0,2,0,-5
1526902241718914,0,-9,-1,-1,4,-10,-2,-1
1526902241718914,-3,8,4,-4,-3,16,-1,-1
1526902241730882,-3,0,-1,-2,1,-3,-2,2
1526902241730882,-2,2,0,-3,-2,7,1,-8
1526902241739858,2,4,-5,1,2,-4,-3,6
1526902241739858,13,-6,2,0,3,12,0,0
1526902241754818,-5,11,-2,-6,-5,-2,2,-1
1526902241754818,8,-1,1,-1,-1,-6,-3,1
1526902241756813,-11,-10,3,5,2,11,-2,-6
1526902241756813,13,1,-5,-4,-5,-18,-1,3
1526902241777756,-9,-12,2,-3,-2,-2,-2,-1
1526902241777756,3,-1,-3,3,3,5,-2,-3
1526902241778753,2,4,0,-1,2,-7,-3,6
1526902241778753,-7,-5,-3,-7,-5,-8,-7,-6
1526902241790721,10,6,-3,-3,-3,0,17,0
1526902241790721,-31,-23,-2,3,3,-2,-3,-2
1526902241800695,26,20,1,-1,0,4,1,2
1526902241800695,13,8,0,-1,-3,-3,2,4
1526902241814657,-7,-8,-3,-1,-2,6,6,1
1526902241814657,-13,-6,-3,-1,-2,-1,0,-7
1526902241816652,5,3,1,-1,-1,-13,-5,0
1526902241816652,-5,-1,-1,-2,-3,5,-1,5
1526902241837596,-15,-4,0,2,-13,1,-3,-12
1526902241837596,11,-7,-1,-3,21,6,-2,6
1526902241839591,-15,3,-1,-2,-2,2,-2,-8
1526902241839591,-16,-7,-9,-4,-3,-12,-8,-12
1526902241851559,-11,-19,-4,-1,2,-3,-4,4
1526902241851559,24,17,2,1,-7,-1,0,-3
1526902241860535,-9,-7,-2,0,1,1,-2,-2
1526902241860535,2,-5,0,0,3,-1,2,3
1526902241875495,9,-1,3,0,1,-1,-3,-2
1526902241875495,-6,9,-10,-4,-8,-5,-3,-3
1526902241876492,-7,-15,-4,0,0,0,-1,0
1526902241876492,-3,9,2,-2,-5,-5,1,2
1526902241897436,11,3,3,-2,3,3,-4,-3
1526902241897436,-3,-12,-1,2,-3,0,-1,1
1526902241899431,-4,3,2,2,-1,-4,0,1
1526902241899431,-10,-7,1,-2,-1,0,3,0
1526902241911399,28,20,7,5,3,-11,-6,-5
1526902241911399,-14,-8,7,2,1,18,1,2
1526902241920375,-6,-7,-4,-2,-2,-1,-1,7
1526902241920375,10,-1,-2,2,2,1,0,-10
1526902241935335,-3,3,-7,-7,0,-1,-2,4
1526902241935335,3,5,4,3,-2,-8,-3,-6
1526902241936332,-3,-4,5,2,1,2,2,0
1526902241936332,5,9,-1,-4,0,-2,-2,-1
1526902241957276,-10,-8,-8,-4,-3,-1,0,10
1526902241957276,-8,-5,-8,-3,-2,-3,0,-4
1526902241959271,-3,-4,-2,-1,1,4,-1,-4
1526902241959271,-10,-9,-4,1,-1,-4,0,1
1526902241971239,4,5,1,0,-2,-7,-10,2
1526902241971239,12,-3,2,-1,-2,6,10,8
1526902241980215,-6,0,-6,-3,-1,0,0,-7
1526902241980215,-14,-15,-3,0,-3,-19,-5,-2
1526902241995175,12,10,5,5,7,30,4,5
1526902241995175,-5,-12,-3,0,0,-4,-14,0
1526902241996172,2,2,1,-1,-1,-3,4,-6
1526902241996172,-10,-11,-5,-6,-4,-3,-2,-3
1526902242017116,10,15,-3,-3,-3,-6,3,0
1526902242017116,-5,-10,0,0,0,-2,-5,-4
1526902242019111,-7,-5,-1,-3,0,4,-5,-5
1526902242019111,4,11,0,0,0,5,1,2
1526902242031079,-15,-17,0,-2,2,-1,3,0
1526902242031079,15,11,-1,-3,-3,-3,2,2
1526902242040055,0,4,0,1,1,0,-1,0
1526902242040055,-5,-6,0,0,1,1,3,5
1526902242055015,2,-4,-2,-2,-3,-7,-2,-6
1526902242055015,16,13,1,-1,-2,7,0,-3
1526902242057010,-14,-11,-2,1,-3,-3,12,1
1526902242057010,11,2,3,1,1,0,-1,0
1526902242077954,-9,-10,-1,-1,0,2,3,-3
1526902242077954,8,6,-6,-5,-3,-6,1,4
1526902242078951,-3,-1,0,1,0,-1,-4,0
1526902242078951,3,11,-2,-2,1,19,-2,0
1526902242090919,-15,-15,-5,-1,-8,-9,-2,-12
1526902242090919,-9,-12,2,5,1,1,2,-3
1526902242099895,19,15,0,-4,-2,1,-3,5
1526902242099895,2,8,3,1,0,2,2,0
1526902242114855,-7,-3,0,-1,-5,-7,-6,-1
1526902242114855,-12,-5,-4,-1,-19,-29,-1,-5
1526902242116849,12,0,3,2,53,40,3,5
1526902242116849,-4,-8,-3,-1,-5,-8,-3,-6
1526902242137793,8,6,0,2,5,8,0,4
1526902242137793,-2,-3,2,1,-4,-2,-1,-4
1526902242138791,-2,10,-7,-6,-19,-16,-3,-1
1526902242138791,3,-4,0,-1,1,0,1,1
1526902242150758,-8,-1,1,0,-19,-8,1,-1
1526902242150758,2,-8,-3,-1,18,14,-1,1
1526902242159735,13,-2,0,-1,-15,-10,-9,0
1526902242159735,-10,0,-4,-3,5,-8,10,-4
1526902242174694,0,2,-2,-2,11,1,2,0
1526902242174694,2,5,2,3,3,7,1,-1
1526902242181676,-6,-9,1,4,-7,-6,-6,2
1526902242181676,-7,-2,2,0,4,-11,15,1
1526902242197633,14,8,-2,-4,-3,7,-2,2
1526902242197633,-13,-4,-5,-4,-2,-6,-3,-6
1526902242199628,7,-3,1,1,6,3,1,0
1526902242199628,-5,-8,-1,1,-14,-1,-8,-69
1526902242219575,-9,0,1,1,3,-5,0,-61
1526902242219575,4,7,2,2,12,29,3,-4
1526902242221570,5,-4,-6,-4,-25,-6,-2,17
1526902242221570,-10,-11,-6,-2,-25,-10,-4,60
1526902242234535,2,-6,-2,1,24,8,-1,32
1526902242234535,9,15,2,-1,-6,-2,-8,13
1526902242241516,-10,-10,-3,-2,-1,-9,11,15
1526902242241516,-3,-3,-2,-2,1,-1,-2,11
1526902242257473,-1,0,-1,-4,9,-5,-1,5
1526902242257473,2,-2,-5,-9,-17,-1,-4,0
1526902242259468,-9,0,3,10,7,14,-8,-5
1526902242259468,6,2,1,3,12,-1,-10,-9
1526902242280412,0,-6,5,5,-10,-32,4,2
1526902242280412,0,-8,-7,-2,5,-9,3,5
1526902242281409,4,7,1,-4,-4,-23,-5,-13
1526902242281409,13,11,2,-2,0,27,2,-2
1526902242294374,-11,-7,-3,-1,-4,11,-4,9
1526902242294374,0,-6,2,-2,-17,-19,0,-2
1526902242301356,1,2,-2,-2,25,11,-3,-11
1526902242301356,-4,1,3,3,-1,7,-7,-1
1526902242317313,1,7,2,-1,-5,-6,11,5
1526902242317313,-9,-10,-1,-3,2,-12,0,-9
1526902242319308,13,5,0,2,-10,-7,3,-4
1526902242319308,-6,1,-1,-2,3,4,-4,3
1526902242340252,5,-6,1,2,6,22,-1,4
1526902242340252,-3,9,-5,-4,-10,-16,-4,-5
1526902242341249,-11,-12,-3,-1,-2,2,0,-2
1526902242341249,9,9,2,-2,0,-10,-4,0
1526902242354215,-3,-9,-1,4,-3,-2,-4,-4
1526902242354215,-3,-4,-1,2,3,12,3,1
1526902242363191,1,6,-1,-2,-5,-9,-1,0
1526902242363191,16,8,-1,1,2,5,-8,5
1526902242377153,-2,-2,-2,-1,-6,-1,-1,-9
1526902242377153,-12,-11,0,1,11,3,-5,-2
1526902242379148,-4,3,-2,-2,-16,-3,0,-2
1526902242379148,-5,-7,-3,-2,-2,-10,-1,-3
1526902242400092,-1,-3,-2,-6,-3,3,-5,1
1526902242400092,6,10,1,1,-5,-8,2,-3
1526902242402087,1,-4,3,0,-15,-16,-3,-3
1526902242402087,-4,1,-4,-3,13,7,3,0
1526902242414054,-3,-4,-3,-2,3,1,0,0
1526902242414054,4,2,0,0,2,10,-1,-1
1526902242421036,-3,-6,-3,-2,-3,-1,2,1
1526902242421036,9,12,2,-1,0,-3,3,-1
1526902242437990,-11,-8,-1,-1,-6,-6,-3,1
1526902242437990,4,-8,-1,1,-2,-5,-3,-3
1526902242438988,-11,4,1,1,7,9,0,-4
1526902242438988,1,-4,-2,-1,-4,-1,2,0
1526902242459932,-2,3,-3,-2,-5,-3,-1,2
1526902242459932,-1,-6,-2,-1,23,8,-2,1
1526902242461927,0,-5,2,-2,-17,-9,-2,-6
1526902242461927,-1,-8,-2,1,4,-3,1,0
1526902242474892,6,9,-4,-2,2,8,-2,1
1526902242474892,-2,-10,-5,-1,-1,-4,1,-1
1526902242480876,-2,1,1,-1,-23,-8,-1,-4
1526902242480876,-22,-16,-3,-3,18,-8,-5,-4
1526902242497830,18,26,6,-2,-3,2,1,7
1526902242497830,1,-9,1,4,5,16,4,4
1526902242498828,5,0,-4,-4,-11,-26,-3,-4
1526902242498828,21,16,1,0,3,35,5,8
1526902242519772,-33,-29,-4,3,-2,-8,-4,-9
1526902242519772,10,2,-5,-4,-11,6,0,1
1526902242521767,-8,-1,2,1,38,22,0,-4
1526902242521767,-7,-9,-3,0,-35,-28,-2,-4
1526902242533735,16,15,2,-4,5,10,2,2
1526902242533735,-9,-9,-1,-2,-4,-12,-1,0
1526902242542711,-7,-2,1,-2,-2,2,-4,-1
1526902242542711,0,-3,0,3,-6,-6,0,0
1526902242557671,8,15,0,0,5,-1,0,3
1526902242557671,-14,-17,-4,-4,-19,-13,-3,-6
1526902242559665,23,12,-4,-2,5,9,4,3
1526902242559665,-12,-10,2,2,-11,-6,0,-2
1526902242579612,9,1,0,-1,26,-5,-3,0
1526902242579612,-15,-14,-3,2,-2,18,5,-2
1526902242581607,-14,-17,-9,-8,-3,3,-2,1
1526902242581607,3,5,-2,-3,2,0,-1,1
1526902242593574,-6,-20,1,3,-13,-8,-2,-6
1526902242593574,20,23,1,0,1,-7,-3,6
1526902242602551,-7,-5,4,4,10,7,2,-8
1526902242602551,-1,0,-7,-5,-1,-8,-6,2
1526902242617510,-10,3,-4,-4,-12,3,-1,-3
1526902242617510,-5,-14,4,4,8,0,-3,-5
1526902242619505,23,22,4,6,1,2,0,2
1526902242619505,-1,-3,-2,0,-2,-1,1,1
1526902242640449,-16,-15,-2,-3,-7,-3,0,1
1526902242640449,12,12,0,5,1,0,0,2
1526902242641446,-24,-20,-5,-1,-1,-1,-4,-8
1526902242641446,23,16,3,-1,-1,-4,-1,2
1526902242653414,16,-1,-2,-2,2,5,0,1
1526902242653414,-17,6,7,0,4,-16,-7,-11
1526902242662390,0,-11,-5,-4,-5,12,1,2
1526902242662390,-9,7,-3,-5,3,1,1,-2
1526902242677350,3,-13,-1,0,-5,0,0,0
1526902242677350,1,20,-3,-8,-5,-5,-1,-4
1526902242679345,11,-2,6,1,2,-6,2,6
1526902242679345,-9,-2,4,1,2,-7,-12,-5
1526902242700289,4,-3,-1,0,-1,11,1,3
1526902242700289,-1,-6,-3,1,0,0,0,-2
1526902242701287,-3,5,-4,-2,2,2,1,-7
1526902242701287,4,-1,1,1,0,4,0,2
1526902242713254,-1,-2,1,2,-2,-12,0,-6
1526902242713254,-1,-7,-4,-1,-1,3,1,2
1526902242722230,7,8,-5,-1,-2,-6,-2,4
1526902242722230,-19,-11,0,0,-3,5,4,-1
1526902242737190,9,8,1,2,-21,-8,0,-4
1526902242737190,12,-2,-2,-2,22,12,0,6
1526902242739185,-1,-3,-3,-2,-1,-4,0,2
1526902242739185,-9,-5,-5,-4,-34,-17,-3,-10
1526902242760129,-11,1,0,1,20,9,-3,-3
1526902242760129,0,-1,-3,1,-4,9,2,0
1526902242762124,-6,-8,-1,-1,-3,-26,-2,1
1526902242762124,8,5,2,0,3,2,2,1
1526902242774092,-9,-5,-1,1,6,0,-9,-5
1526902242774092,14,13,1,0,-9,-10,-4,1
1526902242783068,-10,-3,-1,-4,-2,7,-2,0
1526902242783068,7,3,0,-2,8,-2,5,4
1526902242798028,-11,-15,-6,-7,-13,10,0,0
1526902242798028,21,19,-3,-3,7,-4,0,3
1526902242799025,-12,-9,0,4,7,5,-1,-4
1526902242799025,-2,-5,3,3,5,-1,-1,-2
1526902242819969,1,4,-4,-1,0,3,2,-2
1526902242819969,3,-9,1,-3,-13,-13,-1,0
1526902242821964,-6,0,6,3,-2,14,2,4
1526902242821964,12,6,-12,-8,2,-6,-3,-4
1526902242833932,-6,-8,-1,-2,0,-9,1,1
1526902242833932,-13,-11,0,0,-4,4,3,-2
1526902242842908,0,2,-1,0,1,-8,-2,0
1526902242842908,1,-5,3,7,8,8,0,-2
1526902242857868,3,1,-4,-3,-5,-4,0,2
1526902242857868,-9,-19,-2,-1,-2,-4,-6,-3
1526902242858865,15,19,-2,-3,-1,5,-5,3
1526902242858865,-9,2,-1,-4,1,24,1,-3
1526902242879809,13,-4,-5,-8,-14,-36,-2,3
1526902242879809,-10,0,-1,0,-1,0,19,-4
1526902242881804,-7,-3,-2,1,3,-8,-6,-4
1526902242881804,-3,-6,0,2,6,30,3,1
1526902242893771,-3,-4,0,1,1,-6,-3,-3
1526902242893771,4,5,1,0,-3,1,-6,0
1526902242902748,2,-9,-1,-2,-5,-9,1,0
1526902242902748,-2,9,-2,-2,-6,-15,-5,1
1526902242917707,-9,-9,2,1,4,7,0,-1
1526902242917707,13,8,-1,0,-3,-3,-2,3
1526902242918705,12,10,2,0,0,7,1,-4
1526902242918705,-10,-12,-2,-1,0,-11,-5,0
1526902242939649,4,3,-3,0,2,7,-1,4
1526902242939649,-5,-6,-4,-1,0,5,-5,-7
1526902242941644,-4,-2,1,1,-1,-5,0,1
1526902242941644,-5,-8,-1,-3,-1,-4,-1,-4
1526902242953612,-2,0,0,0,8,3,-7,-4
1526902242953612,5,12,2,-1,-9,-26,-1,0
1526902242962588,5,1,-1,-2,4,35,5,1
1526902242962588,-4,-2,2,2,1,-14,-1,1
1526902242977547,5,2,-1,-2,-2,-15,-6,-2
1526902242977547,-13,-14,-3,0,3,-5,7,-3
1526902242979542,16,11,-1,-1,-2,-8,-4,0
1526902242979542,0,-3,1,1,3,7,1,3
1526902243000486,-5,-4,-3,-2,-6,-8,0,-8
1526902243000486,3,-1,0,-1,-1,-1,-7,2
1526902243001484,-4,-3,-2,2,0,3,0,-3
1526902243001484,3,5,2,0,2,-1,-1,2
1526902243013451,-6,3,1,-2,-4,-1,1,2
1526902243013451,5,5,-4,-5,-4,-8,-6,-7
1526902243022427,-6,-5,2,1,1,16,0,-3
1526902243022427,-14,-13,-4,0,1,-3,-2,-3
1526902243037387,8,5,-2,-4,-1,2,1,-2
1526902243037387,0,-2,2,-2,5,6,-1,4
1526902243039382,-4,-4,-2,-2,-6,-14,0,-4
1526902243039382,-8,-4,-1,-1,-6,-3,0,-3
1526902243060326,14,5,-2,-1,-1,7,4,5
1526902243060326,-16,-7,-2,2,1,3,-3,-9
1526902243061324,3,2,-3,-1,-2,-6,-1,11
1526902243061324,-2,-4,0,-1,-5,-15,-2,-6
1526902243073292,10,-1,0,1,8,23,5,9
1526902243073292,-15,2,-2,0,-3,5,-3,-6
1526902243082267,4,-7,2,1,-12,-7,0,-1
1526902243082267,-5,7,-1,-2,-4,-2,-8,3
1526902243097227,28,7,7,6,10,0,4,13
1526902243097227,-28,-3,-4,-1,1,2,-6,-23
1526902243103211,-21,-9,-10,-7,-1,-5,0,1
1526902243103211,1,-5,-3,-2,-5,-2,-2,2
1526902243120166,-3,5,2,1,-26,-9,-3,0
1526902243120166,20,-1,5,5,1,-3,2,11
1526902243121164,-6,-3,-4,-3,51,35,-2,-2
1526902243121164,15,4,-1,-1,0,1,3,2
1526902243134129,-2,0,-3,-2,-5,4,1,-2
1526902243134129,-3,-15,-2,-1,-5,-3,2,9
1526902243143105,8,20,0,-3,-16,-19,-3,-3
1526902243143105,5,5,6,4,5,6,2,0
1526902243157067,-9,-1,0,1,8,1,-1,-8
1526902243157067,-8,-11,-7,-1,-4,-2,-3,1
1526902243164049,7,10,5,2,-4,-7,0,-4
1526902243164049,0,3,-2,-4,2,3,3,3
1526902243180006,6,7,2,-1,-5,-10,-4,-7
1526902243180006,-1,-4,-5,-4,2,1,2,3
1526902243182001,-5,-5,-1,-2,-10,-4,-4,-4
1526902243182001,-2,-5,2,0,-1,1,0,-5
1526902243202945,-9,0,-4,-2,2,-1,-1,-5
1526902243202945,10,-1,1,0,8,-8,-1,14
1526902243203942,12,10,2,1,-8,11,1,-6
1526902243203942,-15,-2,-1,-1,-2,-3,-1,-6
1526902243216907,-9,-22,-6,0,2,-13,-12,-3
1526902243216907,25,16,4,1,3,25,3,1
1526902243223889,-10,-11,-4,-2,-7,-11,-1,2
1526902243223889,-6,-1,-3,-1,0,-1,0,-2
1526902243239846,-1,1,2,3,5,1,-2,0
1526902243239846,4,-2,1,0,1,-6,0,4
1526902243241841,-7,1,-2,-1,-6,-7,-1,-3
1526902243241841,4,9,2,0,-1,5,-1,-3
1526902243262785,8,6,-8,-4,-1,-2,1,1
1526902243262785,2,-4,0,1,-3,-1,-4,-8
1526902243263782,4,-12,-3,-3,0,-1,2,8
1526902243263782,-7,0,-4,-3,0,-6,-6,-11
1526902243276747,-5,-8,-4,-2,-5,0,-2,-3
1526902243276747,8,3,2,1,-1,1,-1,2
1526902243283729,-19,-21,-2,1,-1,0,-1,-6
1526902243283729,12,-3,-3,0,0,-2,2,5
1526902243299686,2,7,-3,-4,-2,-12,-1,1
1526902243299686,-7,3,-6,-3,-3,19,0,-4
1526902243301681,-2,-3,3,2,1,-4,-1,6
1526902243301681,-3,-2,2,-2,-2,1,-3,-9
1526902243322624,-16,-12,-5,-1,1,0,16,-4
1526902243322624,6,-4,-1,-1,-2,-8,1,2
1526902243324620,4,8,0,-2,-4,-2,-2,0
1526902243324620,1,-1,1,0,1,1,-3,4
1526902243336587,11,2,-3,1,0,-4,-6,-2
1526902243336587,-11,-6,-3,-5,-5,6,0,-5
1526902243343569,11,8,-2,-1,-2,-2,-1,4
1526902243343569,-9,-16,-3,0,0,0,-2,-7
1526902243360523,-1,12,7,3,0,-33,-7,-6
1526902243360523,-3,-7,0,1,-1,16,3,-1
1526902243361521,-6,-10,0,0,4,-3,-2,-5
1526902243361521,8,-2,-3,0,2,5,3,6
1526902243382465,0,1,2,0,-2,6,1,2
1526902243382465,4,2,-3,-1,-2,-11,-5,-4
1526902243384460,-13,-7,-3,-1,-3,-2,0,1
1526902243384460,4,1,-2,-2,-1,1,-10,-4
1526902243396427,-18,-16,-3,-2,2,12,2,-1
1526902243396427,-2,16,1,2,-2,-10,-3,-1
1526902243403408,0,-10,2,-1,-3,-28,-14,-1
1526902243403408,5,1,-3,0,3,12,13,7
1526902243420363,-9,-7,1,1,-1,10,-2,-7
1526902243420363,6,-5,-2,-3,-2,-5,1,0
1526902243421361,-9,-2,-1,-1,1,-3,-6,-5
1526902243421361,5,7,0,-2,-3,-9,-4,5
1526902243442305,9,2,3,-1,1,6,-1,3
1526902243442305,-5,2,5,2,4,-3,0,-5
1526902243444300,5,5,-1,1,1,5,3,-7
1526902243444300,2,-2,0,-1,-2,-2,-1,8
1526902243456267,1,4,-7,-6,-3,10,2,0
1526902243456267,-5,-3,-2,-2,-2,-8,-4,-1
1526902243465243,2,-1,-4,-1,-2,7,3,-1
1526902243465243,2,8,0,1,-3,-5,-2,-3
1526902243480203,-3,-1,0,1,2,-1,-6,-2
1526902243480203,17,1,5,2,1,2,-4,4
1526902243481201,-24,-3,-8,-4,-4,-3,1,-6
1526902243481201,1,1,-2,-2,2,22,4,1
1526902243502145,-2,-11,2,1,-3,-6,-6,-3
1526902243502145,10,16,0,-2,4,14,14,6
1526902243504139,1,-4,1,0,-3,-2,2,-2
1526902243504139,-14,-8,-2,0,-1,-4,0,-3
1526902243516107,6,14,4,1,3,16,-14,5
1526902243516107,-1,-16,-5,-4,-7,-7,10,-2
1526902243525084,5,12,3,3,-1,5,2,3
1526902243525084,6,0,-2,-1,4,-8,0,2
1526902243540043,-4,-10,-4,-3,-3,4,-1,-6
1526902243540043,-14,-4,-2,0,-3,-7,-6,-2
1526902243542038,11,10,5,1,0,3,2,2
1526902243542038,-3,-7,3,0,-2,-5,-7,-2
1526902243562982,0,-4,-4,-3,0,-10,20,-2
1526902243562982,10,13,-4,-3,-4,-10,-5,0
1526902243563979,-3,-6,-1,0,1,16,2,1
1526902243563979,3,15,4,0,-5,-7,-3,7
1526902243575947,-2,-1,1,2,3,5,-3,-8
1526902243575947,-9,-11,-2,1,0,-4,-2,3
1526902243584923,4,-6,-1,1,-1,-19,-5,-6
1526902243584923,-5,9,-5,-4,-3,11,1,0
1526902243599883,-3,-8,-6,-5,-4,1,1,3
1526902243599883,-10,-7,2,2,2,15,-7,-6
1526902243601878,14,-4,-1,1,3,1,3,3
1526902243601878,-5,-5,-3,-1,-2,-6,0,-2
1526902243622822,7,10,4,1,-1,-8,-1,1
1526902243622822,-5,-11,-7,-3,-22,-5,-5,-5
1526902243623819,-8,-5,-3,-3,12,5,0,0
1526902243623819,6,5,-1,-2,-1,-7,-1,-3
1526902243635787,1,-4,-3,0,1,7,-1,1
1526902243635787,-1,-4,-1,-1,-25,-34,-12,-1
1526902243644763,3,6,2,2,17,32,-5,-6
1526902243644763,-16,-12,-4,-2,-2,-8,6,-3
1526902243659723,7,-2,-1,-2,2,2,-2,4
1526902243659723,3,0,1,-1,1,1,-2,-6
1526902243661718,-13,-5,-6,-5,-11,-15,-3,0
1526902243661718,11,3,0,-2,1,0,-3,-2
1526902243682662,-1,2,1,-1,-9,-4,-1,2
1526902243682662,-7,-1,-1,-2,16,-1,-1,-9
1526902243684657,-2,-6,-2,-1,-5,1,2,1
1526902243684657,16,7,7,6,4,3,4,3
1526902243696625,-29,-13,-9,-5,-8,-19,-8,-10
1526902243696625,19,7,0,3,8,19,3,0
1526902243705601,-15,2,-2,-5,-9,-26,-1,-2
1526902243705601,4,-1,-2,-2,-12,-11,1,4
1526902243719563,5,3,2,-1,2,0,-1,-1
1526902243719563,-12,-17,-1,0,6,12,4,0
1526902243721558,17,8,0,-2,-30,-11,-1,-3
1526902243721558,-12,-2,-5,-2,41,18,-6,-8
1526902243742502,-1,-8,-2,1,0,2,3,0
1526902243742502,9,8,-3,-3,-1,-4,-1,4
1526902243744497,-3,-6,0,-2,-1,1,1,2
1526902243744497,0,5,2,0,-14,-8,-7,5
1526902243756464,0,8,1,2,-7,-7,-4,-5
1526902243756464,-13,-12,-6,-3,33,20,1,6
1526902243765441,2,5,-1,-3,-6,-18,-1,-3
1526902243765441,-17,-16,0,0,-5,2,-2,-7
1526902243780400,21,4,-2,-1,4,6,2,13
1526902243780400,7,6,-1,0,-12,-13,4,2
1526902243781398,-1,-7,5,3,8,9,0,2
1526902243781398,-7,-5,-3,-1,0,-1,-3,-6
1526902243802342,-3,-1,-2,-1,-5,-4,-1,-9
1526902243802342,-8,-8,-1,0,-5,-3,-2,0
1526902243804337,0,13,-4,-2,5,8,0,-6
1526902243804337,1,-11,0,1,-6,-4,-1,4
1526902243816305,-3,7,4,3,2,1,-2,-2
1526902243816305,18,10,4,1,-1,-5,1,10
1526902243825281,-11,-5,0,0,8,18,-1,-6
1526902243825281,2,-3,-4,-2,-47,-31,0,-1
1526902243841238,-2,-3,-3,-2,45,14,-2,-2
1526902243841238,-11,-1,-1,1,-2,10,0,-5
1526902243842235,17,12,2,-1,-2,-6,1,9
1526902243842235,-18,-19,-8,-3,-2,7,-6,-6
1526902243862182,15,14,1,2,-10,-9,3,4
1526902243862182,-2,-8,1,-1,-5,-8,-5,-5
1526902243864176,4,3,-8,-6,1,1,-1,-7
1526902243864176,-6,4,0,0,6,6,-4,-1
1526902243876144,5,-11,-1,0,-6,-3,0,5
1526902243876144,22,16,2,-1,2,-2,0,11
1526902243885121,-38,-27,-3,-1,-7,0,-3,-14
1526902243885121,10,8,1,0,8,-3,4,4
1526902243900080,-5,-5,-1,-1,-6,0,-2,-3
1526902243900080,7,1,-1,-2,-5,-2,2,-4
1526902243902075,0,-12,-1,1,3,1,-1,2
1526902243902075,19,16,7,-1,6,3,2,4
1526902243923019,-1,2,-6,-3,-5,2,0,-4
1526902243923019,-3,4,-2,-2,-2,-3,-3,-2
1526902243924017,-13,-7,-3,-1,0,-3,-1,1
1526902243924017,4,-9,1,0,5,3,-1,-1
1526902243935984,13,7,4,-1,-5,1,0,3
1526902243935984,-38,-28,-4,0,-1,-3,-3,-10
1526902243944960,35,26,-1,-4,-3,-3,1,10
1526902243944960,-2,9,3,-1,-1,-7,-1,-6
1526902243959920,-5,-11,-9,-5,-4,-3,-13,-5
1526902243959920,2,9,-1,-3,-3,-1,17,5
1526902243961915,-8,-15,3,3,1,3,-2,-2
1526902243961915,-12,-8,-3,0,0,3,0,-7
1526902243982859,-5,-7,0,-1,-3,-6,-4,-4
1526902243982859,14,6,-5,-2,0,-5,-5,-5
1526902243983856,-6,0,0,-1,-3,-3,-2,4
1526902243983856,14,13,1,1,2,-1,4,7
1526902243995824,-24,-4,-1,-1,-3,-11,1,-4
1526902243995824,3,0,5,2,0,0,-3,2
1526902244004800,12,13,1,0,0,0,0,-1
1526902244004800,-19,-14,-6,-1,0,-1,-5,-4
1526902244019760,10,10,2,0,1,16,0,9
1526902244019760,-15,-14,-6,-5,-3,9,1,-16
1526902244021755,7,0,-1,1,-2,-11,-1,5
1526902244021755,-5,-5,0,-2,3,15,3,0
1526902244042699,-5,0,-2,-1,-2,2,1,-9
1526902244042699,-1,-6,-2,-2,-3,-12,-6,3
1526902244044694,-5,-9,0,-1,1,13,-6,-5
1526902244044694,7,-2,-3,0,-3,-5,-1,4
1526902244056661,-14,-11,1,-1,-3,-2,0,-3
1526902244056661,20,14,4,-1,-2,-19,-4,5
1526902244065638,-10,-5,-4,0,2,9,2,0
1526902244065638,0,6,1,0,-1,1,0,-4
1526902244079600,12,5,-3,-3,-5,-6,-1,-3
1526902244079600,-1,-3,4,-1,1,-1,-7,-2
1526902244086582,11,-8,-6,0,-1,-3,1,8
1526902244086582,-12,-4,-4,0,0,-1,-2,-8
1526902244102539,4,-8,1,0,1,-2,0,2
1526902244102539,4,4,0,0,-4,7,2,-5
1526902244104534,-16,-11,-8,-5,-2,-6,-2,-1
1526902244104534,-11,-16,4,2,3,3,3,4
1526902244125478,1,16,-3,1,-8,-11,-5,-5
1526902244125478,-5,-6,-2,-1,3,-19,-5,-2
1526902244126475,-20,-6,2,-1,7,25,5,-9
1526902244126475,31,14,-1,-2,-3,-4,4,9
1526902244139440,16,4,1,-1,0,-14,-2,2
1526902244139440,-58,-40,-9,-1,-3,-7,-7,-7
1526902244146421,20,27,8,2,-3,-13,-2,1
1526902244146421,3,-4,-4,0,3,0,1,6
1526902244162379,-8,0,0,0,-3,-7,-6,-7
1526902244162379,6,3,-1,-1,0,19,18,0
1526902244164374,6,-4,-2,-3,0,-10,-2,1
1526902244164374,-41,-31,-8,-5,-1,4,-1,0
1526902244185317,8,1,2,2,0,6,-2,6
1526902244185317,-2,4,0,-3,-3,-14,-3,-6
1526902244186315,5,-1,2,5,3,15,3,2
1526902244186315,9,6,8,2,-1,-11,-4,-1
1526902244199280,0,-9,-3,-6,5,10,1,2
1526902244199280,6,16,0,-5,-4,5,-12,2
1526902244206262,-7,0,-3,4,0,-1,19,0
1526902244206262,-4,-1,-3,-2,-5,-7,-7,-8
1526902244222219,-5,2,6,4,2,-3,2,-5
1526902244222219,3,-3,-5,-4,2,40,-3,2
1526902244224214,25,12,4,-5,-8,-22,-7,4
1526902244224214,2,7,-2,-1,-1,0,-5,-8
1526902244245158,-9,-10,-2,-2,-2,8,8,4
1526902244245158,13,4,-1,3,0,3,0,4
1526902244247152,-26,-15,-4,1,0,0,-7,-11
1526902244247152,9,3,1,-1,0,-2,3,-2
1526902244259120,3,-4,1,-1,-3,-7,-3,0
1526902244259120,4,13,-1,1,3,8,3,3
1526902244266101,13,7,1,0,0,-4,1,7
1526902244266101,-15,-6,-1,-4,-6,-12,-6,-10
1526902244283056,-5,-3,-5,2,0,9,-1,-3
1526902244283056,7,2,2,4,0,-11,-2,0
1526902244284054,-24,-6,-2,-4,-40,-23,-4,-8
1526902244284054,12,15,3,0,44,28,-8,5
1526902244304997,-15,-15,0,2,-2,13,11,-1
1526902244304997,10,-7,-4,-1,-3,-14,13,1
1526902244306992,7,16,-1,-3,1,5,-3,-6
1526902244306992,-15,-5,1,0,-12,-16,-7,-4
1526902244318960,17,1,-4,-3,-4,8,2,5
1526902244318960,19,10,4,1,3,3,-5,2
1526902244325942,-29,-22,-5,-1,5,-7,-4,-11
1526902244325942,-7,1,-1,-1,-7,4,5,-3
1526902244342896,-9,-1,-4,-4,4,0,-6,-6
1526902244342896,14,11,2,0,-9,-9,-1,1
1526902244343894,-8,-21,0,2,9,15,-1,3
1526902244343894,39,21,-3,1,-4,-2,-1,5
1526902244364837,-36,-21,-2,-2,-3,-5,0,-8
1526902244364837,-15,-11,-2,-1,-4,-14,-6,-9
1526902244366832,11,17,-1,-5,3,-6,-2,1
1526902244366832,4,-16,0,-1,-1,4,4,2
1526902244379797,11,8,4,2,-2,-9,-2,0
1526902244379797,-22,-8,-7,-1,3,5,-4,-9
1526902244385781,10,9,0,0,8,-14,-4,0
1526902244385781,10,6,-1,-1,-18,9,3,5
1526902244402736,2,4,-1,0,8,5,-7,2
1526902244402736,-26,-24,-2,-1,-1,-5,10,-13
1526902244403734,23,22,3,-2,-11,6,1,12
1526902244403734,-11,-13,-6,0,6,3,1,-8
1526902244424677,4,-5,2,1,-3,-7,0,5
1526902244424677,14,15,-8,-3,9,6,-6,-4
1526902244426673,-19,-40,-2,2,-12,-10,1,4
1526902244426673,0,8,4,-2,-4,-10,-4,-6
1526902244438640,-3,15,-5,-2,2,4,-3,-6
1526902244438640,-5,-2,3,2,-10,-9,-3,3
1526902244447616,10,3,0,-2,6,9,-1,-3
1526902244447616,-13,-12,-2,-1,-4,-7,-2,2
1526902244462576,-2,-6,-1,-2,6,15,3,3
1526902244462576,17,19,3,-1,-5,-16,-6,3
1526902244464571,-15,-13,-4,-2,5,13,5,-7
1526902244464571,5,-4,-2,0,8,7,-1,-1
1526902244485515,3,4,-2,-1,-12,-9,-2,-1
1526902244485515,-15,-25,0,2,1,4,-2,3
1526902244486512,17,30,6,2,4,5,-4,-6
1526902244486512,5,8,0,-1,-8,-7,-1,3
1526902244498480,-14,-3,-7,-3,-2,-11,-4,-1
1526902244498480,-2,-3,3,1,1,15,-5,1
1526902244507456,-7,-28,-6,-4,0,-19,11,-1
1526902244507456,-1,12,4,0,-2,4,3,1
1526902244522416,4,0,2,3,5,6,2,2
1526902244522416,-1,-2,-2,-2,-5,-16,-4,1
1526902244524411,3,2,2,4,-2,0,-4,-6
1526902244524411,9,16,0,0,0,-1,-1,3
1526902244545355,5,-2,4,0,-1,-7,0,-5
1526902244545355,2,3,-4,-2,-1,3,1,-3
1526902244546352,-5,9,4,-2,-1,2,-3,6
1526902244546352,-10,-8,-5,-3,-2,-4,-1,-8
1526902244558320,3,-13,-5,0,1,0,-3,0
1526902244558320,2,-7,3,-1,1,4,4,-1
1526902244567296,-3,14,-1,-3,0,1,-4,3
1526902244567296,-6,-15,6,4,3,0,2,6
1526902244582256,-3,13,-7,-8,-8,-8,-3,-11
1526902244582256,-4,-4,-6,-1,0,10,-4,1
1526902244584251,3,-5,-7,-6,-1,1,0,0
1526902244584251,-4,-7,2,0,-5,-1,-6,-7
1526902244605195,12,11,3,5,-1,11,12,8
1526902244605195,-17,-29,-7,-1,1,8,3,0
1526902244607189,35,25,-2,-2,2,0,-2,3
1526902244607189,-28,3,-3,-5,-3,-2,-1,-5
1526902244619157,8,-9,0,0,-3,-15,-1,1
1526902244619157,-4,3,3,-2,-5,1,-3,-1
1526902244628133,-18,-14,0,2,4,4,-1,-1
1526902244628133,-6,-25,-4,-2,-1,-5,-3,1
1526902244642096,17,29,-1,-2,1,-1,-4,-1
1526902244642096,4,-2,-4,-3,0,-6,1,-1
1526902244644091,-11,0,-1,1,-2,-15,-13,-4
1526902244644091,10,6,0,-2,2,14,18,0
1526902244665034,-25,-15,1,3,3,-1,-5,-5
1526902244665034,14,2,1,1,1,4,3,11
1526902244667030,8,4,1,2,1,3,-3,6
1526902244667030,-10,-7,-2,-1,0,-12,-9,-10
1526902244678997,15,12,2,0,-2,-4,1,11
1526902244678997,-15,9,-1,-2,1,9,-1,-7
1526902244687973,12,-11,-4,-3,-6,2,0,3
1526902244687973,-11,-17,-3,0,0,0,-3,2
1526902244702933,25,6,3,1,2,16,4,2
1526902244702933,-3,30,0,-1,-3,-32,-8,1
1526902244703931,-10,-5,-2,-2,-1,-2,3,-3
1526902244703931,12,1,1,-1,-2,-6,-2,4
1526902244724875,-4,-25,-5,-4,-4,-3,-3,-2
1526902244724875,-3,-3,-6,-3,-1,7,-2,-6
1526902244726869,-7,-1,0,-2,3,5,-2,-1
1526902244726869,2,9,-2,-9,-13,-10,11,-5
1526902244738837,6,-2,6,6,5,-34,-5,5
1526902244738837,17,-3,-1,0,1,-4,3,1
1526902244747814,-26,-10,-4,0,-2,2,10,-7
1526902244747814,-1,-9,0,-1,0,2,-7,2
1526902244762773,-1,4,-2,-1,-5,-5,-1,-1
1526902244762773,11,21,-1,-1,5,24,4,1
1526902244763771,1,-14,-2,-2,-5,-24,-5,-4
1526902244763771,12,15,2,1,-1,3,-1,2
1526902244784714,-20,-22,-7,-6,-4,3,-2,-15
1526902244784714,0,1,-1,0,-2,-6,-6,-7
1526902244786710,-16,8,-2,0,2,13,-1,-2
1526902244786710,-2,9,0,2,2,11,-5,1
1526902244798677,-11,-19,-1,1,4,8,1,4
1526902244798677,-3,-10,0,-3,-6,-10,3,0
1526902244807654,8,19,4,-1,0,-2,-1,0
1526902244807654,-4,0,-6,1,1,0,-4,-5
1526902244822613,1,-2,1,-1,0,5,-1,0
1526902244822613,-4,-9,1,1,-4,-12,-1,-2
1526902244824608,-2,0,-2,-1,-1,13,-2,-1
1526902244824608,19,13,-2,1,4,-1,-1,9
1526902244845552,-3,-2,-4,-5,-6,3,-3,-7
1526902244845552,5,-8,2,4,-14,-8,0,1
1526902244846550,7,2,1,-8,25,6,0,5
1526902244846550,-13,-12,-2,3,-4,-18,-4,-8
1526902244858517,0,-4,0,1,0,5,2,-1
1526902244858517,-6,2,-2,-1,1,30,-6,2
1526902244867494,-7,-2,1,-2,7,-6,8,-11
1526902244867494,15,16,0,0,0,4,1,4
1526902244882453,-6,-6,-2,1,1,-5,-3,1
1526902244882453,-19,-13,-4,-2,5,1,-9,-7
1526902244884448,-3,-6,0,1,-12,-6,-1,4
1526902244884448,5,14,5,1,-19,-2,2,1
1526902244905392,3,2,-7,-4,20,24,0,-5
1526902244905392,19,8,-1,-4,-4,-8,-2,7
1526902244906389,-13,-8,-2,0,-4,-5,-4,-1
1526902244906389,-8,-5,0,0,0,-4,0,2
1526902244918357,2,-3,1,-2,-10,-8,-4,0
1526902244918357,-11,-10,-5,-3,0,-1,0,-3
1526902244927333,12,-6,-4,1,-3,4,-1,5
1526902244927333,-8,0,0,-2,4,-1,-3,-3
1526902244942293,-5,-4,1,-2,-10,-1,-2,-5
1526902244942293,27,11,1,4,10,-16,4,11
1526902244944288,-11,5,4,3,-6,16,0,-18
1526902244944288,4,-4,-3,-4,2,-3,-4,1
1526902244965232,6,3,-5,-1,-2,-7,-2,5
1526902244965232,-25,-21,-1,1,-2,-3,-2,-9
1526902244966229,14,13,0,0,-6,-12,-4,3
1526902244966229,-4,-1,-5,-3,5,17,-5,-1
1526902244979194,5,-4,3,0,0,0,0,5
1526902244979194,-11,1,-3,1,1,4,1,-11
1526902244988170,-13,-18,-2,-2,-5,-8,-5,-3
1526902244988170,22,9,-3,1,5,-1,-2,2
1526902245002133,-2,15,9,-1,-3,-4,0,-4
1526902245002133,-5,-14,-5,-4,-1,-1,-2,4
1526902245009115,-9,-11,4,1,1,0,-2,2
1526902245009115,23,6,3,2,2,-3,2,-1
1526902245025072,-3,-4,-9,-4,-4,-3,-2,1
1526902245025072,-20,9,-2,-3,-2,-3,5,7
1526902245027067,-4,2,1,-1,-2,1,-1,-5
1526902245027067,-24,-23,-3,1,0,-1,2,0
1526902245039034,20,11,-4,-1,-1,-8,2,1
1526902245039034,3,0,-2,-3,-1,8,3,6
1526902245048011,3,4,0,3,1,1,-7,-7
1526902245048011,-3,3,3,1,-2,-4,-1,-5
1526902245061973,-5,-16,0,2,0,1,-4,-9
1526902245061973,7,15,-1,-3,-2,-6,3,5
1526902245068954,1,-6,2,1,2,-9,-7,8
1526902245068954,6,16,0,-2,2,36,21,4
1526902245084911,-32,-2,3,2,-1,-5,-8,-21
1526902245084911,38,-10,4,5,4,2,4,6
1526902245086907,-13,-1,-9,-2,-1,-2,-1,-12
1526902245086907,-12,-13,-2,-3,-3,-10,-7,0
1526902245107850,5,-13,-8,-2,-1,1,3,3
1526902245107850,-8,12,9,4,0,-5,0,-8
1526902245108848,14,19,3,1,2,12,2,10
1526902245108848,-7,-5,0,-1,1,-11,-6,-8
1526902245121813,10,13,4,-4,-4,2,4,11
1526902245121813,5,-4,3,4,1,-7,-7,-12
1526902245128794,12,5,-4,-4,-6,-5,1,5
1526902245128794,-10,-15,-3,-4,-2,-8,-4,-2
1526902245144752,-18,-4,-2,2,2,0,1,-4
1526902245144752,33,16,-3,-1,-1,4,-1,2
1526902245146747,-16,-4,5,0,-2,-2,2,-1
1526902245146747,0,-4,-2,0,0,2,-3,-4
1526902245167690,13,1,-7,-4,-4,-11,-8,3
1526902245167690,-21,-13,-13,-10,-6,4,-4,1
1526902245169685,-3,-5,1,3,2,9,-2,-5
1526902245169685,-8,1,4,1,-2,-10,2,3
1526902245181653,14,1,-2,-1,-1,3,-1,-1
1526902245181653,-13,-6,-4,-4,-4,-20,-6,-9
1526902245188634,3,-6,-3,-4,1,11,4,3
1526902245188634,5,-9,-1,-3,-2,16,-13,3
1526902245204591,-9,-7,-3,1,2,-9,1,-13
1526902245204591,-8,7,0,2,-1,1,4,0
1526902245206587,20,8,2,-1,-2,-2,3,9
1526902245206587,-6,-3,-4,-3,-2,-8,-2,-6
1526902245227530,-9,-10,-5,-3,0,9,-5,1
1526902245227530,-1,-3,-1,0,1,0,9,-1
1526902245229525,22,19,4,4,2,-26,-3,0
1526902245229525,-9,-12,-5,-2,1,-10,2,-3
1526902245241493,13,1,6,2,5,20,6,18
1526902245241493,-15,-15,-3,1,0,-2,-6,-16
1526902245248474,-3,-7,-4,-3,-4,-4,0,-2
1526902245248474,-3,9,-2,-3,-4,-8,-2,-7
1526902245265429,19,13,4,0,0,-5,-2,3
1526902245265429,-18,-24,0,0,1,9,-4,-7
1526902245266427,6,1,0,-3,-3,3,5,7
1526902245266427,7,7,-2,-1,0,-3,1,5
1526902245287370,-4,-3,2,2,-1,0,-1,-5
1526902245287370,16,4,1,-1,-1,1,-1,2
1526902245289365,-19,-8,-6,-6,-7,-39,-14,-3
1526902245289365,-4,-13,1,0,3,22,2,-4
1526902245302330,5,16,-2,4,4,2,2,-1
1526902245302330,10,8,4,2,2,-1,7,3
1526902245308314,-8,3,-3,0,3,7,-5,-3
1526902245308314,3,5,-2,-4,-5,-1,-2,9
1526902245325269,-1,-5,-3,-4,-5,-37,-2,-9
1526902245325269,-8,-9,-2,-1,1,-8,-3,1
1526902245326266,-17,-13,-2,-2,-1,14,-2,-6
1526902245326266,18,16,1,2,-2,-8,0,-2
1526902245347210,-13,3,1,0,-2,5,1,-4
1526902245347210,-5,-9,-3,-4,-4,6,-2,1
1526902245349205,8,-6,-6,-3,-4,0,4,10
1526902245349205,-27,9,0,-2,-1,-3,-1,-18
1526902245361173,5,-5,-1,1,0,-2,-2,-2
1526902245361173,-2,8,1,-1,-1,0,-5,-6
1526902245370149,-7,-23,0,3,3,12,4,5
1526902245370149,7,7,-4,-1,-2,-6,-2,-2
1526902245385109,-5,-6,1,0,1,17,2,5
1526902245385109,2,4,-6,-3,-7,1,-3,-5
1526902245387104,3,5,-1,2,-4,-6,1,-3
1526902245387104,-9,-13,0,1,1,13,0,1
1526902245408047,10,6,0,-2,-2,1,2,-1
1526902245408047,-5,-4,0,1,7,28,-8,5
1526902245409045,-2,-5,-2,-4,-7,-23,-2,-7
1526902245409045,6,8,0,3,-22,-30,-5,-5
1526902245421013,-8,-5,0,0,17,28,3,-3
1526902245421013,12,15,-1,-2,-2,-4,-4,-1
1526902245429989,-31,-14,-4,-4,2,7,0,-5
1526902245429989,5,-21,-1,-3,-2,-6,2,7
1526902245444949,-1,0,-5,-4,-7,-7,-1,-4
1526902245444949,-1,16,7,5,-1,-10,0,-2
1526902245446944,6,6,-1,3,0,10,-3,0
1526902245446944,-9,-23,-10,-1,6,-4,15,-1
1526902245467888,-16,-22,-3,-1,-4,-4,-1,-1
1526902245467888,27,25,2,-5,0,-1,1,6
1526902245468885,-11,8,4,0,-2,0,0,-6
1526902245468885,1,-1,-1,-1,1,4,-7,-3
1526902245480853,-1,-5,-2,-3,-17,-12,-1,1
1526902245480853,-3,-12,-4,-1,6,-5,1,-6
1526902245489829,2,7,3,4,2,13,-3,-1
1526902245489829,17,5,1,-1,6,27,0,6
1526902245504789,-2,9,-1,-4,-9,-4,0,-2
1526902245504789,-8,-9,0,0,-4,-5,-1,-4
1526902245506784,2,-4,-5,-2,0,3,2,6
1526902245506784,-15,-10,0,-1,-2,-15,-7,-9
1526902245527727,20,13,-1,0,3,-3,-1,3
1526902245527727,-15,-21,-5,-1,-3,2,2,1
1526902245528726,19,13,4,-3,2,-5,0,5
1526902245528726,-15,-6,-3,0,0,-3,-3,-3
1526902245541690,5,-5,-2,-1,0,-2,3,-1
1526902245541690,-4,5,-1,-2,-1,-5,0,3
1526902245550666,3,-4,-1,0,-3,-1,3,2
1526902245550666,8,1,0,1,4,1,-3,-2
1526902245564629,-17,-5,-7,-2,2,1,-5,-11
1526902245564629,0,0,7,5,-2,-2,1,5
1526902245566624,3,1,-11,-4,1,1,2,1
1526902245566624,-2,1,2,-2,1,2,0,2
1526902245587568,6,7,3,1,0,-6,-4,-2
1526902245587568,-14,-19,-4,1,-2,-2,1,-4
1526902245589563,5,13,3,0,-1,-1,-2,-7
1526902245589563,4,4,-2,-2,1,2,-7,4
1526902245601530,-7,-7,2,-3,-3,-7,13,-1
1526902245601530,5,9,0,-2,-3,1,-3,0
1526902245610506,6,-3,-3,-2,-1,-1,-1,-3
1526902245610506,1,-4,-1,-1,-1,-12,-1,0
1526902245625466,-7,-12,-1,-5,-5,-1,-2,10
1526902245625466,19,17,-6,2,2,29,-1,-16
1526902245626463,-16,-11,-1,3,-1,-26,0,-3
1526902245626463,9,2,-3,-2,-2,2,3,-2
1526902245647407,-19,-17,-6,0,-1,-5,-6,0
1526902245647407,-5,-6,-2,-3,-3,-8,1,1
1526902245649402,8,-3,1,0,2,9,-1,1
1526902245649402,-5,2,1,-1,1,-3,0,-2
1526902245661370,-8,-8,-3,-2,0,-2,-4,-4
1526902245661370,-3,-2,-2,-2,-2,-5,-3,2
1526902245670346,-3,0,5,3,0,1,-2,-1
1526902245670346,17,3,5,0,-1,5,4,18
1526902245685306,-37,-17,-3,2,2,3,-3,-16
1526902245685306,42,29,4,2,1,1,2,7
1526902245686304,-20,-7,-1,-3,-4,-13,-9,-1
1526902245686304,-14,-22,-6,-5,-1,8,11,-7
1526902245707247,35,23,2,0,-3,3,2,11
1526902245707247,-19,-20,-5,1,1,-7,1,-2
1526902245709242,3,-4,-5,-2,-2,3,-2,-4
1526902245709242,-7,-8,-8,-2,-3,-6,-4,-2
1526902245721210,9,1,4,3,2,2,-4,-2
1526902245721210,-20,-16,-4,-3,-2,-5,1,-4
1526902245730186,34,27,8,0,-3,-6,3,12
1526902245730186,-7,8,-1,2,2,14,-3,-6
1526902245745146,11,-4,-3,-2,-1,-3,0,-1
1526902245745146,-10,-3,0,-2,-2,-2,-2,2
1526902245747141,-6,-1,0,2,1,4,0,-7
1526902245747141,4,2,0,1,-1,-8,-3,-4
1526902245768085,-5,-3,-1,1,1,17,-2,3
1526902245768085,2,-6,-3,-3,-5,-23,-5,1
1526902245769082,4,3,-5,-5,-2,-2,2,-1
1526902245769082,0,15,5,0,0,16,-6,0
1526902245781050,8,7,1,1,-1,4,8,-3
1526902245781050,-1,-2,2,3,-1,1,-3,-4
1526902245790026,1,0,-4,-4,-1,-1,0,0
1526902245790026,-11,-8,-1,0,-3,1,3,-2
1526902245804986,-5,-12,-6,-2,-1,-7,-8,-3
1526902245804986,-4,20,4,-3,0,6,-5,7
1526902245806981,5,1,1,1,-1,-3,1,-9
1526902245806981,-2,-14,-5,-2,-2,-15,-4,-1
1526902245827924,-16,-1,-4,-3,-2,-1,-2,0
1526902245827924,10,-1,3,2,2,8,1,2
1526902245828922,-11,-9,-1,-1,2,4,-6,-1
1526902245828922,-26,-12,-2,0,-1,-5,-1,-8
1526902245840890,40,42,4,1,1,-6,-4,9
1526902245840890,-16,-19,-2,0,-2,-6,-1,-3
1526902245849866,3,4,-1,-3,0,11,1,4
1526902245849866,2,-4,4,2,0,-2,-1,3
1526902245864826,-2,-5,-2,-1,-2,-4,1,-4
1526902245864826,1,8,-3,-4,-1,0,-4,2
1526902245866821,-17,-27,-7,3,0,-4,-1,-5
1526902245866821,14,7,2,2,2,-3,1,3
1526902245887765,4,6,-2,0,0,0,-1,-2
1526902245887765,1,-8,0,-1,0,-1,1,0
1526902245888762,-9,-4,-2,-1,-1,3,-2,-3
1526902245888762,0,4,-3,-2,1,-1,-2,2
1526902245900730,26,24,2,-2,-2,-29,-7,4
1526902245900730,-7,-6,4,3,3,-8,3,-1
1526902245910704,-7,-15,-3,1,1,6,2,0
1526902245910704,12,15,-3,-6,-5,-4,-12,-5
1526902245924666,-10,-15,-1,-1,1,8,16,2
1526902245924666,5,8,1,-2,-3,-6,-2,4
1526902245926661,-6,1,2,-1,0,1,0,-12
1526902245926661,3,-3,0,2,0,-2,-2,1
1526902245947604,-10,-16,-6,-3,-1,4,-11,-5
1526902245947604,1,4,-2,-4,-2,2,-1,-2
1526902245949599,10,14,4,1,-2,-2,-1,6
1526902245949599,7,-4,2,1,0,-3,4,-1
1526902245961567,-22,-11,-5,-2,1,6,-6,-7
1526902245961567,2,-6,-4,-2,0,3,4,2
1526902245970543,13,27,0,-6,-3,-10,-2,-2
1526902245970543,-5,-1,-1,-3,-2,-3,-2,-4
1526902245984506,-1,-1,2,0,-3,1,0,3
1526902245984506,0,-10,-2,5,7,0,-1,-3
1526902245991487,-17,-8,0,-2,0,5,-5,-3
1526902245991487,5,5,0,6,2,9,4,-2
1526902246007445,-2,-7,0,-1,0,24,4,0
1526902246007445,19,9,1,-1,-3,2,3,3
1526902246009439,-23,-15,-8,-2,4,7,-7,-4
1526902246009439,-16,-2,2,-4,-3,-16,9,1
1526902246030383,19,8,2,4,2,-4,0,0
1526902246030383,-14,-13,1,1,1,5,-1,1
1526902246031380,21,16,0,-3,-2,-6,2,4
1526902246031380,1,-9,-4,-4,-2,1,-6,-2
1526902246044346,-9,-7,-3,0,-1,-4,-4,-1
1526902246044346,-8,-1,-6,-4,-3,-3,0,-4
1526902246051327,-3,-8,-1,-1,-3,3,4,2
1526902246051327,8,0,-3,-2,-2,0,1,-1
1526902246067285,1,7,-1,-3,0,-15,-6,-1
1526902246067285,-11,-11,0,2,2,14,1,-3
1526902246069279,0,-3,-3,-2,-4,-4,0,1
1526902246069279,12,15,1,2,2,5,-5,3
1526902246090223,-8,-14,2,0,2,-7,-2,-1
1526902246090223,-6,-3,-3,-1,-4,-19,-3,-4
1526902246091221,4,8,4,0,2,4,4,5
1526902246091221,0,7,-4,-5,-3,4,-2,-5
1526902246104186,7,4,0,1,-1,4,-8,3
1526902246104186,2,5,1,-1,-2,-5,6,-3
1526902246111167,-3,-12,3,0,-1,-1,-1,-1
1526902246111167,-2,-16,-1,1,0,-7,-3,1
1526902246127124,-14,8,-4,-4,-2,1,0,1
1526902246127124,5,4,1,1,0,2,-3,3
1526902246129120,1,-1,1,-2,-4,-6,-2,1
1526902246129120,-6,-4,-4,-3,-2,1,-2,0
1526902246150063,-5,-6,1,1,-1,-4,0,-5
1526902246150063,0,-2,2,1,0,3,0,3
1526902246152058,3,11,0,0,-3,-15,-3,-4
1526902246152058,8,-4,-3,-1,1,16,-1,-1
1526902246164026,-2,-1,-5,-5,-3,-2,0,0
1526902246164026,-4,8,-4,-5,-2,0,-1,-5
1526902246171007,-5,-7,1,0,-1,2,-4,-1
1526902246171007,4,2,2,1,1,-7,-1,2
1526902246187962,15,4,3,2,-1,-1,2,-1
1526902246187962,-11,-17,-6,-3,-3,1,-1,0
1526902246188959,-6,-11,-3,-3,-1,0,1,2
1526902246188959,-8,5,0,-1,-3,-6,-4,-10
1526902246209903,-16,-3,-1,-2,-2,-8,-7,-2
1526902246209903,6,-11,-3,-1,6,2,4,-2
1526902246211898,30,25,0,0,-1,4,2,5
1526902246211898,-14,-16,-1,-3,-3,-4,0,-2
1526902246224863,1,3,-3,1,0,-2,-2,-4
1526902246224863,-4,8,7,3,-4,-5,-8,-6
1526902246230847,-24,-27,-13,-5,-4,-2,1,3
1526902246230847,7,1,1,1,1,-2,-5,4
1526902246247802,-2,-2,-7,-1,-2,1,7,-1
1526902246247802,5,7,1,-2,0,3,-3,-1
1526902246248799,-3,-7,-2,2,3,6,0,-5
1526902246248799,5,4,10,7,0,-2,-1,0
1526902246269743,1,-6,-2,-4,-4,-6,1,1
1526902246269743,-12,5,-2,-1,0,10,3,5
1526902246271738,12,12,3,1,1,0,-1,-1
1526902246271738,-17,-15,-5,-1,-2,-3,-2,-4
1526902246283706,25,30,6,1,-1,-1,1,0
1526902246283706,-8,-23,-6,-2,-1,-2,-1,6
1526902246292682,10,20,4,2,-2,2,-2,-4
1526902246292682,-12,-15,-10,-3,-3,-3,1,-2
1526902246307642,10,-7,2,2,1,3,2,4
1526902246307642,1,13,2,-1,-2,-3,-4,-13
1526902246309637,-19,-24,-6,-2,-1,-1,1,-2
1526902246309637,10,4,-2,-2,-2,-1,1,3
1526902246329583,6,-1,-6,-3,-1,2,1,5
1526902246329583,1,9,5,1,-2,-2,-1,0
1526902246331578,-2,-8,5,1,1,-3,-1,0
1526902246331578,4,0,-3,-4,-2,0,-2,-3
1526902246343546,-18,-4,1,1,-1,3,0,-2
1526902246343546,-6,-7,-6,-3,-2,-4,-1,5
1526902246352522,-4,0,-1,0,-1,0,-2,-9
1526902246352522,4,-1,4,0,-3,-12,-2,3
1526902246367482,7,-2,2,1,1,15,0,0
1526902246367482,2,5,1,-1,-2,-17,-4,-4
1526902246369476,-15,-12,-2,0,3,21,-6,5
1526902246369476,-13,-6,-7,-4,-4,-5,7,-1
1526902246390420,12,-11,3,2,0,-7,1,-2
1526902246390420,19,20,-2,-2,-3,7,2,3
1526902246391418,-21,-8,-3,0,-2,-5,-3,-4
1526902246391418,11,9,5,3,1,-2,-2,-1
1526902246403385,-6,-6,-5,-2,7,2,-1,-3
1526902246403385,-1,1,2,-1,-3,-3,-2,-6
1526902246412362,0,-1,-4,-2,-1,-6,2,1
1526902246412362,10,11,-4,-4,-3,5,-2,5
1526902246427321,-15,-12,-4,-1,-1,-6,1,-4
1526902246427321,-2,-5,-3,-1,2,1,-1,-1
1526902246429317,4,-4,3,-1,0,-2,3,-1
1526902246429317,11,12,0,2,-1,0,-1,-1
1526902246450260,-3,-2,-1,-3,-4,-15,-5,-3
1526902246450260,2,1,3,1,0,17,2,0
1526902246451258,21,12,5,2,-1,-1,1,1
1526902246451258,-19,-26,-2,-1,-2,-6,-2,-3
1526902246464223,7,19,-3,-4,-2,8,-1,-2
1526902246464223,-17,-19,-3,1,-1,0,-3,-4
1526902246473199,23,19,7,0,0,-4,1,4
1526902246473199,-1,-6,1,0,2,5,1,0
1526902246487162,-6,-2,-2,-2,-6,-23,-10,-1
1526902246487162,-10,-18,-5,1,4,13,4,-1
1526902246489156,0,4,-3,-2,1,24,-1,-1
1526902246489156,2,6,-4,-1,-5,-15,-1,0
1526902246510100,-3,-6,1,0,0,6,-5,-3
1526902246510100,8,5,1,1,0,-10,1,2
1526902246512095,-15,-15,-5,-4,-2,-4,1,3
1526902246512095,14,18,4,-1,4,17,-2,-5
1526902246524063,-19,-8,-5,-2,0,1,3,-2
1526902246524063,10,8,2,-1,-1,-1,1,1
1526902246533039,2,-8,0,1,-3,-14,-3,-6
1526902246533039,4,8,-4,-2,-3,-2,-2,4
1526902246547999,-14,-14,-1,-1,-1,6,2,-3
1526902246547999,21,14,-1,-2,-2,-11,0,0
1526902246548997,-12,-7,-2,-1,0,-10,-4,0
1526902246548997,-3,-3,-2,-2,-2,6,2,-5
1526902246569940,-2,-9,0,3,3,9,1,-1
1526902246569940,-5,1,-2,1,-1,1,-4,1
1526902246571935,6,10,1,0,-1,-2,1,0
1526902246571935,-3,-9,-4,-5,-2,-2,-2,0
1526902246583903,2,-3,-4,-2,-2,-3,2,1
1526902246583903,-3,-6,-2,-1,-2,-1,-3,5
1526902246592879,3,-4,-1,1,1,-5,-2,1
1526902246592879,-6,-6,0,-1,-2,-11,0,0
1526902246607839,-24,-5,-7,-2,0,9,1,-4
1526902246607839,-2,3,1,-2,-2,-1,3,0
1526902246608836,2,-9,0,0,1,9,-5,2
1526902246608836,1,6,2,1,2,5,2,2
1526902246629780,10,-5,-2,-1,-4,6,2,0
1526902246629780,1,-2,-3,-3,-3,-4,-14,-3
1526902246631775,-13,-14,-5,-12,-4,-6,0,2
1526902246631775,9,4,4,16,9,16,1,-1
1526902246643743,-3,9,3,2,8,44,-1,0
1526902246643743,-13,-9,-7,-1,-11,-34,-3,-6
1526902246652719,-2,-10,-2,-1,-2,-6,-1,-6
1526902246652719,25,19,-2,-6,-2,-5,1,6
1526902246667679,4,-4,-1,-1,-2,1,-2,-1
1526902246667679,-14,-11,1,1,1,-11,-2,-3
1526902246669673,9,14,-3,-3,-1,17,4,-3
1526902246669673,-3,-8,-2,-2,-1,-4,1,1
1526902246689620,-16,-15,-3,-1,-2,-15,-4,-7
1526902246689620,14,12,2,-3,1,11,-4,5
1526902246691615,0,0,1,2,-3,-18,7,-2
1526902246691615,-10,-17,-4,-2,0,-3,-5,-2
1526902246703583,16,12,-1,-1,-3,-4,0,4
1526902246703583,-5,-7,0,-1,0,0,4,2
1526902246712559,6,7,0,5,2,-3,-5,-3
1526902246712559,-16,-15,-7,-1,1,16,0,-2
1526902246727519,-1,3,1,-4,0,-8,-11,0
1526902246727519,9,9,1,0,-2,16,15,2
1526902246729514,-14,-8,0,6,-1,-9,-4,-7
1526902246729514,-2,-10,4,0,-1,4,4,0
1526902246750457,8,0,-5,-2,0,-14,-4,-6
1526902246750457,-5,4,-2,-2,0,10,-12,-2
1526902246751455,0,4,-1,-5,-3,-33,-1,3
1526902246751455,-4,-9,0,1,-1,-7,1,-3
1526902246763423,4,6,3,3,-2,0,5,0
1526902246763423,-5,-9,-1,2,0,-3,-1,-1
1526902246772399,14,8,-4,-2,-4,7,2,3
1526902246772399,-13,1,-3,-8,-4,-7,-8,-7
1526902246787359,0,-5,1,1,0,-7,2,2
1526902246787359,4,6,-3,-5,-1,-2,6,1
1526902246789354,-9,-11,0,0,1,9,-2,-1
1526902246789354,0,4,-1,0,-2,-7,-1,-4
1526902246810297,17,23,-2,-2,-5,-14,-1,3
1526902246810297,-9,-9,2,2,4,22,3,-2
1526902246811295,4,10,-2,-2,-2,7,3,1
1526902246811295,10,2,-4,-3,-1,-1,-3,0
1526902246823263,-5,-9,2,-2,-1,-13,2,-2
1526902246823263,2,2,3,4,-1,-17,-5,-8
1526902246833236,24,18,-5,-2,1,13,2,5
1526902246833236,2,-5,1,0,-1,-3,2,2
1526902246847199,-17,-12,-1,-1,-2,0,-2,0
1526902246847199,13,12,1,-1,1,-3,3,-1
1526902246849194,-18,-20,0,1,-1,1,-4,-5
1526902246849194,16,10,1,-2,-1,-5,-6,3
1526902246870137,3,1,-4,-1,2,2,1,1
1526902246870137,-14,-14,-7,-3,-1,-4,-3,-1
1526902246872132,11,10,3,0,-2,-4,2,2
1526902246872132,-17,-14,-1,2,-1,2,0,-2
1526902246884100,6,8,6,0,0,0,-2,-2
1526902246884100,-11,7,-9,-4,-4,-5,1,2
1526902246893077,-15,-17,-2,-1,0,1,-7,-7
1526902246893077,2,-8,-5,0,-1,0,1,-1
1526902246907039,30,32,5,-1,-2,1,1,5
1526902246907039,-14,-16,-3,-2,-3,-4,-3,-1
1526902246914020,-4,1,8,4,3,3,-1,-5
1526902246914020,-5,-4,-4,-5,-1,-2,-1,-3
1526902246929977,-5,-10,0,1,-1,-3,0,-5
1526902246929977,13,6,-4,-3,3,4,-1,0
1526902246931972,-7,-3,-3,-4,-7,-16,-3,-2
1526902246931972,7,9,-1,2,1,12,0,-1
1526902246943940,3,7,-3,-2,0,-6,-1,6
1526902246943940,0,4,4,1,-1,9,2,1
1526902246952916,4,-4,-3,-3,1,3,2,4
1526902246952916,-11,-13,-3,1,-2,-3,0,-3
1526902246966878,-14,-2,-4,0,-3,-6,-1,-1
1526902246966878,-4,-5,1,-1,1,0,-7,0
1526902246973860,3,6,-1,-5,-5,-6,9,-3
1526902246973860,7,7,0,-1,-1,-13,-2,1
1526902246989817,-10,-15,-2,2,0,15,0,-4
1526902246989817,3,-2,-2,-1,1,-3,0,-2
1526902246991812,1,7,-2,-1,1,7,-4,0
1526902246991812,5,4,-2,-3,-4,-3,-1,1
1526902247012756,-9,-3,0,2,0,-3,0,-1
1526902247012756,-15,-12,1,1,-1,-2,-2,-9
1526902247013753,24,24,-3,-2,-1,2,-3,0
1526902247013753,1,-9,0,-1,-2,-1,0,-1
1526902247026719,0,3,1,-2,-3,-6,-4,-2
1526902247026719,-4,0,0,-2,-1,7,1,6
1526902247033700,-13,-29,-2,2,0,0,-2,-7
1526902247033700,9,18,-2,-1,-1,3,0,6
