timestamp,emg1,emg2,emg3,emg4,emg5,emg6,emg7,emg8
1526902447923451,0,1,-1,5,-1,-7,-2,-1
1526902447923451,-5,-24,-8,-7,-18,-20,-19,1
1526902447923451,11,18,6,1,27,27,-6,1
1526902447923451,1,25,-1,-6,-17,-6,11,9
1526902447925446,-2,-5,5,4,13,6,2,-2
1526902447925446,18,25,1,12,5,-17,-21,-3
1526902447926450,-11,-26,-5,-5,-7,8,4,1
1526902447926450,-8,-8,-2,-6,25,11,-10,-7
1526902447935420,7,24,4,-6,-37,-9,8,16
1526902447935420,-5,-15,-4,0,32,9,3,-11
1526902447939409,30,4,4,10,3,-16,-17,0
1526902447939409,-38,15,1,-2,-1,0,-10,-13
1526902447950380,-3,-21,-10,-6,-18,-1,27,9
1526902447950380,10,13,4,-4,-25,-5,-5,-6
1526902447964342,1,14,9,0,23,12,-14,3
1526902447964342,-5,-25,1,7,0,-6,9,3
1526902447970326,1,23,-4,-1,-13,-9,-17,-8
1526902447970326,-14,-6,0,1,-21,-4,32,8
1526902447984289,11,14,-6,-8,44,14,6,-7
1526902447984289,13,-2,2,0,-34,0,-19,-6
1526902447993268,-12,-27,-2,-2,30,-3,-17,-12
1526902447993268,13,29,0,-2,-8,10,2,6
1526902448032161,10,2,11,3,-13,-10,-10,5
1526902448032161,-6,3,-5,-3,-6,-3,0,-13
1526902448032161,1,-8,-4,-5,21,8,11,16
1526902448032161,-14,-7,-3,-4,2,0,5,-4
1526902448033158,30,-3,-1,1,-2,-1,8,1
1526902448033158,-20,-4,8,3,-22,-11,-29,9
1526902448037147,17,30,-1,8,12,-18,-10,-11
1526902448037147,-7,-11,1,-4,35,35,4,7
1526902448044129,-2,0,-7,-5,-5,-6,2,-11
1526902448044129,9,-8,0,0,1,16,12,11
1526902448053105,-8,-13,-5,-7,7,-8,-5,-8
1526902448053105,5,19,4,7,-35,-27,-12,-4
1526902448059089,-6,-4,-5,-2,20,19,7,3
1526902448059089,6,-9,-3,-6,10,11,-2,8
1526902448076043,-1,22,6,-1,-11,2,19,3
1526902448076043,26,10,0,-6,-19,1,15,10
1526902448082027,1,0,-3,-1,1,-12,2,-3
1526902448082027,-4,8,0,6,0,-2,-5,-5
1526902448104966,0,-20,4,-1,-20,4,2,3
1526902448104966,-9,-10,-4,2,15,-7,8,2
1526902448105964,-11,2,-2,3,19,-6,1,-6
1526902448105964,-13,-8,-10,-3,32,30,-9,-3
1526902448119926,1,43,9,-1,-27,-3,23,14
1526902448119926,6,-4,5,2,9,2,-24,-18
1526902448120924,-20,-15,-2,-3,-29,-17,-15,-18
1526902448120924,24,-3,3,14,25,-22,6,3
1526902448141867,3,-26,-12,-8,9,25,22,12
1526902448141867,-27,37,2,-3,-1,-1,-16,-13
1526902448142864,-7,-3,-2,-7,9,8,-9,6
1526902448142864,6,2,2,-2,-21,-5,8,-8
1526902448164806,-6,-3,9,11,-8,-9,-10,-4
1526902448164806,10,-21,-8,-4,13,-12,-26,5
1526902448165803,-11,-1,-6,-3,-23,8,12,6
1526902448165803,-12,1,1,-5,6,5,16,-1
1526902448179766,17,13,-2,-2,-32,-19,-31,-15
1526902448179766,7,-6,8,7,34,11,14,11
1526902448180763,24,4,-2,-2,-8,-8,3,2
1526902448180763,-42,-22,-2,-2,-7,-6,-22,-13
1526902448202705,15,-1,-8,0,-19,-6,4,-2
1526902448202705,-1,9,-5,-9,31,14,12,-7
1526902448202705,22,24,3,1,-10,8,5,9
1526902448202705,-26,-9,3,-4,-11,-5,4,-10
1526902448224646,-5,-13,1,7,1,-5,-29,-16
1526902448224646,13,-15,-10,-4,-32,-9,3,5
1526902448225644,-12,-8,-1,-4,59,5,-13,3
1526902448225644,-6,15,5,8,-5,11,30,-3
1526902448239606,-6,-15,0,-3,-37,-10,-22,-8
1526902448239606,5,5,-3,3,13,-6,19,5
1526902448240603,-13,-3,1,-2,-10,3,-21,-10
1526902448240603,14,0,1,-3,-23,-13,-8,8
1526902448262544,22,-7,-1,-2,39,9,23,10
1526902448262544,-55,-11,3,8,-27,5,8,-9
1526902448263542,0,-13,-2,4,36,4,-12,-12
1526902448263542,31,19,-6,-12,-41,-11,3,4
1526902448284486,-3,-3,-9,-4,32,11,-2,14
1526902448284486,16,-10,5,1,-26,-13,1,4
1526902448285483,-40,7,-2,1,-10,-2,1,-10
1526902448285483,-7,-14,-2,0,-34,-10,14,5
1526902448299446,-7,15,3,-1,40,6,-2,-3
1526902448299446,0,-10,-3,1,-8,1,-9,-1
1526902448300444,22,13,3,4,-20,-6,3,7
1526902448300444,28,-5,-1,-5,8,-13,-16,-12
1526902448322385,-34,-21,-8,-9,-24,-4,2,-14
1526902448322385,-7,9,1,0,72,19,12,3
1526902448323382,1,9,11,6,-25,1,-15,-15
1526902448323382,1,-4,-7,-6,2,0,3,6
1526902448345323,-3,2,4,5,9,-3,0,2
1526902448345323,25,11,-2,-4,-67,-22,-10,3
1526902448345323,-6,-8,-8,-9,9,2,-2,3
1526902448345323,-36,-2,4,1,-6,-4,-8,-7
1526902448360283,-12,13,2,9,13,0,-7,-11
1526902448360283,6,-6,-6,-10,11,28,1,11
1526902448360283,45,-12,-5,0,-19,-6,17,0
1526902448360283,-38,30,-5,-6,15,-17,-24,-13
1526902448382225,7,-13,2,2,-20,-5,-3,5
1526902448382225,-26,-13,0,2,-11,-16,-7,-5
1526902448383222,3,5,4,2,23,11,15,3
1526902448383222,32,-2,-4,0,10,10,5,11
1526902448405163,3,-7,-2,-9,-21,-8,-1,0
1526902448405163,12,31,5,7,3,-13,-13,-1
1526902448405163,-20,-13,-5,5,-29,-1,18,10
1526902448405163,43,-14,-12,-17,34,7,4,4
1526902448420123,-78,18,20,10,61,18,-1,-7
1526902448420123,14,-8,-5,-1,-16,5,12,4
1526902448421121,-8,-9,-3,-5,-43,-14,-10,-4
1526902448421121,34,-7,-5,5,3,-8,-3,17
1526902448442064,22,11,3,-1,-16,-5,-17,-6
1526902448442064,-11,-13,3,2,-6,-1,21,-11
1526902448443062,-10,-6,-3,-4,32,8,-18,0
1526902448443062,-12,5,5,2,-10,3,10,-2
1526902448465003,-18,-13,-10,-7,-20,-6,-9,0
1526902448465003,5,4,-3,2,19,1,17,7
1526902448466001,35,-7,3,0,-1,5,0,7
1526902448466001,-23,35,6,-2,7,4,-5,-21
1526902448479963,18,-9,-13,-15,-34,-6,18,15
1526902448479963,-1,-18,-1,5,22,-10,-9,-11
1526902448480960,-50,15,2,-3,20,12,-3,-10
1526902448480960,-2,-14,0,1,-8,4,-11,1
1526902448501905,6,-5,-2,0,3,0,15,-4
1526902448501905,-5,-15,-7,-10,-59,-16,-5,7
1526902448502902,4,-15,2,8,-22,-44,-8,-1
1526902448502902,10,39,6,8,101,72,7,-2
1526902448524843,14,-8,-1,1,-17,0,24,6
1526902448524843,-1,3,-2,-10,-3,6,-24,-5
1526902448525841,2,2,7,10,-22,-10,16,4
1526902448525841,-5,-19,-5,1,-38,-26,-20,-5
1526902448539803,3,4,-3,3,-2,-7,10,-1
1526902448539803,12,9,12,6,53,18,-9,1
1526902448540801,-9,13,-14,-10,-9,8,12,1
1526902448540801,-15,-23,-2,-4,-19,-15,23,5
1526902448562742,32,-4,2,3,43,16,-15,-8
1526902448562742,-34,-1,-4,1,-26,-8,-7,-3
1526902448562742,-15,-16,-1,-2,4,-5,-2,-1
1526902448562742,15,18,2,2,-9,-6,-6,7
1526902448584683,-13,-20,-5,-2,29,19,19,1
1526902448584683,9,23,2,-5,-15,-8,3,-7
1526902448585680,19,-29,-3,-3,29,16,-11,7
1526902448585680,1,12,1,1,-52,-24,4,-3
1526902448599643,-16,8,3,-1,8,-2,-1,-5
1526902448599643,3,-1,-7,-5,-17,0,-10,-9
1526902448600641,-12,-6,-13,-18,-2,8,-3,-3
1526902448600641,-3,-22,-1,0,22,-1,18,10
1526902448622582,0,18,3,-2,-22,-6,-48,-16
1526902448622582,-1,-12,0,5,-17,-13,5,-7
1526902448623579,-5,3,-7,-3,-1,4,10,4
1526902448623579,3,-9,-9,-6,11,3,1,-1
1526902448644523,9,-3,2,5,9,3,-8,4
1526902448644523,2,11,2,-1,-22,-5,-12,-7
1526902448645521,-3,-4,1,4,44,-12,22,3
1526902448645521,-6,21,1,-8,-34,-1,-15,-13
1526902448659483,9,-22,-3,1,25,5,9,6
1526902448659483,-33,-2,-9,-5,-26,-11,-4,-2
1526902448666464,12,5,8,6,39,-1,6,12
1526902448666464,-19,7,6,-1,-13,4,-28,-14
1526902448682422,20,4,-2,3,-1,5,19,15
1526902448682422,-24,-8,-4,-5,-2,-8,-19,-19
1526902448683419,2,-11,-5,1,-7,9,-11,-10
1526902448683419,21,35,2,4,2,-8,15,19
1526902448705360,-15,-9,-8,-7,-12,-8,-22,-19
1526902448705360,9,-5,4,12,18,8,7,16
1526902448705360,-11,-6,-4,-13,-45,-8,-7,-6
1526902448705360,2,-17,1,8,54,2,-7,-4
1526902448719323,6,9,-1,-7,-15,6,11,12
1526902448719323,59,-11,-3,1,8,-3,13,3
1526902448726304,-71,-6,-3,1,-35,0,-31,-18
1526902448726304,12,-3,2,-1,25,2,9,-5
1526902448742261,1,4,-4,-5,-18,-12,3,6
1526902448742261,20,22,11,6,10,12,15,7
1526902448743259,13,1,-2,-1,0,-4,1,-1
1526902448743259,-5,-12,1,4,5,-9,-3,0
1526902448765200,-19,-17,-3,7,16,15,-11,-9
1526902448765200,0,0,0,-4,-6,-1,17,8
1526902448765200,27,16,2,-2,4,-4,-19,5
1526902448765200,1,-5,-2,-3,-15,-5,6,-2
1526902448779163,-24,-8,1,-2,-13,-11,-1,-10
1526902448779163,8,8,-5,-3,21,6,-16,-12
1526902448787142,13,28,7,7,1,-1,-1,2
1526902448787142,14,-21,-3,-5,-10,-7,-13,3
1526902448802102,41,9,-3,1,-5,7,3,6
1526902448802102,-69,-31,-7,-4,7,-8,3,-8
1526902448803099,25,33,0,-3,12,-2,11,10
1526902448803099,0,-2,3,6,-2,17,-7,-2
1526902448825040,4,0,-2,1,0,-8,-15,-6
1526902448825040,-3,-9,-4,-7,-5,-3,-5,3
1526902448826038,-4,-15,-5,1,-12,-4,-4,-3
1526902448826038,-17,-29,-4,-2,-8,-6,16,12
1526902448839003,17,39,5,-2,-23,-13,-5,-14
1526902448839003,-24,-12,-7,-3,33,13,0,-4
1526902448846981,4,-1,4,4,-12,5,-5,1
1526902448846981,0,3,-5,-7,-1,11,23,9
1526902448861942,-1,-27,-3,-1,-52,-20,5,6
1526902448861942,11,14,5,3,49,0,-6,4
1526902448862939,13,12,5,1,7,12,-8,-15
1526902448862939,-25,-14,-7,1,-19,-6,5,-1
1526902448884880,-19,-5,-4,-7,3,5,3,2
1526902448884880,27,-38,-8,2,-6,-16,-4,-3
1526902448885878,-30,70,16,2,2,11,1,-2
1526902448885878,19,-10,-11,-5,4,1,-7,1
1526902448898843,-18,4,2,3,41,6,10,-9
1526902448898843,10,-16,-3,-3,-26,3,-18,8
1526902448906822,1,-24,-3,-4,1,-6,1,-4
1526902448906822,14,18,7,3,-31,-9,-1,4
1526902448922779,-13,12,7,5,17,0,-9,-3
1526902448922779,6,-8,-2,-6,-26,-3,1,-5
1526902448922779,-20,-23,-6,-3,50,1,15,-2
1526902448922779,-26,13,-1,-5,-32,-6,-15,-5
1526902448944720,17,-22,-5,5,20,0,-12,-10
1526902448944720,8,9,-6,-8,4,15,10,13
1526902448945718,-2,-10,0,0,-20,-11,5,4
1526902448945718,-2,19,-3,-3,35,5,0,1
1526902448959680,8,-13,-1,-6,12,-3,4,9
1526902448959680,-24,14,0,1,-36,1,-1,-9
1526902448966661,37,1,-1,-1,10,2,9,6
1526902448966661,-40,-21,-1,0,2,-2,-23,-14
1526902448982619,1,3,2,2,-33,-9,5,5
1526902448982619,13,13,8,2,-2,-1,3,2
1526902448983616,4,-14,0,3,1,-7,-8,11
1526902448983616,-8,-6,-7,-7,-14,-6,23,-17
1526902449004560,-4,-6,-7,-7,8,7,-1,-1
1526902449004560,-20,-9,0,2,29,7,-3,-3
1526902449005558,-10,-30,-3,-1,-8,3,-9,-6
1526902449005558,41,39,15,8,-10,-8,-7,-2
1526902449027499,-33,-6,-2,-4,-17,-24,12,-1
1526902449027499,18,10,-2,0,28,22,3,18
1526902449028496,13,-11,-5,-1,-17,2,-2,0
1526902449028496,-5,-16,-6,-6,29,12,23,-2
1526902449050438,6,7,3,-2,-20,-6,2,-11
1526902449050438,-8,1,1,2,-11,-23,-28,-14
1526902449051435,6,4,-11,-7,-8,-1,-5,7
1526902449051435,-21,15,6,1,14,14,1,-14
1526902449064400,17,10,0,5,6,1,-7,10
1526902449064400,-11,-15,-2,-4,-31,-12,-5,-4
1526902449065397,2,22,0,6,32,-9,-3,-4
1526902449065397,7,-16,-6,-4,30,26,-1,2
1526902449087339,-7,-1,4,1,-14,2,-4,-2
1526902449087339,3,7,2,-2,3,-8,-6,-1
1526902449088336,-16,-10,-3,-3,-11,11,31,3
1526902449088336,12,-10,-4,-1,-13,-18,-13,15
1526902449110277,2,-15,-7,-5,8,7,4,13
1526902449110277,5,33,4,1,-15,-4,6,-13
1526902449111275,-43,-5,4,-2,-34,-15,-7,-7
1526902449111275,16,10,-6,-4,0,-4,-28,-12
1526902449124240,2,-20,-4,-2,21,15,-6,11
1526902449124240,5,8,-2,-3,-13,-11,21,8
1526902449132219,11,3,-2,3,36,17,-6,0
1526902449132219,-4,-18,-2,-4,-21,-10,18,9
1526902449147178,-5,12,2,0,-10,-12,-7,0
1526902449147178,0,3,-5,0,-6,-4,2,-6
1526902449148176,-2,-11,2,2,6,14,-4,-1
1526902449148176,5,-5,3,0,8,3,13,5
1526902449170117,20,12,-2,-3,-5,-2,-22,-8
1526902449170117,-22,-16,4,0,1,2,-5,-24
1526902449171115,6,-6,5,6,-24,-7,29,8
1526902449171115,5,5,-6,0,-15,-18,-20,-2
1526902449185077,-11,1,1,-2,-34,-2,9,2
1526902449185077,-1,1,-2,4,58,18,1,7
1526902449186075,22,11,2,-5,-18,-16,-21,-11
1526902449186075,6,-10,3,8,16,18,5,-1
1526902449207019,-17,0,-5,-7,-16,-2,5,-10
1526902449207019,-23,-23,-5,-2,-18,-11,7,6
1526902449208016,26,20,1,-5,9,4,-2,9
1526902449208016,-12,3,6,1,13,-6,-18,-6
1526902449229957,7,-15,-11,-4,2,5,9,-1
1526902449229957,7,6,4,1,-4,2,-6,3
1526902449230955,-18,-9,-1,-4,-16,-8,-10,-11
1526902449230955,-3,-10,-1,6,-10,-4,9,16
1526902449243920,-6,-3,6,9,27,-9,-6,1
1526902449243920,4,31,-1,-16,11,15,7,1
1526902449251898,22,-17,1,6,8,11,16,13
1526902449251898,-2,-4,-4,-4,-3,-3,-6,-10
1526902449266859,10,22,7,9,17,-6,-12,-4
1526902449266859,-4,-18,0,6,-49,-16,18,4
1526902449267856,-1,12,2,-5,41,17,-16,-3
1526902449267856,-3,-11,-2,-2,-13,6,4,1
1526902449290794,2,-4,-3,-4,3,8,18,6
1526902449290794,21,1,2,3,-12,-7,-22,-9
1526902449291792,-30,-3,2,2,-14,-13,-10,-3
1526902449291792,-20,4,-1,-4,-8,-11,13,-8
1526902449303760,6,-15,2,2,-5,3,-4,-1
1526902449303760,9,16,0,-2,43,22,-21,4
1526902449312736,3,-7,-5,0,-18,-9,11,-10
1526902449312736,17,16,6,6,2,1,-2,9
1526902449327696,1,-2,-6,-5,-41,-18,-9,-2
1526902449327696,-15,-12,-5,-5,23,1,-1,-20
1526902449327696,-5,-3,-6,-5,18,13,15,0
1526902449327696,-11,8,1,1,-19,-4,-10,-6
1526902449350636,4,5,2,1,8,13,12,10
1526902449350636,-1,1,1,5,-6,-17,-14,0
1526902449351633,23,-4,-2,4,-20,0,7,0
1526902449351633,-12,-15,-10,-12,6,-5,7,-6
1526902449364597,-9,22,4,5,-12,-11,-23,-13
1526902449364597,24,-9,-6,-11,65,20,5,10
1526902449372576,-36,3,5,5,-11,3,-17,-7
1526902449372576,12,-4,-2,-1,4,-3,2,-1
1526902449387536,-29,-3,-7,-8,-8,-3,-6,-9
1526902449387536,11,-3,-4,0,-16,-13,1,5
1526902449388533,7,0,-3,-3,-13,-6,1,5
1526902449388533,-5,12,4,6,19,1,-7,4
1526902449409477,25,-9,-3,-6,7,10,1,-20
1526902449409477,-49,-12,-4,-3,-23,-3,8,14
1526902449410475,23,20,-2,-1,12,-4,4,5
1526902449410475,-11,-11,-2,-2,-14,-4,-8,-2
1526902449424437,-9,-2,-1,-2,3,-2,4,5
1526902449424437,63,2,3,2,-24,-1,20,14
1526902449432416,-58,-12,-2,-2,11,7,-16,-29
1526902449432416,0,4,-1,0,-16,-4,-21,-8
1526902449447376,-4,2,-1,2,7,0,15,9
1526902449447376,1,-1,-5,-6,-12,7,-6,6
1526902449448374,19,3,3,-4,-12,-18,-3,8
1526902449448374,-9,-13,-2,3,18,8,13,-10
1526902449470315,-12,18,-1,-5,-2,6,-12,3
1526902449470315,-7,-6,5,8,-9,-4,6,-8
1526902449470315,21,6,1,-2,-6,-6,7,-5
1526902449470315,-1,-30,-1,-2,-14,-1,2,10
1526902449484278,2,24,0,-2,11,-9,-4,-1
1526902449484278,5,-3,0,2,0,10,-9,-1
1526902449492256,-28,-16,-3,-3,-4,-6,-3,-10
1526902449492256,34,-1,-5,-5,4,2,1,4
1526902449507216,0,-19,-5,-2,-18,-9,-4,4
1526902449507216,-32,10,2,1,-16,-12,-7,-6
1526902449508213,0,12,-3,0,28,22,6,0
1526902449508213,-9,7,-4,-9,9,-5,-10,14
1526902449530155,21,-3,-4,-6,-2,5,14,-6
1526902449530155,-4,6,8,6,-22,-9,6,-15
1526902449531152,4,-16,-10,-3,-3,-7,-2,11
1526902449531152,3,8,-2,-3,-31,-12,-7,0
1526902449553093,-8,3,6,4,18,12,-10,-11
1526902449553093,-1,-6,-3,-2,20,-3,5,-10
1526902449554091,-10,-5,3,8,-11,-6,-22,-8
1526902449554091,20,23,0,-7,0,6,18,5
1526902449567056,-5,-14,4,-1,-12,-5,-3,-4
1526902449567056,5,-5,-4,-1,15,8,28,27
1526902449568053,21,19,9,7,-4,4,-15,-5
1526902449568053,-34,-14,-4,0,-14,-4,8,-3
1526902449589994,-4,5,-2,-1,4,-12,-11,-13
1526902449589994,-13,-6,-8,-5,9,16,5,-2
1526902449590992,22,-13,16,10,5,1,11,3
1526902449590992,7,30,8,8,5,3,-5,3
1526902449612933,-15,-17,-4,-3,16,-3,10,9
1526902449612933,20,14,-3,-2,-18,0,-14,-6
1526902449613931,-10,-13,-11,-12,-9,-17,-12,11
1526902449613931,-8,-7,1,4,12,18,23,4
1526902449626896,19,10,2,-1,-24,-14,-36,-12
1526902449626896,-10,-2,2,9,16,0,-5,-1
1526902449627893,5,1,-7,-14,-20,-7,2,-9
1526902449627893,-8,0,-3,-3,15,0,-5,-7
1526902449649835,6,-4,-2,1,-3,-1,0,11
1526902449649835,-9,-5,0,-2,25,14,-3,-19
1526902449650832,5,12,4,-1,-11,2,17,4
1526902449650832,9,4,3,5,0,-11,-10,-11
1526902449672773,-14,-25,-13,-11,-44,-7,-8,3
1526902449672773,-16,18,4,-2,20,1,-1,-19
1526902449673771,1,0,-4,-1,1,-6,-20,-17
1526902449673771,14,-13,2,2,-8,-3,-9,2
1526902449687733,-9,4,4,5,8,-7,6,-7
1526902449687733,-1,-9,-7,-10,-12,3,6,10
1526902449687733,1,9,-2,-3,-5,0,-7,9
1526902449687733,1,-11,2,-1,-11,-2,4,-14
1526902449709674,-7,-8,-14,-9,16,5,-13,9
1526902449709674,20,14,13,8,-1,-9,-8,2
1526902449710672,-9,-6,-2,5,-3,5,23,10
1526902449710672,-2,-3,-7,-11,16,-5,-28,-2
1526902449732613,16,0,4,4,7,13,38,11
1526902449732613,-23,-10,-4,-2,-14,-9,-2,-8
1526902449733610,-14,10,-5,-7,1,0,-12,-8
1526902449733610,-17,-4,-5,4,-8,-6,4,3
1526902449747573,-12,1,2,1,12,6,11,8
1526902449747573,-3,-14,-4,-1,-21,2,-5,6
1526902449748571,1,-2,-7,-6,5,-9,19,-5
1526902449748571,2,-1,1,-1,-4,0,-12,-2
1526902449769514,-2,5,6,4,31,16,-12,-6
1526902449769514,9,-2,-3,1,-40,-14,6,1
1526902449770512,31,-5,0,-10,34,3,-3,-16
1526902449770512,-14,-5,-9,-8,8,9,0,4
1526902449793451,-8,6,8,8,6,1,6,2
1526902449793451,53,5,-1,0,-18,-5,25,8
1526902449793451,-6,-7,1,3,-18,-20,-22,0
1526902449793451,3,-11,-12,-6,15,11,32,2
1526902449807413,1,0,2,-9,-7,0,-3,-3
1526902449807413,-29,-3,-1,-3,-19,-12,-14,4
1526902449808410,-3,-8,-3,-2,24,13,15,10
1526902449808410,22,-15,-1,3,-17,-11,-18,1
1526902449830352,-8,36,7,3,-8,-4,2,-5
1526902449830352,-21,-15,-5,-8,-22,-8,-11,-6
1526902449830352,2,-4,-2,-1,46,13,0,6
1526902449830352,-7,13,19,16,-15,-4,-16,-14
1526902449853290,52,-10,-3,-5,4,6,34,14
1526902449853290,-8,-6,5,7,-10,-20,-47,-16
1526902449854288,-24,2,-3,-4,-6,11,20,3
1526902449854288,-10,-6,-4,-5,20,0,-1,-7
1526902449867253,-12,-10,-4,-3,-12,-12,-9,2
1526902449867253,39,11,12,11,23,8,1,5
1526902449868251,-46,-8,0,2,-24,-14,6,-9
1526902449868251,2,7,-1,-3,-31,-10,-15,7
1526902449890191,-24,-12,-9,-8,32,7,7,-26
1526902449890191,8,-4,-6,2,46,44,-1,12
1526902449890191,16,1,1,3,-17,-14,-18,-5
1526902449890191,18,11,1,-2,-12,-4,12,5
1526902449913130,-11,-6,-1,4,-40,-27,-17,1
1526902449913130,7,8,1,-2,48,5,9,8
1526902449914128,-17,-12,-5,-10,-3,13,2,-3
1526902449914128,7,-3,-2,1,-3,-1,18,-3
1526902449927093,4,-1,-1,5,1,-2,-28,-15
1526902449927093,-4,9,3,-4,-13,-8,5,-4
1526902449928090,-7,-10,-6,3,-19,-7,-11,6
1526902449928090,-16,10,1,-3,31,-1,13,3
1526902449950032,13,-8,-5,-7,-15,21,-5,6
1526902449950032,18,12,-6,-3,-6,-6,2,-5
1526902449951029,-14,3,-3,-3,-13,-10,-4,-3
1526902449951029,-25,-3,3,1,40,7,-12,-1
1526902449972970,7,12,3,7,0,14,20,7
1526902449972970,-14,-16,-11,-13,-11,-1,-9,9
1526902449973968,26,10,7,4,-8,-4,6,6
1526902449973968,12,-6,2,4,-25,-2,4,-6
1526902449986933,-12,1,5,8,7,-16,-6,-12
1526902449986933,-11,-8,-3,-13,26,15,0,-2
1526902449987931,0,-12,-3,2,-16,-5,9,11
1526902449987931,-1,12,6,2,-19,4,6,-7
1526902450009871,1,-4,0,-2,23,-4,-13,8
1526902450009871,-1,0,-1,0,-61,-17,6,3
1526902450010869,2,8,2,4,43,13,-3,-5
1526902450010869,-14,-4,-6,-13,-35,-5,-13,-6
1526902450032810,23,8,-8,-6,25,3,7,10
1526902450032810,-24,5,2,6,-15,-8,-15,-17
1526902450033808,-7,-5,-1,-5,-22,-4,11,17
1526902450033808,7,-4,1,2,20,2,-10,0
1526902450047770,-3,-15,0,-1,8,10,-10,-15
1526902450047770,1,-8,-1,3,9,-6,-21,-17
1526902450047770,1,25,4,4,-2,3,-2,0
1526902450047770,4,-6,-4,-3,-13,-11,12,1
1526902450069712,-11,-2,-4,-8,-8,-11,19,5
1526902450069712,-4,-1,8,7,37,24,-18,-4
1526902450070709,1,-2,-4,-1,-12,-4,17,-4
1526902450070709,3,9,-1,-1,3,-1,-8,4
1526902450092650,-1,4,4,6,-4,3,-2,-8
1526902450092650,-5,0,-3,2,4,-8,10,-2
1526902450093648,20,2,0,-6,-19,9,7,-3
1526902450093648,7,-7,-3,-3,44,11,5,6
1526902450106613,-9,1,5,7,-32,-8,-3,4
1526902450106613,15,-4,-6,-5,-51,-22,4,-5
1526902450114592,-9,-5,4,4,86,10,-11,-1
1526902450114592,-5,-5,-4,-4,-19,7,9,5
1526902450129552,-3,-12,-6,-6,16,2,6,-8
1526902450129552,-1,-2,5,3,-10,-4,0,5
1526902450130549,-40,-7,-4,2,-10,-7,5,-11
1526902450130549,26,22,3,1,3,0,-16,-10
1526902450153487,7,-11,1,1,-15,-2,3,6
1526902450153487,24,11,-5,-7,6,0,28,2
1526902450153487,-68,-5,2,4,-4,-1,-26,-7
1526902450153487,-2,0,-2,1,-33,-11,7,7
1526902450166453,-13,-7,-1,1,1,10,-3,-15
1526902450166453,16,-6,-10,-11,52,-5,7,13
1526902450174432,55,7,4,1,-10,8,5,11
1526902450174432,-30,-17,0,0,-13,-4,-2,-7
1526902450189391,4,22,-4,-3,5,-8,-1,7
1526902450189391,-8,-7,0,4,-16,-5,-8,1
1526902450190389,1,5,-4,1,2,2,7,3
1526902450190389,-2,-12,-1,2,14,-4,7,-9
1526902450213328,5,7,-2,-9,-3,0,-21,-8
1526902450213328,-25,5,4,2,7,9,5,-1
1526902450214325,22,-5,1,-4,-30,-26,-1,8
1526902450214325,10,19,2,4,12,27,-27,-10
1526902450226293,-10,-13,-1,9,17,5,37,6
1526902450226293,-9,10,-7,-11,-3,-4,-20,-10
1526902450235269,9,-4,5,-1,-18,-3,-2,7
1526902450235269,-36,-3,3,10,7,-3,0,-23
1526902450250229,22,6,-5,-5,3,-8,-25,5
1526902450250229,-30,-35,-2,-3,-20,-3,3,1
1526902450250229,39,29,1,1,29,15,0,2
1526902450250229,-23,12,-4,-4,-8,-15,22,4
1526902450273168,0,-5,-2,0,8,12,-11,1
1526902450273168,6,-1,-3,0,-4,-3,0,-7
1526902450274165,-8,-6,-12,-12,-33,-11,-23,-11
1526902450274165,7,-2,2,6,21,-12,1,6
1526902450287130,0,7,-1,-4,30,9,-7,-1
1526902450287130,12,8,4,7,-6,3,-9,-5
1526902450295109,-11,-13,-2,1,19,17,0,-7
1526902450295109,16,4,-9,-10,-34,-6,-4,4
1526902450310069,-1,-7,14,5,-11,-13,6,7
1526902450310069,-2,13,5,8,4,4,-2,0
1526902450311066,16,-9,-8,-4,-7,2,11,-7
1526902450311066,12,-18,-7,-2,23,-2,-9,4
1526902450333007,-17,1,1,-3,-31,-2,8,3
1526902450333007,0,0,1,4,1,2,-13,-6
1526902450334005,24,6,-3,0,-19,-11,-8,0
1526902450334005,-6,-1,-2,-7,34,11,6,5
1526902450346970,-9,-5,1,5,-31,-2,2,-7
1526902450346970,-6,-13,-7,-8,-20,-3,17,9
1526902450354949,-7,-2,-2,2,52,0,0,-9
1526902450354949,-16,3,-4,-6,-26,-3,4,12
1526902450369909,24,16,2,-1,3,1,-6,-1
1526902450369909,3,-8,2,1,-2,-7,-1,1
1526902450370906,-8,2,2,2,-14,-2,2,-4
1526902450370906,6,-5,0,-4,13,5,-9,4
1526902450392848,11,-1,-2,1,-51,-13,-3,6
1526902450392848,5,14,9,8,57,12,28,5
1526902450393845,7,21,6,2,-45,-4,0,6
1526902450393845,-20,-20,-4,0,41,12,-18,-23
1526902450406810,-3,12,-5,-12,-23,0,-4,4
1526902450406810,-8,-19,-4,-5,-11,-6,3,0
1526902450414789,-3,17,-1,9,10,1,4,1
1526902450414789,8,-9,1,-3,-22,-8,6,3
1526902450429749,0,10,-4,3,11,0,-5,-9
1526902450429749,-5,5,1,-5,-6,-2,0,10
1526902450430746,1,-14,0,-1,20,5,-20,-6
1526902450430746,13,-3,-6,-3,-49,-13,-3,9
1526902450452687,-1,2,-2,0,49,2,19,17
1526902450452687,-43,-4,-3,-2,-37,-8,-18,-24
1526902450452687,-12,-13,-8,-10,11,-1,0,3
1526902450452687,3,5,0,-4,8,7,-2,2
1526902450466650,36,-5,9,2,-29,-3,-1,1
1526902450466650,13,-9,-2,2,53,9,5,16
1526902450474629,-16,-10,-2,-6,-21,-10,-13,-18
1526902450474629,-15,13,5,7,-10,-5,10,-3
1526902450489589,-8,-12,-6,2,-5,-3,-6,-3
1526902450489589,6,7,-4,-12,28,6,3,-3
1526902450490586,-10,-18,1,2,-15,-4,12,7
1526902450490586,11,-3,5,6,2,-5,-14,-6
1526902450512527,12,-6,3,3,-12,4,10,-4
1526902450512527,-19,-4,-6,1,11,7,9,-5
1526902450513525,0,-13,-2,-4,-6,-1,3,7
1526902450513525,20,37,4,9,-2,-2,-1,-2
1526902450535466,-8,-10,1,-2,26,9,-10,-1
1526902450535466,4,-2,0,4,-21,1,3,8
1526902450536464,-3,1,-3,-10,-14,-16,-5,0
1526902450536464,21,-11,3,1,-3,6,16,4
1526902450549429,-9,-2,-4,-9,29,12,-33,-6
1526902450549429,-9,8,-4,-3,-10,-2,19,3
1526902450550426,-7,-16,-1,4,-29,-10,6,-6
1526902450550426,-3,7,-4,-1,41,-11,-22,-7
1526902450572367,-3,23,-1,-2,-23,3,6,1
1526902450572367,0,-10,-4,-10,2,3,-10,2
1526902450573365,10,12,3,3,-14,-5,-4,-1
1526902450573365,27,-12,-6,-1,3,5,34,3
1526902450595306,-84,-26,0,0,-16,-19,-28,-23
1526902450595306,15,27,4,2,4,-3,-6,2
1526902450596304,20,4,2,7,16,20,-8,8
1526902450596304,-14,-14,-3,-8,12,-1,18,1
1526902450610266,0,-3,-4,1,5,-3,-3,-6
1526902450610266,7,-20,-4,1,-52,-27,3,4
1526902450610266,-9,16,3,1,37,14,-11,-7
1526902450610266,-26,-8,-1,-5,1,6,-4,-2
1526902450632207,26,23,5,5,-11,2,14,17
1526902450632207,-16,-5,-4,-6,-5,4,-5,-17
1526902450633205,21,-3,-2,1,34,1,9,11
1526902450633205,-12,-12,-2,0,-17,-4,-1,-3
1526902450655146,-7,-6,-6,-2,-12,-6,-3,-4
1526902450655146,27,11,1,0,-22,-8,-7,2
1526902450656143,-37,-11,-5,-8,33,-3,-5,-9
1526902450656143,4,0,2,0,-13,4,-26,-4
1526902450670106,1,-5,-4,-1,27,5,40,8
1526902450670106,31,16,2,-2,-9,4,3,4
1526902450671103,-27,-6,5,5,-7,-9,-5,-18
1526902450671103,-4,-1,1,1,-20,-10,-6,-1
1526902450692047,-1,-6,-4,-1,53,12,-5,0
1526902450692047,11,3,1,4,6,7,-1,0
1526902450693045,7,1,-2,-4,-38,-3,9,2
1526902450693045,-20,-10,-1,-5,34,9,6,6
1526902450715983,16,23,0,2,-18,-4,-6,-13
1526902450715983,16,-17,4,3,5,-2,-12,2
1526902450715983,-4,8,-1,4,-39,-17,-5,3
1526902450715983,8,-11,-6,-6,11,-1,9,7
1526902450729946,-17,-20,-6,-7,12,2,-5,-5
1526902450729946,-27,-15,-7,-3,13,6,-9,-6
1526902450730944,13,1,1,-8,5,-3,-3,-2
1526902450730944,16,26,10,12,15,5,-6,-1
1526902450751887,-27,-3,-2,-8,-23,-7,0,-2
1526902450751887,-14,-2,-7,-2,3,-3,-20,-6
1526902450752884,23,-19,2,6,-25,-4,16,1
1526902450752884,-15,27,0,-4,-3,-6,-9,-4
1526902450775823,-3,-23,-1,2,12,-2,11,2
1526902450775823,1,17,-1,-1,2,-2,2,-1
1526902450776821,-16,-6,-5,-1,5,3,-5,-8
1526902450776821,14,-20,-1,0,-39,-7,-10,2
1526902450789786,29,21,2,0,16,-5,9,9
1526902450789786,-18,-12,1,1,9,6,-10,-7
1526902450790783,9,-13,0,0,5,2,4,5
1526902450790783,-36,15,1,1,-20,0,-2,-3
1526902450812725,14,3,-7,-6,1,-10,-9,-8
1526902450812725,-22,38,18,13,-2,9,18,8
1526902450812725,3,-6,-8,-8,14,-5,-17,-8
1526902450812725,3,-8,-3,2,5,8,-11,0
1526902450835663,-16,-18,-4,-8,-14,-12,11,6
1526902450835663,5,-18,-5,-4,-11,3,9,-3
1526902450836661,-4,28,3,2,37,8,-3,3
1526902450836661,3,9,1,7,-23,-14,5,0
1526902450849626,-7,-12,-3,-2,-3,5,-13,-5
1526902450849626,14,-4,-1,-4,-9,-1,0,5
1526902450850623,-15,-12,-3,-4,11,-5,3,-4
1526902450850623,-1,-23,-4,-5,-15,3,11,-8
1526902450872564,15,41,8,4,8,2,-15,-3
1526902450872564,2,-11,0,1,-17,-13,-6,5
1526902450873562,-25,-7,-3,2,7,14,26,2
1526902450873562,13,8,-7,-10,-7,-13,-20,-3
1526902450895503,-6,-7,6,6,-10,-1,15,8
1526902450895503,-10,-7,-4,-3,3,-2,-6,-12
1526902450896501,9,14,-5,-4,-4,6,-4,-11
1526902450896501,-34,-12,5,0,3,4,15,13
1526902450909466,34,-2,-5,0,-1,1,-2,3
1526902450909466,-7,20,3,4,4,-4,-4,-12
1526902450910463,7,-9,-1,-2,-17,-14,-11,5
1526902450910463,8,-11,-5,-2,11,11,19,-1
1526902450932404,1,-3,-1,-1,11,13,-9,-1
1526902450932404,1,-8,3,4,-39,-15,4,8
1526902450933402,15,20,3,-4,43,12,5,7
1526902450933402,-24,-6,-8,-1,-29,-16,-18,-12
1526902450955343,19,12,8,6,21,12,7,11
1526902450955343,4,-3,-2,-3,47,5,16,-13
1526902450956340,-13,-5,6,2,-37,0,4,2
1526902450956340,21,0,1,-6,4,-6,-2,4
1526902450970303,-24,-39,-10,-2,-13,-12,-3,-8
1526902450970303,14,51,15,0,-6,3,-4,3
1526902450970303,-10,-5,-4,5,-4,-13,-14,-13
1526902450970303,11,-2,-1,-6,38,19,2,5
1526902450992244,-20,-34,-13,-9,-36,-14,-17,-3
1526902450992244,20,-4,-5,2,-7,-5,0,9
1526902450993242,36,24,15,6,-1,-1,-6,4
1526902450993242,-31,-8,-7,-1,-10,-2,-4,-7
1526902451015183,-20,-5,-3,-7,-3,0,-1,-11
1526902451015183,34,-24,-10,-8,-17,-9,-13,4
1526902451016181,-46,12,0,1,-10,-4,9,-4
1526902451016181,23,45,7,1,19,3,12,-4
1526902451030143,3,-7,4,4,5,5,6,0
1526902451030143,-12,-13,-4,0,12,1,-6,-4
1526902451030143,7,-5,-3,-1,-16,-6,8,-3
1526902451030143,2,-23,1,0,-22,5,-22,4
1526902451052084,-3,35,-1,-6,16,-1,13,4
1526902451052084,-8,-3,0,7,-23,-17,0,-5
1526902451053082,-2,-16,-10,-16,20,14,1,2
1526902451053082,11,6,0,4,-7,3,-32,-11
1526902451076020,4,-6,5,3,10,6,9,4
1526902451076020,2,4,1,4,23,1,-5,7
1526902451076020,-7,-6,1,5,-28,-7,0,-11
1526902451076020,0,-10,-9,-6,0,-11,5,2
1526902451089983,19,2,1,0,-1,6,-4,2
1526902451089983,-33,-6,-4,-4,-3,0,-4,-12
1526902451090980,-22,-52,-8,0,0,3,-12,1
1526902451090980,31,78,15,6,15,7,3,0
1526902451111924,-6,-1,1,4,-22,-17,-4,-12
1526902451111924,-3,-5,-4,-8,4,3,3,-8
1526902451112922,20,-28,-4,1,33,1,-2,6
1526902451112922,-13,-15,1,4,-16,1,10,3
1526902451135860,-3,22,0,-11,-61,-18,-10,-1
1526902451135860,-3,-1,-1,2,76,19,3,1
1526902451136858,10,5,0,2,-21,6,-5,2
1526902451136858,3,4,-5,-1,-10,-17,5,5
1526902451148826,-2,11,7,3,-22,3,-7,-1
1526902451148826,10,-16,-7,-4,18,-3,15,18
1526902451157802,16,9,4,5,14,10,-6,-15
1526902451157802,-8,-4,-5,-5,-31,-15,1,-5
1526902451172762,-18,-21,-9,-8,38,8,-12,-6
1526902451172762,16,24,7,-4,-24,5,12,10
1526902451172762,14,9,-2,-5,-1,-7,-4,-6
1526902451172762,2,-15,3,3,-4,-4,-18,-1
1526902451195700,-9,-14,-3,5,-1,-10,5,-3
1526902451195700,-12,9,-1,3,5,9,-11,-10
1526902451196698,-18,10,1,-5,-10,-13,21,14
1526902451196698,-9,-23,-7,-7,25,18,-4,-5
1526902451209663,8,-5,-1,4,33,-6,-14,0
1526902451209663,1,-4,2,-3,-6,13,1,0
1526902451217642,-24,8,-1,-3,-14,-2,-14,-1
1526902451217642,0,-16,-3,0,4,-7,11,-3
1526902451232601,-21,-8,-2,0,-3,-4,4,-5
1526902451232601,6,17,2,8,-26,-13,-8,-7
1526902451233599,31,14,-1,-4,12,2,-6,-9
1526902451233599,-34,-13,1,-5,8,15,23,8
1526902451255540,7,-5,-2,0,-3,5,-16,2
1526902451255540,-11,-3,-1,0,0,-5,15,3
1526902451256538,15,-2,-6,-3,-19,-15,-4,14
1526902451256538,12,-6,1,6,11,-5,2,-14
1526902451269503,-19,6,1,-3,-2,14,-7,1
1526902451269503,10,1,2,0,-9,-12,-8,-2
1526902451277481,-4,-3,-4,-1,-36,-3,-1,4
1526902451277481,3,-7,2,1,11,-5,19,11
1526902451292442,0,-2,-3,-1,31,5,-29,-8
1526902451292442,-5,-18,-4,-4,-30,-9,-4,-6
1526902451293439,6,2,-1,-7,7,6,9,10
1526902451293439,17,-3,3,-2,-20,-14,-13,-7
1526902451315380,-15,11,-4,-2,-13,-6,15,7
1526902451315380,11,-18,-3,0,18,10,33,-3
1526902451316378,-26,-13,-2,2,-16,-13,-10,-5
1526902451316378,29,9,1,5,38,18,-5,9
1526902451329343,17,6,4,1,-10,-1,4,1
1526902451329343,-15,-8,-3,-5,-5,-1,-9,-3
1526902451337321,3,10,1,1,26,2,6,0
1526902451337321,-8,-3,-4,-1,-17,-3,7,-4
1526902451352281,9,1,3,2,-9,7,15,10
1526902451352281,-24,3,-1,2,28,-7,-19,-17
1526902451353279,8,-2,-3,1,20,15,12,10
1526902451353279,-20,2,-1,-1,-19,-1,-12,-4
1526902451375220,-1,4,4,-2,-4,-5,17,-8
1526902451375220,12,-5,-1,1,-30,-14,1,13
1526902451376218,-9,9,4,3,12,-1,-19,-6
1526902451376218,9,5,-1,-6,29,16,-2,2
1526902451398159,8,-1,1,4,-14,-4,4,1
1526902451398159,-12,-9,-7,-8,-8,0,-3,0
1526902451399156,-1,2,2,4,3,0,-2,1
1526902451399156,0,-6,-4,0,-10,-10,-12,-2
1526902451412122,-14,2,0,-2,1,-2,12,-4
1526902451412122,8,9,-1,2,-3,6,11,3
1526902451413119,-19,-4,0,-2,-3,5,-7,-9
1526902451413119,5,0,-4,1,-10,-17,-4,2
1526902451435060,0,-15,-7,-2,35,15,9,-1
1526902451435060,6,34,-3,-2,-6,1,-4,5
1526902451436058,3,-7,0,4,-6,-6,-13,-4
1526902451436058,3,-4,-4,-15,-26,-7,31,5
1526902451457999,-15,-12,-1,0,-11,-9,-8,-10
1526902451457999,-3,-5,-1,-3,11,7,-18,-4
1526902451458997,-4,2,1,-1,-6,2,23,3
1526902451458997,17,13,3,9,-12,-11,-18,-5
1526902451471961,-9,-6,-10,-8,21,2,-1,2
1526902451471961,1,-11,-2,-6,-9,5,-1,0
1526902451472959,2,1,-3,-4,-5,-1,0,12
1526902451472959,-20,-3,3,2,0,1,-3,-13
1526902451494900,22,11,6,5,-12,-10,-1,5
1526902451494900,-5,-4,6,8,-6,-4,-20,-1
1526902451495898,-5,-6,-8,-9,13,3,9,0
1526902451495898,6,16,2,-1,9,12,10,6
1526902451517839,15,5,-1,-2,-15,-7,-25,-11
1526902451517839,-14,-3,-2,1,8,-1,8,2
1526902451518837,11,4,0,0,-3,-4,-3,-1
1526902451518837,-7,-9,-1,-1,2,0,-7,0
1526902451532799,-4,6,-3,-2,-3,-1,0,-5
1526902451532799,15,-7,-3,2,-10,-6,2,0
1526902451532799,-5,-11,0,-5,2,-6,-8,-9
1526902451532799,-4,7,-5,-1,5,9,-4,0
1526902451554740,0,13,0,-2,-4,1,11,1
1526902451554740,1,-13,-4,-6,-10,-4,-29,-9
1526902451555737,-8,-2,-3,-1,18,-4,-8,-4
1526902451555737,2,-18,1,5,-16,-7,-11,-2
1526902451577679,-4,-8,2,-3,18,7,21,4
1526902451577679,16,32,8,4,-25,-9,-15,1
1526902451578676,-12,-10,1,-5,9,5,1,-4
1526902451578676,-3,-2,-4,-3,-8,-3,-10,-3
1526902451592639,-4,-18,-4,0,18,6,-2,-4
1526902451592639,-1,-2,4,12,-5,-14,8,0
1526902451593636,9,7,-4,-11,1,14,-1,6
1526902451593636,6,6,2,-1,-17,-4,20,9
1526902451614580,0,-1,0,5,27,-7,-48,-8
1526902451614580,-7,-6,-11,-8,-25,-1,26,-6
1526902451615578,-5,1,7,12,6,1,-13,12
1526902451615578,-2,-7,-4,0,1,-1,-1,-5
1526902451638516,3,2,-3,-7,-23,-3,9,-1
1526902451638516,27,-9,-5,-5,31,-1,-8,-1
1526902451638516,-47,-4,0,2,-6,-1,12,-2
1526902451638516,-10,4,-1,-2,-1,7,-14,0
1526902451652479,-2,-27,0,3,-19,-3,9,-2
1526902451652479,13,23,4,-3,18,6,1,6
1526902451653476,21,2,-1,1,-18,-4,7,0
1526902451653476,-2,4,-1,-1,9,-3,-5,-2
1526902451674420,3,-1,3,2,-1,0,-9,-7
1526902451674420,-28,-18,-3,0,0,7,15,1
1526902451675417,6,8,-8,-7,-4,-6,-15,-9
1526902451675417,-10,-10,1,3,11,1,11,1
1526902451698356,19,12,-1,2,-3,2,0,6
1526902451698356,-29,-4,4,-5,5,6,6,0
1526902451699354,14,6,4,6,-3,-4,0,3
1526902451699354,11,-2,-1,4,-22,-10,-1,-9
1526902451712319,-4,-4,-5,-7,-11,-4,8,10
1526902451712319,1,10,-9,-13,29,13,-8,-2
1526902451713316,3,-5,3,4,-28,-5,-1,-16
1526902451713316,-7,-4,1,1,27,8,-2,2
1526902451735257,8,20,6,-1,-29,-9,1,-1
1526902451735257,-13,-12,-5,-4,-6,-3,-10,3
1526902451735257,12,-8,-6,0,9,-1,-4,-9
1526902451735257,11,-20,1,0,-7,-4,3,-8
1526902451758196,-7,67,16,10,7,7,8,0
1526902451758196,-53,-21,-4,-2,-2,-5,-4,-9
1526902451759194,11,3,-2,-3,10,6,14,10
1526902451759194,-1,-11,0,-1,-16,-6,-30,-7
1526902451772158,14,-16,-6,-1,12,2,3,4
1526902451772158,8,4,5,-2,-14,3,-4,2
1526902451773156,-10,-3,-1,5,1,-6,0,-9
1526902451773156,-3,6,-3,-11,-21,-19,11,1
1526902451795097,0,-8,-1,-2,39,25,-5,-3
1526902451795097,5,2,0,2,-12,6,-2,4
1526902451796095,3,-1,6,7,15,4,3,-2
1526902451796095,-5,-17,-7,-10,-17,-6,0,1
1526902451818036,-2,7,2,-4,-18,-21,-12,-4
1526902451818036,4,8,4,5,4,-5,8,1
1526902451819034,7,-2,-4,1,29,9,2,7
1526902451819034,-14,-27,0,-3,8,16,-6,2
1526902451831999,5,49,1,-1,-22,-7,18,-1
1526902451831999,-3,-34,-5,3,11,-3,11,5
1526902451832996,6,24,-1,-5,-27,-10,-15,-6
1526902451832996,12,35,4,9,7,-1,2,4
1526902451854937,-48,-42,-14,-12,9,-5,-3,-8
1526902451854937,14,11,1,1,5,10,4,3
1526902451855935,-11,-15,-8,-6,-12,-4,10,-5
1526902451855935,2,-21,-11,-5,23,8,0,6
1526902451877876,4,11,9,6,-17,-2,-7,1
1526902451877876,8,5,2,4,-9,-11,-15,-9
1526902451878874,-12,-19,-1,-3,-23,-8,-3,5
1526902451878874,0,5,0,3,7,3,-2,-5
1526902451891839,5,-14,-5,-2,5,3,-2,1
1526902451891839,-2,-7,-4,-7,-9,-1,-7,3
1526902451899817,4,0,1,-5,-2,0,10,5
1526902451899817,-1,21,2,3,5,7,1,-3
1526902451914777,-5,-17,-4,1,-28,-10,7,4
1526902451914777,1,0,0,1,25,4,-5,-3
1526902451915775,3,0,4,10,-9,-2,-10,-4
1526902451915775,-10,9,-1,-3,-7,-13,15,3
1526902451937716,25,-4,3,-1,18,10,-11,-6
1526902451937716,-10,1,-2,-1,-31,-13,-2,4
1526902451938713,1,5,-3,-6,-3,1,-5,-3
1526902451938713,-13,-5,2,3,53,4,2,4
1526902451952676,7,-16,-7,-2,-11,8,9,5
1526902451952676,26,7,-2,-5,-4,-6,-9,12
1526902451953673,-53,-10,3,4,-3,-7,-1,-15
1526902451953673,18,24,-2,-6,-14,-4,11,1
1526902451974617,-11,-2,6,4,-3,-7,-3,-7
1526902451974617,5,0,-4,-2,22,6,-3,-12
1526902451975614,6,-9,-6,-3,-6,-1,5,9
1526902451975614,9,12,2,-5,-8,-4,-14,-4
1526902451998553,-8,-5,1,7,-10,-10,5,7
1526902451998553,-1,2,-3,-2,-23,-14,-2,-13
1526902451998553,14,4,2,-8,-20,6,-7,-4
1526902451998553,-8,-3,-2,2,49,27,2,7
1526902452012516,2,-11,-4,-1,-9,-4,-8,-5
1526902452012516,-12,-17,-2,3,7,-3,11,-1
1526902452013513,8,6,-6,-8,-32,-15,-28,-1
1526902452013513,-6,-16,-9,-4,-8,-13,-4,-8
1526902452034457,9,26,13,7,19,13,16,13
1526902452034457,-3,-5,0,1,-5,4,-6,3
1526902452035455,0,5,0,-1,20,-3,1,-7
1526902452035455,-6,-19,-6,-5,-34,-7,3,10
1526902452058393,3,6,-5,-11,13,7,-4,4
1526902452058393,3,10,5,1,18,0,-1,-8
1526902452058393,11,-2,-6,-1,22,5,-4,2
1526902452058393,-31,-8,2,0,9,4,7,-8
1526902452071358,-1,-14,-5,-2,-29,-11,-29,-9
1526902452071358,-4,1,-1,-5,8,3,0,-2
1526902452080334,0,5,-2,1,-22,-10,2,9
1526902452080334,7,4,-4,0,8,7,9,0
1526902452095294,-11,-11,-3,-5,2,-14,-12,-11
1526902452095294,-3,5,6,4,-42,-6,17,7
1526902452095294,7,-4,0,-2,39,19,-14,4
1526902452095294,3,-6,0,-1,11,2,3,-7
1526902452118233,3,11,1,-2,-11,5,5,-2
1526902452118233,-2,-10,-5,2,-9,-6,-8,-4
1526902452119231,-16,12,3,1,-21,-11,5,-2
1526902452119231,2,-17,-4,-8,-3,-7,-2,-9
1526902452132196,2,-12,3,8,-4,-3,-4,-8
1526902452132196,6,11,1,0,28,5,-6,-4
1526902452140175,-6,-16,0,5,17,14,19,1
1526902452140175,6,23,-2,-4,-13,-8,-12,0
1526902452155134,1,-13,-5,-4,-21,-7,3,2
1526902452155134,4,1,0,-1,34,4,17,4
1526902452156132,7,-3,3,3,2,7,0,1
1526902452156132,5,14,6,5,-16,-1,14,4
1526902452178073,-4,-5,-2,-1,-7,-6,-22,-6
1526902452178073,-3,11,10,7,-86,-21,1,1
1526902452179071,1,-8,-11,-10,53,19,16,5
1526902452179071,3,0,0,-4,17,3,-20,-5
1526902452192036,-2,-1,-3,-3,1,11,22,12
1526902452192036,-5,-1,3,1,3,2,-4,-8
1526902452200014,1,3,2,-1,-34,-20,-11,2
1526902452200014,-7,-7,2,4,-7,-7,-22,-17
1526902452214974,1,0,0,2,14,1,10,3
1526902452214974,-15,-34,-9,-7,14,4,-1,1
1526902452215972,12,46,1,-1,-7,-6,-1,-3
1526902452215972,-3,-17,0,-1,30,-1,-18,3
1526902452237913,2,9,3,3,10,12,14,-4
1526902452237913,-1,9,-2,2,10,4,4,0
1526902452238911,-4,-15,-4,-2,-2,-1,3,-1
1526902452238911,-2,-4,-6,-8,-37,-14,-19,1
1526902452251876,-4,0,1,1,19,8,-5,-9
1526902452251876,7,-12,-6,-2,-18,-17,-8,-2
1526902452259854,3,3,7,10,6,11,8,5
1526902452259854,0,6,0,-5,34,8,8,-1
1526902452274814,1,-4,-6,-9,4,3,10,8
1526902452274814,-7,-8,-7,-4,21,-2,-14,-1
1526902452275812,5,16,5,2,-21,-2,6,1
1526902452275812,1,5,3,9,-16,-7,2,-4
1526902452297753,-5,-7,-2,-1,2,-5,-13,-5
1526902452297753,4,7,3,3,0,4,10,4
1526902452298750,-6,-13,-7,-5,22,-7,-10,-11
1526902452298750,0,-13,4,3,-11,7,1,10
1526902452311716,-1,24,-9,-2,-7,-9,6,2
1526902452311716,1,-6,0,-5,-2,4,-9,-1
1526902452319694,2,15,4,2,-10,-9,-6,3
1526902452319694,-2,0,-2,-4,0,4,16,-5
1526902452334654,-8,-19,-3,-5,6,-5,-8,3
1526902452334654,6,-9,-7,-4,-36,-7,14,4
1526902452335652,4,15,7,1,48,19,10,-4
1526902452335652,10,4,2,3,-18,-11,-12,-4
1526902452357593,-34,4,1,2,-29,-8,-2,-3
1526902452357593,0,-2,-5,-6,40,0,-10,0
1526902452358590,2,-15,-1,-4,-28,-3,-5,-6
1526902452358590,1,6,-2,0,1,7,4,9
1526902452371555,14,-4,1,0,4,-1,7,-3
1526902452371555,-2,-2,2,-4,-90,-24,-13,-8
1526902452379534,-8,-9,-3,3,84,22,2,1
1526902452379534,2,8,0,2,-19,-1,0,-2
1526902452394494,3,-8,-6,-7,15,3,6,7
1526902452394494,-3,5,1,1,-4,4,-5,0
1526902452395492,-3,-17,-7,-4,-34,-19,1,-4
1526902452395492,-3,11,3,2,-9,-3,-1,-3
1526902452418430,-1,-1,1,6,22,2,2,1
1526902452418430,4,19,-1,-3,-1,-3,-13,-5
1526902452418430,1,2,-4,-6,-10,3,3,5
1526902452418430,-6,1,-3,-4,24,6,5,-3
1526902452440372,3,0,-3,-4,-22,-5,2,4
1526902452440372,3,-10,2,7,30,11,-2,-2
1526902452441369,-8,2,7,4,-23,-11,-6,-2
1526902452441369,14,12,-6,-5,-37,-5,-5,-6
1526902452455332,-33,-5,-3,-1,11,-4,-15,-8
1526902452455332,0,-11,-4,-2,49,19,24,7
1526902452455332,-3,-14,2,2,-30,-4,-19,-6
1526902452455332,9,23,4,2,2,2,30,12
1526902452478270,8,-20,-3,-1,-43,-15,-10,-7
1526902452478270,-1,16,-1,-3,62,19,11,1
1526902452479268,-5,-11,-6,-8,-26,-11,-20,-2
1526902452479268,-4,-5,1,2,10,-1,10,2
1526902452500211,5,0,1,3,-15,0,-2,-1
1526902452500211,-4,-1,-5,-3,-14,-12,-1,0
1526902452501209,10,3,7,0,26,15,13,-2
1526902452501209,-3,-5,-1,5,-10,-4,-12,-7
1526902452515171,-5,-3,-4,-5,-10,-8,-9,-3
1526902452515171,-5,-9,-3,-3,-17,-18,-2,6
1526902452516169,13,20,0,-2,-17,10,6,-4
1526902452516169,-5,0,1,-4,45,11,-5,5
1526902452538110,3,-16,-1,-1,1,-3,-16,-9
1526902452538110,19,17,2,1,0,4,-7,-3
1526902452539108,-48,-26,-7,-3,-29,-20,-2,0
1526902452539108,3,-6,2,1,-6,-5,2,2
1526902452561049,7,-6,-1,1,13,1,-3,3
1526902452561049,-7,-2,1,0,-9,2,9,-2
1526902452561049,15,5,1,-1,-7,-7,-9,-6
1526902452561049,-7,-12,-4,-3,19,-2,-5,-4
1526902452575012,-1,3,-1,-1,18,11,15,4
1526902452575012,-6,-9,-1,4,4,4,-12,1
1526902452576009,9,1,-6,-2,-13,-3,22,0
1526902452576009,-12,0,-1,-1,2,-9,-18,-3
1526902452596953,8,7,1,-2,-34,-6,2,1
1526902452596953,9,0,-2,-1,63,23,14,7
1526902452597950,-6,5,0,1,-21,-7,-6,-4
1526902452597950,-7,-38,-13,-2,18,-2,0,-1
1526902452620889,6,29,7,-2,-11,1,10,3
1526902452620889,14,8,-2,0,-34,-8,-15,-10
1526902452620889,-34,-8,-5,-2,32,3,7,4
1526902452620889,6,3,-2,-2,-34,-8,1,-3
1526902452634851,8,3,1,-3,33,19,10,4
1526902452634851,-14,-7,4,2,-8,-5,-21,-6
1526902452635849,23,12,4,5,-12,-8,8,8
1526902452635849,-6,-2,-3,1,-15,-9,-31,-9
1526902452657790,0,5,1,0,42,8,15,2
1526902452657790,-1,-9,-7,-7,-22,-4,6,3
1526902452657790,-2,4,4,2,11,2,3,1
1526902452657790,11,17,3,0,-14,-3,-4,1
1526902452680729,-5,-5,1,1,-18,-12,-15,-9
1526902452680729,-10,-8,-3,-7,13,6,8,0
1526902452681726,2,-12,-3,-3,-43,-3,2,1
1526902452681726,-12,-18,-3,3,58,9,-1,-8
1526902452694691,-6,-2,-4,-4,-25,-4,7,4
1526902452694691,2,9,0,0,-20,-7,-5,-7
1526902452695689,0,-14,0,0,-21,-9,1,0
1526902452695689,11,5,5,4,24,9,-11,-4
1526902452717630,-31,-9,-7,-4,2,2,3,-3
1526902452717630,-2,4,0,-1,3,1,-2,5
1526902452718628,8,-10,-3,1,25,13,13,1
1526902452718628,-10,-13,-1,-3,-37,-17,-9,-8
1526902452740569,17,16,2,6,33,1,4,3
1526902452740569,-12,-33,-3,-4,-11,-3,-5,-4
1526902452741566,13,66,7,7,18,0,-16,-4
1526902452741566,-2,-5,2,-6,-44,-1,16,8
1526902452754531,1,-12,3,-1,45,2,8,4
1526902452754531,-5,-12,-2,1,-15,4,2,0
1526902452755529,9,1,3,-2,6,-1,5,1
1526902452755529,-5,7,0,2,-11,-2,-24,-2
1526902452777470,4,-5,-7,-4,4,-9,0,-5
1526902452777470,2,9,1,-5,-22,-4,-2,-2
1526902452778468,-4,-9,0,4,85,9,-5,-2
1526902452778468,5,9,-4,-6,-20,21,11,6
1526902452800409,-5,-18,-4,3,-28,-12,-13,-4
1526902452800409,7,29,9,8,13,-2,1,-9
1526902452801406,14,-18,-8,-2,-19,-10,-10,-4
1526902452801406,-31,-1,2,-5,0,-4,8,-1
1526902452815369,0,-10,-3,1,13,12,0,-2
1526902452815369,6,2,0,-4,-14,-7,-6,-4
1526902452815369,-1,-12,-5,-4,7,-1,4,10
1526902452815369,14,15,9,9,12,1,29,4
1526902452837310,-2,-1,-6,-4,17,7,-27,-10
1526902452837310,0,0,6,12,0,0,14,12
1526902452838308,-8,-2,-4,-9,-19,-5,-16,-12
1526902452838308,4,-17,-3,-4,1,0,6,4
1526902452860249,-2,7,-2,-3,-18,-5,-4,5
1526902452860249,0,12,2,5,18,-1,7,-11
1526902452861246,-7,-16,-5,-3,-7,-1,-14,-2
1526902452861246,3,1,-1,-6,-2,-2,4,5
1526902452875209,7,1,2,3,-31,-8,0,1
1526902452875209,-5,-21,1,5,28,8,-23,-2
1526902452876206,9,25,-2,-8,-9,1,8,6
1526902452876206,-7,-12,-3,-1,-3,0,15,-1
1526902452897150,4,19,3,-1,-38,-22,-2,-10
1526902452897150,-5,-12,-4,3,83,13,0,7
1526902452898148,13,-4,8,11,-31,13,6,-4
1526902452898148,-12,8,-7,-7,28,5,-11,-2
1526902452920089,4,-12,-2,-2,-3,3,-6,-1
1526902452920089,-5,28,0,-6,-31,-10,2,-3
1526902452921086,7,-14,-2,0,-4,-6,-6,5
1526902452921086,5,6,2,5,4,2,15,3
1526902452935049,-6,-9,-3,-3,-9,-4,-3,-3
1526902452935049,0,-5,1,0,-18,1,4,0
1526902452936046,-9,-6,-7,-8,21,-6,-10,-7
1526902452936046,8,15,3,2,-50,-11,26,5
1526902452956990,-7,1,-2,4,55,10,-5,-4
1526902452956990,-3,-17,-8,-9,2,5,4,2
1526902452957987,-12,-9,2,4,-47,-10,7,-3
1526902452957987,14,18,1,-8,25,-7,-41,-9
1526902452980926,7,14,-3,-2,-2,10,20,6
1526902452980926,-3,1,-6,-6,-17,-9,1,2
1526902452980926,-1,-8,-3,1,6,0,-4,-3
1526902452980926,-6,-10,0,7,-13,-9,-7,-7
1526902452993891,5,3,8,2,-29,2,6,3
1526902452993891,-5,1,-2,6,44,6,-9,-8
1526902453002867,1,9,3,-10,9,11,24,9
1526902453002867,-1,-19,-9,-4,-17,-7,-2,-3
1526902453017827,13,29,5,0,26,-1,-7,1
1526902453017827,6,9,9,6,-38,-3,17,9
1526902453017827,-10,-12,-6,3,16,-5,-33,-16
1526902453017827,-5,-13,1,-2,17,10,17,5
1526902453040766,-4,-21,-9,-8,-26,-9,-7,-10
1526902453040766,16,18,8,2,-27,-8,-11,-1
1526902453041763,-17,1,0,0,37,11,19,0
1526902453041763,6,-5,-4,-2,-8,4,-8,4
1526902453054729,-8,-11,3,3,-10,-7,-12,-1
1526902453054729,-3,-14,-4,-3,-18,-7,19,2
1526902453062708,2,4,-3,-1,7,8,-20,-4
1526902453062708,9,14,4,4,1,-2,-9,-5
1526902453077667,-8,-7,2,0,-27,-1,9,6
1526902453077667,5,-4,-4,-1,13,0,2,0
1526902453078665,-3,3,-3,-5,-8,-7,-4,2
1526902453078665,-1,-17,-4,-2,5,-2,-16,-5
1526902453100606,6,5,0,0,11,14,2,3
1526902453100606,-5,0,-2,-3,-15,-9,-10,-9
1526902453101604,-2,-5,-5,-6,-46,-16,-2,2
1526902453101604,-5,-8,4,8,64,8,5,-8
1526902453114568,-13,-11,-3,-2,-6,8,3,3
1526902453114568,4,8,-2,-4,-10,-5,2,0
1526902453122547,11,8,2,1,-6,-4,-1,4
1526902453122547,-13,-10,-1,-2,-11,-5,-5,-6
1526902453137507,-5,0,-4,-1,5,-1,2,-10
1526902453137507,-8,-22,-9,-7,15,6,-9,1
1526902453138505,14,22,12,6,-15,-6,6,-2
1526902453138505,1,-13,-2,-1,13,-1,-3,1
1526902453160446,8,25,4,2,6,1,0,13
1526902453160446,-5,1,-3,1,-3,10,-5,-2
1526902453161443,-2,-21,-7,-5,10,-1,0,-3
1526902453161443,10,13,6,0,-20,-3,-1,3
1526902453174409,-11,-9,-6,-1,-2,-10,-7,6
1526902453174409,-5,2,-1,-1,14,-9,2,0
1526902453182387,-2,10,0,-1,-39,-8,20,-1
1526902453182387,12,1,0,2,54,27,24,8
1526902453197347,6,8,-2,-5,-26,-10,-40,-7
1526902453197347,-3,8,4,-1,-2,3,28,12
1526902453198345,5,-2,-4,-3,3,-1,-20,-12
1526902453198345,-12,5,-3,2,-30,-23,-1,-7
1526902453220286,0,-23,-8,-8,34,30,21,7
1526902453220286,2,7,0,-1,-10,-4,-7,-7
1526902453221284,-12,-25,2,5,17,2,-3,2
1526902453221284,11,24,0,-7,-59,-16,0,4
1526902453234248,-7,-6,-2,2,25,1,-3,-2
1526902453234248,0,-18,-2,-4,-8,-1,12,-6
1526902453242227,4,-3,-5,-2,10,4,-2,6
1526902453242227,-1,6,0,0,-13,-1,-11,-2
1526902453257187,0,-12,4,4,-15,-14,-9,-9
1526902453257187,8,5,2,2,29,7,4,3
1526902453258185,-13,-10,-5,-4,9,-4,-27,5
1526902453258185,-8,-13,-9,-6,-15,7,19,-1
1526902453280126,10,34,8,4,17,6,8,-5
1526902453280126,-1,-10,0,6,-16,-4,-10,-2
1526902453281123,-4,3,-4,-7,-11,-6,9,-3
1526902453281123,-6,-5,-2,-2,47,-10,-18,3
1526902453294089,-2,-23,-2,2,-34,-1,19,-1
1526902453294089,-2,36,3,-2,8,13,3,-2
1526902453302067,3,-13,-5,-1,15,2,-14,-7
1526902453302067,-5,-8,-4,-6,-17,0,-3,1
1526902453317027,15,20,11,2,-7,-10,4,0
1526902453317027,-20,-20,-6,0,-1,-9,-8,-5
1526902453318025,7,16,6,7,12,8,-7,1
1526902453318025,-4,-6,-7,-9,25,1,18,1
1526902453340963,2,4,3,6,17,6,-11,-2
1526902453340963,30,4,0,-4,-36,-2,-18,-5
1526902453340963,-44,4,-1,-2,23,-2,21,-2
1526902453340963,4,-2,2,4,-13,6,-23,-9
1526902453362904,-3,-24,-10,-6,-6,-9,-2,5
1526902453362904,6,36,5,3,3,-5,-12,1
1526902453363902,9,-1,-2,0,-22,0,15,-4
1526902453363902,-10,-6,-5,-1,-3,-5,-4,0
1526902453377865,1,-5,5,-2,2,2,9,2
1526902453377865,-5,-1,-5,-5,-5,-1,-5,0
1526902453377865,3,4,-1,-1,0,-3,-9,4
1526902453377865,-4,-10,5,4,14,5,3,-12
1526902453400803,4,14,-2,-1,-56,-11,-2,-2
1526902453400803,-6,-24,-8,-4,22,5,-8,-3
1526902453401801,1,11,5,1,24,2,14,4
1526902453401801,4,-14,-2,-4,-25,-3,3,1
1526902453422744,-6,-1,-4,-1,-21,-13,2,1
1526902453422744,-1,2,1,2,29,12,-3,0
1526902453423742,7,-12,-2,4,-18,-3,15,-10
1526902453423742,-12,8,-4,-3,-7,-5,-13,-4
1526902453437704,-3,3,0,-3,25,1,-1,1
1526902453437704,-10,-14,0,-2,-13,-4,1,4
1526902453437704,9,2,0,1,-6,-5,-15,-2
1526902453437704,23,8,-2,3,-12,-4,20,10
1526902453460643,-45,0,-2,-2,15,6,-29,-26
1526902453460643,5,-9,-3,-4,15,6,14,5
1526902453461641,-1,-1,0,-3,-12,-1,1,0
1526902453461641,3,3,1,0,-44,-7,-4,3
1526902453483582,4,-18,-10,-5,37,-8,-16,-5
1526902453483582,0,-6,-2,0,-8,6,5,4
1526902453483582,-9,8,2,-2,-39,-8,-6,-4
1526902453483582,-4,7,0,1,26,1,-4,-1
1526902453497544,3,-5,-4,-2,1,6,11,4
1526902453497544,-4,-5,0,2,-14,-10,-12,-2
1526902453498542,8,7,-3,-4,10,1,17,11
1526902453498542,-6,-1,3,0,-16,-5,-18,-13
1526902453520483,9,3,-1,5,2,-8,-2,4
1526902453520483,-7,-3,-5,-8,28,15,6,2
1526902453521480,6,-8,0,0,-10,-7,-7,-1
1526902453521480,-6,7,0,-2,9,5,-7,1
1526902453543421,3,-2,0,2,-13,1,25,6
1526902453543421,-7,-1,-3,1,-21,-15,-5,-14
1526902453543421,-1,2,-1,-4,13,0,-13,-3
1526902453543421,-3,1,3,2,24,8,13,6
1526902453557385,7,2,0,0,-7,7,-7,-3
1526902453557385,-2,-4,3,-1,0,1,10,4
1526902453558382,-3,5,-6,-3,5,-2,-12,-12
1526902453558382,8,-1,-1,0,-14,-4,-3,-1
1526902453580323,-6,0,2,-5,-24,-9,7,0
1526902453580323,-4,0,-2,5,34,2,-12,-3
1526902453581321,17,-10,-4,-4,-8,8,5,8
1526902453581321,-25,2,4,2,-5,-7,-5,-4
1526902453603262,5,-6,-2,2,18,6,-5,1
1526902453603262,-3,6,3,2,-23,-6,5,-12
1526902453604259,11,19,4,2,7,1,0,5
1526902453604259,-1,-12,-10,-7,1,-3,-4,3
1526902453617225,-8,6,4,4,-4,-7,0,-7
1526902453617225,3,-14,-4,-2,-29,-9,-1,3
1526902453618222,-5,-22,0,0,-4,-2,-23,-8
1526902453618222,-12,17,5,2,44,4,29,1
1526902453640163,4,-9,-8,-13,-16,4,7,6
1526902453640163,5,17,-2,-7,-22,-7,-9,-4
1526902453641160,-6,-12,-2,3,21,4,2,2
1526902453641160,11,-11,-3,0,-22,-2,-4,9
1526902453663101,-27,4,4,3,12,0,-3,-5
1526902453663101,-3,-5,-7,-8,-3,-6,-2,-8
1526902453664099,-4,4,-3,0,-18,-12,10,1
1526902453664099,-3,-8,-3,1,10,11,-13,-9
1526902453677064,8,-3,-5,-2,11,2,-14,5
1526902453677064,2,8,6,4,-14,-6,17,4
1526902453678062,-7,2,0,4,17,-2,5,-4
1526902453678062,13,6,0,-5,-5,13,-5,-3
1526902453701000,13,-1,-3,-3,19,2,-1,10
1526902453701000,-11,2,4,4,12,7,-6,2
1526902453701000,-4,-16,-2,-2,-5,-4,5,-13
1526902453701000,10,40,10,11,-8,-5,1,8
1526902453722942,-1,-12,-6,-3,-8,-4,6,-4
1526902453722942,4,-5,-6,-3,-38,-24,-13,4
1526902453723939,-14,-27,-5,1,65,25,21,-1
1526902453723939,7,21,-5,-7,0,17,6,1
1526902453736904,10,10,9,3,-1,-5,-2,-1
1526902453736904,17,-12,-5,-6,-1,-2,2,-5
1526902453737902,-36,4,-2,-1,-64,-24,-16,0
1526902453737902,-7,-23,-13,-10,-4,-15,-16,-9
1526902453759843,5,2,2,2,22,29,23,1
1526902453759843,5,2,1,4,2,-2,-8,2
1526902453760840,10,11,2,-1,-3,1,2,4
1526902453760840,1,-9,-6,-8,-33,-24,-13,-4
1526902453782781,-1,8,2,4,-16,-20,-9,0
1526902453782781,-6,-8,2,2,52,24,-1,-9
1526902453783779,-3,-1,-15,-16,-9,2,-1,16
1526902453783779,11,10,9,10,-4,0,10,10
1526902453797742,-17,-21,-4,-7,-15,-9,-8,-2
1526902453797742,20,15,6,9,33,0,-3,-12
1526902453797742,-30,5,-5,-5,7,14,-5,1
1526902453797742,-6,-15,2,-2,-5,-6,5,-5
1526902453819683,12,29,-2,0,-10,-8,-5,4
1526902453819683,-11,-31,-2,-1,-2,3,0,4
1526902453820681,28,36,7,9,26,5,-6,-3
1526902453820681,-8,-13,-4,-2,-17,-15,10,0
1526902453842621,-3,-10,2,-3,44,20,-4,-10
1526902453842621,-1,0,-1,2,-18,4,-8,1
1526902453843619,-1,-3,5,5,-1,-5,1,-2
1526902453843619,-5,-1,0,1,0,-1,-5,-5
1526902453857582,5,2,0,2,-26,-12,-8,1
1526902453857582,-6,3,-4,-6,44,1,17,7
1526902453858579,11,-1,5,5,-10,9,12,8
1526902453858579,-2,1,-1,5,-11,-3,-21,-11
1526902453879523,3,-2,-4,4,25,6,12,6
1526902453879523,-1,9,-6,-12,-34,-7,7,10
1526902453880521,9,0,8,0,-2,1,9,0
1526902453880521,3,-10,1,10,14,4,18,11
1526902453903459,11,3,-4,-4,-13,-12,-23,-6
1526902453903459,-41,-7,-2,-1,-4,-7,-3,-8
1526902453903459,14,7,-4,-3,29,21,11,10
1526902453903459,-5,-18,-2,-6,-20,2,1,-8
1526902453917422,-17,-5,-3,1,11,-6,0,-9
1526902453917422,15,8,7,9,-14,-9,-5,3
1526902453918419,-5,-15,-3,-4,-32,-13,-4,-6
1526902453918419,-7,1,0,-3,42,6,-13,-7
1526902453940360,-9,-12,4,-1,-19,0,3,2
1526902453940360,1,3,-1,-2,-5,-4,-4,-12
1526902453940360,-4,-10,-5,1,-6,1,-3,-5
1526902453940360,4,-1,-2,-1,-4,-2,-6,-2
1526902453963299,1,9,0,5,-2,-2,16,3
1526902453963299,9,7,-3,-7,-29,-8,-16,-12
1526902453964297,-5,-12,-1,2,78,-3,7,-13
1526902453964297,6,19,-1,-6,-22,22,7,21
1526902453976264,8,-10,-2,-5,22,-1,-9,-8
1526902453976264,-17,5,1,2,-18,5,7,3
1526902453985240,9,-2,0,5,-25,-23,-10,1
1526902453985240,-2,-1,-1,-2,12,11,0,-2
1526902454000200,9,5,1,2,-1,0,14,2
1526902454000200,2,-7,-1,3,4,4,-11,1
1526902454000200,-6,-1,-3,-6,-14,-9,-8,-2
1526902454000200,-1,1,-6,-3,8,-7,7,4
1526902454023139,-9,-11,9,5,-17,4,0,-6
1526902454023139,9,12,-2,-3,-33,-9,7,7
1526902454024136,-3,-10,3,3,31,6,-2,-2
1526902454024136,0,-1,0,2,-24,-9,-23,-14
1526902454037101,1,2,3,0,4,-6,-1,2
1526902454037101,-2,-13,-7,-5,25,16,16,9
1526902454045080,7,-5,-3,-8,-12,7,-1,4
1526902454045080,-14,8,-2,-5,-8,-4,8,-2
1526902454060040,6,14,4,2,-6,-5,-7,-6
1526902454060040,0,-9,2,4,1,-11,-11,-4
1526902454061038,-6,-5,-9,-7,-75,-22,-1,-3
1526902454061038,0,-2,-2,-6,55,6,4,7
1526902454082979,-3,-5,-2,3,-14,8,1,-1
1526902454082979,1,6,2,1,2,-5,-9,1
1526902454083976,6,-2,-1,0,18,-5,11,3
1526902454083976,-4,-5,-2,1,4,18,-1,-5
1526902454096941,-9,-2,-11,-10,-18,-10,-5,-7
1526902454096941,30,-7,1,2,23,14,4,-3
1526902454104920,-41,8,3,2,-28,-13,-10,-7
1526902454104920,1,-10,0,-1,-30,-21,-10,5
1526902454119880,1,-12,-6,-6,45,14,-10,12
1526902454119880,11,48,-3,-2,-21,-3,10,-1
1526902454120878,15,12,13,2,6,5,1,-2
1526902454120878,0,-13,-5,2,4,-5,1,-1
1526902454142818,-12,-7,-1,1,-22,0,11,2
1526902454142818,-9,-26,-4,-2,-5,-10,-6,-11
1526902454143816,8,25,-2,6,40,2,-7,2
1526902454143816,-3,4,9,1,-15,4,7,3
1526902454156781,-3,-14,-11,-12,6,-1,-19,-8
1526902454156781,-8,-12,2,3,-8,-6,23,-1
1526902454164760,0,2,-2,-3,-16,11,-10,0
1526902454164760,0,-16,-4,-1,9,-12,0,7
1526902454179720,3,26,8,6,2,-4,10,-14
1526902454179720,-2,1,1,1,0,7,-21,8
1526902454180717,7,1,-2,-3,1,7,29,5
1526902454180717,-4,-3,-5,-6,-1,-4,1,-2
1526902454202659,-1,-4,0,7,-7,2,0,-3
1526902454202659,-10,-34,-9,-2,-1,-3,-13,-2
1526902454203656,7,23,5,3,12,-9,2,0
1526902454203656,-14,-21,-6,-4,-13,1,0,1
1526902454216621,10,51,16,14,36,9,5,2
1526902454216621,-3,-10,-6,-10,-11,5,14,9
1526902454224600,17,2,7,9,17,4,-32,-25
1526902454224600,-6,1,-2,2,-14,-5,14,-8
1526902454239560,11,-16,-4,-6,-54,-13,0,7
1526902454239560,-32,17,8,9,52,2,-11,-1
1526902454240558,5,-9,-12,-10,22,14,9,9
1526902454240558,15,17,7,3,2,16,2,1
1526902454263496,-1,-18,-3,-2,13,-4,-4,-1
1526902454263496,10,14,7,8,-8,-1,14,4
1526902454263496,-8,-19,-7,-7,-10,-18,-31,-6
1526902454263496,-3,3,6,6,3,0,-1,-6
1526902454276461,3,-11,-5,-3,11,7,-9,-8
1526902454276461,-6,-11,-8,-6,-8,-3,-1,-2
1526902454284440,-7,-10,2,-1,-7,-5,2,0
1526902454284440,10,33,7,4,9,5,-10,5
1526902454300397,-9,-6,-5,-6,-16,-5,11,-5
1526902454300397,5,-2,1,1,7,-1,-20,4
1526902454300397,-3,-12,-7,-12,-27,-14,29,6
1526902454300397,3,-13,-1,12,37,17,2,-12
1526902454323336,1,34,8,0,-10,-5,-3,2
1526902454323336,6,-19,-5,-2,16,4,-3,8
1526902454324334,3,2,-5,-9,-37,2,-1,-1
1526902454324334,2,3,-6,-4,12,-5,13,6
1526902454345277,-1,-21,-3,3,10,1,-4,2
1526902454345277,15,5,0,-6,-31,-8,7,0
1526902454346275,-15,18,5,4,-14,-5,-11,-5
1526902454346275,6,-8,2,0,14,-4,1,-3
1526902454360237,-10,-8,-9,-7,1,10,-2,1
1526902454360237,4,13,8,4,15,-3,-19,-12
1526902454360237,-1,-20,-3,-5,-13,-6,15,8
1526902454360237,0,16,4,-2,-3,-11,-24,-11
1526902454383176,-8,-9,-6,4,11,3,-9,2
1526902454383176,-3,4,-5,-11,-18,4,6,-6
1526902454384173,-5,-8,-1,2,20,1,-6,3
1526902454384173,1,-10,-3,-5,-40,-10,-4,-3
1526902454406114,-2,-10,2,-1,-2,-4,4,-3
1526902454406114,6,46,3,4,15,4,0,-5
1526902454406114,-1,-12,0,2,-5,3,0,1
1526902454406114,-5,-12,-2,-3,-8,-8,-15,1
1526902454420077,-5,-15,-2,-4,7,7,26,3
1526902454420077,-6,-2,-6,-5,12,-1,7,4
1526902454421075,1,1,1,3,9,11,1,-4
1526902454421075,18,-1,1,-4,-34,-14,-20,-7
1526902454443016,-27,21,-3,-4,-34,-8,7,-6
1526902454443016,-4,-15,0,0,7,-23,-28,1
1526902454444013,2,5,-1,1,13,16,8,4
1526902454444013,2,-5,-8,-12,1,-2,7,7
1526902454465954,10,2,3,8,8,9,-13,-6
1526902454465954,-4,-15,-4,-6,-25,-5,21,10
1526902454465954,2,0,-2,-1,-3,-11,-4,-6
1526902454465954,-1,16,5,6,1,-4,0,-9
1526902454479917,8,-4,1,1,7,2,2,10
1526902454479917,-11,-11,-10,-7,-11,-1,-5,-4
1526902454480915,-2,-3,1,5,-4,-4,-14,-1
1526902454480915,-9,-16,-4,-1,16,-5,-1,-5
1526902454502856,-3,-23,-10,-6,9,-7,29,9
1526902454502856,17,20,12,10,32,31,-12,-10
1526902454503853,0,2,0,-2,-48,-10,-2,0
1526902454503853,-12,-8,-8,-9,48,3,-2,-1
1526902454525795,5,-19,1,2,-19,0,-11,1
1526902454525795,-18,-9,-1,4,-13,-14,5,-2
1526902454526792,12,29,2,2,1,2,-10,9
1526902454526792,-5,-10,-3,-4,-24,9,18,-5
1526902454539757,4,5,-7,-8,23,-7,-22,1
1526902454539757,3,-8,-5,-10,-5,4,23,6
1526902454540755,-11,-4,5,5,-3,3,-16,-7
1526902454540755,-7,-11,-5,4,-26,-9,-2,0
1526902454562696,4,9,0,1,28,2,-8,-4
1526902454562696,1,14,1,2,-16,-4,19,3
1526902454563693,-3,-22,-2,-6,17,4,-19,-9
1526902454563693,9,7,-1,-1,-69,-6,11,8
1526902454585635,-2,-15,-2,-2,26,-5,-12,0
1526902454585635,4,-5,4,8,1,0,5,-5
1526902454586632,7,36,7,7,33,16,22,2
1526902454586632,-1,-8,3,-1,1,2,-13,-18
1526902454599597,-3,-11,-2,-4,-41,-13,-5,8
1526902454599597,-8,-6,-9,-8,-3,-15,-17,-11
1526902454600595,1,-11,1,1,-26,-10,7,-1
1526902454600595,20,32,4,2,48,17,10,8
1526902454623533,-38,3,0,1,-32,-7,-13,-7
1526902454623533,-5,-22,-1,0,9,-6,15,2
1526902454623533,2,-3,-8,-9,15,8,-20,-11
1526902454623533,4,20,8,10,48,23,4,14
1526902454645474,21,6,-3,-9,-16,-6,-10,-2
1526902454645474,-8,-3,0,0,-55,0,0,0
1526902454646472,-17,-37,-9,-2,19,-21,0,2
1526902454646472,-1,1,2,5,-25,0,-9,-3
1526902454659437,6,42,7,0,17,3,15,-4
1526902454659437,-3,-14,-7,-10,4,9,-10,-2
1526902454660435,8,-20,-5,-4,-11,-11,-18,2
1526902454660435,-12,13,4,8,13,2,-6,-14
1526902454683373,4,16,7,5,14,2,14,-1
1526902454683373,0,-3,-3,-6,-22,-8,-4,-3
1526902454684371,2,3,-2,-2,-5,2,-14,-1
1526902454684371,15,-24,-8,0,38,-5,24,15
1526902454705314,-27,2,-3,-4,-35,1,2,-7
1526902454705314,2,16,7,5,22,10,9,-6
1526902454706312,-2,-22,-1,1,20,0,4,7
1526902454706312,-1,18,0,-7,-47,-13,-10,0
1526902454719277,3,-3,-2,-1,-3,-7,-12,1
1526902454719277,23,-4,-4,1,16,0,0,8
1526902454727256,-23,16,1,5,10,-1,25,-12
1526902454727256,-4,-21,-5,-10,13,20,-16,2
1526902454743213,-1,7,-3,0,5,-1,6,-3
1526902454743213,-2,9,4,1,2,7,0,0
1526902454744211,9,-4,-6,-3,-26,-14,0,7
1526902454744211,-1,0,-4,2,-18,-15,9,-5
1526902454765154,-1,-7,5,-1,49,29,9,6
1526902454765154,0,-12,0,5,15,-2,-26,-17
1526902454766152,12,57,7,1,-9,8,15,7
1526902454766152,-2,-25,-8,-3,9,0,10,1
1526902454780114,8,-17,-7,3,-6,-30,-9,8
1526902454780114,-15,28,6,0,24,30,7,-18
1526902454781112,9,3,1,2,9,6,-11,5
1526902454781112,11,-20,-5,-8,-6,-8,-6,2
1526902454803053,-8,9,3,7,-56,-31,-15,-5
1526902454803053,-6,-16,-12,-9,18,6,18,9
1526902454804050,-12,2,5,-3,-36,-10,3,-6
1526902454804050,-3,12,2,8,17,9,-8,5
1526902454825992,24,-13,-4,-6,4,10,23,1
1526902454825992,-38,-9,-7,-8,5,-3,-21,-5
1526902454825992,6,-10,3,-3,-37,-5,-10,-6
1526902454825992,7,-17,-4,4,-40,-12,24,7
1526902454839954,-5,39,6,-8,34,-13,-23,-15
1526902454839954,12,-9,-4,-4,-53,-1,0,14
1526902454840952,6,8,-2,2,55,23,11,-2
1526902454840952,-7,23,9,0,-14,-8,-9,-5
1526902454862893,-5,-16,-4,1,-18,-7,-2,-4
1526902454862893,7,-12,-1,-1,-17,-11,-2,1
1526902454862893,-12,-1,0,-1,2,8,-19,-8
1526902454862893,-10,-12,-1,0,38,-1,-6,0
1526902454885831,5,2,-3,-9,-21,1,-16,0
1526902454885831,20,14,5,5,13,3,19,7
1526902454886829,-10,-21,-10,-3,6,9,16,7
1526902454886829,-16,36,5,1,9,1,-5,-10
1526902454898797,-8,-33,-7,-5,-10,4,10,4
1526902454898797,6,7,3,-4,-44,-40,-14,-4
1526902454907773,2,2,-4,1,69,24,13,7
1526902454907773,-9,-21,-10,-7,-44,-1,-11,-5
1526902454922733,7,22,23,19,63,3,-11,2
1526902454922733,-1,5,3,2,-16,12,0,-11
1526902454922733,5,-25,-4,-8,-29,-23,2,-2
1526902454922733,-3,27,8,4,2,-11,-9,1
1526902454945672,2,-29,-20,-14,-34,11,4,-9
1526902454945672,1,15,5,3,27,-5,-9,-4
1526902454946669,-12,-4,7,2,-22,-13,-14,-15
1526902454946669,4,-10,-4,-7,9,-17,11,14
1526902454959634,-2,-30,-4,3,35,38,14,7
1526902454959634,23,12,-4,-3,0,-6,-16,-15
1526902454967613,-37,20,8,4,-2,0,5,1
1526902454967613,-1,-14,-8,-1,-29,-30,0,-8
1526902454982573,1,-10,1,2,27,37,7,9
1526902454982573,-5,-18,-13,-9,26,8,4,9
1526902454983571,16,13,0,0,-30,-12,-4,-6
1526902454983571,1,7,5,-3,-42,-21,-18,-15
1526902455005511,-13,-9,-7,-4,15,-15,5,10
1526902455005511,7,1,3,5,28,28,3,5
1526902455006509,-8,-34,-3,-7,-24,-7,8,-13
1526902455006509,7,22,6,3,5,12,5,6
1526902455019474,32,25,0,-5,-24,-20,9,-11
1526902455019474,-32,-19,-2,-4,-16,-4,-6,4
1526902455027453,3,-37,-13,0,20,-13,-5,-2
1526902455027453,-1,53,10,7,38,40,16,3
1526902455042413,14,10,7,0,-42,-19,-13,-14
1526902455042413,-18,-15,-7,1,1,-29,-24,-11
1526902455043411,-5,-12,-7,0,9,19,29,14
1526902455043411,5,-11,-3,-13,6,7,-6,0
1526902455065352,18,22,1,7,24,10,-5,9
1526902455065352,2,20,7,6,-9,4,10,2
1526902455066349,-4,2,-2,0,-16,-18,-7,3
1526902455066349,-10,-4,-8,3,-21,-15,-23,-19
1526902455079314,-1,15,-3,-9,17,21,-8,0
1526902455079314,-30,-56,-4,3,-29,-11,37,20
1526902455087293,23,38,-3,-7,15,6,-23,-11
1526902455087293,9,-8,7,7,44,-2,25,3
1526902455102253,-14,-3,5,-2,-77,-20,-19,-11
1526902455102253,13,1,-8,-8,6,-9,-5,9
1526902455103250,3,-14,8,1,37,50,2,7
1526902455103250,-3,-30,-1,-1,-11,-2,23,1
1526902455125191,-26,15,-13,-2,-4,-15,-45,-32
1526902455125191,8,-1,5,0,-13,-17,-8,-7
1526902455126189,1,-2,0,-1,7,-7,12,8
1526902455126189,8,6,2,5,6,13,7,6
1526902455139154,-15,-32,-2,-4,-15,-4,19,9
1526902455139154,13,32,-2,-4,-32,-5,-24,-14
1526902455147133,-8,5,-3,-1,32,3,5,-2
1526902455147133,29,-6,4,1,-16,-6,-8,10
1526902455162093,-67,-105,-14,0,6,6,13,-3
1526902455162093,28,75,9,1,-5,1,-9,4
1526902455163090,10,-1,12,0,-5,-8,-15,-1
1526902455163090,0,-6,-11,-8,15,15,3,-4
1526902455186029,2,-5,0,4,6,1,3,1
1526902455186029,-13,-40,-8,-5,12,-5,6,-7
1526902455186029,1,33,3,6,-20,-13,-20,4
1526902455186029,-6,-12,-1,-5,-86,-27,20,-3
1526902455198994,13,31,0,-8,54,-10,-25,-1
1526902455198994,-10,-39,-7,-4,38,44,2,5
1526902455206973,19,31,3,1,-5,-9,28,3
1526902455206973,-48,-66,-8,5,9,8,-21,-12
1526902455221933,41,78,17,2,-9,-2,6,-4
1526902455221933,20,-10,-5,-4,3,-12,10,-6
1526902455222930,-67,-24,-11,-6,-26,-4,-7,-6
1526902455222930,-25,-22,-4,-6,2,-8,-21,1
1526902455245869,4,-3,-6,-7,22,-4,8,-11
1526902455245869,18,-5,7,7,17,15,2,13
1526902455246866,-16,15,1,1,-4,-9,-9,-14
1526902455246866,10,8,-4,-3,-22,-17,3,20
1526902455267810,8,3,6,-1,8,15,-2,1
1526902455267810,-4,49,1,-4,7,11,16,-5
1526902455268808,7,-24,-7,0,3,7,-7,-12
1526902455268808,-2,13,1,6,11,-10,-8,-2
1526902455282770,0,-11,-5,-2,-33,-8,8,12
1526902455282770,-7,-12,2,-3,5,-3,10,-3
1526902455282770,7,3,3,4,-7,-6,-4,6
1526902455282770,14,32,3,-2,42,8,0,-3
1526902455305709,-3,-24,-1,14,-44,-10,-5,-2
1526902455305709,6,15,6,1,61,32,13,-2
1526902455306706,-22,-25,-3,-1,-10,-4,-17,-3
1526902455306706,-7,-37,1,-1,6,1,5,-1
1526902455327650,5,22,3,1,-20,-18,-13,-15
1526902455327650,14,26,-1,4,-28,-22,-7,10
1526902455328648,-24,-14,0,8,21,29,-14,-7
1526902455328648,6,14,-6,-13,-12,-6,-15,-15
1526902455342610,-5,-18,3,2,32,29,7,5
1526902455342610,-1,11,5,5,-48,-28,-16,-2
1526902455343608,16,-23,-12,-12,-30,-27,6,1
1526902455343608,-13,-6,-2,-1,35,22,3,1
1526902455365549,-12,-21,-1,12,18,12,-1,2
1526902455365549,2,27,6,-11,-12,2,-14,-5
1526902455366546,18,2,-2,0,10,-3,4,-1
1526902455366546,7,-7,-2,-1,-24,-13,2,5
1526902455388488,-24,20,1,1,-3,-28,3,0
1526902455388488,-18,-66,-1,4,5,18,-14,0
1526902455388488,27,32,-3,-2,48,24,7,-5
1526902455388488,-15,14,1,-7,-11,1,8,-6
1526902455402450,14,-5,-5,-3,-43,-8,-5,1
1526902455402450,-17,-5,-6,4,28,-42,-32,-12
1526902455403447,13,-2,0,-5,-25,6,28,10
1526902455403447,-4,-9,-2,-2,15,10,-7,-5
1526902455425389,-3,34,0,-1,34,17,18,12
1526902455425389,3,-16,-3,-4,-19,0,10,-11
1526902455426386,-1,-22,-7,-7,-19,-14,-4,-7
1526902455426386,3,14,9,11,16,-2,-11,8
1526902455448327,-9,-37,-9,-11,-39,-28,-4,-11
1526902455448327,0,-24,5,2,13,12,11,11
1526902455449325,10,57,10,6,12,3,-5,-5
1526902455449325,16,18,-3,-11,-9,3,-20,-1
1526902455462290,-3,-12,-1,-1,9,9,37,11
1526902455462290,-10,-17,-13,-1,-26,-19,-1,-1
1526902455463288,26,5,7,-1,-40,-22,0,10
1526902455463288,-12,-5,-3,3,76,33,-8,-11
1526902455485229,23,12,2,-7,-25,-2,15,18
1526902455485229,-11,0,-3,4,11,17,13,-1
1526902455486226,-12,-20,-8,-4,-61,-32,-15,8
1526902455486226,-18,34,7,5,26,-30,10,-18
1526902455508167,22,-3,0,-11,46,57,10,-14
1526902455508167,-16,4,3,5,-10,7,-2,4
1526902455509164,-33,-15,-6,-2,13,1,29,12
1526902455509164,6,-11,-2,2,-37,-9,-16,-3
1526902455522130,0,-1,-1,-5,-32,-53,-21,-2
1526902455522130,-1,1,1,1,76,35,3,5
1526902455523127,4,-14,4,0,21,29,-21,-10
1526902455523127,-9,11,-5,-1,-23,-6,0,6
1526902455546066,6,10,2,8,-13,-14,-24,-18
1526902455546066,17,27,0,-11,-35,-19,8,8
1526902455546066,-8,-18,1,3,0,-5,-7,-4
1526902455546066,8,-30,-9,-6,19,5,25,10
1526902455568007,0,13,9,7,-18,-7,-8,7
1526902455568007,-2,8,3,1,16,1,-6,-5
1526902455569005,6,-2,-6,-3,7,10,-5,0
1526902455569005,3,11,3,-2,-14,1,31,-11
1526902455581970,-13,-23,-7,-1,-16,-3,9,5
1526902455581970,4,15,1,2,-15,-11,-19,-15
1526902455582968,28,17,2,-2,63,-21,3,9
1526902455582968,-9,-15,5,6,-5,35,1,7
1526902455605906,-44,9,-2,2,-3,7,-12,-3
1526902455605906,10,-9,-2,-1,7,4,16,-1
1526902455606904,-4,-15,-4,-9,-32,-13,-11,-7
1526902455606904,17,18,4,3,-5,-7,-19,5
1526902455627847,10,-1,7,2,11,2,46,6
1526902455627847,-20,-14,-16,-14,-27,-14,-18,-6
1526902455628845,-4,-2,-2,-2,-2,2,-2,-15
1526902455628845,5,-11,5,3,-4,-6,-10,-5
1526902455642807,5,29,1,1,30,16,-2,8
1526902455642807,1,-17,-6,1,-30,-20,4,1
1526902455642807,-9,-5,-3,2,17,15,15,5
1526902455642807,3,3,-7,-8,39,-12,-4,1
1526902455665746,0,-7,-2,3,12,23,-29,-13
1526902455665746,24,3,-1,-2,-44,-17,5,16
1526902455666743,-53,19,4,2,22,11,-14,-26
1526902455666743,13,-9,-3,-3,-16,-1,-5,1
1526902455687687,17,2,1,0,-6,-11,-2,16
1526902455687687,-1,-9,0,5,21,7,7,-22
1526902455688685,-11,0,0,1,-37,-11,-4,2
1526902455688685,-9,-13,-7,-12,-19,-13,-25,-11
1526902455702647,6,-6,-4,0,18,4,-7,-2
1526902455702647,3,-14,-4,-1,-8,-1,9,6
1526902455703645,23,77,8,-2,12,-6,-7,4
1526902455703645,-9,-4,-1,2,-51,-16,20,1
1526902455725586,7,-16,-13,-12,55,12,-29,-4
1526902455725586,-11,7,3,5,2,22,37,4
1526902455726583,-3,-25,-5,-2,-10,-2,-16,-10
1526902455726583,7,2,4,4,-7,4,-10,4
1526902455748524,-7,12,0,-6,-48,-33,9,2
1526902455748524,-11,-19,-6,-2,8,-18,-12,1
1526902455748524,9,-1,-4,-5,19,28,1,9
1526902455748524,7,3,-2,-5,2,7,14,-7
1526902455762487,9,-3,9,7,-8,-12,-10,-7
1526902455762487,-35,-20,1,0,-25,-10,-26,-14
1526902455763485,24,4,1,5,-33,-17,15,13
1526902455763485,-11,-9,-6,-2,45,16,0,-11
1526902455785426,-7,-1,-8,-9,7,11,15,-2
1526902455785426,13,0,2,-7,-12,3,1,-5
1526902455786423,-4,-6,2,8,2,-21,4,16
1526902455786423,-6,-15,-3,-3,-4,13,3,1
1526902455808365,6,9,1,10,-15,-9,15,2
1526902455808365,2,11,4,-2,-34,-12,-12,0
1526902455809362,8,5,-3,-4,41,15,-2,5
1526902455809362,-9,3,4,-2,11,1,15,-2
1526902455821330,-1,-6,0,-2,-3,5,10,11
1526902455821330,8,11,5,6,2,1,-13,1
1526902455830306,-20,-19,-1,4,-12,-21,-13,-10
1526902455830306,12,18,-5,-8,-15,-14,-20,-2
1526902455845266,-5,-7,-2,-4,18,27,2,10
1526902455845266,4,-8,-8,-7,-1,3,24,0
1526902455846263,2,14,17,12,-3,8,10,-4
1526902455846263,6,9,2,8,-10,-14,2,1
1526902455868204,-18,-6,-9,-4,-26,-7,-18,-2
1526902455868204,5,7,-4,-1,14,-2,25,7
1526902455869202,14,-32,-8,-5,1,1,-18,-13
1526902455869202,-1,32,8,6,17,1,1,8
1526902455882167,9,1,5,8,-16,1,3,0
1526902455882167,-8,-9,-2,0,24,2,-30,-11
1526902455890146,0,-4,-3,-4,-11,5,19,7
1526902455890146,0,0,1,1,0,5,-35,-11
1526902455906103,-2,-28,-5,2,13,-21,41,5
1526902455906103,0,26,-1,-15,37,27,-2,7
1526902455906103,8,9,3,-4,-29,-19,-9,14
1526902455906103,-9,-16,-5,0,19,24,13,-31
1526902455928044,1,6,3,8,17,-17,-22,-13
1526902455928044,-10,-11,-1,0,-26,-14,-1,-8
1526902455929042,4,5,-2,-4,21,7,13,0
1526902455929042,-10,-15,-4,-2,-19,-6,-19,18
1526902455942007,1,7,1,-4,-4,9,10,-4
1526902455942007,0,-2,-1,-2,25,5,-15,-7
1526902455949986,-5,-20,-11,-7,-58,-16,-10,-4
1526902455949986,-1,21,6,7,39,4,13,4
1526902455965943,11,-2,10,2,-18,12,5,5
1526902455965943,18,2,-9,-8,-23,-19,-14,11
1526902455965943,-71,-38,-6,2,28,21,2,1
1526902455965943,6,-2,2,1,-68,-36,9,16
1526902455987884,-1,24,1,5,50,-3,-33,-4
1526902455987884,24,26,5,3,16,37,20,2
1526902455988882,14,-6,-6,-4,-2,-5,-16,-1
1526902455988882,-15,-19,-6,-5,-13,-7,26,3
1526902456001847,-8,-8,-10,-7,-49,-27,-61,-25
1526902456001847,-12,-11,1,2,67,-1,12,6
1526902456009825,5,5,-5,3,-3,10,-7,-11
1526902456009825,2,24,13,1,-8,5,14,16
1526902456024785,6,-2,0,-1,18,14,1,2
1526902456024785,-17,-11,1,10,-45,-4,18,-15
1526902456025783,2,-11,-10,-11,-42,-22,2,5
1526902456025783,15,-21,-7,0,69,24,3,6
1526902456047724,-4,0,7,4,-21,2,10,4
1526902456047724,14,7,4,1,-6,-7,-13,-5
1526902456048722,-24,23,9,10,3,-12,18,3
1526902456048722,4,-24,-10,-10,-6,4,-45,-7
1526902456061687,-10,-12,-6,2,8,3,26,-2
1526902456061687,-16,-13,-2,-9,-6,-9,-7,0
1526902456069666,20,11,12,5,18,11,21,1
1526902456069666,14,58,9,6,7,5,-6,-5
1526902456084626,-6,-21,-12,-7,-13,-15,8,3
1526902456084626,-21,-6,-3,2,-44,-15,-20,1
1526902456085623,6,-14,-7,-8,52,19,23,3
1526902456085623,0,6,-7,-13,-27,12,-1,8
1526902456108562,-1,6,0,0,19,3,26,4
1526902456108562,16,22,4,3,-69,-38,-35,-7
1526902456108562,-11,-3,-4,-8,7,-2,-4,-5
1526902456108562,-20,-27,-9,-2,51,18,20,-10
1526902456121527,11,7,-2,-8,-9,5,11,7
1526902456121527,-3,-3,-10,-6,6,-2,23,18
1526902456129506,17,7,6,11,-9,-4,-13,6
1526902456129506,4,4,7,3,-45,-16,-8,-17
1526902456144466,-13,-15,-9,-5,2,-3,1,4
1526902456144466,1,-39,3,6,37,15,-7,-6
1526902456145463,20,69,1,-9,42,25,3,-1
1526902456145463,-6,-34,-1,6,-11,-13,-10,3
1526902456168401,-4,7,3,-3,-19,-7,-14,-11
1526902456168401,-9,3,5,6,-8,-8,5,8
1526902456169399,9,-27,0,10,-16,-11,-20,-8
1526902456169399,3,12,-6,-4,7,-6,27,-1
1526902456190343,-18,-11,-8,-17,23,17,-10,4
1526902456190343,19,23,1,5,45,26,-6,-25
1526902456191340,4,16,2,1,-36,-9,0,1
1526902456191340,-6,-5,-5,-2,-58,-29,-19,-9
1526902456205303,-1,4,6,6,-19,-20,-26,-2
1526902456205303,-2,5,-1,-3,50,22,11,12
1526902456205303,-8,-28,-8,-6,-6,11,29,-11
1526902456205303,14,-40,-2,-4,-12,-3,17,16
1526902456228241,-26,63,10,5,-11,-2,7,-9
1526902456228241,2,-1,-3,-4,-39,-26,-19,6
1526902456229239,6,-15,-4,-3,-6,7,0,2
1526902456229239,-8,-15,-1,8,50,5,-24,-6
1526902456251180,7,-9,-3,-13,-10,-12,8,1
1526902456251180,-9,4,2,2,11,28,-3,-15
1526902456252178,-4,-7,0,2,-8,-9,10,18
1526902456252178,-1,1,-7,-12,-19,-16,13,5
1526902456265143,8,7,-2,5,8,7,-19,-28
1526902456265143,3,-14,-7,-3,-3,-1,3,5
1526902456266140,-6,-18,4,3,3,-6,-16,-16
1526902456266140,5,44,5,5,1,0,0,1
1526902456288081,6,-33,-1,6,25,20,4,-4
1526902456288081,1,-8,-4,-8,-5,-9,-16,1
1526902456289079,14,35,14,7,20,14,10,2
1526902456289079,-18,-22,-10,-5,6,-7,-5,-1
1526902456311020,14,7,4,4,-13,4,11,13
1526902456311020,-6,-19,-11,-7,-5,-12,4,-9
1526902456311020,-20,-10,-3,-4,-27,-9,-6,-5
1526902456311020,37,27,6,3,51,7,-22,-7
1526902456324983,-20,-1,0,-2,3,7,3,3
1526902456324983,-23,-2,-2,4,-13,-1,20,11
1526902456325981,-13,-12,-7,-7,29,-8,-31,-23
1526902456325981,4,17,7,0,-33,-1,3,17
1526902456347921,4,-49,-7,7,5,-6,26,-7
1526902456347921,11,22,6,1,9,-3,-33,-3
1526902456348919,5,48,6,2,-22,-2,3,3
1526902456348919,-2,-26,-7,-3,-3,-10,-3,4
1526902456370860,5,2,-2,8,48,33,6,5
1526902456370860,28,1,-6,-11,-13,0,3,11
1526902456371858,-57,-17,1,7,20,7,-5,-14
1526902456371858,-7,-2,0,-4,4,-5,25,13
1526902456384823,4,13,-2,-4,-42,-23,-55,-13
1526902456384823,-12,-10,-2,-2,-34,-11,9,-4
1526902456385820,20,-13,-6,-3,40,22,5,2
1526902456385820,-17,3,7,4,-13,0,-14,-32
1526902456407761,4,6,0,-3,-5,-7,-6,1
1526902456407761,-8,14,5,8,21,7,-2,-4
1526902456408759,4,-44,-10,-7,-37,-31,7,29
1526902456408759,29,18,1,-2,38,26,1,-6
1526902456430700,-42,52,14,10,-3,2,17,-6
1526902456430700,0,1,-2,-4,16,5,7,2
1526902456431698,-4,-14,-5,-3,-14,-14,-10,-4
1526902456431698,2,-21,-12,-7,30,24,10,5
1526902456444663,19,-7,2,0,-12,-9,5,11
1526902456444663,-1,17,3,6,16,6,-7,1
1526902456445660,-1,-6,-4,-3,-31,-15,5,-4
1526902456445660,13,-1,2,0,-26,-13,-4,2
1526902456468599,-6,6,-2,-5,5,1,-16,-6
1526902456468599,-10,-7,3,7,6,-16,16,5
1526902456468599,11,-14,-9,-10,16,15,22,1
1526902456468599,-3,22,6,12,12,11,-6,7
1526902456490540,6,-15,-5,-6,0,0,19,-1
1526902456490540,-1,-1,-7,-6,-17,-16,-10,-4
1526902456491538,-12,-24,-1,-1,-13,16,-12,-5
1526902456491538,-2,54,7,2,34,5,21,4
1526902456504503,11,-22,-9,-6,-34,-24,-12,16
1526902456504503,10,-23,-10,-5,-14,2,34,7
1526902456505500,-18,18,7,7,7,-11,-36,-15
1526902456505500,-24,-44,-17,-18,-45,-16,-4,-6
1526902456528439,-3,-3,-3,-1,5,0,-6,4
1526902456528439,12,12,3,-3,-32,-1,-3,-1
1526902456529436,18,9,-3,-7,60,7,4,17
1526902456529436,-17,-4,7,9,-12,6,-10,-16
1526902456550380,16,16,-1,0,-11,-7,-11,3
1526902456550380,14,-9,-2,-8,-11,-5,-4,-2
1526902456551377,-29,10,3,-3,-65,-21,5,0
1526902456551377,-7,-31,-4,8,36,21,-11,-4
1526902456565340,6,33,2,-1,25,16,11,-8
1526902456565340,20,24,3,3,7,-1,11,-6
1526902456565340,-1,-22,-3,5,-29,-3,-9,0
1526902456565340,9,20,2,-4,-44,-29,-7,9
1526902456588279,-14,-26,-7,-4,40,11,34,8
1526902456588279,21,-3,8,9,6,6,-31,-19
1526902456589276,-25,1,-5,-8,25,3,-4,-11
1526902456589276,3,-1,-9,-8,-11,-9,8,3
1526902456610220,-8,-5,1,-2,-21,-5,8,-2
1526902456610220,-42,26,7,3,21,2,-2,-7
1526902456611218,45,7,2,6,-8,4,-12,4
1526902456611218,-5,-16,-7,-7,-10,-14,-14,-9
1526902456625181,10,-22,-1,-1,-7,15,2,11
1526902456625181,-10,6,-1,-2,12,-7,9,-4
1526902456626178,24,28,4,1,-7,-6,-29,3
1526902456626178,-20,-26,0,8,24,24,-4,-15
1526902456648118,11,2,-3,-11,-44,-40,-8,1
1526902456648118,-16,-26,-6,7,23,27,-2,6
1526902456649116,10,16,3,-6,25,7,3,-18
1526902456649116,11,2,-1,0,-17,-3,3,9
1526902456671057,-9,-19,-5,-2,36,4,-8,-3
1526902456671057,2,15,2,-3,-24,-10,-15,0
1526902456671057,17,4,-8,-4,-9,-8,24,7
1526902456671057,3,2,7,2,-30,-3,16,7
1526902456685020,-28,-15,-4,1,43,-4,-23,-17
1526902456685020,17,17,10,9,12,14,-9,7
1526902456686018,7,-23,-7,-2,7,13,15,4
1526902456686018,12,-1,2,-4,14,-2,-4,1
1526902456707959,-10,8,-4,-3,-41,-12,5,-2
1526902456707959,1,-18,-3,-3,2,-7,-30,-6
1526902456708956,-13,-1,4,2,-12,-3,16,1
1526902456708956,-9,-12,1,2,-7,-4,-35,-11
1526902456730897,6,-16,3,7,59,2,30,-6
1526902456730897,-3,27,8,12,8,12,-3,5
1526902456731895,2,-1,-5,-8,-2,0,-10,-4
1526902456731895,7,-3,0,-1,-2,8,-12,4
1526902456744860,-20,-9,-5,-9,-26,0,-3,0
1526902456744860,-42,-28,-12,-9,-25,-19,13,-7
1526902456745858,7,15,6,10,16,-4,-34,-13
1526902456745858,-19,-9,4,0,2,-2,29,3
1526902456767798,42,6,-3,-2,-4,10,-15,1
1526902456767798,-2,-15,-4,-5,-15,-4,17,2
1526902456768796,-14,25,-2,-2,-12,-8,5,7
1526902456768796,-11,4,-6,0,11,3,19,-3
1526902456790737,10,-6,4,7,-43,-13,-23,2
1526902456790737,0,19,3,-3,53,2,9,-10
1526902456791735,6,-16,-3,1,8,17,7,5
1526902456791735,6,-9,-6,-9,-12,-4,-9,-8
1526902456804700,-9,28,4,0,7,3,3,6
1526902456804700,3,-17,-7,-5,-29,-17,3,2
1526902456812679,12,26,3,9,1,-6,-5,-3
1526902456812679,-10,7,8,-1,42,8,14,11
1526902456827639,-24,-46,-10,-10,-27,13,-14,-16
1526902456827639,4,50,9,3,3,-25,1,5
1526902456834620,17,-8,6,6,-2,17,15,20
1526902456834620,-12,-8,-17,-14,-28,-3,-16,-8
1526902456850577,0,3,1,1,33,-11,-11,-6
1526902456850577,4,-1,8,-3,14,25,6,5
1526902456851575,-12,-18,-6,-5,-33,-22,15,0
1526902456851575,17,7,5,12,8,1,1,3
1526902456864540,-12,20,1,-7,-25,-3,12,1
1526902456864540,-9,-35,-15,-6,-12,-10,-10,-2
1526902456872518,23,19,3,-3,4,-3,2,-2
1526902456872518,-33,-16,-2,10,11,20,-13,-5
1526902456888476,37,6,-1,-8,-1,-4,13,9
1526902456888476,-37,-13,-3,-1,21,5,0,-14
1526902456888476,4,8,0,0,-8,-3,-18,-11
1526902456888476,8,42,6,2,-27,-21,3,5
1526902456910417,1,-10,0,9,-24,5,4,7
1526902456910417,13,2,-1,1,22,6,-16,4
1526902456911415,-31,-34,-10,-9,-34,-26,9,-5
1526902456911415,-37,11,5,1,25,11,-26,-16
1526902456924380,19,14,-3,-7,-16,-1,6,3
1526902456924380,1,-5,-2,3,-15,8,-6,5
1526902456933356,9,-4,-2,-10,32,3,7,11
1526902456933356,2,-11,-8,-2,-36,-18,17,-4
1526902456948316,-10,-6,1,1,17,1,-12,-3
1526902456948316,13,-19,-7,-9,-63,-16,4,1
1526902456949313,-18,11,-2,4,11,3,1,-2
1526902456949313,-8,-2,4,-1,15,-8,-24,0
1526902456970257,-8,5,8,14,28,8,-17,-15
1526902456970257,22,-23,-10,-14,1,11,25,13
1526902456972252,12,29,4,8,0,-1,-21,-18
1526902456972252,19,-19,-2,-8,-15,-12,17,18
1526902456984220,-23,-3,0,8,-41,-22,-12,-10
1526902456984220,-6,7,1,6,58,24,-3,-1
1526902456993196,12,-17,-3,-11,-3,9,-1,5
1526902456993196,1,9,5,5,13,10,7,0
1526902457007159,11,-4,0,-5,-12,-10,16,5
1526902457007159,-10,-2,-3,0,-15,-11,-3,-8
1526902457016135,-19,-17,-4,-3,31,-1,0,8
1526902457016135,21,1,-7,-4,-68,-21,2,-9
1526902457031094,-18,-6,7,8,21,-1,3,4
1526902457031094,-24,-9,-3,-7,37,26,-6,0
1526902457032092,50,48,9,4,13,7,-2,-5
1526902457032092,-39,-8,-7,-5,1,0,11,-3
1526902457044060,9,-14,5,4,-13,-5,1,3
1526902457044060,10,18,2,3,-18,-14,5,4
1526902457053036,-14,-21,-12,-14,-19,4,11,2
1526902457053036,14,5,2,3,12,-8,-10,-2
1526902457066998,9,8,3,-4,14,19,7,11
1526902457066998,3,10,6,9,14,-12,-2,-13
1526902457075974,-12,-16,-1,8,-11,6,-4,2
1526902457075974,23,0,-2,-7,-6,-6,30,3
1526902457090934,-22,-2,-9,-14,23,-4,-32,-8
1526902457090934,5,-15,3,1,0,17,-11,1
1526902457091932,0,-5,-4,-2,-11,-6,-8,-16
1526902457091932,6,-6,0,1,46,5,14,7
1526902457103900,9,7,-2,5,-47,0,-18,-8
1526902457103900,-10,17,4,1,4,-8,13,5
1526902457112876,-6,0,-2,4,13,2,7,2
1526902457112876,9,0,2,-2,-17,7,-7,-6
1526902457126838,6,-9,-8,-8,6,-9,2,-1
1526902457126838,3,-2,-1,0,-8,3,21,5
1526902457135815,-25,-13,5,2,-6,0,4,5
1526902457135815,25,-12,-7,-2,-4,-9,-2,0
1526902457150775,-11,20,9,6,20,10,-30,-7
1526902457150775,15,0,-1,-3,-21,-9,34,-1
1526902457151772,-5,-3,6,11,-26,8,1,13
1526902457151772,-14,-24,-21,-18,50,-1,-12,-11
1526902457172716,15,-30,-2,-2,-1,10,22,0
1526902457172716,-13,58,-2,-3,-36,-16,-8,3
1526902457174711,10,7,4,-4,-89,-46,-1,-1
1526902457174711,-2,-2,0,10,80,47,-23,-2
1526902457186678,-4,-2,-12,-10,-10,2,11,-2
1526902457186678,-4,-28,3,-6,7,2,-6,8
1526902457195655,-1,-16,-15,-9,-11,-18,-32,-23
1526902457195655,-4,16,8,5,-34,-17,-9,3
1526902457210614,-11,29,-3,0,5,-8,7,-7
1526902457210614,13,-20,-6,-3,-14,-5,-9,1
1526902457212609,0,-9,-3,1,54,25,-16,1
1526902457212609,10,-1,5,-1,-14,2,29,10
1526902457233553,-33,-2,0,6,14,13,4,-8
1526902457233553,14,-5,-5,-5,-15,-24,-27,-5
1526902457234551,4,-7,2,1,-9,1,30,3
1526902457234551,-11,-7,-1,2,-6,-2,-1,-8
1526902457246518,30,22,0,-6,-7,-4,-14,8
1526902457246518,4,22,0,4,0,-3,-10,-10
1526902457255495,-9,-19,-8,-8,38,17,6,4
1526902457255495,-24,-8,2,1,-30,5,-5,-2
1526902457270454,5,24,6,-1,10,-3,10,-1
1526902457270454,11,-15,-3,0,-6,-4,-10,-2
1526902457272449,-19,2,3,8,-6,-3,-4,-1
1526902457272449,26,-6,-7,-5,-17,-16,-27,-6
1526902457293393,-28,-19,-2,-3,23,17,31,0
1526902457293393,3,22,5,6,11,-7,-14,-7
1526902457294390,0,-6,-3,-3,25,13,21,6
1526902457294390,8,21,0,-4,-13,-8,0,4
1526902457306358,16,-9,0,3,-6,-4,-29,2
1526902457306358,-67,-42,-5,-4,3,8,23,2
1526902457315334,32,19,0,1,-8,-8,2,-8
1526902457315334,6,15,12,10,8,5,3,10
1526902457330294,15,8,-1,-2,15,-23,-11,0
1526902457330294,-3,-19,-8,-4,28,28,22,4
1526902457332289,-19,-1,1,-3,0,7,3,5
1526902457332289,-1,-4,-6,-5,-8,-3,-33,-27
1526902457353233,-14,-12,-2,6,13,-7,0,7
1526902457353233,19,-16,1,3,0,-2,-4,-5
1526902457355228,4,22,4,1,-21,-14,9,1
1526902457355228,-31,-11,-2,-1,14,6,-17,-19
1526902457367195,21,-27,-6,-5,-19,10,19,12
1526902457367195,31,41,6,3,3,-8,-7,-1
1526902457376172,-32,-20,-7,-5,10,8,-7,-13
1526902457376172,8,-13,1,1,-25,-16,30,27
1526902457391131,-27,-17,-2,-4,-7,-7,8,-17
1526902457391131,5,16,4,2,9,13,-3,-8
1526902457392130,36,69,6,2,-4,-9,0,5
1526902457392130,-14,35,9,3,-11,-7,-4,7
1526902457413073,-14,-25,-12,-2,-13,2,1,-7
1526902457413073,-2,-8,-5,-7,-23,-15,-11,7
1526902457415068,-1,-26,-7,-3,-26,6,1,-9
1526902457415068,10,9,4,3,44,4,-3,0
1526902457427035,19,23,3,-3,-9,4,22,4
1526902457427035,-12,-17,1,6,2,-3,-6,-5
1526902457436012,-21,-23,-8,-10,-10,3,6,-1
1526902457436012,18,-17,-8,0,-1,7,31,20
1526902457450971,43,52,9,0,-6,-9,-25,-7
1526902457450971,-70,-20,-9,0,-8,-6,13,8
1526902457451969,29,-22,2,4,17,-8,-7,9
1526902457451969,-14,2,-6,-4,-5,0,-1,0
1526902457472913,11,3,10,0,20,19,11,7
1526902457472913,12,3,-3,2,-8,5,15,18
1526902457474908,15,-13,1,2,9,-7,-46,-23
1526902457474908,-36,-34,-24,-15,-33,-19,11,11
1526902457486875,36,87,31,19,-20,-5,-6,-7
1526902457486875,-9,-3,-2,-4,24,12,2,-7
1526902457495852,-25,-28,-1,1,45,14,16,13
1526902457495852,14,-23,-11,-6,-21,0,2,-8
1526902457510811,-10,-26,-6,-6,-19,-13,-5,-7
1526902457510811,14,26,4,2,-46,-14,-31,2
1526902457511809,-16,-8,-5,-5,45,2,-10,-16
1526902457511809,6,13,4,-1,23,4,11,-2
1526902457532753,-32,-22,-9,-4,-15,6,1,2
1526902457532753,8,-17,-2,0,-3,-3,-6,-6
1526902457534748,49,25,2,-7,-9,-4,3,-1
1526902457534748,0,19,11,8,-17,-8,-19,-1
1526902457546716,0,-6,-1,9,-2,-4,-1,2
1526902457546716,-1,-7,-2,-7,-9,4,-6,-2
1526902457555692,-8,10,0,7,6,-11,-20,-4
1526902457555692,4,15,4,1,16,18,18,7
1526902457570651,-13,-48,-11,-7,-7,-6,-9,-6
1526902457570651,19,4,4,3,-11,-8,12,2
1526902457572646,-22,32,5,4,-64,-16,15,7
1526902457572646,-11,-9,-1,-1,79,7,-56,-24
1526902457593590,3,-25,-13,-7,-20,0,47,14
1526902457593590,8,7,3,7,23,11,-16,-9
1526902457594588,-42,-13,-4,-7,-18,6,-21,-4
1526902457594588,12,8,8,12,-8,2,13,8
1526902457606555,-30,-20,-7,-6,-6,-14,-15,-11
1526902457606555,28,44,3,-1,12,-2,0,10
1526902457615532,-3,-5,4,0,-4,-9,4,-4
1526902457615532,-1,-5,-4,-4,-14,0,-3,0
1526902457630491,-9,-4,-8,-4,17,9,-2,2
1526902457630491,-26,-17,-4,-7,4,-6,-2,-21
1526902457632486,1,-27,-1,-2,21,8,18,17
1526902457632486,1,-10,-10,-4,-21,5,-39,-18
1526902457653430,22,55,22,6,8,3,25,9
1526902457653430,-20,-28,-6,1,-30,-21,-1,8
1526902457654428,32,-8,-6,0,34,-1,-2,-11
1526902457654428,-53,0,0,-5,-1,19,14,-5
1526902457666395,-12,-24,-9,0,37,0,-42,-11
1526902457666395,9,10,-1,-3,6,17,-3,-6
1526902457675371,12,10,0,-1,-15,-9,12,4
1526902457675371,-10,-15,-3,-2,-55,-21,0,-8
1526902457690331,5,-8,-1,0,22,-3,-32,-2
1526902457690331,4,11,-2,-3,-13,-9,27,14
1526902457692326,-13,6,1,2,7,3,-7,4
1526902457692326,18,13,0,-3,5,3,7,5
1526902457713270,-6,11,-3,1,-37,-26,-4,-5
1526902457713270,-20,-21,-6,-13,14,9,-10,-17
1526902457714268,14,3,0,2,21,24,12,13
1526902457714268,-36,1,7,1,-38,-32,-8,-4
1526902457727233,39,-24,-2,3,45,21,8,12
1526902457727233,16,71,4,5,-21,-16,-5,-10
1526902457736209,-10,0,-6,-9,16,7,-18,-3
1526902457736209,11,-19,-5,-3,-18,-7,20,5
1526902457750171,3,11,-2,0,8,8,10,-3
1526902457750171,19,-15,12,9,-13,7,29,21
1526902457752166,-21,-24,-4,3,17,-13,-17,-12
1526902457752166,38,49,5,-3,-1,2,5,9
1526902457773110,-29,-20,-5,-2,-3,12,-6,5
1526902457773110,22,-6,-3,-2,7,1,-5,0
1526902457775105,10,0,4,6,-24,-7,20,10
1526902457775105,-47,-25,1,-3,-5,-14,-1,-7
1526902457787073,35,37,4,11,11,13,-23,-4
1526902457787073,-51,-5,-10,-13,5,4,6,-1
1526902457796049,16,-1,1,0,37,18,-4,-8
1526902457796049,12,11,1,1,-22,1,28,15
1526902457811009,7,7,2,-2,-38,-17,-15,1
1526902457811009,-14,-27,-3,7,29,-14,7,-1
1526902457812006,-19,-1,-5,-4,-36,-3,-12,-8
1526902457812006,25,29,7,7,29,4,-8,-6
1526902457832950,-24,-2,-9,-13,-25,-5,32,9
1526902457832950,8,-24,0,6,10,4,-40,-4
1526902457834945,11,11,0,2,-10,-3,41,-4
1526902457834945,-64,-23,-5,-3,-23,-19,-38,-20
1526902457846913,9,14,-2,1,28,15,-20,-1
1526902457846913,1,-24,-4,-1,-25,-5,15,3
1526902457855889,32,18,10,12,25,14,3,-1
1526902457855889,-15,2,2,-4,17,1,-2,-2
1526902457870849,-14,-32,-3,-5,-20,-9,19,4
1526902457870849,-1,0,-6,-4,6,-4,-20,-11
1526902457871846,12,-9,5,4,23,16,-5,5
1526902457871846,6,20,2,1,-24,-4,6,10
1526902457892790,-15,-21,-5,-4,19,-9,-17,-18
1526902457892790,22,-4,0,1,4,12,11,8
1526902457894785,-20,7,3,0,-31,-21,-1,-2
1526902457894785,32,-21,-8,-3,-5,5,-2,7
1526902457906753,-44,11,-2,-3,54,8,15,-3
1526902457906753,25,-1,3,2,-26,3,12,0
1526902457915729,-30,3,-6,-9,-19,-10,-10,-6
1526902457915729,12,-10,-6,1,3,1,-6,21
1526902457929691,13,-12,0,2,-35,-6,28,-2
1526902457929691,26,20,-1,1,41,9,-5,-4
1526902457936673,-75,-23,-2,-2,-16,-6,-5,-11
1526902457936673,38,9,7,6,12,4,-5,7
1526902457953627,-7,5,-6,-1,-57,-29,33,2
1526902457953627,2,-14,-9,-15,68,32,-21,-13
1526902457954625,6,-5,-7,-7,-10,3,18,2
1526902457954625,2,-15,2,2,-9,2,-1,-6
1526902457966592,19,9,1,4,12,-1,-7,7
1526902457966592,-44,-21,-1,-2,-13,-18,1,-7
1526902457975569,46,39,-1,-2,-4,-2,-4,17
1526902457975569,-15,-12,-4,1,9,1,-1,-13
1526902457989531,4,-4,3,2,-2,-1,-14,-1
1526902457989531,-7,-15,-4,-2,-18,-14,-2,3
1526902457996512,4,-3,3,0,-15,-3,10,3
1526902457996512,6,15,-4,-5,51,19,15,6
1526902458013467,12,5,-2,-7,-14,2,-13,-7
1526902458013467,-23,-29,1,4,-2,-1,-12,3
1526902458014465,13,43,1,4,-30,-14,3,-9
1526902458014465,11,26,2,-9,4,-7,-12,-3
1526902458026433,13,-13,-6,-7,7,7,-6,-8
1526902458026433,-25,8,4,6,-28,-4,11,6
1526902458035408,-1,-20,-9,-10,20,-1,-10,-7
1526902458035408,8,-11,1,7,-8,3,7,-9
1526902458050369,-7,-35,-1,-1,11,-3,-2,11
1526902458050369,13,64,5,-1,-39,-5,2,-4
1526902458056353,-3,-22,-1,-2,26,0,-11,4
1526902458056353,-11,-1,-8,1,-3,1,19,-5
1526902458073307,-6,-8,0,-3,-5,-1,-23,-2
1526902458073307,1,-15,-2,-1,-21,-8,19,-6
1526902458074305,-21,-2,4,2,10,-2,-27,-10
1526902458074305,19,3,3,-1,2,4,7,1
1526902458095248,-13,2,-1,1,-6,-1,0,-2
1526902458095248,43,4,-4,-3,2,-6,-2,2
1526902458097244,-67,5,5,3,5,4,-3,-6
1526902458097244,6,-15,-6,-11,0,-2,1,-4
1526902458110208,6,12,5,7,-4,6,-4,7
1526902458110208,-10,0,-1,-4,-2,-11,13,0
1526902458117190,16,-13,-1,2,17,11,4,12
1526902458117190,-12,-22,-4,2,-12,-2,5,-3
1526902458133147,-26,17,2,1,-12,-9,-28,-10
1526902458133147,7,-1,5,7,46,4,34,12
1526902458135142,4,-8,-14,-14,-39,11,-5,4
1526902458135142,-2,14,0,-5,28,0,-8,-11
1526902458156086,3,1,1,-2,-4,2,14,5
1526902458156086,18,-12,-1,3,-6,-1,-34,-8
1526902458157083,-44,1,3,2,-23,-15,2,-4
1526902458157083,29,-7,-5,-1,5,-4,0,3
1526902458170049,-4,0,-3,1,-12,-5,2,-4
1526902458170049,-2,23,2,-4,16,8,-6,11
1526902458177030,2,-36,-12,-6,12,6,8,-3
1526902458177030,9,25,7,5,-11,-1,0,-2
1526902458192987,-1,8,-5,-5,-4,-12,-7,-3
1526902458192987,11,-17,-7,-5,-17,-1,11,9
1526902458194982,-24,9,2,4,11,1,-7,-7
1526902458194982,0,-7,-3,-1,0,-5,1,3
1526902458215926,-2,-10,5,3,-6,1,20,4
1526902458215926,9,20,-6,-3,15,5,-18,-4
1526902458216924,7,-6,-2,1,-18,-8,8,-6
1526902458216924,-12,2,-4,-10,-25,-2,-16,0
1526902458228891,13,-7,-2,1,37,0,10,2
1526902458228891,-23,-11,1,-6,-29,-4,-13,-6
1526902458237867,31,22,12,14,32,9,9,9
1526902458237867,-10,-15,-4,3,-5,5,9,0
1526902458252827,8,9,-2,-5,15,3,-18,-6
1526902458252827,3,-16,-7,-4,-10,-4,11,-2
1526902458254822,-9,5,3,-5,-24,-14,-11,-7
1526902458254822,-5,-12,-3,-1,-14,-13,1,-1
1526902458275766,-16,-9,-5,0,5,8,-12,1
1526902458275766,-4,-12,-1,3,23,2,14,-4
1526902458277761,37,22,4,2,-15,-8,-4,1
1526902458277761,-25,-10,0,-2,13,6,-1,-2
1526902458289728,5,35,-2,-1,-1,8,4,3
1526902458289728,-11,-9,3,3,-16,-7,-8,-2
1526902458298705,21,3,-6,-7,-20,-13,4,12
1526902458298705,-16,14,7,15,50,6,4,-2
1526902458312667,8,-22,-2,-7,33,36,-18,-1
1526902458312667,-6,29,1,-7,-11,-1,1,0
1526902458314662,26,-2,3,3,-6,-7,11,9
1526902458314662,-31,-12,2,5,-26,-12,-8,3
1526902458335606,-10,1,-7,1,-2,-16,3,-13
1526902458335606,2,-7,1,-3,4,6,-25,-2
1526902458337601,-1,-8,-5,-4,5,13,25,2
1526902458337601,13,-2,0,2,-3,-9,-14,-5
1526902458349568,-14,-3,4,5,-11,-5,1,-18
1526902458349568,-12,-4,-5,-4,3,-3,-5,0
1526902458358545,27,-10,-4,-8,-7,-4,-9,11
1526902458358545,-12,2,0,1,14,12,15,-10
1526902458373504,-20,-17,-3,2,-9,-10,-2,2
1526902458373504,27,46,7,9,12,-2,5,-2
1526902458374502,-30,-31,0,1,-34,-21,-21,-11
1526902458374502,27,29,-8,-9,37,32,6,-2
1526902458395445,15,15,3,0,4,6,0,12
1526902458395445,-7,-16,0,-1,4,8,16,4
1526902458397441,-35,1,3,-3,-6,0,0,1
1526902458397441,4,-10,-4,-3,-28,-32,-17,2
1526902458409408,28,-17,-11,-11,-5,0,6,-3
1526902458409408,-46,-18,-5,0,-6,9,-24,-22
1526902458418384,19,38,7,4,17,1,-13,1
1526902458418384,-3,-15,-8,-1,-43,-15,24,4
1526902458433344,15,16,2,-6,23,5,6,6
1526902458433344,15,1,5,5,7,7,13,9
1526902458434342,8,-18,-1,-1,-2,2,-13,-13
1526902458434342,-14,-12,-6,-1,-18,-6,-13,-1
1526902458455286,3,10,0,-1,-8,-14,13,5
1526902458455286,-8,-8,-10,-2,-32,-15,-18,-12
1526902458457280,-12,-2,-6,-6,39,7,12,-1
1526902458457280,18,1,10,-1,34,36,-6,13
1526902458469248,-17,-12,0,4,-30,-16,23,-6
1526902458469248,13,-37,-10,-9,11,6,6,10
1526902458478225,-9,65,5,12,-9,-10,-24,-12
1526902458478225,6,-18,-10,-6,9,-15,2,0
1526902458493184,-13,-28,-1,0,-13,10,10,9
1526902458493184,19,29,6,10,-3,-3,-6,3
1526902458495179,6,-8,-10,-14,20,5,-3,-10
1526902458495179,-11,-6,-2,-3,-17,-3,-7,3
1526902458516123,7,7,6,2,-2,-4,17,1
1526902458516123,-6,-15,4,6,15,3,10,2
1526902458517121,7,9,1,0,3,4,1,1
1526902458517121,-12,-8,-5,-5,-17,-9,-21,-8
1526902458529088,8,19,-4,-6,-14,-15,10,8
1526902458529088,-19,-19,-4,-5,4,9,-5,-8
1526902458538064,-2,-20,-5,1,8,2,-5,0
1526902458538064,4,-4,9,4,-2,-10,19,10
1526902458553024,22,5,0,2,3,8,-16,3
1526902458553024,-16,0,0,1,7,1,-2,-21
1526902458555019,-31,-2,1,1,-62,-21,7,2
1526902458555019,-3,0,-4,-5,81,28,-18,-5
1526902458575963,5,-4,-3,3,-24,-4,-16,0
1526902458575963,-2,16,1,-2,3,-8,-1,-4
1526902458576960,15,-16,1,7,9,16,45,13
1526902458576960,-5,1,-3,-9,-68,-26,-23,-13
1526902458588928,-9,6,4,6,71,11,5,4
1526902458588928,1,6,1,7,12,6,-15,-9
1526902458597904,2,-14,-2,-8,-24,-6,3,3
1526902458597904,-4,12,3,-1,3,-2,-1,-2
1526902458612864,5,-30,-3,-1,-1,-1,-15,-10
1526902458612864,-45,-6,-4,-6,-19,0,15,6
1526902458614859,19,44,10,5,27,-10,-13,-6
1526902458614859,3,-7,-7,2,5,9,9,1
1526902458635803,29,7,5,-8,-43,-11,3,6
1526902458635803,5,-21,-2,-2,65,16,-13,-2
1526902458637797,-1,2,-5,-2,-20,3,5,6
1526902458637797,-3,-1,4,6,-16,-9,10,4
1526902458649765,-3,10,-3,-5,-16,-12,-22,-4
1526902458649765,16,6,0,-2,-25,-3,17,12
1526902458658742,-27,-20,-8,-5,-22,1,4,-4
1526902458658742,28,3,2,1,51,12,-9,2
1526902458672704,-20,9,3,1,-12,2,-13,-9
1526902458672704,16,-7,-4,-6,-35,-21,-13,-2
1526902458674699,-4,9,6,13,44,16,12,1
1526902458674699,-8,-23,-5,-9,-29,-12,1,-1
1526902458695643,-31,21,-1,3,16,20,5,0
1526902458695643,23,3,-5,-7,1,-1,-3,8
1526902458697638,-3,-18,-1,-2,-22,-11,-14,-16
1526902458697638,-4,33,3,2,-8,-15,5,-3
1526902458709605,-1,-9,-4,-1,18,18,8,-2
1526902458709605,5,9,10,5,5,-6,-24,-2
1526902458718581,-4,-24,-3,0,-1,8,-12,0
1526902458718581,22,10,-4,1,0,-4,1,-9
1526902458733541,-24,-9,-7,-5,14,-8,11,-5
1526902458733541,5,9,3,5,-36,0,7,2
1526902458734539,2,-13,-8,-4,35,1,-1,4
1526902458734539,-11,-8,9,6,-22,1,-2,1
1526902458755483,9,9,-4,-8,-11,-12,-6,-10
1526902458755483,-14,-2,-1,5,1,5,6,3
1526902458757478,23,11,-7,-14,15,-6,-8,-4
1526902458757478,-7,5,0,3,-31,-5,0,-5
1526902458769446,-2,-2,3,9,20,9,2,-1
1526902458769446,0,4,-1,-3,-1,-7,2,7
1526902458778422,4,5,-1,0,-5,1,0,-5
1526902458778422,8,-10,-2,-2,-9,-2,-12,0
1526902458793381,2,15,6,0,1,2,3,8
1526902458793381,-13,-12,-5,1,-53,-26,-11,-17
1526902458794379,9,-2,-3,-12,92,22,10,9
1526902458794379,-13,-13,-6,-1,-30,9,9,5
1526902458815323,7,12,5,3,29,1,13,9
1526902458815323,-12,-6,2,7,-8,2,-2,-8
1526902458817318,20,8,1,1,-25,-11,-3,-10
1526902458817318,-60,2,-1,-2,10,1,-4,-3
1526902458829285,4,-25,-3,0,-11,-8,-11,6
1526902458829285,21,20,3,-5,13,7,9,7
1526902458838262,30,14,6,6,-21,-5,-25,-5
1526902458838262,8,-20,-1,0,31,7,10,0
1526902458853221,-6,-28,-11,-4,-28,-8,-6,-1
1526902458853221,-15,46,6,0,21,1,-20,-12
1526902458855216,-27,-16,1,4,-16,-4,3,-1
1526902458855216,29,9,0,-3,2,5,2,11
1526902458876160,-8,-14,-2,-3,24,-2,-6,-7
1526902458876160,2,-11,-6,-2,-2,5,26,5
1526902458877158,11,-5,-2,-5,-17,-3,-10,2
1526902458877158,4,6,-2,0,-34,-15,-3,2
1526902458889125,-11,-6,-2,0,-2,7,-2,-8
1526902458889125,-3,-10,-5,-9,12,-2,26,11
1526902458898102,0,18,7,11,21,20,-8,-1
1526902458898102,-13,8,-4,1,-14,-10,-6,-14
1526902458913062,9,3,1,-7,-31,-15,-13,3
1526902458913062,0,-18,-3,-4,5,12,1,-2
1526902458915056,-15,-23,-7,-3,-26,-20,10,-2
1526902458915056,14,48,0,-6,20,13,5,2
1526902458936000,0,3,4,7,-10,2,-4,-5
1526902458936000,-17,-5,-4,-4,-1,-19,-18,-6
1526902458936998,0,-31,-5,-5,-10,-1,11,11
1526902458936998,-10,-22,-4,-6,16,4,0,-10
1526902458948965,4,2,3,5,-7,-3,-7,-9
1526902458948965,26,15,5,7,7,1,3,4
1526902458957941,-9,0,-2,6,7,3,-15,-7
1526902458957941,-6,-39,-9,-8,19,8,2,-1
1526902458972901,-13,38,-1,-7,-8,-3,-21,-7
1526902458972901,0,28,3,0,-9,-1,17,2
1526902458974896,11,-13,-3,0,14,0,8,3
1526902458974896,23,17,4,0,3,-1,-11,3
1526902458995840,-3,-10,-5,-1,4,6,17,4
1526902458995840,12,-10,4,5,24,2,-13,-11
1526902458996838,-11,18,-2,-5,-13,-6,-7,4
1526902458996838,7,3,7,7,-5,0,17,-4
1526902459009803,-4,-8,-4,-6,-4,-8,-13,-6
1526902459009803,-2,-4,-4,-2,10,13,2,0
1526902459018779,5,-10,2,-1,-12,-7,-15,-10
1526902459018779,-23,14,4,7,8,3,-8,-2
1526902459032741,-4,-3,-6,0,-40,-9,-2,-7
1526902459032741,-2,-12,-5,-1,41,0,23,-2
1526902459039723,8,-11,0,2,-15,7,-12,-4
1526902459039723,-43,3,-10,-10,-9,-17,-5,-7
1526902459055680,5,-6,9,4,47,11,4,7
1526902459055680,5,-10,-10,-9,-32,-2,-6,11
1526902459057675,0,29,-4,-8,-19,3,15,8
1526902459057675,23,-21,4,10,-22,-18,2,-7
1526902459078619,-14,-15,-7,-11,12,4,-23,-2
1526902459078619,3,2,-2,-3,-10,-6,-7,-1
1526902459079616,-17,-8,4,6,12,1,6,4
1526902459079616,5,2,-3,-4,-11,-4,-7,-3
1526902459091584,5,5,4,7,0,-1,10,1
1526902459091584,-5,-6,-2,-5,-1,-3,-3,3
1526902459100560,4,-4,-4,-6,-13,-8,-3,-5
1526902459100560,-2,-7,-6,-4,10,3,16,4
1526902459115520,6,10,6,8,-4,1,-9,-5
1526902459115520,9,2,-1,-4,4,-6,-11,1
1526902459117515,-21,-20,-1,4,-12,0,0,-5
1526902459117515,14,27,2,7,36,19,-1,-4
1526902459138458,25,-11,-1,-5,10,10,20,10
1526902459138458,-25,-12,-2,-6,-54,-26,-19,-6
1526902459139456,17,23,7,2,33,1,-19,-9
1526902459139456,-1,-24,-4,0,-5,-1,11,6
1526902459152421,-19,-8,-4,-2,-13,-4,12,-3
1526902459152421,15,31,2,0,1,6,2,2
1526902459159403,-10,-4,-2,-6,-12,-9,-3,2
1526902459159403,-6,-16,-5,-5,6,-2,-2,11
1526902459175360,1,36,6,9,28,2,25,-5
1526902459175360,15,-34,-4,-4,-11,2,-11,3
1526902459177355,-25,9,0,1,5,6,10,-12
1526902459177355,-33,-5,5,0,25,2,-24,-5
1526902459198299,24,-7,-2,-3,-33,-8,-7,6
1526902459198299,-9,-3,2,3,1,-1,3,-7
1526902459200293,7,-1,-4,1,6,1,4,12
1526902459200293,24,14,-1,-3,-17,-1,-7,-17
1526902459212261,-8,-17,-5,-6,-35,-18,-10,-7
1526902459212261,-36,6,0,-1,67,19,8,-4
1526902459219242,-1,-10,8,1,-16,-7,-2,5
1526902459219242,7,6,-2,6,-19,-8,-8,6
1526902459235200,0,3,-7,-9,32,7,14,-1
1526902459235200,11,-6,-2,3,-27,-9,-5,2
1526902459237195,0,-13,-1,-11,-10,0,8,-1
1526902459237195,-2,7,4,7,27,2,-11,-4
1526902459258138,14,3,0,0,-15,2,-6,1
1526902459258138,-30,7,-8,-4,-15,-8,0,-9
1526902459260134,19,-4,10,10,12,1,0,7
1526902459260134,20,17,-2,-4,-18,-5,27,11
1526902459272101,-20,-11,-4,-2,-43,-7,-37,-6
1526902459272101,-23,-2,0,0,54,7,10,-14
1526902459279083,-8,-7,-10,-5,-10,4,2,2
1526902459279083,8,11,7,1,-2,-3,-2,-2
1526902459296037,7,3,-1,0,-14,2,-2,0
1526902459296037,5,-13,-4,0,5,2,1,1
1526902459297035,-13,14,3,1,4,-5,-3,-9
1526902459297035,24,-6,-8,-9,-7,4,8,9
1526902459317979,-56,-16,1,-2,10,-8,4,-4
1526902459317979,19,2,7,7,5,9,-7,2
1526902459319973,-9,27,-5,0,10,6,18,-2
1526902459319973,31,-20,-6,-2,-9,-4,-7,2
1526902459331941,-30,-9,3,1,-1,0,0,0
1526902459331941,8,5,-6,2,-22,-6,-19,4
1526902459340918,-5,1,-9,-12,-2,-16,8,-8
1526902459340918,-13,-16,1,3,16,30,18,2
1526902459355877,13,11,-8,-4,4,-5,-2,-5
1526902459355877,-4,9,6,1,-9,1,-2,1
1526902459356875,-1,-11,-2,1,-12,-12,-10,-3
1526902459356875,-12,-4,2,-1,-7,-8,-12,-9
1526902459377818,10,-11,-5,-4,11,0,0,5
1526902459377818,6,28,5,4,-7,-3,7,1
1526902459379813,9,-8,-5,-6,2,4,2,3
1526902459379813,-15,13,2,-2,28,1,4,-1
1526902459391781,2,-10,-3,2,17,12,-8,2
1526902459391781,5,-5,-4,-1,-14,-3,2,-8
1526902459400757,10,0,4,4,11,2,-6,-2
1526902459400757,-39,-6,-12,-10,-34,-8,-18,4
1526902459415717,-13,6,9,8,16,-10,14,0
1526902459415717,25,-11,-1,-1,12,13,25,10
1526902459417712,7,3,-3,0,-12,1,-5,-1
1526902459417712,3,-10,-1,0,10,-3,7,5
1526902459438656,3,-16,-1,5,-19,-9,-14,-5
1526902459438656,-8,18,3,-3,-14,-5,-4,-3
1526902459439654,-3,11,0,5,20,3,-3,-4
1526902459439654,19,1,5,0,11,13,11,3
1526902459451621,12,-6,-5,-8,-20,-3,13,4
1526902459451621,-18,-15,-4,0,3,-3,-15,-7
1526902459460597,6,-6,4,3,-14,-2,3,2
1526902459460597,-5,9,1,2,0,-6,-36,-6
1526902459475557,15,15,2,-4,-54,-7,14,-5
1526902459475557,6,-24,-7,0,72,-4,1,11
1526902459477552,-27,13,-7,-7,-5,6,-12,-11
1526902459477552,-8,-16,1,2,-5,10,9,-3
1526902459498496,70,16,-4,-4,-2,-2,-1,12
1526902459498496,-46,20,2,-2,-29,-10,-22,-14
1526902459499493,-9,-29,-2,-1,-3,-8,17,4
1526902459499493,0,-17,-6,-2,2,-7,-18,-9
1526902459511461,15,39,18,7,20,9,-1,6
1526902459511461,9,-11,-2,1,-26,-4,8,-1
1526902459520437,-15,-5,-5,-1,-15,-8,-14,-6
1526902459520437,-6,-3,-4,-8,18,-2,6,-1
1526902459535397,-7,-3,-4,-2,23,24,21,2
1526902459535397,-5,-7,4,-1,-23,0,-3,2
1526902459537392,13,13,6,1,-8,3,10,5
1526902459537392,19,5,-2,5,-17,-19,-9,-5
1526902459558336,-33,-49,-4,-6,-9,-10,-10,-5
1526902459558336,18,79,8,0,-13,8,9,0
1526902459559333,2,-15,-7,0,34,3,3,10
1526902459559333,-2,-19,-3,-3,-18,-3,-6,-6
1526902459571301,-9,-15,-10,-6,-4,-2,4,-13
1526902459571301,-1,7,9,2,-6,-2,7,1
1526902459581274,23,-1,3,-3,-6,-4,-21,-4
1526902459581274,-15,14,-6,-3,6,3,3,-3
1526902459595237,-18,-20,-2,3,-10,-11,-13,3
1526902459595237,19,-5,-7,-1,34,15,3,1
1526902459597232,6,6,2,0,-7,-6,11,0
1526902459597232,4,7,6,-2,-11,4,10,1
1526902459618176,14,6,-6,0,6,3,-18,-8
1526902459618176,-13,-19,-7,-6,-11,-13,-3,1
1526902459620171,-19,-9,1,4,10,9,2,2
1526902459620171,9,27,6,6,-20,-6,2,-6
1526902459632138,-13,14,1,0,6,-6,-3,1
1526902459632138,6,-40,-5,-1,-1,0,-14,-9
1526902459641115,-8,10,-5,-5,-38,-6,-5,2
1526902459641115,1,-27,-4,0,49,8,1,4
1526902459656074,8,7,-3,-4,0,2,6,6
1526902459656074,21,27,17,9,5,5,3,7
1526902459657072,-64,13,-2,-3,-16,-4,-16,-19
1526902459657072,6,-7,-5,-7,-5,-20,14,11
1526902459678016,-7,-1,0,3,27,13,-8,-5
1526902459678016,1,-36,-8,1,-8,-1,-1,3
1526902459680010,24,-2,-2,-7,14,10,18,6
1526902459680010,-20,10,5,4,-10,-2,-3,-4
1526902459691978,-2,4,1,4,23,7,11,7
1526902459691978,-12,-21,-7,-5,-17,-11,-13,-6
1526902459700955,20,7,5,7,9,5,0,6
1526902459700955,-1,-1,-4,0,-9,-2,8,-8
1526902459715914,-6,9,-2,-4,-14,-14,-1,1
1526902459715914,1,-3,4,1,3,0,6,-5
1526902459716912,4,-20,-9,-7,14,7,-16,1
1526902459716912,0,-10,-13,-5,63,13,21,2
1526902459737856,-3,19,16,9,-17,5,4,-5
1526902459737856,-1,-2,-9,-3,-45,-21,-3,4
1526902459739850,-18,-19,-6,-2,10,-4,-8,-9
1526902459739850,11,12,1,-3,-24,0,-9,-1
1526902459751818,-1,-15,-6,-1,-10,-12,-2,2
1526902459751818,0,-6,-2,-8,11,7,11,-3
1526902459760794,-7,21,-1,3,-2,-6,-1,0
1526902459760794,35,-7,8,11,-2,-1,-15,-2
1526902459775754,-68,-5,0,-2,-2,-1,-2,-8
1526902459775754,16,25,1,-1,-4,2,4,11
1526902459777749,4,-9,-3,1,5,-4,0,3
1526902459777749,-8,-4,2,-3,-41,-3,-2,1
1526902459797696,28,41,2,1,28,-5,-1,-2
1526902459797696,-29,-15,-4,-5,6,4,-1,-6
1526902459799690,16,3,0,-3,-10,9,0,6
1526902459799690,-21,20,6,8,24,-6,-3,-6
1526902459811658,1,-44,-8,-9,-7,-4,1,1
1526902459811658,-2,2,-5,-8,24,19,-9,-2
1526902459820635,8,-30,-6,-8,-5,-6,9,2
1526902459820635,14,42,11,5,-13,-5,-13,-7
1526902459835594,-28,-3,1,3,-12,-11,-14,-9
1526902459835594,-5,-12,-4,2,-9,-11,11,8
1526902459837589,15,13,6,1,36,10,-5,-10
1526902459837589,10,-3,0,-3,-6,5,-9,3
1526902459858533,1,5,-5,0,17,8,39,7
1526902459858533,2,-3,-1,-3,-14,-4,-34,-7
1526902459859531,1,-5,-2,-1,-10,-12,-4,-6
1526902459859531,4,19,-1,-1,-3,1,-2,1
1526902459871498,-15,-24,1,0,0,-1,-11,-12
1526902459871498,13,48,11,9,-3,-6,-15,0
1526902459880474,-10,-10,-3,2,-38,-14,32,8
1526902459880474,-3,-16,-13,-12,42,6,-2,-3
1526902459895434,9,-33,-13,-16,-4,15,-9,6
1526902459895434,13,-12,-2,5,6,4,3,-13
1526902459901418,-40,25,10,3,1,4,-20,-5
1526902459901418,7,2,-1,2,-67,-22,8,7
1526902459918373,14,7,1,6,19,-14,0,0
1526902459918373,-7,-19,-8,-11,9,18,17,4
1526902459919370,10,14,-1,1,21,3,-23,0
1526902459919370,-27,-18,1,-4,-16,-8,1,-10
1526902459931338,18,-1,0,0,1,6,-15,5
1526902459931338,-8,4,0,3,-14,-12,22,-4
1526902459941312,-5,-11,1,0,10,5,10,0
1526902459941312,-14,-14,-8,-4,10,7,3,6
1526902459955274,57,22,9,7,-26,-9,-36,-8
1526902459955274,-38,-5,-13,-5,37,-13,12,4
1526902459962255,14,25,-3,-3,4,16,-5,-4
1526902459962255,-21,-35,-6,0,-7,-1,5,2
1526902459978213,50,45,4,-6,-7,1,16,11
1526902459978213,-46,-25,0,1,-32,-16,-12,-7
1526902459980208,17,24,-2,0,18,4,-4,-1
1526902459980208,-13,-2,-7,-6,9,6,0,-6
1526902460001152,-4,-20,1,7,-11,4,5,11
1526902460001152,21,23,2,-3,6,6,8,-15
1526902460002149,-12,-16,4,3,-10,-15,-1,1
1526902460002149,-7,-13,1,-3,2,1,8,4
1526902460016111,-15,30,1,0,17,-8,-7,-8
1526902460016111,9,-7,-2,-1,7,22,-13,0
1526902460017109,8,-9,-3,-3,-29,-9,-3,-4
1526902460017109,1,3,0,3,40,8,12,0
1526902460038053,-9,-5,1,1,-34,-10,2,-6
1526902460038053,-1,-6,5,2,12,-1,-3,4
1526902460040048,5,-18,-8,-3,-7,3,1,1
1526902460040048,2,26,13,4,-15,-2,9,8
1526902460060992,-15,-4,-7,-7,-2,-5,-14,-11
1526902460060992,3,-12,-4,-4,-9,-13,-3,1
1526902460061989,2,-19,-5,3,10,7,1,3
1526902460061989,1,-17,-4,-5,-5,-1,-10,-2
1526902460075951,14,9,3,4,19,7,13,5
1526902460075951,-28,-14,3,1,-4,-8,1,1
1526902460076949,1,14,-2,-4,4,6,8,3
1526902460076949,20,-1,-7,-4,-8,0,-3,-2
1526902460097893,-36,-32,-6,-3,3,1,-19,-11
1526902460097893,33,39,7,3,0,-3,-6,9
1526902460099888,-13,-13,-2,4,-11,-13,4,-10
1526902460099888,0,3,-3,-4,17,14,0,5
1526902460120831,0,0,0,-3,-5,3,0,2
1526902460120831,3,-5,-1,-3,-36,-13,3,0
1526902460121829,2,2,1,0,32,-4,-8,1
1526902460121829,1,2,1,6,6,-5,-2,-4
1526902460134794,5,3,-1,0,-19,10,8,4
1526902460134794,7,-7,-6,-5,10,4,3,2
1526902460141775,21,4,0,-2,-9,-5,-15,-4
1526902460141775,-37,-5,1,3,-16,-10,2,-2
1526902460157732,5,-1,1,-3,11,3,15,-4
1526902460157732,-25,-6,-3,3,1,3,-10,-11
1526902460159728,20,-2,-5,-11,-15,-4,6,7
1526902460159728,21,-8,-4,-2,0,-6,-12,-2
1526902460180671,-38,2,-2,3,7,2,-5,-7
1526902460180671,7,5,-1,-3,1,2,8,0
1526902460182666,-1,0,0,-2,2,-5,-6,-1
1526902460182666,-3,0,-4,1,-5,-11,-7,-6
1526902460194634,-2,-3,1,-5,-4,1,-3,2
1526902460194634,3,-11,-8,-3,-8,-1,5,1
1526902460201615,-20,-8,0,-1,36,8,4,-1
1526902460201615,15,15,6,2,-16,-2,-21,-4
1526902460218570,1,-6,0,0,-31,-8,27,3
1526902460218570,11,-15,2,5,36,4,-4,5
1526902460219568,-35,-3,-2,-2,-13,-5,3,-7
1526902460219568,10,-2,2,-6,-3,4,-4,0
1526902460240511,-1,9,-4,-2,2,-3,2,5
1526902460240511,6,-10,0,-2,-18,-6,-13,1
1526902460242506,16,3,2,6,1,5,4,5
1526902460242506,-12,-8,-5,-3,-12,-3,6,1
1526902460254474,2,-3,-4,3,27,5,-4,0
1526902460254474,8,9,2,-4,-10,6,8,3
1526902460263450,-15,-46,-4,-6,-10,-6,-9,-4
1526902460263450,16,70,11,2,0,2,7,5
1526902460278410,12,-6,1,0,-12,-5,2,2
1526902460278410,-4,2,2,4,7,3,15,8
1526902460279408,-2,2,1,6,-9,-6,-15,-7
1526902460279408,-1,-18,-8,-13,3,4,-1,1
1526902460300351,23,3,1,2,-5,-1,2,1
1526902460300351,-5,0,-1,-2,12,2,-16,-9
1526902460302346,-29,7,2,1,-20,-8,25,-6
1526902460302346,-3,-9,-1,-2,13,-3,-14,-3
1526902460314314,15,3,1,3,-12,6,12,3
1526902460314314,11,-2,-4,-7,11,0,1,8
1526902460323290,11,17,-2,-1,28,4,-10,3
1526902460323290,1,-12,-1,4,-10,2,7,-3
1526902460338250,-19,-14,-5,-4,-14,-6,-8,-8
1526902460338250,3,24,6,0,-1,-5,1,1
1526902460340245,6,6,-4,-8,-4,-9,10,4
1526902460340245,-4,-8,1,7,16,13,-9,-15
1526902460360191,-4,-17,-3,-2,11,0,-7,2
1526902460360191,-18,-5,-4,0,-17,-8,-4,-4
1526902460362186,24,2,2,2,-4,-3,-3,0
1526902460362186,-10,-9,0,-3,-6,-8,4,2
1526902460374154,-1,8,-3,-3,12,4,-4,1
1526902460374154,16,-15,-7,-2,-6,-7,-17,-8
1526902460383131,-17,16,11,-1,-7,5,6,-3
1526902460383131,-17,-9,-7,2,-13,-11,-5,1
1526902460398090,-7,0,-4,-5,15,2,-12,-4
1526902460398090,7,7,8,4,-9,-4,12,1
1526902460400085,13,-12,-8,-6,41,22,-27,0
1526902460400085,-4,17,5,4,-17,0,32,10
1526902460421028,-18,-7,-3,-6,-19,-18,-11,-18
1526902460421028,-7,0,-3,1,-21,-5,-11,-1
1526902460422026,11,-1,3,3,25,19,3,4
1526902460422026,5,-1,3,4,4,-2,5,-1
1526902460433994,3,11,-4,-2,-5,-5,-2,-2
1526902460433994,-11,-12,-6,-2,1,5,7,-5
1526902460442970,-5,-16,1,-2,-32,-12,13,6
1526902460442970,8,27,0,-1,23,10,-1,-3
1526902460457930,-12,-11,-8,-4,-5,-9,-12,-2
1526902460457930,25,-2,3,0,2,3,5,5
1526902460459925,-46,-15,-11,-9,4,-11,-20,-10
1526902460459925,-4,2,7,1,-2,8,5,-2
1526902460480868,-6,1,0,7,12,-4,-17,-1
1526902460480868,4,1,-2,-7,-17,-1,7,4
1526902460481866,19,15,-2,-4,-22,0,4,3
1526902460481866,7,-39,-4,-2,36,5,-10,-6
1526902460493834,-31,26,5,-3,7,4,4,5
1526902460493834,-8,-10,-7,-1,5,2,-10,-12
1526902460503807,19,9,6,4,-25,-17,-12,-3
1526902460503807,-6,-8,-7,-6,-11,-8,0,-2
1526902460517770,22,-3,9,9,5,8,14,-6
1526902460517770,-12,-1,-8,-2,2,-4,-12,-3
1526902460519765,-6,6,-2,-8,-30,-17,-2,-4
1526902460519765,5,11,-5,-2,-3,6,1,0
1526902460540709,23,-8,0,2,15,-8,4,9
1526902460540709,-44,-12,3,1,14,20,-1,-4
1526902460542703,4,6,-4,-5,2,10,8,-4
1526902460542703,12,-1,4,3,-24,-14,-27,1
1526902460554671,-7,-13,-6,-10,-8,-6,10,-1
1526902460554671,22,10,7,5,8,2,1,3
1526902460563648,-23,-24,-8,0,4,-9,-8,-11
1526902460563648,-9,13,3,1,-23,-6,-2,-9
1526902460578607,-1,-5,0,1,22,0,6,5
1526902460578607,18,11,2,4,1,3,-5,1
1526902460579605,4,4,0,0,-4,4,6,4
1526902460579605,-3,-4,1,-1,-2,-5,-1,-1
1526902460600548,-6,7,3,-3,-18,-2,-12,-7
1526902460600548,-5,-7,-5,-7,24,-5,6,7
1526902460602544,11,5,2,9,-6,3,-2,-5
1526902460602544,-2,-8,-3,-5,20,1,2,0
1526902460614511,17,4,-2,-1,-9,10,11,6
1526902460614511,-32,-1,2,2,-2,-7,1,-4
1526902460623487,7,4,0,-2,-23,-4,6,5
1526902460623487,-14,-9,-12,-2,35,-13,-22,-9
1526902460638447,8,5,5,-4,3,16,6,4
1526902460638447,8,-3,-10,-9,-4,1,8,2
1526902460639445,-4,2,8,7,5,2,-10,-19
1526902460639445,-3,1,2,3,-17,2,12,10
1526902460660388,4,-6,-8,-5,-26,-14,-12,0
1526902460660388,-6,-6,-5,-4,-7,-20,-17,-3
1526902460662383,-1,-8,-2,-2,10,8,5,11
1526902460662383,0,-27,-5,-2,2,13,1,-8
1526902460674351,-3,44,6,2,-4,-1,24,0
1526902460674351,13,19,8,8,-19,-1,-4,-8
1526902460683328,5,-5,-5,1,-2,-8,6,4
1526902460683328,-9,-4,-7,-6,-5,-8,-1,-1
1526902460698287,-12,-21,-8,-8,7,6,-5,4
1526902460698287,17,0,1,-2,-14,-12,-6,-2
1526902460700282,-23,8,-1,1,17,1,21,8
1526902460700282,20,-1,-2,-5,-1,10,2,3
1526902460720228,-31,7,3,0,-16,-8,-17,-5
1526902460720228,8,2,6,10,36,16,16,7
1526902460722223,-6,-3,-6,-5,29,-2,-3,-6
1526902460722223,13,5,3,1,-21,-1,-4,-3
1526902460734191,-6,-11,-4,2,18,0,-5,4
1526902460734191,5,-1,3,4,-4,6,7,-2
1526902460743167,8,5,2,-1,-32,-17,-6,0
1526902460743167,-11,-1,-4,-4,21,29,9,3
1526902460758127,7,-9,-3,-2,-5,-13,-32,-10
1526902460758127,-9,3,-4,-7,-6,1,17,7
1526902460760122,6,-18,-5,-1,6,-2,-31,-1
1526902460760122,-6,10,6,3,-18,-16,17,-1
1526902460781066,5,-10,0,5,6,5,2,2
1526902460781066,-15,-15,-3,-4,1,-3,0,1
1526902460782063,14,3,2,-1,-21,-4,-8,4
1526902460782063,4,9,-3,-7,-10,-10,-2,8
1526902460794031,1,-7,0,-1,-7,7,2,-11
1526902460794031,-5,4,6,0,36,20,14,3
1526902460803007,5,17,6,2,-3,-2,-15,-1
1526902460803007,4,2,5,6,-3,-8,-9,-9
1526902460817967,6,-8,4,9,-10,-5,17,16
1526902460817967,-5,-9,-10,-12,-49,-17,-18,-14
1526902460819962,-7,0,-1,-3,41,8,7,-2
1526902460819962,4,-4,-5,-2,10,-5,-1,10
1526902460840906,-6,-2,1,-3,-6,3,0,-7
1526902460840906,3,0,3,12,-20,-10,-7,3
1526902460841903,-2,-5,-8,-15,0,7,-2,-8
1526902460841903,-3,-2,-3,2,15,-1,-12,1
1526902460853871,-11,-8,-7,-8,-10,-10,4,3
1526902460853871,0,-2,-3,-4,43,7,-12,6
1526902460863844,5,2,5,8,-45,3,43,8
1526902460863844,-11,-11,-2,-4,12,-6,-38,-4
1526902460877807,12,1,1,6,-10,-8,-16,-14
1526902460877807,-18,0,-4,-4,-3,-2,-6,-3
1526902460884788,-6,-23,-8,-5,-32,-19,0,5
1526902460884788,-14,-18,-5,-11,47,27,22,0
1526902460900745,48,47,16,13,2,5,-3,-3
1526902460900745,-32,-15,-8,-4,-7,-5,0,-3
1526902460902741,-7,3,-3,-2,9,3,-6,-7
1526902460902741,-12,-27,-3,-2,-32,-15,-1,5
1526902460922687,19,13,-1,1,-4,6,4,3
1526902460922687,15,-4,2,-1,-15,-4,-4,-9
1526902460924682,-13,7,-2,2,38,1,-2,-5
1526902460924682,5,10,-1,-8,0,-5,-3,7
1526902460937647,-15,-10,1,0,7,7,11,10
1526902460937647,8,4,-4,-10,-37,-14,-13,-7
1526902460939642,5,-3,-5,-6,25,3,10,10
1526902460939642,4,8,11,16,-5,-1,-5,-13
1526902460960586,-11,5,-3,-3,25,11,-5,3
1526902460960586,2,-8,-6,-4,-3,-6,18,1
1526902460962581,4,2,2,0,-30,-10,-11,-9
1526902460962581,-1,12,-1,0,11,-9,8,-3
1526902460983524,-10,-12,-4,-1,14,15,-5,-2
1526902460983524,14,5,8,2,-22,-8,5,8
1526902460984522,14,-42,-2,7,39,15,-16,-6
1526902460984522,4,73,8,3,-32,-3,15,2
1526902460997487,-50,-15,-9,-6,2,-3,-1,-18
1526902460997487,20,13,9,10,21,9,5,15
1526902461004468,-10,8,0,-7,-18,-3,-6,-11
1526902461004468,35,-16,1,5,-4,-1,8,6
1526902461020425,-5,-16,-3,-8,-13,-13,-8,-7
1526902461020425,-9,-9,-9,-11,-9,6,-8,-8
1526902461022421,5,28,5,0,19,4,6,10
1526902461022421,-3,-6,3,6,12,7,-1,-1
1526902461043364,-3,2,-1,-5,-13,-10,-7,-4
1526902461043364,-10,-24,-6,5,-20,-9,7,-8
1526902461044362,7,-2,1,-5,5,9,-17,1
1526902461044362,-5,15,-1,-1,-8,-6,9,-2
1526902461057327,5,-11,-7,-4,-1,-6,5,5
1526902461057327,-9,2,5,5,34,9,-16,-1
1526902461064308,10,8,-1,2,-17,3,-1,0
1526902461064308,-16,-35,-4,-3,7,4,11,-1
1526902461080266,13,40,-3,-3,-17,-7,6,-3
1526902461080266,19,-4,9,7,-6,-10,-9,-14
1526902461082260,-41,-19,-8,-6,-5,10,13,-9
1526902461082260,30,24,2,-5,-2,4,-13,3
1526902461103204,-22,-15,-2,2,6,-2,5,6
1526902461103204,-10,-1,-8,-5,6,-2,2,-1
1526902461105199,-1,3,2,7,-18,-8,-6,-10
1526902461105199,-6,-9,-10,-8,-16,-10,-12,-12
1526902461117167,9,2,8,2,-6,-2,-8,-8
1526902461117167,9,-4,-4,4,40,3,7,7
1526902461124148,-4,8,-1,-5,22,8,2,10
1526902461124148,-9,-8,4,3,-12,5,-9,-11
1526902461141103,9,6,-6,-8,8,-13,-2,-6
1526902461141103,-7,-6,0,2,-12,7,-20,-7
1526902461142100,8,0,-4,-1,6,-18,3,12
1526902461142100,-2,5,3,4,24,18,23,3
1526902461163044,3,-12,-3,-6,-24,4,10,6
1526902461163044,6,9,0,-6,11,-2,-19,-6
1526902461165039,-10,-24,-2,0,1,-7,5,1
1526902461165039,14,19,-3,-4,-13,-6,0,9
1526902461177007,-18,-24,3,8,14,15,1,2
1526902461177007,11,19,5,-5,-7,5,22,3
1526902461183988,5,-2,3,11,-1,1,-5,1
1526902461183988,-2,-11,-1,-6,-32,-15,12,-2
1526902461200943,-9,-3,-3,1,48,11,-23,-9
1526902461200943,11,-7,1,-1,-16,0,10,11
1526902461201940,9,19,2,0,9,0,2,3
1526902461201940,-4,-11,3,9,-8,-2,-6,-11
1526902461222884,3,-20,-5,-1,-3,-8,5,5
1526902461222884,-9,22,1,-1,-51,-13,-4,-3
1526902461224879,1,-12,-5,-5,16,-3,15,5
1526902461224879,1,3,1,2,33,17,-3,6
1526902461237844,7,-36,-6,-6,-35,-7,1,5
1526902461237844,-10,30,-2,-8,24,0,2,-6
1526902461243828,10,12,7,6,-26,6,-4,0
1526902461243828,13,-12,-6,-2,-6,-12,-8,5
1526902461260783,-34,-15,0,0,-3,-1,-13,-12
1526902461260783,2,8,4,2,-27,-14,15,8
1526902461262778,7,22,4,1,36,11,-10,-8
1526902461262778,-10,-17,-11,-10,-12,3,14,6
1526902461282724,7,5,-8,-7,-1,-3,-20,4
1526902461282724,-5,-11,-2,3,4,-5,-20,-13
1526902461284719,0,6,4,-3,-12,-6,1,-1
1526902461284719,-9,2,0,2,-5,2,13,3
1526902461297684,14,13,1,2,1,-3,-9,1
1526902461297684,-7,-22,-6,-9,8,2,-1,-3
1526902461304665,2,5,2,1,-13,-6,-5,-1
1526902461304665,-4,-25,-5,-6,-26,-15,-24,-4
1526902461320623,13,38,9,5,-13,-14,9,5
1526902461320623,-2,2,4,4,45,29,13,4
1526902461322618,-6,-2,-6,-7,7,-4,4,-2
1526902461322618,-7,-8,-6,-3,-4,4,-15,-5
1526902461343561,24,-3,-2,-1,-9,-1,5,4
1526902461343561,-11,-4,7,6,-14,-9,12,8
1526902461344559,-11,2,0,1,-13,0,5,-16
1526902461344559,0,17,-1,0,-10,-10,-41,-8
1526902461356527,3,-3,-1,-1,20,8,7,-7
1526902461356527,-3,-3,-3,7,-16,-15,0,11
1526902461365503,18,-1,-6,-13,-4,7,14,1
1526902461365503,-17,-9,1,2,15,3,10,-4
1526902461380463,-1,8,-3,-1,1,-2,-5,-2
1526902461380463,0,-16,-7,-8,1,3,-14,-4
1526902461382458,-1,17,1,2,-51,-12,-15,-7
1526902461382458,-4,-13,1,7,58,14,8,-5
1526902461403402,-7,-11,-2,-4,-14,1,11,2
1526902461403402,11,2,-2,0,3,-3,-16,-3
1526902461404399,4,-6,2,4,-40,-7,17,7
1526902461404399,23,14,-2,-9,8,-12,-4,5
1526902461416367,-16,-9,0,3,17,15,9,1
1526902461416367,-10,-12,-7,-12,0,5,-15,-7
1526902461426340,9,6,8,8,14,8,4,4
1526902461426340,2,-3,1,2,-15,-10,3,7
1526902461440303,8,8,1,-7,-3,-9,13,7
1526902461440303,9,3,-5,-2,5,3,5,12
1526902461442297,-17,-9,0,7,4,-2,-19,-7
1526902461442297,-3,-7,-2,-9,-35,-2,6,1
1526902461463241,-1,15,4,3,-6,0,-4,-16
1526902461463241,1,23,-5,-3,22,15,21,3
1526902461465236,-4,-1,-1,-1,0,-9,-19,-5
1526902461465236,-22,-23,-3,13,-17,-4,-7,-12
1526902461477204,8,9,2,-4,-41,-16,-5,1
1526902461477204,-6,-14,1,1,49,4,-8,-2
1526902461486180,52,13,-1,3,-5,6,37,9
1526902461486180,-39,3,-1,0,3,-6,-26,-15
1526902461501140,-44,-5,0,1,-3,0,7,0
1526902461501140,6,-15,-2,-2,-2,2,-8,-7
1526902461502138,-5,-6,1,4,4,-9,-2,5
1526902461502138,21,5,-4,-13,-15,3,15,7
1526902461523081,5,-3,-2,2,45,11,-5,-5
1526902461523081,1,1,0,0,-34,-5,-11,-8
1526902461525076,-18,-22,-7,-6,24,-5,-1,2
1526902461525076,0,22,7,5,-14,2,-8,-4
1526902461537044,8,-12,-1,-1,5,1,-5,-8
1526902461537044,-8,2,-4,-2,-12,-6,-12,-9
1526902461546020,-9,12,1,-4,7,3,-6,6
1526902461546020,16,-2,2,-2,7,-2,1,-5
1526902461560980,-1,13,1,1,18,9,-1,4
1526902461560980,3,12,4,0,-15,-8,0,4
1526902461561977,0,-16,-4,-6,-4,-1,6,4
1526902461561977,1,-11,-4,-2,10,0,-9,-9
1526902461582921,-29,-19,-11,-5,-4,-9,-3,-3
1526902461582921,-17,57,14,8,-41,-3,14,-2
1526902461584916,-12,-16,-3,1,18,-6,-6,-6
1526902461584916,12,-2,-9,-8,19,9,-6,6
1526902461596884,17,-4,-3,-4,-26,-5,-1,3
1526902461596884,-9,-25,-5,-3,31,-6,-3,-9
1526902461605860,-14,-1,1,-3,-20,6,1,-4
1526902461605860,14,11,4,3,-2,-2,18,7
1526902461620820,-10,-13,4,7,3,1,-12,-5
1526902461620820,0,1,-7,-6,-10,-2,1,5
1526902461622815,-9,-10,-2,-1,-11,0,-6,-1
1526902461622815,63,14,4,3,24,2,-4,-9
1526902461642761,-38,-5,-1,-2,-8,0,9,2
1526902461642761,-11,-16,-4,0,7,0,-2,9
1526902461644756,-7,0,0,1,-6,-5,-7,-3
1526902461644756,-8,-7,-1,-6,2,-4,-4,10
1526902461656724,23,10,-3,2,12,10,11,7
1526902461656724,8,1,3,2,-8,-6,2,-11
1526902461665700,14,-3,-2,1,3,1,-7,-3
1526902461665700,-37,16,2,5,-38,-3,19,5
1526902461680660,2,-12,-8,-3,44,-8,-29,-5
1526902461680660,23,-19,-6,-8,19,27,16,6
1526902461682655,-10,5,3,5,-21,-4,-12,-6
1526902461682655,-16,-10,-1,-4,2,-11,-3,-2
1526902461703599,15,17,6,4,-18,-3,2,3
1526902461703599,11,-8,-7,-4,-8,-9,-7,-5
1526902461704596,-11,2,2,-2,15,5,0,3
1526902461704596,3,4,3,6,-27,-8,-2,-1
1526902461716564,3,-10,0,2,-2,-3,-3,-5
1526902461716564,5,-8,4,-3,24,6,3,9
1526902461725540,3,19,-2,-4,-7,-1,-7,-8
1526902461725540,-20,-18,-8,-7,7,5,-3,2
1526902461739502,20,3,-1,-5,-11,-4,14,3
1526902461739502,-5,-10,1,8,-6,-7,-11,-12
1526902461748479,1,-5,-1,-4,8,0,8,4
1526902461748479,-1,7,-6,-4,6,3,5,-3
1526902461763438,6,11,11,5,-7,0,0,-4
1526902461763438,-6,-8,-2,3,18,0,-4,3
1526902461764436,-6,-16,-7,-8,-23,-3,13,0
1526902461764436,-1,13,1,3,-14,-15,-24,-8
1526902461776404,4,0,-2,-1,39,15,14,5
1526902461776404,-6,5,-3,-4,-7,4,-6,-5
1526902461785380,3,-26,-3,-1,-2,-2,-10,-3
1526902461785380,-7,14,7,3,23,6,23,9
1526902461800340,-3,1,-5,-2,-29,-12,11,-3
1526902461800340,2,5,2,6,-15,-11,-12,0
1526902461807321,4,-16,-14,-12,35,13,6,5
1526902461807321,-7,-14,5,3,-13,-1,-1,-1
1526902461823279,-2,-19,-3,-4,-3,-2,3,0
1526902461823279,23,42,10,6,3,3,14,9
1526902461825273,-19,-8,1,5,-11,-3,-9,-3
1526902461825273,-2,-17,-11,-8,4,1,16,7
1526902461837241,-7,12,0,-3,-25,-6,-16,-9
1526902461837241,-6,-17,-5,-7,28,-3,-2,-5
1526902461846217,17,41,14,12,-8,3,2,4
1526902461846217,-4,-4,2,9,-13,-8,-13,-4
1526902461860180,-1,-1,-4,-13,11,13,-3,5
1526902461860180,-7,-21,-12,-12,-10,5,1,-8
1526902461867161,-2,9,0,-1,10,-4,4,2
1526902461867161,11,0,1,6,9,7,1,5
1526902461883118,-13,-4,3,7,-51,-18,-19,-15
1526902461883118,-2,24,-1,-1,39,-1,21,2
1526902461885113,0,-15,0,-2,13,13,0,-4
1526902461885113,15,-9,-2,-2,-10,-1,1,2
1526902461906057,5,2,-2,0,5,-5,6,7
1526902461906057,-28,-26,0,1,-16,-5,-18,-7
1526902461907055,8,9,-3,-2,1,-9,-16,-7
1526902461907055,14,0,-2,-1,3,0,-2,-5
1526902461920020,-13,9,4,6,22,4,6,4
1526902461920020,-1,-6,-4,-2,-25,-2,-2,-3
1526902461927001,-4,-6,-7,-7,-1,-3,-2,-3
1526902461927001,1,-2,2,-3,-1,5,-1,-2
1526902461942958,12,1,-1,-2,5,-1,-3,5
1526902461942958,14,54,10,11,-24,-8,5,-1
1526902461944953,-10,-12,-1,3,11,-4,-11,-2
1526902461944953,-7,2,-6,-8,-9,-5,-2,-5
1526902461965897,-14,-9,-4,-4,17,15,6,3
1526902461965897,-1,-3,-5,-2,11,-4,-12,-1
1526902461966895,9,-2,0,1,-15,5,8,4
1526902461966895,-8,13,1,1,-8,-13,-4,1
1526902461979860,-3,-8,0,0,13,2,-18,6
1526902461979860,2,7,-8,-8,-59,-17,-4,-5
1526902461986841,15,9,8,3,37,11,1,-4
1526902461986841,-35,-24,-7,-6,-14,2,1,-3
1526902462002798,9,10,-2,2,-10,-6,-15,2
1526902462002798,-4,-21,-7,-6,0,-2,13,3
1526902462004793,-11,-18,-6,-3,-13,-6,2,-3
1526902462004793,-1,1,5,5,8,-1,-7,-2
1526902462025737,-4,-16,-4,-8,0,5,14,-4
1526902462025737,1,-6,8,6,5,0,-1,0
1526902462027732,7,22,-2,-4,-11,-9,-6,-5
1526902462027732,-3,-7,-8,-7,27,4,3,4
1526902462039700,-1,-10,1,3,-19,-13,-6,-7
1526902462039700,6,-4,-2,-3,9,10,-18,3
1526902462046681,-4,2,2,5,-5,-2,24,9
1526902462046681,-6,11,1,-3,-4,-1,6,-2
1526902462063636,2,-11,-5,-1,25,13,-4,-9
1526902462063636,2,-2,0,1,-12,-2,9,3
1526902462064633,1,-7,0,-1,1,-5,-9,0
1526902462064633,-8,-3,0,-1,-8,-1,-13,-5
1526902462085577,9,17,4,3,-1,-3,14,4
1526902462085577,-4,-6,-3,0,13,3,4,5
1526902462087572,7,3,-4,4,-9,-2,-6,-11
1526902462087572,-6,-9,2,-6,8,2,-10,-4
1526902462099540,7,24,-4,-4,-6,1,1,2
1526902462099540,-1,-19,-4,1,0,-3,8,-5
1526902462106521,-8,6,6,-2,-8,-4,9,-3
1526902462106521,3,8,-2,2,17,-3,-2,1
1526902462123476,-4,1,1,3,1,8,-3,-4
1526902462123476,4,17,-3,-2,5,-2,-5,-1
1526902462124473,-5,-18,-1,-6,-43,-20,4,-6
1526902462124473,2,-6,-4,5,73,14,-13,0
1526902462145417,17,18,8,4,-8,20,18,9
1526902462145417,-5,-17,-3,0,-8,-8,-16,-7
1526902462147412,-7,7,4,-4,5,6,3,1
1526902462147412,3,-9,-5,-5,-37,-15,-7,0
1526902462160377,-6,-14,4,3,-3,-15,-13,-6
1526902462160377,0,16,1,-4,15,11,20,2
1526902462166361,0,-5,-2,2,-3,-7,-20,7
1526902462166361,-4,7,2,2,-9,3,-3,-7
1526902462183316,-4,-10,-9,-3,20,-7,17,1
1526902462183316,-1,-5,4,-1,-17,1,-1,-7
1526902462185310,4,13,3,5,13,0,-2,8
1526902462185310,1,-8,-6,-8,10,8,21,0
1526902462205257,-4,5,-1,-4,-10,2,-16,-2
1526902462205257,-7,-16,-2,-1,-7,-6,-7,1
1526902462207252,-6,-4,1,2,16,-1,-1,2
1526902462207252,2,16,5,8,-6,8,10,5
1526902462220217,-2,-14,-6,-3,-17,-18,3,-12
1526902462220217,-1,2,0,-5,0,1,5,5
1526902462227198,0,3,-6,-1,20,14,4,3
1526902462227198,-2,5,-1,-1,-10,-3,-8,-5
1526902462243155,0,-6,-3,-7,-1,-1,7,6
1526902462243155,2,7,2,2,-38,-7,-4,4
1526902462245151,-3,-2,-1,1,30,-1,-2,-10
1526902462245151,4,0,-2,-3,-15,-2,10,3
1526902462266094,1,1,1,2,-11,-10,-7,1
1526902462266094,-4,-7,-2,-2,9,7,-10,-8
1526902462267092,0,4,-3,-4,-24,-11,5,3
1526902462267092,-1,-3,-2,-3,12,4,2,1
1526902462280057,-7,-22,-4,-1,-8,-5,-12,-5
1526902462280057,4,35,5,0,8,-4,8,5
1526902462287038,-4,-16,-1,1,-7,2,-22,-10
1526902462287038,3,9,-1,1,-1,-2,12,3
1526902462302995,0,0,1,-1,2,0,-7,-7
1526902462302995,2,-2,0,-2,-2,-5,4,7
1526902462304990,0,-8,0,1,1,1,-8,-6
1526902462304990,-2,10,-1,-1,-5,5,12,5
1526902462325934,-8,-11,-3,-3,4,-1,1,-3
1526902462325934,-3,-2,4,4,-4,-2,10,-1
1526902462326932,1,5,-5,-7,-12,-2,-4,6
1526902462326932,-4,-17,2,0,-5,-5,6,-2
1526902462338899,4,15,-2,-6,6,-4,2,1
1526902462338899,3,-7,0,4,59,32,-12,-12
1526902462347875,-2,-1,0,-5,-33,-7,1,0
1526902462347875,-1,-2,1,1,-5,-1,-13,1
1526902462362835,-1,0,-2,0,-9,-5,2,2
1526902462362835,-4,-6,-3,1,-11,-13,-4,-3
1526902462364831,1,-8,-4,-7,2,-7,-1,1
1526902462364831,-2,-2,-3,-2,7,9,1,-1
1526902462385774,7,19,3,0,-3,0,11,-1
1526902462385774,-6,-11,-7,-1,-4,-4,-10,-1
1526902462387769,1,4,-2,-2,13,7,3,0
1526902462387769,-5,-8,-1,2,-11,-11,-1,0
1526902462399737,3,1,1,0,6,4,-3,2
1526902462399737,5,28,6,2,-3,-3,2,2
1526902462408713,-3,0,-4,-1,16,0,8,-1
1526902462408713,-5,-7,-1,-1,-8,-3,-9,1
1526902462421678,-5,-41,-12,-3,0,4,7,-1
1526902462421678,14,48,13,3,-2,-5,-11,-2
1526902462430655,5,17,4,1,0,1,-8,-2
1526902462430655,-4,-3,-2,-3,-14,-6,-8,-5
1526902462445614,-8,-7,-3,-2,1,3,0,-1
1526902462445614,-8,-26,-6,-2,9,-2,5,10
1526902462447609,4,-1,4,4,-5,7,16,-5
1526902462447609,4,5,0,10,-33,-11,14,-2
1526902462459577,-4,10,3,-11,23,0,-37,-6
1526902462459577,-6,-18,-11,-11,-14,-5,4,-3
1526902462468553,-7,-3,-6,-5,-12,2,10,16
1526902462468553,9,-2,9,7,28,2,-3,-1
1526902462483513,4,22,4,13,-6,-4,5,-1
1526902462483513,-5,-12,-4,-6,-2,0,-3,-6
1526902462484510,-2,-5,0,1,-7,-7,-16,-8
1526902462484510,2,0,-5,-10,2,0,-1,11
1526902462506451,-1,-17,0,2,1,-1,1,-3
1526902462506451,17,46,14,4,-3,3,15,7
1526902462508446,-12,-22,-16,-7,4,-2,-2,-7
1526902462508446,6,30,8,7,-7,-6,-3,-1
1526902462519417,-1,2,-1,-6,10,2,2,5
1526902462519417,-10,-28,-12,-7,2,6,2,5
1526902462528393,7,4,14,10,-25,-15,-22,-14
1526902462528393,-4,-2,1,9,35,9,6,2
1526902462543353,-3,-2,-8,-13,-29,2,0,7
1526902462543353,-4,-8,-6,0,5,-7,8,-2
1526902462545348,1,4,-2,-7,7,12,13,9
1526902462545348,2,-5,2,1,-5,-3,-7,-5
1526902462565294,2,-5,0,9,-8,-4,6,-1
1526902462565294,0,5,-4,-8,20,-9,-11,-1
1526902462567289,-2,-1,-4,-2,2,7,-8,1
1526902462567289,-3,-1,1,-4,-3,0,18,-5
1526902462579257,6,3,1,-1,-14,-4,-7,9
1526902462579257,-4,-10,4,8,13,1,-5,-14
1526902462588233,3,1,-1,-4,-14,-11,5,5
1526902462588233,-4,-6,-9,-9,18,4,5,1
1526902462603193,1,4,1,1,-5,-6,-37,-11
1526902462603193,-5,-27,-7,-1,1,7,3,-6
1526902462605187,6,22,10,9,7,4,1,3
1526902462605187,-8,-28,-7,-5,-17,-8,1,0
1526902462626131,6,17,-7,-1,0,-3,3,4
1526902462626131,7,13,5,4,-5,1,-1,5
1526902462627129,3,-9,1,-1,8,3,3,0
1526902462627129,-3,-8,2,-1,-19,0,-10,-1
1526902462639097,-6,-4,-6,-2,19,0,6,-3
