timestamp,emg1,emg2,emg3,emg4,emg5,emg6,emg7,emg8
1526902562072179,-31,-3,-4,-3,0,0,-4,-5
1526902562072179,20,8,-1,-1,-6,3,3,4
1526902562079159,-16,-9,-1,1,7,-8,2,-2
1526902562079159,28,-2,-4,-2,9,9,3,-1
1526902562080157,-19,7,3,-1,-3,-3,7,8
1526902562080157,8,-12,-8,-5,4,-1,-10,-6
1526902562081155,-3,7,4,4,-7,6,23,6
1526902562081155,-5,-4,0,-2,-2,-1,-36,-5
1526902562084146,5,0,-1,1,-5,-11,-14,-5
1526902562084146,17,4,0,0,5,4,-1,-1
1526902562093122,23,1,-1,1,9,7,-5,-5
1526902562093122,-51,-3,-1,0,1,-10,7,4
1526902562109080,-12,-8,-3,-3,-3,27,-17,-23
1526902562109080,-23,0,-1,-2,-1,31,2,-5
1526902562113069,9,-4,0,-4,-15,-81,2,-6
1526902562113069,11,6,4,4,1,1,15,1
1526902562124040,14,2,-3,-4,-1,-6,0,9
1526902562124040,-4,0,1,0,2,-11,2,4
1526902562144984,1,-1,-2,-3,-12,28,3,-3
1526902562144984,-17,-14,2,3,5,-1,2,-4
1526902562145981,4,4,2,2,2,19,10,1
1526902562145981,-2,1,-4,-4,-10,-41,-25,0
1526902562191858,-9,-3,2,2,-1,3,1,2
1526902562191858,9,5,0,0,-3,-3,-4,-1
1526902562192856,14,-6,0,2,-1,3,-2,-7
1526902562192856,-11,1,0,1,2,-6,-2,-3
1526902562195848,23,5,-2,-3,-3,12,11,5
1526902562195848,-41,-6,-3,-4,-2,-5,-14,-6
1526902562196845,14,8,2,0,-3,-10,-1,10
1526902562196845,-6,-3,2,4,11,41,5,-4
1526902562203826,-12,-10,-8,-7,-5,-28,-8,-4
1526902562203826,15,2,0,-1,-1,-1,9,3
1526902562210808,-14,-7,-2,-2,-4,-5,-3,-4
1526902562210808,-18,2,-2,-1,-2,25,14,0
1526902562217789,12,5,2,1,2,-33,-28,-3
1526902562217789,-8,1,0,0,9,-17,13,6
1526902562232749,2,-1,1,2,-14,32,1,2
1526902562232749,-1,-4,-2,-1,-6,-25,-3,-4
1526902562240727,10,12,3,0,-1,10,7,6
1526902562240727,9,-8,-4,-2,4,-11,-10,-4
1526902562264663,-11,1,0,1,10,7,8,1
1526902562264663,-1,-6,-4,-4,-13,0,0,2
1526902562264663,16,5,3,4,-4,10,7,-7
1526902562264663,-15,-3,-4,-2,-2,2,-6,5
1526902562278626,6,2,0,-2,2,4,-1,-5
1526902562278626,20,1,0,-1,-3,-15,-17,-7
1526902562279624,-26,-8,-4,-2,2,-4,-1,0
1526902562279624,9,4,2,-1,-3,14,4,-1
1526902562301565,-12,-1,-1,-1,0,-12,-1,2
1526902562301565,14,4,-1,-5,-2,-17,3,9
1526902562302562,26,6,0,-1,0,11,2,5
1526902562302562,0,3,3,1,-4,6,0,-12
1526902562324503,-15,-9,-4,-1,-2,-6,-2,-2
1526902562324503,-12,0,-2,0,1,-4,-5,-12
1526902562325501,-10,2,-1,4,1,10,6,2
1526902562325501,11,-3,-5,-3,-5,0,-4,3
1526902562338466,37,-2,-2,-2,0,-10,-4,0
1526902562338466,-15,5,1,0,-3,0,0,7
1526902562339464,5,-5,-5,-2,-1,-2,-3,-6
1526902562339464,-7,-2,0,1,1,-2,0,-2
1526902562363400,-9,3,0,0,-2,-2,-1,-2
1526902562363400,5,1,1,-1,-1,-10,3,6
1526902562364397,-30,0,-2,-1,0,7,-5,-17
1526902562364397,10,0,-1,0,1,11,1,3
1526902562384343,-13,-9,-5,-4,0,-5,8,4
1526902562384343,5,-5,0,3,-1,2,-1,-2
1526902562385341,-18,-3,0,-3,-4,-23,-18,-7
1526902562385341,-6,-4,-4,-2,-1,-3,3,6
1526902562398306,-13,12,-2,-5,-5,7,-8,-15
1526902562398306,13,-11,-2,-1,-5,-28,-1,0
1526902562399304,19,1,0,0,2,11,10,10
1526902562399304,-17,5,-3,1,-1,4,1,-7
1526902562421245,9,-2,-5,-2,-2,-2,5,9
1526902562421245,30,8,1,-1,1,-4,12,11
1526902562422242,-18,-14,-3,0,0,-1,-3,-22
1526902562422242,-21,9,2,0,-2,-6,-6,3
1526902562444184,62,5,1,1,0,14,8,15
1526902562444184,-50,-14,-4,-5,-1,15,0,-2
1526902562445181,27,5,2,1,2,-1,7,19
1526902562445181,-20,-13,-2,-3,-6,-5,-8,-16
1526902562458146,-25,-9,-2,1,2,-4,-6,-7
1526902562458146,8,3,2,2,0,5,-1,-3
1526902562459144,2,2,-5,-4,-5,3,7,20
1526902562459144,20,-9,-8,-7,-5,-8,-4,-5
1526902562482082,-42,4,4,1,0,-6,-8,-13
1526902562482082,5,-9,-1,2,3,4,-6,-8
1526902562482082,-9,0,4,1,1,1,3,2
1526902562482082,35,3,1,1,-1,-1,1,11
1526902562504023,6,5,-3,-4,-2,-7,-7,-6
1526902562504023,6,-6,-4,-3,-1,4,5,10
1526902562505021,-43,-12,1,4,1,3,-3,-11
1526902562505021,21,10,5,2,-2,0,-1,-2
1526902562518983,17,-1,0,0,-1,-5,-4,2
1526902562518983,-37,17,4,4,9,6,-3,-5
1526902562518983,33,-9,-5,-8,-9,0,5,3
1526902562518983,-25,-15,0,2,5,-12,-14,-18
1526902562541922,-8,-1,1,2,10,9,4,1
1526902562541922,23,14,0,-4,-6,1,1,9
1526902562542920,-14,-6,-4,-4,0,10,-5,-3
1526902562542920,8,5,4,1,-2,-19,-2,-3
1526902562563863,-34,-17,-5,-4,-3,-7,0,-5
1526902562563863,18,11,2,1,1,0,3,11
1526902562564861,-12,-4,-2,0,3,10,1,2
1526902562564861,49,-13,-3,-4,-2,5,4,10
1526902562577826,6,42,14,9,2,2,6,6
1526902562577826,-18,-18,-11,-7,-7,-5,-7,-12
1526902562585805,9,-12,-2,3,0,-11,-7,-5
1526902562585805,-8,3,-2,-2,0,13,11,12
1526902562600765,0,-28,-4,-1,2,16,3,-12
1526902562600765,28,11,1,-2,2,-16,-20,-5
1526902562601762,13,12,0,-1,-2,2,20,0
1526902562601762,-35,-5,0,-1,0,-25,-14,-14
1526902562624701,19,-18,-5,-5,-3,3,-4,7
1526902562624701,26,13,7,4,0,2,10,8
1526902562624701,-29,-11,-6,-4,-2,-2,-13,-12
1526902562624701,2,13,0,0,-1,14,5,-1
1526902562637666,-5,14,1,0,-3,-9,3,0
1526902562637666,-15,-26,-6,-1,0,0,-8,-10
1526902562645645,14,-4,-1,-1,-2,-8,-4,-3
1526902562645645,-4,6,3,1,0,13,9,11
1526902562660604,-17,-7,-4,-5,-3,-12,-8,1
1526902562660604,-17,5,5,3,2,5,0,-13
1526902562661603,14,6,1,-1,-2,-2,-8,-8
1526902562661603,13,-2,-1,1,0,1,-1,1
1526902562684540,-3,-7,-7,-5,-3,-2,0,6
1526902562684540,-1,9,3,2,-2,2,2,0
1526902562684540,20,-17,1,5,4,-1,1,-3
1526902562684540,18,9,-3,-3,-1,0,-2,5
1526902562697506,-12,-3,3,2,1,-1,0,1
1526902562697506,-27,0,-4,-4,-3,0,-2,-8
1526902562706482,15,3,2,-2,-2,-3,1,0
1526902562706482,-8,5,2,0,-1,4,1,-3
1526902562721442,15,-3,-2,0,0,0,0,4
1526902562721442,-22,-2,2,2,-1,-2,-8,-25
1526902562721442,2,18,-1,-3,-2,-5,2,12
1526902562721442,-27,-10,-5,-2,-1,-1,-5,-12
1526902562744381,-11,0,-3,-2,-4,-2,-4,-7
1526902562744381,13,-11,-1,-1,0,-2,2,10
1526902562745378,-10,4,-4,-4,-1,3,8,0
1526902562745378,-10,-10,-1,0,-2,0,1,-3
1526902562758344,3,2,-3,-5,-1,-6,-7,-8
1526902562758344,5,-1,0,-1,-1,7,9,8
1526902562766322,4,3,-1,-3,-1,-11,-22,-5
1526902562766322,-4,-10,2,1,1,0,-1,-11
1526902562781282,16,-1,2,1,0,5,0,2
1526902562781282,0,-4,-3,-2,-1,-5,0,-2
1526902562782279,-14,2,0,1,1,14,10,1
1526902562782279,-7,-6,-5,-5,-3,-1,3,4
1526902562804221,13,4,2,3,2,-6,-4,2
1526902562804221,-2,-6,-3,-4,0,4,-1,0
1526902562805218,-37,-8,-1,0,-1,-4,-6,-10
1526902562805218,32,-2,-3,-3,-4,1,5,11
1526902562818183,-21,-4,0,1,7,16,-1,-2
1526902562818183,-14,1,0,2,-3,-5,11,5
1526902562826162,22,2,1,2,1,4,1,0
1526902562826162,0,5,0,-1,-5,-11,-13,1
1526902562842119,-11,-1,-3,0,-1,-17,-4,-3
1526902562842119,-6,-7,-5,-2,0,-3,-6,-1
1526902562842119,1,10,1,-3,-4,1,-3,3
1526902562842119,-13,-12,-2,2,2,-7,-5,-10
1526902562864061,24,-1,-3,-2,-3,1,6,7
1526902562864061,-2,-1,-3,-5,0,0,-13,-5
1526902562865058,11,-1,-1,-1,-2,-5,4,6
1526902562865058,-8,1,-3,-1,2,11,-1,-5
1526902562878023,-15,4,1,-1,-4,-18,-1,-6
1526902562878023,27,5,7,2,-3,-5,0,6
1526902562886002,3,-6,-5,-4,6,3,0,-10
1526902562886002,24,12,3,1,-2,-13,-23,1
1526902562900962,-32,-13,-2,-2,-2,17,14,2
1526902562900962,11,12,-4,-4,-2,-2,-1,5
1526902562901959,-17,-4,0,0,0,-6,-2,-12
1526902562901959,-28,6,4,5,4,17,18,0
1526902562923901,36,7,-4,-4,-3,-17,-9,-4
1526902562923901,-3,1,1,-1,1,34,9,0
1526902562924898,-23,-2,3,1,-2,-3,-15,2
1526902562924898,9,1,-2,-3,1,9,2,2
1526902562946839,-10,-2,1,1,-2,-3,3,1
1526902562946839,14,-3,-2,-1,1,0,13,3
1526902562947840,-2,1,1,1,-3,-12,-11,2
1526902562947840,-29,-9,-1,0,-1,-12,-3,-1
1526902562960802,6,3,-3,-3,-8,-15,-16,-2
1526902562960802,-8,-7,-4,-1,9,5,-1,-1
1526902562961800,-13,-2,0,-3,-2,6,-1,0
1526902562961800,6,3,1,4,-4,-14,14,3
1526902562984738,8,1,-3,-2,2,23,1,-6
1526902562984738,-9,-6,-5,-3,-4,2,3,-1
1526902562984738,20,4,-5,-3,-1,-5,-9,9
1526902562984738,-12,5,3,-2,-3,-15,3,4
1526902563006680,8,-3,4,1,0,-1,-4,-10
1526902563006680,-10,-6,0,1,-2,-15,-3,0
1526902563007678,11,-4,-4,-4,-3,8,8,5
1526902563007678,-5,4,-3,-3,-1,10,3,0
1526902563020643,35,-5,-2,-1,2,14,7,8
1526902563020643,-54,-16,3,5,-2,-25,-12,-11
1526902563021640,-5,-4,-3,-2,2,29,4,-6
1526902563021640,-1,-2,-4,-3,-2,6,2,2
1526902563044578,1,6,0,-1,-1,-4,0,1
1526902563044578,16,8,5,1,0,2,-2,-2
1526902563044578,-4,-1,2,0,-1,-10,4,4
1526902563044578,0,-7,-1,0,2,-5,-6,-5
1526902563066525,-10,4,3,2,2,12,1,-1
1526902563066525,11,1,-4,0,1,6,-4,0
1526902563067517,-2,4,0,1,-2,-15,-2,-2
1526902563067517,18,4,-2,-6,1,13,-5,5
1526902563081484,-21,-4,2,0,-2,-2,6,-11
1526902563081484,1,-5,-3,0,0,-4,-2,0
1526902563081484,2,-3,3,9,0,-17,-11,-2
1526902563081484,12,1,0,1,0,2,8,-3
1526902563104418,-18,-6,-2,-3,2,0,-2,5
1526902563104418,-1,9,-5,-8,-7,-14,-1,-1
1526902563105416,2,-3,-3,3,-3,6,11,-2
1526902563105416,-38,-3,-1,-3,-5,-28,-15,-14
1526902563126359,27,0,2,-2,0,-7,-1,5
1526902563126359,-15,-4,1,1,1,6,-6,4
1526902563127356,-1,6,-2,-6,-3,-2,4,5
1526902563127356,11,1,-1,0,0,-2,-1,8
1526902563141319,-18,-9,-4,1,1,10,4,-14
1526902563141319,20,5,-1,-2,-2,0,-11,0
1526902563142317,-19,2,1,2,2,5,11,-3
1526902563142317,-8,-20,-7,-8,-3,-4,-17,1
1526902563163261,-24,5,4,4,0,-7,-9,-4
1526902563163261,17,-4,-3,-2,3,19,-2,-1
1526902563172237,-10,2,-1,-2,-4,-15,5,0
1526902563172237,6,-3,-2,1,1,20,9,-9
1526902563187196,2,2,-1,-2,1,-24,-16,2
1526902563187196,-8,-7,-2,-2,-3,7,-2,-5
1526902563188194,18,7,3,-1,5,19,-1,-1
1526902563188194,-2,3,2,-1,-5,-1,12,0
1526902563209138,12,2,-1,-2,-6,-15,-4,4
1526902563209138,-14,7,-3,4,2,-1,-5,-7
1526902563211133,9,-12,-6,-7,-3,-12,-4,2
1526902563211133,8,-3,-3,1,2,1,-3,0
1526902563223100,-5,-1,0,0,0,18,11,-2
1526902563223100,2,-1,-2,-4,-3,1,2,3
1526902563232077,-6,-5,-4,-2,0,-40,-30,-9
1526902563232077,18,6,5,5,4,75,7,5
1526902563247036,-29,-3,-5,-5,-5,-15,13,0
1526902563247036,14,-6,2,2,3,-16,-11,3
1526902563248034,-3,5,1,1,3,9,-3,-9
1526902563248034,-12,1,-2,-3,-1,-1,4,6
1526902563268978,2,-1,0,2,0,-10,4,0
1526902563268978,2,-12,-1,-2,-6,7,-4,-5
1526902563270973,-27,0,0,2,0,15,6,-1
1526902563270973,0,-8,-5,-3,0,-14,-10,-2
1526902563282940,7,3,2,-1,2,11,-6,-5
1526902563282940,-22,-2,-4,-6,-4,-21,7,0
1526902563291917,26,-6,1,4,2,16,-2,5
1526902563291917,-10,4,0,2,-5,-31,3,-3
1526902563306876,-11,-8,-5,-2,0,39,4,7
1526902563306876,13,1,1,-2,-5,-56,-5,-5
1526902563308871,-5,3,-1,0,-2,3,-12,-5
1526902563308871,28,-2,-2,0,2,20,2,1
1526902563328818,-7,-3,3,3,1,-42,-13,2
1526902563328818,26,16,7,5,3,43,16,0
1526902563330812,-24,-9,-5,-2,-3,25,18,8
1526902563330812,1,0,-1,-3,-4,-49,-22,0
1526902563342780,-3,-6,-3,-3,-5,-17,-4,-4
1526902563342780,-7,-10,-1,-1,3,20,10,-2
1526902563351757,16,12,3,1,-2,-27,-17,2
1526902563351757,20,1,0,0,-1,11,7,1
1526902563366716,-21,-2,0,-1,-2,-3,2,2
1526902563366716,17,5,-4,-3,-1,14,-1,-1
1526902563368711,-52,-8,-2,-4,-2,7,4,-9
1526902563368711,18,-3,4,4,5,12,0,0
1526902563389655,15,7,-4,-4,-6,-21,0,-4
1526902563389655,-7,-2,0,-1,-1,-8,-18,-2
1526902563390653,-6,0,-1,-1,-3,3,19,1
1526902563390653,13,5,-1,-2,8,-6,-21,-3
1526902563402620,-9,-5,-4,-4,-6,6,20,-3
1526902563402620,-9,6,1,1,-3,0,-2,-1
1526902563411596,12,-3,1,2,0,1,1,-1
1526902563411596,-14,0,1,0,-2,-11,6,-1
1526902563425559,13,5,4,3,5,9,-3,-1
1526902563425559,29,-6,-6,-4,2,37,-5,1
1526902563434535,35,10,4,4,-1,-37,-19,-6
1526902563434535,-33,-15,-7,-2,-3,10,4,-2
1526902563449495,-6,1,-5,-5,-2,-19,-12,4
1526902563449495,15,-5,-2,-1,-2,-2,16,4
1526902563450492,10,-6,-4,-1,3,17,-10,-1
1526902563450492,-2,-5,-1,-3,-8,-37,3,0
1526902563471436,41,25,-1,1,0,2,-9,-6
1526902563471436,-70,-30,2,6,5,-12,-1,-14
1526902563473431,-18,-12,-6,-5,-2,7,4,-3
1526902563473431,-8,4,0,0,1,4,10,1
1526902563486396,2,0,0,-2,5,13,-4,-2
1526902563486396,6,17,-5,-4,-6,-25,-27,-3
1526902563492380,3,4,6,3,2,-7,4,1
1526902563492380,2,-3,-1,1,0,13,0,-3
1526902563509336,16,5,3,1,1,15,6,8
1526902563509336,2,-25,-5,-3,1,-7,2,-1
1526902563511330,-26,2,-2,-2,-3,-10,-1,0
1526902563511330,22,6,-3,-2,-3,4,-3,-1
1526902563532274,-28,-11,1,2,-1,25,2,-5
1526902563532274,11,8,-4,-4,-3,-5,5,4
1526902563533272,-1,2,-1,-1,0,-6,7,-3
1526902563533272,-19,-4,-3,0,-1,-6,-3,-2
1526902563546236,-6,9,-1,-1,-2,-5,1,1
1526902563546236,4,-12,1,2,1,-2,4,0
1526902563553218,-25,-11,-3,-2,2,31,9,5
1526902563553218,4,10,0,-2,-5,-37,-1,0
1526902563569175,-6,-4,1,2,2,-5,-5,-8
1526902563569175,-32,3,0,0,-2,2,3,-2
1526902563571170,47,7,1,1,4,7,2,7
1526902563571170,-19,-3,-1,-1,-4,-2,5,2
1526902563592114,-17,-7,-5,-4,-5,-9,-3,-7
1526902563592114,2,14,4,2,3,4,1,5
1526902563593111,27,-13,-4,-4,-3,-11,-3,0
1526902563593111,-1,4,2,1,5,21,5,5
1526902563606076,-2,-15,-6,-3,-1,10,3,-1
1526902563606076,5,-2,-2,-6,-8,-7,-7,6
1526902563613057,-16,3,0,3,-3,-32,-3,-5
1526902563613057,42,1,-1,0,-1,15,2,-2
1526902563629015,-12,-7,-6,-1,-4,6,2,-2
1526902563629015,-9,-2,4,2,0,-9,-8,4
1526902563631010,-14,0,-8,-3,-3,3,2,-4
1526902563631010,-15,-1,4,2,5,19,-3,-7
1526902563651953,23,4,2,0,0,-13,0,7
1526902563651953,5,9,-1,-2,-1,-5,4,4
1526902563652951,-5,-3,1,0,1,5,-2,-4
1526902563652951,6,6,1,0,-2,-5,0,-6
1526902563664919,-2,-8,-3,-3,-4,3,-6,12
1526902563664919,-5,8,1,0,-3,-8,0,-10
1526902563674892,-3,-5,-1,0,1,8,-6,3
1526902563674892,-4,-6,-1,-1,0,-11,2,-9
1526902563688855,24,5,1,-2,-3,3,4,7
1526902563688855,-5,-2,-2,-3,-1,-5,4,-6
1526902563690850,9,7,-2,-2,-2,-9,-8,-3
1526902563690850,-24,-12,-5,-2,-3,-6,-25,0
1526902563711793,0,3,0,1,1,-5,0,0
1526902563711793,2,-2,-5,-3,0,7,4,3
1526902563713789,20,6,3,0,0,8,10,5
1526902563713789,-14,2,1,2,1,-3,3,2
1526902563725756,-12,-8,-3,-4,-3,10,-6,-1
1526902563725756,19,3,-1,3,3,-19,-9,1
1526902563734732,-22,-3,-1,-7,-9,2,15,2
1526902563734732,3,2,6,6,-1,17,7,4
1526902563749692,-2,5,0,0,2,-5,0,-7
1526902563749692,9,-1,0,1,0,5,-4,-1
1526902563750690,1,6,-1,1,-2,-9,-6,-1
1526902563750690,-11,-3,-3,-4,-2,-12,-6,-10
1526902563771633,-4,-10,0,-2,2,13,6,-4
1526902563771633,-16,4,-4,-3,-3,1,4,5
1526902563773628,15,12,1,0,1,-6,-4,-1
1526902563773628,9,-6,-5,-3,-1,8,3,2
1526902563785596,14,4,3,4,0,-8,-5,-5
1526902563785596,-3,-5,0,0,-1,0,-1,-1
1526902563794572,13,-8,-1,-2,1,1,-3,-1
1526902563794572,11,2,-3,-2,0,1,6,6
1526902563809533,2,-6,-3,-1,-3,-3,5,9
1526902563809533,-6,5,3,3,2,-9,-7,-8
1526902563810530,-19,-3,0,1,-1,11,1,-9
1526902563810530,21,-1,3,-1,1,22,9,1
1526902563831473,-9,0,0,1,-2,-44,-30,-2
1526902563831473,5,7,1,-1,-4,26,20,3
1526902563833469,20,-11,-2,-3,-5,-46,-5,4
1526902563833469,-5,6,0,-4,-2,6,-3,-6
1526902563846433,-16,6,3,2,2,25,2,-4
1526902563846433,28,6,-1,-4,-2,5,9,4
1526902563852417,-13,-14,-3,-1,1,-4,-19,-6
1526902563852417,-12,12,0,-1,-2,-11,1,-5
1526902563869372,28,-21,-4,-1,0,2,2,5
1526902563869372,-15,6,-1,-1,-1,14,4,-4
1526902563871367,-13,-5,-1,2,0,-21,-27,0
1526902563871367,-43,-7,-2,-1,-3,-2,4,-5
1526902563891313,24,5,0,-3,-1,-1,2,-2
1526902563891313,-2,-4,-2,-5,-2,0,1,10
1526902563893308,7,2,-1,0,-1,19,7,-1
1526902563893308,9,3,1,1,1,-8,-4,-5
1526902563906273,-22,-5,-2,1,2,3,-7,-5
1526902563906273,17,-6,-3,-2,-1,-8,-2,0
1526902563913254,-18,23,6,0,-1,9,9,9
1526902563913254,20,-40,-10,-3,1,2,-4,-3
1526902563929212,-6,7,2,0,2,6,10,1
1526902563929212,1,1,2,2,3,8,-6,-7
1526902563931207,5,1,-1,-4,-2,-16,1,3
1526902563931207,1,9,3,2,-3,-3,6,-1
1526902563952151,-9,-1,-1,-1,-3,16,-1,-2
1526902563952151,-22,-8,-3,2,3,11,-1,-5
1526902563953148,10,-5,-3,-3,-3,-6,4,-7
1526902563953148,-37,-1,0,0,0,5,1,-2
1526902563965116,18,-6,-4,0,-2,-19,-5,-2
1526902563965116,40,24,3,2,1,-6,-4,-2
1526902563974092,-29,-28,-2,0,0,17,5,0
1526902563974092,37,16,1,-3,-1,-10,-3,9
1526902563989052,-14,2,3,-1,0,3,2,-2
1526902563989052,-1,-5,3,1,2,-1,-1,0
1526902563991047,-10,-3,-5,-2,-1,2,-2,-7
1526902563991047,-3,-1,-3,-1,0,-2,-1,10
1526902564011991,10,8,-1,-3,-3,-6,-2,-6
1526902564011991,-13,-11,-4,-1,-2,-6,-7,-2
1526902564012988,11,4,-3,-4,0,8,4,2
1526902564012988,-7,-2,-2,1,-1,-12,2,0
1526902564024956,-10,3,0,2,-2,-10,-15,-5
1526902564024956,-17,-10,-3,-2,-1,-2,0,-1
1526902564033932,10,8,1,0,0,-9,4,-5
1526902564033932,-2,-3,-1,1,-2,3,-9,-5
1526902564048892,-33,-8,-4,-4,-2,-4,4,-1
1526902564048892,-25,-2,1,3,1,-3,-10,-1
1526902564050887,36,-3,-7,-6,-5,-8,-1,8
1526902564050887,0,0,-1,-2,2,16,-2,-4
1526902564071831,-6,0,-3,-4,-1,-3,5,3
1526902564071831,-11,-3,-2,-5,0,0,-1,1
1526902564073825,-5,6,3,4,2,5,1,-4
1526902564073825,2,1,3,1,-1,-7,-5,2
1526902564085793,2,-3,-3,0,-1,6,0,-2
1526902564085793,3,-3,1,1,-1,-14,-4,1
1526902564094770,-11,2,-4,-2,2,16,-2,-2
1526902564094770,38,1,-1,-2,-7,-28,-2,2
1526902564109729,-12,-17,-6,0,-2,27,10,3
1526902564109729,-15,-3,1,4,2,-23,5,-6
1526902564110727,1,1,-1,-4,6,6,-10,1
1526902564110727,-24,0,-3,-4,0,15,4,-1
1526902564131670,11,6,0,0,-2,-27,1,7
1526902564131670,5,-2,-2,-3,-4,11,1,-3
1526902564133666,-3,-1,1,1,0,1,5,2
1526902564133666,-12,-3,-1,-2,-1,-15,0,-5
1526902564145633,11,3,0,1,3,19,6,2
1526902564145633,-10,-2,-6,-6,-3,-4,-2,-3
1526902564154609,2,5,6,6,-1,5,13,-2
1526902564154609,-6,-15,-6,-3,-3,-5,-10,-5
1526902564169569,1,8,1,2,0,-6,1,3
1526902564169569,-19,-1,-1,-2,-2,-1,-2,1
1526902564170567,29,-5,-4,-2,-4,-4,-3,0
1526902564170567,-25,1,3,1,2,7,1,2
1526902564191511,1,2,1,0,2,1,0,-5
1526902564191511,21,-4,0,3,-1,0,5,-1
1526902564193505,-2,-2,-1,-2,-1,-2,-2,0
1526902564193505,-2,3,0,-3,0,1,0,-3
1526902564205473,-1,2,1,-2,2,11,7,0
1526902564205473,10,2,2,0,3,-17,-4,3
1526902564214450,-19,12,1,0,-3,-1,-6,-4
1526902564214450,1,-14,-4,-1,-2,13,9,-3
1526902564229409,8,2,0,0,-1,-5,-7,-5
1526902564229409,0,-7,-1,0,-2,5,5,-1
1526902564230407,36,9,-5,-4,-2,-2,-5,2
1526902564230407,3,6,2,1,1,-5,-5,4
1526902564251350,11,1,1,-1,-4,-8,6,-5
1526902564251350,-31,-8,0,2,3,27,-9,-7
1526902564253346,-6,-5,1,1,-3,-31,-4,-4
1526902564253346,25,12,-2,-5,-2,10,12,8
1526902564265313,-8,-3,-4,-5,-3,-20,-27,-7
1526902564265313,-8,-7,-2,-1,-2,-15,-7,-5
1526902564274290,-22,-8,0,2,5,35,-1,-1
1526902564274290,-21,4,-2,-1,0,-12,13,-1
1526902564289249,-33,-11,-3,-3,-7,-9,-2,1
1526902564289249,40,10,-1,-3,1,6,7,5
1526902564291244,-8,-2,1,0,0,5,-3,-4
1526902564291244,-1,-4,1,-1,-2,-2,1,1
1526902564312188,-5,12,6,5,5,13,-4,-6
1526902564312188,3,-9,-9,-4,-3,-33,-16,-7
1526902564313185,-36,-6,3,1,-2,14,13,-8
1526902564313185,20,-4,1,3,3,2,-10,-2
1526902564325153,12,5,-3,-4,-4,-5,-1,4
1526902564325153,13,5,0,-1,-2,0,3,2
1526902564334129,10,-9,-4,-2,-2,-7,-1,0
1526902564334129,-20,-10,-1,-1,-1,-6,-10,-7
1526902564348092,20,4,2,2,0,5,1,4
1526902564348092,-5,3,-2,-5,-2,31,20,3
1526902564355073,7,4,0,-3,-3,-37,-38,1
1526902564355073,0,0,-2,-1,1,10,22,3
1526902564372028,0,-7,-4,-3,-2,-8,2,-3
1526902564372028,1,3,0,-1,-1,7,0,3
1526902564373025,-6,1,-3,-3,-1,3,11,-1
1526902564373025,-9,-13,-3,-1,-1,-3,-12,-7
1526902564384993,-7,0,-1,-3,-2,6,-1,2
1526902564384993,7,11,4,1,-1,-8,8,3
1526902564393969,1,-13,-4,-2,-2,-5,1,0
1526902564393969,-3,4,0,1,-1,-2,-14,-6
1526902564408929,22,2,2,1,-5,-11,9,3
1526902564408929,-25,-5,2,1,-1,5,-7,3
1526902564414913,5,3,1,-1,-1,13,7,8
1526902564414913,-8,0,-1,-1,-1,-3,-4,1
1526902564431867,4,-6,-3,-1,-1,-5,2,-2
1526902564431867,26,10,-1,-2,0,-4,-2,-1
1526902564433863,-13,-10,-2,-1,1,1,1,1
1526902564433863,-4,3,-2,0,-2,-2,-4,-3
1526902564453809,-12,-2,2,1,2,3,-1,1
1526902564453809,-13,-14,-4,0,1,-1,-3,-2
1526902564455804,21,19,-4,-4,-3,-1,0,3
1526902564455804,22,5,1,-2,-1,-2,-4,-7
1526902564468769,-1,-16,-5,-2,-1,1,-1,1
1526902564468769,4,-2,-3,-3,-3,-4,-8,-7
1526902564475750,-4,0,1,2,0,3,13,1
1526902564475750,-5,-3,-3,-1,-1,-1,-3,-4
1526902564491708,0,12,1,1,0,1,0,-1
1526902564491708,14,3,1,0,-1,-1,-3,-5
1526902564493703,-5,-14,-4,0,-2,-2,-7,-10
1526902564493703,11,15,1,-1,-1,7,4,6
1526902564514646,15,-11,-3,-2,0,-9,-1,-2
1526902564514646,-35,-6,-4,-4,-1,6,7,1
1526902564515644,-3,-3,1,-1,-2,-25,-29,-5
1526902564515644,17,-3,-3,-2,-1,1,2,9
1526902564528609,-20,-5,-3,-2,-1,-9,-5,-5
1526902564528609,-15,-5,-3,-1,-2,8,-6,-11
1526902564535590,28,9,-2,-3,1,6,10,5
1526902564535590,-12,-7,-2,-2,-3,-5,-2,2
1526902564551547,2,6,-1,0,2,2,0,10
1526902564551547,-18,4,3,4,2,0,-4,-14
1526902564553543,5,-4,-2,-3,-4,-10,20,6
1526902564553543,21,13,3,1,-3,-9,-10,-3
1526902564574486,-2,5,7,4,3,13,2,1
1526902564574486,-15,-1,-4,-2,-2,-8,-5,0
1526902564575484,-29,-19,-4,0,-1,11,6,-10
1526902564575484,-22,-15,-3,-2,-1,-10,-3,-9
1526902564588449,-12,8,2,-1,-2,2,4,4
1526902564588449,32,-2,2,-1,0,0,-1,2
1526902564595430,6,6,3,1,3,1,-5,-2
1526902564595430,-22,-21,-4,-1,-3,-4,-4,-15
1526902564611388,-13,6,0,1,0,1,-6,-6
1526902564611388,14,-3,-1,-1,0,20,13,2
1526902564613383,-3,5,-6,-4,-3,-25,-5,-1
1526902564613383,-27,-3,1,0,3,-3,7,-3
1526902564634326,6,-25,-11,-8,-4,2,6,-3
1526902564634326,17,18,6,1,0,-15,-13,-2
1526902564636321,0,-1,4,3,0,23,12,-2
1526902564636321,-13,6,3,2,1,8,5,2
1526902564648289,-7,-7,-1,0,-1,-5,-8,-12
1526902564648289,1,2,-2,1,3,-1,5,9
1526902564655270,9,0,4,2,0,9,-30,-4
1526902564655270,-3,-3,1,-1,-2,-17,5,2
1526902564672225,38,13,-4,-4,-1,17,2,3
1526902564672225,-10,-5,-7,-8,-5,-38,-1,4
1526902564673222,55,23,6,2,-1,15,11,5
1526902564673222,-34,-24,-5,-1,-1,12,1,-4
1526902564694166,-5,-4,0,1,-1,-9,-3,-3
1526902564694166,6,3,-3,-3,1,12,-6,6
1526902564696161,-24,-6,-3,-4,-2,3,8,-3
1526902564696161,43,7,2,0,0,-3,3,-1
1526902564708130,4,10,0,-1,-1,7,5,8
1526902564708130,2,-2,4,1,0,14,3,-2
1526902564717105,-30,0,1,-1,0,-18,0,4
1526902564717105,29,11,0,-1,-1,5,-11,9
1526902564732065,-23,-7,-4,1,-1,-5,9,-12
1526902564732065,-9,8,-6,-4,-4,-9,-15,-11
1526902564733062,13,-21,0,3,2,5,6,2
1526902564733062,-22,7,1,-1,-2,4,-1,-4
1526902564754006,-3,-9,-4,-3,-2,-3,-5,-9
1526902564754006,-4,-5,-5,-2,-3,0,10,0
1526902564756001,13,1,-7,-6,-5,7,2,6
1526902564756001,3,-3,0,2,2,-12,-11,0
1526902564767969,-20,-7,0,-1,-1,-5,-7,1
1526902564767969,-15,-6,1,2,-1,-1,3,-8
1526902564776945,10,6,-3,-4,0,-7,-9,6
1526902564776945,20,14,2,1,-2,11,2,3
1526902564791905,-18,-5,-4,-4,-3,-11,1,-13
1526902564791905,-30,-8,5,2,4,7,13,10
1526902564792902,-13,10,4,4,-1,-26,-41,-13
1526902564792902,12,-5,-3,-3,-2,7,6,8
1526902564813846,-15,-1,2,1,1,8,1,1
1526902564813846,24,2,-1,-1,1,21,0,-3
1526902564815841,-52,-9,-3,-3,-2,-14,9,-6
1526902564815841,11,-8,0,2,-1,-5,-13,-1
1526902564828806,3,3,-1,-1,-3,-8,-6,5
1526902564828806,21,6,-1,-4,-2,-11,-11,1
1526902564835787,-10,-4,-1,0,4,36,9,-4
1526902564835787,-4,4,-4,-3,-5,-16,-1,4
1526902564851745,28,-8,-3,-3,7,20,12,2
1526902564851745,20,9,1,0,0,-6,-21,4
1526902564853740,-8,1,-3,-3,-1,-19,-4,1
1526902564853740,11,2,5,0,-2,5,8,-14
1526902564874683,1,-24,0,4,0,-4,-2,10
1526902564874683,-11,-2,-3,-1,-2,-1,6,1
1526902564875681,2,4,1,3,1,2,-16,-2
1526902564875681,-8,-5,-7,-6,0,-1,0,0
1526902564888646,-14,2,2,4,1,-8,-3,-1
1526902564888646,21,-2,-1,-2,-3,8,3,-2
1526902564895627,2,-4,-1,-2,0,19,0,-2
1526902564895627,-41,4,3,2,1,-18,9,4
1526902564911585,53,3,1,-2,-4,-9,-12,7
1526902564911585,-12,-3,-3,-2,-2,-5,1,-3
1526902564913580,13,-3,2,0,-1,-2,8,4
1526902564913580,-9,-7,-7,-3,1,22,1,-1
1526902564934523,-17,12,2,0,0,-25,-9,-4
1526902564934523,-11,-2,1,0,-5,-14,5,-6
1526902564935521,-3,-10,0,1,-1,-21,1,-7
1526902564935521,6,-2,-4,-2,2,19,-6,3
1526902564947489,-7,2,-2,-1,-3,-3,8,2
1526902564947489,27,8,-4,-4,-3,-14,4,6
1526902564956465,-27,-5,-1,0,3,8,2,-14
1526902564956465,0,5,3,1,-2,-5,0,0
1526902564971425,-9,0,-4,-1,2,39,-3,-11
1526902564971425,-6,-6,-3,-4,-3,-24,-1,1
1526902564973420,7,-1,2,4,2,12,16,8
1526902564973420,2,-1,-3,-2,-2,9,2,-3
1526902564994363,25,-3,4,1,-1,-29,-24,5
1526902564994363,-6,4,0,2,0,1,-2,0
1526902564996358,12,-3,-4,0,-3,-2,3,3
1526902564996358,25,1,-4,-1,2,1,2,-2
1526902565008326,-35,-3,0,-2,-4,3,2,-2
1526902565008326,-3,-3,0,1,-2,27,5,-5
1526902565017302,-7,4,-1,-2,-3,-15,9,3
1526902565017302,7,-4,-4,-2,-3,-4,-11,-4
1526902565031265,12,2,-1,-3,-4,-17,5,0
1526902565031265,0,-10,-4,-2,2,-4,-8,-2
1526902565033260,-5,7,5,4,2,23,12,1
1526902565033260,-2,3,-2,0,-2,-7,-4,5
1526902565054203,-22,-5,-7,-6,-3,-5,-5,-8
1526902565054203,16,-10,1,5,0,10,6,2
1526902565056198,-11,-3,-7,-4,-2,-14,-12,-2
1526902565056198,25,3,3,1,1,21,12,-2
1526902565068166,7,9,3,3,2,-17,-17,-1
1526902565068166,-38,-6,-4,-4,-4,-1,5,-1
1526902565077142,3,0,1,1,1,18,-16,-7
1526902565077142,-16,-11,0,1,1,-30,11,3
1526902565092102,-11,8,-5,-4,-5,6,3,1
1526902565092102,16,0,2,3,1,-3,4,4
1526902565093100,8,-1,1,0,-1,-16,-10,-3
1526902565093100,-31,4,-1,-4,-5,29,0,-2
1526902565114043,5,-15,-4,-2,1,-18,15,-4
1526902565114043,-8,1,0,1,0,-16,-9,5
1526902565116038,9,2,-1,-3,-1,9,7,3
1526902565116038,-3,5,4,4,7,-5,-9,-1
1526902565128006,4,1,1,0,-6,33,16,3
1526902565128006,-4,0,-2,1,-4,-6,21,5
1526902565136982,-8,-10,-10,-9,-3,-23,-44,-10
1526902565136982,4,0,0,3,0,7,-5,-3
1526902565151942,11,1,-2,-4,3,4,-9,2
1526902565151942,2,-4,2,-1,-4,-6,-9,-4
1526902565152940,-4,6,-1,1,0,15,13,-9
1526902565152940,31,-3,-5,-3,-5,-69,-14,2
1526902565173883,-19,7,4,1,2,43,0,2
1526902565173883,-4,-4,0,0,1,2,1,-3
1526902565175878,-10,-3,-2,-1,1,33,16,0
1526902565175878,24,-5,-3,-4,-6,-53,-12,-5
1526902565187846,-8,0,-1,1,0,-11,-3,-3
1526902565187846,1,1,-3,-5,2,19,10,-2
1526902565196822,-4,-5,2,1,5,-17,-19,-3
1526902565196822,22,7,-5,-6,-8,-4,-15,2
1526902565210785,-10,-11,-2,-1,-2,-9,9,3
1526902565210785,-17,-1,0,0,3,15,-16,-9
1526902565217766,6,1,0,1,-2,-11,0,5
1526902565217766,-35,-7,-2,-1,2,25,3,1
1526902565234721,35,12,1,0,-1,-18,-4,8
1526902565234721,3,2,-1,-1,1,12,-1,-5
1526902565235718,16,2,4,0,-2,2,25,12
1526902565235718,-16,-2,2,3,1,11,6,-7
1526902565247686,-28,-10,-5,-3,-2,13,0,-8
1526902565247686,-2,9,1,2,0,-19,-5,2
1526902565256662,3,-9,-4,0,-6,-25,0,3
1526902565256662,-8,9,2,1,4,17,1,-5
1526902565270624,15,-3,-2,-1,1,11,0,-5
1526902565270624,-12,-8,-3,-2,-2,-11,-6,-9
1526902565277606,25,15,1,-1,-1,21,7,1
1526902565277606,-33,-22,-4,-1,-3,-37,5,-1
1526902565294560,4,6,2,-1,-2,5,0,3
1526902565294560,1,-4,-3,-4,-7,-14,-7,-1
1526902565295558,5,-1,-2,-2,-4,16,2,2
1526902565295558,-6,-4,-3,-4,0,-8,-7,-1
1526902565307526,1,-4,1,1,1,3,9,-4
1526902565307526,9,9,-1,0,3,20,-4,6
1526902565316502,23,-5,2,0,-8,-33,-5,-2
1526902565316502,14,11,3,3,1,9,-7,-2
1526902565331462,-25,-5,-3,-1,2,-10,6,-3
1526902565331462,-5,-8,-3,1,0,-1,-12,1
1526902565337446,-17,-1,-7,-2,2,26,0,-4
1526902565337446,19,9,6,2,0,-27,8,14
1526902565354401,-2,-6,-3,-3,-1,-6,-12,-13
1526902565354401,-7,-1,5,6,0,5,14,7
1526902565355398,-11,-4,-6,-7,-2,-8,-21,-7
1526902565355398,-2,1,1,0,-4,17,8,5
1526902565376342,-7,-2,-3,0,4,14,-1,0
1526902565376342,6,10,-1,-6,-4,-42,-12,-2
1526902565378337,5,-8,1,-2,0,-12,0,5
1526902565378337,1,-4,-4,-4,-2,33,3,1
1526902565391302,2,2,-3,-3,-6,-24,-8,0
1526902565391302,-13,-11,-5,-3,2,16,5,-9
1526902565398283,-1,-1,0,2,-1,-6,9,-4
1526902565398283,19,10,1,-1,2,13,-2,-3
1526902565414240,-13,-10,2,3,0,-5,2,4
1526902565414240,-6,-8,-5,-6,1,18,-17,-6
1526902565416235,-18,2,5,2,7,32,12,3
1526902565416235,5,-5,-4,-4,-16,-83,-18,-7
1526902565437179,23,11,4,4,-1,-7,3,6
1526902565437179,17,3,2,-1,-3,11,-2,-2
1526902565438177,-12,0,-4,-3,0,10,-1,2
1526902565438177,-7,-12,-4,-3,4,21,9,-2
1526902565451142,9,9,1,2,2,-8,-10,-14
1526902565451142,-10,-5,-1,0,-2,-10,1,2
1526902565458123,5,0,-2,-2,-4,3,0,1
1526902565458123,6,3,-2,0,1,10,6,6
1526902565474080,-19,-2,-1,-2,0,1,1,-4
1526902565474080,30,12,4,2,2,16,9,-2
1526902565476075,-25,-18,-4,-4,-6,-40,-10,0
1526902565476075,-9,0,-1,1,1,-5,-14,-1
1526902565497019,11,4,-2,-3,0,31,15,-7
1526902565497019,-11,-3,-1,0,-2,-33,-17,-2
1526902565498016,20,13,7,8,2,7,11,2
1526902565498016,-8,-3,-1,0,0,11,1,-6
1526902565510982,7,-2,3,0,0,-10,-6,7
1526902565510982,-4,-3,-11,-10,-8,-8,4,-1
1526902565517963,-16,-8,-2,-1,-9,-47,13,-1
1526902565517963,5,9,8,2,4,13,-16,-6
1526902565533920,2,1,0,0,-5,-12,-2,4
1526902565533920,-1,-1,0,1,1,7,0,0
1526902565535915,5,-2,-3,-1,3,4,-7,9
1526902565535915,-19,-4,-2,1,-1,9,8,-10
1526902565556859,2,-7,-4,-1,-2,-1,-6,1
1526902565556859,-1,4,1,-1,1,-6,-8,-3
1526902565558854,11,3,0,-2,-1,8,4,-3
1526902565558854,-14,0,1,0,3,15,4,5
1526902565570822,-11,0,1,2,0,-7,-5,-5
1526902565570822,-13,-7,-6,0,2,28,16,-1
1526902565577803,19,7,-1,0,-1,-15,-22,-1
1526902565577803,-3,0,0,0,-1,4,1,-4
1526902565594758,-2,0,-3,-3,-5,-37,-3,1
1526902565594758,-7,-9,1,0,8,59,10,2
1526902565595755,1,-1,-2,-4,-3,-14,-3,1
1526902565595755,5,0,-1,-4,-2,41,9,0
1526902565616699,-2,1,6,5,4,-37,-27,-12
1526902565616699,16,3,-1,1,-3,-15,0,5
1526902565618694,-7,-1,-1,0,-2,9,1,-5
1526902565618694,10,2,0,-2,3,2,-3,3
1526902565630662,-5,-1,-5,0,2,36,8,9
1526902565630662,20,-3,3,1,-10,-53,5,-5
1526902565639638,16,10,-3,1,3,9,-4,1
1526902565639638,-46,-17,0,-1,-4,-12,4,-4
1526902565654598,-25,-1,1,0,2,22,4,2
1526902565654598,42,13,-2,-5,0,-14,-9,8
1526902565655595,-24,-10,2,1,2,7,6,-3
1526902565655595,11,6,1,2,1,0,-4,-5
1526902565676539,-3,-7,-4,-6,-4,-7,5,8
1526902565676539,-43,-14,-2,0,0,7,-4,-12
1526902565678534,12,7,-2,-3,-5,-5,0,1
1526902565678534,-17,0,-2,1,1,-4,0,-3
1526902565690501,12,2,1,-1,8,38,3,-6
1526902565690501,3,2,0,-1,-4,-44,-24,-3
1526902565699478,-8,-2,-2,-2,0,19,0,1
1526902565699478,10,-3,-3,-3,0,-6,1,4
1526902565714438,10,4,1,1,-2,2,4,-10
1526902565714438,-1,-2,1,2,1,3,1,0
1526902565715435,0,4,1,0,6,40,30,-2
1526902565715435,-18,-12,-8,-6,-7,-59,-28,-1
1526902565736379,33,4,0,1,-1,-2,4,1
1526902565736379,5,8,2,-1,-1,0,0,8
1526902565738374,-9,-17,-5,0,-1,-8,-9,-7
1526902565738374,-5,-2,-4,-1,0,20,8,-2
1526902565750342,1,-8,-3,-2,-1,4,4,3
1526902565750342,-28,-2,-5,-1,-2,-5,1,-11
1526902565759318,27,12,0,1,-1,6,-1,0
1526902565759318,-8,-8,2,1,3,-7,-2,-2
1526902565774278,-12,-3,-6,-7,-7,-12,-4,14
1526902565774278,2,3,4,3,-2,7,9,4
1526902565776273,-2,-2,-3,-3,0,3,-1,3
1526902565776273,6,0,0,2,-1,8,-2,-1
1526902565797216,6,-4,-6,-6,-4,19,-2,3
1526902565797216,-7,-8,2,-1,-3,-43,5,1
1526902565798214,-6,3,3,1,-1,-8,-2,1
1526902565798214,16,1,-3,-3,0,3,-3,-7
1526902565810182,-16,-13,-3,-1,-1,-12,-2,-4
1526902565810182,1,2,-1,1,6,51,-6,-2
1526902565819158,-9,-4,0,-2,-5,-31,-1,-7
1526902565819158,-1,-2,-2,0,1,-6,-14,-4
1526902565834118,18,10,-2,-2,-6,-13,8,3
1526902565834118,10,-7,-4,-5,-5,17,10,5
1526902565836112,-28,-9,-3,-3,-3,-33,-26,-10
1526902565836112,9,9,5,5,5,30,22,7
1526902565857056,1,-7,-5,-2,0,-28,-3,-8
1526902565857056,-25,0,2,2,0,29,4,-4
1526902565858054,20,2,-4,-4,-3,-8,0,4
1526902565858054,8,-2,0,-2,-6,3,7,4
1526902565870021,-19,10,6,5,4,22,-10,-4
1526902565870021,22,1,-1,0,0,-22,4,6
1526902565878997,0,-1,1,1,-2,2,5,0
1526902565878997,-3,2,2,2,-2,-8,-5,-3
1526902565893957,-6,-2,-1,-2,1,11,4,1
1526902565893957,7,1,-1,-2,-2,-9,-8,-1
1526902565895953,-11,-1,-3,-2,1,19,9,1
1526902565895953,2,1,2,-1,0,6,-6,-1
1526902565916896,6,-3,-4,-2,-4,-28,-23,4
1526902565916896,8,5,1,-1,2,-2,4,1
1526902565917894,-9,-2,2,1,3,7,-3,-4
1526902565917894,-16,-3,-1,1,2,10,6,-6
1526902565930859,18,0,0,-3,-4,-10,8,-4
1526902565930859,-5,-3,-6,-5,-2,5,-17,-1
1526902565939835,-1,-1,-2,-1,0,15,8,-1
1526902565939835,6,2,2,-1,-2,-3,11,2
1526902565953798,-21,5,0,1,-1,4,-5,2
1526902565953798,9,-11,-4,-1,7,-13,1,1
1526902565955793,17,7,5,2,-4,-5,-6,-1
1526902565955793,-2,-5,-4,-5,-2,-7,-4,-3
1526902565976736,-12,4,3,1,-2,5,-4,-9
1526902565976736,-12,-10,-6,-3,-2,0,-6,-9
1526902565978731,-22,-5,-1,3,4,-1,5,5
1526902565978731,19,3,-3,-2,-3,-21,-1,1
1526902565990699,-17,-2,1,0,3,30,10,-2
1526902565990699,10,0,-3,-1,-6,-34,-15,8
1526902565999675,-1,2,1,1,1,5,-4,-6
1526902565999675,-4,-1,-3,-1,-3,-1,5,8
1526902566014635,0,-5,0,0,0,11,0,-3
1526902566014635,-17,2,1,1,-3,9,10,1
1526902566015632,-6,-8,-10,-6,-1,-4,-2,-4
1526902566015632,26,9,4,1,1,3,-7,3
1526902566036576,8,-3,0,-1,0,-13,-5,-2
1526902566036576,-16,-4,6,5,2,0,-1,2
1526902566038571,4,4,0,-2,-1,-2,-3,-1
1526902566038571,-11,-8,-4,-2,-4,-20,2,2
1526902566050539,6,1,-5,-4,0,19,-1,-4
1526902566050539,12,5,0,-2,-1,13,15,5
1526902566059515,-15,-1,1,3,-4,-43,-19,-10
1526902566059515,7,-6,1,1,3,17,3,2
1526902566074475,-2,14,4,2,-2,-17,2,0
1526902566074475,0,-5,-8,-3,-1,6,4,0
1526902566075472,-12,-7,-2,0,0,14,-2,-4
1526902566075472,-19,-5,-6,-4,-4,-10,-1,-5
1526902566096416,-6,-6,-1,2,2,1,3,2
1526902566096416,15,5,2,-1,-3,-10,-5,-1
1526902566098411,-4,1,0,0,-2,1,20,2
1526902566098411,-11,-1,0,0,2,10,-5,-10
1526902566110379,23,1,-3,-3,1,-6,-13,7
1526902566110379,6,-1,0,-1,0,-2,1,-5
1526902566119355,-7,0,2,1,1,-10,-13,-5
1526902566119355,14,6,0,-1,-3,8,9,9
1526902566134315,-10,-3,2,1,0,2,2,-9
1526902566134315,-8,-1,-1,0,-2,-6,-2,0
1526902566136310,17,5,1,-2,-2,-7,-2,3
1526902566136310,13,6,1,-1,1,4,-14,-1
1526902566157253,-11,2,-3,-4,-3,6,7,5
1526902566157253,-15,-15,-4,-1,-1,-5,-10,-7
1526902566158251,-3,-2,-2,-1,0,4,4,-2
1526902566158251,13,4,3,4,1,-8,-2,3
1526902566170219,-3,-7,0,-2,-3,5,5,1
1526902566170219,0,-4,-6,-1,-2,0,4,-4
1526902566179195,13,-4,-13,-7,-4,4,-7,5
1526902566179195,-22,-8,-3,-6,-2,13,13,-10
1526902566194155,27,12,1,1,-4,-44,-18,-3
1526902566194155,-21,-7,0,-4,1,2,2,2
1526902566196150,0,-4,0,5,2,5,2,7
1526902566196150,9,8,-1,0,-6,-1,-5,-4
1526902566217093,-9,-5,4,3,3,-7,3,1
1526902566217093,-10,1,-3,-3,-3,9,-7,-13
1526902566218091,11,1,-2,-3,-1,-10,-3,-3
1526902566218091,-30,-15,-9,-3,-1,4,2,0
1526902566230059,20,1,-1,-2,-3,8,1,-3
1526902566230059,-4,9,2,5,2,12,3,6
1526902566239035,15,3,1,-6,-7,-23,-6,1
1526902566239035,0,-7,5,6,2,-3,-4,-1
1526902566253995,-20,-3,-4,0,3,13,9,-1
1526902566253995,1,7,7,5,1,-6,-6,3
1526902566259979,-4,-11,-7,-6,-4,9,-2,3
1526902566259979,17,5,-2,-3,3,15,2,-7
1526902566276933,-5,-7,-6,-4,-5,-56,-17,1
1526902566276933,-20,11,6,2,1,14,6,-4
1526902566277931,-23,-6,3,1,2,4,1,-2
1526902566277931,23,-2,-2,-3,-5,-3,-5,4
1526902566289899,-26,-5,-2,-3,-1,22,9,-2
1526902566289899,27,-3,-1,0,-6,-21,6,2
1526902566299872,25,9,-4,-2,3,15,-10,1
1526902566299872,-28,-1,-2,2,2,-2,5,5
1526902566313835,20,4,2,-2,-1,9,-2,-7
1526902566313835,8,0,2,0,-5,-5,-3,0
1526902566320816,-27,-8,0,2,-2,4,0,-12
1526902566320816,-10,-6,-4,-1,-1,-9,-4,0
1526902566336773,0,3,-1,-2,-1,1,-3,2
1526902566336773,-20,2,0,1,0,3,7,0
1526902566338768,51,0,1,1,-1,0,3,3
1526902566338768,-24,-13,-5,-4,0,9,0,-7
1526902566359712,6,-2,-3,0,-1,-16,-11,2
1526902566359712,-20,-1,-6,-5,-1,0,-3,-5
1526902566360710,7,-4,1,2,-1,-3,5,11
1526902566360710,-13,-2,4,2,0,-6,-10,-15
1526902566373675,17,11,-1,-2,0,10,3,0
1526902566373675,25,-2,-2,-6,-1,-4,-6,1
1526902566380656,-24,1,5,4,1,3,5,2
1526902566380656,36,10,-8,-8,-7,-14,-1,14
1526902566396613,-41,-9,4,2,0,13,6,-4
1526902566396613,13,2,-1,-1,-1,-14,-20,-12
1526902566398608,-18,-4,-4,-4,0,1,-1,-5
1526902566398608,-5,5,1,-2,-3,-4,0,7
1526902566419552,1,-7,-6,-4,-2,3,4,4
1526902566419552,-6,-2,-5,-1,0,1,-1,-5
1526902566420550,4,13,6,2,3,4,-4,-3
1526902566420550,18,-9,-4,-1,-5,6,9,3
1526902566433515,1,-4,5,4,3,3,6,7
1526902566433515,1,1,-1,-2,-3,-4,-9,-2
1526902566440496,-19,-7,0,0,0,3,-1,-6
1526902566440496,-2,8,-4,-7,-8,-24,-16,-7
1526902566456453,59,6,5,3,2,16,22,13
1526902566456453,-51,-16,-1,2,2,-1,1,-12
1526902566458448,16,2,-6,-3,-2,6,0,-1
1526902566458448,-6,6,2,0,2,-9,-4,6
1526902566479392,-11,-2,-2,-2,-3,-11,-11,-1
1526902566479392,19,6,3,1,1,9,9,5
1526902566481387,1,-4,-6,-2,-3,-5,-2,-6
1526902566481387,-29,3,5,1,1,4,4,-9
1526902566493355,22,-4,-5,-4,0,-9,-8,-5
1526902566493355,-4,3,2,1,0,-1,-1,3
1526902566502331,-8,-12,1,2,-1,0,1,7
1526902566502331,7,-5,-1,0,1,1,2,2
1526902566517290,-17,5,-1,0,-1,-2,-3,1
1526902566517290,19,1,1,-1,-2,0,-3,-7
1526902566518288,0,3,-6,-4,-1,-3,0,3
1526902566518288,1,-5,-2,-2,-2,0,3,-2
1526902566539232,-16,2,0,-1,0,1,-1,-5
1526902566539232,23,-3,-4,-1,1,8,5,8
1526902566541227,-1,17,5,2,-1,-8,4,4
1526902566541227,-16,-11,-1,1,2,-3,-8,-7
1526902566553194,-2,-2,-5,-4,-5,2,2,-1
1526902566553194,5,-9,-1,-2,-5,-17,-9,8
1526902566560176,-29,-1,0,1,-2,7,3,-11
1526902566560176,48,8,-1,0,2,-3,5,7
1526902566577131,-6,2,2,0,-1,8,5,5
1526902566577131,-7,-10,0,0,-1,-6,-9,-11
1526902566578128,10,3,-1,-5,-2,-10,-7,0
1526902566578128,2,3,4,2,1,5,2,5
1526902566599072,-15,-12,-7,-3,-3,-5,-4,-8
1526902566599072,35,13,-10,-2,1,-2,10,10
1526902566601067,-15,-3,3,-3,-1,-1,-22,-7
1526902566601067,-4,6,6,6,5,0,-3,-4
1526902566613034,42,11,-1,-2,-1,3,0,1
1526902566613034,-34,-11,-3,-3,-4,0,3,-6
1526902566622011,-3,-10,-2,1,-3,-9,1,1
1526902566622011,-11,-2,-3,-3,6,19,-1,6
1526902566636970,8,1,0,-1,2,4,-7,-8
1526902566636970,-32,-4,-1,-1,-4,-1,8,5
1526902566637968,-3,-1,0,0,1,6,3,-8
1526902566637968,-33,-13,-4,-3,-8,-17,-19,-8
1526902566658912,67,6,-1,-1,-1,8,4,14
1526902566658912,-5,2,-2,-4,-1,6,-6,-3
1526902566660907,-17,-5,2,1,0,-17,6,-10
1526902566660907,-7,-11,-2,0,1,44,11,-7
1526902566672874,-20,2,-1,-2,-2,-27,-5,-5
1526902566672874,-2,-2,-9,-5,-1,-6,-6,-1
1526902566681851,37,4,7,2,0,6,1,7
1526902566681851,-24,8,1,2,-2,-6,0,-2
1526902566696811,-41,-8,-1,-1,-1,1,1,-8
1526902566696811,19,6,7,2,1,1,7,3
1526902566698805,-14,-6,-8,-6,-1,5,-9,2
1526902566698805,14,2,1,0,-1,-3,6,2
1526902566719749,-3,-4,-1,-1,-5,-9,-5,-4
1526902566719749,-23,-9,-7,-7,-3,5,-7,-3
1526902566720747,0,1,-1,0,0,-4,12,6
1526902566720747,27,-6,0,-3,0,-4,2,3
1526902566732714,-18,2,0,1,-3,16,13,2
1526902566732714,5,-1,-4,0,-1,-23,-25,-1
1526902566741691,3,-4,-2,-2,-4,10,9,-1
1526902566741691,-9,-2,-2,-3,-2,2,8,-1
1526902566756651,14,11,4,5,4,-17,9,1
1526902566756651,-5,3,2,-1,3,6,-11,-4
1526902566758645,2,2,0,-1,-1,-8,-5,2
1526902566758645,5,-3,-1,0,-1,-5,-4,-3
1526902566779589,-14,-28,-7,-5,-1,7,-2,-9
1526902566779589,-5,20,5,4,2,9,12,7
1526902566780586,10,0,3,1,-1,-4,-5,-3
1526902566780586,4,1,-7,-8,-5,-11,-6,-8
1526902566793552,-16,-8,2,2,7,19,-9,-7
1526902566793552,13,-4,-5,-3,-1,10,4,4
1526902566800533,4,1,-5,-5,-6,-21,-2,2
1526902566800533,10,2,2,2,-2,-4,3,-2
1526902566816490,-10,1,-2,-4,-1,4,-7,4
1526902566816490,-7,-5,0,-2,-1,-2,2,-2
1526902566818485,13,3,0,3,4,14,14,7
1526902566818485,-24,-8,-2,-2,1,-14,4,-7
1526902566839429,11,4,-1,0,-6,-4,-17,2
1526902566839429,9,-3,0,2,-1,13,5,2
1526902566840426,10,4,-4,-4,-3,2,-1,1
1526902566840426,3,4,4,3,2,1,8,1
1526902566853392,-11,-6,-5,-1,-2,-4,-3,-3
1526902566853392,-16,3,3,1,0,-2,0,-3
1526902566862368,-27,-18,-3,0,7,20,-2,-5
1526902566862368,43,9,-2,-3,-3,0,-9,11
1526902566876330,-10,0,-3,-3,-3,-38,-12,-3
1526902566876330,-7,-1,6,5,3,5,-7,-3
1526902566878325,1,2,-4,-3,-3,0,-4,-10
1526902566878325,-13,-1,0,2,5,11,3,-1
1526902566899269,6,-3,-1,-1,-5,1,-6,-1
1526902566899269,13,1,-8,-8,-5,-34,5,7
1526902566901264,-8,-1,3,1,-1,44,9,-7
1526902566901264,6,2,4,0,-2,-19,-22,-2
1526902566913232,-3,0,-2,0,1,5,4,-2
1526902566913232,8,-7,-3,-1,-3,-7,-4,-1
1526902566922208,-8,-2,0,-1,3,14,-7,-3
1526902566922208,-8,0,-3,-3,-12,-43,0,0
1526902566937167,0,4,-2,2,0,7,1,-6
1526902566937167,5,-4,-5,-4,2,32,13,1
1526902566938166,3,4,-1,-4,1,8,8,4
1526902566938166,-5,-1,-2,0,-4,-42,-28,0
1526902566959109,-7,5,8,3,2,-4,1,-2
1526902566959109,9,1,6,4,-1,-2,2,-1
1526902566961104,13,1,-1,1,-1,-3,-1,1
1526902566961104,-28,-13,-6,-4,-2,-10,7,-1
1526902566973072,-2,-4,-4,-7,-1,26,4,-2
1526902566973072,-17,7,11,8,2,7,2,2
1526902566982048,49,-3,-6,-5,-8,-25,-13,2
1526902566982048,-12,-3,-4,-2,0,16,0,-5
1526902566996010,-4,-4,-3,0,-1,-13,-2,-3
1526902566996010,-11,-4,-1,0,1,15,10,1
1526902567002992,-19,9,-1,-1,-8,-50,-27,-6
1526902567002992,12,-6,-1,0,6,30,3,2
1526902567018949,0,-4,-4,-3,-2,2,12,0
1526902567018949,3,3,-2,-2,-2,-6,-25,-4
1526902567020944,-8,2,-2,4,1,10,14,-3
1526902567020944,6,1,0,-2,2,0,1,-2
1526902567032911,-10,1,2,-1,-7,-44,-4,1
1526902567032911,9,-6,-3,-3,0,-3,-1,-6
1526902567041888,-14,-5,-3,-4,-3,-11,-3,2
1526902567041888,9,4,-2,1,2,44,2,4
1526902567056847,-16,-5,0,4,3,-5,5,-3
1526902567056847,16,8,0,-3,2,22,9,2
1526902567058843,-21,-8,1,1,-9,-47,2,-1
1526902567058843,31,2,2,-3,2,36,-5,5
1526902567079786,21,-1,-3,-3,-1,5,-1,-1
1526902567079786,-9,-4,1,2,-5,-28,-5,-10
1526902567080784,-23,-1,1,0,7,39,-2,2
1526902567080784,-9,1,-1,1,-6,-30,5,1
1526902567092752,16,2,0,2,4,5,-7,4
1526902567092752,1,-4,-5,-3,-3,2,0,0
1526902567101728,2,0,2,0,3,12,-7,-3
1526902567101728,-14,-1,-1,0,-6,-20,25,-1
1526902567116688,4,2,0,-2,-2,4,-6,3
1526902567116688,-5,0,-4,-2,-1,9,7,-4
1526902567118683,7,2,-3,-1,-2,-13,-7,4
1526902567118683,-9,-3,1,-2,0,-1,-4,-1
1526902567139626,-6,-4,-2,2,7,37,9,0
1526902567139626,9,-3,-5,-5,-8,-39,4,3
1526902567140624,-1,-5,5,8,-4,-25,-7,2
1526902567140624,-20,-1,-4,-2,1,18,1,-10
1526902567152591,10,-1,-5,-3,-6,-18,3,13
1526902567152591,4,6,0,1,1,14,1,-2
1526902567161567,24,10,-3,-5,-2,-11,3,12
1526902567161567,3,-1,2,0,-4,2,7,-2
1526902567176527,-21,-2,5,1,3,49,6,-2
1526902567176527,-15,1,-2,-2,3,-24,-25,-7
1526902567182512,-3,-4,2,-1,1,9,13,0
1526902567182512,-3,3,3,3,-1,-17,-9,-5
1526902567199466,-22,-3,-1,-2,0,-10,5,-3
1526902567199466,2,-6,2,2,-1,7,0,2
1526902567200464,1,2,-7,-6,-2,-9,-1,-1
1526902567200464,14,1,-6,-5,-1,-6,4,7
1526902567212431,8,2,3,3,0,10,-24,-9
1526902567212431,-13,-8,-3,-3,-2,-11,4,2
1526902567222405,-12,-8,-1,-1,6,41,-3,-4
1526902567222405,5,8,-1,2,2,9,7,1
1526902567236367,2,-2,0,-1,-9,-60,-14,0
1526902567236367,27,8,1,-1,7,9,-4,2
1526902567243349,7,2,0,-2,2,37,12,0
1526902567243349,-8,-6,-3,0,-2,-19,-10,-9
1526902567259306,-6,7,-1,-2,0,-4,-2,-2
1526902567259306,-9,-9,-5,-1,-4,10,6,-4
1526902567261301,6,1,0,-2,-3,-18,6,1
1526902567261301,1,1,0,-2,1,7,-4,-8
1526902567282245,10,-3,-5,-5,1,-1,0,4
1526902567282245,1,1,4,4,-8,-38,5,-1
1526902567283243,-11,-3,-4,-1,3,86,1,2
1526902567283243,3,-2,-2,-1,-8,-59,-5,8
1526902567296208,2,1,1,-1,2,15,7,3
1526902567296208,-14,-6,-1,0,4,14,-11,-13
1526902567303189,10,7,-1,-2,-11,-35,12,-4
1526902567303189,-13,-7,5,2,4,-4,-40,1
1526902567319146,17,-2,-3,-2,0,-2,11,-2
1526902567319146,-18,-4,-3,-3,-3,-2,6,4
1526902567321141,-7,-1,4,1,-1,-18,6,-1
1526902567321141,4,0,-1,1,5,51,-12,-2
1526902567342085,12,0,-6,-8,-13,-75,5,2
1526902567342085,-10,6,9,5,3,10,0,-6
1526902567343082,31,4,-3,-1,-3,-4,-4,-6
1526902567343082,-39,-7,-2,-2,2,23,3,-2
1526902567356047,17,-5,-3,-2,1,14,1,-4
1526902567356047,3,-3,-5,-5,0,22,2,7
1526902567363029,25,5,7,2,0,-31,-11,8
1526902567363029,-26,-15,-5,2,4,10,11,-17
1526902567378986,-40,5,2,4,4,38,7,-3
1526902567378986,29,-4,-2,-1,-1,-2,-11,3
1526902567380981,-14,-5,-4,1,6,-8,-16,-3
1526902567380981,9,6,-2,-5,-7,-3,16,1
1526902567401925,38,7,-3,0,-5,-20,-20,-5
1526902567401925,4,-6,1,0,-1,4,7,-1
1526902567402922,-6,1,-2,0,-2,0,1,2
1526902567402922,13,11,4,-2,-3,1,2,4
1526902567415887,-17,-4,2,2,2,21,20,-2
1526902567415887,34,-5,-11,-8,-3,-19,-24,-5
1526902567422868,-10,-7,0,2,2,2,15,-3
1526902567422868,-4,2,-2,-2,-2,-4,-3,-3
1526902567438826,-6,0,0,-1,-3,2,4,4
1526902567438826,-9,-2,-5,-4,-1,24,15,4
1526902567440821,-12,-3,-1,2,-3,-57,-9,-8
1526902567440821,16,0,1,0,4,28,-3,3
1526902567461765,-35,-4,-1,0,5,28,-3,-3
1526902567461765,16,-1,-2,-1,-3,-3,7,2
1526902567463760,-19,-1,-3,-3,-3,2,-5,-1
1526902567463760,11,3,-1,-1,4,8,12,2
1526902567475727,-25,-13,-7,-6,-8,-62,-40,-12
1526902567475727,-6,6,5,4,1,8,9,2
1526902567482709,46,6,2,-2,-2,1,-3,6
1526902567482709,15,3,3,4,1,1,3,4
1526902567499664,-8,-6,-1,0,2,16,-2,-7
1526902567499664,-26,3,4,2,-2,-20,-5,-1
1526902567500661,-9,-1,3,0,2,16,9,5
1526902567500661,11,-9,-8,-7,-4,-10,-8,-6
1526902567521605,5,2,2,1,-1,3,5,-2
1526902567521605,13,0,1,1,-3,-5,-2,-1
1526902567523600,-33,-14,-5,-3,-2,15,-6,-7
1526902567523600,25,1,-2,-1,-1,25,7,6
1526902567535567,4,5,6,4,-1,-28,-1,0
1526902567535567,-19,0,-6,-4,-4,-5,0,4
1526902567544544,-6,-3,-3,-3,1,4,-4,-2
1526902567544544,-11,-5,-2,0,-3,-6,-6,-4
1526902567559503,21,6,0,1,1,18,1,5
1526902567559503,-32,-9,2,0,9,26,5,-2
1526902567560501,8,8,-2,-4,-9,-25,-20,-1
1526902567560501,-24,-5,1,2,-2,-7,2,-5
1526902567581445,8,-4,-1,-2,-1,2,4,3
1526902567581445,-1,4,-3,-2,1,-8,-13,-1
1526902567583439,-11,2,2,3,1,-6,9,-8
1526902567583439,15,3,-3,1,0,3,-1,-6
1526902567595407,-25,2,0,-4,2,13,-2,0
1526902567595407,17,7,6,6,-5,-8,14,3
1526902567604383,0,-17,-6,-2,2,12,-2,2
1526902567604383,-10,0,-7,-5,-1,5,-1,1
1526902567619343,-3,6,2,-1,-2,8,4,1
1526902567619343,4,1,0,-4,-10,-24,6,0
1526902567621338,12,7,-1,-2,-1,14,0,1
1526902567621338,-1,-6,0,-1,-5,-58,-6,0
1526902567642282,6,-6,-8,-5,9,53,-1,-3
1526902567642282,-17,-9,-2,-1,-1,4,-2,-8
1526902567643280,-3,1,-2,1,-3,-21,-10,-3
1526902567643280,-36,1,0,-1,2,16,-1,-5
1526902567655247,60,-7,-1,2,-2,-5,-1,-1
1526902567655247,-8,0,-1,0,1,-7,-3,0
1526902567664223,-12,-6,-6,-4,0,17,-6,-8
1526902567664223,-11,-4,-6,-5,-3,-5,-3,-1
1526902567679183,26,8,7,7,0,-10,-4,4
1526902567679183,-21,-3,-1,0,-2,-1,-5,-2
1526902567681178,0,2,0,0,2,7,6,2
1526902567681178,7,4,3,0,2,16,-1,0
1526902567702122,-16,-6,-7,-1,-10,-42,0,-3
1526902567702122,31,23,-1,-2,-3,8,-2,6
1526902567703120,3,-17,1,-2,1,-22,-5,-4
1526902567703120,-8,-6,0,1,0,40,17,5
1526902567716085,11,2,-1,1,2,-12,-22,0
1526902567716085,-6,-6,-6,-1,0,-8,-13,-7
1526902567723066,1,3,-1,-3,-11,-31,0,-1
1526902567723066,3,-6,-2,-1,0,-5,2,2
1526902567739023,-33,-5,-4,-3,-2,14,0,-5
1526902567739023,15,2,-1,-2,-5,-19,0,5
1526902567741018,-3,-1,-2,-1,1,-17,8,1
1526902567741018,14,-3,0,1,-3,-70,-18,-6
1526902567761962,-15,0,0,2,7,38,20,3
1526902567761962,19,5,-2,-4,-7,-30,-12,-6
1526902567762960,-25,-10,-1,1,2,26,16,3
1526902567762960,10,8,-1,-3,-3,1,-3,0
1526902567775925,-22,-6,1,3,1,-16,1,-5
1526902567775925,15,-8,-2,-1,4,15,5,2
1526902567784901,2,1,-1,-2,-1,13,4,2
1526902567784901,-12,-4,0,2,-1,-13,-13,-4
1526902567798863,15,0,-2,-3,-3,-9,-5,-3
1526902567798863,-35,-9,-1,-3,1,31,3,-6
1526902567800858,34,23,4,1,0,-7,0,4
1526902567800858,-2,-8,-1,2,4,21,7,-1
1526902567821802,-16,11,-1,-2,-3,20,13,8
1526902567821802,-8,-8,4,2,-1,-33,-13,-5
1526902567823797,-8,-5,-1,0,0,2,-9,-2
1526902567823797,6,3,1,-1,4,-14,-2,2
1526902567835765,12,0,-5,-5,-8,21,-4,2
1526902567835765,0,7,2,3,2,7,20,0
1526902567844741,-13,-4,-3,-1,-1,14,-9,-8
1526902567844741,11,-2,-1,-2,-1,1,2,-1
1526902567859701,-14,-8,-1,-3,-4,-27,-4,1
1526902567859701,-12,6,0,1,7,40,0,4
1526902567860698,17,-3,-1,0,0,31,15,-3
1526902567860698,-17,-2,-4,-4,-16,-90,-43,-6
1526902567881642,-2,-8,-7,-4,-3,5,16,5
1526902567881642,-30,-11,-5,-4,-3,7,2,-4
1526902567883637,-10,11,2,4,2,3,-7,-2
1526902567883637,9,6,4,1,2,24,12,4
1526902567895604,21,3,0,-4,-2,-12,-8,-1
1526902567895604,9,-2,-2,-3,-2,-8,4,9
1526902567904581,-9,-10,1,2,1,-8,-10,-9
1526902567904581,-31,-2,-2,-3,0,16,9,-3
1526902567919540,27,2,-2,1,-1,-9,-6,-2
1526902567919540,8,-3,-2,-2,-1,-3,7,-2
1526902567920538,-5,4,-2,-4,0,7,0,6
1526902567920538,15,0,3,2,2,10,4,-1
1526902567941482,-24,0,3,4,-1,-13,-7,-5
1526902567941482,-7,-4,-3,-2,5,19,-12,-6
1526902567943477,-3,0,-2,-1,-2,-11,3,1
1526902567943477,11,1,1,0,1,10,14,4
1526902567955444,-33,5,-2,-3,-1,-5,-7,-6
1526902567955444,-1,-18,-6,-2,-3,-11,2,5
1526902567964421,48,11,1,-1,-2,-9,4,5
1526902567964421,-41,0,4,5,6,10,-4,0
1526902567979380,-1,0,2,0,4,27,-10,-1
1526902567979380,12,5,-1,-3,-6,-56,-7,1
1526902567981375,1,-3,-1,-4,0,8,4,2
1526902567981375,21,-4,-5,-4,-6,22,7,2
1526902568001322,-8,7,7,4,3,-11,1,-6
1526902568001322,-17,-1,4,6,4,23,-5,-6
1526902568003317,29,-2,-8,-4,-6,-7,-2,-2
1526902568003317,5,3,-1,-2,-1,-7,3,1
1526902568015284,-17,-12,-5,-5,-2,-5,-4,3
1526902568015284,-5,3,-1,-1,-4,2,0,-5
1526902568024261,-8,0,2,3,2,-20,-4,-2
1526902568024261,12,4,-6,-3,-6,3,-1,-2
1526902568039220,27,-6,-2,-1,1,33,11,5
1526902568039220,-5,2,2,0,-5,-31,2,-3
1526902568041215,-27,-10,-1,-1,-2,-3,-21,-3
1526902568041215,15,3,0,0,-1,20,15,3
1526902568062159,-4,-1,1,2,2,-37,0,-2
1526902568062159,-10,1,0,0,3,18,0,-3
1526902568063157,27,3,-2,-2,-5,-5,4,5
1526902568063157,11,5,1,-2,-1,2,-7,2
1526902568075124,-4,-3,3,1,0,-2,-2,-1
1526902568075124,-3,2,1,0,1,-12,11,1
1526902568084100,-29,-10,-5,-2,0,15,-2,-2
1526902568084100,12,7,3,4,2,-2,-1,-4
1526902568099060,21,2,-1,-1,-1,-2,4,6
1526902568099060,-19,-1,-3,-3,-2,-1,-9,-6
1526902568105044,-18,-7,0,0,-1,0,3,0
1526902568105044,26,-2,-5,-2,-3,-4,-2,5
1526902568121999,-16,-9,2,-2,-3,-11,-11,-2
1526902568121999,-6,-2,0,-1,-1,14,7,-3
1526902568122997,3,2,-1,1,-3,-16,5,0
1526902568122997,-28,-8,-7,-5,0,-3,-14,-6
1526902568134964,-3,-4,-4,-4,-3,32,20,-2
1526902568134964,32,1,0,-1,-3,-40,-16,1
1526902568144938,-20,-4,2,1,3,20,9,-1
1526902568144938,16,-1,1,-2,-6,-30,3,2
1526902568158900,5,1,-3,-3,1,-7,-14,-8
1526902568158900,-2,-7,1,3,0,27,5,-1
1526902568165882,-17,-2,-2,0,0,-14,-6,-9
1526902568165882,-12,1,-1,1,3,14,-1,0
1526902568181839,18,1,-1,-4,-3,-6,2,11
1526902568181839,-1,14,9,7,4,11,3,2
1526902568183834,13,-1,-2,-1,-2,-6,-7,-6
1526902568183834,-20,-7,-5,-3,-2,7,5,3
1526902568204777,-14,3,-1,2,-2,-6,-10,1
1526902568204777,50,13,2,-4,-6,-10,11,7
1526902568205775,-34,-14,-3,-1,4,13,0,-2
1526902568205775,3,1,0,1,0,10,2,1
1526902568218740,-17,-9,-1,0,0,-3,3,-9
1526902568218740,14,4,-1,-1,1,20,12,0
1526902568225722,-4,-2,-4,-2,-10,-50,-14,-2
1526902568225722,3,-4,0,-4,3,14,-7,0
1526902568241679,6,0,-3,-2,3,7,-3,0
1526902568241679,-10,-13,-6,-3,0,-3,7,3
1526902568243674,4,5,4,0,-5,2,6,0
1526902568243674,-2,4,-2,-2,-2,-13,-5,1
1526902568264618,-4,-2,1,2,-1,7,-1,-3
1526902568264618,10,2,-2,-3,-2,24,-5,3
1526902568265615,-30,-2,4,2,1,-32,-5,-3
1526902568265615,26,2,1,3,0,-7,-4,-6
1526902568278580,-15,1,-9,-3,-1,7,5,3
1526902568278580,-8,-5,-3,-3,-2,-8,-14,-1
1526902568285561,42,5,0,-2,3,17,3,8
1526902568285561,-7,-5,-1,-1,-2,6,2,-3
1526902568301519,-30,-9,-1,0,-2,-10,9,1
1526902568301519,8,11,0,2,1,-11,-21,-5
1526902568303514,-48,-17,-3,-1,-1,14,4,0
1526902568303514,71,4,-2,-4,-1,-5,3,6
1526902568324458,-17,-1,4,3,5,-5,-12,-6
1526902568324458,3,0,-5,-7,-10,28,19,5
1526902568325455,16,12,5,3,5,16,2,-2
1526902568325455,-26,-8,-4,-1,-5,-16,-6,-3
1526902568338420,22,2,-2,-4,1,11,0,1
1526902568338420,6,-6,3,3,2,-14,-22,-5
1526902568345402,16,24,3,-1,0,-2,-5,3
1526902568345402,13,-25,-7,-2,-1,9,13,-3
1526902568361359,19,9,2,0,-3,-6,6,3
1526902568361359,-35,-7,-5,-2,1,-5,-4,-8
1526902568363354,0,-7,-5,-4,-4,2,-2,-8
1526902568363354,-24,10,4,1,1,-9,-7,-3
1526902568384297,-12,0,-3,-2,-1,1,-2,-4
1526902568384297,28,4,2,-1,-2,-6,3,7
1526902568386293,18,-2,2,4,2,30,12,4
1526902568386293,-41,-4,1,1,-1,-32,-17,-8
1526902568398260,-2,-6,-5,-3,-3,-9,0,-2
1526902568398260,-20,0,-4,-3,-3,0,3,7
1526902568405241,20,-2,-4,-3,-1,2,-3,3
1526902568405241,-25,2,-3,-5,-3,12,6,0
1526902568422196,31,14,4,3,-2,-9,2,3
1526902568422196,29,-8,0,3,3,13,-13,-2
1526902568423194,-18,-13,-4,-5,-6,-30,9,-7
1526902568423194,-5,6,-1,-2,-1,7,0,-2
1526902568444138,-9,-2,1,1,-2,-9,-7,-3
1526902568444138,9,4,0,3,1,2,12,0
1526902568446132,-25,-5,-2,1,-3,-9,-19,-5
1526902568446132,16,9,4,3,2,7,3,4
1526902568458100,37,3,-2,-4,-2,-5,-4,0
1526902568458100,-27,-20,-5,-3,-4,-5,0,-7
1526902568467077,-11,1,-1,-1,0,3,4,-3
1526902568467077,-4,-7,-8,-3,0,-9,-4,2
1526902568482036,1,2,10,5,4,18,10,1
1526902568482036,8,6,1,-1,3,9,5,-1
1526902568483034,-5,-3,-7,-3,-7,-30,-2,-11
1526902568483034,8,10,4,2,1,7,-1,6
1526902568503977,2,-8,-6,-4,-2,-8,1,2
1526902568503977,-12,-6,-4,-2,-1,2,3,0
1526902568505973,-11,0,4,5,8,44,8,2
1526902568505973,47,11,-2,-4,-3,-53,-26,-3
1526902568517940,-35,-9,-1,-2,0,3,2,-5
1526902568517940,-2,-2,0,-2,-1,-10,-6,-2
1526902568526916,2,0,-1,1,-1,5,14,-6
1526902568526916,-18,-6,0,0,3,18,4,-3
1526902568541876,32,7,-3,-5,-2,-4,-8,-4
1526902568541876,-21,-5,-4,-5,-5,-9,-8,-6
1526902568543871,22,9,-1,-1,0,4,7,5
1526902568543871,-19,-9,6,3,2,11,9,-2
1526902568563818,-6,0,-1,-1,-1,-14,-4,-1
1526902568563818,-3,4,3,3,1,10,9,8
1526902568565812,36,-2,-5,-7,-2,-6,-15,-3
1526902568565812,-19,-4,0,-1,-3,13,9,-1
1526902568577780,-14,6,0,2,0,-7,-11,1
1526902568577780,-5,-8,-1,2,5,-2,-7,-9
1526902568586756,-21,-2,1,-1,-1,5,5,1
1526902568586756,1,2,-5,-4,-3,-18,-9,-2
1526902568601716,-10,0,4,2,2,23,-1,-9
1526902568601716,-9,1,-5,-4,-5,-16,3,5
1526902568603711,-15,10,9,6,2,-17,-8,2
1526902568603711,7,-2,4,3,2,15,18,5
1526902568624655,28,-11,-8,-4,-4,-4,-9,-1
1526902568624655,-33,-7,-2,-1,0,-17,-2,-10
1526902568625652,18,-6,-5,-5,-3,31,-11,5
1526902568625652,-10,4,0,-3,-8,-17,-8,-7
1526902568637620,-5,2,5,3,2,-7,1,0
1526902568637620,5,-5,0,2,0,13,2,1
1526902568646596,9,9,1,0,-1,-12,-6,-7
1526902568646596,-20,-3,0,-2,-1,8,-1,2
1526902568661556,-22,-8,-5,-2,-4,-5,2,0
1526902568661556,43,6,-1,-2,-3,-1,-1,9
1526902568663551,-1,5,0,2,2,-1,-3,-2
1526902568663551,-5,-11,-5,-1,1,-3,-3,0
1526902568684494,21,6,-2,-1,0,2,7,6
1526902568684494,-15,-6,-1,-2,0,0,-9,-11
1526902568685492,-1,-3,-1,-1,0,-12,0,2
1526902568685492,-22,3,3,1,2,11,-3,1
1526902568697460,43,-8,-8,-8,-5,-4,11,9
1526902568697460,-18,6,1,2,1,-10,-9,-1
1526902568706436,11,-14,-11,-4,-3,-3,-4,2
1526902568706436,-17,0,2,-1,-2,-3,-2,-5
1526902568721396,-6,1,6,4,1,2,5,3
1526902568721396,0,6,3,0,1,32,-5,-6
1526902568723391,-36,-6,-5,-3,-1,-13,6,-1
1526902568723391,24,2,-6,-2,0,18,0,3
1526902568744335,-24,-5,0,1,0,-16,-15,-15
1526902568744335,9,3,-2,-3,-7,1,12,7
1526902568746330,-31,-12,-2,-5,2,12,-7,-2
1526902568746330,38,10,4,3,0,-5,1,4
1526902568758297,-17,3,1,1,0,8,-3,-13
1526902568758297,11,-7,-4,-3,-4,-17,-3,-4
1526902568767274,7,6,3,1,-1,4,7,6
1526902568767274,-23,-8,-6,-3,-1,8,1,-2
1526902568782234,-12,-7,-2,1,2,-14,-6,2
1526902568782234,5,6,5,4,4,9,7,2
1526902568783231,-11,-2,2,4,3,-16,-8,3
1526902568783231,10,-1,-2,-3,-11,0,1,-4
1526902568804174,-7,-4,-3,-1,-2,7,-5,5
1526902568804174,17,7,-3,-2,0,20,3,-4
1526902568806170,14,1,4,-2,-5,-29,6,5
1526902568806170,1,-2,2,1,1,-17,-11,0
1526902568818137,-9,-1,-4,-2,2,43,11,-3
1526902568818137,6,-4,1,3,1,-30,-12,0
1526902568827113,-31,-4,-2,-1,0,8,-4,-12
1526902568827113,7,-2,-6,-2,2,24,5,2
1526902568842073,-16,-1,2,-4,-5,-40,-2,3
1526902568842073,4,-1,0,1,3,9,-2,0
1526902568843071,9,5,3,4,1,10,1,2
1526902568843071,-11,-6,-3,-3,-6,-40,-14,1
1526902568864015,10,0,-6,-1,-3,-2,13,0
1526902568864015,-5,4,-3,-2,-3,10,-5,1
1526902568866010,-2,-6,-5,-1,-3,-26,3,0
1526902568866010,6,-8,1,0,5,29,12,-3
1526902568877977,15,10,3,-2,-8,-34,-25,1
1526902568877977,-6,0,-1,0,-1,-3,6,-1
1526902568886954,13,0,0,-3,0,9,-9,0
1526902568886954,-11,-2,-3,0,5,15,4,-10
1526902568901913,-4,-2,2,1,4,-17,2,11
1526902568901913,-6,-8,-3,-3,-7,-30,3,-20
1526902568903908,6,-3,-7,-6,-6,17,-14,-3
1526902568903908,-14,0,1,2,-5,-41,9,-2
1526902568923854,7,4,-4,-2,-1,25,-9,0
1526902568923854,16,-6,-2,-3,-4,-13,8,8
1526902568925849,1,-2,-2,-4,5,28,-5,-2
1526902568925849,-3,5,0,1,7,22,19,2
1526902568937817,-31,-5,2,-2,-7,-6,-7,-7
1526902568937817,5,10,4,4,4,16,12,11
1526902568946794,14,9,5,4,-1,-17,16,1
1526902568946794,-8,-11,-6,-5,3,32,-55,-14
1526902568961753,8,1,0,0,-1,9,53,10
1526902568961753,2,2,1,-2,-4,-44,-17,2
1526902568963748,31,8,-2,-3,0,31,2,-3
1526902568963748,-16,-5,-1,3,4,-4,14,-4
1526902568984692,3,-1,0,2,0,5,-11,-1
1526902568984692,-14,-8,-3,-5,4,6,1,0
1526902568985690,2,6,2,1,-8,-38,-2,2
1526902568985690,-4,1,2,1,0,-2,-2,-1
1526902568997657,29,-5,-2,0,1,-6,-13,-7
1526902568997657,-6,3,-3,-2,0,10,3,-2
1526902569006633,-24,-4,-4,1,1,1,-5,5
1526902569006633,-3,-1,4,-1,-6,-18,-1,1
1526902569021593,-15,-4,-6,-5,0,12,3,-1
1526902569021593,-1,2,5,5,0,0,-6,-4
1526902569023588,14,-13,-5,-2,1,6,3,4
1526902569023588,1,7,2,0,-4,-3,-2,-1
1526902569044532,-2,-4,-1,-2,2,10,4,-4
1526902569044532,-26,-9,-3,-1,0,-5,-17,-5
1526902569045529,18,6,4,0,-1,-21,-2,-1
1526902569045529,34,-1,-3,-4,0,13,8,9
1526902569066473,-17,5,0,2,-1,-5,-12,-1
1526902569066473,-20,-8,0,2,1,14,-3,-8
1526902569068468,3,7,3,3,4,30,22,1
1526902569068468,0,-4,-4,-5,-8,-34,0,3
1526902569081433,8,4,1,-1,1,13,-11,0
1526902569081433,12,6,1,2,-2,-20,4,3
1526902569088414,-12,-12,-3,-1,0,25,3,-3
1526902569088414,-22,4,1,2,-2,-33,-36,-8
1526902569104372,20,-4,-2,-3,-5,30,14,0
1526902569104372,9,-4,-3,-5,-3,-20,-15,8
1526902569106367,15,6,-2,-1,1,1,-8,-5
1526902569106367,-11,-1,1,-1,-1,5,11,-1
1526902569118334,-17,7,1,0,1,-19,-8,-8
1526902569118334,-21,-20,-6,-2,0,-6,3,3
1526902569127311,14,4,-4,-7,-9,10,-8,-3
1526902569127311,-3,-3,-7,-3,1,-12,-3,2
1526902569141273,-19,-6,-3,0,3,0,12,1
1526902569141273,21,12,5,2,0,33,7,-2
1526902569148254,-2,-1,1,1,0,-27,-4,2
1526902569148254,-7,-5,-2,-2,-2,-1,6,-3
1526902569164212,-10,-3,-3,-1,1,-7,-9,-2
1526902569164212,-4,2,-2,-2,-1,7,6,6
1526902569166207,-14,-12,-2,-2,-3,-7,-1,-12
1526902569166207,18,3,1,-1,1,11,-24,-8
1526902569187150,0,4,3,1,-4,-7,22,5
1526902569187150,-11,-4,-2,0,5,6,-17,-13
1526902569188148,1,1,-1,0,-1,-6,3,5
1526902569188148,8,-1,-3,-2,4,11,9,4
1526902569201113,7,-3,-1,-4,-4,-1,-9,-5
1526902569201113,3,3,2,2,1,15,-4,-5
1526902569208094,-16,-4,-9,-3,-4,-50,-25,0
1526902569208094,4,3,5,2,-2,21,19,6
1526902569224052,0,-3,-4,0,4,9,-12,2
1526902569224052,10,-5,-3,-4,-8,-13,16,-5
1526902569226047,-25,-2,3,3,6,30,11,3
1526902569226047,-3,8,1,-2,-2,1,2,1
1526902569246990,4,-5,1,2,0,-17,-21,0
1526902569246990,6,2,0,1,-2,6,23,3
1526902569247988,3,4,-1,-2,1,-5,-6,-2
1526902569247988,2,-7,-4,-2,-3,-6,4,2
1526902569260953,-5,-4,0,2,1,1,2,-1
1526902569260953,6,2,-3,-4,-1,1,-6,2
1526902569267935,10,1,2,-1,-1,7,7,10
1526902569267935,-11,-4,-2,0,-3,2,-3,1
1526902569283892,3,2,-2,-2,8,-17,2,-5
1526902569283892,-29,4,-3,-1,9,69,7,-2
1526902569285887,-4,-10,0,-2,-12,-48,-27,3
1526902569285887,9,3,-1,-1,-6,-40,-6,1
1526902569306830,9,-3,0,0,-3,8,5,-3
1526902569306830,-5,-1,-2,-4,-2,-7,-3,0
1526902569308825,10,3,5,3,6,47,15,0
1526902569308825,-32,-4,-4,1,5,-20,-7,-6
1526902569320793,5,0,4,-1,-5,-12,-17,-4
1526902569320793,12,-2,-1,-1,-4,-14,-5,1
1526902569327774,-13,-1,0,-1,0,12,11,-2
1526902569327774,-3,-9,-1,-2,0,3,5,-2
1526902569344729,8,7,0,2,0,13,8,14
1526902569344729,16,8,-1,-2,-6,-25,-15,1
1526902569345727,-10,-6,-2,-3,-1,-3,2,-8
1526902569345727,4,-5,-2,-3,-1,14,6,1
1526902569366670,-6,0,-2,1,0,4,6,-8
1526902569366670,-14,-6,0,-1,-4,-16,-9,5
1526902569368665,7,10,1,2,2,-7,-7,-8
1526902569368665,2,-4,-2,-2,-2,-5,0,-1
1526902569380633,-2,-2,-1,-3,0,55,12,-3
1526902569380633,4,-1,1,1,2,-54,-37,16
1526902569387614,-13,-3,-1,-2,-1,5,7,-24
1526902569387614,6,0,1,0,-3,22,-1,-5
1526902569404569,-3,2,0,1,-3,-2,18,-1
1526902569404569,-6,-1,-1,-2,0,18,4,3
1526902569405567,2,-3,-2,0,1,-1,19,9
1526902569405567,10,7,2,2,1,-10,-35,-4
1526902569426510,5,-6,-5,-3,-2,-6,-4,-1
1526902569426510,12,-1,4,5,2,-6,11,-4
1526902569428505,16,5,1,-2,-2,-15,-13,-9
1526902569428505,-10,-8,-3,1,-1,13,16,-3
1526902569440473,-8,2,-1,-1,-1,-21,-11,-6
1526902569440473,-28,-11,-3,-2,-1,-1,6,-11
1526902569449449,40,1,-7,-7,-4,6,-2,12
1526902569449449,2,4,3,3,3,5,7,1
1526902569464409,-12,-8,-1,-3,0,-19,-6,7
1526902569464409,11,4,-1,-3,-6,14,2,-11
1526902569466404,-6,0,-2,-2,2,13,19,36
1526902569466404,-24,-4,-5,-9,-2,1,6,-13
1526902569486350,3,1,-2,-5,-10,-28,-9,15
1526902569486350,6,3,6,34,8,-30,9,-3
1526902569488345,-32,-2,-2,2,-1,19,21,-5
1526902569488345,35,-2,0,4,8,-7,-9,11
1526902569500313,27,11,6,1,0,6,9,-7
1526902569500313,0,-13,-8,-16,-4,19,0,6
1526902569509289,-14,7,0,-1,0,-11,-13,-4
1526902569509289,-3,-6,-3,-4,-2,3,3,-10
1526902569524249,26,0,-6,-9,-3,3,-9,1
1526902569524249,-2,2,1,-3,-2,-5,-8,-4
1526902569526244,36,8,-1,-2,2,2,-7,-14
1526902569526244,-39,-23,-2,-5,-3,-1,-3,-4
1526902569547187,-2,1,3,5,5,4,-4,4
1526902569547187,-2,0,-1,-3,-2,3,1,-6
1526902569548185,0,0,-1,1,0,-8,-7,-12
1526902569548185,-4,13,0,0,-2,-2,4,10
1526902569560153,-13,-13,-3,2,-2,7,1,-4
1526902569560153,-1,-3,-4,-6,1,31,13,-8
1526902569569129,1,3,1,-5,-5,-61,-20,1
1526902569569129,13,4,1,3,1,8,-2,0
1526902569584089,-28,-7,-4,1,2,-2,5,-4
1526902569584089,14,5,-4,-11,-2,12,8,-3
1526902569586084,-19,-10,0,2,1,12,-9,1
1526902569586084,6,6,3,3,-3,-5,-1,-3
1526902569607028,3,4,2,3,3,23,8,-3
1526902569607028,-7,1,-2,-2,-8,-39,-6,7
1526902569608025,-12,-3,1,1,-1,3,3,-5
1526902569608025,27,4,-5,-3,4,-11,-10,9
1526902569619993,-5,6,-1,-2,-3,9,-1,-1
1526902569619993,-2,-5,-4,-2,0,-10,-8,-3
1526902569628969,-39,-6,0,0,2,14,1,-1
1526902569628969,26,-8,-4,-3,-5,8,11,-4
1526902569643929,6,4,2,3,1,-10,-5,-1
1526902569643929,5,6,3,-2,-3,-4,-1,-3
1526902569645924,-1,-7,-2,-1,0,1,10,-1
1526902569645924,-27,0,-3,-2,-3,6,7,-1
1526902569666868,17,3,1,1,-1,-21,-20,-3
1526902569666868,-19,-15,-1,1,0,0,-5,-1
1526902569668862,15,0,-4,-5,0,3,5,6
1526902569668862,-15,7,0,1,-1,-3,1,-1
1526902569680830,-6,-10,-3,-1,-2,-2,3,0
1526902569680830,3,4,-2,-6,-1,7,-15,0
1526902569689806,-2,0,3,5,2,0,4,-3
1526902569689806,16,1,0,1,-1,11,10,0
1526902569704766,-16,0,1,-2,-2,-23,-15,-4
1526902569704766,2,2,-2,-3,1,35,17,2
1526902569705764,-1,-8,-5,3,3,-22,-14,-2
1526902569705764,10,4,4,6,-3,-4,-2,2
1526902569726707,-5,-6,-3,0,-1,3,2,-13
1526902569726707,-9,4,1,1,-1,-1,2,3
1526902569728702,39,3,2,-2,-4,2,-7,3
1526902569728702,-7,-3,0,0,0,-1,2,-6
1526902569740670,-12,1,-1,-2,0,3,-5,7
1526902569740670,-2,-8,-6,-5,-5,-12,-4,-7
1526902569749646,-17,-2,-1,1,-1,14,0,-7
1526902569749646,11,-1,1,0,0,-15,-5,4
1526902569764606,-9,-6,-2,-3,0,15,7,3
1526902569764606,0,1,-1,-4,-1,-16,-9,-8
1526902569765604,-4,5,-2,-5,-3,0,0,-2
1526902569765604,-12,2,-2,3,-2,-19,-2,1
1526902569786547,-15,-10,-2,-3,-3,9,10,-5
1526902569786547,16,4,1,-18,-1,22,1,5
1526902569788542,-9,-3,-3,18,3,-30,-10,-3
1526902569788542,11,3,0,-6,-6,7,7,-2
1526902569800510,-4,-3,-3,4,7,4,6,-5
1526902569800510,-17,-3,0,7,-1,4,6,6
1526902569809488,38,4,-1,-14,-4,7,-11,-3
1526902569809488,-7,-4,-5,-2,1,0,-8,-1
1526902569824446,4,7,7,8,1,-5,6,-8
1526902569824446,1,10,4,1,0,8,2,-6
1526902569826441,-30,-19,-4,-2,-2,1,0,8
1526902569826441,5,-1,-4,-4,-3,-4,-4,-5
1526902569846387,-8,-3,-4,-7,-5,-4,-4,2
1526902569846387,0,3,1,7,2,-9,2,3
1526902569848382,-8,3,4,3,0,2,6,-3
1526902569848382,11,0,-2,-3,0,2,-1,0
1526902569860350,5,-2,-2,-5,0,-1,-14,0
1526902569860350,2,0,-2,3,-1,-14,30,5
1526902569869326,-30,-6,-6,-4,-4,3,-23,-11
1526902569869326,5,-4,4,-1,3,30,16,7
1526902569884286,11,1,-2,-4,-4,-32,-23,2
1526902569884286,4,-2,2,5,3,24,-9,-3
1526902569886281,15,1,-4,-17,-8,-28,-7,-1
1526902569886281,-14,-4,-3,11,1,-7,22,0
1526902569907225,-1,4,1,3,-1,-10,14,-7
1526902569907225,11,-4,1,2,1,-4,-10,2
1526902569908222,10,4,-1,3,0,4,-1,0
1526902569908222,-26,-6,-1,-10,-3,5,-11,-4
1526902569920190,32,6,-1,3,-4,3,14,8
1526902569920190,-15,-7,-1,1,-1,-23,-12,-7
1526902569929166,14,6,1,2,2,25,16,2
1526902569929166,-39,-9,-1,-1,1,-8,-5,-9
1526902569944126,43,7,5,0,0,-4,-12,2
1526902569944126,-53,-19,-7,-6,-5,1,-8,2
1526902569946121,-1,6,1,3,-1,4,11,-2
1526902569946121,28,6,0,-1,-3,-5,-6,4
1526902569967065,-13,-7,-2,-3,-1,2,-5,-6
1526902569967065,17,-1,-2,0,0,-4,3,1
1526902569968062,9,-5,3,2,3,3,0,-2
1526902569968062,-20,-4,1,3,0,-12,-15,-4
1526902569980030,8,6,-4,-8,-5,11,16,4
1526902569980030,-6,-1,0,2,5,18,-6,-7
1526902569989006,-16,-4,-2,-3,-1,-29,-16,-3
1526902569989006,13,2,1,2,0,4,4,0
1526902570003966,17,0,0,-1,1,21,-1,1
1526902570003966,-17,7,3,3,-7,-36,-9,0
1526902570005961,7,-14,-4,-6,-2,7,-6,-2
1526902570005961,-9,5,-3,2,1,5,-3,1
1526902570026905,-10,-8,-2,-3,1,4,-11,-2
1526902570026905,18,6,1,-1,0,7,5,2
1526902570028900,4,3,1,1,-1,-4,7,1
1526902570028900,11,0,1,-2,-3,-7,-9,-1
1526902570040867,-13,-4,0,2,2,5,4,0
1526902570040867,7,-5,-5,-3,0,-3,-7,-8
1526902570049843,-21,-5,-2,-5,0,1,1,3
1526902570049843,2,3,1,1,-1,5,2,0
1526902570063806,29,11,0,0,0,21,17,7
1526902570063806,-48,-13,0,1,-5,-59,-34,-10
1526902570070787,18,9,-2,-2,0,17,5,3
1526902570070787,0,-3,-4,-3,0,7,16,-14
1526902570086744,-33,-8,-3,0,-2,-14,-9,1
1526902570086744,19,8,-2,-2,-3,7,5,-1
1526902570088739,3,-4,2,2,1,17,3,-3
1526902570088739,-30,-7,-3,0,1,-8,-18,3
1526902570109683,-11,0,-3,3,-1,34,31,1
1526902570109683,10,-5,1,0,0,-34,-20,-4
1526902570110681,-3,3,-1,0,-4,2,-17,0
1526902570110681,27,3,1,-4,0,4,-15,3
1526902570123646,-13,-1,-3,-3,-6,-37,-4,-4
1526902570123646,-6,-8,-3,-1,1,23,15,6
1526902570130627,-47,15,5,0,0,2,7,3
1526902570130627,54,-21,-8,-4,-1,-1,-7,0
1526902570146584,-7,-1,2,3,0,-3,0,-3
1526902570146584,0,4,3,0,0,15,10,5
1526902570148580,13,3,1,2,-2,-11,1,-3
1526902570148580,-19,1,-1,-1,-2,4,8,3
1526902570169523,-4,-7,-1,-2,-1,-4,-7,-1
1526902570169523,40,5,-3,-1,-2,-9,-7,1
1526902570170521,-7,-4,-2,0,1,13,6,5
1526902570170521,-8,4,1,-3,-4,-8,6,5
1526902570183486,1,-3,-3,-4,-1,-9,-10,-3
1526902570183486,-24,8,-2,1,0,18,13,-2
1526902570190467,39,-2,-2,-2,-5,11,6,5
1526902570190467,-24,-3,4,3,2,-30,-5,-4
1526902570206424,-28,1,1,1,-1,-8,-17,-13
1526902570206424,13,-5,-4,-3,0,17,22,10
1526902570208419,-5,-3,-7,2,2,-12,-13,-13
1526902570208419,-13,-6,1,-4,0,12,11,4
1526902570229363,4,1,-1,-2,0,10,11,-2
1526902570229363,-1,-4,1,0,1,-16,-27,-7
1526902570231358,13,0,0,0,-1,7,11,5
1526902570231358,-11,1,0,0,-2,-5,-4,-7
1526902570243326,3,5,-1,-2,0,7,0,3
1526902570243326,19,0,0,-1,-1,-1,6,8
1526902570250307,-8,-4,2,-1,-4,-10,10,2
1526902570250307,26,9,-4,1,-2,4,-5,1
1526902570267262,-40,-10,1,1,-2,-13,-11,-4
1526902570267262,14,2,-3,0,0,15,11,2
1526902570268260,-18,-7,-3,-4,-2,-3,-8,-10
1526902570268260,4,0,4,2,2,-5,3,-3
1526902570289203,8,1,-3,-1,-2,15,-3,2
1526902570289203,0,2,-2,-2,-1,-20,1,-4
1526902570291198,-11,3,1,2,1,0,12,-1
1526902570291198,7,5,-1,-3,-2,2,-3,-3
1526902570303166,-11,-11,-3,0,3,-5,-3,1
1526902570303166,5,3,-4,-5,-4,13,0,-7
1526902570310147,-3,0,-1,-5,-1,-10,-5,2
1526902570310147,-16,7,5,4,0,4,-4,-7
1526902570327102,37,2,-1,-2,-22,-10,10,2
1526902570327102,-17,-7,-3,-4,22,3,2,0
1526902570328099,-1,-6,-3,-1,0,10,-6,-7
1526902570328099,-14,-4,-3,-1,1,-6,-10,2
1526902570349043,-3,-1,2,3,2,-6,14,0
1526902570349043,0,4,-2,-1,-8,16,-3,-1
1526902570351038,9,-2,1,-3,-2,-6,-6,-5
1526902570351038,-15,-5,0,1,2,-2,-3,-2
1526902570363006,24,3,3,1,2,28,11,4
1526902570363006,2,1,0,0,-8,-52,-28,-2
1526902570371982,-12,-7,-11,-2,4,1,3,2
1526902570371982,10,4,3,-3,-7,3,1,-3
1526902570386942,-10,-3,-5,-2,5,-3,-9,-3
1526902570386942,-1,-3,3,0,-2,13,12,-2
1526902570388936,-26,5,3,4,1,3,-7,1
1526902570388936,35,-5,-9,-7,-3,-3,-11,-4
1526902570408883,-6,4,-3,-6,0,-9,0,-1
1526902570408883,-5,-12,3,5,0,16,3,-2
1526902570410878,4,-2,0,0,-4,-12,-2,0
1526902570410878,-22,0,0,1,2,7,7,3
1526902570422846,32,-2,-3,-2,1,-9,-10,4
1526902570422846,-25,-7,-3,-2,-3,5,2,-9
1526902570431822,18,7,-3,-5,-3,-4,-7,2
1526902570431822,-17,-12,-2,-2,1,1,2,4
1526902570446782,-1,-3,0,-2,-2,-9,4,-6
1526902570446782,-17,1,1,-1,-2,0,-2,-4
1526902570448777,-1,-1,4,0,0,5,6,3
1526902570448777,28,1,-3,1,-2,-1,-3,0
1526902570469720,-45,1,-3,-2,-2,-8,-10,-3
1526902570469720,46,-11,-3,-2,-1,1,8,9
1526902570470718,-5,-3,0,1,3,15,-6,-1
1526902570470718,-15,2,-2,-1,0,-4,10,2
1526902570482686,-13,-8,-2,2,2,-1,-2,7
1526902570482686,18,14,0,-3,-8,-13,-3,-7
1526902570491662,-8,-9,-4,-2,7,30,5,-1
1526902570491662,32,-2,3,3,-1,-10,-4,1
1526902570506622,-1,5,4,-1,-1,4,5,5
1526902570506622,26,-1,0,-1,-1,-5,4,6
1526902570508616,21,6,-7,-3,-8,-8,1,9
1526902570508616,4,8,4,5,1,16,0,-8
1526902570529561,-44,-8,-2,-3,20,-14,-3,0
1526902570529561,-25,7,2,0,2,21,8,-12
1526902570530558,-11,-5,3,0,4,-23,-19,6
1526902570530558,38,8,-4,-5,-10,-2,-3,0
1526902570542526,11,-2,1,0,-7,-12,-10,-12
1526902570542526,-23,2,-3,-1,5,11,5,6
1526902570551501,-11,-9,1,1,-3,13,10,-2
1526902570551501,-8,10,1,-2,-2,-20,-9,9
1526902570566461,11,-2,3,4,0,18,-7,-10
1526902570566461,8,4,1,2,0,1,-5,-7
1526902570568457,-4,-1,0,-1,-5,-10,6,-3
1526902570568457,-4,0,1,-1,1,6,-2,-2
1526902570589400,-12,-3,-1,-1,-1,0,0,-6
1526902570589400,-25,-2,-2,-1,-3,-3,-3,7
1526902570591395,59,9,-2,-6,-4,-14,-5,2
1526902570591395,-27,-3,1,1,6,10,6,-6
1526902570603363,1,-1,-2,-3,-6,-7,-6,4
1526902570603363,1,3,-1,2,1,-1,5,2
1526902570612339,-25,-3,1,0,-2,-3,-5,-12
1526902570612339,-34,-13,-3,-3,-1,14,-6,2
1526902570627299,-3,-12,-1,4,-8,-32,7,-11
1526902570627299,57,7,-1,-2,4,20,-2,11
1526902570628297,-49,0,-1,0,5,6,4,-14
1526902570628297,18,1,-4,1,-27,-10,-2,1
1526902570649240,7,0,0,-1,29,-10,-28,1
1526902570649240,-13,-4,1,1,1,3,2,-7
1526902570651235,54,11,0,-1,-3,-13,1,9
1526902570651235,-40,-6,-2,0,4,5,2,-9
1526902570663203,19,-11,-5,-4,-13,1,5,7
1526902570663203,-22,-3,4,2,1,4,4,3
1526902570672179,3,5,-4,-1,0,-7,8,-3
1526902570672179,7,-6,-2,-1,4,3,-13,-8
1526902570687139,11,8,-3,-7,-12,6,4,8
1526902570687139,-20,2,2,4,3,-8,-13,-25
1526902570688136,20,-9,0,0,-8,5,6,4
1526902570688136,-28,0,0,-2,4,-2,4,0
1526902570709080,11,6,-5,-2,-3,-3,-5,-3
1526902570709080,-24,-15,-8,-6,-6,3,1,3
1526902570711075,1,2,2,2,2,2,-7,-3
1526902570711075,24,1,-1,2,5,-9,2,3
1526902570723043,-8,10,2,-1,-1,10,1,6
1526902570723043,8,3,-2,-4,-10,11,10,6
1526902570732019,-3,-7,1,3,8,-28,-34,-8
1526902570732019,19,-16,-4,-4,5,5,0,-1
1526902570746979,-18,7,0,0,-13,8,10,0
1526902570746979,9,0,-1,-2,1,-3,4,8
1526902570747977,-24,-4,-2,-4,-5,1,6,3
1526902570747977,8,-2,-1,-1,-1,-2,1,1
1526902570768920,-11,1,3,3,0,-7,-12,-13
1526902570768920,-4,-7,-4,-4,-2,-6,-2,1
1526902570770915,18,0,-4,-4,-3,4,6,12
1526902570770915,-46,-14,-3,0,-3,-12,-7,-16
1526902570782883,18,3,-5,-4,-1,2,5,5
1526902570782883,5,3,0,-2,-1,-8,-9,1
1526902570791859,-4,-4,4,3,5,3,8,-1
1526902570791859,7,3,-3,-3,-10,-2,3,12
1526902570806819,-18,0,4,0,4,0,-5,-9
1526902570806819,-12,-17,-6,-1,-4,-3,-7,-11
1526902570808814,-31,-2,3,3,3,18,4,-9
1526902570808814,45,12,-4,-3,-1,-24,-5,8
1526902570829758,-6,-8,1,0,-1,7,5,0
1526902570829758,47,9,2,2,-1,-6,0,14
1526902570830755,-22,0,4,3,0,9,1,-15
1526902570830755,-17,6,0,-2,-6,-27,-2,0
1526902570842723,-4,-9,-5,-2,11,34,14,0
1526902570842723,0,12,1,-2,-5,12,3,2
1526902570851699,-11,-6,-2,0,-1,1,1,-8
1526902570851699,-1,-1,0,-1,1,-10,-5,-3
1526902570866659,14,3,-4,-1,1,-9,4,1
1526902570866659,-21,-7,2,1,-1,-15,-15,0
1526902570868654,2,5,-5,-7,-4,3,0,-3
1526902570868654,-1,3,0,2,-1,3,1,-3
1526902570889597,5,-3,4,-2,-13,7,5,10
1526902570889597,-14,1,1,4,6,4,5,-9
1526902570890595,19,3,-5,-4,-6,-10,-13,6
1526902570890595,11,0,2,-1,4,9,14,3
1526902570902563,0,1,0,-1,-1,11,-12,1
1526902570902563,-14,-1,-7,-5,-3,-42,0,-17
1526902570911539,-14,-7,-4,0,-7,-7,-2,6
1526902570911539,-10,-6,3,1,4,14,4,-6
1526902570926499,7,-3,0,4,10,13,3,1
1526902570926499,10,8,0,-3,-2,-14,-5,7
1526902570928494,-21,-8,-3,-1,-2,34,5,-5
1526902570928494,-25,-6,-3,2,-2,-13,7,0
1526902570949437,13,3,-6,-2,0,-10,-3,0
1526902570949437,6,-4,1,0,-6,5,-13,-3
1526902570950435,0,4,0,-1,-4,-21,7,3
1526902570950435,19,-2,2,-1,2,17,4,0
1526902570963400,0,4,6,2,0,11,2,-3
1526902570963400,-8,-3,-2,1,0,-7,1,-2
1526902570972376,7,-2,-3,-1,-5,-32,1,0
1526902570972376,7,2,-1,1,4,3,-2,2
1526902570986339,-11,-4,-1,1,-3,25,14,-3
1526902570986339,5,1,2,2,3,-19,-20,-2
1526902570993320,7,0,-1,-5,7,1,-22,-10
1526902570993320,-5,-8,-1,-3,-3,8,-2,-3
1526902571009277,20,11,-3,-3,-5,-6,-5,9
1526902571009277,-8,0,-3,-2,-3,11,12,0
1526902571011272,-7,-2,3,4,1,-8,9,3
1526902571011272,-7,-4,-5,-4,-4,0,-10,-4
1526902571023240,4,6,4,1,6,38,6,-2
1526902571023240,-8,-13,-5,-1,-14,-27,1,3
1526902571032216,-12,5,0,0,10,8,-10,-4
1526902571032216,-4,1,0,5,0,2,19,4
1526902571046179,-1,-8,-5,-7,-10,-10,4,1
1526902571046179,13,7,1,-11,13,21,-6,-4
1526902571053160,27,4,0,2,3,17,12,-2
1526902571053160,-21,-21,-8,-8,-11,-24,-22,-5
1526902571069117,-7,3,3,8,22,-8,-12,-5
1526902571069117,7,-10,-5,-16,-43,-4,29,7
1526902571071112,-27,-6,-2,14,-18,50,12,-10
1526902571071112,20,12,-1,0,61,21,3,9
1526902571092056,-9,3,-5,-5,-16,-36,-15,-10
1526902571092056,11,-5,0,-3,3,19,-3,-4
1526902571093053,-23,-16,-7,-13,-16,-19,-8,-2
1526902571093053,7,6,0,-2,-34,-11,2,2
1526902571106019,-2,-3,4,4,22,-33,-13,1
1526902571106019,17,11,0,1,-2,41,10,1
1526902571113000,-14,-2,4,10,-11,-22,5,-1
1526902571113000,-8,1,-1,-7,16,-7,-13,5
1526902571128957,-2,-5,-4,-8,-14,-38,7,13
1526902571128957,-4,1,2,18,22,19,-7,-9
1526902571130952,27,8,1,-4,3,-12,-4,0
1526902571130952,15,1,-3,-10,-20,2,7,7
1526902571151896,-17,5,0,3,-17,-13,-9,-2
1526902571151896,-8,-8,1,0,29,-10,1,4
1526902571153891,-4,-4,-5,0,-20,9,-10,6
1526902571153891,-9,-4,2,10,32,53,13,-19
1526902571165858,-9,-1,-2,-5,-12,-75,-16,-2
1526902571165858,-9,-7,0,-1,-21,21,-6,-1
1526902571172840,29,11,-1,-3,-13,-23,0,4
1526902571172840,7,4,4,1,30,19,-12,-7
1526902571189794,-20,-15,-2,3,9,59,10,-7
1526902571189794,14,18,0,-1,1,-19,-2,9
1526902571190792,6,-8,-1,-4,12,-7,-1,9
1526902571190792,-4,3,0,0,-31,-16,3,8
1526902571211736,20,-5,0,5,-2,11,1,-11
1526902571211736,-8,0,-1,0,3,2,0,6
1526902571213731,-2,1,0,-5,2,34,-6,-14
1526902571213731,3,3,0,5,0,-98,-6,0
1526902571225699,-8,-4,3,2,2,12,5,-2
1526902571225699,5,2,0,0,-7,-6,-3,-2
1526902571232680,-7,4,-4,-2,10,2,-1,7
1526902571232680,15,-1,1,-7,-13,18,0,-4
1526902571249635,21,6,0,0,-15,-11,0,4
1526902571249635,-19,-17,-3,2,9,1,-3,-7
1526902571250632,48,3,-2,-2,6,-19,3,4
1526902571250632,-59,-6,-3,0,-6,18,-4,-10
1526902571271576,47,2,1,-6,-4,0,-4,3
1526902571271576,-16,2,-2,0,0,5,1,2
1526902571273571,0,-1,3,3,6,-2,16,-3
1526902571273571,15,-6,-5,-3,-11,-6,0,2
1526902571286536,-10,3,0,-2,10,31,0,-2
1526902571286536,5,12,4,-1,-5,-45,6,-5
1526902571292520,-7,-8,2,3,8,22,0,-3
1526902571292520,14,9,-2,-1,-10,-11,-3,0
1526902571309474,-4,-6,-5,-6,-10,-9,1,2
1526902571309474,2,-1,2,7,21,32,-7,-8
1526902571310472,-9,-1,5,1,-1,-39,-4,-9
1526902571310472,-1,-8,-5,-3,-8,11,-4,-4
1526902571331416,-12,-5,-5,-2,-1,-11,-5,-3
1526902571331416,4,-3,1,0,-5,7,0,2
1526902571333411,12,9,-5,-4,5,0,6,5
1526902571333411,-4,5,10,4,1,6,-16,-3
1526902571345379,-35,-12,-6,-1,-8,-29,-18,-17
1526902571345379,17,1,-5,-5,-1,-8,-3,8
1526902571354355,-5,-7,-5,-4,5,24,5,2
1526902571354355,-6,-2,-6,-5,-7,-7,-3,1
1526902571369315,3,-5,-3,-2,-3,7,21,-4
1526902571369315,-9,1,1,3,0,-29,-2,-4
1526902571371309,-3,-7,-3,-1,-4,53,-15,-3
1526902571371309,-6,6,5,-1,-6,-7,6,5
1526902571392253,1,3,-4,-1,4,7,-2,-7
1526902571392253,8,0,-3,-6,-6,6,-4,0
1526902571393251,4,-7,3,1,5,-25,2,-4
1526902571393251,16,-11,-6,0,-7,9,6,6
1526902571405218,2,12,5,1,5,6,0,5
1526902571405218,3,6,2,1,-4,0,1,3
1526902571414194,-30,-7,-4,-4,-5,-28,-7,-8
1526902571414194,-3,0,-2,-1,8,32,-6,0
1526902571429155,21,-5,-5,-6,-4,-13,-6,4
1526902571429155,-21,-6,1,2,1,-7,-2,0
1526902571431149,8,7,4,0,-1,8,-5,-2
1526902571431149,-14,-4,-1,2,-1,-17,8,-6
1526902571452093,-6,-1,-2,0,6,20,13,11
1526902571452093,1,-4,-4,-3,3,25,1,-4
1526902571453091,18,-2,0,-3,-8,-46,-3,2
1526902571453091,-4,6,3,3,2,9,12,-1
1526902571465058,-1,3,1,1,-1,-18,4,4
1526902571465058,9,-3,-7,-6,-5,-6,-3,-4
1526902571474035,-24,-10,-2,-2,-1,1,1,-7
1526902571474035,-16,-4,-2,-1,2,-1,-4,1
1526902571488994,9,1,1,2,-5,-8,-13,-6
1526902571488994,-4,-3,-4,-2,-1,5,3,-2
1526902571490989,4,6,-2,2,-6,3,-8,4
1526902571490989,-4,-7,-6,-9,13,-4,-10,-8
1526902571511933,-14,0,4,1,-4,14,-3,1
1526902571511933,2,5,0,-1,-11,-5,2,2
1526902571513928,-38,-3,-2,6,7,-10,-7,-8
1526902571513928,32,6,0,-10,-9,32,3,0
1526902571525896,-8,-6,-1,-2,2,-71,-15,-6
1526902571525896,-8,-7,-6,-7,-11,41,12,1
1526902571534872,-8,-4,1,2,-2,-9,-4,0
1526902571534872,25,6,0,5,11,15,11,9
1526902571549832,-21,-3,-1,-4,2,32,-8,-12
1526902571549832,-17,-6,-3,-1,3,-22,-7,-8
1526902571550830,14,2,0,1,-8,0,2,10
1526902571550830,10,3,3,3,1,-23,1,0
1526902571571773,12,-3,-3,-8,-45,-4,0,6
1526902571571773,-6,2,-2,-1,53,2,-5,-4
1526902571573768,-12,3,9,8,1,18,2,-1
1526902571573768,-14,2,-6,-8,-3,-19,-6,-3
1526902571585736,12,-6,-5,1,5,14,6,11
1526902571585736,-1,-2,-3,-8,-18,-15,-3,-1
1526902571594712,11,2,-1,-4,10,0,2,1
1526902571594712,-10,-3,1,17,2,-13,-6,18
1526902571609672,-12,1,0,-14,-27,8,8,-62
1526902571609672,8,2,3,6,9,-3,2,14
1526902571610669,3,5,-4,-6,5,-6,-2,4
1526902571610669,-18,9,1,-1,-16,-3,2,0
1526902571631613,40,-19,-7,-6,6,10,-6,8
1526902571631613,-10,-2,4,3,-4,10,10,6
1526902571633608,-25,-5,-1,-5,-8,-33,-11,-16
1526902571633608,29,11,0,1,-12,11,-2,4
1526902571645576,-37,-10,-1,6,16,13,5,-3
1526902571645576,23,9,2,-1,-11,-25,-10,0
1526902571654552,6,-6,-5,-3,1,3,2,10
1526902571654552,-7,-1,1,-2,0,-12,-4,-11
1526902571669512,-19,2,-1,6,10,7,-4,6
1526902571669512,5,-15,-2,0,-10,-10,-9,-8
1526902571670509,3,6,-1,4,4,16,1,-2
1526902571670509,-2,-12,-6,-14,-10,-15,4,-4
1526902571691453,-6,11,5,5,10,43,-1,-1
1526902571691453,39,7,5,3,-1,-30,-1,1
1526902571693448,7,-2,-7,-9,-3,59,20,9
1526902571693448,22,-1,0,3,-19,-57,-21,3
1526902571705416,-64,-10,-3,-3,19,-12,-4,-2
1526902571705416,3,-10,-5,-3,-3,-5,-8,-4
1526902571714392,15,9,5,3,-5,13,-11,-6
1526902571714392,-11,-9,2,2,-8,-7,21,0
1526902571729352,34,16,-4,-1,-1,-8,2,16
1526902571729352,-37,-17,-10,-2,-2,8,-7,-17
1526902571731346,36,9,2,-5,-3,-19,7,6
1526902571731346,-26,-2,2,3,8,14,-9,-9
1526902571752290,14,-1,-2,0,2,-6,0,5
1526902571752290,1,4,-5,3,-3,4,6,11
1526902571753288,-19,-8,3,-7,-5,-11,-4,-2
1526902571753288,-20,-5,-10,-10,2,7,-3,-4
1526902571765256,22,7,6,6,3,2,3,-2
1526902571765256,-26,1,-2,0,-1,1,1,-1
1526902571774232,1,-1,-1,1,2,-13,-6,-6
1526902571774232,10,2,3,3,8,40,8,3
1526902571789192,0,-1,3,1,-5,-48,-14,9
1526902571789192,-4,4,-3,-7,-11,-5,7,-4
1526902571791187,24,4,-1,-1,0,-15,-12,12
1526902571791187,-14,-9,-3,-3,1,9,11,-16
1526902571812130,2,-3,-1,4,-1,2,8,7
1526902571812130,4,9,3,-1,2,30,-2,2
1526902571813128,19,-8,-3,-2,6,5,14,1
1526902571813128,2,4,-4,-2,-6,5,-6,-1
1526902571825096,10,-2,1,-2,-1,-8,5,9
1526902571825096,5,4,4,2,-2,-14,-2,-2
1526902571834072,-31,-2,1,4,1,8,0,-4
1526902571834072,4,-3,-2,-1,0,7,-3,0
1526902571849032,12,-2,-3,-4,3,-9,-7,-7
1526902571849032,11,17,2,0,0,10,0,4
1526902571851026,-3,-21,-4,1,-3,-1,-1,1
1526902571851026,-15,-3,0,-2,3,-14,1,-3
1526902571871970,-8,1,-2,-4,1,3,-1,-1
1526902571871970,8,-5,0,0,-4,2,-7,-6
1526902571873965,-31,7,-4,5,-10,-26,-3,-10
1526902571873965,-2,-3,-1,-11,12,12,1,9
1526902571885933,10,3,-1,3,-8,6,-1,-3
1526902571885933,-11,2,6,-1,1,24,8,4
1526902571894909,-5,-10,-6,-2,7,-8,-14,-3
1526902571894909,13,2,4,5,-1,-1,-2,5
1526902571908871,8,7,1,0,-8,-8,14,-1
1526902571908871,-17,0,0,4,7,0,-3,-4
1526902571910867,12,0,3,-5,-5,7,3,3
1526902571910867,-1,0,-1,3,3,7,-7,-2
1526902571931810,-19,-1,-4,-3,6,-1,-6,0
1526902571931810,-11,-4,2,1,-3,-8,2,-8
1526902571933805,-10,-4,-6,-4,2,5,4,5
1526902571933805,25,10,-3,-5,-4,-11,-2,1
1526902571945773,12,0,4,4,3,7,1,4
1526902571945773,-9,-9,-5,-2,0,-7,-1,-5
1526902571954749,11,4,3,-1,-4,2,-4,-2
1526902571954749,2,-5,-1,5,0,3,0,-3
1526902571969709,-26,6,-1,-2,-1,-7,-3,2
1526902571969709,-8,-16,-3,-2,-1,-4,-3,0
1526902571970707,-15,1,-4,-3,-3,2,-1,1
1526902571970707,8,3,2,4,-1,-8,-4,-7
1526902571991650,-19,-9,-3,-1,3,-8,-1,-3
1526902571991650,15,4,-2,-4,-1,31,2,2
1526902571993645,-13,-3,1,4,1,7,5,-4
1526902571993645,10,1,-3,-3,-6,-20,-3,-4
1526902572014589,19,-6,-2,-1,-1,6,-5,0
1526902572014589,-10,0,1,-1,-8,-19,4,6
1526902572015587,-1,4,-1,-3,-1,35,8,-2
1526902572015587,-16,-7,-1,-5,-4,-15,-27,1
1526902572028551,9,5,5,6,6,17,2,-3
1526902572028551,4,-8,-4,-2,-3,-20,1,-3
1526902572035533,26,9,0,1,1,-9,-4,1
1526902572035533,-43,-12,-1,1,-2,3,7,-1
1526902572051490,-4,-4,-4,-7,-2,-5,-1,2
1526902572051490,23,6,1,5,2,4,-4,-1
1526902572053485,-13,-7,-2,-4,-3,-12,-2,1
1526902572053485,-3,0,-1,1,3,1,2,-5
1526902572074429,2,8,4,2,7,5,1,4
1526902572074429,-8,-14,-3,-2,-7,-5,4,-4
1526902572076424,24,7,2,1,3,23,-6,3
1526902572076424,-6,-2,-7,-1,-7,-29,4,-3
1526902572088392,-12,0,3,0,0,16,3,-1
1526902572088392,20,4,-4,-8,0,-20,-14,1
1526902572095373,-7,4,6,4,-2,-20,-1,-5
1526902572095373,-11,-11,-6,-1,7,44,2,0
1526902572111330,20,-2,2,0,-9,6,18,-4
1526902572111330,15,11,5,2,-1,0,-7,-8
1526902572113325,-10,-11,-4,-4,-3,-19,-4,4
1526902572113325,16,12,2,1,2,7,1,-4
1526902572134269,-14,1,-3,2,0,-12,-5,-2
1526902572134269,-4,-7,-2,-2,-4,29,-1,0
1526902572136263,-5,5,2,2,3,-21,-1,-2
1526902572136263,24,5,3,-1,-10,12,12,3
1526902572148231,-20,-1,-3,0,1,15,-21,1
1526902572148231,7,2,-4,-1,-2,-10,-3,-2
1526902572155213,4,3,-1,-1,-5,-19,0,1
1526902572155213,-24,-5,0,1,5,8,-2,-8
1526902572172167,8,-10,-5,-2,-5,3,0,-1
1526902572172167,-16,-2,1,0,8,10,-1,8
1526902572173165,0,-4,-6,-5,-2,7,2,-1
1526902572173165,31,7,1,0,3,-10,-2,0
1526902572194109,-28,-11,-3,-3,-10,-11,-3,-9
1526902572194109,1,0,1,3,4,5,-2,-2
1526902572196104,-16,-5,-7,-5,-12,12,5,0
1526902572196104,39,4,-1,0,6,-15,0,3
1526902572209069,-51,-6,-2,-1,-4,-3,-4,-3
1526902572209069,29,8,0,-3,-3,-7,-1,4
1526902572215053,-4,-9,1,1,7,-12,-3,-13
1526902572215053,-23,-1,-1,-2,-8,15,-5,1
1526902572232007,15,-6,-2,0,2,-10,-10,-9
1526902572232007,-14,10,3,0,1,-20,0,0
1526902572233005,-14,-4,1,-1,2,29,10,7
1526902572233005,-6,-7,2,4,2,-4,-12,-1
1526902572253949,17,2,1,-2,5,-45,3,1
1526902572253949,5,1,-5,-6,-19,43,-6,-4
1526902572255944,27,6,-2,0,10,23,2,1
1526902572255944,-24,-5,-1,-3,-10,-17,9,-1
1526902572267911,24,6,3,3,-3,13,-2,-3
1526902572267911,-5,-4,2,6,11,-28,2,-1
1526902572276888,-8,-4,-3,-1,-2,18,-9,-3
1526902572276888,-12,2,-2,-3,0,6,3,7
1526902572291847,25,10,-5,-3,-2,-6,5,-1
1526902572291847,-45,-24,-7,-4,7,-11,-15,-13
1526902572293842,19,17,1,-5,-6,-13,-6,6
1526902572293842,10,-4,1,3,2,-14,0,-2
1526902572314786,-21,-6,-4,-4,-2,9,-7,-7
1526902572314786,-5,1,0,2,2,3,7,-1
1526902572315784,1,-5,-4,-2,-2,-12,-3,-7
1526902572315784,12,11,-3,-3,-2,6,-3,6
1526902572327751,-5,0,1,-1,-1,8,9,8
1526902572327751,20,4,2,2,-2,0,0,-6
1526902572336728,-38,-25,-3,-1,0,-11,2,-4
1526902572336728,16,1,1,-1,-2,-15,-15,3
1526902572351687,-4,-7,-4,-3,-3,12,0,5
1526902572351687,-8,1,-6,-3,-3,-15,0,-5
1526902572353682,-10,7,7,2,1,0,6,1
1526902572353682,-34,-10,-2,1,0,3,-4,-7
1526902572374626,62,19,0,-2,-7,8,12,11
1526902572374626,-36,-11,4,0,1,-4,1,3
1526902572375623,21,6,-7,-4,-11,-7,1,-1
1526902572375623,-2,-1,4,6,7,10,1,-9
1526902572387591,5,13,5,2,5,16,-1,-7
1526902572387591,-21,-6,-2,-3,-3,3,8,8
1526902572396567,96,18,-2,-4,-3,-7,-2,8
1526902572396567,-50,-19,2,3,6,-5,3,-7
1526902572411527,-2,-5,0,1,-2,-5,-4,-6
1526902572411527,3,2,-1,-1,-4,2,0,0
1526902572413522,-32,-6,4,5,5,4,-5,-4
1526902572413522,31,13,-5,-5,-3,-1,6,6
1526902572434466,-24,-6,-1,3,-3,-8,-2,-6
1526902572434466,-7,-6,-6,-4,-4,-1,2,5
1526902572435464,29,7,-1,-1,0,4,-1,0
1526902572435464,45,-6,-2,-4,-5,-14,-13,-1
1526902572448428,-31,-12,-5,-4,1,-3,-4,-5
1526902572448428,18,10,1,0,0,-6,2,3
1526902572457405,-48,-8,2,4,3,2,-5,-6
1526902572457405,23,11,1,-1,-5,6,7,7
1526902572471367,3,-6,0,-1,5,3,-7,-4
1526902572471367,-15,-5,-11,-6,-16,-51,0,4
1526902572473362,18,2,4,3,3,19,19,4
1526902572473362,-23,-4,0,-2,1,4,12,5
1526902572494306,-1,-5,-4,-4,-2,-5,-5,1
1526902572494306,-13,9,2,0,5,-3,5,-6
1526902572496301,-31,-16,-3,-2,-8,-26,-19,-8
1526902572496301,-7,8,0,3,4,-1,1,2
1526902572508268,20,0,-2,1,3,-5,7,4
1526902572508268,4,2,-1,-1,1,18,1,1
1526902572517245,-11,1,1,-2,-1,-3,-4,-6
1526902572517245,-11,-7,-5,-4,-2,7,-2,0
1526902572532204,-15,-5,-4,-4,-3,-16,-10,-2
1526902572532204,28,2,6,6,7,42,2,-2
1526902572533202,-19,8,0,1,-5,-19,-5,1
1526902572533202,-15,-20,-4,-4,-2,-8,3,1
1526902572554146,15,14,1,1,2,-4,2,-2
1526902572554146,-11,-19,-7,-4,-2,12,-3,-6
1526902572556141,21,8,7,6,7,22,-3,1
1526902572556141,-11,3,-1,-1,-5,-43,-7,-1
1526902572568109,15,1,-1,-3,-7,-1,-2,7
1526902572568109,-12,4,2,1,1,15,3,-4
1526902572577085,-6,0,1,-2,-4,-14,-7,-2
1526902572577085,0,-3,-2,0,2,11,-3,-4
1526902572592045,-1,1,0,2,-1,0,2,-4
1526902572592045,28,10,4,-2,4,-15,-3,2
1526902572593042,-19,-18,-10,-1,-5,12,2,-1
1526902572593042,75,17,5,-2,-6,24,10,9
1526902572613986,-1,-3,-3,-3,-1,-19,-9,0
1526902572613986,-27,-8,0,1,2,-1,-2,-5
1526902572615981,2,2,-4,-5,-3,-9,6,-1
1526902572615981,-14,-9,-4,-1,-2,5,-8,-6
1526902572627948,-36,-6,0,-1,1,9,13,5
1526902572627948,26,0,-3,-1,-4,8,-5,-4
1526902572636925,5,2,-3,-1,-2,-6,-2,3
1526902572636925,-31,-2,-1,2,-1,2,0,-9
1526902572651884,8,-6,0,-1,1,7,-3,2
1526902572651884,-21,5,1,1,-2,-23,-5,6
1526902572653880,17,7,-4,-5,-1,15,2,-4
1526902572653880,2,-10,-5,0,2,14,-3,2
1526902572674823,-9,5,2,1,-3,-15,-7,1
1526902572674823,-4,-2,0,-2,-3,-14,-3,-6
1526902572675821,-9,-5,-1,-1,6,-8,-3,-2
1526902572675821,18,7,4,2,-3,7,3,2
1526902572687788,-23,0,-3,-1,2,15,1,-5
1526902572687788,22,2,-1,-1,0,-10,-17,2
1526902572696765,-12,-11,-9,-4,-1,-5,14,-5
1526902572696765,-21,-1,0,1,0,-13,-3,-5
1526902572711725,8,0,2,-1,-2,17,2,1
1526902572711725,-7,-2,0,-1,-9,7,2,-7
1526902572713719,-1,-4,0,0,4,2,-1,0
1526902572713719,-21,-5,-1,-2,2,-24,-19,-11
1526902572734663,39,9,-3,1,-1,16,2,4
1526902572734663,-29,-7,-4,-3,-2,-6,-3,-1
1526902572735661,20,0,4,0,-2,-2,-5,3
1526902572735661,-26,3,-3,-4,-6,-4,7,-9
1526902572747628,-14,-7,0,-1,3,8,6,-1
1526902572747628,24,6,-2,-1,2,-7,-24,1
1526902572756604,-3,-9,-2,3,-4,-9,-1,-1
1526902572756604,-2,5,-6,-5,-3,7,-1,2
1526902572771564,-11,5,7,2,-1,-9,-2,2
1526902572771564,63,-3,0,2,1,14,10,0
1526902572773559,-14,6,0,3,0,-15,-7,0
1526902572773559,6,-7,-3,-2,-6,35,-1,-2
1526902572794503,-6,-3,-4,-1,-1,-8,6,-2
1526902572794503,-15,3,-2,-1,-3,-27,-3,-3
1526902572795501,10,1,2,-1,-2,12,-1,7
1526902572795501,11,-5,0,1,0,-15,2,0
1526902572808466,-14,-8,-6,-4,0,-2,-7,-6
1526902572808466,6,8,3,0,5,-6,12,9
1526902572817442,10,2,3,1,-12,26,-8,-4
1526902572817442,-3,-3,-3,-3,4,-16,6,-3
1526902572831404,-17,-15,-3,1,-6,-3,3,-2
1526902572831404,2,2,-3,-1,4,7,3,8
1526902572833399,-5,7,1,1,2,2,-2,-5
1526902572833399,22,-1,0,0,-1,2,3,5
1526902572854343,8,-9,-3,-4,-1,-5,-6,4
1526902572854343,-7,-1,0,0,-1,-1,4,-1
1526902572856338,-4,3,-1,-3,-1,-15,-5,2
1526902572856338,-14,6,4,3,2,20,7,-9
1526902572868306,8,-3,-3,-2,0,-26,-2,-2
1526902572868306,-7,-1,-3,-1,-2,5,-6,-2
1526902572877282,6,1,-2,-1,2,15,18,5
1526902572877282,6,1,1,1,3,-17,-5,7
1526902572891244,-21,-3,-3,-3,-9,2,-5,-16
1526902572891244,-1,-8,0,0,-8,-2,6,0
1526902572898226,-26,-7,-3,-4,2,24,1,3
1526902572898226,-22,-5,-2,0,-9,-70,-4,-9
1526902572914183,18,8,4,4,7,36,1,3
1526902572914183,0,-3,0,-2,-2,5,-3,1
1526902572916178,-5,-5,-3,-3,0,-22,-1,0
1526902572916178,12,4,2,2,-3,28,3,-1
1526902572937121,-7,1,-2,-1,1,-9,-5,1
1526902572937121,10,-2,-2,-1,-1,-4,3,2
1526902572938119,8,-5,-2,-1,1,3,-3,-4
1526902572938119,-9,-3,-6,-2,1,-2,-4,-3
1526902572951084,15,5,-1,-3,-2,-14,-4,7
1526902572951084,-38,-6,-2,-1,4,23,5,-16
1526902572958066,7,3,2,0,-2,-37,-2,-1
1526902572958066,8,-3,1,2,3,25,3,0
1526902572974023,26,6,-3,0,-4,-14,-8,-1
1526902572974023,-11,-7,0,2,2,18,3,4
1526902572976018,-8,0,-3,-2,-6,-36,1,0
1526902572976018,12,-1,-1,-3,-3,-9,-4,3
1526902572996962,-17,3,-1,-4,4,-2,-8,-4
1526902572996962,-12,-8,-1,-2,0,15,6,0
1526902572998956,11,4,1,-1,0,-18,-21,-7
1526902572998956,3,-7,-3,-4,0,15,7,3
1526902573010924,32,10,1,0,8,14,-8,4
1526902573010924,-13,-3,4,3,-6,-33,-4,-2
1526902573017906,1,-5,-4,0,-1,44,4,-3
1526902573017906,-7,4,4,-1,-4,-13,-2,5
1526902573033863,3,-2,-5,-2,-3,12,7,-6
1526902573033863,4,-1,1,1,1,3,-14,0
1526902573035858,2,-1,-3,-2,-1,-2,10,0
1526902573035858,15,4,0,-1,3,7,1,-1
1526902573056801,-37,-12,0,2,-2,-4,4,-6
1526902573056801,2,12,-1,1,3,3,2,1
1526902573058797,8,3,0,-2,0,16,9,2
1526902573058797,-10,-2,0,0,2,-20,-16,-1
1526902573070764,-11,-4,-2,-2,-4,-4,9,-1
1526902573070764,16,5,-2,-3,-4,-11,-4,-6
1526902573077746,1,0,0,-2,1,-1,-6,-4
1526902573077746,-14,-6,1,1,5,17,2,-2
1526902573094700,20,9,3,3,-5,12,-1,6
1526902573094700,17,-2,-5,-1,4,-4,-1,0
1526902573095698,5,-1,-1,-3,-3,-20,3,-1
1526902573095698,12,-3,-5,-3,-3,-3,-10,-8
1526902573116642,-19,0,7,1,-2,-18,0,0
1526902573116642,7,-2,0,0,0,15,-9,-4
1526902573118636,7,-16,-5,-5,-1,-15,-2,2
1526902573118636,3,7,2,5,-3,-9,7,-2
1526902573131602,-11,-8,-3,-1,-6,7,-19,-5
1526902573131602,4,3,0,-1,-3,-27,14,0
1526902573137586,-1,2,2,2,1,14,-7,0
1526902573137586,-11,0,-1,-4,-1,6,5,0
1526902573154540,22,7,1,2,5,-36,-2,3
1526902573154540,-18,-14,-6,-7,-3,96,12,-1
1526902573155538,-9,-1,-2,-2,2,-65,-8,-3
1526902573155538,-7,1,-3,-4,-6,-8,-12,2
1526902573176481,3,0,2,3,3,-1,16,1
1526902573176481,1,3,0,1,-1,-29,-10,-1
1526902573178476,-4,6,3,0,3,34,11,1
1526902573178476,-1,-6,-4,1,0,6,-12,3
1526902573190444,-16,-3,1,-3,-3,-31,-7,-2
1526902573190444,30,11,-2,-1,-3,-3,8,-1
1526902573199421,1,-14,-2,-3,-6,14,-1,2
1526902573199421,21,1,-1,-3,-2,-14,3,9
1526902573214380,-46,-14,-6,-1,2,22,4,-5
1526902573214380,-1,0,0,-1,-4,-23,-5,0
1526902573216375,4,3,-2,1,-1,14,0,0
1526902573216375,-4,-1,0,1,1,16,5,0
1526902573237319,44,0,-3,0,1,1,11,7
1526902573237319,-37,2,4,3,2,-20,-17,-8
1526902573238317,-17,-3,-1,-2,0,14,-6,-1
1526902573238317,-1,-1,-1,1,-4,5,13,0
1526902573250284,4,1,-4,-1,6,2,-9,0
1526902573250284,1,5,2,-2,-4,-20,2,1
1526902573259260,-8,-3,0,3,3,-10,3,-2
1526902573259260,12,5,2,-1,0,20,-6,-6
1526902573274220,-29,-4,-1,-2,7,35,8,-4
1526902573274220,10,2,-2,0,0,-8,1,5
1526902573276215,-8,-5,-2,1,3,-7,-15,-16
1526902573276215,-8,2,1,0,2,44,11,0
1526902573297159,2,-4,-4,-1,-6,-11,0,-1
1526902573297159,23,2,3,0,-2,2,-1,9
1526902573298157,-14,-3,-5,-1,-2,11,4,5
1526902573298157,-28,-1,-3,-3,-1,-25,-9,-10
1526902573310124,-7,-5,-3,-1,-5,0,-9,-3
1526902573310124,-7,0,-1,-4,0,10,-3,-3
1526902573319100,22,14,5,3,-3,-3,11,2
1526902573319100,-17,-5,2,1,2,-13,-15,0
1526902573334060,20,7,3,-2,-6,-6,-11,4
1526902573334060,3,-8,-4,0,3,6,5,-2
1526902573336055,-15,7,-4,-2,0,6,-6,-4
1526902573336055,-6,1,-1,0,-5,-8,8,1
1526902573356999,6,-1,-2,-4,1,15,7,5
1526902573356999,-1,7,3,1,1,5,2,1
1526902573357996,-13,-10,0,-3,-3,-9,-7,1
1526902573357996,-4,6,-3,5,-1,-51,-18,-2
1526902573370961,22,-7,-1,-5,1,88,20,5
1526902573370961,-15,-9,-2,1,4,-12,-16,-6
1526902573379938,13,1,1,0,-5,1,-4,0
1526902573379938,-6,-4,-2,-1,1,-6,2,1
1526902573393900,16,3,-2,-1,-4,-14,-1,-5
1526902573393900,-6,-2,-2,1,0,-16,1,-2
1526902573395895,21,7,1,1,0,-25,-8,0
1526902573395895,2,-10,-2,-3,-3,22,-1,-1
1526902573416839,3,8,4,1,1,25,-2,-1
1526902573416839,-5,-4,-1,-1,-6,-3,18,4
1526902573418834,-7,-1,0,0,4,8,-5,-1
1526902573418834,3,2,-4,-4,-5,-39,3,-3
1526902573430802,-10,0,5,3,1,4,-3,2
1526902573430802,16,0,1,2,-2,-8,1,1
1526902573439778,-39,-11,-1,-2,-5,-5,10,-8
1526902573439778,18,6,0,-5,1,16,-2,4
1526902573454738,-19,-1,0,2,-4,-28,-1,0
1526902573454738,2,2,-2,-2,1,14,1,0
1526902573455735,-24,-3,0,0,1,11,-2,-1
1526902573455735,3,3,2,1,2,1,-16,-12
1526902573476679,8,-2,-2,0,-5,-46,7,-2
1526902573476679,-5,5,6,1,0,3,4,8
1526902573478674,13,-7,-8,-5,-3,-2,-4,4
1526902573478674,-2,-3,-4,-5,-1,33,6,0
1526902573490641,-20,-4,-4,-2,-3,-53,-15,-3
1526902573490641,1,4,3,2,2,24,17,-5
1526902573499618,7,1,0,-4,-2,-21,-12,-5
1526902573499618,-1,-5,-4,-1,1,11,3,-2
1526902573514577,-23,-11,-3,1,0,-22,-1,-5
1526902573514577,9,-1,-5,-3,-4,-20,-14,4
1526902573515575,0,2,0,-2,-3,13,22,-1
1526902573515575,5,0,1,-1,3,0,-12,-2
1526902573536519,9,0,-1,-2,-3,18,9,-5
1526902573536519,-10,-12,-4,0,-1,-4,-6,1
1526902573538514,44,13,0,1,1,-1,6,10
1526902573538514,-21,-5,1,0,-3,-9,-15,-6
1526902573550481,-7,2,1,1,8,16,-7,-3
1526902573550481,9,0,-3,-3,-6,-37,-7,-4
1526902573559458,3,5,6,7,4,20,3,2
1526902573559458,0,0,1,-2,-11,-28,8,0
1526902573574417,11,1,1,-1,-2,6,1,2
1526902573574417,-22,-5,-15,-7,-1,6,-8,-5
1526902573576412,22,5,7,2,-1,7,0,2
1526902573576412,-5,0,-3,0,0,-10,2,4
1526902573596359,12,0,0,-2,-1,-10,-8,-2
1526902573596359,-28,-3,-1,-2,0,38,10,1
1526902573598353,-10,-6,-4,-6,-7,1,18,-6
1526902573598353,-8,-8,-1,0,2,-17,-8,-3
1526902573610321,22,7,-2,-3,-3,4,3,9
1526902573610321,6,-1,3,3,3,-1,-2,-4
1526902573619298,-19,-4,-6,-2,-4,-3,-7,-3
1526902573619298,5,-2,2,-1,0,13,9,-3
1526902573634257,-27,2,1,2,1,-11,-12,-4
1526902573634257,12,-6,0,-3,4,30,1,-1
1526902573636252,-14,-5,0,0,-3,-33,-11,2
1526902573636252,7,-1,-1,1,-1,10,1,6
1526902573657196,-17,-2,-2,0,5,21,9,-3
1526902573657196,0,2,0,-2,-6,-31,-23,-5
1526902573658194,16,-1,1,2,4,5,-2,3
1526902573658194,-34,-8,-6,-5,-1,-4,5,-4
1526902573670161,20,3,0,0,-5,-2,-2,-5
1526902573670161,-26,-13,3,0,2,2,0,0
1526902573679137,-2,-1,-2,0,1,-4,-3,-1
1526902573679137,-11,7,0,0,-3,5,-2,2
1526902573694097,21,1,0,2,-1,1,0,5
1526902573694097,-4,-2,-5,-2,-2,-2,-8,-9
1526902573696093,12,4,2,-1,-4,-21,-2,3
1526902573696093,-1,7,2,2,3,19,9,-2
1526902573717036,-16,-13,-5,-6,-5,-11,-2,6
1526902573717036,17,7,0,2,4,62,23,4
1526902573718033,-4,1,1,-2,-5,-70,-27,-2
1526902573718033,23,4,2,3,-3,-6,-3,0
1526902573730999,-12,-4,-8,-8,-5,25,1,-4
1526902573730999,-5,-6,-3,-2,-6,-33,2,-1
1526902573739975,2,-2,-7,-4,2,78,7,-1
1526902573739975,11,-2,2,0,-2,-13,-4,0
1526902573753937,-2,-3,5,2,-3,-16,-1,-3
1526902573753937,8,3,2,1,-1,-6,1,2
1526902573755932,-12,3,-3,0,0,12,1,-1
1526902573755932,18,-5,0,1,0,-14,-6,2
1526902573776876,3,0,-7,-2,0,7,-2,-7
1526902573776876,-34,-1,7,-4,0,-9,-7,-6
1526902573778871,-2,-7,-2,1,1,-7,2,3
1526902573778871,-21,-1,0,0,-1,6,0,-4
1526902573790838,24,4,-3,-3,-1,5,5,2
1526902573790838,11,0,-3,0,-2,0,4,1
1526902573799815,-5,5,3,3,0,-1,-31,-6
1526902573799815,10,0,0,-3,-3,-25,27,2
1526902573813777,-34,-8,-2,3,1,43,0,-2
1526902573813777,18,6,-8,-5,3,-13,-9,0
1526902573820758,-14,-14,-7,-5,0,7,14,-3
1526902573820758,17,0,-2,-1,1,1,-8,1
1526902573836716,-19,4,4,0,-1,-20,-15,-5
1526902573836716,8,3,3,2,-2,-4,11,-2
1526902573838711,7,-2,-1,-1,3,10,6,0
1526902573838711,-5,-2,-3,-3,1,9,-8,-3
1526902573850679,27,7,0,0,3,-12,12,3
1526902573850679,-3,-3,2,0,-2,-10,-7,1
1526902573859655,-5,-2,-1,0,-3,5,9,1
1526902573859655,-29,4,3,1,2,0,-7,2
1526902573874614,12,-1,-1,-3,-5,-22,-18,-9
1526902573874614,-18,-1,-3,-1,0,-18,-2,0
1526902573875612,32,-2,-3,0,2,31,2,1
1526902573875612,-5,0,-2,-2,-4,-23,-4,-2
1526902573896556,-7,-1,2,1,3,13,-7,-3
1526902573896556,-7,-6,-2,-1,-2,11,9,1
1526902573898551,-2,-3,-3,-4,-6,-54,-3,-1
1526902573898551,5,-3,-2,-1,-1,23,6,5
1526902573919494,-30,-2,1,2,-3,10,1,0
1526902573919494,0,-2,-3,-2,-1,-5,-7,-1
1526902573920492,-3,6,1,-1,-4,3,11,2
1526902573920492,15,-2,-4,-2,-1,2,1,-1
1526902573933457,-11,-5,-1,-1,1,-10,-3,5
1526902573933457,4,7,0,2,-3,21,6,0
1526902573942433,10,-6,-1,0,2,-6,-15,-3
1526902573942433,5,-3,0,-2,0,0,8,1
1526902573957393,13,6,5,2,0,-5,7,4
1526902573957393,-23,-2,0,2,0,6,-7,-4
1526902573958391,23,4,-1,-4,-1,-5,8,3
1526902573958391,2,-2,0,1,1,0,-10,-5
1526902573979334,-1,-5,-5,-1,-7,-14,-7,0
1526902573979334,3,0,2,-1,0,2,17,5
1526902573981329,-4,0,-2,0,3,33,6,-2
1526902573981329,-28,1,-1,0,-5,-25,-5,-1
1526902573994294,-5,-8,-1,-1,1,-6,-2,0
1526902573994294,16,0,-1,0,-1,-9,-12,-3
1526902573996289,-31,-8,-1,-1,1,8,-3,-6
1526902573996289,-14,5,0,-2,0,13,0,4
1526902574017233,46,7,-1,-3,0,-10,-3,-5
1526902574017233,-2,-9,-2,0,-1,-23,-8,-3
1526902574018230,-10,-5,-1,0,9,46,2,2
1526902574018230,-1,-3,0,0,1,-2,-2,-3
1526902574039174,0,9,-3,-4,-3,19,15,3
1526902574039174,-11,-12,-6,-3,-5,-32,-32,-4
1526902574041169,10,6,1,0,-2,-13,-5,-6
1526902574041169,-5,-3,-3,-2,0,4,6,-5
1526902574054135,-1,-3,-2,-2,1,20,-2,0
1526902574054135,-5,11,4,0,-2,2,8,4
1526902574060118,4,-4,0,0,-2,-22,-14,-3
1526902574060118,16,-6,-5,0,3,28,11,4
1526902574077073,-11,-3,-1,-1,-1,-17,-6,-3
1526902574077073,21,-1,-4,-2,0,6,6,1
1526902574078071,-19,5,4,2,-2,-9,1,4
1526902574078071,20,5,0,-4,-2,4,-2,4
1526902574099014,-12,-7,0,0,1,-30,-24,-12
1526902574099014,-26,-2,0,-1,-1,37,-2,0
1526902574101010,10,5,0,0,-2,2,3,0
1526902574101010,38,5,3,1,0,-3,-7,-1
1526902574113974,-29,-8,3,1,2,10,8,5
1526902574113974,14,-1,-2,-1,-2,-11,2,-3
1526902574120956,-13,-6,-2,-1,-2,-13,-4,-4
1526902574120956,-10,0,-2,-1,-3,6,4,-4
1526902574136913,-15,4,-3,-1,-2,-13,0,-5
1526902574136913,-14,-10,-2,0,0,3,7,-2
1526902574138908,-9,3,-1,0,-4,-8,2,2
1526902574138908,21,-3,1,-1,4,5,-4,1
1526902574158854,-4,3,2,0,-2,-9,-14,-3
1526902574158854,8,2,0,-1,0,-15,-3,3
1526902574160850,-14,-5,-6,-3,-1,21,-10,-8
1526902574160850,0,-2,-4,0,1,15,20,-2
1526902574172817,-14,0,1,0,-2,-40,-32,-3
1526902574172817,-1,6,3,3,2,7,-3,-2
1526902574181793,3,-11,-3,-2,0,-13,-6,-4
1526902574181793,-26,-3,0,-3,-4,0,13,3
1526902574196753,44,-2,-3,-3,0,6,13,7
1526902574196753,14,5,-1,0,-6,1,8,-4
1526902574198748,-21,-6,-1,1,3,-19,-2,-5
1526902574198748,-23,5,2,1,1,24,-7,-1
1526902574219691,11,0,-3,-6,-2,11,10,4
1526902574219691,-8,-5,1,-1,2,-18,-8,-2
1526902574220689,21,6,-3,-2,-2,17,15,3
1526902574220689,-17,-8,-1,-2,-4,-16,-8,-3
1526902574232657,26,-5,-4,0,0,0,15,4
1526902574232657,-4,-4,-1,-3,-2,15,3,5
1526902574241633,-33,4,1,-1,-3,-10,-2,-5
1526902574241633,2,1,-2,1,-3,-11,-9,0
1526902574256593,5,6,-3,-3,-1,12,14,1
1526902574256593,1,-5,-2,0,-3,-19,-17,-6
1526902574258588,9,-1,0,-3,-2,23,-3,4
1526902574258588,-3,-3,-3,-3,-2,-8,-3,-1
1526902574279532,-16,-1,1,0,1,5,11,6
1526902574279532,-1,0,-4,-3,-4,25,4,-5
1526902574280529,27,6,0,-2,-2,-42,-21,2
1526902574280529,17,4,-3,-1,-2,1,-3,-1
1526902574292497,-14,-6,-1,3,0,4,-5,-5
1526902574292497,18,7,3,0,4,20,-6,2
1526902574309452,-20,-6,0,1,-3,-17,22,-6
1526902574309452,-14,6,-2,-2,0,-4,-12,7
1526902574316433,-4,-17,-9,-6,-2,-5,-7,-9
1526902574316433,28,4,-1,0,-2,-8,2,5
1526902574318428,-2,2,-1,-3,0,11,-1,2
1526902574318428,-19,-3,1,0,-4,-27,7,-2
1526902574339372,16,7,-1,2,4,11,4,7
1526902574339372,2,-8,5,0,2,0,-3,-7
1526902574341366,-15,7,0,-2,-2,-1,-2,1
1526902574341366,29,-7,-5,-2,1,-6,-3,0
1526902574353334,-29,2,1,0,-2,1,-2,0
1526902574353334,6,-5,-5,-2,-1,-5,1,-5
1526902574362310,-33,-5,-2,0,0,0,-1,-1
1526902574362310,45,15,2,0,0,5,1,2
1526902574377270,-18,-19,-3,-3,-4,-3,1,-1
1526902574377270,-4,6,-1,-1,-1,1,3,5
1526902574378268,21,4,0,-3,-2,9,8,0
1526902574378268,-19,-7,-3,-3,9,4,-20,-7
1526902574399211,4,5,4,-1,-2,1,0,-1
1526902574399211,-9,-1,0,-2,0,-12,0,4
1526902574401207,16,3,0,0,0,29,21,-7
1526902574401207,-12,-14,0,-2,-5,-7,11,-2
1526902574413174,31,4,-1,0,1,-22,-18,-5
1526902574413174,-30,6,1,1,-1,-2,1,5
1526902574422150,42,-6,-1,-1,1,-1,-7,4
1526902574422150,-26,-2,0,1,-2,0,-3,-5
1526902574437110,1,0,-1,1,-1,2,6,1
1526902574437110,-5,-2,-3,-2,-2,-3,-2,-6
1526902574438108,6,3,0,0,1,-24,-7,6
1526902574438108,32,3,2,2,2,47,19,5
1526902574459051,-1,2,-2,-4,-4,-21,-15,-1
1526902574459051,13,-4,-4,-1,3,-4,2,2
1526902574461047,-13,-2,1,1,-4,-4,2,3
1526902574461047,-42,-8,-4,-2,-5,-1,-3,-13
1526902574473014,41,13,6,2,0,9,7,1
1526902574473014,-6,-9,-7,-4,-2,-3,-17,1
1526902574481991,0,1,-1,-1,-1,3,0,-6
1526902574481991,0,-5,-2,-1,-3,-28,12,4
1526902574496950,-12,4,3,3,2,7,-15,-15
1526902574496950,-27,4,2,0,-5,-22,10,1
1526902574498945,10,-5,-1,-3,-1,25,-4,0
1526902574498945,39,13,1,0,1,-16,-16,0
1526902574518891,-49,-16,-3,-1,0,3,5,1
1526902574518891,27,3,-2,0,0,6,2,0
1526902574520887,-5,5,1,-1,1,4,-5,2
1526902574520887,27,8,-1,0,0,8,3,1
1526902574532854,-33,-20,-2,-3,-11,-3,8,2
1526902574532854,14,-9,-4,-2,2,7,-2,-7
1526902574541830,-11,-1,1,2,0,-15,-1,-6
1526902574541830,0,-2,-2,0,1,-18,-6,-1
1526902574556790,-2,3,-4,-5,-3,16,7,3
1526902574556790,-32,-2,-3,0,-2,-11,-2,-2
1526902574558785,43,2,0,-3,-1,-1,-1,4
1526902574558785,-17,-10,2,1,1,-18,-3,3
1526902574579729,7,5,-1,-1,3,28,9,-2
1526902574579729,-22,-7,-2,0,1,8,0,-4
1526902574580726,-2,7,-1,1,-3,-29,-1,3
1526902574580726,-15,1,0,1,-1,6,-13,-3
1526902574592694,29,2,0,-1,3,-13,0,0
1526902574592694,2,3,0,-1,-4,15,-3,0
1526902574601670,-17,-6,-4,-2,0,19,-5,-6
1526902574601670,-32,-3,3,2,1,2,-2,-4
1526902574616630,-18,-3,1,2,-1,-7,-3,-1
1526902574616630,28,0,-3,-2,1,-4,2,-2
1526902574618625,34,0,-4,-4,-3,-5,-4,4
1526902574618625,3,2,-3,-4,3,11,6,4
1526902574639569,10,6,0,1,0,-15,-15,-5
1526902574639569,-11,-2,2,2,0,0,1,3
1526902574640566,-9,-4,-1,0,0,-4,-4,-6
1526902574640566,21,4,-5,-6,-4,3,4,2
1526902574652534,-13,-10,-2,3,-1,3,3,2
1526902574652534,-15,0,6,-1,1,-3,-4,-7
1526902574661510,-20,-4,1,1,-1,0,-1,3
1526902574661510,19,-9,-1,2,-5,-15,3,-1
1526902574676470,13,4,-3,-3,2,22,2,-3
1526902574676470,-14,6,-1,-3,-1,-23,-8,0
1526902574678465,-21,-8,2,0,-3,18,8,4
1526902574678465,-33,-2,5,2,-2,5,-5,-14
1526902574699409,18,9,-1,0,0,-10,2,6
1526902574699409,41,8,1,-1,0,2,13,12
1526902574701404,-47,-21,-5,-4,1,25,-9,-25
1526902574701404,-13,10,3,1,-5,-47,-7,-3
1526902574713371,20,-13,-3,-3,-1,15,12,2
1526902574713371,7,5,2,0,0,-5,-11,2
1526902574722347,-8,-4,-5,-2,-2,-12,-2,8
1526902574722347,20,1,-6,-7,-3,17,-2,5
1526902574737307,-13,6,0,-3,-2,-12,-1,1
1526902574737307,11,-4,-3,0,-2,4,4,3
1526902574738305,-10,-4,3,4,2,-11,-13,-18
1526902574738305,-25,-5,1,3,0,10,4,-4
1526902574759249,6,16,1,-3,-1,-3,-4,3
1526902574759249,-22,-19,-6,-2,1,7,-2,-6
1526902574761243,6,2,0,-1,0,-2,9,18
1526902574761243,-1,-3,-4,-2,-3,2,-8,-11
1526902574773211,-15,-7,-3,-3,4,1,1,1
1526902574773211,10,5,3,1,-3,0,4,4
1526902574782188,21,8,5,5,2,-14,3,0
1526902574782188,-22,-19,-8,-3,1,2,-10,-9
1526902574796150,19,13,4,3,1,0,3,4
1526902574796150,-25,8,-1,-4,-2,-5,-3,-12
1526902574803131,40,-14,-5,-2,5,36,-6,15
1526902574803131,18,6,0,-2,-9,-60,-2,-3
1526902574819088,-24,-11,3,2,0,2,6,-21
1526902574819088,28,9,0,1,0,-1,2,3
1526902574821084,-52,-6,1,0,-1,14,5,-2
1526902574821084,9,2,0,-1,1,5,-9,0
1526902574842027,9,-1,-1,1,-1,-5,-4,2
1526902574842027,-22,-14,-7,-5,-3,5,-8,-5
1526902574844023,38,17,-5,-6,-5,-15,-2,3
1526902574844023,-6,-4,2,3,5,27,10,10
1526902574855990,-2,-6,0,-2,-5,-14,-7,-4
1526902574855990,-38,-7,-2,-1,1,5,-2,-5
1526902574862971,25,-7,1,0,-3,-15,1,0
1526902574862971,18,12,0,-1,2,19,19,6
1526902574878929,-11,-5,-2,-1,-3,-25,-44,-1
1526902574878929,18,0,1,1,-1,7,3,3
1526902574880924,-16,4,-1,-1,-2,-20,-16,-8
1526902574880924,0,-10,0,0,1,27,7,-1
1526902574901867,24,-3,-5,-1,-1,6,5,0
1526902574901867,-66,-4,-1,-1,-2,-3,-5,-11
1526902574903863,-9,-10,-2,0,0,-7,-4,-5
1526902574903863,47,9,1,-4,-2,19,0,2
1526902574915830,10,4,1,3,4,-20,-14,0
1526902574915830,32,2,-1,-3,-5,1,-11,8
1526902574922811,-19,2,-1,-1,3,26,25,-10
1526902574922811,-39,-18,-5,0,-6,-57,-40,-1
1526902574939766,-1,9,2,0,-2,9,15,-3
1526902574939766,9,-4,2,-1,0,-7,7,7
1526902574940763,6,1,-2,-1,-1,11,0,-1
1526902574940763,14,0,-5,-1,2,7,3,6
1526902574961707,-21,7,5,-2,-2,-5,-1,-4
1526902574961707,4,-12,-1,3,1,2,10,0
1526902574963702,-10,5,-3,-5,-6,-16,-3,5
1526902574963702,5,0,-4,-1,2,14,4,0
1526902574975670,32,9,-1,0,-2,0,2,0
1526902574975670,-34,-27,-4,-1,0,14,4,-6
1526902574982651,12,8,2,-1,-1,-13,-4,1
1526902574982651,-1,-1,1,-2,-2,3,9,-1
1526902574999606,-21,-8,0,0,2,7,-15,-1
1526902574999606,30,6,-2,0,-4,-4,3,-4
1526902575000603,-22,-7,-1,1,-2,-20,-7,4
1526902575000603,-3,1,0,1,1,14,1,2
1526902575021547,26,-3,-4,-6,-5,2,2,9
1526902575021547,-39,8,1,-1,0,9,8,-3
1526902575023542,-3,0,0,2,2,-1,8,1
1526902575023542,-8,-7,0,0,0,7,-3,-10
1526902575036507,16,0,-6,-4,-5,-5,6,-1
1526902575036507,15,-7,-2,-3,1,-11,-8,3
1526902575042491,-1,5,0,-1,-1,0,6,-4
1526902575042491,18,-3,3,-2,-3,-2,10,9
1526902575059446,-23,-13,-3,-1,1,42,4,-6
1526902575059446,1,10,0,-4,-5,-36,5,-2
1526902575061441,41,-2,1,0,-2,-4,-9,7
1526902575061441,-14,-2,-4,2,-1,-17,-4,-3
1526902575081387,-24,-2,3,-2,1,-2,0,-2
1526902575081387,-9,-1,1,4,3,24,9,-1
1526902575083382,6,-8,-4,-3,1,5,-3,-5
1526902575083382,-10,4,-2,-4,-3,-17,-5,-3
1526902575096347,-4,2,-4,-1,0,7,13,0
1526902575096347,25,-1,-1,-1,-2,-7,-9,5
1526902575103328,-53,6,-1,1,1,5,-4,-12
1526902575103328,-13,-3,0,-1,-3,-15,-9,2
1526902575119286,-23,-2,0,1,-2,-5,-3,-5
1526902575119286,30,5,0,-2,-1,-4,-6,-3
1526902575121281,-10,-2,-1,-1,1,44,-7,-3
1526902575121281,-14,-5,-5,-2,-10,-42,14,1
1526902575142224,28,12,4,2,-2,-10,-19,6
1526902575142224,-1,-1,-2,0,2,-12,-10,-2
1526902575143222,6,-8,-5,-3,-7,7,-11,-3
1526902575143222,-6,2,1,0,8,27,1,-1
1526902575155190,4,-3,-6,-2,-1,-13,7,3
1526902575155190,14,2,-4,-1,0,0,-13,-7
1526902575164166,-11,3,3,1,0,-26,2,-1
1526902575164166,50,-6,2,-2,-3,24,7,7
1526902575179126,-15,-2,-2,-1,-2,2,4,0
1526902575179126,-15,-2,-3,-2,0,8,-1,-1
1526902575181121,8,6,2,0,-2,-18,12,9
1526902575181121,-9,1,-1,0,3,-3,-20,-4
1526902575202065,8,3,-3,-3,-5,-1,1,0
1526902575202065,-32,-8,2,2,5,16,5,-1
1526902575203062,-1,-1,-2,-2,-3,-12,-7,0
1526902575203062,21,3,-1,-1,-2,-2,0,-5
1526902575215030,-20,-9,-3,-1,7,0,-13,-3
1526902575215030,-3,13,5,2,1,1,1,-1
1526902575225003,18,-6,-4,-3,-12,-2,16,1
1526902575225003,-20,-4,-6,-1,4,7,0,-4
1526902575238966,-10,1,6,0,0,11,7,-1
1526902575238966,-3,-4,-1,-2,-3,-13,-5,-2
1526902575240961,-12,2,0,1,4,1,-6,-6
1526902575240961,2,-17,-7,-4,-5,-2,6,-2
1526902575261904,14,3,1,3,-2,-4,4,0
1526902575261904,21,5,0,0,-2,-7,-1,-2
1526902575263899,-5,-9,-2,-1,-1,-6,-5,-2
1526902575263899,-10,6,3,0,-1,5,-1,-2
1526902575275867,-11,-7,0,1,3,14,12,2
1526902575275867,13,-2,-1,-1,-4,-38,-23,-5
1526902575284843,4,3,2,3,0,0,2,-2
1526902575284843,-8,5,1,-2,6,32,4,-3
1526902575299803,-5,-6,-2,0,1,3,-2,-2
1526902575299803,11,1,0,0,-1,12,8,3
1526902575300801,-4,-3,-1,-2,-3,-8,7,-1
1526902575300801,20,17,2,2,0,-1,-5,-7
1526902575321745,-26,-20,-6,-4,-3,20,8,-1
1526902575321745,-2,9,-2,-2,0,33,11,3
1526902575323739,2,7,6,1,-4,-58,-38,1
1526902575323739,28,4,1,0,-1,7,2,-1
1526902575335707,-34,-6,-3,-1,-2,-22,-8,-1
1526902575335707,0,-3,0,0,-4,-7,9,-1
1526902575344683,1,-3,-4,-5,4,65,9,0
1526902575344683,-18,0,0,1,-5,-34,23,6
1526902575359643,14,-1,-4,0,-1,1,0,-4
1526902575359643,-18,-2,1,2,-2,-7,-1,0
1526902575360640,25,3,-3,-3,-2,5,1,2
1526902575360640,-10,-3,0,-3,-2,-7,-9,3
1526902575381584,-5,-1,1,-2,-2,1,2,-6
1526902575381584,25,1,-1,-1,-3,-7,-3,-1
1526902575383579,3,-1,-2,-2,2,19,10,-1
1526902575383579,-22,-14,-6,-2,-2,-5,-7,1
1526902575395547,24,8,2,1,2,-26,-16,2
1526902575395547,-14,-6,-5,-2,5,34,16,-1
1526902575404523,7,3,-1,0,-4,-27,-22,-8
1526902575404523,-7,3,4,2,2,37,9,4
1526902575419483,-25,-4,-1,-2,-13,-74,-4,3
1526902575419483,2,-9,-4,-2,-3,-9,-11,-5
1526902575421478,-12,-3,-3,1,3,25,17,-1
1526902575421478,7,12,-3,-2,-1,0,-9,-9
1526902575441424,-1,-8,5,3,5,-46,-5,0
1526902575441424,7,14,4,2,-2,72,11,7
1526902575443420,6,-11,-4,-2,-5,-34,21,0
1526902575443420,-23,1,3,2,7,19,-37,-5
1526902575455387,21,9,-2,0,-6,-28,7,-3
1526902575455387,11,-1,-3,-3,1,-30,-8,3
1526902575464363,-10,4,2,-2,1,29,5,-6
1526902575464363,-5,-7,-1,0,-8,-67,-13,-1
1526902575479323,6,2,-1,-1,5,47,16,4
1526902575479323,19,5,2,2,-4,-14,0,-8
1526902575481318,-29,-9,-4,-2,6,5,-10,4
1526902575481318,-2,-3,-2,-2,1,27,14,1
1526902575502262,6,2,0,0,-2,-20,-8,-5
1526902575502262,-7,-1,-1,-6,-7,-15,1,-1
1526902575503259,15,4,3,2,0,-11,-3,5
1526902575503259,-27,-8,-2,-5,-4,4,1,-5
1526902575515227,23,4,-6,0,2,37,5,2
1526902575515227,-16,-4,1,-1,-1,0,-4,-3
1526902575524203,-28,-6,-1,0,4,26,-8,-6
1526902575524203,68,9,3,1,-7,-31,14,6
1526902575539163,-34,-2,-5,-4,-4,3,-9,-9
1526902575539163,22,0,-5,-3,-1,1,-2,7
1526902575541158,10,-2,-2,-2,-3,-14,5,2
1526902575541158,-23,-3,1,2,5,26,-10,-13
1526902575562101,25,-5,-1,-4,-3,-19,-1,4
1526902575562101,-41,-11,-2,1,0,-16,-3,-5
1526902575563099,3,-2,2,4,0,1,0,-1
1526902575563099,21,7,1,4,4,35,4,4
1526902575575067,-50,-6,-1,0,-3,-3,11,-5
1526902575575067,24,-4,-4,-2,3,-20,-15,1
1526902575584043,22,5,-6,-4,-4,40,9,1
1526902575584043,-22,-14,-1,1,-3,-45,-1,-2
1526902575599003,0,9,-4,-4,-6,32,-5,-7
1526902575599003,15,1,2,1,2,-2,4,4
1526902575600998,-8,-10,-3,-1,-1,-21,2,2
1526902575600998,0,10,-2,-2,-2,12,2,-7
1526902575621942,-7,-8,0,-1,5,34,-16,-3
1526902575621942,-31,-2,-4,-3,-5,-8,8,-3
1526902575623937,13,3,-1,1,0,-45,-42,-3
1526902575623937,10,4,4,-1,-8,25,12,7
1526902575635904,-46,-8,-2,0,2,-11,-4,0
1526902575635904,22,-3,-4,-3,0,15,0,-7
1526902575644881,-2,6,4,3,1,10,0,-2
1526902575644881,10,2,0,-1,0,-27,-1,7
1526902575659840,8,-4,-4,-4,0,-3,2,0
1526902575659840,8,7,2,2,1,31,-1,-2
1526902575660838,-44,-17,-5,-2,-3,-7,15,-2
1526902575660838,-8,1,-5,-3,-1,-19,-29,-2
1526902575681781,32,7,4,1,-3,-8,8,4
1526902575681781,-4,0,-3,-5,-4,2,-3,5
1526902575683776,-3,4,1,1,1,23,9,-1
1526902575683776,14,-1,0,1,2,-14,12,4
1526902575695744,14,-4,-3,-1,-6,-23,-11,-1
1526902575695744,-8,0,4,0,4,7,-10,-1
1526902575704720,12,7,4,-1,0,-3,0,0
1526902575704720,15,-5,-1,0,5,28,3,-3
1526902575718683,-37,9,-2,-2,1,12,8,2
1526902575718683,-20,-9,-2,0,-2,-7,-2,0
1526902575725664,19,3,-7,-3,-5,-32,-1,-4
1526902575725664,-12,-2,3,-2,7,12,5,-1
1526902575741621,35,4,4,3,-1,6,-7,4
1526902575741621,-19,-7,-1,0,1,-5,4,-7
1526902575743616,-20,-7,-7,-7,-4,8,5,2
1526902575743616,4,-1,-4,-4,-5,-15,-14,-3
1526902575755584,-10,-4,3,2,3,2,4,-3
1526902575755584,59,12,3,3,1,14,14,6
1526902575764560,-33,2,3,0,-1,-18,-13,-2
1526902575764560,-17,-3,-5,-2,-2,12,0,-3
1526902575778523,-12,-7,-1,1,-2,-38,-5,0
1526902575778523,-14,-3,-3,-1,1,41,3,-4
1526902575785504,28,6,2,-3,-6,-31,-26,-1
1526902575785504,-20,-6,-1,0,0,1,7,2
1526902575801461,2,-1,-1,-1,4,16,4,-6
1526902575801461,-16,4,0,0,-7,-19,-3,-1
1526902575803456,28,0,4,3,2,-1,2,6
1526902575803456,-2,-2,-1,3,2,15,7,-3
1526902575824400,21,0,-2,-1,-4,7,0,2
1526902575824400,-24,-6,-4,-4,-3,-35,-21,-3
1526902575826395,4,-3,-2,-3,-1,-5,5,-5
1526902575826395,-11,4,1,4,-1,5,-6,1
1526902575838363,54,12,10,4,6,37,31,10
1526902575838363,-27,-9,-4,0,2,-10,-16,-10
1526902575845344,-21,0,1,0,-4,-31,1,-6
1526902575845344,-29,-7,-7,-8,-3,-8,-6,-6
1526902575862299,25,-1,-3,-2,3,29,6,-3
1526902575862299,-7,3,4,2,-2,-11,1,14
1526902575863296,15,-5,-1,0,-1,8,1,-12
1526902575863296,-9,-1,-1,0,0,-4,4,0
1526902575884240,3,7,-9,-7,-5,-10,-15,-6
1526902575884240,7,-13,0,0,1,-7,4,0
1526902575886235,-17,-2,-1,-3,2,11,1,-5
1526902575886235,10,-2,2,1,0,-9,-5,-5
1526902575899200,-24,-3,1,-1,-1,-4,-9,-2
1526902575899200,12,5,0,1,0,0,6,2
1526902575905184,-15,-4,-7,-1,-2,11,-4,-5
1526902575905184,9,1,-1,-1,-3,4,5,1
1526902575922139,-12,-10,-3,-1,1,-8,-6,-4
1526902575922139,7,8,4,-1,-12,-17,-9,4
1526902575923136,26,2,1,1,0,22,0,4
1526902575923136,-7,-3,-5,-3,3,23,4,1
1526902575944080,5,-3,-1,3,-3,-34,3,0
1526902575944080,-17,3,-4,-3,-5,19,1,-3
1526902575946075,11,3,2,4,2,7,7,8
1526902575946075,3,5,1,-3,-4,-11,-9,5
1526902575959040,51,0,0,2,-2,18,-5,-1
1526902575959040,-76,-8,0,-1,5,-2,2,-10
1526902575965024,8,-6,-6,-3,-2,-6,1,2
1526902575965024,2,-5,0,-2,1,7,2,-5
1526902575981979,-1,9,2,1,-1,-12,1,9
1526902575981979,51,-8,-7,-3,2,1,-2,-6
1526902575983973,-22,-3,1,-2,0,5,-2,-1
1526902575983973,2,0,-3,-2,-3,3,8,-1
1526902576003920,-24,-3,-4,-1,0,-8,-20,-5
1526902576003920,25,0,-2,1,1,-9,-11,-1
1526902576005915,0,3,-2,-2,-1,8,8,4
1526902576005915,17,2,3,2,1,-26,-30,-1
1526902576018880,-18,-1,-1,-1,-3,13,8,-3
1526902576018880,27,4,2,1,3,5,12,2
1526902576025861,-40,-9,-5,-4,-2,13,-3,-5
1526902576025861,-7,1,-3,-2,0,-18,-8,-6
1526902576041819,0,0,2,-1,1,1,1,5
1526902576041819,8,-2,0,4,2,-16,0,1
1526902576043814,18,2,2,1,-3,7,9,-6
1526902576043814,-27,-1,-1,-3,1,-12,15,-2
1526902576064757,-9,-4,-2,-2,-2,10,-2,3
1526902576064757,24,6,-4,-6,-2,4,9,1
1526902576065755,-11,-10,-4,-2,1,-24,-9,0
1526902576065755,-15,-4,1,0,2,35,15,4
1526902576078720,-13,-5,-1,-4,-5,-14,-7,-5
1526902576078720,28,15,7,3,1,-4,15,3
1526902576085701,-2,2,-1,-1,-1,11,-1,0
1526902576085701,18,-7,-4,-2,-3,-9,-8,-6
1526902576101659,-22,3,-3,-1,1,8,0,5
1526902576101659,20,2,-2,-4,-2,-6,-6,6
1526902576103653,17,4,5,2,0,-11,1,0
1526902576103653,-5,-2,-5,-3,-2,-2,-1,0
1526902576124597,-1,-8,0,0,-2,-9,2,-6
1526902576124597,-24,-2,-1,-2,1,16,0,-1
1526902576125595,7,6,0,4,4,31,12,2
1526902576125595,19,-9,-3,-2,-8,-49,-32,1
1526902576138560,2,6,-1,-1,0,7,14,3
1526902576138560,-11,3,-1,-1,-1,-16,-10,-5
1526902576145541,-7,-12,0,1,2,9,2,-4
1526902576145541,9,8,2,2,8,12,-3,2
1526902576161498,-8,-2,-4,-5,-4,8,6,-4
1526902576161498,-16,-4,2,1,3,2,2,-4
1526902576163494,-6,8,6,0,-3,-27,-24,-3
1526902576163494,60,0,-4,0,-3,7,14,7
1526902576184437,27,2,0,3,1,-4,-7,-1
1526902576184437,-92,-10,-7,-4,-2,5,0,-10
1526902576186432,-4,3,2,-2,1,-9,-8,-3
1526902576186432,-4,-3,2,0,-3,1,3,3
1526902576198400,-25,-8,1,1,2,9,-4,-3
1526902576198400,21,-6,-3,0,-3,-6,-8,-5
1526902576205381,-2,4,-3,-2,-1,1,2,11
1526902576205381,-11,3,-2,-4,-2,1,5,-4
1526902576222336,11,-1,-7,-1,-1,-2,-2,1
1526902576222336,-5,-6,1,-3,1,-2,-4,-2
1526902576223334,3,5,2,-1,0,-7,-1,2
1526902576223334,3,5,4,3,2,16,8,4
1526902576244277,-19,1,-2,-1,-1,-13,-9,-7
1526902576244277,-32,-15,-3,1,0,8,1,0
1526902576246272,28,0,-2,-2,-3,-31,9,5
1526902576246272,-7,-3,-1,-3,0,11,-1,-6
1526902576258240,-16,0,0,-1,-1,13,0,2
1526902576258240,29,10,3,2,2,-12,-2,3
1526902576265221,43,3,-3,1,-3,-4,5,-1
1526902576265221,-90,-10,-8,-4,7,17,6,-4
1526902576282176,-7,-2,0,0,0,8,-2,-5
1526902576282176,7,1,-2,-3,-4,-3,0,3
1526902576283174,11,0,2,1,1,9,-4,0
1526902576283174,18,0,1,1,-4,-15,-12,-6
1526902576304117,6,1,-3,-4,-2,12,3,-3
1526902576304117,-12,-8,-3,0,-1,-14,-17,2
1526902576306112,3,1,-3,-3,0,-2,2,3
1526902576306112,-14,-2,-3,0,-3,-3,-4,-3
1526902576318080,16,-7,2,-2,-3,-15,2,2
1526902576318080,3,0,-3,-3,-5,3,6,-2
1526902576327056,-28,-5,-3,-3,0,6,-3,-4
1526902576327056,43,8,2,2,-1,-3,-2,2
1526902576342016,-29,-5,-2,0,0,-6,-2,3
1526902576342016,23,-5,-2,-4,-2,23,-2,0
1526902576344011,12,5,0,0,-3,-10,18,-1
1526902576344011,-31,-14,-3,-1,-2,-13,-33,-4
1526902576363957,16,5,1,2,-2,-12,14,3
1526902576363957,10,3,2,1,0,-7,5,2
1526902576365952,4,-1,0,0,2,18,3,2
1526902576365952,-4,0,0,-2,-4,-2,11,0
1526902576377920,24,-2,0,0,1,-7,-12,1
1526902576377920,-9,8,-1,-3,-8,7,-2,3
1526902576386896,-27,-6,-5,-3,0,-15,-2,-6
1526902576386896,13,3,1,2,-2,2,2,4
1526902576401856,-32,-9,-2,-1,3,3,-8,-5
1526902576401856,26,3,0,-1,2,-2,5,-3
1526902576403851,-5,0,-2,1,-3,0,-4,4
1526902576403851,10,6,0,-3,-4,-3,1,-9
1526902576424794,1,-8,-2,1,2,1,1,4
1526902576424794,-9,-4,-1,-1,-2,-9,6,-3
1526902576425792,0,2,2,0,2,13,-5,4
1526902576425792,14,5,1,-1,2,5,5,7
1526902576437759,20,3,-1,-3,-5,3,-4,-7
1526902576437759,-26,6,-1,-1,1,-17,-13,-3
1526902576446736,-23,-14,-5,-2,-3,6,4,-3
1526902576446736,3,13,2,3,0,14,17,2
1526902576461696,24,6,3,1,0,-5,-1,1
1526902576461696,7,-3,-2,0,1,4,0,4
1526902576463691,38,10,-2,-2,0,15,0,-3
1526902576463691,-17,-16,-3,-3,-3,-53,-8,3
1526902576484634,-26,1,2,1,1,9,-1,4
1526902576484634,3,-3,-8,-4,-3,-3,-4,-8
1526902576485632,13,8,6,1,1,5,1,1
1526902576485632,-11,-4,-5,-3,-10,-5,5,-3
1526902576497600,8,6,6,1,7,2,-2,0
1526902576497600,-18,-5,-3,-1,0,-3,4,3
1526902576506576,7,-3,-4,-4,-2,1,-2,-5
1526902576506576,-11,-3,-2,-1,-2,-3,-17,-5
1526902576521536,-4,1,-4,-4,-5,3,-8,-3
1526902576521536,25,1,5,2,0,9,3,2
1526902576523531,12,4,-1,1,-2,-11,0,-4
1526902576523531,-36,-6,0,-1,4,9,-1,-7
1526902576544474,32,-3,-4,1,-4,-3,6,2
1526902576544474,-8,-6,-3,-1,2,4,2,3
1526902576546469,8,-3,-4,-3,-4,-12,-10,6
1526902576546469,3,1,3,2,0,5,1,-13
1526902576558437,-26,0,-1,-1,1,0,-7,-7
1526902576558437,50,18,3,-1,-2,-2,2,4
1526902576567413,-47,-23,-6,-3,-2,-11,-7,3
1526902576567413,21,-6,-1,-2,1,20,0,3
1526902576582373,-6,3,0,-1,-3,-5,4,0
1526902576582373,-8,-7,-2,1,1,-5,-3,-5
1526902576583371,-16,0,2,-1,-1,6,6,-5
1526902576583371,34,13,0,-1,2,-16,-13,3
1526902576604314,-10,-6,-3,-4,-5,21,8,1
1526902576604314,-14,-11,-7,-4,1,-1,-5,0
1526902576606309,0,14,2,3,-1,-1,5,-5
1526902576606309,0,-10,0,1,0,12,6,-1
1526902576618277,-22,3,0,0,0,-12,-5,-2
1526902576618277,-12,-12,-6,-2,-3,-5,-2,-3
1526902576627253,4,6,1,0,2,8,-4,4
1526902576627253,31,3,0,-1,-1,-15,-1,-1
1526902576641216,1,9,1,-2,-5,-4,2,3
1526902576641216,-24,-5,1,0,-1,29,14,2
1526902576648197,-33,-5,-3,-4,-4,-39,-30,-7
1526902576648197,-9,-5,0,1,0,0,6,0
1526902576664154,35,-1,-3,-1,-1,-8,0,5
1526902576664154,-20,-3,3,0,2,4,-5,-6
1526902576666149,28,5,-2,-3,-4,0,-5,-2
1526902576666149,-16,-10,-1,0,1,6,5,5
1526902576678117,-9,-8,-3,-1,1,-2,-6,-5
1526902576678117,-5,6,-3,-2,-3,-7,-1,0
1526902576687093,31,2,-1,-1,2,4,6,2
1526902576687093,-36,1,-2,-3,0,1,5,-1
1526902576701055,3,-9,-4,-1,1,5,-3,-2
1526902576701055,18,15,4,1,-2,-28,-14,-10
1526902576708037,-14,-11,1,-1,0,4,2,0
1526902576708037,-31,-5,-4,-2,-4,4,-8,-10
1526902576723994,33,9,2,1,-1,-2,-4,5
1526902576723994,12,1,-3,-3,1,9,6,3
1526902576725989,-26,-2,-2,-3,-6,-27,-4,-4
1526902576725989,51,6,2,0,0,6,3,6
1526902576746933,-69,-3,-2,-3,-1,-2,-1,-12
1526902576746933,17,2,2,-2,-1,17,1,7
1526902576748928,5,-5,-3,0,0,-21,-8,-3
1526902576748928,9,0,-1,-1,-4,-4,5,2
1526902576760895,18,-1,-4,-2,1,9,5,-2
1526902576760895,-31,-7,6,5,2,0,0,-3
1526902576767877,-17,-2,-2,-2,0,14,2,6
1526902576767877,52,8,-3,-2,-3,-7,-5,-1
1526902576784831,-35,-3,0,1,0,-7,-4,2
1526902576784831,6,-3,-1,1,0,2,-1,-8
1526902576785829,7,-4,-2,-3,0,12,15,4
1526902576785829,-13,1,-1,-1,1,-2,-6,-5
1526902576806773,3,3,-1,-1,-2,0,2,0
1526902576806773,-12,2,1,0,-2,1,1,4
1526902576808768,5,-6,0,1,0,-4,-4,-6
1526902576808768,-10,4,1,-2,-1,4,3,0
1526902576820735,14,-5,-2,1,0,-8,1,-4
1526902576820735,-17,5,0,-1,-2,-7,-9,1
1526902576827717,1,-1,1,2,5,16,-2,-5
1526902576827717,-42,-2,-2,-5,-5,-13,3,4
1526902576844672,49,3,0,-3,-2,6,3,2
1526902576844672,-22,-2,0,3,0,-6,-2,-1
1526902576845669,-6,-5,-5,-3,-2,-1,-5,-4
1526902576845669,-9,2,1,2,4,10,-8,-1
1526902576866613,-13,3,2,2,-4,-3,22,5
1526902576866613,47,0,-7,-3,0,-4,-1,0
1526902576868608,-17,9,6,-1,-2,3,-1,3
1526902576868608,-21,-9,-3,0,-2,-8,-8,-12
1526902576881573,25,3,-2,-3,-1,-2,-6,3
1526902576881573,-20,-6,-3,-2,-1,-1,2,2
1526902576887557,16,-6,0,3,-1,-2,7,-12
1526902576887557,32,11,-4,-7,-2,-2,-16,4
1526902576904511,-57,-15,-4,-3,0,1,-5,-4
1526902576904511,18,5,3,1,-1,-1,3,3
1526902576905509,-28,-1,-2,0,0,-1,-1,-2
1526902576905509,4,-1,2,1,0,2,3,-1
1526902576926453,5,-2,-5,-2,-2,-3,-4,0
1526902576926453,-5,-11,-2,-3,-3,-9,-6,1
1526902576928448,-54,-5,-1,0,-1,5,4,4
1526902576928448,51,25,3,2,1,3,4,9
1526902576941413,-43,-27,-9,-5,-2,-6,-9,-14
1526902576941413,28,0,0,-1,-1,0,1,-7
1526902576948395,28,-20,-10,-6,-3,1,1,15
1526902576948395,-50,-11,-1,0,-2,-1,1,-8
1526902576964351,21,21,6,-1,-2,-11,-8,5
1526902576964351,49,12,2,1,-1,5,-3,-4
1526902576966346,-19,0,-1,-3,-1,9,2,-5
1526902576966346,-11,-19,-7,-3,-1,1,12,6
1526902576987290,-10,6,7,3,3,-1,-10,2
1526902576987290,2,-5,1,-1,0,-13,6,0
1526902576988288,24,-9,-3,1,-3,-17,-20,-4
1526902576988288,-9,8,1,0,1,31,18,2
1526902577000255,75,18,2,1,-1,-21,-7,5
1526902577000255,-7,-10,-7,-6,2,25,8,-9
1526902577009231,-28,-3,-1,1,-2,1,-3,-7
1526902577009231,51,10,1,1,-1,-8,-6,1
1526902577024191,-37,-11,-4,-1,-2,3,-3,-6
1526902577024191,-37,2,-2,2,-2,-12,-6,-2
1526902577026186,41,0,3,0,1,14,14,3
1526902577026186,-18,-6,0,-3,-2,-10,-6,-2
1526902577047130,-6,3,0,-1,0,3,0,-4
1526902577047130,-17,-6,0,1,-3,1,4,2
1526902577048128,50,8,-8,-7,-4,-17,-18,0
1526902577048128,-18,1,-1,1,3,1,4,0
1526902577060096,-25,-5,-2,0,1,6,4,-2
1526902577060096,22,-7,1,-2,-1,1,7,2
1526902577069071,-30,12,7,6,3,-1,-11,-5
1526902577069071,0,-2,-2,-1,-1,-13,-3,5
1526902577084031,29,-1,1,-1,-3,-1,0,-4
1526902577084031,0,-8,-5,-3,7,42,7,0
1526902577086026,41,22,4,0,0,-15,-4,-3
1526902577086026,-33,-3,3,5,-2,-18,23,-8
1526902577106970,-7,-18,-4,0,-1,12,1,2
1526902577106970,-11,14,6,-2,-3,-13,-12,-4
1526902577108965,-23,0,3,3,3,12,8,1
1526902577108965,18,-12,-9,-8,-3,4,-11,-3
1526902577120933,-23,5,0,1,-1,-9,-9,-11
1526902577120933,-10,-2,-2,-2,-2,-5,-1,6
1526902577129909,0,10,3,1,0,19,7,-2
1526902577129909,25,3,-2,-1,-4,-24,-5,4
1526902577144869,1,8,2,1,0,5,6,1
1526902577144869,6,-14,-7,-1,-3,-9,-8,-2
1526902577145867,-21,5,1,-1,-3,-7,4,2
1526902577145867,-54,-4,2,2,2,12,1,-4
1526902577166810,36,-3,-2,-2,-1,0,0,6
1526902577166810,-3,10,4,1,-3,-11,-6,2
1526902577168805,12,-5,-1,1,6,-6,16,11
1526902577168805,-14,-10,-2,-3,-4,28,-2,-8
1526902577180772,0,-4,-1,0,2,-8,-5,-8
1526902577180772,28,7,-1,-1,0,-6,-5,4
1526902577187754,-64,-16,-6,-1,-2,14,14,-7
