timestamp,emg1,emg2,emg3,emg4,emg5,emg6,emg7,emg8
1576152971414078,-8,3,-4,0,6,-2,-1,-1
1576152971414078,-15,5,7,-1,-10,-12,-11,-21
1576152971415074,2,-3,4,2,-7,-3,1,-3
1576152971415074,10,-5,-7,0,5,6,7,16
1576152971416069,0,0,-6,-2,2,1,-1,3
1576152971416069,-7,0,4,-1,-3,-7,-8,-13
1576152971420162,-3,1,3,0,-5,-6,-4,-9
1576152971420162,7,-4,-5,-1,4,9,7,15
1576152971422112,-3,-3,-6,-3,2,2,2,4
1576152971422112,-11,1,4,-1,-5,-4,-6,-12
1576152971442047,-1,1,4,-1,-6,-8,-4,-4
1576152971442047,12,-3,-6,-2,4,7,7,12
1576152971442997,-3,-2,-2,-3,4,-3,-1,2
1576152971442997,-8,4,0,-4,-10,0,-8,-13
1576152971449015,-3,-1,1,1,-3,-2,2,-4
1576152971449015,4,-2,-4,-1,3,2,5,6
1576152971455965,-3,1,-2,-1,3,-1,-2,-1
1576152971455965,-8,-1,2,1,0,-6,-4,-10
1576152971493862,0,-3,0,0,-3,2,-4,-1
1576152971493862,3,-3,-5,0,5,0,3,9
1576152971494860,-2,-2,-1,-2,-1,1,0,-5
1576152971494860,-1,-1,0,0,-3,-2,-1,-4
1576152971503838,0,0,1,1,-2,-4,-4,1
1576152971503838,-1,-1,-2,-2,2,1,0,3
1576152971504832,-1,2,-2,1,-1,-1,-3,0
1576152971504832,-2,0,-1,-1,-1,-1,-3,-1
1576152971516907,0,-2,1,-1,0,2,1,-1
1576152971516907,4,-1,-1,-1,3,1,0,0
1576152971517799,0,-1,0,0,-3,0,1,-5
1576152971517799,-1,0,-1,0,1,-2,-5,-2
1576152971563701,5,-1,-8,-3,9,6,7,14
1576152971563701,-13,0,1,-5,-3,-5,-6,-12
1576152971564673,-6,2,7,-1,-11,-9,-7,-15
1576152971564673,10,-5,-3,-2,2,3,5,8
1576152971568685,4,-3,-6,-1,4,5,3,9
1576152971568685,-8,0,-2,-3,2,-5,-3,-6
1576152971569659,-9,2,5,0,-6,-6,-8,-15
1576152971569659,9,-3,-1,-1,-2,2,5,9
1576152971575645,8,-2,-4,-1,7,5,7,9
1576152971575645,-6,1,-3,0,-3,-4,-3,-3
1576152971584619,-12,2,5,0,-7,-7,-6,-16
1576152971584619,7,-3,-1,2,-1,1,3,7
1576152971590659,1,-2,-6,-3,6,6,4,7
1576152971590659,-8,1,-1,-2,1,-8,-6,-7
1576152971606562,-3,2,3,-3,-5,-5,-4,-9
1576152971606562,4,0,-1,0,-2,3,4,8
1576152971613559,1,-3,-7,-1,0,6,2,7
1576152971613559,-3,-1,1,-1,0,-2,-5,-6
1576152971636486,-5,-2,2,0,-4,-6,-6,-7
1576152971636486,3,-3,-6,-1,1,5,3,5
1576152971637480,3,0,-1,0,2,-3,2,2
1576152971637480,-5,-2,-1,-2,1,1,-3,-6
1576152971651547,3,-1,0,1,-7,-3,-3,-2
1576152971651547,2,1,-1,-1,1,1,-2,0
1576152971652439,-1,-5,-5,-2,1,0,-1,2
1576152971652439,-1,-1,1,-1,-3,0,2,-4
1576152971673485,-3,-2,0,0,-1,-2,-1,-3
1576152971673485,2,-3,-1,2,0,-1,1,3
1576152971674382,2,0,1,0,0,1,1,2
1576152971674382,-2,1,-2,1,-1,-1,-3,1
1576152971696374,-1,1,0,-3,-1,2,-2,-4
1576152971696374,0,1,-1,1,1,0,2,0
1576152971697319,0,0,-2,-1,1,-3,1,-1
1576152971697319,-1,1,3,-2,-3,4,1,-1
1576152971711333,-1,-1,-3,0,-2,-3,-2,-3
1576152971711333,1,-4,-2,-4,2,-1,-2,-1
1576152971712280,-2,-2,0,0,-2,3,0,1
1576152971712280,-1,2,1,-1,0,-5,-1,-4
1576152971734251,-1,0,-2,2,1,0,-3,-2
1576152971734251,4,-2,2,0,0,2,2,3
1576152971734251,3,-1,-2,0,0,-1,-1,-2
1576152971734251,-1,-5,-2,1,-2,-2,-2,3
1576152971781149,-1,-2,2,-1,-3,1,-1,1
1576152971781149,-1,-3,-3,0,-1,0,-2,0
1576152971781149,-1,-3,0,-2,-1,-3,-2,3
1576152971781149,0,0,-1,-1,-1,0,0,-3
1576152971783089,1,-1,-1,-1,1,-3,-1,-4
1576152971783089,1,-2,-4,-2,-1,2,2,0
1576152971795088,2,0,-1,-2,-1,4,1,-1
1576152971795088,1,1,-1,-2,-4,-11,-2,-4
1576152971797051,0,-1,0,-1,-3,6,-1,-2
1576152971797051,2,1,-1,-1,-2,-2,1,0
1576152971797051,-4,1,1,0,0,-1,-5,1
1576152971797051,-1,3,0,1,0,0,-1,-2
1576152971833014,1,0,0,0,0,-1,1,0
1576152971833014,-3,-1,-1,-2,0,-5,-1,2
1576152971833014,0,-2,1,-1,-1,1,-1,0
1576152971833014,-3,0,-1,2,-1,1,-6,-2
1576152971834949,0,-4,-1,1,-1,-2,-1,1
1576152971834949,2,-1,-1,-2,0,1,-1,1
1576152971838973,-4,2,-4,-1,0,-6,0,-2
1576152971838973,-2,-1,0,-1,-4,-1,0,0
1576152971853956,-1,0,-1,-1,0,-2,0,0
1576152971853956,0,0,-2,0,-2,0,1,2
1576152971854896,0,0,-2,0,-2,-1,0,-4
1576152971854896,2,-1,-2,1,-1,1,-2,-2
1576152971883925,-1,-2,-1,-1,1,3,-1,0
1576152971883925,3,0,-1,2,0,2,1,-2
1576152971891904,-1,1,-1,-2,1,0,-4,-2
1576152971891904,-1,-1,-1,-1,-2,-2,-1,0
1576152971893793,-3,0,-2,-1,-3,0,0,0
1576152971893793,2,-2,-1,-2,1,0,1,0
1576152971898782,1,-3,-3,-1,-3,1,-1,1
1576152971898782,-1,0,0,-1,-2,0,1,-1
1576152971913846,-2,1,-1,-1,2,0,-1,0
1576152971913846,2,0,2,-1,-4,0,-3,3
1576152971914738,-2,0,-1,-1,0,-3,-2,-2
1576152971914738,0,-2,-2,-1,1,-1,-2,-3
1576152971945656,0,0,-1,1,-3,-3,-3,1
1576152971945656,-3,-1,-1,0,3,3,-2,-3
1576152971946651,-5,-2,-2,0,-3,-4,0,-1
1576152971946651,0,0,2,-2,-2,-3,-3,-1
1576152971950693,2,-3,0,-3,0,-1,3,1
1576152971950693,2,-3,-2,0,2,2,-1,1
1576152971958674,-3,0,-1,-2,-1,-3,-1,-2
1576152971958674,-1,-2,-3,0,-3,2,2,-2
1576152971973582,3,-2,-1,-1,0,-1,0,0
1576152971973582,1,0,-3,-2,2,0,0,2
1576152971974577,-1,1,-2,-4,-5,-5,-5,-1
1576152971974577,0,0,-1,-3,-1,-1,1,-1
1576152971996622,-1,1,-3,-1,-2,-1,1,2
1576152971996622,-3,-1,-3,-2,0,-5,4,1
1576152971997517,-1,-4,-1,1,1,-1,-1,2
1576152971997517,-2,-2,1,-1,0,-2,-2,-2
1576152972010587,5,-3,1,0,-1,1,1,0
1576152972010587,-2,0,-2,-3,-2,-1,-1,1
1576152972018460,-1,-1,0,-1,2,-2,1,0
1576152972018460,1,2,0,-1,-1,-1,-2,-2
1576152972049483,-2,0,-2,0,-2,2,-2,-1
1576152972049483,2,-1,1,0,0,-2,-3,-1
1576152972050378,2,-2,-1,0,1,-1,-2,1
1576152972050378,-2,-1,-2,-2,-3,1,-1,-1
1576152972056360,0,2,-1,-2,0,1,0,-2
1576152972056360,-2,-1,-3,0,-2,0,0,4
1576152972057359,0,2,-1,-1,0,2,-2,-3
1576152972057359,3,0,1,2,0,-1,0,0
1576152972070421,-3,0,-2,-1,0,-5,0,0
1576152972070421,1,-3,0,-1,1,-1,0,1
1576152972079336,-1,1,0,0,-4,-2,1,-6
1576152972079336,2,-1,0,-1,-1,3,0,4
1576152972094304,1,-1,0,-2,0,1,1,0
1576152972094304,0,0,-1,2,0,-3,0,-2
1576152972094304,-2,-2,0,-1,2,1,-3,0
1576152972094304,0,-1,0,-1,-3,-1,1,-1
1576152972116299,1,-3,1,1,0,1,3,2
1576152972116299,-2,-1,-2,-3,-4,0,0,0
1576152972117197,1,-2,2,-1,-1,-1,0,-2
1576152972117197,-2,-1,-1,-1,0,1,3,-2
1576152972139140,5,-2,-2,1,1,4,-2,-1
1576152972139140,-1,-1,-2,1,-1,-8,-7,0
1576152972140137,-3,1,-2,0,-1,-2,0,-4
1576152972140137,-4,-2,0,-1,1,0,-8,-4
1576152972155199,-3,-1,-2,-2,1,-1,1,1
1576152972155199,2,-1,-1,2,0,2,1,0
1576152972161174,0,-1,-1,-1,-2,0,-1,-1
1576152972161174,-2,0,1,0,-1,-5,-1,-3
1576152972176140,-1,0,0,-2,-2,-1,-3,-2
1576152972176140,-1,2,-1,-3,4,3,0,-2
1576152972177054,-2,0,-2,1,-4,-1,2,-3
1576152972177054,0,1,-2,-1,-1,4,-1,-2
1576152972198981,1,0,-1,0,-1,-4,0,1
1576152972198981,0,-1,-3,-3,4,2,-2,-3
1576152972199980,-2,1,0,0,0,-1,-6,0
1576152972199980,-5,2,0,-2,-3,-2,2,-1
1576152972213971,1,-3,0,0,-2,-3,-2,0
1576152972213971,-2,-2,0,-2,0,-3,0,0
1576152972214934,0,-3,-1,-1,0,2,-2,-1
1576152972214934,2,2,-1,1,0,3,0,-1
1576152972235912,2,-1,-2,-1,0,-5,1,2
1576152972235912,-2,-1,-1,-1,-3,4,-2,0
1576152972236881,-1,0,-2,0,0,-4,-2,2
1576152972236881,-1,2,0,0,-2,1,-1,0
1576152972258852,-2,0,-2,-4,1,0,2,0
1576152972258852,-3,-3,0,-1,-2,-1,-1,-2
1576152972259814,0,1,-1,-1,-1,0,-1,-3
1576152972259814,2,0,-1,1,-1,-3,-1,-1
1576152972273815,3,-2,0,1,1,-1,0,-2
1576152972273815,-2,-1,-2,2,-2,5,2,4
1576152972274775,-1,-2,-1,-2,1,-3,-2,-2
1576152972274775,-1,-2,-2,0,-2,-4,-3,-1
1576152972295752,1,-2,-1,1,0,2,-1,1
1576152972295752,2,-1,0,-3,-1,0,0,-1
1576152972296721,-3,-1,0,-2,-2,-2,1,-3
1576152972296721,1,-1,1,-1,2,2,0,-4
1576152972335612,-2,0,-3,-2,1,-7,-2,2
1576152972335612,-1,-2,-3,-1,-4,0,0,-2
1576152972336609,3,0,0,-2,1,-1,-1,-2
1576152972336609,-2,-2,0,1,-2,-2,-3,-2
1576152972338605,-1,-1,1,0,2,5,4,1
1576152972338605,-3,-1,-3,0,3,-2,-1,3
1576152972341597,-1,-2,-1,-3,-1,-2,0,-1
1576152972341597,1,-2,-2,-3,0,-4,-2,0
1576152972356556,2,-2,-2,0,-2,2,-1,3
1576152972356556,-3,-1,-2,0,-1,4,1,-1
1576152972356556,0,0,2,-2,-1,-3,-3,-1
1576152972356556,3,0,-1,-1,0,-3,1,1
1576152972388474,3,1,-2,-2,-4,-4,-1,-2
1576152972388474,1,0,-1,-1,-2,0,3,1
1576152972389468,1,0,0,3,1,-2,-3,-2
1576152972389468,-3,-2,-1,-2,-3,-1,-3,-1
1576152972393458,0,-2,-1,-1,-1,0,0,2
1576152972393458,-1,-2,0,-2,1,-1,0,0
1576152972394455,-1,0,-2,0,0,0,0,0
1576152972394455,-1,0,0,-2,1,2,2,-2
1576152972416396,1,-5,2,2,2,2,2,1
1576152972416396,4,-2,-1,0,3,-1,-1,-2
1576152972417394,-5,0,0,-1,-1,-2,4,-2
1576152972417394,0,-2,-1,0,0,3,0,-4
1576152972440333,0,0,-1,-1,-2,0,-2,1
1576152972440333,-1,0,-1,0,0,-4,3,2
1576152972441335,-1,0,-2,-1,-2,5,-5,1
1576152972441335,-1,-2,-2,1,-1,-3,-2,0
1576152972453298,3,2,-2,-1,3,1,1,-2
1576152972453298,2,0,-3,0,-5,1,-1,0
1576152972454295,-2,1,-2,-1,-2,-5,-1,-4
1576152972454295,1,-4,0,-1,0,0,0,2
1576152972491202,0,-2,-2,-1,0,-1,0,-1
1576152972491202,1,1,-2,-1,-1,1,1,2
1576152972500172,-1,-5,-1,0,0,1,-2,-2
1576152972500172,0,-1,-1,0,-4,0,-1,0
1576152972502168,1,-4,-2,-1,-1,-3,-2,-2
1576152972502168,3,0,1,-2,2,-1,-3,2
1576152972502168,-6,-1,1,1,0,-1,-2,-3
1576152972502168,-1,-1,-1,-1,-2,-5,-1,1
1576152972514136,3,1,-1,-1,0,4,1,1
1576152972514136,-3,-2,-2,-1,0,-1,-1,-1
1576152972514136,2,-2,-1,0,2,0,-3,-4
1576152972514136,-3,0,2,-2,-3,-1,-3,0
1576152972551708,-1,-3,-5,0,-3,4,-1,3
1576152972551708,0,-1,-1,0,1,-4,-3,-3
1576152972552706,0,1,0,-2,-2,1,1,2
1576152972552706,-5,-2,0,-3,-1,-3,-1,-4
1576152972558699,2,1,1,2,-1,-4,1,-1
1576152972558699,0,-1,-1,1,1,-2,-2,-1
1576152972559692,-3,-1,-1,-1,-4,0,-2,-1
1576152972559692,-4,1,0,-1,0,-2,-1,-1
1576152972581632,1,0,1,-2,3,3,0,-2
1576152972581632,0,-1,-2,0,0,-3,0,-1
1576152972582625,-3,0,0,0,-3,0,1,-2
1576152972582625,-1,-1,-1,1,1,1,1,-4
1576152972595590,-3,-3,1,-1,-1,4,-2,3
1576152972595590,-6,-3,-1,-2,-1,3,-2,-1
1576152972603571,0,4,-2,-1,-2,-1,0,0
1576152972603571,-2,-4,-2,0,-1,-2,-5,-5
1576152972618290,-1,-1,-3,-2,0,1,3,2
1576152972618290,2,-2,0,-1,-1,-3,0,-2
1576152972619260,-2,-1,0,-2,-2,-2,-2,-1
1576152972619260,-2,2,0,0,-1,2,0,-2
1576152972649179,-2,0,-2,-1,-1,0,1,1
1576152972649179,-3,1,-1,-3,-2,2,-1,0
1576152972650177,-2,-2,2,-1,0,-4,-1,-2
1576152972650177,3,-1,3,0,-1,-2,-2,-1
1576152972655165,1,-1,-1,0,-2,2,-1,0
1576152972655165,-3,1,-2,1,5,1,0,1
1576152972664140,-1,-1,-1,-1,-4,-5,-3,-5
1576152972664140,-1,-3,-1,-1,-2,2,-3,-1
1576152972679101,4,0,-2,-2,0,-2,2,3
1576152972679101,-1,-2,-2,-3,-1,1,-1,-3
1576152972679101,-2,-1,0,0,0,1,-1,-3
1576152972679101,-3,1,-3,-1,-2,-2,1,0
1576152972701042,-1,-3,0,0,-2,1,-1,0
1576152972701042,-1,0,-3,0,-1,-2,0,2
1576152972709020,-3,0,2,-1,-3,0,0,-2
1576152972709020,-1,1,-1,-1,-1,-4,2,-2
1576152972723980,-1,-3,2,0,3,0,-2,2
1576152972723980,1,0,-1,-1,-1,-3,-3,0
1576152972724977,-1,-1,0,-1,-4,-2,-2,-1
1576152972724977,-2,-3,-1,0,-2,-2,0,-1
1576152972738940,-1,1,-1,-1,-1,-2,2,1
1576152972738940,0,0,2,-1,0,2,0,-2
1576152972739939,3,-2,-1,-1,2,-5,-4,-1
1576152972739939,2,-3,1,1,-2,-4,-2,-1
1576152972769859,0,-3,-5,-3,-3,4,1,2
1576152972769859,-1,-1,0,1,1,-1,4,-2
1576152972769859,-1,-3,-1,1,2,1,2,-1
1576152972769859,1,0,0,-1,-1,1,-2,0
1576152972784904,0,1,-2,-2,-2,-5,-1,1
1576152972784904,-2,-2,-2,0,-1,2,-3,2
1576152972784904,-3,0,-2,-3,-1,1,-1,0
1576152972784904,-1,1,0,0,-1,1,0,-2
1576152972798782,3,0,-3,0,1,0,0,-1
1576152972798782,1,-1,-1,0,-5,-1,-1,-3
1576152972799780,2,1,1,-2,-1,1,-4,-1
1576152972799780,-1,-2,0,-1,-1,-3,-1,-2
1576152972821722,2,3,-1,-1,0,6,2,0
1576152972821722,-1,-1,-1,1,0,-6,-2,1
1576152972828703,2,0,-1,0,-2,-2,-1,0
1576152972828703,-1,0,1,1,-1,0,-1,1
1576152972844702,0,-2,1,-1,2,-4,-3,0
1576152972844702,0,1,0,-1,-1,2,-3,-2
1576152972845657,-1,0,-1,-2,-2,-2,1,-3
1576152972845657,-1,3,-1,-2,-5,2,-1,-2
1576152972858622,1,-2,-2,0,0,2,-2,0
1576152972858622,-5,-2,-1,-3,2,-1,-1,0
1576152972859617,-3,0,1,0,2,0,-2,-2
1576152972859617,0,-4,-1,-1,-4,0,0,-2
1576152972883556,-1,-1,1,1,0,-3,-2,-1
1576152972883556,-1,0,-3,-2,-2,-2,-2,-1
1576152972884552,-1,0,-2,0,1,-3,-4,-3
1576152972884552,2,-3,0,0,1,-2,-1,-1
1576152972904541,-1,-1,-3,-2,-3,-2,-1,0
1576152972904541,-3,-2,-2,-3,0,-1,-2,-4
1576152972905500,-4,-3,2,1,-1,-4,2,-4
1576152972905500,-1,1,-2,0,0,-1,-2,-1
1576152972926438,1,-2,-1,1,0,2,-2,-2
1576152972926438,2,0,0,-1,-1,0,1,-2
1576152972933463,-1,0,-1,0,-2,-6,1,-2
1576152972933463,-5,1,-1,-2,-3,-1,-1,1
1576152972942434,-1,1,-2,-2,-1,-3,1,-2
1576152972942434,-5,-1,-2,0,-2,-2,-3,-2
1576152972942434,-5,3,2,1,-3,2,-3,-3
1576152972942434,-5,-1,0,0,2,-3,0,0
1576152972964339,-3,0,-1,-1,0,-1,-2,-3
1576152972964339,0,-2,-2,-2,-2,-1,1,0
1576152972965335,-3,-3,0,-2,-1,1,2,-1
1576152972965335,-1,-1,-3,-2,-2,1,1,0
1576152972994325,-1,-3,-1,-1,0,3,-3,4
1576152972994325,0,-3,-1,-1,1,-2,1,-3
1576152972995256,-1,3,-2,-3,-1,-2,-6,-3
1576152972995256,0,0,-3,-1,-5,-1,-1,0
1576152973002303,-4,-3,0,0,1,-4,2,1
1576152973002303,-4,-2,-1,0,-1,-1,-2,-2
1576152973003237,1,-1,1,1,-2,-3,-2,1
1576152973003237,-2,1,0,1,1,4,-2,0
1576152973024242,-2,-3,-3,-2,-3,-7,0,1
1576152973024242,-1,-2,-1,1,-2,-1,-3,0
1576152973025178,-5,-3,-1,1,-1,0,2,-1
1576152973025178,3,-5,-4,-2,1,-1,0,1
1576152973047222,1,0,-3,-1,0,0,-1,1
1576152973047222,1,0,-1,-2,-1,-2,-1,0
1576152973048114,1,1,-2,-1,-1,-3,-3,-2
1576152973048114,4,-1,-2,0,2,-2,2,0
1576152973062182,-1,0,-2,-3,-2,3,2,1
1576152973062182,-1,3,-1,-2,1,-4,-2,-3
1576152973063074,1,-4,-1,-1,-2,3,-1,0
1576152973063074,-1,1,1,1,1,2,3,0
1576152973085016,1,-2,1,-2,0,3,-2,0
1576152973085016,-4,1,1,0,1,-1,-2,-1
1576152973085016,-3,0,-1,0,-3,0,2,-2
1576152973085016,0,-2,-1,0,0,-2,0,-3
1576152973107062,-1,-1,-4,1,0,0,-1,-2
1576152973107062,0,1,0,-2,-1,-3,2,-2
1576152973107955,-2,-2,-2,-3,-1,0,-1,-2
1576152973107955,1,0,-1,1,0,0,-4,2
1576152973121963,-1,-2,-1,1,0,1,3,3
1576152973121963,-3,-2,0,-1,-3,-1,-2,-6
1576152973122917,0,-3,-2,-1,2,-4,-1,-1
1576152973122917,1,0,-1,-2,-5,-1,3,-1
1576152973159932,0,0,-3,-2,1,-1,-1,1
1576152973159932,-3,-1,-2,0,-3,0,2,0
1576152973159932,4,0,3,-1,-3,-1,-3,-2
1576152973159932,-1,0,1,-3,-2,0,-1,-2
1576152973166841,1,-1,-2,3,0,-1,0,3
1576152973166841,-4,0,0,-2,-1,5,-1,-1
1576152973167796,-1,-2,-5,-2,-1,-3,-1,0
1576152973167796,-1,-3,-3,-1,0,-3,2,0
1576152973181860,0,2,-4,-1,-2,1,-1,-1
1576152973181860,-1,2,-2,0,3,-2,-2,-1
1576152973182760,0,0,-1,-3,-2,1,-2,-3
1576152973182760,-1,-1,1,-3,-2,0,-3,0
1576152973211681,-3,1,0,0,1,-3,1,0
1576152973211681,1,-2,-2,-3,-5,0,-1,1
1576152973212674,-3,0,1,-1,-1,-3,-1,-3
1576152973212674,0,1,-2,0,3,-3,1,-1
1576152973218658,-1,-3,-2,-1,-2,2,0,-2
1576152973218658,-3,-1,1,-1,1,-2,-1,2
1576152973219663,0,-1,0,0,-1,-1,-1,-2
1576152973219663,1,-2,-1,0,1,1,-2,-2
1576152973241700,-1,-2,-1,-4,2,0,2,1
1576152973241700,0,-3,-1,-1,-1,-1,-2,-3
1576152973242597,-2,0,-2,-3,-2,-5,0,-1
1576152973242597,0,-2,1,0,2,-1,-1,-1
1576152973264649,-3,0,0,0,-2,2,0,-2
1576152973264649,-1,1,-2,-1,4,-6,0,-3
1576152973271617,-3,-2,1,0,-10,2,-5,-1
1576152973271617,0,0,0,-1,1,-6,0,-1
1576152973278533,0,-1,-1,-1,2,3,1,0
1576152973278533,-1,-6,-1,-2,-1,-2,1,1
1576152973286547,-1,-1,-1,2,-1,0,-1,-2
1576152973286547,-3,-2,-2,0,-1,-1,-4,1
1576152973302481,0,0,0,-1,-2,-4,-3,1
1576152973302481,0,0,-2,1,0,0,2,-2
1576152973302481,-2,-2,-1,-2,1,-2,-1,-3
1576152973302481,0,-4,-2,-1,-4,1,2,1
1576152973324479,1,1,-1,-1,0,-3,-1,3
1576152973324479,-1,2,2,-1,-2,-1,-3,2
1576152973325377,-3,-1,0,0,0,0,-1,-1
1576152973325377,-2,0,-2,-1,0,2,0,0
1576152973338341,1,-1,0,0,-1,0,0,1
1576152973338341,-5,-3,2,-1,-4,4,-3,-1
1576152973346370,2,1,-1,-2,0,-1,-1,-1
1576152973346370,-4,-2,-2,-3,-3,0,0,-2
1576152973362339,2,0,-1,-1,0,-2,2,2
1576152973362339,-3,1,-3,-2,-2,-3,-2,-2
1576152973362339,-3,0,1,3,0,-1,1,-4
1576152973362339,-1,2,0,0,0,0,-3,0
1576152973384315,0,0,-2,-3,0,-3,2,-1
1576152973384315,-3,0,-1,0,-2,1,0,-3
1576152973385216,-1,1,-1,-1,-1,-3,-3,1
1576152973385216,-1,0,3,0,0,-1,1,0
1576152973398183,-2,-2,-5,-1,-1,3,0,0
1576152973398183,0,0,-3,-4,1,0,-2,-4
1576152973406201,0,-3,-2,-2,0,-1,0,0
1576152973406201,0,-3,-2,1,-3,-3,-2,0
1576152973428131,-3,-1,1,1,1,5,1,-1
1576152973428131,-1,1,-2,0,-3,-10,0,-4
1576152973436120,1,-1,0,0,2,2,1,-1
1576152973436120,0,-2,-1,0,-5,-2,-1,0
1576152973444099,3,-1,-2,0,1,-2,-2,1
1576152973444099,-1,3,-2,-2,1,2,0,-2
1576152973445054,1,-1,-2,1,-1,-4,-1,1
1576152973445054,-3,1,-1,0,-1,3,-1,-2
1576152973458020,1,-1,-1,0,0,-1,1,1
1576152973458020,-1,-1,0,-2,1,2,4,3
1576152973466065,-2,-1,-2,-1,-1,-4,-4,-2
1576152973466065,1,-4,1,-1,1,2,1,-1
1576152973480959,1,-1,-1,-1,-3,-1,-1,2
1576152973480959,-5,1,1,3,3,-1,-2,-2
1576152973481953,-2,-2,-2,-2,-2,-2,0,-5
1576152973481953,-2,2,-1,-2,-2,-5,-2,-4
1576152973504947,-5,-4,0,-3,-1,-3,-1,-1
1576152973504947,1,-2,-2,1,0,2,-3,1
1576152973504947,-5,0,2,-3,-8,2,-1,-1
1576152973504947,-1,0,-2,0,3,-2,0,0
1576152973517963,-2,-2,-2,0,1,5,0,2
1576152973517963,0,-3,-3,-2,-3,-3,-3,-1
1576152973526868,1,-1,0,0,-1,-3,2,2
1576152973526868,2,-1,0,0,3,2,-2,2
1576152973549877,-1,-2,-1,-1,0,-1,-1,-1
1576152973549877,-2,-1,-1,-1,-1,0,1,1
1576152973550770,-4,-1,-1,2,1,1,-1,-1
1576152973550770,0,-3,-2,-3,-2,-4,-1,-2
1576152973564836,3,1,2,-1,2,0,-1,1
1576152973564836,-1,-1,-1,-2,-2,0,-3,-1
1576152973565731,0,4,0,-2,0,-3,-2,-2
1576152973565731,-1,1,0,0,-1,1,0,0
1576152973577804,-2,-3,-3,0,0,-2,-1,0
1576152973577804,2,0,-2,1,0,-1,0,-3
1576152973602737,-4,-2,2,0,1,3,-2,-4
1576152973602737,3,-1,-3,1,-1,1,-2,2
1576152973604626,1,1,-3,-1,-2,-3,1,1
1576152973604626,-4,0,0,-2,-2,0,-2,0
1576152973604626,0,1,0,-1,-1,-6,0,-1
1576152973604626,-1,1,0,-2,0,1,2,-2
1576152973624856,0,-3,0,2,3,1,-1,-1
1576152973624856,1,-2,-2,0,0,-3,1,-1
1576152973625752,-4,0,-1,0,-5,-3,-3,-2
1576152973625752,-3,2,1,-2,2,0,3,-1
1576152973654775,2,1,1,1,1,2,0,1
1576152973654775,-1,-4,-1,-2,-4,-2,0,0
1576152973655669,1,1,-1,-3,-1,3,-2,-3
1576152973655669,-1,-2,-3,0,-2,-6,-1,-1
1576152973662653,1,-1,-4,1,0,3,2,2
1576152973662653,-2,-2,-2,0,0,-3,-2,-1
1576152973663651,-2,-3,-2,-2,-1,-2,1,-1
1576152973663651,1,0,1,0,-1,0,-2,0
1576152973684629,0,-3,-1,-2,-3,-3,0,1
1576152973684629,0,2,0,0,1,2,-1,-1
1576152973685611,2,-1,-1,-1,-3,-4,-1,-2
1576152973685611,0,2,-1,-2,0,0,-1,1
1576152973706536,-3,-1,-3,-2,0,0,0,-1
1576152973706536,0,3,0,-2,-3,-5,-3,-2
1576152973713567,1,0,-2,-1,1,4,1,-4
1576152973713567,1,-4,-2,1,-2,-6,-5,-2
1576152973721526,1,0,-3,-2,-2,6,1,-3
1576152973721526,-3,1,-1,1,1,3,3,1
1576152973722492,-4,-5,-1,0,-1,1,0,-2
1576152973722492,2,0,0,2,-2,1,-1,0
1576152973744485,0,-3,-2,0,4,-3,1,2
1576152973744485,-1,0,0,-2,-2,0,-3,-4
1576152973745453,2,1,-1,-1,0,-4,-1,-1
1576152973745453,-5,-3,0,-2,-2,5,1,1
1576152973767420,0,-1,0,-1,1,-3,-1,0
1576152973767420,-2,-2,0,0,1,0,0,2
1576152973768367,-2,1,0,-1,-2,-4,-3,-3
1576152973768367,1,0,-3,0,0,-2,-1,-2
1576152973781334,0,-2,-1,0,1,-2,-4,0
1576152973781334,-4,-3,-2,-3,-2,-1,-1,-1
1576152973782368,-1,1,1,-1,-4,0,0,-1
1576152973782368,1,-3,-4,0,-1,3,3,0
1576152973804436,-4,5,3,1,-2,-9,-1,2
1576152973804436,3,-1,-1,-1,1,5,-2,-5
1576152973805404,-3,-2,0,0,1,-2,-3,0
1576152973805404,-1,-2,-1,-1,-5,6,1,0
1576152973827343,2,0,-4,-2,0,1,-2,0
1576152973827343,1,-1,0,0,1,-2,-4,1
1576152973827343,-1,2,-1,1,-2,0,1,-1
1576152973827343,-1,-2,-1,-3,0,-2,-2,2
1576152973841355,1,-1,-2,-3,-3,0,0,-1
1576152973841355,-2,0,-1,-1,-3,-5,-1,-3
1576152973842326,1,-1,0,1,0,1,0,-2
1576152973842326,-2,0,-1,-2,1,-5,-4,-2
1576152973879250,1,-4,-3,-2,-2,5,-1,1
1576152973879250,-1,1,-1,0,2,-2,0,0
1576152973880205,-2,-1,-3,1,-1,-2,-2,-1
1576152973880205,2,-1,0,-2,1,-3,2,3
1576152973887215,-1,0,-2,0,2,4,0,-2
1576152973887215,-1,-1,-1,-2,-4,-6,-1,0
1576152973888183,-2,-1,-1,-1,1,-1,-3,-1
1576152973888183,2,3,0,1,-1,-2,1,1
1576152973901181,2,1,-3,-3,1,2,-1,-2
1576152973901181,-3,1,0,0,2,-1,0,-2
1576152973902170,-5,-3,2,0,0,-4,-5,-2
1576152973902170,2,-3,-1,-2,-3,1,-2,-2
1576152973932258,1,-3,-2,-1,1,-2,-1,3
1576152973932258,-1,1,-1,0,-2,0,-2,-2
1576152973933156,-2,-1,0,-3,-1,-2,1,0
1576152973933156,-2,-1,-2,0,-1,-2,1,-2
1576152973947221,-1,-2,0,1,-2,-4,2,1
1576152973947221,0,-4,-2,1,-1,0,2,-3
1576152973948114,3,-2,1,0,-2,1,-2,0
1576152973948114,-1,-1,-2,0,2,0,0,2
1576152973961184,-4,1,0,-1,1,1,-2,1
1576152973961184,0,-4,-3,-2,-5,-4,-4,0
1576152973962081,-4,0,-1,-1,0,-1,-1,-3
1576152973962081,-1,1,2,0,-1,7,3,-3
1576152973992099,0,-1,-1,-1,1,0,0,1
1576152973992099,-4,1,1,-1,3,2,1,-2
1576152973992993,0,0,-1,-1,-2,-5,-3,-1
1576152973992993,0,0,-2,-1,0,0,-2,1
1576152974007057,2,-2,0,1,-2,3,0,-1
1576152974007057,-5,0,-2,1,2,-2,-1,-4
1576152974007954,1,-1,-2,-3,-3,-2,-3,-3
1576152974007954,0,0,1,1,0,-2,2,0
1576152974021015,-2,0,-1,0,-2,-2,0,0
1576152974021015,3,-3,-1,-2,-1,0,-1,0
1576152974021918,-3,0,0,1,0,0,1,-2
1576152974021918,0,-3,0,0,-2,-1,-2,0
1576152974053835,0,1,-1,-1,1,0,0,0
1576152974053835,-4,-1,0,0,-2,-1,2,1
1576152974053835,-1,4,-2,1,2,0,-3,-3
1576152974053835,3,-1,-3,-2,-2,1,0,-1
1576152974066901,-3,-2,-4,-1,-1,-1,0,0
1576152974066901,0,-1,-2,0,1,-1,-2,0
1576152974067798,-2,-2,0,-3,-2,0,-2,-1
1576152974067798,-4,1,-1,0,0,-5,1,1
1576152974081803,0,0,0,-3,0,0,3,-1
1576152974081803,-2,-1,0,-2,-3,-2,-3,-2
1576152974081803,-2,-1,-1,0,-2,1,0,-4
1576152974081803,4,-2,1,-2,0,1,1,1
1576152974105692,-3,-3,-3,0,-2,-4,-1,2
1576152974105692,3,1,0,1,-2,0,-2,-2
1576152974106693,0,-4,1,0,2,-1,0,0
1576152974106693,-3,-2,-3,-4,-7,-1,-1,1
1576152974126741,2,-1,-1,0,3,-2,0,-1
1576152974126741,-1,0,-2,-2,0,4,0,-4
1576152974127636,0,-1,-2,-1,-3,-11,-2,1
1576152974127636,-2,-3,-2,-1,-1,2,-3,0
1576152974157554,-1,2,0,1,-2,-4,2,1
1576152974157554,-4,-1,0,-3,1,2,-1,-3
1576152974157554,0,0,1,3,-2,-2,3,-3
1576152974157554,-2,1,0,-1,2,0,-1,-1
1576152974164570,0,-2,-2,-2,-1,0,-1,1
1576152974164570,0,-1,-2,1,-1,-2,-4,-5
1576152974165530,-2,-2,-1,-2,-2,-2,0,4
1576152974165530,-3,-2,-1,0,2,-4,-3,-1
1576152974187519,0,-1,-3,-1,2,4,-1,-1
1576152974187519,-4,1,0,-1,-5,-1,2,1
1576152974187519,1,-2,-1,-1,-2,2,-2,1
1576152974187519,0,0,-3,-1,2,-2,1,-3
1576152974209415,1,-3,1,0,1,-3,-2,-1
1576152974209415,-1,-2,-1,0,-1,7,-2,-1
1576152974210412,-1,-1,1,1,-2,-3,-1,0
1576152974210412,3,0,-1,0,-2,-6,-1,1
1576152974224480,0,0,-3,1,-1,-2,2,0
1576152974224480,0,0,1,-2,2,-3,-2,-1
1576152974225375,0,1,0,0,-2,2,-1,-1
1576152974225375,2,-4,0,0,-1,1,1,2
1576152974247432,-2,0,-2,-3,-2,-3,0,0
1576152974247432,-1,-3,-2,0,4,0,-1,-1
1576152974248316,1,0,-4,-3,-6,-1,2,-1
1576152974248316,3,-1,-2,-1,2,-1,-3,3
1576152974269355,1,3,-4,0,-2,-1,-1,0
1576152974269355,1,-4,-1,-1,-3,-2,-1,0
1576152974270258,-4,-1,0,-1,2,-1,-3,-5
1576152974270258,2,-3,1,0,0,-4,1,2
1576152974292289,-1,-3,1,-1,-2,1,1,0
1576152974292289,-1,2,-1,-1,-3,-6,-3,-1
1576152974293197,-2,1,-2,0,-3,2,3,-2
1576152974293197,2,0,-1,-2,0,-1,-2,0
1576152974323158,0,2,-2,1,-1,1,0,3
1576152974323158,-1,-1,-1,0,-1,-2,2,-2
1576152974323158,0,-1,-2,-1,2,-2,-4,-1
1576152974323158,-2,1,-2,-2,-1,0,0,0
1576152974325107,-3,-3,1,0,3,6,1,3
1576152974325107,-1,4,-1,-1,-5,-4,-2,-1
1576152974328835,-1,-1,0,-1,-2,0,0,-2
1576152974328835,-1,0,0,1,0,0,1,-1
1576152974344907,0,-2,-1,-4,0,1,-2,-2
1576152974344907,-1,-1,-1,-1,2,-3,0,1
1576152974344907,-1,-3,-2,0,2,-4,-1,-1
1576152974344907,-1,-1,-1,-1,-4,5,-1,0
1576152974374818,-1,0,1,-1,-1,6,1,0
1576152974374818,-3,-2,-1,0,-1,-10,-3,-2
1576152974375712,1,-1,-2,-2,-4,2,-5,-5
1576152974375712,0,-4,-1,0,2,-2,-1,-1
1576152974380800,-2,0,-4,-1,-3,-2,0,0
1576152974380800,0,-2,0,-1,1,3,0,-1
1576152974388714,0,0,0,0,3,-2,-1,-1
1576152974388714,2,2,-1,-1,-4,-2,-1,2
1576152974404668,2,0,-1,-3,0,-1,-2,-2
1576152974404668,-1,-3,-3,-1,0,-1,-2,-1
1576152974405632,1,-1,-2,-1,-1,-2,-2,1
1576152974405632,-3,-1,-1,-1,2,2,-1,-4
1576152974434658,2,-1,3,1,-1,-2,-2,1
1576152974434658,-1,2,-2,0,1,0,-1,-1
1576152974435550,-4,-2,-1,-2,-2,2,0,-3
1576152974435550,1,0,-3,-1,1,-3,0,0
1576152974440640,0,-3,0,-1,-2,-2,-2,0
1576152974440640,-5,-1,3,0,0,5,0,-5
1576152974448559,-1,2,-1,-1,-3,-2,-1,-1
1576152974448559,2,1,1,-2,0,1,0,3
1576152974464577,-2,0,-4,-1,-1,-6,2,-3
1576152974464577,-3,-1,0,-3,-4,-3,0,-2
1576152974465472,-1,-1,2,1,2,1,2,-2
1576152974465472,-1,-1,-2,0,-2,2,2,-1
1576152974487411,-1,0,-1,1,2,-3,-2,0
1576152974487411,-2,2,0,-1,1,-1,-2,-1
1576152974487411,0,-3,-2,-2,-5,3,-1,-2
1576152974487411,1,0,-1,0,1,-2,-2,-1
1576152974500480,0,0,-2,0,0,0,0,2
1576152974500480,-2,0,0,-2,-3,0,-3,-1
1576152974509375,0,1,2,-1,0,-1,0,-2
1576152974509375,2,-3,-3,-1,-1,0,1,2
1576152974524416,0,-1,-2,-2,-1,1,-2,-2
1576152974524416,-1,-1,-1,1,0,-2,-2,-2
1576152974525314,0,-1,0,-2,-2,0,-2,1
1576152974525314,0,0,-1,-1,0,4,-1,-1
1576152974547412,-2,-1,-2,-1,-1,-5,0,-1
1576152974547412,-1,-1,-1,-1,-1,0,-1,0
1576152974548299,-1,-2,-2,-1,-2,-2,-2,-1
1576152974548299,-1,-3,0,0,-1,-4,3,1
1576152974569336,0,-1,1,-1,-1,3,-1,2
1576152974569336,-2,0,-1,0,0,-1,-2,-1
1576152974570240,0,-4,-2,0,-1,-2,1,-1
1576152974570240,-2,-1,0,-2,1,0,-2,-1
1576152974608177,1,-1,-2,-1,0,-3,1,0
1576152974608177,2,-1,-2,-2,-3,0,-2,-1
1576152974609135,3,3,-1,1,0,-4,0,-1
1576152974609135,2,-2,-1,0,0,0,0,2
1576152974611127,0,0,2,0,-4,-1,1,2
1576152974611127,-1,-3,-3,0,0,-1,-2,-5
1576152974614164,-1,2,-1,1,-1,1,-1,2
1576152974614164,0,-3,-5,0,-2,0,1,2
1576152974629128,0,-2,1,-2,2,-1,-6,0
1576152974629128,0,1,0,-1,0,-1,5,0
1576152974630074,-4,1,-1,0,-4,0,-2,-2
1576152974630074,-3,0,0,0,-2,1,-2,2
1576152974652120,1,-3,-2,-1,0,7,3,2
1576152974652120,0,0,-3,-1,-3,-9,-2,-2
1576152974653014,0,-2,2,-2,-1,0,2,1
1576152974653014,1,-1,-2,-2,1,4,1,2
1576152974667079,3,0,-3,-2,-2,-2,0,-2
1576152974667079,0,0,4,1,1,1,-4,-2
1576152974667973,0,-1,-3,0,-2,-2,1,-1
1576152974667973,1,-3,-1,-2,-2,-1,-2,-1
1576152974689971,-3,-2,-4,0,2,1,1,-1
1576152974689971,1,-2,-2,-1,-2,-2,-4,-2
1576152974689971,2,-3,2,-1,0,-2,-1,-3
1576152974689971,-1,-1,0,-1,-1,-3,2,0
1576152974711909,2,0,-4,0,-2,-3,1,0
1576152974711909,-1,-1,2,-1,-1,-2,-1,-2
1576152974713852,-3,-5,-3,-1,-2,0,-3,-3
1576152974713852,2,1,0,1,-2,-1,1,-1
1576152974726865,1,-2,-2,-3,0,-1,-2,4
1576152974726865,-5,0,-1,1,-1,5,0,1
1576152974727817,-1,-1,-1,0,-3,-7,-6,0
1576152974727817,2,-2,-2,-1,-1,-1,-2,1
1576152974749805,1,1,-1,1,2,-3,0,-1
1576152974749805,-1,0,-2,-2,0,2,1,-1
1576152974750751,1,-2,0,-2,-3,2,0,-1
1576152974750751,-2,-2,-3,-2,0,-2,-3,0
1576152974764762,-2,0,1,-2,-2,-5,-2,1
1576152974764762,0,0,0,1,1,2,0,-3
1576152974764762,-3,4,-2,0,1,-2,-2,-1
1576152974764762,0,-3,0,-2,-2,-2,-2,-1
1576152974786704,2,-1,-3,-4,0,4,0,-1
1576152974786704,-3,0,-2,0,-1,-5,-1,-2
1576152974787727,-1,0,-2,-2,0,-1,0,0
1576152974787727,-2,-1,-3,0,-1,3,1,-2
1576152974816575,-2,-2,-2,1,1,1,-1,1
1576152974816575,-2,-4,-3,-2,-2,-2,0,0
1576152974825583,0,-1,1,-1,-1,2,-2,-3
1576152974825583,1,2,0,0,-1,1,2,1
1576152974826552,-2,0,0,0,0,-5,1,1
1576152974826552,-1,0,1,0,-1,2,-3,0
1576152974827546,-2,1,-1,-1,-3,-3,0,0
1576152974827546,-1,1,0,0,1,1,-1,0
1576152974847493,-4,-1,-3,0,-1,2,0,-6
1576152974847493,0,-1,-1,0,-3,-1,-4,-1
1576152974847493,-4,-3,-1,-1,1,-5,0,1
1576152974847493,2,-2,1,0,-1,1,0,2
1576152974877446,-1,2,1,1,2,1,-1,0
1576152974877446,0,1,-1,-2,0,-1,-1,-4
1576152974877446,0,-1,-2,1,-1,0,0,-1
1576152974877446,1,1,-4,-1,-2,-5,-1,0
1576152974883449,-5,0,-1,-1,1,1,-1,2
1576152974883449,-2,1,-1,0,-2,-1,-2,-1
1576152974884397,0,-2,0,-2,3,0,0,-2
1576152974884397,0,-3,-2,-4,-5,0,2,0
1576152974907454,-2,-1,-3,-2,1,1,-2,-1
1576152974907454,0,-1,0,-1,-3,-3,-2,-4
1576152974907454,0,0,-1,-1,-1,1,-2,-1
1576152974907454,-1,0,0,0,3,0,1,2
1576152974937256,3,-6,-1,-1,-2,-3,1,-1
1576152974937256,-4,-3,1,1,-2,1,1,-1
1576152974938250,-2,0,0,-1,-2,-5,-1,0
1576152974938250,0,-1,-2,-2,-2,3,-3,0
1576152974944234,1,0,-1,-3,0,2,0,-5
1576152974944234,-3,0,-1,0,-1,-4,2,1
1576152974944234,-2,0,-2,0,-2,0,-2,-2
1576152974944234,-3,2,-1,0,2,0,-1,-3
1576152974967174,-3,-1,-1,1,4,-4,-1,0
1576152974967174,1,0,0,-1,-5,-3,-1,-5
1576152974968171,0,-1,0,-1,0,1,0,-2
1576152974968171,3,-1,0,0,-1,-1,1,2
1576152974989117,0,-1,0,-2,-1,0,1,-2
1576152974989117,-3,1,0,-2,0,0,-2,-2
1576152974990117,0,-3,0,-2,-2,0,1,-1
1576152974990117,2,0,-2,-1,2,-1,2,3
1576152975003080,-2,1,0,0,-4,1,1,1
1576152975003080,-1,-3,-2,-1,1,2,-3,-1
1576152975011059,1,1,0,0,-3,-5,-3,0
1576152975011059,0,-3,-3,0,0,1,-5,1
1576152975027015,4,2,-1,1,-2,0,0,1
1576152975027015,-4,0,-3,-1,1,-4,1,-2
1576152975028013,2,-2,1,0,-3,0,2,0
1576152975028013,1,-2,-1,-1,1,-3,1,1
1576152975048955,-1,-2,-2,0,-1,1,-2,0
1576152975048955,-2,0,1,-3,-1,-2,0,-2
1576152975049952,-3,-1,-1,-1,-1,-3,-3,0
1576152975049952,-2,2,-2,0,1,0,0,0
1576152975063917,-1,-2,-2,1,0,4,-3,-1
1576152975063917,-2,-1,-2,-1,-2,0,-3,0
1576152975064912,3,-2,0,-2,0,-3,1,-2
1576152975064912,2,-2,-1,-2,-1,-1,0,1
1576152975101918,0,2,0,-4,-1,0,-2,-3
1576152975101918,-1,-1,-2,-1,-3,-4,-3,-1
1576152975102816,-5,1,0,2,-1,2,0,-1
1576152975102816,-1,-1,-2,0,4,-9,-2,-1
1576152975109908,3,-1,0,-2,-7,1,2,-1
1576152975109908,-1,-2,0,1,1,0,0,-1
1576152975109908,-2,-1,-1,-1,0,0,-2,-4
1576152975109908,0,-2,0,0,-1,2,3,0
1576152975123858,1,0,-2,-1,1,2,-1,0
1576152975123858,0,-2,-1,-1,-2,-3,-2,0
1576152975124757,0,0,0,1,-1,3,-1,-3
1576152975124757,-1,-1,-2,-2,-1,-2,2,1
1576152975147794,-3,-1,-1,1,-1,-6,0,-1
1576152975147794,0,-2,0,-2,-2,-1,-2,-2
1576152975153712,2,0,0,-1,1,-6,-2,0
1576152975153712,-1,-3,-2,0,-4,7,-1,-1
1576152975169736,-4,0,-1,-1,4,-5,-2,-1
1576152975169736,0,1,1,0,-2,-2,1,-2
1576152975170632,-2,-2,-2,-1,-3,-1,0,-1
1576152975170632,1,-1,-1,0,-1,0,-1,-2
1576152975183644,-2,-2,-4,-3,-2,-4,-1,1
1576152975183644,-1,2,2,-1,-2,3,0,-2
1576152975192574,-1,-1,-2,-1,0,-1,-1,-2
1576152975192574,-1,-2,0,-1,-1,1,1,0
1576152975206635,-3,0,1,0,0,1,0,-3
1576152975206635,-2,0,-1,-2,0,-1,-3,-1
1576152975213620,-3,-1,1,-2,-1,1,-1,0
1576152975213620,2,-1,-1,0,-2,1,-1,0
1576152975229575,-4,-4,-3,1,0,-6,0,0
1576152975229575,0,2,-1,-3,-2,1,1,-3
1576152975231469,0,2,-1,1,-4,2,-1,-3
1576152975231469,0,-2,-1,-1,0,-3,0,3
1576152975243538,1,0,-1,0,0,-1,-2,3
1576152975243538,-2,-2,0,-1,0,-2,-2,-1
1576152975269372,-1,-3,-1,-2,-3,-1,-4,2
1576152975269372,0,-1,-3,-1,3,2,-1,0
1576152975270367,4,-2,-1,0,-3,1,-1,2
1576152975270367,-1,-3,-1,-3,1,0,-4,-2
1576152975273454,0,0,-1,1,3,-3,-2,0
1576152975273454,0,2,0,-1,-3,2,2,2
1576152975289416,0,0,1,-1,1,-4,0,-2
1576152975289416,-1,-4,0,0,-2,-1,-2,0
1576152975291307,-1,-2,1,-2,-2,2,-1,-2
1576152975291307,0,-1,-2,-2,0,-2,-4,0
1576152975303382,3,0,-1,-1,0,2,-1,-3
1576152975303382,-3,-2,0,1,-2,-3,0,-1
1576152975319306,0,-1,-2,-1,-2,6,2,-3
1576152975319306,-1,0,-2,0,-1,-9,0,0
1576152975327310,-2,-1,-4,-1,0,6,1,1
1576152975327310,-4,2,1,-3,-1,-3,-1,0
1576152975328211,0,-3,-1,-2,-1,-3,-1,-1
1576152975328211,-2,-1,-1,-1,0,1,-1,1
1576152975349154,2,-2,0,1,2,1,-1,-1
1576152975349154,3,1,-1,0,-5,-1,1,-1
1576152975351151,-1,1,-1,0,-1,-5,0,-1
1576152975351151,0,-4,-1,-1,0,-2,3,1
1576152975379171,-4,-1,-3,-3,-2,2,0,1
1576152975379171,1,0,0,1,0,2,-1,-2
1576152975381073,-1,-2,1,0,-1,-3,0,1
1576152975381073,3,-1,-2,-1,0,0,0,-2
1576152975387150,-4,-2,-1,-2,1,0,-2,-1
1576152975387150,0,-1,1,1,1,-2,-4,-1
1576152975389045,0,0,1,0,-1,-1,-1,-4
1576152975389045,4,-1,2,-1,0,5,-2,0
1576152975410030,-5,-2,-1,-2,-4,-7,2,0
1576152975410030,1,0,0,0,0,3,1,0
1576152975410990,-2,2,-2,0,3,-2,-2,-1
1576152975410990,-1,1,-1,0,-5,4,0,0
1576152975432034,2,1,-1,-2,1,0,-4,-3
1576152975432034,0,0,-2,0,-3,-3,-3,-3
1576152975433928,-2,-3,0,1,-1,4,-2,3
1576152975433928,3,-2,-2,0,1,-5,2,3
1576152975446993,-2,4,-2,0,-1,3,0,0
1576152975446993,-4,-5,-2,0,0,-3,-3,-4
1576152975448888,2,-2,-1,1,-2,-2,0,2
1576152975448888,3,-4,-1,-2,0,-1,-2,-2
1576152975469951,0,-1,0,-2,0,-1,-3,-1
1576152975469951,-1,1,0,-3,-2,-2,-2,-3
1576152975470828,-2,-1,1,-3,-2,-3,3,-1
1576152975470828,-1,1,-4,1,-2,-1,2,2
1576152975491776,0,0,0,-1,1,-1,1,-2
1576152975491776,-3,-1,0,-2,-5,4,-1,-2
1576152975493766,1,0,-4,-5,-4,-7,-3,-1
1576152975493766,-2,-1,-2,-1,0,1,0,-1
1576152975506822,-1,-1,-1,1,-4,-2,1,1
1576152975506822,1,0,-3,0,1,0,1,-1
1576152975513713,4,-3,0,0,-4,3,-1,-1
1576152975513713,1,2,0,-1,0,1,1,1
1576152975544729,-1,0,-1,-2,0,-3,-2,-3
1576152975544729,-1,-1,-1,-1,0,-5,0,-1
1576152975545630,-2,-3,-3,-2,0,-2,-3,0
1576152975545630,2,-3,1,0,-1,2,0,-3
1576152975559687,0,-1,-1,-1,0,0,-1,-1
1576152975559687,-1,0,-2,2,-2,-2,-2,-1
1576152975560588,1,1,0,-1,-1,1,0,3
1576152975560588,-1,-1,-1,0,0,-1,0,0
1576152975565673,-3,-2,0,0,1,-1,-5,1
1576152975565673,-1,1,0,-1,-6,-4,-3,0
1576152975574556,0,-3,-2,-2,-1,3,1,-4
1576152975574556,-2,-3,-3,-2,0,-5,-1,0
1576152975597536,-2,0,-3,1,-3,1,-1,-3
1576152975597536,-2,1,-1,1,1,-4,-3,-3
1576152975598490,-1,0,3,-1,0,1,1,-1
1576152975598490,-2,0,-2,-3,0,-4,-1,1
1576152975612494,-3,-2,-1,-1,0,0,-2,1
1576152975612494,-2,-1,2,-1,2,0,-1,-1
1576152975613450,2,1,-4,0,-2,0,-2,-1
1576152975613450,1,-2,0,-1,1,1,1,2
1576152975625517,-3,-1,0,0,-2,-1,0,-2
1576152975625517,-4,-1,-1,-4,-2,-4,-1,0
1576152975634390,2,-4,-4,0,-5,1,1,-2
1576152975634390,-1,-3,-1,-4,2,1,0,2
1576152975657132,-2,-1,0,-1,-2,-3,-3,-4
1576152975657132,-1,-2,0,-2,-1,-2,-1,-2
1576152975659031,-2,-1,-1,1,3,-1,-1,-2
1576152975659031,1,-1,-2,0,-3,-1,-1,0
1576152975671994,-2,-2,0,-2,-3,-2,-3,0
1576152975671994,-1,-3,-1,-1,0,2,1,-1
1576152975673988,0,-2,-2,0,-3,0,1,2
1576152975673988,3,-3,-2,0,0,0,2,2
1576152975686075,0,-1,1,-4,1,-1,-1,-2
1576152975686075,-1,-4,-1,0,-2,-1,-1,-3
1576152975711885,0,1,2,-2,-1,4,1,-2
1576152975711885,1,0,-2,0,-3,-4,-4,0
1576152975712881,1,-1,-2,0,-2,-2,1,-1
1576152975712881,-3,2,1,0,6,-1,-3,0
1576152975715980,3,0,-2,-1,-6,2,3,0
1576152975715980,0,-4,0,-3,1,3,1,1
1576152975731938,-4,1,-1,0,1,-2,-1,-1
1576152975731938,-3,0,0,-1,0,-5,2,-2
1576152975733825,-4,0,0,-1,1,-1,-4,-1
1576152975733825,0,1,0,-1,0,-1,-1,2
1576152975745900,0,-1,-1,0,-2,-3,0,-1
1576152975745900,0,-3,-1,0,-1,4,2,-3
1576152975771730,-1,1,0,-1,1,-3,-3,-1
1576152975771730,-2,2,-4,-1,-1,3,0,-2
1576152975772724,-7,-2,2,1,0,3,1,0
1576152975772724,3,-2,0,0,-4,-2,-1,-2
1576152975775809,1,-1,-1,0,-1,-1,-2,1
1576152975775809,-2,0,-2,0,3,-1,0,2
1576152975792773,-1,0,-2,0,-3,1,-1,-3
1576152975792773,-1,-2,-1,0,-2,-7,-3,0
1576152975793667,0,0,1,-1,2,-1,0,-2
1576152975793667,0,-2,-1,0,1,-2,0,-2
1576152975822589,0,-2,-5,-2,1,2,1,-1
1576152975822589,-3,-2,-4,-1,-3,0,-1,0
1576152975823591,-2,-2,-1,0,1,-1,0,0
1576152975823591,-1,-1,0,1,-1,1,0,3
1576152975829670,0,0,-1,0,0,-1,-1,-1
1576152975829670,-1,-2,1,-1,-1,-2,-2,-2
1576152975831565,1,0,-3,-2,-2,-3,-1,-1
1576152975831565,-4,-5,-2,-1,-1,0,-1,-2
1576152975852557,-2,1,0,-1,0,2,2,1
1576152975852557,1,0,1,-1,-1,-1,-1,0
1576152975853510,-3,2,-3,0,-1,-2,3,1
1576152975853510,1,-4,0,0,0,1,0,2
1576152975874515,-1,-1,-1,-2,-1,-1,-2,-3
1576152975874515,0,0,0,2,-1,2,0,-3
1576152975882430,-2,-2,0,-2,-3,2,-3,0
1576152975882430,0,0,-1,-3,0,0,0,1
1576152975889412,1,-3,2,1,1,-5,-1,-3
1576152975889412,-3,4,-1,1,-2,7,-2,-2
1576152975891406,1,-2,-2,-1,-2,-8,-3,-2
1576152975891406,1,0,-1,-1,-1,3,-2,1
1576152975912447,0,-1,-2,-1,-3,-1,-4,-2
1576152975912447,-1,3,1,-1,0,-3,0,-1
1576152975913348,2,-2,0,1,-1,-2,-3,1
1576152975913348,1,0,-2,-2,-2,-1,2,-2
1576152975925313,-3,0,-1,-1,2,2,2,1
1576152975925313,-3,-2,-2,-1,-6,-5,0,-3
1576152975934347,1,0,1,0,1,-2,0,1
1576152975934347,0,-1,0,1,0,-2,-1,0
1576152975949154,-2,0,0,0,0,0,-5,-1
1576152975949154,-1,0,0,0,-1,-2,-1,-2
1576152975951148,-2,-5,-2,0,1,0,1,1
1576152975951148,1,2,-1,-1,-1,-1,1,-1
1576152975988042,-3,0,-2,0,-1,-2,2,2
1576152975988042,-3,-1,-2,-2,1,7,-3,-3
1576152975989041,0,-1,0,0,-2,-10,-1,0
1576152975989041,0,-3,-1,1,0,1,-1,0
1576152975990046,-1,-2,-2,-1,-1,-2,-5,-3
1576152975990046,-2,0,1,0,-4,-1,-2,-1
1576152975995053,-1,0,-2,-1,0,4,0,-1
1576152975995053,-1,0,-2,0,-1,-2,1,1
1576152976009985,1,-2,-1,-2,1,-5,-1,-1
1576152976009985,0,-2,-1,-2,-1,-1,-2,-2
1576152976010986,1,-1,0,-1,3,1,1,-1
1576152976010986,-3,-2,-1,-2,-1,-4,0,0
1576152976047936,0,-1,0,-2,-2,-2,0,-1
1576152976047936,-1,-1,-2,2,-1,-2,-2,-3
1576152976048880,-3,2,-1,-3,-1,1,-2,2
1576152976048880,3,-3,-3,1,-2,-1,-2,-2
1576152976049882,-2,-1,0,1,-1,2,-3,0
1576152976049882,-1,-1,0,-1,-1,-4,-1,-1
1576152976054865,-1,-1,0,-1,-1,5,-2,0
1576152976054865,0,2,-2,-1,-3,-1,4,1
1576152976069898,2,-1,-2,-2,0,-3,-1,2
1576152976069898,-3,-2,0,0,2,-2,0,-3
1576152976070821,0,-1,-1,1,-4,0,-2,1
1576152976070821,2,0,-1,-2,2,3,-3,2
1576152976099796,-2,2,-2,-1,-2,-3,-1,-1
1576152976099796,0,-3,-2,-2,-1,-4,0,2
1576152976100741,1,-2,-3,1,0,1,0,-1
1576152976100741,-2,-3,-2,-1,-2,2,1,2
1576152976105777,-2,-3,-2,-3,0,0,0,-3
1576152976105777,0,-1,1,-1,-3,-5,-3,0
1576152976114707,-4,-3,0,-1,1,1,1,-3
1576152976114707,1,0,-3,-1,0,-2,-2,3
1576152976129713,2,-1,0,0,0,-2,0,-1
1576152976129713,-1,0,1,-3,1,0,-1,-3
1576152976130663,2,-3,1,-2,-1,-2,-1,1
1576152976130663,-1,1,-3,0,4,-1,-1,-1
1576152976152636,-1,-2,-1,-1,-8,0,2,-2
1576152976152636,-3,1,-1,0,1,1,0,-4
1576152976153602,1,1,-2,-2,-2,-3,-1,1
1576152976153602,0,0,-2,-1,1,3,0,-3
1576152976165623,-1,-1,-1,0,2,-4,-5,1
1576152976165623,0,-2,0,0,-1,0,0,-2
1576152976174548,-1,-3,0,-1,-1,-4,1,0
1576152976174548,0,-2,0,-2,0,1,0,3
1576152976189573,-3,3,-2,-2,0,1,1,0
1576152976189573,0,-1,-1,-2,-1,-5,-2,-3
1576152976191499,0,0,1,1,1,0,-3,-2
1576152976191499,0,-1,0,-1,-2,-1,1,-1
1576152976211446,-6,0,-1,-2,-1,0,0,-2
1576152976211446,2,2,-2,1,3,-2,-3,0
1576152976213440,2,-4,-1,0,-6,-2,2,2
1576152976213440,0,1,-1,0,1,-1,0,1
1576152976225412,-2,2,1,1,-2,0,-2,-2
1576152976225412,-3,-3,0,0,-1,-1,0,-1
1576152976234389,-2,-2,0,-2,1,2,-1,-2
1576152976234389,-1,-2,-1,-1,0,3,0,-2
1576152976249347,1,-2,0,-1,1,-7,-1,-1
1576152976249347,-4,0,-2,-2,-3,0,0,1
1576152976251340,0,1,-1,2,3,0,0,0
1576152976251340,-2,1,-1,0,-1,-1,-1,-1
1576152976272287,-1,-1,-1,-1,1,1,-2,-1
1576152976272287,-1,0,2,-1,-3,1,0,-1
1576152976273281,1,-1,-2,1,-1,-1,-1,-2
1576152976273281,-3,-1,-4,-1,-2,-6,-1,0
1576152976285251,-5,-3,0,0,1,3,0,-2
1576152976285251,1,-1,-1,-1,-8,-3,-1,-1
1576152976294225,-3,-4,-2,-2,0,-1,0,-1
1576152976294225,0,-2,-3,0,-2,-1,-1,-3
1576152976324146,-1,-1,-1,0,2,1,-1,-1
1576152976324146,-2,-1,-3,0,0,0,-1,-5
1576152976326139,2,-1,0,1,1,2,-2,-1
1576152976326139,-1,-3,-1,0,-2,-3,0,1
1576152976332123,-1,1,1,0,-4,2,0,-2
1576152976332123,-2,-2,-2,-1,0,-8,-4,0
1576152976333121,2,1,0,-1,-4,-2,3,2
1576152976333121,-2,0,0,0,2,4,-2,1
1576152976346086,1,1,-2,-1,-2,-1,2,-1
1576152976346086,-4,0,1,-1,-1,-1,-1,-2
1576152976355065,-3,0,1,-1,4,0,0,-2
1576152976355065,0,-3,-1,-2,-2,-3,-1,-1
1576152976377004,-6,-1,0,1,-1,2,-4,-1
1576152976377004,1,0,-1,1,0,-1,-3,0
1576152976379002,-4,-2,-4,-1,-2,-3,4,1
1576152976379002,0,-2,0,-2,0,6,-1,-1
1576152976391966,1,-2,0,0,-1,-1,-3,-1
1576152976391966,-1,-1,-1,0,0,-3,-1,0
1576152976393962,1,-1,-3,-1,-1,0,-2,0
1576152976393962,1,1,0,-2,-2,-3,-2,-3
1576152976405933,-4,-2,-1,1,-1,-4,-3,-2
1576152976405933,0,-1,0,-2,-1,1,0,-1
1576152976414903,3,0,-1,1,-2,2,-1,2
1576152976414903,-1,-1,-3,0,0,-1,2,-1
1576152976429864,2,0,0,-3,0,-2,-2,-2
1576152976429864,-4,0,0,0,4,2,1,-3
1576152976430859,2,-4,-2,-3,-4,0,-2,-2
1576152976430859,-1,-2,-2,-1,2,0,1,-1
1576152976451806,-4,0,0,-2,2,-1,-2,-3
1576152976451806,2,0,-2,-2,-4,2,2,2
1576152976453801,0,2,0,2,-2,-1,1,-2
1576152976453801,-3,1,-1,0,1,5,-2,2
1576152976490703,-4,0,-1,0,1,-3,-3,-1
1576152976490703,3,-5,0,-2,-3,0,-3,-2
1576152976492694,-1,0,0,-2,0,-3,-1,0
1576152976492694,1,-1,0,0,1,-2,0,2
1576152976492694,-4,0,-2,-1,0,1,2,-2
1576152976492694,-3,1,-1,-2,-2,2,-5,0
1576152976496688,0,-5,-2,0,0,-6,1,-3
1576152976496688,3,-1,-2,-2,0,0,0,-1
1576152976511644,2,-2,-1,0,-5,1,0,0
1576152976511644,0,0,1,1,-2,-2,-2,0
1576152976513640,-1,0,-3,-1,-1,2,0,-1
1576152976513640,-3,-3,-3,0,1,-2,-1,1
1576152976533585,0,-2,-1,-2,1,-3,0,-3
1576152976533585,0,-3,-1,-2,-2,1,-1,-1
1576152976542561,1,-1,0,0,-1,-3,-1,2
1576152976542561,3,-1,-1,1,-2,-4,1,-1
1576152976549546,-2,-2,0,-2,-3,1,-2,2
1576152976549546,-2,-1,0,0,1,-3,0,-4
1576152976551537,1,1,0,-3,-1,-1,-1,1
1576152976551537,-1,1,-2,0,-1,2,1,-1
1576152976572483,-1,1,2,0,-3,-4,-1,-1
1576152976572483,-1,1,0,0,0,0,-1,-4
1576152976573481,2,-4,0,0,1,6,0,3
1576152976573481,0,0,1,0,-1,-6,0,3
1576152976594424,-2,-1,-2,-2,1,-1,-4,-3
1576152976594424,3,0,-1,-1,-7,-3,1,-1
1576152976596417,-1,0,-3,0,-2,7,1,-2
1576152976596417,0,-3,0,-2,0,-2,-1,0
1576152976608385,-1,-2,-1,1,0,-3,1,-1
1576152976608385,-3,-1,0,0,-2,-6,2,0
1576152976615373,2,-5,-2,0,0,-3,0,-2
1576152976615373,0,1,-2,0,0,0,-1,-1
1576152976632321,-2,3,0,1,-2,1,-2,-3
1576152976632321,-2,-1,-1,1,0,-1,0,-1
1576152976633319,1,1,-1,-1,-1,2,5,3
1576152976633319,-3,-1,-1,-1,1,0,-3,-2
1576152976654267,1,-1,1,2,0,-1,0,-2
1576152976654267,-1,-1,-1,-1,0,0,-1,-3
1576152976656262,-1,0,1,0,0,-1,-2,0
1576152976656262,-3,-3,-4,-1,-4,3,0,1
1576152976669272,-1,0,-1,-3,-2,-4,0,-3
1576152976669272,-1,-1,2,-2,-2,-5,-1,-1
1576152976675267,2,-2,-1,-1,0,1,-2,-1
1576152976675267,-1,-2,0,-1,1,3,1,-2
1576152976692226,-8,4,-2,-1,-3,-1,-1,-5
1576152976692226,0,-2,-2,0,-2,3,-3,-3
1576152976693165,-1,0,0,-2,1,-5,-1,0
1576152976693165,-3,0,-1,-2,1,-2,1,-2
1576152976715100,-4,-3,0,0,1,-1,-1,-1
1576152976715100,-1,2,-1,0,-1,-4,0,0
1576152976716102,-4,0,-2,-2,0,5,0,1
1576152976716102,-1,4,-2,0,-3,-3,-4,3
1576152976729161,-1,-2,0,-1,-2,1,1,-4
1576152976729161,-2,-1,-2,1,1,-3,-2,-1
1576152976736125,2,-2,-1,-1,1,0,-1,-2
1576152976736125,-1,0,-2,-2,-3,-3,1,-1
1576152976767067,-1,-2,-1,-1,1,2,-1,0
1576152976767067,-1,-1,1,1,-1,4,1,-1
1576152976768958,0,0,-1,-2,-1,-5,-3,-2
1576152976768958,-1,-1,-1,0,1,1,-3,2
1576152976774998,0,0,-2,-1,-5,-3,-1,-3
1576152976774998,-3,-2,1,-1,-1,1,0,-1
1576152976775942,-2,-4,-2,-2,0,-1,-1,1
1576152976775942,3,-2,-3,1,0,-1,0,-1
1576152976788905,-1,-1,-1,-1,-4,-2,-1,1
1576152976788905,-3,1,-2,-1,-1,-3,0,-1
1576152976795990,2,0,-1,0,-1,-2,-1,0
1576152976795990,-2,0,-1,-1,-4,2,-1,-2
1576152976819943,-2,1,0,-1,-1,2,-1,-3
1576152976819943,1,-2,0,-1,-1,-2,-1,-2
1576152976820826,2,0,-1,0,-3,-1,0,-1
1576152976820826,1,-2,-1,-1,4,-2,-2,-2
1576152976834902,-2,0,-1,0,-1,1,-4,-3
1576152976834902,0,0,0,-2,-3,0,1,0
1576152976835778,-2,-4,0,0,0,-1,0,0
1576152976835778,-2,-2,0,0,-2,3,1,0
1576152976848761,-2,-2,-1,1,-3,-1,-1,0
1576152976848761,-1,0,0,-1,0,-8,-2,1
1576152976855830,-4,0,0,0,-1,5,0,0
1576152976855830,-2,-1,-2,-3,0,-4,3,0
1576152976879763,1,-2,-2,1,-3,1,-4,-2
1576152976879763,-1,0,-1,0,3,-1,-2,-1
1576152976880663,1,-3,-2,-2,-7,-1,1,1
1576152976880663,1,-4,-1,-1,1,0,-2,-1
1576152976902599,-1,-1,0,-3,1,0,0,1
1576152976902599,-1,1,-2,-1,-2,-1,-2,0
1576152976903601,-2,-1,-2,-1,2,-2,0,1
1576152976903601,-2,-3,-2,-1,-3,-1,2,-1
1576152976908589,-4,1,-1,0,0,-2,-2,-1
1576152976908589,1,-2,2,1,-3,-1,-2,-4
1576152976932622,3,-1,-2,-2,2,0,1,2
1576152976932622,-2,0,-3,1,2,4,-1,1
1576152976933522,0,-2,-1,-3,1,-14,-1,0
1576152976933522,-2,-3,1,0,-3,-1,0,-2
1576152976935510,2,1,0,-1,-1,3,0,-1
1576152976935510,-4,-2,0,0,2,-2,1,-2
1576152976954463,-2,2,-2,-2,-7,-2,-2,-2
1576152976954463,-4,1,-4,-2,0,-2,-2,-2
1576152976956457,0,-1,-1,0,-2,-1,0,-2
1576152976956457,0,0,0,1,2,-1,-2,0
1576152976968481,-3,-1,2,0,-2,0,1,-1
1576152976968481,-1,-1,-1,-5,-1,-1,0,-2
1576152976994357,-1,1,-2,3,-2,-1,0,0
1576152976994357,1,-1,-2,0,-2,-3,0,0
1576152976995387,-4,-1,0,-1,1,-1,-2,-3
1576152976995387,-1,-3,-2,-2,-2,0,-1,-2
1576152976998348,-2,-2,-3,0,3,2,0,0
1576152976998348,3,-3,-1,0,-2,-2,-3,-3
1576152977014408,-2,0,0,1,0,0,-2,-2
1576152977014408,1,-2,0,-1,-1,-1,-2,1
1576152977016295,-2,-3,0,-1,1,-3,-1,2
1576152977016295,-2,0,-3,-5,-4,7,-1,-6
1576152977044322,-2,-2,-1,-1,-1,-8,3,-2
1576152977044322,-1,1,0,-1,-1,1,-4,0
1576152977046219,2,-1,-4,-1,0,-4,1,-2
1576152977046219,0,0,0,-1,-1,-1,0,1
1576152977052302,-1,-1,-1,0,1,0,-4,-1
1576152977052302,-1,2,1,0,-3,1,1,-1
1576152977053199,-2,-5,-1,-2,0,-1,-2,-2
1576152977053199,1,-1,-2,-2,0,-3,0,1
1576152977075139,-1,0,-2,-3,1,1,-3,-5
1576152977075139,1,-1,0,0,0,-1,0,0
1576152977076140,1,0,-1,-1,-2,1,-3,3
1576152977076140,-4,-2,-1,0,-1,-1,1,0
1576152977088139,-3,1,1,1,3,0,-3,-3
1576152977088139,-1,-2,-2,-1,-7,-1,-1,-2
1576152977097082,1,0,-1,-2,1,-4,-3,1
1576152977097082,3,-4,1,-1,0,0,2,1
1576152977112142,-1,0,0,1,-1,-1,-1,1
1576152977112142,-5,-2,-1,1,2,-2,0,-4
1576152977114036,0,-3,-2,1,0,3,1,1
1576152977114036,-4,1,-3,-3,-3,-1,-3,-1
1576152977135024,1,-2,-3,-1,-1,0,2,-3
1576152977135024,2,-2,-1,2,-2,2,-2,-3
1576152977135980,1,0,0,0,-1,0,1,1
1576152977135980,-4,-1,0,-1,3,-3,-3,-2
1576152977147945,-2,-2,2,-1,-1,0,-2,-2
1576152977147945,-2,1,0,-1,2,0,1,0
1576152977156925,4,-1,-1,-2,-4,-1,-3,2
1576152977156925,-2,-2,-1,-2,3,1,-1,-1
1576152977171881,-1,-1,-2,-1,-2,-3,-1,-1
1576152977171881,0,-2,-1,-3,-1,-4,0,-2
1576152977173875,0,-1,0,1,0,4,-1,-1
1576152977173875,-1,0,-1,-1,-3,-2,1,2
1576152977210776,-1,0,-1,0,-1,-1,-4,-3
1576152977210776,2,-2,-2,1,1,-2,1,0
1576152977211777,-1,-2,-2,0,-1,4,1,-1
1576152977211777,-2,-2,-2,0,-2,-9,-2,-2
1576152977212770,-3,-2,1,-2,-2,0,2,-3
1576152977212770,0,-1,0,1,-1,0,-1,1
1576152977216852,-1,3,0,1,-1,1,-1,-1
1576152977216852,2,-2,-2,1,-2,2,0,0
1576152977231752,0,0,2,-1,-2,-5,-2,-3
1576152977231752,2,-1,-2,-2,1,-1,-3,-4
1576152977233716,-2,-1,-1,-1,0,-2,2,0
1576152977233716,-2,1,0,-1,1,0,-4,0
1576152977261665,-3,-1,-2,-1,-5,-1,0,-1
1576152977261665,-2,1,1,-1,-1,-4,-2,1
1576152977270616,0,-1,-1,0,0,-3,1,1
1576152977270616,-1,-2,1,-3,0,-1,1,-2
1576152977270616,0,1,-2,-2,-2,3,1,-1
1576152977270616,-3,-2,0,-1,-3,0,0,1
1576152977277606,3,-3,-1,1,-2,-3,3,1
1576152977277606,-4,1,-1,-3,-1,0,0,0
1576152977292568,-5,2,0,-1,1,-3,-4,-2
1576152977292568,-3,-3,0,-1,-2,1,-1,2
1576152977293559,-1,-3,-3,-1,0,-1,-2,-2
1576152977293559,1,-3,0,1,-1,0,-2,0
1576152977322582,2,0,-2,1,0,1,-2,-4
1576152977322582,0,3,-1,-2,5,-4,-3,-3
1576152977324473,1,0,-1,-2,-2,0,-1,0
1576152977324473,0,0,-1,-1,0,-4,0,1
1576152977328465,-5,-2,-1,-2,-2,0,0,-1
1576152977328465,1,1,0,0,1,3,-4,-2
1576152977337455,-3,-3,0,-2,0,-2,2,2
1576152977337455,1,0,-2,-1,-1,2,1,-2
1576152977352501,-1,-2,-2,0,-1,-6,-2,0
1576152977352501,-2,-2,-2,0,-2,2,0,-3
1576152977353376,2,0,0,0,0,0,1,0
1576152977353376,-1,-2,-3,-1,-3,-7,-4,0
1576152977373422,-2,-2,1,-2,-1,-1,-3,-2
1576152977373422,-2,-4,1,-1,-2,-1,-1,0
1576152977382300,-2,1,-1,-1,1,-2,-1,1
1576152977382300,-1,0,1,0,-2,2,-1,-1
1576152977388286,-2,-1,-1,-2,0,-3,2,-1
1576152977388286,-2,0,-2,-4,-4,-1,0,-1
1576152977397265,2,0,-1,-1,1,4,1,-2
1576152977397265,0,1,-1,-1,-2,-2,-3,-3
1576152977412318,-3,-3,1,-2,1,-4,-2,-2
1576152977412318,-2,-2,-3,0,-5,0,-1,0
1576152977413219,-2,-3,0,0,-2,-2,-1,0
1576152977413219,-2,2,1,-2,2,-2,-1,-1
1576152977434162,1,1,-2,-1,-3,0,-1,-1
1576152977434162,-2,0,-1,0,-3,-2,0,-2
1576152977436154,2,1,-2,-1,0,6,-1,6
1576152977436154,-3,2,-2,1,0,3,-2,1
1576152977457201,-3,1,-1,-1,-1,-4,-3,-5
1576152977457201,-2,-4,0,-1,0,-3,-1,1
1576152977458097,-1,0,-3,-3,-3,-5,1,0
1576152977458097,-1,-2,-2,-2,-2,4,1,-1
1576152977487121,-2,-1,1,1,0,4,-1,-2
1576152977487121,3,2,0,-1,0,-3,-3,-4
1576152977489019,-2,-2,-3,-1,1,1,-1,-1
1576152977489019,1,-2,-1,0,-2,-2,1,0
1576152977495043,2,3,0,-2,-4,-2,2,-2
1576152977495043,-3,-1,-2,1,1,1,-2,0
1576152977496000,1,-3,0,-2,-2,-2,1,2
1576152977496000,-5,-4,-3,0,1,0,0,-2
1576152977517038,0,-2,-2,-1,0,-4,-2,-1
1576152977517038,1,-2,-1,-1,-4,7,3,0
1576152977518938,1,0,-3,-2,-2,-2,-3,-2
1576152977518938,-2,0,-1,-1,-1,-4,-1,-1
1576152977546961,-3,-2,-3,1,-2,-1,-2,0
1576152977546961,-1,-2,0,-1,3,0,1,-1
1576152977548759,1,-1,-2,-3,-5,-6,1,0
1576152977548759,0,-2,-1,-5,0,-1,1,2
1576152977554736,-4,2,-1,-1,-2,1,-3,0
1576152977554736,1,-1,1,0,-2,0,2,0
1576152977555736,0,-3,0,1,0,3,-1,0
1576152977555736,-2,1,-2,1,0,-1,-1,-1
1576152977576782,-3,0,2,-1,0,-1,-2,0
1576152977576782,-2,3,-1,-2,0,-2,0,0
1576152977578673,-1,-1,-1,0,1,-4,-1,1
1576152977578673,1,-3,-2,1,0,-1,3,-1
1576152977599719,2,-2,-1,1,-3,-1,-1,-4
1576152977599719,2,0,0,1,-2,-1,-4,-2
1576152977600614,2,2,-3,0,4,-1,1,1
1576152977600614,0,2,-2,-1,-4,1,0,-1
1576152977614675,-2,-3,-1,-3,0,1,-1,-3
1576152977614675,1,1,-1,1,-3,-5,0,-1
1576152977616571,1,1,-3,-1,2,4,0,1
1576152977616571,-1,-2,0,0,-2,-6,0,-1
1576152977637521,1,1,-1,0,-3,0,-2,-4
1576152977637521,1,-1,-2,-1,-1,1,0,2
1576152977638513,0,-3,1,0,2,-2,1,0
1576152977638513,1,0,-2,-2,3,-1,-1,-3
1576152977651585,1,-1,1,0,1,-1,-1,-5
1576152977651585,-1,-3,-2,-1,0,1,-1,1
1576152977658464,0,0,0,-1,-1,0,0,0
1576152977658464,-3,0,-1,-1,-1,0,-1,-2
1576152977674522,-4,-3,-2,0,-5,-3,-1,-3
1576152977674522,-2,1,0,-2,2,3,-1,-2
1576152977680505,3,-5,-1,0,-1,1,-2,3
1576152977680505,-4,-1,0,2,-1,0,-5,-2
1576152977713417,-4,-1,1,-4,0,0,-2,2
1576152977713417,-1,-3,-1,0,-3,-6,0,-2
1576152977715310,-1,-5,-3,-1,-2,-1,3,-1
1576152977715310,0,-1,-1,-3,-1,-2,-3,-1
1576152977716303,2,1,-2,-1,-2,-3,1,-1
1576152977716303,-1,-1,-2,-1,-2,0,-1,-1
1576152977719361,-1,1,-2,-2,1,2,-2,-1
1576152977719361,-3,-4,-1,0,0,0,0,-1
1576152977734355,-1,-1,2,-1,0,-3,-3,-4
1576152977734355,-1,1,0,-1,-3,-4,-1,0
1576152977736251,2,0,0,-1,0,3,0,-1
1576152977736251,-3,1,0,-3,-4,-3,-2,-2
1576152977765181,1,0,-1,-1,-2,0,-2,-3
1576152977765181,-1,-3,1,-1,-2,0,0,-5
1576152977772166,0,-2,0,0,3,-2,0,3
1576152977772166,-1,-2,-1,1,-1,5,2,0
1576152977773115,-2,-2,-1,0,-2,-2,-2,-1
1576152977773115,-2,0,0,0,1,2,1,-2
1576152977778133,-2,-1,-3,-2,-1,-1,1,0
1576152977778133,0,-1,0,-3,-1,4,-3,-2
1576152977795054,-1,0,0,0,-2,-5,-2,-2
1576152977795054,0,0,-3,-1,-2,-2,-2,-2
1576152977796056,-3,-2,0,0,-2,2,-2,2
1576152977796056,0,2,0,-1,1,-2,0,-2
1576152977825007,-2,-3,0,0,0,2,-1,-3
1576152977825007,-2,1,1,0,-1,-1,1,-1
1576152977825976,-1,1,-2,-1,0,-3,0,-2
1576152977825976,0,2,0,-1,0,0,-3,-1
1576152977831015,-3,1,-1,-1,-1,1,-2,-1
1576152977831015,-1,-1,-2,0,0,-4,-1,1
1576152977837943,-2,-4,-3,-2,-2,0,-1,0
1576152977837943,0,-2,0,2,0,-4,0,1
1576152977854896,-4,-1,-2,0,-1,-6,-2,-1
1576152977854896,-1,1,-1,0,0,0,-1,1
1576152977855894,-2,-1,-2,1,1,0,-1,0
1576152977855894,-4,-1,-3,-1,-1,1,0,-2
1576152977877894,-2,-1,1,2,-1,-4,-1,-2
1576152977877894,2,-1,1,-1,2,-1,-4,-4
1576152977878836,-1,3,-2,-1,-6,3,1,2
1576152977878836,0,-2,-1,-2,1,-3,-5,-1
1576152977891819,-1,0,-2,-1,0,0,-3,-3
1576152977891819,-2,-3,-1,0,1,-3,0,2
1576152977897854,2,-1,-2,-2,1,4,-1,-2
1576152977897854,-1,-1,1,-1,-3,0,0,0
1576152977929794,-4,1,-2,-1,-2,-2,-2,-4
1576152977929794,3,-2,-1,-3,-1,2,-2,-2
1576152977930695,0,-1,-1,-2,0,1,-3,1
1576152977930695,-1,3,0,0,-1,-1,-2,0
1576152977936781,-3,-1,-1,-1,0,5,1,-2
1576152977936781,0,-2,-1,0,-2,-3,-1,-1
1576152977938677,-1,-1,0,1,0,-1,-1,-1
1576152977938677,-3,2,-1,2,2,0,-3,-2
1576152977950744,0,-3,1,-3,-3,-1,2,1
1576152977950744,-2,-1,-1,-1,-1,-2,-1,0
1576152977959621,0,-2,0,-1,0,1,1,0
1576152977959621,0,0,1,1,0,-2,1,-1
1576152977989537,-4,0,1,-1,0,0,-2,-3
1576152977989537,-1,0,-2,0,-3,-3,-2,-1
1576152977991531,1,1,-2,-2,3,-2,0,-1
1576152977991531,1,-2,-1,-1,-2,0,-1,-1
1576152977997562,-4,-1,-1,0,0,0,-1,0
1576152977997562,1,-2,1,-2,0,-1,1,0
1576152977998516,0,-1,-2,0,-1,0,1,1
1576152977998516,-3,-1,-1,1,-1,-2,0,-1
1576152978010482,-1,-1,1,-1,0,2,-1,-1
1576152978010482,-1,-1,-2,0,-3,-1,-1,-1
1576152978019456,1,-1,-2,-1,0,0,2,2
1576152978019456,-2,0,1,-2,-4,-2,1,-3
1576152978042515,0,0,-1,-1,0,-6,-1,-1
1576152978042515,1,2,0,1,-1,0,-1,0
1576152978043393,-2,-4,-2,-1,-1,0,-5,-1
1576152978043393,0,-1,-2,-2,1,1,1,0
1576152978057474,-1,-2,-1,0,-1,-4,-2,1
1576152978057474,2,-3,-1,0,-2,4,1,0
1576152978058352,1,3,-2,-2,-1,-7,0,2
1576152978058352,-2,-1,-2,-2,0,-1,-4,-3
1576152978070424,-2,1,-1,-1,-4,-1,1,0
1576152978070424,-1,-1,-1,-3,-1,1,-3,-2
1576152978079359,2,0,-1,-1,0,0,1,1
1576152978079359,-1,-3,-3,-2,-2,-2,2,-2
1576152978095367,0,0,0,0,0,-4,2,-2
1576152978095367,1,-3,-1,-1,1,6,0,-2
1576152978100334,1,-3,1,1,0,-2,0,0
1576152978100334,0,-1,-2,-3,-4,-2,-2,0
1576152978117219,-4,-2,-1,-1,0,-2,0,-2
1576152978117219,-3,-1,0,-1,0,-1,-2,-3
1576152978118198,3,-2,-1,-1,-3,3,3,-2
1576152978118198,0,-1,0,-1,1,0,-2,-2
1576152978131203,-1,-1,0,0,-2,0,-1,-1
1576152978131203,2,0,-1,0,-1,-3,0,1
1576152978157090,1,1,-2,-2,-1,1,2,2
1576152978157090,-1,0,-2,2,-1,0,-1,2
1576152978157090,-3,-2,-2,-1,-1,0,-1,0
1576152978157090,-2,-1,0,-1,-1,-3,-3,-1
1576152978161141,3,-1,-2,1,1,2,-2,2
1576152978161141,-2,-1,-2,-4,-1,-1,-2,0
1576152978178045,-1,3,0,0,1,-2,-3,-4
1576152978178045,-1,-2,-3,-2,0,1,2,1
1576152978179035,-2,-1,-2,-2,0,-2,-1,-3
1576152978179035,-3,-1,0,-2,-2,-1,-1,-3
1576152978207057,-1,-1,0,-1,0,3,-1,-4
1576152978207057,-2,0,-1,1,-2,-2,0,0
1576152978208954,-3,-2,-1,-1,1,-3,-5,0
1576152978208954,-4,-1,1,-2,0,3,-1,1
1576152978215019,0,-3,-1,-1,-1,-1,-5,-2
1576152978215019,2,-1,0,-2,-1,-1,1,-2
1576152978215936,-1,1,-2,0,1,1,1,2
1576152978215936,-3,2,-1,-1,0,-2,-1,-4
1576152978236922,-3,0,0,0,0,3,-2,-1
1576152978236922,-4,-2,0,1,5,-6,0,0
1576152978238872,1,-1,0,-1,-6,1,-1,-2
1576152978238872,-2,0,-1,1,0,-3,-2,-1
1576152978266843,0,0,1,1,0,1,0,-2
1576152978266843,-2,0,1,-3,-2,-2,-3,2
1576152978268788,1,0,-2,0,2,1,2,1
1576152978268788,-3,0,-1,-1,-2,0,0,-1
1576152978274825,-1,-2,2,-2,-3,-2,-2,-1
1576152978274825,0,-3,-1,1,-1,1,-2,0
1576152978275769,-1,3,-1,0,1,0,-1,4
1576152978275769,-1,-4,1,0,0,0,-1,0
1576152978296765,-5,2,-3,-3,-2,-6,1,-3
1576152978296765,2,1,-2,-1,-1,-2,2,-3
1576152978298709,-1,-5,-3,-4,-3,6,-1,-1
1576152978298709,-2,-2,-2,1,0,-4,0,2
1576152978319708,-2,-2,1,-1,-4,-1,0,-1
1576152978319708,2,-2,0,-2,-1,0,0,-2
1576152978320651,1,-1,-1,0,2,-1,-4,0
1576152978320651,-1,-2,-2,-3,-1,-6,-1,-2
1576152978334641,-2,0,-2,1,-2,-3,1,-1
1576152978334641,0,2,-2,1,-1,3,-1,-2
1576152978335611,-1,-2,-1,-1,0,0,1,-2
1576152978335611,-1,-3,0,-1,-2,2,-4,-1
1576152978357551,1,-1,0,-2,-1,-1,-2,-2
1576152978357551,0,1,-1,0,0,-2,0,3
1576152978358553,3,-1,0,-1,0,1,1,0
1576152978358553,-2,1,-3,-3,-1,-2,-2,-2
1576152978379544,0,3,1,0,-1,-2,-2,0
1576152978379544,0,-4,-3,0,-5,-1,1,4
1576152978381488,-2,-1,-1,0,2,-3,-2,-3
1576152978381488,0,-1,-1,0,-2,3,-1,-1
1576152978394452,0,0,-1,-1,3,-1,-2,-3
1576152978394452,-2,-1,-1,-3,-1,4,-1,-1
1576152978396448,2,-1,-1,1,-3,-5,5,4
1576152978396448,0,-1,-2,1,-1,-1,-2,0
1576152978417459,-4,-2,-2,1,-2,-3,-5,-5
1576152978417459,1,-2,1,0,0,5,3,0
1576152978418389,3,-4,-2,0,-1,-8,2,1
1576152978418389,-2,1,2,-2,1,1,-1,-2
1576152978439439,1,-1,-1,-2,0,-2,-1,-3
1576152978439439,1,-1,0,-2,-1,-2,-4,-1
1576152978441327,1,0,-3,-1,-1,1,0,1
1576152978441327,-1,-3,-1,0,0,-2,-1,0
1576152978454336,-2,-2,0,-2,1,1,-1,4
1576152978454336,1,-1,-2,-1,-6,-3,1,1
1576152978456287,-1,-2,-2,0,2,1,1,0
1576152978456287,1,0,-1,-1,3,-3,-3,0
1576152978484248,-3,-2,1,0,-4,2,-3,-1
1576152978484248,1,1,0,-1,2,-4,0,1
1576152978486211,0,-2,-3,0,-3,2,1,1
1576152978486211,-1,2,0,0,-2,-1,2,-2
1576152978499267,-3,-3,-1,0,-1,3,1,-3
1576152978499267,-3,0,-1,0,1,-4,-1,-2
1576152978501173,-3,-1,-2,-1,1,-2,-3,0
1576152978501173,0,1,1,0,1,-3,1,-3
1576152978514235,0,-2,1,-3,-2,-3,0,-2
1576152978514235,-1,-2,-3,-1,-1,4,-1,-1
1576152978521113,-1,-1,1,-1,1,2,1,1
1576152978521113,0,-2,-1,-1,-3,-3,1,-2
1576152978537178,1,-2,0,1,-3,-5,-1,-2
1576152978537178,-2,1,-1,-2,-1,0,-1,-1
1576152978543156,1,-1,-3,-2,0,5,-4,1
1576152978543156,-3,-1,-1,-2,1,1,-2,-2
1576152978560056,-3,-3,-2,1,-2,0,1,-3
1576152978560056,0,-3,-2,0,-1,-2,-4,0
1576152978561011,0,1,-2,-3,1,-1,-2,0
1576152978561011,-4,2,1,0,-3,-1,-1,-3
1576152978574078,-4,-1,0,-2,-2,3,-1,-1
1576152978574078,1,1,1,1,1,-6,-1,0
1576152978587952,0,-3,0,-2,-2,1,-1,0
1576152978587952,-3,-1,-1,-2,-2,-1,-1,-1
1576152978597018,0,-1,1,0,0,-1,-1,-2
1576152978597018,-2,0,-1,-1,-2,1,1,-1
1576152978598908,-2,0,-1,-1,3,-1,-3,-1
1576152978598908,-2,1,-2,-2,-4,-4,-2,1
1576152978619850,-3,-1,0,0,-2,1,1,-3
1576152978619850,0,0,1,-2,-1,-1,0,1
1576152978625938,-2,0,-2,1,-3,-2,0,-1
1576152978625938,-1,-2,-2,-3,1,2,0,-1
1576152978633916,-1,0,-3,-1,-2,-5,-1,-3
1576152978633916,-1,-1,-1,-1,0,2,-1,0
1576152978647778,-2,-2,-1,0,-1,-3,1,-1
1576152978647778,-1,-2,-2,1,-2,-1,-2,-2
1576152978656856,2,1,0,-3,0,-3,-4,-2
1576152978656856,-3,-1,0,0,2,-1,1,0
1576152978658746,-2,-3,-3,-1,-1,-1,2,0
1576152978658746,1,0,-1,-1,0,-3,-3,-5
1576152978679792,-3,0,1,0,2,-4,0,-3
1576152978679792,2,-2,-2,0,-6,1,-2,2
1576152978680691,0,0,-1,-3,2,-2,-1,-1
1576152978680691,1,1,-3,-2,2,7,0,-5
1576152978709612,-2,1,-2,-1,-3,-8,-3,-1
1576152978709612,-1,-1,-2,0,0,1,0,-2
1576152978711607,0,0,0,-2,-3,-3,1,1
1576152978711607,-3,0,-1,-1,-1,-1,-5,-2
1576152978717589,-3,0,-2,-2,-1,2,0,1
1576152978717589,0,-2,-1,2,0,-1,1,-2
1576152978718595,3,0,-2,1,0,3,0,2
1576152978718595,-3,0,-1,-2,0,-2,0,-2
1576152978739635,-1,1,2,-1,-3,2,-2,-2
1576152978739635,-1,-2,-2,-2,1,-3,-2,1
1576152978741531,-1,-2,-2,-1,-2,3,-3,0
1576152978741531,1,0,1,0,-1,-4,1,0
1576152978761575,-1,2,-1,0,1,0,0,1
1576152978761575,1,0,0,-2,-1,3,-1,0
1576152978768455,1,-1,-1,0,1,-1,0,-3
1576152978768455,-2,-4,-2,-1,-4,-1,-2,0
1576152978777526,1,-1,0,-2,0,-3,-1,-2
1576152978777526,-3,-2,-3,-3,-1,-2,1,1
1576152978778428,0,-1,1,0,1,-1,0,2
1576152978778428,-2,0,0,1,0,-1,-2,-2
1576152978799470,2,0,0,-1,-5,-3,-1,-4
1576152978799470,4,-1,-2,-2,1,0,-1,-1
1576152978801365,-1,-1,0,-4,-3,-5,0,1
1576152978801365,-1,-2,-1,-1,-1,2,-4,-1
1576152978813382,-2,1,-4,0,-1,0,-1,2
1576152978813382,-2,-2,-3,-1,-1,1,-3,-1
1576152978822310,-2,-3,0,-2,1,1,1,-2
1576152978822310,0,0,0,0,0,-1,-1,-1
1576152978837305,0,-2,1,0,0,0,0,-1
1576152978837305,1,-1,-1,0,-4,-1,0,2
1576152978838270,-2,-2,-2,0,2,1,2,0
1576152978838270,-1,-1,-1,1,0,-3,0,1
1576152978875270,-1,-1,0,1,0,0,-1,-3
1576152978875270,1,0,-1,0,2,0,1,0
1576152978877165,-2,-1,1,-2,-1,1,0,0
1576152978877165,-1,0,-3,-2,-3,-3,-1,-5
1576152978877165,-1,-3,0,-2,-1,0,-1,-3
1576152978877165,2,-3,2,0,0,0,0,0
1576152978882153,-1,1,-3,-2,-2,0,0,0
1576152978882153,-1,1,-2,-2,-1,2,-1,-2
1576152978897210,-2,-1,1,0,0,-1,0,-2
1576152978897210,1,-1,-1,-1,-1,-4,0,-1
1576152978899110,2,-2,-4,1,-2,2,-1,0
1576152978899110,-2,-2,-1,-3,-3,-1,-1,-1
1576152978919150,0,0,0,0,-5,1,-2,-1
1576152978919150,-2,-2,-2,-3,0,-3,0,0
1576152978921045,-4,1,-1,-1,-1,3,-1,-2
1576152978921045,-3,0,-1,0,1,-4,-1,-2
1576152978933050,2,0,1,0,0,0,-1,-3
1576152978933050,-1,0,-1,-1,0,0,-1,1
1576152978941990,-3,-2,-2,0,-2,-2,-1,-3
1576152978941990,-6,-2,2,-1,1,-1,-2,-2
1576152978957049,-2,-1,-2,0,-2,0,-1,-2
1576152978957049,-2,-1,0,2,-2,2,1,-2
1576152978958946,0,0,-2,-3,0,1,0,0
1576152978958946,-2,2,-1,0,-2,-2,-3,-2
1576152978978893,0,-1,-2,-1,1,-5,-2,-5
1576152978978893,1,2,-1,0,-2,7,1,1
1576152978986918,1,-5,-3,-1,2,-4,1,3
1576152978986918,-2,0,0,-1,0,-1,-4,-1
1576152978992956,-4,0,0,-2,-8,-1,1,6
1576152978992956,0,1,-1,-3,1,-4,0,-3
1576152979001879,2,-1,-2,-1,-2,1,-2,2
1576152979001879,-1,-1,0,0,-2,-3,0,0
1576152979016893,-1,0,-4,1,3,-2,-1,-1
1576152979016893,-1,0,1,-2,-2,-3,0,1
1576152979018787,-3,0,-3,-1,-1,2,-3,1
1576152979018787,-2,-1,-1,0,-2,-3,-2,-2
1576152979039834,0,-4,-1,-1,-2,1,-3,-1
1576152979039834,1,-2,-1,-1,0,1,1,0
1576152979040728,-1,-1,-1,-1,2,1,0,-1
1576152979040728,-4,-1,-2,-2,-3,-1,-3,-3
1576152979053717,-2,1,1,0,0,4,-4,-2
1576152979053717,-1,-2,-1,2,0,0,3,0
1576152979062675,-3,1,1,-2,0,0,-3,-1
1576152979062675,2,0,1,-2,2,0,-1,-3
1576152979077626,2,0,1,-1,-4,-1,2,2
1576152979077626,-1,-1,-2,-1,1,-1,-3,-1
1576152979078634,1,1,-2,0,0,0,-1,-2
1576152979078634,-4,-3,0,1,1,-3,3,2
1576152979099666,-1,-1,-1,0,-3,-3,0,-2
1576152979099666,2,-2,-3,-1,-1,1,-1,2
1576152979101562,0,-1,-1,-1,0,-1,-1,-3
1576152979101562,-4,2,1,-1,-1,-1,-1,-2
1576152979113642,-2,0,2,3,0,-3,-1,-2
1576152979113642,1,-2,-1,0,-4,-2,1,1
1576152979122507,-2,1,-3,0,-1,1,-1,1
1576152979122507,-4,0,0,-1,-1,-2,0,-2
1576152979144448,-1,-1,-1,0,2,3,1,-1
1576152979144448,-1,0,1,-1,4,-6,-3,0
1576152979146446,2,0,-3,-3,-7,-1,2,-1
1576152979146446,2,-3,0,0,-1,4,0,-3
1576152979159513,-4,-3,-3,-3,-2,-3,-4,0
1576152979159513,1,-2,1,0,1,-1,-1,-1
1576152979161403,-2,-1,-1,1,3,-2,-2,3
1576152979161403,-3,-2,-1,-1,-2,0,-2,-4
1576152979173370,-1,-1,1,-1,0,2,-1,-2
1576152979173370,-2,1,-2,0,-3,2,3,0
1576152979182346,0,0,-1,-3,-2,-3,-2,-3
1576152979182346,0,-1,-1,-1,-3,-5,1,2
1576152979212317,-2,3,1,-2,-1,-2,-3,-2
1576152979212317,4,-1,-1,-1,-2,1,0,-2
1576152979213263,0,-1,-1,1,0,0,0,0
1576152979213263,-2,2,1,0,-2,-2,-2,-4
1576152979219295,-1,-4,-3,-3,-3,-5,1,2
1576152979219295,-2,-4,-1,-1,-1,2,1,1
1576152979221242,-2,-1,0,0,0,0,0,1
1576152979221242,0,2,-2,-1,-1,-6,-3,0
1576152979233260,1,1,-1,-2,2,-1,-1,-4
1576152979233260,0,0,-4,-1,-2,4,-3,0
1576152979242189,-1,-1,0,0,0,-3,1,-2
1576152979242189,3,-4,-2,-1,-1,1,-2,0
1576152979264946,-3,1,0,-2,-2,-1,-2,-4
1576152979264946,-1,-4,-3,-2,0,0,3,1
1576152979265882,4,-3,-2,0,1,4,-2,0
1576152979265882,-1,2,0,-1,-2,-2,0,-3
1576152979286866,-2,-1,-2,-2,0,-1,-1,0
1576152979286866,-1,-1,0,0,-2,0,0,1
1576152979288819,-3,0,0,0,-1,-3,-1,-3
1576152979288819,-3,-2,-1,-1,-1,-1,-1,-3
1576152979300887,1,0,-3,0,-4,0,-1,-1
1576152979300887,-1,-3,1,-1,2,-1,-2,-2
1576152979318749,0,-2,1,-3,-2,2,1,-2
1576152979318749,1,-2,1,-1,-2,-7,-2,-1
1576152979324824,-4,-2,-1,-1,0,0,-1,-2
1576152979324824,4,0,0,0,-1,-2,-3,0
1576152979325729,0,0,-2,2,0,-3,-2,-3
1576152979325729,-1,-4,-1,-1,0,4,-2,-3
1576152979339790,1,-2,-2,2,-1,-3,-2,1
1576152979339790,1,-4,-2,0,-2,-4,0,1
1576152979341680,-4,0,-1,0,-2,-2,0,3
1576152979341680,-1,-1,-2,0,4,0,-1,-2
1576152979378589,-3,-3,1,0,-7,-1,-1,-1
1576152979378589,0,3,0,-2,3,1,-1,-4
1576152979379578,0,-4,-2,-2,1,-1,-1,-1
1576152979379578,-2,-1,0,1,-1,-2,-5,0
1576152979380581,0,-1,-1,-2,4,-4,0,-3
1576152979380581,-3,-2,-2,-1,-1,1,1,2
1576152979384566,2,0,-2,-1,-2,0,-1,1
1576152979384566,-1,0,-1,-4,-4,-3,-3,-4
1576152979399625,1,-1,0,0,-1,-3,-1,-2
1576152979399625,3,-1,-2,0,0,2,1,2
1576152979401521,-2,-4,-1,0,1,-1,0,-1
1576152979401521,-1,-1,-1,-2,-2,-1,-2,0
1576152979429482,-3,-1,0,-2,-1,0,2,-1
1576152979429482,0,-3,-1,-2,-1,1,1,-1
1576152979431440,-1,2,1,-2,-2,-2,-2,-1
1576152979431440,-4,0,-2,-2,-1,3,-2,-3
1576152979437470,1,-1,1,0,-2,0,-2,2
1576152979437470,0,1,-1,0,-1,-1,-1,-1
1576152979438421,0,-1,-1,-3,2,-1,3,2
1576152979438421,0,-3,-1,1,-4,-3,0,0
1576152979459464,1,0,-1,-1,2,1,-1,-4
1576152979459464,-1,-1,-1,1,-1,-4,0,2
1576152979461367,0,1,-1,1,-2,2,-4,-1
1576152979461367,-3,-1,1,1,-1,-3,0,-2
1576152979489385,0,-3,-2,-1,-2,-1,-1,0
1576152979489385,0,-1,-1,-3,-3,0,-3,2
1576152979491287,1,-2,-2,-2,-2,-1,-1,-1
1576152979491287,-2,1,0,-1,2,3,0,-2
1576152979496369,-3,1,0,-1,2,-7,-2,0
1576152979496369,2,-1,-2,-1,-7,2,-1,-1
1576152979503345,1,-3,-1,1,1,-2,0,-1
1576152979503345,-1,-2,-1,1,-3,1,-2,-1
1576152979519301,-3,1,1,1,1,-3,-2,-3
1576152979519301,0,-1,-2,0,3,-3,1,1
1576152979521202,-2,1,-2,-1,0,7,-1,-3
1576152979521202,-2,2,1,-1,1,-2,-1,1
1576152979542156,0,-1,-1,-1,-1,2,-1,0
1576152979542156,-1,-2,-2,0,1,-4,-2,0
1576152979544146,-4,2,-2,-1,-2,-1,-2,0
1576152979544146,-1,0,-1,-2,-1,-2,1,-2
1576152979556208,-2,-2,-2,2,-2,1,-1,0
1576152979556208,0,0,-1,-3,2,2,0,-1
1576152979563192,2,0,-1,-1,1,-7,2,1
1576152979563192,-3,2,0,0,1,-1,-1,-4
1576152979595042,-1,-1,-1,-2,-5,-1,0,1
1576152979595042,1,-2,-1,-1,4,-2,-3,-4
1576152979596002,-1,-2,0,0,1,0,-3,2
1576152979596002,0,-2,0,0,-1,2,1,-1
1576152979602085,0,1,1,0,-1,1,-2,-1
1576152979602085,-3,-1,0,-2,0,1,3,-1
1576152979603986,-1,-2,-3,0,0,-5,0,0
1576152979603986,-3,0,0,1,-4,2,-1,-1
1576152979616943,2,-2,0,0,1,0,-3,0
1576152979616943,0,-1,-2,-2,-1,0,-1,2
1576152979623030,-1,0,-1,1,2,-1,-3,-2
1576152979623030,-2,-4,1,-2,-3,-2,-2,-1
1576152979638891,-4,0,-3,-1,-1,1,-1,-3
1576152979638891,0,-3,-2,-2,-2,2,-2,1
1576152979654843,-1,0,-2,-3,4,-3,0,-2
1576152979654843,1,0,-2,1,-8,-2,-2,0
1576152979661832,-1,-1,1,-1,-2,-6,-3,0
1576152979661832,-1,-2,-1,1,-1,2,-1,0
1576152979663825,-1,2,-1,-1,-2,-3,3,-2
1576152979663825,-2,0,-1,0,0,-1,1,-2
1576152979676786,1,-1,-1,-1,-2,-4,-2,1
1576152979676786,-2,2,-3,-2,-3,-1,1,1
1576152979683769,-3,-3,-1,-1,0,2,-1,-2
1576152979683769,-2,2,-1,1,0,-1,-3,-1
1576152979714685,0,-2,1,-1,-1,2,-3,-2
1576152979714685,1,-1,-2,0,0,1,3,4
1576152979716676,-3,-1,-2,-1,-3,-5,-4,2
1576152979716676,-2,-1,0,-1,0,0,-1,-3
1576152979722663,-4,-1,-3,-2,1,-4,0,-4
1576152979722663,-4,-1,-1,0,-2,1,-4,-2
1576152979723666,-1,1,1,1,2,0,0,-1
1576152979723666,-2,-3,2,-1,-2,-2,0,-2
1576152979736723,-5,1,1,-1,0,-2,-5,-2
1576152979736723,0,-1,-1,-1,-1,-3,2,-3
1576152979743659,1,-3,-2,-2,-2,-1,0,2
1576152979743659,0,-4,-2,-4,-1,0,-1,-1
1576152979767590,-2,0,0,-1,-1,2,0,-2
1576152979767590,4,1,-1,1,-2,2,0,-1
1576152979768546,-1,0,-2,2,1,5,4,-1
1576152979768546,-3,-2,-2,-1,0,-11,-2,-2
1576152979782546,-2,1,-4,1,-1,-1,0,-3
1576152979782546,5,1,-1,-1,0,-2,-1,3
1576152979783499,-1,0,-1,-1,1,2,-1,-3
1576152979783499,-3,-1,0,-1,-1,-1,-2,1
1576152979795566,2,-4,0,-1,-3,-1,1,-2
1576152979795566,2,-1,-1,1,2,-2,0,-1
1576152979821397,0,-3,-2,-3,-3,0,-1,1
1576152979821397,-2,4,-3,1,-2,1,-3,-2
1576152979822394,1,-1,2,1,-3,0,-2,-2
1576152979822394,-4,-4,0,1,0,-2,1,2
1576152979825422,2,-3,-4,-1,-1,-3,0,1
1576152979825422,1,1,-2,-2,3,-1,0,-3
1576152979842457,-4,-3,-1,-2,0,4,-2,-1
1576152979842457,1,0,-2,-1,-1,2,0,0
1576152979843340,-2,-2,-1,-2,-2,-3,-3,-3
1576152979843340,-3,0,-2,-1,-2,-4,-1,-1
1576152979872357,-1,-3,-1,-3,-2,2,-3,-4
1576152979872357,1,-4,2,-2,1,-2,0,-2
1576152979873260,-1,-3,-3,0,-2,1,-2,2
1576152979873260,-2,2,0,-1,1,-2,-1,-3
1576152979879340,-1,1,0,-1,-5,-4,5,0
1576152979879340,-2,-1,-1,-2,-2,2,0,-1
1576152979881245,3,0,-2,1,0,1,-2,0
1576152979881245,-2,-2,1,3,-3,-4,-1,-3
1576152979902279,3,2,1,1,2,1,-4,-2
1576152979902279,1,3,-2,0,-1,0,1,2
1576152979904175,0,0,-1,-1,1,-1,4,-1
1576152979904175,-4,-2,-2,-2,1,4,-3,-1
1576152979916184,-1,0,-1,-1,0,-6,-2,-2
1576152979916184,-2,1,-2,-1,-1,1,1,1
1576152979931140,0,-1,-2,-2,-1,1,-3,1
1576152979931140,-1,-1,0,0,-3,-1,-5,-4
1576152979940081,-1,-2,-1,-1,-3,1,-1,-4
1576152979940081,0,-4,-3,0,1,0,1,1
1576152979941078,-3,1,1,0,-2,-2,1,1
1576152979941078,0,1,-1,-1,4,-1,0,0
1576152979962021,0,0,0,-1,-6,-5,1,-4
1576152979962021,2,0,-2,1,0,1,-2,0
1576152979964022,2,-2,-2,-1,-2,0,-5,1
1576152979964022,1,2,0,-1,1,-4,-4,-4
1576152979984984,-2,0,-1,1,-1,-2,-1,-2
1576152979984984,0,-2,1,-2,-2,-1,0,3
1576152979985961,-2,-2,-4,1,0,0,-1,-1
1576152979985961,0,-2,-1,-1,-2,-1,0,-1
1576152979999991,-2,-1,1,0,2,0,-2,-2
1576152979999991,0,-1,-2,-3,-2,-1,2,-1
1576152980000920,-1,0,-1,-2,1,-4,-2,-1
1576152980000920,-2,2,1,-1,-3,-1,-2,-2
1576152980021864,0,-2,0,-1,-2,-7,1,-3
1576152980021864,1,1,-3,0,-1,4,2,1
1576152980023864,2,-2,-2,-2,2,2,0,-3
1576152980023864,-1,-2,0,-1,-2,-2,-2,-2
1576152980044900,-1,2,-1,0,1,-2,-1,-2
1576152980044900,0,-2,-3,-1,2,-3,-2,2
1576152980045798,1,1,-1,-2,0,0,0,1
1576152980045798,-4,-3,-2,-2,-4,-2,0,-3
1576152980059862,1,-1,0,-1,0,1,-4,-1
1576152980059862,2,-1,-2,-3,-1,1,-3,0
1576152980060759,-3,1,-2,0,1,-2,1,4
1576152980060759,1,-4,0,-1,2,-2,-1,0
1576152980081806,6,-1,-4,-1,1,1,3,5
1576152980081806,-2,0,-1,-1,1,2,-1,0
1576152980083705,-6,1,1,0,-3,-2,-3,-8
1576152980083705,-4,2,2,0,-4,-3,-2,-5
1576152980104676,-5,0,2,-2,-7,3,-3,-2
1576152980104676,1,-3,2,0,-1,-4,2,2
1576152980106634,1,1,-5,0,1,2,-1,0
1576152980106634,-1,0,-4,0,1,0,-2,-2
1576152980119701,-2,-1,-3,-2,1,-1,3,2
1576152980119701,1,-2,-3,-1,2,-1,1,3
1576152980121594,1,-3,0,-1,1,-1,0,5
1576152980121594,0,0,-2,-1,1,1,0,-3
1576152980149534,-6,-1,2,0,-2,-4,-5,-3
1576152980149534,-1,0,0,1,-2,-3,-6,-3
1576152980151518,-1,-1,-1,-2,-3,1,2,-1
1576152980151518,-4,1,1,-1,-4,0,-1,-4
1576152980155512,-1,-1,2,0,-3,-9,-7,-5
1576152980155512,-3,1,1,3,-5,-2,-2,-6
1576152980164554,-5,0,2,-1,-1,-2,-1,-5
1576152980164554,-1,1,3,2,-2,-2,-3,-5
1576152980179449,-4,1,-1,-1,1,0,2,-3
1576152980179449,4,0,-2,0,-4,1,1,4
1576152980181435,1,-2,-3,-2,2,3,4,3
1576152980181435,-2,-3,-1,0,3,4,1,0
1576152980217372,-1,0,-3,0,1,1,1,0
1576152980217372,0,-4,-3,-1,1,3,2,1
1576152980219337,-2,3,-1,-2,2,4,-2,0
1576152980219337,0,0,0,-4,-4,-8,-1,-1
1576152980220335,-3,-1,1,0,0,2,0,-3
1576152980220335,3,-5,-4,-4,0,1,-2,3
1576152980224326,-1,-2,-1,0,-1,-1,-1,-2
1576152980224326,-1,-1,0,-1,-1,-3,-3,-1
1576152980239282,1,-1,0,0,-2,-1,0,-4
1576152980239282,1,-1,0,-1,1,-2,1,0
1576152980241274,-1,0,1,-1,1,-5,-3,-2
1576152980241274,-2,-1,-2,1,-5,0,-1,-1
1576152980269205,3,-1,-3,-1,-2,-2,0,0
1576152980269205,3,3,-2,1,1,-1,2,-1
1576152980271199,-1,-2,-2,1,2,-2,-2,0
1576152980271199,-1,1,0,-1,0,-2,0,-2
1576152980284202,-2,-3,-1,-1,-1,1,-1,-1
1576152980284202,-2,-2,-1,-2,1,3,1,-1
1576152980286160,1,2,0,0,-5,1,0,1
1576152980286160,-1,-1,-1,-1,0,0,0,1
1576152980299132,0,0,-2,-1,0,0,-4,-1
1576152980299132,0,-2,-2,-1,3,-4,-1,1
1576152980301121,0,-1,-2,0,-3,4,0,-1
1576152980301121,-2,-3,0,2,-1,-1,-1,-2
1576152980322092,-5,-1,-1,0,-1,-3,-3,-1
1576152980322092,0,1,-1,1,2,0,2,0
1576152980324061,1,-2,-1,-3,-3,0,-3,-1
1576152980324061,-3,-1,1,-2,0,1,-1,-1
1576152980345005,1,0,2,-1,0,0,1,-1
1576152980345005,1,-1,-2,-1,0,-3,1,-1
1576152980345999,-3,-2,-3,0,2,-1,1,0
1576152980345999,-4,-3,-3,0,0,-1,0,-1
1576152980365946,1,-1,-3,-2,-2,0,2,2
1576152980365946,0,-1,-1,-2,-1,1,1,0
1576152980383897,1,0,0,-2,-2,-4,-1,-1
1576152980383897,0,0,-1,0,-1,-3,-4,-1
1576152980384891,-1,-1,-1,-2,-2,1,-3,-1
1576152980384891,2,-2,-2,-1,-1,1,-2,0
1576152980387888,2,-4,-1,-1,-2,-3,0,-1
1576152980387888,-6,-1,0,-1,2,-1,-1,-3
1576152980404877,-4,0,0,0,-5,-3,-1,-2
1576152980404877,2,2,-2,-2,1,9,2,1
1576152980405836,-1,-5,-1,-1,-1,-12,0,-3
1576152980405836,-2,0,1,-2,-2,0,0,0
1576152980434800,3,0,-2,0,1,-2,-1,-3
1576152980434800,-5,-3,-2,0,-2,-1,-3,2
1576152980435753,-2,0,-2,0,-1,1,0,0
1576152980435753,-1,3,-1,0,-2,0,0,-3
1576152980441777,1,-5,-1,0,0,-3,1,-2
1576152980441777,2,1,-2,-3,-2,-3,0,3
1576152980443739,-3,-1,-2,-1,1,2,-3,-4
1576152980443739,-1,0,-1,-2,-2,-5,-3,-4
1576152980464782,-2,2,1,1,1,-1,0,-2
1576152980464782,-2,-2,-2,0,-3,0,1,2
1576152980466672,0,1,-1,0,0,0,-1,-2
1576152980466672,-4,-1,-3,-4,-3,0,-1,-2
1576152980487758,-1,0,-1,-3,-1,-1,-1,0
1576152980487758,1,-2,-1,-1,0,-1,0,1
1576152980489714,-1,-1,-1,-2,-2,-2,-3,0
1576152980489714,-1,0,-2,0,-2,-1,-1,-3
1576152980501699,-1,-3,-2,0,-2,-4,0,1
1576152980501699,-3,0,-1,1,-2,1,1,1
1576152980503678,-1,-1,0,-1,-2,1,-2,-2
1576152980503678,-2,-1,1,-1,0,-3,0,-2
1576152980548564,-3,-1,-1,-2,0,0,0,2
1576152980548564,1,1,1,-1,3,-2,-2,-4
1576152980549563,-5,0,0,1,4,0,-1,0
1576152980549563,1,-2,0,-1,-7,-2,-1,-1
1576152980550560,-1,-2,-3,-1,-1,4,-2,2
1576152980550560,0,-2,-3,-2,1,0,-1,0
1576152980554542,-4,-1,0,0,0,-2,-2,0
1576152980554542,-1,-2,0,-1,0,3,-2,-6
1576152980562532,1,2,0,0,-2,-5,0,0
1576152980562532,0,-1,-1,-1,1,0,1,1
1576152980563519,-1,0,-1,-1,-1,-2,-2,-1
1576152980563519,2,0,1,0,-2,-2,-2,-1
1576152980583774,3,-1,-2,0,1,0,0,-2
1576152980583774,0,1,-2,0,1,-1,1,2
1576152980607710,0,-1,0,0,-2,3,1,-5
1576152980607710,-3,0,-2,-1,-2,-4,0,2
1576152980608615,-1,2,-1,-1,3,4,-4,-1
1576152980608615,1,-3,-1,-2,-6,0,-1,2
1576152980610610,1,-2,0,-2,-2,-2,0,-3
1576152980610610,0,0,-1,-1,-1,-1,-2,-2
1576152980622576,0,-3,-1,-1,-1,3,1,-1
1576152980622576,2,-3,-3,1,2,0,3,1
1576152980623576,-1,0,-2,-1,-1,-3,0,-1
1576152980623576,-3,-2,0,-1,1,1,0,-2
1576152980644519,0,-1,0,-2,-1,-3,-5,-1
1576152980644519,-1,0,-3,0,-1,2,2,1
1576152980646504,-1,-2,-1,0,-1,0,-2,1
1576152980646504,0,-1,1,1,-2,-3,0,-1
1576152980658516,0,-3,-2,0,-4,1,3,0
1576152980658516,-1,1,2,-2,-1,-4,-3,-1
1576152980673744,-5,-1,-2,-2,-1,-1,0,-1
1576152980673744,2,-2,0,-2,-5,-1,-2,-3
1576152980681780,-1,-1,0,-1,0,-2,0,2
1576152980681780,0,0,1,-1,-1,3,1,1
1576152980683674,-2,3,-1,-1,-1,-10,-2,-3
1576152980683674,0,-2,-2,0,-1,6,-4,-1
1576152980704660,2,3,2,0,-1,-1,3,3
1576152980704660,-1,-2,-2,-1,0,0,-1,-3
1576152980712601,-3,-2,-1,-2,2,1,-2,-3
1576152980712601,-3,0,1,-2,-1,-1,-2,-3
1576152980718587,1,0,-1,0,0,0,0,-3
1576152980718587,-4,1,-2,-1,1,-3,-3,1
1576152980725565,1,0,-1,1,-3,0,-2,-1
1576152980725565,-4,-2,-1,-2,-1,-2,-1,0
1576152980742536,-3,0,-1,0,-3,2,0,-2
1576152980742536,0,2,0,0,6,-3,-2,1
1576152980743518,-1,-2,-1,-2,-7,1,-3,-2
1576152980743518,0,0,-2,0,1,-4,0,0
1576152980772393,-2,-2,-1,-2,1,1,-1,-1
1576152980772393,-1,-3,-5,-2,0,-2,2,0
1576152980773361,0,2,1,0,-2,3,-1,0
1576152980773361,-2,0,0,0,-1,0,-2,-4
1576152980778334,0,-1,-1,-1,0,3,1,4
1576152980778334,1,0,0,-2,-1,-3,-1,0
1576152980787316,-2,-1,-1,-2,-2,5,3,-2
1576152980787316,1,-3,0,0,-4,-8,-4,-3
1576152980817324,-2,0,-3,-2,-2,1,1,-4
1576152980817324,0,-1,-2,-1,-1,1,-1,1
1576152980818227,-2,0,-2,-1,0,-3,-2,-3
1576152980818227,0,-1,1,-1,-2,0,1,-1
1576152980824304,2,-2,-2,0,-1,1,-2,-2
1576152980824304,1,-1,0,-2,3,-1,1,-1
1576152980826203,-3,1,0,0,-5,-4,-2,-1
1576152980826203,0,2,-1,-1,2,1,-5,-1
1576152980838226,-2,-2,0,-1,2,-1,0,1
1576152980838226,-3,1,-1,-1,-1,0,2,3
1576152980847154,-1,-3,-1,0,2,-1,-2,-2
1576152980847154,-4,1,-1,-3,-2,-2,-3,-6
1576152980861209,0,-2,0,-1,-1,0,-1,-2
1576152980861209,0,-3,-1,-3,-2,2,-2,-2
1576152980877067,-1,2,0,1,0,1,-1,0
1576152980877067,-2,0,-2,0,-3,-5,2,0
1576152980885090,2,-1,-2,0,-1,2,-4,1
1576152980885090,1,-3,-2,1,0,-5,-1,-3
1576152980886044,0,-2,0,-2,4,-1,-2,1
1576152980886044,-8,-1,-1,-1,-7,-1,-1,-3
1576152980898052,1,0,-1,-4,1,-6,-4,3
1576152980898052,2,-1,-3,0,-2,1,2,1
1576152980906986,-2,-1,1,0,0,-3,-1,-1
1576152980906986,-2,-2,0,1,2,2,0,-3
1576152980929930,1,-2,-1,0,-4,-2,1,0
1576152980929930,-1,-2,-3,-2,-3,-1,0,-2
1576152980930929,0,-1,-1,-3,1,-2,1,0
1576152980930929,-1,2,0,-2,1,-1,-1,-1
1576152980945000,-2,-1,-1,-1,0,0,0,-1
1576152980945000,2,-1,0,0,0,6,0,0
1576152980945896,-4,-1,-1,-1,-2,-4,-6,-2
1576152980945896,-3,-3,1,-1,1,8,-2,-5
1576152980957900,0,-2,1,1,-1,-6,2,1
1576152980957900,-1,0,-2,-1,1,0,0,1
1576152980981726,0,1,-4,-2,-1,-3,-2,0
1576152980981726,2,0,-2,-1,-5,1,-3,2
1576152980982696,2,2,0,-2,3,-3,-1,-3
1576152980982696,-2,1,0,-1,-1,1,3,0
1576152980989680,-1,-1,-2,2,-1,-1,0,-3
1576152980989680,3,0,-1,-1,1,-5,-1,-2
1576152981004741,2,0,-2,0,-1,1,1,-2
1576152981004741,-1,-2,0,1,-2,-2,-6,2
1576152981006630,-1,-2,1,-1,0,-1,-1,-2
1576152981006630,-2,0,-1,0,-1,-1,1,-1
1576152981018601,1,0,-2,-2,-1,2,1,1
1576152981018601,-3,-4,-3,-3,0,1,0,0
1576152981034557,5,-4,-1,-3,-3,-1,0,0
1576152981034557,-1,-1,0,-1,-1,-2,0,2
1576152981049616,0,0,-3,0,-2,1,1,4
1576152981049616,-2,-1,-3,-1,4,-3,-1,-2
1576152981051520,0,1,-1,-1,-6,-2,-2,-1
1576152981051520,0,0,-1,-1,0,-2,-1,-4
1576152981064578,-1,-1,0,0,-1,-5,0,1
1576152981064578,0,-2,-2,1,0,3,1,2
1576152981066472,-4,1,0,-1,1,2,0,-2
1576152981066472,0,-2,0,-1,-1,-3,-3,-4
1576152981103439,3,-2,0,-1,3,1,-1,-3
1576152981103439,1,1,-2,0,-2,2,-1,1
1576152981105429,-3,-3,0,-2,-1,-4,-1,-3
1576152981105429,1,0,-1,0,-2,-1,0,-2
1576152981105429,0,-3,1,-1,2,2,-3,0
1576152981105429,-1,-1,-3,-1,-1,-3,1,1
1576152981109420,-2,1,-1,2,-1,1,-2,-1
1576152981109420,1,1,2,0,1,-4,-4,0
1576152981124390,-1,0,-2,-1,-8,1,2,1
1576152981124390,2,-2,-2,-3,1,2,1,-3
1576152981126381,-6,0,-2,-2,-2,-5,0,-1
1576152981126381,0,-6,-3,-1,0,-3,0,-2
1576152981154299,0,-1,-1,0,0,-1,0,3
1576152981154299,-2,1,-2,-1,-1,-2,-3,-2
1576152981156293,1,0,-1,-2,-1,4,0,-4
1576152981156293,-2,-2,2,-1,-2,-2,-2,0
1576152981162317,-1,-3,-3,-1,1,7,-1,2
1576152981162317,0,-3,-2,-3,0,-8,-1,1
1576152981163288,-1,-2,-1,0,0,-2,-2,-5
1576152981163288,-2,2,1,0,-5,-2,1,-2
1576152981184223,1,-4,-3,-1,-2,0,-1,1
1576152981184223,0,2,-1,0,2,3,-2,-1
1576152981186220,-2,2,0,-1,-1,-4,-1,-1
1576152981186220,-2,-3,0,-1,3,1,0,-2
1576152981214142,-5,-2,-3,-2,-6,-2,-1,0
1576152981214142,0,-1,1,0,0,-2,0,0
1576152981216146,-2,-2,-2,-1,0,-3,-3,-2
1576152981216146,-6,1,-2,-1,1,1,-5,-3
1576152981222127,3,-2,1,0,-1,1,1,1
1576152981222127,-1,1,-1,-5,-2,-1,-2,-1
1576152981224112,-1,1,0,1,-1,2,1,1
1576152981224112,0,-1,1,1,-3,-3,0,-2
1576152981244064,-1,1,0,0,0,-1,0,1
1576152981244064,1,-1,0,-1,-2,-1,2,0
1576152981267997,-1,-1,-1,0,-1,-1,-2,-1
1576152981267997,-1,2,-2,-2,-2,1,0,-3
1576152981268994,-1,-2,0,-1,0,-6,-1,0
1576152981268994,-2,-1,-1,1,4,0,0,-1
1576152981269989,-4,-2,0,-1,-4,1,1,-3
1576152981269989,0,-2,0,2,1,0,-2,0
1576152981281956,2,-1,-1,0,2,-3,0,-1
1576152981281956,-2,-3,-2,-1,0,0,-4,0
1576152981283950,-2,-2,-2,0,0,-2,-1,-2
1576152981283950,2,-1,-3,-2,-3,0,-5,0
1576152981328830,0,-1,-2,0,-1,2,0,1
1576152981328830,-1,-3,-4,-1,0,-2,1,-1
1576152981329831,1,0,2,-3,1,0,-1,1
1576152981329831,-2,-2,-1,0,-5,-3,0,-1
1576152981330825,1,-2,-3,-1,0,1,-3,1
1576152981330825,1,0,0,0,-1,1,-3,-2
1576152981342841,-3,3,1,0,-2,-1,-3,-4
1576152981342841,-3,-3,1,0,-1,3,0,-1
1576152981343792,1,0,-2,-3,-3,-6,3,1
1576152981343792,-1,1,-1,0,-3,-2,-2,1
1576152981344821,0,-2,-4,0,-1,1,0,-1
1576152981344821,-1,-1,-1,0,1,-4,-3,-3
1576152981371716,1,-1,-1,0,2,4,-1,0
1576152981371716,1,1,0,-3,-1,-1,2,1
1576152981373714,-1,-4,-1,-3,-2,-2,-3,-1
1576152981373714,-1,1,-1,-1,-2,-2,3,0
1576152981386677,-4,-3,-1,1,0,1,-1,0
1576152981386677,-1,0,-1,-1,-1,-2,1,1
1576152981388684,-2,-2,0,-2,0,-1,-3,-3
1576152981388684,-2,4,0,0,0,-5,0,-3
1576152981401741,2,2,-1,-1,-1,5,0,3
1576152981401741,1,-2,-1,-2,1,1,-2,2
1576152981408620,-2,0,0,-1,-2,-4,-1,-4
1576152981408620,0,-1,-1,-3,-4,1,0,-2
1576152981431659,0,-2,0,-1,1,1,3,-1
1576152981431659,-2,1,-2,0,-1,3,0,1
1576152981439538,0,-1,-3,1,1,-2,-1,-1
1576152981439538,-2,0,-1,-1,0,0,-3,-1
1576152981447563,0,-2,-2,-2,-1,-3,0,-2
1576152981447563,1,-1,-2,-2,1,-2,0,3
1576152981448518,-3,2,-1,-2,-4,1,-2,-4
1576152981448518,1,-3,1,-1,-1,-1,0,-1
1576152981461506,0,1,-1,-3,-1,0,-1,1
1576152981461506,-1,-3,-2,0,-1,-1,0,-3
1576152981492496,-1,0,0,-2,1,-1,0,-3
1576152981492496,-3,1,1,-1,-3,2,-1,-3
1576152981493397,0,-3,-1,1,3,0,0,1
1576152981493397,-5,3,-2,-1,-2,0,0,-2
1576152981507355,-2,-1,-1,0,0,-4,-5,-2
1576152981507355,-2,-1,1,-1,0,2,-2,-1
1576152981508350,0,0,-1,-1,0,1,-1,2
1576152981508350,2,-1,0,0,-2,3,-1,0
1576152981510350,0,0,0,0,0,-4,-3,-3
1576152981510350,-1,-2,-2,-2,-3,-2,-2,0
1576152981537272,0,1,-2,-1,-1,-6,0,0
1576152981537272,1,-4,-2,0,-1,3,1,-1
1576152981546307,2,-1,1,-2,-2,-3,1,-2
1576152981546307,1,-1,-1,0,1,-6,-3,-1
1576152981547249,-1,0,-3,-1,-1,-1,-1,-1
1576152981547249,-4,0,-2,-2,2,0,-3,-1
1576152981550274,-3,-1,-3,-1,-6,-2,2,-2
1576152981550274,-2,0,0,-1,-2,4,-3,-1
1576152981567226,1,0,-1,0,-2,-1,1,0
1576152981567226,0,-3,-1,1,0,-4,-1,-1
1576152981568190,-4,0,-2,-2,-1,2,-4,-4
1576152981568190,2,-2,0,-1,-2,-8,-1,0
1576152981597113,-1,1,-1,0,-2,4,4,-1
1576152981597113,-2,-1,-2,1,-3,-3,-6,1
1576152981599130,-2,-4,2,-2,0,2,0,-1
1576152981599130,-1,-1,0,-1,-1,-3,1,-2
1576152981604118,1,-4,-1,0,-2,2,0,1
1576152981604118,-3,-3,-2,-2,-2,0,0,-2
1576152981606096,0,2,-1,-1,1,-1,-2,2
1576152981606096,-2,-2,-1,0,-6,-1,-3,-3
1576152981627132,0,1,0,-2,2,6,2,2
1576152981627132,0,-1,-1,0,3,-3,-1,-2
1576152981629030,-2,-3,-1,1,0,2,-1,-3
1576152981629030,0,0,-2,-1,2,-3,0,-3
1576152981657057,0,-2,-2,-3,-2,-3,-4,-1
1576152981657057,-2,-2,-1,-1,-4,3,1,2
1576152981658949,-2,-1,2,1,0,-3,1,-2
1576152981658949,-3,-1,-1,0,-2,-2,-4,0
1576152981665032,0,-2,-2,0,-2,1,-1,-1
1576152981665032,1,0,-1,-2,0,-1,1,-1
1576152981665934,-3,-1,-2,-2,-2,-2,-2,1
1576152981665934,1,1,-1,1,-1,-1,1,-2
1576152981686919,-4,-3,-2,0,4,4,0,1
1576152981686919,1,-1,-1,0,-5,-2,1,-1
1576152981688874,0,2,1,0,1,-2,-2,-3
1576152981688874,-4,-4,1,-3,-1,5,0,-2
1576152981716795,1,-1,-1,1,0,-2,0,3
1576152981716795,-3,0,0,0,0,-1,1,-2
1576152981718788,-2,-2,0,0,-4,-1,-1,-4
1576152981718788,1,1,0,0,-2,-2,-2,0
1576152981724824,0,-1,-4,0,1,0,2,2
1576152981724824,0,-1,0,0,0,3,-3,-1
1576152981725771,0,-2,0,0,-1,-1,-1,-1
1576152981725771,-1,2,-1,-1,-2,-1,-2,-1
1576152981762709,1,-3,0,-2,-3,1,2,-1
1576152981762709,-2,-1,-1,-2,2,-4,-4,3
1576152981764667,-1,-3,-1,1,-2,0,-1,-1
1576152981764667,-2,-3,-1,1,1,0,0,1
1576152981764667,2,0,-1,-1,-7,-2,-2,-2
1576152981764667,-3,-3,-2,-2,1,1,3,-1
1576152981769660,2,-1,1,-2,-2,0,-3,-2
1576152981769660,2,-4,-2,-1,-1,-4,1,2
1576152981784711,2,-1,-2,-2,0,1,-2,1
1576152981784711,0,2,-3,-2,1,2,-1,-1
1576152981786609,-1,0,-2,0,1,-1,-1,0
1576152981786609,-4,-1,-1,-1,-2,-3,0,-5
1576152981822517,1,-1,-1,-1,-1,1,-2,1
1576152981822517,0,-2,-1,0,1,-3,0,-1
1576152981824512,-1,0,-3,-1,0,2,-3,-2
1576152981824512,2,0,0,-1,0,1,-4,-1
1576152981825505,0,-2,-1,2,-1,-1,0,2
1576152981825505,-2,-1,-2,-3,-3,-1,1,-1
1576152981829493,-2,0,-1,-4,-2,-6,-1,-4
1576152981829493,0,-2,1,1,1,-1,1,-1
1576152981844498,0,-1,-1,-1,1,-2,0,1
1576152981844498,1,1,-1,-2,0,2,-1,0
1576152981846453,-2,-1,1,0,-2,-8,-1,-2
1576152981846453,1,-1,1,1,-2,1,1,0
1576152981874474,-4,1,-2,-2,1,-2,0,-1
1576152981874474,-2,0,0,0,-1,0,-3,-2
1576152981876374,-2,-1,-1,0,0,3,0,-1
1576152981876374,-2,-2,-1,-4,-1,-7,1,-2
1576152981880369,4,0,-3,0,0,-1,-1,3
1576152981880369,0,-1,-1,-1,0,-1,1,-3
1576152981889337,-2,-2,-1,-1,-2,0,-1,-2
1576152981889337,-1,-1,-2,0,-1,3,-2,-1
1576152981904332,-1,-2,-1,-2,0,5,1,2
1576152981904332,-1,1,0,-1,0,-1,0,-2
1576152981906297,0,1,-1,1,-1,0,-2,-2
1576152981906297,2,0,0,-2,-2,-5,-3,-3
1576152981927268,1,1,-1,-2,0,2,1,1
1576152981927268,-1,-3,-1,-1,-3,1,-2,3
1576152981929227,-1,-3,0,0,0,-3,-1,-2
1576152981929227,-3,1,-1,-1,-1,0,-4,-3
1576152981941205,1,0,0,-1,2,-1,0,-2
1576152981941205,1,-1,-1,0,1,-2,2,-1
1576152981950173,-4,-1,2,-1,-3,0,0,-5
1576152981950173,-5,-3,-1,0,-3,-2,1,0
1576152981965131,0,-1,-2,-1,1,1,-1,-1
1576152981965131,2,2,-1,-1,0,-3,-3,-1
1576152981966131,-1,-1,1,0,-2,0,0,0
1576152981966131,-2,2,0,-1,-3,0,-2,-4
1576152981987114,1,-4,-4,0,-1,0,1,2
1576152981987114,-7,0,-1,-2,0,-2,-2,0
1576152981989066,-2,1,0,-3,-3,0,-1,-1
1576152981989066,-2,-1,-2,-1,2,2,0,-2
1576152982010059,-1,3,-2,1,-2,0,1,0
1576152982010059,-3,-1,-1,-1,-1,1,-4,-3
1576152982011011,-1,-1,1,-2,0,-2,-3,-2
1576152982011011,-2,0,-2,-2,-2,0,1,-3
1576152982048906,-2,-5,-1,-2,1,-4,-1,-1
1576152982048906,-4,-1,-1,0,0,1,3,0
1576152982049906,-2,-2,-2,0,-2,2,1,-3
1576152982049906,2,0,0,-1,-1,-3,-3,0
1576152982050900,-2,0,-3,0,-1,0,-2,-2
1576152982050900,-1,-2,-1,-1,-2,1,0,-2
1576152982054890,-3,-2,0,-2,1,-4,-3,-2
1576152982054890,-1,1,-2,-2,-5,0,1,0
1576152982060924,-1,-1,1,-2,2,-2,-1,3
1576152982060924,-3,-3,0,0,0,-5,-2,-1
1576152982069851,-1,0,-1,0,0,0,0,-5
1576152982069851,-1,-1,-1,0,-1,2,-2,-2
1576152982083864,0,-2,-1,1,1,-1,0,0
1576152982083864,-2,-1,-3,0,-2,3,0,-3
1576152982099772,1,0,0,-2,-1,-9,-2,-1
1576152982099772,-2,-2,0,-1,0,1,-1,1
1576152982106785,2,-1,-1,-1,-3,0,2,3
1576152982106785,-2,-1,-2,-1,0,0,0,-4
1576152982108745,-3,1,-1,0,-4,1,0,-1
1576152982108745,0,-3,1,-1,0,-4,-3,-1
1576152982120767,0,1,-1,-1,0,-1,1,1
1576152982120767,0,-2,-3,1,-1,0,2,1
1576152982129693,-1,0,0,-1,-4,-3,-3,-2
1576152982129693,0,0,0,-1,-1,0,0,0
1576152982143651,2,-1,-1,-2,-1,3,-1,-2
1576152982143651,-1,0,-1,-1,1,-11,-1,0
1576152982152632,-1,1,-2,1,-1,3,1,-4
1576152982152632,1,-2,-4,2,1,-2,-2,-2
1576152982166642,-1,-2,-1,-2,1,3,2,3
1576152982166642,-2,1,-1,-1,0,1,-1,-2
1576152982168588,-3,-2,-1,-2,-1,-2,-2,0
1576152982168588,-1,1,-1,-1,-2,-3,0,0
1576152982213467,1,-3,-2,0,-2,1,-4,-2
1576152982213467,1,1,2,0,0,1,0,3
1576152982215476,0,1,0,-1,-2,2,-2,0
1576152982215476,1,-2,0,3,2,2,0,-1
1576152982215476,-2,0,-2,0,4,0,-3,2
1576152982215476,-3,0,-2,-1,-6,0,-1,1
1576152982219449,0,0,1,-1,1,-4,-2,-3
1576152982219449,2,0,0,-1,-2,1,1,0
1576152982227495,-2,1,-3,-1,0,2,2,-2
1576152982227495,1,-2,2,0,1,0,-1,-1
1576152982228432,3,1,0,0,-3,-7,0,1
1576152982228432,0,-4,-1,-1,-4,2,-1,1
1576152982257448,0,1,-2,-1,2,2,-1,-1
1576152982257448,1,-3,0,-4,0,1,-5,-3
1576152982258347,-3,-1,-4,-1,-4,0,1,-4
1576152982258347,-3,0,0,2,-1,-1,3,1
1576152982264377,4,2,-1,-1,-3,-2,3,1
1576152982264377,-1,-2,-1,0,1,0,-2,1
1576152982266325,-3,-3,1,1,-1,-3,-3,-2
1576152982266325,0,-2,0,0,0,1,4,-1
1576152982287019,1,-2,-2,2,1,1,0,-1
1576152982287019,-2,2,-1,-1,-1,-1,-1,-2
1576152982289012,2,0,0,-1,-2,-3,-2,-1
1576152982289012,1,0,0,-3,0,-2,-3,-1
1576152982317034,1,-3,0,0,-2,-1,0,0
1576152982317034,-3,-1,-3,0,1,-3,2,-2
1576152982318926,-4,-1,0,1,-1,0,-3,-3
1576152982318926,-2,2,0,-2,-2,-1,-2,1
1576152982324018,-2,0,-1,-2,0,0,1,1
1576152982324018,-2,-1,0,-2,-2,-1,-3,-1
1576152982330993,-2,0,-1,1,-3,-1,0,-3
1576152982330993,2,-2,-1,0,-2,0,0,-2
1576152982346903,-1,-3,-3,-2,0,0,3,0
1576152982346903,-2,0,-1,1,0,-3,-3,4
1576152982348846,-5,0,-1,-2,0,1,-3,-2
1576152982348846,3,1,-1,-2,1,-3,-3,-1
1576152982376871,-3,2,-1,-1,2,-2,-3,0
1576152982376871,-4,0,-4,-1,-6,0,0,-3
1576152982378768,-3,-4,1,0,2,-1,-1,-1
1576152982378768,-4,-2,2,0,1,-2,-1,1
1576152982383857,1,-2,-1,-3,1,1,-1,1
1576152982383857,-3,-3,-1,0,1,-3,1,-2
1576152982390838,-2,0,-1,0,-3,-3,-2,-3
1576152982390838,-1,-3,0,-2,-3,-1,2,0
1576152982407689,2,-3,-1,0,-4,0,-3,-3
1576152982407689,-2,2,1,0,0,6,-1,-1
1576152982408690,-3,-1,-3,-2,-2,-9,-3,-1
1576152982408690,-2,-2,-1,-1,1,1,-3,-2
1576152982429734,2,-1,-2,0,0,0,1,2
1576152982429734,-1,1,0,1,1,1,-3,-2
1576152982431625,-2,-1,-1,-3,0,-1,0,-5
1576152982431625,2,-1,-1,1,0,3,1,1
1576152982443698,0,-2,-2,-2,-1,-1,3,1
1576152982443698,0,-2,0,-1,-2,-6,1,0
1576152982450577,-2,0,1,-1,-2,1,-2,1
1576152982450577,0,1,-2,0,-3,-5,-1,-3
1576152982482552,-2,-4,-4,-2,1,1,0,0
1576152982482552,1,0,-1,-2,-1,0,0,-2
1576152982483491,1,1,2,-1,-2,-4,-2,-2
1576152982483491,-3,1,-3,-1,-3,-1,-1,0
1576152982489574,3,-1,0,0,-1,0,-1,1
1576152982489574,-2,-2,-2,-2,-1,-2,-1,-3
1576152982491464,1,-3,-2,1,-1,-1,2,-2
1576152982491464,-2,0,0,-2,-4,-2,-5,-3
1576152982504430,3,-3,-3,-1,3,2,1,4
1576152982504430,2,0,-2,-2,0,-5,-1,-1
1576152982510453,0,-3,1,1,-1,1,-3,-2
1576152982510453,2,-1,0,-3,1,-1,2,2
1576152982527419,1,1,0,0,-2,-2,-1,-2
1576152982527419,-3,-2,0,0,-1,0,-3,-1
1576152982528365,1,-1,-1,-3,-1,0,-2,-1
1576152982528365,0,-1,-3,0,1,-4,1,1
1576152982549311,1,-1,-2,0,-2,-3,-1,0
1576152982549311,-2,0,1,1,2,2,2,0
1576152982551304,1,0,0,-4,-2,2,-2,-4
1576152982551304,-1,-1,0,0,0,0,3,0
1576152982564271,-2,-2,-2,1,-1,-1,-1,1
1576152982564271,-2,-2,-2,0,-1,-2,-1,-4
1576152982570255,-3,0,0,-1,-2,-1,0,-2
1576152982570255,3,-1,0,2,-2,3,-1,3
1576152982595067,-6,-1,-1,-1,4,-2,-3,-1
1576152982595067,-1,-1,0,-3,-8,-3,-2,-3
1576152982597051,1,-2,1,-1,1,6,1,-1
1576152982597051,0,-1,-1,-1,-1,-4,-3,-1
1576152982610016,-2,-1,1,0,-2,2,-1,1
1576152982610016,1,-1,-1,0,1,-2,-2,1
1576152982610993,-3,0,-1,0,0,-4,0,-2
1576152982610993,2,-1,-1,0,0,0,2,-1
1576152982624010,3,1,-1,-1,-1,-1,3,0
1576152982624010,-3,-2,0,0,-1,0,-2,-1
1576152982648887,-3,-1,-2,0,-2,-7,-1,-2
1576152982648887,-1,-3,-3,-1,0,2,-3,-1
1576152982648887,1,-1,-3,0,-3,-2,-1,0
1576152982648887,-1,1,-2,-2,1,0,0,-4
1576152982650883,0,0,0,-1,-2,-2,0,-2
1576152982650883,-3,-1,-1,-4,-3,-2,0,1
1576152982669862,-1,-3,-1,-2,-1,-1,0,0
1576152982669862,-3,0,-2,0,2,1,-3,-5
1576152982670830,0,-1,-1,-1,-3,-3,-5,-2
1576152982670830,4,-2,-2,0,0,2,2,1
1576152982682848,-6,-1,-3,-3,-3,-2,0,2
1576152982682848,-2,3,-1,1,1,-2,-5,-4
1576152982708775,-3,-1,1,-1,2,5,3,-2
1576152982708775,0,-2,-2,0,1,3,1,3
1576152982709728,-2,0,0,0,-3,-3,-1,-2
1576152982709728,0,-2,0,0,-4,3,-3,-3
1576152982713715,-2,-2,0,2,-3,-3,-1,-1
1576152982713715,2,-1,0,0,1,3,-2,3
1576152982729725,1,2,-2,-1,3,2,1,-2
1576152982729725,-2,-2,-1,-2,-4,-3,0,-1
1576152982731671,0,-1,-2,-1,2,0,0,-3
1576152982731671,2,-1,-1,-1,1,0,-2,-1
1576152982751667,-3,2,-1,0,-2,-3,-1,-2
1576152982751667,-5,0,1,1,0,-5,-2,-4
1576152982753610,3,-1,-2,2,-2,0,-3,1
1576152982753610,-2,0,-3,-2,0,-1,3,2
1576152982766622,1,1,-2,1,-1,-1,-2,-1
1576152982766622,-5,0,1,-3,-1,-1,0,-5
1576152982768568,0,-4,-1,1,0,0,0,1
1576152982768568,1,-2,1,-2,1,-1,-1,0
1576152982789512,-1,-3,-2,-1,-1,2,-1,0
1576152982789512,-1,0,0,-2,-1,-2,-1,-2
1576152982791507,1,-1,-3,-3,-3,-3,-3,2
1576152982791507,0,-4,-2,0,-4,-1,0,1
1576152982819487,0,0,1,-1,3,-2,-1,0
1576152982819487,-2,-3,-1,0,1,-4,0,-2
1576152982821426,-3,2,-1,-1,0,-2,0,-3
1576152982821426,-3,-2,-3,-3,1,-1,1,-1
1576152982827457,-1,0,-1,0,-1,1,-2,-1
1576152982827457,-2,-1,0,1,-4,-3,-1,-2
1576152982828407,0,-2,-2,-2,-3,-1,-3,-2
1576152982828407,3,-2,-2,-1,0,-1,-3,1
1576152982849404,-3,0,-2,-2,-1,-2,-1,-1
1576152982849404,1,0,0,-1,1,-1,0,-1
1576152982851346,0,1,-1,-1,-2,-2,-1,0
1576152982851346,-2,-2,0,-1,-2,0,-2,0
1576152982872342,-3,0,-2,0,4,-3,0,0
1576152982872342,2,-2,-3,-1,-5,-1,-5,-1
1576152982873288,1,-1,0,-1,1,2,-2,-1
1576152982873288,0,-1,-1,0,-1,-4,2,2
1576152982887281,-1,-2,1,-1,0,-1,2,1
1576152982887281,-2,1,-1,-2,-1,-2,-2,-1
1576152982888270,3,-1,-1,1,-2,-5,1,0
1576152982888270,2,0,-2,-1,-3,3,-1,-2
1576152982908195,0,0,-1,-1,1,0,-2,-2
1576152982908195,-2,-3,-1,0,0,0,1,-1
1576152982924154,0,0,-1,-1,-2,1,3,1
1576152982924154,-4,0,-2,-1,2,1,0,1
1576152982924154,-5,1,0,-2,-3,-2,0,-2
1576152982924154,-2,-2,1,0,-1,0,-4,-1
1576152982932135,3,2,1,-2,-1,1,-2,-3
1576152982932135,-1,-1,0,1,6,-2,0,-2
1576152982947196,1,-4,-3,-2,-6,4,1,-1
1576152982947196,-1,-2,0,-1,1,-2,0,0
1576152982949085,0,-1,0,1,0,-2,0,-4
1576152982949085,1,-2,-1,-2,-2,0,-1,1
1576152982985094,0,-2,-3,1,1,1,-1,0
1576152982985094,-1,2,2,-2,0,-3,0,-2
1576152982986987,-5,-1,-3,-2,-3,4,-3,-1
1576152982986987,0,-2,-1,-1,-1,-4,0,4
1576152982987984,-3,1,-4,-2,1,-2,-6,-2
1576152982987984,-1,-3,-2,0,-2,-2,-1,-1
1576152982991971,-3,-3,-1,1,-1,-2,1,-1
1576152982991971,-1,2,0,-1,-3,0,-1,0
1576152983007036,-1,-1,-2,-1,0,0,3,1
1576152983007036,0,-2,-3,-2,0,-2,-3,-2
1576152983008931,-1,-2,0,-2,1,-3,-5,0
1576152983008931,-1,-3,-1,-3,-3,3,-2,1
1576152983036853,-1,0,1,1,1,-4,-1,2
1576152983036853,-3,4,-1,-1,0,0,0,-6
1576152983045826,2,-2,2,-1,-1,-2,3,1
1576152983045826,1,1,-1,0,0,0,-2,-4
1576152983045826,-4,-2,-1,-1,0,8,2,1
1576152983045826,-2,-3,-2,-2,-3,-4,-2,-2
1576152983051900,0,0,-2,0,-1,-1,-3,-1
1576152983051900,3,-3,-1,0,0,-2,0,0
1576152983066876,-2,-3,0,-1,-2,-1,0,-2
1576152983066876,-3,2,1,0,0,0,-2,-4
1576152983068767,-2,0,-3,-1,-3,-3,1,-2
1576152983068767,0,-1,-2,-1,0,1,2,1
1576152983089812,-3,-1,-1,-2,3,0,1,-1
1576152983089812,-2,-2,1,0,-3,2,-4,0
1576152983091704,-3,-3,3,-3,-1,-2,-2,-4
1576152983091704,-1,-4,-4,-1,-1,1,-1,-1
1576152983112648,1,1,0,-1,-1,-1,-2,0
1576152983112648,-5,1,2,-2,-1,-3,-2,-2
1576152983113650,0,-1,0,-1,1,0,0,-3
1576152983113650,0,0,-3,0,-1,-1,1,2
1576152983127609,4,1,0,1,0,-2,-1,0
1576152983127609,-5,-2,-1,1,2,0,-3,-2
1576152983128613,-1,-1,0,2,0,-1,-1,1
1576152983128613,-1,-1,-1,-3,1,2,4,0
1576152983149652,1,1,-1,0,-2,-6,-3,0
1576152983149652,-2,-2,-1,1,3,0,1,-2
1576152983151545,2,-1,-1,-2,-8,0,1,0
1576152983151545,-4,0,-2,1,2,1,-2,-1
1576152983172534,-4,-2,-3,-1,0,3,0,-1
1576152983172534,1,-1,0,0,1,-4,-3,-3
1576152983173493,-2,-3,0,1,-1,1,-4,-1
1576152983173493,1,-1,-1,-1,1,-3,-1,0
1576152983186495,0,-6,-2,-2,-2,2,-2,-1
1576152983186495,-3,-1,-1,1,-3,0,2,-2
1576152983211434,0,1,-2,0,1,-1,0,2
1576152983211434,0,1,1,-1,-2,1,0,0
1576152983212386,-2,0,-1,-2,2,-5,-3,0
1576152983212386,0,-3,-1,-2,1,0,3,-1
1576152983215416,0,-1,0,-1,-2,-4,-2,0
1576152983215416,-1,0,0,-2,-1,-3,-1,-1
1576152983232433,0,-1,-1,0,0,7,3,0
1576152983232433,-1,-1,-3,-2,-5,-9,-8,-3
1576152983233326,-1,0,-3,0,1,-1,3,-1
1576152983233326,2,-1,0,1,-3,3,-2,1
1576152983262348,1,-1,-2,0,1,-6,0,1
1576152983262348,-2,0,0,-2,1,1,-1,-2
1576152983263250,-2,-1,-1,0,0,-3,-2,-2
1576152983263250,4,-5,0,0,-2,-2,-1,2
1576152983269232,-2,-2,-2,0,0,-3,0,0
1576152983269232,1,1,0,0,-1,1,-3,0
1576152983271227,-2,-3,0,-2,-1,1,0,-1
1576152983271227,0,0,-3,-1,-3,-1,0,-1
1576152983292268,-5,-1,-3,-1,-2,-3,-2,-2
1576152983292268,1,1,0,-1,-1,0,0,-1
1576152983293166,-3,-3,0,-2,-1,-1,-1,-1
1576152983293166,1,-2,0,-2,6,-2,-2,2
1576152983315207,3,1,0,0,-6,-1,1,0
1576152983315207,-1,-1,-2,-1,1,-3,-1,-3
1576152983317102,1,1,1,1,-2,-1,-1,0
1576152983317102,-1,-2,-3,0,2,4,0,-2
1576152983330112,-1,-4,-2,-2,0,-8,-2,1
1576152983330112,-2,3,0,0,-3,3,-3,-3
1576152983331068,-2,-2,-2,1,-2,-4,-1,-1
1576152983331068,1,-1,-1,-1,-2,3,0,1
1576152983352113,-2,-1,-1,0,3,5,3,-2
1576152983352113,-2,-3,0,-1,-1,-2,-4,-1
1576152983354007,-1,-1,0,0,0,0,-2,-2
1576152983354007,-2,-1,1,-2,-1,-4,-3,1
1576152983366004,1,1,-4,-2,-1,0,1,-1
1576152983366004,-6,-1,0,1,-1,-3,-1,-2
1576152983374949,0,2,-1,0,-2,1,0,-2
1576152983374949,1,-1,-1,1,1,0,0,2
1576152983390020,-1,-1,-1,-2,-1,-1,-1,-1
1576152983390020,1,-2,-1,0,6,-4,-1,-1
1576152983390905,-2,2,0,-3,-5,3,-1,0
1576152983390905,-3,-2,-1,0,-3,-5,-1,-3
1576152983418931,-3,2,0,2,-2,-2,-2,0
1576152983418931,-3,-2,-1,0,-1,3,3,-2
1576152983428810,0,0,-1,-1,1,-7,-2,-3
1576152983428810,0,-2,-1,0,0,1,-2,-3
1576152983429801,-3,-1,-2,-2,-1,0,-2,-1
1576152983429801,-3,-1,-2,-3,-3,1,0,-2
1576152983433793,2,0,0,-1,0,-2,0,-2
1576152983433793,-1,-2,-1,-3,1,-2,1,0
1576152983449852,1,0,1,0,1,-4,-2,0
1576152983449852,3,0,1,0,-4,4,-1,-1
1576152983450747,-5,-2,1,1,-2,3,-2,-3
1576152983450747,-1,-2,-3,-2,0,-5,0,1
1576152983479670,-1,0,-2,-1,6,1,-1,-2
1576152983479670,-1,-1,-1,-3,-7,-1,-1,2
1576152983480664,-1,1,-2,0,0,0,0,-3
1576152983480664,0,2,0,0,-2,0,-2,0
1576152983486650,-2,-1,1,0,-1,-1,2,-1
1576152983486650,0,-1,0,1,0,-3,-3,-7
1576152983493678,-2,-4,-2,-1,-3,-2,-2,-3
1576152983493678,0,-1,1,0,-2,-1,2,0
1576152983509590,-2,-1,-2,-1,0,0,-4,-2
1576152983509590,-1,1,0,0,1,-5,-2,0
1576152983511617,-4,-3,-1,-1,-1,0,0,-1
1576152983511617,2,-1,-2,0,-1,-2,1,2
1576152983540510,1,0,0,-3,-3,-4,-2,1
1576152983540510,-1,-1,-2,0,-1,0,-2,-2
1576152983541501,0,1,-2,-1,1,2,-1,-3
1576152983541501,-2,1,-2,1,2,1,1,2
1576152983546593,-1,-1,-1,-1,-8,0,1,-1
1576152983546593,-3,0,-1,-2,0,-2,0,-2
1576152983553472,2,-2,1,-1,-1,-2,-2,-1
1576152983553472,-2,0,-2,0,1,-1,-2,2
1576152983569452,-3,-3,-3,-1,1,5,1,-1
1576152983569452,-2,1,0,-1,1,-7,-3,-2
1576152983571420,-2,-3,0,2,-1,-1,-2,0
1576152983571420,3,1,-1,-1,-1,1,-2,-3
1576152983592468,-1,0,-1,-2,-2,-3,-1,1
1576152983592468,-3,0,-1,-2,-2,0,1,0
1576152983593362,-1,1,1,-1,3,-2,-3,-4
1576152983593362,-1,-3,-3,-2,-1,6,0,0
1576152983605436,-5,-2,-5,-1,-2,-8,-1,2
1576152983605436,-1,2,-1,0,-1,1,-2,-1
1576152983614419,-2,2,-1,-2,-2,-4,1,0
1576152983614419,2,-1,0,1,1,4,-1,2
1576152983629372,-3,-2,-2,0,-6,1,-1,-1
1576152983629372,2,1,1,1,0,-3,0,-3
1576152983631265,0,-1,-1,-1,1,0,2,-2
1576152983631265,0,-1,-1,-2,-1,-1,-2,0
1576152983652246,0,0,1,3,3,2,2,1
1576152983652246,0,-4,-1,-1,0,1,-1,-3
1576152983654199,-4,-2,0,0,-2,-2,2,0
1576152983654199,-3,-2,-1,1,-2,-1,-1,-3
1576152983666216,0,-1,-1,-1,0,1,-2,-1
1576152983666216,-2,-4,-2,-1,-2,-1,-1,-1
1576152983675147,-2,-1,-1,-1,-2,0,-3,-1
1576152983675147,3,-1,-1,1,-2,-2,1,2
1576152983705111,-2,-3,-3,-2,-2,4,-1,-1
1576152983705111,1,-1,1,-1,-2,-8,0,0
1576152983706066,-3,-1,0,-1,-1,1,-1,-2
1576152983706066,0,1,-3,-1,-2,-1,2,0
1576152983712145,0,0,-1,-1,1,1,-2,0
1576152983712145,1,-2,-2,-1,-2,-1,-2,-1
1576152983714042,2,0,0,-1,-1,1,-1,2
1576152983714042,1,-1,-1,0,0,-4,0,-1
1576152983726125,-1,2,0,0,2,5,0,-1
1576152983726125,-3,0,-1,-1,-1,-1,-2,-1
1576152983734985,0,-1,0,-3,-1,-2,-1,-3
1576152983734985,1,0,-1,0,2,0,0,-2
1576152983756956,0,-1,-3,0,3,-3,2,1
1576152983756956,-3,0,0,-3,-3,2,-1,-2
1576152983762961,1,-2,0,0,-1,0,-2,1
1576152983762961,-4,-3,-1,-1,-3,1,0,4
1576152983771937,0,0,0,-2,0,-6,-2,0
1576152983771937,-1,0,0,-3,-2,7,-1,-3
1576152983773879,1,-2,-1,-2,-1,-10,0,4
1576152983773879,-1,-1,-3,0,-2,-1,-2,-2
1576152983785909,-5,2,0,0,-1,-2,0,3
1576152983785909,-2,-2,-2,-1,1,-3,1,-3
1576152983794825,0,-2,-1,-1,-1,3,2,-4
1576152983794825,0,-2,0,-2,-2,-2,0,2
1576152983816815,1,-2,-2,-1,0,1,-7,-2
1576152983816815,-3,-1,-1,1,-1,-3,1,0
1576152983818759,2,-1,-3,0,0,6,-3,1
1576152983818759,0,2,-1,0,0,0,0,0
1576152983839757,-3,-2,-2,-2,-2,-4,-3,-3
1576152983839757,-2,-2,-1,-2,1,0,0,-1
1576152983840704,1,-1,1,-1,-6,-2,-1,0
1576152983840704,-3,-1,-1,-4,0,-2,0,-4
1576152983845739,-1,0,0,-1,-1,-2,-2,-3
1576152983845739,0,0,-1,0,-1,-2,-1,-3
1576152983870671,-3,0,-2,0,2,0,0,-1
1576152983870671,1,-1,0,-1,1,6,1,3
1576152983870671,2,-2,-1,0,-4,-7,-1,-3
1576152983870671,-4,0,-1,-1,-2,-2,-3,-3
1576152983872620,-2,1,0,2,-1,1,-1,-3
1576152983872620,0,-2,-2,2,-1,-1,-1,0
1576152983892564,-2,-2,-1,2,1,-3,2,0
1576152983892564,-2,-3,1,3,1,6,-1,0
1576152983893564,2,0,-2,-1,-4,-2,-4,-2
1576152983893564,-2,-3,-4,-3,-2,-3,0,-2
1576152983905577,-2,-1,-1,-2,0,-1,-1,-2
1576152983905577,-2,2,1,-2,-2,-2,-3,-2
1576152983922484,-2,-4,-1,0,3,1,1,1
1576152983922484,1,0,-2,0,-3,-1,0,0
1576152983930470,-2,-1,0,-2,0,1,1,-2
1576152983930470,0,1,-2,-2,-2,-1,1,1
1576152983935483,-1,0,1,1,0,-1,-1,-2
1576152983935483,-3,0,-1,0,1,-2,-1,1
1576152983952468,0,-3,0,-3,-2,-2,-2,1
1576152983952468,-5,-2,1,1,1,-4,-1,0
1576152983953400,-2,-1,-1,-2,-3,-2,-4,1
1576152983953400,0,1,-1,2,2,-2,-1,3
1576152983982368,0,3,0,0,-2,6,-1,-1
1576152983982368,3,1,0,0,2,-1,0,-1
1576152983983321,-1,0,-3,0,-3,-2,1,-1
1576152983983321,2,0,-1,-1,0,-7,-2,1
1576152983989123,-4,0,-2,-1,3,5,0,3
1576152983989123,2,-1,-2,-3,-7,-4,-1,0
1576152983991123,0,2,1,1,0,-2,0,-1
1576152983991123,1,0,-1,-1,0,-1,-2,1
1576152984012096,1,0,-1,-1,2,1,-2,-2
1576152984012096,0,0,-2,-2,-1,-1,-2,-4
1576152984014085,-4,-1,0,-2,0,-3,0,-1
1576152984014085,3,0,0,-2,-1,5,1,0
1576152984035034,-2,-1,-2,0,0,-2,0,-1
1576152984035034,-4,1,0,0,0,0,1,-2
1576152984036001,1,-2,1,0,0,1,-3,0
1576152984036001,2,2,-1,-1,-2,-1,1,-2
1576152984049994,1,0,-1,-1,0,1,-1,0
1576152984049994,-1,-1,-2,0,-1,-5,0,-1
1576152984050959,1,-1,0,-1,-2,2,0,0
1576152984050959,-1,-1,0,0,5,-1,3,-1
1576152984071953,1,0,-1,-2,-7,-4,-2,-1
1576152984071953,-3,0,-1,0,1,6,-1,-5
1576152984073898,1,-1,-1,-1,-1,-5,-1,0
1576152984073898,2,0,0,0,-1,0,2,0
1576152984094886,-3,1,-2,-1,2,-6,-1,0
1576152984094886,-1,-2,0,0,-2,-2,-4,-2
1576152984095838,-1,0,-1,-2,-2,-2,-2,0
1576152984095838,2,-2,-5,-4,0,2,-2,1
1576152984109849,-2,-1,0,0,1,0,1,0
1576152984109849,0,-1,0,1,-1,-3,0,-3
1576152984110800,2,-1,-2,0,2,-1,-2,-2
1576152984110800,2,0,1,2,-1,4,3,0
1576152984146754,-2,-2,0,0,1,5,-2,-2
1576152984146754,-3,0,-1,-2,-4,-10,-1,3
1576152984148702,0,0,0,-1,0,5,0,1
1576152984148702,-3,-2,-2,-1,-5,-2,-2,-1
1576152984154734,0,-2,-2,0,-2,-2,2,-4
1576152984154734,0,-1,-1,-1,0,-1,0,0
1576152984155681,-4,-2,-3,-2,1,4,-1,-2
1576152984155681,1,-3,-4,-1,0,-5,-3,2
1576152984169673,-1,-1,-1,-1,0,-1,0,-1
1576152984169673,1,-2,0,-1,-1,0,-2,-2
1576152984171636,1,1,0,-1,-4,-3,1,-3
1576152984171636,-4,-1,0,0,0,2,-1,0
1576152984199617,-2,-3,-3,0,-2,-2,-1,-1
1576152984199617,-1,-1,3,-1,0,2,-4,-4
1576152984201558,1,-1,0,-2,-1,-2,-1,-1
1576152984201558,-2,0,0,2,0,-1,-2,-1
1576152984214573,-2,0,-1,0,5,1,-1,-3
1576152984214573,0,3,1,-2,-7,1,-2,1
1576152984216518,-3,-1,0,0,0,0,2,-3
1576152984216518,-1,-3,-3,-2,-2,-6,-1,-1
1576152984228483,-2,-1,-3,-4,-1,-3,-2,-2
1576152984228483,-3,-1,-1,0,2,0,-1,-3
1576152984235519,-4,0,-1,0,0,0,-2,-1
1576152984235519,2,0,-1,0,2,2,2,4
1576152984260462,-1,-1,0,0,-1,-2,-2,-3
1576152984260462,-1,1,-1,-2,-1,-1,-2,-2
1576152984261398,0,-1,-2,2,-3,-4,0,2
1576152984261398,0,0,-2,-3,2,2,0,0
1576152984274414,-3,0,-2,1,3,-4,-1,-1
1576152984274414,-1,-2,-1,0,-5,-2,-3,0
1576152984276356,1,-1,0,0,2,-3,-1,-2
1576152984276356,1,-1,-1,-1,-2,0,-3,-1
1576152984289354,-1,0,1,-2,-1,0,2,3
1576152984289354,-1,0,-3,0,3,-4,-2,-3
1576152984303286,-2,2,-2,0,-4,2,0,-2
1576152984303286,-2,-2,0,-2,-2,3,-1,-1
1576152984312306,-2,-1,-1,-1,-4,-6,-3,-2
1576152984312306,-1,-4,0,-1,1,0,-1,-2
1576152984313259,1,-2,-1,-3,-2,-2,-1,2
1576152984313259,0,-1,-3,-1,1,1,4,1
1576152984334233,-3,1,0,-3,-3,5,-2,-2
1576152984334233,-1,-3,-1,-1,-1,-4,0,-2
1576152984336199,-1,0,-2,0,1,-2,-1,0
1576152984336199,1,1,-5,-1,-4,0,-1,1
1576152984349196,-2,-2,-2,-2,1,2,2,1
1576152984349196,-1,1,0,0,0,-1,0,-3
1576152984363170,1,0,0,0,-1,-4,-2,0
1576152984363170,0,0,-1,0,2,3,0,0
1576152984372150,0,0,-2,0,-2,-4,-3,-1
1576152984372150,-1,0,-1,0,-4,-3,1,-1
1576152984374116,1,-2,0,-1,-1,-5,-2,2
1576152984374116,2,-3,-3,-1,-2,0,0,1
1576152984395073,0,-3,-1,-2,-1,0,-1,0
1576152984395073,-4,-1,-1,0,0,-7,-2,0
1576152984397035,1,-2,-2,-1,-3,2,-2,1
1576152984397035,-1,-2,-1,-2,-1,-2,0,-3
1576152984424982,-2,-2,0,2,-1,2,2,2
1576152984424982,-3,-2,2,1,4,2,-1,-1
1576152984425958,2,0,-2,0,-6,-1,-2,-1
1576152984425958,1,2,-1,-1,-2,1,-2,2
1576152984431991,-1,1,-1,-1,-2,-2,3,-1
1576152984431991,-1,-1,-2,-1,-1,0,-6,-1
1576152984433937,-3,1,0,-1,0,-2,1,-1
1576152984433937,-3,1,0,2,-1,-1,2,0
1576152984454929,0,-1,0,0,-1,-1,-2,0
1576152984454929,0,1,0,-1,-4,-2,1,-2
1576152984455876,1,-1,-1,-3,0,2,1,-2
1576152984455876,-1,-2,0,-1,0,-4,1,1
1576152984476868,-1,1,-2,1,-1,0,0,-1
1576152984476868,-2,-2,-1,-1,0,-1,-1,-3
1576152984478815,1,1,-1,0,-1,-4,-2,-2
1576152984478815,-2,-3,-2,-2,-1,3,-1,1
1576152984491828,-3,1,-1,0,5,-2,-2,0
1576152984491828,2,-3,0,-1,-5,5,2,-1
1576152984493776,0,-1,0,-2,0,-2,-1,0
1576152984493776,0,-1,-2,-2,1,-4,0,-1
1576152984514772,-3,0,1,-1,-2,-4,-2,-2
1576152984514772,-1,1,-2,-3,-2,2,1,-1
1576152984515718,-1,-3,0,-2,1,1,1,-2
1576152984515718,0,-2,-3,0,1,1,-5,0
1576152984537709,1,-1,-2,1,-2,1,-1,-2
1576152984537709,-2,0,2,-1,-2,-5,-2,-2
1576152984539652,0,-2,-1,0,-2,-6,0,0
1576152984539652,3,2,0,0,2,2,1,-1
1576152984559649,-4,-2,0,-2,-1,-3,-2,-1
1576152984559649,-3,-1,0,2,-1,-1,-1,-2
1576152984561616,1,-1,-2,0,-1,1,0,-1
1576152984561616,-4,-4,0,-2,-1,-3,0,2
1576152984590571,1,1,-3,-1,2,2,-1,-5
1576152984590571,-2,-3,-1,-1,-7,-1,-1,1
1576152984591513,-1,-1,0,-2,0,2,-1,-5
1576152984591513,0,-1,-2,0,0,2,2,-1
1576152984592515,-2,3,0,-2,-1,-6,-2,-1
1576152984592515,0,-1,-1,-4,1,-2,-4,-1
1576152984597500,2,1,0,0,-2,4,0,-1
1576152984597500,-1,-1,-2,-1,-1,0,0,2
1576152984611508,-2,0,-1,-2,0,-3,-4,-3
1576152984611508,-3,3,-2,-1,0,1,0,-1
1576152984618444,2,-1,0,2,0,-1,0,-1
1576152984618444,0,1,-2,1,2,0,3,1
1576152984642484,-6,-4,2,-2,-6,2,0,0
1576152984642484,0,3,0,0,2,-3,-1,-3
1576152984643376,1,1,-3,-2,0,0,2,-1
1576152984643376,3,2,-1,-2,0,-3,-3,-1
1576152984648364,-1,-2,-2,-1,0,1,-2,-3
1576152984648364,-4,-2,1,1,-1,0,0,-3
1576152984657343,-3,0,-1,0,-4,3,0,1
1576152984657343,3,-3,1,1,-3,-3,1,2
1576152984672402,2,-1,-3,0,-2,-3,-1,0
1576152984672402,-2,0,1,-1,0,1,-3,-3
1576152984673298,-2,0,-1,-1,1,-1,0,0
1576152984673298,-1,-4,0,-1,-2,-1,-2,0
1576152984702263,-2,0,1,-1,-3,0,0,-1
1576152984702263,-2,0,0,0,6,0,-1,-4
1576152984703217,-4,-3,-2,0,-5,0,2,-1
1576152984703217,0,0,-3,-3,0,-1,0,-1
1576152984708202,-1,0,-1,0,1,-4,1,-3
1576152984708202,1,-2,-1,1,0,-3,-1,-1
1576152984717181,-1,-1,0,-3,0,0,0,0
1576152984717181,-1,0,0,1,1,1,0,1
1576152984732243,-2,-1,-1,-1,0,0,-5,-2
1576152984732243,-3,-1,-2,-3,-2,-4,-1,-2
1576152984734135,3,0,0,0,-2,-1,-2,3
1576152984734135,0,-2,-1,0,0,-2,0,0
1576152984755077,-1,1,-2,0,-2,-1,-1,0
1576152984755077,-4,-1,0,0,-1,1,0,2
1576152984756078,4,0,0,-1,0,3,-1,0
1576152984756078,-4,0,1,-1,0,-8,-1,-2
1576152984768041,-1,0,0,-1,-3,-4,-1,0
1576152984768041,-3,-1,1,-1,-4,-1,-2,-3
1576152984777021,-4,-1,-3,-2,-1,-4,0,0
1576152984777021,-1,-4,-4,-3,2,4,2,0
1576152984792083,-1,3,0,-2,0,-1,0,0
1576152984792083,-2,-1,-2,0,-3,-1,1,-2
1576152984793973,0,0,-2,-1,1,1,-1,3
1576152984793973,2,-1,-1,1,-2,1,-2,-1
1576152984815036,-3,-1,-1,-1,-1,-1,-2,-3
1576152984815036,1,-2,-2,0,-2,-3,-2,-3
1576152984815915,-1,-3,-2,-2,-1,0,-3,1
1576152984815915,2,-2,-3,-3,1,-2,0,-1
1576152984836962,0,-3,0,-1,0,3,-1,-1
1576152984836962,0,0,0,-2,-2,-4,-2,-1
1576152984838853,1,-2,-1,0,0,-3,-3,-3
1576152984838853,-2,0,0,1,-1,-1,1,0
1576152984866881,0,-2,-1,0,5,0,-4,0
1576152984866881,1,-1,-4,-1,-7,0,-2,1
1576152984868780,-2,-3,-1,-1,1,5,1,2
1576152984868780,-3,0,-3,-2,-3,-7,-1,2
1576152984874855,-1,-1,-3,0,-2,-1,0,-4
1576152984874855,-2,-1,1,1,0,0,-2,-2
1576152984875755,-1,-1,-2,-2,-1,-2,-4,2
1576152984875755,-1,0,0,-5,1,4,-1,1
1576152984888720,-1,0,1,-1,-2,-1,0,2
1576152984888720,-1,1,-1,-2,-1,-1,-2,-1
1576152984897696,1,-2,0,1,-1,1,1,-3
1576152984897696,0,0,-3,1,-2,-3,-2,2
1576152984926617,-2,0,0,-2,-3,0,0,0
1576152984926617,2,0,0,0,4,2,-1,-3
1576152984928612,1,1,0,-2,-5,-6,0,-1
1576152984928612,-3,1,-2,-1,-1,5,-2,0
1576152984934696,1,-2,0,0,-1,0,-1,-3
1576152984934696,-1,0,0,0,0,-4,-1,-3
1576152984936593,-1,-1,-2,0,-1,3,0,1
1576152984936593,0,0,-1,-1,-2,-8,0,-2
1576152984948561,-4,-1,-1,-1,-2,-4,1,-1
1576152984948561,-2,-3,1,-1,0,-1,-1,-2
1576152984957537,-1,0,0,2,-1,-2,0,-2
1576152984957537,-1,1,-1,0,0,4,-1,1
1576152984979582,-3,-1,-2,-2,2,2,-2,0
1576152984979582,-2,1,-1,-2,-3,-1,-1,-3
1576152984981478,1,-4,-1,-1,4,-2,-1,0
1576152984981478,-2,-2,-2,0,-6,1,1,0
1576152984994540,-5,2,0,-2,2,-3,-4,0
1576152984994540,-3,-2,-1,0,-2,1,-3,-1
1576152984996432,0,-1,-1,0,0,-1,2,-1
1576152984996432,-1,-3,0,0,0,-3,-2,0
1576152985017496,-2,0,0,0,0,-1,0,-4
1576152985017496,1,-1,0,-2,-4,2,-2,1
1576152985018374,6,0,0,1,-1,-1,-3,-1
1576152985018374,0,1,-1,-1,0,2,1,-1
1576152985039420,1,-1,-1,0,-3,-8,-1,-1
1576152985039420,-2,-2,-2,1,1,-2,-3,-1
1576152985041316,-1,-1,-1,-2,-1,2,0,-3
1576152985041316,2,-2,-1,-1,1,1,-2,1
1576152985054376,-2,0,-3,1,0,2,-5,-1
1576152985054376,0,2,1,-2,-3,-1,0,1
1576152985056275,-1,-2,0,-2,-1,-1,3,2
1576152985056275,-1,-3,-2,-2,-1,-2,-5,0
1576152985093271,-5,-1,-1,-2,0,-2,0,0
1576152985093271,2,0,-1,1,-2,-3,0,-2
1576152985095171,-1,0,-2,-2,-1,2,-1,-2
1576152985095171,1,-4,-2,-2,2,-1,1,-1
1576152985096168,0,-1,0,1,-2,1,0,-2
1576152985096168,-1,-2,1,0,-1,-1,0,-2
1576152985100155,0,-2,-2,-1,0,2,0,1
1576152985100155,-2,-1,0,2,-2,-7,-1,-3
1576152985115161,-5,-3,0,-1,0,4,-2,-2
1576152985115161,1,1,0,0,-6,-1,1,-1
1576152985117109,1,0,0,2,2,-1,1,0
1576152985117109,-2,-4,-4,-2,1,0,1,-2
1576152985145067,-3,-3,-1,-3,-2,-1,-1,0
1576152985145067,0,-3,0,1,1,-1,-1,-3
1576152985146035,-1,-1,-1,-2,-1,-3,0,1
1576152985146035,1,1,0,0,0,1,4,-3
1576152985151071,0,-3,-2,-3,-3,-5,0,-3
1576152985151071,-4,-1,-1,-2,2,1,-1,-1
1576152985158001,2,0,-2,1,-4,-1,2,2
1576152985158001,0,2,-1,0,1,1,-1,0
1576152985175024,0,0,2,0,-1,0,-2,1
1576152985175024,-1,-1,0,-2,-1,-2,0,-1
1576152985175953,1,-2,-3,-2,-1,-1,-2,-2
1576152985175953,-2,-1,0,-1,1,0,0,2
1576152985196945,-2,0,-1,0,-3,2,-3,-2
1576152985196945,-2,0,-1,-2,-3,-10,-4,-2
1576152985198890,-3,1,0,1,-1,-2,1,1
1576152985198890,0,0,-2,-2,0,2,0,-1
1576152985211893,-2,-1,-1,-1,1,2,-3,-3
1576152985211893,-2,-1,0,-1,-2,-2,-1,-1
1576152985217888,1,-2,1,-1,0,0,-1,-1
1576152985217888,-3,-1,-2,0,-1,-2,-1,1
1576152985234845,-4,2,0,-2,-1,1,0,-3
1576152985234845,-2,0,-2,0,0,-1,0,-1
1576152985235793,2,-1,-3,0,-3,0,-2,2
1576152985235793,1,-2,-1,-1,0,1,-1,-1
1576152985256788,2,0,-1,-1,0,-4,-1,-1
1576152985256788,-2,0,-1,0,-1,-1,1,-4
1576152985258730,-1,1,0,-1,-2,5,-3,0
1576152985258730,0,1,-2,1,1,0,-4,-2
1576152985271745,1,-2,-2,1,-5,0,0,-3
1576152985271745,1,-3,0,-1,0,-4,0,0
1576152985278681,-2,0,-3,0,3,-4,1,-1
1576152985278681,-4,-2,-1,-1,-3,2,1,0
1576152985294678,-5,4,-1,0,2,-5,-2,-3
1576152985294678,1,-2,1,-2,-1,2,-1,0
1576152985296633,1,-1,-3,-1,0,-2,-4,-2
1576152985296633,-1,-1,-1,-1,-2,0,-2,-3
1576152985317561,1,-3,-1,-1,0,-3,1,-2
1576152985317561,-2,-2,-2,-2,-1,0,-3,-3
1576152985318563,-1,-2,0,0,-1,1,-1,0
1576152985318563,3,1,0,-3,-2,-1,-1,-1
1576152985331575,-2,1,0,0,-1,-1,-1,-3
1576152985331575,1,-2,0,-3,-3,0,-2,0
1576152985338530,-2,-3,-1,0,2,-1,-2,-1
1576152985338530,-4,-1,-1,-2,-1,-4,-1,-3
1576152985369425,-2,-2,0,-1,-1,2,-1,1
1576152985369425,-6,3,-2,-1,0,-4,2,-3
1576152985371422,-1,-2,-3,-1,-2,3,-1,-1
1576152985371422,-4,-1,-2,0,2,1,1,-1
1576152985377461,-2,1,0,-2,-2,-3,-2,0
1576152985377461,-3,-2,-3,0,-1,3,-1,-1
1576152985378398,-3,-1,-2,0,-3,-3,2,-1
1576152985378398,-1,2,-1,-1,-1,1,-2,0
1576152985391421,2,0,1,-2,0,1,1,-2
1576152985391421,0,0,-2,-2,-1,-4,-3,1
1576152985398379,-1,0,2,0,-1,2,0,0
1576152985398379,-1,-3,-3,-2,3,-3,-1,1
1576152985413307,-3,-1,0,-2,-1,-3,0,-4
1576152985413307,-2,1,1,0,-1,2,-3,-2
1576152985422286,2,-1,-1,-1,1,-1,3,3
1576152985422286,-4,0,-3,1,1,-6,0,1
1576152985437292,-3,-3,1,-2,-2,0,-4,-2
1576152985437292,3,1,2,-1,0,1,2,-1
1576152985439260,2,-2,-2,0,-1,0,-3,-2
1576152985439260,-1,-1,-2,1,-1,-2,4,-2
1576152985451207,-3,0,-2,-1,-2,2,-1,-2
1576152985451207,-3,0,0,1,1,2,-1,-2
1576152985458220,-1,1,-1,-2,4,-9,-3,0
1576152985458220,2,-1,-1,-1,-7,2,0,2
1576152985482221,-3,0,-1,-1,-3,-3,-1,-4
1576152985482221,-2,-3,-1,-1,-1,2,0,-3
1576152985484122,1,-1,-1,-2,-1,1,2,1
1576152985484122,-1,-4,-1,-1,2,5,-3,-1
1576152985497182,0,2,-2,-1,-2,-5,-2,1
1576152985497182,-2,0,-1,-1,-5,-3,-2,0
1576152985499083,1,-2,-1,-1,-1,1,-2,-1
1576152985499083,-1,1,-1,-2,1,-4,-2,2
1576152985511162,1,0,-2,0,-1,1,1,-2
1576152985511162,-4,-2,-2,-1,1,-5,2,1
1576152985536976,2,-1,0,-2,-1,1,0,2
1576152985536976,-2,0,2,-1,2,1,-2,-2
1576152985536976,-2,-3,-1,1,-6,-3,0,-2
1576152985536976,3,0,0,-2,1,0,-3,-5
1576152985540964,1,0,-2,-2,-1,1,2,0
1576152985540964,0,-1,-2,0,0,0,2,4
1576152985557022,0,0,2,3,2,-7,0,0
1576152985557022,1,-2,0,-1,-3,5,-2,-1
1576152985558921,-1,0,0,1,-4,-4,-3,2
1576152985558921,0,-3,-2,-2,-2,1,-1,1
1576152985570989,-1,0,-3,-3,0,2,-1,-1
1576152985570989,0,0,0,-3,-3,-5,-2,1
1576152985579866,-2,-3,-3,0,1,5,-1,-4
1576152985579866,3,-2,-1,-1,-2,-4,0,-1
1576152985594925,-3,-1,3,-1,1,-2,-4,-3
1576152985594925,-3,0,0,-1,0,0,2,1
1576152985595821,-2,-1,-2,-4,0,3,2,1
1576152985595821,-1,0,0,0,-3,-1,2,1
1576152985617618,-3,-1,1,-1,-1,1,-5,-1
1576152985617618,5,-1,-2,0,-2,-1,0,1
1576152985618589,2,-1,-2,1,-3,-1,1,-1
1576152985618589,-1,2,-2,-1,1,0,-3,1
1576152985647599,-2,0,0,-1,0,-1,1,-3
1576152985647599,-3,-2,0,0,0,3,-2,1
1576152985648504,1,0,0,0,-3,-8,-1,3
1576152985648504,-1,0,-2,-3,-1,3,-1,-4
1576152985654589,0,-1,-1,0,-1,0,-1,-1
1576152985654589,-1,0,-1,0,0,-2,0,-3
1576152985656476,0,-2,-2,-1,0,1,-1,3
1576152985656476,-1,-4,-1,-2,-1,-3,-2,-2
1576152985677540,-2,-1,-1,0,-1,1,-3,-2
1576152985677540,-1,1,-1,0,4,0,0,0
1576152985678426,-1,0,-2,-1,-4,-2,0,1
1576152985678426,1,-1,-1,0,-1,-2,-1,-5
1576152985699468,0,-1,-2,-4,1,0,1,-4
1576152985699468,-1,-2,-2,1,-4,-2,-4,-1
1576152985701357,-2,-1,-1,0,1,-1,2,0
1576152985701357,-1,-1,0,1,-1,2,-2,1
1576152985714430,1,0,-2,-2,-4,0,2,-3
1576152985714430,-4,-2,1,-1,0,-3,-4,-4
1576152985716320,5,-2,0,-1,-1,2,1,2
1576152985716320,-4,-2,-3,-2,0,0,-1,0
1576152985737364,-4,-2,-2,0,0,-3,1,-1
1576152985737364,-1,-1,0,-2,-1,-2,2,-1
1576152985738260,-1,1,1,0,0,5,1,0
1576152985738260,0,-1,0,0,1,-4,-2,-2
1576152985751270,-4,-2,1,-1,-3,-2,-3,0
1576152985751270,-1,-1,-1,-2,-3,-2,-2,0
1576152985760201,-3,0,-3,-3,0,0,0,1
1576152985760201,0,1,0,-1,-2,1,-1,-1
1576152985774198,-1,1,-1,-1,2,-2,-5,-1
1576152985774198,0,-2,-2,2,-2,-2,2,-2
1576152985776160,3,0,-1,-1,0,1,2,0
1576152985776160,-5,1,-3,0,-1,1,-1,-2
1576152985812953,0,-2,0,2,-1,-5,-1,1
1576152985812953,0,-1,-1,-1,-2,-2,-2,-1
1576152985814900,-2,-5,-3,-1,1,-1,0,1
1576152985814900,-2,-2,-3,0,1,2,1,-1
1576152985814900,-3,1,-2,-1,-1,-4,-1,-5
1576152985814900,0,-1,0,0,-2,2,-3,-1
1576152985819884,0,1,-2,0,1,-1,-6,-1
1576152985819884,-1,-1,-1,0,3,-3,2,0
1576152985834895,-1,-2,-3,-2,-9,6,-2,-2
1576152985834895,0,-3,-1,-2,3,-3,1,-1
1576152985835845,1,-2,1,-1,-2,1,-2,-1
1576152985835845,-6,-2,0,0,0,-1,1,1
1576152985856835,-5,3,0,1,1,-3,-3,-2
1576152985856835,1,-2,-2,-1,-4,-4,-1,-3
1576152985858779,1,-1,0,-2,0,1,0,1
1576152985858779,2,-2,-1,-2,-1,0,-3,0
1576152985870798,-2,0,0,1,1,-2,-1,-3
1576152985870798,-3,-4,0,-2,-3,-1,-2,-2
1576152985879726,2,-1,-1,-1,0,-2,-1,-1
1576152985879726,2,1,0,0,-2,2,2,1
1576152985894733,-5,-1,1,-1,-1,-5,-3,-1
1576152985894733,1,1,0,1,0,7,0,-1
1576152985896695,-2,-1,-3,0,-1,-3,-1,-1
1576152985896695,0,-3,0,-2,-3,-1,0,-4
1576152985916301,0,0,0,-1,-2,-4,-3,-2
1576152985916301,-2,3,0,-1,0,1,0,0
1576152985925249,-2,-1,0,-2,4,0,1,1
1576152985925249,0,-1,-2,-1,-6,1,0,0
1576152985947284,1,-1,-2,-2,1,5,-1,1
1576152985947284,-2,-5,-2,-1,-1,-1,2,-2
1576152985949185,1,-1,-1,0,-1,0,-1,1
1576152985949185,1,1,1,-2,2,-3,-1,1
1576152985955200,-1,-1,-2,-1,0,-1,0,-1
1576152985955200,-2,0,1,-1,-2,-3,1,1
1576152985956171,0,-4,-1,-2,0,-2,-1,3
1576152985956171,-2,0,-1,-1,0,1,-3,-1
1576152985977202,0,0,-3,0,0,-1,0,0
1576152985977202,-4,1,-1,1,-1,2,-1,0
1576152985979101,3,-1,-3,-1,-1,-1,0,-2
1576152985979101,-1,-2,-1,-1,-2,0,-2,-4
1576152986000119,0,-4,-2,-3,1,-6,-1,-2
1576152986000119,1,2,0,0,0,-8,-2,-2
1576152986001044,-4,1,-1,1,-2,3,0,0
1576152986001044,0,-1,1,0,3,-3,-2,0
1576152986015095,-1,1,0,-1,-7,3,2,-1
1576152986015095,0,1,1,-2,-1,-4,-3,-1
1576152986016005,1,-1,1,0,2,1,3,3
1576152986016005,1,-2,-4,-1,1,-1,0,1
1576152986037952,-4,-2,1,1,0,-1,-2,-3
1576152986037952,-1,-2,-1,2,-2,3,0,-3
1576152986038944,0,-1,-1,0,-2,1,-1,0
1576152986038944,1,-2,-1,1,-2,-2,-3,-2
1576152986059986,0,-2,-1,-1,0,-4,-1,-1
1576152986059986,0,1,-2,-2,-2,1,-2,-1
1576152986060892,0,-3,0,-1,-2,-1,0,0
1576152986060892,1,1,-2,-1,1,0,0,0
1576152986089903,2,0,1,-3,0,0,-2,-1
1576152986089903,-3,-1,-1,-1,-1,-3,-2,-2
1576152986090812,-1,-2,-4,0,-2,2,-1,0
1576152986090812,0,-1,0,-2,-3,-5,0,3
1576152986096829,-4,-2,0,1,2,5,0,-2
1576152986096829,0,-1,-1,1,-3,-2,-2,-2
1576152986098788,0,-2,-4,-1,-1,-2,0,-3
1576152986098788,-4,-2,-1,-1,-4,2,0,-2
1576152986119768,-1,1,1,1,-2,-4,-3,-3
1576152986119768,1,-2,-1,0,0,-3,1,-3
1576152986121729,-2,0,0,-1,0,0,-1,1
1576152986121729,-1,-2,-1,-2,3,1,2,-1
1576152986142664,-5,-1,-2,-1,-2,-2,-2,1
1576152986142664,-3,1,0,-2,-2,2,-3,1
1576152986143664,0,-1,1,-2,0,0,-2,1
1576152986143664,-3,1,-2,-1,0,-3,-2,1
1576152986157669,-2,-1,2,-1,-1,0,1,-6
1576152986157669,-2,0,-1,0,-1,-3,-2,0
1576152986158623,3,0,-1,-3,-3,-2,0,-2
1576152986158623,-3,0,-3,-1,0,0,-2,-1
1576152986179666,-1,2,0,1,-1,-6,-1,-1
1576152986179666,2,0,-2,0,-2,1,0,-1
1576152986181565,0,-1,-2,-1,-1,3,0,-1
1576152986181565,0,-3,-1,-1,2,-2,-3,-3
1576152986202547,-3,0,-1,-2,-4,-2,0,1
1576152986202547,-2,-1,-1,-1,1,0,-1,-1
1576152986203503,2,1,-2,0,0,-3,0,3
1576152986203503,-4,0,0,0,0,3,1,-2
1576152986217666,-1,2,-3,-1,-1,3,-3,-3
1576152986217666,0,-2,2,-2,0,-5,0,-1
1576152986218465,-2,1,-2,0,-5,1,2,2
1576152986218465,-2,-2,-1,-1,-3,-2,-6,-3
1576152986255464,0,-2,0,0,1,0,-1,-1
1576152986255464,1,-1,0,0,-1,0,-1,1
1576152986257357,-1,3,-1,0,0,-2,-4,0
1576152986257357,2,-2,-2,-2,-1,-3,0,-1
1576152986257357,-2,-2,-1,-1,0,-2,-1,0
1576152986257357,1,1,-1,-3,1,3,-2,0
1576152986262352,-1,-2,-1,-1,-1,0,1,-1
1576152986262352,-4,-3,2,-1,-3,5,0,-1
1576152986277312,2,-1,-1,0,-2,-9,0,-3
1576152986277312,-2,0,-1,-1,-1,0,0,0
1576152986279298,2,-1,-5,-1,1,3,0,0
1576152986279298,-1,0,-2,1,0,-2,-1,-1
1576152986316299,-3,1,0,1,-1,1,0,-4
1576152986316299,-3,-3,-2,-2,0,0,2,1
1576152986317200,1,0,-2,-1,-4,-2,2,0
1576152986317200,-1,2,1,0,-1,-2,1,0
1576152986318207,0,-5,-1,-1,0,3,-1,-2
1576152986318207,-1,-3,-2,1,-2,-3,0,0
1576152986322185,-2,-1,1,0,4,0,-1,0
1576152986322185,-4,-2,-1,-5,-3,-1,-3,-2
1576152986337154,-5,0,1,-3,-3,-4,0,0
1576152986337154,1,0,-1,-2,-1,-4,-1,-3
1576152986339143,0,-3,0,-1,-1,2,2,2
1576152986339143,5,-1,-1,1,1,6,1,1
1576152986367164,-2,-1,-4,-3,-3,-8,-9,-6
1576152986367164,0,2,-1,-1,-3,1,0,4
1576152986369061,0,-2,-2,-1,1,1,-1,-2
1576152986369061,-3,0,-1,-1,-3,0,1,-2
1576152986374141,-4,-1,0,-1,-1,2,-1,0
1576152986374141,3,0,0,0,1,-3,-2,-1
1576152986381124,0,-1,-2,-2,-4,1,0,1
1576152986381124,-3,-1,-2,-2,0,-2,-2,-2
1576152986397087,-3,-1,-2,-1,0,2,-2,1
1576152986397087,-1,0,-1,-1,-4,-1,-2,0
1576152986398980,1,-1,-2,-2,2,0,1,1
1576152986398980,-2,1,0,-1,0,-3,-2,-3
1576152986419967,-1,-1,0,-1,-2,-2,2,-3
1576152986419967,-1,-3,0,1,-1,7,-1,-1
1576152986420921,-2,-3,-2,-1,0,-4,-2,1
1576152986420921,1,-2,-2,-1,2,-11,-3,-2
1576152986433886,-3,1,-1,0,-6,1,2,-4
1576152986433886,-2,0,-1,-1,1,-1,-1,-1
1576152986442863,0,-1,-2,1,0,-1,0,-2
1576152986442863,-3,0,0,1,0,1,-2,-1
1576152986457823,-2,-1,-1,-2,1,0,-2,-3
1576152986457823,1,0,-2,-1,-2,-2,0,-2
1576152986458822,-2,1,-2,1,-3,-2,-3,-1
1576152986458822,-1,-1,-1,-1,0,2,0,-2
1576152986479864,-1,-1,1,0,-2,-1,0,-2
1576152986479864,-1,-2,-1,-2,-1,0,-1,-2
1576152986481766,3,-1,-1,-2,1,-1,-1,0
1576152986481766,-2,-3,0,0,-3,-2,1,1
1576152986493766,-4,-2,-1,-1,3,-2,-4,-4
1576152986493766,-2,1,1,-1,-2,2,-4,-1
1576152986502701,-1,-2,-3,-2,-1,-1,2,1
1576152986502701,-2,2,-2,0,1,2,0,-1
1576152986516760,0,1,0,0,-1,0,-1,-4
1576152986516760,-4,-2,1,-1,0,-2,2,1
1576152986530731,-1,-1,0,-2,-1,-2,-2,-1
1576152986530731,-2,0,-2,-3,-1,0,-1,-2
1576152986539708,1,-1,0,2,-2,-3,-2,0
1576152986539708,-1,-1,0,2,0,0,1,-3
1576152986541600,1,-1,-1,-2,-2,1,0,1
1576152986541600,-2,0,-2,-1,-1,-2,-2,-3
1576152986553676,2,1,0,-1,-2,-3,1,0
1576152986553676,2,-1,-2,-2,-1,1,-2,-4
1576152986562549,-2,-2,1,1,3,-2,5,3
1576152986562549,0,-2,0,0,-2,1,-2,0
1576152986592567,0,0,-1,-1,0,-3,-6,-1
1576152986592567,0,-1,0,0,-2,2,1,0
1576152986600538,0,-1,-1,-2,1,-1,1,0
1576152986600538,-5,0,-2,0,0,0,-1,0
1576152986601439,1,0,-2,-1,-2,-11,-1,0
1576152986601439,0,-5,-1,-3,-1,-2,-1,-3
1576152986602436,3,-3,-2,1,1,3,-1,-1
1576152986602436,-1,0,-1,-1,-3,-2,-1,-4
1576152986613410,0,-1,-1,-3,1,2,3,1
1576152986613410,-1,1,0,-1,-1,-2,-2,0
1576152986622391,1,-3,-2,-1,0,-1,-2,0
1576152986622391,0,0,-1,0,0,0,-2,0
1576152986644331,1,-3,1,-1,0,2,0,1
1576152986644331,-2,-3,-2,0,0,0,0,-1
1576152986646322,1,-3,-2,-4,-2,3,2,5
1576152986646322,2,-1,-2,0,-3,-4,-2,0
1576152986659327,-2,0,-1,-1,-1,-2,-1,-1
1576152986659327,-1,-1,0,0,-1,4,0,0
1576152986661281,-3,0,-1,1,1,-1,-1,-1
1576152986661281,2,-1,-1,-1,2,-4,0,0
1576152986673346,-1,0,1,-1,-4,-2,0,-2
1576152986673346,2,-1,-2,0,0,0,0,0
1576152986682223,0,-1,-2,0,-1,0,-2,-1
1576152986682223,-1,1,1,0,0,-1,2,-3
1576152986705181,-1,-3,0,0,0,-1,-1,-3
1576152986705181,-2,-1,-2,-1,-3,-2,1,-1
1576152986706160,5,1,0,-1,0,1,-1,1
1576152986706160,-1,2,-2,0,-2,-3,-1,-2
1576152986720121,-4,-1,-2,-3,2,4,-1,-1
1576152986720121,0,-1,-1,-1,-1,-7,-3,1
1576152986721162,-3,-1,1,0,0,3,1,1
1576152986721162,1,-1,-1,-3,-1,-1,-1,-3
1576152986733190,0,2,0,1,-2,-5,-1,-2
1576152986733190,1,-4,-2,-1,-5,1,0,-1
1576152986758029,1,-1,-2,-2,1,-6,0,0
1576152986758029,-3,0,0,-1,-2,1,0,1
1576152986759016,-3,-1,-2,-1,-2,0,-3,-1
1576152986759016,0,-1,-1,1,2,-6,-2,2
1576152986760024,0,-1,-1,1,-1,-3,-1,0
1576152986760024,-2,-2,-1,0,-2,3,-2,-1
1576152986780074,-2,2,1,0,0,-5,0,-1
1576152986780074,1,-3,0,-1,-1,1,-1,1
1576152986780964,0,-1,-1,-1,0,2,3,0
1576152986780964,0,-4,-1,0,2,-3,-3,-1
1576152986810878,-5,1,-2,0,-1,5,-1,-3
1576152986810878,2,-2,1,0,0,-1,2,0
1576152986811878,-1,-4,-2,-1,-1,1,0,-2
1576152986811878,-3,-2,-2,0,0,-4,-1,0
1576152986816962,-2,-2,0,-2,-5,0,-4,-3
1576152986816962,1,1,-4,-1,-1,-2,0,0
1576152986818864,-1,1,0,-2,-2,-3,1,0
1576152986818864,-3,-3,2,-3,1,2,-1,-2
1576152986839904,-5,0,1,-1,0,0,-1,-4
1576152986839904,-3,1,1,-1,-2,-2,1,1
1576152986840800,-2,0,-2,-2,-1,2,-1,0
1576152986840800,0,-1,0,-1,-1,2,1,-1
1576152986869730,0,2,0,2,-1,-3,-2,-3
1576152986869730,-2,0,0,-1,0,2,0,-3
1576152986871715,-1,-2,-1,0,0,-2,-1,2
1576152986871715,0,0,-1,-2,-2,3,0,-1
1576152986877701,-2,-2,-1,0,-3,-4,-4,1
1576152986877701,-4,0,0,1,-1,-1,-1,-1
1576152986878699,-1,0,-2,1,-1,0,-3,-1
1576152986878699,-4,-1,-1,-3,-3,-3,-2,-1
1576152986899742,-2,-1,2,-1,0,-4,0,-2
1576152986899742,1,-3,-1,-1,0,7,-3,-2
1576152986901642,-1,-5,-1,-2,3,-1,-1,0
1576152986901642,-4,-2,-2,2,-3,-2,-1,-1
1576152986922583,-2,-1,-1,-2,-1,-2,-1,-3
1576152986922583,-2,-2,-1,-2,1,-3,0,-1
1576152986923583,1,0,-2,-1,-1,2,-1,-2
1576152986923583,0,-1,0,1,-1,-1,-3,-3
1576152986937582,-3,-3,-1,-1,-1,7,1,-2
1576152986937582,1,-1,-1,-1,0,-12,-1,0
1576152986938536,3,0,1,-2,1,0,1,0
1576152986938536,-3,0,-1,1,-1,-2,2,-1
1576152986959583,0,-1,0,1,4,-1,-5,-3
1576152986959583,-2,-1,-1,-3,-7,1,2,0
1576152986961481,2,1,-3,-3,1,0,-2,0
1576152986961481,-4,0,0,-2,0,-1,1,-2
1576152986982422,-1,-4,-1,0,-2,1,-2,-2
