timestamp,emg1,emg2,emg3,emg4,emg5,emg6,emg7,emg8
1526902338237789,4,2,-4,-3,-2,-4,-6,-11
1526902338237789,-13,-1,1,-1,-1,-8,0,11
1526902338238786,-14,-10,-1,-3,-1,7,1,-2
1526902338238786,-8,1,1,0,1,0,0,-6
1526902338239784,15,2,0,-1,-1,0,4,8
1526902338239784,45,1,0,2,1,-21,0,4
1526902338239784,6,5,2,2,1,19,2,-8
1526902338239784,15,-5,-2,-1,0,10,-10,-2
1526902338251752,18,1,-5,-7,-1,-3,-1,10
1526902338251752,-11,-1,1,2,-22,1,-1,-5
1526902338260728,8,-1,2,7,38,-1,4,8
1526902338260728,-37,-5,0,0,2,-3,-3,-16
1526902338267709,19,2,1,3,2,-1,0,-1
1526902338267709,-12,-3,-1,-3,-2,5,-1,7
1526902338280674,-8,0,-4,-5,-15,-9,-4,-7
1526902338280674,0,0,-1,-1,-3,0,3,9
1526902338292643,-16,-5,-1,-1,5,-5,-2,-9
1526902338292643,1,1,1,-1,4,3,4,6
1526902338305607,-12,2,2,1,-8,-4,-6,-16
1526902338305607,15,-3,-2,3,3,-8,-3,1
1526902338312589,4,4,6,-3,-14,2,0,6
1526902338312589,-6,0,-4,-4,4,8,1,-8
1526902338325554,11,-1,-2,-4,-4,-3,-1,9
1526902338325554,-7,-4,-3,0,-4,-3,3,2
1526902338366445,-7,75,6,7,-1,-1,-2,-6
1526902338366445,10,-23,1,1,1,-2,-2,-1
1526902338367442,-2,-2,-6,-11,-6,0,-1,-2
1526902338367442,2,-14,-6,-14,-6,1,4,12
1526902338368440,-2,-30,-5,-1,-2,-2,-2,0
1526902338368440,-22,10,-3,2,0,-3,-7,-30
1526902338371431,-3,-39,0,16,5,-1,1,7
1526902338371431,5,-21,-6,4,4,-5,-3,-1
1526902338378412,-1,70,26,0,-8,3,2,2
1526902338378412,10,-17,-18,-32,-9,10,11,6
1526902338386391,-2,9,0,11,4,-1,-1,-1
1526902338386391,-7,-12,2,9,0,-3,-3,-8
1526902338393373,-8,-33,-12,-3,8,0,0,-5
1526902338393373,0,14,9,10,3,-1,-1,-2
1526902338408333,2,-8,-2,-10,-6,-2,0,9
1526902338408333,-3,10,0,7,5,3,1,6
1526902338415314,3,-3,-1,3,-2,-2,-3,2
1526902338415314,-3,-5,5,4,0,-2,-3,4
1526902338439250,8,5,-8,-13,-4,2,0,2
1526902338439250,-28,17,2,-2,-4,-2,-4,-16
1526902338441245,5,-25,-6,-6,-1,0,1,-2
1526902338441245,2,-2,1,3,-2,-2,1,8
1526902338453212,2,12,5,6,4,-2,-5,-4
1526902338453212,3,6,-1,-5,-4,-1,-1,1
1526902338460194,-22,-19,-2,-3,-2,-1,1,-3
1526902338460194,30,-2,-3,4,2,-2,-1,2
1526902338477148,-54,20,5,2,-1,-3,-1,-9
1526902338477148,14,1,-4,-7,-4,-1,-4,-7
1526902338478146,-53,-21,-2,1,2,-5,0,2
1526902338478146,77,12,3,3,0,11,1,14
1526902338499090,-81,-7,-5,-8,-5,-5,-4,-24
1526902338499090,40,6,4,3,0,2,4,15
1526902338501085,1,0,0,-2,-2,-2,0,6
1526902338501085,-32,3,3,1,1,-4,-2,-9
1526902338514050,55,2,0,-1,4,-15,2,11
1526902338514050,-19,3,0,3,-5,35,1,7
1526902338520034,1,-8,0,0,0,-1,-3,-20
1526902338520034,-17,0,-5,-3,-5,-3,-5,-1
1526902338536989,-17,-5,-2,0,1,2,1,-8
1526902338536989,-14,2,1,0,1,-11,-1,1
1526902338538983,52,-2,-1,0,-2,2,1,14
1526902338538983,-28,0,-3,-4,-1,-1,-2,-2
1526902338558930,22,6,1,3,-1,1,-1,1
1526902338558930,10,-1,1,2,1,-4,2,3
1526902338560925,35,-6,-8,-5,-5,-1,-6,-4
1526902338560925,-39,-3,1,2,2,-6,0,-6
1526902338573890,15,1,2,1,-1,5,3,9
1526902338573890,-31,-10,-6,-7,-2,-6,-9,-27
1526902338580871,17,11,3,4,3,2,1,5
1526902338580871,8,-3,-1,-1,-2,-2,2,-1
1526902338596828,18,-10,-1,-1,-1,1,-2,4
1526902338596828,10,26,4,1,1,-3,-2,4
1526902338598824,-14,-11,-3,0,0,-3,-2,-2
1526902338598824,4,5,-4,-2,-1,-1,0,6
1526902338619767,-3,3,3,1,2,4,-2,-3
1526902338619767,-4,-8,-4,-1,0,-7,-1,-2
1526902338620765,0,-14,-3,-3,0,2,3,3
1526902338620765,-1,30,12,8,4,1,0,0
1526902338633730,18,-1,-1,-7,-7,-1,-1,4
1526902338633730,-4,-2,-1,-3,1,0,3,-4
1526902338640711,-10,-2,0,11,43,-4,-2,2
1526902338640711,3,-4,-8,-9,-61,-27,-3,5
1526902338656669,0,-17,-7,-12,-2,13,1,-2
1526902338656669,6,26,4,-6,-14,9,3,11
1526902338658663,-1,-13,-7,-3,-3,5,1,0
1526902338658663,-4,-14,-1,6,19,-4,-3,-1
1526902338679607,-2,-13,-6,1,-3,-12,-6,-6
1526902338679607,6,52,14,3,8,-5,-2,0
1526902338680605,-2,-19,2,4,0,9,4,2
1526902338680605,-1,10,1,0,1,-2,-1,2
1526902338692572,-6,-21,-5,-1,-11,-8,-3,-5
1526902338692572,0,-31,-7,-1,10,1,0,0
1526902338701548,1,23,3,-3,-11,-5,-5,-4
1526902338701548,8,-11,-3,-3,3,7,1,-3
1526902338716508,0,8,-1,2,3,2,5,18
1526902338716508,-29,-4,6,9,3,-4,-7,-37
1526902338718503,6,9,1,-1,-11,-6,0,7
1526902338718503,2,-9,-5,-4,5,8,3,9
1526902338739447,8,15,4,4,7,4,-2,-3
1526902338739447,0,-6,-3,0,-5,-4,1,8
1526902338741442,-11,-11,-5,-7,-12,-8,-6,-22
1526902338741442,7,0,1,0,9,3,2,4
1526902338753410,-9,19,4,5,2,-1,1,-2
1526902338753410,48,-14,-3,-1,-4,-4,4,22
1526902338762386,-18,0,2,-1,-3,1,-3,-12
1526902338762386,-12,-6,-4,-2,3,0,-7,-10
1526902338777346,30,9,1,0,-1,3,0,0
1526902338777346,2,-11,-4,-3,-4,-25,3,10
1526902338778344,8,5,-1,-2,0,4,1,5
1526902338778344,9,11,2,-1,0,16,2,0
1526902338799287,57,-4,0,-1,-3,-5,1,-10
1526902338799287,-52,-20,-9,-8,-3,-2,-10,-8
1526902338801282,-25,4,2,1,0,-3,1,-8
1526902338801282,20,-8,-3,-1,-1,-6,-3,-2
1526902338813250,-4,10,2,-2,-1,0,2,9
1526902338813250,4,-1,-1,4,3,7,1,-1
1526902338822226,-8,2,0,-3,-5,-1,0,8
1526902338822226,-28,-9,-5,-4,0,-1,-4,-17
1526902338837186,-14,2,1,2,3,1,-2,-14
1526902338837186,-4,0,0,0,-5,-3,-3,5
1526902338838183,-6,-5,-2,4,-1,0,-1,6
1526902338838183,29,8,-3,-5,1,-1,1,6
1526902338859127,-28,-3,-1,-4,-2,-3,0,-1
1526902338859127,-6,-6,0,-1,1,1,-4,-6
1526902338861122,33,4,2,1,0,2,0,2
1526902338861122,-16,4,4,9,2,-2,0,-5
1526902338873089,8,-14,2,2,-2,-3,0,14
1526902338873089,-13,9,-11,-17,-5,4,4,-9
1526902338882066,9,-1,0,-2,-1,0,2,18
1526902338882066,-10,-10,1,1,-1,-5,-5,-27
1526902338897026,-25,-14,-1,0,0,0,0,10
1526902338897026,29,18,5,11,3,-1,1,-1
1526902338898023,7,4,5,0,-3,-1,0,0
1526902338898023,-3,-7,0,0,4,2,3,8
1526902338918967,-8,-2,-1,1,-1,-2,-1,-1
1526902338918967,-2,-17,-5,-9,-5,-1,-5,-8
1526902338920962,3,14,-3,-5,-4,-3,-1,2
1526902338920962,-12,-4,1,-3,1,2,0,-1
1526902338932930,-8,-13,-3,1,-4,-3,-5,-9
1526902338932930,17,-4,-2,3,2,2,3,11
1526902338941906,-13,4,-1,-6,-3,-3,-4,-12
1526902338941906,3,-2,-3,-1,1,0,-1,-9
1526902338956866,0,7,-6,-5,-1,0,-1,1
1526902338956866,-1,0,3,1,-1,1,0,4
1526902338958861,6,-3,-2,2,0,-2,0,-6
1526902338958861,8,-1,-1,-3,1,0,2,16
1526902338979804,7,7,-2,-3,-1,-1,-2,-7
1526902338979804,-51,-7,2,0,-1,-10,-5,-20
1526902338980802,-5,-14,-4,-3,-3,10,-7,-17
1526902338980802,-1,5,-4,-2,-4,-6,1,11
1526902338992769,14,3,0,1,3,1,0,5
1526902338992769,12,-5,-1,1,0,1,5,10
1526902339001746,-12,-5,-1,0,1,-1,1,-2
1526902339001746,-20,-4,0,-1,0,-3,-5,-12
1526902339016706,31,8,-2,-5,-4,-4,-3,8
1526902339016706,-24,-6,0,1,-2,1,-2,-7
1526902339018701,4,0,-2,0,1,1,1,1
1526902339018701,-39,0,-4,-3,-5,-2,-3,-9
1526902339039644,-47,-8,-1,-1,2,-12,1,-7
1526902339039644,74,10,-3,-4,-6,5,-2,11
1526902339040642,-20,-4,1,0,2,-2,-5,-11
1526902339040642,-43,-2,4,1,-7,-1,2,-10
1526902339052610,70,10,-1,-1,-2,0,-1,7
1526902339052610,-42,-1,4,2,-1,-6,-2,-2
1526902339061586,18,3,-2,1,0,-4,1,11
1526902339061586,18,-1,0,0,1,4,3,13
1526902339076546,-16,-2,-1,1,2,0,-1,-10
1526902339076546,9,-3,-3,-1,0,-1,1,7
1526902339078541,-11,-6,-1,-2,-4,-3,-8,-25
1526902339078541,15,3,2,0,0,-2,0,13
1526902339099485,-13,1,-2,-2,-1,2,-1,0
1526902339099485,13,2,-1,-2,2,2,1,1
1526902339101479,-3,-6,-2,1,-2,0,2,7
1526902339101479,5,-4,-7,-2,0,-2,0,-7
1526902339113447,-9,9,5,2,1,3,-1,-4
1526902339113447,-7,-8,-3,-2,-2,2,0,-3
1526902339122424,11,12,-4,-1,0,-4,0,5
1526902339122424,12,-3,4,0,2,1,-4,-1
1526902339137383,-3,-13,-6,7,2,2,3,4
1526902339137383,-10,56,10,8,-1,-4,-3,-7
1526902339138381,29,-5,6,-8,2,8,8,28
1526902339138381,-17,-13,-7,-5,-2,-1,-1,-25
1526902339159324,-12,5,4,13,5,0,-3,-1
1526902339159324,3,-38,-1,11,3,-2,-1,-1
1526902339161319,-1,17,-12,-30,-16,-3,-1,2
1526902339161319,18,11,-7,-16,-2,7,9,20
1526902339182264,-9,-6,9,14,6,0,-3,-15
1526902339182264,-9,-36,4,7,1,-4,-3,-4
1526902339183261,8,56,-5,-5,5,3,5,1
1526902339183261,3,-18,0,-3,-2,-2,0,3
1526902339197224,-13,-9,-6,-7,-4,-3,-5,-11
1526902339197224,18,2,1,6,2,0,1,4
1526902339198221,-17,-20,1,7,0,-4,-4,-3
1526902339198221,23,9,0,5,2,-1,-2,2
1526902339220166,-32,11,-2,-5,-1,2,-2,-15
1526902339220166,16,2,-4,-7,0,-3,-3,2
1526902339221165,-1,-15,0,2,-3,6,1,-1
1526902339221165,5,8,3,3,3,-4,1,4
1526902339242103,11,-5,0,-4,-3,-1,1,7
1526902339242103,7,8,-5,-10,-3,3,0,2
1526902339243101,-24,-17,-4,3,0,-6,-2,-9
1526902339243101,29,8,5,6,0,-3,-2,9
1526902339257063,22,-2,-5,-8,-4,-1,-1,-4
1526902339257063,-70,-2,-6,-7,-2,-1,-3,-16
1526902339259068,12,-3,2,3,3,-15,0,1
1526902339259068,-8,-3,-2,7,-3,5,-3,0
1526902339279004,4,1,-5,-12,-2,-4,0,6
1526902339279004,12,4,1,-5,-1,7,2,0
1526902339280999,6,-9,1,9,5,-3,-1,-1
1526902339280999,-5,-2,0,0,1,-3,-2,-9
1526902339301943,-25,4,2,1,-2,-1,4,5
1526902339301943,16,-2,-5,-2,-3,-3,-8,-11
1526902339303938,-29,-5,1,0,-2,4,-4,-11
1526902339303938,24,1,1,-3,-1,-5,1,4
1526902339315905,-1,3,-1,-2,-3,3,-2,6
1526902339315905,5,0,1,1,0,-1,1,4
1526902339322887,12,-2,-4,0,-3,0,1,3
1526902339322887,-17,1,0,3,5,-2,-4,-4
1526902339337847,6,-5,-1,-1,-4,-1,2,3
1526902339337847,0,5,-3,-5,-3,0,1,1
1526902339346823,5,-6,-1,1,0,-3,-3,1
1526902339346823,5,3,3,3,0,1,1,-4
1526902339361783,-6,-4,0,-2,0,1,-3,-6
1526902339361783,8,-2,-2,-4,0,-4,0,0
1526902339363778,9,-14,-2,-2,-4,0,0,5
1526902339363778,-13,20,-1,-3,-2,2,2,2
1526902339384722,20,0,1,2,2,1,2,12
1526902339384722,-43,-6,-2,1,-1,-5,-4,-19
1526902339385719,17,-3,-2,-5,-3,-2,-1,3
1526902339385719,-4,-2,0,-3,-2,-5,1,3
1526902339397687,-10,-3,-4,-4,-5,8,-3,-7
1526902339397687,13,-8,0,2,0,0,5,16
1526902339406663,-19,1,-5,3,0,-4,-6,-15
1526902339406663,12,4,5,6,2,-3,1,8
1526902339421623,-18,43,5,-6,-5,-5,-5,-19
1526902339421623,8,-16,-1,-6,0,6,4,6
1526902339423618,-1,-16,2,12,4,4,1,6
1526902339423618,1,-13,-11,-13,-9,-5,-3,3
1526902339444561,1,33,2,-3,-1,0,4,-13
1526902339444561,7,-9,-1,4,3,1,1,2
1526902339445559,-2,3,4,-4,1,-2,-1,-4
1526902339445559,-5,-9,-2,-5,2,9,5,6
1526902339458524,7,-26,1,6,1,-4,0,6
1526902339458524,-2,29,0,1,-2,-2,-4,-12
1526902339467500,5,3,-1,6,4,-1,0,0
1526902339467500,1,-14,-1,3,-2,-1,1,7
1526902339481463,-38,-34,-12,-10,-4,-1,-7,-34
1526902339481463,21,24,4,2,1,-1,0,12
1526902339483458,-9,-9,2,2,-4,-3,-2,-7
1526902339483458,0,15,0,-7,-3,1,1,3
1526902339503404,38,-12,-4,-1,0,0,-3,1
1526902339503404,-49,-13,-9,-2,-3,-4,-3,-1
1526902339504402,-9,6,-1,-4,-1,2,1,-2
1526902339504402,4,-4,-1,2,-1,-2,-2,-11
1526902339526343,18,0,0,2,2,-1,2,17
1526902339526343,9,-4,1,-1,-1,0,1,3
1526902339527340,-21,0,-1,-4,-3,2,-2,-12
1526902339527340,15,-1,3,5,1,-1,-2,2
1526902339541303,15,-1,-2,-1,-1,-7,-3,6
1526902339541303,4,-3,-1,-3,-1,-10,2,0
1526902339542300,-15,8,-1,-3,0,12,2,8
1526902339542300,6,1,-1,2,0,-2,0,-3
1526902339563244,38,4,2,-1,-5,-13,-3,2
1526902339563244,-1,-6,0,-1,2,11,1,-2
1526902339564242,9,3,1,0,-4,-4,2,2
1526902339564242,-7,-1,-2,-2,6,3,-1,-2
1526902339586183,-33,-3,-1,-5,-2,-7,-7,-13
1526902339586183,11,-4,-2,-2,-5,-5,-2,-3
1526902339587180,-11,-3,0,2,0,2,-2,-11
1526902339587180,-19,-3,-2,0,-1,-3,-2,-9
1526902339601143,-8,0,1,0,0,2,5,6
1526902339601143,10,-2,-3,-3,-1,-1,-1,-2
1526902339602140,2,3,2,-1,1,0,0,4
1526902339602140,-3,0,-2,1,-1,-4,-4,-4
1526902339624081,-17,-5,-4,1,2,4,0,4
1526902339624081,-1,-2,0,1,-3,2,-1,-3
1526902339624081,16,2,-2,-4,-4,-6,-2,6
1526902339624081,13,-2,-1,2,-2,1,0,0
1526902339646023,-62,-7,-1,1,1,2,-2,-5
1526902339646023,-3,-4,-2,-1,0,0,-1,-6
1526902339647020,-2,7,-2,-2,-2,-3,-1,2
1526902339647020,-5,-3,-2,-2,-4,-5,-6,-6
1526902339660983,28,-1,-2,-3,0,1,-1,8
1526902339660983,-2,-3,2,1,1,-1,-1,9
1526902339661980,2,-9,3,1,2,-3,1,4
1526902339661980,-9,15,1,-4,-5,2,-2,-8
1526902339683922,3,-12,0,2,2,1,3,7
1526902339683922,-8,19,-2,-1,-2,-3,-4,-9
1526902339684919,14,-6,-2,4,2,-2,0,6
1526902339684919,-10,-14,-3,-4,-4,-3,-4,-5
1526902339705863,3,-7,-4,-11,-6,-2,3,9
1526902339705863,-7,10,4,1,0,0,-4,-22
1526902339706860,9,-10,-5,5,4,-1,0,4
1526902339706860,-11,-32,0,15,5,-3,-2,-7
1526902339720823,-2,60,4,-14,-11,0,0,2
1526902339720823,7,-19,-5,-6,-2,3,5,4
1526902339721821,-4,-17,-6,-2,-1,-2,-3,-8
1526902339721821,-9,38,-3,-5,-1,-3,-3,2
1526902339743761,9,-8,6,9,9,3,0,0
1526902339743761,-1,-5,1,4,-5,-4,-3,1
1526902339744760,-2,7,1,2,2,-1,-6,-9
1526902339744760,-10,-31,-6,1,-4,-4,-3,-2
1526902339766700,3,16,1,-3,1,2,1,-4
1526902339766700,-11,10,2,-1,5,-1,0,2
1526902339766700,19,-18,3,1,-5,-4,-2,-5
1526902339766700,-34,0,-1,-4,3,6,-3,-17
1526902339781660,14,9,0,6,-1,-3,1,10
1526902339781660,-15,-26,-6,-7,-8,-2,0,2
1526902339781660,9,14,0,3,1,1,3,0
1526902339781660,19,4,2,-3,-3,-1,2,4
1526902339803601,-17,-18,-5,-1,-1,-1,-3,-7
1526902339803601,4,-5,1,6,2,-3,-4,1
1526902339804599,29,21,2,-4,-5,-1,-3,4
1526902339804599,-8,1,-1,-3,0,-1,-2,-17
1526902339826540,6,-23,-6,2,0,1,-1,7
1526902339826540,7,10,0,-2,0,-4,-1,-7
1526902339826540,-15,2,-2,-5,-2,6,3,15
1526902339826540,1,-7,1,1,2,-2,-6,-30
1526902339840502,7,-5,-3,1,-1,-3,-2,9
1526902339840502,-2,2,3,1,1,1,-2,-8
1526902339848481,9,5,-5,-7,-4,-2,-1,2
1526902339848481,-1,-4,-3,-3,-3,-3,0,8
1526902339863441,-18,-4,1,3,0,-1,0,-7
1526902339863441,7,6,-4,-4,-1,8,-1,-2
1526902339864439,-24,-6,-2,-2,-6,-1,1,-14
1526902339864439,6,4,3,3,1,3,-3,7
1526902339886380,-13,-6,-1,1,-2,-3,1,-6
1526902339886380,23,-6,-5,-3,3,-7,-7,-12
1526902339887377,-17,2,-2,-2,1,3,1,5
1526902339887377,10,1,-1,-2,-6,-3,0,5
1526902339900342,-6,-2,0,-1,3,0,0,5
1526902339900342,17,0,1,3,-3,-1,2,6
1526902339908321,-16,0,1,-1,0,-2,-4,-22
1526902339908321,15,6,-3,-5,-3,-2,1,17
1526902339923281,-18,-11,-5,-2,-3,-1,-3,-10
1526902339923281,16,1,1,3,-1,3,3,14
1526902339924278,11,-1,-2,-4,-1,-3,-3,-6
1526902339924278,-19,1,-3,-2,0,2,4,10
1526902339946220,6,-11,-2,-1,-1,-2,-6,-18
1526902339946220,2,7,2,3,1,-1,1,9
1526902339947217,-16,-17,-10,-10,-3,-4,-3,-17
1526902339947217,-11,2,-5,-5,-2,0,0,-5
1526902339960183,15,10,2,1,0,-1,2,1
1526902339960183,-13,-1,0,6,0,-6,-5,0
1526902339969159,-3,18,-3,4,4,0,1,9
1526902339969159,4,-17,3,-8,-8,-2,0,-4
1526902339984118,6,-6,-8,-8,0,5,5,0
1526902339984118,-7,4,3,3,0,0,0,-2
1526902339984118,6,-38,2,15,6,-1,3,12
1526902339984118,8,13,-5,-12,-9,-6,-4,12
1526902340006060,-17,36,-2,-5,0,3,2,-14
1526902340006060,-10,-35,-5,-4,-3,-2,-1,0
1526902340007058,11,17,8,1,-2,1,0,8
1526902340007058,-7,-44,-10,-4,-2,-2,3,5
1526902340021020,12,19,-1,-1,2,5,7,14
1526902340021020,-1,-6,-2,0,-1,-2,-3,-8
1526902340028998,-11,1,-3,0,-1,-6,-5,-9
1526902340028998,-1,11,4,8,3,1,0,9
1526902340043958,-3,-20,-4,-2,-3,-4,-6,-11
1526902340043958,-7,6,-2,-2,-1,-1,-1,-7
1526902340044956,5,2,0,-3,0,1,3,9
1526902340044956,6,9,1,0,4,2,1,-2
1526902340065900,-2,-12,-2,2,-1,0,-1,6
1526902340065900,13,3,-1,-2,-2,0,0,14
1526902340066897,-17,7,-2,-6,-2,-1,-4,-22
1526902340066897,18,3,1,4,2,2,2,5
1526902340080860,-11,-6,1,4,-1,-9,-2,3
1526902340080860,6,2,3,-1,-1,7,3,4
1526902340095820,27,-1,-3,-6,-2,3,0,4
1526902340095820,-18,5,-2,2,0,-1,-3,-8
1526902340103798,32,-8,-2,0,0,-8,-5,-3
1526902340103798,-66,-7,-6,-10,-4,-5,-3,-16
1526902340104796,23,4,2,2,1,0,5,22
1526902340104796,-6,10,3,5,1,-8,-4,-27
1526902340125740,4,2,5,3,-2,-3,2,14
1526902340125740,49,3,-6,-7,-2,20,0,8
1526902340126737,-59,-5,-2,-3,-11,-5,-5,-17
1526902340126737,3,-1,1,1,5,-2,-1,4
1526902340140700,10,-4,0,0,-1,-1,0,5
1526902340140700,-17,1,0,1,-1,-9,-2,-5
1526902340148678,12,0,-2,0,0,2,-2,-1
1526902340148678,14,0,-4,-3,-4,4,0,6
1526902340163638,-19,-4,1,1,0,-2,-2,-3
1526902340163638,14,2,-1,-3,-1,-3,3,7
1526902340164636,-28,-8,-4,-5,-2,-3,-1,0
1526902340164636,9,1,1,0,1,-2,0,-4
1526902340186577,-15,0,2,1,0,3,-2,-3
1526902340186577,1,0,0,1,-2,-1,7,11
1526902340186577,-14,-5,-2,-3,0,-3,-8,-29
1526902340186577,-2,0,0,1,0,2,1,7
1526902340200540,4,3,1,6,3,1,-2,-3
1526902340200540,-4,-5,-5,-11,-10,-6,-5,2
1526902340208518,33,8,1,-4,2,1,4,8
1526902340208518,-26,-3,-1,-1,-1,0,-1,-1
1526902340223478,8,-6,-2,-1,-3,1,-2,3
1526902340223478,-19,-23,1,8,4,-6,-3,-8
1526902340224476,15,27,-3,-5,-2,-3,-4,-5
1526902340224476,5,0,-1,-5,-3,0,1,12
1526902340246417,-2,-4,0,4,3,2,-1,-3
1526902340246417,-6,-1,-4,1,-1,-4,-2,-6
1526902340247414,-9,-53,-10,-12,-5,-2,-2,5
1526902340247414,3,44,7,-2,-1,2,1,3
1526902340269356,-6,-2,-1,6,0,-2,0,7
1526902340269356,-4,12,-4,-2,-4,-5,-15,-25
1526902340270353,6,30,22,7,0,0,2,10
1526902340270353,-1,-1,-11,-10,2,2,1,-2
1526902340283318,6,-17,0,6,4,2,2,5
1526902340283318,2,5,-1,-6,-8,-4,0,5
1526902340284316,1,-3,-6,-3,4,2,1,2
1526902340284316,-4,0,3,4,-2,-2,-8,-19
1526902340306257,-6,-14,-3,-10,-5,2,0,-2
1526902340306257,3,1,2,7,8,1,1,4
1526902340307255,-6,10,3,7,2,-1,-2,-8
1526902340307255,10,-20,-1,0,0,0,4,10
1526902340329195,-4,-3,-8,-11,-1,-1,-2,-4
1526902340329195,-7,4,3,1,1,0,-1,-3
1526902340330193,-26,3,-4,-4,0,0,3,9
1526902340330193,-5,-16,1,3,0,0,-4,-3
1526902340344155,6,9,-1,-3,-6,-3,-2,2
1526902340344155,-16,11,1,-2,2,1,0,-8
1526902340344155,22,-15,0,1,-1,1,-4,-5
1526902340344155,-6,-1,-3,2,-1,-2,-2,3
1526902340366097,-32,1,-1,-8,-5,-3,-2,0
1526902340366097,-4,-3,4,3,6,7,-1,-25
1526902340367094,15,-4,-3,3,0,-4,1,6
1526902340367094,51,-2,-4,-8,-6,-5,-5,-9
1526902340389036,-17,12,4,-2,-3,-7,4,6
1526902340389036,-21,-15,-4,-4,0,0,-4,-16
1526902340389036,-13,2,0,7,4,1,7,13
1526902340389036,74,11,1,2,-1,6,0,13
1526902340403996,-18,-7,-4,-5,-4,-8,-8,-27
1526902340403996,21,6,1,4,2,1,1,13
1526902340404993,4,-2,2,-2,-1,1,-1,1
1526902340404993,-30,-7,-3,2,0,-7,0,4
1526902340425937,7,2,1,1,1,1,-1,-15
1526902340425937,3,2,-3,-4,-4,-2,0,3
1526902340426935,10,4,-1,1,-1,0,0,1
1526902340426935,-18,-4,-3,1,-1,-3,0,2
1526902340448875,14,9,3,5,6,5,-1,-1
1526902340448875,4,-1,-4,-5,-4,-1,-2,1
1526902340449873,-2,-3,-1,0,0,-5,0,10
1526902340449873,-23,-6,-2,0,0,-2,-1,-7
1526902340463835,8,1,1,1,1,5,0,0
1526902340463835,11,0,-3,-4,-1,-3,6,17
1526902340464833,12,8,1,1,-5,0,-2,3
1526902340464833,-27,-20,-2,-7,0,4,-2,-21
1526902340485777,4,13,-8,-5,-4,-1,-1,6
1526902340485777,19,45,28,20,9,1,7,15
1526902340486774,-12,-40,-11,-5,-4,-5,-3,-1
1526902340486774,1,12,-1,-5,-2,2,2,9
1526902340508716,10,4,0,-8,-1,5,1,4
1526902340508716,-2,-15,-4,-7,-6,-4,-3,-6
1526902340509713,2,0,-3,0,7,0,4,4
1526902340509713,-12,-25,9,10,2,-3,-5,-16
1526902340523676,2,-4,-16,-15,-5,1,-1,4
1526902340523676,5,45,8,6,2,1,3,8
1526902340524673,-11,-14,-1,-6,-3,-2,-8,-34
1526902340524673,-6,-11,-8,3,0,-1,1,8
1526902340546614,-5,0,-4,-4,-4,-3,-1,0
1526902340546614,5,-17,-5,-6,-1,0,0,5
1526902340546614,-6,4,1,1,0,1,2,2
1526902340546614,14,17,0,-2,0,0,2,-1
1526902340568555,16,-1,6,10,1,-2,-4,3
1526902340568555,-10,-18,-8,-3,-2,0,0,6
1526902340569553,3,5,-4,-5,-3,-3,-1,1
1526902340569553,-31,9,6,1,-1,0,-3,-3
1526902340583515,11,-3,6,6,0,-2,-2,-16
1526902340583515,-1,-15,-8,-5,-2,-3,-3,-10
1526902340584513,4,13,1,1,-2,1,-1,3
1526902340584513,-7,-4,-5,-3,0,0,4,8
1526902340606454,-22,-11,1,1,0,-9,1,3
1526902340606454,24,-11,-3,-3,-1,6,-9,-25
1526902340607452,31,7,-1,-2,-2,-3,1,8
1526902340607452,-47,-5,-4,-4,-3,-2,0,2
1526902340628396,58,1,4,4,3,4,0,9
1526902340628396,-29,-9,-3,-4,-4,-14,1,-11
1526902340629393,12,2,-1,-1,2,1,-1,2
1526902340629393,-22,-1,5,1,0,-9,-2,-6
1526902340643355,21,1,-2,-3,-1,3,-3,-2
1526902340643355,-21,-5,-2,-2,-1,10,2,4
1526902340644353,-26,-1,-2,2,0,0,-2,-9
1526902340644353,51,3,-2,-5,-2,-3,-2,8
1526902340666294,-40,-1,1,3,2,-2,0,-10
1526902340666294,8,-4,0,-2,-1,-3,-5,10
1526902340667292,-22,0,3,1,0,0,-2,-3
1526902340667292,-6,-7,-5,0,0,2,1,-9
1526902340688236,-12,2,-3,1,-2,-2,-3,-7
1526902340688236,9,1,-1,-4,-2,0,-2,7
1526902340689233,-10,-3,-1,-4,-2,3,5,-6
1526902340689233,13,-1,-4,-2,-2,1,1,12
1526902340704193,-2,-2,4,3,1,0,2,8
1526902340704193,-20,-7,-4,-1,-1,-2,-2,-18
1526902340704193,2,-23,-7,-4,-3,-7,-5,2
1526902340704193,10,34,4,4,2,3,0,0
1526902340726134,-27,-24,-5,-5,-2,1,-6,-16
1526902340726134,-10,24,2,3,0,-1,2,17
1526902340727132,78,1,-6,-4,-3,-4,-5,-8
1526902340727132,-34,-21,-5,-3,-2,0,-6,-9
1526902340749073,-4,-1,0,0,2,-3,1,1
1526902340749073,-15,-11,-5,-1,-1,-3,0,1
1526902340749073,-2,0,-4,-2,-2,1,-1,0
1526902340749073,12,5,3,3,0,-1,-3,-6
1526902340764033,-15,1,-2,-2,-1,1,1,-1
1526902340764033,21,-9,-4,-6,-1,0,2,6
1526902340765030,-29,-14,3,13,4,-2,-4,-12
1526902340765030,9,8,10,8,0,0,1,10
1526902340785974,-2,36,-8,-25,-8,0,-2,3
1526902340785974,11,4,-1,-3,-2,0,-5,-19
1526902340786971,-11,-5,7,13,9,0,1,4
1526902340786971,0,-5,-5,8,6,-4,-3,-4
1526902340808913,12,41,4,-8,-19,-1,-2,4
1526902340808913,21,0,11,-5,-2,3,12,22
1526902340809910,-21,14,4,1,5,5,-2,-29
1526902340809910,-5,-14,-15,-7,15,-6,-9,-19
1526902340823873,-2,-25,5,34,10,2,1,9
1526902340823873,-2,-2,-10,-23,-56,-17,-12,-9
1526902340824870,1,0,-4,-22,3,19,20,20
1526902340824870,6,-6,3,0,-9,-3,-3,0
1526902340845814,-3,-6,1,3,24,0,-5,-12
1526902340845814,-6,-5,2,19,22,1,1,-2
1526902340846812,2,1,1,4,-11,-8,-6,15
1526902340846812,8,4,-4,-11,2,0,-2,-5
1526902340868753,-27,-6,-2,-4,-2,4,6,13
1526902340868753,19,-6,-2,6,3,-1,-4,-8
1526902340869750,-50,1,-9,-9,-6,-6,-3,1
1526902340869750,-1,1,1,-1,0,1,1,-9
1526902340883713,1,-11,-2,3,-5,-2,-3,-4
1526902340883713,0,-3,-3,-3,0,0,2,7
1526902340884710,27,9,0,-2,3,-2,-1,2
1526902340884710,-4,-5,1,0,-6,-2,0,-4
1526902340906651,-42,-12,-3,-5,-4,1,4,0
1526902340906651,39,9,1,5,10,1,-3,-1
1526902340906651,-4,3,-2,-1,-3,-6,-6,-1
1526902340906651,0,-7,-2,0,-6,-6,-1,2
1526902340928593,7,-4,-6,-8,-5,2,-1,-1
1526902340928593,-52,-4,-1,-1,8,3,2,-4
1526902340929590,27,7,2,3,0,-2,-6,-5
1526902340929590,11,-4,-2,-1,-6,-1,0,-3
1526902340943552,-7,-5,3,-2,0,-3,0,1
1526902340943552,33,5,0,1,4,-2,-1,5
1526902340944550,-24,1,4,2,-8,0,0,2
1526902340944550,-3,2,0,-1,6,-5,3,6
1526902340966491,1,-1,-4,0,-1,16,1,5
1526902340966491,-4,2,2,3,4,4,0,-13
1526902340967489,15,1,-2,-4,-4,-3,-5,-6
1526902340967489,-5,2,-1,-1,-2,1,2,5
1526902340988433,14,-1,2,3,0,-4,0,2
1526902340988433,-2,-1,-1,0,1,0,3,9
1526902340989430,-8,-5,-2,-4,1,-3,-6,-20
1526902340989430,-4,2,-1,-1,-5,5,4,9
1526902341003393,12,-3,-3,-3,-4,-6,-3,0
1526902341003393,-7,-3,-4,-2,0,2,-4,-3
1526902341011371,-10,-2,-1,0,-1,-3,-1,8
1526902341011371,13,1,-1,-2,-2,3,0,0
1526902341026331,5,-6,1,-1,-2,-3,-1,-3
1526902341026331,-8,-28,-1,-3,-2,-4,-2,-1
1526902341027329,6,49,2,1,2,3,-1,-3
1526902341027329,-12,-7,0,-4,-4,0,-1,-7
1526902341048272,7,-17,-1,2,3,-2,0,-3
1526902341048272,-13,9,-1,-4,-3,-2,-3,-3
1526902341049270,1,-43,-4,2,-1,-1,0,6
1526902341049270,5,45,10,3,-1,4,-1,4
1526902341063232,18,3,3,9,4,-3,2,4
1526902341063232,-46,-14,0,0,-4,-5,-10,-34
1526902341071211,5,5,-11,-16,-1,4,3,5
1526902341071211,-6,-26,-3,1,-1,-2,-2,-1
1526902341086171,14,59,2,-13,-6,-2,4,22
1526902341086171,3,-27,3,18,10,3,2,-2
1526902341087169,-8,4,1,17,10,-7,-4,-2
1526902341087169,3,-10,2,-14,-14,4,1,7
1526902341109110,-5,-19,-16,-26,-1,13,15,-7
1526902341109110,4,12,5,1,-3,-4,-3,-4
1526902341109110,-4,-13,0,7,3,-3,-2,0
1526902341109110,-1,-6,3,18,9,-1,-5,-2
1526902341123073,1,-7,-2,4,-2,-6,-4,-10
1526902341123073,0,9,-7,-13,-3,-2,-2,12
1526902341131051,-3,-9,-2,-2,-2,1,3,1
1526902341131051,-1,-8,-4,-3,-1,-3,-4,-9
1526902341146011,-6,5,-1,-2,-3,-4,-4,-7
1526902341146011,3,36,5,0,0,1,-1,-6
1526902341147009,6,-11,-1,-4,-6,0,-1,5
1526902341147009,-4,-6,-5,-6,-4,0,1,8
1526902341168950,-15,-15,1,5,1,-2,-2,-8
1526902341168950,-5,0,-6,-4,-2,-2,3,3
1526902341169948,-3,10,6,0,-5,0,-4,-15
1526902341169948,21,9,1,-2,2,0,-1,-3
1526902341182912,5,-11,0,4,0,-6,-5,5
1526902341182912,-4,3,-2,0,-2,1,4,9
1526902341190891,15,6,2,-5,-2,-1,1,0
1526902341190891,-41,-10,-2,3,2,-1,0,-8
1526902341205851,-11,0,3,6,-2,-4,-6,-12
1526902341205851,23,-1,-8,-7,-4,-1,1,12
1526902341206848,-5,-5,-3,-7,-2,-3,-2,-6
1526902341206848,-13,11,8,7,3,-8,3,8
1526902341228790,-22,0,0,3,1,12,2,-3
1526902341228790,31,3,4,2,0,-3,1,-7
1526902341229787,-4,-7,0,0,-2,3,1,13
1526902341229787,7,4,-6,-5,1,-5,-3,-8
1526902341242753,-11,0,-1,-2,-2,-6,-4,-4
1526902341242753,-10,-9,-1,0,1,2,0,5
1526902341250731,7,5,0,0,-2,-9,-2,2
1526902341250731,4,1,-2,-2,-4,15,-1,-1
1526902341266688,-5,-3,3,1,2,-1,-1,-7
1526902341266688,-7,-3,-2,-2,-5,0,-2,3
1526902341266688,-5,1,0,0,5,-3,6,10
1526902341266688,9,-1,-1,2,0,-1,1,4
1526902341288630,21,-2,-4,-2,-3,-4,-2,0
1526902341288630,-13,-2,-1,0,1,-3,-3,-9
1526902341289627,2,1,0,-1,-4,0,-2,2
1526902341289627,-37,-7,-7,-7,-1,2,1,1
1526902341302592,18,-4,0,1,1,-2,-1,-1
1526902341302592,-4,2,3,0,-1,-6,-7,-18
1526902341311568,-3,5,1,0,0,3,-1,-5
1526902341311568,7,-5,-2,-3,-1,-2,-3,-9
1526902341326528,5,-19,-3,-1,-3,-4,-2,9
1526902341326528,4,28,1,-3,-1,2,7,18
1526902341326528,2,2,4,8,2,2,-3,-15
1526902341326528,6,-11,-11,-11,-7,-6,-4,-3
1526902341348470,-6,31,3,0,0,-1,-2,-1
1526902341348470,6,-37,-5,-9,-2,1,0,-7
1526902341349467,-4,0,-6,3,2,-2,-3,4
1526902341349467,1,42,6,11,5,-2,-1,-2
1526902341363429,-8,-15,7,9,2,-1,0,-2
1526902341363429,-7,-18,-15,-21,-13,-3,0,10
1526902341371408,0,-17,-8,-14,3,8,8,-1
1526902341371408,2,-15,2,10,16,-1,1,12
1526902341386368,4,19,2,2,-13,-4,-6,-11
1526902341386368,-6,5,4,4,0,2,-3,-11
1526902341387366,-12,-19,-5,-5,-4,-4,-2,1
1526902341387366,20,-14,2,3,-2,-3,-1,3
1526902341408310,6,-5,2,12,12,3,2,1
1526902341408310,-8,22,2,-4,-4,-3,-1,2
1526902341409308,-1,-3,-2,-5,-4,1,-2,0
1526902341409308,15,7,3,-1,-4,2,4,1
1526902341432246,-9,-19,-5,-5,-3,-4,-1,1
1526902341432246,16,-11,-1,6,1,0,0,8
1526902341432246,-22,15,0,0,-2,-3,-5,-14
1526902341432246,-19,-9,-4,-4,-3,-4,-5,-16
1526902341446208,12,-13,-7,-6,-3,-3,-3,6
1526902341446208,-32,9,2,3,4,-1,0,-6
1526902341447206,16,3,0,-5,1,1,3,11
1526902341447206,12,-1,1,-3,-4,-1,1,-2
1526902341469147,-8,7,-5,-10,-4,-3,-2,0
1526902341469147,-6,0,0,5,4,-1,3,6
1526902341469147,7,-5,-1,2,-2,-4,-2,-4
1526902341469147,-17,1,-1,-1,-4,0,-3,-8
1526902341491088,58,6,-5,-7,1,1,0,10
1526902341491088,-7,-3,-3,-2,1,0,1,7
1526902341492086,-6,3,3,0,-3,-4,1,1
1526902341492086,-42,-5,-4,-3,-3,1,-2,-10
1526902341506048,-26,-4,1,-1,-1,-2,1,-1
1526902341506048,90,1,-2,0,1,-20,-3,3
1526902341507046,6,4,-2,-2,-8,7,1,1
1526902341507046,5,0,2,-2,3,1,-2,-11
1526902341528987,-31,-5,-1,0,1,3,-3,-3
1526902341528987,-38,-5,2,3,2,2,0,-19
1526902341529985,16,2,0,1,-3,-6,-1,10
1526902341529985,14,0,-1,0,-1,-2,-2,-4
1526902341550928,-11,4,1,-2,1,2,1,-5
1526902341550928,-19,-9,-4,-2,1,1,-2,6
1526902341551926,5,2,0,1,0,-3,-5,-3
1526902341551926,-6,-4,-4,-5,-4,3,-2,-4
1526902341565888,0,4,-1,-1,-1,-2,0,5
1526902341565888,-15,-19,-5,-3,-3,3,-1,-3
1526902341566886,5,27,4,3,2,1,0,-4
1526902341566886,-2,-19,0,1,0,-2,0,8
1526902341588827,3,5,-2,-1,-2,-1,0,-4
1526902341588827,2,-16,-2,-4,-2,3,1,9
1526902341589825,-8,16,3,2,2,2,2,-4
1526902341589825,9,-20,0,-1,-3,-2,-2,3
1526902341610768,6,26,1,5,-1,-5,-9,-10
1526902341610768,-7,-42,-1,6,2,2,1,1
1526902341611765,7,43,2,-9,-2,-2,0,6
1526902341611765,9,-6,-1,-6,-1,2,3,10
1526902341625728,-17,15,1,10,5,0,0,-13
1526902341625728,1,-5,0,-2,-4,0,-3,0
1526902341626726,7,-27,-7,-7,0,3,4,11
1526902341626726,-14,12,1,10,2,-2,0,-10
1526902341648667,6,-1,-5,-5,-4,-3,0,2
1526902341648667,8,20,3,-17,-8,0,-1,-1
1526902341649664,-8,-22,-5,8,3,-3,-5,-3
1526902341649664,-5,10,-4,-10,-5,-2,-2,-4
1526902341671606,3,-28,-5,-2,3,5,7,9
1526902341671606,-7,8,-1,8,1,-5,-4,-9
1526902341671606,-4,-2,3,-4,-5,-2,-5,-8
1526902341671606,9,9,-8,-9,0,1,2,12
1526902341686565,0,2,8,2,-2,-4,-4,-5
1526902341686565,5,-2,-4,1,1,0,-3,1
1526902341686565,-2,7,1,6,2,0,-2,-2
1526902341686565,-13,-6,0,3,2,-4,-2,-10
1526902341708507,3,-39,-5,-6,-2,-1,0,2
1526902341708507,11,64,7,1,2,3,2,2
1526902341709504,-13,-21,-5,1,0,-2,-3,-3
1526902341709504,7,4,1,-2,-1,-1,-1,3
1526902341731446,1,-16,-5,-7,-2,-1,-3,-3
1526902341731446,-7,-3,-4,3,-1,0,-2,-10
1526902341732443,6,-7,-1,2,0,-3,-3,-3
1526902341732443,-14,8,1,-2,-1,1,-1,4
1526902341746405,11,7,1,0,-1,0,1,4
1526902341746405,-6,-5,-1,1,-1,-2,-2,-7
1526902341747403,0,-3,-1,-5,0,-2,1,-4
1526902341747403,11,-4,-2,-3,-2,-6,-1,1
1526902341768347,3,3,0,2,1,6,7,17
1526902341768347,-19,-7,-2,0,-1,0,-6,-27
1526902341769345,-3,-7,-1,0,-2,-1,-2,-2
1526902341769345,28,-2,-1,0,1,-4,-1,8
1526902341791285,-34,3,-1,-2,-1,-3,-1,-8
1526902341791285,55,6,-1,-5,0,0,-2,7
1526902341792283,-13,-5,0,0,-2,-5,-3,-5
1526902341792283,-4,-1,1,4,5,4,1,-4
1526902341806245,-14,7,-4,-4,-3,-13,-3,-2
1526902341806245,-10,-10,-3,-1,-1,10,2,4
1526902341807243,-4,-9,-3,-2,0,-3,1,-5
1526902341807243,-17,2,0,0,-3,-1,-4,-10
1526902341829184,5,1,-1,-5,-2,-1,0,8
1526902341829184,-15,-5,-1,3,2,-5,-4,-17
1526902341829184,13,2,1,0,-1,0,0,4
1526902341829184,-15,1,0,-1,-3,3,2,5
1526902341851125,8,4,0,0,0,-1,0,-1
1526902341851125,12,-4,-5,0,-2,-1,6,19
1526902341852123,3,5,0,-1,0,1,-6,-15
1526902341852123,-18,-4,0,-1,-2,-2,-1,-5
1526902341866086,1,-10,-2,0,1,1,0,-8
1526902341866086,18,29,8,0,1,2,-1,9
1526902341867083,-12,-22,-3,-2,-4,-1,0,-6
1526902341867083,10,12,-1,1,-3,-1,0,9
1526902341889024,18,-3,1,2,0,0,0,6
1526902341889024,-33,1,-2,1,-1,-4,-4,-17
1526902341889024,-1,7,2,0,2,1,3,13
1526902341889024,5,-16,-6,-5,-4,-4,-5,-9
1526902341910965,5,-19,-6,-1,-2,2,2,7
1526902341910965,-6,27,3,-10,-8,-4,-3,-5
1526902341911963,-10,-8,-7,-7,0,0,-3,-9
1526902341911963,12,-9,-3,-4,-4,-1,0,8
1526902341925925,-2,27,9,5,4,3,0,-9
1526902341925925,-6,-35,-1,7,4,-2,-3,0
1526902341926923,-5,1,-6,0,-2,-2,-2,-5
1526902341926923,-1,-1,6,5,2,-1,-1,-11
1526902341948864,-9,-10,-10,-14,-7,-3,-9,-16
1526902341948864,-1,-11,-8,-12,-5,2,5,10
1526902341949862,-5,0,-1,-1,0,-1,-2,-2
1526902341949862,-3,-14,-3,4,4,-1,-1,5
1526902341970806,1,9,1,3,-3,-5,-3,-6
1526902341970806,0,-5,1,-3,1,0,4,4
1526902341971803,5,-5,1,1,-1,0,-1,-3
1526902341971803,7,15,3,3,-1,2,2,5
1526902341985765,-5,1,3,4,0,0,-2,-7
1526902341985765,5,3,-5,-1,-1,-4,-1,6
1526902341986763,-8,-3,1,1,-2,-10,3,7
1526902341986763,-6,5,1,0,2,9,-2,-14
1526902342008704,11,0,-2,-5,-1,-1,-1,12
1526902342008704,-11,-13,0,4,3,1,2,-12
1526902342009701,39,3,1,3,1,1,-2,3
1526902342009701,-48,3,-5,-6,-6,-7,0,13
1526902342031643,-32,-8,0,-1,-1,1,4,7
1526902342031643,52,6,0,2,-2,-2,-2,8
1526902342031643,-19,0,2,1,1,0,-2,-3
1526902342031643,68,4,2,-2,1,1,7,14
1526902342046603,-48,-4,-3,-4,-2,-12,-2,-8
1526902342046603,-34,-5,-4,1,-2,7,-5,-7
1526902342046603,-22,1,2,2,1,-9,6,11
1526902342046603,27,-2,-1,-2,3,5,-1,-20
1526902342068544,-20,8,-3,-3,-8,-12,-6,0
1526902342068544,65,2,-2,0,5,3,2,9
1526902342069542,-20,-7,-5,-4,-3,-3,-3,-11
1526902342069542,-23,0,0,-1,0,2,4,9
1526902342091483,5,-3,1,1,0,2,-3,-18
1526902342091483,-22,-2,-1,0,-2,-6,-2,-1
1526902342092480,20,1,-1,-2,-2,6,-1,5
1526902342092480,7,6,2,1,0,-5,-1,2
1526902342105445,19,0,0,0,2,7,-2,-4
1526902342105445,-17,0,2,1,1,-2,0,-4
1526902342113424,3,4,0,-2,-1,0,-2,-1
1526902342113424,-4,-1,-1,0,-1,-1,-2,1
1526902342128384,14,-9,-1,-1,1,0,0,2
1526902342128384,0,21,2,1,0,-1,-1,11
1526902342129381,-13,-12,-6,-2,-2,0,-3,-12
1526902342129381,3,0,0,-1,-2,-3,-5,0
1526902342151323,14,5,-3,1,1,4,2,4
1526902342151323,-18,1,9,7,2,1,1,-3
1526902342152320,1,1,-3,-11,-6,3,-1,-4
1526902342152320,-1,6,-9,-10,-5,-3,1,11
1526902342165285,6,-4,6,8,4,2,1,-5
1526902342165285,0,-17,-2,4,0,-1,0,0
1526902342174261,-6,12,3,11,3,-2,-2,-11
1526902342174261,4,-12,1,-7,-5,-3,-2,1
1526902342188224,-8,14,-3,-8,3,5,7,1
1526902342188224,-8,-16,-5,0,0,-2,0,-3
1526902342189221,8,2,-1,-2,-7,-2,-1,7
1526902342189221,-1,-3,-2,-6,0,2,0,-3
1526902342211162,11,-14,-4,-3,0,1,-4,-11
1526902342211162,-11,16,4,5,1,0,0,3
1526902342212160,-3,-18,-1,7,4,-1,2,3
1526902342212160,-4,12,-1,-1,-5,-4,-5,-1
1526902342225125,16,-7,3,-6,0,3,4,12
1526902342225125,-11,1,-5,-3,-2,-3,-3,-10
1526902342234101,-9,16,0,-1,0,1,3,-3
1526902342234101,-1,-12,-4,2,0,-4,-5,-6
1526902342249061,-2,-3,1,1,-2,-1,-2,2
1526902342249061,6,3,0,0,0,-3,-2,7
1526902342249061,3,-5,0,3,1,1,1,7
1526902342249061,-2,-1,4,-3,-1,-6,-1,0
1526902342271003,4,0,-2,-1,3,7,3,1
1526902342271003,0,8,2,-1,-2,-2,-1,-3
1526902342272000,-1,-5,-1,0,1,2,-3,-5
1526902342272000,-1,2,-1,4,2,-1,0,-4
1526902342285963,0,-2,-3,3,-2,-3,-4,-4
1526902342285963,0,-6,-4,-4,-5,0,2,4
1526902342293941,-23,-4,-2,-5,0,-4,-7,-22
1526902342293941,-16,-2,-2,-1,-1,1,-1,-1
1526902342308901,9,14,4,4,-1,0,-1,4
1526902342308901,1,-11,-6,-6,-3,-2,-1,5
1526902342309899,11,0,0,-1,-2,-3,-1,4
1526902342309899,-16,-10,-1,1,0,-3,-1,0
1526902342330842,27,3,-3,-3,-4,7,-4,-4
1526902342330842,10,3,-1,-3,-1,-10,0,3
1526902342331840,15,0,-3,-2,-4,11,-1,6
1526902342331840,-27,0,-1,1,0,0,-2,-18
1526902342345802,14,4,0,1,1,-5,-3,4
1526902342345802,-63,-13,0,-2,-1,4,-2,-12
1526902342353781,22,2,0,-2,1,-4,4,9
1526902342353781,8,2,0,0,-8,-6,-5,-7
1526902342368741,-15,4,0,2,-1,10,2,-6
1526902342368741,-6,-8,-4,-6,-2,-1,2,0
1526902342369739,-4,1,1,-2,-1,-3,0,8
1526902342369739,3,2,-1,-1,-1,1,0,3
1526902342391680,-10,-2,-2,-2,-1,-10,1,9
1526902342391680,25,-1,-1,-1,1,2,-4,-6
1526902342391680,-3,1,1,0,-1,-1,1,7
1526902342391680,10,-2,-1,2,3,0,0,-3
1526902342405642,4,-3,2,3,1,-2,0,13
1526902342405642,-7,3,-2,-4,-3,0,0,-9
1526902342413621,3,0,-5,-4,1,2,0,-11
1526902342413621,1,1,-1,-1,-2,3,3,10
1526902342428581,-13,-8,0,-2,-3,-5,-3,-12
1526902342428581,18,1,0,4,1,2,2,10
1526902342429579,-11,-1,0,0,-1,-2,0,6
1526902342429579,7,10,0,2,2,2,0,-7
1526902342451520,-11,2,-3,-5,-4,-2,-3,1
1526902342451520,5,-5,1,5,4,-1,-3,-3
1526902342452517,-5,-1,6,8,1,-1,1,3
1526902342452517,5,1,-3,-13,1,4,2,-3
1526902342474458,0,-10,-4,-1,2,-4,-3,-5
1526902342474458,1,9,2,-1,-5,-5,-4,0
1526902342475456,-14,3,-2,3,3,4,-3,-12
1526902342475456,9,22,5,2,-2,0,-2,0
1526902342488421,-10,-8,-1,-4,-5,-4,-4,-8
1526902342488421,5,-9,-2,1,2,1,-1,-1
1526902342489419,-3,-39,-4,-3,-4,-2,-1,3
1526902342489419,8,10,-2,-3,2,1,3,2
1526902342511360,-5,-4,-3,-2,-2,-2,-1,-2
1526902342511360,4,25,4,6,1,-1,0,0
1526902342512357,0,-10,1,-2,-2,-2,-3,-2
1526902342512357,-13,-19,-4,4,0,-2,-4,-1
1526902342534298,2,11,-1,3,-1,-1,0,5
1526902342534298,-11,-10,-1,-2,-5,-4,-6,-18
1526902342535296,12,24,-2,-9,0,3,3,3
1526902342535296,-6,-3,1,1,1,-1,0,-4
1526902342548261,-6,0,3,4,-1,-3,-4,-8
1526902342548261,7,-7,-3,-4,-2,1,-1,10
1526902342549259,-2,6,-4,-5,-3,-2,-1,-8
1526902342549259,-3,-14,-1,2,0,-3,-3,5
1526902342571200,-14,5,-1,-1,1,-2,0,-1
1526902342571200,3,2,-1,-4,-3,-2,0,0
1526902342572197,12,4,-1,1,1,-9,0,3
1526902342572197,-8,-6,-3,1,-2,11,-2,-5
1526902342594139,-7,0,0,0,-2,1,1,0
1526902342594139,17,-2,-2,-3,-3,-2,2,14
1526902342595136,-45,1,2,1,-2,-2,-1,-19
1526902342595136,14,-4,1,-1,0,-4,0,5
1526902342609099,12,4,0,-2,-1,0,-1,3
1526902342609099,-4,-6,0,-1,-1,2,-2,-9
1526902342609099,27,-1,-3,-1,0,1,0,9
1526902342609099,-68,-6,-2,0,-2,-4,0,10
1526902342631040,38,-4,-5,-1,-3,-1,-7,-8
1526902342631040,21,1,0,-1,-2,-7,-1,4
1526902342632037,15,2,1,-1,-4,5,-1,9
1526902342632037,0,4,3,3,3,13,0,-10
1526902342653978,-31,-4,-2,-1,0,-5,-2,-17
1526902342653978,-8,-5,-4,-5,-2,1,0,0
1526902342654976,2,0,-2,-3,-1,-5,-4,1
1526902342654976,10,2,3,3,2,-5,3,6
1526902342668938,-1,-1,-1,-1,-2,2,1,-3
1526902342668938,8,1,-3,-1,0,1,-1,-1
1526902342669936,-4,-2,1,-1,0,-2,-2,-6
1526902342669936,6,-8,-3,-1,0,-4,-1,6
1526902342690880,5,7,2,1,1,1,3,6
1526902342690880,-22,1,2,0,3,0,0,-6
1526902342691877,7,-21,-5,-4,-2,-1,-1,-2
1526902342691877,-1,23,2,0,-2,-3,1,5
1526902342713818,25,11,3,2,0,-3,-1,6
1526902342713818,7,-11,-3,-2,-2,1,0,1
1526902342714816,-25,10,4,3,2,-1,-3,-8
1526902342714816,10,-13,-2,-1,-2,-5,0,-2
1526902342728778,-15,-9,-9,-10,-3,1,0,-3
1526902342728778,-1,-1,4,6,3,1,0,2
1526902342729776,7,4,0,-3,-5,-5,-3,-1
1526902342729776,-9,15,-7,-2,-1,-6,-3,-16
1526902342751717,-2,-12,0,-6,-5,-2,1,13
1526902342751717,-7,-9,-12,-15,-5,2,0,-2
1526902342751717,-2,3,1,12,5,2,2,-2
1526902342751717,7,-57,-12,-16,-14,-8,-7,0
1526902342773658,0,80,7,-2,2,2,2,-3
1526902342773658,-1,3,10,9,1,-1,0,0
1526902342774656,-5,-14,-5,-3,-1,-2,-1,4
1526902342774656,9,3,2,8,4,0,-2,-2
1526902342788618,-9,-56,-11,-4,-5,-5,0,-2
1526902342788618,-9,6,-2,-6,-2,1,-2,-10
1526902342789616,11,19,2,0,-1,1,1,12
1526902342789616,-5,-7,1,-3,1,-1,1,-11
1526902342811557,-3,-13,1,3,1,-2,-4,-4
1526902342811557,-5,9,4,7,0,0,-1,-2
1526902342811557,-2,-10,-8,-10,-4,-1,3,3
1526902342811557,7,10,-2,-3,-2,1,-1,3
1526902342833498,-2,0,4,4,3,-1,1,-3
1526902342833498,-2,-5,-5,0,0,-4,0,5
1526902342834496,0,1,1,0,-1,1,-1,0
1526902342834496,4,-2,5,2,1,2,2,1
1526902342848458,-3,13,-1,-2,-3,-2,-4,-5
1526902342848458,1,-23,-3,1,-1,-1,-5,-6
1526902342849456,1,11,0,-2,-3,-2,-2,-1
1526902342849456,15,7,0,-1,2,2,-3,-1
1526902342871397,-20,-12,-1,2,-1,1,2,6
1526902342871397,6,3,0,-1,0,0,1,5
1526902342872394,-17,1,0,-1,1,0,-7,-39
1526902342872394,-17,-2,-2,-1,-3,-7,-6,-3
1526902342893338,29,-2,-1,3,0,-2,3,14
1526902342893338,-5,2,-3,-5,-5,-1,1,18
1526902342894336,-18,-4,5,5,1,0,0,-15
1526902342894336,6,6,1,2,1,1,0,-3
1526902342908298,-38,-12,-1,-1,1,1,-1,2
1526902342908298,61,9,-2,-1,-1,-1,0,3
1526902342909296,32,-4,-2,-2,1,-2,2,18
1526902342909296,-24,-1,0,1,0,-2,-3,-6
1526902342931237,-24,-6,-2,0,0,2,-5,-9
1526902342931237,-1,3,1,2,-2,-1,1,0
1526902342932235,2,-6,-4,-5,-3,0,-3,3
1526902342932235,7,2,1,-1,1,1,2,4
1526902342954175,5,-1,-3,-1,-1,-8,-2,-8
1526902342954175,-18,-2,0,-2,0,11,0,-6
1526902342954175,6,-13,-4,-4,-2,-2,-2,5
1526902342954175,4,35,4,1,-1,-2,-2,-1
1526902342968138,4,-13,1,-1,-2,-1,-1,5
1526902342968138,-15,-16,-3,0,-1,-5,-2,-10
1526902342976117,-6,22,0,1,-1,-1,0,3
1526902342976117,5,-1,5,3,-1,5,5,12
1526902342991077,25,11,3,2,0,-1,-1,1
1526902342991077,-11,-9,-2,1,-1,-5,-5,-8
1526902342992074,-10,4,-7,-2,-2,0,3,10
1526902342992074,0,14,-3,-11,-8,-6,-3,-8
1526902343014016,5,0,1,0,2,2,1,-7
1526902343014016,-5,-3,3,5,1,-1,-2,-1
1526902343015013,-3,3,-2,-7,-2,-1,-1,1
1526902343015013,6,-14,-3,4,3,-2,-2,6
1526902343028975,0,8,3,10,1,0,-1,-1
1526902343028975,-6,2,0,-2,1,1,-1,-6
1526902343029973,0,-12,-6,-16,-11,-5,-6,-14
1526902343029973,-3,-11,-1,1,-1,0,0,-1
1526902343050917,8,19,-3,-12,-4,-1,-3,1
1526902343050917,7,-2,3,1,4,3,5,9
1526902343051914,-8,-6,2,8,3,-1,-2,-6
1526902343051914,-11,-7,-3,3,1,-1,-5,-23
1526902343073855,4,-16,-6,3,-1,-2,1,9
1526902343073855,-4,7,-1,-5,-4,-3,-3,1
1526902343074853,2,0,1,-1,1,5,3,-1
1526902343074853,8,-11,-1,1,0,0,1,7
1526902343087818,1,0,1,0,0,0,1,0
1526902343087818,-9,3,-3,-4,-3,-3,1,1
1526902343095797,2,-7,1,2,2,1,2,6
1526902343095797,15,-1,-2,0,0,-1,-2,-5
1526902343110757,-36,0,-1,-6,-3,-4,-3,-8
1526902343110757,15,6,0,-1,-1,-1,-3,4
1526902343111754,-13,-6,0,4,1,-2,-6,-18
1526902343111754,10,3,-1,-2,-1,0,1,12
1526902343133695,-4,-1,-2,-3,0,3,5,-2
1526902343133695,34,-2,-1,-1,-1,-4,0,12
1526902343134693,-24,-2,0,2,-1,0,-2,-15
1526902343134693,-8,1,-1,-3,3,1,0,2
1526902343156634,-11,-6,0,-1,1,3,-2,-8
1526902343156634,1,-1,-1,3,1,-5,-1,3
1526902343157631,45,10,2,2,-1,0,2,12
1526902343157631,19,0,-3,-7,-5,-13,0,7
1526902343171594,-6,-2,4,5,3,-10,-2,-4
1526902343171594,-3,4,-3,0,1,15,-1,-6
1526902343171594,2,0,1,-1,-2,-2,2,8
1526902343171594,-4,-1,0,-2,-1,2,-1,5
1526902343193535,19,-1,-3,-3,-4,-2,0,4
1526902343193535,-37,-4,-3,-4,-3,-4,-5,-17
1526902343194533,9,-2,-3,-2,1,1,1,9
1526902343194533,-5,4,3,7,1,3,0,-8
1526902343208495,8,0,-1,-1,-3,0,0,7
1526902343208495,-5,1,-1,0,-2,1,-1,-5
1526902343216474,-15,-12,-2,0,0,-1,0,4
1526902343216474,-1,2,-1,-1,-2,-2,-2,-3
1526902343231434,1,-2,-2,-3,-3,2,0,-2
1526902343231434,-5,-9,4,1,-1,-4,-3,-4
1526902343232432,-9,35,5,3,0,-2,2,3
1526902343232432,8,-15,-4,-2,-2,0,1,4
1526902343253375,11,-16,-3,-3,0,1,0,1
1526902343253375,-11,10,-2,-1,-2,-5,-1,-6
1526902343254373,-7,-6,5,1,0,1,0,-2
1526902343254373,-6,3,0,-3,1,3,2,-2
1526902343268335,2,-27,-5,-2,0,1,-1,-2
1526902343268335,13,47,0,-2,-4,-6,-3,10
1526902343276314,-10,-4,4,4,2,1,0,-18
1526902343276314,-8,5,-6,-4,-4,-1,-5,-8
1526902343291274,9,-1,0,-5,-5,-2,-3,-1
1526902343291274,-6,-8,-3,0,3,5,8,10
1526902343292272,8,-8,-1,-5,-8,-3,-6,0
1526902343292272,-4,-1,-1,-1,2,3,3,1
1526902343314213,0,10,3,3,0,-1,-1,-4
1526902343314213,-2,-22,-4,0,0,-4,-7,-6
1526902343314213,-3,12,2,7,0,-3,-3,-1
1526902343314213,-4,-25,-3,-12,-4,0,1,1
1526902343328175,2,35,-1,-2,-1,1,5,12
1526902343328175,1,2,2,2,1,0,-2,-13
1526902343336154,-1,-25,-7,-2,0,-1,0,2
1526902343336154,0,1,2,3,1,-3,-3,2
1526902343351114,9,10,2,4,-2,1,1,5
1526902343351114,-2,5,-1,-5,0,3,2,4
1526902343352111,-7,-9,-7,-7,-5,-4,-4,-9
1526902343352111,2,1,-1,0,-3,1,1,4
1526902343374052,-5,-12,-1,2,1,0,-4,-10
1526902343374052,-6,-7,-3,0,-1,-2,-3,-3
1526902343374052,26,0,-1,-1,0,0,0,2
1526902343374052,-26,7,0,4,1,-8,-1,-8
1526902343388015,8,-5,-5,-5,-1,12,-1,5
1526902343388015,-19,-7,-4,-2,-2,-2,-2,-14
1526902343395994,33,3,-3,-2,-1,1,4,12
1526902343395994,-19,-5,-1,2,-1,0,-3,-7
1526902343410954,-9,2,1,0,-2,-3,2,2
1526902343410954,3,-10,-2,-3,-3,-1,-4,-9
1526902343411952,-22,1,0,0,0,1,2,4
1526902343411952,-23,-1,-1,0,-1,-1,0,-2
1526902343433893,22,7,1,1,1,-2,-3,3
1526902343433893,9,-7,-2,-5,-3,-3,-4,-10
1526902343434890,7,0,-2,-2,-1,-5,-4,-5
1526902343434890,-8,1,-1,0,-3,0,2,3
1526902343456831,-23,-5,0,-2,-1,-6,-3,-13
1526902343456831,6,-2,-2,1,-2,2,3,8
1526902343457829,8,0,-1,-1,-1,-1,0,6
1526902343457829,4,4,-1,1,-1,3,-1,-2
1526902343470794,8,-2,2,2,0,-4,0,-3
1526902343470794,4,1,2,2,1,-2,1,4
1526902343471791,-22,-4,-1,-4,-2,0,-1,-5
1526902343471791,16,-2,1,-2,1,-1,1,6
1526902343493733,-2,-8,-5,-1,-1,-2,1,5
1526902343493733,-7,-7,-1,-1,-1,-2,-2,-14
1526902343494730,3,20,1,0,1,3,0,6
1526902343494730,10,6,-2,1,-1,-1,-2,-5
1526902343516671,-4,3,1,-2,-1,2,1,-6
1526902343516671,-7,-12,0,-3,-1,2,2,6
1526902343517669,-3,-11,-1,1,1,-1,-1,1
1526902343517669,11,2,0,1,0,1,1,0
1526902343531631,-1,0,-1,-1,-3,-2,-2,2
1526902343531631,-2,1,-1,2,1,-1,-1,-13
1526902343531631,-10,-18,-2,4,0,-3,-1,-7
1526902343531631,7,31,5,2,-2,-3,-2,0
1526902343553572,-2,-8,2,-4,0,0,0,6
1526902343553572,-5,-3,-8,-13,-6,1,-1,-3
1526902343554570,6,-2,-2,-1,0,2,1,4
1526902343554570,-4,-14,5,15,5,-1,-1,-2
1526902343576511,-1,-36,-5,-2,-4,-4,-5,-6
1526902343576511,4,78,5,-15,-6,-2,-3,6
1526902343577508,-4,-19,-1,-3,1,2,2,2
1526902343577508,1,-12,-4,-1,-3,0,0,2
1526902343591471,-6,-7,-3,5,1,-3,-2,-2
1526902343591471,-4,-25,-3,5,-1,-5,-2,2
1526902343592469,-3,6,-4,-6,-6,1,0,-2
1526902343592469,-3,1,-1,-3,-1,0,-4,-13
1526902343613413,-3,-2,-2,-1,-1,-2,-4,-7
1526902343613413,1,-7,-5,0,-1,-3,-2,0
1526902343614410,-3,3,2,0,1,-2,1,0
1526902343614410,3,0,0,-4,-1,-3,-5,-16
1526902343637349,-5,3,-3,-2,-1,-1,-1,5
1526902343637349,-15,-2,4,4,1,0,2,3
1526902343637349,9,3,3,4,0,1,0,11
1526902343637349,1,-5,-3,-6,-2,-4,1,6
1526902343651311,8,14,4,-1,0,7,1,1
1526902343651311,-5,-8,2,4,2,1,3,8
1526902343652309,32,2,-3,-1,-1,-1,-1,-7
1526902343652309,-70,-5,-3,-4,-2,-1,-3,-10
1526902343673252,-8,9,4,1,1,-3,2,2
1526902343673252,53,-4,-1,2,0,1,1,10
1526902343674250,-57,-4,-1,-2,-1,0,-5,-19
1526902343674250,64,9,-2,-3,-1,-3,1,7
1526902343697188,-38,-5,-4,-3,-2,-1,0,-2
1526902343697188,49,0,1,5,2,2,-1,0
1526902343698186,-42,-3,-3,-2,-4,-5,-7,-14
1526902343698186,13,-2,1,-1,0,5,-3,1
1526902343711151,7,3,-2,1,-2,-12,-2,-4
1526902343711151,-5,-5,-2,-3,-3,8,-3,0
1526902343719130,0,7,1,1,1,0,1,1
1526902343719130,9,-5,-2,-1,-2,-4,1,4
1526902343734090,-4,0,-4,-4,-2,1,0,-1
1526902343734090,-6,0,3,3,1,-4,-3,-7
1526902343734090,13,5,1,1,-1,-4,0,6
1526902343734090,-22,-6,-4,-4,-2,1,1,-1
1526902343756031,20,3,2,3,2,-1,-1,-1
1526902343756031,-25,-11,0,0,-2,-4,0,-2
1526902343757029,21,17,0,-1,-2,1,4,22
1526902343757029,-11,-12,-1,-1,-3,0,1,-20
1526902343770991,2,10,2,-2,0,2,-2,-8
1526902343770991,-12,-27,-2,0,-1,-3,-3,-1
1526902343771989,9,12,-1,1,0,1,-1,4
1526902343771989,8,3,0,-2,-3,-2,1,12
1526902343793930,8,-14,-6,-2,-1,-1,2,-3
1526902343793930,-17,4,-2,-2,-1,-1,-2,-11
1526902343794927,14,-16,-5,-6,0,-2,0,3
1526902343794927,-4,-8,-1,4,0,-1,-2,2
1526902343815871,-5,16,8,3,0,2,-3,-14
1526902343815871,-6,-7,-3,-3,-1,-3,2,9
1526902343816869,9,14,2,8,3,1,4,7
1526902343816869,-18,-35,-7,-7,-12,-9,-13,-23
1526902343830831,8,21,-5,-13,-3,0,0,21
1526902343830831,-6,0,-1,1,5,2,5,0
1526902343831829,4,18,12,5,-6,-4,-2,3
1526902343831829,5,-5,-7,-12,2,2,3,6
1526902343853770,1,-31,-5,11,3,-3,-1,4
1526902343853770,-6,42,-3,-16,-12,-7,-3,-2
1526902343854767,-2,-19,-1,-6,2,6,1,-12
1526902343854767,7,6,8,13,7,0,2,14
1526902343876708,-16,-5,-6,-10,-6,-1,-1,-23
1526902343876708,2,-20,-7,-1,0,3,0,-2
1526902343876708,-5,-11,-5,1,-4,-3,0,-2
1526902343876708,4,18,0,-3,-4,-1,-1,3
1526902343891668,5,-14,6,11,6,-1,2,11
1526902343891668,-5,-4,2,4,-1,-4,-4,5
1526902343891668,-8,8,-7,-16,-4,3,-3,-17
1526902343891668,4,-7,-1,0,1,2,3,7
1526902343913610,6,2,0,0,-2,-1,-2,2
1526902343913610,-6,4,2,4,0,-2,-2,-1
1526902343914607,-1,-16,-5,-2,-3,-6,-6,-2
1526902343914607,-16,12,4,1,1,1,1,5
1526902343936548,-11,-5,0,-2,-3,-1,0,-8
1526902343936548,27,25,1,2,0,1,-2,-7
1526902343937546,-13,-19,-6,0,1,-1,0,1
1526902343937546,12,2,-3,-2,-2,-1,1,5
1526902343951508,-11,5,-1,-3,-4,-11,-2,-4
1526902343951508,44,-10,0,0,1,9,0,-4
1526902343952506,-7,0,-2,0,-1,-4,-1,2
1526902343952506,24,6,-2,-4,-1,1,-2,-1
1526902343973449,11,3,-2,-2,0,-7,1,5
1526902343973449,-37,-11,2,0,3,-4,7,1
1526902343974447,28,1,-5,-3,-7,4,-3,6
1526902343974447,5,4,3,2,0,-3,0,6
1526902343996388,-10,1,1,5,-4,8,-2,-11
1526902343996388,-8,-2,1,-1,4,-7,-2,-3
1526902343997386,-19,0,-1,-1,-1,-4,-3,-10
1526902343997386,6,-1,-3,-1,0,3,1,2
1526902344011348,10,4,-2,-1,0,-6,-5,5
1526902344011348,-18,-6,-1,1,-3,-1,-2,-6
1526902344012346,6,-2,2,-1,0,-4,-1,6
1526902344012346,7,-2,0,-1,1,-1,-2,-9
1526902344033290,-47,-1,-1,0,1,4,-1,-11
1526902344033290,-8,-5,-3,-3,-4,-3,-4,-3
1526902344034287,4,0,2,3,7,2,1,2
1526902344034287,-2,-14,2,2,0,-4,-1,0
1526902344056228,6,11,-9,-11,-3,8,3,7
1526902344056228,-5,5,-4,-3,-3,0,-1,-2
1526902344057226,-4,-12,5,4,0,0,3,-12
1526902344057226,-17,14,-5,-2,-1,-1,-7,-12
1526902344070191,11,-12,-1,1,1,-1,-1,4
1526902344070191,-4,-18,-3,-1,-1,-2,-1,4
1526902344079167,9,-8,-6,-1,-1,0,2,8
1526902344079167,-14,14,2,4,0,-1,0,-7
1526902344094127,8,-19,4,3,1,0,-1,1
1526902344094127,5,21,-6,-15,-8,-3,0,-1
1526902344094127,-10,-9,0,3,3,0,0,-2
1526902344094127,-5,-23,-2,-1,-9,-1,0,0
1526902344116068,9,29,3,4,2,-1,-1,0
1526902344116068,5,-14,8,12,4,2,2,4
1526902344117066,-5,5,-8,-15,-5,-2,-1,0
1526902344117066,-5,-6,-8,-12,-3,0,-1,-3
1526902344131028,23,6,2,-3,-3,0,4,11
1526902344131028,-3,-1,7,11,4,4,-1,-12
1526902344139007,-4,6,1,4,1,-5,-3,2
1526902344139007,1,0,1,1,1,4,2,10
1526902344153967,0,-6,-2,0,-2,-2,-4,-8
1526902344153967,-7,-16,-2,2,2,-2,-4,-3
1526902344154964,-1,8,-7,-19,-8,1,-4,-11
1526902344154964,8,11,3,-1,2,-3,1,8
1526902344175908,-7,-3,0,-3,-2,0,1,-15
1526902344175908,4,-12,-6,2,0,1,-1,2
1526902344176906,2,10,7,11,1,-5,0,5
1526902344176906,-8,-7,0,-3,0,-2,-1,-1
1526902344190868,-2,-1,-8,-10,-4,1,1,-1
1526902344190868,-6,-3,-2,0,-2,-3,-4,5
1526902344198847,1,-6,-2,0,-2,0,-2,-8
1526902344198847,5,8,0,-2,0,-1,1,2
1526902344213807,4,4,0,5,4,2,3,11
1526902344213807,-6,-3,-4,-5,-3,-3,-2,-12
1526902344214804,-11,2,-2,0,1,1,0,4
1526902344214804,6,4,2,4,3,2,0,-3
1526902344235748,10,-10,-2,-2,-3,-5,-6,-4
1526902344235748,8,6,-1,-5,-1,-9,0,9
1526902344236745,30,1,1,1,0,11,-3,-5
1526902344236745,-33,-10,0,2,0,-3,1,2
1526902344250708,-6,-4,-2,-5,-3,-2,0,0
1526902344250708,-17,9,1,-3,1,-2,1,6
1526902344258687,3,1,2,2,-2,-3,1,9
1526902344258687,-5,-8,-2,1,-1,-2,-5,-20
1526902344273647,-8,5,1,1,7,2,-3,8
1526902344273647,19,6,-1,-3,-1,3,1,0
1526902344274644,-1,-8,-5,-2,-3,-6,-2,3
1526902344274644,-6,4,3,2,2,0,1,0
1526902344296585,2,0,-3,1,-2,-3,-2,-4
1526902344296585,-1,2,0,1,-5,2,1,4
1526902344297583,-4,-4,0,0,2,-1,-2,-6
1526902344297583,5,4,0,-2,-2,-1,0,-2
1526902344310548,-3,2,0,0,-3,-1,0,0
1526902344310548,10,-4,-2,-1,-2,1,-1,1
1526902344318527,-5,-16,0,-1,-2,0,1,-3
1526902344318527,3,40,3,2,0,0,-1,1
1526902344333487,-5,-21,-2,-2,-3,-2,-2,-2
1526902344333487,1,-1,0,1,0,2,-2,-9
1526902344334484,-9,-3,2,3,2,-1,1,-4
1526902344334484,1,-2,-3,-3,-2,0,0,0
1526902344356426,2,-7,-4,-4,-1,0,3,7
1526902344356426,5,-22,-7,0,-2,-3,0,8
1526902344357423,-7,35,8,13,6,-1,-2,-3
1526902344357423,5,-1,-2,-4,-5,0,2,-3
1526902344379364,1,10,-5,-14,-4,2,2,-1
1526902344379364,-14,-14,-2,3,0,-2,-1,-4
1526902344380362,1,-6,-6,-3,-2,-2,1,5
1526902344380362,6,-13,0,4,1,0,-1,3
1526902344393326,-4,5,5,3,0,0,1,-5
1526902344393326,1,43,1,-2,1,-1,0,4
1526902344394324,-6,-17,-2,4,3,4,-1,-3
1526902344394324,-3,-13,-9,-15,-8,-7,-3,4
1526902344416265,2,0,-5,-7,-2,3,4,2
1526902344416265,3,1,6,8,2,0,-1,-1
1526902344417263,1,2,-4,-4,-1,-6,0,7
1526902344417263,-5,-24,-1,1,-2,-1,-1,-6
1526902344439204,3,4,1,-1,1,1,-3,-2
1526902344439204,-3,5,-1,1,1,-2,-2,-8
1526902344440202,-3,-6,2,4,0,-2,-3,-8
1526902344440202,0,5,-1,-3,-1,1,0,1
1526902344454164,1,-17,-1,4,1,-4,-4,-9
1526902344454164,-6,-9,2,-3,-2,0,1,0
1526902344454164,1,8,-5,-6,-4,-3,-3,0
1526902344454164,7,-1,-1,-3,-1,1,1,8
1526902344476105,5,1,5,7,2,0,-1,2
1526902344476105,-2,9,-2,-2,-3,1,3,-1
1526902344477103,-3,-6,-3,-7,-4,2,2,2
1526902344477103,4,-4,1,1,1,-2,-1,2
1526902344499044,-1,23,5,6,2,-1,0,-2
1526902344499044,-1,-17,-5,-3,-2,-1,-1,2
1526902344500041,-15,0,-2,-6,-1,-1,4,3
1526902344500041,2,8,0,4,-1,-1,-2,0
1526902344514004,3,-9,-3,-1,-2,-2,-2,2
1526902344514004,4,6,1,-3,-3,-3,-4,-11
1526902344515001,-21,-2,2,2,1,-1,1,-1
1526902344515001,21,0,0,2,1,2,3,15
1526902344535945,1,-2,1,-1,-1,-9,-2,-20
1526902344535945,-2,-8,-3,-4,-3,12,0,5
1526902344536943,23,7,-3,-4,-6,-6,-6,1
1526902344536943,-3,-5,-2,-2,0,-4,-3,-8
1526902344559881,-18,0,-1,-1,-2,0,1,1
1526902344559881,14,1,2,2,3,-2,-1,1
1526902344559881,-6,-4,2,3,1,1,-3,-12
1526902344559881,-26,-1,0,0,0,3,1,-4
1526902344573844,17,2,-2,1,3,-1,-3,0
1526902344573844,-24,0,-1,-3,-1,-4,0,-2
1526902344574842,28,-5,-2,-2,-2,-2,-2,-2
1526902344574842,-4,-1,0,-1,-1,-3,-3,-7
1526902344595785,-13,-2,-2,-1,-3,0,0,-1
1526902344595785,-13,1,1,0,-1,-1,0,1
1526902344596782,29,-4,-2,-2,-2,-1,-2,5
1526902344596782,-26,0,1,2,0,-2,-3,-13
1526902344619721,8,20,0,-5,-5,-1,3,10
1526902344619721,4,-1,-1,0,1,1,-2,-2
1526902344620719,-14,-8,-4,-5,-3,-4,0,5
1526902344620719,9,-4,-1,-1,-1,0,-3,-2
1526902344633684,1,-5,-3,0,-1,-2,-2,2
1526902344633684,-1,3,-2,-1,-1,-4,-1,-1
1526902344634681,-21,1,2,2,0,2,2,-4
1526902344634681,-12,-1,-6,-4,-1,-2,-5,-6
1526902344656623,-2,-2,-3,0,-1,1,-2,-3
1526902344656623,-3,-14,-2,-2,-3,-1,-1,0
1526902344656623,-10,13,1,6,5,-1,-2,-9
1526902344656623,7,19,3,-5,-5,-2,1,10
1526902344679561,4,-16,-5,-10,-3,2,1,2
1526902344679561,1,-4,-1,1,0,-3,-2,-2
1526902344680559,-6,-12,-1,10,4,-2,0,2
1526902344680559,7,-42,-8,-5,-6,-5,-4,-6
1526902344693524,-4,51,2,-19,-8,2,1,6
1526902344693524,5,13,7,-2,2,3,3,0
1526902344694522,7,-10,1,2,-6,-5,-1,2
1526902344694522,2,-12,0,12,61,-2,-6,-2
1526902344716462,-11,-6,-2,18,-22,-1,-6,-5
1526902344716462,6,23,-1,-17,-37,-9,0,4
1526902344717460,15,15,2,-14,14,22,7,11
1526902344717460,-27,-17,-3,-2,-27,-5,-4,-35
1526902344739401,-1,-21,-3,6,28,-3,-4,1
1526902344739401,-4,15,-4,5,7,-8,-9,-8
1526902344740399,2,1,0,-2,-18,-7,-3,0
1526902344740399,-7,12,-5,-8,3,4,7,14
1526902344753364,4,-2,2,4,0,0,0,-8
1526902344753364,-2,-10,1,5,-3,1,-1,2
1526902344754361,-9,-18,-8,-6,-1,-4,-3,-4
1526902344754361,23,11,0,-2,-6,2,1,10
1526902344776303,-19,6,5,1,-4,-1,-1,-7
1526902344776303,-2,-19,-8,-1,1,-1,-5,-2
1526902344777300,-13,7,-1,-1,5,-1,-3,-8
1526902344777300,11,6,0,2,-8,0,2,7
1526902344799241,6,-9,1,-1,-4,-3,-1,4
1526902344799241,-4,-2,-3,-4,9,4,-1,2
1526902344800239,3,-1,1,1,-2,-2,-1,-4
1526902344800239,-10,11,3,2,-7,-1,-3,-9
1526902344814201,9,-17,-5,-2,-1,-3,-6,-4
1526902344814201,-23,2,-2,-3,4,-1,1,2
1526902344814201,-5,3,1,1,-6,-1,1,2
1526902344814201,-3,2,0,0,-4,-9,1,0
1526902344836142,11,3,0,-1,6,13,6,7
1526902344836142,58,-7,-4,-4,-3,-5,0,9
1526902344837140,-33,1,1,1,-4,0,-2,-9
1526902344837140,4,0,1,-2,-1,-2,0,8
1526902344859081,-4,-3,0,1,-1,-3,0,-7
1526902344859081,-2,-1,2,2,0,1,3,6
1526902344860079,-6,-6,-1,-4,2,-4,-8,-30
1526902344860079,-13,4,1,0,-1,4,2,7
1526902344874041,-8,-1,-1,0,-1,-1,1,1
1526902344874041,-1,-1,-1,4,3,0,-1,-4
1526902344875039,-4,-2,-5,-3,0,-2,2,8
1526902344875039,-4,-2,-5,-1,-4,2,-2,-11
1526902344895982,7,-5,-2,-5,-3,-3,-4,-2
1526902344895982,8,3,4,0,2,5,3,1
1526902344896980,8,-1,-1,-1,-2,0,1,-6
1526902344896980,-22,-9,-3,0,-4,-2,-3,-1
1526902344918921,19,12,2,-2,0,-3,1,8
1526902344918921,-15,-8,-3,-1,-1,-1,-3,-12
1526902344919919,13,5,2,1,-1,1,-1,8
1526902344919919,18,-6,-2,-1,0,1,-1,-5
1526902344933881,-12,-1,-3,0,1,-2,-1,-1
1526902344933881,8,-1,2,-2,0,-1,1,3
1526902344934879,-2,-12,-4,-2,-2,-2,-2,-5
1526902344934879,25,30,6,0,-2,0,1,7
1526902344955822,-21,0,0,0,0,-2,0,-8
1526902344955822,-4,-8,-3,0,-2,1,1,-7
1526902344956820,13,0,-2,-2,-3,-3,1,7
1526902344956820,-1,-9,-1,0,1,1,-1,-2
1526902344978761,-2,-4,-2,0,-1,-2,-2,-1
1526902344978761,-9,-4,-1,-1,0,-1,-1,-1
1526902344979759,2,1,0,2,2,0,-1,2
1526902344979759,-2,13,1,2,-2,-2,-4,-6
1526902344992724,-3,-8,-3,-9,-16,-8,0,4
1526902344992724,3,-3,0,-7,-6,-6,-1,1
1526902345001699,-9,-2,-6,-1,35,10,-4,0
1526902345001699,5,-46,-7,4,-37,4,3,4
1526902345016660,7,54,6,-1,-5,-7,-5,-7
1526902345016660,5,-10,-1,1,-11,19,7,9
1526902345016660,-15,-7,-4,4,-12,-16,-9,-17
1526902345016660,21,-21,5,15,12,0,-2,-2
1526902345038601,-18,-3,-8,-17,-9,-3,0,-1
1526902345038601,5,8,-5,-14,4,3,6,-1
1526902345039599,-4,-17,-3,-11,-2,6,2,4
1526902345039599,70,25,5,4,8,-6,1,14
1526902345053561,-82,-28,6,25,6,-4,-3,-20
1526902345053561,-11,8,-6,-10,-5,-9,-11,-16
1526902345061540,9,-6,-4,-3,-3,1,3,8
1526902345061540,-8,10,0,-5,-4,-3,-1,3
1526902345076500,37,3,0,1,6,3,2,9
1526902345076500,-10,-11,1,6,8,0,-3,-1
1526902345077497,-8,10,3,1,-11,-6,1,2
1526902345077497,-15,11,-2,-9,0,0,1,2
1526902345098441,33,-9,-2,-1,5,-3,2,1
1526902345098441,-50,-3,0,5,1,6,-2,-4
1526902345099439,22,11,1,-1,-6,-3,-2,3
1526902345099439,-12,6,-1,-4,3,4,-1,-11
1526902345113401,-2,-17,-4,1,5,3,1,7
1526902345113401,10,5,-1,1,-3,-8,-1,2
1526902345121380,9,7,0,-3,-4,-2,-2,-2
1526902345121380,-16,-8,-4,-3,6,2,1,-1
1526902345136340,17,-3,-4,-2,-4,-2,0,7
1526902345136340,-54,-3,2,1,2,-5,-2,-16
1526902345137338,10,7,0,-1,-1,4,0,5
1526902345137338,-1,-4,-6,-4,0,-3,-1,-2
1526902345158281,-37,-10,-1,0,-1,2,-1,-11
1526902345158281,39,7,0,3,1,0,0,13
1526902345159279,85,9,-5,-6,-3,-8,-3,10
1526902345159279,-35,-4,0,-4,-1,1,-1,-8
1526902345173241,-2,4,2,0,0,10,2,5
1526902345173241,-35,-7,-1,2,5,-2,-1,-8
1526902345181220,-22,-4,1,4,-1,-1,2,-7
1526902345181220,13,2,-3,-3,-1,0,-1,2
1526902345196179,3,7,1,-1,-10,-6,-2,-1
1526902345196179,22,-6,1,2,9,-1,4,7
1526902345197177,-15,-15,-4,1,15,16,1,3
1526902345197177,-7,27,1,-6,-19,-18,-2,5
1526902345219118,2,-9,-1,-2,8,14,-1,-5
1526902345219118,18,2,2,0,-15,-9,-3,-2
1526902345219118,-15,5,5,5,5,-3,2,5
1526902345219118,-16,-27,-8,-4,4,7,-2,-6
1526902345233081,15,2,0,-3,-3,-7,-3,0
1526902345233081,20,6,0,1,-3,-5,-1,5
1526902345241059,-27,-32,-1,-1,-3,-1,-2,-5
1526902345241059,2,19,-3,-3,0,-3,-5,-6
1526902345256019,11,9,1,3,1,-3,-2,0
1526902345256019,7,10,2,-3,1,3,0,1
1526902345257017,-29,-11,-1,6,-4,-6,-1,-4
1526902345257017,19,6,4,4,0,0,0,0
1526902345278958,-51,-30,-20,-34,-15,-7,-8,-21
1526902345278958,2,17,2,0,3,-1,2,2
1526902345279956,5,12,3,15,1,-5,-3,-5
1526902345279956,2,-13,3,2,3,-2,-1,5
1526902345292921,15,4,-5,-11,-8,0,4,7
1526902345292921,-7,-8,-7,-8,-3,0,-4,-18
1526902345300899,-6,7,-1,0,-5,-2,-1,0
1526902345300899,-2,-6,7,22,7,-2,-5,3
1526902345315859,1,-20,3,2,-1,-3,-3,-1
1526902345315859,5,20,-11,-20,0,7,6,5
1526902345316857,17,3,5,0,0,2,5,8
1526902345316857,-12,-18,-5,-5,-1,0,-1,-7
1526902345338798,16,-8,2,9,5,-2,-3,0
1526902345338798,-7,3,-3,3,-2,-3,-3,2
1526902345339796,-10,2,-1,-7,-6,-3,-2,-3
1526902345339796,2,8,-1,-7,-1,1,2,10
1526902345361737,14,2,-2,2,3,-2,-1,3
1526902345361737,-5,-8,2,6,2,-6,-2,-13
1526902345362734,-1,6,-2,-5,-1,5,1,7
1526902345362734,-11,2,4,-1,-1,1,-1,-11
1526902345376697,-4,3,-1,5,6,3,-1,-7
1526902345376697,-24,-20,1,3,-3,-7,-4,-4
1526902345376697,29,7,-2,-4,-5,-4,-1,10
1526902345376697,33,0,-6,-6,-3,1,-2,2
1526902345398638,-17,4,0,5,3,-1,1,-6
1526902345398638,13,-11,1,1,-2,0,-2,4
1526902345399636,-46,-4,-4,-4,-5,-7,-3,-12
1526902345399636,-3,5,0,-1,-1,13,0,-5
1526902345421577,18,7,0,1,2,-4,1,3
1526902345421577,-9,-8,0,3,-1,15,0,1
1526902345422574,11,5,-1,-3,0,-1,-6,-6
1526902345422574,32,6,-3,-3,-8,-6,2,2
1526902345436537,-14,2,4,0,0,-3,-2,3
1526902345436537,5,-5,-3,-2,-1,-4,-3,2
1526902345437534,-16,-2,2,1,0,-1,-1,-10
1526902345437534,-24,-4,-2,-2,0,-3,1,-6
1526902345458478,17,2,0,-1,0,1,1,6
1526902345458478,-1,2,0,0,0,-3,0,-1
1526902345459476,11,4,2,0,-2,0,1,3
1526902345459476,-21,-9,-5,-4,-1,-4,-3,1
1526902345482414,11,3,2,2,1,3,3,3
1526902345482414,12,1,1,4,0,-1,-3,-3
1526902345482414,7,1,-3,-4,-3,-2,-1,-1
1526902345482414,-7,0,0,1,1,3,2,5
1526902345496377,-32,-11,-3,-2,-1,-3,-4,-9
1526902345496377,20,5,-1,-1,-2,-1,0,-5
1526902345497375,-8,-9,-3,-2,-1,0,-2,-3
1526902345497375,0,3,-1,-3,1,-2,1,0
1526902345518318,19,16,7,4,-1,-1,1,11
1526902345518318,-7,-26,-3,-1,-3,-2,-2,-4
1526902345519316,2,18,3,4,3,1,-2,-3
1526902345519316,-4,-9,-6,-12,-6,-4,-4,-5
1526902345542254,10,-3,-3,1,3,5,4,9
1526902345542254,-7,5,1,-7,-5,-4,-1,-7
1526902345543251,-6,-13,-4,-5,1,0,-4,-10
1526902345543251,-7,-12,-1,14,5,-5,-3,4
1526902345556217,10,25,4,1,-5,-2,0,-1
1526902345556217,0,-5,-10,-16,0,4,6,10
1526902345557214,-13,-18,4,17,7,-1,0,-3
1526902345557214,3,-15,-16,-24,-22,-10,-3,0
1526902345579155,8,56,6,-7,5,9,7,1
1526902345579155,1,-11,3,10,1,-3,-2,6
1526902345579155,-3,-31,-9,2,5,-3,2,2
1526902345579155,-12,34,5,16,-13,-1,-2,-2
1526902345602094,-6,16,-5,-28,-50,-15,-11,-14
1526902345602094,18,3,-2,-8,0,3,3,2
1526902345603092,-39,-3,3,-1,-9,2,1,5
1526902345603092,8,-14,0,8,29,1,1,0
1526902345616057,11,-21,-6,5,9,-4,-4,5
1526902345616057,-11,18,3,3,-13,-5,-9,-12
1526902345617055,-1,-2,-4,-4,8,-1,1,-1
1526902345617055,1,3,4,-1,-1,1,1,2
1526902345638995,-2,-10,-6,1,5,2,-1,3
1526902345638995,2,-7,3,8,4,-2,-1,1
1526902345639993,7,8,-5,-7,-2,0,-1,2
1526902345639993,-4,6,3,-4,-2,0,0,-6
1526902345661934,2,-22,-1,5,1,1,4,4
1526902345661934,-2,-3,-3,4,9,-9,-1,-3
1526902345662931,34,17,0,-7,-6,7,0,7
1526902345662931,2,3,1,-3,-6,-2,-2,-14
1526902345675897,-16,-25,-3,2,10,0,-2,2
1526902345675897,26,13,4,4,3,-2,2,6
1526902345676894,-27,8,-1,-9,-6,-3,-3,-15
1526902345676894,-3,-15,-1,1,5,2,1,3
1526902345698835,-5,-10,0,3,6,-4,-1,-4
1526902345698835,5,2,0,0,-2,5,-3,3
1526902345699833,3,4,1,-2,-8,1,2,4
1526902345699833,-3,1,-1,0,5,0,0,-1
1526902345721774,-32,-8,-3,1,3,-3,-3,-9
1526902345721774,6,3,-3,-4,-6,3,2,9
1526902345722772,32,-1,-1,1,0,-5,0,0
1526902345722772,-15,-3,-1,-1,-1,0,-4,-7
1526902345736734,10,0,-1,0,1,2,0,4
1526902345736734,-18,-6,-2,-3,-1,-5,-2,-14
1526902345736734,9,2,0,0,-1,-1,-2,0
1526902345736734,3,2,1,-2,2,0,1,-2
1526902345758675,12,-2,1,2,-1,-1,-1,4
1526902345758675,-11,-5,-3,-4,0,-1,-5,-3
1526902345759673,-9,3,0,-2,-2,-1,0,-1
1526902345759673,1,2,1,4,0,-1,3,10
1526902345781614,-8,-25,-8,0,-1,-4,-2,-3
1526902345781614,1,23,-2,-3,-2,2,2,2
1526902345782612,-7,12,6,3,0,-2,-6,-11
1526902345782612,8,-21,-6,-8,-4,-1,-1,10
1526902345795577,4,28,1,1,1,2,-2,-2
1526902345795577,-16,-31,-2,6,3,-1,1,-5
1526902345803555,-1,-5,-1,-1,-3,-1,-2,0
1526902345803555,9,18,3,-4,0,2,3,4
1526902345818515,-4,-45,-8,-6,-3,0,-1,-11
1526902345818515,-5,32,4,1,-1,-1,2,8
1526902345819513,-2,2,-4,3,1,-1,-1,-1
1526902345819513,-5,-10,-1,5,1,-2,-1,-2
1526902345842451,19,29,5,3,1,1,-3,1
1526902345842451,-17,-40,-2,-5,-6,-2,0,0
1526902345842451,8,46,-8,-17,-6,-1,2,-1
1526902345842451,5,-19,4,7,0,0,-3,-10
1526902345856414,0,-6,0,0,0,0,2,6
1526902345856414,2,1,-2,5,6,2,2,1
1526902345857411,-4,-18,0,2,-2,-5,-2,3
1526902345857411,6,-1,-7,-9,-5,2,3,9
1526902345878355,-10,21,6,5,3,-2,-3,-18
1526902345878355,-5,-7,1,0,-2,-2,-4,0
1526902345879353,5,-15,-1,-1,0,2,3,7
1526902345879353,0,13,2,-1,-1,-1,-2,2
1526902345902291,-1,-8,1,0,-1,-2,1,-1
1526902345902291,0,3,-4,-2,0,0,2,4
1526902345902291,23,-4,-2,-1,1,-1,-4,-4
1526902345902291,-65,1,1,3,1,-1,0,-10
1526902345915256,3,-7,-5,-5,-4,-3,-1,3
1526902345915256,8,5,-1,-1,-1,-4,3,10
1526902345924233,-5,-6,-1,3,2,4,-1,-15
1526902345924233,43,1,-6,-6,-4,-4,0,7
1526902345939192,-47,-3,-2,-1,-1,1,-2,-3
1526902345939192,15,3,-2,0,1,-3,-3,-8
1526902345939192,25,-6,-1,-1,-3,-2,-4,8
1526902345939192,6,1,-2,-4,-1,-2,-3,-1
1526902345962131,-43,-1,0,2,0,-2,0,-10
1526902345962131,28,2,2,3,-2,1,0,-1
1526902345963129,5,6,0,-1,-4,-5,-1,8
1526902345963129,-17,-12,-3,0,-1,3,1,-1
1526902345976094,15,6,0,-1,-1,0,-1,7
1526902345976094,-44,-4,0,-1,0,-9,-4,-18
1526902345984073,-4,-7,-1,-2,-1,10,1,1
1526902345984073,13,8,2,-1,-3,-5,0,1
1526902345999032,-9,-5,-3,0,-2,1,-1,0
1526902345999032,13,1,0,1,-2,0,0,4
1526902346000030,-7,0,0,1,0,-5,3,10
1526902346000030,-5,0,-3,-2,2,-2,-2,-16
1526902346021971,16,-1,-2,-2,-1,-1,-2,5
1526902346021971,9,4,-2,-2,-2,3,0,-2
1526902346022969,-19,-17,-2,0,-1,-3,-1,-3
1526902346022969,-25,11,-1,-2,-2,1,-3,-14
1526902346035934,30,1,2,0,-2,-1,0,7
1526902346035934,0,-6,-3,-4,-2,1,-2,1
1526902346043912,-29,21,7,3,0,-1,3,-1
1526902346043912,13,-15,-2,-1,-1,-3,-4,4
1526902346058872,6,-1,-6,-6,-1,-1,1,-1
1526902346058872,2,-5,0,0,-1,1,0,4
1526902346059870,-4,-9,0,3,3,0,1,0
1526902346059870,0,1,-1,2,-2,-3,-4,-4
1526902346080814,12,7,1,4,0,-1,-1,-2
1526902346080814,-15,-15,-6,-8,-6,-2,-1,6
1526902346081811,-5,14,3,-1,0,-3,-3,-12
1526902346081811,11,-7,1,4,4,2,3,4
1526902346095774,3,12,3,-1,1,1,-2,-12
1526902346095774,1,27,3,-1,3,2,4,0
1526902346103753,1,-9,-1,-1,-2,-1,-1,1
1526902346103753,5,-10,1,-1,0,0,0,8
1526902346118712,-9,-18,-1,4,0,-2,-2,-9
1526902346118712,-10,7,-3,-6,-4,-4,-6,-9
1526902346119710,6,0,0,-12,-4,1,2,8
1526902346119710,7,13,3,5,2,3,5,5
1526902346141651,-1,-25,-8,-2,-3,-2,-3,-2
1526902346141651,-3,54,-1,7,1,1,-3,1
1526902346141651,-6,-20,-4,1,-1,-2,-1,-2
1526902346141651,6,-11,-2,0,0,0,0,3
1526902346155614,-5,16,0,-6,-2,-1,2,7
1526902346155614,4,-25,-3,-2,1,3,1,-4
1526902346163592,1,11,-3,-2,-1,0,0,2
1526902346163592,-40,14,2,-2,-2,0,-1,-3
1526902346178552,7,-13,-3,-2,-1,-3,-2,-1
1526902346178552,6,-4,5,2,1,-2,-1,1
1526902346179550,0,-1,-4,-2,1,1,3,1
1526902346179550,-14,-20,-6,-2,-2,-3,-7,-17
1526902346201491,9,15,-1,-1,-1,-8,-1,-1
1526902346201491,-12,-16,0,0,1,8,0,3
1526902346202489,31,1,0,1,2,-1,-1,3
1526902346202489,-28,0,-4,-3,-4,-3,-2,-8
1526902346215454,29,2,0,0,2,-2,1,5
1526902346215454,30,-1,-2,-3,-2,-5,-1,5
1526902346223432,-20,-7,0,2,-1,-1,0,-4
1526902346223432,-8,-5,-6,-7,-2,-3,-5,-16
1526902346238392,-36,-2,2,0,2,3,2,2
1526902346238392,44,-7,-2,1,-1,-11,3,8
1526902346239390,-12,1,-5,0,-2,12,1,5
1526902346239390,0,3,0,-3,-2,-4,-1,-4
1526902346261331,-8,-1,-3,0,-3,1,-2,-3
1526902346261331,5,-4,0,2,-1,-2,-6,0
1526902346262328,-5,-4,1,-3,-1,-4,-2,-1
1526902346262328,13,6,2,2,-1,2,6,15
1526902346284270,10,-4,-5,-5,-2,0,-2,-2
1526902346284270,-53,-19,-3,-2,-1,1,0,-6
1526902346285267,6,18,0,-1,-2,-3,-3,0
1526902346285267,3,-15,-2,0,2,3,1,9
1526902346299230,16,20,6,4,-1,2,1,3
1526902346299230,-21,-35,-10,-5,-3,-1,-5,-22
1526902346299230,6,35,5,3,-1,-4,-1,1
1526902346299230,12,-4,-1,-2,0,1,2,0
1526902346321171,4,-6,-5,-5,-2,-1,-3,6
1526902346321171,-16,-5,-2,1,0,4,-2,-8
1526902346322169,-11,-15,-3,2,2,-2,-2,-3
1526902346322169,18,14,8,4,0,-3,-6,-2
1526902346344109,-4,-9,-12,-17,-9,0,0,2
1526902346344109,-10,17,7,1,0,1,3,-2
1526902346345107,0,-33,-3,-1,-1,-5,-1,-4
1526902346345107,10,44,0,5,2,-2,0,4
1526902346359070,-4,-17,-3,-5,-5,-2,-3,-1
1526902346359070,-6,18,3,-2,-1,0,-1,-13
1526902346359070,10,-32,-1,3,1,-1,2,6
1526902346359070,-7,10,2,4,0,-2,-5,-7
1526902346381011,-3,-4,1,10,5,-2,-2,0
1526902346381011,9,21,2,-12,-11,-4,1,4
1526902346382008,-6,-11,-5,-8,4,6,2,-8
1526902346382008,2,-17,1,2,-1,0,1,5
1526902346403950,0,0,1,10,3,-1,0,-1
1526902346403950,3,5,1,9,1,-4,-3,9
1526902346404947,-8,14,-2,-7,-2,2,1,-8
1526902346404947,4,-13,-2,-7,-3,-2,0,1
1526902346418910,-1,3,5,3,1,0,1,2
1526902346418910,7,-10,-1,3,3,-1,-3,-1
1526902346419907,-24,-10,-3,-4,-5,-7,-6,-6
1526902346419907,12,16,-1,-2,0,2,3,-2
1526902346440851,-6,-17,-2,-4,-2,0,0,-13
1526902346440851,-12,3,2,3,1,1,-3,-2
1526902346441849,3,-2,-3,-2,-4,0,0,6
1526902346441849,1,-28,-1,-1,-2,0,-2,0
1526902346464787,0,32,-3,-3,-4,-2,0,2
1526902346464787,3,-11,-2,-2,0,-1,1,1
1526902346465785,-2,12,3,4,0,0,-1,6
1526902346465785,41,-3,-3,-5,-4,-2,1,4
1526902346478749,-60,-6,0,2,0,-1,-3,-17
1526902346478749,20,4,-4,-1,0,1,-2,3
1526902346479747,-2,1,3,3,-1,-3,-2,-1
1526902346479747,32,-2,-4,-3,-1,-1,0,11
1526902346501688,-10,-2,2,0,3,2,-4,-11
1526902346501688,12,-5,-2,-1,0,-5,-2,-2
1526902346501688,-4,1,0,-2,-1,-1,1,5
1526902346501688,-2,4,0,-1,-4,2,-2,-2
1526902346524627,16,2,1,0,1,-3,-3,-4
1526902346524627,-16,-6,-2,0,-1,0,0,-2
1526902346525624,18,1,-2,-1,-2,0,-1,-5
1526902346525624,-5,6,-4,-2,-2,-11,-3,1
1526902346538590,2,-5,1,-1,1,10,1,8
1526902346538590,-4,0,0,3,1,1,2,-5
1526902346539587,-2,-3,-3,-2,-1,0,-3,4
1526902346539587,-22,-4,0,-1,0,0,2,-2
1526902346561528,4,10,4,1,-2,-2,0,-6
1526902346561528,-3,-4,-3,-3,0,-1,2,2
1526902346562526,2,8,2,1,-1,-4,-2,5
1526902346562526,3,0,0,-1,0,-1,-4,-7
1526902346584467,6,-16,1,-2,0,-2,2,9
1526902346584467,-3,21,-2,-1,-1,3,5,7
1526902346585464,-9,-12,2,2,1,-2,-4,-11
1526902346585464,2,1,-5,-1,0,2,1,1
1526902346598429,15,22,5,4,1,-1,-1,3
1526902346598429,-31,-26,-3,-5,-6,-7,-6,-12
1526902346599427,5,22,-7,-3,1,3,2,-7
1526902346599427,-7,6,9,11,3,4,-1,1
1526902346621368,5,-12,-12,-15,-10,-5,-2,7
1526902346621368,-2,-7,2,0,1,4,-2,-16
1526902346622366,6,1,1,0,0,-2,-2,-2
1526902346622366,-10,-5,0,8,4,-3,0,1
1526902346644307,3,27,1,2,-5,-5,-2,-4
1526902346644307,-2,-25,-16,-25,-7,1,1,7
1526902346645304,-2,-13,-2,2,-1,-2,-3,-1
1526902346645304,-2,15,6,0,0,0,0,-1
1526902346659267,-5,-14,6,8,5,2,-1,-3
1526902346659267,4,13,-4,-1,-1,-2,-4,3
1526902346659267,-4,-15,-2,-3,-2,0,-1,-1
1526902346659267,-11,-8,-4,0,1,-2,-2,-2
1526902346681208,0,4,0,2,-3,-1,-2,0
1526902346681208,3,-5,0,-6,-2,1,0,-4
1526902346682206,-8,-19,-4,-1,-1,0,0,-12
1526902346682206,1,22,-3,-5,-1,0,-3,1
1526902346704147,2,-9,-3,-1,1,0,1,3
1526902346704147,13,4,2,9,1,-3,-1,8
1526902346705144,-10,2,-2,-1,-1,0,3,3
1526902346705144,-7,-9,-1,-9,-5,0,-2,-6
1526902346719107,-38,-6,-3,-4,2,1,0,-8
1526902346719107,-4,2,2,6,1,-1,1,4
1526902346719107,5,9,-3,-2,-4,-2,-5,-5
1526902346719107,-4,-9,-5,-5,-4,-1,0,-6
1526902346741048,8,-3,0,0,1,0,3,14
1526902346741048,-10,3,3,5,2,0,-3,-12
1526902346742046,30,4,1,1,-1,1,-2,-2
1526902346742046,-54,-8,-3,0,-1,-2,1,-3
1526902346763987,59,1,-3,-3,-1,-4,-4,1
1526902346763987,-42,3,2,0,1,1,2,5
1526902346764984,8,-2,0,-1,-2,-4,-3,-7
1526902346764984,16,-1,-4,-2,-2,-1,-4,2
1526902346778947,-31,-8,-3,0,0,0,-2,-8
1526902346778947,34,8,0,0,0,-6,1,-1
1526902346779944,-16,5,1,1,0,3,-4,0
1526902346779944,18,-1,0,-2,1,0,3,6
1526902346800888,-5,-6,-5,-3,-4,2,-1,-9
1526902346800888,23,-2,-1,-1,0,-6,-3,-7
1526902346801886,-32,-4,2,1,1,-1,2,3
1526902346801886,15,-3,-4,-3,-1,2,0,0
1526902346824824,3,-1,0,0,0,-4,0,0
1526902346824824,-9,-3,-3,-1,-2,3,-2,1
1526902346824824,16,-2,-3,-6,-3,-1,2,8
1526902346824824,-9,-3,0,0,-1,-2,-6,-7
1526902346838787,1,2,-2,-1,-1,-3,-2,-4
1526902346838787,1,-5,-2,2,-1,2,1,6
1526902346839784,-3,20,3,-2,-1,0,-1,-1
1526902346839784,8,-10,-1,1,-1,-2,3,7
1526902346861725,-1,-13,-1,-3,-2,0,0,6
1526902346861725,-11,4,-2,-1,-4,-1,-5,-17
1526902346861725,5,2,1,1,2,-3,2,6
1526902346861725,6,-3,-1,2,0,-1,-2,-1
1526902346884664,-12,0,2,2,0,-1,-1,1
1526902346884664,3,-14,-3,-2,-1,2,2,13
1526902346885662,-8,13,-2,3,0,-3,-4,-14
1526902346885662,-4,-6,-3,-14,-10,-4,-3,-6
1526902346897629,-1,-6,-2,5,6,3,3,5
1526902346897629,0,0,2,3,-4,-4,-4,1
1526902346906605,0,21,-7,-15,-4,3,4,0
1526902346906605,-13,-12,1,15,6,-2,-3,-4
1526902346921565,3,1,10,5,-2,-5,-5,-2
1526902346921565,0,7,-8,-12,-4,3,2,2
1526902346922563,6,0,4,3,2,1,2,3
1526902346922563,-9,-5,-1,-4,-1,3,1,-5
1526902346944504,12,2,2,2,0,1,-3,6
1526902346944504,3,-7,6,9,4,0,-1,-1
1526902346945502,-3,5,-2,-3,-1,-1,1,2
1526902346945502,2,5,1,-1,1,1,-1,-3
1526902346958467,-6,-12,-4,4,0,-2,-1,-8
1526902346958467,-8,3,0,0,-1,-2,0,4
1526902346966445,-8,-20,-5,-8,-5,-2,-2,-10
1526902346966445,1,6,-2,-1,0,1,3,9
1526902346981405,13,7,1,-4,-2,-2,-2,-4
1526902346981405,-14,7,-1,-3,0,0,-2,-5
1526902346982403,-1,-11,1,2,0,-1,-3,-4
1526902346982403,6,1,-1,0,-3,1,1,1
1526902347004344,-7,14,-4,-7,-3,0,3,4
1526902347004344,7,1,1,0,-1,-2,1,2
1526902347005341,-3,-17,-4,3,0,-1,-3,2
1526902347005341,4,-2,-5,-7,-4,-2,-3,-6
1526902347018307,25,7,-1,0,0,-1,6,5
1526902347018307,-16,-3,-2,0,-1,7,-4,5
1526902347026285,37,0,0,3,2,-2,-1,3
1526902347026285,-12,0,-4,-5,-2,-4,-2,0
1526902347041245,0,-2,-1,-4,0,0,0,2
1526902347041245,-7,-3,0,4,0,-4,2,2
1526902347042243,-26,-9,-1,0,-2,-2,-4,-17
1526902347042243,39,8,-1,-1,-1,0,-3,2
1526902347064184,10,-4,-3,-4,-2,-6,-1,3
1526902347064184,-30,-7,0,-2,-2,1,1,1
1526902347065182,1,0,0,-1,-1,-1,1,6
1526902347065182,-6,-1,0,2,2,-2,1,-13
1526902347078146,-14,0,-4,-1,0,2,-4,-2
1526902347078146,2,2,-1,-1,0,-7,-3,-10
1526902347086125,-4,-1,1,3,0,2,3,4
1526902347086125,8,3,3,3,-1,2,-2,-3
1526902347101085,-1,-1,-5,-4,-2,-3,-3,-2
1526902347101085,3,3,-1,1,1,2,-6,-6
1526902347102083,-5,-7,-4,-1,0,-1,0,0
1526902347102083,-14,-6,-2,-1,-1,-4,1,5
1526902347124024,-4,-15,-4,-2,2,2,1,0
1526902347124024,6,7,2,2,-1,-2,1,-6
1526902347125021,-4,12,-4,-2,-4,0,-2,-2
1526902347125021,5,-2,-2,-2,-1,-1,1,9
1526902347137987,-13,-9,-1,2,0,2,0,-11
1526902347137987,7,-17,-5,-3,-3,-3,0,1
1526902347145965,14,2,-2,-4,-2,0,2,11
1526902347145965,-17,-17,4,6,3,-1,-1,-8
1526902347160925,1,29,0,-1,0,-1,-4,-5
1526902347160925,10,-15,3,3,0,-2,-4,1
1526902347161923,-10,10,-2,-13,-6,0,-2,-4
1526902347161923,-7,-2,-7,-11,-1,3,0,-3
1526902347183864,-4,-2,1,13,4,-3,-4,-1
1526902347183864,8,6,-2,-7,-5,-4,0,-2
1526902347184862,-3,14,-2,-3,0,5,6,2
1526902347184862,3,3,2,4,-1,-2,-1,0
1526902347197826,0,-8,0,0,1,0,-3,6
1526902347197826,1,0,2,6,5,1,-2,-6
1526902347206802,-5,-13,-3,-1,-1,-6,-5,-5
1526902347206802,2,10,1,-1,-2,2,3,11
1526902347220765,8,6,0,-2,-3,-1,-2,-8
1526902347220765,-6,3,-2,-5,-3,0,4,6
1526902347221763,7,-1,1,2,0,0,-3,1
1526902347221763,24,-2,0,3,1,-1,0,4
1526902347243704,-41,-4,-2,-4,-1,0,-2,-17
1526902347243704,15,10,-2,-3,0,1,-1,3
1526902347244701,-4,-12,-1,1,1,-1,1,2
1526902347244701,0,-1,-1,0,0,-3,-2,-1
1526902347266643,-12,-3,-2,-7,-5,-1,2,2
1526902347266643,18,0,-3,-1,0,1,0,3
1526902347267640,7,-4,-2,3,2,-3,-2,-1
1526902347267640,-28,1,1,1,1,-9,1,-1
1526902347281602,32,0,3,0,-1,14,-1,-3
1526902347281602,-53,-2,-2,-2,-2,-2,-3,-15
1526902347281602,8,-10,-1,2,-1,-2,2,24
1526902347281602,-1,3,0,-3,-1,-2,-9,-37
1526902347303544,-2,-2,-1,-2,-2,-3,2,8
1526902347303544,7,-5,-3,-2,-1,-1,0,9
1526902347304541,59,11,1,2,-2,-2,-3,0
1526902347304541,-53,-3,0,-4,-1,4,2,0
1526902347327480,35,1,-1,0,-2,-8,1,5
1526902347327480,-16,-3,0,3,1,10,-1,-7
1526902347327480,-31,-3,-2,-1,-2,0,-1,-7
1526902347327480,13,-1,-2,1,-3,-4,0,3
1526902347341442,-25,-6,0,-3,-2,-3,0,-3
1526902347341442,32,4,1,0,-2,-5,0,10
1526902347342440,-5,-3,0,1,1,3,-1,-6
1526902347342440,6,-2,-1,-2,-2,1,0,6
1526902347363384,-2,-2,-4,-3,-1,-1,-1,2
1526902347363384,-13,-2,1,-2,-2,-2,3,3
1526902347364382,2,-4,-2,-2,-2,-2,-2,-6
1526902347364382,-5,-17,-3,1,-1,1,-2,-2
1526902347387320,7,7,-5,-3,-2,-3,-2,9
1526902347387320,18,38,9,2,1,1,1,-1
1526902347387320,-9,-18,-5,-5,-1,-2,-1,-3
1526902347387320,-5,2,-2,0,1,2,5,11
1526902347401282,-8,-14,-4,-4,-3,-1,-3,-10
1526902347401282,5,-17,-4,2,1,-1,-2,0
1526902347402280,-12,9,2,1,-2,-2,-2,-9
1526902347402280,12,4,-3,-1,1,-2,-2,2
1526902347424221,-7,-3,6,3,-3,-2,1,4
1526902347424221,4,-9,-10,-14,-2,3,4,3
1526902347424221,-8,7,5,5,3,1,2,-6
1526902347424221,5,-4,-1,0,-3,-2,-4,-1
1526902347447160,-1,-26,-6,-2,1,-1,1,0
1526902347447160,-8,57,4,-1,-5,-6,-6,-7
1526902347448157,4,-10,0,3,5,3,1,5
1526902347448157,-6,-18,1,6,1,0,-2,-8
1526902347461122,-4,25,-7,-16,-7,-2,-5,-9
1526902347461122,3,-26,-3,2,0,-2,-1,-3
1526902347462120,-5,-3,-4,-5,-7,-2,-3,1
1526902347462120,11,30,9,4,6,2,3,4
1526902347484061,3,-26,-3,-1,0,0,3,10
1526902347484061,-18,-18,-3,-1,-1,-5,-8,-24
1526902347485059,-1,-7,1,6,1,-4,-2,3
1526902347485059,12,19,3,-4,-5,-1,-3,3
1526902347506999,0,-6,-3,-5,0,2,3,9
1526902347506999,12,-4,-1,0,1,2,2,5
1526902347507997,-10,-9,6,7,0,-1,-1,-2
1526902347507997,2,3,-6,-4,-2,-2,-1,-2
1526902347520962,12,8,2,3,1,2,2,-2
1526902347520962,-5,-12,-1,0,0,-3,-2,3
1526902347521960,1,18,2,0,0,-2,-1,-7
1526902347521960,7,-16,-3,-3,-1,0,-4,-2
1526902347543901,-1,24,5,3,1,-1,-2,-2
1526902347543901,1,-11,-4,1,-1,1,-1,4
1526902347544899,-1,-5,-3,-5,-2,-1,-2,-3
1526902347544899,-15,-2,-3,-5,-1,0,1,1
1526902347566840,-10,5,1,4,0,1,0,-1
1526902347566840,23,1,-1,2,-1,-4,-1,-4
1526902347567837,-15,-1,-2,-5,-2,-3,-2,6
1526902347567837,0,3,-1,0,0,0,0,2
1526902347580802,1,-2,2,2,1,-1,-4,-13
1526902347580802,15,5,2,-1,2,1,-3,3
1526902347581800,12,12,-2,-1,-1,1,0,7
1526902347581800,54,-7,-5,-1,-2,-3,-2,-2
1526902347603741,-46,-3,-2,-1,-1,-6,-1,-9
1526902347603741,29,3,1,-1,-2,6,2,9
1526902347604738,6,2,0,0,2,2,0,-3
1526902347604738,-10,0,-2,-3,-4,-1,-1,3
1526902347626679,17,-2,-2,-1,-1,-4,0,-4
1526902347626679,-32,-4,-3,-2,-1,0,0,-8
1526902347627677,4,-2,-3,-3,0,-1,1,3
1526902347627677,0,-2,-1,-3,-1,-1,1,3
1526902347641640,-6,-2,1,-1,-3,1,-2,-6
1526902347641640,-21,-4,-1,0,1,-1,-2,-6
1526902347641640,2,-4,-1,-1,0,1,1,1
1526902347641640,-17,0,0,-1,1,-1,-2,-12
1526902347663581,-11,-10,-4,-3,0,4,0,11
1526902347663581,17,5,1,-3,-2,-1,-1,-6
1526902347664579,-10,16,3,3,-1,-2,-3,-7
1526902347664579,6,7,-3,-5,-1,1,-1,-6
1526902347686520,-27,-5,0,2,2,1,2,-1
1526902347686520,-7,-10,-5,-2,-2,-4,-1,7
1526902347687517,10,-12,-2,0,0,-3,1,-1
1526902347687517,-22,9,0,-4,-3,-3,-2,-8
1526902347701479,35,1,1,-1,0,0,0,7
1526902347701479,-14,-3,-1,1,0,-1,-1,0
1526902347702477,-12,-7,-1,-2,-3,-2,-3,-5
1526902347702477,2,-4,-5,-6,0,0,-1,1
1526902347723421,6,6,0,-11,-8,-12,-5,-3
1526902347723421,-1,13,-5,-4,2,17,5,3
1526902347724418,4,-45,-1,7,1,-4,-2,-1
1526902347724418,-9,54,2,3,-3,-3,-3,-3
1526902347747357,-2,-13,-7,-7,-2,0,0,-4
1526902347747357,2,-11,6,5,0,-5,1,3
1526902347747357,-1,7,-3,-3,-1,1,-2,0
1526902347747357,-7,-55,-2,3,1,-2,-3,8
1526902347761320,1,57,1,3,1,2,-3,-20
1526902347761320,9,-25,-6,-9,-4,-1,2,10
1526902347762317,-6,40,-1,-3,1,3,4,-6
1526902347762317,-1,-24,1,2,-1,-3,0,2
1526902347784258,28,5,3,4,1,1,1,9
1526902347784258,-24,-19,-2,0,-1,-4,-4,-4
1526902347784258,-1,8,1,-5,-3,-2,1,2
1526902347784258,1,2,-2,-2,1,0,-3,1
1526902347807198,-9,-20,-4,-2,-2,0,-4,-17
1526902347807198,14,17,4,5,2,-3,-2,0
1526902347808195,5,-6,0,-2,-2,-1,-1,0
1526902347808195,-2,5,1,-2,-1,-1,-1,2
1526902347820162,-10,-2,3,2,3,1,2,11
1526902347820162,7,-1,-1,-1,0,-3,-2,-10
1526902347829138,29,3,-6,-4,-2,-2,-3,2
1526902347829138,-42,-14,-2,-4,-3,-3,1,-2
1526902347844098,26,-2,0,1,1,10,1,9
1526902347844098,-25,6,0,-1,-4,-3,-3,-10
1526902347844098,-28,-7,2,0,2,0,1,1
1526902347844098,55,9,-2,-1,1,1,0,4
1526902347867037,-21,-14,-6,-4,-2,-7,-7,-20
1526902347867037,-5,10,4,2,1,1,5,17
1526902347868034,18,-3,-3,-1,-1,2,-2,-10
1526902347868034,-38,-4,1,0,1,-1,-2,0
1526902347881000,35,5,0,1,-2,-2,1,12
1526902347881000,8,-4,-1,-2,0,-9,-3,-7
1526902347888978,-27,1,2,3,3,3,3,4
1526902347888978,-6,0,-4,-3,-2,1,5,-1
1526902347903938,13,-5,0,2,0,0,1,4
1526902347903938,1,3,-2,0,-2,-1,0,1
1526902347904936,-10,-3,-2,-4,-5,-4,-6,-13
1526902347904936,4,-1,-2,0,0,1,-1,0
1526902347926877,-18,-8,-2,-1,1,-2,0,1
1526902347926877,1,6,3,0,-2,0,1,5
1526902347927875,13,-1,-2,-1,-2,1,-1,5
1526902347927875,-6,-5,-1,1,-1,1,-3,-14
1526902347940839,-14,-14,-2,-2,0,-2,1,8
1526902347940839,23,15,-2,0,-1,-2,0,-1
1526902347948818,-5,-1,6,1,1,0,0,0
1526902347948818,31,26,3,1,0,0,1,4
1526902347963778,-63,-2,-1,0,-2,-2,-1,-7
1526902347963778,4,-5,1,2,1,1,-1,-3
1526902347964776,1,-9,-4,-3,-2,-1,-3,2
1526902347964776,8,-2,1,10,5,-1,2,2
1526902347986717,8,-17,1,-2,-5,-4,0,-5
1526902347986717,-2,34,-4,-11,2,6,5,13
1526902347987714,-11,-11,-4,-1,-1,-6,-5,-18
1526902347987714,-2,-4,-4,-8,-7,0,-1,0
1526902348000679,14,-4,0,2,1,3,1,1
1526902348000679,-7,-14,-2,5,2,-3,-6,-4
1526902348008658,8,-2,2,1,-3,-2,-2,2
1526902348008658,5,14,4,-6,0,-1,0,-1
1526902348023618,-6,-6,-6,-4,-4,-3,-1,-3
1526902348023618,4,-12,0,-2,0,1,0,0
1526902348024616,-9,14,-2,1,0,-2,-1,-7
1526902348024616,-7,-34,1,6,-1,-3,-3,-1
1526902348046557,19,56,13,1,0,1,3,8
1526902348046557,-8,-20,-3,-2,1,1,3,-5
1526902348047554,-3,7,-1,0,-2,-2,-2,-2
1526902348047554,1,-8,-2,2,-1,-1,2,12
1526902348060520,1,-1,0,1,2,-1,-5,-23
1526902348060520,-7,2,-2,-6,-6,0,0,6
1526902348068498,33,7,-2,-9,-1,4,5,5
1526902348068498,-54,2,0,-2,-1,-1,-3,-6
1526902348083458,13,-13,1,5,1,-1,-1,10
1526902348083458,-9,2,-1,2,-2,-3,-4,-16
1526902348084456,0,-16,-7,-6,-3,-1,-1,4
1526902348084456,9,15,7,7,4,3,0,-2
1526902348107394,6,-2,-6,-1,-1,-1,0,7
1526902348107394,-8,-6,-2,-1,-3,-2,-1,-6
1526902348107394,7,0,0,1,0,-1,0,5
1526902348107394,-7,-4,-3,-4,-2,1,-1,4
1526902348120359,-4,-9,-3,-3,-2,-1,-6,-15
1526902348120359,27,0,-1,0,-1,-1,0,9
1526902348129335,-18,1,0,-1,-1,1,1,-5
1526902348129335,-28,-9,-4,-5,-2,-5,-1,-10
1526902348143298,-11,-2,-1,-1,-2,-2,-2,0
1526902348143298,20,1,1,1,0,2,1,10
1526902348144295,-16,-3,-1,0,-2,-13,-4,-5
1526902348144295,29,-2,-1,-1,0,18,0,6
1526902348167234,-19,-1,-2,-5,-1,0,2,5
1526902348167234,12,0,1,0,-1,-3,-2,-5
1526902348168231,4,2,-1,-2,-1,0,-3,-1
1526902348168231,-10,2,-1,1,1,-3,1,-5
1526902348189175,1,-4,-2,0,0,1,3,4
1526902348189175,-22,-2,-1,2,-2,-2,-2,-13
1526902348190173,18,0,-1,-3,-1,2,5,12
1526902348190173,28,-2,-5,-5,-5,-3,-5,-6
1526902348204135,1,-9,-1,1,2,2,-1,6
1526902348204135,-28,13,-1,-2,0,-3,-5,-11
1526902348204135,-6,5,5,1,0,0,-1,1
1526902348204135,4,-27,-6,-3,-2,-2,-1,-6
1526902348227074,12,14,-3,-4,-1,-3,0,2
1526902348227074,2,5,2,3,0,0,0,2
1526902348228072,-5,-7,0,5,1,2,1,0
1526902348228072,0,7,-6,-9,-5,-3,1,3
1526902348249015,4,-5,-2,-3,-2,0,-1,0
1526902348249015,-9,-8,-3,-1,1,0,-2,-2
1526902348250012,-5,2,0,5,1,-1,-4,-5
1526902348250012,5,-14,8,9,3,-4,-1,-2
1526902348263975,-8,19,-9,-20,-12,-4,-4,-9
1526902348263975,9,1,-6,-2,-1,1,4,8
1526902348264973,1,4,4,4,1,-4,-6,-3
1526902348264973,-3,0,0,10,4,-3,1,2
1526902348286914,0,5,-1,-9,-3,2,1,-1
1526902348286914,7,-7,0,-8,0,4,4,6
1526902348287911,-14,-8,1,2,3,-1,-5,-24
1526902348287911,-6,44,-3,1,-3,-5,-3,-4
1526902348309853,4,-24,10,17,7,0,1,7
1526902348309853,-8,-22,-14,-14,-8,-3,-2,-1
1526902348309853,11,23,1,-6,-1,6,7,17
1526902348309853,3,-17,-1,0,2,0,0,-7
1526902348323815,0,2,0,4,0,-4,0,11
1526902348323815,3,-4,1,0,-1,-5,-7,-20
1526902348324813,-8,-27,-4,-3,-1,-1,1,7
1526902348324813,18,25,1,-7,-4,1,1,10
1526902348346754,2,-11,-3,1,1,1,-1,-9
1526902348346754,6,-1,3,5,1,-1,0,6
1526902348346754,-12,15,2,-3,-2,-5,-5,-8
1526902348346754,-3,-6,-2,-7,-2,0,-2,3
1526902348369693,6,0,0,0,2,0,2,0
1526902348369693,-5,2,2,1,-3,-2,-5,-1
1526902348370690,1,-2,-7,-5,-1,1,1,0
1526902348370690,-5,-3,1,-2,1,-6,-1,4
1526902348383655,-10,1,0,3,0,3,-3,-13
1526902348383655,0,2,-1,2,0,1,1,-6
1526902348384653,-11,-7,-3,-3,-5,-1,1,1
1526902348384653,23,-1,0,1,3,-3,0,11
1526902348406594,-29,-5,-1,-1,0,-2,-4,-19
1526902348406594,-7,0,0,1,-1,-1,0,-3
1526902348406594,35,-1,0,0,0,0,0,11
1526902348406594,-22,1,0,-3,-3,-1,-2,-5
1526902348429532,-10,-5,-3,-2,0,2,1,5
1526902348429532,-26,1,4,3,0,1,4,5
1526902348430530,21,-1,-2,0,-2,-3,0,1
1526902348430530,1,-4,-4,-3,-4,1,-1,8
1526902348443495,27,1,-2,0,-2,0,0,-1
1526902348443495,-25,-2,-2,-1,-1,-4,-3,-3
1526902348444493,-2,-5,0,-1,-1,0,-1,2
1526902348444493,-17,2,4,2,0,-3,-7,-15
1526902348466434,48,1,-2,0,-4,-4,0,14
1526902348466434,-29,-5,-1,1,0,1,-4,-16
1526902348467431,0,1,-2,-2,1,-3,0,3
1526902348467431,12,-2,-2,-4,-1,0,-1,-6
1526902348489372,-14,-1,-1,0,-1,-2,1,6
1526902348489372,23,13,0,1,-2,-2,-2,3
1526902348490370,-6,-13,-5,-2,-2,2,1,1
1526902348490370,-3,5,-2,-1,-2,-1,-1,-6
1526902348503335,-3,-21,1,0,0,1,-1,3
1526902348503335,13,29,-1,0,0,-1,-2,4
1526902348504333,-21,-6,1,-1,-1,0,-2,-11
1526902348504333,3,-10,-5,0,0,3,5,5
1526902348526274,0,3,-3,0,-1,-5,-2,-5
1526902348526274,3,-27,-2,-1,0,-1,-1,0
1526902348527271,7,17,-8,-9,-3,0,1,0
1526902348527271,-39,-11,5,10,5,-1,-1,-5
1526902348549212,-6,4,-2,-6,-6,-1,-2,-1
1526902348549212,8,-13,-7,-11,2,3,2,4
1526902348550211,-5,-20,-2,7,0,-1,-2,-3
1526902348550211,10,42,-1,-13,-4,-2,-3,-6
1526902348564173,4,22,11,12,7,2,1,-3
1526902348564173,-1,-27,2,10,0,-1,-1,2
1526902348564173,-2,14,0,-3,-4,0,0,5
1526902348564173,-1,-16,-5,0,2,2,2,-12
1526902348586114,-7,-9,0,3,-1,-6,-5,6
1526902348586114,9,9,0,-2,-4,-3,-4,-10
1526902348587111,-2,-9,-4,-5,4,1,0,2
1526902348587111,4,-8,-1,-1,-2,1,0,2
1526902348609052,0,10,-5,-7,-2,-1,0,-3
1526902348609052,4,-2,1,4,1,-1,2,4
1526902348610050,-6,-5,-2,4,-1,0,1,-3
1526902348610050,12,-10,-2,-4,-2,-1,0,9
1526902348623015,-6,-4,-3,1,4,1,1,-4
1526902348623015,-4,14,-2,-3,-3,-3,-2,-11
1526902348630994,-9,-7,0,-3,-2,-3,-6,-4
1526902348630994,8,10,2,0,-1,0,3,5
1526902348645954,-7,-10,-3,-2,-3,0,0,2
1526902348645954,16,-4,0,1,-1,1,-2,-7
1526902348646951,0,6,2,-1,-1,-2,0,1
1526902348646951,-10,-10,-2,0,0,3,-3,-7
1526902348669890,3,-3,-3,-2,-1,0,0,1
1526902348669890,13,11,3,-3,-2,-1,3,21
1526902348669890,-60,-15,-1,2,1,0,-5,-37
1526902348669890,34,-1,-2,1,-2,-7,-2,10
1526902348683852,-32,-2,1,-3,-3,1,1,1
1526902348683852,-15,-2,-6,-2,1,-1,-5,-13
1526902348684850,61,7,0,2,-1,-4,1,18
1526902348684850,-23,-9,0,-3,-3,-11,-4,-5
1526902348706791,-11,2,-1,-1,-1,12,-1,0
1526902348706791,2,-4,-1,-1,-2,-1,-1,2
1526902348706791,-1,-1,1,1,2,0,1,-1
1526902348706791,-10,-1,0,-3,-1,0,1,-4
1526902348729730,28,4,-2,-2,-3,-5,0,1
1526902348729730,-18,-4,0,0,0,0,5,7
1526902348730727,-15,-6,2,2,-1,2,-4,-18
1526902348730727,20,7,-3,0,-2,2,-3,5
1526902348743692,-9,-5,-3,-4,-1,-5,-1,-2
1526902348743692,-1,21,9,9,3,2,-1,-4
1526902348744690,35,6,1,-1,-1,-3,1,20
1526902348744690,-16,-17,-2,-2,1,0,1,-8
1526902348766631,-16,9,-3,-2,-2,-5,-4,-17
1526902348766631,27,7,-2,-5,-3,-3,-1,8
1526902348766631,-23,-1,4,3,0,0,2,2
1526902348766631,-3,-4,-2,-1,-1,2,0,-2
1526902348789570,14,-21,-2,2,2,-1,0,2
1526902348789570,4,22,-1,-3,-4,-6,-3,-1
1526902348790567,-12,-2,-6,-7,-3,-2,-2,-4
1526902348790567,-9,-15,-3,-2,-2,-2,-2,-4
1526902348803532,8,-2,4,7,4,-2,-3,4
1526902348803532,-8,-3,-1,-2,-3,0,-1,-1
1526902348811511,1,7,-5,-7,-1,3,2,-2
1526902348811511,3,0,3,5,0,0,-1,6
1526902348826471,3,-12,-9,-8,-4,-2,0,3
1526902348826471,-5,0,0,3,2,2,0,-6
1526902348827469,3,12,1,5,0,-3,-2,2
1526902348827469,3,-8,-4,-6,-3,0,1,0
1526902348849410,0,8,5,6,1,0,-1,-2
1526902348849410,-3,-12,5,3,3,0,2,6
1526902348850407,4,2,-11,-18,-9,-2,-1,-1
1526902348850407,-12,3,-1,-4,0,2,-2,-19
1526902348863372,0,-2,-2,-1,-3,-4,-3,1
1526902348863372,-10,-17,-6,-1,-2,-2,-3,-11
1526902348871351,1,-1,5,9,4,-1,2,5
1526902348871351,6,-14,-2,-2,-1,-4,-5,4
1526902348886311,0,27,1,-5,-3,0,0,-1
1526902348886311,0,-11,-4,-3,-1,-1,0,2
1526902348887309,-5,-2,4,5,1,-1,-3,-5
1526902348887309,-2,7,-6,-3,-2,-1,1,2
1526902348909250,9,-3,1,0,0,-1,1,1
1526902348909250,-15,-9,-1,0,-1,2,-3,-7
1526902348910247,4,4,-1,-1,-2,-1,-1,-3
1526902348910247,6,-4,-1,1,-1,-1,2,10
1526902348923212,-2,11,3,0,0,0,1,-9
1526902348923212,-6,-8,-3,-4,-4,-5,-3,-7
1526902348931191,1,-3,-4,-2,-1,-1,1,10
1526902348931191,-16,6,3,2,1,-9,0,-5
1526902348946151,0,-4,-3,-1,-1,11,3,20
1526902348946151,11,2,-2,-2,-3,-1,-1,-4
1526902348947149,29,-5,-2,0,-1,0,-6,-17
1526902348947149,-28,12,2,2,0,0,1,2
1526902348969089,-24,-7,-2,-2,0,-6,-1,-2
1526902348969089,19,4,1,-1,-1,2,5,12
1526902348970087,-2,-3,-2,-1,-2,-4,-7,-16
1526902348970087,-11,2,0,1,-2,2,2,5
1526902348983052,9,-5,-1,-1,-2,-4,-2,-4
1526902348983052,-9,-1,-1,1,0,2,1,9
1526902348991031,6,0,0,-2,-1,-3,0,6
1526902348991031,9,6,2,2,-1,3,-1,-1
1526902349005991,-11,-9,-1,0,-2,-3,-4,-8
1526902349005991,-4,-4,-1,0,-1,-4,0,3
1526902349006988,4,4,0,-2,0,2,2,4
1526902349006988,6,5,-1,1,-1,0,-5,-10
1526902349029927,2,-11,5,2,1,1,3,7
1526902349029927,10,17,-1,-3,-2,-2,-2,-5
1526902349029927,-6,12,-1,0,-1,1,1,1
1526902349029927,-3,-8,-3,-5,-2,0,0,-2
1526902349042892,8,-3,-5,-1,-2,-1,2,2
1526902349042892,-9,-6,-1,1,0,-2,-1,-4
1526902349050871,-5,-29,-2,1,-2,-2,-1,3
1526902349050871,12,27,-4,-6,-4,-1,1,13
1526902349065831,-2,11,4,2,2,2,-5,-25
1526902349065831,1,-5,0,1,0,-1,1,5
1526902349066828,-12,-7,-1,-1,1,0,2,1
1526902349066828,11,-3,2,4,2,-1,-3,-8
1526902349089767,-5,-22,-3,-3,-1,0,-2,-3
1526902349089767,-2,21,-7,-14,-10,-2,-3,0
1526902349090764,0,3,1,0,2,1,1,1
1526902349090764,5,-14,-1,1,0,-3,2,7
1526902349111708,-3,-4,1,5,1,-4,0,-2
1526902349111708,2,6,1,2,0,-2,1,8
1526902349112706,-11,-6,1,-4,-2,-3,-3,-9
1526902349112706,2,-1,-5,-8,0,1,-4,-5
1526902349126668,0,23,-1,1,-1,-2,-1,7
1526902349126668,2,-21,-2,2,1,0,-1,-2
1526902349126668,-1,-1,-1,1,-3,-2,-3,4
1526902349126668,-4,2,6,2,-1,0,-1,-4
1526902349149607,3,2,-6,-6,-5,-4,0,10
1526902349149607,-6,-7,-4,-1,0,-1,-3,-10
1526902349150604,0,0,0,0,-1,0,-1,0
1526902349150604,-7,-3,-1,1,0,-1,0,-2
1526902349171548,4,1,-1,-4,-2,0,1,3
1526902349171548,-6,-3,-3,-2,-1,0,1,-2
1526902349172545,-4,-7,2,3,1,-2,0,0
1526902349172545,18,1,-3,-1,-1,0,1,6
1526902349186508,-10,4,-2,-2,0,1,1,3
1526902349186508,4,-6,0,0,-1,0,-3,-15
1526902349187506,-3,3,-1,-1,0,-9,1,4
1526902349187506,15,-4,-1,-2,-1,8,-1,-3
1526902349209447,-4,5,-1,-2,-1,-4,-1,5
1526902349209447,22,-1,3,-1,0,0,2,5
1526902349210444,-26,0,0,1,-1,-1,1,-1
1526902349210444,-5,-6,-2,1,0,-4,0,-2
1526902349232385,5,-5,0,0,-4,-1,-4,-4
1526902349232385,25,3,1,-2,0,-2,2,5
1526902349232385,-18,0,0,1,-1,1,-2,-5
1526902349232385,17,3,1,-2,-1,-2,1,10
1526902349246348,-32,-17,-4,-1,-1,0,-2,-24
1526902349246348,-11,23,-2,1,-1,-1,1,5
1526902349247346,4,-17,-2,-3,-1,1,0,0
1526902349247346,-15,16,0,-1,-1,0,-3,-3
1526902349269287,38,-4,3,0,-1,-3,3,17
1526902349269287,-29,-8,1,1,-1,-2,-3,-18
1526902349270284,1,-2,-3,1,0,2,-1,1
1526902349270284,7,-2,-4,-1,0,-1,-1,-3
1526902349292225,-5,-3,-3,-2,0,-1,0,2
1526902349292225,3,-13,-3,-2,-2,-2,-1,1
1526902349293223,2,21,14,8,3,3,0,-2
1526902349293223,7,-5,3,2,-1,-1,1,-1
1526902349306188,7,6,-5,-10,-3,2,-1,3
1526902349306188,-15,-19,-3,0,-1,1,-1,5
1526902349307186,4,-1,-4,-3,-2,-11,-4,-13
1526902349307186,-20,0,0,1,-1,10,-5,-7
1526902349329127,3,2,2,7,3,-2,-1,-3
1526902349329127,-9,-6,-2,-2,-1,-2,-1,10
1526902349330124,7,2,-4,-6,-2,0,2,8
1526902349330124,0,-3,-1,3,-1,-7,-5,-2
1526902349352065,-8,-5,2,5,-1,-1,-3,-6
1526902349352065,5,12,-1,-7,-3,0,-1,1
1526902349353063,3,4,-5,-5,-1,3,2,3
1526902349353063,-12,-30,-5,-3,-3,-4,0,-5
1526902349366028,-3,12,-3,1,0,-2,-2,0
1526902349366028,3,-8,5,6,0,-3,-1,5
1526902349367025,6,10,3,3,-1,1,0,1
1526902349367025,0,5,3,1,1,-2,0,-1
1526902349389964,-2,-4,-10,-26,-11,0,-1,-9
1526902349389964,-4,-4,-2,1,6,1,1,-6
1526902349389964,-2,-22,-4,1,-2,-2,-5,-2
1526902349389964,-5,16,2,6,2,-2,-1,-4
1526902349411905,-7,-8,-6,0,-1,-4,-4,0
1526902349411905,1,7,2,-1,-3,3,2,2
1526902349412903,1,-9,-5,-4,-1,2,2,3
1526902349412903,5,-1,4,4,1,-3,-1,-3
1526902349425868,-3,1,-1,0,-2,-1,-3,-4
1526902349425868,-6,-4,-4,-3,-1,1,-1,-7
1526902349426865,7,19,0,2,-1,0,0,10
1526902349426865,-5,-10,-3,-5,-5,-1,0,-2
1526902349449804,1,3,2,3,2,1,4,6
1526902349449804,-1,-11,-4,-4,-2,-1,-3,2
1526902349450801,1,2,0,0,-1,0,-1,-20
1526902349450801,-13,1,-5,-7,-2,0,0,2
1526902349471745,-5,0,1,3,2,0,3,-5
1526902349471745,2,4,1,4,-1,-3,-4,4
1526902349472743,1,-6,-4,-4,0,-10,-1,-7
1526902349472743,5,9,3,1,0,11,-1,-2
1526902349486705,24,5,0,2,0,-1,-2,3
1526902349486705,-15,-2,0,1,1,1,0,-7
1526902349486705,-29,-2,-3,-2,-2,-1,1,7
1526902349486705,11,-3,-2,-3,-1,-6,0,1
1526902349508647,16,2,3,4,-1,0,-2,0
1526902349508647,-13,1,-2,-3,-2,-3,-1,8
1526902349509644,5,-3,-4,-1,-1,5,2,5
1526902349509644,16,3,-2,-1,-2,-5,2,4
1526902349531585,-25,-5,-1,-1,-3,1,-3,-2
1526902349531585,-2,0,-1,-2,-1,-2,0,-6
1526902349532583,36,2,1,1,1,-1,3,8
1526902349532583,-28,-5,-3,-5,-4,7,-6,-8
1526902349546545,2,5,1,2,0,-2,0,-1
1526902349546545,0,-7,-1,0,0,0,-2,0
1526902349547543,-3,-8,-1,1,-1,0,-3,-2
1526902349547543,1,24,1,-1,0,-5,3,-4
1526902349568487,2,-20,-7,-4,-2,0,1,-2
1526902349568487,-2,34,8,1,0,1,-2,-4
1526902349569485,-2,-12,-3,-2,-1,1,0,4
1526902349569485,3,8,0,1,-1,-4,-1,-4
1526902349592422,-14,-7,-2,0,0,0,-1,-7
1526902349592422,10,-24,-6,1,-1,-3,0,0
1526902349592422,-3,21,2,-4,-5,-1,-3,-6
1526902349592422,-10,-9,-3,-2,1,-1,-2,-7
1526902349606385,2,-4,-2,-1,-2,-4,-3,0
1526902349606385,2,4,1,0,-2,-1,0,7
1526902349607383,-2,-29,-2,-3,-2,0,-1,4
1526902349607383,-2,15,-3,-4,-2,-1,-3,1
1526902349628327,-5,1,-4,-6,-2,-2,-1,-11
1526902349628327,6,-7,-3,6,3,0,0,2
1526902349629324,-5,-7,-2,-14,-7,0,-2,-8
1526902349629324,5,30,-2,-7,0,1,3,2
1526902349652263,1,-4,4,11,5,-1,-2,2
1526902349652263,0,-11,4,0,-4,-2,-2,-1
1526902349653260,-2,4,-7,-5,2,4,2,0
1526902349653260,0,-18,0,1,-1,-2,-1,-2
1526902349666225,3,3,0,-1,-1,0,-4,-1
1526902349666225,-3,16,-1,4,0,-2,-5,-10
1526902349667223,-5,-3,-1,3,-2,-3,-3,5
1526902349667223,2,-13,3,2,1,1,4,8
1526902349689164,8,9,2,0,2,3,4,8
1526902349689164,-2,-11,-4,-6,-3,-2,-3,-6
1526902349689164,-1,14,1,3,-1,0,-5,-4
1526902349689164,-3,-14,-3,3,0,-3,-1,4
1526902349712102,1,-10,-1,1,-1,-3,0,-1
1526902349712102,-5,4,-6,-9,-4,-1,-2,-7
1526902349713100,-3,5,-1,-1,0,0,0,-9
1526902349713100,-1,-11,3,4,0,-2,-2,-2
1526902349726065,6,2,-1,-5,-1,-1,0,-2
1526902349726065,12,2,0,-2,-1,0,-1,5
1526902349734044,-37,-1,1,4,2,-1,-2,-3
1526902349734044,-2,-11,-3,-2,-2,-2,-1,-10
1526902349749004,77,13,-5,-5,-5,-4,0,18
1526902349749004,-25,-2,1,1,0,1,1,-4
1526902349750001,-12,5,1,0,2,-1,-4,-12
1526902349750001,-16,-5,0,0,-2,-1,0,5
1526902349771943,-14,-2,-1,-2,0,3,1,-9
1526902349771943,52,6,1,0,0,-1,4,13
1526902349772940,-55,-5,-3,-2,-3,-3,1,-3
1526902349772940,-3,-8,-5,-2,-3,-2,-5,-6
1526902349785905,-15,4,0,1,1,-2,0,-3
1526902349785905,14,-1,-1,-3,0,2,4,11
1526902349793884,5,0,1,-1,-2,-1,-2,-5
1526902349793884,6,-2,-2,0,1,-1,-4,-6
1526902349808844,-12,0,0,0,-2,-2,-1,1
1526902349808844,-28,-8,-3,-1,0,-1,1,-6
1526902349809841,33,-4,0,0,-2,0,3,12
1526902349809841,16,19,0,0,0,-4,0,7
1526902349831782,-12,11,3,2,1,1,-2,-10
1526902349831782,-15,-11,4,-2,2,0,-1,-4
1526902349832780,12,8,0,2,1,-1,0,1
1526902349832780,-2,-6,1,0,-1,0,0,2
1526902349845745,-14,-20,-4,-2,-2,1,-1,0
1526902349845745,-2,10,-6,-2,-1,-1,-1,-1
1526902349853724,29,14,12,3,1,0,-1,3
1526902349853724,-14,-17,-4,-2,-2,-2,1,7
1526902349868683,-9,1,1,0,0,0,0,-1
1526902349868683,-1,-3,1,2,-2,-2,-4,-9
1526902349869681,7,-6,-7,-9,-5,-4,-4,1
1526902349869681,-3,-1,-3,-1,0,1,2,-8
1526902349891622,2,2,1,-2,-2,-2,1,2
1526902349891622,-1,-2,-3,3,1,-2,-6,-5
1526902349892620,-2,2,-1,9,3,-4,-3,-5
1526902349892620,6,-11,3,-9,-7,-2,-5,-1
1526902349914561,-3,19,-10,-14,2,3,7,3
1526902349914561,-7,0,-3,-1,0,-3,-4,-10
1526902349915559,5,-6,-6,-3,-4,-2,-4,-2
1526902349915559,1,-2,-1,-1,1,-4,-1,-2
1526902349928524,-3,-11,0,0,-2,1,-2,0
1526902349928524,-2,17,-1,-5,-3,0,-1,2
1526902349929521,5,-5,-1,6,2,1,2,2
1526902349929521,-4,-9,0,3,-1,-2,-3,-3
1526902349952460,-2,-4,0,1,-3,-3,0,13
1526902349952460,-6,-9,-3,-1,0,0,0,-9
1526902349952460,1,-10,0,-1,-1,1,-1,-1
1526902349952460,7,10,-2,-3,1,2,2,7
1526902349965425,-6,-5,0,-1,-1,0,0,2
1526902349965425,3,-1,3,5,3,0,0,1
1526902349973403,1,-4,-3,-8,-7,-3,-2,1
1526902349973403,-8,-10,-2,-5,0,0,0,-2
1526902349988363,7,8,0,2,2,-1,-1,-2
1526902349988363,6,-18,-4,-2,-3,-1,-2,5
1526902349989362,-23,14,0,-1,0,0,-2,-18
1526902349989362,8,8,4,3,3,0,-1,5
1526902350012300,10,-4,-2,-1,-3,-2,-3,7
1526902350012300,-19,-4,-3,-3,-3,-2,-3,-26
1526902350012300,8,-2,-1,-2,1,-2,-6,0
1526902350012300,2,9,0,2,-1,0,0,4
1526902350025265,-16,-6,-3,0,1,-1,-6,-16
1526902350025265,4,2,0,-2,0,1,1,8
1526902350034241,23,-3,-1,0,0,2,0,1
1526902350034241,26,9,2,0,0,0,1,6
1526902350049201,-9,-5,-1,1,0,-1,-3,-9
1526902350049201,13,2,-2,-1,-2,-3,1,-4
1526902350049201,-8,2,1,1,0,1,2,5
1526902350049201,-8,-4,-1,-1,-3,1,-3,-2
1526902350072140,-12,-3,1,0,1,-1,-1,-11
1526902350072140,-20,0,-1,0,0,0,1,6
1526902350073137,44,7,-2,-1,0,0,0,7
1526902350073137,1,-2,-2,-2,-2,-2,-1,1
1526902350094081,-22,0,-1,-1,-1,-2,-2,-6
1526902350094081,0,-1,-2,-3,-2,0,0,7
1526902350095079,-9,-2,2,-1,0,1,-2,-3
1526902350095079,-7,-1,-2,1,0,0,0,-1
1526902350109041,-2,-1,1,2,0,-2,-3,-9
1526902350109041,4,-5,-4,-1,-1,-1,0,6
1526902350110038,17,-16,-2,3,1,-2,1,2
1526902350110038,-20,30,1,-6,-5,-1,-5,-13
1526902350131979,4,17,2,-6,0,4,5,1
1526902350131979,12,-4,-1,1,0,-3,-3,2
1526902350132977,-9,1,-2,1,0,-1,3,4
1526902350132977,-8,-16,-2,-1,-1,-2,-5,-12
1526902350154918,1,-12,-1,3,0,-1,-5,1
1526902350154918,1,13,2,9,2,-4,-1,0
1526902350154918,-6,-15,2,-1,-2,-2,-1,-1
1526902350154918,-11,13,-13,-27,-9,1,0,-7
1526902350168881,12,-1,1,1,2,2,3,5
1526902350168881,-1,-21,-1,1,0,-2,0,-2
1526902350169879,-13,13,4,7,-1,-2,-4,-9
1526902350169879,7,-7,-1,8,6,1,0,2
1526902350191819,1,-4,-2,-7,-9,-2,-1,0
1526902350191819,1,1,-3,-2,-2,1,2,3
1526902350192817,-7,1,1,-1,-3,-2,-1,3
1526902350192817,3,-4,0,2,1,-3,0,-3
1526902350214758,3,-5,2,6,1,-4,-1,1
1526902350214758,1,2,4,-1,-3,1,2,5
1526902350215755,-11,7,0,-5,-1,1,1,-4
1526902350215755,5,-5,1,8,2,-2,-5,1
1526902350228721,4,2,2,4,2,0,-4,-7
1526902350228721,-1,-6,-2,-13,-4,-2,0,-2
1526902350229718,4,23,1,-1,1,2,3,-1
1526902350229718,-5,-17,-3,2,2,1,0,1
1526902350251659,4,5,1,3,-1,-1,0,13
1526902350251659,4,3,-2,-4,-2,-1,-4,-8
1526902350252657,4,-8,-2,-5,-2,0,-1,-2
1526902350252657,-9,-5,3,5,0,0,2,6
1526902350274598,-6,4,1,-4,-2,0,2,-2
1526902350274598,-2,2,-1,-1,-1,-1,-5,-18
1526902350275596,-9,-6,-6,-2,1,0,-1,6
1526902350275596,23,0,1,0,-2,-11,0,0
1526902350288561,-15,-6,-2,-4,-1,9,3,0
1526902350288561,-20,4,2,0,0,-2,-2,-1
1526902350289559,10,-5,0,2,2,3,0,-2
1526902350289559,-4,5,-1,-2,-1,-1,1,2
1526902350311499,-5,0,-2,-1,-1,-3,0,3
1526902350311499,-30,-8,-2,0,-1,-1,-2,-4
1526902350312497,2,1,1,0,-3,-2,-1,0
1526902350312497,9,-3,-2,-1,-1,2,1,0
1526902350334438,-2,-3,-2,-2,-3,-4,-5,-5
1526902350334438,-9,5,1,0,0,3,3,4
1526902350335436,-15,-7,-3,-1,-2,-3,-2,-2
1526902350335436,-2,-2,0,0,-2,3,2,1
1526902350348401,-3,-3,-2,-1,-1,-3,-9,-9
1526902350348401,6,1,1,0,-3,-3,-4,-6
1526902350349399,-1,-3,-4,-4,-2,0,-1,2
1526902350349399,4,1,2,1,1,1,0,2
1526902350372337,11,-24,-2,0,1,-3,1,4
1526902350372337,-18,17,-2,-1,-2,-1,-1,-3
1526902350372337,-6,6,-1,-2,1,0,2,6
1526902350372337,31,-11,-4,-2,-4,-2,-6,-8
1526902350394278,8,6,0,-3,-5,-3,0,6
1526902350394278,9,-24,-6,-1,0,-1,0,1
1526902350395276,-20,2,-4,-2,1,1,-2,-4
1526902350395276,-5,16,5,1,0,1,4,1
1526902350409238,-11,-3,-2,1,0,-1,1,-3
1526902350409238,37,13,3,2,0,-1,2,7
1526902350409238,12,-7,-1,-1,-2,-1,-4,0
1526902350409238,-31,-5,-2,0,1,0,0,-2
1526902350432177,0,5,-2,3,0,-12,-2,6
1526902350432177,-1,-6,3,4,-1,14,-3,9
1526902350433174,2,6,-4,-9,-3,-1,1,-1
1526902350433174,-8,-21,-7,-10,-3,2,-1,-13
1526902350454118,-7,27,0,-5,-2,-1,1,-2
1526902350454118,6,0,3,7,6,-4,2,5
1526902350455116,0,-18,4,10,-2,-5,-3,-1
1526902350455116,-1,14,2,-6,-4,3,2,2
1526902350469078,6,-1,-10,-13,-9,1,-2,6
1526902350469078,8,-13,2,2,2,-2,-1,-2
1526902350470076,-2,8,2,3,0,-2,-5,-12
1526902350470076,-9,2,-5,-1,2,-2,-2,4
1526902350492017,1,-15,1,2,2,0,-3,-6
1526902350492017,14,13,7,0,-1,-1,3,4
1526902350493014,1,-2,-2,-1,0,0,0,2
1526902350493014,-9,-11,-1,2,-2,-3,0,4
1526902350514955,3,14,0,-1,1,2,1,-2
1526902350514955,1,5,0,-7,-3,-3,1,4
1526902350514955,14,-1,1,1,1,1,4,11
1526902350514955,-25,-11,-6,0,-2,-3,-4,-23
1526902350528918,-4,-19,1,2,2,1,-3,-5
1526902350528918,0,14,-2,-3,-3,-4,-3,-4
1526902350529916,0,-2,-3,-5,-3,-1,0,8
1526902350529916,17,2,1,1,0,1,1,8
1526902350551857,-24,-2,0,3,0,0,0,-3
1526902350551857,-2,2,-3,-3,-1,-3,-2,-6
1526902350552854,3,-4,0,-1,0,1,1,-4
1526902350552854,-8,-3,-2,1,-1,-1,-1,0
1526902350574795,13,5,2,2,1,1,3,3
1526902350574795,-27,-8,-5,-3,-2,-3,-4,-5
1526902350575793,19,5,-2,-2,-3,-1,-1,-4
1526902350575793,13,4,6,3,2,-10,4,13
1526902350588758,27,3,0,-2,1,15,5,5
1526902350588758,-31,-6,-2,-2,-1,-2,-4,-17
1526902350589756,20,1,-1,-2,-2,1,-2,2
1526902350589756,3,7,2,-1,-1,0,-3,-1
1526902350611697,-2,-13,-5,-3,-3,-3,1,11
1526902350611697,11,1,0,0,0,0,0,0
1526902350611697,-20,1,-3,-2,-1,-1,-1,-15
1526902350611697,-3,3,1,0,-3,-1,0,10
1526902350634635,-9,1,0,2,1,-2,1,-3
1526902350634635,10,-5,-5,-5,-2,-1,-2,0
1526902350635633,-7,-3,0,-1,0,-10,-1,2
1526902350635633,10,0,-1,-1,-1,16,-1,0
1526902350648598,-9,-2,-2,-4,-4,-4,-3,-6
1526902350648598,5,-3,0,-1,0,-4,-1,-3
1526902350656577,-7,-10,-3,-4,-2,-1,0,6
1526902350656577,-5,4,0,3,3,0,2,-5
1526902350671537,-2,11,0,-1,-2,-4,-5,-12
1526902350671537,20,-7,1,0,-2,3,3,13
1526902350672534,-5,3,5,0,0,0,-3,-6
1526902350672534,-4,-4,-3,1,0,-3,0,3
1526902350694475,-2,-11,-3,0,-1,-3,-3,-8
1526902350694475,0,4,-2,-2,1,-1,4,0
1526902350695473,-3,-8,-3,1,0,1,-1,6
1526902350695473,-9,-10,-1,-2,-3,-4,-5,-15
1526902350708438,1,-9,-4,0,-1,1,0,-2
1526902350708438,6,36,4,5,-1,0,-1,0
1526902350716417,-4,-3,0,4,3,1,1,0
1526902350716417,4,9,2,0,-3,-1,0,-1
1526902350731376,1,-28,-8,-12,-5,-1,0,-10
1526902350731376,-6,15,0,0,3,2,3,3
1526902350732374,-12,-11,-3,-5,-8,-3,-4,-5
1526902350732374,9,11,-2,-3,7,7,5,5
1526902350754315,-2,-8,2,6,-1,-3,-1,7
1526902350754315,-9,-10,-3,2,-1,0,-3,-12
1526902350755313,-4,-9,-7,-6,-5,-2,-3,-5
1526902350755313,3,10,4,-1,0,1,-2,-1
1526902350768278,1,6,1,0,0,-2,0,6
1526902350768278,-4,-18,-5,0,3,0,-3,-2
1526902350776257,-4,-44,0,4,0,-3,-1,-3
1526902350776257,-1,40,2,-3,-3,-3,-2,5
1526902350791217,3,4,-3,-4,2,2,1,7
1526902350791217,-2,-16,0,1,-2,-6,-7,-11
1526902350792214,0,0,-3,-7,-1,3,0,-5
1526902350792214,0,-14,-5,-4,-4,-5,1,3
1526902350814155,7,7,8,11,3,-2,0,6
1526902350814155,1,-6,-3,-12,-8,-1,2,1
1526902350815153,1,20,-2,-2,3,5,1,-4
1526902350815153,-2,-11,2,2,0,-1,-1,-3
1526902350828118,-2,9,-2,1,-1,-3,-2,-4
1526902350828118,1,-15,0,0,-2,-1,-3,1
1526902350836096,0,20,6,4,2,0,1,1
1526902350836096,-3,-7,-1,2,-1,-2,-2,-2
1526902350851057,3,-1,0,-1,-1,-1,0,1
1526902350851057,-4,-4,-3,-4,-3,-1,-2,-8
1526902350852054,-5,11,3,1,2,-4,1,9
1526902350852054,-2,-17,-4,0,-2,9,-1,-10
1526902350874993,-20,1,-2,-3,-2,-2,-1,0
1526902350874993,4,4,-3,-3,-1,-3,0,7
1526902350874993,-2,7,-2,2,1,1,0,3
1526902350874993,42,-6,-2,-1,-1,-5,-3,3
1526902350887958,-10,5,-1,-1,-2,0,0,2
1526902350887958,23,1,-4,-2,-1,-2,-5,-10
1526902350895937,6,2,0,-1,-1,-2,-2,0
1526902350895937,-33,-9,-1,-1,-1,-4,-4,-8
1526902350910896,4,-1,0,0,2,3,1,-1
1526902350910896,-2,4,1,4,0,2,4,12
1526902350911894,4,-2,-3,0,-3,0,-3,-18
1526902350911894,3,-2,-1,0,-2,-2,-8,0
1526902350934832,0,-3,-2,-3,-2,-1,-2,-4
1526902350934832,4,-6,-2,-1,-2,-2,-1,6
1526902350934832,6,28,7,2,1,-7,-3,-8
1526902350934832,-9,-30,-6,-2,-2,13,0,0
1526902350947798,-35,33,5,-2,0,-4,-4,-9
1526902350947798,18,-2,5,3,3,2,5,16
1526902350956774,-2,-10,-4,-1,-1,-1,-1,-12
1526902350956774,-12,-1,0,1,-1,-7,1,2
1526902350971734,13,-14,-2,0,-1,0,-1,1
1526902350971734,-3,-6,0,2,2,3,2,2
1526902350971734,-18,-3,-8,-9,-9,-5,-1,6
1526902350971734,10,40,9,4,1,-1,2,-2
1526902350994672,10,-8,-3,-4,1,2,1,-2
1526902350994672,-10,5,-3,-3,-2,-4,0,2
1526902350995670,3,-18,-3,0,1,5,5,9
1526902350995670,-16,0,-3,1,1,-3,-7,-20
1526902351016614,15,-11,3,1,-3,-2,1,6
1526902351016614,-11,1,2,3,1,-3,-4,-11
1526902351017611,6,-2,-1,-5,1,0,-1,7
1526902351017611,-3,15,-9,-10,-8,-3,1,1
1526902351031574,1,-2,1,2,2,0,-2,-3
1526902351031574,0,-6,-1,0,-2,-1,-5,-9
1526902351032571,3,-4,2,6,2,0,-1,-2
1526902351032571,-15,-11,-3,-2,3,-1,3,8
1526902351054512,11,12,-6,-8,-9,-5,-3,-7
1526902351054512,6,-18,-1,-6,-2,3,4,-3
1526902351055510,-6,51,2,3,-1,-2,-1,0
1526902351055510,6,-25,1,2,0,-4,-2,-2
1526902351077451,-4,-12,-5,3,-2,0,0,3
1526902351077451,30,7,-2,1,-1,0,1,1
1526902351077451,-5,-11,-3,-4,-2,0,-2,-2
1526902351077451,1,-5,-1,-2,-1,-1,0,7
1526902351091414,-25,-3,-2,-3,0,-1,1,-5
1526902351091414,3,9,-1,0,-1,-1,-1,-3
1526902351092411,12,-8,-3,-4,-4,-3,-1,3
1526902351092411,-14,-1,-2,-1,-2,-2,-2,-3
1526902351114352,14,1,1,0,0,0,0,2
1526902351114352,-23,-1,1,-1,0,0,-1,2
1526902351115350,16,-8,-1,-4,0,-1,3,15
1526902351115350,20,5,-1,-2,-2,-3,-7,-18
1526902351137291,-4,-3,-3,1,0,-1,-1,-7
1526902351137291,-36,-1,-1,0,0,0,2,7
1526902351138289,26,-4,0,-2,-2,-3,-2,4
1526902351138289,-23,-6,-2,-1,-1,-3,0,3
1526902351151254,7,2,2,1,1,2,0,-4
1526902351151254,-1,6,-2,-2,-1,-4,-4,-6
1526902351152251,5,-1,1,2,0,2,1,-8
1526902351152251,8,-3,0,-2,1,0,1,1
1526902351174192,-13,-3,-4,-3,-2,-1,-3,-7
1526902351174192,0,-2,-3,-1,-1,-3,-3,1
1526902351175190,-23,-10,-1,-1,0,0,-3,-8
1526902351175190,22,-1,0,-1,-2,0,1,9
1526902351197131,-21,7,-2,-1,-2,-3,-2,-7
1526902351197131,13,1,5,1,0,2,1,4
1526902351198129,1,-11,-4,-3,0,0,-2,-3
1526902351198129,-13,-7,2,3,1,-2,2,3
1526902351211093,16,-3,-2,-1,0,2,4,12
1526902351211093,-2,0,-4,-2,-4,-3,-6,-13
1526902351212091,-16,7,2,2,0,3,1,-2
1526902351212091,-8,-5,-3,-5,-5,-3,-2,-2
1526902351234032,13,0,2,1,2,0,1,9
1526902351234032,-2,-1,-1,-3,-1,-2,-1,-8
1526902351235029,-16,-6,-1,1,0,0,-1,0
1526902351235029,14,2,2,2,1,-1,0,6
1526902351256971,-1,8,-1,-3,-4,-1,-3,-12
1526902351256971,-12,-15,-4,0,0,-3,-2,-2
1526902351257968,1,22,2,-8,-3,-2,-2,-5
1526902351257968,3,-1,3,3,4,2,3,6
1526902351270934,0,-2,0,1,-3,-1,-3,2
1526902351270934,1,-11,-2,-4,2,3,0,-7
1526902351271931,-8,-16,1,9,2,-1,-4,-6
1526902351271931,5,38,-5,-17,-5,-9,0,-3
1526902351294869,-2,-2,6,7,1,7,-4,-2
1526902351294869,0,-3,-3,0,-3,-4,-1,4
1526902351294869,5,-9,-4,-7,-1,5,3,5
1526902351294869,-6,-21,1,8,3,-1,0,0
1526902351316811,12,62,2,-3,-2,-3,1,-2
1526902351316811,0,-15,7,5,3,1,2,5
1526902351317809,-6,16,-4,3,0,-1,-1,3
1526902351317809,-11,-37,-12,-8,-5,1,0,-3
1526902351331771,9,1,8,5,6,1,4,8
1526902351331771,16,11,2,1,0,3,2,-1
1526902351331771,-17,-6,-5,-3,-2,-3,0,-3
1526902351331771,12,4,-2,-1,-1,1,0,4
1526902351354709,-32,-22,-5,-1,-2,-2,-2,2
1526902351354709,4,19,1,-2,-2,-2,0,1
1526902351355707,-3,-11,1,-1,-2,-1,-3,-5
1526902351355707,14,13,1,2,0,0,0,1
1526902351376651,4,-12,-2,-3,0,-1,2,2
1526902351376651,6,-5,-3,-1,-1,-2,-3,-3
1526902351377648,-37,15,1,2,0,1,1,2
1526902351377648,-14,-5,0,2,0,2,-4,-11
1526902351391611,17,-3,-1,-2,-1,-10,-1,4
1526902351391611,-13,-4,-2,-1,-1,6,2,-2
1526902351392608,38,1,-3,-3,0,-4,-3,-7
1526902351392608,-18,9,1,-1,-1,1,3,10
1526902351414550,13,-18,-4,-4,-2,-3,1,-1
1526902351414550,-1,7,-2,-2,-2,-1,0,7
1526902351415547,-35,-8,2,2,-1,0,0,-11
1526902351415547,-1,6,0,0,-4,-3,0,3
1526902351437488,4,-11,-5,-1,2,2,-1,1
1526902351437488,-2,4,-3,-3,-2,-3,-3,-7
1526902351437488,4,-5,0,0,0,-4,-3,-3
1526902351437488,27,1,-2,-1,-2,5,-2,3
1526902351451451,-25,-4,-2,-1,-1,0,-3,-8
1526902351451451,4,-2,-1,-1,-1,-3,-1,2
1526902351452448,-12,-10,-3,-2,-1,0,1,-4
1526902351452448,2,-4,-3,1,0,-5,-3,-3
1526902351474389,4,-8,1,-3,-3,1,-2,-2
1526902351474389,-3,-1,-7,-4,-2,-3,4,7
1526902351475387,4,23,1,0,-2,-3,-1,-4
1526902351475387,-7,-14,2,2,1,1,1,2
1526902351497328,-2,2,-3,-2,-2,1,-1,-4
1526902351497328,-5,-8,-1,0,-1,-2,-2,5
1526902351498326,3,-10,3,10,1,0,-2,0
1526902351498326,-6,-5,-4,-13,-6,-1,-5,-16
1526902351511291,10,11,2,-6,2,5,6,10
1526902351511291,-9,1,0,-1,-1,-3,-6,-11
1526902351512288,13,-34,-7,-5,-5,1,0,14
1526902351512288,-8,56,5,-3,-5,-4,-3,-4
1526902351534230,-1,-15,-1,4,1,-2,1,1
1526902351534230,-1,-3,-3,2,1,0,0,3
1526902351535227,2,-30,-5,2,2,-1,-1,-1
1526902351535227,-8,-7,-7,-3,-2,-5,-3,-8
1526902351557168,-4,5,0,-1,-5,-1,-6,-3
1526902351557168,2,9,2,-7,-5,1,-1,2
1526902351558166,-6,-9,-3,-1,-2,-2,-1,-10
1526902351558166,-2,2,2,8,3,-1,-2,-3
1526902351571131,9,12,3,3,1,-3,0,7
1526902351571131,3,-36,1,4,1,-1,-1,3
1526902351572128,9,47,2,-7,-3,0,4,8
1526902351572128,13,-2,3,4,3,1,1,5
1526902351594069,-27,-12,-3,-1,-2,-2,-2,-14
1526902351594069,-1,0,-3,-1,-3,1,1,2
1526902351595067,5,2,-1,-4,-1,1,1,-1
1526902351595067,2,-3,-2,1,0,0,1,6
1526902351617008,1,-13,-5,-1,-1,0,0,-1
1526902351617008,16,16,-1,-4,-1,-5,1,-5
1526902351618006,-20,5,3,0,0,-3,-4,-11
1526902351618006,-3,-15,-4,0,-2,2,-1,-1
1526902351630971,2,1,-1,-3,-2,-3,-1,6
1526902351630971,46,2,-3,-2,-1,0,-3,-3
1526902351638949,-60,-6,-1,-4,-3,-2,-6,-4
1526902351638949,5,-7,-2,0,0,-2,-1,-8
1526902351654907,-10,-4,-5,-3,-1,-1,-1,-4
1526902351654907,11,6,-1,0,-2,1,-1,4
1526902351654907,9,-2,2,0,0,-5,1,8
1526902351654907,36,5,-1,-2,-1,3,3,2
1526902351676848,30,8,1,0,1,-2,-1,9
1526902351676848,-44,-3,0,-1,0,2,-3,-13
1526902351677846,3,1,1,0,-2,-6,-1,-2
1526902351677846,4,-6,-1,1,-1,-1,-2,0
1526902351690811,-8,-1,0,1,0,3,0,-10
1526902351690811,5,5,1,2,1,-2,-2,1
1526902351698789,3,-3,-2,-1,-2,5,2,4
1526902351698789,-19,4,4,2,3,-5,0,-5
1526902351714747,0,-10,-4,-1,-4,0,-3,1
1526902351714747,-21,2,-6,-5,-2,-2,-4,-11
1526902351715744,16,1,-2,0,2,0,-2,-4
1526902351715744,10,-4,1,1,-2,1,1,3
1526902351736688,-4,10,0,-1,-1,-3,0,2
1526902351736688,-9,1,1,0,-1,-1,-1,-4
1526902351737686,21,-25,-5,-1,-1,0,1,7
1526902351737686,-11,16,-1,-3,0,0,0,-1
1526902351750651,2,6,1,1,-2,-1,-2,-1
1526902351750651,-15,-32,-5,-2,-3,-4,-1,-2
1526902351758629,24,58,2,-1,-2,-1,0,13
1526902351758629,-26,-24,1,3,1,1,-1,-12
1526902351773589,-9,-10,-3,1,-1,-1,-2,-4
1526902351773589,2,7,1,3,2,-6,3,3
1526902351774587,-5,-20,-8,-12,-9,7,-6,-8
1526902351774587,-4,-3,1,3,2,0,1,4
1526902351796528,3,6,-2,-7,-6,-2,-3,0
1526902351796528,-6,-17,-2,2,6,2,1,-8
1526902351797526,3,14,7,6,0,-5,-3,2
1526902351797526,-5,-3,-3,-6,1,0,0,0
1526902351810491,2,-2,1,-3,-3,-1,-3,-7
1526902351810491,-1,-10,-4,-3,-4,-1,0,11
1526902351818469,5,13,3,2,4,2,3,2
1526902351818469,-3,-14,-7,-5,-3,0,-1,-2
1526902351833429,-9,-2,0,1,0,-1,1,-5
1526902351833429,6,16,1,-1,-4,0,-1,3
1526902351834427,3,-3,1,0,-2,-1,1,0
1526902351834427,-5,-19,-3,4,0,-3,-3,-3
1526902351857365,2,6,5,-7,-3,-4,-5,1
1526902351857365,-16,-33,-5,-4,0,2,1,2
1526902351858363,9,28,-1,-1,0,0,0,0
1526902351858363,-8,6,-1,-2,-2,-3,-2,-3
1526902351870331,3,-20,-5,1,-1,-1,2,3
1526902351870331,-13,4,4,0,-2,-2,-5,-7
1526902351879306,16,-14,-3,-2,-1,-1,-2,6
1526902351879306,-10,-5,-1,0,-1,-1,-1,-13
1526902351894267,7,15,-1,2,2,0,0,-1
1526902351894267,8,11,-2,-1,-3,-1,-2,6
1526902351894267,-2,-15,-4,-2,0,0,4,0
1526902351894267,11,10,3,1,-2,-2,-2,-3
1526902351917205,-20,-15,-3,0,2,2,2,-5
1526902351917205,0,8,-1,-3,-1,-1,-3,-14
1526902351918203,-8,-6,0,1,1,-11,-2,-4
1526902351918203,-39,4,1,-1,-3,11,0,4
1526902351931168,39,6,0,0,2,-3,-1,11
1526902351931168,0,9,0,0,0,1,2,1
1526902351939147,-22,-10,-2,-1,-1,-2,0,-9
1526902351939147,6,6,1,0,1,-3,-1,8
1526902351954106,10,3,-2,-3,-2,0,1,-3
1526902351954106,-3,5,3,2,1,-1,-3,-1
1526902351955104,4,-7,1,0,0,1,-1,-1
1526902351955104,8,3,-4,-3,-1,-9,0,8
1526902351977045,-13,-1,0,1,-2,15,-3,-2
1526902351977045,15,7,2,4,2,-2,1,-4
1526902351978043,-65,-13,-2,0,1,-2,-1,-7
1526902351978043,18,2,1,0,1,-1,-1,6
1526902351999984,9,-1,-4,-2,-2,-8,1,1
1526902351999984,-13,-1,-2,-4,-2,-1,-1,-3
1526902351999984,17,-18,-4,-3,-3,4,-2,0
1526902351999984,-4,-1,-2,-2,-2,-2,1,-4
1526902352013947,-10,23,0,0,0,-3,-1,-1
1526902352013947,9,3,5,4,2,1,0,5
1526902352014944,18,-15,-4,-3,-2,-2,1,4
1526902352014944,-6,1,-3,-4,-3,-3,-4,-14
1526902352036885,-14,-15,-1,2,0,0,-1,-4
1526902352036885,-1,1,-1,-1,-2,0,1,0
1526902352037883,17,17,1,-1,0,0,1,6
1526902352037883,-3,-19,-5,-1,-2,0,1,9
1526902352059824,-6,38,6,0,2,0,1,-8
1526902352059824,1,-16,-7,-4,-5,-4,-3,5
1526902352060821,3,7,-1,-4,-1,3,1,4
1526902352060821,1,-7,1,6,3,1,1,0
1526902352073786,-5,-6,3,1,-3,-3,-2,1
1526902352073786,7,-9,-4,-5,-1,0,0,0
1526902352074784,3,15,2,1,3,4,1,-3
1526902352074784,7,-8,-5,-11,-6,-3,-5,-3
1526902352096725,4,5,1,5,3,0,3,4
1526902352096725,-10,-2,0,4,-3,-2,-1,-4
1526902352097723,0,-36,-5,2,1,0,-1,3
1526902352097723,10,51,4,1,3,2,3,2
1526902352119664,-5,-24,-6,-6,-1,0,1,-4
1526902352119664,-16,-18,-5,-2,-1,-3,-8,-27
1526902352120661,8,15,1,4,-1,-5,-1,2
1526902352120661,-3,-11,0,3,0,-1,-1,4
1526902352133627,-2,-3,1,-2,-3,-1,-2,-2
1526902352133627,9,4,1,-2,0,1,2,14
1526902352134624,-12,-3,-1,-1,-1,-2,-5,-18
1526902352134624,-3,-6,-2,-3,-3,-3,-4,-5
1526902352156565,4,1,0,-1,-1,4,2,6
1526902352156565,-7,7,-4,-5,-3,-4,-1,1
1526902352157563,19,0,4,-1,1,0,1,1
1526902352157563,-23,1,-2,-3,0,0,0,0
1526902352179504,-14,-17,-5,-1,0,-5,-4,-11
1526902352179504,23,12,3,3,0,2,5,24
1526902352180501,-20,-1,-1,-4,-3,-1,-2,-20
1526902352180501,2,-6,4,1,0,-3,-2,-8
1526902352193466,51,0,-1,1,-1,-2,-1,9
1526902352193466,-39,5,0,-2,-1,0,-1,-4
1526902352194464,15,2,-1,-2,-1,-1,-3,5
1526902352194464,25,1,2,0,-2,-2,2,11
1526902352217402,-15,-5,0,0,0,1,-3,-16
1526902352217402,31,13,-1,-2,1,0,1,9
1526902352218400,10,-4,-2,-1,-2,-2,1,1
1526902352218400,-6,-3,0,1,0,3,4,2
1526902352239344,3,2,0,-1,-1,-4,1,3
1526902352239344,-13,-1,1,0,1,0,-1,-11
1526902352240341,-15,-1,-1,-1,0,1,-1,-7
1526902352240341,-8,-4,-4,-3,0,-1,0,-4
1526902352254304,1,0,2,1,-1,-2,-1,-1
1526902352254304,20,4,-1,-2,-1,0,-2,11
1526902352254304,-14,3,-1,-2,-1,-5,-4,-11
1526902352254304,16,-3,-2,0,-2,0,-2,0
1526902352277242,-25,-14,-5,-2,0,-1,0,6
1526902352277242,13,20,1,0,-2,0,-5,-6
1526902352278240,4,10,2,1,-2,0,0,7
1526902352278240,-26,-10,0,-1,1,-1,-1,-7
1526902352299184,-6,-6,-4,0,0,0,0,4
1526902352299184,10,-17,-5,-1,-1,-2,-1,-5
1526902352300181,2,2,-1,0,-1,1,2,12
1526902352300181,-12,1,0,-1,-1,-1,-3,-22
1526902352314144,4,2,-4,-3,0,-2,2,9
1526902352314144,-13,-9,-4,-4,-1,-1,2,-1
1526902352314144,10,-3,-3,1,-1,-2,-3,3
1526902352314144,6,-25,-2,-5,-4,-2,-2,10
1526902352337082,-4,35,3,-5,0,2,2,-8
1526902352337082,-7,19,2,7,2,-2,-2,-7
1526902352338080,-9,-17,2,6,1,1,1,3
1526902352338080,5,1,-9,-15,-9,-2,-4,-2
1526902352360021,-13,-5,5,0,-1,-1,-4,-13
1526902352360021,0,1,3,3,3,0,-1,0
1526902352360021,-3,-10,-5,-13,-7,-2,0,-2
1526902352360021,2,4,-3,5,4,-4,-3,5
1526902352373983,5,1,3,12,5,-7,-2,1
1526902352373983,-7,1,1,-12,-5,14,-1,-9
1526902352374981,1,-10,-2,0,2,2,3,2
1526902352374981,4,1,-1,-1,-3,-2,0,3
1526902352396922,-7,4,-7,-1,0,0,-1,-3
1526902352396922,-2,-21,-1,6,2,-8,-3,1
1526902352397920,-3,35,4,-1,-1,-2,-3,-2
1526902352397920,8,0,5,0,1,4,2,1
1526902352419861,5,-1,-1,-1,-1,-1,0,2
1526902352419861,-13,-12,-4,-1,-1,-3,-1,-1
1526902352419861,-7,-17,-7,-5,-3,1,-1,-13
1526902352419861,8,17,-1,2,0,-2,0,7
1526902352433824,-10,-24,-2,-1,-3,-2,-4,-16
1526902352433824,-2,22,-4,-5,-5,-2,3,2
1526902352434821,-44,-9,2,2,1,1,-1,3
1526902352434821,21,5,3,4,1,0,1,3
1526902352456762,6,-9,-3,-3,-2,-1,-1,6
1526902352456762,-10,-7,-3,-3,-1,0,2,3
1526902352457760,-8,9,2,5,1,1,2,4
1526902352457760,45,-2,-1,-1,-4,1,-6,-9
1526902352479701,-36,-2,-1,-6,-3,0,0,7
1526902352479701,-20,-3,-1,1,-1,-5,-1,-4
1526902352480699,-3,6,3,0,-3,-1,-1,2
1526902352480699,3,-4,1,1,1,-1,2,-3
1526902352493663,-23,0,-2,0,-1,-1,-2,-5
1526902352493663,63,9,1,1,1,-1,1,9
1526902352494661,-4,-3,0,0,0,-5,-1,-3
1526902352494661,-25,-1,-3,0,0,1,-1,4
1526902352516602,8,3,0,-1,1,-2,-1,-1
1526902352516602,-18,-3,2,1,0,-1,1,0
1526902352517600,12,-3,-2,-3,-4,-2,-6,-17
1526902352517600,-10,0,0,0,1,-2,-1,0
1526902352539541,1,-2,1,0,-2,0,-1,-2
1526902352539541,-10,-17,-4,-4,-1,-3,-4,-6
1526902352540539,36,-3,-4,-3,-2,-1,1,12
1526902352540539,-8,44,6,6,4,2,-1,-13
1526902352553504,1,-13,1,0,-1,-8,-1,-4
1526902352553504,0,-7,-3,-2,-3,14,2,7
1526902352561482,-2,-10,-2,0,0,1,-2,-9
1526902352561482,-6,-17,-6,-2,-3,-2,-3,9
1526902352577440,-2,7,-2,-4,-1,-2,-3,-3
1526902352577440,-5,2,0,-3,-1,-4,-1,2
1526902352577440,6,-4,-1,2,1,1,3,8
1526902352577440,-16,-11,-5,-4,-2,0,-1,-8
1526902352599381,21,25,-1,4,2,2,1,0
1526902352599381,-3,-28,2,7,0,-4,-2,-2
1526902352600378,-4,-4,-7,-11,-3,4,1,5
1526902352600378,1,5,2,3,2,-2,1,0
1526902352613343,6,5,3,0,-6,-2,-1,-2
1526902352613343,-2,5,1,-2,4,1,2,1
1526902352621322,0,0,-3,-3,-3,-4,-5,-13
1526902352621322,-5,-33,-7,-4,-1,0,2,3
1526902352637280,7,14,-1,-1,-3,-1,0,5
1526902352637280,-3,8,4,4,1,-4,-5,-8
1526902352638277,8,14,9,9,3,-1,-4,-5
1526902352638277,-8,-5,-5,-7,-7,-2,-2,-5
1526902352659221,1,-7,-2,-2,1,1,2,4
1526902352659221,7,-1,-5,-5,-4,-4,1,5
1526902352660218,-6,4,-1,0,2,-1,0,-5
1526902352660218,-1,-11,-2,-1,0,-2,1,10
1526902352673183,4,10,2,0,0,1,0,-8
1526902352673183,-13,-10,-2,-2,0,0,-4,-10
1526902352681162,19,3,0,4,0,-1,0,10
1526902352681162,-28,0,5,3,-1,-2,-8,-19
1526902352697119,-3,-21,-2,-1,-1,0,0,6
1526902352697119,-2,17,-4,-3,-2,0,1,0
1526902352698117,5,0,0,-4,-2,-3,0,4
1526902352698117,12,1,-1,-4,-2,-1,1,8
1526902352719061,6,-10,-3,-3,-1,3,-1,-2
1526902352719061,-12,5,-1,0,1,-2,-3,-2
1526902352720058,6,-8,-2,-1,0,0,0,1
1526902352720058,0,13,6,1,1,-1,1,1
1526902352733023,3,-13,-3,-2,-1,-1,0,1
1526902352733023,19,7,-1,2,1,0,-1,2
1526902352741002,-36,-6,0,-1,-1,-10,-1,-1
1526902352741002,59,-1,-1,-1,1,14,0,-1
1526902352756959,-54,1,-3,-3,-3,-5,-4,-6
1526902352756959,-15,-8,0,-2,-2,-1,-1,-2
1526902352757957,12,4,-1,3,1,2,3,1
1526902352757957,32,12,0,1,1,-4,-2,8
1526902352779898,8,-15,-4,-4,-1,-2,-3,-3
1526902352779898,-14,2,2,-1,-2,0,-2,-8
1526902352779898,-24,-3,-2,0,-3,0,-1,3
1526902352779898,-13,4,-1,-1,-3,-4,0,-2
1526902352792863,24,3,2,2,3,4,2,3
1526902352792863,-42,-4,-2,-4,-1,-9,-3,-2
1526902352800842,9,3,-3,-2,-3,1,-2,0
1526902352800842,-17,-5,-1,0,0,-1,1,-2
1526902352816799,-8,-2,0,-2,-1,0,-3,-15
1526902352816799,10,4,1,1,1,-2,0,1
1526902352817797,8,3,4,2,2,1,1,6
1526902352817797,-4,4,-2,-1,-3,-1,0,-4
1526902352839738,-4,1,-4,-2,0,-1,2,6
1526902352839738,27,16,5,-2,-2,2,1,1
1526902352840736,7,-15,-4,-3,-1,0,-1,-1
1526902352840736,-15,12,0,-1,-1,-3,-2,-10
1526902352853701,14,-10,2,1,2,1,-3,-4
1526902352853701,8,2,-1,-1,-1,1,-1,3
1526902352861679,-8,4,-1,-2,0,2,1,-6
1526902352861679,4,-16,-1,-1,1,-3,-1,3
1526902352876639,-6,-3,-5,-4,-3,-1,-2,-2
1526902352876639,8,-3,-2,-1,-1,-1,-2,-1
1526902352877637,-2,-3,-1,2,1,-3,-2,2
1526902352877637,-7,2,4,6,3,1,3,7
1526902352899578,7,11,-5,-8,-6,-3,0,2
1526902352899578,-4,-18,-1,8,2,-2,1,-7
1526902352900576,4,-4,-9,-13,-9,-4,-6,-3
1526902352900576,-4,-14,-1,-5,2,3,4,9
1526902352922517,-2,29,0,-6,-2,0,-2,-4
1526902352922517,2,-17,-2,-1,0,-1,0,1
1526902352922517,3,1,2,8,3,1,0,3
1526902352922517,-9,0,-3,5,1,-4,-5,-9
1526902352936479,-3,-23,4,-4,-6,-3,-1,4
1526902352936479,11,24,-3,-12,-1,8,6,8
1526902352937477,3,-10,3,1,-3,-4,-2,0
1526902352937477,-10,23,-2,1,-4,-5,-6,-7
1526902352959418,1,-19,4,12,7,1,2,8
1526902352959418,-1,7,2,4,-2,-4,-5,-10
1526902352960416,-4,3,-4,-5,-4,-2,-3,-6
1526902352960416,-4,-10,2,-3,0,2,3,0
1526902352982357,8,12,-1,2,0,-1,1,1
1526902352982357,-8,-8,-3,-1,-3,-2,-5,-4
1526902352983354,6,6,-3,0,-1,-6,3,2
1526902352983354,-3,-16,-4,-2,-2,8,-3,-2
1526902352996319,-2,12,0,-1,0,-4,-8,-14
1526902352996319,2,-11,-2,-1,-1,1,1,3
1526902352997317,2,1,3,2,3,-1,-3,-3
1526902352997317,-9,-3,-4,-3,-1,-3,1,2
1526902353019258,13,-10,-3,0,-2,1,2,8
1526902353019258,5,9,1,-2,-2,-1,0,1
1526902353020256,-14,-1,-2,-2,0,2,-2,-10
1526902353020256,10,2,0,-2,-1,-2,-2,-3
1526902353042197,-3,-6,-1,0,-1,1,2,4
1526902353042197,-1,-4,-1,1,0,-2,-1,-5
1526902353043194,5,3,2,-1,1,2,1,4
1526902353043194,17,-3,-2,-3,-2,0,2,6
1526902353056159,-14,-2,3,1,0,-2,-2,-8
1526902353056159,-12,3,-1,-1,0,-2,1,11
1526902353057157,-9,-6,-1,0,-1,2,5,-5
1526902353057157,6,0,-2,-1,-4,0,-5,-2
1526902353079098,59,4,-3,-2,0,-1,1,16
1526902353079098,-24,-1,-4,-2,-3,-2,-4,-15
1526902353080095,5,-2,0,0,1,3,1,2
1526902353080095,-18,-1,0,1,1,-5,2,1
1526902353102036,-3,-4,-2,0,-2,1,-3,-5
1526902353102036,-11,-5,-3,0,-1,2,2,-6
1526902353103034,-10,-2,-1,-1,-1,-4,-5,-8
1526902353103034,18,3,0,-1,-2,-1,-1,-1
1526902353115999,-4,-1,0,-3,-2,1,1,2
1526902353115999,3,3,0,-1,1,0,0,10
1526902353116998,-3,-4,-2,-2,-3,-2,-2,-11
1526902353116998,13,-2,3,2,1,0,2,5
1526902353139935,-24,7,-2,0,-2,-2,-3,-5
1526902353139935,0,3,-2,-3,-3,-2,0,-1
1526902353139935,4,15,7,3,1,2,0,0
1526902353139935,-16,0,-4,-2,1,-1,-1,4
1526902353161877,-21,-25,0,0,-1,-1,-4,-16
1526902353161877,18,7,1,3,1,0,-2,-5
1526902353162874,1,0,-4,-1,-1,1,1,5
1526902353162874,-6,0,-1,-5,-2,-2,-2,-7
1526902353176837,5,-3,-1,4,2,-1,1,4
1526902353176837,-1,4,-2,-5,-3,-2,-2,-4
1526902353176837,5,-5,0,2,-2,2,-1,3
1526902353176837,-7,-5,-2,6,5,0,1,1
1526902353199775,3,1,-1,-3,-6,-3,0,3
1526902353199775,4,7,-4,-8,-1,3,3,-1
1526902353200773,-1,6,5,5,2,-2,-1,-4
1526902353200773,-8,-10,-4,-3,-3,-11,-5,-5
1526902353221716,3,10,1,2,1,13,0,6
1526902353221716,2,-4,-2,1,-1,-3,-1,-6
1526902353222714,-5,-22,-4,-5,-4,0,2,1
1526902353222714,-10,-8,-4,-6,1,-1,0,-5
1526902353236676,5,21,5,8,4,-1,1,1
1526902353236676,-6,-31,-4,4,1,-1,1,10
1526902353236676,-7,16,-5,-6,-5,-1,-5,-12
1526902353236676,3,-1,-7,-6,-2,6,7,2
1526902353259615,0,-6,-2,-4,-1,-1,-1,7
1526902353259615,9,7,6,5,1,3,4,4
1526902353260613,-2,-5,-3,4,-1,-5,-4,1
1526902353260613,-4,-19,0,-1,-4,-3,0,4
1526902353281557,-2,14,-5,-10,-3,0,-2,-10
1526902353281557,-6,10,2,1,0,-1,-1,-1
1526902353282554,-14,-18,-1,1,1,0,1,8
1526902353282554,22,11,1,1,-2,1,-1,8
1526902353296516,-16,-9,-3,-1,-1,-3,-1,-14
1526902353296516,19,-10,-2,-2,-3,-4,-6,2
1526902353297514,2,6,1,-2,1,1,0,-4
1526902353297514,-34,1,-2,-4,-3,-1,-4,-8
1526902353319455,-6,-10,-2,3,1,-2,1,0
1526902353319455,16,2,-2,-2,-2,-3,-3,0
1526902353320453,-5,5,-1,-2,0,3,3,7
1526902353320453,3,2,0,3,1,-1,-3,-5
1526902353342394,54,-3,1,-2,-3,0,2,9
1526902353342394,-16,-2,-5,-5,-2,-2,-3,-1
1526902353342394,-13,-1,-4,-3,-1,-4,-3,-12
1526902353342394,-20,3,0,2,0,-1,-3,-4
1526902353356356,16,2,1,0,1,1,2,7
1526902353356356,-11,-4,-1,0,-1,0,0,-1
1526902353357354,1,0,-2,-2,-3,-3,-1,-8
1526902353357354,-13,3,1,2,-1,2,-1,-1
1526902353379295,-1,-3,-3,-2,-1,-5,-2,-4
1526902353379295,10,-5,0,1,0,0,2,7
1526902353380293,1,4,-4,-4,-2,-1,-1,-2
1526902353380293,5,2,2,2,-1,2,0,-5
1526902353402234,3,-4,1,-1,-2,-3,-1,10
1526902353402234,-14,3,1,0,-1,-1,-3,-16
1526902353403231,4,-6,-3,-2,-1,-1,1,10
1526902353403231,2,1,-1,1,-3,-2,1,-4
1526902353416196,-2,0,-1,-1,-2,0,1,6
1526902353416196,-21,-3,1,-1,-1,0,-1,-1
1526902353417194,-4,0,-1,-3,-1,-12,-4,-10
1526902353417194,17,1,0,0,0,10,0,7
1526902353439135,-28,5,-1,0,-1,-4,-4,-11
1526902353439135,13,-4,-3,-1,0,2,0,8
1526902353440133,13,4,2,3,1,0,1,10
1526902353440133,-11,-13,-2,-3,3,-4,-3,-5
1526902353462074,-6,16,1,0,-3,-2,-2,-7
1526902353462074,8,-10,-3,5,4,2,2,3
1526902353463071,5,19,7,0,-5,0,-4,3
1526902353463071,7,-4,-6,-12,3,6,6,-2
1526902353476036,-12,-6,-4,0,-1,0,-1,-3
1526902353476036,7,-3,2,-4,-2,-3,-2,-2
1526902353477034,-8,0,3,12,3,1,-1,-1
1526902353477034,5,-4,-1,-2,-5,-3,-1,4
1526902353499972,-9,-1,-3,-5,-2,-1,-3,-16
1526902353499972,-6,-1,-2,1,0,1,2,1
1526902353499972,7,6,-3,1,-1,1,-1,3
1526902353499972,7,2,5,4,-1,-5,0,9
1526902353521914,-10,-2,-2,1,-1,1,-1,-1
1526902353521914,-6,-9,-1,-2,-2,-3,-5,-12
