timestamp,emg1,emg2,emg3,emg4,emg5,emg6,emg7,emg8
1526902398751953,-53,-5,3,3,-3,21,-6,-4
1526902398751953,5,1,-4,-2,-4,1,-3,-4
1526902398752950,33,3,0,-4,0,-1,5,16
1526902398752950,-25,-5,-1,0,2,6,-7,-20
1526902398752950,33,0,-1,1,0,-7,2,3
1526902398752950,20,4,-4,-2,-5,2,3,3
1526902398754948,-41,-8,-1,-1,4,13,6,3
1526902398754948,-52,-3,-4,-2,-5,-3,3,17
1526902398755943,36,6,-2,-2,3,28,5,3
1526902398755943,-2,-13,3,1,-2,-39,-13,3
1526902398768908,7,3,-1,-1,-2,-6,-5,-31
1526902398768908,38,9,3,1,-1,-3,-1,8
1526902398778881,0,-4,-4,-3,-2,13,9,22
1526902398778881,-4,10,5,5,7,13,4,-4
1526902398785862,-40,-20,-7,-3,-4,-5,-3,-2
1526902398785862,6,-10,-2,-1,3,-5,1,1
1526902398799825,52,11,-5,-5,-7,15,3,21
1526902398799825,-79,-8,0,-1,-1,-3,-7,-41
1526902398814785,36,9,3,2,1,-8,-10,3
1526902398814785,-35,3,1,-1,0,12,5,-4
1526902398815783,-11,-8,-3,-1,0,8,-2,1
1526902398815783,4,-4,0,-1,-10,-29,4,-13
1526902398861660,-21,-10,-1,-1,-1,10,10,16
1526902398861660,26,2,-2,1,1,6,2,6
1526902398862657,50,7,3,1,2,6,4,13
1526902398862657,-55,-9,-4,-4,-3,2,-11,-30
1526902398863655,16,-4,-1,-4,-5,-13,0,9
1526902398863655,-9,4,0,-2,-4,-32,7,-5
1526902398867644,17,-9,-5,-1,0,5,1,6
1526902398867644,-22,4,-4,-4,-5,-4,-6,-21
1526902398873627,-31,-7,-2,0,1,-4,-10,-8
1526902398873627,13,1,-1,-2,-1,15,6,12
1526902398882604,-53,-11,-2,1,-2,-23,-19,-27
1526902398882604,76,13,2,0,-5,-26,14,38
1526902398888588,0,-9,-6,-5,-2,33,-8,-21
1526902398888588,-4,1,2,4,1,5,5,7
1526902398905542,-17,2,0,-2,3,13,-12,-3
1526902398905542,48,6,1,2,0,-2,-1,4
1526902398911526,-19,-5,-1,2,4,-3,-2,-8
1526902398911526,35,0,-3,-6,-5,-2,2,-5
1526902398934465,-8,-1,0,0,0,3,7,21
1526902398934465,21,5,-1,-1,-3,0,-3,-1
1526902398935462,9,7,-1,-1,-2,-11,-1,-1
1526902398935462,19,5,-4,-2,0,0,-9,-5
1526902398949425,11,-8,0,-7,-3,-1,5,0
1526902398949425,-30,0,-1,1,5,51,0,2
1526902398950422,24,-1,-1,-8,-4,-64,-1,10
1526902398950422,-15,-5,0,15,3,10,1,-5
1526902398971366,-9,1,-2,-2,-5,2,0,-12
1526902398971366,-25,-5,1,0,-1,-1,-7,-8
1526902398972364,-19,1,-5,-12,-5,54,13,-9
1526902398972364,-13,-4,-2,-4,3,0,-51,-4
1526902398994305,-14,0,-2,5,-5,0,38,-7
1526902398994305,1,-10,-1,-1,-1,-2,7,5
1526902398995302,94,17,1,7,2,9,4,27
1526902398995302,-95,-26,-8,-12,-6,-10,-1,-12
1526902399009265,23,6,2,4,-1,0,-16,-25
1526902399009265,-4,-4,2,2,4,2,1,13
1526902399010262,18,6,5,1,-1,-6,2,-7
1526902399010262,56,15,4,4,3,1,16,34
1526902399032203,-53,-13,-6,-9,-2,-7,-13,-31
1526902399032203,-26,-8,-1,-3,-2,-25,-18,-11
1526902399032203,-19,6,5,6,3,14,-6,1
1526902399032203,6,-2,1,0,2,7,11,9
1526902399054145,-10,8,-2,1,3,5,4,22
1526902399054145,-23,-14,-7,-11,-3,-2,-3,-16
1526902399055143,-24,-2,-2,-6,0,7,-5,-5
1526902399055143,9,4,1,9,-1,-25,-3,3
1526902399069105,28,6,1,1,6,52,11,14
1526902399069105,30,-6,-5,-16,-14,-15,13,0
1526902399070102,-43,7,4,24,7,41,0,1
1526902399070102,-65,-14,-4,-14,-11,1,-31,-47
1526902399092043,31,0,2,0,1,-22,8,21
1526902399092043,14,3,0,1,4,11,2,3
1526902399093041,24,8,1,-3,-3,-7,4,6
1526902399093041,10,-16,-2,-2,-3,-14,1,12
1526902399113985,-32,-4,-2,3,-2,2,-11,-28
1526902399113985,1,-3,-5,-1,0,2,-4,3
1526902399114982,31,6,-1,-3,-2,-25,6,17
1526902399114982,-35,-5,1,2,4,14,5,-26
1526902399128945,59,3,0,-8,-1,-12,0,6
1526902399128945,-30,5,0,5,1,-3,11,10
1526902399129943,-15,-5,-3,-1,1,-16,-6,5
1526902399129943,26,6,-2,-6,-4,-2,5,-12
1526902399151883,-64,-15,0,0,-1,50,-5,1
1526902399151883,15,17,6,4,-2,-42,8,9
1526902399152881,-16,-26,-7,-8,-4,-3,-11,-24
1526902399152881,54,9,0,3,1,11,8,17
1526902399174822,5,5,0,-3,3,-13,0,9
1526902399174822,-7,-3,1,-2,5,56,-20,-14
1526902399174822,36,-1,-1,12,-2,-34,6,-1
1526902399174822,-37,-1,-1,2,0,-4,5,8
1526902399188785,-10,-4,-4,-10,-3,-5,9,6
1526902399188785,-15,-9,-4,15,-1,-22,-31,-33
1526902399195766,9,6,2,-6,-4,5,18,3
1526902399195766,-17,1,-4,-1,0,7,-4,-4
1526902399211723,-1,7,0,-1,-1,-7,1,10
1526902399211723,35,-4,-1,3,3,19,16,29
1526902399212721,9,4,-3,-22,-12,-2,-7,-6
1526902399212721,-43,1,2,14,3,0,-3,-32
1526902399234662,31,2,-1,-1,1,-6,-2,10
1526902399234662,-16,-3,2,-5,-3,-10,-14,-22
1526902399234662,57,3,-2,5,4,-6,-9,-5
1526902399234662,33,-3,-3,-12,-3,19,8,23
1526902399248625,-48,-3,-2,-2,-5,-24,-5,4
1526902399248625,-3,3,2,2,4,-3,-2,-16
1526902399256603,-7,1,1,-4,4,34,-1,11
1526902399256603,2,-2,1,0,-6,-51,15,8
1526902399271563,37,-4,-2,6,1,-27,-25,1
1526902399271563,-28,4,0,-7,-3,-31,-20,-11
1526902399272561,-47,-2,0,0,0,26,11,1
1526902399272561,0,-1,4,-5,2,14,2,0
1526902399294502,8,5,-4,1,-3,51,12,13
1526902399294502,-38,-14,-5,-1,-4,-1,8,-19
1526902399295499,-11,-5,-3,1,1,2,-14,1
1526902399295499,-9,1,-3,-6,-3,-9,-22,-42
1526902399308465,34,9,3,5,3,2,3,-1
1526902399308465,-10,-14,-1,10,-9,-29,8,19
1526902399316443,-46,-3,-1,3,1,2,0,-4
1526902399316443,41,7,0,-2,-2,18,-5,8
1526902399331403,-24,0,0,-8,-18,-86,-1,-14
1526902399331403,45,5,-2,-3,4,17,10,3
1526902399332401,65,5,0,1,2,-10,7,11
1526902399332401,-40,-6,1,-4,-1,-17,5,4
1526902399354342,-34,-8,-1,-2,2,26,-12,-31
1526902399354342,30,6,7,5,5,0,8,30
1526902399355340,-1,0,-1,-4,-6,-7,3,-1
1526902399355340,-24,-4,-5,-4,1,23,1,-5
1526902399368304,24,5,0,4,7,-14,1,16
1526902399368304,-43,2,-6,-5,-3,44,8,-20
1526902399376283,-14,-9,0,-2,2,8,-8,9
1526902399376283,-9,3,3,3,1,19,-2,-6
1526902399392241,-11,-4,3,4,-1,-31,-12,-12
1526902399392241,33,11,0,-12,0,28,13,21
1526902399392241,-24,-10,-3,10,-7,-77,4,-19
1526902399392241,-12,-2,-5,6,4,12,-4,26
1526902399414182,53,-9,0,-5,-8,-2,-6,-10
1526902399414182,-35,-3,-4,-7,1,9,-11,-7
1526902399415180,22,-3,-2,-6,-4,-1,3,7
1526902399415180,10,2,-1,-5,-2,4,-2,10
1526902399429142,-18,-6,-1,0,3,23,3,4
1526902399429142,-16,0,1,9,3,-41,-9,7
1526902399436123,41,-6,1,-8,-2,27,-20,-1
1526902399436123,-61,-3,1,3,-2,-14,-2,-38
1526902399452081,27,4,-7,-9,-5,9,-5,14
1526902399452081,38,3,2,0,1,29,10,14
1526902399453078,-38,3,-2,-1,0,-40,-4,-24
1526902399453078,60,5,1,1,3,13,6,22
1526902399474022,-22,-1,-2,2,0,-15,9,23
1526902399474022,6,-9,-2,-3,3,29,-4,-26
1526902399475020,23,17,4,0,-2,5,16,21
1526902399475020,-2,4,7,5,4,6,-7,-8
1526902399496961,0,-1,-1,-1,-3,10,37,16
1526902399496961,-8,-8,-3,-2,-3,-27,2,15
1526902399497958,-56,-8,-6,-6,-1,16,-11,-26
1526902399497958,16,2,1,-2,-2,1,13,22
1526902399511921,-1,7,2,6,4,14,-9,-21
1526902399511921,40,2,2,6,-2,-32,2,7
1526902399512919,13,3,-4,-7,-1,20,-4,8
1526902399512919,23,5,-2,10,-1,22,1,2
1526902399533862,-27,-7,1,-4,-2,-37,-8,3
1526902399533862,-33,-7,-5,-9,-4,24,0,-39
1526902399534859,-29,-4,0,4,-1,-47,-28,-8
1526902399534859,97,5,-2,-4,-7,-45,0,7
1526902399548822,-12,-6,-6,-4,-5,12,-7,-22
1526902399548822,-27,-10,-4,-3,0,3,-6,10
1526902399555803,-15,-8,3,5,4,27,21,1
1526902399555803,-2,5,1,-1,4,-7,-11,-4
1526902399571761,7,-1,-3,-1,-1,-17,-14,-11
1526902399571761,47,6,2,0,-1,4,6,18
1526902399572758,-40,-10,-5,-4,-4,20,-9,-15
1526902399572758,-52,-18,-5,-6,-1,17,5,16
1526902399594699,-23,2,6,10,8,18,-5,-36
1526902399594699,41,3,-3,-2,-2,-6,7,19
1526902399594699,-7,-1,-1,-3,-6,38,8,-2
1526902399594699,-25,-1,-7,-4,5,6,4,16
1526902399616641,-34,-5,-2,-1,3,44,-12,13
1526902399616641,22,7,3,-1,-1,-8,1,-17
1526902399617638,-55,-5,-1,1,-1,-54,-11,-11
1526902399617638,8,1,1,-4,-1,1,10,4
1526902399631601,7,1,3,3,2,25,18,-1
1526902399631601,-4,2,-4,-6,-5,-23,-20,-6
1526902399632598,3,13,9,11,8,10,9,15
1526902399632598,-16,-7,-3,-2,-1,-17,-15,-18
1526902399654539,17,-3,-1,-5,-2,-1,12,20
1526902399654539,-2,6,0,9,-3,9,-2,12
1526902399655537,32,-4,-2,-6,0,16,1,3
1526902399655537,8,-7,-3,-5,-11,-45,-4,-11
1526902399676481,-21,2,8,8,4,1,-8,-7
1526902399676481,-18,-1,-1,-3,-1,4,16,-4
1526902399677478,42,4,-1,2,1,0,6,13
1526902399677478,8,-6,-3,-1,-6,-25,-23,0
1526902399692440,13,-5,-8,-7,0,2,-3,7
1526902399692440,-21,-3,3,3,3,6,-15,-17
1526902399692440,29,6,3,4,-4,-13,19,-4
1526902399692440,-15,-1,-4,-5,3,19,1,-1
1526902399714379,4,3,-5,-5,-3,8,6,3
1526902399714379,-7,-3,0,0,-1,0,-7,14
1526902399715377,16,-6,-8,-8,4,7,-24,-3
1526902399715377,7,10,7,5,-2,24,20,11
1526902399737318,25,2,3,3,-1,-2,-9,-27
1526902399737318,-77,-4,-2,-5,1,-11,1,-18
1526902399737318,-27,-12,-6,-5,0,0,-2,4
1526902399737318,11,8,0,-3,-2,-2,3,1
1526902399752278,1,0,1,1,2,-17,2,12
1526902399752278,15,-3,-2,1,0,32,11,0
1526902399752278,-4,-6,1,4,-2,-53,-29,-23
1526902399752278,-24,0,-3,-1,-3,9,2,-11
1526902399774219,17,9,-1,-2,-5,-13,4,13
1526902399774219,-22,-10,-6,-5,-5,-15,-11,-15
1526902399775217,-37,0,5,5,4,-3,-3,-40
1526902399775217,24,-2,1,4,1,11,12,14
1526902399797158,13,3,-3,-1,-2,-18,-9,-2
1526902399797158,84,15,2,-3,-1,0,3,30
1526902399797158,0,-4,-4,-5,-2,43,17,0
1526902399797158,-35,-5,1,2,-2,-91,-50,-24
1526902399812118,20,1,-4,-12,-8,42,23,11
1526902399812118,-27,-3,9,13,7,7,2,-8
1526902399813116,52,12,0,1,0,-26,-1,25
1526902399813116,-15,-9,-6,-6,0,8,-5,-4
1526902399834059,6,-2,-7,-5,-2,-42,7,9
1526902399834059,20,3,2,0,6,17,-6,-10
1526902399842038,-17,1,7,8,4,7,6,-11
1526902399842038,-1,3,-2,-1,-2,19,16,23
1526902399856998,1,9,5,6,4,-3,-6,-7
1526902399856998,2,-16,-7,-6,-2,10,15,28
1526902399857995,9,0,-1,-2,0,1,-6,2
1526902399857995,-8,-3,-4,-5,-3,-7,-5,-9
1526902399878939,14,3,0,2,2,13,1,-8
1526902399878939,7,8,1,0,-2,-25,-11,-4
1526902399879937,-36,-19,-8,-9,-9,12,4,1
1526902399879937,17,0,3,2,3,23,-10,-6
1526902399893899,-19,-10,-3,-2,-1,2,5,-12
1526902399893899,-27,6,-2,-5,-5,-19,-4,0
1526902399901878,15,5,1,2,1,11,-3,5
1526902399901878,-20,1,4,3,2,2,1,-10
1526902399916838,-11,-2,2,5,0,-3,-14,-13
1526902399916838,-22,-7,-9,-12,-8,16,5,23
1526902399917835,73,26,13,9,12,3,-7,9
1526902399917835,-11,-4,-2,1,-1,-3,-2,-21
1526902399939776,-25,2,1,1,0,23,-3,12
1526902399939776,40,1,-5,-5,-5,-15,-2,8
1526902399939776,-18,0,-3,0,-4,-24,-25,-1
1526902399939776,31,-1,-1,0,-1,-1,8,12
1526902399953739,-20,-1,0,2,1,6,-4,-13
1526902399953739,-14,-1,3,4,4,1,3,4
1526902399961718,-11,-9,-8,-8,-4,63,13,-14
1526902399961718,3,-4,-3,-6,-9,-44,-22,-2
1526902399976677,-14,-8,-5,-8,-6,-23,11,7
1526902399976677,11,8,7,5,1,2,1,-1
1526902399977675,-5,0,1,3,1,-14,1,6
1526902399977675,-36,-3,0,4,4,14,-7,-14
1526902399999616,-11,-5,-5,-2,-3,-13,-14,-11
1526902399999616,32,4,-6,-3,-3,-17,-6,-15
1526902400000614,24,-6,-8,-7,-1,-2,7,6
1526902400000614,-35,-4,1,4,1,7,11,-6
1526902400013579,11,0,0,-3,-2,26,-1,13
1526902400013579,-8,-10,-4,0,2,-16,-7,-4
1526902400021558,-21,8,2,0,-1,-8,-3,-1
1526902400021558,39,2,-3,-3,-4,18,12,3
1526902400036518,1,2,0,0,-3,-35,-10,-15
1526902400036518,-14,-3,-1,-2,2,-11,7,4
1526902400037515,17,1,3,5,-6,-37,-3,25
1526902400037515,-16,3,-2,-1,1,38,14,-20
1526902400059456,6,3,-2,-4,-2,-15,-7,30
1526902400059456,19,0,2,4,4,2,-4,-30
1526902400060454,-40,-14,-7,-8,-5,-21,-5,-10
1526902400060454,20,9,7,7,6,23,3,6
1526902400073419,-2,-14,-4,-2,-1,8,0,2
1526902400073419,11,7,2,3,-2,10,5,5
1526902400081397,-28,-7,3,2,0,22,-1,-16
1526902400081397,8,0,-2,-4,0,14,1,18
1526902400097355,5,0,1,4,5,-9,-18,-11
1526902400097355,-25,-4,-3,-7,-3,50,6,17
1526902400097355,-6,1,5,4,4,-19,21,-9
1526902400097355,5,-6,-5,-6,-5,-5,1,-3
1526902400119296,-10,6,1,2,1,1,4,2
1526902400119296,4,-10,0,2,3,0,-10,-10
1526902400120294,42,3,-5,-7,-6,-11,-2,9
1526902400120294,3,-4,-2,-2,3,19,17,11
1526902400133259,13,-3,-1,-2,-5,-20,-17,-20
1526902400133259,-2,5,6,7,10,-12,-5,-9
1526902400142235,-19,-7,-8,-7,-11,9,-2,-15
1526902400142235,24,9,3,0,1,-16,-3,10
1526902400157195,30,-12,0,2,0,2,10,12
1526902400157195,16,6,2,1,-2,-19,4,-9
1526902400157195,-82,-11,-3,-3,4,11,-27,-22
1526902400157195,3,4,-5,-4,0,15,7,6
1526902400179136,39,8,2,6,3,56,2,4
1526902400179136,-23,-8,-1,-4,-10,-66,2,-12
1526902400180134,44,13,-2,-4,1,16,7,18
1526902400180134,-38,-12,0,1,-3,-22,-5,-7
1526902400202075,-11,0,0,-1,1,15,9,-4
1526902400202075,11,3,1,3,0,-9,-11,11
1526902400203072,-19,-10,-3,0,-1,13,1,-12
1526902400203072,-25,2,0,-2,-3,-16,-3,-9
1526902400217035,12,1,0,-2,1,-14,-3,4
1526902400217035,2,-15,-8,-6,-3,13,0,4
1526902400218033,50,5,-7,-8,-4,9,15,28
1526902400218033,-9,5,3,3,-1,-35,-8,-3
1526902400238977,-52,-7,2,1,-1,0,-4,-25
1526902400238977,19,4,-1,2,-1,-11,1,5
1526902400239974,-10,3,-1,0,2,15,10,15
1526902400239974,-21,-10,-1,-4,-1,25,-6,-13
1526902400262912,0,5,-1,-2,-4,-36,2,8
1526902400262912,-13,-7,-3,-3,6,35,0,-17
1526902400262912,15,0,2,4,-1,26,20,13
1526902400262912,64,14,5,3,-1,-58,-7,-7
1526902400276875,-33,-8,-3,-4,-6,-15,-5,-9
1526902400276875,-33,-7,-2,-1,-1,29,0,-11
1526902400277872,10,5,3,2,2,9,-1,-3
1526902400277872,-3,-4,-5,-5,-4,-30,-6,3
1526902400299813,51,2,-4,-4,-2,26,2,-1
1526902400299813,13,11,3,-1,0,3,11,23
1526902400299813,-19,-9,-2,0,-2,-33,-21,-13
1526902400299813,39,-3,-1,-2,0,20,5,1
1526902400321755,7,3,-1,-4,1,-37,-14,10
1526902400321755,-34,-13,-6,-5,-4,6,17,-7
1526902400322752,34,16,3,3,2,4,-6,4
1526902400322752,-2,-13,-4,-4,-2,-6,5,11
1526902400336715,-23,7,2,2,1,11,6,-4
1526902400336715,-4,0,-2,-3,-3,4,-8,4
1526902400337712,5,11,6,5,3,-14,-10,9
1526902400337712,-14,-13,-6,3,5,28,9,-41
1526902400359653,-13,0,-5,-7,-13,-60,4,-5
1526902400359653,-25,-2,1,2,0,-16,-12,-14
1526902400359653,-16,-16,-3,-3,2,12,5,-3
1526902400359653,51,18,2,-1,2,65,16,35
1526902400381595,24,-19,2,7,7,18,3,11
1526902400381595,-41,-5,-4,-4,-4,3,-4,-20
1526902400382592,27,5,0,-1,-6,-61,-9,2
1526902400382592,24,-2,4,2,2,-1,-14,3
1526902400396555,3,-5,-1,0,2,17,9,19
1526902400396555,-4,9,1,0,-1,-1,-5,3
1526902400397552,-17,-12,-7,-4,-2,20,-1,-30
1526902400397552,37,11,1,-1,-5,-16,4,25
1526902400419493,-9,-1,0,0,1,10,-2,-4
1526902400419493,8,-3,-3,-2,-4,2,2,-11
1526902400420491,-24,-15,-3,-7,-3,-5,5,8
1526902400420491,-50,3,1,-1,-1,-23,-6,-6
1526902400441435,45,-2,-3,-2,-4,-21,-6,1
1526902400441435,-52,-3,0,2,2,25,8,-8
1526902400442432,27,-4,-1,-1,-2,-5,-21,11
1526902400442432,-23,-4,-1,0,5,66,5,3
1526902400456395,-24,9,3,4,3,3,0,1
1526902400456395,-2,-7,-2,-2,-1,-7,-7,12
1526902400457392,13,6,0,3,-1,-4,10,5
1526902400457392,-6,3,3,1,2,1,-15,-27
1526902400479333,-27,-1,-1,-3,-4,-7,-3,-10
1526902400479333,27,5,0,1,2,-5,4,22
1526902400480331,11,7,-1,-1,-3,-3,-7,-24
1526902400480331,-62,-16,-4,-5,-4,-22,-4,-3
1526902400502272,-7,3,-3,-2,0,11,1,-13
1526902400502272,27,6,0,-2,-3,22,8,18
1526902400502272,12,-7,-2,3,4,-15,9,9
1526902400502272,-78,0,1,3,0,4,-1,-6
1526902400517232,16,-5,-8,-5,-8,-11,-1,10
1526902400517232,-9,-1,1,-5,2,18,0,-5
1526902400517232,3,11,0,-7,1,24,-10,-7
1526902400517232,49,-4,-2,-2,-4,-29,10,17
1526902400539174,-9,-13,0,9,3,28,3,-24
1526902400539174,-7,5,-2,3,6,11,-25,10
1526902400540171,-57,-12,-5,-2,-10,-49,5,-14
1526902400540171,22,1,-1,-10,-4,-3,-7,-1
1526902400562112,-1,1,0,-8,0,0,13,27
1526902400562112,-24,-7,0,11,5,-27,-22,-47
1526902400563109,60,14,1,-3,-4,25,13,15
1526902400563109,-77,-17,-4,-1,-1,2,-16,-8
1526902400577072,26,12,1,-5,0,4,1,9
1526902400577072,7,-7,-1,-2,-3,-14,-10,-21
1526902400578069,-24,0,-1,-3,-6,-1,10,12
1526902400578069,13,-2,-4,1,-3,-27,-18,-18
1526902400599015,11,1,-4,0,2,14,2,0
1526902400599015,-24,-14,1,-3,-8,-23,13,4
1526902400600011,-5,4,1,-11,3,25,-6,-1
1526902400600011,32,4,3,26,4,2,-9,4
1526902400621952,8,4,-1,-6,-1,7,26,-5
1526902400621952,-17,0,-2,5,2,16,-9,-6
1526902400622949,-1,-12,-1,-3,-4,-62,-1,-1
1526902400622949,34,4,-4,-5,-3,-29,-1,-6
1526902400636912,-49,-15,-5,0,-2,12,-9,-30
1526902400636912,73,17,3,-3,0,26,8,16
1526902400637915,-15,-10,0,7,-1,-9,-5,-11
1526902400637915,-14,2,-1,-3,2,14,8,17
1526902400659851,-9,-5,1,1,-1,1,-7,-8
1526902400659851,24,-1,-6,-12,-8,-15,9,9
1526902400659851,-16,-2,1,4,8,2,-19,-4
1526902400659851,40,1,3,-3,-3,8,14,20
1526902400681792,12,2,-1,-12,-1,-8,-27,-29
1526902400681792,-17,-4,-1,7,2,-6,11,18
1526902400682790,-19,-5,-5,-10,-2,2,-3,-22
1526902400682790,32,7,-2,5,-8,-39,16,22
1526902400696752,10,1,3,-1,-3,10,-3,11
1526902400696752,8,2,-1,-4,1,-9,0,3
1526902400697750,69,9,1,8,1,3,8,26
1526902400697750,-43,-4,-2,-10,0,60,5,-49
1526902400719690,17,11,2,5,0,-13,-25,6
1526902400719690,-22,-16,-4,-2,-7,-6,0,11
1526902400719690,8,-5,-1,-3,-1,14,-5,-5
1526902400719690,28,7,0,-2,3,17,9,18
1526902400741632,10,9,0,8,0,-1,-2,0
1526902400741632,2,1,2,0,4,26,-1,3
1526902400742629,-41,-12,0,-1,0,-41,8,15
1526902400742629,21,-3,-4,-4,1,-27,-17,-14
1526902400756592,-20,-2,-2,-1,-6,12,-3,-1
1526902400756592,14,6,0,-1,5,2,3,4
1526902400757589,-31,-7,-1,3,0,31,-2,-39
1526902400757589,18,2,1,1,0,18,9,14
1526902400779531,-43,-2,-1,-1,-1,-7,-4,-1
1526902400779531,71,9,-1,0,-2,-56,-14,1
1526902400780528,-52,-6,-4,-7,2,38,3,-10
1526902400780528,49,-1,-3,4,1,-17,-1,31
1526902400801472,-60,-8,-4,-3,0,15,4,-19
1526902400801472,-9,-4,4,0,-5,-24,-9,12
1526902400802470,23,8,-5,-1,1,22,2,15
1526902400802470,-4,0,1,1,-6,-83,-5,-4
1526902400816432,-2,-8,-2,-9,-2,-12,5,0
1526902400816432,10,4,0,13,3,23,11,9
1526902400824410,-32,-3,2,1,1,-11,-6,-30
1526902400824410,10,-5,0,3,-2,37,11,14
1526902400839370,20,8,3,7,2,-6,19,14
1526902400839370,34,7,-4,-13,-8,17,2,7
1526902400840368,-45,-5,1,-1,-3,-15,-10,-16
1526902400840368,-12,-1,2,4,7,-2,-1,-17
1526902400862309,-5,-6,-3,-5,-7,-17,-1,-5
1526902400862309,29,5,-2,0,1,15,-2,7
1526902400862309,14,5,2,0,-1,-7,2,5
1526902400862309,-38,-5,-3,-7,1,22,-8,-10
1526902400876272,-35,-2,1,5,0,-20,16,23
1526902400876272,-9,0,-6,-8,-2,-19,-9,-33
1526902400884250,20,1,-2,2,0,13,-15,-16
1526902400884250,-54,-4,-3,-6,-2,-43,-25,1
1526902400899211,58,7,1,4,7,66,7,18
1526902400899211,-21,-2,2,2,-3,-16,11,10
1526902400900208,-5,-2,0,0,-2,0,8,6
1526902400900208,68,5,1,-1,1,14,-1,16
1526902400922149,-3,-4,-6,-15,-5,-8,-18,-25
1526902400922149,-1,-8,0,-1,-4,-28,-2,-7
1526902400922149,52,8,-2,1,1,7,15,33
1526902400922149,-38,-7,-5,-6,-1,12,-12,-41
1526902400936112,30,7,1,3,-3,-19,22,33
1526902400936112,-36,-8,-4,0,-3,0,-10,-39
1526902400944091,-23,-5,-2,-2,-3,-6,5,15
1526902400944091,0,6,1,3,1,33,10,7
1526902400959050,28,-3,-3,-6,2,-49,-37,3
1526902400959050,-29,-3,1,1,-1,43,24,-3
1526902400960048,61,5,2,4,-2,-6,-1,-18
1526902400960048,-23,0,-3,-7,-5,-4,-2,-5
1526902400981989,-20,-7,1,4,3,30,6,-5
1526902400981989,33,13,0,-5,-2,-43,-15,5
1526902400982987,-25,-5,-3,3,1,36,8,16
1526902400982987,18,1,3,-1,-4,-1,12,6
1526902400995952,2,2,1,3,2,15,-14,-42
1526902400995952,19,-3,-6,-6,-3,-28,-7,6
1526902401003931,18,1,0,-2,-1,1,1,12
1526902401003931,-39,-4,-3,-3,-2,-22,-9,-17
1526902401018890,-3,-2,0,7,1,33,6,-1
1526902401018890,-24,-9,-1,-5,-7,-39,28,-10
1526902401019888,23,0,-3,4,2,0,-8,5
1526902401019888,-12,3,5,4,1,20,10,9
1526902401041829,14,4,2,-1,-2,-10,-10,5
1526902401041829,-28,3,0,-3,2,27,-2,0
1526902401042826,22,-1,-3,-3,-5,-24,-11,0
1526902401042826,-27,-15,1,-2,-1,22,1,-20
1526902401055792,-37,6,0,-4,-6,-80,-3,6
1526902401055792,-25,-8,-1,10,2,17,-21,-5
1526902401064768,-4,-1,-2,-2,0,5,14,11
1526902401064768,26,6,-4,-3,2,19,-8,15
1526902401079728,-37,-8,-1,-2,2,11,1,12
1526902401079728,25,3,-2,-2,-2,7,-4,-16
1526902401079728,8,9,3,2,3,-13,-3,3
1526902401079728,-28,-18,-4,-1,-3,-12,5,-18
1526902401101670,52,8,-1,-1,-1,30,3,9
1526902401101670,28,1,0,-3,-4,-46,-14,13
1526902401102667,-59,-8,-4,-3,5,28,-7,-29
1526902401102667,41,3,-3,-1,-1,5,-4,4
1526902401116629,-32,-6,-4,0,2,22,1,-9
1526902401116629,14,-3,0,0,0,-9,-1,15
1526902401124607,-17,-4,0,-10,-4,-2,-15,-9
1526902401124607,33,9,4,16,3,1,24,1
1526902401139567,-22,-21,-9,-2,-5,-40,9,-10
1526902401139567,-2,8,1,0,1,36,-12,-7
1526902401140565,22,3,-2,-3,-4,-27,-10,-3
1526902401140565,36,7,3,-1,3,-28,-10,15
1526902401161509,-32,-3,2,0,-2,47,4,-22
1526902401161509,22,0,1,0,2,12,15,-11
1526902401162506,-30,-10,3,2,9,23,-11,5
1526902401162506,38,4,-5,-9,-18,-58,-1,30
1526902401185445,20,0,3,5,6,12,-17,-41
1526902401185445,-34,-7,3,1,2,10,2,7
1526902401185445,48,3,-1,3,-2,-2,10,7
1526902401185445,-30,-1,0,-3,-2,-1,-5,-15
1526902401199408,25,6,-1,-6,-1,-13,-1,20
1526902401199408,-46,-5,0,-1,2,63,0,-10
1526902401200405,7,6,3,4,-7,-16,33,10
1526902401200405,4,-6,0,1,6,27,-17,-8
1526902401222346,52,13,-1,-2,-10,-41,-21,17
1526902401222346,-44,-11,-5,-4,-2,6,-3,-15
1526902401222346,19,-6,-4,-2,-6,22,0,10
1526902401222346,-52,-6,-4,-9,-3,11,0,-12
1526902401245285,36,13,7,4,15,28,18,27
1526902401245285,22,6,1,2,2,-4,5,3
1526902401246283,-45,-15,-6,-5,-6,-31,-14,-17
1526902401246283,20,6,2,1,-3,14,2,0
1526902401259248,-22,-14,-4,1,2,-4,7,-2
1526902401259248,18,2,-2,-5,-2,-30,-5,-1
1526902401260245,-3,19,12,12,4,-4,-1,-8
1526902401260245,34,3,-4,-5,-1,-4,-2,4
1526902401282186,-39,-10,-5,-5,-1,36,3,1
1526902401282186,-7,-7,-1,1,-1,-10,7,2
1526902401282186,30,6,-4,-3,0,9,7,16
1526902401282186,-52,-9,0,4,8,32,-5,-27
1526902401305125,21,1,0,1,-2,11,-28,-12
1526902401305125,46,4,-3,-4,-5,-10,19,22
1526902401306122,-35,-3,-5,-2,1,-10,-15,-13
1526902401306122,17,0,-3,-9,-7,-43,21,16
1526902401319088,-1,27,21,19,7,4,10,0
1526902401319088,-19,-12,1,4,8,11,-16,-24
1526902401320085,-1,-4,-3,-5,-6,-8,4,4
1526902401320085,11,1,-1,-3,-7,-8,-7,0
1526902401342026,23,-1,-7,-8,-5,-3,1,12
1526902401342026,-13,-1,1,-1,2,-10,7,9
1526902401343024,12,8,10,11,9,40,0,-2
1526902401343024,-32,-11,-8,-4,-4,-48,-7,-15
1526902401364965,-10,-6,-8,-7,-8,-30,7,16
1526902401364965,11,6,-2,0,-6,16,-15,-11
1526902401365962,4,-4,-3,-4,-1,4,13,11
1526902401365962,43,11,6,6,10,40,0,6
1526902401378927,-45,-5,-2,-1,-3,-16,34,-3
1526902401378927,20,-4,-6,-5,-11,-63,-18,4
1526902401379925,-15,-11,-7,-8,-7,0,0,-14
1526902401379925,48,9,0,-2,-2,-9,14,19
1526902401401866,3,-4,-2,2,3,12,-6,-23
1526902401401866,21,-2,-2,0,-1,25,0,13
1526902401402864,-59,-5,-1,-5,-17,-90,-22,-15
1526902401402864,16,-13,-5,-3,-2,15,-4,-2
1526902401424805,24,5,-4,-6,-3,-4,-6,0
1526902401424805,-50,-19,-10,-7,-2,-6,3,7
1526902401425802,11,4,3,3,5,9,-12,-5
1526902401425802,-22,0,-3,3,-3,-5,0,4
1526902401439765,4,-5,-1,0,-6,-18,-8,0
1526902401439765,-9,0,2,-3,2,19,-3,-10
1526902401439765,11,9,10,16,6,-8,-7,-23
1526902401439765,-39,-21,-8,-5,0,17,-24,-38
1526902401461706,-49,0,-2,-4,-1,-14,13,10
1526902401461706,46,4,-2,-2,1,2,-1,-8
1526902401462704,13,-6,-8,-10,-2,34,27,50
1526902401462704,-83,-10,5,3,1,-17,-12,-45
1526902401484645,45,5,5,5,0,1,-9,3
1526902401484645,-62,-6,-5,-5,5,11,8,-6
1526902401484645,3,3,-7,-13,-13,-48,-30,6
1526902401484645,17,6,12,17,10,-1,19,20
1526902401499605,2,-10,-12,-8,-11,-4,-10,-18
1526902401499605,22,5,1,-2,1,11,2,-2
1526902401500602,-7,-1,-3,-2,5,25,2,5
1526902401500602,-14,4,-1,-4,-2,-6,-18,-3
1526902401521546,-7,1,9,3,7,-10,1,-7
1526902401521546,-9,9,3,6,-2,-13,-3,1
1526902401522544,7,-5,-3,1,-2,6,3,-18
1526902401522544,-2,-7,-3,-5,-3,6,3,19
1526902401544485,2,-8,-5,-2,2,2,0,5
1526902401544485,-9,10,0,1,-3,34,12,11
1526902401545483,6,0,4,4,2,-16,-13,7
1526902401545483,0,4,-5,-8,0,23,9,-3
1526902401559445,5,-10,-6,-7,-5,-4,13,17
1526902401559445,-23,-7,5,3,-3,-88,-31,-17
1526902401560442,60,9,-1,1,2,24,12,14
1526902401560442,-76,-4,-6,-6,-7,-2,-2,4
1526902401582383,26,-2,0,0,-3,14,-9,-11
1526902401582383,8,3,5,7,5,-4,3,-12
1526902401582383,-7,-2,5,5,-1,36,13,-1
1526902401582383,30,2,-3,-7,-7,-61,0,-2
1526902401604325,-2,6,5,2,3,14,-1,8
1526902401604325,-11,-3,-8,-9,-2,-5,2,8
1526902401605322,-52,-15,-6,-4,-3,0,-21,-24
1526902401605322,61,4,1,3,3,20,20,24
1526902401619285,-45,-4,-3,-3,-1,-10,-15,-13
1526902401619285,13,3,-5,-1,-2,4,11,14
1526902401620282,0,-5,-1,0,4,21,-5,-9
1526902401620282,-27,1,-1,-5,-8,-2,-6,-20
1526902401642224,6,2,3,1,0,-7,6,6
1526902401642224,25,0,1,-2,-6,-29,1,2
1526902401642224,-4,2,-1,4,4,4,32,11
1526902401642224,10,6,2,3,5,-15,-30,9
1526902401664165,38,-1,-4,-2,-7,-3,-13,-23
1526902401664165,-8,-1,-2,0,0,31,-1,-5
1526902401665162,-2,1,2,-2,0,-7,15,2
1526902401665162,-3,-4,-6,-2,0,2,3,6
1526902401679125,51,1,3,3,2,-19,2,13
1526902401679125,-35,-1,2,-1,0,25,6,3
1526902401680122,18,1,-8,-8,-6,-19,-11,2
1526902401680122,-9,-7,-5,-1,-2,11,-6,-3
1526902401702063,-11,-2,-1,0,1,2,3,10
1526902401702063,20,2,4,2,1,-11,-6,-1
1526902401703061,14,6,-1,-1,-2,50,-1,7
1526902401703061,-27,-10,-2,-7,-3,-13,-33,-16
1526902401724005,-28,-6,-7,-5,-2,-25,7,-1
1526902401724005,20,-6,2,6,8,41,4,-6
1526902401725002,-38,0,-2,0,0,-16,-10,-7
1526902401725002,5,-3,-1,-2,1,33,11,-2
1526902401738964,-4,-3,-2,1,-4,-21,-13,-7
1526902401738964,6,-5,-1,-1,0,7,-3,-11
1526902401746943,-25,2,-4,-6,5,19,22,-1
1526902401746943,40,18,12,12,-7,-82,-52,-2
1526902401761903,-59,-12,-6,-6,-1,5,-1,-18
1526902401761903,34,8,1,1,1,15,5,35
1526902401762901,-20,-6,1,1,0,-12,-2,-17
1526902401762901,-42,-5,-5,-8,-5,19,29,0
1526902401784842,41,0,3,3,1,13,2,9
1526902401784842,-4,8,-1,-3,-7,-12,-17,-4
1526902401784842,-6,-3,0,2,-3,-22,8,3
1526902401784842,34,-2,2,1,5,9,10,12
1526902401798805,-48,0,-5,-3,1,4,-3,-3
1526902401798805,1,3,-2,-3,-8,-6,-6,-16
1526902401806783,41,4,3,1,3,-19,5,27
1526902401806783,4,1,-1,0,-6,-14,-1,-31
1526902401821743,-19,4,2,1,1,27,2,1
1526902401821743,-5,-2,0,1,4,23,-2,3
1526902401822741,-8,-1,1,-4,-1,15,-11,0
1526902401822741,25,-1,3,7,0,-8,15,21
1526902401844682,20,-1,-5,-5,1,16,4,5
1526902401844682,-5,-1,0,3,1,-1,9,1
1526902401844682,-9,-9,0,-1,-1,-37,-18,-14
1526902401844682,49,7,1,-1,3,13,13,13
1526902401858645,-44,6,0,-3,-2,-8,-7,-11
1526902401858645,-38,-23,-4,-3,0,16,6,-1
1526902401866623,52,4,-3,-3,-3,31,-3,3
1526902401866623,-26,0,-3,-6,-8,-71,7,-14
1526902401881583,18,9,7,10,6,1,-22,1
1526902401881583,55,-1,-3,-4,-7,8,-9,8
1526902401882581,-41,-6,-2,2,0,-26,2,0
1526902401882581,5,-1,-2,0,5,46,-10,-5
1526902401904522,-10,-11,-3,-6,-8,13,22,-9
1526902401904522,-1,5,0,3,3,-41,-6,26
1526902401905519,27,6,3,6,1,49,-4,0
1526902401905519,0,4,1,-1,-12,-18,5,-4
1526902401918485,-24,-7,0,1,-1,-8,-13,-5
1526902401918485,1,0,-3,-3,-3,4,3,-8
1526902401926463,16,9,-3,-4,-3,-32,-20,-13
1526902401926463,-23,-10,0,1,7,32,6,19
1526902401941423,8,4,1,4,-1,13,10,-1
1526902401941423,-16,-7,-2,-4,-9,-60,-18,-23
1526902401942421,-12,2,2,2,3,30,6,7
1526902401942421,19,-2,-6,-7,-3,-14,-17,-8
1526902401964362,-6,-3,-1,-1,1,18,5,11
1526902401964362,10,-4,-2,-2,1,4,3,-6
1526902401965360,24,3,0,-2,-1,-3,0,-10
1526902401965360,-47,-3,0,1,2,29,3,22
1526902401978324,45,-1,1,0,-3,-52,-15,-25
1526902401978324,-5,5,2,1,3,8,-1,3
1526902401987300,-32,-7,-2,-1,-1,0,11,1
1526902401987300,7,-1,3,1,-1,16,10,2
1526902402002261,23,6,-3,-3,-1,-3,-4,4
1526902402002261,2,4,1,-2,1,3,4,5
1526902402002261,4,-9,-6,-1,0,-20,-11,-11
1526902402002261,17,2,-1,-3,1,15,13,13
1526902402024202,-36,-11,-4,-2,-1,-10,-10,3
1526902402024202,15,11,5,2,3,56,8,-4
1526902402025199,-31,-3,-1,-6,-10,-31,-8,-6
1526902402025199,10,12,9,9,5,5,6,-14
1526902402047141,58,11,3,0,-1,3,3,14
1526902402047141,-71,-13,-4,-1,2,12,-8,-19
1526902402048138,15,7,2,-2,0,-7,4,15
1526902402048138,-8,-8,-4,-2,-2,0,8,-6
1526902402062100,24,8,2,1,3,5,-1,15
1526902402062100,-71,-16,-8,-5,-5,-12,-2,-24
1526902402063098,13,4,-1,-1,-4,-6,-9,-7
1526902402063098,-11,-21,-9,-7,1,25,5,-12
1526902402084042,16,4,0,1,2,28,6,11
1526902402084042,56,6,-1,-3,-5,-14,20,19
1526902402085039,-72,-14,-4,-1,2,-36,-42,-44
1526902402085039,66,8,-3,-7,-7,-36,-3,11
1526902402107978,-32,-12,-3,3,-7,-53,19,-15
1526902402107978,-1,6,0,-2,1,-10,-21,-5
1526902402107978,115,9,1,3,4,0,-2,36
1526902402107978,-104,-6,0,0,-1,0,-5,-22
1526902402121940,-7,-13,1,-1,0,11,-11,-10
1526902402121940,32,15,5,2,1,-11,8,15
1526902402122938,27,0,-1,-5,-3,-9,11,7
1526902402122938,8,4,2,4,7,9,-9,-2
1526902402143882,6,9,5,4,3,44,14,17
1526902402143882,27,0,2,4,2,-3,-8,-8
1526902402144880,-9,-11,-5,-4,-1,12,-1,-11
1526902402144880,-20,2,1,1,-3,-1,6,-7
1526902402167818,-16,-1,-3,-4,1,-13,-3,0
1526902402167818,24,2,2,1,1,10,7,5
1526902402168815,-93,8,0,1,-2,6,12,12
1526902402168815,-8,-9,-9,-5,-4,-8,-24,-24
1526902402181780,15,1,-2,-3,-4,-11,-1,2
1526902402181780,-11,-8,-4,-2,-1,-4,2,10
1526902402182778,8,4,4,2,2,22,11,-17
1526902402182778,46,9,2,3,1,15,11,20
1526902402204719,-67,-10,-2,-4,-6,-16,-22,-28
1526902402204719,30,3,-4,-5,-4,-5,-7,-7
1526902402204719,-13,-5,2,1,3,13,6,2
1526902402204719,22,-6,0,5,-4,-17,8,22
1526902402227658,-8,-9,-2,-4,-4,41,4,-15
1526902402227658,2,8,1,1,-1,-28,-10,2
1526902402228655,34,-4,-4,-1,-4,-19,0,-5
1526902402228655,-3,4,1,-1,2,34,-2,8
1526902402241620,64,1,-4,0,-1,-24,1,18
1526902402241620,-47,-9,2,-1,-3,14,0,-30
1526902402242618,-38,-4,2,-1,1,18,1,14
1526902402242618,100,10,-3,-3,1,-2,3,16
1526902402264559,-25,-6,-2,-2,-2,-11,-5,-7
1526902402264559,-26,0,-3,-7,-1,0,-3,0
1526902402265557,5,-3,1,13,0,-8,-8,-17
1526902402265557,12,2,1,-2,2,44,28,19
1526902402287498,-2,4,-1,1,-1,-15,-9,9
1526902402287498,8,-3,-7,-5,-5,2,-4,-12
1526902402288495,-49,-11,-4,-7,-5,1,3,6
1526902402288495,-11,3,2,1,-3,-37,-26,-7
1526902402301460,-11,-3,-2,3,1,12,5,-6
1526902402301460,9,3,4,-1,2,4,2,19
1526902402302458,3,-5,-5,-3,-6,-9,-7,-25
1526902402302458,-99,-6,-4,-3,-2,-11,-7,-18
1526902402324399,-3,3,1,-5,9,34,-6,-2
1526902402324399,22,-2,-2,-1,-8,-70,8,13
1526902402325396,41,7,1,-1,4,-18,-15,7
1526902402325396,-32,-6,0,0,2,18,9,-3
1526902402347338,1,6,-1,-1,0,-4,-16,-13
1526902402347338,-13,2,1,1,2,8,3,13
1526902402348335,24,-1,0,-7,-1,-3,-5,-11
1526902402348335,-7,-4,-4,-3,-7,2,-4,-3
1526902402362298,6,-6,-6,-5,-5,6,11,-1
1526902402362298,-20,0,1,2,1,16,-3,-11
1526902402362298,-9,-4,0,0,-3,2,6,1
1526902402362298,20,2,-1,-3,1,3,-8,3
1526902402384239,9,-1,-1,-4,-5,-16,0,1
1526902402384239,-36,9,1,1,0,-1,13,2
1526902402385236,30,-6,-6,-3,1,4,8,9
1526902402385236,-2,-2,0,5,1,-11,-17,-24
1526902402407178,-36,-2,2,1,-2,-2,1,1
1526902402407178,23,1,2,3,3,23,8,19
1526902402408175,-23,-3,-2,1,-1,-14,-4,-11
1526902402408175,19,1,0,-1,2,-5,1,-8
1526902402422138,37,3,2,-1,2,-2,11,30
1526902402422138,-6,-7,-6,-1,0,39,-14,-21
1526902402423135,4,4,0,-2,-6,-18,13,11
1526902402423135,-9,-4,-3,-4,-6,-34,-1,-4
1526902402444079,17,7,1,-1,0,-22,2,19
1526902402444079,14,-7,-4,5,2,43,-10,-12
1526902402445077,4,1,0,-2,2,1,-2,12
1526902402445077,15,-2,-1,-4,2,20,3,-3
1526902402468015,-10,2,1,12,1,5,5,-20
1526902402468015,-6,-7,-1,-7,-1,-21,-12,-10
1526902402468015,14,3,1,-1,-7,12,8,2
1526902402468015,-7,1,1,1,4,-9,-21,11
1526902402481978,41,-2,-3,-5,-3,-7,19,12
1526902402481978,-84,-8,-2,-1,-1,-5,-9,-39
1526902402482975,21,10,3,4,-1,9,1,8
1526902402482975,-1,-6,-2,-3,-2,-7,4,1
1526902402503919,-29,-1,-2,-1,-1,-1,-10,-2
1526902402503919,34,2,-1,0,-3,-16,1,3
1526902402504916,-7,-4,-1,0,1,5,0,4
1526902402504916,15,8,2,5,1,-1,3,-10
1526902402527855,-21,-16,-5,-4,-3,7,0,9
1526902402527855,-1,1,-1,1,-2,-11,6,-5
1526902402528852,3,-3,-2,-5,2,50,-4,0
1526902402528852,-12,-1,1,4,-5,-62,-15,-12
1526902402541818,-10,0,0,0,-1,0,-3,-8
1526902402541818,29,-1,0,-1,3,43,11,23
1526902402542815,6,-2,-2,2,-12,-96,-18,-23
1526902402542815,-7,-2,-2,-1,1,34,39,30
1526902402564756,-38,-8,-4,-1,-1,2,-24,-61
1526902402564756,10,-5,-3,-7,-2,-9,-6,9
1526902402564756,14,9,1,5,2,6,10,1
1526902402564756,-13,1,1,2,3,18,-10,3
1526902402586697,30,6,-3,-3,-4,-62,-29,23
1526902402586697,-12,-5,-1,-8,-7,22,50,0
1526902402587695,-13,-3,1,2,4,6,-15,0
1526902402587695,51,10,-1,-2,-4,-1,-1,3
1526902402601657,-63,-8,-2,-2,-1,-2,8,2
1526902402601657,-18,3,-2,-6,-4,-10,-13,-4
1526902402602655,19,5,3,1,3,19,8,2
1526902402602655,-41,-10,-6,-2,-1,-3,-4,-1
1526902402624596,52,6,-1,1,0,17,1,-5
1526902402624596,41,3,1,3,-1,-3,4,-2
1526902402625594,-66,-4,-2,-7,0,-26,-16,-10
1526902402625594,63,5,0,-4,2,14,10,11
1526902402647535,8,0,2,0,-10,-6,-1,-11
1526902402647535,-17,-9,-6,-12,0,-18,-10,20
1526902402648532,10,-3,0,11,2,17,3,-10
1526902402648532,-18,0,-1,-4,3,20,-6,-4
1526902402661498,-16,1,-3,-3,0,3,3,6
1526902402661498,21,7,2,2,1,-7,-1,-13
1526902402662495,-4,-9,-9,-11,-6,5,-5,18
1526902402662495,-41,-5,1,-1,-7,-29,1,6
1526902402684436,16,10,0,0,4,31,3,-16
1526902402684436,-21,-6,4,8,1,-14,-22,-11
1526902402685434,-11,3,-3,-3,5,29,0,-11
1526902402685434,1,-12,-2,2,-6,-46,15,3
1526902402707375,24,7,2,-10,1,41,19,8
1526902402707375,-63,-14,-3,9,-8,-92,-40,-23
1526902402708372,23,3,3,-4,1,11,-4,5
1526902402708372,9,7,2,2,3,50,11,-7
1526902402721337,0,-5,2,3,0,-15,-9,18
1526902402721337,2,2,2,4,5,19,0,4
1526902402729316,26,1,-1,-2,-7,-43,20,-14
1526902402729316,-34,-12,-7,-7,-2,-4,-23,11
1526902402744276,20,-1,-4,3,-5,-2,6,-21
1526902402744276,-51,-4,-2,0,1,17,3,-4
1526902402745274,-5,-4,-2,-3,-3,-11,-4,8
1526902402745274,-6,4,5,0,7,37,1,-7
1526902402767215,3,-8,-1,-2,-3,-22,5,-21
1526902402767215,-6,0,-1,1,7,47,5,17
1526902402767215,5,3,4,0,-7,-50,12,-11
1526902402767215,14,-4,-3,-2,-4,7,2,7
1526902402781177,-58,-4,0,5,13,59,8,-2
1526902402781177,67,7,1,-7,-12,-54,-49,3
1526902402789156,-39,-9,-7,7,-2,1,9,-3
1526902402789156,-10,6,0,-2,-4,-5,-9,-16
1526902402804116,33,1,2,3,5,-5,-10,8
1526902402804116,8,4,2,-1,2,28,32,5
1526902402805113,4,-1,-1,-5,1,17,-8,3
1526902402805113,-33,-7,-2,1,-2,-25,-13,-14
1526902402827055,11,4,0,-1,-3,-7,0,20
1526902402827055,13,3,0,1,1,12,8,-2
1526902402828052,-5,-2,2,2,0,18,-7,-5
1526902402828052,-30,-1,-1,4,-2,-1,7,-3
1526902402841017,0,-5,-4,-6,5,47,0,-1
1526902402841017,4,6,-2,-1,-11,-91,12,12
1526902402848996,1,-5,-1,0,4,28,19,10
1526902402848996,33,1,2,0,-4,-19,-5,-8
1526902402863956,-18,-7,-5,-3,-1,-21,-18,14
1526902402863956,11,-3,-2,0,-2,12,9,-11
1526902402864954,13,7,-2,-4,-1,20,-7,-3
1526902402864954,2,-4,-2,0,-1,-38,-9,-29
1526902402886895,8,1,2,2,-1,36,16,9
1526902402886895,52,5,1,-1,0,15,17,25
1526902402887892,-82,-21,-4,-2,0,-4,-6,-9
1526902402887892,12,-1,1,4,5,2,0,7
1526902402900857,18,5,1,0,-4,26,2,-2
1526902402900857,14,-6,-3,-2,-7,10,4,4
1526902402909833,21,7,2,1,-1,-37,-14,7
1526902402909833,-46,-1,-1,1,-1,-2,-8,1
1526902402924793,30,5,-1,-2,-4,-13,1,-6
1526902402924793,-30,-9,0,5,8,73,11,14
1526902402924793,-7,-4,0,-5,-14,-69,-28,26
1526902402924793,-74,-10,-3,-3,0,11,-5,-21
1526902402946735,13,7,-1,-2,-3,-47,-10,-22
1526902402946735,15,-6,-2,-2,6,2,-3,-11
1526902402947732,20,7,1,0,-5,74,26,95
1526902402947732,-5,-17,-5,-6,-2,-4,-14,-49
1526902402961695,-21,-4,1,-1,-3,-25,-1,-10
1526902402961695,-10,-1,-1,-3,-3,-8,-9,-12
1526902402969673,-10,-7,2,3,10,59,-7,-39
1526902402969673,46,9,0,0,-6,-27,6,29
1526902402984633,7,4,-1,-1,-6,-31,14,20
1526902402984633,-16,-1,-3,1,6,-21,-31,-23
1526902402985631,24,-9,-6,-6,4,67,22,-6
1526902402985631,11,4,-5,-5,-12,-53,-5,-15
1526902403006575,-10,2,3,1,1,-31,-34,6
1526902403006575,-8,-4,-1,1,-4,-15,1,-8
1526902403007573,9,4,1,0,-1,-11,3,5
1526902403007573,7,6,2,1,5,26,0,-13
1526902403030510,-30,-13,0,0,2,0,1,21
1526902403030510,31,4,-1,-2,-3,-7,-5,-2
1526902403030510,-28,4,-3,0,3,8,0,-42
1526902403030510,-2,-5,0,-1,0,16,6,18
1526902403044473,-1,-6,-6,-2,-3,-4,-4,-2
1526902403044473,1,0,0,0,-2,23,4,4
1526902403045471,37,9,1,-3,-5,-26,7,5
1526902403045471,-5,-3,-2,-1,6,7,-7,9
1526902403066415,20,-7,-3,-4,-6,12,5,-8
1526902403066415,-78,-3,4,5,7,33,-1,-10
1526902403067412,28,5,0,0,-9,-92,-11,4
1526902403067412,-32,1,-1,-1,-1,-3,9,5
1526902403090351,-1,-5,3,3,3,50,-17,-2
1526902403090351,12,2,-4,-2,-6,35,12,15
1526902403091348,-22,-1,4,1,-7,1,21,-10
1526902403091348,22,-1,-2,-1,1,-18,-21,7
1526902403104313,-15,1,-4,-5,-3,2,11,-5
1526902403104313,38,7,0,1,1,-32,0,9
1526902403105311,-10,-11,-3,0,4,20,-10,-10
1526902403105311,-32,-2,-3,0,1,24,18,8
1526902403127252,58,12,0,-1,-1,-4,0,0
1526902403127252,-36,-12,3,1,6,13,-3,3
1526902403127252,-6,-4,0,2,6,11,-2,-9
1526902403127252,18,1,0,-2,-5,-19,0,-1
1526902403150190,-27,-1,-1,-1,-3,-9,-4,-14
1526902403150190,53,10,4,0,-2,-2,6,10
1526902403151188,-29,2,2,2,3,-15,-16,-11
1526902403151188,10,6,3,0,-2,13,1,11
1526902403164153,0,3,2,2,-2,-14,8,19
1526902403164153,38,-5,-6,-7,-7,-11,-19,-11
1526902403165151,-14,-1,-2,-3,0,32,-1,-10
1526902403165151,64,-3,0,1,0,12,-1,15
1526902403187092,-9,-2,1,2,1,-4,7,-9
1526902403187092,14,0,0,0,1,-13,6,-2
1526902403188089,7,3,-1,-1,0,-6,-7,1
1526902403188089,-8,-5,1,2,2,-10,1,-16
1526902403210030,-19,5,3,1,-3,6,4,-4
1526902403210030,-35,1,1,4,-1,31,6,-1
1526902403211028,41,4,-4,-2,0,-12,-3,4
1526902403211028,8,0,-2,-2,0,-11,-3,-6
1526902403223993,-26,-2,-4,-4,-7,0,-5,-2
1526902403223993,-11,-2,-3,-2,-7,-27,12,6
1526902403224991,15,-7,0,-2,1,11,7,6
1526902403224991,23,10,0,-1,-1,24,9,-1
1526902403246932,-5,-16,-3,-3,-5,-32,-15,-3
1526902403246932,27,7,-2,-5,-3,24,-5,2
1526902403247929,-33,-7,1,2,-1,-18,2,-9
1526902403247929,17,2,-1,0,3,8,1,-6
1526902403269871,-8,-2,0,1,2,17,13,3
1526902403269871,9,2,0,0,2,-34,-22,-4
1526902403270868,-4,6,-1,-2,2,16,-1,-5
1526902403270868,-10,-3,0,0,-4,53,-19,-10
1526902403284831,-21,-13,-3,-1,-3,-21,12,20
1526902403284831,13,5,0,-2,-1,10,14,-6
1526902403284831,-32,-8,-3,-3,-3,13,-1,3
1526902403284831,-36,4,6,2,0,-2,-12,5
1526902403306772,40,4,-3,-1,5,9,0,-9
1526902403306772,-43,-11,-4,-3,-4,-2,-3,-4
1526902403307769,39,5,-2,-3,-3,-6,-7,20
1526902403307769,-14,-6,-5,-2,-4,-12,-3,-41
1526902403329710,-32,-5,2,1,4,-1,0,-7
1526902403329710,-5,6,0,2,8,-20,-14,0
1526902403330708,6,-1,-2,-3,-3,5,14,20
1526902403330708,9,8,-1,-1,1,7,13,13
1526902403344670,11,1,0,1,3,-2,-2,-13
1526902403344670,-33,-19,-8,-6,-1,-7,-13,-19
1526902403345668,15,3,4,4,-3,-12,-11,-5
1526902403345668,-7,-9,-4,-3,0,3,13,1
1526902403366612,-46,-1,-2,-3,-9,-40,-3,-12
1526902403366612,19,0,-2,-2,-5,12,6,12
1526902403367609,-16,-3,0,0,-1,-4,-8,-23
1526902403367609,0,2,2,1,-1,3,13,9
1526902403389550,33,1,-6,-3,0,8,0,5
1526902403389550,0,-11,3,4,1,19,11,6
1526902403390548,1,7,0,-1,-2,-11,-3,-10
1526902403390548,-27,-6,-2,0,2,0,-1,8
1526902403404511,-6,2,3,0,-5,52,4,3
1526902403404511,5,2,0,-1,-1,-24,1,0
1526902403405508,-16,-7,-4,-1,14,42,1,-6
1526902403405508,39,5,-1,0,-9,-8,-7,1
1526902403426452,13,8,3,4,8,14,4,4
1526902403426452,2,-4,-2,-2,-1,-23,-7,-8
1526902403427449,-24,3,-3,-5,-7,-5,-10,-22
1526902403427449,-1,-8,3,1,6,6,-4,16
1526902403450388,-17,-3,-2,-3,-9,-90,-15,-25
1526902403450388,-2,6,-4,-2,1,38,7,3
1526902403450388,2,-1,1,-1,-2,3,-7,-1
1526902403450388,19,2,0,-3,1,26,9,17
1526902403464350,-3,5,5,4,1,-17,-14,14
1526902403464350,22,-2,-2,-1,-1,-16,1,-3
1526902403465348,-37,-1,1,1,-1,-9,-1,-12
1526902403465348,9,8,-2,-1,-3,0,6,13
1526902403487289,11,-2,-1,-1,2,32,1,-9
1526902403487289,19,3,2,1,-2,-23,1,1
1526902403487289,4,-14,-5,-2,-8,15,3,15
1526902403487289,30,6,-4,-6,-6,7,14,15
1526902403510228,-10,-7,-2,-2,-5,-19,-14,-15
1526902403510228,19,7,4,3,2,-7,-18,-3
1526902403511225,-22,-7,-4,-3,-5,-26,12,-10
1526902403511225,31,0,0,0,2,1,-7,15
1526902403524190,-30,-8,-4,-4,-5,-47,8,-2
1526902403524190,9,-1,0,0,-5,-16,6,12
1526902403525188,-52,-6,2,3,3,-16,-2,-14
1526902403525188,-7,0,-1,0,1,2,-6,1
1526902403547129,11,6,-1,-6,-7,40,11,12
1526902403547129,10,0,-2,0,-1,-7,-15,8
1526902403548126,29,-3,-2,-2,0,-33,-1,1
1526902403548126,5,6,1,-2,-2,28,6,-20
1526902403570068,-31,-19,-2,0,3,3,-23,3
1526902403570068,-19,-3,-2,-2,-3,14,8,0
1526902403571065,25,16,3,-1,-4,-17,13,27
1526902403571065,-12,-4,3,4,10,41,-19,-15
1526902403584030,-2,-2,-3,-1,-1,12,11,7
1526902403584030,-12,1,-2,-4,-2,-1,2,-1
1526902403585028,20,0,-2,0,1,15,-5,-14
1526902403585028,-13,0,-2,-3,-4,-40,-17,7
1526902403606969,38,9,4,4,8,5,-9,3
1526902403606969,-46,-16,-4,-1,-6,-7,-6,-46
1526902403607967,38,7,0,-2,0,10,15,21
1526902403607967,-87,-4,0,-2,-3,48,8,-5
1526902403629907,50,13,0,2,3,-64,-14,5
1526902403629907,-30,-11,-4,-3,-7,12,-3,22
1526902403630905,0,-14,-5,-3,-6,18,-32,-73
1526902403630905,78,1,0,0,-3,-13,7,29
1526902403643870,1,6,3,2,1,22,11,13
1526902403643870,14,5,1,0,5,22,16,7
1526902403651849,11,3,0,1,1,0,-17,22
1526902403651849,-24,-15,-6,-1,2,-12,-1,-20
1526902403666809,-48,-3,-7,-7,-10,-42,-7,-31
1526902403666809,-7,6,2,0,-8,-5,-11,-10
1526902403667806,-23,-5,3,3,7,34,4,3
1526902403667806,13,5,-2,-3,-3,-36,5,8
1526902403689748,-13,2,0,1,7,55,5,21
1526902403689748,34,11,0,2,3,-30,11,-12
1526902403690745,-85,-16,-4,-2,-7,-7,0,17
1526902403690745,20,14,3,0,5,13,-4,-13
1526902403703710,23,-11,-4,0,-2,5,1,17
1526902403703710,8,1,0,-1,3,9,6,-9
1526902403711689,6,3,1,2,0,-12,4,-1
1526902403711689,-12,-9,-3,-2,-6,-30,-3,-8
1526902403726649,13,8,2,0,5,42,8,-7
1526902403726649,4,0,3,-2,6,43,-6,5
1526902403727647,52,7,-3,-2,-3,-37,5,13
1526902403727647,-8,-6,-1,-1,-1,-8,-4,-6
1526902403749587,-8,3,2,1,-1,22,15,12
1526902403749587,-4,-14,-5,-3,-4,-15,-16,-15
1526902403750585,-68,6,3,-3,-4,-7,-7,-6
1526902403750585,30,6,-2,0,0,-3,2,-16
1526902403763550,-17,-11,-2,0,-3,10,-1,0
1526902403763550,15,8,0,-1,-1,9,15,22
1526902403771529,1,-10,-2,-3,4,1,-21,-25
1526902403771529,22,1,-4,2,-10,-39,-5,13
1526902403786489,-8,-16,-2,-4,9,14,8,12
1526902403786489,-8,3,-2,-3,-10,-64,-13,-33
1526902403787487,40,2,0,2,-3,-2,8,15
1526902403787487,55,9,2,1,2,-1,5,21
1526902403810425,-39,-12,-4,-4,-4,-8,-18,-21
1526902403810425,22,4,2,-1,2,56,33,19
1526902403810425,26,0,1,-2,-2,2,-7,-8
1526902403810425,-36,-8,2,2,-1,-20,-10,-17
1526902403823390,42,12,0,1,-2,11,4,12
1526902403823390,-24,-9,-4,0,3,-2,9,13
1526902403832366,-16,6,-1,-1,1,21,10,25
1526902403832366,-28,0,-6,-8,-9,-16,-6,-46
1526902403847326,-6,-15,0,-1,3,23,1,0
1526902403847326,-59,-1,-2,0,-1,5,-6,-1
1526902403847326,49,9,-1,-2,-1,38,-1,20
1526902403847326,-10,2,2,-2,2,-16,9,16
1526902403870265,-8,-13,-3,-6,0,-19,-2,-17
1526902403870265,3,-1,1,9,6,-5,-15,-1
1526902403871262,18,8,3,0,2,5,19,16
1526902403871262,-60,-24,-5,-2,-4,-15,-6,-12
1526902403884227,65,15,-4,-7,-9,16,29,25
1526902403884227,-42,-15,0,2,4,-34,-51,-10
1526902403892206,17,0,-2,1,-2,-34,-4,-24
1526902403892206,44,-12,-1,0,4,32,7,22
1526902403907166,-40,8,1,-2,-3,-56,-19,-26
1526902403907166,6,2,0,-7,-9,27,22,18
1526902403908164,-6,2,-1,1,-2,-15,0,-15
1526902403908164,81,17,9,5,4,-4,3,18
1526902403929107,-42,-3,3,7,2,14,-14,-57
1526902403929107,-7,-6,-4,-1,5,29,10,-3
1526902403930105,-2,-6,-3,-5,-11,-59,-11,-3
1526902403930105,-10,7,2,2,3,32,15,20
1526902403953043,-25,-4,-5,-1,0,-16,-3,11
1526902403953043,13,12,2,-2,-3,6,19,-21
1526902403953043,2,-12,-3,-2,4,5,0,27
1526902403953043,-36,-13,-4,4,-4,-14,-10,-39
1526902403967006,33,9,1,-1,3,34,24,21
1526902403967006,7,0,-3,0,-3,-69,-55,-12
1526902403968004,14,2,-1,3,4,5,4,6
1526902403968004,-39,1,-3,-7,-4,6,23,17
1526902403988948,41,-7,-1,-2,0,4,-10,-4
1526902403988948,48,10,7,6,-3,13,10,16
1526902403989945,-46,-14,-3,-6,-2,6,-4,-26
1526902403989945,-72,-8,0,-2,-3,-21,-26,-14
1526902404012883,60,19,1,-1,-8,-24,3,13
1526902404012883,-52,-17,-4,-5,2,20,20,15
1526902404013881,2,0,-3,-5,0,-39,-19,-23
1526902404013881,11,1,0,5,-2,36,-9,-8
1526902404026846,8,2,-3,2,5,23,-7,2
1526902404026846,-3,-9,-1,-1,-5,-57,17,10
1526902404027844,-22,13,3,3,-1,17,16,6
1526902404027844,26,-9,-9,-9,0,9,-8,-4
1526902404049785,-33,9,5,5,1,-40,-7,1
1526902404049785,16,-8,1,2,3,55,-12,-13
1526902404049785,35,0,-1,1,-3,-16,17,5
1526902404049785,-19,6,-2,-2,1,-5,3,19
1526902404072723,15,2,-3,0,-4,-3,-10,-16
1526902404072723,-18,4,2,0,5,16,7,2
1526902404073721,42,6,1,-9,-1,9,-3,0
1526902404073721,4,-1,-1,9,1,-7,-2,-1
1526902404086686,-42,-12,-3,-4,-2,-4,9,-5
1526902404086686,16,2,-2,-2,1,38,-1,11
1526902404087684,21,2,-2,-4,-6,-60,-22,26
1526902404087684,-70,-16,-2,-2,-5,-8,-13,-89
1526902404109625,39,-2,0,-2,-1,10,-4,34
1526902404109625,1,3,-1,-2,-6,-22,14,-7
1526902404110622,-2,-3,-3,1,1,28,-1,11
1526902404110622,31,8,-1,-2,2,2,-5,-5
1526902404132563,-44,-24,-4,-1,-5,-11,-1,3
1526902404132563,-51,4,-2,-2,0,-6,-9,-14
1526902404133561,29,3,7,6,6,45,7,-3
1526902404133561,35,3,-3,-3,-7,-84,-3,2
1526902404146526,0,1,1,1,5,29,15,-22
1526902404146526,23,2,-3,-3,-1,-1,0,18
1526902404147523,-45,-9,-2,0,4,1,5,-12
1526902404147523,11,5,5,6,2,46,-14,-7
1526902404169465,-4,-2,-6,-7,-10,-60,-16,-6
1526902404169465,38,7,6,5,10,34,6,25
1526902404170462,-75,-4,-2,4,-2,2,9,-15
1526902404170462,31,-4,-2,-7,0,6,8,29
1526902404192403,8,5,-2,0,-1,15,5,6
1526902404192403,-4,-2,-5,-7,-3,-8,-6,-33
1526902404193401,7,-3,-1,-2,-1,15,-13,5
1526902404193401,17,12,2,3,4,-8,16,29
1526902404207363,-56,-12,-2,-1,-1,2,-4,-23
1526902404207363,24,2,-3,-1,-5,-36,-3,-4
1526902404207363,12,0,-1,0,1,21,-3,-3
1526902404207363,-32,1,4,2,-1,-7,-9,-11
1526902404229304,85,18,2,0,-2,9,-2,23
1526902404229304,-84,-10,-2,-4,-5,-22,5,-11
1526902404230302,-25,-4,-1,-3,3,31,1,-16
1526902404230302,36,2,1,-1,-3,-34,11,29
1526902404252243,-3,12,5,0,0,14,-10,-18
1526902404252243,17,-15,-2,2,6,31,8,-2
1526902404253241,28,12,2,6,-1,-10,-25,8
1526902404253241,-14,-17,-6,-3,1,49,20,-18
1526902404267203,25,8,0,-3,-4,-29,-12,27
1526902404267203,6,-4,-6,-5,-6,-27,1,-16
1526902404267203,-14,-2,-1,-1,1,22,7,-3
1526902404267203,0,-1,-3,-5,-5,-45,-20,-8
1526902404289145,-23,-11,-4,1,1,3,-5,-6
1526902404289145,15,2,1,6,2,19,-1,2
1526902404290142,21,-1,-2,-5,-4,-14,7,9
1526902404290142,26,9,-4,-3,-1,2,-6,4
1526902404312083,15,3,2,1,9,17,9,1
1526902404312083,-30,-2,0,-1,-6,-12,-12,-22
1526902404313081,3,-5,-1,-1,2,-35,2,-4
1526902404313081,-55,0,1,-2,2,25,-2,14
1526902404327043,28,-5,-2,1,0,0,8,-15
1526902404327043,28,8,1,-4,-1,33,-3,6
1526902404328041,-31,-4,-5,-3,-5,-37,9,-8
1526902404328041,11,-10,-3,-5,-4,5,-7,-3
1526902404348984,-14,2,-2,2,3,15,-1,18
1526902404348984,3,-1,-1,5,3,-5,4,9
1526902404349982,6,3,0,-7,-4,20,-11,-19
1526902404349982,-14,-2,0,11,3,19,12,19
1526902404372920,-18,-3,3,-5,-2,-8,0,-10
1526902404372920,19,1,-3,-8,-4,-19,-4,10
1526902404372920,-6,-8,-2,4,2,23,0,-12
1526902404372920,29,4,0,4,1,-21,4,-2
1526902404386883,-51,-7,-2,-2,-2,69,-7,-18
1526902404386883,23,3,2,-1,0,-34,1,18
1526902404387881,-35,-4,0,-2,-5,-19,-17,7
1526902404387881,32,3,-2,-2,-2,-1,1,18
1526902404409822,-40,-6,-3,0,-4,-34,-2,-26
1526902404409822,12,-2,1,-1,5,57,16,17
1526902404409822,-40,1,1,-2,-6,-29,-20,14
1526902404409822,0,3,-1,-1,3,20,-2,-1
1526902404432761,12,3,1,2,2,7,14,27
1526902404432761,14,3,-3,-2,-2,-5,-27,-20
1526902404433758,25,2,-3,0,2,13,25,13
1526902404433758,-9,-3,1,-2,4,-1,-1,-12
1526902404446723,32,2,2,3,-3,-8,-8,-12
1526902404446723,-18,-12,-2,0,2,0,-5,7
1526902404447721,-23,-5,1,-1,6,44,10,-18
1526902404447721,-5,5,0,2,-10,-68,-12,5
1526902404469662,-10,-3,-3,-6,0,-8,-12,-22
1526902404469662,-32,5,4,2,2,-16,-1,1
1526902404470659,51,-7,-3,-2,-4,-1,-6,6
1526902404470659,15,6,0,-8,-4,37,1,4
1526902404492600,3,-9,-3,-1,-2,14,-13,-32
1526902404492600,37,7,2,3,-4,-3,11,6
1526902404493598,-81,-6,-3,-5,-1,-5,-18,-17
1526902404493598,9,0,0,-1,4,33,-6,4
1526902404506563,3,0,-2,1,0,-37,2,4
1526902404506563,-16,-2,-1,-5,-4,1,-5,-18
1526902404507561,58,3,1,3,-1,1,8,16
1526902404507561,-47,-14,-2,-4,2,4,3,-15
1526902404529502,-3,6,0,0,6,31,11,6
1526902404529502,-31,-3,-4,-2,-3,-25,-17,1
1526902404530499,36,6,-1,1,-4,-29,5,3
1526902404530499,-41,-8,-5,-7,-7,-4,-3,-18
1526902404552440,-49,-7,0,1,1,-1,-1,11
1526902404552440,29,7,-1,-4,-4,-18,5,10
1526902404553438,6,0,0,-2,-3,36,20,29
1526902404553438,-2,-7,-5,-3,-1,-13,-7,-33
1526902404567400,-15,-2,0,0,-2,23,3,1
1526902404567400,23,1,-2,-1,0,17,17,13
1526902404567400,-14,-8,-4,-3,-2,-1,-5,-11
1526902404567400,32,4,0,1,3,18,9,10
1526902404589342,-30,-5,-3,-3,-11,-40,-3,-2
1526902404589342,-18,0,0,1,3,-1,-9,5
1526902404590339,10,4,1,-4,3,36,12,-14
1526902404590339,25,2,0,8,6,19,5,2
1526902404612281,18,0,4,-5,-8,-16,7,12
1526902404612281,8,-9,-1,-1,-1,-21,6,1
1526902404613278,37,11,3,0,-3,-1,-13,-3
1526902404613278,-3,-1,3,2,3,4,1,17
1526902404626243,4,1,-2,-2,4,41,-1,-7
1526902404626243,3,0,1,0,-11,-55,15,25
1526902404634222,-48,-10,-4,-1,1,-2,-11,-31
1526902404634222,-61,-5,-3,-2,-3,-6,-4,-1
1526902404649182,39,4,-2,1,0,-9,3,14
1526902404649182,17,9,3,0,3,31,-12,-1
1526902404650179,-8,-10,-3,0,0,-23,7,-6
1526902404650179,34,10,-1,-4,-3,1,0,-4
1526902404672120,-9,-12,-3,-2,0,-44,-3,9
1526902404672120,-10,-2,-2,1,4,52,-8,-16
1526902404673118,20,2,2,2,0,2,15,14
1526902404673118,-2,-5,1,-1,-2,-44,-37,-9
1526902404686083,18,10,1,0,-4,17,-4,9
1526902404686083,20,3,-4,-3,-3,22,-10,-10
1526902404694062,-14,0,-1,1,2,-1,10,0
1526902404694062,-4,-2,1,2,-1,1,14,1
1526902404709022,16,0,1,0,-4,20,-5,-2
1526902404709022,-30,-6,-5,-7,-10,-42,-25,-16
1526902404710019,8,1,-1,-1,-6,15,17,-6
1526902404710019,17,0,1,-3,-2,-13,-5,0
1526902404732958,20,2,0,1,2,-16,1,8
1526902404732958,-40,-2,2,7,11,90,21,-5
1526902404732958,13,-9,-3,-5,-13,-80,-20,-14
1526902404732958,49,1,-6,-8,-4,6,12,13
1526902404745923,-2,-2,0,10,3,7,4,0
1526902404745923,-54,-5,0,-4,4,2,-4,-8
1526902404754899,-19,-1,-3,0,4,14,-6,11
1526902404754899,-23,0,-1,0,0,4,7,4
1526902404769859,27,7,2,0,1,-24,-2,-12
1526902404769859,-55,-13,-3,0,-3,-10,3,-5
1526902404769859,28,2,-2,0,-1,-13,3,2
1526902404769859,-11,2,0,-5,-8,-11,-10,-17
1526902404792798,21,-2,2,3,-2,-3,4,18
1526902404792798,11,-1,-4,-3,-2,3,-3,-7
1526902404793795,20,10,0,-1,-3,35,-7,12
1526902404793795,16,-1,-3,-1,1,32,9,9
1526902404805763,-45,-7,-6,-6,-7,-20,-18,-31
1526902404805763,53,-4,-4,-1,3,64,20,13
1526902404814739,-44,-11,0,-4,-12,-81,-59,-14
1526902404814739,69,11,2,2,1,7,16,18
1526902404829699,-11,-13,-5,-5,1,24,-1,-3
1526902404829699,13,-3,-1,-4,-2,-5,-1,-11
1526902404830696,-12,2,-1,0,0,-10,-18,-3
1526902404830696,-14,4,4,6,5,-1,5,0
1526902404851640,-1,0,1,-2,0,-16,9,7
1526902404851640,5,2,0,-3,-4,-22,-14,-8
1526902404852638,9,3,-1,-2,1,16,20,-1
1526902404852638,-31,-10,1,2,1,-8,-4,5
1526902404866600,17,5,-3,-5,2,9,-1,9
1526902404866600,-4,3,0,3,-2,-5,5,-27
1526902404874579,-32,-5,-1,1,3,24,12,17
1526902404874579,-4,0,-3,-2,-7,-7,-2,-2
1526902404889539,-9,-12,-3,-2,4,22,-7,-24
1526902404889539,14,6,-1,-2,-6,-28,4,13
1526902404890536,-10,-6,3,3,5,-2,-13,-11
1526902404890536,1,10,3,1,5,9,2,4
1526902404911480,-2,3,-1,-1,-4,-11,7,17
1526902404911480,5,1,0,-2,-1,0,2,6
1526902404912478,0,2,-4,-4,-4,-21,7,0
1526902404912478,-23,-11,-3,0,5,19,-21,-3
1526902404935416,-2,9,-3,-3,-11,-30,27,-10
1526902404935416,28,-3,3,5,1,-16,-9,-5
1526902404935416,26,7,1,-2,2,39,25,28
1526902404935416,-36,-13,-7,-5,-3,-26,-20,-16
1526902404949379,6,4,-1,-4,-2,-10,-3,-7
1526902404949379,-48,-5,-1,-1,0,7,0,6
1526902404950377,-46,-8,-2,0,1,0,-3,-26
1526902404950377,19,-2,-1,0,-4,-28,8,5
1526902404972317,-10,0,0,-1,9,68,0,1
1526902404972317,14,3,1,-1,-1,-23,7,20
1526902404972317,24,1,2,0,7,31,-7,-10
1526902404972317,-37,-3,-1,0,-3,-4,1,-26
1526902404995256,15,6,0,-2,-5,-16,-5,12
1526902404995256,29,-4,-2,2,-2,4,-1,-3
1526902404996254,23,8,0,2,1,2,3,9
1526902404996254,-47,-3,-1,0,3,39,6,-4
1526902405009219,-19,-7,-1,1,-2,-22,-10,-5
1526902405009219,-18,1,-2,-4,-9,-82,-23,-22
1526902405010216,34,5,0,3,0,31,5,15
1526902405010216,-14,-4,-3,-5,-5,16,4,1
1526902405032158,21,5,2,5,3,-14,4,6
1526902405032158,-8,-3,-1,-2,2,30,3,-12
1526902405033155,-19,-6,-5,-7,-7,-40,-25,-14
1526902405033155,25,-1,-2,-2,-1,-12,1,19
1526902405055096,-4,-5,3,0,1,20,-12,-16
1526902405055096,-25,5,0,1,1,11,3,-15
1526902405056094,51,9,1,0,2,-9,14,8
1526902405056094,-22,-11,-3,-3,-10,20,4,5
1526902405069059,-26,-4,-1,-2,-3,-8,-7,-10
1526902405069059,-11,-3,-2,-2,-2,-9,0,3
1526902405070057,-12,-8,-2,0,-1,-18,-1,-10
1526902405070057,5,7,4,2,0,-1,-16,-26
1526902405091997,31,2,1,2,0,-30,6,14
1526902405091997,-8,-3,-1,1,-1,7,-3,-9
1526902405092995,-42,-5,-3,-2,2,1,-4,3
1526902405092995,52,1,-8,-10,-7,-6,-2,-5
1526902405114936,-12,-2,4,1,1,11,3,7
1526902405114936,40,17,6,1,4,-2,-2,9
1526902405115934,-10,-13,2,2,-2,-2,-1,1
1526902405115934,14,3,-1,0,2,29,17,0
1526902405128899,-27,0,-4,-6,-7,-12,3,10
1526902405128899,37,7,0,-1,-1,-32,-30,14
1526902405129897,4,2,1,3,4,36,27,-5
1526902405129897,-23,0,1,3,-2,-24,3,7
1526902405151838,6,-1,-3,-3,-4,27,-7,7
1526902405151838,-58,-7,0,1,4,3,7,-22
1526902405152835,-19,-7,-5,-7,-16,-2,0,-8
1526902405152835,6,-1,0,3,13,56,9,10
1526902405174776,7,3,4,1,-6,-58,-20,-7
1526902405174776,6,-14,-5,-2,-5,4,-3,4
1526902405175774,-1,2,-4,-3,4,20,-4,3
1526902405175774,53,10,4,-1,0,-15,1,11
1526902405189736,-92,-9,1,3,5,26,-1,-14
1526902405189736,22,-2,2,-1,0,4,3,-3
1526902405189736,76,8,2,1,2,-11,-19,11
1526902405189736,-16,-20,-4,-5,-3,-10,6,6
1526902405211677,75,7,-7,-4,-2,3,-10,7
1526902405211677,-92,-7,-1,0,-3,18,2,-18
1526902405212675,7,-8,-2,1,2,-21,11,11
1526902405212675,5,9,3,1,3,13,-7,2
1526902405234616,-5,-7,-4,0,0,-7,3,-8
1526902405234616,15,10,0,1,-1,-2,1,17
1526902405235614,14,1,-2,-1,-1,28,1,0
1526902405235614,-16,-6,0,-2,0,-39,-8,-7
1526902405249576,-19,-12,2,1,2,-2,-14,-20
1526902405249576,84,12,2,3,3,16,24,56
1526902405250574,-32,-3,-1,-4,-8,-22,-7,-66
1526902405250574,-28,1,-1,1,0,-7,0,11
1526902405271517,5,8,-2,-1,1,35,7,-3
1526902405271517,26,-11,-5,-3,-4,-52,-9,-6
1526902405272515,-2,-15,-3,-1,-2,9,11,20
1526902405272515,-31,-5,-4,-2,-2,4,-12,-11
1526902405295453,9,14,7,0,-1,-2,12,6
1526902405295453,-25,-5,-1,-3,-2,16,-1,-6
1526902405295453,15,4,3,3,2,-15,-5,15
1526902405295453,-15,-3,-3,0,1,15,0,-14
1526902405309416,5,-7,-6,-4,0,29,7,14
1526902405309416,-4,3,1,-1,-2,-4,-3,-9
1526902405310413,8,2,0,0,1,20,2,6
1526902405310413,34,1,-2,0,-5,-59,-31,13
1526902405332355,45,-5,-9,-6,-7,2,1,-32
1526902405332355,-20,-9,-2,0,2,-1,-13,6
1526902405332355,-18,1,-1,0,0,5,-3,7
1526902405332355,23,8,4,2,0,4,10,4
1526902405355293,-11,1,0,-2,1,3,0,10
1526902405355293,-4,-5,-2,-1,-9,-7,3,0
1526902405356291,27,13,1,1,1,-3,-12,-18
1526902405356291,-64,-20,-5,-4,-5,-8,3,6
1526902405369256,-20,4,-1,-1,1,-13,-13,-7
1526902405369256,-7,-3,-4,-4,-1,8,7,-26
1526902405370254,-31,0,0,-2,-3,-6,-5,4
1526902405370254,31,0,2,0,0,31,0,-1
1526902405392194,19,1,4,3,1,-4,0,-4
1526902405392194,-58,-3,-1,2,4,12,0,10
1526902405392194,50,11,3,3,0,30,8,-4
1526902405392194,-26,-8,-6,-2,-2,-10,-10,-11
1526902405415133,18,-1,0,0,-3,-9,-1,8
1526902405415133,-15,-6,1,2,1,-4,0,-2
1526902405416131,-22,4,-1,-2,1,5,3,1
1526902405416131,8,6,3,1,-1,4,1,-9
1526902405429096,11,-2,-4,1,0,0,5,3
1526902405429096,32,3,-4,-4,-2,7,2,19
1526902405430093,-45,-7,0,8,8,50,6,-17
1526902405430093,27,7,6,-2,-5,-31,-9,0
1526902405452035,-34,-16,-4,-3,-3,-5,5,3
1526902405452035,59,7,-1,-3,-1,-14,-12,-27
1526902405453032,16,-3,-4,-4,1,5,1,18
1526902405453032,-32,-12,-2,-1,-5,31,8,27
1526902405474973,9,11,2,4,7,44,13,-23
1526902405474973,-21,-14,-2,-4,-10,-49,-11,-21
1526902405475971,-23,3,-2,-3,-2,-5,1,-4
1526902405475971,17,8,-1,1,1,-17,-10,-3
1526902405488936,54,4,1,-3,-5,-26,-1,29
1526902405488936,-22,-11,-5,-6,0,26,-2,-14
1526902405489934,-10,1,1,-4,-2,-29,-1,4
1526902405489934,-2,1,0,10,-4,-18,11,-7
1526902405511875,64,4,-1,-6,3,31,-4,13
1526902405511875,-68,-6,-1,-2,1,-1,0,-3
1526902405512872,-15,-7,-2,-4,-5,-26,-12,-5
1526902405512872,34,4,-3,-5,0,19,3,-15
1526902405534813,-24,-7,1,4,0,-55,-6,1
1526902405534813,1,6,1,3,-1,17,17,12
1526902405535811,19,-2,-4,-3,-6,-17,-1,12
1526902405535811,-6,1,-2,0,1,6,1,-27
1526902405548776,-40,-4,-1,0,-3,-15,0,0
1526902405548776,-12,4,3,2,5,30,-3,10
1526902405556755,-20,-1,1,1,1,-10,2,-15
1526902405556755,72,13,0,-4,-3,-1,6,11
1526902405571715,-63,-11,-4,-2,-3,2,-7,-20
1526902405571715,39,8,4,4,4,35,21,20
1526902405572712,-35,-4,-3,-7,-3,-28,-40,-30
1526902405572712,54,-1,5,6,0,11,5,23
1526902405594653,-56,-3,1,-5,9,-4,-11,-21
1526902405594653,64,9,-3,-1,-14,7,3,29
1526902405595651,-30,-9,-1,3,1,0,-8,-9
1526902405595651,-3,4,-1,-6,-1,-22,-17,-32
1526902405608616,38,9,4,3,4,12,12,44
1526902405608616,-35,-12,-5,-3,-1,-13,-15,-22
1526902405616595,78,4,-1,-3,-5,-16,7,19
1526902405616595,-100,-6,2,3,3,22,-3,-8
1526902405631555,2,-5,-5,1,-5,20,9,0
1526902405631555,40,3,-1,-1,0,-21,-8,-6
1526902405632553,1,-2,-2,1,-4,-2,4,7
1526902405632553,-58,-16,-7,-6,-2,-3,4,-10
1526902405655490,12,3,-1,-2,-5,-18,-11,-14
1526902405655490,35,0,1,-6,0,-1,0,17
1526902405655490,-26,3,0,11,9,79,26,-19
1526902405655490,9,4,0,-6,-4,-71,-44,8
1526902405668456,-50,2,-3,-6,-4,4,0,8
1526902405668456,17,-1,-3,1,-2,-5,-8,-6
1526902405676435,39,6,3,0,1,14,8,17
1526902405676435,-46,-6,-3,-6,0,40,2,-1
1526902405692392,44,6,0,8,-7,-62,15,-8
1526902405692392,-56,-19,-2,-5,4,11,-8,-30
1526902405692392,27,1,3,11,1,-8,2,24
1526902405692392,73,22,1,5,0,-5,8,12
1526902405715330,-42,-11,-1,-2,-1,4,-7,10
1526902405715330,18,4,0,0,0,4,4,-11
1526902405716328,-52,-4,-3,-3,-6,-28,-10,-14
1526902405716328,9,-7,-1,-7,5,33,9,5
1526902405728296,-16,-2,1,2,-4,-11,-14,-10
1526902405728296,41,14,6,12,3,-2,6,5
1526902405737272,-46,-6,-1,-4,0,-25,-15,7
1526902405737272,42,0,0,0,-1,2,2,0
1526902405752232,-41,-12,-5,-8,0,38,8,-15
1526902405752232,-22,-4,-1,4,0,-24,4,2
1526902405752232,29,7,2,-4,0,-14,-3,-3
1526902405752232,-21,-4,-1,6,7,42,22,13
1526902405775170,56,5,2,-1,-12,-85,-14,14
1526902405775170,-97,-16,-9,-10,-4,0,-12,-39
1526902405776168,46,11,3,-4,-2,12,3,2
1526902405776168,-4,-9,-6,-2,-1,-25,12,9
1526902405789133,37,8,2,0,7,44,5,9
1526902405789133,14,-1,0,-2,-2,-1,3,19
1526902405797112,-39,-5,-2,-10,-2,-9,-9,-13
1526902405797112,-26,-13,-4,1,-14,-82,-14,-22
1526902405812072,28,7,3,5,3,5,5,6
1526902405812072,-16,-2,1,6,3,1,8,14
1526902405813069,-2,-7,-2,2,3,2,-1,-20
1526902405813069,1,5,-5,-6,-3,4,-12,-3
1526902405835010,-60,-6,-2,-7,1,22,-4,-4
1526902405835010,36,5,6,3,-1,-3,5,11
1526902405836008,14,-6,-5,0,-1,5,3,8
1526902405836008,15,-1,6,5,1,-9,-10,-2
1526902405848973,-20,0,-2,4,-3,7,8,-8
1526902405848973,73,7,-2,-10,-1,-2,-24,26
1526902405856952,-14,-4,-1,0,-1,48,13,-17
1526902405856952,-33,-2,3,-1,0,-59,-36,-22
1526902405871912,21,2,1,-4,-6,-38,5,2
1526902405871912,2,-1,1,4,4,12,-13,-6
1526902405872909,8,0,-3,-11,-4,10,6,12
1526902405872909,-29,5,-1,12,2,13,18,2
1526902405894850,-14,1,-4,-3,-3,29,-10,-18
1526902405894850,-27,0,1,4,0,-16,3,-4
1526902405895848,5,-7,-1,-4,-5,-27,-7,0
1526902405895848,-24,-1,0,-3,1,51,18,3
1526902405917789,23,-1,-3,-6,-1,-6,-14,7
1526902405917789,-44,1,2,-1,-1,5,7,-31
1526902405918787,17,-1,-3,1,-1,-4,-4,2
1526902405918787,-3,4,-1,-9,-1,13,4,18
1526902405931752,28,-6,1,9,3,12,13,-2
1526902405931752,-10,-5,-3,-6,-6,-38,-11,3
1526902405932749,7,3,2,4,3,3,1,-1
1526902405932749,16,-2,-3,-1,0,6,6,2
1526902405954690,15,-2,2,1,0,8,4,10
1526902405954690,18,2,-2,-1,0,10,9,8
1526902405955688,-8,-1,-4,1,-7,31,5,1
1526902405955688,6,-3,1,-9,1,36,-4,-16
1526902405977629,0,1,2,5,2,-59,-41,-1
1526902405977629,3,2,-2,7,1,24,7,6
1526902405978627,-30,-11,-3,-1,0,-9,-4,5
1526902405978627,17,4,-1,-2,-2,8,7,5
1526902405991591,-8,-1,-1,-4,-1,30,9,6
1526902405991591,8,4,-1,-4,-1,-19,-6,7
1526902405992589,-14,-7,1,-2,3,36,7,10
1526902405992589,15,2,2,5,-2,-54,-7,-15
1526902406014530,-53,-5,-7,-7,-1,-8,6,-1
1526902406014530,25,3,-2,-9,-2,21,12,10
1526902406015528,-47,2,0,6,1,-2,3,-17
1526902406015528,49,-4,-6,-6,-5,11,11,-1
1526902406037469,28,2,1,-4,4,-5,-5,23
1526902406037469,-31,-7,-2,3,-7,-5,-10,-22
1526902406038466,31,0,-1,-8,-3,-32,-6,13
1526902406038466,-35,0,2,0,3,13,1,-12
1526902406051432,17,1,4,4,4,12,4,-5
1526902406051432,-11,3,-3,-7,0,8,6,16
1526902406052429,-18,-3,3,17,3,-50,-23,-30
1526902406052429,-51,-8,-8,-1,-3,-8,-4,-3
1526902406075368,-17,0,-2,-6,-2,19,8,8
1526902406075368,41,1,2,7,7,-5,1,-4
1526902406076365,57,18,1,-14,-6,16,17,16
1526902406076365,-1,-9,1,5,0,-26,-24,11
1526902406097309,8,8,4,5,-5,0,2,-3
1526902406097309,-16,-4,-3,-3,0,-18,0,-2
1526902406098307,0,-2,-3,-11,-1,24,6,6
1526902406098307,23,3,1,2,-2,26,8,4
1526902406112269,16,-1,-3,-3,-1,4,-2,-4
1526902406112269,5,-1,-1,2,2,-13,-9,2
1526902406112269,1,-5,-3,-4,-11,-56,-11,-17
1526902406112269,-15,1,1,-5,3,13,9,8
1526902406134210,-38,-1,1,1,0,-3,-21,-10
1526902406134210,13,-3,-4,-4,-5,-2,7,1
1526902406135208,-22,-6,-3,1,-1,-20,-17,-16
1526902406135208,3,0,-2,-2,9,55,6,0
1526902406157149,22,3,1,0,4,48,21,11
1526902406157149,-23,1,1,-1,-11,-63,3,1
1526902406158146,-5,-4,1,2,-1,-10,-7,13
1526902406158146,23,1,-3,-5,-7,-11,-4,-13
1526902406172109,26,-2,0,0,1,19,5,18
1526902406172109,-8,6,5,10,7,9,0,-31
1526902406173106,-39,-7,1,5,9,44,-1,4
1526902406173106,3,7,0,-2,-3,-32,-1,8
1526902406194050,16,2,-2,2,0,-31,-21,-21
1526902406194050,25,1,-3,-3,-1,11,2,14
1526902406195048,-27,-1,1,0,3,-2,-4,-8
1526902406195048,14,-6,0,1,-1,15,-4,4
1526902406217986,-47,-7,-4,-4,-9,6,7,-19
1526902406217986,8,1,1,-5,3,40,4,4
1526902406217986,20,4,-2,2,4,-6,-7,11
1526902406217986,14,9,3,1,-10,-83,19,25
1526902406231949,-59,-15,-7,-3,-3,-6,-13,-61
1526902406231949,-12,-4,-1,-4,-3,-20,-10,7
1526902406232946,10,7,0,-1,4,26,16,6
1526902406232946,9,-3,-2,-3,-2,13,-6,-3
1526902406254887,18,5,2,3,2,-21,-7,8
1526902406254887,-5,-4,-4,-5,1,17,7,2
1526902406254887,-5,1,-3,0,-7,-5,4,-9
1526902406254887,16,3,1,-3,4,9,-13,-10
1526902406277826,-8,-12,-1,2,2,13,6,4
1526902406277826,-19,4,-2,-2,-3,16,-4,-3
1526902406278824,81,3,0,-2,-3,-19,2,28
1526902406278824,-33,-3,-8,-3,-3,-33,-10,-40
1526902406291789,5,-7,-2,-2,1,15,10,31
1526902406291789,-24,-1,1,1,6,21,-15,-15
1526902406292786,60,1,2,-4,-9,-58,13,3
1526902406292786,-31,-6,-4,0,-1,15,-1,-7
1526902406314727,3,-5,-5,-4,-3,-7,-10,-2
1526902406314727,16,-10,-2,-4,-5,-21,2,1
1526902406314727,5,7,1,2,6,37,7,12
1526902406314727,-5,3,0,2,-6,-34,0,-24
1526902406337666,11,1,1,-2,0,-31,-18,7
1526902406337666,0,9,3,3,0,14,10,30
1526902406338664,-42,-25,-10,-8,-3,-18,-30,-65
1526902406338664,-17,4,6,6,6,7,-4,21
1526902406351629,-28,-2,-3,-9,-7,13,13,-6
1526902406351629,-32,-1,2,6,-1,-43,3,4
1526902406352626,-1,-3,-2,0,5,90,15,22
1526902406352626,19,0,-1,-3,-3,-54,5,1
1526902406374567,-16,-2,-1,-3,-1,18,0,-31
1526902406374567,-10,1,3,9,4,-10,-7,-6
1526902406375565,-6,6,-1,0,-8,-29,3,14
1526902406375565,4,-6,-4,-5,2,51,1,-7
1526902406397506,0,7,5,7,1,-27,0,4
1526902406397506,29,2,-6,-4,-6,-19,14,1
1526902406398504,66,7,3,1,2,-14,-12,-12
1526902406398504,-22,-13,-3,-2,-1,29,2,3
1526902406411469,26,12,1,0,-1,23,12,17
1526902406411469,-28,-5,-2,4,-2,-39,-18,-19
1526902406419448,-50,-2,1,-1,1,5,6,9
1526902406419448,32,6,-2,-3,8,17,2,15
1526902406434407,4,-2,0,2,-9,-61,30,1
1526902406434407,57,-1,-1,-4,3,22,-6,7
1526902406435405,-31,-1,-3,-2,-4,20,1,-6
1526902406435405,34,7,1,1,1,11,-7,14
1526902406457346,-59,-20,-2,-3,0,3,-11,-15
1526902406457346,-8,-6,-2,-4,2,36,1,-8
1526902406458344,-7,1,0,1,1,-22,1,10
1526902406458344,-7,-1,-1,0,-4,2,4,0
1526902406471309,41,9,-3,-4,-4,8,0,28
1526902406471309,-33,-5,-2,-6,-5,-4,-8,-31
1526902406479287,4,4,1,6,4,-3,0,-6
1526902406479287,-26,2,1,1,-1,15,-11,2
1526902406494248,6,0,0,1,2,-12,-13,-6
1526902406494248,-4,4,0,-3,0,16,4,12
1526902406495245,-24,0,0,-5,-8,-31,-3,15
1526902406495245,-21,-1,3,-2,-1,17,-1,-26
1526902406517186,27,5,4,14,0,-38,-2,13
1526902406517186,-28,-10,-10,-12,-3,42,5,-35
1526902406518184,8,-1,-5,-3,-6,-46,-28,7
1526902406518184,21,-3,-2,2,5,32,5,12
1526902406531149,-28,-2,-2,-6,-7,-48,2,1
1526902406531149,43,3,1,4,3,21,5,0
1526902406539127,-28,-4,1,4,0,12,4,-17
1526902406539127,-15,-8,-2,-3,-2,-39,-2,2
1526902406554087,22,1,-9,-13,6,84,-3,-6
1526902406554087,-6,-3,-6,-7,-9,-36,-7,4
1526902406555085,7,3,1,2,4,-3,-4,1
1526902406555085,-11,-17,-4,-2,-7,-19,4,13
1526902406578023,-13,5,-3,-5,0,11,-9,-45
1526902406578023,17,0,1,1,5,55,4,18
1526902406578023,26,-6,-5,-7,-13,-38,-10,-16
1526902406578023,-9,2,0,0,-2,-52,-5,-16
1526902406590989,31,3,0,3,-1,11,5,24
1526902406590989,-39,-3,2,3,-2,-9,-8,7
1526902406598967,35,5,4,2,6,31,8,-3
1526902406598967,26,8,0,0,-3,11,0,1
1526902406614925,-47,-15,-1,-1,0,-17,-12,-31
1526902406614925,5,8,2,-2,-3,-11,7,15
1526902406614925,-6,0,-1,-2,1,5,3,-1
1526902406614925,-16,3,4,5,-2,-1,7,-2
1526902406637864,18,1,-2,-3,-1,-1,-2,8
1526902406637864,12,17,14,14,5,-12,-1,6
1526902406638861,-28,-1,-4,-4,-1,32,2,3
1526902406638861,20,-1,-1,0,3,16,6,8
1526902406650829,-8,-4,3,-2,0,85,18,-1
1526902406650829,31,-7,-8,-2,-13,-103,-35,-11
1526902406659805,-15,3,1,3,0,-7,6,-8
1526902406659805,-9,0,-4,-5,-3,35,3,-6
1526902406674765,-12,6,4,2,7,13,-14,11
1526902406674765,5,0,1,8,-2,-23,-7,-18
1526902406674765,43,6,10,6,5,14,6,8
1526902406674765,-49,-13,-6,-3,-3,-12,0,0
1526902406697703,10,8,-6,-3,-4,-16,0,0
1526902406697703,94,2,-3,-10,-5,25,7,27
1526902406698701,-61,-14,-9,-6,-3,-17,-6,-19
1526902406698701,10,0,2,1,4,30,5,-3
1526902406711666,-38,5,13,16,5,-11,-17,-8
1526902406711666,17,1,-4,-2,-2,24,4,-18
1526902406719645,38,11,-3,-4,-1,-6,-10,13
1526902406719645,-13,-9,-2,0,-1,0,3,21
1526902406734604,6,-15,-9,-7,-10,-14,-1,3
1526902406734604,-38,-5,-2,-6,7,83,10,-6
1526902406735602,13,14,21,19,-3,-82,0,3
1526902406735602,-23,-3,-6,-4,0,-8,0,-64
1526902406757543,59,5,-4,-4,0,16,6,32
1526902406757543,-43,-8,-3,-3,-4,-9,8,4
1526902406758541,-2,-5,-6,-11,1,15,-6,12
1526902406758541,28,8,2,0,-5,-5,-7,17
1526902406771506,-18,-4,6,9,3,-18,14,-18
1526902406771506,17,-5,-5,-4,0,-5,0,2
1526902406779485,31,0,-6,-5,-4,11,-2,-8
1526902406779485,1,-4,-1,0,5,22,-3,10
1526902406794445,-20,-4,-5,-8,-2,1,-3,-7
1526902406794445,7,8,5,9,3,-4,8,33
1526902406795442,-21,-6,-1,1,2,25,3,-37
1526902406795442,-9,-1,-2,0,-3,-7,-3,6
1526902406817383,50,2,-4,-7,-5,-12,2,20
1526902406817383,-28,-6,2,2,1,-23,-5,-7
1526902406818381,11,-3,-5,-5,-2,20,9,0
1526902406818381,-18,-7,-2,-2,3,57,-8,-10
1526902406840322,-5,1,-2,3,-6,-8,16,1
1526902406840322,-9,-4,-5,-5,-1,16,2,-6
1526902406841320,-7,-3,-3,-3,-1,6,-1,8
1526902406841320,31,9,1,3,1,0,6,23
1526902406854285,-47,-8,-4,-3,0,12,-16,-35
1526902406854285,34,-3,-2,-1,0,-21,-10,-12
1526902406855282,-92,-7,-3,-6,1,5,8,-1
1526902406855282,51,0,-1,-1,1,9,-11,17
1526902406877223,-30,-2,1,0,2,25,-17,-5
1526902406877223,-26,-1,1,0,-7,-14,-1,-13
1526902406878221,31,7,1,4,4,2,-7,0
1526902406878221,-15,-2,-4,-6,3,14,4,-10
1526902406900162,5,8,3,3,-8,-83,-22,-4
1526902406900162,-8,-5,-3,-3,1,19,-4,-17
1526902406901159,-13,-4,-3,-1,3,53,0,16
1526902406901159,2,8,5,6,-4,-32,9,2
1526902406914125,11,0,0,-3,3,1,-3,-13
1526902406914125,6,4,3,3,0,-23,-14,9
1526902406915122,16,-1,-1,-4,-3,-1,17,-4
1526902406915122,-17,-1,2,1,-4,-18,-6,-13
1526902406938061,13,2,-3,1,4,10,-2,0
1526902406938061,-26,0,0,0,-1,9,10,3
1526902406938061,29,4,0,0,-1,11,7,19
1526902406938061,25,-7,-5,-5,-4,-55,-23,-9
1526902406960002,5,-3,-6,-3,1,39,33,16
1526902406960002,-11,-2,-2,-12,-2,-2,4,-2
1526902406961000,-25,-6,0,14,-6,-13,-14,-10
1526902406961000,-8,0,-1,-5,-1,-11,10,17
1526902406973964,-4,-7,0,2,1,8,-14,-29
1526902406973964,14,1,-5,-2,-4,-12,2,12
1526902406974962,-12,-5,-4,3,1,8,2,-3
1526902406974962,-1,3,2,4,5,11,5,3
1526902406997900,36,0,-2,0,0,3,-10,7
1526902406997900,5,3,0,-1,4,26,4,6
1526902406998898,-37,-9,-1,-7,-12,-82,-8,-25
1526902406998898,30,3,1,1,1,11,-2,-4
1526902407019842,-30,-2,0,3,4,16,19,-7
1526902407019842,12,4,1,2,-2,-35,-29,7
1526902407020839,-9,-4,-1,-1,7,4,-7,11
1526902407020839,-56,-13,-3,-3,-4,43,3,-21
1526902407034802,35,-2,-2,-2,-1,-40,-8,16
1526902407034802,-32,-6,-2,-3,-3,3,-5,-19
1526902407034802,29,5,1,-1,-1,10,28,19
1526902407034802,30,13,3,1,0,-20,-4,15
1526902407057740,-66,-8,2,-1,-1,0,13,7
1526902407057740,24,-1,-3,-2,2,77,13,7
1526902407058738,0,-7,-6,-6,-7,-91,-47,-22
1526902407058738,-35,-2,-3,7,1,67,16,18
1526902407079682,40,9,2,-4,-7,-53,-1,6
1526902407079682,-40,1,0,-1,-1,-8,9,11
1526902407080679,-22,-7,0,-3,-1,27,-7,-37
1526902407080679,9,0,-3,-5,-3,4,-11,-6
1526902407094642,35,7,2,6,0,-4,2,7
1526902407094642,-91,-19,-8,-1,-4,-6,-8,-16
1526902407095639,66,10,1,0,-1,9,25,26
1526902407095639,6,4,1,-3,-8,-57,-31,-16
1526902407117580,-24,-4,-3,-2,0,43,7,9
1526902407117580,10,8,4,6,-1,-28,27,-26
1526902407118578,3,-2,-1,0,1,18,9,16
1526902407118578,-2,2,2,2,-1,-15,10,5
1526902407140519,-11,-4,-3,-6,-1,-13,-9,-7
1526902407140519,41,6,-2,-3,-2,16,2,8
1526902407140519,-21,-9,-3,-1,2,15,-9,-2
1526902407140519,-45,2,3,0,-3,-20,-4,-35
1526902407154482,-40,-10,-3,-1,3,19,0,9
1526902407154482,38,3,3,3,1,-36,-15,-11
1526902407155479,6,-2,2,3,2,26,7,6
1526902407155479,28,0,-4,-3,0,-38,-15,10
1526902407177420,-8,3,-1,-1,-5,-8,-7,-20
1526902407177420,44,1,1,2,4,23,-1,2
1526902407178418,-24,9,1,-3,-3,-22,-4,-9
1526902407178418,7,-7,-3,-2,-2,-9,22,16
1526902407200359,-54,-10,-2,1,-1,25,-3,-18
1526902407200359,63,3,-2,-3,1,-20,-10,18
1526902407201357,6,1,1,-1,3,19,12,-4
1526902407201357,-29,-1,0,-1,-2,36,7,0
1526902407214322,27,-4,-2,1,-1,-27,-11,3
1526902407214322,-5,-1,0,1,1,1,10,-18
1526902407215319,-17,2,1,0,-1,29,-3,8
1526902407215319,6,-4,-2,-2,-1,-9,-7,-11
1526902407237261,21,6,2,2,4,-11,5,6
1526902407237261,-12,2,1,-1,-2,23,13,3
1526902407237261,-5,-13,-6,-4,-3,-9,-10,-3
1526902407237261,42,9,3,2,-1,-2,4,6
1526902407260199,18,2,3,4,2,18,-3,-7
1526902407260199,-53,-5,-3,-3,-1,-24,-6,-5
1526902407261197,20,3,-2,5,1,-20,-8,16
1526902407261197,-25,-4,-3,-4,0,20,14,0
1526902407274162,28,6,-2,-1,-4,-52,1,4
1526902407274162,-24,-12,-6,-4,-6,-15,4,-6
1526902407275159,-10,2,2,-1,3,37,-7,-11
1526902407275159,-4,-2,1,2,-4,23,17,5
1526902407297100,21,1,-1,-4,0,-14,-19,-8
1526902407297100,11,4,0,-1,-5,-45,-7,6
1526902407298098,-5,-4,-2,-3,-1,-19,0,1
1526902407298098,-47,-8,-5,-3,-1,4,-17,-39
1526902407320039,34,-14,-4,-4,-2,16,2,6
1526902407320039,2,3,0,-2,-3,-8,-10,9
1526902407321037,18,3,-2,4,2,22,2,2
1526902407321037,60,3,1,1,0,-16,2,17
1526902407342978,-60,-1,-4,-3,-2,11,8,4
1526902407342978,-49,-14,-5,-2,-1,-11,-7,-20
1526902407342978,18,0,-4,-10,-3,-5,-3,5
1526902407342978,39,11,5,10,5,27,-4,29
1526902407356940,-11,-7,-1,-8,-3,-54,18,-14
1526902407356940,8,-5,2,5,-3,45,6,-10
1526902407357938,-28,-5,-5,-5,0,26,0,-12
1526902407357938,27,1,-1,-2,1,3,-1,7
1526902407379879,-7,3,3,9,4,14,-6,11
1526902407379879,-12,4,2,0,2,13,1,-7
1526902407380876,43,-2,4,3,-1,37,18,5
1526902407380876,-34,-4,-4,-6,-7,-73,-45,-8
1526902407394839,18,-1,-4,-1,-1,5,-10,-14
1526902407394839,6,-8,0,3,4,-2,-2,16
1526902407394839,48,8,0,0,-3,1,5,19
1526902407394839,-9,-2,1,-4,4,23,13,-29
1526902407416780,24,4,0,6,-5,10,-1,3
1526902407416780,-31,3,-1,-7,2,-4,-12,12
1526902407417778,-25,0,-2,-1,-2,-17,-10,-24
1526902407417778,-15,3,-2,-2,-3,8,18,4
1526902407439719,5,-8,0,-1,3,43,-8,2
1526902407439719,32,5,2,1,-2,-24,8,-5
1526902407440716,12,-1,1,0,-1,-13,-2,11
1526902407440716,-72,-13,-3,-5,-2,7,-8,-15
1526902407453681,-53,-1,-2,-1,5,13,-17,-29
1526902407453681,31,1,2,4,-4,-10,-7,14
1526902407461660,-22,-3,2,2,1,-9,1,11
1526902407461660,23,2,-7,-3,-4,-14,-9,-25
1526902407476620,42,17,2,-2,-1,22,8,17
1526902407476620,-23,-7,-2,-5,-2,14,-4,-17
1526902407477618,-22,-8,-4,-9,-3,-33,-6,-7
1526902407477618,16,4,8,18,4,40,30,17
1526902407500556,4,3,-2,-6,-7,-9,-10,14
1526902407500556,11,5,-2,-2,-1,-27,-16,-10
1526902407500556,-14,-3,1,0,-5,16,-5,-13
1526902407500556,30,-3,-6,-7,-1,-14,-4,9
1526902407513522,-84,-13,-1,-2,1,-1,8,-6
1526902407513522,19,9,2,5,3,57,4,11
1526902407521500,-9,-3,-5,-3,-3,8,-1,-5
1526902407521500,7,1,1,-2,-1,-10,-7,6
1526902407536460,22,2,2,8,-4,-8,1,5
1526902407536460,43,8,-4,-6,-1,5,-1,16
1526902407537458,-32,2,-1,0,-1,-21,-1,0
1526902407537458,-28,-2,1,-2,1,32,14,1
1526902407560396,10,-6,-1,3,0,-41,10,-2
1526902407560396,-2,2,1,2,3,29,8,3
1526902407561394,-2,2,-3,-2,-11,-82,-7,-35
1526902407561394,32,2,-3,-4,-1,-5,-7,22
1526902407573361,-54,-7,-2,-10,-2,17,-1,-6
1526902407573361,-13,-7,-1,5,1,-8,-5,-6
1526902407582337,36,3,-1,-3,3,18,8,13
1526902407582337,-16,-3,3,6,-1,-20,-9,-14
1526902407597297,33,5,-5,-7,-12,0,6,-8
1526902407597297,-17,-7,-6,-4,-3,-23,1,-1
1526902407597297,-10,-1,0,7,5,2,-18,5
1526902407597297,-18,0,-1,1,1,3,-2,14
1526902407620236,56,7,-1,-6,-6,-7,8,7
1526902407620236,-50,-19,-3,-8,-6,13,17,-10
1526902407621234,-7,6,4,25,10,2,-20,3
1526902407621234,-1,-10,-4,-8,-2,-1,5,-16
1526902407634199,11,6,2,14,-1,6,3,11
1526902407634199,19,8,3,-7,-1,15,4,-15
1526902407642177,35,6,-1,-13,-6,-4,7,5
1526902407642177,-21,-13,1,2,-1,-14,-16,-15
1526902407657138,13,3,1,0,5,35,6,34
1526902407657138,13,6,3,2,2,-10,-15,-34
1526902407658135,-11,-6,-3,1,-2,-8,0,6
1526902407658135,-2,0,-3,-6,-6,-43,3,-2
1526902407680076,-8,-7,-1,-4,0,-13,-9,-21
1526902407680076,2,2,-2,-1,-1,11,-6,21
1526902407681074,30,8,1,-5,2,18,-7,-18
1526902407681074,-12,-2,-2,2,-1,21,15,2
1526902407694039,27,4,-5,-7,-6,-26,-29,-1
1526902407694039,-45,-12,-3,2,-8,-36,1,4
1526902407702017,-1,1,0,1,-2,9,-1,5
1526902407702017,57,9,0,1,-1,6,3,14
1526902407716977,-25,-10,-1,3,2,13,5,-1
1526902407716977,7,1,-1,0,0,4,-4,-22
1526902407717975,-33,-7,-4,-8,-2,0,7,3
1526902407717975,16,-4,3,-3,0,-4,-11,10
1526902407738919,15,1,1,5,4,-6,11,-5
1526902407738919,-11,-6,-2,4,-2,45,-10,-2
1526902407746898,36,0,1,-1,-8,-59,14,19
1526902407746898,-23,-1,-5,0,-1,-15,-18,-14
1526902407753878,-25,-6,-1,-4,0,-1,-3,4
1526902407753878,-14,1,-1,-5,1,1,4,2
1526902407761858,77,6,2,2,4,45,8,5
1526902407761858,-83,-8,-2,-5,-3,-22,-17,-20
1526902407776817,16,3,1,-3,-1,1,5,9
1526902407776817,-6,1,0,1,3,7,4,26
1526902407777815,-2,-6,-2,-2,1,-35,3,-43
1526902407777815,-26,5,1,0,1,10,-25,0
1526902407799756,-31,2,-1,-1,-2,9,4,2
1526902407799756,19,-3,-1,-4,-1,-3,-7,21
1526902407800753,-41,-3,-2,-4,1,17,7,-2
1526902407800753,41,3,1,2,-2,-1,17,0
1526902407822695,-13,1,-2,-4,0,-31,-3,1
1526902407822695,23,-3,-1,6,0,-3,7,0
1526902407823692,-50,-7,0,-2,0,11,-7,2
1526902407823692,-2,-1,-1,-2,-2,3,2,6
1526902407836657,45,9,1,0,1,12,-1,7
1526902407836657,-13,0,2,-1,-1,-18,9,0
1526902407837655,3,-8,-4,0,-2,10,-3,10
1526902407837655,7,-3,-2,-3,2,28,-3,-1
1526902407860594,7,1,1,6,3,9,14,16
1526902407860594,-20,4,-6,-5,-1,-16,-16,-34
1526902407860594,-31,-4,-3,-11,1,45,1,5
1526902407860594,20,4,0,10,2,-13,3,3
1526902407882535,-9,-6,-2,-6,-3,1,-1,-1
1526902407882535,24,-4,0,4,-3,-13,14,-2
1526902407883532,-1,1,-1,-2,0,-5,-13,-8
1526902407883532,35,1,0,2,-5,14,5,3
1526902407896497,-43,-2,4,4,3,-28,-4,-17
1526902407896497,9,-7,-4,-2,4,17,-10,-7
1526902407897495,23,3,5,16,-2,-45,2,7
1526902407897495,-10,-5,-4,-7,-7,2,-8,9
1526902407920433,21,-5,-4,-2,-6,0,-4,-10
1526902407920433,21,10,2,-2,0,10,4,5
1526902407920433,-24,-13,-4,-4,-4,-1,-3,15
1526902407920433,1,-6,-3,-4,-2,-18,-2,-51
1526902407942375,-91,-5,-5,0,1,87,0,-12
1526902407942375,33,5,-1,-3,-1,-49,-9,13
1526902407943372,11,-6,-1,-4,-2,24,7,22
1526902407943372,-24,-3,2,2,2,-14,12,4
1526902407957335,-2,-3,-2,-2,1,-8,-10,-19
1526902407957335,-8,-2,-2,-2,-4,10,-3,9
1526902407957335,19,9,5,2,1,14,1,-12
1526902407957335,12,-4,0,-6,-4,-18,0,17
1526902407980273,-8,1,-2,-6,-3,31,12,-10
1526902407980273,2,-8,-5,5,-4,-55,-44,-5
1526902407981271,2,5,0,1,-1,-6,2,-14
1526902407981271,10,6,0,-1,-1,4,11,20
1526902408002215,9,-5,-3,-6,-3,-18,-6,-4
1526902408002215,-13,2,3,2,2,17,10,2
1526902408003212,1,-3,-6,-10,0,14,-6,-37
1526902408003212,4,4,-3,3,-7,-57,-5,0
1526902408017175,26,10,9,4,6,-5,2,29
1526902408017175,3,-4,1,-7,-3,18,9,-10
1526902408018172,4,-3,-3,-1,-3,-39,-8,11
1526902408018172,12,3,-1,-2,6,48,0,4
1526902408040113,11,-8,-2,1,-4,-26,1,2
1526902408040113,5,-2,1,2,0,-4,3,-12
1526902408041111,-25,10,4,0,2,19,-9,-10
1526902408041111,-9,-5,-2,-1,-8,8,-4,10
1526902408063052,34,-4,-5,-4,6,51,7,-14
1526902408063052,-29,-11,-4,-5,-5,-68,-41,-46
1526902408063052,-26,-8,4,13,4,32,11,20
1526902408063052,-12,1,0,-5,1,-29,-8,-11
1526902408077014,7,4,2,2,-4,-21,2,17
1526902408077014,-10,2,0,-3,3,41,10,-6
1526902408078012,18,1,-3,-6,-3,0,7,12
1526902408078012,-16,-7,1,3,3,22,-5,-8
1526902408099953,40,4,2,4,-3,-3,-1,-6
1526902408099953,-17,-1,-5,-4,2,24,19,23
1526902408100950,-5,-1,-5,-2,-2,-25,-11,-5
1526902408100950,20,2,3,1,1,35,10,8
1526902408122892,5,1,-2,-1,-7,-36,-18,-7
1526902408122892,-10,2,-2,-1,-2,3,11,13
1526902408123889,-14,3,-1,-1,0,-2,6,-6
1526902408123889,34,-5,-4,-1,-3,-16,-4,7
1526902408136854,-28,-3,1,-1,3,-14,1,-5
1526902408136854,-7,4,5,5,-1,-8,2,18
1526902408137852,-3,-1,-1,-4,-8,10,12,-8
1526902408137852,-7,2,0,2,5,-18,-9,0
1526902408159793,-29,-7,-4,-2,-2,16,-12,-18
1526902408159793,26,-1,-1,4,3,24,25,26
1526902408160791,-20,-14,-5,-6,-1,10,-19,-26
1526902408160791,-45,-2,-2,-4,-3,12,4,-4
1526902408182732,8,5,-1,1,-6,-28,1,8
1526902408182732,25,9,5,2,4,3,-16,8
1526902408183729,-2,-3,1,-5,-8,-44,7,7
1526902408183729,-6,-2,-2,-4,0,-2,9,1
1526902408196694,-1,2,2,4,1,-22,-19,-24
1526902408196694,9,4,0,-1,-4,30,12,2
1526902408197692,34,3,1,0,0,-28,-9,6
1526902408197692,-43,-18,-3,-1,1,18,12,11
1526902408220630,4,4,-1,-1,-3,-33,-15,7
1526902408220630,6,-3,-2,-2,-3,15,2,-6
1526902408220630,15,-7,-5,-5,3,57,-15,-16
1526902408220630,-11,9,5,0,-1,-4,29,-3
1526902408242572,15,-3,-3,4,0,25,3,11
1526902408242572,33,4,8,4,5,-28,-15,-25
1526902408243569,-3,1,-2,-3,2,17,-3,9
1526902408243569,7,0,-2,4,-4,-25,6,-17
1526902408256534,8,4,0,-5,1,-9,5,2
1526902408256534,-23,-7,-7,-3,-4,-6,-4,1
1526902408257532,3,4,-1,-1,1,4,8,13
1526902408257532,14,0,-2,-7,-1,-3,-16,-10
1526902408280470,10,0,2,2,1,9,12,8
1526902408280470,-22,0,-2,-2,-2,-31,-5,0
1526902408280470,3,2,2,3,-1,0,-2,21
1526902408280470,5,1,0,0,0,-16,-19,-28
1526902408302412,-60,-16,-5,-8,-6,10,0,5
1526902408302412,-6,-5,1,5,4,25,5,-4
1526902408303409,-1,8,-1,-2,2,-11,17,10
1526902408303409,23,4,-1,1,0,-33,-53,-10
1526902408317372,-9,-22,-7,-7,-5,44,6,-11
1526902408317372,-2,-4,-6,-5,-4,-70,-9,10
1526902408317372,-2,3,2,4,5,14,9,5
1526902408317372,32,3,2,2,-1,-10,-6,6
1526902408339313,-48,3,3,1,-1,-16,15,-11
1526902408339313,-2,-4,-4,-4,-4,22,1,8
1526902408340311,4,-5,-7,-9,-5,-20,-9,-2
1526902408340311,-10,1,4,11,7,57,10,-7
1526902408362252,9,-1,2,-3,0,-49,-21,7
1526902408362252,40,4,-2,-6,-2,5,2,12
1526902408363249,71,-1,0,0,-1,1,-9,-14
1526902408363249,40,2,-5,-8,-5,2,4,5
1526902408376214,-10,2,2,9,8,33,-6,-17
1526902408376214,5,-3,1,-2,-2,-61,2,-2
1526902408384193,-21,-6,1,2,-6,0,-10,-7
1526902408384193,-27,-1,-1,-6,-2,-10,8,17
1526902408399153,58,13,2,4,2,11,3,1
1526902408399153,1,-1,-3,-5,0,36,-2,-38
1526902408400150,-20,-1,4,6,3,-25,-8,-2
1526902408400150,-24,-2,0,-1,-4,-19,5,15
1526902408423089,4,0,-3,0,5,47,6,15
1526902408423089,-6,-3,1,5,-1,-18,5,-13
1526902408423089,-33,2,-4,-6,-3,10,1,4
1526902408423089,45,5,0,-1,-2,-17,-15,9
1526902408436054,-14,-8,-5,-6,-5,-4,17,10
1526902408436054,-45,-5,3,3,0,-6,-17,-2
1526902408444033,5,-3,-2,2,1,-6,6,10
1526902408444033,2,1,1,0,7,33,5,-36
1526902408458993,-19,-6,-6,-4,-4,34,3,3
1526902408458993,12,-1,-3,-8,-2,16,16,8
1526902408459990,21,6,5,8,3,-11,-3,11
1526902408459990,-39,2,1,-2,0,9,0,-19
1526902408482929,19,-5,-4,-1,1,-13,-6,-8
1526902408482929,32,7,1,1,-3,-16,2,0
1526902408482929,-62,-14,-2,-4,-1,18,0,-4
1526902408482929,18,-11,-7,-8,-4,12,-3,13
1526902408495894,9,3,2,1,0,-25,-13,-18
1526902408495894,-16,0,-5,-5,-1,12,-1,10
1526902408504870,-6,-1,0,0,-1,-11,-3,-13
1526902408504870,17,-4,-7,-7,-7,17,11,16
1526902408519830,-26,0,6,8,4,-36,7,-27
1526902408519830,6,-2,1,2,0,35,-7,15
1526902408519830,34,6,-1,-3,-1,-3,2,1
1526902408519830,-15,1,-3,-3,4,56,-1,-2
1526902408542769,22,3,2,3,-4,-33,-5,17
1526902408542769,-20,-3,-1,0,-2,12,0,-17
1526902408543766,6,0,0,0,-1,5,10,9
1526902408543766,18,1,1,1,0,-10,-17,7
1526902408556732,26,7,2,-3,-6,-5,-2,2
1526902408556732,-58,-16,-1,1,0,-20,-5,-6
1526902408564710,12,9,0,-3,-4,46,20,4
1526902408564710,21,-3,3,2,-1,-24,5,0
1526902408579670,-14,1,-2,-2,-1,-6,-3,15
1526902408579670,23,1,0,1,2,25,4,-2
1526902408580668,-36,-11,-3,-3,-6,-50,-6,-34
1526902408580668,19,12,3,-1,2,13,13,22
1526902408602609,-28,-2,1,0,-3,-28,-17,-3
1526902408602609,-2,5,1,3,3,66,20,3
1526902408603606,-1,-1,-8,-7,-5,-9,-14,0
1526902408603606,-29,-1,3,6,1,-10,1,-10
1526902408616571,14,-3,-3,-3,0,16,1,7
1526902408616571,10,2,-1,-2,-2,-5,2,2
1526902408624550,11,-4,1,-1,0,-29,-10,1
1526902408624550,-47,-7,-5,-2,-2,-21,-3,-11
1526902408639510,-10,-2,-5,-7,-3,-3,1,1
1526902408639510,-17,-3,-1,0,-1,-6,10,10
1526902408640508,28,6,1,1,1,3,-4,-6
1526902408640508,11,-1,-6,-6,-6,23,-4,11
1526902408662449,22,8,3,4,2,24,25,6
1526902408662449,-34,-5,0,0,1,-20,-17,-15
1526902408663446,-6,-2,-2,-1,-6,-50,-7,7
1526902408663446,-17,-2,-2,-2,1,-24,-1,-5
1526902408676412,8,3,-2,1,3,24,-4,4
1526902408676412,41,5,-5,-4,-7,-59,1,-5
1526902408684390,-32,-2,0,2,5,23,4,9
1526902408684390,-21,-12,0,1,-1,-1,-12,-20
1526902408699351,9,-6,-1,-3,2,25,-5,12
1526902408699351,38,-4,-3,-2,-5,-35,3,-12
1526902408700348,-30,-6,-1,0,2,9,-5,-6
1526902408700348,36,-8,-7,-3,-4,-16,4,10
1526902408722289,-26,-19,-4,-3,1,22,-4,-23
1526902408722289,-21,9,2,-2,-1,-16,-32,-10
1526902408723286,13,-8,-4,-3,-2,6,-3,10
1526902408723286,-12,4,3,4,9,54,25,8
1526902408745227,-5,-1,-2,-3,-5,-44,-23,5
1526902408745227,75,1,-4,-3,0,22,1,6
1526902408746225,-25,-7,-3,-4,-5,-14,2,-2
1526902408746225,-15,-2,0,3,1,1,-7,-10
1526902408759190,34,7,1,0,0,-21,-3,-7
1526902408759190,-37,-7,0,-1,-1,21,13,12
1526902408760188,17,8,3,5,3,-7,-10,-6
1526902408760188,10,3,0,-1,-1,-24,3,10
1526902408783126,-19,-4,-1,1,3,53,3,-21
1526902408783126,-3,2,-1,-4,-4,-69,-26,3
1526902408783126,40,0,-1,-2,-2,9,5,-1
1526902408783126,-76,-3,-1,0,-1,-12,-3,-11
1526902408805068,5,-1,-1,-2,-4,-19,-2,15
1526902408805068,2,1,3,2,4,52,12,3
1526902408806065,13,-1,0,0,2,17,0,-1
1526902408806065,23,4,2,-5,-9,-43,-6,16
1526902408819030,5,-4,-2,-1,10,29,2,-15
1526902408819030,10,5,-2,1,-1,4,-2,-4
1526902408820028,5,0,1,0,-1,7,10,3
1526902408820028,-1,1,-5,-2,0,-6,-5,9
1526902408842966,-18,2,1,1,-2,6,9,4
1526902408842966,9,2,0,0,-1,-16,-18,4
1526902408842966,21,7,5,0,0,-12,5,10
1526902408842966,-21,-5,-3,-2,-5,-4,-6,-7
1526902408864907,-4,2,-4,-5,-5,-8,4,3
1526902408864907,-4,1,6,6,4,29,-4,-15
1526902408865905,22,-1,-2,-2,-2,13,14,-14
1526902408865905,-15,-2,0,0,1,8,9,-2
1526902408879867,56,6,0,-2,-2,-18,0,4
1526902408879867,-25,-1,-2,-1,-2,4,4,11
1526902408879867,14,-6,-4,-4,1,8,-13,0
1526902408879867,-5,-2,5,5,3,21,-1,-20
1526902408902806,-24,-2,-2,-1,-1,-59,-12,-8
1526902408902806,20,3,-3,-5,3,58,11,17
1526902408903804,-32,2,6,5,0,-3,-9,-10
1526902408903804,37,0,1,0,1,-3,0,0
1526902408924747,-5,5,-1,-1,-10,-5,-4,6
1526902408924747,-24,-8,-1,-1,1,-7,2,0
1526902408925745,-68,-13,-7,-6,-4,-32,-3,-6
1526902408925745,21,3,0,-1,0,-3,7,12
1526902408939707,27,2,1,0,2,6,-4,2
1526902408939707,25,-1,-4,-4,-6,-9,8,8
1526902408940705,-53,-1,-4,0,1,9,-12,-15
1526902408940705,8,2,0,1,-1,-1,-3,-3
1526902408962646,-4,3,1,1,-2,6,0,-2
1526902408962646,-19,-7,-1,-1,-1,-21,5,-7
1526902408963644,5,-1,1,-1,2,7,0,1
1526902408963644,5,3,-3,-3,0,26,-5,-11
1526902408985585,-10,-4,-3,-4,-7,-43,-8,0
1526902408985585,-18,-3,0,0,1,0,4,5
1526902408985585,-45,-4,-4,0,4,19,-5,-29
1526902408985585,11,2,-2,-3,2,30,-21,-3
1526902408999547,-38,-16,0,-3,-1,3,21,3
1526902408999547,22,1,1,2,0,-2,-4,5
1526902409000545,47,5,2,-1,-3,-5,-3,1
1526902409000545,-2,-4,-4,-2,0,12,3,-1
1526902409022486,25,5,3,4,-3,-10,-2,11
1526902409022486,-10,-2,-1,-2,-5,4,-4,-15
1526902409023484,21,2,-2,1,2,35,19,13
1526902409023484,24,3,1,0,0,-87,-25,-8
1526902409045425,22,0,-1,-3,-6,40,19,-1
1526902409045425,15,7,1,2,2,-11,-6,14
1526902409046422,-19,-10,-4,-1,-5,5,0,-44
1526902409046422,5,1,2,1,-1,-17,-8,14
1526902409059387,-6,2,-4,-3,3,-4,-12,3
1526902409059387,29,4,-1,-1,-2,6,4,7
1526902409060385,53,6,3,0,2,3,0,13
1526902409060385,-72,-14,-3,0,-3,-6,17,-12
1526902409082326,35,-3,0,-2,-1,-3,-13,-28
1526902409082326,-36,-1,0,-1,0,23,4,-15
1526902409083324,10,-1,-2,-3,-5,-26,-11,10
1526902409083324,46,7,1,1,-2,-6,4,18
1526902409105265,-35,-13,-4,1,4,26,0,-20
1526902409105265,-32,-6,-3,-3,-4,-13,8,-18
1526902409106262,61,15,4,0,5,15,0,33
1526902409106262,-36,-19,-6,-5,-2,-42,-3,-17
1526902409119227,3,6,-1,-1,2,28,11,5
1526902409119227,15,0,1,-1,-2,-64,-18,24
1526902409120225,-51,-13,-5,-1,1,11,-4,-30
1526902409120225,37,9,-3,-2,-6,-12,3,-3
1526902409142166,25,2,-4,0,4,-2,-15,0
1526902409142166,-76,-7,-3,-1,-2,15,5,-7
1526902409143163,7,0,1,2,0,-6,4,21
1526902409143163,16,1,1,2,0,6,1,-8
1526902409165105,-7,0,1,-1,-1,6,8,5
1526902409165105,-3,1,-3,-4,-2,7,-14,-17
1526902409166102,-17,2,-1,0,-1,11,23,21
1526902409166102,7,-1,0,-2,-2,-9,-16,-37
1526902409179067,-15,5,1,4,5,-8,7,25
1526902409179067,-6,3,1,4,11,64,5,-6
1526902409180065,-54,-4,-2,-4,-11,-36,-22,-27
1526902409180065,0,-4,1,1,1,26,18,16
1526902409203003,-5,3,0,-1,-2,-8,-3,3
1526902409203003,34,0,1,2,2,-15,3,22
1526902409203003,-30,-5,-2,-3,-3,-26,-9,-23
1526902409203003,12,0,-2,-4,-1,28,6,5
1526902409224944,-29,-2,0,0,0,-17,-8,7
1526902409224944,35,0,-1,-1,-1,-2,3,10
1526902409225942,15,3,4,3,3,47,-3,-10
1526902409225942,-24,-1,-5,-4,-5,12,8,12
1526902409238907,-8,-7,2,2,-3,-37,-33,-33
1526902409238907,34,1,-2,-3,-2,8,1,7
1526902409246886,4,1,-1,-1,-2,-12,-6,25
1526902409246886,0,2,4,2,1,-13,-2,-20
1526902409262843,-4,-6,-3,-1,4,47,4,15
1526902409262843,12,4,0,-2,-3,-21,7,-7
1526902409263841,1,-17,-8,-6,-1,-24,4,-7
1526902409263841,12,4,1,5,-2,8,-15,27
1526902409284785,10,-5,1,-2,-6,-5,19,-6
1526902409284785,-10,-2,-3,-2,-12,-17,-8,-20
1526902409285782,5,6,0,0,3,13,19,10
1526902409285782,5,-7,-2,-2,3,17,2,9
1526902409299745,-53,-2,-2,-3,-3,-22,-4,-5
1526902409299745,-5,3,3,1,1,11,-2,-4
1526902409299745,25,6,2,-2,-5,-20,-5,1
1526902409299745,-24,-4,-2,-1,0,-5,-7,-14
1526902409322683,-7,6,0,0,5,29,7,8
1526902409322683,-4,-10,-1,-3,-4,-4,1,-14
1526902409323681,11,3,-1,1,5,26,-5,-5
1526902409323681,9,11,3,2,2,-11,3,23
1526902409344624,21,1,-1,1,-2,-5,4,1
1526902409344624,-22,-3,-2,-7,4,49,14,19
1526902409345622,8,0,5,9,-3,-87,-40,-16
1526902409345622,-3,-1,0,-6,2,-1,32,-15
1526902409358587,45,11,2,6,-4,-11,-6,3
1526902409358587,-47,-11,-3,-1,0,-7,-8,-6
1526902409366566,-7,6,-4,-5,-2,35,12,11
1526902409366566,-23,-14,-3,-7,-1,-47,-11,-14
1526902409382523,29,1,4,4,-1,4,0,9
1526902409382523,-3,3,2,3,2,-20,-6,12
1526902409383521,65,0,-5,-4,-1,18,-6,-15
1526902409383521,-86,-16,-7,-7,-15,-48,-18,-20
1526902409405462,-19,-5,-3,-4,0,16,10,-6
1526902409405462,21,1,0,1,-1,-2,1,4
1526902409405462,-9,1,5,6,3,2,9,7
1526902409405462,-4,16,3,1,4,37,0,12
1526902409418427,-62,-19,-6,-8,-7,-42,-30,-23
1526902409418427,6,-1,-3,-2,0,-12,1,15
1526902409427403,-38,-2,2,0,1,6,1,-23
1526902409427403,30,4,0,4,1,35,15,22
1526902409441366,15,4,1,-2,-2,-16,0,-2
1526902409441366,-19,-3,-3,2,1,18,1,-18
1526902409449344,13,-3,-2,0,0,8,13,30
1526902409449344,23,-1,3,2,5,25,5,13
1526902409465302,-1,2,-2,-7,-6,-54,-39,-29
1526902409465302,36,5,-1,0,-3,-14,-9,12
1526902409466299,-17,-7,-2,-4,1,29,15,8
1526902409466299,38,8,0,-2,-1,-6,0,19
1526902409478267,-20,-4,1,7,2,18,4,-9
1526902409478267,-82,-5,1,-2,1,-2,-3,-19
1526902409487243,12,0,-2,-1,-6,17,-8,4
1526902409487243,1,-2,1,-2,-2,4,22,8
1526902409502203,21,-6,-5,-1,0,20,6,13
1526902409502203,1,3,-3,0,-5,-4,0,-17
1526902409502203,-7,-8,-3,-2,2,-1,-5,12
1526902409502203,-5,0,-3,-3,-2,1,-9,-11
1526902409525142,-6,3,3,-2,0,1,10,-40
1526902409525142,39,-7,-2,-2,-2,6,-2,15
1526902409526139,26,13,-1,-1,1,-4,7,13
1526902409526139,-75,-22,-5,-5,-7,-10,-17,-31
1526902409539104,-24,1,0,8,5,35,8,5
1526902409539104,16,-2,0,-5,1,7,5,-7
1526902409547083,-25,-6,-2,0,-2,-11,2,1
1526902409547083,58,9,1,1,1,13,-2,6
1526902409562043,-4,0,2,0,-4,0,6,6
1526902409562043,-7,-7,-3,-1,-3,-2,-5,-10
1526902409563040,-20,0,-2,-1,-4,-28,-16,-1
1526902409563040,11,4,0,1,1,21,3,13
1526902409584982,17,1,-5,-8,-3,-5,-4,6
1526902409584982,16,5,5,7,6,26,2,-7
1526902409585979,26,1,-1,-5,-2,-12,3,-5
1526902409585979,15,2,-1,1,2,19,-10,0
1526902409598944,57,8,3,6,0,5,7,31
1526902409598944,-41,-9,-3,-4,-2,1,-5,-24
1526902409606923,-1,3,-2,0,-3,-9,0,-1
1526902409606923,29,9,1,-1,1,13,7,-5
1526902409621883,-23,-19,-4,-1,2,12,3,4
1526902409621883,4,9,1,1,-1,-11,0,13
1526902409622881,18,1,-1,1,-1,-9,-5,-4
1526902409622881,-74,-8,-7,-8,3,39,2,-5
1526902409645819,38,5,-2,-6,-8,-69,-13,-6
1526902409645819,-13,-7,0,0,-3,-7,10,7
1526902409646817,-20,1,-2,-6,0,-26,-3,-2
1526902409646817,34,-4,5,9,-3,-16,-4,-17
1526902409667760,-38,-5,-6,-4,1,21,1,-2
1526902409667760,9,0,-1,-1,6,31,6,18
1526902409668758,-20,-4,0,-3,-11,-79,-13,-15
1526902409668758,-5,1,-1,4,-1,-4,13,6
1526902409682720,5,4,-2,0,2,4,-5,5
1526902409682720,47,6,0,-2,-5,-3,10,7
1526902409683718,-56,-17,-2,2,7,49,2,-22
1526902409683718,26,6,-1,-2,-6,-25,-9,12
1526902409704662,-10,-9,1,-1,-4,-5,6,-13
1526902409704662,7,3,-2,-1,2,-16,-15,6
1526902409705659,13,3,-1,-2,-3,24,4,15
1526902409705659,-18,-8,-2,0,-3,-15,6,-5
1526902409727600,28,4,1,0,3,21,-11,-10
1526902409727600,-22,2,2,-4,-2,-3,-14,-12
1526902409728598,1,-5,0,6,0,-6,8,9
1526902409728598,15,4,0,0,-1,-4,4,6
1526902409741563,-12,-2,0,0,1,1,3,-1
1526902409741563,25,-6,-4,3,5,39,-6,-1
1526902409742561,13,4,1,-1,-3,34,18,26
1526902409742561,-18,-4,-3,0,-1,-16,-25,-15
1526902409765499,-20,-2,-2,-3,1,28,-9,-31
1526902409765499,1,2,-1,3,-3,-49,2,0
1526902409765499,37,4,4,4,1,22,11,10
1526902409765499,-13,-4,-1,-7,-4,5,3,2
1526902409787440,4,7,3,0,2,-4,-13,19
1526902409787440,-14,-1,0,10,-2,-11,6,-30
1526902409788438,5,-7,-4,-7,7,25,-12,-2
1526902409788438,9,-2,-6,-8,-7,-34,0,-7
1526902409802400,-17,2,-1,-2,-1,-25,0,5
1526902409802400,-15,-2,1,-1,-4,34,17,1
1526902409802400,3,0,3,3,2,-45,-32,1
1526902409802400,2,1,0,2,2,3,-4,-4
1526902409825339,20,-1,-2,-2,1,37,6,23
1526902409825339,-15,-5,-2,-4,-4,-41,12,-12
1526902409826336,6,-1,1,1,0,-11,-6,-11
1526902409826336,-17,6,0,-1,-1,0,-15,-4
1526902409847280,-33,-3,-2,-2,-3,-29,-20,-6
1526902409847280,-6,-7,-3,-2,-6,-22,-7,4
1526902409848278,11,-3,-3,-5,-2,21,-4,-22
1526902409848278,7,7,2,9,3,-5,6,2
1526902409862240,26,-3,-3,-3,-1,-3,6,-3
1526902409862240,-4,1,0,-1,3,9,-3,18
1526902409862240,-14,-5,-3,-4,-1,-12,7,-2
1526902409862240,-54,-4,0,-1,-4,15,11,-8
1526902409885179,11,4,2,3,3,2,6,13
1526902409885179,-10,0,0,-3,0,10,1,-3
1526902409886176,15,-4,-6,-2,-1,5,6,-11
1526902409886176,25,4,-1,-3,4,-5,-15,0
1526902409908118,-15,-4,0,0,-4,7,15,5
1526902409908118,11,5,2,1,-1,-17,-11,-2
1526902409908118,-45,2,4,6,5,15,15,3
1526902409908118,9,-1,0,-2,2,58,-2,9
1526902409922080,20,0,-4,-2,-3,-16,-9,-33
1526902409922080,-10,-5,-4,-6,0,7,-4,-3
1526902409923078,1,1,0,-1,-2,3,8,14
1526902409923078,-11,-6,-3,0,2,1,1,-6
1526902409945019,3,7,1,-2,-4,21,8,18
1526902409945019,-18,-2,-4,-4,-2,34,2,-7
1526902409946016,-19,-1,-1,-1,-4,4,-1,-8
1526902409946016,-32,-3,-1,-1,-2,-25,-9,-19
1526902409967957,-21,-6,0,-1,2,-5,8,-14
1526902409967957,50,6,2,1,-1,8,-8,-2
1526902409967957,-28,1,-1,1,1,-9,-3,17
1526902409967957,21,-2,1,2,0,-8,-1,-9
1526902409981920,-4,-5,-6,-5,-2,2,-1,-4
1526902409981920,3,-7,-5,-7,7,24,-7,9
1526902409982918,4,6,1,9,-8,-42,16,-7
1526902409982918,12,-3,-2,-2,-1,-41,-32,6
1526902410004859,1,0,0,0,2,8,10,0
1526902410004859,18,2,1,1,2,-19,-7,4
1526902410005856,-7,-13,-7,-10,-1,36,-9,-9
1526902410005856,24,-5,-2,-3,0,-3,5,8
1526902410027798,8,2,1,0,2,-33,14,11
1526902410027798,-5,1,-1,1,-2,2,9,-3
1526902410028795,12,6,2,4,1,31,0,-4
1526902410028795,22,-4,-5,0,-5,-26,1,-1
1526902410041760,-42,1,0,1,1,14,-24,12
1526902410041760,-18,-6,-4,-3,-3,6,17,-37
1526902410042758,14,9,3,0,5,-6,-32,5
1526902410042758,-10,3,3,-1,-1,-23,12,-2
1526902410064699,25,0,1,0,0,-13,-4,-7
1526902410064699,-15,3,1,1,-2,-20,-6,3
1526902410065697,34,-8,-2,-1,0,49,13,1
1526902410065697,-37,-12,-10,-10,-5,-18,-26,-2
1526902410087637,4,1,-3,-2,-8,-45,4,16
1526902410087637,6,7,3,9,2,-8,0,12
1526902410088635,-27,-11,-3,-4,0,-19,-9,-30
1526902410088635,86,12,3,3,1,16,8,14
1526902410101600,-29,-17,-6,-6,-6,6,1,-9
1526902410101600,-19,-4,-5,-8,-3,-19,-9,13
1526902410102598,11,9,1,0,2,-17,-1,-1
1526902410102598,-31,-7,2,-2,2,33,24,0
1526902410125536,8,5,1,4,8,27,-23,3
1526902410125536,14,-4,-1,-3,-8,2,16,-16
1526902410125536,-34,-7,-4,-5,0,28,-5,-11
1526902410125536,29,3,2,5,-6,-56,21,20
1526902410147478,24,5,5,0,4,-30,-24,-28
1526902410147478,41,3,1,-2,3,6,-6,-2
1526902410148475,-32,-14,-4,-1,-6,-21,-2,7
1526902410148475,-30,-5,-2,-2,3,50,20,-3
1526902410161440,35,-2,-1,-1,-3,-5,0,0
1526902410161440,3,6,2,0,1,-19,-11,-3
1526902410162437,-11,1,0,-2,-2,-7,2,-1
1526902410162437,-4,-2,0,-2,-2,3,-5,-6
1526902410185376,-8,6,-2,-2,-4,12,15,8
1526902410185376,-13,-7,-6,-5,-4,-15,-4,8
1526902410186373,42,-1,2,-2,0,15,5,4
1526902410186373,-24,2,0,6,5,16,-17,-21
1526902410207317,14,2,0,-1,0,5,7,15
1526902410207317,4,-3,-4,-5,-1,2,3,1
1526902410208315,13,9,2,-5,-1,8,15,19
1526902410208315,10,7,10,8,7,54,2,14
1526902410222277,41,1,-3,2,-4,-43,2,-20
1526902410222277,-15,-7,-1,1,1,-11,-11,3
1526902410222277,-22,-1,-4,-3,-4,-14,-8,-5
1526902410222277,-4,-2,-3,-4,-3,20,-2,-4
1526902410245216,-4,0,-1,-2,7,27,8,2
1526902410245216,-4,-2,0,1,1,-19,-28,7
1526902410246214,-41,-1,-3,-2,-6,-31,-7,-30
1526902410246214,10,3,1,-1,-1,-11,6,25
1526902410267157,-7,-5,-3,-2,-2,8,-2,-19
1526902410267157,-11,1,-1,-4,-1,2,-1,3
1526902410268155,23,2,1,5,1,-5,9,19
1526902410268155,-5,3,0,-2,1,25,-5,-7
1526902410281120,3,-3,-2,-2,-5,-19,1,-1
1526902410281120,6,-6,-1,3,1,15,7,-9
1526902410289099,-1,4,-5,-5,-3,-28,-15,14
1526902410289099,-10,-10,-6,-5,1,36,-10,-25
1526902410305056,-38,-3,-2,3,-6,-61,-7,8
1526902410305056,28,4,2,4,1,16,2,3
1526902410306053,45,7,-2,-4,-1,-2,3,8
1526902410306053,-17,-2,-2,-4,0,-8,3,12
1526902410327995,-22,-12,-2,-1,1,31,-6,-20
1526902410327995,-19,0,-3,0,-2,-6,-3,-5
1526902410327995,-42,-3,-1,-2,0,0,7,6
1526902410327995,18,5,-3,-2,1,29,14,4
1526902410340960,23,8,5,3,0,-26,-18,4
1526902410340960,24,-6,0,2,-5,57,6,20
1526902410349936,41,-1,1,0,-1,-1,1,-8
1526902410349936,-46,1,4,6,2,-5,4,14
1526902410364896,-22,-4,-3,-3,0,14,3,-42
1526902410364896,28,9,1,0,1,-17,3,17
1526902410365894,3,0,1,1,-1,7,-7,-3
1526902410365894,10,-2,0,3,3,19,-1,13
1526902410387835,-14,-16,-11,-9,-11,-44,3,1
1526902410387835,-30,2,1,2,2,-10,-7,-14
1526902410388832,-24,-11,-1,1,-2,6,1,1
1526902410388832,27,4,2,0,-4,-32,-10,-16
1526902410400800,18,7,-1,1,2,31,4,15
1526902410400800,-47,-16,-7,-8,-3,3,-3,-16
1526902410409776,-6,-3,0,5,4,-16,-10,-20
1526902410409776,26,1,-1,-2,-8,-27,-4,-9
1526902410424736,21,7,0,0,0,26,2,15
1526902410424736,-51,-2,-3,-3,-3,-26,7,4
1526902410425734,41,0,-2,0,3,7,-1,-9
1526902410425734,19,-1,-2,0,0,-15,-4,4
1526902410447675,-13,3,4,1,5,51,31,21
1526902410447675,10,6,2,-1,0,6,-4,-9
1526902410448672,-2,3,1,-1,-7,-48,-9,6
1526902410448672,0,-8,-3,-1,8,73,21,-8
1526902410461637,5,2,0,0,-9,-46,-1,14
1526902410461637,6,7,3,5,0,41,4,2
1526902410469616,-11,0,0,-2,0,17,1,1
1526902410469616,-22,-2,-2,-3,-3,-24,-1,6
1526902410485573,-21,-1,-2,-2,3,25,-3,-6
1526902410485573,-11,-9,-2,0,-2,-26,-8,-15
1526902410485573,2,1,-3,-3,-7,13,5,1
1526902410485573,-7,-5,-3,0,-1,-29,-20,-9
1526902410507515,4,1,5,4,0,26,6,24
1526902410507515,8,0,-3,-2,1,0,-1,-16
1526902410508512,51,0,-2,-2,-2,-20,0,5
1526902410508512,-78,-13,-11,-5,-8,-31,-9,-22
1526902410521477,12,7,5,-1,1,24,5,-3
1526902410521477,3,1,4,3,2,-3,-1,13
1526902410529456,-4,-1,0,-1,-1,11,6,9
1526902410529456,74,15,-1,-5,-2,-8,-4,4
1526902410544416,6,-5,-4,-1,-1,-11,-4,1
1526902410544416,-5,0,-1,-2,-3,-4,1,5
1526902410551397,-4,5,3,0,1,19,8,5
1526902410551397,-18,-9,4,7,-2,-38,-25,-16
1526902410567354,-39,-1,-1,2,8,84,7,0
1526902410567354,58,6,1,-6,-1,-47,-12,-11
1526902410568352,-11,-4,-1,1,0,10,-2,5
1526902410568352,-10,4,1,0,-1,-5,7,0
1526902410581317,17,-8,-2,0,1,14,-2,9
1526902410581317,-4,-3,0,1,-2,-25,3,-5
1526902410589296,-23,0,-1,-1,-1,1,-2,-13
1526902410589296,3,-4,-3,-2,-4,5,-1,-2
1526902410605253,-13,0,-4,-4,-5,-40,-13,-18
1526902410605253,7,1,-1,0,5,20,7,21
1526902410606251,7,1,0,1,-4,-4,-2,-8
1526902410606251,-31,1,-3,-6,-6,14,-1,-2
1526902410627194,-1,0,-2,-1,-3,-34,-8,-8
1526902410627194,7,-3,-1,0,-2,19,3,5
1526902410628192,-29,-4,-1,-1,1,15,-4,2
1526902410628192,26,0,2,0,4,42,10,4
1526902410650133,7,7,0,-1,-11,-89,-26,0
1526902410650133,25,3,1,3,0,30,6,-9
1526902410652128,-99,-12,-3,-2,-2,-16,-5,-11
1526902410652128,53,0,2,1,1,6,12,10
1526902410665093,-16,-4,-3,-2,2,6,3,-6
1526902410665093,30,4,-3,-3,-2,5,5,19
1526902410666091,-3,0,-2,2,4,-6,-8,-13
1526902410666091,-4,2,1,0,-7,-23,1,-5
1526902410688032,16,-3,1,1,2,23,7,15
1526902410688032,-26,5,-1,-1,-4,-25,6,3
1526902410689029,17,-4,-4,-2,-2,19,-1,-7
1526902410689029,-17,0,-1,1,0,-10,-6,-2
1526902410709973,9,3,-3,-2,2,20,10,4
1526902410709973,-33,-4,-3,-2,-2,-39,-21,-6
1526902410711968,25,0,0,-1,2,7,-3,-5
1526902410711968,6,-1,-1,-1,1,-38,-7,-5
1526902410723936,-9,5,4,0,-2,23,1,-7
1526902410723936,-48,-15,-2,-3,-6,-45,1,0
1526902410732912,27,8,-2,-3,-1,-2,3,12
1526902410732912,-4,3,0,0,0,-6,-5,-1
1526902410747872,-78,-14,-5,-1,-1,5,-15,-37
1526902410747872,37,4,-3,-1,0,21,14,8
1526902410748869,-48,-1,0,-2,1,39,-12,-11
1526902410748869,33,4,-1,-2,-5,13,31,19
1526902410769813,-19,-11,-1,1,-1,-1,-10,-12
1526902410769813,43,8,0,-1,-1,14,2,-4
1526902410771808,-10,-6,0,0,0,0,8,20
1526902410771808,9,-9,-8,-4,-2,-15,-19,-16
1526902410783776,-23,-7,0,-1,-2,9,1,3
1526902410783776,-48,-9,-1,-2,-1,15,-5,-4
1526902410792752,51,10,1,1,1,-7,9,10
1526902410792752,3,0,1,-2,-1,-8,-9,-9
1526902410807712,33,5,0,2,1,-13,7,19
1526902410807712,-14,-6,-1,1,-2,-4,-8,-7
1526902410809707,2,3,1,0,0,13,14,-3
1526902410809707,-7,-4,-4,-3,-4,-14,-19,2
1526902410830650,50,3,1,0,2,15,2,-18
1526902410830650,-17,8,2,1,-1,2,0,4
1526902410831648,-11,-10,-5,-4,-2,-9,-7,-22
1526902410831648,-30,-4,5,4,6,-1,16,8
1526902410843616,74,8,-1,-2,1,-11,-23,13
1526902410843616,-5,0,-3,-1,2,23,-1,-3
1526902410852592,-5,-7,-1,0,-5,-56,-4,-2
1526902410852592,-21,4,0,0,2,26,8,1
1526902410867552,-4,-8,-5,-1,-1,-5,10,4
1526902410867552,40,8,1,-2,-1,-2,-5,5
1526902410869547,6,-3,0,2,1,3,-1,0
1526902410869547,12,-2,-2,-3,-3,0,-12,4
1526902410890491,15,5,1,-1,-2,-8,5,13
1526902410890491,-30,-3,-2,-1,0,9,4,2
1526902410891488,-38,-21,-11,-6,-3,11,-10,-20
1526902410891488,-18,6,0,0,-8,-48,-3,-1
1526902410903456,24,1,-1,-3,-1,-12,8,18
1526902410903456,-2,1,2,1,0,23,3,-1
1526902410912432,-7,-5,1,4,2,-40,3,9
1526902410912432,-3,1,2,1,-2,15,-8,-7
1526902410927392,-7,-1,-2,-1,0,14,7,19
1526902410927392,-13,-6,-1,-5,-6,-24,-2,-10
1526902410929387,83,9,-3,-5,-2,19,2,5
1526902410929387,-10,6,1,-3,3,24,7,-9
1526902410950330,-29,-6,-1,7,1,-11,-10,-18
1526902410950330,1,2,2,1,2,1,-2,5
1526902410951328,-29,0,-5,-2,-4,7,2,27
1526902410951328,-12,-12,-5,-5,-3,-8,-7,-41
1526902410963295,24,7,-1,-2,-2,8,10,13
1526902410963295,-27,-8,-3,1,1,-9,-3,-13
1526902410973269,9,6,2,2,1,-16,-4,1
1526902410973269,7,-4,-4,0,0,17,10,23
1526902410987231,-8,2,-3,-4,-2,0,3,-2
1526902410987231,-1,-9,-4,-3,-4,-2,-4,-15
1526902410989227,46,10,7,2,1,25,5,7
1526902410989227,-6,-7,-2,0,-2,22,-9,21
1526902411010170,-14,-4,-4,-2,0,11,1,-32
1526902411010170,16,9,-2,-3,-3,-15,-8,-12
1526902411012165,-18,-6,1,1,1,-35,-1,-7
1526902411012165,3,3,2,0,-2,-74,-16,-10
1526902411024133,-3,3,0,-5,-2,9,13,35
1526902411024133,-36,-6,-6,-3,-3,6,-9,-35
1526902411033109,0,-3,-1,1,1,12,-4,-3
1526902411033109,1,5,-2,-1,-3,5,-2,3
1526902411048069,27,2,2,0,2,-11,-1,6
1526902411048069,-50,-8,-4,-8,0,-3,7,-13
1526902411049066,24,7,1,6,-2,12,11,9
1526902411049066,49,7,4,2,1,5,4,0
1526902411070010,-58,-13,-3,-1,0,7,-6,-19
1526902411070010,51,4,2,0,1,11,1,17
1526902411072005,-18,8,3,-2,0,1,9,6
1526902411072005,12,-7,-3,-1,-2,-12,4,-10
1526902411083973,-24,-3,3,0,3,-24,-7,-4
1526902411083973,-6,-6,-1,0,-3,14,1,-2
1526902411092949,-8,1,-4,-4,-2,-8,-11,-5
1526902411092949,6,1,-1,0,1,11,-3,-9
1526902411107909,22,-1,-3,-4,-4,4,1,15
1526902411107909,24,5,3,3,2,-14,1,2
1526902411108907,-21,-7,-1,1,2,25,-9,2
1526902411108907,-58,-1,-5,-7,-12,-48,9,-16
1526902411129850,14,-1,-3,-5,-7,-41,-8,-23
1526902411129850,8,2,1,9,2,8,-7,17
1526902411131845,18,-14,-5,-8,-6,-15,-7,-2
1526902411131845,-7,-4,1,2,3,17,-8,1
1526902411143813,-37,0,-1,2,3,21,2,4
1526902411143813,3,4,-4,-4,-6,-29,2,-19
1526902411152789,6,1,-1,-3,-1,-5,-3,2
1526902411152789,-15,-6,-6,-5,-1,16,-3,1
1526902411167749,3,-1,-1,0,-3,-2,-2,-17
1526902411167749,17,-3,3,3,2,24,7,19
1526902411169744,-11,1,0,-2,-1,30,6,-14
1526902411169744,12,3,4,6,3,-1,7,24
1526902411189690,39,7,0,1,-1,1,-3,2
1526902411189690,-52,-7,-3,0,1,1,-3,-2
1526902411191685,8,-1,1,-5,-3,-4,11,7
1526902411191685,44,7,2,0,3,-27,-15,20
1526902411203653,-28,-1,1,7,3,29,2,-24
1526902411203653,2,-3,-2,-3,-2,5,8,2
1526902411212629,4,5,2,2,-1,-20,4,28
1526902411212629,-33,-7,-6,-2,-1,24,-10,-29
1526902411227589,-31,2,4,-2,2,31,4,20
1526902411227589,-16,4,0,6,-3,-36,-5,6
1526902411229584,-7,3,-4,0,-3,0,-1,-32
1526902411229584,0,-5,-1,0,5,38,7,27
1526902411250527,46,4,-1,0,-5,-67,-5,11
1526902411250527,-7,-8,-4,-3,1,46,5,-7
1526902411251525,-26,3,0,-4,-2,-21,-27,-10
1526902411251525,25,3,2,4,0,15,12,8
1526902411263493,25,6,-2,-1,1,5,3,20
1526902411263493,-46,-22,-4,-6,-2,13,1,-16
1526902411272469,59,8,1,0,0,-22,-7,7
1526902411272469,-36,-6,-1,-6,-2,5,-2,-18
1526902411287429,-30,-4,-3,-1,-2,-7,-2,0
1526902411287429,18,0,-1,-3,-1,-10,6,13
1526902411289424,-33,-1,-2,1,1,18,-4,-6
1526902411289424,29,-3,-5,-9,-2,-14,13,8
1526902411310367,-23,-7,-1,9,4,31,-10,-30
1526902411310367,13,4,3,6,6,9,-15,2
1526902411311365,-25,-4,-1,-3,-2,5,-16,-1
1526902411311365,19,7,-1,1,-3,-25,3,-17
1526902411323333,29,-9,-1,-3,-2,4,5,6
1526902411323333,-12,1,-1,-2,0,-13,-17,-5
1526902411332309,-7,-5,-2,-1,1,29,13,2
1526902411332309,-8,-4,-2,0,0,2,4,0
1526902411347269,16,3,1,-7,-3,11,-7,-17
1526902411347269,23,6,2,2,0,-5,6,21
1526902411349264,-30,-7,-6,-5,-3,-13,-6,-3
1526902411349264,36,-2,-3,0,-2,7,-3,21
1526902411370207,-29,-3,1,-1,0,-13,0,-11
1526902411370207,21,7,2,-2,0,2,0,8
1526902411372202,9,-1,-1,1,-2,-1,0,-4
1526902411372202,-2,3,0,-2,-2,1,1,2
1526902411384170,-1,0,-1,-4,0,-9,0,16
1526902411384170,24,1,-4,3,-6,-19,-9,-25
1526902411393146,-13,-7,3,6,5,43,36,-12
1526902411393146,21,0,2,3,2,-19,-72,-2
1526902411407109,14,2,-1,-4,-2,11,17,0
1526902411407109,-69,-2,-4,-7,-3,-11,-1,4
1526902411414090,72,8,-1,-1,-3,-6,3,-5
1526902411414090,-49,-3,2,5,2,11,20,10
1526902411430047,-52,-11,-6,-5,-2,-4,-24,-17
1526902411430047,28,-1,3,1,1,15,8,11
1526902411432042,13,3,-1,0,1,-4,0,17
1526902411432042,-12,-5,-1,-1,4,35,8,-5
1526902411444010,-2,6,-5,-1,-6,-23,-4,-8
1526902411444010,40,0,3,1,2,1,12,19
1526902411452986,5,-1,-2,-3,-5,-29,-14,0
1526902411452986,10,0,-4,-4,-1,15,1,-37
1526902411467946,18,4,3,4,2,1,6,20
1526902411467946,4,-5,-4,-2,-1,-8,2,-5
1526902411468943,-15,2,3,-6,-3,10,-4,-19
1526902411468943,-11,-2,-2,7,-1,-48,-9,5
1526902411489887,23,-1,-2,-3,-1,26,4,-5
1526902411489887,19,1,-1,-2,0,21,13,7
1526902411491882,-31,-1,1,2,-2,-50,-30,-19
1526902411491882,-31,-9,-3,-2,-9,37,12,-3
1526902411503850,-12,-1,1,-1,-5,-50,-11,-4
1526902411503850,13,1,0,-1,3,28,8,15
1526902411512826,-4,0,-3,1,-4,-28,-8,-1
1526902411512826,27,4,-1,0,9,42,2,4
1526902411527786,-28,1,-1,1,-1,-2,13,19
1526902411527786,-45,-5,-2,-6,-4,-7,-16,-26
1526902411528783,73,1,0,1,3,-4,11,9
1526902411528783,13,4,-1,-1,-3,-9,3,6
1526902411549727,-4,1,3,5,5,17,3,4
1526902411549727,-84,-8,-6,-1,0,-13,-2,-22
1526902411551722,-2,4,4,4,2,44,2,-2
1526902411551722,36,5,-1,-2,-1,-39,1,0
1526902411572666,-8,-4,-2,-4,-1,35,-6,-9
1526902411572666,10,-2,-3,-4,-5,-18,13,7
1526902411574661,-22,-5,-2,5,-4,-11,-20,-1
1526902411574661,-19,-1,3,-7,0,-1,26,6
1526902411587626,-14,-2,0,3,6,23,-13,-5
1526902411587626,6,1,-2,-4,-9,-33,-19,16
1526902411589621,-56,-2,-1,-2,3,3,20,16
1526902411589621,22,-2,-2,-4,0,12,-22,-22
1526902411610565,5,-5,1,1,-1,19,10,3
1526902411610565,22,6,3,3,1,36,12,-10
1526902411611562,-6,7,2,2,1,-41,-13,11
1526902411611562,21,-2,-4,-4,-7,-20,11,3
1526902411632506,-65,-15,-1,-3,2,-15,-9,-21
1526902411632506,22,5,0,1,2,7,-9,-2
1526902411634501,-9,-4,-3,-4,-5,11,3,-1
1526902411634501,1,7,2,1,-3,19,28,20
1526902411647466,-5,-6,-2,-4,-3,-52,-36,-8
1526902411647466,7,-3,0,0,0,-11,10,5
1526902411653450,18,-1,-2,0,0,20,19,3
1526902411653450,-8,3,-1,-1,3,-4,-38,8
1526902411670405,-7,-1,-3,-4,-11,-54,0,-14
1526902411670405,11,-6,-2,0,-2,21,3,6
1526902411671402,-14,-4,-3,-2,3,36,1,-10
1526902411671402,6,-1,-3,-2,-4,-13,5,-1
1526902411692346,13,4,3,4,4,24,5,20
1526902411692346,1,0,-3,-3,-3,-24,-21,-16
1526902411694341,7,-1,-2,-5,-6,-10,7,2
1526902411694341,-32,-8,2,4,4,6,-7,-26
1526902411706308,30,6,0,-2,2,-4,8,13
1526902411706308,-40,-7,-1,-3,-2,-23,6,0
1526902411715285,35,-2,-3,-4,1,34,-4,11
1526902411715285,-52,-9,0,0,-1,-64,-23,-11
1526902411730244,-3,5,0,-1,-3,36,-1,-2
1526902411730244,50,10,-1,3,-1,-3,26,20
1526902411732240,-35,-15,-7,-5,-3,2,-8,-29
1526902411732240,18,7,4,3,-1,-27,-7,5
1526902411752186,70,5,-2,-3,0,19,20,20
1526902411752186,-31,-9,-3,-1,-3,-24,-26,-9
1526902411754181,37,9,5,3,4,9,2,14
1526902411754181,-10,1,-1,-1,2,65,10,-11
1526902411766149,-1,-11,-4,0,1,12,21,18
1526902411766149,37,8,-3,-5,-3,-22,-11,-21
1526902411775125,-18,-2,-2,-1,1,-18,15,15
1526902411775125,-20,-11,-3,-2,-3,-9,-24,-32
1526902411790085,8,4,1,0,-2,-16,3,2
1526902411790085,-10,-7,1,0,1,20,-6,3
1526902411792079,30,2,0,3,1,-7,-3,10
1526902411792079,-18,3,-2,1,-2,-18,17,0
1526902411813023,-12,-4,0,0,1,12,-31,-31
1526902411813023,29,3,2,2,3,7,23,13
1526902411814021,-8,2,1,0,-2,-16,0,2
1526902411814021,7,-3,0,0,-5,5,5,12
1526902411825988,-14,-9,-7,-4,1,10,-4,-22
1526902411825988,11,4,2,3,1,-32,-3,12
1526902411834964,-47,-5,-4,-2,0,6,-2,7
1526902411834964,-6,-5,-6,-6,-3,53,13,-27
1526902411849924,5,5,1,1,1,-24,-35,5
1526902411849924,-20,-5,-5,-4,0,18,-8,-6
1526902411851919,0,1,0,-3,-10,-33,1,-2
1526902411851919,1,-7,0,0,1,15,16,26
1526902411872863,-9,6,2,0,0,-9,1,-20
1526902411872863,-23,-1,2,0,2,20,-18,-9
1526902411873861,23,4,0,0,0,7,14,-3
1526902411873861,0,5,-1,-1,-1,7,7,13
1526902411885829,-22,-6,-1,2,-1,4,1,-9
1526902411885829,-14,-1,-2,-1,-2,-15,-17,-11
1526902411895802,1,-5,-3,0,-1,2,-7,-20
1526902411895802,-55,2,3,2,-1,-16,-1,1
1526902411909765,78,4,2,-1,0,1,22,49
1526902411909765,-27,4,2,0,0,19,8,-6
1526902411911759,-42,-11,-3,-3,-1,-3,-11,-14
1526902411911759,14,-5,-4,-2,-2,-24,-6,-10
1526902411932703,48,7,1,-2,0,3,5,4
1526902411932703,-1,7,2,3,-1,10,7,25
1526902411934698,-30,-11,-3,-2,0,22,-16,-25
1526902411934698,-4,1,0,1,-1,-49,-3,3
1526902411946666,6,-3,-4,-2,-2,-23,-14,-3
1526902411946666,12,3,1,-1,0,21,9,4
1526902411955642,32,-4,-3,-1,0,-7,11,5
1526902411955642,-14,-3,-2,-2,2,5,-18,-1
1526902411970602,-5,5,2,0,0,25,26,8
1526902411970602,38,-9,-3,0,-4,-2,-10,-9
1526902411971599,9,6,2,2,1,-2,-10,-16
1526902411971599,11,0,0,0,1,-1,-4,11
1526902411992543,8,-3,-4,-1,-6,9,21,-5
1526902411992543,12,-2,0,-2,7,34,-9,16
1526902411994538,-24,-1,1,-1,-7,-2,6,-6
1526902411994538,42,3,0,2,0,12,11,4
1526902412006506,-32,-3,-6,-5,-1,-5,-17,-5
1526902412006506,6,-3,-1,1,-3,-25,-4,-22
1526902412015482,-28,-5,-2,-2,1,1,-6,12
1526902412015482,4,-2,-4,-1,-1,-1,0,-12
1526902412030442,-31,3,2,0,-4,-1,8,-6
1526902412030442,0,-7,-1,-1,2,6,-4,17
1526902412031439,30,3,-2,-3,0,-20,-2,-30
1526902412031439,-1,-3,-2,-1,-3,15,-4,11
1526902412052383,-14,-7,-2,-2,-1,-31,-14,-7
1526902412052383,-9,4,0,-1,-2,-6,18,0
1526902412054378,2,1,3,4,3,44,-5,-9
1526902412054378,8,4,1,-3,0,-4,3,5
1526902412066346,-41,-3,-6,-4,-3,6,-11,-25
1526902412066346,-6,0,4,4,0,-24,0,-2
1526902412075322,-18,-15,-5,-6,0,-4,-8,13
1526902412075322,18,6,0,-1,-2,41,-5,-3
1526902412090282,3,-1,-1,-3,-5,-39,14,2
1526902412090282,5,11,-2,-3,1,27,-7,-1
1526902412091279,-7,-2,1,1,-7,-76,9,6
1526902412091279,-14,-5,-3,-2,6,-13,-9,9
1526902412112223,17,-2,2,1,3,25,-1,-21
1526902412112223,41,1,-4,-3,-6,-54,7,-3
1526902412114218,23,2,-4,-4,-1,46,-4,10
1526902412114218,-8,-8,-3,-2,-1,-50,-11,-8
1526902412126186,2,3,2,5,3,-4,-1,10
1526902412126186,32,-3,0,2,1,19,2,12
1526902412135162,-62,-1,-2,-3,-4,5,-3,-54
1526902412135162,37,1,0,-3,-5,-15,-3,13
1526902412150122,0,-7,-7,-4,0,28,6,10
1526902412150122,-20,-2,-1,-3,-7,5,-6,-10
1526902412152117,0,4,2,4,6,-20,0,36
1526902412152117,-8,2,1,0,-1,30,8,-15
1526902412173060,13,3,1,1,0,-14,-2,1
1526902412173060,-15,0,-2,0,3,19,0,7
1526902412174058,28,-3,-3,-3,-2,-8,-6,18
1526902412174058,-19,1,-2,-3,-3,-7,2,-35
1526902412186026,29,1,1,-4,0,8,7,19
1526902412186026,-2,1,3,6,4,16,-1,4
1526902412195002,5,1,2,2,-4,3,4,-8
1526902412195002,-34,-7,-7,-4,-4,29,-12,-13
1526902412209962,9,-4,-7,-6,-4,-10,9,13
1526902412209962,-1,-1,-5,-5,-3,25,-3,-6
1526902412211957,0,-2,0,3,1,-20,-17,9
1526902412211957,25,7,4,4,3,-4,11,11
1526902412232900,19,-3,-2,0,-3,4,-10,-10
1526902412232900,-42,-4,0,0,0,13,19,5
1526902412233898,51,6,-1,-2,-2,-16,-17,14
1526902412233898,-40,2,0,-2,0,-21,7,-10
1526902412245866,-20,-6,1,1,-5,11,7,-3
1526902412245866,23,-5,-3,-5,-5,-53,-35,-8
1526902412254841,-3,6,4,0,3,34,12,2
1526902412254841,53,4,1,1,-1,-7,4,18
1526902412269801,-35,3,6,6,2,9,-4,-13
1526902412269801,19,-5,-4,-1,-1,-1,3,-11
1526902412271796,-41,-5,-3,-4,-5,-17,-2,-11
1526902412271796,15,-4,-6,-5,-3,-1,-5,-2
1526902412292740,1,-2,1,-2,0,-1,-1,5
1526902412292740,-5,2,2,0,0,-8,-3,0
1526902412294735,-22,-1,1,3,1,-3,5,-27
1526902412294735,6,-3,0,1,1,9,3,3
1526902412306703,-31,3,-1,-2,-1,-12,-5,3
1526902412306703,31,-4,0,2,3,6,5,-13
1526902412315679,-18,-1,-4,-5,-13,-50,3,17
1526902412315679,-22,5,1,0,-3,0,-10,-2
1526902412329641,-16,-8,-2,-2,1,-2,-6,-7
1526902412329641,11,9,3,1,4,7,3,2
1526902412336623,23,-4,-3,-2,-3,-26,-5,6
1526902412336623,-11,-3,0,1,0,5,4,4
1526902412352580,-2,4,-3,-2,-1,16,8,3
1526902412352580,-19,-3,-1,5,2,-30,-24,-12
1526902412354575,20,-4,-1,-3,-1,57,24,11
1526902412354575,17,3,2,-1,1,-31,-11,-10
1526902412366543,-4,3,0,0,3,8,9,12
1526902412366543,-36,-10,-2,-3,-7,-2,2,-18
1526902412375519,18,1,-2,-2,2,13,6,10
1526902412375519,-4,-4,-3,-2,-6,1,5,8
1526902412390479,-60,0,5,5,4,-1,3,-7
1526902412390479,9,-1,-1,-3,-3,-1,-2,-2
1526902412391476,6,5,0,-2,1,7,1,8
1526902412391476,-23,-10,-3,0,-3,4,3,0
1526902412412420,33,9,0,-3,-9,-46,-31,-5
1526902412412420,-23,-7,-3,-1,0,14,15,10
1526902412414415,35,7,-2,1,2,4,2,-5
1526902412414415,-25,1,5,5,3,13,2,3
1526902412426383,-16,-5,-5,-4,-1,-18,-16,-5
1526902412426383,19,6,0,-3,-1,6,1,17
1526902412435359,-20,-9,-2,-2,1,15,6,-15
1526902412435359,-8,5,0,1,2,14,0,3
1526902412450319,25,-2,1,1,0,2,2,-2
1526902412450319,-33,-6,0,-1,-4,-15,0,-15
1526902412452314,-28,-4,-1,-1,2,-5,-6,2
1526902412452314,23,-3,-4,-5,-3,-8,-2,2
1526902412472260,4,1,-5,-2,1,20,1,-8
1526902412472260,2,2,-1,-3,0,-12,3,1
1526902412474255,-1,-3,1,2,1,-5,-14,6
1526902412474255,0,-2,1,0,-1,2,2,-8
1526902412486223,65,7,2,2,2,19,10,8
1526902412486223,-97,-26,-4,-1,-5,-31,-10,-13
1526902412495199,51,9,1,0,-2,-27,-3,8
1526902412495199,-17,-4,-5,-4,-7,-13,14,-10
1526902412510159,12,3,-1,-3,0,14,-9,4
1526902412510159,36,2,-1,0,0,42,9,6
1526902412512154,-3,0,-1,0,3,15,-7,-8
1526902412512154,-58,-3,-2,-3,-2,-18,-6,6
1526902412533097,12,-3,0,2,1,-2,2,4
1526902412533097,16,8,-2,-1,-2,-13,15,7
1526902412534095,-53,-8,-4,-2,0,10,-3,-28
1526902412534095,86,12,3,3,6,11,11,34
1526902412555039,-11,-13,0,-2,-5,19,-17,-33
1526902412555039,-52,-2,1,0,3,6,-7,13
1526902412557034,36,6,-3,0,-2,6,5,6
1526902412557034,-30,-3,-1,0,-1,-9,-3,-2
1526902412569999,-11,-2,0,1,-3,-18,8,12
1526902412569999,30,2,-3,-5,-3,-14,-5,-6
1526902412571994,10,4,4,2,-1,2,-2,-9
1526902412571994,-5,-7,-1,0,4,23,2,-20
1526902412592937,6,2,-2,-2,-5,-23,-2,10
1526902412592937,-34,-1,-3,0,2,9,-10,-7
1526902412593935,-4,-3,-2,-4,-2,-14,11,6
1526902412593935,55,4,4,5,1,20,-17,-7
1526902412614879,-53,-6,-3,-5,-4,-40,4,-16
1526902412614879,38,2,-2,-3,-2,-9,2,10
1526902412616874,-35,-5,-2,-2,0,26,0,-16
1526902412616874,30,-2,-3,-1,-1,-5,8,13
1526902412629839,-26,-3,2,1,1,-7,-1,0
1526902412629839,-3,5,-1,-1,-1,7,9,-4
1526902412635823,-2,1,3,4,1,2,-1,15
1526902412635823,13,1,-3,-3,2,20,7,3
1526902412652777,24,3,-1,-1,0,-5,1,10
1526902412652777,11,0,-1,0,-2,-2,-4,-7
1526902412654772,-13,-1,1,1,2,6,4,-1
1526902412654772,-1,-7,-1,0,-1,-6,-10,-1
1526902412674719,-19,-5,-3,-3,-8,-7,9,-8
1526902412674719,-2,-3,-5,-5,-5,0,-13,-6
1526902412676713,-2,0,-1,-1,0,-14,-7,-10
1526902412676713,-17,6,6,5,0,-20,0,10
1526902412689679,66,2,-2,-2,3,30,-8,15
1526902412689679,-31,-10,-3,1,1,16,7,-8
1526902412696660,-20,-2,-2,-1,0,-5,4,2
1526902412696660,-28,-3,-3,-3,-2,2,2,5
1526902412712617,25,9,4,4,4,3,6,1
1526902412712617,9,-7,0,-1,0,7,0,-12
1526902412714612,8,0,1,-1,-4,-7,-3,4
1526902412714612,41,6,-1,-1,0,-12,14,17
1526902412735556,-58,-13,-1,-1,-3,10,1,-37
1526902412735556,20,6,-2,-1,2,7,1,9
1526902412736554,59,0,-2,0,-3,4,7,6
1526902412736554,-47,-5,-5,-4,-2,4,-5,-18
1526902412749518,20,-1,-4,-3,-2,10,-6,7
1526902412749518,2,5,4,1,-1,-17,1,5
1526902412756500,8,-1,4,2,-3,18,-2,-17
1526902412756500,7,0,-6,-4,-2,-8,-30,-15
1526902412772457,-33,0,0,-1,-1,-15,13,11
1526902412772457,-15,-7,-1,0,-1,4,5,8
1526902412774453,13,7,-2,0,-1,-6,-2,6
1526902412774453,-4,-10,1,1,-6,-18,-6,-2
1526902412795396,8,3,0,1,1,12,2,-1
1526902412795396,31,2,0,0,2,-4,-4,11
1526902412796393,-9,4,-2,0,1,-12,-1,-8
1526902412796393,-7,-2,-3,-3,-2,13,2,0
1526902412808361,-5,7,2,2,-2,-11,-2,26
1526902412808361,-15,-6,-1,1,2,14,-6,-21
1526902412818335,10,-4,-2,0,-6,-66,-12,3
1526902412818335,-8,4,2,2,-1,-6,13,7
1526902412832297,0,-1,0,-2,0,-1,3,2
1526902412832297,43,1,0,0,2,-1,-6,9
1526902412834292,-59,-3,-1,-4,1,-12,-3,-5
1526902412834292,35,0,-2,3,5,1,7,23
1526902412855236,6,-2,-3,-3,-4,-1,-14,-48
1526902412855236,-13,-1,0,0,-1,-6,3,11
1526902412857231,-31,-7,0,0,2,21,-3,-4
1526902412857231,43,14,5,-1,-1,7,1,0
1526902412869199,-69,-3,-3,-2,2,10,-2,-1
1526902412869199,0,2,-2,-4,-5,-28,-16,-7
1526902412878175,15,-7,-1,1,-1,5,2,5
1526902412878175,-46,-3,-2,-3,1,21,-3,-16
1526902412893135,33,1,2,1,0,10,4,7
1526902412893135,-16,7,2,-1,-2,-1,6,0
1526902412894132,-21,-4,-3,-5,-3,0,1,6
1526902412894132,-1,-7,-2,2,3,-5,-2,-2
1526902412915076,-4,-1,-1,0,6,9,-7,-17
1526902412915076,-13,-3,-4,-1,-1,-14,-4,-11
1526902412917071,43,9,2,-1,3,2,6,28
1526902412917071,-52,-17,-4,-5,1,55,-4,-44
1526902412929039,23,-3,0,2,-3,-50,-3,9
1526902412929039,-16,10,3,2,-2,-9,-1,13
1526902412938015,7,-5,-3,-1,-4,-14,10,-24
1526902412938015,34,6,-2,-3,-6,-41,-22,8
1526902412952975,9,-1,2,2,-1,2,20,6
1526902412952975,25,-10,-6,-5,4,31,-18,4
1526902412953972,-8,0,-1,-2,-2,20,9,-7
1526902412953972,-8,2,1,0,-2,-18,3,-4
1526902412974916,0,0,-1,-1,-1,-1,-3,4
1526902412974916,12,1,0,0,-3,8,17,8
1526902412976911,-49,-8,-3,1,6,-4,-33,-26
1526902412976911,24,5,3,7,-5,17,11,9
1526902412988878,-10,-8,-5,-5,1,6,-5,4
1526902412988878,8,1,3,1,0,2,4,-10
1526902412997855,55,15,-2,-3,0,12,3,12
1526902412997855,-91,-20,-3,-2,-4,-15,-5,-11
1526902413012815,51,7,1,0,1,12,1,13
1526902413012815,-1,-3,1,-2,-1,-8,4,4
1526902413013812,23,-6,-2,0,-4,1,-7,-21
1526902413013812,29,16,1,-1,0,-31,-3,2
1526902413034756,-22,-14,-6,-5,-1,40,12,5
1526902413034756,-19,-1,-2,-2,-4,-39,-19,-11
1526902413036751,-18,2,1,4,6,45,4,6
1526902413036751,77,11,-1,-2,-3,-47,-4,5
1526902413048718,-34,-4,-2,0,-2,-8,-9,-4
1526902413048718,13,-2,0,2,-2,6,5,-19
1526902413057695,-20,0,1,-1,5,31,-1,12
1526902413057695,24,1,2,-3,-1,6,0,5
1526902413072654,23,-3,-4,-3,-1,-17,-10,-20
1526902413072654,-22,-5,0,3,2,-17,7,0
1526902413074649,-6,2,1,-1,-7,3,10,19
1526902413074649,5,8,0,-1,2,9,9,14
1526902413095593,-1,-12,-4,-1,-2,-20,-10,-8
1526902413095593,-33,-2,-3,-8,1,15,-4,-9
1526902413096591,0,-5,-3,6,-5,-19,1,-4
1526902413096591,8,3,1,-2,3,12,0,-15
1526902413108558,37,4,-2,-1,-2,23,12,28
1526902413108558,-19,-10,-7,-4,-5,-39,-8,-15
1526902413117535,23,2,0,-3,-2,38,17,23
1526902413117535,-44,-14,-5,-2,-2,-10,-13,-36
1526902413132494,6,5,2,3,3,-20,-6,-6
1526902413132494,-8,-2,-4,-2,-3,12,8,19
1526902413134489,-12,4,-2,-2,-1,-22,-5,-12
1526902413134489,-43,-15,-5,0,2,7,4,0
1526902413155433,1,6,4,-2,-7,12,10,21
1526902413155433,63,7,1,0,-2,-1,7,4
1526902413156431,5,-1,2,-1,1,-15,-5,-8
1526902413156431,-52,-2,-1,-4,-1,21,-11,-15
1526902413168399,-26,-1,-1,1,-3,-59,-9,-16
1526902413168399,30,8,2,0,1,15,-6,9
1526902413178372,21,-2,2,-1,1,6,7,19
1526902413178372,23,-4,-1,2,0,5,4,1
1526902413192334,4,-1,-4,-2,-2,-7,-7,-7
1526902413192334,-21,-1,3,3,0,25,2,-11
1526902413194330,-13,-4,-1,-1,-1,-26,-24,15
1526902413194330,25,4,4,2,1,-4,-9,2
1526902413215273,-34,2,0,-2,3,3,6,-25
1526902413215273,13,-7,-1,0,-3,13,5,16
1526902413217268,15,-7,-6,-10,-2,-1,-5,-13
1526902413217268,2,1,-1,6,-2,-1,8,18
1526902413229236,-38,-7,-1,0,0,30,13,12
1526902413229236,24,7,2,0,0,-26,-26,-2
1526902413238212,-10,-6,-3,-1,4,-19,3,-6
1526902413238212,55,7,-4,-6,-7,4,1,-2
1526902413252174,3,2,-1,0,7,51,-4,3
1526902413252174,-6,-5,1,2,-8,-63,14,2
1526902413254169,-19,0,0,2,-5,-64,-14,-9
1526902413254169,-9,-5,-1,-3,2,11,10,25
1526902413275113,-22,-1,-2,-3,-5,-14,-14,-38
1526902413275113,-19,-1,-2,-4,-1,35,0,-7
1526902413277108,1,5,1,1,0,23,5,1
1526902413277108,-19,0,1,0,-2,-10,5,5
1526902413289076,8,-2,-2,-2,-4,-9,-3,1
1526902413289076,-4,-5,-6,0,1,4,2,-7
1526902413298052,-38,0,2,1,-2,6,0,-15
1526902413298052,12,-4,-3,-2,0,2,4,16
1526902413313012,24,12,2,2,2,3,-15,6
1526902413313012,-80,-15,-3,1,4,6,14,-18
1526902413314009,45,2,-4,-8,-4,5,-7,-6
1526902413314009,-9,0,0,8,-2,6,0,-6
1526902413334953,26,0,0,-4,1,-21,-12,12
1526902413334953,35,11,1,-2,-1,-6,-7,7
1526902413336948,-70,-15,0,6,-3,-15,10,-5
1526902413336948,-30,-6,-5,-4,-2,20,2,-7
1526902413348916,15,7,3,4,-4,-46,-22,19
1526902413348916,19,1,-3,-3,0,17,3,-13
1526902413357892,2,0,-2,-6,0,3,-7,-6
1526902413357892,22,1,0,-3,-2,0,11,9
1526902413372851,-21,-7,-1,2,0,10,11,-6
1526902413372851,-4,2,-1,-2,2,28,-2,9
1526902413373849,19,1,1,1,-9,-58,-9,-18
1526902413373849,-5,-8,-1,-3,3,21,6,10
1526902413394793,20,4,1,-1,-6,-39,0,-8
1526902413394793,-43,-4,-1,1,-3,-12,2,-10
1526902413396788,-27,-1,-1,1,3,23,-7,1
1526902413396788,-28,5,0,0,0,-22,-7,-2
1526902413408755,-24,-2,-2,1,4,13,-3,-6
1526902413408755,1,-18,-3,-4,-4,47,14,-7
1526902413417732,48,8,-1,-1,-1,6,8,3
1526902413417732,-35,-6,-3,-2,-3,-32,-23,-12
1526902413432692,31,1,2,3,8,47,11,15
1526902413432692,30,1,-1,-1,-1,-14,-5,-2
1526902413434686,3,1,-2,0,2,28,28,23
1526902413434686,-6,-9,-3,-1,-1,-24,-25,-35
1526902413455630,16,-1,-3,-6,-4,12,16,7
1526902413455630,-6,4,0,11,4,-4,1,5
1526902413456628,16,-4,-3,-10,-6,0,3,3
1526902413456628,81,7,2,0,1,2,-1,9
1526902413477571,-124,-14,-3,-3,-3,-9,-11,-33
1526902413477571,31,2,1,-2,0,1,5,7
1526902413479566,16,-1,-2,2,8,58,-4,27
1526902413479566,-13,-2,-3,-2,-8,-56,2,-1
1526902413492532,13,-2,-1,-1,2,34,20,12
1526902413492532,-16,-5,-2,-7,-3,-59,-19,-6
1526902413494527,22,10,4,5,3,33,-4,1
1526902413494527,-17,-6,1,0,-1,15,6,16
1526902413515470,13,-5,-4,1,-4,6,2,-15
1526902413515470,4,11,1,-2,0,-7,6,15
1526902413516468,-10,-4,-3,-2,-2,-23,-15,-13
1526902413516468,-12,5,4,2,-1,35,23,11
1526902413537412,45,4,-1,-4,-3,-11,-11,7
1526902413537412,-36,-10,0,0,-1,-23,-37,-34
1526902413539407,-6,1,-2,-1,0,-18,3,10
1526902413539407,10,0,0,-3,0,24,1,-16
1526902413552372,-17,0,1,1,0,9,3,13
1526902413552372,35,7,1,-1,-1,4,3,7
1526902413554366,-19,-5,-1,1,3,17,3,-10
1526902413554366,-14,0,-4,-2,-5,-62,-14,8
1526902413575310,26,1,0,-12,-12,-85,-15,1
1526902413575310,-4,-2,0,8,3,24,-2,-7
1526902413577305,-16,-6,0,-4,-2,-19,0,-16
1526902413577305,20,3,0,0,4,28,2,17
1526902413597251,-4,-4,-5,-3,1,-8,-5,-5
1526902413597251,8,1,-3,-3,-9,22,11,4
1526902413599247,13,1,0,1,1,-18,-10,15
