timestamp,emg1,emg2,emg3,emg4,emg5,emg6,emg7,emg8
1529256752074760,-18,-12,-1,-5,-3,5,2,-11
1529256752074760,-13,5,1,1,13,6,-4,6
1529256752089722,31,-1,2,0,-4,-1,2,-1
1529256752089722,-48,-1,-2,-17,-6,-5,-11,-4
1529256752090712,-2,-7,-3,-1,-4,0,0,-9
1529256752090712,41,0,0,0,0,0,0,-5
1529256752111655,9,7,-3,0,-4,-3,-2,6
1529256752111655,36,7,2,-4,6,5,6,0
1529256752113650,-16,-12,-5,9,-2,-1,-4,-3
1529256752113650,-9,1,3,-2,5,0,1,0
1529256752125618,20,8,2,8,2,2,4,11
1529256752125618,1,-2,0,-1,5,0,3,-2
1529256752134594,-19,-11,-5,-5,-3,-5,-4,-8
1529256752134594,20,9,1,-2,-3,0,2,5
1529256752149554,-2,-5,-3,3,0,-2,-2,1
1529256752149554,-38,-5,-1,-3,0,-1,-4,-13
1529256752151548,5,0,-3,-3,-1,0,0,6
1529256752151548,2,-1,1,0,1,-1,-1,-3
1529256752172499,2,-15,-3,4,0,-3,-2,-4
1529256752172499,11,5,1,-4,1,-1,0,2
1529256752173491,-4,-38,-12,2,1,-2,-2,4
1529256752173491,20,71,23,11,9,0,0,-1
1529256752185457,-1,-15,-7,3,7,5,-1,-2
1529256752185457,-12,-3,0,-3,-1,-4,-2,-8
1529256752194434,-12,-56,-14,-6,-3,-3,0,1
1529256752194434,7,67,1,-14,-20,-13,-3,2
1529256752209393,2,-4,9,7,-17,4,4,5
1529256752209393,-6,-10,-12,-7,12,-1,-1,-9
1529256752211389,10,33,9,-7,-44,6,3,1
1529256752211389,-8,-43,-9,3,28,-2,0,-1
1529256752232332,-5,6,-9,-17,-33,-10,-8,-4
1529256752232332,9,-7,4,10,20,6,3,6
1529256752233330,-4,3,-1,6,12,-4,-6,-5
1529256752233330,28,-8,0,4,2,5,3,6
1529256752245298,-39,-15,-7,1,4,-5,-4,-4
1529256752245298,9,-5,1,1,-9,-1,3,4
1529256752255275,-1,16,-2,-6,2,-4,-3,-4
1529256752255275,41,-15,-1,0,-5,3,6,12
1529256752269234,-29,-2,-5,-5,6,-5,-4,-7
1529256752269234,-7,1,0,-4,-6,-1,-2,-6
1529256752271229,-9,12,5,4,10,3,-1,2
1529256752271229,38,-8,-4,-4,-8,-1,2,4
1529256752292172,-21,-3,1,0,4,0,0,-6
1529256752292172,12,5,-2,-2,0,-5,-5,-1
1529256752293170,-43,-7,1,2,6,-9,-1,1
1529256752293170,38,-3,-3,-13,-6,-2,0,-2
1529256752306135,18,8,5,34,2,4,0,9
1529256752306135,-48,-5,3,5,4,6,2,0
1529256752315111,4,4,-1,-6,-2,-19,-4,-10
1529256752315111,-18,-15,-8,-2,-8,-1,-1,3
1529256752329074,24,18,14,31,43,10,9,10
1529256752329074,33,-2,-5,-5,-11,0,-8,-10
1529256752331068,-15,-4,-4,-2,2,-3,3,0
1529256752331068,-44,-6,4,-7,-7,2,1,-7
1529256752352012,70,5,-4,-14,-8,-7,-4,4
1529256752352012,-16,-8,-2,4,-1,2,1,6
1529256752354007,13,6,3,-5,1,7,1,-4
1529256752354007,-16,-10,-3,2,0,-4,-3,-9
1529256752365975,-17,-2,-2,-6,-5,-3,-1,-5
1529256752365975,64,17,0,-9,1,-4,2,10
1529256752374951,-1,-2,-3,-1,-4,-5,-3,-1
1529256752374951,-36,-8,-3,5,3,0,-2,-3
1529256752389911,-21,-6,-1,-5,4,2,-1,-6
1529256752389911,-4,5,2,-2,-8,-2,-1,-3
1529256752390909,11,-3,-3,0,-2,0,0,4
1529256752390909,-16,-19,-4,4,4,1,0,-4
1529256752411852,9,7,-2,-13,-4,-3,0,0
1529256752411852,-3,-3,0,0,-5,-2,2,-2
1529256752413848,2,-5,-1,6,2,5,1,1
1529256752413848,-1,22,2,3,10,-1,-6,-9
1529256752425815,5,9,-3,-3,1,1,2,2
1529256752425815,-28,-61,-9,1,19,12,1,-3
1529256752434791,5,61,7,-7,-37,-24,-9,-6
1529256752434791,1,-13,0,-3,-10,6,7,6
1529256752448754,2,-4,0,-2,-13,-1,4,18
1529256752448754,-10,13,-5,0,-9,-5,-7,-17
1529256752455735,8,-33,-15,-8,18,15,1,2
1529256752455735,4,18,9,10,4,-11,-3,0
1529256752471693,-13,-3,0,-10,-38,-6,-7,-11
1529256752471693,1,1,-1,-9,-6,0,3,9
1529256752473687,9,-17,-2,9,15,5,-2,-2
1529256752473687,-9,13,-3,0,6,0,-5,-5
1529256752485655,-4,-10,0,10,25,5,3,2
1529256752485655,11,7,-1,2,-6,-6,-3,0
1529256752494631,-22,15,5,-2,-7,1,0,-4
1529256752494631,-17,-17,-6,-5,-2,3,-2,-5
1529256752509591,2,-9,-5,-6,1,-7,-3,-5
1529256752509591,5,3,1,-4,-7,-2,1,2
1529256752511586,21,-1,-2,1,3,4,0,9
1529256752511586,-21,-14,-2,1,2,0,-3,-9
1529256752532530,31,11,0,-4,0,0,1,6
1529256752532530,-26,-1,1,-15,-23,-6,2,-8
1529256752533528,-85,-18,-3,9,10,-2,-5,-20
1529256752533528,18,0,3,4,15,11,4,11
1529256752545495,14,0,-7,-11,-8,3,0,-5
1529256752545495,53,18,7,-6,-20,6,5,15
1529256752554472,-3,-3,0,-2,-12,-24,-9,-18
1529256752554472,1,-3,-7,15,12,3,4,11
1529256752569431,22,7,11,-6,-7,-5,-3,-1
1529256752569431,-42,-17,-15,4,16,6,-2,-6
1529256752571427,38,14,8,-1,5,1,-3,5
1529256752571427,25,-2,-3,-9,-9,-6,9,3
1529256752592370,33,5,1,5,4,-1,2,7
1529256752592370,-49,7,3,-7,-2,-10,-5,-9
1529256752593367,35,-6,-3,-9,-8,1,-1,4
1529256752593367,-32,-14,-5,-1,-1,-2,-7,-5
1529256752605335,-3,1,-5,-10,-7,0,-2,6
1529256752605335,-53,-4,4,6,8,-2,-8,-19
1529256752614311,57,7,0,7,9,9,6,12
1529256752614311,-32,-14,-1,-6,-11,-7,-5,-9
1529256752629271,-18,-8,-2,2,3,0,-1,-12
1529256752629271,22,6,1,4,3,0,-2,5
1529256752635255,7,-4,1,3,2,1,3,6
1529256752635255,0,4,0,-7,-7,2,-2,-7
1529256752652210,-26,-19,-6,1,1,-4,-4,-10
1529256752652210,25,11,6,9,9,-2,1,8
1529256752654205,-17,-19,-9,-3,-1,3,2,1
1529256752654205,14,47,13,2,1,1,-2,1
1529256752666172,-11,-23,-7,15,37,12,0,0
1529256752666172,20,24,-3,-12,-27,-22,-5,-1
1529256752675149,-23,-18,0,-2,3,15,7,3
1529256752675149,2,-7,-9,-23,-30,-12,-7,-11
1529256752689111,6,35,17,16,0,1,1,3
1529256752689111,1,-22,-7,-1,20,6,3,1
1529256752691106,2,16,1,8,29,-5,1,6
1529256752691106,22,-15,-6,-18,-44,2,5,10
1529256752712050,-23,-3,-2,-3,10,-1,-4,-5
1529256752712050,3,-8,4,6,-4,3,0,3
1529256752714045,1,6,2,6,8,4,1,0
1529256752714045,11,-2,1,10,17,2,-2,3
1529256752726013,-27,-3,-4,-7,-12,-8,-3,-5
1529256752726013,5,-3,-1,10,5,4,1,5
1529256752734989,1,-1,-4,-11,-18,-4,-3,-5
1529256752734989,14,8,4,6,12,-1,0,0
1529256752749948,-43,-12,-4,-11,-19,-1,-1,-6
1529256752749948,-8,-2,-4,-11,-11,-4,-3,-1
1529256752750946,0,5,5,40,31,9,1,0
1529256752750946,17,-4,-1,-3,2,-1,-1,-1
1529256752771890,13,1,1,0,-10,-4,-5,-2
1529256752771890,48,8,3,1,17,12,4,12
1529256752773885,-34,-14,-4,-8,-17,-3,-4,-11
1529256752773885,-16,-10,-5,10,8,3,-2,-6
1529256752785852,5,2,0,-6,9,1,1,6
1529256752785852,-14,2,0,-7,-15,-2,-4,-4
1529256752794829,63,8,5,-11,-11,3,3,5
1529256752794829,-38,-11,-2,-2,13,-5,-3,-7
1529256752808791,12,6,-2,-9,-22,2,-1,-3
1529256752808791,13,-5,1,-1,10,1,1,1
1529256752815772,-50,-5,-5,1,-9,-3,-3,-2
1529256752815772,-33,-10,-1,-18,0,6,3,1
1529256752831730,-7,-4,-2,11,-6,-18,-3,-11
1529256752831730,17,7,5,15,9,2,7,13
1529256752833725,23,1,-2,-5,2,1,-1,-4
1529256752833725,-20,-4,-2,-2,-13,-5,-2,-5
1529256752845692,-7,-3,-1,-12,1,4,-3,-2
1529256752845692,-15,-9,-3,-8,-3,-1,-1,-8
1529256752854669,29,7,-6,-10,-12,-7,-3,0
1529256752854669,-9,-9,-3,5,1,0,-1,-2
1529256752868631,2,14,7,7,8,4,3,5
1529256752868631,3,-3,-1,2,2,-3,1,3
1529256752875613,-16,-9,1,-5,-7,-1,-2,-5
1529256752875613,8,-4,-3,4,3,0,0,0
1529256752891570,8,20,2,1,5,2,1,4
1529256752891570,-5,3,1,6,9,1,-3,-1
1529256752893565,10,3,-2,-5,3,-8,-1,5
1529256752893565,-2,-49,-12,4,10,8,3,9
1529256752914509,1,59,18,-7,-41,-9,-5,-10
1529256752914509,1,5,4,6,22,12,5,-2
1529256752916503,-6,-2,-7,-20,-40,-14,-4,-3
1529256752916503,14,-10,5,11,19,15,5,7
1529256752928471,1,-17,-14,-3,28,-6,-1,5
1529256752928471,6,0,4,10,23,16,7,4
1529256752937447,-18,17,-3,-12,-33,-9,-8,-16
1529256752937447,8,10,9,3,-10,3,5,5
1529256752952407,2,-9,-6,5,21,5,1,-2
1529256752952407,-5,-20,-7,-1,0,-12,-11,-13
1529256752953405,-3,1,1,6,27,6,1,6
1529256752953405,23,15,0,-3,-9,-9,-5,-4
1529256752965372,-7,-6,1,2,-6,2,3,2
1529256752965372,9,-7,-5,-10,-11,-6,-1,4
1529256752974349,-38,-12,-1,-11,-18,0,-5,-9
1529256752974349,21,27,7,30,16,0,4,2
1529256752989308,20,-19,-1,0,4,3,0,3
1529256752989308,49,12,-4,-5,-18,-6,0,10
1529256752995293,-88,-13,2,-22,-23,-7,-4,-14
1529256752995293,-31,-1,-7,-1,9,-5,-11,-25
1529256753012247,23,-8,-3,-2,-9,6,5,13
1529256753012247,-48,-9,-5,-9,-4,-9,-6,-16
1529256753013245,24,16,5,2,10,17,3,-4
1529256753013245,68,12,-2,-16,-16,-20,0,27
1529256753034189,-54,-24,-6,-11,-26,5,-10,-21
1529256753034189,30,3,-8,-2,-7,-8,1,0
1529256753036184,57,7,3,-12,14,3,-1,17
1529256753036184,31,-1,-1,3,-15,-8,-1,-10
1529256753049149,21,-4,-5,1,25,17,11,7
1529256753049149,-4,4,5,4,-13,-13,-20,-5
1529256753056130,-64,-17,-5,13,14,5,0,-10
1529256753056130,22,20,7,-11,-3,-6,-1,10
1529256753072087,-24,-8,-6,-10,-7,-5,0,4
1529256753072087,-24,-13,-2,0,-4,1,1,-9
1529256753074082,28,8,1,5,2,-5,3,7
1529256753074082,-42,-17,-3,-5,-2,5,-7,-14
1529256753095026,6,12,0,5,3,-3,1,-1
1529256753095026,-19,0,-1,1,-3,2,2,3
1529256753096024,28,-7,3,11,6,-3,1,1
1529256753096024,-15,21,-1,-7,0,3,3,-3
1529256753107992,-1,-11,-3,4,4,-8,-5,-4
1529256753107992,24,15,-3,-4,-6,-3,4,5
1529256753116968,6,6,11,12,16,5,5,11
1529256753116968,-12,-38,-4,8,33,4,-7,-7
1529256753131927,9,9,-1,-14,-51,-9,-3,-2
1529256753131927,-13,22,7,8,9,10,4,7
1529256753133922,8,-1,-10,-6,-5,-14,-2,1
1529256753133922,-13,-25,-3,-4,-20,1,3,2
1529256753154866,4,-6,-7,-6,11,0,-1,-2
1529256753154866,-8,18,7,-18,-48,-3,1,-3
1529256753155864,12,-8,-2,17,26,8,-1,1
1529256753155864,5,18,4,-6,-21,-13,-1,-1
1529256753167835,4,-15,1,2,-4,0,3,5
1529256753167835,-10,-4,0,9,25,1,-3,-14
1529256753176808,-2,0,1,1,-4,-2,-3,-5
1529256753176808,-21,-14,-1,7,13,-1,-4,-11
1529256753191768,18,20,6,4,-1,-1,1,1
1529256753191768,-36,-21,-6,-4,-1,-1,-3,-9
1529256753193763,12,8,0,1,4,0,1,3
1529256753193763,18,12,-1,-5,-2,4,3,7
1529256753214706,-23,-14,-1,2,6,-4,-3,-5
1529256753214706,26,2,5,2,7,-1,-1,1
1529256753216715,4,-1,-3,-5,-11,1,0,6
1529256753216715,-8,3,-3,-10,-8,-2,-4,-4
1529256753229667,0,0,0,1,-2,-5,-4,-16
1529256753229667,-51,-15,-7,-10,24,-2,-5,-4
1529256753231661,34,-6,-4,4,-26,-11,6,12
1529256753231661,-22,2,-2,-1,0,0,-2,-6
1529256753251608,-3,-2,3,-23,-21,-2,5,6
1529256753251608,58,-4,-4,29,27,1,-4,3
1529256753253604,-86,-14,-7,-15,17,2,-5,-15
1529256753253604,31,13,3,-1,-13,6,1,7
1529256753274547,1,-11,-5,-18,-20,-22,-5,-2
1529256753274547,-38,-7,-8,-11,-27,-15,-6,-5
1529256753276541,30,14,8,9,21,19,7,10
1529256753276541,41,2,-3,6,-1,-5,1,-4
1529256753288513,-67,-9,-1,8,15,4,3,-5
1529256753288513,22,4,2,-13,-22,-9,2,6
1529256753297485,16,6,-1,1,-4,-6,-6,-6
1529256753297485,19,1,3,-2,3,1,0,6
1529256753312445,-11,-6,0,-3,5,3,0,0
1529256753312445,14,1,-2,6,5,2,2,-1
1529256753313443,-1,1,1,1,-6,1,2,5
1529256753313443,-54,-9,-5,-3,0,2,-1,-15
1529256753334386,18,2,1,10,13,2,-1,7
1529256753334386,1,-3,-1,-1,-4,5,-1,0
1529256753336381,15,6,4,0,-2,1,-1,3
1529256753336381,-4,-11,-3,-6,-4,-4,1,2
1529256753348349,-3,-11,-5,10,12,-1,-7,-9
1529256753348349,14,28,12,8,9,4,0,-1
1529256753357326,-19,-57,-5,-1,-2,-2,-3,-5
1529256753357326,20,37,6,5,1,0,0,11
1529256753372285,-8,25,9,-4,-24,-17,-7,-15
1529256753372285,1,-2,-10,-13,-17,8,8,5
1529256753373283,0,-5,0,-8,-18,-8,-3,-4
1529256753373283,-10,2,-5,-4,-4,5,-1,0
1529256753394226,29,14,0,15,53,11,2,6
1529256753394226,-18,-4,-1,-9,-36,-8,-1,0
1529256753396221,-1,5,-3,-5,-8,1,2,-2
1529256753396221,-15,-19,-5,2,3,-5,-1,3
1529256753408189,27,14,5,8,18,4,0,6
1529256753408189,-17,-3,-1,4,23,0,-3,-7
1529256753417165,7,-7,-7,5,8,-1,-2,3
1529256753417165,27,8,2,-3,-4,2,2,6
1529256753432125,-27,-13,-7,-13,-18,-2,-2,-3
1529256753432125,-8,-19,-1,-16,0,0,-1,-8
1529256753434120,14,9,-6,1,-17,-5,-4,-2
1529256753434120,32,11,6,-1,11,3,4,5
1529256753455066,-18,-8,-1,-2,-8,0,-3,-7
1529256753455066,44,0,0,1,8,8,6,24
1529256753456062,-75,2,-3,-6,-6,-10,-12,-47
1529256753456062,53,-11,-6,-6,2,2,-1,4
1529256753468029,27,11,-5,-1,-10,1,2,14
1529256753468029,-18,-5,2,4,19,1,-5,-11
1529256753477006,32,17,3,13,12,2,2,15
1529256753477006,19,-3,5,2,-5,11,1,5
1529256753491965,-74,-24,-10,9,-18,-23,-11,-19
1529256753491965,43,4,5,6,23,6,7,6
1529256753493960,-9,6,0,-1,-2,1,-3,-3
1529256753493960,-16,-4,-4,-9,3,-8,-5,-9
1529256753514903,9,-2,4,2,5,8,6,17
1529256753514903,-64,-9,-2,-2,-10,6,-4,-11
1529256753515901,26,2,5,8,7,-4,-1,1
1529256753515901,-24,2,-1,-3,-7,-3,-2,1
1529256753527869,37,-2,-2,1,5,8,0,0
1529256753527869,11,0,-1,5,-8,-3,0,6
1529256753536845,3,-4,-1,-7,-1,4,0,9
1529256753536845,-37,-2,-1,2,-2,-2,-1,-10
1529256753551805,12,1,0,2,6,3,2,-1
1529256753551805,-7,-5,-3,0,-7,-7,-5,-3
1529256753558787,0,5,-3,-7,-2,1,3,5
1529256753558787,-22,-23,-1,6,4,-6,-3,-4
1529256753574744,6,20,4,3,4,-1,1,0
1529256753574744,7,-24,-5,0,-6,-1,2,4
1529256753575741,7,0,-6,0,10,-2,-4,-9
1529256753575741,-7,48,15,12,20,5,-1,0
1529256753596685,5,-18,-8,-11,-25,-13,-5,-7
1529256753596685,-13,-36,-12,-31,-49,-4,-2,-4
1529256753598680,-3,69,10,2,3,0,1,1
1529256753598680,-10,-17,-12,-17,-27,2,6,2
1529256753611645,-1,-12,6,15,41,10,-2,-4
1529256753611645,0,13,-1,6,8,-18,-6,-3
1529256753618626,6,-18,-3,2,-9,0,2,7
1529256753618626,-11,-9,-6,5,10,-1,-8,-4
1529256753634583,1,4,-4,-9,-8,1,-2,-4
1529256753634583,6,-4,-2,6,8,4,0,3
1529256753636579,-2,-11,-2,-3,3,1,1,1
1529256753636579,21,7,1,2,-2,-4,1,13
1529256753648546,-42,-20,-7,-1,-4,-2,-3,-20
1529256753648546,2,16,4,9,21,4,0,4
1529256753657523,-4,-13,-3,-7,-6,-2,0,-6
1529256753657523,7,-4,1,1,-7,-6,-4,-1
1529256753672482,35,15,7,-5,-7,3,7,18
1529256753672482,-56,3,-4,5,5,-2,-9,-25
1529256753673481,-1,-18,-4,-6,-17,-2,2,-4
1529256753673481,-14,-8,-5,-8,-9,-7,-4,-7
1529256753694424,29,-2,2,7,13,7,3,13
1529256753694424,-8,7,2,3,-4,-3,2,-3
1529256753696419,55,6,9,-1,10,4,10,17
1529256753696419,-16,-8,-13,-4,-7,-14,-10,-8
1529256753708387,-20,-3,-2,9,2,1,-4,-6
1529256753708387,17,4,1,-2,-10,-4,-3,3
1529256753717363,-40,-24,-3,1,4,5,-2,-3
1529256753717363,-17,1,3,-7,-6,-4,-3,-8
1529256753732322,-43,-6,-9,-13,-5,3,1,-7
1529256753732322,14,-6,-1,3,5,1,4,-4
1529256753733320,3,6,2,0,-1,7,-2,-1
1529256753733320,-7,-4,5,1,6,10,5,5
1529256753754265,6,-2,-5,1,-9,-3,-5,2
1529256753754265,-16,4,1,-3,4,-1,-3,-6
1529256753756259,2,2,2,-1,3,1,1,5
1529256753756259,27,-1,-1,2,-2,0,0,0
1529256753768226,24,5,2,-1,0,-1,0,4
1529256753768226,21,6,3,-4,-2,5,3,8
1529256753777203,-6,-2,-1,2,-6,-9,-2,-2
1529256753777203,0,0,0,2,6,2,0,2
1529256753791165,9,8,4,0,0,-3,0,-1
1529256753791165,5,-12,-1,2,-1,0,2,9
1529256753798146,-15,16,1,3,8,-3,-6,-12
1529256753798146,2,-11,-5,5,15,12,3,3
1529256753814104,-1,-17,0,4,13,-2,5,4
1529256753814104,3,-37,-17,-16,0,34,1,-1
1529256753816100,13,81,32,9,-23,-32,-1,3
1529256753816100,-2,-7,-4,-20,-58,-2,5,0
1529256753828067,-1,1,1,11,25,3,-1,2
1529256753828067,19,4,8,12,1,-50,-5,3
1529256753837042,0,-33,-18,-5,26,19,0,5
1529256753837042,-22,-10,1,1,1,20,-1,-10
1529256753851005,3,13,-5,-21,-55,-51,-8,-3
1529256753851005,5,18,3,6,15,64,10,7
1529256753857987,-5,-22,-4,1,-15,-77,-8,-3
1529256753857987,0,14,4,10,21,2,0,3
1529256753874941,-4,-9,-4,-4,-1,14,-3,-9
1529256753874941,11,13,3,1,12,-2,-3,2
1529256753875939,-7,-9,-6,-4,-2,21,1,-2
1529256753875939,-18,-11,-4,-5,3,-2,-2,-8
1529256753896883,-3,8,6,10,14,8,4,5
1529256753896883,19,9,2,7,-12,-15,-1,2
1529256753898877,3,-16,-2,0,2,23,3,4
1529256753898877,28,26,8,0,1,-14,0,1
1529256753911843,1,-18,-14,-9,-4,2,-5,6
1529256753911843,19,14,11,12,3,-2,5,8
1529256753917826,-22,-14,-13,-27,-32,0,-4,-8
1529256753917826,-67,-12,1,25,33,-14,-2,-3
1529256753934781,67,14,6,10,11,0,-4,-9
1529256753934781,25,-2,-3,-11,-15,-9,0,5
1529256753935779,-37,-12,0,12,9,8,2,1
1529256753935779,24,3,-3,-24,-4,-4,1,5
1529256753948744,17,7,1,9,-7,2,-2,-2
1529256753948744,-68,-13,-8,-5,-7,-12,-7,-15
1529256753957720,0,-2,-1,-8,-3,8,0,-2
1529256753957720,-13,-3,-1,11,2,1,0,-4
1529256753970685,-4,-2,-1,-11,4,10,3,8
1529256753970685,36,1,-3,-8,-29,-39,-15,-3
1529256753979661,-11,-3,-6,16,26,1,10,-6
1529256753979661,-6,-8,-4,-2,-5,-2,-6,-5
1529256753994621,-3,3,4,2,3,3,2,1
1529256753994621,7,5,2,-6,0,8,9,25
1529256753996616,-4,-9,-7,-5,-2,1,-9,-21
1529256753996616,2,-1,-1,2,-5,-8,-1,7
1529256754017560,-1,0,3,-6,-10,1,0,0
1529256754017560,-38,-5,-2,-1,4,5,-5,-12
1529256754018558,29,-3,0,-1,-1,1,3,10
1529256754018558,28,2,-2,-2,-4,-2,2,3
1529256754030525,-35,-28,-10,-9,23,44,-1,-12
1529256754030525,-6,11,5,4,-16,-26,-3,-9
1529256754039502,22,23,-2,6,0,-3,-4,4
1529256754039502,-7,-8,9,11,14,-2,-3,-2
1529256754054462,-4,18,2,-18,-43,1,-4,0
1529256754054462,9,23,0,-4,-7,-1,11,3
1529256754056456,-1,-47,-6,-1,15,9,-2,-1
1529256754056456,-2,33,2,1,12,32,-3,-2
1529256754077400,-2,-9,0,2,-29,-49,-8,-2
1529256754077400,-1,3,-9,-6,22,6,-2,-11
1529256754078397,-7,-17,-3,-26,-93,10,3,1
1529256754078397,12,7,-4,-3,-5,-15,2,4
1529256754090365,-1,7,6,12,30,4,0,1
1529256754090365,-5,-9,-2,2,18,47,-1,-6
1529256754099341,-3,16,7,12,33,-56,-7,0
1529256754099341,-5,-9,-2,-1,-7,15,1,-8
1529256754114301,4,3,-3,-1,-10,-9,-3,-2
1529256754114301,-9,-11,1,0,-8,-8,-1,-4
1529256754116296,7,8,1,1,28,26,2,-1
1529256754116296,19,0,-1,-10,-15,-5,2,8
1529256754137240,-13,-3,2,-2,-4,-18,0,-5
1529256754137240,-1,-9,0,6,14,8,2,-2
1529256754138239,-8,6,2,-5,-3,7,1,3
1529256754138239,15,-1,-1,-13,-15,-21,-6,-3
1529256754152200,8,-5,1,19,18,16,6,10
1529256754152200,5,4,0,11,17,3,-6,-8
1529256754153197,46,18,2,-12,-13,-1,4,14
1529256754153197,-5,-17,-4,-2,-16,0,-4,-3
1529256754174141,-24,-1,5,24,38,12,3,-8
1529256754174141,-36,-7,-4,-5,-9,-4,-4,-2
1529256754176136,-53,-6,-7,-1,2,-11,-10,-16
1529256754176136,23,2,-1,-19,2,8,-1,4
1529256754197080,-26,-5,-3,-13,-18,-4,7,-8
1529256754197080,71,10,5,-6,-7,-6,5,10
1529256754199075,4,-7,-5,5,15,1,-2,2
1529256754199075,-30,-8,-3,-2,-6,3,-2,-5
1529256754211043,-7,4,-2,0,-6,-9,-6,-5
1529256754211043,8,0,2,14,5,-4,0,3
1529256754220019,8,0,2,-11,-8,10,2,1
1529256754220019,-34,-2,-4,2,0,-16,-9,-20
1529256754234979,21,-2,0,-4,4,0,-1,1
1529256754234979,7,-2,-3,-15,-14,0,0,2
1529256754235976,5,-1,-1,1,1,2,-1,2
1529256754235976,-27,-2,1,10,8,-2,1,-5
1529256754256920,17,2,-4,-12,-8,2,1,6
1529256754256920,-39,-7,-7,-5,-5,-5,-8,-11
1529256754258915,-7,-3,0,8,12,17,1,2
1529256754258915,19,2,-2,3,-5,-2,1,-2
1529256754270883,-9,-15,-7,-3,10,23,2,4
1529256754270883,-8,11,5,3,-10,-45,-6,-1
1529256754279859,13,-3,0,10,14,-18,0,5
1529256754279859,9,-26,-19,-15,-30,3,-1,0
1529256754294819,3,36,24,8,21,21,2,5
1529256754294819,-4,27,-5,-18,-44,0,-2,3
1529256754295817,-17,10,6,3,23,36,5,-12
1529256754295817,3,-34,-10,5,19,-30,-7,0
1529256754316760,-1,-2,-6,-14,-87,-68,-10,-1
1529256754316760,9,5,4,1,12,2,1,3
1529256754318755,-16,6,4,3,-3,-14,-2,-8
1529256754318755,-1,-3,-1,-3,22,57,2,2
1529256754330723,6,-4,-6,0,12,-28,-4,-3
1529256754330723,-10,-9,1,5,15,2,2,3
1529256754339699,8,-6,-5,2,-10,8,1,2
1529256754339699,0,14,6,6,16,-1,0,1
1529256754353661,-1,1,-4,-4,11,4,-2,-4
1529256754353661,6,-11,-4,-2,-4,4,2,4
1529256754360643,-12,-9,-3,4,-6,-3,-1,-5
1529256754360643,13,12,7,-7,-5,-13,2,8
1529256754376600,-8,0,-4,4,-14,0,-3,-2
1529256754376600,19,-10,3,13,28,18,2,2
1529256754378595,-17,-3,1,-5,-13,-7,2,-4
1529256754378595,8,10,3,3,-2,-9,1,0
1529256754391560,37,-12,-8,-18,-16,7,-6,-5
1529256754391560,-114,-23,-8,12,23,0,0,-14
1529256754398541,21,7,5,9,14,4,-1,5
1529256754398541,26,19,1,1,-12,-13,-1,-2
1529256754414499,-31,-11,2,-1,15,14,8,7
1529256754414499,72,-3,-7,-15,-6,-9,-9,1
1529256754416494,-26,4,-1,-10,-23,-11,-3,-6
1529256754416494,-76,-21,1,4,6,5,1,-13
1529256754437438,87,17,-3,-5,2,0,-2,20
1529256754437438,1,2,2,-9,-10,6,0,-2
1529256754438436,-9,-4,-2,-2,-7,-20,-3,3
1529256754438436,0,-6,-2,0,2,4,1,0
1529256754450403,-10,-4,-1,-2,0,-4,-5,-12
1529256754450403,-12,-10,-4,2,-2,1,1,1
1529256754459379,37,7,0,-5,1,4,1,9
1529256754459379,-30,1,2,3,-2,-3,0,-18
1529256754474339,-62,-11,-3,1,8,2,2,-4
1529256754474339,14,3,0,-3,-7,-1,0,1
1529256754476334,6,-5,-5,-5,-2,-1,-6,-2
1529256754476334,8,3,-1,2,-1,-6,-2,5
1529256754497277,0,-2,-2,0,2,5,1,-4
1529256754497277,-2,0,2,-1,-3,1,2,1
1529256754498275,-1,-3,-2,4,21,41,5,4
1529256754498275,23,6,2,12,27,-28,-1,5
1529256754519219,-6,-31,-3,7,2,-7,-13,-12
1529256754519219,-10,31,-2,-38,-93,-50,-6,-3
1529256754521214,14,-24,-1,4,23,4,-4,0
1529256754521214,6,36,7,11,35,9,0,0
1529256754534179,-11,-6,-6,-15,-46,-5,-1,1
1529256754534179,-6,-21,-1,9,7,51,5,-8
1529256754536174,-7,9,-14,-19,-12,-36,-8,-7
1529256754536174,7,-23,-2,-5,-23,45,6,4
1529256754557118,-8,0,3,11,2,-51,-7,-2
1529256754557118,17,37,4,3,5,-10,9,2
1529256754559113,1,-21,-3,2,11,19,3,-1
1529256754559113,-29,-24,-3,0,11,6,-6,-13
1529256754571080,13,28,1,-1,6,5,3,6
1529256754571080,-3,-36,-8,1,5,8,-3,0
1529256754580057,15,16,8,11,11,0,4,9
1529256754580057,19,11,-2,-6,-18,-18,-4,2
1529256754594019,-18,-12,-3,-6,-7,11,4,2
1529256754594019,2,-2,3,6,29,5,-6,-13
1529256754601000,49,15,3,4,-13,-7,-2,3
1529256754601000,-78,-18,-11,-15,-12,-17,-8,-5
1529256754616958,47,11,4,3,2,24,13,19
1529256754616958,-46,-23,-6,1,11,2,-13,-27
1529256754618953,48,25,7,17,-1,-4,6,6
1529256754618953,-5,-13,-2,-1,-15,7,0,-5
1529256754630920,-90,-23,-10,-1,27,10,-24,-14
1529256754630920,37,14,6,6,10,-9,29,11
1529256754639897,7,-6,0,-12,-21,-10,-2,0
1529256754639897,13,9,1,6,-4,5,9,11
1529256754652862,-32,14,5,-9,-9,-6,1,-4
1529256754652862,34,-6,-6,-18,7,7,-5,5
1529256754661838,-43,-10,-4,13,9,5,-2,-6
1529256754661838,22,8,5,1,6,1,0,6
1529256754676798,33,7,5,7,5,-1,4,8
1529256754676798,-66,-9,-1,-4,-4,-6,-10,-13
1529256754678793,-12,-1,-1,5,0,2,3,-1
1529256754678793,21,2,-1,-10,-2,-4,-3,2
1529256754699736,17,-3,-1,3,2,4,3,-4
1529256754699736,9,2,2,7,3,0,-4,2
1529256754701731,-14,-6,-6,-16,-7,-5,-8,-14
1529256754701731,8,7,1,4,-6,-12,-1,-1
1529256754713699,8,-6,-2,-2,11,12,5,-2
1529256754713699,9,-1,-2,6,5,25,1,9
1529256754722676,-15,0,-3,-9,-13,-5,-4,-2
1529256754722676,16,-1,2,3,-4,-43,-8,0
1529256754736637,6,-16,1,17,25,-7,3,-2
1529256754736637,-9,26,-6,-29,-53,76,-6,-3
1529256754738633,0,-16,2,1,-25,-71,-3,3
1529256754738633,-1,4,-1,-5,-33,29,4,9
1529256754759576,-1,9,0,9,72,78,10,-1
1529256754759576,-1,19,5,-9,-60,-61,-17,-7
1529256754761571,12,1,4,-1,1,-5,12,10
1529256754761571,-2,3,1,5,25,3,-3,-1
1529256754773539,-3,-31,-8,-24,-100,-46,-5,-2
1529256754773539,-9,-22,-1,11,62,58,10,3
1529256754782515,-1,17,-2,-6,-10,-19,-5,0
1529256754782515,6,-20,-1,6,19,5,0,0
1529256754797475,-9,7,0,8,29,11,-6,-13
1529256754797475,10,-1,1,6,11,-16,4,9
1529256754798473,-3,-4,-3,-7,-7,12,-3,-2
1529256754798473,9,0,-2,0,6,1,-4,-5
1529256754819416,-2,3,-1,-6,-8,-2,1,4
1529256754819416,8,6,3,6,-6,-34,-1,4
1529256754821412,30,-12,-5,-6,5,12,0,2
1529256754821412,-51,-15,-9,2,12,8,0,-8
1529256754834376,23,21,9,-6,-14,-10,2,11
1529256754834376,69,0,4,8,12,-6,0,11
1529256754836371,-41,-10,0,7,3,17,1,-8
1529256754836371,2,-3,-8,-27,-19,-4,-4,-8
1529256754857315,-24,3,-2,-5,-12,-9,-2,-15
1529256754857315,-1,-13,1,42,49,5,1,13
1529256754858313,50,8,-3,-9,-4,11,-2,-4
1529256754858313,10,17,8,12,12,-2,1,6
1529256754870280,-24,-13,-7,-10,-22,-14,-3,-10
1529256754870280,-7,-6,-2,-11,1,5,2,-6
1529256754880254,11,2,-2,-35,-10,-6,-4,-1
1529256754880254,37,1,-5,28,-12,1,-6,0
1529256754894216,53,10,3,9,18,6,2,18
1529256754894216,-62,-11,-4,-5,-10,-13,3,-16
1529256754901198,-13,0,-1,2,0,5,-1,1
1529256754901198,29,10,3,-20,-13,-4,4,8
1529256754917155,-5,-3,-1,3,4,-2,-6,-9
1529256754917155,-10,-3,-5,4,-5,-10,-4,0
1529256754919150,-35,-9,-3,-1,5,4,-4,-7
1529256754919150,3,1,0,-5,-2,3,3,5
1529256754939096,-6,2,3,15,5,0,-2,-6
1529256754939096,-5,-8,-1,-9,0,-9,-1,-3
1529256754941091,-15,2,-2,4,5,12,1,-1
1529256754941091,1,2,-1,0,15,35,1,-4
1529256754953059,-5,-9,0,0,-15,-62,-2,1
1529256754953059,12,17,-1,-2,17,14,2,8
1529256754962035,-6,-5,2,20,24,-8,-1,1
1529256754962035,-9,-4,-4,-1,-18,-19,-6,-8
1529256754976995,6,-22,-1,-13,3,41,7,10
1529256754976995,14,22,10,-1,9,-10,1,0
1529256754978990,-4,-6,-4,15,45,36,7,2
1529256754978990,-2,41,5,-17,-69,-20,-11,-6
1529256754999934,2,-37,-12,-5,7,5,-1,1
1529256754999934,-10,28,-2,-14,-38,13,3,4
1529256755000932,3,-3,3,6,12,23,3,-2
1529256755000932,-10,-23,-4,-1,24,-35,-4,-9
1529256755014894,5,17,3,9,16,0,-3,-1
1529256755014894,3,-17,-3,2,10,20,-2,4
1529256755021876,-18,11,2,-7,-20,-32,-6,-5
1529256755021876,-1,7,1,4,13,18,6,3
1529256755036835,-1,11,1,0,-2,-4,-1,3
1529256755036835,1,-22,-5,1,7,-9,-2,-3
1529256755038830,4,0,-1,-4,-18,-4,-1,5
1529256755038830,-2,-1,2,-2,3,-2,2,0
1529256755059774,-9,-2,-5,-1,2,10,-2,-6
1529256755059774,10,-4,0,-2,-8,-15,-2,2
1529256755060772,21,11,4,-7,-24,-6,3,9
1529256755060772,-27,-24,-7,-8,5,4,-3,-13
1529256755074734,-68,0,-6,-23,-19,-1,-3,-5
1529256755074734,-7,-5,-1,31,9,-15,-1,-4
1529256755076729,64,9,11,26,34,-11,-1,5
1529256755076729,2,-11,-5,-10,8,11,9,1
1529256755096675,68,19,4,-4,-23,-14,-12,7
1529256755096675,-46,-18,-8,-5,-15,-20,-5,-15
1529256755098670,-8,-3,-3,-9,-4,26,-2,8
1529256755098670,9,-9,2,10,14,-7,5,-3
1529256755119614,10,12,5,20,-4,12,-2,-12
1529256755119614,72,11,0,17,7,1,6,16
1529256755121609,-17,-6,-5,-12,-10,-18,-19,-12
1529256755121609,-43,-6,-2,-11,4,5,-2,1
1529256755133577,16,6,-1,-17,-10,7,4,2
1529256755133577,10,-1,0,14,1,-8,-8,-5
1529256755140558,-44,-10,-5,-8,-6,4,2,-10
1529256755140558,18,1,0,4,-6,4,0,7
1529256755157513,25,8,-2,-4,6,-4,2,6
1529256755157513,-41,-5,0,-20,-5,4,2,0
1529256755158512,-12,-10,-7,-4,-8,-11,-1,-4
1529256755158512,-16,2,4,3,-2,-1,-2,-5
1529256755179454,-4,-3,0,6,5,3,2,0
1529256755179454,1,0,-1,-12,0,-5,-2,-1
1529256755181449,1,4,1,5,-5,5,3,4
1529256755181449,1,-2,-1,4,-2,1,-4,-1
1529256755193416,13,5,1,3,17,3,3,1
1529256755193416,-9,-8,-1,1,19,10,-3,-5
1529256755202393,-17,-17,-7,2,6,-14,0,-3
1529256755202393,23,24,1,-7,1,31,5,2
1529256755217352,-27,-51,-3,-6,-49,-65,-6,0
1529256755217352,2,7,3,-6,30,44,-1,-5
1529256755218350,-2,46,1,-23,-61,-65,-2,-7
1529256755218350,18,-32,-5,13,79,50,11,12
1529256755241289,-9,16,-6,-3,-72,-74,-15,-13
1529256755241289,3,35,5,-2,-9,5,7,7
1529256755242287,-1,-43,-6,-7,2,8,2,5
1529256755242287,5,26,5,2,4,12,3,4
1529256755253257,-14,-1,-5,9,64,40,7,-1
1529256755253257,-7,-31,-7,2,-1,-8,-9,-6
1529256755262233,3,6,-1,6,5,4,-2,0
1529256755262233,0,-1,-1,-2,-14,-25,-3,-1
1529256755276195,-12,-10,1,4,21,26,2,0
1529256755276195,9,1,-2,-12,-27,-20,-6,-4
1529256755283177,-3,-1,1,0,4,17,1,-2
1529256755283177,21,-5,1,-2,-12,-14,-4,11
1529256755299134,-16,8,-1,-5,-4,7,0,-11
1529256755299134,-32,-10,-3,-15,-8,-11,-3,-3
1529256755301129,-1,0,0,11,20,13,1,-7
1529256755301129,29,10,5,1,-2,-4,4,8
1529256755313097,-85,-4,-7,-16,-18,18,-7,-18
1529256755313097,37,-7,-8,-30,-28,-25,0,2
1529256755322073,5,-10,-1,30,25,7,-7,-13
1529256755322073,21,8,2,3,-15,-6,-3,4
1529256755337033,32,11,6,4,10,-1,5,22
1529256755337033,-31,-16,-3,-1,-6,-4,-7,-20
1529256755339028,24,8,-1,-23,-25,5,-3,-1
1529256755339028,-56,-12,-7,-3,-9,-27,-8,-8
1529256755359971,4,2,-1,18,11,1,-7,-7
1529256755359971,-38,-6,4,10,5,-9,14,7
1529256755360969,9,8,-2,-11,2,8,12,10
1529256755360969,-9,2,0,14,-5,-6,-10,-11
1529256755372937,46,1,2,-15,2,-3,-7,4
1529256755372937,-10,-4,-6,0,0,2,-7,3
1529256755381913,-19,-2,3,-2,-2,9,1,-1
1529256755381913,-27,-14,-9,-13,-11,-4,-8,-16
1529256755396873,28,6,0,7,19,1,10,9
1529256755396873,37,1,1,2,-8,4,1,3
1529256755402857,-12,4,0,2,1,0,1,1
1529256755402857,9,1,-1,-4,-7,-6,-2,3
1529256755419811,8,3,0,2,2,8,-2,-7
1529256755419811,-22,-3,-1,3,3,-4,-3,-8
1529256755420809,-18,-12,-2,-2,1,1,-3,-2
1529256755420809,13,6,1,-2,-2,-10,1,3
1529256755432777,-4,-1,-1,-1,8,15,6,2
1529256755432777,-1,-9,4,11,46,46,4,0
1529256755442750,-1,-2,-4,8,10,-75,-10,-3
1529256755442750,24,27,-2,-5,-27,-1,6,8
1529256755456713,-19,23,18,-1,-16,13,2,-2
1529256755456713,-1,-47,-22,-10,-17,-30,-1,1
1529256755463694,12,52,17,-2,-10,-1,-3,-2
1529256755463694,-17,-26,-2,10,39,27,6,0
1529256755479651,6,20,-7,-4,3,-27,-2,1
1529256755479651,10,-8,1,-8,-29,5,5,6
1529256755481646,-4,-23,-3,2,8,14,3,1
1529256755481646,-8,-9,0,1,8,-9,-4,-4
1529256755501592,4,-9,-2,10,32,24,0,1
1529256755501592,-2,12,1,4,6,-6,-5,-3
1529256755503588,-5,-17,-6,-4,-13,5,-3,0
1529256755503588,-3,9,4,-3,-3,4,2,0
1529256755516552,8,-7,-2,3,1,1,-1,3
1529256755516552,1,14,3,-1,-13,-13,-3,-8
1529256755523534,-15,2,0,0,-1,15,2,3
1529256755523534,29,-1,-5,-3,-7,-5,-2,-2
1529256755539491,-80,-25,-9,-6,-10,-5,-3,-12
1529256755539491,27,12,7,3,0,-13,-1,4
1529256755541487,51,14,-2,-2,-1,3,3,13
1529256755541487,43,3,2,-4,-20,-7,1,15
1529256755553455,-4,-15,3,2,8,5,2,-18
1529256755553455,-39,5,-13,-5,-4,-16,-18,-12
1529256755562430,19,-6,-2,-5,4,8,3,-3
1529256755562430,20,1,3,-2,-11,-5,-4,-8
1529256755577390,62,11,2,-2,-2,0,6,15
1529256755577390,-5,7,7,-5,11,19,6,1
1529256755578388,-36,-13,-6,10,-15,-11,-11,-8
1529256755578388,1,9,1,-6,-8,-8,1,2
1529256755599331,-8,-8,-7,-38,-25,5,-5,-5
1529256755599331,1,3,3,38,23,-2,4,1
1529256755601326,69,7,2,3,16,15,1,9
1529256755601326,-115,-30,-6,0,-2,2,-7,-24
1529256755622270,-10,2,2,6,1,-2,0,-1
1529256755622270,47,13,-5,-24,-23,-10,-3,5
1529256755623268,-10,-2,2,-1,1,5,7,3
1529256755623268,21,4,-1,2,7,-1,0,14
1529256755635236,4,-3,-4,-1,0,0,-2,-2
1529256755635236,-17,-1,2,-2,-7,-5,2,4
1529256755645209,-3,-8,1,6,4,4,1,-4
1529256755645209,-26,-4,-3,-6,0,-1,-2,-8
1529256755659172,-7,6,-1,4,2,2,-1,3
1529256755659172,15,-9,2,7,24,29,4,1
1529256755661166,-19,-12,-5,-3,-4,-4,0,-3
1529256755661166,-2,8,-4,-5,-30,-18,-7,-5
1529256755682110,12,-18,0,1,-30,-36,-8,0
1529256755682110,-12,29,9,1,9,-9,0,-1
1529256755684105,-6,-22,-10,-8,25,71,6,-1
1529256755684105,1,-30,-2,0,-24,-22,1,-1
1529256755696073,7,19,5,8,1,6,1,2
1529256755696073,11,8,-1,-10,-23,11,-5,-6
1529256755705049,-18,-7,2,-5,-20,-16,0,-1
1529256755705049,23,6,1,9,43,29,7,5
1529256755720009,-16,-19,-2,9,27,5,-1,0
1529256755720009,-5,-15,-5,-2,-4,-16,-3,2
1529256755721006,-5,-1,1,6,11,5,-1,1
1529256755721006,-5,11,-2,-2,-4,-7,-5,-7
1529256755741950,7,5,-1,2,3,-1,-1,-1
1529256755741950,7,0,-2,-1,0,6,1,6
1529256755743945,-12,-2,-1,-3,-16,-25,-5,-10
1529256755743945,10,4,1,-4,3,2,1,7
1529256755755913,-3,5,-1,-2,-1,2,0,1
1529256755755913,24,-4,-2,1,0,-2,-1,-3
1529256755762894,8,-2,-2,-5,-4,-10,-1,5
1529256755762894,-64,-12,-8,-10,-10,-8,-8,-17
1529256755779849,100,9,4,6,15,14,4,13
1529256755779849,-76,-22,-7,-1,-7,-4,-1,-17
1529256755780847,68,1,-4,-6,0,-10,-6,-1
1529256755780847,-62,-1,-4,10,4,12,-3,-21
1529256755792814,2,1,0,9,-5,-12,-1,12
1529256755792814,10,2,0,-10,-8,0,1,5
1529256755801791,-37,-3,4,19,19,4,-6,-13
1529256755801791,49,-1,0,3,-2,-13,4,6
1529256755816750,-68,-4,-4,-5,3,2,-2,-9
1529256755816750,0,-2,6,13,9,6,1,-1
1529256755823731,40,11,-4,-20,-18,-3,4,4
1529256755823731,-46,-5,-2,0,2,0,-1,-3
1529256755839689,-23,-3,-1,5,7,0,-1,-6
1529256755839689,12,0,2,-7,-1,-1,2,5
1529256755841684,-30,1,3,1,-7,-4,0,-1
1529256755841684,43,5,3,-3,5,6,1,16
1529256755861630,-2,-1,-2,-9,-11,3,0,-5
1529256755861630,-22,-9,-4,2,1,-1,-2,2
1529256755863625,-36,-2,1,1,-1,-5,-4,-9
1529256755863625,20,6,-1,-6,-4,-4,0,6
1529256755876590,-8,-1,-2,-4,-1,2,-2,-4
1529256755876590,33,5,3,2,-3,-5,0,-1
1529256755883572,-3,3,0,0,1,-2,2,6
1529256755883572,0,-4,0,-3,4,9,-1,-6
1529256755899529,12,0,-2,-2,-5,-4,3,6
1529256755899529,-5,2,-3,1,7,2,-1,-5
1529256755901524,-11,-2,2,8,42,21,-2,-4
1529256755901524,1,-21,-4,4,-5,-37,-4,2
1529256755922468,4,30,2,-14,-19,24,-1,-9
1529256755922468,16,3,-3,-16,-70,-58,-5,5
1529256755923465,-4,-15,2,7,26,15,4,2
1529256755923465,5,24,-1,-11,-6,-11,-8,-6
1529256755935433,-4,12,5,4,17,-13,2,1
1529256755935433,3,-14,-2,2,24,33,6,4
1529256755944409,4,25,3,-3,-17,-30,-1,1
1529256755944409,18,-25,-3,3,12,17,2,3
1529256755959369,-19,-13,-10,-5,-1,-7,-4,-10
1529256755959369,-4,9,3,8,25,18,-3,-4
1529256755961364,1,-9,-6,2,-6,-8,-1,2
1529256755961364,5,-1,3,-1,2,16,0,-3
1529256755982308,-3,4,3,0,-4,-6,0,1
1529256755982308,20,-5,-2,2,3,-1,1,8
1529256755983305,-21,-7,-5,-9,-18,-3,-5,-12
1529256755983305,-1,12,1,-3,-11,-10,0,-2
1529256755995273,16,-10,0,2,3,9,3,8
1529256755995273,-23,-4,-4,-6,-2,-10,-5,-11
1529256756004249,2,9,0,-3,-12,-8,0,8
1529256756004249,22,5,3,0,3,10,0,-4
1529256756019209,8,-7,-4,1,-5,-7,-4,4
1529256756019209,43,14,6,8,18,7,2,3
1529256756021204,-103,-22,-11,-19,-26,-5,-7,-10
1529256756021204,31,4,3,-21,-8,12,6,3
1529256756042148,71,-1,-8,33,13,-1,-5,4
1529256756042148,46,22,6,-6,-5,3,6,27
1529256756044142,-59,-15,-4,2,-3,-10,-8,-35
1529256756044142,-63,-15,0,1,11,6,-6,-6
1529256756056110,51,8,-6,-19,-23,-16,1,5
1529256756056110,-30,1,0,-16,-12,-3,-6,-13
1529256756065087,52,14,8,24,19,8,6,21
1529256756065087,-7,-14,-9,-7,-2,-13,-12,-9
1529256756080046,4,-7,-2,-4,-4,-8,1,1
1529256756080046,-30,-6,0,12,1,0,6,-2
1529256756081044,39,5,1,-10,-8,-5,0,4
1529256756081044,-13,3,3,10,-2,1,4,4
1529256756101988,-22,-8,2,2,11,7,-4,-5
1529256756101988,5,-8,-6,-10,-4,-5,0,6
1529256756103983,21,8,1,-5,-11,-1,-3,2
1529256756103983,41,10,-1,10,8,3,0,6
1529256756115950,-24,-8,-1,-9,-3,1,1,-9
1529256756115950,-17,-3,-2,-2,-4,-2,-3,-6
1529256756124927,13,6,3,3,5,2,3,4
1529256756124927,2,3,2,8,2,-1,2,3
1529256756139886,-31,-5,-4,-5,9,2,0,1
1529256756139886,-12,-3,2,10,14,0,-3,-12
1529256756140884,21,-15,-5,-4,-7,3,-1,5
1529256756140884,0,4,-7,-11,-30,-12,-1,-5
1529256756161828,-27,-12,-1,-7,1,5,-2,1
1529256756161828,21,24,12,10,-11,2,1,3
1529256756163823,0,-42,-11,-9,-10,0,-2,-3
1529256756163823,1,49,16,-1,8,3,7,5
1529256756175790,-10,-3,-3,-3,-4,3,2,0
1529256756175790,1,-11,-9,0,15,-4,-3,-4
1529256756184767,4,16,6,4,1,1,4,4
1529256756184767,-6,-20,-2,10,20,3,-2,0
1529256756198729,-6,6,-1,2,0,-5,-4,-1
1529256756198729,-7,-8,-2,0,-6,-1,0,-3
1529256756205711,-2,5,-1,0,6,-2,0,3
1529256756205711,6,-13,-6,-2,-1,-1,-2,1
1529256756221668,-3,8,4,2,3,1,-1,-3
1529256756221668,-11,-11,-5,-6,-5,0,-1,-4
1529256756223663,-3,4,-2,-4,-3,-1,-1,-2
1529256756223663,15,10,1,0,-5,0,2,11
1529256756236630,-68,-24,-3,0,-7,-1,-8,-27
1529256756236630,32,-4,-1,0,0,0,-2,1
1529256756243609,41,30,2,-3,-6,-3,-2,5
1529256756243609,-34,-9,2,1,1,3,-1,-6
1529256756259566,4,-1,4,2,0,-1,0,-1
1529256756259566,-19,-12,-10,-7,-3,-4,-3,1
1529256756261561,-2,11,3,-6,-11,-3,-1,-6
1529256756261561,7,-12,-8,3,-7,-3,-1,5
1529256756282505,-98,-28,-2,25,37,8,2,-11
1529256756282505,55,20,1,-1,-11,4,-2,3
1529256756283503,51,-3,1,-2,3,1,2,4
1529256756283503,4,5,2,-3,-9,-1,0,8
1529256756295470,17,11,3,-27,-5,1,3,7
1529256756295470,-27,-8,-5,9,-22,-1,-3,-9
1529256756304446,-64,-4,1,25,42,7,-1,-5
1529256756304446,11,-4,-2,-1,2,-1,0,1
1529256756319406,58,10,3,1,-6,1,1,9
1529256756319406,20,4,-1,-13,0,0,3,2
1529256756321401,-2,2,0,-8,-13,-4,0,-4
1529256756321401,-2,1,-1,6,0,-2,-1,-1
1529256756342345,31,-2,-2,-3,-5,-1,-1,11
1529256756342345,-29,-2,-3,-7,2,-3,-4,-7
1529256756343343,-7,-7,-3,0,-4,-1,-3,-4
1529256756343343,-51,-18,-5,-3,7,4,-3,-12
1529256756355311,32,8,-3,-6,-12,-2,1,1
1529256756355311,-4,-6,0,4,5,-4,-2,-2
1529256756364287,-1,3,0,1,2,2,-1,3
1529256756364287,3,-3,0,-8,-3,-1,-3,0
1529256756379247,7,3,-1,-2,-9,-3,-1,0
1529256756379247,3,7,1,6,10,-4,1,7
1529256756381241,-14,-1,2,2,15,1,-4,-6
1529256756381241,14,-44,-19,-24,-34,-10,-4,-5
1529256756402185,14,54,4,1,-18,1,1,5
1529256756402185,-36,-19,2,13,51,-1,-4,-11
1529256756404180,3,45,1,-20,-37,-17,-4,-4
1529256756404180,18,-5,1,-2,-4,9,11,9
1529256756424127,-16,-51,-8,2,13,3,2,0
1529256756424127,-8,16,-8,-13,1,0,-5,-5
1529256756426122,3,-13,1,15,47,0,-1,1
1529256756426122,0,11,2,0,-21,2,2,2
1529256756439087,-5,-10,-3,-5,-5,-5,-2,-1
1529256756439087,-5,-9,-1,9,7,4,2,3
1529256756446068,5,-12,-1,8,16,3,0,5
1529256756446068,-2,13,3,4,9,1,0,5
1529256756462025,0,-3,2,2,0,-3,-5,-7
1529256756462025,6,0,1,-2,-7,-3,-2,1
1529256756464020,21,7,-3,-9,-25,1,2,2
1529256756464020,-4,-2,-1,1,6,-3,-1,1
1529256756475988,-33,0,2,1,-1,-4,-5,-5
1529256756475988,1,-1,0,-5,-15,-4,-1,-7
1529256756484964,16,-12,-3,-4,-13,2,4,10
1529256756484964,49,19,6,5,3,1,-3,3
1529256756499924,14,-5,-8,-3,16,-5,-3,-9
1529256756499924,-38,-7,-1,-14,-10,1,3,5
1529256756500921,5,-9,-2,7,-14,8,0,-9
1529256756500921,-14,15,-1,1,8,-2,-3,8
1529256756521865,42,5,-1,-7,-13,0,1,6
1529256756521865,-8,-6,-2,-5,-6,4,7,-2
1529256756523860,-33,-1,-1,-3,-2,-3,-5,-9
1529256756523860,-29,-2,1,-10,0,-3,-4,1
1529256756544804,49,5,-4,6,-1,5,-3,-5
1529256756544804,-25,-3,0,5,-3,-14,1,7
1529256756545802,-16,-8,-2,0,17,6,-1,-5
1529256756545802,-7,2,3,-26,-39,-1,-3,-10
1529256756558767,-31,-5,-7,18,18,-1,0,0
1529256756558767,22,1,1,2,1,3,-7,-6
1529256756567743,-55,-6,-5,-6,-9,-11,3,-9
1529256756567743,28,2,-4,-1,1,-7,1,6
1529256756581705,-23,-2,3,-14,-12,0,1,-6
1529256756581705,11,0,0,-2,-7,0,-1,0
1529256756583700,22,2,4,3,-5,-1,-4,2
1529256756583700,-14,-6,-2,2,15,5,1,-3
1529256756604644,-18,-4,1,1,-6,-6,-3,-8
1529256756604644,12,3,1,10,10,1,-1,-2
1529256756606639,11,2,0,-3,8,0,-4,2
1529256756606639,3,-1,-6,0,-11,0,3,-1
1529256756618607,0,-21,-1,6,9,5,2,3
1529256756618607,10,-6,-12,-1,5,-9,-5,-8
1529256756627583,-9,23,14,-16,-39,-7,-1,1
1529256756627583,1,-53,-10,14,22,3,1,-3
1529256756642543,12,69,15,-15,-31,-8,4,7
1529256756642543,-2,-41,-12,-6,-2,3,0,0
1529256756643540,6,-1,-5,3,14,3,-1,0
1529256756643540,-12,-12,1,17,40,3,-4,-8
1529256756664484,-4,-11,-4,-6,-13,-9,-7,-2
1529256756664484,11,22,9,-1,-6,3,5,7
1529256756666479,18,-12,-8,-3,-5,1,3,11
1529256756666479,-12,11,2,0,-1,-3,-5,-7
1529256756678447,2,-11,-3,9,24,2,0,4
1529256756678447,-13,17,4,-1,-5,-3,-2,0
1529256756687423,-4,-9,-5,-3,-4,-1,1,4
1529256756687423,-10,2,2,0,7,2,-2,-6
1529256756702383,-7,4,0,-1,-5,-2,-2,1
1529256756702383,11,-10,-3,-2,-6,-1,-1,-3
1529256756703380,18,-5,0,-2,1,0,2,4
1529256756703380,-18,4,-1,1,-3,-4,-2,0
1529256756715348,-43,-16,-3,-3,-4,-2,-4,-13
1529256756715348,25,4,3,-3,-4,0,0,0
1529256756724324,42,7,1,3,6,1,-2,7
1529256756724324,-39,0,0,-2,-8,-5,-3,-13
1529256756739284,37,7,1,0,-1,2,6,11
1529256756739284,7,-14,-4,-5,-8,-3,-4,-1
1529256756745268,34,19,1,-1,6,-5,0,5
1529256756745268,76,0,-3,3,-22,-12,-4,-1
1529256756762223,-66,-20,-5,7,11,-1,3,5
1529256756762223,35,6,4,-14,1,10,1,1
1529256756763220,-1,-4,-8,-6,-20,-2,2,0
1529256756763220,18,14,6,13,15,8,0,3
1529256756776185,-6,-5,1,9,8,-3,-2,-7
1529256756776185,-7,6,3,-21,-22,-2,-6,2
1529256756785162,7,-11,-7,8,7,-3,2,-8
1529256756785162,-46,4,0,-17,2,4,2,8
1529256756798127,-1,-2,1,-3,-3,1,-2,-11
1529256756798127,18,-2,-2,4,7,2,0,8
1529256756807103,-95,-19,-3,-9,-7,-1,-10,-28
1529256756807103,16,4,0,5,-1,-4,-2,-4
1529256756822063,23,-1,0,1,1,3,1,8
1529256756822063,-10,6,-1,2,0,-5,3,3
1529256756824058,-2,-7,-2,3,1,-2,-2,-3
1529256756824058,10,5,0,2,2,-1,1,-1
1529256756845001,-3,1,-3,-8,-7,0,-1,1
1529256756845001,-4,2,0,7,4,-1,2,-3
1529256756845999,-11,-31,-3,3,4,0,-2,1
1529256756845999,-7,-5,-3,2,9,-2,-1,-1
1529256756858964,19,59,13,-10,-13,-5,-2,3
1529256756858964,-35,-67,-12,14,23,11,8,5
1529256756865945,9,32,8,-12,-33,-19,-5,-2
1529256756865945,-4,28,9,1,10,5,3,0
1529256756881903,4,-30,-13,-15,-26,-10,-4,-5
1529256756881903,-2,12,7,11,24,5,5,1
1529256756883898,-5,-13,-11,-13,-19,-5,-4,-3
1529256756883898,-4,-25,-9,-6,-10,-2,0,-1
1529256756904842,-7,-2,-2,2,8,-3,-2,1
1529256756904842,-11,42,7,-2,1,2,0,-1
1529256756905839,7,-20,-3,5,9,5,-1,-3
1529256756905839,1,40,6,3,7,-4,-4,-5
1529256756917807,1,-33,-5,3,7,5,-4,-7
1529256756917807,-14,0,-5,-2,-9,-8,-4,-3
1529256756926783,-1,29,7,6,11,3,2,1
1529256756926783,0,-20,-5,-5,-6,-2,-4,-8
1529256756941743,4,-1,0,-1,1,2,4,7
1529256756941743,5,8,-2,-4,-11,-7,-3,-9
1529256756943738,-2,-7,-1,1,5,4,-2,-4
1529256756943738,2,-7,-4,-3,-4,-1,-1,4
1529256756964681,10,0,0,1,2,0,-1,-8
1529256756964681,15,10,0,0,-6,-4,0,10
1529256756966677,-20,-7,-2,2,10,4,-1,-5
1529256756966677,18,-3,-1,-3,-8,-1,2,7
1529256756978644,14,3,1,-4,-4,-2,-2,-2
1529256756978644,-21,-6,-3,9,0,0,-2,0
1529256756987621,59,14,6,4,13,7,4,9
1529256756987621,-58,-9,-7,-17,0,-5,1,-3
1529256757002580,44,2,-2,27,-5,-1,-4,2
1529256757002580,-49,-20,0,-9,2,4,2,-16
1529256757003578,31,6,-8,-2,-9,4,-6,9
1529256757003578,-48,-10,1,-4,4,-9,-2,-10
1529256757024522,16,6,1,-8,4,2,7,0
1529256757024522,-56,-19,-4,-6,-3,-5,-5,-8
1529256757026516,-54,8,0,6,2,-1,2,3
1529256757026516,100,11,-4,-6,-11,-3,-3,8
1529256757038484,-77,-9,1,2,4,8,-2,-12
1529256757038484,22,10,4,3,-2,-9,3,14
1529256757047460,-7,-4,0,-9,-7,-4,-5,-10
1529256757047460,23,6,3,6,-4,4,1,14
1529256757062420,-5,-5,0,2,5,0,0,-7
1529256757062420,16,10,0,-2,1,2,-1,1
1529256757063418,-13,-12,-1,-4,-1,-2,-1,0
1529256757063418,1,-3,0,5,-1,-2,-4,-12
1529256757084361,-4,3,1,-3,3,-2,-3,-1
1529256757084361,12,-3,-3,-6,-10,-2,0,-2
1529256757086357,11,-3,-4,-2,4,-4,1,1
1529256757086357,-17,-11,-1,8,3,2,0,-5
1529256757098324,-2,-30,-21,-6,0,-4,-1,3
1529256757098324,10,92,31,5,9,4,-2,-2
1529256757107301,-5,-29,-4,14,13,-2,-1,2
1529256757107301,-13,7,-5,-16,-31,-4,-2,-8
1529256757122260,6,-6,-5,-15,-34,-8,-1,4
1529256757122260,26,-24,-8,19,29,5,-3,3
1529256757123258,-10,-11,-7,-24,-61,-15,-3,-2
1529256757123258,-15,-6,-2,-7,0,5,4,5
1529256757144202,6,21,3,-11,-3,-5,-2,1
1529256757144202,2,-5,-3,6,9,4,-1,-4
1529256757146196,4,-14,3,8,42,-1,-2,5
1529256757146196,-29,-20,-7,0,-16,-8,-5,-21
1529256757158164,6,22,4,0,7,1,0,2
1529256757158164,5,-13,0,0,-2,-4,0,4
1529256757167141,11,-1,-4,6,15,6,3,-1
1529256757167141,11,15,3,0,5,1,3,11
1529256757182100,-1,-2,6,9,13,5,5,-2
1529256757182100,30,-9,-5,-2,-11,0,2,6
1529256757184095,-41,-6,-2,-1,-10,-5,-5,-15
1529256757184095,14,9,5,2,5,4,3,3
1529256757205039,3,2,2,2,0,0,1,8
1529256757205039,40,-4,-5,-7,-15,-7,-1,7
1529256757206037,-57,5,1,-3,8,0,-3,-21
1529256757206037,28,8,3,12,17,5,2,1
1529256757219002,14,-6,4,4,10,5,3,9
1529256757219002,-52,-17,-11,-23,-26,-7,-6,-12
1529256757225983,91,25,8,14,8,-2,0,8
1529256757225983,-20,-12,-3,6,12,-2,-1,-8
1529256757241941,-7,-6,-1,-7,-14,-6,-2,10
1529256757241941,47,8,7,21,19,22,6,4
1529256757247924,-28,-5,-12,-33,-23,-13,-7,-13
1529256757247924,-9,-8,-1,0,11,-1,-2,-2
1529256757264879,67,13,2,4,-1,0,2,8
1529256757264879,-39,-8,-2,-5,-3,0,-2,-7
1529256757265877,-49,-16,-4,6,6,4,0,-1
1529256757265877,9,9,2,-6,-8,-2,-4,-1
1529256757277844,8,0,-2,-1,-10,-2,-5,-5
1529256757277844,-9,-13,-1,-2,-2,-2,4,-4
1529256757286821,0,10,1,3,3,5,1,-1
1529256757286821,-4,0,-1,-6,-9,-7,-2,9
1529256757301780,-51,-12,-2,-1,6,-1,-7,-21
1529256757301780,9,-2,-1,-1,0,-5,-1,5
1529256757303775,24,4,2,0,-4,-1,3,6
1529256757303775,-10,0,0,0,-1,4,-1,-4
1529256757324719,0,-5,-2,3,7,1,0,2
1529256757324719,-3,0,-3,-1,-7,-7,-4,-8
1529256757326714,5,-2,-1,-3,1,4,7,8
1529256757326714,-2,8,2,7,7,-4,-4,2
1529256757338682,-12,-2,4,9,14,2,-3,-7
1529256757338682,2,-2,-13,-20,-19,-7,-2,1
1529256757347658,-13,0,8,8,11,10,3,1
1529256757347658,-1,-33,-13,-22,-39,-21,-10,-14
1529256757361620,1,75,25,23,42,5,3,-2
1529256757361620,-15,-13,-16,-32,-53,-7,-5,-10
1529256757363615,22,-19,-5,-2,-2,10,7,11
1529256757363615,0,15,3,5,7,3,1,-5
1529256757384559,-23,-56,-15,-11,-27,-7,-3,-6
1529256757384559,5,22,12,12,7,-10,-4,-1
1529256757386554,2,25,2,2,14,-3,-2,-1
1529256757386554,-8,5,-2,3,5,5,1,-3
1529256757407498,-1,1,-1,-2,5,-3,-3,-6
1529256757407498,25,-4,1,10,12,3,2,5
1529256757408496,-42,2,-1,-10,-28,-8,-4,-8
1529256757408496,9,-3,4,7,16,6,3,7
1529256757422458,7,-15,-11,-10,-10,-1,-1,2
1529256757422458,-16,-1,-3,7,2,-3,-3,-5
1529256757423456,28,1,0,-1,6,-1,1,10
1529256757423456,8,1,3,-2,-6,0,0,-3
1529256757444399,-4,5,0,-5,-1,-2,3,8
1529256757444399,-10,-16,-4,3,5,-5,-2,-3
1529256757446394,-3,9,5,8,2,-1,-4,-1
1529256757446394,-20,-17,-6,0,9,3,3,-3
1529256757467338,2,6,-3,-13,-36,-7,-3,-3
1529256757467338,22,11,6,12,19,11,4,5
1529256757468335,-37,-15,-3,-12,-2,1,-2,-16
1529256757468335,71,14,-2,-6,-36,-5,1,15
1529256757482298,-70,-25,-1,19,32,7,4,-4
1529256757482298,65,15,-2,5,10,-3,-6,6
1529256757483295,-5,9,4,18,11,3,4,-1
1529256757483295,0,-10,-1,-4,3,0,-2,2
1529256757504239,-74,-18,-1,-15,-8,3,-3,-14
1529256757504239,50,9,0,-7,-13,10,1,5
1529256757506234,28,-1,-3,-2,6,-1,-1,0
1529256757506234,-18,5,-2,-2,1,-11,-1,3
1529256757518202,-2,-8,-6,1,-15,-5,-3,-2
1529256757518202,-21,-5,3,-6,4,0,2,1
1529256757527178,-8,-1,-1,1,-7,-4,-5,-2
1529256757527178,2,0,1,-1,10,3,3,8
1529256757542138,25,5,2,0,1,1,-2,0
1529256757542138,-35,-5,-2,-3,-1,-6,-3,-4
1529256757544133,18,1,-3,-8,-5,-4,-2,6
1529256757544133,-29,-6,3,5,4,3,2,-3
1529256757564079,30,0,-3,-1,2,-1,0,5
1529256757564079,-23,-10,-5,-2,0,-4,-1,-5
1529256757566074,21,15,3,0,-1,1,4,8
1529256757566074,-22,-15,0,2,4,4,-1,-6
1529256757578042,28,1,-6,3,7,0,3,6
1529256757578042,-22,-17,-1,4,15,-3,-3,-10
1529256757587018,3,22,9,3,-9,2,3,6
1529256757587018,23,14,0,-1,11,8,-6,-11
1529256757601978,7,21,10,12,30,-11,2,4
1529256757601978,-10,-28,-4,-9,-42,2,4,8
1529256757603973,7,20,1,0,-3,6,0,-3
1529256757603973,-5,-2,-8,-22,-28,-10,-3,3
1529256757624916,6,-22,-1,5,23,8,0,-2
1529256757624916,-13,21,-2,-5,-9,-10,0,3
1529256757625914,4,9,6,6,3,-4,-2,-3
1529256757625914,-6,-1,-1,7,6,1,-4,-1
1529256757637882,11,9,3,0,-3,-5,-5,-3
1529256757637882,-15,-21,-13,-7,-7,-5,-5,-8
1529256757646858,-7,-17,-5,-7,-10,-5,-1,-1
1529256757646858,7,16,3,5,3,3,1,-1
1529256757661818,11,0,-6,-7,-14,0,-1,3
1529256757661818,-10,0,4,5,9,1,-3,-8
1529256757667802,-23,-25,-10,-3,5,-1,-4,-8
1529256757667802,15,-5,-2,4,3,0,1,7
1529256757684757,-14,-7,-2,-4,-11,0,1,1
1529256757684757,16,5,0,-3,5,1,1,5
1529256757686751,44,7,2,-1,-2,-2,1,9
1529256757686751,-92,-19,-4,-1,-2,-3,-2,-18
1529256757698719,60,4,-6,-9,-15,-1,0,13
1529256757698719,-29,16,5,-1,3,-3,0,-7
1529256757707696,-28,-17,-4,6,11,2,-2,-5
1529256757707696,32,-1,6,-9,-19,6,6,-1
1529256757721658,49,27,1,-8,-5,-4,-6,12
1529256757721658,-13,-2,1,-18,-13,-2,-2,-6
1529256757728639,-49,-27,-11,43,30,16,-1,1
1529256757728639,28,1,4,2,9,-11,-1,-15
1529256757744596,-21,-11,-12,-16,-23,5,-6,-2
1529256757744596,89,17,4,3,5,-1,1,12
1529256757746592,-36,-10,-4,-20,-11,-4,1,2
1529256757746592,19,8,2,6,4,2,1,9
1529256757758559,-75,-10,4,1,-2,1,6,-8
1529256757758559,47,3,-2,-5,2,-15,-8,5
1529256757767536,-22,-3,-1,-7,-7,-7,-3,-4
1529256757767536,-25,-12,-5,6,6,-2,-2,-3
1529256757781498,4,1,1,-5,-5,-7,0,-6
1529256757781498,-20,-7,0,8,8,5,3,4
1529256757788479,-11,1,2,-3,-1,-4,-2,-8
1529256757788479,2,3,-3,-7,-6,-1,0,9
1529256757804437,-14,-9,-1,2,0,-2,-5,-14
1529256757804437,-10,0,1,6,5,4,0,-2
1529256757806432,32,0,-4,-11,-8,-3,-1,0
1529256757806432,-13,-28,-3,-2,-1,0,-2,-1
1529256757827375,0,17,1,6,12,-2,-6,-9
1529256757827375,-28,6,2,5,3,-1,-2,-7
1529256757828373,23,-10,0,1,13,10,0,2
1529256757828373,-10,13,-1,-6,-3,-20,-8,0
1529256757841338,4,29,1,0,-12,-1,3,-2
1529256757841338,-10,-14,-3,-9,-22,0,2,7
1529256757848319,4,-18,-4,-10,-16,-9,-7,-8
1529256757848319,13,22,2,13,32,7,-2,1
1529256757864277,-10,-19,-5,-13,-11,-1,4,2
1529256757864277,-17,-4,-1,4,9,-2,-2,-11
1529256757866272,15,14,3,4,18,-3,-2,1
1529256757866272,3,-12,-4,0,-22,1,-2,-1
1529256757887215,-2,1,2,4,0,-8,-4,-7
1529256757887215,-5,-1,-3,2,8,4,2,-1
1529256757889210,14,-8,1,-3,-6,-3,1,3
1529256757889210,-29,25,2,-2,0,-2,-4,-7
1529256757901178,14,-14,-3,0,8,1,3,11
1529256757901178,-26,-7,-3,0,0,-1,-3,-10
1529256757908159,-12,7,-1,5,-13,-4,-1,-5
1529256757908159,9,-9,-2,-2,6,4,0,5
1529256757924117,33,4,-2,2,-3,3,2,6
1529256757924117,-10,0,1,-2,1,-3,0,3
1529256757926112,-23,6,4,6,5,3,5,9
1529256757926112,-15,-15,-8,-5,-15,-4,-7,-15
1529256757947055,-6,-6,-2,-13,-37,6,-4,-4
1529256757947055,17,-3,2,2,17,-1,-1,-3
1529256757949050,-15,-5,1,-1,9,4,4,-3
1529256757949050,28,12,0,2,0,2,4,12
1529256757961018,21,3,5,22,26,0,1,2
1529256757961018,-16,-25,-9,-16,-28,-22,-9,-18
1529256757969994,50,8,-4,-4,3,5,-4,-1
1529256757969994,-37,-11,2,9,14,9,3,-1
1529256757984954,60,11,1,-4,2,-1,4,17
1529256757984954,38,11,5,7,4,-5,2,1
1529256757985952,-33,-6,0,-7,-11,-14,-10,-8
1529256757985952,12,4,-3,-16,-6,5,5,3
1529256758006896,-57,-17,-3,9,16,6,1,2
1529256758006896,7,9,4,10,6,6,1,1
1529256758008890,34,9,0,-7,-15,-2,-1,1
1529256758008890,31,11,2,-2,-8,0,0,10
1529256758020858,0,-4,2,-1,-3,-6,0,0
1529256758020858,-30,-2,-5,-3,1,0,-2,-9
1529256758029835,3,-1,-4,-6,-9,-3,-5,-5
1529256758029835,9,-1,1,7,2,0,2,2
1529256758044794,-17,-10,0,-3,2,-5,1,-7
1529256758044794,-1,-7,-5,2,6,4,-2,6
1529256758045792,6,21,6,11,11,5,2,2
1529256758045792,-10,-47,-12,-4,8,1,-3,-16
1529256758066735,-8,29,17,3,-9,2,1,-5
1529256758066735,-5,0,-11,-13,-21,-16,-3,3
1529256758068731,15,49,20,11,-8,4,11,9
1529256758068731,-5,-41,-18,-33,-48,-11,-2,-3
1529256758080698,15,27,9,13,34,12,2,8
1529256758080698,-5,-3,0,-15,-55,-6,-1,3
1529256758089675,-8,-25,-7,0,3,-3,-2,-6
1529256758089675,1,25,7,7,-7,-4,-6,0
1529256758103637,-3,-16,-9,2,11,1,2,-1
1529256758103637,-9,1,2,6,11,5,-2,0
1529256758110618,12,-8,-7,-12,-7,-6,-2,3
1529256758110618,10,15,8,9,12,3,1,3
1529256758127573,-23,-16,-9,-10,-4,-10,-8,-15
1529256758127573,28,7,3,11,21,7,5,5
1529256758128570,-40,-19,-7,-11,-15,-3,-4,-11
1529256758128570,48,16,2,2,27,-1,1,9
1529256758140538,-99,-28,-8,-12,-33,-9,-8,-19
1529256758140538,46,15,3,9,12,8,4,7
1529256758149515,-21,1,1,-13,-8,0,3,1
1529256758149515,-11,1,3,6,-3,-3,-1,-2
1529256758164474,0,-3,-8,-1,4,-11,-7,-7
1529256758164474,-41,-11,-1,-3,10,9,0,-1
1529256758166469,28,-15,-11,5,-12,-28,-6,-6
1529256758166469,1,18,1,-6,10,-1,2,8
1529256758187413,35,0,7,2,-5,3,0,-1
1529256758187413,-39,-1,-7,-2,-3,-9,-5,-12
1529256758188410,45,5,9,1,12,20,5,14
1529256758188410,-52,-9,-4,-7,-5,-2,-3,-12
1529256758200378,32,10,-7,-8,-2,-4,4,13
1529256758200378,0,-2,4,6,0,5,1,5
1529256758209354,-45,-10,0,2,0,-4,3,-14
1529256758209354,-28,-9,-7,-20,-61,-7,-3,-2
1529256758224314,30,7,6,32,51,19,4,4
1529256758224314,4,5,-1,-10,-10,-10,-3,1
1529256758226309,27,4,-1,1,20,8,-1,10
1529256758226309,-45,-9,-1,2,-9,-7,-4,-14
1529256758247253,17,-3,-2,-13,-15,-6,-2,2
1529256758247253,-3,-4,1,2,15,9,-1,-4
1529256758248250,41,8,-2,1,1,0,-1,1
1529256758248250,8,-4,1,6,11,3,1,4
1529256758261216,-26,-8,-6,-10,-17,-5,-3,-11
1529256758261216,21,8,3,8,9,2,4,10
1529256758270192,-34,-9,-7,-8,-7,-2,-6,-11
1529256758270192,24,7,3,8,14,0,2,9
1529256758284154,7,2,2,10,16,3,-1,7
1529256758284154,-5,-5,-5,-5,-9,0,-1,-12
1529256758286149,-3,-8,-3,-5,-1,11,7,8
1529256758286149,8,-5,-1,12,8,-8,-2,1
1529256758307093,5,39,4,-5,-4,0,3,2
1529256758307093,-3,-50,-4,6,9,11,10,8
1529256758309088,-9,13,1,-13,1,-13,-11,-9
1529256758309088,25,53,24,16,21,21,11,11
1529256758321055,-6,-38,-14,-12,-23,-18,-6,-10
1529256758321055,-13,9,-1,-16,-37,-6,-4,-7
1529256758330032,2,-11,-4,5,2,7,7,10
1529256758330032,2,-30,-5,10,23,-1,-8,-10
1529256758344992,9,9,1,-3,2,3,2,8
1529256758344992,-33,2,0,8,20,0,-5,-7
1529256758345989,22,-9,-2,-1,-9,-4,-3,-2
1529256758345989,8,18,1,0,2,-3,1,9
1529256758366933,1,-5,-1,-1,-11,1,-2,-6
1529256758366933,3,8,0,-9,-8,-2,1,0
1529256758368928,-33,3,1,-1,-5,-3,-5,-3
1529256758368928,71,5,-3,4,9,-1,-2,3
1529256758380896,-47,-13,-3,-3,-1,5,5,-1
1529256758380896,24,2,0,1,10,3,2,5
1529256758389872,10,-6,0,-5,-6,-9,-5,-14
1529256758389872,2,3,1,-15,-36,-28,-8,1
1529256758404832,-34,-27,-13,-4,-23,-4,-8,-11
1529256758404832,11,15,8,14,44,3,1,5
1529256758405829,8,2,-3,3,-1,-1,-1,8
1529256758405829,-49,-19,-2,-2,11,9,2,-12
1529256758426773,10,5,-3,-9,-12,-5,-4,2
1529256758426773,50,15,5,-4,-7,-3,-3,2
1529256758428768,10,-2,-9,-6,0,-6,2,1
1529256758428768,17,5,4,6,-10,1,10,16
1529256758440736,-67,-13,3,20,21,8,-1,-17
1529256758440736,9,4,-2,0,-10,-1,0,4
1529256758449712,12,9,5,0,-2,4,-1,7
1529256758449712,-19,-10,-7,-10,-7,3,-3,-9
1529256758463674,11,3,2,-16,-7,-5,-3,-2
1529256758463674,-5,0,-4,5,-10,-5,-7,-4
1529256758472651,-10,2,3,1,1,1,0,-4
1529256758472651,18,2,-2,-5,2,4,4,13
1529256758486613,1,-1,4,5,5,-1,-2,-9
1529256758486613,-14,-1,0,-4,-1,-2,-2,0
1529256758488608,1,-4,-3,-1,1,-1,-1,4
1529256758488608,-9,-3,-3,4,3,1,1,-8
1529256758500576,16,-2,-1,-1,1,-1,0,10
1529256758500576,-6,-13,-4,3,3,0,1,1
1529256758509552,-7,-23,-4,9,12,0,0,-5
1529256758509552,-13,18,4,-4,1,2,-5,-4
1529256758523514,9,28,2,-7,-17,0,-2,-1
1529256758523514,-15,3,1,-6,-7,-7,-1,-5
1529256758530496,2,-2,5,4,-14,1,5,10
1529256758530496,-6,-35,-13,-2,1,2,-3,-7
1529256758547450,25,30,4,-10,-9,-5,-2,-3
1529256758547450,-8,-27,-7,0,22,-1,-4,-7
1529256758548448,-15,7,7,0,3,6,1,-5
1529256758548448,1,0,2,-1,-17,-5,-2,-7
1529256758569392,11,-21,-3,2,12,1,0,5
1529256758569392,-8,-2,-2,5,6,-3,-4,-4
1529256758571387,-7,12,2,5,8,-3,-3,-3
1529256758571387,2,-3,-4,-2,1,0,-3,-1
1529256758583354,15,-9,-1,5,1,2,0,5
1529256758583354,-14,5,3,-4,-6,1,1,-4
1529256758592331,11,11,-3,-6,-3,-4,-2,4
1529256758592331,-9,-4,-3,-11,-3,-1,-1,-10
1529256758607290,-3,-4,0,9,4,-2,0,0
1529256758607290,10,8,-2,-5,-7,-1,-3,-3
1529256758608288,-3,-8,-2,-3,-7,-3,-4,-1
1529256758608288,4,5,1,-2,2,1,1,4
1529256758620256,-10,-1,1,0,4,-2,-2,-15
1529256758620256,14,2,-2,-2,-12,-2,0,7
1529256758630229,-87,-19,-5,-1,-7,-3,-5,-18
1529256758630229,37,5,1,4,9,0,-3,-2
1529256758644192,11,7,-3,-4,-1,-1,1,14
1529256758644192,-14,-7,-4,-1,-10,-1,0,-3
1529256758651173,-16,4,-3,-6,0,-4,-7,-9
1529256758651173,-7,-4,2,5,6,3,6,6
1529256758667130,73,4,-1,-27,-25,-3,-1,-4
1529256758667130,-3,8,0,22,-1,3,1,7
1529256758669125,7,3,6,39,44,10,4,1
1529256758669125,-28,-9,-4,-5,0,-1,0,-8
1529256758690069,20,5,2,-3,-1,-2,-2,1
1529256758690069,-24,-8,-4,-29,-27,0,4,11
1529256758691067,13,-1,2,14,14,4,2,-5
1529256758691067,25,3,-4,6,0,-5,-5,4
1529256758704032,-21,-4,-2,7,7,-3,2,2
1529256758704032,-3,-6,-1,-12,-3,-2,-1,-6
1529256758711013,-19,-3,-7,-13,-14,-4,2,10
1529256758711013,-3,0,1,-1,2,-1,-1,-2
1529256758726970,-12,-2,-1,-2,1,0,0,2
1529256758726970,13,1,-1,3,7,2,1,-1
1529256758728965,32,5,0,-5,-6,-2,0,0
1529256758728965,-11,1,-2,-1,0,3,-2,-3
1529256758749909,-11,-4,-1,7,7,0,1,4
1529256758749909,1,-3,-1,6,4,-2,0,-3
1529256758750907,11,-4,-3,-14,-6,5,-2,3
1529256758750907,3,-18,-14,-8,-9,-9,-5,-1
1529256758763872,-43,23,15,-1,-21,-10,-9,-17
1529256758763872,2,-26,-2,3,-12,-3,2,2
1529256758770853,13,69,6,-16,-42,-1,1,-6
1529256758770853,3,-6,-1,-6,-5,1,3,7
1529256758786811,4,-21,-6,8,32,2,4,5
1529256758786811,0,7,4,10,32,9,-1,-3
1529256758788806,3,-33,-8,-10,-19,-7,-7,0
1529256758788806,-8,15,4,12,10,5,-3,-8
1529256758809749,-3,-6,-2,2,-10,-5,2,5
1529256758809749,-8,-9,-4,-3,13,-3,-7,-6
1529256758810747,9,-7,-5,-4,-26,-7,1,6
1529256758810747,5,7,1,-4,-8,-3,0,-4
1529256758823712,21,-3,-4,-1,1,2,1,5
1529256758823712,-31,-6,-4,-2,-4,-1,-5,-10
1529256758830693,14,-1,0,-11,11,-3,-1,1
1529256758830693,-1,7,0,6,-7,-5,-2,4
1529256758847648,13,-4,-3,-6,1,7,2,6
1529256758847648,80,18,6,-3,-1,-1,3,2
1529256758848646,-36,-13,-5,-5,-9,-8,-9,-15
1529256758848646,56,-14,-5,-27,-42,2,6,10
1529256758869589,-43,-2,-3,33,35,-12,-3,-2
1529256758869589,29,20,8,17,18,5,5,-8
1529256758871584,-2,-3,-5,-8,-4,-3,1,12
1529256758871584,-16,-10,1,3,17,2,-2,0
1529256758883552,37,5,0,-14,-20,10,2,4
1529256758883552,-24,8,-3,-13,-8,-9,-4,-11
1529256758890533,17,-8,6,-2,11,4,4,-4
1529256758890533,-53,-7,-5,14,20,0,-7,-10
1529256758907488,37,11,4,-2,2,18,9,6
1529256758907488,-43,-14,-3,-1,-11,-6,-5,6
1529256758908485,16,6,2,2,21,3,6,2
1529256758908485,-35,6,-3,-2,-22,-5,-6,-4
1529256758929429,-21,-9,1,-11,-6,4,-3,-6
1529256758929429,55,9,0,5,1,5,1,8
1529256758931424,-14,-6,-6,-2,-6,-9,-5,-2
1529256758931424,13,4,3,2,9,-1,2,7
1529256758943392,-11,-3,-3,2,1,-8,-6,-11
1529256758943392,-11,-4,0,-12,-16,-4,-2,0
1529256758952368,8,4,-1,7,6,1,-5,-8
1529256758952368,3,-8,-1,2,7,0,-1,-9
1529256758967328,-15,-16,-4,2,5,-4,-2,-4
1529256758967328,-15,0,-13,-21,-28,-12,-6,-4
1529256758968326,22,31,20,21,32,17,5,7
1529256758968326,-27,-19,-10,-9,-6,-17,-5,-16
1529256758989269,19,-10,-2,-8,-12,1,1,3
1529256758989269,-19,37,9,11,16,-7,2,-3
1529256758991264,1,-56,-11,10,-1,4,1,5
1529256758991264,13,62,4,-8,7,-4,0,-1
1529256759003232,-4,5,-4,-11,-25,6,2,-1
1529256759003232,9,-9,2,6,13,4,3,4
1529256759012208,-22,-17,-7,-11,-41,-7,-6,-9
1529256759012208,6,-5,7,15,24,6,2,4
1529256759027168,-10,-15,-9,-2,-5,-14,-9,-11
1529256759027168,6,13,-1,-3,9,8,1,2
1529256759029163,-6,3,0,3,12,-3,1,1
1529256759029163,-12,-24,-8,-5,-11,-4,-4,-6
1529256759049109,-16,19,1,5,-5,-2,1,5
1529256759049109,-18,-19,-3,-9,0,0,0,-6
1529256759051104,15,4,-2,-7,1,-7,-2,1
1529256759051104,22,5,2,-7,0,3,2,2
1529256759063072,-44,-8,-2,12,5,-1,-2,-6
1529256759063072,3,0,3,-20,-24,-3,1,3
1529256759072049,3,-5,-5,4,7,-3,-3,-3
1529256759072049,21,-12,-4,-9,-4,1,1,-8
1529256759087008,13,7,2,-28,-5,-1,-1,2
1529256759087008,-34,-28,-10,34,-2,-8,-8,-15
1529256759089003,26,15,1,-6,1,2,1,10
1529256759089003,-5,-1,4,6,-2,3,3,8
1529256759109947,80,12,4,0,3,7,-2,12
1529256759109947,13,-8,-8,-17,-25,-21,-5,1
1529256759110944,-6,-8,-3,-2,15,-3,-3,-12
1529256759110944,2,3,1,8,-6,5,1,8
1529256759122912,14,-2,1,-8,1,5,8,5
1529256759122912,-49,2,0,3,5,0,-5,-11
1529256759131888,-22,0,1,19,6,0,1,-1
1529256759131888,3,2,7,2,1,-1,1,-2
1529256759146848,54,10,-1,2,1,-10,-1,9
1529256759146848,28,5,0,-6,-1,7,0,6
1529256759148843,-40,-7,-1,-7,-10,-4,-2,-12
1529256759148843,-5,2,1,0,-3,0,-1,3
1529256759169787,-42,-7,-2,3,4,-3,-4,-13
1529256759169787,7,-3,-2,4,6,1,2,3
1529256759170785,16,2,-2,-4,-8,-4,-1,0
1529256759170785,-3,-1,0,-1,0,-2,-3,-3
1529256759183749,-28,-1,1,5,3,-2,-3,-8
1529256759183749,19,-19,-3,-3,0,3,5,8
1529256759192726,11,23,6,5,13,2,1,1
1529256759192726,-11,-6,-2,8,18,10,-3,-7
1529256759206688,-1,1,-4,4,16,-11,-2,-7
1529256759206688,-11,-30,-7,-19,-73,-5,0,-1
1529256759208683,6,32,10,10,19,1,0,1
1529256759208683,-21,6,-7,-13,0,1,0,-5
1529256759229627,-10,-60,-6,1,6,3,4,3
1529256759229627,5,92,17,-1,7,6,-3,-3
1529256759231622,-8,-30,-5,3,-14,-3,2,0
1529256759231622,15,0,-3,-14,-10,-3,0,3
1529256759243589,-5,3,0,3,10,2,1,2
1529256759243589,-13,-34,-11,1,20,-1,-5,-10
1529256759252566,11,9,2,0,-1,-1,-1,7
1529256759252566,-4,4,0,7,4,-5,-3,-2
1529256759267526,-4,3,0,-3,-15,0,-1,1
1529256759267526,-8,-18,-6,0,2,-1,-2,-5
1529256759268524,-34,7,-3,-4,-2,-3,-5,-6
1529256759268524,2,-17,-2,-2,-8,-4,1,4
1529256759289467,4,21,3,-2,-13,-3,2,9
1529256759289467,31,5,4,6,17,4,3,-6
1529256759291462,19,-5,-2,-7,-14,-1,1,8
1529256759291462,-22,-16,-4,-2,5,-3,-4,-12
1529256759304427,12,10,0,9,-2,-1,-3,-3
1529256759304427,-7,-1,-2,-16,5,1,0,-2
1529256759310411,5,-4,-4,3,0,1,0,2
1529256759310411,11,12,4,-10,-31,-7,-1,4
1529256759327365,-23,-9,-3,22,30,2,-5,-6
1529256759327365,103,14,6,4,15,2,3,16
1529256759328363,-32,-13,-7,1,-16,-3,-3,-13
1529256759328363,22,6,2,9,18,3,3,6
1529256759349307,-22,-6,-3,-16,-19,-5,-3,-3
1529256759349307,-6,4,2,3,-6,-2,3,15
1529256759351302,38,-6,-4,-12,7,5,0,-1
1529256759351302,-31,0,0,0,-8,-2,-4,-8
1529256759372245,-15,0,-1,-1,-12,1,2,-2
1529256759372245,3,-7,-3,-1,4,-2,0,0
1529256759374240,-37,-1,3,-5,8,4,0,-5
1529256759374240,-31,-13,-7,1,-25,-17,-3,-10
1529256759386209,27,4,2,16,29,6,4,3
1529256759386209,-18,0,2,-1,0,2,0,-1
1529256759393189,10,-1,-2,-1,-4,0,1,-3
1529256759393189,13,-4,-2,-8,0,2,2,8
1529256759409147,-4,7,2,-7,-10,-6,-3,-5
1529256759409147,3,3,0,6,1,-2,-1,-3
1529256759411142,5,-6,-2,-5,0,-5,-2,2
1529256759411142,-4,-12,-3,10,21,4,-3,-3
1529256759432086,1,0,-10,-19,-22,-4,-5,1
1529256759432086,-26,-17,-3,-1,-5,-5,1,-2
1529256759434081,-21,16,5,-7,-24,-10,-3,-5
1529256759434081,11,11,10,22,52,13,4,5
1529256759446048,6,0,-15,-33,-39,-6,-2,1
1529256759446048,-31,-29,-1,9,12,8,-1,-5
1529256759455025,9,-10,-21,-25,-38,-5,-2,2
1529256759455025,22,42,15,2,5,-2,6,9
1529256759469984,-10,-12,2,8,19,2,-6,-17
1529256759469984,-3,6,-4,-1,-17,-6,-3,-1
1529256759470982,4,-29,-3,10,22,6,1,1
1529256759470982,-5,-26,-10,-1,-1,-2,-8,-8
1529256759482949,7,25,5,0,5,1,1,6
1529256759482949,-12,-3,0,-2,-12,0,2,-5
1529256759491925,31,8,5,10,14,1,1,9
1529256759491925,-37,-11,-9,-5,-20,-3,-3,-12
1529256759506885,11,-3,4,5,11,2,2,2
1529256759506885,4,-2,-1,2,14,0,-2,0
1529256759508880,18,23,8,11,4,-1,2,9
1529256759508880,61,0,-3,-8,-17,-1,2,3
1529256759529824,-44,-13,-1,3,-6,-3,-1,-5
1529256759529824,5,5,1,-1,1,-1,-3,1
1529256759530822,-34,0,3,-7,-9,0,1,-10
1529256759530822,27,4,1,-1,-14,-3,0,8
1529256759542790,12,-2,-5,13,26,-3,-6,-14
1529256759542790,-44,-2,4,-5,2,3,4,3
1529256759552763,39,9,-3,8,-5,-4,-6,-1
1529256759552763,-45,-25,-4,10,14,8,5,3
1529256759566726,12,1,2,-12,-7,-14,-3,-8
1529256759566726,37,20,0,-12,-18,-5,1,9
1529256759573707,15,-5,0,-7,-3,0,0,-3
1529256759573707,9,0,-2,0,5,-4,-3,0
1529256759589664,-45,-7,-1,7,-2,6,0,1
1529256759589664,0,-10,-3,-3,8,0,-3,-1
1529256759591659,-9,2,-3,-7,-9,-4,-2,-9
1529256759591659,51,9,1,-14,-12,-1,1,10
1529256759611605,-64,-13,-2,-4,-2,-1,-4,-11
1529256759611605,9,1,-2,2,-1,-2,-4,-3
1529256759613601,8,-2,0,-5,3,2,1,2
1529256759613601,-4,3,0,1,0,2,1,3
1529256759626566,28,2,4,3,-4,-1,1,7
1529256759626566,-8,4,-1,-1,1,-1,-3,-6
1529256759633547,-9,-6,-2,3,6,2,0,4
1529256759633547,-22,-3,1,1,2,-2,-3,-9
1529256759649504,15,5,3,8,33,10,2,8
1529256759649504,-9,-4,-3,-3,-14,-8,-2,-10
1529256759651499,-16,-14,-4,-16,-42,1,4,3
1529256759651499,-5,-1,-4,-19,-54,-19,-4,-3
1529256759672443,16,14,10,9,1,2,2,3
1529256759672443,-1,-2,-3,17,43,11,-2,-1
1529256759673440,-15,-4,1,1,24,6,-3,-11
1529256759673440,5,-3,-1,1,-2,-5,2,8
1529256759686406,8,-67,-16,-6,-32,-4,-2,-4
1529256759686406,-8,85,28,4,6,10,5,0
1529256759693387,1,-7,-2,7,27,-1,-3,1
1529256759693387,-3,3,0,-1,10,2,-4,-6
1529256759709344,22,-2,-3,3,11,-2,1,7
1529256759709344,-35,-33,-8,-10,-28,-10,-6,-7
1529256759711339,8,-1,-3,2,12,-2,-1,4
1529256759711339,-7,7,3,3,8,5,3,-1
1529256759723307,22,19,0,-10,-8,-1,2,9
1529256759723307,20,-8,-5,-1,-13,-3,-2,-2
1529256759732283,1,12,3,3,2,-3,0,-7
1529256759732283,-31,-25,-14,-7,-12,-2,-7,-7
1529256759746246,-22,17,7,-3,-8,2,3,-1
1529256759746246,-23,-13,-9,-8,-8,-7,-1,-7
1529256759755222,27,-9,2,1,19,0,4,9
1529256759755222,-28,0,-1,16,3,-9,-2,-11
1529256759769184,13,5,2,13,28,6,4,8
1529256759769184,-75,-15,-4,1,-10,-2,0,-7
1529256759771180,2,5,0,-19,-19,0,4,7
1529256759771180,-14,-2,2,5,-7,1,-3,3
1529256759792123,-36,-5,-1,-12,-13,2,-1,-8
1529256759792123,127,13,-9,-24,-17,-14,-5,23
1529256759794118,-29,-8,2,29,29,11,1,-10
1529256759794118,32,12,-2,-20,-5,10,0,0
1529256759806086,-45,-5,1,7,3,-1,0,-2
1529256759806086,-26,-10,4,4,2,4,-2,-10
1529256759813067,-11,5,-1,-13,-23,-1,-5,2
1529256759813067,26,2,0,5,25,9,4,2
1529256759830022,40,8,-1,-2,-12,-5,-5,-2
1529256759830022,-4,-4,-2,-4,1,3,2,-4
1529256759831020,2,6,-1,4,-6,-9,-6,-5
1529256759831020,-10,-5,2,6,6,-5,-2,-1
1529256759851963,5,3,-4,-11,-10,0,0,3
1529256759851963,4,0,2,7,1,-3,-2,-4
1529256759853958,-3,-5,-1,7,1,-2,1,6
1529256759853958,-19,-4,0,-5,-3,0,-2,-11
1529256759865926,15,5,-2,-4,-8,-6,-2,-3
1529256759865926,6,3,5,16,31,12,4,7
1529256759874902,-17,-25,-12,-1,15,-7,-9,-12
1529256759874902,7,10,0,-11,-22,-6,1,4
1529256759889862,9,8,-1,-17,-20,1,4,9
1529256759889862,-6,34,7,7,-9,-16,-6,-6
1529256759890859,-11,-13,4,16,28,27,6,5
1529256759890859,5,17,-2,1,42,-19,-8,-5
1529256759911803,7,-1,-8,-15,-34,12,10,10
1529256759911803,-9,-10,1,3,34,9,5,2
1529256759913798,10,-20,-3,-5,-13,-5,0,5
1529256759913798,1,13,5,14,16,5,-2,-2
1529256759925766,-8,-3,1,11,15,-6,-6,-8
1529256759925766,2,-10,-7,-6,-7,1,-3,-1
1529256759934742,-8,8,1,5,-4,-4,-3,-8
1529256759934742,-5,-16,-3,-6,-13,3,3,7
1529256759949702,-8,-2,-1,-2,1,-9,-9,-14
1529256759949702,1,-8,-3,-4,-12,1,0,-1
1529256759951697,3,8,1,-1,-17,-8,-2,0
1529256759951697,-4,0,-2,-14,-14,1,1,-4
1529256759972641,4,-4,-3,7,11,-5,-4,-6
1529256759972641,3,-10,-1,1,7,-1,-2,1
1529256759973638,40,19,7,-4,-9,-1,4,7
1529256759973638,-74,-16,-8,-23,-16,-5,-7,-13
1529256759986603,31,-16,-2,21,-9,1,-1,1
1529256759986603,67,10,0,1,18,2,7,20
1529256759993584,-104,-8,0,3,2,-8,-11,-28
1529256759993584,-4,-25,-6,7,15,9,4,6
1529256760009542,-41,-1,4,1,9,2,-1,-7
1529256760009542,79,15,-6,-14,-25,-5,-1,13
1529256760011537,22,9,8,10,-3,1,5,4
1529256760011537,24,9,-1,5,-3,-3,-3,7
1529256760032481,-53,-9,0,-5,1,-2,-5,-10
1529256760032481,-24,-8,3,11,13,2,-1,-6
1529256760033478,-4,2,-4,-19,-5,-3,0,0
1529256760033478,16,-3,2,1,-14,-2,1,-4
1529256760045446,29,13,1,-14,4,0,-2,4
1529256760045446,-22,-6,-2,-2,-22,-13,-3,-4
1529256760054422,12,-2,-6,-1,-8,-5,-2,1
1529256760054422,-2,-1,0,13,8,2,0,-1
1529256760069382,15,9,0,-4,3,-1,3,5
1529256760069382,-55,-13,0,-3,3,5,-4,-11
1529256760071377,2,-2,-5,-10,-10,-6,-3,0
1529256760071377,17,5,2,1,-1,0,2,6
1529256760092320,17,5,1,1,4,-3,-1,-2
1529256760092320,-15,-9,-1,4,-4,1,1,-5
1529256760093318,13,-23,-4,13,37,12,0,3
1529256760093318,12,22,1,-9,-14,-15,-3,-1
1529256760105286,1,16,-2,-10,-38,1,5,12
1529256760105286,-9,-17,1,10,36,13,2,-1
1529256760115259,0,20,-4,-14,-37,-17,-4,-5
1529256760115259,-7,-78,-5,5,21,15,7,2
1529256760129222,-4,94,15,17,40,6,-3,-5
1529256760129222,-3,-16,-4,2,6,-16,-1,0
1529256760131217,10,-3,-4,-6,12,12,2,7
1529256760131217,10,7,4,-2,-10,-1,3,5
1529256760152161,-1,-25,-6,-2,-9,-1,0,-3
1529256760152161,-8,-2,0,8,21,8,-1,-4
1529256760154156,2,12,0,1,8,-9,-5,-5
1529256760154156,-6,3,-6,-6,-14,-3,-6,-12
1529256760166123,12,-21,-2,5,-1,-1,3,11
1529256760166123,-17,4,-5,-13,-2,-6,-8,-19
1529256760175100,0,-11,1,3,-13,-4,0,4
1529256760175100,3,16,0,-5,-6,1,-1,-4
1529256760190059,28,-9,-1,1,-5,-4,-1,6
1529256760190059,12,1,-1,-19,-24,-3,2,6
1529256760191057,-75,-7,-11,-12,-42,-12,-10,-21
1529256760191057,67,21,6,31,40,5,4,16
1529256760212001,-12,-3,6,1,7,-3,-3,-6
1529256760212001,-25,-11,-3,0,-20,-2,-1,-1
1529256760213996,2,10,5,-8,24,3,4,4
1529256760213996,33,0,-8,-6,-5,-4,-4,4
1529256760225963,-28,-18,-8,-8,-5,1,1,-6
1529256760225963,71,24,5,10,-12,-1,-3,8
1529256760234940,26,14,5,-18,-14,1,5,19
1529256760234940,-3,-1,1,3,-11,-3,-4,-8
1529256760249899,-23,-10,0,-17,-6,0,3,1
1529256760249899,-17,-12,-9,6,10,-3,-7,-11
1529256760250897,16,1,0,16,6,-2,0,1
1529256760250897,-22,1,0,-4,-2,2,-2,-3
1529256760271841,-9,-13,-5,-1,2,-3,-4,-6
1529256760271841,-30,-5,-4,-10,-15,-2,3,-1
1529256760273836,17,-4,-4,-1,-6,-5,-7,-9
1529256760273836,-9,7,6,-7,2,0,2,1
1529256760285804,-6,-10,-4,2,0,-7,-5,-8
1529256760285804,-1,1,-1,1,-4,1,-1,-3
1529256760294780,26,6,-1,1,4,5,2,7
1529256760294780,-32,-6,-2,-6,-2,1,-1,-4
1529256760309739,4,-4,-2,7,6,-1,-6,-6
1529256760309739,8,-6,-4,0,12,0,-2,4
1529256760311734,-9,-13,-5,-4,2,3,-1,-5
1529256760311734,-18,17,5,-6,-53,-14,-2,-6
1529256760331681,10,-29,-11,1,9,3,-1,5
1529256760331681,-2,34,24,19,34,-11,0,3
1529256760333676,-5,-2,-9,-18,-46,3,2,0
1529256760333676,3,-31,-3,6,30,15,7,1
1529256760345643,10,35,-7,-10,-13,-3,3,2
1529256760345643,-10,-8,5,4,8,8,2,-3
1529256760354620,4,-7,4,17,36,-3,-3,-3
1529256760354620,5,4,-2,-1,-11,-5,-3,8
1529256760369580,-1,-18,-6,-1,-5,0,-3,-4
1529256760369580,0,2,-3,-4,-1,7,5,6
1529256760371574,-21,6,-1,-5,-8,-7,-5,-7
1529256760371574,7,-14,-5,-6,8,1,-1,1
1529256760392518,-2,-1,4,3,-4,-4,-4,-2
1529256760392518,13,9,-4,-5,-10,1,-1,0
1529256760393516,10,-6,3,1,2,1,3,5
1529256760393516,-18,4,-3,-3,5,-1,-5,-7
1529256760405483,33,0,3,11,-1,-1,3,7
1529256760405483,-11,7,-1,-5,-7,-4,-2,-3
1529256760414459,13,5,4,1,6,5,1,3
1529256760414459,-33,-6,-4,2,0,-1,-2,-7
1529256760429419,3,12,2,-12,-16,-4,2,5
1529256760429419,38,-23,-8,-15,-24,-8,-2,4
1529256760431414,-47,-6,0,17,35,-1,0,-2
1529256760431414,-38,0,-5,3,-8,0,-2,-5
1529256760452358,83,4,-2,-8,-7,-3,-1,7
1529256760452358,-92,-25,-3,-1,1,1,-2,-7
1529256760453356,42,8,-1,-4,-16,-4,-1,4
1529256760453356,-5,-5,2,-6,2,1,2,-5
1529256760465324,3,-3,-3,-13,13,-3,-7,1
1529256760465324,19,11,3,-1,-22,11,1,-1
1529256760474299,8,3,-2,3,-19,-7,-1,2
1529256760474299,-7,-5,2,16,17,1,1,5
1529256760489259,-11,-1,2,-1,3,9,-2,-6
1529256760489259,-8,-5,-6,-3,-4,-5,-1,-2
1529256760491255,-35,-11,-5,-9,4,-2,-4,-7
1529256760491255,5,6,2,-5,-10,-5,-2,-5
1529256760512198,-6,-2,-1,1,1,2,2,-1
1529256760512198,35,11,-1,3,2,-2,0,3
1529256760514193,-11,-9,-3,-3,-5,3,0,1
1529256760514193,8,2,-2,-6,-1,-3,-5,-10
1529256760526161,-35,-3,-1,3,-1,-1,-1,-3
1529256760526161,12,-2,0,0,2,0,0,2
1529256760535137,16,0,0,-2,1,-2,-2,-4
1529256760535137,7,5,1,-5,-7,-1,-2,-2
1529256760549099,-21,-3,1,2,3,-3,-1,-2
1529256760549099,6,-2,-2,0,-4,-1,-3,-8
1529256760556081,1,1,0,1,1,2,0,-2
1529256760556081,7,3,-1,-1,4,-2,-1,0
1529256760572038,1,-13,-8,2,11,-1,-3,-8
1529256760572038,-17,13,-2,-2,4,3,1,-3
1529256760574033,0,26,11,-5,-12,-4,1,2
1529256760574033,28,-13,-4,5,-1,2,4,11
1529256760586001,-21,34,6,-6,-6,-5,-5,-9
1529256760586001,-4,-49,-10,-1,7,1,2,1
1529256760594977,13,22,4,-5,-35,-7,0,0
1529256760594977,6,7,-13,-25,-18,-2,0,0
1529256760608939,-19,-14,7,6,-3,-10,-1,-4
1529256760608939,-12,-21,-10,-4,8,3,-3,-6
1529256760615921,15,11,7,6,11,3,0,0
1529256760615921,7,-20,-3,3,-6,-9,-3,1
1529256760631878,-1,10,1,7,10,7,3,4
1529256760631878,1,9,2,0,0,-4,-1,2
1529256760633873,1,-2,-6,0,9,0,-1,0
1529256760633873,-3,2,8,3,7,-1,-2,-2
1529256760645841,1,19,-3,-2,-7,0,1,3
1529256760645841,13,12,5,3,-7,-2,1,11
1529256760654818,-11,-24,-12,-5,5,1,-1,-11
1529256760654818,-5,3,0,0,4,3,0,1
1529256760669777,4,-4,-1,1,-1,1,0,-1
1529256760669777,17,2,0,-9,-12,-2,3,6
1529256760671772,36,2,-1,5,9,4,1,2
1529256760671772,-96,-16,-7,-6,-10,-4,-11,-21
1529256760691718,39,-1,0,-7,10,0,-1,-4
1529256760691718,-21,3,2,25,5,8,4,1
1529256760693713,-93,-31,-2,-2,8,-2,-9,-19
1529256760693713,43,31,8,-25,-8,-1,-1,2
1529256760714657,62,-30,-16,-16,-18,-6,-8,1
1529256760714657,-52,-9,-2,15,13,-1,1,-9
1529256760716652,115,35,2,3,4,0,7,16
1529256760716652,-17,-11,1,11,9,8,2,-1
1529256760728620,-58,-1,5,-23,-17,5,1,-1
1529256760728620,0,-3,-5,-9,-12,-5,-7,-1
1529256760735601,-6,-17,0,-10,-14,-3,-2,2
1529256760735601,-5,5,-3,10,3,3,0,-1
1529256760752556,-29,-4,-2,17,5,3,-1,-1
1529256760752556,-17,0,1,-13,-5,2,6,-4
1529256760753554,21,-2,-3,-8,2,-2,-7,0
1529256760753554,77,14,1,-12,-9,-3,2,11
1529256760774497,-38,-14,1,25,12,-1,-1,-8
1529256760774497,-24,-1,1,0,2,-6,-5,-12
1529256760776492,-2,0,-1,2,-1,0,4,6
1529256760776492,19,1,2,2,4,-1,3,2
1529256760788460,3,-4,0,6,3,-1,1,1
1529256760788460,30,11,-1,-9,-3,-1,-3,2
1529256760795441,-2,-5,-1,0,1,2,2,2
1529256760795441,-16,-9,-1,6,0,-3,-5,-7
1529256760812396,8,6,2,-1,1,1,0,2
1529256760812396,5,-26,-5,-6,-6,-2,-3,0
1529256760813393,-11,36,5,4,6,1,0,-4
1529256760813393,-8,5,2,8,19,-2,-1,-4
1529256760834337,8,1,-1,6,11,6,4,4
1529256760834337,2,-19,-6,-7,-14,-10,-4,-7
1529256760836332,-17,-8,-8,-5,-2,1,-1,-1
1529256760836332,16,-2,-4,-2,-3,-3,1,1
1529256760848299,9,26,11,1,-4,-5,0,6
1529256760848299,-4,4,-2,-6,-11,-1,-3,-5
1529256760857276,5,-8,2,4,7,8,7,14
1529256760857276,-17,-13,-4,7,28,6,-4,-13
1529256760872235,-11,-22,-6,-1,11,-3,0,1
1529256760872235,12,35,-4,-8,-28,-5,-4,-1
1529256760874231,-1,8,4,2,1,2,2,2
1529256760874231,7,-22,-4,0,-5,-5,-1,0
1529256760894177,7,22,2,8,9,4,3,8
1529256760894177,-5,-15,2,-1,8,-2,-2,-5
1529256760896172,-6,-14,-4,0,-2,-3,-3,-5
1529256760896172,-5,8,1,11,12,4,2,1
1529256760908140,8,-11,-6,-7,-12,-7,-5,-6
1529256760908140,13,6,0,-5,-3,2,1,8
1529256760917116,11,-1,0,-6,1,-1,-1,0
1529256760917116,-49,-11,-5,-2,-14,-7,-4,-3
1529256760932076,54,8,3,6,6,6,7,15
1529256760932076,-49,1,-3,-6,6,-4,-7,-12
1529256760934071,-23,-13,0,10,3,1,0,-3
1529256760934071,39,12,-2,-14,-16,-6,-3,-2
1529256760955014,-75,-12,-1,-12,-17,-2,-3,-10
1529256760955014,4,1,-3,10,7,0,-3,1
1529256760956012,-5,-6,-1,1,16,-2,1,-6
1529256760956012,13,8,0,-2,-9,-1,-1,1
1529256760967980,-3,-5,-3,-12,-3,2,2,4
1529256760967980,11,13,14,4,2,11,5,-1
1529256760976956,-25,-14,-12,-4,-1,-22,-7,2
1529256760976956,70,25,11,39,28,14,5,8
1529256760991916,-72,-20,-3,-11,3,-2,-7,-21
1529256760991916,46,5,-2,2,4,-1,3,18
1529256760993911,-20,-1,2,-6,-14,5,2,-1
1529256760993911,-8,-8,-8,-17,-12,-6,-5,-7
1529256761014855,28,3,0,1,-2,0,-1,7
1529256761014855,-3,-1,-1,-3,0,-10,0,-3
1529256761015852,-13,-6,0,-2,-11,-3,-3,-10
1529256761015852,17,5,0,-7,-5,-3,4,13
1529256761027820,-9,-2,0,2,-5,0,-4,-16
1529256761027820,12,0,-2,-4,0,0,1,12
1529256761037794,6,-2,-4,5,3,2,-4,-7
1529256761037794,-23,-2,0,-4,-2,-2,1,2
1529256761051756,3,-1,-2,2,-4,-5,-2,-7
1529256761051756,19,4,2,6,6,2,0,3
1529256761053751,14,-7,2,8,16,2,1,5
1529256761053751,-22,-25,-9,-8,-10,-3,-2,-6
1529256761074694,19,13,-2,-9,-30,-3,-1,-1
1529256761074694,0,33,4,9,16,6,3,1
1529256761076690,-11,-16,-3,-18,-26,-1,-4,-2
1529256761076690,-20,-6,1,7,12,-3,-5,-7
1529256761088657,13,1,1,-2,-3,-2,0,4
1529256761088657,-1,3,-7,-24,-52,-5,0,-4
1529256761097633,-2,8,4,12,10,3,0,-8
1529256761097633,-5,-13,0,3,27,9,4,6
1529256761112593,3,-10,-5,4,13,-2,-6,-7
1529256761112593,-15,-9,-1,-3,1,-6,-8,-11
1529256761113591,6,-7,-5,-1,-4,-3,-2,2
1529256761113591,0,3,-1,-5,-13,-4,-4,1
1529256761134535,-8,0,-1,5,10,-2,-1,0
1529256761134535,1,-7,3,2,5,2,1,4
1529256761136529,24,5,-1,-7,-11,-2,0,3
1529256761136529,-38,-5,0,0,3,0,-1,-6
1529256761148497,7,4,-2,-3,-4,-3,-1,-2
1529256761148497,-20,-13,-4,2,9,0,-4,-10
1529256761155478,8,-3,-3,6,-1,-2,-4,3
1529256761155478,14,15,2,-5,-9,3,3,4
1529256761172433,17,-3,1,1,4,3,2,10
1529256761172433,-5,16,8,6,4,4,4,7
1529256761173431,-33,12,5,1,-2,-10,0,-13
1529256761173431,34,-9,-10,-9,-13,-19,-9,0
1529256761194374,-26,-16,-5,-2,-3,1,1,-5
1529256761194374,99,8,1,-3,7,-5,3,14
1529256761196369,-104,-17,-15,-20,-33,-7,-7,-16
1529256761196369,82,22,8,0,6,9,4,11
1529256761208337,-37,-22,-15,20,14,-8,-4,-7
1529256761208337,-45,-5,10,25,28,11,9,0
1529256761217313,28,1,-9,-17,0,-10,-12,-15
1529256761217313,-22,-7,-1,-6,-30,-10,-1,-7
1529256761232273,-7,5,4,-2,1,7,-4,0
1529256761232273,-6,-9,-6,1,-7,-1,-8,-12
1529256761233271,16,6,7,5,2,5,3,7
1529256761233271,-24,2,-2,-7,0,3,-1,1
1529256761254215,-12,-9,-2,-8,-1,-3,0,-5
1529256761254215,23,-6,-7,-9,-5,-8,-7,-3
1529256761256210,-5,1,-2,-2,4,4,3,11
1529256761256210,-4,8,2,-3,-8,0,2,3
1529256761268177,14,8,6,0,-1,7,7,4
1529256761268177,0,-9,0,0,-2,-2,0,8
1529256761277153,-7,-8,-3,-3,4,4,-3,-6
1529256761277153,-15,-1,1,6,5,3,1,-4
1529256761291116,18,7,0,-4,-3,-3,-3,4
1529256761291116,-15,-6,-2,-1,0,0,-5,-5
1529256761298097,30,-3,1,12,16,2,2,9
1529256761298097,-23,-8,-5,2,10,2,-2,-3
1529256761315052,18,-1,5,-4,-9,0,3,3
1529256761315052,0,49,-1,-6,20,12,1,1
1529256761316051,12,-16,-2,-1,-16,-12,3,2
1529256761316051,-4,3,5,-7,-16,-4,-2,0
1529256761328018,1,1,-3,-4,-9,3,1,6
1529256761328018,-15,-24,-19,-20,-29,-13,-12,-17
1529256761336993,6,6,11,16,56,17,10,13
1529256761336993,-11,3,-8,-24,-61,-6,-3,-10
1529256761351953,12,3,-1,1,2,-2,0,1
1529256761351953,-11,-19,3,3,1,-7,-4,-11
1529256761353948,12,4,-3,3,-1,1,-3,2
1529256761353948,-2,-8,-1,6,16,-2,-4,-4
1529256761374892,-6,0,3,8,4,2,0,1
1529256761374892,-7,-14,-2,-2,1,2,1,0
1529256761375889,2,-8,5,0,-11,-2,-2,-5
1529256761375889,13,32,3,4,12,6,4,8
1529256761387857,8,-4,-2,-2,-10,-5,-1,-10
1529256761387857,-18,6,3,1,4,0,2,-1
1529256761396833,-5,5,-2,-8,-1,4,-1,-3
1529256761396833,30,-12,-3,-8,-4,-4,-2,5
1529256761411793,-38,-14,-5,11,4,4,-3,-9
1529256761411793,-5,1,1,-7,-7,-5,0,-2
1529256761413788,17,11,3,-17,-34,7,4,-3
1529256761413788,3,-7,-4,20,33,-11,-10,-1
1529256761434732,-35,0,-2,1,3,-3,-2,4
1529256761434732,-21,-7,2,6,-10,0,0,-7
1529256761436727,-17,-3,-9,-14,-21,-4,-5,-3
1529256761436727,88,14,6,-1,11,8,7,19
1529256761448695,-63,-5,-7,-9,-4,-8,-8,-7
1529256761448695,-62,-16,-2,-13,-16,-1,2,-5
1529256761457671,73,19,9,30,32,0,1,7
1529256761457671,-25,-4,-5,-1,-1,-2,-2,-8
1529256761471633,13,-4,0,0,-6,-1,5,-9
1529256761471633,31,8,3,1,7,-3,6,11
1529256761478614,-27,-4,0,-9,-5,-7,-6,0
1529256761478614,-38,-8,-2,-1,0,4,-3,-15
1529256761494572,34,15,3,1,5,-2,-5,2
1529256761494572,-3,-14,-4,-4,-2,4,1,6
1529256761496567,-56,-5,-5,2,-1,0,-1,-13
1529256761496567,-9,-3,-1,4,3,-2,-2,1
1529256761508534,27,1,-2,-14,-8,-3,0,5
1529256761508534,28,9,0,6,4,-2,-2,-4
1529256761517511,12,-1,-1,5,4,-1,-2,4
1529256761517511,-28,-5,-1,-9,-5,-2,0,-7
1529256761531473,13,3,0,-2,1,1,3,7
1529256761531473,2,0,1,1,5,-1,-2,-9
1529256761538455,-2,-6,-5,-2,0,-2,0,7
1529256761538455,-19,-25,-6,-2,-2,2,-4,-9
1529256761554412,21,25,10,4,7,-1,-2,5
1529256761554412,-7,-2,3,7,15,9,-1,0
1529256761556407,14,-1,-3,6,15,0,2,1
1529256761556407,-2,5,-7,-26,-84,-13,0,0
1529256761568375,-6,0,7,4,10,4,2,2
1529256761568375,7,-9,-3,10,9,-6,-2,5
1529256761577351,3,-19,1,6,21,5,-4,-6
1529256761577351,-10,24,4,-2,7,2,0,-3
1529256761591313,3,0,-8,-5,1,6,5,5
1529256761591313,8,-7,2,1,-13,3,-1,2
1529256761598295,7,-1,-4,-6,-22,-6,0,2
1529256761598295,-7,-16,2,12,15,1,4,5
1529256761614252,11,11,-2,-10,-16,-7,-7,-12
1529256761614252,-16,-10,-2,1,13,2,1,-4
1529256761616247,12,22,5,3,0,2,3,8
1529256761616247,-8,-6,1,1,11,3,0,-10
1529256761637191,15,-14,-8,0,-5,1,0,4
1529256761637191,15,2,-1,1,-2,-1,-1,-1
1529256761639186,-5,26,-2,-7,-11,-3,-1,-2
1529256761639186,-9,-12,-2,0,4,1,0,-2
1529256761651153,35,-4,3,4,5,0,2,12
1529256761651153,-90,-28,-16,-8,-12,-9,-11,-24
1529256761658135,-1,-11,-1,-8,-6,-1,1,2
1529256761658135,43,13,2,6,12,3,1,13
1529256761675089,4,-6,1,2,2,-2,1,4
1529256761675089,18,17,2,-3,-6,2,2,5
1529256761676087,-43,-11,-5,-7,-9,-2,-8,-20
1529256761676087,67,14,5,7,12,5,3,15
1529256761697031,-86,-24,-13,-15,-22,-1,-7,-21
1529256761697031,34,12,5,-1,15,1,4,11
1529256761699026,37,1,3,3,2,3,6,13
1529256761699026,-58,-11,-1,1,6,-1,-10,-18
1529256761711991,19,9,-2,-12,-8,3,0,-1
1529256761711991,15,-3,-2,5,-11,-5,-9,1
1529256761717975,5,4,1,0,2,-6,6,0
1529256761717975,8,-5,-2,-16,-8,-6,2,2
1529256761734929,15,-2,0,12,8,-1,-3,0
1529256761734929,-7,10,-2,-7,-4,1,2,1
1529256761735927,21,10,4,0,-2,-2,1,12
1529256761735927,-32,-8,-1,0,-1,3,-4,-16
1529256761756871,-20,-4,0,-2,-1,-8,-4,-5
1529256761756871,60,7,1,0,-1,-1,4,10
1529256761758866,-12,-5,-3,1,2,3,-4,-5
1529256761758866,-3,-3,-4,-1,-2,-4,1,-3
1529256761771831,-14,-5,-2,-1,3,-6,-4,-7
1529256761771831,4,4,2,2,3,2,4,2
1529256761777815,2,-1,0,-4,-5,-1,-1,-1
1529256761777815,-10,-3,-3,0,2,-2,1,3
1529256761794770,16,6,3,7,0,0,0,0
1529256761794770,-6,-21,-5,-2,3,-1,-5,-4
1529256761796765,-8,3,-3,9,15,1,-4,-10
1529256761796765,-25,4,-5,-12,-30,-2,-4,-6
1529256761816711,3,6,2,15,63,13,1,-3
1529256761816711,-11,10,2,-16,-61,-19,2,-2
1529256761818706,-6,-15,-4,-16,-41,6,3,1
1529256761818706,7,-34,0,21,35,2,1,2
1529256761830673,7,45,-1,-16,-22,4,2,5
1529256761830673,-18,-6,-3,0,18,-5,-6,-8
1529256761839650,21,-5,0,10,26,9,0,5
1529256761839650,-4,-6,-15,-24,-68,-19,-2,0
1529256761854609,-8,-12,12,6,1,1,2,8
1529256761854609,2,5,-4,5,23,6,-2,-4
1529256761856605,1,18,6,2,-12,-2,-2,0
1529256761856605,8,-2,2,6,24,4,0,3
1529256761877548,-3,-12,-7,-2,-5,-7,-3,-6
1529256761877548,-27,-9,-2,-6,-12,0,-3,-15
1529256761878546,3,6,2,0,13,-3,0,-4
1529256761878546,-11,9,1,3,17,6,1,-2
1529256761890514,26,1,1,-4,-17,-6,5,14
1529256761890514,19,7,4,5,5,7,3,6
1529256761899490,47,1,0,-1,0,-2,2,7
1529256761899490,-55,-3,-1,0,3,-4,-6,-12
1529256761914450,3,3,-1,-4,-13,0,2,5
1529256761914450,-2,1,0,1,5,4,2,7
1529256761916444,15,8,2,-1,-7,-2,1,-1
1529256761916444,-30,-2,0,-1,5,1,1,-3
1529256761937388,30,1,6,8,7,5,3,6
1529256761937388,-68,-17,-7,-7,5,-11,-8,-25
1529256761938386,28,-4,-5,-5,-4,-5,1,14
1529256761938386,-63,-11,-5,-19,-25,-9,-7,-10
1529256761950353,-99,-20,-8,2,9,-4,-3,-22
1529256761950353,127,28,9,-8,1,4,7,21
1529256761959329,-65,-34,-17,-1,-15,-22,-19,-25
1529256761959329,118,24,8,11,22,5,3,17
1529256761974289,-36,-31,-13,-5,-10,-1,-10,-24
1529256761974289,-42,16,5,-14,10,-4,15,19
1529256761976285,-9,0,0,7,-14,6,0,-2
1529256761976285,37,9,3,-1,-2,-1,1,7
1529256761997228,29,2,2,-2,-2,-1,-1,0
1529256761997228,18,10,1,9,4,6,-1,17
1529256761999223,-79,-13,-2,-10,2,-1,-7,-31
1529256761999223,4,0,0,10,8,2,0,-1
1529256762011191,40,9,5,-1,1,5,8,17
1529256762011191,-30,-17,-7,-1,-9,-2,-7,-13
1529256762020167,3,4,-1,-4,2,-3,-1,-7
1529256762020167,26,11,5,7,4,4,4,11
1529256762035127,-6,-4,-3,-3,0,-7,-4,-1
1529256762035127,14,-6,-2,7,-4,-2,-4,-2
1529256762036125,3,-3,1,6,10,0,1,9
1529256762036125,-13,4,0,-3,5,4,1,-7
1529256762057068,10,-2,-4,5,12,-1,-3,3
1529256762057068,-23,-11,1,8,-5,-2,-5,-11
1529256762059063,29,14,-2,-10,-17,4,4,9
1529256762059063,-27,-8,1,-1,6,7,3,-4
1529256762071031,0,-31,-7,-19,-49,-20,-4,0
1529256762071031,31,25,16,25,21,9,2,1
1529256762080007,-12,-15,-11,-27,-32,-12,-5,-7
1529256762080007,14,17,0,2,1,9,4,5
1529256762094967,-3,-22,-1,7,10,-1,-3,-11
1529256762094967,0,9,-2,-3,-9,0,0,4
1529256762095965,3,0,1,7,21,0,-2,3
1529256762095965,-12,-4,-3,3,7,-4,-7,-7
1529256762116908,34,-5,0,-2,5,2,5,17
1529256762116908,-42,11,1,-2,-6,0,-3,-16
1529256762118903,-31,-2,0,3,4,1,-1,-4
1529256762118903,-1,-13,-3,1,1,-3,-2,0
1529256762130871,23,22,1,2,8,0,-2,4
1529256762130871,30,-3,-3,-5,-11,-4,0,5
1529256762139847,-78,-27,-6,1,3,0,-5,-14
1529256762139847,-30,-3,1,2,-2,-1,-1,-10
1529256762154807,56,19,6,1,1,0,0,3
1529256762154807,-40,-2,0,-14,-20,-2,-1,-4
1529256762155804,65,5,2,3,34,3,0,10
1529256762155804,-31,-17,-7,-9,-31,-11,-3,0
1529256762176748,-26,11,3,-4,-10,1,-1,1
1529256762176748,22,-11,0,-8,12,22,5,12
1529256762178743,27,15,3,8,-18,-19,-1,-2
1529256762178743,7,-3,-10,9,21,-4,-7,-6
1529256762190711,19,8,7,11,15,10,14,12
1529256762190711,41,-16,-5,0,-4,-9,-7,-9
1529256762199687,-65,0,1,-3,-9,12,2,4
1529256762199687,110,19,6,-9,-5,-13,-4,12
1529256762214647,-27,1,-10,-16,-11,-7,5,-4
1529256762214647,-7,-7,2,5,-1,5,1,-2
1529256762216642,-63,-8,-1,-1,8,1,-4,-20
1529256762216642,-38,-4,1,-1,-4,-2,2,5
1529256762237586,14,2,0,-1,6,0,-5,-3
1529256762237586,-23,0,-4,-7,1,-9,-4,-11
1529256762238583,67,0,-1,-1,1,3,4,17
1529256762238583,-26,2,1,2,0,5,0,-5
1529256762250551,-3,-1,0,-5,-7,-2,-6,-6
1529256762250551,6,-8,-5,2,2,-2,-1,0
1529256762259528,-11,1,1,0,0,0,-3,-2
1529256762259528,16,5,2,0,1,2,2,-2
1529256762273490,-16,0,1,2,1,0,0,-1
1529256762273490,2,0,-2,5,0,-4,-1,3
1529256762280471,27,6,4,6,17,2,-4,-6
1529256762280471,-1,-30,-10,-8,3,2,-4,-7
1529256762297426,-18,15,-1,2,-5,-10,-6,-9
1529256762297426,-12,-33,-12,-16,-69,-15,-6,2
1529256762298423,32,26,11,4,9,-1,7,10
1529256762298423,-9,24,7,-3,-16,3,3,2
1529256762310391,-27,-22,-7,0,-4,-1,-15,-17
1529256762310391,9,24,-4,0,30,14,2,3
1529256762319367,9,-1,3,-2,-11,-12,0,5
1529256762319367,2,-16,-3,-7,-54,1,4,6
1529256762333330,0,2,-3,-7,-11,-6,-4,-9
1529256762333330,-4,-4,3,6,19,-2,2,5
1529256762342308,-6,-27,-10,1,7,2,-3,-5
1529256762342308,0,-2,4,8,22,2,-1,2
1529256762357266,16,54,9,-1,-3,1,1,2
1529256762357266,-13,-20,-7,0,-4,-6,-3,-7
1529256762359261,27,9,-1,-2,-1,6,1,5
1529256762359261,-17,-34,-11,-4,3,-6,-4,-9
1529256762371229,-25,-21,-3,-3,-7,0,-1,1
1529256762371229,33,32,6,8,12,-2,4,17
1529256762380205,20,-2,0,-24,2,0,-4,-16
1529256762380205,-4,8,-4,11,-9,-1,0,7
1529256762394167,27,-7,3,8,10,5,-1,0
1529256762394167,-42,-4,-2,-5,9,1,1,-4
1529256762396162,21,4,0,-7,-13,1,0,7
1529256762396162,-14,5,0,0,-5,-17,-2,1
1529256762417106,71,14,1,-16,10,-2,3,8
1529256762417106,4,-5,7,40,30,14,4,10
1529256762419101,-53,14,5,-17,-18,-18,0,-9
1529256762419101,39,6,-3,-14,14,1,2,6
1529256762440045,1,-11,-4,5,1,6,-3,6
1529256762440045,-19,0,4,12,18,2,-1,-11
1529256762441043,47,3,0,10,3,11,13,12
1529256762441043,-61,1,6,-4,10,1,-3,-9
1529256762453010,4,-4,-7,-12,-5,-10,-1,-4
1529256762453010,65,10,-4,-16,-18,-2,1,11
1529256762461986,-71,-11,-3,13,1,5,-7,-15
1529256762461986,38,11,2,-4,0,1,-1,-1
1529256762476946,-16,-7,-4,0,1,1,0,3
1529256762476946,11,-8,0,-2,-4,-5,-3,-1
1529256762478941,-14,-4,-5,5,-1,-2,-3,-2
1529256762478941,32,3,1,1,4,3,0,1
1529256762499884,-25,-3,2,9,3,2,0,0
1529256762499884,-36,-5,-4,-8,-4,-5,-1,-7
1529256762500882,10,-1,-1,-2,-3,-2,-1,7
1529256762500882,17,4,1,4,6,3,-1,1
1529256762513847,-42,-19,-4,5,-3,1,-2,-8
1529256762513847,4,13,0,-14,-11,-8,-3,-6
1529256762520829,9,-6,1,5,5,1,0,0
1529256762520829,-6,-20,-2,5,3,-1,-2,-5
1529256762536786,-11,12,-1,7,16,2,0,-1
1529256762536786,0,-15,-6,-4,4,5,-4,-7
1529256762538781,12,22,-8,-5,-20,-15,-2,3
1529256762538781,-13,-8,12,3,-20,2,3,1
1529256762559725,-6,-2,4,2,14,-3,-1,-5
1529256762559725,-4,13,-7,-9,-20,-6,-5,-1
1529256762561720,-11,3,1,-2,17,1,-3,-6
1529256762561720,0,3,-7,-7,-16,8,13,14
1529256762573687,7,-8,4,10,5,-11,-1,4
1529256762573687,-9,-10,-8,-22,-13,6,2,-2
1529256762582664,1,-19,2,12,17,7,0,4
1529256762582664,2,15,-5,0,17,-3,-5,-4
1529256762597623,-9,-8,2,11,15,9,1,-1
1529256762597623,10,6,5,10,13,-3,2,9
1529256762598621,4,0,-4,-10,-23,-6,-4,-4
1529256762598621,12,1,2,3,14,2,1,7
1529256762619565,-50,-4,-9,-9,-26,-7,-9,-12
1529256762619565,-15,-15,0,-4,-3,-4,-4,-12
1529256762621560,46,12,5,-5,-4,5,6,19
1529256762621560,-45,-16,-7,7,11,-4,-11,-25
1529256762633527,54,-2,0,-3,-5,2,3,7
1529256762633527,-7,1,-1,-11,-4,-6,-4,-6
1529256762640509,-7,5,2,14,-1,6,3,5
1529256762640509,50,1,0,-4,1,5,-6,-15
1529256762657463,-8,-1,-8,-9,-24,-2,1,5
1529256762657463,-7,-4,4,20,29,6,5,5
1529256762658461,7,4,1,-5,13,9,-3,-3
1529256762658461,13,12,6,1,-19,-2,6,19
1529256762679405,-46,-13,-10,-3,5,-11,-9,-12
1529256762679405,10,-1,-1,-13,-17,-3,2,6
1529256762681400,26,-14,-1,5,9,9,-4,0
1529256762681400,-25,9,1,3,-3,-21,15,-4
1529256762693367,-39,-5,-5,-6,-10,0,-14,-14
1529256762693367,-32,-1,-1,2,3,4,1,-2
1529256762702344,10,-5,-2,7,9,-3,-5,-3
1529256762702344,25,1,1,-2,2,3,4,8
1529256762717303,17,1,-5,-11,-10,-4,0,-7
1529256762717303,-10,-4,-1,-3,-8,-5,-3,-5
1529256762718301,1,-10,-4,-3,-6,-2,-2,-5
1529256762718301,12,7,0,0,3,2,-3,6
1529256762739244,36,7,3,-3,0,2,3,2
1529256762739244,12,2,1,2,-1,2,-2,1
1529256762741240,-7,-6,-2,-3,-3,-7,-1,6
1529256762741240,-49,-3,-5,-1,-1,-4,-9,-27
1529256762753207,-5,-5,-1,-2,3,2,0,3
1529256762753207,6,-8,-3,0,-2,-4,-6,-8
1529256762762184,-1,2,-1,-2,-5,-5,-1,2
1529256762762184,-3,-17,-1,8,21,3,-4,1
1529256762777143,31,52,8,7,13,6,-1,-1
1529256762777143,5,-47,1,6,1,2,4,3
1529256762779138,-15,79,4,-14,-24,-10,-3,-10
1529256762779138,-1,10,-4,-8,-13,-2,-1,5
1529256762800082,-5,-23,7,12,2,7,6,6
1529256762800082,6,4,-14,-23,-27,-7,-8,-8
1529256762801080,-21,-30,-7,3,49,11,5,0
1529256762801080,-5,-10,-3,-19,-78,-11,-1,-1
1529256762813047,10,9,4,-2,0,5,11,18
1529256762813047,4,9,1,8,9,-9,-6,-5
1529256762822023,2,-34,-8,-3,-1,1,-4,-5
1529256762822023,5,24,5,7,31,4,-7,-4
1529256762836983,-8,-34,-4,5,-2,-6,1,0
1529256762836983,7,42,4,-1,-15,2,-1,0
1529256762838978,-5,-21,-4,1,3,-2,4,4
1529256762838978,0,-7,2,8,14,4,-1,-1
1529256762859922,-20,-5,-9,-10,-11,-5,-5,-8
1529256762859922,12,13,5,2,8,0,1,2
1529256762860920,1,0,9,1,-15,-6,-1,1
1529256762860920,36,12,2,-1,5,2,3,8
1529256762873885,-26,-23,-10,-7,-4,-1,-4,-4
1529256762873885,-16,-12,-2,-5,2,-3,0,-4
1529256762880866,-17,5,1,8,7,0,3,0
1529256762880866,-13,-20,-3,-8,-7,-1,-2,1
1529256762896824,38,4,2,7,12,0,3,9
1529256762896824,19,8,1,2,-4,2,5,13
1529256762903805,-3,3,1,18,8,6,-5,-7
1529256762903805,-38,2,-4,-7,8,-10,-4,-8
1529256762919762,30,0,-2,15,9,4,1,5
1529256762919762,-13,-1,0,-37,-20,1,-3,-9
1529256762921757,37,-2,-3,20,18,6,2,3
1529256762921757,84,14,0,-4,3,-10,-6,5
1529256762933725,-83,-7,0,-1,-8,-12,-2,-21
1529256762933725,-52,-29,-6,7,-1,-2,-6,0
1529256762942701,-29,5,2,-25,-9,-2,18,1
1529256762942701,-33,-15,-7,-7,2,3,-4,-8
1529256762956663,25,15,6,-16,-8,3,6,8
1529256762956663,12,7,0,11,-2,-4,-7,-5
1529256762963645,-9,-11,-5,-6,-15,-4,-7,-4
1529256762963645,24,1,-1,5,9,2,1,2
1529256762979602,-20,2,-3,1,-7,-4,-4,-7
1529256762979602,8,2,-1,9,10,0,0,1
1529256762981597,28,9,-1,-4,-5,-3,-2,5
1529256762981597,-3,-4,0,4,-1,9,4,3
1529256762993565,0,2,-1,-3,-3,1,-3,-2
1529256762993565,20,1,-2,1,6,-1,-1,0
1529256763002541,-11,-38,-11,-13,-13,-5,-3,-4
1529256763002541,-11,57,15,5,0,1,0,-1
1529256763016504,-1,-38,-7,-2,4,2,-4,-4
1529256763016504,-11,27,3,7,16,1,-1,-3
1529256763023485,-2,19,12,-5,-30,-9,2,2
1529256763023485,-21,-35,-18,-5,12,5,-3,-5
1529256763039442,12,-15,8,14,27,4,4,2
1529256763039442,28,29,-2,-10,-53,-17,0,0
1529256763041437,-5,11,7,22,40,21,0,0
1529256763041437,-18,-22,-25,-60,-103,-36,-13,-10
1529256763053405,15,4,0,-7,10,13,9,14
1529256763053405,2,-30,-1,15,12,-1,2,2
1529256763062381,-6,9,-7,-12,-15,-4,-3,-1
1529256763062381,-15,-12,8,22,30,1,-6,-10
1529256763076343,11,-3,-4,0,3,-3,-4,-3
1529256763076343,3,23,8,4,8,3,3,2
1529256763084322,-7,3,4,4,1,-7,-1,3
1529256763084322,-5,-4,1,7,15,8,3,-1
1529256763099282,0,12,-3,-9,-16,-7,-3,2
1529256763099282,6,-5,0,1,9,4,0,-2
1529256763101277,25,-13,-5,-8,-12,-5,-2,-1
1529256763101277,-14,-4,-1,5,15,3,1,-3
1529256763113245,-31,9,1,-6,-17,-1,-4,-12
1529256763113245,49,-5,1,-3,5,-1,3,12
1529256763122222,-44,-7,-4,2,10,-1,-4,-11
1529256763122222,2,0,-1,10,11,4,0,11
1529256763137181,13,2,0,3,-13,3,-7,-13
1529256763137181,-27,-12,2,-10,-14,5,0,-6
1529256763139176,36,-3,-10,-33,-25,-5,-7,-13
1529256763139176,20,3,0,42,41,13,5,5
1529256763160120,-7,14,9,13,12,5,0,0
1529256763160120,36,-19,-9,-8,10,-11,-6,-4
1529256763161117,-31,5,2,9,-4,-1,2,-1
1529256763161117,51,7,2,-21,-18,-3,-5,-1
1529256763173085,52,9,-1,-9,-2,-5,3,2
1529256763173085,-68,-22,-7,19,6,13,-2,0
1529256763182061,0,0,4,6,6,-3,15,-9
1529256763182061,-25,-1,6,-1,-5,-11,2,2
1529256763196023,-3,9,-5,-11,0,8,1,7
1529256763196023,14,7,1,-13,-4,-2,-5,1
1529256763203005,-32,-16,-9,-3,-1,0,-7,-1
1529256763203005,-15,5,5,11,6,5,2,-2
1529256763219960,-35,0,0,-6,-7,-9,-1,3
1529256763219960,-1,-2,-3,-3,3,-1,-2,-4
1529256763220957,0,-4,-1,4,3,1,-6,0
1529256763220957,27,4,5,0,-4,2,1,5
1529256763232925,-27,-6,-4,-4,-5,-5,-2,-2
1529256763232925,-13,1,-1,2,1,-2,-1,-11
1529256763241901,20,3,1,9,3,0,3,5
1529256763241901,-28,-50,-12,-6,7,-2,-5,-4
1529256763256861,21,54,7,5,16,11,0,-2
1529256763256861,18,22,0,3,9,-8,5,5
1529256763258856,-12,-24,4,-19,-57,-5,-7,-1
1529256763258856,9,13,3,17,32,5,6,2
1529256763279800,8,8,0,6,17,-1,1,5
1529256763279800,-7,-17,-5,-24,-41,-7,1,-3
1529256763280797,6,5,2,4,16,-2,-2,8
1529256763280797,6,-10,-4,5,-10,8,8,9
1529256763293762,-7,-20,-5,-16,-45,-13,-10,-14
1529256763293762,-9,16,11,20,25,1,-1,-4
1529256763302739,13,-21,-15,-17,-8,-5,-5,4
1529256763302739,-6,-3,0,2,23,10,5,3
1529256763317698,29,15,-1,10,7,2,-1,4
1529256763317698,-17,0,7,0,0,-3,0,2
1529256763318696,0,5,3,11,8,-5,-5,-11
1529256763318696,3,8,1,-11,-8,-5,-6,-6
1529256763339640,-7,-1,-2,0,-7,-2,-1,-7
1529256763339640,10,-32,-10,-4,-10,0,1,8
1529256763341635,-31,4,-2,6,25,3,1,-5
1529256763341635,-12,12,0,-20,-32,-8,-4,-5
1529256763353602,21,-24,-3,-17,-23,-9,-2,6
1529256763353602,9,14,7,28,31,11,6,2
1529256763362579,6,21,6,6,5,4,2,9
1529256763362579,-74,-11,-2,-11,3,-6,-12,-37
1529256763377539,17,-11,-8,-6,-17,-4,-1,18
1529256763377539,81,16,3,2,-2,-5,6,12
1529256763378536,-18,3,0,18,17,19,-1,-10
1529256763378536,94,18,5,20,10,-21,-4,17
1529256763399480,31,-5,2,0,5,-1,1,0
1529256763399480,-18,7,0,-18,-9,5,-1,6
1529256763401475,6,-1,4,-6,-18,0,9,2
1529256763401475,0,-1,-2,24,12,6,-5,2
1529256763413442,-51,-12,-2,2,5,-9,-5,-20
1529256763413442,-3,-7,-8,-17,-1,1,-5,1
1529256763422419,21,5,-3,-5,-7,-3,5,8
1529256763422419,-28,-2,-1,-14,-10,3,1,-5
1529256763436381,-51,-11,-2,7,4,-2,0,-2
1529256763436381,-26,-11,-1,1,4,1,-2,-9
1529256763443362,12,4,1,-2,3,0,-2,2
1529256763443362,38,8,-5,-2,-26,-11,-3,7
1529256763458323,26,2,1,-1,23,11,1,-2
1529256763458323,-70,-15,-5,-4,-6,0,-8,-15
1529256763467299,-16,3,2,-1,-3,-4,-5,-8
1529256763467299,11,5,0,-6,-6,0,4,10
1529256763473282,-20,-4,-1,-3,-6,-6,-2,-12
1529256763473282,19,0,-2,4,2,-1,-1,-1
1529256763482259,10,-7,-5,-2,-2,-5,-7,4
1529256763482259,-16,-6,-3,-9,-4,0,0,-5
1529256763496221,-1,0,2,5,3,1,2,6
1529256763496221,2,5,-1,7,3,1,-1,1
1529256763503202,6,-10,-2,2,12,-2,-4,-2
1529256763503202,-4,-7,-7,-11,-4,6,-5,-3
1529256763519160,17,-16,-8,13,35,6,3,7
1529256763519160,-3,64,29,-1,-37,-12,2,5
1529256763521155,15,-8,-9,-19,-39,-5,0,2
1529256763521155,-16,-55,1,12,36,10,3,1
1529256763533123,1,47,1,-8,-14,-8,-5,-2
1529256763533123,-14,-32,-20,-28,-49,-1,0,-8
1529256763542098,9,10,5,10,31,9,3,4
1529256763542098,-18,-1,0,-14,-55,-13,-4,-4
1529256763556061,-1,-15,1,12,31,3,-1,-1
1529256763556061,11,-11,-5,0,16,-1,-2,1
1529256763563042,7,9,2,0,-1,1,-2,4
1529256763563042,-16,-11,-7,-1,8,3,1,-10
1529256763579997,-4,5,4,4,-1,0,1,-3
1529256763579997,6,1,-4,1,4,-6,-7,1
1529256763580995,-10,-6,-1,2,3,-5,-4,-6
1529256763580995,14,30,7,5,11,4,3,8
1529256763601939,-13,-19,-3,-8,-26,-7,-3,-5
1529256763601939,0,-10,-1,0,19,4,5,3
1529256763603933,9,0,-4,-10,-10,-4,-2,-1
1529256763603933,-2,0,1,6,9,-2,-4,-4
1529256763616898,16,9,-3,-18,-17,-4,0,6
1529256763616898,19,-4,1,13,13,5,3,0
1529256763622883,-61,0,-7,-2,-5,-9,-9,-9
1529256763622883,12,-5,-4,-9,-5,-2,2,-3
1529256763639837,-23,-9,2,11,15,18,3,6
1529256763639837,-8,-3,-2,-3,13,0,-4,-6
1529256763640835,105,17,3,-12,-10,-5,1,15
1529256763640835,-97,-8,-4,0,-7,-1,-2,-14
1529256763661779,-21,-4,-2,-5,-3,-1,4,4
1529256763661779,-19,-4,-4,-24,-22,-3,-3,-4
1529256763663774,55,6,7,33,12,-9,2,1
1529256763663774,-46,-15,-7,-20,2,4,-10,-16
1529256763676739,105,21,0,-8,-10,-6,3,14
1529256763676739,5,-1,1,14,-11,-1,-1,5
1529256763683721,-73,-14,-3,-19,-6,-20,1,-14
1529256763683721,50,20,8,31,22,15,6,9
1529256763699677,-70,-16,-7,-8,-10,-9,-9,-18
1529256763699677,80,3,-3,-1,6,3,2,2
1529256763701672,-20,10,-2,-8,-5,1,-3,7
1529256763701672,41,14,6,-2,-9,-1,3,12
1529256763722616,-21,-7,1,-3,-7,-3,-5,-14
1529256763722616,-29,-8,0,9,8,-3,-3,-8
1529256763723614,21,-8,-2,0,2,4,-2,-4
1529256763723614,13,8,-3,-6,-8,-8,0,1
1529256763735581,32,2,-1,6,-2,1,0,1
1529256763735581,-25,-5,0,-2,7,-3,-1,-3
1529256763744557,-3,-2,-2,-1,3,5,4,-1
1529256763744557,8,3,-3,-3,-4,-2,0,-1
1529256763759517,-12,-5,0,1,0,-4,-2,-1
1529256763759517,2,3,1,9,9,2,0,1
1529256763761512,-10,-28,-6,0,7,11,0,-1
1529256763761512,7,28,0,-13,-12,-18,-6,2
1529256763782456,-7,0,6,12,15,11,5,5
1529256763782456,-7,-5,-5,-5,-4,-11,-5,-5
1529256763783453,2,6,-6,0,10,16,1,-2
1529256763783453,-14,8,1,-1,1,-13,-2,-2
1529256763795421,4,-35,-9,-10,-44,-1,0,-2
1529256763795421,-3,47,3,0,20,1,-2,-5
1529256763804397,-17,-5,0,4,2,-3,-4,-3
1529256763804397,3,-17,-15,-35,-85,-1,4,1
1529256763819357,8,12,5,6,21,1,1,1
1529256763819357,-10,-43,-6,5,5,-3,-3,-5
1529256763821352,8,25,2,9,29,2,-1,-2
1529256763821352,-12,1,8,14,29,0,-4,-4
1529256763842296,10,-3,0,-3,-11,-6,-2,0
1529256763842296,3,-7,-1,1,4,5,3,2
1529256763844291,-9,8,2,-3,-10,-6,-2,0
1529256763844291,-2,-14,2,6,9,3,-3,-8
1529256763856258,-8,7,-6,-4,-3,-4,-4,-4
1529256763856258,26,3,1,0,1,0,2,5
1529256763863240,11,0,2,-7,-11,-1,3,5
1529256763863240,-12,-2,0,2,0,4,2,-3
1529256763879197,-13,-11,-2,1,12,-2,-3,-4
1529256763879197,69,27,4,5,-8,0,-2,12
1529256763881193,-22,-23,-8,-31,-16,-4,-6,-21
1529256763881193,38,-16,-2,31,29,7,1,5
1529256763902136,68,19,0,1,-3,6,-2,8
1529256763902136,0,-5,4,3,4,2,10,17
1529256763904131,-47,-3,-1,-29,-46,0,-6,-22
1529256763904131,-18,1,-4,25,35,-15,-2,5
1529256763916099,-12,2,-2,-3,9,0,-4,-16
1529256763916099,4,1,-2,-5,-13,0,0,10
1529256763925075,-73,-16,0,-2,8,-6,0,-7
1529256763925075,16,7,1,-5,-4,7,0,3
1529256763940035,-57,-7,1,2,-7,-1,-5,-4
1529256763940035,56,-3,-2,-2,9,-2,0,-1
1529256763941033,-56,-10,-5,1,-1,-4,-4,-10
1529256763941033,14,3,3,-9,-3,11,1,1
1529256763961976,34,12,-1,-1,2,-8,0,6
1529256763961976,-34,-4,2,-4,-10,4,-1,-6
1529256763963971,21,1,1,14,6,-1,0,5
1529256763963971,42,5,0,-2,1,2,1,8
1529256763975939,13,1,-2,-6,-6,-2,1,5
1529256763975939,-51,-11,-6,-7,-9,-6,-4,-18
1529256763984915,40,7,3,12,0,1,5,13
1529256763984915,-13,3,2,-8,-1,-2,0,-8
1529256763999875,-12,-8,-2,-6,-5,-2,1,2
1529256763999875,-36,-7,-4,1,-1,-2,-5,-12
1529256764000872,49,8,3,7,10,3,1,12
1529256764000872,-6,0,0,-9,-9,-1,-2,-5
1529256764021816,-1,1,0,3,4,-2,-1,0
1529256764021816,-11,-11,-4,-1,5,3,-1,-3
1529256764023811,18,8,-1,7,8,1,0,2
1529256764023811,-17,-4,-5,-9,-15,0,-3,-4
1529256764035779,-4,-6,-4,-1,-1,-9,3,-2
1529256764035779,-2,22,10,-2,-16,-4,1,3
1529256764044755,6,9,-10,5,26,13,-2,-1
1529256764044755,-10,2,-1,-13,-37,-21,-2,7
1529256764059715,16,15,1,-5,-6,6,7,4
1529256764059715,-5,-18,3,7,10,2,-2,-2
1529256764061710,10,1,-4,-4,1,-13,-4,2
1529256764061710,3,-7,2,9,14,16,5,1
1529256764081656,-9,-3,-4,-2,0,2,-5,-5
1529256764081656,-9,-21,-8,-5,-1,1,0,-1
1529256764083651,0,-5,3,11,12,3,0,4
1529256764083651,0,4,-3,-2,8,-1,-2,0
1529256764095619,-4,-3,3,-2,-10,-5,0,-2
1529256764095619,2,12,-3,-1,4,3,1,-2
1529256764104595,12,-4,2,2,-8,-3,0,-3
1529256764104595,24,6,3,-3,-6,-1,2,9
1529256764119555,-27,-3,-4,0,1,0,-6,-14
1529256764119555,16,3,-1,-1,0,0,0,4
1529256764121550,-14,-2,0,-7,-22,-3,0,-3
1529256764121550,42,4,1,-1,11,2,-1,6
1529256764142494,-79,-14,-3,12,6,-1,-1,-6
1529256764142494,20,3,4,-3,11,13,-1,2
1529256764143491,39,-2,-9,-32,-32,-7,1,6
1529256764143491,-37,-22,-6,31,-1,-2,-10,-9
1529256764155459,46,9,1,3,25,4,1,4
1529256764155459,-71,-12,1,-6,-14,-3,-2,-10
1529256764164435,76,15,2,5,7,7,1,8
1529256764164435,-18,-3,-8,-26,-12,-19,-2,-1
1529256764179395,-8,4,4,9,-12,-1,2,8
1529256764179395,-13,-11,-11,-13,-8,-7,-2,-6
1529256764181390,-16,-3,5,-12,9,10,3,-2
1529256764181390,-7,-1,-3,13,12,3,-4,-9
1529256764202333,-9,-7,-7,-32,-16,-4,2,1
1529256764202333,35,11,1,14,9,1,-2,3
1529256764203331,-56,-16,-6,-1,-2,-8,-5,-10
1529256764203331,5,2,1,-2,0,6,3,0
1529256764216296,27,3,3,2,5,5,0,-1
1529256764216296,-5,2,-4,-5,-9,-3,0,3
1529256764225272,15,-1,-5,5,-8,-5,-2,-2
1529256764225272,-25,0,1,-5,2,4,0,0
1529256764239235,11,-6,-2,-1,-5,-6,-4,-4
1529256764239235,10,-2,-2,0,-1,-5,-1,0
1529256764241230,-15,-2,2,16,14,2,1,2
1529256764241230,3,-2,-2,-9,3,7,-1,-9
1529256764262174,10,2,7,18,26,-1,4,4
1529256764262174,-7,-4,-6,0,3,7,-4,-5
1529256764264168,-7,2,2,-8,-22,-18,1,0
1529256764264168,6,27,9,2,-14,4,5,2
1529256764276136,2,-12,-4,-7,2,1,-2,3
1529256764276136,-8,-20,-4,-5,-13,-11,-3,-7
1529256764285113,3,18,4,3,2,14,4,4
1529256764285113,-3,-17,-10,-19,-39,-15,-4,-4
1529256764299075,-2,5,1,5,8,-1,-2,1
1529256764299075,0,1,0,4,19,-6,-2,-5
1529256764306056,-8,-9,-3,13,-1,0,-2,-1
1529256764306056,2,6,2,-2,11,0,0,1
1529256764322013,0,-6,-3,-15,-32,-2,-3,-5
1529256764322013,9,6,-1,5,35,5,1,5
1529256764324009,-25,-3,-1,3,0,1,-3,-9
1529256764324009,9,3,-3,7,15,3,1,3
1529256764335976,13,-3,-1,6,-9,-3,0,-3
1529256764335976,-5,3,0,7,2,2,2,3
1529256764344952,16,-1,1,-2,-6,-2,-2,-1
1529256764344952,67,9,3,-6,11,5,-1,7
1529256764358915,-63,-25,-3,5,2,-4,5,-3
1529256764358915,3,15,-3,-21,-39,-13,-6,-3
1529256764365896,54,8,3,30,26,5,1,7
1529256764365896,-87,-27,1,7,15,9,-3,-16
1529256764381854,100,19,4,6,19,10,1,6
1529256764381854,-21,-4,-4,6,-9,-16,2,9
1529256764383848,-17,-4,-2,-18,-12,-9,-3,-5
1529256764383848,-29,-2,0,-11,-14,-4,-2,-9
1529256764395817,30,-4,-9,-1,6,-11,-4,6
1529256764395817,-6,5,6,-7,-6,9,1,1
1529256764404793,-1,6,-4,-11,-29,-2,-1,1
1529256764404793,-11,-1,6,11,21,2,4,4
1529256764418755,-17,3,5,-3,-1,6,0,-3
1529256764418755,25,-4,-3,10,-10,-1,-4,-5
1529256764425736,12,6,0,-6,10,-5,1,7
1529256764425736,21,-7,-3,6,7,0,1,6
1529256764442691,-88,-8,-7,-7,-12,-8,-8,-17
1529256764442691,49,11,3,1,0,4,-1,0
1529256764443689,-38,-15,1,0,0,2,-1,-6
1529256764443689,16,3,-3,-5,-8,-8,-1,0
1529256764455656,15,8,-1,-3,-4,-1,-3,4
1529256764455656,-10,3,1,-1,-2,1,5,2
1529256764464632,-14,-62,-4,4,9,1,-4,-7
1529256764464632,-3,56,-4,-6,0,-8,-7,-7
1529256764478595,20,-13,-10,-3,6,1,0,1
1529256764478595,-17,-37,4,-4,-9,5,0,-2
1529256764485576,13,62,8,2,18,-16,-5,-4
1529256764485576,-4,1,5,-11,-62,-14,0,-1
1529256764502531,-14,-22,-6,-10,-18,9,3,0
1529256764502531,2,11,1,0,19,-4,-6,-2
1529256764503529,-16,-40,-17,-8,-16,1,-3,-7
1529256764503529,-5,-22,-8,-9,9,3,3,0
1529256764524472,8,26,10,4,21,-4,0,2
1529256764524472,-9,-21,-7,-6,-33,-9,-3,-6
1529256764526467,5,14,6,7,10,1,0,5
1529256764526467,0,-5,0,8,27,4,-3,-5
1529256764539432,0,-3,2,4,-4,2,-2,-1
1529256764539432,0,8,1,2,12,2,0,-2
1529256764545416,3,11,3,1,7,3,1,3
1529256764545416,-6,-3,0,-1,-14,-2,1,0
1529256764562371,-6,-5,-4,-2,9,-2,-2,-1
1529256764562371,-34,6,0,0,-19,-3,1,-2
1529256764563369,-40,-5,1,18,23,8,2,-10
1529256764563369,44,-18,-6,-12,-2,0,1,7
1529256764584312,-51,0,2,8,-7,-2,-3,-7
1529256764584312,15,14,1,-7,4,-1,-1,0
1529256764586307,-20,-14,0,-16,-17,3,3,10
1529256764586307,102,22,5,2,0,-10,3,-2
1529256764599272,-85,-32,-14,-1,-5,-13,-12,-20
1529256764599272,20,6,5,13,22,7,5,3
1529256764601267,34,5,1,8,7,2,2,-3
1529256764601267,-34,-5,-5,-2,7,-1,-3,7
1529256764622211,40,13,10,-4,-20,2,5,9
1529256764622211,43,3,-9,-6,-12,-8,-3,4
1529256764624206,-39,-6,1,-5,6,13,0,-11
1529256764624206,31,11,-1,-8,1,0,-5,8
1529256764645149,-35,-7,-1,8,4,3,5,-1
1529256764645149,-15,-14,0,20,18,7,0,-7
1529256764646147,55,17,-2,-8,-7,1,1,9
1529256764646147,-19,3,4,-1,-6,3,1,9
1529256764658115,39,-1,-2,-6,2,1,-6,-8
1529256764658115,-53,-3,-3,-7,5,-1,2,1
1529256764667091,13,-3,-3,-2,-16,-7,-4,-8
1529256764667091,-23,-13,-5,-3,0,0,-2,-6
1529256764682051,37,12,3,0,-1,-6,-3,4
1529256764682051,4,1,0,-2,-3,-1,-1,-4
1529256764684046,-9,-5,-3,-6,-9,-7,-7,-10
1529256764684046,-23,-11,-1,2,-1,-1,-1,-2
1529256764704990,24,12,3,3,6,5,1,6
1529256764704990,12,0,-2,-6,-3,0,-1,5
1529256764705987,-25,-1,-3,-2,-3,-5,-1,-4
1529256764705987,2,3,5,18,35,11,-2,-8
1529256764717955,-4,-5,-8,-2,7,-8,-2,-2
1529256764717955,-10,-42,-22,-47,-95,-27,-10,-9
1529256764726931,17,63,11,-8,-14,-4,3,12
1529256764726931,-8,-32,1,19,23,8,3,-4
1529256764741891,2,44,9,6,27,5,-3,-3
1529256764741891,-2,-6,8,18,24,22,3,-1
1529256764743886,5,-18,-9,-18,-32,-27,-4,0
1529256764743886,-8,8,0,-14,-44,8,11,8
1529256764764830,15,-3,8,13,28,7,3,1
1529256764764830,-1,-2,-3,6,27,-1,-6,-9
1529256764765828,5,-2,2,13,12,2,1,8
1529256764765828,-13,-7,1,4,9,1,0,-3
1529256764778793,13,-12,-5,-12,-35,-6,-2,6
1529256764778793,-2,19,5,8,35,-1,-1,1
1529256764787769,3,-8,2,2,1,13,3,4
1529256764787769,-2,1,-3,-5,-5,-12,-6,-2
1529256764801732,0,2,4,17,13,9,4,2
1529256764801732,-25,-1,-5,6,-3,-3,-5,-13
1529256764803727,9,1,1,-11,4,3,2,9
1529256764803727,-31,-15,-8,-3,-20,-6,-8,-8
1529256764824670,41,12,0,-14,-10,-1,2,7
1529256764824670,-78,-10,-3,-4,-21,-4,-6,-17
1529256764826665,16,-4,-5,8,47,17,0,-3
1529256764826665,-6,-12,-4,5,12,1,5,14
1529256764838632,-83,-13,-2,-1,-1,6,-1,-11
1529256764838632,92,11,-1,-5,-7,1,2,6
1529256764845614,-50,-13,-3,-6,-23,-6,-3,-5
1529256764845614,116,42,8,0,-9,-7,-1,12
1529256764862568,-61,-28,-9,-1,12,0,0,-11
1529256764862568,34,3,-1,-32,-22,-6,-1,10
1529256764863566,5,-6,0,5,-4,-5,-1,-4
1529256764863566,8,-2,-1,32,23,10,-1,1
1529256764884510,5,7,3,-17,-14,-4,3,5
1529256764884510,-47,-5,3,8,-25,-25,-2,-14
1529256764886505,-13,-7,-3,-7,19,7,0,-4
1529256764886505,5,6,-3,-14,6,-2,-2,-2
1529256764898473,50,13,1,-1,-4,-5,-3,3
1529256764898473,36,16,4,1,14,4,2,7
1529256764907449,-55,-26,-5,5,-10,-3,1,-2
1529256764907449,-52,-6,-3,-5,-10,-10,-4,-12
1529256764922409,11,-1,-2,-2,-7,-1,0,7
1529256764922409,8,3,2,4,20,6,3,3
1529256764923406,17,5,1,-2,-12,-6,1,4
1529256764923406,-13,-3,-4,-8,0,2,-3,-11
1529256764944350,14,-4,-4,-4,-11,-4,0,9
1529256764944350,6,12,3,4,6,2,3,8
1529256764946345,-14,-16,-2,2,-1,-3,-3,-11
1529256764946345,-19,-5,-4,0,3,-1,0,0
1529256764958312,12,7,0,-1,6,5,-3,-4
1529256764958312,8,15,-2,3,11,-3,4,10
1529256764967289,29,20,8,-2,-46,-6,-2,0
1529256764967289,-16,-25,1,1,19,-4,0,3
1529256764982248,-6,9,0,-25,-64,-11,0,-3
1529256764982248,7,-37,-2,18,47,27,5,5
1529256764984243,18,46,-13,-11,15,-7,-5,-1
1529256764984243,-26,-3,7,-4,-23,-3,1,0
1529256765004190,9,4,5,14,20,-3,-7,-7
1529256765004190,-5,-6,-4,-22,-70,-10,2,8
1529256765006185,16,1,4,11,23,13,8,9
1529256765006185,-10,-12,-3,4,10,2,-3,-7
1529256765018153,8,-11,-4,2,11,-1,1,1
1529256765018153,-9,13,6,8,21,0,-3,-5
1529256765027129,-2,-15,-2,5,5,-2,-5,-6
1529256765027129,-3,15,-4,-7,-11,-1,-1,-2
1529256765042089,5,-6,-1,-2,1,0,0,5
1529256765042089,-19,-5,-1,1,9,-2,-2,-11
1529256765044084,21,-5,-1,-7,-9,-2,0,4
1529256765044084,-31,1,1,-3,-5,-3,-3,-7
1529256765065027,1,-3,-3,6,0,-3,-1,-4
1529256765065027,24,-1,-9,-13,-2,-14,0,5
1529256765066025,-35,-8,2,4,4,-3,-4,-9
1529256765066025,54,15,2,-8,-8,10,1,11
1529256765077992,48,1,5,12,-10,-9,-2,-6
1529256765077992,-18,-1,-4,-3,7,0,6,-3
1529256765086969,-12,-10,-7,-1,6,-8,-11,-8
1529256765086969,45,18,4,10,25,4,10,17
1529256765101929,8,-8,0,-1,2,9,-3,-1
1529256765101929,28,6,-3,-11,-10,0,-8,3
1529256765103924,36,-4,-5,-18,-23,-10,8,8
1529256765103924,-48,-11,-1,9,2,-6,-6,-15
1529256765124867,-13,13,1,-11,-11,-6,-2,0
1529256765124867,44,-6,-7,-3,-18,0,-5,-6
1529256765125865,-5,0,5,6,15,10,4,7
1529256765125865,-57,-11,-5,-9,-12,-7,-7,-8
1529256765138830,37,-4,-1,2,7,3,4,-2
1529256765138830,-13,9,-1,11,0,-3,-2,0
1529256765147806,26,4,2,-4,-1,-1,2,7
1529256765147806,15,4,4,-2,-2,0,0,-5
1529256765161769,-91,-28,-7,0,6,1,-2,-8
1529256765161769,-1,3,3,-1,2,2,-2,-2
1529256765163763,35,11,-1,3,0,0,0,6
1529256765163763,-2,-9,-2,0,-3,-2,-2,-4
1529256765184708,13,3,-3,-4,-1,-2,-1,3
1529256765184708,-21,0,3,1,4,1,0,-3
1529256765186702,-22,-6,3,4,-1,2,0,-2
1529256765186702,1,-4,-5,-7,-8,-2,-3,-7
1529256765198670,4,4,-2,-3,2,-2,2,4
1529256765198670,-17,1,1,4,9,2,0,-3
1529256765207648,-18,-35,-3,5,7,-2,-5,-7
1529256765207648,15,26,-4,1,8,6,-5,-5
1529256765221609,-5,-29,-8,-4,16,-7,-2,0
1529256765221609,-15,29,7,-5,-25,-4,1,-2
1529256765228590,13,-5,-10,-12,-44,-7,3,2
1529256765228590,-13,3,0,-4,-7,4,3,0
1529256765244547,-4,2,1,9,31,2,-2,-2
1529256765244547,-3,-9,-5,-5,-12,1,-4,-2
1529256765246542,4,14,4,1,15,-3,-3,-1
1529256765246542,-4,-29,-8,-14,-38,-7,-3,0
1529256765258510,-5,10,-5,-5,-14,3,0,0
1529256765258510,-4,-11,-1,6,18,-1,-1,2
1529256765267487,-12,-1,-2,6,5,3,-3,-5
1529256765267487,2,-5,1,7,13,-2,0,-1
1529256765281449,2,-2,0,-2,-10,-5,-2,1
1529256765281449,-3,-4,0,1,2,1,-1,-2
1529256765288430,-9,-2,-1,-2,2,1,-1,-2
1529256765288430,11,-2,-2,0,1,-6,0,3
1529256765304387,-1,12,3,-2,-11,1,0,0
1529256765304387,6,-4,0,1,10,2,2,1
1529256765306383,-25,-1,2,4,7,5,-2,-5
1529256765306383,6,-3,-5,-7,-5,-4,-5,-6
1529256765318351,-52,-9,-5,-4,-6,0,-3,-11
1529256765318351,18,3,2,-2,-1,2,1,5
1529256765327326,-39,-1,5,1,5,1,2,4
1529256765327326,11,-21,-10,-8,-3,-1,-6,-12
1529256765342286,19,8,3,4,-5,-11,2,4
1529256765342286,28,6,1,-25,3,-5,-2,0
1529256765344281,0,3,5,25,3,8,2,0
1529256765344281,9,1,7,13,13,7,5,9
1529256765364228,-45,-5,-7,-9,8,-1,-10,-9
1529256765364228,43,3,-6,-26,-39,-3,4,8
1529256765366222,51,13,5,21,18,7,6,3
1529256765366222,-29,-13,-5,-1,2,-8,-3,-3
1529256765378190,7,3,6,5,5,5,5,1
1529256765378190,15,1,-4,1,-2,-5,-10,1
1529256765387167,-87,-21,-8,-19,-12,-4,-5,-12
1529256765387167,28,14,0,-1,-3,-2,1,8
1529256765401130,10,-2,-1,-1,-8,4,-3,-2
1529256765401130,-47,-8,4,10,14,2,0,-8
1529256765408110,9,1,-2,-4,-3,-3,0,6
1529256765408110,13,4,0,-1,5,-3,-2,0
1529256765425065,7,0,4,-3,-7,-5,2,-1
1529256765425065,-5,0,-2,10,10,-1,0,-2
1529256765426063,-2,-9,-7,-10,-2,-8,-5,-5
1529256765426063,-18,4,0,-4,-9,-1,-2,-5
1529256765438030,32,2,-3,-2,-3,-1,1,6
1529256765438030,-14,-5,1,9,11,2,1,-5
1529256765447006,14,10,1,0,0,-3,-3,5
1529256765447006,10,-17,3,7,16,4,3,2
1529256765461966,4,5,-10,-11,5,7,-1,-2
1529256765461966,-18,12,2,11,2,-10,0,2
1529256765467951,2,-38,-18,-18,-35,-10,-4,-2
1529256765467951,6,52,22,3,-29,-4,4,3
1529256765484905,4,-12,1,6,19,16,5,6
1529256765484905,-24,-23,-6,3,42,4,-3,-11
1529256765485902,24,-16,-5,-8,-17,10,4,4
1529256765485902,-8,-3,-9,-7,-11,-12,-3,-3
1529256765506846,0,3,4,4,1,3,0,2
1529256765506846,12,-9,-1,9,13,4,0,1
1529256765508841,3,6,7,10,29,1,-4,-4
1529256765508841,-10,-8,-3,-2,8,0,-2,-2
1529256765521806,8,13,5,3,-5,-5,1,4
1529256765521806,-9,-7,-1,2,-4,0,-2,-3
1529256765528788,-4,13,4,0,-2,-5,-2,-4
1529256765528788,18,4,-3,-5,-5,3,5,9
1529256765544745,-38,-16,-8,-5,-10,-8,-7,-14
1529256765544745,27,3,5,1,-8,3,-3,-2
1529256765546740,35,22,7,-3,-4,-5,10,6
1529256765546740,7,-7,-12,-9,-11,-27,-9,-7
1529256765567684,-17,-15,-3,1,7,-2,-1,0
1529256765567684,21,-3,11,0,-3,10,7,14
1529256765568682,-55,4,-8,12,29,-10,-21,-33
1529256765568682,-26,-5,5,5,2,9,21,8
1529256765580649,32,3,0,0,-4,-8,0,-4
1529256765580649,-59,2,-4,-10,-19,9,2,1
1529256765589625,45,-5,5,1,-3,8,2,7
1529256765589625,-22,1,3,5,17,6,-4,3
1529256765604585,-39,-8,-5,-7,-10,-6,-10,-16
1529256765604585,-19,-4,-4,4,-4,-13,-2,-10
1529256765606580,-14,4,0,-29,-34,6,0,-5
1529256765606580,29,-9,-10,15,54,27,12,4
1529256765627523,46,8,5,11,-13,-8,-15,15
1529256765627523,-17,-3,-4,1,-1,-7,-10,-14
1529256765628521,-17,-1,-5,-1,-6,-17,-2,2
1529256765628521,18,3,-1,-15,-24,2,-2,-1
1529256765640489,-11,-2,0,-2,8,6,8,-2
1529256765640489,8,0,-3,-2,-2,-7,0,0
1529256765649465,-10,-5,-5,-2,-6,4,-4,-7
1529256765649465,-4,-6,1,-2,-3,4,-3,-6
1529256765664425,2,4,-1,3,3,0,1,2
1529256765664425,19,5,0,-3,-8,-3,-1,4
1529256765666420,-9,0,2,4,10,3,4,3
1529256765666420,-19,-8,-4,-2,3,-7,-10,-7
1529256765687364,27,-5,2,7,13,0,4,6
1529256765687364,-14,-33,-21,-40,-79,-18,-6,-3
1529256765688362,-6,36,1,1,-6,-12,-3,-13
1529256765688362,-1,-13,8,18,17,-5,-8,-6
1529256765700329,-18,-33,-15,-41,-87,-1,-1,-10
1529256765700329,21,62,25,17,62,22,12,7
1529256765710303,5,-10,-16,-13,-29,-10,-1,7
1529256765710303,-5,-4,9,16,28,-1,-8,-11
1529256765724265,-4,-22,1,4,-7,-11,2,8
1529256765724265,-10,4,-2,7,24,3,-1,-3
1529256765726260,15,-23,-2,-4,-4,-3,-1,3
1529256765726260,3,26,0,-8,1,7,3,5
1529256765747204,7,-4,5,11,30,6,3,2
1529256765747204,1,-1,1,3,-4,-2,1,2
1529256765749199,24,5,8,10,18,7,3,11
1529256765749199,-26,-8,-4,-8,-25,-5,-5,-8
1529256765761166,-50,-5,-9,-5,5,-6,-6,-9
1529256765761166,-39,-11,-3,-2,-8,-4,-4,-5
1529256765770143,59,17,6,-1,8,1,0,10
1529256765770143,-84,-22,-3,2,0,2,1,-11
1529256765785103,59,37,9,5,3,-1,9,15
1529256765785103,24,15,1,3,9,6,-4,-1
1529256765786100,-109,-42,-6,-22,-15,12,3,-17
1529256765786100,89,13,-1,-25,-39,-25,-12,4
1529256765807044,-16,17,2,36,53,8,-3,0
1529256765807044,61,-7,4,7,-12,-1,0,2
1529256765809039,43,10,-3,-9,1,-7,3,14
1529256765809039,22,24,2,2,-11,10,8,14
1529256765821006,-63,-22,-1,-1,6,2,-10,-19
1529256765821006,45,4,1,2,10,10,20,6
1529256765829983,-1,3,2,-3,-2,-1,-2,-1
1529256765829983,-22,-9,-4,-24,-22,8,3,-13
1529256765844942,34,16,0,17,0,-21,-9,13
1529256765844942,-65,-9,-3,22,31,2,-3,-1
1529256765845940,-35,-12,2,1,-5,2,0,-10
1529256765845940,36,-2,-11,-3,1,-7,-6,3
1529256765866884,26,7,0,-19,-10,7,6,2
1529256765866884,30,-4,-5,-18,-26,-12,-7,-3
1529256765868879,-50,-7,-1,13,11,-1,-5,-11
1529256765868879,10,-2,1,4,8,0,-1,10
1529256765880846,-34,-7,-2,-10,-10,1,0,-13
1529256765880846,18,4,-3,-3,-4,-4,-3,9
1529256765889823,-2,-3,-1,8,14,-1,-3,-1
1529256765889823,-11,-4,-1,7,-1,-1,1,-2
1529256765904782,15,1,-1,-5,-7,5,3,2
1529256765904782,-22,-7,-1,-1,-1,-1,0,0
1529256765906777,23,3,2,3,4,-1,-1,4
1529256765906777,-28,-4,-3,2,0,-2,-2,-3
1529256765927721,16,-19,-2,-6,-3,-2,1,0
1529256765927721,-17,-23,-13,-4,5,-1,-6,-6
1529256765928719,2,47,17,-2,-10,-1,-4,-7
1529256765928719,-3,4,5,11,24,5,3,0
1529256765940686,14,-39,-16,-12,-11,-16,-5,4
1529256765940686,-21,13,16,5,-29,-11,2,-3
1529256765949662,29,-1,-6,12,11,9,3,7
1529256765949662,-3,9,-24,-60,-97,-15,-5,-6
1529256765964622,-17,-44,-7,-6,13,14,5,-6
1529256765964622,-17,30,9,5,24,-6,-7,-7
1529256765966617,22,-8,-3,19,42,-5,1,9
1529256765966617,-1,-5,10,23,13,0,-4,-1
1529256765987561,-1,15,1,1,-3,4,5,6
1529256765987561,-1,-16,-7,-9,-17,-3,-3,2
1529256765988559,14,7,-1,-7,-5,2,3,1
1529256765988559,0,-2,2,7,20,0,2,7
1529256766000526,0,24,3,-5,-7,-2,-3,-3
1529256766000526,-6,5,4,-3,5,8,4,3
1529256766009502,18,-8,0,11,-3,-4,-1,1
1529256766009502,17,-13,-3,-3,9,1,3,16
1529256766024463,-17,15,2,-18,-9,3,-5,-15
1529256766024463,-34,-23,-12,6,-2,5,-3,-5
1529256766026457,46,4,-1,-21,-25,4,4,4
1529256766026457,-3,8,3,13,19,-8,-2,-6
1529256766047401,97,26,3,9,23,-1,0,21
1529256766047401,0,-12,0,-1,-7,0,0,-2
1529256766048399,-57,-12,-6,-8,-25,-9,-11,-12
1529256766048399,91,21,1,-15,2,1,-4,0
1529256766060366,-74,3,4,21,13,12,10,0
1529256766060366,-9,-21,-4,-7,-7,-17,-6,-18
1529256766070340,-8,-6,-8,-7,-2,-1,2,10
1529256766070340,-42,3,9,-1,-13,1,-1,-9
1529256766084303,50,16,-4,18,18,-4,-6,2
1529256766084303,-55,-15,-2,-27,-10,4,1,-4
1529256766086298,34,5,3,32,13,4,1,-5
1529256766086298,-36,-16,-6,-13,12,-4,-7,-3
1529256766107241,-20,6,2,-9,-34,-1,0,-5
1529256766107241,18,14,-2,18,15,3,3,12
1529256766109236,-18,-9,-3,-29,-10,-3,-2,-2
1529256766109236,-11,-10,-3,10,1,0,-1,-7
1529256766121204,8,2,5,1,-2,-1,-2,1
1529256766121204,33,8,-2,1,6,1,1,8
1529256766130180,-3,-4,-5,-4,-6,-7,-4,-3
1529256766130180,-2,-8,-1,15,2,4,3,-2
1529256766145140,-47,1,-2,-2,2,-5,-1,-5
1529256766145140,19,-2,-4,-8,-8,-1,-2,0
1529256766146137,0,-4,-1,5,6,2,-2,-5
1529256766146137,5,5,0,4,2,-1,0,3
1529256766167081,-2,0,0,-7,-7,-5,-1,-5
1529256766167081,11,-4,-4,-3,1,-2,-4,-8
1529256766169076,12,5,2,4,3,2,2,9
1529256766169076,-19,-12,-5,6,10,-2,0,-3
1529256766181044,-17,-8,-3,-10,-12,-6,-4,-6
1529256766181044,4,18,5,15,24,16,6,7
1529256766190020,-8,-10,-7,-7,-5,-5,-2,0
1529256766190020,-13,-22,4,-2,-16,-9,0,2
1529256766203982,1,37,2,4,3,-5,-4,-1
1529256766203982,-3,-11,-1,-17,-60,-16,-3,-3
1529256766210964,7,32,5,9,25,10,-1,0
1529256766210964,-1,-11,-7,-9,11,1,4,1
1529256766226921,12,-22,-5,-10,-35,9,11,10
1529256766226921,2,0,-2,1,26,6,-3,-1
1529256766228916,1,7,6,4,-20,-14,0,0
1529256766228916,-2,-7,-4,6,25,11,-3,-4
1529256766240884,-15,15,1,4,13,-5,-4,-9
1529256766240884,-1,-6,-3,-4,-4,2,-2,2
1529256766249860,0,-11,2,4,10,3,2,4
1529256766249860,29,13,0,1,-4,-5,-3,-1
1529256766263822,-13,-17,-4,-1,7,2,-3,-5
1529256766263822,-8,-7,-2,-3,-3,-3,-1,-5
1529256766270804,10,-4,-2,-7,-5,-1,-1,-5
1529256766270804,-37,-4,2,3,-6,1,-2,-6
1529256766286761,58,13,-1,-3,3,-1,1,12
1529256766286761,-71,-10,0,4,5,-2,-3,-11
1529256766288756,30,-2,-3,-4,4,-1,1,3
1529256766288756,34,19,5,12,-5,4,2,5
1529256766300724,-19,-11,2,-14,-17,2,-2,-11
1529256766300724,10,5,-6,9,1,-10,-2,11
1529256766309700,-66,-17,-4,7,26,1,-3,-15
1529256766309700,-5,13,4,4,7,16,9,5
1529256766323663,28,-1,-8,-7,-6,-24,-17,-11
1529256766323663,-63,-14,-1,3,12,9,6,-3
1529256766330644,94,10,-3,-12,-21,-5,0,15
1529256766330644,12,-4,0,2,-8,1,-2,-6
1529256766347599,-60,-15,6,8,12,9,1,-8
1529256766347599,-22,1,-6,-19,-4,-5,-4,-9
1529256766348596,-51,-11,-2,13,-4,2,-1,-7
1529256766348596,22,8,-1,-8,-2,-6,1,10
1529256766360564,22,4,-2,-4,-2,6,2,2
1529256766360564,8,-4,1,6,0,-6,-2,0
1529256766369540,-8,-1,0,-2,7,5,-1,-1
1529256766369540,16,4,-1,-5,-3,-3,-2,2
1529256766384500,-21,-7,-3,1,-2,-2,2,1
1529256766384500,25,1,-1,3,2,3,3,2
1529256766390484,3,-2,-1,-3,-7,-4,-3,-2
1529256766390484,-21,-8,-3,-4,-8,-3,-1,-1
1529256766407439,-1,-4,-3,3,6,-1,1,8
1529256766407439,9,3,3,5,8,-1,-1,-9
1529256766408436,3,3,1,-4,-3,-2,1,5
1529256766408436,-27,-23,-3,1,2,4,1,-3
1529256766429380,15,17,0,8,21,-4,0,2
1529256766429380,34,-5,-3,-23,-73,-15,-1,6
1529256766431375,-12,-15,3,17,36,10,3,1
1529256766431375,-15,36,4,5,18,-6,-4,-11
1529256766444340,-1,-61,-18,-25,-56,-3,1,-2
1529256766444340,25,35,23,14,53,16,0,-2
1529256766451322,-10,32,4,1,-4,-6,4,0
1529256766451322,-2,-25,-3,4,-6,7,0,5
1529256766467279,6,3,-2,-8,-16,-8,-5,-6
1529256766467279,2,-6,-7,-3,2,-1,-2,-5
1529256766469274,-2,-18,-8,-1,11,1,-7,-6
1529256766469274,26,7,4,4,27,-1,-1,4
1529256766489220,-62,-2,2,10,7,-1,-4,-13
1529256766489220,12,-9,-7,-3,-7,0,0,4
1529256766491215,13,10,2,-6,-8,2,0,0
1529256766491215,26,6,1,-4,-21,-6,3,2
1529256766504180,-20,3,0,-4,-1,-3,-4,-5
1529256766504180,62,7,1,4,17,6,4,8
1529256766511161,-62,-17,-6,-7,-22,-8,-4,-11
1529256766511161,36,9,0,-2,-10,-6,0,6
1529256766527118,31,15,3,-7,28,6,6,10
1529256766527118,1,7,7,12,-20,7,-3,0
1529256766529114,-12,-24,-15,-19,-17,0,-6,-7
1529256766529114,-6,-2,-2,-7,-12,0,-3,-13
1529256766550057,-35,8,9,11,16,5,5,8
1529256766550057,-1,-18,-20,-17,12,-1,-13,-8
1529256766551056,26,-1,4,-1,-34,-3,1,6
1529256766551056,-6,3,0,-12,-11,0,-1,-9
1529256766563023,2,-5,2,17,14,1,1,0
1529256766563023,-17,1,-5,0,-10,-4,-3,-1
1529256766571999,-2,7,3,11,15,-4,1,3
1529256766571999,31,-2,-6,2,10,-1,-2,10
1529256766586959,12,7,2,-1,-12,6,-1,-5
1529256766586959,-58,-4,6,0,3,4,2,-5
1529256766588954,10,-4,-6,-7,0,-6,-5,0
1529256766588954,13,6,-3,-3,-9,-3,-1,1
1529256766609897,8,6,3,-2,5,-5,-1,-2
1529256766609897,-49,-3,0,0,-2,-4,1,-1
1529256766610895,20,-1,4,1,4,5,5,9
1529256766610895,12,4,-2,-1,-6,-4,-5,-5
1529256766622863,-11,-14,-9,1,-5,-2,-4,-9
1529256766622863,28,4,2,0,7,-3,3,6
1529256766632836,-6,11,8,1,-2,3,-2,-14
1529256766632836,-7,-4,1,0,0,-2,-3,10
1529256766646799,11,1,-1,-1,3,-1,0,-4
1529256766646799,21,2,-1,1,-3,-5,0,17
1529256766648794,-5,-2,-5,-4,2,-6,-6,-5
1529256766648794,-43,-14,-5,-1,-3,-4,-4,-3
1529256766669738,16,6,0,6,7,-1,-5,-6
1529256766669738,-8,-15,-2,0,3,0,0,14
1529256766671733,4,16,1,-1,-1,6,-2,-18
1529256766671733,-25,-9,-9,-12,-16,-14,-4,-9
1529256766683700,-2,-2,9,9,4,8,1,5
1529256766683700,12,-23,-11,-5,-23,-11,-1,-3
1529256766692677,1,38,4,-4,-23,-7,0,8
1529256766692677,-24,-13,-4,-5,23,13,4,-4
1529256766707636,17,-13,0,-1,9,-2,2,10
1529256766707636,-4,23,7,20,15,-2,-4,-15
1529256766708634,-4,-24,-22,-43,-68,-4,-1,4
1529256766708634,-15,-4,5,2,-7,0,5,3
1529256766729577,18,9,-9,-6,-8,-8,0,11
1529256766729577,1,-15,1,8,29,6,-3,-11
1529256766731573,-8,-8,2,16,31,-3,-2,4
1529256766731573,-4,10,4,5,5,1,3,4
1529256766744537,9,-7,-4,-4,-6,4,2,0
1529256766744537,10,5,0,-4,-6,-6,0,-1
1529256766750522,19,-2,2,3,6,2,1,-1
1529256766750522,-24,1,-3,-5,-10,-2,-2,-4
1529256766767476,-13,1,1,3,8,-2,0,-4
1529256766767476,48,7,2,-3,-6,2,1,-1
1529256766768474,-11,-1,-1,0,6,-6,-1,0
1529256766768474,34,2,-1,-7,2,-3,1,1
1529256766789418,27,6,5,0,-17,-12,-1,-1
1529256766789418,-25,-4,-8,-1,-20,10,-1,-6
1529256766791413,-46,-14,8,41,60,2,-6,-10
1529256766791413,45,4,-7,-12,-13,-10,-1,7
1529256766803380,88,24,4,-7,2,5,5,13
1529256766803380,-85,-23,-1,-5,-11,1,-1,-17
1529256766812357,101,14,-10,-13,-7,-9,-9,8
1529256766812357,-58,-4,2,3,9,9,-1,-10
1529256766827316,-12,-6,-4,-8,-21,-5,-3,0
1529256766827316,17,4,1,10,32,4,1,-1
1529256766829311,-26,-6,6,15,0,-4,4,10
1529256766829311,-58,-9,-6,1,6,9,7,-16
1529256766849257,54,10,0,-11,-10,5,1,2
1529256766849257,-18,1,-1,-12,-9,-4,3,1
1529256766851253,-41,-7,1,-5,-5,-2,0,-7
1529256766851253,74,16,-1,-7,-12,-4,-2,10
1529256766863220,-47,-4,4,9,9,-1,-5,-6
1529256766863220,-16,-3,-6,-4,-4,-10,-16,-15
1529256766872196,24,7,2,-5,-1,5,2,3
1529256766872196,-25,-12,2,6,1,-3,-2,7
1529256766887156,-13,-5,-8,-2,1,2,3,1
1529256766887156,38,11,5,-1,1,-3,6,21
1529256766889151,-26,-11,-3,-11,-7,-1,-2,-26
1529256766889151,20,3,5,9,2,-1,2,26
1529256766910095,-33,-4,1,22,50,17,-1,-16
1529256766910095,17,0,-4,-3,18,-14,2,9
1529256766911092,2,-14,-1,-21,-79,-6,5,13
1529256766911092,-33,-28,-14,-10,-21,-13,-18,-34
1529256766923061,-2,-50,-12,8,31,10,12,20
1529256766923061,-24,80,23,12,23,0,-11,-17
1529256766932036,5,11,-15,-31,-62,3,6,7
1529256766932036,7,3,7,10,24,2,-1,1
1529256766946996,-15,0,5,7,-22,-11,-9,-4
1529256766946996,6,-43,-21,-27,-56,-9,-4,-12
1529256766948991,2,-1,3,17,48,-1,3,6
1529256766948991,-3,-4,-3,-13,-22,-5,0,-3
1529256766969935,-24,10,1,15,35,1,-4,-12
1529256766969935,16,-9,-3,-5,3,-3,-1,8
1529256766970933,-7,-2,-2,-4,-7,3,-7,-14
1529256766970933,0,3,2,6,9,6,2,1
1529256766982900,8,0,0,-6,-3,-6,-7,-10
1529256766982900,-19,-5,-3,1,-4,0,-1,-5
1529256766991876,18,3,3,2,15,3,2,11
1529256766991876,0,5,5,10,15,2,-2,-10
1529256767006836,50,15,1,-18,-31,-5,0,11
1529256767006836,-35,-8,0,3,-6,1,-2,-3
1529256767008831,-10,-14,-2,5,17,2,2,-15
