timestamp,emg1,emg2,emg3,emg4,emg5,emg6,emg7,emg8
1520204769023123,-31,-27,-27,-4,16,31,-10,-23
1520204769023123,-3,16,15,-14,-18,-43,-9,47
1520204769032148,16,6,18,15,12,16,-6,19
1520204769032148,11,7,13,3,4,22,21,-39
1520204769047187,22,10,-8,15,10,61,-4,6
1520204769047187,-18,-26,-31,-21,-19,-49,-22,-34
1520204769048190,22,-7,6,16,29,9,12,45
1520204769048190,-36,-5,-11,-7,-3,-8,7,-50
1520204769069246,7,6,9,22,13,73,1,3
1520204769069246,-37,-38,-55,-42,-31,-39,-42,41
1520204769071257,46,22,21,-4,7,9,12,-37
1520204769071257,-28,-10,7,17,-20,-13,-1,-14
1520204769084286,30,30,11,6,-22,-3,5,32
1520204769084286,-41,-32,-28,-35,15,42,-16,51
1520204769092307,-32,-37,-3,29,-5,-46,-5,-36
1520204769092307,-45,-6,-8,-66,-21,3,-10,2
1520204769106344,66,59,28,41,-34,-43,1,1
1520204769106344,-35,-20,-21,-65,23,17,13,38
1520204769108350,-6,-6,10,44,-4,-18,-15,-14
1520204769108350,-10,-13,-25,-39,-7,38,26,-21
1520204769129405,-4,1,14,29,9,-10,-11,-5
1520204769129405,0,11,12,0,-7,-63,-16,16
1520204769131411,-7,-18,-35,-68,-75,-11,4,-18
1520204769131411,48,30,19,51,46,60,14,-39
1520204769143442,-12,-14,-19,-40,-62,6,19,3
1520204769143442,11,11,22,33,29,-30,17,4
1520204769152467,-46,-52,-33,-70,-18,4,-28,0
1520204769152467,6,43,32,17,-55,-106,-29,33
1520204769166504,8,-11,16,52,-16,-8,-1,-20
1520204769166504,0,15,-1,20,43,65,12,34
1520204769168510,-7,-10,-5,1,32,14,9,-12
1520204769168510,-13,-10,-3,-29,-76,-23,6,-12
1520204769189565,-23,-31,-44,-59,123,2,-44,17
1520204769189565,25,11,48,81,-128,1,-18,-28
1520204769190568,17,23,-13,9,34,22,35,8
1520204769190568,18,2,-7,7,107,-3,-1,-43
1520204769203606,5,15,34,39,-117,-88,-2,-15
1520204769203606,-10,-27,-13,8,98,103,28,-13
1520204769211624,38,54,1,-45,-57,-8,-29,44
1520204769211624,-20,-17,-2,4,1,43,3,-9
1520204769226664,-11,-4,15,5,-20,-81,-21,12
1520204769226664,-5,1,0,-13,-9,-7,-19,17
1520204769228669,-27,-23,-6,11,-24,-20,-20,3
1520204769228669,24,6,15,55,84,-49,19,-34
1520204769249726,24,29,7,-14,-40,59,28,14
1520204769249726,9,28,4,-27,-23,11,-22,18
1520204769250728,-11,-22,-9,23,62,16,11,5
1520204769250728,-15,-1,6,-40,-126,-25,-35,56
1520204769271784,1,-6,-9,17,70,-27,5,-15
1520204769271784,-11,-13,-18,-29,8,-27,-25,-15
1520204769273790,10,11,21,28,-48,25,48,-22
1520204769273790,-18,-16,-16,-41,-9,3,-18,51
1520204769286824,22,6,5,22,74,23,46,-17
1520204769286824,-5,9,12,-5,-21,46,-13,46
1520204769288830,-8,-15,-12,-12,-27,-18,-20,-8
1520204769288830,1,12,16,23,-3,41,-14,-2
1520204769308883,2,-3,-11,-40,-27,-25,45,12
1520204769308883,-6,-13,-15,-2,-11,-17,10,-9
1520204769310888,6,-1,8,16,82,47,-15,-27
1520204769310888,19,18,6,-18,-8,-25,-10,37
1520204769331944,35,38,2,25,-7,-3,-39,-74
1520204769331944,-20,-15,7,-7,-9,26,27,37
1520204769332947,-19,-18,-22,-27,-14,-14,44,-16
1520204769332947,-11,-39,-39,11,21,8,24,-79
1520204769345982,1,10,13,-24,26,43,-22,-41
1520204769345982,10,5,-4,7,32,34,14,-16
1520204769353000,-14,-34,-28,-15,-23,-85,-23,-44
1520204769353000,7,9,9,20,103,102,31,-36
1520204769369043,0,0,5,-29,-77,-69,-29,34
1520204769369043,39,42,24,32,52,23,18,59
1520204769371048,-34,-27,-11,-3,-3,11,-17,24
1520204769371048,4,2,4,-1,-20,-99,-37,18
1520204769392104,1,-3,2,37,82,86,10,3
1520204769392104,-4,8,18,-39,-110,-86,19,13
1520204769393107,25,25,19,43,82,-7,-43,-17
1520204769393107,-9,-3,-4,5,-46,12,-15,6
1520204769406141,-21,-21,-15,-43,-33,-25,-4,17
1520204769406141,16,7,-10,10,-4,-49,-6,-19
1520204769413160,-15,-4,7,1,15,10,18,22
1520204769413160,9,14,14,31,-8,-44,-1,-11
1520204769429203,-4,-11,-4,-7,-6,2,-39,-9
1520204769429203,-32,-28,-19,-9,-3,65,50,-30
1520204769431208,34,30,1,-8,-38,-87,-53,-14
1520204769431208,13,14,13,5,18,63,12,21
1520204769452264,-20,-13,-5,18,-9,4,-7,22
1520204769452264,-1,-10,-1,13,26,-24,-2,-55
1520204769453267,-12,-10,1,-6,-27,39,15,8
1520204769453267,-4,4,-4,-28,-48,44,-27,23
1520204769465299,29,22,5,-6,-11,-64,57,57
1520204769465299,-6,-13,-2,9,-28,22,-39,-65
1520204769474323,17,20,10,-11,3,6,16,46
1520204769474323,-27,-6,19,14,-2,-4,-20,-15
1520204769489363,8,15,2,2,17,28,3,20
1520204769489363,13,5,-5,-24,-27,-29,-8,67
1520204769491368,2,-3,-2,5,12,-2,23,-2
1520204769491368,-12,-11,-7,-2,7,-11,-19,-16
1520204769511421,-16,-14,-6,-2,-16,26,-1,-20
1520204769511421,11,14,0,-6,6,-15,17,4
1520204769513427,12,11,7,-3,-1,1,-24,33
1520204769513427,-26,-19,-7,11,12,-20,39,-10
1520204769525459,-18,-11,-4,-8,-8,22,-6,15
1520204769525459,71,38,12,10,38,23,4,35
1520204769534483,-35,-10,6,-1,6,3,19,11
1520204769534483,15,14,-4,-10,-9,-9,15,17
1520204769549523,-30,-21,0,8,12,16,-12,-28
1520204769549523,-32,-19,-6,6,7,-3,-15,-11
1520204769550526,23,14,3,-3,-8,14,6,6
1520204769550526,-21,-16,-3,-1,-3,-12,-9,-43
1520204769571582,10,1,-3,-9,-2,0,-7,-11
1520204769571582,-23,-19,0,14,1,-29,-19,-50
1520204769573587,5,0,-1,8,14,15,5,-19
1520204769573587,-15,-7,-15,-8,-6,-2,5,14
1520204769585619,50,3,1,7,9,4,-1,-8
1520204769585619,-31,-14,-7,-16,-12,-5,-1,-4
1520204769594643,5,5,2,-7,-2,-2,4,10
1520204769594643,-19,-21,-10,10,5,-22,-5,-8
1520204769609683,-33,-13,-5,-4,-2,-2,-12,-32
1520204769609683,33,2,-7,-8,-12,-21,-4,-12
1520204769610686,-5,-6,5,16,2,-8,-17,-12
1520204769610686,-2,4,-8,-11,3,12,10,15
1520204769631742,-12,-5,-4,-5,10,-10,3,15
1520204769631742,24,19,9,9,2,13,15,23
1520204769633747,28,-4,-6,-5,-2,8,1,13
1520204769633747,3,14,9,4,-14,-26,-10,-18
1520204769645779,-11,15,-4,-14,6,26,16,13
1520204769645779,-25,-14,8,23,18,8,-8,-9
1520204769654803,81,48,3,-15,-12,2,16,44
1520204769654803,-32,-9,3,0,7,14,11,1
1520204769668840,90,-8,-11,-4,-35,-4,-6,16
1520204769668840,0,2,-1,-3,37,-9,9,21
1520204769670846,-58,-26,4,12,-2,-4,1,-20
1520204769670846,20,27,-5,-12,-11,4,3,12
1520204769691902,-39,-47,7,8,18,3,5,-31
1520204769691902,66,51,-11,-15,-30,-17,-10,29
1520204769693907,-84,-46,3,11,-6,-1,-8,-23
1520204769693907,-27,-12,-14,-6,20,14,9,-6
1520204769705939,34,-10,10,4,-14,-18,-16,13
1520204769705939,-81,-20,-8,-5,-13,19,5,-24
1520204769714963,93,25,1,2,42,10,-11,-36
1520204769714963,-6,7,8,8,-13,-13,-23,16
1520204769729000,-52,22,8,1,7,1,13,14
1520204769729000,4,15,5,-9,-12,3,-1,-27
1520204769731006,-27,-3,-9,-10,-11,-4,-16,8
1520204769731006,28,-7,7,12,4,-9,-10,-59
1520204769752062,30,-1,-6,0,-12,2,3,83
1520204769752062,7,-17,3,8,28,3,-7,-50
1520204769753065,-4,-6,-8,-9,-10,1,5,17
1520204769753065,81,13,4,-6,2,1,11,18
1520204769765096,-108,-9,-5,-10,-9,3,9,-4
1520204769765096,7,-5,14,25,4,-1,4,1
1520204769774120,-20,-4,-7,2,12,10,14,-53
1520204769774120,107,-2,-12,-10,-2,1,1,66
1520204769789160,-45,-9,7,11,10,-5,-9,-69
1520204769789160,43,43,-7,-24,-15,3,4,71
1520204769791166,-97,-33,-3,3,-26,-1,-37,-69
1520204769791166,-41,35,16,5,-3,-58,2,-44
1520204769812222,-12,-40,-7,9,-16,17,16,17
1520204769812222,29,-19,-10,-8,-1,-4,-8,52
1520204769813225,-53,4,8,4,4,-1,4,5
1520204769813225,81,-51,-46,-25,-15,11,3,90
1520204769825256,-65,82,20,-5,11,-8,-12,-24
1520204769825256,-33,-23,5,16,8,-5,8,-34
1520204769834281,16,29,-13,-20,-22,4,7,41
1520204769834281,11,-40,11,18,25,22,9,-13
1520204769856339,72,-13,-16,-3,27,1,-3,18
1520204769856339,-66,47,-3,-15,-44,-20,5,-11
1520204769858345,90,-73,-5,3,4,-2,4,-63
1520204769858345,46,55,12,0,0,4,-11,53
1520204769871379,-74,-81,-16,-6,-1,-1,3,-58
1520204769871379,77,17,-3,3,11,0,-14,-41
1520204769873385,32,-2,4,11,14,-1,10,-30
1520204769873385,-110,34,2,0,-10,3,5,22
1520204769886419,10,-30,-10,-14,-12,-9,-3,59
1520204769886419,-59,-25,-12,4,31,21,-12,-27
1520204769893438,-18,95,10,-5,-40,-36,-5,2
1520204769893438,115,-77,-24,-6,-5,9,-1,24
1520204769909481,-102,90,41,16,8,2,0,-65
1520204769909481,50,-48,-26,-3,9,6,7,83
1520204769910483,-51,-32,1,-13,5,-1,1,11
1520204769910483,40,-68,-23,-8,-3,2,-7,-47
1520204769931539,4,34,2,4,-6,-12,-6,9
1520204769931539,-62,-22,13,8,5,6,4,-48
1520204769933545,70,50,-6,-7,7,7,1,107
1520204769933545,-62,-23,8,-12,-16,-7,1,-21
1520204769945577,70,1,12,19,22,8,3,-55
1520204769945577,2,46,15,6,0,5,2,0
1520204769954601,34,-7,-11,-1,3,0,1,5
1520204769954601,-100,15,11,15,16,11,29,-42
1520204769969641,75,-3,-12,-15,-28,-19,-27,1
1520204769969641,13,32,30,6,-6,3,17,-39
1520204769971646,-8,-17,-2,-6,-10,-9,-9,25
1520204769971646,-10,15,4,9,12,4,3,-48
1520204769991699,-1,-30,-20,2,15,10,12,12
1520204769991699,19,-35,-17,-22,-12,-6,7,14
1520204769993705,-27,29,23,16,9,3,-18,-48
1520204769993705,26,110,72,26,30,29,6,-56
1520204770005737,47,-81,-47,-16,-39,-40,-2,17
1520204770005737,-125,-45,13,2,-2,-3,5,-14
1520204770014761,-47,-40,-38,-18,5,4,1,-30
1520204770014761,-7,-19,-35,-54,-35,-15,-39,70
1520204770028798,53,62,40,46,24,18,6,-11
1520204770028798,-8,-38,-24,3,0,1,-9,-31
1520204770035817,69,11,15,-24,-9,-10,-2,27
1520204770035817,-85,-27,-25,5,4,-1,-3,-30
1520204770051859,43,-3,-12,-18,5,8,-15,19
1520204770051859,28,7,22,6,-10,-5,-7,22
1520204770053865,-4,-11,-1,-7,-7,0,1,4
1520204770053865,-76,-17,21,50,15,1,7,-32
1520204770065897,-106,120,55,-38,-26,1,5,31
1520204770065897,67,28,5,-5,4,0,-2,9
1520204770074921,-63,-126,-56,13,22,6,9,-13
1520204770074921,-24,17,19,-25,-17,-3,-5,-30
1520204770088959,123,59,47,56,0,5,-3,73
1520204770088959,-47,-81,-78,-41,-8,-20,-8,-8
1520204770090963,1,-48,-2,-6,38,15,12,-19
1520204770090963,89,12,41,39,-15,-10,-13,54
1520204770112019,-104,9,-37,-42,6,8,9,-27
1520204770112019,43,68,84,37,1,-1,-18,10
1520204770113022,1,3,-3,41,-1,7,9,-12
1520204770113022,18,-41,-74,-61,14,3,10,-6
1520204770125054,18,7,55,63,-22,-13,-20,14
1520204770125054,-23,27,2,-10,18,13,4,7
1520204770134079,-6,22,-33,-19,-30,-14,-16,6
1520204770134079,-19,39,23,-24,9,2,2,-20
1520204770149118,27,-58,2,60,2,1,10,-1
1520204770149118,-18,40,-22,-34,8,-8,-7,-9
1520204770151124,4,17,41,42,-11,-4,-6,18
1520204770151124,-13,-21,-113,-102,-19,-14,-5,-4
1520204770179198,-4,-65,21,27,20,10,1,0
1520204770179198,15,36,-23,-50,-16,-5,-8,22
1520204770181204,32,32,2,-10,10,3,9,8
1520204770181204,41,22,71,88,17,9,13,-3
1520204770185214,-56,-75,-65,-22,4,5,6,-47
1520204770185214,-37,-1,69,67,-10,-6,-2,20
1520204770194238,31,3,-85,-91,-30,-6,-7,7
1520204770194238,-3,0,42,11,-7,-15,1,-12
1520204770209278,34,-14,-56,-41,12,-1,6,-5
1520204770209278,-46,37,51,22,2,2,1,1
1520204770211284,8,-29,18,63,15,9,10,-24
1520204770211284,12,-112,-94,-66,8,0,-12,7
1520204770231337,7,63,98,100,-6,5,9,-14
1520204770231337,18,-105,-64,-36,1,-6,-1,-19
1520204770233342,-45,52,14,-68,4,27,1,8
1520204770233342,1,26,13,73,-8,-41,4,-5
1520204770245374,-16,-31,-47,-85,-7,-1,-8,3
1520204770245374,30,16,-2,31,-13,-10,-1,1
1520204770254398,-40,-54,-12,-23,-16,3,0,2
1520204770254398,-15,2,5,25,8,13,-2,1
1520204770269438,32,22,-25,-50,-3,-7,-4,6
1520204770269438,-50,-96,-20,-34,-33,8,-1,14
1520204770271444,21,23,11,20,3,-24,9,-4
1520204770271444,-29,1,-7,-30,-5,55,-12,35
1520204770291497,16,11,40,40,8,-47,-35,-9
1520204770291497,27,-16,-31,-67,-28,26,65,-39
1520204770293502,-15,-3,43,87,25,-26,-19,18
1520204770293502,14,26,20,32,13,61,31,6
1520204770305534,-33,-19,-45,-106,-49,-61,-16,31
1520204770305534,8,-8,-17,46,88,73,-21,-11
1520204770314558,19,19,26,-8,-21,32,-5,-21
1520204770314558,19,23,31,15,-14,-55,-8,-16
1520204770329598,-27,-15,-33,-29,-26,102,-16,23
1520204770329598,9,-2,-16,3,47,-128,2,6
1520204770330601,-3,9,16,17,-42,112,54,24
1520204770330601,-11,0,1,5,32,-86,-5,26
1520204770351657,6,-8,6,-3,-2,27,-11,-38
1520204770351657,-4,25,36,80,-32,16,-13,1
1520204770353662,20,2,-5,-3,22,42,-52,50
1520204770353662,-32,-14,-21,-71,-20,-48,45,-19
1520204770365694,30,14,21,57,30,-13,9,32
1520204770365694,25,19,-6,-19,-45,1,-11,36
1520204770374718,-12,7,-2,-7,55,-31,-13,-35
1520204770374718,-10,-2,-3,-14,-90,38,0,6
1520204770388755,-15,-17,-17,-17,14,17,-1,-2
1520204770388755,3,-6,-14,-46,3,-50,31,-24
1520204770395774,1,1,-1,14,-12,4,54,-12
1520204770395774,7,4,-6,-17,-8,12,-50,4
1520204770411817,-17,-14,-5,7,-2,-39,-39,-32
1520204770411817,28,-5,-6,11,46,68,-13,10
1520204770413822,2,1,12,5,41,-14,50,-44
1520204770413822,8,6,36,58,-15,-7,-53,30
1520204770433875,-3,7,-22,-44,-11,-18,59,-9
1520204770433875,10,9,3,-25,-109,-42,-29,12
1520204770435881,-17,-3,-16,31,46,6,-5,4
1520204770435881,-9,-9,-8,-16,17,5,15,-5
1520204770456937,-11,-15,-7,-2,5,29,19,-16
1520204770456937,3,3,-6,6,23,37,14,6
1520204770457940,-22,-6,5,-28,-73,-119,-76,-9
1520204770457940,26,11,11,41,68,16,-32,-45
1520204770471977,-20,-10,-24,-60,-12,33,27,-6
1520204770471977,4,7,27,48,-18,5,-3,6
1520204770472980,-2,-7,-17,0,48,34,29,-69
1520204770472980,-26,-4,0,1,-34,10,16,5
1520204770494035,-14,-2,-11,37,-29,-36,-28,16
1520204770494035,13,-5,-2,-22,40,-60,-17,-34
1520204770496041,-7,-4,4,-12,-20,10,-79,37
1520204770496041,-32,-1,-11,7,40,42,66,74
1520204770509076,-4,-14,13,4,-14,69,33,15
1520204770509076,-13,13,5,-22,-91,-17,-29,22
1520204770515091,-15,-10,-2,38,37,1,13,78
1520204770515091,5,-3,-6,-3,25,-59,-3,20
1520204770532137,-23,-8,-7,21,-36,-50,14,48
1520204770532137,2,-5,2,54,112,48,-41,-62
1520204770533140,24,8,10,-27,-40,-40,5,-35
1520204770533140,11,6,1,-51,-65,-38,-34,-30
1520204770554195,4,3,2,18,122,67,40,-37
1520204770554195,-1,-11,-2,-3,9,-71,-11,-18
1520204770556201,5,6,4,-54,-103,30,75,12
1520204770556201,42,5,1,22,69,-36,-81,-86
1520204770568233,-13,-1,12,-28,-56,-77,-77,-5
1520204770568233,-16,-16,-27,-46,-107,49,84,25
1520204770575252,64,41,40,97,121,89,-12,-69
1520204770575252,7,-1,-1,-73,-105,64,-13,7
1520204770592297,24,10,8,68,42,-22,23,-8
1520204770592297,-16,-9,-8,-26,-6,65,18,-6
1520204770593300,-57,-30,-22,-33,-52,-53,-10,69
1520204770593300,-5,8,-6,-19,-21,-45,17,32
1520204770614356,24,18,15,57,52,96,-15,16
1520204770614356,-8,-21,-2,18,7,-78,56,20
1520204770616361,-9,-10,-20,-21,21,76,-29,-35
1520204770616361,-13,-4,-2,-37,-61,-5,10,26
1520204770628393,29,6,3,0,25,8,9,-69
1520204770628393,-26,1,-19,-23,-42,-31,-66,92
1520204770635412,41,17,30,80,95,62,12,-56
1520204770635412,34,8,3,8,-25,-73,42,-76
1520204770651454,10,7,-10,-12,-28,-62,-9,1
1520204770651454,-32,-24,-1,-17,-34,6,-12,-9
1520204770653461,-6,3,-11,-72,-57,-9,-19,70
1520204770653461,-20,-8,-4,62,76,127,37,3
1520204770674516,21,2,-5,-61,-44,-64,56,17
1520204770674516,32,12,17,44,61,10,-31,-44
1520204770675519,-22,-10,-4,-13,-62,-63,-14,19
1520204770675519,2,-3,5,23,32,8,-10,41
1520204770688553,-14,-9,-4,-16,-43,-16,-10,40
1520204770688553,-6,5,-18,-16,25,32,18,19
1520204770695572,-4,-3,27,34,63,-20,-18,-8
1520204770695572,-1,-8,-8,-1,-27,-4,64,13
1520204770711614,30,28,3,-10,0,39,40,39
1520204770711614,1,-4,15,22,-8,-18,-42,-78
1520204770713620,27,25,-16,-24,-33,-48,6,36
1520204770713620,-30,-17,1,15,39,58,-21,-28
1520204770734675,-22,-31,-13,-19,-32,-11,-34,-29
1520204770734675,15,12,-6,-3,1,-23,7,31
1520204770735679,10,15,-16,-22,-26,-12,21,0
1520204770735679,-11,-12,0,-27,-38,-56,-67,-6
1520204770747710,-18,-11,4,46,53,-36,-50,-70
1520204770747710,3,-12,-3,0,-2,35,19,-31
1520204770756735,-4,-12,-11,-15,-12,-11,0,-7
1520204770756735,-8,13,-13,-5,-8,-36,-3,10
1520204770771774,15,-5,8,-15,-34,2,0,4
1520204770771774,2,8,-3,3,43,45,-14,7
1520204770773780,-24,-13,-3,-9,-29,-6,5,-27
1520204770773780,-3,-12,1,21,28,38,5,-92
1520204770793833,-19,3,6,1,-4,-7,-16,7
1520204770793833,24,6,4,-8,-14,-17,1,13
1520204770795839,2,4,-2,-11,-13,7,11,63
1520204770795839,12,6,1,7,1,17,29,32
1520204770807870,-72,-18,3,17,20,-40,-27,-42
1520204770807870,41,19,1,-10,-3,-5,6,0
1520204770816895,36,6,-2,-8,-7,-11,0,16
1520204770816895,-27,-21,-24,3,8,-18,2,23
1520204770831934,21,12,-5,-30,-6,40,18,37
1520204770831934,-27,-6,5,22,15,11,12,-8
1520204770833940,5,-12,-3,0,-2,-56,2,-15
1520204770833940,13,10,7,23,25,42,-4,-2
1520204770853993,8,-4,-9,-6,2,11,-6,41
1520204770853993,1,-4,-2,-13,-18,6,-7,-15
1520204770855998,41,15,2,-3,-4,-11,4,2
1520204770855998,-40,-1,1,-8,-14,-15,-2,-7
1520204770877054,36,6,-15,-32,-12,-7,22,48
1520204770877054,-14,4,16,19,10,-7,-3,-15
1520204770879060,-27,-18,-9,-1,-8,-1,-6,-10
1520204770879060,2,-4,2,6,5,5,-9,-14
1520204770892094,-9,-1,6,13,3,6,-11,-34
1520204770892094,-14,-4,-8,-11,-10,-8,-5,6
1520204770893097,-1,-6,3,3,6,-7,-26,-21
1520204770893097,-2,1,8,8,-7,2,-18,-8
1520204770914153,-1,4,0,1,4,-5,-2,-21
1520204770914153,-29,-15,-12,-5,-3,-17,-21,-26
1520204770916158,-36,-6,3,2,2,16,3,-13
1520204770916158,17,-1,2,-1,-4,-16,-11,-12
1520204770928190,35,13,6,8,5,30,7,20
1520204770928190,-11,-4,-2,-6,-1,-13,4,-3
1520204770937215,-1,-8,-6,-12,-11,-5,-9,13
1520204770937215,23,4,2,0,0,7,13,10
1520204770952254,-7,-1,-6,-3,-4,-19,-6,-3
1520204770952254,-4,2,5,7,-4,-6,4,3
1520204770953258,13,-3,0,-2,-3,6,12,3
1520204770953258,-10,15,6,1,-1,12,11,34
1520204770975316,7,-6,5,6,13,7,-6,-14
1520204770975316,20,-3,-19,-20,3,-3,5,6
1520204770977321,-20,-4,1,4,-4,-2,7,-14
1520204770977321,5,4,0,-2,-2,-4,-3,7
1520204770988350,-17,-2,3,3,-4,0,-6,-22
1520204770988350,32,5,-5,-9,3,10,6,32
1520204770997375,-8,2,8,7,-5,-6,-12,-36
1520204770997375,36,1,-3,-4,-1,2,8,11
1520204771011412,-14,3,1,0,4,7,6,-10
1520204771011412,8,2,14,18,9,21,18,34
1520204771013417,-7,2,-8,-3,2,-2,0,15
1520204771013417,-16,2,3,-3,-2,-2,1,21
1520204771034473,-4,-14,-5,-4,-2,-8,-7,-24
1520204771034473,-13,2,5,3,-2,3,-5,-3
1520204771035476,-27,-7,3,5,-1,-5,-19,-28
1520204771035476,6,-5,-7,-5,-1,-8,-2,8
1520204771047508,23,0,-5,-3,0,5,13,9
1520204771047508,12,-10,-5,-4,-4,0,-3,-12
1520204771056532,-55,-15,1,0,1,0,2,-3
1520204771056532,32,9,2,-4,2,1,-2,4
1520204771071572,12,11,2,0,0,3,4,0
1520204771071572,-43,4,9,6,-3,-3,-12,-34
1520204771073577,6,-28,-11,-2,0,-6,-13,-16
1520204771073577,72,-37,-12,-9,-5,-9,-6,24
1520204771094633,-6,93,24,0,-2,-3,-6,3
1520204771094633,-24,-52,-9,4,2,5,16,13
1520204771095636,21,18,3,4,3,1,-4,-23
1520204771095636,-15,-10,-9,-9,-7,-5,-7,23
1520204771107668,42,19,-6,1,0,3,7,22
1520204771107668,-53,4,8,6,7,11,13,-31
1520204771116691,-42,-27,11,9,3,1,-4,-27
1520204771116691,62,6,-9,-9,-10,-6,-3,56
1520204771133737,-64,-78,-21,-12,-3,-4,-10,-40
1520204771133737,88,46,6,-5,-5,-6,-11,21
1520204771134741,-76,13,21,13,12,16,37,43
1520204771134741,-19,-9,3,1,-1,-11,-16,-83
1520204771154793,-101,-69,-8,-3,-3,-1,-5,-45
1520204771154793,76,4,-10,-3,-5,-5,-16,40
1520204771155796,0,-6,-4,-4,-4,-2,-4,-8
1520204771155796,-14,1,2,11,8,9,8,-23
1520204771167828,26,8,-2,4,1,-3,-5,34
1520204771167828,-55,-42,-18,-13,-8,-1,0,43
1520204771176852,91,33,0,1,1,2,3,14
1520204771176852,-128,93,39,2,0,1,5,-3
1520204771191892,17,-38,-5,6,3,-3,-15,-66
1520204771191892,66,-10,-11,-7,-7,-6,-6,-9
1520204771193897,20,-39,-26,-18,-10,-4,-3,53
1520204771193897,11,-113,-15,6,9,8,7,-12
1520204771213950,-95,121,46,13,3,0,6,35
1520204771213950,78,91,36,13,7,5,8,-40
1520204771215956,63,-65,-39,-13,-8,-8,-11,-48
1520204771215956,80,-31,-24,-7,-3,-4,-7,77
1520204771227988,-8,-43,-3,-18,-10,-1,4,12
1520204771227988,-113,6,4,7,5,-1,-5,-80
1520204771237012,75,46,4,-12,-9,-4,1,61
1520204771237012,-16,-13,-14,-21,-16,-11,-2,-23
1520204771252052,51,9,9,8,6,6,9,26
1520204771252052,-27,-5,6,7,11,6,-2,-81
1520204771253055,60,-3,-16,-17,-12,-6,-1,71
1520204771253055,-25,29,14,2,-4,0,2,-35
1520204771274110,-33,-64,-22,7,2,-4,-5,-40
1520204771274110,87,14,-3,-24,-20,-6,8,65
1520204771276116,-76,42,35,35,19,11,10,-43
1520204771276116,0,-19,-12,13,8,5,9,15
1520204771288148,33,22,3,-15,-9,-11,-21,-17
1520204771288148,-34,-38,-15,9,12,6,-5,-30
1520204771297172,-12,-24,-21,-22,-14,-12,-11,65
1520204771297172,-11,52,24,-6,-8,-1,6,-26
1520204771312212,32,15,15,13,4,6,6,-11
1520204771312212,-36,-7,-2,19,9,7,11,13
1520204771313215,-6,-2,-1,-28,-17,-18,-19,-2
1520204771313215,-62,0,21,28,12,3,-5,-68
1520204771334270,42,-10,-27,-7,-6,-10,-1,26
1520204771334270,85,2,1,-7,6,10,2,51
1520204771336276,-47,-19,0,33,18,-6,8,-78
1520204771336276,24,28,26,-24,-24,-3,-7,6
1520204771348308,-3,7,11,-3,3,14,12,15
1520204771348308,-35,-14,-10,2,8,9,1,-13
1520204771357332,-2,1,-5,3,7,-1,8,-28
1520204771357332,11,8,-3,0,2,-5,-22,38
1520204771371369,39,-11,-32,-20,-1,-14,-1,14
1520204771371369,-82,-15,43,10,-20,-2,0,6
1520204771373375,-3,6,6,1,6,12,4,4
1520204771373375,24,-5,-11,9,3,3,7,16
1520204771394431,-7,-12,-9,-7,-4,-11,-5,-2
1520204771394431,-34,-21,-16,-9,5,-12,-14,0
1520204771396436,6,13,8,-6,-5,4,8,-2
1520204771396436,41,0,-21,1,23,2,10,2
1520204771408468,-7,9,47,29,-1,27,-16,12
1520204771408468,4,-5,-9,-7,-14,-18,18,3
1520204771417492,-38,0,9,2,-15,30,3,-7
1520204771417492,14,10,-8,-14,15,-16,-4,-3
1520204771431529,2,-6,-3,30,5,8,-5,8
1520204771431529,7,0,-3,-17,-18,-30,-1,-7
1520204771433535,3,17,17,8,-2,6,5,2
1520204771433535,-23,-18,-20,-16,-31,-54,-37,4
1520204771454591,-1,-6,-7,10,62,58,20,9
1520204771454591,9,5,4,9,-13,-45,0,-36
1520204771455594,3,-1,-1,2,24,-5,29,9
1520204771455594,-1,6,8,6,-5,0,3,-11
1520204771467625,-18,-6,-3,-26,-48,-43,-21,7
1520204771467625,2,-5,-18,-1,22,60,-3,13
1520204771476649,-4,-3,-7,-13,-21,-21,-33,8
1520204771476649,-7,1,17,23,35,12,-2,1
1520204771490687,-8,-6,-5,-6,1,22,52,-25
1520204771490687,37,18,-5,-8,11,11,-11,17
1520204771497705,-13,-6,-3,2,-16,11,-10,-24
1520204771497705,-25,-11,-6,-5,-31,-50,-25,51
1520204771514751,-3,-6,-14,-13,21,91,-26,-3
1520204771514751,14,-1,1,-3,-19,-73,52,63
1520204771515753,-5,2,4,-1,4,14,-31,-69
1520204771515753,-5,-18,-23,-7,14,58,27,65
1520204771527785,0,2,6,4,-6,-46,-50,-48
1520204771527785,-16,1,4,-6,-8,45,35,-68
1520204771536810,-7,-7,-11,-3,-7,-8,17,97
1520204771536810,-26,-5,-1,-8,-15,12,-63,-47
1520204771550847,20,7,0,5,31,-128,9,33
1520204771550847,-17,-3,7,-3,4,95,-22,5
1520204771557865,20,4,2,4,-11,-91,12,-17
1520204771557865,-10,-2,-6,-4,-12,86,53,-70
1520204771573908,-41,-19,-12,-10,-20,-17,0,2
1520204771573908,16,3,-3,-1,24,-30,-12,-48
1520204771575914,-5,0,10,2,1,-6,-25,-69
1520204771575914,0,-6,-5,-12,-91,-4,-18,22
1520204771596969,53,10,-11,8,49,52,-50,47
1520204771596969,-45,-16,-9,-16,-3,61,-44,101
1520204771597972,53,29,37,26,68,-76,55,-21
1520204771597972,14,3,10,5,-10,-64,2,-50
1520204771610004,14,23,0,-7,-24,-14,20,-6
1520204771610004,-5,-13,-14,-4,-28,25,-37,-75
1520204771619028,-40,-13,-5,10,10,85,-33,64
1520204771619028,7,-8,-15,-8,35,70,-54,-40
1520204771634068,3,8,6,11,-10,-1,82,-74
1520204771634068,31,16,2,0,13,-4,-5,37
1520204771636074,-37,-4,0,2,1,82,-91,-3
1520204771636074,1,-2,-3,24,42,33,127,-103
1520204771657129,-26,-15,-7,-12,-19,28,-94,47
1520204771657129,-8,-11,3,-1,-5,-26,23,15
1520204771663145,27,6,-9,-9,-20,-20,30,-38
1520204771663145,-32,-13,-14,-39,-46,1,-75,36
1520204771670164,6,-2,11,23,47,-44,49,-2
1520204771670164,33,9,21,17,-18,-115,-14,0
1520204771679188,-11,-9,-9,-17,-9,61,-38,12
1520204771679188,1,7,7,-13,-43,-93,-8,-10
1520204771694228,2,-16,-16,9,42,69,-13,-28
1520204771694228,-1,1,6,11,9,26,60,-40
1520204771700244,-3,-6,-8,-1,-3,69,22,-50
1520204771700244,-2,14,5,-12,-7,-57,-9,-3
1520204771717289,-11,4,13,-11,-24,66,2,28
1520204771717289,9,-5,-21,-31,-20,-99,-63,21
1520204771718293,1,3,5,10,-10,-6,-24,79
1520204771718293,-4,-1,-5,11,109,-8,24,-104
1520204771730324,30,15,8,12,-47,-11,26,0
1520204771730324,-22,-11,-3,0,11,48,1,42
1520204771747370,-23,-5,-5,-20,-33,-75,-5,5
1520204771747370,26,9,-1,3,9,29,-30,-15
1520204771754388,13,9,-2,-16,-28,-20,-12,78
1520204771754388,-18,-5,0,-3,2,41,-2,-52
1520204771756394,5,-3,-5,1,5,-10,18,-78
1520204771756394,0,-4,5,14,-3,11,4,50
1520204771776447,-29,-15,-8,-16,-40,-9,18,-8
1520204771776447,-7,5,8,8,74,-1,9,-20
1520204771778453,17,6,1,-3,-27,-86,-42,-25
1520204771778453,9,-5,1,11,-11,-4,9,52
1520204771790484,20,9,10,16,46,-25,-4,-76
1520204771790484,-22,-5,-8,4,-28,-42,31,-32
1520204771799508,29,10,11,9,105,69,-14,86
1520204771799508,17,1,6,-5,-12,29,32,-20
1520204771814548,-33,-24,-22,-25,-29,21,-20,-67
1520204771814548,-3,5,-5,3,-11,69,-26,-59
1520204771815551,-29,-23,-20,-16,-27,-38,85,-98
1520204771815551,-8,3,3,6,4,-26,-26,101
1520204771836607,-1,3,8,-7,-11,19,14,57
1520204771836607,3,-5,-2,6,1,37,-25,17
1520204771838612,10,2,-3,3,-11,-39,22,-51
1520204771838612,16,0,1,2,18,3,-7,6
1520204771850644,38,27,-1,-3,-44,11,-1,-28
1520204771850644,-7,-10,-5,-14,-24,-46,-9,93
1520204771859668,6,1,3,4,26,66,-12,-46
1520204771859668,-12,-3,3,7,-7,6,-22,-44
1520204771873705,11,0,5,2,1,-54,75,-92
1520204771873705,25,18,10,10,15,-36,-19,34
1520204771880724,-4,-4,-11,-12,-29,-17,-1,33
1520204771880724,-23,-8,-2,-2,6,27,-22,-18
1520204771896767,-8,-14,-20,-11,-6,-24,-24,59
1520204771896767,-17,-1,0,-8,-23,-36,-5,69
1520204771898773,9,0,0,4,6,-3,33,-75
1520204771898773,5,-1,-1,-3,7,11,14,57
1520204771919828,-16,-8,3,4,19,-2,-21,-93
1520204771919828,2,2,3,6,-10,-5,-8,-53
1520204771920831,25,10,1,-3,2,62,6,127
1520204771920831,-12,-3,-3,0,-6,-47,-29,-84
1520204771933865,-4,1,2,0,0,18,-5,-7
1520204771933865,7,3,0,1,8,18,14,-57
1520204771940884,29,16,12,3,-3,4,0,41
1520204771940884,2,0,1,-3,-7,18,14,56
1520204771956927,-13,-11,-3,-5,-2,-31,-3,29
1520204771956927,4,1,2,5,11,15,6,-93
1520204771958932,-27,-16,-13,-6,-12,-29,-17,-58
1520204771958932,0,6,4,4,-3,1,12,13
1520204771978986,8,5,6,1,7,-4,-20,16
1520204771978986,-3,1,0,1,4,12,18,-78
1520204771980991,-27,-8,4,7,-5,0,-4,23
1520204771980991,24,6,2,4,1,-21,-17,87
1520204771994025,6,9,-1,-5,-5,6,-2,-10
1520204771994025,2,-2,-3,2,-3,0,-1,-43
1520204772000041,-7,-6,-9,-12,-8,-8,9,5
1520204772000041,1,10,8,1,5,13,16,-29
1520204772017087,15,-4,-1,1,-1,-5,-5,31
1520204772017087,-12,-2,-2,-1,-3,-3,2,43
1520204772018090,-7,-2,-3,2,1,-10,-7,-86
1520204772018090,30,4,-4,-2,-1,1,10,19
1520204772039146,4,2,1,0,0,-5,-8,-9
1520204772039146,-12,-8,-1,2,-17,-5,3,-10
1520204772041151,-10,-6,-4,2,25,27,-10,-27
1520204772041151,-16,-4,-7,-4,-3,20,25,-46
1520204772054186,-6,1,6,3,1,-3,-15,-12
1520204772054186,-5,-4,-1,2,3,5,-5,-8
1520204772060202,-15,1,1,-1,-11,-11,-1,16
1520204772060202,33,6,-5,1,2,-3,3,28
1520204772077247,-15,-7,-4,-13,-16,17,-6,-14
1520204772077247,10,6,0,-6,11,-14,-2,37
1520204772078250,-1,1,2,6,-12,-18,-9,-56
1520204772078250,-17,-6,4,6,7,2,0,-14
1520204772090282,2,0,0,-3,-2,3,5,8
1520204772090282,15,-2,0,-4,-7,0,-11,-16
1520204772099306,-5,4,-5,-15,-11,-13,-11,-12
1520204772099306,-12,1,10,9,6,4,2,-47
1520204772114346,-26,-8,-2,7,6,-1,-8,19
1520204772114346,-2,3,-3,-9,-4,-5,2,25
1520204772120362,36,2,10,17,3,-11,-19,-45
1520204772120362,-11,-3,-12,-20,-13,3,7,23
1520204772136404,-17,-5,2,11,8,5,-8,31
1520204772136404,-11,-5,0,7,1,-12,-5,-23
1520204772138410,-19,-7,-8,-9,8,10,2,21
1520204772138410,13,-3,2,-6,-35,3,10,25
1520204772150442,0,-1,-5,4,51,6,4,29
1520204772150442,6,8,5,1,-5,5,9,35
1520204772159466,1,-7,-7,-10,-15,-12,-5,13
1520204772159466,-29,-8,-1,6,3,-8,-11,-18
1520204772174506,-7,-3,-8,-9,-7,-1,7,-6
1520204772174506,32,5,2,4,0,9,3,12
1520204772175508,-12,3,1,-7,-1,4,8,29
1520204772175508,-13,-2,0,0,1,0,-9,-13
1520204772196564,-4,-5,-8,-12,-21,-15,-6,-18
1520204772196564,-15,-6,-7,5,46,12,-4,-47
1520204772198570,23,1,9,14,-8,3,7,32
1520204772198570,-4,-7,-9,-7,4,-6,-1,18
1520204772219626,-7,6,15,12,-7,0,-2,-3
1520204772219626,0,-5,-11,-12,-13,2,4,21
1520204772220629,13,13,1,-6,3,-1,6,23
1520204772220629,-24,-2,4,6,4,-10,-22,-51
1520204772234666,24,3,-10,-13,1,4,13,31
1520204772234666,14,16,7,-2,-7,12,18,39
1520204772235668,-8,15,18,21,7,2,5,16
1520204772235668,-1,-1,-5,-4,3,-3,-1,0
1520204772264746,14,-6,-4,-4,-9,-5,2,3
1520204772264746,10,3,4,1,-3,-3,0,-6
1520204772265748,-10,-8,-3,-4,-4,2,3,-4
1520204772265748,-7,4,1,-2,5,2,7,-2
1520204772270762,-7,-3,-5,-4,-35,-6,-4,9
1520204772270762,-12,-5,4,10,39,2,-5,9
1520204772279786,5,-15,-8,-6,-14,-8,-12,-36
1520204772279786,20,-3,0,4,3,-2,3,-2
1520204772293823,-4,16,6,-1,-1,2,6,1
1520204772293823,-20,-46,-14,-7,-16,-6,-5,-12
1520204772300842,15,66,7,-7,-2,-3,-2,-13
1520204772300842,4,-10,-4,1,3,-1,0,-30
1520204772316884,20,-16,-11,-3,8,-2,-5,-15
1520204772316884,33,17,18,10,-5,6,15,25
1520204772318890,-40,4,0,-5,6,-3,-1,-14
1520204772318890,-26,-60,-12,-7,-7,-4,-10,3
1520204772338943,-34,97,37,16,15,12,17,35
1520204772338943,11,-32,-13,-6,-8,-3,-5,-10
1520204772340949,14,-16,-7,-5,-3,4,9,7
1520204772340949,-18,-35,-5,0,0,-4,-6,-48
1520204772353983,-43,42,2,1,2,-6,-8,-14
1520204772353983,42,-54,-9,-2,-7,4,0,4
1520204772359999,-29,28,-3,-8,-11,-16,-23,7
1520204772359999,39,43,-1,-2,4,8,18,10
1520204772377044,-7,-71,3,10,9,2,7,23
1520204772377044,-8,52,-16,-26,-21,-6,-6,-9
1520204772378047,-4,-34,10,10,1,0,6,-22
1520204772378047,-20,-26,-7,0,7,-1,2,-5
1520204772390079,29,-16,-2,-2,-6,0,1,-4
1520204772390079,-88,-35,-7,-2,-6,-5,-11,-20
1520204772399103,65,32,5,4,4,4,4,3
1520204772399103,-46,27,10,-2,-9,-9,-10,4
1520204772414143,-6,-80,-26,-2,2,-4,-8,-51
1520204772414143,54,24,-9,-11,-7,-6,-7,25
1520204772420159,-37,-37,-4,0,2,-2,-5,-3
1520204772420159,69,41,11,10,5,6,5,32
1520204772437204,4,21,2,-5,0,-1,2,10
1520204772437204,-50,-12,3,2,-2,0,-6,-39
1520204772438207,-43,18,-8,3,2,-7,-16,-37
1520204772438207,36,-5,-13,-7,-6,0,8,54
1520204772450239,24,-54,-17,-6,-2,-5,-2,24
1520204772450239,-24,8,14,10,6,7,6,-5
1520204772459263,62,18,-3,-3,-1,4,9,19
1520204772459263,-67,-2,10,-2,1,5,10,1
1520204772473300,30,31,7,5,3,0,-9,-21
1520204772473300,88,-16,-6,-7,-6,-4,-5,13
1520204772480319,6,-35,4,7,8,7,11,2
1520204772480319,-8,-78,-18,-4,1,3,-1,-5
1520204772496362,-35,0,9,-2,-3,-3,-4,-25
1520204772496362,-66,24,14,7,6,-7,-11,-6
1520204772498367,18,-85,-18,-4,-3,5,12,54
1520204772498367,98,-79,-24,-5,-3,-9,-18,12
1520204772519423,87,81,30,13,2,2,0,-19
1520204772519423,-114,-66,-19,-2,-4,-3,-7,-38
1520204772521429,-20,-37,-18,-12,-10,-13,-19,-5
1520204772521429,25,31,8,1,-2,0,1,8
1520204772533460,-49,59,11,0,-1,-2,-7,-14
1520204772533460,96,-41,-1,3,4,2,-2,-14
1520204772540479,-24,-6,1,0,5,4,14,36
1520204772540479,-10,-42,-5,-12,-24,-17,-7,1
1520204772556522,-104,44,0,-2,11,-4,-7,-31
1520204772556522,60,-53,-14,-1,6,5,11,0
1520204772558528,-17,47,24,15,8,5,0,-25
1520204772558528,91,97,28,2,1,4,-4,-2
1520204772580586,4,-78,-12,-5,-3,3,11,19
1520204772580586,-79,-23,-10,-8,-7,-8,-10,-23
1520204772582591,77,-25,-17,-5,2,0,2,-15
1520204772582591,-6,19,4,7,6,6,-2,-2
1520204772593620,-33,40,24,1,-8,3,7,1
1520204772593620,-51,44,18,5,8,-4,4,-7
1520204772600639,56,0,-23,-19,-21,-11,-18,1
1520204772600639,41,-95,-39,-13,-3,-2,-3,-29
1520204772616682,-26,-20,30,30,17,6,9,29
1520204772616682,55,90,34,5,-3,14,20,16
1520204772618687,-56,2,10,3,-4,12,3,-40
1520204772618687,12,-19,-23,-10,-1,-21,-15,9
1520204772639743,2,-51,-26,-6,-4,3,0,-17
1520204772639743,79,-99,-46,-16,-8,-5,-12,-2
1520204772640746,-116,49,42,20,12,9,18,12
1520204772640746,-1,36,13,2,2,5,-6,0
1520204772653781,-13,-45,-26,-13,-6,-7,-11,4
1520204772653781,57,81,22,5,-3,-1,-2,-6
1520204772660799,52,-106,-32,-10,2,-6,-2,-21
1520204772660799,-102,1,15,13,4,5,11,-11
1520204772676842,107,-100,-42,-17,-6,-8,-7,-12
1520204772676842,-61,53,9,4,1,3,3,42
1520204772678848,77,-58,-29,-15,-9,-2,1,26
1520204772678848,-70,114,51,21,11,14,21,-26
1520204772698901,50,-34,-15,-10,-8,-1,-7,8
1520204772698901,-38,-56,1,2,-5,-4,-3,-10
1520204772700906,-2,-34,-12,-6,2,-12,-15,-6
1520204772700906,-93,-21,-10,2,7,6,7,-20
1520204772713941,37,-42,-24,-20,-16,-6,-9,0
1520204772713941,-4,34,19,17,13,18,13,7
1520204772720959,-20,45,13,-2,-10,-13,-2,23
1520204772720959,-21,65,7,4,2,-11,-10,-15
1520204772737002,10,-61,-34,-8,3,-5,-15,-22
1520204772737002,-112,105,30,-1,-2,5,6,17
1520204772738005,68,-79,2,0,-16,0,2,-1
1520204772738005,10,-37,-32,-11,6,-1,5,9
1520204772761066,24,95,34,14,8,1,-7,1
1520204772761066,35,-28,-9,-3,-8,-10,-4,31
1520204772762069,-44,-5,-14,-1,10,18,-13,4
1520204772762069,-3,-121,-2,-10,-17,-29,-4,-24
1520204772773098,-7,39,25,19,10,11,12,-13
1520204772773098,-63,-64,-14,-1,15,38,1,-52
1520204772782122,80,127,32,13,-11,-43,2,46
1520204772782122,-51,-56,-33,-30,-11,-9,-2,19
1520204772797162,-53,-38,10,19,-9,-5,-6,-29
1520204772797162,47,-31,-32,-7,10,1,3,-15
1520204772798165,-41,-67,3,-8,-33,1,-8,15
1520204772798165,58,127,51,41,22,24,0,-6
1520204772819221,12,-10,-16,-18,-7,-18,-8,14
1520204772819221,11,85,42,23,18,6,2,-10
1520204772821226,-23,-37,-58,-33,-9,-6,-6,37
1520204772821226,-85,-39,-7,-13,-10,-7,-1,-13
1520204772833258,-34,-3,-20,-19,-3,8,1,1
1520204772833258,51,0,8,-6,-6,-13,-6,19
1520204772842282,-55,9,32,23,31,14,6,-82
1520204772842282,126,74,14,15,-15,-3,-11,62
1520204772856319,-107,-75,-11,-25,28,12,19,-28
1520204772856319,-3,-12,18,32,0,-6,1,8
1520204772863338,33,17,-2,-4,23,10,4,-46
1520204772863338,-3,4,17,15,-4,2,-4,1
1520204772879381,14,0,-27,-30,-1,0,2,26
1520204772879381,-10,-6,10,15,-23,-21,-8,33
1520204772881387,-37,6,-17,-34,7,6,8,-20
1520204772881387,49,9,-6,-47,8,3,-7,-16
1520204772893418,-16,18,35,72,-4,-3,6,11
1520204772893418,-19,-45,-27,-41,0,-4,1,-10
1520204772902442,26,16,9,34,-25,-6,-6,18
1520204772902442,-21,-20,-25,-35,18,24,2,-1
1520204772916479,18,14,2,-18,-75,-54,-10,2
1520204772916479,-43,-80,-5,-26,-3,-8,-12,-23
1520204772918485,-6,21,-1,37,82,37,19,-16
1520204772918485,-23,-33,-10,32,2,-25,-4,14
1520204772939541,25,50,13,-37,-19,24,18,2
1520204772939541,-24,-35,-7,-17,-51,-2,25,7
1520204772940544,10,37,21,-3,3,-21,-58,7
1520204772940544,-21,-25,-3,23,-111,-30,-36,-15
1520204772952575,39,24,0,72,118,109,98,-36
1520204772952575,65,41,20,32,43,-52,8,-17
1520204772961599,-22,-3,-6,-77,-106,-37,-10,6
1520204772961599,-13,-12,-4,10,29,-14,-66,-4
1520204772976639,-15,2,3,43,32,-11,-21,9
1520204772976639,-33,-4,-39,-48,-93,-15,2,37
1520204772978645,-11,-7,-3,-46,49,-17,-36,-27
1520204772978645,48,14,21,41,31,-18,82,-48
1520204772999701,10,1,-13,-55,-104,-29,-60,-19
1520204772999701,33,19,9,29,5,89,81,-1
1520204773001707,-41,-7,4,-47,-127,-75,-32,13
1520204773001707,-26,-13,-12,-14,-6,-7,-19,19
1520204773012735,15,6,2,37,105,-25,2,-22
1520204773012735,9,3,-12,-4,5,42,-21,-8
1520204773021760,-28,-9,-5,-50,-8,-32,16,10
1520204773021760,22,17,16,7,-8,-6,26,-8
1520204773036799,9,20,11,-6,-44,6,-29,33
1520204773036799,-22,-8,-13,3,-4,-43,-20,16
1520204773038805,5,3,6,105,127,127,80,-5
1520204773038805,26,14,12,18,17,-50,-14,-13
1520204773058858,-8,-8,-1,-45,-57,-52,-28,45
1520204773058858,-37,-21,0,-4,-15,18,22,2
1520204773060864,13,13,-17,-10,5,-30,-46,-6
1520204773060864,-49,-24,8,21,-29,127,31,23
1520204773072895,-11,-16,-5,-11,9,-22,-29,1
1520204773072895,40,23,8,7,60,-74,-42,-32
1520204773081920,9,0,4,11,-9,4,41,-9
1520204773081920,-19,-13,1,-6,-10,12,2,55
1520204773096959,-13,10,0,-8,-39,70,-23,11
1520204773096959,12,3,-1,-3,12,-52,-95,-25
1520204773098965,2,-14,4,23,26,100,71,-22
1520204773098965,62,64,3,-42,-25,-126,60,-42
1520204773119018,-20,-19,-9,-13,-64,-16,6,-12
1520204773119018,13,3,3,10,28,67,13,-18
1520204773121024,2,-5,13,15,-63,-32,-44,-37
1520204773121024,-34,-25,-16,-19,52,46,-76,-9
1520204773142079,-7,-25,-5,9,28,56,74,-13
1520204773142079,3,30,-23,-39,-66,66,9,60
1520204773143082,-11,-2,-5,2,-85,-83,-49,37
1520204773143082,26,7,10,17,29,127,18,66
1520204773157119,-9,0,10,0,63,-128,8,61
1520204773157119,-7,-6,6,12,-45,-27,62,45
1520204773158122,-34,-16,-16,-20,-34,32,47,31
1520204773158122,-11,-5,-17,-13,8,-113,10,-36
1520204773179178,-10,-12,-4,-7,-78,16,-112,-4
1520204773179178,-2,-19,8,16,50,8,95,-83
1520204773181184,13,43,4,-1,-9,-75,-3,-14
1520204773181184,-16,-34,-17,-35,-43,-19,-14,-1
1520204773193215,-8,-11,-5,10,16,62,-82,51
1520204773193215,-1,6,17,-14,6,-49,17,-38
1520204773202240,6,-23,-21,-56,-68,91,-82,-9
1520204773202240,27,19,23,73,108,18,53,-20
1520204773217279,10,16,3,-51,-80,-54,-11,31
1520204773217279,13,10,19,86,92,116,16,20
1520204773218283,-26,-18,2,-17,-23,44,23,26
1520204773218283,7,9,10,0,27,14,2,-90
1520204773239338,73,27,2,15,25,29,126,-89
1520204773239338,-30,-11,-11,-31,-47,23,-69,-33
1520204773241344,46,30,13,-7,27,-14,116,54
1520204773241344,-30,-24,-15,37,-8,-23,-2,4
1520204773253376,-18,1,-4,-64,-9,-36,31,-58
1520204773253376,27,6,-1,57,49,2,-19,8
1520204773262400,-27,-13,-3,23,-42,-21,-47,-8
1520204773262400,-20,-9,-11,-20,43,77,37,-86
1520204773276437,21,13,14,23,19,39,-56,69
1520204773276437,-42,-26,-17,-37,-77,-70,-98,25
1520204773278443,-21,-6,9,8,-12,20,-35,40
1520204773278443,38,3,-11,-4,41,72,58,-40
1520204773299498,14,17,19,24,78,-11,87,-56
1520204773299498,0,-10,-8,15,7,23,-50,-49
1520204773301504,14,7,-10,1,9,24,-106,64
1520204773301504,-11,-2,0,-60,-1,-44,29,-38
1520204773312533,-31,-17,-17,1,-24,-17,42,-127
1520204773312533,-27,-13,-17,-43,-55,-55,-101,111
1520204773321557,16,10,14,6,16,-58,127,-107
1520204773321557,-51,-29,-16,-4,-94,-78,-115,102
1520204773336597,14,12,1,-16,-21,-70,-10,-14
1520204773336597,-5,-4,-3,29,2,-32,49,-84
1520204773338602,-5,-18,-16,1,18,-6,4,55
1520204773338602,-8,4,5,-6,-11,23,-41,31
1520204773359658,-6,-6,0,26,25,-9,-51,-13
1520204773359658,11,-1,-7,-42,-13,-1,-10,-16
1520204773360661,12,2,11,29,51,29,-20,-63
1520204773360661,47,15,0,-5,-10,-33,43,102
1520204773372693,-3,-4,4,-11,-45,-55,-1,-67
1520204773372693,37,35,10,-8,20,86,81,-9
1520204773381717,-7,1,7,29,50,-64,-72,-77
1520204773381717,-12,-5,-1,-13,-46,26,-16,-2
1520204773395754,-35,-17,-4,21,18,99,35,65
1520204773395754,15,12,8,-6,-10,-86,-39,25
1520204773402773,-2,-4,-1,6,43,25,12,23
1520204773402773,-18,-1,-1,-1,-14,94,-5,52
1520204773419818,-9,0,-3,2,-9,29,-6,35
1520204773419818,72,36,17,0,33,-13,20,-81
1520204773420821,-34,-26,-8,11,31,-25,-10,127
1520204773420821,39,9,5,-8,-29,-89,5,-128
1520204773432853,-23,4,11,-16,6,73,-28,29
1520204773432853,28,4,-8,43,29,-9,5,-48
1520204773441877,-44,-6,2,-6,-6,7,16,-118
1520204773441877,1,-12,-10,1,0,-10,1,20
1520204773455914,17,4,-6,-4,2,-36,-5,74
1520204773455914,-70,-40,-9,-24,-17,5,33,-45
1520204773462933,121,70,9,-8,-4,8,21,26
1520204773462933,-106,-35,7,18,1,-15,-32,-36
1520204773478976,-51,-31,-14,1,-4,48,10,-100
1520204773478976,48,28,3,-10,-7,-37,-26,122
1520204773480981,-48,-27,4,12,19,23,22,-77
1520204773480981,10,2,-6,-11,-7,-20,-22,2
1520204773502037,5,0,-2,6,1,-34,1,15
1520204773502037,-52,-21,-5,3,8,29,3,-51
1520204773503040,22,9,-2,0,0,-17,-1,-12
1520204773503040,19,14,-1,-16,-15,6,2,116
1520204773524096,12,-3,-2,8,-1,-43,-26,-25
1520204773524096,7,5,-4,-13,-11,44,-1,40
1520204773526101,-22,-6,6,2,21,33,37,32
1520204773526101,-15,-4,5,-2,-5,27,7,-91
1520204773539136,52,15,5,14,11,3,-22,10
1520204773539136,-15,-6,-1,-10,-11,-27,1,33
1520204773541141,27,16,-4,-12,-15,-8,-19,-21
1520204773541141,-29,-15,-3,11,1,-15,-6,-43
1520204773562197,16,10,-2,2,8,8,8,13
1520204773562197,-17,-10,-3,-8,-9,-9,-10,-38
1520204773563200,-23,-17,-1,5,-4,-15,-8,-5
1520204773563200,-3,4,2,0,1,-4,0,-14
1520204773576234,76,30,6,-1,-10,-9,-6,13
1520204773576234,-75,-22,1,3,0,-5,-4,-16
1520204773583253,20,-2,-5,2,-1,-6,-4,-6
1520204773583253,22,16,5,-8,-10,-7,-2,32
1520204773599296,-49,-21,-2,5,-1,-27,-7,-15
1520204773599296,40,11,1,-4,4,1,6,-11
1520204773601302,-14,-9,2,1,1,1,-4,7
1520204773601302,-4,-2,-6,4,4,-2,-10,-24
1520204773622357,5,-1,-8,-5,0,12,15,75
1520204773622357,-5,-2,-5,-8,-8,-11,-5,25
1520204773623360,-10,-6,-2,-2,-17,-11,-15,-10
1520204773623360,14,-6,-6,0,7,-1,-14,-13
1520204773636394,-2,3,2,3,2,5,15,-19
1520204773636394,-32,-12,-6,-6,-10,-4,0,24
1520204773643413,44,7,0,1,0,-4,4,29
1520204773643413,9,0,-4,-11,-12,-1,11,-7
1520204773659456,-24,-3,8,8,7,-1,-14,-30
1520204773659456,-10,-2,0,0,-4,-5,5,-21
1520204773661461,1,3,-7,-9,-7,5,-4,-13
1520204773661461,-21,-6,1,8,-1,-3,-2,-25
1520204773682517,18,6,-5,-8,1,6,11,18
1520204773682517,14,1,2,-3,-4,7,11,16
1520204773688533,-11,-1,4,10,7,5,3,-13
1520204773688533,6,4,-8,-12,-6,-6,-4,20
1520204773696554,-7,-4,1,2,-1,3,-4,-14
1520204773696554,-10,-3,-5,0,-4,-12,-15,-18
1520204773702570,-5,-7,1,11,7,2,5,-4
1520204773702570,6,4,-3,-4,0,10,1,12
1520204773719616,-26,-9,-5,-5,-7,-6,-10,-12
1520204773719616,35,12,6,0,7,9,11,0
1520204773720619,-25,-11,3,1,-2,-9,-24,-39
1520204773720619,3,5,1,5,-1,-2,-5,6
1520204773741675,-18,-16,-12,-13,-9,-9,-11,-25
1520204773741675,37,6,3,8,6,3,6,12
1520204773743680,-16,3,-8,-13,-3,7,14,19
1520204773743680,-18,5,17,10,-2,-10,-20,3
1520204773755712,-11,-1,-5,4,4,2,6,-11
1520204773755712,40,7,-3,-5,0,5,9,15
1520204773764736,-3,-4,0,-5,-9,-5,-10,-1
1520204773764736,-6,-11,-3,1,-1,-1,5,-8
1520204773779776,10,4,1,-2,3,6,11,-6
1520204773779776,-7,7,5,0,1,0,-7,-22
1520204773780779,7,-4,-7,-1,-1,4,12,21
1520204773780779,31,4,-9,-13,-7,-4,0,6
1520204773801835,-27,-21,-1,-1,-4,-11,-25,-58
1520204773801835,-1,5,2,6,4,0,3,-16
1520204773803840,27,-23,-11,-9,-2,1,-2,-11
1520204773803840,7,7,1,3,-2,-8,-24,-20
1520204773815872,-25,13,2,1,1,7,21,37
1520204773815872,-1,5,-3,-8,-5,2,6,3
1520204773824896,-7,18,11,9,3,-4,-12,-27
1520204773824896,-20,-5,2,3,2,6,15,-20
1520204773838933,8,-29,-14,-11,-5,-3,-8,6
1520204773838933,-16,-18,-1,3,-1,-4,-6,38
1520204773840939,-8,-30,-9,0,-1,2,3,-3
1520204773840939,13,0,-5,-7,-1,2,1,-1
1520204773861994,22,20,8,2,3,2,7,32
1520204773861994,6,5,-9,-8,-3,-4,-9,-14
1520204773864000,-41,15,18,8,6,7,19,32
1520204773864000,31,-60,-24,-14,-9,-2,1,-20
1520204773875029,-23,28,20,18,8,3,1,-44
1520204773875029,40,-45,-25,-7,-4,-1,-11,-25
1520204773884053,24,39,12,5,5,7,14,41
1520204773884053,-18,-5,4,3,0,-2,-3,-9
1520204773899093,77,-31,-21,-15,-10,-4,-2,74
1520204773899093,-38,-28,11,4,0,-5,-9,-11
1520204773901099,-5,16,-16,-3,7,4,-14,-63
1520204773901099,-48,-27,1,1,-8,3,33,99
1520204773929173,-78,-2,30,17,-10,9,12,15
1520204773929173,23,88,19,10,23,-5,7,-2
1520204773931179,49,-89,-20,-3,-11,-7,-22,-48
1520204773931179,5,-23,-28,-14,1,-5,-12,-15
1520204773935189,-17,-83,-14,-2,3,9,15,23
1520204773935189,-93,93,3,-21,-15,-3,8,53
1520204773944213,39,-50,12,17,11,5,9,-51
1520204773944213,77,-10,-15,-14,-11,-5,1,47
1520204773967275,56,-52,-11,-2,4,0,1,-7
1520204773967275,-65,76,32,12,8,2,-8,-32
1520204773968278,58,23,-19,-9,-25,-5,-2,47
1520204773968278,-82,61,33,6,-2,-3,7,-2
1520204773982315,32,31,-1,10,10,2,1,-11
1520204773982315,-33,-102,-19,-5,0,6,7,-6
1520204773983318,-33,-72,-22,-17,4,-1,-7,39
1520204773983318,-70,70,38,28,26,-1,-31,-81
1520204773995349,-16,35,6,0,-13,-16,0,-26
1520204773995349,20,-123,-49,-27,-19,-7,-2,78
1520204774004373,-92,120,52,17,7,-1,-4,-36
1520204774004373,-19,-38,-11,-11,-7,3,2,-37
1520204774019413,63,97,6,5,13,-3,-17,34
1520204774019413,-59,-74,-9,1,-7,-3,-1,-8
1520204774021419,55,40,9,-1,-1,1,4,14
1520204774021419,26,6,-1,12,17,11,7,-8
1520204774041472,91,51,14,2,-10,-6,-5,-36
1520204774041472,-51,-30,-6,-5,-8,3,12,-10
1520204774043478,-54,-45,-14,-10,-5,-4,-3,-26
1520204774043478,74,111,20,9,4,-2,-4,40
1520204774055510,-99,-63,-2,4,5,4,10,-26
1520204774055510,44,-10,6,-2,-6,2,-3,-31
1520204774064533,-87,0,-7,2,5,-3,0,3
1520204774064533,39,-36,-6,-10,-7,-1,-2,-13
1520204774079573,-98,-20,-8,-6,3,-1,-3,-51
1520204774079573,60,16,-9,0,29,7,-5,100
1520204774080577,20,17,11,-2,-37,-23,-3,-12
1520204774080577,-42,-21,-7,-4,-13,-5,0,-11
1520204774101632,9,-6,-5,-7,-22,-15,-7,4
1520204774101632,20,-10,6,21,28,16,-1,-96
1520204774103638,-68,-27,-14,-18,-1,-6,-2,1
1520204774103638,79,-39,-20,-14,-7,0,9,86
1520204774115669,15,13,16,-3,6,9,10,-24
1520204774115669,-3,39,15,19,10,5,-2,-37
1520204774124694,21,-4,-9,-3,-4,-6,-4,24
1520204774124694,13,16,13,13,6,11,6,-24
1520204774139733,-54,-45,-36,-24,-18,-20,-17,46
1520204774139733,38,29,8,2,-15,0,12,6
1520204774145749,-21,4,4,2,28,36,-6,4
1520204774145749,-3,-28,-5,0,6,-47,-12,-28
1520204774161792,21,11,12,11,13,7,6,-52
1520204774161792,31,-12,-12,-16,-28,-12,-2,32
1520204774163798,101,-30,-2,-1,8,6,3,23
1520204774163798,-45,-34,-21,-6,54,73,0,21
1520204774175829,-41,-10,4,2,-42,-81,-10,-33
1520204774175829,-19,4,13,16,1,0,-2,-52
1520204774184854,90,33,-8,-7,-24,-24,7,30
1520204774184854,-86,-43,1,-3,7,29,3,11
1520204774198891,75,32,3,0,13,-5,-5,-25
1520204774198891,40,21,9,-9,-11,6,10,26
1520204774200897,-22,-42,-9,13,-3,14,-14,-45
1520204774200897,-6,-13,-12,-12,-20,-48,2,38
1520204774221952,-72,25,8,12,28,27,13,-11
1520204774221952,-15,31,4,-10,-22,-8,2,46
1520204774223958,0,69,33,12,11,11,7,19
1520204774223958,13,-9,-3,-2,-22,-14,-15,9
1520204774235989,29,-29,0,5,7,22,-2,-33
1520204774235989,-46,1,-16,-8,6,-15,-6,62
1520204774245014,-3,-6,2,-2,3,3,5,-4
1520204774245014,-6,-20,-3,13,9,11,-1,-73
1520204774261056,50,30,6,-13,-5,1,4,54
1520204774261056,-31,20,5,5,-12,-10,-8,-40
1520204774266069,64,-10,-15,-9,-5,-12,0,39
1520204774266069,-43,9,10,9,3,7,10,-20
1520204774282112,-78,4,1,-1,8,11,-2,-68
1520204774282112,41,45,10,-3,-3,1,6,7
1520204774283115,-61,-51,6,1,7,-5,3,-17
1520204774283115,-62,31,6,6,-1,6,5,25
1520204774295147,19,10,2,2,-8,13,-4,42
1520204774295147,-37,-37,-11,-2,10,-9,-10,-45
1520204774304171,55,6,-18,-2,15,20,-1,-5
1520204774304171,98,25,51,3,-20,-33,-9,-59
1520204774319211,24,-7,-12,-4,-5,14,2,96
1520204774319211,36,-22,3,6,4,-12,1,-58
1520204774321216,-23,5,-12,-7,-7,1,0,19
1520204774321216,7,-13,-8,-8,-2,2,-3,-15
1520204774342272,-30,-5,-8,2,2,-3,-6,9
1520204774342272,61,-6,0,-3,1,12,-1,17
1520204774343275,-49,-4,1,5,2,1,2,-28
1520204774343275,10,16,-23,-6,1,-19,-6,34
1520204774355307,-4,-9,17,5,11,19,6,-11
1520204774355307,34,18,-2,4,7,10,-1,21
1520204774364331,-20,5,5,-14,-37,-52,-4,-12
1520204774364331,-8,8,-2,6,5,8,7,-1
1520204774378368,15,-18,-6,-1,1,5,-7,7
1520204774378368,-24,-35,-25,-18,-8,-7,-5,-10
1520204774385387,-32,0,-3,4,11,23,-5,4
1520204774385387,9,1,-4,1,-5,-5,-2,5
1520204774401430,-6,-25,-38,-19,-6,-8,0,4
1520204774401430,-7,10,23,-36,23,17,4,-14
1520204774403435,43,43,59,64,-13,1,10,7
1520204774403435,-39,-29,-16,-6,-2,0,-2,0
1520204774424491,24,12,-11,-11,-3,-2,-2,5
1520204774424491,-16,-21,-18,-3,8,40,-4,2
1520204774430507,-23,-16,-1,-10,0,-66,0,-9
1520204774430507,36,13,6,27,18,64,7,9
1520204774438528,-12,-3,-1,3,-31,-79,-6,4
1520204774438528,4,-15,-1,14,6,-11,-2,-5
1520204774445547,-16,-7,-17,-26,-4,19,3,-20
1520204774445547,8,9,7,6,-26,13,-4,10
1520204774461590,6,-1,-12,-32,-8,-19,4,18
1520204774461590,-22,-9,-6,-17,-52,-10,-7,3
1520204774463595,-6,0,0,39,27,-3,-4,0
1520204774463595,35,12,8,34,98,14,23,-19
1520204774484651,-42,-34,-11,-21,1,26,-8,-9
1520204774484651,67,47,41,19,-47,-49,-6,11
1520204774485654,-30,-35,-32,-64,-1,23,11,8
1520204774485654,-9,-7,-8,29,-1,-5,-9,13
1520204774498688,14,17,9,-9,7,27,4,-23
1520204774498688,-25,-19,-21,17,-13,-13,-13,2
1520204774505707,12,8,-11,-53,-11,-59,1,9
1520204774505707,0,-8,8,10,18,20,4,-41
1520204774521750,32,20,10,1,3,15,7,20
1520204774521750,-14,-14,-16,-48,1,17,1,-17
1520204774523755,-2,5,22,85,-5,15,-10,5
1520204774523755,-22,-11,-11,-29,-12,27,-6,16
1520204774544811,22,7,4,-4,-12,-82,0,-3
1520204774544811,12,8,12,44,67,18,-7,-1
1520204774545814,-11,-14,-4,-17,17,22,11,-31
1520204774545814,-15,9,9,-8,-17,-18,3,12
1520204774559851,-7,-11,-10,15,24,45,9,23
1520204774559851,1,6,11,2,-39,-13,-1,3
1520204774560854,5,0,11,28,0,-33,2,-12
1520204774560854,-4,-6,-9,-1,-21,28,2,-11
1520204774581910,6,-3,-8,-19,23,20,-1,-35
1520204774581910,9,22,13,2,-17,-60,-3,0
1520204774583915,9,6,-3,4,12,44,5,-16
1520204774583915,-12,-12,-10,-36,-21,1,-28,28
1520204774603968,-9,-3,4,39,1,37,26,-18
1520204774603968,7,-5,-4,2,22,7,8,-16
1520204774605974,-58,-29,-27,-60,-22,-17,-25,-29
1520204774605974,78,61,-5,-46,-9,-27,-26,75
1520204774619008,4,-13,14,80,57,0,6,-25
1520204774619008,1,-9,5,41,23,1,28,-30
1520204774625024,-15,-21,-9,-8,-14,20,8,6
1520204774625024,31,32,5,-10,-18,-49,-20,9
1520204774642070,-46,-17,-11,-42,-28,-8,-31,-58
1520204774642070,6,5,-2,-3,5,55,6,44
1520204774643073,2,1,1,6,-10,-17,-5,-12
1520204774643073,-18,-22,-10,-20,-8,31,32,-20
1520204774664128,21,14,-9,-16,-3,36,-15,-13
1520204774664128,-13,-7,24,20,-65,-96,-63,9
1520204774666134,30,22,11,9,31,111,38,4
1520204774666134,-16,-10,-3,11,-10,-34,54,-49
1520204774678165,-5,-10,3,2,23,-87,-35,45
1520204774678165,-12,1,6,71,105,109,-36,-14
1520204774687190,26,4,-16,-24,-75,-79,-2,58
1520204774687190,-51,-37,-1,6,-80,-9,-40,-22
1520204774702230,37,45,16,-15,35,82,77,43
1520204774702230,-26,-17,-9,-38,-9,-47,-20,8
1520204774703233,-16,2,-16,-2,-9,10,-110,38
1520204774703233,-13,-14,4,17,-5,42,22,9
1520204774724288,-19,-24,-9,-12,-6,-2,25,50
1520204774724288,-1,-3,-5,-21,-12,-60,51,-44
1520204774726294,-26,-4,-27,-46,-41,50,-5,26
1520204774726294,56,16,25,66,69,-36,-78,-29
1520204774738326,39,36,29,29,-111,-33,18,-59
1520204774738326,2,-7,-13,-10,120,-23,-35,-52
1520204774747350,18,2,12,-8,-29,-75,112,-63
1520204774747350,-38,-18,-20,-31,43,-60,-128,34
1520204774763392,19,4,11,9,59,-2,-28,10
1520204774763392,-43,-17,-31,-83,-128,-44,43,16
1520204774765398,49,25,32,78,124,6,16,-103
1520204774765398,34,35,34,49,29,-27,4,-3
1520204774784449,5,-2,-10,9,-96,32,-79,-23
1520204774784449,-26,-23,-29,-103,-70,8,42,15
1520204774786454,-12,10,24,32,79,-44,-61,-94
1520204774786454,-13,-12,-7,18,-39,-15,82,70
1520204774798486,12,1,2,-76,-28,-11,-39,4
1520204774798486,-27,-12,-8,85,14,127,-12,38
1520204774807510,11,-1,3,11,23,43,-4,5
1520204774807510,14,-4,-12,-41,-9,-8,51,-18
1520204774821547,-24,-5,-3,4,16,1,-10,76
1520204774821547,17,1,0,-18,-20,18,-18,10
1520204774823553,-21,-12,-16,-21,-22,89,40,67
1520204774823553,0,-5,-2,-9,5,20,15,-31
1520204774844608,-13,-13,-7,-2,2,9,-4,-36
1520204774844608,5,1,10,25,12,-43,0,-45
1520204774845611,21,15,-9,-25,-18,3,12,88
1520204774845611,-16,-8,-3,-9,-64,-62,3,-31
1520204774857643,-22,-13,-3,12,18,71,81,7
1520204774857643,69,34,4,9,55,-29,9,-15
1520204774866667,-44,-25,-8,-27,-77,7,-49,37
1520204774866667,0,11,9,-13,-14,93,-15,-44
1520204774881707,19,9,5,13,17,-29,-6,40
1520204774881707,-14,-15,-8,0,-9,6,-13,-34
1520204774883713,-10,-9,-3,-5,6,-20,-6,-8
1520204774883713,21,16,-5,-11,-5,13,12,33
1520204774904769,7,3,-3,1,-27,-128,-32,-1
1520204774904769,-9,-5,4,-2,9,53,22,5
1520204774905771,2,6,-1,6,15,-19,-9,18
1520204774905771,-35,-24,-9,0,18,13,23,-28
1520204774917803,-15,-16,-4,6,-7,1,13,-1
1520204774917803,40,26,3,0,-12,15,-16,68
1520204774926828,-7,-2,2,5,-3,7,6,31
1520204774926828,-12,-12,-6,-4,12,-9,18,13
1520204774941867,-50,-24,-8,-8,-81,84,-19,5
1520204774941867,67,28,3,5,53,-73,-19,-63
1520204774943873,5,-1,3,-1,-32,-25,2,2
1520204774943873,28,14,9,-3,12,1,19,-6
1520204774963926,-7,-2,-5,-1,-43,-44,-10,-14
1520204774963926,-38,-19,0,8,-3,30,1,-12
1520204774965931,-20,-16,-14,-7,-15,-20,3,-12
1520204774965931,20,10,0,-3,-1,4,-12,10
1520204774977963,13,2,-2,2,23,-11,-2,-19
1520204774977963,-37,-14,-1,0,-27,15,15,22
1520204774986988,6,4,3,4,18,-27,-28,-19
1520204774986988,-18,-13,4,7,-1,-3,-1,-7
1520204775002027,-20,-6,-1,5,32,9,14,-24
1520204775002027,41,25,4,0,-6,18,8,56
1520204775003030,24,10,4,3,-9,-20,-9,-20
1520204775003030,-31,-15,-3,-3,10,-1,6,-24
1520204775024086,24,7,7,1,16,17,-13,20
1520204775024086,-21,-4,2,5,-4,19,10,-13
1520204775030102,5,-2,2,-6,-20,-15,-14,-4
1520204775030102,13,5,-8,-10,-22,-7,-2,21
1520204775038123,3,4,-2,3,17,11,-24,-1
1520204775038123,-17,-14,2,-1,-22,-11,7,-14
1520204775047147,5,4,0,8,15,32,-3,-7
1520204775047147,-3,1,-4,-6,-14,7,-7,7
1520204775063190,-11,-11,-2,3,6,-4,9,2
1520204775063190,-2,-7,-1,-5,-13,-19,-7,14
1520204775065196,27,15,1,6,18,16,15,-37
1520204775065196,-7,-10,-8,-7,-13,-28,-6,28
1520204775084246,-31,-3,7,9,31,24,28,12
1520204775084246,25,-2,-4,2,-4,-24,-18,-13
1520204775086252,-20,1,1,-4,0,-3,5,-8
1520204775086252,-5,-7,-3,0,4,20,-6,0
1520204775098283,2,0,-3,-2,-17,-16,7,6
1520204775098283,-13,-1,-4,-4,18,30,4,2
1520204775107308,-13,-11,4,6,3,-10,-4,-17
1520204775107308,-8,-4,-13,-13,-33,13,0,3
1520204775121344,16,13,3,-5,55,14,23,12
1520204775121344,-33,-9,3,13,3,15,-10,-20
1520204775128363,40,9,-2,-4,5,8,17,37
1520204775128363,11,2,-4,-6,-22,-10,9,11
1520204775144406,-25,-13,-7,-2,-8,-26,-30,-43
1520204775144406,-10,-1,-5,-4,-4,-5,5,5
1520204775146412,-7,-4,1,8,3,15,-2,21
1520204775146412,4,8,8,1,30,2,-6,-36
1520204775158443,-16,2,1,7,-5,8,8,0
1520204775158443,33,-8,-5,-3,-13,-10,-13,-17
1520204775174486,-22,-20,-17,0,-2,15,9,12
1520204775174486,3,9,3,-7,-34,-49,0,4
1520204775181505,2,-9,14,28,53,8,-14,-20
1520204775181505,-15,-5,0,4,14,-4,-5,-5
1520204775183510,3,1,-5,-13,-13,-6,7,12
1520204775183510,2,0,-2,-3,-1,8,-5,9
1520204775204566,13,2,-9,-6,-13,0,10,25
1520204775204566,9,8,-4,-6,-17,4,9,6
1520204775205569,-12,0,5,-4,3,-2,-9,1
1520204775205569,4,4,2,9,21,4,-2,19
1520204775217601,3,2,-8,-19,-29,2,16,17
1520204775217601,2,4,11,9,-5,-4,-3,9
1520204775226625,-10,6,2,-3,17,-3,1,-13
1520204775226625,5,2,6,0,12,14,8,16
1520204775241665,18,-2,-6,-3,-26,-14,0,19
1520204775241665,-9,8,-6,-17,-23,-21,-5,10
1520204775243670,0,6,20,21,28,1,-13,-37
1520204775243670,-4,-10,-5,-2,-2,6,1,-19
1520204775264726,26,3,1,-2,-9,-6,-10,-4
1520204775264726,9,2,3,-3,-12,11,16,-3
1520204775265729,-30,-8,-5,-10,-24,-20,-22,9
1520204775265729,-10,-1,0,3,14,-1,3,-15
1520204775277761,-53,-4,-4,-6,-11,3,-3,-10
1520204775277761,-12,-3,-1,0,4,-5,-16,-22
1520204775286785,82,0,-8,-5,-1,1,21,40
1520204775286785,-14,32,13,-1,-1,5,7,14
1520204775300822,-4,-14,1,1,-20,-4,-10,-17
1520204775300822,5,23,12,26,75,35,23,-34
1520204775307841,-20,-14,-1,-4,-15,0,5,16
1520204775307841,-43,-27,-5,4,-6,-24,-41,-29
1520204775324886,41,28,2,-3,-21,2,-1,-5
1520204775324886,31,3,-11,-15,-10,-4,7,71
1520204775325889,-3,1,6,7,1,-3,-6,-37
1520204775325889,-35,-11,0,4,5,11,9,-53
1520204775337921,72,-1,-7,-10,16,5,16,49
1520204775337921,-56,11,8,1,-16,-14,-19,2
1520204775354966,-25,-8,1,2,3,1,9,-20
1520204775354966,24,-4,-8,-12,-7,-1,-2,-1
1520204775360982,-38,-4,2,10,9,-5,-10,-77
1520204775360982,85,5,-10,-9,-9,-2,11,52
1520204775368001,-33,-3,-7,-15,-23,-2,6,11
1520204775368001,-51,12,11,13,18,2,-2,-27
1520204775384044,66,13,-5,-4,1,-1,3,68
1520204775384044,-42,-21,-6,-8,-13,-1,-7,-44
1520204775386049,74,12,-6,-2,1,-2,-9,1
1520204775386049,39,4,3,6,1,0,3,35
1520204775407105,3,9,-1,-3,0,-2,3,13
1520204775407105,-105,-38,-1,-3,-7,-1,-4,-18
1520204775408108,45,7,-4,-4,-2,-2,3,5
1520204775408108,20,-11,-8,-2,2,-2,-6,-68
1520204775421142,-29,25,-2,-6,-10,-7,-5,45
1520204775421142,40,-26,0,-3,-3,1,7,51
1520204775428161,-52,-2,13,19,10,3,-10,-77
1520204775428161,93,29,-16,-13,-7,0,4,76
1520204775445206,-106,-46,-2,-13,-7,-9,-3,-75
1520204775445206,74,7,14,20,11,4,-1,-47
1520204775451222,-44,13,-14,-14,-10,-3,8,102
1520204775451222,-16,-25,3,5,-2,-4,-13,-14
1520204775467265,42,-35,-11,5,10,4,-9,-65
1520204775467265,-11,3,-11,-16,-11,-2,6,88
1520204775468268,-41,4,5,1,-3,-2,-2,18
1520204775468268,-96,-31,-7,0,3,2,3,-38
1520204775481302,72,40,-1,4,2,-3,-9,61
1520204775481302,-46,-18,5,1,-3,-3,-5,-94
1520204775488321,-41,6,-4,4,4,3,7,-60
1520204775488321,41,-9,-7,-10,-7,-6,-5,23
1520204775504364,-31,24,9,5,6,6,13,-4
1520204775504364,-11,-20,0,7,4,-3,-10,-103
1520204775506369,112,41,-8,-17,-15,-8,3,127
1520204775506369,-98,52,38,9,5,3,11,-33
1520204775526422,8,-16,7,5,4,6,10,-46
1520204775526422,36,2,-8,-6,-3,-1,2,14
1520204775528428,-55,-29,-1,4,3,0,-11,-45
1520204775528428,-28,-12,-3,1,-1,3,1,-40
1520204775541462,104,23,-11,-17,-10,-6,3,95
1520204775541462,-87,1,4,-7,-8,-8,0,-1
1520204775548481,52,16,16,16,8,0,-8,-97
1520204775548481,51,25,-11,-13,-10,-9,-4,48
1520204775564523,-65,-27,-6,2,5,4,0,-56
1520204775564523,54,3,-9,-4,-5,-1,-5,11
1520204775566529,31,-33,-15,-17,-14,-10,-4,92
1520204775566529,-52,7,10,6,5,4,1,-18
1520204775586582,-5,-30,-8,-1,10,2,-6,8
1520204775586582,95,21,1,-2,-23,-18,-5,-2
1520204775592598,-97,-2,12,17,11,12,7,-62
1520204775592598,39,-14,4,-3,-4,-1,2,25
1520204775601622,-67,-2,3,3,6,3,-8,-30
1520204775601622,30,21,3,3,10,0,-3,-9
1520204775607638,36,-40,-12,-4,24,8,0,12
1520204775607638,-68,-42,-8,-3,-28,-16,5,-32
1520204775624683,-1,88,28,6,-8,-1,-1,39
1520204775624683,-26,6,-2,2,13,10,0,-18
1520204775625687,-9,-20,-9,-5,-12,-12,-10,-11
1520204775625687,127,14,6,9,17,11,-1,-48
1520204775646742,-68,-22,-21,-16,-14,-7,7,77
1520204775646742,-43,-17,5,4,6,5,9,-33
1520204775648748,23,20,1,-6,2,-3,-10,-20
1520204775648748,-13,-5,-1,-3,-1,0,-5,-24
1520204775669804,72,7,2,-1,-13,-7,0,15
1520204775669804,39,13,2,8,13,7,-9,-26
1520204775670807,-83,-34,-13,-6,-4,5,14,15
1520204775670807,108,4,-12,-7,2,-2,3,47
1520204775684844,-69,-12,13,22,2,0,2,-70
1520204775684844,-10,7,-1,-21,-18,-19,-18,41
1520204775685847,55,5,6,6,-5,1,-6,-26
1520204775685847,-14,-39,-20,-10,-2,-2,-2,24
1520204775706902,0,24,11,15,26,17,-4,-26
1520204775706902,84,31,4,0,-2,2,9,55
1520204775708908,-33,26,9,5,-11,-9,-2,-32
1520204775708908,6,-9,1,-6,6,4,-9,23
1520204775720939,-32,-35,-17,-13,-6,-9,-7,-22
1520204775720939,-21,-12,4,9,0,4,0,-36
1520204775729964,-48,22,-10,-12,-4,-8,-3,29
1520204775729964,-13,1,-6,-3,-7,-2,3,4
1520204775744001,-24,-15,2,-1,5,-1,-1,-51
1520204775744001,-53,6,1,-2,-12,-5,2,10
1520204775746007,126,15,1,4,0,1,-5,25
1520204775746007,-31,-25,-22,-6,-8,-8,-7,15
1520204775767062,-86,9,30,8,0,-1,0,-19
1520204775767062,-46,-82,-83,-40,15,0,-4,-1
1520204775768065,110,83,82,36,-19,-3,-4,16
1520204775768065,-50,-31,-19,-2,5,1,-1,-28
1520204775780097,0,-9,-15,-10,-8,-8,0,6
1520204775780097,-3,-5,8,17,8,4,0,-13
1520204775789121,-95,-80,-53,-24,1,1,3,-35
1520204775789121,2,19,15,-13,-5,-4,1,24
1520204775804161,66,50,-14,-33,-15,-3,-6,28
1520204775804161,32,1,30,44,-8,6,8,-29
1520204775806167,-111,-61,-31,-3,7,1,8,-16
1520204775806167,54,-15,1,-9,-15,-7,-9,56
1520204775827222,-21,-3,-19,-5,15,4,1,-21
1520204775827222,-17,77,47,-19,2,2,-1,14
1520204775828225,35,49,51,42,-5,2,2,-8
1520204775828225,12,6,-18,-10,8,0,1,5
1520204775840257,13,-40,-9,2,-2,-3,0,4
1520204775840257,-21,-26,-19,-23,-5,-2,-3,21
1520204775849281,-18,-14,-25,-24,5,8,-8,-9
1520204775849281,-6,66,72,73,-11,7,11,-4
1520204775864321,35,-53,-12,15,4,4,7,-12
1520204775864321,-41,17,-5,-6,-23,-42,0,7
1520204775866327,79,-13,-24,-25,9,2,0,5
1520204775866327,24,9,-10,-18,2,4,-2,-3
1520204775887382,-28,-70,-19,-22,-11,13,-10,3
1520204775887382,19,22,6,8,12,16,9,14
1520204775888385,-5,19,22,33,-21,-6,-6,7
1520204775888385,1,-10,-18,8,9,7,3,-6
1520204775900417,16,52,28,16,-4,25,-4,9
1520204775900417,3,-15,-9,-2,9,-2,-1,12
1520204775909441,-26,-32,-61,-116,5,-47,-9,-30
1520204775909441,22,14,49,96,17,27,4,-7
1520204775924481,26,32,17,14,3,35,3,12
1520204775924481,-4,-16,-15,-13,-24,-56,-8,-1
1520204775926487,-16,-5,-2,11,5,31,3,-9
1520204775926487,-15,-19,-34,-51,2,-50,-7,-15
1520204775946541,32,-6,13,-13,-19,-9,-4,3
1520204775946541,-8,-2,-5,-14,19,51,4,-12
1520204775948545,0,-14,5,7,-3,-28,-1,-21
1520204775948545,-11,9,9,44,0,52,6,3
1520204775960577,-4,5,-5,4,-4,-4,1,-2
1520204775960577,1,5,-13,-31,-8,-51,-7,-4
1520204775969602,9,3,14,21,0,3,0,0
1520204775969602,-11,-9,-32,-83,-7,0,-4,-16
1520204775985644,7,11,23,93,29,8,5,0
1520204775985644,8,-13,5,10,-19,3,1,-4
1520204775987650,-6,11,9,-5,-16,12,5,20
1520204775987650,-19,1,-1,-15,-7,18,-8,22
1520204776006700,17,-1,-12,-17,28,-81,-7,-17
1520204776006700,0,2,9,2,58,27,19,-6
1520204776008705,21,14,25,85,77,4,-14,-51
1520204776008705,4,18,-6,-21,-48,-12,10,6
1520204776020737,-15,-13,-15,-58,-33,70,-14,46
1520204776020737,-12,-5,-3,-8,-37,-78,-9,13
1520204776029761,-10,-5,-13,-16,-8,1,13,11
1520204776029761,-8,-3,14,17,18,-50,-12,32
1520204776044801,2,3,11,13,-21,56,0,0
1520204776044801,3,6,26,37,18,26,6,3
1520204776045804,-8,5,-4,22,49,32,-8,12
1520204776045804,18,-2,-3,-10,-14,-51,-1,-30
1520204776066860,-7,-4,-6,-23,-1,-10,19,18
1520204776066860,-18,-8,-12,-11,2,78,-7,18
1520204776068865,14,0,19,-2,-28,-59,5,-22
1520204776068865,-20,-6,-14,-50,-20,15,-3,26
1520204776080897,5,13,15,54,-20,-84,-21,0
1520204776080897,6,-10,7,20,57,95,10,-6
1520204776089921,-2,6,-2,5,-13,-24,-16,17
1520204776089921,4,1,1,5,1,21,2,-37
1520204776103958,-3,-7,-19,-41,2,78,42,-2
1520204776103958,10,-2,11,16,-41,-128,-8,-52
1520204776105965,20,25,15,19,-3,23,10,17
1520204776105965,-20,-9,-18,-22,-8,-5,-16,39
1520204776127020,-2,-10,4,4,19,-17,-8,-39
1520204776127020,15,17,-1,-26,26,25,7,25
1520204776128023,5,-4,6,9,-45,-20,-5,-26
1520204776128023,-28,-22,-6,20,2,34,0,-1
1520204776140054,-13,-10,-9,-24,-9,-77,-16,-13
1520204776140054,18,26,-1,-6,-10,2,-5,11
1520204776150081,-15,-19,-1,-53,-35,24,9,12
1520204776150081,12,17,9,67,33,34,3,15
1520204776164118,8,-5,4,5,11,-32,-8,-5
1520204776164118,-29,-16,-22,-8,7,99,11,41
1520204776166124,21,8,-4,-20,36,36,8,-46
1520204776166124,4,-1,9,4,-11,-6,0,-3
1520204776186177,28,25,-3,-16,9,23,10,21
1520204776186177,-14,-11,15,25,-44,-3,-18,33
1520204776193196,-36,-4,-32,-55,-11,80,-3,100
1520204776193196,3,-20,7,31,89,48,59,-98
1520204776200214,40,38,6,-7,-55,-62,-82,17
1520204776200214,-15,-25,-32,-92,-72,-40,-26,32
1520204776209238,-26,-24,18,109,81,-23,22,-18
1520204776209238,16,35,7,-36,-32,-22,-5,11
1520204776225281,-16,-19,-6,15,45,26,5,17
1520204776225281,-25,-19,-16,-20,-80,-92,-23,-12
1520204776230294,34,21,17,2,44,65,18,-49
1520204776230294,-28,-18,-5,14,4,-26,7,16
1520204776247340,36,25,2,-30,-3,-1,-11,-17
1520204776247340,-27,-7,6,38,-32,47,23,34
1520204776248343,-17,-12,-4,-7,12,15,-5,1
1520204776248343,6,2,-2,-5,-3,-43,-30,-8
1520204776260374,-4,1,7,9,33,68,26,17
1520204776260374,-2,-13,-12,1,6,-46,-2,-11
1520204776269399,-14,-7,-4,-10,-44,16,4,8
1520204776269399,26,21,13,6,9,-59,-60,-17
1520204776283436,-4,-9,-3,-6,-19,-42,41,-32
1520204776283436,18,12,10,26,28,30,10,-40
1520204776290454,-15,-17,-13,-29,-33,-107,-42,-64
1520204776290454,19,10,3,-14,-38,-20,-9,22
1520204776306497,-28,-16,-17,-15,-39,28,-5,33
1520204776306497,38,17,13,28,105,87,39,-44
1520204776308503,8,3,5,-13,-13,12,-4,25
1520204776308503,-41,-24,-19,-17,-16,82,-10,27
1520204776329559,4,-11,3,17,26,-9,33,-6
1520204776329559,48,43,21,14,25,77,13,37
1520204776330564,-3,-6,-9,-15,-34,-18,-15,-6
1520204776330564,-2,-3,-4,-3,4,5,12,-12
1520204776343596,-24,-10,-3,-13,-29,-25,2,5
1520204776343596,-17,-21,-15,-7,-8,-69,-52,-73
1520204776350615,4,2,4,17,17,14,18,-31
1520204776350615,24,13,-6,-13,-3,9,26,4
1520204776374679,-14,-19,-11,-1,-6,-54,-36,-70
1520204776374679,5,5,27,33,48,28,32,-7
1520204776375681,27,23,-9,-18,-50,-8,-8,39
1520204776375681,-27,-14,2,0,-7,18,10,15
1520204776389719,-51,-34,-13,-9,-14,-21,-15,-17
1520204776389719,30,22,-3,-4,-21,9,-10,30
1520204776390721,-30,-14,-6,5,44,44,18,-17
1520204776390721,-4,17,17,5,62,30,-8,2
1520204776403756,58,28,-1,-5,-29,31,11,29
1520204776403756,-81,-46,-17,-10,-18,-39,-16,-40
1520204776410775,37,6,9,10,33,46,27,14
1520204776410775,11,5,-12,-17,-31,-30,-4,0
1520204776426817,-29,-5,10,13,24,22,3,-13
1520204776426817,50,9,-5,-9,-8,-12,-1,21
1520204776428823,30,24,-14,-22,-46,-47,-11,44
1520204776428823,-38,-20,-1,7,15,-9,-9,-47
1520204776449879,3,-58,-1,5,16,16,9,1
1520204776449879,-32,39,-6,-10,-25,-23,-18,-27
1520204776450882,7,3,24,16,5,-24,-7,-8
1520204776450882,20,-6,-10,-3,-7,-5,15,15
1520204776463916,-42,-46,-24,-20,-45,-37,-13,10
1520204776463916,57,50,3,-6,-40,-73,-6,11
1520204776470935,-24,-6,8,12,84,76,20,-9
1520204776470935,48,33,19,10,39,24,12,1
1520204776486977,15,-30,0,0,-24,-3,-18,-25
1520204776486977,-26,25,0,0,-9,-13,-2,15
1520204776488983,-18,-10,-8,-13,-54,-53,-11,3
1520204776488983,-44,-30,-13,-19,-30,-33,-1,10
1520204776509036,55,45,13,23,31,10,-6,-12
1520204776509036,-22,-13,4,4,26,14,8,-12
1520204776515053,16,8,-1,-3,-20,-22,-8,-10
1520204776515053,17,-14,-13,-16,-20,-5,-6,2
1520204776524076,-33,17,1,4,15,11,16,20
1520204776524076,25,-11,5,5,9,1,-2,2
1520204776530092,-22,-25,-12,-1,-15,-12,-3,4
1520204776530092,-12,1,4,1,-7,-13,-11,-14
1520204776547138,17,4,-2,-2,15,16,4,4
1520204776547138,16,18,8,-1,1,10,-1,-9
1520204776548141,-12,-42,-17,-9,-3,-4,12,17
1520204776548141,23,-2,4,15,-2,4,0,0
1520204776569196,0,35,8,-4,17,16,14,4
1520204776569196,-46,-57,-16,-8,-1,3,-11,-19
1520204776571202,25,-4,-6,1,-13,-25,-9,12
1520204776571202,9,26,3,-1,-32,-15,4,18
1520204776583233,-36,-13,-8,-8,21,-34,-10,0
1520204776583233,8,-5,20,19,30,16,2,-48
1520204776592258,35,30,4,-1,-11,-8,-9,-29
1520204776592258,-48,-10,0,0,-3,8,8,-60
1520204776607298,55,8,4,1,-36,-3,-5,38
1520204776607298,-24,-1,-8,-14,-23,-5,7,55
1520204776608301,-80,-14,2,1,11,-6,-16,-35
1520204776608301,52,-15,-4,4,-11,-8,-17,19
1520204776629356,-25,6,-1,-12,-7,-4,-13,-64
1520204776629356,-41,-19,-3,9,17,5,3,3
1520204776631362,19,7,-1,-5,-16,-5,-4,11
1520204776631362,10,5,1,3,10,3,4,-17
1520204776643394,-11,-3,-7,0,7,8,-2,-18
1520204776643394,11,-9,-1,3,8,0,-11,-55
1520204776652418,23,-4,-9,-6,-10,-8,2,18
1520204776652418,-43,5,5,-4,5,5,10,4
1520204776666455,-62,-5,7,13,15,7,-10,-23
1520204776666455,37,16,-3,-13,-17,0,13,73
1520204776668461,-69,-3,12,11,3,-5,-10,-68
1520204776668461,31,0,-8,8,12,2,-4,-17
1520204776689516,58,8,-5,-12,-12,8,22,98
1520204776689516,-40,-1,-7,-8,-5,-5,-10,-34
1520204776691522,50,13,5,1,0,-1,-3,13
1520204776691522,-22,-12,8,11,11,4,-2,1
1520204776703554,-33,-3,-18,-15,-12,-8,-13,-54
1520204776703554,78,-2,-3,6,5,5,3,33
1520204776712580,-55,-4,-3,-8,-3,0,16,31
1520204776712580,43,9,-3,-6,-7,-5,-9,5
1520204776726615,-5,3,11,8,7,12,13,17
1520204776726615,-21,-28,-2,7,5,-2,-7,-44
1520204776728620,111,28,-7,-16,-17,-12,-3,84
1520204776728620,-117,-12,5,-1,4,5,9,-35
1520204776749676,36,-25,-3,6,7,5,5,-8
1520204776749676,58,74,9,-4,-4,1,9,54
1520204776750680,-43,-14,2,3,3,1,-9,-27
1520204776750680,22,-9,2,7,6,1,-7,-44
1520204776762711,-6,-17,-18,-7,-3,-1,7,77
1520204776762711,91,21,7,-2,-5,-2,0,-48
1520204776771735,-91,-18,-10,-5,3,8,15,-5
1520204776771735,66,35,0,-4,-2,1,5,9
1520204776786775,38,-15,5,7,5,5,1,-23
1520204776786775,65,-32,-8,-3,-3,-2,-1,28
1520204776788780,26,41,12,6,0,-2,5,-11
1520204776788780,-95,-6,-15,-18,-6,3,11,68
1520204776809836,20,-22,6,14,6,0,-4,-48
1520204776809836,92,1,-15,-9,-5,-1,6,85
1520204776810839,-90,40,28,5,7,1,-7,-48
1520204776810839,-23,46,-2,-2,-3,-4,-7,9
1520204776822871,53,-53,-10,-2,5,-2,7,22
1520204776822871,15,-87,-22,-14,-11,-3,-3,67
1520204776831895,-29,42,17,13,7,-5,-28,-57
1520204776831895,0,-12,-4,5,38,10,5,-36
1520204776846935,79,66,8,-7,-48,-20,-9,87
1520204776846935,-128,-50,9,12,0,-3,-8,-56
1520204776848941,89,-34,-16,-4,-2,3,5,9
1520204776848941,53,-47,-11,-16,6,-1,-4,48
1520204776868993,10,53,10,-2,-10,-3,-9,-87
1520204776868993,-103,3,8,12,23,7,2,-21
1520204776870999,22,-45,-4,3,-1,-11,11,2
1520204776870999,42,63,24,10,-23,9,11,-47
1520204776883031,-51,24,-9,-5,43,12,1,53
1520204776883031,-103,-29,-12,-13,-10,13,-7,1
1520204776892055,-8,47,3,-8,-9,-53,-6,-54
1520204776892055,43,-29,9,12,-26,-3,5,-31
1520204776907095,41,-27,-3,-2,3,-2,-7,-10
1520204776907095,-41,56,7,0,18,17,1,-17
1520204776908098,89,-34,-33,-20,0,3,-12,76
1520204776908098,6,-46,-8,-6,-8,-13,-9,2
1520204776929154,-94,70,28,8,-1,7,8,-4
1520204776929154,-39,-22,-12,-1,-7,-13,-5,-52
1520204776931159,11,28,12,1,-5,6,-3,-14
1520204776931159,75,34,0,-6,-10,-5,4,77
1520204776943191,25,-10,-2,2,3,8,1,-10
1520204776943191,68,-2,-4,0,-3,-13,-6,-9
1520204776952215,28,-15,-2,3,-2,9,9,7
1520204776952215,-113,-34,-7,-5,4,2,-8,-13
1520204776967255,59,7,-3,1,3,-6,-13,-8
1520204776967255,44,-2,-5,-6,-11,-5,7,25
1520204776968258,6,-6,0,2,-2,10,-7,5
1520204776968258,87,3,-11,-6,-1,-14,-14,40
1520204776989314,-128,-60,4,11,1,4,14,-21
1520204776989314,59,48,-2,-13,-13,-9,-7,-44
1520204776991319,-50,-26,-3,2,-1,9,-1,-22
1520204776991319,64,33,9,-3,1,0,8,25
1520204777003351,-82,10,3,2,41,11,-8,-35
1520204777003351,50,-40,-16,-9,-43,-26,-6,56
1520204777012375,-105,-2,3,1,17,6,6,-56
1520204777012375,77,-15,-14,-7,-26,-20,-11,17
1520204777026412,-3,-5,7,1,-5,7,9,-10
1520204777026412,-54,-8,7,9,19,12,6,-24
1520204777028418,-61,2,6,3,7,8,-1,-15
1520204777028418,60,30,-4,-10,-6,-6,-8,78
1520204777049474,-3,-9,-1,2,-16,0,-2,-11
1520204777049474,17,11,-2,-7,20,-11,1,-38
1520204777051479,85,-21,-3,6,-10,2,-1,-15
1520204777051479,-87,13,9,4,10,10,6,14
1520204777071532,13,4,-6,-10,-11,-3,-1,-4
1520204777071532,-86,-32,1,7,0,6,0,-15
1520204777073538,112,63,8,12,8,1,-2,21
1520204777073538,-128,-46,-26,-13,3,3,4,-16
1520204777086572,75,11,8,-1,0,-7,1,17
1520204777086572,2,33,29,24,8,7,-3,-29
1520204777088578,69,-32,-8,-3,6,20,4,13
1520204777088578,-43,-32,-15,7,-3,-3,-1,6
1520204777109634,80,43,25,-1,-21,-40,-2,-21
1520204777109634,31,-18,-8,6,5,9,3,6
1520204777110637,-97,-53,-28,-14,4,10,6,16
1520204777110637,96,33,15,-1,-1,1,-11,-4
1520204777122668,64,-11,-12,-4,0,2,-8,6
1520204777122668,-5,13,12,-5,-3,1,-4,5
1520204777131692,-3,-14,-9,6,-1,-13,-2,15
1520204777131692,-69,-7,-5,-13,-1,0,-5,-33
1520204777146732,28,27,18,4,0,6,2,5
1520204777146732,-29,-9,5,10,-3,-5,9,-6
1520204777148738,-46,2,-7,-13,-15,-4,-1,18
1520204777148738,-2,-2,-5,2,15,-9,5,-34
1520204777169794,-25,-61,-9,5,5,21,-3,-17
1520204777169794,13,43,5,-1,4,6,7,22
1520204777170797,69,-36,-6,-10,-8,-8,6,22
1520204777170797,-28,-10,10,21,-7,-1,-15,-23
1520204777182829,-79,-7,22,11,-3,-5,0,-19
1520204777182829,30,15,-3,-4,1,6,5,0
1520204777191852,-50,4,-8,-5,-8,-9,-5,-12
1520204777191852,26,12,-1,-13,13,6,3,-12
1520204777205890,-48,-24,-18,4,0,4,7,4
1520204777205890,-48,6,12,8,-8,-10,-5,5
1520204777212909,40,32,-4,-20,11,9,-1,14
1520204777212909,-44,-4,21,13,-21,-10,-6,-27
1520204777228951,-29,-18,-13,6,-6,0,18,21
1520204777228951,3,8,1,11,12,10,4,-26
1520204777230957,-12,-22,-8,-4,-5,-7,-2,24
1520204777230957,33,6,-2,-1,-1,9,3,-15
1520204777242989,46,32,7,-1,2,-3,-7,36
1520204777242989,-78,-67,-49,-57,3,-11,-10,-5
1520204777252013,9,48,42,54,-21,2,-4,5
1520204777252013,32,-1,-3,0,19,1,2,-3
1520204777266052,-67,-33,-28,-25,-2,-1,0,-18
1520204777266052,59,46,22,8,-7,0,1,25
1520204777273069,-2,-23,-13,-39,-15,-8,-6,4
1520204777273069,-11,14,14,50,26,7,3,-11
1520204777289111,-18,-14,-14,-23,-15,-13,-4,18
1520204777289111,15,-3,1,32,-6,3,5,-1
1520204777295127,-5,7,-15,-24,-14,-8,-2,8
1520204777295127,-11,-11,10,0,18,-2,1,9
1520204777312172,13,16,2,7,-57,9,-4,1
1520204777312172,-2,-12,-17,-40,-2,-16,-8,4
1520204777313175,-25,-23,-38,-87,57,10,-2,-32
1520204777313175,17,18,41,83,21,8,15,-27
1520204777326210,18,13,-12,-28,-18,-15,-10,-16
1520204777326210,-17,-6,-4,4,-7,63,3,20
1520204777333229,7,6,8,-1,-2,-71,-13,-6
1520204777333229,19,8,-19,-36,-6,-24,-5,9
1520204777349271,-2,5,-4,-36,12,17,3,-7
1520204777349271,36,15,22,40,-31,-18,-2,24
1520204777351279,-18,-6,-3,-3,-2,5,-1,7
1520204777351279,-28,-19,-17,-67,-91,-2,-5,27
1520204777372332,-6,16,11,65,62,17,-10,-3
1520204777372332,32,13,23,56,42,16,13,-48
1520204777373335,-8,-3,-2,38,26,28,2,7
1520204777373335,5,-1,5,23,-4,-45,-22,-12
1520204777386370,7,0,-17,-29,-42,39,19,26
1520204777386370,-26,-22,-21,-36,-17,-90,-30,11
1520204777393388,19,12,15,-23,18,32,33,-3
1520204777393388,-2,-5,0,4,-32,20,14,-8
1520204777409431,-9,-5,-2,-18,5,-28,-21,28
1520204777409431,-11,-1,-6,16,21,123,-13,14
1520204777411437,7,9,14,3,-60,-113,-6,8
1520204777411437,-18,-20,-38,-120,9,4,1,50
1520204777439511,15,11,25,86,69,36,-4,-16
1520204777439511,-1,4,1,-21,-66,-72,-2,-5
1520204777441517,1,3,-7,24,45,23,0,6
1520204777441517,3,1,2,-16,-8,32,1,-21
1520204777446530,6,3,13,46,5,6,16,4
1520204777446530,1,0,-14,-16,8,13,1,0
1520204777453549,-12,0,8,32,31,82,-10,2
1520204777453549,5,-6,-6,-12,-29,-118,-11,19
1520204777469591,-2,7,-1,-41,-28,-18,16,-8
1520204777469591,6,-1,1,25,30,6,-26,-12
1520204777470594,-9,-6,-4,-3,10,8,2,-22
1520204777470594,-15,-7,10,22,16,39,-1,3
1520204777491650,7,9,-5,7,0,21,-8,-12
1520204777491650,5,-6,-6,-26,-8,-82,17,-20
1520204777493655,2,1,-1,0,-26,-3,-8,14
1520204777493655,-6,-8,3,16,0,41,8,-17
1520204777506690,0,-14,-3,2,12,-40,0,-34
1520204777506690,5,9,-1,-28,-8,39,28,-1
1520204777512706,-16,-3,-8,-23,-56,-55,-26,86
1520204777512706,24,15,8,28,30,42,21,-64
1520204777529751,20,8,16,-8,-21,-13,7,-8
1520204777529751,-12,-22,-22,-61,19,27,7,-24
1520204777530754,39,34,42,92,-15,-21,4,-34
1520204777530754,-28,-18,-21,-59,-41,67,7,68
1520204777551810,27,17,-5,46,65,23,-46,-30
1520204777551810,8,-6,8,1,4,-63,36,-52
1520204777553815,6,3,7,-3,-7,-28,1,-22
1520204777553815,-11,-6,-5,-31,-29,17,9,5
1520204777565847,-15,-11,-15,-36,5,10,-11,4
1520204777565847,11,9,4,35,5,-1,-10,14
1520204777580887,-16,-13,-7,-3,1,27,-3,-4
1520204777580887,10,10,6,25,37,-10,-14,-34
1520204777589911,-13,-13,-17,-69,-98,-61,-3,13
1520204777589911,0,7,5,35,90,27,20,2
1520204777590914,15,-4,-16,-85,-43,-11,-3,-34
1520204777590914,1,5,15,116,76,32,29,-23
1520204777611970,-2,1,-1,-17,-26,-33,0,28
1520204777611970,-5,2,8,-5,-41,58,-66,-8
1520204777613975,-8,-12,-13,-11,32,9,73,57
1520204777613975,-16,-9,-15,-66,-51,41,-69,26
1520204777626007,8,8,11,33,30,-42,24,-15
1520204777626007,-3,-1,1,59,-5,-23,-26,-47
1520204777635032,-5,-8,-12,-17,26,25,-7,-38
1520204777635032,-14,-7,-4,-6,-51,-51,-8,-3
1520204777649069,-8,-12,-5,-16,-8,-17,-4,7
1520204777649069,-22,-15,-8,-7,22,-26,-49,12
1520204777651074,13,12,12,13,29,49,3,-7
1520204777651074,43,16,11,18,73,40,78,-78
1520204777672130,-6,-7,-6,-9,-36,11,34,16
1520204777672130,-6,6,4,-14,3,-36,-35,-32
1520204777673133,-14,-16,-6,19,-47,-25,-11,80
1520204777673133,-9,-9,-15,-19,-18,-27,-85,-25
1520204777685165,16,12,6,3,38,36,29,-53
1520204777685165,31,9,-3,-18,-37,60,41,79
1520204777694189,-46,-20,-5,-3,-6,8,-45,32
1520204777694189,-2,-4,-4,1,-15,5,-7,14
1520204777708226,2,3,5,11,8,-57,-1,4
1520204777708226,-4,0,0,-13,-13,21,17,48
1520204777717251,18,2,1,21,-6,-35,-19,-128
1520204777717251,-14,-4,6,10,9,-20,19,47
1520204777732290,-17,-8,-6,-9,-7,38,2,13
1520204777732290,43,14,10,5,-1,-59,-27,-67
1520204777733293,-30,1,18,20,28,16,-10,-7
1520204777733293,9,3,-6,-3,-8,-53,12,-6
1520204777745325,7,2,-2,-1,15,3,-49,43
1520204777745325,-38,-24,-4,-12,-11,-5,12,-10
1520204777754349,14,7,-6,-4,-14,-1,11,16
1520204777754349,-25,-4,-2,13,10,-36,-35,30
1520204777769389,-20,-8,-5,-1,7,9,0,-15
1520204777769389,47,19,-7,-22,-27,-53,23,69
1520204777771394,7,-2,-5,10,8,18,-35,-67
1520204777771394,-31,-24,-3,2,20,24,30,-15
1520204777792450,28,24,4,0,7,26,-3,23
1520204777792450,-18,-14,-11,-1,-10,23,21,-24
1520204777793453,-9,2,4,0,10,0,8,-6
1520204777793453,6,7,-2,-10,6,-3,13,14
1520204777805485,4,-17,-3,9,0,-10,-30,19
1520204777805485,24,6,-6,-3,-8,-5,-6,32
1520204777814509,-23,6,0,-7,-14,11,30,67
1520204777814509,-22,-14,-4,-3,-4,-33,-21,-52
1520204777829549,-104,-22,1,1,-45,35,10,-9
1520204777829549,98,50,-8,-22,34,-53,-5,52
1520204777831554,-55,-4,16,14,1,1,14,-48
1520204777831554,-60,-2,5,6,6,11,8,-26
1520204777851608,76,17,-7,-14,-2,6,2,27
1520204777851608,-47,-23,6,8,-29,-7,-21,-55
1520204777853613,-16,-4,-6,1,0,10,-2,-23
1520204777853613,96,24,2,-1,8,-12,4,63
1520204777865645,28,-4,4,7,-7,-30,-12,-46
1520204777865645,-54,-4,12,-8,2,36,10,-17
1520204777874669,-45,-3,0,0,4,-3,4,1
1520204777874669,58,12,-5,-7,-7,8,0,13
1520204777889709,-44,-5,-1,-2,10,3,2,61
1520204777889709,-1,-6,-3,1,-30,17,14,0
1520204777890712,-39,-13,0,7,23,-39,-21,-34
1520204777890712,85,30,12,10,31,26,17,36
1520204777911767,10,16,5,-4,-13,11,1,-63
1520204777911767,-117,-38,-4,6,12,5,0,-27
1520204777913774,73,17,-9,-15,-55,-8,7,50
1520204777913774,-36,-15,-6,-4,-3,7,-6,-3
1520204777925805,69,9,1,5,34,0,10,-3
1520204777925805,-116,-29,-5,-1,-14,15,5,23
1520204777934829,44,5,2,6,11,12,-11,-25
1520204777934829,9,3,-1,2,-3,-16,-5,-24
1520204777949869,10,4,-1,-7,2,11,13,-3
1520204777949869,-23,9,7,7,-1,-4,-7,-3
1520204777950872,13,0,-1,0,-4,-3,-12,-34
1520204777950872,40,-6,-1,4,2,-16,-16,28
1520204777973934,-103,-15,-3,-9,-16,-13,-1,32
1520204777973934,79,18,10,4,14,15,14,2
1520204777976942,-46,-12,-8,-8,0,0,2,23
1520204777976942,10,10,9,11,-12,-1,-7,-47
1520204777985965,-33,-7,-6,-1,4,-1,0,24
1520204777985965,25,-11,-6,-2,3,0,-3,-14
1520204777994989,47,6,3,-2,-7,1,-8,-5
1520204777994989,-59,-11,-8,-10,-9,-4,5,-5
1520204778009026,10,-7,-7,-3,-5,-12,-7,-4
1520204778009026,-32,-6,5,4,8,6,13,-11
1520204778011032,16,5,-2,-2,-9,0,8,-4
1520204778011032,-23,-19,-7,-6,-7,-11,-20,11
1520204778032087,87,16,4,2,9,4,7,-39
1520204778032087,-28,-7,-7,-3,-6,7,8,18
1520204778033091,-11,7,10,2,2,7,11,3
1520204778033091,-17,-9,-9,0,0,0,9,-18
1520204778045122,5,-12,-4,-2,3,7,13,20
1520204778045122,73,11,-3,-4,-3,-4,-7,36
1520204778054146,93,1,-2,-3,-2,1,7,54
1520204778054146,-126,2,0,-4,-3,-4,2,-3
1520204778069186,-33,-2,-3,-2,-3,-2,-1,34
1520204778069186,51,11,1,3,5,0,-4,-45
1520204778071192,-7,-32,-23,-10,-2,6,10,68
1520204778071192,94,75,23,9,-2,2,10,46
1520204778091245,-124,-30,-3,1,2,-4,-9,-34
1520204778091245,12,-7,-3,-5,0,0,-2,17
1520204778099266,15,11,-1,0,2,4,9,14
1520204778099266,31,-20,-7,1,-1,-2,1,-17
1520204778105282,60,-6,-5,-5,-2,1,4,51
1520204778105282,-49,51,19,4,6,8,25,-3
1520204778114306,19,-7,-1,-7,-6,-10,-5,-26
1520204778114306,20,16,6,-1,-3,-3,-6,-16
1520204778128344,-86,-11,10,9,8,3,-2,-14
1520204778128344,60,-32,-14,-3,2,10,10,-4
1520204778135362,-27,47,12,2,-6,-10,-16,41
1520204778135362,51,-33,-15,-11,-7,-6,0,43
1520204778152408,-12,15,4,-6,-6,-6,-11,-61
1520204778152408,42,8,9,5,1,0,1,46
1520204778153411,42,9,2,5,2,2,-1,-21
1520204778153411,-30,-20,-4,1,2,-1,-4,-32
1520204778165442,-74,-30,-19,-8,-3,0,-2,35
1520204778165442,66,33,-1,-3,-5,-2,-3,26
1520204778174467,-61,-53,-3,1,3,0,1,-53
1520204778174467,73,85,14,5,1,-3,-4,-8
1520204778189506,-29,-23,-7,0,0,0,-2,27
1520204778189506,-6,2,8,6,2,-2,-3,-17
1520204778191512,-24,1,1,0,-3,-3,-11,-45
1520204778191512,17,-22,-20,-15,-4,6,11,59
1520204778211565,19,7,8,1,-3,-13,-21,-66
1520204778211565,40,-40,-18,-3,-2,-5,-15,25
1520204778213571,-74,-2,9,2,4,11,13,-40
1520204778213571,-19,40,2,-8,-12,-12,-12,41
1520204778234626,127,65,11,1,-3,-1,2,33
1520204778234626,-73,-49,-12,-3,-1,-5,-1,-4
1520204778235629,-51,-47,2,8,8,5,-5,-111
1520204778235629,49,61,5,-3,-7,-1,-1,46
1520204778248664,126,-33,-18,-11,-8,-5,-1,39
1520204778248664,-128,54,35,18,16,8,7,-66
1520204778255682,113,36,-4,1,-11,-7,-5,6
1520204778255682,-126,-61,-15,1,2,2,1,-67
1520204778271725,64,20,6,-15,-10,-7,-1,46
1520204778271725,-19,48,11,5,4,3,2,-74
1520204778273731,-93,11,10,12,10,8,11,-2
1520204778273731,24,-42,10,11,9,4,2,-51
1520204778294786,70,40,4,6,4,1,-1,-28
1520204778294786,-62,-63,-27,-23,-19,-11,0,53
1520204778295789,-2,26,6,-4,1,1,3,-41
1520204778295789,-99,-5,-2,-7,-8,-7,-7,39
1520204778308824,48,-30,-3,5,5,5,7,-17
1520204778308824,-44,4,20,16,8,5,4,-1
1520204778315842,91,-77,-31,-13,-7,-3,-2,2
1520204778315842,-49,-35,12,10,12,6,0,-83
1520204778331885,-8,1,-6,-6,-3,2,12,61
1520204778331885,52,-37,10,5,-11,-6,-5,-30
1520204778333890,63,-14,-13,-10,-7,-7,-4,26
1520204778333890,-77,-35,-3,0,3,1,-5,-34
1520204778353943,-76,-3,-9,2,1,0,-8,-34
1520204778353943,82,-11,-17,-8,-4,-4,0,-6
1520204778355950,-106,-4,2,-10,-8,1,-5,57
1520204778355950,11,36,8,15,54,21,4,-58
1520204778368984,-35,15,2,-21,-66,-41,-9,23
1520204778368984,-6,9,9,9,0,6,2,-11
1520204778376003,-48,39,7,-1,-7,2,5,11
1520204778376003,48,-13,-13,-2,4,-1,-2,-11
1520204778392045,-128,-51,-3,11,31,18,7,16
1520204778392045,-1,19,7,-2,2,-2,-9,-22
1520204778393048,126,5,0,0,6,-2,-5,23
1520204778393048,-46,-79,-27,-11,-15,1,-1,-24
1520204778414104,58,31,4,-12,-14,-9,-12,8
1520204778414104,14,-39,-10,-1,47,33,3,-9
1520204778416110,-85,53,17,14,-42,-40,-5,-35
1520204778416110,42,-12,-2,0,-32,-1,9,43
1520204778429144,-29,-107,-36,-11,-6,-3,-9,-2
1520204778429144,82,103,20,7,12,4,-3,-4
1520204778435160,25,-59,-36,-22,4,0,0,52
1520204778435160,-34,48,2,8,23,1,8,-10
1520204778452205,64,56,42,16,-3,7,-4,-57
1520204778452205,-59,-6,-4,-4,-9,-7,0,56
1520204778453208,6,-26,-1,3,35,33,-5,12
1520204778453208,40,42,4,-14,-64,-56,-4,24
1520204778474264,-33,-4,-11,10,31,23,10,-60
1520204778474264,-3,-13,-14,-13,-21,-15,-14,31
1520204778476269,10,11,7,6,4,3,1,2
1520204778476269,21,-39,-21,-14,14,13,-8,35
1520204778488301,-8,37,25,15,15,5,-1,-34
1520204778488301,-7,-11,13,13,-12,-6,7,-33
1520204778497325,70,30,1,-10,0,5,3,51
1520204778497325,-70,-32,-19,-12,-11,2,-1,10
1520204778512365,-1,41,13,17,12,2,10,17
1520204778512365,0,-10,-30,-22,-7,-9,-9,-42
1520204778513368,-43,3,10,4,7,3,3,15
1520204778513368,-5,5,17,6,10,8,10,-20
1520204778534424,-9,12,16,6,-9,-7,-2,-5
1520204778534424,-14,-9,-18,-7,-7,-2,-6,15
1520204778536429,29,-2,-8,8,6,-1,3,-44
1520204778536429,10,-19,-18,-11,2,5,-10,14
1520204778548461,29,-1,-6,-15,5,-7,1,16
1520204778548461,30,16,18,23,-6,-1,-5,0
1520204778557485,2,-13,-19,-18,-6,-3,-5,6
1520204778557485,32,28,40,36,-15,-8,5,7
1520204778571522,-19,-21,-21,-25,-8,15,4,-6
1520204778571522,14,-4,-17,-17,15,-10,-4,-9
1520204778573528,0,-8,-16,-4,-3,-10,-11,0
1520204778573528,8,17,49,0,3,6,1,14
1520204778594584,13,-5,-24,-13,14,-2,-1,-24
1520204778594584,-16,-3,29,-21,-17,35,5,20
1520204778595587,5,12,10,55,4,-1,11,-18
1520204778595587,24,36,29,49,24,-29,-7,-8
1520204778607618,-86,-83,-37,-50,-15,55,3,-9
1520204778607618,37,3,-22,-11,-5,-61,-1,-40
1520204778616643,-4,6,25,-19,-59,-18,-19,30
1520204778616643,14,3,-19,70,75,17,14,-12
1520204778639704,26,12,0,-14,8,-24,28,-26
1520204778639704,-35,-28,-10,0,-23,37,-2,29
1520204778640707,-11,-5,-20,-2,18,78,-23,-58
1520204778640707,-19,-15,10,-58,-113,-77,16,19
1520204778654744,-7,10,-4,15,-17,-24,-37,-32
1520204778654744,13,-5,-14,-2,28,-72,41,-56
1520204778655747,16,20,44,54,18,-38,4,73
1520204778655747,36,9,-20,-41,62,108,-27,0
1520204778667778,0,-3,0,-5,-38,7,-5,28
1520204778667778,-25,5,15,-1,-34,-51,-49,85
1520204778676802,-22,-19,-28,-11,1,11,27,9
1520204778676802,-20,-30,-39,-80,-81,-5,4,44
1520204778691842,17,10,30,80,57,25,30,-12
1520204778691842,-6,-13,-9,-30,-25,0,-13,28
1520204778693848,2,6,-18,-9,9,-8,-9,-28
1520204778693848,9,-5,16,23,5,9,-3,-67
1520204778714904,-19,-3,-19,-69,-46,11,-11,10
1520204778714904,-2,-16,-3,40,32,-22,-8,-33
1520204778715907,-24,-22,-24,-92,-2,59,5,-13
1520204778715907,46,40,30,110,44,31,11,-54
1520204778727939,15,10,22,18,7,-108,-27,39
1520204778727939,13,8,-5,-27,18,23,14,-2
1520204778736963,-24,-11,6,5,-31,0,-13,1
1520204778736963,-6,-14,-19,-51,-1,12,2,17
1520204778752003,-8,12,10,11,-12,-8,-8,38
1520204778752003,-4,-11,6,31,4,15,5,-42
1520204778754008,33,20,-5,-20,6,-30,5,27
1520204778754008,1,-10,7,16,-6,-14,2,-7
1520204778774061,-13,-10,-1,10,21,1,4,-12
1520204778774061,14,21,-3,-14,-13,22,-1,16
1520204778776067,-18,-29,-2,5,12,-1,2,-46
1520204778776067,-5,-8,-4,2,5,-25,2,-20
1520204778788099,33,27,1,-6,-3,64,1,32
1520204778788099,5,-11,2,-2,-5,-38,1,-46
1520204778797123,9,15,20,10,-3,-31,4,3
1520204778797123,-28,-25,-13,-23,-12,7,10,29
1520204778812163,59,59,16,22,19,-64,-52,-20
1520204778812163,-1,-10,-1,4,16,40,9,27
1520204778813165,-9,-16,7,-3,-6,-15,8,-33
1520204778813165,7,26,14,-10,-79,-53,-23,28
1520204778834221,-48,-47,-20,-42,-59,86,3,15
1520204778834221,27,16,9,89,94,21,37,-3
1520204778836228,36,24,6,21,75,-37,15,-69
1520204778836228,-27,-32,-28,-62,-35,62,-4,17
1520204778848259,-12,7,10,9,-29,-86,18,-30
1520204778848259,-9,0,-3,-13,-31,-29,-44,-7
1520204778857283,-12,-13,-13,28,-11,71,-3,83
1520204778857283,6,4,-11,-34,12,-55,21,-1
1520204778872323,-19,-9,-9,0,3,0,-32,6
1520204778872323,-8,-8,-4,-14,-25,-14,-2,39
1520204778873326,0,0,8,-2,-9,37,-1,9
1520204778873326,-1,-1,0,17,30,-7,-4,18
1520204778894381,38,33,-3,-34,34,2,-25,2
1520204778894381,-21,-19,-9,49,-26,-25,-12,-20
1520204778896387,4,8,4,-26,-50,18,-31,18
1520204778896387,-16,-11,-2,13,61,70,71,-29
1520204778908419,6,7,17,17,-6,52,78,-64
1520204778908419,4,8,-4,2,-30,-78,-63,32
1520204778917443,12,14,9,-13,21,-48,10,-51
1520204778917443,7,-2,-1,34,14,43,-28,3
1520204778931480,-16,-20,-10,-25,8,-19,-8,-2
1520204778931480,20,21,-4,-38,-24,40,23,-16
1520204778933486,-34,-25,-9,9,-12,31,27,-15
1520204778933486,8,8,-1,-9,10,-28,-45,13
1520204778955545,-13,-20,0,-15,-16,-16,2,-4
1520204778955545,5,10,3,37,14,27,40,34
1520204778957550,16,7,4,25,42,18,10,-13
1520204778957550,-23,-23,-9,-60,-13,19,-80,20
1520204778967577,22,11,-2,67,-5,-60,31,32
1520204778967577,18,23,12,-24,2,65,12,-24
1520204778977603,-28,-16,4,-14,-14,-56,-49,-32
1520204778977603,20,17,0,11,-16,-75,-22,36
1520204778991640,-29,-23,-7,-1,-10,0,-3,-23
1520204778991640,-30,-35,-16,-35,-22,-11,-48,-12
1520204778993646,102,86,11,10,21,23,44,28
1520204778993646,-54,-33,-7,-3,-24,10,14,-45
1520204779014701,-10,-11,-3,16,14,-4,-58,-26
1520204779014701,-21,-20,-1,-7,7,0,25,-50
1520204779015705,3,10,-3,-14,-34,-70,-11,37
1520204779015705,16,13,8,19,9,-19,14,-35
1520204779027736,3,-15,-10,-3,4,-20,-24,11
1520204779027736,-8,4,5,-15,-13,-57,-19,-23
1520204779036760,-28,-20,4,-1,-20,-41,-53,34
1520204779036760,-20,-14,-6,16,10,-19,-2,34
1520204779050797,31,8,4,12,20,36,17,-17
1520204779050797,-7,-2,-5,-16,3,43,2,86
1520204779059822,36,18,-5,-2,-1,6,10,38
1520204779059822,-17,-11,0,0,-6,-14,12,2
1520204779074862,-6,6,7,0,5,31,12,20
1520204779074862,22,3,-4,-1,0,5,2,36
1520204779075865,-17,-14,-2,-1,-6,13,19,7
1520204779075865,2,7,0,0,0,13,8,-15
1520204779087896,-4,-1,1,3,3,4,17,-27
1520204779087896,27,13,3,-8,-7,22,12,-18
1520204779096920,-40,-15,-1,8,20,20,-5,-1
1520204779096920,12,1,-7,-4,3,19,18,-50
1520204779110957,3,0,4,5,5,-1,-52,69
1520204779110957,-72,-26,4,6,10,34,12,-90
1520204779117976,42,-11,-21,-8,-27,-7,-21,66
1520204779117976,-7,6,-1,-1,-7,-35,21,2
1520204779134019,-21,-2,3,8,30,29,15,-99
1520204779134019,54,21,8,-7,-21,-26,-23,12
1520204779136025,-26,-8,3,2,7,-4,-1,-38
1520204779136025,-18,-7,-2,-1,-3,9,-8,-18
1520204779157080,21,5,-8,-6,-14,-18,13,51
1520204779157080,24,7,1,-4,3,-11,-4,-6
1520204779158083,-55,-21,-3,-1,-2,0,16,-61
1520204779158083,13,8,0,-1,-2,4,10,56
1520204779171117,-122,-46,-15,-5,-4,0,-9,-88
1520204779171117,95,50,0,-7,-7,-18,-13,96
1520204779178136,-58,-5,5,-3,-5,5,12,-66
1520204779178136,3,0,-3,4,-7,18,6,-65
1520204779194179,-37,-7,3,-1,25,12,18,22
1520204779194179,-17,-3,-5,-2,1,26,13,19
1520204779196184,33,4,-6,-2,-11,-23,0,-24
1520204779196184,15,17,11,5,17,-17,-12,14
1520204779217240,-18,-4,5,12,3,-5,-25,49
1520204779217240,24,-4,-7,1,8,7,3,37
1520204779218243,44,14,9,-4,-13,-2,-32,127
1520204779218243,-8,-9,-10,0,-6,2,15,-64
1520204779230275,30,12,-3,-8,-6,-1,23,67
1520204779230275,-59,-13,10,7,6,2,-31,7
1520204779247320,-40,-17,-3,10,7,19,46,-82
1520204779247320,49,17,1,1,-4,-24,-51,59
1520204779254339,-2,-7,-7,-19,-15,15,50,17
1520204779254339,-55,-16,-3,-7,0,16,24,-25
1520204779256344,8,2,2,10,7,-5,-7,-13
1520204779256344,-26,0,4,-1,2,-18,-10,-8
1520204779277400,19,7,-3,1,-2,4,15,-43
1520204779277400,47,4,-7,-11,-6,4,14,83
1520204779278403,-27,-4,4,3,1,-4,-9,-40
1520204779278403,-10,-2,-1,3,7,18,28,-22
1520204779291437,22,10,0,-2,-9,-10,-28,13
1520204779291437,6,-8,-4,-8,4,14,23,-27
1520204779298456,-18,-4,1,4,2,-4,-11,-19
1520204779298456,-34,-14,-4,-1,1,5,4,50
1520204779314499,77,18,1,-3,-3,9,28,55
1520204779314499,-128,-8,12,7,0,-12,-30,-39
1520204779316504,31,-2,-7,-8,-3,2,4,-45
1520204779316504,31,23,5,-3,-2,4,-7,3
1520204779337560,-43,-15,-4,-3,-7,-6,6,9
1520204779337560,-8,-19,-7,12,8,0,-4,-55
1520204779338563,46,10,-2,-5,-2,2,0,35
1520204779338563,-7,-9,-2,-9,-3,0,4,1
1520204779351598,-6,3,2,5,11,-1,-21,-49
1520204779351598,-20,-7,-8,-7,-5,-1,8,6
1520204779357614,-9,-10,5,2,-2,-3,-18,-37
1520204779357614,7,1,3,12,2,6,8,-13
1520204779374659,-24,-1,1,2,-3,-2,-1,29
1520204779374659,33,7,3,-1,2,2,11,-43
1520204779375662,-36,8,6,6,-1,-3,-7,-6
1520204779375662,-4,-7,-1,-2,0,-2,-3,13
1520204779396718,53,15,3,0,-1,-2,-2,-6
1520204779396718,-40,-37,-3,5,6,4,12,-10
1520204779398723,22,58,1,-6,-4,4,6,34
1520204779398723,105,33,17,2,0,1,-1,1
1520204779410755,-108,-39,-12,-4,-1,-3,-2,37
1520204779410755,14,13,1,-4,-7,-2,-5,-20
1520204779419782,0,-27,-7,0,3,4,3,-78
1520204779419782,-7,3,6,17,6,-7,-35,46
1520204779434819,11,11,4,-6,-8,4,12,-28
1520204779434819,29,-22,-14,-5,-2,-5,1,-7
1520204779435822,-57,-13,-5,0,1,-1,-2,-11
1520204779435822,-18,-11,-14,-9,-4,3,9,-31
1520204779456878,82,23,-9,-11,-2,3,8,55
1520204779456878,-46,-8,15,10,8,4,2,-23
1520204779458883,27,2,-1,2,0,0,10,-27
1520204779458883,38,6,-9,-4,-7,3,14,28
1520204779470915,-20,-16,-11,-11,-10,-7,2,19
1520204779470915,-30,-57,-1,5,9,3,3,-42
1520204779479939,102,93,14,-5,-1,2,10,82
1520204779479939,-111,-48,-5,-5,-4,-3,-2,-37
1520204779494979,20,-8,0,4,2,-4,-18,-64
1520204779494979,32,13,0,2,0,4,6,52
1520204779495982,0,-10,1,-1,-5,-9,-10,10
1520204779495982,28,-1,-7,-4,-3,-3,1,20
1520204779517039,-2,7,4,0,1,0,-4,-2
1520204779517039,-31,16,7,1,-10,-24,-44,-13
1520204779519043,-21,-32,-7,3,5,6,5,-5
1520204779519043,4,-7,-6,-8,3,2,2,-11
1520204779531075,20,26,11,12,4,-3,-7,8
1520204779531075,-15,73,12,-3,-4,3,9,49
1520204779540099,-11,-3,-2,-7,-3,2,6,15
1520204779540099,28,-55,0,2,-3,-9,-22,-24
1520204779554136,-70,8,-1,9,7,2,-7,-42
1520204779554136,109,17,-12,-15,-14,-6,4,76
1520204779556142,-14,1,6,3,1,4,2,14
1520204779556142,-5,22,1,0,1,4,5,-10
1520204779577198,75,-100,-25,-5,-3,-5,-14,-8
1520204779577198,-44,87,24,9,4,2,8,20
1520204779578201,-6,-34,-4,-3,0,-4,-6,19
1520204779578201,-22,-2,-2,-4,-3,-3,-1,2
1520204779590232,-11,16,6,-3,-3,-6,-9,-54
1520204779590232,22,-99,-39,-14,-5,0,5,17
1520204779599257,60,81,45,3,-5,-7,-7,51
1520204779599257,-56,-40,8,12,7,5,7,-40
1520204779614296,76,-14,-4,2,8,4,0,41
1520204779614296,-58,-29,-6,-1,-12,-7,-5,-67
1520204779616302,45,-22,-18,-5,-1,0,0,7
1520204779616302,-60,57,-6,-7,-4,0,4,66
1520204779637358,-11,108,38,13,3,4,4,-3
1520204779637358,58,-36,-14,-6,3,0,-3,-39
1520204779638361,-39,-45,-17,-4,-3,-2,-9,-38
1520204779638361,0,6,0,5,11,-8,-5,-67
1520204779650392,83,-35,-20,-12,-21,-5,-5,94
1520204779650392,-97,14,14,-14,-2,-4,2,-43
1520204779667438,19,21,6,11,-1,4,4,-16
1520204779667438,61,27,-1,-7,-4,-1,-3,-3
1520204779674456,-95,0,13,12,5,0,0,-30
1520204779674456,69,13,-8,2,-1,-6,-7,18
1520204779676462,-61,-68,-19,-11,-3,-4,-1,-13
1520204779676462,5,19,9,2,-3,2,2,42
1520204779696515,-44,-5,5,-1,4,2,0,-34
1520204779696515,71,-7,-4,-1,2,4,-1,15
1520204779698521,-75,-42,-15,-6,1,-1,4,-12
1520204779698521,-34,0,1,1,2,-4,-10,-29
1520204779710552,-2,28,4,-12,-14,-7,9,56
1520204779710552,-45,-29,10,13,10,4,2,-32
1520204779719577,31,44,12,4,-3,5,-1,4
1520204779719577,59,-13,-12,-4,2,-4,5,15
1520204779734616,15,-10,-11,-10,-7,-4,-4,-15
1520204779734616,-50,-8,10,13,9,9,12,-49
1520204779735619,7,-4,-10,-6,-13,-8,-5,11
1520204779735619,-52,-7,17,6,28,16,-4,-12
1520204779756675,81,-4,-18,-4,-2,-16,-3,-6
1520204779756675,16,16,6,-13,-19,0,8,11
1520204779758681,-52,7,13,11,9,6,3,-8
1520204779758681,29,-44,-23,-6,-1,0,-1,-38
1520204779770712,15,28,28,8,5,9,-3,29
1520204779770712,-12,-3,-12,0,9,3,0,-19
1520204779779737,-3,-7,1,0,-1,-4,-3,35
1520204779779737,-48,-6,-5,-4,-5,-1,-3,3
1520204779794776,3,-32,-20,-6,0,0,3,-36
1520204779794776,-27,55,32,13,-2,-6,-5,26
1520204779795779,57,9,-8,-3,12,5,2,-13
1520204779795779,-9,-8,1,-10,-17,1,8,23
1520204779816835,-26,-8,4,4,-1,-6,-1,-39
1520204779816835,-26,-35,-27,-13,6,-1,-6,3
1520204779818841,70,26,12,14,-2,-5,-7,-37
1520204779818841,-33,14,17,-7,-5,-4,1,111
1520204779830873,-107,-39,-32,-3,-13,-9,-1,-44
1520204779830873,100,21,16,11,19,48,-9,26
1520204779839897,-42,-24,-26,-6,6,-44,-2,-2
1520204779839897,65,21,25,16,-7,-16,-8,-24
1520204779853934,-21,2,-1,0,12,14,15,-22
1520204779853934,-21,-9,-20,-30,-15,-10,-9,15
1520204779855940,-31,-7,19,26,-7,33,0,4
1520204779855940,26,4,-13,-6,0,-16,-1,-7
1520204779876995,-23,3,11,10,4,0,-15,1
1520204779876995,38,4,-5,-4,-2,-9,8,-13
1520204779879001,-20,-12,-7,-30,6,5,10,-36
1520204779879001,20,9,-11,-15,2,-4,4,48
1520204779891032,-6,9,36,34,5,38,-5,-35
1520204779891032,-25,-1,-12,-2,-13,-56,-5,10
1520204779900057,44,3,-12,-26,-6,-4,-3,18
1520204779900057,-29,9,6,27,1,0,3,-44
1520204779914094,25,-5,-21,-33,3,-7,0,44
1520204779914094,-7,0,18,17,-2,21,2,-7
1520204779916099,-18,-17,-20,-18,7,-1,0,-10
1520204779916099,-22,0,-12,-32,-11,0,-13,23
1520204779937155,-19,-11,12,30,9,20,10,-31
1520204779937155,3,20,19,0,-6,-14,1,-17
1520204779938158,-6,-9,-20,-28,22,-15,-7,19
1520204779938158,12,-5,-3,31,-4,21,6,-13
1520204779950190,-16,-9,-5,-10,-5,-26,-17,-37
1520204779950190,35,15,2,-7,-3,-6,7,20
1520204779959214,-10,-7,3,-9,-11,22,22,3
1520204779959214,3,-7,0,11,0,-45,-9,-6
1520204779975257,14,17,11,31,40,6,9,16
1520204779975257,-16,-35,-34,-50,-33,0,-8,-7
1520204779977263,-16,-4,22,56,21,-36,-14,2
1520204779977263,35,32,2,6,6,33,19,8
1520204779997315,-8,-16,-44,-84,15,21,10,26
1520204779997315,-1,-5,57,111,-20,-15,-28,23
1520204779998318,-14,-1,-4,-10,-20,24,6,15
1520204779998318,-10,-9,-20,-26,-21,-15,-2,35
1520204780010350,17,17,10,-5,24,7,-14,-2
1520204780010350,-11,-6,-13,-21,24,24,28,-2
1520204780019374,8,3,0,-4,-19,-11,16,-14
1520204780019374,1,-4,12,31,19,61,-5,29
1520204780033411,-10,3,2,-18,-26,-45,-12,28
1520204780033411,-13,-4,-4,18,21,5,-3,-1
1520204780040430,0,-5,0,19,-18,-18,-17,-21
1520204780040430,15,10,-21,6,70,16,23,6
1520204780057475,8,3,23,17,-39,-13,2,-30
1520204780057475,-12,-18,-21,-38,37,20,-1,10
1520204780058478,19,41,17,23,-36,-5,-18,59
1520204780058478,-33,-29,-8,-34,-7,-27,-22,-12
1520204780070510,2,1,-7,3,-16,5,12,50
1520204780070510,-1,4,-3,15,0,93,15,-2
1520204780079534,-12,-15,-12,-20,1,-90,-1,-45
1520204780079534,18,21,28,-4,-19,-20,-15,-24
1520204780093572,5,12,19,56,-44,-32,-12,27
1520204780093572,-9,-4,-20,-28,28,18,-2,-39
1520204780100590,-6,-8,-7,-41,22,44,5,-16
1520204780100590,3,2,14,47,2,-2,10,-41
1520204780116633,7,-9,-15,-33,-20,-31,-9,-5
1520204780116633,14,14,4,-7,-8,-15,14,-9
1520204780118638,4,0,9,35,48,10,-18,27
1520204780118638,3,-1,-2,-10,2,1,5,-23
1520204780139694,-45,-41,-11,-12,-12,21,-1,-3
1520204780139694,41,29,7,11,-2,-37,-8,33
1520204780140697,16,35,11,5,-31,14,11,-25
1520204780140697,-30,-41,-15,-12,-8,27,-7,59
1520204780153731,7,5,-6,21,7,-25,0,-22
1520204780153731,-37,-28,-2,-1,-10,-4,-5,-40
1520204780160750,36,1,7,15,16,12,8,-21
1520204780160750,16,11,-4,-23,-10,18,1,-33
1520204780176792,-32,-10,-10,-38,-5,-9,-9,69
1520204780176792,12,8,-3,41,14,0,11,-56
1520204780178799,-24,-17,-17,-37,-5,-5,-2,-26
1520204780178799,5,5,22,-8,-65,-22,2,-32
1520204780199854,1,-9,-7,-20,31,17,6,-8
1520204780199854,17,1,-1,31,26,-6,4,-39
1520204780200857,17,7,-2,-12,21,29,19,45
1520204780200857,-17,-11,-10,-9,-23,-103,13,-37
1520204780212889,16,17,8,-5,19,-13,-40,-17
1520204780212889,7,9,12,-3,-42,0,-14,39
1520204780221913,-8,-16,-7,-12,-17,1,4,16
1520204780221913,5,3,4,9,1,27,12,23
1520204780236953,-1,6,-5,6,-18,18,-2,-101
1520204780236953,-9,-5,-6,-2,36,-9,-20,23
1520204780238958,-12,-16,-5,-1,-25,11,3,-5
1520204780238958,-13,-11,-9,-20,9,6,-11,-8
1520204780260014,28,33,12,35,9,13,-4,-2
1520204780260014,-14,-15,-12,-63,-15,-62,-38,-31
1520204780262020,-14,-7,-4,54,9,75,44,71
1520204780262020,17,5,0,-46,-45,-45,-28,-44
1520204780273049,-2,-6,4,65,48,15,35,-27
1520204780273049,18,7,-1,-30,-6,-32,-2,5
1520204780282073,-16,-2,-8,-41,-34,-6,21,-14
1520204780282073,0,4,4,41,55,19,-21,2
1520204780297113,0,-3,0,-23,-40,-1,-7,21
1520204780297113,-10,-7,-7,-9,-21,11,31,39
1520204780298116,-3,-1,10,11,3,-23,-1,2
1520204780298116,-12,0,3,4,-12,36,-17,20
1520204780319172,8,4,0,-16,-19,-1,72,4
1520204780319172,-8,0,0,20,7,17,-49,18
1520204780321177,8,4,3,-14,-15,-27,-31,-21
1520204780321177,-12,-4,-14,-9,-28,9,3,52
1520204780333209,19,2,5,0,28,2,-8,-33
1520204780333209,-34,-6,3,-26,-20,-40,-10,-5
1520204780342233,4,-1,4,29,17,18,-41,79
1520204780342233,18,9,4,-46,-41,-24,12,-59
1520204780357273,-32,-15,-5,46,57,16,-22,35
1520204780357273,11,0,-3,-18,-3,18,8,-47
1520204780358276,13,11,6,9,-6,-9,-35,-30
1520204780358276,-10,-11,-27,-11,-4,6,44,77
1520204780379331,14,10,19,-13,16,59,-9,-20
1520204780379331,-2,-4,-8,2,17,28,1,-21
1520204780381337,6,1,-5,-8,-17,-50,6,22
1520204780381337,-4,-3,-2,7,21,9,-23,-27
1520204780393369,1,-2,-4,-13,-11,-13,19,19
1520204780393369,-2,-6,-3,13,12,10,17,6
1520204780402393,-8,-9,-3,-9,-4,-43,-14,-50
1520204780402393,15,9,11,19,35,38,18,-31
1520204780417433,8,8,-2,-12,-14,43,39,13
1520204780417433,-7,-3,1,8,-42,-49,-20,45
1520204780418436,-30,-28,-16,-13,17,-13,-10,-29
1520204780418436,43,34,24,17,26,-71,-10,-5
1520204780439492,-18,-12,-1,5,10,-21,0,-50
1520204780439492,22,2,-9,-1,-14,18,22,109
1520204780441497,-5,6,1,-7,-10,12,3,-28
1520204780441497,-26,-20,-13,2,-12,0,-11,32
1520204780453529,22,9,-5,-17,-18,0,-6,10
1520204780453529,-9,-1,5,10,-1,-12,6,-27
1520204780462553,8,-10,-3,5,11,10,-9,27
1520204780462553,-15,-1,0,1,13,20,12,46
1520204780476590,-20,-12,-7,-10,-32,-36,-19,12
1520204780476590,20,6,8,4,25,37,15,60
1520204780478596,-7,7,6,17,10,12,14,-50
1520204780478596,11,-3,-6,-5,-1,3,7,-20
1520204780499651,-5,3,-2,-8,-11,-14,-7,18
1520204780499651,24,20,5,-5,-14,-11,-4,-9
1520204780500655,-10,-2,0,-6,8,22,16,-13
1520204780500655,-15,-9,8,20,4,1,-11,-22
1520204780512686,-11,3,3,-8,-9,2,-12,28
1520204780512686,-28,-17,-2,11,5,-1,-4,-97
1520204780521710,53,15,-7,-10,-2,10,3,64
1520204780521710,3,-6,-4,5,4,18,-14,-88
1520204780535747,6,-3,-9,-2,-4,-8,2,-12
1520204780535747,-29,-1,2,-1,-2,-4,-13,32
1520204780544772,9,2,-2,-9,-21,13,-10,23
1520204780544772,-1,-13,0,10,27,11,10,-12
1520204780559812,82,16,2,-2,-1,-3,-10,6
1520204780559812,-98,-11,-6,-11,-10,-8,5,-87
1520204780560814,15,-21,-17,-2,5,11,2,-27
1520204780560814,30,22,3,-4,-6,5,2,53
1520204780572846,41,-9,4,11,1,-2,-6,-19
1520204780572846,-7,-2,-8,-10,-1,10,14,35
1520204780581870,-10,-5,-10,-5,1,-10,-3,-15
1520204780581870,30,2,9,14,3,3,1,-30
1520204780596910,-87,-6,6,-9,-9,-14,-17,-7
1520204780596910,93,19,-2,-1,-7,-3,5,-5
1520204780598916,-40,1,8,1,6,0,1,-23
1520204780598916,-36,-17,-12,-5,-3,-1,-1,2
1520204780618969,1,-3,-7,1,1,5,3,9
1520204780618969,71,0,-8,0,0,-4,4,-13
1520204780620975,-33,7,12,9,6,12,11,5
1520204780620975,-49,-2,-8,-26,-16,-5,-10,33
1520204780633007,-9,0,-1,-2,-1,-7,-11,-1
1520204780633007,-17,-5,3,15,11,4,10,6
1520204780642030,49,16,-7,-16,-1,10,26,82
1520204780642030,13,-3,6,20,-6,-18,-33,20
1520204780657070,-26,1,-5,-11,-6,-1,0,13
1520204780657070,23,-6,-6,-17,-7,6,10,-7
1520204780659076,-13,5,18,23,11,4,0,-18
1520204780659076,-33,1,-5,0,3,10,11,-30
1520204780679129,84,9,-5,-6,-6,-3,6,58
1520204780679129,-46,-10,10,10,1,-6,-20,-67
1520204780681135,21,-12,-7,-2,-2,-5,-3,-24
1520204780681135,-23,4,1,-11,-7,-1,7,3
1520204780693166,-23,-12,2,12,8,4,3,11
1520204780693166,3,0,3,-1,-2,-3,-6,16
1520204780702190,-30,-5,-1,6,0,-7,-7,-3
1520204780702190,39,7,2,4,0,-2,-3,17
1520204780724249,-18,-6,-7,-9,-5,3,8,-35
1520204780724249,2,6,7,10,7,10,11,16
1520204780726254,3,0,1,-13,-10,-9,-9,1
1520204780726254,-16,0,2,10,2,-2,-7,-9
1520204780739289,-4,-5,-10,-8,-2,2,8,9
1520204780739289,-19,-7,-4,-9,-7,-10,-13,-44
1520204780741295,50,5,-2,5,4,0,-3,-32
1520204780741295,-25,-6,-7,-13,-5,4,12,46
1520204780753326,14,7,4,-1,1,3,13,19
1520204780753326,8,8,2,-1,-3,-6,-9,-15
1520204780762350,-6,4,3,0,-3,-2,-5,19
1520204780762350,-13,-12,-7,-2,-1,4,8,-2
1520204780777391,3,5,2,4,-2,-7,-12,-24
1520204780777391,-19,-1,8,10,5,2,0,18
1520204780778394,22,-1,-12,-9,-7,-12,-20,-29
1520204780778394,27,10,5,3,3,3,7,2
1520204780799449,-14,-8,-4,-6,-3,0,3,-1
1520204780799449,-21,0,-10,-11,-11,-8,-15,1
1520204780801455,-57,-12,4,7,8,-2,-6,-21
1520204780801455,57,4,-1,-1,-1,1,-1,5
1520204780813486,-14,-5,-3,1,0,0,0,-22
1520204780813486,19,4,2,3,1,-1,-1,16
1520204780822511,-10,-1,3,-2,-3,3,7,34
1520204780822511,-10,-11,-9,-13,-9,-9,-10,-29
1520204780836548,12,13,7,5,1,0,-5,-16
1520204780836548,-8,-3,0,1,2,0,-1,-2
1520204780838554,-5,-2,-5,-5,-6,-4,-5,0
1520204780838554,37,8,6,4,2,2,5,-5
1520204780859609,-50,-12,4,10,4,3,-2,-17
1520204780859609,-14,-5,-10,-8,2,-2,-8,6
1520204780861614,5,6,7,0,-3,-3,3,5
1520204780861614,-5,-7,-6,-1,0,-1,-7,-19
1520204780872644,20,5,14,15,9,10,12,24
1520204780872644,15,-3,-38,-31,-21,-12,-2,-56
1520204780881668,-4,14,4,-7,-6,-1,-7,34
1520204780881668,-21,-2,-7,-7,-1,-15,-22,5
1520204780896708,18,7,5,2,27,5,1,-13
1520204780896708,-5,-19,6,16,12,22,26,11
1520204780902724,16,8,4,-2,5,-14,-2,-11
1520204780902724,-12,-1,-1,-1,-41,-4,-2,6
1520204780919769,-39,-24,-36,-23,-2,6,-15,14
1520204780919769,9,5,10,2,28,-28,-4,-10
1520204780920772,0,-6,15,25,-13,34,24,-20
1520204780920772,7,1,-19,-20,11,-25,-8,7
1520204780932804,-6,-5,9,2,-32,-1,-13,-8
1520204780932804,-6,-5,13,10,14,28,22,11
1520204780941828,23,11,-44,-50,-44,-51,-33,-21
1520204780941828,11,5,11,12,-82,-48,-9,-5
1520204780956868,0,0,-8,-8,75,66,-1,5
1520204780956868,24,15,5,-1,-27,79,29,11
1520204780958874,-60,-30,22,-29,-1,-50,-14,0
1520204780958874,37,16,-6,43,-25,-81,1,-17
1520204780979929,15,8,10,8,0,2,15,-21
1520204780979929,-1,-2,10,-2,-1,-91,-22,10
1520204780980932,-35,-22,10,33,20,127,39,47
1520204780980932,17,-1,-41,-46,2,-15,-24,10
1520204780992964,4,5,4,-3,-17,-22,-12,-18
1520204780992964,-11,-6,1,5,0,38,0,-2
1520204781001988,-14,-8,9,14,-12,-32,0,1
1520204781001988,-5,-1,0,-12,48,-29,3,-15
1520204781016025,12,3,2,20,1,-5,25,-45
1520204781016025,-9,-5,0,-9,-15,-16,-21,100
1520204781023044,13,9,-5,-5,4,-20,-25,-32
1520204781023044,-12,-5,2,6,12,89,36,7
1520204781039087,-2,-5,0,-6,-4,-24,-1,-44
1520204781039087,-5,-3,9,9,-23,0,13,-1
1520204781041092,36,23,-15,-5,-2,-14,-15,5
1520204781041092,-4,1,13,5,37,24,14,2
1520204781062148,-8,-1,-1,-15,-43,3,-18,-2
1520204781062148,2,-7,-12,0,21,16,2,-4
1520204781063151,11,8,6,9,0,26,4,28
1520204781063151,-18,-13,-7,-7,22,32,12,-14
1520204781076185,-8,-4,-4,-7,-34,-26,17,6
1520204781076185,4,4,0,5,20,-4,-64,-45
1520204781083204,5,-1,-5,4,61,5,47,-71
1520204781083204,-15,-7,13,3,-16,10,-20,18
1520204781099246,14,3,5,2,-17,11,-10,48
1520204781099246,-8,3,-2,-3,-5,0,15,-27
1520204781101252,-5,-8,-4,2,-12,6,-11,-14
1520204781101252,-7,-5,2,2,8,1,15,13
1520204781122308,-14,-9,-9,-3,21,-24,-4,-32
1520204781122308,7,1,-8,-5,-13,-38,-11,-37
1520204781123311,-19,7,8,8,4,28,-1,29
1520204781123311,23,-2,4,-1,-6,6,2,-82
1520204781137348,4,2,-2,-7,-4,35,17,56
1520204781137348,-15,-3,-2,4,15,6,-12,12
1520204781138350,22,5,8,7,-3,-10,5,38
1520204781138350,-23,7,4,-2,5,2,-14,2
1520204781159406,0,-4,-3,-5,-8,-24,-4,51
1520204781159406,4,-1,-4,-4,-6,2,28,-28
1520204781161412,-8,-9,-3,5,12,69,10,-22
1520204781161412,-3,11,7,-2,11,7,-6,-21
1520204781182468,12,-10,-15,-16,-33,-106,-39,52
1520204781182468,22,6,-2,-8,-12,-5,5,40
1520204781183471,-2,-5,-8,-7,-5,-17,-8,14
1520204781183471,-30,-5,3,4,-11,26,-22,16
1520204781196505,46,4,-1,4,8,22,-10,33
1520204781196505,-42,-7,-2,-5,3,0,-2,4
1520204781203524,14,0,-5,0,-15,-33,61,-64
1520204781203524,-10,4,8,2,5,2,-9,77
1520204781219567,-4,2,6,8,13,11,0,-52
1520204781219567,60,16,6,0,-2,3,9,64
1520204781221572,-1,-4,-15,-16,-10,-26,-29,-87
1520204781221572,-55,-11,1,7,0,-10,9,-75
1520204781241625,9,-7,-8,3,6,25,4,-8
1520204781241625,42,10,-2,-12,-11,-9,-2,70
1520204781243631,-85,-21,2,8,8,-6,5,23
1520204781243631,60,13,-2,-3,-5,2,-6,42
1520204781256665,-33,4,8,0,-6,-7,-14,20
1520204781256665,6,-3,-8,2,5,5,22,-93
1520204781262681,-23,-2,1,-4,-7,-24,-34,5
1520204781262681,66,5,-2,4,6,6,0,31
1520204781279727,-39,3,0,-9,-1,6,13,-20
1520204781279727,-87,-23,-2,-2,-5,-1,-7,-53
1520204781280730,24,-8,-5,11,9,4,34,34
1520204781280730,20,13,11,4,-4,-20,-23,36
1520204781301785,33,-2,-1,-1,0,-7,1,-16
1520204781301785,-17,9,-4,-9,-7,1,6,35
1520204781303791,-64,-11,14,10,11,-2,-5,-101
1520204781303791,82,6,-9,-3,-5,2,17,-7
1520204781315822,11,-4,-1,-5,-3,-4,-8,85
1520204781315822,-76,-16,7,12,13,9,5,-99
1520204781324847,104,26,-4,-3,0,-5,-30,127
1520204781324847,-48,-9,2,-5,-5,1,16,6
1520204781339887,-41,-5,-2,2,3,12,0,-81
1520204781339887,72,4,-1,6,7,6,4,24
1520204781340890,7,14,2,-5,-7,-13,-12,-25
1520204781340890,-9,-18,-8,-5,1,2,3,-38
1520204781361945,-39,14,0,-2,0,1,-15,25
1520204781361945,-104,-31,-5,-4,-13,-5,3,23
1520204781375983,-9,-3,1,7,18,-8,-16,0
1520204781375983,77,13,-7,-11,2,5,5,99
1520204781376986,-120,-20,6,4,5,8,11,-72
1520204781376986,33,1,-3,1,0,-5,-5,-32
1520204781385007,23,-10,-8,-10,-19,-7,-21,-13
1520204781385007,-13,13,-4,-1,-3,1,-3,34
1520204781399044,12,1,4,1,5,-3,5,2
1520204781399044,-9,7,-1,-1,-4,-3,-9,-7
1520204781401050,-5,-1,5,2,1,-1,1,-35
1520204781401050,-29,-23,-15,-4,-1,-2,2,-67
1520204781422106,31,29,1,-3,-4,1,1,3
1520204781422106,-6,0,2,-2,-1,-1,-1,-32
1520204781423108,-37,14,13,7,4,4,-4,-17
1520204781423108,72,-18,-17,-7,-7,-9,-8,8
1520204781435140,-75,-21,1,0,-2,4,4,-49
1520204781435140,86,-1,0,1,7,-1,-5,10
1520204781445167,16,50,4,-6,-6,-3,6,28
1520204781445167,-79,13,11,8,7,6,3,-52
1520204781459204,-22,-19,-4,1,1,0,16,7
1520204781459204,98,7,5,7,-5,-7,-22,28
1520204781465220,51,-16,-14,-17,-20,-7,8,99
1520204781465220,-56,-36,-3,-6,-4,1,2,-32
1520204781482265,-17,68,22,17,16,10,7,-41
1520204781482265,-58,-35,-11,-9,-5,-5,-1,-62
1520204781483268,22,0,4,-1,0,5,16,4
1520204781483268,-4,2,15,10,2,-5,-36,-16
1520204781495300,48,-30,-24,-15,-12,-9,-13,51
1520204781495300,-48,20,14,6,-11,8,21,-51
1520204781504324,-47,1,-4,6,24,2,29,-99
1520204781504324,21,-2,18,12,13,15,-7,9
1520204781519364,127,-3,-10,-8,-10,-4,2,5
1520204781519364,-20,1,-19,-14,-4,-11,-31,61
1520204781521370,11,-49,-20,-4,-5,-1,-9,-50
1520204781521370,-88,-25,-3,3,-1,6,27,-66
1520204781542425,34,54,26,17,10,0,-1,28
1520204781542425,89,54,17,1,-5,9,37,16
1520204781543428,-19,-46,-21,-16,-6,-4,-19,67
1520204781543428,-47,11,7,1,-4,-6,-3,25
1520204781555460,16,-49,-25,-1,3,1,-8,-59
1520204781555460,27,-2,7,12,8,5,1,39
1520204781564484,-76,7,0,-6,-13,-5,-6,-18
1520204781564484,-37,-11,-17,-8,1,-2,2,3
1520204781579524,-21,-16,-5,-4,-3,-1,2,-46
1520204781579524,-12,-32,-9,-8,-7,-3,-8,-11
1520204781581530,11,30,1,3,13,41,-10,2
1520204781581530,25,4,-8,-12,-16,-63,-3,38
1520204781601583,-67,-29,-2,4,7,11,5,-43
1520204781601583,24,65,20,1,-1,-7,-9,26
1520204781603588,-63,1,-31,-13,-8,-12,-14,-10
1520204781603588,46,23,27,17,-2,26,15,-25
1520204781615620,-22,-4,20,7,-10,-12,-9,23
1520204781615620,48,-18,-5,3,-2,-4,0,4
1520204781624644,48,-73,-41,-23,-10,-4,0,-14
1520204781624644,45,55,31,4,0,1,-7,9
1520204781646703,41,-36,-12,4,1,-4,5,51
1520204781646703,-84,-43,-26,-25,1,4,5,-25
1520204781652719,20,2,21,27,1,18,-3,5
1520204781652719,-26,-18,-39,-19,-1,-41,0,-28
1520204781661743,-1,23,16,1,-5,-2,-14,31
1520204781661743,66,-12,-15,-3,3,0,-7,12
1520204781663748,-66,-29,-16,-10,2,-5,8,-10
1520204781663748,-8,21,24,3,-10,13,-9,15
1520204781675780,-51,-4,-4,6,11,19,7,-38
1520204781675780,26,104,1,-22,-5,-21,-13,20
1520204781684804,-55,-70,23,34,-3,-11,1,1
1520204781684804,20,-9,-23,-8,20,25,12,-15
1520204781699844,72,41,30,16,-18,-11,-6,13
1520204781699844,-36,-64,-1,-20,11,12,9,5
1520204781700847,-58,30,-2,-19,-7,-16,-9,0
1520204781700847,47,-23,-7,15,-20,1,0,5
1520204781721903,-11,-2,-14,10,7,-2,-7,-17
1520204781721903,-43,15,-3,-15,18,6,1,-19
1520204781723909,59,8,25,13,-25,-11,1,20
1520204781723909,-60,-66,-43,-13,6,6,2,-15
1520204781735940,5,63,16,-17,-7,-2,-5,6
1520204781735940,4,-18,12,65,-8,3,7,-5
1520204781744964,-14,16,-4,-37,11,-2,3,-9
1520204781744964,32,4,-3,15,2,5,-2,15
1520204781759002,11,-58,-18,-7,-18,-6,-7,-10
1520204781759002,9,61,24,14,-4,-8,-8,-8
1520204781761007,20,-20,8,13,12,5,7,-4
1520204781761007,41,20,2,-7,-28,-11,-17,16
1520204781782063,-6,-56,-78,-47,16,2,0,-11
1520204781782063,5,-36,28,36,11,12,4,10
1520204781784069,68,127,73,80,-28,-12,-16,35
1520204781784069,-57,-57,-19,-40,9,11,10,-23
1520204781796100,17,37,2,-34,8,5,-2,24
1520204781796100,-14,-69,-30,3,-5,-25,-3,-35
1520204781805124,23,-41,-41,-40,-14,-10,-4,1
1520204781805124,21,42,-13,-23,15,6,5,-13
1520204781819162,-53,-45,19,62,-16,11,2,4
1520204781819162,-1,38,32,6,5,7,-3,24
1520204781821167,15,12,-6,-26,20,0,8,-1
1520204781821167,-47,-89,-59,-30,-33,-8,-7,9
1520204781842223,17,102,90,91,-2,0,10,19
1520204781842223,-38,-91,-81,-47,4,6,3,-43
1520204781843226,2,85,47,42,-4,15,-11,27
1520204781843226,-10,-61,11,-3,6,-47,-1,-18
1520204781855258,19,32,49,-34,13,1,5,31
1520204781855258,-4,-30,-10,-15,-16,-6,1,10
1520204781864282,29,64,-4,-18,9,18,1,-37
1520204781864282,-58,2,50,6,20,18,-3,-23
1520204781879322,34,-17,-60,-24,-43,-28,-16,64
1520204781879322,18,24,86,107,1,9,13,-16
1520204781881327,-11,-70,-77,-53,-2,-13,1,-5
1520204781881327,-5,-19,-37,-55,-3,1,-4,3
1520204781902383,20,76,41,51,32,2,-1,-22
1520204781902383,-3,-25,-52,-67,-3,5,-5,9
1520204781903386,-20,-90,-13,-6,-9,-10,-5,5
1520204781903386,40,48,22,27,2,4,19,-1
1520204781915418,-39,-99,-92,-91,1,5,-2,-16
1520204781915418,-11,-18,-12,38,-9,-5,-7,-8
1520204781924442,12,55,29,-8,39,31,10,-17
1520204781924442,-9,88,90,114,-12,-11,-5,41
1520204781939482,5,-40,-45,-46,5,-2,1,-25
1520204781939482,0,-39,-26,-41,-3,-7,-5,-5
1520204781941487,12,-35,8,7,16,-8,5,-24
1520204781941487,6,-23,-41,-22,-2,29,-4,29
1520204781961540,-21,-11,8,0,-3,3,4,-18
1520204781961540,32,5,12,-5,-2,-14,-1,2
1520204781963546,2,-16,-17,-17,-15,1,0,9
1520204781963546,-17,6,11,3,2,0,0,0
1520204781984602,-10,0,5,10,10,74,-13,-14
1520204781984602,-5,26,1,-22,2,-75,-9,-8
1520204781986608,13,-1,5,20,-4,-30,-10,-1
1520204781986608,8,-1,-4,10,-1,30,18,-21
1520204781999642,1,-10,4,-4,-3,4,32,-12
1520204781999642,-21,16,-14,-7,11,-8,-64,42
1520204782000645,3,-9,-1,17,7,30,23,-14
1520204782000645,10,31,19,4,7,-16,5,21
1520204782021700,-15,-17,-21,-13,-9,8,15,36
1520204782021700,-7,16,9,-9,-9,-15,-58,9
1520204782023706,-5,9,-2,-6,-19,-16,8,-49
1520204782023706,21,1,-2,-9,-2,-14,34,-19
1520204782044762,7,-9,-1,16,24,2,-11,-33
1520204782044762,-18,11,3,5,1,-1,17,-43
1520204782045765,-20,-19,-4,-7,-2,17,-45,24
1520204782045765,-17,-4,-10,0,5,81,27,-67
1520204782058799,1,-8,1,-3,-45,-128,-14,-14
1520204782058799,3,30,8,-1,11,41,33,-29
1520204782065818,9,-5,-8,-2,12,39,-34,-4
1520204782065818,-13,-4,-7,-5,-2,-25,-18,-34
1520204782081861,-1,-4,4,0,-4,-33,5,28
1520204782081861,-11,-2,3,-5,-24,-7,0,12
1520204782083866,20,15,5,2,13,22,52,-36
1520204782083866,-6,-10,-9,-4,11,-11,-20,73
1520204782103919,16,0,7,8,35,38,-12,-18
1520204782103919,-7,-4,1,-1,-7,-8,18,2
1520204782111941,12,4,8,5,-7,-27,0,10
1520204782111941,6,1,-6,-6,-17,-21,-18,26
1520204782117957,-30,-23,-9,-10,-3,6,-1,-29
1520204782117957,44,33,-2,-6,-7,23,20,-36
1520204782126981,-26,-17,7,4,-7,-40,-9,52
1520204782126981,-7,-8,-9,-8,2,16,0,-47
1520204782142021,14,6,-6,0,-7,-4,12,16
1520204782142021,-4,-4,2,5,10,27,15,-34
1520204782144026,14,9,2,2,-5,19,8,16
1520204782144026,-7,-3,0,-1,4,-52,-25,-102
1520204782164079,8,5,10,3,0,8,-19,64
1520204782164079,-22,-9,-3,-3,-5,16,10,-30
1520204782166085,38,6,-27,-25,-17,22,19,98
1520204782166085,-17,-16,11,16,19,-48,-34,94
1520204782178117,45,21,7,10,4,26,18,-30
1520204782178117,-1,-4,-4,-7,3,1,-12,-24
1520204782187141,-23,-6,7,4,-13,-44,-19,-64
1520204782187141,-31,2,-4,-9,-2,52,10,-11
1520204782202181,9,-11,-10,-4,0,-17,19,-5
1520204782202181,12,9,5,-11,-6,6,13,-21
1520204782203183,-42,-17,2,18,13,1,-28,5
1520204782203183,73,44,-14,-20,-19,-22,-2,-54
1520204782224239,-62,-48,0,10,7,28,1,70
1520204782224239,53,34,3,-5,-9,-45,-30,-8
1520204782226245,-13,-4,-4,-13,-13,4,6,-47
1520204782226245,-55,-23,13,23,31,-30,-28,-6
1520204782238277,41,16,-3,-6,-11,17,9,-1
1520204782238277,-29,-39,-7,-3,0,-8,20,-12
1520204782247301,2,12,-7,-2,-6,13,-20,116
1520204782247301,6,-20,-4,7,18,34,27,-72
1520204782262341,45,49,9,-11,-10,-29,-47,28
1520204782262341,-31,-22,2,12,15,-8,-10,47
1520204782263343,2,-16,-4,-1,3,6,23,-128
1520204782263343,-45,7,-6,-17,-31,8,-24,15
1520204782284399,-57,-15,-3,-1,-10,-2,-18,-98
1520204782284399,-45,-16,7,11,8,-77,6,-78
1520204782286405,72,47,12,3,-4,-14,7,112
1520204782286405,-45,-25,0,2,-5,18,8,-31
1520204782298437,-2,-17,-10,-2,-1,9,8,-87
1520204782298437,20,21,-13,-23,-15,58,21,127
1520204782307461,-75,-28,15,25,14,6,4,-113
1520204782307461,70,8,-1,-1,-11,-48,23,12
1520204782321498,9,26,13,4,11,44,19,-81
1520204782321498,5,14,8,1,-1,-29,-27,-33
1520204782323504,17,-15,-8,-3,-1,-17,14,11
1520204782323504,18,15,0,-5,8,21,8,36
1520204782344559,-52,-35,-10,0,-11,6,0,-32
1520204782344559,52,12,1,5,14,25,-4,75
1520204782346565,-40,1,4,-4,-2,32,26,-31
1520204782346565,21,13,2,0,-8,-16,-1,-6
1520204782358596,-51,-21,-15,-10,0,-21,-1,57
1520204782358596,7,-5,7,7,3,25,-1,12
1520204782367621,-3,8,-2,-6,-9,-15,-9,11
1520204782367621,-2,-1,5,-5,11,-10,5,-6
1520204782381658,-37,-22,-5,2,-8,-26,-12,-56
1520204782381658,49,23,-2,-4,-6,14,3,35
1520204782383664,-45,-16,2,0,8,-6,-10,-27
1520204782383664,23,7,-14,-7,-13,-1,2,27
1520204782404719,35,0,6,7,11,-5,-4,13
1520204782404719,-33,-11,-5,0,-5,1,3,-19
1520204782405722,-10,-13,-5,-2,1,-7,-3,-32
1520204782405722,6,9,1,6,6,20,-5,24
1520204782417754,6,10,0,-11,-8,-16,-5,22
1520204782417754,-2,-15,-13,-1,-1,15,12,-28
1520204782434799,12,16,4,-5,-1,-13,-5,33
1520204782434799,-1,-12,6,14,19,17,1,-12
1520204782441818,-11,7,-2,-5,-6,-8,-2,16
1520204782441818,-42,-17,-10,-12,-4,0,1,-15
1520204782443824,19,15,14,15,16,-7,-5,-9
1520204782443824,20,23,11,-5,-7,-1,-8,8
1520204782464879,-15,-5,8,6,4,5,5,-5
1520204782464879,0,13,12,15,6,11,7,-6
1520204782465882,41,-24,-30,-20,-9,-16,-8,0
1520204782465882,-67,7,9,2,-2,8,3,7
1520204782477914,52,17,-12,-8,4,0,2,24
1520204782477914,-32,-42,-7,1,0,9,-3,-10
1520204782486938,15,53,15,0,1,-21,-4,-3
1520204782486938,-49,-79,-30,-12,-9,-1,-2,-21
1520204782501978,62,25,8,-8,-11,-9,-7,45
1520204782501978,-16,-6,1,15,-1,-4,3,-16
1520204782503984,63,-34,-3,7,3,4,-3,-26
1520204782503984,-72,87,15,-4,-16,-2,-3,29
1520204782524037,35,-39,-3,10,12,-1,-3,-12
1520204782524037,-81,-54,-20,-9,0,8,7,-29
1520204782532058,80,64,13,8,-2,-5,-3,43
1520204782532058,-3,-53,-20,-12,-4,-7,-12,-3
1520204782538074,-16,14,3,2,0,11,1,2
1520204782538074,9,20,11,-2,0,-14,5,-6
1520204782547098,-33,-34,-12,-13,-4,23,5,-23
1520204782547098,53,10,6,3,-3,-24,2,4
1520204782562138,2,-7,-3,2,2,0,6,-18
1520204782562138,59,20,-5,-11,-7,0,-6,13
1520204782563141,-107,-3,17,9,4,2,1,-36
1520204782563141,79,47,-2,-6,-2,4,0,53
1520204782584197,-22,-35,-10,-10,8,2,-1,-20
1520204782584197,-22,35,23,27,3,-1,-8,-13
1520204782586202,83,23,-3,-4,-8,-6,-1,20
1520204782586202,-82,-48,-26,-6,-1,6,-10,-3
1520204782598234,-23,-60,-21,-6,2,-7,2,-12
1520204782598234,29,97,35,3,-13,4,-3,18
1520204782607258,35,18,-12,-9,11,-2,-4,28
1520204782607258,-31,-45,-8,0,-35,-9,-6,-6
1520204782622298,-59,-38,42,32,12,10,18,-6
1520204782622298,50,12,-31,-25,-4,-5,0,15
1520204782623301,-7,23,-11,-9,6,-3,-2,-11
1520204782623301,39,0,3,5,3,6,16,17
1520204782644357,-46,-19,-19,-11,-5,-4,-11,-10
1520204782644357,-22,-79,-10,2,-1,3,-3,-13
1520204782646362,-23,11,-15,-2,-4,-4,-3,-14
1520204782646362,10,-8,16,2,3,6,9,23
1520204782658394,80,45,-22,-29,-7,-10,-6,8
1520204782658394,-13,-9,11,9,6,2,3,1
1520204782667418,-12,-63,-8,24,-8,-2,2,12
1520204782667418,-16,68,38,13,22,9,-4,-41
1520204782682458,-36,28,18,2,0,0,-2,-1
1520204782682458,28,-23,-54,-55,1,22,4,20
1520204782683461,13,2,63,51,-5,-40,-11,-13
1520204782683461,18,23,-12,-5,6,5,5,0
1520204782704517,-19,-74,-72,2,-21,-10,2,-1
1520204782704517,54,55,42,24,16,6,-2,-2
1520204782706522,-93,-107,-102,-79,-21,0,3,-9
1520204782706522,-46,86,67,35,15,28,-4,-18
1520204782718554,10,-27,-6,10,0,-57,-4,-22
1520204782718554,19,55,-7,-3,-14,-7,-8,14
1520204782727578,8,46,42,47,-2,-2,3,5
1520204782727578,13,-128,-77,-55,1,26,3,10
1520204782741615,-43,93,40,-7,6,19,-1,3
1520204782741615,-47,8,39,-36,-25,-42,-11,-3
1520204782743621,32,-51,1,27,14,22,9,-3
1520204782743621,-4,-116,-98,-27,-13,2,0,5
1520204782764677,25,82,98,28,27,4,8,3
1520204782764677,-10,-49,-9,31,-1,-1,-4,-23
1520204782765680,-51,-30,10,-24,-8,-3,-4,6
1520204782765680,32,-120,-99,-59,9,-1,0,-10
1520204782777712,27,-30,-39,67,-30,-8,-9,22
1520204782777712,-24,-15,44,36,17,20,17,-10
1520204782786735,-19,60,16,-79,4,-8,-6,-3
1520204782786735,62,126,123,127,3,-6,5,2
1520204782802778,-39,-95,-83,-76,-4,6,-8,-23
1520204782802778,-2,-22,-34,-7,-15,10,-2,16
1520204782803781,-29,-125,-78,-62,17,-18,3,-17
1520204782803781,-22,-6,69,49,-17,-5,-4,-13
1520204782824837,88,71,-27,-39,7,0,-4,-5
1520204782824837,11,22,-20,35,-23,-10,-9,31
1520204782825840,-3,-59,-19,7,8,101,8,-6
1520204782825840,-5,65,-25,-80,0,-77,-5,-23
1520204782837871,-12,-32,8,11,-18,-39,-11,8
1520204782837871,-26,-124,-23,11,30,20,16,-21
1520204782846895,26,127,97,-13,2,-10,-3,9
1520204782846895,11,-11,-7,40,-14,21,0,11
1520204782861936,-20,-17,1,-4,6,30,2,-4
1520204782861936,-2,-2,-35,-64,1,-21,-5,-10
1520204782863941,27,27,-21,-8,-12,-29,-11,16
1520204782863941,-48,-76,37,71,-7,3,3,0
1520204782884997,26,66,8,-22,6,0,12,8
1520204782884997,4,16,12,11,2,22,1,3
1520204782886000,6,-10,-1,34,4,-6,4,0
1520204782886000,-6,26,0,-53,2,-11,-7,0
1520204782898032,-5,-10,-18,-17,-5,38,-26,27
1520204782898032,8,23,27,23,-9,-48,-8,-15
1520204782907056,-2,13,-8,-7,0,21,58,-7
1520204782907056,26,-7,-28,-52,-8,-70,-26,-25
1520204782922095,2,25,56,68,5,8,-17,22
1520204782922095,-9,-13,-16,0,5,-18,-66,-13
1520204782924101,-31,-21,-24,-16,-20,49,3,-23
1520204782924101,26,22,-1,-13,19,53,13,46
1520204782944154,-7,-4,1,-14,4,90,25,-31
1520204782944154,-27,-3,-1,-19,9,-75,41,24
1520204782946160,18,1,-7,29,19,43,-51,3
1520204782946160,6,21,26,21,0,58,57,12
1520204782967215,-11,-13,-10,-57,1,-116,-105,-48
1520204782967215,30,13,16,66,-21,57,35,7
1520204782968219,-11,3,-23,-49,19,-24,10,26
1520204782968219,-14,-13,6,59,5,-31,-34,-24
1520204782981253,-12,-5,-10,-25,12,7,42,0
1520204782981253,-22,-6,-9,-12,-43,40,-20,69
1520204782989274,1,-6,-5,-13,-4,-106,-46,-78
1520204782989274,34,6,-26,-38,63,127,2,-15
1520204783004314,2,4,42,58,-55,-70,118,95
1520204783004314,17,-4,-18,-50,23,-70,-86,-69
1520204783006320,7,11,28,67,-47,-12,12,-6
1520204783006320,-19,3,-25,-28,23,-7,-29,-3
1520204783027376,-27,-15,-17,-13,-27,-23,-41,3
1520204783027376,-9,-7,-11,-11,6,127,14,-9
1520204783028378,7,-17,-17,-42,12,-107,13,12
1520204783028378,5,17,22,40,-20,-20,6,-2
1520204783041413,18,13,-14,-27,9,41,-13,8
1520204783041413,-11,3,3,-2,-3,7,18,25
1520204783048431,-14,-6,-5,10,29,82,19,31
1520204783048431,8,-1,1,-9,21,-21,28,-7
1520204783064474,-12,8,18,1,-37,-19,-27,7
1520204783064474,17,0,-4,-9,7,-23,15,-40
1520204783066480,19,19,20,37,-39,-18,-43,19
1520204783066480,-20,-24,-28,-37,-34,20,-3,13
1520204783087536,4,22,17,21,65,-38,25,-12
1520204783087536,6,8,0,-20,1,-87,-5,-25
1520204783088538,-2,-15,20,19,-19,-3,3,1
1520204783088538,-7,10,8,-1,-34,25,8,16
1520204783101573,-9,-30,-23,-17,-32,-5,-70,-10
1520204783101573,13,6,8,45,81,49,53,-16
1520204783108592,8,14,-3,-43,-17,-9,11,21
1520204783108592,-11,-7,6,-4,-28,-44,-28,-9
1520204783124634,6,0,-13,1,-44,1,-9,-9
1520204783124634,-4,-3,-2,-7,41,21,44,-1
1520204783126640,-2,-7,-4,19,31,37,-18,-11
1520204783126640,-6,-4,-9,-26,-6,-44,1,-6
1520204783146693,1,7,10,5,28,89,4,15
1520204783146693,1,-1,1,-3,-27,-20,-14,-6
1520204783148699,-9,-5,-2,20,0,21,16,5
1520204783148699,-6,-15,-5,-12,-18,-18,-14,-4
1520204783161733,-1,6,-1,8,18,100,22,3
1520204783161733,19,23,9,3,-15,-68,8,6
