timestamp,emg1,emg2,emg3,emg4,emg5,emg6,emg7,emg8
1520204853430171,32,-7,-11,-49,40,-33,38,17
1520204853430171,43,15,-4,71,-86,0,37,-68
1520204853432179,11,19,16,-6,121,-8,-76,-9
1520204853432179,-7,-10,-15,-10,-33,12,71,-89
1520204853453233,-59,-9,-11,-21,-6,25,-23,-12
1520204853453233,-36,-31,-14,-13,-42,-20,-37,62
1520204853454236,-13,4,-5,12,-59,38,35,-81
1520204853454236,-7,16,31,-31,19,-41,-31,32
1520204853467273,9,1,-9,-24,-13,5,-31,-111
1520204853467273,-25,-7,1,37,-17,-28,18,41
1520204853475291,-22,-2,-7,-44,-27,-1,-28,-38
1520204853475291,32,-7,-15,40,8,19,7,4
1520204853490331,-74,8,18,-45,-21,-56,-11,-23
1520204853490331,14,2,3,27,34,21,-5,112
1520204853492338,67,-14,-13,-50,-31,-9,25,-44
1520204853492338,-14,-2,-1,38,59,-21,-3,6
1520204853513392,66,20,14,35,18,26,16,73
1520204853513392,-17,-4,-3,-53,-20,-6,-2,48
1520204853514395,-18,-20,-12,-56,-23,30,-33,30
1520204853514395,26,26,22,26,38,-21,-47,26
1520204853526427,17,-3,4,99,83,-7,50,15
1520204853526427,17,17,12,20,16,-3,-28,-45
1520204853541467,-18,-3,-4,-18,14,38,30,-25
1520204853541467,65,1,-4,-35,-58,-11,-36,49
1520204853550492,-26,-15,-12,-42,-12,27,49,60
1520204853550492,-4,-4,4,22,9,-14,-8,-41
1520204853552496,-1,-3,-7,9,4,16,8,23
1520204853552496,-17,1,3,11,-22,4,8,-105
1520204853573552,30,-15,-16,-5,-40,-19,-73,30
1520204853573552,11,-7,-9,-56,-35,-29,-3,-43
1520204853574555,21,13,8,12,19,5,10,-8
1520204853574555,-25,1,0,18,2,12,42,8
1520204853586587,50,12,11,-11,-28,12,0,-17
1520204853586587,12,8,2,-15,0,-23,-39,-18
1520204853595613,-31,-5,1,24,7,-10,-35,-15
1520204853595613,16,-6,-7,7,-5,-24,28,-28
1520204853610651,6,-1,-1,-25,-20,4,-22,-28
1520204853610651,23,3,-1,4,7,30,48,4
1520204853612656,25,8,4,30,32,-35,-7,-48
1520204853612656,-18,-10,-8,-11,-13,15,14,7
1520204853632711,4,2,0,-13,-31,-34,-37,37
1520204853632711,-10,0,4,15,35,-2,5,-61
1520204853634715,29,12,3,8,-14,-7,10,-60
1520204853634715,-70,-29,-15,-27,1,51,-5,98
1520204853646747,90,19,6,10,1,-28,33,28
1520204853646747,-42,-9,0,8,14,-13,0,73
1520204853655771,3,-4,-4,-9,-22,-15,-4,17
1520204853655771,48,6,-2,3,9,45,11,-22
1520204853670811,16,6,2,8,4,24,2,-43
1520204853670811,-34,-2,-2,-9,7,7,11,-1
1520204853671814,-24,-12,-2,3,-4,-14,-12,0
1520204853671814,-14,6,-6,-3,-13,-28,-11,-17
1520204853692869,40,10,5,2,5,32,17,-39
1520204853692869,-52,-8,-2,-1,0,-25,-8,-65
1520204853694875,11,1,1,4,4,12,-12,-21
1520204853694875,-51,-13,-3,-2,-8,-12,14,-10
1520204853706907,8,9,4,-5,-3,29,-4,93
1520204853706907,63,5,-10,-8,-1,-32,21,-51
1520204853715931,-51,-6,4,12,6,-21,-12,6
1520204853715931,35,5,4,-4,-4,2,8,-18
1520204853730971,-24,-6,-4,-7,-14,-15,-17,19
1520204853730971,31,-6,-4,3,9,8,3,-12
1520204853731974,-69,-11,-4,2,5,35,3,46
1520204853731974,60,6,-1,-4,-12,-28,6,0
1520204853753029,-8,-9,-2,1,2,9,-2,-6
1520204853753029,-7,6,0,-3,0,-1,-19,-16
1520204853755035,-31,1,-1,3,4,-1,10,-78
1520204853755035,-19,-4,0,-5,-7,-3,-15,73
1520204853767067,9,-3,-4,-1,-3,-2,-9,-19
1520204853767067,-61,-10,-1,0,6,12,10,42
1520204853776091,13,-9,-7,-3,-6,-10,0,15
1520204853776091,-24,2,3,2,2,4,6,-25
1520204853790128,64,6,-6,-4,-4,-4,-10,59
1520204853790128,8,-8,-3,0,2,-1,7,-25
1520204853792134,-14,10,5,0,0,4,-1,12
1520204853792134,16,-2,1,4,0,6,-3,19
1520204853813189,19,7,7,1,2,6,2,-31
1520204853813189,59,14,4,2,5,2,5,34
1520204853815195,-26,-22,-15,-4,-3,-2,-6,-19
1520204853815195,16,7,6,1,4,4,4,4
1520204853827227,-35,-5,-2,-2,-4,-8,-4,-41
1520204853827227,-36,-12,-1,1,0,1,-3,8
1520204853836251,85,12,6,5,3,5,-2,38
1520204853836251,39,7,-3,-6,-6,-8,0,-4
1520204853850288,-52,-11,-1,-1,2,2,-1,-20
1520204853850288,14,10,2,1,1,-1,0,-6
1520204853852297,-18,-11,-3,0,0,1,3,8
1520204853852297,21,-13,-7,-1,-2,-2,0,-23
1520204853873350,-3,13,3,-1,0,-1,-5,-3
1520204853873350,-22,-2,5,0,-1,1,-6,26
1520204853874353,29,9,-1,-2,-3,-4,2,26
1520204853874353,5,-4,-6,-3,-2,-1,6,12
1520204853895409,-4,-17,-4,-4,-5,-6,-13,-28
1520204853895409,8,8,-3,-1,0,-3,-5,-11
1520204853897414,72,13,13,11,5,3,-2,-1
1520204853897414,-110,-3,6,1,1,1,5,-25
1520204853910448,9,-6,-5,-4,-4,-6,-7,22
1520204853910448,33,-15,-7,-5,-1,-1,2,-29
1520204853916464,19,19,-2,-3,-5,-5,-3,26
1520204853916464,-48,-8,-5,-1,1,1,1,-21
1520204853934513,-48,-30,-4,-3,-3,-7,-17,-20
1520204853934513,62,34,1,1,2,5,11,23
1520204853936518,-75,-6,7,2,2,-1,-4,-4
1520204853936518,55,15,1,-1,-5,-7,-10,4
1520204853955568,-51,-22,-1,-4,2,1,7,-6
1520204853955568,49,-21,-14,-6,-2,-1,-3,13
1520204853957574,-68,-6,-5,-5,-3,-1,-3,-30
1520204853957574,16,-9,-6,-1,-3,-3,-1,29
1520204853969606,-35,77,18,11,4,1,-1,-28
1520204853969606,37,-3,8,4,1,1,-5,7
1520204853976625,-34,-3,-14,-9,-5,-9,-13,2
1520204853976625,54,-94,-5,-6,-3,-2,6,25
1520204853992667,68,92,27,4,0,2,4,-15
1520204853992667,-109,-78,-17,-2,0,-4,-3,-12
1520204853994673,67,6,-2,3,1,-1,-5,-14
1520204853994673,12,81,14,9,5,3,5,-2
1520204854015729,-21,-115,-31,-10,-4,0,6,38
1520204854015729,-73,111,43,11,6,7,11,-34
1520204854017734,65,-70,-22,-10,-6,-5,0,-16
1520204854017734,53,-19,-8,3,5,2,-9,-28
1520204854029766,-67,45,9,-2,-3,-1,-3,18
1520204854029766,-47,57,2,-4,-6,-5,-1,-12
1520204854036784,127,17,9,10,7,6,2,-8
1520204854036784,66,39,1,-4,-3,-2,4,-18
1520204854052827,2,-41,-32,-16,-14,-12,-23,-1
1520204854052827,-14,-24,9,-2,-1,0,4,16
1520204854054832,-79,5,2,-1,-3,-9,-21,-65
1520204854054832,-52,-29,-6,-1,-2,0,-4,25
1520204854075889,44,65,20,10,5,12,46,-41
1520204854075889,-15,-44,-11,1,1,-1,-18,22
1520204854076892,110,37,-2,-7,-10,-10,-11,99
1520204854076892,-82,-30,-3,-5,0,2,1,-4
1520204854089926,80,-20,-14,-3,-1,-2,-12,-63
1520204854089926,108,10,5,14,12,8,20,1
1520204854096944,-18,8,14,-5,-5,6,16,11
1520204854096944,-24,-17,-14,-5,-7,-12,-21,-81
1520204854112987,32,-37,-8,-2,-1,-1,5,110
1520204854112987,77,-3,-1,0,3,2,3,-63
1520204854114992,-3,3,-7,-1,0,-4,-13,44
1520204854114992,-31,28,5,3,-2,-3,2,8
1520204854136048,-53,31,-1,-4,-5,-7,-2,5
1520204854136048,-34,-31,-17,-6,-5,-3,-7,-2
1520204854137052,-80,-19,1,0,3,4,7,47
1520204854137052,-43,10,8,-2,-5,-7,-14,0
1520204854150086,77,-17,4,11,3,4,6,17
1520204854150086,31,-30,-16,-1,2,-1,1,-28
1520204854157105,51,20,-2,-27,-19,-12,-10,-13
1520204854157105,18,2,3,11,12,12,20,-19
1520204854174150,-86,-26,-14,-11,-5,-6,-6,33
1520204854174150,58,25,14,-2,-4,-7,-13,34
1520204854176156,103,-7,-2,20,16,18,40,7
1520204854176156,-73,-18,3,-3,-6,-7,-22,26
1520204854195206,92,0,11,1,6,5,0,33
1520204854195206,36,4,-8,-8,-10,-9,-20,-42
1520204854197212,-128,-24,-7,0,3,-1,0,69
1520204854197212,67,18,4,2,0,5,14,29
1520204854210246,50,2,-2,-2,-4,-4,-11,-46
1520204854210246,11,-4,1,-6,-3,0,-2,36
1520204854216262,-22,-16,-1,9,9,8,-3,-49
1520204854216262,-15,-2,-7,-8,-8,-7,-15,30
1520204854233307,-26,-23,-6,-10,-7,-6,3,55
1520204854233307,23,14,7,7,9,19,17,-33
1520204854234310,19,-3,0,-2,-2,-19,-2,2
1520204854234310,-51,0,-4,-13,-7,23,-31,-36
1520204854255366,-26,-6,3,14,9,3,18,12
1520204854255366,-25,-1,2,-8,-14,-11,-32,21
1520204854257372,9,24,13,1,-1,-20,18,-45
1520204854257372,69,-4,-13,-2,-1,-16,-19,-20
1520204854269403,-57,-29,-19,-10,10,17,-8,-17
1520204854269403,-93,-15,5,8,0,-3,9,70
1520204854278427,63,-1,-2,12,12,36,8,-72
1520204854278427,77,17,4,7,2,-1,18,84
1520204854293467,-88,-11,-2,-17,-23,-14,-31,0
1520204854293467,-11,5,1,10,30,27,20,47
1520204854294470,-12,-6,-7,-3,-8,15,9,-26
1520204854294470,-37,-6,1,-17,-26,-63,-24,-28
1520204854315526,66,19,9,11,20,-18,24,-57
1520204854315526,-86,-42,-28,-51,-32,-22,21,89
1520204854317532,38,4,4,32,-5,31,-11,-2
1520204854317532,44,0,2,31,11,-24,22,-47
1520204854329563,48,4,7,9,10,-2,-12,-62
1520204854329563,3,24,16,24,3,17,-52,-30
1520204854338587,-61,-22,-6,-93,-31,-15,80,39
1520204854338587,31,7,-3,-19,-18,59,-51,-44
1520204854352624,72,5,1,-7,36,23,85,-4
1520204854352624,12,8,7,22,9,-8,-8,-33
1520204854354630,-3,9,4,14,7,-24,-45,1
1520204854354630,-13,-9,2,-16,-26,-36,10,15
1520204854375686,-33,-1,1,39,-24,-59,-23,-61
1520204854375686,57,-12,-14,-1,-23,10,-39,-35
1520204854377692,-65,-2,-4,-98,-6,-39,21,20
1520204854377692,32,-6,-5,61,9,23,11,-50
1520204854389723,-69,-1,14,5,46,-8,-58,38
1520204854389723,-4,-15,-14,45,2,-23,62,-42
1520204854398747,20,16,12,46,-58,-12,-54,33
1520204854398747,4,7,5,51,-19,8,56,-5
1520204854412784,-69,-21,-7,-102,-25,-41,-38,-3
1520204854412784,65,8,-14,-25,-5,19,56,-67
1520204854414791,7,17,7,-3,12,35,41,77
1520204854414791,-52,-22,-10,-38,5,16,-13,53
1520204854435846,-54,-7,-10,61,-71,1,-27,3
1520204854435846,-31,3,16,-41,9,0,-71,37
1520204854436849,-29,-18,-16,57,46,-84,-72,-71
1520204854436849,8,8,7,58,-37,24,16,7
1520204854448881,13,-1,-2,-14,22,43,23,89
1520204854448881,-4,0,-1,-24,1,-40,-29,101
1520204854457905,99,6,-10,6,-2,21,68,-91
1520204854457905,-81,-2,12,-34,16,14,-24,72
1520204854472945,-36,-15,-4,22,19,-25,-54,-20
1520204854472945,-13,5,1,42,26,10,51,-104
1520204854474950,-4,6,6,-30,-52,-15,-32,55
1520204854474950,57,-7,-10,19,68,-12,4,-44
1520204854496006,-34,13,8,-5,5,59,37,9
1520204854496006,-2,-6,-3,20,-16,0,-37,-89
1520204854497009,-29,-3,-4,-27,23,67,71,46
1520204854497009,-62,7,7,-102,-69,-18,34,-2
1520204854509041,55,8,-5,40,6,37,-5,-30
1520204854509041,-22,-5,-1,8,46,-30,-34,-7
1520204854518065,-29,-20,-11,-31,-56,43,-9,18
1520204854518065,96,-13,-16,99,65,-42,-15,-68
1520204854533111,32,20,16,-37,-4,-16,56,25
1520204854533111,-9,-9,-25,-46,-98,-13,15,-61
1520204854535111,-5,10,4,17,109,51,-85,22
1520204854535111,2,1,-4,-64,-90,-30,60,-14
1520204854556167,0,1,-5,-50,10,26,-16,2
1520204854556167,-27,-14,-12,-83,73,14,-4,43
1520204854557169,64,4,0,42,-83,-31,0,-108
1520204854557169,28,21,19,63,37,22,-14,56
1520204854569201,0,-6,-12,-28,-121,-78,-35,44
1520204854569201,-27,0,10,-74,13,91,32,-19
1520204854578225,38,26,42,81,127,-9,-4,22
1520204854578225,-23,-4,-3,51,73,91,57,31
1520204854593265,27,0,-2,-57,-82,43,27,3
1520204854593265,26,-2,-11,-41,-57,-33,14,-21
1520204854594268,-75,-12,-8,-93,-16,-11,-12,-73
1520204854594268,2,15,21,43,25,8,-34,-79
1520204854615324,1,-3,-13,-125,-60,-11,-2,3
1520204854615324,18,-2,5,127,25,-26,-11,69
1520204854617329,41,15,19,71,-38,30,25,-37
1520204854617329,-55,-16,-19,-107,-54,-26,-38,69
1520204854630363,-21,-12,-9,-33,10,-14,-13,-84
1520204854630363,11,-1,1,25,-20,2,17,75
1520204854638385,-37,-9,-13,51,7,-33,-17,51
1520204854638385,35,2,-2,-40,-24,-25,-2,25
1520204854653425,-7,0,4,-3,80,17,19,20
1520204854653425,25,8,9,25,16,14,47,49
1520204854654427,1,-4,-5,-45,-1,-3,-8,10
1520204854654427,-6,-10,-9,-79,-7,-7,-52,49
1520204854675483,5,5,5,44,8,8,8,-18
1520204854675483,28,3,3,-37,1,-1,-29,70
1520204854677489,-14,-16,-21,-111,-37,-14,-20,-96
1520204854677489,36,20,22,12,29,-56,-28,-40
1520204854689521,-1,1,0,28,18,7,20,39
1520204854689521,-24,-7,0,-21,3,1,-14,15
1520204854698545,27,3,-3,3,-23,3,-3,51
1520204854698545,-10,-7,-11,-49,-26,2,33,16
1520204854712582,9,-8,0,47,34,-15,-27,-34
1520204854712582,57,25,18,25,4,13,31,-72
1520204854720604,-99,-13,-2,-11,-2,-12,-7,31
1520204854720604,47,3,-6,-79,7,17,32,-54
1520204854735643,-53,12,34,127,72,77,11,7
1520204854735643,-6,-5,-7,-36,-14,-20,2,-86
1520204854737649,80,24,11,5,-3,-12,-21,42
1520204854737649,15,3,3,11,20,9,-11,-44
1520204854749681,-10,-6,-6,-15,-17,-18,-9,30
1520204854749681,-22,-8,-4,-29,-20,-1,-2,-5
1520204854758705,14,2,2,21,10,15,31,-40
1520204854758705,9,6,3,41,10,-9,-7,-29
1520204854772742,34,6,-6,-23,-8,-15,-6,1
1520204854772742,-52,-7,-6,9,-7,-21,-35,-49
1520204854774748,-46,-12,-3,-8,-3,-16,-2,49
1520204854774748,8,-10,-8,1,-8,-3,-4,11
1520204854795804,-30,-6,-6,-1,-10,-28,-8,-23
1520204854795804,15,5,2,-11,2,7,10,31
1520204854796807,12,-4,-5,1,-4,-3,-8,-23
1520204854796807,-36,-5,-1,-2,-6,2,-2,-23
1520204854808838,10,-8,-5,-6,3,-1,7,-12
1520204854808838,19,6,5,3,-5,3,-10,23
1520204854817862,8,3,0,-23,7,10,17,-61
1520204854817862,-95,-23,-6,40,11,-4,18,36
1520204854832902,39,8,0,-7,2,-1,5,11
1520204854832902,0,-9,-10,-10,-9,-7,-9,68
1520204854834908,-16,-5,-3,-21,-1,-1,17,12
1520204854834908,20,0,0,26,15,17,-22,-61
1520204854855963,21,4,-1,-4,-11,-19,2,21
1520204854855963,34,7,3,-6,-2,3,7,-19
1520204854856967,-58,-24,-14,11,6,-5,-7,-41
1520204854856967,-61,1,2,-11,-8,7,2,61
1520204854868998,15,-4,-2,2,1,2,1,-25
1520204854868998,-17,-1,-1,3,0,-15,-18,12
1520204854878022,76,6,0,0,-10,-4,7,-2
1520204854878022,-52,-16,-6,-8,-5,2,-3,-17
1520204854892059,15,-5,-6,-4,-3,-4,2,29
1520204854892059,45,12,7,-1,3,3,-1,-12
1520204854899078,-41,5,6,11,-1,-2,-11,14
1520204854899078,65,11,-3,-9,-4,0,-2,127
1520204854916123,-18,-5,-1,4,7,2,-10,-59
1520204854916123,41,3,7,3,1,2,4,60
1520204854917127,-1,-4,0,12,4,3,13,-77
1520204854917127,0,16,6,-6,-2,2,-3,28
1520204854938182,11,0,-3,-6,-5,3,5,-40
1520204854938182,-69,-16,-7,-5,-4,-9,-7,21
1520204854940188,-33,2,2,6,0,2,9,-24
1520204854940188,81,8,-2,-4,0,3,4,-5
1520204854952219,-10,-6,-5,-4,-2,2,-3,20
1520204854952219,-44,-12,-2,-3,-3,-9,-14,-13
1520204854959238,106,9,0,2,2,1,10,109
1520204854959238,76,9,4,5,3,3,-2,-9
1520204854975282,19,21,10,3,1,5,5,109
1520204854975282,-64,-33,-16,-12,-9,-13,-15,-86
1520204854977287,24,-8,-9,0,-4,-11,-18,-3
1520204854977287,19,10,7,2,-1,1,1,-73
1520204854998342,-3,-2,-2,-3,0,1,18,7
1520204854998342,-29,-8,-3,-8,0,7,14,22
1520204854999345,31,22,11,8,2,-6,-22,-18
1520204854999345,-29,-22,-14,-10,-8,-7,-6,-27
1520204855012882,9,-7,-7,-3,0,3,18,12
1520204855012882,12,12,7,1,-2,-1,8,53
1520204855019399,32,-3,-2,-2,0,5,11,42
1520204855019399,-40,0,0,-3,-1,-3,-4,-40
1520204855035947,0,0,-2,-4,-5,-6,-12,-76
1520204855035947,-80,-6,2,7,3,-2,-18,-66
1520204855036950,2,-2,-4,-3,-2,-1,0,20
1520204855036950,-20,11,6,2,2,2,13,6
1520204855058006,-51,-3,6,6,5,3,2,-31
1520204855058006,124,41,13,8,2,-3,-36,-21
1520204855060012,-81,-27,-8,-7,-4,3,6,14
1520204855060012,-34,-21,-9,-4,-1,0,6,-21
1520204855072043,56,2,4,7,1,-3,-23,25
1520204855072043,-10,-32,-12,-1,-2,0,16,1
1520204855080065,89,85,-4,-9,-9,-11,-14,-1
1520204855080065,37,-19,3,0,0,1,-6,17
1520204855095105,23,25,15,6,-1,-8,-22,-46
1520204855095105,105,2,1,5,5,11,26,57
1520204855096108,-46,-43,-7,-6,-6,-7,-32,69
1520204855096108,-72,3,1,3,5,3,11,24
1520204855117163,-3,-4,-20,-9,-4,-4,16,9
1520204855117163,22,-31,-8,-3,0,5,16,-14
1520204855118166,-106,-2,0,-3,-3,-4,4,-45
1520204855118166,99,-6,9,0,1,0,-1,-1
1520204855132204,-34,35,-1,0,0,4,5,32
1520204855132204,2,46,22,12,1,-3,-7,-62
1520204855140225,-20,1,2,1,1,-1,-1,-52
1520204855140225,-28,25,-10,-7,-7,-7,0,46
1520204855155265,106,-27,-21,-14,-10,-9,-7,9
1520204855155265,-128,-22,-1,-6,0,6,14,-13
1520204855155265,127,14,11,6,-1,-6,-15,105
1520204855155265,-77,-31,-5,-1,0,1,-4,8
1520204855177323,-128,-9,-6,-1,3,4,6,-101
1520204855177323,122,42,0,-2,-3,-5,-6,102
1520204855178326,-105,-54,-9,-12,-8,-6,-13,-57
1520204855178326,95,1,-8,-7,-6,-2,9,-25
1520204855200385,2,-13,-10,4,4,2,13,61
1520204855200385,-69,51,22,4,-1,-9,-38,8
1520204855201388,64,-36,7,14,10,9,12,21
1520204855201388,-19,42,-3,-8,-9,-6,-3,-57
1520204855215425,-17,-79,0,-4,-1,1,-6,-69
1520204855215425,-66,28,6,3,2,7,37,-55
1520204855215425,20,-13,0,2,4,12,35,7
1520204855215425,-67,6,-4,-3,-5,-9,-26,50
1520204855237483,75,-2,10,6,3,2,8,90
1520204855237483,66,7,32,11,14,15,15,40
1520204855238486,52,-91,-28,-4,3,6,23,-42
1520204855238486,127,41,13,8,5,11,27,63
1520204855260544,78,24,19,8,0,-5,-33,88
1520204855260544,46,-36,-30,-22,-16,-16,-22,42
1520204855261547,60,14,13,8,3,2,5,-93
1520204855261547,-65,20,-5,-1,-1,1,1,58
1520204855274582,-18,-2,-3,-2,0,2,18,-29
1520204855274582,-28,-29,-23,-7,-5,-3,-4,3
1520204855275585,-66,1,-17,-9,-11,-18,-27,25
1520204855275585,-68,-73,-11,4,7,5,24,-61
1520204855297643,26,-55,-8,-24,-18,-7,-7,0
1520204855297643,-2,70,38,14,7,-1,-18,-24
1520204855298646,-109,-28,-1,-3,-3,-5,-26,-42
1520204855298646,97,-1,3,5,9,6,4,-99
1520204855320705,-66,-1,9,16,11,0,-9,-38
1520204855320705,-13,-76,-32,-6,2,10,17,-42
1520204855321707,1,19,-1,2,2,4,-2,-98
1520204855321707,63,4,-12,-4,-4,-1,2,-53
1520204855334742,-33,38,-2,-15,-10,-16,-39,-93
1520204855334742,51,-32,-15,-3,-2,10,50,-8
1520204855335745,32,45,35,23,15,16,23,73
1520204855335745,-124,72,12,-17,-17,-16,-35,44
1520204855357803,25,-92,-59,-8,0,7,33,38
1520204855357803,30,17,-2,-4,3,2,-16,26
1520204855357803,-25,15,-6,-9,-8,-11,1,76
1520204855357803,109,-44,-7,0,-6,-6,-21,-33
1520204855379862,63,53,17,20,16,19,43,-23
1520204855379862,-38,-27,18,2,1,-10,-59,-61
1520204855380865,-73,-10,-7,-10,-7,-8,-38,-45
1520204855380865,-11,-39,-16,-10,1,4,12,4
1520204855394902,-18,59,17,11,-3,-10,-31,-117
1520204855394902,44,-33,-26,1,-2,-1,13,-83
1520204855395905,11,8,-1,-1,-5,-4,-7,21
1520204855395905,33,-3,10,8,6,7,17,15
1520204855416961,44,12,20,-9,-10,-10,-36,4
1520204855416961,-58,23,10,-1,-2,-3,2,-104
1520204855417963,-33,-39,-34,-17,-7,-7,-1,25
1520204855417963,56,28,-7,2,-3,-8,-3,-3
1520204855440022,52,101,47,23,6,11,30,28
1520204855440022,113,14,22,9,5,3,26,76
1520204855441025,-54,-60,-15,-20,-11,-19,-59,-57
1520204855441025,56,-6,-7,-8,-2,18,22,71
1520204855455062,-120,-72,-48,-19,-17,-45,-27,9
1520204855455062,52,49,19,6,-6,0,3,18
1520204855456065,33,27,-8,7,23,4,71,-29
1520204855456065,30,10,41,19,-6,46,24,29
1520204855477121,-50,1,5,16,24,36,-20,87
1520204855477121,-10,-31,-31,-7,-39,-65,-65,57
1520204855478124,20,11,-1,-24,4,2,-6,107
1520204855478124,13,-21,-23,-6,31,16,67,-65
1520204855500182,47,13,17,9,-18,12,31,64
1520204855500182,-102,-21,6,-1,0,-21,-24,-38
1520204855501185,41,24,12,21,-2,52,9,-48
1520204855501185,-31,-7,-13,-23,-49,-91,-110,16
1520204855515222,31,-4,-10,-27,10,-1,-29,-57
1520204855515222,-10,-26,-30,8,18,89,89,-59
1520204855515222,6,32,21,32,-1,82,17,15
1520204855515222,-95,-24,14,12,17,-29,41,68
1520204855537281,18,9,-5,-25,-12,-73,-45,81
1520204855537281,-4,-8,-19,-11,-32,-102,-1,-27
1520204855538284,44,35,38,69,33,46,-3,24
1520204855538284,28,4,-3,-95,-23,48,18,24
1520204855560342,13,-11,-6,17,29,-34,5,-81
1520204855560342,41,22,15,8,26,7,-41,50
1520204855560342,8,2,-6,-18,-25,-32,43,5
1520204855560342,-3,-5,-3,63,-12,-92,-55,-1
1520204855575382,-32,-26,-23,-30,19,127,13,-46
1520204855575382,-5,4,5,-15,-5,-109,3,-91
1520204855575382,63,11,-8,-35,-11,44,38,-42
1520204855575382,6,0,4,37,-28,-24,-43,-55
1520204855597441,-1,-9,-6,-7,-41,1,35,8
1520204855597441,-53,-7,4,-13,31,31,-12,53
1520204855598444,35,-3,-4,25,11,-29,-27,-45
1520204855598444,-116,-5,-3,-8,16,-1,-27,42
1520204855619499,6,16,23,8,-30,-9,-21,10
1520204855619499,52,5,-5,11,23,46,4,49
1520204855620502,103,21,4,-24,-15,-38,2,105
1520204855620502,-37,-20,-8,20,-1,28,8,-30
1520204855634539,13,-11,-10,5,-9,-16,10,9
1520204855634539,-31,0,0,-16,29,31,2,-5
1520204855635542,7,4,0,-6,1,-66,-22,-6
1520204855635542,19,-7,-8,-33,-29,22,14,-57
1520204855657600,-41,3,3,-4,-51,33,24,59
1520204855657600,-12,-10,-5,15,86,-7,-19,-35
1520204855658604,-62,11,13,9,3,-23,-11,36
1520204855658604,59,22,25,14,-12,10,-16,14
1520204855679660,-26,-18,-5,16,17,-41,14,-128
1520204855679660,-50,-13,-20,-1,-15,34,7,30
1520204855680662,-24,-8,-5,-2,15,-20,-24,19
1520204855680662,-19,5,3,4,-10,8,17,-12
1520204855694699,-9,17,19,23,10,1,60,-38
1520204855694699,41,12,5,-23,13,51,-7,-8
1520204855695702,75,-2,-6,-12,9,-2,32,14
1520204855695702,-78,-4,-4,-46,-86,-56,7,62
1520204855717761,-35,-23,-13,32,-34,-22,-92,32
1520204855717761,50,14,3,-2,-99,-6,68,-19
1520204855717761,5,11,14,9,86,-25,-13,13
1520204855717761,38,-10,-12,38,127,62,12,45
1520204855739819,-15,-16,-10,-22,-36,1,27,55
1520204855739819,-25,4,9,-10,-110,-77,-29,30
1520204855740822,-57,-14,-16,-4,30,20,-25,-42
1520204855740822,51,-8,-12,-8,24,6,8,-83
1520204855754859,13,-1,0,-28,43,-14,35,-104
1520204855754859,43,10,8,7,-87,65,-25,52
1520204855755862,-19,-25,-22,-42,5,-4,-1,84
1520204855755862,44,11,11,30,-4,-21,-31,-10
1520204855777921,44,0,-1,-94,34,0,-29,63
1520204855777921,49,21,9,70,54,19,-2,41
1520204855777921,-8,7,5,7,-62,-8,-34,-40
1520204855777921,-75,-3,3,-9,-15,12,-4,-31
1520204855799979,9,3,-5,-5,-86,-1,-35,6
1520204855799979,-10,-20,-16,-14,91,-14,25,52
1520204855800982,-25,-11,-2,-2,-102,65,-7,-79
1520204855800982,-3,13,13,33,90,-64,30,-102
1520204855815019,-4,12,10,6,-40,-20,-16,-91
1520204855815019,-53,-24,-17,-2,101,25,29,38
1520204855816023,-6,1,4,7,11,3,-3,41
1520204855816023,31,-7,-9,-39,-60,-8,-20,116
1520204855837078,92,27,14,54,49,11,4,-40
1520204855837078,-46,-2,10,2,-17,21,-5,47
1520204855838082,6,-3,-1,2,-22,-21,15,-36
1520204855838082,16,-10,-6,-5,-7,16,-4,-21
1520204855860140,14,3,0,6,41,-18,2,5
1520204855860140,4,-10,-10,-10,-23,14,-11,-19
1520204855861142,-2,4,2,0,-11,-31,-6,-23
1520204855861142,-27,-3,-1,-15,-14,45,-2,45
1520204855875179,-34,-14,-10,-6,28,-12,28,-19
1520204855875179,37,11,6,33,-6,7,1,-128
1520204855876182,-33,-15,-10,-20,8,1,-1,81
1520204855876182,71,5,3,15,6,6,8,2
1520204855897238,-73,-8,-3,3,-15,14,1,8
1520204855897238,8,1,-1,-17,-31,-22,-11,-23
1520204855898241,15,-1,-3,-2,17,-21,-14,74
1520204855898241,-41,-6,-7,-10,-9,7,-8,25
1520204855920300,-5,-2,3,4,-10,0,-12,11
1520204855920300,-15,-3,-2,-14,-12,-22,-8,-96
1520204855920300,12,17,13,20,5,15,13,22
1520204855920300,89,13,4,1,-7,10,6,-56
1520204855935339,-3,5,8,7,10,-2,-13,77
1520204855935339,-88,-9,0,-9,-3,3,-1,-23
1520204855935339,27,-5,-3,-1,-13,4,13,53
1520204855935339,30,12,7,10,7,-3,31,-39
1520204855957398,29,5,2,11,26,-4,-3,23
1520204855957398,50,6,-2,-9,-9,10,4,3
1520204855958401,-10,-6,-2,0,-16,-9,-13,-92
1520204855958401,-72,-22,-13,-14,-9,-12,-25,-60
1520204855979457,21,9,4,4,7,-5,-4,-83
1520204855979457,15,-15,-10,-11,-23,-25,-17,127
1520204855980460,38,9,5,2,-4,6,-7,-10
1520204855980460,-54,-4,-3,-2,1,4,17,-9
1520204855994497,-36,-8,-6,-5,4,10,9,-4
1520204855994497,23,5,2,-2,-8,-21,-30,53
1520204856002518,47,7,4,0,19,33,9,-25
1520204856002518,0,-9,-6,0,-5,0,-7,-25
1520204856017558,11,-7,-8,-6,-10,6,-3,49
1520204856017558,-63,-8,3,2,3,-2,1,-13
1520204856018561,18,7,-3,0,-10,-6,22,-91
1520204856018561,-60,-2,1,-3,0,9,20,9
1520204856039617,66,3,-1,6,12,15,6,5
1520204856039617,-40,13,12,-4,-5,-25,-4,28
1520204856040620,-34,-13,-4,2,-5,-19,-12,-63
1520204856040620,48,8,0,7,8,8,-4,-45
1520204856054657,9,5,-4,-3,2,-2,11,45
1520204856054657,0,-11,-6,-1,-9,-6,-26,-82
1520204856062678,-49,-5,1,0,-5,-4,10,43
1520204856062678,84,22,10,8,13,1,3,-61
1520204856077718,-81,-10,-1,-3,-9,-4,-24,92
1520204856077718,26,-5,-6,-9,-1,9,15,-85
1520204856077718,-20,0,-5,-5,-9,-11,-7,-52
1520204856077718,-48,-13,-7,-13,-7,-10,-10,26
1520204856099777,57,7,4,3,-1,-5,-10,-37
1520204856099777,41,4,-4,-1,1,10,20,-9
1520204856100780,-19,2,3,5,4,-5,-10,-26
1520204856100780,14,-9,-16,-8,-10,-12,-13,37
1520204856113814,44,11,-1,-8,-3,-6,20,27
1520204856113814,-89,-16,-4,-2,-3,9,1,11
1520204856122838,99,11,0,0,2,-6,22,62
1520204856122838,-54,-6,1,2,-4,-7,-19,32
1520204856137878,-19,-9,-3,-1,-1,1,-13,36
1520204856137878,127,24,7,5,3,0,9,-3
1520204856137878,-20,-19,-17,-11,-6,11,6,19
1520204856137878,-61,-13,-2,-5,-4,-23,-25,4
1520204856159937,64,7,6,7,5,5,2,-44
1520204856159937,-38,-15,-8,-9,-10,2,-11,-36
1520204856160939,78,11,2,-1,-2,4,-9,75
1520204856160939,-60,-5,9,14,3,-6,-25,-35
1520204856173974,76,-1,-8,-6,-7,2,2,19
1520204856173974,55,11,5,2,4,8,14,8
1520204856181996,66,-6,-4,2,2,5,3,-31
1520204856181996,-52,3,5,5,7,9,7,71
1520204856197035,10,0,2,2,2,3,7,4
1520204856197035,-82,-7,-7,-8,-4,0,-5,33
1520204856198038,5,6,3,-6,-2,-17,21,37
1520204856198038,30,6,3,5,11,30,20,51
1520204856220097,-59,-1,0,2,0,-5,-12,-29
1520204856220097,123,18,9,8,5,-2,5,30
1520204856221100,-36,-15,-5,-4,-6,-10,-7,-24
1520204856221100,70,-18,-15,-15,-13,-25,-8,-10
1520204856243158,49,15,10,10,8,20,8,-8
1520204856243158,7,-15,-9,-6,-5,-9,2,6
1520204856244161,21,26,12,4,2,9,0,3
1520204856244161,-6,-12,-8,-7,-5,-13,-1,-34
1520204856257195,-115,-3,2,4,-1,-19,4,-38
1520204856257195,-65,-17,-10,-7,-11,-11,-24,-7
1520204856258199,60,3,9,9,6,3,-1,28
1520204856258199,88,12,5,7,7,14,4,-17
1520204856280257,-125,-17,-14,-18,-11,-7,-2,19
1520204856280257,-26,-4,9,9,4,-6,-4,-42
1520204856280257,-92,-28,-7,-1,-1,1,-7,-24
1520204856280257,51,30,5,-1,1,15,2,37
1520204856294294,38,1,2,3,7,16,15,20
1520204856294294,92,3,11,17,14,21,13,-5
1520204856302316,-64,-11,-31,-24,-19,-27,-34,39
1520204856302316,10,-6,16,14,9,4,1,-10
1520204856317356,94,22,-3,-10,-14,-13,-9,10
1520204856317356,-93,-15,-2,-13,-4,1,26,32
1520204856318359,99,37,17,30,16,5,-23,9
1520204856318359,-49,-19,-19,-17,-11,-11,27,2
1520204856340417,100,10,10,10,10,14,6,-6
1520204856340417,47,20,-6,-12,-13,-15,-12,36
1520204856340417,-64,-15,3,2,4,8,18,-48
1520204856340417,87,11,4,2,2,13,-5,31
1520204856354454,-9,12,2,-4,-9,-13,-21,-5
1520204856354454,58,-19,-16,-13,-7,-4,-13,-5
1520204856362476,-103,-24,-1,4,7,2,4,-79
1520204856362476,19,21,2,6,4,3,9,-2
1520204856377516,-20,-29,-15,-5,-1,9,36,-8
1520204856377516,-72,45,17,5,1,-10,-25,-20
1520204856378519,-57,-26,-17,-20,-15,-8,-3,6
1520204856378519,36,-50,-9,-4,-5,-7,-7,-33
1520204856399575,50,-15,-13,0,3,2,-3,-3
1520204856399575,36,48,-2,-1,-2,-2,1,35
1520204856400577,62,22,16,10,7,8,24,-13
1520204856400577,-10,-29,-16,-14,-14,-15,-30,53
1520204856414614,99,23,17,4,3,0,-12,8
1520204856414614,-72,-81,-32,-21,-15,-17,-11,-70
1520204856422636,6,7,8,4,5,11,22,-7
1520204856422636,7,-5,-8,5,5,0,-2,23
1520204856437676,55,-9,7,13,11,13,3,64
1520204856437676,104,16,6,-1,-6,-12,-8,78
1520204856438679,8,-27,-9,-5,-1,5,23,1
1520204856438679,-92,-20,-22,-13,-11,-14,-26,-78
1520204856459734,-116,-39,12,3,0,-3,4,-69
1520204856459734,126,31,31,29,21,22,29,-65
1520204856460738,-105,-44,-32,-27,-21,-26,-56,95
1520204856460738,29,-32,20,14,13,12,14,20
1520204856482796,57,48,-3,12,9,7,11,2
1520204856482796,-108,17,-3,-13,-5,13,28,106
1520204856483799,18,-44,-9,-12,-17,-55,-46,-5
1520204856483799,71,57,0,-2,-1,36,-10,-9
1520204856497836,-76,-31,5,-3,-5,-28,45,75
1520204856497836,101,22,4,2,-16,-7,3,-39
1520204856498839,-40,21,-17,2,-10,-9,-45,-76
1520204856498839,-8,-36,-15,-6,16,-4,27,83
1520204856519895,26,36,10,-18,-36,101,-46,-36
1520204856519895,-45,-32,-20,6,64,-1,-69,42
1520204856520897,115,27,5,-8,-11,-13,-13,-80
1520204856520897,-54,24,23,5,-44,105,53,-71
1520204856542956,-41,10,-13,3,59,-47,10,-34
1520204856542956,21,-37,2,5,-34,-40,52,43
1520204856543959,60,-16,-16,9,2,-10,-12,11
1520204856543959,-12,-7,-2,-56,-78,-96,-83,117
1520204856556993,-96,-14,-19,-26,72,-50,-53,-62
1520204856556993,34,1,34,83,50,94,63,-124
1520204856557996,-97,-31,-15,29,72,-77,61,-80
1520204856557996,127,42,22,-5,-50,7,-6,57
1520204856580055,98,14,-6,-29,-57,-40,46,43
1520204856580055,-102,-77,-59,-61,-16,-23,-83,79
1520204856581058,45,28,41,13,14,99,24,94
1520204856581058,46,21,4,36,77,44,17,-128
1520204856602113,69,-10,5,1,-53,-86,-54,97
1520204856602113,-95,-7,4,8,13,84,62,-90
1520204856603116,82,10,-9,-18,-79,-77,-28,-34
1520204856603116,53,21,1,-6,11,-4,-6,29
1520204856617153,-41,0,8,17,-52,63,12,-63
1520204856617153,-15,10,3,-44,-116,-128,-96,42
1520204856618156,83,32,20,25,101,23,36,60
1520204856618156,7,-3,-10,15,-63,71,96,-13
1520204856640215,28,-23,-3,24,-4,89,72,-59
1520204856640215,-5,-11,-21,-42,-128,-80,-95,-44
1520204856641218,-66,6,11,-13,29,98,20,10
1520204856641218,-13,-3,-5,-5,95,-83,21,-49
1520204856662273,-109,-18,8,17,-19,-59,-17,-15
1520204856662273,-17,-20,-33,-34,-37,-46,-9,-71
1520204856663276,-1,4,12,2,-25,3,-36,13
1520204856663276,-105,-35,-29,16,51,41,17,-113
1520204856677313,46,46,25,5,66,35,-23,84
1520204856677313,-27,2,17,39,73,71,82,-43
1520204856678316,24,35,11,2,-8,-62,13,3
1520204856678316,47,8,23,8,-36,79,-37,43
1520204856700374,93,-12,-31,-6,-20,-78,-4,-57
1520204856700374,57,53,35,27,65,26,2,107
1520204856700374,114,38,12,1,-30,71,15,-66
1520204856700374,4,-19,-31,-17,-29,-128,-65,107
1520204856722433,36,-29,-20,7,11,72,-18,57
1520204856722433,-40,7,32,-39,-92,-66,-53,-47
1520204856723436,-22,-45,-23,-11,15,87,92,20
1520204856723436,114,29,-2,0,56,8,16,-42
1520204856737473,23,-6,6,17,-30,32,9,22
1520204856737473,53,-18,-21,-6,82,-5,-89,80
1520204856738476,-118,-6,34,73,-2,15,84,-35
1520204856738476,-100,-13,-6,9,-16,-49,-58,16
1520204856759532,23,47,22,-17,-62,-3,48,33
1520204856759532,30,5,-10,12,-30,11,39,-17
1520204856760535,18,-10,-31,-22,-40,-31,-58,98
1520204856760535,115,24,21,11,-11,45,34,-10
1520204856782593,-115,-40,-15,-73,-45,-35,-27,54
1520204856782593,79,16,3,28,42,12,39,-18
1520204856783596,39,15,-7,12,56,23,-36,42
1520204856783596,-115,-59,-22,24,-10,21,49,-109
1520204856797633,-33,-33,-26,-65,-4,-25,-46,-4
1520204856797633,18,8,16,-30,-80,-42,-26,44
1520204856798636,122,27,-4,65,78,113,76,88
1520204856798636,-90,-71,-10,-96,-73,-45,-72,-59
1520204856819692,96,24,23,61,-35,-32,9,-10
1520204856819692,38,9,3,-3,127,102,39,46
1520204856820696,-36,-29,-15,-47,-128,-117,-96,-29
1520204856820696,127,60,29,18,115,-4,4,34
1520204856842753,18,1,-1,-4,60,88,79,-35
1520204856842753,-57,-10,-10,-104,-114,10,-24,-3
1520204856842753,-104,-21,-5,-20,-17,-34,-56,-16
1520204856842753,-54,5,14,47,87,-15,28,44
1520204856857793,4,33,9,-52,23,-61,-44,4
1520204856857793,22,-20,-16,127,72,52,-3,10
1520204856857793,56,16,12,-1,27,10,69,-113
1520204856857793,-16,1,-3,15,-42,-53,-35,13
1520204856879852,-40,-16,-1,-8,44,11,-30,32
1520204856879852,12,4,-26,-82,-109,11,53,-27
1520204856880856,-64,-29,5,-9,-37,-58,-73,47
1520204856880856,69,26,1,9,-30,18,9,36
1520204856902913,90,34,14,20,-7,23,36,2
1520204856902913,25,-2,3,-20,-25,-11,5,68
1520204856902913,5,-21,0,7,14,-18,1,-17
1520204856902913,103,36,8,13,-55,56,-27,-2
1520204856917953,-37,-18,-7,115,109,101,79,14
1520204856917953,79,-10,7,8,28,-44,23,-2
1520204856917953,76,17,4,-25,-85,-8,-62,6
1520204856917953,-7,15,8,3,33,36,0,35
1520204856940012,-5,-36,-30,-26,48,49,-20,-21
1520204856940012,21,23,7,65,106,42,65,-10
1520204856941015,-29,-11,-8,-20,-48,-4,26,2
1520204856941015,-53,-19,-23,-30,-3,37,-67,-40
1520204856964076,-38,9,8,-48,-126,-23,-16,-6
1520204856964076,-3,0,1,-99,-57,-11,-4,5
1520204856965080,35,21,4,5,-38,-28,10,30
1520204856965080,81,-20,-13,-18,-86,-54,19,3
1520204856978114,-106,-27,-1,72,71,-16,-6,-79
1520204856978114,6,-23,-17,-28,5,-43,-30,50
1520204856979117,-37,1,2,14,43,-48,0,-35
1520204856979117,-43,3,12,-26,-32,1,15,-37
1520204857000172,24,11,2,-3,-14,22,18,30
1520204857000172,-45,-31,11,-49,-39,15,-29,-72
1520204857001175,77,28,25,22,70,-37,26,51
1520204857001175,3,-22,-17,70,103,51,16,-1
1520204857022231,126,26,-1,-94,-116,-92,46,-79
1520204857022231,-41,-7,9,90,87,-35,-1,-55
1520204857023234,24,29,-8,-50,6,56,17,-16
1520204857023234,-118,-33,15,-44,-55,43,12,8
1520204857037271,91,23,-3,31,-18,40,-38,15
1520204857037271,103,22,4,9,44,113,80,7
1520204857038274,-75,-16,-5,-22,-33,-1,-30,-14
1520204857038274,54,2,-10,0,4,-38,0,-52
1520204857060332,-108,-42,-25,-23,-11,-16,-45,48
1520204857060332,43,31,11,6,-46,-43,-42,39
1520204857060332,39,-12,-4,20,63,33,21,-40
1520204857060332,-14,21,11,-20,-24,-38,10,4
1520204857082391,32,-11,1,0,7,16,-22,14
1520204857082391,-47,10,7,16,-20,-25,-11,-25
1520204857083394,87,-1,-3,-9,-1,9,-7,53
1520204857083394,-11,-3,-2,-5,5,-10,14,-3
1520204857096428,-4,-13,-6,1,22,-27,-1,-7
1520204857096428,39,8,1,15,8,1,-5,67
1520204857105452,-43,-5,-3,-38,-91,40,-10,-34
1520204857105452,46,-14,-10,7,39,-6,-85,95
1520204857120492,68,11,16,38,76,-65,-5,-46
1520204857120492,35,8,2,12,-10,11,19,0
1520204857120492,40,-2,-7,-2,-6,-17,-17,-24
1520204857120492,0,7,-1,-28,-43,-28,-8,-9
1520204857142551,-98,-33,-8,-21,-53,12,-21,99
1520204857142551,-4,-13,1,21,37,5,7,-56
1520204857143554,78,20,-3,-13,11,-4,0,-2
1520204857143554,-25,8,6,-2,-15,-22,24,3
1520204857156588,92,16,0,-3,9,14,-8,62
1520204857156588,-99,-31,-11,-6,-17,-25,11,-49
1520204857164609,75,7,4,6,-27,-4,41,26
1520204857164609,-68,-3,5,6,81,18,-3,85
1520204857179649,51,6,6,7,-5,-10,12,-77
1520204857179649,-55,-6,-14,-21,-35,-18,-48,-72
1520204857180653,10,-23,-6,2,11,-7,21,-6
1520204857180653,-7,10,0,2,-28,-17,31,65
1520204857202711,-14,8,4,-9,-9,-17,-1,-11
1520204857202711,39,8,-1,0,-5,25,-3,22
1520204857203714,74,9,-7,-3,10,-3,-3,-88
1520204857203714,31,3,1,-14,-19,-18,17,-11
1520204857216748,-39,-30,0,3,-2,1,-21,-76
1520204857216748,118,18,-4,7,-7,-15,-10,12
1520204857224770,-66,-8,2,0,6,16,-14,35
1520204857224770,-8,-5,-3,-11,-22,-3,-7,19
1520204857239809,124,31,-3,-5,1,-12,-9,-17
1520204857239809,-78,-27,-7,-4,-2,1,-6,20
1520204857240813,33,-4,6,-1,8,4,-6,-6
1520204857240813,63,11,-1,2,3,-2,29,21
1520204857262871,-6,1,3,5,-11,22,-7,54
1520204857262871,-48,-15,-5,4,-5,-5,-27,-82
1520204857262871,51,7,-1,-12,8,2,1,80
1520204857262871,11,-6,-9,-12,-31,32,21,-68
1520204857276908,-28,-6,0,3,35,8,10,55
1520204857276908,60,40,12,11,11,44,21,-24
1520204857284930,3,-15,-15,-2,-3,-45,-21,-53
1520204857284930,38,20,14,8,-5,-67,-29,41
1520204857299970,-108,-28,-14,-14,7,38,-3,-37
1520204857299970,122,20,7,5,5,-8,51,37
1520204857300973,-74,-4,0,1,6,24,16,54
1520204857300973,24,-2,-2,5,0,3,-11,5
1520204857322028,49,6,3,3,-7,-26,-5,1
1520204857322028,66,21,8,4,8,-2,13,127
1520204857323031,-120,-45,-17,-6,-11,-11,-40,-76
1520204857323031,85,-4,-5,-2,7,-27,-6,-9
1520204857337068,-30,-30,-5,0,-1,29,-3,-36
1520204857337068,93,24,10,7,13,15,20,42
1520204857345090,-65,-16,0,-7,-8,-6,-14,-18
1520204857345090,58,2,-18,-15,-7,18,-26,71
1520204857360130,68,11,-4,0,-17,-45,19,-48
1520204857360130,-104,-31,-12,-12,-9,-19,-35,-50
1520204857361133,52,-2,2,2,11,3,-2,1
1520204857361133,79,30,5,4,9,13,33,-5
1520204857382188,32,-13,-2,-9,-23,17,-12,-5
1520204857382188,64,12,0,-5,-32,-24,-28,-24
1520204857383192,76,4,5,13,35,-21,-22,-17
1520204857383192,40,-30,-9,1,-5,13,6,-5
1520204857397228,74,31,7,-7,-8,-2,4,5
1520204857397228,-10,-31,-14,-9,-13,-20,-7,-34
1520204857405250,67,23,10,9,8,40,22,46
1520204857405250,-82,-9,-6,-3,-13,-47,-16,-61
1520204857420289,-17,-12,0,13,9,-1,5,-30
1520204857420289,-10,-12,-13,-17,-5,-1,0,62
1520204857420289,17,9,2,-10,-3,24,23,49
1520204857420289,-17,3,10,9,11,18,9,22
1520204857442348,7,16,2,5,1,1,14,-31
1520204857442348,-109,-21,-4,-6,-5,6,-7,-16
1520204857443351,92,17,0,-7,-7,18,17,12
1520204857443351,64,5,8,8,1,-62,-8,-21
1520204857456386,-32,-5,-7,-9,-8,-8,-17,-15
1520204857456386,115,3,1,13,11,9,25,10
1520204857465410,-128,-19,-3,-6,-11,-13,-21,16
1520204857465410,60,25,14,0,12,54,24,67
1520204857480450,-40,-18,-2,2,-9,-65,-46,-58
1520204857480450,-40,2,5,11,18,17,25,35
1520204857480450,-126,-18,-11,-13,-10,47,-2,-63
1520204857480450,3,-12,-5,8,5,-4,-13,-37
1520204857502509,8,16,9,2,1,-7,1,38
1520204857502509,11,6,-3,-5,-8,-6,-10,-20
1520204857503511,41,17,10,10,2,-29,-2,-10
1520204857503511,-46,-7,-6,-3,3,27,5,-51
1520204857525570,19,7,-3,-4,-2,15,23,71
1520204857525570,-80,-5,8,1,3,-19,-20,-60
1520204857526573,83,19,2,10,1,17,21,69
1520204857526573,-48,-3,10,5,-2,-16,-11,-15
1520204857539607,-73,0,0,-2,5,5,4,46
1520204857539607,64,1,-4,-1,-5,16,11,-16
1520204857540610,34,-2,2,8,4,-30,-3,-26
1520204857540610,36,1,-10,-15,-17,5,5,50
1520204857562668,50,-11,0,-3,-24,-23,-9,-43
1520204857562668,64,26,0,-13,9,4,25,84
1520204857563671,-61,-23,4,1,-10,-21,-37,-90
1520204857563671,-30,-9,-8,-6,-37,-28,7,-4
1520204857585730,-84,-17,0,1,36,14,9,10
1520204857585730,96,9,-13,-5,-29,-22,-23,-26
1520204857586733,63,5,1,0,8,15,26,58
1520204857586733,-51,7,3,-6,4,-5,-7,14
1520204857599767,21,-5,2,9,-4,14,-11,-69
1520204857599767,-87,-16,-4,-5,3,-8,-11,0
1520204857600770,61,14,2,1,14,0,8,35
1520204857600770,-4,-8,-1,0,-7,31,9,-53
1520204857622828,97,4,-5,3,6,24,3,19
1520204857622828,-3,6,6,8,23,18,1,34
1520204857622828,-101,-6,-10,-19,-21,-31,-40,-61
1520204857622828,-64,-17,4,1,-40,-5,4,4
1520204857645890,113,36,2,4,76,34,7,62
1520204857645890,72,-10,-7,1,-6,-39,-4,11
1520204857646893,-79,-1,0,-9,-12,-12,-2,-13
1520204857646893,43,6,6,9,18,16,2,-18
1520204857659927,-65,-10,-2,-5,-22,-3,-7,31
1520204857659927,28,28,15,7,1,3,-8,0
1520204857660930,-60,-50,-16,0,2,1,-2,-32
1520204857660930,46,32,5,-2,13,1,17,10
1520204857681986,-52,-20,-7,-8,-25,-23,-10,-38
1520204857681986,-61,-36,-10,-6,-3,-5,-26,-5
1520204857682988,117,75,14,5,-4,4,11,68
1520204857682988,-93,-35,-16,-6,12,4,-15,-38
1520204857706050,84,-41,2,5,-4,2,20,60
1520204857706050,3,74,34,18,11,19,30,-31
1520204857706050,-53,-67,-22,-11,-5,-5,-19,-48
1520204857706050,7,33,-4,-6,2,-7,-22,-15
1520204857720087,48,-13,-9,4,-7,-7,-2,-36
1520204857720087,78,-14,-1,-13,-17,-15,-20,106
1520204857721090,-30,14,6,14,10,7,27,-29
1520204857721090,-64,-10,13,7,15,6,-6,15
1520204857742146,-7,17,-3,-8,-15,-3,11,-6
1520204857742146,-43,-31,-7,0,1,0,-11,-35
1520204857743149,105,23,-4,-3,1,10,5,71
1520204857743149,94,0,-7,0,3,10,10,17
1520204857765207,-65,-10,3,2,-4,-24,3,28
1520204857765207,39,25,-3,4,7,5,-10,-54
1520204857766210,-78,-39,-15,-28,-27,-14,-8,-26
1520204857766210,36,-15,12,9,11,-10,-12,-42
1520204857780247,-22,9,-8,-9,-18,5,-27,-76
1520204857780247,97,10,1,6,9,-5,55,69
1520204857781250,-120,-36,-7,-4,-5,-3,-35,60
1520204857781250,94,40,14,5,6,6,6,50
1520204857802306,-25,-9,11,12,11,0,5,-75
1520204857802306,-2,7,-10,-5,-23,-15,-17,6
1520204857803309,0,-24,-2,7,14,-18,-6,-45
1520204857803309,-102,-25,4,6,14,-1,75,45
1520204857825367,79,73,29,12,6,-1,-1,58
1520204857825367,57,-34,-14,-2,-1,17,10,-7
1520204857825367,64,21,19,3,-7,-4,-21,-78
1520204857825367,108,-1,0,1,-61,57,-4,7
1520204857840407,-54,0,-19,-9,108,-65,-36,-80
1520204857840407,-108,-21,0,1,2,-42,-18,16
1520204857840407,102,29,1,-1,-6,-38,-8,3
1520204857840407,-115,-40,-16,-12,-25,-7,-11,-13
1520204857862466,50,13,-5,-71,-128,-36,1,54
1520204857862466,37,-4,1,45,49,103,-2,-93
1520204857863469,46,4,11,44,56,101,18,32
1520204857863469,127,43,6,76,85,-32,-5,-41
1520204857884525,-76,-12,-9,-35,39,22,-4,31
1520204857884525,11,-16,-5,-61,-90,-34,-11,30
1520204857885527,68,18,10,2,-89,-22,13,6
1520204857885527,-31,-18,-12,-23,89,66,27,77
1520204857899565,57,14,13,114,12,6,-12,-52
1520204857899565,29,27,24,28,29,10,13,-29
1520204857900568,105,24,-10,-47,-41,25,-4,90
1520204857900568,-80,-24,-15,-44,-71,-58,-25,-125
1520204857922626,-2,-58,-24,-39,-9,57,-20,-13
1520204857922626,48,60,32,12,25,22,54,73
1520204857923629,34,13,12,-3,-2,-36,-22,62
1520204857923629,7,15,1,-11,-17,-50,-31,44
1520204857944685,25,9,1,7,13,26,30,39
1520204857944685,13,-26,-19,10,-20,-16,11,33
1520204857945687,8,-37,-26,5,41,-23,-15,-9
1520204857945687,65,2,3,-3,-3,17,29,127
1520204857959724,-15,-10,-3,-3,-51,-31,-28,-81
1520204857959724,-75,-20,6,-19,-29,55,0,55
1520204857960728,28,20,4,-6,37,-42,25,12
1520204857960728,-39,-1,-9,8,45,69,-15,-15
1520204857982786,-40,-35,-12,28,-33,-50,107,127
1520204857982786,58,27,19,12,13,-38,-35,22
1520204857983789,-101,-28,-12,-21,-34,-22,46,-50
1520204857983789,11,-2,8,1,-37,14,1,-113
1520204858004845,94,43,13,-12,21,-39,7,104
1520204858004845,-128,-49,-39,-40,-68,-76,-57,-71
1520204858005848,87,4,-3,36,45,49,49,25
1520204858005848,-3,15,27,4,68,-25,-83,-82
1520204858019885,-11,-7,6,-13,-22,14,-13,-65
1520204858019885,-23,-23,-24,-23,-14,-48,0,11
1520204858020888,57,27,19,5,-40,12,14,46
1520204858020888,-70,-23,-19,-14,-15,-1,-11,-4
1520204858042946,-72,-9,-2,13,17,22,36,42
1520204858042946,-34,-2,2,17,-33,59,-4,-25
1520204858042946,-17,12,-17,-7,62,7,15,41
1520204858042946,58,-2,6,11,-14,-34,-7,7
1520204858065005,-13,-34,-20,-29,-17,-21,-37,59
1520204858065005,27,-9,-9,2,26,8,60,71
1520204858066008,0,20,19,20,6,75,-30,16
1520204858066008,126,10,0,5,-22,-30,-15,-97
1520204858080044,105,-13,-29,-22,-27,-4,-31,-87
1520204858080044,32,-8,4,-6,-8,1,11,-1
1520204858081048,42,-7,1,1,-6,-6,-7,7
1520204858081048,-34,25,4,-12,-7,4,6,17
1520204858102104,-69,-25,-12,9,8,20,4,27
1520204858102104,-17,1,3,-15,17,-21,-28,-16
1520204858103106,-42,2,-6,15,5,-3,-16,-101
1520204858103106,83,14,19,9,-15,41,47,81
1520204858125165,-51,-5,7,-31,-14,11,-19,28
1520204858125165,-6,-15,-14,-2,-38,17,-15,-51
1520204858126168,40,-7,-23,58,79,4,14,-12
1520204858126168,-39,13,4,-68,-54,-26,-35,60
1520204858148226,48,-4,-14,19,30,14,8,-16
1520204858148226,124,31,25,6,19,13,-9,21
1520204858149229,-118,-75,-26,-34,-54,-28,-13,-72
1520204858149229,22,-21,-27,14,-3,-10,25,-27
1520204858162264,127,54,34,14,6,21,2,81
1520204858162264,-47,17,-15,41,50,-4,-24,-21
1520204858163266,-18,-28,18,-35,-46,-28,-30,46
1520204858163266,80,6,-11,10,14,-4,14,17
1520204858185325,-72,-36,-13,2,-4,1,15,-81
1520204858185325,50,30,36,45,37,27,26,86
1520204858185325,-12,11,4,-41,-4,-12,-13,-105
1520204858185325,-124,-19,-13,-16,-15,-22,-9,-34
1520204858200365,94,16,13,-33,-40,24,40,-48
1520204858200365,8,-11,-15,44,35,-48,-23,-55
1520204858200365,-40,-9,7,9,-47,31,-18,33
1520204858200365,76,17,8,84,116,23,55,9
1520204858222424,-39,6,-4,-26,15,-1,-20,65
1520204858222424,-107,9,40,-12,-55,-18,-1,-29
1520204858223426,50,12,23,-110,-124,-23,-9,35
1520204858223426,44,-33,-54,-25,-21,-16,-17,27
1520204858245485,-96,-11,1,-58,-33,6,-17,-104
1520204858245485,10,-7,-12,-7,-11,-11,25,37
1520204858245485,90,40,2,61,109,-22,28,-15
1520204858245485,-128,-17,2,-120,-123,7,-34,23
1520204858259522,-71,-31,-11,44,-23,13,-17,26
1520204858259522,38,-3,-6,-128,-81,-30,26,58
1520204858260525,-24,-17,-30,46,-15,52,-11,7
1520204858260525,60,25,20,55,53,-33,82,-116
1520204858282584,94,37,14,-30,69,19,-39,-35
1520204858282584,-36,9,12,-1,-16,7,55,-23
1520204858283586,-8,5,-6,1,-24,-45,-16,54
1520204858283586,-63,-24,-3,26,-25,24,-6,-3
1520204858304642,78,18,-2,19,-58,-17,-26,22
1520204858304642,-36,-25,-10,15,1,13,-39,-63
1520204858305645,59,34,21,50,112,33,28,46
1520204858305645,-17,-4,8,0,37,31,-46,28
1520204858319682,55,24,18,22,-48,-53,-8,74
1520204858319682,17,-12,-19,65,119,24,2,-31
1520204858320685,43,-11,-6,-66,-92,30,9,63
1520204858320685,114,33,24,79,61,10,8,-40
1520204858342743,-5,-13,-19,-102,-91,-14,34,-10
1520204858342743,15,4,11,34,19,18,-3,40
1520204858343746,-38,-2,-2,40,58,-60,-58,-54
1520204858343746,26,-21,-19,-69,-60,-16,33,102
1520204858364802,-99,9,16,-56,-61,-34,-28,72
1520204858364802,15,-18,-21,33,-8,24,22,-107
1520204858365805,-61,-17,-5,-39,13,16,2,20
1520204858365805,-3,4,7,64,3,11,-6,-12
1520204858378840,66,20,11,75,75,17,-10,-18
1520204858378840,-18,-24,-22,-85,-72,-19,-24,10
1520204858387863,-24,4,11,-44,50,5,3,-23
1520204858387863,37,-3,-4,-25,-46,-18,-3,8
1520204858402903,-32,-13,-12,15,26,12,20,6
1520204858402903,-1,9,11,12,24,11,-26,31
1520204858402903,91,28,7,-12,-56,-12,24,-69
1520204858402903,-106,-42,-27,-42,-28,-12,-16,98
1520204858424962,26,-4,17,69,97,30,29,-41
1520204858424962,35,-4,-13,-26,-2,-13,-4,35
1520204858425965,-12,4,10,1,-69,-11,10,8
1520204858425965,58,16,-2,11,61,21,-3,-1
1520204858438999,8,1,2,21,-61,-9,-37,-11
1520204858438999,-78,-24,-18,-3,59,-4,29,-58
1520204858447021,13,-9,0,-5,21,2,15,42
1520204858447021,-11,2,-4,-16,-67,-3,5,-35
1520204858462061,13,6,-10,-19,20,-19,-19,15
1520204858462061,9,4,6,-20,-42,-15,-31,-7
1520204858463064,37,-6,-7,34,27,7,6,67
1520204858463064,-10,0,1,-18,-25,-31,6,-5
1520204858485122,-63,-16,-21,-2,5,3,5,53
1520204858485122,27,18,20,7,7,17,14,-14
1520204858486125,-128,-33,-10,-16,-33,13,-12,-15
1520204858486125,-2,-16,2,-13,-22,-53,-24,-68
1520204858499160,55,9,-2,8,42,11,-9,-24
1520204858499160,97,20,12,21,-32,15,61,-120
1520204858507181,-80,-1,-1,-29,-42,-56,-60,0
1520204858507181,-27,-2,3,-11,20,10,22,-40
1520204858522221,12,-7,-12,-15,15,67,31,-65
1520204858522221,-11,4,0,30,12,-80,-21,-57
1520204858523224,127,14,1,-46,-92,-14,20,-42
1520204858523224,-80,-5,10,23,15,26,-29,112
1520204858545282,2,5,13,10,26,-34,-11,7
1520204858545282,9,-10,-17,-40,61,35,0,102
1520204858545282,6,3,0,33,21,11,21,-113
1520204858545282,55,9,2,-21,-45,18,-5,-5
1520204858559319,-10,12,14,11,-14,4,18,10
1520204858559319,-119,-20,-9,-11,-11,14,-24,38
1520204858567341,-5,-1,-3,3,19,-27,-2,-59
1520204858567341,45,3,2,0,15,22,25,-42
1520204858582381,-29,-9,-5,-8,-13,-26,-17,56
1520204858582381,79,15,2,2,-8,-23,-39,35
1520204858583384,-100,-15,-6,-45,-10,-2,8,-13
1520204858583384,-7,0,2,37,38,8,-31,27
1520204858605442,17,2,0,15,2,-35,15,-87
1520204858605442,3,0,0,-21,-39,15,-17,-51
1520204858605442,22,-14,-21,-2,25,-48,-6,58
1520204858605442,-12,6,13,12,11,63,-7,22
1520204858619480,-22,-13,-12,-31,-94,-53,2,-50
1520204858619480,16,4,5,18,78,15,35,-18
1520204858627501,46,1,-2,56,8,28,12,-4
1520204858627501,-2,6,1,-24,-13,-17,19,33
1520204858642541,19,1,1,8,18,4,4,61
1520204858642541,-32,-11,-3,-18,-51,8,-21,-35
1520204858643544,-1,7,4,3,11,35,24,8
1520204858643544,-5,4,-3,-4,-28,-37,4,-77
1520204858664600,3,-7,2,9,6,26,-26,-63
1520204858664600,10,5,-2,-18,-42,-40,-39,44
1520204858665603,27,11,12,25,52,26,-19,11
1520204858665603,-104,-37,-24,-22,-13,-10,-12,-45
1520204858679639,17,-2,0,-30,1,-26,13,46
1520204858679639,-9,0,2,22,-8,50,8,6
1520204858687661,26,5,-1,4,3,-5,-30,-68
1520204858687661,24,4,-2,-9,-5,-19,11,74
1520204858702701,-14,1,4,4,1,22,3,-20
1520204858702701,-19,-9,-5,-4,10,-51,-20,71
1520204858703704,-9,3,3,6,-11,15,13,-31
1520204858703704,-13,3,1,2,37,48,-1,72
1520204858724760,17,9,4,-7,-3,-34,0,33
1520204858724760,13,0,3,1,0,0,2,-44
1520204858725763,11,-3,-3,1,4,-1,3,-33
1520204858725763,69,9,1,-8,-10,-6,6,-2
1520204858747821,-88,-22,-6,-2,4,35,10,-26
1520204858747821,30,8,2,-11,2,6,-25,13
1520204858748824,0,-6,1,8,-18,-44,77,23
1520204858748824,127,32,10,4,8,5,10,-118
1520204858762861,-77,-19,-3,3,2,12,-8,51
1520204858762861,48,-1,1,-2,-11,0,9,11
1520204858762861,40,6,-3,4,5,16,-14,71
1520204858762861,5,11,13,4,1,-6,1,29
1520204858784920,74,-1,-6,6,7,-20,14,-39
1520204858784920,9,-1,-1,-1,1,-20,-8,43
1520204858785923,-41,-4,1,-9,-14,55,16,46
1520204858785923,20,4,-1,2,21,-46,-33,-38
1520204858807981,-52,4,-2,-8,-11,7,-4,-7
1520204858807981,-30,-14,0,2,1,-7,9,-23
1520204858808984,39,10,2,-10,-3,-59,-11,21
1520204858808984,-62,-2,2,18,9,67,21,-15
1520204858822018,109,13,-3,3,-1,2,-19,-18
1520204858822018,-57,-19,-11,-17,-27,-18,36,-36
1520204858823021,-26,-10,-6,-2,-17,-46,-1,-13
1520204858823021,20,-5,-1,-7,-5,-45,-15,15
1520204858845080,103,22,10,11,15,7,15,3
1520204858845080,-75,-7,-5,-13,-2,19,8,-18
1520204858846083,69,10,6,0,3,18,-23,-16
1520204858846083,-46,-30,-12,-3,-11,-9,-7,-54
1520204858868141,-70,13,10,2,5,24,7,-22
1520204858868141,15,3,2,5,0,-13,-10,-18
1520204858869144,19,3,1,3,14,46,-13,-13
1520204858869144,-11,5,2,1,-4,-5,19,25
1520204858882178,109,30,13,12,15,5,25,5
1520204858882178,-105,-46,-24,-17,-11,25,-31,5
1520204858883182,-5,-9,4,0,1,-9,-14,32
1520204858883182,93,15,5,0,-1,-2,11,-7
1520204858905240,76,-5,-4,0,-3,6,-5,35
1520204858905240,-29,-10,-5,0,2,-2,3,-2
1520204858906243,39,11,6,12,11,16,11,-47
1520204858906243,-103,-19,-17,-23,-24,-25,-8,0
1520204858928301,2,-2,7,7,5,18,18,46
1520204858928301,-6,8,-2,-2,3,23,8,-7
1520204858929304,0,-29,-3,3,3,-2,-5,-39
1520204858929304,-36,9,2,1,-5,-12,-4,-20
1520204858942339,27,0,-9,-8,-6,-11,-14,23
1520204858942339,93,12,2,5,2,19,3,10
1520204858943342,-57,6,6,-7,3,-11,-11,35
1520204858943342,87,8,-14,-23,-19,-7,-17,56
1520204858965400,-82,-14,1,18,7,-10,3,-55
1520204858965400,99,25,2,1,2,-2,-1,16
1520204858965400,-26,-6,-18,-18,-15,-23,-11,45
1520204858965400,97,12,3,-33,-4,35,0,68
1520204858987458,-39,-22,-2,44,22,-55,-31,-77
1520204858987458,-95,-11,4,5,-2,-63,-46,-36
1520204858988461,6,-3,-10,1,28,62,-10,-15
1520204858988461,27,-3,-4,-1,-17,-7,6,-20
1520204859002499,31,-1,-3,-28,-15,23,-8,55
1520204859002499,32,10,7,2,5,11,1,-49
1520204859003502,8,-2,1,9,-9,-32,-11,-2
1520204859003502,-122,-34,-13,-8,-9,-18,-30,-54
1520204859024557,11,-3,-3,-8,-4,11,-2,-11
1520204859024557,87,6,9,15,9,4,14,17
1520204859025560,-47,3,3,-8,-6,11,15,11
1520204859025560,-58,-8,-7,5,4,6,7,-4
1520204859047619,-6,1,-4,-2,-4,-12,-2,0
1520204859047619,-50,3,1,-4,-3,2,16,6
1520204859048621,20,-11,-6,-7,-3,1,-4,-1
1520204859048621,127,20,9,13,10,-4,-10,19
1520204859062658,-75,-8,-3,-4,-7,16,49,0
1520204859062658,51,8,4,3,23,13,5,55
1520204859063661,-10,3,1,1,-2,3,-7,1
1520204859063661,0,-6,8,12,6,-8,-7,-22
1520204859084717,-43,1,-10,-15,-48,27,8,-22
1520204859084717,85,6,-3,8,56,18,25,40
1520204859085720,65,-1,3,1,-5,-13,5,-26
1520204859085720,-17,8,-9,-11,-6,-1,8,50
1520204859107779,-27,-7,6,-4,-2,-4,-4,24
1520204859107779,47,-5,-7,-8,-29,-7,-6,-33
1520204859114797,8,8,9,14,15,26,5,15
1520204859114797,-86,-17,6,9,4,-15,-2,-52
1520204859122818,32,4,-16,-15,-3,-6,-14,30
1520204859122818,41,4,5,2,-9,-4,15,17
1520204859122818,95,16,6,3,8,-29,-1,6
1520204859122818,-70,-30,-8,-4,-13,51,6,-52
1520204859144877,9,1,6,8,14,-16,5,0
1520204859144877,-22,-4,2,5,3,14,-6,-30
1520204859145880,-20,27,3,-15,-21,-15,3,33
1520204859145880,-12,-16,1,11,12,0,5,-24
1520204859167939,57,8,-1,-5,5,-1,-18,22
1520204859167939,38,-6,5,4,-9,-15,-3,-13
1520204859167939,65,12,-1,6,-2,14,4,25
1520204859167939,-46,13,6,-2,6,19,30,18
1520204859181976,15,-11,5,4,7,-6,-26,-18
1520204859181976,-32,-6,-10,-20,-27,-54,-22,25
1520204859182979,104,29,-5,1,2,5,5,32
1520204859182979,-21,6,12,12,13,36,25,33
1520204859205037,-66,-17,-6,-10,-7,-35,-19,-48
1520204859205037,77,20,-5,-8,-11,-23,15,28
1520204859206040,-111,-40,-15,-6,-9,36,-19,-68
1520204859206040,77,4,5,4,9,-9,10,12
1520204859227096,125,29,1,-4,-1,13,10,59
1520204859227096,-45,-20,8,5,2,0,-6,-25
1520204859228099,39,17,3,2,2,-5,21,39
1520204859228099,48,4,-7,-10,-9,-15,-12,17
1520204859242136,62,10,14,18,14,11,4,-41
1520204859242136,-49,-7,-13,-5,-4,3,-11,-18
1520204859243139,81,9,1,-4,-2,-4,12,74
1520204859243139,30,-15,-3,2,-3,-15,-26,-82
1520204859265197,35,2,6,-1,5,-4,-1,-10
1520204859265197,-73,8,-7,-7,-8,24,9,31
1520204859266200,-54,-16,2,3,3,-4,-12,-14
1520204859266200,89,13,8,8,5,-14,-2,-21
1520204859287256,-12,-13,-24,-13,-8,-4,5,2
1520204859287256,126,8,7,5,3,19,5,-8
1520204859288259,-93,-29,-1,3,1,-8,-8,-75
1520204859288259,127,11,-8,-3,-5,-16,1,92
1520204859302296,-30,31,-7,-7,-5,4,5,-62
1520204859302296,-38,-29,-4,-2,-1,2,-13,51
1520204859310317,-90,-18,-2,-4,-4,-11,-5,-22
1520204859310317,65,13,-17,-12,-17,-20,-34,13
1520204859325358,45,-18,14,10,13,23,28,26
1520204859325358,-110,-4,-30,-24,-19,-25,-35,4
1520204859325358,40,17,18,6,1,-4,-14,-90
1520204859325358,38,-10,-6,6,5,6,17,33
1520204859347416,-96,-1,2,-2,-2,-5,-6,14
1520204859347416,93,-6,10,19,17,22,17,-26
1520204859348419,-18,16,2,3,4,4,17,-2
1520204859348419,30,3,0,-10,-8,-9,-5,16
1520204859361454,87,5,10,17,13,9,-1,-71
1520204859361454,-12,29,-2,-17,-13,-7,-6,41
1520204859370477,62,5,6,3,5,7,-5,54
1520204859370477,-86,-11,0,7,2,-1,-4,31
1520204859385518,-87,-61,-10,-12,-6,-1,-9,-92
1520204859385518,50,-1,3,5,3,5,18,9
1520204859385518,114,43,-13,-11,-10,-12,-8,36
1520204859385518,2,2,10,8,10,10,17,-3
1520204859407576,-57,-14,-10,-11,-7,-5,-6,37
1520204859407576,-43,23,8,4,4,1,13,-40
1520204859408579,11,-32,-5,0,-1,16,16,11
1520204859408579,-85,-2,19,16,16,12,-4,-23
1520204859421614,110,13,-12,-9,-12,-6,-13,121
1520204859421614,-49,-24,19,17,17,31,27,-105
1520204859429635,62,-9,-13,-9,-4,-13,-21,-9
1520204859429635,-35,-3,-9,-24,-20,9,9,63
1520204859444675,-83,-2,15,19,13,-32,-13,76
1520204859444675,107,28,-14,-22,-52,-7,-26,36
1520204859445678,-41,-31,-4,-1,10,3,9,-62
1520204859445678,-31,4,-21,-21,-5,-48,-48,35
1520204859467736,-84,-39,-20,-7,-2,-29,20,-45
1520204859467736,92,-19,1,36,15,-18,-16,82
1520204859468739,-4,25,9,-11,-23,-28,16,22
1520204859468739,31,24,-6,-7,-24,-19,-15,11
1520204859481774,60,9,1,-22,-11,17,-3,-97
1520204859481774,15,7,2,-2,-12,79,-17,-13
1520204859489795,-44,-22,-2,53,47,-72,28,2
1520204859489795,-70,0,5,-13,9,37,9,-117
1520204859504835,-22,4,-16,-9,4,80,43,19
1520204859504835,-84,-26,8,-7,-14,-102,-31,-59
1520204859505838,11,7,5,-10,-17,-13,-15,78
1520204859505838,127,33,26,31,28,45,73,45
1520204859527896,77,13,3,-1,-5,-27,-50,54
1520204859527896,-106,-18,-4,-3,13,88,20,-95
1520204859527896,-1,-8,-14,-17,-11,3,-14,60
1520204859527896,12,-13,-1,12,1,-52,8,-35
1520204859541934,86,15,5,9,6,25,16,46
1520204859541934,-33,-11,-4,-14,10,-7,-1,38
1520204859549955,-40,-4,7,1,-17,47,-19,-81
1520204859549955,70,-17,-7,1,7,-31,-9,-50
1520204859564995,118,38,4,7,-4,-27,-27,80
1520204859564995,51,-33,-9,11,16,19,22,-22
1520204859565998,-25,-9,-2,-4,1,23,47,-8
1520204859565998,41,14,14,11,1,5,11,77
1520204859587053,-119,-68,-31,-32,-36,-46,-15,-83
1520204859587053,127,61,31,36,33,-40,-10,-26
1520204859588056,-73,-42,-24,-27,-10,-8,-13,-40
1520204859588056,57,25,31,-3,-5,0,-42,-12
1520204859602094,115,12,5,27,30,25,45,23
1520204859602094,-65,-5,-2,-16,-16,7,-6,-3
1520204859610115,75,-5,-16,4,-2,-20,-21,-39
1520204859610115,-102,-1,9,-9,-3,-13,-45,9
1520204859625155,-7,4,18,24,6,20,29,-5
1520204859625155,103,102,11,10,14,4,53,106
1520204859626158,65,-29,-11,-1,7,6,-41,18
1520204859626158,109,-13,-16,-7,-7,3,16,2
1520204859647214,126,36,9,-1,12,40,17,-37
1520204859647214,-7,11,3,-7,-15,-37,-61,78
1520204859648216,-94,-7,5,1,12,25,20,25
1520204859648216,86,21,-15,-7,-13,32,43,-35
1520204859670275,-43,-16,15,-2,2,-14,-51,3
1520204859670275,3,-63,-33,-13,-9,-44,27,16
1520204859671278,119,13,-2,13,10,4,-13,-83
1520204859671278,-54,-31,-40,-30,-34,-35,-17,-13
1520204859685315,-18,-14,-1,-15,-12,2,28,17
1520204859685315,30,-8,-3,-10,-1,19,-9,24
1520204859686318,113,32,16,18,13,5,33,19
1520204859686318,-25,-23,8,8,3,-2,-16,-50
1520204859707374,-10,28,-16,-10,-15,-28,-18,-2
1520204859707374,88,14,15,9,13,-3,-1,-6
1520204859708376,-40,-13,-15,-20,-29,-6,-8,-14
1520204859708376,-5,-25,2,15,21,25,4,65
1520204859730435,26,15,0,-10,-5,-12,-25,34
1520204859730435,-85,-57,-29,-8,-5,-9,-9,-47
1520204859731438,89,34,37,0,6,4,18,-52
1520204859731438,-54,-15,-18,-4,-24,-12,-6,-29
1520204859745475,80,3,-9,17,31,-17,17,23
1520204859745475,-55,-41,-7,0,-14,65,-25,12
1520204859745475,48,8,-4,-3,-18,-31,25,-32
1520204859745475,19,-12,15,1,18,-7,22,38
1520204859767534,-21,11,4,5,3,15,14,59
1520204859767534,70,18,-7,18,10,4,7,8
1520204859768537,25,-12,8,0,0,20,-11,15
1520204859768537,3,19,35,12,-5,11,-18,-11
1520204859790595,49,-10,-25,-23,-9,8,31,-51
1520204859790595,81,30,37,39,9,3,3,-1
1520204859791598,-56,-70,-58,-69,-13,7,-5,-45
1520204859791598,127,29,-9,17,3,4,11,31
1520204859804632,-31,-12,-12,-24,-15,16,-26,12
1520204859804632,69,29,18,20,2,-40,-2,2
1520204859805635,-25,9,21,-24,-38,40,42,86
1520204859805635,61,8,-7,9,27,-28,-28,-53
1520204859827694,-128,-62,13,17,33,6,1,-28
1520204859827694,10,-16,-8,-29,-12,-39,11,-16
1520204859828696,4,58,18,-66,-80,22,-19,104
1520204859828696,-72,-40,-29,-27,49,-12,4,1
1520204859850755,127,73,30,63,38,34,2,37
1520204859850755,-82,-48,-17,-5,56,-25,7,107
1520204859851758,43,6,2,31,4,-55,10,21
1520204859851758,-22,-11,-1,-16,-57,8,-5,-22
1520204859864792,116,33,39,-48,-38,-48,-20,0
1520204859864792,-77,-16,-3,-8,-33,11,-25,23
1520204859865795,-75,-16,-17,48,31,7,-33,-32
1520204859865795,109,9,14,28,9,32,21,-52
1520204859887854,-109,-40,-20,103,86,10,-2,22
1520204859887854,-21,14,10,-53,-45,15,25,21
1520204859887854,18,-1,18,4,-18,-40,-29,35
1520204859887854,-43,7,-11,-32,-79,25,-38,-23
1520204859910915,-42,-9,-7,23,71,32,27,-17
1520204859910915,113,48,-2,15,-4,29,61,-30
1520204859911918,-59,-46,-30,10,-14,-26,-23,73
1520204859911918,-10,22,16,2,39,14,-8,13
1520204859924952,46,10,1,-91,-73,-6,-43,36
1520204859924952,-34,-9,2,85,-1,-55,-46,-20
1520204859925955,14,27,5,-27,-49,37,19,16
1520204859925955,-6,-30,-33,25,46,-22,-9,52
1520204859948014,34,-10,-8,42,-2,-29,7,-47
1520204859948014,8,10,0,-77,42,5,9,41
1520204859948014,-61,9,18,54,50,-14,-9,-16
1520204859948014,-21,-20,-15,-31,-95,-23,-5,-41
1520204859971075,22,1,-4,-5,82,3,19,-19
1520204859971075,40,-15,-23,-60,-89,0,-25,-19
1520204859972078,-79,-7,19,15,80,13,-10,-49
1520204859972078,81,14,-4,73,14,17,56,-52
1520204859985112,-33,-10,-2,5,-30,9,-4,-2
1520204859985112,55,4,1,-53,-21,3,-12,33
1520204859986115,29,6,-2,-20,-29,-2,-6,-17
1520204859986115,20,10,10,-6,-10,41,5,23
1520204860007171,16,22,14,0,-7,-58,-21,-76
1520204860007171,-122,-36,-23,5,9,-14,-27,82
1520204860008174,59,-4,-9,18,-68,-28,-1,-51
1520204860008174,-48,-11,-3,-66,91,15,6,-27
1520204860030232,20,4,1,17,-45,18,9,-65
1520204860030232,-26,-6,-21,18,20,-28,-17,37
1520204860031236,-21,31,30,-19,-69,-47,-11,-19
1520204860031236,-88,-18,8,-27,55,22,-34,57
1520204860045272,8,-7,-13,80,67,57,96,-63
1520204860045272,95,34,3,14,16,14,5,-8
1520204860046275,-61,-25,-3,6,4,6,-17,13
1520204860046275,38,3,-8,-29,-73,-40,-8,59
1520204860067331,6,-6,-6,-55,-49,-16,-17,20
1520204860067331,73,20,17,13,6,23,16,-107
1520204860068334,-17,-16,-12,13,37,16,-2,63
1520204860068334,25,11,13,6,-14,-13,4,1
1520204860090392,-41,-4,2,-35,-47,-12,-30,3
1520204860090392,8,-17,-12,23,-22,-9,11,-45
1520204860091395,51,8,10,-54,-6,5,-10,23
1520204860091395,35,15,15,103,19,3,26,-59
1520204860105433,12,-4,-9,-42,52,20,-39,37
1520204860105433,-11,-6,-8,51,-11,10,41,2
1520204860105433,-22,-12,-10,-35,-2,15,26,15
1520204860105433,15,12,7,59,29,-37,7,-36
1520204860127491,40,-5,-8,-40,-63,-21,-37,124
1520204860127491,-17,3,12,-8,-14,-18,22,-8
1520204860128494,43,-3,-16,24,101,22,-20,-32
1520204860128494,29,17,9,-74,-116,-28,30,-8
1520204860149550,14,3,1,43,50,46,39,16
1520204860149550,-17,-17,-4,23,43,9,0,-94
1520204860150552,-4,-5,-15,28,-8,-12,-9,100
1520204860150552,-30,-6,-7,-105,-54,-36,-17,-6
1520204860164590,6,3,7,80,41,9,-44,-25
1520204860164590,9,6,5,-3,-53,4,-13,-2
1520204860165593,78,11,-5,-11,18,-2,0,-74
1520204860165593,-17,1,-2,-27,-20,-20,-15,27
1520204860187651,-33,-11,-9,-54,-80,-61,-25,24
1520204860187651,-51,-14,-22,-107,-20,5,-24,-15
1520204860188654,100,11,3,-1,9,-8,15,-103
1520204860188654,-73,-20,-17,-26,-74,-22,-44,60
1520204860209710,8,10,25,72,23,-87,-53,-39
1520204860209710,27,5,2,52,-1,-64,44,15
1520204860210713,-31,-12,-29,-116,-35,-12,-25,40
1520204860210713,42,7,14,48,-32,-11,-18,26
1520204860224750,-38,-2,-3,-31,7,40,11,64
1520204860224750,15,4,9,50,-11,33,-14,23
1520204860225753,-4,-3,-3,9,86,25,11,-6
1520204860225753,-2,6,12,49,24,40,0,-55
1520204860247811,-18,-11,-16,-117,-60,1,14,48
1520204860247811,19,12,25,1,1,-2,19,41
1520204860248814,53,21,13,88,-9,-28,-9,-51
1520204860248814,-85,-11,-12,-57,59,7,9,-28
1520204860270873,-8,4,14,2,-35,-19,-11,-39
1520204860270873,12,2,1,-96,-24,5,-14,-37
1520204860271875,-48,1,5,-34,-43,-29,-16,47
1520204860271875,44,3,-5,23,6,49,34,-16
1520204860283907,-2,-5,-7,47,35,-22,3,-63
1520204860283907,-32,-4,-5,6,41,67,-15,-50
1520204860292931,5,-6,-6,45,13,7,12,27
1520204860292931,1,-4,-7,-56,5,5,-14,35
1520204860307971,-8,-8,-20,-128,-122,-27,8,5
1520204860307971,0,-4,-5,-47,-25,21,1,12
1520204860307971,5,2,6,74,-20,-10,6,-11
1520204860307971,30,11,13,-63,6,13,19,-38
1520204860331033,-9,0,-5,-77,-28,5,4,-33
1520204860331033,-13,-8,-3,-8,85,25,-14,51
1520204860331033,10,-4,-8,-52,-49,-7,1,-19
1520204860331033,48,-9,-8,-80,8,67,20,0
1520204860344067,-59,12,25,127,43,-62,-18,-53
1520204860344067,3,2,3,-39,13,-36,-2,60
1520204860352088,4,2,7,8,9,39,28,36
1520204860352088,13,-8,-14,-3,-26,-1,-7,-30
1520204860367129,39,1,-3,-47,6,47,21,19
1520204860367129,-15,-6,-7,-23,-41,-7,-4,39
1520204860368131,-15,9,11,-34,-37,19,-10,-32
1520204860368131,-32,-31,-34,-44,39,-23,-49,-29
1520204860390190,36,11,7,-120,-62,7,58,-6
1520204860390190,-6,4,9,102,-105,-38,4,5
1520204860391193,16,4,-1,-46,11,39,21,-35
1520204860391193,-14,-4,-6,61,-26,9,-22,18
1520204860404227,-19,-11,-9,-92,-4,7,-4,42
1520204860404227,17,9,15,-11,-11,5,-16,-94
1520204860412248,19,16,19,83,-64,-18,49,25
1520204860412248,-24,1,9,-21,120,29,14,35
1520204860427289,16,2,2,36,-15,-74,-52,-50
1520204860427289,10,-2,-5,-99,21,23,32,-19
1520204860428292,-40,-20,-27,-125,-76,-77,-78,51
1520204860428292,33,28,47,111,60,27,48,52
1520204860450350,10,5,7,-46,29,19,8,-27
1520204860450350,-17,-8,-16,-111,-63,8,-7,-36
1520204860450350,8,5,5,68,30,-28,-15,-54
1520204860450350,24,2,-7,-18,-66,-26,13,43
1520204860464387,-8,-8,-1,48,8,52,-9,-38
1520204860464387,-19,-4,1,108,37,-6,1,-11
1520204860472408,-1,0,-3,-53,13,33,21,16
1520204860472408,7,4,8,29,-31,-28,-2,-5
1520204860487449,-11,-5,-12,-14,2,11,33,39
1520204860487449,2,-5,-6,10,-1,9,3,18
1520204860488451,27,11,6,46,25,-45,-11,-14
1520204860488451,-27,0,-11,-41,-90,-47,-35,-35
1520204860510510,-23,-22,-16,-17,1,-32,13,-46
1520204860510510,24,2,2,53,58,0,7,12
1520204860510510,32,0,-2,-1,33,70,19,-12
1520204860510510,-85,-7,-7,-61,-45,-31,12,31
1520204860524547,25,5,2,52,-34,-12,-4,32
1520204860524547,-2,-2,-3,-12,43,16,-2,21
1520204860532568,-15,-3,1,-53,-4,0,34,-25
1520204860532568,8,2,-2,-1,-3,-3,-7,48
1520204860547609,5,-2,0,40,-9,41,-9,9
1520204860547609,-18,-2,-6,-41,20,11,32,82
1520204860548612,-4,-6,-2,-2,26,-19,-36,-45
1520204860548612,37,5,4,26,30,1,8,26
1520204860569667,-2,8,3,-11,-8,18,1,60
1520204860569667,-22,-2,-5,-37,-52,-21,-12,-39
1520204860570670,-24,-3,-5,-7,60,22,-4,-17
1520204860570670,25,-6,-3,15,23,6,2,18
1520204860584707,45,6,3,-5,-5,7,8,36
1520204860584707,-59,-10,1,-2,-11,-36,-30,-17
1520204860592729,12,4,1,7,-8,2,-7,14
1520204860592729,42,8,0,21,4,-24,15,-75
1520204860607769,-54,-8,-1,4,18,6,-13,-30
1520204860607769,17,3,3,8,-23,0,-19,20
1520204860608772,15,-7,-3,0,-24,1,9,-52
1520204860608772,39,2,-4,10,-9,-5,9,65
1520204860629827,-59,8,15,-25,38,34,-8,38
1520204860629827,27,-2,-2,-2,29,19,29,-31
1520204860630830,-22,-13,-1,13,-11,-32,-3,-13
1520204860630830,42,-6,-7,1,8,8,-11,-72
1520204860652889,-26,-2,-2,-26,-55,-13,-2,16
1520204860652889,24,-2,-4,8,-1,10,-41,-61
1520204860653891,-23,8,8,-8,6,13,28,25
1520204860653891,-17,0,4,21,40,3,-9,-28
1520204860667929,-2,-9,-9,-2,-7,10,-6,-36
1520204860667929,28,3,-2,2,-1,1,-3,-43
1520204860667929,-9,8,-1,-12,-22,3,-4,54
1520204860667929,-16,-11,-4,-7,-38,-4,0,-14
1520204860689987,24,8,2,7,10,-4,7,-42
1520204860689987,6,2,-2,5,8,-21,-1,-3
1520204860690990,15,4,1,-7,-9,30,-3,15
1520204860690990,-29,-1,-1,19,25,22,-3,11
1520204860713049,-1,-2,2,11,4,-53,5,18
1520204860713049,11,5,4,13,-27,0,4,-18
1520204860714052,0,-6,-3,0,3,-4,-9,39
1520204860714052,2,3,4,-5,16,9,-3,-10
1520204860727086,75,10,-2,8,-7,-2,-6,-24
1520204860727086,-73,-11,-1,-8,-15,-14,-11,-2
1520204860728089,-2,-6,-3,-3,24,10,4,-11
1520204860728089,79,6,0,7,8,-8,-8,39
1520204860750147,-55,-14,-10,-5,-4,-14,32,-3
1520204860750147,12,11,9,1,-6,-1,-8,-9
1520204860751151,-25,-9,-6,-1,5,8,-11,-13
1520204860751151,-6,3,-1,-2,-14,-11,-9,-3
1520204860773209,11,-3,-2,3,-9,-5,-13,-23
1520204860773209,15,5,-1,-3,4,3,8,11
1520204860774212,-14,-4,-2,-2,-10,1,9,24
1520204860774212,-18,-3,1,1,2,-4,-11,-31
1520204860787246,10,0,0,1,2,12,1,7
1520204860787246,10,0,5,5,3,-1,-5,-43
1520204860788249,12,6,0,-1,-5,5,-7,73
1520204860788249,-74,-13,-3,-8,-8,-1,-1,-15
1520204860810307,44,1,-5,0,4,8,-12,-14
1520204860810307,-26,-5,-2,-3,2,2,-5,-33
1520204860811310,-6,-8,-8,-4,-7,-12,-7,2
1520204860811310,-11,-1,3,1,5,7,2,-7
1520204860833369,-7,0,4,4,0,10,5,49
1520204860833369,81,10,1,2,2,4,14,24
1520204860834372,-43,-8,-3,-2,-6,-1,-3,-35
1520204860834372,-36,-8,-5,-7,-3,9,-5,8
1520204860847406,39,4,0,3,3,13,-8,-16
1520204860847406,-42,-5,-3,-2,1,8,3,8
1520204860848409,70,15,7,11,5,4,8,-17
1520204860848409,-82,-16,-8,-11,-5,-3,-7,11
1520204860870468,1,3,-3,-5,0,8,2,20
1520204860870468,13,0,1,5,1,-4,-1,24
1520204860870468,-5,0,-1,-1,-3,-8,1,-6
1520204860870468,30,11,2,3,3,-1,12,-6
1520204860893529,7,-3,0,5,0,19,-7,33
1520204860893529,15,1,-1,-2,-1,-26,-6,34
1520204860893529,-63,-14,-5,-4,-2,0,-2,-52
1520204860893529,-9,-5,0,-2,-2,1,-3,-1
1520204860907566,-8,1,1,1,1,-1,-3,-9
1520204860907566,30,4,-1,-2,2,10,7,15
1520204860908569,28,5,5,3,2,1,4,17
1520204860908569,6,3,4,2,0,6,-1,-21
1520204860929625,-7,-7,-8,-10,3,-19,-2,-4
1520204860929625,-51,-9,-2,-3,-5,-5,-8,-2
1520204860930628,37,10,5,3,-2,-3,4,21
1520204860930628,7,5,3,4,6,3,5,10
1520204860952686,-54,-6,-4,-2,-8,-7,-6,-62
1520204860952686,-43,-8,-7,-6,-7,-1,-1,3
1520204860953689,13,-1,-4,-8,-2,0,-1,11
1520204860953689,53,4,0,2,2,3,5,-4
1520204860967726,-24,1,-1,3,-2,-8,-5,-20
1520204860967726,40,4,0,-3,0,-11,7,17
1520204860968729,1,1,4,6,0,5,-10,-51
1520204860968729,-36,-8,-3,-3,-4,-16,-24,-12
1520204860989785,-26,0,4,2,4,3,7,10
1520204860989785,54,6,-1,1,5,23,6,20
1520204860990788,-34,-3,-2,-2,-1,13,15,9
1520204860990788,80,6,-2,-4,1,0,8,-8
1520204861012847,12,-5,1,4,1,1,-4,3
1520204861012847,-79,-11,-1,-4,-5,-3,-7,-21
1520204861013849,53,2,-1,-3,0,-2,6,45
1520204861013849,-26,1,-2,-4,-3,-7,-6,-12
1520204861027886,-13,1,3,5,1,6,1,9
1520204861027886,97,3,-1,0,1,0,8,15
1520204861027886,-37,-5,-4,-3,0,-6,-3,-42
1520204861027886,-101,-6,4,3,4,11,6,-21
1520204861049945,103,11,1,-1,0,-15,-2,76
1520204861049945,-32,3,4,2,1,2,-3,-20
1520204861050948,24,3,2,5,-2,-5,-13,-9
1520204861050948,12,0,-4,-5,-2,2,-1,-6
1520204861073006,-30,3,5,5,4,9,-1,-76
1520204861073006,-28,-14,-13,-13,-12,-14,-19,28
1520204861074010,-44,-2,1,-3,-2,-1,-4,20
1520204861074010,28,-1,-1,3,2,-4,5,6
1520204861087044,26,-1,-3,0,1,2,8,5
1520204861087044,21,5,3,4,2,7,-3,-25
1520204861088046,40,11,-1,-2,-4,-4,1,19
1520204861088046,-10,-9,-3,-3,-2,-5,-1,5
1520204861110105,-73,-10,1,-2,0,1,0,4
1520204861110105,4,10,5,5,0,-2,2,-27
1520204861111108,19,4,-1,5,5,0,-7,-19
1520204861111108,-4,-7,-2,-3,-1,1,5,40
1520204861133166,-48,-6,-4,-2,0,5,9,8
1520204861133166,-85,-2,-3,-4,-4,-4,-5,-13
1520204861134170,20,1,6,6,6,4,1,8
1520204861134170,-24,5,0,-2,-2,-3,-2,-8
1520204861147204,40,9,4,2,3,2,-2,-1
1520204861147204,107,-6,-2,4,4,2,-4,-7
1520204861148207,-101,-16,-11,-7,-7,-5,3,-4
1520204861148207,16,-9,-5,-3,-2,2,11,14
1520204861170265,-15,1,3,-3,-3,-11,-16,28
1520204861170265,90,1,-3,1,0,-1,-6,-52
1520204861171268,-39,-9,-3,-1,-4,-5,-5,-6
1520204861171268,-10,17,9,9,6,7,10,16
1520204861200345,-25,-16,-4,-3,-4,1,1,-23
1520204861200345,-67,-5,-13,-10,-10,-10,-7,-19
1520204861201348,7,-11,3,-3,-1,-1,-7,37
1520204861201348,10,9,4,3,5,-1,0,12
1520204861207364,116,37,9,7,2,6,16,44
1520204861207364,-73,-22,-5,-2,-1,-3,-7,-29
1520204861208367,-8,6,-6,-11,-10,-10,-21,-10
1520204861208367,97,8,9,13,11,9,-4,23
1520204861230425,95,10,-5,-9,-8,-7,-3,24
1520204861230425,-6,-2,8,9,7,10,26,20
1520204861230425,36,-27,-6,5,5,6,13,15
1520204861230425,100,-7,-20,-22,-20,-19,-24,2
1520204861253486,-87,10,6,4,4,4,5,-62
1520204861253486,12,4,2,4,5,8,23,-10
1520204861254489,-4,6,-2,-2,-3,-9,-22,32
1520204861254489,48,-14,-2,5,0,0,-7,-15
1520204861266521,-57,-27,-11,-11,-8,-5,1,-8
1520204861266521,-74,4,-4,-11,-10,-12,-23,16
1520204861274542,44,-11,5,11,11,11,17,-65
1520204861274542,-112,23,0,-7,-9,-10,-13,8
1520204861289582,43,-16,-6,-3,-2,-2,2,7
1520204861289582,107,-1,12,8,5,4,7,7
1520204861290585,-43,-21,-18,-8,-6,-6,-6,0
1520204861290585,16,3,0,-2,-3,3,14,-24
1520204861313646,-6,15,9,4,4,6,10,-25
1520204861313646,63,6,-3,2,1,-1,-13,64
1520204861313646,-47,5,-2,-11,-8,-11,-11,29
1520204861313646,66,-10,-2,1,1,-2,-10,6
1520204861326681,-56,-20,-7,-2,-2,-4,-9,17
1520204861326681,-26,0,5,3,3,1,9,-60
1520204861334703,-17,29,4,1,0,4,5,4
1520204861334703,-10,-10,-3,-2,-2,-2,10,16
1520204861349742,42,10,0,9,8,9,2,-78
1520204861349742,-95,-34,-19,-15,-13,-18,-33,19
1520204861350745,111,18,9,4,0,0,-7,-17
1520204861350745,34,-12,4,0,0,4,10,-11
1520204861372804,-5,-2,-7,-10,-11,-12,-22,-40
1520204861372804,48,-2,-3,0,2,4,14,13
1520204861379822,36,1,-5,-10,-5,-1,0,-18
1520204861379822,58,21,5,3,2,-4,-3,-4
1520204861386841,-83,0,-1,0,-1,3,14,16
1520204861386841,33,7,3,2,3,8,21,96
1520204861394862,54,-4,-10,1,3,5,0,20
1520204861394862,-79,3,11,3,-1,-7,-30,58
1520204861409902,-11,-10,2,4,4,3,5,21
1520204861409902,-47,9,-3,-4,0,-2,-3,3
1520204861410906,-26,16,14,2,-1,0,9,-26
1520204861410906,15,-13,-17,-5,-1,0,-1,-70
1520204861432964,-35,-2,-2,-3,-5,-8,-11,9
1520204861432964,73,19,19,15,15,13,14,1
1520204861432964,84,-8,-2,2,-3,2,9,29
1520204861432964,55,-33,-17,-7,-5,0,24,-14
1520204861447001,127,-2,1,4,-1,-7,-16,-12
1520204861447001,88,24,15,2,3,2,-18,29
1520204861455022,-20,26,16,7,5,2,1,-59
1520204861455022,45,21,8,9,9,10,17,-15
1520204861470062,124,2,-12,5,12,14,38,-35
1520204861470062,-77,-63,-10,5,0,-4,-13,36
1520204861471066,-29,14,21,-6,-12,-8,-11,-61
1520204861471066,-41,33,15,7,0,-1,-23,16
1520204861492121,-121,-36,-12,-6,-5,-9,-11,13
1520204861492121,75,1,-11,-6,1,5,11,-28
1520204861493124,-97,-42,-17,-2,12,5,15,-27
1520204861493124,-50,14,9,5,2,3,16,-49
1520204861507161,66,28,8,-4,-7,-12,-34,48
1520204861507161,-17,24,8,-6,-9,-9,-26,23
1520204861515182,46,5,0,3,7,1,-13,-27
1520204861515182,10,-35,-34,-20,-7,7,30,46
1520204861530223,43,42,28,13,6,14,23,33
1520204861530223,-7,-20,-24,-34,-25,-22,-21,22
1520204861531225,32,14,10,0,-8,4,21,75
1520204861531225,-40,20,33,26,16,6,-17,-60
1520204861552281,70,-5,-15,-12,-3,-3,-11,61
1520204861552281,127,9,-32,-6,-12,-4,28,13
1520204861553285,50,5,31,16,11,15,10,-46
1520204861553285,-59,-11,-10,-12,-8,-7,-16,48
1520204861575343,32,-15,-3,2,2,0,-13,-7
1520204861575343,0,33,41,17,5,8,32,-70
1520204861576346,-33,-40,-39,-14,1,-2,8,72
1520204861576346,-54,1,14,2,-12,-5,-6,-10
1520204861590383,97,23,6,19,11,11,22,-76
1520204861590383,-87,-44,-14,-16,-7,-16,-69,-39
1520204861590383,28,16,16,-5,-12,-6,-2,52
1520204861590383,-24,-16,-19,-19,-3,-6,-17,-65
1520204861613444,-73,-49,-21,-9,-7,-6,-7,-18
1520204861613444,26,0,6,16,8,7,17,-98
1520204861613444,86,18,5,-4,1,3,7,-7
1520204861613444,-75,-38,-31,-19,-24,-23,-28,23
1520204861635503,-32,11,18,4,1,6,12,6
1520204861635503,-26,20,-12,-2,0,0,7,-19
1520204861636506,-72,-61,-30,-11,-3,-10,-18,-38
1520204861636506,127,32,3,26,24,11,13,72
1520204861650546,9,26,37,0,-6,-1,-8,-57
1520204861650546,-31,11,7,-11,7,11,22,10
1520204861650546,5,0,-14,-14,-12,-11,-9,61
1520204861650546,51,-2,9,35,19,10,-5,-70
1520204861672601,-94,-53,-46,-70,-39,-23,-9,-45
1520204861672601,99,32,23,27,6,12,18,71
1520204861673604,-16,-19,-26,-20,4,-2,-3,-20
1520204861673604,-25,-67,-41,-26,-22,-19,-16,35
1520204861695663,98,44,19,20,7,3,-1,69
1520204861695663,-128,-56,-24,7,8,-8,-30,-48
1520204861696666,-26,28,35,50,-1,2,2,26
1520204861696666,13,58,42,-1,0,6,18,6
1520204861709700,-57,2,-8,2,2,-2,-10,-34
1520204861709700,10,-21,-32,9,4,-7,-10,31
1520204861710703,14,-24,2,-2,6,5,6,-46
1520204861710703,-1,23,25,5,3,6,9,10
1520204861732761,-22,-1,-2,1,7,4,3,-19
1520204861732761,-42,14,30,11,-8,1,0,34
1520204861733764,89,12,-7,5,0,2,11,-67
1520204861733764,12,5,-7,-12,2,5,5,-16
1520204861755822,86,11,2,-31,-9,2,-10,113
1520204861755822,-71,-25,-15,1,-3,-24,-19,-25
1520204861756826,56,11,-5,-11,1,12,-1,14
1520204861756826,16,1,11,5,10,22,33,22
1520204861770863,46,31,22,40,-9,20,2,25
1520204861770863,-52,-10,-11,-60,-5,-56,-6,-1
1520204861771866,-42,9,5,45,1,-9,-39,43
1520204861771866,32,3,-4,-5,4,9,-35,-22
1520204861792921,-44,-21,-32,0,1,-54,4,-11
1520204861792921,-29,-7,9,-39,-27,76,22,-23
1520204861792921,9,1,-10,-4,13,-36,25,-76
1520204861792921,105,13,-5,43,-11,10,12,107
1520204861815984,4,-5,6,-6,10,30,-32,-16
1520204861815984,40,-1,-12,-3,28,-39,4,7
1520204861816986,32,9,-19,-33,9,21,25,-9
1520204861816986,-11,-9,11,-2,-49,-76,-14,-36
1520204861830020,-7,1,0,-22,0,4,-10,53
1520204861830020,37,19,5,45,12,79,13,-65
1520204861831023,30,-17,-3,55,46,68,-44,68
1520204861831023,-83,-24,-22,-52,-18,19,43,4
1520204861852079,6,-5,-4,-22,-5,-97,-43,-67
1520204861852079,15,14,15,10,-22,-10,64,7
1520204861853081,-4,1,-11,-5,6,4,-7,-57
1520204861853081,0,0,-1,-54,-51,7,13,-28
1520204861876143,-10,-6,-6,29,35,-27,-21,-10
1520204861876143,28,7,-1,8,16,31,3,-10
1520204861876143,-24,13,33,-44,-59,-25,-5,54
1520204861876143,-43,-4,-3,8,-3,29,27,-4
1520204861890180,6,-11,-3,3,-10,-29,11,-52
1520204861890180,80,25,17,6,8,10,16,12
1520204861891183,-114,0,12,8,30,-4,-30,103
1520204861891183,79,18,-8,-31,-5,-7,19,-21
1520204861912239,-75,-30,-9,22,-42,23,16,47
1520204861912239,27,9,7,14,45,3,-10,7
1520204861913242,42,7,-11,-19,-17,-18,9,-9
1520204861913242,-27,-16,-16,-7,8,-36,-41,-54
1520204861935300,8,6,4,16,-26,31,-2,67
1520204861935300,31,-3,-8,-56,-19,-10,13,18
1520204861936303,-30,1,8,7,22,7,-12,1
1520204861936303,2,7,15,-2,40,-16,17,6
1520204861950340,4,-10,-12,1,-49,6,14,5
1520204861950340,17,-5,-5,16,51,-5,-32,52
1520204861950340,8,8,7,-2,-38,3,14,88
1520204861950340,-17,-13,-11,27,9,-22,-43,-21
1520204861973402,18,-4,-5,-11,57,15,18,-7
1520204861973402,-4,10,4,5,3,4,3,32
1520204861975407,17,4,5,-7,-27,-13,-10,-45
1520204861975407,-18,-11,-4,-4,-41,-32,-27,64
1520204861995460,-31,0,1,-16,2,89,15,-12
1520204861995460,-17,-3,4,63,-8,-15,19,-82
1520204861996463,-11,-5,-2,-30,12,7,16,8
1520204861996463,19,-14,-4,2,-7,23,-18,-56
1520204862010500,23,10,17,-6,14,-16,1,-45
1520204862010500,-25,-22,-45,-20,15,-11,-10,-2
1520204862010500,-15,46,46,18,-102,-39,-25,5
1520204862010500,-37,-5,13,32,127,-8,24,-9
1520204862032559,-7,-29,-23,-11,43,5,0,-15
1520204862032559,-4,0,14,-8,-49,-23,-16,21
1520204862033562,-38,-15,-20,-44,-25,-26,-3,-26
1520204862033562,39,21,8,7,44,54,-4,72
1520204862055620,4,4,0,34,8,-27,20,-12
1520204862055620,6,7,6,9,2,2,-2,-24
1520204862056623,2,-14,-18,-6,-29,20,23,-30
1520204862056623,-13,9,10,-5,-5,-7,-14,11
1520204862069657,-10,-8,-13,-6,9,16,0,20
1520204862069657,20,12,15,1,-12,-20,-9,-12
1520204862070660,7,-17,-14,-4,-41,-12,-10,74
1520204862070660,-26,-22,-14,0,11,3,5,1
1520204862092719,4,8,-3,-4,1,5,-3,-21
1520204862092719,-24,-3,4,-5,-21,-6,-23,33
1520204862093722,0,-10,-8,23,34,9,16,-23
1520204862093722,22,18,6,15,-49,24,0,-40
1520204862115780,-7,3,9,12,52,-15,-2,-27
1520204862115780,47,0,6,-12,-65,37,-11,60
1520204862116783,-45,-20,-19,-16,75,25,48,-12
1520204862116783,4,-2,-2,28,42,-41,-63,8
1520204862129818,10,17,9,-5,-49,-11,-8,-41
1520204862129818,-7,-19,-17,-22,-27,38,1,-2
1520204862137839,49,10,9,40,50,11,3,12
1520204862137839,-24,-2,1,-34,-82,38,3,-11
1520204862152879,14,1,1,29,-26,-69,-55,62
1520204862152879,-28,4,8,-8,65,28,-10,-18
1520204862152879,11,-4,-12,3,-60,-23,-15,-76
1520204862152879,10,1,-6,-35,-3,3,15,8
1520204862175940,-8,-8,0,8,11,1,30,-55
1520204862175940,-15,-9,-8,-30,-21,-26,17,45
1520204862176943,2,9,8,4,-62,60,-12,28
1520204862176943,-8,-14,-14,3,66,72,41,-59
1520204862188975,25,7,7,5,-7,16,49,74
1520204862188975,5,10,8,0,-15,49,-22,50
1520204862197999,4,-12,-15,-6,8,-73,-6,-61
1520204862197999,6,10,8,-3,-50,-31,-10,-51
1520204862212036,-14,-9,-7,13,-74,15,-21,3
1520204862212036,-28,-15,-17,2,-37,-73,57,-103
1520204862213039,0,-6,-2,-37,55,56,1,-22
1520204862213039,8,8,9,23,-23,32,20,34
1520204862236100,-4,-1,-1,-98,60,0,-21,-37
1520204862236100,-1,11,13,97,37,-32,6,5
1520204862236100,-1,1,-4,-14,20,-7,-39,30
1520204862236100,-12,-3,-5,-12,-71,-47,46,-2
1520204862249135,28,3,1,-11,-67,-10,50,102
1520204862249135,-61,-4,9,-15,85,80,-12,-43
1520204862257156,7,4,3,-15,-5,-18,-6,8
1520204862257156,11,1,6,53,90,12,-13,-6
1520204862272196,-17,-1,-3,-57,-48,25,-3,28
1520204862272196,17,-5,-5,17,-78,-51,-4,-21
1520204862273199,7,4,1,2,43,-19,-36,9
1520204862273199,-10,-4,-3,-38,-20,19,1,54
1520204862296261,14,11,5,1,7,-40,9,-61
1520204862296261,7,-1,-5,-3,23,-16,-9,6
1520204862296261,-9,-4,-4,13,-52,-32,29,18
1520204862296261,8,0,-4,-18,-58,-40,-25,5
1520204862309295,1,0,4,23,69,29,12,35
1520204862309295,11,4,2,3,-13,-12,-12,-3
1520204862317316,-9,-9,-6,-7,-45,24,33,14
1520204862317316,8,-2,-1,-16,46,2,20,-20
1520204862332356,-20,-5,-4,25,-31,-27,-21,-37
1520204862332356,-2,8,9,8,19,-8,-18,83
1520204862333360,26,7,6,60,67,-22,-4,-43
1520204862333360,-6,-11,-8,-41,-7,-19,-2,-37
1520204862355418,-8,5,9,51,11,35,-3,13
1520204862355418,15,4,-1,-29,-18,-5,1,50
1520204862356421,8,-4,-3,-23,7,31,0,-28
1520204862356421,-15,2,0,19,-6,13,-11,80
1520204862369455,-13,-1,-7,-37,-20,-35,12,70
1520204862369455,12,-9,-2,-13,13,8,6,-86
1520204862377477,-6,1,2,-7,-16,-7,4,69
1520204862377477,29,2,-3,13,-13,-12,17,-7
1520204862392516,-14,-3,-2,-27,-21,3,-33,-37
1520204862392516,-19,-4,-7,-12,-19,-7,-2,5
1520204862393520,3,5,6,15,33,8,6,-12
1520204862393520,-9,-2,-1,3,4,4,-43,2
1520204862415578,-10,-6,-4,10,23,31,9,-20
1520204862415578,14,5,2,-7,8,14,6,13
1520204862416581,-11,-7,-3,2,-12,14,-30,-37
1520204862416581,-24,-5,-4,0,-10,-52,1,11
1520204862429615,-25,3,3,7,10,11,-22,-88
1520204862429615,25,-5,-9,-10,-20,-21,4,53
1520204862437636,-13,-8,-4,-11,-23,-8,-24,-22
1520204862437636,1,-1,1,11,5,16,14,-30
1520204862452676,33,8,6,9,20,6,-8,10
1520204862452676,-32,2,3,-11,-13,1,-12,-25
1520204862453679,-6,-9,-6,-3,2,-13,10,-40
1520204862453679,4,0,-5,2,3,-1,-11,16
1520204862475738,19,1,1,9,-6,7,3,-9
1520204862475738,-21,3,0,-7,-7,-15,-23,-7
1520204862476741,8,5,5,2,3,7,10,17
1520204862476741,24,-3,0,9,5,-6,-3,-23
1520204862489775,9,5,-1,-1,3,24,25,-24
1520204862489775,-1,2,0,-1,-6,2,-14,33
1520204862497797,0,-1,1,5,12,-2,17,11
1520204862497797,11,-2,-2,-6,-3,7,-20,-1
1520204862512836,-2,2,1,-2,1,-3,11,41
1520204862512836,-2,-3,-1,0,1,-9,-1,-50
1520204862513840,27,6,2,1,-2,8,11,-4
1520204862513840,-39,-2,5,3,-1,-10,2,-18
1520204862535898,-8,-6,-3,-2,-12,10,-12,-16
1520204862535898,9,-2,-1,-3,-2,-14,26,-16
1520204862536901,-46,-4,2,2,-3,-10,-14,-25
1520204862536901,9,5,3,0,-1,-2,-1,-73
1520204862557957,2,-7,-6,-5,13,-10,-10,53
1520204862557957,2,-8,1,2,1,10,-14,-28
1520204862558959,-16,-2,-4,-4,-7,32,0,5
1520204862558959,23,3,0,1,3,-16,23,16
1520204862572996,-28,-12,1,10,1,-1,-9,-39
1520204862572996,46,12,-1,-4,-2,11,8,24
1520204862572996,-16,0,-2,-2,1,0,3,24
1520204862572996,-11,-5,-1,7,-1,11,-22,-28
1520204862595055,2,-2,-4,-6,-6,-7,5,26
1520204862595055,-18,3,1,0,0,0,1,-1
1520204862596059,-27,-3,0,-1,-3,-14,-1,10
1520204862596059,19,3,-3,-5,2,9,3,42
1520204862618117,1,6,2,1,1,-5,5,7
1520204862618117,19,-3,-2,-1,0,2,0,-14
1520204862619119,-8,-1,-7,-11,-4,-6,4,24
1520204862619119,-19,-2,2,5,4,6,-4,-13
1520204862632154,25,-1,-4,-4,-9,-18,-9,1
1520204862632154,-30,4,2,4,0,23,9,-2
1520204862633157,34,-2,-8,-9,-6,-17,-6,-23
1520204862633157,-16,-7,-3,-1,0,21,0,33
1520204862655215,-4,-5,-2,-4,-30,-13,5,10
1520204862655215,-23,-6,-6,-4,14,-27,-21,19
1520204862656218,34,12,7,-2,2,-7,6,6
1520204862656218,19,4,-2,2,14,12,-4,-18
1520204862678277,-67,-9,1,5,10,10,5,1
1520204862678277,20,-6,-9,-12,-18,-3,-2,15
1520204862679280,0,-1,1,3,-5,11,2,5
1520204862679280,-10,5,3,1,1,-9,-1,-6
1520204862692314,81,10,-2,-7,-5,5,10,47
1520204862692314,-81,-6,3,0,-7,-4,-9,-37
1520204862693317,-12,-7,-1,5,8,-4,-2,-17
1520204862693317,7,7,5,4,-3,1,4,14
1520204862715376,5,-1,-2,1,7,-3,-5,-4
1520204862715376,5,1,0,1,-2,5,5,-4
1520204862715376,54,1,-3,-2,5,1,1,25
1520204862715376,-75,-8,-4,-7,-6,-11,-6,-17
1520204862738437,29,13,5,0,2,14,-1,11
1520204862738437,9,-1,2,2,4,-11,0,7
1520204862739440,-10,3,-2,-3,-6,1,-3,-18
1520204862739440,12,3,5,7,2,2,11,46
1520204862752474,-23,-9,-2,-2,4,-8,-10,-17
1520204862752474,38,5,2,2,0,3,4,20
1520204862753477,-13,-5,-1,1,4,4,9,7
1520204862753477,30,5,-5,-10,-6,-4,4,30
1520204862775535,-9,-2,-1,2,5,20,-5,-23
1520204862775535,-7,-4,-2,-1,-4,-11,2,-10
1520204862775535,17,3,0,-2,1,2,8,25
1520204862775535,-20,-3,1,1,1,-3,-3,1
1520204862798597,20,5,2,-1,1,7,11,32
1520204862798597,-27,-17,-12,-12,-14,-11,-37,-61
1520204862798597,-2,-4,-3,4,4,-1,-3,5
1520204862798597,21,4,1,-2,-3,5,-2,0
1520204862812634,30,-2,2,6,-2,-12,-13,-38
1520204862812634,20,9,3,1,4,6,10,10
1520204862813637,-38,-5,1,0,1,-2,-2,-11
1520204862813637,40,12,0,-5,-5,-3,-9,8
1520204862834692,-51,-10,-1,3,1,-7,-13,-38
1520204862834692,54,7,0,-2,-1,-1,1,21
1520204862835695,-11,0,0,0,-3,0,3,-6
1520204862835695,-14,-7,-5,-2,-2,-7,1,3
1520204862857754,0,1,-3,-7,1,-6,-2,0
1520204862857754,42,16,10,3,6,20,28,52
1520204862858756,-75,1,2,-1,-2,-2,-11,-26
1520204862858756,-19,-5,-2,5,3,1,3,-13
1520204862880815,45,-4,-8,-6,-5,-11,-13,1
1520204862880815,-42,1,3,1,-1,1,1,-5
1520204862881818,70,17,2,-6,-2,-4,2,10
1520204862881818,-75,-28,-11,-4,-5,-10,-17,-65
1520204862894853,-4,1,4,5,5,-3,-29,19
1520204862894853,12,8,2,3,1,5,10,3
1520204862895856,-62,-14,-10,-7,-7,-6,3,-32
1520204862895856,20,-1,0,-2,-1,4,8,28
1520204862917914,77,14,5,6,6,7,4,8
1520204862917914,-82,-9,-5,-4,-1,-5,-3,-55
1520204862918917,-31,6,9,7,1,-7,-16,7
1520204862918917,43,-8,-6,-5,-3,0,0,2
1520204862932954,37,3,1,-2,-2,3,15,14
1520204862932954,2,3,-3,2,2,-1,0,-50
1520204862932954,104,0,1,6,5,5,4,47
1520204862932954,16,4,-4,-5,-4,-5,-5,33
1520204862955013,-127,-31,-6,-9,-8,-7,-3,-38
1520204862955013,101,13,1,2,-1,-2,-6,2
1520204862956016,-36,-9,-9,-6,-4,-3,5,-3
1520204862956016,117,11,6,6,4,8,13,3
1520204862978074,-85,-11,-8,-2,-1,-10,-3,11
1520204862978074,-35,-23,-8,-6,-5,-1,-7,-1
1520204862979077,-58,2,5,4,2,1,-5,-13
1520204862979077,56,31,10,5,1,3,5,11
1520204862992112,-124,-38,-17,-11,-8,-4,-1,-45
1520204862992112,7,14,9,2,1,2,2,13
1520204862993114,25,-68,-19,-5,-6,-11,-17,-4
1520204862993114,71,82,13,6,6,7,8,12
1520204863015173,-28,0,6,4,2,4,3,-21
1520204863015173,70,6,2,0,-1,-5,-11,35
1520204863016176,84,8,2,2,4,9,18,11
1520204863016176,-5,-24,-11,-9,-7,-4,0,-5
1520204863038234,16,9,2,-4,-5,-6,-4,36
1520204863038234,-16,-28,-5,-4,-3,-1,-1,8
1520204863039237,-39,31,-4,0,0,1,3,-21
1520204863039237,42,-26,3,8,5,3,1,-32
1520204863052271,73,43,5,1,3,9,17,0
1520204863052271,-100,-36,-4,1,1,0,-3,1
1520204863053274,27,-1,-2,-6,-5,-9,-15,2
1520204863053274,9,-10,-4,1,0,0,0,30
1520204863075333,4,-24,-6,-3,-4,-2,-4,-37
1520204863075333,83,24,-3,-8,-6,-4,-3,1
1520204863075333,-84,12,-10,-4,-4,-5,0,-22
1520204863075333,-46,-35,4,4,3,3,3,-5
1520204863098395,91,-17,1,5,1,0,-1,-3
1520204863098395,24,13,-3,1,0,1,10,-12
1520204863099397,5,-22,3,2,-1,-2,-14,15
1520204863099397,-80,10,-9,-8,-7,-9,-11,-25
1520204863112431,92,0,-6,-4,-3,-6,-12,3
1520204863112431,70,-6,-9,-1,0,3,12,-19
1520204863113434,45,15,4,-5,-6,-4,-5,64
1520204863113434,-20,-19,6,6,5,5,10,9
1520204863135493,0,14,1,0,-1,-1,-15,21
1520204863135493,69,57,14,2,1,-2,-7,55
1520204863135493,-30,-15,-3,1,1,5,15,-67
1520204863135493,-45,-22,-11,-4,-3,-1,1,41
1520204863158554,-115,-5,4,1,-1,1,12,44
1520204863158554,53,0,-3,-3,-5,-3,-11,11
1520204863158554,111,22,14,13,10,11,19,35
1520204863158554,-105,-2,-2,-11,-11,-9,-21,-49
1520204863171589,14,-10,-2,-4,-2,-6,23,29
1520204863171589,19,-14,-3,3,2,0,-8,-19
1520204863179610,50,16,13,8,8,6,7,-68
1520204863179610,-47,-26,-20,-14,-14,-12,-12,6
1520204863194650,97,18,16,12,11,11,8,-59
1520204863194650,-56,-15,-12,-16,-12,-10,-23,2
1520204863195653,111,-3,-4,-4,-4,-9,-7,-68
1520204863195653,-24,-24,-17,2,7,9,36,-13
1520204863218714,71,85,43,13,2,-3,-38,84
1520204863218714,-76,-8,4,12,9,3,8,-26
1520204863218714,37,12,-4,-9,-8,0,-16,-12
1520204863218714,-82,-24,-8,-1,0,-11,-3,10
1520204863231749,-88,-29,-28,-17,-9,16,2,-37
1520204863231749,87,-1,8,9,6,-11,26,-38
1520204863239770,-6,9,-2,-8,-8,15,-2,91
1520204863239770,-14,-31,-2,-9,-8,-17,-26,37
1520204863254810,57,-3,-1,5,1,-46,9,3
1520204863254810,48,-12,-7,7,8,30,-8,12
1520204863255813,-127,-13,-4,-12,-9,-10,6,-97
1520204863255813,82,49,29,22,12,49,33,-17
1520204863277872,71,10,5,2,-4,-36,-14,-19
1520204863277872,26,1,-6,-8,-10,-27,10,44
1520204863278875,-67,-28,-18,-3,7,-7,9,-10
1520204863278875,63,2,-1,-9,-7,7,-26,-49
1520204863291909,61,13,2,10,14,26,9,-28
1520204863291909,-105,-18,-3,-4,-2,-9,-2,36
1520204863299930,46,30,23,6,0,13,0,66
1520204863299930,46,2,-4,-2,1,2,2,-20
1520204863314970,5,-15,-12,-6,12,25,11,-19
1520204863314970,29,17,13,17,12,31,41,-63
1520204863315973,-86,-16,2,2,-6,-65,3,101
1520204863315973,94,41,22,6,-6,-18,-57,-78
1520204863338032,-56,-36,-33,-15,-5,8,18,27
1520204863338032,-61,2,8,-5,-6,4,-36,-50
1520204863339035,101,26,1,13,16,40,3,25
1520204863339035,-41,-18,-15,-17,-14,-21,-5,15
1520204863352069,-14,-2,1,-9,-11,8,12,41
1520204863352069,28,-2,-1,2,-1,1,-12,-14
1520204863360090,3,-13,-13,-4,-1,24,15,-50
1520204863360090,66,18,2,10,7,-21,-22,-36
1520204863375130,-41,-3,1,2,-2,3,5,2
1520204863375130,12,-1,-3,-3,-1,8,-6,50
1520204863376133,14,-36,-33,-8,-2,10,2,-51
1520204863376133,-48,4,15,10,26,-1,12,69
1520204863398192,-26,32,42,15,-17,25,-4,-88
1520204863398192,-3,-20,-12,-4,6,-37,-3,42
1520204863399195,0,19,17,12,2,21,-3,-6
1520204863399195,-17,2,-6,0,4,-14,4,-18
1520204863412229,86,-14,-24,1,2,30,2,20
1520204863412229,-48,-11,-8,-15,-15,-39,-14,55
1520204863420250,76,19,12,1,1,-4,2,33
1520204863420250,25,-5,-7,-8,-13,19,38,54
1520204863435290,14,-4,-5,4,13,-19,-13,-33
1520204863435290,-83,-26,-19,-6,-1,3,14,14
1520204863436293,86,35,21,6,-5,11,-15,94
1520204863436293,-42,-29,0,-32,-27,-36,-8,-29
1520204863458352,34,-5,-15,-18,-17,-37,-5,4
1520204863458352,40,12,8,53,36,8,5,-44
1520204863459356,-80,-13,-6,-13,-5,8,-6,-32
1520204863459356,10,11,2,12,10,26,-20,-13
1520204863480410,-59,-7,-6,-7,-6,-5,-7,25
1520204863480410,-3,8,7,-11,-10,-1,2,-1
1520204863481413,47,-13,-13,-37,-12,-38,-19,-1
1520204863481413,127,6,-2,7,4,41,20,-18
1520204863495450,60,10,18,-14,-8,17,-2,10
1520204863495450,69,2,-7,-48,-9,-13,-2,44
1520204863495450,-27,-1,-7,50,18,-26,-17,32
1520204863495450,52,13,4,9,3,-9,26,29
1520204863518511,-80,-17,-9,7,7,-7,2,-34
1520204863518511,82,-2,2,6,-25,24,-1,-49
1520204863519514,-112,-24,5,-7,-36,-26,2,-25
1520204863519514,0,-15,-9,29,20,-11,-4,11
1520204863540570,55,25,24,-8,-3,-3,26,41
1520204863540570,-120,-19,-5,-4,-9,13,2,-89
1520204863541577,-20,-22,-16,5,22,-6,-15,-30
1520204863541577,-19,32,10,16,-37,-5,-18,46
1520204863554608,-17,-17,-9,-51,-4,3,8,-1
1520204863554608,-15,-1,-7,35,-3,2,-18,26
1520204863555610,15,12,17,29,1,14,22,-23
1520204863555610,-2,7,1,11,42,9,5,11
1520204863578672,-36,-20,-28,-42,17,-4,-15,-15
1520204863578672,73,13,28,59,-7,-1,2,57
1520204863578672,46,-11,-7,-29,3,11,10,-14
1520204863578672,-1,-6,2,-4,-1,-30,-12,-40
1520204863600730,77,-7,-21,-43,-59,-6,20,61
1520204863600730,-44,-23,-17,-21,-17,1,-23,-14
1520204863601733,-41,-3,17,22,1,0,-18,44
1520204863601733,99,5,-5,-20,-3,19,39,5
1520204863614768,-36,-1,0,45,34,-3,-18,12
1520204863614768,-2,11,6,12,50,15,22,-42
1520204863615772,-35,14,15,-17,-16,-16,-20,15
1520204863615772,-103,-20,-1,11,-3,17,-3,-44
1520204863637829,98,11,4,-59,-30,-11,5,-23
1520204863637829,-26,-2,-4,0,-47,51,16,48
1520204863638832,6,2,-6,-19,3,-10,-8,-102
1520204863638832,62,5,8,10,29,6,-3,28
1520204863660890,-41,-2,3,33,14,-18,-17,18
1520204863660890,31,3,-16,-57,-19,-8,-15,-32
1520204863661893,49,-6,7,40,15,20,8,-63
1520204863661893,-77,-8,-6,-59,-63,-40,0,34
1520204863674928,6,7,7,73,47,17,-12,-19
1520204863674928,-11,7,-3,-15,37,-2,13,-69
1520204863675931,-15,-12,-10,3,-34,-19,-4,43
1520204863675931,6,1,1,-1,20,41,-11,-56
1520204863697989,-26,-16,-8,-5,-21,-26,8,-20
1520204863697989,51,20,11,-11,12,-6,1,-52
1520204863698993,-4,-2,-9,-16,5,6,-2,57
1520204863698993,36,6,-3,10,-12,-21,5,95
1520204863721050,-95,-34,-5,-17,-12,-4,-12,-83
1520204863721050,83,-8,1,5,-23,-6,6,40
1520204863721050,33,1,-14,-75,-43,18,-4,32
1520204863721050,41,9,0,63,34,-21,-6,-40
1520204863735088,61,33,10,41,57,31,6,83
1520204863735088,-107,-2,21,8,4,-10,9,-1
1520204863736091,49,-2,0,-19,16,16,-6,-1
1520204863736091,-22,-13,-18,-44,-58,-8,-2,18
1520204863757147,16,-4,-18,53,46,7,-3,13
1520204863757147,-21,5,14,7,14,-2,-22,-9
1520204863758149,7,1,-10,4,-11,-16,6,25
1520204863758149,2,-3,0,-25,21,20,8,16
1520204863781210,-11,2,1,29,-17,-10,1,13
1520204863781210,3,-23,-20,-26,-12,-11,-16,58
1520204863781210,-29,6,9,-17,-20,-13,7,9
1520204863781210,23,-29,-21,15,52,-7,-40,83
1520204863795248,-16,2,17,-14,-63,50,76,-27
1520204863795248,50,10,-15,5,24,-20,-18,-20
1520204863796251,23,4,1,10,43,-5,0,-84
1520204863796251,-120,3,19,-79,-80,-12,-42,57
1520204863817307,57,7,-1,-26,-31,-21,20,42
1520204863817307,-15,-7,-12,44,21,16,12,-15
1520204863818310,24,2,-2,-42,-41,-31,14,-75
1520204863818310,-1,-9,-18,22,-15,-18,3,-50
1520204863840368,-21,5,12,36,37,13,-20,-91
1520204863840368,23,16,12,-29,-13,22,21,32
1520204863841371,-17,-11,-1,17,18,-32,-42,-35
1520204863841371,-6,0,-5,-90,-16,-26,18,75
1520204863855408,8,2,-1,25,-18,19,-32,-52
1520204863855408,-3,-7,-11,-80,-81,27,48,23
1520204863855408,-21,3,10,78,99,30,9,-21
1520204863855408,35,17,12,24,6,2,2,-14
1520204863878469,18,-15,-14,-103,-34,-45,-36,16
1520204863878469,-28,-11,-6,71,44,66,-22,-67
1520204863879472,10,-3,-4,43,-29,-30,-1,103
1520204863879472,35,14,6,-4,-23,3,44,-72
1520204863900528,-21,3,3,9,-30,-2,-9,-19
1520204863900528,-6,-10,-16,-69,-28,-4,-28,27
1520204863901531,16,6,-4,-26,22,12,15,-18
1520204863901531,-10,-7,-3,32,25,-1,-19,-11
1520204863915568,7,11,6,-25,-21,-9,4,38
1520204863915568,-3,0,7,-3,34,-5,24,-1
1520204863915568,-7,-4,-5,1,-53,-43,-20,43
1520204863915568,38,14,19,53,36,37,33,31
1520204863937626,-16,-10,-8,-12,2,-2,17,-15
1520204863937626,-4,0,0,41,7,-1,-14,14
1520204863938630,12,4,-1,-26,-5,-38,-20,-81
1520204863938630,-20,-14,-18,-58,-13,30,10,37
1520204863960688,-3,9,15,83,54,-92,-55,-15
1520204863960688,6,3,3,-28,58,-43,-16,9
1520204863961691,13,-2,-1,-1,-23,51,37,3
1520204863961691,12,12,6,-30,-40,15,-4,25
1520204863974726,-3,-3,-2,-6,52,18,-4,-39
1520204863974726,1,3,3,13,46,-16,17,42
1520204863975729,-46,-15,-6,-37,-50,-47,-9,-56
1520204863975729,-2,-12,-12,8,9,51,-18,-116
1520204863997787,4,14,13,41,-19,-39,-66,-18
1520204863997787,43,5,-3,-65,-81,69,25,-76
1520204863998789,-9,6,6,18,57,-33,-2,48
1520204863998789,-15,-9,-8,-61,-54,-36,-16,-19
1520204864020848,7,-10,-8,19,-14,35,18,60
1520204864020848,8,7,12,50,-7,-30,-13,-27
1520204864021851,14,-1,-4,-25,-15,45,16,12
1520204864021851,-12,-2,-1,-32,86,-14,-22,-4
1520204864034885,-16,-9,-14,-118,-84,3,5,-18
1520204864034885,3,2,4,111,31,24,-3,3
1520204864035888,-3,-13,-20,-82,-10,-37,-4,65
1520204864035888,15,20,19,63,10,-23,57,-2
1520204864057947,5,1,1,-6,8,0,36,24
1520204864057947,-16,-9,-3,-57,-71,-92,-32,10
1520204864057947,17,-3,-7,12,29,46,0,97
1520204864057947,-9,-7,-3,6,-7,49,-4,-62
1520204864081008,-12,-9,-10,-31,30,-7,-15,-17
1520204864081008,12,14,16,-22,-26,1,-21,83
1520204864082011,-5,-5,-2,38,3,47,12,-88
1520204864082011,-5,0,-1,2,-11,-34,-7,8
1520204864094043,11,-1,0,26,20,16,36,38
1520204864094043,6,7,0,-45,-11,-40,-27,-54
1520204864103067,-27,-6,-8,-46,-40,24,-49,25
1520204864103067,-30,4,7,10,-30,-5,-6,31
1520204864117104,3,-7,-7,-66,-32,-3,22,-36
1520204864117104,18,-1,-2,19,0,-24,13,-126
1520204864118106,-32,-5,-1,-8,-34,11,-8,10
1520204864118106,-3,3,1,-12,-11,21,3,33
1520204864141168,6,3,4,31,22,-60,-29,19
1520204864141168,-9,-6,-11,-52,-13,35,-2,-43
1520204864141168,34,1,3,30,-42,-35,22,53
1520204864141168,-2,-5,1,53,75,35,-12,-82
1520204864154202,13,15,12,9,12,27,13,-13
1520204864154202,-36,-13,-5,-2,6,-20,-12,19
1520204864162224,5,0,-5,-12,-23,11,-6,-9
1520204864162224,-16,-11,-8,5,-18,-72,-34,-15
1520204864177264,-28,-8,-8,-2,-15,27,7,-4
1520204864177264,1,9,4,3,18,8,27,52
1520204864178267,60,10,12,12,18,19,10,-38
1520204864178267,6,-10,-13,-21,17,8,40,55
1520204864200326,-19,15,20,-19,20,9,-22,73
1520204864200326,-33,-20,-5,28,-15,-64,-5,-54
1520204864201328,19,7,3,1,27,22,25,2
1520204864201328,5,-1,-7,10,20,37,8,-7
1520204864214362,36,-3,-4,-17,-28,-14,-33,-5
1520204864214362,-10,10,18,76,64,-19,-4,53
1520204864222384,-9,-2,-3,3,-14,5,15,-92
1520204864222384,21,10,8,0,15,-49,-27,68
1520204864237424,13,-1,-6,-5,5,9,4,23
1520204864237424,-31,-10,-6,-45,-17,12,-40,-22
1520204864238427,9,2,1,28,31,-6,11,-64
1520204864238427,11,4,0,-6,-30,23,1,-22
1520204864260485,-34,-14,-10,9,5,19,5,-30
1520204864260485,28,20,4,-26,-5,-4,36,16
1520204864261488,-3,0,7,4,3,-4,-20,-25
1520204864261488,23,-2,-5,0,-27,-18,-7,-21
1520204864274523,-20,-8,2,12,11,-20,-38,-54
1520204864274523,25,3,-6,-4,-7,28,12,72
1520204864282544,27,0,-3,-15,18,-6,27,46
1520204864282544,0,3,7,9,5,30,-15,48
1520204864297584,-4,9,3,8,-1,4,28,-16
1520204864297584,2,-9,-2,4,11,20,-10,-30
1520204864298587,10,11,1,-3,6,1,-7,61
1520204864298587,36,-7,2,4,-6,-32,-10,-55
1520204864320646,-7,-6,-6,1,-6,3,17,0
1520204864320646,7,9,2,-10,-14,2,7,33
1520204864321648,21,5,5,10,53,26,-12,20
1520204864321648,-63,-10,-5,-2,-10,-19,2,-44
1520204864334683,9,-8,-5,-2,1,21,12,63
1520204864334683,-38,-9,3,8,3,1,-13,1
1520204864342704,68,10,-1,-1,-9,-8,9,-14
1520204864342704,-47,-11,-6,-4,-8,5,3,-43
1520204864357744,-18,-16,-7,-4,-4,-13,-15,-37
1520204864357744,21,-4,-8,-9,-7,-15,-14,33
1520204864358747,-64,-12,1,-4,-6,0,5,60
1520204864358747,40,18,4,0,3,7,15,16
1520204864380806,7,1,0,3,-2,14,0,-4
1520204864380806,66,5,-5,-5,-1,-8,11,-17
1520204864381808,-126,-16,-1,-2,-4,-3,-10,-17
1520204864381808,71,0,-9,-10,-7,-1,13,15
1520204864402864,-14,-1,1,7,3,-1,6,2
1520204864402864,1,-8,-4,-4,-4,-17,-8,23
1520204864403867,5,-8,-2,5,3,30,5,-29
1520204864403867,-11,2,1,-6,-7,-39,1,-8
1520204864417904,-6,-4,2,7,-3,-8,-17,-50
1520204864417904,4,-5,-2,0,3,10,4,38
1520204864417904,-9,10,2,-1,-5,-6,-5,14
1520204864417904,-37,-13,-5,-3,-6,5,-12,-18
1520204864440966,42,3,3,5,6,10,14,7
1520204864440966,21,1,-2,-4,0,-7,2,-60
1520204864441968,-64,-6,1,1,-1,-2,-13,10
1520204864441968,30,3,2,1,-7,15,-2,14
1520204864463024,-3,-1,-5,-7,-3,-25,-15,-27
1520204864463024,0,-1,-1,-6,-3,28,19,24
1520204864464028,-2,-20,2,7,-4,-27,-31,-89
1520204864464028,78,16,3,7,9,15,-2,10
1520204864477062,-50,0,-2,-8,-3,11,16,32
1520204864477062,-53,-7,-5,-3,1,15,0,-15
1520204864478064,41,5,-3,-6,-4,-16,-3,-5
1520204864478064,-41,0,3,2,0,-13,7,0
1520204864501126,123,26,10,10,2,30,2,7
1520204864501126,-105,-29,-1,5,-1,-20,-14,-51
1520204864501126,56,8,0,1,0,5,11,31
1520204864501126,7,-5,-4,-6,-5,-4,7,-19
1520204864523184,39,17,12,5,1,5,-14,36
1520204864523184,-51,-5,-2,-2,-2,-4,1,-8
1520204864524187,-14,9,2,1,-2,-1,-2,19
1520204864524187,24,-1,-1,2,1,6,-6,-17
1520204864537222,-67,-17,-11,-8,-5,-12,-2,-20
1520204864537222,-1,5,0,-4,-9,-13,2,23
1520204864538224,61,9,9,8,6,-18,-15,-42
1520204864538224,28,0,-6,-4,-4,-16,9,37
1520204864560283,3,-7,-8,-5,-2,-1,-1,-11
1520204864560283,27,15,3,0,5,4,11,16
1520204864561286,-60,-5,-2,-5,-4,8,5,4
1520204864561286,32,8,5,2,-2,-2,-4,13
1520204864583344,-22,0,5,5,-1,-8,-5,-10
1520204864583344,75,7,5,9,7,10,5,0
1520204864584347,-91,-16,-10,-11,-8,-10,-8,-38
1520204864584347,-1,-17,-7,-2,-3,-1,-9,-26
1520204864597382,-26,0,0,0,1,17,8,5
1520204864597382,98,17,3,-2,1,33,7,19
1520204864598385,-62,-13,1,4,0,-13,-7,-15
1520204864598385,63,11,7,2,3,7,-1,5
1520204864620443,14,2,-2,-4,0,-11,8,26
1520204864620443,-41,-21,-9,-6,-9,-11,-18,-1
1520204864621446,73,0,-2,2,6,13,22,17
1520204864621446,-36,5,-3,-6,-6,8,10,11
1520204864643504,-68,-23,-10,-6,-7,-30,-16,-48
1520204864643504,16,15,7,4,3,8,-5,11
1520204864644507,42,-4,-8,-5,0,16,12,4
1520204864644507,-25,-7,-3,2,2,-4,-4,-3
1520204864657542,-24,5,0,-3,-8,-6,-19,-23
1520204864657542,-108,-14,-5,-3,0,-12,9,22
1520204864658545,108,10,-5,-12,-11,-9,-9,36
1520204864658545,27,5,10,7,9,16,10,19
1520204864680603,-46,-3,-2,0,4,11,7,-8
1520204864680603,115,15,5,6,4,2,1,0
1520204864681606,63,24,6,-1,-2,5,6,47
1520204864681606,-108,-32,-12,-9,-7,-11,-25,-55
1520204864703664,122,-4,3,1,5,6,5,58
1520204864703664,23,11,1,-1,0,0,6,-28
1520204864703664,90,8,-7,-3,-1,1,-1,30
1520204864703664,-107,-12,-1,1,-1,-2,2,-97
1520204864717702,84,8,-4,0,-2,2,1,54
1520204864717702,-116,-8,3,1,6,6,4,-49
1520204864718705,-77,-20,-8,1,2,4,18,-3
1520204864718705,16,12,2,-6,-8,-11,-20,85
1520204864740763,63,10,11,10,7,5,3,-36
1520204864740763,-6,1,-2,-1,-2,-7,-11,8
1520204864741766,29,23,6,4,4,3,13,55
1520204864741766,-59,-32,-14,-3,-1,-4,-14,-29
1520204864762822,-28,-8,-4,-6,-7,-4,-3,-27
1520204864762822,-58,0,5,2,0,-4,-12,-35
1520204864763824,68,8,-3,-2,-4,-2,-10,59
1520204864763824,-88,-26,-4,-1,0,4,11,-55
1520204864777862,34,6,-16,-7,-4,-6,10,-1
1520204864777862,22,5,3,-1,0,0,0,8
1520204864778865,30,-7,3,5,3,0,-8,-56
1520204864778865,57,18,2,-5,-5,-8,-14,36
1520204864800923,56,8,5,6,5,7,16,15
1520204864800923,121,15,-7,-1,0,-2,1,12
1520204864801926,-128,-33,-3,-4,-2,0,6,-16
1520204864801926,27,6,-1,3,0,-3,-2,-7
1520204864823984,60,-3,9,6,2,3,-2,53
1520204864823984,-20,-7,-9,-5,-2,-1,-6,-48
1520204864824987,-90,-49,-17,-10,-8,-8,-5,-20
1520204864824987,92,-1,1,0,-2,0,9,27
1520204864838022,-23,8,8,-3,-8,-9,-22,-58
1520204864838022,12,-9,5,7,4,3,7,3
1520204864838022,91,35,13,7,5,3,0,-6
1520204864838022,-100,-26,-13,-7,-1,-3,-3,-23
1520204864861083,22,1,-5,1,3,7,14,12
1520204864861083,15,12,-6,-11,-15,-18,-15,-2
1520204864861083,50,-14,2,3,7,5,4,4
1520204864861083,127,47,2,-3,-4,0,4,50
1520204864883142,-18,-21,-8,1,2,0,-4,-23
1520204864883142,-97,-30,-24,-12,-4,-2,13,59
1520204864884145,56,56,36,7,2,1,-4,55
1520204864884145,126,70,19,4,-5,-4,-5,40
1520204864897179,-38,-49,-16,3,10,9,9,-20
1520204864897179,52,43,-3,-9,-8,-1,10,-17
1520204864898182,-117,-54,-33,-16,-21,-24,-29,-89
1520204864898182,111,23,36,23,21,21,14,20
1520204864921243,-17,25,-13,-15,-16,-18,-10,94
1520204864921243,118,3,8,5,4,7,0,15
1520204864921243,16,-3,-15,0,7,14,55,47
1520204864921243,44,-15,-3,4,-1,-7,-25,24
1520204864943302,-28,10,4,-5,-7,-4,-4,-15
1520204864943302,0,-22,2,0,3,2,-4,12
1520204864944305,-4,13,2,-2,-5,3,9,-59
1520204864944305,-99,-29,-20,-9,-4,-9,-7,-47
1520204864965360,116,-5,2,11,9,4,-4,28
1520204864965360,-67,5,2,2,-2,0,-1,-33
1520204864966363,42,17,19,2,-2,4,-2,-7
1520204864966363,-104,-13,-1,0,-3,6,31,38
1520204864980401,116,14,-3,-2,-3,-12,-67,-73
1520204864980401,-61,-23,5,-7,-4,-13,-22,-4
1520204864980401,45,5,-5,8,9,9,-4,86
1520204864980401,-60,-33,-7,-10,-1,-3,13,41
1520204865003462,-35,16,18,1,-3,-1,-5,-59
1520204865003462,59,5,-8,3,0,8,29,58
1520204865004465,-11,-1,9,7,5,2,-21,40
1520204865004465,19,4,-10,-6,-1,4,11,-34
1520204865016496,-128,-29,-7,5,2,4,21,29
1520204865016496,-17,12,9,-6,-8,7,-3,-64
1520204865025520,37,20,8,-4,-5,-33,-20,35
1520204865025520,-72,-20,-8,-2,0,8,-3,-28
1520204865040560,-53,-11,-3,1,0,26,1,44
1520204865040560,103,24,6,9,1,-20,1,68
1520204865040560,-116,-42,-17,-6,-2,-19,7,20
1520204865040560,73,19,13,4,3,6,-12,35
1520204865063622,-10,-17,-10,-9,-9,-33,8,-10
1520204865063622,-56,-30,-4,-4,8,54,18,49
1520204865063622,102,28,3,-4,-3,-7,-26,-27
1520204865063622,-47,-42,-22,-8,-10,-5,-13,-77
1520204865076656,120,17,-3,9,8,6,24,26
1520204865076656,46,4,14,2,-2,-15,-2,16
1520204865084678,1,-9,-7,0,-4,-1,3,-67
1520204865084678,5,-2,-5,-3,-5,16,-18,-72
1520204865099718,38,13,8,-5,-6,-36,28,-3
1520204865099718,3,-15,-14,2,-3,-8,-5,-26
1520204865100721,44,10,8,6,3,-2,-11,-52
1520204865100721,68,10,-15,-17,-13,-9,-4,14
1520204865123782,1,-14,-4,-18,-10,-32,-12,7
1520204865123782,34,-12,-7,4,4,30,-11,25
1520204865123782,-112,7,11,-3,0,14,8,-18
1520204865123782,45,4,3,19,7,-4,13,4
1520204865136817,-17,11,1,-19,-7,10,2,-34
1520204865136817,56,-2,1,-3,-5,-11,-1,16
1520204865144838,13,-40,-30,-3,-5,0,-16,-39
1520204865144838,71,20,4,-8,-2,-19,-7,23
1520204865159878,-22,-4,-1,7,2,18,16,3
1520204865159878,-37,-18,-2,-7,4,-8,-8,-15
1520204865160881,100,30,-2,7,0,20,14,21
1520204865160881,-35,-37,-9,-5,0,-22,-20,-9
1520204865182939,28,15,16,15,6,6,-11,29
1520204865182939,55,13,2,-3,-5,-2,11,-32
1520204865183942,-66,-1,4,-4,1,-4,-3,27
1520204865183942,79,15,-5,2,15,33,15,13
1520204865196977,-121,1,15,-9,-11,-5,-8,14
1520204865196977,40,-8,-7,9,6,-3,-9,-16
1520204865204998,-3,-7,-7,-24,-24,-37,4,33
1520204865204998,7,16,24,5,-16,59,11,37
1520204865220038,-2,-5,-15,2,36,2,-18,-18
1520204865220038,77,26,14,1,10,-28,6,-41
1520204865221041,-12,0,10,31,17,7,3,19
1520204865221041,-55,-9,-6,-39,-28,-29,1,-19
1520204865243099,12,-2,-1,-14,-22,57,6,-3
1520204865243099,-17,-13,-21,-18,-14,-71,-38,-19
1520204865244102,41,-2,-14,-6,-2,-10,5,-29
1520204865244102,-15,19,34,6,-29,-9,-5,-1
1520204865257137,40,-7,-16,-77,-22,1,-7,-49
1520204865257137,-38,-5,-12,38,-11,-4,-19,39
1520204865265158,81,0,13,-3,15,9,49,-21
1520204865265158,12,-13,-16,63,42,41,14,29
1520204865280198,10,3,5,20,9,-23,-19,-22
1520204865280198,25,15,10,-80,-14,26,46,-34
1520204865281201,-71,-11,-5,12,-34,-43,-32,36
1520204865281201,-13,1,-5,34,-4,0,0,18
1520204865303259,28,19,24,-32,-64,40,20,-18
1520204865303259,-61,-25,-15,17,31,-18,-30,6
1520204865304262,15,10,2,113,100,60,10,-37
1520204865304262,108,19,5,-26,19,-26,12,-11
1520204865317296,-83,-11,-14,-10,-41,1,-21,33
1520204865317296,-64,-5,9,-34,-30,7,-5,44
1520204865325318,-18,-14,-12,-38,-24,-18,-18,-18
1520204865325318,-21,3,8,-61,-14,-29,-28,-41
1520204865340358,-78,-28,-8,-22,31,-19,6,8
1520204865340358,60,-1,-6,45,-20,47,7,19
1520204865341361,34,16,10,-4,-41,-17,-7,1
1520204865341361,67,8,7,31,84,32,-1,18
1520204865363419,-26,18,7,120,52,-43,0,-7
1520204865363419,-61,-32,-10,-89,-43,-24,13,75
1520204865364422,7,-7,-17,40,33,20,-50,-28
1520204865364422,0,4,4,-31,-29,-1,43,-42
1520204865385478,88,10,6,-26,41,33,24,27
1520204865385478,27,21,7,62,-8,10,-19,-11
1520204865386483,-34,-7,4,-89,4,9,29,29
1520204865386483,-19,-13,-7,-18,-81,-41,-31,1
1520204865400518,-1,0,15,112,101,27,11,-4
1520204865400518,18,2,-14,-68,-20,-30,-13,-44
1520204865400518,9,1,1,-35,-39,-12,5,-51
1520204865400518,-5,-9,-20,-22,-2,-20,8,40
1520204865423580,-47,-23,-16,-108,-70,34,14,42
1520204865423580,54,27,34,111,121,45,25,-68
1520204865424582,-44,5,-1,-52,-50,-11,-11,33
1520204865424582,48,-9,-19,-20,59,27,-19,46
1520204865445638,-24,-23,-5,-66,-38,-7,3,-65
1520204865445638,5,-2,4,-24,-63,-6,-29,12
1520204865446641,47,2,-10,-46,0,12,6,-25
1520204865446641,-60,-5,-3,22,-10,-12,-1,-53
1520204865459675,62,14,0,32,-5,-36,-31,33
1520204865459675,-78,-23,-21,-14,-7,13,5,-25
1520204865460678,-26,-18,-19,7,82,-35,-14,-30
1520204865460678,23,15,23,-40,-25,25,8,-24
1520204865483739,15,-3,-16,10,-48,-70,31,50
1520204865483739,7,11,16,83,92,11,-3,66
1520204865483739,23,2,11,59,-5,-4,-8,-26
1520204865483739,-50,-6,3,-55,-6,-44,-34,37
1520204865505798,15,-5,-14,-7,34,55,-2,19
1520204865505798,-35,7,6,-72,-52,19,4,-14
1520204865506801,-55,-12,3,-45,9,-43,-94,5
1520204865506801,-28,-5,9,109,80,18,58,-79
