timestamp,emg1,emg2,emg3,emg4,emg5,emg6,emg7,emg8
1576747524994892,0,2,1,-6,0,2,2,-1
1576747524994892,1,1,1,-8,6,-2,7,4
1576747525000973,-5,-4,1,-2,1,-6,-2,1
1576747525000973,-3,-1,4,5,2,-6,-1,-2
1576747525001921,4,-5,-4,2,3,-2,-2,-8
1576747525001921,-1,-4,-9,1,0,-2,-3,0
1576747525002864,-8,-2,-1,-5,-4,6,-1,1
1576747525002864,-2,-2,0,-8,-6,2,-2,-6
1576747525014919,1,0,4,0,-5,-3,-5,-2
1576747525014919,-3,1,1,0,-5,-1,0,-4
1576747525029794,4,-3,1,3,-3,-2,-2,-1
1576747525029794,2,-1,-2,4,0,2,1,3
1576747525029794,3,3,-3,0,1,3,4,-2
1576747525029794,-1,-2,-2,-4,-2,-2,-5,-6
1576747525043859,4,3,-5,-3,1,3,-2,0
1576747525043859,-5,-3,-6,-3,-1,1,-1,1
1576747525052852,0,-1,-3,-2,1,1,2,1
1576747525052852,-4,4,-3,4,1,0,0,-3
1576747525067795,0,2,3,2,-1,-1,0,0
1576747525067795,-3,-2,5,-4,1,0,2,-5
1576747525074776,-3,-7,3,-3,2,-7,-1,-6
1576747525074776,2,0,4,0,2,-1,-4,-6
1576747525088636,4,-1,-2,-5,1,-1,-3,-1
1576747525088636,5,-5,0,-1,-4,3,-2,9
1576747525129527,1,-3,1,-2,-1,-2,1,-9
1576747525129527,4,3,-4,-1,-1,-5,8,-3
1576747525130525,-3,0,-3,3,3,-4,3,-7
1576747525130525,0,0,0,2,2,-3,2,-2
1576747525131556,-5,-8,-1,-3,-3,-2,-4,5
1576747525131556,-3,-1,0,3,4,-1,-7,1
1576747525134514,1,-2,0,-2,3,0,-5,-3
1576747525134514,5,6,-2,-3,2,-3,-4,-5
1576747525141493,-7,-1,0,2,2,-1,-1,4
1576747525141493,2,1,-1,-2,-3,2,-2,6
1576747525148578,-5,1,-3,-1,-4,-4,0,-1
1576747525148578,-3,2,4,-2,0,-2,-5,0
1576747525157453,1,-2,0,-1,3,2,-1,-3
1576747525157453,0,-1,0,0,4,5,2,-1
1576747525171413,-6,-7,-1,0,-1,4,1,3
1576747525171413,0,-4,-6,-2,-5,-3,0,1
1576747525180425,4,3,-3,-1,-3,-4,-4,4
1576747525180425,7,-5,0,-2,-4,-4,-3,-2
1576747525202435,-4,2,-5,1,1,-3,1,-3
1576747525202435,-7,0,-1,-2,-5,-3,1,-5
1576747525204325,5,3,-1,3,1,-2,7,-2
1576747525204325,-1,1,7,4,-1,0,1,-3
1576747525217291,-2,0,2,-4,-5,-1,0,3
1576747525217291,-6,-6,-2,2,1,-4,3,7
1576747525223318,-7,0,-7,-3,-3,-2,-1,-4
1576747525223318,-5,0,-5,-2,1,0,-4,-2
1576747525240344,8,0,5,-1,-1,5,-9,-1
1576747525240344,-1,0,-1,0,3,8,-6,3
1576747525241226,-3,0,4,-1,2,3,-4,3
1576747525241226,-7,-1,4,2,0,-7,3,-1
1576747525262276,0,-2,-1,-2,1,-8,6,-1
1576747525262276,5,1,-4,-2,-7,-5,2,-3
1576747525264167,-1,4,1,-1,2,2,1,-2
1576747525264167,-3,1,-1,-4,-2,1,-8,-5
1576747525277166,2,-3,-3,0,2,2,-2,3
1576747525277166,-1,-3,-2,1,-3,3,2,-1
1576747525284112,1,0,-6,-1,-5,0,-3,-3
1576747525284112,-2,-3,-2,-6,-1,1,-1,7
1576747525300122,6,-1,0,1,1,-3,1,4
1576747525300122,4,-3,3,6,2,-4,0,-5
1576747525301082,-1,-1,-2,2,-1,-6,1,-3
1576747525301082,-7,-3,-2,-3,-4,-4,-2,-8
1576747525322012,-6,-2,-4,-2,-1,3,1,-9
1576747525322012,-7,-1,-2,-6,-1,-1,-1,-3
1576747525324009,5,-4,2,-1,-1,3,-1,-2
1576747525324009,-4,-1,-2,1,-1,-1,4,-1
1576747525337027,5,4,3,0,0,1,6,8
1576747525337027,-4,3,2,-1,6,2,3,1
1576747525343983,-4,-4,0,0,1,-4,-2,-4
1576747525343983,-2,-1,-4,-1,-2,2,-6,0
1576747525359959,1,0,-3,-7,-7,-7,-6,-2
1576747525359959,2,0,3,3,-1,1,-3,-2
1576747525361911,-4,3,-2,1,3,-2,-4,0
1576747525361911,0,-5,-2,4,5,-5,-5,-3
1576747525382879,-9,-5,-5,5,3,1,-4,-3
1576747525382879,6,-5,0,-7,1,1,-1,1
1576747525383847,7,-1,-1,-7,-7,-2,6,0
1576747525383847,-9,3,2,1,-7,1,1,-1
1576747525396862,2,1,-1,-1,-3,-6,0,4
1576747525396862,2,-6,-7,-2,-2,-6,1,-5
1576747525403818,4,1,-6,1,1,4,5,-2
1576747525403818,5,0,-2,-3,-5,2,1,0
1576747525419760,-3,-2,7,-2,-4,3,0,-2
1576747525419760,-5,0,3,0,0,3,1,-2
1576747525421746,-1,0,10,-1,2,-4,-1,-1
1576747525421746,5,0,-2,0,0,-3,4,0
1576747525442716,0,-1,-3,0,-2,1,-3,-3
1576747525442716,-6,-2,-6,-2,-1,5,-3,4
1576747525443685,-5,-2,-5,0,-3,0,2,6
1576747525443685,4,2,-2,-1,5,-3,2,4
1576747525456651,2,-1,-2,1,4,-2,-4,0
1576747525456651,3,-1,6,2,-3,-7,-5,4
1576747525463632,-6,1,-3,-3,-5,-5,-7,-3
1576747525463632,-2,1,1,1,-2,1,1,-5
1576747525479590,6,1,2,-2,0,-4,5,-1
1576747525479590,-4,-5,-1,3,5,0,2,-5
1576747525481585,-1,-6,-6,0,-5,0,0,-4
1576747525481585,1,0,-1,0,-4,-2,0,4
1576747525502530,-3,5,4,0,0,1,-4,-6
1576747525502530,-2,6,2,-3,0,0,-1,1
1576747525503524,2,1,1,0,2,-1,-3,2
1576747525503524,1,1,0,0,-2,-1,-2,2
1576747525516538,-2,-1,-5,-1,-4,-2,-1,-4
1576747525516538,0,0,-2,-2,0,-2,0,-8
1576747525525472,3,-1,4,-1,0,4,1,-1
1576747525525472,-4,-5,-3,-4,-2,-3,-1,2
1576747525540426,-8,-5,-5,-4,-2,-4,0,0
1576747525540426,-6,-3,-4,-2,-5,-2,-2,-3
1576747525541425,8,0,-2,-2,2,1,0,-1
1576747525541425,-2,2,6,4,-2,4,4,0
1576747525562419,-6,3,5,4,0,0,2,-1
1576747525562419,-1,0,-3,0,1,-6,-3,4
1576747525564363,-6,-3,0,-1,4,-2,-3,-1
1576747525564363,-3,-6,-6,0,3,0,-1,-10
1576747525576344,3,-1,1,0,1,7,0,-5
1576747525576344,4,3,-1,-1,-5,4,3,3
1576747525585308,0,4,1,2,-3,1,-1,3
1576747525585308,1,-4,-4,-5,-4,-2,-9,-2
1576747525600310,4,-2,0,-3,-1,-1,-1,4
1576747525600310,3,-2,-7,-4,-7,-2,1,3
1576747525601265,-8,-1,-2,2,0,-3,1,1
1576747525601265,-8,-2,-4,-5,2,0,-3,-1
1576747525622251,-5,0,-6,3,1,4,1,0
1576747525622251,0,-1,5,0,1,0,2,-2
1576747525624205,4,-2,0,-1,-5,-4,-1,-5
1576747525624205,-1,-2,-2,2,2,-5,-2,-3
1576747525636173,-5,-1,-1,-2,-1,-8,0,-2
1576747525636173,-1,-3,-3,0,1,-6,-2,-1
1576747525645148,0,-6,-1,-3,-1,-4,-4,-4
1576747525645148,9,2,3,0,2,5,-5,2
1576747525660161,1,0,1,1,-4,1,-4,-1
1576747525660161,-3,-1,-3,-2,-3,2,-5,-1
1576747525661105,-7,3,8,-3,-3,1,2,0
1576747525661105,-1,-2,0,-1,-1,1,1,-3
1576747525682089,0,-7,-2,-6,-2,0,3,-6
1576747525682089,-3,1,-2,0,1,4,0,-4
1576747525684043,1,-2,-10,1,3,3,0,2
1576747525684043,7,-2,-2,-4,-2,-4,0,-2
1576747525696054,1,1,2,0,3,-3,-6,4
1576747525696054,-10,-7,-1,0,2,1,-2,5
1576747525704990,-4,0,-2,0,-4,-1,-3,1
1576747525704990,-8,1,-6,0,-3,0,7,-2
1576747525719989,-4,-2,-1,-1,0,-6,4,-3
1576747525719989,6,1,-1,-2,5,-2,-1,-4
1576747525721943,3,-1,2,-6,4,-5,-2,-5
1576747525721943,2,-2,2,0,-1,-2,-5,1
1576747525741931,-3,-2,-3,5,-5,7,-2,1
1576747525741931,7,2,-1,-2,-4,-1,1,0
1576747525743883,-2,-2,3,1,-1,-1,1,-1
1576747525743883,0,-2,5,-1,-7,-3,4,0
1576747525755894,2,0,-3,0,-3,5,3,6
1576747525755894,-3,-1,-9,1,-1,3,-1,8
1576747525764828,0,3,-2,-1,4,3,-1,-4
1576747525764828,-4,-2,1,-4,2,-2,-4,-10
1576747525779841,-3,-2,1,-1,-5,-5,-7,-4
1576747525779841,2,-2,9,-2,-7,-6,1,-1
1576747525781782,5,-2,1,-1,-4,-1,-2,4
1576747525781782,2,4,1,4,-1,1,-3,6
1576747525802782,-4,-2,-2,-5,1,2,-2,-3
1576747525802782,-6,-1,-4,2,1,2,-3,-5
1576747525803724,-2,-2,-3,-3,-2,-2,-2,-2
1576747525803724,-2,-3,-6,-2,1,0,-1,-4
1576747525815734,6,2,3,2,4,-1,-1,-3
1576747525815734,-4,4,1,-2,-2,-1,3,0
1576747525824677,1,0,-1,-1,-7,-5,3,-1
1576747525824677,1,-1,0,-5,-1,-5,2,0
1576747525839660,-1,1,-4,-2,5,-4,-8,1
1576747525839660,-1,-3,-2,-1,5,0,-6,-3
1576747525841626,4,5,2,4,2,8,0,4
1576747525841626,-1,-2,0,0,1,-2,4,-3
1576747525862598,6,0,3,0,-2,-7,5,1
1576747525862598,-1,2,2,1,-6,-6,1,2
1576747525863566,-3,-3,-7,2,0,4,-4,-3
1576747525863566,4,0,-4,0,-1,6,-3,1
1576747525875574,-8,1,1,-2,-4,3,-1,-3
1576747525875574,10,3,-1,0,-3,1,0,-3
1576747525885503,2,2,-3,-1,2,-1,-1,1
1576747525885503,-7,-1,-2,-2,-3,-1,0,-4
1576747525899468,-6,-2,2,-4,-6,0,-1,-5
1576747525899468,2,-5,1,0,1,-5,3,-2
1576747525901465,-2,-3,2,1,1,0,1,0
1576747525901465,-2,-1,0,-5,4,1,-7,1
1576747525922407,-2,2,-4,2,0,3,3,1
1576747525922407,-5,-3,1,1,1,1,-4,-1
1576747525924400,1,-4,0,-3,1,-5,-2,-6
1576747525924400,9,3,-3,-1,0,-1,2,5
1576747525945343,5,-1,-2,-1,-5,0,1,3
1576747525945343,-8,-6,3,-4,1,4,-2,0
1576747525946343,-11,-3,4,-2,3,-1,-2,7
1576747525946343,-4,2,1,-2,-1,-1,-6,-2
1576747525960302,-3,1,-3,-4,-2,1,-3,1
1576747525960302,2,3,-4,0,-4,-4,5,-1
1576747525961305,7,-3,-7,4,-2,-3,3,-6
1576747525961305,2,-2,2,7,-1,-2,-1,-3
1576747525982244,2,0,-2,3,1,-2,-2,-1
1576747525982244,-3,2,2,-3,3,1,-3,1
1576747525984240,-3,1,-3,-3,-5,0,0,1
1576747525984240,4,-2,3,1,-2,-3,-4,1
1576747526005184,-4,-4,-1,-3,-3,-3,-1,-2
1576747526005184,-4,-5,1,0,0,2,0,-6
1576747526006182,4,1,1,-3,-2,2,-1,-2
1576747526006182,0,-2,-3,-1,-1,7,-1,5
1576747526020144,5,1,1,2,3,-5,-3,1
1576747526020144,3,-2,2,1,0,-8,-2,4
1576747526021142,2,0,-4,-1,0,-3,3,6
1576747526021142,-10,-2,-7,-2,-1,-6,4,-7
1576747526042088,-2,-3,1,1,2,1,5,-1
1576747526042088,1,-2,-4,0,-5,3,1,-2
1576747526044083,-12,2,2,-1,-1,3,0,-4
1576747526044083,3,1,3,-2,1,1,-2,4
1576747526065024,0,-2,-2,-2,2,-1,-9,2
1576747526065024,2,1,-3,-1,0,-4,-9,-1
1576747526066022,-4,-4,0,-4,-2,1,-6,-9
1576747526066022,-6,-1,0,-1,-1,1,3,1
1576747526079982,0,-5,-1,-1,-1,2,4,-1
1576747526079982,4,-1,-4,-2,0,1,5,20
1576747526080980,9,-1,0,-1,-5,-3,1,111
1576747526080980,1,-4,0,-2,-4,-3,-4,34
1576747526100928,-1,2,4,-3,-4,-4,-1,-10
1576747526100928,-6,3,-1,-1,-5,-5,-2,-52
1576747526109908,-2,1,4,-2,1,-4,-5,-67
1576747526109908,-8,-5,0,2,2,5,-1,-50
1576747526124864,1,-4,2,4,6,3,3,-38
1576747526124864,-4,2,1,-1,1,-1,1,-19
1576747526126858,-2,1,-2,-1,1,-8,4,-19
1576747526126858,4,2,-7,0,-1,-3,-2,-6
1576747526147806,-1,-1,-5,0,-3,-3,-5,-13
1576747526147806,0,-2,0,-3,-3,-2,-5,-6
1576747526148799,4,-2,2,0,-2,5,-1,-6
1576747526148799,-5,-1,4,-3,-3,-1,3,-12
1576747526160769,4,0,0,0,-1,6,1,0
1576747526160769,2,1,-1,1,2,1,-6,9
1576747526169743,0,0,0,1,0,-9,-4,-5
1576747526169743,0,3,-6,-3,0,-5,0,-1
1576747526184703,-2,0,-3,-1,-1,-1,3,8
1576747526184703,7,-2,-4,0,-5,2,6,9
1576747526186700,-6,2,-2,0,-3,3,5,-11
1576747526186700,3,-2,1,-1,-1,0,3,7
1576747526207646,1,0,1,-5,0,-3,-8,12
1576747526207646,2,-6,0,-2,2,-2,-4,-1
1576747526208640,-3,0,-5,2,2,-2,-1,-6
1576747526208640,-5,-2,-5,2,-1,-2,1,0
1576747526220607,-5,-1,0,-1,-1,-4,0,-2
1576747526220607,-2,-3,-3,-3,1,-2,-2,3
1576747526229583,4,-2,2,-2,-2,2,-10,-8
1576747526229583,-1,2,3,1,5,6,-4,1
1576747526244548,-1,0,2,-1,2,5,2,2
1576747526244548,-2,-2,2,-1,-3,1,4,3
1576747526246538,-1,-8,-1,0,-4,-1,6,-2
1576747526246538,4,0,0,-1,-5,-8,-1,0
1576747526267484,-3,-4,-9,-3,-5,-4,-3,0
1576747526267484,-2,-2,2,2,4,-1,-1,1
1576747526269482,1,0,0,-1,2,-3,0,-3
1576747526269482,2,-1,0,-2,4,0,1,-1
1576747526281450,8,3,-2,0,-2,-5,3,1
1576747526281450,4,0,-4,-1,-7,0,-4,6
1576747526290421,6,2,-1,-2,-2,2,4,8
1576747526290421,0,-3,0,0,4,0,2,1
1576747526305391,-8,-4,-3,-2,0,-5,-2,-1
1576747526305391,-1,-3,-4,0,3,-4,-5,-9
1576747526306386,-10,-3,2,2,1,0,-7,-3
1576747526306386,-6,3,3,0,-2,0,-4,4
1576747526327325,-5,1,-2,2,-1,3,-1,5
1576747526327325,2,-1,-2,-1,-7,2,-1,6
1576747526329321,6,4,-7,1,-3,-1,0,-3
1576747526329321,1,-2,-2,0,-1,-1,-2,-8
1576747526341287,-1,-5,3,-2,1,1,-3,-3
1576747526341287,-5,-1,5,-1,2,1,-2,2
1576747526350267,-4,-1,-3,-4,-4,1,1,2
1576747526350267,-2,1,-5,0,-1,-3,3,3
1576747526365223,-3,0,-3,-3,3,-1,6,1
1576747526365223,3,0,-1,2,4,-3,9,-1
1576747526366223,-1,-6,1,-4,4,-3,-3,-5
1576747526366223,1,1,3,-2,-4,-5,2,-7
1576747526387161,9,-4,3,-1,-2,-7,-4,0
1576747526387161,-1,0,-4,1,-6,-4,-1,10
1576747526389160,-1,-3,-5,3,-1,-3,-4,3
1576747526389160,0,-3,-2,1,2,-1,-3,4
1576747526401128,-5,-1,-4,-4,-1,4,-3,3
1576747526401128,1,1,-1,0,3,8,2,-4
1576747526410105,-3,0,-2,-3,-3,2,-4,-1
1576747526410105,-1,-2,3,0,-1,1,-7,-2
1576747526425097,-1,2,1,3,-2,0,-3,-7
1576747526425097,-8,-3,2,-3,0,-5,2,0
1576747526426064,-4,0,-4,-2,-2,-5,5,6
1576747526426064,3,5,-4,-3,0,2,5,-1
1576747526447038,3,-1,-4,2,0,1,-1,1
1576747526447038,-6,-3,0,-2,-4,3,-3,-7
1576747526449030,3,-1,3,7,5,-3,-1,-1
1576747526449030,-6,-2,1,-4,-3,-2,-5,-5
1576747526469985,-4,5,5,1,0,-1,-2,0
1576747526469985,8,-5,0,1,0,4,-4,0
1576747526471941,5,-3,-1,-3,-1,-1,1,-4
1576747526471941,4,0,-6,-2,-3,-6,2,3
1576747526484904,-6,-4,-7,0,-1,-4,-2,1
1576747526484904,-1,1,4,-1,2,-3,3,2
1576747526486899,-1,0,2,-2,-3,5,0,9
1576747526486899,2,0,6,4,2,3,-1,-2
1576747526507844,9,2,-3,0,-5,-4,-1,-4
1576747526507844,3,4,-5,-2,0,-5,-4,-8
1576747526508840,-4,-3,-3,2,3,-5,0,-11
1576747526508840,-7,-4,-6,-3,-4,-4,-1,6
1576747526529780,2,0,3,1,1,3,5,6
1576747526529780,-6,0,0,-2,-4,-2,4,1
1576747526531780,9,-1,-1,-5,-2,6,1,-3
1576747526531780,0,-3,1,-2,-1,5,-6,6
1576747526544741,-8,-4,4,0,-1,-3,-7,3
1576747526544741,-4,4,-2,1,-5,-4,-2,-5
1576747526546735,-4,-1,1,-5,1,-2,2,-4
1576747526546735,3,2,-1,0,-3,3,-1,-5
1576747526567715,2,2,-2,-2,-1,-4,3,1
1576747526567715,1,-2,-5,1,3,-2,-4,0
1576747526568681,-1,1,-3,3,2,-2,1,1
1576747526568681,-5,-1,0,-3,0,1,0,-6
1576747526589664,4,-3,2,3,1,0,3,-1
1576747526589664,0,-6,-1,1,-3,-1,-1,-5
1576747526591618,-3,-3,5,3,1,7,-3,-6
1576747526591618,-2,-4,1,1,-2,2,-6,-1
1576747526604580,-1,7,-3,-2,-4,0,-4,1
1576747526604580,-1,-1,3,0,-4,-3,0,3
1576747526611577,2,-1,-4,-3,-4,-7,2,10
1576747526611577,4,1,0,-2,3,-4,5,6
1576747526627585,0,-3,-4,-3,2,1,0,-3
1576747526627585,-2,1,-4,-3,0,-3,-3,-3
1576747526628519,-2,3,0,0,2,-4,-3,-9
1576747526628519,-5,5,3,0,-1,-4,3,0
1576747526649462,1,-6,-4,1,-3,0,-1,6
1576747526649462,3,4,5,-2,-3,5,-5,4
1576747526651457,-8,-2,-1,0,-4,-1,-8,-5
1576747526651457,-6,-2,-6,2,-2,-2,2,-4
1576747526664422,-3,-3,-2,2,-3,-1,1,-5
1576747526664422,2,-2,-6,0,1,0,2,1
1576747526671401,2,-2,-3,-3,-2,2,1,2
1576747526671401,5,-3,4,-1,5,2,-2,-5
1576747526687360,-2,5,7,-5,0,0,-4,-6
1576747526687360,-4,-4,-4,0,0,-2,-1,-3
1576747526689358,-1,-1,-3,-3,-3,-2,2,6
1576747526689358,4,-4,-6,-3,-3,0,4,0
1576747526710306,-2,2,1,-2,2,1,2,-8
1576747526710306,-3,0,0,-2,4,-6,-2,-4
1576747526711297,0,1,8,0,2,-6,-4,1
1576747526711297,-9,0,-2,1,-4,-4,-3,1
1576747526724362,-9,-6,-6,-3,-4,-1,-2,5
1576747526724362,6,1,-5,3,-1,2,2,2
1576747526731249,-1,-1,-4,-1,-2,2,4,6
1576747526731249,5,0,2,0,-5,-2,2,1
1576747526747246,-3,-3,-3,-1,0,-1,-1,-5
1576747526747246,0,-3,1,-7,1,-2,3,0
1576747526749225,-3,4,1,-1,2,0,-7,-3
1576747526749225,-3,2,0,1,2,1,-5,-2
1576747526770186,-2,-3,-5,1,2,-4,-4,-2
1576747526770186,-2,-1,0,-2,-1,-3,-6,-2
1576747526771151,3,-4,3,0,-5,0,-1,-5
1576747526771151,0,2,0,-6,-2,-3,3,2
1576747526784132,0,1,1,-1,0,0,2,5
1576747526784132,-5,-4,2,3,-1,7,5,-1
1576747526791107,-1,-2,-5,1,-4,4,3,-3
1576747526791107,-3,-1,-2,3,0,0,4,4
1576747526807092,-3,-3,-5,-2,-3,0,0,0
1576747526807092,-5,4,-2,-4,1,-2,-8,1
1576747526809037,-1,0,-2,-1,3,2,-2,-5
1576747526809037,2,-1,-2,-2,-1,-3,-3,-6
1576747526830030,0,0,-1,2,-2,0,-2,-1
1576747526830030,2,2,-2,3,-3,2,-1,7
1576747526830999,-2,-5,-3,-1,1,-3,-1,0
1576747526830999,-3,-3,1,1,0,-4,-1,-4
1576747526843984,3,-3,3,-5,-1,-6,3,-4
1576747526843984,2,-1,-4,2,1,2,0,-11
1576747526850967,0,0,-4,0,-3,-2,1,-7
1576747526850967,-5,-5,-1,-1,0,3,-4,-4
1576747526867897,-3,-2,-5,-1,-3,0,-6,2
1576747526867897,-5,-2,5,-5,-3,-5,-1,4
1576747526868875,6,3,-1,0,2,-6,3,2
1576747526868875,10,0,-2,1,2,1,-1,4
1576747526889872,1,5,3,1,3,5,2,-5
1576747526889872,1,0,-1,-3,2,2,1,-1
1576747526891819,-5,-2,-1,-1,-3,4,0,7
1576747526891819,-4,0,-2,-1,-1,0,0,1
1576747526903833,-3,0,-5,1,-1,0,-5,4
1576747526903833,-1,-2,6,3,-5,-6,-4,-1
1576747526910764,-1,-5,-1,-2,-1,-5,-1,-2
1576747526910764,1,-2,-3,-2,-2,-4,-3,1
1576747526927838,-2,-4,-1,-3,-2,-1,7,0
1576747526927838,-5,-1,-1,-3,-2,2,6,0
1576747526928733,7,4,3,1,1,2,1,-2
1576747526928733,-4,-3,-1,2,2,-5,0,-4
1576747526949762,0,-2,-1,-1,0,-2,-8,0
1576747526949762,-2,1,-3,-1,-2,-3,-6,-4
1576747526951655,-5,-2,-1,-1,0,1,2,-3
1576747526951655,-3,3,-3,-1,1,4,5,-3
1576747526963623,3,-1,-1,1,0,1,2,5
1576747526963623,3,-2,3,-2,-2,-4,-4,-4
1576747526972623,-3,-2,-1,-1,0,-4,-7,-6
1576747526972623,-4,-1,2,0,0,1,-4,-1
1576747526987555,1,2,1,0,2,0,3,2
1576747526987555,1,1,-7,-4,2,3,7,5
1576747526988557,-5,-1,1,-1,-5,-5,2,-2
1576747526988557,-2,-2,-3,-2,-5,-2,-3,1
1576747527010496,1,-2,0,-3,2,-3,-2,-4
1576747527010496,2,-4,-1,3,0,1,-4,-3
1576747527011495,-1,-1,-2,1,-1,-3,-5,0
1576747527011495,1,2,-4,-2,-1,-2,-2,2
1576747527023561,-4,2,-2,0,0,3,0,0
1576747527023561,-1,0,-5,-1,-1,3,5,8
1576747527032443,6,-4,0,-2,0,5,5,-2
1576747527032443,6,-1,1,-3,-3,0,-5,-4
1576747527047500,-2,-1,2,-1,-2,-2,-3,-10
1576747527047500,3,-1,-1,-1,-4,-2,-2,-2
1576747527049393,0,1,-1,2,-4,3,-3,2
1576747527049393,-1,0,-1,-2,-1,-1,1,-3
1576747527070385,-5,3,-2,-1,0,-3,-1,-3
1576747527070385,-5,-5,2,0,5,1,1,7
1576747527071334,1,-2,3,-4,1,-2,-1,9
1576747527071334,-7,0,-2,0,-2,0,-3,-3
1576747527083402,-4,-1,-2,-2,-5,-3,0,-4
1576747527083402,-3,0,4,0,-1,-1,2,-5
1576747527092293,0,-1,-1,-1,-2,2,1,-2
1576747527092293,0,-4,-4,-1,1,-2,-3,-1
1576747527107333,7,-3,-6,-5,-4,0,-4,-1
1576747527107333,4,-3,-4,3,2,-1,-4,6
1576747527109234,0,-1,-4,0,-3,-4,1,3
1576747527109234,-5,-1,-1,-1,1,1,1,4
1576747527130281,-3,4,-1,3,1,1,1,5
1576747527130281,6,1,4,-2,-1,0,-2,0
1576747527131173,-1,1,-4,-5,0,1,0,-2
1576747527131173,-1,2,-3,-1,-1,-4,-2,-8
1576747527144138,0,0,-4,-3,-2,-2,-2,-5
1576747527144138,-1,-1,4,1,-2,2,6,-1
1576747527152233,-7,-1,1,1,-2,-4,1,-6
1576747527152233,-1,1,1,-1,0,-1,1,3
1576747527167077,-3,-7,0,-2,-2,-4,2,-1
1576747527167077,-5,3,-7,1,-1,-4,0,-9
1576747527169071,-4,-3,-5,-2,-2,-3,0,-5
1576747527169071,0,-4,-2,-2,-1,2,-1,3
1576747527190018,-2,2,4,2,0,6,-12,4
1576747527190018,-1,-4,-2,-1,-4,-2,-4,1
1576747527191017,1,1,3,-2,1,3,-3,2
1576747527191017,2,1,5,-1,-2,1,1,4
1576747527203981,-3,-3,-2,-1,0,-5,1,1
1576747527203981,0,1,-4,-1,2,-1,-2,-3
1576747527212977,-5,-1,-3,-6,1,-7,0,-6
1576747527212977,0,3,0,-2,0,-3,2,-8
1576747527227915,-4,-5,0,2,2,2,2,-4
1576747527227915,-9,0,-2,1,-1,-1,-4,5
1576747527228911,3,-3,-1,3,-2,0,-6,5
1576747527228911,3,-1,2,-2,-1,1,2,1
1576747527249957,0,1,4,-4,-3,0,5,-4
1576747527249957,-4,0,-3,-6,-4,-3,2,-4
1576747527251883,5,-2,-2,1,-2,-3,0,3
1576747527251883,-2,-2,-4,-1,-4,-1,-2,-4
1576747527263920,2,-2,-3,3,1,1,2,3
1576747527263920,3,0,0,-1,0,3,4,-9
1576747527272795,2,2,3,-3,-1,-1,0,2
1576747527272795,-2,-4,4,1,0,-5,2,4
1576747527287754,-1,1,1,-1,2,0,-3,-1
1576747527287754,-3,2,4,2,0,0,-7,6
1576747527288755,2,1,-2,1,-4,4,-3,-3
1576747527288755,-4,-6,-5,-1,-3,3,-5,-7
1576747527309802,11,-1,-1,1,-2,-2,0,0
1576747527309802,0,-1,1,1,1,-5,2,-6
1576747527311691,-5,0,-5,0,0,-2,3,-2
1576747527311691,1,1,2,1,-2,-4,2,2
1576747527323764,-6,-1,-2,-1,0,-1,1,2
1576747527323764,-7,1,-1,-1,2,0,-3,-5
1576747527332636,-3,-1,0,-1,0,-4,-5,-4
1576747527332636,1,1,0,-2,-2,-4,-2,-4
1576747527347700,1,-1,-1,-1,-4,-2,0,7
1576747527347700,2,-2,-3,0,-3,4,-2,5
1576747527348635,-2,0,-3,2,2,6,4,1
1576747527348635,-2,-4,-1,-1,-1,1,4,-2
1576747527369641,0,1,-1,-2,-4,-5,3,-6
1576747527369641,-4,-3,2,-1,-4,-6,-3,2
1576747527371536,1,-1,0,-2,2,-3,-3,0
1576747527371536,2,2,0,5,2,0,-6,-4
1576747527392578,-2,-4,1,-4,-2,1,0,0
1576747527392578,1,-1,-1,-2,1,-1,1,-5
1576747527394473,-2,-2,0,0,-1,2,-3,3
1576747527394473,-2,-3,-5,-1,-3,2,-3,0
1576747527407540,-3,-2,-4,-1,-1,3,-1,-5
1576747527407540,2,-4,-1,-2,0,1,1,3
1576747527409433,0,2,-5,1,-2,-4,0,-1
1576747527409433,3,3,-1,-1,2,-1,-3,-1
1576747527430372,-8,-2,-5,-4,-5,-8,-6,1
1576747527430372,-1,-4,-1,-2,1,-5,-2,-1
1576747527431370,-4,2,1,3,-4,-2,6,-4
1576747527431370,-1,0,-1,4,-2,-2,2,-4
1576747527452415,-1,-4,2,1,2,-1,-4,-5
1576747527452415,1,-4,-1,3,1,3,-3,-2
1576747527454309,-1,-7,-1,-1,0,4,-4,5
1576747527454309,1,-1,0,-1,-2,5,-3,5
1576747527467277,0,3,-1,1,0,3,2,0
1576747527467277,-6,8,5,1,-1,-2,1,2
1576747527473351,-2,0,2,-3,-6,-2,-2,-3
1576747527473351,1,-3,-4,-1,0,-2,2,2
1576747527490332,0,3,0,1,-3,2,-1,4
1576747527490332,2,1,-5,1,-1,-2,-6,0
1576747527491211,1,-5,2,-2,-1,-2,-4,-4
1576747527491211,-2,1,-1,-2,2,-1,-4,-2
1576747527512258,-2,-2,-1,0,-1,-2,-1,-12
1576747527512258,-5,-1,-5,-3,-1,-3,2,-4
1576747527514150,-2,-3,-3,0,-1,-4,6,-2
1576747527514150,8,-6,2,-2,3,-5,5,0
1576747527527208,4,2,2,-1,-2,1,3,-1
1576747527527208,3,1,1,-4,-3,-1,-3,0
1576747527529110,-1,5,5,-3,3,1,-2,2
1576747527529110,-8,4,-4,2,4,-2,-2,-1
1576747527550155,-2,0,-3,-3,1,3,-2,6
1576747527550155,-3,-5,-2,1,0,3,1,-2
1576747527551102,-3,-3,-4,0,-3,0,-9,-3
1576747527551102,-7,-3,-3,1,-5,-4,0,-1
1576747527572992,2,1,1,-3,-4,-5,-3,6
1576747527572992,-2,1,-2,-1,-4,-6,-9,-4
1576747527573991,4,2,-1,1,1,-1,-8,-2
1576747527573991,-6,0,1,-2,-1,4,-11,2
1576747527586983,-3,-5,-2,-1,-2,3,0,-5
1576747527586983,4,-3,3,-2,-2,1,10,-1
1576747527593934,7,0,3,-2,-1,-1,10,0
1576747527593934,-5,-3,-7,-2,1,-1,4,-6
1576747527609895,-1,3,0,0,4,-3,4,4
1576747527609895,-4,0,-1,-2,-2,0,-4,-1
1576747527611888,-8,-1,-1,-1,-2,-2,-3,-2
1576747527611888,4,-4,-2,-2,-2,-1,0,-3
1576747527632895,-2,-3,-5,2,-2,-3,-1,0
1576747527632895,2,0,-1,1,0,3,1,-5
1576747527633831,1,-4,0,-2,3,1,0,-2
1576747527633831,-4,-3,6,-2,2,3,-1,-6
1576747527646896,-3,0,2,-1,2,-1,0,-3
1576747527646896,0,1,-4,3,1,-5,6,5
1576747527653775,-4,2,-4,-3,-2,-4,1,5
1576747527653775,1,-2,-2,-1,-4,-6,4,7
1576747527669835,0,-1,2,-1,-2,3,3,-5
1576747527669835,9,-2,3,-3,-4,1,-1,-6
1576747527671731,-3,-2,3,-4,1,0,-4,-10
1576747527671731,-1,2,1,0,0,0,-2,5
1576747527692775,-1,1,-2,2,-1,-7,-6,4
1576747527692775,-3,0,-4,1,1,-4,-4,4
1576747527693679,2,5,-4,-3,-2,2,4,-2
1576747527693679,1,3,-5,-7,-6,-2,3,2
1576747527706738,2,-3,-1,2,5,4,0,7
1576747527706738,-4,-3,3,-2,4,4,-4,0
1576747527713716,-1,-1,2,-1,2,-3,-1,-5
1576747527713716,-2,1,-2,-2,0,2,0,-1
1576747527730572,3,-4,3,-1,-5,-2,2,-14
1576747527730572,4,-2,0,2,-5,-2,5,-6
1576747527731576,-4,2,-3,-1,-1,6,-4,1
1576747527731576,4,1,5,1,1,-1,-8,2
1576747527752612,-3,1,-2,0,2,-2,-2,-1
1576747527752612,-4,0,-3,-4,0,1,-1,3
1576747527754507,4,-1,-5,3,0,-2,3,-2
1576747527754507,0,-2,-3,2,-4,0,-3,1
1576747527766574,-3,-2,0,-3,-3,-2,-3,-1
1576747527766574,5,-3,1,-1,-2,-3,-1,3
1576747527773498,2,-4,0,-1,-2,0,-2,-1
1576747527773498,-2,-2,-2,1,3,2,-1,-1
1576747527790457,-3,-1,-1,-2,-2,-5,0,-4
1576747527790457,-2,0,0,-1,3,3,-2,-9
1576747527791418,-1,-1,4,2,-2,-2,-4,5
1576747527791418,-6,-2,-3,-2,2,-3,-1,-2
1576747527812454,1,-2,0,-2,1,1,-3,-1
1576747527812454,1,3,1,-4,-6,0,0,4
1576747527814400,-4,0,-4,-1,-3,-4,2,-1
1576747527814400,-3,3,3,0,-4,-3,2,3
1576747527827313,-6,0,-1,1,-1,-1,-1,4
1576747527827313,6,-1,-3,2,-2,1,-4,1
1576747527833393,2,-1,1,-1,0,-2,-3,2
1576747527833393,0,-3,2,2,0,0,0,-5
1576747527850360,0,-2,-2,0,3,-3,-2,0
1576747527850360,-12,-3,-2,-2,2,0,-1,-3
1576747527851249,-3,-2,1,-3,-3,-2,2,-6
1576747527851249,0,-1,1,1,-1,-2,4,3
1576747527872195,3,-2,-2,-1,0,-1,-1,-2
1576747527872195,0,0,1,2,2,-2,-2,0
1576747527874203,3,3,-2,3,0,2,2,4
1576747527874203,-2,0,-4,-2,-1,-4,-3,-13
1576747527886255,2,2,-1,-1,-1,2,-1,-4
1576747527886255,-7,0,-1,-2,-3,2,-4,1
1576747527895176,-3,-7,-3,-4,-2,-1,-2,2
1576747527895176,0,-2,2,3,-1,-2,-5,1
1576747527910189,-1,1,0,0,-3,0,1,2
1576747527910189,0,-3,2,-3,1,-2,1,-4
1576747527911095,-3,0,1,-3,1,-3,-1,4
1576747527911095,-3,-2,-4,-1,1,2,-2,3
1576747527933030,-8,-3,-2,-1,-1,-1,-3,-3
1576747527933030,2,4,-2,0,-1,4,-2,-6
1576747527934031,13,1,4,-1,2,4,1,-1
1576747527934031,2,-3,-2,-2,-4,-3,4,0
1576747527945992,2,0,-1,2,-1,-5,8,0
1576747527945992,-1,-2,-3,1,-5,-5,1,-3
1576747527954977,-7,-3,-3,4,-4,-1,-1,-9
1576747527954977,0,4,-1,2,3,2,1,1
1576747527970028,-1,-1,-2,-2,1,-3,-2,10
1576747527970028,-1,-1,-2,-2,0,-5,-1,6
1576747527971925,-5,1,-1,-3,2,-1,-3,-3
1576747527971925,0,-4,1,-3,2,1,-2,-8
1576747527999951,-1,0,-4,-3,0,1,-2,-11
1576747527999951,3,0,-1,0,0,0,-3,-2
1576747528001850,5,0,2,-1,-2,-2,-1,-1
1576747528001850,-4,1,3,-2,-4,-4,2,-1
1576747528005877,-3,-1,5,1,0,-1,-1,-3
1576747528005877,-3,-4,-4,0,-2,-1,1,-2
1576747528020795,-2,-2,-1,-2,-3,5,0,9
1576747528020795,1,-1,-3,-4,-6,1,1,4
1576747528029808,2,-4,-4,-4,-6,-1,-5,2
1576747528029808,1,1,1,-3,-3,1,-2,-5
1576747528031769,-1,-2,-3,2,0,0,-2,-5
1576747528031769,0,2,1,2,-1,-3,-2,0
1576747528052819,-5,2,-5,-1,-1,1,0,-2
1576747528052819,-1,-7,-1,1,4,-6,1,0
1576747528053708,1,-1,0,-2,0,-4,-1,8
1576747528053708,-3,-3,-5,-1,0,-2,0,-3
1576747528066675,2,-1,1,-2,-2,-4,2,-4
1576747528066675,1,6,6,-3,-2,-3,-2,3
1576747528074739,-1,5,-5,-3,0,2,-3,-6
1576747528074739,-5,-2,2,-4,0,3,1,-6
1576747528089714,7,1,2,-1,3,5,-1,3
1576747528089714,0,0,2,0,0,2,1,2
1576747528091610,0,-1,-3,3,1,-2,0,-1
1576747528091610,2,-3,-2,-2,-1,-1,-1,-2
1576747528112650,-8,0,-5,1,1,-2,2,-3
1576747528112650,6,-3,-6,3,-3,0,1,1
1576747528114545,1,1,0,3,0,-4,-2,-4
1576747528114545,0,1,-2,0,1,-2,-2,-5
1576747528126511,-7,1,-1,-4,-4,-3,-1,-6
1576747528126511,-5,-2,-1,-1,-2,-1,0,0
1576747528135524,-3,-3,1,0,-6,2,3,-3
1576747528135524,3,-2,0,-3,1,-3,-2,6
1576747528150453,-2,1,2,0,-2,-1,-6,6
1576747528150453,0,-2,-3,-6,2,2,-1,-1
1576747528151454,-1,-2,2,-2,-2,1,-1,-3
1576747528151454,-3,-2,2,1,-4,-1,-6,-6
1576747528172482,1,-5,-3,1,0,-1,-3,4
1576747528172482,-6,0,1,3,0,0,-2,-2
1576747528174392,-4,-1,-4,0,2,-2,6,-2
1576747528174392,5,0,0,2,0,-4,0,-3
1576747528186463,3,1,-3,3,-1,-1,-1,-2
1576747528186463,0,1,1,-3,0,3,1,-2
1576747528195334,-1,-2,-2,0,1,2,-2,-2
1576747528195334,-6,0,2,0,-1,4,-1,5
1576747528210375,-6,1,2,1,2,-1,1,2
1576747528210375,0,-2,-3,-2,0,-1,1,-5
1576747528211292,0,1,0,-5,1,-3,-4,2
1576747528211292,-2,-2,-4,-1,3,-3,-2,1
1576747528232326,-3,-3,-2,-1,-3,3,0,2
1576747528232326,-5,1,3,0,-4,-4,-1,-6
1576747528234230,-4,-2,-1,-2,-2,-8,-4,-4
1576747528234230,1,0,-1,4,-1,-1,1,-2
1576747528246252,1,-2,0,-3,-3,2,1,2
1576747528246252,-1,-6,-2,-4,-3,-5,2,9
1576747528255171,2,4,0,1,-2,2,6,5
1576747528255171,2,1,2,-2,0,1,4,0
1576747528270168,1,0,-4,-1,0,-2,-4,-10
1576747528270168,-4,3,0,-2,-2,-1,-3,-5
1576747528271126,1,-3,-4,0,2,-5,-6,4
1576747528271126,-5,2,-3,-2,1,-4,-6,1
1576747528292170,-4,2,2,-2,-2,-1,0,9
1576747528292170,1,1,-1,3,-1,-3,-1,4
1576747528294073,-5,-2,3,2,0,-2,-2,-7
1576747528294073,-6,0,-2,-1,-1,4,2,2
1576747528306132,3,-3,0,-5,-1,1,-4,-3
1576747528306132,2,-4,-3,-2,-2,-2,-3,-2
1576747528315013,-2,-3,-5,2,-5,0,3,-1
1576747528315013,1,1,-4,0,-4,-2,-1,-1
1576747528330071,-2,2,0,-1,-2,-1,2,-1
1576747528330071,-1,-3,-3,2,3,7,-3,-6
1576747528331988,4,-2,2,1,2,2,-4,-4
1576747528331988,-2,-7,2,-2,-1,-4,-5,-3
1576747528352952,-4,-3,-3,0,-1,-7,-1,-1
1576747528352952,-5,2,-1,-1,-3,-6,4,-4
1576747528353906,3,5,4,-2,-2,2,0,3
1576747528353906,2,1,-1,0,-1,4,6,7
1576747528374948,5,2,6,4,2,4,2,0
1576747528374948,-4,-2,-1,-3,2,0,0,-5
1576747528376858,-2,-5,-5,-3,0,0,-2,-2
1576747528376858,2,-1,-2,0,0,1,-5,-5
1576747528389852,-5,-3,-4,0,1,-1,-4,-3
1576747528389852,4,4,0,0,0,0,1,6
1576747528391810,0,1,0,-1,-1,-2,0,-1
1576747528391810,-2,-2,-2,-4,-6,-2,1,1
1576747528412857,0,-4,-2,-4,0,-3,0,1
1576747528412857,0,-2,-2,-1,4,-1,-2,6
1576747528413745,-1,0,-3,-2,-5,-5,0,6
1576747528413745,-2,-3,4,2,-1,-7,0,-9
1576747528434791,-2,0,-3,1,-3,1,1,-2
1576747528434791,-1,-3,-2,0,-2,1,0,1
1576747528436691,0,-1,1,0,5,-1,-2,0
1576747528436691,1,-1,2,0,1,-3,-3,1
1576747528449749,6,-4,3,-3,2,-2,1,-6
1576747528449749,5,3,1,-2,-2,-1,0,-2
1576747528451652,-4,-3,-3,-1,-5,-4,-3,-3
1576747528451652,-3,6,1,-1,-2,2,0,0
1576747528472630,-6,0,1,4,-2,2,-5,0
1576747528472630,-1,-1,1,-1,0,2,-3,2
1576747528473593,1,-1,0,-1,2,1,0,0
1576747528473593,1,2,-5,-2,-2,0,0,-2
1576747528495526,4,2,0,0,0,2,0,0
1576747528495526,2,-2,-4,-3,-4,-1,0,-1
1576747528496531,1,-1,-6,1,-1,2,3,-3
1576747528496531,2,-2,-1,-4,-1,-1,3,0
1576747528509590,2,-1,3,1,-3,-2,1,-4
1576747528509590,1,-2,1,-2,-3,-1,-4,-5
1576747528516533,4,2,6,-3,-2,-2,-1,-3
1576747528516533,1,1,-3,-3,2,-2,-1,1
1576747528532527,-8,0,-1,-1,1,-5,0,1
1576747528532527,-7,0,0,-2,-3,-5,1,0
1576747528534474,-1,2,2,3,2,-3,-4,-2
1576747528534474,-4,0,-1,-1,-2,2,-1,0
1576747528555368,2,1,-2,-3,1,3,1,5
1576747528555368,-1,-5,1,3,2,5,-3,-4
1576747528556368,-2,1,-5,2,1,2,3,-5
1576747528556368,1,-3,-4,-2,-2,-2,-4,-2
1576747528569428,-1,-1,-4,-1,-1,-3,-1,0
1576747528569428,-2,-1,1,-1,1,-3,3,-2
1576747528576413,-3,-5,7,-3,-2,-1,0,-5
1576747528576413,-11,-2,-3,3,-3,2,0,-8
1576747528592365,-3,0,2,-1,-2,6,-2,1
1576747528592365,4,-1,-1,1,0,4,3,4
1576747528594265,0,-1,-2,-1,-3,5,-4,1
1576747528594265,0,-1,-2,-3,-1,-1,-3,3
1576747528615316,-2,-1,-3,0,-1,-4,-2,3
1576747528615316,-9,-3,0,-2,-2,-7,0,0
1576747528616220,-1,0,1,-1,3,-5,0,1
1576747528616220,1,0,1,0,1,1,0,-6
1576747528629270,4,-2,-1,-3,-2,-7,0,-5
1576747528629270,-1,1,0,-2,-4,-3,-2,-3
1576747528636252,-1,-2,-1,-2,-4,-1,2,1
1576747528636252,-6,-3,-1,-2,-3,0,-4,5
1576747528652204,-5,0,-5,0,0,2,-2,-1
1576747528652204,-5,1,-7,1,0,4,-4,-5
1576747528654102,-2,3,-6,-1,-2,-3,0,-2
1576747528654102,6,1,-1,1,1,-1,-2,-3
1576747528675146,-2,-3,-1,0,-2,-6,-3,-3
1576747528675146,1,-1,3,0,1,-1,0,3
1576747528677042,-8,1,2,-3,3,2,-4,3
1576747528677042,6,0,2,1,2,1,0,1
1576747528689011,0,0,-1,-3,-5,0,-1,-3
1576747528689011,4,0,-3,1,-2,2,2,-3
1576747528696093,-3,0,-2,-1,-5,0,5,4
1576747528696093,-3,0,0,-1,-3,0,1,1
1576747528712950,-5,0,3,1,0,-1,3,1
1576747528712950,-3,3,0,0,1,-3,0,-1
1576747528713949,7,1,-2,1,-2,-4,0,0
1576747528713949,1,-1,-2,-2,-3,-5,-2,-3
1576747528734985,3,-3,-4,0,-3,0,-1,-4
1576747528734985,2,-2,0,-2,0,0,0,2
1576747528736880,-3,-1,1,1,-1,5,-1,-3
1576747528736880,-1,2,0,1,-2,-2,-1,-1
1576747528748960,1,0,1,-3,-4,-1,-2,0
1576747528748960,-6,-5,1,-3,-4,-2,-1,0
1576747528757832,2,-6,-3,1,2,-4,-4,3
1576747528757832,5,1,-4,-2,2,0,1,-2
1576747528772877,1,2,-2,0,3,-1,-4,-2
1576747528772877,0,-1,-3,0,-1,-3,-3,2
1576747528773791,-2,0,-3,-4,-3,-2,1,4
1576747528773791,-10,-1,1,-1,-2,-1,4,4
1576747528794825,5,1,-1,1,2,0,4,-4
1576747528794825,1,-1,-2,-2,-3,4,-1,-10
1576747528796735,-2,-5,0,-1,0,3,-2,-2
1576747528796735,0,2,-1,-1,1,0,-1,1
1576747528809740,2,0,3,-2,-1,-2,-1,5
1576747528809740,-5,1,2,-2,-5,-2,-4,-3
1576747528815673,1,-4,2,0,-2,2,-1,-4
1576747528815673,0,-4,-1,-1,-1,2,1,-6
1576747528832724,-10,1,-6,-2,-3,-5,-2,-6
1576747528832724,-2,-5,-7,-1,-3,-4,-5,1
1576747528833669,2,-1,-2,2,0,-1,-5,0
1576747528833669,1,-2,4,2,1,2,-2,3
1576747528854570,1,0,4,2,2,-1,1,2
1576747528854570,2,3,0,2,1,-4,2,7
1576747528856563,-3,0,-5,-4,2,-4,2,2
1576747528856563,-1,1,-7,-1,0,-1,5,1
1576747528868630,-1,-1,0,-4,-2,3,-1,0
1576747528868630,1,-2,6,2,-2,1,1,-6
1576747528877515,-5,-3,1,-1,-5,-3,-2,-10
1576747528877515,0,-2,2,0,-4,-3,1,-6
1576747528892566,1,0,-1,0,-2,1,-9,2
1576747528892566,9,0,-3,2,3,1,-7,1
1576747528894465,-2,0,-4,-3,0,0,-1,-1
1576747528894465,-14,-2,-4,0,1,-1,1,-6
1576747528915442,-5,-7,0,-2,2,2,4,-3
1576747528915442,-1,1,0,-2,0,-2,2,0
1576747528916410,-3,0,-4,-1,0,-2,2,3
1576747528916410,4,-5,0,-2,1,-5,-5,4
1576747528928468,6,0,-4,0,-1,1,0,4
1576747528928468,-3,-2,1,-1,0,-2,4,-5
1576747528937344,0,3,3,-2,2,-3,1,-6
1576747528937344,2,-1,0,2,0,-3,-6,-2
1576747528952399,-1,0,4,1,1,-2,-3,-4
1576747528952399,-6,-4,2,-3,0,0,-3,-6
1576747528954299,3,-3,-4,2,-3,0,0,0
1576747528954299,-9,0,-2,-1,-3,0,2,2
1576747528975351,-10,-5,-5,-2,-7,-2,-2,0
1576747528975351,-2,5,-2,-1,0,-1,-2,-2
1576747528976251,-2,-2,0,1,3,0,-1,2
1576747528976251,2,0,-3,-4,1,3,-3,-5
1576747528989206,-2,0,0,1,1,-3,0,1
1576747528989206,-1,0,-2,-1,-2,-3,-2,2
1576747528997261,-2,-2,-5,-5,-4,-3,-2,-1
1576747528997261,7,2,3,-2,1,-2,-2,4
1576747529012188,3,1,2,-1,-3,-4,3,-4
1576747529012188,2,1,0,-1,0,-1,1,-3
1576747529014145,-1,-1,-3,-1,1,-1,-2,2
1576747529014145,-1,3,0,2,-2,0,-1,0
1576747529035178,4,2,-3,-3,-2,-1,-3,1
1576747529035178,-1,-2,-4,-2,-2,-2,-1,-2
1576747529037078,3,0,0,-2,-3,0,2,-2
1576747529037078,0,-1,-5,-1,-3,-3,0,0
1576747529049093,-5,3,-2,0,0,-2,-2,-1
1576747529049093,2,1,0,-4,-5,1,3,3
1576747529058031,0,-1,3,1,-2,1,-1,-2
1576747529058031,-4,-7,-3,0,3,2,0,-4
1576747529072994,-3,-1,-1,-1,1,0,3,-1
1576747529072994,-3,-3,-2,1,3,-1,2,-1
1576747529073986,2,1,2,1,1,-1,-1,1
1576747529073986,1,0,0,1,0,-1,-3,3
1576747529095027,-3,-2,4,-1,-4,-1,-6,1
1576747529095027,0,-1,0,0,-1,-2,-6,-3
1576747529096953,1,0,-5,-2,-1,-5,-6,-5
1576747529096953,-1,3,-4,-4,-2,-7,-4,2
1576747529108995,1,0,-3,-4,1,1,2,-1
1576747529108995,-1,-3,0,-1,4,0,5,10
1576747529117914,0,-4,-2,0,-3,0,4,2
1576747529117914,-5,0,3,1,-3,4,0,-5
1576747529132919,-4,-4,-3,-1,-5,3,-1,-6
1576747529132919,2,-2,-2,1,-3,2,-2,-4
1576747529133820,0,1,1,2,-3,2,-3,2
1576747529133820,1,-1,1,0,-1,-2,-3,0
1576747529154815,4,0,-1,3,8,-1,1,0
1576747529154815,-2,3,-3,2,1,-3,-3,-2
1576747529156761,-7,2,-1,-1,3,1,0,3
1576747529156761,2,-2,-1,1,-3,-2,3,-4
1576747529168779,-3,-4,-2,-2,-5,-4,-2,-1
1576747529168779,3,-1,-2,-2,0,3,0,0
1576747529177737,-2,0,1,-4,-2,1,2,-4
1576747529177737,-4,-4,2,-1,-1,5,2,7
1576747529192763,0,-1,-1,1,-3,-1,2,3
1576747529192763,3,1,2,1,0,-1,-2,-2
1576747529193659,0,1,0,1,-1,3,-6,-3
1576747529193659,1,0,-1,-2,3,-2,-1,0
1576747529214706,-2,-3,0,-2,2,-1,4,4
1576747529214706,-3,1,-2,0,0,-4,3,4
1576747529216605,1,-1,2,1,0,-1,-1,-4
1576747529216605,1,3,-4,-1,2,-5,1,3
1576747529228665,1,-2,-1,-1,-2,-3,-3,3
1576747529228665,4,-3,3,-5,0,0,-2,-1
1576747529237542,4,-4,-4,-2,-1,-3,0,0
1576747529237542,5,-2,3,-2,-1,3,0,-6
1576747529251607,-5,0,-1,-1,0,0,-3,-5
1576747529251607,-9,3,-3,1,1,-3,-3,1
1576747529258586,-9,-1,-3,-5,-1,-3,-4,0
1576747529258586,1,1,-2,0,-3,1,-2,2
1576747529275451,6,-2,-3,0,0,6,0,0
1576747529275451,-2,-1,-1,1,0,0,1,9
1576747529276447,3,0,4,3,-3,-3,3,2
1576747529276447,-4,-5,-3,-4,-2,-5,-2,-5
1576747529297481,-1,1,-1,-1,-2,-1,-2,-3
1576747529297481,-2,-1,0,-4,-3,3,-1,-3
1576747529299380,-7,-2,0,-3,0,0,-1,-3
1576747529299380,-2,0,3,-1,-1,-4,1,-6
1576747529312443,1,-2,-3,-2,-1,-1,2,-5
1576747529312443,-8,0,-6,0,0,-4,-4,1
1576747529314340,5,-1,-3,-1,-2,0,-2,1
1576747529314340,-1,2,-5,-1,1,-3,-5,99
1576747529335385,-6,-2,-2,1,0,-2,-2,38
1576747529335385,4,-3,-1,2,-1,1,-1,13
1576747529336278,3,-2,0,1,1,2,2,-17
1576747529336278,2,0,-1,0,-4,1,4,-43
1576747529357317,1,1,0,-3,-4,-2,1,-24
1576747529357317,2,-1,0,1,-1,-1,0,-16
1576747529359221,-3,-1,0,-3,4,-3,-3,-22
1576747529359221,-4,-2,0,-4,-1,1,-4,-21
1576747529372272,-7,0,4,-4,0,-4,-3,-10
1576747529372272,-4,-5,-3,-4,-2,-3,3,-17
1576747529374179,-1,2,-4,2,-1,1,3,9
1576747529374179,3,0,2,0,-3,0,-4,-8
1576747529395217,4,-1,1,-3,-3,0,-2,0
1576747529395217,2,-1,2,-2,1,3,-3,5
1576747529397121,0,2,5,0,4,-3,1,15
1576747529397121,-5,-1,-6,0,3,1,-1,-6
1576747529418060,2,4,-1,1,5,1,-4,-10
1576747529418060,-1,1,-3,-1,-5,-3,-1,-1
1576747529419063,1,-2,-4,-2,-5,-3,-2,9
1576747529419063,0,-1,-3,-1,-1,-5,-2,-9
1576747529433018,0,-4,-3,1,-2,-5,1,-1
1576747529433018,-1,-1,4,0,-1,0,1,3
1576747529434024,-3,-3,5,-5,-5,0,1,8
1576747529434024,6,-1,0,0,1,-1,2,-7
1576747529454980,-6,1,-1,1,2,-1,3,-2
1576747529454980,-4,-1,-4,0,2,-3,-1,-1
1576747529456963,0,-3,-2,1,-2,-4,-6,-5
1576747529456963,0,-2,0,-1,2,1,-2,-3
1576747529477944,-3,0,3,-1,-5,1,-2,5
1576747529477944,1,-4,-3,-3,-5,-1,-5,-2
1576747529478901,1,-1,0,-2,-2,-2,-3,1
1576747529478901,-5,-2,-2,1,3,-2,1,-2
1576747529491961,4,-2,-1,-2,-1,2,1,-2
1576747529491961,-5,-1,0,-1,1,4,1,2
1576747529498945,-5,-2,-2,0,-1,3,6,-2
1576747529498945,-1,-3,-4,-1,-2,-4,2,-2
1576747529514897,0,1,-2,-1,1,-2,-3,1
1576747529514897,4,-3,0,3,-2,5,-4,-3
1576747529516801,1,-2,1,-1,-3,1,0,7
1576747529516801,-9,0,3,-2,-5,1,0,0
1576747529537744,3,0,4,0,0,-7,2,3
1576747529537744,1,5,-4,-5,1,-4,1,-3
1576747529538735,3,2,-6,4,0,-1,-6,-6
1576747529538735,3,-2,-1,1,0,-3,-2,-3
1576747529551803,-4,-5,-4,-1,2,-2,4,-2
1576747529551803,-6,-3,-2,-3,-1,-3,-1,0
1576747529558779,-3,-2,-1,0,-1,1,3,-4
1576747529558779,0,-3,-4,-1,1,3,0,-2
1576747529574741,1,-1,1,-2,4,5,-4,-4
1576747529574741,3,3,1,1,0,-1,2,6
1576747529576644,-1,-1,0,-1,0,-2,-1,3
1576747529576644,4,-1,-1,3,-1,2,-5,3
1576747529597683,2,2,0,0,-4,2,0,1
1576747529597683,0,1,4,-5,-5,-2,4,1
1576747529599573,0,2,2,-1,1,-1,-1,2
1576747529599573,-3,-1,4,0,-4,-1,-1,-9
1576747529611641,-2,-3,-8,-2,-3,1,-6,-3
1576747529611641,1,-1,-2,0,-2,-2,0,-1
1576747529618625,-7,2,-4,-1,2,-3,0,4
1576747529618625,-3,2,-5,-3,0,-4,3,-4
1576747529634537,-3,0,-2,2,-1,-3,-1,-2
1576747529634537,4,0,-1,-1,-1,-6,-3,2
1576747529636473,-2,-1,2,-2,-4,-2,-2,-7
1576747529636473,1,0,3,0,0,2,-2,-1
1576747529656463,2,0,0,-1,0,0,-8,-4
1576747529656463,-5,-3,-6,0,0,1,-5,-2
1576747529665442,3,-4,2,0,-2,4,3,-4
1576747529665442,-3,0,1,2,-3,3,6,7
1576747529671428,-3,-1,2,0,0,-2,4,2
1576747529671428,-2,-3,3,1,-1,1,2,2
1576747529678462,0,-1,-3,-3,-3,-4,-7,-2
1576747529678462,-2,0,-3,0,2,1,-2,2
1576747529695441,-7,1,-5,-2,-2,1,-1,-4
1576747529695441,-4,-1,-5,-1,0,-5,-2,0
1576747529696314,1,0,-1,-3,0,-3,4,1
1576747529696314,4,-3,3,-4,0,-4,1,4
1576747529717358,-1,-1,2,1,0,-3,2,0
1576747529717358,-2,1,2,-1,-2,-1,0,-3
1576747529719255,-2,1,-9,0,0,2,3,-5
1576747529719255,4,-1,-8,-3,0,0,1,-4
1576747529732265,-1,-2,2,-1,2,-1,0,-6
1576747529732265,-3,-3,5,1,-1,-1,0,-2
1576747529738249,-5,0,2,2,-1,1,-5,-2
1576747529738249,-3,5,5,1,-6,-1,-3,-1
1576747529755259,-5,1,-6,-1,-4,2,-7,5
1576747529755259,2,3,-3,2,4,1,-4,-1
1576747529756153,1,2,-3,2,0,-2,-2,-2
1576747529756153,-7,-1,-3,-3,-1,-3,0,-3
1576747529777193,1,1,-5,-2,1,0,2,-1
1576747529777193,-1,0,-2,1,1,-5,-2,-5
1576747529779099,7,-1,0,-2,2,0,-1,-1
1576747529779099,-1,0,5,1,-1,0,0,2
1576747529791166,-4,2,3,-2,-3,0,3,7
1576747529791166,-3,-2,-3,-2,-1,1,6,0
1576747529800039,1,-1,-1,-2,-4,2,6,6
1576747529800039,-1,-4,-3,1,2,0,-2,-7
1576747529815043,4,0,-3,-1,0,-3,-2,0
1576747529815043,0,2,1,-1,-2,1,-3,-5
1576747529816991,-2,1,6,-1,1,-4,-3,-4
1576747529816991,1,-3,-2,-3,-5,0,-4,1
1576747529837938,1,-1,6,-1,-4,1,1,-2
1576747529837938,1,0,-3,-1,-2,1,0,2
1576747529838933,2,-1,-5,-4,-2,-3,-2,8
1576747529838933,-4,1,-1,-1,-3,-2,-3,2
1576747529851004,-2,0,0,2,0,-2,-3,0
1576747529851004,-1,-4,-2,1,5,3,-1,-5
1576747529859875,-1,-2,0,-1,-1,-1,1,2
1576747529859875,4,2,1,-1,3,-3,-5,1
1576747529874939,-1,-3,0,-2,-2,-2,2,-1
1576747529874939,-2,0,-2,-2,-5,0,2,-6
1576747529876836,-4,-3,-3,1,-1,3,2,-8
1576747529876836,-3,-3,0,-4,-3,0,-1,-6
1576747529897893,-3,-3,-1,0,0,-4,6,4
1576747529897893,-6,-2,1,-3,0,-7,0,5
1576747529898772,1,-2,1,1,0,0,0,1
1576747529898772,-3,-4,-4,-4,-1,0,-1,-3
1576747529910848,-4,-4,-5,-2,0,2,-6,-4
1576747529910848,2,3,-6,1,-1,3,-6,3
1576747529919755,0,-1,-7,0,-3,0,-5,2
1576747529919755,1,0,-2,0,0,-2,-2,1
1576747529934782,7,-2,2,2,-2,-1,-5,-3
1576747529934782,3,-2,1,0,-1,0,-1,-2
1576747529936675,1,-1,1,-1,1,0,1,0
1576747529936675,0,0,5,2,2,-3,4,-5
1576747529957715,-5,-3,2,-3,1,0,4,-4
1576747529957715,2,3,1,-2,0,-2,0,-3
1576747529958615,0,0,-4,0,-1,0,-5,-4
1576747529958615,3,-1,-3,0,1,2,-1,10
1576747529971577,3,-2,-5,-3,-4,-1,-2,1
1576747529971577,0,-5,0,-2,0,2,0,-6
1576747529980553,-3,-1,1,-1,-3,-5,2,-3
1576747529980553,-5,3,-2,-1,-2,-1,0,0
1576747529995519,0,2,1,5,4,-1,0,-2
1576747529995519,-2,0,2,1,-1,-4,4,5
1576747529996513,4,-1,1,-3,4,-1,2,3
1576747529996513,0,-3,2,3,-2,1,-1,2
1576747530017560,-4,2,-3,1,-3,1,-2,3
1576747530017560,-5,-4,-6,-3,-6,-1,-7,-2
1576747530019450,-9,-2,1,5,-2,-4,-2,-4
1576747530019450,-4,-1,-1,0,-1,-1,5,-7
1576747530031539,1,0,0,-2,-2,-1,3,-7
1576747530031539,4,-2,4,1,-1,2,1,-3
1576747530040396,3,0,-4,-5,1,3,-5,3
1576747530040396,1,2,-1,-4,1,-2,-1,0
1576747530055401,1,-1,-2,-1,0,-4,2,1
1576747530055401,-5,-1,-2,-2,0,-3,0,-2
1576747530056354,-3,0,0,1,-4,1,-3,-4
1576747530056354,3,-3,1,4,2,2,-2,-5
1576747530077296,-5,2,-2,2,3,-4,-2,5
1576747530077296,4,2,-2,1,-1,0,-2,-3
1576747530079291,2,1,1,-1,-4,-1,1,-77
1576747530079291,4,0,-1,-2,-6,-1,1,-21
1576747530091359,0,-4,-3,-2,-4,1,1,-6
1576747530091359,0,-2,-3,1,0,1,-3,18
1576747530100239,-4,-2,0,-1,-2,-3,2,38
1576747530100239,1,5,-1,-1,1,-5,1,14
1576747530115297,1,-3,2,1,4,-5,-7,2
1576747530115297,-2,0,0,-2,4,-2,-2,5
1576747530116190,1,-1,-4,0,2,1,-1,9
1576747530116190,-2,-1,0,-1,-1,1,-2,3
1576747530137174,2,-2,2,-2,-4,2,-1,2
1576747530137174,-2,-2,0,-1,0,-1,0,-6
1576747530139134,-5,0,-1,0,-2,-1,3,12
1576747530139134,-2,-1,-1,1,2,-1,3,2
1576747530151199,3,0,-3,-3,-2,3,2,6
1576747530151199,-2,-4,-4,0,-2,-1,-2,-6
1576747530160076,3,3,2,4,2,-1,-4,5
1576747530160076,-3,-1,0,1,-4,0,-1,2
1576747530175137,-2,0,-1,-4,-4,-1,-5,-9
1576747530175137,3,-1,-4,-1,-2,-4,-1,-4
1576747530177033,1,-2,-4,0,4,-3,-4,6
1576747530177033,-5,-3,-1,-2,0,-1,2,-1
1576747530197971,-3,-2,1,-2,3,-4,2,-2
1576747530197971,6,2,4,-2,-4,-3,-3,-3
1576747530198972,-3,-3,-5,1,-3,-1,1,1
1576747530198972,0,-1,-3,3,-3,-3,-2,35
1576747530211040,-5,-3,-2,-1,-3,-3,-5,21
1576747530211040,3,-1,-1,-1,-1,4,0,7
1576747530219915,2,2,2,-4,-3,4,1,-6
1576747530219915,-4,0,-2,0,-1,2,3,-30
1576747530234977,-5,1,2,1,-1,0,4,-14
1576747530234977,-1,-1,3,-2,0,-3,1,-5
1576747530236869,0,-2,-4,-5,2,-6,1,-16
1576747530236869,5,-4,-4,-3,-2,2,-2,-5
1576747530257894,-3,1,-1,-1,-2,1,2,-8
1576747530257894,-1,-2,1,1,-1,2,-3,-5
1576747530258810,6,0,6,1,-3,-4,-4,3
1576747530258810,4,-1,-1,-5,-2,-3,-4,-1
1576747530279861,-3,-1,-2,-2,2,1,-2,-2
1576747530279861,-2,-2,-4,7,5,2,7,-4
1576747530281750,-1,-4,-5,-3,0,3,6,11
1576747530281750,2,-1,1,2,0,0,-3,3
1576747530294817,1,-1,2,1,3,0,0,-7
1576747530294817,-6,-2,0,-3,-2,-4,-1,-1
1576747530296710,-2,2,-2,-1,-1,-2,-3,0
1576747530296710,-1,-2,1,2,0,-3,-5,-1
1576747530317758,0,2,-5,-3,-1,-3,-4,-6
1576747530317758,2,-2,-2,-4,-1,-2,-2,-3
1576747530318681,1,0,2,-1,-5,0,-3,7
1576747530318681,-3,1,0,0,-4,3,1,-5
1576747530339700,0,-4,-3,2,2,0,3,1
1576747530339700,1,3,-2,-1,-2,3,2,2
1576747530341621,-1,-2,1,-1,-1,0,5,0
1576747530341621,-6,-2,0,-1,1,0,-3,4
1576747530355551,6,0,3,-1,1,0,-5,-5
1576747530355551,-3,-4,-6,-2,-1,1,-5,0
1576747530356550,0,-5,-3,-1,-2,0,-8,1
1576747530356550,1,0,0,-2,-1,-3,-2,-3
1576747530377595,5,-1,-2,-1,-2,-3,1,1
1576747530377595,1,2,3,-1,0,-3,1,0
1576747530379486,-5,-2,1,1,-2,-3,2,-2
1576747530379486,-6,-3,-4,-1,1,-9,4,6
1576747530400480,-3,4,0,-3,-3,-4,2,-3
1576747530400480,-2,-3,-2,-2,-1,-3,-6,-11
1576747530401430,0,1,-2,-4,-3,-1,-4,-1
1576747530401430,-1,-4,-3,0,-2,-1,-3,-2
1576747530414497,4,-2,0,1,3,0,0,1
1576747530414497,4,3,2,2,1,0,-4,1
1576747530421422,-3,4,2,0,3,1,-1,-1
1576747530421422,-3,-1,-3,-2,0,1,-1,-5
1576747530437334,-7,2,-1,0,-6,-1,-2,1
1576747530437334,-1,2,0,-4,-6,-4,6,3
1576747530439328,-9,-2,-1,-2,2,-1,1,1
1576747530439328,6,-2,2,2,0,0,2,3
1576747530460383,1,2,-3,-2,0,1,1,0
1576747530460383,-8,-1,1,-2,-1,3,-2,-3
1576747530461267,-1,-1,-5,-1,-1,0,1,-6
1576747530461267,-2,-2,-2,-3,0,-3,-4,-3
1576747530474331,0,-3,-1,0,2,-2,-4,4
1576747530474331,-1,1,1,1,0,-2,-1,0
1576747530481315,1,2,-2,-3,-4,-3,-4,0
1576747530481315,1,-5,-2,-1,0,0,-2,-6
1576747530497219,-5,0,-5,2,-2,2,5,-6
1576747530497219,-3,2,-2,0,-3,0,3,-4
1576747530499169,3,-4,2,1,-2,-1,2,-3
1576747530499169,0,3,2,-4,0,2,-2,-3
1576747530520111,-1,-2,-2,-1,1,-2,-6,1
1576747530520111,0,-3,1,4,5,-4,2,5
1576747530521110,-3,0,-2,-2,1,-3,1,-3
1576747530521110,-2,-3,-2,1,-1,-1,-1,7
1576747530534176,-1,-2,-2,-2,-6,2,-5,3
1576747530534176,-6,3,-2,0,-4,-1,-4,-1
1576747530541160,2,0,-2,-1,-4,-3,-3,4
1576747530541160,-2,1,-3,-3,1,-2,2,-2
1576747530558015,-4,-2,0,-2,-1,-2,5,3
1576747530558015,4,-2,-1,-6,-4,-5,-2,-7
1576747530559009,0,-2,2,0,2,-2,-3,-8
1576747530559009,0,2,4,3,-4,0,-3,1
1576747530580051,0,-3,0,-1,1,0,-3,1
1576747530580051,2,-2,-5,-1,-1,2,2,0
1576747530581975,-1,-6,-7,-2,1,0,-1,-2
1576747530581975,2,-1,-5,-1,-1,3,-1,1
1576747530594017,-4,-3,3,-2,-5,-2,0,0
1576747530594017,6,2,2,1,1,0,-1,1
1576747530601000,-3,1,4,-2,0,-2,-1,-2
1576747530601000,-4,0,1,-1,-1,-2,-3,-3
1576747530617949,-1,0,1,1,-1,-3,-2,-1
1576747530617949,-4,-5,-2,-4,-1,-2,-1,-1
1576747530618852,-5,4,-3,-2,1,4,-1,-6
1576747530618852,-1,-1,-1,-3,-1,3,-2,-5
1576747530639897,1,2,0,-1,-1,1,-3,3
1576747530639897,-6,-5,-2,2,2,-5,-3,5
1576747530641789,5,-2,-3,2,2,-6,2,7
1576747530641789,-5,-1,-5,-2,0,-4,0,-6
1576747530654750,1,3,4,1,-1,1,-3,-7
1576747530654750,-1,-3,-1,-3,-3,0,-3,2
1576747530660737,-1,0,1,-1,-6,3,1,1
1576747530660737,1,0,-3,2,-1,-1,7,-2
1576747530677792,1,-4,-5,1,0,0,4,-3
1576747530677792,-4,0,2,1,2,2,-3,-1
1576747530678685,-3,-2,0,0,-1,1,-4,2
1576747530678685,1,-2,6,-1,-3,-4,-2,5
1576747530699732,2,0,-2,-1,-2,-2,0,-1
1576747530699732,-1,-2,1,0,-4,-5,-2,-1
1576747530701627,-1,2,-1,0,0,-2,-4,3
1576747530701627,-2,2,-1,1,2,0,0,-2
1576747530714716,4,1,-2,-3,4,-2,-1,-4
1576747530714716,5,1,-6,-2,1,0,-3,4
1576747530721570,2,6,-3,-2,0,1,1,-2
1576747530721570,-2,2,-2,1,2,2,3,-1
1576747530737567,-2,-4,2,0,-3,0,3,-6
1576747530737567,-7,-1,1,-1,-4,-2,3,-7
1576747530739529,4,-1,0,-1,-1,2,0,3
1576747530739529,-6,-3,-2,-4,-3,-2,-4,-1
1576747530760515,-3,0,-5,-3,0,0,-5,1
1576747530760515,-2,2,-1,2,-2,-3,0,4
1576747530761469,0,-3,-2,-1,-4,4,-1,-4
1576747530761469,-1,1,3,-2,-2,-1,1,3
1576747530773537,6,-4,3,1,-2,-4,1,0
1576747530773537,2,1,-6,-4,-2,-2,0,-2
1576747530782409,-1,1,0,0,6,-4,-4,-5
1576747530782409,-1,-2,4,0,1,-1,-5,-8
1576747530797472,-8,-2,4,-3,-5,-1,0,-4
1576747530797472,-6,-2,2,0,0,4,2,2
1576747530799411,-3,-4,-4,-2,-4,-3,0,3
1576747530799411,4,0,-4,-1,-2,1,-6,2
1576747530820336,-3,1,-4,-2,1,-2,-1,1
1576747530820336,1,1,-2,2,3,0,3,-4
1576747530821308,-3,-3,-3,-4,-5,-3,0,-7
1576747530821308,0,0,-1,-2,-2,0,3,3
1576747530833375,2,4,2,1,-2,0,-1,0
1576747530833375,5,-2,-2,0,1,-1,-3,-2
1576747530842322,-2,0,0,1,1,-2,-1,4
1576747530842322,-4,-3,-3,1,-1,-1,0,1
1576747530857312,-8,-3,-1,-1,-1,2,-4,-1
1576747530857312,5,0,1,1,2,1,0,0
1576747530859209,5,-1,3,-1,1,-4,-2,1
1576747530859209,-2,2,-2,-3,-5,2,1,-5
1576747530880254,-7,1,-5,-3,-3,3,-2,0
1576747530880254,1,0,-4,-2,-5,-3,-4,3
1576747530881181,-1,1,-3,1,0,0,-4,5
1576747530881181,5,-2,0,1,4,-5,1,-3
1576747530894160,-1,0,5,-1,0,-5,8,-1
1576747530894160,-4,-4,0,-2,-1,-1,3,-2
1576747530903089,-2,1,3,-3,-1,-2,3,0
1576747530903089,1,-1,0,-5,0,0,-1,4
1576747530918047,-1,1,-2,-1,-3,0,-4,1
1576747530918047,-4,-1,0,0,-2,-2,-1,-6
1576747530919050,1,-2,2,1,-2,-4,1,-7
1576747530919050,3,-3,2,0,0,0,-4,-1
1576747530940093,0,-3,-2,0,1,-2,1,3
1576747530940093,-6,3,-1,-3,-3,4,0,5
1576747530941987,0,0,-6,-1,-3,6,-1,1
1576747530941987,4,0,2,-3,-4,-2,-4,-3
1576747530953953,-2,-6,-3,-2,1,-1,-6,-10
1576747530953953,-4,-1,0,0,0,1,-2,-7
1576747530962972,-3,-2,1,0,1,-5,-1,-5
1576747530962972,-13,-3,-5,-1,-1,-1,-1,-8
1576747530977934,1,-1,1,-1,-3,-3,0,1
1576747530977934,2,0,0,-3,-1,-1,1,-2
1576747530978887,4,-1,-5,-1,-2,0,1,2
1576747530978887,7,1,-3,1,-2,-2,4,7
1576747530999931,1,0,-6,-1,-1,-1,3,6
1576747530999931,0,0,5,3,-2,-2,4,0
1576747531001824,7,-3,0,2,1,-1,-2,0
1576747531001824,-5,0,-1,-2,-2,3,-5,-3
1576747531013791,1,-1,-3,2,2,3,-3,-1
1576747531013791,-5,-5,4,-2,-1,-3,-3,-3
1576747531022772,-4,-3,1,0,-2,-2,2,2
1576747531022772,-3,0,1,-2,0,-1,1,-3
1576747531037730,3,1,0,-2,-3,3,-2,-2
1576747531037730,5,-5,-4,-1,-3,-1,-6,0
1576747531038729,-1,-4,-8,0,-3,1,-2,-3
1576747531038729,-3,-3,-4,1,-2,-2,2,-2
1576747531059669,0,-1,-2,-4,1,-2,-1,-3
1576747531059669,1,2,7,-4,3,0,-5,0
1576747531061681,-1,0,10,-1,2,-1,-3,-4
1576747531061681,-6,2,-1,2,2,-3,-1,1
1576747531073737,0,1,-1,0,1,-2,-1,-1
1576747531073737,-5,-4,-4,-2,-3,0,3,3
1576747531082611,-3,-2,0,-2,-4,0,5,-2
1576747531082611,-5,-2,-1,0,0,-2,4,-3
1576747531097674,-2,-2,-1,3,-2,-4,-4,-10
1576747531097674,6,-1,-1,-1,1,0,-6,-4
1576747531098600,3,-1,-2,4,2,6,-2,2
1576747531098600,-3,-4,-6,-2,-2,-2,0,-1
1576747531119508,-3,1,0,-1,-5,-1,0,3
1576747531119508,-4,0,-4,-2,-4,-4,3,0
1576747531121507,-4,-2,0,3,0,-3,1,-2
1576747531121507,-4,1,1,-3,0,-3,-2,-2
1576747531133574,1,2,1,3,2,1,-3,0
1576747531133574,3,1,0,-1,0,-1,-6,-2
1576747531142446,1,-2,1,-3,-2,3,-3,-3
1576747531142446,6,-3,0,-3,1,-2,-2,4
1576747531157510,-7,-3,2,4,5,-1,5,5
1576747531157510,0,-2,2,1,0,3,2,5
1576747531159404,0,6,-6,-4,-4,-1,1,1
1576747531159404,-2,-2,-2,0,0,0,-3,-4
1576747531180422,1,5,-2,-4,-5,-3,-2,-4
1576747531180422,2,4,0,-1,-3,-3,1,0
1576747531181342,0,-5,3,-1,-3,-1,-1,-4
1576747531181342,1,-1,3,2,-3,3,4,-1
1576747531202388,-8,-4,-5,-2,2,4,-1,-3
1576747531202388,-1,1,-6,2,0,2,1,-7
1576747531204286,2,-1,-1,0,-4,-3,-5,-3
1576747531204286,1,-1,-1,0,-2,-6,-8,-4
1576747531217347,0,-3,-3,-3,2,-4,0,1
1576747531217347,-4,-2,-1,-1,-2,-2,0,-1
1576747531219243,-1,1,-1,1,0,-4,1,2
1576747531219243,-1,0,0,-1,-2,0,-2,3
1576747531240288,3,-1,0,-3,-3,0,-5,0
1576747531240288,-3,0,-4,1,0,1,-3,-5
1576747531241219,-3,-1,-5,-6,-2,1,-3,-3
1576747531241219,0,-1,0,1,-1,-3,1,4
1576747531262227,0,3,6,1,-1,-1,-3,8
1576747531262227,3,-3,2,-1,1,-2,2,8
1576747531264158,-5,0,1,0,1,-3,1,3
1576747531264158,-1,-3,-3,2,1,3,3,-3
1576747531278084,-1,-4,2,0,-1,-3,-1,-2
1576747531278084,9,0,0,0,2,1,-1,-4
1576747531279083,-4,-3,-5,-3,0,3,3,-1
1576747531279083,4,-1,-3,-4,0,1,5,-8
1576747531300128,-1,-3,-1,2,0,2,2,-4
1576747531300128,-9,0,-2,-2,0,-1,-2,0
1576747531302019,4,3,2,-1,1,-2,-3,4
1576747531302019,-1,1,-1,-4,-1,1,-3,1
1576747531323012,3,2,-5,2,0,-1,-2,-2
1576747531323012,2,2,1,3,-1,2,2,0
1576747531323963,-3,-4,3,-2,-3,-3,-5,0
1576747531323963,0,0,-4,-1,-4,1,-3,4
1576747531335986,-2,-1,2,-4,-6,0,0,-6
1576747531335986,-3,-3,2,1,0,-1,1,-5
1576747531344905,-4,-1,2,1,0,-2,2,2
1576747531344905,2,-2,2,1,0,-6,0,0
1576747531359867,-8,0,-6,0,-1,-4,-1,-2
1576747531359867,3,0,0,-1,1,1,-1,4
1576747531361905,1,-3,-4,1,0,4,-2,-6
1576747531361905,-5,4,-3,-1,-2,2,-6,2
1576747531382802,5,1,-1,0,-4,0,-2,0
1576747531382802,-1,-1,0,-5,-3,1,-4,0
1576747531383800,-8,0,0,-2,2,3,-2,-6
1576747531383800,1,1,2,-1,-1,1,3,-6
1576747531396816,2,-4,-3,-2,-2,-3,1,0
1576747531396816,5,-4,-3,-2,0,-3,1,0
1576747531403764,1,0,1,1,2,-1,2,-1
1576747531403764,-5,0,-2,1,0,0,-2,-5
1576747531419704,-2,1,0,-1,1,-3,-2,2
1576747531419704,1,-4,0,4,-1,-2,-1,2
1576747531421703,0,-2,-3,0,-2,-4,0,9
1576747531421703,2,-2,2,-7,3,-1,0,4
1576747531442696,-5,-2,1,-2,0,1,3,-1
1576747531442696,-7,1,-4,-1,-3,1,-2,-1
1576747531443642,2,2,1,-1,-2,-1,1,0
1576747531443642,-8,-4,-4,2,-7,-3,-4,-4
1576747531456663,2,0,1,-1,-1,1,-2,-2
1576747531456663,-3,1,0,0,-1,-1,0,-3
1576747531463589,-7,-3,-3,-3,-1,0,-1,-11
1576747531463589,1,-3,-1,-1,3,1,0,2
1576747531480543,2,-4,-1,-3,1,-8,-3,1
1576747531480543,-2,-1,-4,0,-1,-2,-5,-3
1576747531481542,4,1,2,-2,-1,0,0,0
1576747531481542,-1,-1,-3,-1,-2,0,-5,-3
1576747531502601,0,-3,-1,-1,-5,5,-4,-3
1576747531502601,0,2,3,-1,-2,1,-2,-3
1576747531504483,0,-1,-3,1,-1,3,-5,2
1576747531504483,0,0,0,-4,-1,0,-2,5
1576747531516554,-5,5,0,-3,2,-3,6,1
1576747531516554,1,0,-1,-1,0,-5,1,2
1576747531523531,2,-1,0,-1,-3,-5,-1,-2
1576747531523531,2,-1,1,1,-3,-1,5,-6
1576747531540468,-1,-7,-4,0,2,2,2,6
1576747531540468,-7,-2,1,0,0,-1,1,5
1576747531541382,-8,-5,-2,-3,0,-4,1,4
1576747531541382,-6,-2,0,-1,-2,-3,0,-5
1576747531562429,0,1,1,0,-2,3,-2,-6
1576747531562429,-3,1,-2,-1,-4,2,-3,-12
1576747531564321,1,0,4,2,2,0,-8,-6
1576747531564321,-5,-1,1,2,4,-2,-3,2
1576747531577283,-5,-1,1,1,1,0,2,-2
1576747531577283,-4,-3,-4,-1,0,-1,4,2
1576747531583370,-3,-2,-4,0,-1,-1,4,-1
1576747531583370,1,-1,-4,-3,-1,1,2,-1
1576747531600336,-4,1,-3,-2,-1,-1,-2,-4
1576747531600336,0,2,1,0,-5,4,0,0
1576747531601220,-1,3,2,4,-6,1,-3,-2
1576747531601220,-2,0,-4,3,-2,-4,-3,0
1576747531622270,0,-5,4,-2,2,-3,-6,3
1576747531622270,4,-4,1,-1,1,-3,0,-4
1576747531624163,4,-2,0,0,1,-3,-2,6
1576747531624163,4,1,3,-1,1,1,-1,-1
1576747531636126,-8,2,-1,0,-3,-2,-1,-5
1576747531636126,1,2,0,-2,5,-1,3,-1
1576747531645104,1,-2,-3,0,-1,3,2,-4
1576747531645104,6,-1,-3,-1,-6,3,1,0
1576747531660166,2,2,-2,2,-1,-3,4,-3
1576747531660166,-8,0,1,0,-1,-3,2,2
1576747531661062,0,-1,-2,-5,0,-3,-3,2
1576747531661062,2,-3,-1,-2,-2,0,-4,4
1576747531683033,-1,2,1,1,1,4,-1,4
1576747531683033,3,-2,-2,-1,-6,-1,0,5
1576747531684001,2,4,-1,0,-2,0,-1,-6
1576747531684001,-4,2,0,2,3,0,-2,1
1576747531696074,-3,-4,-6,-5,-7,-3,-2,-3
1576747531696074,0,-2,-2,-3,1,-1,1,1
1576747531704943,-4,-5,-3,-3,0,-1,1,0
1576747531704943,2,0,3,-3,0,-2,0,-1
1576747531719903,-5,-1,-1,2,1,-2,-6,2
1576747531719903,-6,-3,2,-1,-1,0,-2,-3
1576747531721901,2,-1,0,-1,-1,-2,-2,1
1576747531721901,1,1,-1,0,-2,-1,-3,-7
1576747531742842,-2,0,1,-1,0,-1,-2,-3
1576747531742842,1,-4,-3,-1,-1,-2,2,-3
1576747531743840,-4,1,-1,-2,1,-2,2,-5
1576747531743840,1,0,2,1,3,-2,2,2
1576747531755909,4,-2,2,-4,-2,0,-5,-1
1576747531755909,1,-3,-1,2,0,0,-4,-2
1576747531764832,4,2,0,-2,-1,-2,4,0
1576747531764832,-1,1,-2,0,2,1,1,2
1576747531779850,-1,-2,-5,0,-3,0,2,4
1576747531779850,2,3,-3,0,1,-3,1,7
1576747531781739,-5,-2,-6,1,2,-2,1,-3
1576747531781739,-1,1,-2,1,-3,-2,-1,-2
1576747531802681,1,0,-1,-3,-3,3,4,-6
1576747531802681,-4,1,3,-1,-6,2,-2,3
1576747531803684,2,-2,4,0,-4,1,-4,2
1576747531803684,-2,0,-1,-2,0,-1,-3,-5
1576747531815694,3,-2,3,2,2,-1,-5,-7
1576747531815694,-3,1,-5,-3,-1,-6,-2,-4
1576747531824743,2,-4,-4,-1,-4,0,0,3
1576747531824743,-8,-5,-2,1,0,1,-2,-2
1576747531839689,3,1,-1,-1,1,1,-1,7
1576747531839689,-1,-2,-2,0,-1,-3,0,-1
1576747531841579,1,-2,0,-1,-2,-2,4,-1
1576747531841579,-2,-2,0,-4,0,0,-4,-3
1576747531862624,-5,-1,-1,3,2,1,-1,-1
1576747531862624,1,1,1,1,1,3,-2,-6
1576747531864515,-6,-1,-1,-2,5,1,-5,-3
1576747531864515,2,-6,-1,0,-1,-3,0,-6
1576747531876605,0,4,-4,-1,-2,-3,3,1
1576747531876605,-1,-3,-1,4,-2,2,2,2
1576747531885511,-1,-1,-5,-1,-5,-8,1,2
1576747531885511,-4,2,1,0,-3,-1,-2,3
1576747531900469,2,-3,-3,2,-2,4,0,8
1576747531900469,1,-1,1,-3,-3,3,-4,2
1576747531901419,5,3,1,-1,-3,2,-4,-4
1576747531901419,-3,0,-1,-4,-5,-4,1,-7
1576747531922464,-3,-4,1,1,-1,-6,3,-1
1576747531922464,2,2,1,-2,4,-2,-2,2
1576747531924360,-2,-4,3,0,2,1,-1,4
1576747531924360,-1,-4,-3,-5,-2,-1,2,0
1576747531936323,6,2,0,-1,-2,0,-2,-2
1576747531936323,-6,0,-4,-1,-1,-2,-2,-4
1576747531945302,-4,2,1,-1,1,2,-3,-1
1576747531945302,4,1,2,-2,-3,0,-4,3
1576747531960372,0,0,-1,-3,1,0,-2,-6
1576747531960372,-2,-5,-3,0,2,0,0,-4
1576747531961258,-2,0,1,2,-1,-2,0,-2
1576747531961258,4,-1,0,0,-3,-3,3,-1
1576747531982304,-1,-2,-2,-1,-3,0,2,-4
1576747531982304,-2,-2,-1,-2,-1,-6,1,-4
1576747531984201,1,-1,-2,2,-3,-2,0,0
1576747531984201,-8,1,-3,5,3,2,0,6
1576747531996269,-2,1,-3,1,5,-3,0,1
1576747531996269,2,-5,0,-3,-2,-1,-1,-3
1576747532005142,3,2,-2,-2,0,1,-2,2
1576747532005142,3,2,1,0,2,2,-2,2
1576747532020102,-5,-1,1,-2,-1,1,-1,1
1576747532020102,-4,0,-2,-1,-3,1,1,-1
1576747532021100,5,0,5,-1,-1,-2,0,3
1576747532021100,-1,-3,0,0,-5,0,-2,2
1576747532042145,-7,-4,-6,-2,-1,-1,-2,-3
1576747532042145,0,-3,-2,0,2,-2,0,-4
1576747532044037,-7,-3,-8,-1,1,-1,-2,-4
1576747532044037,0,-3,-1,-1,-2,-1,2,-1
1576747532056104,-3,0,-4,-3,-3,-1,0,0
1576747532056104,1,-3,3,-4,-5,-4,-1,-2
1576747532064980,4,-1,1,-3,0,-1,0,-2
1576747532064980,-4,3,0,0,4,-2,-1,-4
1576747532079049,3,-1,1,-1,-1,-1,0,-2
1576747532079049,-3,-1,-4,-2,-1,-2,1,-4
1576747532085923,-1,-2,-1,-1,-1,1,-1,3
1576747532085923,-4,-5,-6,-5,-2,1,0,-1
1576747532102879,-1,1,4,0,-2,-5,-4,0
1576747532102879,-2,2,0,1,-2,3,-7,1
1576747532103878,-3,-1,-3,1,-3,5,0,-4
1576747532103878,6,-1,1,0,-3,1,2,1
1576747532115949,1,0,-2,-3,-2,-3,-1,1
1576747532115949,-1,2,-1,0,1,0,1,0
1576747532124866,-2,2,-4,-2,-3,-6,0,-6
1576747532124866,2,-4,3,-2,0,-2,0,-2
1576747532139885,1,-3,4,0,4,0,2,-1
1576747532139885,-1,-1,-2,-3,-1,2,-2,4
1576747532141780,-2,2,-1,5,2,5,-1,3
1576747532141780,-4,2,-3,1,2,1,-1,-1
1576747532162821,1,1,1,4,2,-1,-2,-4
1576747532162821,-1,-1,1,2,-2,-3,-1,0
1576747532163754,5,0,-2,-3,-3,-4,1,5
1576747532163754,4,0,1,-4,-3,-4,-2,4
1576747532184767,-2,0,0,-1,0,1,-4,3
1576747532184767,3,-1,0,-1,-2,-3,-1,-4
1576747532186656,-3,-2,1,0,3,-1,-3,-10
1576747532186656,-1,-2,-6,0,0,-3,4,-9
1576747532199724,-3,-1,0,-3,-5,0,2,-2
1576747532199724,-4,1,2,1,-1,1,1,9
1576747532201616,-1,1,4,-2,-2,1,2,8
1576747532201616,1,-2,-3,1,1,2,-3,-3
1576747532222665,3,-2,-2,2,-2,3,-3,-1
1576747532222665,3,0,-5,-2,2,4,-6,-4
1576747532224557,-6,-2,2,-2,0,-3,-3,3
1576747532224557,-4,-3,-3,2,0,2,1,3
1576747532244602,-2,1,1,0,2,0,0,0
1576747532244602,4,-3,-3,-2,0,-2,0,2
1576747532246495,5,1,-1,-3,-2,-3,-2,1
1576747532246495,6,0,4,1,-6,2,2,-4
1576747532260494,0,-2,-4,-3,-6,-2,4,-3
1576747532260494,-3,-1,-2,2,2,1,0,0
1576747532261456,-6,-3,-4,-2,1,-2,-2,-6
1576747532261456,-5,0,1,0,0,-5,-4,1
1576747532282501,-2,0,2,-4,2,-1,3,-1
1576747532282501,2,-3,1,-3,-4,-3,4,-4
1576747532284434,5,-4,-3,2,-1,-3,0,3
1576747532284434,-7,-1,-3,-4,-4,-4,0,2
1576747532305418,-3,1,2,1,2,4,-1,-2
1576747532305418,-5,-1,3,1,-1,0,1,0
1576747532306339,0,-3,-1,-3,-1,4,2,-4
1576747532306339,2,-2,-3,-1,2,-2,-3,-1
1576747532319299,3,-3,0,-6,-5,-5,-3,0
1576747532319299,-8,-1,-4,0,0,-6,-6,2
1576747532326287,-4,3,-1,1,-3,-2,-3,2
1576747532326287,2,1,2,0,-2,-2,-3,-3
1576747532342240,0,-5,-3,1,0,-2,-1,-3
1576747532342240,4,0,1,1,0,1,3,-3
1576747532344234,-4,-4,0,-1,-1,4,4,5
1576747532344234,1,5,-2,0,-3,0,0,1
1576747532365280,1,0,-6,-1,-3,2,-1,-4
1576747532365280,-3,1,-1,-4,-2,1,1,-1
1576747532366213,1,-1,3,1,0,0,-1,-7
1576747532366213,-3,1,2,0,3,-2,2,-1
1576747532379245,0,-2,1,3,1,-3,-2,-2
1576747532379245,7,1,-3,-1,-4,0,-2,0
1576747532386122,-2,-3,-3,1,-1,-1,-3,-3
1576747532386122,-6,-2,-2,-2,-6,-1,-4,1
1576747532402186,-5,3,-2,-2,-1,-5,4,0
1576747532402186,-3,-4,-1,0,-1,-2,2,2
1576747532404074,2,-1,-6,-5,-3,-3,5,2
1576747532404074,6,-1,0,-1,5,5,1,1
1576747532425120,-3,0,0,-2,1,0,-2,-7
1576747532425120,4,-1,1,3,-2,1,-3,-5
1576747532427010,-5,-1,0,0,-3,0,-2,-2
1576747532427010,-4,0,-6,-5,-2,-2,-4,-2
1576747532438980,-1,-5,0,5,2,0,1,-3
1576747532438980,7,-1,3,1,0,-2,0,-2
1576747532446067,3,0,2,-6,-4,-6,-4,-7
1576747532446067,-12,2,-2,0,-3,-3,-1,3
1576747532462964,-3,-1,3,-1,0,-3,-5,4
1576747532462964,1,2,-4,0,2,-1,0,2
1576747532463915,-2,0,1,0,2,1,0,2
1576747532463915,4,-5,0,-3,-6,0,0,-5
1576747532484960,8,-3,-3,-2,-2,2,2,1
1576747532484960,-4,2,-5,0,1,0,-1,-1
1576747532486891,3,-3,0,-1,-1,3,0,-4
1576747532486891,2,0,0,-1,-1,0,3,-5
1576747532499869,-5,-1,-4,-3,2,2,-1,4
1576747532499869,-5,-2,3,-3,-2,-2,-4,-1
1576747532505903,-5,-1,1,1,0,-2,-5,-1
1576747532505903,2,0,1,4,4,-3,2,3
1576747532522877,0,-1,0,1,-3,-2,1,-2
1576747532522877,-1,-3,-4,-3,-2,0,0,1
1576747532523753,0,2,-3,-3,-1,0,-2,-1
1576747532523753,1,-1,-3,-1,2,-3,-2,-1
1576747532544800,-2,4,-2,-2,-2,0,-2,5
1576747532544800,0,-1,-3,-1,1,-2,1,-1
1576747532546691,-3,-4,1,4,1,0,5,1
1576747532546691,-1,2,2,1,-2,0,-3,1
1576747532559659,-8,-2,-3,1,-3,0,-6,-1
1576747532559659,-4,-1,1,-5,-1,-1,-3,-4
1576747532566669,0,-3,-2,-2,0,-3,-2,5
1576747532566669,-1,1,2,0,1,-2,-2,3
1576747532582698,0,-1,1,0,-1,-4,1,-1
1576747532582698,0,0,6,0,1,-2,0,1
1576747532583635,5,3,-4,-3,1,-2,5,0
1576747532583635,0,0,-4,-1,0,3,0,-6
1576747532605534,2,2,-3,-1,-7,2,-2,-5
1576747532605534,-2,-2,-2,0,-1,1,2,-1
1576747532606533,-2,1,-2,-5,3,-2,-2,1
1576747532606533,0,-3,0,2,1,-1,-1,1
1576747532619496,-3,-1,1,-3,1,2,-2,-3
1576747532619496,3,2,-1,2,-4,2,-4,0
1576747532626600,-5,0,-2,3,-2,5,0,-5
1576747532626600,-3,-4,-2,-3,1,-2,-3,-2
1576747532642541,0,-1,2,-1,0,-1,-5,8
1576747532642541,-1,0,3,-1,-4,-1,-4,0
1576747532644434,-1,-5,2,1,0,-3,-3,-1
1576747532644434,-6,-1,2,-5,-2,0,3,-1
1576747532665444,4,-1,-2,-3,1,-2,4,-2
1576747532665444,-1,1,-2,-2,-1,1,0,-7
1576747532666374,-2,1,0,2,-3,-1,0,-4
1576747532666374,-5,-2,-3,2,-2,1,2,5
1576747532678444,-2,1,0,-1,-2,0,1,1
1576747532678444,-5,-4,-3,-3,-1,1,3,0
1576747532687314,-4,2,-1,-3,-5,-2,-1,0
1576747532687314,1,-3,2,0,-1,-2,-4,-3
1576747532702323,-1,0,-1,1,-2,-4,-2,-7
1576747532702323,8,3,3,-2,-1,-6,-5,1
1576747532704273,0,-3,-3,3,1,-2,-6,-1
1576747532704273,0,-2,-3,-2,-2,-1,0,-3
1576747532725316,-10,-1,-1,-2,3,-1,0,-3
1576747532725316,-6,-4,0,-3,-1,-1,-1,0
1576747532726210,5,-1,5,0,2,1,-5,3
1576747532726210,1,5,-1,-1,-3,0,-1,1
1576747532739177,1,-3,-4,0,-1,2,1,5
1576747532739177,-4,0,3,-2,1,1,2,0
1576747532748153,0,2,-1,-1,3,-1,-1,0
1576747532748153,-4,-3,-5,0,-2,-1,-1,-8
1576747532762216,1,0,-4,1,-3,-1,-2,-1
1576747532762216,-9,-3,-4,2,-3,0,1,0
1576747532764112,-2,-2,-6,-4,-7,0,-4,3
1576747532764112,3,-5,-2,0,1,-1,1,-3
1576747532785157,2,-3,0,-4,-2,-5,0,-5
1576747532785157,-1,0,1,3,0,-2,1,1
1576747532787052,-3,-1,2,1,2,2,3,2
1576747532787052,3,0,5,1,1,-1,1,1
1576747532799079,4,-3,-2,-3,-2,-1,2,2
1576747532799079,-2,-4,-4,0,0,-1,0,-4
1576747532807996,-1,3,-1,-2,-2,-5,-6,-4
1576747532807996,-1,-2,-1,0,-3,0,-3,0
1576747532823002,4,4,2,-1,-1,-4,2,-3
1576747532823002,-4,0,1,-1,-1,-3,2,-4
1576747532823952,0,1,-3,-1,1,-2,-1,0
1576747532823952,-8,0,0,1,1,0,-1,-3
1576747532845000,-2,2,1,1,-3,2,-4,-1
1576747532845000,2,-2,0,0,-3,3,-4,1
1576747532846889,0,-5,0,-4,-3,4,2,-1
1576747532846889,0,-2,-3,-4,-2,-3,-2,4
1576747532858904,-6,-3,-2,1,2,1,-3,-2
1576747532858904,3,0,-4,-2,2,-1,-1,-3
1576747532867833,3,-2,-2,-1,-1,-2,-2,5
1576747532867833,-1,-2,-2,-1,1,1,-2,6
1576747532882910,-6,1,0,-3,0,3,0,1
1576747532882910,2,-2,-2,1,-3,-6,-1,-3
1576747532883789,2,-3,2,1,-4,0,-2,-8
1576747532883789,3,-1,1,-1,0,-3,-1,-2
1576747532904837,2,0,-1,1,0,-3,-1,4
1576747532904837,-2,3,-2,-1,-1,0,0,6
1576747532906731,3,5,-1,0,-2,0,5,-4
1576747532906731,4,2,1,1,-4,1,5,-1
1576747532918802,3,-1,1,-1,-5,-1,-1,0
1576747532918802,0,-1,0,-3,-1,-2,-1,0
1576747532927675,-4,-3,-2,0,-1,-3,-3,0
1576747532927675,-5,-3,0,-2,0,0,-8,-1
1576747532942639,-5,-5,2,-1,-1,0,0,-6
1576747532942639,-6,-1,0,0,1,2,-1,-1
1576747532943665,-1,1,-1,-4,-2,-1,1,1
1576747532943665,7,2,1,-1,2,-4,1,-1
1576747532965572,-2,-2,-3,-1,-1,-5,0,-6
1576747532965572,0,1,-3,2,-4,1,-3,3
1576747532966573,0,-2,2,0,0,0,-1,-3
1576747532966573,-6,1,-3,3,-1,1,-1,-4
1576747532978647,-4,-4,-4,-2,-1,-1,-4,3
1576747532978647,3,-2,1,1,-1,-1,-2,-1
1576747532987515,-3,1,-1,0,1,1,-3,2
1576747532987515,-2,3,1,-5,1,3,-3,-3
1576747533002473,-1,0,-2,-2,2,1,-7,-3
1576747533002473,2,-4,0,-1,-1,1,0,-2
1576747533004472,-1,-2,2,0,-6,-3,3,0
1576747533004472,5,-1,-1,-4,-6,-2,0,1
1576747533025410,2,0,-5,4,0,0,6,1
1576747533025410,-6,-1,-2,-3,0,-3,-1,0
1576747533026410,8,-1,3,-4,-1,-3,0,-4
1576747533026410,-2,-3,0,4,-1,2,0,-3
1576747533047361,-3,3,-3,1,1,1,-2,0
1576747533047361,1,-1,-3,-4,-3,-3,-1,3
1576747533049352,-1,0,-4,-3,2,1,-1,5
1576747533049352,-7,-3,-3,-6,-1,-3,-2,-4
1576747533062419,4,2,2,-2,1,-1,3,1
1576747533062419,-3,3,3,4,2,2,-3,-5
1576747533064309,-3,-2,0,2,-2,-1,-7,-4
1576747533064309,-2,-1,-5,7,0,0,-4,6
1576747533085352,-4,-3,-2,-2,-3,-4,-7,3
1576747533085352,3,-1,-3,-3,1,-2,-4,-3
1576747533086253,5,-2,-4,-2,1,-1,3,-3
1576747533086253,6,0,0,-2,-2,-4,3,-3
1576747533107295,-2,-1,2,1,-5,1,2,-7
1576747533107295,1,-1,-3,-2,-2,-2,1,-1
1576747533109193,-2,1,0,2,0,2,2,0
1576747533109193,-4,-1,-1,-2,2,3,2,6
1576747533122255,-1,1,-2,-3,5,2,1,7
1576747533122255,-1,-2,1,-1,0,-1,2,-4
1576747533124153,-7,0,1,0,-4,-4,2,-5
1576747533124153,1,0,2,-2,-2,-4,2,-9
1576747533145195,3,-2,0,2,1,1,2,-3
1576747533145195,1,-3,4,4,0,-3,-1,4
1576747533146134,0,0,-2,0,-1,4,-2,9
1576747533146134,-8,-3,3,0,0,-1,-4,1
1576747533168029,3,-3,-6,-3,-1,-1,-4,-6
1576747533168029,5,2,-7,-3,2,-1,-1,0
1576747533169028,-3,-1,-4,-1,-3,-7,-5,-8
1576747533169028,-5,1,-3,0,-5,1,-3,-1
1576747533181995,0,-3,1,0,1,2,-2,-1
1576747533181995,5,2,1,-2,-1,-2,1,-2
1576747533183987,0,-2,0,-2,1,-1,2,2
1576747533183987,2,-1,1,-2,0,2,0,2
1576747533205036,-6,0,1,3,-2,0,2,1
1576747533205036,-8,-5,0,-2,-1,2,3,-7
1576747533206930,-9,-3,2,0,1,-1,-4,-5
1576747533206930,5,-3,-4,-1,3,-4,-4,2
1576747533227964,3,2,1,-3,-1,1,1,2
1576747533227964,-1,-2,-1,-2,-3,2,0,-2
1576747533228867,1,2,-4,-2,-7,-1,4,-5
1576747533228867,0,0,1,-2,-5,-3,-2,-6
1576747533241939,0,1,1,-1,0,-4,0,6
1576747533241939,1,3,-3,0,0,-4,-1,2
1576747533248919,2,-1,-4,2,3,-2,1,2
1576747533248919,-1,-3,-2,-1,-1,-2,0,-3
1576747533264876,-5,-3,-3,-3,-1,2,-1,-2
1576747533264876,-2,-1,0,0,-4,5,-3,-1
1576747533266768,5,4,-2,-1,-2,1,-3,2
1576747533266768,7,2,-6,1,4,-3,-1,0
1576747533287813,-4,-3,-4,-3,-2,-5,-1,0
1576747533287813,-9,-1,2,-1,-2,-3,0,2
1576747533288740,-2,-2,4,-5,-3,-3,-1,-3
1576747533288740,-5,-2,5,-2,-5,3,0,-5
1576747533301778,5,3,6,0,-2,0,4,-5
1576747533301778,-1,-1,-3,-2,1,-2,0,-1
1576747533308656,-4,-1,3,2,1,2,-2,3
1576747533308656,-1,1,0,-2,-2,-2,3,4
1576747533324714,7,1,-1,2,2,-5,-3,4
1576747533324714,-1,-1,-3,-3,-4,-3,-4,-4
1576747533326607,5,-4,-2,1,-1,-6,0,-7
1576747533326607,-4,-4,-5,-1,1,-1,-2,-3
1576747533347656,-4,-1,-1,-3,-1,-4,-2,-3
1576747533347656,0,0,6,-1,-1,-1,0,0
1576747533349544,0,0,1,-3,0,2,-4,5
1576747533349544,-4,0,-4,0,0,1,0,0
1576747533361615,-5,-3,-8,-2,0,-3,-4,-4
1576747533361615,3,2,3,1,4,2,2,0
1576747533368600,-4,-2,-5,0,-1,-1,-1,-5
1576747533368600,2,3,4,-4,-5,2,3,1
1576747533385495,-1,1,1,-1,-3,2,1,-6
1576747533385495,0,-2,-3,-5,-2,-2,-1,4
1576747533386449,1,-1,2,-3,-2,-2,-1,-1
1576747533386449,-3,-3,1,2,3,-5,0,-2
1576747533407493,-4,1,3,1,3,1,-3,-2
1576747533407493,3,-1,0,3,-4,3,-2,-3
1576747533409386,-5,-3,-3,1,1,0,-3,0
1576747533409386,7,-2,-5,1,-1,1,-5,1
1576747533422363,-5,0,1,0,-5,0,-1,0
1576747533422363,-3,-1,-2,0,-2,-1,2,3
1576747533428335,2,0,0,1,-2,-1,1,3
1576747533428335,0,-2,-3,-2,-1,-1,0,0
1576747533445404,-6,-2,0,-1,2,0,-2,0
1576747533445404,-3,0,-2,-1,4,0,0,2
1576747533446285,2,0,-4,-2,-1,0,1,-3
1576747533446285,-4,-5,0,-3,-2,-1,-6,-6
1576747533467331,-1,0,-2,-7,-4,-1,-4,-4
1576747533467331,-6,0,0,0,0,-3,0,-1
1576747533469225,-3,3,5,0,0,-2,0,0
1576747533469225,2,-1,1,2,1,-2,4,-1
1576747533482293,4,-2,-2,1,0,-3,0,2
1576747533482293,1,2,-2,-1,1,-3,-1,-1
1576747533489170,-4,2,-4,1,-1,3,1,3
1576747533489170,-4,1,0,-1,-2,-1,-1,0
1576747533505227,2,-3,2,1,-2,1,0,-2
1576747533505227,-5,1,0,1,0,1,4,-3
1576747533506128,0,-4,4,0,0,-1,-2,-2
1576747533506128,-4,0,-2,-1,-1,-2,-4,2
1576747533527173,2,-1,-7,2,0,3,-2,-4
1576747533527173,4,-3,-4,-4,0,1,-2,-1
1576747533529066,-4,-1,-3,-1,5,1,0,0
1576747533529066,-3,-4,-1,-1,-1,-1,0,-2
1576747533541139,-5,-4,3,-1,-5,-3,0,-6
1576747533541139,-9,-6,0,-2,-3,0,-9,-5
1576747533550009,-5,4,0,-3,-6,3,-1,-2
1576747533550009,7,-2,1,-1,-2,-2,0,2
1576747533565074,-2,-1,3,1,-1,-7,-1,-1
1576747533565074,0,-3,-4,0,-6,-3,0,1
1576747533566961,3,-2,0,-2,-3,-6,1,0
1576747533566961,-3,0,-2,4,1,4,3,0
1576747533587954,2,2,-5,-3,3,2,3,2
1576747533587954,1,1,3,0,1,-1,3,1
1576747533588911,2,-1,-2,-2,0,-2,2,1
1576747533588911,2,3,-1,-2,-2,3,-1,1
1576747533600975,-4,-3,-4,-4,-6,-5,-5,6
1576747533600975,0,0,-2,-1,-1,4,-2,-5
1576747533609867,-2,-7,3,-1,-4,-2,-3,-6
1576747533609867,1,3,1,-1,1,-5,-1,-10
1576747533632905,-4,2,-2,2,-1,0,-1,2
1576747533632905,2,-3,0,-1,3,-3,-2,4
1576747533633783,0,-1,1,1,4,2,-3,1
1576747533633783,1,-3,4,0,-1,0,-3,1
1576747533647869,-6,-1,-1,0,-3,2,1,0
1576747533647869,4,-3,-3,-1,-6,2,5,6
1576747533648744,-6,-3,-5,1,-1,2,1,-2
1576747533648744,0,0,-4,1,-1,2,-3,-4
1576747533661710,3,2,-4,1,2,-3,-1,-7
1576747533661710,2,-1,3,-1,1,-3,-2,-3
1576747533669691,1,-1,0,-3,1,-2,-2,3
1576747533669691,-2,-1,-7,-2,-3,0,4,6
1576747533684753,0,-2,3,1,-5,-2,3,2
1576747533684753,0,4,-3,-1,-7,-4,-2,-5
1576747533686649,4,2,0,-1,-3,-3,-7,-2
1576747533686649,-2,-1,1,-3,0,0,-3,-1
1576747533707688,5,0,-1,-1,5,1,-3,-3
1576747533707688,-6,0,2,5,6,0,-2,-5
1576747533709581,-3,-2,-3,-1,0,-3,-5,-1
1576747533709581,1,1,-2,-1,-3,-1,-11,3
1576747533721591,0,1,5,-3,-2,1,-4,6
1576747533721591,4,2,0,1,-2,3,-5,1
1576747533730561,1,-3,2,2,1,2,3,-3
1576747533730561,-4,-1,2,-3,2,-2,5,1
1576747533745513,2,-3,5,0,-2,-2,3,0
1576747533745513,-4,0,-3,-4,2,-3,1,2
1576747533746485,4,-2,0,3,-3,3,4,4
1576747533746485,-2,-2,-2,-5,-2,4,-1,-1
1576747533767533,-4,-3,2,-4,0,2,1,-3
1576747533767533,-1,0,-3,-1,-4,0,2,-7
1576747533769457,-4,1,-1,-3,-2,-4,-2,-10
1576747533769457,-4,-4,-5,-2,3,-2,0,-7
1576747533781493,2,-2,-2,-1,2,2,-1,3
1576747533781493,-1,-1,3,1,3,-3,1,1
1576747533790371,5,0,4,2,0,3,1,1
1576747533790371,-2,-1,-1,0,-3,0,3,-2
1576747533805447,-1,-2,-4,1,-1,2,-2,-3
1576747533805447,1,2,-2,0,-2,1,0,3
1576747533806324,-6,2,-6,1,-2,-3,-1,-1
1576747533806324,-8,-3,2,-1,-4,-3,4,4
1576747533827368,3,1,2,0,-2,-6,-1,5
1576747533827368,-4,-5,2,-2,0,-3,-4,-4
1576747533829266,1,2,-1,-1,-2,1,-2,-5
1576747533829266,2,3,-5,-3,-2,-3,-5,-2
1576747533841332,3,-1,-1,-3,0,-1,0,-5
1576747533841332,-4,-1,1,1,2,1,1,4
1576747533850213,-4,-4,-3,0,5,0,0,-2
1576747533850213,0,-1,-6,1,-3,-3,-1,-2
1576747533865269,-1,-2,-2,-1,-4,1,-1,-7
1576747533865269,7,0,4,-3,-5,2,-1,-2
1576747533866198,-7,-3,0,-2,-1,0,1,0
1576747533866198,-4,0,-1,1,2,2,0,5
1576747533887111,-5,-1,-4,6,1,-3,1,0
1576747533887111,-2,-5,-3,-3,-3,-6,0,0
1576747533889124,6,2,-3,-2,-3,-6,0,2
1576747533889124,-1,5,1,0,-1,-5,0,-1
1576747533901173,-3,3,-1,-1,2,2,0,-1
1576747533901173,-5,-2,-8,-1,-1,3,0,-4
1576747533910049,2,-1,-3,-1,-1,1,-1,-5
1576747533910049,6,-6,-3,-4,0,2,-5,4
1576747533925008,7,0,1,-3,-2,-3,-2,6
1576747533925008,-3,1,1,-1,-4,0,-2,5
1576747533927001,-3,3,4,-3,-4,-1,0,0
1576747533927001,-8,0,2,0,0,-6,0,-8
1576747533947994,0,0,0,-3,0,2,-3,-7
1576747533947994,3,-1,1,-1,1,-2,-6,-6
1576747533948944,2,-5,-3,-4,0,1,-3,-3
1576747533948944,3,-3,2,0,-3,0,-2,2
1576747533961013,-2,-2,-1,2,3,-2,2,8
1576747533961013,-3,1,-6,0,-1,-6,1,1
1576747533969885,-2,-3,0,-1,-4,-2,2,0
1576747533969885,3,-1,3,-4,-2,-1,6,2
1576747533984949,-1,0,-1,-5,-3,-4,2,-8
1576747533984949,6,-1,-1,1,-1,-1,3,0
1576747533986845,-4,-1,-3,0,2,-3,-3,-1
1576747533986845,1,-1,-2,2,2,-1,-8,-2
1576747534007901,3,0,1,-2,-3,1,-6,9
1576747534007901,1,2,-7,0,-2,0,-1,5
1576747534008782,-1,-2,0,0,0,1,-1,0
1576747534008782,1,0,1,-1,-3,-1,2,-3
1576747534029828,-5,-2,-3,2,2,1,2,-11
1576747534029828,1,-3,1,4,-3,0,-2,-5
1576747534031724,-4,0,-2,-2,-3,-3,2,5
1576747534031724,-8,-2,-1,-2,0,-1,1,-7
1576747534044789,-4,0,-3,1,1,-5,0,-4
1576747534044789,-1,-6,0,-2,1,-3,0,-6
1576747534046682,1,-1,-2,0,-2,1,-2,-4
1576747534046682,-1,2,2,0,1,3,-3,-2
1576747534067730,-1,1,-3,-3,0,2,-1,1
1576747534067730,-1,2,-1,0,-3,-1,-4,2
1576747534068657,3,-3,-1,1,-4,-8,-2,1
1576747534068657,1,0,0,2,-1,-4,-2,2
1576747534090563,1,0,0,-3,4,-5,2,2
1576747534090563,-2,-1,5,0,6,1,5,4
1576747534091562,-3,-1,-5,2,2,3,1,4
1576747534091562,6,-2,-4,0,-3,0,0,-1
1576747534105545,-2,-1,-4,0,-6,0,-3,-4
1576747534105545,-3,-2,0,-2,-7,-2,-2,-10
1576747534106523,-3,-1,1,-1,4,-1,-1,-3
1576747534106523,1,3,-1,-3,-3,-1,-2,2
1576747534127575,-10,-3,-1,0,-4,-2,-2,1
1576747534127575,-2,1,0,-3,-1,0,3,-1
1576747534129467,2,0,1,0,-1,0,-1,-4
1576747534129467,1,0,2,3,6,0,1,-1
1576747534150494,1,-2,-1,-3,-6,-1,-4,-1
1576747534150494,-2,-1,0,-2,0,-2,-6,2
1576747534151399,-2,0,-3,3,1,-1,-1,3
1576747534151399,0,-1,-1,-2,0,1,1,1
1576747534165484,3,-3,2,3,1,0,0,1
1576747534165484,-5,-2,-4,-1,-2,-2,-2,-1
1576747534166360,4,-3,0,-5,-3,-4,-4,-3
1576747534166360,-4,1,-2,1,-3,-2,-2,-1
1576747534187410,-5,3,2,0,-4,6,-1,-5
1576747534187410,4,2,5,1,-1,4,-3,-3
1576747534189303,1,0,0,-1,0,-2,-2,0
1576747534189303,-4,-2,-8,-2,1,-5,-1,-3
1576747534210348,-1,-2,-3,3,1,-3,-1,-4
1576747534210348,-3,-1,-5,-3,1,-2,0,-2
1576747534211271,3,0,-1,-1,5,-3,3,2
1576747534211271,0,0,1,-4,0,1,1,-2
1576747534224309,-2,-3,1,-3,-1,-3,3,0
1576747534224309,-2,-1,2,-2,-5,3,0,2
1576747534231294,-5,-2,1,1,-8,4,-2,4
1576747534231294,1,0,1,2,-5,1,-2,-3
1576747534247250,0,-1,-4,0,-2,-3,0,4
1576747534247250,-1,-2,1,0,1,-5,0,-3
1576747534249183,0,-1,3,-6,-2,-4,1,-2
1576747534249183,-3,-1,-2,-1,3,2,3,2
1576747534270084,-3,0,0,-1,0,3,0,-3
1576747534270084,-4,-1,-4,0,-3,1,-1,-2
1576747534271083,-1,-2,-6,-2,-2,1,1,-6
1576747534271083,-2,-1,2,3,0,-2,-3,2
1576747534284148,4,0,0,2,-1,-5,-2,4
1576747534284148,1,-1,-3,0,2,-1,-2,3
1576747534291132,-2,3,-1,-6,-1,-1,-3,-6
1576747534291132,-8,-2,-5,-3,-1,-2,-4,-2
1576747534308028,-6,4,0,-2,-3,-3,-4,-2
1576747534308028,1,4,-1,-1,-4,0,-1,-1
1576747534308981,-2,-1,-2,1,-1,2,3,-5
1576747534308981,1,-2,2,2,1,1,4,-2
1576747534330027,3,2,0,-1,2,-3,5,-2
1576747534330027,2,-4,3,-2,0,-1,0,1
1576747534331963,2,-4,1,1,0,0,-2,1
1576747534331963,3,-3,-4,0,-3,0,-3,3
1576747534344883,4,-7,-1,-2,0,-1,-2,-2
1576747534344883,-1,-2,-4,1,1,0,0,0
1576747534350970,-5,-1,-3,-1,-1,1,-1,-1
1576747534350970,-6,0,4,-1,-3,-2,-1,-1
1576747534367942,-3,0,-2,-2,2,0,-1,0
1576747534367942,-3,-1,-1,-4,0,-1,1,-1
1576747534368820,2,-2,4,1,-1,-2,0,-1
1576747534368820,-8,-1,-7,0,-6,-3,-2,-3
1576747534389868,4,-1,-4,0,-5,-2,3,-6
1576747534389868,0,-2,0,-2,-3,-3,-1,-1
1576747534391763,-1,4,1,1,-3,1,2,4
1576747534391763,-1,-4,-1,-4,4,-3,-2,2
1576747534404787,-5,-1,-3,0,1,0,-1,3
1576747534404787,3,-2,-3,-1,1,2,-1,-4
1576747534411704,7,1,3,0,-1,-2,-7,1
1576747534411704,4,-2,2,-3,-1,-1,-1,-6
1576747534427764,-2,-2,-1,-1,-3,1,-4,-2
1576747534427764,-6,0,3,2,0,1,-1,1
1576747534428694,-2,-1,-5,0,1,0,2,5
1576747534428694,5,-1,3,-2,-1,-1,1,-1
1576747534450601,-8,-3,-2,-6,-1,-1,-6,-2
1576747534450601,6,-3,2,-1,-3,2,0,3
1576747534451603,-5,0,-1,-3,0,-2,-1,1
1576747534451603,-2,2,-3,-2,1,-2,-3,2
1576747534464669,-3,5,1,1,-2,-1,-2,-2
1576747534464669,-5,-1,-3,0,1,-3,-4,-1
1576747534471567,0,-1,-5,-2,-2,-3,-1,-2
1576747534471567,7,-1,5,0,-4,-3,0,-6
1576747534487605,0,0,-2,-1,-3,-4,0,-2
1576747534487605,-3,-1,-4,0,-2,-2,0,5
1576747534489500,1,1,0,-1,0,1,0,-5
1576747534489500,-2,-1,-1,0,2,2,1,-5
1576747534510491,2,-1,-1,1,1,2,3,-2
1576747534510491,0,0,-3,2,1,3,-1,2
1576747534511437,-5,-2,-1,-1,-2,-2,-2,-3
1576747534511437,-1,-2,1,-3,-3,1,-1,-4
1576747534523510,0,-3,-2,0,-5,-3,1,3
1576747534523510,-6,1,-3,-2,-1,-1,1,-3
1576747534532429,3,1,0,0,2,-2,-1,6
1576747534532429,-2,-1,0,3,4,-2,0,2
1576747534547444,-4,0,4,-2,2,-4,4,-3
1576747534547444,-3,-2,1,-3,0,-1,0,-2
1576747534549338,-6,-4,0,0,-5,5,-2,-3
1576747534549338,-8,0,-6,-2,-7,-1,-4,-3
1576747534570280,-3,-2,-4,-2,-2,0,-5,-4
1576747534570280,3,2,0,1,0,-4,-4,3
1576747534571277,5,0,-6,3,2,-1,0,0
1576747534571277,8,-1,-2,-1,-1,0,0,5
1576747534584243,-2,-1,3,-2,1,4,2,1
1576747534584243,-1,2,-3,-5,-4,-2,1,-4
1576747534592223,-5,-1,-6,-3,1,-2,1,-6
1576747534592223,-4,-1,-2,0,1,0,0,-1
1576747534607284,1,-2,-3,-1,3,0,-5,2
1576747534607284,-1,-3,5,-2,0,-1,-1,-3
1576747534609188,3,-3,5,1,-2,-5,-3,2
1576747534609188,-4,-4,-3,-1,-1,-4,2,2
1576747534630219,1,0,-3,1,-4,-3,1,2
1576747534630219,-1,-3,-4,1,-3,1,1,-9
1576747534631153,0,4,-1,-3,-4,-1,2,1
1576747534631153,2,1,-1,-1,-2,0,1,0
1576747534644083,-5,0,-4,0,2,3,-1,-1
1576747534644083,-2,-1,3,-1,0,-2,-2,4
1576747534653063,2,-2,8,0,0,0,0,-2
1576747534653063,0,-1,1,-2,0,0,-1,-1
1576747534668018,-7,1,-3,2,2,-5,0,0
1576747534668018,-2,-1,1,-1,-1,-4,-2,-1
1576747534669016,-5,-2,-3,-2,1,2,-3,-3
1576747534669016,6,-1,-1,0,1,3,-3,4
1576747534690065,5,1,-3,-3,-3,2,-5,-4
1576747534690065,2,-1,0,2,0,-2,-1,-3
1576747534691959,1,-1,2,-2,-6,-4,4,7
1576747534691959,-5,1,2,0,-2,-2,3,7
1576747534704029,2,-1,-1,-1,-3,-5,4,-7
1576747534704029,-2,1,-1,-1,-3,0,1,2
1576747534712944,-1,2,1,4,3,2,0,-2
1576747534712944,-5,-3,-5,0,1,0,-2,-4
1576747534727965,3,-1,2,-2,0,2,-3,4
1576747534727965,-3,0,-8,-1,0,-2,-1,1
1576747534728855,-4,-2,-2,-3,-1,-1,-3,2
1576747534728855,-6,-5,-3,-2,-3,0,-3,-1
1576747534749903,2,0,5,2,2,-1,-2,-2
1576747534749903,4,1,-2,-2,-2,-2,-3,0
1576747534751796,1,-6,-2,-2,-4,-3,-2,-4
1576747534751796,-3,0,2,4,5,1,-1,-4
1576747534763763,0,-1,-1,0,-4,2,-2,0
1576747534763763,-2,-4,-2,-4,-3,1,-3,2
1576747534772740,-4,-4,-3,0,1,-1,-1,0
1576747534772740,4,4,4,0,1,-1,0,-3
1576747534787807,-1,-3,0,-3,-1,-2,2,4
1576747534787807,-3,0,-1,2,1,0,-1,-4
1576747534788699,2,-1,-2,0,-2,0,-1,-1
1576747534788699,0,-1,-5,-3,-1,-2,1,-2
1576747534810638,-6,-1,-6,-1,2,2,-1,7
1576747534810638,-1,-1,-3,-1,2,2,1,2
1576747534811637,-8,-2,0,-1,-2,2,4,-7
1576747534811637,-8,1,0,0,-1,-1,-4,-7
1576747534823709,5,0,0,-2,-2,-3,0,-2
1576747534823709,0,1,0,0,-7,-3,-1,-1
1576747534832579,-1,1,-1,-5,-2,-5,-2,-4
1576747534832579,-1,-2,-2,0,-4,-2,-2,0
1576747534847645,-5,0,1,1,-1,-3,1,3
1576747534847645,0,-1,1,1,3,0,3,1
1576747534849535,-3,-3,2,1,2,6,1,1
1576747534849535,10,-1,1,0,1,-1,-2,-1
1576747534870477,-3,1,2,0,0,1,-6,-7
1576747534870477,-5,-2,-2,1,0,-2,2,-1
1576747534871476,-2,-2,-6,1,-1,-1,0,-2
1576747534871476,1,1,-4,-2,-4,-2,-2,2
1576747534883550,0,-3,-2,-1,-7,-3,-3,1
1576747534883550,-2,1,1,-3,0,1,-3,-3
1576747534892446,0,-3,3,-4,2,-2,-3,1
1576747534892446,-12,-2,0,-3,2,2,-1,2
1576747534907486,-3,-2,1,0,0,-2,-1,-1
1576747534907486,0,-1,-3,-2,0,-2,-2,-6
1576747534909379,6,-1,-2,3,-1,-2,-1,-2
1576747534909379,-1,-1,-7,-2,-1,-3,1,-2
1576747534930441,0,-1,-3,1,2,0,2,4
1576747534930441,-5,-4,1,2,0,2,1,4
1576747534931315,3,0,3,-1,-4,-1,3,-1
1576747534931315,-8,-1,-1,-1,-3,-5,5,-9
1576747534952259,-4,-1,-4,0,2,4,1,-2
1576747534952259,-1,-2,2,-2,-1,-3,-3,3
1576747534954258,2,-2,-3,-3,1,0,-1,1
1576747534954258,5,1,-4,0,2,4,1,-1
1576747534967321,-2,-3,-1,-2,-1,-2,0,-7
1576747534967321,2,-1,2,-2,-1,0,-3,-9
1576747534969222,-3,3,-2,1,-4,-6,-6,-3
1576747534969222,10,1,0,2,1,-1,-1,9
1576747534990260,0,-1,0,-2,1,-2,1,0
1576747534990260,3,-2,0,1,0,1,3,-3
1576747534991201,-5,3,-2,-2,-2,1,2,1
1576747534991201,2,-1,1,-4,0,-1,-2,3
1576747535012199,2,0,0,-3,1,-1,-3,2
1576747535012199,-4,-5,-7,-2,-2,-2,-5,4
1576747535014094,-2,-2,-5,1,-1,2,-4,-5
1576747535014094,-6,-2,-4,4,-2,0,-2,-4
1576747535028057,-5,-1,0,2,-2,0,5,-1
1576747535028057,0,0,1,1,0,0,4,-8
1576747535029057,0,3,1,-1,-2,-6,-1,3
1576747535029057,0,-2,7,-3,-4,-3,1,-1
1576747535050100,1,-4,5,-6,-2,0,-2,-4
1576747535050100,3,2,0,-2,2,-2,-4,0
1576747535051992,3,-2,-3,-1,0,-4,-4,4
1576747535051992,0,-1,2,2,2,0,-2,-1
1576747535072986,-1,1,-2,1,0,1,0,0
1576747535072986,-2,-1,-1,0,0,5,0,2
1576747535073936,-7,-1,1,0,-4,3,-3,-3
1576747535073936,-7,0,-3,-3,-6,1,0,-1
1576747535087968,2,0,-7,-1,-1,0,1,1
1576747535087968,10,-1,-2,-2,3,-1,3,-1
1576747535088896,1,-2,-4,-3,2,-6,0,-3
1576747535088896,2,-2,-1,1,1,-1,-4,-5
1576747535109940,-7,0,-2,5,3,-2,-5,-1
1576747535109940,-1,3,2,1,-4,-5,1,7
1576747535111834,-5,-2,1,-1,-1,1,-1,0
1576747535111834,-5,-1,-1,-2,-1,-4,0,-5
1576747535132893,1,-2,3,-1,-3,-1,-3,-2
1576747535132893,-1,-2,-2,-3,-3,-2,-6,-2
1576747535133790,4,3,1,3,0,2,3,2
1576747535133790,-2,0,-4,0,0,0,0,1
1576747535146842,2,-4,1,0,-5,-2,1,2
1576747535146842,0,-2,-1,-2,-2,-3,-2,-5
1576747535153764,5,-3,2,-1,3,-1,0,-1
1576747535153764,-2,2,-8,-2,1,0,-4,4
1576747535169731,-3,0,0,-4,0,1,0,2
1576747535169731,-3,-1,-2,0,1,4,1,-1
1576747535171677,-3,-1,-3,-1,1,1,-1,0
1576747535171677,6,-3,4,-2,0,-2,0,-1
1576747535192722,0,-3,-1,-4,-2,-6,3,2
1576747535192722,-2,-1,-4,0,-3,-3,-1,3
1576747535193659,-5,-4,0,-4,-2,-3,-5,2
1576747535193659,-5,-2,1,-3,-3,-4,-3,-1
1576747535206685,-3,3,-1,-1,-6,1,-6,-7
1576747535206685,1,-3,3,2,-2,-1,-1,0
1576747535213663,-2,-3,-2,-5,-2,2,-1,-10
1576747535213663,5,1,2,1,2,3,3,-2
1576747535230540,2,-2,0,-3,1,-3,1,-4
1576747535230540,2,1,-1,0,2,-3,4,1
1576747535231514,5,0,-6,2,1,3,4,3
1576747535231514,1,-2,1,0,-1,2,-2,0
1576747535252462,-4,0,3,2,5,4,-6,-2
1576747535252462,-1,0,0,1,-2,1,-6,-2
1576747535254454,-1,2,5,-2,-6,-4,-3,7
1576747535254454,-1,1,0,-2,-3,-4,1,3
1576747535267445,-4,-4,-7,2,-2,-2,3,1
1576747535267445,-6,-3,-4,2,-1,0,-3,0
1576747535273503,-1,-5,-5,-3,-1,-1,-4,-4
1576747535273503,-10,-3,-3,-2,-1,-1,-2,-3
1576747535290475,-1,-1,0,-1,-1,0,-3,3
1576747535290475,-1,1,1,-2,0,2,2,-2
1576747535291351,1,1,2,0,2,0,3,0
1576747535291351,-4,-3,1,1,-2,0,-1,-2
1576747535312402,0,-1,0,-1,1,3,4,-3
1576747535312402,-5,-1,-2,-4,-3,-3,-1,0
1576747535314292,-7,0,-4,0,-1,-1,-2,8
1576747535314292,4,4,-4,-1,-1,-7,-3,1
1576747535327303,-1,-4,-5,-1,-2,0,-1,1
1576747535327303,4,3,2,-2,-2,-2,0,-5
1576747535334237,0,1,2,3,1,-2,-3,-6
1576747535334237,-1,0,2,-1,0,1,-3,1
1576747535350303,-5,-1,2,1,1,2,-3,3
1576747535350303,0,-1,2,0,-2,-2,-1,-1
1576747535351228,-2,-4,-4,1,-5,1,2,-5
1576747535351228,-4,-2,-3,0,-3,1,-3,-5
1576747535373133,6,0,-1,0,4,-1,2,-1
1576747535373133,1,-1,-5,-3,3,0,3,1
1576747535374166,-2,3,1,2,-1,-2,-1,-2
1576747535374166,3,0,2,-3,-6,1,1,5
1576747535387196,1,2,-1,-4,-3,-6,4,-2
1576747535387196,-3,2,-5,-4,-1,-6,-4,1
1576747535394124,4,-5,-1,0,1,-1,-1,-5
1576747535394124,0,-4,-5,-3,-1,0,-5,-6
1576747535410138,1,-1,-1,1,0,3,-7,1
1576747535410138,2,-5,-1,1,1,4,-2,7
1576747535412034,-2,0,-1,-1,2,-2,2,8
1576747535412034,-1,0,1,-2,-4,2,-1,-1
1576747535433014,-3,0,2,1,-4,-4,-2,-1
1576747535433014,-7,-2,1,0,-3,-3,-2,-2
1576747535433972,-6,3,0,-2,-4,-5,-1,1
1576747535433972,1,-3,-4,2,2,-4,-2,0
1576747535445944,-1,1,-2,-1,0,1,2,-6
1576747535445944,2,-5,0,-2,0,1,0,-7
1576747535454921,1,0,1,-3,1,1,-2,-2
1576747535454921,0,-2,1,2,0,-4,0,0
1576747535469942,1,-1,-1,-3,0,0,-1,-2
1576747535469942,-3,0,-3,4,2,0,0,-1
1576747535471874,0,-6,1,-4,2,1,1,-3
1576747535471874,-4,2,1,-4,-4,-1,-2,-2
1576747535492933,-5,0,-1,1,-2,-2,-3,0
1576747535492933,-1,-1,2,-3,-6,-2,-2,3
1576747535493815,3,0,-1,1,-2,1,-2,-3
1576747535493815,9,1,-1,1,0,4,2,2
1576747535505882,-2,-6,-5,0,-2,-2,1,0
1576747535505882,-5,-1,-3,-4,1,-1,-1,6
1576747535514821,-1,0,-2,-2,-4,-3,-1,3
1576747535514821,4,1,0,-2,1,-4,2,-3
1576747535529822,-8,-3,-2,1,3,0,1,1
1576747535529822,-3,0,0,-1,1,-2,0,0
1576747535531711,-3,-1,1,0,1,-1,1,-2
1576747535531711,-6,-1,-4,-1,-4,-3,3,-8
1576747535552664,1,2,-2,-1,2,-3,-1,-8
1576747535552664,6,-1,2,-1,-5,2,-2,-5
1576747535553651,5,0,1,2,1,3,-1,-1
1576747535553651,-2,-5,3,0,1,1,-1,0
1576747535566664,2,-2,2,-2,-2,-2,-5,-3
1576747535566664,-1,-1,1,-3,-3,-2,-4,-2
1576747535575592,-4,0,-5,-3,-2,-1,-3,-4
1576747535575592,-2,-3,-2,1,-5,0,2,3
1576747535590556,0,1,1,-2,2,-1,-3,3
1576747535590556,5,1,-2,4,4,-5,4,2
1576747535591552,-6,-5,-4,-2,2,-3,-2,-1
1576747535591552,-1,-1,-1,-2,2,0,0,3
1576747535612596,0,3,0,-4,-9,0,2,7
1576747535612596,1,1,-2,-1,-3,3,-1,1
1576747535614489,-1,-2,3,-2,-1,0,-3,-4
1576747535614489,1,0,-2,-2,-1,-1,-1,-4
1576747535626457,1,-1,-4,-2,-4,-2,-1,-2
1576747535626457,-3,-8,-1,1,2,-3,0,-6
1576747535635432,-5,0,1,5,3,-1,1,-1
1576747535635432,-4,2,0,0,5,1,-4,7
1576747535650470,5,-3,2,-2,-1,0,1,4
1576747535650470,-4,4,-4,-3,-2,0,-3,-3
1576747535651394,-1,3,3,-3,0,-1,2,-2
1576747535651394,-2,-3,-2,1,-2,0,3,-2
1576747535672436,-1,-2,-2,1,-1,-1,1,-9
1576747535672436,2,-3,-5,1,-4,-3,-3,-2
1576747535674338,3,0,-3,-2,0,-1,-1,-3
1576747535674338,2,-1,-3,-1,1,-1,-4,-7
1576747535686353,-4,0,4,2,0,-2,-1,0
1576747535686353,-6,-1,5,-2,-3,2,3,2
1576747535695322,2,-1,-3,-2,-1,-1,1,4
1576747535695322,-8,-2,1,2,3,0,-2,0
1576747535710332,-2,-1,-4,-1,-1,2,-4,-2
1576747535710332,-1,2,3,0,-2,-2,-2,-6
1576747535711277,0,-3,-2,1,-4,-2,-2,4
1576747535711277,-1,4,-3,-1,-6,-3,0,0
1576747535732276,-4,-2,1,-1,-2,-1,0,3
1576747535732276,-7,-4,-3,1,4,2,-2,1
1576747535734181,-3,0,-5,1,0,1,-1,2
1576747535734181,-1,-3,-2,-3,-3,1,-3,0
1576747535746237,1,-3,-1,-3,-4,2,0,-2
1576747535746237,3,-5,0,-2,0,2,3,0
1576747535755114,2,-4,2,-1,3,-4,-1,-6
1576747535755114,2,2,3,0,2,-5,-1,-3
1576747535770073,1,-3,4,2,4,-4,-1,5
1576747535770073,3,3,4,-1,-1,-2,-1,2
1576747535772070,-5,-2,-7,-1,-2,0,-3,-2
1576747535772070,-2,-1,-1,-3,-4,2,2,-3
1576747535793035,-3,-3,-2,-2,-6,-3,-1,-1
1576747535793035,-3,2,-6,3,0,0,0,-3
1576747535794010,-2,2,0,2,-1,1,1,-2
1576747535794010,3,1,1,-1,3,-1,-2,1
1576747535806080,0,2,1,-3,2,0,1,-8
1576747535806080,2,-2,-3,1,1,-5,1,0
1576747535814953,6,-1,0,0,-3,-2,4,5
1576747535814953,-1,-1,1,-2,-4,-2,1,0
1576747535830012,-4,-2,-3,1,-1,-2,-4,4
1576747535830012,0,2,0,-7,-2,-1,-5,-3
1576747535831951,-2,0,1,1,2,3,-2,3
1576747535831951,0,-3,0,-1,2,0,-1,4
1576747535852906,-1,-2,-6,3,0,-1,-4,-6
1576747535852906,-1,1,-6,-2,-3,-2,-4,-4
1576747535853849,-4,-1,-2,-4,0,-1,-3,0
1576747535853849,-1,1,-2,0,0,2,-2,0
1576747535865921,6,0,6,-2,0,1,3,-4
1576747535865921,3,0,4,0,-3,0,1,-1
1576747535874839,0,-2,1,-1,-2,0,-1,-1
1576747535874839,1,-1,-4,-1,1,-2,-2,0
1576747535889858,-5,-1,-5,-4,2,-3,-1,-2
1576747535889858,-6,-4,3,2,5,1,3,2
1576747535891749,-1,1,0,-4,-6,2,2,0
1576747535891749,-3,-3,1,1,-2,-3,1,-1
1576747535912793,-2,0,-6,2,-3,1,-3,-3
1576747535912793,1,0,1,1,-3,0,1,-5
1576747535913732,-3,-5,2,-1,-1,-2,1,-3
1576747535913732,2,0,0,2,-1,-1,3,0
1576747535934731,5,2,3,1,-1,-5,0,-1
1576747535934731,-6,-1,-3,0,0,1,-3,-1
1576747535936630,1,-4,-4,1,-2,2,-2,0
1576747535936630,-5,-7,-2,1,-1,4,-5,-7
1576747535950589,0,-2,2,-4,-2,1,-2,3
1576747535950589,6,1,-1,-3,-2,-3,1,2
1576747535951586,0,-1,1,-1,-1,-5,-4,1
1576747535951586,0,2,-1,-2,1,-1,-2,0
1576747535972637,-5,0,-3,3,2,-1,0,-1
1576747535972637,-1,-1,0,-1,2,0,3,4
1576747535974529,2,3,-5,3,-1,-2,2,5
1576747535974529,0,0,-2,-1,-5,-4,-2,-1
1576747535995513,-2,-4,-1,-4,-3,-1,0,-3
1576747535995513,-3,2,-1,1,4,2,1,-1
1576747535996469,3,0,1,-1,0,3,2,0
1576747535996469,-2,-6,1,-3,-3,-3,-1,-2
1576747536010477,6,3,2,-1,1,0,-1,-1
1576747536010477,-1,-4,-4,-3,-3,-4,-4,0
1576747536011431,-1,0,1,0,-3,-2,-3,-5
1576747536011431,-2,0,-5,-2,1,1,3,-5
1576747536032474,-5,0,1,-3,-2,-3,0,-2
1576747536032474,-4,-3,2,-2,-5,-5,-5,6
1576747536034367,5,0,1,2,0,1,0,1
1576747536034367,4,-1,-2,-1,-2,0,-1,-4
1576747536055412,-2,0,-5,1,1,3,-1,-4
1576747536055412,-4,-1,-7,-3,-2,1,1,-10
1576747536056309,-5,0,-6,-2,-1,-5,-2,-5
1576747536056309,-3,1,1,0,-4,-2,-1,3
1576747536069274,5,1,7,3,2,0,3,9
1576747536069274,1,2,-2,1,1,2,-5,1
1576747536076354,-4,-4,1,0,0,0,1,-9
1576747536076354,-2,-3,0,-1,3,0,-3,-2
1576747536092317,-2,0,1,-1,0,0,-1,2
1576747536092317,2,-4,1,-2,-3,-3,3,3
1576747536094207,-1,-2,2,-1,-2,-3,-2,-6
1576747536094207,0,3,-4,-1,-1,0,5,1
1576747536115252,-1,0,-4,-3,-1,0,2,4
1576747536115252,3,3,-2,1,2,-3,-2,0
1576747536116191,3,-1,-2,-4,-2,-2,-1,-3
1576747536116191,-5,-1,1,0,-1,-5,-2,-4
1576747536129212,-7,-5,-1,-2,0,0,-4,-1
1576747536129212,-3,-2,0,0,-2,2,-1,5
1576747536136140,0,-2,1,0,-4,2,-1,1
1576747536136140,-2,-1,-3,-5,-3,-1,-1,-4
1576747536152051,-2,0,-3,-2,0,0,-1,-3
1576747536152051,-3,-1,2,2,-2,0,3,-2
1576747536154047,2,0,-4,0,3,-5,-4,2
1576747536154047,-1,1,0,1,-3,-2,-3,-2
1576747536174991,-3,2,-2,1,-2,-4,-4,3
1576747536174991,3,2,0,-3,-4,1,-2,2
1576747536176985,-2,1,-1,-2,-2,-3,1,2
1576747536176985,-3,1,1,2,2,-2,4,-3
1576747536189950,-1,-1,0,-1,0,0,2,-2
1576747536189950,-2,-2,-2,-3,1,-1,-2,-13
1576747536196041,1,-2,-4,1,1,1,0,1
1576747536196041,0,-1,-2,0,2,-2,-3,6
1576747536212968,-2,-1,1,0,0,-1,0,1
1576747536212968,2,-2,-2,-1,-2,4,1,0
1576747536213887,-1,-2,-1,1,-4,1,-3,-6
1576747536213887,1,1,4,-3,-2,0,-2,-2
1576747536234873,-1,1,-1,1,-2,-3,1,-2
1576747536234873,1,-1,2,1,-4,-5,-2,3
1576747536236827,-1,0,-2,0,3,-1,-2,2
1576747536236827,1,2,0,1,2,1,-2,3
1576747536249836,1,-4,-1,-3,0,-2,-2,-2
1576747536249836,2,-3,-5,-3,-1,-1,-2,-3
1576747536255881,-3,1,0,0,-1,1,1,-3
1576747536255881,-8,-2,-3,1,1,1,3,2
1576747536272833,4,-2,-1,-2,-2,2,2,-5
1576747536272833,-7,-1,3,0,-1,2,-5,-2
1576747536273730,0,-1,1,-4,-3,2,-3,-4
1576747536273730,8,-1,1,0,1,0,1,-1
1576747536294772,2,-1,4,3,1,-4,0,-5
1576747536294772,2,0,-3,-3,-1,-9,1,2
1576747536296665,-5,-3,-1,3,-1,-2,0,1
1576747536296665,-6,-1,-1,-1,-3,-1,-4,2
1576747536309629,3,-1,-1,-1,-2,-2,-1,5
1576747536309629,3,2,1,3,-1,-3,1,3
1576747536316658,0,1,0,-3,0,-4,0,0
1576747536316658,-2,-3,3,-3,0,4,-2,-5
1576747536332668,-3,-1,-2,-1,-1,2,-2,-4
1576747536332668,-1,-1,2,-3,4,4,1,-2
1576747536334562,-2,-5,-5,-1,0,-1,-1,0
1576747536334562,1,0,-5,0,-2,-1,0,-7
1576747536355536,-6,0,-6,-1,-5,0,-3,-6
1576747536355536,-4,-2,1,-1,-5,-2,-1,0
1576747536356506,4,-1,5,2,3,3,0,6
1576747536356506,4,2,-1,-1,1,0,1,6
1576747536369513,-1,0,1,-1,0,-1,1,1
1576747536369513,-2,-2,-5,0,-2,-1,0,-8
1576747536376572,-1,-2,-2,0,-2,1,0,-4
1576747536376572,-5,-4,-1,1,-3,-1,1,0
1576747536392512,2,-2,1,-2,-2,-4,0,-1
1576747536392512,-4,-3,0,-3,3,0,-2,3
1576747536394404,4,0,0,1,2,1,-1,-1
1576747536394404,-1,-2,1,1,-1,-2,-5,-4
1576747536415461,-1,5,-2,0,-4,-2,0,-3
1576747536415461,-2,0,-6,-1,1,-1,-1,-2
1576747536416343,-2,2,-4,-4,2,0,0,1
1576747536416343,-2,0,4,-4,-1,-3,0,4
1576747536428416,-5,-5,-2,1,-4,0,0,3
1576747536428416,0,-3,-5,1,-3,0,-3,-5
1576747536437381,3,1,1,-1,-1,0,0,-1
1576747536437381,0,2,0,1,2,-3,-3,1
1576747536452251,-1,-1,-2,-3,-1,0,-1,0
1576747536452251,-1,1,-3,-2,1,-5,2,-6
1576747536454247,1,-3,-5,-4,-4,-2,1,-1
1576747536454247,0,-3,1,0,1,3,1,1
1576747536475188,-6,0,6,2,6,2,-2,-6
1576747536475188,2,0,-2,1,-1,3,-2,4
1576747536476217,1,-3,-2,-4,-7,-3,-6,-4
1576747536476217,1,-1,-5,2,-2,-5,0,0
1576747536489196,2,-3,0,-1,0,0,1,6
1576747536489196,-5,0,5,-1,4,2,1,-2
1576747536498127,-1,1,-2,-1,-1,0,3,0
1576747536498127,-1,1,0,-1,1,1,-1,-3
1576747536513084,1,0,-3,1,-3,-4,-1,0
1576747536513084,-7,-3,0,-2,-6,-2,-3,5
1576747536514084,-4,-1,-8,-3,0,0,-2,-4
1576747536514084,3,-1,-4,-1,0,0,3,0
1576747536535027,1,1,1,0,-5,-4,1,-7
1576747536535027,-1,0,6,-2,0,-3,-3,-3
1576747536537026,-2,-1,4,0,1,-1,-6,0
1576747536537026,-2,-3,-5,-1,-3,3,-4,-2
1576747536549110,2,-3,-4,-3,1,1,-5,3
1576747536549110,2,0,-3,3,3,-3,4,3
1576747536557968,0,-1,2,-1,-1,-4,-2,1
1576747536557968,1,1,-3,-3,-2,0,-3,-1
1576747536572975,1,-3,-1,0,-2,3,0,1
1576747536572975,-3,-3,-2,1,-5,-4,2,-5
1576747536573925,-9,0,-1,1,0,-3,5,-4
1576747536573925,1,1,1,-2,-2,-3,2,-6
1576747536602845,-3,2,1,2,0,3,-1,-1
1576747536602845,6,1,4,-2,-2,4,-1,2
1576747536603841,-4,-2,2,-2,-4,-3,0,-1
1576747536603841,-8,0,-5,0,-1,2,-1,4
1576747536608935,-6,0,0,-2,3,-1,-3,-4
1576747536608935,-2,-2,2,-2,4,-3,-4,2
1576747536617808,6,0,-2,2,1,4,-2,4
1576747536617808,1,-2,-3,-4,-6,-2,-5,-1
1576747536632871,7,-1,-4,-3,-6,-3,-1,-5
1576747536632871,-2,2,2,0,1,0,-1,-3
1576747536633779,1,0,1,0,-1,-2,0,1
1576747536633779,-1,-2,1,-1,2,1,2,-2
1576747536654809,-3,-1,3,-1,4,1,1,-1
1576747536654809,-3,-2,-3,-6,-2,2,-2,-6
1576747536656706,-3,0,4,0,-2,2,1,-3
1576747536656706,5,1,3,2,0,0,-1,1
1576747536668668,0,-2,-4,-1,-2,-2,0,6
1576747536668668,4,-3,-4,-1,0,0,1,-1
1576747536677654,0,0,-1,-3,-2,-2,-3,0
1576747536677654,-12,-6,3,-4,-5,-1,-1,-6
1576747536692607,-4,0,-3,-2,-2,-1,1,1
1576747536692607,3,1,-1,1,-2,0,1,6
1576747536694599,3,1,-2,3,0,0,1,2
1576747536694599,2,-5,0,2,4,-3,-4,-1
1576747536715565,1,3,-5,-1,-3,-1,-1,-2
1576747536715565,0,-2,-4,0,0,-3,-3,2
1576747536716543,-6,-2,-1,0,-3,-5,1,1
1576747536716543,-2,0,6,1,1,1,0,3
1576747536728612,-5,1,-4,-3,0,4,-2,-4
1576747536728612,-2,1,-1,1,6,5,-3,-5
1576747536737484,3,0,-5,-2,4,3,-1,-2
1576747536737484,3,1,-5,0,-4,-1,-2,4
1576747536752490,1,-2,2,3,-2,-6,-1,2
1576747536752490,0,-1,1,-2,-8,-6,0,-3
1576747536754444,0,-2,2,-3,0,-3,-2,-2
1576747536754444,-2,-4,-3,0,1,1,1,-1
1576747536775491,2,2,-2,-3,-4,-6,1,-5
1576747536775491,-5,-3,0,-1,1,-1,1,0
1576747536776381,-5,-2,2,0,1,0,4,2
1576747536776381,2,0,1,-2,-5,2,1,-4
1576747536788454,0,-4,2,1,-5,0,0,5
1576747536788454,2,2,-7,-3,-4,1,-6,-3
1576747536797376,-4,1,-6,-1,-1,0,-4,-1
1576747536797376,0,0,-6,-2,0,-3,0,-1
1576747536812384,-5,-3,1,0,2,-3,-2,2
1576747536812384,-3,-1,1,1,-2,2,2,-2
1576747536814311,-2,1,-2,-1,-1,2,-2,-4
1576747536814311,-1,2,-3,-2,0,-1,1,-2
1576747536835223,-2,-1,1,-1,2,1,1,-5
1576747536835223,-1,0,3,-2,2,0,2,3
1576747536836222,-1,-3,-3,-2,-1,-4,-1,-5
1576747536836222,-2,-1,-1,2,0,-8,-2,-1
1576747536857267,4,4,1,-2,-3,-4,-3,3
1576747536857267,1,-2,4,-5,-5,-1,-1,-1
1576747536859162,-4,1,1,-3,-3,0,-6,2
1576747536859162,3,0,2,-1,3,5,1,3
1576747536872223,4,1,-1,-1,-3,-2,1,-4
1576747536872223,-1,0,-1,3,-1,0,5,-2
1576747536874156,7,-5,-2,0,-1,-1,3,0
1576747536874156,-3,-2,-1,-1,0,-1,0,2
1576747536895170,-1,-4,0,-1,2,2,-4,-5
1576747536895170,8,0,2,-3,-1,-2,-1,-5
1576747536897058,2,0,-4,0,-1,0,-3,3
1576747536897058,-5,2,-5,-2,-2,5,-3,-5
1576747536918002,-2,0,-2,-2,1,1,-2,-1
1576747536918002,1,-1,-1,-1,-3,-4,-5,1
1576747536919003,-6,-5,-2,0,-2,2,-1,3
1576747536919003,-1,-1,2,-1,0,-1,-2,4
1576747536933009,-4,-2,1,-1,0,0,1,-1
1576747536933009,-1,-3,-1,-1,1,-1,3,-5
1576747536933962,-3,-2,-3,-2,0,-3,2,-4
1576747536933962,-4,-2,-6,1,-2,-4,2,0
1576747536955008,-4,1,-7,0,-1,2,1,-4
1576747536955008,-4,1,2,-1,-1,0,-2,-5
1576747536956903,-2,0,6,-4,-3,0,-4,-6
1576747536956903,1,2,2,-6,1,-3,-2,-2
1576747536977945,4,0,2,-3,-1,-3,-2,-3
1576747536977945,0,-1,-7,3,-1,-3,1,6
1576747536978839,5,1,-5,0,-4,0,-1,5
1576747536978839,2,1,1,2,-3,-2,-3,0
1576747536992905,3,-5,-2,2,-1,0,-1,2
1576747536992905,-2,-3,-1,1,0,3,0,2
1576747536993803,-5,3,1,-2,0,-5,4,-4
1576747536993803,2,0,0,-1,0,-4,1,-2
1576747537014850,-1,0,4,-2,1,-1,2,-1
1576747537014850,-5,-3,1,0,2,2,0,-2
1576747537016741,0,-1,-1,0,-1,5,0,-1
1576747537016741,-5,-3,-4,-5,-4,-2,-1,-1
1576747537037785,-7,-1,-5,2,-5,-4,-1,-2
1576747537037785,5,-3,-3,2,-2,-2,-1,2
1576747537038682,4,1,-1,-2,1,1,0,-5
1576747537038682,5,0,-3,0,0,1,0,1
1576747537051646,0,-2,-2,-1,-3,0,-3,-1
1576747537051646,-2,0,-3,-4,-1,-3,-4,-4
1576747537058731,-3,-4,1,-1,2,4,1,-3
1576747537058731,-1,-2,3,0,2,1,2,0
1576747537074587,-1,0,0,-2,-1,-3,-1,5
1576747537074587,1,3,0,-1,0,-1,-3,0
1576747537076579,-3,-3,-4,-2,-1,-3,-2,-4
1576747537076579,-6,2,-4,-2,0,-6,-1,-3
1576747537097629,-3,0,1,1,4,1,-1,1
1576747537097629,-2,-1,1,1,1,3,1,4
1576747537099567,4,1,4,0,-4,2,-4,7
1576747537099567,-4,-4,2,-1,-4,6,-2,-5
1576747537112484,6,2,1,-1,-3,-2,1,-3
1576747537112484,-1,4,2,-1,1,-4,-1,-1
1576747537118468,-1,-5,-1,0,0,-3,2,-5
1576747537118468,-1,-2,0,1,1,-3,-1,0
1576747537135422,-2,0,-3,-2,0,3,-2,-2
1576747537135422,3,-5,0,-2,1,0,0,-2
1576747537136427,0,2,-1,3,0,-4,-4,2
1576747537136427,1,2,-4,-2,-4,-5,-2,-2
1576747537157463,-1,0,0,4,-4,-2,1,-3
1576747537157463,6,2,1,0,-5,2,2,0
1576747537159400,-3,0,-2,-3,-1,-3,3,0
1576747537159400,-4,-2,2,3,-2,2,-2,-1
1576747537172325,-5,-1,-2,-5,1,0,-1,3
1576747537172325,-1,0,-4,-1,-1,1,0,-3
1576747537179305,1,-3,1,-1,2,2,-3,-5
1576747537179305,0,-1,-1,2,1,0,-2,-3
1576747537195357,-1,-4,7,-1,2,-3,-2,-2
1576747537195357,-9,1,10,2,0,0,-2,7
1576747537196289,-5,2,4,0,-1,-4,-1,6
1576747537196289,1,-1,8,0,5,2,0,1
1576747537217306,-3,-2,-4,2,3,1,1,-2
1576747537217306,2,-5,-6,-1,-3,-5,3,-4
1576747537219199,7,3,9,-4,-1,0,-3,-2
1576747537219199,-4,2,-2,-2,-2,3,-3,3
1576747537232263,-4,0,-7,2,-4,1,-2,0
1576747537232263,1,2,-11,2,-4,-2,0,-2
1576747537239145,-3,-3,-18,0,0,-5,2,-6
1576747537239145,4,-3,-12,-2,3,-3,1,-6
1576747537255196,0,-1,-5,-2,0,2,0,-2
1576747537255196,-9,-2,0,-4,0,3,-3,-2
1576747537256110,-1,1,5,0,-3,2,3,0
1576747537256110,-2,-1,3,-1,-2,-1,3,1
1576747537278088,0,2,1,-1,-3,-2,0,6
1576747537278088,0,-2,1,4,-2,-4,-1,5
1576747537279042,1,2,-1,0,-3,-4,-6,3
1576747537279042,2,-1,-1,-4,-1,2,-7,-6
1576747537292013,7,-1,2,-1,2,-1,0,-3
1576747537292013,0,-2,4,0,-1,-3,-1,-10
1576747537299096,-3,-1,-2,2,1,0,1,5
1576747537299096,-5,-2,-2,-3,-2,-3,2,2
1576747537315045,1,-3,1,0,6,1,-2,4
1576747537315045,-1,1,1,-2,1,1,-1,1
1576747537316979,-2,-4,-4,-2,-3,1,2,-2
1576747537316979,-1,1,1,1,-6,-2,-1,-5
1576747537337922,-7,-5,1,0,-3,0,-3,-5
1576747537337922,-1,-3,-3,0,2,1,-5,0
1576747537338886,2,-2,-1,-1,6,1,-3,0
1576747537338886,-1,0,5,-2,0,-3,0,1
1576747537351843,0,1,-1,-1,-2,-1,3,-4
1576747537351843,0,-1,-2,-3,-4,3,3,-4
1576747537358863,0,-2,-2,-1,-4,1,4,-4
1576747537358863,1,-1,2,1,2,-4,1,2
1576747537374819,-3,0,2,-2,-1,-3,-3,-1
1576747537374819,1,0,-1,0,2,-2,-2,4
1576747537376818,2,1,1,-1,0,1,-6,3
1576747537376818,5,3,-4,2,-4,0,-2,-3
1576747537397822,-4,-1,-5,-3,-6,-5,-3,-2
1576747537397822,2,-1,-1,-2,1,-2,1,5
1576747537398772,-4,0,-3,0,-1,-2,-1,-3
1576747537398772,-3,-1,1,-2,3,-2,-3,-2
1576747537411720,-5,-5,3,-2,-2,-1,-1,-5
1576747537411720,1,1,3,-3,-6,1,1,1
1576747537420667,1,-4,-4,0,0,5,-1,-2
1576747537420667,-4,-4,-5,0,-2,-1,1,-3
1576747537434622,0,-1,-3,-2,2,1,-1,0
1576747537434622,-2,-4,1,-1,2,-3,-1,0
1576747537436619,2,1,5,-2,-3,-2,2,3
1576747537436619,2,3,-1,-3,-1,-1,2,-3
1576747537457661,-2,-2,-4,0,0,-3,-1,-1
1576747537457661,-7,1,-2,0,-1,-5,-2,-4
1576747537459565,-1,-4,-1,-1,2,-1,0,1
1576747537459565,-3,-3,2,0,0,1,3,4
1576747537471633,3,-2,1,-2,-4,-1,1,-2
1576747537471633,4,0,-5,-1,0,-3,1,-6
1576747537480554,3,1,0,2,0,-1,-2,-3
1576747537480554,-1,-2,-2,-3,-4,1,-4,-1
1576747537495499,-4,-4,-3,1,-1,0,-3,2
1576747537495499,2,-1,-3,2,-2,2,-2,1
1576747537496461,-1,0,-3,-2,0,-3,-2,-2
1576747537496461,2,2,3,0,0,1,-3,2
1576747537517498,3,4,3,-1,-3,1,1,2
1576747537517498,-1,0,-3,-1,-1,-3,2,-1
1576747537519402,-4,0,-3,-4,0,-3,0,-2
1576747537519402,-2,-3,-3,0,2,0,-1,-1
1576747537531463,-2,0,1,-1,-3,1,-6,-2
1576747537531463,4,0,2,0,-2,0,-3,1
1576747537540375,-3,-3,2,-2,-1,-3,-3,-1
1576747537540375,4,-1,-5,0,0,-3,-1,0
1576747537555396,0,1,-3,0,-2,-5,3,-2
1576747537555396,-8,-3,-2,1,-2,1,1,-1
1576747537556307,-2,-2,7,2,-3,3,0,-4
1576747537556307,3,-3,4,-3,0,1,1,-6
1576747537577335,1,1,1,3,5,5,0,0
1576747537577335,-3,-3,0,-2,2,-1,-5,-3
1576747537579242,-7,-3,-9,-1,-5,-2,1,-2
1576747537579242,-5,2,-3,1,1,-1,-2,6
1576747537591302,0,1,-7,-1,0,-1,2,5
1576747537591302,-3,1,0,0,-4,-1,0,4
1576747537600187,-2,-1,3,-1,-2,0,0,-2
1576747537600187,3,-3,2,-1,0,-5,-2,-4
1576747537615239,1,1,-3,-2,-5,-3,-5,-3
1576747537615239,-6,-2,-2,-3,1,1,-3,2
1576747537617133,3,-1,-3,-3,-1,0,-3,4
1576747537617133,5,-1,0,5,0,4,2,10
1576747537638078,-1,1,1,-1,2,-1,-2,-1
1576747537638078,-1,0,2,-1,2,-1,2,-6
1576747537639084,-1,4,-2,-2,-1,-3,-1,-5
1576747537639084,-10,-1,1,-1,-3,-5,-3,-1
1576747537651109,-5,-3,2,-3,-2,-2,0,-1
1576747537651109,2,-1,-5,-1,-3,0,1,-2
1576747537660020,2,0,-1,-1,1,-2,4,-2
1576747537660020,-2,-1,-1,-5,-5,-1,-4,-11
1576747537675079,-1,-3,-4,2,-5,-1,-4,-8
1576747537675079,1,0,0,-3,-5,-3,-6,-4
1576747537676982,-2,-4,0,0,0,-1,0,4
1576747537676982,-1,-1,0,-4,2,1,3,3
1576747537697981,-4,-2,2,-3,0,1,6,2
1576747537697981,3,3,5,0,3,4,-3,1
1576747537698914,3,1,-3,2,-1,4,0,6
1576747537698914,2,2,0,2,-1,-5,-2,-1
1576747537710982,-6,-3,-1,-1,5,-5,-1,-5
1576747537710982,-1,1,-1,-2,-1,-3,3,-2
1576747537719862,4,-3,-2,-2,-5,-2,1,-3
1576747537719862,1,-4,-3,-1,-2,1,3,6
1576747537734820,-3,1,-2,-1,-1,0,-2,-2
1576747537734820,-7,-6,-1,-2,-1,0,-1,-1
1576747537736816,0,1,-1,2,0,-1,-2,-2
1576747537736816,1,-3,-3,-3,-3,0,2,-5
1576747537757858,3,2,-3,-1,1,0,-3,-2
1576747537757858,-1,-1,0,3,4,4,-3,0
1576747537758782,-1,2,4,-3,-1,1,-2,-1
1576747537758782,-8,-2,2,0,1,0,-5,-3
1576747537771720,5,-1,0,-1,-6,-2,1,2
1576747537771720,-3,-2,-4,-3,-5,-3,3,1
1576747537780696,3,-2,-1,1,-3,-6,-1,1
1576747537780696,1,2,-2,-2,-3,-1,-2,0
1576747537795657,-1,-1,-1,-1,1,-3,-1,-6
1576747537795657,4,0,-1,-1,-2,-1,-5,0
1576747537796661,-2,-3,1,0,1,0,-3,1
1576747537796661,-2,2,-5,-1,3,1,3,4
1576747537817641,1,-1,1,-2,3,1,1,3
1576747537817641,-3,-2,-2,-2,-2,-3,2,0
1576747537819600,-1,0,-2,-2,0,-2,3,-6
1576747537819600,3,0,1,0,1,1,3,-1
1576747537840564,4,-3,-4,3,-2,-1,0,3
1576747537840564,3,-1,1,-1,-2,-1,-3,0
1576747537841543,0,-1,1,-2,0,-1,0,0
1576747537841543,-5,1,-3,1,1,-2,-3,-3
1576747537855542,-10,1,-1,-4,-2,2,-3,-5
1576747537855542,-1,0,-1,-1,0,2,-2,4
1576747537856501,5,0,-1,-5,-5,-1,-2,5
1576747537856501,-2,-2,-3,0,-2,-4,0,-3
1576747537877537,0,-3,2,1,2,0,1,-2
1576747537877537,4,0,1,1,-1,-4,-1,-2
1576747537879436,-1,0,-4,-1,4,0,-1,0
1576747537879436,-1,-6,-3,-2,-5,-6,-2,-7
1576747537900461,5,0,3,2,-2,1,1,7
1576747537900461,-1,-4,-5,-2,-1,0,3,-2
1576747537901375,0,-1,3,-2,-2,5,0,-3
1576747537901375,-8,-1,4,-1,-1,0,-6,-7
1576747537915448,0,-2,-2,1,3,0,-6,-2
1576747537915448,-1,-4,-1,-4,-2,-5,-4,1
1576747537916383,-4,-2,-3,4,1,-5,3,4
1576747537916383,4,2,0,1,-1,2,2,9
1576747537937372,-4,1,-1,-1,-1,2,3,0
1576747537937372,2,1,-2,-2,1,1,-1,1
1576747537939280,0,-1,-1,-3,-3,-1,-5,-2
1576747537939280,-4,0,0,2,-1,-1,0,-2
1576747537960311,-1,-3,0,2,2,0,-3,-7
1576747537960311,-3,-1,-5,0,0,2,0,-6
1576747537962211,1,0,-4,-3,-3,3,2,-6
1576747537962211,7,0,-2,1,0,3,-3,-1
1576747537974278,3,-1,-6,-4,2,0,2,3
1576747537974278,-2,4,1,3,0,-4,2,2
1576747537981260,-4,-5,-2,1,-4,-3,-3,1
1576747537981260,-3,-3,1,-5,-2,-1,-4,5
1576747537998115,-5,1,3,-1,0,-1,1,0
1576747537998115,-8,-4,2,0,2,0,-1,1
1576747537999119,0,-1,0,-2,2,-5,-4,-1
1576747537999119,-1,-1,-2,-1,0,-4,-1,-5
1576747538020101,-4,-2,3,0,-2,-5,-5,-4
1576747538020101,-3,-3,1,-4,-4,1,2,-6
1576747538022060,0,4,1,3,-3,3,2,-1
1576747538022060,4,2,-5,0,-2,4,1,0
1576747538034119,0,-3,-4,-2,-4,0,-2,2
1576747538034119,0,2,0,3,2,0,-4,-2
1576747538041095,-9,2,0,0,4,-3,-3,-2
1576747538041095,0,0,-1,1,2,-1,2,-1
1576747538057979,-1,0,-4,-3,-2,-2,1,-2
1576747538057979,0,-4,-6,-4,-4,0,3,0
1576747538058951,1,-1,1,-6,-1,1,2,-5
1576747538058951,-2,1,0,3,6,0,-2,-1
1576747538079996,-4,-5,0,0,5,-1,-2,4
1576747538079996,-6,-6,1,-1,-3,-3,-4,-2
1576747538081927,6,3,0,1,-1,-5,-2,4
1576747538081927,-2,-3,-1,-2,-5,-2,0,0
1576747538094893,2,3,1,1,-3,0,-3,-5
1576747538094893,-1,3,0,0,0,-1,2,-1
1576747538100945,-10,-5,-3,0,-1,0,-1,-1
1576747538100945,-2,-2,-1,0,-4,1,0,4
1576747538117795,4,2,1,-1,-5,-1,-2,4
1576747538117795,-5,-2,-4,-3,0,-1,1,-4
1576747538118792,-3,-1,-1,0,1,-2,1,-5
1576747538118792,1,-1,-4,-1,3,-3,0,1
1576747538139837,3,-1,-6,-1,3,-1,-3,-3
1576747538139837,-3,3,-1,0,3,-2,-3,-1
1576747538141738,-6,-3,-5,-2,-3,1,-4,-2
1576747538141738,-1,2,-2,-2,-1,-2,3,-1
1576747538153740,-3,-1,2,1,-2,-5,4,3
1576747538153740,5,-2,4,-1,-5,1,-1,1
1576747538161721,4,-1,4,1,-1,2,-2,4
1576747538161721,-6,0,0,0,-3,4,-2,-7
1576747538176740,-1,-3,-7,-4,-5,0,-5,-5
1576747538176740,4,-4,2,1,3,-3,0,8
1576747538177634,1,0,0,-1,2,-2,0,2
1576747538177634,-5,0,1,-1,0,-2,-1,-4
1576747538199676,-3,5,1,2,-2,3,-1,-3
1576747538199676,1,1,0,2,-5,1,-2,-8
1576747538200611,3,-4,-5,1,2,-3,-1,2
1576747538200611,4,-1,-4,-4,-1,0,-1,1
1576747538213637,-1,-1,-6,0,-1,-2,-2,-1
1576747538213637,2,1,1,3,2,3,-1,-1
1576747538221617,-5,-1,4,-2,1,2,1,-1
1576747538221617,-4,-1,5,-1,1,-1,-1,0
1576747538237475,2,-1,1,-3,-3,-6,2,-1
1576747538237475,3,-3,-2,-3,-2,-4,0,-4
1576747538237475,0,0,-4,2,-2,2,-2,2
1576747538237475,-4,-1,0,-2,-4,1,-2,2
1576747538259517,-3,-1,3,0,1,-2,-3,3
1576747538259517,1,3,1,0,3,-3,3,1
1576747538260446,-11,-1,-1,-3,1,-5,3,-5
1576747538260446,-1,-1,-3,-2,2,-2,3,0
1576747538273478,2,0,1,1,-6,0,2,0
1576747538273478,-3,-3,-2,-2,-4,0,-3,-1
1576747538282400,2,-2,-4,0,-5,-2,-5,-3
1576747538282400,1,1,0,2,-3,-3,-3,-1
1576747538297365,-1,-1,3,1,5,-1,1,-2
1576747538297365,2,1,-1,-2,5,5,2,0
1576747538297365,1,2,1,-1,1,4,-1,0
1576747538297365,3,0,-1,0,-1,-4,0,2
1576747538319326,0,1,0,0,-5,-3,-1,-2
1576747538319326,-5,-1,-1,2,-5,0,0,-1
1576747538320307,-1,-2,1,1,-1,-1,-2,2
1576747538320307,-2,-3,3,-3,1,0,-3,-2
1576747538342297,-7,-1,3,-2,-3,-4,2,0
1576747538342297,-8,1,-4,-4,0,-5,-2,1
1576747538343194,-10,-1,-10,-2,2,0,0,-2
1576747538343194,0,2,-7,1,2,-3,0,-1
1576747538357265,1,-4,-3,0,3,2,-1,-3
1576747538357265,0,-1,1,0,-4,2,0,-3
1576747538358160,-11,-3,-3,0,-3,1,-1,-5
1576747538358160,0,0,4,1,-3,1,-3,-3
1576747538379193,-4,0,-1,0,-2,-1,0,5
1576747538379193,5,-2,0,0,3,-3,1,0
1576747538380093,1,-2,1,-1,0,-1,2,-2
1576747538380093,-3,-2,0,-1,-3,2,-3,0
1576747538403032,1,0,-2,-3,-2,-1,-1,-9
1576747538403032,6,2,-3,-1,1,2,-3,1
1576747538403032,3,2,3,-2,0,-7,-2,2
1576747538403032,-7,-4,1,1,2,1,-1,-1
1576747538417094,-2,0,-4,-1,-1,2,-2,2
1576747538417094,-4,-1,-1,1,-2,-2,1,0
1576747538417994,-1,-3,-1,1,-1,-2,3,1
1576747538417994,4,-2,-2,-3,-2,-2,2,-3
1576747538439934,0,-4,-5,-2,1,0,-2,-2
1576747538439934,-3,-2,-5,-3,-2,-1,-5,-4
1576747538439934,-1,2,-1,-3,-3,0,-4,2
1576747538439934,-5,0,3,-1,3,-2,-6,0
1576747538461977,3,-2,2,1,5,2,1,5
1576747538461977,0,-1,-1,-2,-4,3,0,-4
1576747538462876,3,0,1,1,-2,0,2,-4
1576747538462876,1,-1,-3,0,-6,-5,4,-5
1576747538476934,-4,3,1,-2,-5,0,-1,-5
1576747538476934,-4,-2,1,0,1,-3,0,1
1576747538477875,2,0,0,0,-4,0,-2,1
1576747538477875,3,0,0,-2,-1,2,-1,2
1576747538499819,3,-3,-5,1,6,-5,-2,1
1576747538499819,-4,-1,-2,-1,1,-7,1,0
1576747538499819,1,2,0,2,-3,-2,2,-5
1576747538499819,1,1,1,-1,-6,-2,1,3
1576747538521757,3,2,-1,-3,-2,1,2,8
1576747538521757,1,-1,-1,-3,-1,-2,-1,2
1576747538522766,2,-3,-1,1,3,-1,-5,-3
1576747538522766,-4,-6,-5,-3,2,1,-4,-4
1576747538536711,-8,-2,-4,0,0,1,1,-3
1576747538536711,2,3,-3,1,-2,1,1,2
1576747538537675,0,1,-1,1,-5,3,2,4
1576747538537675,3,2,2,-1,-2,-1,0,-1
1576747538559680,-1,-4,1,-3,3,-2,-4,-7
1576747538559680,-2,-1,0,1,1,-3,0,-1
1576747538560616,-1,-2,-4,-2,-3,-3,0,-1
1576747538560616,-2,1,1,-2,-3,0,3,1
1576747538581566,-4,0,2,1,-2,0,2,-1
1576747538581566,0,-1,4,0,0,-1,0,-4
1576747538582555,4,-3,1,-2,2,-1,0,3
1576747538582555,-1,-3,0,-2,0,4,-3,-4
1576747538596614,-2,-1,2,2,1,-2,-4,-1
1576747538596614,-2,-2,2,0,-1,0,-5,-1
1576747538597511,-2,3,1,-2,2,-2,-2,-7
1576747538597511,-1,-2,-2,-4,-1,-6,-2,-7
1576747538619459,1,-3,-4,1,-2,1,2,8
1576747538619459,3,0,-5,-1,-2,0,0,1
1576747538620458,-6,-1,-3,0,0,1,1,-5
1576747538620458,3,0,1,4,2,0,-1,-2
1576747538642439,2,-2,0,-3,-4,-3,-3,-6
1576747538642439,-1,2,-1,0,0,-3,-4,-2
1576747538642439,-1,-3,0,0,-2,1,1,-1
1576747538642439,0,-1,-4,-1,0,-3,2,-1
1576747538657366,-2,0,-5,0,-2,0,4,3
1576747538657366,1,-2,0,-1,-4,-1,-1,7
1576747538657366,-2,1,1,-3,0,-4,-4,3
1576747538657366,0,-3,1,0,1,-3,-1,0
1576747538679395,-4,-3,2,-1,-1,0,2,0
1576747538679395,-3,0,2,-4,-2,1,0,-5
1576747538680349,-2,-3,-2,1,0,-2,-2,-4
1576747538680349,-1,-2,-2,5,3,2,-1,2
1576747538702236,-2,0,3,0,0,1,-5,-3
1576747538702236,0,-1,-6,-5,-4,-1,-6,-3
1576747538703235,1,-3,-7,-6,-4,-1,1,0
1576747538703235,1,0,-4,-2,-2,0,1,1
1576747538717297,0,-4,-1,2,2,-2,-1,1
1576747538717297,-1,-1,4,-2,4,2,1,-2
1576747538718200,3,0,8,-1,3,-1,-2,-1
1576747538718200,2,2,0,1,4,0,2,1
1576747538739228,1,1,-7,0,-2,-3,3,-5
1576747538739228,-3,-2,-5,1,1,-4,0,-4
1576747538740136,1,0,0,1,1,-2,0,-1
1576747538740136,-7,-1,3,-2,-5,1,-5,-3
1576747538762173,1,-1,2,-2,-1,0,-2,2
1576747538762173,3,0,-4,-1,0,0,-2,-1
1576747538763116,-1,-2,-1,0,-3,-3,-4,4
1576747538763116,1,-1,-5,-5,-2,-3,-2,0
1576747538777131,-1,3,-3,0,0,2,-1,0
1576747538777131,-4,-1,-1,-3,-2,2,-2,-2
1576747538778038,1,5,0,1,-4,2,0,0
1576747538778038,-2,-3,1,0,-3,-4,-2,-3
1576747538798970,0,-3,5,-5,-2,-5,2,-6
1576747538798970,-1,-2,-1,-2,-4,-2,3,-2
1576747538799969,-4,0,-3,0,2,2,-2,-3
1576747538799969,-3,0,0,0,4,2,-1,5
1576747538821914,-4,1,-4,1,7,1,-2,2
1576747538821914,3,-2,4,4,0,-5,2,1
1576747538822915,2,-6,-2,1,-2,-1,0,-2
1576747538822915,1,-4,1,-1,-8,-2,0,-7
1576747538836873,3,0,5,-5,-5,0,-5,-3
1576747538836873,2,0,1,0,-1,2,-1,2
1576747538837875,2,1,-4,-2,-1,-2,-3,0
1576747538837875,2,-1,-7,0,-1,-1,-1,-3
1576747538859809,-6,-2,-4,0,0,-1,-2,1
1576747538859809,-7,-2,1,3,5,-3,-2,1
1576747538859809,4,-2,4,-2,0,1,3,1
1576747538859809,-7,-4,0,-1,0,-3,0,4
1576747538881797,6,1,1,-3,2,-2,2,-1
1576747538881797,1,0,0,-1,-3,2,-2,-5
1576747538882755,1,-1,0,0,-1,1,-4,1
1576747538882755,-5,1,-2,-3,0,1,-2,-5
1576747538896712,-1,-1,-4,1,-3,1,-2,0
1576747538896712,0,-1,-4,-5,1,-5,-1,-2
1576747538897710,-7,0,-1,-3,-1,0,-3,-6
1576747538897710,1,0,0,1,-5,-3,0,0
1576747538919660,-4,-4,1,1,-3,-2,2,0
1576747538919660,-1,0,2,5,1,2,4,2
1576747538920655,5,0,3,-2,0,-2,1,4
1576747538920655,3,0,-2,0,2,-4,0,2
1576747538941646,1,1,-3,0,1,-3,-4,-4
1576747538941646,1,-2,-3,-2,0,1,-2,-7
1576747538942590,-3,-1,-4,0,0,-1,4,-5
1576747538942590,-2,-2,1,-1,-1,-2,2,2
1576747538956587,2,-4,3,-4,-8,-3,-4,3
1576747538956587,1,-1,-2,-3,-2,-2,-4,-2
1576747538957552,-4,0,-3,0,-2,1,-2,3
1576747538957552,-5,1,-5,-1,-1,1,-5,-2
1576747538979510,-4,1,-5,-2,1,-4,-1,1
1576747538979510,-6,0,1,-4,0,-3,2,2
1576747538980490,-3,-1,0,-1,4,3,3,-5
1576747538980490,2,1,-1,0,-1,3,1,-4
1576747539001431,-3,1,-1,0,-2,2,-2,1
1576747539001431,-1,-2,-6,-1,-6,3,-4,-2
1576747539002428,0,-2,-1,-4,-3,-5,-2,-4
1576747539002428,-3,1,0,-4,-5,1,-4,0
1576747539016427,-2,-1,2,-2,-3,-2,-6,-1
1576747539016427,-2,-1,1,-2,-1,-3,-3,1
1576747539024386,-1,0,1,-2,-2,-4,-2,-1
1576747539024386,0,1,0,1,2,-4,2,1
1576747539039352,-4,-3,-3,-1,1,-1,3,1
1576747539039352,1,-1,-5,-3,-1,-1,-3,-2
1576747539040354,-6,-2,1,-2,1,-2,-1,-6
1576747539040354,8,0,5,-2,-2,-2,2,-3
1576747539062268,-2,-1,0,3,-4,-2,-1,-4
1576747539062268,-1,-1,-4,1,1,1,1,-4
1576747539062268,5,-1,-8,1,2,1,-2,3
1576747539062268,-6,-2,-1,-2,1,0,-1,-4
1576747539077246,1,-1,3,0,-2,0,2,-4
1576747539077246,-8,0,-2,2,-1,-1,0,3
1576747539077246,-5,0,2,4,0,1,0,-2
1576747539077246,-2,-1,1,-1,0,-2,-1,2
1576747539099179,10,0,4,0,3,0,1,-5
1576747539099179,-4,-2,0,-1,-4,-2,0,-2
1576747539100210,-3,-3,1,-2,-3,2,3,2
1576747539100210,-1,-1,-7,-2,1,0,-2,4
1576747539122141,1,3,-3,2,6,3,-3,1
1576747539122141,-3,-1,1,-1,3,-1,-4,3
1576747539122141,-3,0,-3,0,0,0,-5,0
1576747539122141,-6,-2,-2,3,-1,1,-2,-4
1576747539136104,-4,2,-7,-4,0,-3,1,0
1576747539136104,4,1,0,3,0,1,3,0
1576747539144083,-3,2,-6,0,0,-3,1,5
1576747539144083,-2,-1,-2,-2,0,-3,1,-3
1576747539159045,9,-5,5,2,-2,-1,-1,-3
1576747539159045,8,0,1,-2,0,0,-3,-1
1576747539160007,-1,-2,2,-4,-2,0,-3,-1
1576747539160007,2,-2,3,-1,-3,-1,-2,1
1576747539181991,-5,0,2,-1,0,-4,-3,-1
1576747539181991,-4,-3,-2,1,0,0,2,-2
1576747539182990,4,1,-1,-2,1,-2,2,0
1576747539182990,-3,-4,-2,2,-1,3,-1,-8
1576747539195956,-2,-1,-4,1,0,0,-1,-3
1576747539195956,0,-2,-1,-1,2,-4,0,1
1576747539203936,-2,-2,-1,-2,-1,-1,-1,2
1576747539203936,4,0,3,-1,0,3,-2,3
1576747539219849,1,4,-6,-4,-5,0,-3,-1
1576747539219849,-3,-1,-6,1,-1,-2,-4,-4
1576747539219849,-10,-3,-8,0,-1,-7,-3,-11
1576747539219849,8,-1,-4,0,-4,-4,0,-3
1576747539241833,-3,-1,2,-1,-2,-5,0,-3
1576747539241833,-4,-1,2,-2,-2,4,1,-3
1576747539242814,0,-2,2,-4,-4,2,0,2
1576747539242814,-2,-2,1,-1,1,4,-1,3
1576747539255796,-7,-4,1,-1,-3,-2,-2,-1
1576747539255796,2,-5,-3,-3,0,-3,-1,-2
1576747539264770,1,-3,-2,1,5,-1,-2,1
1576747539264770,6,0,-4,-3,2,-2,3,4
1576747539279726,-4,-5,-3,-2,-1,2,4,5
1576747539279726,1,1,3,-2,-6,-1,0,-2
1576747539280685,3,-1,-2,-1,-4,3,2,-3
1576747539280685,1,0,-1,-2,0,-3,-2,-4
1576747539301631,0,4,2,0,0,-1,-2,0
1576747539301631,-11,-2,-1,0,-3,1,-2,-4
1576747539302625,-1,-2,3,0,-2,-2,-2,3
1576747539302625,-4,-1,-3,0,2,-3,-1,-1
1576747539316629,2,-5,1,-3,1,-2,-3,2
1576747539316629,6,0,3,0,2,-1,1,1
1576747539324606,3,1,-3,2,-3,2,0,0
1576747539324606,-3,1,-2,-2,-3,1,-1,-1
1576747539339566,-7,0,-4,-1,-3,3,0,-3
1576747539339566,-3,-2,-1,-2,1,-1,0,4
1576747539340559,-5,-1,-1,-1,0,0,0,-2
1576747539340559,4,4,-4,-2,-1,0,0,-8
1576747539361507,5,-3,2,-3,1,-1,2,4
1576747539361507,1,-2,2,-1,-2,-1,-3,4
1576747539362465,-6,1,1,-2,-1,-3,-2,-3
1576747539362465,-8,0,-2,1,-1,-5,-1,0
1576747539376470,1,-1,-7,2,0,0,0,-8
1576747539376470,2,0,-4,-2,0,-1,1,2
1576747539384408,3,-1,1,-1,-2,0,-2,3
1576747539384408,1,-2,3,-1,-6,1,-2,3
1576747539399407,-2,0,-3,2,-1,1,0,-2
1576747539399407,-4,-2,-1,-1,-3,-2,-1,-10
1576747539400406,0,-1,-5,-2,-2,-4,-1,-3
1576747539400406,1,-1,3,0,0,0,1,0
1576747539422348,5,3,0,-1,0,-1,-3,0
1576747539422348,1,1,2,-4,-1,-3,-3,0
1576747539422348,-5,-2,2,0,-1,1,-3,-3
1576747539422348,-1,0,0,-2,-2,0,0,0
1576747539436312,-3,0,1,0,-1,1,4,1
1576747539436312,0,-4,-2,2,1,0,4,0
1576747539444301,0,1,-1,0,-1,-4,2,1
1576747539444301,-7,-3,3,-1,0,-2,-2,-2
1576747539459311,-3,-2,-2,-6,1,1,-2,-11
1576747539459311,1,1,3,-2,-4,1,-4,-5
1576747539460214,1,-1,-3,1,7,6,-5,3
1576747539460214,0,1,2,0,2,-2,-3,5
1576747539482247,-6,-2,-1,0,-3,-3,-3,0
1576747539482247,-2,0,-1,0,-4,-2,-4,0
1576747539482247,0,-3,-3,-1,-4,-4,1,1
1576747539482247,0,-1,-1,1,0,-5,2,0
1576747539496207,0,-1,-1,1,1,-4,6,4
1576747539496207,1,-1,-2,-2,1,0,0,8
1576747539504187,-1,0,0,0,1,2,-1,0
1576747539504187,-4,1,-6,-2,0,-1,-1,-1
1576747539519091,6,-2,2,0,0,0,-4,-5
1576747539519091,0,-2,3,-3,-2,-1,1,-3
1576747539520045,-2,-1,3,0,-1,0,-1,-2
1576747539520045,-4,-4,-1,-4,0,-1,-3,-3
1576747539542086,0,2,-6,-2,2,-3,-2,-3
1576747539542086,1,0,0,1,2,-2,-1,-2
1576747539542991,1,-3,2,-2,-5,-5,0,-5
1576747539542991,4,1,0,1,0,-2,4,0
1576747539564927,-7,-2,-4,2,-2,0,0,5
1576747539564927,0,2,-7,1,1,1,2,3
1576747539565965,-2,2,1,-1,-1,-1,4,-2
1576747539565965,0,-2,1,-1,1,1,-2,-6
1576747539579885,3,3,2,2,0,-2,-5,2
1576747539579885,-1,-2,-2,1,-4,-3,-7,-5
1576747539579885,2,-1,-3,-3,-6,3,-4,1
1576747539579885,-4,-2,-2,-1,-2,-3,-1,1
1576747539601826,-2,-4,-3,-4,-2,0,-3,1
1576747539601826,0,2,-1,0,3,-1,3,1
1576747539602825,1,-2,4,-3,4,0,3,-3
1576747539602825,4,-4,3,-1,0,0,0,-3
1576747539624800,-2,-3,0,3,0,1,-1,-3
1576747539624800,-5,-1,1,2,-3,-1,-2,2
1576747539624800,-2,2,-1,0,0,0,3,5
1576747539624800,-2,2,-1,3,-1,2,1,3
1576747539639726,2,0,1,-2,2,-3,0,0
1576747539639726,-1,4,0,-2,1,-3,-1,0
1576747539639726,0,1,-9,-1,5,-2,-2,0
1576747539639726,1,-5,-5,-3,-3,-1,0,-8
1576747539661718,1,0,-2,-1,-6,-3,-3,-1
1576747539661718,3,-2,-1,1,0,-4,-2,-1
1576747539662663,-2,-3,0,2,-3,-2,-4,-4
1576747539662663,-2,2,1,0,1,1,-5,6
1576747539684605,-1,1,5,-1,-3,2,-2,-1
1576747539684605,0,1,0,-1,0,0,2,-2
1576747539685602,1,-1,2,0,-1,-1,2,2
1576747539685602,7,-3,-4,0,-1,0,-1,0
1576747539699664,-4,-3,1,-2,2,1,0,-1
1576747539699664,-7,-1,-4,-2,2,-1,-1,-10
1576747539700609,6,1,3,-2,-2,-3,-3,-2
1576747539700609,-7,-2,-1,-2,-4,0,0,-4
1576747539721510,2,-4,-4,0,-2,0,3,3
1576747539721510,-2,-4,-1,-2,-4,-1,2,-1
1576747539722509,1,-1,2,0,2,0,-2,-1
1576747539722509,-2,2,2,1,-2,-2,-1,3
1576747539744545,-6,1,-3,-3,2,1,-2,3
1576747539744545,-1,-1,-1,-1,0,-1,-4,3
1576747539745479,1,1,-1,-1,-2,-5,-5,0
1576747539745479,-1,-3,1,1,4,-3,0,-3
1576747539759456,1,0,2,-1,-4,-3,2,-9
1576747539759456,2,-3,0,-1,-1,-1,2,-5
1576747539760446,0,-4,2,-1,-2,-1,2,1
1576747539760446,-3,0,-4,-1,0,0,2,2
1576747539782343,-1,0,-9,-3,1,-3,-1,2
1576747539782343,-3,0,0,-3,-1,-1,0,1
1576747539782343,1,-1,-3,1,-5,-1,-1,0
1576747539782343,-5,-3,-2,-1,0,-1,-2,-4
1576747539804288,-4,-1,-3,-1,-3,-3,-2,1
1576747539804288,0,-1,2,-1,-5,1,-2,4
1576747539805294,4,1,-2,3,1,4,-1,4
1576747539805294,-2,-1,0,-1,-4,1,1,-2
1576747539819245,0,-2,-3,2,0,1,-1,-3
1576747539819245,3,-3,3,-1,0,-1,-2,-6
1576747539820250,2,1,3,-2,-1,2,3,-2
1576747539820250,-1,0,-3,-2,-1,4,0,0
1576747539842227,0,2,-2,-3,1,0,0,5
1576747539842227,-3,-1,-5,-1,2,-2,-4,0
1576747539842227,1,-1,1,-2,-2,-8,-5,-3
1576747539842227,-1,0,1,-3,-3,-7,-1,2
1576747539864157,-3,-2,-1,1,1,-3,4,-1
1576747539864157,1,1,-4,1,-3,4,4,-2
1576747539865122,-2,-2,2,-1,0,2,-1,-4
1576747539865122,0,0,2,0,-1,2,-2,0
1576747539879132,4,1,2,0,-3,1,-3,7
1576747539879132,-3,-1,-3,-1,-1,-1,-4,2
1576747539880082,-1,-1,-3,1,1,-1,-3,-4
1576747539880082,4,2,1,2,1,-1,-1,0
1576747539902024,3,-1,2,-1,2,-3,2,-5
1576747539902024,-1,1,-4,-1,1,-3,0,-1
1576747539903023,-1,-3,-2,1,0,0,3,-1
1576747539903023,-3,-2,1,1,0,-3,-5,-1
1576747539924016,-3,0,0,-2,-3,-3,-4,-3
1576747539924016,3,-2,-3,-2,-5,1,-1,4
1576747539924962,-1,-2,-1,-2,-4,3,-1,-1
1576747539924962,-2,0,-2,-1,-2,1,0,-4
1576747539939936,5,-2,6,-2,-1,-2,1,2
1576747539939936,-1,0,0,0,3,0,1,-4
1576747539939936,-7,1,-3,-1,2,-1,3,3
1576747539939936,3,-2,1,0,1,1,2,-1
1576747539961969,-4,0,-4,-1,-2,-3,-1,-4
1576747539961969,4,0,-7,-2,-1,0,2,-3
1576747539962906,1,-4,-1,1,0,-2,-1,1
1576747539962906,-2,-1,0,-1,-3,1,0,5
1576747539984801,-3,0,3,1,-2,-2,-1,0
1576747539984801,-1,-5,7,-3,3,0,-2,0
1576747539984801,-4,1,-1,-2,0,-1,-4,0
1576747539984801,-7,1,2,-2,0,-4,-4,-2
1576747539999866,-1,-2,-5,0,-1,-3,-1,-3
1576747539999866,4,-2,-2,-1,-1,-6,1,-4
1576747539999866,-4,-4,-2,-3,-5,-3,-3,-5
1576747539999866,4,-4,-5,-1,-2,-3,-5,-2
1576747540021805,-6,-1,0,-4,-2,-1,-2,-2
1576747540021805,-5,1,-4,0,0,1,1,-1
1576747540022702,1,0,-2,-1,-1,0,2,-1
1576747540022702,3,1,1,1,-1,2,3,3
1576747540044745,4,3,2,0,-2,3,-3,3
1576747540044745,1,-2,3,1,-5,1,0,1
1576747540045639,-2,4,1,-1,-1,-3,-5,-2
1576747540045639,-2,0,-6,0,-2,-5,-2,2
1576747540059707,-2,-2,-1,0,0,0,2,2
1576747540059707,-5,0,-1,0,-2,0,-5,1
1576747540060607,2,-1,0,-2,0,0,0,-3
1576747540060607,1,0,-2,-1,4,-2,1,3
1576747540081649,2,2,0,-2,3,1,0,-3
1576747540081649,1,-2,-3,-3,0,-2,-3,3
1576747540082540,-4,-3,-1,0,2,-2,0,-1
1576747540082540,-1,-1,-2,1,1,2,0,-9
1576747540104583,-5,-1,-4,6,-2,2,-1,-3
1576747540104583,0,3,4,-2,-3,-2,-3,-1
1576747540105482,-1,-1,-3,1,-1,2,2,-1
1576747540105482,2,0,1,0,0,-1,1,-4
1576747540119514,2,-1,-1,1,0,3,-1,-2
1576747540119514,-6,-2,-2,-1,-1,-2,-1,0
1576747540120446,-2,1,-3,-4,-1,-1,2,1
1576747540120446,-1,-2,-3,-1,-3,1,-2,2
1576747540142378,0,-2,-2,0,-1,-1,1,-1
1576747540142378,3,-1,3,1,-3,-4,0,5
1576747540142378,-2,-2,-2,-2,-4,-3,0,5
1576747540142378,-5,-5,-1,-3,-3,-3,1,-2
1576747540164326,0,-2,0,-3,2,-1,-5,-2
1576747540164326,-1,-2,-6,3,0,1,1,-1
1576747540165323,2,-3,-3,-1,1,1,-1,1
1576747540165323,2,-1,-3,-3,1,1,-1,-6
1576747540179380,-1,-2,1,-5,1,-2,4,2
1576747540179380,3,-2,1,-1,-2,-3,0,-1
1576747540180278,-6,-2,2,-2,-2,3,-5,-7
1576747540180278,-2,-2,-1,-2,-1,4,-6,-2
1576747540202254,3,2,1,-2,0,0,-5,1
1576747540202254,-5,3,1,0,6,-1,1,-1
1576747540202254,1,1,2,-1,4,-1,1,4
1576747540202254,-5,-2,-2,-1,1,-4,2,-2
1576747540224259,-4,1,-2,2,-2,-5,1,-1
1576747540224259,0,-1,-2,-4,-4,-2,-3,-3
1576747540225166,-2,2,1,3,-2,0,-1,-1
1576747540225166,-1,-2,1,-1,-3,1,1,2
1576747540239169,-5,0,-3,-4,-5,2,0,-4
1576747540239169,-1,0,-2,1,-6,0,-3,-3
1576747540247198,4,1,-1,0,-1,-5,-2,-1
1576747540247198,2,4,0,3,3,-5,-2,-6
1576747540262162,0,-4,-1,-1,1,0,-4,-2
1576747540262162,-5,1,-5,-2,2,-3,2,2
1576747540263056,-3,-2,-2,-2,-1,1,0,1
1576747540263056,-1,-2,1,-4,-6,-2,-1,6
1576747540284001,3,1,2,-1,-3,4,-4,-2
1576747540284001,-3,-2,1,-1,2,0,2,-6
1576747540285002,5,0,-6,0,-1,-7,0,-4
1576747540285002,-2,-2,-3,-1,1,-6,-5,-3
1576747540299069,-3,0,2,4,1,-1,-4,-5
1576747540299069,3,-3,-1,-2,1,2,0,-1
1576747540307046,-3,1,-2,3,2,2,-4,-1
1576747540307046,0,0,2,2,-2,2,0,2
1576747540322003,-6,0,2,-2,1,3,0,2
1576747540322003,-2,0,1,-1,3,-2,-2,0
1576747540322903,2,-1,0,-2,-3,-1,0,0
1576747540322903,-4,1,-4,-4,-2,0,-2,-4
1576747540344885,3,-5,-3,1,-3,-1,3,-1
1576747540344885,1,1,-2,-1,-3,1,1,-2
1576747540344885,-2,-1,0,-2,-2,1,0,1
1576747540344885,-1,-2,-5,-2,-2,-3,-3,-2
1576747540358908,-4,1,-1,-2,-1,-4,-1,2
1576747540358908,1,-2,1,1,1,0,-2,-8
1576747540366881,-1,-1,1,-2,-1,0,0,-7
1576747540366881,-2,2,-1,2,3,2,0,1
1576747540381844,4,-5,-1,-2,1,-2,4,4
1576747540381844,-1,-2,2,-1,1,1,-1,0
1576747540382739,3,1,2,0,-2,0,0,7
1576747540382739,1,2,-2,-2,-3,0,-1,2
1576747540404797,4,0,-3,-4,-4,-1,-2,-7
1576747540404797,-4,-1,-1,1,-1,1,-2,-1
1576747540404797,-5,-1,-1,1,1,2,-4,-1
1576747540404797,-1,-2,2,-1,1,-5,-4,-4
1576747540418686,-5,0,-3,-3,-2,-5,-3,3
1576747540418686,1,-2,-2,-2,-4,-2,2,3
1576747540426724,0,0,-2,1,-2,0,1,4
1576747540426724,1,1,0,0,-1,2,6,5
1576747540441610,0,-1,0,-1,1,0,1,-3
1576747540441610,-1,-1,1,-1,2,0,1,-3
1576747540442579,-2,0,2,-4,-2,-3,-2,-6
1576747540442579,6,-2,-3,3,-1,1,-2,-2
1576747540464625,-3,1,-4,1,-3,1,-3,-2
1576747540464625,0,1,1,-1,-3,-1,-3,4
1576747540465561,-5,-2,-1,-2,-1,-7,0,-1
1576747540465561,1,-2,1,1,3,0,2,-1
1576747540478586,-3,-2,0,-1,2,-2,4,1
1576747540478586,-2,0,0,2,-1,0,-3,-4
1576747540487457,2,-1,-1,-2,1,-1,-1,0
1576747540487457,-8,-1,0,-6,0,4,-6,0
1576747540501467,1,-1,1,-1,1,-2,-6,-2
1576747540501467,0,0,0,-1,-1,-2,-6,-1
1576747540509502,2,1,0,2,-1,-1,1,-5
1576747540509502,-4,-1,-4,1,3,0,3,-5
1576747540524460,-2,-4,-2,-3,-1,-4,0,-2
1576747540524460,-4,0,2,0,-3,-6,1,2
1576747540525392,-7,0,-2,-1,-3,-2,1,-3
1576747540525392,4,-1,2,-3,-5,1,2,-1
1576747540539318,2,-3,-1,3,-2,3,-1,0
1576747540539318,-3,1,-2,3,-1,2,0,-2
1576747540547373,2,0,-4,-1,1,2,-1,-2
1576747540547373,-2,-2,-1,-3,-4,-3,-1,-2
1576747540562366,1,1,-4,1,-1,-2,1,-1
1576747540562366,-1,1,-2,-1,-3,-4,-3,4
1576747540562366,1,-1,5,-3,-2,-3,-2,2
1576747540562366,-3,-3,-2,0,-1,0,2,2
1576747540584198,-3,-1,5,-1,3,2,-1,-4
1576747540584198,-2,0,2,-3,0,1,1,-2
1576747540585199,-4,3,-1,2,0,-1,-2,-3
1576747540585199,-3,0,-5,-1,0,-1,-6,-3
1576747540599204,-1,0,1,-1,-1,-1,-2,-3
1576747540599204,-2,-4,-1,-1,0,0,-2,0
1576747540607138,-2,-3,1,-3,0,-1,3,-1
1576747540607138,-4,0,2,3,0,-2,1,-1
1576747540622196,-2,0,0,1,0,0,-2,4
1576747540622196,5,2,-5,-2,0,-2,-3,-5
1576747540623104,0,-6,-4,-3,-1,-5,-5,-5
1576747540623104,-1,1,1,-1,1,-2,-2,-3
1576747540644145,0,-1,0,-2,2,0,-3,-4
