timestamp,emg1,emg2,emg3,emg4,emg5,emg6,emg7,emg8
1529257006004935,-7,-1,-3,-14,-4,-2,1,1
1529257006004935,3,1,1,9,-6,15,3,5
1529257006019895,2,-4,-4,-1,-7,13,-10,-11
1529257006019895,-6,-3,-3,-16,7,-27,6,23
1529257006025879,-3,0,-2,-10,-41,10,-17,-12
1529257006025879,3,0,-5,-45,-16,-5,-12,-7
1529257006042834,5,-2,-5,15,10,31,-6,10
1529257006042834,-12,-3,7,44,29,11,22,-1
1529257006043836,1,-3,-2,-7,-5,8,-3,-2
1529257006043836,-3,0,-3,-22,-28,28,18,3
1529257006055799,14,3,6,29,16,-1,-15,20
1529257006055799,-26,-7,-7,-28,-5,15,-8,-21
1529257006064775,-3,1,1,-4,7,-22,0,10
1529257006064775,6,1,0,11,2,-2,-5,5
1529257006079735,3,-3,-4,-12,-8,1,7,10
1529257006079735,17,0,-5,-21,-10,12,4,22
1529257006085719,-14,-2,-2,-25,1,-17,-9,-3
1529257006085719,-9,-5,-9,-53,-25,-10,-1,-24
1529257006102674,1,4,15,107,59,1,20,7
1529257006102674,4,-4,-16,-84,-25,20,-8,-11
1529257006103671,3,-2,-3,-17,13,-6,-6,0
1529257006103671,1,-2,-2,-42,-27,-12,1,13
1529257006124615,-4,4,15,68,23,22,25,-10
1529257006124615,0,-2,-3,47,48,-20,-7,2
1529257006126615,1,1,0,-9,-4,3,7,-1
1529257006126615,-6,0,-1,-7,-11,-7,-10,-10
1529257006139575,-4,-2,-8,-42,-20,-6,-5,-11
1529257006139575,13,0,1,-18,-37,-13,-13,32
1529257006146556,1,-3,-4,-8,-8,-5,-4,25
1529257006146556,-12,1,8,48,21,1,-8,-40
1529257006162514,-2,0,-5,-43,-21,-27,-12,-9
1529257006162514,-1,3,6,13,0,-5,-13,-12
1529257006164509,-3,0,1,10,7,-10,2,-20
1529257006164509,-7,-4,-5,-11,-3,7,3,16
1529257006185452,0,-3,-1,9,0,1,2,17
1529257006185452,-6,-2,-6,-64,-45,-7,7,-10
1529257006186450,6,3,10,62,38,-7,-19,-9
1529257006186450,-2,-5,-4,27,12,25,11,0
1529257006199415,2,1,1,2,-2,-9,-24,2
1529257006199415,11,3,0,-6,-8,-16,12,-10
1529257006206397,-13,-2,2,6,-3,10,9,-22
1529257006206397,6,0,-5,-18,-8,-2,3,27
1529257006222354,-4,-2,-3,-18,-4,-5,-1,-2
1529257006222354,-7,-1,1,9,10,-7,-6,-21
1529257006224349,10,1,-4,-26,-33,7,3,1
1529257006224349,13,2,2,16,40,-9,-7,47
1529257006245292,-6,-1,-5,-17,-7,9,-47,-61
1529257006245292,-6,-3,-2,3,-16,-22,35,17
1529257006246290,2,-1,0,-2,42,10,4,11
1529257006246290,-17,-3,2,22,-10,-6,9,0
1529257006258258,-3,-4,-4,-45,-15,8,16,10
1529257006258258,11,1,0,20,5,13,-5,1
1529257006267234,4,3,5,40,19,16,3,-9
1529257006267234,-1,-4,1,16,0,15,18,-13
1529257006282194,1,-2,-2,-29,6,-2,8,2
1529257006282194,-7,-2,0,-10,0,-6,-20,-16
1529257006284189,-5,-6,-6,-6,-21,1,19,2
1529257006284189,5,2,-2,2,-1,-11,-2,-12
1529257006305132,-4,-2,-1,1,-16,2,-6,10
1529257006305132,13,4,3,1,2,5,-7,23
1529257006307128,-10,-1,-2,12,-5,-2,-4,4
1529257006307128,1,2,2,-5,-1,-15,-18,-26
1529257006319095,-10,-5,-4,6,-5,-9,-5,1
1529257006319095,-13,-4,-7,-8,-5,8,-11,7
1529257006328071,2,0,-2,-19,-5,-5,0,-15
1529257006328071,2,-1,-2,-4,-17,-5,-1,3
1529257006342034,-1,0,0,13,12,-9,7,5
1529257006342034,-5,-2,-5,4,-2,22,-5,-10
1529257006344029,6,-1,-2,-6,31,0,-8,-4
1529257006344029,-3,-4,-2,-3,-3,2,2,3
1529257006364973,-2,-1,-4,-15,-9,-2,12,6
1529257006364973,6,-3,-3,0,15,-5,-2,7
1529257006366968,-4,-1,0,-1,-29,-7,-4,-7
1529257006366968,2,2,-1,4,4,6,4,13
1529257006378935,2,2,-1,-8,2,-11,-3,-1
1529257006378935,-3,0,2,-3,0,-8,-26,-47
1529257006387912,-6,-3,-4,-18,-21,-3,-5,4
1529257006387912,-4,0,2,10,5,-8,-12,-21
1529257006402871,-3,-2,-2,-8,-16,16,13,-3
1529257006402871,-8,0,0,6,3,-4,12,1
1529257006403869,-2,0,0,-4,-3,-2,8,28
1529257006403869,13,-1,-3,-4,-5,-5,-6,9
1529257006424813,-6,0,-1,7,6,-1,-5,-8
1529257006424813,13,1,2,-22,-10,-2,8,16
1529257006426817,-17,-1,4,32,27,-15,3,-10
1529257006426817,6,1,2,-10,-5,2,1,12
1529257006438775,1,1,2,30,1,-7,-6,-8
1529257006438775,1,0,-1,-4,17,-2,1,-4
1529257006447752,0,-2,-1,-13,-17,-9,-9,0
1529257006447752,1,-4,0,14,1,0,-11,-13
1529257006462711,-3,0,3,10,17,-5,12,4
1529257006462711,-5,3,3,-4,-6,25,16,-2
1529257006463709,7,-2,-6,-15,-5,12,10,14
1529257006463709,-4,-2,-1,8,-4,-18,10,-8
1529257006484653,-1,3,0,-10,-7,-1,3,2
1529257006484653,0,-5,-2,8,3,-7,0,12
1529257006486648,8,1,-3,-15,-10,2,2,4
1529257006486648,2,2,0,5,1,8,-5,-7
1529257006498615,-22,-8,-8,-16,-12,-10,-13,14
1529257006498615,-4,1,0,4,-1,-9,3,-10
1529257006507592,14,-4,-1,-1,-4,0,-6,0
1529257006507592,-34,-2,0,-16,-2,-7,-7,-3
1529257006522551,4,-2,-3,8,-3,-13,5,-27
1529257006522551,-4,3,1,10,4,-4,-19,-20
1529257006524546,24,3,-2,-28,-44,-9,-8,16
1529257006524546,-9,-1,2,24,39,14,5,-7
1529257006544493,9,-3,-3,-22,-7,-4,3,1
1529257006544493,-8,-4,-1,28,1,-7,4,-3
1529257006546488,-2,0,-6,-75,-23,-10,4,-4
1529257006546488,12,3,3,66,-10,-1,-11,11
1529257006558455,-9,0,4,2,15,31,-21,-13
1529257006558455,11,0,1,-9,2,-28,-7,4
1529257006567432,-15,-6,-4,9,-2,-3,-1,-12
1529257006567432,-5,-6,-7,-38,-28,-5,2,-2
1529257006582392,4,3,2,-2,8,7,-1,4
1529257006582392,1,-3,-4,5,-4,-2,0,12
1529257006584386,-27,-5,-2,5,6,5,0,-3
1529257006584386,-1,-2,-2,-17,-1,-4,7,0
1529257006605330,-1,0,3,10,-10,-6,4,-9
1529257006605330,5,-1,-3,-18,2,5,-5,3
1529257006606328,7,3,0,24,12,-8,6,10
1529257006606328,1,0,0,-10,7,4,0,-2
1529257006618295,2,-1,-5,-9,-3,5,8,18
1529257006618295,-10,-7,0,-1,-2,2,-8,-8
1529257006627271,-4,3,2,18,17,30,-12,-21
1529257006627271,7,3,0,-2,-1,5,2,-5
1529257006642231,9,1,-3,-9,-12,-16,-3,16
1529257006642231,-3,0,0,-4,0,27,24,12
1529257006644227,3,-1,-2,-16,3,-3,-13,-4
1529257006644227,7,1,6,26,21,-9,1,1
1529257006665170,-11,-1,-3,-7,-10,-5,24,7
1529257006665170,-2,-3,-2,7,0,-3,-16,-7
1529257006666168,12,1,3,0,-10,6,4,7
1529257006666168,-20,-7,-6,-27,-27,4,1,1
1529257006679133,6,-1,0,22,10,-16,-9,3
1529257006679133,6,3,-2,5,6,-4,7,18
1529257006688109,-12,-4,-4,5,-5,-10,-7,-32
1529257006688109,10,2,-3,-14,-5,1,-6,1
1529257006702071,2,-1,3,3,-1,2,-2,-8
1529257006702071,-7,0,2,-8,-3,1,-3,-5
1529257006704066,7,-2,-3,6,3,-12,2,-2
1529257006704066,-4,-2,-2,-9,0,-1,1,-7
1529257006725010,1,0,-4,-10,6,0,-6,4
1529257006725010,-2,2,1,1,-4,-8,-7,-32
1529257006727005,3,-1,1,5,7,3,-1,22
1529257006727005,-4,0,0,-1,-1,-7,2,21
1529257006738973,-7,-2,-3,-4,-14,18,-4,-17
1529257006738973,2,0,0,1,-4,2,-1,1
1529257006747949,-1,-1,-3,6,4,8,7,0
1529257006747949,5,1,-1,-5,3,4,3,7
1529257006761911,5,1,4,2,-3,-6,-4,3
1529257006761911,-11,-5,-8,-4,25,-5,-2,-20
1529257006768893,-4,-1,-2,0,5,-2,3,-10
1529257006768893,3,3,4,3,-1,-2,-3,-5
1529257006784850,0,-3,-2,-1,1,-5,6,3
1529257006784850,1,1,-1,-1,-6,6,-1,0
1529257006786845,-3,-2,-3,2,-7,-20,2,10
1529257006786845,5,0,-4,-15,3,1,-2,7
1529257006798813,-6,-2,0,4,-3,14,-2,5
1529257006798813,0,-3,-2,2,-5,28,12,1
1529257006807789,-1,0,1,3,3,-27,-23,-7
1529257006807789,3,0,-2,-14,-10,4,1,11
1529257006821751,-2,0,1,-13,6,-7,-6,-12
1529257006821751,8,4,3,5,-3,-7,0,9
1529257006828733,-4,1,2,-1,0,0,-4,-1
1529257006828733,-6,-2,-4,9,7,5,-2,-18
1529257006844690,5,-1,-5,-22,-16,-30,-8,8
1529257006844690,3,1,1,2,0,-16,-5,8
1529257006846685,-3,0,1,8,2,26,22,8
1529257006846685,-3,-2,-2,-5,-4,-8,-3,-10
1529257006858653,1,-1,0,-2,0,10,5,17
1529257006858653,-1,0,-1,-5,-4,15,14,8
1529257006867630,-1,2,4,8,1,-23,-9,-9
1529257006867630,-8,-7,-5,-19,-3,11,-2,-3
1529257006881592,4,-1,-2,19,-5,-14,-2,-10
1529257006881592,-10,0,2,5,9,-3,-2,0
1529257006888573,1,-4,-8,-33,-7,8,0,5
1529257006888573,2,7,10,56,13,1,-5,-10
1529257006904530,7,1,-1,-7,-10,4,0,-5
1529257006904530,-6,-3,-3,-5,37,3,1,15
1529257006906525,8,-2,-2,0,-2,-22,-16,7
1529257006906525,-12,-3,-6,-10,-14,-17,-8,-28
1529257006918493,-7,-2,0,5,5,22,5,-18
1529257006918493,2,-3,-6,-3,-22,-49,-20,3
1529257006927469,1,0,1,1,3,2,10,20
1529257006927469,6,1,-7,-52,-22,-3,7,3
1529257006941431,0,2,9,87,41,8,2,-1
1529257006941431,-3,-2,-2,-8,-7,7,-7,-19
1529257006948413,-5,-2,1,6,1,9,1,-2
1529257006948413,-6,-3,-2,1,-8,8,7,7
1529257006965368,1,-2,-4,-30,-14,-42,-10,0
1529257006965368,2,1,2,6,3,1,2,-9
1529257006966365,5,-1,-5,-36,-23,3,-4,2
1529257006966365,7,7,12,60,43,17,2,-3
1529257006978333,-3,-1,-3,-9,1,5,2,11
1529257006978333,-5,-1,-2,4,-6,-3,-3,-13
1529257006987309,-3,0,2,-2,-4,3,-11,-22
1529257006987309,-6,-4,-2,-16,-4,-12,-5,-22
1529257007002269,3,2,0,-19,-6,4,-9,9
1529257007002269,9,1,0,-9,-27,-1,9,15
1529257007008253,-4,0,2,34,30,-3,-9,-6
1529257007008253,-7,-5,-4,-1,-7,-5,-7,-3
1529257007025208,1,-1,-2,6,5,-1,1,-10
1529257007025208,0,-1,0,-15,-8,7,5,3
1529257007026205,-1,-2,0,-1,-5,2,0,-4
1529257007026205,-5,-9,-14,-34,-4,-20,-12,3
1529257007047149,-3,1,2,-21,1,-1,7,-22
1529257007047149,1,0,1,34,5,11,-4,10
1529257007049144,-17,-2,0,14,7,11,8,-13
1529257007049144,11,0,-2,-15,-17,-4,-1,12
1529257007062109,-8,-3,-3,-16,-8,6,6,-2
1529257007062109,0,2,0,-5,5,-11,-8,-10
1529257007069090,4,2,0,-2,-5,-3,-1,10
1529257007069090,0,0,0,5,0,15,5,-2
1529257007085047,1,0,-2,-4,2,1,0,10
1529257007085047,-2,-2,2,7,1,-1,-2,-4
1529257007087043,1,-3,-7,-5,-9,-1,4,7
1529257007087043,2,5,10,3,1,7,-1,5
1529257007107987,0,-2,1,11,10,6,3,-11
1529257007107987,-7,-5,-6,-13,-6,-13,-8,-7
1529257007108985,1,-3,-8,-67,-54,-5,3,9
1529257007108985,2,1,8,76,65,11,1,-9
1529257007121949,-8,-4,-3,-4,-10,-13,-6,-15
1529257007121949,-3,-1,-1,-22,-6,-44,-14,12
1529257007128931,4,-3,-7,-2,-8,39,5,-3
1529257007128931,4,1,4,12,3,1,-12,3
1529257007144889,-1,-4,-3,-8,-6,34,39,3
1529257007144889,-2,1,1,3,7,-8,-5,-15
1529257007146884,6,2,2,2,10,-4,5,7
1529257007146884,-3,-1,-4,-24,-13,-3,-1,13
1529257007167827,-1,1,2,24,10,7,0,1
1529257007167827,4,-1,-3,-20,-13,7,6,-1
1529257007168824,-6,0,4,15,13,-6,-3,-11
1529257007168824,-2,-2,-3,-6,-9,16,23,3
1529257007180792,2,1,1,-3,-6,-5,-18,12
1529257007180792,1,-1,-2,5,-1,13,13,-6
1529257007189768,-5,1,4,20,10,-14,-4,1
1529257007189768,0,-6,-5,-9,-8,-18,-6,1
1529257007204728,1,-1,-3,-11,-4,-15,-9,0
1529257007204728,3,-1,-3,3,0,-5,-6,5
1529257007206723,-2,-2,0,15,9,6,5,5
1529257007206723,0,-1,-5,-32,-17,-9,5,4
1529257007227667,0,0,-1,12,14,10,-6,-13
1529257007227667,-5,-1,-6,-75,-26,7,-1,6
1529257007228664,1,3,9,79,36,0,-5,-11
1529257007228664,5,-1,1,18,6,1,-22,12
1529257007240632,-4,0,-2,-5,-5,-18,-7,-11
1529257007240632,1,-1,3,5,8,6,2,10
1529257007250606,5,3,-2,-31,-15,6,-11,-8
1529257007250606,2,0,-4,-10,-8,-10,-2,8
1529257007264568,2,-4,2,8,2,12,13,4
1529257007264568,-10,-1,-1,12,2,-7,-24,-21
1529257007266563,3,-5,1,-8,-3,-23,10,34
1529257007266563,-3,1,1,11,3,1,2,-14
1529257007287506,-3,-2,-3,-19,-9,-8,-10,1
1529257007287506,3,-4,-2,11,0,3,-1,-1
1529257007289501,-5,-2,-4,-2,-1,-3,-5,-4
1529257007289501,2,4,1,-10,-2,-5,1,9
1529257007301469,-9,-3,-3,-9,-6,1,3,6
1529257007301469,12,4,1,16,5,1,-1,5
1529257007310446,-5,-4,-5,-2,4,3,1,-7
1529257007310446,-1,-2,-7,-13,-10,2,12,4
1529257007325405,1,6,5,4,2,-7,-10,-10
1529257007325405,0,2,2,18,9,15,6,4
1529257007326403,-6,-7,-4,-16,-7,-9,-8,-13
1529257007326403,-3,0,1,-5,-4,1,-6,-2
1529257007347347,0,-3,-3,-4,-6,-4,8,16
1529257007347347,-11,-7,-4,1,3,19,25,11
1529257007349341,2,2,0,-5,-5,-5,1,-8
1529257007349341,-3,-4,-1,2,4,6,2,-5
1529257007361309,1,-1,-3,-1,-1,-4,-12,13
1529257007361309,-1,3,1,3,-1,0,7,-9
1529257007370286,-2,-5,-3,-4,-4,-5,-2,5
1529257007370286,-4,-1,0,2,-2,8,13,-2
1529257007385245,-1,1,-1,-4,-2,-9,-4,-12
1529257007385245,1,0,-2,0,-1,-4,-2,4
1529257007386243,-2,2,3,1,1,2,-2,-28
1529257007386243,-5,1,1,-2,-3,-15,-15,-23
1529257007407186,6,-3,-4,-4,1,22,-1,40
1529257007407186,9,3,1,6,2,-1,1,24
1529257007409182,0,3,0,-1,-1,-4,-13,-28
1529257007409182,-9,-6,-2,-15,0,21,12,-9
1529257007421149,-3,-3,-3,20,-1,-6,0,-10
1529257007421149,-10,-6,-3,2,-2,-8,5,-1
1529257007430126,0,-4,-6,-9,-3,3,-1,4
1529257007430126,7,6,1,6,-1,-1,0,-13
1529257007445085,0,-2,-8,-31,-16,-11,-4,-5
1529257007445085,4,7,4,6,13,21,3,-4
1529257007447080,-1,1,3,27,2,-1,8,8
1529257007447080,3,-4,-3,0,-1,-19,8,0
1529257007467027,-2,-1,0,-14,-1,-8,1,-7
1529257007467027,-1,-2,0,6,-3,-6,-10,-8
1529257007469022,-7,-2,-1,0,5,5,-8,-6
1529257007469022,-4,-1,-1,-4,-8,-24,-1,0
1529257007480989,0,4,1,5,4,5,1,21
1529257007480989,-3,-1,-1,-3,-4,-4,27,-29
1529257007489965,-2,-1,-4,-12,-6,-8,6,18
1529257007489965,2,-4,-1,6,-4,-8,-4,11
1529257007504925,0,-3,0,4,4,-9,-8,-4
1529257007504925,-1,-2,-2,-9,-5,19,6,-11
1529257007506920,4,2,1,-2,3,3,2,6
1529257007506920,-3,-1,-3,2,-9,1,6,10
1529257007527864,-1,-3,0,0,3,9,4,-1
1529257007527864,-1,-1,-2,1,2,0,-11,5
1529257007528862,4,3,3,4,2,-2,1,3
1529257007528862,0,-1,0,-5,-1,18,4,4
1529257007540829,-4,0,1,4,1,-15,-11,-6
1529257007540829,-5,-1,-2,2,-6,-23,-21,-9
1529257007549805,7,-1,-3,-20,0,11,9,17
1529257007549805,0,1,3,20,3,2,7,3
1529257007564765,1,-2,-1,12,3,-4,14,-2
1529257007564765,1,-3,-3,-5,1,0,-3,18
1529257007566760,-1,1,1,-2,-9,-12,-5,-14
1529257007566760,0,-4,-5,-13,0,-4,-5,6
1529257007587704,-3,-1,1,1,8,27,4,-49
1529257007587704,6,-1,1,5,-2,-30,-6,21
1529257007588702,-8,-5,-5,-8,1,28,-2,-2
1529257007588702,3,1,0,-2,-1,-33,-24,-15
1529257007601667,1,0,-1,0,-4,-8,-3,21
1529257007601667,-2,-1,-1,-6,-2,-1,-9,-28
1529257007609645,-2,0,-1,2,6,9,2,-1
1529257007609645,-3,-1,-2,-1,-1,29,11,6
1529257007624605,0,-1,-2,-1,0,-14,-7,-4
1529257007624605,-1,-2,0,-3,0,3,-11,-3
1529257007626601,2,-4,-3,-3,-3,0,7,12
1529257007626601,2,6,7,13,5,14,4,2
1529257007647544,-1,-1,-2,-5,-4,-4,2,5
1529257007647544,2,3,2,4,1,2,-2,-6
1529257007649539,0,2,1,4,-1,-9,2,18
1529257007649539,0,-4,-6,-11,-4,-16,-12,-9
1529257007661507,0,-2,-2,-7,-6,-2,6,8
1529257007661507,-4,0,-1,-2,-2,10,-7,-7
1529257007670483,1,-1,0,1,-5,-7,13,14
1529257007670483,-4,2,0,0,2,4,-9,-42
1529257007685443,2,2,1,-19,-5,-3,-14,29
1529257007685443,-3,-5,-1,24,0,-18,0,-5
1529257007686441,0,1,-1,8,5,12,-4,-8
1529257007686441,-2,-3,-3,-6,-5,8,10,11
1529257007707384,-3,-2,-3,-1,0,2,3,-20
1529257007707384,-8,-4,-5,-14,-3,4,2,-7
1529257007709379,4,3,1,0,1,-8,-11,-6
1529257007709379,-4,0,0,2,3,-7,-5,6
1529257007721347,1,-2,-4,-2,-2,8,4,1
1529257007721347,-1,-2,-3,-7,-2,2,-3,-2
1529257007730323,-4,-3,-1,4,-1,8,3,3
1529257007730323,-4,-3,-2,-7,-2,-21,-10,0
1529257007745283,-1,0,-1,4,1,20,2,-5
1529257007745283,-1,0,-1,-3,-6,15,16,1
1529257007746280,0,1,2,11,12,-13,-6,-12
1529257007746280,2,0,0,0,-1,6,7,11
1529257007767224,-2,-3,-3,-1,-7,-15,-1,-9
1529257007767224,0,-1,1,1,6,-9,-7,7
1529257007769219,3,0,2,3,0,-2,-12,-6
1529257007769219,-6,-1,2,-2,6,-3,-2,7
1529257007781187,4,3,2,4,2,2,6,-24
1529257007781187,4,-1,-5,-13,-10,-11,-6,33
1529257007790163,6,1,1,20,4,-4,6,19
1529257007790163,-6,-1,-1,0,0,1,-4,-8
1529257007804125,-1,0,1,4,1,-2,3,3
1529257007804125,-7,-2,-2,-13,-2,7,10,5
1529257007811107,2,-4,-6,-14,-7,-6,-7,-4
1529257007811107,9,-4,-7,-3,-6,-1,-9,12
1529257007827064,-4,2,-1,-7,-6,-6,-10,-11
1529257007827064,-2,0,0,11,7,9,6,13
1529257007829059,-11,0,2,1,2,-3,-2,-21
1529257007829059,4,-2,-2,-9,-8,2,0,10
1529257007841027,-8,-4,-4,-38,-12,-16,-2,1
1529257007841027,-4,-8,-7,2,-1,16,0,-12
1529257007850003,4,4,3,39,8,-17,-17,-15
1529257007850003,3,-1,-5,-21,-14,0,-4,-10
1529257007863965,3,2,3,26,30,13,11,5
1529257007863965,-3,1,-2,-21,-35,-17,-17,-4
1529257007870947,-5,0,-2,-16,10,7,12,-7
1529257007870947,0,3,0,-2,0,1,-5,-18
1529257007887901,0,-9,-6,-7,-13,11,17,2
1529257007887901,-2,1,6,13,2,3,-13,8
1529257007888899,-8,-7,-6,-17,-13,-9,-2,33
1529257007888899,2,2,1,3,0,-13,-5,-1
1529257007900867,1,2,0,4,-1,13,6,2
1529257007900867,5,0,1,22,17,1,6,-4
1529257007909843,-3,-4,-3,-14,-11,7,-1,-34
1529257007909843,-1,-2,-2,-7,5,-11,-1,42
1529257007924803,-8,-1,1,-12,-11,-6,-1,1
1529257007924803,6,4,4,23,15,-3,-5,3
1529257007930787,-1,0,-4,-13,-6,-1,3,-10
1529257007930787,-5,0,2,1,-4,14,35,10
1529257007947741,-2,5,6,17,12,-15,-27,-27
1529257007947741,12,0,-1,-14,-7,-3,-8,-7
1529257007948739,-5,-2,-3,-17,-8,27,5,-34
1529257007948739,4,1,3,5,0,-38,-41,-27
1529257007969683,-2,-4,-1,-3,4,-13,9,34
1529257007969683,-4,1,0,2,-6,-32,4,3
1529257007971678,0,-4,-3,4,3,13,6,14
1529257007971678,-3,-4,-1,13,3,18,15,16
1529257007984643,3,2,3,6,-2,5,-6,-11
1529257007984643,-2,-4,-3,-15,-2,-14,-10,-25
1529257007991624,-3,-1,-1,-13,-13,-11,-3,-10
1529257007991624,-1,1,-1,5,12,24,20,1
1529257008007582,3,-3,-3,2,-8,-6,0,17
1529257008007582,-4,0,1,-5,4,16,7,-30
1529257008009577,1,1,0,18,3,-11,-1,-14
1529257008009577,-5,-5,-7,-35,-29,-1,-6,-17
1529257008029523,1,-4,-1,30,1,-13,-25,3
1529257008029523,8,2,-1,6,39,28,-17,0
1529257008031518,-5,1,2,-2,-11,14,24,32
1529257008031518,-1,0,0,-12,-5,-45,-47,-41
1529257008044483,1,-1,-4,0,-10,15,9,-13
1529257008044483,-17,-4,-4,-14,-16,-5,0,14
1529257008051464,11,3,0,11,13,-7,-4,39
1529257008051464,-6,-2,-3,-9,-9,18,7,-22
1529257008067421,-14,1,1,3,11,8,10,-36
1529257008067421,7,-1,1,8,1,-7,9,42
1529257008069416,-6,-3,-3,-16,-4,-1,-9,-14
1529257008069416,21,1,1,13,4,5,14,16
1529257008090360,-35,-8,-3,-12,-4,0,-10,-13
1529257008090360,-4,-1,-2,1,0,2,5,-15
1529257008091358,0,-2,-1,-12,-8,-13,4,18
1529257008091358,10,-1,-6,-5,1,29,10,26
1529257008104323,8,4,6,33,17,-15,-16,4
1529257008104323,6,-1,-2,-2,-4,2,10,16
1529257008111304,3,5,6,1,1,8,-9,-6
1529257008111304,-1,-2,1,5,9,-18,-3,-25
1529257008127262,-9,-2,-4,-21,-8,7,3,-5
1529257008127262,-8,-2,0,-8,-13,-4,11,-15
1529257008129256,1,0,-4,-10,3,0,-20,-5
1529257008129256,6,2,5,42,17,15,16,36
1529257008150200,4,-2,-5,-8,-30,-7,-3,-16
1529257008150200,1,2,2,4,30,-3,-5,-15
1529257008151198,4,-1,0,-4,-2,1,-4,9
1529257008151198,-12,-4,-2,-8,-5,-1,-1,1
1529257008163165,6,-2,-2,-8,-3,-2,1,8
1529257008163165,0,0,-2,-1,-14,-6,4,4
1529257008173139,-8,1,1,-4,-1,-9,13,-23
1529257008173139,-5,0,2,5,6,1,-1,8
1529257008187101,8,-2,-1,-13,-7,-12,-6,-10
1529257008187101,5,1,0,2,10,14,8,-2
1529257008189097,-5,-3,-2,6,8,-7,-5,-1
1529257008189097,-2,-1,1,14,1,4,-10,-4
1529257008210040,7,-2,-3,-9,1,0,6,33
1529257008210040,-13,-2,-3,-17,-18,6,-14,2
1529257008212035,4,1,1,4,-10,-12,7,10
1529257008212035,-6,-1,-2,-4,2,-1,1,-4
1529257008224003,5,-4,-5,-8,-4,2,2,-1
1529257008224003,-16,-5,0,1,-3,-8,-10,-14
1529257008232979,4,0,-1,3,3,0,-6,5
1529257008232979,0,-2,-3,-12,-2,-3,3,7
1529257008247939,1,1,-1,15,6,2,4,12
1529257008247939,7,3,1,-1,-4,2,6,1
1529257008248937,3,1,-1,0,-1,5,5,5
1529257008248937,-2,-1,-2,-5,-4,8,15,-1
1529257008269880,4,1,1,0,0,-3,-10,-6
1529257008269880,-1,-2,-4,-13,-1,-14,-7,-8
1529257008271875,-2,1,3,18,4,11,-5,-4
1529257008271875,2,2,-2,1,4,11,6,-3
1529257008283843,-3,0,2,2,5,8,5,-2
1529257008283843,3,-6,-6,-8,-11,-15,-16,10
1529257008292819,-13,-4,-5,-7,-6,-20,-1,-7
1529257008292819,0,2,0,-9,-3,-4,-12,-15
1529257008307779,3,1,-1,10,1,6,2,-21
1529257008307779,1,-1,-1,-20,-19,-19,-22,-1
1529257008308777,7,-1,1,20,39,7,14,-4
1529257008308777,-15,-5,-2,-3,-8,-12,-14,-6
1529257008329721,-5,-1,3,18,24,-10,10,6
1529257008329721,3,1,0,17,-4,13,4,-16
1529257008331715,6,0,-1,-3,-18,1,-3,12
1529257008331715,-3,-1,-1,-16,-8,-14,-11,-1
1529257008343683,6,1,-2,-15,-6,-5,9,8
1529257008343683,-1,0,-1,7,-3,4,3,1
1529257008352659,13,0,-2,-18,-5,-5,5,17
1529257008352659,-2,-3,-1,11,1,-3,0,17
1529257008367619,4,0,0,-7,-6,0,-13,-9
1529257008367619,2,-2,-1,5,7,2,14,2
1529257008368617,-23,-6,-2,-1,-5,-1,-4,1
1529257008368617,5,-1,-3,0,3,-6,-3,-4
1529257008389560,3,3,3,5,-4,5,0,6
1529257008389560,9,2,1,-6,9,19,3,6
1529257008391555,1,1,-2,-2,-3,-9,-7,-11
1529257008391555,4,1,-3,3,-1,7,0,7
1529257008403523,-13,-3,-2,-6,-3,-3,2,-7
1529257008403523,5,3,3,5,-1,13,21,10
1529257008412499,-4,-3,-4,-8,-5,-30,-25,-15
1529257008412499,1,1,-2,5,2,34,-3,3
1529257008427459,1,0,2,4,25,-6,10,1
1529257008427459,-8,-2,-2,-3,-2,-10,-2,-32
1529257008429454,-9,1,1,8,1,-2,3,-5
1529257008429454,2,0,2,-12,5,-4,3,-1
1529257008450398,-4,-3,-2,-5,-9,5,-9,4
1529257008450398,-9,-3,-2,2,-2,4,-1,-11
1529257008451396,10,1,-2,-10,2,-4,-8,5
1529257008451396,-1,1,0,5,-7,-4,3,-8
1529257008463363,-4,-3,-2,-5,-7,-4,-11,2
1529257008463363,0,1,-1,1,3,-12,1,5
1529257008472339,2,-1,-1,0,-8,11,-6,0
1529257008472339,-1,2,0,2,14,0,16,5
1529257008487299,-2,-4,-6,-2,-8,-4,-2,5
1529257008487299,0,-1,-4,-4,2,-3,-1,11
1529257008489294,2,2,0,5,0,2,1,-2
1529257008489294,-3,-4,-1,4,-3,-1,-3,-8
1529257008510238,0,-1,-3,-8,-3,7,-1,0
1529257008510238,0,-2,0,2,-3,-9,-1,14
1529257008511236,-8,-3,-2,-4,-5,8,10,-13
1529257008511236,-1,-3,-2,-2,0,-26,0,3
1529257008523203,0,1,-3,-8,-20,-12,-6,-6
1529257008523203,-1,-1,-1,10,21,26,5,4
1529257008538163,8,-1,-1,0,-3,-19,6,9
1529257008538163,-9,-3,-1,-1,-4,-10,-4,-8
1529257008547139,0,0,-2,-4,0,-7,-3,-5
1529257008547139,3,2,2,1,0,6,-1,3
1529257008549134,-3,-3,-1,0,3,17,3,0
1529257008549134,0,0,-2,0,-1,-3,-2,-5
1529257008570078,-3,2,-1,-7,-6,47,5,-11
1529257008570078,3,1,4,13,2,-19,-9,-1
1529257008572073,-1,-3,-3,-2,6,2,-1,-1
1529257008572073,0,0,-3,-16,-14,-6,-3,5
1529257008584041,1,-1,1,32,-1,25,11,2
1529257008584041,1,-4,-4,-7,1,10,2,-2
1529257008593017,-10,-2,0,0,3,-11,-10,-1
1529257008593017,-2,-1,0,1,-5,6,1,-6
1529257008607977,2,-3,-2,-9,-7,-26,0,7
1529257008607977,-2,-3,-4,-2,-4,3,2,-1
1529257008608974,-1,0,-1,-3,-5,40,13,0
1529257008608974,2,0,-2,-1,1,-30,-11,6
1529257008629918,-3,-2,0,-3,4,-2,-13,1
1529257008629918,-3,0,-1,0,-6,-11,4,-2
1529257008631913,6,3,1,-2,-8,-4,-3,-2
1529257008631913,-1,-1,0,4,3,0,1,3
1529257008643880,4,1,0,1,5,-2,8,0
1529257008643880,2,0,1,-3,-2,-5,2,26
1529257008652857,-4,0,0,1,0,1,4,-13
1529257008652857,-6,-4,-1,0,0,24,-7,-9
1529257008667816,5,1,0,-2,6,-65,-23,24
1529257008667816,-5,-1,-2,-5,-7,18,6,-1
1529257008668814,4,0,-2,-1,-4,-9,-6,1
1529257008668814,-4,1,1,3,-1,0,2,-5
1529257008689758,-3,-3,0,-3,2,23,3,-2
1529257008689758,1,0,0,-1,-4,-12,-5,-7
1529257008691753,-3,-2,-2,0,7,9,-1,-16
1529257008691753,1,-3,0,3,0,8,5,8
1529257008712696,-4,-2,-2,-2,1,5,2,10
1529257008712696,-4,-2,-2,-1,-1,-2,-1,-20
1529257008714692,-6,0,0,0,-1,6,2,-38
1529257008714692,17,0,-1,-2,0,-2,-7,35
1529257008726659,-38,-7,-3,-4,2,6,0,-15
1529257008726659,2,-1,-1,-2,-4,-7,-7,-2
1529257008733641,-1,-5,-3,-1,-7,-1,3,14
1529257008733641,-5,0,-3,-2,0,2,1,-15
1529257008749598,10,2,1,1,-1,-3,0,3
1529257008749598,0,1,-2,-2,-2,7,-6,-5
1529257008751593,-3,-1,-2,-4,-1,-2,-4,10
1529257008751593,0,-1,-1,-1,-9,11,13,0
1529257008763560,6,3,4,4,4,-10,-3,-43
1529257008763560,-10,-2,-3,-2,0,-4,-1,16
1529257008772537,10,1,1,2,2,-5,-4,9
1529257008772537,-5,-2,-2,1,1,-1,-1,-11
1529257008786499,2,1,-2,-4,-2,11,0,-11
1529257008786499,-5,2,2,0,-2,-7,-3,-18
1529257008793481,7,0,-1,-1,-1,-4,0,24
1529257008793481,-24,-3,-3,-3,-3,-32,-3,-9
1529257008810435,12,-1,-1,1,5,28,-4,24
1529257008810435,7,0,0,-1,-3,-15,5,18
1529257008811433,-5,-3,0,1,-3,-2,0,-3
1529257008811433,4,1,-1,0,-12,-2,-5,-5
1529257008823401,-2,-1,-4,0,32,2,2,4
1529257008823401,-5,-3,-3,-4,-3,-2,-3,3
1529257008832377,2,1,0,-1,2,31,16,-11
1529257008832377,-1,2,4,3,-9,-24,-23,-12
1529257008847337,6,1,3,-2,-11,-12,0,11
1529257008847337,-3,-4,-1,1,0,-2,-6,-7
1529257008853321,-3,-1,-3,-3,-22,-21,-9,-3
1529257008853321,0,-3,-3,-20,-86,2,4,-4
1529257008870275,2,4,9,39,40,12,11,5
1529257008870275,5,-2,-2,-1,35,-2,-5,5
1529257008871273,0,-4,-3,-1,-34,-17,-9,-15
1529257008871273,-2,0,-3,-22,28,5,6,2
1529257008883241,2,-5,-7,-2,-32,-3,-17,5
1529257008883241,2,2,5,6,-21,-11,2,-7
1529257008892217,-3,0,-1,-5,3,11,-3,16
1529257008892217,3,-1,-1,13,37,14,-3,-6
1529257008907177,1,-2,-4,-25,-30,-8,18,11
1529257008907177,-5,-2,-2,4,16,5,-3,-10
1529257008913161,-5,-2,0,2,4,-11,-5,5
1529257008913161,3,2,4,0,-4,4,5,-2
1529257008930115,-2,-4,-4,-8,4,-3,6,5
1529257008930115,-10,-3,-5,-8,-66,19,10,-5
1529257008932110,8,5,5,3,-8,-25,14,7
1529257008932110,-7,-2,2,15,37,17,-15,-12
1529257008952056,-3,-1,-1,-7,-11,-3,7,5
1529257008952056,-2,5,4,4,-2,-8,0,-5
1529257008954052,-1,-2,-4,-6,-3,-12,-8,-8
1529257008954052,5,3,3,6,14,25,13,13
1529257008967017,1,1,0,6,38,5,-1,-10
1529257008967017,5,-3,-3,-12,-9,4,-2,-4
1529257008973998,-7,-3,-2,-18,25,-10,-16,4
1529257008973998,8,-1,-5,14,-4,13,12,12
1529257008989955,-6,-1,1,2,-16,2,-14,-36
1529257008989955,6,-1,-2,-2,9,25,8,39
1529257008991951,-1,3,6,8,20,-12,8,-30
1529257008991951,5,-1,-1,-10,-16,-24,-7,8
1529257009012894,-16,-4,-3,-9,-15,4,-7,-11
1529257009012894,-5,-4,-6,-21,5,10,-9,-6
1529257009013891,1,2,-1,26,0,-4,-16,-6
1529257009013891,0,1,2,-5,-7,-9,-1,11
1529257009026857,9,2,-2,2,2,3,0,5
1529257009026857,-1,-1,0,4,-1,-9,-7,-11
1529257009033838,-5,-5,-7,-11,-10,12,11,9
1529257009033838,1,0,0,2,-3,-6,-17,-19
1529257009049795,-3,0,-1,0,-3,-48,-8,5
1529257009049795,1,0,1,-1,78,27,4,-4
1529257009051790,4,-2,-2,-1,-4,1,-7,16
1529257009051790,-3,2,2,9,15,0,-5,-24
1529257009072734,-4,-1,-4,-11,-46,-10,4,-3
1529257009072734,2,3,4,9,5,2,6,-1
1529257009073732,9,0,0,2,10,-1,-4,6
1529257009073732,-14,-2,-2,-5,5,-25,-2,-19
1529257009085699,3,-3,-5,-17,-17,2,-12,25
1529257009085699,-1,-1,0,21,45,18,-1,2
1529257009094676,-1,0,1,-2,7,18,-1,2
1529257009094676,2,-4,-3,-7,-13,18,6,15
1529257009109635,11,1,1,7,5,-1,5,6
1529257009109635,-3,-2,-4,-8,-27,-23,-3,-7
1529257009111631,-8,-4,-2,-7,6,11,8,-2
1529257009111631,-5,-8,1,9,14,0,15,6
1529257009132574,-6,-1,-4,-8,-8,25,21,-17
1529257009132574,6,1,4,0,-11,-22,-18,21
1529257009134569,-6,2,0,7,-7,-7,11,-8
1529257009134569,-4,-4,-6,-3,-6,-24,13,15
1529257009146537,-2,-1,0,3,11,17,-20,-20
1529257009146537,-1,1,-1,-5,-24,-15,4,-10
1529257009155513,1,0,-5,-2,-21,-10,-5,-2
1529257009155513,8,4,4,6,41,19,7,9
1529257009170473,2,1,2,2,9,-5,7,4
1529257009170473,-6,-5,-4,-2,-15,-9,-11,-19
1529257009171470,-3,-2,-1,-3,-3,5,-9,-1
1529257009171470,7,-1,-2,-3,-15,4,5,7
1529257009192414,-15,-4,0,0,23,2,-14,-14
1529257009192414,7,-2,-1,5,30,13,9,4
1529257009194409,-1,0,0,-1,-24,5,5,4
1529257009194409,11,2,2,-8,59,-1,-2,-6
1529257009206377,-4,-2,0,16,0,-6,9,1
1529257009206377,-4,-2,-2,-8,-31,-7,2,-1
1529257009215353,-7,-3,-3,-1,7,-2,-7,-7
1529257009215353,-3,-2,-5,-5,-21,-6,-10,-5
1529257009230313,5,3,1,-5,-19,-13,-7,4
1529257009230313,-2,-1,-2,1,2,5,-1,-11
1529257009231311,0,-2,0,-4,-22,-4,1,0
1529257009231311,-6,0,-1,3,-7,-16,-3,-6
1529257009252254,1,0,-1,-6,8,14,3,5
1529257009252254,1,-1,-3,2,-13,-4,4,4
1529257009254249,2,-3,-1,-2,-11,7,8,0
1529257009254249,-5,-2,-2,-2,15,-12,-18,-4
1529257009266217,1,-4,-2,-5,-15,-10,2,-2
1529257009266217,4,3,1,-9,73,10,3,2
1529257009275193,-1,-5,-2,8,-47,16,-1,-5
1529257009275193,-3,0,3,10,2,6,-20,-3
1529257009290153,5,2,-1,2,-2,-6,4,-2
1529257009290153,-2,4,4,0,-32,-7,-15,-10
1529257009292148,1,-1,1,-5,20,-1,-5,7
1529257009292148,-4,-2,-2,-5,-27,8,5,9
1529257009312094,5,0,-2,-4,-11,-8,5,17
1529257009312094,-12,-3,-1,0,4,-2,4,-16
1529257009314089,5,3,1,4,27,-21,-25,9
1529257009314089,4,2,-5,-17,-21,-2,5,4
1529257009326057,-2,-1,1,2,36,7,-7,-5
1529257009326057,-2,0,0,1,-66,-4,0,5
1529257009335033,-4,-1,1,3,51,6,5,-7
1529257009335033,4,-3,-2,0,-34,-4,-1,1
1529257009349993,9,2,0,3,-7,8,5,10
1529257009349993,-9,-4,-3,-1,28,-3,6,-9
1529257009351988,-2,-1,-4,-8,-26,-1,4,-10
1529257009351988,-2,1,-1,-3,-71,-15,11,0
1529257009372932,0,5,4,1,18,-3,-23,-9
1529257009372932,4,-4,-1,6,-58,-5,-6,10
1529257009373929,-3,1,-1,-17,44,-15,14,0
1529257009373929,8,0,-1,20,28,10,6,28
1529257009385897,-5,0,1,-2,-10,-1,0,-26
1529257009385897,-18,-6,-8,-6,2,-44,-20,10
1529257009394873,8,0,-1,-4,-37,16,6,-5
1529257009394873,-6,-1,-1,-14,-10,-19,-17,-9
1529257009409833,14,-7,-4,-7,-44,-1,-4,29
1529257009409833,5,3,3,3,-51,1,1,-6
1529257009411828,2,-2,-5,11,100,6,-27,-20
1529257009411828,-15,-3,2,-2,-1,-6,5,21
1529257009432771,-8,-1,0,-2,-8,-17,4,-12
1529257009432771,17,4,-1,-8,-15,-20,-1,9
1529257009433769,-20,-7,-6,-11,-46,-38,-18,-19
1529257009433769,12,3,2,4,7,22,2,-3
1529257009445737,-13,-4,-3,-8,-71,-55,-16,-10
1529257009445737,0,2,2,22,107,52,18,9
1529257009454713,17,2,1,1,-21,23,13,13
1529257009454713,-27,-6,-6,-3,-13,39,16,-14
1529257009469673,-2,-2,-4,0,14,-24,4,-3
1529257009469673,-4,-2,0,-6,-16,20,2,-19
1529257009471668,5,0,-3,-3,-38,3,9,9
1529257009471668,2,1,1,-2,10,8,-16,-3
1529257009492612,9,2,0,5,9,22,3,-2
1529257009492612,-12,-2,-2,-4,-22,-14,5,30
1529257009493609,-4,1,2,13,62,14,-1,-22
1529257009493609,-4,0,0,-5,-18,-7,-9,-8
1529257009506574,9,3,1,4,16,37,5,25
1529257009506574,-11,-1,-2,-4,19,-46,-27,-14
1529257009515550,2,3,3,-16,-31,1,-1,16
1529257009515550,-3,0,2,27,19,-15,1,-13
1529257009530510,-2,-6,-4,-11,3,1,-5,-7
1529257009530510,-1,-4,-4,4,-37,30,2,-8
1529257009531508,-7,-1,2,2,3,-28,-4,-14
1529257009531508,9,0,-2,-11,18,30,5,7
1529257009552452,-8,-1,-2,8,-12,-4,1,9
1529257009552452,1,-4,-4,-18,-21,1,0,-31
1529257009554447,-3,0,-2,1,0,14,1,0
1529257009554447,4,3,2,0,-46,-17,-5,15
1529257009566414,-6,-2,-2,-2,28,4,7,-6
1529257009566414,6,0,0,1,39,23,4,13
1529257009575391,-2,-1,1,8,-3,5,8,-2
1529257009575391,-3,-4,-4,-5,1,-7,-5,-21
1529257009590350,1,1,1,-1,15,7,-2,7
1529257009590350,7,2,1,0,-2,-3,3,4
1529257009591348,-1,-2,0,1,-24,-7,1,23
1529257009591348,5,-1,-2,-7,6,-4,0,-2
1529257009612291,-13,-4,-2,-4,-14,11,12,-20
1529257009612291,17,4,4,13,75,13,11,3
1529257009614287,-13,-3,-3,-6,-14,10,7,8
1529257009614287,1,-1,0,3,11,-17,-2,4
1529257009635230,1,1,-1,2,2,-12,-9,-6
1529257009635230,-3,-3,-4,-26,-39,2,-2,8
1529257009637225,-6,-3,-1,19,0,14,-3,-15
1529257009637225,0,-3,-4,-4,7,-2,10,16
1529257009649193,-8,-1,2,1,3,8,2,-13
1529257009649193,-1,-3,-3,-4,-24,-8,-10,-16
1529257009656174,5,-1,-3,-8,1,-9,-3,21
1529257009656174,-5,-2,-3,-1,2,-12,-5,-31
1529257009672132,0,-4,-4,-3,-29,-4,-4,12
1529257009672132,-3,-1,2,1,-31,-2,8,14
1529257009674127,0,1,1,5,46,-2,-4,6
1529257009674127,4,0,0,-5,6,9,-4,2
1529257009686094,-6,-2,0,1,0,-10,4,-4
1529257009686094,-19,-3,-1,2,-4,-11,-6,-11
1529257009695071,1,-1,0,-1,-7,33,16,-1
1529257009695071,-3,-2,-3,-7,13,-6,-26,6
1529257009709033,3,-1,-3,5,6,-38,-16,-5
1529257009709033,4,0,-4,-14,-5,-10,-15,-8
1529257009716014,-10,-1,4,21,11,1,16,-29
1529257009716014,-2,-6,-7,-13,-40,-3,-3,12
1529257009732969,-1,0,0,-6,-4,10,1,-1
1529257009732969,2,1,-4,-17,-15,-16,-16,6
1529257009733967,4,5,10,46,27,0,-3,2
1529257009733967,6,-1,-4,-3,-5,-1,2,-2
1529257009745934,2,1,1,6,5,10,4,-1
1529257009745934,-3,-1,-1,0,-2,18,3,-3
1529257009754910,2,0,-5,-25,-25,-21,-9,12
1529257009754910,1,0,1,9,9,22,14,-6
1529257009769870,6,2,0,-3,3,-53,5,15
1529257009769870,1,1,1,7,57,21,-8,9
1529257009775855,0,-3,-6,-19,-29,-6,18,7
1529257009775855,5,4,6,12,-9,14,19,-5
1529257009792809,-13,-3,-3,-9,-33,6,-3,-16
1529257009792809,13,4,3,12,-4,-17,8,26
1529257009793807,-4,-3,-5,-9,-17,-8,-21,-25
1529257009793807,3,1,1,-7,11,8,-6,-2
1529257009805775,-6,-2,-6,-44,-95,-5,-21,-21
1529257009805775,7,6,13,85,68,20,9,-8
1529257009814750,-3,-4,0,-6,-19,-8,-2,7
1529257009814750,-5,1,-2,-15,-10,-2,36,-8
1529257009829710,2,0,1,24,4,-21,-33,1
1529257009829710,-5,-5,-7,-31,-11,-14,-1,-8
1529257009835695,-4,-2,-1,-13,-21,-3,-44,-22
1529257009835695,-4,0,8,49,103,-9,14,-13
1529257009852649,0,-4,-6,-11,18,19,25,11
1529257009852649,4,0,2,11,-27,-1,22,21
1529257009853647,-10,1,-3,-21,-77,-2,-9,-9
1529257009853647,-4,-5,-6,-16,13,-10,-18,16
1529257009874591,4,-2,0,11,36,21,5,-3
1529257009874591,-5,0,-2,-13,7,-13,3,-28
1529257009876586,3,0,-5,-17,-26,-18,-1,18
1529257009876586,0,1,-1,-10,-6,2,-8,-15
1529257009889550,1,0,2,25,60,0,15,17
1529257009889550,-6,-8,-7,-9,-40,-17,-5,-2
1529257009896532,-4,-6,-3,-5,24,-1,13,3
1529257009896532,1,-1,0,-7,-10,2,9,17
1529257009912489,-1,3,5,21,51,6,-5,-26
1529257009912489,1,-1,-2,-16,-24,4,-6,1
1529257009914484,5,-1,-2,4,31,-9,-4,14
1529257009914484,-11,-6,-5,-16,-64,6,-36,-26
1529257009935428,-1,5,3,1,-45,10,17,-25
1529257009935428,-4,-2,-2,4,0,7,5,-1
1529257009936425,-2,-2,0,6,9,-6,8,-1
1529257009936425,3,0,-4,-15,-22,1,-24,16
1529257009949390,6,0,-1,-4,-1,6,-9,-5
1529257009949390,-10,-4,-3,-6,-17,-10,-10,-7
1529257009956372,4,2,3,6,24,-8,-1,6
1529257009956372,0,0,-1,-7,-14,-5,4,9
1529257009972329,3,-2,-3,14,6,14,-11,19
1529257009972329,3,0,2,7,9,-12,-1,-18
1529257009974324,2,-3,-4,-8,-3,42,1,-4
1529257009974324,-4,0,2,4,-52,-24,15,2
1529257009995268,-2,-3,-2,-25,46,-5,-7,5
1529257009995268,-2,1,3,21,15,-19,-12,-19
1529257009996266,11,-1,0,12,6,17,17,75
1529257009996266,-9,-3,-3,-2,4,0,-2,-30
1529257010008234,1,-4,-6,-24,-52,7,17,43
1529257010008234,3,-1,-4,-7,10,-6,36,16
1529257010017209,-11,-3,-1,-1,16,-11,-1,-26
1529257010017209,3,0,0,7,23,-6,-10,-13
1529257010032169,-7,0,1,-1,-26,0,-8,9
1529257010032169,1,-1,-3,-15,4,1,-7,1
1529257010034164,0,0,-1,10,-8,-22,-3,-22
1529257010034164,-1,2,0,6,8,5,4,0
1529257010055108,1,0,1,0,15,-2,-8,-23
1529257010055108,-8,-3,-4,-27,-22,-3,8,-6
1529257010057103,1,-1,-3,16,14,-28,-34,-4
1529257010057103,7,6,5,0,-29,-10,9,-6
1529257010069070,12,-5,-2,17,70,24,-13,24
1529257010069070,-6,0,-4,-17,-29,-14,-11,9
1529257010078047,0,3,5,-35,-18,-7,-1,-16
1529257010078047,-1,0,1,58,48,1,12,5
1529257010093007,-4,2,-3,-23,-56,7,-6,-17
1529257010093007,0,-1,3,10,30,-1,15,-2
1529257010094004,1,1,0,6,19,11,-2,-12
1529257010094004,-2,-2,-3,-16,-12,0,-9,7
1529257010114948,1,-2,-1,-2,-2,5,14,19
1529257010114948,-9,-1,-1,8,-5,7,-16,-28
1529257010116943,15,-1,-3,-4,-11,0,11,56
1529257010116943,0,-2,1,-9,18,-4,-5,-27
1529257010128911,-7,0,0,5,-2,-1,2,-18
1529257010128911,-1,0,0,0,0,16,-16,2
1529257010137887,4,-1,-1,-5,-55,20,28,6
1529257010137887,-2,-4,-6,-28,24,-21,-24,9
1529257010152847,-4,1,2,44,17,-12,-3,-12
1529257010152847,9,1,-1,-5,-53,-8,-1,6
1529257010153844,-16,-1,-2,0,21,27,11,-14
1529257010153844,0,-3,-2,-2,-7,1,0,5
1529257010174788,-4,-1,0,-13,-2,-2,-7,-7
1529257010174788,3,1,-1,-6,-1,6,10,11
1529257010176783,-2,-1,-3,10,-7,-3,-8,-17
1529257010176783,-4,-3,-1,3,4,1,5,2
1529257010188750,-5,-2,-2,-16,-2,0,3,-7
1529257010188750,3,3,4,11,3,12,3,21
1529257010197727,7,-1,0,-4,8,-22,-4,-4
1529257010197727,-6,0,0,2,-5,1,-7,-5
1529257010212686,2,0,-3,-2,-5,0,4,4
1529257010212686,3,1,1,0,10,-2,-11,-7
1529257010213684,-6,0,0,-1,6,-25,-25,-9
1529257010213684,1,-4,-4,-16,-5,15,10,2
1529257010234628,1,2,2,9,98,12,-4,0
1529257010234628,0,-1,-1,9,6,-12,-3,-1
1529257010236624,4,2,1,6,12,6,7,10
1529257010236624,2,-2,-2,-21,-34,-4,-10,-12
1529257010248591,-6,0,-1,5,-30,11,29,-2
1529257010248591,4,-3,3,19,27,8,-17,10
1529257010257567,-14,-6,-3,1,-4,-9,-10,-27
1529257010257567,-4,1,1,-3,-6,11,1,-7
1529257010272527,1,-1,-1,-9,-18,-17,-10,-11
1529257010272527,6,-3,-3,-15,-11,3,13,31
1529257010274522,-1,2,2,3,-9,-5,0,-28
1529257010274522,-4,-4,-2,14,9,-6,2,9
1529257010295466,-3,-3,-1,-13,-13,2,-5,-16
1529257010295466,-6,-3,-4,0,-6,-17,-13,-4
1529257010296463,7,-1,-1,-6,4,1,3,22
1529257010296463,-1,1,0,-3,-28,-12,-11,-11
1529257010308431,5,0,2,8,29,4,2,17
1529257010308431,-5,-1,-3,-8,-13,44,20,-15
1529257010317407,-4,-1,0,7,14,1,6,-3
1529257010317407,4,2,1,4,-10,10,1,7
1529257010332367,-3,0,-3,-1,-29,-11,-11,-5
1529257010332367,-7,2,1,-8,-20,-19,10,-10
1529257010334362,-5,-1,-4,-23,2,6,-8,1
1529257010334362,4,-1,1,31,-19,35,9,-1
1529257010355306,-5,-1,0,-13,-3,-39,-21,3
1529257010355306,6,-4,-7,-10,17,-25,-6,-27
1529257010356303,0,4,4,21,21,26,12,12
1529257010356303,3,1,1,4,2,7,14,8
1529257010368271,-3,-1,-2,-1,-10,0,-2,-11
1529257010368271,1,-2,-2,-10,-2,-12,-10,4
1529257010377247,4,-3,-3,-5,-30,-19,7,11
1529257010377247,2,0,-2,3,24,-10,3,11
1529257010392207,-4,-5,-4,-5,-5,32,-8,-24
1529257010392207,-6,-2,-1,3,-2,-7,-26,0
1529257010394202,1,-3,0,-3,-42,-14,15,-7
1529257010394202,-2,0,-2,1,26,-19,-3,-3
1529257010415145,5,1,-1,-1,-14,-12,3,11
1529257010415145,-5,-2,2,-1,-41,5,-7,-1
1529257010417140,-3,-1,0,9,99,37,1,-16
1529257010417140,3,-3,-6,-13,-13,-19,-9,24
1529257010429108,-2,-2,-3,-18,-18,-7,6,-1
1529257010429108,-2,0,0,2,-13,10,-11,-10
1529257010438084,-2,0,6,51,41,-1,-3,7
1529257010438084,-6,-3,-4,-19,23,-8,8,-1
1529257010452047,0,3,0,-6,-10,6,0,5
1529257010452047,0,4,9,45,32,16,22,4
1529257010454042,3,-3,-3,-10,-23,-15,-13,4
1529257010454042,-3,0,1,5,1,12,-1,-13
1529257010474986,-1,-5,-5,-12,-40,14,-5,1
1529257010474986,1,-3,-6,-18,35,-16,0,30
1529257010476981,6,1,0,17,-9,-9,-9,-8
1529257010476981,-3,-2,0,-20,-30,13,3,-5
1529257010488948,-5,1,4,49,31,8,4,-13
1529257010488948,-6,-2,-2,-18,-1,-11,-27,0
1529257010497925,9,-1,-5,-24,8,34,18,11
1529257010497925,-8,-1,-2,17,6,-14,-20,-5
1529257010511887,-5,-5,-4,-25,0,-14,4,3
1529257010511887,-5,-1,1,13,5,15,-1,-26
1529257010518868,1,0,0,-11,-30,-15,-4,8
1529257010518868,0,-1,-4,3,-78,-20,-13,-6
1529257010534825,2,1,-2,6,14,-21,-10,10
1529257010534825,0,0,-2,-3,-21,2,28,-13
1529257010536821,1,-1,-3,-25,-25,-8,-14,0
1529257010536821,-9,-3,-1,1,1,18,9,-8
1529257010548788,10,4,0,-2,3,-5,13,30
1529257010548788,-1,-6,-4,-17,-20,-7,-3,6
1529257010557764,-7,2,1,-1,17,-9,-5,-21
1529257010557764,7,-2,-2,2,13,-2,-10,23
1529257010572724,3,-1,-1,9,1,-7,8,-2
1529257010572724,3,4,2,0,9,1,2,-1
1529257010573722,-5,-1,-2,-3,-8,0,-2,-9
1529257010573722,-7,-1,0,-4,15,-2,0,-21
1529257010594666,-2,-2,0,-8,0,-13,-38,-19
1529257010594666,2,-1,-3,-4,-14,-31,12,27
1529257010596661,-6,0,1,6,7,-2,0,-6
1529257010596661,0,-1,-1,-2,16,-11,1,-9
1529257010608628,7,0,-1,4,-15,-4,9,19
1529257010608628,-17,-3,-1,0,12,22,-3,-35
1529257010617605,-1,-1,-2,-5,-14,-36,-15,3
1529257010617605,0,-2,0,3,9,-11,4,6
1529257010631567,2,0,1,0,0,8,8,-2
1529257010631567,3,-1,-2,-2,-2,5,-10,-2
1529257010638548,1,-1,-3,-7,-4,8,-1,9
1529257010638548,-3,0,-1,2,4,21,6,-3
1529257010655503,-8,-2,-1,-2,-4,1,3,-3
1529257010655503,2,1,1,-1,2,34,11,-4
1529257010656501,2,-1,0,-2,-6,2,1,7
1529257010656501,8,4,3,1,12,-18,13,4
1529257010668468,-2,-1,1,0,-2,16,-1,0
1529257010668468,4,2,0,7,36,5,5,20
1529257010677445,1,-1,1,-1,-4,7,3,-5
1529257010677445,0,3,2,1,1,0,-3,1
1529257010691407,-7,-4,-4,-4,0,4,7,6
1529257010691407,3,-1,0,2,-11,-18,-10,9
1529257010698388,-4,-3,-4,-3,-2,7,3,3
1529257010698388,-3,0,-2,-8,2,-23,-12,-8
1529257010715343,-3,0,0,0,-1,-12,-6,-11
1529257010715343,-1,-2,-3,-2,-2,33,13,-3
1529257010716341,-3,-1,-1,-1,-3,-13,-6,4
1529257010716341,1,-1,-3,1,-3,8,5,9
1529257010728308,3,4,3,3,12,8,12,7
1529257010728308,1,0,-1,0,1,-16,-4,-7
1529257010737284,-4,-1,0,0,0,13,-2,-25
1529257010737284,-1,-3,-1,0,5,-2,-10,8
1529257010752244,-1,-2,-4,-6,2,-22,-7,0
1529257010752244,3,0,1,5,-1,17,3,6
1529257010758229,-1,-1,-3,-2,3,-43,-5,-4
1529257010758229,3,-1,0,-1,1,3,-5,-28
1529257010775183,1,0,-2,-7,-7,5,7,10
1529257010775183,-4,-2,-2,-3,-7,-15,-6,-3
1529257010776181,8,-2,-2,-5,-10,8,7,4
1529257010776181,-6,-3,0,0,0,-4,-6,-3
1529257010789146,-1,-1,-1,1,-13,-4,6,-10
1529257010789146,2,1,-2,0,1,7,-5,15
1529257010798122,-8,2,1,0,-3,4,-8,-11
1529257010798122,-5,-1,-1,-1,5,-11,0,12
1529257010812084,3,-1,-2,2,-6,20,-1,2
1529257010812084,3,1,1,-2,-5,-11,-5,-10
1529257010819065,-8,-4,-3,-6,-5,1,5,-22
1529257010819065,3,1,0,2,-5,3,1,8
1529257010835023,-3,-1,-1,-1,0,7,1,-6
1529257010835023,1,0,0,1,0,-4,-1,-1
1529257010837018,4,-1,0,-1,2,10,6,-7
1529257010837018,-2,0,1,2,0,13,-2,-6
1529257010857962,0,0,0,-1,8,11,1,-1
1529257010857962,-3,-2,-4,-10,-24,-2,6,-2
1529257010858960,1,0,-4,-10,-19,26,3,13
1529257010858960,2,1,0,6,21,-3,-7,0
1529257010871924,0,-1,-2,-8,-3,-10,-5,-3
1529257010871924,-2,-3,-1,10,-2,0,-1,0
1529257010878906,-2,1,0,-2,-14,-8,-4,5
1529257010878906,1,-1,-2,-12,-10,20,10,0
1529257010894863,1,0,-2,16,5,-3,-2,-1
1529257010894863,0,0,1,3,13,-4,-2,-3
1529257010896858,-7,-3,-5,2,6,-6,-5,-4
1529257010896858,2,-3,-1,2,2,-8,-5,-8
1529257010917802,-1,3,5,-1,-22,-5,1,0
1529257010917802,-10,-4,-3,-4,9,-6,1,-20
1529257010918799,2,-1,-3,5,19,38,8,-4
1529257010918799,1,3,1,-26,72,-7,-22,7
1529257010932762,-5,-1,-3,-14,-73,-34,4,-8
1529257010932762,3,-1,4,44,58,-4,-45,-9
1529257010940741,1,3,5,37,18,-8,14,7
1529257010940741,-7,-4,-5,0,-40,1,3,-6
1529257010954703,2,0,0,-9,10,-10,-8,-3
1529257010954703,-1,1,-3,-31,-14,0,-11,-6
1529257010956698,-1,-1,-2,-7,-21,-8,0,14
1529257010956698,3,-2,-2,5,-12,-6,7,3
1529257010977642,0,0,0,-5,14,8,-2,14
1529257010977642,2,1,0,-4,-22,-2,13,-5
1529257010979637,-5,-5,-1,-8,4,3,-12,23
1529257010979637,1,0,2,8,-15,-13,-3,-27
1529257010991605,-7,-6,-6,-4,1,11,16,2
1529257010991605,10,-1,-2,-5,9,40,21,24
1529257011000581,-11,0,0,-2,9,-40,-38,-3
1529257011000581,0,0,1,1,-4,-10,7,4
1529257011014543,2,-1,-1,4,-9,6,4,-7
1529257011014543,4,-1,-3,-30,-16,21,4,11
1529257011016538,2,0,5,26,10,13,1,-3
1529257011016538,-5,-2,-3,10,-3,7,14,3
1529257011037482,-3,-9,-6,-7,20,-5,-6,7
1529257011037482,-3,-1,-3,-10,-14,-13,16,7
1529257011039477,-5,-1,-2,-18,-4,-12,14,-14
1529257011039477,1,1,1,1,-20,8,-3,-1
1529257011051444,-5,0,1,4,30,5,4,-10
1529257011051444,1,-4,-4,3,-3,-12,-15,19
1529257011060421,-1,-1,-2,-7,-16,-1,-11,6
1529257011060421,-1,-2,-4,-1,0,5,9,7
1529257011075381,-5,2,3,2,1,-16,-19,-8
1529257011075381,7,4,2,7,-8,-6,-4,-7
1529257011076378,0,1,1,-2,4,8,4,-8
1529257011076378,1,-2,-2,-8,-5,22,18,15
1529257011097322,2,-1,-4,-24,-2,7,-5,-3
1529257011097322,-2,-1,0,38,1,-12,-7,-14
1529257011099317,1,1,0,-18,0,7,3,9
1529257011099317,-5,-3,-6,-1,-43,-43,-9,-6
1529257011111285,4,2,4,22,12,22,20,4
1529257011111285,-4,-3,-4,-10,-13,0,3,-10
1529257011120261,2,-2,-4,-4,-2,-6,5,-1
1529257011120261,-3,0,-1,-13,-18,1,-10,-10
1529257011135221,3,0,0,10,3,2,-11,17
1529257011135221,-7,-1,1,-4,3,-8,11,-16
1529257011136218,2,-2,-2,-1,-15,5,-3,-30
1529257011136218,-6,0,1,-1,23,-23,-27,6
1529257011157162,-1,1,1,5,3,-6,3,-2
1529257011157162,0,1,0,-3,4,-3,1,11
1529257011159157,-7,-2,-2,-4,-5,9,3,-18
1529257011159157,1,-1,-1,-17,-12,-1,-13,-3
1529257011171124,0,-1,2,23,45,7,-2,-6
1529257011171124,-4,0,2,1,-29,-16,-7,0
1529257011180102,5,0,-3,-2,13,9,17,10
1529257011180102,1,0,2,3,8,40,20,-1
1529257011195061,-3,-1,-4,-15,-22,-17,-19,-5
1529257011195061,-5,-3,-3,-9,-4,18,16,-4
1529257011197056,5,0,3,-6,5,3,-20,9
1529257011197056,4,2,2,20,14,11,13,5
1529257011217999,3,1,1,-6,-9,19,7,-2
1529257011217999,-5,-3,-3,-5,2,-24,-14,-8
1529257011218997,-6,-1,-1,-1,-10,-13,-4,7
1529257011218997,-1,-3,-2,-2,6,-6,2,-4
1529257011230965,4,1,2,4,-5,-5,-4,6
1529257011230965,-2,-2,-4,-11,2,-12,-18,-4
1529257011239941,0,0,-1,1,-1,-10,9,5
1529257011239941,2,-1,0,6,-2,-17,14,1
1529257011254901,-3,2,1,-3,1,-10,-12,-7
1529257011254901,3,-2,-2,0,10,20,9,6
1529257011256895,1,0,-2,-2,14,-21,-13,-4
1529257011256895,-1,1,3,2,0,26,10,1
1529257011277839,-4,-3,-2,2,-11,-36,-6,-16
1529257011277839,5,2,1,-8,8,7,-5,11
1529257011278837,-6,-2,-1,8,-8,2,4,5
1529257011278837,-11,-4,-2,-4,4,27,-9,-23
1529257011290804,-1,-2,-2,-5,-2,-18,-11,-1
1529257011290804,-1,-1,0,4,-8,-8,-2,-3
1529257011299781,1,-2,-2,-3,-12,-5,-8,-2
1529257011299781,2,-1,-1,-2,7,15,0,7
1529257011314740,-2,-2,-3,-2,-9,16,4,-9
1529257011314740,-3,-2,-1,0,-1,-15,0,-14
1529257011316736,6,0,0,-1,-2,-2,-5,-20
1529257011316736,2,-1,0,2,2,-14,-4,31
1529257011337679,2,-2,-1,-6,-4,10,6,-1
1529257011337679,-4,-5,-4,-4,-5,-14,-8,-28
1529257011338677,-3,2,0,1,0,9,5,-6
1529257011338677,4,2,1,3,-4,-13,-12,-6
1529257011351642,-6,-2,-4,-4,0,-2,10,12
1529257011351642,-3,1,0,0,1,6,22,14
1529257011360618,6,0,-1,-3,-1,4,-18,5
1529257011360618,-10,-3,-3,0,1,-18,3,-9
1529257011374581,-3,0,0,-3,-3,18,-4,0
1529257011374581,0,1,1,0,1,-1,9,-6
1529257011376576,1,-3,-5,-4,-7,-15,-3,9
1529257011376576,5,2,-1,1,1,-10,-15,-25
1529257011397520,-1,-1,-1,-2,0,-1,5,11
1529257011397520,4,3,2,0,0,0,-8,-1
1529257011399515,-2,-1,0,4,3,5,2,-6
1529257011399515,-2,-3,-5,-8,-12,-11,-2,3
1529257011411483,0,1,0,1,-18,2,1,-6
1529257011411483,0,0,1,5,14,7,-4,0
1529257011420458,-2,0,1,2,0,1,14,22
1529257011420458,2,0,-3,0,2,9,5,1
1529257011435418,-2,-3,-1,1,-5,0,-4,-11
1529257011435418,6,-3,-2,0,-4,0,2,16
1529257011436416,-5,2,2,0,-1,-1,6,0
1529257011436416,-2,0,0,-4,-9,-23,-8,-7
1529257011457359,1,-1,-2,-2,4,-1,3,6
1529257011457359,1,1,-1,-1,4,1,0,3
1529257011459355,-1,0,1,1,2,7,5,-8
1529257011459355,-2,-2,-2,-4,-5,-54,-15,10
1529257011471322,3,0,1,2,6,11,3,2
1529257011471322,-10,-3,-2,-4,-2,22,3,-1
1529257011480299,2,-2,-2,-6,-6,-38,-21,5
1529257011480299,-2,1,-2,3,6,16,24,3
1529257011495258,3,0,-1,1,14,-7,-10,2
1529257011495258,5,1,-2,-17,-8,-15,-2,2
1529257011496256,-18,-6,-4,-6,-2,25,-13,-21
1529257011496256,8,1,5,30,-3,39,15,19
1529257011517199,0,-2,1,-1,5,-15,4,6
1529257011517199,0,-1,1,3,-13,-7,-2,3
1529257011519194,5,-1,-1,-8,-6,-6,3,1
1529257011519194,-3,-4,-3,-10,-2,4,-7,-4
1529257011531162,-5,-2,-2,0,-4,4,3,-6
1529257011531162,-1,-2,-3,1,7,-1,-10,4
1529257011540139,2,1,-1,-1,2,3,7,9
1529257011540139,0,0,1,1,7,6,-1,-4
1529257011555099,3,2,1,0,3,2,0,-2
1529257011555099,0,-1,-1,-2,-8,4,8,1
1529257011557093,-7,-4,-2,5,4,4,-6,-10
1529257011557093,-4,-2,-3,-3,2,-7,-6,-4
1529257011578037,2,3,-1,-4,-7,-9,-2,7
1529257011578037,-1,0,-1,3,-2,8,-1,-1
1529257011579034,-1,-1,-1,2,0,5,6,-1
1529257011579034,0,-2,-2,-5,0,-22,1,9
1529257011591002,-3,-3,1,-1,0,1,-5,-5
1529257011591002,-2,-2,-3,1,-3,25,1,-15
1529257011599978,3,1,0,1,2,-21,-1,9
1529257011599978,-3,0,1,-5,-2,0,-8,-22
1529257011613941,-3,-2,-4,-2,-17,15,1,2
1529257011613941,-2,1,1,6,19,-6,10,7
1529257011620922,9,4,1,1,2,9,3,1
1529257011620922,-2,-1,2,-2,1,8,-1,2
1529257011637877,-1,-2,-3,-1,-4,-5,-2,-14
1529257011637877,-5,-2,-4,-3,-5,-11,-9,10
1529257011638874,-2,1,-1,0,-2,-2,1,-10
1529257011638874,-4,-1,-3,-2,4,8,1,-4
1529257011650842,1,0,-1,2,3,2,2,9
1529257011650842,2,-2,-1,-3,-4,-7,-9,-2
1529257011659818,1,-1,2,2,0,-2,9,-2
1529257011659818,0,-1,-1,0,-2,-1,0,26
1529257011674778,0,-1,-2,-1,2,1,0,-11
1529257011674778,1,1,0,1,-2,-6,-1,5
1529257011680762,-5,-2,-1,-1,-6,-12,-5,-13
1529257011680762,-3,-1,-1,-2,2,20,-5,-4
1529257011697717,-9,-3,-2,-2,-3,-2,1,-4
1529257011697717,0,1,2,2,8,-6,-4,7
1529257011698714,-4,-5,-4,-6,-5,33,6,-7
1529257011698714,-1,-1,-1,-2,-4,-24,2,2
1529257011711680,0,-1,0,-1,7,-7,-4,5
1529257011711680,-6,-2,-1,-3,-12,2,-4,-27
1529257011720656,3,0,1,0,1,4,7,8
1529257011720656,7,1,0,-2,-3,-14,-1,9
1529257011734618,-3,-3,-3,-4,-2,1,-1,-10
1529257011734618,-1,0,0,2,0,-2,-3,0
1529257011741600,2,-1,-2,-1,1,-4,-1,3
1529257011741600,3,-1,1,2,2,-5,3,-4
1529257011757557,1,1,-1,1,1,10,-4,4
1529257011757557,1,0,-1,-3,0,11,2,0
1529257011759552,1,0,-1,1,0,-10,0,13
1529257011759552,-2,-1,0,-2,1,16,-3,-12
1529257011780496,-2,-1,0,-2,-3,-9,-7,-5
1529257011780496,-3,0,-1,0,0,-2,3,12
1529257011781493,1,1,-2,-2,-2,-4,-4,-24
1529257011781493,-2,3,2,-1,1,1,1,-5
1529257011794458,8,0,-2,0,2,-1,-1,22
1529257011794458,-5,0,-2,-6,-1,-3,-6,-17
1529257011801440,0,1,1,9,0,-2,0,6
1529257011801440,0,-1,-2,-4,-3,21,11,8
1529257011817397,1,2,3,2,1,-6,5,-10
1529257011817397,-4,-5,-4,-4,-5,-20,-11,-1
1529257011819392,-3,-2,-3,-5,-5,-30,-5,4
1529257011819392,-1,0,-1,1,5,26,-5,-4
1529257011840335,-7,-1,0,-1,-3,-5,0,-9
1529257011840335,2,-3,-3,-2,-1,-5,5,5
1529257011841333,0,-1,-1,0,4,24,5,7
1529257011841333,-2,-1,0,2,-1,-11,-10,-12
1529257011854298,5,0,-3,-1,0,12,14,22
1529257011854298,-8,-2,1,2,1,-15,-18,-11
1529257011861280,0,-1,-2,-1,5,23,-6,2
1529257011861280,1,3,2,2,-3,-7,10,1
1529257011877237,7,-1,-3,-8,0,9,10,11
1529257011877237,-15,-2,0,16,1,-29,-14,7
1529257011879232,9,0,0,-1,-1,-10,-5,8
1529257011879232,-9,-3,-3,-3,-3,-8,-11,-24
1529257011900176,-2,1,0,3,-2,-12,-9,-7
1529257011900176,5,0,-2,-8,-3,21,7,2
1529257011901173,-2,-1,-2,-11,-4,-11,-4,4
1529257011901173,-1,-2,0,8,-4,-25,11,4
1529257011914138,-4,-1,-1,-5,-4,4,-3,-26
1529257011914138,4,-1,-2,-2,-2,3,4,22
1529257011921120,-9,-5,-3,-2,-3,-1,0,-22
1529257011921120,4,0,-5,-7,1,16,2,22
1529257011937077,-2,-1,2,5,2,-10,7,-10
1529257011937077,2,1,2,0,7,24,6,-7
1529257011939072,1,1,-1,2,1,3,4,9
1529257011939072,-3,0,-1,0,-2,-6,-10,-7
1529257011960016,-1,-2,0,-4,-3,0,-6,1
1529257011960016,-11,-2,0,2,-5,-7,-4,-17
1529257011962011,0,-1,0,2,-3,-5,2,6
1529257011962011,1,-2,-2,-2,2,14,4,2
1529257011973978,-6,0,-3,0,2,-11,-34,-1
1529257011973978,8,3,2,-2,-6,-20,20,2
1529257011982955,1,-1,1,3,6,64,-2,0
1529257011982955,-5,-3,-5,-33,-22,-58,-2,-10
1529257011997914,-1,-3,2,31,17,2,-3,3
1529257011997914,1,0,-3,-4,0,6,14,2
1529257011998912,-3,0,-1,-8,-4,-9,-4,-15
1529257011998912,10,1,0,2,-2,-5,-6,38
1529257012019856,-8,-1,-1,-2,-9,1,1,-8
1529257012019856,-3,-4,1,-2,0,1,-9,-1
1529257012021850,14,3,2,4,1,-7,4,6
1529257012021850,-4,-3,-4,-2,0,27,18,4
1529257012033818,-7,0,-2,-9,-5,-14,-14,-1
1529257012033818,2,0,-4,3,2,13,8,2
1529257012042795,2,-2,0,-5,-7,-26,-5,-4
1529257012042795,-1,-1,-1,6,9,4,8,-7
1529257012057755,-3,-2,-1,-1,-2,-6,-8,2
1529257012057755,0,-2,-2,-3,-5,-3,-10,-5
1529257012059749,-9,0,0,-1,0,-6,-10,1
1529257012059749,2,0,0,5,6,11,-5,-9
1529257012079696,1,0,1,-3,-5,12,25,-8
1529257012079696,1,-3,-4,-6,-5,21,4,5
1529257012081691,-5,-2,-3,-2,1,-40,-23,1
1529257012081691,1,0,0,8,1,-3,-4,12
1529257012093658,5,3,2,-3,0,2,4,8
1529257012093658,-2,-1,1,-1,-3,-11,-3,-4
1529257012102635,-1,-2,0,2,-1,25,20,5
1529257012102635,-7,-3,-1,-2,-4,-23,-21,-3
1529257012117594,-2,-1,-1,2,1,14,-9,11
1529257012117594,6,2,0,-1,-7,13,-8,-18
1529257012119589,-3,1,-2,-3,-5,-25,-10,-3
1529257012119589,0,-1,2,12,3,6,3,-7
1529257012140533,0,0,-2,-3,7,0,8,3
1529257012140533,-3,1,1,5,2,2,-10,-2
1529257012141531,2,0,-3,-10,-5,1,-3,3
1529257012141531,-8,-1,-4,-5,-5,-26,-6,-16
1529257012153498,1,1,2,3,0,2,-1,2
1529257012153498,1,-1,1,-2,1,-7,0,0
1529257012162475,-1,-2,-2,2,0,-4,0,-5
1529257012162475,2,1,-2,-2,-4,-10,-8,1
1529257012177434,-7,-6,-6,-3,-5,3,3,-11
1529257012177434,1,0,-2,-2,3,2,-4,3
1529257012179429,-2,0,1,2,2,23,11,3
1529257012179429,-2,-2,0,-2,-3,36,8,-8
1529257012200373,-3,-1,-2,-4,-4,-3,24,-6
1529257012200373,5,3,1,0,3,-10,0,13
1529257012201371,-6,-2,1,4,1,-3,5,-4
1529257012201371,2,-1,-2,-3,1,-1,-2,-7
1529257012213339,3,0,2,-1,0,3,-1,-2
1529257012213339,-2,-2,-2,-2,-4,-10,-3,0
1529257012222315,0,0,0,2,4,12,15,-1
1529257012222315,1,-1,0,-7,-11,-8,-9,-7
1529257012238272,0,-3,-3,5,5,-4,-6,18
1529257012238272,1,-1,-2,0,2,-4,-2,-11
1529257012240267,-5,-1,-1,-4,-6,27,4,6
1529257012240267,2,0,0,1,1,-8,0,-9
1529257012259216,1,-1,-2,-6,-6,-13,-2,-5
1529257012259216,-3,-2,0,4,8,21,-4,3
1529257012267194,1,0,-2,0,2,22,22,2
1529257012267194,-5,-3,-3,-1,-1,2,2,2
1529257012274176,7,0,-1,-2,5,-3,2,1
1529257012274176,-10,-1,-2,-1,-3,-13,-5,-2
1529257012283152,0,-1,1,-3,-4,-18,-12,0
1529257012283152,1,0,-1,3,3,11,5,28
1529257012297115,2,0,-2,-4,-6,-6,-21,-10
1529257012297115,4,-1,-2,-2,-3,-4,16,14
1529257012299110,3,1,0,0,-1,-20,-6,-9
1529257012299110,-13,1,2,2,12,-3,3,-6
1529257012320053,5,-2,-3,-10,-20,15,1,1
1529257012320053,-1,1,1,6,8,-24,-13,-5
1529257012322048,-6,-2,-3,8,14,-12,-4,2
1529257012322048,3,1,0,-11,-12,-4,7,-4
1529257012334016,-5,0,2,17,9,-15,-33,0
1529257012334016,-5,0,0,-15,-12,-10,4,-5
1529257012342992,-2,-2,-1,4,-10,-2,13,-5
1529257012342992,4,-1,1,3,16,-1,-18,-4
1529257012357953,-2,-2,-1,-8,-7,-7,13,2
1529257012357953,1,-3,-2,-2,7,8,10,5
1529257012358949,-3,-2,-1,-5,2,-11,-17,-8
1529257012358949,-4,-1,-2,3,0,3,2,0
1529257012379893,0,0,-5,-11,-4,11,5,0
1529257012379893,2,0,3,15,-4,4,-8,-11
1529257012381888,-5,-3,-1,-1,17,7,4,-3
1529257012381888,-1,-2,1,-1,1,31,3,3
1529257012393856,-5,-3,-2,-8,3,-31,15,0
1529257012393856,5,-1,-2,-2,3,44,8,26
1529257012402832,-2,0,0,-3,-4,-11,2,-5
1529257012402832,7,1,-2,5,-12,-1,4,8
1529257012417792,-3,1,5,-2,2,-9,1,-21
1529257012417792,-3,-2,-2,-10,-11,-4,-11,-3
1529257012418790,3,-2,-1,5,4,4,2,16
1529257012418790,7,3,-2,1,-14,2,1,7
1529257012439733,-5,1,7,6,6,52,19,-2
1529257012439733,0,3,0,1,-1,-38,-8,-4
1529257012441729,-2,0,-1,-10,-29,37,-17,-7
1529257012441729,-9,-2,1,5,55,-60,-6,-26
1529257012453696,4,-2,-4,2,-13,9,10,6
1529257012453696,1,1,-1,-3,-6,-16,1,-11
1529257012462672,0,2,1,1,5,-12,-14,-8
1529257012462672,0,-2,-1,-2,-21,3,4,-26
1529257012477632,-11,-8,-7,-11,-6,-20,-23,-3
1529257012477632,-3,-6,-2,0,5,-13,11,-2
1529257012479627,3,0,-5,1,-7,35,6,6
1529257012479627,-3,1,0,-3,-3,81,16,-5
1529257012499573,2,2,2,3,6,-56,-14,-6
1529257012499573,-1,0,-2,-1,-9,0,4,3
1529257012501568,3,0,-1,-1,-2,-20,-5,5
1529257012501568,-3,-3,-3,-4,-1,-6,-8,-2
1529257012513536,2,0,-2,2,2,51,1,1
1529257012513536,-4,0,1,4,4,3,-16,-16
1529257012522512,-5,-2,-4,-4,1,-16,9,-10
1529257012522512,7,1,0,3,0,3,0,20
1529257012536475,-6,1,1,2,-2,-9,-6,-17
1529257012536475,-1,-2,-3,-4,-2,-7,-6,12
1529257012543456,-4,-4,0,-1,1,-3,-6,-25
1529257012543456,-5,-3,-2,-1,-9,-12,2,1
1529257012560411,5,1,-2,-2,1,-3,1,23
1529257012560411,3,0,0,-3,-24,8,2,7
1529257012561408,1,0,1,1,12,-10,2,10
1529257012561408,-2,-3,-2,-1,-1,-10,-2,-2
1529257012573376,1,1,0,1,3,1,2,10
1529257012573376,-2,-1,-1,-1,0,4,0,-8
1529257012582352,1,1,0,0,-6,-10,3,9
1529257012582352,-1,-2,-2,-3,-4,-14,-14,-7
1529257012597312,-4,-2,-1,-1,1,4,4,2
1529257012597312,-2,0,-1,-1,6,3,-2,-2
1529257012603296,2,-2,-2,-4,-7,-10,-12,-8
1529257012603296,-4,1,-1,0,2,3,-1,8
1529257012620251,0,-1,0,-2,-2,-3,-1,-15
1529257012620251,-2,1,0,3,4,0,5,0
1529257012621248,-2,2,-1,-4,-8,-15,1,11
1529257012621248,7,1,0,-3,-4,-2,-9,10
1529257012633216,0,2,1,1,-3,-4,4,-4
1529257012633216,0,-5,-1,0,1,-1,-3,-7
1529257012643190,0,0,-2,1,1,2,1,5
1529257012643190,0,2,1,-1,-1,1,-1,-1
1529257012657152,1,-1,-1,5,1,3,-2,7
1529257012657152,-3,2,0,0,3,1,0,-9
1529257012664133,0,-2,-4,-3,-2,11,2,2
1529257012664133,-5,-2,-2,-1,-4,-5,-2,-7
1529257012680091,1,1,-1,-3,0,1,-7,-12
1529257012680091,-3,-2,-4,-2,-1,0,0,14
1529257012682086,-1,-1,1,0,0,-4,-4,-8
1529257012682086,-2,-3,-3,-1,-5,-10,-3,-6
1529257012694053,-7,-4,-3,-1,-2,-1,-3,-4
1529257012694053,-1,-1,-2,-2,1,-1,-2,-7
1529257012703030,0,2,1,-1,-1,1,0,0
1529257012703030,2,0,-2,0,-1,-8,3,8
1529257012716992,1,-3,0,-1,1,12,-7,3
1529257012716992,-1,-1,-1,0,-1,1,4,-17
1529257012723973,-1,0,-2,0,2,22,7,27
1529257012723973,-9,-1,-1,-2,-1,-54,-29,-50
1529257012739931,12,-2,-3,-5,-5,-9,2,33
1529257012739931,-12,-1,0,1,1,0,-5,-14
1529257012741926,2,-4,-5,-2,-3,-5,-5,20
1529257012741926,2,-1,-3,0,-1,10,5,4
1529257012762869,2,1,-3,-2,0,4,0,-2
1529257012762869,4,2,1,1,0,-6,3,6
1529257012763867,-5,0,1,-1,-1,-3,3,-6
1529257012763867,1,0,0,1,0,14,2,-6
1529257012776832,-6,-4,-1,-1,-1,-7,1,1
1529257012776832,9,0,-1,-1,1,11,0,-6
1529257012783813,-15,-4,2,2,-1,-10,-9,-21
1529257012783813,13,3,-1,-4,-2,8,5,11
1529257012799771,-26,-1,-1,2,0,-1,3,-14
1529257012799771,5,0,-2,-3,-1,-5,-3,2
1529257012801766,6,-3,-3,-2,-2,-12,5,-17
1529257012801766,-2,-2,0,-1,-1,14,-6,7
1529257012822709,10,2,2,1,1,-6,-1,11
1529257012822709,-3,1,1,3,1,-2,9,1
1529257012824704,-12,-3,-1,-2,-3,9,-1,-15
1529257012824704,6,2,-1,-1,-19,-6,9,19
1529257012836672,-2,-4,-3,-1,29,-5,0,-12
1529257012836672,-2,-1,0,-5,-4,-7,5,9
1529257012843654,9,1,-1,-1,-10,-1,-11,-2
1529257012843654,-7,-2,2,7,6,3,3,-1
1529257012859611,-6,-2,1,-2,-9,2,-5,-2
1529257012859611,1,-2,-6,-44,-16,15,-8,0
1529257012861606,2,-2,4,33,19,-23,7,-3
1529257012861606,-5,-5,1,42,-15,19,2,2
1529257012882550,2,1,2,9,13,-5,2,-7
1529257012882550,1,-3,-1,17,1,-1,-5,0
1529257012884544,4,0,-5,-44,-32,-21,-11,0
1529257012884544,-7,-6,-5,-17,19,28,2,7
1529257012896512,10,4,2,11,-1,7,7,-7
1529257012896512,-9,-3,-5,-19,-65,-44,-6,-5
1529257012905489,7,4,2,23,41,25,19,37
1529257012905489,0,2,2,-6,-4,-15,-6,-15
1529257012920448,6,1,-1,-12,1,6,5,6
1529257012920448,7,3,2,8,0,1,4,-1
1529257012921446,-8,-4,-3,-8,-16,0,0,-4
1529257012921446,-5,-1,3,-3,6,-7,-6,-11
1529257012942390,-3,1,-1,-14,-9,-12,-25,-6
1529257012942390,2,0,2,24,21,15,11,3
1529257012944384,-2,1,3,8,5,4,-3,-2
1529257012944384,4,0,0,-6,14,5,4,2
1529257012956352,-5,-3,-3,-14,-14,-3,-5,-4
1529257012956352,2,-3,-2,15,13,2,-1,8
1529257012965329,-5,0,-1,-13,5,32,4,-2
1529257012965329,-1,-2,-11,-16,-15,-70,-21,-13
1529257012980288,-2,-2,-4,-33,-50,23,-4,14
1529257012980288,3,1,15,52,58,12,-4,9
1529257012981286,8,-1,-2,10,-7,-10,2,8
1529257012981286,-6,0,3,0,9,17,11,12
1529257013002230,-3,-4,-8,-8,-15,-9,-4,-12
1529257013002230,-2,-3,-5,-21,-3,7,7,7
1529257013004225,-5,0,1,-7,-9,-3,-5,-11
1529257013004225,3,0,-4,-4,-7,28,9,7
1529257013016192,1,-1,0,-11,10,-29,-14,-7
1529257013016192,7,2,5,20,13,7,13,1
1529257013025169,-13,-4,-2,10,1,-5,-4,2
1529257013025169,-1,0,0,-7,-9,9,8,1
1529257013040128,-1,3,1,7,6,7,3,6
1529257013040128,-7,-4,-3,-8,12,-15,-25,-18
1529257013042123,3,1,2,-6,-7,-12,-4,-6
1529257013042123,0,-3,-3,-3,-1,22,18,5
1529257013063067,-4,-1,2,28,33,37,-3,2
1529257013063067,0,-3,-3,-14,-19,-31,-4,-23
1529257013064065,0,1,0,1,14,13,7,0
1529257013064065,2,0,0,-18,-45,-12,-10,13
1529257013076032,2,0,2,23,35,-8,13,-15
1529257013076032,0,0,-2,-12,-10,3,1,9
1529257013085009,-2,-2,1,-3,-2,-1,-6,-9
1529257013085009,-7,-3,-4,-1,-1,0,-9,0
1529257013099968,10,1,-2,-1,-13,0,20,1
1529257013099968,-7,-1,-1,-2,1,8,-7,13
1529257013101963,0,-1,-2,-4,-13,-32,-17,-8
1529257013101963,0,-2,-2,-1,12,6,-12,-4
1529257013122907,-4,-4,-1,5,-11,-25,-6,-5
1529257013122907,0,-3,-1,-4,13,10,2,2
1529257013123904,3,-1,-3,-8,-9,-37,2,-5
1529257013123904,1,0,1,6,13,51,4,2
1529257013135872,-4,-2,0,-1,-5,-51,-1,-7
1529257013135872,2,0,-2,-10,-18,4,1,2
1529257013144848,-1,0,0,2,7,4,-6,-3
1529257013144848,-4,-4,-1,9,-18,-24,-3,-5
1529257013159808,-3,-1,-1,-11,11,30,12,6
1529257013159808,-4,1,1,23,4,-11,-8,-2
1529257013161803,5,0,-3,-3,-12,15,16,15
1529257013161803,-5,1,-1,-7,2,-31,-27,-23
1529257013182747,0,-4,-3,-7,-10,4,7,8
1529257013182747,-6,-4,-4,-9,-11,-1,9,0
1529257013183745,0,1,2,-4,9,9,-16,-7
1529257013183745,4,1,3,4,5,-15,7,10
1529257013195712,-4,-3,-2,1,-14,-32,-32,-4
1529257013195712,0,0,0,-7,1,-9,28,17
1529257013205686,-1,-1,-2,0,-4,10,9,-8
1529257013205686,4,2,-1,-1,6,-12,2,10
1529257013219648,-2,-2,-2,8,1,1,-9,-8
1529257013219648,-7,-3,-4,-9,-12,2,-1,-8
1529257013221643,0,-2,-1,-3,-17,15,-8,-2
1529257013221643,2,-1,0,5,19,34,33,1
1529257013242587,5,1,-3,2,-12,16,-3,7
1529257013242587,-1,1,2,-1,3,-9,-20,-14
1529257013244582,-1,-2,-2,1,0,17,13,1
1529257013244582,-3,-2,-3,-13,-3,-20,-9,-2
1529257013256550,2,6,11,15,-8,17,4,-2
1529257013256550,1,-2,-1,-4,12,16,-4,4
1529257013265526,-3,-4,-4,-1,-18,-21,0,10
1529257013265526,1,-2,-1,-4,-3,-21,-8,-7
1529257013280486,-7,-5,-2,-1,7,-3,-4,-9
1529257013280486,-1,-1,-1,-3,-8,-8,0,-3
1529257013281483,5,1,-1,-5,6,0,-1,5
1529257013281483,-5,-3,0,3,0,-4,-10,-3
1529257013302427,0,-3,-2,-7,-1,-29,3,-2
1529257013302427,3,4,1,1,2,81,14,12
1529257013304422,1,-4,-1,3,-28,-61,-17,-17
1529257013304422,2,-1,-2,-1,65,1,-8,5
1529257013316390,-4,-2,-3,-1,9,26,6,2
1529257013316390,-3,-4,-7,-41,-25,13,-7,-7
1529257013325366,-5,-1,4,58,4,9,-3,-11
1529257013325366,-2,-1,-5,-5,-117,-43,6,-6
1529257013339329,0,3,6,32,111,55,-6,4
1529257013339329,-1,-2,-2,-13,27,-30,-5,0
1529257013346310,-1,2,-1,-32,-2,44,6,-3
1529257013346310,2,4,7,32,3,12,1,-8
1529257013362267,-1,-2,-5,-12,-81,15,4,6
1529257013362267,3,3,2,16,46,-83,-14,-5
1529257013364262,-5,-4,-1,9,22,24,5,4
1529257013364262,-4,-1,-2,-9,-1,5,-1,-9
1529257013376230,0,1,-2,-26,-12,7,0,-27
1529257013376230,1,1,3,20,5,9,7,21
1529257013385206,5,1,-2,-7,1,-4,-18,-4
1529257013385206,-6,-2,-1,-10,21,12,1,-12
1529257013400166,0,-3,-2,0,-15,-13,3,0
1529257013400166,-7,-3,-2,-8,-39,-17,-4,-11
1529257013402161,3,0,-1,-2,23,-1,3,20
1529257013402161,-10,-4,-5,-11,-3,15,2,-9
1529257013422107,1,-1,-4,-8,-8,-5,1,3
1529257013422107,-5,-2,-1,16,-23,67,12,1
1529257013424102,3,1,1,-13,-23,-54,4,7
1529257013424102,2,0,3,-1,21,-18,-4,2
1529257013436070,2,-2,0,4,-14,-30,-2,3
1529257013436070,-9,-2,0,10,42,21,-1,-4
1529257013445047,-3,-4,-5,-14,3,17,0,-2
1529257013445047,-7,-3,-1,-1,-2,-1,-5,-22
1529257013459009,-3,0,2,6,-5,-7,-2,5
1529257013459009,7,1,-1,-10,-16,-12,-4,-5
1529257013465990,0,0,-2,-4,15,-3,4,-5
1529257013465990,3,-2,-3,7,1,1,3,33
1529257013482945,-1,-1,-1,-3,-13,-5,0,-5
1529257013482945,2,-3,-1,-3,-2,-8,-3,-13
1529257013483942,-5,-2,0,-1,-4,-7,-2,-14
1529257013483942,8,0,-1,1,-3,9,5,31
1529257013495910,-1,0,3,4,4,-3,2,-6
1529257013495910,-2,0,1,-1,-8,-9,5,13
1529257013504886,2,0,-1,2,4,6,1,-4
1529257013504886,2,-4,-6,-8,-3,-7,-9,-4
1529257013519846,-3,-2,-3,-5,9,-3,-1,4
1529257013519846,3,0,-3,-6,-43,-1,0,-11
1529257013525830,-10,-3,2,6,37,46,2,3
1529257013525830,-3,-1,0,2,8,-36,0,0
1529257013542784,1,-3,-1,0,-2,-7,2,13
1529257013542784,-3,-3,-2,-3,-15,-19,-23,-23
1529257013543782,1,2,-1,-7,-7,-4,2,1
1529257013543782,2,2,2,9,3,18,6,-2
1529257013556747,-7,-1,0,0,3,1,0,-8
1529257013556747,7,0,0,3,10,-16,-3,21
1529257013564726,-3,-2,-1,-2,-8,10,4,2
1529257013564726,-6,-1,0,1,8,12,-4,-22
1529257013579686,2,0,-2,-1,-1,-2,9,2
1529257013579686,-6,-1,-2,1,13,-9,-6,-19
1529257013586667,0,0,-2,-1,-8,-11,-3,-8
1529257013586667,3,-1,0,-1,-9,-1,4,5
1529257013602625,-2,0,-1,-5,17,0,0,-2
1529257013602625,0,-4,-9,-34,2,1,-11,-3
1529257013604619,1,0,4,25,5,-4,3,-11
1529257013604619,0,0,3,14,1,-2,-2,-6
1529257013616587,-2,-5,-3,0,-1,-4,-2,20
1529257013616587,-2,-1,-2,-10,-4,-18,-2,-11
1529257013625564,-1,-4,-3,-20,-26,-37,-10,14
1529257013625564,1,-5,-9,-56,20,34,8,-5
1529257013639526,-6,5,12,47,38,13,-10,6
1529257013639526,0,0,0,9,-5,-3,1,15
1529257013646507,-7,-2,0,7,14,5,-14,-18
1529257013646507,-3,1,-1,-10,-37,-3,-1,-12
1529257013662465,3,-2,-6,-28,-14,-8,-7,-4
1529257013662465,-3,-3,0,2,-7,14,6,-1
1529257013664460,-8,-2,-3,-17,-19,-5,25,-5
1529257013664460,6,0,0,23,18,-33,-39,17
1529257013685403,6,-3,-5,-12,-59,-13,11,42
1529257013685403,-9,4,8,20,25,9,6,-14
1529257013686402,5,-2,-6,-21,-13,0,7,23
1529257013686402,-5,-2,-9,3,-8,10,2,-10
1529257013699366,-1,-3,3,-18,-15,-3,0,-10
1529257013699366,5,-1,-5,-16,5,2,-12,7
1529257013706347,6,4,9,63,71,25,14,11
1529257013706347,-2,1,6,-19,9,42,3,3
1529257013722305,-5,1,0,39,5,-43,42,-30
1529257013722305,3,-2,-8,-80,-55,-17,-6,16
1529257013724300,-1,4,9,57,96,6,-22,-16
1529257013724300,-4,-1,-1,14,-10,-17,0,-29
1529257013745243,3,0,-2,-22,-15,10,-2,8
1529257013745243,8,1,1,11,-12,13,13,-1
1529257013746241,-4,-6,-6,-22,-54,-8,6,-6
1529257013746241,6,2,2,1,2,-8,6,16
1529257013759206,-4,-4,-6,-28,2,-5,-18,-13
1529257013759206,-7,-2,1,14,9,-1,8,-9
1529257013766187,12,3,4,-1,-2,-12,-18,-1
1529257013766187,-18,-6,-5,-41,-47,53,25,1
1529257013782145,1,4,6,48,47,1,9,0
1529257013782145,-1,-1,-3,20,17,3,-6,5
1529257013784140,3,-2,-7,-19,-27,1,3,3
1529257013784140,5,1,0,-9,59,-25,-5,8
1529257013805083,-13,-1,2,-5,-17,34,-19,-49
1529257013805083,9,-1,-1,11,0,-38,-11,-5
1529257013807078,2,-1,-3,-21,-84,16,10,27
1529257013807078,-2,3,4,23,18,17,7,-3
1529257013820044,1,-1,-7,-8,4,10,-13,4
1529257013820044,-10,-1,0,30,27,-1,-2,-25
1529257013828023,-4,-1,-5,-29,-36,-9,-8,10
1529257013828023,2,0,2,-5,3,-26,-12,7
1529257013842982,6,-1,2,6,-7,14,8,13
1529257013842982,-8,-3,-2,6,-12,8,10,-3
1529257013843980,-10,-10,-13,-24,-60,-20,-2,-5
1529257013843980,6,7,11,27,79,29,16,16
1529257013864923,4,2,1,-3,-71,-29,-8,-11
1529257013864923,1,0,0,10,83,25,-4,1
1529257013866919,0,-2,-3,-7,-1,-27,-12,-5
1529257013866919,0,-4,-4,6,-15,12,18,3
1529257013878886,-1,-6,-5,-18,-20,-19,16,-7
1529257013878886,1,0,0,-6,-49,5,6,-1
1529257013887862,-4,1,3,0,59,7,-6,2
1529257013887862,-4,-3,-2,4,-30,-12,3,-4
1529257013902822,-1,-2,-9,-9,24,8,-3,17
1529257013902822,-2,-2,-3,-4,-41,3,-1,-3
1529257013903820,-8,-3,2,-9,8,4,-14,-23
1529257013903820,2,-3,-6,-27,-9,-34,6,9
1529257013924764,0,2,3,47,29,18,-5,0
1529257013924764,1,-1,2,-10,-68,-31,-10,1
1529257013926758,9,2,1,1,-5,30,3,19
1529257013926758,-10,-3,-2,-3,-29,-12,-9,-21
1529257013938726,14,-2,-3,-4,14,-1,-20,14
1529257013938726,-4,-3,-3,-13,-23,8,17,6
1529257013947703,-2,3,4,24,48,3,4,-6
1529257013947703,12,-1,-2,-17,-27,0,0,13
1529257013962662,-26,-4,-6,0,6,-8,5,2
1529257013962662,-4,-1,1,-8,0,27,15,4
1529257013964657,4,2,6,28,5,-36,-22,-9
1529257013964657,-3,-3,-6,-15,-38,-10,-16,-5
1529257013984603,9,2,2,22,7,21,5,8
1529257013984603,0,0,-3,1,20,8,-7,1
1529257013986599,-7,-2,1,0,-33,-24,-7,-13
1529257013986599,2,1,-4,-15,-16,7,9,-1
1529257013998566,8,2,3,20,68,-4,-1,0
1529257013998566,-15,-4,-4,-4,7,-6,-12,-17
1529257014007543,6,-2,-3,-10,-19,31,10,24
1529257014007543,3,1,1,11,-17,-22,-16,-9
1529257014022502,-4,-2,0,-20,-9,9,-2,4
1529257014022502,1,-2,-3,-2,17,1,15,9
1529257014024497,-2,-1,0,14,-2,-2,5,-4
1529257014024497,-5,-5,-3,10,18,-1,-8,3
1529257014045441,-1,-5,-3,-33,-40,-17,-2,-3
1529257014045441,4,1,1,21,-2,4,-3,10
1529257014046438,3,-5,-6,-23,-15,-16,-5,10
1529257014046438,2,4,2,-25,-37,4,23,5
1529257014058406,2,1,5,45,14,-30,-43,-14
1529257014058406,4,5,3,17,-100,-55,-18,7
1529257014067382,-6,-5,-3,-16,28,19,13,-13
1529257014067382,-8,-4,-8,-26,-41,-4,-15,-3
1529257014082342,2,-3,-3,14,-15,8,5,8
1529257014082342,-2,-1,0,-3,23,13,-5,-10
1529257014084337,2,5,2,-3,-2,-3,-7,-9
1529257014084337,13,2,2,45,77,12,3,10
1529257014105281,3,-1,-6,-68,-78,-17,-4,-21
1529257014105281,-43,-8,-3,22,66,13,-1,7
1529257014106278,-1,-3,-8,-23,-22,5,3,-1
1529257014106278,17,4,6,13,1,7,-12,12
1529257014118246,-5,1,-3,-67,58,-6,6,-11
1529257014118246,22,-4,0,32,-20,17,10,5
1529257014128220,-22,0,4,30,-10,2,-14,-10
1529257014128220,0,2,-2,7,40,-25,-19,0
1529257014142182,4,2,2,6,-4,16,7,9
1529257014142182,-30,-6,-9,-37,56,-12,-5,-7
1529257014144177,4,-1,1,-20,-1,24,13,-1
1529257014144177,-1,-1,0,39,33,1,1,-10
1529257014165121,9,2,-1,-1,-28,-5,4,6
1529257014165121,14,-3,-7,-38,1,9,5,6
1529257014167116,-17,-5,-20,-105,-84,-46,-9,-13
1529257014167116,10,8,20,121,31,31,3,1
1529257014179083,-33,-4,2,-1,92,27,7,-7
1529257014179083,17,-4,-20,-75,-50,-2,-5,-2
1529257014188060,5,7,22,97,6,33,27,6
1529257014188060,-12,-1,-2,-42,11,-46,6,-17
1529257014203020,7,-3,-1,3,-27,7,0,1
1529257014203020,-2,1,0,-18,-22,-14,-12,-12
1529257014204017,1,-1,-2,7,4,7,2,-2
1529257014204017,-7,-8,-12,-56,48,3,-8,-10
1529257014224961,4,-1,-1,9,15,-1,3,1
1529257014224961,0,-1,3,23,-1,-8,-2,-1
1529257014226956,20,-6,-11,-56,9,3,-6,6
1529257014226956,-19,-7,5,77,-46,-1,-2,-3
1529257014238924,-13,-7,-14,-61,-118,-21,-3,1
1529257014238924,10,9,16,-11,109,21,5,-1
1529257014247900,3,5,8,44,42,5,10,6
1529257014247900,13,-3,-12,-99,-23,-5,-13,6
1529257014262860,2,6,15,62,17,5,4,0
1529257014262860,-4,-3,-10,-80,-61,-3,-4,-7
1529257014263857,1,5,7,66,47,-8,0,-2
1529257014263857,1,4,1,31,-80,-12,2,-5
1529257014284801,7,-7,-8,-7,62,7,-13,-6
1529257014284801,4,6,13,48,-79,-14,2,4
1529257014286796,7,0,-4,-87,92,15,-2,-1
1529257014286796,-17,-10,-7,4,-20,5,-4,-1
1529257014298764,-2,3,4,21,-74,4,-4,-11
1529257014298764,14,1,4,44,24,-7,9,20
1529257014307741,8,-2,-6,-31,-37,-16,-7,1
1529257014307741,8,1,0,-34,-50,1,3,-1
1529257014322699,-30,-5,3,79,48,0,2,-4
1529257014322699,21,4,8,2,22,-5,-1,11
1529257014324695,-18,-5,-9,-54,-36,-5,-4,-5
1529257014324695,19,2,7,67,30,-13,-3,5
1529257014344641,-14,0,-7,-74,44,-5,0,-14
1529257014344641,-24,-6,-8,-63,-8,0,-9,-13
1529257014346636,13,5,5,55,11,3,-3,2
1529257014346636,-2,-4,-11,-44,-28,0,0,1
1529257014358604,22,-1,-5,6,-68,-17,2,21
1529257014358604,5,2,-2,-9,23,2,9,16
1529257014367580,-20,-5,0,47,-11,8,0,-28
1529257014367580,0,-3,1,19,36,53,-3,-7
1529257014382540,14,7,15,-5,-17,-20,7,7
1529257014382540,-5,1,-5,-36,2,-3,-2,2
1529257014384535,35,3,-5,-30,-101,-18,5,39
1529257014384535,-62,-7,19,81,59,19,-28,-28
1529257014405478,-4,-5,-4,21,0,-4,-2,-16
1529257014405478,-24,-13,-26,-64,-106,-9,-4,-10
1529257014406476,8,4,16,102,90,43,14,45
1529257014406476,-8,5,-1,-33,-44,-26,6,-46
1529257014418444,5,-5,-29,-90,14,97,11,30
1529257014418444,7,0,12,104,25,-46,-5,-3
1529257014427420,-4,-4,-13,-98,-49,-68,-20,6
1529257014427420,5,1,8,-19,59,-16,16,22
1529257014442380,23,5,-3,-49,-24,-10,1,-22
1529257014442380,-52,-12,-14,-58,-22,0,-5,-8
1529257014448364,-5,-3,-2,-8,21,14,-8,-9
1529257014448364,-5,0,-16,-84,-46,14,1,-7
1529257014465319,10,6,11,-3,3,-19,-12,-2
1529257014465319,9,1,6,9,36,19,10,11
1529257014466317,-8,-4,-3,33,9,-5,-20,-42
1529257014466317,-10,-7,-6,-88,-110,20,11,1
1529257014478284,-29,-20,-36,-59,-62,-15,-14,-24
1529257014478284,23,11,30,127,31,23,71,50
1529257014487260,-35,1,27,64,66,40,12,47
1529257014487260,48,8,-7,-67,-40,-11,-17,27
1529257014502220,-3,1,15,89,-20,-27,-18,1
1529257014502220,-29,-6,-24,-113,-77,-96,-50,-124
1529257014509201,20,6,6,15,-2,50,28,35
1529257014509201,1,1,3,17,40,39,-8,2
1529257014525158,5,5,5,-45,-2,-4,17,24
1529257014525158,-10,-10,-20,-128,-44,9,-36,-19
1529257014527153,-2,-7,-15,5,9,-11,13,-26
1529257014527153,-6,-12,-7,67,-15,54,-16,9
1529257014539121,12,8,1,-36,45,-3,1,-28
1529257014539121,-2,0,9,93,18,54,58,5
1529257014548097,-14,-4,2,40,26,-31,7,-22
1529257014548097,5,-6,-11,-68,45,-35,9,12
1529257014562060,25,7,4,5,3,-23,-13,8
1529257014562060,-17,-6,-6,-45,5,24,-4,-22
1529257014569041,1,-1,-7,-70,-48,-25,-22,-8
1529257014569041,4,2,-9,-43,-44,-60,-5,-13
1529257014584998,2,7,28,100,47,16,16,19
1529257014584998,26,9,8,35,79,57,-16,19
1529257014586993,15,6,5,14,13,-41,28,10
1529257014586993,-29,-2,4,2,-58,-38,-29,-9
1529257014598961,8,2,2,33,41,-37,-40,5
1529257014598961,11,3,-7,-49,-32,36,15,-15
1529257014607938,-8,-8,-4,-23,-21,4,-40,30
1529257014607938,5,1,2,33,-24,-62,-10,-24
1529257014621900,-9,-1,1,-5,-59,34,15,-15
1529257014621900,-9,-8,-9,-8,45,64,-55,-10
1529257014628881,-3,-3,-8,-90,-96,-65,40,-1
1529257014628881,35,15,17,3,61,-15,33,-2
1529257014644838,-54,-12,-8,-4,-16,6,9,8
1529257014644838,39,8,14,52,15,-25,-4,41
1529257014646834,-1,3,-5,-74,-31,17,-14,-34
1529257014646834,-25,-9,-10,-16,13,46,3,25
1529257014667777,12,1,2,7,12,-12,39,23
1529257014667777,0,-5,-17,-87,-46,-59,-11,6
1529257014668775,-6,0,1,-14,0,23,-27,-33
1529257014668775,9,3,5,1,94,20,44,34
1529257014681740,10,-4,-1,-27,-20,40,-4,-6
1529257014681740,-4,-12,-6,45,35,-21,30,3
1529257014688721,-17,-2,-1,-14,-4,-35,12,-15
1529257014688721,1,-6,-16,-56,-23,8,-1,-5
1529257014704678,17,3,8,22,37,-2,-10,11
1529257014704678,-13,-4,0,12,-2,-35,-26,-16
1529257014706673,-26,-4,-7,-38,-71,-8,32,-18
1529257014706673,20,7,5,-17,57,19,-1,30
1529257014727617,-17,-14,-18,-32,28,-31,1,-59
1529257014727617,0,5,2,-51,-78,11,11,35
1529257014729612,4,-2,3,87,37,13,-2,-15
1529257014729612,-5,1,0,7,-7,-49,-32,-26
1529257014741580,9,-1,-12,-58,-25,17,8,10
1529257014741580,-13,2,16,80,69,9,-12,-4
1529257014748561,15,-1,-9,-64,1,4,-16,-5
1529257014748561,12,-2,-5,-4,10,46,31,40
1529257014765516,-2,-1,6,39,-14,-13,2,11
1529257014765516,26,6,4,27,8,12,14,8
1529257014766514,-27,-6,-5,-16,25,20,-11,-1
1529257014766514,0,2,7,69,14,-7,-11,-31
1529257014787457,-9,-3,-10,-81,-37,3,-4,4
1529257014787457,-1,1,3,-4,-7,-5,-8,-4
1529257014789452,16,3,-4,-56,26,-3,-9,-5
1529257014789452,6,2,13,62,-14,1,5,15
1529257014801420,-38,-3,6,56,5,9,52,12
1529257014801420,16,8,11,35,21,-5,-2,7
1529257014810396,17,0,0,-33,10,5,-22,-13
1529257014810396,2,4,8,59,-8,-6,4,34
1529257014825356,3,-9,-11,-52,-47,15,-9,2
1529257014825356,-5,-3,-3,-21,44,-16,-3,6
1529257014826353,5,2,-1,63,-5,6,-9,8
1529257014826353,11,-2,-20,-128,-48,16,-30,-34
1529257014847297,13,1,3,13,-34,-9,-11,-8
1529257014847297,-42,-10,-8,-31,-65,-18,2,42
1529257014849292,19,0,1,19,76,35,20,-11
1529257014849292,-15,-3,-1,-70,-30,-33,-5,-5
1529257014861260,17,9,10,48,11,-1,-39,9
1529257014861260,6,11,16,55,-19,-45,84,-5
1529257014870236,-9,-2,2,17,-75,14,6,7
1529257014870236,-13,-3,4,45,104,31,14,0
1529257014885196,6,-3,-14,-116,-40,-42,-14,-14
1529257014885196,-6,-3,-4,-6,-9,3,-37,-12
1529257014886194,-8,-6,-1,46,59,11,-3,7
1529257014886194,-27,-5,4,97,2,-17,9,-2
1529257014907138,9,-1,-12,-65,-9,46,17,4
1529257014907138,8,-4,2,12,58,10,-21,-11
1529257014909133,9,0,-4,-39,-12,4,-3,27
1529257014909133,-7,-8,-14,-89,-51,-66,-42,-44
1529257014921100,-18,-6,-8,-46,13,74,36,1
1529257014921100,-6,-7,-11,58,-22,-8,-10,26
1529257014930076,10,1,-1,-29,-48,-20,-36,-21
1529257014930076,-14,-6,-10,-61,-75,18,22,12
1529257014945036,-21,5,26,114,70,4,9,-6
1529257014945036,5,-6,-13,-106,-47,22,-7,-28
1529257014947031,-2,-2,-2,36,49,-12,-41,4
1529257014947031,9,2,5,13,-18,16,17,2
1529257014967974,-6,-4,-8,-43,-1,11,-40,6
1529257014967974,1,2,-2,-55,-35,-28,0,-5
1529257014968973,9,8,14,61,12,13,19,12
1529257014968973,-13,-6,-7,9,-14,-15,-10,-16
1529257014980940,2,2,7,8,46,-13,-10,-6
1529257014980940,20,4,8,33,-12,10,4,2
1529257014989916,-38,-6,-4,16,-36,10,8,-8
1529257014989916,13,-2,-12,-41,0,-9,-10,3
1529257015004876,-16,-1,-1,-8,-10,-36,13,1
1529257015004876,9,6,6,14,51,-9,-16,-6
1529257015006871,5,-5,-3,1,-52,8,11,0
1529257015006871,-6,-1,-4,-36,38,-12,-15,-17
1529257015027815,17,2,-1,-7,45,25,7,9
1529257015027815,4,2,2,2,-15,-15,-1,5
1529257015028812,-9,-1,-3,-70,-73,-35,1,16
1529257015028812,4,-6,13,127,49,85,-4,-1
1529257015040780,1,-2,-8,-70,-29,-48,16,-14
1529257015040780,-6,-5,-5,-8,32,57,20,15
1529257015050754,12,4,1,-26,6,-25,-23,-14
1529257015050754,-21,-3,-4,-24,-33,-16,10,3
1529257015064716,2,0,-1,28,9,-10,-15,-3
1529257015064716,-6,-7,-1,-2,-33,5,-5,-20
1529257015066712,1,-4,-9,-24,12,-13,4,15
1529257015066712,7,4,6,6,21,47,6,-2
1529257015087654,-7,-6,-13,-89,-63,-47,-29,-14
1529257015087654,9,11,24,45,21,-12,2,-17
1529257015089650,-4,-3,-1,14,6,-41,-5,16
1529257015089650,2,2,-4,-25,-1,6,0,5
1529257015101617,-1,0,-2,-14,-14,26,-7,-1
1529257015101617,11,1,-13,-93,-54,-3,-27,-4
1529257015110594,15,0,5,83,51,-15,10,5
1529257015110594,-42,-4,2,11,-14,-8,2,-20
1529257015125553,6,2,0,34,-1,-22,-22,15
1529257015125553,8,1,-1,19,21,13,-3,4
1529257015126551,-2,2,-3,-34,65,28,16,5
1529257015126551,19,4,-4,-39,-36,-27,18,33
1529257015147495,-2,3,22,127,25,47,-7,-47
1529257015147495,-6,-7,-13,-77,60,29,31,31
1529257015149490,4,3,-4,-71,-39,-25,-1,-10
1529257015149490,14,10,19,103,49,-11,24,-4
1529257015161457,4,-4,-6,-19,-13,1,3,36
1529257015161457,-18,-2,-7,-66,-46,-15,-4,-6
1529257015170434,-8,0,17,95,64,31,-8,-15
1529257015170434,12,-1,-24,-128,-120,-17,-1,0
1529257015185393,1,5,31,95,55,29,25,6
1529257015185393,-5,-6,-5,4,6,-41,14,-11
1529257015186391,5,-3,-9,-75,-21,76,18,26
1529257015186391,2,-8,-23,-111,-63,-40,7,-9
1529257015207335,-3,5,9,67,51,-73,-24,-3
1529257015207335,2,-3,-3,9,6,-9,-13,-3
1529257015209330,-18,-5,-1,-13,-57,-33,-13,-11
1529257015209330,7,-7,-17,-77,-2,12,-20,-8
1529257015221297,-1,-3,-5,3,-2,15,16,7
1529257015221297,-2,1,2,0,6,21,-7,0
1529257015230274,5,0,-3,-18,-30,-12,6,-23
1529257015230274,-1,0,3,23,13,2,-21,-14
1529257015245234,1,-5,-14,-60,-22,-2,18,-3
1529257015245234,-13,1,8,64,10,-15,1,-8
1529257015246231,5,1,-6,-20,2,-5,3,9
1529257015246231,-3,-7,-12,-57,7,-23,-4,4
1529257015267175,-4,4,7,1,13,-7,-9,-15
1529257015267175,13,-2,-4,-22,-19,-18,-5,-6
1529257015269170,2,2,-1,-33,-16,-14,-11,-9
1529257015269170,-6,3,11,53,19,9,6,4
1529257015281137,-4,-4,-10,-48,-31,-9,11,-2
1529257015281137,4,0,-2,32,9,10,-4,6
1529257015290114,-6,-4,-14,-72,-52,-2,-2,-13
1529257015290114,11,3,15,59,11,10,5,8
1529257015305073,10,-2,-3,48,28,11,14,17
1529257015305073,2,4,8,28,21,10,0,-3
1529257015307068,-11,-7,-5,-17,2,8,-4,-8
1529257015307068,5,3,5,18,11,15,-2,12
1529257015328012,-11,-8,-13,-41,-77,11,-4,-12
1529257015328012,-2,1,-1,-35,12,-34,4,5
1529257015329010,14,3,14,106,55,1,12,20
1529257015329010,-26,-9,-1,0,3,1,-10,-11
1529257015340978,9,1,-6,-19,-8,-1,-15,-5
1529257015340978,-1,-2,-1,23,-16,-2,7,-2
1529257015349954,-19,-3,-5,-29,-13,-1,8,10
1529257015349954,14,7,13,49,47,59,-28,10
1529257015364914,-7,1,4,12,19,-28,22,1
1529257015364914,2,3,5,31,-13,8,8,-3
1529257015370897,12,1,-1,-12,19,18,4,-17
1529257015370897,10,1,4,1,-13,-98,-33,13
1529257015387852,-12,1,-1,-29,-51,15,-13,-7
1529257015387852,13,6,11,41,56,16,13,41
1529257015388850,-12,-3,0,-3,5,31,-3,-23
1529257015388850,-17,-1,-3,-19,-12,3,22,-27
1529257015400817,8,-2,-3,-14,-3,-4,-8,17
1529257015400817,-8,-7,-8,-15,-21,-21,-10,-19
1529257015409793,5,-3,-8,-99,-51,-10,-7,25
1529257015409793,6,2,9,96,60,32,21,0
1529257015424753,-4,2,4,43,28,-3,-3,-8
1529257015424753,-8,-5,-8,-9,-25,10,-6,-18
1529257015430738,-1,1,5,28,38,-2,-69,-6
1529257015430738,-9,2,-2,-34,-41,-15,23,-25
1529257015447692,13,-6,-2,7,11,-2,-28,16
1529257015447692,-9,2,7,81,38,14,-5,-4
1529257015449687,-1,2,2,-2,-12,10,5,-5
1529257015449687,0,-2,-4,29,4,-1,-6,-1
1529257015461655,9,5,8,-24,0,4,2,15
1529257015461655,-8,-8,-16,-70,-18,5,-17,4
1529257015470631,-1,-4,-3,34,-5,-53,-6,-19
1529257015470631,-1,-4,-7,-3,5,-12,-31,5
1529257015484594,-8,-10,-15,-100,-31,-9,13,-7
1529257015484594,3,2,1,14,-12,-19,10,-14
1529257015491575,15,4,3,10,2,-7,14,29
1529257015491575,-20,-6,-5,-3,-15,0,-5,-7
1529257015507532,-17,-2,-5,-55,12,14,-2,-4
1529257015507532,2,0,7,1,7,-29,25,8
1529257015509527,0,-2,-2,-8,-29,7,22,-36
1529257015509527,-3,-3,-5,-29,-21,-3,-59,10
1529257015521495,-1,-3,-2,32,16,5,72,-9
1529257015521495,-4,-1,-4,-12,31,12,7,13
1529257015530471,3,2,-1,-23,-21,-24,-10,1
1529257015530471,15,4,7,-11,43,68,26,7
1529257015544433,-20,-1,5,84,8,-7,-16,-14
1529257015544433,-12,-3,-4,-22,-10,6,-16,-4
1529257015551415,1,2,1,40,5,4,18,3
1529257015551415,4,0,1,-26,2,27,17,-6
1529257015567372,5,1,-4,-39,1,8,-3,4
1529257015567372,3,0,-4,-44,-57,-14,-7,-17
1529257015569367,-4,3,12,26,37,-7,-9,36
1529257015569367,-8,-3,-5,26,-28,0,32,-1
1529257015590311,10,1,2,46,29,-4,-3,-5
1529257015590311,22,-1,-9,-44,-47,-12,-27,2
1529257015591309,-44,-11,-16,-79,12,16,7,-7
1529257015591309,10,7,14,90,2,27,52,13
1529257015604274,10,3,0,-29,4,-14,-24,14
1529257015604274,16,4,3,38,0,1,16,7
1529257015611255,12,-1,-3,2,-3,-9,2,10
1529257015611255,-1,-2,0,-4,9,-34,-8,12
1529257015627212,-27,-10,-21,-40,-82,-28,-17,-17
1529257015627212,-2,9,24,63,61,29,-4,-1
1529257015629207,9,2,0,-7,-28,13,9,-22
1529257015629207,3,-2,-7,-17,-19,-29,-23,-7
1529257015650151,9,1,-2,-65,-41,-6,-3,-3
1529257015650151,-2,0,-3,21,44,12,-15,-9
1529257015652146,-24,-4,3,35,8,-8,8,-11
1529257015652146,9,2,-1,-2,-16,-18,-10,-12
1529257015664114,7,-3,0,1,41,-2,-45,3
1529257015664114,-4,-3,1,-16,1,19,27,2
1529257015671095,-9,-4,-2,34,31,5,-1,-10
1529257015671095,-12,-2,-6,-45,-15,25,35,1
1529257015688050,2,4,17,84,30,-19,-9,-6
1529257015688050,6,-4,-9,-51,-27,-2,6,38
1529257015689048,11,2,-2,3,-7,-17,-9,-2
1529257015689048,-11,-4,-4,-35,-3,0,13,2
1529257015709991,5,0,-3,-8,-4,-6,-5,4
1529257015709991,-4,-2,-4,-37,-16,-4,-11,-16
1529257015711986,1,-1,-6,-12,-30,-19,-9,-8
1529257015711986,8,6,8,28,20,-8,-2,21
1529257015723954,14,0,0,6,3,4,-16,-21
1529257015723954,-33,-4,2,3,-9,-12,-6,-21
1529257015732930,1,-7,-23,-119,-85,0,-39,-4
1529257015732930,4,2,7,9,45,-26,36,4
1529257015754871,4,2,-2,-35,-6,19,21,3
1529257015754871,-6,-5,-8,14,2,-11,-13,-4
1529257015756866,4,-2,-1,-17,-8,16,-7,2
1529257015756866,-4,-2,-6,0,-39,26,19,-7
1529257015769831,-5,1,4,42,35,15,-10,8
1529257015769831,5,-2,-6,-49,-22,-3,-2,-2
1529257015771826,-9,-1,5,26,34,-14,-12,-6
1529257015771826,12,2,2,56,-15,-12,-15,1
1529257015783794,-10,-4,-7,-52,-7,12,15,1
1529257015783794,0,-2,-2,7,-23,-12,-13,-1
1529257015792770,5,-3,4,76,47,56,40,9
1529257015792770,7,1,-1,-57,-23,-29,-20,4
1529257015807730,1,2,-1,17,42,-3,4,19
1529257015807730,-2,2,0,7,16,1,-2,-1
1529257015809725,3,2,-3,-18,-14,-8,30,-13
1529257015809725,-5,-5,-11,-79,-28,-6,-23,0
1529257015829671,-22,-1,3,39,-2,19,10,9
1529257015829671,-1,0,0,-34,29,16,31,1
1529257015831666,-3,-3,-1,16,3,-16,9,-13
1529257015831666,7,3,1,6,34,-13,-18,-4
1529257015843634,-17,-4,-4,-35,-22,-67,-36,-15
1529257015843634,9,0,3,35,8,54,27,26
1529257015852610,-5,-3,5,-9,-37,-3,-10,-15
1529257015852610,-7,-2,0,-29,7,-33,-3,-12
1529257015867570,12,4,7,36,12,23,27,2
1529257015867570,0,1,1,19,2,10,-12,-9
1529257015869565,10,3,1,7,4,-15,26,24
1529257015869565,-10,-8,-9,-70,-34,52,-1,-21
1529257015890508,13,1,10,77,28,12,-4,10
1529257015890508,-4,0,-5,-19,-21,-9,-21,-22
1529257015891506,-2,-1,-3,-26,15,39,25,38
1529257015891506,-7,1,5,43,4,-14,5,-11
1529257015903474,6,-3,-12,-87,-11,33,19,3
1529257015903474,-1,-1,5,38,4,-30,-33,-9
1529257015912450,1,3,-1,-8,1,9,9,5
1529257015912450,-7,-1,-6,-51,-7,-3,-23,-16
1529257015927410,8,1,7,45,38,16,16,5
1529257015927410,-3,-3,-9,-58,-83,-24,12,-1
1529257015929405,-1,-2,-2,-22,56,16,38,-1
1529257015929405,1,-3,-1,20,19,-41,-51,5
1529257015950348,-4,-4,-12,-56,-69,-17,-23,-14
1529257015950348,6,6,3,14,13,1,-1,7
1529257015951346,-4,2,3,-10,-7,-46,-13,-22
1529257015951346,5,0,0,6,12,9,4,8
1529257015963314,-1,-3,-7,-23,-38,-15,10,-1
1529257015963314,1,1,0,-26,41,15,7,8
1529257015972290,13,1,0,25,9,25,-14,0
1529257015972290,-2,1,7,62,34,10,18,5
1529257015987250,2,3,0,-15,-24,-54,-21,-10
1529257015987250,-1,-7,-14,-60,-18,-5,-11,-7
1529257015989245,1,2,5,35,17,-17,-18,-1
1529257015989245,-4,-3,-7,-13,-15,-11,-3,-11
1529257016010189,-2,-4,-10,-44,-40,-29,36,18
1529257016010189,18,4,10,77,28,11,11,3
1529257016012184,-20,-2,0,3,3,1,-18,16
1529257016012184,1,1,-1,15,3,-15,-6,3
1529257016024151,-19,-8,-13,-78,-24,1,0,-20
1529257016024151,0,1,5,10,-7,5,-2,-3
1529257016033128,3,-3,-2,30,0,-19,-18,4
1529257016033128,-12,-2,-5,-24,-1,50,9,-3
1529257016048087,17,-3,-3,13,15,-27,-9,13
1529257016048087,-28,-4,1,-7,-4,-12,-4,-7
1529257016049085,-2,-2,-1,4,3,4,-11,-10
1529257016049085,16,1,1,5,-2,5,11,7
1529257016070029,-19,-4,-5,-48,-1,33,-20,-2
1529257016070029,2,0,5,42,21,16,8,-9
1529257016072024,4,-1,-7,-32,-21,-10,-9,8
1529257016072024,5,3,7,20,18,3,4,1
1529257016083991,2,-2,7,41,12,33,19,12
1529257016083991,-12,-6,-6,-37,-14,-19,1,-45
1529257016092968,6,3,6,31,-9,-16,-11,12
1529257016092968,-5,-5,-9,-60,-16,-16,5,-7
1529257016107927,5,3,9,45,26,36,20,17
1529257016107927,1,-3,-5,16,4,3,-16,-2
1529257016108925,-1,-3,-1,6,45,-18,-1,-15
1529257016108925,0,-4,-5,-7,22,44,-5,9
1529257016129869,3,-1,-2,3,-9,22,5,4
1529257016129869,-1,-1,-4,-13,3,-27,-14,4
1529257016131864,-1,0,-3,-37,-17,-8,-4,-3
1529257016131864,-1,0,1,26,-5,19,-1,-2
1529257016143831,-3,-4,-5,-13,11,-6,-11,-16
1529257016143831,4,1,-4,-12,-13,-11,-1,8
1529257016152808,3,0,2,-31,-24,24,3,1
1529257016152808,-10,-3,1,2,16,-47,-21,-1
1529257016165772,-7,1,1,9,-7,-38,-14,-32
1529257016165772,4,-4,-7,-23,-5,17,5,24
1529257016175746,-2,-2,-1,30,14,4,-1,-10
1529257016175746,2,2,7,42,12,-26,-5,0
1529257016189708,10,3,0,-9,3,28,19,24
1529257016189708,-8,2,5,-2,7,-16,-11,-17
1529257016191704,-4,-7,-7,-7,-11,19,-6,14
1529257016191704,0,-5,-8,-14,-27,-5,4,-11
1529257016203671,-2,1,0,8,3,-8,-8,-5
1529257016203671,0,0,1,-4,2,11,9,8
1529257016212648,4,5,8,8,24,6,-12,-10
1529257016212648,-7,-1,-6,-15,-28,-15,-4,4
1529257016227607,4,4,11,33,53,19,4,2
1529257016227607,24,-2,-3,3,-2,40,11,18
1529257016229602,-29,-7,-16,-62,-25,-21,8,-9
1529257016229602,6,7,17,88,-2,38,4,11
1529257016250546,-1,1,2,27,10,-24,-5,7
1529257016250546,8,-1,-1,4,36,-8,1,-7
1529257016251543,7,-1,5,42,14,26,-1,15
1529257016251543,-7,-5,-12,-57,-9,-9,10,-10
1529257016263511,6,-6,-4,-6,-10,-1,-10,-10
1529257016263511,-29,1,5,20,-6,-17,0,-28
1529257016272488,9,1,-2,-9,-11,0,16,20
1529257016272488,-5,-2,-8,-40,0,-10,-10,-5
1529257016287447,9,4,7,37,4,-42,-46,-4
1529257016287447,-5,-3,1,24,-2,22,36,15
1529257016289442,-7,-1,-2,-8,-3,-5,5,-25
1529257016289442,9,-1,-2,-3,-12,6,10,14
1529257016310386,-4,-1,-5,-6,-24,-6,-3,-9
1529257016310386,-3,-1,-4,-15,-13,-15,-22,1
1529257016311384,0,5,8,-8,14,-11,-7,-13
1529257016311384,1,0,6,54,37,39,4,4
1529257016323351,-6,-7,-8,-35,-19,4,-5,-12
1529257016323351,-4,-1,-3,-3,9,-14,-8,13
1529257016332328,6,-1,-6,-31,-10,8,-12,-1
1529257016332328,-2,-1,1,25,1,-31,-19,-8
1529257016347287,-1,0,-7,-42,-58,-6,0,2
1529257016347287,5,0,9,52,-82,-40,-2,-4
1529257016353271,3,1,0,3,97,10,17,10
1529257016353271,2,0,1,-22,-9,40,32,1
1529257016370226,-3,-1,-2,0,-3,-24,-4,15
1529257016370226,-6,-10,-23,-110,-106,-56,-7,-14
1529257016372221,10,2,6,53,15,36,27,-11
1529257016372221,-13,-1,1,-30,0,-10,7,13
1529257016384189,6,1,0,-6,26,14,18,9
1529257016384189,-3,-1,-1,-23,12,26,1,-6
1529257016393165,-4,-3,-3,-22,-32,-20,-17,6
1529257016393165,0,-1,0,20,8,-18,-11,-15
1529257016407128,0,-2,-6,-19,-17,5,13,2
1529257016407128,-3,0,1,-7,40,-1,-16,14
1529257016414109,11,1,2,44,-21,1,-11,2
1529257016414109,0,1,0,3,-5,-11,-8,-6
1529257016430066,-9,-1,-4,-42,-18,16,9,-2
1529257016430066,9,3,5,69,49,57,-14,10
1529257016432061,-4,0,4,15,26,-39,29,-1
1529257016432061,14,1,-2,-20,-28,-14,-6,-10
1529257016444029,-17,-6,0,3,7,18,-2,20
1529257016444029,3,2,5,-16,27,9,-2,8
1529257016453005,-3,-1,-4,-15,-54,-7,-18,-9
1529257016453005,-3,-2,-6,9,3,1,12,5
1529257016466968,26,5,3,-14,-6,-18,-4,13
1529257016466968,-27,-5,0,36,24,7,6,-5
1529257016473949,-9,-5,-4,-7,-31,-23,-36,15
1529257016473949,5,-6,-9,-43,-2,2,-9,-9
1529257016489906,1,4,6,4,7,-21,-17,-19
1529257016489906,7,2,0,-1,-31,-20,10,-3
1529257016491901,0,-1,-1,8,27,25,3,-5
1529257016491901,-7,2,3,30,-2,-2,1,15
1529257016503869,-6,-7,-13,-62,-4,40,-23,-13
1529257016503869,12,3,5,14,12,-5,16,3
1529257016512846,-14,-4,-3,-23,-21,-7,-2,-21
1529257016512846,-1,-2,5,7,-19,-11,0,22
1529257016526808,-6,-4,-1,17,54,7,39,-5
1529257016526808,9,1,-12,-19,-1,-3,-5,-2
1529257016533789,4,1,6,11,-13,11,-10,-18
1529257016533789,-1,1,-1,-25,-14,-8,-2,4
1529257016549746,6,-3,0,32,6,14,7,-2
1529257016549746,-11,-4,-1,-8,12,5,-9,6
1529257016551741,-9,-6,-9,-58,-30,8,5,-37
1529257016551741,18,4,6,43,29,-6,-24,25
1529257016572685,-17,0,3,21,-2,-8,5,-11
1529257016572685,7,0,-2,-2,8,4,-1,0
1529257016574680,-3,1,-1,-12,-6,-10,-5,1
1529257016574680,-3,1,3,-52,16,49,-22,-25
1529257016586647,5,2,5,71,30,-1,15,8
1529257016586647,-6,-7,-10,-47,-31,-27,-6,-3
1529257016593629,2,2,2,46,8,0,2,21
1529257016593629,-9,0,5,11,8,-3,-8,-17
1529257016610584,-18,-4,-6,-20,-18,-12,-7,-5
1529257016610584,-1,-4,-7,-43,-16,13,-18,-13
1529257016611582,14,0,-1,17,14,33,38,28
1529257016611582,2,2,2,-19,-24,-14,11,13
1529257016632525,-5,2,1,2,-4,-1,-34,-22
1529257016632525,1,-2,1,12,0,-1,15,-2
1529257016634520,-4,-3,-5,-12,-4,-17,-14,1
1529257016634520,-1,-7,-8,-26,-28,2,8,1
1529257016646487,3,4,9,45,32,-6,-4,7
1529257016646487,4,6,4,18,8,5,7,-19
1529257016653469,-3,-4,-1,-32,-12,-9,-17,-2
1529257016653469,-6,-4,-3,25,-3,-16,12,-7
1529257016670423,-1,-3,-6,-24,-17,-14,22,5
1529257016670423,1,0,1,15,6,9,1,-6
1529257016671422,-3,0,-2,-7,-20,-22,-8,-11
1529257016671422,-5,1,-1,3,10,-5,-7,-11
1529257016692365,1,3,6,13,13,-5,-22,-15
1529257016692365,1,1,-5,-14,-2,-13,-4,12
1529257016694360,-1,-3,-4,-32,-35,-5,-5,3
1529257016694360,-3,0,-1,34,30,24,-23,-1
1529257016706327,11,5,-3,-54,-17,-27,-8,10
1529257016706327,-4,-5,4,63,14,22,-6,-6
1529257016715304,6,-1,1,8,-3,-6,-3,-8
1529257016715304,-12,-1,0,0,3,-1,10,-1
1529257016730264,8,-2,-1,-20,-8,15,9,13
1529257016730264,-2,2,0,-17,-2,-19,-9,-1
1529257016731261,0,1,-2,12,7,28,5,5
1529257016731261,1,-3,-5,-7,-12,16,38,18
1529257016752205,-2,-3,-1,7,-12,-10,1,-3
1529257016752205,3,3,-1,-40,-38,38,29,17
1529257016754200,-5,-2,-2,28,33,-36,-14,-13
1529257016754200,5,2,5,11,-5,-14,3,-4
1529257016766168,-4,-3,-4,-1,12,20,0,-7
1529257016766168,0,-4,-6,-13,3,-15,-68,-9
1529257016775144,4,1,1,-13,-5,1,35,50
1529257016775144,0,1,-1,-13,-1,2,-9,-30
1529257016790104,-6,-2,-4,3,-11,-1,-6,-6
1529257016790104,-2,-4,-1,11,3,-13,16,-2
1529257016792099,4,-1,1,4,3,5,-10,5
1529257016792099,-5,-4,-7,-30,-20,-28,-19,1
1529257016813042,5,0,2,36,17,19,20,12
1529257016813042,-15,-2,-1,-3,0,-2,12,-1
1529257016814040,-3,-1,-3,-25,8,-1,-14,-20
1529257016814040,3,-3,2,50,5,-3,32,24
1529257016826008,-4,1,5,5,3,11,14,-24
1529257016826008,3,-1,2,15,7,4,24,20
1529257016834984,-5,-3,1,19,8,-17,-28,-3
1529257016834984,2,-2,-4,-28,-6,-6,-18,-8
1529257016849943,8,3,-2,-20,-14,-10,-14,11
1529257016849943,-3,0,3,15,11,-8,-8,-21
1529257016851939,15,4,4,2,-5,16,9,-12
1529257016851939,-1,0,-2,-5,9,4,-7,-10
1529257016872882,-21,-4,-2,12,0,-10,-9,-2
1529257016872882,-13,-1,1,-14,-13,26,19,14
1529257016873880,9,-1,1,3,12,33,6,-17
1529257016873880,-6,-2,-2,-16,-25,-34,-14,-7
1529257016885848,26,-1,-4,-47,-50,-27,-3,4
1529257016885848,8,3,7,59,39,21,22,9
1529257016894824,-4,0,2,9,17,-21,8,-1
1529257016894824,-5,-6,-3,-6,-8,-3,3,4
1529257016909784,-4,-1,-1,-10,-15,23,13,-3
1529257016909784,2,-1,-3,-28,3,-27,-35,-7
1529257016911779,-6,-1,-3,-7,-18,-25,12,13
1529257016911779,4,4,6,15,21,48,18,-10
1529257016932722,-11,-8,-9,-4,-6,-32,-17,5
1529257016932722,11,0,1,-7,3,8,-4,-3
1529257016934717,-1,0,0,15,1,31,21,0
1529257016934717,-15,-5,-7,-34,9,-26,-14,8
1529257016946685,4,2,2,14,9,27,15,16
1529257016946685,-2,-1,-2,-14,-12,-4,2,-2
1529257016955661,7,-1,-4,-4,-50,8,-3,17
1529257016955661,-15,-2,-1,34,31,19,19,-21
1529257016969623,12,0,-2,-21,-13,-22,-36,2
1529257016969623,-14,1,6,23,21,3,6,8
1529257016971619,-2,0,0,23,-4,-16,-9,-18
1529257016971619,8,-3,-5,-27,-17,24,-22,-1
1529257016992562,-6,2,3,15,10,8,13,-11
1529257016992562,4,2,-1,-5,-3,-10,-12,-37
1529257016994557,1,0,-2,-28,-18,-10,-11,33
1529257016994557,-1,2,3,13,-4,1,-3,0
1529257017006525,-11,-3,0,9,22,8,5,-7
1529257017006525,6,-3,-4,-21,-5,13,-5,3
1529257017015501,-3,2,0,-2,3,-4,6,-7
1529257017015501,1,-4,-5,-16,1,-14,-4,-9
1529257017030461,-2,-1,1,30,7,-4,10,3
1529257017030461,1,-1,-4,-28,-35,-31,-12,13
1529257017031459,-1,1,3,34,46,18,-1,-9
1529257017031459,4,-6,-4,-9,-2,-22,11,11
1529257017052402,-4,1,1,-9,-12,-5,-26,-15
1529257017052402,13,-1,0,67,33,25,16,11
1529257017054397,-3,-2,-1,-15,2,-14,-2,9
1529257017054397,-1,1,1,14,-6,-5,2,-33
1529257017066365,-4,1,-3,-11,4,6,-5,-1
1529257017066365,-2,-5,-4,-22,-11,-18,-6,-9
1529257017075342,8,0,-3,-17,-6,6,0,3
1529257017075342,3,0,0,-2,-2,-18,-8,4
1529257017090301,-4,-3,-1,-1,-6,-2,2,-5
1529257017090301,1,0,-2,-9,1,0,-1,11
1529257017091299,-9,-4,-3,-5,-2,-10,1,-20
1529257017091299,-3,-1,-1,-2,-7,16,8,24
1529257017113240,7,2,2,-15,-2,-6,11,6
1529257017113240,-13,-2,0,25,8,-7,-11,-13
1529257017115235,-1,-2,0,-6,-6,-22,-4,-4
1529257017115235,1,-3,-8,-46,-6,-7,18,1
1529257017126205,-9,-1,5,27,4,10,15,7
1529257017126205,0,-3,-3,-19,-7,1,-7,-7
1529257017135182,-6,-3,-1,-3,-6,23,-8,-7
1529257017135182,9,2,-1,-7,29,4,7,6
1529257017150141,6,1,0,-4,-2,-10,-19,-7
1529257017150141,0,0,-2,-30,-16,69,26,11
1529257017152136,1,3,0,38,21,-42,-24,-14
1529257017152136,-10,5,13,14,-5,-2,-4,-12
1529257017173080,-12,-3,-6,-5,4,20,14,-2
1529257017173080,-4,3,3,1,6,-28,-14,-6
1529257017174078,-5,-3,-5,-33,-19,14,3,-18
1529257017174078,7,0,2,19,1,8,-5,18
1529257017186045,-17,-5,-4,-4,5,-11,-6,-10
1529257017186045,19,5,0,-21,-13,-6,-9,3
1529257017195021,-5,1,1,4,2,-1,-1,18
1529257017195021,6,-2,1,17,-7,-23,-17,-18
1529257017209981,-11,-3,-8,-17,-2,16,-24,-27
1529257017209981,4,-1,-1,-14,3,-9,0,15
1529257017211976,-12,-4,-2,-9,13,-17,-5,29
1529257017211976,10,6,5,11,-1,55,27,14
1529257017232920,4,-5,-5,-15,30,-38,-20,-8
1529257017232920,13,4,3,17,0,-13,-19,14
1529257017233917,-6,-2,1,-6,-10,-20,-4,-10
1529257017233917,-8,-5,-4,6,-3,-8,-4,3
1529257017245885,9,0,-5,-30,-13,6,17,18
1529257017245885,-9,-3,-1,-14,-1,-14,7,-4
1529257017254861,7,1,1,31,12,34,22,1
1529257017254861,-18,-4,-5,-19,-5,0,-6,-4
1529257017269821,5,-2,0,14,-12,20,22,8
1529257017269821,-5,0,3,-13,1,-9,3,-3
1529257017275805,1,-1,-1,-5,-17,-6,-14,2
1529257017275805,-1,0,-2,11,17,-4,-31,-14
1529257017292760,6,0,4,-20,-1,5,4,-8
1529257017292760,-7,-4,-4,61,-14,-5,6,10
1529257017293758,-3,-3,-5,-38,-16,32,14,-14
1529257017293758,2,2,3,35,-18,-45,-19,7
1529257017306723,0,2,7,54,17,4,-20,-11
1529257017306723,-1,-1,-6,-62,-12,-5,16,7
1529257017315699,5,1,6,45,4,9,0,9
1529257017315699,1,-6,-8,-5,-8,-5,-3,2
1529257017329661,1,3,7,-8,-2,6,3,-8
1529257017329661,-6,-2,-1,3,3,-3,4,-7
1529257017336642,2,-2,-1,12,-4,-8,-16,-6
1529257017336642,-7,-3,-3,-21,2,9,2,-29
1529257017352600,15,1,0,4,0,-5,9,40
1529257017352600,-14,0,-1,-2,4,13,-6,-33
1529257017354595,-1,-4,-6,-17,-12,-19,1,46
1529257017354595,6,2,1,-42,13,15,22,-2
1529257017366563,15,6,4,35,1,-14,4,-3
1529257017366563,-20,-4,-2,-5,-7,9,9,4
1529257017375539,7,3,7,25,12,-7,-10,-8
1529257017375539,5,4,8,7,-12,-5,-14,12
1529257017389501,-9,-6,-11,-29,-10,6,-3,10
1529257017389501,8,-8,-9,-37,-2,-27,-7,1
1529257017396483,3,2,0,34,-15,1,15,4
1529257017396483,3,4,2,-6,24,16,16,3
1529257017412440,4,3,2,4,2,-6,-5,-2
1529257017412440,5,-5,-9,-16,-2,4,2,10
1529257017414435,-4,-5,-5,-23,-5,16,2,-18
1529257017414435,6,0,-1,18,-2,-14,-5,-6
1529257017426402,-13,-2,-3,0,-10,-14,-8,-13
1529257017426402,0,-1,-2,0,5,16,-10,-6
1529257017435379,-4,1,-3,-31,-6,-26,-1,-6
1529257017435379,-5,-3,-3,1,-2,9,4,5
1529257017449341,0,-5,-3,-24,-4,10,4,3
1529257017449341,-9,-3,0,46,14,14,-4,-11
1529257017456323,-7,5,9,-6,11,-43,-2,-40
1529257017456323,12,-2,-6,-24,-13,-3,2,10
1529257017472280,-6,3,0,9,-1,-5,-14,-4
1529257017472280,2,4,6,28,21,-31,-28,-13
1529257017474275,0,-1,-6,-1,4,14,-7,-3
1529257017474275,3,-3,-5,-6,-7,-5,6,-3
1529257017495219,3,-2,0,-16,-2,33,15,5
1529257017495219,3,-2,-1,-3,-11,5,23,8
1529257017497214,-6,-1,-2,-2,17,15,0,4
1529257017497214,-4,-1,1,-5,-6,2,-19,1
1529257017509181,-3,-3,-7,-9,-13,-6,-1,-3
1529257017509181,0,1,5,15,5,1,-2,-7
1529257017516163,0,-2,-6,-23,-3,11,-2,-3
1529257017516163,3,-1,4,10,-1,0,11,1
1529257017533118,-14,-1,1,8,-2,-8,-6,2
1529257017533118,4,3,0,-8,14,4,4,-4
1529257017534117,6,4,9,4,11,23,-1,0
1529257017534117,-25,-2,-3,-38,-12,-6,-7,-4
1529257017555059,3,-3,2,67,23,-4,-1,1
1529257017555059,3,1,-2,-16,-15,-5,-5,2
1529257017557054,-8,-6,-9,-26,-35,15,13,-4
1529257017557054,0,0,-5,-27,31,-20,21,7
1529257017569022,3,1,8,39,9,11,3,-4
1529257017569022,-12,-2,-1,0,-8,-21,4,2
1529257017577998,15,-1,-1,17,6,14,16,24
1529257017577998,-3,-1,-8,-16,-16,-5,-14,-13
1529257017592957,-9,-2,-6,-41,-15,-38,-21,-12
1529257017592957,9,-2,2,16,6,12,17,7
1529257017593955,-4,-3,-5,-19,4,9,-8,2
1529257017593955,-3,-3,-3,17,-5,-1,1,6
1529257017614899,8,6,0,-30,-6,-7,-1,11
1529257017614899,-1,5,6,14,-1,-2,-9,-7
1529257017616894,0,-5,3,15,-6,18,0,-2
1529257017616894,5,-1,0,20,11,-24,-13,-1
1529257017628861,-4,-4,-3,-16,-2,11,-10,-5
1529257017628861,-1,2,-2,-23,-34,-21,-5,-5
1529257017637838,-10,-2,1,32,62,-31,-10,-13
1529257017637838,-2,-3,1,30,10,19,1,2
1529257017652797,0,0,-7,-24,-12,-4,0,-7
1529257017652797,4,-1,1,-13,-6,0,1,3
1529257017653795,-2,-2,-6,-5,-5,-21,5,1
1529257017653795,-6,0,3,-2,-14,-4,-15,-12
1529257017674739,-1,-1,0,1,8,14,15,7
1529257017674739,3,-5,-4,9,13,22,3,8
1529257017676734,0,-1,-3,-2,-17,15,2,-13
1529257017676734,6,-1,-6,-29,-10,29,5,12
1529257017688702,1,0,3,46,12,16,9,3
1529257017688702,-2,0,-1,-6,-10,1,-8,-1
1529257017697678,3,0,4,-22,13,6,0,10
1529257017697678,2,1,3,33,10,27,34,-2
1529257017712638,3,-4,-6,-38,-47,4,8,5
1529257017712638,-7,3,9,65,26,6,-6,-14
1529257017714633,1,-1,-5,-28,-11,-25,-14,-1
1529257017714633,-1,-2,1,30,-1,-16,-20,-10
1529257017735576,1,-4,-2,-13,-8,-6,21,10
1529257017735576,4,-4,-4,-16,-13,-11,-2,0
1529257017736574,-18,-2,0,1,4,15,7,-14
1529257017736574,8,1,0,-5,-6,14,7,12
1529257017757518,-16,-4,-4,-23,13,7,-7,-17
1529257017757518,7,4,3,18,-3,-5,9,14
1529257017759512,2,1,0,-9,-10,-11,4,-5
1529257017759512,1,-1,-6,-13,-40,22,-7,0
1529257017772477,5,-1,3,23,22,-6,-12,3
1529257017772477,-4,-4,-5,-28,-10,-13,6,-4
1529257017774473,1,-2,-5,-42,-10,24,11,10
1529257017774473,5,3,2,22,-7,-27,-22,2
1529257017795416,-4,-2,-1,10,5,-15,-3,-14
1529257017795416,-3,-2,-3,0,2,10,-4,2
1529257017796414,2,1,0,-11,-11,0,-14,-5
1529257017796414,-3,-2,-1,-15,4,-14,1,-8
1529257017808382,-3,-1,-3,4,0,4,-1,6
1529257017808382,0,-3,-2,-25,-4,41,14,2
1529257017817358,-4,0,-1,9,-2,-17,-18,-9
1529257017817358,2,0,3,38,-10,-44,-4,3
1529257017832317,0,6,4,15,10,1,-1,-6
1529257017832317,5,-4,-2,49,19,-15,9,19
1529257017834312,3,0,2,-3,-34,12,4,-6
1529257017834312,-15,-5,-2,-27,8,8,4,4
1529257017855256,-3,-4,-5,7,4,9,12,-9
1529257017855256,5,1,-5,-15,3,4,0,7
1529257017857251,2,3,6,19,1,-23,21,11
1529257017857251,-3,-1,-3,-4,3,-1,2,-2
1529257017869219,-2,0,2,-39,-7,5,-8,-5
1529257017869219,0,-2,-3,7,-5,-6,7,-5
1529257017878195,-1,-3,-2,-5,14,-15,-25,-11
1529257017878195,-6,-4,-2,-8,5,27,3,1
1529257017892158,7,2,1,-13,-12,-26,-10,7
1529257017892158,-8,-5,-5,20,4,9,-37,-12
1529257017894153,-1,-2,-1,-10,9,-10,10,-1
1529257017894153,-2,-3,-5,-38,-13,-5,4,-4
1529257017915096,8,5,10,77,22,14,6,17
1529257017915096,1,3,3,-16,5,23,0,1
1529257017917091,-11,-5,-11,6,-20,-6,-7,0
1529257017917091,0,0,4,28,81,60,43,-9
1529257017929059,-4,0,-4,-27,-31,-23,2,-12
1529257017929059,-11,-6,-9,-78,-51,4,-2,9
1529257017938036,12,5,10,89,42,14,15,16
1529257017938036,3,7,3,6,20,-14,0,-9
1529257017952995,-3,-2,4,66,20,49,9,8
1529257017952995,-6,1,4,10,5,-42,-15,-4
1529257017953993,-4,-4,-6,-74,-21,-15,-2,-8
1529257017953993,-3,-4,-3,12,-12,-5,-24,0
1529257017974936,8,1,-5,-41,-5,-15,4,5
1529257017974936,0,4,5,-11,28,51,-24,-16
1529257017976932,1,2,8,67,-1,-41,-43,-2
1529257017976932,1,3,8,-9,-13,-32,-6,-7
1529257017997875,-3,-1,-9,-70,-46,7,-17,-8
1529257017997875,2,2,1,-2,32,-6,9,4
1529257017998873,3,-4,-4,0,-6,-8,-2,-1
1529257017998873,-5,-4,-2,13,-1,-6,-14,-6
1529257018012835,0,0,-8,-91,-8,-12,-12,-1
1529257018012835,0,5,13,87,10,7,2,1
1529257018013833,-6,-2,-3,-17,0,0,26,-9
1529257018013833,3,-1,4,35,1,-18,-1,11
1529257018034776,-1,-3,-6,-20,-20,15,-9,9
1529257018034776,-5,-2,-2,-28,-1,-58,8,-30
1529257018036771,0,-1,-4,-18,-1,28,8,-2
1529257018036771,0,-2,-8,-42,-22,1,-13,8
1529257018048739,3,1,5,37,28,-39,6,-12
1529257018048739,-2,-5,-8,-41,-17,1,-1,9
1529257018057716,-2,-2,-6,-23,10,18,-4,0
1529257018057716,4,2,7,43,21,9,13,0
1529257018072675,-7,-5,-1,-8,12,9,-2,2
1529257018072675,-3,-4,-3,25,-25,-18,6,-3
1529257018074670,0,0,-2,-27,-41,0,2,6
1529257018074670,3,3,-4,-4,-7,-7,-19,-1
1529257018095613,-2,5,9,12,6,-19,-3,-12
1529257018095613,-1,-2,-3,0,3,42,10,6
1529257018097609,3,1,-2,-24,1,-18,-10,6
1529257018097609,-7,-5,-2,-1,-2,-7,8,-4
1529257018108579,-3,-4,-3,25,6,-16,-11,-4
1529257018108579,3,0,-2,-21,-12,-30,-5,1
1529257018117555,2,0,2,27,11,23,9,3
1529257018117555,-8,-3,-2,-16,-4,15,-9,-12
1529257018132515,-3,-3,-4,4,-5,8,2,1
1529257018132515,9,2,3,-3,10,-6,4,25
1529257018134510,3,-1,-3,9,4,-8,-6,20
1529257018134510,-1,-2,0,3,-8,-3,1,-29
1529257018155454,2,4,3,-6,1,10,-1,7
1529257018155454,1,-2,-5,-6,0,13,-6,-2
1529257018156451,-11,-2,0,14,-3,-39,-19,-9
1529257018156451,-1,-1,-4,-23,-5,39,-4,4
1529257018168419,0,-2,-4,-29,-6,3,13,1
1529257018168419,1,3,7,63,15,-6,-6,-17
1529257018177395,3,1,3,8,6,11,19,19
1529257018177395,-2,-4,-5,-12,-13,6,6,-8
1529257018192355,-6,-3,0,-1,-2,-27,-9,6
1529257018192355,-6,-2,0,2,8,0,35,6
1529257018198339,-5,-6,-8,-14,-7,8,-3,-18
1529257018198339,6,6,3,0,-5,-6,12,27
1529257018215294,4,-4,-3,8,10,5,-18,-22
1529257018215294,-12,-3,-5,-10,-16,-13,1,13
1529257018216292,-12,-4,0,-6,1,-8,-13,-26
1529257018216292,3,-1,-2,1,-9,-25,7,18
1529257018229256,-1,-2,-5,-6,-11,-4,-13,-6
1529257018229256,9,5,3,4,2,-12,-12,-2
1529257018238233,2,-4,-3,-4,15,36,-12,-3
1529257018238233,0,-3,-1,-3,-6,-11,5,-8
1529257018252195,-5,-3,-4,-18,-24,-4,5,3
1529257018252195,-2,0,0,37,30,14,-7,-11
1529257018259176,-2,0,1,3,1,-15,0,-3
1529257018259176,-1,-3,-6,-59,-12,-25,-24,-9
1529257018275134,0,2,7,52,2,23,2,3
1529257018275134,-1,-1,-3,-17,-13,-29,-3,-4
1529257018277129,2,2,0,-6,38,-22,4,1
1529257018277129,-2,2,-1,-17,10,-1,-6,0
1529257018289096,-5,-3,0,38,12,6,6,-5
1529257018289096,1,-3,-5,-22,-32,-8,-12,3
1529257018298073,-8,-8,-16,-82,-85,-11,-8,-16
1529257018298073,0,1,7,108,46,18,8,7
1529257018312035,6,7,13,-1,72,-15,20,6
1529257018312035,-3,-5,-4,27,-4,22,-19,-13
1529257018319017,-1,0,0,-18,-10,0,-1,2
1529257018319017,-3,-5,-9,-36,-57,-5,4,-3
1529257018334974,1,-1,-3,16,-18,-30,-9,0
1529257018334974,-4,-1,-7,-43,-7,15,0,0
1529257018336969,0,2,4,9,-10,-5,6,7
1529257018336969,-2,-3,-6,9,16,4,-17,-9
1529257018348937,3,0,13,-8,18,2,11,4
1529257018348937,1,2,1,-12,-5,-36,-12,-2
1529257018357913,0,2,-3,-11,6,-1,15,2
1529257018357913,4,1,6,78,34,2,0,4
1529257018371875,-5,-8,-12,-15,-22,24,-6,1
1529257018371875,0,-2,-4,-66,-68,10,8,-11
1529257018378856,4,6,13,43,41,18,3,11
1529257018378856,-3,0,-3,3,7,28,9,4
1529257018394814,-6,-3,-5,21,-27,-3,-9,-8
1529257018394814,7,7,10,30,7,-6,7,21
1529257018396809,-1,-3,-10,-32,-15,-6,-8,-15
1529257018396809,0,-2,8,5,9,-1,-2,9
1529257018417752,-4,4,3,-8,-16,3,-8,-10
1529257018417752,-3,1,1,0,27,0,7,-2
1529257018418750,1,-3,-5,7,-5,-2,-16,-12
1529257018418750,-2,2,1,-35,-11,-33,1,5
1529257018431715,-3,-3,-4,0,-2,12,-4,-12
1529257018431715,1,2,3,-8,-6,11,17,-4
1529257018438696,6,3,7,54,28,48,15,2
1529257018438696,0,-2,-8,-27,-20,-34,-22,-8
1529257018454654,-6,-1,2,-13,12,-18,21,4
1529257018454654,7,1,-5,-1,10,4,-8,14
1529257018456649,3,1,5,0,-7,9,-1,2
1529257018456649,2,-1,-2,8,24,11,20,12
1529257018477593,1,2,1,30,22,-2,-19,4
1529257018477593,-3,-4,-4,-3,4,-22,-16,-19
1529257018479587,-7,-3,1,20,-9,-12,-3,2
1529257018479587,0,-5,-11,-36,-8,-9,-2,-12
1529257018491555,-1,2,4,-18,-6,19,1,-6
1529257018491555,-3,-3,-4,-4,-14,8,16,1
1529257018498537,-1,0,-5,-1,10,-3,-13,11
1529257018498537,-2,5,10,-19,-25,4,7,-11
1529257018515491,4,-1,-6,-5,6,25,4,11
1529257018515491,-3,-4,2,31,7,14,12,2
1529257018516489,-4,-1,-3,14,12,-19,-24,-6
1529257018516489,4,0,-6,-18,-18,4,8,9
1529257018537433,5,0,-5,15,-2,11,19,10
1529257018537433,-7,-5,-6,-61,-13,7,11,-3
1529257018539428,1,-1,2,13,20,5,15,1
1529257018539428,-3,-4,-1,17,-2,9,-1,-3
1529257018551395,0,-1,-4,-15,-11,-5,4,-7
1529257018551395,-3,1,-4,-24,4,-11,-9,-2
1529257018560373,-1,-1,-1,3,0,-11,-12,-17
1529257018560373,0,0,0,-8,8,-5,-2,18
1529257018575332,-3,-2,-5,-12,-19,-7,-8,-4
1529257018575332,-2,-2,-8,-39,0,-15,-11,3
1529257018576329,0,3,9,72,9,0,1,-7
1529257018576329,0,1,1,-5,10,13,-26,-5
1529257018597273,-2,-4,-5,11,-4,-21,-3,2
1529257018597273,1,-2,2,-21,-4,12,-4,-21
1529257018599267,1,-2,1,69,33,-18,-7,26
1529257018599267,-1,0,1,-17,-12,-9,-7,-11
1529257018611235,2,-1,-7,-25,-1,2,7,5
1529257018611235,1,2,4,28,-7,-1,-5,6
1529257018620212,-1,-3,-7,-36,-24,0,3,-2
1529257018620212,-7,-2,0,2,0,46,20,-15
1529257018635171,-1,3,-1,-5,-11,-33,1,0
1529257018635171,0,1,3,26,25,4,0,8
1529257018637166,-2,0,-3,-35,-11,-4,4,0
1529257018637166,4,-4,-6,0,-30,-18,3,4
1529257018658110,0,0,1,2,13,2,17,3
1529257018658110,-9,-3,2,35,13,2,-4,1
1529257018659108,0,-4,-3,-22,-12,4,-9,-5
1529257018659108,-6,-1,-3,-48,-20,-23,-12,-5
1529257018671075,0,1,6,29,33,64,12,0
1529257018671075,-1,-1,-3,-33,-18,-23,-10,-5
1529257018680052,2,1,1,21,-19,-7,3,24
1529257018680052,4,0,-3,-26,3,-14,9,16
1529257018695011,-11,-8,-6,-2,-8,-14,-41,-25
1529257018695011,-2,1,1,6,1,-26,7,4
1529257018697006,-6,-7,-7,-40,-5,20,1,-16
1529257018697006,-5,-2,3,32,-20,-18,-2,-5
1529257018717950,5,2,1,-6,35,-5,2,16
1529257018717950,0,-1,-1,12,4,-11,-10,-2
1529257018718948,-1,-1,-1,-18,-10,-1,30,4
1529257018718948,1,-2,-3,15,1,-15,-12,-2
1529257018730915,1,0,2,7,-5,5,-15,-1
1529257018730915,1,-2,-4,1,-14,7,9,-11
1529257018739891,1,1,-2,-22,12,-9,0,-8
1529257018739891,0,-2,-13,-77,-48,18,-2,5
1529257018754851,0,7,21,79,65,12,-1,-2
1529257018754851,-2,-3,-3,-19,-6,12,-8,-4
1529257018756847,0,-1,-2,-8,0,7,-3,5
1529257018756847,-1,-2,0,-9,5,-31,-4,-3
1529257018777790,0,-3,-10,-42,-48,-3,-16,-1
1529257018777790,1,4,0,9,10,9,9,2
1529257018778788,-4,-1,0,-24,-14,-22,-27,-8
1529257018778788,-8,-3,2,48,21,8,26,-6
1529257018790755,1,-1,-7,-19,-25,0,12,12
1529257018790755,1,0,-2,19,11,14,3,7
1529257018800729,-1,2,1,-16,3,-34,-2,1
1529257018800729,1,1,1,18,17,18,16,-9
1529257018814691,-7,-5,-3,-5,-10,-17,-21,-10
1529257018814691,0,-3,-2,-12,31,42,17,4
1529257018816686,0,-2,-5,-34,-22,-45,12,7
1529257018816686,1,3,1,15,16,29,-13,1
1529257018837630,8,2,7,62,-9,55,62,9
1529257018837630,-2,-3,-3,2,-3,-31,-32,-5
1529257018839625,1,4,3,-5,-24,-16,-19,-16
1529257018839625,2,0,5,38,33,-11,-11,12
1529257018851593,-2,1,-6,-33,-42,0,10,-3
1529257018851593,-2,0,-1,-10,-9,0,-15,3
1529257018860569,-1,-1,2,24,7,33,9,-2
1529257018860569,4,-1,-7,-6,-15,-11,-62,-9
1529257018875529,-6,-6,-5,-1,-14,-16,-9,-10
1529257018875529,1,1,0,-10,-6,-3,-2,-4
1529257018876527,-1,-5,-1,48,9,-53,-34,-6
1529257018876527,2,3,7,6,40,40,15,5
1529257018897470,-2,-2,-3,-30,-1,-34,-28,-11
1529257018897470,-2,-2,-1,-16,6,-8,-9,-9
1529257018899465,2,3,4,41,14,46,12,6
1529257018899465,-2,0,-1,-19,-12,-37,10,2
1529257018911433,-1,-2,-1,17,21,-1,-8,-5
1529257018911433,0,-1,-3,-40,-30,6,8,5
1529257018920409,1,0,3,21,31,51,14,6
1529257018920409,-6,-3,-3,-6,34,-62,0,-8
1529257018935369,0,-1,-2,7,2,19,-14,8
1529257018935369,0,0,0,42,-16,26,19,2
1529257018936366,-7,-3,-5,-45,-16,-17,-8,-13
1529257018936366,2,0,-1,10,-1,33,19,6
1529257018957310,-5,-6,-5,-17,22,-26,-21,-10
1529257018957310,4,1,0,-2,-4,-53,-23,-2
1529257018959305,1,-2,-6,-16,6,-5,15,-5
1529257018959305,-10,-7,-7,-45,-20,4,9,1
1529257018971273,4,1,2,18,-1,43,15,0
1529257018971273,1,-3,-2,28,-18,-11,9,6
1529257018980249,0,-3,2,-2,16,-1,0,3
1529257018980249,2,0,-4,-14,-42,7,4,16
1529257018994212,-1,-4,-9,-83,-7,-52,-9,-19
1529257018994212,1,-1,2,48,18,73,14,6
1529257019001193,-3,-2,-3,-52,-24,5,-3,-5
1529257019001193,1,0,5,61,4,0,-6,3
1529257019017150,1,4,4,1,-5,-16,-4,7
1529257019017150,-4,-2,-7,-74,9,57,11,-7
1529257019019146,0,-2,0,15,-21,-38,-15,1
1529257019019146,-2,0,-2,2,32,-4,26,-3
1529257019031113,4,4,9,50,37,-19,8,9
1529257019031113,-2,-1,-1,-32,-36,-70,-6,-13
1529257019040089,-1,1,1,42,-10,-2,10,-1
1529257019040089,4,3,-1,-34,-10,56,-3,-7
1529257019055049,-3,1,0,34,-10,-10,2,3
1529257019055049,-3,0,-1,-3,12,-4,1,-2
1529257019061033,1,-2,4,18,7,3,2,7
1529257019061033,6,-4,-8,-44,-16,-2,1,3
1529257019077987,-23,-4,-3,-9,-18,13,2,-11
1529257019077987,3,2,4,30,14,0,-10,1
1529257019078985,-7,-4,-8,-30,0,-11,-7,-9
1529257019078985,11,-1,0,-2,-3,8,4,2
1529257019090953,-5,-5,-14,-78,-23,-28,-14,-8
1529257019090953,3,0,13,106,18,-54,-2,7
1529257019099929,-24,-2,-6,-53,-23,33,1,-6
1529257019099929,3,5,10,63,70,-11,6,5
1529257019114889,11,1,1,-2,-3,20,7,-4
1529257019114889,10,-5,-9,-45,-37,20,-1,10
1529257019116884,7,1,1,5,-3,9,11,1
1529257019116884,-1,-1,0,3,1,-3,-21,-14
1529257019137828,0,0,0,23,16,36,13,12
1529257019137828,2,0,-1,-15,5,-6,-4,-6
1529257019138825,5,-2,-1,7,17,20,-2,2
1529257019138825,-15,-7,-7,-20,-24,16,-15,-4
1529257019150793,13,4,7,27,2,-7,16,14
1529257019150793,-8,1,-1,-10,3,17,-7,-8
1529257019160766,1,0,-3,-22,10,-12,-7,-1
1529257019160766,-5,0,1,39,-14,-20,8,-5
1529257019174729,4,0,-8,-41,-23,-11,-36,-13
1529257019174729,1,4,13,42,11,16,-9,21
1529257019181710,3,2,0,17,13,-18,9,0
1529257019181710,1,2,0,-17,-6,2,-9,-15
1529257019197667,-10,-2,0,11,-10,-14,-3,3
1529257019197667,-6,-5,-12,-35,-17,0,15,0
1529257019199663,1,0,1,-3,11,8,-17,-1
1529257019199663,-9,-1,4,7,-9,-13,10,-7
1529257019211630,4,-4,-4,-43,-18,-14,14,7
1529257019211630,-4,1,-2,38,48,34,17,-24
1529257019220606,1,1,1,13,-7,2,22,10
1529257019220606,1,0,0,5,-1,-7,-8,-4
1529257019234569,-4,-2,-2,-16,-4,-16,23,3
1529257019234569,-2,-3,-6,-46,-13,-54,-17,-2
1529257019241550,5,1,3,43,-3,37,17,-5
1529257019241550,-3,-4,-3,-3,-17,-12,4,5
1529257019257508,2,0,-1,-13,-6,-1,4,9
1529257019257508,-4,-3,-2,-6,-5,-17,-14,-12
1529257019259503,0,-2,-2,0,5,37,23,0
1529257019259503,0,-2,-7,-42,-17,-21,-23,1
1529257019271470,-6,-5,3,13,-4,-12,-8,-5
1529257019271470,3,2,5,9,8,2,1,3
1529257019280447,-1,-1,-3,0,-12,-15,-5,3
1529257019280447,1,-2,-2,4,9,36,13,4
1529257019294409,1,-3,-9,6,4,7,-6,0
1529257019294409,-1,5,4,-5,1,0,-14,-1
1529257019301390,-5,-2,3,2,-3,-18,-3,-6
1529257019301390,-3,-3,-9,-29,-36,7,12,-7
1529257019317348,1,5,12,23,41,4,7,-1
1529257019317348,-3,-5,-6,-7,-6,22,10,1
1529257019319343,5,2,3,17,5,-9,-71,0
1529257019319343,-7,-3,1,24,-7,-43,53,14
1529257019331310,-2,2,-2,-1,-10,-3,-13,-42
1529257019331310,7,-2,-4,-19,7,-15,-6,35
1529257019340287,-1,2,0,-13,-2,36,18,5
1529257019340287,6,0,-5,12,3,-21,-29,9
1529257019354249,-7,-4,2,-5,-5,-9,-8,-6
1529257019354249,2,1,4,13,2,3,-3,-12
1529257019361230,5,-3,-17,-5,-35,-19,18,13
1529257019361230,1,2,12,1,13,0,-10,-9
1529257019377188,2,7,3,5,5,31,-3,6
1529257019377188,-3,-1,-4,4,-1,-16,-16,-8
1529257019379182,0,0,1,-1,-2,10,9,7
1529257019379182,-3,-3,-12,-28,-14,0,2,-15
1529257019400126,3,-1,-1,17,-2,23,20,7
1529257019400126,0,-2,3,19,1,-10,13,6
1529257019402121,-9,-5,-2,-10,18,-22,-28,-22
1529257019402121,2,2,3,-6,7,20,3,9
1529257019414089,8,3,0,12,-7,-24,-22,6
1529257019414089,-11,-6,-8,-5,2,10,10,-7
1529257019421070,2,1,-4,-30,-9,25,32,-2
1529257019421070,2,9,20,56,42,3,-9,2
1529257019438025,-1,-3,2,-8,-7,-6,9,14
1529257019438025,2,-5,-15,-10,-4,-2,6,-3
1529257019439023,-2,3,16,11,10,1,-43,-7
1529257019439023,-2,-2,-5,0,-6,-6,3,-4
1529257019459967,5,0,-5,-9,3,7,3,7
1529257019459967,-7,1,3,9,1,-1,-2,-7
1529257019461962,0,-4,-7,-11,1,-1,1,0
1529257019461962,-2,-1,-4,-3,-5,7,-8,0
1529257019474926,-4,-5,-4,-13,-2,-18,3,-5
1529257019474926,1,1,1,-13,-3,-1,4,-5
1529257019480910,-2,2,5,25,0,-9,2,5
1529257019480910,-1,0,-1,-1,3,4,-2,-6
1529257019497865,1,-1,-3,-10,-3,1,-5,-1
1529257019497865,-2,0,0,-3,-3,1,-4,-6
1529257019498863,-2,-2,-2,-5,-3,-1,3,-2
1529257019498863,-2,-2,-6,-46,-31,-2,-4,-3
1529257019519806,0,-1,2,39,36,11,-16,-2
1529257019519806,3,3,2,6,7,9,-4,3
1529257019521802,0,0,-4,-21,5,37,7,-2
1529257019521802,-1,-1,-3,7,-16,-70,-23,-9
1529257019533769,0,2,1,11,20,22,-1,11
1529257019533769,-1,0,-5,4,-2,-9,7,1
1529257019542746,6,4,11,-5,4,-10,2,-1
1529257019542746,-5,-4,1,5,3,27,-1,-4
1529257019557705,-3,0,-2,-29,-15,-10,5,-5
1529257019557705,2,0,0,33,17,12,-27,2
1529257019560698,-2,0,-5,0,-4,-14,3,7
1529257019560698,0,-3,-3,-4,-1,8,-2,-2
1529257019579647,-3,-5,-3,4,-4,18,15,0
1529257019579647,-3,-2,1,-24,-14,-12,-18,-4
1529257019581642,-1,-2,-6,-5,-13,-7,8,7
1529257019581642,1,-1,0,0,46,-11,17,-3
1529257019593610,-3,-3,-2,19,0,8,-13,-1
1529257019593610,-1,-1,-1,-50,-33,-4,3,-2
1529257019602585,1,0,6,74,44,15,20,-2
1529257019602585,0,-3,-5,0,-11,9,0,8
1529257019617545,-4,-1,-5,-18,-17,-33,-5,-3
1529257019617545,2,-2,-2,-10,-1,-16,2,6
1529257019619540,-3,-2,-2,-6,-16,-13,-26,-6
1529257019619540,-4,-2,-3,-8,-5,18,-5,-2
1529257019640484,3,0,-3,-11,-4,-7,8,4
1529257019640484,-5,0,5,25,-5,-5,3,-7
1529257019641482,-2,0,-1,-18,-5,-2,-2,-5
1529257019641482,1,1,3,12,-2,-6,-24,-4
1529257019653449,-4,-2,0,-20,-10,-3,1,-3
1529257019653449,6,1,2,14,11,-2,3,3
1529257019662425,-14,-5,-4,-23,-16,-11,5,-12
1529257019662425,5,-1,4,5,-2,-7,7,11
1529257019677385,1,1,0,34,15,4,-23,-3
1529257019677385,1,1,1,5,0,-8,14,-1
1529257019679380,0,-3,-5,-10,-69,-7,13,-11
1529257019679380,-2,2,3,-9,25,42,0,-10
1529257019700324,5,0,-3,-13,-4,-5,11,20
1529257019700324,-4,-2,-2,-7,-27,-10,2,-5
1529257019701322,5,1,1,34,28,-11,-26,7
1529257019701322,-2,3,1,4,-3,-16,-5,-5
1529257019713289,1,-2,-5,-20,-4,19,8,-1
1529257019713289,1,0,4,8,-2,-3,-2,-2
1529257019723263,3,1,-2,-36,13,6,-1,10
1529257019723263,-6,-5,-1,38,1,1,3,-1
1529257019737225,-1,0,0,-10,-6,-10,2,-2
1529257019737225,-1,-1,-6,-17,-7,19,8,2
1529257019739220,-2,0,-1,2,7,-9,-13,-14
1529257019739220,5,2,0,-17,8,20,16,1
1529257019760164,-2,1,7,24,7,3,-4,10
1529257019760164,-5,-9,-9,-19,-4,-24,4,-6
1529257019762159,1,-2,0,4,-19,-3,-40,2
1529257019762159,-1,-1,-2,2,-6,-28,2,1
1529257019774127,-5,-2,0,1,-10,-16,-8,-16
1529257019774127,-4,0,-2,-3,17,37,6,1
1529257019783103,-5,-6,-6,-27,2,-4,12,0
1529257019783103,0,-2,-2,14,-17,-11,-8,-1
1529257019798063,-3,-3,-3,-5,3,8,-12,-8
1529257019798063,0,0,2,9,2,-12,-13,-7
1529257019799060,-2,-2,-1,-3,1,5,19,0
1529257019799060,0,-2,-3,-14,-9,1,-3,2
1529257019820004,1,0,0,15,7,2,4,-4
1529257019820004,-1,1,4,0,9,12,-2,1
1529257019821999,1,0,-3,-21,1,-24,-25,0
1529257019821999,2,1,3,21,0,-13,8,4
1529257019833966,7,2,4,19,19,-8,-1,1
1529257019833966,-5,0,1,11,3,39,19,4
1529257019842943,1,-1,-3,-2,4,-21,-18,-2
1529257019842943,-1,1,-1,-18,2,1,-10,-6
1529257019857903,-5,-5,-6,-17,-7,-37,-13,-5
1529257019857903,3,1,-4,-8,-8,-15,-10,0
1529257019858900,-1,2,4,18,20,14,22,-3
1529257019858900,-2,-2,-5,-7,-6,10,9,3
1529257019879844,-2,-3,-3,-12,-17,3,9,1
1529257019879844,4,0,-2,-1,13,-3,-8,-3
1529257019881839,-1,-3,-1,2,-3,-2,7,-2
1529257019881839,2,-2,-3,-3,1,5,-6,-3
1529257019893807,-3,1,1,-5,-10,10,-1,-5
1529257019893807,2,1,-4,-5,-4,-9,0,6
1529257019902783,1,1,3,13,7,8,4,-7
1529257019902783,-2,-2,0,-2,-16,0,-2,-1
1529257019917743,-2,-3,-2,-7,0,3,2,-4
1529257019917743,1,-2,0,1,1,-2,-6,0
1529257019919738,2,-2,-2,4,5,-9,15,4
1529257019919738,-1,1,0,-2,5,22,1,1
1529257019939684,1,-2,-2,-7,-8,-21,-6,-2
1529257019939684,-4,-3,0,4,9,4,-9,-13
1529257019941679,-3,0,1,0,0,54,11,3
1529257019941679,-2,-3,0,-2,1,-36,-16,-4
1529257019953647,0,2,2,-3,-7,3,15,3
1529257019953647,2,2,1,-6,-2,12,0,6
1529257019962623,-8,-5,-5,-2,2,-21,-11,-7
1529257019962623,1,1,0,8,-4,7,1,3
1529257019977583,-4,1,-1,1,2,1,-3,-7
1529257019977583,-4,-1,-1,-3,-2,-13,0,-1
1529257019979578,3,2,-2,-8,-14,10,5,5
1529257019979578,1,0,-2,-18,14,-2,-1,1
1529257020000521,-1,1,4,6,9,45,0,1
1529257020000521,5,-2,-2,17,2,-57,-2,8
1529257020001520,1,0,3,-4,1,-11,2,-2
1529257020001520,-4,-3,-2,6,5,-3,-4,-5
1529257020013487,-3,-4,-4,-15,-19,4,3,0
1529257020013487,-2,-1,-1,-3,-5,13,0,-6
1529257020022463,1,2,-1,-1,-3,8,10,5
1529257020022463,2,1,-1,-9,9,13,14,6
1529257020037423,-1,-2,-3,4,1,23,4,1
1529257020037423,-3,2,2,0,-4,2,-3,-6
1529257020039418,-1,-3,-2,5,-1,-1,0,-3
1529257020039418,0,2,3,4,-5,-28,-10,-4
1529257020060362,-2,-3,-2,3,-1,-16,-3,-3
1529257020060362,1,-1,-1,-3,-1,15,5,2
1529257020061359,6,0,-4,-2,4,6,6,13
1529257020061359,-4,-4,-3,-1,-11,15,-18,-7
1529257020073327,3,4,5,-2,1,-33,-8,1
1529257020073327,-2,-1,-4,-3,-4,-15,0,-2
1529257020082303,1,-1,-2,-6,-2,-11,-9,0
1529257020082303,4,-1,2,14,-4,-3,0,0
1529257020097263,-2,-2,-6,-24,0,-1,3,1
1529257020097263,-2,-2,-5,-13,-1,24,-10,-4
1529257020104244,2,6,12,93,20,-1,2,3
1529257020104244,-5,-7,-7,-19,-13,6,5,0
1529257020120202,-2,2,1,7,3,16,18,-1
1529257020120202,0,-1,-2,-3,-2,-12,0,3
1529257020122196,-1,-4,-4,-32,-9,-7,-2,-1
1529257020122196,-1,3,1,3,0,-7,-2,-6
1529257020134164,1,-3,-6,7,0,-17,-10,1
1529257020134164,-3,1,6,-16,3,15,-1,-8
1529257020143141,0,-1,-7,-12,-20,18,19,2
1529257020143141,-1,1,2,4,2,1,-8,-1
1529257020157103,-3,-3,-1,-3,0,-6,-7,-3
1529257020157103,1,-1,-1,-8,4,32,2,4
1529257020164084,-4,-3,-1,1,-3,-19,-6,-4
1529257020164084,3,1,2,8,0,3,9,11
1529257020180041,-1,-3,-4,-38,-1,29,18,13
1529257020180041,1,3,9,67,22,-2,1,1
1529257020182036,-2,-4,0,-6,0,-6,-1,9
1529257020182036,-1,-2,-4,-6,-4,3,16,-1
1529257020194004,3,0,-3,-2,-3,-18,-10,2
1529257020194004,-4,0,-2,-12,-3,2,-4,-11
1529257020202981,-4,1,-2,-17,-3,2,-4,-1
1529257020202981,7,-2,-3,-3,9,-5,-10,-5
1529257020216943,1,1,5,6,-2,33,6,0
1529257020216943,4,-4,-5,4,-2,-32,-6,3
1529257020223924,-7,0,1,29,19,-1,-5,-2
1529257020223924,-3,-1,0,-42,-26,-2,-2,0
1529257020239882,0,2,0,8,20,19,-3,-4
1529257020239882,2,4,3,13,0,10,19,6
1529257020241877,-5,-2,-1,34,23,-13,-7,-15
1529257020241877,1,1,3,12,7,4,25,5
1529257020253844,-5,-4,-7,-17,-14,-28,-7,11
1529257020253844,-2,-4,-3,-18,-11,20,-1,-6
1529257020262821,3,0,1,-19,-6,-24,-6,-7
1529257020262821,0,-1,-1,-3,3,-2,-13,1
1529257020275785,-2,-2,-2,7,-5,3,4,-3
1529257020275785,-5,-3,-5,-8,-8,-1,5,9
1529257020285759,-10,-3,-3,-12,-3,9,-2,-21
1529257020285759,5,3,6,10,4,-13,-10,7
1529257020299721,-1,-1,1,-2,-3,-17,-4,-7
1529257020299721,-3,-5,-4,-5,-4,-18,-18,2
1529257020301717,1,-3,-4,-27,-8,3,-29,-4
1529257020301717,-4,-9,-15,8,-7,-11,24,-2
1529257020322660,-4,3,4,13,3,-7,-8,-11
1529257020322660,-4,-1,6,-25,-7,-21,-33,-8
1529257020324655,10,5,5,33,28,10,3,26
1529257020324655,-2,-3,-6,-14,-6,10,-11,-20
1529257020336623,0,-3,-7,9,-3,-6,-6,5
1529257020336623,-6,0,-3,-1,-2,11,13,2
1529257020343604,11,2,-1,-30,-19,10,25,12
1529257020343604,-10,4,5,17,11,0,-12,-6
1529257020360559,1,-3,-7,-8,3,1,-4,-10
1529257020360559,2,4,7,-1,-15,-7,0,6
1529257020361557,1,1,2,1,10,19,-5,-8
1529257020361557,7,-2,-4,3,0,-1,16,18
1529257020382500,-6,0,3,-4,-6,-10,-7,-9
1529257020382500,-4,-4,-9,-4,1,6,10,-15
1529257020384495,-2,-2,-2,-2,-13,-13,0,14
1529257020384495,-1,0,3,-8,4,7,-8,-7
1529257020397460,0,0,0,-37,-32,-8,1,-1
1529257020397460,3,3,1,50,29,-4,-2,0
1529257020403444,-2,-4,-5,-27,-11,-1,5,1
1529257020403444,-6,-2,2,26,9,4,-6,-6
1529257020420399,0,0,1,4,0,-3,1,2
1529257020420399,1,0,-5,-35,-27,-9,0,0
1529257020421397,-3,4,7,13,18,0,-1,-4
1529257020421397,2,-1,-5,-7,4,51,22,22
1529257020442340,1,-1,3,13,11,-32,-21,-23
1529257020442340,0,0,1,9,0,3,6,3
1529257020444335,0,0,-6,-5,-1,4,3,8
1529257020444335,-5,-3,-1,-9,-14,-9,-10,-11
1529257020456303,-1,0,0,9,5,15,4,8
1529257020456303,-1,-2,-2,-12,4,-15,-3,-2
1529257020465279,2,0,0,3,-7,10,5,-3
1529257020465279,-1,-2,-3,-15,0,-37,-29,-4
1529257020480239,-1,0,5,32,1,0,5,3
1529257020480239,1,-4,-5,-5,-6,-7,-2,1
1529257020482234,-3,-3,-4,-21,-10,-8,-3,-8
1529257020482234,2,1,2,-1,-2,3,-2,-3
1529257020502180,0,-3,-2,5,8,5,5,-1
1529257020502180,-1,-1,-3,-4,4,-2,-1,7
1529257020504175,-3,-1,2,-7,-6,-4,-4,-8
1529257020504175,-2,-3,-3,-2,-2,17,7,2
1529257020516143,0,1,0,-2,-1,29,18,4
1529257020516143,3,2,-1,8,21,-19,-3,3
1529257020525119,-3,-1,-2,-5,-10,13,4,-8
1529257020525119,1,1,4,9,1,-6,3,6
1529257020540079,-6,-2,-2,-5,-5,6,5,-16
1529257020540079,4,-3,-5,-32,-14,13,-4,7
1529257020542074,-2,-1,1,25,27,-9,4,1
1529257020542074,1,2,1,0,1,-9,-2,-3
1529257020563018,-1,-2,-4,-8,-2,0,-9,7
1529257020563018,-5,-1,-2,1,-10,7,-6,-22
1529257020565013,-2,-1,-4,-25,-20,-41,-15,-1
1529257020565013,2,0,-4,27,19,17,0,-3
1529257020575983,-1,1,1,-8,0,-39,-26,3
1529257020575983,-2,-2,1,8,-1,-11,-7,-2
1529257020584959,1,-1,-1,-7,-15,8,-9,3
1529257020584959,1,1,0,15,11,-2,11,-4
1529257020599919,3,0,-6,-17,-7,-24,8,4
1529257020599919,2,2,4,11,11,15,-4,4
1529257020601915,-5,-4,-5,-4,-30,-19,-10,-15
1529257020601915,-5,-3,0,-23,-20,-9,22,1
1529257020622858,0,2,3,19,13,11,15,5
1529257020622858,-1,-3,-2,-2,-1,-6,22,4
1529257020623856,-2,-1,-3,-2,0,-6,8,-5
1529257020623856,-3,0,0,-22,-7,14,-13,-3
1529257020635823,2,-1,2,13,2,-2,-11,-4
1529257020635823,-3,-3,1,41,6,31,17,-5
1529257020645797,1,-3,-3,-15,3,-4,-6,0
1529257020645797,-1,-2,-1,-9,-8,-35,-18,-2
1529257020659759,0,2,-2,8,-1,3,15,-5
1529257020659759,1,-2,-8,-37,-5,-7,-6,4
1529257020661754,2,5,11,40,30,37,21,13
1529257020661754,-4,-3,-5,-6,4,21,3,-11
1529257020682698,1,-4,-6,-2,-5,-20,-32,-7
1529257020682698,-3,0,-3,-18,-26,-3,12,1
1529257020684693,-2,-4,-2,10,40,3,-1,3
1529257020684693,-4,1,2,-10,-5,-26,-16,-3
1529257020696660,2,-1,1,10,9,17,14,13
1529257020696660,-2,1,0,-4,16,-4,0,-6
1529257020712618,1,-2,0,2,-18,0,-7,1
1529257020712618,-1,-4,-3,-8,-9,-10,1,-2
1529257020720596,-4,-6,-8,-49,-11,-24,-18,0
1529257020720596,-1,0,3,58,2,6,-9,8
1529257020721594,-6,-1,1,-7,-6,-7,-10,-31
1529257020721594,-1,-3,-2,-4,4,17,-2,8
1529257020742538,-2,1,1,3,-11,19,12,2
1529257020742538,-3,-4,-5,-11,-2,-23,-8,-3
1529257020748522,0,-1,-5,-13,-14,14,3,3
1529257020748522,3,4,2,5,7,14,2,0
1529257020756500,-3,-2,0,23,15,-4,-3,-5
1529257020756500,-3,-3,0,-9,1,-13,-8,-7
1529257020765477,3,-2,-1,5,-2,13,-12,7
1529257020765477,-1,-2,-6,-11,-12,14,35,2
1529257020780437,0,-1,-2,0,8,-9,-11,-1
1529257020780437,1,1,0,-4,20,8,2,1
1529257020781434,-3,-3,-2,-5,10,-15,2,-1
1529257020781434,-3,1,0,6,-4,-22,-14,-5
1529257020802378,1,-1,-2,-25,7,37,15,3
1529257020802378,1,0,4,18,7,9,40,1
1529257020804373,-1,-1,-6,-23,-8,-13,-1,1
1529257020804373,11,2,-1,23,3,-16,-7,7
1529257020816340,-9,-1,7,30,0,10,3,-9
1529257020816340,0,-1,-6,-35,-7,-3,-15,-3
1529257020825317,4,3,2,3,-11,10,20,5
