timestamp,emg1,emg2,emg3,emg4,emg5,emg6,emg7,emg8
1520204878502378,-31,-24,-2,-5,-16,62,2,-43
1520204878502378,21,3,-13,-20,-28,-4,2,20
1520204878518420,-1,-7,-12,0,2,-26,-4,-30
1520204878518420,-7,-5,-33,-32,-47,-14,-1,11
1520204878520426,11,16,62,-6,-89,-38,-13,2
1520204878520426,23,10,4,28,83,19,28,-23
1520204878540479,-24,-10,-4,9,-7,-46,-23,-70
1520204878540479,54,18,-5,-16,-5,7,-2,103
1520204878542485,-36,-10,-14,9,37,15,-12,-73
1520204878542485,31,-2,5,0,-4,-21,-3,-70
1520204878554516,24,5,-11,-13,-4,37,3,30
1520204878554516,-36,-38,-8,2,-15,23,6,13
1520204878563540,-4,21,-7,-10,12,-19,-1,-21
1520204878563540,-62,-20,-9,-8,-30,1,-4,-14
1520204878578581,54,15,32,0,13,-9,-32,-5
1520204878578581,5,-4,-11,13,20,11,16,-20
1520204878580586,-53,-16,18,5,-61,-25,-13,19
1520204878580586,108,28,6,18,45,30,11,-35
1520204878600639,-10,-3,-14,7,20,-21,-27,14
1520204878600639,-62,-11,5,-7,-19,-6,30,-41
1520204878602645,58,4,-21,-2,0,34,-2,37
1520204878602645,-28,0,-4,-7,-2,-2,-28,-30
1520204878615679,14,2,1,-10,-17,-27,13,-15
1520204878615679,17,5,21,11,-3,4,16,-55
1520204878621695,-21,-8,-21,-3,49,23,5,40
1520204878621695,2,-25,-1,-5,-12,-4,-9,34
1520204878638740,-21,-3,-21,-15,-26,7,7,22
1520204878638740,50,36,22,3,-36,-14,-6,2
1520204878639743,-27,-3,-1,-2,48,17,24,-6
1520204878639743,-20,4,11,2,-28,0,-3,12
1520204878660803,40,-6,-14,-6,-19,-13,9,17
1520204878660803,-57,-15,-5,1,11,-20,-10,8
1520204878662804,40,0,-1,3,-1,15,4,8
1520204878662804,-58,-8,-8,-10,-50,6,3,28
1520204878674836,1,12,9,8,61,34,12,15
1520204878674836,87,27,18,1,7,2,-7,46
1520204878681855,-60,-24,-1,11,6,-8,-18,-51
1520204878681855,52,2,-12,-6,4,1,-9,49
1520204878698900,-27,-13,-13,-7,-59,-11,-5,-56
1520204878698900,31,-3,5,-4,13,-13,-3,73
1520204878699903,11,18,-3,-5,-14,16,8,6
1520204878699903,-40,-27,-11,-4,26,10,-9,-7
1520204878720959,-15,29,12,0,-27,-37,-10,-7
1520204878720959,-13,-8,-3,3,15,6,7,9
1520204878722964,13,0,6,11,4,2,0,-65
1520204878722964,25,-9,-4,0,-1,-23,-18,3
1520204878734996,-47,-29,-14,-10,8,9,0,21
1520204878734996,-62,9,0,0,-4,2,-8,-14
1520204878744020,58,18,8,-1,-10,-1,14,-1
1520204878744020,39,40,18,3,18,1,1,-2
1520204878758058,-62,-18,3,12,-4,14,-2,-32
1520204878758058,-7,-12,-8,-3,-9,-11,-14,22
1520204878760063,-58,-29,-7,-3,11,15,-5,2
1520204878760063,82,19,4,3,2,-54,-3,1
1520204878781119,21,17,6,1,-24,3,8,-7
1520204878781119,-45,-9,-3,-5,1,4,14,-12
1520204878782122,15,-4,-11,-8,-28,7,1,10
1520204878782122,-128,-31,-8,0,26,-5,0,20
1520204878794154,78,4,-4,-4,-3,-5,3,28
1520204878794154,25,11,5,-2,-8,3,-4,-5
1520204878803177,64,-9,-5,0,-8,5,8,-1
1520204878803177,-93,27,-4,-9,2,6,3,32
1520204878818218,50,-25,-5,-1,3,7,5,-3
1520204878818218,87,28,4,-1,1,3,-3,-11
1520204878820223,-73,-34,-10,-7,-8,-9,1,14
1520204878820223,-49,-4,0,-2,-3,3,5,-24
1520204878841279,28,19,5,0,-11,-4,-2,24
1520204878841279,-30,-17,5,5,29,8,-12,-48
1520204878842282,100,47,0,-2,-8,-18,-13,10
1520204878842282,51,-54,-17,-6,-2,5,10,25
1520204878855316,-92,22,6,0,-1,8,3,10
1520204878855316,-95,-19,-8,-7,-22,-4,3,-16
1520204878862335,13,37,24,15,17,-4,-13,-60
1520204878862335,102,-2,-6,-1,5,8,2,1
1520204878878378,10,8,-8,-7,-11,-9,-18,-1
1520204878878378,16,-50,-16,-3,8,14,12,-1
1520204878880383,-103,20,7,2,-5,-26,-12,-60
1520204878880383,72,42,4,-2,-8,5,9,37
1520204878901439,-24,-53,-12,-8,1,0,3,1
1520204878901439,-27,7,10,-3,-4,-3,6,37
1520204878902442,91,-13,-22,-6,2,5,-4,11
1520204878902442,-37,-23,13,4,-3,1,0,-12
1520204878914474,-14,20,1,0,5,2,6,-5
1520204878914474,90,-20,-6,-7,-4,0,4,10
1520204878923498,-18,-3,1,5,4,4,1,5
1520204878923498,-4,-5,1,5,4,2,2,-11
1520204878938538,-118,-82,-22,-10,-2,0,-6,25
1520204878938538,97,94,35,14,-3,-3,-16,-13
1520204878940544,-81,-58,-8,6,6,-1,-8,-3
1520204878940544,-15,-54,-11,-5,1,-2,-19,-38
1520204878960596,-14,59,29,10,8,9,17,-3
1520204878960596,-4,15,-27,-9,-7,-3,-4,79
1520204878962602,-28,-6,3,2,4,7,23,-49
1520204878962602,58,52,3,-6,-6,-13,-14,3
1520204878974634,-10,-78,-14,-2,1,6,4,-23
1520204878974634,-5,50,18,3,-2,-4,-5,0
1520204878983658,-42,-47,-12,-6,0,2,12,17
1520204878983658,7,30,7,1,1,6,16,-7
1520204878998698,-38,8,-13,-8,-7,-14,-40,-128
1520204878998698,-55,-48,8,9,3,5,19,13
1520204878999701,58,77,19,0,-1,-1,-7,50
1520204878999701,-24,-53,-8,4,2,4,10,0
1520204879020756,77,73,29,10,7,3,-4,123
1520204879020756,-98,-32,-11,-9,-4,6,1,15
1520204879022762,17,-34,-22,-15,-8,-3,13,55
1520204879022762,52,17,3,4,4,1,12,31
1520204879034794,-50,-11,-7,4,24,42,53,75
1520204879034794,16,29,12,2,-16,-38,-39,-76
1520204879043818,112,9,14,0,-17,-15,-15,-32
1520204879043818,-79,-3,-13,-7,-3,-1,-3,-14
1520204879058858,127,-89,-37,-10,0,13,6,96
1520204879058858,9,-9,-8,8,8,-3,7,81
1520204879059861,-119,-85,-34,-22,50,71,25,-22
1520204879059861,-15,108,94,31,-62,-99,1,78
1520204879082922,9,-46,16,5,-10,-4,-39,-128
1520204879082922,97,-14,0,-6,3,5,-21,-31
1520204879083925,-48,-33,-29,7,13,4,21,-39
1520204879083925,-88,-60,-24,-17,25,38,-11,-35
1520204879094954,-3,45,8,-1,0,9,-1,-74
1520204879094954,94,-4,-13,-9,-34,-42,29,32
1520204879103978,-31,58,38,3,-12,-16,-57,77
1520204879103978,-9,-22,-13,7,14,15,-19,14
1520204879118015,53,32,-17,-6,-12,-17,9,22
1520204879118015,-24,-15,-9,-12,37,65,13,-14
1520204879120021,-4,-48,-35,-9,-23,-27,28,75
1520204879120021,11,35,42,15,-8,5,0,-23
1520204879141076,32,19,-8,-14,-6,-11,-29,-14
1520204879141076,-60,-36,-20,-12,-5,26,51,-67
1520204879143082,62,69,43,17,1,-10,-15,63
1520204879143082,22,-21,-31,-21,-4,5,7,-109
1520204879154111,-90,4,11,13,7,-17,3,-64
1520204879154111,-15,-38,-22,11,31,14,-16,-26
1520204879164138,36,-18,-33,-38,-19,-12,-5,-35
1520204879164138,-29,-10,-9,-4,-8,15,42,-47
1520204879178175,14,14,17,6,4,8,-41,34
1520204879178175,-22,39,40,26,-33,-43,-6,-10
1520204879180181,4,-2,-4,-6,-2,-4,13,-23
1520204879180181,52,-2,-5,7,9,3,-8,19
1520204879201236,-9,-23,-39,4,65,67,25,57
1520204879201236,-8,7,51,-3,-63,-69,-25,-49
1520204879202239,21,4,-3,-3,-17,-23,-15,58
1520204879202239,-13,-17,-21,-12,12,22,2,-52
1520204879214271,43,26,18,1,-1,-28,-21,-19
1520204879214271,-6,-12,-15,-8,20,18,-7,-1
1520204879223295,-19,18,9,6,8,15,13,-46
1520204879223295,6,27,13,12,10,17,-30,23
1520204879238335,35,9,39,-15,-48,-31,5,31
1520204879238335,42,10,-22,-9,-4,-4,-5,66
1520204879240341,-51,-15,4,17,12,5,3,-44
1520204879240341,-13,-24,-43,-36,5,-1,0,52
1520204879261396,-39,0,11,6,-39,-13,0,28
1520204879261396,14,-8,-18,5,23,-4,-16,7
1520204879262399,2,5,19,19,16,37,9,-9
1520204879262399,-4,-10,-7,-37,-44,-36,-14,49
1520204879274431,5,5,3,29,86,-6,16,-33
1520204879274431,-19,14,13,-13,-5,7,5,-22
1520204879283456,-7,-20,-23,12,-33,5,5,34
1520204879283456,9,1,5,-38,50,44,-12,9
1520204879298495,-18,-23,-29,10,-104,-55,-8,43
1520204879298495,-4,16,32,50,57,38,24,-51
1520204879300501,-3,6,-35,-56,-61,-13,5,-6
1520204879300501,25,-8,10,48,62,15,16,-2
1520204879320554,38,19,3,-17,7,30,-4,44
1520204879320554,-59,-28,-10,-44,-84,-21,-56,-42
1520204879322560,5,-7,-12,-7,49,4,-10,-15
1520204879322560,-13,-1,11,79,9,-62,5,-18
1520204879334591,28,20,0,-15,16,-1,-8,-28
1520204879334591,-26,-28,-57,-9,-55,31,34,-37
1520204879343616,43,21,37,24,25,20,-6,-16
1520204879343616,-12,0,0,-3,-25,-23,-19,-46
1520204879358655,-2,-18,-30,8,57,-12,-16,17
1520204879358655,10,7,9,-19,1,53,30,-23
1520204879359658,12,0,4,-37,-18,-45,37,-20
1520204879359658,70,36,30,46,-103,19,-13,127
1520204879380714,-33,-30,-35,-8,72,-65,-62,-80
1520204879380714,-8,13,36,-29,-35,2,9,-50
1520204879382720,4,-6,-16,-66,30,-15,-16,57
1520204879382720,-19,-12,-6,-20,-53,48,7,-45
1520204879394751,-6,-11,-18,-30,-28,20,63,3
1520204879394751,28,14,11,105,124,-20,-25,48
1520204879403776,0,4,4,7,-33,14,-3,-64
1520204879403776,-4,1,-2,-50,-33,-43,-16,10
1520204879418815,-15,-3,7,-21,-31,3,14,-35
1520204879418815,1,-7,-21,-24,9,7,-3,32
1520204879419818,15,5,10,2,-33,-28,11,-1
1520204879419818,-8,-5,-12,-7,14,29,-14,11
1520204879440874,-20,-4,4,-6,-19,20,12,-8
1520204879440874,-25,-16,-11,-24,-6,11,-2,29
1520204879442879,-13,13,41,89,27,1,-35,6
1520204879442879,57,22,-10,-30,-16,-35,-15,14
1520204879454911,13,5,17,4,11,31,41,-12
1520204879454911,9,0,-17,-8,25,-52,-5,-15
1520204879463936,-54,-28,-15,-26,-61,8,-31,16
1520204879463936,-10,-4,-9,32,80,46,6,-54
1520204879477973,-21,-20,6,-9,-70,112,39,29
1520204879477973,19,29,3,3,-21,-93,-36,26
1520204879484991,19,16,42,-42,12,13,11,-47
1520204879484991,-17,-16,-16,63,2,61,5,-10
1520204879502037,-6,-5,-6,-28,-65,-5,-35,29
1520204879502037,-27,-16,-2,47,7,-50,28,-30
1520204879504043,45,17,-7,37,70,-4,-3,24
1520204879504043,-8,-2,14,-21,20,7,-6,-3
1520204879515071,1,3,-1,-2,-94,-46,-38,3
1520204879515071,-1,-3,1,20,55,29,34,12
1520204879531114,4,12,4,-4,-35,-59,-12,-62
1520204879531114,-4,-23,-6,-52,-33,0,-26,8
1520204879538133,-24,-7,-1,39,19,8,4,-21
1520204879538133,52,21,12,9,5,5,-23,100
1520204879545151,-12,-1,8,13,8,17,0,22
1520204879545151,-36,-10,-5,15,-18,1,27,-39
1520204879561195,15,9,-8,-44,39,59,6,66
1520204879561195,-26,-21,-3,-43,-17,-92,-1,-33
1520204879562197,18,6,5,109,49,83,4,-18
1520204879562197,13,8,9,-11,23,-39,38,-29
1520204879583253,3,14,15,-17,-3,-38,5,-29
1520204879583253,3,-11,-27,-57,-82,99,11,68
1520204879585258,-10,-4,-19,-55,-13,-93,-12,9
1520204879585258,-11,-6,-1,-38,64,25,4,-54
1520204879598293,11,13,24,103,-15,-91,-18,-13
1520204879598293,1,1,-4,-46,2,72,-16,-43
1520204879604309,9,-3,-13,6,-35,-20,10,103
1520204879604309,-49,-25,-14,5,-20,0,-24,33
1520204879621354,56,34,13,-72,20,18,53,-5
1520204879621354,-67,-34,-1,108,78,46,-31,-32
1520204879622357,67,43,17,-6,-21,-1,20,-21
1520204879622357,41,15,-4,-23,-21,-6,-8,5
1520204879643420,-68,-41,-14,-29,-25,-7,-42,31
1520204879643420,18,14,9,12,-9,-6,20,-4
1520204879645419,-39,-31,-15,-20,-25,48,6,-21
1520204879645419,-13,-1,0,4,61,-14,-4,10
1520204879657451,6,7,0,18,29,3,-33,-20
1520204879657451,20,7,-3,-26,-60,9,34,43
1520204879664469,-16,-10,-2,6,57,19,-12,-56
1520204879664469,15,11,5,-70,15,-55,-8,68
1520204879681514,-11,-6,16,127,90,-4,92,-26
1520204879681514,16,12,-5,-88,-34,97,-16,61
1520204879682517,-38,-14,5,63,64,-93,5,-27
1520204879682517,75,30,15,-18,-24,-15,7,-3
1520204879703573,-12,-2,-9,-11,38,83,13,55
1520204879703573,-49,-11,0,-19,10,-40,-41,-38
1520204879705579,22,-11,-20,-46,-30,26,8,42
1520204879705579,-49,-21,-3,36,-49,-17,-30,-14
1520204879717610,77,25,-6,-19,-44,-98,2,-15
1520204879717610,-46,-31,-5,4,-6,61,68,24
1520204879724629,43,18,8,24,2,-54,-61,-50
1520204879724629,-34,-7,-5,34,-17,-66,-11,-9
1520204879740671,-6,-6,-3,-1,21,83,-18,-27
1520204879740671,35,11,6,-11,-18,-34,-4,12
1520204879742678,-55,-16,-8,-19,-5,50,4,5
1520204879742678,-8,-4,-4,13,1,9,15,-3
1520204879763733,19,4,-3,-54,-72,-80,-54,-21
1520204879763733,5,17,11,62,92,2,-12,-41
1520204879764736,-11,-17,-10,-14,5,-16,0,8
1520204879764736,20,0,-2,31,57,13,15,3
1520204879777770,-4,5,1,-14,0,43,18,16
1520204879777770,-58,-22,-11,-7,8,-48,-58,-14
1520204879784789,74,7,1,-11,-6,29,20,34
1520204879784789,-11,-3,-8,-16,-3,33,39,33
1520204879800831,-107,-42,-3,8,4,17,-33,-12
1520204879800831,53,20,5,4,-8,-19,8,-22
1520204879802837,-62,-20,-10,-13,-34,32,-16,3
1520204879802837,19,6,-3,-35,-28,52,32,-10
1520204879823893,2,2,-4,42,54,-48,-34,48
1520204879823893,28,14,19,22,35,-9,23,-22
1520204879824896,-71,-11,-4,-21,-28,15,-3,-15
1520204879824896,46,5,1,17,19,-7,-6,-38
1520204879837930,-100,-17,-4,-18,-28,12,-7,-25
1520204879837930,114,53,-2,-6,-22,-5,-29,31
1520204879844949,-82,-27,-5,-9,7,-25,-3,1
1520204879844949,-14,-8,-4,-1,-43,12,3,15
1520204879860991,18,5,7,3,-13,4,15,-36
1520204879860991,26,-9,-10,-8,0,-4,1,-1
1520204879862997,-30,7,3,14,1,91,27,-7
1520204879862997,69,15,8,11,34,18,37,49
1520204879883050,-55,-9,1,-1,10,27,7,-17
1520204879883050,36,13,5,4,-12,-32,8,-8
1520204879885056,-14,-5,-5,-26,-45,4,-25,11
1520204879885056,-31,-7,-1,-9,-61,-2,-19,-18
1520204879897088,12,2,-7,-8,54,-68,-2,4
1520204879897088,-19,-12,6,9,-20,6,3,-31
1520204879906112,54,16,-3,11,4,-10,2,-10
1520204879906112,41,4,-9,-7,-21,-32,-10,26
1520204879921152,-3,5,2,-13,-31,19,15,19
1520204879921152,-7,-6,-6,-11,-21,-3,-19,-6
1520204879922155,28,6,6,8,20,4,10,-11
1520204879922155,5,4,2,5,14,-28,-34,-36
1520204879943210,18,-1,-4,5,0,8,2,6
1520204879943210,-36,-14,-11,-11,-2,8,12,21
1520204879945216,46,15,5,-2,1,-1,10,15
1520204879945216,-45,-8,2,10,26,17,-2,-11
1520204879957248,-24,-6,-4,0,-13,42,-3,14
1520204879957248,-43,-10,-4,-12,-47,-59,-12,-37
1520204879966272,12,6,1,-2,35,5,10,18
1520204879966272,-27,2,-2,-5,2,-26,-21,-25
1520204879981312,76,-2,-5,0,-24,-6,3,8
1520204879981312,-50,0,1,-1,9,21,-1,-3
1520204879982314,122,17,-2,-2,-20,-27,-5,16
1520204879982314,-128,-31,-5,-1,9,10,-2,-21
1520204880003371,110,10,3,0,-25,-13,14,5
1520204880003371,-90,-9,-7,-4,5,17,8,8
1520204880005376,14,-6,-6,-4,-2,9,-3,-3
1520204880005376,42,11,6,6,0,10,-6,-8
1520204880017408,-29,1,-1,-4,8,-15,14,-14
1520204880017408,43,-6,-4,0,2,-3,-14,2
1520204880026432,-27,-7,5,7,14,-2,-2,-33
1520204880026432,4,1,-4,1,-8,7,-5,23
1520204880040469,21,14,3,-4,7,-2,-3,9
1520204880040469,-4,-11,-5,-4,11,9,10,-11
1520204880042475,-109,3,4,-4,-16,-8,-6,-4
1520204880042475,-23,3,10,9,11,-9,3,-12
1520204880063530,80,18,6,7,8,-15,-4,3
1520204880063530,6,-13,-14,-13,-21,-18,1,30
1520204880065536,-6,-12,-13,-14,-10,-4,-13,-22
1520204880065536,57,4,-1,-12,-7,12,17,9
1520204880077568,-94,-10,4,4,8,-55,-2,-13
1520204880077568,56,9,4,13,7,49,10,-10
1520204880086592,-86,-14,-3,1,-3,-30,-7,-8
1520204880086592,-13,-2,-4,1,8,21,3,-8
1520204880100630,123,9,-7,-16,-11,0,-14,14
1520204880100630,-115,-20,2,4,4,-10,1,-14
1520204880102636,124,15,-3,-4,-8,-13,7,19
1520204880102636,-71,-13,-4,0,0,-9,1,15
1520204880123690,-61,-9,1,-3,-1,11,7,12
1520204880123690,-50,12,18,15,10,3,-7,-60
1520204880124693,35,9,-9,-6,-1,8,3,52
1520204880124693,-7,0,3,1,-7,-21,-7,-23
1520204880136726,-68,-25,-9,2,9,19,10,-8
1520204880136726,23,18,5,-1,2,0,4,10
1520204880145749,46,3,-5,-8,-8,-14,3,1
1520204880145749,34,9,-2,1,9,9,-5,-5
1520204880160789,25,-9,-1,-1,-5,-2,7,-7
1520204880160789,100,2,-14,-13,-8,11,-1,15
1520204880162795,4,-7,10,12,6,-6,1,-31
1520204880162795,-41,0,6,5,2,-10,-2,-5
1520204880183850,82,23,1,0,5,41,19,-21
1520204880183850,58,-5,-13,-12,-14,-23,-19,25
1520204880184853,-11,-14,5,7,10,16,11,-23
1520204880184853,77,16,-3,-4,-1,-9,1,-4
1520204880196885,-41,-2,1,1,-1,-6,-12,12
1520204880196885,35,-15,-1,-2,1,5,18,30
1520204880205909,-62,22,7,8,8,11,-13,-34
1520204880205909,-10,-20,6,8,2,21,8,59
1520204880220949,-35,21,7,-4,-4,-15,-28,-45
1520204880220949,47,11,5,7,3,-3,16,17
1520204880222955,-119,-30,11,12,14,36,9,30
1520204880222955,58,36,-3,-14,-10,-22,6,45
1520204880243008,18,-13,-7,-5,-1,-4,-11,-3
1520204880243008,-95,-22,-7,-12,-9,-35,-9,-45
1520204880245014,98,33,17,7,-8,11,18,-21
1520204880245014,-41,-11,-3,10,12,6,18,69
1520204880257045,-30,4,3,-3,6,30,-9,-54
1520204880257045,57,-10,-19,-10,-13,-20,-11,23
1520204880266069,57,29,2,-3,-4,-3,-6,-12
1520204880266069,66,-18,-17,-12,-5,-20,-9,90
1520204880281109,-111,-9,19,5,10,36,38,53
1520204880281109,26,43,27,22,7,-33,-14,-111
1520204880283115,65,-31,-29,-22,-13,-1,-42,51
1520204880283115,-72,-12,-7,1,-8,9,7,-84
1520204880303168,18,-7,-4,8,35,33,-10,-31
1520204880303168,53,-13,-19,-26,-32,-49,-20,45
1520204880305174,-89,-16,4,11,10,47,38,31
1520204880305174,-33,34,41,23,2,-26,-35,-108
1520204880317205,53,-24,-35,-10,-12,-67,-35,-73
1520204880317205,-83,8,20,4,6,65,-2,86
1520204880326229,14,-11,-18,-12,0,-32,33,103
1520204880326229,63,-17,-14,-14,36,83,-19,-62
1520204880341269,-50,16,24,2,-42,-63,16,-20
1520204880341269,65,22,20,46,11,-13,-4,-43
1520204880342272,-76,-44,-25,-5,4,13,-23,-19
1520204880342272,60,43,30,3,-15,3,46,7
1520204880363328,71,10,-22,-13,22,21,-2,35
1520204880363328,-64,-37,-20,-19,-4,5,1,-33
1520204880365333,-16,27,32,25,-7,-26,-25,-10
1520204880365333,54,-22,-33,4,15,11,8,51
1520204880377365,-75,-10,4,-18,-8,-11,-15,-40
1520204880377365,9,8,-4,-17,-10,19,9,24
1520204880386389,-32,-25,-17,-14,-1,3,7,-45
1520204880386389,4,0,10,14,-5,-23,-27,-5
1520204880401429,44,-4,-9,3,-4,12,-10,68
1520204880401429,-30,2,-17,-11,-9,3,12,-5
1520204880402432,-18,-20,-4,-8,4,21,24,-5
1520204880402432,69,1,-48,-15,-2,-21,-34,-3
1520204880423488,-14,-10,37,11,-30,-36,15,61
1520204880423488,-8,3,-1,8,25,36,13,-46
1520204880425493,-9,5,-5,-12,-15,-41,-40,32
1520204880425493,-55,-1,-12,-10,-13,-16,9,7
1520204880437525,1,8,2,18,20,47,8,-31
1520204880437525,-8,-11,4,-53,-15,11,-6,28
1520204880446550,13,18,6,-3,-7,-24,3,-39
1520204880446550,14,30,7,-10,-11,0,-15,7
1520204880460586,-43,-68,-33,19,52,25,12,30
1520204880460586,9,24,43,3,-53,-35,11,31
1520204880467605,13,-14,-27,2,27,-14,-5,-16
1520204880467605,-34,12,33,-61,-42,30,0,15
1520204880483648,-6,16,-6,-1,-5,36,16,-12
1520204880483648,-18,-32,-52,40,100,-17,0,-14
1520204880484651,48,25,42,9,-31,20,-7,-28
1520204880484651,-14,-15,-32,14,-7,-56,-9,0
1520204880507713,-16,-17,13,6,-8,0,-13,-56
1520204880507713,15,16,0,-6,-24,26,-5,-4
1520204880508716,2,3,-2,53,25,-24,-7,32
1520204880508716,-68,-61,-35,-13,-21,37,18,-31
1520204880520747,35,31,17,2,49,-14,7,10
1520204880520747,28,34,29,-29,-55,-13,-7,2
1520204880526763,-11,-11,-17,0,37,3,27,-40
1520204880526763,-10,10,38,-18,-22,-13,-15,5
1520204880543808,22,10,-2,-18,-17,14,8,56
1520204880543808,-25,-17,-16,26,19,-11,-1,-22
1520204880544811,8,-1,-3,-24,-19,-35,-10,-13
1520204880544811,-30,-21,-5,7,10,40,14,-13
1520204880565867,13,-2,-13,-4,-22,-36,-13,9
1520204880565867,-12,22,32,-12,-9,10,-14,14
1520204880567872,-6,-26,-58,-38,-85,-28,-10,-37
1520204880567872,9,16,35,96,112,11,15,-45
1520204880579904,12,-9,-25,24,-15,-4,6,-4
1520204880579904,3,6,23,-22,-16,18,-3,5
1520204880586923,-22,-10,-8,-54,-1,32,-20,49
1520204880586923,-12,-21,-30,66,8,-52,26,-21
1520204880603968,31,29,32,11,-70,-58,18,-40
1520204880603968,0,-18,-21,0,89,52,10,2
1520204880604972,7,14,1,-63,-51,9,5,-3
1520204880604972,-5,-7,3,-128,-83,-58,-18,17
1520204880626033,-17,-8,-15,-8,-43,64,-19,58
1520204880626033,1,-5,-9,71,61,-27,-8,-27
1520204880628034,5,6,12,2,73,61,22,-30
1520204880628034,1,-4,-11,-3,-60,-27,1,9
1520204880640064,51,34,3,-41,-64,-41,-44,65
1520204880640064,-37,-26,-17,-109,38,0,11,4
1520204880647083,12,8,14,99,26,100,28,-12
1520204880647083,-31,-25,-15,34,70,-50,-28,-2
1520204880663126,1,10,19,28,-3,-5,-11,13
1520204880663126,27,13,3,37,-128,-80,-36,8
1520204880665131,20,9,7,-36,127,30,-15,19
1520204880665131,-2,-2,-5,51,-123,91,30,-15
1520204880686187,-2,-2,-3,95,24,-67,-25,-14
1520204880686187,10,4,9,14,-44,-27,12,-28
1520204880687190,-5,3,6,-16,-81,-57,14,21
1520204880687190,-13,-3,-9,-30,50,114,3,69
1520204880700224,-27,-19,-22,-71,-19,-60,-15,-6
1520204880700224,26,21,41,94,-18,-14,20,-38
1520204880707243,7,14,10,-29,9,-75,-23,7
1520204880707243,48,24,15,14,94,92,1,20
1520204880723286,-61,-25,-5,-64,33,89,13,-25
1520204880723286,7,-10,-27,-43,-39,1,13,54
1520204880725292,24,19,6,-4,56,90,-35,27
1520204880725292,0,1,12,32,4,-100,23,-48
1520204880746348,-24,-19,-20,42,-28,-9,-16,27
1520204880746348,-16,-12,-19,-123,7,21,15,-13
1520204880747351,10,3,42,106,58,95,46,-44
1520204880747351,12,6,-10,-117,-12,-21,-28,2
1520204880761388,13,13,20,94,-48,16,13,18
1520204880761388,-32,-21,-19,-45,98,127,-58,22
1520204880768406,15,0,-14,42,-66,-119,81,-22
1520204880768406,-20,3,12,-122,-1,65,-7,47
1520204880783446,-15,-15,-11,-4,8,50,-6,10
1520204880783446,2,3,14,-47,44,38,32,56
1520204880785451,1,0,-14,-3,19,-45,-7,2
1520204880785451,-11,-2,26,127,81,57,22,-110
1520204880806507,64,27,-8,-128,-72,-82,69,78
1520204880806507,-18,-14,-9,79,-105,-62,81,-24
1520204880807510,60,35,37,50,35,0,11,5
1520204880807510,-19,-18,-25,-39,-120,-50,-7,26
1520204880819542,-23,-10,-6,-69,47,116,-36,-68
1520204880819542,-7,1,-1,-52,-46,-7,-70,87
1520204880828566,-9,1,20,59,28,-40,-10,-79
1520204880828566,-22,-19,-26,92,-28,20,-56,39
1520204880843605,44,24,10,-80,-49,-95,12,-68
1520204880843605,2,0,-4,20,-6,31,35,-25
1520204880845611,-61,-31,-37,-123,-69,-14,-84,102
1520204880845611,25,11,7,12,18,-72,-39,-21
1520204880865664,-3,-8,-9,-27,24,-58,14,-52
1520204880865664,-23,-19,-18,83,50,15,-82,35
1520204880867670,9,5,-6,-94,-9,2,-2,45
1520204880867670,-19,-5,11,56,-38,79,78,34
1520204880879702,2,7,11,-55,108,53,8,10
1520204880879702,1,6,11,-10,-56,25,-19,86
1520204880888726,39,16,21,103,-26,-9,40,-50
1520204880888726,25,18,5,-128,-35,14,19,9
1520204880903765,-25,-10,-5,102,41,-7,0,21
1520204880903765,20,1,1,13,50,-63,-12,-42
1520204880904769,-22,-8,-5,-79,-43,18,-36,-33
1520204880904769,5,6,-1,-91,-29,0,-9,59
1520204880925824,-26,-16,7,105,74,-7,16,3
1520204880925824,-9,-6,-11,-33,-48,-73,8,-24
1520204880927830,-18,-17,-14,-68,21,11,-2,-53
1520204880927830,17,13,30,127,127,7,-1,-76
1520204880939861,-37,-22,-27,-111,-62,-41,-103,-69
1520204880939861,87,41,17,-12,4,-33,62,12
1520204880948887,-5,2,0,-76,1,89,6,-68
1520204880948887,-2,-7,3,71,42,-38,5,73
1520204880963927,-15,-4,-6,-96,-2,55,27,35
1520204880963927,-13,1,3,-68,-5,-5,-45,-43
1520204880965431,16,9,14,78,-128,-38,-11,24
1520204880965431,-21,-15,-25,-68,52,-51,-23,-17
1520204880985988,40,20,30,127,16,-33,-7,-25
1520204880985988,-1,-1,-6,-42,29,22,14,-25
1520204880987994,-15,-13,-24,-115,-92,-44,11,68
1520204880987994,-6,7,17,2,-26,-37,-22,3
1520204881000025,20,12,7,-5,26,43,7,20
1520204881000025,-28,-19,-4,89,-21,6,-11,-38
1520204881009050,-10,-4,-2,109,-24,-46,-23,11
1520204881009050,5,4,-4,2,39,-35,6,-11
1520204881023590,26,14,4,-17,-9,45,12,40
1520204881023590,-36,-21,-11,-64,1,-1,13,-38
1520204881025596,3,-5,-11,-74,-40,-95,-16,-12
1520204881025596,-1,-3,-9,-34,-56,-2,-6,-22
1520204881046153,20,5,-11,-81,-78,-57,-17,6
1520204881046153,19,10,16,81,27,14,-12,12
1520204881047155,-31,-15,-8,11,29,9,-5,-16
1520204881047155,9,4,1,-38,-51,-20,-15,32
1520204881060189,-2,-3,-8,-85,-57,-15,5,-16
1520204881060189,-14,-7,-11,-72,34,52,42,38
1520204881068211,13,8,12,109,65,-38,-8,5
1520204881068211,-8,-3,-8,-64,-97,-29,-4,-27
1520204881083251,25,5,18,98,104,35,-6,-4
1520204881083251,-64,-25,-4,12,-10,-10,-9,-25
1520204881085257,-21,-10,-13,-20,-3,100,18,31
1520204881085257,14,6,0,-45,-4,-14,4,-29
1520204881106312,6,4,1,64,10,25,16,36
1520204881106312,-21,8,8,40,27,44,20,-20
1520204881107315,39,-3,-9,-13,-3,-76,-13,7
1520204881107315,-4,-13,-11,-41,-27,4,-12,-11
1520204881119347,-32,-12,-4,-4,-14,-6,12,-21
1520204881119347,14,2,1,11,7,-4,-4,-19
1520204881128372,-20,1,-7,-14,8,32,6,8
1520204881128372,34,-2,1,-5,5,1,-2,-13
1520204881143411,-66,-16,-4,48,1,2,16,14
1520204881143411,42,9,-5,-31,10,-9,-25,-2
1520204881145417,-15,3,11,16,2,19,7,5
1520204881145417,40,13,2,16,21,-9,18,-9
1520204881166473,-9,-4,-3,-7,-16,-4,4,4
1520204881166473,-44,-4,-1,-12,2,-48,-51,-1
1520204881167476,14,10,6,-18,5,-5,2,-33
1520204881167476,9,-1,2,25,9,16,8,18
1520204881179508,7,-3,-15,-26,-6,20,-5,13
1520204881179508,21,-1,-10,-66,-25,-8,7,10
1520204881188532,-29,-3,17,66,28,10,5,-9
1520204881188532,-36,-9,-9,-3,-8,27,-2,-19
1520204881202569,29,10,4,-6,2,-39,-10,-13
1520204881202569,23,8,-4,1,-4,11,15,18
1520204881209587,-29,-14,1,-22,1,13,-2,14
1520204881209587,-62,-13,-4,-6,-4,-6,-4,-9
1520204881225630,17,10,8,6,11,33,-5,-3
1520204881225630,-41,-5,1,16,-3,4,1,-36
1520204881227635,59,6,-6,-23,-1,-9,-7,10
1520204881227635,41,19,4,7,1,3,12,28
1520204881239667,-62,-9,1,-14,5,1,-5,-24
1520204881239667,21,1,5,17,3,2,15,16
1520204881248691,12,-5,-14,-25,-17,10,-3,17
1520204881248691,-22,2,0,-1,30,14,2,3
1520204881262729,19,2,3,5,4,6,2,-3
1520204881262729,10,3,-4,-3,-18,13,6,9
1520204881269747,-33,8,4,-9,8,8,-7,-16
1520204881269747,61,-3,-4,2,-5,-5,-2,-12
1520204881285790,-6,-10,-13,-11,-10,-8,3,15
1520204881285790,-38,-10,-2,3,-11,-5,-14,-18
1520204881287796,9,3,-4,-26,-4,-4,6,10
1520204881287796,-21,-4,4,4,-5,-14,-9,-21
1520204881315870,-13,-1,0,3,-2,6,-1,-24
1520204881315870,96,22,-7,-8,-10,-5,7,49
1520204881317876,-59,-17,-1,-7,-6,-14,-17,-38
1520204881317876,25,-12,1,15,2,-5,-9,-43
1520204881322889,-15,-13,-4,-1,-3,6,3,9
1520204881322889,1,2,4,8,1,1,8,33
1520204881329908,0,3,-3,-10,1,-4,-2,-21
1520204881329908,-66,-3,-10,-14,-6,3,7,32
1520204881345950,25,5,14,10,-10,-7,-13,-29
1520204881345950,82,-3,-12,1,6,-24,-7,-17
1520204881347955,-64,5,7,-6,-3,8,13,24
1520204881347955,26,-8,-1,0,-2,-2,-2,-13
1520204881369011,11,6,-3,2,3,0,-2,-3
1520204881369011,-91,-19,-4,-3,-6,3,5,8
1520204881370014,-9,-3,-1,-2,6,5,5,17
1520204881370014,-43,-16,5,12,-1,-9,-16,-57
1520204881383049,69,20,0,-5,-5,-6,-1,33
1520204881383049,-9,-26,-4,-4,-5,4,4,-9
1520204881390067,4,23,10,9,10,1,-6,-20
1520204881390067,-69,-19,-5,3,3,4,7,-7
1520204881406111,50,-14,-12,-9,-3,-3,-2,12
1520204881406111,64,32,12,2,-4,2,0,23
1520204881408115,-11,-5,-5,-10,-9,-9,10,-1
1520204881408115,79,20,9,8,8,10,15,4
1520204881428169,28,4,-5,3,-5,-9,-16,-3
1520204881428169,-93,-21,-5,-3,3,3,-3,-39
1520204881430174,38,-8,-3,-3,1,8,-5,-7
1520204881430174,13,15,-2,-7,-11,-8,-7,63
1520204881443208,-52,-11,2,0,5,6,14,-29
1520204881443208,-116,-25,-11,4,0,0,-1,-11
1520204881449225,84,-17,3,4,-1,-5,-12,-9
1520204881449225,28,42,6,-3,-5,-5,1,18
1520204881466270,-104,-78,-13,-3,-2,15,9,0
1520204881466270,-35,81,18,8,3,-13,-5,-19
1520204881467273,121,7,-2,0,-3,-4,-1,-7
1520204881467273,-45,-49,-22,-15,-4,-6,-24,58
1520204881488329,-9,37,23,6,9,3,-2,-19
1520204881488329,8,22,-7,3,-4,2,0,-6
1520204881490335,-77,8,-8,-4,-2,2,4,35
1520204881490335,44,-63,-3,8,42,27,-6,22
1520204881503368,5,65,-3,0,-39,-54,-12,-51
1520204881503368,39,-119,-32,-10,-8,0,-7,-6
1520204881509384,75,110,47,-2,-5,-4,14,104
1520204881509384,-37,-32,-1,-4,-9,-4,3,-32
1520204881526430,-25,-39,7,5,22,21,3,12
1520204881526430,71,33,14,15,9,3,-4,-70
1520204881527433,72,18,-26,-22,-14,-8,6,61
1520204881527433,60,-68,-8,12,3,4,-5,-74
1520204881548489,-32,30,2,-7,1,7,23,101
1520204881548489,8,-23,4,-10,-3,1,1,-23
1520204881550494,-115,-24,25,25,11,3,-26,-35
1520204881550494,76,127,11,-7,-12,-2,30,71
1520204881562526,-34,-95,-14,-2,1,-1,-14,-82
1520204881562526,81,87,10,7,6,8,14,92
1520204881569545,-98,-119,-41,-21,-5,1,-14,-59
1520204881569545,-45,17,15,8,-4,-21,-4,-5
1520204881585587,-59,-6,3,1,-3,0,0,-59
1520204881585587,96,3,-21,-23,-16,-13,-21,75
1520204881587593,-99,-52,-9,15,49,36,-9,-45
1520204881587593,40,81,9,4,-28,-26,10,7
1520204881608649,-70,-35,16,3,-14,-25,-23,-97
1520204881608649,-34,66,10,14,1,-1,-7,4
1520204881610654,-34,17,-10,-15,-15,-11,10,31
1520204881610654,-95,-91,-18,-5,30,42,5,-77
1520204881622686,125,120,21,14,14,-1,12,115
1520204881622686,-78,-126,-1,1,-12,-2,-1,-41
1520204881629706,80,97,6,2,-4,-4,-3,-6
1520204881629706,-23,117,9,-3,-1,4,5,-1
1520204881645747,18,-128,-46,-17,-1,8,12,11
1520204881645747,-76,-80,-18,-3,1,-5,-10,-20
1520204881647753,94,-106,-30,-12,-5,1,8,35
1520204881647753,-20,-67,36,16,-1,14,3,-14
1520204881668809,69,86,0,-11,-30,-39,-23,-28
1520204881668809,32,-66,-13,-12,-5,-3,1,35
1520204881669812,-100,88,30,5,-8,-12,-10,-82
1520204881669812,38,-123,-41,-21,1,9,-7,58
1520204881682846,71,58,34,15,22,23,9,-7
1520204881682846,-82,-74,-17,-7,-6,-5,7,-58
1520204881689865,36,38,15,5,1,-4,-10,12
1520204881689865,-6,-112,-25,-14,-11,-10,18,-35
1520204881705908,117,-10,-25,-2,6,5,-16,14
1520204881705908,-18,127,29,-8,-7,-6,-1,32
1520204881707913,4,6,21,16,7,7,9,-24
1520204881707913,-55,-56,-47,-10,-11,-18,-22,0
1520204881728970,34,-32,-8,-6,-8,-3,1,33
1520204881728970,-70,-89,0,9,14,13,-2,-70
1520204881729973,121,-57,-38,-20,-17,-14,0,62
1520204881729973,-112,127,40,15,18,19,1,-21
1520204881742005,37,-73,-4,3,0,1,0,38
1520204881742005,29,127,55,1,-15,-19,-27,5
1520204881751028,114,-128,-29,2,-3,-1,9,4
1520204881751028,30,-14,11,6,-2,-5,4,-14
1520204881766068,-128,8,-4,-5,16,27,10,-41
1520204881766068,127,88,8,1,0,-5,0,60
1520204881768074,5,-34,6,4,-4,-2,7,32
1520204881768074,17,-34,1,3,2,4,-7,-101
1520204881788126,-35,59,-6,-18,-10,-6,7,66
1520204881788126,-40,-68,-17,1,2,3,12,16
1520204881790132,33,80,8,0,-6,-11,-24,-41
1520204881790132,-54,-44,10,13,9,3,13,-40
1520204881802163,6,-128,-25,-10,-4,-3,-6,7
1520204881802163,11,40,-9,0,3,3,9,59
1520204881811188,-128,49,-6,-12,3,21,13,-6
1520204881811188,50,75,28,13,-21,-46,-10,25
1520204881826228,69,2,3,-5,-10,3,22,-13
1520204881826228,74,-8,-11,-9,3,0,-28,-86
1520204881827230,32,0,7,3,-4,-6,-13,28
1520204881827230,-40,-67,-24,-1,10,11,12,91
1520204881848286,-117,-7,5,-3,-7,-4,-8,34
1520204881848286,102,-16,-4,4,4,2,16,-20
1520204881850292,-76,-55,-20,-8,4,5,14,-23
1520204881850292,-31,68,9,-9,-9,-7,-26,49
1520204881862324,23,-8,-1,5,12,3,-12,-1
1520204881862324,-88,-31,22,26,48,48,24,31
1520204881871348,44,-31,-5,-3,-50,-71,-1,38
1520204881871348,76,3,-1,-14,-15,-5,-9,-27
1520204881886388,60,-9,5,5,7,6,16,-11
1520204881886388,-29,31,-6,-10,3,0,-32,-39
1520204881887390,-55,-21,5,13,18,10,-9,-45
1520204881887390,85,51,-3,-12,-16,-7,16,-9
1520204881908446,-51,11,10,-4,3,16,-5,33
1520204881908446,14,-43,-13,-8,-22,-27,8,-27
1520204881910452,93,-13,-7,6,19,11,-15,2
1520204881910452,-11,11,12,3,-8,-8,-20,-32
1520204881922483,-27,-25,-32,-17,-7,-7,-1,-8
1520204881922483,-22,-55,-2,1,8,12,7,-12
1520204881931508,-104,-32,-16,-6,-9,15,6,-21
1520204881931508,73,16,18,8,-5,-18,2,31
1520204881946548,111,29,-11,-8,-5,-6,-2,19
1520204881946548,-67,-21,38,9,-9,-6,-2,-51
1520204881947551,11,-4,-4,-1,21,27,13,58
1520204881947551,-85,-46,3,8,19,21,-20,-25
1520204881968606,46,15,-11,-3,-27,-40,5,-67
1520204881968606,-74,17,-3,8,6,0,0,108
1520204881970612,24,7,10,-7,-4,-4,-5,-32
1520204881970612,-13,-59,-21,-1,6,11,10,5
1520204881982644,-117,20,1,-1,4,3,7,17
1520204881982644,97,5,-11,-3,19,36,14,-8
1520204881991668,-73,24,9,-2,-20,-22,4,-36
1520204881991668,-6,-38,-20,-6,-23,-35,9,11
1520204882005705,-31,17,7,8,36,33,-2,-57
1520204882005705,14,8,14,11,-28,-27,16,-16
1520204882007712,-57,15,18,6,19,19,-21,-71
1520204882007712,120,16,-25,-20,5,19,12,82
1520204882028767,-35,26,5,2,-7,-22,-2,-23
1520204882028767,-15,6,18,12,7,9,-4,-2
1520204882029769,-1,-69,-19,-6,4,4,9,-12
1520204882029769,-19,30,7,6,-6,-3,-4,20
1520204882041801,13,5,9,9,9,7,-6,-2
1520204882041801,-2,-18,-7,-6,-11,1,-5,22
1520204882050825,3,4,-2,13,-11,-27,-8,4
1520204882050825,-1,14,18,1,6,2,-7,-34
1520204882065865,-7,-20,6,4,3,13,8,17
1520204882065865,-25,-6,-10,-8,-7,-12,-9,-38
1520204882067871,13,5,-21,-10,0,2,3,38
1520204882067871,-21,11,6,0,9,28,9,35
1520204882088927,-10,0,11,4,0,1,-33,15
1520204882088927,26,17,-10,-15,-26,-17,-1,8
1520204882089930,7,20,7,0,1,0,21,-23
1520204882089930,-8,12,-2,-11,-8,-80,-24,-14
1520204882101961,7,-4,15,-2,-64,31,-8,42
1520204882101961,-12,-22,-19,-9,52,60,1,-32
1520204882110985,12,23,6,20,20,14,24,-30
1520204882110985,-2,-4,-9,1,2,11,2,-21
1520204882126025,8,5,-3,-1,19,-19,-22,3
1520204882126025,-7,3,15,-2,-49,-43,-16,-14
1520204882128031,-21,-3,3,-4,-4,84,12,-54
1520204882128031,-33,0,-16,-35,-39,-36,-25,-10
1520204882148084,85,43,13,-32,-7,-66,23,-24
1520204882148084,-13,-15,-21,-41,-77,-37,1,48
1520204882150090,9,13,26,41,82,-6,-14,-22
1520204882150090,-21,-8,-3,-1,-42,37,3,-6
1520204882162121,-27,-17,-15,-22,14,57,1,-8
1520204882162121,13,-2,-8,-33,24,-33,-14,-5
1520204882171146,-10,-3,-7,11,39,62,19,28
1520204882171146,-5,-2,-4,3,-57,-51,3,-3
1520204882193204,-2,7,27,-38,5,-50,1,9
1520204882193204,3,11,11,-19,-44,22,25,14
1520204882195210,-13,-5,-17,-25,11,19,-9,21
1520204882195210,-4,0,11,-6,9,12,1,-7
1520204882208244,-6,-5,-8,44,53,-6,8,-16
1520204882208244,7,-6,-1,23,12,14,-2,-35
1520204882210250,32,29,14,-23,-37,-38,-28,53
1520204882210250,-9,-20,-9,-26,-18,57,19,17
1520204882222281,-44,-19,-9,20,-4,-23,-12,6
1520204882222281,-3,-4,1,73,67,-10,-4,-22
1520204882231306,-57,-18,7,-26,-28,4,2,9
1520204882231306,66,33,-7,-17,-10,-15,1,47
1520204882246345,-2,-7,-3,39,-30,9,5,10
1520204882246345,-24,-7,1,-6,1,7,-1,5
1520204882247348,15,3,0,-26,-8,-47,-3,-38
1520204882247348,0,5,-3,53,41,39,-12,-7
1520204882268404,7,5,5,12,51,19,14,2
1520204882268404,-9,-6,-10,8,29,23,-10,49
1520204882270409,17,4,10,52,20,1,9,-6
1520204882270409,-37,-5,20,-15,-32,-8,-8,-4
1520204882282441,17,9,-2,68,56,44,13,-34
1520204882282441,-24,-20,-19,-62,-119,-43,5,52
1520204882291465,11,-6,-18,-44,32,44,-55,-1
1520204882291465,-13,-12,-2,-25,-65,-81,40,-93
1520204882306505,28,10,-11,-93,-6,13,-23,70
1520204882306505,-3,5,21,123,127,51,15,-39
1520204882307508,2,-1,-5,-38,-128,-52,-1,3
1520204882307508,-48,-22,-18,-24,127,35,-3,60
1520204882328564,13,9,7,45,-14,29,12,-57
1520204882328564,-1,-1,0,-58,-87,-32,-3,-5
1520204882330569,28,8,-7,-11,-38,-47,9,-18
1520204882330569,7,6,12,14,-47,-10,-18,46
1520204882342601,-15,-12,-2,24,61,41,26,1
1520204882342601,-14,-13,-18,0,-67,-39,-28,-26
1520204882351625,-21,2,12,-55,-103,-110,22,-11
1520204882351625,15,-3,-14,88,51,86,-35,3
1520204882365662,12,-4,-11,-80,-118,-128,22,-25
1520204882365662,-26,-8,1,-2,112,42,7,7
1520204882371679,-3,-3,-10,-86,28,42,-9,69
1520204882371679,-12,-16,-16,35,5,-9,2,-27
1520204882388724,43,21,-1,-28,-82,32,-8,3
1520204882388724,0,-3,-7,-30,37,-7,3,-39
1520204882389727,0,-1,-2,-27,-60,-37,12,14
1520204882389727,-25,-2,12,0,-4,30,-4,18
1520204882410782,-41,-22,-13,-4,-59,21,-26,8
1520204882410782,49,20,8,17,76,-24,30,-64
1520204882412788,-10,-7,-3,-5,-50,-4,-28,62
1520204882412788,-3,7,9,-53,-51,3,13,-71
1520204882425823,21,18,31,92,50,53,14,-7
1520204882425823,3,3,-7,-71,-115,-20,-17,20
1520204882431838,-13,-6,5,80,127,64,-7,-9
1520204882431838,-6,-3,-13,-128,-128,-10,14,-12
1520204882448884,-12,-19,-20,-18,-51,-55,-18,11
1520204882448884,26,19,24,71,71,22,-18,-28
1520204882449887,-8,-1,1,-7,16,0,40,-6
1520204882449887,10,11,12,94,98,12,-21,54
1520204882470942,-24,-12,-8,-32,78,25,9,-20
1520204882470942,-9,-5,-11,-70,-105,-24,-24,44
1520204882472948,7,1,1,100,37,22,-15,-20
1520204882472948,39,21,30,23,80,-108,44,-45
1520204882484980,-42,-23,-23,2,-53,-86,-15,-2
1520204882484980,58,36,23,36,-58,20,-18,-64
1520204882491999,-19,-17,-25,-127,9,-44,0,73
1520204882491999,-23,-11,-14,2,46,57,10,-44
1520204882508041,-3,6,22,-34,-28,-46,-32,32
1520204882508041,-31,-11,-6,-121,8,-19,45,59
1520204882510047,43,32,48,121,51,104,-28,-103
1520204882510047,-4,-10,-21,-91,-29,-91,-17,-4
1520204882531102,-6,1,17,59,73,90,-2,12
1520204882531102,-41,-30,-33,31,50,24,-38,-46
1520204882533108,25,17,10,-62,-5,-8,86,103
1520204882533108,9,11,19,59,63,-39,4,-9
1520204882546143,-5,1,3,-77,-14,25,-22,-63
1520204882546143,-38,-21,-11,-78,-62,5,-40,6
1520204882548148,26,8,1,-8,-7,35,74,-21
1520204882548148,53,27,18,15,13,-6,-16,67
1520204882568201,-17,-6,-1,73,-17,56,2,4
1520204882568201,17,11,11,48,21,-27,25,-13
1520204882570207,-37,-18,-24,-60,-73,-21,-35,-24
1520204882570207,-23,-22,-20,-81,-3,48,-16,-7
1520204882591263,-1,-4,-4,0,6,-41,21,23
1520204882591263,13,3,9,84,61,-85,-5,-19
1520204882592265,3,5,8,68,-22,26,-91,2
1520204882592265,-2,7,1,-22,-19,-26,7,71
1520204882605300,15,3,-1,63,-77,-71,6,-4
1520204882605300,10,-2,-8,-65,-98,-21,10,47
1520204882612318,-2,1,-5,-128,-85,-32,-6,-42
1520204882612318,7,6,5,60,-6,-43,-10,-25
1520204882628361,-14,-12,-11,-88,20,32,22,70
1520204882628361,-25,-5,-4,-16,-2,28,0,-27
1520204882630367,12,5,4,75,43,-23,-34,40
1520204882630367,-2,-14,-16,-30,-51,28,6,-31
1520204882651423,-9,2,3,8,29,1,7,12
1520204882651423,11,6,-7,9,24,80,18,67
1520204882652425,-54,-13,7,30,4,-20,2,-74
1520204882652425,21,-2,-14,-1,-18,108,-80,-32
1520204882665460,59,23,7,-29,-14,23,8,6
1520204882665460,-81,-19,4,11,6,7,9,-74
1520204882672478,39,7,-17,-10,-18,-12,21,2
1520204882672478,-26,-20,-3,-6,-18,34,-26,-21
1520204882688521,-6,0,-5,-21,17,-75,-26,-31
1520204882688521,4,3,5,-9,-64,-5,-12,22
1520204882690527,-18,-5,4,36,94,35,-7,-15
1520204882690527,22,13,3,7,5,-2,49,19
1520204882710580,-36,-9,3,-23,-36,12,-1,-52
1520204882710580,64,9,-2,19,8,-8,14,9
1520204882712586,-21,1,-9,-14,-33,-27,11,41
1520204882712586,-8,-13,-2,-5,15,25,25,-6
1520204882724617,-37,-6,0,-16,3,23,16,8
1520204882724617,-21,-7,-3,-3,23,33,-23,11
1520204882733642,57,17,5,11,9,2,16,17
1520204882733642,-23,-3,-8,-14,-15,-23,-3,-16
1520204882748681,-52,-17,-6,-19,-17,-2,-7,-10
1520204882748681,86,23,-1,3,7,12,17,58
1520204882749684,-19,-18,-4,8,-35,-46,-21,-50
1520204882749684,-51,-13,0,8,4,-27,11,2
1520204882770740,57,12,0,-8,8,11,-1,-35
1520204882770740,-22,-3,1,1,3,14,2,-20
1520204882772745,-10,-10,-8,-9,-16,1,-5,-16
1520204882772745,21,5,-5,-15,-34,50,39,59
1520204882784777,-42,-11,11,21,45,-21,-20,-25
1520204882784777,52,14,2,-10,-42,23,19,-19
1520204882793802,-31,1,-5,-2,37,-26,-21,41
1520204882793802,84,23,12,17,20,3,8,4
1520204882808841,9,-11,-21,-28,-29,8,-1,49
1520204882808841,-48,-8,1,-2,-18,-16,-3,-28
1520204882809844,-83,-16,0,12,9,12,-1,-23
1520204882809844,53,5,-4,-7,-6,-18,-4,0
1520204882830900,20,14,9,-1,5,9,-7,-4
1520204882830900,52,5,-1,-4,10,-9,3,35
1520204882832905,35,0,-5,-2,-16,46,13,17
1520204882832905,-111,-26,-8,-13,4,41,0,-12
1520204882844937,-13,-2,2,9,17,-44,2,-23
1520204882844937,-11,3,4,10,35,15,7,-13
1520204882860980,115,16,3,1,-15,2,-1,34
1520204882860980,-48,-7,-1,-2,0,-9,18,6
1520204882869002,-14,-6,-8,-10,-20,7,-17,-20
1520204882869002,-33,-3,0,-1,0,6,-7,-14
1520204882870004,-4,-4,-4,2,-1,-6,12,-10
1520204882870004,-3,7,4,7,5,-17,-15,-13
1520204882891060,57,9,2,-5,-9,0,-4,24
1520204882891060,-36,-20,-9,-9,-3,-19,-3,5
1520204882893066,0,10,8,8,-13,8,13,-1
1520204882893066,-8,-4,0,0,-3,-37,-15,-19
1520204882913119,-25,-7,-3,1,2,10,-10,-52
1520204882913119,77,13,4,7,2,-1,7,7
1520204882915124,-28,-15,-16,-20,-16,-9,1,25
1520204882915124,-65,-6,17,22,11,1,6,-15
1520204882928159,42,13,-3,-6,-18,-2,7,24
1520204882928159,-4,-11,-10,-11,14,6,-9,-14
1520204882935177,-55,-9,3,6,-7,-36,-13,-46
1520204882935177,111,14,-7,-9,-3,-5,9,34
1520204882951220,-25,-10,0,-3,-8,7,3,11
1520204882951220,-43,0,5,6,-6,-14,3,-1
1520204882952223,26,14,-2,-7,-2,2,13,14
1520204882952223,-36,-7,0,0,2,-11,-11,2
1520204882964255,43,3,-1,-2,4,16,9,12
1520204882964255,12,7,8,5,0,2,-6,-1
1520204882976287,-27,-11,-5,-5,-2,2,4,-8
1520204882976287,-2,12,10,9,1,-6,-3,-17
1520204882988319,43,6,-4,1,-1,0,0,14
1520204882988319,-59,-22,-11,-17,-9,-2,7,28
1520204882990324,9,6,8,13,0,1,1,-17
1520204882990324,-17,-4,-6,-7,0,3,0,-3
1520204883011380,-10,12,7,2,4,9,4,-5
1520204883011380,100,24,7,7,0,-5,-1,22
1520204883012383,64,-4,-2,-1,-6,-5,-9,-7
1520204883012383,-78,-29,-14,-10,-4,-3,-4,8
1520204883024415,34,18,10,5,7,6,1,-18
1520204883024415,-29,-9,-9,-8,-7,1,15,5
1520204883033439,-58,-12,2,2,-3,-10,-23,-19
1520204883033439,4,4,7,13,10,3,-1,-25
1520204883048479,87,-15,-22,-12,-11,-8,-6,44
1520204883048479,-128,-77,-7,0,2,1,0,6
1520204883050484,-54,96,23,9,5,4,-11,-33
1520204883050484,110,27,8,-4,-2,-2,2,29
1520204883071540,-128,-36,-3,-1,-4,0,0,36
1520204883071540,119,2,-3,3,-1,-13,-13,-38
1520204883072543,-55,-117,-24,-5,0,5,7,11
1520204883072543,-52,70,4,-5,-3,-3,-11,-17
1520204883084575,85,35,26,13,6,7,3,-8
1520204883084575,10,-70,-20,-7,-6,-7,-14,-5
1520204883093599,37,-9,13,12,5,3,3,-12
1520204883093599,97,26,-4,-2,2,8,3,4
1520204883108639,-94,-52,-19,-16,-13,-11,-4,45
1520204883108639,-63,55,17,9,0,-8,-28,-66
1520204883110644,84,-21,-28,-13,-14,-10,3,24
1520204883110644,-107,26,16,4,5,5,14,-11
1520204883130697,-7,-46,-13,-2,2,3,6,-15
1520204883130697,-16,-92,-8,2,2,6,15,-28
1520204883132703,-21,64,32,12,10,9,0,3
1520204883132703,79,53,6,-4,-10,-11,-7,74
1520204883144735,-110,-55,-33,-14,-1,-1,-7,-27
1520204883144735,-25,81,22,7,1,13,33,32
1520204883153759,-6,-95,-8,7,4,4,5,-43
1520204883153759,-69,-128,-17,-9,-5,-3,6,20
1520204883168799,14,84,7,4,15,21,-5,-26
1520204883168799,-39,-41,-7,-6,-6,-32,-6,-20
1520204883169802,112,111,8,-2,-13,-5,-11,44
1520204883169802,-95,-109,-16,-1,-1,-2,-3,-41
1520204883190858,20,-85,-28,-11,-3,-1,6,16
1520204883190858,-62,26,24,8,9,13,-9,-4
1520204883192863,31,63,14,8,6,1,0,-29
1520204883192863,37,79,-2,-13,-10,-6,-3,14
1520204883204895,26,-90,-14,4,2,2,0,-6
1520204883204895,75,74,18,3,3,0,-15,26
1520204883213919,-90,-62,-8,-10,-6,-9,0,51
1520204883213919,-79,82,22,9,14,18,8,9
1520204883228959,-10,88,34,16,2,-7,4,-98
1520204883228959,118,27,-10,-11,-22,-21,-22,82
1520204883229962,14,-128,-40,-24,-8,7,14,29
1520204883229962,34,41,14,6,5,1,5,-28
1520204883251018,-98,-36,10,9,9,8,2,-4
1520204883251018,-56,44,29,5,2,3,-1,-14
1520204883253023,-68,17,2,6,3,0,2,-26
1520204883253023,44,-99,-14,-6,-2,-1,6,-29
1520204883265055,127,113,20,-2,-8,-18,-21,9
1520204883265055,21,-79,-40,-8,8,21,21,9
1520204883274079,-128,39,47,17,3,-5,10,33
1520204883274079,96,-17,2,9,0,-1,-2,-18
1520204883288116,112,-63,-14,-5,-9,-12,-9,70
1520204883288116,-4,7,-16,-20,-10,-1,3,12
1520204883290122,-8,52,-2,-3,4,4,-3,-20
1520204883290122,-97,-24,1,19,11,0,-15,-67
1520204883311178,-74,71,30,-1,-4,2,14,25
1520204883311178,26,-101,-23,2,3,-1,-3,17
1520204883312180,110,46,23,4,0,-3,-4,-33
1520204883312180,-120,67,19,-7,-13,-13,-14,34
1520204883324212,-66,-35,-23,-4,0,0,3,-6
1520204883324212,-111,60,16,-3,8,13,-2,-17
1520204883333236,-98,18,20,10,21,21,12,-17
1520204883333236,127,-94,-59,-18,-51,-69,-20,18
1520204883348276,45,19,24,9,5,10,16,61
1520204883348276,-89,-73,11,-3,-15,-15,-7,-28
1520204883354292,24,-128,-46,-7,9,17,5,-45
1520204883354292,-90,127,63,7,14,16,-3,18
1520204883371338,65,-91,-50,-17,-14,-14,-4,36
1520204883371338,-55,-30,0,4,7,7,4,-59
1520204883372340,127,47,19,10,2,3,2,51
1520204883372340,-89,-128,-22,-4,0,4,3,-5
1520204883393396,-107,41,18,-4,-5,-8,-18,-47
1520204883393396,127,-18,-18,2,8,11,3,-17
1520204883395402,99,-70,-62,-37,-30,-23,-1,100
1520204883395402,-13,75,31,11,8,13,13,-28
1520204883407434,15,-72,-3,-1,0,4,-6,19
1520204883407434,-54,127,61,22,11,5,10,1
1520204883414452,38,-34,-1,5,-13,-13,4,-31
1520204883414452,-30,-91,-31,-4,10,14,3,-13
1520204883431498,32,44,0,-5,4,8,8,-10
1520204883431498,69,0,-14,4,-1,-7,9,30
1520204883432501,10,40,2,-3,-4,-9,-22,-10
1520204883432501,-13,16,12,5,4,3,-4,-8
1520204883453556,-68,61,24,17,5,-1,-10,-26
1520204883453556,112,-10,-42,-20,-18,-16,-20,48
1520204883455562,-89,-46,3,-9,-3,2,9,-32
1520204883455562,127,-26,-39,-1,4,0,-7,1
1520204883467594,-36,-8,12,-6,-7,-4,5,-3
1520204883467594,11,14,13,7,7,7,16,-34
1520204883474613,-70,40,-6,1,-1,-9,-21,12
1520204883474613,127,61,-11,-13,-15,-9,-7,67
1520204883490655,-66,-56,4,9,8,5,9,-61
1520204883490655,-22,0,-7,-4,-8,-7,-9,-10
1520204883492661,-11,-57,-13,-4,3,5,3,-23
1520204883492661,-33,-12,-7,-3,-1,1,-3,-14
1520204883513716,91,62,12,5,1,-3,-3,-6
1520204883513716,-99,-24,-8,0,-1,0,0,6
1520204883514719,43,-28,-4,1,4,-2,-11,-3
1520204883514719,-62,-106,-10,2,6,3,5,-16
1520204883535775,-5,44,27,2,-3,-3,5,-16
1520204883535775,-73,-51,-19,-11,-5,-4,-2,-1
1520204883537781,-16,-19,-7,-5,12,21,1,-10
1520204883537781,37,50,5,4,-23,-30,2,26
1520204883550815,-12,-19,0,-1,-8,-4,0,-3
1520204883550815,53,-85,-9,-1,1,2,-1,0
1520204883552821,-19,48,18,7,4,-3,-1,-2
1520204883552821,-5,-18,-9,-10,7,17,6,-8
1520204883573876,-19,-15,-17,0,0,-7,-11,-6
1520204883573876,35,20,-8,-6,-6,-1,2,12
1520204883574879,-36,-17,-7,5,-2,-1,-1,-16
1520204883574879,20,9,28,1,7,9,2,-1
1520204883587914,-8,16,-18,-14,-13,-7,-4,-9
1520204883587914,38,-4,-6,-12,-6,0,12,35
1520204883594933,-60,62,6,-1,-5,-8,1,-14
1520204883594933,-16,7,-7,-4,18,18,-2,-10
1520204883610975,10,-51,-19,3,-15,-2,1,4
1520204883610975,-3,48,7,3,16,20,-6,-6
1520204883612981,41,2,3,15,-5,-14,-1,-19
1520204883612981,24,26,-8,-5,-9,-18,-7,38
1520204883634036,30,6,19,-7,10,13,1,-7
1520204883634036,-8,16,10,5,1,14,2,-6
1520204883635040,14,-5,-3,2,-12,-12,6,3
1520204883635040,-35,-24,-4,-2,19,16,-9,-22
1520204883647071,-7,-25,-21,-1,-6,-14,0,7
1520204883647071,-6,9,-3,-1,2,-6,-2,-3
1520204883656095,-10,8,13,5,3,7,-7,7
1520204883656095,-2,-14,-8,-1,-14,-11,2,-16
1520204883671135,19,17,-5,-10,3,13,-3,16
1520204883671135,-5,1,-11,-18,1,10,-6,10
1520204883673141,11,13,-1,-13,-54,-67,-14,-6
1520204883673141,14,-2,6,-2,7,3,1,-8
1520204883693194,9,5,28,-5,-10,-1,2,12
1520204883693194,-17,-5,4,17,44,31,-1,-19
1520204883695200,-6,-3,-4,25,38,15,-3,-1
1520204883695200,19,5,-11,-8,-35,-21,-6,4
1520204883707231,-21,-14,-12,-7,3,5,2,4
1520204883707231,3,0,10,-3,-18,-10,-7,14
1520204883716255,-9,6,-5,-32,-14,18,4,-8
1520204883716255,-26,-12,11,29,30,-20,-13,-5
1520204883731295,20,2,-17,6,34,49,15,13
1520204883731295,-8,-3,-6,25,51,11,-3,-4
1520204883732298,19,10,10,-36,-87,-84,-4,-8
1520204883732298,-17,-9,-3,22,37,44,17,-17
1520204883753354,-17,-14,-7,19,-53,-34,-9,-14
1520204883753354,10,7,7,-6,-28,4,17,-21
1520204883755359,1,1,-1,-2,58,16,-17,35
1520204883755359,-2,0,3,18,-4,-4,-23,-26
1520204883767391,-15,-6,-1,10,42,0,15,26
1520204883767391,15,5,-2,-19,-22,-4,11,2
1520204883776416,-17,1,11,-2,-25,43,25,8
1520204883776416,1,-6,-6,-46,-38,-58,-21,17
1520204883791455,-1,-7,-4,-5,-18,13,-17,3
1520204883791455,-11,1,8,19,42,0,-7,-60
1520204883792458,7,-4,-12,-25,6,32,-13,26
1520204883792458,3,8,13,-8,-48,-17,27,-22
1520204883813514,1,6,4,-18,2,-19,-3,-18
1520204883813514,-5,-3,-7,12,-39,-33,-11,17
1520204883815519,5,12,18,-1,75,28,5,12
1520204883815519,6,-4,-7,1,12,30,8,-1
1520204883827551,-14,-8,-19,-74,-28,-23,0,19
1520204883827551,-2,4,9,68,-13,-10,7,8
1520204883836576,12,-2,-8,16,9,26,14,-45
1520204883836576,-28,-18,-15,-35,-25,-23,-6,24
1520204883850613,17,18,19,-10,-33,-3,-13,-11
1520204883850613,17,-1,-13,-17,52,2,-1,-31
1520204883852618,-9,1,7,42,9,4,14,-5
1520204883852618,6,7,5,-3,-58,0,-9,-7
1520204883873674,-24,-17,-2,28,72,-5,-10,-33
1520204883873674,-2,6,6,-9,-40,-5,-6,36
1520204883874677,-6,-15,-17,-11,-5,-3,-16,-14
1520204883874677,16,19,23,5,41,13,6,-50
1520204883887711,-2,5,3,15,-39,-26,-4,21
1520204883887711,4,0,3,-15,-38,24,-4,21
1520204883896736,-8,-10,-8,-2,28,-41,11,-17
1520204883896736,6,3,-2,22,59,41,4,37
1520204883910773,5,0,-3,15,10,-1,-8,-31
1520204883910773,-10,-1,-2,-13,-5,-7,5,-39
1520204883912778,16,7,-1,-24,-49,25,-1,41
1520204883912778,-29,-22,-17,-11,-18,-27,-15,6
1520204883933834,-23,-11,0,29,99,9,31,0
1520204883933834,2,-5,-2,-4,-36,-26,-7,-31
1520204883934837,20,18,4,-30,-22,-15,3,29
1520204883934837,2,2,7,91,83,52,5,-34
1520204883946869,28,19,17,-19,-42,-15,2,-9
1520204883946869,-26,-13,-9,-4,8,16,9,30
1520204883955892,-16,-10,-11,-11,-38,-31,-9,-23
1520204883955892,23,10,18,-37,-25,35,-2,86
1520204883970933,-13,-17,-19,11,25,38,2,-1
1520204883970933,8,14,1,14,1,-39,-7,12
1520204883974944,1,9,7,0,46,66,4,-40
1520204883974944,0,0,-3,11,11,-18,12,-73
1520204883993994,-14,-7,0,10,0,26,10,5
1520204883993994,8,-4,1,-15,-38,-22,-2,31
1520204883994997,-9,-7,-7,-31,17,52,-9,-54
1520204883994997,9,8,0,30,-4,-29,0,60
1520204884007029,-8,-5,3,13,-9,-10,-24,11
1520204884007029,22,20,20,70,20,25,40,28
1520204884016053,-20,-7,2,18,23,-20,-27,-74
1520204884016053,13,-6,-12,-52,-49,-8,55,38
1520204884031093,1,5,4,25,-55,-7,-21,55
1520204884031093,-3,-9,1,24,57,-39,16,52
1520204884033098,1,1,0,56,31,-68,31,14
1520204884033098,-3,-9,-12,-65,17,16,30,-50
1520204884053151,12,12,11,32,-12,-40,-64,-35
1520204884053151,-27,-18,-23,-62,-32,25,3,10
1520204884055157,9,-10,-14,7,9,22,12,35
1520204884055157,-9,5,3,-21,7,7,-26,26
1520204884067189,-18,-15,-19,-44,-33,-19,8,3
1520204884067189,5,9,14,18,35,54,-60,-83
1520204884076213,16,5,4,12,-13,-13,15,19
1520204884076213,-12,-9,-3,0,-54,6,-36,-34
1520204884091253,3,0,-4,-59,-4,48,35,-39
1520204884091253,12,1,5,0,68,-7,-42,32
1520204884092256,-4,4,5,70,9,18,14,-6
1520204884092256,-14,-11,-13,-60,-65,-14,-9,52
1520204884113312,-4,-3,-3,61,81,108,-14,16
1520204884113312,18,12,13,-36,29,-61,38,-96
1520204884115318,-5,2,3,1,-24,-36,5,42
1520204884115318,7,9,4,-40,9,70,14,-37
1520204884127349,-1,-4,-6,-36,-64,-51,0,46
1520204884127349,-23,-6,0,-8,29,-24,50,36
1520204884136373,9,2,6,27,6,-30,-73,1
1520204884136373,10,4,4,70,73,-37,-41,52
1520204884151413,14,9,2,-34,-9,-12,112,13
1520204884151413,-13,-5,-10,-29,-42,25,-8,-59
1520204884152416,-3,-7,-11,-49,-54,5,-32,78
1520204884152416,-22,-13,-11,1,-11,-48,-6,24
1520204884173471,-4,-5,-7,-11,-33,-54,-59,6
1520204884173471,14,4,8,22,12,-36,-63,-27
1520204884175477,-7,-6,-3,16,5,-41,42,97
1520204884175477,11,5,7,16,3,-6,-13,-19
1520204884187509,3,4,2,21,0,6,-20,-50
1520204884187509,-27,-13,-15,-56,-80,35,-14,64
1520204884196533,-13,-4,-1,-8,43,-3,-33,-89
1520204884196533,-3,-13,-5,19,21,-16,37,-73
1520204884209568,16,16,13,7,15,9,2,-48
1520204884209568,-14,-3,-5,-16,-30,-9,-38,75
1520204884218592,18,-2,-7,-22,-26,21,1,15
1520204884218592,-16,-9,-4,17,11,-53,-26,-17
1520204884233631,-11,-5,-9,-19,-7,53,38,11
1520204884233631,5,-6,-4,7,22,59,-6,-7
1520204884235637,-5,1,3,0,-8,-62,13,-18
1520204884235637,13,3,-3,-11,-8,14,-27,82
1520204884247669,-12,-2,-1,7,2,-32,5,79
1520204884247669,18,2,-3,3,-8,39,27,-24
1520204884256693,4,3,-1,-12,-10,51,-6,62
1520204884256693,-10,13,2,-11,-2,35,35,-36
1520204884270730,11,-4,4,12,23,-36,-25,-28
1520204884270730,-24,-1,-5,3,-14,-9,27,-56
1520204884276746,36,13,6,-9,1,2,-21,-5
1520204884276746,4,-11,-6,2,-14,1,-3,-28
1520204884293791,-45,-13,-9,-2,-3,-16,-1,-78
1520204884293791,13,5,2,2,-3,-13,1,-31
1520204884294794,-36,-7,-4,-6,-5,19,10,-29
1520204884294794,2,3,-1,1,-7,-3,2,-31
1520204884306826,44,17,-2,-11,3,17,19,91
1520204884306826,-11,-12,2,12,8,64,-7,16
1520204884315850,20,9,0,-11,-5,37,7,-15
1520204884315850,-24,-3,0,3,-4,6,0,5
1520204884330890,36,17,5,-2,13,15,23,80
1520204884330890,48,3,-2,-2,-16,-52,-26,2
1520204884336906,-31,-15,-2,0,-3,-9,7,5
1520204884336906,-24,-8,-7,-7,-6,9,1,-4
1520204884353951,-8,-10,-5,2,-7,-9,-13,-47
1520204884353951,7,10,4,-2,-1,-35,8,27
1520204884354954,-11,1,5,6,1,0,-10,-32
1520204884354954,21,-10,-3,8,-2,-17,-10,-51
1520204884376010,-41,-2,-2,-1,5,3,-15,19
1520204884376010,58,-1,-1,-1,-5,-11,14,29
1520204884378016,-31,-20,-5,4,1,0,-1,-40
1520204884378016,-28,6,0,-1,0,2,6,25
1520204884390048,13,-2,-6,0,-23,5,-21,-48
1520204884390048,-15,9,7,7,25,-17,-5,-41
1520204884397066,24,4,-8,-18,-16,-10,-3,25
1520204884397066,26,2,0,-1,-1,10,11,19
1520204884413109,-13,3,8,14,15,12,7,10
1520204884413109,11,5,-6,-16,-19,3,9,55
1520204884415114,-27,-9,4,2,0,-24,-23,-50
1520204884415114,-1,11,7,9,6,12,2,-34
1520204884436170,-2,-6,-4,-6,0,-10,-13,-48
1520204884436170,31,0,-3,2,-8,-7,-4,10
1520204884438176,-35,-6,-3,-1,6,12,16,2
1520204884438176,34,6,4,3,-1,9,-3,7
1520204884450208,-45,-9,-2,-7,-4,-21,-9,-33
1520204884450208,10,-9,0,8,4,6,3,-15
1520204884457226,20,4,3,0,-2,9,3,-14
1520204884457226,-2,0,-6,-13,-2,-2,4,19
1520204884473269,12,6,9,13,16,11,9,2
1520204884473269,-47,-12,0,5,-10,-27,-33,-80
1520204884475274,16,2,-3,3,2,5,8,-6
1520204884475274,12,-1,-4,-5,-1,-7,7,36
1520204884496330,18,10,-2,-9,-5,-4,-2,16
1520204884496330,-6,-8,-4,-7,-7,-9,6,-3
1520204884497333,-5,5,2,4,7,9,10,33
1520204884497333,-33,-19,-2,0,-8,-21,-35,-40
1520204884510368,32,2,-4,1,2,1,-4,-3
1520204884510368,17,3,-5,-9,-10,2,9,21
1520204884517386,-19,2,-3,-13,-20,-12,-6,-6
1520204884517386,-80,-10,6,14,-5,12,1,-25
1520204884533429,84,1,-13,1,49,24,21,52
1520204884533429,-91,-11,7,9,-4,-16,-4,-39
1520204884535434,93,9,2,5,5,9,8,-9
1520204884535434,-21,6,0,-10,-25,0,5,28
1520204884556490,-6,-7,2,-1,-14,-5,-12,-1
1520204884556490,-33,0,6,6,18,25,7,-7
1520204884557493,-30,-3,-7,-6,-19,-11,-3,-23
1520204884557493,43,-3,2,10,16,1,-7,-4
1520204884570528,-56,-8,1,-3,-8,-6,-1,-17
1520204884570528,68,4,-4,-2,0,4,5,35
1520204884577546,24,-4,-1,-3,-6,-6,-3,13
1520204884577546,-22,-13,-8,-5,1,-2,-1,-9
1520204884593589,25,3,6,8,7,-4,-2,-14
1520204884593589,-32,4,-3,-3,-17,-5,-3,-16
1520204884595594,1,3,-6,-3,7,8,6,29
1520204884595594,26,6,2,0,6,2,6,23
1520204884615647,-28,1,4,-4,-20,-15,-3,-25
1520204884615647,84,21,-4,-11,0,8,31,80
1520204884617653,-55,-2,11,10,9,3,-9,-9
1520204884617653,-10,-3,-4,-1,0,-5,-7,-23
1520204884629685,-73,-13,2,6,-4,1,-7,-47
1520204884629685,86,4,-8,-3,-2,0,-2,23
1520204884638709,-22,-8,-13,-18,-5,-7,4,17
1520204884638709,-38,-6,10,4,-3,1,3,-4
1520204884653749,33,2,-5,-4,-1,3,-8,-10
1520204884653749,-10,3,-5,2,6,-1,-1,-17
1520204884654752,-45,1,4,6,1,6,2,-24
1520204884654752,103,5,-16,-14,-12,-13,-10,56
1520204884675808,-71,-29,1,1,2,6,12,-43
1520204884675808,62,34,1,-6,-7,-6,-13,27
1520204884677813,-127,1,13,6,5,11,20,-8
1520204884677813,127,5,-4,7,3,-1,-14,-36
1520204884689845,-12,33,9,-7,-8,-9,-8,51
1520204884689845,-18,-34,-10,-7,-7,-7,-8,-9
1520204884698869,-44,-51,-4,8,5,-1,-16,-35
1520204884698869,-28,38,11,3,1,-2,4,15
1520204884713909,84,-6,-10,-3,-7,-2,12,27
1520204884713909,-127,-47,12,14,6,0,-6,-49
1520204884714912,127,-30,-31,-20,-12,-7,-4,9
1520204884714912,-76,56,21,4,7,8,9,2
1520204884735968,-67,-27,-4,0,4,0,-7,4
1520204884735968,41,72,15,-3,0,5,9,13
1520204884737973,-56,-66,-21,-4,-9,-22,-12,-13
1520204884737973,82,57,14,-3,-6,3,10,18
1520204884750005,-22,-13,-6,-10,-5,11,43,55
1520204884750005,-55,-31,2,11,7,2,-22,-6
1520204884759029,30,32,9,-7,-4,3,13,33
1520204884759029,-57,-94,-18,0,13,9,-17,-62
1520204884774069,0,17,-2,2,-16,-34,-9,-60
1520204884774069,-35,29,1,6,2,12,19,-47
1520204884775072,127,8,-2,-2,-6,-5,-7,0
1520204884775072,45,-8,-15,-12,-6,-1,4,95
1520204884796128,-30,22,4,-12,4,11,12,-46
1520204884796128,-3,22,19,15,4,-7,-16,-54
1520204884798133,-28,21,-19,-15,-9,-5,-5,26
1520204884798133,-43,26,5,8,46,55,17,-15
1520204884810165,-20,-5,17,9,-55,-85,-32,-2
1520204884810165,88,-29,-38,-36,-41,-16,4,114
1520204884819189,-53,-12,-8,0,5,14,12,-2
1520204884819189,23,-60,1,4,12,13,7,-22
1520204884833226,-56,96,21,15,2,-13,-18,-48
1520204884833226,51,12,-18,-21,-15,-9,4,77
1520204884835232,-73,-25,8,5,5,0,3,-30
1520204884835232,3,-59,-31,-12,-10,-3,18,-24
1520204884856288,10,19,11,10,22,22,-48,-39
1520204884856288,-86,-105,-23,-15,-13,-13,7,40
1520204884857291,27,62,25,11,39,47,-7,-42
1520204884857291,-128,-65,-2,-5,-53,-76,-8,-6
1520204884869322,127,-15,-36,-22,-14,6,10,86
1520204884869322,-100,-33,-2,13,30,32,18,-71
1520204884878347,6,-15,17,7,2,-3,7,36
1520204884878347,-43,-42,7,6,-1,0,-5,-75
1520204884893386,127,15,2,8,3,3,-22,88
1520204884893386,-93,-57,-12,-3,60,82,21,41
1520204884895392,22,-7,-2,-1,-43,-42,9,80
1520204884895392,-77,107,45,26,-26,-17,-15,-83
1520204884916448,-2,-46,-24,-18,-2,27,18,61
1520204884916448,4,56,-9,3,-3,-13,-25,-56
1520204884917451,-27,-45,7,-4,17,23,-13,37
1520204884917451,41,67,20,15,20,13,-2,-56
1520204884929482,-11,-37,-13,-2,0,0,15,-33
1520204884929482,-93,-46,-13,-12,-4,-7,-24,23
1520204884938507,127,58,-6,-4,-6,-20,-25,-27
1520204884938507,-39,-4,14,6,-1,-5,1,69
1520204884953546,37,9,-8,-13,2,7,-4,-4
1520204884953546,-2,-48,23,22,7,4,37,0
1520204884955552,37,-47,-26,-7,-2,-6,-21,-88
1520204884955552,42,-59,-8,-1,1,16,17,37
1520204884975606,93,-4,-21,-18,-18,-16,1,88
1520204884975606,-44,-34,16,7,5,3,-2,-58
1520204884977611,-91,79,47,14,-11,-9,-6,-37
1520204884977611,33,-36,-10,6,30,22,3,-33
1520204884989642,23,-21,-40,-23,-9,-8,-2,61
1520204884989642,61,16,-13,-15,-34,-31,-7,-9
1520204884998667,70,50,18,15,37,38,11,10
1520204884998667,8,22,-7,-9,-23,-33,-9,-6
1520204885013707,-50,67,25,13,4,8,11,-49
1520204885013707,45,68,8,-1,-7,-16,-10,-49
1520204885014709,-104,-42,1,15,17,13,0,-74
1520204885014709,92,44,-17,-24,-18,-13,-6,77
1520204885035765,-128,-81,-12,18,47,53,0,3
1520204885035765,38,89,21,14,-5,-14,-6,-3
1520204885037771,30,55,46,19,-18,-10,23,-7
1520204885037771,18,31,-15,-24,-18,4,-11,6
1520204885049803,-29,-26,-4,-2,6,6,3,-48
1520204885049803,-11,-1,-5,-12,26,28,-6,3
1520204885058827,67,42,16,14,7,3,-17,39
1520204885058827,-49,-14,0,-2,-18,-35,-2,-5
1520204885073867,0,13,2,14,9,14,14,-37
1520204885073867,-5,-46,-1,3,7,-5,-10,-16
1520204885074869,2,-2,-44,-26,-27,-18,-5,21
1520204885074869,53,-7,3,-7,6,3,-13,31
1520204885095925,-115,-48,1,14,11,-5,-10,-65
1520204885095925,38,24,13,-10,-25,-19,-5,7
1520204885097931,-30,-38,-7,-11,-8,3,11,-7
1520204885097931,-45,-1,-19,6,32,45,10,-4
1520204885109963,38,41,33,2,-36,-53,-3,-14
1520204885109963,-50,-4,-17,-2,-1,-8,-17,22
1520204885118987,15,-4,-5,-14,-10,-14,-3,12
1520204885118987,-4,-12,3,9,10,15,13,-6
1520204885134027,1,-16,-13,-24,-3,3,-4,-24
1520204885134027,-1,1,5,-1,-10,3,14,-13
1520204885135030,2,-18,-19,-3,11,13,4,38
1520204885135030,9,20,9,-2,-11,-17,-9,-13
1520204885156085,-43,-28,-10,5,8,9,5,-12
1520204885156085,49,-5,-1,1,-15,-19,-2,23
1520204885158091,-33,-1,-8,7,22,49,12,14
1520204885158091,-28,-24,-10,-49,-52,-46,2,1
1520204885170123,42,31,32,35,-6,20,3,8
1520204885170123,-2,-10,-2,39,53,-10,-2,-17
1520204885179147,1,-6,-3,16,25,-12,2,7
1520204885179147,33,14,-11,-1,17,15,-6,-15
1520204885193184,-75,-41,1,2,0,7,-15,25
1520204885193184,12,10,12,1,-19,0,-2,-4
1520204885200203,-14,-1,9,-6,-21,2,-2,8
1520204885200203,-10,3,-2,6,31,27,-1,-4
1520204885216245,40,20,5,-12,-32,-29,-9,3
1520204885216245,-14,-5,-11,-41,-9,5,1,-12
1520204885217249,5,2,-8,15,8,-24,-6,-1
1520204885217249,-23,-12,2,36,41,63,-8,-20
1520204885229281,48,15,7,-30,-27,-67,5,20
1520204885229281,-20,-7,-6,24,-42,9,0,-30
1520204885244320,-12,-12,-9,-19,18,4,-21,-36
1520204885244320,24,29,33,50,3,-14,10,23
1520204885253344,3,-5,-8,-72,-13,47,20,-10
1520204885253344,-17,-8,-18,2,8,-17,-27,-60
1520204885259360,8,-5,-14,-20,-6,16,15,96
1520204885259360,-25,-19,-12,29,45,36,-34,1
1520204885276405,5,4,7,32,11,-68,40,-22
1520204885276405,40,21,14,-38,-25,-9,8,-2
1520204885277408,-43,-23,-15,9,-24,-15,-8,-27
1520204885277408,2,-1,-3,-19,2,-6,-9,-1
1520204885298464,1,3,5,13,16,92,0,-26
1520204885298464,7,-5,-16,-22,-13,-48,-30,90
1520204885300470,18,6,14,31,48,19,51,-34
1520204885300470,-22,-14,-8,-46,-34,-14,11,-3
1520204885312501,31,7,-8,12,31,19,-17,54
1520204885312501,-5,-3,-3,1,-50,-10,-6,-28
1520204885319520,-32,-22,-2,-13,-10,-38,-35,76
1520204885319520,46,10,-11,-14,-20,-43,7,-54
1520204885336565,-28,-13,-2,16,14,23,-27,57
1520204885336565,-14,2,6,3,17,12,-6,-49
1520204885337569,15,18,18,-4,-6,1,-4,-51
1520204885337569,-6,-1,1,-4,-39,-8,7,65
1520204885358624,-19,-9,-7,5,45,-22,22,9
1520204885358624,5,-12,-16,-5,19,54,-33,75
1520204885360630,0,12,9,-7,-32,-71,2,-49
1520204885360630,-55,-33,-10,-1,-18,-1,22,-20
1520204885372661,103,46,1,-2,3,17,3,78
1520204885372661,-29,5,20,18,26,-7,12,-29
1520204885379680,7,8,15,13,14,37,4,108
1520204885379680,26,6,-9,-10,-4,8,10,31
1520204885395723,-41,-22,-15,-6,-16,-5,12,-80
1520204885395723,-13,13,18,12,10,-4,19,82
1520204885397728,34,-5,-19,-21,-29,-22,6,-108
1520204885397728,-13,7,15,10,12,-12,13,-19
1520204885418784,-23,-1,11,6,0,9,-28,-42
1520204885418784,37,12,-10,-2,2,13,64,-42
1520204885419787,-54,-12,-4,-7,6,28,-47,-49
1520204885419787,25,-1,-6,1,-1,-22,10,-21
1520204885432821,18,13,19,7,-9,-39,-41,112
1520204885432821,50,16,21,13,9,21,-2,7
1520204885439840,-17,6,-8,-8,-8,2,35,59
1520204885439840,-16,-56,-37,-17,13,37,-4,83
1520204885455883,-24,34,30,14,-7,-22,-48,-33
1520204885455883,43,5,-3,-2,-4,-29,23,44
1520204885457888,-60,-43,-31,-16,-8,41,-12,86
1520204885457888,100,38,19,4,-3,-5,-43,45
1520204885478944,-84,-38,-14,-6,-7,12,30,-117
1520204885478944,-5,1,1,-3,-4,-35,-76,120
1520204885479947,38,13,-1,5,8,16,55,-89
1520204885479947,-108,-34,-18,-10,-7,2,52,-69
1520204885492981,-37,-11,6,6,4,-10,-3,84
1520204885492981,94,35,2,2,2,10,25,-33
1520204885500000,-104,-41,-18,-16,-20,-29,-58,-43
1520204885500000,101,28,1,1,-5,-16,0,35
1520204885516043,-60,-18,-5,-9,0,16,31,-77
1520204885516043,-72,-21,-5,5,8,18,10,-105
1520204885518048,19,26,20,10,5,-6,-33,-9
1520204885518048,20,16,13,4,0,-10,-28,1
1520204885538101,3,-15,-11,-3,22,58,15,6
1520204885538101,2,11,-3,-2,-29,-42,26,-19
1520204885540107,18,18,20,10,10,-19,2,-36
1520204885540107,-6,16,12,9,2,8,-14,27
1520204885552142,30,-4,-10,-5,-4,-10,-19,-7
1520204885552142,-4,-17,-9,-2,13,28,1,-64
1520204885561163,-18,-3,-5,-9,-10,-11,6,61
1520204885561163,-28,-7,-6,-5,-5,-2,-5,37
1520204885576203,8,-2,-3,0,1,14,30,61
1520204885576203,11,-1,7,5,3,3,5,79
1520204885578208,61,11,-2,3,-7,-4,10,36
1520204885578208,-63,-11,1,0,3,-7,-23,-38
1520204885598262,40,-7,-13,-5,-10,-10,0,-11
1520204885598262,-21,-14,-7,-7,1,8,-10,-11
1520204885600267,13,2,-13,-9,1,4,-10,-31
1520204885600267,26,16,12,1,-10,-17,9,-5
1520204885612299,-2,10,8,5,-7,-11,4,-38
1520204885612299,4,-2,-8,-6,-4,-3,-11,13
1520204885621323,-17,-19,5,7,5,7,2,-31
1520204885621323,-17,-4,-15,2,6,2,-7,-21
1520204885636363,13,14,3,-5,-4,-8,-8,3
1520204885636363,16,-2,-1,2,5,4,-3,2
1520204885637366,-43,-14,-11,-7,-1,-2,3,-9
1520204885637366,-3,-4,-2,0,-5,-4,-2,-14
1520204885659424,23,-23,-17,-1,2,-8,-1,23
1520204885659424,-28,12,15,1,2,8,8,-3
1520204885660427,27,18,11,6,-7,-3,0,1
1520204885660427,-3,6,1,5,23,2,-3,6
1520204885672459,-16,-25,-14,8,-5,-7,-8,-34
1520204885672459,27,40,35,13,4,2,-3,13
1520204885681483,-18,-68,-23,-11,-5,-7,1,1
1520204885681483,11,87,31,7,-8,-4,-8,-8
1520204885696523,-17,-18,-9,7,4,0,6,-19
1520204885696523,-58,-72,-54,-32,-5,-5,-9,-17
1520204885697526,84,69,14,15,-2,-2,-3,23
1520204885697526,1,-41,22,17,4,6,9,0
1520204885718581,-50,26,0,-3,-4,-4,-6,1
1520204885718581,47,25,16,-4,-2,2,3,9
1520204885720587,-65,-48,-28,-8,7,4,-4,-15
1520204885720587,-13,-2,-19,-20,-15,-12,-9,-4
1520204885732619,76,-23,-1,3,-5,0,2,5
1520204885732619,-40,-19,-9,-14,3,-3,-10,-1
1520204885741643,-9,92,36,20,9,12,6,1
1520204885741643,83,-10,-4,-25,-23,-8,-5,29
1520204885755680,-8,49,17,4,1,-5,1,-6
1520204885755680,-46,-67,-18,14,8,4,-4,-30
1520204885757686,46,-1,1,-3,-3,-1,3,-4
1520204885757686,-51,-23,-50,-20,-1,2,-3,0
1520204885778741,3,-32,6,6,10,7,1,2
1520204885778741,15,46,-15,-31,-13,-5,5,-5
1520204885779748,-23,22,13,1,-4,1,2,5
1520204885779748,20,-68,-8,-9,7,22,8,17
1520204885791776,34,46,18,-11,-17,-19,2,3
1520204885791776,13,38,10,22,1,-7,-1,11
1520204885800800,14,-49,-27,-3,8,0,-4,-9
1520204885800800,-48,-9,25,15,6,1,8,-9
1520204885815840,-41,39,-2,15,12,12,-1,-17
1520204885815840,29,-81,-17,-13,34,50,-7,28
1520204885817846,-36,86,53,13,-43,-58,-7,-31
1520204885817846,-5,-50,-25,-11,-9,-11,-1,-6
1520204885838902,28,48,2,-4,-3,1,-8,8
1520204885838902,-67,-63,3,19,36,37,10,-22
1520204885839905,24,-113,-25,-34,-19,-22,-1,18
1520204885839905,-12,93,52,-4,-6,-8,-3,-20
1520204885851936,35,-14,-18,-9,-12,-14,-2,5
1520204885851936,-49,-28,-51,-18,-10,-13,-15,-24
1520204885860960,24,9,48,37,21,37,5,-9
1520204885860960,-36,-58,-45,1,-2,-8,-4,7
1520204885876000,7,5,17,-33,13,29,-4,10
1520204885876000,-59,6,-14,-11,-32,-38,0,-18
1520204885878006,27,-28,-79,-20,-3,-2,-4,12
1520204885878006,92,108,118,27,5,8,5,22
1520204885899062,-97,-128,-83,1,-8,-15,-1,-7
1520204885899062,48,39,50,-19,-2,-9,-23,5
1520204885900065,-78,61,63,16,9,12,11,-4
1520204885900065,-22,-65,-75,-40,-11,-5,-12,-3
1520204885912096,16,-40,4,26,25,30,-7,19
1520204885912096,82,88,74,31,-19,-33,16,-9
1520204885921121,-61,-103,-41,7,-1,-3,11,-25
1520204885921121,1,-11,-21,-3,21,16,-21,-6
1520204885936160,-16,-17,-40,-32,-16,-29,3,4
1520204885936160,59,-29,-4,41,19,25,0,11
1520204885938166,29,12,0,-21,-15,-20,-11,12
1520204885938166,-64,-37,-25,5,18,8,12,-30
1520204885958219,2,-39,-13,-25,-13,-6,-18,-5
1520204885958219,3,122,45,25,13,-4,7,-9
1520204885960225,127,-78,-20,15,4,9,-5,47
1520204885960225,-52,91,86,61,6,7,5,-7
1520204885973260,39,-47,-62,-73,-22,-20,-1,9
1520204885973260,-62,97,83,41,11,10,13,-35
1520204885981281,7,-86,-38,-7,4,8,-3,-20
1520204885981281,6,-60,-38,-17,-7,-15,1,-22
1520204885996320,30,0,27,53,16,11,4,-4
1520204885996320,-21,-29,-14,3,-21,-4,-3,-7
1520204885997323,43,-18,-40,-10,-4,-11,-15,-12
1520204885997323,-38,-100,-46,-26,8,1,2,-3
1520204886019382,19,44,67,48,11,4,3,0
1520204886019382,13,-92,-52,-7,-12,-8,0,37
1520204886020385,-63,-49,-4,-24,23,9,1,-10
1520204886020385,32,88,84,93,-10,-5,2,2
1520204886032416,22,83,31,12,-3,3,7,-16
1520204886032416,-62,-123,-61,-28,-5,-1,-2,16
1520204886041441,2,83,26,1,6,1,-3,4
1520204886041441,2,-37,-71,-65,17,-1,-2,7
1520204886056480,13,65,99,47,-15,1,6,-4
1520204886056480,-5,-16,38,35,1,1,0,1
1520204886057483,-7,0,-30,-22,-6,4,2,-2
1520204886057483,23,-55,-38,-48,6,17,-1,19
1520204886078539,-9,30,12,21,-13,-31,-4,-7
1520204886078539,0,-42,-48,-37,14,28,0,9
1520204886080545,17,60,32,2,-37,-55,-6,-2
1520204886080545,-6,19,1,-1,-15,-22,-4,-12
1520204886092576,-12,-37,-26,-18,4,0,1,10
1520204886092576,29,27,8,-8,6,27,4,14
1520204886101601,-28,-22,-9,-13,5,17,3,12
1520204886101601,9,38,30,34,0,-8,13,-15
1520204886115638,-11,-16,-12,-14,2,3,-6,7
1520204886115638,6,4,-5,-5,-15,-27,5,1
1520204886117644,-1,39,13,0,4,33,14,-40
1520204886117644,-10,-12,-4,1,4,-58,-28,-4
1520204886138699,-21,-22,-9,-12,4,22,-14,21
1520204886138699,22,17,-12,-15,-23,34,23,2
1520204886140705,5,9,9,11,31,-6,-25,-12
1520204886140705,-24,-7,-1,-1,-7,0,19,-76
1520204886152738,11,-10,-4,0,8,14,14,22
1520204886152738,-20,0,-4,-8,-17,-74,-31,-8
1520204886160758,17,11,3,5,-1,49,4,53
1520204886160758,5,7,-1,-7,-28,7,2,-1
1520204886175798,-19,-5,-6,-5,20,12,7,-9
1520204886175798,1,-9,-14,-8,22,87,29,-101
1520204886181814,5,25,21,15,-24,-70,-12,51
1520204886181814,19,13,10,1,6,-17,-17,5
1520204886198860,-7,-13,-9,-7,-8,10,-11,-3
1520204886198860,6,11,3,-3,0,-22,10,38
1520204886199862,-15,-15,-7,-3,-46,23,39,-29
1520204886199862,-32,-10,-6,9,81,14,4,-66
1520204886220918,69,40,21,0,-21,-16,-48,75
1520204886220918,-21,-5,-3,-3,-5,-11,-38,-27
1520204886222924,4,6,2,-3,10,35,52,15
1520204886222924,-13,-6,-4,-1,-38,-14,14,-42
1520204886234955,-3,-4,-5,-8,13,21,16,-48
1520204886234955,-20,-12,-2,6,-3,-29,-23,115
1520204886241974,32,28,4,-10,-7,-38,-18,14
1520204886241974,-17,-3,7,8,-11,6,-10,-50
1520204886259020,-14,-9,-9,-2,17,13,20,-32
1520204886259020,9,16,5,-4,-21,-20,-31,-60
1520204886260022,-40,-24,-6,-2,7,-15,-30,-26
1520204886260022,19,2,-2,1,5,26,8,-6
1520204886281078,7,-6,0,-2,-8,-19,11,48
1520204886281078,50,13,-4,1,5,12,48,27
1520204886283084,-19,5,14,7,39,35,-43,32
1520204886283084,26,15,2,-9,-43,-49,-21,-26
1520204886295115,-27,-13,-11,-6,-13,9,21,-6
1520204886295115,-15,-10,-4,-2,6,-14,7,21
1520204886302134,22,1,2,5,12,8,9,42
1520204886302134,-24,-12,-2,-2,0,33,2,35
1520204886318177,-19,-9,-2,1,-2,-14,5,14
1520204886318177,-39,-1,-9,-11,-2,-10,-23,-16
1520204886320182,30,8,3,8,0,-4,-14,-38
1520204886320182,-10,-9,-7,-2,-3,16,9,18
1520204886341238,17,-9,-13,-7,-7,-14,-22,72
1520204886341238,-25,2,4,0,3,-4,-3,48
1520204886342241,6,-10,-11,-13,-20,-14,-12,34
1520204886342241,-15,-3,8,2,-2,-8,-4,43
1520204886355275,25,3,-11,-3,1,-3,13,-46
1520204886355275,-8,0,-2,-3,0,6,-12,-60
1520204886362294,-16,-12,1,6,3,4,13,12
1520204886362294,-38,-11,-11,-5,0,22,60,6
1520204886378337,32,14,21,14,4,-21,-57,45
1520204886378337,-32,-21,2,6,7,13,23,-47
1520204886380342,11,38,-3,-11,-6,-9,0,-72
1520204886380342,-100,-24,1,-1,0,1,-27,62
1520204886401398,-11,2,-5,0,4,15,37,-61
1520204886401398,77,25,14,6,4,-1,-26,37
1520204886402401,27,-13,-6,7,8,13,29,-10
1520204886402401,-12,13,5,1,-3,-2,-18,100
1520204886415435,47,6,-6,-7,-6,-9,22,-87
1520204886415435,16,-19,-11,-9,-14,-40,-51,-55
1520204886422454,-100,-12,4,3,1,-7,-10,11
1520204886422454,88,13,-9,-12,-8,14,41,31
1520204886438496,-76,-15,8,8,6,-1,-19,-33
1520204886438496,35,20,-9,-5,-6,5,44,-12
1520204886440503,-24,-36,-20,-4,0,12,68,-18
1520204886440503,5,4,9,5,3,-3,-43,30
1520204886460555,-36,2,-1,-9,-8,-7,24,-126
1520204886460555,-27,-15,1,1,2,13,0,97
1520204886467574,-48,-5,1,2,1,-7,-26,19
1520204886467574,91,24,2,3,-2,-3,-12,-78
1520204886474593,-14,-22,-10,-1,1,5,9,79
1520204886474593,-6,7,2,-5,0,8,19,61
1520204886483617,1,10,4,0,-2,-2,-33,-35
1520204886483617,-16,-13,-18,-5,2,9,38,-78
1520204886498657,29,17,11,0,-5,-11,-29,22
1520204886498657,-80,-11,2,5,0,-5,6,-83
1520204886500662,51,5,-7,-10,-5,6,21,-43
1520204886500662,-11,9,14,3,2,-4,-49,65
1520204886520715,54,19,-4,-11,-5,3,19,66
1520204886520715,-42,-24,-4,6,4,8,37,-56
1520204886522722,-19,13,12,9,6,4,0,96
1520204886522722,3,1,0,0,-1,-1,-3,-5
1520204886534753,-48,-26,-2,1,-6,-21,-59,-48
1520204886534753,17,21,9,4,5,1,-26,43
1520204886543777,85,-14,-16,-6,-2,1,11,-11
1520204886543777,23,27,2,5,3,9,32,58
1520204886558817,-56,-2,9,-3,-2,-1,-15,127
1520204886558817,39,-5,-5,-7,-3,4,22,-5
1520204886559820,-7,-7,-5,-5,-2,-10,-39,-108
1520204886559820,-78,-16,4,7,-5,-7,11,-28
1520204886580875,94,9,-23,-13,-9,-8,5,-48
1520204886580875,-68,-28,-17,-17,-18,-28,-62,-69
1520204886582881,-8,5,4,-7,2,9,5,5
1520204886582881,-32,-14,2,5,5,4,3,-30
1520204886594913,6,12,8,5,-2,-14,-60,1
1520204886594913,14,13,12,11,8,3,-13,-3
1520204886603937,-5,-2,-2,0,-3,-9,-27,-21
1520204886603937,69,-4,-10,-12,-9,-13,-12,55
1520204886618977,-100,-25,-15,-9,-4,9,55,-19
1520204886618977,13,-24,-25,-14,-9,-2,23,54
1520204886619979,-17,11,9,-5,-5,-9,-26,29
1520204886619979,-60,-15,-3,4,5,12,32,3
1520204886641036,22,3,-5,-2,-2,5,12,32
1520204886641036,-38,-3,5,4,2,3,-1,3
1520204886643041,23,4,-2,-7,-8,-13,2,9
1520204886643041,9,8,1,-1,-2,-4,-21,-49
1520204886655073,-3,-6,1,1,3,6,4,5
1520204886655073,12,7,4,7,5,4,8,-48
1520204886664097,-35,-10,-5,4,2,3,11,28
1520204886664097,49,7,-2,-2,0,6,-19,-18
1520204886678134,-12,1,7,4,0,-8,5,-8
1520204886678134,16,9,7,1,-1,0,2,-3
1520204886680141,-13,-2,1,2,-3,2,5,6
1520204886680141,63,3,-9,-7,-5,-3,2,35
1520204886701195,-25,-6,1,1,3,10,3,-45
1520204886701195,11,5,-2,-5,-1,10,-11,39
1520204886703201,12,1,0,3,4,-3,6,-11
1520204886703201,-8,1,4,2,-1,-1,4,-8
1520204886715233,-23,-23,-13,11,13,3,-1,7
1520204886715233,41,40,19,-8,-17,-13,-1,13
1520204886723254,-4,-5,0,3,7,16,-1,-14
1520204886723254,-3,-3,10,3,-12,-26,-10,3
1520204886738294,22,17,9,10,4,6,6,0
1520204886738294,-3,-12,-15,1,7,7,8,13
1520204886744310,-30,-23,-16,-13,-9,-7,4,-15
1520204886744310,27,15,2,-4,2,0,-6,17
1520204886761356,-2,-13,-14,-10,2,0,5,-1
1520204886761356,-13,10,12,-9,-15,-8,1,8
1520204886762358,22,2,12,19,8,-2,-4,0
1520204886762358,-27,9,2,6,11,6,-5,-14
1520204886774391,36,49,24,2,-5,-1,1,-10
1520204886774391,23,-21,-19,8,4,-5,-7,4
1520204886783414,-28,-17,-5,-14,1,-3,-5,6
1520204886783414,-9,-2,-9,7,-2,2,0,-4
1520204886798454,-32,-19,-5,-4,19,6,3,-5
1520204886798454,1,5,2,-24,-15,-8,-6,-9
1520204886800460,31,19,13,18,-13,-5,3,14
1520204886800460,-27,-52,-24,-16,-5,-2,-1,-2
1520204886821515,32,77,41,23,-1,-1,-7,-3
1520204886821515,-1,-59,-26,2,16,3,4,-9
1520204886822519,-5,12,-16,-18,-11,-6,-9,-9
1520204886822519,-7,-10,-10,-8,-8,-1,-4,-8
1520204886834550,-14,-40,-21,-5,-7,-3,0,-6
1520204886834550,34,16,15,9,6,-3,-8,4
1520204886843575,-51,-34,-20,-7,12,2,1,5
1520204886843575,-8,5,36,19,0,2,-8,9
1520204886865633,-24,71,6,7,0,3,0,9
1520204886865633,18,-24,-16,-11,1,8,3,-5
1520204886867639,-42,28,52,-2,-7,-6,4,-24
1520204886867639,106,-26,-26,-11,2,-4,-5,50
1520204886880673,-69,-5,4,10,1,5,6,-29
1520204886880673,5,62,11,12,12,9,-4,-3
1520204886882679,10,-20,-38,-16,-13,-16,-3,23
1520204886882679,-71,-92,-14,-8,3,2,-1,-18
1520204886894710,94,58,5,-8,-6,-9,-13,34
1520204886894710,-94,-13,9,2,-1,-7,-14,23
1520204886903734,-21,5,33,18,11,12,4,-24
1520204886903734,11,68,27,5,-2,-4,-17,-3
1520204886918774,76,-17,-23,-11,-9,-3,9,29
1520204886918774,0,20,-11,15,5,3,5,-5
1520204886919777,27,-32,6,-19,-7,-2,-10,12
1520204886919777,-8,29,16,21,18,9,2,-22
1520204886940833,33,0,24,-4,-8,-7,-18,31
1520204886940833,-17,16,-2,1,-4,-5,-2,-18
1520204886942839,-16,-35,-15,5,10,17,4,-40
1520204886942839,67,52,-18,-12,-18,-18,4,53
1520204886954870,-62,-46,-2,-10,-4,-6,14,-25
1520204886954870,49,-25,-9,0,2,8,18,18
1520204886963894,-57,31,8,4,3,-15,-4,-33
1520204886963894,59,72,40,-20,-14,0,-4,2
1520204886978934,-44,-49,-22,2,22,25,2,12
1520204886978934,-14,-50,-4,-4,-22,-11,-7,-41
1520204886979937,-22,3,-7,3,-4,-1,-1,-12
1520204886979937,-23,-21,-24,-3,5,3,4,0
1520204887000993,11,-24,-11,-10,8,18,9,-85
1520204887000993,12,2,4,-8,7,18,-10,106
1520204887002999,23,43,3,4,-18,-35,-4,13
1520204887002999,19,-18,-14,-4,-12,-9,4,-80
1520204887015030,-13,-19,3,6,29,30,-2,23
1520204887015030,-4,30,8,1,-12,-2,2,-4
1520204887024054,43,12,-1,-1,-14,-15,-4,27
1520204887024054,-35,-15,7,2,1,1,-3,-9
1520204887038092,-12,-1,-3,-5,-7,-33,0,-21
1520204887038092,-10,-4,-6,-6,5,65,4,-24
1520204887045110,38,6,5,3,16,23,19,33
1520204887045110,-43,-13,-4,7,-53,-47,4,-7
1520204887061153,-17,-15,-23,-27,91,102,-12,24
1520204887061153,10,6,8,-9,-99,-126,2,-20
1520204887063159,12,-2,10,6,-13,30,-1,-13
1520204887063159,-13,1,-2,45,108,37,22,-11
1520204887075190,-1,-6,-8,-52,-91,5,-11,8
1520204887075190,-16,-11,-4,20,-17,37,-25,4
1520204887084214,-9,-11,-14,1,95,25,3,-3
1520204887084214,-3,3,-2,-6,-67,16,4,21
1520204887098251,23,4,13,-34,-86,-101,-9,-26
1520204887098251,-4,-3,0,65,115,63,18,-22
1520204887105270,31,16,0,-10,-126,-18,3,13
1520204887105270,-27,-17,-14,-7,88,42,-14,32
1520204887121313,-15,-7,2,-35,-65,-11,26,-25
1520204887121313,-3,10,10,16,-59,-12,-3,21
1520204887122316,-12,-19,-17,1,112,-3,-20,12
1520204887122316,15,9,14,39,70,-8,6,-15
1520204887134348,-12,-2,-2,-39,-31,-58,-6,26
1520204887134348,12,2,-5,29,69,-7,9,-28
1520204887143372,9,7,2,-12,-115,18,13,15
1520204887143372,-26,-16,-23,-38,50,45,0,23
1520204887158412,19,6,13,43,-21,-107,-19,-35
1520204887158412,32,14,9,-27,-56,50,15,5
1520204887164428,-19,-12,-12,-21,-26,-28,-24,-5
1520204887164428,-37,-11,-3,-5,-85,-21,-1,-16
1520204887181473,-8,-16,-15,57,7,49,2,43
1520204887181473,18,20,14,-34,24,20,-9,-7
1520204887182476,1,7,4,2,-45,-76,-28,-30
1520204887182476,13,9,12,-24,35,23,23,2
1520204887203532,-19,-14,-14,36,109,81,18,1
1520204887203532,-11,-11,-11,-18,-78,-100,-13,-31
1520204887205537,11,3,6,-27,-100,-16,2,26
1520204887205537,-31,-21,-25,-24,62,55,-17,15
1520204887217569,31,19,15,24,-78,-37,-5,-41
1520204887217569,-39,-15,-8,-35,-8,25,6,44
1520204887224588,44,3,-9,-17,-54,54,-1,6
1520204887224588,-7,2,6,26,-81,-106,-22,-6
1520204887240631,2,9,19,81,113,78,44,20
1520204887240631,1,-2,0,-53,-59,-19,23,-3
1520204887242636,-18,-9,-10,20,10,-4,-32,-15
1520204887242636,14,2,8,-4,63,21,14,-18
1520204887263692,-13,-3,-1,-42,16,-17,-13,18
1520204887263692,2,4,14,41,50,-6,-19,-8
1520204887265697,-34,-17,-20,-86,-19,36,5,2
1520204887265697,5,-1,-2,20,-128,57,-3,-7
1520204887285750,-14,1,-5,37,81,33,2,-17
1520204887285750,34,8,0,-20,80,39,24,-1
1520204887287756,5,3,3,52,-7,48,24,-16
1520204887287756,19,10,9,19,87,48,-15,28
1520204887300790,-16,-6,-4,-107,-128,-65,-14,5
1520204887300790,-8,-12,-8,106,84,55,3,-66
1520204887302796,-1,-4,-10,-71,32,76,14,25
1520204887302796,-4,5,9,35,13,62,-15,-4
1520204887323852,6,5,-3,-58,-128,17,41,29
1520204887323852,-5,-12,-6,74,29,28,-29,16
1520204887324855,4,7,10,-1,122,-49,25,-53
1520204887324855,-2,0,4,-51,-35,48,10,-12
1520204887337889,-17,-19,-36,-102,-88,-64,-92,14
1520204887337889,11,17,29,-2,-39,25,120,-27
1520204887344908,0,-6,-11,4,-31,71,-13,23
1520204887344908,-1,-6,-7,34,-128,-64,2,-21
1520204887360950,7,-3,-6,-18,67,72,72,34
1520204887360950,-12,1,-1,-27,52,12,-13,5
1520204887362957,6,6,15,35,20,-128,-95,15
1520204887362957,18,17,15,51,-14,-92,71,-99
1520204887384012,-38,-28,-32,-57,-55,93,-51,29
1520204887384012,-15,-12,-16,38,-46,53,57,3
1520204887385015,23,16,20,16,119,11,21,2
1520204887385015,-15,-13,-24,-73,-97,-47,-27,56
1520204887397046,25,17,35,91,127,-57,-24,-44
1520204887397046,-40,-23,-34,-90,-96,34,-113,-12
1520204887406070,9,-2,-7,-61,-53,-51,16,-17
1520204887406070,-16,-14,-10,33,95,65,23,-16
1520204887421110,9,2,-8,-40,-69,-33,24,-34
1520204887421110,8,4,12,67,29,-36,-11,11
1520204887423116,-8,-4,-8,-78,-71,54,-32,19
1520204887423116,4,6,22,81,27,49,17,46
1520204887443169,-4,-2,-9,-35,14,23,3,6
1520204887443169,9,3,-1,-72,-52,-40,-17,70
1520204887445177,-27,-12,-5,8,13,-20,-20,22
1520204887445177,10,3,1,-38,-69,-48,48,-12
1520204887457207,-37,-21,-31,-29,51,119,-44,8
1520204887457207,68,46,69,84,90,-69,100,-32
1520204887466231,12,2,-3,-63,-26,18,10,9
1520204887466231,-12,-12,-20,-128,-91,-60,-52,-2
1520204887481270,4,4,7,11,-14,-30,-16,2
1520204887481270,-52,-27,-38,-96,-125,-86,-51,0
1520204887483276,14,5,13,90,88,59,44,-12
1520204887483276,13,5,-1,-57,-32,-8,-19,11
1520204887503329,4,8,15,97,-17,-43,9,-12
1520204887503329,-15,0,0,-29,-1,1,-17,-2
1520204887505335,3,2,5,75,-12,63,35,-10
1520204887505335,-6,-13,-29,-122,-103,-32,-26,56
1520204887518369,9,3,18,110,95,45,-70,-27
1520204887518369,29,19,33,94,51,-25,20,-20
1520204887524385,-4,-1,-5,-54,-30,-38,11,-25
1520204887524385,-30,-6,-1,-30,-10,-6,-7,-30
1520204887541430,-11,-1,-2,-20,-11,-7,2,30
1520204887541430,2,-12,-20,-76,-11,-43,-31,-5
1520204887542434,92,16,0,-9,-7,7,-3,40
1520204887542434,-29,-5,5,57,11,95,-19,25
1520204887563489,-4,8,7,-77,37,-93,31,-19
1520204887563489,-24,-3,0,46,35,1,-14,3
1520204887565495,-13,-3,-4,26,-14,21,-19,-6
1520204887565495,9,3,4,18,42,5,-7,21
1520204887577526,4,3,3,6,-14,23,26,-9
1520204887577526,3,-13,-22,-83,-49,6,-10,6
1520204887584546,-22,-11,-12,8,-3,-24,-1,-8
1520204887584546,30,6,6,29,49,-2,-5,8
1520204887600588,-10,13,24,11,-14,-3,10,0
1520204887600588,-7,7,3,-13,-1,10,-7,-9
1520204887607607,22,-2,-7,30,-1,-49,-11,-7
1520204887607607,-69,-15,-8,3,23,-7,-16,-18
1520204887623649,35,-2,-8,11,-16,-11,17,-14
1520204887623649,2,-19,-14,-19,-13,7,-7,13
1520204887625655,0,24,24,12,-16,80,20,8
1520204887625655,60,39,31,12,40,45,37,13
1520204887637686,-88,-26,-26,-42,-14,46,-7,-5
1520204887637686,72,5,-3,1,37,25,-4,-35
1520204887646711,-26,-17,-21,-27,-7,-37,20,-54
1520204887646711,21,-12,-10,7,3,-22,-14,19
1520204887660748,-56,5,14,3,-17,-2,0,-28
1520204887660748,13,-15,-16,-28,-16,16,-1,22
1520204887662754,33,2,-3,11,0,-18,4,25
1520204887662754,-24,-45,-1,-7,7,-16,7,-22
1520204887683809,-62,35,12,27,10,-15,1,-31
1520204887683809,46,43,24,-9,-16,-3,-7,31
1520204887684812,-106,-26,28,25,-1,-19,2,-24
1520204887684812,25,25,12,11,29,-18,-14,-21
1520204887696844,34,-53,-30,10,-1,9,3,3
1520204887696844,-19,-16,-23,-9,-7,-7,-11,14
1520204887705868,116,11,-25,-20,-14,-20,-2,16
1520204887705868,-79,-16,-9,-8,-6,25,-3,35
1520204887720908,-43,-9,7,12,4,-5,1,-8
1520204887720908,-46,9,7,-10,-5,38,21,2
1520204887722914,71,8,5,7,15,-46,-11,-27
1520204887722914,-58,5,7,8,1,-9,2,-21
1520204887743969,127,38,3,5,-4,-16,-1,45
1520204887743969,-25,-14,-8,-16,-12,11,-4,32
1520204887744972,-128,-47,6,10,17,22,5,-49
1520204887744972,127,29,-11,-2,-11,-29,-14,28
1520204887757004,37,2,8,4,-4,7,6,-1
1520204887757004,-57,-10,5,3,6,-6,-2,-22
1520204887766028,-28,8,-1,3,7,6,0,11
1520204887766028,-79,-3,1,6,8,6,-5,-40
1520204887781068,125,4,-16,-6,-15,-32,-4,50
1520204887781068,-89,-16,-5,-13,-14,-7,8,6
1520204887783074,-65,8,8,4,-1,-5,-3,-5
1520204887783074,-56,-6,0,1,-5,34,9,-9
1520204887804129,-56,-5,12,17,19,-10,-9,-19
1520204887804129,127,47,-7,-4,-7,-10,-12,21
1520204887805132,-82,-34,-12,-12,-11,-6,1,69
1520204887805132,-11,-7,1,3,8,0,10,-45
1520204887817164,-71,-11,1,3,0,3,1,-15
1520204887817164,60,9,-5,-4,-3,-12,-8,26
1520204887826188,79,20,6,6,5,16,2,-19
1520204887826188,10,-5,-9,-12,-7,-23,-2,24
1520204887840226,-98,-13,7,9,11,23,3,-49
1520204887840226,58,14,-12,-11,-23,-32,-4,43
1520204887847244,-53,-8,1,-2,-4,7,3,-8
1520204887847244,23,-7,-4,-3,-6,-13,-1,49
1520204887863287,-105,3,15,12,5,10,14,-114
1520204887863287,36,-9,-22,-17,13,43,4,46
1520204887865292,-26,1,0,2,-19,-28,3,15
1520204887865292,-52,16,14,13,4,-13,-12,-42
1520204887877324,91,6,-1,-5,4,14,18,96
1520204887877324,2,11,12,1,0,-10,-37,-121
1520204887886351,-32,-29,-1,3,13,15,-2,-32
1520204887886351,81,20,-18,-14,10,20,-3,85
1520204887901392,-26,2,7,0,-30,-53,1,29
1520204887901392,32,-13,9,13,7,17,35,-59
1520204887902391,114,39,-4,-4,-2,-6,-22,99
1520204887902391,-57,-26,3,3,18,23,9,-111
1520204887923447,44,37,2,4,-12,-8,15,24
1520204887923447,-7,-40,-16,-12,-10,-15,-39,55
1520204887925452,-67,11,6,3,10,17,25,2
1520204887925452,-27,-48,-2,3,-8,-16,-8,-65
1520204887937484,70,45,-14,-16,3,22,-7,127
1520204887937484,-20,24,16,15,1,-13,15,-44
1520204887946508,-23,-31,-17,-11,-18,-18,-27,-64
1520204887946508,-35,-23,-2,6,5,3,-11,24
1520204887961548,-16,-61,-25,-16,4,15,15,0
1520204887961548,-48,19,23,15,-9,-13,-38,-22
1520204887962551,56,66,14,10,11,10,17,45
1520204887962551,-59,12,-15,-16,-15,-19,13,59
1520204887983607,67,-2,5,5,-1,-6,-30,41
1520204887983607,-106,-22,-1,0,19,31,15,-97
1520204887985612,-90,-48,-1,6,4,-14,6,-2
1520204887985612,127,63,-4,-9,-25,-29,-12,86
1520204887997644,-90,-36,-20,-12,-6,0,-1,4
1520204887997644,-115,-65,-6,-7,16,35,9,74
1520204888006668,106,49,13,6,-5,-9,-32,-5
1520204888006668,-103,2,0,10,6,0,14,39
1520204888020706,44,-4,9,-4,-7,-7,-25,9
1520204888020706,-3,-25,-11,-7,-1,-5,-7,-34
1520204888027724,30,24,-13,-5,2,10,7,-11
1520204888027724,28,6,-5,-10,-15,-19,-9,5
1520204888043767,-7,3,-6,8,16,18,26,-32
1520204888043767,-128,-29,18,9,-3,-15,-31,-10
1520204888045772,92,-48,-10,-1,6,17,11,7
1520204888045772,-11,55,17,4,40,41,-18,-56
1520204888056802,-50,50,21,14,-46,-75,35,-68
1520204888056802,-9,24,3,3,0,-5,-25,-24
1520204888065826,-89,1,-13,-15,-4,4,5,3
1520204888065826,-28,-73,-3,6,18,25,24,20
1520204888080866,-10,42,-17,-19,-2,4,-30,0
1520204888080866,116,50,17,13,3,-6,31,7
1520204888086881,32,-1,-13,-14,10,24,9,4
1520204888086881,-13,52,6,2,-38,-40,11,6
1520204888103927,127,-62,-30,-19,-18,-20,-48,55
1520204888103927,-69,110,17,-2,-6,-2,28,127
1520204888104930,-50,-27,3,3,8,14,14,31
1520204888104930,61,-60,-21,-11,-2,-10,-51,-102
1520204888125986,-91,-22,-6,10,33,43,21,-33
1520204888125986,-25,-53,-5,4,-8,-18,-2,-60
1520204888127991,28,-3,13,-2,22,35,-29,-32
1520204888127991,-20,-6,9,7,-62,-64,17,-2
1520204888140023,55,73,33,21,14,40,-7,-46
1520204888140023,56,-61,-43,-25,12,36,17,-13
1520204888147041,-44,39,24,19,3,-9,-4,-25
1520204888147041,73,11,-10,-5,11,8,-7,52
1520204888164087,-90,-68,-21,-19,-4,-8,-28,-36
1520204888164087,-26,-14,2,2,-12,-22,8,-31
1520204888165090,127,33,2,3,-2,-10,-25,21
1520204888165090,-128,-64,-17,-15,1,8,6,12
1520204888186146,97,13,28,12,6,-3,21,-23
1520204888186146,47,-28,3,8,8,-6,-49,-68
1520204888188151,-90,-19,-19,-17,-24,-23,4,-31
1520204888188151,118,71,1,-6,5,3,-17,-42
1520204888201185,-34,-44,2,3,56,69,9,-6
1520204888201185,-63,-26,-14,-9,-76,-81,18,13
1520204888203191,-43,-28,1,10,-6,-4,-3,-20
1520204888203191,123,56,30,20,12,12,7,-24
1520204888223244,-78,-14,-19,-17,-6,-6,2,34
1520204888223244,24,15,5,4,25,32,11,34
1520204888225250,-34,13,10,1,-6,-5,6,-14
1520204888225250,62,-30,-21,-5,-10,-8,0,-12
1520204888246306,-81,-24,0,11,3,-2,1,22
1520204888246306,59,28,12,-5,14,18,6,15
1520204888252322,-5,-34,-22,-16,-25,-27,-4,21
1520204888252322,-50,-14,25,17,18,20,3,-29
1520204888260343,69,28,4,3,-14,-17,2,5
1520204888260343,-13,12,-4,-2,-4,6,1,27
1520204888267361,-16,-19,-12,-12,13,2,7,-16
1520204888267361,-8,10,1,12,5,2,11,10
1520204888283404,-23,14,1,-3,-17,-24,-14,-7
1520204888283404,3,7,-3,-1,13,16,17,7
1520204888285410,-55,-12,-1,-9,3,14,1,6
1520204888285410,14,2,7,-1,-10,-10,4,5
1520204888306466,62,13,12,10,-15,-22,1,-24
1520204888306466,-21,-23,-16,-3,8,6,-3,43
1520204888307469,74,18,11,15,32,34,0,0
1520204888307469,-109,-56,-28,-18,-23,-15,31,20
1520204888319500,30,25,29,-14,-21,-8,-2,-10
1520204888319500,-7,1,8,14,8,-2,4,11
1520204888328524,21,-1,-22,-23,-32,-2,-4,0
1520204888328524,-6,-2,-3,14,41,3,-16,-1
1520204888343564,29,-2,-5,26,15,-20,-9,0
1520204888343564,-58,-13,-27,-28,-4,42,-2,-10
1520204888345570,63,22,36,69,-16,-19,12,7
1520204888345570,15,-2,-11,-15,-41,-29,0,-13
1520204888366626,-40,-20,-34,-26,63,36,7,2
1520204888366626,31,15,7,8,-8,-59,-14,-3
1520204888367629,-24,-17,-51,-49,-56,0,-7,-7
1520204888367629,11,21,56,54,59,30,-1,-1
1520204888379661,-13,-13,-23,-47,-60,0,-3,-4
1520204888379661,29,-4,20,82,72,11,-4,20
1520204888388685,-6,6,2,-46,-28,8,15,-2
1520204888388685,-35,-18,-17,10,2,-10,-14,-7
1520204888410743,-20,-2,-4,38,48,26,-12,-10
1520204888410743,40,7,1,17,-38,-48,-5,10
1520204888412748,-2,12,4,-20,-14,-30,3,9
1520204888412748,-4,-5,-9,-24,-12,37,0,6
1520204888425783,3,9,8,10,4,-22,4,-13
1520204888425783,2,5,-16,-1,-18,47,0,1
1520204888427789,-26,-35,13,0,-17,-38,-1,10
1520204888427789,6,18,7,-11,53,47,12,14
1520204888439822,-14,-14,-12,-93,-106,-21,-7,7
1520204888439822,8,17,16,40,69,33,-9,-17
1520204888448845,1,16,13,4,9,-2,9,-3
1520204888448845,9,-3,-15,26,-44,-37,-3,-16
1520204888463885,-8,-12,-6,10,23,-5,6,9
1520204888463885,-12,-1,4,-43,-68,3,9,-13
1520204888464887,4,5,4,2,73,5,-17,10
1520204888464887,-3,4,-10,-69,-111,-56,-6,14
1520204888485943,45,10,9,92,99,-13,-7,-8
1520204888485943,-1,3,-8,-29,-44,-24,16,-29
1520204888487949,-18,16,18,44,-3,45,2,10
1520204888487949,-10,-34,-3,-17,5,-33,5,21
1520204888499980,-3,0,-5,-16,-42,5,18,-4
1520204888499980,-36,-19,-8,1,36,41,13,24
1520204888509005,2,2,-1,10,4,2,-23,-44
1520204888509005,-3,13,-9,-45,-35,-19,-24,-54
1520204888524045,6,0,3,16,38,-3,-16,23
1520204888524045,-9,-5,12,34,38,-22,26,-37
1520204888525047,52,23,-12,-18,-64,-58,37,33
1520204888525047,7,7,11,23,46,34,13,-19
1520204888546103,-30,-15,3,-24,-33,14,-24,-5
1520204888546103,-1,-2,-10,-35,2,14,-22,-12
1520204888548109,-35,-15,7,16,13,12,20,-4
1520204888548109,25,6,-4,-12,27,-2,4,27
1520204888560141,10,16,12,-2,-25,92,-9,19
1520204888560141,16,5,-2,-2,11,-78,31,1
1520204888576183,-19,-13,3,-21,-8,-15,-17,-6
1520204888576183,5,10,11,54,50,31,-5,-22
1520204888583202,12,4,1,1,-8,2,28,4
1520204888583202,-4,-6,-21,-55,-39,11,-22,17
1520204888585207,26,6,2,18,42,3,-11,-36
1520204888585207,-30,-12,2,3,-23,24,-2,8
1520204888606263,-2,4,2,10,-12,5,2,8
1520204888606263,-4,-12,-17,-21,-14,7,-34,-13
1520204888607266,-25,-12,-12,6,2,-76,-11,-1
1520204888607266,37,22,25,1,-1,28,-34,-5
1520204888619298,-4,-1,12,-1,-37,-30,-7,-28
1520204888619298,-9,-1,-10,-15,-9,40,-32,43
1520204888628322,0,10,11,-27,-1,50,65,14
1520204888628322,-17,-9,-8,16,12,-81,-21,-21
1520204888643362,30,4,1,-1,-46,-23,-24,42
1520204888643362,42,26,11,-13,-20,-78,34,13
1520204888645368,-12,0,11,20,-7,-15,-12,-55
1520204888645368,34,11,-6,6,32,32,-17,57
1520204888666423,-103,-52,-18,-29,68,3,33,-6
1520204888666423,60,22,-2,19,0,0,12,-4
1520204888667426,-1,-27,-13,28,-34,9,-5,3
1520204888667426,21,34,31,-9,26,-10,-42,-49
1520204888679458,-24,-2,-4,-14,-48,-10,44,-18
1520204888679458,-25,-3,7,6,13,95,3,28
1520204888688482,-5,-6,-16,-14,4,27,-41,7
1520204888688482,-10,-11,-7,-22,-92,-27,19,5
1520204888703522,-10,-23,-50,-35,51,43,-115,-9
1520204888703522,53,30,33,-11,45,-32,113,-71
1520204888705528,1,6,-2,-65,-61,-17,-7,33
1520204888705528,-32,-25,-18,1,-29,-46,-42,20
1520204888726583,32,19,12,15,-27,-59,35,-23
1520204888726583,-23,-10,-3,-36,-11,-16,-32,40
1520204888727586,-9,-8,-7,48,-25,-23,18,-5
1520204888727586,-11,-1,-3,17,66,52,-11,12
1520204888739618,-17,-12,10,13,12,-19,44,-19
1520204888739618,61,23,-2,43,12,57,-24,29
1520204888748642,2,-9,-5,-49,-19,80,22,8
1520204888748642,-36,-13,-5,17,39,-53,2,10
1520204888763682,-3,10,9,13,32,122,-10,-7
1520204888763682,-25,-6,6,23,-10,-97,90,-32
1520204888765688,6,7,2,6,-10,29,-54,21
1520204888765688,-2,-11,-19,-26,14,77,27,-11
1520204888785741,45,23,16,-14,-29,-17,-7,31
1520204888785741,-33,-11,1,-5,-13,42,-32,-24
1520204888787746,-5,-3,-13,-10,45,10,-38,15
1520204888787746,2,3,12,33,-15,54,40,-13
1520204888799778,-1,-7,-16,-61,-36,-59,-16,-15
1520204888799778,-9,-7,-5,2,19,-38,-89,3
1520204888808802,-30,-10,-10,-13,-1,-71,-75,0
1520204888808802,30,8,4,-15,-43,-61,55,-62
1520204888822839,-13,-3,-4,-1,5,22,-15,5
1520204888822839,1,-2,-1,-18,-47,-30,-63,3
1520204888829858,-15,-6,6,84,55,14,84,-28
1520204888829858,3,-4,-8,-51,6,-30,-22,-8
1520204888845901,-3,-3,1,-3,-21,-60,10,11
1520204888845901,-20,-13,1,67,-11,68,33,48
1520204888847906,-29,-3,8,19,95,51,34,-56
1520204888847906,30,17,8,9,-15,37,-41,68
1520204888859938,18,5,-5,-36,-14,61,-16,7
1520204888859938,-35,-17,-5,22,13,-35,29,6
1520204888868962,29,8,-6,-28,2,18,-10,5
1520204888868962,-3,0,0,16,5,5,54,31
1520204888884002,-2,2,6,13,7,-4,-78,-39
1520204888884002,-28,-17,-9,-57,-26,21,-41,-18
1520204888885005,-5,-4,-8,18,0,-45,-46,1
1520204888885005,31,11,7,-10,-12,-72,78,-14
1520204888906061,-1,-3,-2,26,15,11,33,18
1520204888906061,-38,-4,3,-10,-12,25,-9,-20
1520204888908066,61,15,2,3,-2,24,34,50
1520204888908066,-38,-13,-4,-14,-19,-1,-48,-38
1520204888920098,68,28,10,19,16,-6,38,40
1520204888920098,-8,-8,1,4,4,-16,7,-20
1520204888929122,-38,-11,-5,-22,-13,12,-27,3
1520204888929122,4,-8,-10,-2,-6,-2,-65,-62
1520204888943159,-6,0,-2,20,2,-37,10,-10
1520204888943159,26,7,0,-5,14,6,-6,-12
1520204888945165,-5,-1,1,-10,-14,-11,4,3
1520204888945165,-17,2,6,11,1,18,-13,-4
1520204888966221,-5,-9,2,15,-10,-41,8,-22
1520204888966221,9,0,-10,-17,7,68,-8,37
1520204888968226,-28,2,6,1,10,13,8,-31
1520204888968226,44,1,-5,0,-7,-18,22,41
1520204888979257,-18,-4,3,-1,0,1,25,10
1520204888979257,-27,0,4,8,1,13,0,-30
1520204888989282,5,2,-3,-6,-1,16,19,22
1520204888989282,-11,-6,5,10,13,22,-12,-18
1520204889003319,-21,-5,-6,-1,-16,-38,-10,-14
1520204889003319,14,4,-2,-9,-7,-11,9,-1
1520204889009335,26,11,10,9,-3,-34,1,-4
1520204889009335,17,-1,-9,-11,-8,14,-7,14
1520204889026381,2,1,-3,6,5,18,1,-5
1520204889026381,-47,-9,-7,-13,-10,-16,0,14
1520204889027384,-18,0,7,5,0,6,-8,-31
1520204889027384,-48,-12,-11,-10,-13,-3,-7,3
1520204889048439,56,4,3,9,25,14,1,1
1520204889048439,-25,3,3,-2,0,-12,-3,-15
1520204889050445,79,10,-2,0,-6,-17,-5,15
1520204889050445,7,8,-4,-10,-7,9,15,45
1520204889062477,-87,-17,-6,-8,-3,0,8,8
1520204889062477,32,8,11,10,5,3,-4,-18
1520204889069495,62,-1,-6,-2,-4,4,3,13
1520204889069495,-25,-6,-3,-3,0,4,-1,1
1520204889086541,30,5,2,0,-2,5,-1,7
1520204889086541,-32,-1,3,0,-11,3,-9,-21
1520204889087544,-11,-9,-2,-2,6,-4,3,-7
1520204889087544,91,16,0,-1,2,-2,-2,15
