timestamp,emg1,emg2,emg3,emg4,emg5,emg6,emg7,emg8
1520204735078834,-82,-18,5,56,82,-2,24,-74
1520204735078834,45,22,20,-4,-128,26,-18,-15
1520204735080830,-77,-9,-16,-22,-33,5,41,92
1520204735080830,127,38,13,13,2,-9,-80,-67
1520204735092851,-128,-40,4,-31,-57,-35,1,-50
1520204735092851,-33,-19,-26,-17,110,23,4,73
1520204735099870,32,15,10,41,-8,-1,-18,-50
1520204735099870,62,40,21,51,41,62,61,33
1520204735115912,-10,0,0,-23,44,9,-57,6
1520204735115912,-47,-15,-21,-65,-105,-57,-11,-74
1520204735117918,121,16,22,52,66,31,35,-33
1520204735117918,-7,-3,-7,-26,-66,-33,9,19
1520204735138974,52,18,12,46,-7,-7,-6,-6
1520204735138974,35,18,12,-32,-18,-19,-30,16
1520204735139977,-122,-5,15,52,127,44,26,15
1520204735139977,17,-12,0,14,-61,-16,-12,-40
1520204735152008,71,4,-22,-70,-48,25,67,95
1520204735152008,48,13,8,1,-91,-4,1,-30
1520204735162039,127,48,11,30,68,3,48,-26
1520204735162039,-114,-47,-6,0,43,-19,6,37
1520204735176072,-17,-8,-10,-53,-61,12,3,24
1520204735176072,-32,-4,-13,-4,49,7,14,78
1520204735178080,96,22,19,63,28,30,1,-92
1520204735178080,-125,-3,4,10,-7,22,27,48
1520204735199134,83,10,-3,-20,2,-24,17,-2
1520204735199134,-53,-8,7,10,-20,5,23,3
1520204735200136,28,6,-2,-53,-73,-54,-123,6
1520204735200136,52,5,-7,12,29,32,35,-23
1520204735212175,7,-6,-19,-5,18,-24,4,20
1520204735212175,-87,1,23,8,-15,-31,-40,6
1520204735221193,-26,-15,-20,-55,-30,-16,-17,35
1520204735221193,100,37,15,36,17,-24,-19,-11
1520204735236232,-70,-31,-5,-4,-7,-4,27,-50
1520204735236232,-66,-21,-16,21,55,49,38,-75
1520204735238238,6,-14,-12,-92,-49,-98,-43,14
1520204735238238,26,-8,-11,30,36,95,3,101
1520204735259294,-16,18,15,46,56,1,115,-99
1520204735259294,61,3,-19,-9,-26,-25,-59,-24
1520204735260297,19,-29,-2,-18,-15,17,-1,8
1520204735260297,97,22,-2,-32,-47,-22,26,-45
1520204735272328,-70,-16,2,-4,44,-10,-64,-9
1520204735272328,72,26,6,23,-45,-7,10,33
1520204735281352,7,-2,-19,-39,-29,51,21,5
1520204735281352,-74,-15,-2,11,28,-38,-10,-57
1520204735297395,127,58,-3,39,63,64,-22,44
1520204735297395,-79,-80,4,-11,-47,-36,-11,-61
1520204735299401,42,14,2,-8,-29,-4,26,46
1520204735299401,16,-21,-13,-18,7,-5,-36,-49
1520204735318451,33,18,5,17,-19,-74,-22,-40
1520204735318451,45,47,11,-22,20,72,1,39
1520204735320457,-107,-45,-22,18,-83,-27,55,18
1520204735320457,21,9,1,-18,43,-39,-51,5
1520204735332488,70,26,24,37,20,-8,34,-48
1520204735332488,-67,-19,-7,5,6,-8,3,33
1520204735341512,-21,-25,-6,-1,-60,-1,-8,32
1520204735341512,32,3,0,-34,-72,-2,-16,0
1520204735356552,-2,-5,-6,-4,0,-6,-20,11
1520204735356552,127,62,10,18,24,-12,6,-68
1520204735357555,-84,-50,-3,-19,-9,-2,-41,45
1520204735357555,55,1,1,-9,-21,42,4,46
1520204735378611,40,-16,4,19,20,-35,27,-1
1520204735378611,17,6,-14,-35,78,106,-6,17
1520204735380617,44,41,23,51,64,12,48,-112
1520204735380617,-93,-26,-5,-26,-38,-14,27,67
1520204735392648,9,9,3,-30,-57,12,-10,12
1520204735392648,-34,-6,-14,-67,-100,-51,-2,45
1520204735401673,23,-2,4,72,59,-39,-42,-72
1520204735401673,41,1,-3,43,102,71,24,-50
1520204735416712,-86,-24,0,-44,-58,53,-45,36
1520204735416712,52,7,5,25,9,-15,-63,-49
1520204735417716,-2,-3,-13,-15,13,52,0,-23
1520204735417716,117,28,1,9,-58,-55,22,-37
1520204735438771,-120,-47,-5,-10,-4,-30,-31,14
1520204735438771,127,19,6,17,10,-32,3,41
1520204735440777,40,18,8,-13,-29,8,-44,1
1520204735440777,-5,4,-8,-20,-92,-44,-85,20
1520204735452808,40,11,-3,-6,38,-8,39,-22
1520204735452808,-43,-6,1,18,-29,13,4,32
1520204735461833,-12,6,-5,-55,-37,-22,6,76
1520204735461833,-62,-5,15,32,-1,7,30,12
1520204735475870,102,16,-4,-9,2,-8,8,43
1520204735475870,-35,-14,-1,15,14,-33,3,-47
1520204735477876,41,18,3,-8,-1,18,-15,-3
1520204735477876,-24,-21,-8,-6,25,-1,12,20
1520204735498931,31,6,-4,3,-10,25,11,-10
1520204735498931,-82,-7,0,4,-4,-37,-4,-16
1520204735499934,85,12,-2,-20,-3,8,-8,-7
1520204735499934,-128,-13,7,16,32,21,8,-2
1520204735512968,20,-13,-16,-7,8,9,6,27
1520204735512968,17,6,3,9,-10,4,21,13
1520204735520990,23,13,1,0,-1,-10,-6,17
1520204735520990,-34,-14,-4,-18,-80,-14,-7,-23
1520204735536030,22,11,-1,-21,32,74,-69,-11
1520204735536030,33,-1,7,40,34,-20,36,-5
1520204735542046,-61,-11,-2,-2,-11,-8,25,10
1520204735542046,4,-1,-3,-6,-4,-2,11,-17
1520204735559091,-68,0,0,-2,-20,-28,-8,18
1520204735559091,50,-10,-10,-2,-1,60,0,-25
1520204735560094,34,9,-3,-9,12,-66,-50,-8
1520204735560094,3,-5,0,10,7,-10,7,-17
1520204735581150,-114,-23,-1,-11,-23,-36,-21,-29
1520204735581150,-49,-16,-13,-6,20,-11,-4,-4
1520204735583156,61,4,4,5,-12,11,19,0
1520204735583156,14,5,-5,-13,8,5,-4,1
1520204735595187,19,3,3,4,-31,30,5,10
1520204735595187,19,10,10,10,-7,9,3,9
1520204735602206,25,-3,1,8,8,58,32,13
1520204735602206,-49,-14,-12,-10,-7,-18,-3,-42
1520204735619251,27,11,4,9,14,40,28,-9
1520204735619251,53,11,1,-6,-11,8,-1,27
1520204735620254,-108,-14,-1,-5,0,-12,-10,1
1520204735620254,70,9,1,3,4,-5,2,18
1520204735641310,45,11,3,11,-4,25,24,36
1520204735641310,-66,-14,-7,-8,-34,-74,-24,-47
1520204735643316,69,14,9,10,37,76,42,17
1520204735643316,-28,-13,-1,2,-30,-29,-21,-17
1520204735655347,-44,-4,-4,5,26,-35,-10,-53
1520204735655347,48,4,3,-6,-10,3,-5,47
1520204735662366,-52,-14,-4,-5,-24,-54,-51,-56
1520204735662366,71,22,10,28,18,26,45,35
1520204735678409,-46,-13,-6,-13,-22,-24,6,-26
1520204735678409,123,39,14,0,12,34,10,105
1520204735680414,-128,-36,-5,2,-10,-64,-18,-29
1520204735680414,-4,-9,-3,7,32,30,-17,4
1520204735701470,127,28,7,6,-3,-92,6,47
1520204735701470,-96,-23,-6,-2,42,106,-3,-38
1520204735702473,-49,4,-1,-11,-44,-11,30,-5
1520204735702473,61,18,5,-4,3,-3,7,6
1520204735715507,-58,-3,6,9,6,15,5,-21
1520204735715507,38,-5,-8,-9,-13,-35,-13,0
1520204735722526,-35,0,0,0,6,13,-9,2
1520204735722526,-20,-24,-10,-3,10,3,5,15
1520204735738569,35,5,0,-1,14,5,-13,-11
1520204735738569,-85,-12,-1,-2,-6,-2,0,-30
1520204735740574,23,-9,-9,0,5,19,9,6
1520204735740574,74,13,2,-6,-3,-23,14,-64
1520204735761630,-39,-9,-5,-11,-12,17,-4,42
1520204735761630,29,13,11,11,-4,47,5,-14
1520204735762633,68,15,6,7,13,-13,9,69
1520204735762633,-5,-5,-9,-14,-12,9,-6,-28
1520204735775667,2,-4,0,-4,-12,-39,-43,22
1520204735775667,8,-6,-4,-1,7,-43,49,-48
1520204735782686,-10,14,1,-9,-7,-11,-7,15
1520204735782686,-16,-1,5,4,8,15,4,11
1520204735798729,-15,-5,3,3,0,-9,-9,-3
1520204735798729,83,9,-2,-1,-1,-3,4,25
1520204735800734,-89,-4,1,-2,-11,1,-26,-13
1520204735800734,69,9,-1,0,2,-21,-13,22
1520204735821790,-6,-7,-3,-1,2,30,23,20
1520204735821790,-104,-13,-1,-1,-3,-20,-9,-40
1520204735822793,45,-16,-6,1,1,4,-5,-46
1520204735822793,-18,-3,1,7,10,25,15,20
1520204735834825,-73,-12,-8,-5,-7,-4,-21,-72
1520204735834825,-18,-22,-21,-22,-20,-16,-21,16
1520204735843849,44,10,3,9,11,3,23,12
1520204735843849,17,-2,2,-4,-2,-1,-11,15
1520204735858889,44,2,6,11,7,11,3,-7
1520204735858889,102,8,-6,-7,-2,-12,9,2
1520204735860894,22,1,8,5,5,13,-1,40
1520204735860894,-87,0,-2,-1,1,-1,-1,-24
1520204735880947,107,20,-5,1,2,12,24,-46
1520204735880947,-108,-5,5,-2,-2,5,-3,53
1520204735882953,103,14,4,2,-1,-10,2,34
1520204735882953,10,12,-5,-12,-10,-12,-2,-5
1520204735895987,88,14,8,5,5,11,2,45
1520204735895987,-127,-27,-8,-3,-3,-9,-6,-60
1520204735902003,94,10,-3,-6,-5,11,7,0
1520204735902003,24,-2,3,-1,-3,-29,-18,-33
1520204735919049,-45,-3,-6,-17,-56,-56,4,44
1520204735919049,127,42,25,42,98,107,33,57
1520204735920052,3,-21,-6,-61,-57,-93,-7,-33
1520204735920052,65,13,0,42,-8,-86,-66,104
1520204735941107,-62,-1,2,2,13,91,4,-16
1520204735941107,109,-1,-6,-67,-74,-66,41,-86
1520204735943113,46,-3,-1,49,-87,-68,-13,55
1520204735943113,-128,-31,-1,41,84,52,27,-41
1520204735955145,-47,-6,5,-88,-93,-36,7,22
1520204735955145,70,50,34,-8,-90,-66,-46,-16
1520204735962163,33,-4,-24,-42,-83,-49,-15,-75
1520204735962163,-111,-26,2,90,36,81,24,9
1520204735979209,127,-4,1,3,93,95,50,21
1520204735979209,-35,22,10,-79,-71,-76,-50,-42
1520204735980212,-1,-35,-30,-128,76,95,-21,32
1520204735980212,58,33,8,18,-77,89,10,13
1520204736001268,7,-14,8,127,34,-35,-5,-56
1520204736001268,-30,-21,-5,30,84,81,43,-35
1520204736003273,36,13,-12,-61,-115,103,39,73
1520204736003273,102,18,1,-93,-37,-23,-13,0
1520204736015305,-128,-64,-49,-128,-128,3,-97,-17
1520204736015305,57,3,6,72,56,-111,-128,-67
1520204736024329,72,46,39,95,127,57,115,36
1520204736024329,-54,-41,-24,-52,-66,-57,-8,-109
1520204736038366,126,29,14,66,-103,-55,16,44
1520204736038366,-8,-5,0,-10,70,22,-20,41
1520204736040372,-3,-25,-6,-17,-38,62,-35,-7
1520204736040372,127,70,7,7,107,67,6,-48
1520204736061428,-32,-38,-24,-54,41,-47,65,8
1520204736061428,-111,-14,-5,33,18,89,-35,-46
1520204736063433,42,23,8,-22,-59,-61,-22,-27
1520204736063433,-104,-29,-17,-83,-13,-5,10,55
1520204736074462,122,59,18,6,90,4,20,-28
1520204736074462,-111,-64,-31,0,53,107,26,-24
1520204736083486,-50,-16,-4,28,-64,-94,-33,-97
1520204736083486,11,33,27,3,-65,-10,25,-66
1520204736098526,30,14,-8,-4,19,80,7,76
1520204736098526,-52,-77,-23,-37,-69,-36,-3,72
1520204736100532,82,69,32,31,36,5,-71,-46
1520204736100532,25,-34,-21,-23,-80,-26,-19,-16
1520204736121588,-57,-43,-35,-42,-23,-57,-5,-6
1520204736121588,75,79,47,90,10,29,127,-42
1520204736122590,47,-16,-46,-53,25,31,-31,59
1520204736122590,-128,-10,37,18,2,-20,-17,-34
1520204736143646,92,31,14,18,-114,-61,7,-35
1520204736143646,52,4,-13,-13,11,23,-73,114
1520204736145652,-128,-71,-19,17,74,-55,13,-69
1520204736145652,1,23,-7,-4,7,11,51,127
1520204736158686,-43,-21,-1,1,15,32,-53,-99
1520204736158686,56,38,6,-14,-83,-23,-15,-18
1520204736160692,-79,-49,-10,36,96,77,9,-74
1520204736160692,75,0,-6,-56,-58,-98,-31,34
1520204736181748,-127,-15,5,28,40,45,-64,101
1520204736181748,7,3,-10,-37,-36,-12,30,-50
1520204736182751,18,38,41,56,-31,-7,-7,-22
1520204736182751,-20,-19,-9,0,5,-12,-7,-29
1520204736194789,-62,-51,-16,-29,24,20,-21,-128
1520204736194789,82,39,8,-1,-80,-53,37,111
1520204736203807,-98,-3,17,-20,31,45,53,20
1520204736203807,24,-9,19,56,8,-18,-55,-56
1520204736218846,-73,-12,-5,-9,-24,-21,7,-98
1520204736218846,72,-5,-10,9,-33,-34,-79,-21
1520204736224862,11,-42,-43,-38,72,69,67,-56
1520204736224862,-26,26,38,58,-21,-29,62,-24
1520204736240906,7,-6,-11,-46,-47,-80,-70,54
1520204736240906,-39,0,15,-24,75,94,80,-20
1520204736242911,31,30,20,61,-44,14,25,-40
1520204736242911,127,3,-24,-45,78,45,-68,82
1520204736254942,-71,-16,25,2,-89,-52,-13,61
1520204736254942,97,27,-24,-33,-16,-17,1,48
1520204736263967,2,-29,8,-19,-92,-24,-5,38
1520204736263967,-117,-84,-35,9,21,15,0,-21
1520204736279007,87,28,4,3,8,22,33,-18
1520204736279007,1,-29,-21,-21,-19,-68,-57,-14
1520204736280009,-65,-10,-3,-47,-1,28,5,-63
1520204736280009,10,22,16,9,-27,-37,-74,26
1520204736301065,65,-19,-9,20,14,31,-7,23
1520204736301065,-128,-13,15,17,96,50,83,-35
1520204736303071,34,44,11,50,-49,-46,-80,-3
1520204736303071,-35,-34,-22,21,73,37,-2,69
1520204736315102,93,44,13,25,65,57,83,57
1520204736315102,38,19,7,-98,-128,-72,-90,66
1520204736324126,-100,-66,-9,59,92,40,24,-33
1520204736324126,110,48,10,89,63,26,60,-16
1520204736339166,58,-5,-6,9,-12,-28,-18,86
1520204736339166,-70,-27,-18,-51,-100,-19,58,35
1520204736340169,120,15,4,-29,26,6,31,-13
1520204736340169,-18,34,-1,-49,-52,-80,3,41
1520204736361225,8,-25,-1,53,24,13,40,-10
1520204736361225,52,25,-2,-83,-65,0,-8,-25
1520204736363231,-110,-26,-13,54,-51,-52,-1,62
1520204736363231,51,-5,9,25,49,-18,-74,32
1520204736375262,39,37,-1,1,127,44,5,9
1520204736375262,36,2,18,28,-62,-21,-65,-26
1520204736384287,-31,-13,-18,-81,-29,-3,3,-9
1520204736384287,-65,-40,-17,-19,-70,10,23,-56
1520204736398324,-43,11,-7,-38,-21,-24,-9,-51
1520204736398324,-49,-15,2,79,127,36,-104,27
1520204736400329,56,56,27,8,-101,-55,-14,-58
1520204736400329,65,-14,-35,-128,-65,36,-44,-58
1520204736421385,-121,5,2,-52,-32,12,-69,23
1520204736421385,90,26,15,87,8,-58,115,-8
1520204736423391,82,31,-2,-42,9,-4,-128,-9
1520204736423391,-42,-96,-41,-25,0,-14,97,-92
1520204736435422,43,13,-21,-75,-81,5,-12,71
1520204736435422,38,9,5,26,27,15,71,29
1520204736444447,-21,1,-1,-22,6,-4,-8,-21
1520204736444447,55,11,12,88,99,121,9,-50
1520204736458484,33,48,18,47,-68,-64,66,55
1520204736458484,-117,-87,-31,-54,-30,0,-41,-38
1520204736464499,-51,-12,-7,-67,-47,-19,20,-4
1520204736464499,32,34,17,80,3,40,-58,62
1520204736481545,23,3,11,-50,35,8,-1,-81
1520204736481545,-22,2,-4,47,13,30,54,-1
1520204736482548,11,19,18,70,125,44,68,-37
1520204736482548,-85,0,1,-58,-97,-32,-47,29
1520204736494580,-12,14,12,19,-12,11,-44,84
1520204736494580,5,-45,-18,-25,-16,6,3,-128
1520204736503604,12,-20,-14,26,24,28,18,-16
1520204736503604,22,29,7,-9,8,-6,24,-21
1520204736517641,87,10,11,28,40,8,26,-84
1520204736517641,-78,2,-3,-72,-42,-23,-46,71
1520204736524660,-100,-14,14,102,71,21,5,120
1520204736524660,63,3,8,-67,-10,7,23,-17
1520204736541705,-62,-37,-4,16,37,14,-52,-21
1520204736541705,117,15,0,4,-2,60,-74,-27
1520204736542708,-36,28,-3,-51,-71,12,-51,70
1520204736542708,-5,13,9,-23,-12,-4,77,6
1520204736563764,64,13,3,68,8,-49,26,-21
1520204736563764,-66,-7,-3,-28,-21,43,-22,27
1520204736565769,96,17,7,-21,1,-52,98,56
1520204736565769,-31,-36,-9,66,-18,7,-66,-63
1520204736577801,-2,19,5,-20,-41,-37,-8,22
1520204736577801,9,26,3,4,17,13,-4,39
1520204736584820,9,-19,-6,-24,-61,-67,-92,-18
1520204736584820,-56,7,3,-53,-17,-55,55,-41
1520204736600863,-51,-12,-14,-7,-3,75,53,25
1520204736600863,56,-20,-1,68,84,29,117,-79
1520204736602868,19,7,-3,-21,1,2,-14,-65
1520204736602868,104,18,-4,-17,-34,22,32,73
1520204736623924,-114,-28,5,-2,28,33,-80,-122
1520204736623924,31,-5,-6,-10,-5,-20,13,-29
1520204736625929,-31,26,3,-6,6,14,-20,3
1520204736625929,-18,-36,-17,-32,-50,29,-13,5
1520204736637961,102,32,3,-94,-57,-22,10,-11
1520204736637961,43,14,27,72,86,9,7,-12
1520204736644980,-41,-30,-3,-29,-30,-20,-19,-78
1520204736644980,127,50,4,-28,-16,-8,-44,105
1520204736661023,-128,-38,0,-32,-19,-9,11,33
1520204736661023,83,32,-2,-16,-15,29,-10,-55
1520204736663028,20,-28,-11,12,5,27,25,29
1520204736663028,66,23,12,-4,2,-1,28,-29
1520204736684084,44,-19,-8,37,37,89,38,-41
1520204736684084,-56,17,-10,-30,-56,-57,-8,110
1520204736685087,26,15,17,39,70,31,-15,-34
1520204736685087,-23,-13,-9,-13,3,-40,10,24
1520204736698121,15,10,1,26,-2,-18,4,-44
1520204736698121,-54,-25,-5,-4,-18,-18,-26,8
1520204736705140,4,8,-10,-31,-11,-42,-14,-8
1520204736705140,-47,-4,2,3,45,-43,18,81
1520204736721182,45,-9,3,22,49,19,-29,-25
1520204736721182,-39,4,0,-13,14,-4,-49,12
1520204736723188,-68,-26,-14,-2,-54,18,15,5
1520204736723188,12,6,4,6,22,48,14,40
1520204736744244,22,22,11,-11,-15,-42,-8,-30
1520204736744244,6,-18,-4,28,-1,-27,-19,17
1520204736745247,103,25,1,-13,-28,33,33,31
1520204736745247,41,-1,1,17,11,67,2,-32
1520204736758281,-92,-26,-16,-58,-54,74,9,-63
1520204736758281,122,7,6,43,-13,-49,20,36
1520204736765300,-68,-24,-5,3,0,-4,-18,-9
1520204736765300,-47,-3,1,-15,-11,-13,23,-54
1520204736781343,33,6,3,12,10,-26,-26,-4
1520204736781343,5,6,-1,-18,3,41,11,-29
1520204736783348,36,-2,-5,-16,-70,-16,-11,28
1520204736783348,38,12,4,21,35,39,44,-58
1520204736803401,-120,-40,-6,25,-5,50,7,33
1520204736803401,63,14,-1,-5,15,8,12,-4
1520204736805407,-44,-1,-6,-24,-15,48,-41,76
1520204736805407,-38,-2,-2,-30,-45,-3,-33,-45
1520204736817439,127,16,5,37,27,54,33,29
1520204736817439,-64,-10,3,-9,-6,10,-2,-51
1520204736826463,6,-7,-9,-3,60,56,21,50
1520204736826463,43,11,7,2,-44,-36,-24,11
1520204736841503,-83,-9,-12,-3,-6,-58,-19,-88
1520204736841503,-32,-19,-7,-10,8,33,-2,46
1520204736843508,90,37,17,12,12,13,15,15
1520204736843508,-128,-35,-8,-1,-47,15,-22,-10
1520204736863561,50,12,5,5,11,-64,25,-19
1520204736863561,36,2,-6,-16,-3,25,12,9
1520204736865567,-14,-4,-1,2,-7,-54,-10,-52
1520204736865567,-58,-9,-8,-6,-5,-10,15,27
1520204736877599,127,33,14,16,-8,-46,-15,33
1520204736877599,-128,-36,-6,-9,-12,-6,-28,-12
1520204736886623,103,11,2,8,8,3,19,35
1520204736886623,-43,-8,-1,-4,0,-17,-34,-93
1520204736901663,-48,-8,-7,-2,-24,-18,2,48
1520204736901663,56,20,16,3,-3,8,1,0
1520204736902666,41,2,8,28,64,-31,4,-17
1520204736902666,-31,-7,1,6,20,19,-37,-29
1520204736923721,97,12,0,1,9,4,-1,58
1520204736923721,-7,-4,-4,-14,-30,-28,-7,-66
1520204736925727,-6,5,0,-1,-17,13,17,-21
1520204736925727,69,4,-4,-3,2,-19,-17,56
1520204736937759,-3,7,2,2,5,2,1,2
1520204736937759,-27,2,1,-2,-6,-14,-17,-38
1520204736946783,43,10,-1,-3,-5,19,18,10
1520204736946783,-46,8,-1,3,21,22,17,-45
1520204736960820,48,-4,0,-2,-5,-14,-1,56
1520204736960820,-57,-36,-12,-7,-1,-15,-8,-28
1520204736962826,-42,-9,1,-7,-9,-19,-13,18
1520204736962826,52,12,6,1,-5,5,10,0
1520204736983881,90,11,-3,-3,-2,-8,0,29
1520204736983881,-43,-7,-5,-3,12,7,2,-41
1520204736985887,9,-6,-3,2,-8,-7,-10,-18
1520204736985887,-47,-14,-13,-9,-17,-25,2,-29
1520204736997919,28,24,16,3,-68,-48,26,9
1520204736997919,-16,-18,-18,-10,24,75,-20,101
1520204737006943,-17,-3,-7,15,79,-61,-42,-35
1520204737006943,-14,1,10,-3,-44,-48,10,35
1520204737020980,56,-3,-1,6,-2,-2,-4,-24
1520204737020980,-87,10,-4,-4,-27,25,19,-21
1520204737022986,-69,-22,-12,-19,-59,-18,-24,-5
1520204737022986,64,7,3,-3,-33,-9,-11,2
1520204737044041,-54,-10,-5,11,93,10,-17,-38
1520204737044041,7,-4,6,-1,-19,-17,10,20
1520204737045044,83,30,9,11,13,52,28,-21
1520204737045044,-63,-13,-1,-6,-22,-39,-20,-2
1520204737057076,49,-4,-9,-17,-31,16,6,59
1520204737057076,-15,2,5,4,14,-18,-2,-32
1520204737066100,1,-6,1,-1,-21,-9,8,-8
1520204737066100,78,15,5,5,18,12,2,-9
1520204737081140,-49,1,-8,-8,-41,-8,14,21
1520204737081140,4,-31,-5,8,92,29,-32,3
1520204737083146,41,5,12,-4,-51,-19,11,-28
1520204737083146,53,24,-7,-5,-18,37,20,71
1520204737104202,-57,-25,-8,0,54,7,17,-81
1520204737104202,26,-8,-16,-33,-118,26,14,68
1520204737105205,-38,2,12,35,35,-47,-20,-9
1520204737105205,75,8,-1,39,127,28,3,-11
1520204737117236,-81,-3,6,5,-37,-15,1,-34
1520204737117236,-64,-24,-18,-46,-89,-121,-52,-4
1520204737126261,127,11,3,16,49,126,84,-4
1520204737126261,-123,-16,-1,-21,-33,-1,-42,42
1520204737141300,85,9,-4,32,-28,-73,-7,-88
1520204737141300,127,25,3,-30,-29,-73,11,79
1520204737143306,-128,-51,-26,-23,-17,62,-58,7
1520204737143306,127,1,-3,11,-8,-86,24,-33
1520204737163359,-2,-2,-4,-7,5,29,-8,42
1520204737163359,113,51,23,30,19,12,38,-37
1520204737171381,-24,8,19,-26,-50,-55,-67,43
1520204737171381,47,-2,-17,-35,-15,30,18,-8
1520204737177396,-27,-45,-13,44,82,109,38,-22
1520204737177396,29,11,10,21,78,-9,29,-103
1520204737186420,-109,45,24,-20,-45,-17,-30,104
1520204737186420,35,5,11,12,-46,47,50,-81
1520204737201460,49,6,1,-36,-28,-74,-103,-19
1520204737201460,-25,-14,-8,51,27,18,57,-108
1520204737202463,76,-4,-8,-4,-65,-14,34,-35
1520204737202463,-91,-7,1,-27,-26,-46,-38,24
1520204737223519,34,-3,-4,-30,-73,-20,-56,27
1520204737223519,-68,-8,-6,21,49,37,89,-11
1520204737225524,108,18,-12,-22,-33,-17,-9,48
1520204737225524,77,21,9,10,-4,-50,0,29
1520204737237556,22,18,7,-9,-19,79,1,-105
1520204737237556,-80,-39,-8,-17,-20,10,-34,108
1520204737246581,80,14,4,27,38,-9,10,-28
1520204737246581,70,5,-17,-11,-4,-20,-15,-40
1520204737261620,-109,-28,-9,-21,68,3,-7,77
1520204737261620,20,24,25,27,-8,11,-35,-17
1520204737262623,-38,-40,-34,-19,-41,-39,-9,48
1520204737262623,-52,-13,9,12,-15,15,-57,-71
1520204737283679,-36,8,-7,-11,-23,-15,23,37
1520204737283679,101,3,-4,-34,-19,101,59,19
1520204737285684,42,1,27,59,9,-51,-29,-16
1520204737285684,-70,-25,-26,-22,23,18,-34,-17
1520204737297716,-15,51,33,23,51,44,39,16
1520204737297716,-19,-42,-12,10,-51,-26,-50,-50
1520204737306740,9,-2,5,49,80,29,-31,28
1520204737306740,29,2,-1,-30,-26,19,77,37
1520204737321780,-6,-5,2,-3,-24,10,33,7
1520204737321780,61,26,17,-14,-83,-43,-90,-35
1520204737322783,47,71,2,-26,0,-18,-32,21
1520204737322783,97,-1,2,25,91,60,80,-68
1520204737343839,-48,-78,-65,-77,-47,-2,-35,0
1520204737343839,47,21,16,13,-27,-40,-10,89
1520204737345844,57,11,-6,-46,70,14,-9,12
1520204737345844,-13,-9,-5,4,-62,-10,-13,45
1520204737357876,-52,14,-15,16,47,10,41,-15
1520204737357876,22,24,6,58,47,17,27,76
1520204737366900,-16,-13,12,-30,-80,4,5,-81
1520204737366900,48,-37,-32,-12,61,16,8,-54
1520204737380938,-52,-60,32,-7,-128,-35,-17,95
1520204737380938,124,4,-14,11,12,-10,13,-56
1520204737387956,-65,-53,-70,-89,11,-9,18,-76
1520204737387956,55,42,58,78,62,2,28,-4
1520204737403999,11,18,-5,-61,-89,-24,-53,-94
1520204737403999,-38,-5,-11,16,97,-10,29,18
1520204737405002,-12,-5,-11,20,49,49,19,62
1520204737405002,14,36,47,36,-36,0,-42,-30
1520204737417034,-4,-10,-2,24,-19,11,45,49
1520204737417034,22,29,1,-25,21,-35,-52,58
1520204737432073,-49,-36,-7,-12,-88,-31,64,-88
1520204737432073,17,-5,-6,30,-1,1,-20,21
1520204737441098,-25,5,-12,-6,24,-4,5,12
1520204737441098,-7,-11,9,-3,-45,15,4,-92
1520204737447114,37,16,13,30,69,25,15,-12
1520204737447114,-65,-29,-47,-121,-33,-24,-24,89
1520204737464159,77,25,46,116,66,-3,41,-53
1520204737464159,3,-10,-23,-37,-51,13,31,-4
1520204737465162,-40,-13,0,-48,35,-14,-55,-17
1520204737465162,51,19,-4,63,30,37,40,-23
1520204737486217,-21,6,20,-2,45,10,-6,-55
1520204737486217,-41,-4,-6,-9,-49,-19,-31,28
1520204737488223,13,12,12,5,-22,2,21,-7
1520204737488223,-28,-16,-21,-44,-15,-14,-18,4
1520204737500255,90,22,4,0,-16,-17,-7,27
1520204737500255,-33,-5,9,2,-37,37,22,3
1520204737507274,-39,-18,-22,-27,55,18,29,-16
1520204737507274,47,58,52,87,-47,5,-7,-60
1520204737523316,4,18,4,-42,-32,-47,-2,55
1520204737523316,68,-20,-15,12,88,17,23,-82
1520204737525322,-23,1,12,31,-98,-30,-23,-36
1520204737525322,-64,9,9,8,127,30,-40,29
1520204737546378,-41,-41,-15,-35,-53,-44,14,4
1520204737546378,4,25,16,3,-14,-13,-22,-50
1520204737548383,84,-2,-14,1,-69,-5,-14,32
1520204737548383,-66,-8,7,41,-48,20,-17,-22
1520204737560415,35,16,-9,-91,-79,-32,45,-98
1520204737560415,-98,-1,25,90,120,79,-14,77
1520204737567434,38,10,23,54,-77,-9,28,-66
1520204737567434,-59,-47,-50,-105,-112,-96,-40,21
1520204737583476,109,59,35,127,127,46,57,53
1520204737583476,25,7,-3,-76,-110,-42,19,-22
1520204737585482,-79,-32,-11,-64,-1,56,123,-49
1520204737585482,24,-2,11,35,32,60,-1,74
1520204737606538,15,1,-8,15,24,17,-76,16
1520204737606538,100,19,10,-17,26,-31,20,-70
1520204737607541,-70,-10,7,23,36,-3,-85,-8
1520204737607541,-14,-30,-32,-77,-34,-18,-32,-39
1520204737620575,-3,7,1,37,-15,-15,-17,-9
1520204737620575,24,8,4,7,58,29,-7,25
1520204737627594,-11,-6,-2,-3,22,-3,-3,-25
1520204737627594,-16,-22,-25,-108,-77,-59,-7,1
1520204737643636,32,5,1,12,-38,33,22,-63
1520204737643636,-87,-34,-13,43,30,-29,-33,97
1520204737645642,14,13,-6,-59,27,7,21,-15
1520204737645642,49,24,26,77,61,-6,17,78
1520204737666698,-62,-13,-7,-128,-83,-19,-73,-8
1520204737666698,31,7,3,80,54,-25,-21,-53
1520204737667700,-16,-9,-7,-6,-2,23,28,26
1520204737667700,27,-2,7,20,37,28,37,-14
1520204737680735,-61,-11,-21,-105,-73,-27,-35,34
1520204737680735,12,16,18,45,46,-15,-47,-66
1520204737687754,65,16,6,33,-22,-35,-31,104
1520204737687754,-103,-22,-6,-74,-105,54,27,-69
1520204737702794,8,-11,1,94,119,22,34,70
1520204737702794,70,28,-15,-75,-71,5,37,-103
1520204737711818,-81,-43,9,28,-3,9,8,-10
1520204737711818,84,11,4,-17,-22,-10,10,0
1520204737726858,-5,-12,-14,-39,-24,2,-17,-7
1520204737726858,28,5,5,-31,8,32,17,1
1520204737728863,-38,6,4,36,57,-38,-9,-16
1520204737728863,-32,-3,-3,3,-2,-19,-10,0
1520204737740895,-24,-16,-4,37,56,-10,-1,-40
1520204737740895,68,25,-5,-60,-109,-51,-20,92
1520204737747914,13,1,1,-19,-49,13,31,15
1520204737747914,-78,-7,8,40,65,-3,4,29
1520204737763956,19,13,6,25,11,30,-6,-72
1520204737763956,22,-10,-14,-56,-63,-24,-18,104
1520204737764959,3,-2,2,5,10,10,-28,13
1520204737764959,18,12,2,-4,-43,-30,7,-50
1520204737786015,32,-2,4,50,97,65,-37,-6
1520204737786015,-57,-21,-11,-6,-16,-21,-4,30
1520204737788021,32,14,1,-5,-23,18,-18,-42
1520204737788021,19,6,2,16,49,20,1,68
1520204737801055,61,19,9,6,-31,3,-14,-7
1520204737801055,-28,-34,-19,-15,16,27,14,-124
1520204737807071,-50,-13,-4,14,14,4,-10,16
1520204737807071,99,12,2,-15,-16,-3,6,9
1520204737824116,-104,-4,-2,1,-1,-11,19,40
1520204737824116,-42,-7,-2,7,5,17,11,57
1520204737825119,55,18,1,-21,-29,-26,0,-10
1520204737825119,23,-11,-5,14,14,36,-12,-34
1520204737846175,-63,-31,-6,4,-3,-15,24,9
1520204737846175,61,26,4,-19,-18,-13,-9,5
1520204737848181,-57,-1,-1,-7,-12,-35,-27,16
1520204737848181,-16,-17,-7,-3,-1,-23,-11,3
1520204737860213,45,14,3,4,4,-4,7,-13
1520204737860213,-16,-4,-4,-10,-11,25,15,-55
1520204737869237,26,-14,-5,6,1,11,11,27
1520204737869237,-4,-1,-5,8,1,16,3,10
1520204737884276,7,-1,-6,-18,3,-60,-16,1
1520204737884276,-51,4,7,-1,-14,18,-32,-3
1520204737885279,69,11,4,8,40,1,-4,-2
1520204737885279,-19,-7,-1,-1,-2,-15,12,-26
1520204737906335,13,-4,-6,-1,-7,15,-9,-13
1520204737906335,21,-6,-1,1,5,-5,13,9
1520204737908341,26,16,-2,1,-5,31,-3,36
1520204737908341,-73,-2,4,-12,-20,-34,-45,3
1520204737920373,17,-2,-5,4,18,-25,24,1
1520204737920373,-32,-13,-1,5,29,-1,-11,2
1520204737929397,31,1,-2,-3,-17,-6,0,-17
1520204737929397,-59,0,0,0,7,-5,2,-4
1520204737944437,35,2,-1,2,-15,13,-1,1
1520204737944437,12,0,4,-5,-10,-12,-8,-6
1520204737946442,-33,-10,-5,0,-5,-11,-1,-39
1520204737946442,-5,1,5,10,19,20,9,-11
1520204737966495,-35,-4,2,-4,-18,-7,28,-14
1520204737966495,-25,-10,-4,-2,19,8,4,-44
1520204737967499,68,11,-1,6,3,16,10,0
1520204737967499,-31,2,3,-7,-12,-16,-14,44
1520204737979530,-10,-5,-3,0,-8,11,5,-35
1520204737979530,-1,-5,-5,-5,-9,4,8,-2
1520204737988554,-51,0,6,3,-17,18,-1,31
1520204737988554,64,6,-4,-2,23,-25,20,-10
1520204738003594,56,-4,-4,-4,-8,-17,-19,-2
1520204738003594,-20,3,4,3,-7,-13,-1,-3
1520204738005599,40,4,-7,-7,-1,5,14,23
1520204738005599,-20,-7,2,7,-4,28,3,-11
1520204738026655,-21,-7,-8,0,-7,55,2,9
1520204738026655,95,9,3,0,3,0,21,-4
1520204738027658,-79,1,4,3,7,-18,3,-41
1520204738027658,-34,-9,-8,-13,-8,-3,2,7
1520204738039690,67,7,3,2,2,-5,-8,4
1520204738039690,-4,-6,-1,-2,-19,17,1,22
1520204738048714,44,-3,-5,-1,-2,-6,-9,-42
1520204738048714,16,2,-3,0,-10,-19,-2,-16
1520204738063754,-50,-7,-2,-11,-13,-98,-36,-2
1520204738063754,-2,-7,-3,2,4,26,11,-12
1520204738065760,-12,-1,4,-1,1,5,-23,-18
1520204738065760,24,4,-3,-5,-40,-77,-16,-23
1520204738085812,-29,-14,-5,21,79,75,30,-33
1520204738085812,8,1,-4,-2,-17,-84,-6,-9
1520204738087819,-1,9,3,-12,-12,-5,9,-3
1520204738087819,4,-10,-19,-37,-36,14,-44,17
1520204738099850,46,7,13,30,48,48,2,-45
1520204738099850,-27,3,3,-8,-48,38,19,-2
1520204738108874,10,-5,5,26,36,-46,-2,3
1520204738108874,45,12,4,-4,-21,37,17,-19
1520204738122911,-13,7,-1,-22,-24,9,6,28
1520204738122911,-15,6,12,13,8,-2,-25,2
1520204738131936,-14,-7,-5,-7,-15,3,-6,-1
1520204738131936,41,8,10,23,33,21,16,-4
1520204738145973,21,9,1,-4,-14,-24,-1,34
1520204738145973,-80,-22,-7,-1,13,-9,3,-3
1520204738147979,-4,-1,-5,-11,-23,-19,-3,11
1520204738147979,2,0,6,17,26,3,14,-3
1520204738160010,23,6,-1,-4,-19,4,8,-2
1520204738160010,14,3,-14,-22,-7,-40,-13,33
1520204738169034,20,0,14,15,-12,-14,-1,-49
1520204738169034,-55,-7,-10,-10,-10,-23,-41,17
1520204738184074,27,3,-8,-27,-63,-28,0,19
1520204738184074,23,12,10,16,3,17,-5,-34
1520204738185077,-16,-10,-9,-10,-22,-9,-8,45
1520204738185077,22,7,0,4,20,34,26,-20
1520204738206133,-9,-2,7,4,-27,-8,-4,8
1520204738206133,-26,-8,-9,-10,-2,-9,-12,-1
1520204738214154,26,9,-1,-5,11,9,14,48
1520204738214154,-6,-4,1,-1,-26,-27,-10,-37
1520204738220170,-43,-9,-8,-1,17,25,-10,1
1520204738220170,11,-2,2,3,11,14,14,22
1520204738229194,38,14,8,8,4,1,-5,-31
1520204738229194,-40,-11,-5,1,15,18,12,-30
1520204738244234,13,3,4,-3,0,-17,11,65
1520204738244234,-48,-10,2,4,15,35,-28,-18
1520204738245237,15,-2,-8,-8,-14,-30,9,-15
1520204738245237,35,2,-1,0,4,-21,11,8
1520204738266293,-24,-2,4,18,10,2,-14,-28
1520204738266293,3,-8,-10,-18,-21,-8,6,21
1520204738268298,9,2,-1,-1,7,63,12,24
1520204738268298,-18,1,0,1,-1,-6,19,2
1520204738280330,17,7,-5,-12,-13,-24,-27,-9
1520204738280330,-7,0,0,-3,-11,-38,-6,17
1520204738289354,-8,-5,-6,1,4,25,3,-40
1520204738289354,39,5,7,14,20,15,6,6
1520204738303391,-46,-8,-11,-15,-22,-11,-1,16
1520204738303391,0,1,4,9,3,-1,5,-13
1520204738305397,20,1,-5,-4,14,12,15,44
1520204738305397,11,-6,3,9,-9,12,3,-8
1520204738326453,-34,-3,3,5,7,5,-2,-42
1520204738326453,-10,-4,-11,-8,3,14,21,66
1520204738327456,4,3,2,0,-2,-5,8,2
1520204738327456,25,9,13,10,0,16,-18,-10
1520204738340490,23,3,1,4,15,15,13,7
1520204738340490,-31,-7,4,6,-4,2,7,-29
1520204738348511,-7,1,4,8,6,6,6,22
1520204738348511,-6,3,-2,-9,-9,-23,0,10
1520204738363551,31,-3,-8,-10,-8,7,-6,-21
1520204738363551,8,5,5,5,10,-3,-16,1
1520204738369567,-31,-6,-6,-7,-7,5,5,-8
1520204738369567,32,4,-1,-1,2,1,0,1
1520204738386613,-15,8,11,10,3,-1,-3,15
1520204738386613,40,3,-7,-5,-3,0,7,-29
1520204738387615,-14,-1,-1,-8,-8,-17,-10,16
1520204738387615,-51,-7,-1,3,7,0,-11,27
1520204738399648,33,13,5,-4,-1,-1,3,1
1520204738399648,-43,-6,1,0,-2,6,5,5
1520204738408671,89,8,7,11,6,-7,-6,-92
1520204738408671,-92,-19,-13,-13,-7,-5,-7,37
1520204738422709,-56,-31,-13,-12,-11,-3,-1,-29
1520204738422709,17,8,7,7,5,0,-18,-29
1520204738429728,31,11,3,3,5,4,9,3
1520204738429728,113,12,-5,-3,3,9,36,-21
1520204738446773,-99,-23,-5,-1,-4,-12,-30,15
1520204738446773,21,16,8,-2,1,4,5,19
1520204738447776,-69,-24,0,3,-2,-10,-19,-69
1520204738447776,25,-1,4,9,8,7,-1,27
1520204738468831,48,14,2,5,6,8,15,-25
1520204738468831,11,-11,-15,-11,-7,-4,2,22
1520204738470837,-24,-11,0,-6,-5,-5,-22,33
1520204738470837,-89,-13,1,0,-3,-4,-11,-10
1520204738482869,71,18,11,7,6,6,21,-7
1520204738482869,-98,-19,-9,-6,-6,-8,-16,-60
1520204738489888,101,6,-1,2,4,4,12,17
1520204738489888,-92,-19,-9,-13,-8,-6,-5,-3
1520204738505930,18,12,4,2,0,-1,-3,13
1520204738505930,87,-8,-1,2,4,5,7,-21
1520204738507936,-14,33,0,-6,-13,-16,-21,34
1520204738507936,-16,-8,9,6,5,2,3,-16
1520204738528991,-58,-52,-20,-9,-4,0,7,0
1520204738528991,28,88,23,8,6,2,6,-17
1520204738529995,6,-18,-5,-2,-2,-6,-6,-14
1520204738529995,65,16,-1,1,-1,0,-3,10
1520204738543029,26,2,-6,-4,-3,-5,-1,53
1520204738543029,-33,-45,-7,-4,-1,0,-2,-3
1520204738550048,-58,-2,-6,-5,-3,1,7,32
1520204738550048,-6,-5,1,-2,1,0,5,-15
1520204738566090,46,29,9,5,2,4,-4,-17
1520204738566090,79,7,-6,-3,2,7,12,2
1520204738568096,22,4,14,14,3,4,3,-5
1520204738568096,14,-27,-18,-11,-5,-3,0,23
1520204738589151,-72,-17,0,-6,-3,-2,3,-31
1520204738589151,0,51,8,4,1,-2,-16,49
1520204738590154,-61,-27,-4,-5,-2,3,10,-12
1520204738590154,127,21,3,11,7,4,1,-22
1520204738603189,-108,-16,-12,-9,-7,-4,10,-16
1520204738603189,100,-33,-9,0,2,5,12,14
1520204738610208,-126,-56,-10,-8,-1,-7,-15,-51
1520204738610208,42,63,15,0,-3,-6,-9,27
1520204738626250,77,0,2,6,4,11,16,-7
1520204738626250,-53,-35,-4,-2,-5,-7,-9,-29
1520204738628256,-13,14,1,0,0,1,0,31
1520204738628256,-7,2,-1,-2,0,2,1,7
1520204738649311,44,-11,-14,-2,2,2,5,-38
1520204738649311,-81,-41,-3,-7,-5,-12,-21,31
1520204738650315,82,42,9,4,3,2,28,38
1520204738650315,26,13,12,1,-24,2,-4,-8
1520204738663349,34,15,2,3,14,-7,-26,16
1520204738663349,20,4,4,15,39,24,16,-80
1520204738670368,-85,-42,-16,-15,-16,-26,-36,-22
1520204738670368,15,-15,-15,-8,-2,-4,9,-6
1520204738686410,58,-16,-9,-11,-32,8,36,-39
1520204738686410,85,34,10,4,0,-16,-12,69
1520204738688416,58,5,-4,-4,-77,-5,2,18
1520204738688416,24,1,2,-6,62,14,-16,1
1520204738708469,-35,3,14,13,73,-12,-31,35
1520204738708469,-3,-18,-16,-9,-11,10,46,-59
1520204738710474,-28,13,-9,-16,-13,-13,-5,14
1520204738710474,81,-11,-3,6,-31,8,35,-55
1520204738722506,62,36,26,14,-17,4,-7,127
1520204738722506,-50,-8,-8,-15,-45,-11,-35,-53
1520204738731531,37,-9,-11,-5,34,-36,-42,38
1520204738731531,-128,-52,-29,-16,8,85,13,-105
1520204738746570,-59,-46,-9,6,13,-31,8,-52
1520204738746570,79,98,49,16,-7,13,8,121
1520204738747573,-84,-11,1,-18,-32,-26,38,-128
1520204738747573,38,34,14,13,-15,8,-16,90
1520204738768629,-57,-24,-30,2,-29,-25,-32,51
1520204738768629,61,-30,-7,11,102,8,-21,-26
1520204738774645,-44,-19,-3,-11,-15,-51,-22,-26
1520204738774645,-110,-14,-2,-12,-3,61,28,-12
1520204738782666,89,31,7,-20,-50,-34,9,-11
1520204738782666,-1,-65,-41,-7,-49,-25,34,-8
1520204738791691,67,75,51,6,38,4,2,-11
1520204738791691,-67,-6,3,-34,-65,38,-65,72
1520204738806730,16,-7,-8,54,65,-20,18,-64
1520204738806730,20,30,24,22,-23,-72,29,-1
1520204738807735,62,-35,-37,-13,22,49,-44,51
1520204738807735,74,1,5,5,-7,26,20,-14
1520204738828789,32,-25,-15,-26,-14,104,30,-17
1520204738828789,29,25,29,-9,10,-60,-78,57
1520204738830794,-14,-21,-20,6,-24,-10,46,-88
1520204738830794,8,38,34,10,-16,-101,-28,-47
1520204738842826,-15,-1,-2,-5,10,79,7,-32
1520204738842826,-27,-14,-20,10,55,8,20,-49
1520204738851851,5,-4,1,12,2,45,60,7
1520204738851851,-40,-4,-10,-6,26,-76,-27,105
1520204738865888,27,20,18,7,-15,-37,-9,-98
1520204738865888,42,36,21,-10,-41,26,-20,35
1520204738867893,-69,-29,4,10,-25,73,7,-45
1520204738867893,-25,-56,-32,3,77,-45,-16,-23
1520204738888949,-54,27,0,-12,-45,-24,28,-97
1520204738888949,53,-2,14,23,66,31,-6,26
1520204738889952,40,28,8,3,-2,-42,-62,110
1520204738889952,-40,-37,-13,-1,-28,-23,31,-98
1520204738901984,-45,-1,3,-12,-17,-12,-29,52
1520204738901984,54,6,-3,-12,-18,62,40,-46
1520204738911008,57,10,11,31,40,22,6,-84
1520204738911008,-59,-62,-58,-41,22,-13,-13,15
1520204738926048,68,40,54,42,-19,-37,-25,49
1520204738926048,-50,-24,-44,-19,-6,26,28,-11
1520204738928053,72,15,32,31,8,5,15,-32
1520204738928053,-62,52,23,44,-16,36,15,43
1520204738949109,-44,-51,-47,-29,-12,-23,-34,-34
1520204738949109,-118,-28,-14,-62,-12,-17,-31,-28
1520204738950112,43,-37,-18,-8,8,8,37,29
1520204738950112,27,16,9,4,-10,0,-5,10
1520204738962144,-10,-2,-21,-55,59,12,-5,-9
1520204738962144,-30,39,67,91,-16,52,42,32
1520204738971168,-56,-23,-30,-27,-11,-27,-12,14
1520204738971168,127,27,-4,10,-13,-17,17,-31
1520204738986208,67,-25,14,-14,-32,3,-43,86
1520204738986208,-59,-39,-81,-96,-35,-55,-8,-70
1520204738988213,-27,27,28,44,21,26,-8,38
1520204738988213,-14,16,4,-16,-6,-13,-2,-35
1520204739009269,65,49,14,-44,-11,-10,1,72
1520204739009269,76,47,24,76,-24,9,-10,24
1520204739010272,56,-7,-14,-9,15,0,17,-10
1520204739010272,-11,-9,-6,-52,-5,5,-6,46
1520204739022304,28,23,6,57,80,41,58,-84
1520204739022304,-36,-14,-13,-19,-36,-15,-39,96
1520204739031328,-89,7,10,-20,-52,-15,-15,-36
1520204739031328,55,-27,-19,-1,14,-2,13,44
1520204739045365,79,-24,-15,4,22,26,24,-53
1520204739045365,-101,-24,-13,-48,-50,-44,-39,65
1520204739054389,-24,-24,-13,51,26,14,6,16
1520204739054389,-60,-10,-24,-69,-1,-14,-7,31
1520204739068426,28,30,63,93,-30,9,3,86
1520204739068426,113,-61,-26,-8,32,-6,-12,-104
1520204739070432,-7,-26,-50,-109,2,-9,-16,21
1520204739070432,22,70,69,110,-53,-25,-13,4
1520204739082464,-52,-31,-41,-72,37,0,7,-14
1520204739082464,-110,-39,-28,-64,-19,-9,20,-39
1520204739091488,120,76,71,78,-4,7,-76,37
1520204739091488,-44,-50,-13,-27,-34,-14,78,-35
1520204739106528,-48,-25,-61,-99,61,2,-16,92
1520204739106528,53,39,54,113,-7,21,17,-75
1520204739107531,3,-26,-51,-99,-7,-13,-1,-64
1520204739107531,-39,2,-16,-55,48,23,-10,48
1520204739128586,7,44,51,76,-62,-18,-41,-11
1520204739128586,43,-13,-37,-65,88,21,49,-16
1520204739130592,61,-11,26,107,66,15,35,-2
1520204739130592,4,-2,-20,-65,10,7,9,-27
1520204739142624,35,-8,-4,21,43,-4,-5,-96
1520204739142624,26,8,33,40,-45,-1,-19,-6
1520204739151648,-76,18,-12,-27,-20,-1,-2,19
1520204739151648,54,22,42,115,96,-2,1,36
1520204739166688,7,-21,-19,-72,-77,7,20,-23
1520204739166688,-7,6,12,37,37,3,-2,-55
1520204739167691,-78,-11,20,-44,-104,-42,-21,31
1520204739167691,62,-10,-23,-19,-63,2,-55,-40
1520204739188746,40,10,-2,-37,19,15,75,37
1520204739188746,78,33,47,66,-83,-23,-14,-10
1520204739190752,20,-2,-7,-28,107,37,17,-17
1520204739190752,27,2,-9,-65,-3,-3,1,-43
1520204739202784,-51,-9,4,-30,-104,-33,-45,21
1520204739202784,-74,-20,-30,35,97,-1,-15,20
1520204739211808,52,13,-11,-63,-49,-5,-7,-51
1520204739211808,-22,-6,0,14,45,-12,-15,-21
1520204739225845,50,15,0,50,96,54,42,-39
1520204739225845,-95,-17,-15,-72,-119,-33,-28,102
1520204739233867,45,23,18,92,98,13,-14,-1
1520204739233867,33,-13,-20,-31,-95,-9,38,13
1520204739248906,-31,-3,3,29,45,23,-5,-61
1520204739248906,-17,-8,-11,-82,-7,9,-8,35
1520204739250912,27,9,3,40,-43,-17,-5,43
1520204739250912,54,9,15,66,86,28,7,-72
1520204739262944,69,-7,2,87,-64,-24,7,-31
1520204739262944,-22,14,8,-46,-32,21,16,42
1520204739276982,-63,-19,-22,-35,36,-12,-59,0
1520204739276982,85,26,18,43,1,20,57,5
1520204739286005,-128,-12,-22,-51,-22,-26,-24,-41
1520204739286005,21,-14,-29,-91,-30,-22,45,-92
1520204739292021,-7,0,9,52,32,47,21,-7
1520204739292021,8,7,7,89,91,-20,-29,-15
1520204739309066,38,17,-5,-24,55,20,17,-79
1520204739309066,0,-29,-13,-36,-76,-25,-34,85
1520204739310070,9,6,7,-19,46,-11,29,-69
1520204739310070,4,10,18,-45,-74,-2,-41,8
1520204739331125,9,0,1,46,-40,-1,33,11
1520204739331125,-66,-22,-9,-39,52,11,-6,37
1520204739333131,33,-19,-3,28,-9,-3,20,-48
1520204739333131,-17,-18,-20,-43,5,16,6,-17
1520204739346165,38,23,35,-7,0,-17,-27,-5
1520204739346165,32,6,-3,1,-27,2,-10,35
1520204739352181,19,17,9,37,66,22,29,-26
1520204739352181,-37,-6,-3,-35,-49,-8,-8,-63
1520204739369227,-77,-13,-19,-30,18,8,-8,46
1520204739369227,66,32,35,61,-18,9,-15,-72
1520204739370229,6,-35,-39,-67,-78,-23,4,68
1520204739370229,24,19,35,102,62,-5,-26,-36
1520204739391285,-73,-5,-12,-46,-82,20,47,127
1520204739391285,-44,-6,8,59,127,22,-11,-27
1520204739393291,73,26,9,-37,-78,-7,-7,-6
1520204739393291,-95,-8,-3,-93,-121,-34,-7,-2
1520204739405323,-68,-30,-7,2,77,-9,-70,19
1520204739405323,78,27,9,99,49,-33,-55,-8
1520204739412341,21,11,5,4,-30,-20,15,31
1520204739412341,-5,2,-1,-89,-37,0,-6,-54
1520204739428384,32,11,9,42,0,-16,7,-49
1520204739428384,-11,-18,-25,-50,27,-4,-46,-95
1520204739430390,-15,-7,-17,-15,-31,-44,61,10
1520204739430390,73,-13,-24,-74,-36,13,-100,55
1520204739451445,35,17,33,35,-3,-65,103,-72
1520204739451445,12,5,-2,-50,-36,33,32,30
1520204739453451,-8,-13,-17,93,18,119,-61,-42
1520204739453451,0,-7,-5,-31,-36,-23,53,-8
1520204739465483,48,-9,-17,17,-15,-75,-83,62
1520204739465483,5,-11,-4,-67,-8,58,-53,8
1520204739472501,87,36,31,5,-13,-69,41,6
1520204739472501,-76,-13,-13,-11,69,42,-40,127
1520204739488544,-16,-12,-16,-91,-100,-17,-30,39
1520204739488544,39,31,37,66,77,58,78,-83
1520204739490550,21,-26,-29,-73,-16,4,-14,96
1520204739490550,-49,-18,-3,-55,-79,-34,-31,68
1520204739511605,56,-3,-15,-50,-71,-54,75,-37
1520204739511605,-29,4,9,80,48,12,-3,-46
1520204739512608,-42,-30,-36,-128,-122,-58,-1,32
1520204739512608,19,39,66,127,127,75,92,-83
1520204739525643,-14,3,-1,-128,-46,-27,-33,-6
1520204739525643,-53,-17,-16,17,-77,-22,19,-26
1520204739532661,-24,-3,0,-13,76,15,30,23
1520204739532661,0,-11,-22,-5,0,-6,46,-5
1520204739548704,-9,6,15,0,78,116,-42,-52
1520204739548704,-10,-3,-15,-101,-62,-59,13,-38
1520204739550710,-34,9,24,46,0,42,-31,-81
1520204739550710,-1,5,-5,16,-30,-47,-23,-50
1520204739571765,-47,-23,-14,76,-11,-7,44,58
1520204739571765,25,14,21,76,62,58,40,-82
1520204739572769,8,20,8,-128,-105,18,-81,53
1520204739572769,13,13,7,32,-47,29,-51,38
1520204739585803,20,12,18,71,77,23,59,-75
1520204739585803,-33,-9,-10,-72,-5,-14,37,8
1520204739592821,-17,-14,-6,12,40,-11,10,62
1520204739592821,32,7,11,-75,-41,-28,-25,-112
1520204739608864,-32,-5,-12,-65,-47,-29,-44,-17
1520204739608864,-2,-12,-12,46,-34,-12,-5,30
1520204739610870,33,17,9,42,19,-26,32,-98
1520204739610870,6,11,21,75,45,-6,22,87
1520204739630923,-27,-16,-17,-64,-96,32,-73,53
1520204739630923,64,24,22,-41,16,-12,-56,-4
1520204739632929,-22,0,1,-82,-34,-10,28,-71
1520204739632929,-15,-26,-34,-73,-75,-72,-29,95
1520204739644960,26,18,29,62,70,18,8,-62
1520204739644960,-3,4,2,49,7,0,20,-88
1520204739653984,-14,-5,0,47,46,-4,-44,81
1520204739653984,-10,-3,-11,-55,-86,30,-4,10
1520204739668021,79,13,8,66,25,60,-58,-51
1520204739668021,-33,-22,-25,-111,-75,-46,21,52
1520204739676043,-25,1,16,113,-5,-35,9,-102
1520204739676043,29,4,-2,-18,48,-15,80,-18
1520204739691083,21,9,7,-18,-7,27,-9,40
1520204739691083,23,3,1,0,-31,-20,-27,-81
1520204739693088,10,-11,-16,-52,-30,20,16,-41
1520204739693088,5,8,2,-14,11,11,2,-20
1520204739705120,-78,-13,-8,-10,-11,-36,-9,61
1520204739705120,5,-3,-2,-24,13,-1,19,-16
1520204739714144,-15,-4,-3,-16,6,6,11,-77
1520204739714144,-6,0,2,40,32,-3,-22,-88
1520204739729184,-42,2,-1,-10,17,23,21,47
1520204739729184,92,21,11,25,-44,9,19,51
1520204739730187,-67,-24,-6,-68,-17,52,32,-27
1520204739730187,35,3,-2,15,27,22,29,-88
1520204739751243,31,2,2,35,18,15,9,-6
1520204739751243,-20,-11,-13,-32,-14,-52,-3,68
1520204739753248,-54,16,7,-52,-84,5,-82,-6
1520204739753248,-38,-14,-3,62,88,14,0,27
1520204739765280,62,6,2,-12,-36,-9,14,49
1520204739765280,-77,2,-1,-8,12,9,-10,-5
1520204739774304,59,11,3,2,16,-27,-15,9
1520204739774304,8,-1,-2,44,4,-4,-22,-40
1520204739788341,-11,-5,-10,-27,-10,-26,-5,14
1520204739788341,-34,-16,-7,-5,23,28,56,-11
1520204739790347,21,10,7,-10,14,2,37,-33
1520204739790347,-33,-10,-3,-24,-5,21,-2,57
1520204739811403,58,3,0,-10,-6,-69,-47,-108
1520204739811403,-19,-13,-9,-23,-23,-15,-27,-64
1520204739813409,-15,-14,-12,12,23,-74,12,82
1520204739813409,0,-8,-8,-15,-16,12,-6,-80
1520204739825440,20,6,2,20,21,44,33,-82
1520204739825440,-12,16,7,-28,-20,25,-44,52
1520204739834464,9,2,12,83,55,19,18,-67
1520204739834464,-20,-5,-7,2,-36,3,12,56
1520204739848501,-66,-17,-13,-46,-40,-35,-34,-60
1520204739848501,13,-2,-5,-54,-35,53,9,-61
1520204739850507,-3,8,9,43,74,48,-36,65
1520204739850507,4,-6,8,44,20,-21,4,-67
1520204739871563,-37,-12,-10,-44,46,11,2,80
1520204739871563,13,2,-2,21,-1,-44,-33,57
1520204739872566,-18,-11,-6,-36,-4,-5,-26,-91
1520204739872566,66,14,7,-4,1,5,39,-84
1520204739884597,-103,20,24,4,-14,-3,-38,59
1520204739884597,42,3,-2,22,41,58,-13,-60
1520204739893622,-9,-5,4,26,0,-16,12,-46
1520204739893622,-18,4,0,-9,-23,-5,-7,-100
1520204739908662,40,-6,-10,25,29,3,27,71
1520204739908662,-1,1,5,8,24,-42,4,28
1520204739910668,6,7,-5,-34,-81,-39,-23,34
1520204739910668,0,0,4,-8,-58,-38,2,11
1520204739931723,-8,-11,-6,-61,-13,13,-4,5
1520204739931723,17,2,5,82,-2,-30,25,54
1520204739932726,-16,-13,-11,-57,-22,9,-11,34
1520204739932726,3,3,3,10,35,14,-12,17
1520204739944758,58,2,-5,9,-2,39,50,41
1520204739944758,-11,5,8,-11,-4,1,-23,18
1520204739953782,8,-3,-5,-1,-32,7,49,-15
1520204739953782,14,-5,-11,-16,20,-1,5,12
1520204739968822,-6,8,3,0,-6,15,6,-19
1520204739968822,13,-10,-2,6,18,-11,10,-93
1520204739970827,11,5,-1,11,8,4,1,2
1520204739970827,-13,2,1,-21,-11,-1,2,31
1520204739990880,3,-4,0,22,3,-11,-9,-17
1520204739990880,26,0,-4,-10,3,0,5,-23
1520204739992886,-89,-15,-7,-3,6,-31,-23,54
1520204739992886,20,-1,-2,-2,-6,7,-4,-4
1520204740004918,2,-2,0,-5,-26,-55,-26,-122
1520204740004918,-14,-9,-6,7,-74,65,-12,86
1520204740013942,47,15,11,10,26,2,41,-62
1520204740013942,16,-2,-1,-1,14,1,17,-45
1520204740028982,-46,-7,2,9,-9,-12,-20,34
1520204740028982,-2,-6,-12,-17,-2,-26,8,-51
1520204740029985,26,10,5,8,15,88,21,-8
1520204740029985,-15,-2,0,-3,-4,-62,1,50
1520204740051041,-1,-3,1,5,-4,-20,-23,-13
1520204740051041,-7,4,1,-3,14,-9,16,-6
1520204740053046,22,5,6,7,0,-29,-4,12
1520204740053046,1,-1,-4,0,11,22,-6,-45
1520204740065078,2,-5,-4,-3,-4,-17,1,51
1520204740065078,-29,-7,-3,-2,19,-21,-16,-14
1520204740074102,23,6,4,8,1,-22,-15,-43
1520204740074102,26,1,0,2,-6,12,-1,59
1520204740089142,-42,-7,-3,3,-1,-4,-6,-22
1520204740089142,21,3,0,-1,10,-3,9,2
1520204740090145,17,0,-5,-4,-3,-14,-3,-44
1520204740090145,-27,-1,0,-6,-14,2,-35,53
1520204740111200,12,0,-4,0,12,88,-7,-6
1520204740111200,9,3,6,8,10,-22,-2,-32
1520204740113206,-2,-4,-4,0,-2,-11,-22,-30
1520204740113206,-28,-10,-8,-5,3,22,10,-2
1520204740125238,23,3,0,-1,-14,-45,14,-41
1520204740125238,-25,-2,9,20,64,47,-5,11
1520204740134262,29,0,-1,7,-2,-8,-12,29
1520204740134262,14,9,2,0,-14,-2,11,-33
1520204740149302,-38,-9,0,-1,7,0,3,40
1520204740149302,-21,-5,-3,-3,-14,-22,6,-31
1520204740150305,29,5,0,0,0,0,15,50
1520204740150305,6,4,7,2,14,3,-26,63
1520204740171360,-53,-13,-7,-11,-18,-21,-8,-64
1520204740171360,52,12,6,2,3,4,6,-69
1520204740173366,-59,-14,-8,-1,-2,-2,-24,92
1520204740173366,-17,2,4,-1,-9,2,15,-80
1520204740185398,52,-2,-5,0,-2,-20,0,13
1520204740185398,-33,-2,-1,-4,-14,-17,7,29
1520204740194422,40,6,1,2,10,-20,11,-56
1520204740194422,-11,-5,-1,5,6,3,-3,-10
1520204740208459,9,5,0,4,-1,3,3,-2
1520204740208459,1,0,-7,-14,-3,7,11,53
1520204740214475,-5,3,6,2,-5,12,9,-4
1520204740214475,13,-6,-8,-10,-5,-6,-1,32
1520204740231520,-30,-4,5,7,10,5,4,-15
1520204740231520,-6,0,-2,-3,-3,11,8,16
1520204740232524,17,12,13,4,-1,-8,-14,18
1520204740232524,-40,-6,-4,1,-4,0,4,-40
1520204740253579,-4,-3,2,3,5,3,3,18
1520204740253579,21,2,0,1,-1,-26,-2,-24
1520204740255585,-18,-3,-3,-5,-1,5,-2,-18
1520204740255585,23,0,-1,-2,-5,-28,-2,-38
1520204740268619,18,10,6,9,6,19,1,-41
1520204740268619,33,0,-9,-9,-6,-5,-5,83
1520204740274635,-45,1,3,0,1,-5,-4,-35
1520204740274635,5,-7,-4,-6,-4,8,-4,23
1520204740291680,25,1,-6,-2,-1,4,15,3
1520204740291680,-14,2,4,0,-3,-20,-18,-12
1520204740292684,35,3,-2,0,3,10,8,-14
1520204740292684,20,-4,-4,-2,-3,2,-5,15
1520204740313739,-40,-7,-4,-4,0,0,3,7
1520204740313739,-26,-1,2,-1,0,3,-4,-10
1520204740315745,52,-2,-5,-3,0,8,9,-2
1520204740315745,38,20,13,12,8,3,6,-14
1520204740327776,-57,-19,-7,-9,-8,-13,-3,-105
1520204740327776,24,-5,-3,-3,-2,0,-4,-12
1520204740334795,52,4,0,5,7,7,18,-26
1520204740334795,-48,3,1,-2,-6,-3,-25,-9
1520204740351840,44,6,2,3,4,4,12,17
1520204740351840,-56,-3,1,-2,-3,0,-4,-1
1520204740352844,-28,-8,-2,0,-1,3,10,-66
1520204740352844,89,6,-2,8,8,6,7,-37
1520204740373899,29,16,6,3,1,3,1,48
1520204740373899,-90,-15,-3,-2,-7,-12,-23,-83
1520204740375905,-26,-14,-6,-3,-5,-4,-4,44
1520204740375905,-32,1,0,-5,-7,-8,-14,51
1520204740387936,3,-8,-1,3,3,3,-1,-6
1520204740387936,-10,3,-5,0,-4,-6,-13,54
1520204740394955,71,15,6,2,-1,-4,-3,-32
1520204740394955,-32,-6,-3,-1,1,6,16,8
1520204740410998,23,5,3,-3,-2,-1,8,-43
1520204740410998,127,6,-3,11,9,11,10,81
1520204740413004,-66,-32,-13,-10,-6,-3,0,24
1520204740413004,-4,27,13,2,1,-2,-3,27
1520204740434059,126,39,-1,-1,-3,0,0,49
1520204740434059,-84,-13,2,-3,-3,1,8,3
1520204740435062,24,9,9,5,5,6,9,-25
1520204740435062,70,-2,-7,-1,5,7,8,-43
1520204740448096,-51,2,6,0,0,-1,-4,-57
1520204740448096,48,3,14,18,14,15,22,-7
1520204740455115,-114,3,-7,-16,-20,-26,-40,122
1520204740455115,83,0,0,1,1,1,2,-10
1520204740471158,-53,-3,2,7,3,-2,-12,-39
1520204740471158,88,19,5,-1,1,5,7,-11
1520204740473163,-46,-10,-11,-14,-4,3,18,31
1520204740473163,54,7,7,9,7,5,0,53
1520204740493217,-76,-6,3,2,3,0,3,-18
1520204740493217,79,16,-9,-12,-11,-8,-3,52
1520204740501238,10,11,12,10,9,6,2,-55
1520204740501238,-82,-9,-18,-15,-13,-12,-15,18
1520204740508256,-23,-50,-23,-16,-13,-11,-8,83
1520204740508256,-76,-7,8,3,1,-5,-8,-80
1520204740515275,-5,11,1,3,-1,-1,0,-105
1520204740515275,-44,-11,-2,-8,-5,0,1,8
1520204740531318,29,13,7,8,2,0,6,-73
1520204740531318,-89,-25,-13,-16,-15,-17,-34,-46
1520204740533323,59,-19,-13,-2,-4,-2,-3,84
1520204740533323,-22,-26,2,7,6,9,17,-114
1520204740553377,-98,8,-3,-10,-8,-9,-14,8
1520204740553377,64,3,5,6,7,14,24,-25
1520204740555382,-11,-29,-8,-5,-8,-16,-31,85
1520204740555382,12,24,8,3,1,2,3,-83
1520204740567414,-18,13,-4,-1,-2,0,6,52
1520204740567414,5,-6,6,4,2,0,3,-35
1520204740576438,104,-39,-16,-1,3,5,-4,-16
1520204740576438,-8,5,17,-2,-3,-5,0,26
1520204740591478,-12,-12,-25,-16,-14,-19,-39,36
1520204740591478,59,-39,-19,-8,-3,-2,8,-38
1520204740593484,47,68,20,8,3,-1,-15,-3
1520204740593484,-66,-34,-10,0,-1,-2,6,35
1520204740613537,120,29,5,9,10,12,8,19
1520204740613537,14,6,4,11,7,4,2,-63
1520204740615542,-120,-42,-23,-23,-20,-23,-23,21
1520204740615542,90,-62,-13,2,6,6,12,-74
1520204740627574,57,32,9,-3,-5,-10,-29,84
1520204740627574,-9,36,5,5,4,7,16,17
1520204740636598,122,27,4,6,4,5,12,-102
1520204740636598,-55,42,16,6,-3,-9,-21,74
1520204740651638,5,-62,0,4,7,15,43,-49
1520204740651638,42,1,-3,-4,-5,-9,-21,105
1520204740652641,-126,-48,-6,1,6,11,32,-50
1520204740652641,72,21,-8,-9,-10,-13,-30,-22
1520204740673697,94,33,2,8,6,6,16,-19
1520204740673697,42,19,11,0,-3,-4,-8,-15
1520204740675702,-14,10,5,6,6,14,50,-72
1520204740675702,51,-12,2,9,7,5,-23,102
1520204740687734,86,-53,-7,5,6,14,43,-69
1520204740687734,64,-12,4,1,2,-1,-14,-128
1520204740694753,45,25,-1,-9,-9,-3,-9,80
1520204740694753,-43,18,-9,-5,-9,-3,5,56
1520204740711798,-72,-45,-9,10,9,3,9,-120
1520204740711798,-69,-39,-8,-11,-8,-6,-24,116
1520204740712801,32,17,20,6,-2,-6,-12,109
1520204740712801,16,29,-7,-8,-10,-20,-37,-81
1520204740733856,72,-12,4,1,1,0,2,29
1520204740733856,14,20,-12,2,4,17,67,-61
1520204740735862,59,-3,5,-1,2,-2,-3,81
1520204740735862,-90,-39,-17,-15,-8,2,17,-53
1520204740747894,9,-61,-16,-5,-6,-8,-6,-109
1520204740747894,-42,-35,4,6,7,14,53,-58
1520204740763938,100,23,20,12,5,-4,-41,-68
1520204740763938,26,23,-20,-18,-11,-11,-7,58
1520204740770955,-84,-36,10,2,2,4,-7,-3
1520204740770955,58,20,5,16,17,15,20,40
1520204740772961,4,-51,-22,-19,-17,-14,-15,-81
1520204740772961,-103,73,55,12,0,-2,-32,122
1520204740794016,-35,-57,-28,-13,-11,-15,-28,51
1520204740794016,-35,20,2,-14,-14,-21,-39,7
1520204740795020,-8,-20,-14,3,7,16,39,-64
1520204740795020,76,-9,-10,-4,-6,-8,-30,31
1520204740807051,-45,50,-5,-13,-10,-12,-14,97
1520204740807051,35,-12,-21,-14,-11,-13,-27,18
1520204740816075,-128,-37,-31,-6,-7,-28,-9,45
1520204740816075,84,-11,24,17,23,33,16,-128
1520204740831115,81,43,7,3,3,1,-8,67
1520204740831115,-109,-8,15,-11,-16,-12,-13,-42
1520204740833121,97,-6,-12,7,8,8,11,-38
1520204740833121,124,2,-1,10,5,-2,23,-57
1520204740853174,28,38,-6,-20,-6,-9,-29,70
1520204740853174,-50,-37,2,14,4,4,-20,-72
1520204740860193,-14,-1,-19,-11,-8,-16,17,-46
1520204740860193,16,-16,0,10,15,54,35,-109
1520204740867211,-6,41,17,1,-13,12,-27,14
1520204740867211,42,12,-4,1,4,-39,-21,0
1520204740876236,11,4,5,-15,-7,1,44,-22
1520204740876236,-83,-48,-17,3,15,-5,-6,-18
1520204740891275,88,-9,6,1,-11,19,23,-24
1520204740891275,111,47,10,12,4,-2,-20,116
1520204740893281,-2,-29,-5,11,25,43,3,31
1520204740893281,-48,33,12,-3,-24,-80,-67,66
1520204740914337,-31,-19,-16,-61,-46,62,29,-73
1520204740914337,68,-1,-13,1,-19,36,-35,-38
1520204740915340,-35,24,25,39,53,38,49,-42
1520204740915340,99,-6,-5,-5,-24,-83,12,29
1520204740927372,49,48,8,-2,32,-23,20,-20
1520204740927372,45,-39,-29,-13,-28,76,-10,119
1520204740936396,43,13,16,-15,1,11,-18,11
1520204740936396,63,48,0,-2,-18,6,20,76
1520204740951435,-23,-26,11,38,26,2,-6,-72
1520204740951435,-38,-39,-15,-72,-9,-12,13,66
1520204740953441,-34,18,9,49,-56,-19,-35,-24
1520204740953441,31,10,19,-6,2,-20,9,6
1520204740974498,92,38,5,-22,50,42,-16,-4
1520204740974498,-98,-20,4,41,41,28,74,-68
1520204740976503,-12,13,18,-5,-3,-55,-43,127
1520204740976503,-76,-82,-65,-68,-52,10,0,-74
1520204740987531,30,29,38,65,14,-11,2,-58
1520204740987531,59,78,69,65,10,4,-24,-37
1520204740996556,-54,-26,-37,-89,-50,-35,-59,100
1520204740996556,19,0,0,17,41,30,68,-57
1520204741010593,66,48,7,33,26,5,-5,-44
1520204741010593,-67,-71,-46,-92,-31,-52,-7,80
1520204741017611,70,58,25,49,18,40,-43,-47
1520204741017611,27,26,16,77,96,80,74,29
1520204741033654,-43,-5,-5,-54,-70,-60,10,17
1520204741033654,62,19,-45,-39,17,16,-20,-54
1520204741035660,97,-4,2,7,-53,-24,20,88
1520204741035660,-65,-33,-5,-29,-21,-20,-58,-23
1520204741047691,-22,-21,-25,1,25,4,16,-42
1520204741047691,50,70,31,-4,-25,-35,4,50
1520204741056716,30,-93,-46,-8,-12,8,-5,-27
1520204741056716,-32,5,-5,-55,2,16,5,1
1520204741070753,80,49,51,111,17,-13,5,-42
1520204741070753,-28,-56,-53,-47,-46,-17,-33,98
1520204741077771,-23,10,5,23,122,25,13,-128
1520204741077771,58,-17,15,53,-91,-7,-44,86
1520204741093814,-101,-65,-43,-67,29,-24,0,87
1520204741093814,45,16,20,66,61,31,59,-86
1520204741095820,64,-20,-20,-17,-43,-4,23,-24
1520204741095820,-98,-26,-10,-53,-46,-14,3,17
1520204741107851,-4,19,21,54,-12,44,-83,-4
1520204741107851,33,-12,-6,86,92,33,56,21
1520204741116876,-43,58,34,25,32,-23,-6,-90
1520204741116876,109,40,23,36,-5,21,2,-128
1520204741130913,32,-9,-6,-56,-68,-22,-9,119
1520204741130913,21,38,22,-6,-45,13,10,-128
1520204741137931,-107,-29,-28,-44,-67,0,43,36
1520204741137931,32,-37,-26,-96,34,-26,-42,27
1520204741153974,23,18,0,92,99,30,26,-33
1520204741153974,60,1,-53,-92,-25,-28,-14,-22
1520204741155980,-27,6,45,60,-74,-4,15,-1
1520204741155980,-56,14,13,94,92,26,-12,-49
1520204741167009,-54,-12,-4,-9,-97,40,34,34
1520204741167009,-60,19,14,-5,-11,-16,-5,-1
1520204741176033,32,34,20,-51,-109,17,24,6
1520204741176033,-79,-46,-22,-31,-109,-71,-76,-102
1520204741191073,86,-2,-24,-35,17,-32,40,44
1520204741191073,-114,54,73,107,86,20,-14,-13
1520204741197089,67,-22,-31,-71,-7,41,1,32
1520204741197089,-17,50,44,68,89,30,38,-12
1520204741214134,38,-81,-49,-81,-104,-33,-28,53
1520204741214134,-11,10,22,1,-82,-61,-18,20
1520204741215137,62,4,-26,-39,-5,1,-35,-10
1520204741215137,-75,-5,8,81,111,47,47,28
1520204741236193,-29,-2,11,100,30,7,-20,-5
1520204741236193,103,-17,-36,-95,-22,-13,38,35
1520204741238199,-77,15,47,102,-24,-25,-48,26
1520204741238199,55,-17,-27,-105,-127,3,17,12
1520204741250230,-4,23,9,-49,56,5,16,-79
1520204741250230,-44,-38,4,40,-17,-42,-82,-64
1520204741257249,125,32,-15,-72,-4,-2,-22,66
1520204741257249,-42,-61,-38,6,28,20,87,63
1520204741274294,-70,10,13,-93,-55,-5,15,-15
1520204741274294,-17,-28,-15,6,-47,0,-16,-79
1520204741275297,105,27,16,61,49,-22,-34,34
1520204741275297,-54,-23,-23,-65,-90,-13,-48,55
1520204741296353,121,40,11,17,70,-10,33,-21
1520204741296353,-69,-38,-16,-101,-76,-27,-17,108
1520204741298359,-30,18,19,-17,52,5,14,-2
1520204741298359,-41,-29,15,100,30,39,-26,-34
1520204741310390,37,19,6,113,40,-19,-6,3
1520204741310390,10,17,7,-7,-76,13,-12,-47
1520204741317409,-38,-2,6,-15,-15,-25,11,-76
1520204741317409,43,-5,-21,-99,-109,-8,-14,73
1520204741333452,-36,-12,-12,-16,72,-6,15,5
1520204741333452,-1,-2,5,54,-22,35,11,14
1520204741335457,-24,-21,-23,66,70,22,-9,60
1520204741335457,106,47,16,-55,-8,20,42,-85
1520204741355510,-128,-48,-14,-37,-101,-14,-55,-50
1520204741355510,120,12,-11,53,52,-9,13,61
1520204741363532,-110,-13,-10,-100,-23,-14,-5,-78
1520204741363532,69,40,51,127,117,27,10,36
1520204741370550,-24,4,0,-37,-24,29,23,20
1520204741370550,7,-29,-20,29,1,-67,6,-12
1520204741377569,13,-5,-7,-72,-65,-4,-8,15
1520204741377569,33,-2,10,98,96,1,3,-104
1520204741393612,26,11,-12,-93,-11,42,32,7
1520204741393612,48,29,41,-61,-6,19,-46,9
1520204741395617,-62,-35,-35,-73,-53,5,0,-2
1520204741395617,28,60,55,9,11,8,0,53
1520204741416673,77,-11,-5,-26,-75,-46,23,-95
1520204741416673,-74,-29,-21,-51,30,38,0,-26
1520204741417676,10,4,-1,-55,-12,6,11,-81
1520204741417676,6,-7,-9,63,-22,-73,-71,-59
1520204741430710,8,0,6,-14,88,-1,-26,59
1520204741430710,15,11,-2,-116,-14,-29,-32,12
1520204741437729,25,-3,30,127,99,10,74,-14
1520204741437729,-7,-11,-36,-32,-5,36,37,-67
1520204741453771,9,3,7,-82,-59,-27,-24,14
1520204741453771,-119,-49,-66,-92,-104,-48,-57,84
1520204741455777,116,36,53,104,127,50,3,6
1520204741455777,53,-3,-11,-3,-26,-31,11,35
1520204741476833,38,7,1,-32,-80,-12,-8,-13
1520204741476833,-22,-3,14,63,82,-12,-11,-51
1520204741477836,-50,-11,-19,-71,-15,-8,-45,-8
1520204741477836,-28,1,-6,-6,-40,-40,31,-33
1520204741490870,-21,-9,8,-33,-58,7,-50,-24
1520204741490870,89,34,23,49,104,83,101,-109
1520204741497889,-128,-19,0,83,100,-15,-34,8
1520204741497889,-53,-23,-42,-128,-103,-21,-6,8
1520204741513932,34,18,13,33,9,3,-16,-26
1520204741513932,33,-7,-10,-79,-84,2,89,5
1520204741515937,-5,9,4,-94,-89,-6,-12,-45
1520204741515937,79,-8,-36,-128,-45,21,21,-14
1520204741535991,-128,-14,21,64,-21,20,-1,57
1520204741535991,61,4,5,-42,-40,-2,-9,-51
1520204741537996,78,23,11,66,-23,-1,47,-101
1520204741537996,17,11,11,65,23,-2,23,48
1520204741551030,-20,-5,-8,-48,5,-50,24,-123
1520204741551030,-15,11,7,-39,-13,-4,-15,35
1520204741557046,-22,5,-7,-128,-77,-9,-9,-29
1520204741557046,-37,-21,-5,25,59,-6,-50,-32
1520204741574092,38,-8,-8,13,-28,36,4,90
1520204741574092,-96,-2,17,75,58,-19,13,11
1520204741575095,82,3,-25,-93,9,17,13,-2
1520204741575095,-85,-17,-5,-104,-77,-6,-6,97
1520204741596151,34,11,16,-31,-61,-7,-14,-18
1520204741596151,-21,-12,-17,39,68,8,4,38
1520204741598156,15,-13,-24,-48,-95,-11,75,-41
1520204741598156,62,37,29,28,39,-23,-34,28
1520204741611190,-54,-34,-39,-29,-38,-2,12,-47
1520204741611190,24,7,-3,-119,-69,-16,-56,-90
1520204741617206,7,4,7,35,13,9,-53,-4
1520204741617206,-1,-8,-12,-100,-46,32,1,69
1520204741634252,16,15,17,62,33,43,73,77
1520204741634252,-43,-6,8,-5,-31,82,110,-9
1520204741635255,-44,-21,-20,16,64,-71,-90,59
1520204741635255,10,5,6,-3,21,19,-38,-64
1520204741656311,39,7,-3,-103,-5,14,-27,-14
1520204741656311,53,15,12,94,-4,0,-21,-10
1520204741658316,-45,2,9,43,56,-20,13,51
1520204741658316,-34,-19,-7,43,-29,-3,-36,-36
1520204741670348,-19,-3,21,73,101,26,-34,10
1520204741670348,28,14,7,-77,-20,-43,32,-28
1520204741677366,33,3,-16,-128,-128,-7,-17,8
1520204741677366,8,-7,4,-105,-25,-47,22,-71
1520204741693409,-47,-8,6,119,93,4,20,39
1520204741693409,26,1,-7,-29,14,-14,-39,-69
1520204741695415,-79,5,17,-21,0,62,-33,61
1520204741695415,2,-6,-12,-69,-45,30,58,24
1520204741716471,-7,-11,-10,72,85,41,-6,23
1520204741716471,-5,-2,-5,-59,0,-18,16,-44
1520204741718476,28,-4,-13,-104,-88,-42,31,2
1520204741718476,-3,10,15,76,25,34,-68,44
1520204741730508,-29,-12,-4,14,-37,-17,-7,-47
1520204741730508,56,22,16,-36,-4,25,-24,-63
1520204741739532,-54,-12,10,127,36,-11,-37,85
1520204741739532,-29,1,16,-16,56,-8,2,54
1520204741753569,57,6,-10,-79,-31,-50,-14,-42
1520204741753569,-23,-6,-2,27,19,-12,-23,43
1520204741755575,41,3,9,42,25,34,38,-66
1520204741755575,-21,-8,-18,-26,-31,-24,-13,-44
1520204741776631,4,12,4,-37,-31,5,17,40
1520204741776631,-29,-1,-4,-75,-36,-40,-65,73
1520204741777634,36,19,40,56,72,4,85,-32
1520204741777634,-42,6,6,-95,-59,6,55,-33
1520204741789665,37,9,10,36,56,52,-41,-111
1520204741789665,-19,-2,-4,9,-6,32,-1,127
1520204741798689,10,-4,-8,3,-5,42,-24,-65
1520204741798689,25,9,7,75,25,47,-35,-47
1520204741813729,-19,-4,2,-54,4,-1,10,20
1520204741813729,5,-2,3,56,19,26,-39,2
1520204741815735,-12,-1,-4,-26,-37,-2,-3,-30
1520204741815735,34,-1,-4,-24,6,-30,10,0
1520204741836791,-19,-11,-29,-128,-120,-59,-29,17
1520204741836791,-1,7,27,127,72,43,17,-18
1520204741837794,-1,-5,-13,-128,-55,-37,-34,-39
1520204741837794,6,-6,-8,6,9,-17,55,-37
1520204741849825,-7,-2,-3,2,12,-16,-38,11
1520204741849825,14,3,-1,-1,-68,-19,17,-43
1520204741858850,5,0,-5,-30,-11,-11,-6,10
1520204741858850,14,6,4,-5,-6,17,-60,33
1520204741873889,-51,-27,-12,48,-4,-22,31,48
1520204741873889,-14,1,0,4,39,12,27,26
1520204741875895,-9,-6,-4,13,30,-11,-26,-4
1520204741875895,35,2,-3,13,25,-8,-38,0
1520204741895948,-34,3,-2,-3,-42,17,-7,-5
1520204741895948,16,-4,-7,-29,-81,-15,27,-19
1520204741897954,-7,-5,1,51,65,8,-6,-4
1520204741897954,-14,-7,-4,-15,4,1,3,27
1520204741909985,28,5,1,0,-43,-4,3,-30
1520204741909985,-10,-7,-5,-2,21,11,-11,22
1520204741919010,-18,-6,-5,0,-14,42,9,7
1520204741919010,9,5,5,14,-14,-28,70,-3
1520204741934049,43,11,-1,-5,-8,-70,-51,-69
1520204741934049,-31,4,0,-16,-19,-39,-8,22
1520204741935052,0,-7,-8,6,1,-30,-8,-29
1520204741935052,34,-1,-8,-10,6,8,30,-19
1520204741956109,-35,-7,-1,-3,-13,-51,98,64
1520204741956109,28,0,2,3,42,30,-2,20
1520204741958114,-3,0,1,-1,-7,-35,-2,22
1520204741958114,-21,-3,-1,-3,-21,11,-21,-7
1520204741970145,68,15,8,1,19,-13,-42,-43
1520204741970145,-10,-6,-11,-3,-28,28,18,5
1520204741979169,-48,-9,-6,-5,-17,-16,51,32
1520204741979169,-32,-11,-5,-25,0,-14,-24,11
1520204741994209,-5,1,-8,-21,41,80,-7,54
1520204741994209,18,0,5,65,11,-32,-8,-46
1520204741995212,48,7,-5,-7,-11,4,-29,-18
1520204741995212,-35,-7,1,11,11,-3,-15,-15
1520204742016268,-17,1,2,-14,-21,21,12,24
1520204742016268,-18,-5,-5,-30,-3,-10,-9,-26
1520204742018274,20,-8,-4,14,22,25,-9,-6
1520204742018274,-37,6,3,-3,-27,-1,-8,34
1520204742030306,34,1,3,-9,-4,-1,-19,-11
1520204742030306,-31,0,1,-5,5,-8,1,2
1520204742039329,46,15,8,11,-11,-31,-32,-1
1520204742039329,4,-5,-3,-2,-3,-41,20,7
1520204742053367,-2,-4,-1,10,8,-21,-17,-5
1520204742053367,-13,-9,-4,-6,-5,10,-3,-3
1520204742061389,20,10,-3,-4,-11,11,4,-13
1520204742061389,-26,-8,-4,-3,-1,-3,-19,64
1520204742076428,23,9,2,11,-26,77,39,29
1520204742076428,20,2,3,-6,-2,-84,-26,-78
1520204742078434,-22,-7,-5,-8,-4,5,7,-9
1520204742078434,40,5,-3,6,1,37,13,0
1520204742090465,-1,-5,0,8,-66,5,-42,83
1520204742090465,2,2,2,1,59,31,14,-25
1520204742099490,14,-2,-3,-2,-19,-22,-4,-10
1520204742099490,2,-8,-5,2,0,21,-1,-13
1520204742113527,13,5,-1,1,-1,13,-15,17
1520204742113527,-7,-15,-6,-7,-8,70,4,-70
1520204742115533,-22,12,14,8,17,-51,27,14
1520204742115533,-19,0,0,-1,-3,-1,-5,-14
1520204742136588,15,3,-1,-2,22,-31,-9,-38
1520204742136588,-3,-2,-2,-6,-11,-11,-12,-4
1520204742137591,-17,-5,0,1,2,34,2,3
1520204742137591,21,4,-1,-2,-7,-3,-10,22
1520204742149623,-10,5,4,-2,15,-23,15,-30
1520204742149623,10,2,-5,-2,-3,-12,-1,27
1520204742164663,-2,-3,-3,-3,-19,7,-6,3
1520204742164663,42,6,2,2,2,-13,7,-25
1520204742173687,-67,-14,-6,-7,13,-18,-13,29
1520204742173687,-13,1,0,-5,-12,-4,7,6
1520204742179703,-2,-6,-5,-5,-6,8,-5,8
1520204742179703,-7,0,1,0,6,-21,-9,-17
1520204742196748,22,4,0,0,8,-2,4,-26
1520204742196748,-8,-5,-6,-8,4,0,2,38
1520204742197751,-24,-4,1,4,6,2,1,12
1520204742197751,-1,-2,-2,-2,-1,10,0,-14
1520204742218807,5,-2,0,4,4,-12,4,-46
1520204742218807,13,9,-3,-4,-12,-3,-6,62
1520204742220812,14,1,5,4,5,10,-1,-1
1520204742220812,-11,-3,0,1,0,1,-13,-31
1520204742232844,-20,-7,-2,-2,1,-1,10,-15
1520204742232844,18,4,2,-1,-6,-4,-4,-1
1520204742239863,30,3,-4,-1,-4,-19,11,-9
1520204742239863,-39,-8,-2,-2,-3,15,-8,11
1520204742255906,-22,-3,-1,-1,-1,-10,-7,-36
1520204742255906,-22,-10,-4,-4,-6,-4,-4,-25
1520204742257911,50,8,2,1,1,1,3,-2
1520204742257911,-32,-1,-3,-4,-1,-20,-15,1
1520204742278967,33,2,-2,-1,8,20,3,16
1520204742278967,2,2,0,2,-6,16,8,-8
1520204742280972,17,6,3,0,2,5,-3,14
1520204742280972,7,1,2,3,1,4,1,26
1520204742293004,-6,-2,-2,0,3,34,7,-12
1520204742293004,-8,0,-1,0,-4,-22,-6,17
1520204742300023,14,-1,-4,-3,4,2,-12,-13
1520204742300023,0,-2,-3,-1,-16,15,-5,-14
1520204742316066,20,0,3,6,15,-2,23,-5
1520204742316066,-8,1,0,0,-5,0,0,12
1520204742318071,-5,-4,-3,-1,2,4,-7,-33
1520204742318071,-63,-7,-5,-4,-7,-10,-7,51
1520204742339127,-4,-1,-2,-4,-7,-21,-12,-1
1520204742339127,49,5,0,-2,5,-31,-14,-11
1520204742340130,-9,1,7,7,-8,2,29,-14
1520204742340130,11,0,-5,-7,3,-2,0,27
1520204742353164,-2,3,2,2,-3,-15,-2,5
1520204742353164,-5,-5,-2,-1,1,-5,-3,5
1520204742360183,-38,-3,-5,-9,-5,7,-2,8
1520204742360183,23,3,0,-6,0,-9,2,-22
1520204742376226,0,0,-3,3,1,-7,0,6
1520204742376226,10,7,3,-2,-5,9,9,9
1520204742378231,-31,-5,4,6,2,16,-8,4
1520204742378231,59,5,-5,1,2,7,9,-14
1520204742399287,-49,-9,-5,-5,-4,-9,-10,-28
1520204742399287,-5,-1,-2,0,-3,-2,-7,-7
1520204742400290,-22,-6,-7,-8,-12,-24,-10,-7
1520204742400290,23,4,11,11,20,24,-4,-28
1520204742413324,20,5,3,3,-7,1,12,-12
1520204742413324,-26,-1,-4,-6,5,2,-9,22
1520204742420343,2,-1,0,4,6,-3,-2,15
1520204742420343,10,-5,1,4,-1,-29,-12,-2
1520204742436386,-26,-6,-5,-3,-10,-4,2,-15
1520204742436386,36,0,-1,-7,-15,13,5,-5
1520204742438391,-44,-11,-8,-6,4,63,-1,6
1520204742438391,57,17,2,-4,9,-30,18,40
1520204742458444,-36,4,5,7,8,-4,-7,23
1520204742458444,-23,-12,-6,3,0,-13,-9,-15
1520204742460450,18,11,0,-4,3,13,9,19
1520204742460450,0,-4,5,7,1,10,-3,-19
1520204742472482,9,-8,-6,-5,-1,0,11,20
1520204742472482,-32,-5,1,4,-2,-7,-12,-25
1520204742481506,13,3,1,-1,0,-6,7,-17
1520204742481506,-34,2,1,-4,-7,5,-5,42
1520204742496546,6,2,3,-2,-4,-14,-11,0
1520204742496546,-1,-6,-3,2,0,8,12,-12
1520204742497549,-8,-10,-7,-5,-5,-14,-11,-35
1520204742497549,-46,-5,0,3,-3,-8,-7,15
1520204742518604,29,-10,-4,-3,-5,-16,-12,-35
1520204742518604,23,4,-1,1,9,28,13,3
1520204742520610,-8,8,-3,-6,0,6,20,16
1520204742520610,26,5,3,2,-2,-1,-7,-4
1520204742532641,-10,-9,-12,-8,-3,-1,-2,18
1520204742532641,-48,-14,-4,1,0,-8,-8,-62
1520204742541666,-92,-10,5,5,0,-5,4,-2
1520204742541666,62,0,-7,-1,0,15,8,-63
1520204742556705,13,-1,1,2,3,-1,-9,-1
1520204742556705,45,14,6,-3,-3,-8,-8,22
1520204742557708,-21,-2,-5,-2,-3,4,1,10
1520204742557708,-47,-3,0,-3,-3,-4,-4,-56
1520204742578764,-11,8,15,11,9,14,9,16
1520204742578764,-6,-3,-10,-7,-3,0,19,-30
1520204742580770,127,5,-6,-4,-9,-18,-23,13
1520204742580770,-72,-22,-8,-4,-7,-7,3,-28
1520204742592802,-20,-9,-12,-12,-5,1,11,52
1520204742592802,-10,12,18,10,5,4,7,6
1520204742601826,46,-14,-10,-7,-8,-21,-25,-13
1520204742601826,36,15,7,6,5,5,10,-28
1520204742616866,-17,-16,-9,-4,-1,2,-8,11
1520204742616866,-5,10,2,-2,-3,-1,2,53
1520204742617869,-1,5,8,9,8,6,19,-20
1520204742617869,97,9,0,5,3,4,1,-27
1520204742638924,-77,-2,4,-2,-5,-13,-22,-34
1520204742638924,126,17,-3,-4,-5,-8,-6,56
1520204742640930,-48,-13,5,-1,-1,2,9,-14
1520204742640930,19,3,-10,-12,-8,-3,2,16
1520204742652961,90,25,12,8,6,8,12,-6
1520204742652961,-97,-17,-7,-1,0,-1,-4,-24
1520204742661986,84,-9,-7,-3,-1,-5,-7,11
1520204742661986,-75,30,13,2,2,8,21,54
1520204742676023,-14,-7,-2,0,-2,-5,-11,-41
1520204742676023,26,5,-4,-8,-4,-6,-10,-1
1520204742678029,-67,-20,-3,5,2,-3,-11,-29
1520204742678029,91,11,2,-2,1,6,13,9
1520204742699085,-75,-16,-6,-4,-4,-6,-3,-17
1520204742699085,13,8,-1,-3,-3,-4,-2,20
1520204742700087,48,22,10,6,3,0,-3,-2
1520204742700087,-87,-41,-6,1,-2,-9,-24,-12
1520204742712119,126,2,-15,-6,0,4,0,38
1520204742712119,4,-21,6,0,-1,5,16,51
1520204742721143,-39,79,17,6,7,6,16,-37
1520204742721143,75,-8,-5,-11,-8,-2,3,76
1520204742736183,-39,-5,4,9,4,1,-4,-31
1520204742736183,39,-85,-35,-16,-13,-13,-9,-1
1520204742738189,22,23,9,-1,-2,1,2,38
1520204742738189,-6,-38,1,5,-2,-4,-11,-89
1520204742759245,-8,6,-3,-2,1,0,2,20
1520204742759245,-21,-17,-11,-9,-6,-11,-18,-61
1520204742760247,-54,8,10,0,3,7,17,20
1520204742760247,-26,-26,-10,-6,-1,4,11,-2
1520204742772279,114,1,-2,-3,-5,-11,-23,-14
1520204742772279,59,-2,9,11,3,0,3,-7
1520204742781303,-14,-88,-7,-1,0,1,-3,16
1520204742781303,26,44,-8,-5,0,-2,-6,-10
1520204742796343,107,-24,9,4,-3,2,11,-7
1520204742796343,24,-36,3,4,5,3,3,-2
1520204742798349,91,31,0,-1,-4,-4,-4,-10
1520204742798349,-48,-97,-30,-16,-8,-8,-14,4
1520204742819405,76,69,25,8,2,1,2,-17
1520204742819405,-10,27,-5,6,7,13,26,-50
1520204742820408,-65,-7,-3,-4,-6,-4,-10,64
1520204742820408,-103,22,10,8,3,0,-8,-11
1520204742832439,19,-14,-11,-4,2,4,8,-21
1520204742832439,-115,5,5,-6,-6,-4,-2,29
1520204742847479,-7,-19,3,5,5,4,6,-10
1520204742847479,75,63,5,5,0,-1,-2,4
1520204742856503,-115,-30,-3,-1,6,12,20,-24
1520204742856503,2,-42,-23,-14,-13,-13,-5,21
1520204742858509,127,35,2,0,0,-3,5,9
1520204742858509,-48,1,1,-10,-10,-8,-25,-11
1520204742878562,59,-80,-20,-2,0,-12,-23,-59
1520204742878562,-28,71,1,2,3,1,-1,-79
1520204742880567,-95,-51,-11,-7,-4,0,4,40
1520204742880567,127,50,16,7,-4,-7,-8,46
1520204742892599,-128,-18,-3,-5,-2,-1,-5,-2
1520204742892599,127,0,-5,5,2,2,5,15
1520204742901623,-42,12,3,-6,-8,-12,-31,34
1520204742901623,6,-37,-9,2,10,11,19,-17
1520204742916663,63,17,-15,-15,-11,-6,6,91
1520204742916663,-11,54,44,11,1,6,1,-1
1520204742917666,18,-4,-11,1,0,-4,-12,-73
1520204742917666,46,-24,-6,-2,4,5,9,-7
1520204742938722,16,33,15,6,7,0,-7,-68
1520204742938722,24,-15,-13,2,4,4,10,-5
1520204742940728,11,-44,-14,-11,-2,-3,-4,3
1520204742940728,54,12,-6,0,-2,8,30,-13
1520204742952759,-82,10,9,-4,-5,-4,-18,43
1520204742952759,39,0,0,-5,-3,2,-2,-76
1520204742961783,-29,33,7,4,0,2,15,-90
1520204742961783,2,-2,17,12,7,1,-12,-11
1520204742976824,36,-12,-14,0,1,10,35,-86
1520204742976824,-23,-6,0,-3,-1,0,2,66
1520204742977827,-12,-12,-7,-4,1,0,1,-51
1520204742977827,-71,-7,-8,-4,-3,-3,1,-10
1520204742998882,9,15,-3,-1,2,2,14,-9
1520204742998882,-77,35,34,14,2,-3,-29,40
1520204743000888,-11,-48,-27,-10,-9,-5,17,66
1520204743000888,48,49,28,14,7,5,-9,1
1520204743012919,-58,-27,-21,-8,-4,-6,-15,-27
1520204743012919,51,39,3,2,1,-5,-7,6
1520204743021943,-65,-39,-10,-5,-2,1,4,-29
1520204743021943,73,68,21,8,-1,-10,-20,26
1520204743034978,44,-50,2,-1,-1,8,17,92
1520204743034978,-70,21,1,1,2,-7,-15,-41
1520204743044002,98,-7,-13,-6,13,5,-1,35
1520204743044002,-26,-10,8,9,-5,-1,8,-3
1520204743059042,-34,67,14,-1,-13,-15,-14,-85
1520204743059042,-19,-64,-18,-17,-14,-16,-40,68
1520204743060045,127,68,22,10,5,0,-18,-46
1520204743060045,-49,-91,-29,2,21,23,38,-105
1520204743072076,-71,-41,-12,-24,-24,-19,-13,65
1520204743072076,121,-11,-18,-10,0,4,24,-29
1520204743081101,-69,-17,-11,-7,-11,-6,4,-5
1520204743081101,127,75,41,16,1,-2,-21,45
1520204743096141,-107,-14,-23,-5,3,5,23,-53
1520204743096141,15,3,19,6,-7,1,-11,-4
1520204743102157,117,50,11,15,16,2,4,-3
1520204743102157,-128,-93,-57,-38,-29,-15,11,88
1520204743119202,75,-5,38,31,19,21,8,-10
1520204743119202,10,17,-31,-13,10,-15,5,-22
1520204743120205,14,29,53,31,-3,9,26,-52
1520204743120205,-44,-8,-18,-27,7,14,-23,43
1520204743132236,37,26,1,19,-21,32,7,-42
1520204743132236,9,3,10,32,85,13,60,-50
1520204743141261,-80,-55,-6,7,-26,-42,-48,69
1520204743141261,49,-6,-5,-3,-1,-29,67,-117
1520204743155298,44,11,-18,-15,-16,43,-37,103
1520204743155298,34,19,43,-10,-44,90,26,-66
1520204743162316,-92,-29,-28,13,23,-61,-72,-8
1520204743162316,-64,14,23,19,-20,-122,18,-80
1520204743179362,62,62,16,-62,-68,50,-48,70
1520204743179362,107,16,6,27,46,68,34,-60
1520204743180365,-60,13,3,-19,21,13,28,33
1520204743180365,90,-63,-46,-70,-40,33,-59,-27
1520204743201421,-40,13,19,64,-77,-49,-6,26
1520204743201421,-28,4,-31,-42,28,101,-3,-86
1520204743203426,-50,70,68,5,-57,-83,74,-17
1520204743203426,65,13,-12,-24,-47,-29,-30,2
1520204743215458,114,8,-9,39,36,-28,60,4
1520204743215458,36,12,-27,-42,-3,4,-106,63
1520204743222477,29,-51,-47,11,-57,50,65,62
1520204743222477,63,20,35,88,119,56,-82,62
1520204743238519,11,-12,14,47,37,34,41,-123
1520204743238519,-91,-42,-24,-31,-96,-128,-29,127
1520204743240525,115,20,33,26,127,43,-66,-126
1520204743240525,65,70,27,-6,-87,47,44,-51
1520204743261581,-67,-63,7,-5,-14,-41,-25,26
1520204743261581,-22,-50,-30,-30,7,-12,49,-13
1520204743262584,63,6,-10,37,-44,4,-53,-7
1520204743262584,-46,-30,-36,-79,8,-19,37,-1
1520204743275618,40,24,16,17,-37,-20,18,-4
1520204743275618,-49,28,37,86,6,-99,-48,25
1520204743282636,104,0,-65,-128,-52,47,46,13
1520204743282636,-128,-6,55,100,0,9,-7,-3
1520204743298679,96,-2,-43,-87,-1,7,5,24
1520204743298679,-119,-42,-7,-17,-128,-56,-30,-19
1520204743300685,51,19,-14,110,126,100,-114,-46
1520204743300685,21,61,72,74,77,87,127,-74
1520204743321741,-29,-62,-40,-128,-74,-32,-57,47
1520204743321741,-34,22,23,-1,39,-45,-34,-61
1520204743322744,68,8,-3,-78,-83,-10,4,-55
1520204743322744,-74,-27,-36,-35,41,14,-21,32
1520204743335778,53,47,19,7,10,-3,-9,2
1520204743335778,35,-12,17,58,11,19,37,28
1520204743342797,-92,-29,-5,-60,-67,-48,25,26
1520204743342797,20,8,-7,-23,-23,-14,-4,75
1520204743358840,78,-22,-16,59,83,-18,-25,-115
1520204743358840,-35,-9,2,-4,-12,57,38,11
1520204743360845,-2,-5,11,48,58,28,11,75
1520204743360845,11,9,-26,-39,-128,-79,-75,18
1520204743381901,-34,-18,-1,-17,123,-55,38,31
1520204743381901,-51,18,5,16,4,33,48,11
1520204743382904,20,-27,-23,-3,-6,99,26,-35
1520204743382904,57,-48,14,4,-78,-82,-47,44
1520204743395938,9,30,-17,-70,5,19,-26,91
1520204743395938,13,-37,-2,69,1,15,-11,-91
1520204743402957,50,39,29,-6,68,54,86,9
1520204743402957,-64,8,-14,-30,-26,3,15,-28
1520204743419000,-65,5,14,26,16,-15,-25,-56
1520204743419000,48,22,9,-7,-12,-16,-8,29
1520204743421005,-107,-41,-50,-85,-73,-69,-57,-35
1520204743421005,58,-86,-32,53,37,32,13,87
1520204743441058,15,50,27,-9,-89,11,1,14
1520204743441058,10,-11,-11,7,32,19,7,-33
1520204743443064,12,35,16,10,32,-43,11,-21
1520204743443064,26,35,-18,-64,-91,-47,-73,67
1520204743455096,-69,-55,-5,66,114,53,72,42
1520204743455096,127,-11,-34,-50,26,-22,10,-15
1520204743464120,-44,-64,4,11,-75,-25,6,-1
1520204743464120,-41,-3,5,7,-20,-7,14,-128
1520204743479160,49,29,22,69,58,13,-37,-5
1520204743479160,-12,20,-8,-44,-61,-15,-6,34
1520204743480162,-21,-48,-11,7,-52,-7,-20,63
1520204743480162,44,44,-3,-82,8,-7,19,-53
1520204743501218,-26,10,-8,42,28,50,-25,71
1520204743501218,0,7,17,-13,44,69,94,-58
1520204743503224,23,50,31,-53,-101,-32,-31,15
1520204743503224,-88,-29,-17,51,40,-26,11,-51
1520204743515256,-58,-28,0,12,16,-9,5,11
1520204743515256,-39,-17,-5,-13,12,-49,-39,-64
1520204743524280,101,57,12,24,29,94,20,49
1520204743524280,-23,26,13,-22,-17,40,35,-38
1520204743539320,-16,-44,-24,-43,-57,-12,17,-79
1520204743539320,-26,29,16,22,7,0,-20,29
1520204743540323,21,-38,-13,-4,-39,-57,-7,-44
1520204743540323,-40,-9,2,40,115,78,-11,100
1520204743561378,109,58,19,1,-95,-19,7,-32
1520204743561378,93,-20,-11,9,50,13,-13,61
1520204743563384,22,-6,10,-40,-65,-43,-4,38
1520204743563384,127,-2,-26,47,127,-31,-84,29
1520204743575416,-67,13,17,-27,-51,-12,80,-17
1520204743575416,-62,-38,-12,-36,-96,-18,-11,-77
1520204743582434,26,42,1,25,43,27,20,-19
1520204743582434,-35,-6,7,-15,-59,-18,-61,62
1520204743598477,-51,-33,-13,6,13,24,13,-92
1520204743598477,52,8,1,-18,-3,-9,-13,41
1520204743600483,-91,-18,-2,9,44,-11,4,-107
1520204743600483,47,19,9,-7,-17,6,25,96
1520204743621538,-30,9,-2,-8,-1,6,-30,-7
1520204743621538,20,-3,-4,-8,-25,6,30,46
1520204743623544,-114,0,15,46,26,-8,-16,-36
1520204743623544,127,0,-11,23,65,94,45,-18
1520204743635576,-10,29,-3,-43,-90,-80,-82,69
1520204743635576,50,-23,-5,21,31,-7,-15,-13
1520204743642595,105,42,22,23,-23,5,-8,24
1520204743642595,-15,-5,1,-6,18,-39,19,-57
1520204743658637,-37,5,3,-13,-3,-4,1,-82
1520204743658637,-74,5,-8,-7,-11,5,-38,117
1520204743660643,-4,15,4,-3,-9,-43,12,-45
1520204743660643,-33,-20,-8,-12,-23,12,13,-70
1520204743681698,-9,-2,-5,4,-1,25,4,33
1520204743681698,7,25,19,14,1,-30,20,1
1520204743682701,-8,-6,-8,-98,-57,44,-35,89
1520204743682701,-35,-30,2,81,53,-41,90,-112
1520204743694733,51,-34,-24,-33,-16,-19,-34,127
1520204743694733,127,59,17,-24,-35,4,-6,-85
1520204743703757,-36,-35,-13,-20,-10,-11,9,-58
1520204743703757,-8,6,0,-25,-69,31,-18,-47
1520204743726818,63,13,6,19,60,-17,-21,-34
1520204743726818,44,27,3,11,13,-27,-8,1
1520204743727821,-48,-41,-21,12,35,2,2,20
1520204743727821,30,28,17,-16,-62,-3,-13,14
1520204743741858,-26,-10,3,24,17,23,25,-60
1520204743741858,32,-11,-3,-11,-67,0,-13,-43
1520204743742862,-87,9,1,28,61,-4,-13,-5
1520204743742862,-2,-13,-2,-18,-84,-49,-17,30
1520204743754893,68,47,19,10,84,90,7,32
1520204743754893,-51,-26,-1,13,-14,-31,45,-45
1520204743763917,98,30,0,18,2,6,30,-12
1520204743763917,-89,-39,-14,-19,2,-27,-52,-4
1520204743778957,-27,8,8,-4,-27,42,34,-80
1520204743778957,12,-20,-15,-37,-85,22,-57,127
1520204743780963,90,9,16,72,67,-34,29,-77
1520204743780963,-5,18,0,-16,-21,18,19,28
1520204743801016,31,-13,-15,-18,-39,-11,-1,71
1520204743801016,23,-9,15,2,12,-31,-10,-25
1520204743803021,43,-22,-20,-21,-34,-30,0,35
1520204743803021,48,-13,-5,-10,12,23,-10,-23
1520204743815053,-4,5,2,0,-37,-71,-1,-19
1520204743815053,-42,18,3,1,70,55,-15,35
1520204743824077,33,10,2,-1,1,4,-16,-7
1520204743824077,-23,-4,-4,0,20,-21,10,-22
1520204743839117,-25,-1,-2,-7,-3,-12,-12,42
1520204743839117,-73,-18,-5,13,-21,-9,5,-12
1520204743840120,37,8,5,19,97,71,20,34
1520204743840120,-23,-1,-2,-8,10,11,8,-36
1520204743861176,74,11,3,-7,-42,-44,-3,-43
1520204743861176,30,-3,-11,-13,-10,34,-27,60
1520204743863181,-128,-36,-13,-5,-4,-27,10,-38
1520204743863181,52,12,6,-2,-6,-9,-11,49
1520204743875213,2,6,12,8,28,30,4,48
1520204743875213,34,-8,-9,-9,12,-9,29,16
1520204743884237,55,12,-4,0,-53,41,-3,47
1520204743884237,-26,-4,1,-3,8,-34,25,-23
1520204743899277,37,9,-9,-1,-3,6,7,34
1520204743899277,-83,-10,8,-1,-1,-9,-23,-9
1520204743900280,17,-22,-6,-14,-13,3,8,3
1520204743900280,-7,8,-1,1,30,-13,-10,-9
1520204743921336,93,-5,-8,-4,-27,-6,14,-36
1520204743921336,-59,4,1,2,6,-43,1,-29
1520204743923341,24,13,6,-5,10,37,-34,12
1520204743923341,-36,-14,0,4,-2,29,1,-47
1520204743935373,-17,-13,-6,-1,-53,36,-7,-19
1520204743935373,104,29,5,6,6,-37,-31,-21
1520204743944398,-86,-18,1,-5,-19,-65,-2,10
1520204743944398,19,4,0,1,-8,17,1,14
1520204743959437,33,4,-4,-5,-5,4,11,-5
1520204743959437,-78,-35,-12,-2,-9,24,-15,35
1520204743960440,46,9,0,2,-13,1,11,-20
1520204743960440,6,33,7,-10,-5,40,-4,33
1520204743981496,-82,-21,0,1,7,-19,-32,10
1520204743981496,40,-10,-2,9,7,14,25,-20
1520204743983501,-30,-15,-6,0,5,-26,-11,-56
1520204743983501,8,-1,-7,-11,-22,-9,-21,-2
1520204743995533,18,-2,8,10,22,19,-6,-44
1520204743995533,45,17,0,0,-5,-65,46,-41
1520204744004557,-79,-14,3,-1,-26,-11,-34,111
1520204744004557,122,19,13,10,-3,27,7,-24
1520204744017592,-68,-16,-10,0,19,-10,20,5
1520204744017592,48,2,2,-4,-12,-4,0,-43
1520204744026616,59,15,0,-3,-7,-5,-3,61
1520204744026616,7,-4,-2,3,-13,3,3,25
1520204744041656,73,22,6,13,73,48,15,-18
1520204744041656,-128,-30,-12,-6,-5,-14,9,-56
1520204744042659,42,2,-1,-2,1,-4,11,-59
1520204744042659,-100,-6,-5,-13,-14,0,-17,19
1520204744054691,46,-3,1,1,-9,-1,14,-32
1520204744054691,-41,4,-5,-5,5,27,-20,-40
1520204744063714,-2,4,4,9,12,-5,7,-59
1520204744063714,3,4,2,1,4,6,6,49
1520204744078755,-26,-1,2,1,-7,-15,-2,-5
1520204744078755,68,11,3,3,17,17,8,23
1520204744084770,-11,13,3,-2,-18,-32,-7,6
1520204744084770,-42,-16,-7,-5,13,11,-7,16
1520204744101816,-11,-3,6,2,-24,-58,-1,-42
1520204744101816,54,19,2,0,-5,51,3,84
1520204744102819,-47,-22,-6,-7,11,-21,-25,-12
1520204744102819,34,7,4,6,4,0,13,-11
1520204744123874,-28,-13,-13,-13,24,-12,-9,-14
1520204744123874,9,13,8,9,22,37,26,-24
1520204744125880,55,3,1,1,-16,-2,-10,5
1520204744125880,22,-18,-7,-5,14,-17,-6,11
1520204744137912,6,17,1,-6,-13,7,-5,14
1520204744137912,-4,-5,-4,4,-22,-12,-1,-27
1520204744144930,11,3,-2,-6,6,16,-17,-5
1520204744144930,-2,11,-1,-13,-19,-9,19,29
1520204744160973,5,0,9,13,0,0,-7,39
1520204744160973,-49,-14,-2,-4,3,-6,-15,56
1520204744162979,110,29,7,8,-1,-4,8,-22
1520204744162979,-86,-11,-4,-3,-8,3,-3,-40
1520204744184034,-48,-24,-10,-13,-20,-20,-18,3
1520204744184034,60,14,8,7,8,-12,-8,-1
1520204744185037,-26,-11,2,1,-6,15,12,-4
1520204744185037,85,11,2,6,16,9,1,27
1520204744198072,112,30,2,4,5,-7,3,53
1520204744198072,-128,-62,-23,-25,-52,2,-32,41
1520204744205090,39,-8,-2,9,77,11,-1,26
1520204744205090,127,17,4,7,12,23,10,-30
1520204744222136,-98,-27,-5,-2,-8,-6,-3,-25
1520204744222136,106,31,9,14,22,27,25,26
1520204744227149,-16,-2,-10,-14,-32,-28,-14,-36
1520204744227149,-128,-23,-9,-8,-6,-16,-8,-23
1520204744244195,21,14,2,1,6,15,11,-9
1520204744244195,8,2,5,-3,-1,-13,4,-2
1520204744245198,9,4,4,10,-9,28,1,-15
1520204744245198,-86,-4,0,-5,4,-11,-2,-56
1520204744258232,-27,-11,-6,-11,-12,-4,0,-23
1520204744258232,88,16,1,9,16,20,11,2
1520204744265251,-120,-32,-9,-12,-34,5,-7,-63
1520204744265251,127,12,5,15,17,20,-4,1
1520204744281293,-53,-11,-5,-5,-7,-21,-6,-10
1520204744281293,-10,-2,2,2,11,-8,-1,-40
1520204744283299,100,18,-3,-3,-8,1,9,-14
1520204744283299,-32,7,7,5,-20,-70,0,-12
1520204744304355,24,0,2,5,10,82,30,96
1520204744304355,-88,-23,0,-1,16,-22,-35,-27
1520204744305358,64,6,6,2,-8,2,9,28
1520204744305358,59,15,0,-2,-16,4,2,4
1520204744318392,64,4,7,8,9,6,19,-76
1520204744318392,-57,-3,-3,-1,-13,-9,-4,-28
1520204744325411,-81,-13,-6,-9,-1,-6,7,46
1520204744325411,-20,-20,0,2,0,18,-9,0
1520204744341453,30,39,3,3,3,-1,1,1
1520204744341453,63,-2,-8,-8,-1,3,1,-3
1520204744343459,-89,-6,1,-9,-27,-36,-7,-47
1520204744343459,70,-5,-14,-2,25,-9,-10,102
1520204744363512,-32,-11,6,0,-8,-20,-18,-44
1520204744363512,-37,2,3,4,6,1,4,-36
1520204744365518,81,37,3,3,1,0,18,74
1520204744365518,-24,-13,-3,-11,-20,-6,-5,3
1520204744377549,-39,-21,-8,-9,-32,-20,-22,34
1520204744377549,107,10,2,12,61,24,-4,1
1520204744386574,40,-4,1,3,3,6,2,11
1520204744386574,-10,9,-1,1,9,25,34,-39
1520204744401613,-41,-22,-13,-14,-29,-28,-34,44
1520204744401613,-2,13,14,0,-23,-1,-4,-18
1520204744402616,32,-62,-14,3,27,5,-9,-5
1520204744402616,71,107,29,9,-4,8,18,-2
1520204744423672,-47,-31,-18,-1,6,-6,4,-83
1520204744423672,-80,-5,7,-9,-17,-21,-22,78
1520204744425678,61,-3,-4,2,8,8,12,-85
1520204744425678,5,-7,-6,-7,-17,-10,-18,82
1520204744437709,-15,-14,1,7,19,0,-12,-49
1520204744437709,25,-3,4,9,12,16,19,14
1520204744446734,-12,6,-13,-12,-20,-19,-19,-56
1520204744446734,-52,-16,3,1,1,5,-7,34
1520204744461774,-12,13,-2,-9,-7,-10,-6,12
1520204744461774,78,-19,-8,-2,-34,15,24,-59
1520204744462777,33,18,8,9,51,-6,-6,86
1520204744462777,-91,-47,-9,-1,-7,-3,-16,-114
1520204744483832,-24,8,-4,-11,1,0,5,29
1520204744483832,-38,8,-8,-10,-21,-12,-2,-100
1520204744485838,-27,20,4,-3,-17,2,-9,47
1520204744485838,32,-15,2,3,10,3,-6,-30
1520204744497870,20,-22,-3,2,5,4,5,-13
1520204744497870,26,36,8,0,3,-9,-5,-75
1520204744506894,-122,-44,-27,-18,-18,-11,-23,61
1520204744506894,10,47,18,2,2,-5,2,-40
1520204744520931,61,-32,10,18,10,12,16,-32
1520204744520931,18,-56,-13,3,11,5,9,41
1520204744522936,68,109,28,9,3,13,21,3
1520204744522936,-59,-35,-22,-15,-17,-7,5,-8
1520204744543992,85,0,2,0,4,4,-6,64
1520204744543992,72,17,3,4,12,7,15,15
1520204744545998,-68,-61,-5,-3,-7,-4,0,-63
1520204744545998,-79,-9,-5,-14,-10,-6,-5,-7
1520204744558030,82,15,2,12,10,5,7,-45
1520204744558030,-33,1,-10,-2,6,2,7,99
1520204744567054,-4,-8,-6,-10,-12,-2,-4,-59
1520204744567054,32,-38,-19,-2,2,2,2,12
1520204744581091,-45,-23,-1,-1,1,-2,0,4
1520204744581091,-93,67,27,1,-5,-13,-23,-63
1520204744583096,127,26,7,7,4,20,37,6
1520204744583096,-91,-76,1,13,12,-3,-26,-102
1520204744604152,-7,-4,-6,-13,-14,-10,-5,-30
1520204744604152,73,-29,-19,-9,-4,-1,9,70
1520204744605155,5,69,9,4,-1,1,3,-64
1520204744605155,118,-21,9,7,9,9,3,112
1520204744617187,9,54,7,-4,-6,-3,-6,17
1520204744617187,31,-86,-26,-7,-5,-12,-25,-19
1520204744626211,14,41,24,17,10,3,-3,28
1520204744626211,23,-55,-31,-17,-11,-7,-10,-19
1520204744641251,-107,127,61,29,19,18,22,-39
1520204744641251,-34,-32,-27,-12,-8,-8,-3,-41
1520204744643256,12,-29,7,-1,0,1,-8,106
1520204744643256,-39,57,15,10,4,3,5,-32
1520204744664312,127,-25,-11,4,9,17,21,0
1520204744664312,-97,-54,-4,-4,-4,-10,3,-32
1520204744665315,-12,39,3,7,4,7,-1,-64
1520204744665315,36,-3,-10,-19,-13,-5,8,104
1520204744677347,-56,-36,-10,-8,-5,-14,-23,20
1520204744677347,73,-40,-18,0,-4,-18,-52,38
1520204744686371,-35,6,17,4,0,4,37,-108
1520204744686371,-38,-11,4,9,6,8,15,80
1520204744701411,127,-48,-19,-2,1,1,-15,13
1520204744701411,-110,-71,2,-6,-3,2,21,-51
1520204744703416,-18,-87,-44,-14,-8,-12,-22,-6
1520204744703416,66,65,45,29,20,15,8,-6
1520204744723469,-8,41,6,4,0,-8,3,-40
1520204744723469,-99,49,3,-10,-9,-6,-10,35
1520204744725475,91,-59,-25,-8,-2,-2,-1,-87
1520204744725475,127,12,-8,-7,-6,8,9,58
1520204744737507,-71,-47,-14,-13,-10,-32,-24,4
1520204744737507,127,58,12,14,17,29,41,-101
1520204744746531,-6,3,1,3,6,22,5,57
1520204744746531,88,23,-6,-19,-26,-36,-55,51
1520204744761571,36,22,18,3,-3,-3,23,3
1520204744761571,-87,5,-9,-12,-9,-14,-13,-42
1520204744762574,-128,-68,-9,-10,-9,-11,1,12
1520204744762574,59,14,-5,6,12,30,52,-120
1520204744783629,74,27,-8,-4,-6,-17,-38,91
1520204744783629,127,35,7,0,-1,12,-13,117
1520204744785635,-5,-23,5,-11,-13,-12,-43,104
1520204744785635,60,17,11,6,1,-3,-3,-95
1520204744797667,-65,-13,-13,-10,-15,3,12,-89
1520204744797667,59,43,12,29,37,15,52,4
1520204744806691,-36,-21,-21,-9,-13,-27,-28,-24
1520204744806691,-58,-18,3,2,9,32,-31,29
1520204744821731,-14,-35,-11,-5,-19,-7,34,74
1520204744821731,-53,5,8,-3,16,57,-18,78
1520204744822734,127,37,6,-1,-13,-5,12,18
1520204744822734,-109,-7,8,32,69,-69,12,-100
1520204744843790,41,-12,-3,0,-13,-79,29,-128
1520204744843790,60,11,4,3,-33,76,-11,62
1520204744845795,43,28,20,16,61,-23,29,-43
1520204744845795,15,22,-19,-18,-23,46,25,-16
1520204744857827,-7,-26,4,7,17,-24,-22,9
1520204744857827,6,47,37,7,-3,-73,-23,-83
1520204744866851,-65,-9,-15,-13,-31,57,20,-18
1520204744866851,8,-1,-6,-2,-17,-32,-31,2
1520204744881891,-35,-25,-8,15,23,-14,-16,-63
1520204744881891,-45,-38,-24,-24,-14,78,22,120
1520204744882894,24,10,7,11,18,-56,4,-46
1520204744882894,-7,-14,1,-6,-15,-17,-9,-22
1520204744903950,24,26,9,-6,-19,13,-20,75
1520204744903950,77,2,-14,-10,-22,-45,-1,75
1520204744905955,28,35,10,-4,10,-4,-34,59
1520204744905955,-109,-33,-36,-40,-59,12,-42,-46
1520204744917987,96,27,15,18,44,43,82,-1
1520204744917987,-29,20,13,20,29,-9,30,19
1520204744927011,-64,-62,-12,13,3,-23,-18,-90
1520204744927011,92,26,13,-11,-4,28,-33,127
1520204744941048,-28,9,8,-10,-20,-20,-40,-71
1520204744941048,118,31,-7,-3,-11,-33,40,-60
1520204744943054,-14,-17,3,5,-24,26,24,-12
1520204744943054,-39,-1,-8,-16,4,-17,11,-2
1520204744964110,20,-20,-5,12,46,50,-7,53
1520204744964110,-69,-7,17,-2,-53,-30,17,-128
1520204744965113,33,-15,-15,-15,11,-28,-30,103
1520204744965113,-60,-3,6,4,-8,19,13,93
1520204744977144,-68,-36,-15,-3,-8,28,26,-57
1520204744977144,36,7,-23,-32,31,-20,-20,-27
1520204744986168,35,2,45,66,1,12,12,-100
1520204744986168,-48,-24,11,25,-19,10,25,42
1520204745001208,-76,-8,-26,-36,-3,-28,-17,72
1520204745001208,-1,-4,1,-24,-21,9,-36,25
1520204745007224,26,19,-25,-5,15,15,2,-21
1520204745007224,99,1,-34,-86,71,-19,-2,26
1520204745024270,62,47,81,127,-62,-6,-18,61
1520204745024270,-36,-8,2,-27,-52,-12,6,-4
1520204745025273,65,24,-24,-63,69,12,11,-26
1520204745025273,58,13,10,4,-23,-17,10,26
1520204745046328,-23,17,-29,-64,2,0,-35,-34
1520204745046328,83,-19,-5,32,37,-10,-13,-8
1520204745048334,-15,-16,-23,-77,-101,-10,2,51
1520204745048334,52,13,1,48,82,-6,31,-128
1520204745060366,-101,-14,24,27,-22,17,-10,70
1520204745060366,-34,-16,0,-5,8,8,-27,-78
1520204745067384,-23,6,-10,-20,-4,-38,28,-64
1520204745067384,4,7,16,53,-19,27,11,7
1520204745084430,48,2,-22,-51,-25,-7,9,75
1520204745084430,82,49,2,28,24,-13,-6,-52
1520204745085434,-18,-2,11,6,-26,9,-5,-11
1520204745085434,-128,-35,-11,-19,-7,-16,-6,36
1520204745106488,-11,12,12,38,15,14,17,-92
1520204745106488,-48,-10,-4,-18,20,-8,-3,-2
1520204745108494,-31,13,18,9,26,5,-14,8
1520204745108494,-41,-33,0,26,-46,7,-20,-20
1520204745120526,0,-14,-29,-45,55,20,61,-62
1520204745120526,-76,17,26,56,35,3,43,3
1520204745127545,-11,-2,8,-15,-29,-33,-63,-2
1520204745127545,-52,-11,-35,-91,5,-20,-22,-56
1520204745143587,-22,49,32,67,-69,-45,-60,69
1520204745143587,106,-32,-13,-33,-61,22,102,26
1520204745145593,-4,25,-5,17,53,37,-8,90
1520204745145593,118,-12,8,4,43,11,37,-94
1520204745166648,-23,0,-11,-51,-29,14,3,27
1520204745166648,-72,-14,-1,40,28,24,-48,-83
1520204745167652,-22,-15,9,25,28,-7,20,-1
1520204745167652,45,21,0,51,32,-22,-13,30
1520204745180686,-43,-65,-18,-6,-34,43,11,-19
1520204745180686,-16,-12,-12,-79,54,11,-18,-4
1520204745187705,34,19,35,56,-114,9,-1,-70
1520204745187705,5,0,-2,1,24,29,14,-113
1520204745203747,120,34,-3,-50,-35,-31,-26,-3
1520204745203747,-47,-20,7,68,-13,22,-14,55
1520204745205753,33,-3,-26,20,93,24,7,-4
1520204745205753,25,68,58,58,-41,-17,23,-18
1520204745226809,28,-17,-34,-66,50,-11,-10,-66
1520204745226809,12,29,34,76,-54,-13,-59,42
1520204745227811,3,-18,-23,-47,-79,23,77,43
1520204745227811,-36,2,13,14,11,-9,4,-15
1520204745240846,55,-7,-11,-30,-11,30,-11,13
1520204745240846,-86,-19,-16,11,80,22,37,-68
1520204745247865,-101,-13,9,8,-37,-55,-50,62
1520204745247865,6,-2,-12,-30,9,35,16,-95
1520204745263907,-25,-16,-2,31,34,-29,-24,105
1520204745263907,22,52,26,-45,-62,-65,-39,1
1520204745265913,43,-14,7,-2,-15,-3,14,-28
1520204745265913,-3,-37,-37,-14,-38,-1,15,-63
1520204745285966,-80,14,23,39,23,-10,-24,1
1520204745285966,70,11,-7,-48,-16,10,4,55
1520204745287972,34,25,26,79,125,38,-33,-108
1520204745287972,44,-17,-20,-31,-51,-20,-13,-16
1520204745301006,47,27,4,3,4,19,22,-72
1520204745301006,-11,-39,-16,-34,1,-41,-17,55
1520204745308025,-23,23,8,-27,-75,-18,0,-17
1520204745308025,2,-2,-9,11,37,28,-5,96
1520204745324067,23,-10,-2,11,7,33,10,-63
1520204745324067,-20,-1,6,17,5,22,62,26
1520204745325070,46,3,-9,-23,-15,-11,-13,-38
1520204745325070,-74,-9,6,-30,-48,-13,-28,64
1520204745346126,-65,-7,0,-1,13,-4,-36,55
1520204745346126,86,9,10,2,-34,-19,-2,-74
1520204745348131,-6,-26,-22,44,60,-1,14,-12
1520204745348131,5,-10,-1,2,11,-7,-1,-3
1520204745360163,11,20,14,-57,-43,-4,5,1
1520204745360163,-21,-18,-21,29,-27,-30,-43,-23
1520204745369188,40,9,3,16,65,35,-37,13
1520204745369188,74,40,28,29,-56,-39,28,18
1520204745384227,24,-33,-23,1,32,18,32,-29
1520204745384227,-34,-27,-24,-33,-19,-2,-10,-13
1520204745385230,10,8,2,-48,-81,-26,1,10
1520204745385230,-11,3,13,18,19,20,-35,-8
1520204745406286,-24,-13,-13,-28,-8,-21,28,-35
1520204745406286,25,23,22,-6,15,64,54,-24
1520204745408292,-13,-2,3,43,44,-25,-15,17
1520204745408292,21,-13,-20,-9,6,-7,-18,53
1520204745420323,-3,-1,-1,16,11,2,14,-15
1520204745420323,-62,7,16,-16,-28,5,0,-19
1520204745429348,-77,-24,-5,-111,-52,-42,-63,4
1520204745429348,23,18,16,72,86,38,20,47
1520204745444387,59,-4,7,102,56,-26,35,-44
1520204745444387,25,-2,-15,-4,89,41,16,73
1520204745445391,3,20,12,-7,-21,28,25,-20
1520204745445391,-73,-28,-17,-105,-84,-60,-68,7
1520204745466446,9,10,6,21,-49,-39,-47,19
1520204745466446,-38,-11,-5,39,81,6,-2,-45
1520204745468452,6,-2,-1,52,91,21,56,31
1520204745468452,-6,-4,-9,-48,-30,29,46,-14
1520204745480483,56,1,-6,-7,-6,-14,-40,-17
1520204745480483,-29,20,12,-94,-116,-107,-47,-19
1520204745495523,49,-11,-2,70,26,15,30,-114
1520204745495523,-24,-6,-10,17,23,20,-27,46
1520204745503545,12,-3,-10,-81,-23,-31,4,-35
1520204745503545,34,22,12,47,-45,-13,-18,-17
1520204745505550,-39,-16,-15,-48,20,3,-6,21
1520204745505550,15,19,15,23,-13,-3,6,-64
1520204745526606,-9,-11,-8,-47,-14,10,-20,120
1520204745526606,-16,-12,-9,10,-3,-3,-1,-32
1520204745527609,1,4,0,6,-16,4,24,34
1520204745527609,2,-9,-8,7,14,0,-2,9
1520204745539641,28,14,9,8,6,20,41,-9
1520204745539641,-2,2,-9,-83,-65,-42,-54,-24
1520204745548665,3,-1,7,57,48,29,65,44
1520204745548665,-39,-35,-16,-12,24,-20,15,-71
1520204745563705,-2,11,8,10,10,39,-8,46
1520204745563705,13,-3,-5,1,5,-23,-5,-15
1520204745565710,14,29,5,-31,-90,33,-36,46
1520204745565710,9,6,4,-3,42,-20,11,-29
1520204745586766,8,-8,-4,10,-13,-4,74,-62
1520204745586766,5,23,17,30,42,37,30,100
1520204745587769,-51,-37,-19,-36,-45,-46,-69,-83
1520204745587769,-7,0,2,26,17,11,8,11
1520204745599801,2,9,2,6,6,8,-27,-8
1520204745599801,14,-11,-3,15,8,1,14,-20
1520204745608825,-14,0,-10,-19,-15,12,1,7
1520204745608825,47,33,16,1,-20,2,8,7
1520204745623865,-43,2,8,17,-20,-1,-24,-25
1520204745623865,-27,-29,-13,6,26,11,-19,16
1520204745625870,19,14,4,-9,-14,-12,7,16
1520204745625870,-2,-18,-11,5,-3,10,17,30
1520204745645923,10,17,11,2,-1,19,1,22
1520204745645923,20,4,0,19,10,7,15,-68
1520204745647929,-30,-7,-2,-10,-2,-7,-8,67
1520204745647929,-16,-1,3,-6,-22,-7,-39,-7
1520204745668985,-13,-12,-6,-4,-5,-19,22,-38
1520204745668985,17,-5,-4,-1,-2,-3,-2,-40
1520204745670990,13,5,-1,-1,30,8,35,17
1520204745670990,12,13,7,2,-22,11,-12,45
1520204745684025,-18,-21,-11,-1,3,4,14,-4
1520204745684025,-26,-14,-6,10,23,-18,-27,-46
1520204745686030,26,17,4,-8,-18,-10,8,5
1520204745686030,21,6,1,-7,-17,-19,9,34
1520204745706083,-45,-8,-6,-2,11,41,-25,-3
1520204745706083,29,5,-2,0,-10,2,33,-4
1520204745708089,75,16,7,11,36,6,-9,-45
1520204745708089,-94,-33,-13,-9,-13,-8,-45,20
1520204745720121,-1,1,-5,-2,17,-23,27,-31
1520204745720121,-15,-1,0,4,8,1,-5,-19
1520204745729145,-20,-10,-3,-8,-53,-33,-21,33
1520204745729145,27,5,0,0,18,10,7,-42
1520204745744185,46,7,5,5,9,1,-10,18
1520204745744185,6,5,2,2,-1,3,-10,-44
1520204745745188,-14,-6,0,2,-8,-7,1,-3
1520204745745188,31,11,1,1,-12,-14,4,-4
1520204745766243,-70,-18,-6,-1,-7,-15,-16,3
1520204745766243,45,11,5,5,8,3,13,28
1520204745768249,-31,-5,-2,-7,0,5,-6,-26
1520204745768249,22,7,0,2,1,11,10,18
1520204745780281,20,0,3,0,8,11,-2,-12
1520204745780281,-58,-18,-11,-5,-4,11,7,26
1520204745789305,-26,-11,7,7,11,3,-19,-45
1520204745789305,16,4,3,8,1,4,6,-1
1520204745804345,33,12,0,0,-1,-3,5,-7
1520204745804345,8,-22,-11,0,-2,34,1,59
1520204745805348,-28,-22,-3,-5,-11,-12,4,10
1520204745805348,30,14,1,-6,-5,-8,3,-20
1520204745826403,-6,-9,-2,0,2,-1,-10,28
1520204745826403,46,15,5,-1,-28,10,11,5
1520204745828409,36,5,-2,5,64,14,6,50
1520204745828409,-89,-34,-8,-5,-10,-6,-13,-26
1520204745840441,7,14,-4,-1,-3,-4,-3,-4
1520204745840441,44,16,8,0,0,10,2,23
1520204745849465,-57,-12,-3,-4,-17,-2,3,-30
1520204745849465,86,1,-9,-4,-1,-2,4,79
1520204745863502,-48,-4,1,4,4,-3,-14,7
1520204745863502,-23,6,3,5,8,-12,1,-38
1520204745870521,39,24,6,-1,-10,3,3,22
1520204745870521,22,-8,3,10,10,7,8,-93
1520204745886563,-76,-27,-26,-23,-24,-16,-20,74
1520204745886563,17,-13,3,-3,9,-3,-1,34
1520204745888569,89,31,8,6,-4,8,10,-22
1520204745888569,-111,-10,-2,-4,-6,-8,-11,-42
1520204745899598,83,6,4,2,0,1,0,31
1520204745899598,-63,-18,-12,-9,-4,-20,-13,-60
1520204745908622,36,-7,-4,0,-3,5,-10,-30
1520204745908622,-51,-2,6,1,-6,-14,-13,-53
1520204745923662,100,15,5,10,10,10,12,15
1520204745923662,-50,-6,-4,-4,8,1,-3,12
1520204745929678,-89,-22,-11,-15,-22,-3,-4,-37
1520204745929678,82,17,-3,-8,-7,3,0,14
1520204745946723,-37,-13,-1,1,-9,-16,-3,-31
1520204745946723,127,20,7,17,41,13,7,-2
1520204745947727,-87,-9,-15,-23,-24,-6,-14,6
1520204745947727,-51,-9,10,9,7,6,7,42
1520204745959758,-19,-1,-3,-9,-12,12,-9,-33
1520204745959758,51,4,-2,-1,-6,0,8,-11
1520204745968782,59,1,-1,4,7,39,6,13
1520204745968782,-34,8,4,-2,-3,-36,-12,27
1520204745982820,-30,-10,-1,0,-1,-3,-5,-25
1520204745982820,-33,-3,-6,-13,-14,1,-1,-20
1520204745991844,5,3,9,26,28,10,9,2
1520204745991844,1,0,-3,8,-17,-17,-14,-2
1520204746006883,-34,-1,7,5,8,3,11,-6
1520204746006883,33,-3,1,2,-1,-11,-7,-22
1520204746007889,3,8,1,-17,-21,3,13,-15
1520204746007889,80,6,-1,-2,12,-13,-2,47
1520204746028943,-118,-10,4,-2,2,-24,-7,18
1520204746028943,94,16,3,0,-4,9,7,30
1520204746030948,-96,-20,-13,-22,-27,-41,-28,-17
1520204746030948,7,2,2,-14,9,24,12,-42
1520204746042980,99,6,-1,26,-4,-40,-25,-14
1520204746042980,1,9,2,-1,2,-12,33,53
1520204746049998,-72,-15,-1,-7,-6,1,-11,-41
1520204746049998,-7,-5,0,6,19,13,9,-24
1520204746066041,34,-2,-8,-18,-8,6,2,5
1520204746066041,-29,4,4,2,10,9,-7,-26
1520204746068046,46,6,4,4,-1,-18,11,7
1520204746068046,-2,4,-4,-16,-18,4,7,15
1520204746089103,51,-3,-1,2,5,9,6,2
1520204746089103,-75,-5,-1,5,-4,4,-4,-29
1520204746090105,-49,-8,0,0,5,9,-9,37
1520204746090105,27,9,7,7,3,7,7,36
1520204746103140,-6,-7,4,2,1,13,-12,-63
1520204746103140,31,3,-2,2,-2,-8,2,21
1520204746110158,26,2,-7,-7,1,-10,1,20
1520204746110158,11,1,4,11,1,-8,-6,-15
1520204746126201,-40,11,7,1,6,18,17,11
1520204746126201,-37,-7,-7,-11,-10,-11,-13,5
1520204746128207,121,20,7,13,11,10,16,-9
1520204746128207,-92,-33,-17,-8,-11,-15,-20,28
1520204746149262,12,8,0,-4,-5,-9,13,3
1520204746149262,-13,-3,7,7,1,-4,-2,-44
1520204746150265,30,3,1,11,7,11,16,28
1520204746150265,-11,9,-3,-12,-14,-17,-2,-14
1520204746163300,-31,-23,-7,-4,8,-16,-17,-28
1520204746163300,13,11,-5,-3,3,13,6,26
1520204746170318,100,25,4,-1,-5,-6,14,-41
1520204746170318,-53,-28,-1,1,4,11,-2,3
1520204746186361,-7,17,1,2,2,11,-4,-2
1520204746186361,-32,7,-10,-11,-13,-19,-13,98
1520204746188367,6,-17,1,-7,-4,-13,-22,-65
1520204746188367,19,-12,-5,2,1,14,11,-43
1520204746208420,8,15,-3,-9,-9,0,-9,43
1520204746208420,26,-8,-5,6,5,5,10,-47
1520204746215438,87,15,-3,-4,-8,-12,-30,127
1520204746215438,-38,-9,4,-2,1,6,3,-51
1520204746223460,-65,-38,-9,-1,5,11,31,-90
1520204746223460,80,22,8,10,5,-1,-7,-43
1520204746230478,-128,-25,-9,-4,-4,-5,-7,61
1520204746230478,127,25,12,10,5,2,1,20
1520204746246521,86,34,-4,-3,0,9,6,65
1520204746246521,-106,-12,3,-8,-9,-4,-15,-5
1520204746248527,74,0,11,14,13,17,36,-34
1520204746248527,12,5,-1,0,-3,-6,-29,116
1520204746268580,38,-14,-3,3,5,10,16,-31
1520204746268580,-78,0,-3,-9,-11,-14,-15,-43
1520204746270586,-47,-39,-13,-3,-3,-9,-14,-6
1520204746270586,49,-2,1,3,9,14,31,-76
1520204746282617,-35,-25,-12,-6,-9,-5,-4,20
1520204746282617,-14,4,14,2,2,-3,-21,60
1520204746291641,-17,3,1,4,5,12,25,-29
1520204746291641,69,-32,-17,0,0,2,0,-96
1520204746306681,-86,6,-8,-14,-15,-15,-18,78
1520204746306681,121,-41,-16,-10,-5,1,12,20
1520204746307684,26,14,12,5,1,-2,-2,-20
1520204746307684,88,50,16,8,8,10,6,26
1520204746328740,-22,-10,-6,-7,-5,-4,-7,-20
1520204746328740,-63,-24,-1,2,0,2,8,-45
1520204746330745,49,47,2,-3,-4,-5,-12,115
1520204746330745,-36,-28,-4,-1,0,2,17,-95
1520204746342777,127,-15,0,7,6,2,10,-26
1520204746342777,-83,19,14,-1,0,0,-31,71
1520204746351801,-51,21,-5,-7,-8,-8,4,-75
1520204746351801,-89,4,7,2,-2,-5,-25,36
1520204746366841,-79,2,4,-3,-1,3,16,-69
1520204746366841,80,-29,-16,3,5,7,6,-33
1520204746367844,50,51,6,-1,-3,-8,-5,31
1520204746367844,-76,7,5,-7,-7,-8,-16,48
1520204746388900,78,3,11,13,8,4,2,-47
1520204746388900,-58,-72,-16,2,1,-6,-3,-13
1520204746390906,73,68,1,-1,4,7,11,-4
1520204746390906,-42,-4,-18,-16,-12,-10,-11,-31
1520204746402937,46,36,18,9,9,8,4,60
1520204746402937,114,-4,-4,1,-1,-1,0,40
1520204746411961,-108,36,17,4,1,4,6,-1
1520204746411961,37,-46,-17,3,3,4,13,21
1520204746425998,-27,-24,-9,1,4,14,22,58
1520204746425998,47,99,22,-5,-10,-14,-33,85
1520204746428004,-43,-77,-18,-5,-5,-3,12,-80
1520204746428004,21,12,7,2,2,1,-6,127
1520204746449060,-60,-11,-5,-7,-5,-11,-3,-52
1520204746449060,78,22,10,18,16,19,54,-90
1520204746451066,-61,-49,-2,-13,-8,-5,-57,107
1520204746451066,47,25,11,2,0,-3,13,-90
1520204746462094,112,-4,-10,1,1,-1,4,-82
1520204746462094,-64,-21,-13,-20,-20,-30,-51,72
1520204746472121,56,-26,1,8,10,24,26,-128
1520204746472121,20,-22,-16,-2,0,-2,20,-102
1520204746486158,-116,-13,1,0,1,11,5,65
1520204746486158,127,61,2,4,4,-6,-19,29
1520204746488164,-28,-66,-14,7,11,4,35,80
1520204746488164,-95,-12,3,-9,-8,-15,-32,-7
1520204746509220,127,86,37,8,-4,2,3,47
1520204746509220,-66,-17,-12,-6,-2,-20,20,-95
1520204746510223,-6,0,-2,-2,0,12,-36,-12
1520204746510223,84,6,-5,9,11,29,25,42
1520204746522254,15,-16,-10,-4,-3,-32,-7,-55
1520204746522254,-128,-29,-10,-9,-9,14,10,-37
1520204746531279,80,10,10,0,-12,-60,-72,60
1520204746531279,-12,3,-12,10,20,40,91,-59
1520204746546318,-86,-23,-5,-15,-17,-33,-80,77
1520204746546318,49,13,15,-1,2,46,45,-66
1520204746548325,26,4,-1,1,-11,-35,15,-128
1520204746548325,-30,7,1,-6,-7,61,-38,36
1520204746569380,127,25,-8,-6,-10,-70,22,-5
1520204746569380,-51,-36,-18,-1,10,19,-1,-95
1520204746570383,20,-1,-18,-12,-9,-6,7,38
1520204746570383,38,44,44,8,-2,0,-52,-49
1520204746582414,63,-8,-9,2,1,18,-2,-112
1520204746582414,100,0,-5,6,14,21,-3,-67
1520204746591439,24,-25,-22,-16,-21,-39,9,3
1520204746591439,-41,-18,1,0,3,-27,5,43
1520204746606478,-57,11,10,10,-1,10,15,-62
1520204746606478,114,28,25,17,9,8,10,-18
1520204746608484,-58,7,16,13,15,36,40,-45
1520204746608484,21,1,-26,-19,-16,-15,-21,53
1520204746628537,-74,-17,-1,-2,3,4,2,-112
1520204746628537,13,-15,-10,-6,-10,-43,20,6
1520204746636559,-84,-14,9,7,12,44,-11,95
1520204746636559,70,28,8,-1,-2,-36,2,12
1520204746642574,-77,-7,3,0,3,36,-9,21
1520204746642574,-88,-23,-16,-11,0,-12,4,58
1520204746651599,-70,7,27,4,-9,-12,-23,-118
1520204746651599,110,11,5,7,5,39,32,-95
1520204746666639,34,-17,-21,-7,10,-16,-3,-14
1520204746666639,-107,-74,-6,-10,-23,10,-7,30
1520204746667641,127,30,12,6,2,-16,-22,8
1520204746667641,42,-12,-7,-2,-2,-35,-3,24
1520204746688697,-56,-18,-9,-8,-7,-16,2,13
1520204746688697,87,47,11,5,8,32,-15,93
1520204746690703,14,-39,-23,-10,1,2,0,12
1520204746690703,-25,-6,3,-5,-8,-13,-17,5
1520204746702735,47,27,16,-2,-9,1,1,-10
1520204746702735,18,9,-13,-4,6,-23,20,-39
1520204746711759,-55,9,18,6,-12,55,10,-26
1520204746711759,-43,13,-1,-3,4,-51,-3,-31
1520204746726799,-46,-60,-14,-2,0,9,24,-44
1520204746726799,63,1,-25,-30,-16,-7,-43,20
1520204746727801,16,30,21,28,16,5,29,-48
1520204746727801,1,-13,-23,-10,2,8,-5,-95
1520204746748857,-67,20,45,31,-3,23,-13,0
1520204746748857,24,-13,-22,-12,11,-6,3,10
1520204746750864,79,19,-8,-7,-18,-16,16,9
1520204746750864,30,13,17,14,5,13,-1,-8
1520204746762895,-11,-36,-74,-77,3,-4,3,-4
1520204746762895,-8,13,71,83,-3,8,-6,31
1520204746771919,-54,-45,-49,-34,24,-1,24,-56
1520204746771919,-81,-3,27,15,-29,25,-15,71
1520204746786959,80,4,-7,-5,-53,-25,24,13
1520204746786959,-60,13,-6,-11,7,-22,-38,-76
1520204746787962,53,-13,-16,-27,-5,-32,-25,55
1520204746787962,20,11,-16,-2,29,27,-7,-31
1520204746809017,32,-44,-22,-25,20,11,3,69
1520204746809017,-30,23,31,27,-29,3,20,18
1520204746811023,-54,2,-4,-15,-23,-16,-14,-10
1520204746811023,-82,-38,-24,-1,2,-19,-9,21
1520204746823055,57,32,22,49,27,20,-15,61
1520204746823055,17,27,5,-17,-24,-15,13,-62
1520204746832079,-20,-7,5,6,28,20,8,80
1520204746832079,-49,-53,-55,-85,-2,-16,11,-7
1520204746846116,121,38,32,41,-7,0,-8,-35
1520204746846116,-20,27,17,15,28,-9,-14,-7
1520204746848122,-24,-19,1,52,-27,7,15,-24
1520204746848122,10,8,-2,-26,-15,3,-9,-8
1520204746869177,25,28,8,11,27,2,-40,108
1520204746869177,75,-7,-20,-22,9,-9,29,6
1520204746870180,-2,9,3,4,9,17,-2,8
1520204746870180,52,20,9,-22,-5,-20,-4,-19
1520204746882212,78,51,58,83,28,29,15,-17
1520204746882212,-51,-38,-14,14,-14,-22,-22,44
1520204746891236,40,1,-25,-63,-19,53,9,-32
1520204746891236,-16,-3,2,29,21,-15,22,38
1520204746906276,66,20,-18,-79,-86,-28,-25,9
1520204746906276,-80,-42,-7,-23,-41,-23,-12,-12
1520204746912292,50,13,18,66,82,-12,3,-58
1520204746912292,3,-2,4,23,6,13,-4,-24
1520204746929337,-41,-18,-3,-24,-44,15,-7,-28
1520204746929337,45,24,-7,5,43,29,46,-35
1520204746930341,-81,-61,-5,9,9,-16,-35,33
1520204746930341,35,22,18,22,1,-8,12,-20
1520204746950394,-32,-10,-13,-16,-4,-32,-26,-42
1520204746950394,14,-11,8,30,1,1,-2,43
1520204746959418,-31,24,23,-6,-20,-3,-10,-38
1520204746959418,27,4,0,38,-10,1,30,51
1520204746965433,-73,-46,-42,-92,36,21,0,83
1520204746965433,4,30,30,60,64,36,-23,-53
1520204746972452,-25,-11,-9,-49,46,-39,42,-45
1520204746972452,45,8,29,53,-49,-15,-23,12
1520204746988495,-50,2,-13,-57,-5,18,18,-54
1520204746988495,-42,-48,-42,-55,-8,-12,33,-17
1520204746990501,32,38,32,67,-43,36,-18,8
1520204746990501,64,11,3,-29,-23,-22,-23,81
1520204747011556,-83,-32,-24,1,57,0,19,-58
1520204747011556,5,17,27,59,18,9,-20,-30
1520204747013562,52,6,-4,-23,-66,-27,-13,-10
1520204747013562,-32,-23,-36,-98,-50,0,-8,-27
1520204747025593,20,28,35,76,58,-5,19,18
1520204747025593,38,-17,-18,-42,-49,-7,6,23
1520204747032612,28,3,-27,-88,2,5,16,4
1520204747032612,34,31,34,70,-17,9,-2,-50
1520204747048655,-50,-39,-16,-8,-7,-2,-3,68
1520204747048655,95,7,-12,-20,-9,-6,-10,-21
1520204747050660,-25,-3,6,14,-1,-7,-7,-55
1520204747050660,-8,-4,-7,-29,6,12,6,1
1520204747071716,28,5,7,9,-21,-4,-7,-87
1520204747071716,-10,-16,-2,-16,-2,-4,-4,54
1520204747072720,8,18,1,11,-8,3,-9,8
1520204747072720,-27,-17,-9,-11,13,0,5,-14
1520204747085754,5,8,-12,-41,-4,-2,22,0
1520204747085754,-62,-15,-6,-22,-51,-18,-84,-83
1520204747092772,68,11,-5,31,30,-10,63,7
1520204747092772,-37,-4,0,24,54,1,4,23
1520204747108815,11,21,17,12,-4,-2,6,-24
1520204747108815,-23,-9,-15,-33,-24,12,4,77
1520204747110821,12,-2,1,-23,-43,-9,-19,25
1520204747110821,12,11,3,-10,13,-9,-18,-10
1520204747131876,36,-7,-1,-10,-63,-6,-3,16
1520204747131876,-33,9,17,47,73,29,15,21
1520204747132879,30,1,0,8,15,5,12,-77
1520204747132879,-36,-13,-6,-26,-18,-2,3,124
1520204747145914,-27,-3,2,9,-4,-6,-15,-23
1520204747145914,12,5,-7,-24,-11,-6,10,-12
1520204747152932,-3,4,4,13,10,2,-11,35
1520204747152932,-8,-11,-6,-2,3,-5,-1,-116
1520204747168975,-5,-2,-2,7,-8,0,-4,57
1520204747168975,7,-4,-9,0,4,-8,9,-7
1520204747170980,-5,-2,-11,-3,35,8,-7,-6
1520204747170980,-25,1,18,-22,-57,-7,-2,-16
1520204747191034,82,10,3,51,40,7,-3,-46
1520204747191034,-63,16,18,16,10,7,31,42
1520204747193039,-2,-19,-15,-19,-27,2,-8,-35
1520204747193039,23,2,-15,-8,11,-14,-26,23
1520204747206074,-1,-14,4,4,4,14,-6,18
1520204747206074,5,7,5,-11,-11,-10,11,22
1520204747213092,-12,-8,-3,-25,-39,-11,4,3
1520204747213092,5,3,8,53,77,33,17,14
1520204747229135,-12,6,-9,1,-4,2,5,-21
1520204747229135,13,1,-15,-19,1,2,-7,-15
1520204747230138,-24,-15,-5,-14,-21,-12,-11,37
1520204747230138,15,12,33,16,-10,-2,2,6
1520204747251194,-1,3,-9,6,15,2,1,13
1520204747251194,8,-10,-5,-15,-9,-5,8,-21
1520204747253199,-4,5,30,25,12,6,-22,2
1520204747253199,-67,-8,-27,-6,-5,5,-1,29
1520204747265231,-16,-9,3,-12,-24,-21,1,-10
1520204747265231,9,-4,-12,4,-7,-23,-23,74
1520204747274255,4,-1,-8,-68,-63,6,17,-39
1520204747274255,37,14,21,75,84,41,8,11
1520204747289295,-17,9,9,-25,-36,2,18,0
1520204747289295,5,-6,-5,-12,-27,-39,-55,-48
1520204747290298,1,8,-3,-25,5,22,27,40
1520204747290298,12,-6,-3,-13,-23,-19,-36,1
1520204747311355,-1,-10,-6,8,10,18,-39,-22
1520204747311355,24,8,16,5,11,48,69,-62
1520204747313359,0,-13,-18,17,15,-22,-38,127
1520204747313359,31,-6,5,-26,-26,-22,-33,-79
1520204747325391,-9,-3,-4,30,23,0,29,21
1520204747325391,37,8,4,-25,7,-14,-22,-62
1520204747334415,-12,17,11,46,11,-12,-10,11
1520204747334415,-10,-36,-33,0,27,25,30,39
1520204747349455,8,11,12,-10,-11,-12,5,8
1520204747349455,-18,8,4,-3,-10,2,-23,-3
1520204747350458,26,3,-1,11,10,-11,-39,-35
1520204747350458,15,10,-2,-23,-23,-14,54,-9
1520204747371514,-20,3,12,15,13,3,-10,35
1520204747371514,-10,-13,-10,-3,-10,5,7,6
1520204747373519,4,-1,-1,7,11,-28,-51,-59
1520204747373519,-43,-1,-3,-18,-20,-22,40,1
1520204747385551,29,5,-3,-13,4,-10,4,38
1520204747385551,45,11,2,20,5,17,7,-26
1520204747394575,-72,-16,0,-17,-5,-12,-8,5
1520204747394575,1,-5,-7,0,-17,9,-16,-43
1520204747408616,9,-3,-2,2,6,4,-9,-9
1520204747408616,3,-4,-5,-8,1,4,15,31
1520204747410618,12,9,7,9,7,19,8,-21
1520204747410618,-1,2,-3,-15,-8,11,8,15
1520204747431674,19,10,3,11,-29,-15,-1,-62
1520204747431674,-39,-10,3,20,46,17,-2,-9
1520204747432677,19,-10,-18,-28,-14,-6,29,-8
1520204747432677,-48,6,7,20,5,37,-25,59
1520204747444708,12,-9,-7,-9,-1,11,25,12
1520204747444708,-3,7,6,-6,-12,-20,-6,-32
1520204747453733,13,3,-1,8,14,33,17,28
1520204747453733,4,-6,-5,-10,-13,-10,1,-17
1520204747468773,-28,1,2,1,12,19,-14,5
1520204747468773,0,-17,-12,-9,-12,-16,5,-78
1520204747470778,27,13,9,17,13,10,1,-17
1520204747470778,-33,0,0,-11,-17,-24,-10,-21
1520204747491834,-7,4,6,7,6,6,-2,37
1520204747491834,12,1,-1,1,1,-6,0,-21
1520204747492837,-8,-10,-7,3,-4,-2,13,-2
1520204747492837,5,3,-3,-5,1,-4,-10,38
1520204747504868,-9,-6,-3,-7,-10,-28,-22,-39
1520204747504868,15,11,5,13,16,25,30,3
1520204747513892,-37,-8,-1,4,4,15,-21,67
1520204747513892,21,5,3,3,4,-14,3,-73
1520204747528932,4,-4,-6,-5,-9,-8,-17,103
1520204747528932,-3,-5,-4,-11,-2,-2,-11,-9
1520204747530938,6,-5,-1,9,8,-8,8,12
1520204747530938,16,4,2,1,9,-20,-3,-26
1520204747550991,4,2,-1,0,-9,-5,3,76
1520204747550991,-4,-1,-3,-7,0,25,24,35
1520204747552997,-8,9,6,4,5,-9,0,-33
1520204747552997,10,-4,-2,-7,-4,11,-11,-39
1520204747565028,-42,-11,-6,0,11,-4,8,-26
1520204747565028,17,0,-1,-7,-17,-8,-9,32
1520204747574053,12,0,-1,1,11,2,15,-4
1520204747574053,19,7,4,2,-4,1,0,6
1520204747589092,3,1,0,1,-3,6,7,20
1520204747589092,-30,0,0,-4,1,10,-10,22
1520204747590095,-19,-15,-8,-1,-8,-11,13,-85
1520204747590095,19,7,1,0,-1,-8,-11,39
1520204747611151,-8,-9,-3,-2,9,-2,-11,-4
1520204747611151,-24,3,3,-4,-16,-29,-18,32
1520204747613157,52,15,4,0,1,1,20,4
1520204747613157,-34,-9,-10,-4,-3,-5,-6,12
1520204747625189,10,-1,-3,-5,-11,-13,19,-25
1520204747625189,3,-3,1,1,-4,-12,1,-3
1520204747634213,-59,-2,1,1,-1,48,-1,-10
1520204747634213,21,-7,-4,3,-9,3,-4,5
1520204747649252,26,13,4,-1,39,2,-3,-13
1520204747649252,-28,-3,-1,0,-6,2,6,20
1520204747650256,34,9,4,6,2,-11,4,7
1520204747650256,-38,-17,-6,-11,-15,12,-15,-15
1520204747671311,30,-3,4,8,-14,3,-11,-55
1520204747671311,97,16,1,4,16,13,19,55
1520204747673317,-88,-5,3,-9,-12,-17,-25,35
1520204747673317,5,1,3,2,3,0,4,2
1520204747685348,-36,-13,-8,-6,-4,2,13,-28
1520204747685348,32,2,1,2,0,-8,-13,-31
1520204747694373,56,10,0,1,-8,-10,-9,-19
1520204747694373,-5,-2,-2,-2,3,-1,16,36
1520204747709412,3,3,3,-3,-5,10,-12,8
1520204747709412,-24,-4,-1,6,3,27,11,-26
1520204747710416,23,12,3,4,0,-18,-8,5
1520204747710416,-35,-20,-9,-10,-1,3,11,25
1520204747731471,-4,-3,1,6,9,7,-4,-23
1520204747731471,-13,1,-3,-6,-18,-10,5,4
1520204747733477,3,-3,-4,-5,0,-8,7,-9
1520204747733477,10,0,-1,10,15,11,-4,-62
1520204747745508,38,18,7,3,-9,7,4,37
1520204747745508,-31,-10,-4,-12,-11,-23,-13,33
1520204747754533,5,-15,-2,9,15,-6,-19,-45
1520204747754533,36,16,6,3,6,-6,12,27
1520204747768570,-39,-1,-2,0,-2,1,2,-38
1520204747768570,-71,-23,-4,1,0,0,-6,7
1520204747770576,26,0,-7,-9,-4,4,-1,1
1520204747770576,15,4,6,0,-5,2,1,14
1520204747791631,38,9,2,4,2,-2,-4,-13
1520204747791631,-12,6,1,-4,-2,1,-4,12
1520204747792634,-66,-18,-2,-7,-13,-5,-4,-9
1520204747792634,14,3,5,8,-6,-11,-10,5
1520204747804666,-36,-3,-4,-3,3,-1,2,-29
1520204747804666,44,5,-3,-1,0,-8,-4,-33
1520204747813690,2,-3,-5,-2,2,1,3,14
1520204747813690,-3,4,-3,-6,-10,2,2,5
1520204747828730,-7,-7,-2,-5,-4,-6,-11,1
1520204747828730,-21,-2,4,4,-3,-6,-6,-4
1520204747834746,-2,-3,-1,0,1,11,10,20
1520204747834746,21,7,0,-4,9,10,0,-29
1520204747851791,-23,-4,-1,-3,-15,0,-4,66
1520204747851791,-5,-4,-5,-2,19,-1,-6,-25
1520204747852794,50,7,3,3,0,-8,6,30
1520204747852794,-60,-12,-7,-6,0,-7,-4,9
1520204747864826,57,3,-2,1,7,-4,7,-23
1520204747864826,-59,-6,-3,-5,-12,5,-7,26
1520204747874354,0,6,3,0,3,7,5,-2
1520204747874354,17,5,7,6,7,-7,-12,-32
1520204747888392,14,3,0,-2,-3,4,-3,-14
1520204747888392,4,-4,-1,2,-1,-3,3,5
1520204747895411,24,4,-4,-4,-7,0,13,20
1520204747895411,-29,-5,0,2,9,5,-1,-21
1520204747911453,-21,-3,-3,1,1,0,6,31
1520204747911453,23,2,4,0,-7,-12,-15,4
1520204747913459,-39,-5,2,1,-6,-13,2,-33
1520204747913459,57,8,-1,-4,-2,10,10,8
1520204747933512,-41,-12,-2,1,-2,-9,-7,-34
1520204747933512,-44,-15,-13,-7,-1,-2,3,-3
1520204747935518,-4,-2,-2,-6,-6,2,-10,19
1520204747935518,4,-6,-4,-7,-23,-47,-11,-32
1520204747948552,5,2,2,9,34,15,14,-22
1520204747948552,33,10,6,1,1,5,6,-24
1520204747955571,-41,-13,-8,-7,-10,-7,-15,42
1520204747955571,-30,-5,-4,0,2,1,1,-17
1520204747978633,27,9,0,-3,-7,-4,-8,2
1520204747978633,-30,-4,2,0,-5,-10,-2,1
1520204747980638,34,9,5,6,9,9,-3,-44
1520204747980638,36,2,2,3,-3,4,-3,11
1520204747993672,-28,-3,-3,-5,-12,-9,5,23
1520204747993672,4,4,0,-1,3,-2,8,58
1520204747995678,-25,-3,0,-6,-2,-12,-17,24
1520204747995678,-19,-1,-1,0,1,4,4,19
1520204748008712,36,-3,-4,-6,-6,-7,-7,-28
1520204748008712,105,13,0,2,1,6,5,-12
1520204748014728,-77,-11,-4,-2,0,-1,7,-18
1520204748014728,0,-4,3,0,-3,-7,-2,-22
1520204748031773,-26,-2,-1,-2,0,-10,2,3
1520204748031773,60,9,3,2,1,25,-11,33
1520204748032776,-66,-13,-10,-5,-1,8,10,-56
1520204748032776,12,8,6,7,9,9,3,-12
1520204748053832,37,7,-1,-3,-13,-15,-8,68
1520204748053832,-104,-14,2,-3,-6,-15,-8,-57
1520204748055838,75,2,-2,5,7,6,13,-1
1520204748055838,11,9,3,4,5,9,9,59
1520204748067870,22,5,4,0,-1,0,-5,-51
1520204748067870,-76,-20,-12,-6,-3,-8,-5,30
1520204748074888,56,6,0,0,2,10,12,-14
1520204748074888,-28,-10,-3,2,5,2,3,-86
1520204748091934,-7,-26,-5,-7,-7,-7,-32,90
1520204748091934,75,11,1,-2,1,6,14,-59
1520204748092937,77,13,4,1,1,2,1,19
1520204748092937,-47,-15,-7,-4,-2,1,13,-68
1520204748113993,-46,-4,-5,-6,-4,0,5,22
1520204748113993,28,-6,-2,-1,-1,-2,-10,3
1520204748120008,30,7,-3,-1,-2,-6,-2,16
1520204748120008,45,9,1,-2,0,-3,-11,35
1520204748128030,-27,-1,2,-1,2,7,2,-36
1520204748128030,21,-2,-2,1,-1,-5,9,-1
1520204748137054,-37,16,7,2,0,3,6,5
1520204748137054,36,4,-2,-5,-8,-8,-19,46
1520204748151091,48,0,-6,-2,3,10,20,-25
1520204748151091,-46,-12,7,3,3,2,-6,-26
1520204748153096,87,20,6,11,7,1,-9,-31
1520204748153096,-128,-48,-13,-12,-10,-9,-9,8
1520204748174152,34,35,11,8,5,7,14,-24
1520204748174152,77,17,3,2,-1,1,25,-61
1520204748175155,-82,-24,-11,-10,-11,-13,-37,103
1520204748175155,62,42,20,7,8,12,20,26
1520204748187187,56,-18,-3,6,3,-1,-6,-23
1520204748187187,-46,10,-2,-2,-2,-2,-7,-8
1520204748196211,-74,-16,-2,-4,-2,0,11,-51
1520204748196211,11,-6,-1,3,6,6,4,72
1520204748211251,-41,8,9,4,1,2,5,20
1520204748211251,-49,11,-3,-9,-8,-10,-17,32
1520204748213256,91,10,6,3,4,8,9,15
1520204748213256,12,-49,-18,-10,-8,-9,-6,-27
1520204748234312,94,71,14,12,8,5,1,-7
1520204748234312,-51,3,7,-1,-1,-4,-16,-33
1520204748235315,65,-48,-9,3,-2,-5,-9,-28
1520204748235315,-16,13,0,1,0,-6,-20,-38
1520204748247347,-80,-32,-16,-11,-4,-3,2,-35
1520204748247347,65,15,4,8,4,4,9,21
1520204748256371,-6,-5,-3,-8,-7,-9,-14,60
1520204748256371,-70,-9,0,-6,-3,-1,2,-45
1520204748271411,93,-44,-10,-2,-3,-1,-3,-56
1520204748271411,-79,46,17,6,3,-1,-16,3
1520204748273416,-115,-16,-10,-3,0,3,9,-41
1520204748273416,127,21,-2,8,8,11,29,74
1520204748294472,-51,-2,14,4,2,2,-8,28
1520204748294472,117,-3,-16,-9,-7,-2,14,16
1520204748295475,-50,-57,-14,-8,-4,-3,-2,-99
1520204748295475,88,9,-2,-3,-5,-3,-7,48
1520204748307507,22,8,0,0,-1,1,15,-21
1520204748307507,22,26,-10,-12,-9,-9,-12,107
1520204748316531,119,-2,8,2,1,5,2,16
1520204748316531,70,54,12,3,0,0,4,-91
1520204748331571,-124,-36,-13,-10,-8,-9,-20,18
1520204748331571,57,-11,-17,-2,0,4,13,-9
1520204748333576,-43,90,37,15,8,3,6,-65
1520204748333576,-108,-31,-10,-9,-6,-2,7,56
1520204748353629,23,-11,-10,-5,-9,-14,-27,62
1520204748353629,82,15,5,3,6,9,17,-15
1520204748355636,52,-24,-14,-11,-5,-5,-1,73
1520204748355636,61,14,10,2,1,-4,-15,-7
1520204748368670,-3,-40,-16,-10,-4,-1,5,-3
1520204748368670,-33,45,30,11,5,-2,-8,-55
1520204748374686,-66,-6,-10,-4,-6,-7,-13,-58
1520204748374686,12,-13,-5,-1,-2,-1,-10,69
1520204748391731,36,71,22,4,2,4,12,22
1520204748391731,107,-64,-14,-3,1,-1,-14,-23
1520204748392734,-6,9,-11,-11,-12,-11,-6,-78
1520204748392734,-46,-4,3,3,0,-2,1,-58
1520204748413790,66,-10,1,3,2,6,9,-56
1520204748413790,15,-22,-3,5,4,3,4,-13
1520204748415795,122,-3,-7,1,3,0,-3,57
1520204748415795,-113,-105,-29,-15,-6,-2,-4,31
1520204748436851,42,70,31,4,2,0,5,-23
1520204748436851,55,8,1,-1,-5,-5,-6,-8
1520204748437854,-45,-34,-2,3,3,10,14,49
1520204748437854,89,-1,-7,-3,-3,-2,4,19
1520204748451891,36,31,3,-1,-2,-5,-13,-18
1520204748451891,-74,21,-4,-5,0,1,-2,75
1520204748452894,-28,16,11,9,8,6,6,-38
1520204748452894,52,36,4,-3,-7,-6,3,18
1520204748473950,-20,-13,-1,-1,-3,-5,-22,82
1520204748473950,-10,-22,-9,-3,-3,1,2,-6
1520204748475955,-42,-38,-11,-5,-7,-6,10,-82
1520204748475955,9,8,2,1,0,-4,-18,-31
1520204748487987,-128,-70,-17,-3,1,0,7,-100
1520204748487987,-74,-44,-12,-7,-2,-4,12,68
1520204748497011,38,68,41,10,-2,-6,-33,40
1520204748497011,-15,9,0,5,3,8,11,-89
1520204748511048,7,3,-9,-6,-6,-4,3,37
1520204748511048,47,-27,-4,8,12,18,13,-69
1520204748513054,-109,-14,-26,-15,-11,-15,8,44
1520204748513054,58,29,18,9,5,5,20,-71
1520204748534110,42,-8,4,4,3,-20,-27,75
1520204748534110,-72,-12,0,-7,-10,55,11,-63
1520204748535115,127,20,11,13,17,-22,-11,6
1520204748535115,-122,-34,-3,-5,-10,-5,5,-105
1520204748547144,-40,-39,-26,-12,-8,-10,18,88
1520204748547144,91,4,7,2,0,-15,-6,-95
1520204748556169,-21,8,4,-5,3,26,-8,-49
1520204748556169,48,15,13,14,4,-27,-24,19
1520204748572211,82,24,6,4,3,-7,-14,-57
1520204748572211,-84,-34,-11,-6,-3,-6,14,-47
1520204748577224,96,19,-1,-1,3,17,17,79
1520204748577224,34,-43,-36,-20,-9,6,-13,-5
1520204748594270,-48,-8,12,7,-1,13,-4,-16
1520204748594270,-11,34,20,-3,-14,-22,-1,41
1520204748595272,31,4,-3,-1,2,13,2,69
1520204748595272,-32,16,7,-1,-7,-48,-6,-65
1520204748607304,2,-6,-7,-5,5,4,-5,67
1520204748607304,-88,-34,-18,-2,-1,26,-14,-42
1520204748616329,47,12,-1,-2,13,-32,5,-50
1520204748616329,-69,26,48,1,-22,10,-8,15
1520204748631368,-43,-31,-26,-11,-2,15,9,-45
1520204748631368,48,8,5,11,6,-18,4,44
1520204748633374,-3,4,10,4,-2,25,10,-6
1520204748633374,-8,-11,-20,-9,13,-2,-15,57
1520204748654430,49,10,-2,-4,-20,0,10,-40
1520204748654430,-80,-8,13,0,-1,-17,-6,25
1520204748655433,-45,-15,-21,-5,2,-10,-4,-76
1520204748655433,38,16,4,6,-4,18,-7,103
1520204748667464,30,1,-4,2,6,-13,3,-33
1520204748667464,-14,-4,-10,-5,4,-22,-5,-53
1520204748676489,-25,-24,2,-3,-7,-3,15,31
1520204748676489,48,14,-16,-16,-17,15,4,1
1520204748691529,-23,11,5,6,19,9,-5,-22
1520204748691529,-40,-14,-4,2,14,11,-8,-28
1520204748693534,55,33,37,22,-36,-11,-10,8
1520204748693534,-46,-18,-10,-5,23,19,16,-18
1520204748713587,6,13,7,-3,-24,1,6,31
1520204748713587,71,10,5,12,8,-8,-14,-15
1520204748715593,-98,-7,-37,-32,16,14,3,-1
1520204748715593,36,-9,22,28,-42,-17,-13,67
1520204748727625,-37,1,-5,-12,-3,15,1,-13
1520204748727625,26,-6,-25,-32,20,4,52,-14
1520204748736649,19,42,76,88,-18,-4,-18,8
1520204748736649,43,7,-22,-29,27,15,17,6
1520204748750686,-64,-34,-15,-27,18,-22,-30,-28
1520204748750686,40,-4,-18,-52,-77,-6,-23,50
1520204748757705,37,-15,-27,-6,23,13,29,-36
1520204748757705,31,4,0,-11,30,-7,9,35
1520204748773747,11,25,31,-5,-38,-7,6,47
1520204748773747,37,-3,-17,12,19,41,11,18
1520204748775753,25,-7,-5,-15,22,-23,-24,41
1520204748775753,2,5,5,4,-38,-4,-23,-56
1520204748787785,17,30,-13,19,25,-27,-4,24
1520204748787785,-22,-39,5,-21,-31,2,-18,30
1520204748796809,-29,-20,-1,1,-19,2,25,-72
1520204748796809,32,5,-3,39,33,20,20,-37
1520204748810846,46,4,-4,-21,-51,8,28,-43
1520204748810846,25,19,17,-12,-4,-16,-81,9
1520204748817865,-5,14,8,58,84,10,4,-58
1520204748817865,5,-34,-51,-86,-8,5,25,-5
1520204748833907,-52,1,44,80,-31,-17,-40,-2
1520204748833907,33,24,10,50,15,-25,0,-4
1520204748835913,-9,-14,-29,-25,40,23,-3,17
1520204748835913,1,20,13,12,-17,-15,-11,14
1520204748856969,35,0,-8,-25,-11,4,11,7
1520204748856969,-16,3,4,-25,16,-6,5,-1
1520204748857972,-5,-6,-6,0,-27,-4,-27,28
1520204748857972,16,3,-6,-89,7,6,15,31
1520204748871006,32,-4,15,91,15,16,4,-28
1520204748871006,10,26,15,15,21,32,33,-15
1520204748878025,-27,-39,-22,-57,-84,-62,-28,66
1520204748878025,23,26,15,61,111,-2,-14,-22
1520204748894067,-13,-24,-13,-48,-36,17,29,-5
1520204748894067,39,17,-17,-43,24,-2,2,13
1520204748896073,37,10,17,61,-4,19,3,-23
1520204748896073,-108,-21,-6,1,-63,-11,-12,4
1520204748916126,6,-32,-23,-25,69,-2,7,-43
1520204748916126,17,31,15,33,-21,-1,14,11
1520204748918132,0,-20,-4,-33,-4,5,-1,-7
1520204748918132,1,5,0,-20,-4,-3,11,-3
1520204748931166,74,32,39,71,-12,22,15,-11
1520204748931166,-47,-52,-23,-32,-29,-18,-29,35
1520204748937182,40,22,3,34,16,-3,1,-57
1520204748937182,43,16,5,27,22,21,14,-37
1520204748954229,-43,7,-7,-33,-42,17,7,70
1520204748954229,66,2,-11,-5,65,-6,-18,-2
1520204748955230,23,20,26,25,-40,-15,29,5
1520204748955230,-78,-21,-13,-24,-84,-4,-14,-6
1520204748976287,-11,-22,-9,2,103,-19,-10,-26
1520204748976287,-24,2,9,22,-62,7,-2,-47
1520204748978292,-26,-29,-39,-84,26,-13,1,15
1520204748978292,40,1,7,28,-3,5,-13,64
1520204748991326,25,32,30,27,-13,26,26,-1
1520204748991326,-86,-54,-8,16,-5,-21,-10,-4
