timestamp,emg1,emg2,emg3,emg4,emg5,emg6,emg7,emg8
1520204819117391,-6,-9,2,-2,28,20,17,42
1520204819117391,-13,-12,-15,-2,6,4,-15,6
1520204819123409,9,8,-2,1,13,18,16,-30
1520204819123409,-5,-7,-6,-10,-17,-20,71,9
1520204819140452,17,20,9,5,28,6,27,20
1520204819140452,-4,-4,6,-3,-36,-1,-35,-34
1520204819141458,-12,-10,-6,-1,-1,-30,-42,13
1520204819141458,3,-8,-10,8,5,6,34,9
1520204819162510,5,5,0,-2,-24,5,26,-22
1520204819162510,-15,-10,-17,-11,13,66,-84,50
1520204819164516,-2,-4,0,-2,-15,-75,77,-11
1520204819164516,-10,4,5,-7,2,-8,-51,-12
1520204819176548,27,7,7,3,26,-7,76,43
1520204819176548,3,2,0,12,2,29,-25,26
1520204819183566,-10,-3,2,3,15,0,-78,16
1520204819183566,-15,-10,-11,-2,-55,5,-22,43
1520204819199609,-7,-6,-9,-40,1,-6,-20,-81
1520204819199609,10,5,10,7,-22,-29,-44,35
1520204819201615,8,7,-1,-2,-11,27,65,17
1520204819201615,5,3,4,6,24,-37,-31,-12
1520204819222670,-6,-1,0,2,-5,45,19,33
1520204819222670,-4,1,1,-1,31,-14,-25,-24
1520204819224681,-5,-9,-10,-21,-4,2,47,-21
1520204819224681,-2,2,4,10,5,8,-27,10
1520204819236708,-8,-9,-9,-10,-29,6,-58,-15
1520204819236708,6,5,5,-22,32,-63,34,-11
1520204819243726,2,4,3,0,-52,-29,-43,-37
1520204819243726,7,-1,2,30,-13,-8,-4,-3
1520204819259772,-11,-4,-5,-11,-22,-5,-80,7
1520204819259772,-4,-12,-13,-28,34,3,61,29
1520204819261775,7,-3,-5,10,36,42,-28,-81
1520204819261775,-5,-1,2,-3,0,-6,-60,-54
1520204819282830,10,7,8,30,15,-16,18,48
1520204819282830,-3,0,-7,-20,-78,-23,-39,-118
1520204819283833,-19,-13,-10,-15,32,-26,57,127
1520204819283833,29,15,14,47,36,4,17,4
1520204819296868,-29,-19,-17,-62,-14,12,51,41
1520204819296868,23,13,12,39,-20,32,-44,-94
1520204819303886,5,3,2,-16,-14,-9,-45,59
1520204819303886,5,-4,-2,-2,41,22,-15,-23
1520204819319929,-16,-4,2,-37,-60,-11,-25,91
1520204819319929,-14,-5,-5,47,64,22,31,5
1520204819321935,15,11,9,7,-86,-14,-5,-35
1520204819321935,-20,-16,-19,-10,-36,76,62,127
1520204819342991,24,15,18,46,52,-19,20,-77
1520204819342991,2,-4,-3,-18,20,27,51,25
1520204819343993,-24,-15,-18,8,79,1,-104,47
1520204819343993,37,25,24,-5,-74,28,99,-57
1520204819357029,-7,-10,-10,-5,-9,5,-2,-119
1520204819357029,0,3,0,-4,-26,-23,11,70
1520204819364046,-20,-6,-3,-42,19,2,-40,44
1520204819364046,-2,0,0,42,40,-29,-17,-99
1520204819379087,-10,-7,-8,-6,-47,40,24,54
1520204819379087,-1,-2,-4,28,79,5,-39,-9
1520204819380089,13,4,5,26,-66,30,127,-61
1520204819380089,-21,-9,-4,-27,-42,-32,-61,-7
1520204819402148,19,10,10,35,68,-5,20,33
1520204819402148,-7,-8,-9,-17,-38,-2,2,-6
1520204819403151,11,7,8,14,9,-11,-38,25
1520204819403151,-8,-5,-7,-46,-4,-13,-1,-10
1520204819416185,-5,-3,1,37,8,9,-17,-4
1520204819416185,-6,1,2,-23,-21,-6,2,32
1520204819424210,11,5,4,-32,14,2,-16,17
1520204819424210,-24,-19,-18,35,-9,-80,-94,95
1520204819439248,9,6,3,-30,41,14,69,-34
1520204819439248,23,13,12,-20,-31,-48,-50,-5
1520204819440250,-3,2,2,-19,-19,-15,-36,23
1520204819440250,-4,-2,-1,-19,58,32,12,44
1520204819462308,-18,-11,-6,16,0,-11,-18,8
1520204819462308,-1,-1,0,8,-22,6,10,3
1520204819462308,3,1,-2,-21,9,14,49,-38
1520204819462308,-17,-9,-13,-60,-31,-66,-45,37
1520204819485369,5,2,2,32,9,4,2,-14
1520204819485369,9,7,6,25,8,13,-40,-3
1520204819486372,-5,-5,-3,-6,24,15,66,-4
1520204819486372,1,0,1,13,9,6,-23,-3
1520204819499407,13,6,3,-12,-53,-5,1,22
1520204819499407,-15,-8,-6,-10,-9,-37,3,-4
1520204819500409,2,-1,-6,-2,-92,-8,-58,-2
1520204819500409,10,8,11,43,127,81,8,-79
1520204819523471,2,-3,-6,-38,-112,-107,43,-3
1520204819523471,-12,-11,-12,-15,-33,84,87,33
1520204819524474,15,9,6,22,46,5,-23,-47
1520204819524474,6,0,-1,-14,-56,-12,6,-2
1520204819544526,-8,-2,-6,-10,42,8,-30,21
1520204819544526,-17,-11,-6,11,15,6,20,40
1520204819545530,3,2,3,12,-27,-2,13,7
1520204819545530,0,-1,-3,-24,-86,-66,-78,-26
1520204819559567,8,5,7,0,55,94,56,0
1520204819559567,5,1,1,41,29,-38,-64,-65
1520204819560569,5,4,6,20,-15,3,-1,18
1520204819560569,-10,-8,-10,-24,19,-23,-4,27
1520204819581625,-11,-2,-1,-7,-31,-4,-82,49
1520204819581625,11,3,2,-6,4,0,102,-47
1520204819589647,-16,-9,-6,-13,19,-72,-96,23
1520204819589647,24,12,11,28,59,92,111,-17
1520204819604686,-5,-3,-4,-8,-28,-32,-37,-13
1520204819604686,1,0,6,-7,44,26,8,18
1520204819605689,2,-1,-2,15,-20,-26,-6,-24
1520204819605689,-11,-5,-8,-9,-20,-12,-10,-5
1520204819619727,6,1,0,-1,-18,11,0,-39
1520204819619727,-5,0,-2,-10,0,-15,-31,28
1520204819619727,5,1,0,11,-3,20,82,-30
1520204819619727,5,3,1,-5,31,1,-52,-29
1520204819641785,2,2,1,6,-31,-2,-6,8
1520204819641785,-9,-3,-1,8,-19,18,18,35
1520204819642789,9,1,0,-6,-7,1,29,9
1520204819642789,-7,-7,-1,7,34,50,39,32
1520204819664847,17,8,7,5,22,-21,5,-20
1520204819664847,-16,-8,-5,-1,-22,-37,-1,-5
1520204819664847,-15,-7,-6,-2,-14,-28,-71,-28
1520204819664847,24,14,9,-2,6,42,33,-55
1520204819678884,-29,-18,-11,0,-7,35,0,16
1520204819678884,17,5,1,-10,33,-49,30,-14
1520204819679887,7,8,12,28,17,15,10,23
1520204819679887,2,4,-2,8,-63,-37,-16,-4
1520204819701945,-14,-6,-1,10,24,-17,-4,-64
1520204819701945,5,-3,-7,-20,-6,-4,-49,46
1520204819702948,1,2,9,6,80,93,23,1
1520204819702948,-14,-9,-10,-33,-41,-96,-9,-16
1520204819724004,19,11,13,28,8,-25,8,-8
1520204819724004,-7,-2,-1,-7,-27,7,-5,-23
1520204819725007,-15,-6,-9,7,85,34,-5,-27
1520204819725007,8,3,-1,-13,-44,-5,-6,107
1520204819739044,0,-3,-7,-3,36,35,3,-11
1520204819739044,-11,-6,-2,-4,-37,-42,-39,-25
1520204819740047,4,5,2,0,18,15,29,14
1520204819740047,-7,-6,-8,-4,23,5,-37,-50
1520204819762105,6,2,4,0,4,-5,50,31
1520204819762105,4,3,0,-5,-25,-48,-45,-16
1520204819763108,19,9,4,13,-41,-18,20,2
1520204819763108,-7,-8,-3,7,5,40,31,21
1520204819784164,-3,-2,-1,0,-10,-56,-36,27
1520204819784164,-15,-8,-7,-30,-47,-40,-12,-44
1520204819785167,6,1,-1,11,22,60,-6,-5
1520204819785167,2,9,10,9,-54,41,30,21
1520204819799204,-25,-17,-19,-12,36,-12,-36,47
1520204819799204,10,5,14,8,-22,58,35,5
1520204819800207,-21,-15,-14,-8,4,-38,-20,-27
1520204819800207,32,13,13,4,27,24,31,24
1520204819822265,-12,-7,-10,-16,-1,-21,-33,62
1520204819822265,12,9,5,3,2,45,38,-4
1520204819822265,-19,-11,-5,6,42,-13,-37,-23
1520204819822265,0,0,-1,-8,-57,11,3,-40
1520204819844324,-8,-5,-11,-6,10,5,-52,18
1520204819844324,14,15,21,21,70,85,79,-11
1520204819845327,8,3,3,-10,-21,-39,9,40
1520204819845327,-11,-4,-3,-4,-32,11,5,-12
1520204819859364,3,1,4,6,14,9,8,-29
1520204819859364,-7,-7,-6,0,12,2,-33,12
1520204819860367,-8,-8,-6,-11,-29,-17,-8,18
1520204819860367,3,-1,-2,-3,6,-45,17,-29
1520204819881423,1,2,1,-1,-5,-1,3,7
1520204819881423,5,-2,-4,-5,-13,16,2,14
1520204819882425,2,1,-3,-10,-22,2,-8,13
1520204819882425,-21,-14,-11,3,18,-57,-58,3
1520204819904484,15,14,13,3,-36,25,37,-81
1520204819904484,-4,-11,-16,-8,-1,5,5,103
1520204819905487,12,0,4,-5,23,-27,-6,24
1520204819905487,-18,2,-15,-9,-11,-34,-42,18
1520204819919524,22,16,14,22,40,21,58,-43
1520204819919524,13,0,0,-10,-73,-46,-36,-46
1520204819920527,-6,0,-10,-12,42,24,1,-24
1520204819920527,10,20,13,0,-11,-2,7,32
1520204819941583,-15,21,-2,-1,-5,-15,-16,7
1520204819941583,-11,-7,-6,11,88,1,-8,-13
1520204819942586,10,5,1,-5,-69,-5,10,-33
1520204819942586,-15,-1,14,13,63,7,0,-21
1520204819964644,7,-19,-3,-2,-20,2,-5,-6
1520204819964644,34,4,-9,0,-8,-6,-1,-4
1520204819965647,-32,4,2,-9,-39,-14,-8,-10
1520204819965647,4,-19,-10,7,40,27,13,-2
1520204819978682,-21,-2,4,-5,-28,-14,-8,0
1520204819978682,-16,9,6,-1,4,-12,-5,21
1520204819986703,10,-7,-2,2,2,14,14,-10
1520204819986703,-1,-5,-3,3,-17,-16,-11,-42
1520204820001743,11,-27,-5,-2,47,55,18,9
1520204820001743,5,-13,-3,-2,-2,1,-2,-18
1520204820002746,3,13,0,4,-8,-6,-10,2
1520204820002746,-12,16,5,-3,-13,-12,14,35
1520204820024804,14,-22,-9,1,-5,11,-6,4
1520204820024804,-43,-4,3,-2,2,-16,-11,-5
1520204820024804,9,14,0,4,14,22,16,10
1520204820024804,32,-26,-6,0,14,12,11,15
1520204820038842,0,-7,2,-2,-5,-15,-17,-4
1520204820038842,-23,43,8,1,-6,5,6,12
1520204820046863,-9,-24,-19,-21,-98,-22,-11,55
1520204820046863,-1,26,19,29,106,77,35,-21
1520204820061903,20,1,0,-4,-50,-19,-6,-2
1520204820061903,42,-33,-15,-4,-6,-6,-2,-15
1520204820062906,-30,15,12,4,0,-2,-16,-28
1520204820062906,7,-2,-4,-13,-29,-21,-18,12
1520204820083961,-26,4,-6,0,6,0,-12,-34
1520204820083961,1,-43,-3,4,11,6,25,-2
1520204820084964,-2,52,6,-1,28,1,-18,-15
1520204820084964,-17,-80,-24,-11,-30,-22,-16,13
1520204820099002,10,59,15,5,27,7,7,-27
1520204820099002,-42,7,-14,-15,-20,-11,0,12
1520204820107023,11,-3,3,7,-8,8,12,-19
1520204820107023,20,1,2,1,20,-30,4,11
1520204820122063,-16,-5,-6,-6,-26,6,-16,-24
1520204820122063,40,-46,-8,0,-9,-13,-22,-18
1520204820123066,-15,-38,-2,-1,11,3,47,2
1520204820123066,-17,65,7,-7,-36,-4,-2,20
1520204820144122,10,-50,-8,3,14,2,4,27
1520204820144122,0,58,15,1,13,0,-6,8
1520204820145125,5,-42,-15,-4,-4,7,20,27
1520204820145125,-34,60,14,8,8,-3,-11,1
1520204820159162,-17,31,4,-8,-6,-17,-4,-27
1520204820159162,-24,-10,-7,0,4,10,-11,15
1520204820167183,41,-56,-15,-4,0,-10,1,28
1520204820167183,4,74,15,5,17,-8,-17,-13
1520204820182223,31,-42,-10,-8,-36,-11,22,20
1520204820182223,-8,20,8,1,-4,9,-4,2
1520204820182223,35,-79,2,-1,-10,-19,-46,44
1520204820182223,-14,13,2,-3,-5,15,61,-30
1520204820204282,-9,-59,-17,-6,3,-20,-72,-41
1520204820204282,54,31,6,12,19,9,31,14
1520204820205285,-65,72,24,11,19,-2,-19,-23
1520204820205285,80,-105,-41,-12,-31,-15,-29,79
1520204820218320,-5,-28,5,5,14,35,109,3
1520204820218320,-40,-70,2,-1,14,-13,-34,-15
1520204820227343,-75,70,26,15,12,18,-12,-16
1520204820227343,66,-68,-33,-18,-30,-11,24,-40
1520204820242383,0,-40,5,13,17,10,17,14
1520204820242383,3,18,-4,-6,-36,-23,-30,1
1520204820242383,6,-49,-8,2,18,-5,18,-6
1520204820242383,48,7,7,-14,-3,20,30,-62
1520204820264442,-41,-10,-5,-5,2,-26,-30,31
1520204820264442,-4,27,9,5,2,12,32,5
1520204820265445,17,-9,-16,-3,0,-10,-15,3
1520204820265445,12,-101,-16,-3,-34,-19,-41,8
1520204820278479,-52,127,51,13,40,25,65,3
1520204820278479,31,-101,-20,-6,0,-8,-28,-43
1520204820286501,7,99,15,-3,-11,3,26,-25
1520204820286501,-39,-33,3,3,1,1,-10,-28
1520204820301540,-18,-33,-11,-7,-18,-30,-47,-6
1520204820301540,38,6,0,4,-3,1,9,24
1520204820302543,35,-92,-22,-7,6,12,34,4
1520204820302543,-78,37,21,8,13,3,8,20
1520204820324602,-5,77,15,0,-8,-7,-26,22
1520204820324602,-17,-40,-9,-5,7,3,5,5
1520204820325605,14,-34,-7,-5,-19,-9,-14,3
1520204820325605,-18,3,-1,4,9,1,3,-6
1520204820338639,15,-39,-9,-5,-4,-1,4,7
1520204820338639,-21,31,8,-7,-11,-9,-25,6
1520204820346660,6,57,19,5,14,21,16,-18
1520204820346660,0,-26,-3,7,0,-19,-6,2
1520204820361700,-31,-48,-14,-12,-23,-6,-2,3
1520204820361700,-22,-22,-18,-7,7,4,10,3
1520204820362703,-8,-15,-1,5,-4,-4,-13,0
1520204820362703,-23,-3,0,-8,11,26,74,3
1520204820384762,59,-29,-8,-1,-11,-20,-69,11
1520204820384762,-10,22,9,13,18,12,-1,-4
1520204820384762,-8,-21,-11,-6,0,-1,-8,-1
1520204820384762,-1,22,7,5,-2,5,2,9
1520204820407823,25,-43,-19,-6,2,18,20,0
1520204820407823,-19,27,11,2,4,-11,1,0
1520204820408826,16,20,11,-9,-3,-1,33,-3
1520204820408826,6,5,4,4,0,-27,-59,2
1520204820421860,17,10,-2,-1,-9,37,-22,5
1520204820421860,2,4,-3,-6,-15,-46,-9,-4
1520204820422863,43,-9,-7,-7,-27,-26,7,-3
1520204820422863,-81,34,19,13,32,29,-54,-5
1520204820443919,11,31,5,4,10,-10,3,1
1520204820443919,15,8,0,3,1,22,18,0
1520204820444922,22,-49,-11,3,9,1,14,-4
1520204820444922,-21,-5,-13,-23,-37,-26,19,3
1520204820466980,-10,25,-2,16,44,2,4,29
1520204820466980,17,40,32,11,-12,-7,-4,35
1520204820467983,11,-20,-3,0,-11,-5,-36,12
1520204820467983,10,7,-16,-2,14,30,36,0
1520204820482020,-4,-17,-13,-6,-6,-22,-1,-26
1520204820482020,14,0,16,-5,-5,13,9,-13
1520204820483023,-22,-6,-4,-2,3,-21,-29,7
1520204820483023,5,-4,2,2,-4,17,-24,-12
1520204820504079,1,7,-3,-2,1,2,80,-10
1520204820504079,17,-23,-18,-8,-19,-1,-26,-12
1520204820505082,-39,79,13,-1,12,-20,-60,-34
1520204820505082,25,4,23,9,-15,-11,-19,-16
1520204820527140,7,-3,-5,-11,-17,-12,-23,5
1520204820527140,-13,-15,-6,-2,1,16,5,-1
1520204820528144,-2,-45,-46,7,22,-3,6,19
1520204820528144,17,32,28,5,-5,5,-2,15
1520204820542181,18,45,14,4,-11,-23,-28,-13
1520204820542181,-15,-6,-7,-1,10,37,40,13
1520204820542181,2,-17,1,-7,-9,-13,-44,29
1520204820542181,3,2,-21,0,11,-13,-3,0
1520204820564239,-3,-3,8,4,-6,14,35,18
1520204820564239,1,-49,-29,-8,12,0,-32,-9
1520204820565242,-21,41,42,15,2,-14,-48,19
1520204820565242,13,-37,-23,-17,-14,8,32,2
1520204820587300,4,15,27,4,-26,-25,-34,20
1520204820587300,-7,-44,-20,6,17,-1,48,-5
1520204820587300,-4,9,16,-5,-3,17,21,18
1520204820587300,3,19,11,-5,-7,4,27,20
1520204820602341,8,32,2,-2,9,2,-41,1
1520204820602341,-22,13,-1,-3,-7,-14,-18,25
1520204820602341,-3,-20,7,-2,-17,11,71,-19
1520204820602341,8,18,4,11,18,3,-22,-27
1520204820624399,2,6,-6,-8,3,14,58,19
1520204820624399,3,15,11,0,4,16,-13,-46
1520204820625402,-11,-12,-28,-7,0,-15,-51,19
1520204820625402,6,-14,-12,-1,-11,22,52,-18
1520204820646458,1,-16,9,4,20,-32,-80,-13
1520204820646458,13,26,6,0,-4,-1,-1,5
1520204820647461,-7,-6,-3,6,4,15,-26,-28
1520204820647461,0,-28,8,-6,-21,-33,-16,-17
1520204820661498,-5,-8,-8,5,3,14,21,-3
1520204820661498,-29,-10,-5,-6,21,25,-61,57
1520204820662501,8,-20,5,-12,-31,-47,-19,-32
1520204820662501,18,23,7,-3,4,-10,-48,3
1520204820684559,-6,-6,5,4,-12,4,-18,21
1520204820684559,-3,-6,2,-9,-4,-6,6,-5
1520204820685562,-3,14,-10,5,11,19,7,-1
1520204820685562,-25,-10,-15,-2,30,1,-40,-3
1520204820706618,-12,-33,-25,-11,-17,79,100,9
1520204820706618,15,9,1,2,-41,-106,-13,-5
1520204820707621,-11,-3,-6,-5,23,57,6,-7
1520204820707621,7,5,13,3,-22,-39,89,-14
1520204820721658,19,7,-7,2,31,25,-25,6
1520204820721658,-14,1,-18,0,-4,8,10,12
1520204820722661,9,36,36,2,-11,22,53,-2
1520204820722661,-16,-19,-10,7,10,3,-93,8
1520204820744720,-5,-51,-36,-15,7,-26,-14,-31
1520204820744720,-4,47,12,8,-6,31,65,14
1520204820745723,20,-8,-4,-4,-25,-24,57,-47
1520204820745723,7,-5,-8,-3,0,-10,-6,16
1520204820766778,-8,-4,5,3,9,22,-5,-3
1520204820766778,-1,-7,0,5,-4,-35,-53,-31
1520204820767781,-13,-13,-3,-8,24,19,47,19
1520204820767781,16,17,12,4,-6,25,56,-37
1520204820781819,4,0,-1,-8,-36,-48,-65,-28
1520204820781819,-11,-5,2,-5,28,26,33,-5
1520204820782822,1,4,-2,3,-18,16,9,40
1520204820782822,0,-8,-7,8,28,-27,-26,50
1520204820804879,-15,15,0,-3,13,-5,-1,3
1520204820804879,17,-2,21,0,-39,16,14,-61
1520204820804879,-5,-16,-21,-20,-14,-34,-36,-22
1520204820804879,-13,-4,0,2,9,-6,-47,38
1520204820826938,6,6,-2,3,-24,2,28,8
1520204820826938,5,3,1,10,30,15,-20,-4
1520204820827941,2,4,-9,-1,15,-7,-33,-3
1520204820827941,-3,-4,-3,-6,-4,17,55,4
1520204820841978,-19,-6,6,4,-9,-34,-38,54
1520204820841978,8,6,3,15,21,5,8,37
1520204820842981,3,-5,-2,-4,-18,-2,-46,11
1520204820842981,21,14,8,-10,-14,-14,35,-77
1520204820864037,-10,-6,1,4,17,-15,-32,85
1520204820864037,8,-2,-7,-47,-53,-53,-35,-87
1520204820865040,-14,-7,-10,-13,5,7,-52,65
1520204820865040,-14,-5,-5,67,62,13,21,8
1520204820887098,39,18,9,10,-12,-37,37,-86
1520204820887098,-26,-15,-11,-28,-28,-3,80,33
1520204820888101,12,15,13,-5,-29,-24,-54,-63
1520204820888101,-20,-9,-5,-29,10,8,34,89
1520204820902138,7,-1,-8,10,-51,-26,-2,-17
1520204820902138,22,11,11,28,31,3,80,30
1520204820903141,-7,-7,0,1,-24,-36,61,-35
1520204820903141,-10,-2,-1,25,-50,-20,-70,38
1520204820924197,2,-9,-10,-16,66,64,94,1
1520204820924197,5,8,8,-1,9,-28,-103,38
1520204820925200,0,2,4,-6,14,79,111,-21
1520204820925200,-20,-15,-18,-5,-16,-20,-127,5
1520204820947258,7,4,8,-13,-9,63,108,-54
1520204820947258,17,8,8,7,-26,40,2,-67
1520204820947258,-11,-9,-9,11,12,-67,-79,74
1520204820947258,11,6,10,-12,4,110,117,-34
1520204820962298,-4,0,-3,-2,23,-26,-95,-95
1520204820962298,-3,2,3,12,2,13,1,-2
1520204820962298,2,2,-3,-3,-21,-18,-78,-87
1520204820962298,-23,-12,-13,-10,-16,-29,9,99
1520204820984357,-17,-10,-5,8,-6,68,-26,40
1520204820984357,45,21,20,20,79,57,21,91
1520204820985360,-9,-1,1,-4,-48,-3,-20,16
1520204820985360,13,0,-1,-9,48,-16,-10,18
1520204821006416,14,14,19,-6,-77,-21,-15,54
1520204821006416,-43,-22,-21,-2,-39,2,20,36
1520204821007418,11,5,3,27,85,55,-6,88
1520204821007418,5,-1,-4,-12,-17,21,6,-116
1520204821021455,-20,-8,-9,-3,12,-74,-63,84
1520204821021455,-18,-20,-12,-10,-31,-2,-82,-83
1520204821022458,30,12,8,-7,21,16,51,-28
1520204821022458,15,18,10,-23,-67,-2,6,-2
1520204821044517,-14,-2,12,40,100,59,83,25
1520204821044517,19,11,0,-34,-99,-10,-14,-78
1520204821045520,-22,-20,-16,5,-2,13,5,79
1520204821045520,6,5,6,13,21,-27,-21,-64
1520204821066575,-4,0,-3,-15,-42,-50,-17,23
1520204821066575,-15,-17,-9,19,80,-21,-24,-62
1520204821067578,-2,3,1,-5,-13,25,67,-60
1520204821067578,-2,-11,-5,-7,-14,-42,-44,-38
1520204821081615,4,5,2,8,9,27,-13,-54
1520204821081615,-13,-4,-13,-23,-14,-6,27,13
1520204821082618,18,9,11,2,-11,-42,-70,48
1520204821082618,-8,-4,-7,-6,-4,-6,26,-31
1520204821104677,7,10,8,8,32,21,0,-22
1520204821104677,1,-4,-7,-2,-8,-26,-61,-8
1520204821105680,-19,-12,-13,-5,23,-5,109,19
1520204821105680,2,1,6,-5,-34,29,22,36
1520204821126735,14,0,-1,-16,-1,-29,-54,-43
1520204821126735,-6,-3,-1,17,67,18,58,101
1520204821127739,12,10,4,-13,-43,-40,-46,-41
1520204821127739,-17,-15,-7,5,15,24,51,44
1520204821140773,-1,-1,-6,-8,-28,-13,19,7
1520204821140773,-8,-20,-4,7,23,-11,-29,-13
1520204821149797,-2,-1,-3,6,13,-2,14,19
1520204821149797,14,28,11,0,3,19,-17,30
1520204821164837,-14,-13,3,5,-14,-35,-36,-53
1520204821164837,4,-28,-10,-11,0,4,19,71
1520204821164837,12,5,-5,-1,-3,16,15,-56
1520204821164837,-13,30,16,2,-9,-19,-60,-21
1520204821186895,-2,-4,-11,-11,-10,-32,-21,53
1520204821186895,-4,-35,0,6,3,27,54,-11
1520204821187899,5,-20,0,10,21,-5,-90,-65
1520204821187899,11,66,23,-2,8,-6,1,-39
1520204821200933,-11,5,0,4,-5,-2,-10,-2
1520204821200933,2,-16,-6,-2,-14,3,-16,33
1520204821208954,-9,-39,-18,-6,-3,-16,-15,24
1520204821208954,24,2,-6,1,6,-16,-15,-20
1520204821223994,-5,-26,1,0,6,16,5,-46
1520204821223994,26,53,3,7,-27,-38,-24,-14
1520204821224997,-40,3,20,3,6,18,24,-15
1520204821224997,-3,-36,-4,9,-1,-12,8,5
1520204821247056,10,-11,-7,-9,-11,7,7,-41
1520204821247056,5,36,-5,-1,14,0,37,81
1520204821248059,-9,11,3,3,-16,-14,-39,-100
1520204821248059,-16,-34,-2,-3,1,11,8,6
1520204821261093,32,-12,-7,-9,-6,-6,19,31
1520204821261093,-29,40,17,7,7,-4,-45,-15
1520204821269114,35,-3,-11,-4,8,19,68,40
1520204821269114,-30,25,8,-3,-3,-7,-1,29
1520204821284154,18,-26,-17,-5,-7,-11,-17,6
1520204821284154,-11,4,3,4,17,16,17,-40
1520204821285157,28,-4,-2,-2,-8,13,42,39
1520204821285157,-16,-12,-9,0,-1,2,-29,0
1520204821307215,-5,-5,-5,-8,-6,0,37,-1
1520204821307215,5,-30,-8,-2,4,0,-17,65
1520204821308218,-7,-15,4,6,1,0,-16,9
1520204821308218,25,67,6,-5,-10,-11,19,-25
1520204821321253,14,-3,6,1,25,3,-20,64
1520204821321253,41,7,1,-3,-18,11,40,-18
1520204821329274,-50,13,3,-7,-21,-16,-57,-32
1520204821329274,17,-5,0,-3,8,-3,-2,31
1520204821344314,-37,8,-3,8,9,-3,-7,-12
1520204821344314,-4,-93,-10,6,5,2,-59,-11
1520204821345317,3,30,5,1,19,41,102,-12
1520204821345317,19,43,-8,-12,-21,-25,-82,-21
1520204821367375,24,-33,-8,-2,7,21,48,12
1520204821367375,61,15,-1,-10,-18,-10,-6,3
1520204821367375,-53,17,15,13,6,-3,-11,45
1520204821367375,-51,-62,-16,0,18,18,36,-22
1520204821381413,-27,74,21,8,-6,-3,10,1
1520204821381413,6,-60,-13,-8,-18,-34,-47,32
1520204821389434,37,-88,-33,-6,17,25,35,-20
1520204821389434,17,71,18,-1,-6,-32,-47,-1
1520204821404474,20,-24,6,1,-9,5,3,6
1520204821404474,-8,104,37,14,1,5,19,-34
1520204821405477,-41,-73,-9,-2,-7,-32,-63,21
1520204821405477,23,-89,-24,0,3,5,24,13
1520204821426533,-8,-5,1,2,1,-2,-8,-71
1520204821426533,-1,-27,-20,-5,5,9,36,5
1520204821427536,-38,-36,0,-5,5,10,25,-3
1520204821427536,-36,22,-2,-5,-9,-18,-51,-12
1520204821441573,2,16,12,1,-8,8,11,59
1520204821441573,-17,-37,-11,-4,0,3,7,-19
1520204821449594,38,-62,-15,3,6,-5,-14,-17
1520204821449594,32,6,-2,-5,0,8,28,8
1520204821464634,-22,71,22,2,-4,-12,-29,17
1520204821464634,-71,51,30,9,9,13,27,15
1520204821465637,2,106,12,-1,-9,-10,-6,1
1520204821465637,0,-68,-16,-1,0,12,1,25
1520204821486693,-10,-1,3,4,-4,-6,-2,22
1520204821486693,-39,-21,-20,-2,7,4,22,-25
1520204821487696,114,23,10,-2,-3,-5,-21,-19
1520204821487696,-41,80,66,29,15,-3,-3,37
1520204821509754,15,-128,-48,-10,15,41,17,-19
1520204821509754,-87,103,38,-1,-24,-43,-44,-15
1520204821510757,21,-24,-1,-4,-11,-10,-25,22
1520204821510757,0,-88,-34,-7,10,8,23,-1
1520204821524794,57,37,0,-7,-16,-38,-80,-25
1520204821524794,13,-7,6,5,7,9,10,33
1520204821524794,-23,13,-2,6,3,-8,9,7
1520204821524794,13,-16,-6,-3,1,24,-21,25
1520204821546853,-52,16,-4,-5,-6,-12,-6,5
1520204821546853,52,-68,-9,-2,8,19,39,-27
1520204821547856,-45,-7,-3,1,1,3,25,-25
1520204821547856,18,-26,-3,-7,-11,-11,-46,41
1520204821569914,4,-30,-9,0,5,18,83,-14
1520204821569914,-68,-8,-21,-19,-13,-9,11,34
1520204821570917,4,100,63,30,16,15,5,29
1520204821570917,10,-57,-9,6,7,-5,7,-43
1520204821583952,-17,-25,-18,-14,-9,-2,-17,3
1520204821583952,31,-41,-12,-13,-17,-19,-35,0
1520204821584954,5,13,-4,4,4,3,4,5
1520204821584954,5,19,-12,-9,-10,-9,22,-9
1520204821607013,-6,-5,11,8,9,10,18,15
1520204821607013,-17,-11,-14,-12,2,16,14,-40
1520204821608016,3,3,1,-10,-5,-22,-21,32
1520204821608016,-7,-3,10,5,5,9,13,-11
1520204821630075,23,0,12,-2,-22,-22,-85,21
1520204821630075,36,12,12,11,1,4,-3,-1
1520204821631077,-7,-19,-18,-6,-5,-2,4,22
1520204821631077,22,-38,-32,-11,-3,-14,-9,1
1520204821644112,-28,48,19,10,19,17,65,59
1520204821644112,22,-26,-9,-7,-2,-8,-75,-50
1520204821645115,9,-9,-2,-11,-25,-37,-43,21
1520204821645115,-10,-19,-1,0,10,29,75,-3
1520204821667173,10,5,-7,0,-6,-19,-76,-27
1520204821667173,26,30,23,12,5,8,35,-28
1520204821668176,-34,14,-27,-10,6,6,14,2
1520204821668176,25,-13,-4,1,-4,-9,-36,38
1520204821689232,-22,61,41,23,10,-12,6,-8
1520204821689232,1,-38,-36,11,15,2,-25,29
1520204821690235,4,61,40,-6,2,53,87,-39
1520204821690235,-9,-23,-2,9,-13,-10,-45,-26
1520204821704272,4,-12,-15,-23,-9,-14,29,7
1520204821704272,10,1,-6,-9,-13,-9,2,26
1520204821705275,0,-14,5,10,20,9,-2,24
1520204821705275,-4,23,10,-5,-15,-15,-44,-39
1520204821727333,-2,-21,-3,-3,-1,11,41,12
1520204821727333,-13,-17,-12,-10,2,13,-74,-19
1520204821727333,4,-19,-14,-21,-17,-48,-72,-10
1520204821727333,-7,12,6,10,14,11,12,1
1520204821749392,5,-9,-7,-6,-17,-38,-9,-5
1520204821749392,-19,-9,-6,-1,3,7,12,8
1520204821750395,6,-10,-9,1,3,14,-57,-32
1520204821750395,-1,23,13,-8,-14,-31,-36,17
1520204821764432,-3,-19,-5,11,1,22,34,22
1520204821764432,-5,73,19,1,16,4,-42,-1
1520204821765435,-2,-48,-17,-8,-29,-41,15,-21
1520204821765435,-21,-35,-14,-12,7,29,71,24
1520204821786490,14,-3,-5,4,-8,-56,-54,-48
1520204821786490,25,27,25,13,17,84,98,-24
1520204821787493,-25,-47,-40,-22,-10,-88,-127,35
1520204821787493,14,24,35,25,22,50,120,-19
1520204821809552,-5,-7,-22,-11,-9,-4,-51,-50
1520204821809552,5,-6,11,5,-2,0,26,41
1520204821810555,1,-14,-20,0,0,20,8,24
1520204821810555,-20,-20,-11,5,-10,-15,52,48
1520204821824592,5,0,4,0,15,48,-21,-67
1520204821824592,-11,-17,-19,0,6,16,55,40
1520204821825595,5,17,21,-5,-26,-17,10,-41
1520204821825595,19,19,15,-4,-13,-30,-16,46
1520204821846651,8,9,9,3,0,3,-31,-33
1520204821846651,-7,-40,-17,-11,-12,-65,-116,61
1520204821847654,-3,-32,2,28,40,117,118,-22
1520204821847654,-9,49,40,7,22,-41,-104,-23
1520204821869712,5,-19,-15,4,25,85,123,24
1520204821869712,19,-2,-4,-35,-59,-96,-41,-51
1520204821870715,-1,-13,-4,17,22,41,118,43
1520204821870715,-2,9,-11,-15,-16,-34,-93,-4
1520204821884752,-7,2,6,16,50,43,-66,50
1520204821884752,-6,-20,-3,6,-9,-6,90,-64
1520204821884752,1,21,-8,-4,7,6,-4,68
1520204821884752,-2,30,-14,-19,-21,24,29,-19
1520204821906811,-32,-21,9,36,23,-2,14,76
1520204821906811,9,-15,-3,5,29,68,0,23
1520204821907814,12,10,6,-24,-38,-59,-123,-113
1520204821907814,18,-8,-8,4,-28,-20,98,64
1520204821929872,13,-34,-10,-43,-59,-73,-89,-80
1520204821929872,-25,-39,-10,36,37,15,4,21
1520204821929872,33,50,18,-13,7,20,-8,-33
1520204821929872,-29,-40,-7,-15,32,40,51,-19
1520204821944912,7,16,22,31,-15,23,-6,1
1520204821944912,-5,-9,-18,-7,22,30,82,32
1520204821944912,-10,14,14,-6,-32,-68,-102,-84
1520204821944912,4,-16,-21,0,-21,29,94,37
1520204821966971,2,14,20,14,43,-29,-101,26
1520204821966971,6,13,-12,-19,-50,17,-5,0
1520204821967974,7,-3,-6,-3,12,-18,127,45
1520204821967974,-13,4,11,22,32,-38,-94,-54
1520204821989029,8,7,-11,-23,-45,-19,-40,-69
1520204821989029,7,15,8,-17,-13,-29,51,-2
1520204821990032,-6,5,11,21,-52,71,81,61
1520204821990032,-13,-39,-31,-26,57,-4,3,-26
1520204822004069,1,1,-12,-27,27,17,116,59
1520204822004069,5,17,4,-2,-6,-33,-128,-62
1520204822005072,-2,-3,16,22,-13,3,-31,36
1520204822005072,7,-55,-17,-23,2,-2,-58,33
1520204822027130,-28,56,8,7,-8,13,127,110
1520204822027130,13,-12,13,30,24,55,82,-54
1520204822028134,1,16,-7,-33,-73,-57,-91,66
1520204822028134,-26,-12,7,27,62,45,-29,72
1520204822049189,5,-31,-32,-24,-21,31,84,-38
1520204822049189,-27,-10,-3,-17,-79,-95,-109,62
1520204822050192,14,8,5,1,86,90,83,-55
1520204822050192,30,17,2,-74,-118,-38,-89,-47
1520204822064229,-21,-30,-31,44,44,5,28,39
1520204822064229,-1,23,18,46,70,-36,-85,-30
1520204822065232,9,-29,-28,35,51,80,66,46
1520204822065232,26,26,12,-9,-56,-1,-48,21
1520204822087291,-23,-16,-4,-16,31,-34,-6,28
1520204822087291,-40,-18,-24,-40,-62,77,4,37
1520204822087291,25,9,9,16,-41,14,40,-17
1520204822087291,12,76,47,4,13,19,-58,42
1520204822109349,10,11,48,29,-95,-9,80,37
1520204822109349,-28,-16,-41,2,127,56,-55,11
1520204822110353,-3,-35,13,-26,-1,68,30,-61
1520204822110353,9,-19,2,38,44,16,4,69
1520204822124389,-28,15,12,18,-5,75,-27,82
1520204822124389,32,0,17,-15,8,-64,-125,-85
1520204822125392,-13,1,-28,-8,15,-51,-45,127
1520204822125392,-43,-56,-43,26,-20,-23,63,-41
1520204822146448,74,65,27,-35,-90,-128,-128,-125
1520204822146448,-8,2,15,-5,36,10,65,74
1520204822147451,-17,-46,-7,-2,-24,-113,-128,18
1520204822147451,11,26,23,23,0,4,-39,-8
1520204822169509,18,-44,-32,-5,15,-24,-54,69
1520204822169509,21,65,-12,-23,-104,-55,-4,-93
1520204822170512,-27,31,76,17,24,-37,-91,-54
1520204822170512,-12,-37,-42,-5,76,-66,108,107
1520204822184549,13,13,-23,-5,8,41,4,-81
1520204822184549,7,-6,63,9,-78,11,91,29
1520204822185552,-19,-22,-33,17,62,69,4,31
1520204822185552,-9,-11,-30,-3,54,79,-51,-35
1520204822206608,50,27,40,32,33,91,83,35
1520204822206608,-29,32,12,20,91,74,42,83
1520204822207611,-31,-43,-8,12,68,33,63,-25
1520204822207611,-49,-3,-4,-36,-105,-46,55,-5
1520204822229669,48,-15,-6,9,21,3,14,34
1520204822229669,12,0,18,29,92,73,49,34
1520204822230672,4,26,-7,3,-59,17,-65,80
1520204822230672,-6,-2,-19,-26,-108,-99,-22,-128
1520204822243707,-29,7,5,-19,-9,17,-66,25
1520204822243707,-47,-56,-51,-18,6,-128,-48,-18
1520204822251728,65,36,15,-23,-79,42,68,-26
1520204822251728,90,23,33,27,77,86,18,-45
1520204822266768,-30,-96,-82,-56,-52,-119,-86,41
1520204822266768,-25,100,79,18,-60,1,-58,-128
1520204822267771,11,-62,-21,-22,-11,-63,69,12
1520204822267771,24,89,-3,16,-27,6,6,112
1520204822289830,-75,-24,55,7,36,-65,-49,-128
1520204822289830,10,-62,-56,-21,-58,15,-75,88
1520204822289830,-57,-18,-7,7,28,-44,-100,57
1520204822289830,68,15,-6,4,62,91,-6,-37
1520204822303867,-21,57,14,-10,9,-34,25,3
1520204822303867,-9,-20,-13,-11,-36,-85,-29,76
1520204822311888,4,6,-4,-7,-10,43,85,42
1520204822311888,3,-37,-26,-21,-52,-107,-15,-6
1520204822326928,-25,-42,-16,0,83,109,-52,124
1520204822326928,24,34,4,0,9,89,118,-128
1520204822327931,10,79,16,-5,42,-59,-128,-43
1520204822327931,-67,-111,-38,-21,-8,-10,39,-78
1520204822348987,14,76,8,12,19,2,1,31
1520204822348987,-19,-65,-14,-6,-33,-33,11,19
1520204822349990,16,-82,-32,-12,47,19,-27,26
1520204822349990,-17,122,-17,-2,24,18,75,-15
1520204822364027,-36,-27,68,15,-51,-13,-4,-85
1520204822364027,37,-91,-29,5,28,-12,46,91
1520204822372048,-58,-16,-13,7,4,-74,47,-5
1520204822372048,43,-68,4,16,-3,114,-45,36
1520204822387088,2,18,-16,-30,-56,-94,-79,-104
1520204822387088,45,74,20,10,-10,7,2,103
1520204822388091,11,-1,16,36,73,39,73,-2
1520204822388091,-18,-13,39,26,-11,-8,-58,46
1520204822409147,30,27,-30,-24,13,65,125,-97
1520204822409147,5,-17,32,4,-13,-18,14,36
1520204822410150,8,5,-21,-8,-20,3,49,119
1520204822410150,-40,-30,5,15,-30,-58,-61,3
1520204822424187,-3,59,3,9,66,79,99,-40
1520204822424187,-69,-86,-22,-24,-74,-98,-112,10
1520204822432208,84,-6,-6,9,-8,21,64,-56
1520204822432208,-34,108,65,-8,-9,-50,47,-32
1520204822447248,21,-44,-17,-5,-32,-103,-97,11
1520204822447248,-33,-24,-14,7,-35,-14,-40,3
1520204822448251,31,-83,-30,-30,37,-38,-42,-68
1520204822448251,0,66,22,6,-30,-29,-43,-1
1520204822469307,15,-16,4,1,-39,58,-14,51
1520204822469307,12,-32,-13,5,41,1,4,-11
1520204822470310,-30,112,-18,-17,-82,14,-8,-17
1520204822470310,10,52,4,-12,36,-71,-114,-21
1520204822483344,40,-75,-21,-4,-37,-76,61,66
1520204822483344,-46,79,42,12,35,71,-29,-30
1520204822492368,47,-14,14,17,16,16,28,-45
1520204822492368,-41,-128,-36,-5,-9,-56,-85,24
1520204822507408,31,-65,-44,-16,-49,-10,-75,15
1520204822507408,-3,125,41,22,67,34,60,-28
1520204822507408,-73,-96,43,-1,-36,-54,-125,-5
1520204822507408,43,-20,14,4,32,50,9,13
1520204822529467,-21,-82,-11,7,-2,-41,-85,26
1520204822529467,125,-128,-93,-51,-70,3,18,-20
1520204822530470,-21,127,47,16,22,0,-124,7
1520204822530470,-78,78,40,10,18,50,11,2
1520204822543504,5,-54,2,-10,-30,-117,-128,-1
1520204822543504,41,-32,2,24,76,86,116,-4
1520204822551526,7,-41,-14,1,-31,-32,-10,-8
1520204822551526,96,-128,-65,-32,-64,-57,-34,0
1520204822566565,-128,109,24,8,20,104,89,9
1520204822566565,-82,-17,42,6,21,-16,31,-4
1520204822567569,79,-33,0,-5,-39,-56,-46,-6
1520204822567569,-14,-42,-39,-6,-4,-13,-21,-1
1520204822589627,-26,-5,27,29,48,18,-63,8
1520204822589627,-12,-30,23,-12,-17,-66,-128,-9
1520204822590630,28,-71,-76,-22,-62,-53,77,-6
1520204822590630,83,22,23,36,117,-6,85,4
1520204822603664,12,77,64,-8,-106,-107,-51,4
1520204822603664,-46,28,16,1,-37,0,20,-5
1520204822611686,-13,-128,-56,-6,15,9,-121,0
1520204822611686,-74,50,62,-4,-60,18,-68,6
1520204822626725,28,-113,-45,-10,27,48,65,3
1520204822626725,61,46,-1,-17,-12,-66,-94,-3
1520204822627729,-103,-19,11,-7,-10,2,18,2
1520204822627729,66,-114,-78,-32,3,31,37,0
1520204822649787,-16,-9,16,35,59,50,111,0
1520204822649787,-97,-32,6,-4,-29,-33,-116,0
1520204822649787,92,8,-22,-5,14,28,83,-5
1520204822649787,-104,34,43,13,-13,7,-37,-2
1520204822663824,24,-128,-88,-11,-19,33,42,4
1520204822663824,13,100,16,19,91,29,127,0
1520204822671846,-45,-28,25,-17,-22,-5,-37,-2
1520204822671846,67,-110,-25,-3,1,13,2,-5
1520204822686885,14,56,46,16,16,0,-23,7
1520204822686885,-83,-95,-21,32,19,16,4,-2
1520204822687889,34,127,86,10,8,-61,-106,-2
1520204822687889,57,-36,-18,-14,-48,-33,-86,-3
1520204822708944,77,-100,-73,-15,40,18,29,2
1520204822708944,-35,86,74,33,22,32,-3,-4
1520204822709947,44,-103,-6,-2,-29,11,6,-6
1520204822709947,-69,-51,-21,-8,-8,5,49,3
1520204822733008,40,72,25,-4,-1,-18,-30,4
1520204822733008,39,-50,-30,-14,-7,-9,-25,1
1520204822733008,62,-88,-68,-9,9,34,102,-1
1520204822733008,-102,31,62,18,-7,-36,-13,-3
1520204822747046,-79,-74,-11,25,84,99,112,4
1520204822747046,89,-120,-36,-31,-56,-15,-80,-1
1520204822748048,-110,113,88,15,7,-79,-85,-1
1520204822748048,21,-111,-39,-10,-7,4,54,1
1520204822769105,-11,-21,-14,-12,-38,-2,30,-2
1520204822769105,-62,-8,-19,-2,6,-69,-55,-3
1520204822770107,-34,10,-1,-4,2,17,-35,-2
1520204822770107,-21,37,16,13,12,26,39,-4
1520204822792166,20,-72,-21,-33,-45,-46,-75,2
1520204822792166,-23,-10,-16,1,-2,21,32,0
1520204822793169,61,-51,-12,-5,-6,34,23,0
1520204822793169,-18,-71,-7,1,12,-36,-105,2
1520204822807206,45,77,-2,-8,2,18,75,1
1520204822807206,36,-77,-45,-22,-11,2,57,-8
1520204822808209,-96,105,44,25,19,-1,-50,-3
1520204822808209,-24,-68,-9,2,0,88,103,0
1520204822829264,-10,25,38,5,1,-34,-67,-2
1520204822829264,75,-55,-4,-3,-27,-9,4,-1
1520204822830268,-22,79,35,12,24,28,64,2
1520204822830268,34,-7,-24,-14,-19,-26,-3,1
1520204822852326,-71,19,-6,-16,4,60,13,-4
1520204822852326,58,-10,19,9,14,-30,78,0
1520204822852326,22,-27,-19,-10,-14,41,105,-1
1520204822852326,20,46,13,-6,-20,-27,-112,-1
1520204822867366,23,6,12,5,8,4,-7,-3
1520204822867366,-59,-20,-17,-13,-13,0,-62,-1
1520204822867366,38,-118,-53,0,5,-34,-95,-1
1520204822867366,7,49,2,6,33,89,117,0
1520204822889425,-16,49,86,15,-8,-36,-46,4
1520204822889425,29,-13,-15,3,6,18,-50,-4
1520204822890427,-26,11,-4,-10,-24,-63,-94,-2
1520204822890427,-26,8,11,12,36,65,108,-3
1520204822911483,16,-29,-4,4,-4,-30,-75,0
1520204822911483,-12,70,20,3,-6,6,-9,3
1520204822912486,11,-30,4,4,5,1,-31,-1
1520204822912486,14,67,-1,4,3,17,39,1
1520204822926523,-15,38,-7,-4,2,0,4,2
1520204822926523,-13,-15,5,-1,-8,-4,-99,0
1520204822927526,-50,-37,-8,-11,-2,0,11,-1
1520204822927526,17,-68,-32,-2,2,-11,34,2
1520204822949584,3,-25,-13,-1,8,5,44,5
1520204822949584,-2,7,5,-1,-1,-2,-19,6
1520204822950588,4,-16,-4,-6,-8,13,38,7
1520204822950588,-14,-18,-2,0,-8,-41,-58,8
1520204822975654,-11,2,-1,9,-1,10,-87,4
1520204822975654,23,18,2,-9,6,7,63,6
1520204822976657,-1,-14,5,5,15,21,72,-15
1520204822976657,27,39,17,-14,-31,-62,-128,-4
1520204822986683,-20,-38,-20,1,-6,-35,-68,-7
1520204822986683,-1,8,-2,15,12,66,56,14
1520204822987686,-35,-14,0,-3,-12,-58,-88,-22
1520204822987686,2,-33,-23,-9,12,19,-50,-11
1520204823009744,18,30,19,-2,-15,2,46,0
1520204823009744,-13,-22,-26,-25,-16,-37,-68,2
1520204823009744,0,-5,5,14,2,21,124,5
1520204823009744,25,8,12,2,14,-8,-32,9
1520204823031803,-25,-24,-20,-9,-15,3,-46,-3
1520204823031803,21,6,15,9,13,10,33,-27
1520204823032807,-19,0,-9,-8,5,25,-47,-3
1520204823032807,-5,43,8,4,-6,-72,-113,24
1520204823046843,-32,-25,-42,-14,13,63,89,-12
1520204823046843,31,26,57,8,-6,-74,-29,-19
1520204823047846,4,11,-4,11,7,14,-26,31
1520204823047846,-11,9,19,11,-4,-3,-93,8
1520204823069904,-22,-76,-49,5,-5,18,95,45
1520204823069904,-41,71,8,-8,30,89,48,5
1520204823069904,26,27,22,-16,-12,-44,-81,-54
1520204823069904,38,-9,13,7,-15,32,117,44
1520204823091963,-7,-25,1,-3,41,2,-18,-44
1520204823091963,9,33,2,-11,-64,-43,-105,9
1520204823092966,-14,-28,-24,-37,-15,-19,-31,64
1520204823092966,-19,30,8,44,8,7,99,-8
1520204823107003,-13,15,8,1,-27,63,11,31
1520204823107003,4,-55,-33,-21,-4,-67,-46,-100
1520204823108006,-5,5,-5,30,33,-47,-55,1
1520204823108006,20,-1,11,-23,38,27,72,-93
1520204823129062,-28,-4,-14,-30,-63,-50,-128,4
1520204823129062,22,-21,16,31,61,28,-59,56
1520204823130065,34,21,47,-24,-64,-64,-11,-20
1520204823130065,-24,-29,-14,20,-95,-37,-38,20
1520204823152123,-7,-12,-17,17,73,-1,-102,-16
1520204823152123,-34,7,-38,-7,51,97,79,2
1520204823153126,35,17,35,19,19,-4,-15,-9
1520204823153126,-50,-36,-25,-26,41,36,92,15
1520204823167163,52,31,32,-39,-111,-88,-70,-6
1520204823167163,12,-50,-12,9,-21,-34,7,22
1520204823168166,-17,11,-16,13,24,39,15,8
1520204823168166,-28,-12,-29,-30,8,-18,-114,-10
1520204823189222,-37,-33,-76,-10,21,-75,-36,-50
1520204823189222,112,68,84,9,-63,-54,-74,-102
1520204823190225,-15,-10,-1,-3,-45,-41,-56,47
1520204823190225,-13,-25,-12,40,86,35,8,-12
1520204823212283,49,25,-4,-6,-13,-49,-21,-13
1520204823212283,-50,-22,-34,2,2,98,-31,109
1520204823212283,-24,-28,-30,-24,-64,-15,-39,-96
1520204823212283,45,34,24,-24,-13,-4,83,48
1520204823227323,2,16,38,30,81,66,90,14
1520204823227323,-23,-23,-36,-47,-36,-14,79,20
1520204823227323,-35,-19,-2,14,48,78,-50,1
1520204823227323,-9,-40,-18,-1,-12,13,-42,-3
1520204823249382,38,7,-45,-46,-34,-101,-84,-88
1520204823249382,21,39,86,68,41,13,26,-15
1520204823250385,2,-63,-45,11,67,64,127,44
1520204823250385,-6,38,4,2,-31,-78,-128,-23
1520204823272443,-24,-46,17,20,20,103,127,67
1520204823272443,2,-11,-31,-16,-2,-21,-106,-51
1520204823272443,8,26,27,-30,-10,9,24,81
1520204823272443,24,13,7,-27,-39,-45,-29,-27
1520204823286480,-11,18,11,0,-38,29,-61,47
1520204823286480,-36,-31,-31,25,60,-45,-83,-15
1520204823294502,7,5,3,-7,41,31,119,-6
1520204823294502,24,-3,-6,24,-74,-43,-24,19
1520204823309542,-1,13,10,-82,-77,-47,-59,-32
1520204823309542,17,-4,6,42,2,-111,32,-15
1520204823310545,-34,-28,-37,3,24,64,-22,-22
1520204823310545,22,29,31,18,90,117,-11,58
1520204823331601,27,29,45,69,35,-2,21,14
1520204823331601,-22,-24,-27,-13,6,38,61,97
1520204823332604,-25,-31,-18,5,-23,-56,-93,-31
1520204823332604,-31,27,-24,-33,-51,-85,-6,-43
1520204823346641,40,-2,36,27,56,66,95,29
1520204823346641,-11,10,18,-19,30,60,19,-12
1520204823354662,-9,6,-9,-18,-72,31,48,61
1520204823354662,-33,-73,-66,-32,39,16,-61,26
1520204823369702,48,60,62,0,-94,-112,-122,-81
1520204823369702,-85,-47,-66,-64,-19,-70,16,56
1520204823370705,74,50,50,67,52,60,-26,23
1520204823370705,-21,-20,-3,10,56,48,65,-51
1520204823391761,-8,1,-24,-25,-57,-42,23,63
1520204823391761,-7,-22,-3,-14,-48,79,34,102
1520204823392764,1,18,20,75,51,43,58,-43
1520204823392764,17,6,14,36,-24,32,-22,31
1520204823405798,-42,-19,-14,55,66,-20,127,86
1520204823405798,25,-1,5,-66,-128,63,-31,-128
1520204823414822,18,17,7,-23,-48,-51,17,112
1520204823414822,-8,1,13,9,12,-85,127,-46
1520204823429862,-25,2,-11,7,23,87,115,-33
1520204823429862,-10,-35,-18,-40,56,-121,-111,28
1520204823429862,13,-11,-15,39,-47,-17,-30,-49
1520204823429862,-15,-5,19,-29,61,27,33,25
1520204823451921,30,20,19,-18,-115,-52,-119,9
1520204823451921,-2,-2,-1,64,112,120,117,2
1520204823452924,-38,-26,-39,-85,-66,-128,-100,-32
1520204823452924,38,20,11,21,-51,61,-128,-18
1520204823465958,-30,-20,-12,5,127,23,-125,78
1520204823465958,24,24,14,-43,-126,7,10,-86
1520204823473979,8,-1,-4,-13,106,31,23,76
1520204823473979,-21,-13,-11,32,-47,-5,-72,-100
1520204823489019,15,8,-1,6,105,-11,-5,-2
1520204823489019,33,15,4,49,-71,-74,-80,57
1520204823490022,-2,-5,-16,-56,27,93,16,-24
1520204823490022,-2,-1,-3,-128,-105,-41,-5,66
1520204823512081,-10,-11,-9,43,18,3,-36,-28
1520204823512081,-28,-15,-13,19,-47,-31,92,6
1520204823513084,-5,-3,5,-41,-56,-52,-124,-86
1520204823513084,28,-13,-25,59,86,18,-48,103
1520204823526118,-21,23,35,-45,-105,69,-37,-107
1520204823526118,3,-21,1,42,126,-59,-39,79
1520204823534139,17,11,14,-17,-43,121,90,-26
1520204823534139,33,-3,-1,52,31,33,122,34
1520204823549179,-22,20,-19,5,-43,-94,-106,-75
1520204823549179,-20,-14,-11,-90,-48,-58,-18,23
1520204823550183,20,11,22,54,61,10,-29,29
1520204823550183,-37,-1,4,44,52,-5,-92,88
1520204823572241,59,9,8,-1,-44,19,78,-6
1520204823572241,1,16,3,-9,-45,30,59,-86
1520204823572241,-31,-10,-16,33,-114,-128,-60,3
1520204823572241,22,17,21,54,65,98,-12,-26
1520204823586278,6,-1,8,18,35,12,67,31
1520204823586278,26,21,15,-51,-88,21,-89,15
1520204823594300,-9,6,-1,-21,-14,-45,-10,-79
1520204823594300,-33,-16,-4,-16,14,-55,8,48
1520204823609339,-39,-40,-22,-48,-2,-42,7,47
1520204823609339,56,51,6,66,86,-11,7,-31
1520204823610343,-13,-6,12,-23,-29,-10,2,3
1520204823610343,0,1,16,-15,40,63,87,44
1520204823632401,5,-8,-12,-7,31,54,25,-10
1520204823632401,-33,-36,-17,16,-16,-75,-87,127
1520204823632401,-3,24,-5,-3,-7,-55,-116,-72
1520204823632401,-1,17,22,-32,-41,-31,-27,31
1520204823646438,-3,-11,-4,1,-23,-3,-24,90
1520204823646438,27,7,2,24,54,20,44,21
1520204823654460,-37,-39,-35,-17,22,-9,-22,-18
1520204823654460,-3,10,7,-13,-38,29,59,-63
1520204823669499,-15,-8,9,-14,40,46,-100,20
1520204823669499,16,10,11,10,29,56,-77,-3
1520204823670503,17,-1,12,47,7,-68,36,2
1520204823670503,-14,-14,-9,-6,11,45,-21,-45
1520204823691558,-7,13,-6,11,-46,-60,-19,21
1520204823691558,-9,-17,-3,-16,-40,32,-10,-120
1520204823692561,-6,-4,-1,23,77,12,13,79
1520204823692561,22,12,-11,-29,-50,-66,-17,-13
1520204823715622,4,-6,13,-8,-6,-21,-51,-62
1520204823715622,-21,-20,-9,-1,10,11,19,21
1520204823715622,-16,-35,-10,-2,-25,-17,-94,65
1520204823715622,18,82,-1,-23,6,10,6,-16
1520204823729659,3,-21,14,14,37,26,76,-9
1520204823729659,2,7,-4,-13,-42,-4,-46,73
1520204823730663,9,-11,10,13,30,1,-54,27
1520204823730663,7,-60,-32,-20,-56,-25,-3,-27
1520204823751718,-37,10,-18,9,25,-6,119,24
1520204823751718,67,44,22,7,55,4,25,2
1520204823752722,-18,-1,2,-13,-40,10,34,65
1520204823752722,2,-4,7,3,-18,-37,-17,15
1520204823774780,7,-3,-22,-16,-51,-32,-44,-25
1520204823774780,-28,-21,-6,2,3,-6,-6,25
1520204823775782,8,2,0,6,60,73,-37,-36
1520204823775782,16,14,3,-8,-37,-8,55,15
1520204823789820,9,8,8,-7,0,-23,-69,-50
1520204823789820,-6,-13,-4,-4,9,-1,-8,3
1520204823789820,-4,26,-3,-6,1,36,41,1
1520204823789820,-33,-43,0,11,-27,-45,-104,17
1520204823811878,38,43,-7,-10,16,77,75,-30
1520204823811878,-39,31,13,0,24,41,-33,18
1520204823812881,1,-30,1,2,-2,-8,37,57
1520204823812881,-3,6,4,0,-18,-44,-64,-106
1520204823834940,-10,-65,-28,0,-18,9,65,119
1520204823834940,-49,24,-16,-15,-8,-84,-110,-13
1520204823835943,41,39,32,15,16,80,25,-47
1520204823835943,0,-20,-1,-18,-8,-28,3,7
1520204823848977,19,-23,-2,9,18,8,13,34
1520204823848977,6,-60,-22,-14,-50,-34,24,-7
1520204823849979,-30,67,-6,5,36,39,44,-3
1520204823849979,-9,-15,3,7,23,13,89,0
1520204823872038,1,58,10,-8,-28,-20,-23,-6
1520204823872038,7,-106,-1,-1,4,1,-18,-4
1520204823873041,26,93,4,-20,-22,-19,5,-22
1520204823873041,-46,-19,14,15,-8,-7,-40,-14
1520204823895100,-2,-21,-15,1,17,3,10,3
1520204823895100,47,-40,-13,-4,2,21,7,-28
1520204823896103,39,-26,-4,2,-14,-25,-24,-3
1520204823896103,-80,97,21,-7,-7,-8,-6,5
1520204823909137,-5,-61,-9,-13,-8,-15,-24,-2
1520204823909137,-9,25,16,26,9,5,11,-14
1520204823910140,45,-26,-16,1,21,54,66,1
1520204823910140,51,-22,-2,-18,-10,-20,-3,3
1520204823932198,2,-35,2,-1,5,-7,-49,-10
1520204823932198,-8,98,12,0,-8,-3,13,-13
1520204823933201,-39,-22,-17,-21,-44,1,-25,-1
1520204823933201,-1,-44,-7,16,47,-20,-4,-6
1520204823955260,-53,115,29,1,-13,31,76,-6
1520204823955260,-29,-48,-7,8,30,7,91,-7
1520204823956263,79,-106,-28,-12,-26,-17,-59,1
1520204823956263,-57,81,41,13,0,9,-15,0
1520204823969297,37,-128,-49,-13,-13,-23,-36,0
1520204823969297,19,121,23,-4,-8,0,-6,0
1520204823970300,-123,-37,30,19,10,-17,-1,-6
1520204823970300,73,-122,-42,-10,-5,34,80,4
1520204823993361,-25,46,-2,-3,5,-37,-110,-1
1520204823993361,24,-29,-2,0,-5,11,-29,-8
1520204823994364,32,6,0,-11,-3,-16,22,-4
1520204823994364,98,59,18,14,-4,-16,-37,4
1520204824015420,-90,-88,-10,2,10,18,44,0
1520204824015420,-34,4,12,8,10,12,-2,-4
1520204824016423,66,-39,-25,-17,-16,-12,6,-3
1520204824016423,-68,62,45,14,8,6,-32,3
1520204824029457,64,-32,-10,-4,-2,-4,45,-2
1520204824029457,-100,-15,13,3,-8,-24,-90,-9
1520204824030460,-114,-8,-12,-2,10,2,70,1
1520204824030460,104,-123,-35,-7,-8,0,-27,-10
1520204824051516,-1,-49,0,-11,-5,-11,-44,2
1520204824051516,-10,87,25,14,3,8,36,-2
1520204824052518,-4,-90,-16,-7,-7,-12,-14,7
1520204824052518,-86,-43,-55,-35,-14,-7,-19,2
1520204824075580,-89,102,38,15,-2,-34,-57,-4
1520204824075580,99,-128,-91,-29,-2,37,66,-2
1520204824075580,-126,127,109,28,8,2,-9,-1
1520204824075580,35,-87,-22,0,-7,-12,-15,-1
1520204824089617,31,12,8,11,10,11,17,3
1520204824089617,74,-86,-9,5,4,-1,-20,4
1520204824090620,84,102,-2,-4,-8,-17,-25,3
1520204824090620,30,-82,-57,-15,-2,18,14,-7
1520204824111675,-52,-57,18,-2,-4,-1,32,-3
1520204824111675,-80,-64,-38,-13,-11,-10,16,-7
1520204824112679,0,-14,18,8,4,-5,-34,0
1520204824112679,58,-35,-44,-29,-19,-24,-33,-2
1520204824134737,3,-13,31,20,11,18,-25,-1
1520204824134737,86,45,-18,-16,-8,-20,-16,1
1520204824134737,-8,-128,-80,-26,-8,15,91,3
1520204824134737,13,127,71,28,11,11,25,0
1520204824148774,-41,-59,-5,4,6,4,-24,1
1520204824148774,48,-92,-17,-5,-9,-16,-30,0
1520204824156796,-4,-3,-5,5,10,28,34,0
1520204824156796,-91,-25,3,-5,-1,-6,-19,-4
1520204824171836,10,85,13,-1,2,1,15,1
1520204824171836,-38,101,49,11,0,-6,1,-1
1520204824172839,6,-45,-15,-1,-1,-4,12,-3
1520204824172839,-23,-30,13,5,-2,-3,-24,1
1520204824194897,37,-37,-5,-1,2,-2,20,-2
1520204824194897,-39,63,17,2,6,13,6,1
1520204824194897,-67,53,32,8,-6,-22,-71,0
1520204824194897,38,-23,2,-3,-8,-12,-10,0
1520204824208934,42,-103,-51,-18,-12,-24,-18,-5
1520204824208934,-26,12,13,16,25,74,98,1
1520204824209937,39,26,17,2,-1,-13,-63,0
1520204824209937,7,-8,14,7,-14,-31,-33,-3
1520204824231996,19,-40,-23,-14,-5,-4,-39,5
1520204824231996,-8,-6,-12,-13,-8,-22,-4,-2
1520204824232999,-35,16,-5,3,2,12,73,1
1520204824232999,-41,-78,-22,1,21,41,-30,-4
1520204824254055,40,114,27,9,-8,-31,-39,-3
1520204824254055,-6,-11,11,11,9,37,3,-1
1520204824255058,4,-72,-26,-21,-16,-38,-88,1
1520204824255058,-37,38,16,-1,2,-10,-15,5
1520204824269095,3,-79,-38,-8,-9,36,101,0
1520204824269095,-53,65,67,23,16,-3,-52,-3
1520204824277116,50,-113,-9,16,3,25,100,-6
1520204824277116,22,14,16,-31,-38,-54,-96,-1
1520204824292156,-27,22,13,14,15,13,5,2
1520204824292156,16,-42,-41,-12,-8,-16,25,10
1520204824293159,6,8,-3,-5,-1,-9,13,11
1520204824293159,-20,32,8,25,32,24,96,13
1520204824314215,10,91,-2,2,32,54,-47,7
1520204824314215,22,-23,-6,-19,-49,-79,-93,-8
1520204824315217,4,4,12,-2,-3,-20,-99,-4
1520204824315217,-21,-8,-7,-1,2,40,-9,6
1520204824339282,-3,-70,-12,-10,-11,-98,-35,1
1520204824339282,-1,48,17,35,42,45,-33,-15
1520204824340285,-21,-16,-12,-14,-38,62,55,-7
1520204824340285,16,4,6,-15,21,-47,-77,-16
1520204824352316,-1,9,6,4,-37,-68,-42,2
1520204824352316,6,-20,-3,-22,6,16,-8,4
1520204824352316,-26,47,13,16,8,-15,3,9
1520204824352316,-5,-64,-66,4,3,50,-17,6
1520204824374375,-19,-28,13,30,58,69,-28,-22
1520204824374375,-24,-27,2,-20,-27,-34,30,-2
1520204824375377,28,-12,-4,2,0,34,59,8
1520204824375377,-3,-32,-20,-19,-22,-27,55,-10
1520204824388412,5,52,39,11,-5,-24,-14,11
1520204824388412,3,-32,-24,-3,-13,-31,67,45
1520204824397436,-25,75,-5,3,61,104,64,-52
1520204824397436,1,114,48,-5,-44,-82,-2,-19
1520204824411473,13,12,-3,-14,-27,-10,-52,1
1520204824411473,-19,-40,-4,4,3,83,91,36
1520204824412476,23,-8,11,-16,3,-90,-128,-36
1520204824412476,-36,-3,23,22,22,38,-75,47
1520204824434535,16,5,-2,-14,-22,4,100,-36
1520204824434535,15,-1,-8,11,-12,-43,-77,6
1520204824435537,-1,-1,-4,3,8,11,14,25
1520204824435537,-19,7,3,-1,0,13,-16,-32
1520204824457596,-16,-33,-34,-16,37,32,31,22
1520204824457596,5,9,22,29,3,25,-39,-30
1520204824458599,3,-113,-77,-38,-47,-117,-111,18
1520204824458599,14,39,76,29,49,112,122,-16
1520204824471633,41,-57,8,-17,-53,-58,-98,28
1520204824471633,28,-17,-8,4,16,-27,-63,21
1520204824472636,-10,-29,-20,-13,-5,-28,-5,9
1520204824472636,-23,-24,-35,26,36,70,48,89
1520204824494695,-44,19,3,-1,-45,-52,62,-6
1520204824494695,11,14,8,6,2,81,47,-54
1520204824495698,22,28,27,-2,19,-95,-105,-4
1520204824495698,8,-8,-24,-15,-36,-13,24,19
1520204824517756,-14,27,3,40,97,79,70,-13
1520204824517756,-2,-11,-2,-3,-73,-61,7,17
1520204824518759,-15,3,6,-16,26,51,46,26
1520204824518759,22,8,1,24,17,6,42,-25
1520204824531793,-8,-24,-32,-17,-10,-25,-128,-70
1520204824531793,0,-39,-25,-53,-37,-90,-44,-87
1520204824532796,-1,5,27,32,-29,16,40,17
1520204824532796,8,19,-1,-12,-15,-33,4,-3
1520204824554855,-8,-49,0,-63,-21,48,76,57
1520204824554855,2,25,47,75,-15,-34,-24,3
1520204824554855,-36,-2,-21,17,64,64,36,73
1520204824554855,34,-23,-7,-20,-108,-101,-80,-102
1520204824577916,1,-6,-7,-8,103,65,-38,18
1520204824577916,18,16,-29,-24,-36,5,14,18
1520204824578919,1,-5,-32,-29,-86,-35,1,20
1520204824578919,-27,-23,12,69,13,3,-2,32
1520204824591953,-15,27,20,-30,-28,21,-25,7
1520204824591953,-20,9,59,32,119,5,74,-36
1520204824592956,69,19,-51,6,75,18,-80,-51
1520204824592956,4,7,35,4,20,-14,114,-12
1520204824614012,26,20,-2,25,-92,-66,-74,-42
1520204824614012,-44,-12,-6,-5,-28,38,-37,71
1520204824615015,-10,-13,-19,-39,-70,8,15,-31
1520204824615015,-27,-54,-118,-128,14,-22,-67,12
1520204824638076,22,52,106,127,3,5,74,-69
1520204824638076,-10,-22,-35,43,11,11,1,-32
1520204824638076,16,-11,-17,-20,-8,-3,-21,-11
1520204824638076,-1,41,13,-5,63,-11,-5,52
1520204824652113,-31,-39,-78,-91,-90,16,118,34
1520204824652113,-49,-36,-5,-86,84,50,9,17
1520204824653116,76,43,125,127,5,-6,67,-85
1520204824653116,3,1,-27,-52,90,39,12,38
1520204824674172,1,15,10,-18,-59,-61,-65,40
1520204824674172,5,5,-18,31,59,39,-50,64
1520204824675175,-41,-18,-19,-28,23,48,63,18
1520204824675175,54,24,48,53,-64,24,3,-36
1520204824697233,2,23,15,11,19,-18,-98,34
1520204824697233,-41,-48,-56,-56,-71,15,65,35
1520204824698236,5,16,12,-74,-50,5,6,-55
1520204824698236,-16,-18,14,43,-121,-23,2,-60
1520204824712273,36,14,-7,17,82,9,35,-81
1520204824712273,26,3,-26,-20,11,-37,-52,57
1520204824712273,-33,37,39,-34,11,15,60,-33
1520204824712273,-34,-49,-12,-51,-35,-71,-72,26
1520204824734332,6,4,1,114,62,92,46,25
1520204824734332,48,40,28,-87,105,20,-4,-60
1520204824735335,-9,-26,-60,72,46,-20,18,69
1520204824735335,-7,5,42,-73,-104,-15,64,12
1520204824757393,-4,13,60,82,107,44,-6,99
1520204824757393,7,-11,-41,29,41,62,110,-50
1520204824758397,-4,6,4,-101,-121,-67,-63,16
1520204824758397,-27,-19,-40,84,127,-11,-100,-9
1520204824772434,17,-11,-28,-48,-32,-36,-57,-58
1520204824772434,13,18,29,-28,-92,-112,51,6
1520204824772434,-32,-29,-20,19,-70,16,-99,-23
1520204824772434,25,19,17,-23,32,37,117,33
1520204824794492,-21,-17,-47,-60,-11,-71,-105,-10
1520204824794492,-22,-12,5,127,52,-24,-128,41
1520204824795495,49,23,31,-52,-94,23,96,-79
1520204824795495,-25,-35,-30,-16,-76,-9,-95,81
1520204824817554,-16,-4,-30,-98,-128,-82,60,-51
1520204824817554,-2,19,56,48,48,79,37,-6
1520204824818556,31,33,32,78,-16,-13,-45,-12
1520204824818556,-14,-15,-16,-64,33,-59,-86,-53
1520204824831591,8,3,-9,-125,-104,-15,55,58
1520204824831591,-46,-23,-32,91,-57,-78,-128,2
1520204824832594,57,24,51,-25,127,102,94,-41
1520204824832594,32,27,10,12,-51,6,-44,52
1520204824854652,-34,-21,-22,-34,40,-41,-82,35
1520204824854652,-29,-20,-27,-103,-88,105,19,106
1520204824855655,-6,-12,-6,96,33,-30,-37,-45
1520204824855655,35,18,-7,-91,-27,22,7,13
1520204824877714,-14,3,25,78,63,25,-46,-65
1520204824877714,1,-9,-15,-87,-44,-84,-76,-68
1520204824878716,-5,-27,-35,-54,4,46,26,79
1520204824878716,-5,23,15,9,50,92,29,1
1520204824891751,30,12,17,85,20,-40,47,-31
1520204824891751,24,5,0,-59,-90,-27,17,-4
1520204824892754,-79,-36,-27,27,102,21,-98,58
1520204824892754,31,12,22,60,-71,54,115,-70
1520204824914812,25,21,15,32,110,127,67,-66
1520204824914812,-6,4,-3,-54,-69,-104,58,23
1520204824914812,5,-5,2,32,76,62,-18,26
1520204824914812,-27,-24,-27,14,-13,-55,49,-24
1520204824937874,21,9,4,-65,-59,-79,-72,-102
1520204824937874,3,8,18,4,-93,-47,24,-29
1520204824938876,-22,-11,-10,28,44,-70,-20,34
1520204824938876,-32,-11,-4,40,35,-50,-36,-2
1520204824951911,28,3,-15,-27,-40,-23,24,-24
1520204824951911,3,-1,0,-10,113,20,43,7
1520204824952914,-23,-10,-11,-70,-128,-69,-96,-20
1520204824952914,26,23,18,14,127,85,7,-52
1520204824974973,-28,-18,-9,20,-27,9,41,101
1520204824974973,22,11,25,59,94,26,-13,-33
1520204824975976,-16,-11,-9,-18,12,5,-45,-31
1520204824975976,17,8,-3,10,11,18,31,-68
1520204824998034,-44,-35,-22,-39,-16,1,-79,48
1520204824998034,33,50,28,2,48,79,19,-1
1520204824998034,8,-8,2,-3,-35,-55,62,-87
1520204824998034,-8,-11,-23,-41,-87,-31,44,37
1520204825012071,-4,39,47,23,40,-1,-17,83
1520204825012071,-32,-20,-30,-13,-55,-63,-27,-33
1520204825013074,16,4,12,7,-30,43,93,101
1520204825013074,51,44,2,18,56,9,-46,35
1520204825034130,-52,27,10,16,48,23,14,-10
1520204825034130,24,-29,1,-13,-64,-27,-44,85
1520204825035133,-31,-8,10,45,77,47,66,31
1520204825035133,30,6,17,2,-52,-66,-79,55
1520204825057191,7,-29,-44,-36,15,-81,-96,-84
1520204825057191,16,14,10,8,-70,6,-66,-68
1520204825058194,-19,-10,-6,-21,-38,-87,-27,43
1520204825058194,18,2,14,32,38,74,52,-22
1520204825072231,11,9,1,-27,-32,5,-21,-48
1520204825072231,-36,-27,-11,1,-4,-12,-23,-12
1520204825073234,23,-13,-24,-29,-5,-84,-64,-11
1520204825073234,-23,-8,-2,18,31,28,-102,-49
1520204825094290,12,-30,5,13,-15,14,33,37
1520204825094290,6,27,7,13,64,99,127,-97
1520204825095293,-14,0,-11,-15,-21,-89,-122,-42
1520204825095293,-32,-27,2,3,4,45,116,58
1520204825117351,23,63,18,12,-1,32,49,67
1520204825117351,-1,-18,-8,-7,-6,-42,-103,1
1520204825118354,10,-38,-19,-7,-28,-47,37,32
1520204825118354,-22,24,12,-18,12,18,-37,-92
1520204825132391,28,-22,-15,-13,-41,-59,-53,49
1520204825132391,-1,17,16,17,39,19,-35,65
1520204825132391,-49,8,-4,-16,-52,-38,0,27
1520204825132391,30,-11,-18,1,84,21,22,88
1520204825154450,-18,-24,-4,8,-48,73,110,43
1520204825154450,60,8,-9,-33,-39,-70,-59,-100
1520204825155453,0,41,28,15,42,61,-12,-11
1520204825155453,-42,-30,-13,-7,-46,-88,-64,12
1520204825177511,-21,-23,-14,13,27,-31,20,59
1520204825177511,13,-35,-9,-8,37,21,38,-51
1520204825178514,35,86,18,-4,-2,28,-15,79
1520204825178514,1,-3,4,-12,-74,-106,-64,-76
1520204825191548,-35,-7,0,2,44,7,-2,12
1520204825191548,9,-42,-25,-19,-79,-32,47,5
1520204825192551,23,20,-1,48,127,114,93,-52
1520204825192551,-14,-16,33,-18,-82,-128,-118,-58
1520204825214610,16,95,26,9,-10,-3,74,59
1520204825214610,-25,-38,-5,7,23,-4,27,41
1520204825215613,-8,-21,-5,2,13,3,-33,2
1520204825215613,13,-10,-19,-4,-17,25,67,-5
1520204825237671,35,-15,-11,-6,4,17,-23,-90
1520204825237671,-43,10,7,14,43,38,40,127
1520204825238674,-36,8,13,-18,-53,-71,-63,-84
1520204825238674,-4,-22,-13,8,2,9,11,2
1520204825251708,37,-17,-9,-12,1,-8,-25,-16
1520204825251708,3,22,6,20,35,-2,-28,34
1520204825259730,-23,21,13,-16,-65,-77,-50,-10
1520204825259730,11,1,-2,21,46,109,91,29
1520204825274770,-18,-9,-5,-19,-43,-70,-120,-39
1520204825274770,69,-81,-13,-4,28,50,1,-22
1520204825274770,-2,70,24,3,1,4,38,-15
1520204825274770,-44,-15,-1,1,-13,-34,7,15
1520204825296829,8,-70,-24,12,15,-2,-5,-4
1520204825296829,-59,127,31,4,-1,37,80,-30
1520204825297831,95,-87,-16,-17,-16,-10,-66,13
1520204825297831,-13,61,6,1,6,4,-9,14
1520204825310866,-14,-88,-19,-2,3,24,42,-1
1520204825310866,-5,42,-10,-10,-23,-52,-70,-19
1520204825319890,-13,4,10,20,29,31,-35,28
1520204825319890,21,15,-1,-10,-23,-33,-22,3
1520204825334930,-28,27,3,3,12,47,74,-22
1520204825334930,30,-7,4,-1,-13,-58,-112,5
1520204825334930,7,-25,-9,-6,6,41,70,6
1520204825334930,23,-49,-8,3,8,16,-27,-4
1520204825356988,-1,26,9,-5,-3,4,56,4
1520204825356988,8,-10,-7,9,23,7,-30,2
1520204825357991,17,-73,-9,-13,-28,-13,-18,6
1520204825357991,69,93,5,1,-4,-21,-35,-4
1520204825371026,-60,-31,23,14,1,-9,-27,14
1520204825371026,43,-88,-8,-6,-10,3,-43,-6
1520204825379047,-85,48,0,-7,1,3,-9,-3
1520204825379047,41,9,-3,-1,2,6,29,6
1520204825394087,30,7,-1,1,-3,-13,-63,3
1520204825394087,-21,21,-1,-1,1,10,43,-6
1520204825395090,-2,-84,-13,5,14,29,73,12
1520204825395090,-35,11,5,-17,-22,-38,-43,6
1520204825417149,38,-42,-25,-18,-2,0,8,1
1520204825417149,-32,69,43,23,19,13,51,0
1520204825418151,26,-72,-30,-9,-12,-19,22,5
1520204825418151,9,28,-6,-2,16,58,51,-1
1520204825440210,-91,14,31,12,9,13,-3,-8
1520204825440210,-14,-107,-19,-17,-17,-8,21,1
1520204825441213,-15,-15,4,6,-2,-29,-30,-1
1520204825441213,49,36,23,5,-2,-1,11,1
1520204825454247,-8,-37,-13,-2,-5,-1,-17,2
1520204825454247,75,-44,-4,4,2,-5,-3,-3
1520204825455250,-56,1,19,11,2,9,2,1
1520204825455250,-79,-35,-16,-6,-8,-31,-99,-3
1520204825477309,6,55,-4,1,19,57,118,1
1520204825477309,10,-47,-20,-9,-16,-30,-92,-1
1520204825477309,88,-60,-13,-6,0,0,-14,-5
1520204825477309,14,-7,-1,7,5,4,17,1
1520204825491346,21,102,28,10,4,-1,-6,-2
1520204825491346,12,-89,-36,-10,-2,-1,33,-7
1520204825499367,-53,103,43,10,6,8,3,1
1520204825499367,11,-118,-57,-17,-9,-14,0,-2
1520204825514407,29,60,12,4,-2,-10,-33,-1
1520204825514407,-111,121,84,26,11,12,68,-2
1520204825515410,114,-48,-57,-23,-9,-7,-29,2
1520204825515410,-27,-80,-23,-6,-9,-14,-22,-1
1520204825537469,-27,-46,-20,-2,-1,-6,-20,3
1520204825537469,-2,-61,-23,-6,-6,-5,6,4
1520204825537469,42,-6,-12,-5,-5,1,10,-1
1520204825537469,-76,85,59,17,8,10,30,-1
1520204825561533,117,-128,-85,-30,-11,-2,-25,-3
1520204825561533,-59,8,32,12,10,10,30,-3
1520204825562536,65,68,15,4,-2,-12,-13,2
1520204825562536,15,-39,-22,0,4,12,26,0
1520204825574567,-36,-42,15,0,-3,-4,3,0
1520204825574567,12,99,20,-4,-11,-17,-36,4
1520204825575570,29,-128,-52,-14,1,16,19,-4
1520204825575570,-91,114,78,17,-2,-17,-33,0
1520204825596626,-24,32,15,9,1,-3,-8,0
1520204825596626,46,-115,-78,-21,-5,3,14,-5
1520204825597629,-30,90,54,17,4,0,-7,3
1520204825597629,13,-101,-15,-4,-3,-4,-10,-1
1520204825619687,62,-84,-25,-9,0,10,-2,-3
1520204825619687,9,-9,9,12,8,9,39,-7
1520204825620690,-28,1,3,-2,-2,11,41,-3
1520204825620690,46,-79,-39,-15,-3,-1,22,1
1520204825634727,-44,122,74,24,12,4,-22,-4
1520204825634727,97,-57,-22,-15,-13,-8,-8,3
1520204825635730,-128,99,44,10,8,6,-27,-4
1520204825635730,-7,-19,-18,-1,-2,3,20,-9
1520204825656786,13,33,-7,-9,-8,-20,-20,4
1520204825656786,-48,26,-1,-6,-9,-3,-10,6
1520204825657789,-1,3,16,11,-2,0,-3,5
1520204825657789,16,-50,-22,-17,-12,-10,-18,5
1520204825679847,-5,-29,-13,-1,-2,-15,20,2
1520204825679847,-40,15,-7,4,10,12,-10,0
1520204825680850,11,78,10,-1,3,-8,-14,1
1520204825680850,2,1,3,2,-6,-4,-27,-5
1520204825694887,-14,-4,11,14,6,3,-21,1
1520204825694887,-27,11,0,-5,0,11,53,-3
1520204825694887,4,-45,-18,-7,-10,-7,1,2
1520204825694887,2,-3,1,3,8,7,9,0
1520204825716946,-8,0,-6,-3,-2,-4,7,-3
1520204825716946,-33,48,33,9,4,-2,-31,-1
1520204825717949,20,-64,-23,-12,-8,-2,-9,-2
1520204825717949,-22,27,5,12,5,5,10,-2
1520204825740007,15,-6,2,-16,-1,14,17,2
1520204825740007,20,34,-10,2,5,0,14,-2
1520204825741010,-16,-46,-31,-26,-6,-8,-25,0
1520204825741010,15,24,39,29,11,1,-16,3
1520204825754045,8,-13,-8,-4,-4,1,34,-3
1520204825754045,-28,-7,-8,-11,-22,-15,-23,0
1520204825755048,39,25,10,14,11,5,-23,4
1520204825755048,-10,39,-8,-7,0,5,46,1
1520204825777106,-5,-26,-14,-7,-1,-5,-51,0
1520204825777106,-14,61,21,2,6,5,45,12
1520204825778109,-7,-36,-5,13,24,18,-21,5
1520204825778109,13,-41,-10,-25,-22,-7,9,1
1520204825800167,6,22,4,1,-6,3,7,-3
1520204825800167,-49,-12,-12,-3,3,-2,6,-2
1520204825801170,-2,0,1,12,-1,-1,27,-3
1520204825801170,8,9,1,-5,0,7,-2,-2
1520204825816210,-17,-11,-9,2,12,6,-32,-4
1520204825816210,15,-5,1,-9,-17,-7,-25,-11
1520204825817213,1,-7,-5,-14,-10,-29,-9,-7
1520204825817213,-13,-1,5,3,8,-14,-34,6
1520204825837266,-9,-13,-5,8,-4,19,33,-8
1520204825837266,25,-14,8,10,13,-2,-10,7
1520204825838269,-19,6,-12,-22,-11,-1,-15,2
1520204825838269,10,-4,-4,5,3,12,36,-7
1520204825860327,-9,-6,6,-1,-7,-24,-70,6
1520204825860327,15,2,-6,10,16,24,20,-15
1520204825861331,-4,-8,-17,-34,-35,-26,-17,-17
1520204825861331,16,27,46,8,8,3,-52,0
1520204825874365,-13,-18,-16,-12,3,-13,-15,14
1520204825874365,1,-2,-7,-11,12,32,63,14
1520204825875368,3,-2,17,52,10,10,33,3
1520204825875368,-2,-14,-25,-1,40,16,-2,-7
1520204825897426,8,42,46,20,-16,0,33,-22
1520204825897426,13,-2,-3,-5,-42,-43,-4,37
1520204825897426,-1,-2,-1,-2,30,32,10,-3
1520204825897426,2,-11,-14,-12,31,15,-70,63
1520204825920487,-5,6,13,8,-18,-15,65,-3
1520204825920487,-8,-9,-17,6,9,-54,-126,-66
1520204825921490,-4,1,13,-71,-54,6,7,47
1520204825921490,-7,2,11,68,-17,8,108,-12
1520204825935528,-4,-27,-62,-51,20,-9,74,30
1520204825935528,5,6,17,0,-34,-13,28,-44
1520204825942546,-47,-21,-23,13,49,-27,-27,82
1520204825942546,-2,-8,-14,-39,-74,64,105,-22
1520204825956583,22,11,19,19,26,16,-128,18
1520204825956583,1,0,-14,39,63,-31,117,-38
1520204825957586,37,25,25,15,-17,-39,-45,46
1520204825957586,-8,-15,-3,51,34,59,70,14
1520204825980647,-9,-1,8,-33,-24,13,-1,-28
1520204825980647,9,1,-6,-11,-5,10,-46,78
1520204825980647,17,-1,-10,-1,-16,-1,-53,-25
1520204825980647,-20,9,15,-41,-14,-45,-15,-10
1520204825993682,-22,-10,-13,38,0,-20,-76,-90
1520204825993682,22,3,3,-9,23,16,-111,-31
1520204826001704,4,9,27,35,-24,-68,25,-62
1520204826001704,-7,1,-3,-10,-12,72,-71,74
1520204826016744,20,6,12,-17,1,-73,40,-91
1520204826016744,14,14,4,-22,-30,11,42,32
1520204826017747,-9,9,16,61,-22,24,-75,-19
1520204826017747,-50,-26,-31,-33,75,15,-91,55
1520204826039805,-12,-10,-6,4,-32,102,108,121
1520204826039805,20,12,22,59,98,1,-1,-99
1520204826040808,21,-2,-16,-37,-39,3,73,88
1520204826040808,-11,-1,9,22,-33,-45,1,20
1520204826053842,-11,-6,-2,-12,-20,-13,-35,44
1520204826053842,-17,-9,2,-15,-27,10,-26,-4
1520204826061863,14,6,7,5,10,52,35,-26
1520204826061863,11,1,-4,-27,-37,-98,-92,-87
1520204826076904,9,5,0,34,24,-1,23,19
1520204826076904,-16,-6,-4,-12,-19,9,-18,6
1520204826077906,-21,-15,-14,-5,86,36,97,-40
1520204826077906,62,22,6,-39,-83,-66,-108,-64
1520204826099965,3,-3,-7,2,22,43,-18,75
1520204826099965,-16,-1,-2,-3,-4,-73,-67,-83
1520204826100968,-20,-6,-2,-43,-16,6,-35,70
1520204826100968,-21,-10,-3,86,71,-7,68,-7
1520204826114002,36,15,8,-27,-38,2,-101,-113
1520204826114002,6,-1,0,0,-13,-7,-26,127
1520204826115005,-22,-10,-7,-3,-27,20,36,9
1520204826115005,0,-3,-3,-11,50,-20,6,16
1520204826137064,0,7,8,8,-16,-8,47,-13
1520204826137064,-8,0,6,-14,-50,7,10,-45
1520204826138066,-2,-10,-17,-24,-3,-35,15,-5
1520204826138066,2,1,3,12,-17,56,81,-1
1520204826160125,-15,-9,-7,-3,36,-42,-54,21
1520204826160125,-1,-6,-13,-18,5,36,-46,1
1520204826161128,7,4,-3,-5,-28,-22,-92,-24
1520204826161128,-3,2,-1,-1,25,-12,16,-67
1520204826174162,1,-1,0,-8,-24,48,-2,125
1520204826174162,-13,-24,-22,3,10,-21,66,111
1520204826182183,14,7,7,-8,1,-28,-128,-111
1520204826182183,-2,3,10,5,-24,20,-86,53
1520204826197224,-10,-7,-20,-54,-61,7,35,-5
1520204826197224,11,5,7,62,45,5,6,58
1520204826198226,12,-1,-5,28,48,41,121,4
1520204826198226,25,13,14,14,41,-15,-80,28
1520204826220285,-51,-20,-13,-13,49,-56,-1,79
1520204826220285,21,9,1,-69,-121,35,6,-72
1520204826221288,0,-3,-3,-7,-33,104,54,-3
1520204826221288,26,15,15,47,44,-46,-11,82
1520204826233320,7,3,11,23,31,-95,-95,-34
1520204826233320,-3,-6,-12,8,40,11,94,-49
1520204826242343,1,9,8,-16,-34,-15,-37,-46
1520204826242343,-19,-12,-11,-24,-51,1,-11,-21
1520204826258386,-31,-13,-6,1,91,62,-16,22
1520204826258386,15,15,15,38,-84,20,61,-30
1520204826259389,0,-19,-17,14,66,-32,-92,47
1520204826259389,0,1,3,-47,-96,-44,35,-22
1520204826280445,-6,3,10,50,20,11,-32,32
1520204826280445,-12,-8,1,8,46,50,17,-72
1520204826281448,17,10,4,-4,19,-27,14,4
1520204826281448,-11,-4,-5,-18,11,58,78,-70
1520204826293479,28,11,5,13,-19,-16,5,-7
1520204826293479,-29,-19,-18,-47,-57,-81,-53,13
1520204826302504,-16,-3,4,26,-13,-15,19,-7
1520204826302504,-11,-15,-18,-13,25,44,-113,-19
1520204826316541,19,10,7,-6,-71,-45,127,-96
1520204826316541,7,15,12,10,54,-9,-100,-26
1520204826317544,-1,-3,-2,-8,-31,-14,2,-6
1520204826317544,6,0,0,-18,-33,-10,-9,-22
1520204826340605,-4,-6,-7,2,9,10,-20,19
1520204826340605,-6,1,1,4,25,-24,-12,74
1520204826340605,-2,-3,-1,0,8,19,54,-19
1520204826340605,11,12,2,-8,-12,-39,-61,36
1520204826353640,-11,-6,-5,8,6,62,98,12
1520204826353640,-2,-5,-4,-19,-11,-29,-39,9
1520204826361661,5,4,3,-6,-3,-3,85,58
1520204826361661,-5,-7,-7,9,-2,13,106,17
1520204826376701,22,29,11,5,-5,4,25,-31
1520204826376701,0,-5,17,7,2,20,-60,48
1520204826377704,7,5,-3,6,19,2,-32,79
1520204826377704,-21,-39,-13,-3,-11,-23,-3,7
1520204826399762,-7,4,-7,-8,-1,3,-13,-65
1520204826399762,7,8,3,-7,-5,29,114,25
1520204826400765,-19,-9,-2,5,0,-62,-99,-53
1520204826400765,21,8,-2,-10,5,35,83,-29
1520204826413800,9,-10,9,3,-21,-14,-47,-10
1520204826413800,4,3,-3,-2,-2,-11,-63,-20
1520204826421821,-10,5,-7,-3,0,-22,-37,-56
1520204826421821,-25,10,1,9,26,47,75,-14
1520204826436861,15,4,9,-8,-10,-28,-84,-70
1520204826436861,-7,-14,-4,2,2,22,-8,39
1520204826437864,3,-1,2,1,7,12,17,6
1520204826437864,2,-3,-6,-2,-5,-21,-55,-41
1520204826459922,-4,-5,-7,0,-4,-4,6,68
1520204826459922,5,3,5,3,9,30,20,-22
1520204826460925,0,-2,-7,-11,-16,-1,3,8
1520204826460925,4,9,13,3,7,-6,-21,12
1520204826473960,-8,-2,-3,1,1,7,55,28
1520204826473960,5,6,-13,-9,0,-16,-47,0
1520204826481981,-9,-27,-4,6,0,8,-6,9
1520204826481981,-5,12,2,-4,-2,11,36,6
1520204826497021,21,-41,-9,-4,0,-5,-65,-12
1520204826497021,-11,46,0,3,25,15,14,8
1520204826498024,-17,4,10,2,-22,2,23,-32
1520204826498024,8,-7,-8,0,18,-15,-27,-18
1520204826519080,-16,7,4,4,-4,-15,-33,5
1520204826519080,9,-12,-10,-7,-14,4,48,15
1520204826520082,0,-12,-1,4,25,45,43,41
1520204826520082,4,11,3,-14,-35,-67,-59,-80
1520204826543144,7,-2,-1,6,20,39,85,19
1520204826543144,-2,-11,4,-1,-28,-22,-39,-22
1520204826543144,6,28,5,9,34,12,-12,0
1520204826543144,-4,-1,2,1,-10,3,19,38
1520204826557181,12,1,-6,-1,2,0,-39,-20
1520204826557181,-34,-28,-5,1,-7,-34,-62,20
1520204826558184,-12,6,10,6,-6,34,98,-23
1520204826558184,28,-12,-9,-11,-3,-15,-80,-18
1520204826579240,-4,16,16,11,17,4,0,10
1520204826579240,8,32,1,-6,0,16,8,30
1520204826580243,8,-13,-3,-1,3,-11,-10,-4
1520204826580243,-17,-55,-18,15,13,-8,-30,22
1520204826602301,-9,60,13,-15,-11,43,76,-77
1520204826602301,29,-47,-6,-2,4,-19,-36,39
1520204826603304,-4,23,-15,-5,-5,22,53,-46
1520204826603304,-20,22,14,-3,-3,-29,-52,-4
1520204826617341,-12,-9,-1,-1,-10,-6,-7,19
1520204826617341,-6,-20,-4,3,13,8,-2,-24
1520204826617341,-2,20,5,3,-27,-47,8,-37
1520204826617341,16,-21,-6,-2,15,21,-5,17
1520204826639400,6,-9,-15,-7,-6,-11,-14,2
1520204826639400,-34,13,13,4,4,9,20,-12
1520204826640403,9,-30,-1,4,-3,-19,-70,34
1520204826640403,23,8,-8,-7,-4,12,68,49
1520204826662461,-26,19,18,9,-22,-28,-57,-42
1520204826662461,0,-83,-13,-7,5,3,-37,-73
1520204826663464,53,81,4,-11,8,-10,-22,30
1520204826663464,-60,-24,17,9,-4,1,12,-12
1520204826677501,42,-47,-24,-5,2,-4,-1,32
1520204826677501,-12,37,4,0,-13,-22,-35,30
1520204826677501,10,-57,-12,3,-1,42,60,-48
1520204826677501,-8,73,20,9,16,-18,-11,-13
1520204826699560,-41,7,7,-9,-17,-8,-15,12
1520204826699560,17,12,-3,0,-3,-4,16,-9
1520204826700563,4,-69,-9,0,7,6,-41,-51
1520204826700563,37,57,1,-5,-6,6,24,53
1520204826722621,-64,-28,-11,-6,-4,-1,13,-21
1520204826722621,46,-19,-7,5,11,2,29,-5
1520204826723624,-36,-11,6,-8,-7,-3,-38,37
1520204826723624,-34,42,5,5,-4,7,-10,-8
1520204826736659,9,1,-6,0,9,-3,-36,-2
1520204826736659,-15,-14,-8,-15,-7,6,6,11
1520204826737662,-4,-13,4,6,-1,-21,-46,-32
1520204826737662,51,-78,-9,5,6,16,61,19
1520204826759720,-40,-17,1,1,9,15,71,33
1520204826759720,71,14,-12,-7,-5,-7,-83,-4
1520204826760723,-45,-2,11,8,5,-4,-17,16
1520204826760723,11,-88,-17,-14,-8,3,5,23
1520204826782781,57,-46,-10,3,-2,-8,0,5
1520204826782781,23,6,-9,3,8,17,69,21
1520204826783784,32,13,6,-7,-3,-1,21,26
1520204826783784,-71,31,18,7,-5,-5,-17,-20
1520204826796819,26,-33,-10,5,6,0,-16,13
1520204826796819,-9,-23,1,-3,-2,8,35,-5
1520204826797821,-3,-5,-9,-12,-9,-18,-46,7
1520204826797821,88,21,-10,-5,-1,2,28,-12
1520204826819880,19,64,11,-3,-1,-3,-28,-11
1520204826819880,-97,-37,11,3,0,4,6,-29
1520204826819880,81,-74,-38,-7,-2,-6,-6,-3
1520204826819880,-56,-18,21,10,5,4,8,-8
1520204826842941,73,-108,-36,-19,-10,-5,6,-2
1520204826842941,-73,124,64,17,3,-2,3,-11
1520204826843944,4,-97,-26,2,4,13,30,-6
1520204826843944,-11,-98,-35,-18,-13,-11,-24,-13
1520204826856979,78,127,14,3,3,4,0,11
1520204826856979,-30,-128,-7,3,2,0,10,1
1520204826857981,-36,6,18,6,-1,-3,-17,13
1520204826857981,-24,2,-5,3,0,-1,-12,-14
1520204826879037,-31,-56,-15,-9,-8,-9,-2,-25
1520204826879037,116,54,-11,-6,2,-1,7,41
1520204826880040,-76,-35,-7,-10,-9,-5,-4,-13
1520204826880040,31,65,4,7,5,3,-4,4
1520204826903101,30,-116,-29,-6,-7,-10,-24,-4
1520204826903101,6,127,69,27,14,14,1,20
1520204826903101,-38,-58,-5,-6,-7,-10,5,-25
1520204826903101,47,-95,-25,-14,-5,4,5,24
1520204826917139,-112,60,39,4,-2,-6,-13,-14
1520204826917139,-30,-54,-48,-13,-7,-4,10,5
1520204826918142,12,93,47,16,10,12,5,-9
1520204826918142,32,-76,-22,-3,-2,-2,-4,-11
1520204826939197,-56,97,63,13,2,-5,-10,14
1520204826939197,42,-128,-56,-18,-7,-3,16,2
1520204826940200,-14,42,18,-2,-3,-3,-10,21
1520204826940200,7,36,0,1,-1,-7,-9,10
1520204826970281,9,-56,-24,-4,3,5,33,-13
1520204826970281,-10,40,11,-4,-7,-8,-17,0
1520204826971284,61,-53,-13,-5,2,8,31,-2
1520204826971284,-84,60,21,8,4,2,-18,9
1520204826977299,-25,-36,-10,-9,-5,-4,-1,-19
1520204826977299,-58,-12,18,10,4,1,5,5
1520204826978302,-31,-63,-19,1,3,9,19,15
1520204826978302,36,90,27,2,-2,-4,-10,-7
1520204826999357,54,-15,2,4,2,0,-5,7
1520204826999357,14,-119,-45,-23,-14,-10,-2,-16
1520204827000360,-69,59,-1,2,0,-3,-19,-5
1520204827000360,4,48,16,10,4,6,19,-8
1520204827022419,48,-2,-10,-2,-3,-3,-8,6
1520204827022419,77,5,0,0,2,4,-2,4
1520204827023422,33,-34,-11,-7,-8,-14,-20,4
1520204827023422,-55,13,8,4,2,3,9,-8
1520204827037459,-8,-52,-11,-1,1,1,4,-10
1520204827037459,-33,15,-10,-6,-3,4,24,13
1520204827037459,17,121,81,21,8,1,-29,2
1520204827037459,-9,-119,-15,-5,-3,-4,-3,-7
1520204827059517,0,-99,-11,0,0,-3,-26,-4
1520204827059517,82,-66,-43,-12,-3,-1,11,-4
1520204827060520,-77,85,19,7,1,-3,-13,-7
1520204827060520,-13,33,32,15,7,3,5,-11
1520204827082579,-23,75,12,1,0,2,0,14
1520204827082579,13,-46,-6,0,0,-4,-9,-18
1520204827083581,35,-50,-23,-8,-1,7,14,-5
1520204827083581,-47,19,-1,-5,-4,-3,-6,-8
1520204827096616,-9,-57,-22,-11,-5,-9,8,4
1520204827096616,-44,58,27,7,4,3,-3,0
1520204827097619,2,72,18,4,-3,-6,8,21
1520204827097619,17,-80,-17,-9,-7,-4,-14,12
1520204827119677,27,104,12,8,4,8,10,1
1520204827119677,-32,-17,1,0,-3,3,-3,-4
1520204827120680,-54,21,13,6,2,-1,3,-9
1520204827120680,-55,54,7,-6,-4,-3,1,-13
1520204827143741,38,20,-10,-5,-2,-2,5,3
1520204827143741,-97,-58,-2,11,11,0,4,-11
1520204827144744,123,-69,-2,5,-4,1,-3,-4
1520204827144744,36,-112,-45,-1,7,5,2,-15
1520204827156776,-75,81,48,7,0,3,-1,6
1520204827156776,-20,114,23,0,8,0,-7,-12
1520204827164797,-12,-99,-38,-18,-8,-4,7,0
1520204827164797,58,-45,-9,-2,0,7,2,27
1520204827179838,-14,-46,-16,-4,-13,-12,-6,8
1520204827179838,45,10,23,5,-2,3,-2,15
1520204827179838,-2,22,3,6,5,1,1,-27
1520204827179838,-19,0,-11,-12,-4,-2,5,-14
1520204827202899,0,-47,-25,-2,1,8,12,-29
1520204827202899,-3,34,4,-15,-10,-3,-3,33
1520204827203901,0,-7,-9,11,2,0,18,-4
1520204827203901,19,11,10,-22,-19,-11,-18,-11
1520204827215933,16,54,32,31,20,12,8,-17
1520204827215933,22,-55,-44,-23,-11,-17,-35,50
1520204827224957,-42,75,22,3,0,5,-3,25
1520204827224957,6,-10,3,7,10,7,19,-1
1520204827238995,-18,-55,-22,-12,-25,-14,-16,-15
1520204827238995,29,68,59,23,-12,10,22,-2
1520204827247016,-12,-109,-76,-24,6,-2,3,-16
1520204827247016,-30,27,-21,-9,-10,-20,-30,23
1520204827263059,-11,-20,19,21,-19,-10,-15,-29
1520204827263059,-3,21,23,2,17,-2,-6,-11
1520204827263059,22,13,30,28,-8,10,8,3
1520204827263059,1,-43,-49,-11,-7,5,21,-30
1520204827276094,-6,-68,-53,-36,1,-7,26,58
1520204827276094,-23,-4,-3,5,6,24,40,-12
1520204827284115,-1,-33,-13,-19,-10,-34,-82,-37
1520204827284115,54,-23,-1,-4,-4,-8,-24,18
1520204827299155,-25,52,23,6,11,15,24,9
1520204827299155,1,9,6,7,1,-8,-15,8
1520204827300158,-7,-64,-34,-9,7,5,9,5
1520204827300158,24,88,49,24,-1,-3,-6,4
1520204827322217,-4,-12,-4,-8,6,-4,-4,-4
1520204827322217,-4,-79,-37,-8,0,-4,10,-6
1520204827323219,9,17,29,12,-13,5,16,0
1520204827323219,-14,23,14,-4,0,-3,-1,-14
1520204827336254,-12,-17,3,10,11,4,-4,3
1520204827336254,-20,15,-13,-7,-9,-8,3,-16
1520204827344275,19,33,18,7,-16,-4,-2,-4
1520204827344275,-12,-28,11,12,20,16,30,9
1520204827359315,9,36,33,4,3,13,2,-9
1520204827359315,-10,-44,-36,-13,-3,-10,-19,-23
1520204827360318,5,-4,-16,-24,2,-7,4,10
1520204827360318,-1,53,31,16,-7,2,-11,12
1520204827390398,6,-15,-17,-3,2,1,-3,-20
1520204827390398,7,0,5,-1,0,-3,-3,22
1520204827391400,-9,-13,-21,-33,-3,0,1,16
1520204827391400,-6,-7,-4,-3,3,2,9,-13
1520204827396414,8,-30,6,20,3,-4,-22,-22
1520204827396414,4,-2,1,-11,-5,-2,-10,-31
1520204827404435,-1,23,14,-30,-8,-2,4,14
1520204827404435,0,-36,-58,-13,-3,-10,-6,-1
1520204827419475,11,106,39,13,-1,-2,-13,-7
1520204827419475,3,37,23,-4,-2,1,4,-2
1520204827420478,5,-2,-6,23,10,-2,-6,-24
1520204827420478,-11,-26,-22,-24,5,-3,-3,3
1520204827442536,8,-18,-3,9,0,-2,-3,-9
1520204827442536,6,-38,-12,-8,0,0,15,6
1520204827443539,4,4,16,15,6,-2,-8,-15
1520204827443539,-12,-3,2,2,-5,-3,-12,-20
1520204827456574,-6,-3,0,-14,1,-2,9,7
1520204827456574,-6,-4,-10,-1,6,-4,-9,-1
1520204827464595,12,7,-22,-11,9,1,-11,13
1520204827464595,9,1,51,74,-5,7,25,-16
1520204827479635,1,-32,-60,-41,16,2,-14,-18
1520204827479635,-10,109,42,-1,-6,-3,-7,-17
1520204827480638,14,-23,8,52,3,3,13,1
1520204827480638,-24,-48,-80,-92,7,-5,-10,-7
1520204827502696,13,14,70,99,1,1,3,-18
1520204827502696,-5,-15,-24,1,4,-3,6,10
1520204827503700,-13,8,-10,-25,-2,0,-7,14
1520204827503700,1,-21,-4,-2,3,11,46,5
1520204827524755,-4,-21,-18,-39,-10,-12,-32,13
1520204827524755,-14,-8,15,15,-5,0,-10,-1
1520204827525757,-9,-33,-24,-22,-2,0,-12,12
1520204827525757,16,34,65,52,5,3,-16,3
1520204827539795,-1,-3,-9,-29,-16,10,22,-26
1520204827539795,13,-6,-3,-2,-4,-16,-19,-4
1520204827539795,-5,8,14,24,-34,8,-2,-33
1520204827539795,1,-3,-12,-57,15,-6,-33,-8
1520204827562856,-15,3,-32,-73,-14,-22,-8,49
1520204827562856,43,13,56,109,18,10,9,-23
1520204827563859,-9,-13,-29,-19,3,-8,20,-15
1520204827563859,-19,-20,-23,-27,-30,3,-9,9
1520204827584915,0,-19,2,1,-15,4,34,-11
1520204827584915,-31,-45,-70,-50,17,0,-17,1
1520204827585918,10,20,38,57,1,-21,-26,-8
1520204827585918,2,2,-2,-12,-32,-18,-21,14
1520204827599955,1,-5,-12,-19,24,34,11,25
1520204827599955,0,-8,-11,42,7,6,1,4
1520204827599955,0,6,8,-35,7,15,65,-36
1520204827599955,5,0,6,11,-25,-27,-20,-8
1520204827623016,-11,2,16,7,-25,17,-9,30
1520204827623016,0,-1,-5,-19,-11,1,-4,17
1520204827623016,17,6,14,54,49,4,55,-50
1520204827623016,2,11,23,12,3,-1,-21,35
1520204827645075,2,4,8,4,-45,-33,-24,-13
1520204827645075,-14,-10,-13,-74,32,63,81,7
1520204827646078,-4,9,14,0,-71,-38,-5,7
1520204827646078,0,-6,-15,-27,37,3,0,0
1520204827659112,1,-1,2,86,88,14,0,-21
1520204827659112,5,0,8,-68,-58,-6,45,37
1520204827660115,-5,-1,-4,40,21,56,-64,3
1520204827660115,-2,-3,-2,20,-5,-54,35,-10
1520204827683176,11,3,14,-17,-19,-10,16,40
1520204827683176,1,8,21,41,-16,-16,-20,-42
1520204827683176,12,14,7,-58,13,1,-53,25
1520204827683176,-5,4,15,45,-10,49,20,23
1520204827705235,0,-7,-13,13,-13,-4,-9,-15
1520204827705235,-1,-10,-15,-22,37,-25,7,97
1520204827706238,0,1,-1,20,31,-12,-28,-49
1520204827706238,-1,0,0,24,15,35,13,-4
1520204827719272,-8,-5,-4,-29,13,-5,-15,15
1520204827719272,0,-1,10,18,-25,14,-32,-42
1520204827720275,-12,-13,-19,-29,-33,-57,-33,2
1520204827720275,11,4,9,23,48,46,32,12
1520204827742334,-10,-8,-14,-15,-12,-17,1,-26
1520204827742334,10,5,8,34,12,-15,-31,-27
1520204827742334,-9,-7,-5,-36,-19,-3,1,26
1520204827742334,-15,-13,-14,-8,15,5,11,10
1520204827765395,10,6,7,11,-37,6,-3,16
1520204827765395,-14,-6,-5,27,20,13,-24,-48
1520204827766398,11,8,3,46,35,19,42,78
1520204827766398,-7,-5,-9,-75,7,-30,14,-44
1520204827779432,6,1,-3,-22,-16,8,-7,-48
1520204827779432,-10,-10,-14,-52,-31,-14,-31,13
1520204827780435,21,17,27,59,52,18,6,-39
1520204827780435,-15,-9,-7,-25,-79,-31,10,-45
1520204827802494,-9,-7,-16,64,122,67,12,-76
1520204827802494,13,6,-3,-34,-25,-21,13,-35
1520204827802494,-30,-21,-23,-56,-93,5,-29,69
1520204827802494,16,6,2,2,8,13,-87,-64
1520204827825555,11,-4,-8,-121,-89,-51,77,-8
1520204827825555,-3,5,15,15,43,16,-22,83
1520204827825555,4,2,3,69,38,28,-8,-9
1520204827825555,-9,-2,-2,-28,-65,-2,67,23
1520204827839592,-10,-7,-3,34,4,-37,-51,49
1520204827839592,6,5,-2,-35,8,-21,-9,-37
1520204827840595,-10,-6,-9,-89,-112,-39,20,11
1520204827840595,10,11,15,7,32,43,-38,68
1520204827861651,-11,-8,-4,74,101,-32,63,2
1520204827861651,9,-1,-3,-19,-95,-31,-5,-89
1520204827862654,-15,-4,5,33,37,-10,-42,44
1520204827862654,22,10,8,45,60,3,-16,-24
1520204827884712,12,11,12,57,-95,52,90,96
1520204827884712,-23,-13,-16,33,63,-22,-83,-58
1520204827885715,4,-5,-6,-23,42,-33,97,31
1520204827885715,11,6,5,-23,-7,-16,-65,-33
1520204827898750,8,9,15,22,14,11,-5,37
1520204827898750,2,0,-1,-16,-26,4,-6,105
1520204827906771,-8,-10,-18,-46,5,10,-32,-16
1520204827906771,-23,-10,-7,23,7,52,49,-50
1520204827922814,-3,-1,-4,-24,55,-31,-38,-75
1520204827922814,-2,0,2,-61,-92,-51,-5,-37
1520204827923817,-3,-4,1,46,44,21,20,2
1520204827923817,40,18,17,91,63,42,22,24
1520204827944872,0,-2,-9,-53,-26,22,-70,-15
1520204827944872,-15,-5,1,11,15,20,66,13
1520204827945876,2,2,0,-5,-17,-3,-9,35
1520204827945876,-18,-8,-7,-26,-8,1,45,35
1520204827959913,-17,-6,-1,-13,-33,10,-6,4
1520204827959913,26,12,10,63,43,-57,-14,-18
1520204827959913,0,-1,-5,-30,-24,26,44,-71
1520204827959913,0,0,-3,-19,-35,-54,-78,-28
1520204827982974,-7,-6,-8,-4,31,-33,41,-5
1520204827982974,-6,-1,6,5,-70,76,36,29
1520204827983977,14,7,2,-36,-7,-13,15,-68
1520204827983977,1,-6,0,20,32,-47,-32,-25
1520204828005033,-1,0,-2,-3,-2,5,-57,-21
1520204828005033,-16,-9,-9,8,22,-10,-43,-1
1520204828006036,9,4,0,-28,-20,6,-37,-37
1520204828006036,-6,-4,-1,8,-11,-7,19,41
1520204828019070,-5,-2,-2,-15,-28,14,-9,14
1520204828019070,-10,-4,-4,1,20,29,41,-18
1520204828020073,20,13,12,28,15,-18,-26,-5
1520204828020073,0,-2,-6,-31,4,-18,3,9
1520204828042131,0,4,8,52,46,0,-25,19
1520204828042131,20,13,8,17,-12,23,18,-12
1520204828043134,-5,-4,-10,-11,31,0,4,10
1520204828043134,-27,-14,-15,-21,-25,-40,-10,-46
1520204828065192,-4,-3,-5,-54,-54,-34,-24,4
1520204828065192,22,9,13,78,81,32,3,36
1520204828066196,14,6,5,3,9,3,27,-18
1520204828066196,-6,0,-4,-22,14,-4,9,54
1520204828079230,12,7,7,-12,-32,15,8,-5
1520204828079230,-15,-9,-9,-24,-10,-28,-30,11
1520204828087251,-11,-9,-8,-13,5,-3,-6,-18
1520204828087251,-18,-7,3,58,59,11,7,11
1520204828102291,23,5,4,-16,-64,0,-32,-4
1520204828102291,2,-3,4,-4,-3,-13,18,-54
1520204828103294,5,-1,-1,14,-9,11,-2,42
1520204828103294,-4,1,-3,-25,-6,6,-16,24
1520204828125353,-11,-11,-9,11,48,-6,-17,-32
1520204828125353,3,8,7,-54,-18,45,29,24
1520204828126356,11,6,7,70,42,-41,-46,26
1520204828126356,15,10,0,-15,-49,6,45,-10
1520204828138387,-13,-11,-7,3,29,-7,9,-25
1520204828138387,10,9,4,-11,-38,7,3,-27
1520204828147411,-24,-16,-12,-21,3,12,2,14
1520204828147411,10,8,6,-3,-19,-1,-3,25
1520204828162451,5,5,0,3,-1,-6,18,4
1520204828162451,-8,-6,-7,6,31,-14,4,-19
1520204828162451,-15,-8,-6,-2,17,-13,-60,-8
1520204828162451,2,-2,-2,-10,-82,18,95,-56
1520204828185513,4,-2,-2,-20,-5,4,-2,-7
1520204828185513,-4,-1,0,10,9,-16,-23,4
1520204828185513,-2,1,-3,-15,-18,1,11,-11
1520204828185513,-3,-1,1,9,28,-6,-27,39
1520204828198547,-1,-2,-7,-5,11,6,-21,0
1520204828198547,0,-1,0,9,-9,-6,-16,-12
1520204828206569,10,4,3,-7,-3,32,59,7
1520204828206569,-3,-1,-1,-5,2,-4,-1,-20
1520204828221609,-5,3,6,5,-13,0,13,-8
1520204828221609,2,2,-3,11,36,0,-2,22
1520204828222612,5,9,-5,-22,-22,5,23,56
1520204828222612,-19,-16,-5,9,-5,-10,-39,-45
1520204828245673,6,2,4,0,8,22,-2,-16
1520204828245673,14,6,-2,-7,0,-6,0,51
1520204828245673,-15,-7,-4,-2,-7,-3,-6,4
1520204828245673,12,7,3,1,3,8,-1,-5
1520204828258707,8,4,-4,-11,8,7,44,56
1520204828258707,-18,-5,-1,3,-2,-14,-5,13
1520204828266729,4,2,-1,-4,-12,28,36,-19
1520204828266729,3,-1,5,8,35,-4,-55,0
1520204828281769,-2,1,-2,-3,-23,-11,18,-2
1520204828281769,-3,-6,-2,-2,-3,0,2,-5
1520204828282772,-5,-7,-2,-1,-8,-13,-9,1
1520204828282772,2,3,-2,0,-2,-9,-13,24
1520204828304830,4,2,1,1,19,24,17,3
1520204828304830,2,0,2,0,-2,0,6,-11
1520204828305833,-8,-1,4,7,-4,-14,-17,-8
1520204828305833,1,-2,-6,-6,-8,10,29,2
1520204828318867,3,-2,-1,0,7,-14,-45,-19
1520204828318867,-7,-4,4,10,9,-1,17,-22
1520204828326889,1,-1,-3,-5,1,5,-9,-3
1520204828326889,-6,-5,-5,-1,-3,-9,-13,7
1520204828341929,-3,-3,4,8,0,21,50,-36
1520204828341929,4,2,-3,-7,0,-2,9,-22
1520204828342932,4,-2,-3,-4,-10,-6,-4,4
1520204828342932,5,5,5,2,4,0,5,-7
1520204828364990,-6,-6,2,7,8,-12,-19,7
1520204828364990,-5,-2,-1,3,-4,1,0,3
1520204828365994,5,7,-1,-7,-4,2,11,2
1520204828365994,12,11,11,10,-1,-3,-5,-10
1520204828379027,-1,-31,-8,-3,-4,-11,-10,13
1520204828379027,-3,57,6,0,1,0,-4,4
1520204828387049,-15,-44,-10,-1,-3,-4,7,3
1520204828387049,-2,48,6,-6,-17,-1,1,5
1520204828402089,8,-70,-16,-8,9,-2,-10,-10
1520204828402089,-16,9,-7,-7,-4,-11,-12,6
1520204828403092,4,41,21,11,6,5,7,-8
1520204828403092,-17,-60,-9,-5,-8,0,10,-17
1520204828425150,-18,83,6,-4,-6,-14,-13,-16
1520204828425150,15,-91,-19,-1,3,-14,-32,-23
1520204828426153,-19,13,3,5,-6,4,7,-19
1520204828426153,15,-7,-7,-11,-9,1,14,-3
1520204828447209,7,6,-2,-5,-9,-17,-33,3
1520204828447209,3,13,6,4,3,8,5,12
1520204828448212,0,-17,-4,-3,-1,-7,-4,-4
1520204828448212,-6,-7,-14,-8,-1,-2,-1,19
1520204828462249,-20,-16,6,3,1,3,8,-18
1520204828462249,3,27,2,-3,-2,2,0,8
1520204828463252,-13,-59,-17,-4,-1,0,6,-21
1520204828463252,4,8,-6,0,-1,-1,-5,-1
1520204828485310,8,-37,-9,-4,-2,0,-1,10
1520204828485310,-30,-57,-3,-2,-3,-1,1,-26
1520204828486313,24,77,13,1,0,-4,-7,36
1520204828486313,75,-54,-6,2,7,8,12,16
1520204828507369,-58,87,23,10,-1,-2,1,-5
1520204828507369,16,-75,-13,0,3,7,-1,10
1520204828508372,-18,26,-1,-5,-8,-6,-21,-41
1520204828508372,6,23,17,9,5,1,5,9
1520204828522409,2,-85,-8,-6,-3,-2,7,12
1520204828522409,101,80,-1,-4,-1,6,8,33
1520204828522409,-70,-64,13,10,6,-2,-7,-11
1520204828522409,-42,52,15,3,-1,2,-6,-27
1520204828545470,-24,-104,-17,-4,-2,-2,7,1
1520204828545470,20,2,-5,-6,-3,2,18,36
1520204828546473,57,-48,-15,-4,-3,-7,-12,10
1520204828546473,31,-54,-12,-8,1,7,14,-14
1520204828567529,-11,77,13,0,-3,-2,-7,-13
1520204828567529,-44,8,21,15,7,1,-6,-46
1520204828568532,85,-46,-24,-4,-4,-5,-9,11
1520204828568532,-63,-20,8,-6,-4,-3,-10,-26
1520204828581566,21,-51,-21,-3,-1,3,9,6
1520204828581566,-50,29,8,-9,-6,-2,-4,3
1520204828582569,7,10,8,-2,1,3,10,-32
1520204828582569,8,78,8,0,-2,-6,-9,37
1520204828605630,115,-65,-16,3,4,0,-9,-40
1520204828605630,-109,6,23,10,2,0,9,-24
1520204828605630,-17,-123,-34,-14,-5,-4,-12,7
1520204828605630,52,58,16,-6,-3,2,13,21
1520204828627689,-66,56,23,8,4,1,5,-11
1520204828627689,-36,38,1,1,0,-5,16,-28
1520204828628692,-7,127,37,6,2,-1,-8,101
1520204828628692,64,-128,-69,-21,-12,-15,-38,-52
1520204828641726,0,120,71,19,2,3,0,-44
1520204828641726,2,-128,-23,8,7,8,6,5
1520204828642730,-12,93,15,-4,-7,-7,20,10
1520204828642730,-27,-84,-17,2,5,3,-3,-5
1520204828664787,22,8,-13,-19,-8,-6,-6,44
1520204828664787,31,-91,-26,-11,-4,-9,-17,33
1520204828665791,17,57,54,26,13,17,20,5
1520204828665791,9,-79,1,8,4,-3,-4,-20
1520204828687849,-69,-35,-8,-10,-6,-1,3,-13
1520204828687849,45,-5,14,5,2,3,1,15
1520204828688852,12,-50,-25,-5,-3,-3,-2,-39
1520204828688852,20,-70,-15,-8,-5,2,13,1
1520204828701886,-15,73,28,11,7,1,17,7
1520204828701886,2,-63,-19,-17,-10,-6,-29,1
1520204828702889,-32,57,-4,-3,-4,-1,-3,-27
1520204828702889,42,-7,-24,-4,-6,-9,-27,16
1520204828724947,-29,29,8,6,2,-2,1,-29
1520204828724947,1,69,-2,-1,-1,6,27,33
1520204828725951,90,-127,-51,-14,-5,-1,4,-34
1520204828725951,-87,120,37,6,0,-5,-3,18
1520204828748009,-9,-5,-28,-5,2,6,-26,17
1520204828748009,11,-60,8,0,-3,-6,1,-9
1520204828748009,66,26,-6,-3,6,-3,5,-3
1520204828748009,-58,-61,14,7,-3,7,4,6
1520204828762046,8,-128,-21,-10,-7,-8,-12,48
1520204828762046,-44,11,1,3,5,0,1,-15
1520204828763049,4,-67,-11,-7,-8,-2,-9,-21
1520204828763049,37,26,3,-2,2,0,3,7
1520204828785108,-17,23,4,0,-1,-7,-19,-7
1520204828785108,37,-44,-18,-3,-1,-2,-6,-24
1520204828786111,-56,-6,14,6,0,-7,-6,10
1520204828786111,-5,57,13,1,7,3,-8,9
1520204828808169,6,-42,-26,-9,-15,2,49,-16
1520204828808169,26,29,5,3,6,-1,0,24
1520204828808169,-9,-53,-4,-1,-6,-8,-14,-12
1520204828808169,-52,93,32,12,8,7,11,-15
1520204828822206,20,-37,-16,-9,2,-2,-22,8
1520204828822206,-6,9,-10,-3,-8,-7,7,0
1520204828823209,-34,-55,4,6,5,0,-41,4
1520204828823209,-3,2,0,11,5,13,41,-7
1520204828845268,26,24,12,-5,-5,-14,-22,24
1520204828845268,9,31,6,6,-2,2,-4,1
1520204828846271,-31,-11,-5,-2,-3,-5,0,-5
1520204828846271,-18,-25,-14,-7,-2,-1,-9,-4
1520204828867327,9,-14,-13,-1,18,17,23,-28
1520204828867327,8,30,9,-10,-12,-6,-10,-10
1520204828868329,10,3,7,10,6,9,15,0
1520204828868329,3,-20,-4,-1,-5,-12,-22,-17
1520204828882366,16,17,7,11,3,3,8,9
1520204828882366,26,-9,-19,-13,-4,3,1,2
1520204828882366,-53,-22,-5,1,5,7,17,6
1520204828882366,9,0,12,-3,-3,-6,-25,-4
1520204828904425,3,-20,-6,-3,-5,-5,-9,18
1520204828904425,-4,-22,-6,3,-1,-5,-8,-7
1520204828905428,-7,40,8,-2,-3,4,15,6
1520204828905428,-8,-23,-3,-2,-1,0,3,12
1520204828927487,-8,-63,-20,-9,-4,-1,13,6
1520204828927487,-9,27,18,7,2,0,-9,-2
1520204828928489,19,-1,0,0,-2,-6,-15,11
1520204828928489,-4,-65,-22,-11,-1,-3,-7,-14
1520204828942527,-7,-4,7,9,3,2,8,-11
1520204828942527,-7,14,8,-3,-3,-2,-1,-5
1520204828942527,-18,-7,-30,-6,-3,-5,3,-10
1520204828942527,-9,28,18,-4,-2,3,15,-10
1520204828964585,18,16,9,5,-1,-2,-34,1
1520204828964585,-1,-15,2,8,6,3,21,-1
1520204828965588,-10,-10,-4,-8,-4,-12,-44,-18
1520204828965588,9,22,4,8,3,15,52,-8
1520204828989652,5,10,0,-3,-2,3,3,-12
1520204828989652,-13,8,-2,1,1,4,-13,-12
1520204828989652,-13,-24,-26,-15,-5,-9,6,11
1520204828989652,7,15,12,6,-3,1,-4,6
1520204829001684,9,19,2,4,0,-3,-9,-8
1520204829001684,5,-11,-20,5,-1,-1,8,13
1520204829009705,13,46,24,0,4,8,13,-4
1520204829009705,-9,-19,-14,-7,-4,-10,-23,2
1520204829024745,1,-12,-8,-3,0,2,26,7
1520204829024745,-3,24,13,2,-5,-5,-6,6
1520204829025748,-6,13,7,1,2,9,13,5
1520204829025748,5,18,14,13,-1,-11,-1,-3
1520204829047806,5,-9,-6,2,3,7,-7,2
1520204829047806,-8,-19,-16,-15,7,-7,-18,-14
1520204829048810,3,-14,10,6,-5,7,22,12
1520204829048810,3,18,0,-7,-19,4,22,-6
1520204829061844,-3,-8,-7,-5,-8,-9,3,7
1520204829061844,2,4,12,1,4,3,-1,8
1520204829069865,-4,-12,-11,-6,5,-1,-21,-7
1520204829069865,-2,-14,-2,13,13,-4,-3,-14
1520204829084905,2,7,-2,-5,-6,1,-21,0
1520204829084905,-4,4,0,-4,-15,-7,5,3
1520204829084905,0,4,5,3,-2,-1,4,-9
1520204829084905,-1,-2,-8,-9,3,-9,-26,15
1520204829107966,1,8,4,3,12,14,30,-9
1520204829107966,4,3,3,5,2,-8,-11,-5
1520204829108970,-1,12,11,-3,-14,5,17,0
1520204829108970,-3,-10,-8,-7,-7,-10,-7,15
1520204829121001,3,-7,-4,-4,9,-5,-5,8
1520204829121001,-5,1,5,-3,-7,-11,-10,-18
1520204829130025,-6,-5,-8,4,-10,0,-8,-13
1520204829130025,4,-2,-4,-21,-2,-3,-39,-32
1520204829144062,-4,9,17,7,-3,-4,14,23
1520204829144062,-12,-9,-20,-5,20,38,80,4
1520204829145065,10,8,8,0,-23,-7,27,-8
1520204829145065,4,-4,-1,-2,1,-12,-1,3
1520204829168127,-5,-1,-13,11,14,2,-22,-18
1520204829168127,-7,0,3,-13,-22,-13,-10,-28
1520204829168127,-2,2,2,0,1,14,-44,32
1520204829168127,-13,-13,-9,18,23,7,98,2
1520204829181161,25,14,10,-6,-7,-19,-2,-62
1520204829181161,-10,5,12,-1,-3,20,-21,43
1520204829189183,1,-6,-10,0,0,-19,-29,-19
1520204829189183,9,8,12,8,-7,-11,-46,11
1520204829204222,-11,-7,-8,-10,18,17,-16,-1
1520204829204222,11,2,-1,15,-36,-19,34,-33
1520204829205226,-5,-11,-12,3,14,1,-61,18
1520204829205226,4,5,7,6,6,4,-12,19
1520204829227284,-22,-12,-8,2,-6,19,19,-39
1520204829227284,4,1,5,-2,34,-35,-36,91
1520204829228286,8,14,13,-6,-37,-15,44,-14
1520204829228286,-5,-16,-19,5,20,27,12,3
1520204829241321,-16,2,11,-34,-32,-10,-36,-34
1520204829241321,-1,0,1,27,-20,-2,6,-54
1520204829249343,8,7,4,14,48,1,-7,21
1520204829249343,4,-1,0,-8,-25,-17,-19,-17
1520204829264382,-8,-5,-9,-2,0,4,-45,48
1520204829264382,-5,-5,-10,8,16,22,94,-9
1520204829265386,1,4,13,5,29,23,17,-6
1520204829265386,2,-1,-5,-32,-28,-6,20,-28
1520204829287444,8,-2,-2,17,-45,-48,51,46
1520204829287444,0,-1,0,15,33,11,-117,15
1520204829288447,-6,-3,-9,-25,-7,30,7,8
1520204829288447,-7,-3,-9,-4,62,12,-18,-88
1520204829301481,23,1,-1,2,-17,6,-19,26
1520204829301481,5,7,7,-2,4,-23,-35,-4
1520204829309503,-6,-1,-3,-12,-23,-7,83,53
1520204829309503,-17,-9,-3,3,-18,44,-64,-28
1520204829324542,-10,-8,-12,-39,7,-43,-67,59
1520204829324542,7,-2,-5,-21,-40,20,77,52
1520204829325546,-17,-5,-1,-32,48,-9,-97,-54
1520204829325546,-7,-6,-5,32,5,7,85,20
1520204829347604,26,16,13,14,-6,23,42,6
1520204829347604,7,-1,-2,18,-44,-34,-77,-30
1520204829348607,5,2,2,4,6,-12,16,37
1520204829348607,-3,1,5,22,-36,-34,-16,58
1520204829370666,-15,-10,-12,-24,6,6,49,-14
1520204829370666,1,-2,-4,-35,99,60,-1,-73
1520204829370666,29,10,6,4,-62,-53,39,-53
1520204829370666,-3,0,-3,-20,15,33,-59,23
1520204829384702,3,-3,1,-5,-9,-52,12,-9
1520204829384702,1,4,5,23,-27,-10,-22,0
1520204829385706,-21,-11,-6,24,21,52,9,9
1520204829385706,22,14,12,24,-4,-36,-20,-2
1520204829407764,-13,1,4,38,25,-19,18,-22
1520204829407764,9,6,3,-28,40,81,-32,91
1520204829408767,11,11,13,44,2,-38,-35,-46
1520204829408767,-11,-8,-10,-41,5,19,61,15
1520204829431828,-12,-13,-12,-2,-61,-32,-78,-20
1520204829431828,15,7,-2,-24,-81,-48,62,-60
1520204829432832,-15,-11,-10,-36,-4,17,4,37
1520204829432832,18,14,17,6,-37,-5,-13,42
1520204829444863,-15,-5,4,54,77,-1,20,-42
1520204829444863,-7,-9,-13,-7,-11,-32,63,-38
1520204829444863,8,2,-1,-13,-49,-20,7,-2
1520204829444863,-36,-23,-20,-16,-34,-93,10,8
1520204829467924,38,21,22,-13,-16,121,-6,-15
1520204829467924,7,6,12,33,33,-11,-9,-16
1520204829468927,-7,-5,-6,18,24,-14,-47,-6
1520204829468927,8,0,-3,-27,-15,-13,-1,-49
1520204829489983,-7,-1,-1,-20,-55,14,-30,82
1520204829489983,-2,-8,-11,-13,-63,-20,27,-15
1520204829490986,-3,-1,-3,1,97,15,5,15
1520204829490986,-14,-12,-7,-10,-1,23,-4,33
1520204829505023,16,7,4,5,11,-44,5,-11
1520204829505023,-6,-2,1,15,14,8,-28,0
1520204829505023,-2,-2,2,-4,-17,-5,23,8
1520204829505023,4,4,4,-5,-3,-10,-60,-10
1520204829528084,-1,-1,-2,9,4,-1,52,-8
1520204829528084,-16,-7,-3,-12,5,11,12,59
1520204829528084,8,1,-4,0,0,3,-48,-85
1520204829528084,9,5,2,8,-4,-25,-3,4
1520204829550143,2,0,-5,-7,5,-8,-10,24
1520204829550143,-3,0,1,2,18,20,-17,-1
1520204829551146,1,-1,0,-8,-40,-16,8,-2
1520204829551146,-8,-8,-7,10,7,-11,4,16
1520204829564180,7,7,7,0,34,1,-23,-38
1520204829564180,12,14,-1,-12,-16,-7,31,60
1520204829565183,2,5,0,-7,-15,24,59,83
1520204829565183,-9,-9,5,28,28,68,15,-46
1520204829587241,-2,2,-8,-8,27,-16,-32,19
1520204829587241,-13,-13,-5,-3,-41,-18,5,-2
1520204829588244,-10,-4,-8,-10,4,24,-33,3
1520204829588244,3,7,5,0,5,36,11,27
1520204829610303,2,2,1,-9,-19,17,9,-43
1520204829610303,3,6,2,4,46,-16,-16,13
1520204829611306,-11,-13,-2,5,-9,-34,-2,-34
1520204829611306,-3,-4,-3,0,7,1,-31,2
1520204829624340,3,0,-2,5,-3,36,76,-6
1520204829624340,-14,-10,-6,-9,-3,-26,-62,-33
1520204829625343,-1,0,0,5,-18,15,51,37
1520204829625343,10,8,3,0,22,3,-29,-6
1520204829647401,-5,-7,-5,-1,4,-17,-4,47
1520204829647401,-5,0,1,4,19,27,12,8
1520204829648405,3,3,1,1,-8,-15,-25,-28
1520204829648405,2,-3,0,5,15,-1,28,-12
1520204829670463,-2,-3,-4,-6,-19,6,45,31
1520204829670463,-7,-7,-6,-12,-12,1,-15,-37
1520204829671466,-1,-2,-1,3,-11,-24,-40,-19
1520204829671466,14,12,3,-3,5,-12,13,-43
1520204829684500,-9,-1,2,-1,-3,1,-37,10
1520204829684500,2,-2,1,-1,0,1,0,-3
1520204829685503,-6,0,4,9,1,-6,9,-6
1520204829685503,1,-1,-5,-3,-9,7,16,43
1520204829707562,3,-2,2,-3,-10,-5,-30,-4
1520204829707562,2,0,-4,-2,10,20,32,-17
1520204829708565,-7,1,0,-2,18,-9,-1,-10
1520204829708565,4,0,-2,-5,-14,-9,8,35
1520204829730623,-5,-5,-1,7,13,4,-8,-16
1520204829730623,-2,-5,-8,-5,-3,-1,-6,24
1520204829730623,2,-1,3,4,-3,8,5,10
1520204829730623,-3,-5,-4,2,6,-3,3,-11
1520204829744660,-8,-2,-5,-3,2,-2,-20,16
1520204829744660,-10,-14,-10,-10,-4,3,50,-63
1520204829745663,10,1,5,6,0,-6,-29,-40
1520204829745663,-7,-4,-4,-3,-4,-6,9,-6
1520204829767721,-5,1,10,16,5,-3,-17,-50
1520204829767721,1,-1,-3,5,6,0,-1,22
1520204829768725,5,-5,-9,-10,-18,3,10,19
1520204829768725,-4,5,1,-3,21,14,17,28
1520204829789780,10,11,10,9,-4,-12,-4,-43
1520204829789780,20,15,2,0,0,-2,-7,33
1520204829790783,-34,16,7,2,5,6,9,3
1520204829790783,9,1,-6,-7,-21,-9,-11,12
1520204829804820,-3,-12,-10,-13,2,4,15,-6
1520204829804820,-2,-2,10,14,10,-4,-13,-5
1520204829805823,12,-4,-7,-7,-8,-2,-9,31
1520204829805823,-10,-11,4,3,2,3,9,-31
1520204829827882,9,-16,-8,-2,9,8,8,27
1520204829827882,8,32,4,-2,-5,-7,-9,13
1520204829828885,-3,-16,2,4,4,3,3,-23
1520204829828885,-27,2,6,8,6,8,13,-23
1520204829849940,30,-22,-13,-7,-3,-2,14,7
1520204829849940,-30,-6,0,-2,-10,-14,-38,-16
1520204829850943,-13,-7,2,5,10,10,11,7
1520204829850943,16,-21,-5,-3,-3,-6,-5,-21
1520204829864981,-8,14,6,-3,-6,-6,-12,-22
1520204829864981,14,-16,-3,3,4,-1,11,-18
1520204829864981,1,0,-5,-5,4,6,7,23
1520204829864981,-18,28,7,0,-6,-6,-9,-16
1520204829888042,10,-27,-12,-5,-3,-5,-4,17
1520204829888042,-34,21,7,5,2,0,-6,-28
1520204829889044,3,-21,-10,0,3,5,-2,-14
1520204829889044,21,-71,-15,-6,-7,-11,-21,-11
1520204829910100,0,40,5,0,1,0,1,6
1520204829910100,50,51,16,7,1,-2,-7,5
1520204829911103,-17,2,5,3,-1,3,5,10
1520204829911103,43,34,12,2,0,5,16,18
1520204829924137,-37,0,0,4,4,4,2,-16
1520204829924137,-30,-116,-44,-10,-4,-5,-12,19
1520204829925140,45,88,32,1,-1,-3,1,24
1520204829925140,-16,-16,8,9,7,7,3,-2
1520204829948202,24,73,16,-3,-2,-6,-8,5
1520204829948202,-22,-57,-7,-3,1,3,4,-2
1520204829948202,17,49,-15,-7,-2,-1,2,12
1520204829948202,5,-73,-12,-8,-3,-3,-1,14
1520204829970261,9,-72,-10,0,-2,2,19,-11
1520204829970261,-81,127,43,4,1,4,-15,-2
1520204829971263,12,-60,-26,-8,-4,-3,12,-1
1520204829971263,43,-33,-3,2,-5,-11,-8,-10
1520204829984297,3,65,10,7,7,9,0,-10
1520204829984297,85,-102,-32,-12,-5,-3,-11,15
1520204829992319,-25,19,14,5,2,2,12,-9
1520204829992319,-12,-74,-22,-4,0,0,-5,36
1520204830007359,43,86,39,6,0,5,22,28
1520204830007359,7,-48,-2,0,-3,-6,0,-10
1520204830008362,-9,-48,-11,-3,0,-2,-9,-11
1520204830008362,-26,-32,-7,-1,-1,3,16,-1
1520204830030421,21,-128,-59,-19,-9,-10,-16,-6
1520204830030421,35,73,53,22,12,14,18,-20
1520204830031423,50,-127,-36,-12,-10,-11,-16,0
1520204830031423,-10,23,13,6,4,3,5,-6
1520204830043455,-44,-27,-2,1,-1,-4,-1,-8
1520204830043455,-18,-28,-11,-10,-5,-3,7,-3
1520204830052479,10,-23,-12,-5,-1,-2,-14,-19
1520204830052479,-30,125,15,3,-2,-5,-15,-12
1520204830067519,-24,55,20,8,3,-5,-16,16
1520204830067519,35,-47,-20,-9,-5,0,13,19
1520204830068522,11,1,8,5,4,7,5,-11
1520204830068522,4,7,-3,-8,-6,-9,-22,5
1520204830090581,-49,-36,-8,-1,2,1,11,-34
1520204830090581,10,94,23,9,0,-5,-29,74
1520204830090581,67,-118,-35,-12,-4,-2,3,3
1520204830090581,-74,72,15,-1,-6,-5,-7,-9
1520204830103615,34,-83,-7,1,3,9,9,-25
1520204830103615,-60,14,5,4,1,-2,18,-7
1520204830111636,-10,-22,4,-2,0,-1,-13,-16
1520204830111636,3,-41,-13,-6,-4,-6,-8,-19
1520204830126676,26,-21,-11,-5,0,6,-1,28
1520204830126676,25,-93,-26,-9,-5,-12,-13,1
1520204830127679,-65,127,73,22,10,7,9,-13
1520204830127679,58,-97,-47,-16,-6,-2,9,-15
1520204830150740,-93,73,53,18,7,9,22,1
1520204830150740,12,-108,-13,-6,-6,0,-2,-2
1520204830150740,4,-53,-23,-9,-5,-6,17,-2
1520204830150740,103,46,-4,-3,2,1,-18,27
1520204830163775,-27,35,16,9,4,-1,4,2
1520204830163775,-13,58,24,3,-2,6,8,-30
1520204830171796,-14,17,0,-1,-3,-4,-18,27
1520204830171796,8,-39,-11,-4,0,5,17,-14
1520204830186836,10,-56,-36,-16,-12,-14,-18,1
1520204830186836,7,4,-15,-7,0,4,5,-32
1520204830187839,-25,35,6,5,6,-2,-17,-6
1520204830187839,-4,-14,16,14,5,3,8,-35
1520204830209898,44,59,4,-2,-3,-5,-9,44
1520204830209898,-8,20,-18,-5,2,1,6,-53
1520204830210901,-10,-26,-14,-8,-15,-7,-14,17
1520204830210901,-52,49,26,14,7,4,8,-39
1520204830223935,24,-41,2,-3,-4,-2,5,-6
1520204830223935,8,13,3,2,4,5,23,-23
1520204830231956,2,69,-5,1,1,1,-18,23
1520204830231956,19,-3,-11,-11,-5,-9,-8,6
1520204830246996,61,57,28,6,-5,-4,-10,-63
1520204830246996,41,-97,-35,-10,-1,-1,-4,-1
1520204830247999,-99,33,21,10,7,11,37,7
1520204830247999,-9,4,17,5,-1,-2,-18,24
1520204830270058,13,-23,-21,-9,-1,-13,-48,-12
1520204830270058,8,-108,-28,-12,-11,-14,-14,48
1520204830271061,-1,42,16,7,5,6,9,-16
1520204830271061,-24,-75,-15,-7,-3,4,15,22
1520204830284095,-46,-46,-10,0,0,4,20,-30
1520204830284095,-8,24,3,-12,-5,-3,-25,-10
1520204830292117,36,41,13,8,0,2,4,17
1520204830292117,42,-79,-22,-7,-2,5,21,19
1520204830307156,-31,16,24,9,5,4,-6,5
1520204830307156,-29,35,9,1,3,-8,-23,20
1520204830308160,43,0,3,-1,-7,-3,-4,-57
1520204830308160,8,-33,-11,-7,1,4,3,34
1520204830330218,29,-79,-19,10,2,-2,3,-38
1520204830330218,-13,50,37,11,0,2,7,-26
1520204830331221,14,-84,-28,-5,0,-1,1,-1
1520204830331221,7,30,9,-2,0,6,2,-10
1520204830352277,-30,-72,-49,-21,-6,-4,11,15
1520204830352277,11,9,12,19,11,1,2,11
1520204830353279,-16,58,4,-1,-2,-6,-33,-78
1520204830353279,-3,35,33,6,-4,-7,-9,42
1520204830367317,3,19,20,9,0,12,23,44
1520204830367317,5,6,-2,-2,-4,-2,-3,0
1520204830368320,-11,-4,-1,0,-1,3,7,-33
1520204830368320,-32,6,-32,-12,2,-6,-13,-13
1520204830390378,4,21,18,-2,-2,4,15,-17
1520204830390378,-23,17,-7,4,7,5,44,65
1520204830391381,12,-55,3,3,-9,-14,-29,12
1520204830391381,-18,-26,-4,-20,-7,3,17,-31
1520204830412436,-1,42,-12,0,-3,-9,-15,-13
1520204830412436,4,9,19,26,-5,1,4,-16
1520204830413440,-16,-54,-37,-23,2,15,38,22
1520204830413440,10,9,-3,-11,-19,-20,-16,15
1520204830427476,-16,-9,-10,14,9,9,5,-45
1520204830427476,-19,2,-21,-94,1,-2,15,-38
1520204830427476,27,26,52,89,14,11,-14,64
1520204830427476,-19,16,-5,11,16,4,-41,-61
1520204830450538,3,-18,16,11,-14,-15,-11,17
1520204830450538,-4,16,-19,-9,6,6,-8,-10
1520204830451541,-9,-36,-42,-56,-22,-22,9,-12
1520204830451541,14,40,35,29,2,6,3,-46
1520204830472597,2,-2,-20,-26,15,6,17,11
1520204830472597,7,3,26,47,-8,-8,3,4
1520204830473599,-11,-7,-9,-1,4,7,-9,25
1520204830473599,-19,-1,-22,-28,10,13,14,43
1520204830486634,10,11,20,10,-15,-43,13,-6
1520204830486634,-9,-8,-13,-25,-11,-15,-14,7
1520204830487637,-2,-23,-18,-3,14,4,-42,-9
1520204830487637,-9,29,28,32,-11,9,9,-39
1520204830510698,11,-19,-18,-5,21,12,7,-2
1520204830510698,8,52,34,35,1,-15,-55,-32
1520204830510698,-10,23,-9,-45,-8,-8,23,-3
1520204830510698,8,24,14,1,1,-3,-17,34
1520204830532757,-19,-21,-19,-18,10,17,8,27
1520204830532757,4,-5,3,18,-27,6,-27,-4
1520204830533759,-6,-14,-14,-17,22,-7,34,-8
1520204830533759,-4,13,27,-8,10,27,46,49
1520204830546794,3,0,-2,-21,-39,-44,-44,-42
1520204830546794,9,0,-11,-11,-10,25,-57,10
1520204830547798,5,-3,10,-6,6,5,99,-4
1520204830547798,-8,-4,-14,15,-1,-42,29,11
1520204830577876,-8,-5,-11,-13,17,6,58,24
1520204830577876,30,10,12,3,1,62,55,-31
1520204830579882,-4,1,7,4,-3,-29,-39,14
1520204830579882,-6,-5,-10,5,4,6,17,-25
1520204830592917,-10,2,7,-12,4,-1,-23,74
1520204830592917,-12,-8,4,-3,15,7,53,-11
1520204830593920,-3,-9,-9,-17,-21,11,-106,67
1520204830593920,-5,-3,-2,23,17,-20,89,-54
1520204830606954,22,25,26,17,-43,-10,3,-24
1520204830606954,-11,-25,-25,-8,32,8,-11,20
1520204830607957,-12,1,8,-2,7,80,42,43
1520204830607957,8,-2,-1,4,26,-49,-128,-89
1520204830630016,-3,-3,-2,-10,-35,15,59,18
1520204830630016,0,-1,-4,-11,-14,-41,-59,-35
1520204830631019,-7,4,3,-3,-20,-48,-90,0
1520204830631019,-23,-11,-22,-8,-9,27,72,57
1520204830653077,26,-7,-7,50,61,32,-86,-58
1520204830653077,7,29,25,14,-24,-38,-15,27
1520204830654080,-2,-15,-5,14,-11,-42,-68,-60
1520204830654080,3,7,5,-35,-1,30,3,-4
1520204830667114,-1,-5,-10,-6,31,2,25,43
1520204830667114,-15,-14,-12,15,17,19,46,2
1520204830668117,7,1,0,-13,-18,2,20,-4
1520204830668117,9,7,16,19,-58,-41,-43,18
1520204830690175,-18,-3,-9,7,8,42,41,5
1520204830690175,-3,-9,-7,-27,20,-9,44,34
1520204830691178,4,18,26,57,63,8,0,-45
1520204830691178,-4,-1,-14,-24,-38,27,-35,59
1520204830712234,-3,-26,-7,-21,-13,-39,-75,77
1520204830712234,6,9,0,-8,-42,-1,-3,1
1520204830713237,4,3,-18,-2,21,23,78,32
1520204830713237,-48,-4,17,14,16,-40,-20,-16
1520204830727274,41,1,2,-3,16,84,-9,-71
1520204830727274,-51,14,-24,17,66,55,-48,80
1520204830728277,40,7,35,-18,-103,-19,69,-56
1520204830728277,1,-4,-15,3,72,-5,-128,5
1520204830750335,-34,-2,-4,-11,-105,-49,115,-44
1520204830750335,11,-45,-21,-3,17,10,83,44
1520204830751338,-4,9,1,21,32,-8,30,-6
1520204830751338,25,16,9,-18,-73,82,83,73
1520204830772394,9,-1,10,-12,78,-43,-128,-4
1520204830772394,-4,2,-2,-68,-116,-3,8,-24
1520204830773397,-25,-13,-5,82,104,72,71,39
1520204830773397,17,-3,-5,-48,-97,-75,70,-48
1520204830787434,-18,2,-1,33,58,101,86,108
1520204830787434,14,11,11,15,12,-18,-32,-118
1520204830787434,-3,-15,-9,-19,8,21,90,53
1520204830787434,6,-3,3,10,71,10,-102,-61
1520204830810496,33,41,16,-6,-29,33,60,-48
1520204830810496,-30,-25,-7,-5,5,-16,-37,-86
1520204830811498,1,-9,-9,-33,-109,-46,-127,8
1520204830811498,6,-53,-21,42,105,74,62,10
1520204830832554,-42,14,13,-37,-120,-12,-12,22
1520204830832554,33,31,1,24,32,14,-88,17
1520204830833557,3,2,-7,2,48,12,38,111
1520204830833557,11,-2,19,1,-8,53,-53,-56
1520204830846592,4,6,-7,-12,-14,-55,-128,-1
1520204830846592,16,0,8,22,36,0,-26,-17
1520204830855616,-33,-10,-15,-12,-17,47,68,-32
1520204830855616,-2,17,-12,-19,-43,-117,54,-37
1520204830870656,35,-2,3,-6,-103,-57,-31,-58
1520204830870656,-11,6,7,11,21,-16,7,28
1520204830871659,4,-11,-12,-19,-30,-115,-78,2
1520204830871659,3,10,7,24,50,37,90,-29
1520204830892714,4,9,13,13,23,-2,-4,-45
1520204830892714,-39,-41,-36,-15,1,-105,-30,62
1520204830894720,34,-8,18,-15,-58,10,-11,-74
1520204830894720,-16,52,-6,-1,5,37,-14,27
1520204830906751,-3,-58,3,5,-22,-8,116,-17
1520204830906751,32,14,12,7,4,-22,-59,-93
1520204830915776,-19,-1,18,15,47,73,-10,64
1520204830915776,22,-2,-9,-11,7,32,42,-13
1520204830929813,-5,32,5,14,47,-8,-14,108
1520204830929813,-9,-4,3,7,-14,51,31,40
1520204830931819,-6,-14,-15,-16,-26,-38,-60,-37
1520204830931819,-10,-12,-5,-4,-22,-5,-49,6
1520204830952874,-21,-10,-22,-9,23,-41,-27,-7
1520204830952874,18,-2,17,16,-14,-58,-27,-53
1520204830953877,17,17,-6,-18,-44,-21,48,20
1520204830953877,6,10,15,14,53,21,-8,80
1520204830965909,-17,-11,-13,-14,-32,-9,-40,-65
1520204830965909,-8,2,-3,-5,-24,-7,0,67
1520204830976939,31,27,16,6,40,12,-3,-66
1520204830976939,-14,-17,-3,2,-26,-3,-63,22
1520204830989973,-2,-3,-6,2,47,31,20,-41
1520204830989973,-2,-2,0,0,23,48,-36,-5
1520204830995989,13,13,10,3,-18,8,56,-66
1520204830995989,-16,-21,-10,-8,-9,-43,0,49
1520204831013034,14,8,-3,2,20,5,-29,-24
1520204831013034,-16,-29,-11,-13,-44,-17,1,-9
1520204831014037,-21,25,7,14,35,14,-30,-13
1520204831014037,-2,-19,-7,-10,-20,-14,24,-4
1520204831026069,4,5,5,16,14,9,25,-24
1520204831026069,12,11,10,1,-6,21,50,31
1520204831035093,-5,-8,-11,-10,-9,-10,-25,-8
1520204831035093,3,8,2,-3,-36,-32,-30,-24
1520204831049130,-6,-11,-7,0,23,26,41,9
1520204831049130,8,12,1,-6,-23,4,23,-24
1520204831056149,-7,-6,-3,-2,7,1,-16,11
1520204831056149,2,23,10,-1,-14,-9,0,-42
1520204831073194,-3,-9,-4,-4,-8,-11,-19,50
1520204831073194,-15,-22,-11,-2,2,-7,7,25
1520204831074197,-2,25,8,16,9,24,7,7
1520204831074197,9,-8,5,-1,-17,4,19,7
1520204831086229,4,-3,-4,-4,-5,-8,-20,7
1520204831086229,-3,12,-2,-4,-8,13,45,11
1520204831095253,-24,-45,-13,-8,-18,-13,-28,38
1520204831095253,15,10,9,16,52,63,73,-37
1520204831109290,0,15,10,-1,-9,-3,-2,-12
1520204831109290,-5,-12,-1,2,5,1,1,9
1520204831118315,-3,-3,-13,-15,-20,-22,-30,-8
1520204831118315,-16,-12,-1,5,-2,3,-13,7
1520204831132352,5,-12,-12,-5,1,-10,-54,26
1520204831132352,13,13,0,-4,-5,17,71,-8
1520204831134358,-9,20,6,0,2,-12,-28,-18
1520204831134358,7,1,-1,-7,-16,-20,-26,28
1520204831146389,-9,11,1,4,20,11,8,-35
1520204831146389,-7,-21,-5,-1,-7,-8,-48,-18
1520204831155413,-10,-21,-4,-5,6,3,10,13
1520204831155413,9,18,-3,-4,-12,-14,-19,-6
1520204831168448,-24,-3,0,0,-6,7,17,18
1520204831168448,-12,-14,0,-2,-8,5,5,4
1520204831178475,20,19,1,5,50,22,21,-10
1520204831178475,-6,-20,-3,-9,-56,-21,-2,3
1520204831192512,10,-9,-2,9,70,34,2,20
1520204831192512,-3,11,2,-3,-15,-3,6,-30
1520204831194517,-4,-20,-3,-2,-6,-6,-20,15
1520204831194517,1,-18,-13,-9,-14,-8,1,18
1520204831206549,33,54,12,4,-9,-11,-8,11
1520204831206549,-32,-9,4,1,2,-3,-9,17
1520204831215573,-10,6,7,0,-18,-26,-15,-25
1520204831215573,-2,3,6,13,38,18,-23,-28
1520204831228608,15,-10,-3,-10,-29,0,42,6
1520204831228608,-5,-10,6,7,10,-16,-27,-15
1520204831237632,20,7,-5,-2,-14,7,10,12
1520204831237632,12,-4,-11,-7,-6,-10,-17,5
1520204831252672,-12,74,14,1,-11,-22,-26,16
1520204831252672,-6,-8,-8,-2,-18,47,74,9
1520204831254678,-8,-44,-7,0,45,-7,-2,-6
1520204831254678,18,43,11,-6,-13,-13,-18,-18
1520204831275733,-2,-42,-8,3,-8,2,-4,20
1520204831275733,-5,-21,-7,-1,3,-2,4,23
1520204831276736,26,42,4,-1,-18,-3,5,39
1520204831276736,-42,18,3,5,16,15,38,-11
1520204831288768,17,-27,-9,-6,-13,-16,2,-26
1520204831288768,-3,25,3,3,1,-10,-1,10
1520204831297792,28,-34,-13,-3,2,12,18,-7
1520204831297792,-26,26,7,-5,-10,-20,-39,9
1520204831312832,-5,-17,-6,2,-7,-1,-13,1
1520204831312832,-1,64,19,0,14,9,4,1
1520204831314837,2,0,-3,-4,-11,-12,-21,-14
1520204831314837,-33,0,-1,2,1,10,22,20
1520204831334890,-24,-35,-2,-3,-2,-4,0,40
1520204831334890,43,26,3,5,8,-4,19,10
1520204831336896,10,-76,-19,-11,-7,2,-38,-23
1520204831336896,37,92,28,2,-8,-10,16,-5
1520204831348928,16,-67,-17,-6,0,2,-8,3
1520204831348928,-56,-38,16,8,3,-12,-23,-12
1520204831357952,-4,45,16,3,-6,0,11,22
1520204831357952,35,-105,-31,-6,0,-3,-6,-31
1520204831372992,-12,-3,-4,-3,-1,0,0,11
1520204831372992,16,71,-11,-9,-2,-1,-5,23
1520204831373995,-46,-78,-3,10,4,-1,-11,-13
1520204831373995,-11,30,23,5,1,5,-1,25
1520204831395050,-3,24,17,4,-4,-9,-11,-36
1520204831395050,6,-49,-15,-8,-4,-6,-18,-8
1520204831397056,-82,-54,-10,-8,-3,4,17,2
1520204831397056,72,6,-25,-11,-5,-5,-6,14
1520204831409088,-81,24,16,6,5,14,3,-27
1520204831409088,-11,59,20,6,-2,-14,-21,53
1520204831418112,1,-38,-18,-10,-6,-5,-5,14
1520204831418112,73,-48,-9,5,8,12,-27,-26
1520204831433152,30,-96,-46,-23,-13,-18,-12,-19
1520204831433152,-22,64,14,8,4,-2,-11,-28
1520204831434155,-50,113,20,4,-2,-3,-1,62
1520204831434155,-10,-72,-16,0,0,-3,7,24
1520204831455210,30,-103,-45,-13,-3,7,7,-38
1520204831455210,1,42,25,7,7,10,9,-47
1520204831457216,76,-48,2,-2,-9,-14,-18,6
1520204831457216,36,16,-3,4,0,-4,-1,-13
1520204831469248,-31,-62,-8,6,3,4,-5,-5
1520204831469248,-49,12,-2,2,1,-7,-2,14
1520204831478272,-7,-66,-6,-4,-1,3,-10,-46
1520204831478272,49,-42,-20,-10,-4,-6,-8,32
1520204831492309,-43,-24,14,8,2,-1,5,24
1520204831492309,-37,-28,-9,-6,-5,-3,-1,-22
1520204831494315,19,-40,-22,-6,-2,1,6,5
1520204831494315,-86,14,23,5,-3,-8,-13,8
1520204831515371,18,49,18,10,8,6,11,-4
1520204831515371,38,-53,1,-5,-4,2,14,14
1520204831517376,-18,-86,-17,-4,-1,-2,-3,-41
1520204831517376,47,69,-4,-13,-12,-14,-21,-14
1520204831529408,-57,-9,6,6,4,13,36,-6
1520204831529408,97,-128,-41,-13,-10,-2,12,-22
1520204831537429,-48,48,16,0,3,-7,-12,32
1520204831537429,33,-40,-9,4,7,19,43,-14
1520204831552469,-15,-45,-8,-13,-3,-8,-16,24
1520204831552469,23,84,20,6,-2,-2,4,39
1520204831554475,24,10,-18,3,12,2,-1,1
1520204831554475,-71,-40,8,10,-5,-1,-7,-4
1520204831575531,32,42,13,-17,-30,7,8,-24
1520204831575531,5,-72,-17,1,15,3,4,-19
1520204831576533,-8,69,12,-4,-14,-1,22,2
1520204831576533,-53,17,14,11,38,4,-4,6
1520204831588565,11,38,4,6,-9,-9,-10,5
1520204831588565,7,-14,-13,-17,-34,-5,-13,-3
1520204831597589,1,35,19,13,3,2,2,2
1520204831597589,-18,-12,7,1,7,9,17,4
1520204831612629,5,-5,-19,3,14,-9,5,3
1520204831612629,10,19,12,-29,-3,2,-10,18
1520204831614635,-1,-5,3,22,2,-4,2,-33
1520204831614635,-46,-39,-7,3,-8,-3,1,-5
1520204831635691,14,47,1,10,25,7,11,10
1520204831635691,-20,-15,-2,0,2,1,11,5
1520204831636693,23,18,11,-10,-15,4,-1,-9
1520204831636693,-20,-6,-12,-25,-15,-4,-2,-7
1520204831648725,1,50,23,26,17,5,10,15
1520204831648725,2,-11,-24,-4,-23,-11,-8,-15
1520204831657749,13,-57,-7,-17,-2,-3,-10,7
1520204831657749,2,38,6,2,-5,-4,-10,28
1520204831672789,-41,12,11,0,1,1,21,46
1520204831672789,-11,-42,-10,8,25,16,-5,-19
1520204831674795,-9,5,-5,-1,-13,-10,-11,-20
1520204831674795,13,-7,-3,-4,-7,1,31,-10
1520204831694848,16,-1,-6,-5,-5,-8,-49,-3
1520204831694848,2,8,6,11,14,-10,-22,-10
1520204831696853,-6,9,0,-7,3,10,24,-2
1520204831696853,-4,-14,-1,-4,-6,1,-2,-19
1520204831708885,16,24,10,1,-3,-11,-20,18
1520204831708885,2,-1,1,13,8,20,37,8
1520204831717910,12,23,0,-4,-8,-15,-24,-25
1520204831717910,-18,-2,3,-7,-13,-5,-23,-16
1520204831732949,6,6,-4,2,-6,-4,0,-10
1520204831732949,-1,-13,0,0,10,9,-10,6
1520204831733952,5,18,-1,6,19,-7,21,-2
1520204831733952,-4,3,1,-3,-10,1,10,-12
1520204831755008,12,-4,-3,-11,-16,-9,-20,0
1520204831755008,-1,-4,-7,7,8,2,34,21
1520204831757013,-1,-18,-7,-10,-10,7,-38,-18
1520204831757013,0,5,12,11,13,-3,11,-15
1520204831769045,7,-4,4,-1,6,9,13,0
1520204831769045,-9,-15,-25,-25,-8,-6,-4,2
1520204831778070,-5,17,22,44,29,18,40,-16
1520204831778070,-5,-20,-16,-6,-9,-8,-25,27
1520204831793109,11,8,5,-16,-35,-5,-7,-24
1520204831793109,-2,2,-6,-56,-35,-14,-26,-7
1520204831794112,4,7,3,30,32,-3,-24,4
1520204831794112,-12,-4,6,36,-32,-1,17,15
1520204831815168,4,5,-10,-19,5,23,35,-27
1520204831815168,20,13,18,62,32,-24,-7,-17
1520204831817174,0,9,-8,-63,-43,0,-6,27
1520204831817174,-12,-3,9,-27,-8,3,8,17
1520204831829205,-2,1,0,20,32,-13,-6,1
1520204831829205,-6,-6,-4,-9,-30,4,3,-1
1520204831838230,-8,5,1,22,26,1,-4,23
1520204831838230,0,-5,-18,-21,7,9,43,-32
1520204831852267,1,-2,5,-20,-43,-15,-18,-1
1520204831852267,2,5,3,16,4,-7,-21,8
1520204831854273,5,10,-1,-34,-15,2,11,5
1520204831854273,1,3,10,24,-10,-17,-18,-3
1520204831875328,-1,1,1,24,57,-3,-29,12
1520204831875328,-9,2,1,16,-2,11,28,2
1520204831877334,-24,-15,-22,-26,-11,12,-9,5
1520204831877334,29,18,13,38,9,-8,13,-42
1520204831889366,10,5,5,11,-18,12,15,-13
1520204831889366,-3,-4,-9,-25,16,5,5,23
1520204831898389,-7,0,11,-36,-31,5,-10,2
1520204831898389,-16,-17,-24,14,19,-5,-46,-24
1520204831912427,11,21,33,45,6,4,-25,-10
1520204831912427,12,-1,-9,18,17,15,80,-14
1520204831914432,8,7,5,15,-2,1,15,28
1520204831914432,-12,-9,-13,-21,12,-38,-45,-2
1520204831935488,-13,-13,-17,-15,7,54,-4,23
1520204831935488,6,7,14,-17,-18,-63,-18,-10
1520204831936491,7,1,-1,-10,6,0,35,2
1520204831936491,-3,-3,4,1,23,8,15,9
1520204831948523,20,6,-2,3,-23,-14,-48,-5
1520204831948523,-30,-19,-15,-2,-6,9,-43,-64
1520204831957547,20,13,20,10,-7,-31,-85,-10
1520204831957547,-8,-4,-11,-13,-3,5,0,-25
1520204831973590,-5,-4,-4,-8,-10,-40,33,-7
1520204831973590,2,-6,-9,-7,5,8,-54,29
1520204831977601,-16,-10,-16,-3,1,16,41,23
1520204831977601,8,8,18,23,77,10,-21,16
1520204831995648,7,2,-2,-48,-69,-1,31,-29
1520204831995648,-5,-4,-2,20,28,-9,5,-20
1520204831996651,-8,-1,-8,-17,-20,22,4,-4
1520204831996651,3,4,3,5,18,5,8,33
1520204832008684,-8,-9,-9,5,-13,-11,0,45
1520204832008684,5,10,13,-42,-55,29,60,19
1520204832017707,7,8,10,44,71,14,-2,-29
1520204832017707,-4,-5,-8,32,-10,10,-63,-31
1520204832032747,-10,-4,-3,0,-12,-63,20,23
1520204832032747,13,10,13,12,35,22,-83,-55
1520204832034753,4,-1,-1,7,-7,-15,-25,-17
1520204832034753,-2,-6,-6,-46,-32,-17,70,34
1520204832054805,-13,-9,-7,-5,22,38,10,3
1520204832054805,-11,-6,-3,9,-16,-20,37,42
1520204832056811,20,12,8,4,-16,-32,-2,-87
1520204832056811,6,4,5,-14,-31,35,64,28
1520204832068843,-12,-7,-11,-19,60,20,-9,20
1520204832068843,10,2,2,34,-29,-18,21,-2
1520204832077867,-4,2,4,-39,-2,12,-18,35
1520204832077867,-6,0,4,52,-5,20,13,-35
1520204832092907,7,5,4,-48,-17,-3,-55,-49
1520204832092907,-11,-5,-5,39,51,50,-5,20
1520204832093910,1,-2,-2,28,34,-8,31,3
1520204832093910,-6,-5,-8,-39,15,37,3,55
1520204832114966,6,0,2,3,-63,-64,78,-2
1520204832114966,15,13,14,3,-8,20,-8,-44
1520204832116971,-5,-5,-2,16,-12,0,1,19
1520204832116971,-13,-13,-14,-30,-3,-55,-71,4
1520204832129003,9,6,1,-37,-62,19,36,-34
1520204832129003,-3,-4,-1,21,79,-2,43,39
1520204832138027,7,4,4,16,-31,5,-1,-27
1520204832138027,-16,-7,-5,-3,-52,-36,-19,-14
1520204832153067,-4,0,8,51,100,40,-43,-7
1520204832153067,14,5,1,-15,-66,1,-4,-16
1520204832154070,-15,-5,-6,37,30,-36,-22,11
1520204832154070,22,10,7,-27,-9,-9,-8,-33
1520204832175126,-8,-6,-2,-15,-55,-10,-17,27
1520204832175126,-20,-4,-2,-19,20,-18,-21,6
1520204832177131,20,9,11,29,-20,-6,19,19
1520204832177131,1,1,2,-27,37,77,99,-63
1520204832189163,5,-3,-1,18,52,6,-57,47
1520204832189163,2,2,3,22,63,20,9,23
1520204832198187,-10,-9,-11,-26,-13,-3,-1,59
1520204832198187,-12,-1,-2,14,-32,-9,-62,19
1520204832213227,-12,-10,-18,-15,-14,-88,-25,-75
1520204832213227,35,12,9,4,25,92,26,-53
1520204832214230,14,22,16,0,24,-52,-50,66
1520204832214230,13,1,3,5,25,-39,16,-16
1520204832235286,5,6,3,-1,5,8,21,54
1520204832235286,-28,-16,-15,-21,-44,-14,-53,67
1520204832237291,5,0,-6,-9,-28,1,56,-56
1520204832237291,-17,-12,-13,-18,-34,17,-52,20
1520204832257344,4,6,10,15,10,-17,-9,28
1520204832257344,0,-5,-5,-24,-3,4,10,-11
1520204832259350,-5,-5,-5,-1,-34,20,17,-54
1520204832259350,-4,-3,0,8,14,-47,3,62
1520204832272384,0,-2,4,26,39,46,25,3
1520204832272384,-4,-2,-5,-6,-21,-22,15,-23
1520204832279403,-25,-15,-9,-14,15,-12,-44,-20
1520204832279403,-7,0,-3,8,17,28,-21,19
1520204832295446,11,5,-1,2,-36,75,123,-43
1520204832295446,15,5,6,-13,47,14,-11,-44
1520204832296448,1,-1,-1,-16,-40,0,6,2
1520204832296448,3,4,5,16,28,8,24,-3
1520204832317504,-15,-2,1,5,-1,-10,-29,-33
1520204832317504,-15,-7,-9,-8,-23,-26,-9,25
1520204832319510,-17,-16,-12,2,16,3,0,-25
1520204832319510,19,11,9,3,-3,9,17,22
1520204832332544,-1,2,-1,-2,-12,0,32,-11
1520204832332544,1,-3,-1,-3,-38,-31,-29,-27
1520204832338562,2,4,3,3,24,-6,-26,24
1520204832338562,-7,-5,-3,-7,2,-19,-19,2
1520204832355606,-3,-3,-5,-5,-9,-12,0,10
1520204832355606,9,2,-1,3,0,-39,0,35
1520204832356608,4,4,5,-3,10,47,45,25
1520204832356608,-2,-3,0,-6,-24,-18,-22,-17
1520204832377664,6,0,0,7,6,11,4,-51
1520204832377664,5,4,1,-3,-22,-32,-37,25
1520204832379670,-4,-2,-4,-2,9,14,81,7
1520204832379670,2,-1,1,3,-2,12,-9,-7
1520204832391702,4,-2,-2,6,13,-9,-40,62
1520204832391702,-21,-12,-16,-19,-31,-17,10,28
1520204832398720,-1,-3,-7,-14,-4,12,-21,18
1520204832398720,13,7,5,7,-3,2,51,-13
1520204832415766,7,-1,0,-2,2,-9,-23,81
1520204832415766,-5,-1,0,5,0,8,-20,13
1520204832416769,-1,-3,-7,-5,-15,-31,9,-2
1520204832416769,-2,2,1,4,-4,30,35,10
1520204832437824,8,4,2,4,57,23,-26,-28
1520204832437824,-6,1,5,-4,-35,6,6,-19
1520204832439830,11,4,2,-6,-8,-44,-20,-53
1520204832439830,5,6,4,4,-13,-20,-32,-15
1520204832451862,-4,0,-6,-5,0,7,16,-15
1520204832451862,2,-2,0,0,16,8,20,9
1520204832458880,-8,-6,-3,6,2,14,-20,-58
1520204832458880,-2,-4,-5,-5,0,-1,4,39
1520204832474923,-9,-4,-1,-4,4,-6,-7,-19
1520204832474923,4,6,3,1,-8,-12,2,-34
1520204832476929,-7,-6,-3,-5,-1,7,-4,-55
1520204832476929,-3,-4,4,9,4,-5,-9,-61
1520204832497984,-1,2,1,5,-3,-2,-20,-13
1520204832497984,-4,-6,-4,-4,-26,-28,-7,57
1520204832498987,-7,-2,2,7,49,45,24,-10
1520204832498987,13,0,2,-5,-14,-11,9,66
1520204832511019,-6,-4,4,3,-6,-8,-15,-32
1520204832511019,1,5,-3,-5,-4,-3,-8,40
1520204832520043,-2,-1,-1,7,-6,-3,-4,28
1520204832520043,-12,-11,-10,-12,-18,-3,-10,3
1520204832535083,-2,2,-5,-2,13,12,19,-37
1520204832535083,0,-2,1,6,13,-13,17,0
1520204832537089,-7,-8,1,-2,-29,-6,-18,-8
1520204832537089,-1,0,-5,-9,-2,-16,-36,-42
1520204832558144,4,-4,-4,-2,-15,-13,-4,-6
1520204832558144,-7,-9,-6,-7,6,6,-1,-14
1520204832559147,8,-2,-4,1,2,1,8,5
1520204832559147,-7,23,4,1,0,-5,-13,36
1520204832571179,-6,-5,2,-1,-5,-3,-19,5
1520204832571179,-25,-21,-10,-9,-4,-5,1,-94
1520204832580203,6,-5,0,7,6,2,-13,39
1520204832580203,17,-22,-13,-8,-2,10,16,20
1520204832595243,-25,6,0,4,2,-5,-3,-22
1520204832595243,16,-16,5,3,8,18,18,40
1520204832597249,5,60,6,-2,-5,-3,3,7
1520204832597249,-3,5,6,3,7,10,6,7
1520204832617302,1,-5,5,7,13,14,18,-21
1520204832617302,-1,-5,10,7,2,-15,-24,-12
1520204832619307,12,-16,-9,-6,-12,0,7,-15
1520204832619307,6,-11,-3,6,21,14,3,10
1520204832631339,15,21,-1,-7,-5,-7,-10,51
1520204832631339,0,44,8,-3,-21,0,15,12
1520204832640363,-25,-5,6,-6,42,15,-30,39
1520204832640363,-5,17,16,17,2,-4,10,-1
1520204832655403,1,-45,-17,-8,-9,0,7,17
1520204832655403,25,45,1,3,0,8,2,-37
1520204832656406,17,-20,-6,-6,-14,-15,-13,30
1520204832656406,-40,36,4,-6,-7,-5,-5,-31
1520204832677462,6,-23,-1,-3,-2,-2,-3,-2
1520204832677462,11,-12,-6,-5,3,7,-1,1
1520204832679467,24,14,5,3,-2,-7,-6,1
1520204832679467,-16,21,6,1,2,3,7,-11
1520204832691499,-30,39,10,1,-10,-8,2,7
1520204832691499,-3,-33,-7,0,8,7,7,-14
1520204832700524,20,-2,-8,-3,-1,5,-5,-6
1520204832700524,6,-26,-8,-4,-8,-17,-28,-5
1520204832715563,30,7,0,-12,-5,2,5,20
1520204832715563,-20,21,2,6,6,-4,-19,-5
1520204832716566,-39,-57,-9,1,-4,0,4,-8
1520204832716566,24,23,8,0,0,6,20,0
1520204832737622,2,-19,-1,-1,0,4,-1,-5
1520204832737622,14,32,0,3,6,-5,-11,-7
1520204832739627,-29,-47,-10,-2,-8,-2,9,-1
1520204832739627,-10,29,-7,-2,-2,9,29,-11
1520204832751659,55,6,-9,-7,-6,-9,-14,4
1520204832751659,-65,-31,12,6,10,10,11,-8
1520204832760684,6,67,15,6,-2,0,7,4
1520204832760684,36,51,24,5,-1,-3,-12,0
1520204832775723,-12,-85,-26,-6,-4,-2,-1,-7
1520204832775723,39,24,4,2,1,5,8,6
1520204832776726,18,9,7,3,-2,-4,5,0
1520204832776726,-16,17,-5,-5,-1,1,-4,-8
1520204832797782,-24,-5,4,5,-3,-6,-7,4
1520204832797782,-7,33,-3,-4,-2,-3,-2,1
1520204832799787,47,-7,-7,-1,2,5,18,-1
1520204832799787,52,-121,-25,-6,-3,-5,-23,3
1520204832811819,-60,99,48,14,8,1,-10,5
1520204832811819,-15,-54,-11,-1,-1,8,25,0
1520204832820844,48,-59,-38,-18,-15,-13,-10,-1
1520204832820844,-49,66,41,12,7,4,8,4
1520204832834881,-20,-95,-24,-6,-5,-5,3,-2
1520204832834881,-5,-44,-15,-6,1,5,-9,-5
1520204832836886,-6,-2,0,1,-6,-13,9,-1
1520204832836886,52,-65,-27,-11,-10,-10,-21,-6
1520204832857942,-40,53,12,6,8,10,20,-1
1520204832857942,-16,6,4,1,-3,-5,-10,1
1520204832858945,-10,-13,-8,-7,1,-3,-19,-1
1520204832858945,-5,-22,-19,-10,-6,-6,1,-4
1520204832870977,-1,2,-1,4,3,3,3,1
1520204832870977,8,-13,11,4,1,5,17,-7
1520204832880000,-46,26,24,10,7,7,-3,1
1520204832880000,-46,67,23,6,1,0,9,-3
1520204832895041,50,-58,-20,-5,-1,8,19,3
1520204832895041,9,-5,1,-2,-1,-3,3,-2
1520204832897046,-8,3,13,3,1,-1,-6,-1
1520204832897046,-15,-30,-12,-4,0,4,9,-1
1520204832918102,11,28,-6,-3,-5,-7,-12,1
1520204832918102,2,2,3,2,1,3,12,-2
1520204832919105,5,10,8,1,-1,1,-4,1
1520204832919105,7,8,1,-3,-3,-3,-12,-1
1520204832931137,-20,17,-2,-3,-4,-4,4,-2
1520204832931137,1,-15,1,0,3,-7,-10,-3
1520204832940163,-17,11,2,3,3,7,9,-4
1520204832940163,-3,-27,-14,-4,-5,-5,-9,5
1520204832955201,3,-6,7,0,0,-1,-15,-3
1520204832955201,22,-75,-28,-13,-11,-6,8,3
1520204832957206,-35,39,18,10,5,3,1,0
1520204832957206,-4,57,19,7,1,-1,5,-1
1520204832978262,4,18,0,0,-2,0,5,4
1520204832978262,2,-62,-13,0,0,-3,-13,-1
1520204832979265,6,13,-9,-11,-11,-8,-11,2
1520204832979265,-50,3,6,2,2,0,-10,-1
1520204832991297,9,-83,-17,-5,-2,-3,1,1
1520204832991297,7,97,25,5,-1,-4,-11,1
1520204833000321,31,-20,3,2,1,8,22,-2
1520204833000321,6,-26,-4,0,7,3,-28,-2
1520204833015361,-12,23,3,-2,-13,-8,6,-6
1520204833015361,-6,-1,-13,-5,-9,-6,-13,-5
1520204833017366,1,-42,-10,-4,0,-1,-3,-1
1520204833017366,-17,-22,-13,-9,-4,-1,4,-4
1520204833037419,-13,1,-16,-12,-10,-13,-32,3
1520204833037419,29,18,24,15,8,6,5,0
1520204833039425,-13,2,0,4,-1,-2,1,-5
1520204833039425,-11,0,4,5,3,6,9,-11
1520204833051457,6,-21,-10,-4,1,-4,-5,-7
1520204833051457,3,32,-8,-4,-4,-1,-1,-11
1520204833060481,-15,-24,-13,-12,-4,-8,-17,13
1520204833060481,27,-46,-8,2,2,-1,-3,-14
1520204833075521,-5,68,25,3,0,4,9,-7
1520204833075521,3,-30,-17,0,3,0,-6,3
1520204833076524,25,35,29,11,5,2,4,3
1520204833076524,-7,-17,-10,-5,-3,3,29,21
1520204833097579,10,-6,2,3,7,2,-10,10
1520204833097579,-8,12,3,0,-1,0,-7,-3
1520204833099585,-13,-31,-21,-14,2,-3,8,-8
1520204833099585,7,-1,0,6,-2,1,18,5
1520204833111617,14,21,17,8,-12,2,-4,9
1520204833111617,-13,8,-12,-8,-3,-5,-16,9
1520204833120641,-2,23,12,-4,-9,-5,-1,13
1520204833120641,22,-12,-2,3,6,3,-2,-6
1520204833134678,1,14,2,2,9,1,11,-2
1520204833134678,-2,-2,7,-7,-11,-6,-2,27
