timestamp,emg1,emg2,emg3,emg4,emg5,emg6,emg7,emg8
1526905391971052,2,8,-8,0,-7,-22,-4,1
1526905391971052,-2,1,-3,2,14,14,19,-2
1526905391972053,-5,-17,-7,-12,-4,-31,-3,10
1526905391972053,-8,-20,-6,5,36,34,2,-6
1526905391973047,0,1,0,0,1,9,9,-1
1526905391973047,4,2,5,2,-10,-11,-21,-3
1526905391974044,-2,-12,-2,-10,-29,-18,5,1
1526905391974044,0,38,9,-1,39,8,6,0
1526905391982022,4,-29,-7,-1,1,18,4,10
1526905391982022,4,38,1,9,64,15,1,2
1526905391990002,-4,-16,-2,-7,-31,-45,-11,-6
1526905391990002,-5,-20,-7,12,-4,26,-6,0
1526905392001969,0,7,0,-11,-43,-23,-19,-17
1526905392001969,0,-5,4,5,33,30,6,7
1526905392013937,-2,5,-3,2,24,27,15,-5
1526905392013937,-3,-3,-4,-9,-29,-39,-9,-1
1526905392016929,-2,-16,-6,-3,-33,-31,-17,2
1526905392016929,-5,-6,11,-4,-60,3,22,1
1526905392040865,-6,-51,-12,1,-2,-4,-39,-15
1526905392040865,-1,-7,3,1,86,28,9,5
1526905392080758,-3,-8,-4,-4,-32,-26,-7,-3
1526905392080758,-3,-5,-2,-9,-34,-3,-1,0
1526905392081756,4,-2,-9,-11,15,5,-10,-2
1526905392081756,-1,-1,7,5,3,2,0,-2
1526905392081756,4,0,-8,-3,-5,-3,6,3
1526905392081756,-2,2,-8,0,-4,-6,0,-2
1526905392085745,2,-4,4,7,-15,-12,-8,1
1526905392085745,-2,-1,-3,-7,-20,-18,-8,-9
1526905392091729,-5,3,-1,-6,-23,-2,-6,-2
1526905392091729,2,-10,-3,15,81,18,34,9
1526905392099708,3,1,3,-3,-30,-10,-56,5
1526905392099708,9,12,-1,10,43,30,8,0
1526905392108684,-8,6,9,-9,-11,13,1,1
1526905392108684,-2,2,-2,-6,9,18,-5,-2
1526905392121649,-4,-9,-7,-2,-19,-17,14,-12
1526905392121649,-3,0,5,-8,-24,-17,-6,5
1526905392131622,-5,-2,-6,-5,-45,-31,24,-3
1526905392131622,-2,-9,-6,-1,-1,-13,-23,-20
1526905392144588,1,14,16,15,72,59,23,1
1526905392144588,14,-1,-11,-9,-31,-3,-12,-14
1526905392153564,-1,10,3,7,20,0,25,29
1526905392153564,-3,-46,-5,-15,-93,-31,-1,0
1526905392167526,8,52,13,9,63,4,-5,2
1526905392167526,2,-6,0,4,17,24,12,8
1526905392176503,2,2,0,2,19,10,-18,-8
1526905392176503,-4,2,6,-4,-30,-13,-1,-2
1526905392190465,-4,-27,-19,1,-30,-26,-12,4
1526905392190465,-5,21,12,-14,-39,-4,4,2
1526905392198444,4,-3,7,7,42,8,-11,-4
1526905392198444,-4,12,-1,7,26,-10,-4,4
1526905392213403,-1,-10,-5,-20,-25,6,38,-8
1526905392213403,-6,-10,-1,20,55,26,15,1
1526905392215398,-8,-10,-9,-26,-50,-29,-50,-16
1526905392215398,0,27,7,3,27,42,20,4
1526905392227366,2,7,3,1,20,-1,3,4
1526905392227366,2,-14,-3,-3,-56,-38,-12,4
1526905392234348,-7,-7,-3,0,3,1,7,-9
1526905392234348,3,18,5,-6,-18,-25,-9,-6
1526905392251302,1,-5,0,-4,-9,15,-2,8
1526905392251302,-2,-3,-5,1,-13,-19,-4,5
1526905392252300,0,-10,1,19,51,36,15,-1
1526905392252300,7,-7,-8,-5,-7,1,-3,-3
1526905392273243,-2,-4,-1,9,-20,-14,-2,-5
1526905392273243,-16,-7,-2,-17,22,2,-4,-14
1526905392275239,-3,-4,-1,3,-13,-3,-4,-4
1526905392275239,2,-3,-2,-3,4,2,-2,5
1526905392288203,1,-11,-4,4,-8,-13,-9,-3
1526905392288203,4,-12,-4,5,2,-5,2,6
1526905392294188,-2,-2,-2,-6,-16,-16,-7,-1
1526905392294188,-5,2,-3,1,25,32,-10,3
1526905392311142,17,-1,9,3,66,45,53,13
1526905392311142,-8,2,-2,-1,-6,7,-27,-16
1526905392313137,-6,0,0,6,4,1,3,0
1526905392313137,-7,-3,-7,-14,-42,-32,-9,-5
1526905392333083,-5,5,-7,-10,-44,-20,-4,-3
1526905392333083,9,-11,-9,-7,11,-1,1,3
1526905392335078,0,10,11,4,6,-6,-1,-3
1526905392335078,-3,8,2,9,2,9,-1,3
1526905392347046,5,-9,-5,0,-1,-6,-8,2
1526905392347046,-3,18,12,7,6,2,8,3
1526905392356023,3,4,-8,-7,-13,3,-6,-5
1526905392356023,-6,-9,2,6,20,0,4,1
1526905392370982,-2,7,2,-6,-23,-8,-10,-6
1526905392370982,-12,-4,-7,-19,-91,-68,-16,-11
1526905392372977,7,4,3,33,96,67,23,9
1526905392372977,7,2,7,-11,29,31,10,1
1526905392393921,0,-8,-9,-8,-29,-15,-21,-1
1526905392393921,1,-1,-2,0,18,5,8,7
1526905392394918,1,-4,1,-13,-21,-20,-8,-3
1526905392394918,-1,2,0,-4,-24,-16,-8,-1
1526905392406886,-19,-16,-9,-4,-22,-11,-7,-7
1526905392406886,2,3,5,0,-2,-16,-4,3
1526905392415862,0,-23,-12,-9,-10,22,1,4
1526905392415862,1,2,17,11,42,0,6,14
1526905392430822,14,7,-1,-3,-31,7,5,16
1526905392430822,-11,9,1,7,28,20,3,5
1526905392432817,-24,-9,-7,-7,-20,-15,-9,-19
1526905392432817,14,-4,-9,3,-13,-1,-1,15
1526905392453761,-7,4,5,-1,38,2,1,5
1526905392453761,-5,-10,-2,2,-11,15,1,-1
1526905392454759,8,16,2,-13,11,-9,-4,10
1526905392454759,1,1,-7,0,-42,-22,1,-12
1526905392466726,0,-11,-2,2,38,42,5,-5
1526905392466726,6,9,6,18,44,16,-1,0
1526905392475702,-5,17,4,-6,-58,-24,-4,-4
1526905392475702,-8,-9,-3,3,13,-15,-2,-6
1526905392490662,3,25,3,16,38,14,13,5
1526905392490662,3,29,5,-10,-18,6,6,-2
1526905392492657,10,-16,-10,-2,-6,-7,-5,-1
1526905392492657,-14,-3,-2,-4,-46,-43,-9,-15
1526905392513601,-5,-4,-5,-8,-12,23,-1,-7
1526905392513601,7,10,12,13,64,33,12,11
1526905392515595,14,-24,-8,-6,16,7,7,3
1526905392515595,-1,42,35,16,25,18,5,4
1526905392527563,-2,-18,-18,-20,-60,-50,2,-4
1526905392527563,-2,-12,2,-1,-23,-12,-30,-14
1526905392536540,4,10,7,7,4,14,3,-1
1526905392536540,-1,-10,-15,-6,24,19,-4,-10
1526905392551499,-7,-1,-2,-11,-112,-87,-22,-9
1526905392551499,1,-10,-5,-8,47,51,19,5
1526905392552497,1,36,15,19,66,46,10,2
1526905392552497,-7,-25,-14,-9,-28,0,-7,-3
1526905392573441,-7,0,5,-3,-47,-52,-16,-7
1526905392573441,5,2,-23,-30,-109,-29,-23,1
1526905392575436,-10,7,29,11,87,36,25,4
1526905392575436,7,3,-9,-1,7,24,5,1
1526905392587403,-1,-19,-2,-8,-50,-30,-5,-2
1526905392587403,-8,-17,-20,8,59,-9,-6,0
1526905392596380,-6,-22,-7,3,-17,7,-2,2
1526905392596380,0,-5,16,1,15,9,10,3
1526905392611339,6,63,-16,-15,-47,-27,-10,-7
1526905392611339,-7,-73,2,13,41,27,5,-1
1526905392612337,0,19,-6,-4,-12,4,20,7
1526905392612337,-3,3,-3,0,-8,-26,-18,-1
1526905392633281,-14,-10,-9,-4,27,13,-2,-10
1526905392633281,3,18,4,-9,-40,-2,6,2
1526905392635275,-5,-5,-9,-9,-25,-24,-7,5
1526905392635275,-3,-18,-10,-4,-30,-20,1,2
1526905392647243,-3,-2,20,8,74,43,0,-1
1526905392647243,1,8,2,3,16,-15,15,2
1526905392656220,10,49,15,6,-43,-12,-5,1
1526905392656220,3,-9,-8,0,17,29,3,2
1526905392671179,-3,-26,4,5,-11,-19,-13,-9
1526905392671179,2,15,-1,-6,-9,16,22,5
1526905392672177,-10,-28,-15,-1,-1,-20,-15,-14
1526905392672177,-1,-11,-5,-19,-83,-35,-12,-5
1526905392693120,2,33,1,20,70,24,13,4
1526905392693120,3,-5,0,-3,36,22,15,4
1526905392695116,-1,-29,-6,-8,-50,-26,-27,-17
1526905392695116,10,17,1,-3,7,28,8,5
1526905392707083,-2,-39,-12,2,21,8,3,2
1526905392707083,-1,-4,4,10,-21,-23,-4,-11
1526905392716060,5,22,8,-6,5,9,-4,8
1526905392716060,-6,-13,-1,19,15,1,4,-5
1526905392731019,17,20,12,-14,-43,-3,6,10
1526905392731019,-5,14,-5,10,52,12,-13,-9
1526905392733014,-2,-20,0,3,25,-9,-1,2
1526905392733014,-5,-33,-5,0,-13,-2,-2,-8
1526905392753958,6,25,13,-5,-49,-22,-2,4
1526905392753958,3,15,3,3,16,30,1,0
1526905392755953,-3,7,0,31,64,6,9,0
1526905392755953,5,-6,-9,-21,26,44,8,4
1526905392766923,-4,-23,8,10,13,9,7,5
1526905392766923,-2,-6,-1,-10,-46,-35,-11,-4
1526905392775899,-2,-22,-16,-2,-35,-28,-4,-1
1526905392775899,-10,2,-4,-1,17,-1,-7,-7
1526905392790859,-9,5,1,-2,13,-16,-3,-13
1526905392790859,8,0,1,-5,-63,-11,-3,3
1526905392792854,3,-17,-13,-7,45,28,2,4
1526905392792854,2,7,7,5,-3,-22,-2,6
1526905392813799,-5,-8,-9,-3,33,35,-17,-7
1526905392813799,-10,-16,-1,-12,-81,-64,-23,0
1526905392814796,-5,38,2,9,-7,3,16,-6
1526905392814796,8,-12,0,6,52,38,-21,8
1526905392826763,-11,2,2,-2,8,-17,5,-4
1526905392826763,7,-10,-7,-9,-10,21,-2,4
1526905392836737,-22,-10,-9,-15,-16,-23,-10,-15
1526905392836737,1,3,7,-3,-47,-21,4,-2
1526905392850700,7,26,10,23,102,57,13,0
1526905392850700,-4,-15,-7,1,-33,-23,-6,-7
1526905392852694,7,-3,0,-13,21,9,1,9
1526905392852694,-5,9,-10,7,-29,-31,5,4
1526905392873638,10,-7,10,-8,-9,38,15,7
1526905392873638,-7,2,-9,-1,-12,-15,-9,-9
1526905392874635,11,24,8,-2,-19,-18,-7,0
1526905392874635,-2,-11,-3,10,25,6,-1,3
1526905392887601,1,1,-9,-17,-97,-51,-7,-5
1526905392887601,-9,4,8,13,82,36,8,4
1526905392896578,9,-47,-15,-2,63,42,4,0
1526905392896578,1,53,10,0,11,-12,1,-8
1526905392910540,1,-7,-2,-6,-49,-26,-21,1
1526905392910540,-7,12,-1,-4,-17,19,10,-4
1526905392917520,2,-25,-6,-6,-20,-13,-8,8
1526905392917520,-13,7,-6,-1,-1,-2,-5,-7
1526905392933479,-2,-4,0,-5,-7,-17,-2,-7
1526905392933479,2,4,0,-3,3,-22,-9,1
1526905392935474,5,28,7,3,-7,28,9,8
1526905392935474,-5,-24,7,7,29,18,11,0
1526905392947441,0,-12,-4,16,52,33,2,5
1526905392947441,1,-16,-6,-12,4,-28,12,-3
1526905392956424,-9,13,3,-4,-69,5,-32,-7
1526905392956424,6,-7,-3,-3,37,1,15,-2
1526905392970379,-10,-6,4,1,-17,-21,-6,-7
1526905392970379,4,40,6,-12,-57,-7,1,2
1526905392977361,-9,22,4,20,63,1,16,-14
1526905392977361,-3,-26,2,-11,-32,-11,-21,-10
1526905392993319,5,-13,-8,-3,16,24,6,8
1526905392993319,6,-1,2,8,33,1,-4,-3
1526905392995313,-2,-10,0,-16,-80,-48,-5,0
1526905392995313,-5,22,5,10,-18,-5,-6,5
1526905393016256,-6,-8,-8,-2,23,-1,3,0
1526905393016256,3,-14,7,7,36,42,18,9
1526905393017254,-10,-11,-7,-1,1,-6,-5,-10
1526905393017254,9,6,-4,-2,-24,-18,0,3
1526905393030219,1,-6,-7,-5,-46,-33,-9,1
1526905393030219,-2,-5,1,-5,-24,10,1,-2
1526905393037201,6,5,-8,8,77,8,10,6
1526905393037201,-1,-8,6,-11,-23,4,12,3
1526905393052161,0,-7,-6,-2,-8,36,-14,-16
1526905393052161,-9,19,13,13,42,-9,-8,-12
1526905393061137,-1,-5,-4,-7,-32,-11,7,7
1526905393061137,-3,3,-7,-8,-26,-8,-2,3
1526905393076097,3,-3,-1,9,42,17,17,11
1526905393076097,-1,17,-6,2,-19,-21,-4,6
1526905393078091,-1,-41,-15,-17,-51,-8,-10,-2
1526905393078091,-4,1,7,6,18,-3,-14,-1
1526905393099035,-5,8,4,5,59,6,24,1
1526905393099035,1,-14,-13,-4,-8,23,-17,1
1526905393100034,-2,10,9,0,-53,-37,2,-19
1526905393100034,3,5,-2,-4,41,21,-31,-3
1526905393112001,3,-2,8,7,61,37,15,5
1526905393112001,-4,-5,-3,-6,-28,-19,8,-1
1526905393120977,2,20,1,-1,-25,-21,-11,-3
1526905393120977,5,-7,-6,0,6,8,-3,2
1526905393136934,-12,-2,-2,-4,-46,-19,-10,-13
1526905393136934,4,19,2,6,84,24,15,7
1526905393137933,-1,-10,4,10,24,18,-8,-2
1526905393137933,1,-4,0,0,-29,-14,4,-2
1526905393158875,-2,-3,-5,-12,-23,-28,-11,2
1526905393158875,-3,2,-3,-14,-36,-9,0,-7
1526905393159872,-2,-8,0,3,32,41,18,9
1526905393159872,-1,10,6,5,8,-16,18,0
1526905393171841,7,5,1,9,6,7,-8,4
1526905393171841,2,4,6,-5,-44,-17,-30,-6
1526905393180817,2,3,1,-16,-20,-46,-3,6
1526905393180817,-7,8,2,12,27,57,10,-6
1526905393195777,7,5,0,-1,-4,10,16,1
1526905393195777,2,-12,8,10,32,25,5,6
1526905393197771,5,15,-9,-1,23,11,2,16
1526905393197771,-3,-23,4,-12,-43,-25,-4,2
1526905393218715,-6,2,-3,2,6,-7,0,-1
1526905393218715,-6,32,2,-10,-5,-19,13,-2
1526905393219713,3,-24,6,10,14,20,-15,-2
1526905393219713,4,5,-10,10,16,-2,15,6
1526905393232678,1,-6,-11,-24,-35,-17,-3,6
1526905393232678,-1,-1,-2,17,6,-12,3,-2
1526905393240656,-1,-25,0,-8,24,19,15,1
1526905393240656,2,20,0,-2,-18,-8,-15,-6
1526905393255616,-3,5,3,8,11,5,-11,4
1526905393255616,1,-25,-14,1,-6,1,-12,-3
1526905393257611,-7,-4,1,-9,-36,-17,9,-12
1526905393257611,9,18,-1,6,43,-6,1,7
1526905393278555,-6,-13,10,-7,-33,4,1,3
1526905393278555,3,-8,-3,-1,-38,-18,4,-6
1526905393280550,-2,-1,1,-3,25,13,-5,0
1526905393280550,0,15,2,-7,15,2,-17,-10
1526905393292518,5,4,-5,8,17,8,-4,4
1526905393292518,-4,-12,0,7,-26,-23,1,0
1526905393308475,0,-17,-10,-23,-43,16,-17,4
1526905393308475,0,-7,1,8,-1,-20,7,-4
1526905393316453,-2,7,-1,0,9,-12,12,-2
1526905393316453,-1,-12,6,11,47,59,-4,2
1526905393317452,-4,-5,-10,-4,-31,-32,-8,-1
1526905393317452,2,25,-7,-17,-10,-8,-3,-3
1526905393338395,-1,33,17,11,-1,1,-4,-5
1526905393338395,3,-4,-4,-1,44,5,-8,-1
1526905393340390,2,-9,-3,-1,-69,-27,20,-4
1526905393340390,-2,-1,11,7,46,47,1,-4
1526905393352358,-1,-8,-7,-3,-12,-10,-14,-8
1526905393352358,-9,8,-10,-12,-31,-21,-2,-4
1526905393361334,3,10,14,7,6,-26,-6,-1
1526905393361334,2,-11,-4,-2,-8,8,7,7
1526905393376294,0,-20,-14,7,50,44,22,2
1526905393376294,-1,20,16,-5,-2,-21,-29,-6
1526905393377291,-1,26,8,15,33,24,-3,-2
1526905393377291,-5,-25,-14,-18,-71,-50,-4,-4
1526905393398235,2,-7,1,2,-13,-14,-11,-1
1526905393398235,0,8,5,1,81,47,26,3
1526905393400230,1,2,-6,-7,-40,-16,-15,-1
1526905393400230,-3,0,-1,3,-10,-16,-13,-7
1526905393412198,-9,-10,-6,-11,-20,-11,2,-15
1526905393412198,-7,-28,-13,-7,-63,-14,-1,-4
1526905393421184,10,40,7,1,28,1,-8,1
1526905393421184,-6,-18,-2,-2,16,29,10,4
1526905393435136,1,-7,-10,-3,-3,-1,-8,-5
1526905393435136,1,-2,3,-8,-27,-30,-8,-5
1526905393442118,-1,-5,3,16,23,17,16,4
1526905393442118,-6,-8,-3,0,-9,-20,-5,-3
1526905393458075,3,23,6,1,-16,-1,1,3
1526905393458075,-2,-23,-17,-3,2,-11,-26,-11
1526905393460070,0,2,5,-10,-72,-41,-12,0
1526905393460070,3,-11,1,18,110,77,10,9
1526905393472038,-2,7,4,9,31,12,19,-1
1526905393472038,0,-24,-11,-6,-38,-25,1,0
1526905393481014,-5,-16,-5,3,10,12,1,-18
1526905393481014,-4,19,-2,-7,-36,-47,-20,-6
1526905393494976,3,-10,-3,-5,29,21,0,0
1526905393494976,7,12,3,4,3,22,36,12
1526905393501958,-1,6,-1,1,8,-12,-30,-6
1526905393501958,1,8,4,-1,-22,-14,11,2
1526905393518912,-3,-13,-20,-14,-46,-34,-12,-2
1526905393518912,2,27,10,4,73,42,21,3
1526905393520907,-5,-3,-3,-1,4,7,-13,-1
1526905393520907,-6,-13,2,1,-2,8,6,-2
1526905393531877,-1,-10,-1,0,-23,-29,-9,4
1526905393531877,-6,1,0,-4,-66,-45,-20,-8
1526905393540853,-6,-15,-4,7,91,53,22,6
1526905393540853,5,18,-5,-11,-53,-36,-7,-2
1526905393555813,2,-5,3,0,23,28,-3,-16
1526905393555813,-10,-25,-4,-1,12,2,2,-1
1526905393561798,-3,27,-4,-8,-16,0,10,0
1526905393561798,4,8,12,8,-29,-16,-2,2
1526905393578752,-5,-22,-4,-21,-5,-6,2,7
1526905393578752,-4,-8,-2,-3,-7,-2,0,2
1526905393579750,-7,9,-1,9,26,4,-32,-6
1526905393579750,2,-21,-9,-1,56,29,6,2
1526905393591718,0,22,15,13,-24,-4,-2,-2
1526905393591718,3,6,-4,5,14,-4,-8,-13
1526905393600693,2,-24,-5,-11,-27,-22,6,14
1526905393600693,-2,8,-6,-11,-24,-8,2,-5
1526905393615653,-3,-4,0,1,-17,12,-10,-11
1526905393615653,-3,5,0,-5,4,-8,-2,-1
1526905393621637,3,18,5,11,58,26,21,1
1526905393621637,5,3,-3,-4,-21,-9,0,3
1526905393638592,2,19,10,6,25,-4,-4,6
1526905393638592,-6,-10,-2,-9,-31,-3,-9,-10
1526905393640587,-3,-22,-3,-12,-35,-20,12,2
1526905393640587,5,22,4,2,54,30,-11,-2
1526905393660533,-3,31,1,0,-31,-20,-8,1
1526905393660533,-1,-10,-11,10,9,-2,26,11
1526905393662528,5,-18,-6,-18,-6,16,3,-21
1526905393662528,-9,1,-4,4,28,4,3,-2
1526905393675493,4,-11,0,1,-2,1,6,7
1526905393675493,-2,4,1,2,-13,4,-13,2
1526905393682475,-1,-18,-2,11,-34,-15,-4,-3
1526905393682475,-1,6,-7,-18,-7,0,-1,2
1526905393698432,-3,-11,-5,-9,49,26,14,2
1526905393698432,7,14,4,3,36,4,-2,4
1526905393700427,5,-11,-8,-1,-22,-11,-8,9
1526905393700427,-4,-21,-4,-5,-45,-13,-14,-13
1526905393721371,3,24,13,7,41,6,15,16
1526905393721371,-7,-20,6,-5,-12,9,-10,-4
1526905393722369,-6,3,-5,-5,-53,-27,-6,-2
1526905393722369,-7,-4,7,13,42,9,12,-1
1526905393734336,9,-10,-7,-3,12,31,13,-3
1526905393734336,4,-8,-4,-8,-4,-2,-10,5
1526905393743312,2,20,11,3,-5,-30,19,4
1526905393743312,-3,-13,-7,-16,-61,-9,-1,-7
1526905393758272,-3,-10,0,11,-4,2,12,-3
1526905393758272,6,11,-1,-6,1,-7,-9,-9
1526905393760267,-4,-7,-2,9,23,10,3,12
1526905393760267,3,11,1,-3,-14,-12,-3,0
1526905393781211,-3,-13,-7,-11,-16,-3,-15,-1
1526905393781211,3,-2,8,15,22,10,16,-6
1526905393782208,-5,9,-6,-12,-21,-13,-5,-10
1526905393782208,-2,-7,1,9,22,19,4,2
1526905393794176,3,5,5,10,15,1,-14,-9
1526905393794176,1,-14,-9,0,1,-10,-6,6
1526905393804150,1,-15,1,0,-12,-7,-8,4
1526905393804150,7,45,18,9,34,25,4,10
1526905393818112,-5,-11,-4,3,-14,-18,-10,-13
1526905393818112,-1,5,-1,1,2,15,7,0
1526905393820107,0,22,2,2,9,-3,-12,-2
1526905393820107,-5,-28,-10,-7,-7,-7,3,-3
1526905393841050,1,-1,-1,2,-22,-12,-2,4
1526905393841050,-1,16,4,-3,-5,-6,24,4
1526905393843046,-2,-11,-4,-8,18,21,-17,-6
1526905393843046,3,19,8,-2,-16,3,12,-8
1526905393855013,-7,-16,-10,-5,-68,-67,-33,-3
1526905393855013,-5,-12,1,8,83,66,20,19
1526905393863989,-2,-2,-3,1,-7,4,4,-10
1526905393863989,6,-13,-1,5,4,7,-6,0
1526905393878949,-2,-10,-11,-12,-16,-15,25,13
1526905393878949,-3,-9,-5,-15,-47,-23,-40,-8
1526905393879947,1,-8,-3,0,9,7,2,10
1526905393879947,-6,38,0,-6,-19,-22,-1,-5
1526905393900891,-1,12,2,-4,-3,11,2,0
1526905393900891,0,-6,6,13,11,7,12,0
1526905393902885,1,-23,-9,-3,0,-19,0,-3
1526905393902885,-1,-15,2,-6,22,8,-10,0
1526905393914853,2,5,0,7,32,20,-6,2
1526905393914853,-1,15,-2,-4,-37,-6,-3,-4
1526905393923830,-4,-11,0,5,-38,-10,-4,-4
1526905393923830,0,-5,-7,-3,25,-16,5,1
1526905393938789,-2,0,11,2,31,36,20,7
1526905393938789,4,4,-3,5,32,-7,-26,-10
1526905393939787,-7,12,11,3,-6,5,4,-7
1526905393939787,1,-25,-18,-9,-19,5,-6,-1
1526905393960731,-8,5,7,-10,-79,-26,5,2
1526905393960731,2,11,-7,17,28,18,-7,-11
1526905393962725,5,37,10,-17,90,23,28,12
1526905393962725,-6,-12,-2,0,-44,-6,-61,-22
1526905393974693,2,-19,-11,3,36,9,3,7
1526905393974693,-6,-7,-3,-10,-64,-23,7,2
1526905393983669,2,-13,-6,3,2,5,-2,5
1526905393983669,3,7,6,4,0,-19,6,4
1526905393998629,-1,2,-5,-10,-13,-10,-10,-9
1526905393998629,-5,1,8,1,-15,-11,-9,-1
1526905394000624,4,-1,6,19,63,50,2,-11
1526905394000624,-1,-10,-6,-5,-28,-21,4,2
1526905394020571,-4,-2,-4,0,4,9,-10,-6
1526905394020571,-5,-7,-3,-10,-37,-31,29,5
1526905394022566,3,0,2,-5,24,6,-22,7
1526905394022566,2,31,20,18,33,43,29,-24
1526905394034533,0,1,-6,4,1,-11,-12,1
1526905394034533,2,-7,-10,-10,-12,-9,5,8
1526905394043509,-4,-17,-8,5,-39,-22,1,0
1526905394043509,2,-15,4,-4,-2,-7,4,14
1526905394058469,-1,-6,11,0,14,18,10,-4
1526905394058469,-3,-4,-5,-2,3,-7,2,3
1526905394060465,3,21,7,6,-25,-4,-5,-7
1526905394060465,5,-12,-10,0,3,6,7,12
1526905394081408,-9,-4,-2,-6,-1,-4,-5,-6
1526905394081408,-3,-18,-2,9,-3,-14,-15,-11
1526905394082406,-2,17,6,-7,-9,1,19,-3
1526905394082406,-2,-5,-7,-9,22,27,11,5
1526905394094373,4,0,2,-5,37,-15,-9,-4
1526905394094373,4,-7,-6,7,25,31,0,4
1526905394103349,-13,5,4,-4,-25,-7,0,-12
1526905394103349,2,-7,1,7,-28,-26,-20,4
1526905394118309,1,-8,-5,2,-9,5,-11,-6
1526905394118309,-4,-34,-9,-10,-17,-31,-3,-10
1526905394120304,4,27,6,0,32,43,11,8
1526905394120304,-7,-15,-7,-6,-13,-14,-1,5
1526905394141248,3,25,6,-1,-20,-11,-7,-2
1526905394141248,-5,-13,10,0,-16,-12,-2,5
1526905394142246,1,-8,-13,5,20,15,0,1
1526905394142246,3,6,3,-10,29,9,13,-2
1526905394154213,-1,-11,-9,-4,-27,3,1,-1
1526905394154213,1,10,1,-9,2,-2,-11,-22
1526905394163189,2,-17,-1,6,-24,-22,-19,8
1526905394163189,-6,-2,-9,2,-15,-15,-10,2
1526905394178149,-1,-14,-2,4,12,-5,-2,-8
1526905394178149,3,36,-1,-8,-32,-3,10,8
1526905394180144,6,-6,-3,1,-42,15,22,-3
1526905394180144,2,-8,-1,5,90,23,-11,-6
1526905394201088,-1,12,7,6,22,4,12,-6
1526905394201088,-5,-1,-2,6,20,14,-21,-2
1526905394203083,-3,-22,4,-4,-24,-36,6,-5
1526905394203083,-4,27,8,3,-44,-14,16,12
1526905394215051,-7,-8,-13,-6,-20,15,24,-2
1526905394215051,2,5,1,-3,41,8,-21,1
1526905394224027,2,-21,-4,-6,-7,-2,-9,3
1526905394224027,-3,5,0,2,-54,-22,-2,-11
1526905394238987,-6,5,1,-11,16,-10,-15,6
1526905394238987,0,18,1,9,42,25,9,-2
1526905394239984,4,10,-2,-10,-43,-29,-2,-1
1526905394239984,0,0,2,3,58,16,8,-5
1526905394260928,3,-1,-8,-12,-40,-13,-3,5
1526905394260928,7,28,16,6,14,-8,-26,-5
1526905394262923,-2,9,-2,-12,0,6,-6,-10
1526905394262923,-4,-49,5,2,-23,8,6,3
1526905394274890,-3,-9,-2,6,15,6,-1,9
1526905394274890,2,-3,3,-2,-15,4,25,8
1526905394283867,-6,14,-12,-5,0,-17,-18,-12
1526905394283867,1,6,5,-3,2,-10,8,6
1526905394298826,-5,-9,3,13,44,-19,-24,-10
1526905394298826,-3,3,-5,-12,-13,13,24,12
1526905394299824,-3,-1,2,7,68,-14,-2,4
1526905394299824,3,22,-8,-7,-32,-52,-10,-2
1526905394320768,-4,-15,-1,10,8,-10,12,-4
1526905394320768,-7,2,-4,6,-64,-66,-25,-3
1526905394322763,3,-9,-5,-14,43,51,19,2
1526905394322763,-1,-8,-9,-5,-41,4,13,1
1526905394334730,2,13,-1,-8,-62,-17,-49,-10
1526905394334730,-3,-11,-6,13,24,47,3,2
1526905394343707,-1,-9,-3,4,55,33,-7,2
1526905394343707,1,22,-1,1,-27,-12,3,-1
1526905394357669,2,-20,-3,-6,-2,38,8,-4
1526905394357669,-4,7,9,-7,-34,-10,-1,-2
1526905394364650,2,16,0,8,-18,-1,-2,5
1526905394364650,-2,-15,-7,1,18,11,-5,6
1526905394380608,4,11,-5,-7,-21,-19,-1,0
1526905394380608,6,2,4,-4,-1,15,4,-11
1526905394382603,2,-21,2,7,-6,-11,0,1
1526905394382603,-2,-1,7,17,13,14,-2,-10
1526905394394570,6,5,-3,-3,41,40,20,9
1526905394394570,-1,-1,3,11,36,1,12,-1
1526905394403547,-3,-5,-3,-22,-69,-31,-20,0
1526905394403547,-1,-4,-10,-7,-2,-5,-2,1
1526905394417509,5,-3,8,7,-3,-4,10,-4
1526905394417509,-2,-4,-5,-2,31,9,5,5
1526905394424490,0,-1,6,6,-26,-18,3,-18
1526905394424490,-6,-16,3,-8,-17,-16,-11,-5
1526905394441445,-3,10,1,-3,14,29,8,4
1526905394441445,4,5,-1,-6,4,-5,-3,11
1526905394442443,-3,-1,-2,6,-21,-5,11,4
1526905394442443,2,-1,-6,-9,21,-3,0,1
1526905394454410,-1,17,3,-4,-38,-13,-2,-2
1526905394454410,0,-11,-3,0,41,20,8,-8
1526905394463386,-1,11,-1,0,-27,-18,-10,6
1526905394463386,7,8,-1,-9,-32,-24,-17,4
1526905394477349,-10,-6,-2,7,32,21,-2,4
1526905394477349,1,0,-3,-3,-12,13,24,2
1526905394486325,-1,2,-1,6,42,0,-21,3
1526905394486325,0,-2,-4,2,-7,1,-20,-9
1526905394501285,5,6,4,0,-3,0,18,2
1526905394501285,1,-5,-5,-9,-13,-7,-18,-5
1526905394502282,-2,-10,1,4,4,5,14,-2
1526905394502282,-3,1,3,11,28,10,6,5
1526905394514250,-3,-28,-4,-9,-37,-27,11,-2
1526905394514250,2,64,15,5,5,19,-4,5
1526905394523226,3,-5,-6,1,27,2,-3,-6
1526905394523226,-1,-10,0,-2,-28,-7,-5,-1
1526905394538186,-4,-6,-2,7,17,7,7,-11
1526905394538186,1,-16,-7,-13,-42,-34,-3,11
1526905394544170,-7,1,-2,0,29,25,19,-3
1526905394544170,-1,11,2,5,34,11,3,2
1526905394561125,0,8,1,12,25,4,-15,-2
1526905394561125,-7,-25,-5,-11,-30,-19,1,-3
1526905394563120,2,5,-1,-3,-21,-8,-22,-1
1526905394563120,-2,-7,-3,1,10,-6,2,0
1526905394583066,1,1,-4,-11,-38,-13,-14,3
1526905394583066,2,-4,-2,1,38,-2,-10,-6
1526905394585061,1,4,2,3,-6,11,12,0
1526905394585061,-7,-11,-12,0,-8,4,2,-5
1526905394598026,4,27,17,6,33,4,4,0
1526905394598026,1,-2,1,2,-59,-20,-11,-7
1526905394605008,1,-35,-7,9,51,16,16,6
1526905394605008,-2,33,5,-4,-14,1,-7,-6
1526905394620965,-1,12,-2,-8,0,-8,-3,1
1526905394620965,-5,-20,-3,-5,-25,-9,-1,-8
1526905394622960,-3,-10,1,-1,-16,-13,-3,-5
1526905394622960,4,4,-4,0,1,6,11,6
1526905394643904,2,-10,-5,11,-13,3,-14,-8
1526905394643904,-2,9,1,-6,45,3,1,2
1526905394644901,2,19,1,4,-33,-16,-17,-3
1526905394644901,-2,-9,-3,-3,-10,-3,-3,-7
1526905394657866,-6,2,-3,-4,-15,-8,15,5
1526905394657866,-2,-13,-4,6,23,16,-28,-13
1526905394664847,-1,13,0,-10,14,-10,0,1
1526905394664847,-1,-3,7,13,7,9,-4,2
1526905394680805,4,-14,-13,-20,7,5,14,0
1526905394680805,-4,11,14,14,-8,-7,9,5
1526905394682800,-5,17,-2,-25,-57,6,4,-3
1526905394682800,-1,-34,-8,-4,77,18,-12,-6
1526905394703743,0,0,11,4,-16,-9,17,11
1526905394703743,-1,-6,-11,-6,-10,-3,2,-3
1526905394704741,3,-9,3,4,-20,-16,-5,8
1526905394704741,-9,-2,7,-7,-5,4,5,-6
1526905394716709,-2,-12,-12,-10,-52,-30,-13,-1
1526905394716709,-2,-15,1,10,91,47,20,0
1526905394726682,3,10,5,9,-3,-13,2,8
1526905394726682,10,12,-1,-3,-5,7,9,7
1526905394740645,-8,-18,-7,1,18,6,-13,-5
1526905394740645,1,54,9,-9,-40,-14,9,-1
1526905394742640,2,-4,0,0,5,-4,12,-8
1526905394742640,2,-11,-5,6,19,-9,-2,2
1526905394763583,-7,6,5,1,-23,-1,-15,-8
1526905394763583,-1,-19,-9,-18,-17,-15,11,3
1526905394765579,-2,7,2,2,21,-2,-46,-7
1526905394765579,2,10,-7,-12,-31,30,6,5
1526905394777546,3,-17,-6,9,30,-5,8,8
1526905394777546,-7,-19,-1,11,7,11,5,-3
1526905394786522,2,12,-4,-9,-23,-2,3,5
1526905394786522,-8,0,3,-6,-66,-31,-18,-13
1526905394801482,6,2,0,11,52,12,-12,11
1526905394801482,-5,2,-8,-17,-25,-4,-7,-7
1526905394802480,-3,-43,-14,-3,9,-17,-2,3
1526905394802480,-3,34,18,6,8,16,19,5
1526905394823424,4,20,4,-2,53,29,8,3
1526905394823424,5,-6,-10,0,-21,-24,-4,6
1526905394825418,-8,0,5,-12,-70,-31,-14,-7
1526905394825418,0,-5,0,3,59,55,12,-1
1526905394837386,-4,-9,-1,-4,-11,-19,-22,-5
1526905394837386,2,-1,0,3,-60,-28,2,2
1526905394846362,4,11,6,8,54,29,12,0
1526905394846362,1,-13,-3,1,-15,-23,-19,11
1526905394861322,1,4,3,2,-10,-2,-13,-17
1526905394861322,-2,11,-2,15,36,25,3,15
1526905394862320,1,-7,-4,-16,-27,-6,12,0
1526905394862320,3,5,3,5,-20,-32,3,3
1526905394883263,-7,11,-5,-1,40,24,25,-2
1526905394883263,0,-17,0,-9,-24,-23,-15,-3
1526905394885259,-2,1,-6,7,21,17,4,-8
1526905394885259,8,1,-8,-3,-3,-16,-5,-8
1526905394897226,-1,-16,-9,-2,-56,-6,10,4
1526905394897226,-4,2,19,6,75,31,15,1
1526905394906202,2,10,-5,0,-4,2,-19,-3
1526905394906202,1,-13,-9,-13,-25,-24,-8,-4
1526905394921162,-5,4,1,3,-27,-6,11,-15
1526905394921162,0,-23,-10,2,32,6,-31,-3
1526905394922160,2,1,2,4,19,13,10,0
1526905394922160,1,0,-2,-5,-23,5,-7,4
1526905394943103,5,16,15,-1,13,-11,23,15
1526905394943103,-4,-5,-15,-6,26,24,11,-5
1526905394945099,-1,2,5,2,-35,-9,-14,1
1526905394945099,-1,-24,-10,-3,41,7,-13,-7
1526905394957066,-4,-10,4,-2,-30,-10,-13,-7
1526905394957066,-4,15,19,3,-1,2,9,-3
1526905394966042,-3,6,-1,0,-14,-20,13,7
1526905394966042,-5,1,-2,0,22,19,15,-4
1526905394981002,-6,-19,-12,-17,-41,-18,-18,4
1526905394981002,5,1,-2,-3,25,-12,-11,-2
1526905394982997,7,4,10,8,74,58,46,9
1526905394982997,-5,-6,2,5,18,-1,-29,-3
1526905395003941,7,34,-2,-6,-7,-1,13,6
1526905395003941,-6,-13,-4,-10,-84,-50,-24,-5
1526905395004938,0,5,0,-4,11,-4,1,-5
1526905395004938,-2,3,2,-10,-50,6,26,12
1526905395016906,2,2,-8,11,96,14,-25,-8
1526905395016906,1,-15,-10,-7,-56,-25,6,-2
1526905395025882,7,2,12,13,43,41,-20,6
1526905395025882,-4,9,-5,12,-10,-4,-11,-3
1526905395040842,0,5,0,-2,-25,-4,3,5
1526905395040842,3,-3,4,3,7,8,9,3
1526905395042837,-9,0,-12,-14,-51,-44,-9,-11
1526905395042837,-7,25,1,2,4,-11,12,9
1526905395063781,-1,-13,-2,5,13,19,-27,-8
1526905395063781,3,-16,-2,-5,-33,-36,13,12
1526905395064778,-2,-36,-2,-3,26,14,-21,3
1526905395064778,-3,-19,0,-2,0,-2,-32,-12
1526905395077743,-2,21,14,18,62,21,10,6
1526905395077743,7,19,7,-1,-6,18,11,-2
1526905395085722,-6,-30,-19,-2,-35,-28,-3,4
1526905395085722,-3,17,9,4,-17,-13,11,-1
1526905395100682,-2,-22,-5,-15,2,-14,2,2
1526905395100682,3,18,-19,-6,-44,1,-24,-14
1526905395102677,1,-23,8,7,47,19,17,6
1526905395102677,-1,2,-7,-13,-50,-13,-21,-18
1526905395123621,0,1,16,26,41,34,22,0
1526905395123621,-9,-22,-3,4,45,21,8,-6
1526905395125615,-1,14,-7,-8,-25,-23,-25,-3
1526905395125615,4,11,-2,-2,22,9,-12,-1
1526905395137583,1,-26,-1,-4,-45,-39,-7,-1
1526905395137583,-4,2,-4,-14,-12,14,-4,1
1526905395146559,1,34,12,14,30,4,32,-6
1526905395146559,1,-38,-12,-13,-40,-45,-58,-4
1526905395161519,-4,17,5,-1,27,45,8,1
1526905395161519,-9,-36,-16,-3,17,-14,-4,3
1526905395162517,2,43,1,4,-53,14,-6,4
1526905395162517,8,4,-3,12,83,20,38,18
1526905395183460,-4,-23,-7,-12,-26,-8,20,-9
1526905395183460,-4,-10,-5,17,14,-27,-29,3
1526905395185456,-1,10,2,-18,-27,16,8,1
1526905395185456,-10,-12,-6,2,-39,-7,10,-3
1526905395197423,4,4,-7,-4,54,-9,-9,-1
1526905395197423,5,23,7,-4,-46,-7,13,4
1526905395206399,-4,-39,-7,7,29,-22,10,5
1526905395206399,10,41,18,25,69,65,20,11
1526905395221359,-8,-8,-12,-20,-72,-43,-21,-36
1526905395221359,1,-14,7,2,-25,-13,-7,18
1526905395222357,6,22,2,3,58,29,8,-10
1526905395222357,-5,-16,-3,-11,-11,-14,-1,-11
1526905395243301,-3,-5,1,2,-21,-1,-4,0
1526905395243301,-1,1,-12,-3,-9,-17,-7,-15
1526905395245296,-3,-2,-1,-3,-41,3,-18,6
1526905395245296,6,-16,1,1,4,8,28,1
1526905395257263,-5,4,-3,-8,-2,-2,-18,-2
1526905395257263,8,12,-1,11,63,35,2,2
1526905395266240,-1,8,4,-2,-10,0,24,5
1526905395266240,2,-13,-11,-7,-42,-8,-36,-12
1526905395281199,4,26,4,17,37,-1,1,6
1526905395281199,-1,1,3,-13,-33,-7,-15,-7
1526905395282197,-1,-14,-9,-9,-11,-17,-6,-2
1526905395282197,-4,4,5,-4,-63,-31,-39,-1
1526905395303141,-5,3,-5,3,49,13,65,24
1526905395303141,3,34,23,22,100,100,14,7
1526905395305136,0,-15,-12,-4,-56,-34,-11,-31
1526905395305136,-3,1,10,-12,24,-4,12,29
1526905395317103,-5,2,1,-1,-25,-16,-6,-32
1526905395317103,-3,15,-3,-14,-26,-26,38,15
1526905395326079,-2,-5,-1,-6,-16,0,-44,-1
1526905395326079,-4,-16,8,9,6,-17,33,17
1526905395340042,7,24,4,6,-54,-2,-37,-5
1526905395340042,1,23,7,-3,80,36,30,-5
1526905395347023,10,-15,4,3,8,-10,1,10
1526905395347023,-8,-11,-11,-9,3,17,33,-16
1526905395363978,4,42,6,17,21,12,-50,4
1526905395363978,-3,-17,-3,-3,-51,-36,-24,-37
1526905395364975,-2,6,-7,-19,-40,-22,6,12
1526905395364975,6,26,12,2,33,25,-2,9
1526905395376943,-7,-37,-22,-19,-25,-5,-4,-5
1526905395376943,0,-9,6,17,21,5,6,-13
1526905395385919,-4,11,0,-10,28,3,-4,-4
1526905395385919,0,-4,2,13,-64,-39,-1,-13
1526905395399882,-5,-24,-8,0,52,29,-1,6
1526905395399882,-2,-5,-14,2,-8,-16,25,14
1526905395406863,1,-9,2,2,-29,-3,19,-2
1526905395406863,-5,-1,5,2,50,3,-32,-19
1526905395423818,13,9,7,-6,-6,19,19,7
1526905395423818,-8,5,-17,-5,-12,-17,-36,5
1526905395424815,-2,-1,0,-4,-6,-17,13,-12
1526905395424815,-6,-21,-13,-5,-31,-5,4,2
1526905395436783,1,-16,4,4,38,4,-22,-7
1526905395436783,5,-1,-1,-13,5,0,37,11
1526905395445759,0,9,3,16,36,32,-46,7
1526905395445759,2,8,-6,-11,-2,-13,-13,-4
1526905395460719,-5,-10,2,-1,-40,-22,-17,-9
1526905395460719,6,7,3,7,-36,-39,-8,7
1526905395467700,-5,-10,-6,-6,42,66,45,0
1526905395467700,3,12,-2,8,19,5,6,-12
1526905395483657,-6,-9,-18,-27,-125,-52,-44,-9
1526905395483657,-3,-41,17,20,101,50,11,10
1526905395485653,-1,33,-6,6,-21,-34,-29,-7
1526905395485653,2,10,13,12,41,18,16,-6
1526905395497620,1,-10,-6,-5,-36,-17,-2,4
1526905395497620,-1,-3,-2,-5,-20,-29,-19,-6
1526905395506597,1,9,3,1,-12,11,-21,4
1526905395506597,-3,-10,-7,1,10,-4,-3,-6
1526905395520559,-13,-33,18,10,-6,-13,-2,4
1526905395520559,5,21,4,-8,56,55,3,-17
1526905395527540,-4,-29,1,5,1,-30,18,3
1526905395527540,2,24,-4,-10,-16,8,-20,-5
1526905395543498,0,-12,-6,-13,-19,1,46,18
1526905395543498,-5,-7,-11,-10,-77,-24,-18,-12
1526905395545493,2,-2,-2,13,105,22,-9,-1
1526905395545493,-5,-12,-6,-16,-33,-31,3,7
1526905395566436,-3,9,-1,-5,-55,-38,32,-2
1526905395566436,4,-1,6,11,68,92,10,5
1526905395567434,-1,11,5,4,-7,-13,38,4
1526905395567434,-1,-4,-4,-8,-16,-6,-40,0
1526905395580399,7,23,-2,-6,29,3,11,8
1526905395580399,-13,-48,-16,-12,-85,-55,-24,-5
1526905395587380,7,49,4,-10,-33,-10,1,-4
1526905395587380,-7,-10,-9,4,65,28,-28,-18
1526905395603338,0,11,15,13,22,18,-15,-6
1526905395603338,-1,5,-5,-5,-26,-21,-8,0
1526905395605333,-6,-13,1,5,-44,-13,-16,4
1526905395605333,7,4,-5,-6,-5,-11,14,9
1526905395626276,2,29,12,13,65,58,0,0
1526905395626276,-2,-5,0,9,62,18,21,6
1526905395627274,-1,-21,-5,-5,-33,-12,-25,-14
1526905395627274,-1,10,-2,-15,-40,-16,17,11
1526905395639242,-2,-14,-7,-14,-57,-14,15,14
1526905395639242,-3,8,8,8,19,14,3,-2
1526905395649215,3,11,3,1,36,0,8,-5
1526905395649215,1,4,-1,-1,-55,-27,12,-7
1526905395663178,-6,-22,-19,-9,6,-12,-69,2
1526905395663178,-1,4,17,-3,7,32,13,2
1526905395665173,7,-15,-13,1,26,-3,-10,4
1526905395665173,-17,17,27,26,65,62,33,-6
1526905395686116,5,-23,-12,-2,-22,-23,5,-4
1526905395686116,2,-2,-7,-12,-46,-38,-6,7
1526905395688111,1,-12,-4,-8,-40,-24,-70,-9
1526905395688111,5,9,10,-9,-30,13,2,9
1526905395700079,-3,-26,-14,9,93,32,30,8
1526905395700079,-11,1,-1,-2,-28,-24,-10,-3
1526905395709055,-8,-36,-4,5,0,6,26,4
1526905395709055,2,25,-4,-4,-3,-28,-2,-5
1526905395723017,3,6,4,6,1,-13,-41,-3
1526905395723017,5,2,-7,0,18,59,12,8
1526905395725012,-9,2,0,-8,-11,-24,0,5
1526905395725012,-2,-22,-6,15,-26,10,4,6
1526905395745956,1,11,3,-19,7,3,39,1
1526905395745956,8,63,2,-1,-39,-29,-3,3
1526905395747951,-6,-18,-8,-1,-4,-7,5,-15
1526905395747951,-2,-35,-14,3,21,13,16,15
1526905395759919,-1,2,9,2,-8,-3,3,6
1526905395759919,3,9,-4,-8,-49,-42,-33,-18
1526905395768895,0,-1,-4,1,51,25,14,-9
1526905395768895,1,-12,-6,-2,-17,23,33,14
1526905395783855,1,-21,-11,-8,-1,-32,-42,-10
1526905395783855,-10,-11,9,-6,-23,-7,-8,-9
1526905395784852,0,-8,4,9,53,23,4,4
1526905395784852,2,-1,-2,9,-23,-28,-18,-6
1526905395805796,-3,41,-6,-24,-37,-5,4,2
1526905395805796,9,0,3,7,38,6,6,10
1526905395807791,3,22,-3,-15,-51,-10,-2,4
1526905395807791,-5,-10,10,8,27,26,23,5
1526905395819759,-1,-14,-4,8,-16,-13,-20,-24
1526905395819759,-2,-13,-17,-12,-33,-21,-13,-12
1526905395828735,1,14,15,8,2,21,17,-1
1526905395828735,4,4,-11,-13,-15,-28,-3,6
1526905395843695,-11,-23,-2,10,28,9,48,-13
1526905395843695,8,-11,-4,11,70,68,12,9
1526905395844692,-3,32,-3,9,52,6,6,7
1526905395844692,-3,-15,4,-6,4,-7,-17,-11
1526905395865636,2,26,5,-2,-52,-23,11,7
1526905395865636,-1,-7,1,0,-21,-25,14,-6
1526905395867631,0,-7,-3,-3,28,25,56,16
1526905395867631,3,8,-4,-12,-16,-17,-48,-14
1526905395879599,-4,8,-6,8,37,30,7,-2
1526905395879599,2,22,32,5,-18,-27,-2,-4
1526905395888575,-4,-13,-5,-2,-62,-10,-33,8
1526905395888575,-4,-30,-10,-5,20,-9,15,-4
1526905395903535,4,33,23,30,97,77,7,-5
1526905395903535,0,-2,0,3,3,-12,13,13
1526905395905530,-3,3,2,-6,-17,-10,-13,-15
1526905395905530,-2,-22,-7,-14,-53,-65,-9,1
1526905395926473,2,-1,-1,5,40,65,5,7
1526905395926473,-6,-14,5,-4,-7,-12,1,-3
1526905395927471,5,6,-1,-9,-47,-9,-8,-1
1526905395927471,-15,-2,-4,6,29,15,10,-1
1526905395939439,3,5,2,-8,-60,-42,-3,-8
1526905395939439,-3,-5,-2,-1,-11,-14,-15,-6
1526905395948415,1,-18,-4,15,43,27,42,5
1526905395948415,7,3,1,-10,11,20,11,-8
1526905395963375,-8,-32,-9,-2,0,-1,-33,-7
1526905395963375,4,15,-11,-6,-7,-2,-5,6
1526905395965370,-7,-29,4,-4,-47,-27,-22,-14
1526905395965370,-7,-5,-8,2,-37,-19,20,2
1526905395986314,-9,-14,-1,6,47,16,22,8
1526905395986314,4,-6,-15,-23,-39,-9,3,-7
1526905395987311,4,2,1,-3,39,33,12,14
1526905395987311,4,23,9,11,-16,-10,-22,-16
1526905395999279,0,-15,0,-8,21,1,-12,9
1526905395999279,-6,-4,-10,1,-7,-5,-10,9
1526905396008255,-4,-1,2,3,-19,-18,0,-17
1526905396008255,2,0,3,-13,-28,-13,4,-5
1526905396023215,-1,12,-10,-5,-22,-10,-16,-6
1526905396023215,-2,-13,6,18,37,29,9,-7
1526905396025210,6,-8,-5,0,-12,-15,-14,8
1526905396025210,-3,5,-7,-14,-2,9,-44,-1
1526905396046153,4,45,21,32,59,20,41,0
1526905396046153,4,3,-2,-7,13,7,-7,-7
1526905396048148,-5,20,5,0,-22,-19,-26,-22
1526905396048148,-2,-23,-1,8,5,11,6,14
1526905396060116,-4,-2,7,-14,-65,-30,31,8
1526905396060116,-5,-1,-7,-4,-17,-10,-28,-13
1526905396069092,4,13,2,1,27,9,4,11
1526905396069092,-2,1,6,7,30,-11,4,-6
1526905396083055,0,2,-7,-14,-51,4,6,0
1526905396083055,6,27,10,14,94,47,2,12
1526905396085050,3,-13,-7,1,16,-12,-20,10
1526905396085050,2,9,2,-7,3,38,23,-20
1526905396105994,3,-22,-6,6,-14,-31,-24,2
1526905396105994,-7,-8,-6,-20,-68,-42,-33,-7
1526905396107988,1,-2,2,3,-15,2,-19,14
1526905396107988,4,10,-3,3,16,1,-3,-2
1526905396119956,-3,20,9,3,18,-2,20,-3
1526905396119956,-2,-19,-9,-4,-25,-4,7,-7
1526905396128932,-3,14,0,-6,14,-1,6,-8
1526905396128932,0,-19,-4,0,-7,-5,-5,10
1526905396143892,1,-30,-6,1,-41,-12,-4,8
1526905396143892,-6,1,-2,-8,41,0,7,-11
1526905396144890,5,0,1,0,-20,8,9,8
1526905396144890,-1,1,-2,2,-8,13,-14,-3
1526905396165833,0,-4,-5,-9,45,17,31,3
1526905396165833,0,0,5,9,-33,-23,9,-5
1526905396167828,-3,-16,-12,-8,-27,-6,23,-2
1526905396167828,5,8,4,6,17,8,-4,-3
1526905396179796,-4,-14,-6,-10,-47,-22,-7,-13
1526905396179796,1,16,-2,0,-15,-34,-22,6
1526905396188773,0,0,8,-6,57,29,24,-18
1526905396188773,-2,-13,-2,13,4,11,-2,18
1526905396203732,1,15,-1,-2,25,-10,-38,-2
1526905396203732,-2,-10,-3,-3,-37,6,13,-2
1526905396205727,-1,9,0,6,0,-11,-22,-5
1526905396205727,-2,-4,-1,-6,-1,-4,5,3
1526905396225673,3,-1,-4,4,-5,6,-5,1
1526905396225673,-2,-11,0,2,31,12,-12,10
1526905396227668,-7,3,1,-4,-29,-26,-24,-11
1526905396227668,-2,1,0,6,14,17,2,4
1526905396239636,-2,-9,-6,-14,-27,0,53,-1
1526905396239636,4,6,-1,15,69,20,-23,1
1526905396248612,0,2,7,0,13,5,3,-7
1526905396248612,-1,-5,3,6,-5,-1,2,-4
1526905396262575,-4,2,-2,-16,-47,-18,-18,-3
1526905396262575,-1,-17,-1,11,35,8,16,0
1526905396269556,2,14,-4,2,-22,-11,-18,-1
1526905396269556,-4,-19,-5,-18,-35,-45,-8,-5
1526905396286511,-3,-15,-6,3,15,10,-7,2
1526905396286511,1,-16,1,14,21,35,27,12
1526905396288505,-3,21,3,-14,-32,-27,-4,-13
1526905396288505,7,13,4,12,12,34,3,13
1526905396299476,-8,-29,-5,-10,23,5,6,-7
1526905396299476,-4,9,0,-7,-52,-21,-22,-12
1526905396308452,-1,-5,-5,1,16,10,12,-1
1526905396308452,3,23,-1,-3,-11,-9,7,3
1526905396322414,1,-6,-2,5,8,-8,-5,0
1526905396322414,4,2,-1,-9,-33,-18,6,2
1526905396329396,-5,0,4,10,-3,1,-5,0
1526905396329396,-1,-3,-9,-15,5,7,-1,11
1526905396346350,2,29,-1,3,-18,2,-22,-15
1526905396346350,-1,-10,1,1,27,0,10,2
1526905396347348,0,-26,-1,-3,-29,-10,3,8
1526905396347348,-1,2,0,5,52,6,4,-11
1526905396359316,2,15,5,3,-33,-22,-12,0
1526905396359316,1,-1,-2,2,21,31,25,8
1526905396368292,-2,-2,-7,-10,-20,-10,-30,1
1526905396368292,1,5,7,-6,29,27,19,-13
1526905396383252,2,-12,0,12,59,15,-1,12
1526905396383252,-3,8,4,-7,-36,-20,-29,0
1526905396389236,0,1,1,-3,-47,-21,10,-12
1526905396389236,0,0,-8,-1,-5,-2,-6,4
1526905396406191,-4,-4,5,-2,-23,-8,-20,-6
1526905396406191,-1,-2,-1,0,-8,0,15,-3
1526905396407188,1,-2,-9,-1,9,7,10,6
1526905396407188,2,10,8,12,7,-14,-22,2
1526905396420153,1,5,-4,-20,-24,13,20,4
1526905396420153,2,-9,-8,-3,-8,-19,-12,-13
1526905396429130,-2,8,2,-17,-58,10,10,10
1526905396429130,-1,-3,4,24,101,54,43,-8
1526905396443092,-2,0,-5,0,-34,-19,-29,-7
1526905396443092,-1,-8,-3,-8,-29,-22,-12,-2
1526905396450073,9,20,-4,-6,-5,-4,39,6
1526905396450073,-4,-17,-1,-9,-49,-29,-43,-8
1526905396466030,-3,-5,2,14,48,17,11,8
1526905396466030,5,25,-1,10,-15,-4,-5,-9
1526905396468025,-6,-23,-3,-7,49,33,23,3
1526905396468025,0,4,-1,-1,2,3,-2,9
1526905396488969,8,24,7,0,-17,-8,1,-9
1526905396488969,-6,-8,8,-3,6,0,1,-5
1526905396489967,-1,-11,-10,10,14,-1,-20,4
1526905396489967,-4,0,3,-13,-79,-31,-6,-11
1526905396502932,-2,-3,2,7,84,32,3,13
1526905396502932,3,1,-3,1,-17,-5,-3,3
1526905396509913,3,-13,0,15,47,41,6,-2
1526905396509913,-3,32,6,-3,-26,-12,9,0
1526905396525870,-5,-31,-10,-13,-50,-31,-17,-14
1526905396525870,4,22,-1,-8,2,0,1,10
1526905396527865,-3,-11,-3,-8,-3,-15,-15,-1
1526905396527865,-8,-5,-4,0,-3,-13,24,-2
1526905396548809,5,7,3,8,34,15,-4,-7
1526905396548809,-6,-24,-4,0,-1,-2,9,8
1526905396549807,1,11,6,-9,-34,-19,-39,-1
1526905396549807,-2,-8,-7,-6,-12,-5,6,-2
1526905396562772,-3,-11,-8,2,-11,5,11,5
1526905396562772,0,3,3,5,83,44,9,-16
1526905396569753,2,3,-1,-2,-55,-39,-13,-6
1526905396569753,3,11,7,11,39,37,-9,3
1526905396585710,-3,11,7,-4,-42,-32,-7,10
1526905396585710,-5,-13,-8,-9,-18,-9,0,10
1526905396587705,-5,3,0,6,17,4,-12,-9
1526905396587705,2,2,-9,2,9,-7,2,5
1526905396608649,2,5,-2,0,4,8,-1,13
1526905396608649,-2,-10,5,-7,-31,-6,11,-1
1526905396610644,-3,40,12,8,33,-7,3,1
1526905396610644,-7,-43,-7,-6,-4,13,-19,3
1526905396622612,4,46,12,9,-1,4,32,-4
1526905396622612,3,-10,-5,1,22,7,-12,8
1526905396631588,-2,-36,5,-2,-37,-7,8,7
1526905396631588,-2,12,5,0,-7,-15,24,-9
1526905396645550,2,-3,-5,6,35,25,-5,-2
1526905396645550,-3,12,-6,-12,-37,-11,0,14
1526905396647546,1,-4,3,3,13,2,18,0
1526905396647546,6,-3,-5,-9,-17,-17,-76,5
1526905396668489,-15,-26,-4,4,13,8,3,-7
1526905396668489,5,18,1,-1,-14,5,-1,-2
1526905396670484,-4,-31,-3,8,26,8,8,-16
1526905396670484,4,36,11,-18,-39,-11,11,10
1526905396682452,-3,-21,-6,-6,-7,-18,-23,-15
1526905396682452,3,4,2,0,-17,-5,-8,-4
1526905396691428,-2,-15,-6,6,0,-14,2,3
1526905396691428,4,-4,-9,5,50,51,27,-8
1526905396706388,2,7,5,-1,-10,-16,-22,8
1526905396706388,-6,-6,11,-4,-12,1,14,-10
1526905396707385,3,1,-6,-9,9,-14,-6,-1
1526905396707385,-8,-24,-8,-10,-63,-18,18,10
1526905396728329,6,-20,-4,20,68,28,-67,-21
1526905396728329,-8,3,5,5,12,-8,15,12
1526905396730324,2,12,-16,-9,-26,7,0,-9
1526905396730324,1,-7,3,1,16,-17,-8,12
1526905396742292,4,-3,-3,-3,-58,-17,13,5
1526905396742292,1,-14,-10,-5,12,4,-16,-4
1526905396751268,-5,24,2,6,13,10,4,-4
1526905396751268,0,-2,3,3,21,-7,4,-2
1526905396766228,-4,-15,-8,-9,-25,-8,29,3
1526905396766228,-2,4,2,1,-26,-13,-11,-11
1526905396767225,-1,-1,0,-8,5,6,20,17
1526905396767225,2,1,-1,11,13,6,-12,-20
1526905396788169,-2,8,-6,-5,36,2,1,-6
1526905396788169,-6,-20,-3,-3,1,5,2,0
1526905396790164,0,-19,-1,0,-13,-7,-45,10
1526905396790164,-5,-2,-7,-13,-57,-27,23,-7
1526905396802132,3,22,13,26,39,25,28,8
1526905396802132,5,3,-5,-5,58,23,-23,-1
1526905396811108,-1,-6,1,-3,-2,4,-10,-12
1526905396811108,-5,-10,-2,-5,-34,-18,-4,5
1526905396826068,-5,14,1,-12,-40,-20,20,-1
1526905396826068,2,1,-3,8,44,20,24,-4
1526905396828063,5,40,12,12,14,10,3,-1
1526905396828063,-2,-10,-2,-8,-39,-25,20,-1
1526905396849006,-3,-1,-1,-2,7,15,4,5
1526905396849006,4,-1,2,5,17,14,1,-6
1526905396850004,0,-5,0,2,42,21,-17,-13
1526905396850004,-6,4,0,8,16,-6,42,7
1526905396861971,-3,-32,-6,-29,-111,-25,-14,-4
1526905396861971,-6,27,-7,3,11,-15,-9,-7
1526905396870948,8,14,3,-6,-4,4,8,5
1526905396870948,1,-19,-2,8,19,14,-14,-1
1526905396885908,3,19,1,-1,14,-13,-13,-1
1526905396885908,-2,-15,-10,-5,-46,-11,-6,-12
1526905396887902,-1,3,-3,0,14,-3,20,9
1526905396887902,0,6,-2,9,31,21,-1,3
1526905396908846,-4,-1,-4,-21,-40,-26,-17,-22
1526905396908846,-3,-8,-2,9,-23,-6,4,-3
1526905396909844,3,5,8,6,65,30,-3,12
1526905396909844,-3,-12,-5,-6,23,12,7,-5
1526905396921811,3,6,2,10,11,-11,43,11
1526905396921811,2,-8,0,-14,-54,-7,-5,6
1526905396930788,-7,-18,-11,2,-10,-27,-8,-12
1526905396930788,-2,14,-6,-8,-23,1,-17,-6
1526905396945747,4,19,6,7,69,35,41,18
1526905396945747,-6,-34,-2,-5,-31,-30,-61,-19
1526905396947743,0,40,13,2,-21,-16,3,-32
1526905396947743,5,-3,-1,2,41,25,-8,7
1526905396968686,-1,-6,1,-4,-31,-21,-8,1
1526905396968686,0,-2,-5,-2,-1,9,34,21
1526905396970681,1,13,5,5,4,-1,-15,-10
1526905396970681,-3,5,-3,-5,-28,-22,-36,-13
1526905396982649,-8,-12,-1,12,0,0,-12,4
1526905396982649,0,9,2,-12,-4,2,17,11
1526905396991625,-9,-25,-13,7,-67,-6,19,4
1526905396991625,4,9,8,8,70,25,-41,-4
1526905397005588,7,-6,-3,-10,-15,1,5,0
1526905397005588,-5,10,4,11,1,-22,1,-5
1526905397007582,0,-14,-7,-11,-42,1,3,11
1526905397007582,-1,2,-1,17,52,18,7,10
1526905397028526,-2,-31,-5,-3,-13,1,-10,-18
1526905397028526,5,40,18,4,10,11,24,15
1526905397030521,-8,-26,-18,-15,-1,-10,2,-8
1526905397030521,4,20,18,5,-36,-17,-6,2
1526905397042489,0,3,7,-4,10,18,-19,-5
1526905397042489,2,1,7,8,24,-6,15,3
1526905397051465,-1,-16,-5,0,34,22,-8,7
1526905397051465,-2,-6,-3,1,-13,-9,6,3
1526905397066425,0,5,-6,-7,-11,-6,9,-2
1526905397066425,2,1,0,4,-5,0,-20,-5
1526905397067422,1,1,4,-8,-47,-19,6,4
1526905397067422,-5,-5,-7,-8,-22,-11,-27,-10
1526905397088366,3,11,8,27,89,36,-13,-5
1526905397088366,3,-7,-11,-17,-43,-8,4,2
1526905397090361,-7,-13,-9,-7,-20,-16,-1,11
1526905397090361,0,3,5,39,68,32,46,5
1526905397102329,-3,-5,-2,-5,-43,-29,-24,-22
1526905397102329,-1,-10,-9,-11,-17,-6,-13,-5
1526905397111306,0,-9,3,11,29,20,44,11
1526905397111306,2,23,-7,-29,-46,-19,-40,-10
1526905397125268,-4,4,-12,-3,-12,-5,8,16
1526905397125268,-4,-25,-8,-6,-1,-4,-9,-8
1526905397132249,2,18,16,-3,-42,-16,-1,-4
1526905397132249,-1,-7,-6,13,70,27,29,-3
1526905397148206,0,8,-1,-11,18,5,-21,6
1526905397148206,-3,2,-11,-17,-56,-28,8,-13
1526905397150201,2,-7,4,12,55,33,-22,6
1526905397150201,-3,-7,0,-4,-16,-1,-11,-17
1526905397162169,2,11,9,0,17,-3,12,8
1526905397162169,0,-3,3,-3,-9,-18,-33,4
1526905397171145,-2,-1,0,4,60,31,-10,-3
1526905397171145,1,1,-4,-6,-63,-35,-4,-3
1526905397186105,-12,-13,1,-18,-31,-7,6,-5
1526905397186105,0,30,2,6,-17,-10,22,0
1526905397188100,5,-10,-1,13,43,12,-63,-6
1526905397188100,-1,-16,-1,-11,-4,2,-1,-4
1526905397208046,-3,14,-13,-6,-17,-15,0,9
1526905397208046,4,8,27,12,35,33,0,-2
1526905397210041,0,5,-5,-8,-22,-19,16,6
1526905397210041,-6,-5,-6,-12,-34,-20,-13,-2
1526905397222009,5,-7,9,19,25,15,1,16
1526905397222009,-4,10,-9,-9,0,-14,-22,-11
1526905397230985,0,1,-2,-11,4,9,11,-3
1526905397230985,-1,3,-4,5,-3,-13,-15,0
1526905397244947,-2,-4,-8,-20,-41,-17,-1,-8
1526905397244947,7,-9,-7,14,54,42,-20,10
1526905397251929,-3,-3,-1,2,-2,-5,19,6
1526905397251929,-3,6,6,-3,-39,-3,27,-10
1526905397268883,-3,-20,-6,-5,-10,-28,-41,-12
1526905397268883,1,27,-2,-3,-15,0,20,2
1526905397269881,-3,-9,4,1,0,4,17,-3
1526905397269881,4,1,3,-3,8,6,33,32
1526905397281849,-7,-16,-6,7,-25,-4,-10,-25
1526905397281849,-2,-8,1,-8,13,7,14,-7
1526905397290825,2,24,-1,13,14,-5,-13,0
1526905397290825,-1,-15,-2,-12,6,14,9,7
1526905397305785,-2,-10,-2,5,29,7,4,-14
1526905397305785,0,-2,-4,-4,7,-2,6,8
1526905397311769,0,-16,-10,-12,-45,-23,-16,-12
1526905397311769,0,9,8,-4,-3,5,-15,3
1526905397328723,-5,5,-8,4,-12,1,13,-3
1526905397328723,-3,-8,9,10,17,13,30,0
1526905397329721,1,9,-9,-4,-20,-20,-65,-11
1526905397329721,4,-17,2,-9,-35,-24,13,0
1526905397342686,3,17,-5,8,36,21,8,16
1526905397342686,-4,-22,2,2,-10,6,24,-3
1526905397351662,4,3,5,12,69,35,5,5
1526905397351662,-3,6,-14,-2,3,-8,-13,-8
1526905397365625,-2,-7,11,-2,-39,-15,8,3
1526905397365625,-4,-31,-8,14,-32,-29,-4,0
1526905397372606,-9,-5,-6,-31,8,1,1,5
1526905397372606,2,31,3,4,11,1,-19,-18
1526905397388563,3,21,1,-4,25,14,-4,18
1526905397388563,2,-3,-13,0,6,-1,-21,-10
1526905397390559,5,15,19,9,-40,-22,30,19
1526905397390559,-15,-8,-4,-9,0,4,21,-16
1526905397402526,5,-4,0,-26,22,-16,-9,2
1526905397402526,1,10,-2,-15,-21,18,-26,-20
1526905397411502,2,4,-8,-10,43,18,-8,-2
1526905397411502,-1,-9,-3,-7,-20,-16,-4,9
1526905397425465,2,9,-2,4,-10,3,14,1
1526905397425465,-1,-36,-7,-1,-8,-13,1,9
1526905397432446,4,32,14,11,-13,-11,-3,-5
1526905397432446,-6,-5,4,15,10,14,-18,-6
1526905397448403,-1,-13,-2,12,-3,13,8,9
1526905397448403,2,12,7,7,38,-1,-10,0
1526905397450398,-11,-33,-14,-10,-16,-9,13,3
1526905397450398,8,8,12,1,23,9,10,11
1526905397471342,-1,3,0,3,-80,-40,-28,-10
1526905397471342,3,32,1,8,99,26,37,1
1526905397472340,1,-14,6,16,-60,-3,-15,-10
1526905397472340,-2,-10,-1,0,46,21,-36,8
1526905397485305,-1,-5,-3,-14,29,-1,3,3
1526905397485305,6,4,4,31,-29,-14,-22,-10
1526905397492286,-12,-19,-12,-18,-55,-26,14,10
1526905397492286,3,-6,-2,6,32,2,21,-3
1526905397508243,-1,30,8,8,-20,7,-7,-6
1526905397508243,2,8,0,-23,-10,-9,20,19
1526905397510238,2,25,6,12,51,18,-2,-15
1526905397510238,-3,-11,-15,-3,-12,9,3,3
1526905397531182,-3,-25,12,3,-4,0,4,-3
1526905397531182,-5,8,-9,1,-1,14,18,3
1526905397533177,-3,-3,-3,-4,-39,-40,-28,-18
1526905397533177,-4,-9,-6,-2,7,18,4,-10
1526905397545145,2,-4,-3,7,21,9,-37,12
1526905397545145,-4,-5,-4,-18,-50,-21,-21,-7
1526905397552126,-6,-12,0,1,1,-1,8,-5
1526905397552126,5,8,-1,-3,21,13,9,1
1526905397568083,-4,-6,-8,0,-1,-13,12,6
1526905397568083,0,-6,-1,0,36,32,3,10
1526905397570079,4,18,2,-12,-26,-6,1,-6
1526905397570079,-3,8,2,3,10,-23,12,0
1526905397591022,-1,-33,-12,-6,-11,11,7,1
1526905397591022,4,41,17,-9,-35,-8,-10,-2
1526905397593017,-1,-32,-2,21,62,25,22,4
1526905397593017,0,-6,-4,-2,-19,-10,-8,-13
1526905397604985,1,2,4,-2,-25,-12,-36,2
1526905397604985,-5,-19,-16,-12,-5,-31,-19,-14
1526905397613961,1,4,-5,-12,-33,7,1,0
1526905397613961,-1,0,8,8,21,9,-14,-18
1526905397628921,0,-3,-10,-2,6,-2,15,-4
1526905397628921,-1,-2,9,16,-4,10,-14,5
1526905397629918,1,5,-3,-4,26,-5,-1,-3
1526905397629918,-3,-14,-5,-4,-38,-9,-1,3
1526905397650862,1,16,1,-17,-8,-17,21,11
1526905397650862,-10,-11,-3,1,12,11,-4,-6
1526905397652857,-8,-19,-7,2,1,1,10,-14
1526905397652857,2,10,4,5,-13,-18,-21,12
1526905397664824,0,28,2,1,15,10,11,-9
1526905397664824,0,7,1,3,-5,-15,3,15
1526905397673801,3,-16,-10,-5,-21,7,-12,1
1526905397673801,-2,28,15,1,-42,-21,5,-5
1526905397688760,3,-10,-5,15,70,38,16,1
1526905397688760,3,-1,-10,-6,19,9,2,-14
1526905397689758,-2,20,6,-1,-1,-11,-33,-14
1526905397689758,1,-11,-9,3,-10,-7,-50,-7
1526905397710702,0,-7,3,0,13,8,4,5
1526905397710702,-7,-9,-4,8,-27,-3,16,-1
1526905397712697,6,15,8,-7,34,11,5,7
1526905397712697,-2,-6,-4,-11,-18,-10,25,0
1526905397724665,1,-3,1,13,33,4,-44,-7
1526905397724665,0,-7,-4,-11,-9,1,0,6
1526905397733641,1,-1,-5,-5,-37,-10,10,1
1526905397733641,-2,-6,-1,8,35,12,12,6
1526905397748601,0,-3,3,-3,-4,-6,-5,-15
1526905397748601,-7,-14,-5,4,-12,-8,-6,-3
1526905397750595,0,-3,-1,-4,6,0,17,6
1526905397750595,-4,19,-2,-8,-4,-8,-24,0
1526905397771539,-1,-4,0,0,17,21,17,-6
1526905397771539,3,-8,4,0,4,-4,-11,1
1526905397772537,-6,-15,-4,-2,-34,-15,-1,-2
1526905397772537,-1,-4,-1,-6,33,18,7,-2
1526905397784504,-1,6,-1,-11,-47,-26,17,8
1526905397784504,1,3,1,17,-6,-11,-70,-5
1526905397793481,-3,-8,-4,-5,39,26,32,4
1526905397793481,-1,-7,-4,-3,-29,-15,8,-13
1526905397808440,-3,20,0,-12,-70,-18,36,9
1526905397808440,3,-5,-1,-5,92,29,-5,1
1526905397810435,-1,-8,-2,1,-23,-17,-14,-1
1526905397810435,-3,-10,-6,5,15,-15,3,11
1526905397831379,2,-11,-2,-4,-11,12,0,-17
1526905397831379,2,1,14,0,-24,-7,14,7
1526905397832377,0,14,0,8,-7,-8,-4,2
1526905397832377,0,-12,-5,-15,18,15,23,-2
1526905397844345,-2,-29,-4,0,4,-7,-45,1
1526905397844345,4,39,7,-4,16,6,-13,10
1526905397853321,-1,-22,-9,-4,6,-20,15,-10
1526905397853321,3,-9,6,4,-28,26,16,14
1526905397868281,-4,4,0,10,20,10,11,-15
1526905397868281,-2,-13,-8,-15,5,4,27,8
1526905397870275,1,21,3,-2,-18,-14,-14,5
1526905397870275,-2,1,-5,-1,-27,-11,-9,7
1526905397891219,0,-10,-2,-18,-24,-13,20,5
1526905397891219,-5,1,0,5,23,0,5,-19
1526905397892216,2,2,-4,-10,4,11,5,13
1526905397892216,1,-2,-5,-3,-18,-4,-12,-5
1526905397905182,2,1,2,13,27,-6,15,10
1526905397905182,0,14,-4,-8,-38,2,-6,-6
1526905397914158,-5,-13,-6,8,13,5,-18,-2
1526905397914158,4,7,8,11,21,4,14,5
1526905397928120,-6,1,-5,-2,-21,-23,-22,-10
1526905397928120,0,-16,-5,-6,-42,-33,16,-2
1526905397930115,4,3,7,5,33,48,9,2
1526905397930115,3,24,1,0,7,-3,7,5
1526905397951059,0,-5,3,6,15,5,-10,-1
1526905397951059,-5,-12,-2,-4,-5,-2,19,4
1526905397953054,-3,-21,-6,-2,-28,0,18,-5
1526905397953054,-4,-14,-3,5,24,-7,-23,-12
1526905397965021,-1,9,4,-18,-28,2,4,-4
1526905397965021,-5,3,-2,19,7,0,-8,-10
1526905397973998,2,-8,3,-2,33,1,-4,0
1526905397973998,2,1,-2,0,-21,0,-3,5
1526905397988957,-6,4,-6,0,51,9,-10,3
1526905397988957,2,-7,6,-1,-11,2,-9,2
1526905397989955,-4,4,-4,-2,-30,-18,-29,-3
1526905397989955,-6,-6,0,-3,-16,-15,11,-2
1526905398010899,4,10,-10,-11,-44,-4,0,4
1526905398010899,3,13,15,11,78,21,10,-5
1526905398012894,1,-10,-4,-7,-7,-7,14,-4
1526905398012894,-6,25,9,-8,-1,16,17,-9
1526905398024862,0,1,2,10,12,0,-7,1
1526905398024862,-3,-8,-6,-11,-19,-5,14,15
1526905398033838,4,34,8,5,5,7,17,9
1526905398033838,-1,-16,-7,0,-8,-18,-27,-12
1526905398048798,-4,4,3,-2,-4,-14,-17,-2
1526905398048798,1,5,-3,-3,-28,8,18,2
1526905398049795,-3,-7,3,20,49,9,-22,-8
1526905398049795,4,29,2,-8,-17,-3,-4,4
1526905398070739,-3,-3,8,9,-3,-2,1,1
1526905398070739,-2,-16,-14,-2,-6,-3,-1,-10
1526905398072734,-3,11,-3,-2,-18,-13,13,-1
1526905398072734,4,12,2,0,12,12,-41,-5
1526905398084701,-8,-6,-1,1,4,-4,10,6
1526905398084701,1,0,-6,-12,-74,-50,-13,-12
1526905398093678,1,9,7,9,61,50,34,7
1526905398093678,1,-15,-9,-5,22,1,-6,-2
1526905398108638,2,2,-9,-2,-3,-2,4,0
1526905398108638,-4,-10,-4,4,0,-9,15,-4
1526905398110633,-6,-6,1,-11,-53,-14,-23,6
1526905398110633,-5,-34,-5,2,13,-14,3,-3
1526905398130579,3,12,-2,0,-13,13,-1,-7
1526905398130579,1,9,0,-9,22,-4,12,9
1526905398132574,-3,-17,-5,-1,-8,0,-12,-12
1526905398132574,2,16,15,4,-11,-10,-4,9
1526905398144542,0,-24,-12,-24,-9,12,27,-7
1526905398144542,-2,-1,-3,12,-24,-5,-38,0
1526905398153518,5,-9,4,19,78,20,-8,8
1526905398153518,-6,-2,-3,-14,-28,-15,6,2
1526905398167480,2,9,-5,-2,-9,-19,-3,2
1526905398167480,-7,-34,1,-13,-6,-12,-2,-5
1526905398174461,1,6,-15,-15,-32,-29,-3,0
1526905398174461,-1,-25,-8,6,12,4,11,4
1526905398191416,3,15,11,4,0,41,16,-3
1526905398191416,-1,21,-6,-2,-3,-5,-16,-4
1526905398192414,1,-19,-8,-5,19,-5,16,1
1526905398192414,-8,-9,-4,-1,4,12,-7,-16
1526905398204381,0,10,3,-5,-38,-13,1,4
1526905398204381,6,-4,2,8,47,28,-11,-3
1526905398213357,-11,5,4,-3,-24,-6,3,-8
1526905398213357,0,-1,0,9,5,8,2,-4
1526905398228317,-2,3,1,2,29,5,-3,-3
1526905398228317,5,-10,-3,-9,-37,3,7,7
1526905398234302,1,0,5,2,2,-1,1,3
1526905398234302,-1,30,11,5,-3,10,6,-2
1526905398251256,1,-14,-2,9,10,-2,-7,2
1526905398251256,0,15,-1,2,-13,-33,-44,6
1526905398252254,0,12,4,-2,0,21,-13,-1
1526905398252254,4,-13,-2,1,15,7,17,-8
1526905398264221,-1,3,-2,-4,-11,-9,-27,3
1526905398264221,-3,-5,-3,-3,27,8,-4,-7
1526905398274195,-5,-12,-10,-2,-57,-40,-5,-19
1526905398274195,-3,-13,-5,-19,-17,-13,-17,2
1526905398288157,0,-5,0,8,77,23,10,1
1526905398288157,-2,-13,-6,-9,-35,-6,29,4
1526905398295139,-1,5,4,1,5,14,-14,-7
1526905398295139,-14,-29,-12,3,9,-3,17,7
1526905398311096,4,11,6,4,-40,-20,-27,-9
1526905398311096,-4,27,-3,0,35,11,5,-7
1526905398313091,0,-9,15,-1,-33,-15,-27,-1
1526905398313091,2,-2,-14,0,7,3,28,15
1526905398333038,0,10,-1,1,3,-2,-1,2
1526905398333038,1,-4,7,9,28,7,5,4
1526905398335033,8,16,-7,-9,-12,0,7,6
1526905398335033,-6,-8,-1,-5,-49,-20,-13,-5
1526905398347998,4,-11,5,18,75,36,22,3
1526905398347998,2,-2,-1,9,6,11,-5,5
1526905398354979,-2,1,-4,-18,-15,-2,17,3
1526905398354979,7,10,6,8,-1,-9,-49,5
1526905398370936,-3,-14,-10,-20,-8,-14,22,-3
1526905398370936,-2,-5,-4,-21,7,13,-4,0
1526905398372931,1,14,1,-17,-21,-16,0,-3
1526905398372931,-5,31,14,-3,-37,-13,-14,-14
1526905398393875,1,-22,-13,7,33,15,2,6
1526905398393875,3,-4,15,6,-1,-11,11,-3
1526905398394872,-11,-20,-12,7,30,22,-4,-5
1526905398394872,4,-4,-8,10,35,13,33,-7
1526905398407837,0,-10,7,2,-39,-15,-20,-11
1526905398407837,-5,-8,-11,-6,-8,2,18,1
1526905398414819,-2,3,-1,7,3,-11,-11,-4
1526905398414819,2,-1,-3,0,-5,3,7,5
1526905398430776,2,13,-1,0,-21,-11,19,3
1526905398430776,-1,-10,-2,6,7,12,-47,-9
1526905398432771,3,11,2,4,-18,-13,4,9
1526905398432771,1,1,-3,5,50,17,19,-9
1526905398453715,-5,-6,-3,-8,-37,-29,-44,-19
1526905398453715,-5,15,-5,-12,-42,-7,15,3
1526905398455710,1,6,6,9,36,21,22,-1
1526905398455710,6,-11,0,7,29,-7,-11,-7
1526905398467677,-6,-4,6,-1,-26,-9,5,4
1526905398467677,6,19,6,5,-4,25,24,2
1526905398474659,-4,-14,-9,-1,18,3,-8,-3
1526905398474659,-2,-4,6,5,-12,-11,-8,-4
1526905398490616,-4,6,-3,-14,-1,-11,4,1
1526905398490616,1,-5,4,2,-12,-9,1,5
1526905398492611,-6,-20,-7,-2,-18,2,9,3
1526905398492611,-2,8,1,2,2,6,-4,9
1526905398513555,1,-5,-6,4,-2,-3,-16,-1
1526905398513555,-12,-6,0,1,25,4,14,-13
1526905398515550,2,5,2,-7,-6,-2,-5,9
1526905398515550,-8,-13,-11,-6,-6,-3,34,16
1526905398527517,0,10,6,5,32,14,-15,-6
1526905398527517,-1,-22,-11,1,0,-12,2,-4
1526905398536494,0,25,2,-5,-65,-21,-16,2
1526905398536494,-1,6,9,6,46,22,20,5
1526905398551453,8,4,-3,-12,-13,-1,35,29
1526905398551453,0,-8,-1,10,16,-7,-24,-28
1526905398552451,-1,23,1,-4,-2,6,7,13
1526905398552451,1,-7,-1,-12,-50,-25,-21,0
1526905398573395,-9,8,3,8,32,23,-12,-5
1526905398573395,-4,-10,-6,6,14,-11,-12,-3
1526905398575390,3,-5,-6,1,-5,-5,1,-8
1526905398575390,4,7,0,-8,-9,11,2,3
1526905398587357,4,-3,7,10,-15,-24,-36,0
1526905398587357,1,22,-1,-11,-22,4,12,-1
1526905398596334,-1,-9,2,17,57,15,-11,-6
1526905398596334,0,1,-6,-4,6,8,-12,12
1526905398611293,0,-2,-4,0,-14,-11,10,-22
1526905398611293,7,2,6,14,-16,10,1,21
1526905398612291,1,-5,-3,-7,28,0,-14,-4
1526905398612291,-1,-1,-8,-8,-29,-14,1,-15
1526905398633235,0,1,0,8,-54,-4,18,-4
1526905398633235,0,-4,0,-9,46,-7,-3,7
1526905398635230,-2,-3,0,8,22,20,14,4
1526905398635230,-4,-1,-5,-9,-6,-3,-3,-7
1526905398647197,-4,-13,-5,-3,-1,3,19,2
1526905398647197,4,0,-4,-8,-37,-12,-6,-4
1526905398656174,-3,-8,-4,-14,-33,-25,-10,-7
1526905398656174,-3,-3,-5,6,15,1,0,-4
1526905398671133,5,4,0,-2,42,17,13,3
1526905398671133,-2,14,4,2,7,16,-45,0
1526905398673128,-12,-27,-10,-9,-32,-15,23,-6
1526905398673128,4,17,5,-2,24,16,0,3
1526905398693074,2,9,-1,5,-6,-12,-78,-11
1526905398693074,2,0,-1,-10,-7,-8,4,0
1526905398695070,-2,3,-1,-1,-15,1,3,-3
1526905398695070,-5,-7,-2,-2,-32,-11,-6,4
1526905398707037,-5,-9,-4,-10,1,-14,12,4
1526905398707037,4,0,1,2,20,33,8,2
1526905398716013,4,18,6,-2,-27,-8,-10,-12
1526905398716013,0,-10,4,17,34,13,5,3
1526905398730973,-3,-1,-7,7,30,22,19,-2
1526905398730973,-2,-27,-5,-5,-46,-49,-12,-9
1526905398732968,5,21,8,4,21,22,11,5
1526905398732968,1,-16,-5,-23,-18,-5,-33,-7
1526905398753912,-13,11,5,15,3,-2,6,-2
1526905398753912,-3,-10,-4,-7,-10,3,15,-6
1526905398754909,-4,-9,0,2,-5,-15,-14,-6
1526905398754909,2,9,-1,-5,-2,-3,-15,-3
1526905398766877,5,0,4,-2,18,18,33,19
1526905398766877,-2,4,0,-9,-24,-15,9,-9
1526905398775853,-1,-13,-2,-3,31,2,-37,1
1526905398775853,-6,-1,2,5,11,8,17,6
1526905398790813,-2,0,-7,-9,-55,-1,26,7
1526905398790813,3,9,7,8,69,28,7,2
1526905398792808,-4,-26,-8,-5,-31,-16,-3,5
1526905398792808,-1,20,0,10,31,-3,-11,-12
1526905398813752,0,-9,-4,-14,-15,3,-2,-6
1526905398813752,5,16,-9,1,5,-17,-45,0
1526905398814750,2,-9,2,0,15,13,10,1
1526905398814750,-3,14,1,-7,-55,-26,-3,-3
1526905398827714,2,-18,-2,4,24,-6,3,2
1526905398827714,-7,-8,-4,6,16,20,10,-2
1526905398836691,-5,-12,1,-12,-29,-7,29,8
1526905398836691,2,9,-5,-1,7,2,-22,-8
1526905398850653,0,-14,7,3,14,-1,-6,0
1526905398850653,-6,-8,-4,-4,-29,-9,19,9
1526905398852648,1,20,1,6,0,3,0,-2
1526905398852648,1,-22,-5,-3,-1,-1,17,10
1526905398873592,-7,9,5,7,1,9,-8,-16
1526905398873592,1,-18,0,-17,-28,-7,2,14
1526905398875587,-3,39,-9,4,26,-3,-12,1
1526905398875587,-4,-4,1,-8,-26,-15,-8,-14
1526905398887555,-1,-11,-2,2,25,13,30,-3
1526905398887555,3,-13,-1,0,-20,-2,-4,-1
1526905398896531,5,-10,-3,-1,24,-2,-3,0
1526905398896531,-5,20,8,3,-15,1,-3,-13
1526905398911491,1,-9,-20,-4,-19,-13,-3,-3
1526905398911491,4,22,24,8,32,34,27,13
1526905398912488,-2,-8,0,-1,13,-5,14,-7
1526905398912488,0,-15,-8,2,1,5,0,15
1526905398933432,2,-14,-6,-2,-6,-14,-51,-3
1526905398933432,-2,6,7,-3,-22,-5,41,10
1526905398935427,-4,-15,4,-3,2,-5,-17,-16
1526905398935427,6,-1,2,17,-7,8,8,18
1526905398947394,-4,13,4,-10,17,1,-2,-8
1526905398947394,-2,3,-8,3,20,-11,-6,-5
1526905398956371,1,-11,-1,0,-27,-3,11,14
1526905398956371,-1,-18,-5,-9,-10,3,28,-11
1526905398971330,3,25,6,-1,-1,-5,-9,0
1526905398971330,0,6,-3,4,2,-4,-5,-8
1526905398972328,5,3,2,1,9,-7,-5,0
1526905398972328,1,9,-3,-3,-16,-18,-19,-4
1526905398993272,3,2,-5,0,44,36,34,16
1526905398993272,-5,10,1,-10,-26,-15,-54,-19
1526905398995267,-4,-10,-4,2,11,12,-5,-18
1526905398995267,4,37,4,-2,-2,-4,-2,-8
1526905399007234,-7,-16,-7,-1,-9,-15,-25,2
1526905399007234,3,-11,7,9,0,-1,25,9
1526905399016211,-5,18,-1,-7,-34,-14,-1,2
1526905399016211,-5,-11,0,-4,6,8,-14,1
1526905399031170,4,5,2,3,31,20,17,12
1526905399031170,2,17,-6,4,32,15,-5,-11
1526905399033166,-2,-31,-10,3,2,3,-7,0
1526905399033166,5,-12,1,-4,-15,-5,-2,11
1526905399053112,-4,-3,-1,-11,-42,-33,-20,-19
1526905399053112,-6,-22,2,-3,-9,5,12,6
1526905399055107,5,28,1,6,22,14,-14,7
1526905399055107,-6,-32,-7,-1,16,-12,16,-2
1526905399067074,3,10,7,-1,-43,-13,-12,3
1526905399067074,1,-2,-4,-5,16,10,5,-7
1526905399076051,-5,-21,-4,3,-3,-9,11,2
1526905399076051,3,0,5,5,28,26,25,-1
1526905399090013,-2,0,-4,-4,-45,-19,-25,-16
1526905399090013,-3,-1,-10,-5,3,-20,-10,5
1526905399096995,1,-1,4,10,35,22,13,0
1526905399096995,-1,1,0,1,20,5,23,-6
1526905399113949,3,-3,1,-5,-10,-9,13,3
1526905399113949,-8,0,0,0,-39,-12,-26,-30
1526905399114947,1,18,6,7,57,25,8,4
1526905399114947,-5,-14,-9,-9,-53,-16,-11,-7
1526905399126914,4,-14,7,11,50,3,31,14
1526905399126914,-7,-9,-11,-11,-40,-1,7,15
1526905399135890,0,-7,1,3,4,-5,0,-27
1526905399135890,-3,28,-4,-3,17,12,5,7
1526905399150850,-1,-23,-9,0,-17,10,-15,-6
1526905399150850,0,2,6,11,18,-3,-2,0
1526905399156835,4,-1,-7,-18,-30,-9,5,3
1526905399156835,-10,-14,-7,0,14,4,10,-2
1526905399173789,3,13,3,2,18,1,-20,-11
1526905399173789,1,8,4,0,-16,-13,1,-1
1526905399174787,-4,-4,-2,-27,-9,14,50,13
1526905399174787,7,2,6,-18,10,1,-63,-10
1526905399186755,-3,9,-2,-15,-8,2,12,9
1526905399186755,5,5,-5,4,18,0,13,2
1526905399196728,0,18,2,-5,-59,-21,-13,-8
1526905399196728,1,-20,-8,-4,-22,-24,0,10
1526905399210690,-7,26,7,9,44,33,12,-6
1526905399210690,6,-1,1,8,3,7,-16,-1
1526905399217671,-1,-27,-2,5,-25,-3,-6,9
1526905399217671,0,-3,1,8,25,-4,-18,-16
1526905399233629,-5,0,-5,-5,-33,-6,-6,-1
1526905399233629,0,-5,-3,2,-11,-3,9,-5
1526905399235624,-2,9,7,10,22,-9,10,9
1526905399235624,-4,-8,-6,-1,13,11,-31,-17
1526905399247592,2,-4,0,7,-3,-9,9,-3
1526905399247592,-1,7,0,1,15,12,12,12
1526905399256568,-5,0,-5,-8,-37,-13,-26,-9
1526905399256568,5,9,1,2,21,6,-40,4
1526905399270530,0,-2,2,-2,-25,-11,23,0
1526905399270530,-3,3,0,-14,-4,-15,-28,5
1526905399277512,1,-19,-5,1,-12,-3,-16,12
1526905399277512,-9,23,-1,8,28,10,32,8
1526905399293469,-4,0,-11,-8,-19,-1,-18,-5
1526905399293469,0,-10,0,8,15,-1,13,4
1526905399295464,3,6,4,4,-6,-3,-17,-10
1526905399295464,-1,4,-6,-4,-20,-5,4,-19
1526905399316408,4,26,1,-11,-11,-4,2,20
1526905399316408,-1,16,-2,-3,-2,-8,-18,-10
1526905399317405,-2,2,-2,0,-4,6,8,1
1526905399317405,3,-6,-1,10,23,14,-20,-2
1526905399330370,-2,-10,1,7,9,-31,-21,-16
1526905399330370,9,0,1,6,17,35,30,3
1526905399337351,-3,15,4,-15,-29,-1,-12,3
1526905399337351,-5,-9,1,12,11,17,19,-1
1526905399353309,5,-12,-3,-9,-28,-1,35,5
1526905399353309,-3,-1,-2,-3,-47,-39,22,22
1526905399355304,-4,-7,0,26,91,41,-54,-44
1526905399355304,6,-6,1,7,0,-6,21,4
1526905399376248,1,15,4,3,-12,11,7,8
1526905399376248,-9,-23,-7,-18,-21,-20,2,-27
1526905399377245,-1,5,-5,4,32,16,17,21
1526905399377245,1,-10,-4,-20,-33,-12,11,10
1526905399390210,-2,-9,-5,-5,9,5,-22,-6
1526905399390210,2,-2,-1,-7,16,-3,-11,3
1526905399397192,0,1,-4,-2,-26,-14,4,13
1526905399397192,-3,-18,3,2,8,4,3,-3
1526905399413149,-2,-9,-4,0,-3,-6,-8,-4
1526905399413149,-4,0,-1,8,9,10,-2,4
1526905399415144,1,-4,-3,-17,-8,-5,32,1
1526905399415144,2,13,7,2,-32,-12,-32,-1
1526905399436087,-1,-7,1,-14,-24,-36,-17,-26
1526905399436087,3,-3,-2,10,47,47,0,1
1526905399438083,-4,9,3,1,9,7,30,-1
1526905399438083,3,0,-2,13,2,14,7,17
1526905399450050,1,-1,0,17,-11,-15,-18,-11
1526905399450050,-2,1,-2,-7,-7,-6,4,3
1526905399459026,1,-7,1,-7,-24,-24,-23,-22
1526905399459026,1,16,3,-8,-14,-7,11,-5
1526905399473986,-2,-21,-9,-2,2,5,-9,13
1526905399473986,4,7,6,1,3,5,11,2
1526905399474984,-10,-17,-6,18,32,2,-5,-3
1526905399474984,-1,3,-6,-20,-32,-9,9,-2
1526905399495928,0,2,7,9,58,18,9,4
1526905399495928,1,-2,-2,-3,-28,-13,1,5
1526905399497922,1,9,0,-1,3,-10,-27,-1
1526905399497922,-9,-16,0,14,-32,-8,-9,-13
1526905399509890,4,6,-3,-15,22,10,19,7
1526905399509890,-4,4,6,4,22,12,5,-16
1526905399518867,4,2,-1,-8,-21,-18,-35,9
1526905399518867,-3,1,0,5,61,22,15,3
1526905399533826,0,1,4,1,-30,0,-9,-6
1526905399533826,-4,-1,-7,-10,-32,-8,-7,0
1526905399534824,0,1,3,10,32,-5,15,-15
1526905399534824,-3,-6,-5,-13,-2,-12,19,9
1526905399555767,1,10,-4,-5,-12,5,-52,-2
1526905399555767,-9,-4,-4,-14,-8,-1,-4,-5
1526905399557763,-3,0,-2,9,1,4,28,13
1526905399557763,-1,-6,1,-10,-32,-18,-5,1
1526905399569730,0,20,8,11,29,10,21,8
1526905399569730,2,2,-1,1,-28,-6,13,8
1526905399578706,-4,-6,-9,-1,27,19,-25,-4
1526905399578706,1,27,17,8,13,1,14,4
1526905399593666,1,-17,-11,-2,12,10,-9,-5
1526905399593666,5,4,7,3,-3,-9,-17,2
1526905399595661,0,-4,-2,0,-62,-35,7,5
1526905399595661,2,-7,-9,-6,53,22,12,-3
1526905399615607,-3,-13,-10,-4,-13,-7,-2,-8
1526905399615607,-7,24,16,0,17,-9,-5,2
1526905399617603,5,-11,-1,-1,-26,14,4,-3
1526905399617603,2,22,-2,-9,-20,-4,27,8
1526905399629570,-14,-15,0,3,-22,-26,-36,-4
1526905399629570,2,-22,-9,1,17,4,-6,-5
1526905399638547,-1,10,5,-2,-20,-4,-7,2
1526905399638547,0,-9,3,8,57,12,36,-5
1526905399653506,3,30,0,-8,-15,3,-26,-8
1526905399653506,-3,11,3,8,2,-9,-24,-2
1526905399655501,2,6,-1,-6,-3,-5,18,5
1526905399655501,-3,-13,-12,-11,-49,-10,-6,13
1526905399676445,-3,-2,4,6,25,-1,29,6
1526905399676445,-2,-16,-4,-2,-28,9,-15,-21
1526905399677443,0,-3,6,-2,47,19,0,-4
1526905399677443,0,21,-9,12,-22,-34,-27,14
1526905399689410,-3,-41,-3,-13,20,29,40,-9
1526905399689410,5,26,3,3,16,-1,27,14
1526905399698386,-7,-11,-10,-16,-42,-12,4,-5
1526905399698386,1,-10,5,6,9,-1,-13,-11
1526905399713346,-1,-6,1,7,4,-3,5,7
1526905399713346,-5,-21,-15,-5,1,-5,-8,4
1526905399715341,5,13,10,0,-13,-5,-2,-2
1526905399715341,-3,0,-6,-6,13,10,-27,-18
1526905399736285,-2,1,10,9,7,10,13,-2
1526905399736285,5,16,-7,-1,33,11,-39,3
1526905399737282,2,-4,5,20,19,1,-17,7
1526905399737282,-6,-17,6,-10,-46,-4,3,-12
1526905399749250,4,1,-5,-8,7,-1,2,3
1526905399749250,6,-12,-12,-10,-35,-23,-16,3
1526905399759224,-4,5,1,5,30,29,28,3
1526905399759224,2,-5,-1,3,-8,0,-24,-6
1526905399773186,4,4,-6,-12,-16,-5,-48,2
1526905399773186,-1,-11,2,9,26,-7,20,0
1526905399775181,-3,2,4,-5,11,-14,-26,-17
1526905399775181,1,-7,1,-5,-19,-9,8,4
1526905399796125,-2,-14,-5,2,-31,4,19,5
1526905399796125,3,6,3,10,57,38,13,-4
1526905399798119,-2,-3,-8,-18,-45,-42,15,11
1526905399798119,-4,-10,2,-1,13,25,-36,-17
1526905399810087,4,10,-4,-3,-10,6,72,2
1526905399810087,0,-14,-4,4,24,9,1,5
1526905399819064,3,9,11,14,0,-5,4,9
1526905399819064,-3,26,5,0,-25,-19,-3,10
1526905399834023,6,-11,-9,-9,3,14,10,17
1526905399834023,-9,-10,-3,-8,-55,-38,5,-21
1526905399835021,-5,-25,-1,2,71,26,37,10
1526905399835021,5,3,-3,-12,-72,-23,16,-11
1526905399855965,0,5,8,8,48,45,-31,0
1526905399855965,0,82,28,16,64,26,20,11
1526905399857960,-1,-3,-11,-25,-119,-53,-8,-6
1526905399857960,-3,-18,2,19,94,42,-21,10
1526905399869927,14,23,3,-7,-4,-34,1,-4
1526905399869927,-15,-31,-11,-6,-44,-10,-23,-17
1526905399878904,8,29,-2,-7,-33,1,-3,-4
1526905399878904,0,-11,-4,-7,-16,-19,-1,3
1526905399893863,2,14,8,18,33,17,-8,2
1526905399893863,2,-24,-9,-7,0,5,7,9
1526905399895858,2,3,-8,1,13,0,-25,-42
1526905399895858,0,-19,-5,-7,-44,-11,-2,18
1526905399915805,-24,-39,-9,-13,-6,-21,-22,-37
1526905399915805,2,33,14,7,70,36,43,4
1526905399917800,-4,-9,-3,-23,14,11,-22,-10
1526905399917800,-7,12,-5,-17,-12,-17,1,-2
1526905399929767,25,-3,-2,-10,-32,-14,6,6
1526905399929767,-9,-7,-16,-14,-43,-28,-8,-6
1526905399938744,8,-20,-8,7,25,22,8,17
1526905399938744,-8,30,-1,7,13,-3,7,-3
1526905399953703,-3,7,5,14,-3,2,-6,6
1526905399953703,14,-13,4,9,10,6,8,1
1526905399955698,-9,0,-3,9,18,1,-7,6
1526905399955698,-8,-3,0,3,-17,-5,-3,1
1526905399975645,-17,-15,-22,-17,-50,-54,-4,-3
1526905399975645,2,-15,16,11,-19,34,13,2
1526905399977640,11,3,-2,4,77,69,43,5
1526905399977640,-1,-21,-4,3,-7,-3,-37,-24
1526905399989607,-12,-1,-1,-14,-53,-50,-12,-9
1526905399989607,0,-9,-11,-10,-2,-19,-9,-12
1526905399998584,-7,-4,-1,36,-9,-15,-10,-2
1526905399998584,0,-6,-9,-38,-26,10,-6,1
1526905400013543,9,3,9,11,79,37,-6,12
1526905400013543,-3,-15,-12,-3,-51,-38,-14,-7
1526905400015538,-5,-15,1,-10,-16,-14,-25,-4
1526905400015538,5,0,4,11,-25,-15,3,3
1526905400036482,-4,18,3,5,20,11,10,-2
1526905400036482,-5,4,6,-7,8,5,-4,-2
1526905400037479,-2,-9,-6,-1,2,-11,19,4
1526905400037479,6,-15,-2,4,-15,2,38,-5
1526905400049447,-7,5,6,-2,-28,3,-17,-2
1526905400049447,-10,-14,-4,6,47,24,-3,-6
1526905400058423,7,-11,2,-5,-45,-21,-9,12
1526905400058423,5,5,8,4,13,0,1,-19
1526905400073383,1,20,4,2,-24,-9,23,3
1526905400073383,1,-18,1,8,45,9,-18,-1
1526905400079367,-2,-5,-10,-21,-19,0,-8,0
1526905400079367,13,11,11,23,57,54,25,13
1526905400096322,-16,-7,-7,-2,21,2,9,6
1526905400096322,4,7,-3,-16,-85,-33,1,13
1526905400097319,0,-10,-4,-1,1,-5,-53,1
1526905400097319,-2,-10,-2,-2,1,-23,-8,7
1526905400109287,5,-4,5,1,-1,1,24,1
1526905400109287,4,7,0,0,6,23,-12,-4
1526905400118263,-6,-6,-4,-10,-17,-14,-7,-3
1526905400118263,-2,11,3,9,14,9,8,2
1526905400133223,6,-5,-10,6,-23,-16,23,5
1526905400133223,-3,22,2,-11,-4,-10,-36,-11
1526905400140205,4,16,15,2,19,13,33,3
1526905400140205,-11,-3,5,17,26,8,-14,-8
1526905400156162,6,-11,-9,-14,5,21,-2,6
1526905400156162,2,5,3,1,-27,-24,-5,7
1526905400158157,-5,-7,-4,7,8,-10,-17,-17
1526905400158157,2,22,-11,-26,-30,-7,12,-3
1526905400170124,3,25,18,25,0,1,-15,17
1526905400170124,-2,-20,-4,2,30,16,14,-12
1526905400179101,1,-3,-3,-11,-26,4,-2,-21
1526905400179101,-7,-16,7,2,43,2,17,20
1526905400193063,-4,-23,-15,-12,-38,-13,-26,-17
1526905400193063,-4,41,12,13,-13,-18,21,12
1526905400200045,25,-2,-8,-7,-14,7,-12,-3
1526905400200045,-3,-13,-2,-2,24,11,2,-1
1526905400216002,0,3,7,5,9,8,1,6
1526905400216002,-3,-3,-4,-5,-2,-21,-29,-13
1526905400217997,-4,-6,2,2,-10,25,28,15
1526905400217997,1,5,-6,-5,-7,-18,-9,4
1526905400238940,5,1,4,-2,-9,-3,0,-8
1526905400238940,1,-20,-3,3,-4,-24,-9,7
1526905400239938,-5,59,11,6,45,34,4,-9
1526905400239938,3,-4,4,12,19,15,-13,-9
1526905400252903,-2,-2,-2,-7,-21,-29,-49,-8
1526905400252903,4,-6,-1,-4,9,20,12,-2
1526905400259884,-8,12,0,9,14,-2,4,-2
1526905400259884,4,-1,-5,-15,-61,-33,-20,-1
1526905400275842,-7,4,1,5,-9,-17,0,2
1526905400275842,3,8,-2,6,44,39,14,3
1526905400277837,-8,-30,-10,-3,-4,-18,-17,3
1526905400277837,5,34,10,4,-23,-1,23,-2
1526905400298780,1,2,3,1,48,-1,-3,3
1526905400298780,-9,-11,-11,-16,-91,-17,-5,-18
1526905400299778,-4,0,0,10,64,5,62,-9
1526905400299778,-4,-17,-11,-4,-3,7,-41,9
1526905400312743,-2,-13,1,2,-17,10,24,-19
1526905400312743,2,-15,-8,-15,24,-15,-27,1
1526905400319724,4,16,14,29,13,6,3,15
1526905400319724,-2,-21,-7,-2,7,5,10,1
1526905400335682,5,14,0,4,11,14,4,-2
1526905400335682,-6,3,1,1,-18,-7,13,1
1526905400337677,-8,-2,-5,-13,-34,-20,-17,-4
1526905400337677,4,-23,-10,-5,-5,-16,-10,-13
1526905400358621,-24,-1,1,-1,14,12,-3,2
1526905400358621,4,-16,-3,-5,-19,-18,-2,-10
1526905400360615,-4,-11,-2,-7,-48,-11,-17,10
1526905400360615,-2,21,7,6,88,49,-6,-3
1526905400372583,4,-10,-12,-11,13,-27,-28,-5
1526905400372583,-4,-13,-7,-1,-4,23,18,8
1526905400379564,-5,2,6,2,-12,-7,-10,1
1526905400379564,8,15,0,-3,-8,-5,-6,1
1526905400396519,2,-18,-5,-17,-20,-4,-9,5
1526905400396519,-5,57,7,3,-15,-9,5,-8
1526905400397517,-1,5,2,3,26,-12,-8,11
1526905400397517,-5,-14,-11,-3,-51,-14,13,-7
1526905400418460,2,9,7,5,28,12,10,3
1526905400418460,-1,-18,-7,3,-47,0,11,1
1526905400420455,7,4,-4,-22,37,3,-24,-24
1526905400420455,-9,-14,-8,2,10,-4,-2,4
1526905400432423,2,3,-3,10,40,30,22,-6
1526905400432423,-11,-12,5,-3,-14,-17,-45,-10
1526905400441399,0,1,-2,14,-22,-29,5,-8
1526905400441399,-5,-15,0,-17,-7,17,-9,3
1526905400456359,5,-10,-4,16,-19,-11,15,6
1526905400456359,-5,42,16,-5,46,26,9,7
1526905400457357,4,-50,-15,-7,24,12,14,7
1526905400457357,-5,26,2,-4,-13,-22,-7,-17
1526905400478300,4,25,6,-8,-50,-22,32,4
1526905400478300,4,-35,0,30,74,37,-29,-5
1526905400480295,0,7,-2,-2,-18,-9,14,5
1526905400480295,5,9,6,-4,0,-16,16,-4
1526905400492263,-6,-16,-6,-20,-58,-18,-13,-14
1526905400492263,-1,-6,-5,8,12,15,-2,2
1526905400501239,0,-4,-2,-8,-2,-10,-15,4
1526905400501239,1,-33,-6,13,25,17,5,4
1526905400516199,-11,45,14,-7,-37,-8,2,1
1526905400516199,6,-6,-5,-7,-4,-22,-11,17
1526905400518194,-3,-15,-1,9,15,32,-17,-8
1526905400518194,-4,-10,3,-2,-10,-7,-3,13
1526905400538140,2,-10,-1,-2,-10,-3,-15,-2
1526905400538140,1,0,-10,-13,5,-15,42,4
1526905400540135,-4,12,-2,-2,-79,-20,-61,-3
1526905400540135,4,1,-7,-9,49,-12,15,-4
1526905400552103,5,-10,9,8,60,48,-18,-8
1526905400552103,0,-19,-9,3,34,21,21,1
1526905400561080,-3,9,13,-7,-33,-20,2,-4
1526905400561080,-2,5,-3,5,-20,-7,-1,-1
1526905400576039,-1,-21,-12,2,-13,-6,2,5
1526905400576039,-13,-5,-3,-16,-37,-28,13,-1
1526905400578034,22,49,12,7,39,24,14,11
1526905400578034,0,16,-7,-2,5,0,-1,4
1526905400598977,0,-13,1,3,15,7,9,1
1526905400598977,2,0,9,1,-14,-8,-4,1
1526905400599975,0,0,-10,-3,10,11,56,14
1526905400599975,-3,-9,-3,-5,-25,-18,-18,-3
1526905400611943,-2,-12,-3,-11,-15,-24,-7,2
1526905400611943,4,-17,3,28,54,44,19,10
1526905400620919,-9,5,-5,-26,-25,-12,-20,-4
1526905400620919,3,3,4,9,48,22,26,8
1526905400635879,-2,-4,-10,-1,4,-8,-28,-7
1526905400635879,0,-9,-8,-15,-46,-8,-4,-11
1526905400637874,-7,-29,3,10,9,1,-8,8
1526905400637874,-1,33,11,2,-34,-10,8,4
1526905400658818,-2,19,-3,-1,10,-5,-31,-8
1526905400658818,8,3,-3,-12,-51,-55,-16,5
1526905400659815,2,-2,-4,6,8,55,22,2
1526905400659815,0,2,-7,-8,2,-12,-7,-31
1526905400671783,1,1,13,9,30,27,29,9
1526905400671783,-9,-29,-16,-11,1,-5,-1,-4
1526905400680759,-6,12,3,-6,-24,-22,-12,-5
1526905400680759,-3,2,1,4,8,0,-6,-3
1526905400695719,8,-1,-5,-4,11,-6,-8,7
1526905400695719,-13,-18,-4,-16,-79,-5,-11,-18
1526905400697713,8,18,9,11,84,6,6,8
1526905400697713,-7,-22,3,2,-39,15,0,13
1526905400718658,2,-13,3,-3,4,0,-30,-9
1526905400718658,6,13,-2,5,16,-11,-8,-1
1526905400720652,-22,-17,-1,0,1,-12,-5,-11
1526905400720652,-2,-10,-6,-6,-39,17,33,16
1526905400732620,1,6,4,11,58,7,-11,-38
1526905400732620,7,14,9,7,2,14,16,18
1526905400741596,-7,-5,-9,-5,-4,-12,-3,2
1526905400741596,2,-11,3,2,4,-4,1,0
1526905400756556,-7,-11,-20,-14,-31,-13,1,-5
1526905400756556,-1,-10,4,3,33,12,30,3
1526905400757554,0,35,5,4,-61,-33,-18,-14
1526905400757554,-6,-19,-7,-5,43,1,-2,-3
1526905400778497,7,20,4,5,-17,7,-5,7
1526905400778497,-1,3,7,6,54,28,13,13
1526905400780492,2,2,-1,-5,16,4,26,8
1526905400780492,2,11,-4,1,-51,-43,-25,1
1526905400792460,-2,11,-6,-6,24,36,56,1
1526905400792460,-1,24,11,4,-5,-14,-55,-18
1526905400801436,6,-21,-8,-9,-36,-19,-13,-6
1526905400801436,-3,11,0,4,22,-8,-3,-4
1526905400816396,-3,-11,-1,2,13,22,22,21
1526905400816396,0,-12,-11,-5,-36,-17,-3,-20
1526905400817394,1,-27,0,4,44,7,3,14
1526905400817394,0,-4,-2,-9,-42,-11,-27,-2
1526905400838337,-2,9,8,6,-4,5,28,16
1526905400838337,-3,5,-4,1,53,15,-51,-15
1526905400840332,4,-6,-7,-2,-11,-11,-2,3
1526905400840332,-2,0,14,2,7,14,7,-6
1526905400852300,-4,9,-7,-15,-82,-29,-1,-7
1526905400852300,-2,-13,-2,9,59,7,8,18
1526905400861276,1,20,2,-6,10,7,-31,-1
1526905400861276,4,-11,8,8,38,23,41,3
1526905400876236,5,17,1,-2,-6,-4,-30,2
1526905400876236,-1,-4,0,-7,-40,-15,-2,4
1526905400877234,-9,-4,-4,3,-35,-16,5,-9
1526905400877234,10,-3,-6,-7,4,-3,-19,5
1526905400898177,-22,-11,1,4,33,11,26,2
1526905400898177,-3,6,-2,-5,-8,-6,-19,2
1526905400900173,2,-8,-5,-2,-23,-5,5,-23
1526905400900173,1,13,-7,0,-2,10,-31,6
1526905400912140,4,-11,4,7,-4,-31,10,-11
1526905400912140,2,24,8,0,-12,17,12,-5
1526905400921116,-6,-17,2,-4,19,7,15,0
1526905400921116,0,-3,1,6,2,-1,-4,-6
1526905400936076,2,-2,-8,-5,-8,-23,-33,-11
1526905400936076,-7,-12,-4,-4,-20,1,42,2
1526905400938071,3,0,4,-2,29,10,2,8
1526905400938071,-1,-7,-1,-7,-14,8,31,-5
1526905400959015,1,-5,2,7,31,21,-22,6
1526905400959015,4,-4,-8,-10,-15,-14,4,-6
1526905400960012,-1,12,1,8,-33,-18,14,-2
1526905400960012,0,-3,0,-1,16,3,-36,-3
1526905400971980,1,5,-1,4,21,10,10,-3
1526905400971980,1,8,-3,4,-46,-13,-21,12
1526905400980956,-1,-2,0,-4,8,-16,-3,-15
1526905400980956,-6,0,-2,1,1,13,12,4
1526905400995916,12,-12,1,6,42,21,-10,0
1526905400995916,-3,3,6,15,4,-3,18,-7
1526905401001900,2,-5,-4,-6,-8,12,15,7
1526905401001900,-3,24,6,1,-21,-20,5,-3
1526905401018855,-4,-6,-6,-11,-35,-12,-3,-6
1526905401018855,2,5,0,-4,30,6,6,10
1526905401019852,-5,-4,0,-3,-8,2,65,17
1526905401019852,8,-10,-11,-2,-11,-1,-26,-26
1526905401031820,-5,-1,2,1,36,5,2,15
1526905401031820,-3,9,1,-10,17,10,2,-9
1526905401040796,-1,-5,-4,-9,-11,-4,-19,1
1526905401040796,1,-21,-2,2,-16,17,20,7
1526905401055756,-2,11,-1,-3,-9,-21,-10,6
1526905401055756,-4,-10,3,21,32,-9,-9,-20
1526905401062738,1,2,-2,-9,-26,-2,-17,7
1526905401062738,-6,-5,-6,-3,10,1,-5,6
1526905401078695,-8,-22,-8,-6,-29,2,-1,-9
1526905401078695,-1,6,7,3,-2,3,51,9
1526905401080690,-3,-14,-2,6,1,-12,-68,-23
1526905401080690,-4,8,-2,-13,-14,-16,-6,3
1526905401092657,2,-11,1,13,6,2,2,10
1526905401092657,0,27,-4,3,7,3,28,-1
1526905401101633,-6,-14,-2,16,9,1,-16,0
1526905401101633,9,-3,5,-11,-6,16,2,4
1526905401115596,-1,6,-1,-18,-4,-27,-9,-16
1526905401115596,1,-15,1,-9,-5,13,9,7
1526905401122577,-1,4,1,-6,-2,-1,-13,-7
1526905401122577,0,-10,-7,0,28,6,10,-5
1526905401138535,6,25,6,-2,-20,7,-7,9
1526905401138535,-3,-18,4,-9,-31,-15,-16,-11
1526905401140529,1,12,-4,-9,-1,7,13,-1
1526905401140529,-7,10,9,3,-11,-8,5,2
1526905401161473,-2,-14,-6,0,-15,-6,-35,17
1526905401161473,-2,-7,-7,7,-6,-7,-19,-1
1526905401162471,0,16,12,18,-8,7,8,10
1526905401162471,2,14,2,23,51,1,25,-4
1526905401175436,-7,-5,-2,2,-28,12,-12,-5
1526905401175436,6,13,0,-10,13,12,6,2
1526905401182417,-10,-4,-1,3,11,9,7,8
1526905401182417,-5,-14,-4,9,21,-17,4,4
1526905401198375,2,5,7,-10,-47,-15,17,0
1526905401198375,2,9,-1,-4,20,11,-4,-11
1526905401200370,1,-4,-3,-10,-9,-8,4,-9
1526905401200370,-2,-1,1,-11,-18,2,7,4
1526905401221313,-7,-1,-1,-2,13,6,-12,-10
1526905401221313,-1,-20,-6,-5,1,1,18,14
1526905401222311,5,10,6,4,11,-4,-4,-7
1526905401222311,-2,1,0,-1,1,-12,-17,-8
1526905401235276,-3,11,-9,-4,10,-9,-1,-21
1526905401235276,1,15,-4,-6,-20,27,15,10
1526905401242257,1,3,-2,-4,26,9,2,-23
1526905401242257,-1,1,-2,5,15,-7,4,8
1526905401258215,1,0,11,3,-22,7,-8,-11
1526905401258215,-1,-3,-2,-4,14,-25,-42,5
1526905401260209,-1,-2,-2,2,-14,10,2,-12
1526905401260209,1,-10,-12,-20,-32,-29,-11,6
1526905401281153,1,-9,2,2,-5,17,16,6
1526905401281153,2,1,5,13,38,5,-18,-5
1526905401283148,3,-11,-11,-13,-27,7,10,1
1526905401283148,1,-4,10,7,30,16,7,9
1526905401295116,-1,-6,-6,0,2,-15,9,-3
1526905401295116,-5,2,-3,-15,-76,-25,-5,5
1526905401302097,7,-11,-5,4,46,9,-30,9
1526905401302097,-8,5,-9,-3,-30,-3,-10,0
1526905401319052,-2,-30,-3,6,20,16,28,-4
1526905401319052,1,50,11,10,35,-5,-19,-14
1526905401320049,4,1,-3,-13,-16,-5,19,16
1526905401320049,-5,-3,-1,3,-7,-5,-5,-4
1526905401340993,0,-8,-7,-6,-9,-17,-10,-6
1526905401340993,-6,-27,-5,-17,-55,-8,-1,10
1526905401342988,-6,0,3,10,27,3,33,0
1526905401342988,9,33,11,1,36,2,-89,-26
1526905401354956,-3,11,0,0,-11,8,9,13
1526905401354956,-2,-15,-8,-16,-7,6,9,-8
1526905401363932,-1,-6,10,3,-27,3,13,-1
1526905401363932,1,-1,-7,2,11,5,38,-7
1526905401378892,-11,-4,-1,-5,-40,-30,-56,-19
1526905401378892,3,-3,3,8,36,-2,-12,4
1526905401379889,1,-5,1,-8,5,19,1,-6
1526905401379889,-5,-11,-4,5,-5,-3,27,5
1526905401400833,3,16,-7,4,-2,1,17,-11
1526905401400833,2,-7,-3,-2,-31,-12,11,11
1526905401402828,-5,-22,-8,-1,8,0,-2,9
1526905401402828,2,36,5,-4,-21,-4,-19,-1
1526905401414796,0,-8,-6,-3,17,3,12,10
1526905401414796,-5,-21,2,3,1,0,-12,-26
1526905401423772,0,28,16,6,-7,-18,15,17
1526905401423772,-1,-26,-12,-9,0,6,-53,-3
1526905401438732,5,5,11,5,32,11,19,21
1526905401438732,-3,-15,-10,6,-10,-9,21,-2
1526905401440726,-10,33,-1,-13,-36,-18,8,-17
1526905401440726,-1,-10,-1,2,58,22,35,2
1526905401460673,2,0,-1,0,-17,-1,1,1
1526905401460673,1,-3,0,8,13,-3,-28,7
1526905401462668,-4,-1,-3,9,35,19,4,-13
1526905401462668,8,11,6,-12,-41,-9,16,1
1526905401474636,-6,4,-8,-6,6,1,2,1
1526905401474636,-3,0,-9,-7,-26,-18,14,4
1526905401483612,2,-20,-2,10,16,9,-19,-26
1526905401483612,-3,-16,-7,-2,-16,1,8,7
1526905401498572,3,-20,-2,-2,26,3,-3,-2
1526905401498572,-7,-14,-2,-5,-16,-2,-19,5
1526905401500567,1,-5,-5,2,5,-6,13,10
1526905401500567,-7,-22,-4,-5,-12,-11,-6,-27
1526905401521510,-3,14,2,-2,-25,-3,19,8
1526905401521510,-5,14,1,-2,27,9,-5,-5
1526905401522508,1,-7,-1,1,2,-1,34,5
1526905401522508,-1,0,6,5,23,17,-29,-3
1526905401534476,0,-10,-7,-4,10,4,6,3
1526905401534476,0,12,8,11,6,12,5,-11
1526905401543452,-1,-9,-2,-3,6,-1,-25,-16
1526905401543452,-2,-4,2,-2,-25,-21,21,12
1526905401558412,0,-12,-8,-1,-29,-9,-21,-7
1526905401558412,-1,-4,1,-5,21,4,-8,4
1526905401560407,-1,-21,-7,-7,-21,-10,-19,-2
1526905401560407,-4,-2,-5,3,20,15,3,3
1526905401581350,6,22,16,-6,5,0,32,4
1526905401581350,-2,-11,4,-10,-4,-3,-22,-8
1526905401582348,3,12,-5,-22,-24,-14,-25,9
1526905401582348,-1,11,5,-10,11,5,12,0
1526905401594316,3,7,-4,-6,-5,-4,0,-8
1526905401594316,-3,2,-10,3,-18,-24,11,5
1526905401603291,5,-4,3,1,-4,0,-39,-9
1526905401603291,3,10,3,7,8,22,19,4
1526905401618252,-3,-31,-4,10,29,-10,-44,-10
1526905401618252,6,53,1,-9,-47,2,-8,-1
1526905401620247,6,3,12,22,51,10,2,1
1526905401620247,-2,4,3,-2,-55,-29,0,-13
1526905401641190,-2,-8,3,6,30,6,8,3
1526905401641190,-7,-11,-1,4,-1,-8,-4,-4
1526905401643186,-2,-9,-9,-10,-19,2,15,12
1526905401643186,-2,-1,1,-1,10,0,-7,-13
1526905401655153,1,26,3,-1,-10,-2,2,-2
1526905401655153,15,-14,1,10,22,6,15,11
1526905401664129,-14,9,-7,-9,-26,1,1,2
1526905401664129,5,-2,2,15,20,-20,3,0
1526905401679089,3,2,-4,-15,-14,16,-8,-3
1526905401679089,0,-12,-5,-5,6,-1,-6,-7
1526905401680087,2,16,2,10,5,18,11,14
1526905401680087,-1,-20,2,-1,3,-9,0,-1
1526905401701030,-5,-23,-9,2,-26,-15,29,-2
1526905401701030,-1,7,4,-8,-13,3,-17,2
1526905401703025,2,11,3,14,9,-10,-7,-20
1526905401703025,3,-4,-9,-8,8,31,28,19
1526905401714993,-4,4,5,-6,6,-5,-2,-13
1526905401714993,-2,-23,-8,11,23,10,21,0
1526905401723969,2,-2,-5,-6,-22,-13,-10,-5
1526905401723969,9,1,1,-4,-16,-15,-3,16
1526905401738929,-9,0,-4,4,14,10,2,-14
1526905401738929,-2,-19,-5,-1,23,11,-4,-3
1526905401739926,-3,8,-2,-1,-13,-1,6,23
1526905401739926,-6,5,-2,-9,-20,-13,-13,-17
1526905401760870,3,1,-2,-1,-42,-15,-13,10
1526905401760870,-1,13,11,-1,15,-11,-5,-4
1526905401762865,4,-21,-10,5,39,22,-11,3
1526905401762865,-21,-24,-7,-4,-17,-3,-59,-5
1526905401774833,0,11,8,12,-25,-31,-13,1
1526905401774833,1,0,-7,-11,-4,19,44,14
1526905401783809,-1,1,1,0,33,4,-29,-13
1526905401783809,4,-7,-4,-12,7,9,31,1
1526905401798769,4,31,0,2,-26,-16,-20,8
1526905401798769,-5,9,5,8,15,21,-33,-11
1526905401799767,-1,-14,0,-6,-10,-17,15,3
1526905401799767,-7,17,0,2,-11,-6,-24,-8
1526905401820710,-2,-18,-1,-6,8,2,14,5
1526905401820710,5,-12,-6,-7,-48,-17,7,10
1526905401822705,0,13,1,6,13,-1,8,0
1526905401822705,2,14,1,14,14,9,-7,-6
1526905401834673,-2,-8,-9,-21,17,8,11,4
1526905401834673,-1,-16,2,15,22,16,27,5
1526905401843649,3,34,-3,-13,-13,-10,-86,-1
1526905401843649,-14,-6,7,21,-30,-19,24,16
1526905401858609,-4,-4,-7,19,15,-10,-12,-9
1526905401858609,-1,4,8,10,-17,22,11,-18
1526905401860604,1,-8,1,11,68,8,58,15
1526905401860604,16,-2,-3,-5,9,21,-8,5
1526905401881548,-5,17,3,6,-9,0,-26,4
1526905401881548,-8,-17,-7,-7,-50,-29,-10,-10
1526905401882545,2,12,4,4,30,-3,17,-9
1526905401882545,4,-6,-7,-13,-13,-8,-34,-9
1526905401894513,3,-6,5,1,27,15,22,-3
1526905401894513,-4,-27,-19,-23,-22,-23,-36,-2
1526905401903489,-3,-11,11,-4,-25,4,20,-3
1526905401903489,0,11,-2,-7,16,-2,4,-8
1526905401917451,-5,-5,1,-3,3,10,15,0
1526905401917451,-2,11,2,9,-16,-18,-10,-3
1526905401924433,-4,-17,-6,-22,14,14,34,4
1526905401924433,2,6,3,7,-14,-22,-17,0
1526905401941387,-11,-11,-4,-14,23,23,-27,-3
1526905401941387,7,13,6,3,28,-11,7,15
1526905401942385,-4,-6,-4,-1,-62,-15,-18,-38
1526905401942385,2,-3,-3,1,29,23,24,7
1526905401954353,3,-11,-7,-9,-9,-4,-23,-10
1526905401954353,5,32,2,3,46,20,24,16
1526905401963329,-2,-4,0,-10,-21,-9,-28,6
1526905401963329,3,5,-4,-15,-19,-16,-6,-8
1526905401978289,0,13,6,-4,-31,-18,3,-1
1526905401978289,-5,-6,-12,-10,12,8,5,-1
1526905401984273,4,-4,0,4,-1,6,2,3
1526905401984273,1,1,3,5,-9,-4,-8,-2
1526905402001228,2,18,-1,3,24,15,58,12
1526905402001228,-5,5,1,12,-20,-18,-37,-14
1526905402003222,2,8,-2,10,-19,-15,-18,17
1526905402003222,-5,-24,-10,-4,5,3,8,-23
1526905402015190,0,2,4,10,-7,0,30,11
1526905402015190,-3,-8,0,5,51,18,-3,-5
1526905402024167,-2,4,-3,2,-36,-13,4,4
1526905402024167,14,2,5,-5,26,16,15,9
1526905402038129,-6,-16,0,4,-8,-15,-47,5
1526905402038129,-1,12,6,-2,-44,2,5,-24
1526905402045110,-5,-13,-6,-1,44,-1,-9,-2
1526905402045110,0,21,4,-5,-58,1,30,5
1526905402061067,1,-11,-11,0,21,-8,-8,0
1526905402061067,6,14,8,-8,8,5,24,20
1526905402063062,0,15,-3,-4,46,28,18,-15
1526905402063062,-3,-8,0,9,-28,-14,-4,4
1526905402075030,-4,-8,-2,-9,-15,1,-9,-16
1526905402075030,-3,2,-5,-6,-20,-14,-4,4
1526905402084006,-5,-21,-6,-6,-16,-8,16,13
1526905402084006,-2,2,-3,1,24,9,-6,-10
1526905402097969,3,2,8,2,-32,-7,-4,7
1526905402097969,-1,-24,-9,-7,6,-4,-3,-3
1526905402104950,-5,-15,-6,-6,-3,6,12,0
1526905402104950,6,21,18,7,3,-12,-20,7
1526905402120908,-11,-9,-1,2,22,26,18,-1
1526905402120908,0,-1,-3,-4,2,-3,-3,-9
1526905402122902,7,-7,-2,1,-38,-6,-29,1
1526905402122902,-20,17,-4,-5,11,-25,2,7
1526905402143846,4,-17,-5,-10,7,9,-10,-25
1526905402143846,5,19,5,-3,20,20,9,14
1526905402144844,-3,1,1,9,-3,-9,20,9
1526905402144844,-2,0,-3,-11,-24,-11,-14,5
1526905402157809,6,1,-2,12,30,7,2,-2
1526905402157809,-8,-31,-9,-13,-32,-11,-13,2
1526905402164790,0,6,19,6,-3,-8,8,-7
1526905402164790,0,-17,-8,3,-15,4,0,8
1526905402180747,2,5,7,1,14,10,-37,7
1526905402180747,-2,-15,-9,5,16,2,7,-16
1526905402182742,-9,-2,-3,-5,-25,-9,-3,-5
1526905402182742,10,1,-2,-7,-11,-21,-5,-1
1526905402203686,-1,-8,-1,2,29,26,39,13
1526905402203686,2,15,3,-3,7,18,-7,6
1526905402205681,-1,-26,2,15,18,1,-4,-10
1526905402205681,-5,25,3,-9,-3,4,10,-3
1526905402217649,5,-4,-7,1,-7,-7,49,4
1526905402217649,1,-33,5,-2,-28,-19,-76,-11
1526905402224630,0,84,11,0,2,0,0,7
1526905402224630,1,-27,-12,-6,-19,-1,-3,-2
1526905402240587,0,-3,-2,-2,-4,-2,6,-11
1526905402240587,-1,-9,10,13,58,14,36,17
1526905402242582,6,-8,-12,-12,-31,-3,-6,-14
1526905402242582,-3,-4,5,7,-32,-15,-31,-2
1526905402263526,2,16,1,-1,61,17,-22,1
1526905402263526,-6,20,2,15,-3,-16,10,-3
1526905402265521,2,-18,-16,-23,5,26,3,6
1526905402265521,-1,6,4,4,6,-2,13,7
1526905402277489,-8,-24,-5,-10,-45,-23,-24,-19
1526905402277489,10,-2,3,5,0,-2,6,4
1526905402284470,-9,10,-7,-2,-7,-6,8,-2
1526905402284470,-6,-35,-12,-3,5,5,2,-4
1526905402301425,-2,7,5,1,-5,-2,1,2
1526905402301425,3,14,-4,5,-10,-1,32,-2
1526905402302422,-4,-28,-2,-3,6,-3,-61,6
1526905402302422,3,0,10,5,21,14,26,-8
1526905402323366,-7,-8,-7,-4,-16,-17,-29,-14
1526905402323366,-2,16,-3,-7,-1,0,8,11
1526905402325361,5,-7,4,4,2,8,22,-11
1526905402325361,-1,-10,-8,9,21,12,-5,-1
1526905402337329,1,-6,-2,-3,2,-1,0,0
1526905402337329,-6,-1,1,-4,-55,-14,3,-10
1526905402346305,-4,-18,-11,4,20,14,7,-4
1526905402346305,-2,-2,10,-2,30,-6,-30,-12
1526905402361265,6,54,11,8,14,11,19,-2
1526905402361265,1,9,-7,-5,-7,6,-9,2
1526905402362262,-1,-7,1,19,-16,-17,-2,4
1526905402362262,-1,1,3,-11,-15,-3,9,10
1526905402383206,5,-9,-10,-11,-21,-10,20,-4
1526905402383206,-5,23,5,-18,26,-6,-87,-14
1526905402385201,1,4,-2,-15,6,-7,22,-6
1526905402385201,-2,4,-3,-9,14,17,22,-8
1526905402397169,6,-22,-2,-18,-20,-14,-12,20
1526905402397169,-4,-12,-6,-7,-25,-6,3,-8
1526905402406145,0,-11,0,-3,-24,-17,16,6
1526905402406145,4,24,1,11,32,8,-28,9
1526905402421105,-8,1,4,10,-11,1,-4,-3
1526905402421105,-5,-29,-17,1,-6,-11,18,-16
1526905402423100,-3,7,15,8,-1,-12,-43,-4
1526905402423100,-2,-17,-2,4,37,24,8,5
1526905402444043,-4,0,-10,3,-28,-19,5,10
1526905402444043,0,-11,-6,-4,32,17,13,11
1526905402445041,1,10,-2,-3,-24,-15,4,-7
1526905402445041,-4,-4,-4,6,5,12,-20,-1
1526905402457008,-3,8,0,6,-18,-19,17,-12
1526905402457008,0,9,11,9,21,14,-54,8
1526905402465985,5,-1,-2,7,29,-1,1,-1
1526905402465985,-1,-7,-4,-9,-7,11,21,1
1526905402480945,2,1,-7,-9,-30,-15,16,12
1526905402480945,-1,7,9,7,16,-4,1,-2
1526905402482939,5,8,0,-4,-15,-4,-10,8
1526905402482939,-2,3,-7,3,-4,-16,-14,-24
1526905402503883,4,9,11,5,55,33,-20,3
1526905402503883,6,1,-5,-1,-38,-16,24,4
1526905402504881,-20,-21,-5,-3,32,24,-2,-11
1526905402504881,-1,-4,-3,-3,-30,-21,2,5
1526905402516848,-2,3,-2,-7,-14,-7,-25,-3
1526905402516848,-2,-16,-2,0,-12,-10,18,1
1526905402525825,0,-28,-4,-4,10,16,14,5
1526905402525825,1,11,0,-11,-31,-4,-15,-7
1526905402540784,-3,8,5,17,62,29,47,14
1526905402540784,-3,2,7,0,-4,-7,-44,-17
1526905402542780,4,-3,-7,-4,-29,-20,6,6
1526905402542780,-5,-12,-8,-6,-62,-29,9,-2
1526905402563723,-1,-4,10,5,37,17,-1,4
1526905402563723,5,14,0,-4,-2,11,21,-12
1526905402565718,0,15,-1,4,26,10,4,18
1526905402565718,-4,-3,-4,-6,7,2,1,-31
1526905402577686,-4,-17,-4,1,-33,-17,-32,-5
1526905402577686,1,0,1,4,-2,-10,8,4
1526905402586662,1,6,1,-8,15,17,-8,-3
1526905402586662,-2,-5,-4,-8,-7,-6,0,4
1526905402600625,-1,-3,-5,1,-22,-17,3,4
1526905402600625,0,-5,3,-12,23,16,-6,-9
1526905402602620,2,-16,-1,-6,-6,-7,-6,-4
1526905402602620,-2,-4,-4,22,29,13,1,5
1526905402623563,-2,4,6,11,5,-4,-2,-11
1526905402623563,0,13,-10,11,4,3,5,8
1526905402625558,1,-5,8,5,-24,-12,-8,-2
1526905402625558,-1,-1,1,6,7,5,20,8
1526905402637526,3,-3,-12,-22,-50,-24,-25,-8
1526905402637526,-21,-12,-1,13,44,18,29,-6
1526905402646502,11,33,2,-1,-21,1,3,3
1526905402646502,5,9,5,-4,8,-2,-35,-9
1526905402661462,7,-22,-5,-9,-19,-2,3,-4
1526905402661462,0,12,-3,3,16,9,-2,12
1526905402662459,2,7,4,4,4,11,-3,-19
1526905402662459,3,9,4,10,87,8,13,25
1526905402683403,-5,-17,-9,-25,-29,3,4,-40
1526905402683403,1,-7,2,25,13,7,46,9
1526905402685398,-2,-10,-5,-5,-23,-5,-25,-7
1526905402685398,-2,-6,-3,-9,-14,-15,-8,7
1526905402697366,0,27,11,0,-6,2,-5,5
1526905402697366,-6,-22,-9,0,14,2,18,-9
1526905402706342,0,28,5,5,-19,-16,8,0
1526905402706342,-1,-13,-4,7,-25,-2,-4,-5
1526905402721302,-3,0,0,11,27,12,-19,14
1526905402721302,7,3,-9,-12,-18,-11,-34,-10
1526905402722299,-4,-14,3,13,1,-5,3,6
1526905402722299,0,3,-2,-20,-50,-1,42,8
1526905402743243,-13,9,-3,16,49,4,-31,-23
1526905402743243,16,1,2,-23,-23,-1,2,-2
1526905402745238,-14,-4,-6,-8,53,22,-9,13
1526905402745238,-3,2,-3,-4,13,-10,-13,-1
1526905402757206,4,-11,4,3,-31,10,35,23
1526905402757206,5,16,1,-10,-6,-4,-21,-5
1526905402766182,-1,-3,-5,-2,10,-16,1,0
1526905402766182,6,4,6,15,-13,22,-7,2
1526905402781142,-4,-3,-4,-13,-29,-23,-4,-10
1526905402781142,-7,3,-1,7,33,-5,-9,1
1526905402783136,8,-17,-4,-7,-4,15,-10,3
1526905402783136,4,7,-1,-6,-19,-6,36,-2
1526905402804080,1,1,-3,-2,26,-6,-34,-19
1526905402804080,-4,-4,0,-10,-28,-5,16,19
1526905402805078,-2,-1,-5,10,-8,-9,8,-20
1526905402805078,-2,-15,-4,-10,-8,1,-24,0
1526905402817046,1,19,0,5,32,7,25,1
1526905402817046,0,-9,-3,-21,-33,-19,-66,2
1526905402826022,7,0,4,18,28,17,61,1
1526905402826022,-7,1,-6,-2,-21,-15,-41,-21
1526905402840982,0,4,-2,13,19,16,43,14
1526905402840982,-9,-4,-2,-4,29,6,6,3
1526905402842977,1,-1,0,-14,-31,-2,12,4
1526905402842977,-1,9,7,17,3,-5,-19,-10
1526905402863920,-2,-13,-4,-1,-1,-4,-2,12
1526905402863920,6,-25,-4,3,-22,-22,15,-3
1526905402864918,-10,26,6,-20,-9,9,-21,-6
1526905402864918,0,23,1,-5,8,9,14,1
1526905402876886,-3,-22,-9,-9,-22,0,0,4
1526905402876886,5,12,12,9,32,9,2,2
1526905402885862,2,2,1,-3,-21,-14,-7,2
1526905402885862,-4,-11,-10,6,2,1,6,6
1526905402900822,5,10,8,-14,-33,-17,12,-16
1526905402900822,-5,-12,-2,12,-45,25,44,17
1526905402906806,-1,7,4,3,109,13,-29,-27
1526905402906806,3,2,3,5,8,13,25,11
1526905402923760,1,7,-2,2,-8,-7,-37,5
1526905402923760,-5,-3,1,0,-13,-19,33,-3
1526905402924758,-5,-1,-1,-3,-64,-18,-10,-11
1526905402924758,1,-18,-4,-3,56,21,-19,11
1526905402937723,6,35,8,-3,-23,-5,25,1
1526905402937723,-21,8,3,-11,-44,-26,-17,-8
1526905402946699,1,-9,-4,12,40,17,-3,6
1526905402946699,-1,-10,-6,-5,5,0,-1,-11
1526905402960661,-1,20,12,10,-3,2,-1,18
1526905402960661,1,0,-7,-2,1,-5,-24,-24
1526905402967643,-5,-13,-8,-7,-13,-12,4,6
1526905402967643,1,10,-1,-3,-15,-5,9,13
1526905402983600,-5,3,5,1,18,4,-15,-4
1526905402983600,-3,-17,-11,12,4,-3,-13,0
1526905402985595,-4,-2,-4,-8,-10,8,-20,-10
1526905402985595,3,10,3,-4,8,-3,11,4
1526905402997563,-4,-21,-11,-8,-12,-12,-16,2
1526905402997563,2,-11,-2,-1,12,5,-3,-13
1526905403006539,-2,21,-1,8,-29,2,4,21
1526905403006539,-3,21,1,-14,-15,-11,13,-10
1526905403020502,-1,-8,2,8,20,5,3,-8
1526905403020502,4,-8,-13,-14,-22,2,12,12
1526905403027483,-1,-18,-6,-1,15,-9,-22,-18
1526905403027483,10,8,5,7,-27,-17,2,-6
1526905403043440,-8,-12,-5,-14,-15,-1,-15,3
1526905403043440,1,18,10,13,29,7,19,7
1526905403045435,3,-1,-8,-6,12,15,40,10
1526905403045435,-1,-8,2,1,42,7,-32,-17
1526905403057403,-4,-13,-1,10,-5,-4,-6,-5
1526905403057403,0,-7,-2,-7,-17,-5,-7,-8
1526905403066379,3,4,0,-13,-54,-23,13,12
1526905403066379,-7,5,3,14,33,28,42,-4
1526905403080341,6,14,-5,-1,24,16,-44,4
1526905403080341,-9,-3,1,-2,9,-3,4,1
1526905403087323,2,-6,-2,-7,-27,-31,-11,5
1526905403087323,-7,-5,-3,-3,-28,-6,0,5
1526905403103280,0,-21,6,3,-1,-1,3,4
1526905403103280,5,13,-6,-2,10,3,-26,-12
1526905403105275,0,-13,3,2,28,22,7,-1
1526905403105275,-4,-18,-4,-4,-33,-8,21,6
1526905403126219,1,10,-5,-5,44,2,-18,4
1526905403126219,-2,-1,0,3,-5,-1,-6,-7
1526905403128214,6,-3,0,4,10,14,28,-2
1526905403128214,-10,-8,0,3,2,-7,-13,-9
1526905403140182,5,-3,0,1,-12,-12,15,1
1526905403140182,-1,0,-3,-9,-4,1,-4,10
1526905403147163,-1,-2,0,-4,-11,-18,-24,-10
1526905403147163,0,13,-1,-8,-3,5,12,-6
1526905403163120,-3,-19,-4,5,35,13,0,-1
1526905403163120,9,-15,0,-4,-17,3,-13,-8
1526905403165115,-3,13,0,3,5,-1,10,6
1526905403165115,-2,-30,-10,6,-16,-15,-33,7
1526905403186059,-5,8,15,-7,-21,-8,13,-3
1526905403186059,-2,12,4,4,22,3,7,2
1526905403188054,8,-3,2,5,-16,-6,2,-1
1526905403188054,-22,-12,-7,1,-47,-19,-19,-4
1526905403200021,5,10,-13,-10,81,21,7,1
1526905403200021,3,-3,4,8,1,4,1,3
1526905403207003,-7,-13,-11,-11,-28,-2,7,3
1526905403207003,6,16,12,-8,-8,-21,-34,15
1526905403223958,-6,-2,-11,0,-22,-11,19,-10
1526905403223958,5,-5,-2,-3,-3,27,-12,16
1526905403224955,-15,-3,-1,1,20,-6,-26,-17
1526905403224955,7,13,-1,-30,-28,-7,10,6
1526905403245899,-6,-9,1,3,3,-3,-22,-10
1526905403245899,3,-14,-5,-36,-21,-20,44,-3
1526905403247894,-1,38,11,5,20,24,-26,10
1526905403247894,3,4,7,12,34,13,16,-4
1526905403259861,-16,-4,-3,4,-34,-9,-1,1
1526905403259861,1,21,-2,16,17,-7,-7,-8
1526905403268838,0,-20,2,3,-26,-9,10,-9
1526905403268838,-4,-21,-10,-6,-11,-2,-24,-2
1526905403283797,7,22,2,7,12,-13,6,5
1526905403283797,-6,7,2,7,-14,23,3,1
1526905403284795,2,-2,-7,-6,-3,-15,-38,-1
1526905403284795,3,-12,5,9,34,21,18,4
1526905403305739,3,22,0,1,-18,7,1,-4
1526905403305739,-2,-7,2,7,7,-15,-81,2
1526905403307734,3,-7,-8,-7,-40,-30,19,-4
1526905403307734,3,37,10,11,33,31,35,8
1526905403319702,5,-18,-8,-6,2,5,-17,-10
1526905403319702,-6,-4,4,-1,-11,-9,34,-9
1526905403328678,-2,5,8,8,43,7,-13,9
1526905403328678,-3,-14,-6,-6,-55,-24,-23,-17
1526905403343638,-1,-11,-1,0,16,18,50,21
1526905403343638,6,19,7,4,20,-4,-10,-11
1526905403345632,-4,-17,-14,-6,-42,-4,19,3
1526905403345632,6,0,18,3,45,7,-6,-6
1526905403366576,2,44,6,1,-17,-12,22,2
1526905403366576,-10,-32,-13,-9,-16,-1,-8,1
1526905403367574,5,20,9,7,30,-1,1,-1
1526905403367574,-1,-14,-10,-5,15,17,16,0
1526905403379541,1,-17,-5,-2,-3,6,3,5
1526905403379541,-18,8,6,-3,-30,-21,-13,2
1526905403388518,24,10,0,2,2,0,-2,-1
1526905403388518,-15,2,-5,1,-16,-6,1,-8
1526905403403477,-8,-16,1,-8,6,-1,-39,-1
1526905403403477,-12,1,-3,5,48,22,45,18
1526905403405472,3,-9,1,-4,-14,-7,-14,-14
1526905403405472,1,5,-4,-5,-1,-12,-11,-5
1526905403426416,-11,21,0,-2,-31,-4,4,-5
1526905403426416,24,-29,-8,-5,-7,-9,-1,2
1526905403427414,-24,-10,0,-2,8,10,5,3
1526905403427414,12,38,11,0,-15,-11,-5,-3
1526905403439381,-9,-24,-3,-1,-36,-20,58,-1
1526905403439381,-9,-3,-13,-1,7,-5,-50,-3
1526905403448357,11,-4,3,2,48,29,18,-7
1526905403448357,-6,-22,-10,-4,-36,-13,-22,3
1526905403463318,7,7,1,5,-36,-6,27,9
1526905403463318,15,17,4,0,58,10,-22,-7
1526905403465312,-22,-15,-6,-14,-47,-18,1,2
1526905403465312,24,-1,0,9,49,18,12,11
1526905403486256,-33,-11,-5,6,14,11,-15,-3
1526905403486256,7,4,0,1,-47,-15,6,-4
1526905403488251,4,2,-4,-7,-11,-9,-20,-2
1526905403488251,-8,-8,3,-1,2,-3,4,-3
1526905403500219,6,4,2,-7,-15,-2,-21,3
1526905403500219,-2,0,-5,-5,8,3,18,-1
1526905403509195,-4,5,11,9,11,-4,6,12
1526905403509195,-2,-17,-9,-5,-3,7,-13,-2
1526905403523157,30,1,4,7,26,3,-13,-13
1526905403523157,-9,-17,-9,-15,-19,0,6,3
1526905403525152,10,11,8,2,-14,-5,2,1
1526905403525152,-2,2,-8,15,-16,-29,-48,-10
1526905403546096,10,-5,2,0,111,71,20,2
1526905403546096,-3,1,4,8,-15,-10,18,-2
1526905403548091,3,-2,-2,9,-29,-8,-38,5
1526905403548091,-27,-12,-5,-1,-13,-31,-4,-14
1526905403560059,13,-10,1,22,-16,0,-9,5
1526905403560059,5,14,5,18,13,2,8,-3
1526905403569035,-4,-4,-5,-5,-19,8,9,12
1526905403569035,2,5,1,4,2,-5,14,1
1526905403583994,-6,-4,-5,-11,-21,-19,-27,-3
1526905403583994,-3,-1,3,-7,9,13,12,-4
1526905403584992,5,11,0,13,19,-6,-30,-1
1526905403584992,0,5,-6,-19,4,10,-3,-7
1526905403605936,-10,-9,-2,-5,-13,-17,-5,1
1526905403605936,2,-6,-2,-5,-11,9,14,0
1526905403607931,-6,44,5,0,-23,-6,10,-1
1526905403607931,6,-16,0,-4,87,22,11,-17
1526905403619899,1,12,5,-10,-48,-1,-11,21
1526905403619899,0,2,-2,-9,10,-13,-39,-12
1526905403628875,5,-9,-3,0,24,14,32,3
1526905403628875,-3,-3,-4,-7,-11,11,29,20
1526905403643835,-4,3,-2,1,-8,-23,-53,-13
1526905403643835,-1,-2,10,28,-1,6,17,6
1526905403644832,-2,-18,-9,-8,-3,-4,-2,-4
1526905403644832,6,14,3,2,4,-6,16,9
1526905403665776,-8,-19,-7,-9,11,18,18,-10
1526905403665776,2,11,-9,-11,-15,-15,-1,3
1526905403667771,-8,-15,5,-1,-14,-7,-1,-4
1526905403667771,4,22,13,15,-5,21,16,13
1526905403679738,2,-10,-6,-4,-6,2,-7,-8
1526905403679738,-4,24,-1,-2,33,7,4,0
1526905403688715,3,-16,-3,-9,4,-11,-7,-10
1526905403688715,8,-6,-4,-7,-51,-7,-9,0
1526905403703674,-3,6,-2,3,-6,-12,6,-4
1526905403703674,4,-12,-2,-7,-2,1,10,9
1526905403705670,-10,11,3,-1,14,8,3,-12
1526905403705670,-9,-4,-1,-7,-42,-15,-11,-21
1526905403726613,10,6,-1,2,59,10,-13,7
1526905403726613,-6,-9,2,4,-14,-3,14,-2
1526905403727611,-8,0,-5,-23,-4,-3,-7,-7
1526905403727611,3,-14,-11,5,-36,-18,-6,2
1526905403739579,4,20,12,-2,34,24,33,-5
1526905403739579,-5,-4,0,9,-4,-4,-10,-1
1526905403748555,1,-3,1,10,2,5,16,9
1526905403748555,-12,3,-1,-7,37,13,-22,-3
1526905403763515,-6,-12,-5,5,-34,-25,-10,-3
1526905403763515,6,14,-4,-12,-3,3,-2,0
1526905403765510,3,2,0,6,12,11,15,14
1526905403765510,4,-28,-11,-11,-17,-14,-2,-16
1526905403786453,-8,9,1,9,15,-6,-54,-6
1526905403786453,0,21,13,-6,-4,-3,-8,10
1526905403787451,2,1,-4,-1,-3,4,-4,-4
1526905403787451,0,3,6,4,16,3,12,22
1526905403799418,-3,-18,-8,-14,-34,-21,-11,-14
1526905403799418,-3,-12,-5,-4,-1,-15,11,-6
1526905403808394,2,-3,-5,-7,-17,15,-36,-14
1526905403808394,-1,16,6,10,42,23,21,3
1526905403823354,-20,-12,3,5,10,2,7,-12
1526905403823354,0,22,-3,-1,-12,-9,22,9
1526905403825349,5,3,1,-11,-35,-22,8,10
1526905403825349,-2,-8,-9,-8,8,-13,-17,-17
1526905403846293,3,-7,-10,-3,-15,27,22,12
1526905403846293,1,19,8,5,16,6,-41,-3
1526905403848288,0,26,15,6,30,9,21,4
1526905403848288,0,-10,4,3,-16,-3,-19,8
1526905403860256,-1,-2,-11,-16,-39,-45,-12,-3
1526905403860256,-2,-22,-4,-3,-22,6,30,-9
1526905403869232,1,1,-6,4,29,23,-12,0
1526905403869232,10,18,4,9,54,6,10,16
1526905403883195,-4,-24,-1,-7,-24,-2,17,0
1526905403883195,-2,-18,-7,-8,-12,-5,14,-6
1526905403890176,4,0,0,0,-7,-14,-12,-22
1526905403890176,-9,-9,-6,-2,-20,3,12,0
1526905403906133,-1,27,12,8,0,-13,4,8
1526905403906133,2,-17,-3,-6,3,12,-10,-8
1526905403908128,-2,-27,-10,2,8,-3,-1,9
1526905403908128,1,-11,1,-3,-16,17,7,2
1526905403920096,3,8,-1,12,66,23,-40,6
1526905403920096,-9,-10,-3,-3,-19,-11,2,-11
1526905403929072,0,-12,2,2,1,0,-22,1
1526905403929072,7,7,-1,-12,-65,-33,-12,-3
1526905403943034,-18,-2,2,14,72,30,68,-1
1526905403943034,6,-11,-5,-4,-17,-2,-19,3
1526905403950016,4,-10,-9,-3,-26,-13,-21,-10
1526905403950016,-2,-6,-4,0,9,-6,3,-2
1526905403965973,7,-5,-9,-14,-35,-8,11,-8
1526905403965973,-4,27,12,11,42,15,30,14
1526905403967968,-9,6,-1,-1,6,-2,1,-15
1526905403967968,-5,-10,-6,-8,-15,-4,33,5
1526905403979936,-6,5,-2,-6,-39,-6,-42,-15
1526905403979936,10,-25,-9,-2,-6,-2,-19,6
1526905403988912,-11,-3,-2,22,53,17,8,15
1526905403988912,-8,14,4,-22,-2,11,0,-19
1526905404002874,21,-15,-2,0,40,1,-14,-8
1526905404002874,-1,-6,-7,-5,-38,-12,-17,14
1526905404009856,-10,-1,-3,-7,-13,-10,21,-25
1526905404009856,3,-11,-6,5,-9,-5,-2,10
1526905404025813,1,8,4,10,0,-2,-24,8
1526905404025813,-6,16,-9,-9,-4,-2,-13,-28
1526905404027808,7,6,9,-1,3,0,8,12
1526905404027808,-8,3,2,6,-8,1,-13,-1
1526905404048752,2,-20,-6,-10,-10,14,78,15
1526905404048752,-2,-4,-2,2,-7,3,-5,3
1526905404049749,4,47,5,-7,24,-5,-4,2
1526905404049749,4,-15,-7,-25,-17,4,15,-1
1526905404062714,-4,-14,-3,-13,14,2,11,-7
1526905404062714,-3,-6,1,-2,12,0,-3,9
1526905404069696,4,-3,-2,-1,-12,-8,-10,12
1526905404069696,-10,24,0,8,2,3,-10,-19
1526905404085653,10,1,-7,13,-16,-7,42,8
1526905404085653,-10,3,2,6,18,0,6,2
1526905404087648,4,-21,-10,-14,-39,-17,-20,1
1526905404087648,-5,17,2,14,59,26,10,7
1526905404108592,-4,1,-1,0,-31,-9,15,0
1526905404108592,6,15,6,4,8,-9,-47,-10
1526905404110587,-2,14,-2,5,-16,0,12,-2
1526905404110587,-4,-19,-4,1,-60,-31,-15,0
1526905404122554,-3,-10,-1,-12,45,12,1,0
1526905404122554,-5,4,21,4,-28,-15,4,4
1526905404129536,0,-26,-3,1,-4,3,-6,-4
1526905404129536,-1,4,-6,9,48,32,-16,9
1526905404146490,-2,4,1,-4,-27,-24,-51,-10
1526905404146490,4,-17,-4,-3,-3,2,14,9
1526905404147488,0,-11,1,3,-27,-11,21,-13
1526905404147488,1,10,1,13,63,10,19,5
1526905404168432,-1,0,6,-4,-65,-10,-50,1
1526905404168432,-13,6,-5,5,37,9,52,-19
1526905404170427,7,12,3,-5,46,24,-57,6
1526905404170427,1,-16,-6,-8,-29,-18,-22,-18
1526905404182394,7,13,9,8,4,-1,0,4
1526905404182394,4,21,1,9,6,-5,-6,0
1526905404191371,-3,-14,-2,-8,-27,-6,29,18
1526905404191371,6,-9,-3,7,-5,-13,-6,-9
1526905404206330,-4,10,8,6,37,32,5,-11
1526905404206330,6,12,12,-2,-17,-8,-15,8
1526905404207328,-5,-14,-5,7,11,12,3,9
1526905404207328,5,34,-4,-5,2,-2,13,3
1526905404228271,6,-22,-13,-8,-44,-19,5,-2
1526905404228271,-16,-14,-8,3,11,16,-17,0
1526905404230266,2,22,9,0,18,-12,-30,-13
1526905404230266,-1,-8,-2,-9,-38,-5,40,2
1526905404242234,2,8,-1,-8,-9,-11,-41,-6
1526905404242234,0,-8,-1,6,5,18,40,-6
1526905404251211,-1,9,2,4,24,9,-29,17
1526905404251211,-8,-2,6,15,6,-6,2,-8
1526905404266171,-13,-5,-3,3,18,-2,3,-14
1526905404266171,5,-7,-5,-10,-34,-15,-14,6
1526905404268165,-1,-4,-1,5,-23,-11,15,-5
1526905404268165,1,-12,-4,4,38,27,-9,9
1526905404289109,-3,6,1,-1,-3,-16,-16,4
1526905404289109,1,-16,-6,-4,-5,-8,-22,-8
1526905404290107,4,-17,1,-11,-32,-4,10,-9
1526905404290107,-2,-9,2,9,9,-8,2,3
1526905404302074,4,-5,-15,-12,-9,2,4,-4
1526905404302074,1,14,9,-3,22,18,-1,-1
1526905404311051,3,-7,-7,2,2,-3,18,3
1526905404311051,-2,-20,-2,-16,5,-17,0,4
1526905404326010,-2,7,5,4,-29,14,4,-2
1526905404326010,4,3,0,5,11,8,4,1
1526905404328005,-5,-4,-7,1,1,-6,13,-7
1526905404328005,-2,10,1,3,-29,-13,-56,-14
1526905404348949,0,22,-1,-7,-22,4,18,23
1526905404348949,-2,-7,-4,5,66,11,7,5
1526905404349946,1,0,-7,-7,-4,10,-6,-8
1526905404349946,0,9,11,-1,-26,-13,-12,8
1526905404361914,-6,-7,0,4,25,18,27,3
1526905404361914,10,-7,-5,-4,-9,4,-23,-15
1526905404370890,-11,-7,-4,1,-10,-10,53,0
1526905404370890,5,-4,-4,-10,-1,-1,-28,0
1526905404385850,-1,-17,1,-3,8,-10,1,-3
1526905404385850,-7,33,1,-7,-33,-13,3,-26
1526905404387845,7,-25,-8,-1,24,-1,-5,9
1526905404387845,7,4,2,-1,6,23,23,2
1526905404408789,-19,-19,-5,-3,7,-7,-3,7
1526905404408789,3,-8,0,7,4,3,14,7
1526905404409787,-1,6,-1,-20,-39,-23,-18,-22
1526905404409787,-5,2,0,-2,-9,3,2,0
1526905404422751,8,8,3,9,52,1,-6,7
1526905404422751,-7,-10,-6,-19,-14,0,4,-7
1526905404431728,-2,8,8,4,11,4,-18,3
1526905404431728,3,-5,-6,-19,-15,-11,-11,-4
1526905404445690,1,8,6,6,-3,6,12,-4
1526905404445690,-3,-5,-6,4,-28,-27,10,2
1526905404447685,2,-7,-7,-11,4,10,-28,19
1526905404447685,-2,21,1,0,31,4,-47,-10
1526905404468629,0,-27,0,2,12,3,-9,-2
1526905404468629,-13,5,-5,-3,-18,-4,0,10
1526905404470624,-2,3,5,3,-1,4,11,-13
1526905404470624,-4,-11,-3,4,2,-7,0,3
1526905404482592,4,-11,-8,-8,-11,-7,-29,4
1526905404482592,10,19,7,-3,-8,-2,2,-3
1526905404491568,-2,4,1,20,6,2,27,3
1526905404491568,-5,-7,-5,-14,-9,0,-14,-9
1526905404506528,8,8,2,13,14,4,5,6
1526905404506528,1,-2,-4,-8,5,10,8,7
1526905404507525,0,10,0,-7,-24,-6,1,-10
1526905404507525,2,1,0,3,9,-2,-8,-9
1526905404528469,-8,-11,-13,-12,-37,-20,-13,0
1526905404528469,2,-1,10,19,72,36,38,-10
1526905404530464,3,16,-3,-7,48,0,-16,8
1526905404530464,-3,7,2,5,-18,10,48,10
1526905404542431,-16,-1,7,-5,-18,-7,-8,-16
1526905404542431,0,-14,-6,1,-22,-15,-33,7
1526905404551408,4,9,7,-14,-11,-3,18,-1
1526905404551408,0,-6,-5,3,-5,-16,6,4
1526905404566367,7,9,-2,2,12,7,27,5
1526905404566367,1,-16,-2,-10,-32,-10,-50,2
1526905404567365,-8,2,1,7,1,2,-22,-7
1526905404567365,3,-4,-4,-1,23,-2,10,-10
1526905404588309,-2,26,8,10,-10,11,6,6
1526905404588309,-5,-13,-5,-8,-11,-16,0,-7
1526905404590303,-3,-16,0,11,15,8,0,0
1526905404590303,-7,11,2,-1,0,1,-1,8
1526905404602271,17,-9,-7,-20,-92,-51,-9,8
1526905404602271,-6,2,5,11,75,36,18,1
1526905404611248,-1,0,3,24,73,35,0,-11
1526905404611248,3,9,9,2,-2,13,25,6
1526905404626207,2,6,-4,0,13,-1,-4,1
1526905404626207,2,-14,-9,-15,-40,-32,9,4
1526905404628202,0,3,7,-9,-73,-18,24,2
1526905404628202,0,-1,5,13,57,22,-11,1
1526905404648149,-8,-9,-10,-5,-17,-4,17,-3
1526905404648149,0,-16,-7,-1,-32,-12,9,14
1526905404650144,-2,-18,-3,-4,68,26,-4,-8
1526905404650144,-1,17,4,0,-32,-14,-2,0
1526905404662111,-15,-2,-2,-4,4,7,-3,-14
1526905404662111,16,-4,1,-1,-28,-23,-14,-3
1526905404671088,-7,1,-4,4,9,8,19,4
1526905404671088,3,-6,-2,-6,-27,-22,-33,-10
1526905404686047,3,1,-2,6,54,26,23,3
1526905404686047,1,23,9,0,6,11,-38,-5
1526905404688042,-3,-8,-13,-7,-55,-23,30,9
1526905404688042,-2,13,6,9,19,1,-20,6
1526905404708986,0,-12,-6,-1,0,-9,-33,-1
1526905404708986,-4,3,4,-4,-23,-13,-16,-12
1526905404709984,4,0,-1,-1,40,26,3,13
1526905404709984,-4,-2,-3,16,19,4,19,5
1526905404721951,0,-3,7,-9,-2,5,9,-43
1526905404721951,-1,19,2,3,-15,-12,-11,-1
1526905404730927,2,-14,0,-1,-56,-16,-7,8
1526905404730927,3,-13,-3,6,36,10,7,-7
1526905404744890,3,15,-3,3,2,-9,-1,1
1526905404744890,-9,-1,-2,-3,-24,-15,26,2
1526905404753866,2,-24,-8,-5,9,12,21,-4
1526905404753866,-8,1,-3,-2,-34,5,63,1
1526905404768826,-2,4,14,7,28,26,-38,4
1526905404768826,4,5,-3,-6,5,-13,-7,-19
1526905404769823,3,-19,-13,-3,-6,-21,-15,5
1526905404769823,-2,6,3,-7,-15,10,2,-5
1526905404781791,1,-5,-7,10,-1,-11,12,13
1526905404781791,7,-7,-2,6,23,17,-12,7
1526905404791765,-26,28,3,-9,-19,-21,-22,-13
1526905404791765,4,-10,-4,-13,-33,-3,-8,0
1526905404805727,-3,-2,4,1,10,3,7,4
1526905404805727,8,-14,-2,6,6,11,8,7
1526905404812708,2,-24,-1,3,-5,-4,12,4
1526905404812708,-7,3,-5,-9,-37,-32,-19,-7
1526905404828666,-5,-11,-7,12,58,38,18,15
1526905404828666,-5,5,-3,0,-9,2,1,2
1526905404830661,0,-25,-9,-10,-7,-9,0,-33
1526905404830661,8,9,5,2,3,10,-32,2
1526905404842628,7,-1,4,0,42,6,4,-11
1526905404842628,-3,2,0,-3,15,3,14,13
1526905404851605,7,25,1,10,-30,-7,-7,-11
1526905404851605,-2,-6,0,-15,5,5,2,5
1526905404865567,0,-7,-4,-3,-18,-14,0,-3
1526905404865567,-9,-32,-1,-3,16,7,-6,-7
1526905404872549,-16,27,7,-2,-24,-6,-16,17
1526905404872549,-9,-5,-19,-7,14,-15,-21,-1
1526905404888506,8,-12,13,-1,-17,6,-11,1
1526905404888506,-11,12,-7,-14,-12,-24,-11,-7
1526905404890501,0,8,14,-4,4,21,-18,-10
1526905404890501,-2,-12,-4,-10,26,19,48,7
1526905404902469,-4,0,-3,-25,1,-3,14,-1
1526905404902469,1,-4,-5,-6,-32,-25,-29,-13
1526905404911445,7,5,-4,1,24,14,-1,0
1526905404911445,-3,-18,-5,10,9,-5,4,8
1526905404925407,10,27,9,18,6,2,0,1
1526905404925407,-3,-22,-6,-1,-5,8,9,9
1526905404932388,8,36,6,4,-2,-12,-7,-3
1526905404932388,0,-28,-2,-1,-14,13,42,-3
1526905404949343,-4,-18,-15,1,-15,-14,-22,12
1526905404949343,0,4,7,8,9,0,-7,-19
1526905404950341,-3,-26,-1,4,14,0,-5,6
1526905404950341,12,25,3,-1,-5,-8,-7,-2
1526905404962309,-7,1,-7,-11,-40,-15,3,-3
1526905404962309,-1,-5,7,9,-7,-2,24,2
1526905404971285,7,6,-6,2,7,24,29,8
1526905404971285,11,-12,-1,9,47,9,-27,-5
1526905404985247,-10,0,0,-9,-62,-15,-2,-15
1526905404985247,-1,2,-2,-6,42,1,-6,3
1526905404992229,0,-4,1,5,-19,-12,10,7
1526905404992229,8,17,-2,-12,-5,-2,-15,8
1526905405008186,-4,4,-3,4,-3,12,-12,3
1526905405008186,7,12,3,4,4,0,17,-5
1526905405010181,-11,-21,-5,-5,-16,-17,1,-8
1526905405010181,-3,-4,-10,-5,1,7,-4,0
1526905405031124,0,9,9,2,21,-11,7,-4
1526905405031124,-4,2,-9,-10,-42,8,10,0
1526905405033120,9,5,-7,13,43,3,-15,-3
1526905405033120,-7,-1,17,13,-2,11,14,-10
1526905405045087,-1,-8,-1,-12,4,8,-15,-11
1526905405045087,-1,14,-3,4,11,9,26,6
1526905405052068,-2,-8,-6,-9,-21,-13,-10,5
1526905405052068,0,13,3,7,-28,-24,-8,1
1526905405069023,2,3,-2,1,-2,-8,-6,2
1526905405069023,6,-1,3,-3,-8,12,12,4
1526905405070021,-9,-4,-2,-5,-7,-22,-26,-9
1526905405070021,-7,-11,1,7,46,31,-3,-14
1526905405090964,8,2,4,5,-3,0,5,13
1526905405090964,-10,2,-1,-16,6,1,5,0
1526905405092959,18,6,9,25,-18,-7,-25,-1
1526905405092959,-3,4,-15,-9,-13,-5,-12,-3
1526905405105924,1,18,9,4,31,12,-7,-11
1526905405105924,-5,-28,8,7,-14,-12,-18,-4
1526905405111909,-1,-3,-4,-7,0,10,-14,5
1526905405111909,-4,-12,-4,-3,-38,-30,11,2
1526905405128863,-3,-11,-11,-6,-33,-15,6,4
1526905405128863,7,15,0,6,10,10,4,12
1526905405129861,-5,5,2,-7,29,-15,-14,-27
1526905405129861,4,-13,2,-14,12,44,5,17
1526905405150804,-7,3,5,43,9,-10,6,-13
1526905405150804,5,3,1,-2,-4,2,27,8
1526905405152799,-8,-1,-6,-5,-17,-18,-42,1
1526905405152799,6,7,-3,-10,-68,-37,-4,-13
1526905405164767,-7,-4,-11,-15,8,10,22,14
1526905405164767,10,1,1,34,82,29,-18,-6
1526905405173744,-8,0,-2,-10,-9,17,33,5
1526905405173744,-8,-22,-9,-5,-39,-37,-30,6
1526905405188703,-4,-5,13,0,47,8,-3,-20
1526905405188703,1,6,-5,-2,-8,6,-11,5
1526905405190698,1,25,3,-17,11,6,43,5
1526905405190698,-1,8,5,-1,-21,-23,7,-2
1526905405210644,1,-14,-9,-15,-27,1,34,0
1526905405210644,-7,3,-2,-15,-9,-13,-114,-12
1526905405212640,1,-3,7,17,30,14,24,11
1526905405212640,-4,2,-1,-11,-36,-25,-9,-26
1526905405224607,11,2,-3,9,26,16,0,7
1526905405224607,0,10,14,0,-18,-17,17,11
1526905405233584,2,-3,1,-5,-24,10,-9,-14
1526905405233584,1,0,5,20,88,32,-12,10
1526905405248543,-3,0,-2,10,-35,-13,-3,8
1526905405248543,-4,-13,-11,-26,-59,-11,24,-25
1526905405250538,1,12,-5,6,32,-9,7,15
1526905405250538,-2,-11,2,6,56,20,1,6
1526905405271482,0,13,4,7,10,-3,2,-11
1526905405271482,-1,30,4,-7,-20,16,7,3
1526905405272479,-8,-22,-1,-3,-26,-17,46,5
1526905405272479,0,17,-6,-7,-4,3,-25,-7
1526905405284448,-2,0,-9,-13,-22,-15,-19,12
1526905405284448,-3,-18,0,0,41,-3,23,-2
1526905405293423,6,-1,-12,-17,-40,-18,-74,-27
1526905405293423,-1,1,6,16,20,32,37,16
1526905405308383,2,-5,1,3,14,19,-2,3
1526905405308383,-1,-2,-6,-1,24,-4,11,4
1526905405310378,0,-3,5,0,23,19,-4,1
1526905405310378,-4,-13,2,1,-51,-32,-22,-7
1526905405330324,-6,7,-10,-19,-57,-48,-6,-4
1526905405330324,-7,-17,-5,9,73,53,-9,6
1526905405331322,5,4,7,21,26,10,17,4
1526905405331322,-6,4,0,-16,-12,-10,-9,-3
1526905405353263,2,-11,-9,-8,-10,0,0,2
1526905405353263,-4,7,1,3,-26,-20,-23,-4
1526905405354261,2,10,-3,-11,-24,-3,10,11
1526905405354261,1,13,7,7,12,5,15,16
1526905405368223,-9,-14,-2,3,52,19,-1,-30
1526905405368223,4,-3,-7,3,-42,-22,-18,12
1526905405369220,-1,-5,2,-3,39,15,11,-8
1526905405369220,4,1,-1,0,5,9,26,2
1526905405390164,2,5,6,-5,-32,-19,-27,7
1526905405390164,5,-13,2,4,-2,-7,-28,-4
1526905405391162,1,3,1,23,32,16,18,7
1526905405391162,-6,-18,-7,-22,-18,-7,17,-20
1526905405413103,-1,38,4,6,20,5,-24,9
1526905405413103,-4,-8,-9,-18,-11,-9,5,-13
1526905405414101,0,6,2,2,-32,-6,-16,9
1526905405414101,4,-5,-3,-6,34,6,9,-6
1526905405428063,-5,1,13,10,-16,9,-8,-9
1526905405428063,7,8,-4,5,20,-12,11,10
1526905405429061,4,20,-2,-10,-28,-2,24,-2
1526905405429061,-13,-27,-5,-2,-30,-18,-12,10
1526905405450004,-2,-1,1,-13,-65,-17,-9,-10
1526905405450004,2,-7,0,26,102,41,3,-3
1526905405451002,-4,-17,-8,-21,-42,-3,14,-3
1526905405451002,4,-3,-7,7,1,-1,-29,-9
1526905405472943,0,-8,6,2,-6,-9,13,0
1526905405472943,1,2,-4,-7,-41,-15,11,2
1526905405473940,-5,-6,-2,5,-3,-12,13,14
1526905405473940,-5,-8,-5,-8,3,7,-3,-14
1526905405487903,6,22,4,-1,11,-1,3,9
1526905405487903,-5,-29,-12,-6,34,27,3,-12
1526905405488900,2,14,11,-3,-20,-8,6,-7
1526905405488900,-5,-14,-6,5,6,-12,15,20
1526905405509844,4,-11,-12,-8,1,14,-33,-2
1526905405509844,2,14,-1,-8,-27,-3,8,-15
1526905405517823,-6,-4,9,-2,-7,-3,15,19
1526905405517823,-4,31,-7,1,-15,-7,-17,-13
1526905405532783,-3,-26,4,-4,56,18,-9,6
1526905405532783,4,4,-5,1,-19,-13,13,1
1526905405533781,-3,-13,-3,-10,-37,-22,-40,-18
1526905405533781,5,3,4,10,12,20,58,15
1526905405547743,-1,3,-10,-13,8,16,27,-2
1526905405547743,-5,-3,2,-1,-21,-16,-19,2
1526905405548741,-4,-16,-2,-13,-9,-15,-6,-4
1526905405548741,-4,-15,7,12,13,15,24,4
1526905405570681,0,32,0,6,12,-1,-5,-20
1526905405570681,6,34,5,2,-14,-6,-17,15
1526905405571679,4,-13,-12,-6,-7,-3,19,-13
1526905405571679,-4,-9,5,-1,1,-13,-54,-5
1526905405592623,0,-10,-10,-3,-9,-6,17,1
1526905405592623,-5,-6,7,2,-4,2,0,6
1526905405593620,-4,-3,-6,5,30,6,-13,-9
1526905405593620,7,28,12,-2,-30,-1,1,9
1526905405607583,0,-6,-10,-4,-37,-25,-18,3
1526905405607583,-4,-6,6,11,38,19,50,-2
1526905405608580,-4,-8,-5,4,35,21,-24,-2
1526905405608580,5,17,0,-21,19,3,-4,13
1526905405630522,0,-16,2,1,-36,-24,6,6
1526905405630522,0,8,-5,-11,-39,2,28,-5
1526905405631519,-4,-1,2,13,20,-2,-61,-17
1526905405631519,0,-2,-1,1,-21,-13,1,0
1526905405652463,-9,-20,-3,-7,-6,-13,7,6
1526905405652463,6,-3,-4,4,12,5,-8,-2
1526905405653461,-1,17,9,1,10,-12,3,5
1526905405653461,-4,-39,7,4,-10,22,9,-2
1526905405667423,-2,4,-7,2,46,14,1,0
1526905405667423,-1,1,12,8,-6,-4,-24,2
1526905405668420,3,11,-13,-4,-12,3,31,2
1526905405668420,-3,15,-1,-3,-6,-35,-40,-9
1526905405690361,-7,-21,4,-1,-22,9,53,-4
1526905405690361,-2,-2,-5,-10,17,3,-39,-4
1526905405691359,2,6,7,22,78,27,29,-9
1526905405691359,2,3,-6,-15,-25,-5,-51,1
1526905405713300,2,-16,-3,5,-1,-4,7,-13
1526905405713300,0,25,10,-5,-70,-27,-4,-2
1526905405713300,2,-15,-16,-1,40,17,-3,0
1526905405713300,2,42,17,-8,-11,12,20,0
1526905405728260,1,-23,-2,-18,16,13,-7,0
1526905405728260,-4,-3,-6,-16,-8,-23,-1,11
1526905405728260,3,3,8,-8,-17,6,-2,10
1526905405728260,0,6,-13,17,25,3,10,-20
1526905405750201,3,8,4,2,6,-2,-6,0
1526905405750201,-5,-5,3,4,-4,-8,18,-3
1526905405751199,0,15,-1,-3,-28,-9,5,14
1526905405751199,-6,-19,-8,13,11,9,24,14
1526905405773140,-1,4,-5,-9,-42,-17,-34,-19
1526905405773140,-3,-3,8,4,-3,-9,12,3
1526905405774138,-1,-13,-5,9,27,-1,-13,-7
1526905405774138,2,-14,0,6,1,24,15,4
1526905405788100,-3,9,-6,12,17,8,19,26
1526905405788100,2,-12,-5,-6,29,14,-18,5
1526905405789098,-2,8,7,-8,-37,-10,11,8
1526905405789098,1,4,-8,-6,-23,-24,-7,5
1526905405810042,-1,-12,-5,1,6,-1,-15,-21
1526905405810042,5,15,3,6,3,6,1,4
1526905405811039,-4,11,16,3,-30,-3,-13,0
1526905405811039,1,2,-3,6,48,11,-5,-2
1526905405832980,-5,7,1,-17,-31,-5,29,-1
1526905405832980,-1,-31,-9,-8,-9,1,-54,5
1526905405833978,-5,0,-1,-7,-9,-16,-16,-23
1526905405833978,1,5,3,6,12,0,3,-6
1526905405846943,2,-5,-3,11,56,32,12,9
1526905405846943,0,5,-4,-6,-31,3,29,-1
1526905405855918,4,-6,3,3,11,5,-26,-11
1526905405855918,-4,-23,-4,9,1,-20,-13,-1
1526905405870879,-3,18,5,-3,-12,-11,-8,-8
1526905405870879,0,2,-4,6,25,2,9,-13
1526905405870879,2,2,-2,-10,-30,-1,0,14
1526905405870879,1,-2,6,-7,-22,-18,5,-5
1526905405892820,-3,-7,-2,2,16,8,-12,0
1526905405892820,0,-6,3,3,-18,0,-14,-3
1526905405893818,-1,-10,-12,1,66,29,21,8
1526905405893818,-2,5,-1,-8,-26,1,16,9
1526905405907780,-8,5,2,6,4,-9,-66,-8
1526905405907780,5,-3,-2,-2,-43,-30,4,-8
