timestamp,emg1,emg2,emg3,emg4,emg5,emg6,emg7,emg8
1526905417905694,2,3,2,1,-1,-5,4,-1
1526905417905694,10,3,2,9,-6,0,-3,0
1526905417906691,-11,-1,3,-18,5,6,-1,-2
1526905417906691,7,3,-7,-6,5,3,-7,-7
1526905417906691,-12,-2,-3,-7,-1,2,1,-1
1526905417906691,-3,-3,-1,-9,-2,-6,4,-3
1526905417908685,7,6,-2,-4,-11,-8,-6,0
1526905417908685,-8,-19,-9,-12,2,2,0,0
1526905417910680,3,1,2,-4,-5,-2,-3,-3
1526905417910680,6,7,-1,-3,2,2,-8,2
1526905417923645,-24,-12,-2,-1,0,-2,5,-13
1526905417923645,8,2,4,-3,-1,0,8,2
1526905417932627,0,-2,-2,3,-1,-1,-5,2
1526905417932627,-4,-1,1,0,-8,-3,0,-5
1526905417946584,-3,-7,-3,-14,7,-27,-4,2
1526905417946584,0,3,9,30,8,30,-3,-1
1526905417952568,0,-2,-2,-6,-5,-3,7,4
1526905417952568,-4,8,-4,-9,2,3,-3,-6
1526905417967528,10,-3,-1,0,-3,12,8,6
1526905417967528,-19,-2,-1,-8,1,-43,-22,-11
1526905417977502,8,0,2,-1,4,7,1,6
1526905417977502,4,6,2,8,0,3,-3,2
1526905418016398,9,2,-2,3,-3,0,7,7
1526905418016398,-5,-5,-5,8,-2,-2,-2,-3
1526905418017396,-1,-1,-2,1,-4,5,2,0
1526905418017396,-3,-9,-2,-8,11,-1,-4,-2
1526905418020387,-3,1,4,-19,-7,-1,-2,-1
1526905418020387,11,-5,-2,-3,1,-2,0,2
1526905418021384,-1,6,-2,-5,-3,-4,-6,-1
1526905418021384,3,3,-1,-1,-2,-1,-1,-3
1526905418029363,-17,-14,-1,-8,4,-26,-3,-3
1526905418029363,9,-1,-3,-9,-1,9,3,4
1526905418035347,-5,-4,-2,-1,0,-3,9,8
1526905418035347,7,6,-3,-2,-3,2,1,-1
1526905418044323,-1,5,-4,-4,-12,-8,-7,-2
1526905418044323,7,8,2,14,10,-2,0,5
1526905418057288,-7,-8,-1,21,2,2,-1,2
1526905418057288,-4,-5,-8,-8,-10,-17,-3,-10
1526905418066264,7,0,3,15,0,16,-5,2
1526905418066264,-15,1,6,25,-5,-9,9,5
1526905418089203,0,-1,-5,-27,9,10,0,-10
1526905418089203,3,-1,-2,-9,6,0,15,8
1526905418090200,-13,-6,-5,-12,-5,5,-1,-14
1526905418090200,0,-2,-1,-9,0,0,-2,2
1526905418102168,-7,0,0,5,-8,-32,-16,-10
1526905418102168,-1,-5,4,17,2,43,3,3
1526905418111144,13,9,-4,1,4,-4,-3,5
1526905418111144,-8,-1,-1,1,-5,-5,-6,-5
1526905418126104,7,5,3,16,-12,5,7,1
1526905418126104,-11,-8,0,18,11,-5,-10,-6
1526905418128099,5,5,0,8,1,6,0,5
1526905418128099,8,-2,-1,-20,-5,-1,-7,-3
1526905418149043,-5,-4,-3,-3,3,2,-7,-8
1526905418149043,10,8,-1,-20,-11,-7,0,2
1526905418150040,-11,-16,3,30,1,1,2,2
1526905418150040,5,-1,-3,6,1,-2,2,0
1526905418162008,5,7,1,-4,-1,-1,3,-2
1526905418162008,-4,3,2,-4,-1,8,-13,4
1526905418170984,-15,-5,0,-8,4,-1,0,-5
1526905418170984,5,1,-2,-18,-7,1,-6,0
1526905418185944,8,2,-2,-23,0,2,5,7
1526905418185944,-5,-1,-1,-6,-4,-9,-3,-2
1526905418187939,6,9,2,-6,-3,0,2,-1
1526905418187939,-2,-16,0,-10,-3,-1,-6,-7
1526905418208883,-5,-6,-4,-3,-1,-28,2,2
1526905418208883,-4,-4,4,-3,2,19,3,-2
1526905418210878,-3,3,-1,-9,0,-3,1,-2
1526905418210878,-6,9,-2,-6,-3,-7,3,-5
1526905418222845,0,-6,1,-4,-6,1,0,2
1526905418222845,-1,-2,-2,6,5,-13,4,0
1526905418231821,3,-7,0,5,-4,1,-5,-2
1526905418231821,-5,1,0,-7,4,6,0,-4
1526905418245784,-15,-7,0,0,4,12,-2,-5
1526905418245784,19,8,-3,-2,-12,-7,-1,5
1526905418247779,-9,0,-2,-4,-1,2,-1,-4
1526905418247779,9,11,0,8,1,-4,-4,-1
1526905418268723,-18,-19,-4,-2,2,7,-3,1
1526905418268723,12,11,4,0,-3,-5,3,0
1526905418270717,7,2,-3,-2,1,-4,1,-3
1526905418270717,0,2,-5,-4,-1,2,1,4
1526905418282685,2,-3,2,-2,-3,-3,2,-4
1526905418282685,-8,-1,5,12,1,-5,-7,-7
1526905418291662,2,-2,-5,-8,-11,4,11,4
1526905418291662,0,-2,-2,-10,0,24,-7,-3
1526905418306622,-2,6,4,29,6,0,0,2
1526905418306622,-13,-7,-9,-10,5,0,0,-6
1526905418307619,12,4,5,17,7,-8,-1,3
1526905418307619,-19,4,4,0,0,0,-1,-8
1526905418328562,-15,-16,-5,-8,0,6,1,3
1526905418328562,24,6,-2,-5,-11,-13,-4,5
1526905418330558,8,17,-1,0,5,6,-11,-5
1526905418330558,-4,-12,6,5,1,-6,3,3
1526905418342525,12,9,-2,-3,2,1,-2,1
1526905418342525,-24,-12,-2,1,-6,-6,3,0
1526905418351502,1,-7,-6,-7,-3,2,-1,-5
1526905418351502,9,5,-1,0,0,-4,4,11
1526905418366461,6,4,6,-11,-1,-3,-4,-3
1526905418366461,-10,-5,-3,-11,0,1,-4,-4
1526905418367459,1,-4,1,0,4,0,1,2
1526905418367459,-22,-14,-3,-2,-4,-8,0,-6
1526905418388403,12,9,-7,-24,-6,-5,-5,-4
1526905418388403,13,7,2,18,6,35,-2,1
1526905418390397,-4,-8,7,-3,-3,-3,-2,-1
1526905418390397,3,3,-3,0,-1,-17,9,-2
1526905418402365,2,-3,-4,-1,-8,0,-6,-4
1526905418402365,-2,0,-1,-9,1,-16,-4,-2
1526905418411342,-11,-10,-4,7,-4,1,2,2
1526905418411342,2,0,-3,5,9,7,1,-2
1526905418426301,3,4,6,9,1,-3,-2,7
1526905418426301,-2,1,-7,-10,-11,-6,5,2
1526905418428296,-6,-4,-5,-11,3,-3,0,2
1526905418428296,-4,-12,3,-2,-1,-5,-7,-3
1526905418449240,3,-4,-8,-3,-2,2,2,-8
1526905418449240,3,4,4,5,4,0,0,-2
1526905418450238,-2,-3,-2,-11,-4,-6,-6,-4
1526905418450238,2,-1,-5,-3,-4,0,1,11
1526905418462205,1,3,1,3,6,7,6,2
1526905418462205,-17,-13,-7,-8,-3,-31,-3,-5
1526905418471181,11,3,-3,4,-2,7,1,-4
1526905418471181,3,-6,-3,-3,-8,9,-4,-4
1526905418486141,-14,-4,5,12,3,20,7,1
1526905418486141,-7,-4,-6,-18,4,-20,-1,0
1526905418488136,1,0,-2,10,-9,-6,-9,-5
1526905418488136,-6,-5,-3,1,11,2,2,-5
1526905418509080,16,16,1,0,-4,3,-8,-13
1526905418509080,-9,-16,1,-5,-6,8,-2,5
1526905418510077,4,5,-1,-14,0,-4,5,3
1526905418510077,2,9,-1,-2,-8,0,0,5
1526905418522045,-3,1,-4,1,-3,-12,1,2
1526905418522045,-4,-1,3,10,3,-4,11,4
1526905418531021,6,-2,4,4,8,1,-2,-2
1526905418531021,2,4,2,3,-3,-8,-5,-6
1526905418545981,5,-2,-5,-6,0,-16,-3,-2
1526905418545981,4,6,4,11,-5,2,-4,-5
1526905418547976,4,-2,2,1,1,4,4,1
1526905418547976,-3,2,0,3,2,4,-3,-2
1526905418568920,-6,-10,-3,-4,0,-8,8,3
1526905418568920,0,-7,1,0,-2,9,-4,-7
1526905418570915,-21,2,1,-3,-6,-2,-4,-8
1526905418570915,-5,-7,2,-1,11,-12,-8,-2
1526905418582883,16,0,4,0,-7,5,0,7
1526905418582883,5,6,0,8,14,10,7,6
1526905418591859,3,-6,-2,5,-3,4,-2,3
1526905418591859,-19,1,-6,-16,-12,-10,8,1
1526905418605821,16,4,11,15,4,1,-7,2
1526905418605821,0,-11,-7,-10,-6,1,-3,2
1526905418612802,-2,3,2,-43,4,1,3,0
1526905418612802,-5,-3,-3,-27,-2,2,1,4
1526905418628760,-4,-3,1,-23,1,-1,-4,-1
1526905418628760,-5,3,1,15,-3,23,-3,-6
1526905418630755,2,1,-5,10,-8,-47,-8,-3
1526905418630755,7,2,1,17,0,-1,-7,-4
1526905418642722,-8,-2,2,24,-1,11,-2,-1
1526905418642722,-1,0,-1,3,10,-4,-5,-8
1526905418651699,-8,-5,-4,5,-7,6,4,6
1526905418651699,9,-4,-1,8,1,10,4,0
1526905418665661,-16,1,-7,-2,-8,-19,1,-4
1526905418665661,4,1,-3,-4,-5,-4,-2,1
1526905418672642,1,-1,-3,12,5,8,0,-1
1526905418672642,10,-1,3,9,-8,-9,-4,-2
1526905418688600,-21,-10,-5,6,13,9,-3,0
1526905418688600,-2,-5,-4,-2,-5,-3,4,0
1526905418690595,8,6,5,-4,1,8,-10,-11
1526905418690595,1,6,8,11,-1,0,-1,0
1526905418702562,-9,-9,-1,-6,-12,-4,-5,-1
1526905418702562,-8,-3,-3,-8,6,3,-2,-5
1526905418711539,2,-2,-2,10,3,-6,-7,-1
1526905418711539,-7,-1,3,4,-5,5,-2,-10
1526905418725501,2,-8,-3,-12,1,-2,-1,-1
1526905418725501,14,12,6,9,-2,-7,-1,-6
1526905418732483,-14,-5,-2,1,0,3,-6,-6
1526905418732483,0,1,1,-2,2,-3,10,0
1526905418748440,1,6,0,-7,-14,-1,5,4
1526905418748440,18,3,-2,-6,7,0,-4,3
1526905418750435,-1,2,-4,-6,-4,3,19,3
1526905418750435,5,-2,-3,-3,0,2,-8,-5
1526905418762402,-8,4,3,6,0,-1,-4,-7
1526905418762402,-8,-7,-2,-7,-9,-12,2,3
1526905418771378,-5,-8,3,5,5,9,4,5
1526905418771378,-9,-3,-2,-4,2,1,-3,3
1526905418785341,20,1,0,1,-4,4,2,-4
1526905418785341,-6,5,3,6,6,6,-3,-4
1526905418792323,-4,-6,-6,-8,-7,-1,1,1
1526905418792323,7,0,-1,10,6,6,-2,1
1526905418809277,1,3,2,41,17,-20,1,3
1526905418809277,1,3,5,-5,1,39,3,-7
1526905418810275,-3,1,-1,4,-3,-6,-5,2
1526905418810275,-7,-1,0,5,-3,-26,2,-2
1526905418831220,1,8,-1,-4,-1,8,2,0
1526905418831220,-13,-19,-6,4,-5,-7,5,4
1526905418833214,14,5,5,10,5,2,-1,3
1526905418833214,8,7,-2,0,6,7,-3,-2
1526905418845181,-15,-25,1,-6,-2,0,-4,-7
1526905418845181,3,3,-4,4,-7,-9,0,1
1526905418852167,-8,3,-2,1,-4,3,-5,-6
1526905418852167,-3,-6,-3,2,1,-2,3,2
1526905418869119,5,6,-1,-4,-1,1,-7,-4
1526905418869119,-2,-1,5,-5,-7,-9,-1,6
1526905418870116,2,-3,0,-13,-4,-5,0,-5
1526905418870116,-5,-3,-2,-8,-7,-1,-5,0
1526905418891059,7,2,-9,-22,-5,-4,-3,0
1526905418891059,0,6,2,-3,2,-2,0,0
1526905418893055,1,-6,-5,-2,3,1,5,8
1526905418893055,0,-3,-1,-15,-9,-16,14,2
1526905418906018,0,5,-1,-5,8,23,-6,0
1526905418906018,-3,-12,-3,-14,-4,-5,-18,-3
1526905418912003,15,9,-2,-7,0,-4,3,-7
1526905418912003,-8,-5,0,4,2,-1,-5,0
1526905418928958,0,-3,2,-2,-5,-3,3,2
1526905418928958,-2,6,-1,2,9,-7,4,2
1526905418929954,-15,-4,-3,-6,2,10,-6,-7
1526905418929954,9,-2,-1,-5,-10,3,1,4
1526905418950898,2,4,5,3,3,-1,-4,-14
1526905418950898,-6,-5,-5,-1,-1,4,0,1
1526905418952893,3,-5,-3,-12,-10,-6,-1,4
1526905418952893,-1,2,-4,7,6,6,-7,-5
1526905418964862,-2,2,5,6,-1,-3,0,-3
1526905418964862,-1,0,2,7,-6,-32,-4,-11
1526905418973838,-5,-3,-3,-7,0,28,-1,0
1526905418973838,15,4,0,9,4,-3,3,0
1526905418987800,-6,-3,-5,-1,0,38,-6,6
1526905418987800,-9,-3,-6,1,-1,-3,-2,-9
1526905418996776,6,19,-1,12,-5,-13,1,8
1526905418996776,-28,-18,-3,6,-6,5,-1,-7
1526905419011736,1,-1,-6,-2,-2,-7,4,5
1526905419011736,0,-2,1,-2,-1,5,5,3
1526905419012733,-11,-5,-1,-4,-13,-6,-2,-1
1526905419012733,3,4,-4,-21,11,9,-2,1
1526905419033677,7,0,-3,-9,2,-10,6,3
1526905419033677,-1,1,1,8,-1,3,-3,-3
1526905419035672,6,-5,3,22,4,-8,0,5
1526905419035672,-3,1,-2,-3,-8,-4,-9,-9
1526905419047640,-4,-6,-1,-7,-2,-7,2,-4
1526905419047640,-3,1,-2,1,1,-26,-1,6
1526905419056616,6,-4,3,-8,2,9,7,1
1526905419056616,4,8,-3,-10,-3,-3,-1,-2
1526905419071575,-8,-8,0,-3,-2,-10,-4,-4
1526905419071575,5,7,1,-17,-1,6,1,1
1526905419072573,10,-2,-1,6,3,-7,-4,4
1526905419072573,-5,-9,-2,-7,-2,6,4,1
1526905419093517,5,7,0,-6,-4,-22,5,1
1526905419093517,-1,7,3,-1,-3,10,-10,-3
1526905419095512,-7,-14,-1,-9,-1,-5,-3,-1
1526905419095512,20,8,9,9,1,4,-1,5
1526905419107480,-4,-3,-1,-5,-3,0,1,0
1526905419107480,9,1,3,6,-3,3,2,8
1526905419116456,-7,-3,-10,-3,-1,-1,-6,-13
1526905419116456,-4,-5,1,4,4,-4,-6,-4
1526905419130418,-4,2,1,10,2,3,-1,3
1526905419130418,0,-1,0,-6,6,4,-1,-1
1526905419137399,1,7,-2,-3,-4,-5,-3,3
1526905419137399,-7,-7,-5,-12,-11,-38,-1,-2
1526905419153357,5,5,-3,-4,-2,8,5,0
1526905419153357,-5,-12,-3,4,-2,4,4,-2
1526905419155352,-7,-4,2,1,3,0,-1,6
1526905419155352,-6,-3,-2,-4,-3,3,-1,0
1526905419167319,20,6,1,-5,0,-2,2,2
1526905419167319,-7,-8,-3,-8,-5,-3,-13,-13
1526905419176296,-4,-2,-2,-1,6,0,10,0
1526905419176296,-9,-4,-1,-11,-8,4,-4,1
1526905419190258,4,-1,-6,-12,1,5,-3,1
1526905419190258,4,3,3,18,-1,1,5,8
1526905419197239,-6,-5,4,-3,-6,-4,-5,-9
1526905419197239,3,2,-3,-7,-5,1,7,2
1526905419214194,-4,-3,-5,0,15,-1,-4,-1
1526905419214194,5,5,-1,-3,-10,-6,0,6
1526905419215192,0,7,4,2,3,0,0,-9
1526905419215192,-10,-6,-4,5,-6,-4,-4,-6
1526905419227159,3,-4,1,-5,-8,25,-1,-2
1526905419227159,-3,3,2,6,1,-2,-3,-1
1526905419236136,3,0,-1,4,-1,-3,-9,-5
1526905419236136,3,-2,0,9,5,9,-3,3
1526905419251095,-3,2,-6,-7,-3,-10,-2,-1
1526905419251095,-19,-21,-7,-1,6,9,0,-7
1526905419257079,24,12,4,6,1,5,3,6
1526905419257079,-1,7,7,11,3,-3,-1,-5
1526905419274034,-18,-14,4,5,-6,-8,1,-1
1526905419274034,7,5,-7,-11,-1,-3,-1,-3
1526905419275031,2,-3,-7,-12,-3,-6,0,-2
1526905419275031,9,1,-9,18,9,11,3,4
1526905419287000,4,6,1,-4,-8,-10,0,-2
1526905419287000,-6,2,-1,-17,4,5,-2,-2
1526905419295975,-2,0,1,12,6,-2,0,3
1526905419295975,-2,0,3,-8,-4,0,-6,-9
1526905419310935,-2,1,-9,2,-5,-1,-5,-4
1526905419310935,-1,-4,5,8,-3,-3,4,3
1526905419317917,0,-7,-6,-7,-3,-3,-4,5
1526905419317917,-6,-2,-2,-5,-1,-5,1,-2
1526905419333874,-14,-3,4,1,4,-26,0,5
1526905419333874,14,6,3,-2,-1,12,7,2
1526905419335869,-6,1,3,6,0,0,0,1
1526905419335869,-6,-6,-1,-4,-4,1,-1,-2
1526905419356813,6,-9,6,2,1,-6,0,1
1526905419356813,-3,-5,-7,-19,-2,-4,-6,-2
1526905419357811,-10,-3,-4,-18,-5,-2,4,3
1526905419357811,21,19,-3,-8,-1,0,9,10
1526905419370776,-22,-21,-8,-8,1,5,-8,-8
1526905419370776,10,4,0,2,0,-4,4,5
1526905419377757,-5,0,3,8,-5,1,-1,-2
1526905419377757,4,-4,0,2,-4,2,3,4
1526905419393714,0,1,-3,-38,20,8,-5,-3
1526905419393714,-11,1,0,-46,-9,-1,3,-5
1526905419395709,37,11,2,-28,4,-2,-4,-1
1526905419395709,-6,0,-3,-5,-5,2,-4,-4
1526905419416653,-6,0,3,2,-9,0,0,-3
1526905419416653,-6,-4,-1,-13,4,1,-1,-3
1526905419417651,5,0,0,2,-1,2,-6,-5
1526905419417651,-13,-2,0,24,2,1,-1,-1
1526905419431613,14,5,4,42,-2,2,2,-1
1526905419431613,5,6,-4,37,-3,-9,0,8
1526905419438594,-13,-6,-4,90,1,18,-11,-3
1526905419438594,27,1,-3,47,1,-16,0,-1
1526905419453554,-18,2,5,35,3,36,2,2
1526905419453554,-3,0,-2,-18,-5,-5,5,0
1526905419455549,-6,-5,-6,-51,-6,-9,-13,-3
1526905419455549,-1,1,-1,-24,-6,0,-2,-2
1526905419476493,10,7,2,-26,13,-1,0,7
1526905419476493,10,-1,-2,6,2,-2,-1,-1
1526905419477490,-20,1,2,-10,-1,7,2,-5
1526905419477490,-8,4,1,-8,1,1,-4,-11
1526905419489458,0,-2,-5,-7,-15,-12,2,1
1526905419489458,19,-3,-8,11,-2,-1,-2,2
1526905419499431,6,11,2,-34,2,-10,4,-1
1526905419499431,-14,-6,2,-40,-6,-2,-6,-8
1526905419513394,1,7,2,-25,1,0,0,-4
1526905419513394,-16,-17,3,16,2,-3,-2,0
1526905419515389,2,-2,-4,25,-3,2,4,3
1526905419515389,3,-1,5,11,5,4,0,2
1526905419536333,2,-1,-2,31,-7,-5,-4,-1
1526905419536333,-1,6,0,16,-10,-3,-8,-4
1526905419538327,-10,0,-3,9,15,-3,2,-2
1526905419538327,1,-8,0,20,6,-9,-4,0
1526905419550295,6,3,6,15,1,-8,6,-1
1526905419550295,-8,4,1,2,-8,-18,-1,-4
1526905419559272,2,1,-1,5,-4,4,2,3
1526905419559272,-7,-4,-3,-8,2,-4,-1,1
1526905419574231,4,-3,-6,-3,-10,-5,6,6
1526905419574231,1,6,3,3,3,1,-3,-9
1526905419575229,6,-14,-5,-6,-1,-10,1,6
1526905419575229,0,4,0,-3,3,9,8,-1
1526905419596173,6,-18,-6,-8,-4,-3,-1,2
1526905419596173,-2,10,1,-5,0,6,-2,5
1526905419598167,-2,-9,-4,-6,1,-2,-3,-6
1526905419598167,-21,-11,-2,-5,-1,7,-4,-3
1526905419610135,-10,-7,-4,-4,-4,-2,0,-5
1526905419610135,12,0,-2,0,2,1,0,-3
1526905419619112,5,1,1,-4,-6,1,3,0
1526905419619112,10,5,1,5,1,1,3,4
1526905419634071,-4,4,-3,-7,-1,-5,-3,-1
1526905419634071,-7,-9,-3,0,-1,4,0,-5
1526905419635069,-6,-4,-3,2,6,-26,-1,3
1526905419635069,-3,3,0,20,5,36,0,-10
1526905419656012,-1,-3,-2,32,-1,-7,-2,0
1526905419656012,5,0,4,29,-5,14,-8,1
1526905419658008,-11,0,0,17,-3,-4,-5,-10
1526905419658008,6,8,-2,-5,-1,-11,-3,2
1526905419669975,-6,-1,-2,-8,-1,-1,-5,-4
1526905419669975,-7,-7,-3,-12,0,-2,-1,2
1526905419678951,2,1,2,-13,-4,2,-4,-11
1526905419678951,-1,-15,0,13,7,3,-3,7
1526905419693911,18,5,-7,-23,0,13,-5,-4
1526905419693911,-16,5,6,-9,5,-3,6,6
1526905419695906,1,-2,-3,-3,-2,-24,3,-1
1526905419695906,-2,8,1,6,-11,-13,-6,1
1526905419715852,-2,5,3,-26,-1,-28,-4,-1
1526905419715852,0,-6,-6,-51,-1,0,1,4
1526905419717847,4,6,-3,-35,-2,29,-14,-11
1526905419717847,-2,3,0,-55,-12,-2,4,3
1526905419729815,-6,0,-5,-6,16,-7,5,0
1526905419729815,4,-2,-1,5,-3,-1,-7,-5
1526905419738791,-9,-7,-5,22,1,6,6,3
1526905419738791,17,12,-2,22,-6,-9,3,11
1526905419753751,-14,-25,0,40,-2,9,-14,-4
1526905419753751,-9,0,0,32,4,-3,6,-5
1526905419755746,-7,-3,5,22,0,7,7,5
1526905419755746,-11,-4,-6,-1,-3,-15,-11,-10
1526905419776690,4,11,0,2,2,3,-5,-8
1526905419776690,16,6,-3,8,-4,1,10,4
1526905419777687,-5,-5,0,-12,-6,-4,2,2
1526905419777687,-3,-3,-7,2,4,-22,-1,-1
1526905419789655,-6,8,2,9,-3,-14,5,-1
1526905419789655,-5,-10,-9,-10,-6,-7,-2,6
1526905419798632,7,5,3,6,7,7,-1,1
1526905419798632,-2,0,0,-15,0,-4,1,-1
1526905419813591,-8,2,-5,-19,-8,7,6,6
1526905419813591,-7,-18,-1,5,9,1,-2,-2
1526905419815586,-1,1,-1,-2,-9,-9,0,-3
1526905419815586,11,7,4,-5,-8,13,0,-5
1526905419836530,3,-1,-1,16,10,-4,5,2
1526905419836530,6,12,3,-5,2,4,-13,-1
1526905419837527,-11,-4,2,-5,-4,0,2,3
1526905419837527,-3,-5,-4,-14,7,5,-6,1
1526905419849495,7,4,1,-17,-10,4,0,0
1526905419849495,0,-4,-1,-15,-7,-13,-4,-5
1526905419858471,-6,8,-2,-2,0,26,-2,0
1526905419858471,-7,-21,-8,-10,-7,1,11,3
1526905419873431,1,-3,3,13,3,5,-5,-1
1526905419873431,7,16,3,-13,-1,2,-4,-6
1526905419875426,-6,-12,-4,-5,-5,-11,1,4
1526905419875426,-8,0,-1,1,2,2,-3,2
1526905419896370,7,8,1,-14,-3,7,4,7
1526905419896370,-12,-7,0,15,0,-6,0,-5
1526905419898365,4,-2,3,8,-2,-8,-4,-7
1526905419898365,12,6,-2,-1,10,3,0,-1
1526905419910332,0,-4,-4,30,-9,-4,-4,-2
1526905419910332,4,9,5,45,0,1,-1,1
1526905419919309,-9,1,0,-1,1,-3,-1,0
1526905419919309,-19,-15,0,-21,0,3,-1,-2
1526905419934268,17,15,-1,-54,-3,1,-3,-1
1526905419934268,-10,-14,-4,-24,4,3,-3,-2
1526905419935266,10,4,-4,-10,6,7,2,3
1526905419935266,8,14,10,21,-6,-8,0,4
1526905419956210,-15,-9,-4,-6,2,47,-11,-7
1526905419956210,8,6,-1,-1,-6,-28,-4,-8
1526905419958205,6,2,3,9,2,-8,-5,-1
1526905419958205,-1,-3,0,21,7,9,-4,0
1526905419970172,-6,-5,-2,22,-12,-12,4,3
1526905419970172,-8,1,-2,3,6,7,3,0
1526905419979149,9,6,-3,-3,1,3,1,1
1526905419979149,-2,-6,4,-1,-5,-12,-5,-5
1526905419994108,2,0,2,12,3,-11,-6,-1
1526905419994108,4,4,-9,-22,-10,2,4,2
1526905419995106,-4,3,-1,4,4,-4,1,0
1526905419995106,12,9,4,-11,-1,7,-2,-10
1526905420016050,-16,-13,-2,14,0,-5,5,0
1526905420016050,14,5,5,-5,12,3,-3,1
1526905420018044,9,-6,-2,-15,-11,1,2,5
1526905420018044,-25,-2,-6,5,5,-1,-1,-13
1526905420030012,4,1,0,-18,-6,-33,-3,-3
1526905420030012,0,-1,-5,-5,-4,15,7,8
1526905420038989,-14,8,3,8,5,18,-10,-6
1526905420038989,14,-15,-3,-4,-4,-1,0,3
1526905420052951,7,4,-1,-11,-4,-11,2,5
1526905420052951,-27,-7,-1,0,3,2,-4,-6
1526905420059932,18,-1,1,-7,-9,-11,-1,0
1526905420059932,1,10,-3,-6,0,1,1,2
1526905420075889,-6,-12,-2,-3,7,8,-4,-1
1526905420075889,6,-2,0,-2,-6,-3,2,0
1526905420077885,1,4,4,11,5,6,11,5
1526905420077885,5,2,-1,-16,-17,-9,0,-4
1526905420089852,5,0,2,1,14,1,-2,-5
1526905420089852,-6,2,0,-3,-8,1,1,-5
1526905420098828,1,-14,-9,-1,1,-13,3,1
1526905420098828,7,2,1,3,-5,0,-6,8
1526905420112791,-9,0,-1,-6,-1,7,-4,-6
1526905420112791,5,-11,-5,6,2,1,-5,-7
1526905420119772,13,-3,-4,-4,-4,-5,-1,-5
1526905420119772,-6,4,-2,2,2,-2,1,3
1526905420136727,-4,-1,-1,-5,-3,1,-1,0
1526905420136727,12,-1,1,17,2,-31,-5,2
1526905420137725,-15,-1,1,3,7,11,5,5
1526905420137725,-2,-8,1,8,3,3,4,6
1526905420149692,-5,5,-2,-5,1,-1,-1,-5
1526905420149692,-21,-9,-10,-8,-9,-6,-8,-11
1526905420158668,7,-1,1,-5,-1,-5,-4,1
1526905420158668,-7,5,-1,0,2,1,2,10
1526905420172631,9,8,-4,-4,-10,-2,5,2
1526905420172631,-10,-13,-3,-5,1,3,-5,-6
1526905420181607,-2,-2,-1,-1,-3,-4,-7,2
1526905420181607,-6,-3,-1,-5,5,7,1,-1
1526905420196567,4,-5,6,-3,-9,-3,0,4
1526905420196567,3,20,6,1,12,5,2,-1
1526905420197565,-11,-7,-4,-1,-1,5,3,-3
1526905420197565,4,-4,-4,-10,-4,-8,2,-2
1526905420209532,-7,-9,-4,-74,1,1,-1,-7
1526905420209532,4,3,4,-47,-5,2,-2,2
1526905420218508,-5,5,1,-30,-7,-9,-4,1
1526905420218508,1,-6,-7,21,7,5,-1,-7
1526905420233468,-5,4,-1,38,0,1,2,7
1526905420233468,15,2,-1,36,-2,4,-1,2
1526905420239452,-13,-6,2,28,-4,-5,-1,-4
1526905420239452,-5,-7,-7,14,-4,-4,-7,-9
1526905420256407,22,18,5,15,1,-1,-4,4
1526905420256407,-11,-4,-3,-11,-9,6,-3,-1
1526905420258402,1,-5,-2,-8,0,-5,4,-8
1526905420258402,5,2,5,-16,1,-1,-11,-5
1526905420278348,-23,-1,-4,-6,3,6,1,-3
1526905420278348,22,5,1,13,-1,-6,1,0
1526905420280344,-8,-6,-3,0,-2,-6,-7,-4
1526905420280344,-7,-4,0,5,16,9,4,0
1526905420293308,-1,-7,-1,-42,-1,-6,2,4
1526905420293308,-1,7,4,-31,1,0,3,9
1526905420300289,-2,-3,2,-7,-9,-5,-3,-10
1526905420300289,7,0,-7,-11,10,-2,3,3
1526905420316247,-1,4,3,14,-4,4,1,0
1526905420316247,7,-13,-3,15,-3,0,4,9
1526905420318242,6,7,4,5,-1,2,0,3
1526905420318242,-18,-4,-5,60,-14,-8,-3,-1
1526905420339185,1,-6,0,55,0,-1,-6,-12
1526905420339185,-1,-2,1,3,-4,-1,-5,-8
1526905420340183,4,3,4,2,4,-4,-1,7
1526905420340183,3,3,-7,-26,-3,-2,-2,-4
1526905420353148,-2,-12,0,-10,3,2,5,4
1526905420353148,-26,1,-3,2,-17,-3,1,-6
1526905420360130,-9,-3,-4,-14,16,2,-5,-5
1526905420360130,-3,4,3,-14,-7,-11,-4,0
1526905420376087,10,4,0,14,3,33,1,3
1526905420376087,10,4,6,17,1,0,1,6
1526905420378082,-1,-5,-5,8,1,0,-1,0
1526905420378082,-4,-2,2,-3,0,1,10,1
1526905420399025,14,13,1,14,-1,-15,-1,1
1526905420399025,-10,-26,-9,-3,0,2,-2,-2
1526905420400023,-9,-2,-4,0,-5,0,3,-2
1526905420400023,-3,-7,5,2,-2,2,2,3
1526905420411991,-4,-3,3,-1,-2,-10,-2,-3
1526905420411991,-7,3,4,5,6,4,1,-6
1526905420420967,-12,-19,-6,0,-4,-6,0,4
1526905420420967,-1,1,-1,-7,-5,1,-5,-2
1526905420435927,4,-10,-6,4,0,-3,1,4
1526905420435927,-1,4,-3,-35,-20,-9,-1,0
1526905420437922,-1,0,2,19,15,4,1,-2
1526905420437922,2,2,0,-4,-1,7,-4,4
1526905420458865,3,-1,-6,-4,-8,-5,1,4
1526905420458865,-10,2,2,-2,11,3,-1,-7
1526905420460860,24,6,0,-10,-8,-2,-1,-1
1526905420460860,4,-2,3,1,-4,0,3,-1
1526905420472828,-3,-1,-4,-3,9,-5,-8,-6
1526905420472828,7,3,-2,6,-3,0,3,5
1526905420481804,-10,5,2,2,0,1,-7,-7
1526905420481804,7,2,-3,-9,-1,-3,-2,3
1526905420496765,-10,-16,-5,-2,-6,-3,1,-1
1526905420496765,1,11,2,8,6,0,-1,0
1526905420497762,12,-4,-3,0,-3,1,-1,-6
1526905420497762,-11,-3,-3,-3,-5,-4,-1,1
1526905420518705,-2,6,1,0,-16,18,-1,-3
1526905420518705,5,1,-1,6,20,2,1,-5
1526905420520701,-5,-3,0,-11,-4,0,-2,2
1526905420520701,-1,2,0,-4,-3,7,-1,0
1526905420532668,-4,-7,0,-5,5,-11,3,-3
1526905420532668,2,1,-5,-8,-10,5,1,3
1526905420541644,7,5,2,4,0,0,-2,-2
1526905420541644,-14,1,0,-2,7,-1,-3,-4
1526905420556604,14,12,5,-2,-6,-41,-9,-7
1526905420556604,-4,-28,-7,-1,-3,-6,6,11
1526905420557602,-7,6,-4,-5,-4,-1,4,3
1526905420557602,-6,-10,0,13,4,-1,-6,-9
1526905420578547,-3,4,3,14,5,9,3,-3
1526905420578547,4,0,2,-5,0,7,-6,-6
1526905420580541,1,4,-5,-29,-5,-6,-1,1
1526905420580541,19,3,2,-30,-3,0,3,0
1526905420592508,-15,-1,1,-17,4,8,-2,-2
1526905420592508,10,3,-3,2,-4,-12,-5,-1
1526905420601484,-24,-4,-3,-8,-6,1,-1,1
1526905420601484,2,4,-3,-8,-1,-27,-3,-10
1526905420616444,-4,-3,3,6,9,33,-6,0
1526905420616444,-6,-10,-1,2,2,-2,3,-3
1526905420618439,8,8,3,-2,-1,-3,-8,2
1526905420618439,-5,-5,-3,5,-3,-3,6,5
1526905420638385,0,0,0,1,1,-3,-1,-6
1526905420638385,-10,-2,-2,7,-3,-4,-1,-5
1526905420640380,16,7,4,14,6,2,6,7
1526905420640380,-19,-5,-1,17,-3,1,1,-1
1526905420652348,-4,-6,-4,14,-3,-4,-1,-2
1526905420652348,1,11,4,26,4,3,-4,-7
1526905420661324,-2,-8,1,21,-2,-3,1,1
1526905420661324,5,-4,1,4,-2,4,-1,0
1526905420676284,4,5,-3,-9,-6,-6,4,9
1526905420676284,3,-3,-1,-15,2,-2,-2,0
1526905420678279,5,-7,-1,5,-5,-2,5,0
1526905420678279,5,1,0,-4,3,3,2,-1
1526905420699223,-8,-5,-3,4,1,-5,1,6
1526905420699223,0,-1,3,4,-3,-19,-1,2
1526905420700220,-6,0,-2,-1,2,37,4,-3
1526905420700220,-6,-3,-1,-12,0,4,-5,0
1526905420712188,12,3,-1,1,-2,-7,14,-1
1526905420712188,3,1,-2,5,1,-2,-3,0
1526905420721164,-3,9,-5,2,1,-9,-10,-5
1526905420721164,-6,-14,-1,-5,-26,17,7,5
1526905420736124,-13,-2,4,1,18,-2,-8,-10
1526905420736124,1,-5,-6,-4,-2,9,0,1
1526905420738119,10,15,1,-6,-4,-11,7,9
1526905420738119,9,7,3,-1,0,2,3,1
1526905420759063,-1,-11,-4,-3,-8,-6,-6,-6
1526905420759063,-3,7,1,-8,-1,3,0,3
1526905420760060,-12,-10,1,-3,-5,-4,-9,-10
1526905420760060,18,9,-2,1,4,-3,1,9
1526905420772028,3,4,-2,-4,5,3,1,0
1526905420772028,-18,-10,1,-1,3,0,1,-1
1526905420781004,-12,-6,-3,-10,-3,-4,-1,-2
1526905420781004,29,1,0,12,7,-5,-4,-10
1526905420795964,-4,1,0,-12,-6,-20,-4,0
1526905420795964,-2,1,1,1,-1,7,4,0
1526905420797959,-10,-4,-1,-6,-2,-6,-1,-1
1526905420797959,0,4,0,-5,3,1,-5,-6
1526905420818902,0,-5,-5,-5,-9,-5,2,5
1526905420818902,0,4,-5,-12,-1,-2,-9,-3
1526905420820898,8,-10,5,10,4,1,3,4
1526905420820898,1,12,-1,1,6,-5,0,10
1526905420832865,-23,-19,-9,-2,-10,0,-6,-19
1526905420832865,0,8,2,2,15,1,-1,1
1526905420841841,5,1,-4,-15,-4,2,-4,-10
1526905420841841,-1,3,7,12,6,1,0,3
1526905420856801,6,3,-1,-5,-7,2,-1,0
1526905420856801,-1,3,-2,-8,-5,-1,-1,-2
1526905420857799,-14,-16,-7,-7,0,-5,-8,-8
1526905420857799,-3,-1,-4,-14,-8,-4,1,3
1526905420878743,5,4,6,6,6,7,2,5
1526905420878743,5,-7,-3,-5,-5,-5,-1,-5
1526905420880737,5,4,-3,3,-1,-2,3,8
1526905420880737,-23,-22,-6,-2,-9,-4,-7,-10
1526905420892705,-10,0,2,-6,-3,-2,-5,1
1526905420892705,-14,4,-2,-9,-6,4,-3,0
1526905420901682,10,6,-5,-4,-1,11,-2,0
1526905420901682,-4,0,-5,4,1,1,-2,-3
1526905420916641,-7,-5,3,-5,0,4,4,-1
1526905420916641,7,-2,-4,3,12,-3,-14,-5
1526905420917639,2,-8,1,5,-5,-4,-1,-3
1526905420917639,-16,-3,-6,-7,1,-2,2,-5
1526905420938583,8,4,1,0,-5,-5,0,7
1526905420938583,17,8,-1,-5,-8,-2,10,10
1526905420940577,-10,-9,-1,2,-1,-10,-7,-5
1526905420940577,0,6,-3,-4,-3,-3,-6,-6
1526905420952545,-13,-17,-2,10,5,3,4,5
1526905420952545,2,-4,-2,2,-10,-3,0,-1
1526905420961521,-10,-1,3,3,5,4,1,-3
1526905420961521,6,0,6,4,2,1,5,4
1526905420976481,22,10,-2,-7,-3,-2,-1,6
1526905420976481,-19,-11,-4,5,-2,-3,0,-3
1526905420977479,4,8,2,-12,-6,-13,6,7
1526905420977479,-10,-11,-1,6,8,36,-1,0
1526905420998423,-7,1,1,4,1,1,2,4
1526905420998423,14,0,-2,0,-1,-1,3,-1
1526905421000417,-8,-5,1,-4,-5,-7,5,5
1526905421000417,-3,-2,-5,-6,-1,-10,2,-1
1526905421012385,-1,7,-3,2,1,0,-10,-6
1526905421012385,17,-8,1,1,10,11,4,8
1526905421021361,-5,4,-2,5,-4,-5,-3,-3
1526905421021361,1,-6,3,5,2,-5,-1,-5
1526905421035324,-4,6,8,5,-5,0,-2,-6
1526905421035324,-12,0,-5,-3,-8,-8,-3,-2
1526905421042305,2,-1,-4,-6,4,5,0,-4
1526905421042305,8,4,5,4,-2,-5,2,3
1526905421059260,11,4,-2,-12,-4,-2,2,1
1526905421059260,5,0,4,5,5,0,-3,-1
1526905421060257,-7,-7,-7,4,-2,-4,-3,-2
1526905421060257,-9,2,-2,7,-3,-1,3,4
1526905421072225,-11,-24,-6,-10,-1,-1,-1,0
1526905421072225,7,7,2,-15,-1,3,1,-1
1526905421081201,16,16,2,-38,-2,1,-8,-7
1526905421081201,8,1,-2,-40,9,-6,4,-7
1526905421096161,2,-12,-8,-15,10,2,-14,3
1526905421096161,-25,4,-2,2,-7,-3,-2,-15
1526905421102145,9,3,3,13,-2,-5,-2,2
1526905421102145,-12,-11,-3,10,-9,-6,-1,0
1526905421119100,10,20,1,17,-3,2,3,-1
1526905421119100,0,-2,1,26,-4,-7,-6,-3
1526905421120097,2,-2,-2,26,5,5,-2,-4
1526905421120097,1,11,3,14,-2,0,0,0
1526905421132065,-14,-17,-3,26,-1,-5,4,0
1526905421132065,-7,0,3,35,-3,-2,-4,-5
1526905421141041,13,7,1,21,1,3,2,3
1526905421141041,-33,-12,-5,-9,-4,-2,-5,-3
1526905421156001,7,7,2,-42,5,3,5,-1
1526905421156001,11,4,2,-40,-8,-5,-1,2
1526905421161985,-22,-19,-4,-29,6,9,-3,-12
1526905421161985,34,13,3,-15,-2,-4,3,7
1526905421178940,-11,-2,0,0,-3,1,-1,-8
1526905421178940,2,-2,-4,-8,-2,2,3,-3
1526905421179937,3,1,-3,-23,-5,-7,-2,11
1526905421179937,-2,4,2,-31,12,-2,0,-2
1526905421200881,2,-9,-4,-12,-1,0,1,4
1526905421200881,-9,-7,-2,-5,4,0,11,10
1526905421202876,-6,-10,0,9,-7,-3,-1,-1
1526905421202876,9,18,1,14,-4,-2,-7,-2
1526905421215841,4,1,-1,19,1,-1,-3,2
1526905421215841,-5,-2,-2,-20,-6,3,1,-1
1526905421222822,2,-3,1,-101,2,1,8,8
1526905421222822,-19,-5,-1,-61,-1,-2,-3,-4
1526905421238780,5,8,-1,-17,-3,-2,-3,-9
1526905421238780,9,-2,-4,24,-3,-7,-3,0
1526905421240775,-5,0,1,61,-3,-5,-5,-5
1526905421240775,0,-5,-6,63,6,5,-3,-1
1526905421261718,10,10,2,47,-8,-10,0,0
1526905421261718,-3,-2,0,43,-7,-2,-4,2
1526905421262716,-2,0,-3,40,12,6,3,0
1526905421262716,12,-6,-5,25,-3,-1,3,3
1526905421275681,-10,-9,-2,14,-3,-2,-5,-1
1526905421275681,1,12,4,-4,2,2,1,3
1526905421282662,17,1,-1,7,-6,4,3,5
1526905421282662,-10,-5,0,16,-3,-5,-4,-6
1526905421298620,10,-5,-1,-4,5,1,5,5
1526905421298620,-13,8,4,-14,-2,2,-1,-2
1526905421300615,-3,2,-4,-6,-1,-8,5,0
1526905421300615,0,-7,1,9,2,18,-13,-3
1526905421321558,-3,2,1,-11,-4,4,-4,-7
1526905421321558,-4,-6,-1,-3,1,-4,2,0
1526905421322556,0,12,-2,-4,8,1,-9,-3
1526905421322556,8,4,3,12,-3,-5,8,2
1526905421335521,0,-17,-7,-14,-3,-4,0,0
1526905421335521,3,-1,-1,-2,1,1,-6,-2
1526905421342502,-21,-1,1,11,0,1,-5,-17
1526905421342502,6,8,3,2,-5,-9,-5,0
1526905421358460,4,3,-2,18,-2,0,0,6
1526905421358460,9,-3,-2,15,-9,-3,4,4
1526905421360454,3,0,-2,16,19,4,-5,-4
1526905421360454,-26,-6,-4,24,-10,-3,2,0
1526905421381398,-2,3,-1,26,2,4,4,0
1526905421381398,-3,-11,-2,13,0,4,-3,-7
1526905421383393,-3,-3,1,-3,-8,-3,1,0
1526905421383393,7,-2,-2,-28,-5,-6,-8,-4
1526905421395361,6,4,4,-19,-1,-3,1,4
1526905421395361,-21,-10,-4,-22,10,4,1,-2
1526905421404337,8,1,3,-5,-4,0,7,3
1526905421404337,8,1,-6,-24,0,-6,2,1
1526905421418299,-2,8,1,-14,-6,-4,0,0
1526905421418299,5,-2,2,-18,4,11,-9,-4
1526905421420295,-7,-10,1,-11,-5,22,-4,0
1526905421420295,-8,-3,3,-11,-19,-4,-5,-9
1526905421441238,3,7,0,-10,19,-2,-2,-5
1526905421441238,2,3,-2,-2,-2,2,2,0
1526905421443233,-7,-4,-3,8,-2,-6,-2,1
1526905421443233,4,4,3,18,1,0,-3,-2
1526905421455201,-19,-5,-1,-11,-9,-1,0,-3
1526905421455201,-2,-7,-4,2,3,-8,-9,0
1526905421464177,19,13,3,-4,-6,-6,3,2
1526905421464177,-2,-5,-4,3,0,-1,4,3
1526905421479137,6,-2,-1,1,-4,-1,0,-2
1526905421479137,-1,-3,-4,2,3,-1,3,4
1526905421480135,-11,-2,1,2,-7,-10,-6,-8
1526905421480135,-6,-7,-2,1,7,9,2,-2
1526905421501079,4,-2,2,4,5,-1,0,1
1526905421501079,-2,1,0,-13,-8,24,-8,-8
1526905421503073,-15,-6,-4,-5,-2,11,9,-1
1526905421503073,9,4,-1,-4,0,-20,-7,1
1526905421515041,-3,0,-3,-15,-13,2,1,1
1526905421515041,8,4,2,12,13,-9,-5,0
1526905421524017,2,-3,-6,2,11,4,4,-2
1526905421524017,-4,-3,-3,-11,1,11,2,-1
1526905421538977,-5,0,-1,-29,-1,-2,-3,1
1526905421538977,5,0,1,-54,-14,-12,2,0
1526905421539975,1,-10,0,-18,-5,-5,2,-2
1526905421539975,2,4,-1,-4,9,-4,2,4
1526905421560918,0,0,-1,-3,-1,-3,-5,-5
1526905421560918,-9,-1,4,-1,-4,-9,2,-1
1526905421562913,15,5,0,10,3,0,-11,-1
1526905421562913,-9,-3,-3,-2,-2,1,3,-3
1526905421574881,0,-6,-3,8,-2,2,0,2
1526905421574881,-5,13,0,11,3,-21,-3,-2
1526905421583857,-1,-1,-1,6,-1,27,3,6
1526905421583857,-5,-6,2,8,-2,-4,-2,-2
1526905421598817,12,11,1,7,-2,-1,-2,-8
1526905421598817,-6,-9,-7,-1,9,-5,1,-5
1526905421600812,0,3,1,-5,-12,-15,-2,6
1526905421600812,1,3,1,10,8,3,1,0
1526905421621756,-5,-4,-10,-21,-12,-4,-4,-1
1526905421621756,1,-3,-2,7,-10,5,8,-1
1526905421622753,-9,-6,0,14,9,2,-7,-5
1526905421622753,12,6,1,-6,-6,3,6,3
1526905421634721,0,-4,0,4,5,17,2,2
1526905421634721,8,1,2,3,-6,-2,-6,2
1526905421643697,-7,2,-4,13,-3,-8,-9,-8
1526905421643697,-3,-7,-1,0,-1,0,4,-4
1526905421658657,8,5,-1,7,-2,16,-1,-1
1526905421658657,-3,-1,3,13,-2,-2,3,-5
1526905421660651,4,3,1,4,-2,-7,4,2
1526905421660651,5,-6,-6,-9,-4,3,-10,1
1526905421681596,-3,2,-3,-2,-1,-16,-2,-6
1526905421681596,-26,-26,-3,-6,9,8,3,1
1526905421682593,6,12,0,-13,-6,-10,2,4
1526905421682593,6,9,-2,0,1,-3,2,-1
1526905421694561,5,-12,-3,3,2,-7,-6,-2
1526905421694561,2,-6,-2,5,-3,-2,-1,1
1526905421703537,-2,3,3,-6,1,0,2,-2
1526905421703537,-6,-7,3,-1,15,2,-4,3
1526905421718497,-6,2,-1,6,2,1,-3,4
1526905421718497,-8,4,2,-11,-3,5,1,-5
1526905421720492,2,-9,-3,-7,-7,-7,-1,2
1526905421720492,3,-2,-11,-5,-3,1,2,-2
1526905421741435,-9,-8,5,5,4,-8,-1,-1
1526905421741435,2,9,-5,-11,-7,-4,1,7
1526905421743430,4,4,2,4,1,-1,1,0
1526905421743430,-6,-5,-3,-9,-7,-4,3,3
1526905421755398,4,2,5,2,-1,-1,-3,-2
1526905421755398,4,11,-3,-3,0,-1,-2,2
1526905421764374,-8,-15,0,-2,7,-22,-1,2
1526905421764374,8,6,5,2,0,11,-2,-3
1526905421778337,-5,8,2,2,-2,-3,-3,-4
1526905421778337,8,1,7,4,2,5,-1,-7
1526905421780332,24,5,0,-2,-5,-7,-2,5
1526905421780332,-16,-9,-6,-7,-4,-3,2,-3
1526905421801275,6,-6,3,1,-10,-2,2,1
1526905421801275,0,1,-1,12,18,-1,6,1
1526905421803270,-21,-10,-2,7,-5,4,-11,-13
1526905421803270,1,3,3,-1,2,0,-2,3
1526905421815238,-1,-3,-5,-2,-2,1,7,0
1526905421815238,8,-4,-4,-1,-2,1,0,5
1526905421824214,-3,-5,-10,-7,-2,1,4,1
1526905421824214,-1,-4,-2,-2,-6,-2,-4,5
1526905421839174,-12,4,2,3,4,-4,-1,1
1526905421839174,11,7,1,-23,-13,-4,-7,-4
1526905421840172,-15,-20,-5,-20,6,8,3,1
1526905421840172,-3,-7,-3,-6,-4,-8,-7,0
1526905421861115,-1,14,2,1,0,0,3,1
1526905421861115,5,-1,5,6,-3,-1,1,4
1526905421863110,-16,-17,0,-1,1,6,-3,-7
1526905421863110,-21,7,7,-3,3,-1,7,-2
1526905421875078,4,-7,2,-7,3,-1,-7,-5
1526905421875078,2,-2,-2,4,-6,-2,-5,0
1526905421884054,-13,2,-2,6,-8,-3,-2,-8
1526905421884054,18,1,-5,14,-13,-6,2,11
1526905421899014,-1,-10,-5,22,17,1,-1,-8
1526905421899014,-6,-2,0,12,-3,0,3,8
1526905421900012,6,-1,14,53,7,-8,12,-8
1526905421900012,-27,-15,-3,36,0,4,-4,-1
1526905421920955,13,3,-7,-1,-10,-8,-6,-1
1526905421920955,6,4,-4,-15,1,-5,8,5
1526905421922950,-6,-5,-5,-27,-3,-3,-6,4
1526905421922950,1,5,4,-22,2,5,1,-7
1526905421934918,-3,-8,-2,-24,-8,0,2,-4
1526905421934918,-13,-3,3,-26,8,0,-2,0
1526905421943894,25,17,0,-14,-5,3,-1,2
1526905421943894,-2,2,2,-19,-2,-5,-7,-10
1526905421957856,-8,-1,0,3,1,34,4,0
1526905421957856,4,1,-4,2,-1,-2,-9,-9
1526905421964838,-3,0,-2,-2,-1,5,-6,-8
1526905421964838,5,2,-2,5,2,-24,-23,-10
1526905421981792,-8,-3,0,1,-2,-7,12,2
1526905421981792,0,1,2,-3,-18,-4,-1,-1
1526905421982790,0,3,-2,-1,11,3,-5,3
1526905421982790,2,5,-5,-6,-5,2,4,-1
1526905421994758,1,-15,-4,-2,2,-6,-2,2
1526905421994758,4,0,0,11,-3,1,-2,3
1526905422003734,-9,10,-2,-7,-7,-8,6,2
1526905422003734,11,-1,3,-8,6,8,2,-8
1526905422017697,-2,5,1,-7,-1,-11,-5,0
1526905422017697,-20,-22,-2,0,2,1,-1,-11
1526905422024678,29,16,-4,-5,-7,-1,2,12
1526905422024678,-6,-5,-4,-4,-4,-2,-1,-4
1526905422041633,-9,-7,-1,0,6,-1,-5,2
1526905422041633,0,-1,-3,-5,-2,18,-3,-4
1526905422042630,-7,2,0,-5,-2,-5,-1,3
1526905422042630,7,3,3,-26,0,-2,-1,0
1526905422054598,-17,2,-2,-45,-5,0,3,4
1526905422054598,-7,4,-1,3,2,-12,-3,-9
1526905422063574,-3,-20,-5,-5,1,8,-9,-3
1526905422063574,5,2,0,16,0,8,2,0
1526905422078534,4,0,0,19,-7,-18,0,-1
1526905422078534,7,-2,-2,27,2,-3,3,0
1526905422084518,-9,1,-2,21,-2,2,3,0
1526905422084518,-8,-5,2,22,14,3,2,-2
1526905422101473,14,-1,-3,8,-4,-4,-6,0
1526905422101473,12,7,1,6,1,-4,5,2
1526905422102470,-3,-5,-1,-1,-2,2,0,0
1526905422102470,1,0,-1,-3,-1,-2,8,17
1526905422114438,-10,9,2,9,2,-1,-8,-16
1526905422114438,-8,-15,-3,-4,-7,-2,0,8
1526905422124411,1,-1,1,-3,6,-2,2,-3
1526905422124411,6,3,-2,-5,-5,-2,-3,2
1526905422138374,-18,-11,1,5,1,0,-2,-2
1526905422138374,-5,6,-2,-7,-2,-9,0,-1
1526905422145355,11,0,-2,-10,-8,30,0,-2
1526905422145355,-6,-7,-1,-3,2,-1,1,-1
1526905422161312,5,8,4,2,0,0,-4,1
1526905422161312,-3,1,-5,3,2,0,0,1
1526905422163307,-13,-4,-3,-13,-7,-12,-7,-1
1526905422163307,10,0,-1,12,-5,0,-9,-10
1526905422184251,7,0,-1,9,4,7,1,6
1526905422184251,-13,-4,0,-3,7,-1,-2,-3
1526905422185249,9,-3,-1,-7,-1,-6,3,2
1526905422185249,-2,4,-1,1,-6,-1,2,0
1526905422198214,10,-3,1,-4,-2,-7,4,7
1526905422198214,-16,4,1,7,2,20,-13,-7
1526905422205195,-9,3,-1,-1,1,-6,-6,-10
1526905422205195,-6,-7,-1,-4,-11,-3,-2,-1
1526905422221152,-12,-4,-4,3,9,5,4,1
1526905422221152,8,13,0,-8,-3,-4,0,0
1526905422223147,10,-8,0,2,0,0,4,4
1526905422223147,-11,-6,0,-1,0,0,-4,-4
1526905422244091,4,5,2,-1,-7,-4,-3,-5
1526905422244091,6,1,1,0,2,-1,4,4
1526905422245089,-10,-3,-7,-2,-2,-7,-2,-4
1526905422245089,-2,-1,-2,0,0,-6,1,-2
1526905422258054,-7,0,-4,-8,-3,-2,0,-6
1526905422258054,23,3,-2,-6,-2,-3,0,1
1526905422265035,-4,3,7,18,1,3,-1,5
1526905422265035,2,-5,5,-7,5,2,2,3
1526905422280992,-3,0,-1,3,0,2,2,-2
1526905422280992,-1,-9,-9,-8,-8,-1,-10,-4
1526905422282988,13,3,-1,-1,12,-7,7,2
1526905422282988,-7,-1,-3,3,-10,-5,4,1
1526905422303931,-4,3,-1,-4,5,10,0,2
1526905422303931,4,-5,-4,-1,-4,-3,2,0
1526905422305926,12,3,0,0,-4,-2,-2,4
1526905422305926,-5,-2,-1,-7,-4,-1,-5,-5
1526905422317894,6,-1,0,2,-2,-4,-1,-5
1526905422317894,3,-7,-3,-1,1,0,6,6
1526905422326870,-8,3,1,6,0,-2,-11,-14
1526905422326870,6,3,-8,-2,-1,5,-1,0
1526905422340833,2,-2,0,26,-7,-7,-3,-1
1526905422340833,-2,-3,3,13,7,3,1,-1
1526905422342827,-6,4,0,10,4,1,7,2
1526905422342827,4,-15,0,26,5,-14,11,5
1526905422363771,3,0,-4,-6,-6,-25,-11,-5
1526905422363771,23,7,6,24,9,17,3,1
1526905422365766,-23,2,5,-8,-6,-6,-1,-1
1526905422365766,3,5,-6,-10,-1,4,5,-5
1526905422377734,6,-4,1,-2,2,-25,16,5
1526905422377734,-11,-12,-1,-18,-21,-6,-2,-3
1526905422386710,-4,10,-3,-12,6,-4,-2,1
1526905422386710,-3,-8,-5,1,4,6,-6,0
1526905422401670,4,-3,-1,-9,0,14,0,3
1526905422401670,-1,4,-2,-5,-3,-4,-2,-3
1526905422402667,5,-2,-3,1,-1,3,3,1
1526905422402667,-5,0,1,-44,-6,-2,1,6
1526905422423611,-6,-4,-4,-44,-4,9,-1,-4
1526905422423611,-8,0,-4,-28,2,-8,-3,-2
1526905422425606,1,-2,5,12,-2,-1,-2,1
1526905422425606,7,2,0,5,3,0,-5,0
1526905422437574,1,3,-3,-7,-10,-2,1,5
1526905422437574,-11,-2,1,-2,-2,-9,0,-5
1526905422446550,-1,-9,-4,7,0,2,-5,-1
1526905422446550,24,8,4,12,-3,-1,2,2
1526905422461509,-11,-2,0,25,-1,17,0,1
1526905422461509,-5,-1,1,13,0,-4,-2,-1
1526905422462507,17,-3,-2,-1,-1,2,6,2
1526905422462507,-11,-7,-5,2,-7,1,0,-2
1526905422483451,0,3,-4,2,14,-4,-7,1
1526905422483451,5,0,1,0,-3,-12,6,6
1526905422485446,-10,-1,0,-5,-3,8,-11,-5
1526905422485446,-1,-1,3,3,0,-5,-6,-8
1526905422497414,2,-2,-1,-2,-2,3,3,0
1526905422497414,-11,-6,0,-2,-9,-7,0,-2
1526905422506390,-3,1,2,-12,-1,-5,0,-4
1526905422506390,-3,5,-2,4,9,4,-4,-2
1526905422521350,-21,0,-2,12,2,4,-11,-7
1526905422521350,8,-6,-6,-6,3,7,-6,-1
1526905422523344,3,-1,-1,3,-6,-4,-2,3
1526905422523344,-7,-7,-2,-7,-2,-1,-4,-2
1526905422544288,13,2,1,-2,-1,1,0,0
1526905422544288,3,6,-1,-4,3,1,3,6
1526905422545286,-9,-4,-7,-5,-1,-1,0,-8
1526905422545286,1,2,2,-3,2,-23,2,5
1526905422557253,7,4,4,1,-1,25,1,-2
1526905422557253,-10,-13,-2,-8,-4,0,4,0
1526905422566230,17,-1,-2,0,3,-2,-7,1
1526905422566230,-13,1,-2,0,5,2,-4,-9
1526905422581189,1,-2,-1,-4,-8,-9,-3,1
1526905422581189,11,9,0,9,5,4,2,-1
1526905422583185,-17,-4,-3,-9,-17,-4,1,5
1526905422583185,-5,-2,2,-2,4,6,-1,-1
1526905422604128,7,-5,-5,3,4,-5,0,3
1526905422604128,-14,1,-1,-13,-5,1,-8,-5
1526905422605126,-4,3,2,-2,-3,-8,1,1
1526905422605126,6,4,0,0,-9,1,-5,-2
1526905422617094,8,8,-3,-11,2,0,-1,1
1526905422617094,-12,-6,-5,6,4,0,1,1
1526905422626070,-2,-12,5,-3,2,4,3,-2
1526905422626070,-2,-1,-3,-11,-1,2,1,2
1526905422641030,-5,-1,3,8,-4,-5,2,-3
1526905422641030,8,2,0,2,-2,-2,-1,-2
1526905422643024,9,6,-2,-1,2,-1,2,4
1526905422643024,-2,-2,-2,-4,-8,-5,0,-7
1526905422663968,-6,-3,-1,-6,-3,-21,-1,-3
1526905422663968,-5,-2,5,3,3,28,-2,-2
1526905422664966,-4,-1,-4,-3,-2,0,3,3
1526905422664966,-4,0,0,3,6,2,1,-2
1526905422677931,-33,-2,8,-2,7,-2,-3,0
1526905422677931,10,-3,-1,-4,8,-2,-1,-4
1526905422686907,-9,-10,-2,-1,1,1,0,0
1526905422686907,1,6,0,-4,-8,1,3,7
1526905422700869,12,6,-2,-4,-6,0,-2,0
1526905422700869,-13,-14,-3,-2,-3,-8,-4,-4
1526905422702864,-10,-1,-6,-8,-3,-1,-2,-6
1526905422702864,-13,-10,-1,7,1,-2,-1,0
1526905422723808,41,9,2,2,-5,-1,-1,4
1526905422723808,10,10,-4,2,1,-2,-7,-6
1526905422725803,1,-4,1,8,-1,-1,0,-6
1526905422725803,0,-2,-4,-1,2,3,-3,-1
1526905422737771,-9,-9,-1,13,0,3,2,-4
1526905422737771,1,4,3,15,-4,-3,-2,-5
1526905422746747,3,-1,-2,50,-1,-3,0,-2
1526905422746747,-3,4,3,22,-1,-1,-5,-5
1526905422761707,-7,1,-5,2,0,5,-2,-3
1526905422761707,8,-5,-3,-15,-2,-8,3,4
1526905422762704,0,3,3,-32,3,2,-1,5
1526905422762704,8,-7,-2,-31,-2,-3,1,0
1526905422783648,-3,3,-3,-29,-2,0,2,-2
1526905422783648,-5,-9,-4,-29,-7,-8,-5,-8
1526905422785643,2,9,-3,-12,7,0,3,0
1526905422785643,13,8,-3,0,-4,3,5,4
1526905422797611,-2,-5,5,-7,3,1,-15,-12
1526905422797611,-13,-1,2,-3,-3,-3,1,-2
1526905422806587,1,4,-2,-28,-2,0,1,-2
1526905422806587,0,-1,-1,-27,1,1,2,-1
1526905422820549,-9,-9,-3,-7,-6,-3,-2,2
1526905422820549,-12,2,0,9,13,4,1,4
1526905422827531,17,1,-4,15,-6,-5,-2,-5
1526905422827531,1,12,10,19,5,1,-4,-2
1526905422843488,5,-9,-3,-3,-2,3,2,-3
1526905422843488,-3,3,1,-2,-1,2,3,3
1526905422845483,15,-3,-1,-115,2,0,4,7
1526905422845483,-15,0,-2,-83,-6,-3,-2,-6
1526905422857450,-5,-5,-2,-39,-2,-4,-11,-1
1526905422857450,5,2,-3,20,-1,-1,-11,-3
1526905422866427,11,5,0,55,-2,-1,-2,1
1526905422866427,1,-1,-2,-13,0,-1,1,0
1526905422881387,-6,-7,-2,-34,1,-26,6,-1
1526905422881387,3,4,4,-41,1,13,7,-2
1526905422883382,-13,-4,1,1,-5,-1,4,2
1526905422883382,7,9,0,49,0,1,2,1
1526905422904325,-13,-7,-5,84,1,-1,4,-5
1526905422904325,16,5,-3,58,-6,-7,6,9
1526905422905323,2,-9,-2,50,6,1,-3,-4
1526905422905323,-6,-9,1,50,-7,1,2,6
1526905422917291,-5,-6,-8,16,4,5,1,-5
1526905422917291,-5,-1,5,-40,-4,-8,-1,1
1526905422926267,-17,-7,1,1,-4,3,-6,-9
1526905422926267,5,-3,-3,6,13,1,3,3
1526905422940229,23,10,-1,-2,-12,2,0,5
1526905422940229,2,-7,-2,5,-2,-1,-2,3
1526905422947211,-12,5,-1,2,1,-5,1,-5
1526905422947211,9,-3,-2,17,-5,-1,-6,-6
1526905422964165,-2,-1,3,17,2,4,-2,-3
1526905422964165,2,-1,-1,13,2,-3,-3,-2
1526905422965163,-4,-3,-3,5,-3,7,3,3
1526905422965163,-6,-5,-7,12,-2,-4,-10,-2
1526905422977131,20,-3,2,-4,1,5,0,-1
1526905422977131,-22,0,-9,4,-3,-12,-3,7
1526905422986106,-2,0,3,16,-3,29,-2,-1
1526905422986106,5,4,1,6,6,-5,2,-4
1526905423001067,2,0,-2,0,-14,-1,-5,0
1526905423001067,3,16,-1,8,12,-2,1,1
1526905423007051,-4,-17,-6,6,-1,-7,4,3
1526905423007051,2,2,2,-1,2,1,0,3
1526905423024005,-9,2,0,-4,-3,3,5,5
1526905423024005,4,-3,2,1,-8,-3,7,-1
1526905423025003,1,5,-2,-6,-4,-12,-16,-9
1526905423025003,-14,-7,-1,1,1,-1,-1,-3
1526905423036971,7,5,2,2,0,1,7,3
1526905423036971,-2,-9,1,1,-2,1,-1,-1
1526905423046944,14,10,-4,-5,3,-8,-4,2
1526905423046944,-6,-10,0,-3,-2,-5,0,4
1526905423060907,-7,8,0,-5,1,2,1,4
1526905423060907,-3,-1,1,-3,-4,0,-3,-8
1526905423067888,12,9,0,-3,1,-3,-1,-2
1526905423067888,2,-7,0,-7,-8,0,1,-1
1526905423083845,0,-2,-5,5,6,0,-5,-1
1526905423083845,-4,2,-4,-14,-9,-1,2,3
1526905423085840,-13,-3,4,0,-1,3,-3,-15
1526905423085840,7,1,-4,-9,-10,1,1,5
1526905423106784,-1,-9,-1,-21,12,2,5,2
1526905423106784,8,1,6,31,5,7,-4,-2
1526905423107782,-15,-4,-6,4,-3,-21,-2,-3
1526905423107782,-4,-3,-2,0,-5,8,-17,-10
1526905423120747,12,2,2,3,-5,-3,-3,-2
1526905423120747,-10,-8,-3,7,-2,-7,-6,-7
1526905423127728,34,2,5,2,0,1,-1,6
1526905423127728,-30,1,-2,-5,3,0,3,-1
1526905423143685,-8,-11,-7,19,-3,-4,0,-4
1526905423143685,6,5,-4,10,0,3,1,-1
1526905423145680,-12,-7,-1,1,0,3,2,-2
1526905423145680,7,-1,-4,-3,-4,-1,4,2
1526905423166624,-4,3,1,-19,-4,-1,-6,-2
1526905423166624,-4,-5,-4,8,0,-2,1,1
1526905423167621,-8,1,0,-15,3,4,2,6
1526905423167621,8,3,-2,-4,1,-4,-1,-5
1526905423180586,-3,2,1,-5,3,0,2,-1
1526905423180586,1,-1,-1,-20,-12,13,-3,2
1526905423187568,-6,-1,0,-15,-4,-6,5,7
1526905423187568,6,3,5,-3,8,-1,-1,4
1526905423203525,-12,-8,0,18,-5,3,-3,-4
1526905423203525,5,-2,-2,18,0,-5,2,2
1526905423205520,16,3,1,66,-1,0,-5,-7
1526905423205520,-19,-3,-1,51,-3,-3,2,-3
1526905423226464,2,-7,-5,28,-16,-10,-3,-6
1526905423226464,0,-1,-4,14,15,-3,0,1
1526905423227461,-11,-4,-2,21,-5,2,3,1
1526905423227461,15,0,3,15,2,-1,-7,-12
1526905423240427,-10,5,0,6,-2,3,4,2
1526905423240427,6,3,3,-10,-2,-1,-3,-1
1526905423249403,-8,-6,-4,-25,-2,1,-1,0
1526905423249403,5,-3,-7,-54,-5,-6,6,7
1526905423263365,-1,7,3,-42,-1,10,-11,1
1526905423263365,-1,-3,0,-24,1,-1,-6,-2
1526905423265360,-7,7,1,-34,4,0,1,-6
1526905423265360,5,-6,-2,-21,-4,-3,1,1
1526905423286304,-21,0,-1,-22,5,-3,2,-4
1526905423286304,-6,-5,-3,-19,-3,-3,2,-6
1526905423288299,1,-1,-1,-22,0,4,-3,3
1526905423288299,2,4,-1,-7,2,4,-2,-7
1526905423300266,10,2,-1,-11,0,-3,1,6
1526905423300266,-11,-8,-3,-13,0,-1,-1,1
1526905423309242,1,-8,-3,-5,-2,-4,1,0
1526905423309242,1,5,2,-6,-2,-1,1,-1
1526905423324202,5,-3,-3,3,-3,-5,0,1
1526905423324202,0,-1,0,-7,-1,1,4,2
1526905423325200,-3,-2,-4,-9,9,-8,-6,-8
1526905423325200,-2,10,3,22,0,1,2,4
1526905423346144,1,-4,-3,-9,0,-6,-4,0
1526905423346144,-2,0,1,9,-3,11,-1,-5
1526905423348139,0,-1,-2,0,-5,-5,3,4
1526905423348139,5,5,-2,-11,6,1,-2,-6
1526905423360107,-7,2,3,13,3,1,4,-5
1526905423360107,6,-4,-4,-7,-2,-8,0,3
1526905423369083,13,6,3,2,0,1,-5,4
1526905423369083,0,-4,0,0,-4,3,2,-6
1526905423384043,-2,0,0,3,-1,-1,-2,-2
1526905423384043,13,3,-1,-13,-1,-1,1,4
1526905423385040,-15,-7,-1,-2,-6,4,-1,-7
1526905423385040,4,-3,-6,-3,-2,-1,1,6
1526905423405984,9,3,3,9,7,2,1,3
1526905423405984,-9,1,5,0,-4,0,0,-7
1526905423407979,12,8,0,23,-8,-4,-1,3
1526905423407979,-11,-2,0,11,8,-1,-3,-1
1526905423419946,1,-6,-2,13,1,-1,1,0
1526905423419946,8,6,0,10,3,-2,0,1
1526905423428923,-10,-5,1,-15,-9,-2,-1,-5
1526905423428923,-2,4,-3,-13,-2,-8,-1,-2
1526905423443882,-13,-14,3,-8,6,-17,-1,-1
1526905423443882,-12,-1,-6,-12,-2,27,3,-1
1526905423445877,19,1,-3,-7,6,-3,-4,1
1526905423445877,-11,0,-2,-11,-10,-4,3,-8
1526905423465824,9,-2,-2,-13,-8,-5,-4,1
1526905423465824,-2,1,-2,4,1,-10,-5,-3
1526905423467819,-12,-7,-3,1,-2,-6,0,-2
1526905423467819,6,-4,2,-2,16,10,1,5
1526905423479786,9,12,5,0,-11,6,1,0
1526905423479786,-2,-21,-6,-2,1,-9,0,-2
1526905423488763,-8,8,-1,-5,-3,3,-1,1
1526905423488763,11,0,0,-1,-8,-6,-7,2
1526905423503722,-3,-6,-7,-6,0,1,1,2
1526905423503722,-4,-3,-1,-2,-17,-4,0,-4
1526905423505717,-3,8,2,-2,17,-3,2,-8
1526905423505717,-2,-12,-7,4,-5,-1,-4,1
1526905423526661,5,1,-4,-7,2,1,-3,-1
1526905423526661,-1,1,3,2,1,-1,3,3
1526905423527658,-2,-5,-2,-6,-8,0,2,7
1526905423527658,-4,0,-8,-2,-2,-2,0,-2
1526905423539626,2,2,-7,-10,2,3,-9,-6
1526905423539626,-18,7,8,6,2,-2,5,-3
1526905423548602,17,-6,4,11,2,0,-6,-4
1526905423548602,1,-1,0,-8,-1,-2,-6,2
1526905423563562,3,7,0,11,-11,-4,1,0
1526905423563562,-6,5,-6,-9,8,0,0,-3
1526905423565557,3,-9,1,-1,2,5,-4,-4
1526905423565557,15,11,4,10,-5,-1,3,5
1526905423586501,-17,2,2,-9,-16,-3,-5,-10
1526905423586501,-8,-11,-5,1,9,-6,-3,-5
1526905423587499,9,9,-1,6,3,5,5,6
1526905423587499,-11,-22,-8,-1,-1,-2,-3,-4
1526905423599466,2,9,2,-1,-3,-4,0,1
1526905423599466,-18,-8,-3,-9,-4,-16,-3,-1
1526905423609440,14,4,2,-1,-3,29,1,7
1526905423609440,5,5,3,-4,1,-2,1,1
1526905423623402,-12,1,1,-2,2,-3,-1,-1
1526905423623402,11,-4,-2,-3,-4,-4,-5,-3
1526905423625397,-23,8,0,-9,0,-8,2,-3
1526905423625397,1,-4,-6,-1,0,3,2,1
1526905423646341,13,-8,5,3,2,6,9,2
1526905423646341,13,9,-2,12,0,-1,-12,-3
1526905423648336,-10,-2,-3,-12,-11,-7,-2,-8
1526905423648336,-4,-9,-2,0,-4,-2,1,-3
1526905423660304,3,5,2,-2,14,-2,3,5
1526905423660304,14,1,1,-8,-8,7,-7,13
1526905423669280,-13,1,-4,-8,-7,24,1,-23
1526905423669280,10,5,3,13,2,-6,-5,-2
1526905423684240,-13,-10,-9,-6,-4,-2,-1,4
1526905423684240,10,9,4,14,-1,-3,9,5
1526905423685237,-8,-12,-2,-12,4,-6,-2,9
1526905423685237,-4,2,2,6,7,4,4,4
1526905423706181,13,-6,-2,5,2,6,-3,7
1526905423706181,-2,4,3,-1,-4,-6,-4,-6
1526905423708176,-12,-14,-11,0,5,-12,0,3
1526905423708176,-7,-3,-3,-3,-1,4,3,-1
1526905423720143,-5,-3,-2,-4,-1,-4,2,8
1526905423720143,-2,-9,0,-4,-2,2,-2,-11
1526905423729120,-11,1,-1,-7,-4,-9,-4,-2
1526905423729120,3,1,-1,-44,-13,0,-1,-1
1526905423744080,13,-2,-2,-41,12,-5,-2,-6
1526905423744080,-3,-2,0,-28,1,3,2,-3
1526905423745077,-5,-4,-1,-6,-4,-11,3,6
1526905423745077,-13,-2,0,8,-6,-2,-2,-7
1526905423766021,-10,2,-3,22,-9,-6,-5,-5
1526905423766021,-6,-11,-5,1,-3,2,16,1
1526905423768016,19,7,2,40,8,-3,-6,4
1526905423768016,-12,-4,-1,21,-3,-10,-2,6
1526905423779984,15,3,-4,-77,0,1,1,-2
1526905423779984,-15,6,-2,-83,-3,-2,4,-6
1526905423788960,-11,-10,0,-45,-9,-7,-15,-2
1526905423788960,16,3,-4,-16,9,3,0,2
1526905423803920,-19,-7,-8,36,-2,5,-3,-14
1526905423803920,9,2,2,57,7,4,-1,6
1526905423805915,4,-7,4,17,-10,-15,0,0
1526905423805915,-3,2,6,44,3,-22,-1,-3
1526905423825861,-7,-1,0,58,1,-3,0,-4
1526905423825861,11,8,-2,17,-2,1,-2,4
1526905423827856,2,3,-6,17,-3,-10,-6,-5
1526905423827856,-6,-9,0,-5,-5,8,-1,2
1526905423839823,0,7,2,5,-5,-2,7,3
1526905423839823,-8,-12,-5,-4,-1,-13,-4,-2
1526905423848799,-3,4,2,14,13,14,2,-1
1526905423848799,6,-2,-3,-11,-3,1,-6,-2
1526905423862762,-4,4,-2,-4,-4,-1,1,-1
1526905423862762,-8,-7,-3,15,-9,0,-5,0
1526905423869744,8,1,-6,-2,3,2,-4,-1
1526905423869744,-4,-2,2,-1,-8,4,-1,-9
1526905423886698,-4,-1,8,9,8,1,-3,-2
1526905423886698,-10,-4,-1,3,2,6,2,1
1526905423887696,-5,4,4,-2,-5,-4,-3,-7
1526905423887696,5,-14,-2,-11,-1,-16,-4,5
1526905423899663,-16,-8,-4,1,-4,3,-2,-11
1526905423899663,16,12,1,-22,-9,-9,-6,8
1526905423908640,8,10,6,23,9,15,12,7
1526905423908640,-1,-6,0,1,-3,-1,-3,-1
1526905423923599,-4,1,1,1,-1,2,2,10
1526905423923599,-11,-9,-5,20,-1,3,-3,-9
1526905423929585,0,-4,-5,32,-2,-11,2,9
1526905423929585,-12,7,0,37,10,0,1,-12
1526905423946538,9,-6,4,24,-3,-1,-2,1
1526905423946538,-2,8,2,17,5,6,6,-3
1526905423947536,18,3,1,23,-8,0,0,0
1526905423947536,-10,2,0,10,6,5,7,4
1526905423960501,-7,-6,-2,-3,-4,-1,-7,-11
1526905423960501,6,4,0,-18,2,1,0,-1
1526905423969477,-8,-15,-2,-15,-1,-1,2,-3
1526905423969477,12,5,1,-25,2,8,-2,0
1526905423983439,-19,2,3,-13,-3,-3,-1,1
1526905423983439,0,0,6,6,3,-16,-17,-6
1526905423990421,8,0,-3,-33,-5,32,-2,-8
1526905423990421,-3,12,1,-31,-5,-3,-7,-10
1526905424006378,14,4,-3,-6,-1,-5,7,8
1526905424006378,-5,-3,0,-3,0,-3,-3,-3
1526905424008373,-7,1,0,-11,3,-5,0,0
1526905424008373,0,-4,-3,2,-5,1,-2,2
1526905424029317,7,-1,-5,-9,3,3,-5,-8
1526905424029317,1,6,-5,1,8,5,5,1
1526905424030315,-5,1,-2,-9,-6,-11,1,-1
1526905424030315,1,1,0,1,-1,1,1,4
1526905424043279,9,-1,-5,8,-3,-7,-4,-1
1526905424043279,14,8,3,25,-3,3,1,3
1526905424050261,-12,-6,0,13,0,-5,1,-2
1526905424050261,-4,0,-4,20,2,2,-2,0
1526905424066218,-7,-7,0,-2,-3,-1,-2,1
1526905424066218,23,-3,-3,-12,-5,10,2,8
1526905424068213,-20,0,-3,-17,2,-31,-6,-11
1526905424068213,6,-6,-2,-9,9,29,20,1
1526905424089157,5,-1,3,1,2,-1,-11,1
1526905424089157,5,-3,-1,-4,-7,-5,1,4
1526905424090154,0,-2,-3,-54,-5,-5,5,3
1526905424090154,0,-2,-1,-48,-1,-1,1,-1
1526905424103120,1,-4,-1,-35,0,-1,7,5
1526905424103120,-10,5,0,-19,-2,-5,-2,-9
1526905424110100,-1,0,1,17,1,9,-4,0
1526905424110100,9,7,-3,22,-19,-10,-10,-3
1526905424126058,-10,-16,-1,29,14,7,-4,-1
1526905424126058,-7,-13,-4,22,-5,-3,-4,-2
1526905424128053,-9,-1,-2,11,1,4,4,5
1526905424128053,-4,-9,-2,4,-2,-4,-2,-2
1526905424148997,27,20,4,8,-6,-9,-5,0
1526905424148997,-6,-9,-3,-17,-3,3,3,-3
1526905424149994,1,-2,-10,-17,-8,-3,-3,-7
1526905424149994,-11,0,8,28,13,-3,-2,2
1526905424162959,-8,-1,-2,15,2,4,1,-7
1526905424162959,2,1,-2,-6,3,-3,-2,-2
1526905424169941,-8,5,0,-1,-5,4,3,6
1526905424169941,-2,-1,-2,-13,-7,-6,-3,-1
1526905424185898,12,0,1,-4,5,1,4,9
1526905424185898,-16,11,3,7,-4,12,-1,-7
1526905424187893,-3,-26,-3,-13,-4,-2,-10,-3
1526905424187893,-4,7,-3,6,-1,-5,2,2
1526905424208837,2,2,-2,-6,-6,-1,3,2
1526905424208837,0,0,1,5,-9,-8,-1,3
1526905424210832,-3,-2,0,-3,13,2,2,-5
1526905424210832,3,2,2,-2,-1,2,-7,-1
1526905424222799,-9,-13,-13,-15,-11,-5,0,-6
1526905424222799,2,-1,-3,-16,2,-3,-10,-3
1526905424231776,0,13,4,10,-6,0,6,6
1526905424231776,-4,-13,-5,-17,-2,-5,-3,0
1526905424246735,0,13,2,11,3,0,4,0
1526905424246735,9,-18,-2,-3,-9,-3,3,1
1526905424247733,4,-1,0,10,10,1,-4,1
1526905424247733,2,6,-3,-7,-5,-4,0,-2
1526905424268677,-1,0,0,-4,0,4,-1,-5
1526905424268677,-11,-12,-1,3,0,1,0,-1
1526905424270671,14,6,5,-2,0,1,-4,0
1526905424270671,-12,-14,-5,-20,-3,-5,-5,-2
1526905424282639,1,2,1,7,-2,2,-1,-4
1526905424282639,-11,-1,-3,0,5,-4,-2,-3
1526905424291616,7,3,4,3,-1,1,3,1
1526905424291616,5,-2,-2,-1,-5,-3,-3,-5
1526905424306575,-2,0,-2,-8,-4,-8,-9,2
1526905424306575,-7,8,-2,-17,-10,-1,9,-1
1526905424307573,0,-13,-1,5,9,22,-2,-1
1526905424307573,12,8,-1,4,3,-1,4,1
1526905424328516,-15,1,2,-1,-3,-3,2,-6
1526905424328516,6,0,-3,3,3,0,-9,1
1526905424330512,6,2,-1,-5,-10,-9,-4,-2
1526905424330512,3,-6,-3,7,2,0,1,3
1526905424342479,-12,2,7,-7,7,7,1,2
1526905424342479,4,-3,-5,-5,-6,-5,-1,-5
1526905424351455,8,11,3,15,2,-6,3,5
1526905424351455,-14,-9,0,-2,2,7,1,-2
1526905424366415,7,4,-1,-6,-5,-5,-3,2
1526905424366415,-7,-1,3,2,5,0,1,3
1526905424367413,3,0,3,9,-3,-4,-2,-3
1526905424367413,-8,1,-1,-3,-6,-5,-4,-1
1526905424389354,22,2,3,1,4,4,3,3
1526905424389354,12,11,-2,15,10,3,0,-1
1526905424390351,3,-11,-8,-8,-4,-5,-2,-7
1526905424390351,-1,9,7,18,2,-3,-2,-1
1526905424402319,-15,-7,-5,-17,-4,1,-1,-8
1526905424402319,6,5,5,7,-11,-2,-1,1
1526905424411296,-3,12,3,-3,11,0,3,-1
1526905424411296,6,-1,-5,-2,-5,1,-2,-6
1526905424426255,-3,-5,-6,0,-2,-3,-3,2
1526905424426255,-8,-7,0,0,-4,-12,-1,-3
1526905424428250,-3,1,-4,-4,-5,25,-5,-6
1526905424428250,8,-2,6,-1,4,0,1,8
1526905424449194,-11,-12,-5,3,-4,-1,1,7
1526905424449194,-1,9,2,-3,6,0,-4,-6
1526905424450192,8,-9,-1,2,-7,-9,0,3
1526905424450192,-13,0,-2,-4,0,0,-1,-5
1526905424462159,0,-7,-3,-1,-3,1,-1,-1
1526905424462159,-2,-2,0,4,1,-3,3,4
1526905424471135,-4,6,-1,2,-3,-7,-2,-3
1526905424471135,10,-3,-3,4,0,0,-1,1
1526905424486095,-19,1,2,-7,0,-5,-1,-2
1526905424486095,-10,-10,0,-55,0,4,0,0
1526905424488090,11,7,-2,-31,-2,-5,2,-2
1526905424488090,4,4,4,-22,1,0,-7,-14
1526905424509034,-1,-8,1,11,1,3,-1,-3
1526905424509034,3,7,4,80,3,2,3,4
1526905424510031,-12,-18,-4,57,1,-2,-6,-10
1526905424510031,4,1,-5,32,-2,-2,1,11
1526905424522997,-16,4,1,3,-1,-1,7,-2
1526905424522997,14,4,-2,-35,-1,4,-8,-9
1526905424531973,-8,-6,-4,-42,-1,-4,2,4
1526905424531973,3,-2,-1,-33,-3,-2,1,-1
1526905424545935,21,11,-1,-47,-1,-2,0,7
1526905424545935,-18,-20,-6,-75,-1,-1,5,3
1526905424547930,-2,11,4,-27,-1,-2,-8,-4
1526905424547930,-11,-4,-7,-32,-8,-4,-1,2
1526905424568874,16,11,-1,0,1,2,-1,-2
1526905424568874,3,8,-2,-101,7,2,-2,-5
1526905424570869,-10,-9,-3,-88,5,-4,-1,0
1526905424570869,-2,0,1,-16,-6,-4,-2,-1
1526905424582836,3,-2,0,-13,0,2,-4,-1
1526905424582836,3,10,-2,52,-3,1,4,6
1526905424591813,5,-8,1,17,-1,-2,3,4
1526905424591813,-19,0,-3,-16,3,-1,-5,-23
1526905424606772,1,-5,-2,-44,-4,-3,-1,0
1526905424606772,2,-3,4,21,2,-1,2,0
1526905424607770,3,7,-1,61,-3,0,2,3
1526905424607770,4,0,-3,106,1,-3,2,4
1526905424628714,-1,-4,1,105,-2,-1,-6,-3
1526905424628714,-7,-6,0,54,0,-1,2,-1
1526905424630709,7,14,-1,33,-2,-1,2,-7
1526905424630709,-6,-10,1,-10,-2,-1,-1,2
1526905424642676,-3,0,3,1,0,-1,-7,2
1526905424642676,2,-1,-9,35,-8,-2,-7,-8
1526905424651653,-5,-6,-4,29,5,-2,4,1
1526905424651653,11,9,8,25,12,5,0,1
1526905424666613,-5,5,1,20,-7,-4,-1,-6
1526905424666613,-8,-10,-4,37,3,1,-5,-6
1526905424667611,-5,6,5,16,0,1,0,4
1526905424667611,4,10,1,-4,3,0,4,1
1526905424688554,8,-9,-3,9,8,-1,0,2
1526905424688554,-1,0,-5,-12,-6,-3,-1,-3
1526905424690549,-4,-7,-5,-23,-6,-6,-4,-1
1526905424690549,-3,0,0,-21,-1,0,5,4
1526905424702516,-2,0,-1,-26,-4,-1,1,2
1526905424702516,-6,-2,-1,-13,0,-1,4,-2
1526905424711493,2,-5,-1,-4,0,-4,-1,-1
1526905424711493,-4,-8,-4,0,-4,-1,4,2
1526905424726452,4,1,0,-2,-3,-3,-1,-1
1526905424726452,15,-2,3,1,1,0,-1,8
1526905424728447,-26,-1,-1,5,-5,-1,-5,-5
1526905424728447,15,2,-4,1,2,-1,-5,-4
1526905424748394,-3,-6,-4,0,-2,2,2,-3
1526905424748394,-5,4,6,13,1,-5,-1,-3
1526905424750389,-2,-15,-5,3,-17,-2,-1,-1
1526905424750389,9,4,-1,2,8,4,2,7
1526905424762356,-16,-20,-3,2,4,4,2,-5
1526905424762356,1,11,0,4,1,0,0,2
1526905424771333,-5,-5,-2,-1,-3,0,3,1
1526905424771333,-4,-1,0,-4,-11,-6,-8,-4
1526905424785295,-1,6,0,-2,-1,-3,-2,-8
1526905424785295,-12,-4,0,-2,1,4,3,-8
1526905424792276,16,4,-2,-3,3,0,-7,-3
1526905424792276,-5,1,2,-4,-4,-4,-2,4
1526905424809231,1,5,5,-4,-1,-3,-7,1
1526905424809231,20,5,-3,-4,-3,-3,-3,1
1526905424810229,1,-4,0,-2,2,1,-1,-2
1526905424810229,-3,-5,-2,-3,-1,1,3,-2
1526905424822196,-14,-7,-4,-1,-3,0,1,0
1526905424822196,-11,-2,-1,-4,-4,-1,1,10
1526905424831172,12,4,2,0,9,0,-2,-6
1526905424831172,-7,0,-2,0,0,2,0,1
1526905424846133,6,5,-6,-7,-4,-9,-9,-10
1526905424846133,-2,-19,-1,1,1,1,1,-1
1526905424852116,4,6,0,-1,-15,-2,3,3
1526905424852116,-10,-5,1,-7,13,2,-5,-8
1526905424869071,24,8,3,7,-2,0,5,16
1526905424869071,-25,-3,-4,5,-2,-2,-8,-19
1526905424870068,-3,-2,-3,10,-3,-5,-2,1
1526905424870068,12,3,-2,2,-7,-3,2,4
1526905424882036,-3,3,4,7,2,2,4,6
1526905424882036,23,-11,-3,-8,1,0,-2,10
1526905424891012,-16,1,-9,-11,0,-2,-1,-9
1526905424891012,5,4,6,-3,-3,0,-4,-1
1526905424905972,-12,-6,-3,-7,2,2,-3,-16
1526905424905972,2,3,-1,2,-3,0,1,2
1526905424912954,1,0,2,8,3,0,-3,-3
1526905424912954,-1,-7,-2,4,-6,-3,-2,3
1526905424928911,-1,3,-3,5,-5,0,4,-2
1526905424928911,1,3,-2,-19,-15,-13,-3,1
1526905424930906,1,0,3,1,10,4,-3,-3
1526905424930906,-9,-1,-3,0,-9,3,5,2
1526905424942873,7,-2,-2,-26,13,0,2,6
1526905424942873,-18,-2,-1,-31,-3,0,-3,-3
1526905424951850,13,7,-1,-3,-9,-19,1,3
1526905424951850,1,-4,-4,32,-1,-21,-3,-18
1526905424965812,7,-3,0,52,0,25,0,0
1526905424965812,-26,-1,1,46,2,-2,-1,-4
1526905424972794,5,6,1,11,0,0,2,3
1526905424972794,12,-7,-1,-1,0,-2,3,10
1526905424988751,-15,-2,1,-8,-6,-11,-3,-11
1526905424988751,-1,-4,-2,-18,6,2,7,5
1526905424990746,-7,-7,-3,-29,-6,5,-5,-2
1526905424990746,-12,-5,-4,-15,-7,1,-5,-4
1526905425011690,13,5,6,18,-7,1,1,11
1526905425011690,2,-1,-4,41,11,7,2,-2
1526905425012687,-3,-1,-7,16,-11,-8,-2,0
1526905425012687,1,3,3,100,20,10,4,0
1526905425025652,2,-7,-7,92,-7,-4,3,6
1526905425025652,6,4,2,114,0,-3,2,-5
1526905425032634,12,-1,3,72,5,0,-3,1
1526905425032634,-27,3,-3,1,-8,10,-8,-4
1526905425048591,-4,-3,-7,-49,-1,-6,4,3
1526905425048591,0,-1,1,-53,3,0,-3,2
1526905425050586,8,-1,-2,-49,4,11,4,2
1526905425050586,-10,-2,0,-56,-6,-9,2,-3
1526905425071529,-3,-3,-2,-38,-14,-9,-3,0
1526905425071529,13,7,1,-40,9,4,-1,8
1526905425072527,-16,-5,1,-34,0,-4,-5,-12
1526905425072527,6,1,3,-21,4,4,-2,4
1526905425085492,1,-4,-6,-42,-2,-3,0,-4
1526905425085492,-1,1,-1,-35,-13,-3,-6,-7
1526905425092474,14,17,4,-31,1,5,2,4
1526905425092474,-3,-13,1,-23,6,1,-1,-3
1526905425108431,-3,-3,0,-42,3,3,-3,1
1526905425108431,1,3,0,-63,1,-1,5,5
1526905425110426,5,0,-2,-53,-10,-5,2,2
1526905425110426,7,3,-6,-52,-1,2,-3,7
1526905425131370,-9,2,-1,-21,2,-6,-1,-6
1526905425131370,10,-4,-4,1,-3,-2,-1,-1
1526905425133364,3,-3,-2,20,3,3,1,2
1526905425133364,-8,0,-4,6,-9,-5,-1,2
1526905425145332,-9,0,1,20,4,-19,5,-1
1526905425145332,5,-2,0,22,-7,22,-1,-1
1526905425154309,9,0,3,35,13,1,0,-4
1526905425154309,-4,0,-1,10,-5,-4,-2,-7
1526905425169268,7,-4,-4,12,15,2,-5,-3
1526905425169268,-1,7,2,2,-4,-4,-4,1
1526905425170266,-12,-14,1,2,1,-4,-4,-6
1526905425170266,14,10,-1,-6,-7,0,1,2
1526905425191209,-4,-7,1,-1,0,6,-3,-10
1526905425191209,0,3,-1,-1,0,-7,-1,2
1526905425193205,-6,-5,-2,-3,-4,3,2,5
1526905425193205,-4,16,2,-2,1,-4,-3,-5
1526905425205172,18,8,2,-6,-10,2,1,2
1526905425205172,-1,-9,0,0,9,0,1,0
1526905425214148,-16,1,1,-2,1,-4,0,-5
1526905425214148,3,-5,-6,-3,-4,0,1,-1
1526905425229108,-9,0,-1,-10,1,2,-4,-3
1526905425229108,0,-6,-4,-19,-11,-5,0,1
1526905425230106,-9,1,0,7,-1,-1,-1,4
1526905425230106,12,-6,5,5,1,1,-1,2
1526905425251049,3,5,1,6,-2,3,0,3
1526905425251049,-5,-8,-1,7,9,-4,5,-4
1526905425253044,13,8,2,-3,-3,7,-9,0
1526905425253044,-6,-6,-8,-17,-21,-9,-8,-2
1526905425265012,-9,-5,-4,1,17,-14,-3,-4
1526905425265012,-9,3,2,-2,-6,25,-1,1
1526905425273988,9,1,-5,-2,2,0,2,1
1526905425273988,7,-3,1,8,-2,-1,1,0
1526905425288948,0,1,3,2,-4,1,-2,1
1526905425288948,-14,-8,-3,0,4,-8,2,-8
1526905425290943,-5,-3,-9,-7,-5,-3,2,-1
1526905425290943,-2,4,3,-1,4,1,0,-2
1526905425310889,-12,-5,-4,-2,-4,2,-4,-3
1526905425310889,20,12,0,6,1,-7,-2,3
1526905425312884,-18,-16,2,-2,-6,1,2,-1
1526905425312884,-6,-5,-2,-13,11,-3,-3,-5
1526905425324852,-1,1,4,23,6,7,0,1
1526905425324852,-8,-7,-2,4,-3,-4,-5,-5
1526905425333828,11,4,-6,11,5,-1,4,1
1526905425333828,1,5,4,0,2,0,2,0
1526905425348788,-11,-8,-1,-10,-7,-2,0,1
1526905425348788,6,6,-2,-4,-2,-1,0,2
1526905425350783,5,15,4,-2,-2,-3,-1,-1
1526905425350783,-5,-4,-12,-5,-1,0,0,0
1526905425371727,-14,-12,1,0,-1,2,-4,-1
1526905425371727,21,3,-3,4,0,-4,2,5
1526905425372724,32,17,3,-5,1,-3,-2,-1
1526905425372724,-25,-24,-6,1,-1,0,0,-1
1526905425384692,22,13,-7,-1,-18,-5,1,1
1526905425384692,-16,-8,2,-6,12,-3,-5,-10
1526905425393668,7,-2,3,4,2,4,-5,-5
1526905425393668,1,9,2,4,0,1,2,6
1526905425408628,0,-4,-2,2,1,0,-1,-5
1526905425408628,-8,-8,0,-20,-5,-1,4,2
1526905425410623,-14,-7,-5,-49,-3,-2,2,3
1526905425410623,4,4,3,-22,5,3,-2,-6
1526905425431567,-7,-4,-3,-13,-1,-3,-3,1
1526905425431567,16,6,3,13,-3,-4,-3,1
1526905425432564,-11,-7,-2,71,0,-2,-4,1
1526905425432564,-3,15,1,48,-1,2,4,1
1526905425444532,-11,-15,-6,19,1,3,2,-2
1526905425444532,2,6,-1,9,-3,-1,-2,-2
1526905425454505,-5,-5,-3,-23,-4,-2,3,5
1526905425454505,8,0,2,-26,-1,-2,-1,-3
1526905425468468,18,9,3,-24,9,2,3,-1
1526905425468468,-18,-5,-7,-31,-6,-3,-1,0
1526905425470463,-4,-4,-3,-28,-2,-2,-3,0
1526905425470463,-2,-3,0,-57,-2,-1,2,4
1526905425491407,-8,7,6,-48,-1,-3,-5,-3
1526905425491407,18,-4,-3,-43,0,-4,-1,2
1526905425493402,-6,-1,3,-95,-2,-2,-1,-2
1526905425493402,5,-4,-3,-104,0,-2,0,1
1526905425505369,-4,1,-5,-74,0,3,3,2
1526905425505369,0,0,5,-40,-3,0,-2,-5
1526905425514346,-16,4,3,-50,6,0,-1,-6
1526905425514346,-10,-15,-7,-14,6,1,0,2
1526905425529305,16,0,2,43,-1,2,1,2
1526905425529305,-3,1,-4,104,0,-3,-1,2
1526905425530303,20,2,0,118,-6,-1,6,5
1526905425530303,-27,-4,1,127,-2,-3,-8,-5
1526905425551247,-1,-4,-3,119,3,-1,-2,-2
1526905425551247,0,3,0,25,1,-18,-6,-9
1526905425553242,2,-6,-3,-5,7,24,-2,4
1526905425553242,-5,1,2,-21,2,-1,-3,-15
1526905425565209,4,3,2,-8,-1,3,-1,2
1526905425565209,-9,1,-1,1,-3,-2,-1,3
1526905425574186,2,-6,-2,14,10,-4,0,1
1526905425574186,6,-4,-1,44,0,1,3,1
1526905425589145,1,1,1,14,-10,-10,3,-2
1526905425589145,3,-1,-1,25,-5,4,-5,1
1526905425590143,-13,-2,0,41,-7,-5,4,0
1526905425590143,-1,-10,-9,39,-6,1,-1,1
1526905425611086,29,14,3,17,-2,-6,3,4
1526905425611086,-29,-22,-5,-2,-2,3,-1,-8
1526905425613082,0,-2,-4,13,-3,-3,-6,-5
1526905425613082,2,3,4,2,-3,-4,-2,3
1526905425625049,9,0,-1,-11,-3,1,2,2
1526905425625049,20,23,1,-3,1,3,-5,-7
1526905425634025,-6,-1,-4,-5,-14,-5,-2,-1
1526905425634025,13,-4,2,8,14,2,1,-2
1526905425648985,-12,3,-3,-11,-4,0,-5,1
1526905425648985,1,-7,1,-3,0,-1,-1,-2
1526905425650980,-2,7,0,-1,-5,-5,-2,-3
1526905425650980,4,2,-3,-3,-6,-1,0,2
1526905425670926,-3,-1,-2,-2,-1,-2,-3,-4
1526905425670926,-5,-3,-1,-8,5,-1,0,2
1526905425672922,1,0,0,7,-3,2,8,1
1526905425672922,20,7,2,2,-1,-4,-15,1
1526905425684889,-31,-6,-2,-10,-3,1,-5,-12
1526905425684889,10,6,-2,-4,-3,5,7,2
1526905425693866,-10,-11,-3,3,7,-1,-1,-2
1526905425693866,10,3,-5,-2,0,1,1,1
1526905425708825,-6,-7,0,-6,-2,-5,-2,2
1526905425708825,1,18,1,-6,-5,-1,2,7
1526905425710820,-1,-6,0,-6,-3,-4,-1,1
1526905425710820,-1,1,1,-4,-1,-2,2,-2
1526905425731764,-7,-7,-2,-4,5,1,0,-1
1526905425731764,4,2,1,-2,-2,-2,2,1
1526905425732761,2,-3,-4,1,1,-2,-4,-2
1526905425732761,-10,-2,-1,2,-4,-3,-2,-4
1526905425744729,6,3,-7,-8,-1,-2,-2,0
1526905425744729,8,-6,0,-2,12,4,0,-1
1526905425753705,0,2,-2,-6,-9,-6,-5,-5
1526905425753705,-10,0,2,2,4,-1,0,1
1526905425768665,6,-2,0,-4,-4,-3,2,3
1526905425768665,-15,-6,-5,1,0,12,-7,-4
1526905425774649,-2,-6,-2,3,3,0,9,1
1526905425774649,6,4,-2,-6,-5,-8,-8,5
1526905425791604,-17,0,-1,9,-5,21,0,-4
1526905425791604,6,-6,-3,4,-7,-10,5,10
1526905425792602,3,8,2,5,1,-1,-1,0
1526905425792602,-22,-16,-5,1,-5,3,1,-4
1526905425804569,-2,-7,-3,-2,3,-8,0,5
1526905425804569,-3,-9,-2,-6,-1,-1,-1,-3
1526905425813545,0,2,1,-9,0,0,-2,-2
1526905425813545,7,5,0,-3,-3,-7,2,-1
1526905425828505,2,0,2,-7,4,1,-3,3
1526905425828505,-7,-5,3,-6,-3,-5,-3,-8
1526905425835486,8,-2,-2,16,-4,-6,-1,-4
1526905425835486,7,-4,2,3,7,6,2,3
1526905425851444,1,8,6,-1,0,-1,-3,-4
1526905425851444,0,2,0,-3,-10,2,-1,3
1526905425853439,-3,-2,-2,-12,9,-2,-3,0
1526905425853439,-1,-2,-2,2,-5,0,2,-5
1526905425865406,-23,-2,0,28,-8,-2,-3,0
1526905425865406,5,-13,-4,30,5,-4,3,1
1526905425874383,-4,1,1,19,-4,2,-8,-2
1526905425874383,6,0,-3,2,1,3,3,0
1526905425888345,12,3,0,-18,4,-5,-1,-3
1526905425888345,-5,3,1,-13,-5,-2,-1,1
1526905425895326,11,3,-1,-21,-2,-8,5,2
1526905425895326,-11,-4,-2,-22,-3,6,-9,0
1526905425911284,8,-7,-1,-15,-3,0,-4,-4
1526905425911284,-13,1,-1,-14,4,1,0,0
1526905425913279,-10,-4,-7,-16,1,0,2,4
1526905425913279,28,8,5,-1,-6,-3,-3,-10
1526905425934222,-4,-9,-4,12,5,-2,2,-3
1526905425934222,7,3,2,42,1,-22,-5,-1
1526905425935220,-6,-2,2,36,1,27,-4,-2
1526905425935220,-6,-1,-5,65,-9,-7,-1,-2
1526905425948185,-3,0,-3,68,1,-4,-3,0
1526905425948185,3,12,-1,88,-1,2,8,-5
1526905425955166,10,-12,-1,74,-1,-7,-2,5
1526905425955166,-30,-5,-3,31,1,-1,0,-11
1526905425971124,6,0,-4,-12,-12,-1,0,-1
1526905425971124,-12,-4,-2,-42,11,4,-4,2
1526905425973119,1,4,0,-57,-6,-3,-2,-3
1526905425973119,7,-2,0,-49,-3,2,-7,3
1526905425994063,-6,-3,1,-47,4,-4,5,1
1526905425994063,5,4,-4,-69,-6,2,1,-5
1526905425995060,-4,-13,0,-9,11,3,2,-4
1526905425995060,-6,6,-2,-20,4,-3,-5,2
1526905426008025,1,1,-3,-22,-4,-3,2,-6
1526905426008025,0,-5,4,-16,-4,0,-1,5
1526905426015006,-6,2,-3,-16,-4,0,0,-5
1526905426015006,5,0,-1,-11,-3,-11,0,1
1526905426031961,11,11,1,-2,-1,0,0,11
1526905426031961,4,-6,-2,-10,0,4,-2,-7
1526905426032958,-1,2,0,-19,-3,-8,-3,3
1526905426032958,-11,-10,1,-7,3,3,3,-1
1526905426053902,8,-1,-2,-11,-1,1,0,-2
1526905426053902,4,7,-2,-6,3,4,-3,-9
1526905426055897,-6,-15,-2,-17,-2,-1,1,-2
1526905426055897,8,2,0,-14,0,4,5,4
1526905426067865,-3,-5,1,-18,-15,2,1,-4
1526905426067865,-11,-5,-2,-17,10,-5,-11,-3
1526905426074846,5,10,2,-15,-3,-3,-4,-2
1526905426074846,-1,0,-4,-26,0,-7,1,1
1526905426091801,3,-3,1,-2,6,4,9,2
1526905426091801,9,3,2,-10,-8,0,0,-4
1526905426092799,-27,-18,-7,-37,-3,-2,-3,-3
1526905426092799,10,2,1,-19,2,-20,-1,1
1526905426113742,-21,0,1,8,3,8,2,-7
1526905426113742,3,-5,-4,8,0,0,1,-1
1526905426115738,-13,1,1,15,-2,0,-3,-5
1526905426115738,18,9,-3,17,1,-2,2,2
1526905426127705,-11,-15,-5,8,3,-3,-7,-6
1526905426127705,-5,6,-1,9,-2,1,3,3
1526905426136681,8,2,-3,9,-4,-4,2,0
1526905426136681,-6,0,3,15,0,6,-2,-1
1526905426151641,-5,-6,-1,3,1,-1,-2,2
1526905426151641,3,1,-1,-13,-8,-1,0,2
1526905426152639,1,3,-3,3,-2,-7,-2,-1
1526905426152639,-10,-15,0,0,-1,8,0,-3
1526905426173582,3,12,3,1,3,-1,-4,-6
1526905426173582,7,-5,-3,-7,-9,-8,-1,0
1526905426175577,14,4,0,2,-11,0,-5,0
1526905426175577,-22,2,1,8,17,5,3,-9
1526905426187545,-10,-4,3,18,4,-4,-6,-3
1526905426187545,0,-11,-3,-4,-1,-2,4,0
1526905426196522,-11,3,1,2,7,4,4,1
1526905426196522,12,6,-5,-5,-11,-2,-3,0
1526905426211481,12,1,-1,-4,-2,-4,-2,2
1526905426211481,-9,1,-8,4,0,-1,-1,-2
1526905426213476,8,-4,2,9,2,0,-4,-4
1526905426213476,-4,-2,-1,1,-5,2,1,-1
1526905426233422,0,7,-3,-10,-2,-1,0,-1
1526905426233422,-4,-8,1,3,-5,-2,-8,-2
1526905426235417,-5,-12,-8,-1,0,-2,-2,-3
1526905426235417,2,-2,2,-2,-5,-1,2,4
1526905426247385,11,7,2,-6,-4,-5,-4,0
1526905426247385,12,4,1,5,-3,18,-1,2
1526905426256361,-22,0,3,-4,-2,-4,3,-7
1526905426256361,-10,3,-7,0,-3,-5,-3,8
1526905426271321,-6,-11,-7,-1,1,2,1,-2
1526905426271321,7,14,1,6,2,-4,-1,2
1526905426273316,5,1,-1,-9,1,2,-2,0
1526905426273316,8,-2,3,0,-5,2,0,-2
1526905426294260,-14,-2,-2,-6,0,-6,-10,-3
1526905426294260,-20,-4,-9,-15,-4,-3,-5,-5
1526905426295257,8,6,6,51,4,0,3,5
1526905426295257,5,7,1,43,18,4,4,-1
1526905426307225,-1,-17,-4,8,-7,2,-7,-7
1526905426307225,-2,-5,-4,6,4,0,-2,-2
1526905426316201,9,3,7,-21,-8,0,4,8
1526905426316201,-6,-20,-9,-16,-7,-3,-5,-6
1526905426331161,6,18,6,-2,3,-1,6,3
1526905426331161,-12,-7,-1,-8,-4,-1,-2,-11
1526905426333156,-10,0,-1,-11,2,-1,-1,-1
1526905426333156,-3,-1,6,-11,-1,0,-8,-11
1526905426354099,4,11,2,-15,-2,-2,1,7
1526905426354099,-4,-13,-2,-20,-2,-3,1,0
1526905426355097,7,8,-4,-14,1,-1,-1,-3
1526905426355097,-3,23,13,-9,-1,-1,7,9
1526905426367065,-13,-25,-7,-10,-5,1,3,-2
1526905426367065,1,4,2,-19,4,0,3,2
1526905426377038,1,-4,0,-34,1,-1,-2,-4
1526905426377038,-1,-10,-8,-33,-10,-4,-2,5
1526905426391001,17,11,3,-13,-1,-2,2,5
1526905426391001,10,-1,1,17,4,0,-2,-4
1526905426392996,13,-5,-6,7,-2,-1,1,-4
1526905426392996,-2,5,-10,-82,-5,-13,-1,-2
1526905426413939,3,-1,3,-107,-2,23,-3,5
1526905426413939,-15,-10,-6,-49,13,-4,4,4
1526905426415934,11,5,3,-6,0,0,-3,4
1526905426415934,-12,-2,4,54,-1,1,-3,-8
1526905426427902,15,-1,-4,64,0,-8,0,0
1526905426427902,5,4,-1,-56,-12,-4,2,7
1526905426436878,-9,0,-2,-34,5,3,-2,-4
1526905426436878,12,1,-1,-29,-2,2,2,2
1526905426450841,-8,-7,-3,14,2,-7,0,-8
1526905426450841,3,7,2,23,2,1,1,2
1526905426452836,-12,-5,3,45,5,-5,-1,0
1526905426452836,15,-2,-5,43,1,5,-2,-9
1526905426473779,-9,-2,-4,61,-4,-6,-10,-6
1526905426473779,14,-5,-2,83,-2,2,1,-1
1526905426475774,2,9,2,56,-2,2,1,0
1526905426475774,-9,-3,-3,45,-5,0,-3,7
1526905426487742,-4,-10,-2,42,4,-1,4,-1
1526905426487742,-1,10,4,38,1,-4,-2,-1
1526905426496718,2,-9,-6,3,-4,-2,-1,2
1526905426496718,-3,-2,2,15,2,3,1,1
1526905426511678,5,13,0,0,-4,-3,-5,-1
1526905426511678,-20,-24,-2,-2,-13,-4,-1,1
1526905426512676,0,4,-2,-1,2,-1,-2,0
1526905426512676,11,-2,1,1,2,3,-1,-1
1526905426533619,3,0,1,-11,-3,-3,0,-2
1526905426533619,-19,-2,-3,-5,8,-1,-1,-6
1526905426535614,-2,-8,-4,-6,-8,-5,-6,-2
1526905426535614,-10,0,-1,-5,3,0,-2,-3
1526905426547582,-5,-1,-1,-12,-4,0,8,7
1526905426547582,8,7,9,1,-2,2,-4,2
1526905426556558,14,5,-1,-1,-3,-1,2,1
1526905426556558,-11,-7,-1,-6,-5,4,-6,-4
1526905426571518,17,6,-2,-10,-1,-3,5,-2
1526905426571518,-8,7,3,6,0,-3,-1,-2
1526905426572516,5,0,0,-4,0,3,-1,4
1526905426572516,2,-10,-1,-5,0,-7,4,2
1526905426593459,-17,-7,-2,-3,0,-1,-3,-1
1526905426593459,13,-5,-1,0,1,3,-9,-14
1526905426595454,-6,-4,0,0,-1,-6,-1,4
1526905426595454,1,-1,-4,-1,-2,-3,-1,-9
1526905426607422,-7,3,2,-2,4,0,1,2
1526905426607422,5,3,2,-6,-7,-2,0,4
1526905426616398,-6,-3,-5,-5,1,0,2,3
1526905426616398,-11,-3,-2,-2,3,1,3,2
1526905426631358,16,7,-2,-3,0,4,5,8
1526905426631358,4,-6,-2,1,-2,-2,6,5
1526905426633353,-4,0,1,-1,-13,-4,-10,-4
1526905426633353,-3,6,-1,-1,13,3,0,4
1526905426654297,0,-6,-3,-14,-8,-7,-9,-14
1526905426654297,-3,-4,-2,7,4,-2,1,6
1526905426655294,-7,-5,-3,-14,-2,1,11,6
1526905426655294,4,2,2,-1,-4,-4,-2,-6
1526905426667262,-3,-4,-1,-4,-1,0,-2,3
1526905426667262,2,5,-6,-14,-2,2,2,2
1526905426676238,-8,-2,0,8,8,5,0,-8
1526905426676238,-9,-10,-3,-6,-3,-2,0,1
1526905426691198,11,6,-1,0,2,-2,-2,-3
1526905426691198,11,-7,-4,0,-6,-4,-1,0
1526905426697182,-3,5,6,4,4,0,0,-5
1526905426697182,-2,-2,-1,-2,-4,-4,-4,-1
1526905426714137,-9,-4,-2,-11,-5,-1,-2,-2
1526905426714137,8,3,1,-23,10,4,0,-2
1526905426715134,3,0,-3,-5,-3,-13,-5,-6
1526905426715134,-7,-2,3,38,-4,24,3,2
1526905426727102,8,0,1,63,0,-19,-3,3
1526905426727102,-11,-1,-4,87,-5,10,-3,-3
1526905426736078,7,2,0,98,0,-2,-9,-2
1526905426736078,-3,0,1,117,-2,-5,3,6
1526905426751038,-1,-2,-4,65,3,0,2,1
1526905426751038,-2,-9,-4,18,5,-1,-1,-3
1526905426757022,-1,7,0,-17,-4,0,6,-1
1526905426757022,2,-7,-4,-58,-1,-4,-1,0
1526905426773977,-11,-6,1,-58,-2,5,-5,-6
1526905426773977,12,1,-1,-64,-2,-8,3,7
1526905426775972,-4,-4,-4,-63,-1,1,-4,-3
1526905426775972,8,5,-2,-51,-3,-7,0,1
1526905426787939,-6,1,-1,-26,5,4,1,3
1526905426787939,-3,-2,3,-11,-6,-3,-7,-12
1526905426796916,1,-2,-2,-7,3,-3,-3,1
1526905426796916,-12,0,-1,-2,-3,-4,1,-5
1526905426810878,-2,-7,-2,-27,1,-1,2,-1
1526905426810878,-13,-1,0,0,3,3,5,4
1526905426817859,8,-3,-5,-22,-12,9,-9,-1
1526905426817859,14,17,3,-20,1,-6,-2,2
1526905426833816,-9,-18,-1,-24,1,0,-3,-5
1526905426833816,-6,6,1,-14,-6,3,3,-3
1526905426835812,-8,-4,2,-34,7,9,-2,0
1526905426835812,6,-1,-4,-57,-6,-3,-2,0
1526905426856755,-3,4,5,-20,-12,1,3,0
1526905426856755,9,10,3,-14,17,-4,-7,-4
1526905426857753,3,3,0,1,-8,-5,4,0
1526905426857753,9,-5,0,4,3,3,0,2
1526905426870718,3,2,-2,12,0,-1,-3,-3
1526905426870718,-12,2,5,11,-8,-6,-5,0
1526905426877699,2,-4,-7,10,3,-1,3,1
1526905426877699,9,-3,-6,11,-3,-2,-2,-2
1526905426893656,1,-4,-4,15,2,-1,2,5
1526905426893656,-8,5,1,-6,-9,-1,-3,-6
1526905426895651,1,2,5,5,4,-3,-5,0
1526905426895651,-9,-5,-1,22,1,1,1,1
1526905426916595,-5,8,-1,9,6,1,-3,1
1526905426916595,-1,-2,-3,-6,-8,-3,2,-3
1526905426917593,2,2,-2,4,8,0,1,5
1526905426917593,-14,-7,1,-6,0,-2,-6,-7
1526905426930558,-2,8,2,-2,-1,-13,-2,-1
1526905426930558,-5,-7,-4,-5,-9,22,-2,2
1526905426937539,-9,-3,-1,2,-3,-7,1,-5
1526905426937539,26,26,1,1,-2,-4,0,6
1526905426953496,-5,-14,-3,-6,10,0,2,-4
1526905426953496,-1,-1,3,5,6,-10,-4,0
1526905426955491,1,-6,2,0,-5,-1,1,-2
1526905426955491,-3,-1,-1,3,5,4,3,1
1526905426976435,8,8,-2,-1,-7,3,-3,-3
1526905426976435,-12,-23,-4,2,0,-7,0,-2
1526905426978430,6,9,3,1,4,3,1,-3
1526905426978430,-9,-3,1,-6,-5,-9,-4,-1
1526905426990398,3,-2,0,-4,-1,5,1,-2
1526905426990398,14,3,-6,1,1,-3,0,3
1526905426997379,12,3,-2,-9,-4,-1,2,2
1526905426997379,-6,-8,0,3,1,-3,-1,1
1526905427014334,-8,-3,-4,-15,-15,-1,6,-3
1526905427014334,-1,3,2,27,22,2,-5,1
1526905427015332,-4,-5,2,-15,-3,-12,1,-4
1526905427015332,-1,-5,-7,-11,1,10,-10,-4
1526905427036275,3,-9,3,9,6,6,2,-1
1526905427036275,-5,3,-2,1,-12,-5,3,0
1526905427038270,4,0,-3,5,-1,-13,-2,-1
1526905427038270,-11,-5,-5,0,1,-5,1,-1
1526905427050238,9,2,1,0,-11,-3,-5,-1
1526905427050238,-7,3,3,-11,7,0,-3,0
1526905427059214,13,-5,-5,7,5,-1,-4,4
1526905427059214,-32,-2,5,-1,-2,1,5,-3
1526905427074174,6,-1,-6,6,4,2,-3,3
1526905427074174,8,4,-1,-11,-8,-7,1,-2
1526905427075171,-15,-5,-4,-11,-5,4,-2,-5
1526905427075171,9,0,-2,-9,-3,-4,0,-1
1526905427096115,-6,1,9,29,11,3,1,0
1526905427096115,-2,-3,-5,4,-8,-3,1,-2
1526905427098110,-8,0,-9,-23,-5,1,-2,0
1526905427098110,2,-7,-4,1,4,3,3,-4
1526905427110078,3,7,5,-2,0,-2,2,3
1526905427110078,13,4,2,-21,-5,2,-5,5
1526905427119054,-19,-16,4,26,-3,4,0,-2
1526905427119054,4,-2,3,0,-5,-7,-2,1
1526905427134014,-4,9,-2,-7,1,1,2,0
1526905427134014,5,0,-2,13,2,4,2,0
1526905427136009,4,-1,-1,-9,-6,-7,-2,2
1526905427136009,7,9,6,17,0,4,4,0
1526905427163934,-10,-14,-16,-25,1,-2,-6,-4
1526905427163934,-4,5,10,11,6,-7,2,1
1526905427165928,11,3,-14,-1,3,15,-8,-2
1526905427165928,-1,-6,14,2,6,2,1,-1
1526905427169918,3,4,2,-12,-7,-4,0,-4
1526905427169918,-1,7,1,-1,-7,-6,-2,-2
1526905427178894,7,14,14,8,6,-2,3,0
1526905427178894,-16,-22,-8,-19,-10,-4,-3,-6
1526905427193854,11,3,-3,3,0,-11,-10,1
1526905427193854,-11,-5,-4,-5,1,3,4,-5
1526905427195849,-3,5,3,-2,-7,-2,-7,-9
1526905427195849,-5,-4,-12,-5,1,3,3,5
1526905427216792,5,-10,1,1,3,-2,4,4
1526905427216792,-5,-10,-6,1,-5,0,3,0
1526905427217790,1,-2,-1,-3,0,0,-4,-10
1526905427217790,3,15,3,2,-1,-9,-2,0
1526905427229758,-6,-19,-8,0,1,2,-1,-1
1526905427229758,9,11,0,-7,-1,0,0,3
1526905427238733,-10,-15,-2,10,-1,2,2,-2
1526905427238733,4,13,5,8,0,-1,-2,-3
1526905427253694,4,0,-1,17,-1,2,-1,-4
1526905427253694,3,-5,-4,3,-16,0,-4,-1
1526905427255689,-7,9,-7,4,14,-6,4,5
1526905427255689,-8,-8,-2,3,1,0,-2,-1
1526905427276632,5,8,1,-9,-8,1,0,1
1526905427276632,8,0,-4,-9,-1,-4,-4,1
1526905427277630,-4,-4,-2,28,-5,1,5,5
1526905427277630,8,3,-2,0,-1,-1,-2,3
1526905427289598,-16,-4,3,3,0,-1,-3,-11
1526905427289598,-7,-8,-5,-9,-2,0,-7,-2
1526905427298574,5,4,0,-7,2,4,3,-4
1526905427298574,5,-7,1,-3,5,-1,-4,5
1526905427313534,-1,-4,-7,-8,-5,-2,2,-5
1526905427313534,4,-1,4,-22,6,2,1,0
1526905427315529,-10,-1,-2,-35,-8,-5,-1,0
1526905427315529,-8,-19,-2,-13,-3,1,0,2
1526905427336473,2,4,2,-35,0,-2,-3,-1
1526905427336473,1,9,-2,-39,0,0,5,1
1526905427338467,-4,-7,-1,-30,-1,-1,0,6
1526905427338467,-5,1,-2,-37,-3,0,-1,-7
1526905427350435,4,8,0,-64,-1,0,3,6
1526905427350435,-15,-7,-2,-104,0,4,-5,-12
1526905427359411,27,10,4,-62,-17,-5,-3,-1
1526905427359411,2,5,-3,-4,15,-3,1,-1
1526905427374371,13,4,2,54,-6,6,-1,-1
1526905427374371,-14,-4,1,77,1,-6,1,2
1526905427375368,-5,-10,2,31,3,1,1,-2
1526905427375368,1,6,-6,-14,-7,3,-1,-2
1526905427396312,8,0,3,20,4,-5,1,3
1526905427396312,-10,-16,-3,35,5,-3,-1,-7
1526905427398307,-10,11,3,43,5,5,4,-7
1526905427398307,14,1,0,32,-6,-6,-6,2
1526905427410275,-10,0,-6,0,9,2,3,3
1526905427410275,8,6,1,6,-5,2,1,2
1526905427419252,-10,-7,0,21,0,0,-4,3
1526905427419252,-5,0,-2,24,-5,-3,0,-6
1526905427434211,3,1,-1,37,-4,0,-2,-3
1526905427434211,-3,-1,-6,48,-5,-3,5,6
1526905427435209,11,-2,0,22,0,-3,-3,-2
1526905427435209,-17,-6,-8,18,-7,1,2,0
1526905427456152,8,1,0,29,-1,0,-6,-6
1526905427456152,-7,-7,-1,40,3,-1,4,3
1526905427458147,-3,-3,0,7,1,0,1,9
1526905427458147,7,2,0,1,-5,-3,-5,-11
1526905427470115,3,4,4,8,-1,-1,1,5
1526905427470115,19,5,0,3,-13,-3,-4,-1
1526905427479091,-35,-19,-2,22,14,-1,-1,-7
1526905427479091,14,3,-3,8,2,2,-3,1
1526905427494051,-16,-1,-4,-22,-2,-3,5,2
1526905427494051,11,5,3,-20,0,0,-2,3
1526905427495048,15,9,-1,-22,-9,-5,-1,5
1526905427495048,-8,-11,-7,-7,1,-1,2,-1
1526905427515992,-5,2,1,-6,-4,-1,1,0
1526905427515992,0,16,2,-12,1,-20,0,-4
1526905427517987,8,-10,-3,-30,3,11,-7,-2
1526905427517987,-10,3,2,-13,2,0,0,1
1526905427529955,5,-3,-3,-3,-2,1,1,-2
1526905427529955,2,-3,2,20,1,-4,-3,-2
1526905427538931,-5,4,-2,9,-7,-6,2,2
1526905427538931,13,7,2,19,-1,-2,4,7
1526905427553891,-16,-11,0,9,-2,-3,-4,-5
1526905427553891,-20,-9,-1,9,7,7,-2,-6
1526905427555886,7,-3,-1,-1,1,1,0,1
1526905427555886,3,10,7,-25,-6,0,-2,0
1526905427576829,0,-12,-2,-32,-4,-4,-1,2
1526905427576829,6,-2,-2,-9,2,4,-1,-1
1526905427577828,-14,1,2,43,-1,1,2,-7
1526905427577828,15,5,2,112,-1,-5,-4,-4
1526905427589795,-1,-10,-3,124,-2,0,2,5
1526905427589795,2,2,-6,114,-2,-1,-1,-3
1526905427598771,-9,-2,0,119,13,5,2,7
1526905427598771,4,-7,-2,40,-9,-1,3,-4
1526905427613731,-10,7,5,19,13,2,1,4
1526905427613731,-7,-6,-1,-39,-2,12,-13,-15
1526905427619715,4,6,-3,-71,-13,-32,-2,3
1526905427619715,-3,0,-4,-83,4,20,0,-1
1526905427636670,-6,-4,-1,-57,-4,2,5,2
1526905427636670,0,-2,0,-51,2,-8,-2,-5
1526905427637667,16,2,-6,-31,-3,0,-1,2
1526905427637667,-24,-11,-2,-34,-2,-7,0,0
1526905427649635,26,16,-3,-36,-5,-1,-6,-4
1526905427649635,-3,-4,-3,-50,-1,-3,0,5
1526905427658611,0,-7,-1,-58,4,4,0,-4
1526905427658611,-7,-4,-5,-69,-2,-5,1,-6
1526905427673571,1,0,-2,-51,3,-1,-9,1
1526905427673571,-20,0,-1,-15,-4,1,14,-2
1526905427679555,3,0,1,-6,-11,-1,-4,-6
1526905427679555,-2,-1,1,1,15,-1,4,8
1526905427696510,-10,-8,-2,-2,-3,-18,-4,-13
1526905427696510,20,2,2,12,8,12,-4,10
1526905427698504,-3,2,4,-2,-8,1,0,-5
1526905427698504,0,2,2,9,4,-7,-5,-6
1526905427710472,-3,1,1,-5,2,7,9,2
1526905427710472,-4,-3,-4,1,-2,-8,-9,1
1526905427719448,-3,-2,-2,10,3,2,-1,4
1526905427719448,3,7,3,-4,-5,0,-10,-5
1526905427733411,-18,-4,-4,-3,0,-1,0,-6
1526905427733411,27,0,-1,-4,-3,1,7,7
1526905427740392,-2,-3,-1,-5,-3,2,-3,-5
1526905427740392,6,1,-4,3,-3,-4,0,-1
1526905427756349,-1,2,-2,0,-3,2,-2,4
1526905427756349,-14,-14,-2,-10,-2,-2,-3,-1
1526905427758344,-2,-2,-3,-4,-3,-3,2,3
1526905427758344,-4,-1,-1,-2,4,5,7,4
1526905427770312,9,0,-4,1,-1,3,-1,-3
1526905427770312,-6,0,1,-1,-18,-4,-7,0
1526905427779288,3,8,1,-6,14,-1,-4,-2
1526905427779288,0,-6,3,15,-6,-3,-2,1
1526905427793251,5,-2,-2,-21,-2,3,-3,-2
1526905427793251,-3,1,-1,-19,1,-9,2,-5
1526905427800232,-5,2,1,-36,-4,-3,-4,-2
1526905427800232,2,10,-2,-16,-3,1,4,1
1526905427816189,-10,-9,-1,-10,3,5,5,-3
1526905427816189,0,3,-1,-1,-2,-11,-7,-3
1526905427818184,19,-1,-7,19,-6,10,-6,4
1526905427818184,-7,1,1,21,-2,2,3,-4
1526905427839128,-7,0,-3,24,-4,-7,-5,2
1526905427839128,-4,-7,-1,22,8,8,-1,-4
1526905427840126,0,7,5,26,4,-1,2,-7
1526905427840126,-5,-4,-2,-20,-6,-3,-5,0
1526905427853091,-6,-1,1,-19,-4,1,-4,-5
1526905427853091,8,7,-5,-52,-4,3,7,9
1526905427860072,2,-5,-2,-13,0,2,2,2
1526905427860072,-5,-10,-5,-17,-4,-5,-4,-7
1526905427876029,-13,2,1,10,-1,-4,-2,-1
1526905427876029,0,-6,-3,9,-9,-3,-2,3
1526905427878024,19,2,-2,18,9,-2,5,4
1526905427878024,-12,-12,2,41,-8,2,0,1
1526905427898968,-6,-2,2,31,10,-3,-1,-2
1526905427898968,1,4,-1,27,-2,1,1,2
1526905427900963,-9,-7,-1,14,-4,-3,0,-2
1526905427900963,8,2,-3,-13,0,-22,-2,1
1526905427912931,-4,0,-6,13,-2,17,2,-4
1526905427912931,0,-3,3,14,5,-1,-4,-1
1526905427919912,-23,-6,1,-2,-2,-1,0,-8
1526905427919912,17,3,6,11,7,-3,-1,-3
1526905427935869,28,12,5,-27,-7,0,0,5
1526905427935869,-9,-11,-4,-8,3,-1,1,-5
1526905427937864,5,-1,-4,-12,-1,1,1,1
1526905427937864,-18,3,-4,-6,-5,0,-7,-9
1526905427958808,-11,-11,1,-11,1,-1,-3,0
1526905427958808,7,4,-7,-6,-1,4,5,4
1526905427960803,-2,2,3,-6,-4,-1,-2,2
1526905427960803,1,0,-4,-3,0,3,0,4
1526905427972770,-4,-8,-1,-5,-12,-7,-6,-1
1526905427972770,14,35,7,2,12,-2,0,-4
1526905427979752,-4,-16,-3,-6,-11,-3,6,5
1526905427979752,4,5,-2,-6,11,3,5,0
1526905427996707,-7,-6,-1,-4,-2,-3,0,2
1526905427996707,-18,-3,2,7,2,2,-8,-15
1526905427997704,-4,-5,-4,-4,-5,-6,-6,-9
1526905427997704,5,-13,-1,-11,-6,3,-6,3
1526905428018648,-26,-20,0,14,5,-4,0,-15
1526905428018648,19,6,-6,-18,-10,-3,3,5
1526905428020643,2,-10,-7,-2,2,0,-8,-18
1526905428020643,-21,-4,-5,-12,-5,-3,2,-1
1526905428032611,-1,-5,0,-3,1,0,-3,-3
1526905428032611,-3,-8,1,-7,-2,1,1,6
1526905428041587,4,11,8,6,-2,-1,-2,1
1526905428041587,-2,-10,-6,-1,1,5,2,0
1526905428056547,9,1,-2,-4,-2,-2,-1,3
1526905428056547,-4,-3,3,9,-1,-1,-1,-5
1526905428057544,-3,1,-1,-9,-5,-2,-3,-5
1526905428057544,6,14,0,11,-4,0,-2,-1
1526905428078488,-7,-14,1,7,2,0,1,8
1526905428078488,2,-8,-2,5,-3,-2,3,4
1526905428080483,-14,1,1,7,0,-1,-2,-2
1526905428080483,-3,-4,2,6,0,1,0,4
1526905428092451,25,20,2,2,0,0,-1,-3
1526905428092451,-7,7,-1,1,-3,-2,0,4
1526905428101427,-18,-7,-3,-8,-1,0,0,2
1526905428101427,19,3,-2,-9,-1,1,0,-2
1526905428116387,1,2,-8,-16,-8,-2,0,3
1526905428116387,-7,-12,3,-12,12,4,4,0
1526905428118381,5,18,2,-5,-5,2,1,0
1526905428118381,0,0,0,-10,-1,-3,0,-2
1526905428139325,-3,5,-2,-2,-4,-5,0,0
1526905428139325,1,-11,-8,-7,-1,1,-2,-4
1526905428140323,18,2,2,-4,-1,-4,-2,6
1526905428140323,-3,-11,-4,-48,-5,-7,-2,-1
1526905428152290,-5,1,-2,-20,2,1,-5,-5
1526905428152290,2,6,9,6,0,-1,-5,-5
1526905428161267,7,3,-5,-1,1,1,6,5
1526905428161267,-11,-7,-2,30,-3,-3,0,0
1526905428176226,13,16,3,13,-1,-3,-1,1
1526905428176226,-21,-28,-8,39,-1,-1,-4,-7
1526905428178222,9,7,-4,21,-2,-1,1,9
1526905428178222,-4,5,9,17,4,-1,-2,-6
1526905428199165,-4,-5,-6,-20,-2,-2,0,0
1526905428199165,-6,6,3,-30,-3,-2,-2,-4
1526905428200163,-4,-10,-5,-23,0,-1,1,1
1526905428200163,-1,0,-2,-1,2,2,2,1
1526905428212131,-1,0,1,1,3,0,-1,-2
1526905428212131,-2,-1,-4,4,-5,-4,-5,-10
1526905428221106,20,4,-1,-44,5,-1,-4,-6
1526905428221106,-16,-16,1,-27,5,1,-1,2
1526905428236066,8,8,3,-1,4,1,2,5
1526905428236066,15,-1,-6,5,-7,0,-2,7
1526905428238061,-9,1,4,13,-1,0,-2,-8
1526905428238061,6,0,-2,-8,-1,0,1,-1
1526905428259005,-23,-2,-2,-20,-9,-9,-6,-5
1526905428259005,15,9,-2,-72,3,2,2,7
1526905428261000,5,-1,-3,-107,-1,1,3,1
1526905428261000,7,7,-1,-57,-4,-3,-7,-8
1526905428272968,-14,-16,1,-5,-3,-2,3,3
1526905428272968,-7,-3,2,59,-2,-2,0,3
1526905428281944,2,9,-1,58,-1,-1,-3,-1
1526905428281944,3,2,-1,10,-4,-1,4,-2
1526905428295906,5,1,-4,24,0,-1,-1,-2
1526905428295906,-4,6,9,30,0,0,-1,0
1526905428297902,-6,-3,0,49,2,0,-4,0
1526905428297902,-8,-9,-1,50,0,1,-5,-8
1526905428318845,16,13,1,35,1,0,-1,-2
1526905428318845,-8,-7,-3,7,-2,-2,-2,2
1526905428320840,-13,4,1,20,-4,-1,-4,-10
1526905428320840,13,-5,-1,27,7,-3,1,9
1526905428332808,-1,0,2,11,4,0,0,12
1526905428332808,7,7,-3,-4,-1,2,-2,-9
1526905428341784,-7,-3,0,6,-6,-1,5,2
1526905428341784,-11,-3,-6,6,-5,0,2,1
1526905428356744,5,-5,-2,-5,-2,2,-2,-2
1526905428356744,8,6,0,-4,1,0,5,7
1526905428357741,-11,-10,0,-5,-4,-4,0,5
1526905428357741,6,11,1,0,0,2,-1,4
1526905428378685,11,10,-1,3,1,-3,-2,-7
1526905428378685,-3,-8,-2,2,-3,0,0,1
1526905428380680,-11,-6,3,9,3,0,-4,-8
1526905428380680,5,7,1,24,5,1,0,2
1526905428392648,-12,-15,1,-4,-7,-1,0,0
1526905428392648,1,5,-1,-16,-1,0,-2,-7
1526905428401624,13,-6,-1,22,6,-1,3,6
1526905428401624,-6,4,0,-17,-9,-2,-2,-6
1526905428416584,13,5,2,2,6,2,-1,6
1526905428416584,-12,-2,-3,-23,3,1,-3,-7
1526905428417581,-1,-6,-4,-6,-7,-4,-5,-4
1526905428417581,-1,-2,2,32,0,2,-3,-3
1526905428438525,16,9,2,33,-3,-1,2,5
1526905428438525,-3,-2,1,27,-1,-4,-4,-1
1526905428440520,-3,-4,-1,8,-5,-3,-2,3
1526905428440520,-2,-4,-5,4,7,-1,-1,-1
1526905428452488,-10,-4,-7,-6,7,5,3,-6
1526905428452488,2,0,6,30,3,2,-4,-3
1526905428461464,-3,-1,-3,11,-1,1,3,-1
1526905428461464,0,6,0,-1,-14,-6,-1,4
1526905428476423,-5,-9,5,33,5,0,-1,0
1526905428476423,6,3,-1,35,2,-3,1,2
1526905428478419,9,7,0,23,-6,-1,-4,-6
1526905428478419,-22,-13,-2,28,2,1,-1,0
1526905428498365,0,16,-1,-16,-4,-3,1,-5
1526905428498365,-10,-21,-6,-23,-6,-2,-2,1
1526905428506344,6,10,4,-20,3,-1,0,3
1526905428506344,-7,7,1,-35,1,0,-2,-4
1526905428512328,11,-3,-4,-32,-2,-2,0,-1
1526905428512328,-5,-5,-3,-31,-1,-1,1,-1
1526905428521304,-1,-4,-4,-38,0,-1,-1,0
1526905428521304,4,-4,-3,-21,-1,0,0,1
1526905428536264,-26,-6,-2,-4,-3,2,0,-5
1526905428536264,10,7,2,-7,-6,-6,-2,5
1526905428538259,-2,-9,-3,9,5,-15,-4,-7
1526905428538259,12,6,4,22,4,12,4,1
1526905428559202,5,-1,-2,-4,3,3,-3,-2
1526905428559202,-24,-4,-6,-16,-1,-2,-2,0
1526905428560200,-15,-6,-1,0,-3,-3,9,-4
1526905428560200,11,2,0,-21,-5,-8,-2,-2
1526905428572167,8,2,-2,-46,-2,-1,-2,2
1526905428572167,0,-8,-2,-34,1,-2,1,-1
1526905428581143,-6,5,-1,-25,4,5,-2,2
1526905428581143,-4,-8,-3,-10,11,3,4,-2
1526905428596104,-3,-1,-1,18,-4,1,-6,-4
1526905428596104,7,5,-1,9,1,-3,-6,-2
1526905428602088,-4,-2,-2,4,-10,2,-1,2
1526905428602088,10,3,4,35,4,2,5,2
1526905428619042,-12,-5,-1,-6,-1,-6,0,-2
1526905428619042,5,-1,2,2,-3,4,2,2
1526905428621037,-5,2,-2,-3,-1,0,-6,-11
1526905428621037,9,1,-2,-11,-6,-6,-2,8
1526905428633005,-29,-10,-6,-5,1,-1,-1,-9
1526905428633005,-1,1,2,19,1,1,7,2
1526905428641981,6,-3,0,-29,-7,2,-2,4
1526905428641981,5,-3,-1,3,2,1,-7,-8
1526905428655944,-6,2,-3,-2,-6,0,-2,0
1526905428655944,5,-5,0,-2,3,0,0,-2
1526905428662925,1,0,1,0,4,0,0,7
1526905428662925,-5,-12,0,-20,-10,-3,1,1
1526905428678882,10,1,1,5,0,-1,-1,-1
1526905428678882,1,5,-1,2,-3,-3,9,1
1526905428680877,-1,-4,-1,5,-19,-21,-16,-3
1526905428680877,4,5,-3,-8,15,20,1,1
1526905428692845,-3,-2,3,2,6,3,4,5
1526905428692845,-1,3,-2,-15,-5,6,1,2
1526905428701821,-2,0,1,4,0,-5,0,1
1526905428701821,-3,4,2,8,-10,-3,0,-6
1526905428715783,0,2,-2,-7,-4,-3,-2,1
1526905428715783,0,-12,0,3,4,1,-6,-4
1526905428722765,11,9,-1,-4,1,4,1,1
1526905428722765,-20,-5,-9,-10,-4,-9,-4,-3
1526905428738722,12,7,-2,3,1,1,-2,0
1526905428738722,0,2,3,-3,-7,-8,-2,-3
1526905428740717,-4,-3,1,6,5,6,3,-3
1526905428740717,21,11,2,-9,-7,-5,-1,-2
1526905428752686,-11,-4,1,7,-2,-2,0,-4
1526905428752686,-5,-4,-11,-18,-3,2,-1,-1
1526905428761661,8,0,-4,2,4,2,0,5
1526905428761661,-7,-7,1,18,4,1,-2,-5
1526905428775624,5,-3,-3,-11,-7,-3,4,-1
1526905428775624,7,6,4,-1,-15,-3,-18,-1
1526905428782605,-5,-4,-3,8,23,6,2,-2
1526905428782605,-1,-3,1,-7,-6,0,1,7
1526905428798562,-6,-6,2,-1,-2,-3,-5,-4
1526905428798562,-4,-1,-1,1,2,2,7,4
1526905428800557,-4,4,2,5,-5,2,5,1
1526905428800557,1,0,-8,-9,-4,-6,-7,-7
1526905428821501,-12,-20,0,7,1,-3,-1,3
1526905428821501,14,3,-4,5,3,-1,-3,-2
1526905428823495,-9,1,2,-4,0,3,-3,-5
1526905428823495,-2,1,0,2,4,0,5,2
1526905428835463,4,-2,-6,-18,-6,-2,0,-1
1526905428835463,-7,11,5,11,6,-2,0,-4
1526905428842445,-5,-22,-4,-5,-6,0,1,0
1526905428842445,6,6,6,22,0,0,5,-2
1526905428859400,15,-7,1,-8,4,2,-7,-4
1526905428859400,4,8,-5,7,-1,-3,5,1
1526905428860397,-1,-3,0,2,-2,2,1,-3
1526905428860397,-6,-1,-2,-10,-1,-2,-1,-1
1526905428881341,-1,-1,-2,3,-1,-1,2,-3
1526905428881341,3,7,2,-9,-7,-2,0,1
1526905428883336,3,6,-2,3,7,3,6,9
1526905428883336,10,-4,-3,-2,6,-4,-5,2
1526905428895303,-7,0,-2,5,-2,-3,0,0
1526905428895303,-2,-4,2,0,1,-1,-3,1
1526905428902285,-5,1,-1,0,-10,-4,-5,-6
1526905428902285,-3,9,2,-5,-1,-1,1,0
1526905428919239,-2,1,-2,-4,0,-1,-1,0
1526905428919239,-14,-12,-7,-4,-4,0,0,4
1526905428920238,-4,-6,2,3,2,1,-6,-11
1526905428920238,16,2,0,-5,-2,0,-1,-1
1526905428941181,8,4,0,2,-3,0,0,3
1526905428941181,-14,-13,-4,-2,2,2,0,-6
1526905428943176,5,7,2,-1,1,-2,-2,1
1526905428943176,-10,4,1,-8,-2,0,-6,-9
1526905428955143,2,-2,-1,-3,-3,-1,3,0
1526905428955143,-2,10,1,-6,1,-2,-2,-5
1526905428964120,7,-2,-7,0,0,1,2,6
1526905428964120,-6,-2,-3,-11,-8,-7,-3,-4
1526905428979080,7,3,1,-27,4,3,1,3
1526905428979080,15,4,2,-36,1,0,4,-2
1526905428980077,-23,1,-2,-19,-1,1,-1,1
1526905428980077,-17,3,0,-13,0,0,-3,-4
1526905429001020,17,-11,1,21,-2,0,0,4
1526905429001020,3,11,2,45,3,-2,-1,1
1526905429003016,14,5,2,27,-20,-5,1,1
1526905429003016,-3,-6,-6,8,7,-1,-2,1
1526905429014983,-19,4,3,18,-4,0,-3,-5
1526905429014983,0,2,0,-5,1,1,1,-3
1526905429023960,4,3,1,11,7,1,-2,-2
1526905429023960,-8,-7,-5,-17,-4,0,2,2
1526905429038919,1,4,-2,-17,-4,-5,-3,-2
1526905429038919,0,-11,-7,-6,-2,-2,-6,-3
1526905429040914,-1,-2,1,-6,0,1,2,1
1526905429040914,11,0,4,6,-1,-1,-12,-16
1526905429061858,-24,-2,-3,-1,1,-1,-1,-6
1526905429061858,2,17,5,-2,0,0,5,5
1526905429062856,-13,-31,-8,-10,3,0,-1,-1
1526905429062856,-5,-3,0,0,-1,-1,3,10
1526905429074824,1,2,-1,-5,-3,-2,-1,-6
1526905429074824,7,6,1,-37,0,-4,-3,-1
1526905429083799,-5,1,1,-39,-6,-2,-1,-1
1526905429083799,-1,2,4,-14,4,-3,0,4
1526905429098759,-3,-5,0,4,-7,-2,-1,-3
1526905429098759,3,-7,-5,9,15,2,0,5
1526905429100754,-2,8,1,7,-5,-1,-3,-4
1526905429100754,-4,-10,-4,9,-4,-1,1,1
1526905429121698,5,6,3,-108,2,2,1,2
1526905429121698,-5,-8,-1,-77,-5,-2,0,-2
1526905429122696,11,7,1,-43,-1,-1,-4,-10
1526905429122696,-2,-1,3,6,-3,-2,0,-3
1526905429134663,-5,-4,-6,36,0,0,-5,3
1526905429134663,7,-13,-1,45,-4,-4,-1,-4
1526905429143639,5,8,2,5,6,1,1,-1
1526905429143639,7,-6,-6,17,-5,-2,-1,0
1526905429158599,-2,0,0,-3,2,-1,-2,-5
1526905429158599,-7,-7,0,-37,1,-2,-4,-7
1526905429160594,-7,-1,-3,11,-2,0,0,5
1526905429160594,4,10,2,-18,5,-1,-2,-1
1526905429181538,10,-5,-9,1,4,-5,-2,6
1526905429181538,-8,-7,-1,27,-1,1,-2,2
1526905429182536,-8,-6,2,19,0,-4,-3,-7
1526905429182536,2,-1,0,35,3,6,3,6
1526905429195500,0,-9,3,66,-17,-1,1,-3
1526905429195500,-7,-4,-2,54,9,-2,-1,3
1526905429204477,-4,1,-1,49,-4,1,0,-6
1526905429204477,-3,-9,2,22,-8,-1,5,5
1526905429218439,4,14,1,26,3,2,1,3
1526905429218439,3,8,1,22,-2,3,-5,-6
1526905429220434,19,-4,-6,-2,-4,-4,5,4
1526905429220434,2,6,0,11,6,1,-7,-5
1526905429241378,-7,-6,-2,5,-1,-4,-1,2
1526905429241378,-8,-2,1,-20,-11,-4,-3,-2
1526905429243373,0,-6,-3,-23,7,2,0,4
1526905429243373,-6,1,1,-24,-6,-1,2,-1
1526905429255341,0,0,0,0,1,-3,2,0
1526905429255341,-3,-11,-7,3,-3,1,0,-4
1526905429264317,21,14,7,16,3,1,-3,-3
1526905429264317,-6,-9,-7,-10,-3,0,-2,-1
1526905429279277,-12,-5,4,13,3,-2,-5,-4
1526905429279277,4,0,-6,16,-3,-3,2,1
1526905429280274,-15,-1,-2,21,-5,-4,0,4
1526905429280274,-3,0,-2,17,2,-1,0,4
1526905429301218,2,4,-3,9,4,-1,2,1
1526905429301218,3,4,1,1,-2,-1,0,0
1526905429303213,11,0,-3,-1,2,0,-4,0
1526905429303213,7,0,2,-12,-6,-1,1,-1
1526905429315180,-10,5,1,-5,-1,-1,1,-1
1526905429315180,-15,2,-2,-5,-12,-1,-3,-9
1526905429324157,-13,-8,-6,-13,10,-2,2,3
1526905429324157,-4,-3,-1,-4,-5,0,1,0
1526905429339116,16,4,2,-11,2,1,3,-2
1526905429339116,8,12,2,-8,-3,-3,-8,-5
1526905429340114,-4,1,0,-9,-5,-3,-3,0
1526905429340114,-2,-4,-5,-13,1,-1,-2,-4
1526905429361058,3,1,0,-7,0,3,4,4
1526905429361058,-14,-8,-5,3,-3,-3,2,6
1526905429363053,1,0,2,-14,-3,-1,-2,-4
1526905429363053,5,-5,-2,5,4,2,1,-1
1526905429375021,-12,-2,-2,-10,0,1,-3,1
1526905429375021,5,1,3,5,1,0,2,4
1526905429383997,-2,-4,-1,1,-1,1,-2,0
1526905429383997,0,1,0,-21,-13,-6,-2,0
1526905429398957,7,3,-2,-4,6,-2,0,-5
1526905429398957,-6,-13,-4,-25,-1,-1,-2,2
1526905429400952,-3,4,3,3,-9,0,0,-7
1526905429400952,0,3,0,85,15,2,0,2
1526905429420898,2,-2,-5,86,-12,-3,-3,-3
1526905429420898,11,4,1,113,2,-3,6,8
1526905429422893,3,2,0,115,-7,-1,-4,0
1526905429422893,-8,2,0,55,-5,-2,-3,1
1526905429434860,1,-6,-1,37,0,0,-1,3
1526905429434860,3,-1,-3,-24,1,2,-3,-4
1526905429443836,-3,0,5,-9,11,2,5,5
1526905429443836,10,-4,-3,-71,1,-2,-2,-3
1526905429458797,4,1,-1,-62,-3,-4,-4,-2
1526905429458797,4,1,-1,-67,4,-18,5,3
1526905429460791,-7,-5,-5,-61,-4,22,3,-1
1526905429460791,2,-1,2,-18,-2,-7,-6,2
1526905429481735,-4,-1,0,-15,0,2,3,-4
1526905429481735,1,-1,7,-7,7,1,-4,3
1526905429482733,-8,-8,-1,-21,-1,-8,-2,-3
1526905429482733,-3,7,-2,-23,-10,-6,-5,-3
1526905429494700,3,-22,-6,-31,6,2,-6,1
1526905429494700,-20,-7,-3,-34,-1,5,-1,-8
1526905429503676,0,2,1,-50,3,-5,1,2
1526905429503676,4,3,-1,-42,0,4,1,0
1526905429517639,-2,6,7,-42,-9,-6,-4,-2
1526905429517639,-4,1,-1,-4,0,4,-2,-4
1526905429526616,4,-3,0,12,2,0,1,-2
1526905429526616,-16,-4,-3,-1,-15,-5,0,0
1526905429541575,1,2,-1,18,19,1,-3,3
1526905429541575,6,-3,-5,14,-5,3,5,6
1526905429542573,5,9,-1,1,-3,-5,-7,3
1526905429542573,-6,1,3,8,2,4,4,1
1526905429554540,-4,4,-2,-8,-11,-2,-1,3
1526905429554540,-3,-7,-1,2,0,0,-1,-11
1526905429564514,-1,-4,-6,1,5,0,3,4
1526905429564514,-6,0,-1,-5,3,1,-2,4
1526905429578476,4,1,0,-11,-5,-3,-1,1
1526905429578476,0,-1,1,17,4,1,-5,-4
1526905429585458,0,4,-1,-1,-3,-3,1,0
1526905429585458,-5,-5,0,1,6,0,0,-1
1526905429601415,0,1,1,0,-3,2,0,-6
1526905429601415,1,-6,-3,1,-4,-2,-2,0
1526905429603410,-2,-9,-6,-3,-3,-3,-2,-5
1526905429603410,14,2,-3,0,0,0,3,-1
1526905429615377,-6,-5,-1,6,5,-1,-2,-4
1526905429615377,9,4,-2,-9,-3,-1,-1,1
1526905429624354,-16,-3,3,4,0,-1,-2,-4
1526905429624354,21,3,0,-8,-4,-1,-4,-2
1526905429638316,1,8,-5,-5,1,-1,0,-3
1526905429638316,2,-8,-6,-10,2,0,1,0
1526905429645298,-2,-3,-1,-6,-1,0,1,1
1526905429645298,-11,-6,-3,13,1,2,-7,-14
1526905429661255,-3,-11,1,-1,-2,1,-1,5
1526905429661255,-5,5,4,6,0,-1,-3,-3
1526905429663250,0,1,-4,-9,-16,-5,-5,-6
1526905429663250,-2,0,-1,2,13,3,5,4
1526905429675218,-6,6,-3,-10,-10,-4,-6,-5
1526905429675218,-4,-4,-3,7,5,-1,0,-1
1526905429684194,4,2,0,1,-1,-2,3,2
1526905429684194,0,-5,0,-3,-4,-4,-1,-3
1526905429698156,-1,-7,-5,-1,2,-2,-1,-1
1526905429698156,-2,-1,0,-10,-8,-3,-3,-1
1526905429705138,-6,8,-1,4,2,-1,0,1
1526905429705138,-3,-5,0,2,1,-1,0,-3
1526905429721095,13,-2,-6,2,1,-1,3,4
1526905429721095,9,11,6,1,-5,-1,1,3
1526905429723090,2,-9,-5,-8,0,-1,-2,-3
1526905429723090,-1,1,-1,6,2,0,0,1
1526905429744034,-15,-2,3,-6,-4,0,-3,-5
1526905429744034,13,10,1,14,2,2,2,3
1526905429745031,15,4,2,-9,8,4,3,9
1526905429745031,-18,-7,-2,9,-5,-2,-6,-15
1526905429757996,-1,3,0,-1,-2,3,4,1
1526905429757996,-1,2,-1,3,-6,-3,-3,-2
1526905429764978,15,-2,-6,-2,-3,-2,-1,-2
1526905429764978,5,-5,-2,-5,0,2,8,10
1526905429780935,-10,1,-4,1,-2,-3,-18,-15
1526905429780935,-9,-22,-2,-4,1,1,-1,-2
1526905429782930,-11,-1,-3,2,-14,-5,-1,0
1526905429782930,2,14,2,-6,14,0,-3,-2
1526905429803874,2,-9,-1,3,-1,-1,3,2
1526905429803874,-3,2,-4,-8,-6,-2,-1,1
1526905429805869,-11,-8,1,4,2,-1,-3,-5
1526905429805869,1,1,0,-8,-10,-3,0,2
1526905429817836,7,8,4,3,3,-1,4,5
1526905429817836,-2,-2,-1,-4,2,1,-2,-3
1526905429826813,1,2,0,2,0,0,4,1
1526905429826813,-7,2,0,-5,-2,-1,-5,-7
1526905429841772,4,2,-1,2,0,1,4,4
1526905429841772,9,1,3,5,-6,0,0,1
1526905429842770,3,15,2,2,7,0,-3,-2
1526905429842770,-18,-30,-4,-6,-5,-1,3,-1
1526905429863714,21,6,4,3,-6,-3,-2,1
1526905429863714,-4,1,-4,-3,1,-1,3,2
1526905429865708,-5,2,2,0,1,-2,-2,-1
1526905429865708,0,3,-3,2,2,-1,-4,-5
1526905429877676,-1,-9,-3,4,0,0,3,1
1526905429877676,-7,-9,0,-2,-3,-2,-1,-2
1526905429886653,12,5,0,-46,0,-2,1,4
1526905429886653,8,-4,-3,-42,0,2,0,0
1526905429901612,-1,5,1,-33,-9,-2,2,4
1526905429901612,-7,-9,-6,-1,11,-1,-3,2
1526905429902610,-14,-11,0,57,3,0,-2,-5
1526905429902610,-4,2,-3,31,-10,-6,3,5
1526905429923554,-2,5,-2,-8,1,-1,-6,-7
1526905429923554,-3,-2,0,-16,-4,-1,3,0
1526905429925549,11,-6,-1,-22,0,-3,-2,-3
1526905429925549,-28,12,4,-51,3,1,0,3
1526905429937516,1,-3,3,-42,-2,-2,0,-2
1526905429937516,-3,21,0,-18,0,2,-1,4
1526905429946492,-6,-27,-3,-22,1,-1,-1,-2
1526905429946492,7,3,-1,3,-6,-2,-8,-2
1526905429961452,-9,-7,-4,0,0,-4,-9,-9
1526905429961452,2,13,2,-39,0,1,1,-1
1526905429963447,-3,15,2,-110,-8,-1,-4,-5
1526905429963447,-7,-8,2,-81,6,1,1,2
1526905429984391,10,6,0,-51,4,-1,-1,5
1526905429984391,-2,-11,-2,-36,-3,-5,-4,-5
1526905429985389,-6,-3,-9,-38,-4,-2,1,1
1526905429985389,4,0,0,-22,-3,0,2,4
1526905429997356,-11,-1,-2,54,1,2,0,-4
1526905429997356,19,6,2,111,0,0,-5,-9
1526905430006332,-3,-6,2,127,-9,-4,7,3
1526905430006332,3,-3,3,127,15,2,-3,-5
1526905430021292,8,7,2,94,7,3,3,7
1526905430021292,-5,-14,-4,9,0,0,1,1
1526905430023287,-19,-10,-3,-24,2,-2,-3,-5
1526905430023287,15,7,-3,-21,-8,-4,2,2
1526905430044231,-2,-2,1,-2,0,1,1,2
1526905430044231,-4,-2,-2,3,1,0,-5,-7
1526905430045229,17,10,1,40,1,2,-2,3
1526905430045229,-7,2,0,35,-4,-4,-9,-8
1526905430057196,-5,-8,-4,14,-1,-2,0,-4
1526905430057196,6,7,2,26,1,1,2,-1
1526905430066172,-19,4,-6,27,0,0,-1,-1
1526905430066172,-1,-5,2,19,-7,-1,1,-2
1526905430081132,6,6,0,4,5,-1,1,1
1526905430081132,-2,4,5,-3,-3,2,-4,7
1526905430083127,-3,1,0,8,0,0,1,-4
1526905430083127,-1,-7,-5,-23,-3,-3,-2,3
1526905430104071,4,0,-2,-36,-6,-1,-1,5
1526905430104071,6,1,0,-25,-3,-4,2,3
1526905430106066,2,-4,1,-11,0,0,-2,0
1526905430106066,-5,4,-2,3,5,1,4,-4
1526905430118033,-3,-11,0,10,9,1,-4,-3
1526905430118033,-13,2,-2,-4,-4,-2,0,-3
1526905430127010,-1,-4,-1,3,0,1,0,-3
1526905430127010,-5,-17,-3,5,-7,-2,-1,-2
1526905430140972,-2,-3,-5,1,-2,-3,3,-1
1526905430140972,-6,8,1,-5,2,-2,-3,-7
1526905430142967,-11,-17,-2,3,-4,-2,-2,3
1526905430142967,20,5,0,4,-2,0,2,3
1526905430163911,10,9,1,1,-5,-3,-4,5
1526905430163911,-5,-8,-1,2,4,0,-2,-5
1526905430165906,7,13,-1,-1,-1,-2,2,3
1526905430165906,0,-1,-1,-1,0,0,-3,-2
1526905430177873,-44,-9,3,2,-5,-1,-2,-12
1526905430177873,11,-1,-4,-4,-4,-3,2,8
1526905430186850,-1,5,7,6,3,-3,-8,-17
1526905430186850,5,0,-3,-3,-1,1,-4,1
1526905430201809,1,1,1,2,-4,-2,2,1
1526905430201809,-4,-11,-2,-3,0,0,-1,-3
1526905430202807,0,3,0,-1,0,0,-4,-4
1526905430202807,0,1,-2,1,-4,-3,-1,-2
1526905430223751,1,-3,1,0,1,0,0,2
1526905430223751,4,-4,-6,-2,-1,-3,-1,0
1526905430225746,9,1,-1,-5,-9,-2,1,3
1526905430225746,-3,2,-2,7,10,-2,1,-2
1526905430237713,4,-1,1,-7,6,3,-2,-1
1526905430237713,-1,-4,1,5,-2,-2,-1,-5
1526905430246690,-7,7,-1,-5,-1,1,-2,-3
1526905430246690,1,-9,0,-2,-2,-1,-4,2
1526905430261649,5,6,-4,-3,-5,-6,4,2
1526905430261649,-3,-9,-4,0,2,0,-2,4
1526905430262647,2,-1,-4,-2,2,-1,-7,-9
1526905430262647,2,10,5,0,-3,1,2,5
1526905430283591,-20,-3,-3,7,-1,-1,-6,-5
1526905430283591,-8,1,-1,-2,-4,-2,1,-1
1526905430285586,2,-2,0,-6,-2,0,5,7
1526905430285586,-4,0,1,13,-4,-5,-1,-3
1526905430297553,5,-4,-2,4,8,3,-3,1
1526905430297553,-7,-2,-6,-21,-5,0,3,-3
1526905430306530,-4,1,2,3,3,1,-3,6
1526905430306530,-2,1,6,-4,2,2,5,4
1526905430321489,4,-1,3,-15,-7,0,1,-1
1526905430321489,-8,-2,-3,-2,11,1,1,-4
1526905430323484,7,-2,-6,-11,2,0,0,5
1526905430323484,0,2,-2,22,-10,-6,-3,-4
1526905430343431,-4,-7,-1,44,4,2,3,-2
1526905430343431,3,4,0,20,-8,-2,1,7
1526905430345426,10,1,0,15,-1,1,5,3
1526905430345426,-16,-2,-4,9,9,1,-11,-4
1526905430357393,12,2,0,9,-8,-1,3,1
1526905430357393,13,-1,-1,62,-7,-4,-3,-8
1526905430366370,-11,1,-3,109,-1,-4,1,-2
1526905430366370,5,1,3,115,-8,-1,1,6
1526905430381329,3,2,-1,83,12,4,2,0
1526905430381329,9,4,-3,29,-2,1,0,-3
1526905430383324,3,-4,7,-15,0,0,2,3
1526905430383324,-4,3,-5,-60,-1,-3,-4,-8
1526905430404268,-8,-9,-9,-76,-7,-7,-7,-6
1526905430404268,6,0,3,-64,-5,-4,-2,1
1526905430405265,-3,-1,-3,-57,-2,-1,-4,-4
1526905430405265,-8,-5,-2,-60,15,6,4,-1
1526905430417233,-4,0,1,-13,-4,-5,4,3
1526905430417233,-10,0,-5,-35,1,2,-1,-2
1526905430426209,-1,-4,-1,-34,-12,-8,-4,-3
1526905430426209,2,-4,-1,-43,-13,-15,-1,0
1526905430440172,3,4,-1,-32,19,1,2,0
1526905430440172,-9,-2,-5,-27,12,26,-3,1
1526905430449148,5,2,-1,-13,-7,-4,6,9
1526905430449148,-2,-3,-3,-42,-7,3,-8,-4
1526905430464108,-1,-1,2,-42,-9,-9,-8,-9
1526905430464108,-18,2,1,-43,-8,-9,-3,4
1526905430465106,0,-1,-2,-35,6,8,4,-1
1526905430465106,12,-1,-8,-23,-5,-7,2,11
1526905430477073,-11,-11,-2,6,-10,1,-1,-5
1526905430477073,8,3,-1,24,6,-1,-4,-1
1526905430487047,-4,7,2,26,3,2,-1,-4
1526905430487047,-4,-1,5,37,5,1,2,1
1526905430501009,-6,-2,-3,9,-2,-1,-3,-1
1526905430501009,8,-3,2,5,2,-1,4,1
1526905430507991,-3,-5,-4,-12,-2,-4,-5,-3
1526905430507991,7,4,0,1,-5,2,5,0
1526905430523948,18,5,1,-16,-5,0,0,6
1526905430523948,-7,-3,4,5,-1,-6,-1,-4
1526905430525943,0,-1,-4,0,-3,-3,-4,-6
1526905430525943,2,-8,-5,14,-13,1,-3,-1
1526905430537911,0,4,2,4,21,3,-5,-8
1526905430537911,-1,-3,0,9,-2,-4,-3,3
1526905430546887,-5,-2,0,-6,-7,-1,-2,-2
1526905430546887,2,-1,1,-4,5,3,6,-1
1526905430560849,-2,0,-4,-12,-14,-3,-5,2
1526905430560849,3,2,7,10,1,-2,-1,0
1526905430567830,-3,-5,-2,2,5,0,2,0
1526905430567830,-6,5,-2,0,1,-1,-4,-10
1526905430583788,-3,-2,-2,0,-8,-3,-2,1
1526905430583788,-1,-2,-5,-1,2,-2,-3,-1
1526905430585783,3,3,-2,-6,-2,-3,-1,2
1526905430585783,-17,-8,-3,-3,1,-2,1,-4
1526905430597750,15,11,5,-7,5,1,0,0
1526905430597750,-2,-4,-1,2,1,0,2,1
1526905430606727,13,-5,-5,2,7,3,2,-3
1526905430606727,-3,15,1,-4,0,1,-4,-5
1526905430620689,-16,-27,-1,6,-6,1,3,4
1526905430620689,-3,2,4,8,-1,-2,-1,-2
1526905430627671,15,8,-3,1,-5,-2,-3,1
1526905430627671,11,8,-2,-9,-1,-2,-2,-2
1526905430643628,-10,-1,-5,-3,4,-2,0,-6
1526905430643628,-3,-1,-2,-12,3,1,-1,2
1526905430645623,-1,-6,-7,-1,1,3,-1,0
1526905430645623,-3,-5,3,-26,-1,0,-1,-3
1526905430657591,-3,0,-2,-7,-10,-3,-2,3
1526905430657591,-8,1,-7,-15,-7,-6,-4,-3
1526905430666567,-4,-1,0,14,9,2,-3,1
1526905430666567,3,-1,-3,5,-7,0,4,0
