timestamp,emg1,emg2,emg3,emg4,emg5,emg6,emg7,emg8
1526905436586734,15,-7,-2,-9,-1,0,-1,1
1526905436586734,-54,-30,-8,9,2,1,1,4
1526905436586734,10,12,-3,-5,-1,2,5,-3
1526905436586734,-36,-34,-5,-5,-4,-14,-7,1
1526905436587733,92,-87,-8,-4,3,17,10,15
1526905436587733,-59,53,7,3,3,-1,2,3
1526905436592718,-54,41,-7,-9,-3,2,-4,-15
1526905436592718,26,-35,0,7,4,0,1,1
1526905436597704,-20,9,0,-7,-7,-9,5,-2
1526905436597704,-1,-32,-2,8,1,4,-4,-4
1526905436609673,51,6,4,2,-3,-4,1,7
1526905436609673,-17,69,-2,-8,-3,-2,-8,-22
1526905436612665,-12,11,4,8,2,0,-4,6
1526905436612665,25,-5,-4,-6,1,-1,-1,-8
1526905436629619,47,-10,-1,2,-1,-6,-2,4
1526905436629619,-10,32,-1,0,0,9,0,7
1526905436637598,-64,48,7,0,-2,0,14,5
1526905436637598,24,53,-5,-5,-1,0,1,18
1526905436658542,10,25,6,-1,-3,-3,-6,-9
1526905436658542,-12,-6,5,0,0,5,4,8
1526905436659539,46,-10,-1,-2,0,-1,-10,-5
1526905436659539,4,11,0,-3,-4,1,19,0
1526905436706414,-12,16,-3,-7,-2,0,3,-1
1526905436706414,-12,6,4,1,3,1,0,-3
1526905436707411,16,-9,2,1,0,2,2,3
1526905436707411,-45,4,-3,-2,-5,-3,-12,-19
1526905436707411,4,5,2,1,-1,-11,3,-4
1526905436707411,-33,48,-5,-3,-1,11,1,1
1526905436711401,27,-14,-5,-2,0,1,2,5
1526905436711401,27,-9,2,-2,-2,-4,-3,-8
1526905436717384,-17,23,-1,-4,-2,0,-7,0
1526905436717384,12,1,5,0,0,-4,-2,2
1526905436726361,1,-4,0,8,3,1,0,-4
1526905436726361,-74,-10,1,-3,-2,1,2,3
1526905436732345,-37,-14,0,-1,-2,-2,-8,-22
1526905436732345,37,-22,-1,-2,-3,-3,3,16
1526905436749299,68,-6,-8,-4,-4,0,-4,-9
1526905436749299,-26,29,0,1,0,-6,10,11
1526905436755283,-16,31,1,0,3,4,-2,5
1526905436755283,-12,-107,-4,-3,2,9,7,-13
1526905436778222,6,9,2,-2,-5,-11,-7,3
1526905436778222,36,63,2,5,3,5,-1,-7
1526905436779219,69,-27,2,4,1,3,10,28
1526905436779219,67,94,5,-1,-2,-3,-3,3
1526905436793182,52,-18,-6,2,2,4,3,9
1526905436793182,0,-2,-8,-4,-3,-3,-6,-13
1526905436794179,-38,-50,0,-1,2,3,-1,-2
1526905436794179,-8,26,-1,-5,-4,-11,-6,-2
1526905436816120,-12,-28,1,-3,0,-6,1,-3
1526905436816120,21,35,-7,1,-1,7,-6,4
1526905436816120,53,-74,-10,-1,-2,-4,2,8
1526905436816120,-86,-6,-3,-1,-3,-5,-3,-8
1526905436838062,-34,14,4,-1,-3,-4,-1,3
1526905436838062,26,-66,-5,-2,2,5,5,-5
1526905436839059,-8,22,-1,1,-3,-7,-5,1
1526905436839059,18,-11,-3,0,0,-1,-3,-19
1526905436853022,-43,35,3,0,0,2,-1,2
1526905436853022,-40,-50,-1,-3,-1,-2,0,1
1526905436854019,55,30,2,-2,-2,2,3,3
1526905436854019,-6,19,1,-1,-1,-4,-1,4
1526905436875961,-23,-58,-6,-5,1,6,0,-10
1526905436875961,27,-14,-1,6,1,-4,-2,14
1526905436876958,-20,1,-1,-4,-2,4,2,2
1526905436876958,-4,8,-1,-1,-2,-7,-13,-9
1526905436897902,-22,-35,-1,-1,-3,4,-5,-5
1526905436897902,74,-43,-3,-1,2,-2,6,14
1526905436898899,5,9,-6,0,-1,-2,-6,-13
1526905436898899,0,-51,-5,-6,-5,-5,-4,-3
1526905436912862,-5,40,4,-3,-2,-8,-1,2
1526905436912862,-13,-17,6,-2,1,-2,-4,-17
1526905436913860,64,3,-4,-3,-4,-8,-10,1
1526905436913860,22,-67,-12,-4,-2,0,4,-6
1526905436935800,-35,-60,-2,5,0,1,5,-2
1526905436935800,9,-34,-3,6,-3,-1,-1,7
1526905436936798,64,38,0,7,1,4,4,-2
1526905436936798,-1,22,0,5,2,4,0,3
1526905436958739,-4,86,8,3,4,10,-10,3
1526905436958739,-34,13,2,-2,-4,-33,18,-5
1526905436958739,-64,-25,-2,-6,-1,22,-1,-16
1526905436958739,1,-9,-6,-3,-1,9,6,5
1526905436973699,44,18,-6,-4,-3,-7,1,5
1526905436973699,16,30,1,-6,-4,3,-4,6
1526905436973699,-14,13,-1,-1,-1,-12,-5,-5
1526905436973699,1,11,2,2,2,-3,1,-8
1526905436995640,-24,-75,-10,-6,0,8,6,7
1526905436995640,-13,29,-1,-3,-3,1,-12,-5
1526905436996638,9,-19,-6,-7,-3,-8,1,1
1526905436996638,6,38,5,7,3,5,-1,3
1526905437018579,-35,54,6,3,2,-5,-6,-5
1526905437018579,65,-68,-6,-4,-2,7,15,18
1526905437019576,-87,0,1,-8,-3,-2,-3,-9
1526905437019576,-76,-5,-1,-3,-3,2,-7,-4
1526905437033539,-23,30,5,-3,-7,-24,-21,-3
1526905437033539,-22,51,6,14,4,12,-11,-10
1526905437034536,-29,10,2,-4,6,23,13,-9
1526905437034536,19,-7,-1,3,3,-29,-21,10
1526905437055480,-15,39,-3,-2,-3,8,6,-7
1526905437055480,-7,-29,-6,-7,-3,-3,-4,-10
1526905437056478,-19,13,3,1,-4,-10,-12,-8
1526905437056478,11,-5,-2,-1,-1,8,1,9
1526905437078419,53,37,-6,-2,-3,-7,13,-4
1526905437078419,-9,7,0,-3,-1,-4,-5,-4
1526905437079417,14,-32,-1,3,0,1,8,12
1526905437079417,3,-3,1,-2,-1,0,7,-4
1526905437092382,21,-13,1,1,2,7,-2,8
1526905437092382,-12,2,4,5,2,-4,10,7
1526905437100360,-6,-24,-3,3,-1,5,1,3
1526905437100360,-10,-8,-4,-3,-1,-1,-13,-10
1526905437115320,-47,-91,0,-6,1,-4,15,4
1526905437115320,-7,35,-1,1,-2,-11,-9,-20
1526905437116318,-12,-25,0,0,1,14,-1,4
1526905437116318,48,19,1,-2,-3,-1,8,-1
1526905437138259,-71,-3,-1,-2,0,6,-1,-10
1526905437138259,-5,76,8,11,4,2,2,15
1526905437139256,50,-4,-3,-1,-4,-16,0,2
1526905437139256,2,45,-1,-3,-4,6,2,-2
1526905437152222,35,-24,-2,-4,-2,1,-1,9
1526905437152222,0,69,1,-5,-1,-2,-6,-6
1526905437160201,-4,20,-2,4,4,-5,-8,-3
1526905437160201,43,7,3,1,0,-18,1,10
1526905437176158,36,11,-3,4,-1,19,1,-8
1526905437176158,-47,-68,-6,-7,-4,-6,9,0
1526905437176158,-16,31,5,4,0,4,2,13
1526905437176158,-8,-13,2,-4,-3,1,-4,4
1526905437198099,-26,-41,-4,-1,3,-7,2,-9
1526905437198099,2,42,1,-11,-3,-6,-12,-7
1526905437199097,-8,-27,5,9,8,23,14,4
1526905437199097,-33,-36,4,3,-2,4,7,-2
1526905437213059,35,-4,4,4,-3,-4,-10,-3
1526905437213059,-80,64,3,-1,0,1,-11,-25
1526905437220040,-46,-22,-2,-3,-5,-17,-5,-1
1526905437220040,-45,47,3,7,4,2,-7,-12
1526905437235997,-14,37,-1,-5,-4,-6,6,6
1526905437235997,20,-46,-4,-7,-1,3,4,6
1526905437236995,-6,49,4,0,-3,-6,-13,-19
1526905437236995,-14,-8,2,-6,-1,7,8,4
1526905437257939,-17,80,6,3,3,-20,18,-20
1526905437257939,127,-120,-22,-6,-4,-14,-33,22
1526905437258936,45,40,-6,-6,5,27,20,4
1526905437258936,-12,25,-4,-1,0,-3,-4,-5
1526905437272899,-9,-6,-7,-3,-1,11,-7,-2
1526905437272899,22,-21,2,3,0,-5,15,20
1526905437279880,-39,-22,0,-1,0,-10,-4,18
1526905437279880,21,-78,-9,-4,0,6,-1,-4
1526905437295837,64,-23,-9,0,-3,-11,-1,9
1526905437295837,-101,-36,7,9,6,20,5,-1
1526905437296835,48,-28,1,-3,-6,-10,-3,14
1526905437296835,-1,-4,-5,-3,-1,0,-6,1
1526905437317779,-60,39,1,-5,-5,-7,-11,-11
1526905437317779,-48,-28,-6,-4,0,16,13,-2
1526905437318776,-26,2,0,-6,-2,-13,-16,-15
1526905437318776,4,-17,2,3,-1,-5,5,6
1526905437332739,-37,-89,1,2,2,9,-3,-5
1526905437332739,28,55,6,1,5,12,-1,1
1526905437339720,-21,48,1,4,0,-12,5,-6
1526905437339720,14,-70,-6,-4,-1,2,1,8
1526905437355677,92,3,-2,4,1,4,-7,11
1526905437355677,42,43,0,-5,-7,-1,3,-4
1526905437356675,-57,-4,-1,-4,-1,-6,-11,-28
1526905437356675,-99,12,-2,0,3,0,1,-8
1526905437378616,127,84,18,3,-1,3,4,24
1526905437378616,-28,-22,1,1,0,3,-5,-9
1526905437378616,-36,78,6,6,-4,-10,-3,-14
1526905437378616,-81,39,-2,2,4,10,-6,-18
1526905437400558,20,54,-11,-8,-8,-18,-7,-14
1526905437400558,26,0,-2,-8,-7,-3,2,11
1526905437401555,-51,-23,-6,0,-1,-2,5,5
1526905437401555,41,-37,0,-5,-1,0,10,17
1526905437415518,-90,-88,8,21,9,9,1,-12
1526905437415518,44,56,7,1,-5,-6,-6,-7
1526905437416515,127,-20,-9,-6,-1,1,5,21
1526905437416515,84,23,-4,-8,-8,-9,-9,-22
1526905437438456,-37,-34,-11,-6,4,8,-6,8
1526905437438456,-34,-79,-2,-7,-2,4,38,-1
1526905437439454,33,-99,-4,7,1,-15,-11,6
1526905437439454,10,-12,10,3,-2,-2,-8,17
1526905437452419,-79,82,0,-12,-1,37,4,-23
1526905437452419,4,58,-2,-7,1,-10,-15,6
1526905437460399,-29,-21,2,17,12,16,3,0
1526905437460399,44,80,11,5,-5,-21,21,-2
1526905437475358,67,-47,-1,5,0,-2,-2,37
1526905437475358,50,-30,-14,-7,-6,7,4,14
1526905437476355,-34,-47,-4,-7,0,-1,-12,-1
1526905437476355,-74,87,4,-2,-8,-10,10,-14
1526905437498296,-66,87,15,1,-1,-9,-2,1
1526905437498296,103,28,-12,2,1,0,4,13
1526905437499294,110,-62,-13,-8,-5,1,-4,2
1526905437499294,-1,-14,-10,-1,1,8,-3,12
1526905437521235,-9,-42,-1,0,4,0,-3,-6
1526905437521235,-24,-15,7,7,-3,-9,-3,3
1526905437521235,38,58,6,-3,-4,6,-1,0
1526905437521235,-98,59,0,0,-1,-13,-17,-18
1526905437536195,29,-34,8,-2,7,21,24,25
1526905437536195,26,-62,-13,13,-1,-23,-20,-2
1526905437536195,-57,39,2,6,9,15,-13,1
1526905437536195,123,14,-17,-9,-7,-7,-2,18
1526905437558137,31,66,3,-1,-5,-8,-5,-11
1526905437558137,-20,-116,-15,-4,0,2,1,-7
1526905437559135,-17,42,-7,-14,-13,-17,-5,-18
1526905437559135,1,-128,-13,0,4,13,8,18
1526905437581075,-24,-13,-9,-4,-8,-25,-17,-28
1526905437581075,-125,88,1,-8,-6,0,-18,-43
1526905437582073,44,-43,-5,-9,-8,-9,3,15
1526905437582073,-6,89,12,10,8,11,2,-10
1526905437596035,-13,-46,-8,-5,-3,6,6,16
1526905437596035,-22,-2,13,4,5,-11,-6,-17
1526905437597033,-96,89,14,1,-1,-4,-3,-6
1526905437597033,37,33,-2,0,5,10,10,3
1526905437617976,-16,9,-5,-3,-3,-7,-1,-2
1526905437617976,65,-6,0,3,0,8,-3,5
1526905437618973,-75,49,1,-5,-1,-11,0,-46
1526905437618973,59,-128,0,2,2,7,6,24
1526905437640915,-54,-34,-12,-2,-6,-12,-18,-16
1526905437640915,48,127,10,1,-1,-7,3,-5
1526905437641912,89,-34,-8,-5,-3,4,6,23
1526905437641912,-80,34,9,6,2,5,1,2
1526905437655875,-59,-52,-4,-3,0,-2,-5,-9
1526905437655875,-73,13,2,-5,1,6,4,10
1526905437656872,-127,8,7,-1,-1,-4,2,-26
1526905437656872,104,18,6,1,-1,-1,-10,-12
1526905437677816,48,-11,-4,0,0,-5,3,10
1526905437677816,0,-11,0,-2,-3,-1,1,-7
1526905437685795,12,-17,-2,0,1,7,7,10
1526905437685795,-76,58,-2,-6,-6,-11,-13,-33
1526905437700754,15,15,2,2,1,-2,6,7
1526905437700754,-11,15,2,-2,-1,0,3,17
1526905437701752,107,-28,-11,-2,-1,6,14,-3
1526905437701752,-44,-21,3,-3,-2,-12,-9,-12
1526905437723693,124,14,-2,1,1,21,8,35
1526905437723693,0,2,2,3,4,3,0,-11
1526905437723693,-58,93,16,1,-2,-3,-5,3
1526905437723693,121,-119,-16,-8,-4,5,2,21
1526905437737656,-58,72,-2,-1,-7,-16,-11,-25
1526905437737656,64,3,-3,-4,-1,8,-3,9
1526905437745635,8,-13,2,7,0,-10,-4,-3
1526905437745635,-38,0,-4,-1,-2,-2,0,-16
1526905437760595,78,70,6,1,1,-4,-5,-7
1526905437760595,-47,56,-1,-4,-6,2,-8,-23
1526905437761592,-16,49,-12,-7,-3,-3,-4,-2
1526905437761592,-62,61,5,1,-1,-4,3,1
1526905437783533,-56,20,1,1,3,19,-1,-5
1526905437783533,5,-49,-2,0,-7,-16,-12,-5
1526905437784531,33,-71,0,-1,3,-1,4,3
1526905437784531,-29,36,2,1,-2,0,1,-6
1526905437797496,-37,-6,0,-3,-1,-6,-2,0
1526905437797496,47,-45,-3,1,3,4,12,23
1526905437805474,23,-23,-3,1,1,4,2,10
1526905437805474,-26,-29,-2,-4,-3,3,-12,-8
1526905437820434,-5,29,10,0,1,-4,7,-8
1526905437820434,-40,68,-1,-3,0,8,9,6
1526905437821432,40,4,1,5,3,-1,-5,4
1526905437821432,-23,-11,-1,3,-2,-5,-2,8
1526905437843373,13,-13,0,6,0,-6,2,-11
1526905437843373,3,66,6,2,3,10,4,6
1526905437844371,89,61,-8,-2,0,0,-10,25
1526905437844371,-12,36,-4,-3,-3,-6,13,-24
1526905437857336,-27,-102,-2,-2,-1,-13,-2,-8
1526905437857336,3,31,-7,-2,-4,10,8,18
1526905437865315,-28,-32,4,4,1,2,-6,3
1526905437865315,45,-44,-1,4,2,6,-1,-1
1526905437881272,47,-118,-13,-7,-4,-4,-8,-7
1526905437881272,-32,0,5,2,-1,-12,-5,-15
1526905437881272,-20,10,4,-3,-3,-13,-7,1
1526905437881272,47,11,-3,-1,0,32,21,13
1526905437903213,-38,34,-3,-5,-5,-11,-9,-21
1526905437903213,-6,-86,-3,-1,3,1,-8,4
1526905437904211,49,-13,-5,-3,-2,-1,9,12
1526905437904211,-27,-63,-13,-3,-4,-9,-12,-11
1526905437917176,-17,24,-1,2,0,7,12,32
1526905437917176,-53,-1,3,2,-1,0,-18,-9
1526905437926152,14,-29,1,0,-3,0,20,2
1526905437926152,73,-66,-12,-2,0,-13,-8,7
1526905437941112,96,46,0,0,-2,4,-10,-5
1526905437941112,-56,-29,-3,-1,1,-1,5,-4
1526905437941112,-7,-22,5,2,-2,1,-2,-5
1526905437941112,66,42,7,1,1,5,1,18
1526905437963053,-8,-13,-2,-3,-3,-7,-7,-11
1526905437963053,24,24,-2,1,0,-3,0,-7
1526905437964051,-22,3,-2,-5,-4,-11,2,1
1526905437964051,-15,1,2,3,8,24,-11,1
1526905437978013,-47,47,3,9,-3,-29,-4,-1
1526905437978013,21,-3,2,25,18,23,16,16
1526905437985992,-7,-37,-6,-5,-2,6,-13,-8
1526905437985992,0,-27,4,-1,0,-13,-4,12
1526905438000952,-4,87,1,-3,-5,1,3,4
1526905438000952,71,-71,-9,-11,-7,-10,-8,-7
1526905438001949,-2,1,2,2,1,2,-5,-3
1526905438001949,-34,36,3,-1,-4,-7,2,6
1526905438022893,30,-9,-7,-9,0,5,4,-1
1526905438022893,-11,-9,-1,-7,-6,-4,-1,-16
1526905438023891,56,-23,-1,-5,-5,2,0,9
1526905438023891,10,-33,0,-7,-7,-13,-4,-12
1526905438037853,69,4,-3,2,3,9,8,3
1526905438037853,-37,-3,-2,-4,-2,0,5,-6
1526905438045832,-10,54,3,1,-1,-26,-5,-8
1526905438045832,22,11,-1,-6,-2,30,4,7
1526905438060792,-66,22,1,7,1,-10,-2,-12
1526905438060792,17,10,6,21,9,-17,-20,-3
1526905438061789,-33,44,-1,-8,-6,-4,1,-4
1526905438061789,-14,19,-1,-1,0,-8,1,-8
1526905438083730,-1,-18,-2,-16,-5,4,-2,1
1526905438083730,-12,-36,-3,-9,-3,1,-3,2
1526905438083730,-42,-14,-5,5,1,2,11,-7
1526905438083730,-43,-8,-1,1,2,-6,4,6
1526905438106669,-35,2,3,3,0,6,9,1
1526905438106669,-22,-19,-2,-6,-2,-5,-10,-10
1526905438107667,11,-21,-1,7,5,12,5,6
1526905438107667,-1,3,-1,-2,2,-2,1,3
1526905438120632,-6,-2,-2,6,0,0,2,-5
1526905438120632,5,30,-1,-6,-1,-4,1,13
1526905438121629,-36,17,-3,2,0,-14,-20,-12
1526905438121629,47,25,-4,0,-5,8,-6,-9
1526905438143570,44,-8,-1,5,9,5,-6,3
1526905438143570,-7,20,2,-10,-8,-13,0,-3
1526905438144568,-1,45,4,-4,1,9,-7,-5
1526905438144568,-9,16,-1,5,-1,-18,2,-1
1526905438166509,-87,49,0,-5,-4,0,-7,-11
1526905438166509,46,-15,-4,0,2,8,10,9
1526905438167507,-8,40,2,-6,-4,1,-8,-6
1526905438167507,-17,6,-4,0,2,-7,8,1
1526905438180473,25,50,5,-4,0,4,5,3
1526905438180473,26,-49,-1,3,-1,8,16,8
1526905438181469,21,-11,0,-1,-1,3,-11,2
1526905438181469,-1,46,8,-4,-1,-2,-1,3
1526905438203411,43,-90,-7,9,2,-8,-4,-8
1526905438203411,-9,-27,-8,1,-2,8,6,-2
1526905438204408,28,-27,-6,-5,-2,3,13,1
1526905438204408,34,-4,4,5,-3,2,-5,12
1526905438226349,53,-26,-3,-3,6,-2,2,5
1526905438226349,-24,-1,3,8,0,1,-10,-9
1526905438227347,-24,-38,-2,-1,-1,1,6,-7
1526905438227347,-68,0,-4,-7,0,3,1,-8
1526905438241309,6,-79,-10,-8,-9,-1,-1,3
1526905438241309,29,55,0,3,9,7,-1,4
1526905438241309,-35,-3,7,11,2,-4,0,-1
1526905438241309,87,-5,-7,-4,-5,-8,-3,-2
1526905438263250,-26,29,1,0,1,2,-5,-4
1526905438263250,-38,8,-1,-12,-4,-8,3,2
1526905438264248,-31,10,0,0,-3,2,6,2
1526905438264248,36,-65,4,6,6,1,2,18
1526905438286189,-114,-6,-2,0,-4,-7,-7,-17
1526905438286189,-12,55,2,-7,-4,-3,7,4
1526905438286189,27,32,-1,-3,-1,4,-3,0
1526905438286189,-3,-6,-2,-1,-3,1,-3,-16
1526905438301149,-16,-20,-2,-2,0,-1,-4,10
1526905438301149,15,-38,-2,0,0,-6,8,2
1526905438301149,26,58,-2,-5,-8,-6,10,-5
1526905438301149,-7,15,-2,3,1,-1,-4,-1
1526905438323091,-81,19,2,3,1,3,-2,-18
1526905438323091,27,8,-10,-8,-6,-4,-8,2
1526905438324088,4,-16,2,1,3,7,3,8
1526905438324088,-128,50,3,-3,0,-6,-2,-12
1526905438346029,90,48,0,0,-1,-4,-1,10
1526905438346029,-40,36,0,-4,-4,11,3,0
1526905438347027,29,-36,-6,-5,2,-3,-2,10
1526905438347027,-20,-54,2,2,3,1,-2,-5
1526905438360989,-73,-45,1,1,-3,-4,-6,-16
1526905438360989,4,63,9,4,-1,-5,-6,11
1526905438361986,26,-3,-6,-4,-1,3,1,-10
1526905438361986,5,22,1,2,2,-15,-5,4
1526905438382930,47,2,0,-3,1,16,7,1
1526905438382930,-5,-15,-1,-6,-4,-13,-6,-19
1526905438383928,-40,1,4,10,0,2,-3,-7
1526905438383928,23,21,-6,-3,-3,7,-2,3
1526905438405869,-38,11,4,-1,-2,-12,-13,-11
1526905438405869,43,64,-4,-1,-2,-1,-4,1
1526905438406866,-1,-39,0,-3,0,-1,-3,-2
1526905438406866,21,15,-1,-1,-1,1,1,-1
1526905438420829,40,1,0,-4,1,4,11,28
1526905438420829,-9,-35,2,0,0,-3,-8,-30
1526905438421826,-69,-15,-3,-6,-1,-3,-6,-2
1526905438421826,42,-42,-1,2,0,-1,0,-19
1526905438443767,9,-74,-1,0,1,5,9,25
1526905438443767,-22,-26,-1,-1,-5,-4,-3,5
1526905438443767,42,-11,-2,0,-1,-5,-5,-4
1526905438443767,2,38,-5,-1,1,3,5,2
1526905438465709,-14,22,-2,0,1,1,2,2
1526905438465709,5,-16,3,1,0,2,0,3
1526905438466706,41,-4,-1,-3,-1,4,-2,-3
1526905438466706,2,5,4,3,0,-3,5,7
1526905438480669,-1,-29,-8,-4,-5,-23,-8,-10
1526905438480669,-38,24,-4,-4,0,28,2,-2
1526905438481666,-71,44,6,5,4,-3,4,-5
1526905438481666,80,-101,-1,5,2,4,2,21
1526905438503608,7,15,1,-1,0,-1,4,-13
1526905438503608,-5,39,3,1,0,-6,-7,0
1526905438503608,36,3,-5,-4,-3,3,0,3
1526905438503608,-6,2,-9,-4,-2,-2,0,0
1526905438525549,-21,8,4,2,-1,-3,-6,1
1526905438525549,-4,-39,-2,1,2,1,7,2
1526905438526546,23,-67,1,-1,-3,0,-4,-3
1526905438526546,4,50,-6,-6,-5,-8,-9,-12
1526905438542504,82,31,-1,-2,-1,7,2,4
1526905438542504,-51,-40,-4,-4,-3,-9,-7,-20
1526905438543501,3,31,-3,0,-1,-2,-1,3
1526905438543501,-34,-34,5,-1,-5,-2,0,2
1526905438563447,-18,-6,-3,-3,2,2,5,1
1526905438563447,19,-15,1,0,-2,-4,-10,-1
1526905438564445,-9,74,0,-2,-1,-1,-5,-8
1526905438564445,48,38,2,2,1,5,-6,-4
1526905438585389,95,-35,-1,1,-3,-8,-10,-6
1526905438585389,77,-19,-4,1,0,-5,1,20
1526905438586386,-34,0,-5,-2,-3,-3,0,-19
1526905438586386,-50,51,1,-1,-2,1,-1,-13
1526905438600349,-35,11,-5,-2,1,6,5,5
1526905438600349,3,12,5,1,-3,-3,-2,-10
1526905438601346,28,-26,-2,1,1,1,-3,8
1526905438601346,-95,-15,0,-5,-1,-19,-8,-6
1526905438623288,32,-95,-10,-2,-1,20,13,-4
1526905438623288,-64,17,4,-1,0,-5,0,-2
1526905438624285,40,12,-5,-2,-4,4,0,-1
1526905438624285,24,-37,5,3,-1,-12,-2,11
1526905438646226,-43,27,0,1,0,7,-7,-5
1526905438646226,-2,-5,-2,1,2,-1,0,-1
1526905438646226,29,-107,-5,0,1,0,5,11
1526905438646226,15,3,2,-3,-2,3,11,-5
1526905438661186,21,18,-5,-3,-4,-9,-5,6
1526905438661186,-8,-2,-1,0,-1,2,6,-6
1526905438661186,-79,42,5,1,0,0,-6,-5
1526905438661186,-50,20,1,-6,-3,0,0,2
1526905438683127,-10,16,1,0,2,2,3,6
1526905438683127,28,-69,-6,-3,3,-2,-7,-3
1526905438684125,32,21,0,-1,1,-3,14,21
1526905438684125,-45,16,-2,-1,-3,4,-10,-24
1526905438706066,101,65,6,-1,0,-17,6,21
1526905438706066,-26,42,1,0,2,20,-11,-7
1526905438707064,8,-71,1,-1,0,-14,2,13
1526905438707064,71,2,-3,1,6,11,13,7
1526905438720029,-2,9,1,0,-2,-2,-9,-17
1526905438720029,-49,21,-1,-2,-4,1,-5,6
1526905438728008,-19,6,0,0,-2,-8,8,-16
1526905438728008,6,-7,-2,0,1,1,-2,1
1526905438742967,-33,16,1,-1,-3,3,4,6
1526905438742967,-11,-54,-5,-3,0,-11,-7,-6
1526905438743965,42,27,1,2,1,7,-5,-3
1526905438743965,1,46,-2,-2,-3,2,0,3
1526905438765906,1,-25,-5,-8,-6,-6,-14,-3
1526905438765906,2,-25,-1,-5,-2,-6,0,-5
1526905438766903,-43,8,3,2,4,10,-4,0
1526905438766903,26,-62,-5,0,3,2,-3,-5
1526905438779869,22,29,2,0,-5,-8,-2,-2
1526905438779869,24,-27,-8,-3,-5,-18,10,13
1526905438788845,-1,-2,-7,-6,1,23,-4,-4
1526905438788845,-18,-58,1,8,5,18,21,18
1526905438802807,-76,-30,-2,1,4,-11,-23,-11
1526905438802807,11,33,-1,-1,-1,-4,-4,-8
1526905438803805,-46,19,0,-1,-6,-20,-13,-9
1526905438803805,-1,-57,-4,3,-2,6,17,6
1526905438825746,-40,-9,0,6,0,9,7,1
1526905438825746,29,9,1,3,-1,-6,-3,0
1526905438826744,-3,0,1,1,1,9,-4,-2
1526905438826744,0,96,-2,-14,-13,-22,-26,-11
1526905438839709,9,-31,-6,-18,-5,-4,4,5
1526905438839709,10,16,11,35,23,12,9,-4
1526905438848684,38,14,0,-4,-12,-14,3,2
1526905438848684,-46,12,3,5,3,7,14,24
1526905438863644,-2,24,-7,-9,-6,-4,-14,-56
1526905438863644,-33,65,1,-15,-8,0,-3,9
1526905438863644,81,-76,-3,0,2,2,4,13
1526905438863644,-25,7,1,0,-4,-5,8,-10
1526905438885586,-22,4,5,4,-2,-6,-3,10
1526905438885586,-18,-16,0,-3,1,18,19,3
1526905438886583,0,18,0,2,2,-5,-3,-2
1526905438886583,79,24,-1,-6,-2,4,-5,-7
1526905438900546,-16,-13,4,3,-1,-1,6,9
1526905438900546,102,17,-6,-1,-2,-15,-16,10
1526905438908525,-50,20,3,-4,0,4,5,-9
1526905438908525,42,-77,-5,-3,2,-4,-11,-1
1526905438923485,18,5,-1,3,4,8,10,8
1526905438923485,-55,65,9,1,-4,-2,-6,2
1526905438924482,-3,-25,-3,-3,-1,13,1,-6
1526905438924482,-29,34,4,3,8,-8,-15,-5
1526905438945426,-1,47,-1,2,-4,-3,1,1
1526905438945426,82,-55,-4,-7,-3,5,24,13
1526905438946424,-21,8,-4,-6,-2,-12,-11,-16
1526905438946424,-60,16,2,5,1,1,-2,-7
1526905438960386,2,25,5,2,5,9,5,14
1526905438960386,-73,-56,-2,-2,-3,-21,-7,-11
1526905438968365,46,40,-1,-3,0,32,11,5
1526905438968365,26,-110,-6,-5,-3,-20,-22,11
1526905438983325,19,-40,-4,-9,-2,-10,-12,0
1526905438983325,-24,16,-2,7,3,7,15,-11
1526905438984322,4,-70,0,3,-3,-10,-6,-14
1526905438984322,-30,42,-5,-4,-3,2,5,12
1526905439006263,-14,-1,3,2,-1,-1,-4,-2
1526905439006263,7,-19,-7,-13,-5,0,-4,-5
1526905439006263,-20,10,-1,-1,-2,-10,0,11
1526905439006263,-53,-9,0,-2,-3,5,-1,-26
1526905439029202,-65,19,-5,-4,-4,-12,0,-4
1526905439029202,102,20,-4,-1,-3,0,-11,-12
1526905439030199,-21,19,4,3,2,-5,0,12
1526905439030199,65,23,2,1,-3,-4,0,6
1526905439043165,23,-12,-3,1,2,9,3,-7
1526905439043165,52,-86,-5,-3,3,11,6,16
1526905439044162,-19,30,3,5,-1,-4,-7,-3
1526905439044162,-14,63,-7,-5,1,-2,0,-9
1526905439066103,51,28,-1,5,0,5,9,22
1526905439066103,-9,31,0,-2,-4,1,0,-8
1526905439066103,3,-50,-8,-6,3,-6,-2,16
1526905439066103,-39,19,6,6,-1,0,0,-4
1526905439089042,25,-45,3,5,2,-7,-13,-10
1526905439089042,-55,-2,4,-2,0,3,7,3
1526905439090039,-87,50,-5,-2,3,17,11,-1
1526905439090039,-6,-36,-4,0,2,4,-9,9
1526905439103005,61,16,2,-2,-3,-1,5,13
1526905439103005,-1,-12,6,4,-2,-13,-17,-5
1526905439104002,-47,25,4,-1,1,-2,-2,-7
1526905439104002,30,-91,-13,-2,-3,-2,6,13
1526905439125943,18,3,3,-8,-1,1,-2,-1
1526905439125943,-42,83,10,10,0,1,-6,3
1526905439126941,95,33,-6,1,0,-4,1,4
1526905439126941,26,48,0,-5,-4,7,1,-5
1526905439148882,-61,-32,3,7,2,-10,-11,-7
1526905439148882,51,-50,-7,-9,-4,0,-4,3
1526905439149880,-27,4,1,-4,-4,-2,-1,-6
1526905439149880,26,-73,1,1,0,-6,-5,5
1526905439162844,-28,75,0,0,1,3,8,-6
1526905439162844,24,-17,1,-3,4,13,8,14
1526905439163842,127,-18,2,8,-4,-28,-12,22
1526905439163842,-40,-19,3,-5,-1,22,6,-15
1526905439185783,-92,-1,-6,6,0,1,4,-7
1526905439185783,13,-4,-8,-6,-7,-8,-7,2
1526905439186781,31,-81,-3,-12,-2,-3,0,-4
1526905439186781,-28,57,-1,9,-1,-4,-2,-2
1526905439208722,76,-20,-5,-6,-5,-1,0,-3
1526905439208722,-40,-14,-5,-1,-1,1,-1,-13
1526905439209719,-73,-14,-9,-4,0,2,-9,-13
1526905439209719,91,20,0,-7,-7,-17,-6,1
1526905439223682,35,-85,0,2,2,7,0,-7
1526905439223682,-25,43,-3,-3,0,-2,-3,-7
1526905439223682,-17,55,3,0,-3,4,17,-1
1526905439223682,21,13,2,-4,2,-4,5,0
1526905439245623,-69,25,-3,-2,-3,-1,-1,-2
1526905439245623,-32,-30,4,1,3,13,0,-2
1526905439246621,54,-35,-5,-2,-6,-9,-1,0
1526905439246621,15,19,-3,4,-2,-5,3,-17
1526905439268562,-1,34,2,-1,2,7,-7,12
1526905439268562,-31,13,6,5,3,-9,15,-3
1526905439269559,-56,4,2,-1,3,1,-16,-31
1526905439269559,-5,26,-6,-6,-1,-2,-2,3
1526905439283522,-41,2,-1,-1,-1,4,6,-1
1526905439283522,-69,0,-7,0,-3,-10,-10,-7
1526905439284519,-68,16,-4,4,0,5,1,-15
1526905439284519,48,-49,3,-2,-2,-3,8,7
1526905439305463,19,-48,-2,-12,-4,-5,-6,-2
1526905439305463,-52,34,-2,4,1,3,3,13
1526905439306461,-81,-61,6,2,2,3,-4,-10
1526905439306461,-6,16,-9,-2,-3,-13,-23,-26
1526905439329399,-55,27,-2,-1,-2,-7,-3,0
1526905439329399,-2,-5,-4,0,-2,0,1,8
1526905439329399,56,12,-1,4,1,1,-4,5
1526905439329399,17,6,0,-3,-4,-1,-4,12
1526905439343362,37,21,0,4,0,-3,7,0
1526905439343362,-43,-68,-2,-1,0,7,1,2
1526905439344359,69,6,-4,0,-2,-6,-19,-23
1526905439344359,-97,-20,9,4,7,16,48,20
1526905439366301,-4,-7,-5,-6,-3,-6,-2,-9
1526905439366301,-15,9,3,7,2,5,0,2
1526905439366301,32,45,1,-3,-1,-4,-10,-3
1526905439366301,-13,-15,-3,-1,-7,-6,-11,-6
1526905439389239,-4,22,0,6,2,5,-2,-2
1526905439389239,-12,-5,5,-8,-6,-11,-4,-15
1526905439390237,54,-10,-6,-3,1,8,6,15
1526905439390237,6,15,0,0,0,-13,1,0
1526905439403202,21,-41,-2,-1,1,0,-1,0
1526905439403202,24,52,3,-3,-1,-2,-6,-7
1526905439404199,18,-20,3,3,2,-4,8,19
1526905439404199,39,93,1,-2,-1,6,-11,-10
1526905439426140,94,-56,-9,0,0,-5,15,8
1526905439426140,-18,58,3,-3,-1,-2,-5,-10
1526905439426140,-48,17,-10,-7,-4,1,-2,-11
1526905439426140,-59,7,6,2,2,-8,-1,-11
1526905439448082,25,-18,1,-1,-1,3,0,24
1526905439448082,-3,-25,-10,-3,-3,-2,0,-2
1526905439449079,17,55,10,5,1,-5,2,2
1526905439449079,10,-14,-4,3,2,8,-3,-7
1526905439463041,29,56,2,-2,-3,-13,-4,-6
1526905439463041,29,-41,-4,-2,1,19,-10,5
1526905439464039,-73,-103,5,6,-1,-1,21,14
1526905439464039,-31,1,-2,-1,1,0,-21,-5
1526905439485980,12,46,-4,-3,-5,-10,-14,-11
1526905439485980,58,-9,-3,-1,-2,-17,-2,10
1526905439486978,-10,33,-2,-4,0,17,3,-6
1526905439486978,43,-71,-6,-1,-5,7,17,20
1526905439507922,-60,13,-3,-4,-1,-15,-23,-4
1526905439507922,9,53,6,1,-1,-2,4,2
1526905439508919,23,44,5,1,1,-2,-10,-14
1526905439508919,-66,47,1,-2,-4,0,-4,-10
1526905439522882,37,-63,-12,-3,-2,5,2,10
1526905439522882,9,2,0,-2,-2,-4,2,3
1526905439523879,-17,-8,0,7,0,-2,5,8
1526905439523879,27,46,-5,-3,-3,-5,-9,-2
1526905439545820,-72,20,10,1,-2,8,10,-4
1526905439545820,68,6,-3,-2,-1,-3,-10,-10
1526905439546818,-27,-52,-9,-3,-4,0,-5,8
1526905439546818,17,-7,0,1,6,-6,-13,-12
1526905439568759,81,14,0,-4,-5,12,0,17
1526905439568759,8,-66,-12,-4,-2,0,30,5
1526905439568759,-18,16,0,8,1,-4,-1,10
1526905439568759,11,-86,-2,1,-2,-2,-2,-16
1526905439583719,-46,38,0,-3,0,3,-1,-12
1526905439583719,-35,75,-1,-6,0,-4,-9,-17
1526905439583719,23,-25,-2,-3,-2,2,2,11
1526905439583719,43,16,5,2,8,7,13,10
1526905439605660,18,-12,3,3,1,-7,4,-2
1526905439605660,27,48,6,3,3,13,-1,5
1526905439606658,3,-41,-5,-5,-1,-4,7,-7
1526905439606658,-10,25,-3,-2,-1,-1,-9,14
1526905439628599,10,-33,-1,-1,1,10,15,1
1526905439628599,12,-35,-4,-1,-2,-16,-18,-11
1526905439629596,24,24,3,1,2,-15,-1,4
1526905439629596,-36,-16,3,-2,-2,17,0,14
1526905439642562,-74,-44,-13,-4,0,9,-3,-20
1526905439642562,-17,-11,9,1,0,-6,18,-6
1526905439650540,13,14,-3,0,-2,1,-2,1
1526905439650540,-42,-29,-2,7,0,-11,-1,-4
1526905439665500,-14,58,7,4,5,11,1,-4
1526905439665500,58,-125,-13,-8,-10,-8,-3,9
1526905439666498,-71,17,-2,-7,-3,-7,-3,-5
1526905439666498,-15,24,1,2,4,4,7,-19
1526905439688439,87,-37,-4,1,-2,3,4,18
1526905439688439,12,50,-4,-2,-1,-5,-11,0
1526905439689437,3,5,-2,-4,-5,-2,15,-2
1526905439689437,31,-15,-4,-2,1,1,2,8
1526905439702401,-41,-5,4,2,1,-10,-5,-14
1526905439702401,20,16,5,1,-2,-4,-7,-13
1526905439710380,31,-15,1,-2,3,17,2,4
1526905439710380,40,-41,-3,0,-1,12,-4,3
1526905439725340,51,30,-1,-6,-9,-9,-7,-6
1526905439725340,-50,-15,-4,-10,-2,17,6,-4
1526905439726338,4,-5,0,8,-1,-27,-2,-1
1526905439726338,-15,-3,0,0,-2,-6,0,-3
1526905439748279,9,-2,5,4,0,-1,-7,10
1526905439748279,3,-86,-6,-5,0,9,5,9
1526905439749276,-68,11,-5,-6,-3,1,-6,-7
1526905439749276,62,-41,-12,-4,1,-2,3,16
1526905439762242,-71,34,-2,-5,-3,-9,-1,-8
1526905439762242,-8,18,4,3,0,1,-7,0
1526905439771217,10,13,7,5,3,3,-2,6
1526905439771217,-57,67,-2,-7,-7,-14,-11,-8
1526905439786177,5,-64,4,4,6,16,13,15
1526905439786177,-8,33,3,17,4,-26,-8,-7
1526905439786177,70,-75,-2,1,2,27,2,5
1526905439786177,-54,80,6,-4,-4,-7,4,-13
1526905439808119,47,-43,-3,2,1,0,-10,-3
1526905439808119,-13,-77,0,0,0,-8,15,-9
1526905439809116,34,47,-1,-2,-2,-5,-3,6
1526905439809116,-11,-11,3,1,1,-2,-6,-9
1526905439823079,-49,18,3,0,1,-1,1,0
1526905439823079,54,47,-2,-4,-1,4,-3,7
1526905439831057,-63,-25,-1,-1,0,6,-2,-18
1526905439831057,34,-87,-10,-9,-2,-1,-2,13
1526905439846018,1,-29,0,2,-4,-7,10,-5
1526905439846018,-3,-6,-9,-12,-6,5,-1,-1
1526905439847015,14,10,-2,6,3,10,0,-2
1526905439847015,-37,8,1,4,-1,-13,4,5
1526905439867959,2,16,1,4,3,5,5,0
1526905439867959,18,20,-1,-4,0,-1,-5,3
1526905439868956,41,-18,-7,-7,-5,-8,-7,-3
1526905439868956,72,-23,0,-8,-9,-23,-5,-5
1526905439882919,36,16,-3,-2,-4,22,-5,1
1526905439882919,-62,16,4,2,1,-3,-5,4
1526905439890897,13,10,-5,-5,-2,-6,-3,-6
1526905439890897,-30,58,5,4,0,0,-2,-8
1526905439905857,61,-11,-2,-4,-1,-9,3,12
1526905439905857,49,-3,-1,0,-2,4,-15,5
1526905439906855,-32,-50,-2,-3,-2,-7,15,-12
1526905439906855,40,53,5,0,4,8,5,9
1526905439928796,-103,13,-3,3,-3,-14,-15,-19
1526905439928796,29,-87,-9,1,4,19,22,9
1526905439928796,-19,79,17,1,-1,-1,-3,-4
1526905439928796,2,3,-8,-7,-2,1,-13,-4
1526905439942759,-30,1,1,0,0,-1,7,5
1526905439942759,2,-4,-11,-7,-6,-6,-6,0
1526905439950737,39,40,-1,-5,0,-7,0,8
1526905439950737,-54,-24,10,23,9,10,5,-3
1526905439965697,-19,-25,-5,-1,0,0,-7,-11
1526905439965697,7,37,1,-3,-2,-7,-7,-4
1526905439966695,29,-19,-1,-2,-2,1,0,3
1526905439966695,42,-83,-5,-10,-4,1,1,7
1526905439988636,53,-1,-6,-4,-4,-18,-4,5
1526905439988636,38,48,0,5,1,17,1,-18
1526905439988636,4,4,-2,-7,-3,-1,-3,3
1526905439988636,-38,31,5,11,-1,2,1,1
1526905440011575,-19,32,2,0,0,4,-2,1
1526905440011575,-48,-103,2,0,-3,-11,-1,-9
1526905440012572,-56,18,-5,2,2,1,-7,-5
1526905440012572,-13,74,-1,-2,0,17,-4,-12
1526905440025537,56,-27,4,-5,-1,-20,22,15
1526905440025537,-21,21,-1,4,1,1,0,9
1526905440026535,-82,-49,-2,-5,-4,-1,-5,-2
1526905440026535,33,2,7,-4,1,-4,5,18
1526905440048476,-58,34,4,4,1,7,-5,-9
1526905440048476,-93,18,-4,-2,-1,-3,-4,-6
1526905440049473,13,-16,-7,2,-1,-9,-7,-14
1526905440049473,106,-41,-1,-5,-1,1,4,6
1526905440071415,45,111,3,-4,-3,3,-4,7
1526905440071415,76,21,4,1,0,-6,-2,-2
1526905440072412,-42,-20,-3,-1,1,2,-10,-4
1526905440072412,-53,-30,-2,-2,-2,-8,3,-5
1526905440085377,-116,2,3,2,3,5,-5,-15
1526905440085377,103,-62,-10,-2,-2,-3,-1,8
1526905440086375,46,92,3,1,-2,1,-3,3
1526905440086375,72,-9,-1,5,2,-17,-1,4
1526905440108316,-8,-113,-10,-4,-2,23,8,6
1526905440108316,0,50,1,-2,-3,-8,-2,14
1526905440109313,35,21,2,3,0,10,-5,-4
1526905440109313,-44,-44,-14,-3,1,-16,-1,1
1526905440131255,8,-1,7,-2,-4,-7,-9,-8
1526905440131255,-78,47,8,4,4,-1,-1,-8
1526905440132252,127,-5,-2,-1,-2,-1,6,17
1526905440132252,28,-3,-2,-4,-4,3,-7,-10
1526905440146215,10,-123,-9,3,5,-2,-6,0
1526905440146215,-17,69,12,6,6,7,0,15
1526905440146215,4,88,-5,-6,-4,-10,4,-4
1526905440146215,76,-31,-7,-2,0,7,2,3
1526905440168156,-73,64,7,1,-2,-3,3,8
1526905440168156,-29,-51,-8,0,-1,-2,-5,-14
1526905440169154,-12,-34,-3,-1,0,1,0,6
1526905440169154,-98,53,8,-1,-1,2,-4,-3
1526905440191095,27,-27,-3,-5,-1,-3,-5,-3
1526905440191095,-44,4,-1,-2,1,-3,-2,-4
1526905440192092,-25,-64,-4,1,0,0,-1,-1
1526905440192092,34,-37,-8,-2,1,5,2,-3
1526905440206054,43,-29,9,1,-2,1,-2,-7
1526905440206054,56,17,-7,-3,-2,-15,-13,4
1526905440207052,79,-81,-11,-3,-3,-3,11,7
1526905440207052,-128,3,7,1,0,19,-14,-11
1526905440227996,-47,-40,-8,-2,6,4,1,-2
1526905440227996,27,-8,4,-4,-8,-11,6,-5
1526905440228993,45,-2,5,2,2,-3,6,11
1526905440228993,-83,21,-8,-4,-4,-8,-13,-18
1526905440251932,77,-63,-6,-3,-2,-2,1,3
1526905440251932,-89,-13,5,-4,-4,10,-6,-11
1526905440251932,17,27,7,7,0,-3,-5,0
1526905440251932,28,15,-4,-2,-5,-4,8,2
1526905440265895,90,76,-1,1,-3,-5,-2,6
1526905440265895,82,-60,-7,0,3,2,7,10
1526905440266892,-57,-7,-3,-11,-7,-5,-15,-30
1526905440266892,-48,85,11,1,-1,-5,-2,-4
1526905440288833,80,37,-3,-2,2,2,7,4
1526905440288833,-5,13,-1,1,2,-4,1,16
1526905440288833,-72,-14,-3,3,3,4,0,-11
1526905440288833,6,-22,1,-2,0,-6,-7,12
1526905440311772,-128,51,7,4,1,2,2,-11
1526905440311772,-31,45,-3,2,-2,8,16,-8
1526905440312770,36,13,-7,-4,-2,1,-3,17
1526905440312770,6,25,1,-1,2,-6,-4,-11
1526905440325734,-59,45,6,-1,-5,-27,-14,-1
1526905440325734,117,79,-6,-6,1,27,-1,6
1526905440326732,85,-89,-12,-3,-2,-2,1,29
1526905440326732,18,28,-1,-1,0,10,1,0
1526905440348673,62,13,2,4,-1,0,-12,-3
1526905440348673,-7,-25,-8,-2,-4,-14,8,-14
1526905440348673,-108,12,10,3,-1,0,-3,-20
1526905440348673,56,-1,3,3,-1,5,12,19
1526905440371612,22,-9,-5,-4,-4,-11,-10,-3
1526905440371612,32,-1,4,-1,-1,-8,-4,-5
1526905440372609,-19,88,8,3,0,15,-1,11
1526905440372609,-21,-74,-7,-4,-4,-16,8,-16
1526905440385575,15,-7,-5,-5,0,5,5,2
1526905440385575,-40,-8,1,0,-1,-2,-2,10
1526905440386572,-49,-55,-2,-3,1,-6,0,7
1526905440386572,34,14,7,3,4,11,9,17
1526905440408513,15,24,-7,-3,-5,-1,-8,-14
1526905440408513,51,23,2,3,2,-2,-5,-6
1526905440409511,21,-44,-5,-3,-5,-18,-9,-9
1526905440409511,-36,-66,-2,1,1,26,-6,-9
1526905440431452,-13,-1,-8,-4,-4,-3,6,-1
1526905440431452,-53,19,7,4,2,1,-2,-5
1526905440432449,-57,20,2,-2,1,-4,5,-9
1526905440432449,22,-10,-5,-5,-3,-17,-7,-13
1526905440445414,18,33,0,1,4,28,11,8
1526905440445414,-15,-40,-5,0,4,10,-1,-15
1526905440446412,28,22,3,2,-2,-20,11,-2
1526905440446412,72,-82,-14,-8,-5,-6,-7,9
1526905440468353,-36,-22,2,-3,-2,-1,-3,-19
1526905440468353,-54,4,4,-2,-3,-5,-4,3
1526905440469351,-3,26,3,2,4,21,3,-12
1526905440469351,-102,-23,-2,-2,-2,-10,-13,1
1526905440491292,43,-12,1,1,-1,-8,-1,-2
1526905440491292,-8,-4,0,1,0,2,6,15
1526905440492289,26,-12,2,2,2,-2,-10,-6
1526905440492289,73,-29,-2,0,-4,-5,15,10
1526905440506252,48,19,-1,2,-1,-18,-6,7
1526905440506252,7,12,-1,1,1,20,1,-17
1526905440506252,-55,26,0,-2,1,2,-3,10
1526905440506252,-31,30,1,0,0,-2,-2,-4
1526905440528193,-17,-12,0,-1,2,-10,-2,0
1526905440528193,-36,6,3,4,-1,-6,2,5
1526905440529190,-11,12,1,0,-1,6,2,2
1526905440529190,30,50,3,3,1,3,-8,-3
1526905440551132,-13,-73,-4,-5,-3,-1,5,20
1526905440551132,34,-27,-2,-5,-2,-4,-13,0
1526905440552129,-37,5,-1,-1,-3,2,5,-10
1526905440552129,-16,-28,5,-3,9,10,-12,-20
1526905440566092,-96,69,3,10,0,2,-9,15
1526905440566092,-34,-20,-1,1,5,2,-8,-13
1526905440567089,-12,-17,-4,-2,-4,-6,-1,-1
1526905440567089,31,18,-1,-4,-6,-2,4,4
1526905440588033,-69,10,2,-2,0,3,-2,-18
1526905440588033,-57,55,4,-1,-1,-4,3,12
1526905440589031,21,-57,-8,-2,-2,-7,-5,13
1526905440589031,-58,61,0,-3,2,14,13,-11
1526905440610971,-14,-87,-1,0,0,-6,-25,-2
1526905440610971,21,-12,1,0,0,-3,2,8
1526905440611969,46,17,-14,-2,-5,-11,7,-9
1526905440611969,-31,20,12,5,-2,3,6,7
1526905440624934,54,16,-4,0,5,-4,16,-8
1526905440624934,-30,-14,0,-4,-3,-6,-6,-2
1526905440632913,-46,-9,-7,-2,-1,-1,-7,-4
1526905440632913,12,38,0,2,0,1,3,-1
1526905440647873,-34,33,1,-5,-6,-2,1,-5
1526905440647873,7,5,-3,-4,-6,-5,0,5
1526905440648870,-16,-7,2,-5,-1,4,-1,-2
1526905440648870,-47,25,-1,3,-5,-30,0,0
1526905440670812,44,43,5,-5,1,29,0,15
1526905440670812,-7,-45,-15,-3,-4,-10,-3,-23
1526905440671809,105,28,-1,-1,0,9,-6,12
1526905440671809,89,-25,0,-8,-3,1,9,10
1526905440684774,60,1,-5,15,2,-12,18,9
1526905440684774,30,35,2,-3,2,6,-5,2
1526905440693750,-44,-20,3,1,-2,0,2,-11
1526905440693750,-37,-19,-9,-6,0,-4,-6,-1
1526905440708710,25,2,-4,-15,-5,0,-3,0
1526905440708710,-7,22,1,7,-3,-6,-5,-7
1526905440708710,9,-74,1,5,3,-1,1,6
1526905440708710,31,55,-6,-1,-3,8,-1,-2
1526905440730652,35,42,5,-1,-5,-9,-17,-7
1526905440730652,-13,14,2,-1,2,-1,2,11
1526905440731649,25,18,7,-1,-2,-11,-5,-2
1526905440731649,-11,-32,-4,1,0,7,7,3
1526905440745612,-32,12,2,0,0,1,1,-6
1526905440745612,42,-19,-9,-9,-5,-3,-2,-13
1526905440752593,11,54,4,1,2,-1,-2,-3
1526905440752593,41,43,9,9,3,-10,-9,-15
1526905440768550,-12,-35,-21,-9,-2,15,28,4
1526905440768550,-16,-25,7,3,-4,-13,-20,-28
1526905440769548,-6,41,-2,-2,0,11,2,-4
1526905440769548,48,-20,-5,-1,-2,-11,-1,6
1526905440790492,-19,-9,-4,-2,-1,1,-7,-2
1526905440790492,-52,-64,-1,-4,0,-3,0,1
1526905440791489,29,12,4,2,1,8,22,6
1526905440791489,-41,21,-1,-1,-3,-2,-12,-8
1526905440805452,22,-32,-3,-8,0,-3,-4,-12
1526905440805452,-27,106,6,-4,-4,0,6,11
1526905440813430,3,-14,1,9,11,-2,-14,-3
1526905440813430,6,32,-3,5,2,1,7,-3
1526905440828390,-61,-46,5,14,5,6,0,-14
1526905440828390,65,-2,4,-1,-5,4,9,14
1526905440829387,-101,8,11,8,-1,-4,-19,-12
1526905440829387,60,-28,-4,-3,-3,3,-4,6
1526905440851329,-30,-28,-2,-4,-6,-24,-8,5
1526905440851329,67,-10,1,-1,0,4,10,21
1526905440851329,88,-54,-3,-3,-1,11,11,26
1526905440851329,-26,-77,-9,-8,-2,-2,-9,-9
1526905440865292,-59,76,7,4,3,6,-1,-10
1526905440865292,79,60,5,6,4,-1,-1,10
1526905440873270,126,-91,-17,-9,-5,-4,1,11
1526905440873270,-29,89,7,2,1,2,3,23
1526905440888230,-27,-3,-22,-11,-5,-2,-13,-30
1526905440888230,-45,-57,3,2,5,5,16,16
1526905440889228,26,29,7,0,-3,-8,-13,-16
1526905440889228,-13,37,1,-4,-3,-1,-5,-12
1526905440911169,-39,-22,9,10,3,-8,4,0
1526905440911169,19,-4,-8,-1,-3,-1,-9,9
1526905440911169,-106,-3,-5,-7,-5,2,-1,-18
1526905440911169,-48,38,5,-3,-5,-10,-10,-34
1526905440934107,0,60,8,2,1,7,1,-2
1526905440934107,-57,16,10,4,0,-2,-3,-24
1526905440935105,-49,125,25,7,0,-2,3,13
1526905440935105,23,-25,-3,5,7,6,11,25
1526905440948070,-31,12,-9,-3,3,8,3,3
1526905440948070,2,48,0,-16,-10,-24,-29,-22
1526905440949068,19,6,-3,9,1,2,3,12
1526905440949068,-52,-111,-2,0,-1,1,-5,-11
1526905440971009,100,-20,2,-6,-6,2,-4,4
1526905440971009,38,-94,-19,0,0,-10,-2,13
1526905440972006,86,-3,-10,-6,-3,7,7,-11
1526905440972006,35,-128,-9,-1,-4,-6,-2,1
1526905440993948,-9,-44,-1,-2,0,-6,-1,8
1526905440993948,-25,21,2,9,-1,8,-2,-13
1526905440994945,-75,14,-2,-6,-3,-11,-10,-21
1526905440994945,-18,43,1,-2,-1,-4,3,18
1526905441007911,31,17,4,-3,-1,12,7,2
1526905441007911,-65,12,1,-1,0,-1,1,-16
1526905441008908,-38,87,-7,-7,-5,-5,-7,-10
1526905441008908,-31,-14,-4,-4,-2,-7,-9,-15
1526905441030849,69,-113,0,3,1,-3,3,29
1526905441030849,-28,-47,-8,-13,0,3,0,-23
1526905441031846,-40,-22,0,8,1,-3,-1,-11
1526905441031846,48,64,1,-1,-2,5,3,10
1526905441053787,-23,12,3,-1,-7,-8,-6,-10
1526905441053787,-3,8,1,3,0,-3,4,2
1526905441054785,45,-36,-1,0,6,12,-8,-1
1526905441054785,55,-10,-7,-1,-6,-17,7,11
1526905441068747,-51,81,5,1,0,-3,-2,-8
1526905441068747,-59,9,-9,-7,-2,5,5,1
1526905441068747,12,-10,-9,-5,-5,-5,-2,16
1526905441068747,-23,17,1,8,4,9,-2,-6
1526905441090689,-2,-11,6,-1,0,-4,-2,-20
1526905441090689,-14,15,-3,-1,-4,-2,-1,8
1526905441091686,-33,15,-2,-10,-6,-17,-4,-8
1526905441091686,35,9,7,-3,-1,13,1,-4
1526905441113627,-9,19,-8,2,-1,-2,5,10
1526905441113627,69,-45,4,4,3,7,1,3
1526905441114625,31,48,4,4,-2,-3,2,9
1526905441114625,63,19,-4,-3,0,-1,4,5
1526905441128588,-47,26,3,-1,2,-4,-1,-3
1526905441128588,76,-5,0,-1,-2,-12,-8,7
1526905441129585,84,-108,-7,-4,3,14,15,13
1526905441129585,-42,52,7,0,0,-4,-5,-7
1526905441150529,11,-60,-8,-6,1,8,3,8
1526905441150529,-71,60,-1,4,2,-1,1,2
1526905441151526,78,-64,-7,1,0,0,-7,3
1526905441151526,-16,77,9,2,2,-8,0,9
1526905441174465,45,-10,2,0,-2,-6,4,15
1526905441174465,-27,-9,-4,-5,-4,7,5,-2
1526905441174465,-110,20,-1,0,1,-2,-17,-12
1526905441174465,21,-11,0,-3,-1,-3,-1,4
1526905441188427,0,-43,-1,4,1,13,-6,2
1526905441188427,23,-7,-1,4,1,10,8,-15
1526905441189425,4,-63,-5,-4,-2,-6,-12,5
1526905441189425,-64,-42,-4,-4,-3,-5,-1,-8
1526905441210369,-61,13,5,-1,0,0,3,4
1526905441210369,-30,-39,-6,-5,-2,0,-11,-7
1526905441211366,-28,32,0,1,-1,-4,13,-7
1526905441211366,-112,0,-10,-3,-2,-3,-2,-8
1526905441234305,90,-91,-4,0,-2,13,-5,1
1526905441234305,33,-4,7,5,1,2,6,20
1526905441235302,-18,99,4,-2,-2,-6,-4,-1
1526905441235302,58,-47,-6,-1,-1,8,-4,6
1526905441248267,-68,78,11,0,-4,-17,11,-20
1526905441248267,-6,-82,-9,-1,1,-4,-3,4
1526905441249265,-59,20,4,-1,1,7,3,2
1526905441249265,-75,-15,-3,-1,-1,-9,-4,-19
1526905441271206,-39,-11,-7,-4,0,5,4,8
1526905441271206,-37,29,-4,-3,-3,-7,-10,-32
1526905441271206,15,-7,0,-1,-3,-2,0,-10
1526905441271206,14,-10,7,1,2,2,7,19
1526905441294145,69,22,-3,2,-2,-13,-5,-6
1526905441294145,3,-16,-3,-3,-4,4,-2,9
1526905441295142,-57,55,4,1,1,2,2,-30
1526905441295142,53,57,10,0,-2,4,7,10
1526905441308107,-14,-25,-13,-5,1,3,-1,11
1526905441308107,112,22,5,1,0,-6,-2,8
1526905441309105,47,2,-1,1,1,-14,-12,4
1526905441309105,2,-17,0,0,3,20,2,-4
1526905441331046,-63,49,5,1,-3,-3,5,-10
1526905441331046,61,-76,-4,-1,2,3,5,12
1526905441332044,-73,-51,-3,-3,-2,3,-12,-9
1526905441332044,15,-18,-6,0,-4,-13,5,10
1526905441353984,-2,-13,-1,-2,1,-2,-23,-12
1526905441353984,-44,16,-2,-1,-2,7,-4,-10
1526905441354982,34,-8,-1,-3,-2,-2,0,13
1526905441354982,6,-61,-6,-2,-3,-10,-2,-2
1526905441367947,11,9,-1,1,1,5,-6,-8
1526905441367947,-9,-34,-1,-2,-1,-1,6,16
1526905441368945,-20,-24,-9,-3,-1,-1,8,6
1526905441368945,-29,21,1,1,-1,1,-2,-6
1526905441390886,21,6,-2,-1,0,-1,-3,-13
1526905441390886,-39,42,3,1,2,-5,-6,-4
1526905441391883,53,-13,-1,3,1,-2,12,32
1526905441391883,-58,-6,1,1,3,5,-23,-20
1526905441413825,61,25,-12,-4,-5,0,4,12
1526905441413825,-7,8,5,0,1,-1,-7,3
1526905441414822,-27,38,1,0,-2,1,10,-9
1526905441414822,60,4,0,1,0,-14,0,2
1526905441428785,43,0,7,1,-3,7,-5,32
1526905441428785,-2,16,0,2,-1,-2,-15,-33
1526905441428785,-20,-27,-2,-3,0,-2,-4,-9
1526905441428785,4,-41,-2,-7,-7,9,12,0
1526905441450726,-67,48,5,-1,-1,-2,-5,-9
1526905441450726,33,14,0,9,12,6,27,29
1526905441451724,16,14,6,12,0,1,-2,0
1526905441451724,-24,2,2,9,8,7,-7,-15
1526905441473664,65,35,3,-4,-3,-8,-8,-13
1526905441473664,-26,50,5,-5,-7,0,-7,-11
1526905441474662,52,-51,-12,-7,-2,-7,-4,9
1526905441474662,39,15,-5,-5,-2,4,3,12
1526905441488625,-20,-48,-3,0,-3,-8,3,2
1526905441488625,-5,40,-3,-8,-7,-8,0,2
1526905441489622,-4,2,0,-5,0,11,-8,1
1526905441489622,1,-12,-5,-3,-4,3,7,1
1526905441510566,10,40,4,4,7,3,-12,-1
1526905441510566,46,-64,-11,-2,-2,-12,9,-14
1526905441511563,-61,48,2,0,-1,1,-2,-3
1526905441511563,-18,-90,-13,-3,-2,-8,-11,-4
1526905441534502,15,27,-1,-2,-5,-3,-1,8
1526905441534502,-68,13,6,-7,-2,-1,-10,-23
1526905441534502,75,-7,-2,11,2,-3,2,0
1526905441534502,5,24,2,-6,-1,-1,-13,-14
1526905441547467,-21,-59,-5,2,2,0,12,3
1526905441547467,-19,-21,-2,-4,-3,6,-1,19
1526905441555446,63,-66,0,-2,-4,-9,-3,3
1526905441555446,-43,31,0,-3,1,1,-8,0
1526905441570406,15,-104,-10,-5,-8,-45,-16,-1
1526905441570406,-8,18,1,0,1,24,3,1
1526905441571403,-63,8,1,-7,-3,9,11,-7
1526905441571403,56,-4,0,4,2,-2,-6,-3
1526905441594342,83,18,4,3,8,18,3,6
1526905441594342,56,12,-2,0,-3,-16,-3,4
1526905441595339,-89,36,-2,-9,-3,4,-6,-12
1526905441595339,45,37,4,6,-3,1,12,14
1526905441607307,-57,-47,-5,-3,-3,-13,-4,-9
1526905441607307,-10,-6,-1,-2,-2,-1,-11,-17
1526905441616283,0,39,4,2,-1,5,8,-2
1526905441616283,-12,18,4,-3,-1,-2,-3,1
1526905441631243,18,-12,-5,5,0,11,18,7
1526905441631243,6,29,7,7,-1,-7,-3,11
1526905441631243,-4,-27,-5,-5,1,-4,0,-1
1526905441631243,6,-40,-2,3,1,-2,4,1
1526905441654182,-19,-12,1,-1,-1,11,9,1
1526905441654182,32,12,1,-1,-2,-14,2,0
1526905441655179,6,17,-7,-7,-6,-12,-5,1
1526905441655179,22,29,2,-7,4,27,11,8
1526905441668144,13,-56,-3,15,6,-1,-1,-3
1526905441668144,-21,43,-1,-5,-6,-3,1,14
1526905441676123,-26,19,2,13,5,-1,6,-3
1526905441676123,21,13,-4,-9,-5,-11,-12,7
1526905441691083,-26,33,7,-4,-2,-16,15,-16
1526905441691083,-16,-3,-4,7,7,19,3,8
1526905441692081,-6,30,11,5,1,5,1,-8
1526905441692081,-115,-67,-4,4,-2,-8,-2,-19
1526905441713024,34,9,4,-5,-1,5,-3,0
1526905441713024,-9,25,-4,-7,-1,-14,-7,-10
1526905441714022,-27,-1,-1,-4,3,2,-5,-17
1526905441714022,50,16,11,14,5,14,15,13
1526905441727984,-70,-50,-12,-16,-4,-13,-28,6
1526905441727984,-8,-3,4,6,0,14,8,-8
1526905441735963,64,0,-4,-1,4,3,8,36
1526905441735963,-63,97,3,-3,-14,-34,-15,-17
1526905441750923,50,-21,2,6,4,28,16,8
1526905441750923,-19,-16,3,-6,5,-1,6,6
1526905441751921,-60,-64,0,8,-1,1,-9,-25
1526905441751921,82,11,-1,-6,-3,-7,-1,10
1526905441772864,-43,36,-8,-18,-9,-4,-9,-2
1526905441772864,-5,-48,-3,7,1,-2,4,0
1526905441773862,38,69,13,-2,-3,-5,-3,2
1526905441773862,-56,26,-2,0,-1,-2,2,0
1526905441787824,-12,30,3,2,-2,-4,-1,-12
1526905441787824,58,-31,-6,-4,2,5,-5,2
1526905441795803,32,47,2,-1,-3,-2,-4,14
1526905441795803,50,-13,0,0,-2,-12,4,-17
1526905441810763,-7,86,-2,-1,-3,-7,-15,-2
1526905441810763,65,-87,-17,-2,-4,-5,7,1
1526905441811761,15,29,-7,-2,-1,-2,16,-10
1526905441811761,15,-77,7,2,4,18,19,33
1526905441833702,-2,27,-3,-2,1,-4,-8,-34
1526905441833702,-3,17,-5,-2,-4,-2,-1,8
1526905441833702,-49,32,6,-4,-4,-3,-12,-17
1526905441833702,50,-37,-4,-9,-1,4,6,-2
1526905441847664,-74,54,5,5,-3,-4,0,-9
1526905441847664,30,-60,-6,-1,-1,2,1,16
1526905441855643,51,-31,1,1,0,4,3,10
1526905441855643,-76,-57,-9,-4,-1,-6,-16,-15
1526905441871600,71,-1,-3,0,-2,2,9,36
1526905441871600,-80,72,8,-4,-1,-12,-16,-38
1526905441871600,76,-100,-8,1,0,-23,-5,13
1526905441871600,22,-32,-4,4,4,27,2,-13
1526905441893542,5,-13,5,0,-1,-10,-6,15
1526905441893542,32,71,1,-4,-5,7,-2,2
1526905441894539,77,-33,-11,-7,-3,3,4,11
1526905441894539,-14,26,-2,3,2,-2,-4,2
1526905441916480,-34,12,-2,5,-2,-10,-8,-23
1526905441916480,68,-13,0,5,2,2,2,19
1526905441917478,-27,11,7,0,-4,-2,-11,-17
1526905441917478,-43,51,-6,-4,-4,-6,-10,-5
1526905441930443,-35,-27,-5,-4,0,6,6,2
1526905441930443,-46,28,6,2,1,-9,-1,-4
1526905441931440,-95,-53,3,-5,1,5,-4,1
1526905441931440,25,-6,-1,5,1,-2,4,1
1526905441953381,-8,-3,-3,-1,1,3,4,9
1526905441953381,-34,-20,-3,-1,-2,-1,0,-16
1526905441954379,9,40,3,-1,0,6,6,15
1526905441954379,-18,-36,4,-1,-3,-6,1,-16
1526905441976320,51,33,5,4,3,-1,-6,-28
1526905441976320,37,-32,-5,-1,0,1,4,34
1526905441977318,11,-20,-6,-3,-6,-2,0,-3
1526905441977318,-32,35,0,0,0,-5,-3,-5
1526905441991280,43,-114,-7,-2,-1,7,4,16
1526905441991280,-92,-31,1,2,0,0,0,-14
1526905441991280,16,22,-5,0,0,-3,-1,-16
1526905441991280,-29,59,4,3,0,-7,-5,7
1526905442013222,-15,-29,-8,0,3,0,-2,4
1526905442013222,-24,11,12,4,-2,13,-6,0
1526905442014219,62,-83,-5,-3,2,3,-10,20
1526905442014219,-22,34,10,0,-1,-10,13,-17
1526905442036160,26,36,-3,-3,-1,-2,-7,-3
1526905442036160,51,-98,-8,-2,0,-3,7,12
1526905442037158,-31,94,-1,-3,-2,1,-5,-12
1526905442037158,6,-27,-10,-5,1,0,-10,4
1526905442051120,4,24,1,-7,-4,-2,5,8
1526905442051120,-20,42,5,2,2,-3,0,-5
1526905442052118,1,10,-6,-1,-2,2,1,-18
1526905442052118,75,54,0,-3,-3,-6,-3,8
1526905442073061,-24,51,6,3,-1,-7,1,-9
1526905442073061,-14,6,-2,-5,-6,-2,-3,-4
1526905442074059,-56,-28,-7,-1,-5,-18,-6,-4
1526905442074059,20,51,3,-1,4,14,-3,4
1526905442096997,18,52,9,1,0,22,1,13
1526905442096997,-17,-24,-4,2,6,-6,22,-13
1526905442096997,-33,3,5,0,-6,-35,-27,3
1526905442096997,1,-57,-6,2,-3,18,8,9
1526905442110960,-28,-6,-2,-3,0,1,-5,-7
1526905442110960,-10,78,5,1,-1,-4,9,-7
1526905442111958,-13,-26,2,3,2,9,7,2
1526905442111958,71,9,-8,-6,-2,-8,-2,10
1526905442132902,-26,-43,1,5,-1,2,5,-16
1526905442132902,51,-25,-1,2,0,-2,-13,9
1526905442133899,11,-74,-6,-5,3,5,8,8
1526905442133899,-14,50,-1,-3,-2,-7,-6,-9
1526905442156838,51,-67,-7,-8,-2,-2,-1,11
1526905442156838,-75,30,1,-2,-2,-9,-9,-32
1526905442157835,24,-4,-5,0,-1,9,2,7
1526905442157835,-75,-46,-2,1,-3,-9,0,19
1526905442170800,-66,3,-7,1,-3,-13,1,3
1526905442170800,29,3,2,-2,-3,16,3,2
1526905442171798,-53,-23,0,1,-1,-29,-13,-11
1526905442171798,19,-28,-6,-4,-3,29,-10,-3
1526905442193739,-47,-22,-4,-1,1,-2,9,8
1526905442193739,-10,-4,-1,-2,-1,-4,-9,-4
1526905442193739,-12,0,2,0,3,15,16,10
1526905442193739,-5,61,0,-1,-4,-20,-5,-3
1526905442216677,12,13,1,-3,-1,0,-6,-2
1526905442216677,14,-41,-11,-5,-3,5,5,11
1526905442217675,-65,39,5,4,1,3,5,3
1526905442217675,-36,-21,1,1,1,-7,-6,-15
1526905442230640,-65,-18,-4,-3,-1,6,4,-7
1526905442230640,37,38,-3,-4,-4,-9,-18,-3
1526905442231638,77,-10,-6,1,1,1,21,11
1526905442231638,18,3,-4,-3,-2,-11,-15,-6
1526905442253579,16,-45,1,-4,-5,6,-2,-7
1526905442253579,10,-18,-2,5,3,-37,-21,9
1526905442254576,74,47,2,1,1,40,-3,24
1526905442254576,13,-31,2,-1,-1,6,7,-21
1526905442276518,44,12,-2,0,-1,-15,-6,-7
1526905442276518,27,-46,-6,-5,-4,-3,5,17
1526905442277515,-80,36,7,0,-2,8,-5,-26
1526905442277515,72,-35,-5,3,4,-3,10,21
1526905442290480,67,-13,-4,-1,-3,1,3,13
1526905442290480,-54,31,3,-1,0,6,-6,-33
1526905442291478,-15,-16,-2,-1,-4,-10,4,-7
1526905442291478,-21,-43,-2,0,-1,3,6,6
1526905442313419,-8,42,3,3,2,1,5,-2
1526905442313419,14,-79,-4,1,2,8,-8,4
1526905442314416,23,-37,-5,-2,-2,-5,15,-3
1526905442314416,-33,-45,-1,-1,-1,-5,-3,-2
1526905442336357,-5,8,-3,-3,1,-7,-7,-1
1526905442336357,-64,28,2,1,0,-18,21,-6
1526905442337355,22,17,3,4,2,33,7,-7
1526905442337355,-9,11,2,-2,-2,-5,1,5
1526905442351317,-15,-3,0,-2,-1,-5,-7,-28
1526905442351317,-19,13,0,-1,1,8,-2,10
1526905442351317,-34,2,-2,-2,-4,-8,-5,-28
1526905442351317,-32,58,-2,0,-3,-20,-11,9
1526905442373259,29,-2,3,3,-2,-4,1,8
1526905442373259,-52,76,7,-1,-3,16,-5,-16
1526905442374256,65,-1,-3,-1,0,-6,-9,3
1526905442374256,-28,45,2,3,2,9,4,-13
1526905442396197,-37,40,1,-3,-2,-10,-15,-9
1526905442396197,-23,-14,-5,-2,-3,-2,11,11
1526905442397195,-14,32,2,-1,2,4,-11,-3
1526905442397195,39,-70,-3,-8,-3,-24,11,16
1526905442411157,-18,11,3,9,4,21,30,-5
1526905442411157,29,9,1,-1,4,6,-3,6
1526905442411157,-31,-4,-3,8,1,-3,-8,4
1526905442411157,1,8,0,-2,-4,0,-14,-16
1526905442433099,18,-22,-2,-7,-5,-3,7,18
1526905442433099,31,-6,-4,-5,-1,0,-5,-1
1526905442434096,-32,47,3,-4,-1,-7,-1,11
1526905442434096,-28,-19,-1,-1,-1,20,14,-2
1526905442456037,33,13,1,-1,1,-11,-24,3
1526905442456037,3,-31,0,8,1,-2,3,-3
1526905442457035,-60,12,1,-3,0,-5,-1,0
1526905442457035,17,33,0,-2,-3,0,1,-12
1526905442470000,3,0,-1,-4,-1,12,-4,8
1526905442470000,5,-17,0,4,-2,3,6,2
1526905442477978,58,3,-2,-2,2,-2,0,6
1526905442477978,60,-7,0,4,4,2,-7,13
1526905442492939,-40,-12,1,-1,-1,-6,2,-9
1526905442492939,-10,31,4,-2,-3,1,2,-6
1526905442493936,23,-85,-7,1,0,-2,-8,-8
1526905442493936,-21,9,-1,-2,0,2,-8,2
1526905442516875,35,-20,1,2,3,-24,-1,8
1526905442516875,-31,-5,0,-2,-6,28,-5,-21
1526905442516875,33,-26,-6,-8,-8,-12,22,25
1526905442516875,-111,-79,-2,0,-2,-16,-16,-26
1526905442529840,10,-7,0,1,1,11,1,1
1526905442529840,-7,41,-5,-4,-1,-11,-1,-4
1526905442538816,-55,-28,-4,-9,-3,-5,-15,-22
1526905442538816,1,26,0,-4,-4,-1,5,-8
1526905442553776,-23,47,7,9,1,4,-9,-6
1526905442553776,-6,6,0,2,2,-6,-11,-1
1526905442553776,41,2,-3,1,-1,2,-4,2
1526905442553776,3,12,0,-4,-2,2,6,18
1526905442576715,-51,13,0,-4,-4,-11,-5,-16
1526905442576715,47,-21,-5,-2,0,11,10,-7
1526905442577712,32,-6,6,5,3,-3,-9,11
1526905442577712,-23,-8,-4,-2,2,4,-3,-8
1526905442590677,0,-7,1,3,-1,1,8,-4
1526905442590677,-23,9,0,2,2,-17,-12,12
1526905442598656,2,18,0,6,-4,21,7,-13
1526905442598656,69,-29,-2,3,-2,-4,1,9
1526905442613616,23,-7,-12,1,0,12,-4,3
1526905442613616,-42,18,2,-3,-1,-12,20,-11
1526905442614613,70,33,-3,-3,3,-2,-6,7
1526905442614613,-27,44,3,2,-1,-8,-6,-1
1526905442636555,5,-30,-17,-14,-6,7,12,-9
1526905442636555,20,-9,1,-5,-4,-4,-7,-1
1526905442637552,-17,29,8,1,-2,-7,-6,-8
1526905442637552,40,24,-5,-3,1,5,4,0
1526905442650517,-18,5,6,2,2,-4,0,6
1526905442650517,-3,-48,-3,2,2,5,-7,8
1526905442658496,-42,67,8,0,-3,-12,6,-7
1526905442658496,17,-78,0,3,1,3,2,2
1526905442673456,-41,-6,4,-11,-2,-2,-5,-8
1526905442673456,50,23,7,8,1,10,0,4
1526905442674454,36,15,2,-1,1,-12,-12,5
1526905442674454,17,-32,-2,4,-3,1,3,3
1526905442696394,78,-9,-2,-2,0,-4,14,4
1526905442696394,-21,-28,-3,-7,-2,-21,-21,19
1526905442697392,1,8,-7,-4,5,36,14,0
1526905442697392,-11,41,0,-1,-2,-15,-8,-11
1526905442710357,14,10,5,0,0,16,1,2
1526905442710357,-58,-39,-7,-2,-2,-10,6,6
1526905442718336,48,-75,-12,-5,-4,-7,-1,10
1526905442718336,-38,18,-1,-2,1,4,0,7
1526905442733296,42,-98,-3,3,0,-5,-8,-9
1526905442733296,75,99,2,3,0,2,9,7
1526905442734293,-37,-33,4,-4,2,-2,-2,-12
1526905442734293,-9,-5,0,-1,-2,6,8,4
1526905442756235,-30,52,6,0,-1,-8,-7,-12
1526905442756235,61,-83,-7,-1,-2,0,6,1
1526905442757232,40,-6,-5,-6,-2,-2,-1,-2
1526905442757232,-40,40,3,-5,-3,1,-7,4
1526905442770197,-46,-62,-2,2,1,-4,4,6
1526905442770197,-85,35,1,1,-2,-4,-18,-50
1526905442778176,-16,30,-2,3,0,-2,1,11
1526905442778176,13,21,-1,1,0,1,-8,-10
1526905442793136,38,23,-2,0,-2,3,-1,11
1526905442793136,-57,-14,3,-2,-2,2,4,-3
1526905442794134,-36,-31,-7,-2,-2,-9,-4,-4
1526905442794134,-61,27,-3,-2,-3,-5,-3,-12
1526905442816074,-10,5,7,-12,0,3,1,7
1526905442816074,1,13,1,7,1,-9,-9,-2
1526905442817072,-55,-80,-3,-1,-3,7,6,0
1526905442817072,4,-45,4,-1,3,-20,-8,-4
1526905442839013,-10,25,-3,3,3,26,9,5
1526905442839013,-42,-1,2,-2,-3,0,-6,-10
1526905442840011,45,13,-1,-1,-3,-4,-5,-11
1526905442840011,62,4,0,0,2,2,10,9
1526905442852976,-36,-2,0,3,0,-11,-11,-2
1526905442852976,42,0,-5,1,2,12,5,12
1526905442853973,-41,51,0,0,-5,-20,-4,-12
1526905442853973,127,-57,-6,0,-1,7,8,17
1526905442875915,-84,54,-3,0,-3,-9,-7,-9
1526905442875915,74,-23,2,-3,-3,2,2,0
1526905442876912,24,47,3,1,-1,-1,-4,-5
1526905442876912,-66,-19,-2,-5,0,-1,-5,-4
1526905442898853,-16,-35,-4,2,-2,0,-2,-12
1526905442898853,76,12,-7,-4,-2,-17,5,2
1526905442899851,12,-80,-3,0,3,16,6,18
1526905442899851,-77,63,6,-9,-8,-17,13,-25
1526905442913813,102,23,4,10,5,18,-2,17
1526905442913813,-1,-9,-17,-10,-9,-7,0,-14
1526905442913813,29,49,8,5,4,6,6,10
1526905442913813,64,14,-4,-1,0,3,-21,10
1526905442935754,-20,9,-3,-3,-1,-2,10,9
1526905442935754,-12,10,5,3,1,5,-1,7
1526905442936752,-13,-31,-6,-1,-2,7,-6,0
1526905442936752,-43,74,2,5,-3,-16,-12,3
1526905442958693,90,-41,-11,-5,-5,-15,-4,2
1526905442958693,17,6,7,2,3,8,-2,-1
1526905442959691,-49,2,0,-4,0,-8,-15,-10
1526905442959691,40,3,-7,-2,1,10,9,-5
1526905442973653,80,-26,1,4,1,-14,-21,1
1526905442973653,40,-14,-1,-4,-2,-9,-5,5
1526905442974651,-25,36,1,-1,1,4,5,-5
1526905442974651,20,-10,8,1,0,9,1,3
1526905442995594,-81,-58,-6,-1,0,5,11,-10
1526905442995594,75,63,-1,-3,-1,-1,-2,21
1526905442996592,-17,-13,3,0,2,-4,-5,-22
1526905442996592,-33,-66,-6,1,-3,-7,-1,-10
1526905443019530,8,52,-2,-5,3,12,7,8
1526905443019530,-28,35,5,-2,-2,0,-1,-4
1526905443019530,-6,-33,-3,2,-3,-5,2,6
1526905443019530,-17,10,4,5,7,-5,0,3
1526905443033493,-62,3,-4,-4,-9,4,11,-24
1526905443033493,-63,-34,-1,3,4,18,8,3
1526905443034491,28,52,-1,-4,-6,-14,-11,-4
1526905443034491,7,16,-1,-1,-1,1,1,-3
1526905443055434,13,-52,2,2,0,-7,-2,12
1526905443055434,76,3,1,-3,-1,-3,-4,8
1526905443056432,-10,-20,0,1,-4,5,2,-16
1526905443056432,-12,56,7,1,0,13,2,-8
1526905443079370,49,-83,-7,-3,1,-8,-17,7
1526905443079370,-49,-26,-4,-1,0,-5,7,-3
1526905443079370,13,-7,-3,-1,-2,-7,-2,10
1526905443079370,-26,-34,-5,-1,-2,1,6,-2
1526905443093333,-34,-2,5,-2,-1,-1,2,-12
1526905443093333,9,-8,1,2,4,3,-1,20
1526905443094331,-73,93,4,-3,-5,-6,2,-5
1526905443094331,-3,-44,-2,-2,1,12,3,8
1526905443116271,22,24,4,2,0,-2,-2,9
1526905443116271,-98,-45,-5,-1,-3,-3,9,-23
1526905443116271,7,-7,-9,-5,-3,-23,-27,3
1526905443116271,62,45,-4,-1,2,24,-2,7
1526905443139210,25,11,-3,-3,-2,-12,-16,-12
1526905443139210,-1,59,6,2,-1,1,7,1
1526905443140208,16,-26,-8,-4,-2,7,4,5
1526905443140208,89,-97,-15,-5,-4,-19,-5,3
1526905443153173,-28,69,5,2,1,-2,1,3
1526905443153173,-2,11,4,2,1,-2,-5,-10
1526905443154171,15,-31,2,-1,-1,-1,4,-11
1526905443154171,-87,17,2,0,-1,-1,-4,-3
1526905443176112,0,23,-3,-5,-7,-11,2,-7
1526905443176112,44,-31,-2,-1,-3,-5,-6,-2
1526905443177109,-1,-12,4,2,3,6,4,7
1526905443177109,-25,21,-1,-4,-6,-9,-13,-24
1526905443199050,10,-20,0,2,1,-10,1,12
1526905443199050,5,-20,-1,0,8,25,-7,-2
1526905443200048,62,-70,-2,0,2,0,11,0
1526905443200048,9,28,2,0,-2,7,6,27
1526905443213013,-37,9,-1,-4,0,-24,-8,-10
1526905443213013,27,38,-3,-4,-5,-4,-3,-6
1526905443214011,-37,-37,-4,2,1,12,10,11
1526905443214011,5,16,1,4,3,-11,2,-3
1526905443235951,12,-59,-2,0,-4,12,10,6
1526905443235951,-22,31,-2,-3,-4,-2,4,5
1526905443236949,-66,36,4,2,0,-3,-8,-6
1526905443236949,12,-21,-4,-3,-3,-2,-3,-22
1526905443258890,46,24,0,-4,0,12,-7,7
1526905443258890,22,-3,-1,-5,0,-13,9,-3
1526905443259888,-16,8,3,0,-1,-8,2,0
1526905443259888,22,-75,-5,-2,1,15,4,2
1526905443273850,-60,21,-2,0,-1,-5,3,-1
1526905443273850,-11,-4,-6,-1,-1,2,5,-8
1526905443273850,104,-13,-4,-1,-1,-7,-3,-1
1526905443273850,-62,-29,6,2,1,2,-13,-8
1526905443295792,64,-2,3,1,-1,3,14,0
1526905443295792,-30,-50,3,1,-3,-4,-5,2
1526905443296789,-19,78,0,-7,-3,12,-4,7
1526905443296789,40,-31,-1,-1,0,-10,1,13
1526905443318730,-4,3,-5,-1,-2,-11,-32,-22
1526905443318730,37,-80,-5,0,-6,-9,-4,3
1526905443319728,-17,23,1,-2,-4,6,-1,-12
1526905443319728,-61,42,6,2,2,1,-2,-4
1526905443333690,-55,31,3,3,2,9,1,-14
1526905443333690,-1,-9,-8,-2,0,-13,-1,6
1526905443333690,17,1,0,0,3,2,5,3
1526905443333690,83,-4,-6,-5,-9,-12,3,14
1526905443355632,-32,24,2,-2,-1,6,0,-2
1526905443355632,-37,34,2,5,4,11,6,2
1526905443356629,-45,-35,-6,1,-2,-2,-3,-3
1526905443356629,18,18,-1,3,3,7,-3,2
1526905443378570,10,8,0,0,-5,-14,20,9
1526905443378570,-27,22,0,1,3,16,1,-1
1526905443379567,34,-107,-5,-2,0,-11,-8,6
1526905443379567,-7,17,-3,-8,-5,-11,-21,-1
1526905443393530,-1,-23,-3,-2,-6,-3,-1,-13
1526905443393530,-7,18,0,-1,-1,0,-6,-7
1526905443394528,43,26,4,0,-1,-1,6,-6
1526905443394528,-17,8,-4,-1,-2,5,6,-2
1526905443415471,60,61,-9,-7,-2,2,-9,8
1526905443415471,69,23,1,-3,-3,-15,-21,-4
1526905443416469,9,29,1,-1,3,-2,3,8
1526905443416469,-28,38,4,-2,-6,-5,5,-3
1526905443439407,-37,30,8,1,4,9,14,15
1526905443439407,12,-12,7,7,2,4,0,-9
1526905443439407,-64,41,-1,-1,-3,-4,-6,-8
1526905443439407,14,3,-7,-2,0,-3,4,7
1526905443452373,52,-33,-3,-2,0,2,-6,6
1526905443452373,69,13,-7,-8,-4,-8,9,-5
1526905443461349,34,27,8,7,0,-4,4,9
1526905443461349,6,-55,-1,4,-2,-10,6,2
1526905443476309,25,13,6,6,6,17,3,15
1526905443476309,-57,-59,-11,-7,-3,3,4,-2
1526905443476309,16,-44,-4,-4,-3,-4,8,12
1526905443476309,59,33,-1,-9,-2,19,1,11
1526905443499247,-43,-29,-6,4,3,-14,-7,-10
1526905443499247,-119,30,5,5,-2,-6,-10,-13
1526905443500245,50,-50,-4,2,-1,5,5,3
1526905443500245,-25,-56,-2,-2,-1,-19,-10,-10
1526905443512213,-72,-11,-1,1,2,25,12,-2
1526905443512213,49,-15,0,-4,-2,-12,-22,-3
1526905443521189,-76,-53,3,-2,2,0,-13,-10
1526905443521189,7,6,4,3,0,-5,-5,-2
1526905443536149,-36,-15,12,-1,0,-5,-1,-6
1526905443536149,55,31,-4,-2,-1,5,10,5
1526905443537147,12,55,-4,-6,-2,0,3,3
1526905443537147,-82,-1,10,7,2,6,-1,-17
1526905443558090,11,-12,-10,2,-5,-7,3,-6
1526905443558090,0,-88,-6,2,-3,-36,-6,10
1526905443559088,71,-88,-24,-5,-1,40,9,4
1526905443559088,-9,78,14,6,5,-7,3,4
1526905443573050,-15,-76,-9,1,3,18,-11,-11
1526905443573050,-70,51,4,-1,-3,-15,6,9
1526905443581029,76,2,0,-12,-2,11,0,5
1526905443581029,-2,-71,-5,13,1,-8,2,-7
1526905443595989,123,-33,-6,17,8,-5,4,2
1526905443595989,-62,57,-5,-12,-10,0,-16,-15
1526905443596986,-75,27,2,9,5,-6,-2,-1
1526905443596986,48,16,0,-10,-5,12,-3,-4
1526905443618927,73,66,2,-11,-10,-27,-4,12
1526905443618927,-23,-46,2,4,2,15,2,-5
1526905443619925,17,42,3,1,-3,-11,6,0
1526905443619925,37,-40,-12,-8,-1,-2,-3,5
1526905443632890,-87,-42,-6,-4,-5,1,2,11
1526905443632890,47,3,6,6,9,13,12,18
1526905443640869,9,-48,-12,-4,-6,-7,-1,-2
1526905443640869,-72,-61,0,1,2,-7,1,1
1526905443655829,10,48,2,-1,1,10,6,10
1526905443655829,59,-46,1,-1,-1,16,11,18
1526905443656826,42,59,3,8,3,-30,-20,15
1526905443656826,-81,104,-3,2,4,32,9,-33
1526905443678767,-54,46,17,-3,-4,-9,-16,-14
1526905443678767,-11,14,4,3,2,4,12,9
1526905443679765,-89,36,-5,4,-1,-29,0,1
1526905443679765,12,-49,-7,-8,-1,18,-7,-25
1526905443692730,39,-8,0,-13,1,-3,-6,-1
1526905443692730,-17,35,0,9,1,8,-19,-26
1526905443700709,40,-72,-1,-5,-2,0,5,-1
1526905443700709,-9,-51,5,10,2,-4,5,21
1526905443715668,31,-21,-14,-9,-5,-1,3,4
1526905443715668,-59,-12,0,-4,-1,-12,-14,-12
1526905443716666,51,-6,-9,-4,0,10,3,9
1526905443716666,-2,25,13,1,-4,-9,1,6
1526905443738607,-67,76,-3,-2,-6,-15,-20,-31
1526905443738607,-51,55,4,-2,3,7,17,25
1526905443739605,-83,43,12,0,-4,4,-4,-4
1526905443739605,40,77,5,-2,-1,-10,-1,10
1526905443752570,18,-48,-9,-1,-3,9,-6,-9
1526905443752570,-16,-9,6,1,-6,-17,23,-11
1526905443760549,-69,18,9,1,6,18,-10,-25
1526905443760549,23,-42,-2,-2,-1,-5,7,15
1526905443775509,87,-104,-13,-8,-8,-6,2,-18
1526905443775509,-7,-12,-2,-1,4,2,-12,-1
1526905443776506,65,-126,-12,-5,-3,-4,12,13
1526905443776506,35,17,3,3,4,5,6,13
1526905443799445,17,20,9,3,-1,-3,-1,-21
1526905443799445,14,-7,1,4,2,14,2,21
1526905443799445,-2,-61,-2,0,-1,-8,-1,-4
1526905443799445,51,-97,-15,-2,0,4,1,19
1526905443821386,-17,100,1,0,-1,-4,6,3
1526905443821386,84,-73,-4,-3,1,2,-5,21
1526905443822384,-74,91,6,0,-5,-11,-18,-67
1526905443822384,90,-33,-16,-2,1,2,14,50
1526905443836346,38,-3,-1,0,0,-4,-2,-9
1526905443836346,7,55,-6,-9,-9,-33,-21,-28
1526905443836346,50,-36,4,0,-4,13,32,31
1526905443836346,-103,87,-7,-8,-5,9,-15,-30
1526905443859284,74,-29,-6,2,-1,1,9,13
1526905443859284,60,83,11,6,6,-6,-1,0
1526905443860282,-24,34,5,-4,-3,-2,-3,2
1526905443860282,40,-66,-3,-4,-2,-4,-6,24
1526905443881226,-28,-128,-22,-2,2,-14,-6,29
1526905443881226,-7,7,-9,-4,-3,18,-2,-17
1526905443882223,9,108,9,5,3,1,23,6
1526905443882223,13,116,-5,-6,-6,-22,-45,-37
1526905443896186,85,-52,11,9,8,47,13,48
1526905443896186,-34,-99,-16,-9,-9,-23,-15,-37
1526905443896186,103,-9,-8,-2,1,1,-17,-8
1526905443896186,19,-11,-6,-5,-3,-3,12,27
1526905443919125,-124,80,10,4,-1,-13,-6,-17
1526905443919125,-97,-34,-6,-2,-4,6,-1,-4
1526905443920122,0,8,-4,-2,0,5,4,12
1526905443920122,-80,2,9,3,0,-30,-22,-57
1526905443941066,-85,-54,-2,-4,2,14,16,-14
1526905443941066,102,-94,-3,0,1,13,9,31
1526905443942063,-94,53,3,-3,-3,-10,-18,-22
1526905443942063,-46,-90,-5,-2,1,6,16,27
1526905443956026,-50,-3,-5,-4,-5,-11,-13,-41
1526905443956026,-65,98,28,12,8,8,2,-16
1526905443957023,118,54,0,-3,-6,-3,12,88
1526905443957023,57,74,-2,-3,0,3,4,-6
1526905443977967,-76,-7,17,11,9,6,9,30
1526905443977967,-24,-36,-14,-12,-10,-44,-41,-10
1526905443978965,-88,-15,3,0,0,28,14,-33
1526905443978965,6,102,9,8,0,-7,1,-35
1526905444001903,112,27,-1,5,4,10,19,53
1526905444001903,18,67,-8,-3,-1,0,-3,-1
1526905444001903,81,1,-5,-4,-3,-27,-25,3
1526905444001903,-30,23,-5,-7,-7,21,-9,-32
1526905444015866,-57,40,-1,-1,0,-8,-10,-20
1526905444015866,26,-83,-5,-1,-2,13,22,24
1526905444016863,-31,12,1,-2,0,-2,-5,-8
1526905444016863,-72,-94,-2,2,2,4,-2,-8
1526905444038804,-77,51,10,1,-1,-11,-22,-36
1526905444038804,127,-14,-6,1,2,18,14,23
1526905444038804,-128,-12,-1,-3,-3,-6,-7,-37
1526905444038804,5,1,5,0,3,-9,-3,21
1526905444061743,-85,20,1,-3,-3,-1,0,-2
1526905444061743,36,-14,-2,-4,-3,0,3,9
1526905444062741,-43,-15,1,3,3,2,5,-9
1526905444062741,50,35,7,2,0,-5,6,6
1526905444075706,8,-53,-17,-4,-2,13,6,21
1526905444075706,-43,78,0,2,4,-3,15,-19
1526905444076703,77,-46,-14,-4,-4,-17,-6,12
1526905444076703,94,4,-1,-1,-3,26,18,33
1526905444098644,-62,89,7,-4,-6,-17,-10,-17
1526905444098644,-11,19,-4,-1,-1,-20,-5,29
1526905444099642,-41,-6,3,1,5,23,17,-11
1526905444099642,79,43,1,-3,-1,-8,-7,-1
1526905444121583,27,-30,-1,-2,-3,-2,11,-4
1526905444121583,-17,93,7,3,0,-2,-14,-35
1526905444122581,44,30,9,4,3,-4,-5,16
1526905444122581,-83,14,-1,-3,-3,2,0,-3
1526905444135546,65,11,-2,-1,-1,-6,-2,9
1526905444135546,-50,-13,0,-1,-1,10,6,2
1526905444136543,-64,-44,-7,-4,-1,-4,-19,-21
1526905444136543,-9,32,4,2,0,-6,4,9
1526905444158484,24,15,-8,-4,3,11,-2,6
1526905444158484,99,-10,-1,3,0,-14,0,-3
1526905444159482,-42,10,6,-3,-3,0,-21,-25
1526905444159482,-108,7,-6,-4,-3,7,0,-28
1526905444181423,12,45,7,6,2,-16,3,-7
1526905444181423,-29,-5,2,2,2,18,-3,-7
1526905444182421,85,-42,-4,1,2,4,17,36
1526905444182421,10,-70,-10,-11,1,-11,-13,0
1526905444195386,-15,35,4,-3,-10,-2,0,-11
1526905444195386,-71,45,4,-3,-2,-1,2,-6
1526905444196383,39,22,7,3,0,-1,0,0
1526905444196383,-74,57,5,0,0,5,14,4
1526905444218324,74,-11,-4,1,3,5,1,18
1526905444218324,-56,-31,-3,-4,-7,-2,-5,-24
1526905444219322,43,49,-4,-2,-3,-33,-14,4
1526905444219322,76,21,11,8,4,49,7,-2
1526905444241263,74,19,2,-2,1,-10,-31,-2
1526905444241263,-40,45,5,3,-3,-26,32,8
1526905444242261,37,-45,-2,0,7,39,6,12
1526905444242261,-14,-57,-5,1,-3,-35,4,-3
1526905444256223,-30,45,2,1,-4,-9,-16,1
1526905444256223,-4,-55,-5,-3,0,6,1,4
1526905444256223,-65,-9,-3,-2,-2,-6,-8,2
1526905444256223,-61,-9,-2,-2,-1,-7,3,1
1526905444278164,-82,-5,2,-3,0,2,-1,-7
1526905444278164,12,-6,-3,1,0,5,-6,-2
1526905444279162,-104,36,-3,1,-3,2,8,-8
1526905444279162,-18,-3,2,0,0,-1,-9,-11
1526905444301103,80,-31,-8,-8,-7,-21,1,-7
1526905444301103,24,31,2,0,3,26,1,10
1526905444302100,-57,3,3,-2,0,-3,1,-16
1526905444302100,-25,26,-5,2,3,4,1,-7
1526905444315066,-39,-51,1,3,2,5,18,-2
1526905444315066,40,25,-3,-1,-4,-4,-20,-1
1526905444323044,16,-68,-11,1,-1,1,-4,8
1526905444323044,59,12,5,0,-6,-39,-3,2
1526905444338004,21,0,-3,-5,0,15,-5,-6
1526905444338004,-7,-43,-9,-4,-4,18,10,2
1526905444339002,22,6,-1,-10,-8,-5,-6,-14
1526905444339002,100,-37,-1,9,1,-7,-3,-10
1526905444361940,-3,-23,0,-5,-4,-15,-4,11
1526905444361940,7,51,1,-3,-1,-4,15,-2
1526905444361940,-23,33,0,3,2,12,0,-9
1526905444361940,-52,41,-2,-6,-4,4,-6,0
1526905444374906,-61,-31,-6,-2,-3,-4,1,7
1526905444374906,13,72,6,2,1,4,-4,-4
1526905444383882,41,-19,3,1,3,4,9,30
1526905444383882,75,7,-13,-8,-5,3,15,4
1526905444398842,-20,-81,-6,-1,-1,-6,1,-8
1526905444398842,75,-44,5,3,-1,-17,-18,-1
1526905444398842,26,-54,-18,-6,-2,20,6,-2
1526905444398842,74,50,6,0,-1,1,-1,14
1526905444421780,-22,-11,-4,-1,-2,3,1,1
1526905444421780,-26,-36,-6,-2,-2,-2,0,8
1526905444422778,-60,10,5,0,-3,-16,-9,-21
1526905444422778,45,28,-2,2,2,7,-1,22
1526905444434745,61,66,-6,-5,-2,4,13,-13
1526905444434745,-100,23,22,8,0,-7,-20,-11
1526905444443722,103,-41,-7,2,3,13,3,14
1526905444443722,-51,-26,6,0,-5,-8,-7,-7
1526905444458681,18,-15,2,6,2,1,3,19
1526905444458681,-49,6,-8,-5,-5,-2,2,-8
1526905444459679,-15,119,7,-4,-2,-13,-14,-27
1526905444459679,80,-106,-11,11,7,12,11,45
1526905444481620,-30,45,-6,-5,-5,-7,-10,-29
1526905444481620,7,-24,5,3,4,-7,7,8
1526905444482618,16,-35,1,-1,-2,15,-25,11
1526905444482618,-19,-68,-18,-19,-12,-23,-15,-38
1526905444495583,18,76,8,4,3,0,7,10
1526905444495583,1,28,1,1,6,16,4,15
1526905444503562,-64,-93,-11,0,-4,-20,3,7
1526905444503562,-45,57,6,2,0,-1,-3,-17
1526905444518522,99,11,-2,0,0,11,1,-8
1526905444518522,-25,-104,-9,-8,-4,-9,-11,-8
1526905444519519,-29,62,13,4,1,-6,10,10
1526905444519519,-71,14,-3,-2,-1,-2,-6,-33
1526905444541460,-20,0,6,-1,-2,4,0,7
1526905444541460,-42,-30,2,8,3,10,8,-6
1526905444542458,51,82,8,-5,1,-4,7,2
1526905444542458,-20,-77,-10,5,-1,4,3,13
1526905444555423,-21,0,1,0,3,-1,0,1
1526905444555423,7,5,-7,0,-3,-2,-3,-10
1526905444563401,-11,36,-1,0,-4,-10,2,-2
1526905444563401,13,-17,2,-5,1,4,-14,1
1526905444578361,16,-16,3,0,-3,3,29,17
1526905444578361,3,-44,-12,-8,-4,-9,-9,-3
1526905444579359,-28,-11,-3,0,1,-10,4,-12
1526905444579359,52,-37,-1,-1,0,13,-9,1
1526905444601300,-30,-7,2,4,0,-3,12,-1
1526905444601300,103,13,-6,-6,-1,7,-4,-3
1526905444602298,65,-55,-7,2,-2,-3,3,20
1526905444602298,-34,17,4,0,-4,-19,-7,-23
1526905444615263,30,-10,2,0,0,10,0,10
1526905444615263,127,-10,-6,1,-1,3,4,7
1526905444623242,-73,40,-2,-2,-6,-11,-13,-32
1526905444623242,-35,-11,-2,-2,3,7,16,12
1526905444638202,13,-87,-5,-1,-1,-3,-11,-3
1526905444638202,16,6,-3,-5,-2,-6,0,-9
1526905444639199,-40,55,5,2,-1,-1,-6,4
1526905444639199,12,-40,0,-1,3,7,14,24
1526905444661140,-25,31,-10,-7,-8,-16,-7,-29
1526905444661140,-32,-50,2,-8,1,4,4,8
1526905444662138,17,-6,1,12,2,7,4,7
1526905444662138,-30,-19,-3,-4,2,4,-4,-1
1526905444675103,22,5,7,8,-7,-49,-13,-6
1526905444675103,-103,-27,-7,-6,-1,43,9,3
1526905444683081,63,5,3,-1,2,3,2,-7
1526905444683081,-54,21,4,0,-2,-25,-17,-4
1526905444698041,-10,1,-5,-2,4,13,-9,12
1526905444698041,15,-18,-6,1,-5,-14,-4,-17
1526905444699039,-31,-37,4,-6,-2,-4,-5,6
1526905444699039,65,28,-2,2,-2,1,7,2
1526905444721977,-8,-19,-3,-2,2,16,-8,-1
1526905444721977,-34,103,10,2,-2,-21,-14,-7
1526905444721977,30,-38,-12,-3,-1,5,6,6
1526905444721977,-42,24,5,-2,-2,5,12,-10
1526905444743919,-5,25,-2,0,0,3,-7,-9
1526905444743919,-32,54,8,4,4,8,7,16
1526905444744916,-62,-9,-1,-2,-2,-12,-9,-9
1526905444744916,-34,45,9,3,1,7,4,-1
1526905444757881,8,-87,-17,-6,-4,1,-1,4
1526905444757881,-15,30,-2,-2,-1,-3,-3,-6
1526905444758879,2,11,4,5,-3,-4,-1,-3
1526905444758879,31,53,4,2,-2,-2,-6,-13
1526905444781817,-42,10,-2,1,4,5,0,8
1526905444781817,53,-9,5,5,3,-19,-1,-3
1526905444782815,54,-2,5,-4,-2,25,-4,15
1526905444782815,5,21,-5,-3,-3,-9,6,1
1526905444803759,55,0,-2,-1,1,-3,-2,-5
1526905444803759,-97,-32,2,-7,-4,-10,6,-8
1526905444804756,87,36,-2,7,6,7,-18,-11
1526905444804756,-36,-17,-6,-6,-8,-5,19,8
1526905444818719,-15,65,10,3,2,9,-8,-5
1526905444818719,107,-128,-27,-6,-3,-2,-1,20
1526905444819716,-19,14,-6,-9,-7,-19,8,-25
1526905444819716,-14,10,-3,-2,-1,3,-9,-4
1526905444841657,45,-75,-10,-2,1,-1,8,20
1526905444841657,-49,54,4,-2,-6,-5,-7,-27
1526905444842655,-13,-70,1,2,4,3,8,5
1526905444842655,16,-106,-6,-1,2,-6,-31,1
1526905444863598,-56,17,8,-1,-4,-11,10,-6
1526905444863598,-24,36,2,1,-1,-3,-3,13
1526905444864596,43,45,-1,-4,-1,5,3,-4
1526905444864596,-62,-2,-2,5,3,-8,1,5
1526905444878559,-28,74,0,-5,-6,10,-6,-21
1526905444878559,25,0,10,9,2,-1,5,27
1526905444879556,-33,23,-2,-2,-2,-21,0,0
1526905444879556,25,77,6,-2,1,24,2,-9
1526905444901497,51,-54,-2,-2,-1,-5,6,-11
1526905444901497,-22,-5,-5,-2,-1,10,6,-4
1526905444902495,30,7,-3,-2,-1,-3,-1,10
1526905444902495,-19,41,1,-3,0,1,0,-11
1526905444924436,-78,-9,-3,-1,-1,-3,-6,-5
1526905444924436,-19,57,5,-1,-1,5,-1,-3
1526905444924436,-36,-48,-7,0,2,0,-7,-17
1526905444924436,-20,-17,3,-1,3,-2,6,19
1526905444938399,-65,25,-2,-2,-1,-5,-4,-5
1526905444938399,-1,-1,-1,-3,-2,6,-10,-2
1526905444939396,-27,24,5,1,3,4,11,17
1526905444939396,41,-24,-3,0,-1,-31,-16,-6
1526905444961337,-40,7,3,4,7,30,1,-18
1526905444961337,9,-36,-6,-1,-1,-6,-20,-3
1526905444962335,24,-127,-8,-2,-1,1,9,13
1526905444962335,95,-79,-16,-5,-4,1,-1,-14
1526905444984276,48,13,2,5,1,-3,0,25
1526905444984276,-28,52,0,1,0,0,-12,-10
1526905444985274,58,-31,-2,1,0,0,7,6
1526905444985274,-59,23,-1,-3,-4,-8,-4,-14
1526905444998239,37,4,-1,-2,-3,-6,-2,-3
1526905444998239,18,-2,-1,-1,3,12,13,-1
1526905444999236,0,67,2,-1,-3,-18,-19,2
1526905444999236,-12,-30,1,0,-1,10,29,7
1526905445021177,9,4,-1,-2,-5,-4,-2,11
1526905445021177,9,-22,2,-1,3,-1,-3,-21
1526905445022175,-36,71,6,-1,2,11,2,1
1526905445022175,2,-27,-8,4,-1,0,-14,-4
1526905445044116,-32,37,5,1,0,1,3,-6
1526905445044116,-16,-11,4,1,-4,-8,3,-8
1526905445045114,-5,14,-9,-8,-3,-8,-2,5
1526905445045114,-17,35,8,-2,-2,28,-5,10
1526905445058079,57,43,4,-1,-2,-12,7,5
1526905445058079,7,8,-7,-3,0,11,-11,-15
1526905445059076,12,56,6,-7,-9,-4,20,-5
1526905445059076,5,-10,-2,4,3,-14,-11,10
1526905445082015,96,-57,-2,-1,-4,14,9,13
1526905445082015,35,6,0,-4,-3,-15,-8,2
1526905445082015,-13,-17,-2,0,0,4,-2,-6
1526905445082015,29,29,7,1,0,-6,-2,12
1526905445103956,-81,-7,-3,1,3,1,-2,-4
1526905445103956,51,35,-7,-4,-1,-6,-2,19
1526905445104953,-22,-34,0,3,0,5,-6,-3
1526905445104953,48,-67,-7,-6,-3,-3,2,-1
1526905445117919,-52,22,0,-1,-2,-20,-20,-3
1526905445117919,-47,-5,-5,-1,0,21,18,10
1526905445118916,17,-43,-2,4,0,-4,-5,13
1526905445118916,-25,23,1,-3,-3,0,-11,-15
1526905445140857,-28,-4,-1,-11,-2,-37,-6,3
1526905445140857,51,14,5,17,5,25,-10,9
1526905445141855,-79,11,0,-3,-3,0,-2,-14
1526905445141855,-15,-4,-2,-1,-3,3,16,1
1526905445163796,-33,-7,5,3,2,-12,-24,-14
1526905445163796,60,-85,-1,-2,-3,-9,3,7
1526905445164793,-59,-3,-5,-1,-2,-1,-8,-26
1526905445164793,50,13,4,4,4,3,7,45
1526905445178756,-31,10,2,-1,-2,12,0,-20
1526905445178756,14,98,5,-1,2,0,8,13
1526905445178756,66,-63,-4,-3,-6,-6,6,6
1526905445178756,3,-21,-3,-4,-3,-7,-2,-9
1526905445200697,25,48,3,2,2,12,3,-2
1526905445200697,-8,59,6,-2,-1,-10,6,-7
1526905445201695,-23,-65,-12,-1,-2,-16,-7,-7
1526905445201695,-1,59,1,-4,-2,24,-16,-9
1526905445223636,46,-6,-8,-3,-4,-6,-9,1
1526905445223636,-14,8,4,2,-1,-2,-1,10
1526905445224633,-3,47,2,-1,-4,-9,18,-21
1526905445224633,64,85,3,-1,2,9,1,-8
1526905445238596,42,-21,3,8,3,9,8,9
1526905445238596,-66,-49,-5,-5,2,-6,2,-4
1526905445239593,-51,106,9,-1,1,5,-14,-24
1526905445239593,14,27,-11,-5,-3,2,1,10
1526905445260537,59,13,5,2,-3,-15,4,0
1526905445260537,-113,-28,0,-4,-3,-5,-3,-19
1526905445261535,26,20,7,14,5,8,2,15
1526905445261535,-108,-13,7,6,4,-5,6,-20
1526905445284473,2,-52,1,-8,-1,6,0,-6
1526905445284473,30,18,-9,-3,-13,-16,-6,-3
1526905445284473,-87,10,-3,-7,-1,1,-14,-12
1526905445284473,37,23,1,-6,1,-1,10,11
1526905445298436,-57,-43,-4,3,0,3,0,-2
1526905445298436,43,-6,1,-3,-2,-23,-10,-1
1526905445299434,23,-3,-1,-2,3,22,-3,4
1526905445299434,6,-18,0,-2,-3,-13,-6,-4
1526905445320377,-71,89,14,11,1,10,3,1
1526905445320377,88,-81,-10,1,4,12,12,29
1526905445321374,8,-9,-10,-4,-3,-5,-12,4
1526905445321374,-19,17,-12,0,0,-3,-3,2
1526905445344313,11,-12,-2,-1,-1,-6,9,-1
1526905445344313,28,-5,2,8,-3,3,2,-7
1526905445345311,-30,3,4,-1,1,-4,-1,15
1526905445345311,-19,-47,3,1,2,-1,0,0
1526905445357279,-53,74,-4,-8,-2,4,-2,-9
1526905445357279,-41,-20,-5,-3,0,-3,1,-10
1526905445366255,53,20,2,-1,2,2,8,10
1526905445366255,-66,34,3,-4,-6,-7,-1,2
1526905445381215,33,-95,0,3,3,3,-9,-7
1526905445381215,-47,-91,-13,-9,0,4,2,-16
1526905445381215,83,22,6,2,-1,-1,-4,13
1526905445381215,12,-113,-10,3,2,1,4,-14
1526905445404153,-52,54,-12,-3,-4,-18,-1,6
1526905445404153,19,-22,6,-9,1,21,-1,16
1526905445405151,105,-17,-10,0,-9,-41,8,-11
1526905445405151,31,13,0,-3,1,26,15,4
1526905445418116,-26,-30,-7,-4,0,0,2,7
1526905445418116,87,110,8,1,-2,-5,-10,-15
1526905445426094,10,-31,-2,-3,-1,1,1,34
1526905445426094,13,-3,5,2,-3,-10,-15,-31
1526905445441054,-55,-55,-8,-9,3,2,8,-7
1526905445441054,85,62,0,10,3,-4,5,24
1526905445442052,33,-80,5,2,3,17,8,-1
1526905445442052,12,19,-6,0,-4,-12,-9,40
1526905445463993,26,-27,3,4,2,11,0,15
1526905445463993,-70,-12,-6,-1,1,-3,-14,-18
1526905445464991,9,6,0,-4,-1,2,11,11
1526905445464991,-36,59,2,-4,-7,-7,-9,-23
1526905445477955,40,7,5,4,0,2,0,7
1526905445477955,7,81,8,-1,-2,-2,7,22
1526905445485935,-73,43,7,4,1,2,-9,-20
1526905445485935,51,94,0,-1,3,10,2,4
1526905445500894,-10,46,3,-3,-6,-12,6,8
1526905445500894,34,10,0,5,2,8,8,5
1526905445501892,-9,-2,2,-4,-1,3,0,-27
1526905445501892,63,-73,-2,-1,-4,-26,-16,-3
1526905445523833,10,78,-1,-6,5,16,-2,8
1526905445523833,15,30,-9,5,-2,-1,3,7
1526905445524830,-18,-15,-7,-6,0,-5,-5,1
1526905445524830,16,51,1,2,-4,-7,10,3
1526905445537796,-9,-39,-1,1,-2,0,-6,-14
1526905445537796,12,22,3,-6,0,-4,11,4
1526905445545774,-55,-89,-6,-1,-5,0,-8,-19
1526905445545774,-83,-27,5,4,4,7,-2,2
1526905445560734,67,75,-3,-3,0,1,19,-9
1526905445560734,-31,-9,-10,-4,-1,-3,-6,9
1526905445561732,-49,1,12,4,1,-2,-1,8
1526905445561732,20,-77,-9,1,0,7,2,0
1526905445583673,6,-2,-5,6,-4,-3,-10,-3
1526905445583673,-39,33,8,2,0,-13,-10,-11
1526905445584671,-32,-14,-9,0,2,11,9,-9
1526905445584671,32,-27,1,-4,-1,-6,-2,7
1526905445597635,5,-24,-1,-3,-1,0,-4,8
1526905445597635,26,-96,1,0,2,-3,3,-13
1526905445605614,-13,16,-1,-15,-3,0,-5,7
1526905445605614,-37,-32,11,13,4,3,-10,-20
1526905445620574,74,-125,-10,-6,-6,-6,-3,1
1526905445620574,-63,-6,4,-2,-4,-14,0,-4
1526905445621572,10,46,2,3,2,14,-5,-11
1526905445621572,-60,-74,-5,-8,-1,-4,0,10
1526905445644510,-109,95,14,5,-2,-3,-13,-19
1526905445644510,24,-53,-8,-3,-1,-3,-7,-10
1526905445644510,53,29,2,0,-2,-2,-2,-1
1526905445644510,-58,61,2,-1,-3,-8,0,-8
1526905445666452,3,11,0,-1,1,6,-2,-14
1526905445666452,-39,-86,-10,-8,-4,0,4,4
1526905445667449,14,10,-2,0,2,-1,-4,7
1526905445667449,-74,49,7,8,3,3,3,-10
1526905445680414,80,-74,-9,-2,-2,-2,3,10
1526905445680414,4,22,4,3,0,-10,5,10
1526905445681412,-26,61,-6,-4,1,23,6,5
1526905445681412,78,-87,-5,-4,-1,-4,5,6
1526905445704350,104,45,1,-4,-5,-11,0,11
1526905445704350,-15,3,0,-2,-1,6,-2,1
1526905445705348,30,35,-1,0,-5,-9,-2,-2
1526905445705348,7,43,-1,-1,-2,-23,-8,-4
1526905445726291,15,-18,0,3,2,31,3,-3
1526905445726291,-49,24,4,4,-1,-2,-8,-10
1526905445727289,115,-62,-10,2,-2,-14,-2,-11
1526905445727289,-28,-1,3,1,2,16,2,7
1526905445741252,-16,8,1,0,2,-9,-6,6
1526905445741252,-30,20,5,-6,-7,-3,-6,-14
1526905445741252,-94,58,1,1,-1,-3,-2,2
1526905445741252,27,72,-6,-3,-3,-5,-5,-11
1526905445764190,96,6,-12,-3,-2,-1,3,24
1526905445764190,-67,21,5,2,3,14,7,-6
1526905445765188,54,-2,-1,0,1,-2,7,6
1526905445765188,-24,-9,-16,-12,-9,-17,-17,3
1526905445786132,-13,-65,-3,-1,-3,7,-1,-4
1526905445786132,11,-8,-3,1,2,-3,-11,9
1526905445787129,31,-11,-5,-1,-1,-11,-8,-4
1526905445787129,-49,34,1,-2,-1,14,8,8
1526905445801091,0,43,8,6,4,-6,-11,-18
1526905445801091,-34,-33,-7,-5,-3,-2,1,10
1526905445802089,3,-52,-1,0,0,-1,3,13
1526905445802089,32,19,7,2,4,8,3,3
1526905445824030,-104,38,2,-1,-2,1,-7,-16
1526905445824030,21,25,-5,0,3,6,3,-18
1526905445825027,-53,32,3,0,-3,-4,1,13
1526905445825027,-59,-15,2,0,0,3,3,-19
1526905445846969,33,-64,-5,-2,-3,-11,10,5
1526905445846969,51,-52,-6,2,3,3,-10,8
1526905445846969,13,-64,-2,-6,-3,19,0,-1
1526905445846969,10,1,-3,-3,3,-18,-6,0
1526905445860931,-24,-11,0,-5,-5,-4,2,6
1526905445860931,10,9,1,2,-1,1,-2,3
1526905445861929,-20,1,-5,4,-2,-9,-7,-4
1526905445861929,41,-8,2,13,-1,3,7,-18
1526905445883870,-108,3,-4,1,1,8,-2,0
1526905445883870,65,-101,-8,0,0,-5,-18,-12
1526905445884868,-21,75,5,0,1,-4,0,-3
1526905445884868,-13,-1,-7,-5,-3,0,9,-3
1526905445906809,22,1,-4,-5,2,9,8,-2
1526905445906809,-6,-49,-3,-4,-3,-2,-1,-2
1526905445907806,14,-72,-5,-5,-2,2,3,2
1526905445907806,77,7,-1,-4,0,-2,-2,14
1526905445920771,-32,-2,-3,-6,-5,-17,-14,-36
1526905445920771,-6,33,-4,-6,-3,-2,3,11
1526905445921769,18,20,3,2,3,5,-5,-5
1526905445921769,27,-58,0,-2,-1,-2,1,7
1526905445943710,5,25,1,-3,0,7,-3,10
1526905445943710,21,-4,-2,-6,-4,-12,2,-11
1526905445944707,-12,4,-3,-5,0,0,-7,-12
1526905445944707,-22,-38,1,-9,-4,7,0,-4
1526905445966649,-12,3,1,1,-3,-7,2,2
1526905445966649,-39,31,5,5,1,5,-6,-4
1526905445967646,89,-15,-9,-2,-3,-16,20,25
1526905445967646,57,-33,-1,-4,2,-14,-28,-4
1526905445980611,46,-13,2,-2,0,4,-3,-10
1526905445980611,2,26,-2,-2,-5,3,10,0
1526905445981609,-52,61,2,1,-3,0,-13,-22
1526905445981609,19,42,2,6,1,1,5,19
1526905446004548,69,-70,-7,1,0,3,6,19
1526905446004548,-21,11,5,2,-1,2,4,-9
1526905446004548,43,-68,-3,1,-1,-2,0,-1
1526905446004548,-35,68,0,-7,-7,-2,4,2
1526905446026489,-67,24,2,4,4,-1,-3,6
1526905446026489,1,25,3,6,0,11,4,-3
1526905446027486,-59,-17,-1,-1,-3,-14,-15,-17
1526905446027486,-16,-34,-5,1,2,9,-7,-7
1526905446040451,51,18,-4,-2,-6,-18,-1,-5
1526905446040451,-35,41,3,-4,0,-1,1,5
1526905446041449,22,85,3,-4,0,0,-4,-2
1526905446041449,26,-32,-3,0,1,4,6,-5
1526905446064387,-51,43,4,4,3,4,-10,8
1526905446064387,-23,-1,0,2,-3,-22,13,-7
1526905446065385,7,0,5,7,4,18,14,15
1526905446065385,31,-92,-1,6,0,11,8,11
1526905446086329,3,-10,-3,2,-3,-5,-8,-2
1526905446086329,30,3,0,5,3,-1,-7,3
1526905446087326,-17,-16,-2,0,2,1,6,8
1526905446087326,-49,18,-2,-3,-3,0,6,-6
1526905446101289,67,-17,-3,-2,-3,-10,-2,-32
1526905446101289,93,12,-2,-4,-4,1,-5,4
1526905446101289,0,-93,-6,-3,3,6,2,9
1526905446101289,10,46,-7,-6,-1,-13,-19,-7
1526905446124227,-15,10,9,0,5,15,1,-7
1526905446124227,-17,32,1,-7,0,-2,2,0
1526905446125225,-33,11,1,-3,-2,5,3,-4
1526905446125225,30,46,6,-5,1,-1,-2,-12
1526905446146169,4,5,1,-4,-5,-3,14,31
1526905446146169,10,-88,-10,-8,-3,-8,-32,-35
1526905446147166,-47,45,13,2,-5,-11,14,0
1526905446147166,-109,6,-3,4,1,8,-3,-16
1526905446161129,-99,19,-9,0,-2,-3,-1,23
1526905446161129,-19,51,-6,-5,-5,4,-1,-20
1526905446162126,37,-4,5,13,2,-3,-5,18
1526905446162126,75,-83,-10,-2,-3,-6,6,22
1526905446184067,6,8,2,-4,2,3,2,-10
1526905446184067,-67,5,13,11,2,4,7,15
1526905446185065,-21,66,-8,-12,-7,-9,-20,-15
1526905446185065,-13,38,8,5,1,-4,11,2
1526905446207006,24,-34,4,0,3,-5,-11,-5
1526905446207006,56,-32,-5,-7,-3,-1,2,14
1526905446207006,-67,83,2,-3,-3,-1,-8,-22
1526905446207006,-42,-22,1,4,0,2,-4,2
1526905446220968,-9,0,-3,-2,-3,1,2,-5
1526905446220968,-65,71,5,-11,-3,-3,-2,-12
1526905446221966,105,-41,2,10,-1,2,-2,-2
1526905446221966,15,46,-4,1,2,4,4,8
1526905446242910,-55,50,5,3,1,-2,1,2
1526905446242910,-73,10,-4,3,1,2,3,-4
1526905446243908,70,-128,-22,-10,-4,7,5,37
1526905446243908,-24,59,6,-5,-2,-15,-7,-11
1526905446266846,-15,11,4,2,-1,-4,-12,-26
1526905446266846,98,-52,1,0,-2,-4,7,27
1526905446267843,-22,11,-3,-9,1,17,-12,-1
1526905446267843,-45,3,-2,-1,-2,-5,4,-13
1526905446279811,47,-17,-1,-1,-6,-5,3,30
1526905446279811,-60,-50,-7,-1,-2,-6,-15,-47
1526905446288787,73,-87,-2,1,-2,-11,6,3
1526905446288787,23,14,-3,-3,-1,9,3,7
1526905446303747,-3,-24,-5,-4,-3,-1,-2,-10
1526905446303747,10,-21,5,5,3,3,-3,7
1526905446303747,-79,47,12,-5,-4,-21,-6,-10
1526905446303747,-78,-121,-5,-12,-4,4,2,13
1526905446326686,12,29,-12,-2,-3,-4,-7,-27
1526905446326686,58,23,10,2,-1,2,1,14
1526905446327684,-10,-28,-5,-3,-4,-7,-14,-43
1526905446327684,45,-54,-3,2,3,5,12,32
1526905446340648,-20,25,-1,-8,-7,-13,-18,-31
1526905446340648,57,29,-6,-2,-2,3,10,21
1526905446348627,-52,43,4,5,3,4,7,4
1526905446348627,-8,-6,4,4,-3,-6,-6,-13
1526905446363587,67,-23,-4,3,1,7,7,16
1526905446363587,-3,24,-6,-1,2,3,5,9
1526905446364585,-96,17,5,2,-1,-8,5,6
1526905446364585,55,-17,1,3,4,3,-3,1
1526905446386526,73,50,10,2,1,-1,6,19
1526905446386526,55,10,-9,-8,-6,-9,-6,-3
1526905446387523,13,66,4,0,-3,-3,3,17
1526905446387523,58,88,-3,-7,-8,-7,-12,-48
1526905446400489,-76,4,-4,4,2,4,2,9
1526905446400489,-70,-125,-1,0,0,2,8,7
1526905446408467,71,78,4,1,2,3,-11,-31
1526905446408467,-36,89,16,8,-2,-6,0,-11
1526905446423427,95,-14,-3,-2,2,2,4,0
1526905446423427,-15,37,3,4,-1,2,3,12
1526905446424425,-20,16,-2,2,4,2,2,15
1526905446424425,-14,28,4,-4,-2,1,-5,-10
1526905446446366,-36,-103,-9,-2,3,1,-3,2
1526905446446366,-14,-1,6,4,3,8,1,-7
1526905446447363,19,-8,-10,-11,-11,-24,-23,-16
1526905446447363,48,-98,-7,4,1,5,7,22
1526905446460328,-60,26,-5,-6,-5,-39,-10,-13
1526905446460328,6,-10,-7,2,3,46,3,4
1526905446468307,-52,45,-2,-14,-9,-1,1,-28
1526905446468307,24,-44,-19,5,-5,10,2,19
1526905446483267,-94,8,14,6,2,-5,14,29
1526905446483267,-89,118,-1,-9,-17,-36,-14,-55
1526905446484265,-97,-80,-1,6,26,18,14,42
1526905446484265,57,45,9,-2,2,13,-4,-13
1526905446506206,60,63,7,1,-3,2,-1,0
1526905446506206,112,-40,-4,3,2,-4,2,32
1526905446507203,78,-32,-11,6,-6,0,2,-27
1526905446507203,-70,11,-2,-2,0,-8,-5,-2
1526905446520168,-36,57,2,2,-2,11,2,-3
1526905446520168,74,-4,2,1,1,-10,0,-6
1526905446528147,69,-2,2,0,0,3,0,-10
1526905446528147,10,16,-6,-4,0,-5,0,16
1526905446543107,42,-1,0,-6,-3,5,3,-4
1526905446543107,-96,-54,-5,-7,-1,-1,-1,-13
1526905446544104,44,-65,-15,-5,-1,-6,4,24
1526905446544104,-26,28,6,2,-3,-2,-3,-20
1526905446567043,37,-115,-12,0,1,-1,-11,-9
1526905446567043,-8,80,0,4,0,-7,3,9
1526905446567043,58,42,4,8,-2,-27,1,17
1526905446567043,85,25,1,2,1,13,6,3
1526905446580008,-67,2,-7,-5,-3,20,9,-4
1526905446580008,-60,2,0,0,-2,-6,-8,4
1526905446587987,0,22,-3,-4,-6,-3,-2,-9
1526905446587987,-68,61,8,3,3,-4,6,2
1526905446602947,48,-96,0,-1,5,5,6,2
1526905446602947,76,28,9,1,1,4,8,34
1526905446603945,-53,27,4,-5,-4,20,1,-10
1526905446603945,34,4,0,-2,1,-22,-7,7
1526905446626883,-23,-18,-7,-3,0,5,-8,-11
1526905446626883,-5,7,-1,-4,-1,-3,-5,-11
1526905446627881,48,-105,-5,2,1,7,2,9
1526905446627881,-71,-24,-6,-2,-1,10,-5,2
1526905446648824,-56,-6,5,2,-1,-16,-8,14
1526905446648824,105,-14,-5,-2,-2,-16,-7,-3
1526905446649822,-51,3,4,2,2,19,-1,7
1526905446649822,-78,-29,-2,-4,-7,-25,-1,-8
1526905446663784,-8,22,4,3,10,46,17,12
1526905446663784,-71,28,-1,3,1,-4,-16,-20
1526905446663784,67,-18,-7,-2,-6,-5,-5,-6
1526905446663784,54,-11,-8,-3,-5,-15,-5,-3
1526905446686723,18,4,-3,-1,-1,-4,-1,-14
1526905446686723,-32,-63,-10,0,-2,-1,0,-10
1526905446687721,-75,73,8,2,-3,-6,1,-10
1526905446687721,-48,-7,-4,-2,-3,9,-4,-14
1526905446708664,34,54,2,-1,-4,-15,15,16
1526905446708664,-53,6,2,0,0,11,-3,-1
1526905446709662,-1,-23,-4,-3,-1,2,2,-3
1526905446709662,81,-25,-2,2,0,5,10,9
1526905446723624,-62,5,-1,-3,-3,-2,-10,-10
1526905446723624,-43,-11,-1,-2,-1,-4,-5,-13
1526905446724622,-27,-76,-5,-7,-4,-2,-3,-10
1526905446724622,31,-7,0,1,3,8,1,1
1526905446746563,-38,-10,-6,-2,-4,-10,-2,-2
1526905446746563,38,-14,-2,-6,-2,-5,5,0
1526905446747561,-43,36,2,-2,1,2,-6,-4
1526905446747561,28,12,7,-3,4,11,5,6
1526905446769502,5,-1,3,4,-1,-25,-8,-8
1526905446769502,-32,3,-5,-2,8,25,3,1
1526905446769502,35,89,7,2,-5,-12,1,7
1526905446769502,-24,-104,-9,-2,-3,-8,-13,-15
1526905446783464,67,44,2,1,0,5,9,5
1526905446783464,-18,34,4,-2,-2,-10,-4,0
1526905446784462,-13,-5,-7,-3,-1,-6,-8,-5
1526905446784462,-50,45,9,2,0,3,2,-7
1526905446806403,43,-61,1,0,0,3,18,5
1526905446806403,-20,65,0,-2,-4,7,3,-18
1526905446807401,-29,-35,-2,0,7,-10,-4,12
1526905446807401,73,70,4,1,-4,-1,-4,1
1526905446829342,-17,58,-3,-2,-1,-4,-13,-12
1526905446829342,21,29,0,2,0,-3,8,11
1526905446830339,37,-98,-2,1,-1,-2,9,7
1526905446830339,-46,-5,-6,-2,-2,18,-3,6
1526905446843304,91,103,1,-5,-2,-1,-6,2
1526905446843304,38,-54,-3,3,1,-4,-4,6
1526905446844302,-25,34,6,12,6,1,0,-9
1526905446844302,7,-85,-7,4,4,-17,4,11
1526905446866243,22,-24,3,6,5,12,-7,9
1526905446866243,-16,-7,-2,-8,-6,8,5,1
1526905446867240,49,11,0,-3,-5,0,7,-9
1526905446867240,5,1,2,-3,2,0,2,5
1526905446889182,-36,8,3,-5,-6,-6,0,-1
1526905446889182,0,10,-1,-2,0,1,-3,-7
1526905446890179,-65,11,-2,-7,-1,-10,3,-1
1526905446890179,-51,16,4,6,3,-1,2,-1
1526905446903144,9,-5,-9,-5,-2,-2,-8,-12
1526905446903144,-55,9,7,3,1,3,3,15
1526905446904142,57,-89,-15,-13,-5,1,-2,13
1526905446904142,0,84,-2,-4,-3,0,-3,-6
1526905446927080,-17,-44,9,-4,0,-4,-9,-10
1526905446927080,23,-50,-2,-9,2,2,12,2
1526905446927080,14,28,0,-17,-3,-18,-2,3
1526905446927080,2,-17,-10,-11,1,19,-7,-8
1526905446949021,-91,-24,2,-3,-1,-3,-3,-2
1526905446949021,44,13,2,3,-5,-8,-3,-2
1526905446950019,26,26,1,3,5,17,-3,-3
1526905446950019,98,11,-4,1,-4,-7,4,1
1526905446962984,-1,50,-2,4,3,-3,-5,-1
1526905446962984,9,7,-2,-3,-8,-10,-4,13
1526905446963982,-43,-22,-4,14,1,4,-4,-23
1526905446963982,-10,33,-10,23,2,-1,-2,1
1526905446986920,10,6,5,28,-1,4,7,3
1526905446986920,7,-38,3,30,2,-8,-5,-20
1526905446986920,39,15,-2,23,-4,5,3,21
1526905446986920,-52,-29,3,7,-4,-7,-6,-1
1526905447008862,31,-67,-5,-3,-1,1,4,-3
1526905447008862,-21,34,7,2,0,-11,-1,-5
1526905447009859,21,55,10,-13,-4,3,-1,-5
1526905447009859,-39,42,3,-9,0,-10,-13,-11
1526905447023822,8,-29,-9,-9,-2,-3,-2,27
1526905447023822,-19,39,-4,-23,-1,1,-3,-4
1526905447023822,17,-42,0,5,-2,-12,-6,0
1526905447023822,28,-44,9,-5,1,19,9,2
1526905447046760,-33,29,1,-3,-2,-2,2,-7
1526905447046760,-23,-19,1,-2,1,6,2,22
1526905447047758,-16,-53,-12,-9,0,-14,-13,-15
1526905447047758,32,1,-4,-8,0,-6,1,2
1526905447068701,42,26,3,-9,-4,-13,-6,1
1526905447068701,39,9,-3,1,4,21,4,-11
1526905447069699,-10,55,5,-1,2,-2,-3,30
1526905447069699,106,-37,-6,-2,-3,-2,2,27
1526905447083661,61,1,-6,3,0,-3,-3,-8
1526905447083661,14,-58,7,5,1,-13,-2,-2
1526905447084659,3,70,-3,1,-1,7,3,-21
1526905447084659,6,-47,4,-15,-3,-2,-1,6
1526905447106600,-80,35,0,4,0,-3,2,-3
1526905447106600,-49,-25,-9,-7,-2,-3,-3,-3
1526905447107598,-49,-21,-1,-1,1,7,5,9
1526905447107598,-30,13,2,0,1,-5,6,-5
1526905447129539,-34,16,-1,-5,0,0,-11,-20
1526905447129539,12,54,2,0,-1,-2,6,3
1526905447129539,34,44,-1,-3,-3,7,-6,-7
1526905447129539,-29,6,-6,-1,-3,-7,6,-1
1526905447142504,19,-1,1,-4,0,5,8,5
1526905447142504,-15,21,-8,-9,-2,0,-9,-17
1526905447150483,-19,38,-3,-4,-1,-4,-4,8
1526905447150483,25,17,3,3,0,-2,0,5
1526905447166440,-64,-15,4,1,-1,4,-1,-6
1526905447166440,5,-115,-12,-3,1,4,13,9
1526905447167437,61,13,2,-2,-4,1,-6,-11
1526905447167437,-84,63,4,2,1,-12,-7,-17
1526905447189379,18,-27,5,1,4,21,11,15
1526905447189379,127,-12,-4,-3,-3,-10,-1,19
1526905447190376,-104,24,3,-3,1,7,6,-5
1526905447190376,12,-76,-9,-3,-6,-23,4,-8
1526905447203341,-54,13,-5,-9,-2,13,-7,-23
1526905447203341,-55,2,3,2,1,1,-6,-8
1526905447204339,-41,-90,5,0,0,-4,5,-8
1526905447204339,84,-58,-6,-2,2,7,8,34
1526905447226280,-1,-43,-14,-9,-10,-21,-15,-25
1526905447226280,-54,61,3,5,4,3,9,5
1526905447227278,56,65,0,4,2,2,3,10
1526905447227278,-128,-1,-4,-5,-2,6,-3,-23
1526905447249219,7,-8,-2,2,0,-5,-6,-12
1526905447249219,-1,59,7,1,-1,-1,-1,3
1526905447250216,41,-17,-10,-3,-4,-4,-6,-10
1526905447250216,7,13,7,1,1,11,1,-20
1526905447263181,36,-44,-2,-1,1,-8,-5,40
1526905447263181,-8,-2,-1,3,-7,-33,-14,-7
1526905447271160,28,7,1,2,2,19,8,-7
1526905447271160,15,1,5,2,-2,2,-3,-11
1526905447287117,-5,80,9,2,0,3,2,-4
1526905447287117,65,-1,-8,-4,0,5,5,8
1526905447287117,81,-117,-12,-1,-1,-6,-3,13
1526905447287117,-19,37,0,-1,-1,-2,-6,-11
1526905447309059,26,46,4,2,1,0,5,3
1526905447309059,86,-13,0,-2,-3,-3,-7,-2
1526905447310056,-54,15,-6,-4,-1,-2,-15,-20
1526905447310056,24,57,8,-3,0,4,29,17
1526905447323021,-29,-128,-14,0,-1,2,4,7
1526905447323021,18,-26,-2,-5,-2,3,-6,-8
1526905447331998,-73,3,8,2,1,0,-1,-9
1526905447331998,-31,-1,-2,4,3,-2,-5,-2
1526905447346957,76,25,-3,-2,-2,-4,-6,3
1526905447346957,-86,70,8,2,1,2,-1,-17
1526905447346957,-3,-26,2,2,1,4,5,19
1526905447346957,11,2,-3,-2,-5,-6,-14,-14
1526905447368898,16,-7,-2,-2,-3,7,24,14
1526905447368898,-63,-30,-6,-10,-5,-6,-32,-30
1526905447369896,66,56,4,2,2,2,14,16
1526905447369896,125,-83,-14,-6,-11,-5,-10,18
1526905447382861,-78,-55,0,0,1,0,-12,-6
1526905447382861,-28,11,2,0,1,-2,2,-18
1526905447390840,-10,48,10,-4,-4,-3,1,-1
1526905447390840,-2,-36,-2,0,1,-10,-8,0
1526905447404803,-25,0,-3,0,0,4,5,-3
1526905447404803,32,32,-3,-2,-1,7,10,19
1526905447413779,-98,-85,-1,3,3,-6,-2,-2
1526905447413779,22,99,3,1,0,-4,-9,3
1526905447428739,-15,91,9,2,1,-5,4,-36
1526905447428739,11,5,1,9,2,4,9,29
1526905447430733,49,18,-4,5,-2,-4,7,8
1526905447430733,20,-95,-8,2,1,10,5,10
1526905447442701,76,43,-1,-1,-2,-3,-7,7
1526905447442701,25,-112,-9,-8,0,0,0,2
1526905447451678,2,23,1,2,-1,1,0,-4
1526905447451678,-31,44,6,-3,1,6,9,9
1526905447465640,2,-16,-6,-7,-4,-1,-14,-9
1526905447465640,50,-57,-14,-8,-2,1,9,19
1526905447474616,24,16,7,-4,-2,-9,1,13
1526905447474616,-77,-34,-11,-7,-7,7,-1,-21
1526905447489576,26,31,9,2,-3,-12,-3,12
1526905447489576,-71,21,1,1,-2,-2,-2,-21
1526905447490574,-60,-32,-4,0,0,-2,-22,12
1526905447490574,47,26,0,-1,-2,-1,6,5
1526905447502541,-49,-104,-9,-3,1,-4,-8,10
1526905447502541,14,-35,-4,-1,-1,6,8,-15
1526905447511517,-14,12,5,2,0,-2,0,9
1526905447511517,-69,-71,-10,-2,2,4,-15,-7
1526905447534456,-11,21,2,1,0,-20,3,-9
1526905447534456,11,3,6,4,6,17,-3,18
1526905447535454,18,-12,-3,-3,-3,-6,-10,-25
1526905447535454,-63,64,7,-1,-3,-28,-5,6
1526905447549416,-10,1,-2,3,4,32,7,2
1526905447549416,34,6,0,0,-3,-15,-12,-11
1526905447550414,-7,50,1,0,1,6,7,-10
1526905447550414,-49,48,0,-2,-6,-6,0,-11
1526905447571357,79,71,6,-6,-6,-12,-13,3
1526905447571357,54,20,-1,0,0,5,10,7
1526905447573352,37,-34,-4,-3,-1,2,0,7
1526905447573352,-8,16,-1,2,4,5,1,-5
1526905447585320,32,-22,-7,-1,-1,0,7,3
1526905447585320,-91,31,0,2,-1,6,-17,-18
1526905447594296,27,54,5,0,-4,-9,22,15
1526905447594296,33,14,6,3,5,5,-1,-8
1526905447609256,0,57,5,-1,2,18,-1,-2
1526905447609256,49,2,4,-2,-4,-7,28,12
1526905447610253,-74,-18,-4,-2,-2,-23,-14,-27
1526905447610253,6,29,1,-5,1,38,3,0
1526905447631197,59,-55,-4,4,0,-17,-1,16
1526905447631197,22,34,4,-6,3,3,-5,-5
1526905447633192,-55,56,-2,2,-2,-21,-6,-14
1526905447633192,127,-74,-6,0,4,24,3,22
1526905447645160,-76,28,-5,-6,-5,9,7,-1
1526905447645160,-7,3,1,3,1,2,-9,6
1526905447654136,42,-24,-7,-7,-3,-1,-6,-1
1526905447654136,34,4,1,-1,-6,-18,1,7
1526905447669096,-100,-58,-2,-1,0,3,7,-27
1526905447669096,32,-62,-5,-4,-5,-11,-13,-1
1526905447671091,12,13,-9,-4,-1,-10,11,7
1526905447671091,81,3,-12,1,-2,20,4,6
1526905447692034,20,-78,1,0,7,15,11,26
1526905447692034,-52,36,2,0,-5,-11,-4,-2
1526905447693032,-63,-32,-6,-3,1,17,-9,-7
1526905447693032,-70,22,14,3,2,-13,0,-24
1526905447705000,71,8,5,-1,-4,-21,-8,27
1526905447705000,81,-39,-9,-5,-1,7,-2,16
1526905447713976,32,-10,-1,0,2,13,-10,4
1526905447713976,-12,9,-5,-8,-10,-59,-1,1
1526905447728936,-17,14,-4,-6,0,37,-1,-23
1526905447728936,-128,37,11,6,-1,-32,-13,-15
1526905447730931,-46,6,-4,3,-6,-13,16,-6
1526905447730931,-106,22,5,4,8,31,6,-3
1526905447751875,52,-72,-16,2,-5,-14,-7,13
1526905447751875,-13,47,4,0,-2,-3,6,0
1526905447752872,39,-15,-1,-1,5,24,0,4
1526905447752872,-30,-54,-2,-3,-3,-9,-15,-8
1526905447764840,-36,40,4,-3,-1,-2,1,-23
1526905447764840,-5,26,6,-1,-2,5,1,1
1526905447773816,21,1,-4,-1,2,1,1,17
1526905447773816,73,-41,-5,-3,-4,2,8,19
1526905447788776,33,58,-7,-6,-3,-11,-12,13
1526905447788776,10,7,2,7,8,2,-7,-16
1526905447790771,72,73,0,-4,-3,8,24,2
1526905447790771,32,-54,4,6,5,14,-16,7
1526905447811714,-8,21,0,0,0,-34,2,7
1526905447811714,23,59,-12,-5,-5,14,-9,-19
1526905447813709,-57,-7,0,-2,-3,6,0,-11
1526905447813709,-12,36,0,-4,-3,-16,0,11
1526905447825677,-36,-39,5,5,1,-1,-1,-11
1526905447825677,22,8,-2,4,11,12,23,10
1526905447834653,-85,-66,1,-3,-2,11,-15,-26
1526905447834653,77,-65,-2,-3,-5,-26,-14,-20
1526905447848616,62,-66,-2,-2,2,11,10,14
1526905447848616,-41,29,-4,-3,-1,-15,3,12
1526905447850611,45,-23,1,-4,-2,-5,-2,11
1526905447850611,-97,-39,2,5,5,1,1,-15
1526905447871554,-30,77,-5,-6,-3,5,2,4
1526905447871554,95,-98,4,4,-3,6,2,26
1526905447873549,-60,-7,7,6,-1,-10,-9,-34
1526905447873549,-1,97,-2,-11,-1,6,-2,-7
1526905447885517,10,31,7,9,0,8,-17,-18
1526905447885517,-57,-7,-3,-9,-8,-27,3,5
1526905447894493,-119,-44,-3,3,-4,10,-3,-13
1526905447894493,41,96,4,6,6,2,4,-1
1526905447909453,52,-17,-3,-5,0,-3,-17,6
1526905447909453,-14,20,2,-2,-5,-5,-6,-12
1526905447910450,82,-77,-3,0,0,2,2,28
1526905447910450,-62,72,3,-1,-4,3,0,-6
1526905447931394,-56,-107,-9,-3,-3,-10,8,0
1526905447931394,-83,27,-11,0,-3,4,-12,-20
1526905447933389,80,-70,-18,-10,-4,-5,9,47
1526905447933389,-86,75,11,5,0,0,-2,-16
1526905447945357,40,-61,-4,1,2,-13,13,26
1526905447945357,17,-2,-1,-10,-4,14,-12,-31
1526905447954333,39,36,10,3,1,0,-3,-12
1526905447954333,41,-42,-16,-6,-4,-12,-7,4
1526905447969293,24,-7,3,-1,0,5,6,2
1526905447969293,44,-8,-3,2,1,-1,3,5
1526905447970291,-11,-13,4,2,-1,-4,-10,-21
1526905447970291,-13,-32,10,-2,-5,-5,13,-12
1526905447991234,-35,115,6,3,-1,-1,-3,-14
1526905447991234,19,-105,-7,-3,1,3,8,26
1526905447993229,-24,62,0,-5,-5,-3,-13,-2
1526905447993229,-29,15,9,5,3,1,29,20
1526905448005197,37,31,-9,-6,-1,4,-7,1
1526905448005197,-68,2,7,-5,-7,-12,-16,-51
1526905448014173,114,-58,-20,-7,-2,-1,10,34
1526905448014173,-74,19,-5,-2,0,3,-15,-12
1526905448029133,36,19,8,-4,-5,-26,-5,11
1526905448029133,-45,56,3,7,3,32,12,-2
1526905448031128,-73,95,7,7,5,-4,-15,-30
1526905448031128,99,-116,-13,-2,-3,-10,0,4
1526905448051074,-23,-37,-11,-3,-2,16,17,-5
1526905448051074,-67,64,11,5,-2,-8,-16,-9
1526905448053069,-66,-50,7,4,3,3,18,4
1526905448053069,3,67,-2,-3,0,5,-6,-1
1526905448065037,13,35,6,3,-1,-10,-13,-20
1526905448065037,38,-6,-6,1,1,4,18,17
1526905448074013,12,5,-22,-12,-7,-3,-3,-5
1526905448074013,32,-91,-7,-5,0,-5,-7,10
1526905448088973,92,-97,-6,4,2,7,2,-2
1526905448088973,35,14,0,3,4,3,1,19
1526905448090968,-19,10,3,-1,-2,-7,-11,-29
1526905448090968,113,37,3,-2,-5,-9,-6,0
1526905448111911,-126,29,8,-1,-1,12,-6,-16
1526905448111911,-58,-93,-1,0,4,0,3,-9
1526905448112909,-48,64,2,3,2,-5,-2,9
1526905448112909,-12,-41,-5,0,-1,5,3,11
1526905448124877,47,-115,0,0,1,4,-4,-1
1526905448124877,-65,83,18,5,0,-31,-4,-7
1526905448133853,117,5,-6,-5,1,19,25,35
1526905448133853,-91,2,1,2,1,12,6,-3
1526905448148813,5,-46,-3,0,-1,-18,-23,9
1526905448148813,-7,-23,5,2,1,10,3,6
1526905448150808,82,-88,3,3,-3,-10,12,11
1526905448150808,-78,45,-11,-4,-3,-2,-5,1
1526905448171752,-67,83,-4,-2,-3,5,10,-8
1526905448171752,101,-45,-14,-3,-5,-4,-8,-3
1526905448172749,-12,25,13,1,0,-2,-7,-3
1526905448172749,27,-10,3,1,0,5,-4,-9
1526905448185714,21,26,-3,2,-3,-6,0,1
1526905448185714,1,45,-10,-18,-8,-10,-13,-33
1526905448194691,82,67,2,5,5,10,5,17
1526905448194691,37,-64,-4,-1,0,-3,-4,0
1526905448208653,-96,81,1,3,0,18,-3,-18
1526905448208653,85,-43,-6,0,3,-12,4,34
1526905448215634,-74,-46,-7,-6,-3,-2,-16,-49
1526905448215634,-5,49,8,-4,-5,-10,-2,-1
1526905448231591,-128,83,9,-2,0,0,-1,-17
1526905448231591,10,-43,-8,-2,-5,6,2,15
1526905448233586,-40,-13,3,1,0,-22,-6,7
1526905448233586,-60,39,8,6,5,29,0,-13
1526905448245554,84,-15,-2,-1,-2,-7,-3,-3
1526905448245554,-63,21,3,-3,-1,7,-7,5
1526905448254530,52,33,-4,0,-3,-11,26,11
1526905448254530,-32,19,3,2,1,-3,-4,-4
1526905448267496,1,-30,2,-4,0,6,10,6
1526905448267496,38,11,-8,-2,-3,-9,5,-4
1526905448276472,47,32,11,0,4,21,0,1
1526905448276472,33,-108,-16,-3,-3,-5,5,18
1526905448291432,-73,30,-1,-4,2,6,9,-10
1526905448291432,17,-38,1,-1,-3,-4,-10,5
1526905448293426,-79,24,1,3,-1,2,-9,-23
1526905448293426,-43,25,-8,-7,-3,-4,-2,-1
1526905448305394,59,-19,-2,5,-1,-5,-2,-7
1526905448305394,-39,20,3,-2,0,6,-3,-5
1526905448314370,-29,-53,0,4,2,7,-2,1
1526905448314370,6,13,8,1,-2,-11,-9,-12
1526905448328333,22,-36,-11,-14,-1,1,4,17
1526905448328333,32,-9,11,14,2,0,3,-11
1526905448335314,-31,23,-8,-1,-1,-8,-9,-8
1526905448335314,26,51,5,1,-2,20,8,17
1526905448351271,71,-24,-3,-1,-5,-12,-3,-1
1526905448351271,-18,-23,-6,-5,-5,-5,7,-14
1526905448353266,6,-43,0,1,4,18,-7,15
1526905448353266,13,-35,-4,2,1,-3,6,-2
1526905448365234,56,4,-1,-2,2,-11,-20,8
1526905448365234,33,78,-5,-4,1,0,2,15
1526905448374211,87,21,-3,-5,-9,-7,-13,-14
1526905448374211,1,25,-3,2,2,-5,0,9
1526905448388173,76,8,-4,1,0,6,13,27
1526905448388173,80,52,0,1,0,-5,-6,-13
1526905448397149,-83,10,9,3,-1,-1,-3,8
1526905448397149,19,-73,-3,1,2,0,4,-12
1526905448412109,-120,-11,4,1,-2,-4,-3,11
1526905448412109,31,-43,-4,-1,-2,-25,2,2
1526905448413107,-52,40,1,-8,-2,24,11,-12
1526905448413107,95,0,-2,0,-3,-11,-10,-11
1526905448425074,-36,16,0,-1,-4,0,-2,-9
1526905448425074,-6,-26,-2,0,2,1,12,20
1526905448434050,6,-31,-1,-1,-2,-8,-1,4
1526905448434050,4,24,0,-2,-1,-4,-6,-6
1526905448448013,-10,31,-2,-1,-1,1,-2,-5
1526905448448013,-30,-43,-4,-1,-5,-1,-10,-2
1526905448454994,69,-73,-6,0,0,-6,15,5
1526905448454994,-66,-5,1,2,1,-6,-16,7
1526905448471949,11,33,3,2,-1,-5,-8,-12
1526905448471949,-9,42,6,4,0,4,-1,-13
1526905448472946,-9,-10,-1,-2,-2,-1,-9,0
1526905448472946,98,-12,-8,5,1,-16,5,20
1526905448484914,-17,-23,2,1,0,19,-4,-11
1526905448484914,-15,16,7,6,7,19,4,19
1526905448493890,-92,-32,1,-4,-8,-13,-26,-58
1526905448493890,-78,78,2,-7,-5,0,18,0
1526905448507853,-19,47,-1,-2,-1,-10,-5,-18
1526905448507853,-12,-23,-6,-3,-2,11,3,15
1526905448516829,-24,53,1,-1,-4,-4,3,15
1526905448516829,-4,-21,-3,-2,0,5,-3,-7
1526905448531789,-49,-50,-3,-4,-3,-9,0,0
1526905448531789,25,14,-2,-4,-3,6,-13,-18
1526905448532786,-9,-6,-5,-2,4,-16,2,10
1526905448532786,17,-70,-1,1,1,13,6,-8
1526905448553730,-44,-10,-1,-1,-2,-10,-4,14
1526905448553730,-16,59,3,-3,0,-1,-3,5
1526905448555725,29,36,-2,8,3,3,8,-5
1526905448555725,35,24,-1,-3,-4,-1,-6,3
1526905448567693,-7,-6,-1,0,-2,-5,1,-17
1526905448567693,-21,36,0,-2,-1,5,-1,-3
1526905448576669,-29,55,0,-4,-3,-9,-3,11
1526905448576669,-38,-76,-4,-1,0,5,3,-4
1526905448591629,42,20,-2,-1,-2,-1,-14,-7
1526905448591629,31,37,0,-6,-4,-16,16,-3
1526905448593624,-21,-15,-3,3,-4,3,2,-1
1526905448593624,-22,-65,2,0,-1,-6,-11,3
1526905448614567,-1,15,-4,-3,-2,1,4,4
1526905448614567,-32,-41,3,1,0,10,-6,-4
1526905448615565,51,10,-4,-1,1,-9,-8,10
1526905448615565,0,35,2,0,-3,-15,-8,-10
1526905448627532,80,13,0,-2,-3,-13,1,-1
1526905448627532,42,25,-1,-2,1,22,-2,9
1526905448636509,33,-28,-4,3,4,5,-2,2
1526905448636509,-89,78,4,-5,-2,-5,-7,0
1526905448651469,-88,5,0,6,8,15,-10,-29
1526905448651469,-4,-27,-3,4,1,-16,11,13
1526905448653463,-38,27,1,1,2,17,-9,2
1526905448653463,74,-14,-6,-3,-2,-3,24,-11
1526905448674407,13,13,1,-6,-4,-5,19,21
1526905448674407,-33,-84,-1,2,2,2,-12,-12
1526905448675405,-72,-18,5,-4,-3,-8,-5,-24
1526905448675405,78,60,2,-2,-3,0,-8,12
1526905448687372,14,53,3,1,-1,2,3,3
1526905448687372,63,-86,-7,2,0,3,2,-1
1526905448696349,17,-71,-1,-1,2,-12,1,9
1526905448696349,-39,31,-7,-4,-4,9,-6,-21
1526905448711308,-39,74,7,2,2,2,-7,-7
1526905448711308,-1,-26,-5,-3,-6,-3,1,-10
1526905448713304,-37,2,1,-2,-2,-8,9,-8
1526905448713304,48,4,1,4,6,20,-8,14
1526905448734247,-30,-98,1,2,-1,-3,4,5
1526905448734247,35,-40,-14,-4,-5,-19,-5,-3
1526905448735245,-48,-48,-6,0,0,23,9,-6
1526905448735245,-69,-84,1,1,-3,-10,-5,-29
1526905448748210,17,16,-5,-5,-2,9,5,15
1526905448748210,-20,15,0,-4,-5,-7,23,-3
1526905448757186,26,26,3,-11,-2,-3,4,8
1526905448757186,109,65,-7,7,4,4,2,8
1526905448771149,39,14,18,1,-3,-6,-6,-2
1526905448771149,46,-66,-15,-3,-1,-5,0,16
1526905448773144,82,95,4,-3,-4,6,1,-4
1526905448773144,-106,11,7,2,2,2,1,4
1526905448794087,-3,66,0,0,-2,-1,-2,-3
1526905448794087,-104,-25,5,1,4,5,-5,-23
1526905448796082,127,30,-4,1,-2,-1,0,27
1526905448796082,0,-15,4,-5,-3,0,-13,6
1526905448808050,15,-42,-10,-3,-4,-7,3,10
1526905448808050,-117,89,-2,-12,-3,-21,-27,-4
1526905448817026,-79,-95,-13,7,-1,3,5,-15
1526905448817026,60,-39,9,6,11,16,10,0
1526905448831986,59,-41,0,0,3,5,15,50
1526905448831986,11,61,12,2,-1,-1,-6,-32
1526905448832984,73,25,0,1,-5,-12,-6,19
1526905448832984,-128,-74,-8,-5,-7,-5,-3,-21
1526905448853927,-39,-18,-4,-3,-2,-14,-12,-8
1526905448853927,31,12,1,-4,-1,11,18,9
1526905448855922,-5,23,-6,1,-1,-16,-27,-6
1526905448855922,12,24,5,4,0,-2,9,5
1526905448867890,-54,-35,-13,-7,-2,1,-17,-29
1526905448867890,75,47,2,2,-4,0,7,18
1526905448876866,1,43,-3,0,5,6,4,-24
1526905448876866,-16,75,3,-9,-11,-10,-4,18
1526905448891826,7,-25,-9,-3,-1,2,-1,-2
1526905448891826,-108,72,11,-4,4,12,-4,5
1526905448892823,-26,7,8,16,0,-21,-8,-10
1526905448892823,104,-22,-2,2,7,12,18,20
1526905448913767,15,-38,3,2,-2,-8,-1,-4
1526905448913767,52,73,-5,0,4,22,-6,21
1526905448915762,74,59,3,-5,0,-3,4,20
1526905448915762,-23,-42,-11,-15,-12,-12,-6,-4
1526905448927730,-50,-42,-10,-6,0,8,0,-36
1526905448927730,112,-101,5,17,7,-10,-17,7
1526905448936706,-74,-87,10,-1,-2,0,5,-14
1526905448936706,62,2,-6,1,0,-2,-1,11
1526905448951666,-66,59,3,-7,-2,5,9,5
1526905448951666,51,-21,-21,-10,-13,-13,-19,-26
1526905448953661,-83,7,3,-3,0,4,-13,-39
1526905448953661,-50,98,4,2,2,-4,5,11
1526905448974604,-72,19,6,8,4,2,-2,24
1526905448974604,-105,88,-8,-8,-8,-5,4,-6
1526905448975602,55,-50,-12,-3,-1,2,4,11
1526905448975602,-45,-34,-1,3,4,3,-1,-7
1526905448987570,99,12,-2,0,-2,-1,15,28
1526905448987570,-31,2,-4,3,-1,2,1,6
1526905448996546,61,80,12,1,0,-8,13,25
1526905448996546,40,-7,-15,-6,-1,2,-6,-3
1526905449011506,93,77,6,0,2,15,-11,-14
1526905449011506,-89,4,-2,0,1,-5,1,-17
1526905449013501,55,-44,-3,-3,-3,4,7,27
1526905449013501,71,25,5,6,3,2,10,10
1526905449033447,-82,26,15,5,-1,-8,-4,-23
1526905449033447,9,56,9,0,-1,4,5,8
1526905449041426,-45,72,2,0,2,15,5,14
1526905449041426,-31,57,6,0,-1,-15,-23,-17
1526905449047410,59,-41,-7,-2,-2,3,3,-2
1526905449047410,45,15,9,6,4,-2,2,12
1526905449056386,-32,-27,3,4,2,8,4,1
1526905449056386,-106,-94,-11,-9,-8,-9,-11,-46
1526905449071346,83,45,-12,-1,0,-2,1,5
1526905449071346,-104,-116,13,5,-1,1,-1,-13
1526905449073341,14,-24,-21,-12,-8,-9,-12,-23
1526905449073341,-26,5,-12,-13,-11,-8,-5,7
1526905449094285,68,-18,-15,-1,0,-4,0,17
1526905449094285,-43,8,3,1,0,4,4,-3
1526905449095282,-78,-70,-5,-2,0,7,5,-2
1526905449095282,-26,19,9,11,8,0,-23,-6
1526905449107250,87,-92,-4,-1,-8,-33,19,1
1526905449107250,122,-5,-11,-2,4,35,9,23
1526905449117223,-43,109,15,6,4,1,3,-2
1526905449117223,38,-42,-4,-1,0,6,12,6
1526905449131186,24,-67,-6,-2,1,5,-9,-1
1526905449131186,-65,7,-9,-5,-4,-12,-10,-26
1526905449133181,-57,38,8,2,5,-2,-4,-12
1526905449133181,89,-84,-7,5,5,14,18,30
1526905449154124,-76,37,3,-2,-6,-6,-18,-9
1526905449154124,-84,56,6,-3,-5,-17,-1,-20
1526905449156120,29,21,-9,-8,0,10,2,10
1526905449156120,-119,31,3,4,0,-5,-2,-26
1526905449168087,-83,-13,5,-3,-1,-5,-9,10
1526905449168087,31,-50,-6,-2,-2,3,-4,15
1526905449177063,-56,80,8,-6,-5,-5,-18,-44
1526905449177063,-24,38,-2,5,2,-3,28,23
1526905449192023,-92,127,12,1,1,1,-1,-16
1526905449192023,110,-19,-5,-4,-3,-21,-3,8
1526905449193021,-12,-40,-6,-4,-5,10,4,3
1526905449193021,49,-69,-18,-12,-2,17,-20,-2
1526905449213965,20,-8,-5,1,2,-1,21,-12
1526905449213965,-25,-59,-5,-1,0,-9,-8,-9
1526905449215959,127,-59,-11,-2,-3,-9,11,27
1526905449215959,22,90,5,-2,-3,-8,-11,-1
1526905449227927,-3,51,2,6,4,22,20,-2
1526905449227927,-30,-81,-12,-2,0,-4,-3,-1
1526905449236903,49,-69,-3,1,-2,3,5,2
1526905449236903,-79,0,-1,-3,-5,-7,-18,-16
1526905449250866,-27,-13,3,-1,-1,-12,-7,-3
1526905449250866,-2,13,3,4,0,16,20,8
1526905449257847,-85,2,-6,-2,0,-1,-12,-34
1526905449257847,61,-38,2,-4,-3,3,11,29
1526905449273804,44,0,-2,-2,1,-3,-14,-8
1526905449273804,111,85,-1,-2,2,0,-1,26
1526905449275799,11,17,-3,-2,-4,-5,3,16
1526905449275799,25,34,8,-1,-2,-17,0,-2
1526905449287767,-37,-2,1,1,2,16,-1,-5
1526905449287767,12,-65,3,0,-1,12,-10,-24
1526905449296743,-3,22,-4,-1,0,-6,-20,20
1526905449296743,-4,38,4,3,1,-4,13,6
1526905449310706,-38,-58,2,-3,-4,2,-7,5
1526905449310706,-4,23,-4,-5,-5,-13,9,-9
1526905449317687,-16,-8,-2,-1,0,18,10,4
1526905449317687,-33,12,7,5,0,0,-21,-15
1526905449333644,51,-90,-13,-1,0,-16,-8,15
1526905449333644,20,18,7,2,-3,-4,-11,8
1526905449335639,-31,77,4,-2,-3,-7,4,-17
1526905449335639,82,51,-8,-4,-4,6,13,17
1526905449347607,26,36,2,0,2,2,-16,-10
1526905449347607,-36,-23,-3,0,1,-3,-5,-13
1526905449356583,-29,0,8,2,3,5,2,3
1526905449356583,63,-82,-7,-1,4,19,3,-4
1526905449370545,65,79,-6,-2,-6,-5,2,3
1526905449370545,-26,12,-1,0,4,7,2,7
1526905449377527,25,-24,-1,1,0,-20,-21,7
1526905449377527,-27,-28,-1,2,-2,-4,9,-13
1526905449394482,3,-45,1,1,0,9,8,12
1526905449394482,-53,17,-2,2,0,-13,-3,-6
1526905449395479,16,-72,-13,-9,-4,5,3,5
1526905449395479,-84,-42,1,0,1,5,-5,-7
1526905449407447,-94,28,5,-2,-3,-4,-15,-15
1526905449407447,46,28,0,1,2,-10,-26,1
1526905449416423,-35,-9,2,6,4,-8,12,1
1526905449416423,-62,-23,-3,-4,-5,-3,-10,-25
1526905449431383,52,-8,-4,-3,-2,15,11,5
1526905449431383,-52,23,0,-1,0,7,5,-6
1526905449437367,-3,43,-2,-2,-3,-1,-7,-2
1526905449437367,-33,-2,2,4,2,-8,6,2
1526905449454321,44,65,3,-3,-9,-14,-9,2
1526905449454321,8,-34,-5,-5,-2,-3,4,1
1526905449455319,12,26,-2,2,-2,3,-16,-8
1526905449455319,11,87,7,1,-5,-19,16,6
1526905449476263,-32,-74,-6,-3,1,-1,1,2
1526905449476263,14,-20,1,1,-1,11,7,7
1526905449478258,-8,41,8,-1,4,-1,-1,-1
1526905449478258,15,21,3,13,4,12,-1,-5
1526905449491223,-112,-18,0,0,1,-7,-18,-30
1526905449491223,44,-35,1,-4,-5,-12,0,2
1526905449498204,17,-39,-1,-1,1,10,22,-2
1526905449498204,28,16,-2,-5,-2,-14,-16,28
1526905449514162,-5,36,1,0,6,2,7,17
1526905449514162,51,42,-4,-4,-5,22,10,-6
1526905449516156,-15,-41,-8,-4,-3,-5,7,7
1526905449516156,85,24,-4,-6,1,1,-1,1
1526905449536103,15,-14,-5,0,-2,-9,6,2
1526905449536103,-55,16,1,-1,-2,-7,-8,-8
1526905449538098,-15,-14,-4,1,-2,-2,2,-4
1526905449538098,51,-26,-7,-4,-3,-3,-2,3
1526905449551063,-16,-72,-2,-3,0,0,4,-7
1526905449551063,14,14,2,6,3,8,4,7
1526905449558044,50,11,1,1,-1,-9,-14,2
1526905449558044,-59,-14,1,-4,0,7,-11,-11
1526905449574001,5,-45,-5,-8,-6,-21,2,-12
1526905449574001,-10,-91,2,-2,7,3,-4,12
1526905449575996,88,35,3,7,-2,-3,3,2
1526905449575996,51,4,-9,-5,-7,-10,-4,-5
1526905449596940,-8,6,0,-2,-1,6,-8,12
1526905449596940,-52,27,0,-2,-2,15,5,-10
1526905449597937,1,-10,2,-1,1,-19,-13,-5
1526905449597937,-57,61,4,1,0,9,14,6
1526905449609906,-69,92,5,-2,0,4,1,-16
1526905449609906,106,-44,-12,-6,-6,-19,-4,10
1526905449618881,-27,-4,-4,15,3,15,2,-6
1526905449618881,-26,-3,5,-4,-1,-6,-21,-4
1526905449633841,-65,-10,2,9,2,-10,16,-20
1526905449633841,-22,52,5,0,0,2,-4,-6
1526905449635837,51,-76,-8,-10,-5,-4,-5,13
1526905449635837,13,-19,-8,-4,1,1,-2,-5
1526905449656780,-32,9,0,3,3,11,-7,-2
1526905449656780,-67,4,0,-14,-6,-21,-9,-2
1526905449657778,-24,0,-5,2,0,5,10,4
1526905449657778,64,-89,7,5,0,-4,5,9
1526905449670743,59,1,-4,-5,-4,10,-4,9
1526905449670743,-67,51,-10,-9,-8,-1,3,-7
1526905449679719,13,78,19,7,2,-26,-15,0
1526905449679719,-72,-81,-6,13,8,31,23,10
1526905449693681,-10,-76,-1,0,0,-3,-2,6
1526905449693681,-45,-83,-4,-1,-1,3,1,-10
1526905449695676,37,-19,-2,-6,-2,-14,0,3
1526905449695676,0,39,0,-2,1,5,4,-9
1526905449716620,59,0,4,-8,-5,-5,0,3
1526905449716620,16,-17,6,11,6,-13,-13,2
1526905449718615,61,32,-13,-13,-9,4,-2,-3
1526905449718615,-87,-4,4,2,1,4,-7,-22
1526905449730583,13,-29,-2,0,0,2,20,14
1526905449730583,37,56,-10,-2,2,5,-2,-1
1526905449739559,-82,24,1,-1,2,-7,-13,-11
1526905449739559,12,22,-11,-12,-9,-9,-5,7
1526905449754519,-50,86,-3,-2,-2,-3,-10,-13
1526905449754519,-25,-29,7,10,2,3,8,6
1526905449755517,-6,-96,2,-1,4,13,12,6
1526905449755517,26,31,1,-1,-1,-6,3,27
1526905449776460,-20,9,-2,2,3,0,-9,-11
1526905449776460,82,-78,-2,1,-3,0,3,-9
1526905449778455,78,-88,-19,-7,-6,0,0,19
1526905449778455,-32,-3,8,-7,-4,-18,-8,-5
1526905449790423,-73,18,2,10,5,22,25,-6
1526905449790423,40,-77,-8,-4,0,-2,-14,18
1526905449799399,-89,37,-5,-5,-8,-1,-1,-12
1526905449799399,-18,97,6,-3,-5,-15,-5,-15
1526905449814359,87,-104,-7,-1,0,0,-1,14
1526905449814359,-40,40,2,1,-1,8,3,-2
1526905449815356,-96,28,6,2,-1,-7,12,-15
1526905449815356,51,11,-6,-1,1,5,0,2
1526905449836300,-31,33,2,4,-1,-4,-10,-14
1526905449836300,13,40,1,5,2,0,13,11
1526905449838295,25,-79,-7,-5,0,3,-17,-18
1526905449838295,30,4,3,-1,1,1,3,3
1526905449850262,21,20,-2,-2,-1,-1,1,0
1526905449850262,-31,-3,1,-2,-1,-5,-1,-2
1526905449859239,-90,26,-1,-2,4,11,8,-5
1526905449859239,90,3,3,4,-3,-8,-9,9
1526905449874199,33,10,-2,-3,-1,-6,-9,9
1526905449874199,-102,4,0,3,2,1,2,-10
1526905449876194,27,18,-1,-3,-2,2,2,-17
1526905449876194,-76,-1,1,1,2,-6,4,-16
1526905449896140,-6,13,13,9,4,25,10,25
1526905449896140,7,-42,-5,-5,-1,2,-14,2
1526905449898135,47,-25,2,1,0,2,3,16
1526905449898135,-102,-71,-3,-1,0,1,-2,2
1526905449910103,15,35,-5,-4,-5,-18,-6,-15
1526905449910103,-17,-43,-5,-1,-2,-1,9,-8
1526905449919079,-95,41,5,0,1,0,-3,5
1526905449919079,14,56,-5,-2,-2,-5,-3,1
1526905449934039,-12,20,3,2,1,2,1,11
1526905449934039,-26,29,9,5,5,2,1,-2
1526905449936034,91,-76,0,0,0,-7,3,15
1526905449936034,69,4,-2,0,-1,3,2,-2
1526905449956977,-45,51,-1,0,-2,-4,-5,-20
1526905449956977,4,90,-1,-3,-3,-3,-1,14
1526905449957975,12,-60,3,-3,2,19,3,-4
1526905449957975,-71,-9,1,8,2,-16,-17,-18
1526905449969943,28,-30,-1,-5,-4,5,-18,-4
1526905449969943,-4,36,-2,1,-2,-8,11,-5
1526905449978918,27,5,0,2,-2,4,-4,5
1526905449978918,-10,-26,0,-2,-4,-5,3,-2
1526905449993878,-81,28,-4,-8,-2,22,-11,-28
1526905449993878,-19,21,0,-1,-1,-5,-5,-24
1526905449995873,-23,20,-4,-3,-4,-5,8,30
1526905449995873,92,-56,-5,-4,0,7,7,-6
1526905450016817,95,17,1,-1,-3,-19,3,21
1526905450016817,26,-23,0,0,0,6,4,3
1526905450017815,-13,54,11,9,3,0,2,-8
1526905450017815,55,127,6,-2,-1,-3,1,3
1526905450029783,66,-63,-5,3,5,3,13,31
1526905450029783,-68,81,8,-3,-4,-3,-8,-14
1526905450039756,-9,-52,-6,2,0,-8,9,-10
1526905450039756,-53,-37,-8,-1,1,9,-9,1
1526905450053718,20,-27,-1,-4,-2,-12,-8,-7
1526905450053718,70,21,-6,-4,0,-6,-2,2
1526905450055714,11,16,-7,-4,-7,-6,-12,-12
1526905450055714,-38,-11,1,4,-1,14,12,2
1526905450076657,89,-12,-8,-1,0,-7,-9,5
1526905450076657,-23,-74,3,5,-2,-16,0,-7
1526905450078652,-20,64,4,4,5,33,-11,2
1526905450078652,79,-31,-5,-3,-2,1,9,32
1526905450090620,-63,-9,0,-3,0,-4,-3,-30
1526905450090620,-85,2,1,-1,-4,-7,0,-3
1526905450099596,37,-13,1,-5,-6,-12,-7,3
1526905450099596,-25,-109,-13,-1,3,8,0,6
1526905450112561,-44,-7,3,2,-3,-9,8,9
1526905450112561,127,-77,-22,-9,-3,3,-1,24
1526905450121538,15,-30,0,-1,4,6,16,-8
1526905450121538,-77,41,6,0,0,2,-1,-5
1526905450136497,-48,21,-2,-4,-7,-4,8,-8
1526905450136497,-38,-1,6,1,0,8,-1,6
1526905450138492,-42,10,0,2,4,-4,-7,2
1526905450138492,-41,13,1,-6,-4,-3,0,-19
1526905450150460,-12,-3,0,-2,-2,-11,-1,-3
1526905450150460,77,-57,0,4,2,37,14,17
1526905450159436,-51,-70,-4,1,1,-22,-15,2
1526905450159436,75,43,2,-3,2,10,21,-1
1526905450174396,-11,22,-2,-2,-1,-7,-12,-15
1526905450174396,-55,-52,5,0,0,-5,-3,9
1526905450175394,22,60,0,-1,-4,-6,4,-4
1526905450175394,-84,-50,-3,-1,-2,0,-8,-16
1526905450196337,11,-23,0,0,-2,-2,2,11
1526905450196337,29,36,2,1,1,-11,-2,-8
1526905450198332,34,23,-1,-5,-5,2,-2,5
1526905450198332,-5,21,5,6,1,-6,9,1
1526905450210300,-32,11,-1,-2,-1,0,-9,-9
1526905450210300,-35,6,4,2,5,4,-2,-4
1526905450219276,41,-64,-19,-5,-3,0,-2,1
1526905450219276,-80,122,2,-2,-3,-20,-9,0
1526905450233238,44,13,4,3,3,17,9,7
1526905450233238,46,72,-1,-3,0,-3,-11,6
1526905450240220,-28,18,4,1,-5,-19,17,-8
1526905450240220,40,-24,2,1,6,12,-2,9
1526905450256177,32,-35,2,-1,0,-3,-6,15
1526905450256177,-19,-2,9,2,-4,-2,8,3
1526905450258172,60,68,2,-1,1,6,-10,-8
1526905450258172,35,-13,-3,-1,-4,-4,-10,2
1526905450270140,8,19,1,-2,-4,-24,2,-6
1526905450270140,16,-15,2,-3,-1,12,9,4
1526905450279116,-31,28,8,-1,-1,-6,-7,2
1526905450279116,21,-100,-7,-4,-4,1,-5,-11
1526905450293078,-22,-10,-6,0,-1,16,15,2
1526905450293078,-19,-11,0,4,-2,-15,1,13
1526905450300060,-26,53,0,1,1,-9,-1,-14
1526905450300060,36,-56,-6,-3,2,14,3,5
1526905450317014,-7,12,-1,-4,-1,8,1,2
1526905450317014,-62,-42,-6,0,-3,0,24,-1
1526905450318012,89,66,3,-1,-2,-13,-17,1
1526905450318012,-30,64,-7,-7,-6,6,-12,-13
1526905450329980,-8,-12,-4,-1,2,-3,1,5
1526905450329980,26,-27,-5,1,2,3,-12,-11
1526905450338956,-32,-8,7,-1,-4,0,-6,-13
1526905450338956,28,35,-1,0,-2,-8,-5,-5
1526905450353916,23,-41,-4,-6,-4,-5,8,3
1526905450353916,-30,27,-3,-5,-2,-16,-2,-25
1526905450359900,-34,-14,-4,1,2,16,23,19
1526905450359900,32,21,7,1,-1,-12,-12,-3
1526905450376854,61,-51,-2,3,-3,4,4,16
1526905450376854,45,31,-5,-12,-2,-20,-10,-6
1526905450377852,8,-17,0,12,3,21,1,-1
1526905450377852,-11,-3,4,-1,-1,5,11,-6
1526905450389820,7,6,-2,-1,-6,-50,3,-2
1526905450389820,-45,2,-3,1,6,48,5,-12
1526905450398795,12,30,0,-2,-3,-11,-6,10
1526905450398795,62,11,-4,-2,-5,-9,-3,12
1526905450412758,-24,19,4,6,7,0,-12,-16
1526905450412758,-15,-22,0,-6,-8,-11,-6,1
1526905450421735,-65,-26,1,-2,3,5,1,-10
1526905450421735,-16,52,2,-2,-2,7,2,-7
1526905450436694,0,-58,-11,-7,-5,-4,13,2
1526905450436694,36,57,-3,1,0,-10,0,4
1526905450438689,-54,-55,2,-5,-2,18,-6,-11
1526905450438689,-48,-38,-1,-6,-6,-16,-10,2
1526905450458636,33,15,6,0,7,14,-5,-2
1526905450458636,-16,14,-3,7,2,-11,-14,-26
1526905450460631,58,28,-3,-3,-2,7,-5,15
1526905450460631,25,-30,-5,-5,-5,6,21,0
1526905450473595,-8,97,1,1,3,-3,-42,-6
1526905450473595,23,-52,2,6,0,2,-1,5
1526905450480577,7,-4,-5,-5,-6,-6,-7,4
1526905450480577,-25,-7,3,14,6,-13,-5,-12
1526905450496534,-27,22,4,3,-2,14,-2,1
1526905450496534,11,-11,-3,-10,-6,-8,-4,7
1526905450498529,10,-22,-6,-2,-1,-17,-17,-9
1526905450498529,-14,-15,0,4,2,12,17,7
1526905450519473,35,22,-7,1,0,0,-5,-11
1526905450519473,12,60,2,-4,-3,2,-2,0
1526905450520470,-64,-25,4,-3,-2,0,19,1
1526905450520470,-74,51,2,-5,3,-9,-13,-19
1526905450532438,-28,-9,3,-1,-5,8,5,7
1526905450532438,33,19,1,8,4,5,4,15
1526905450541414,-10,-3,-6,-2,1,-4,-3,-10
1526905450541414,-68,18,4,3,3,-26,-10,2
1526905450556374,36,-34,-5,-13,-1,15,13,-17
1526905450556374,-15,102,8,5,3,17,2,-1
1526905450558369,69,-48,-3,3,-1,1,21,10
1526905450558369,25,-13,1,11,10,5,-10,6
1526905450579313,-37,32,-10,-5,-5,-12,-9,-11
1526905450579313,70,-29,4,2,-1,-9,0,14
1526905450580311,-93,1,1,0,1,5,0,-18
1526905450580311,75,18,5,-2,-8,-5,-11,2
1526905450592278,-67,7,-2,-4,0,3,3,6
1526905450592278,32,-41,-12,-12,-2,9,-5,-10
1526905450602252,-88,59,12,10,3,0,-7,4
1526905450602252,46,-20,-3,-6,-5,-12,13,3
1526905450616214,-7,28,9,-2,-2,5,0,5
1526905450616214,-13,-13,-6,-4,-4,-8,-6,12
1526905450618209,18,12,-6,-3,0,-12,-14,-6
1526905450618209,6,8,2,2,1,13,29,-2
1526905450639153,-6,-22,-1,7,1,0,-1,3
1526905450639153,-23,5,1,1,-2,-10,-1,-11
1526905450641148,22,3,-2,-8,-1,2,-11,-10
1526905450641148,53,43,-3,0,-2,-2,-11,8
1526905450653116,-33,-53,-8,0,-1,-9,1,6
1526905450653116,-15,-65,-5,-1,-2,10,8,-6
1526905450662092,-27,12,-3,4,-1,-2,1,-10
1526905450662092,27,-7,5,-12,3,2,-3,3
1526905450677052,15,50,12,21,3,2,-1,-7
1526905450677052,46,-48,-11,-2,-2,-10,0,10
1526905450678049,67,31,-9,-8,-4,-5,-2,-2
1526905450678049,9,-38,-5,-5,-3,-3,-8,-2
1526905450698993,-6,-43,2,-3,-1,11,7,5
1526905450698993,32,50,3,5,0,-9,-5,3
1526905450700988,15,14,1,0,-3,3,11,-3
1526905450700988,-5,-71,-9,-2,0,5,9,-6
1526905450712956,27,1,-11,-11,-3,-4,-4,-1
1526905450712956,-19,14,-2,-2,1,0,0,-8
1526905450721932,18,-23,-4,0,2,3,0,22
1526905450721932,12,14,0,2,-4,4,-4,0
1526905450736892,-82,1,4,2,0,-6,-2,-12
1526905450736892,29,13,-3,-2,-2,2,-4,4
1526905450737889,50,-25,-4,-8,0,-4,-11,5
1526905450737889,-114,-37,3,10,2,12,4,-6
1526905450758833,29,-25,1,3,2,-3,-3,2
1526905450758833,-21,-49,-2,-2,-1,-1,-2,-5
1526905450760828,3,-87,0,7,1,-4,5,11
1526905450760828,-57,-8,-7,-2,-1,-11,-14,-16
1526905450772795,28,24,-8,-11,-4,11,4,-4
1526905450772795,4,45,13,5,0,-7,3,11
1526905450781772,-94,97,9,0,-3,-10,1,-5
1526905450781772,-41,9,-17,-9,-2,9,-6,-15
1526905450796731,-3,45,12,4,0,-2,-2,10
1526905450796731,-48,15,-1,-4,-2,-6,-3,-4
1526905450798726,68,14,-3,-5,-4,-8,9,-1
1526905450798726,18,-34,3,0,0,-9,-2,9
1526905450818673,85,-39,-5,-2,1,-1,-8,7
1526905450818673,-34,4,-5,-1,-2,2,-2,-15
1526905450820668,-20,-1,3,0,-1,1,-9,-22
1526905450820668,-4,12,-1,1,-2,0,6,20
1526905450832635,-52,22,-1,-3,-2,-1,-2,-16
1526905450832635,-4,16,5,6,2,2,3,-4
1526905450841612,12,-50,-7,1,-4,-10,3,7
1526905450841612,25,9,5,2,5,9,-7,3
1526905450856572,-27,-93,0,-1,5,9,21,1
1526905450856572,-24,47,0,3,-1,-2,-3,0
1526905450858566,15,10,1,2,1,-1,1,0
1526905450858566,26,24,-4,-4,-4,-8,-9,-15
1526905450879510,-43,-30,-6,-3,-4,-7,-9,-13
1526905450879510,50,2,5,-6,-1,-6,-4,4
1526905450880508,127,-9,-6,3,-1,-1,6,6
1526905450880508,0,-84,-3,-3,-2,1,1,0
1526905450892475,43,-25,-1,-1,-3,-4,-7,-6
1526905450892475,-21,37,-1,-6,-4,-4,1,-5
1526905450901451,-30,34,-1,-3,1,4,-7,-4
1526905450901451,-8,13,5,3,1,3,2,12
1526905450916411,91,57,-3,3,0,-3,9,16
1526905450916411,12,-4,2,3,0,1,-2,2
1526905450918406,-61,-27,4,0,1,8,1,-3
1526905450918406,106,33,-4,-7,-7,-12,2,0
1526905450939350,-68,4,-3,-2,-1,0,2,5
1526905450939350,-27,-41,-2,-1,-1,0,-4,-19
1526905450940348,-6,21,-1,-5,-6,1,3,9
1526905450940348,-19,20,-1,2,-1,8,2,-7
1526905450952315,-31,-52,1,3,3,-23,-29,-2
1526905450952315,-24,77,8,10,2,18,1,-19
1526905450962289,2,56,-7,-6,-5,-3,-1,17
1526905450962289,-32,-97,-7,-2,-2,-1,1,16
1526905450976251,-55,79,-4,-7,-7,1,-6,-22
1526905450976251,-76,-15,-4,-3,-1,-9,-12,3
1526905450978246,72,-85,-4,1,5,-4,22,-1
1526905450978246,-45,29,-6,0,0,3,1,-4
1526905450999190,38,-4,-1,4,0,0,-1,23
1526905450999190,-25,-20,-8,-4,-3,2,-3,-12
1526905451001185,-48,14,12,4,-1,-2,10,-15
1526905451001185,16,26,1,-4,-6,-10,-4,4
1526905451013153,33,-20,-1,2,4,8,12,9
1526905451013153,-3,2,-5,-2,-1,-2,-2,1
1526905451022129,-25,-40,2,1,1,0,-15,2
1526905451022129,67,73,8,4,3,6,7,-15
1526905451037089,-16,11,1,-1,-2,-2,0,-2
1526905451037089,50,-78,-11,-5,-3,-3,3,11
1526905451038086,15,-75,-12,-7,-2,-8,-7,-7
1526905451038086,-53,-9,-6,-4,-1,11,-3,-13
1526905451059030,-1,9,7,3,3,-21,-8,-3
1526905451059030,34,-101,-6,-1,2,21,4,6
1526905451061025,-76,60,2,1,4,8,2,-3
1526905451061025,-13,27,-3,-8,-8,-17,-19,-26
1526905451072993,13,-26,-7,-6,-4,7,5,15
1526905451072993,-66,15,0,0,-1,-17,31,-18
1526905451081969,-35,7,-1,-1,0,-2,-7,6
1526905451081969,15,-40,-1,0,-1,8,7,22
1526905451096928,-5,25,3,0,0,-3,0,-2
1526905451096928,-2,87,11,3,1,6,-8,0
1526905451097926,-9,-64,-4,0,-1,7,14,1
1526905451097926,-11,16,2,1,1,-5,1,5
1526905451118870,-12,38,7,-3,-4,9,6,-6
1526905451118870,9,12,1,3,1,2,-2,2
1526905451120865,-4,4,-5,0,-1,-24,-16,6
1526905451120865,-21,-92,0,0,-5,28,8,4
1526905451132833,47,11,-7,-8,-4,-5,-8,-10
1526905451132833,12,-15,-4,2,1,-6,-1,8
1526905451141809,-19,-40,4,3,-1,-7,-16,-12
1526905451141809,38,59,-2,-2,1,-1,3,10
1526905451155771,52,-41,-3,3,0,2,-24,0
1526905451155771,-3,16,0,-6,-5,-16,10,14
1526905451162753,47,7,-1,0,0,15,12,-10
1526905451162753,-25,24,3,0,1,-3,-1,5
1526905451178710,20,12,0,-6,-4,5,-6,-14
1526905451178710,13,50,4,6,-1,-7,-8,4
1526905451180705,-19,-21,-4,2,1,15,8,5
1526905451180705,8,4,1,6,2,-19,-15,-20
1526905451192672,0,10,4,6,2,10,8,1
1526905451192672,-68,41,2,-6,-6,-16,-2,-9
1526905451201649,28,-28,-6,-7,-6,26,7,7
1526905451201649,4,0,2,-2,2,0,-2,1
1526905451215611,-10,-38,-5,-3,-4,-9,8,2
1526905451215611,32,7,0,-10,-5,4,-6,-6
1526905451222592,-19,31,-1,12,5,-10,8,-6
1526905451222592,-51,-1,-2,-6,-6,-10,-7,3
1526905451239547,-28,-16,-4,0,0,5,8,10
1526905451239547,-3,-43,-3,-8,-4,0,-7,-3
1526905451240545,-8,25,-5,7,6,-6,-11,5
