timestamp,emg1,emg2,emg3,emg4,emg5,emg6,emg7,emg8
1526905322449975,-15,3,6,35,16,8,-7,2
1526905322449975,-11,2,-1,-4,-8,-9,13,-5
1526905322450973,-8,-33,-7,10,-1,-1,-3,-5
1526905322450973,7,7,0,-2,-3,-1,-1,-2
1526905322451970,-1,8,0,-13,-6,4,-5,-2
1526905322451970,21,27,3,4,-2,-14,-16,2
1526905322454963,-8,-22,-4,-9,0,0,1,-1
1526905322454963,-12,22,4,16,2,-3,2,-3
1526905322461943,-13,-57,-6,2,0,-2,0,5
1526905322461943,0,-4,6,11,6,-5,-4,1
1526905322471921,-4,11,2,-4,-7,12,5,-5
1526905322471921,19,-8,-4,-13,-7,-12,-1,6
1526905322477900,-22,15,-1,3,7,1,-1,-7
1526905322477900,-11,-6,-7,-13,-6,4,3,-1
1526905322491863,7,-8,-1,-5,-1,-8,-8,-1
1526905322491863,0,-9,-2,-13,-9,-1,1,-5
1526905322501836,-8,22,2,13,1,1,4,-2
1526905322501836,4,1,-2,-3,3,0,-4,3
1526905322516796,-7,-7,-3,-15,-3,-3,1,-2
1526905322516796,20,19,-2,1,-1,2,-1,1
1526905322522780,-1,-4,0,3,-1,-10,2,1
1526905322522780,7,3,-6,-3,0,6,-2,-2
1526905322536743,20,13,6,9,1,4,-2,-3
1526905322536743,-20,-22,-4,-6,1,-2,15,0
1526905322578631,20,10,-2,-11,-6,5,1,1
1526905322578631,6,-5,0,4,4,-3,-12,-2
1526905322582620,26,7,0,-7,-3,-6,-1,-1
1526905322582620,-7,18,-4,-9,-11,3,0,-2
1526905322583618,-2,2,6,14,3,-4,1,0
1526905322583618,-6,-14,-2,-5,-4,-3,1,0
1526905322584615,43,24,-1,7,2,2,0,-1
1526905322584615,-11,-20,-3,-8,3,-3,-4,-2
1526905322588604,-12,4,-2,-4,1,-1,0,-5
1526905322588604,7,0,-4,-19,-6,0,3,4
1526905322597580,-19,-4,4,29,4,-1,0,2
1526905322597580,9,1,-2,3,0,0,3,4
1526905322603564,-7,-12,-3,-10,-2,-1,-1,-2
1526905322603564,-2,-3,-2,-1,-3,0,2,-1
1526905322618524,-12,1,-3,-12,-3,-1,-1,-1
1526905322618524,28,13,-1,13,4,-1,0,1
1526905322626503,-12,-27,-2,-4,-2,-2,-3,1
1526905322626503,-13,20,1,0,0,1,-4,-5
1526905322649441,-19,-25,-2,0,-1,-1,-4,-1
1526905322649441,22,13,2,8,2,0,-4,-1
1526905322650439,-5,5,-5,-12,-5,-13,-4,-4
1526905322650439,18,20,5,22,0,14,9,-1
1526905322664401,-2,-17,-3,-12,-2,-3,8,-7
1526905322664401,-54,-39,-7,4,-2,-2,-1,0
1526905322665399,0,-4,3,4,2,0,-4,-1
1526905322665399,-1,-9,-3,-7,-2,-5,-4,-1
1526905322687340,-18,15,2,1,1,3,4,-5
1526905322687340,34,14,-1,-8,-2,0,3,-1
1526905322687340,16,2,-1,1,-2,-1,1,-1
1526905322687340,-32,-25,-6,-6,-4,-1,0,0
1526905322709282,5,13,2,-7,-3,1,-5,5
1526905322709282,-11,-4,4,18,8,-3,-5,2
1526905322710279,9,6,-4,0,1,2,0,0
1526905322710279,2,9,3,12,3,-6,0,-4
1526905322724242,-3,0,-4,-2,-1,-1,-3,1
1526905322724242,-42,-52,-7,-21,-8,-4,0,0
1526905322725239,1,20,0,8,5,4,3,-1
1526905322725239,-7,-3,-3,-1,-5,-4,-5,-1
1526905322747180,-11,10,1,-9,-2,-4,-4,-1
1526905322747180,-21,7,2,-2,-4,7,-1,-8
1526905322748178,-5,-10,-3,-3,1,-1,-1,1
1526905322748178,-4,-36,0,-6,-1,-3,2,0
1526905322769121,2,6,3,6,-1,2,-2,2
1526905322769121,16,8,-1,-6,-5,-3,-4,-1
1526905322770119,3,5,-3,1,-2,2,0,3
1526905322770119,17,37,1,-5,1,1,-3,-1
1526905322785079,-16,-44,-10,-10,-2,-2,-1,-4
1526905322785079,34,13,6,15,5,2,4,2
1526905322785079,-25,-30,0,16,6,-6,-6,-6
1526905322785079,10,6,-4,-10,-8,7,-3,-1
1526905322807020,7,0,-4,1,-1,-16,6,-5
1526905322807020,-9,10,-2,-22,-6,-2,2,-2
1526905322808018,1,0,1,8,0,4,3,-1
1526905322808018,25,16,0,4,2,-4,-3,2
1526905322829959,-14,-16,-4,6,2,6,-3,-3
1526905322829959,-3,9,4,-1,0,-1,-2,-1
1526905322829959,-2,6,-2,-9,-5,-4,3,-1
1526905322829959,-10,-43,-4,-1,3,-1,4,-1
1526905322844919,-3,-8,1,-3,-4,3,-3,-2
1526905322844919,11,12,-1,-1,0,-5,-1,3
1526905322844919,-4,11,0,-2,-3,1,-5,-6
1526905322844919,33,10,-2,-7,-1,-3,-2,0
1526905322866860,-12,6,-4,1,5,-2,-4,-7
1526905322866860,11,-15,-5,-2,-1,1,-2,1
1526905322867858,-5,6,-2,-9,-5,-1,-1,1
1526905322867858,7,4,2,22,1,-1,1,0
1526905322889799,-5,13,2,-9,-3,1,-1,-1
1526905322889799,-4,-11,0,4,1,-1,0,2
1526905322890796,14,18,1,-5,-2,3,-1,1
1526905322890796,-21,-32,-4,-8,-2,-2,-1,1
1526905322904759,2,18,4,-1,-2,2,-9,3
1526905322904759,3,-18,-5,0,-2,0,-2,-8
1526905322905756,-5,5,4,4,-1,-1,2,1
1526905322905756,-11,6,1,-2,-1,-5,-4,-3
1526905322926700,3,-2,1,2,0,1,3,6
1526905322926700,-6,8,-3,-4,0,0,0,-5
1526905322927698,-6,-6,-1,-3,0,-7,-3,0
1526905322927698,10,3,0,-1,1,9,4,1
1526905322949639,12,1,-1,7,3,1,-1,4
1526905322949639,-17,-3,1,1,-3,0,0,-4
1526905322950636,12,2,-3,-9,-2,-2,-4,-3
1526905322950636,-5,13,0,-17,-2,-6,-6,-4
1526905322964599,-5,-26,-1,9,-2,-3,3,-3
1526905322964599,17,1,-1,10,0,1,1,0
1526905322965596,23,27,6,1,5,3,-1,0
1526905322965596,-26,-16,0,12,0,-2,-2,-1
1526905322987537,2,-10,-7,-11,-4,2,7,2
1526905322987537,4,14,-2,-7,0,-7,-11,-4
1526905322987537,0,-18,-3,-1,-9,2,0,-6
1526905322987537,9,10,1,0,2,-9,-3,-1
1526905323009479,10,13,-1,-9,-11,3,0,-3
1526905323009479,-2,-4,5,5,5,1,4,3
1526905323010476,-5,-15,-6,-9,-5,-4,-2,-3
1526905323010476,-17,-2,1,8,3,1,-1,-2
1526905323023441,-4,-13,-6,-4,0,-3,-6,-1
1526905323023441,4,6,1,-5,-1,-2,0,1
1526905323031420,4,-1,2,6,2,-8,-1,3
1526905323031420,-13,-2,-2,-7,-4,8,9,-4
1526905323047378,33,22,3,5,2,-2,-1,1
1526905323047378,-21,1,-4,-4,-3,-1,-1,0
1526905323048375,-1,-10,-2,-5,0,0,10,1
1526905323048375,-1,2,-2,2,1,-5,-14,-6
1526905323069319,2,0,-1,-13,-4,-1,0,3
1526905323069319,-3,1,-2,-3,-1,-3,0,-1
1526905323070316,-3,6,6,16,3,13,-4,0
1526905323070316,12,9,3,3,-2,-17,-6,-5
1526905323084279,-13,4,-1,-1,0,0,-1,-1
1526905323084279,27,-1,-1,-9,-4,-2,-1,1
1526905323091260,0,-5,-2,-5,0,-2,-4,0
1526905323091260,-15,-2,-1,-3,1,7,0,0
1526905323107217,-5,1,2,1,0,-2,2,0
1526905323107217,-1,-9,-3,-2,-4,-2,-1,-3
1526905323108215,-9,11,1,-7,1,0,3,-2
1526905323108215,12,-27,-5,9,-4,1,0,4
1526905323129159,7,9,3,12,6,5,-6,-1
1526905323129159,-19,-5,2,-4,2,3,7,1
1526905323130156,1,-8,-2,1,1,-5,-14,-1
1526905323130156,-11,6,-5,-14,-7,-1,4,-2
1526905323144119,0,-2,-3,0,3,-2,-2,-1
1526905323144119,14,-3,0,4,-4,-2,0,3
1526905323151100,5,-1,-3,3,0,0,0,0
1526905323151100,-5,6,2,-3,-1,-2,-1,0
1526905323167057,-3,-13,-1,-3,-3,1,-1,-3
1526905323167057,-9,2,-1,-5,-1,-2,-3,2
1526905323168055,7,-8,-4,-5,-1,-3,-1,-7
1526905323168055,22,12,3,11,2,2,0,3
1526905323189996,-16,-13,-2,-3,-2,-3,5,-3
1526905323189996,-25,7,0,8,2,-1,-3,-7
1526905323189996,12,-4,-3,-7,-2,1,1,5
1526905323189996,24,9,-1,-1,3,3,2,3
1526905323203959,-24,-24,1,8,0,0,0,-4
1526905323203959,-1,9,2,0,2,-1,-5,-3
1526905323210940,-10,-13,-4,6,-1,0,3,-2
1526905323210940,-12,5,-2,-13,1,2,-6,-2
1526905323226897,11,11,-1,-8,-6,-10,20,0
1526905323226897,1,-8,3,-6,0,-1,-7,-2
1526905323227895,-10,-10,-3,2,1,0,-1,2
1526905323227895,-4,1,-5,-10,-7,-3,-3,1
1526905323249836,9,6,-2,-5,-1,-1,-2,0
1526905323249836,13,3,4,7,2,2,2,-1
1526905323250834,-18,0,-3,1,-3,-3,-1,-2
1526905323250834,-1,-7,-3,-9,-3,2,5,1
1526905323263798,-20,-17,2,13,4,1,-8,1
1526905323263798,29,5,3,22,5,0,0,0
1526905323271777,-6,2,2,-7,-2,1,-3,0
1526905323271777,4,-3,0,6,-1,-3,-1,-3
1526905323286737,22,14,0,-2,0,2,-1,-1
1526905323286737,-16,-7,-5,-9,-4,-2,0,-3
1526905323287735,2,-7,-3,-6,-4,-2,1,-2
1526905323287735,1,-6,-2,0,-3,-2,0,-1
1526905323309676,1,11,-1,11,4,2,-4,-1
1526905323309676,-2,0,-4,-4,-5,-4,-3,-1
1526905323310673,16,-5,-3,-12,-6,-1,-1,-3
1526905323310673,-11,0,1,2,-2,-4,0,-2
1526905323323639,-12,4,-2,-6,-4,-2,-1,0
1526905323323639,11,3,-2,-2,-2,-1,-1,-3
1526905323331617,-7,-12,1,3,0,0,-1,-1
1526905323331617,-4,-24,-8,-8,0,1,0,1
1526905323346577,4,10,1,-1,-1,-4,-1,0
1526905323346577,-14,-7,-4,-10,-1,-1,-3,-2
1526905323347575,26,22,7,6,3,-1,-1,1
1526905323347575,-5,11,1,1,2,-2,0,-4
1526905323369516,4,-8,-3,-9,-2,-1,-3,1
1526905323369516,0,-5,-2,8,2,0,1,1
1526905323370514,3,-2,1,-2,1,-1,0,-3
1526905323370514,5,2,5,11,1,0,-2,-1
1526905323383479,-9,-6,0,-3,-1,1,-2,-3
1526905323383479,-2,3,-2,-8,-6,1,-4,-3
1526905323391457,-8,-7,-4,-3,-3,-1,0,0
1526905323391457,8,11,-2,6,2,-1,-2,-2
1526905323407415,5,12,7,16,9,2,0,2
1526905323407415,2,-1,-4,-2,0,-4,-1,1
1526905323407415,0,4,1,3,0,3,6,0
1526905323407415,5,-8,-1,-8,-1,-1,-1,-2
1526905323429356,-9,-3,-4,-5,-2,1,-1,-1
1526905323429356,19,1,1,-2,-3,-2,-1,4
1526905323430354,-8,-3,-4,3,0,-7,-5,-3
1526905323430354,-11,-1,2,3,-7,5,2,0
1526905323452295,9,3,-1,1,-3,-6,1,-8
1526905323452295,1,-2,-1,-5,2,2,-3,-2
1526905323453293,9,12,-1,-7,-4,-3,-3,3
1526905323453293,-19,-19,-2,5,4,0,0,2
1526905323467255,2,0,-2,-2,-3,0,-1,-2
1526905323467255,-1,-9,-3,-3,-4,3,4,-5
1526905323468252,-4,9,2,5,3,1,1,3
1526905323468252,-10,7,0,-1,0,-3,0,-2
1526905323489202,0,-8,-4,-8,-5,-2,-5,1
1526905323489202,-5,-9,2,6,3,1,1,1
1526905323490194,0,1,3,4,2,-1,-5,1
1526905323490194,-2,16,2,-4,4,0,-3,-3
1526905323512134,8,-14,-3,-10,-4,-3,-2,4
1526905323512134,-10,10,1,5,5,2,1,0
1526905323513132,-9,-5,-3,-6,5,0,-2,-4
1526905323513132,10,8,-2,-6,-1,-2,-2,-3
1526905323527095,4,-2,-4,-10,0,-1,-2,1
1526905323527095,2,1,-1,3,-2,-3,-5,-5
1526905323528092,19,15,-1,-1,-4,1,3,3
1526905323528092,-6,-22,-3,-2,-1,-5,-2,-1
1526905323550033,-8,3,3,4,2,1,0,-2
1526905323550033,1,-8,-2,-7,-5,-7,-3,1
1526905323550033,-7,-3,-1,2,-1,1,-1,-5
1526905323550033,-9,3,0,0,-2,1,1,-3
1526905323571978,10,14,4,5,4,-1,0,-1
1526905323571978,5,4,-1,-6,-1,3,2,1
1526905323572972,-6,-2,0,2,0,0,-3,-3
1526905323572972,2,2,-2,-3,-1,-2,0,3
1526905323594913,-6,-1,0,0,-2,-2,-1,0
1526905323594913,-5,3,2,3,1,-1,-1,-3
1526905323595911,7,-12,-4,-14,-6,1,5,-1
1526905323595911,10,11,1,-2,2,-3,-10,-3
1526905323608876,-5,-12,-1,13,1,0,0,0
1526905323608876,2,2,1,2,1,-1,2,3
1526905323616854,-5,-5,1,2,-6,1,-2,-1
1526905323616854,-19,13,5,5,0,-5,6,5
1526905323631815,27,15,-5,-8,-1,0,-4,-3
1526905323631815,-23,-24,0,0,1,1,2,1
1526905323632813,-12,7,2,2,-2,-5,-6,0
1526905323632813,8,0,0,-5,-3,1,3,2
1526905323655751,-1,5,2,3,-2,1,-4,-1
1526905323655751,-1,-17,-7,-13,-4,-1,-1,-4
1526905323655751,4,1,-1,-1,1,-3,-3,-2
1526905323655751,-1,-8,-1,5,0,2,0,-2
1526905323668715,-8,-11,-1,-11,-4,-4,4,1
1526905323668715,10,6,1,3,0,1,0,-2
1526905323676694,-19,-5,-1,-1,0,-3,-2,-3
1526905323676694,9,-14,-5,1,-1,0,-2,-2
1526905323691654,-4,-6,-3,6,0,-2,0,-1
1526905323691654,-3,17,-2,-8,-3,0,-5,-3
1526905323692652,10,-2,2,15,5,1,1,-4
1526905323692652,7,15,1,-4,-3,-1,-3,-3
1526905323715590,-4,-19,-1,-6,-2,0,0,0
1526905323715590,1,11,-2,0,-5,-4,-1,2
1526905323715590,5,-6,-3,-12,-2,-1,1,3
1526905323715590,-6,-7,-4,1,1,-2,-3,-1
1526905323728556,-14,3,2,-12,-3,8,-2,-3
1526905323728556,16,0,1,21,3,1,1,2
1526905323737532,9,0,-2,-1,-1,-1,2,-1
1526905323737532,9,2,3,1,-2,-1,0,1
1526905323752492,-8,0,-3,-4,0,-4,-2,-1
1526905323752492,-5,-5,0,-11,-2,-1,2,1
1526905323752492,-4,-1,-3,2,3,2,-2,-5
1526905323752492,9,0,-2,-2,-3,1,-1,0
1526905323775430,-14,-15,-1,3,0,-2,0,0
1526905323775430,-23,-2,1,-4,-5,-2,-1,-2
1526905323776428,30,-9,-4,0,-1,-3,0,2
1526905323776428,4,8,-1,-6,0,2,0,-4
1526905323797372,0,1,-2,2,-1,-7,-8,-1
1526905323797372,-4,0,1,2,-1,0,0,-2
1526905323798369,-17,-2,-1,-6,-2,-2,-1,2
1526905323798369,-14,-16,-2,4,-2,-1,-1,-6
1526905323812332,16,9,-1,-15,-4,1,9,6
1526905323812332,-2,-2,-1,16,5,-2,-13,-6
1526905323813329,0,3,2,4,2,3,2,-1
1526905323813329,7,-1,-3,-6,-3,-1,3,4
1526905323835270,13,6,5,6,-2,0,-3,4
1526905323835270,3,0,0,1,5,1,2,-1
1526905323836268,-8,9,2,-11,-8,-10,-3,-1
1526905323836268,1,-7,-4,4,0,7,7,3
1526905323849233,-15,-20,-5,1,-2,-2,-1,-4
1526905323849233,6,11,0,-4,-1,0,0,4
1526905323857212,17,9,0,3,1,-1,0,-2
1526905323857212,7,-29,-1,-6,0,-3,-1,2
1526905323872172,2,10,0,-4,-3,0,-1,-2
1526905323872172,0,2,-1,-8,-4,3,3,4
1526905323873169,-5,0,-1,0,-3,-1,-5,-5
1526905323873169,-16,-3,-5,-3,0,-4,-4,-1
1526905323895111,4,5,-4,15,3,0,1,1
1526905323895111,1,-6,1,9,2,-1,1,3
1526905323896108,-16,-9,-2,-5,-2,1,-2,1
1526905323896108,-5,7,0,-5,-4,-4,2,-3
1526905323909073,-2,1,-6,-8,-3,-2,-3,-2
1526905323909073,1,-9,-1,-7,-2,1,2,0
1526905323917052,-4,14,-1,0,-1,5,0,-2
1526905323917052,-16,-5,1,0,2,2,2,1
1526905323932012,37,23,3,1,-2,-1,1,0
1526905323932012,-4,1,-1,-5,1,-3,-4,-4
1526905323933009,-14,-5,2,-2,2,1,2,-1
1526905323933009,10,4,-1,4,-2,-2,-6,0
1526905323954950,-29,-3,-1,4,0,0,-2,-2
1526905323954950,13,0,-1,-4,-1,2,1,0
1526905323955948,3,-9,-2,1,0,-3,-1,-1
1526905323955948,-10,5,0,0,-3,-3,-2,-2
1526905323977889,13,8,3,22,9,0,0,3
1526905323977889,-16,-2,1,12,1,-3,1,-6
1526905323978886,2,-34,2,10,5,3,3,3
1526905323978886,11,11,4,-6,-1,-5,-2,-1
1526905323991851,-10,1,-2,-11,-3,0,1,-2
1526905323991851,8,5,-3,-14,-9,0,2,-2
1526905323992849,-6,1,-3,-5,-1,-3,-4,-4
1526905323992849,9,6,1,6,0,-1,1,0
1526905324015787,-22,-26,-2,-6,-2,-3,-2,-5
1526905324015787,5,8,-3,-5,-2,-1,-1,1
1526905324015787,8,10,-1,0,-1,-1,-2,-1
1526905324015787,14,-5,-3,-9,-4,-2,-2,-1
1526905324037729,-16,3,-2,-1,3,0,-1,-3
1526905324037729,-1,-7,0,6,-5,0,-1,2
1526905324038726,-3,1,-2,-2,2,7,0,2
1526905324038726,4,1,2,1,0,1,0,1
1526905324051691,0,1,2,6,2,0,1,-5
1526905324051691,-3,-15,-3,-6,-2,6,-13,0
1526905324052689,8,4,-3,-5,-5,-20,-14,-3
1526905324052689,-6,1,1,3,0,0,-3,-4
1526905324075627,11,0,-2,-12,-6,0,2,1
1526905324075627,-6,-7,-2,0,5,0,0,-4
1526905324075627,7,3,-2,-1,-4,2,2,0
1526905324075627,-18,-22,-5,5,4,-1,-4,-1
1526905324097569,12,6,2,3,-2,-5,-2,1
1526905324097569,-13,1,2,11,4,-3,1,-6
1526905324098566,8,8,-3,-19,-7,0,2,2
1526905324098566,-2,3,-2,1,-1,-6,-1,-3
1526905324120509,-7,-13,5,23,5,12,4,4
1526905324120509,5,10,-1,-13,-5,-8,-3,2
1526905324121506,-2,-17,-5,-1,2,4,4,-4
1526905324121506,-15,9,-3,-11,-4,-7,-7,-1
1526905324134470,20,15,-2,-6,-6,0,-2,0
1526905324134470,-15,-36,-7,-6,2,-2,0,-3
1526905324135468,3,5,-1,-3,-3,-3,-2,-2
1526905324135468,5,6,4,15,1,1,3,-2
1526905324157409,4,3,-1,-2,1,-5,-1,-1
1526905324157409,8,11,-1,4,-2,1,5,1
1526905324158406,-5,0,0,4,-2,-1,3,1
1526905324158406,-2,-10,-3,-9,-2,3,1,-1
1526905324172369,-21,-21,-5,-17,-6,-5,-4,0
1526905324172369,10,8,1,14,3,0,0,-4
1526905324173366,-12,-3,4,8,5,-1,-2,2
1526905324173366,6,6,0,6,0,3,-2,-2
1526905324194310,-4,1,-2,-4,1,-1,-4,-1
1526905324194310,14,15,-1,-8,-4,-4,1,0
1526905324195308,-14,-17,-5,-5,-9,1,-1,0
1526905324195308,1,2,1,-1,2,-4,3,0
1526905324218246,-1,-8,-3,-4,-1,0,-2,-1
1526905324218246,0,2,-2,-16,-8,-3,-1,0
1526905324218246,-1,4,6,33,9,-1,-4,-1
1526905324218246,3,-5,-4,-11,-2,3,3,2
1526905324232209,-8,-2,-3,-1,2,0,6,-1
1526905324232209,-13,6,-1,-15,-3,-3,-8,-3
1526905324233206,0,-1,-2,0,3,-1,-4,-4
1526905324233206,15,-24,-1,7,1,1,-1,5
1526905324254150,6,17,0,-1,-2,-3,2,-3
1526905324254150,-6,-7,-1,-2,0,0,2,0
1526905324255148,-6,3,-3,-15,-5,-1,0,-1
1526905324255148,5,15,-3,4,3,0,-3,-2
1526905324278086,-15,-18,3,13,4,0,-4,-2
1526905324278086,15,5,2,8,-1,2,2,0
1526905324278086,3,3,-2,1,-4,-2,-7,1
1526905324278086,0,-2,-3,-7,-5,0,2,-2
1526905324292049,1,7,-2,4,3,-3,-3,-2
1526905324292049,-1,-14,-1,4,5,0,-1,-1
1526905324293046,5,11,5,-2,-1,-5,2,1
1526905324293046,-11,7,1,0,1,6,8,-1
1526905324314987,15,8,0,-6,-3,-1,-7,4
1526905324314987,-10,-16,-3,2,-1,-1,0,-4
1526905324314987,-4,-6,-3,-6,-1,0,0,2
1526905324314987,-4,5,1,-2,-2,-3,-4,0
1526905324337926,-7,-4,-3,-6,-5,-1,1,0
1526905324337926,13,14,0,-4,-3,-2,1,3
1526905324338923,-21,-18,-1,9,3,2,-3,-6
1526905324338923,6,6,-2,-5,2,-2,-1,-1
1526905324351889,1,-2,-1,8,-1,1,3,1
1526905324351889,9,13,1,-6,-2,1,-1,3
1526905324352886,-16,1,2,2,-1,-2,-1,-3
1526905324352886,-10,-6,0,6,4,-1,-2,-1
1526905324374827,19,-8,-3,-14,-8,-3,-1,0
1526905324374827,6,2,-1,2,0,-2,0,-4
1526905324375825,3,4,2,17,4,-1,2,1
1526905324375825,-8,-5,-5,-7,-5,-1,-3,-2
1526905324397766,-12,0,-2,0,-2,-2,-5,-2
1526905324397766,-20,-4,-3,-3,-4,-3,3,-1
1526905324398764,6,-12,-5,-8,-4,0,0,-2
1526905324398764,22,1,0,3,0,-3,-4,2
1526905324411728,-20,-6,0,-3,-1,-2,1,-6
1526905324411728,-3,-24,-10,-5,2,-2,-3,0
1526905324412726,3,-3,-2,-5,2,2,3,0
1526905324412726,-11,8,2,-9,-5,-3,-6,-3
1526905324434667,11,0,-1,1,0,-1,-2,0
1526905324434667,-8,4,3,2,1,-3,-3,-2
1526905324435665,19,4,0,-4,0,8,1,-1
1526905324435665,-11,-17,-3,-3,-3,-3,-3,1
1526905324457606,6,16,2,-8,-2,0,4,-1
1526905324457606,-5,-6,-2,12,2,8,-1,-2
1526905324458603,6,-5,-2,-7,-3,-1,1,-1
1526905324458603,-8,2,1,-3,-2,-1,1,3
1526905324472566,-4,-23,-3,1,4,0,2,-3
1526905324472566,-4,12,3,7,2,-1,-1,1
1526905324472566,-4,18,-1,2,1,-3,-3,-1
1526905324472566,-7,-31,-8,0,-1,-2,2,-1
1526905324494507,-1,0,2,-1,-1,-2,-2,-1
1526905324494507,11,-2,-1,-7,-6,-1,1,0
1526905324495505,-6,11,8,13,2,-2,-2,-2
1526905324495505,8,6,1,1,0,0,-1,1
1526905324517446,-8,2,-1,-1,0,-1,-3,-1
1526905324517446,-10,2,-1,0,0,0,0,-3
1526905324518444,32,19,-1,-10,-4,0,5,6
1526905324518444,-14,-6,3,13,7,1,-1,-1
1526905324532406,-3,3,-1,-5,-4,-3,-4,2
1526905324532406,7,-15,0,13,4,-2,-1,0
1526905324532406,-13,-5,0,-1,-3,-1,-1,-1
1526905324532406,2,8,2,-5,-3,0,-1,-1
1526905324554347,10,3,1,-5,0,-2,1,0
1526905324554347,-21,-25,-4,-5,1,-2,-2,-4
1526905324555345,-8,-7,-5,-4,-3,-7,-4,-4
1526905324555345,13,4,0,1,-2,1,6,3
1526905324578283,15,9,4,1,0,3,0,2
1526905324578283,-11,9,-2,-5,-1,-1,-3,-3
1526905324578283,-13,-38,-6,-6,0,1,0,1
1526905324578283,16,23,-1,2,1,-1,-3,-3
1526905324591249,-28,-21,-2,-3,-1,-1,-1,-3
1526905324591249,13,16,2,0,-1,-1,-1,-3
1526905324599227,-10,-6,-1,-6,-2,0,-1,-3
1526905324599227,-2,-3,-1,2,0,-2,-5,-8
1526905324614187,4,-2,-3,0,1,0,0,2
1526905324614187,0,-6,-4,-2,-2,-1,-3,-2
1526905324615185,5,14,1,0,-1,0,1,3
1526905324615185,-6,-7,-6,-10,-3,0,-5,-6
1526905324638123,23,20,-2,-1,-6,-3,-2,-2
1526905324638123,-7,-14,1,-3,-5,-3,1,1
1526905324638123,-2,8,-3,-3,0,2,1,0
1526905324638123,-4,-1,1,-1,-2,-4,-2,0
1526905324651088,9,-7,-1,6,0,1,-2,-2
1526905324651088,4,11,2,-6,-5,-2,1,3
1526905324660065,11,6,3,11,7,2,1,-1
1526905324660065,-7,-2,1,-5,-4,0,2,1
1526905324675024,-14,4,1,8,2,-2,1,-3
1526905324675024,3,4,2,-6,-2,1,-1,-3
1526905324675024,13,-15,1,2,-1,0,-1,1
1526905324675024,-8,2,-1,-7,-1,0,0,-1
1526905324697963,7,-3,0,-2,-1,-1,2,4
1526905324697963,-13,3,-2,-1,-3,-3,-1,-4
1526905324698961,2,-4,-7,-16,-5,-2,0,-8
1526905324698961,-5,-8,0,7,8,1,0,0
1526905324710928,-8,4,-1,-6,-4,1,-1,-1
1526905324710928,5,-12,-3,0,0,1,2,0
1526905324719905,-20,9,6,8,0,-5,0,0
1526905324719905,0,6,-4,-6,-6,-2,-1,-1
1526905324734864,-9,-2,-1,0,-2,-4,-3,-5
1526905324734864,-2,-1,-2,-12,-4,2,4,1
1526905324734864,13,6,-4,-6,-5,-2,-5,-3
1526905324734864,5,-9,3,4,1,2,2,1
1526905324757803,-1,-3,-1,-1,-1,-1,-2,4
1526905324757803,1,3,1,6,0,-4,-4,-4
1526905324758801,0,-15,-5,2,-1,0,1,-4
1526905324758801,-7,9,0,7,1,-3,-3,-2
1526905324771766,-6,-3,-4,-10,-4,1,-1,-3
1526905324771766,17,12,1,-2,0,-1,-1,1
1526905324779744,5,18,-1,-11,-4,-2,0,0
1526905324779744,2,-13,2,1,-5,0,-1,4
1526905324794704,2,11,5,12,7,4,1,-6
1526905324794704,-9,-2,-2,1,3,-1,-1,2
1526905324795702,-4,2,-1,1,-1,-2,-1,-3
1526905324795702,4,-2,0,-13,-6,-4,-2,-3
1526905324817643,-5,-12,2,6,-3,-1,6,-1
1526905324817643,-6,3,0,0,2,0,-6,0
1526905324818641,-2,-3,-5,-7,0,-2,0,-1
1526905324818641,8,2,-3,-6,-5,3,-1,2
1526905324831606,-5,-5,-3,-1,0,-4,3,-2
1526905324831606,4,4,2,13,7,-5,-3,-5
1526905324839584,-19,-6,-1,0,-4,7,2,1
1526905324839584,12,4,-2,-2,-2,-1,-2,-6
1526905324854544,5,-6,1,7,3,1,-3,3
1526905324854544,-10,8,1,-5,-5,-1,2,-1
1526905324855542,23,0,-1,1,-1,-5,-3,5
1526905324855542,-4,-10,-1,3,0,0,2,2
1526905324877483,-7,9,-1,-10,-3,2,0,-1
1526905324877483,22,5,-2,-12,-3,-1,-5,-4
1526905324878481,-8,-5,3,12,4,0,0,3
1526905324878481,-23,1,0,5,3,-2,-1,-6
1526905324900422,10,-11,-6,-10,-3,-3,-1,0
1526905324900422,-6,2,-2,-4,-2,-2,4,1
1526905324901419,-2,-6,-2,-12,-6,-2,-10,-3
1526905324901419,10,9,-4,1,-1,-2,0,3
1526905324914384,-15,-20,0,4,3,0,-2,-1
1526905324914384,9,0,-1,6,0,-2,1,2
1526905324915382,-3,4,-1,-6,-7,6,1,-1
1526905324915382,-16,-5,3,4,2,-3,-1,-5
1526905324937323,7,4,-1,-3,-4,-2,-4,2
1526905324937323,-10,2,2,5,-2,2,3,3
1526905324938321,-5,-14,-2,0,2,-4,-6,0
1526905324938321,10,13,2,0,-1,-1,-1,1
1526905324960262,-8,6,0,-1,-4,7,-2,-4
1526905324960262,-8,-6,-2,1,-2,-1,-2,-3
1526905324961259,15,12,0,3,4,-3,1,2
1526905324961259,10,-3,-1,-3,-3,2,3,1
1526905324974224,-11,-16,-2,4,11,-6,-3,-3
1526905324974224,8,4,0,-5,-9,2,3,0
1526905324975222,-7,-2,-1,2,5,-1,-13,-4
1526905324975222,-15,-10,-3,-9,-2,-3,1,0
1526905324998160,14,10,-1,-7,-3,-3,0,-3
1526905324998160,-7,-1,-4,-7,-4,-2,-4,-2
1526905324998160,-11,-1,3,-2,-1,-2,6,-2
1526905324998160,8,10,1,3,1,0,-2,1
1526905325020102,-11,-1,-6,-2,-3,-3,-2,-1
1526905325020102,6,-20,-3,-3,0,2,-2,5
1526905325021099,3,0,0,8,0,2,3,1
1526905325021099,-5,-7,-5,-1,2,4,-9,0
1526905325035061,7,13,-1,-16,-9,-1,5,2
1526905325035061,-10,-12,2,27,12,1,-1,0
1526905325035061,-10,0,-2,2,-4,0,2,0
1526905325035061,11,-11,-3,4,-2,2,-1,0
1526905325058000,1,-5,1,1,5,3,2,-1
1526905325058000,-1,10,-2,-11,-2,-2,-4,-3
1526905325058998,-3,-4,-3,-7,-3,-3,1,-1
1526905325058998,-14,7,3,3,0,-2,-6,-5
1526905325079942,13,15,-2,-1,-2,-3,-3,1
1526905325079942,6,-11,0,-6,-2,0,7,3
1526905325080939,-7,-5,-1,-6,2,-2,-1,-5
1526905325080939,0,0,-3,1,-2,-1,4,0
1526905325094902,-5,6,2,9,2,1,-3,-2
1526905325094902,5,4,2,-1,-2,-3,-4,-2
1526905325094902,3,3,0,4,2,-4,3,-1
1526905325094902,0,-14,-3,-10,-10,1,0,2
1526905325117840,-1,-1,0,2,-6,-7,-3,-5
1526905325117840,0,-3,-1,7,6,-2,-1,2
1526905325118838,-1,-11,3,7,-2,-1,0,0
1526905325118838,0,21,2,-5,4,0,1,-2
1526905325140779,-12,-30,-2,-5,0,2,-7,1
1526905325140779,1,6,-2,-3,-2,1,4,-3
1526905325140779,7,3,-3,-10,-7,-3,-3,-4
1526905325140779,-13,-13,-2,-6,1,0,1,-1
1526905325154741,-5,2,-1,2,-2,-1,0,-1
1526905325154741,-3,-1,0,-9,-6,0,2,-1
1526905325155739,5,0,3,11,5,2,-13,-1
1526905325155739,-13,2,2,8,0,-5,-1,-2
1526905325177680,11,-14,0,-5,-1,0,-1,1
1526905325177680,44,19,-1,1,0,-1,2,5
1526905325178678,-40,-12,-2,-2,-1,-1,2,-6
1526905325178678,17,10,3,-10,-5,-3,-2,2
1526905325200619,-6,13,5,6,4,1,2,-1
1526905325200619,0,-7,-7,-6,-6,-2,-6,-1
1526905325200619,1,0,-4,-2,4,2,5,0
1526905325200619,-3,-6,-1,0,2,-2,0,-3
1526905325214582,8,10,-3,3,1,1,3,1
1526905325214582,-7,5,2,1,2,-5,-3,-4
1526905325215579,-5,-8,-6,-10,-8,1,1,0
1526905325215579,9,-7,-6,-2,-2,7,-1,2
1526905325237520,-2,-4,-1,5,3,-2,-1,-2
1526905325237520,-10,-4,-4,-8,-3,-2,-3,-1
1526905325237520,1,4,5,10,4,1,1,3
1526905325237520,4,0,2,9,3,1,0,1
1526905325260459,-11,-6,-2,5,-5,-5,-5,0
1526905325260459,-48,-2,-1,5,1,1,-2,-4
1526905325261457,30,11,-5,-9,-5,-5,-1,1
1526905325261457,-14,-15,-2,-3,-5,-2,6,0
1526905325274421,-6,-1,0,0,7,4,-3,-3
1526905325274421,2,10,0,10,0,0,-2,-1
1526905325275419,2,-13,-2,-6,-3,0,0,2
1526905325275419,4,8,1,-3,0,-4,-1,-4
1526905325297360,-5,-2,-1,-6,-6,-1,1,-4
1526905325297360,11,1,3,1,-1,-1,-2,1
1526905325298358,-12,-2,-2,0,-2,-2,2,2
1526905325298358,2,7,-1,-1,-7,-1,-2,-2
1526905325320299,6,-1,-2,-2,-5,-4,-2,0
1526905325320299,-6,-18,-2,-9,-1,1,-3,-4
1526905325321296,-1,10,2,6,3,1,0,0
1526905325321296,21,8,-1,-2,0,-4,-2,3
1526905325334262,-20,-20,-4,-4,-5,-1,3,0
1526905325334262,11,3,-3,-11,-3,-1,3,0
1526905325335259,4,2,2,0,-1,-5,-7,0
1526905325335259,-9,-3,0,4,5,5,6,-4
1526905325357200,6,11,-3,-7,0,3,0,3
1526905325357200,7,-2,0,14,4,3,-2,0
1526905325358198,3,6,4,-1,-2,-2,4,-4
1526905325358198,-1,-5,-3,-2,1,-3,-7,1
1526905325380139,7,10,-2,-8,-5,-4,-1,-2
1526905325380139,-20,-19,-4,-4,-1,-2,0,-2
1526905325381136,1,6,-6,-9,-4,-1,1,-4
1526905325381136,-9,1,5,11,1,1,1,-2
1526905325394101,7,5,0,-4,0,-1,1,0
1526905325394101,8,-5,3,0,1,-1,-2,0
1526905325395099,-9,-13,-4,-10,-2,-3,-1,-1
1526905325395099,-1,-9,-4,-8,-2,-2,-2,6
1526905325417040,-8,-4,-3,-5,-1,-4,-3,-3
1526905325417040,3,16,3,10,1,0,1,1
1526905325418038,-1,-7,1,2,-1,2,2,4
1526905325418038,-16,14,-3,-5,-3,-2,-3,-4
1526905325439979,20,2,-1,2,-2,-1,1,6
1526905325439979,-5,3,2,-2,-3,0,-1,-1
1526905325440976,2,-1,2,2,1,2,1,-1
1526905325440976,-35,-7,-2,-1,-1,0,0,-4
1526905325454938,29,6,1,2,-3,-1,-3,-2
1526905325454938,-7,-2,-2,-5,-2,0,0,0
1526905325454938,4,10,3,-1,0,2,0,4
1526905325454938,-11,-9,-3,-6,0,-4,-1,4
1526905325476880,-18,-19,-2,9,2,2,-3,-6
1526905325476880,6,0,-4,-2,-1,-3,0,2
1526905325477877,18,8,-1,3,0,0,-1,-2
1526905325477877,-11,-17,1,0,-1,0,1,2
1526905325499819,-8,-4,2,-1,-2,-1,-3,-1
1526905325499819,13,5,1,-3,-1,-2,-4,0
1526905325500816,-18,-8,-3,-1,-1,-2,-2,0
1526905325500816,17,9,0,0,0,-3,-2,0
1526905325513781,-11,7,2,6,2,0,0,1
1526905325513781,-8,-11,-2,5,0,0,-1,-2
1526905325521760,-1,6,0,2,0,-2,-1,1
1526905325521760,16,5,0,-9,-4,0,-3,-3
1526905325536720,-7,-8,-2,-4,4,-6,-2,0
1526905325536720,3,9,0,-34,-1,6,6,-3
1526905325537718,-6,-3,-1,-22,2,-3,0,0
1526905325537718,7,-6,-4,-41,6,-1,-2,-5
1526905325560656,8,7,2,-30,1,-2,0,2
1526905325560656,-5,-15,-2,-8,0,-3,-3,-4
1526905325560656,3,-1,-1,1,2,2,0,-1
1526905325560656,9,12,-2,25,-3,0,-1,-1
1526905325573621,-6,-8,-3,19,-5,-1,1,2
1526905325573621,7,9,2,19,-3,-2,-2,1
1526905325582597,-30,1,-1,17,-6,2,-2,-4
1526905325582597,18,-4,-1,17,-5,-3,-2,-1
1526905325597557,-5,-6,-4,6,1,2,-1,-6
1526905325597557,-8,-2,1,17,-2,0,-2,-1
1526905325597557,0,-1,0,6,2,-1,-3,-4
1526905325597557,10,5,1,0,-1,-1,0,-1
1526905325620496,-5,-2,-3,-8,-4,-1,-2,-2
1526905325620496,-2,2,-2,-1,-4,-1,-2,-2
1526905325621493,-11,-13,-2,-1,-4,0,-2,-2
1526905325621493,17,9,1,4,-1,1,3,2
1526905325633462,-6,-10,-1,3,-1,0,-1,3
1526905325633462,6,3,-3,-2,-3,-5,-2,0
1526905325642437,-6,2,-3,-4,-3,-3,2,2
1526905325642437,-22,-7,-3,-2,-2,-1,0,0
1526905325657397,11,9,1,5,2,1,0,-2
1526905325657397,3,-8,0,4,2,-1,-2,-1
1526905325658395,12,3,0,-9,-4,-2,0,-2
1526905325658395,-5,-22,-7,-4,0,0,-1,-1
1526905325680336,8,16,4,5,0,1,0,-1
1526905325680336,-12,-15,-1,1,3,-1,-1,1
1526905325681334,39,13,-4,-5,-7,-3,-1,0
1526905325681334,-25,-25,-3,-5,-2,-4,-6,-9
1526905325694299,9,7,1,9,0,1,1,3
1526905325694299,-12,-3,3,3,0,0,1,0
1526905325702277,-1,1,1,-5,-1,-2,-2,-2
1526905325702277,3,3,-3,6,-1,-1,-1,1
1526905325717237,4,-7,-4,-8,-4,0,-2,-3
1526905325717237,0,7,0,-6,-1,0,-3,-1
1526905325718235,0,-6,-2,3,2,1,-2,-6
1526905325718235,-7,5,1,-1,-1,-12,-9,1
1526905325740176,6,7,-4,-4,-1,6,9,-2
1526905325740176,-24,-32,-5,1,-1,-2,-1,0
1526905325741173,4,9,-1,-11,-7,-1,3,1
1526905325741173,19,-15,2,34,11,5,3,-1
1526905325754138,-8,4,-3,-15,-5,-3,-7,-6
1526905325754138,11,11,0,5,3,-1,0,1
1526905325762117,-6,2,0,-6,3,-1,0,-1
1526905325762117,-5,8,0,-8,-3,0,-2,-1
1526905325777077,-4,-3,-1,-5,-3,-2,1,2
1526905325777077,0,2,-4,-5,-5,-1,-2,-5
1526905325778075,3,-5,3,14,10,0,-5,-3
1526905325778075,1,10,1,-10,-4,1,5,2
1526905325800016,-14,-6,-2,-3,-1,0,-1,0
1526905325800016,10,12,-2,-17,-4,-9,-6,-1
1526905325801013,-14,8,1,-14,-7,4,-3,0
1526905325801013,-15,-36,-7,-8,-5,-4,1,1
1526905325813978,20,10,-3,5,-1,-5,0,3
1526905325813978,1,4,1,8,2,-1,-1,-1
1526905325821957,-5,-7,0,6,0,-1,-1,0
1526905325821957,-4,17,1,1,-1,1,-1,-4
1526905325836917,-16,-9,0,-2,-3,0,-1,-2
1526905325836917,3,13,3,5,0,-5,5,3
1526905325837915,12,-19,-7,-2,-5,7,1,0
1526905325837915,0,13,1,-14,-5,1,-6,-2
1526905325859856,1,-9,7,27,12,3,-1,-2
1526905325859856,6,1,-3,-2,-4,3,6,0
1526905325860853,-21,-4,3,17,7,-6,-3,0
1526905325860853,18,5,-1,-7,-3,1,4,1
1526905325882794,-5,1,0,-15,-4,1,3,1
1526905325882794,3,-9,-2,-5,-1,2,-3,-2
1526905325883792,3,10,0,-4,-2,-3,-2,-2
1526905325883792,1,-6,-2,7,-3,0,-4,-2
1526905325896757,-1,11,3,24,2,-2,-2,-3
1526905325896757,-2,-2,-1,20,0,4,3,-2
1526905325897755,-1,-8,-3,1,-6,-7,-6,-3
1526905325897755,-5,13,4,0,-3,-1,1,1
1526905325920693,1,-8,-1,5,3,6,-2,-1
1526905325920693,-1,1,1,0,3,-7,-5,2
1526905325920693,7,-1,-3,-18,3,12,3,2
1526905325920693,5,0,2,8,4,0,1,5
1526905325942634,-18,8,-7,-37,-13,1,-7,-6
1526905325942634,14,-19,-3,-4,1,-13,-14,0
1526905325943632,-10,-3,2,0,0,0,-2,-1
1526905325943632,16,13,-3,-19,-4,-2,-1,3
1526905325956597,0,-14,-2,-9,-1,2,1,-3
1526905325956597,-11,6,-2,-14,-5,3,-3,-5
1526905325957594,4,-1,-4,1,-3,-5,1,1
1526905325957594,-3,1,1,0,3,2,0,-2
1526905325980533,-7,-5,1,4,2,-6,-3,0
1526905325980533,-4,-7,-2,-6,-6,3,-1,-4
1526905325981531,5,0,2,14,9,-5,2,1
1526905325981531,-11,2,0,9,4,5,8,0
1526905326002474,11,4,2,-8,-3,2,-4,2
1526905326002474,-19,-18,-1,2,1,5,3,2
1526905326003472,0,2,1,-3,-4,0,-5,-3
1526905326003472,13,3,-3,-2,-2,0,0,-4
1526905326017434,-18,-18,-3,2,0,-6,-2,2
1526905326017434,5,10,-1,-2,-3,1,0,0
1526905326017434,-14,-3,0,1,-7,0,2,-2
1526905326017434,4,-3,0,0,-5,-4,-7,-1
1526905326040373,4,3,-3,-7,-4,-1,0,-3
1526905326040373,-7,6,0,2,0,1,-1,-4
1526905326041371,-3,-27,-9,-3,-1,-3,2,-1
1526905326041371,16,18,0,-5,0,-5,-5,-3
1526905326062315,-13,-12,-1,0,1,0,3,-3
1526905326062315,-22,-14,-4,-6,2,2,2,-1
1526905326063312,9,6,-1,-1,0,-2,-3,2
1526905326063312,-13,-1,2,11,1,-2,-2,2
1526905326077274,8,2,-1,-1,-3,-3,0,1
1526905326077274,3,6,3,-2,1,-2,1,0
1526905326078272,-20,10,3,27,7,1,-5,-2
1526905326078272,-13,-30,-3,-5,-1,2,4,-1
1526905326100213,9,10,1,12,8,-3,-9,-2
1526905326100213,8,0,-1,-8,-5,1,2,-1
1526905326101210,2,6,0,-13,-2,-1,0,-2
1526905326101210,12,6,0,-1,3,-3,1,4
1526905326123152,4,8,2,1,-1,-1,3,3
1526905326123152,14,-3,-4,-3,3,-4,-6,-2
1526905326123152,-11,-14,3,16,4,1,2,1
1526905326123152,-10,-2,0,-4,1,0,0,-3
1526905326137114,12,6,-3,-9,-5,-2,1,-2
1526905326137114,13,1,0,-6,-5,0,2,-2
1526905326138112,20,-5,-7,-17,-4,-5,-1,0
1526905326138112,-13,-2,0,12,-2,2,-3,-2
1526905326160053,-5,-4,4,9,6,11,0,1
1526905326160053,-1,6,-2,-10,-4,-17,-5,-3
1526905326161051,2,15,3,4,-1,-1,0,-3
1526905326161051,-6,-12,-5,-10,-5,-3,-3,0
1526905326182992,7,3,-2,-5,-5,-8,0,-1
1526905326182992,-15,-12,1,6,0,7,-2,-1
1526905326183989,16,11,1,-2,0,0,1,0
1526905326183989,-20,5,-1,-3,-3,-2,0,0
1526905326196954,-4,-10,0,1,1,3,3,-2
1526905326196954,7,4,-1,4,-1,-3,1,2
1526905326197952,-4,0,0,-7,1,0,-2,-5
1526905326197952,8,14,3,2,2,2,-3,-6
1526905326219893,-17,-18,-7,-9,-3,-4,-2,-2
1526905326219893,19,11,-2,-4,-2,0,0,0
1526905326220890,-5,-33,-5,-10,-5,2,-4,1
1526905326220890,-5,-6,0,4,6,-2,-2,-2
1526905326242832,10,12,4,7,1,2,1,0
1526905326242832,-9,6,4,13,5,-1,-5,-1
1526905326243829,2,1,-5,-7,-5,-4,1,0
1526905326243829,5,-4,-4,-13,-7,-1,1,-5
1526905326256794,-1,-3,1,-4,-2,-3,-3,-5
1526905326256794,-5,-7,-3,0,-2,3,5,6
1526905326257792,6,-4,2,-1,-4,0,-2,-1
1526905326257792,-7,-14,0,5,0,1,-2,-1
1526905326280730,16,12,2,0,-3,-2,-2,1
1526905326280730,-3,-9,0,0,-1,0,-1,-5
1526905326280730,-2,-2,-2,-4,-2,-1,1,3
1526905326280730,-8,0,-2,-6,0,-2,0,1
1526905326302671,29,11,0,1,-1,-3,-1,4
1526905326302671,-17,-15,-4,-3,-2,-8,-4,1
1526905326303669,5,6,-4,0,-1,6,6,-3
1526905326303669,5,3,3,-2,-2,0,-1,-3
1526905326316634,-11,-10,-2,3,0,-4,-1,2
1526905326316634,7,9,0,2,0,2,5,-2
1526905326317631,-7,8,-3,-2,2,-2,-9,-4
1526905326317631,-2,-33,-8,-3,0,-2,2,1
1526905326340570,-2,-1,-2,2,0,-1,-1,-1
1526905326340570,4,1,-1,-2,-2,3,4,5
1526905326340570,-14,-11,-1,3,1,-2,2,1
1526905326340570,12,8,0,1,-3,0,0,0
1526905326362512,-8,-4,-1,-1,-1,-3,1,0
1526905326362512,15,0,-1,-7,-2,-2,-2,0
1526905326363509,-3,5,1,-1,-3,-3,0,1
1526905326363509,-6,3,1,8,2,-2,-2,0
1526905326377472,-1,0,-2,-7,-3,2,-3,-2
1526905326377472,29,-7,-1,-6,-2,3,-2,-6
1526905326377472,-16,-8,1,5,-2,-2,-2,-1
1526905326377472,16,11,-1,-5,-4,1,-1,-1
1526905326399413,-11,2,-2,1,-2,-4,-5,-4
1526905326399413,9,6,-1,-1,-1,5,-2,-4
1526905326400410,13,6,1,-1,1,-2,-1,2
1526905326400410,-3,-4,-2,-1,-2,-2,0,3
1526905326422351,-8,-3,1,0,-3,-2,0,-1
1526905326422351,-13,-6,0,-1,0,-2,-4,-1
1526905326423349,-16,8,4,-3,-1,1,-2,-6
1526905326423349,25,22,0,-1,1,-2,1,1
1526905326436314,-17,-28,-2,-7,-1,-1,-2,-1
1526905326436314,-17,9,-2,0,0,-2,2,1
1526905326444293,2,9,0,2,0,-2,0,3
1526905326444293,6,3,-2,-12,-5,-2,-1,-3
1526905326459253,7,10,4,-9,2,0,0,-2
1526905326459253,-25,-6,0,-37,-1,1,-1,-2
1526905326460250,9,2,-4,-29,-3,-2,-1,5
1526905326460250,-8,-8,0,-11,3,0,-2,-1
1526905326483189,-10,2,-4,7,-1,0,0,-1
1526905326483189,0,2,-1,16,-4,-3,-4,-2
1526905326483189,-4,-9,-1,14,-3,-1,0,1
1526905326483189,-12,0,3,22,5,1,-1,-1
1526905326496154,9,1,-2,26,6,0,-2,-4
1526905326496154,-11,-10,-6,4,1,0,2,1
1526905326505130,-5,-3,-1,1,-3,-1,-12,-4
1526905326505130,6,-12,1,12,1,-1,-1,-1
1526905326519093,-5,-4,-3,-9,-4,-1,2,1
1526905326519093,19,15,1,6,1,0,-1,0
1526905326520090,1,-2,0,4,0,-1,-2,-8
1526905326520090,1,-2,-2,-6,-2,-1,-1,3
1526905326543029,3,7,-3,-4,-2,-2,-4,-3
1526905326543029,3,-15,-2,7,-3,0,1,0
1526905326544026,0,16,1,3,2,1,2,-1
1526905326544026,-3,-13,-2,-1,0,-2,-3,-2
1526905326555994,5,2,-1,-3,-2,-1,0,-3
1526905326555994,-17,-3,1,5,1,-1,0,-1
1526905326564970,10,2,1,-2,-3,-2,-1,-5
1526905326564970,-10,-3,-2,-11,-4,-1,-2,3
1526905326579930,-5,-7,1,2,-2,0,-2,-2
1526905326579930,7,17,3,-13,-1,3,0,1
1526905326579930,-14,-24,-1,19,5,-2,-1,0
1526905326579930,-2,8,0,-7,1,0,0,-5
1526905326602869,8,0,-5,-12,-4,-3,0,3
1526905326602869,4,-2,-1,5,0,0,1,1
1526905326603866,-4,4,-1,-2,-3,-1,-1,0
1526905326603866,-2,-7,-3,-7,-6,-1,-1,-1
1526905326616831,-26,-7,0,-1,2,0,0,0
1526905326616831,15,6,-5,2,1,-4,-3,-2
1526905326624810,-9,-13,-2,-1,-1,-2,-1,2
1526905326624810,-5,10,1,0,0,0,-2,-1
1526905326639770,6,21,2,-6,-3,0,-1,-1
1526905326639770,-3,-15,-1,4,-1,-1,2,0
1526905326640768,1,9,0,-2,-2,-1,0,-1
1526905326640768,-5,-6,-4,-4,-6,-1,0,0
1526905326662709,8,-1,0,9,1,-1,1,0
1526905326662709,-7,6,2,6,0,0,-2,-1
1526905326663706,12,3,-5,-15,-4,-3,-2,3
1526905326663706,-19,-3,0,3,5,-1,-1,-4
1526905326676671,0,-4,-4,-7,-3,-2,-2,-2
1526905326676671,7,11,3,10,2,-2,-3,0
1526905326684650,-23,-25,-6,2,-3,4,2,-3
1526905326684650,-4,-10,2,12,-4,-1,4,1
1526905326699610,0,-1,0,11,8,5,-5,1
1526905326699610,-5,-4,-4,-11,-5,-1,3,0
1526905326700608,14,11,0,-5,-1,-4,-2,-3
1526905326700608,0,15,-6,-10,-4,-3,-3,-2
1526905326722549,5,-10,-3,-11,-2,-4,3,6
1526905326722549,-12,-2,-1,-6,-2,0,0,0
1526905326723546,16,5,1,3,-2,2,3,3
1526905326723546,10,7,0,3,1,-2,-2,-2
1526905326736511,18,0,-2,1,-1,-1,1,2
1526905326736511,-1,10,-4,-2,-1,-1,-5,-3
1526905326744490,-12,-13,-2,7,1,-2,1,4
1526905326744490,5,0,1,1,0,0,-2,-6
1526905326759450,-6,-6,1,-13,-8,-5,-2,-1
1526905326759450,7,3,4,12,2,0,0,3
1526905326760448,-1,5,3,20,8,4,6,-4
1526905326760448,7,-1,-3,-13,-2,-5,-20,-1
1526905326782389,-11,-1,2,16,3,-1,-1,-3
1526905326782389,-4,1,-3,-12,-4,1,5,0
1526905326783386,15,-3,-3,-10,-2,0,-2,-2
1526905326783386,-33,-6,3,4,1,4,8,0
1526905326805327,36,7,-4,-4,-3,-2,-3,2
1526905326805327,-10,-13,-4,0,0,-2,-5,-1
1526905326806325,1,3,1,-9,-3,0,-2,-1
1526905326806325,10,-1,-1,-1,-2,-1,0,3
1526905326819290,-14,2,-3,-4,-3,0,0,-2
1526905326819290,-2,-10,2,7,0,1,-2,-5
1526905326820287,-6,4,-4,-7,0,-6,-3,1
1526905326820287,-7,6,3,24,2,5,4,-1
1526905326843226,2,-4,0,-1,0,2,0,0
1526905326843226,0,1,-3,-3,-8,-3,1,0
1526905326843226,-1,7,4,2,7,-2,-16,-4
1526905326843226,1,-15,-3,10,-4,0,2,0
1526905326865167,-28,-16,-2,7,-1,2,3,-4
1526905326865167,1,11,-3,-9,-5,-5,-2,0
1526905326866165,9,5,1,0,-5,-2,2,3
1526905326866165,-5,1,-4,-9,-1,0,-2,-4
1526905326879130,13,-5,-2,-3,-3,0,2,0
1526905326879130,-7,-7,1,-3,6,0,-4,-2
1526905326880127,-4,-5,-4,-10,-3,1,3,0
1526905326880127,11,4,1,-8,3,-3,-1,3
1526905326903066,-7,10,3,6,-6,-1,0,0
1526905326903066,8,-9,-2,-4,0,1,-1,1
1526905326904064,-3,0,-4,-1,-2,-4,0,-5
1526905326904064,10,1,-1,-8,-2,-3,1,1
1526905326925007,4,8,0,-9,-2,-3,-4,-6
1526905326925007,-30,-11,-2,-15,-5,-8,-2,-4
1526905326926005,27,13,0,13,-2,6,1,4
1526905326926005,-6,0,-1,2,2,-3,1,-2
1526905326939967,-17,-6,-3,-9,-2,-3,-7,0
1526905326939967,5,-5,1,6,2,2,1,3
1526905326939967,-19,-3,-1,-8,-2,-2,0,-1
1526905326939967,13,5,1,3,1,-1,-5,-2
1526905326962906,5,9,0,3,5,1,0,2
1526905326962906,-10,-9,-5,-7,-4,0,-3,-3
1526905326963903,-13,-9,-2,-3,-3,-9,-5,0
1526905326963903,25,11,-2,0,-3,8,11,7
1526905326984847,-2,-9,-3,-4,-1,1,-1,-2
1526905326984847,8,7,4,0,-1,2,-6,-6
1526905326985845,-6,-1,-1,-6,-3,-2,1,-2
1526905326985845,-13,-10,-1,-5,-1,-1,-5,-2
1526905326999807,10,-5,-3,-9,-4,-1,1,-2
1526905326999807,-3,2,-1,0,1,0,1,0
1526905327000805,18,4,4,19,6,1,2,0
1526905327000805,-11,-21,-7,-18,-9,-4,-1,-5
1526905327022746,-5,-1,0,10,5,2,5,0
1526905327022746,1,-12,-2,3,-6,3,-2,0
1526905327023744,-5,-9,-1,-8,2,0,0,-2
1526905327023744,-7,0,-1,-7,0,0,-3,-4
1526905327045684,21,21,1,9,5,-1,2,1
1526905327045684,3,0,-2,4,-2,-3,-1,2
1526905327045684,3,-2,-3,-12,2,0,-2,-2
1526905327045684,-2,-3,0,4,1,-4,-2,-1
1526905327059647,-7,-10,2,-9,-5,-2,-4,-4
1526905327059647,2,13,7,30,11,-3,0,2
1526905327060645,-7,-5,-5,-4,-5,7,1,-2
1526905327060645,1,7,-2,-1,1,-1,0,2
1526905327082586,-4,-18,-3,-4,-3,-1,1,3
1526905327082586,6,8,5,15,4,3,-1,0
1526905327083583,-2,-2,0,-9,-4,-3,-1,-1
1526905327083583,3,3,0,6,1,-1,-1,-3
1526905327105525,-16,7,0,1,4,1,3,3
1526905327105525,11,-4,-4,-9,-2,-2,-2,1
1526905327106522,-16,3,0,6,2,-1,1,-3
1526905327106522,14,5,1,-4,-5,0,1,-1
1526905327119487,-12,-14,-2,0,-1,-4,-5,-2
1526905327119487,-1,-12,-1,-7,-2,0,1,-3
1526905327120485,-10,2,-2,-2,-2,-3,-3,-1
1526905327120485,3,-2,-2,-5,-3,-1,-1,-1
1526905327142426,-5,0,2,9,6,2,-1,-2
1526905327142426,4,4,2,-4,-1,0,7,1
1526905327143423,-2,-6,-4,-10,-9,-2,-12,-4
1526905327143423,-16,-3,7,25,10,2,1,2
1526905327165364,7,5,-2,-1,-3,1,-1,-1
1526905327165364,3,13,-1,-15,-4,-2,1,-2
1526905327166362,9,-17,-3,9,2,4,2,3
1526905327166362,-9,-3,-2,-9,-5,-2,1,0
1526905327179327,6,2,0,-8,1,-2,-4,-4
1526905327179327,2,-4,-6,4,0,3,-6,-4
1526905327180325,4,2,2,-6,5,-3,4,3
1526905327180325,-5,4,-1,-2,-2,-3,-1,-3
1526905327203263,16,-12,-3,-4,-1,-2,0,0
1526905327203263,-1,-2,-2,-3,2,-2,-3,-2
1526905327203263,23,16,-2,0,-2,-1,1,-2
1526905327203263,2,-23,0,1,0,2,1,0
1526905327225204,-16,8,3,0,-3,-5,-2,-2
1526905327225204,-9,-5,-1,-2,-1,-1,-1,-3
1526905327226202,-14,1,0,2,-1,-2,0,0
1526905327226202,19,18,-5,-8,-4,-1,1,4
1526905327239167,6,-24,-4,-10,-4,0,1,0
1526905327239167,-8,-4,-1,3,-1,-1,-2,-3
1526905327240165,-6,4,2,1,-7,0,0,-2
1526905327240165,-9,0,-1,1,2,1,-3,-3
1526905327263103,6,2,-2,-2,-7,-2,-4,-3
1526905327263103,-7,-6,-2,-9,-4,-1,3,4
1526905327263103,7,4,0,1,-6,-4,-2,-1
1526905327263103,-9,-10,-2,-5,-2,-1,-4,-3
1526905327285044,-10,5,2,-3,1,1,-2,1
1526905327285044,19,5,-4,0,3,-2,-1,3
1526905327286042,-16,3,2,2,0,0,0,-1
1526905327286042,21,3,-2,-3,-4,-1,0,-2
1526905327300004,-21,-3,0,-1,-2,-1,3,-1
1526905327300004,-9,4,2,-1,-3,-3,-3,0
1526905327300004,-6,-1,-4,-2,0,0,1,-2
1526905327300004,-2,-10,0,-1,-4,-3,-1,2
1526905327322943,10,9,-1,2,-1,-1,-2,-4
1526905327322943,-2,2,0,1,-2,-1,-1,-3
1526905327323941,-3,-3,-3,-3,1,0,0,2
1526905327323941,-2,0,0,3,1,-2,0,0
1526905327344884,8,1,-2,-6,-5,-1,-3,-1
1526905327344884,-4,0,0,-7,2,0,1,-2
1526905327345882,6,4,3,12,2,0,0,-1
1526905327345882,0,-13,-3,-4,1,1,-1,-2
1526905327359844,-9,5,2,17,4,-1,-4,1
1526905327359844,25,-1,-1,-8,-4,-2,-2,2
1526905327360842,0,-7,-1,-7,-6,-1,1,-2
1526905327360842,-5,-2,-1,0,0,-1,-1,-3
1526905327382783,20,10,-6,4,-1,-4,-2,-2
1526905327382783,13,16,7,-2,-1,1,0,-3
1526905327383781,-8,-12,2,5,2,1,-1,4
1526905327383781,2,4,-3,-2,-4,-3,-4,-4
1526905327405722,-13,-4,-3,-5,-1,1,0,-5
1526905327405722,10,-9,-3,1,0,-2,-1,2
1526905327405722,10,2,-1,-4,0,0,0,0
1526905327405722,-12,0,4,3,1,0,-2,-4
1526905327418687,16,7,-1,1,-1,0,3,2
1526905327418687,-24,-7,-4,-3,-3,-1,2,0
1526905327426665,-2,-9,-5,-6,-4,-1,-2,-2
1526905327426665,3,9,2,3,-1,0,-1,-2
1526905327442623,-10,-4,-1,-2,1,0,1,0
1526905327442623,-1,-6,0,8,3,2,-1,-2
1526905327443621,13,16,1,-5,0,-1,0,-2
1526905327443621,-14,-21,-6,-4,-2,-2,-1,2
1526905327465562,0,4,2,0,-3,-2,-5,-7
1526905327465562,-19,-2,-1,2,-1,-1,-1,-1
1526905327466559,4,-2,-2,1,2,0,1,-1
1526905327466559,-1,1,2,6,-1,-3,-1,-1
1526905327478527,1,-9,0,-2,-2,0,1,3
1526905327478527,-11,-5,1,8,0,-2,0,-2
1526905327486506,-20,-1,-4,-5,1,-3,-2,-6
1526905327486506,14,12,-4,-10,-2,0,1,3
1526905327502463,2,-2,1,9,2,1,1,0
1526905327502463,-11,-19,0,-6,-2,-2,-3,-3
1526905327502463,15,9,0,5,1,-1,2,8
1526905327502463,-7,1,2,-1,0,1,-3,-4
1526905327525402,10,-8,-4,-6,-2,-3,-3,0
1526905327525402,8,14,-5,0,-2,-3,-4,-3
1526905327526399,-1,-9,0,2,1,0,0,-6
1526905327526399,15,13,-1,3,1,0,1,4
1526905327539364,-19,0,-1,-7,-3,0,-1,-1
1526905327539364,3,6,1,9,-1,-3,-1,-1
1526905327547343,-13,-10,-1,-9,0,-1,1,-3
1526905327547343,10,20,1,-12,-2,-1,-2,-2
1526905327562303,-2,3,5,-10,5,0,4,1
1526905327562303,-2,-5,-3,-42,0,0,0,0
1526905327563300,-3,-2,-2,-29,-4,-3,-1,-2
1526905327563300,-2,-15,-6,-10,-2,-2,0,0
1526905327585241,25,1,-3,2,-3,-1,-3,4
1526905327585241,-17,9,4,13,-3,-2,3,1
1526905327586239,-18,-16,-4,16,-3,0,-1,-2
1526905327586239,-11,-15,-4,10,0,-2,-1,0
1526905327599204,12,0,-2,10,-2,-2,-3,-2
1526905327599204,2,5,0,14,0,-1,-1,-1
1526905327607183,-11,-4,-3,6,-2,-2,-2,-1
1526905327607183,4,14,0,-5,-7,-1,-2,-1
1526905327622143,-12,-15,0,21,8,0,1,0
1526905327622143,-3,1,2,7,1,2,0,1
1526905327623141,13,11,-1,-1,0,2,2,1
1526905327623141,-6,-6,-6,-4,-5,-2,-1,-5
1526905327645081,-20,-28,-4,-15,-5,-5,-2,0
1526905327645081,24,-2,-3,-3,-3,1,-2,-1
1526905327647077,0,1,3,9,6,0,-3,1
1526905327647077,-6,5,-1,5,2,-1,0,1
1526905327659044,-9,4,-4,-12,-7,0,-1,-7
1526905327659044,0,-9,-3,-2,0,-2,-4,0
1526905327667023,-14,-6,-3,-8,-4,-2,-1,1
1526905327667023,18,3,1,4,1,-1,0,5
1526905327681983,-14,-5,1,-1,-3,-3,0,-2
1526905327681983,17,28,2,2,1,1,2,1
1526905327682980,7,-33,-2,2,-1,-1,0,0
1526905327682980,-19,-5,0,-5,0,-1,-2,-6
1526905327704921,12,11,1,-1,1,2,-1,3
1526905327704921,-9,5,2,3,2,1,-1,-4
1526905327705919,12,5,1,1,-3,-1,-1,3
1526905327705919,-12,-6,2,14,8,0,-2,-1
1526905327718885,18,-8,-4,-5,-2,-3,-3,-3
1526905327718885,-7,-4,-4,-3,0,0,-1,-1
1526905327726863,2,15,0,1,-3,1,0,1
1526905327726863,-7,-17,3,1,0,2,-1,-3
1526905327741823,2,8,-4,-4,0,-6,-4,-4
1526905327741823,-4,-31,-8,-9,-7,4,3,0
1526905327742821,-7,2,-1,0,1,-4,3,-1
1526905327742821,3,14,2,0,1,2,0,-2
1526905327765759,-6,-7,1,12,2,2,4,0
1526905327765759,1,1,-2,-5,-6,-4,-2,-1
1526905327765759,-2,4,0,11,3,1,-3,-6
1526905327765759,3,-6,-1,6,-2,-3,0,2
1526905327787700,9,4,1,-2,-2,-2,-3,-2
1526905327787700,-3,-4,2,9,3,-3,5,5
1526905327788698,-3,5,0,-2,-1,-1,-1,-1
1526905327788698,-5,2,1,3,0,-1,-1,0
1526905327801663,23,5,-2,-2,-2,3,-1,0
1526905327801663,3,-2,1,1,0,-2,0,2
1526905327810639,16,11,-1,-4,-4,-3,-6,-5
1526905327810639,-12,-1,-1,7,1,-2,-2,-3
1526905327825599,-9,1,0,3,-4,2,6,0
1526905327825599,5,0,0,0,-1,-1,-4,-1
1526905327826596,0,-6,-1,-9,-4,1,-1,-1
1526905327826596,20,6,-3,-15,1,-2,0,-5
1526905327847540,-26,-25,-1,7,-1,0,-6,-1
1526905327847540,-11,4,-1,0,6,4,-2,0
1526905327849535,2,-6,-6,-13,-2,-1,3,-1
1526905327849535,0,-2,-2,-12,-2,3,-2,-3
1526905327861503,-5,11,1,-7,-1,2,2,1
1526905327861503,-3,-5,0,-1,-1,-3,-3,-2
1526905327870479,-2,-8,0,1,0,0,-4,1
1526905327870479,17,7,1,-3,-2,1,3,1
1526905327885439,-2,-3,-2,-10,0,-3,-3,1
1526905327885439,-6,-1,0,1,-2,0,-1,-4
1526905327887434,-2,4,0,1,-1,-3,0,2
1526905327887434,-4,4,0,0,-4,-2,1,2
1526905327907380,4,18,2,0,1,0,0,-5
1526905327907380,-8,-29,-7,-3,-2,-2,0,1
1526905327909375,5,8,4,1,0,1,0,-1
1526905327909375,1,-6,-5,-4,-5,-4,-4,-1
1526905327921343,-7,6,0,-1,2,0,0,1
1526905327921343,0,9,1,16,6,1,9,1
1526905327930319,-2,-5,-3,-5,3,-12,-16,-3
1526905327930319,-7,-1,5,23,-4,0,-4,3
1526905327945279,-1,-3,-4,-22,-7,-7,6,-3
1526905327945279,7,9,0,5,-4,-2,-3,0
1526905327947274,0,0,0,0,3,3,4,2
1526905327947274,-15,-13,-6,-8,-2,-5,-1,-1
1526905327968217,31,14,-1,2,0,0,-4,2
1526905327968217,-7,-19,-3,-2,0,-1,0,-1
1526905327969215,-11,8,0,2,-3,0,1,-1
1526905327969215,5,8,-1,-10,-3,1,0,-1
1526905327981183,6,-1,0,-9,-2,-1,2,1
1526905327981183,-10,1,1,0,2,0,-1,-2
1526905327990159,3,-7,-3,-5,-6,2,2,1
1526905327990159,-5,1,-2,-4,1,-3,-5,0
1526905328005119,-1,-12,-4,-2,0,0,0,2
1526905328005119,-1,9,-3,-17,-7,-3,-1,2
1526905328007114,1,-8,0,13,4,3,3,-4
1526905328007114,1,-3,0,0,0,-3,1,0
1526905328028057,-8,-2,0,0,-3,-3,-1,-7
1526905328028057,-1,-6,-5,-8,-4,-2,-3,-3
1526905328029055,17,19,0,1,-5,-5,-4,0
1526905328029055,-3,-6,-4,1,5,4,8,-4
1526905328041023,-30,-31,-4,1,2,6,-3,3
1526905328041023,19,10,-1,-1,-5,-2,0,1
1526905328049998,-6,-1,1,-4,1,-2,3,0
1526905328049998,6,1,2,2,-2,-1,-2,1
1526905328064959,-3,3,-2,-5,0,-2,-3,-1
1526905328064959,-5,-1,-2,-1,2,0,1,-3
1526905328066954,-9,-1,-1,3,0,2,1,-3
1526905328066954,-3,-1,0,6,2,1,0,1
1526905328087897,5,8,5,3,-1,0,-1,1
1526905328087897,-10,6,0,-7,-4,-3,-4,-5
1526905328089892,16,-9,-4,-3,-2,-1,-2,-1
1526905328089892,-5,-5,-3,-3,0,-1,0,0
1526905328101860,-4,2,2,15,6,1,1,1
1526905328101860,3,0,-2,-3,-3,-3,-4,0
1526905328110836,-15,-1,2,-5,0,-1,2,-2
1526905328110836,7,5,-1,-8,-4,-3,-3,1
1526905328125796,1,-4,2,18,2,-1,1,1
1526905328125796,3,6,2,-2,0,-3,-11,-3
1526905328126794,-2,-12,-4,-2,-4,2,2,-3
1526905328126794,1,2,3,10,1,-7,0,0
1526905328147737,0,23,-2,-9,-7,5,-1,-3
1526905328147737,1,-26,-3,1,2,1,2,4
1526905328149732,-8,-2,0,-1,-2,-1,-3,0
1526905328149732,-2,9,-1,4,3,2,1,-2
1526905328161700,9,-8,-6,-12,-8,-4,-3,1
1526905328161700,-3,0,2,8,2,1,0,-4
1526905328170676,1,-4,1,2,-1,1,0,1
1526905328170676,-11,-2,2,7,7,-2,-1,-4
1526905328185636,-4,-4,2,16,5,-1,1,-1
1526905328185636,3,3,-1,-4,3,-5,0,1
1526905328186633,-1,0,-1,-13,-7,1,-2,3
1526905328186633,-4,-2,2,12,-1,0,3,1
1526905328207577,6,-1,-4,-8,0,-4,-4,-5
1526905328207577,4,17,-1,2,0,-1,-1,-2
1526905328209572,3,-24,-1,0,3,-2,3,3
1526905328209572,-9,-7,-4,-9,-3,-1,-3,-1
1526905328221540,-1,3,0,-4,-2,-2,0,2
1526905328221540,-10,-8,-1,1,-3,0,0,0
1526905328230516,3,21,-1,0,0,-1,-3,-2
1526905328230516,14,1,-3,2,1,4,-3,-3
1526905328245476,5,-9,-1,-2,0,-3,-2,-5
1526905328245476,4,2,-2,-6,-3,0,2,1
1526905328246474,-8,0,-2,3,3,-2,0,-1
1526905328246474,6,0,0,-7,-3,-3,-3,2
1526905328267417,-11,-13,-2,8,1,1,-1,-3
1526905328267417,3,6,-4,-10,-1,1,-2,0
1526905328269412,-7,-22,-4,-7,-5,0,1,3
1526905328269412,0,7,0,-8,0,0,-1,-3
1526905328281380,5,15,-1,-7,-2,-9,-3,0
1526905328281380,16,-11,-1,-4,-3,6,11,1
1526905328290356,-19,2,1,4,2,-2,-2,-2
1526905328290356,2,-6,-3,-9,-6,0,-2,-2
1526905328305316,-13,-3,1,-4,-2,-2,0,0
1526905328305316,1,7,2,7,2,-1,0,1
1526905328307311,11,12,-1,-1,0,-2,-2,-1
1526905328307311,-5,-5,-3,-3,-2,0,1,-2
1526905328328255,6,-4,-2,-2,-3,3,4,3
1526905328328255,-7,2,0,-2,-3,-3,-4,2
1526905328329252,-1,-9,-3,1,-1,1,-1,0
1526905328329252,-1,-1,-2,-4,-5,-3,-4,-2
1526905328341220,11,5,-3,8,4,2,0,0
1526905328341220,-36,-37,-8,-7,-4,-2,0,-5
1526905328350196,5,14,5,9,8,-7,-2,0
1526905328350196,-1,-7,-2,-5,-5,3,4,2
1526905328365156,5,-3,-2,-7,-4,-3,-3,1
1526905328365156,-28,-2,2,2,2,-1,-2,-3
1526905328371140,4,-2,0,2,-2,1,4,5
1526905328371140,-1,-2,-1,-1,0,0,1,1
1526905328388094,-19,1,2,2,3,1,-1,-1
1526905328388094,19,16,-1,0,-3,-4,-2,3
1526905328389092,1,7,1,-3,-2,0,-2,-4
1526905328389092,-9,-9,2,3,1,1,0,-2
1526905328401060,-8,-10,-3,-5,-3,-2,-4,0
1526905328401060,12,3,-1,3,1,0,0,-1
1526905328410036,0,4,-7,-3,-4,-1,-2,-6
1526905328410036,-4,-14,-1,0,-1,2,1,-1
1526905328423999,-1,4,0,-3,-2,1,1,-1
1526905328423999,8,6,6,-1,-3,-1,-2,-2
1526905328432975,9,0,-2,0,2,2,0,1
1526905328432975,5,1,-2,8,2,0,0,2
1526905328447935,-6,-7,-1,-2,-3,0,0,0
1526905328447935,7,-4,-2,0,-1,-1,-3,-3
1526905328449929,-10,0,-1,2,-4,0,-1,-4
1526905328449929,-7,5,-2,-7,-3,-3,-2,-2
1526905328461897,-6,-3,-2,1,-3,-1,1,0
1526905328461897,-6,1,-1,3,0,0,-2,-2
1526905328470873,-2,-8,-3,-1,-3,-1,-3,-3
1526905328470873,-1,0,-1,-4,-2,-2,-2,-2
1526905328483838,7,1,2,7,3,0,-2,-3
1526905328483838,-12,-17,-3,-4,-1,-1,-1,3
1526905328492815,2,6,1,-2,0,-1,0,0
1526905328492815,0,2,3,-3,0,-1,2,0
1526905328507774,13,13,1,0,1,-3,-4,-1
1526905328507774,3,-6,0,5,1,-2,1,1
1526905328509769,3,-10,-2,-20,0,0,1,2
1526905328509769,15,9,2,-34,-1,0,-2,-1
1526905328521737,-24,5,-3,-38,-3,-3,-1,-3
1526905328521737,1,4,1,-20,1,2,1,1
1526905328530713,15,-3,-1,10,1,-2,-3,2
1526905328530713,6,3,2,12,-1,0,-3,-4
1526905328543678,-20,-20,-5,11,-2,-1,1,-3
1526905328543678,12,15,1,13,0,-2,0,-3
1526905328552654,-12,-9,0,13,1,0,-1,-3
1526905328552654,-22,-15,-4,10,1,0,0,-2
1526905328567615,25,13,3,18,1,1,1,3
1526905328567615,-11,-2,-1,6,-4,-1,-1,-3
1526905328569609,-3,-2,1,0,-1,-1,-1,-3
1526905328569609,1,0,-2,0,-2,-3,1,-1
1526905328581577,-10,4,0,5,-2,-2,-2,2
1526905328581577,12,-3,-3,-3,-3,-1,0,-1
1526905328590553,-10,9,6,5,1,0,1,1
1526905328590553,19,20,-2,5,-1,-3,-2,1
1526905328603518,-2,3,-2,-4,-1,-1,-1,-6
1526905328603518,-12,-49,-8,-5,-2,0,-3,-1
1526905328612494,0,6,-1,-4,0,1,-2,0
1526905328612494,1,4,-1,-8,-1,-2,-4,-2
1526905328627454,11,3,2,6,1,2,0,2
1526905328627454,-1,5,-2,-1,0,-1,-2,-4
1526905328629449,-3,-5,-3,-5,-3,-2,1,2
1526905328629449,1,-9,-1,-4,-2,-1,-2,-1
1526905328641417,-3,1,4,2,6,0,3,5
1526905328641417,-5,6,-3,-1,0,0,2,1
1526905328650393,-16,-11,-2,-3,-2,-1,-3,-1
1526905328650393,8,16,2,-2,-3,-3,0,1
1526905328664355,-10,-16,-5,-11,-8,-2,-2,-2
1526905328664355,22,18,1,5,2,0,-1,3
1526905328673332,0,-14,-2,10,4,2,2,-2
1526905328673332,-7,6,1,4,0,0,-1,1
1526905328687294,-1,-3,1,-3,0,1,4,2
1526905328687294,-11,4,0,-1,3,0,-3,-2
1526905328689289,-5,-1,-2,1,-5,-1,-3,-3
1526905328689289,12,-5,-2,-4,-3,0,-2,1
1526905328710233,17,3,-1,8,3,-2,2,-2
1526905328710233,-39,-17,-3,1,-4,0,-1,-2
1526905328712228,17,1,-5,-2,-3,-3,-6,-3
1526905328712228,-22,-19,0,17,1,0,0,-2
1526905328724196,7,0,-2,-5,-3,-3,-5,-3
1526905328724196,4,15,4,-1,-2,-1,-2,-5
1526905328733172,-1,8,0,-4,-1,0,-1,-3
1526905328733172,4,-4,-4,-5,-2,-3,1,2
1526905328748132,-13,-21,-6,-3,0,-3,-4,-3
1526905328748132,3,5,2,1,0,0,0,2
1526905328749129,19,-2,-2,-7,-4,-3,-3,2
1526905328749129,0,19,2,-2,-1,-2,-1,1
1526905328770073,-8,-13,-4,-6,0,8,0,-1
1526905328770073,8,9,1,-1,-1,0,-2,1
1526905328772068,-9,-7,0,12,6,1,-8,-2
1526905328772068,18,-2,-1,-2,0,2,1,0
1526905328784036,-5,7,7,31,5,-2,-5,-4
1526905328784036,8,-7,-2,-10,-3,-2,-3,-2
1526905328793012,0,12,0,-5,-2,1,4,1
1526905328793012,-8,-7,-2,-8,-3,-1,-6,-2
1526905328807971,-9,-10,-2,-14,-3,-4,0,-2
1526905328807971,1,-7,-5,-2,-2,-1,0,3
1526905328808969,-7,3,1,-3,-2,-2,3,1
1526905328808969,14,2,0,5,1,-1,-3,-2
1526905328829913,-3,-11,-2,-8,-6,-4,-2,-2
1526905328829913,-9,7,1,0,1,0,1,-1
1526905328831908,2,-3,-2,-6,-3,-1,-5,1
1526905328831908,3,-2,-2,1,0,-1,-1,1
1526905328843876,-2,12,0,-5,-5,-2,-3,-5
1526905328843876,-11,-11,0,0,1,-2,0,1
1526905328852852,17,-6,-2,-9,-2,-2,-3,-3
1526905328852852,-3,7,1,-4,-3,1,1,-4
1526905328867812,-19,-18,-1,13,4,-1,5,3
1526905328867812,8,4,0,0,1,-3,-7,-2
1526905328869806,-6,5,-1,-2,-1,6,2,0
1526905328869806,-7,-12,-4,4,1,-12,-4,-2
1526905328890750,15,11,0,-1,-1,9,10,3
1526905328890750,-4,6,1,9,-1,-1,-2,-3
1526905328891748,-2,-1,2,2,2,-2,1,-3
1526905328891748,-19,-9,-3,-3,-3,-1,1,0
1526905328903716,23,8,-2,-10,-3,-2,-2,-2
1526905328903716,9,1,1,-1,2,1,2,-2
1526905328912691,-9,0,-2,-4,-4,-4,-1,-4
1526905328912691,-5,-4,-2,-2,0,1,-4,-5
1526905328927651,11,3,1,-5,-1,-4,-5,2
1526905328927651,-20,0,-1,-2,-1,1,3,0
1526905328929646,-2,-3,0,1,-1,-2,2,2
1526905328929646,-1,-2,1,-5,-4,-1,-4,-1
1526905328950590,-11,0,-3,-6,-3,-3,-1,1
1526905328950590,13,3,2,19,8,-1,-3,-1
1526905328951588,-10,10,0,-9,-5,-2,2,0
1526905328951588,20,-31,-6,12,-1,0,2,1
1526905328963555,3,13,5,-3,4,-1,-6,-3
1526905328963555,-7,-9,-2,-5,-5,1,8,-3
1526905328972532,1,-7,-1,-1,-4,-2,-1,-3
1526905328972532,-14,3,2,2,0,0,-3,-1
1526905328987491,7,3,-2,0,-7,-2,0,-1
1526905328987491,6,-7,-5,1,-3,-5,-6,-1
1526905328989486,-8,0,2,11,2,1,1,2
1526905328989486,4,6,2,1,3,0,1,0
1526905329010430,12,11,2,2,2,-1,-2,-2
1526905329010430,-29,-10,-1,-5,-4,0,-2,0
1526905329012425,12,1,-4,1,-4,-3,-1,-1
1526905329012425,-1,-3,5,29,4,3,1,-1
1526905329024393,-5,3,4,18,9,2,-2,0
1526905329024393,10,2,-2,-2,-4,-2,0,-1
1526905329033369,5,1,-7,-16,-6,-2,-2,1
1526905329033369,-11,4,-1,-5,-5,0,2,-2
1526905329047331,-6,-9,-2,-9,2,-2,-4,0
1526905329047331,7,8,1,-7,-5,6,6,-2
1526905329049326,-2,-4,2,6,4,2,-1,-2
1526905329049326,-2,-1,0,-9,0,1,-2,-5
1526905329070270,13,13,-3,-16,-7,-4,-2,-1
1526905329070270,-4,-22,-3,-6,0,-2,-3,2
1526905329072265,-10,-2,-2,-4,1,0,0,-1
1526905329072265,-2,6,-2,-11,2,-1,0,3
1526905329084233,-6,-7,-2,-9,-3,0,-3,-2
1526905329084233,7,4,-4,-5,3,-3,-2,1
1526905329093209,2,2,5,5,2,1,-1,0
1526905329093209,1,1,-3,-8,-3,-4,0,-2
1526905329108169,-9,-2,-2,-4,-3,-1,0,-2
1526905329108169,7,-8,1,-5,3,-3,-1,1
1526905329109166,5,6,1,-4,-2,-2,0,1
1526905329109166,-8,1,-2,6,7,-1,1,-1
1526905329130110,-3,0,0,-1,-2,0,4,-1
1526905329130110,-7,11,0,4,1,-3,-7,-4
1526905329132105,-1,-4,-3,-8,-1,0,1,-3
1526905329132105,3,-4,-1,9,1,-1,1,1
1526905329144073,-4,2,-1,-1,-3,6,-3,0
1526905329144073,8,6,-3,-4,-1,-1,3,0
1526905329153049,-10,-24,-2,-1,-3,-1,-2,0
1526905329153049,14,18,2,-5,-2,3,-1,4
1526905329168009,0,-4,-4,1,0,-4,-1,0
1526905329168009,-2,1,1,0,-1,1,2,0
1526905329169006,-2,7,1,3,-4,1,0,1
1526905329169006,-1,-1,-4,-8,2,-6,-3,-4
1526905329189950,-18,-33,-4,-1,6,-1,0,1
1526905329189950,5,11,2,11,1,5,2,1
1526905329191945,8,-3,2,8,5,-3,-4,-2
1526905329191945,10,-13,1,5,-1,3,1,-3
1526905329203913,19,4,-4,-6,-3,-1,2,2
1526905329203913,2,12,1,-2,-2,-1,-2,-2
1526905329212889,-10,-5,-2,1,0,-2,1,2
1526905329212889,-12,-16,-4,-12,0,-1,0,-3
1526905329227849,-2,14,2,4,-4,-2,-1,-2
1526905329227849,-2,-22,-7,-2,-2,1,0,0
1526905329233833,9,16,-5,2,0,-2,-3,-3
1526905329233833,-12,3,-5,-11,-4,1,-1,2
1526905329250787,-4,0,0,2,-3,-4,-4,-2
1526905329250787,-3,0,-2,0,1,-2,1,-1
1526905329251785,-5,-2,-5,-4,1,-4,-10,-2
1526905329251785,12,0,-2,5,-2,5,4,3
1526905329263753,-13,-6,1,1,1,0,1,0
1526905329263753,-1,4,-1,-5,-2,-6,-4,-3
1526905329272729,11,-7,-3,-6,-1,0,1,-1
1526905329272729,2,18,3,0,1,-1,-2,-3
1526905329287689,-15,-22,-4,6,1,-1,-1,1
1526905329287689,1,0,2,-2,-2,-7,-4,0
1526905329289683,13,1,-1,-5,-3,4,9,2
1526905329289683,-9,-2,0,1,0,-1,-4,0
1526905329310627,6,8,2,14,3,1,0,-2
1526905329310627,8,-4,-1,-2,0,0,-2,1
1526905329311625,-36,-3,1,-4,-2,-3,-2,-1
1526905329311625,8,7,-2,3,-4,-2,1,7
1526905329323593,14,8,2,-2,-1,-3,-4,-3
1526905329323593,-17,-12,-5,-3,-2,0,0,-2
1526905329332569,16,6,2,9,2,1,2,2
1526905329332569,-9,-4,-2,-4,-3,-1,0,-1
1526905329347529,3,3,0,-3,-3,-1,-2,-1
1526905329347529,-6,8,6,10,2,0,1,4
1526905329349523,2,-7,-3,-5,-2,-2,-2,-5
1526905329349523,9,4,0,-3,-2,-4,-3,-1
1526905329370467,-9,-11,-3,-4,-3,0,-2,-1
1526905329370467,19,3,-1,0,3,1,-4,-3
1526905329371465,-5,-8,-2,2,-2,0,2,1
1526905329371465,-16,-12,0,-3,-1,-1,-3,-5
1526905329384430,22,0,-3,-6,-4,-2,-2,-1
1526905329384430,-9,6,1,-3,-3,-1,1,-1
1526905329393406,-9,-4,-3,4,0,1,-1,-5
1526905329393406,4,1,-2,-3,-1,-2,-6,-3
1526905329408366,1,7,-1,-4,-2,-4,2,1
1526905329408366,-18,-8,-3,-7,-1,-2,-2,-1
1526905329410361,11,11,2,1,0,-2,0,-1
1526905329410361,-13,0,3,0,-1,1,1,-1
1526905329430307,2,-17,-1,-4,0,1,0,0
1526905329430307,9,15,1,-5,-5,-3,-3,2
1526905329432302,-12,7,-1,-2,-2,2,-2,0
1526905329432302,-1,-5,-1,-3,-3,1,1,0
1526905329444270,-17,0,-4,1,-2,-1,1,-5
1526905329444270,5,-2,-1,-3,-4,2,3,-1
1526905329453246,6,-4,1,-1,2,0,-1,-2
1526905329453246,-15,-10,-4,0,-1,-3,-2,-4
1526905329467209,2,6,0,1,0,0,0,3
1526905329467209,-4,-7,-2,0,-1,2,-1,-2
1526905329474190,-6,5,-1,0,-1,-1,-3,-3
1526905329474190,3,4,-1,0,3,-2,1,1
1526905329490147,7,21,0,1,1,-1,0,0
1526905329490147,12,0,-1,-5,-2,-1,0,3
1526905329492142,-5,-15,0,-34,0,-4,-2,-3
1526905329492142,-7,-3,1,-41,-1,0,0,-2
1526905329504110,-6,7,-2,-30,-2,-1,-5,-1
1526905329504110,6,-6,3,1,5,0,2,1
1526905329513086,3,6,-3,7,-1,-1,0,0
1526905329513086,-1,-2,1,24,2,0,-1,0
1526905329527048,-4,-2,-1,9,-3,-1,-1,-3
1526905329527048,9,7,-1,10,-1,1,-1,-2
1526905329534030,-17,-26,-2,7,-1,-2,-3,0
1526905329534030,9,5,0,10,-1,0,0,2
1526905329549987,-7,-3,2,26,6,2,-2,-7
1526905329549987,23,10,5,-3,-2,0,3,4
1526905329551982,4,1,2,2,-1,-5,-4,0
1526905329551982,-2,-9,-7,0,-4,-2,-3,-5
1526905329563950,6,0,1,1,-2,0,1,1
1526905329563950,-22,-4,-3,5,0,-1,-2,0
1526905329572926,-2,7,-3,5,0,0,-2,-5
1526905329572926,13,-9,-2,1,-2,0,0,2
1526905329586889,-2,0,0,0,-3,-2,0,5
1526905329586889,-17,-3,-3,-3,-4,-2,-2,-9
1526905329593870,-1,8,-3,4,-4,-2,1,3
1526905329593870,-4,0,-1,3,-1,0,1,-2
1526905329609827,-3,-10,-3,-4,-2,-1,3,-1
1526905329609827,8,1,-3,4,-1,-1,3,3
1526905329611822,2,3,2,2,3,-1,-7,-4
1526905329611822,-6,-22,-4,7,-1,-1,3,-1
1526905329632766,-13,1,3,8,5,-8,-5,-1
1526905329632766,3,2,1,0,-1,9,6,0
1526905329634760,-5,7,1,-4,-3,-3,-1,-1
1526905329634760,12,-4,-1,-6,-3,1,1,2
1526905329646728,6,3,-1,-10,-2,-4,-4,-5
1526905329646728,-19,-2,-2,-5,-2,-4,-4,-1
1526905329653710,20,17,2,4,0,3,3,5
1526905329653710,-10,7,-2,-7,-2,-1,1,2
1526905329670664,-1,-5,-5,-3,0,0,-5,0
1526905329670664,-10,6,2,0,1,0,-1,-3
1526905329671662,5,-3,1,-1,0,2,0,-3
1526905329671662,3,7,3,0,0,-4,-6,0
1526905329692606,-7,6,3,-1,0,1,4,0
1526905329692606,-10,-35,-5,-3,1,-3,-4,0
1526905329694601,-3,3,-2,-4,-4,-2,1,1
1526905329694601,-5,-3,-1,1,1,-4,-5,-3
1526905329707566,10,-3,-3,0,0,1,6,2
1526905329707566,5,5,-3,-9,1,-5,-15,-2
1526905329713550,-3,-4,0,0,4,-2,1,1
1526905329713550,-4,-3,-2,-2,0,8,0,-4
1526905329730504,-6,0,1,1,-1,0,0,1
1526905329730504,2,-2,-4,1,-3,0,-1,-2
1526905329731502,-6,-8,0,17,3,-10,-5,5
1526905329731502,3,10,0,-3,-1,6,3,-3
1526905329752446,-9,-6,-1,-3,-3,-3,-1,1
1526905329752446,8,-4,-3,-2,-5,-3,-1,-2
1526905329754440,-3,-9,-3,-8,-2,-2,-1,-1
1526905329754440,13,7,0,1,-2,-2,1,0
1526905329766409,12,-14,-3,5,1,2,-2,1
1526905329766409,-7,5,4,-5,-5,-3,2,-2
1526905329775385,10,8,-3,2,-3,4,3,4
1526905329775385,-12,-1,-1,2,-1,-3,-3,-1
1526905329790344,8,-4,-1,-11,0,2,0,1
1526905329790344,-7,2,-1,9,3,-1,-1,-1
1526905329792339,14,12,1,-1,-5,1,4,1
1526905329792339,3,5,3,2,4,-8,-7,-4
1526905329813283,-7,2,-1,-6,-1,-4,1,-4
1526905329813283,-28,-26,-5,-5,-4,5,0,-1
1526905329814281,1,-8,-1,6,-3,1,4,-6
1526905329814281,6,3,0,15,2,-10,-1,4
1526905329826248,-5,-3,-3,-6,-3,6,7,-1
1526905329826248,17,20,-1,-4,1,-3,-3,0
1526905329835225,-21,-19,-8,-14,-3,2,-1,-3
1526905329835225,-1,-4,0,-2,1,-1,-3,0
1526905329850184,18,16,2,0,-2,-2,-4,-1
1526905329850184,13,5,0,2,1,2,3,-4
1526905329852179,-7,-1,-2,-9,-6,-3,-5,-1
1526905329852179,-2,-10,-1,-1,2,4,7,1
1526905329873123,12,7,-2,-2,1,-4,-10,0
1526905329873123,-9,-1,0,-7,-2,-1,0,-1
1526905329874120,-6,-5,2,5,3,0,-2,1
1526905329874120,6,4,-2,-5,-4,3,4,1
1526905329886088,-3,-8,-3,-1,-5,-3,0,-2
1526905329886088,3,-2,1,1,2,-3,3,3
1526905329895064,-5,3,-5,-17,-9,3,-1,-4
1526905329895064,-6,15,2,18,1,-6,-1,-1
1526905329910024,-16,-24,-2,9,3,-2,-3,-1
1526905329910024,1,8,2,2,-2,3,-1,-3
1526905329912019,0,7,5,-1,5,1,1,-5
1526905329912019,7,1,-3,-15,-4,1,-3,1
1526905329932963,2,7,-3,-1,-4,-3,0,-6
1526905329932963,-21,-4,1,6,2,-2,0,2
1526905329934958,5,-3,-2,-1,-2,-4,0,2
1526905329934958,-8,-5,-2,-8,-5,2,7,-2
1526905329946925,1,3,3,3,4,-1,-14,-2
1526905329946925,4,-5,-1,2,-1,1,-1,-1
1526905329955902,2,1,-1,-1,1,1,-1,-3
1526905329955902,-6,-3,-1,-4,0,-3,-2,-1
1526905329969864,4,3,-3,-4,0,1,5,2
1526905329969864,-8,1,0,-6,-2,-3,-4,-5
1526905329971859,8,2,-2,1,4,0,-2,1
1526905329971859,8,-8,-3,-5,1,0,1,-3
1526905329992803,-10,-1,-2,4,0,0,1,0
1526905329992803,0,-2,-2,-11,-5,-2,-2,-2
1526905329994798,-16,0,2,11,8,5,0,-1
1526905329994798,18,4,1,14,-3,0,-4,-3
1526905330006766,-7,9,1,2,0,1,0,-1
1526905330006766,25,-6,-1,8,-1,-1,3,2
1526905330015742,2,15,1,1,-1,-2,-6,2
1526905330015742,-8,-21,-5,-10,-3,-1,-5,-1
1526905330030701,-1,3,0,-10,-3,1,5,3
1526905330030701,-2,2,0,-7,1,-5,-14,-4
1526905330031699,6,-4,0,-3,-1,-2,2,-2
1526905330031699,-12,0,1,-1,4,0,0,0
1526905330052643,0,4,1,-3,-5,-5,1,0
1526905330052643,2,-5,-4,3,0,-1,3,3
1526905330054638,-2,-6,0,11,1,0,0,1
1526905330054638,-2,0,-2,-6,-4,0,-2,-3
1526905330066605,-1,-1,-1,-10,-4,-2,0,-1
1526905330066605,2,0,1,1,0,-7,1,0
1526905330075582,-14,-5,-4,-3,-2,2,0,-3
1526905330075582,-11,0,-4,-15,-8,-5,-4,-1
1526905330090542,11,9,3,5,4,2,-1,3
1526905330090542,3,4,0,4,0,2,-3,-1
1526905330091539,-19,-3,-1,-4,-2,1,4,-1
1526905330091539,3,3,2,0,-2,0,0,1
1526905330112483,-2,-6,-2,-1,-6,0,0,-4
1526905330112483,-11,0,-4,-5,0,-2,-2,1
1526905330114478,5,-9,-1,1,-3,-2,-2,-2
1526905330114478,3,7,1,-5,-1,2,-3,-4
1526905330126445,-5,-7,-4,-4,-1,-3,-1,0
1526905330126445,-7,-3,2,20,6,5,2,-1
1526905330135422,23,9,-2,3,0,0,6,-1
1526905330135422,-4,-20,-3,-7,-3,0,-5,0
1526905330150381,1,0,3,8,7,0,-6,-1
1526905330150381,-7,8,1,-3,-4,-2,1,-1
1526905330152376,15,-10,-6,-15,-5,-2,0,3
1526905330152376,11,23,5,5,2,-2,1,-1
1526905330173320,9,-7,-3,3,-2,1,0,2
1526905330173320,-10,-14,-2,-10,-4,2,0,0
1526905330174318,-8,0,1,3,2,-2,-2,0
1526905330174318,0,3,0,-2,3,-1,0,-2
1526905330186286,-7,0,-6,-5,-1,2,-1,-4
1526905330186286,19,7,3,-2,0,-9,-2,2
1526905330195262,-8,-10,-5,-2,0,5,-1,1
1526905330195262,3,-8,-1,6,1,2,1,3
1526905330209224,-6,10,-1,-6,-3,-2,2,-1
1526905330209224,13,-14,-5,-10,-5,-1,3,1
1526905330216205,-2,3,2,10,5,-5,-3,-1
1526905330216205,-13,2,-2,11,5,4,0,-1
1526905330233160,-9,-17,-2,1,0,1,0,-1
1526905330233160,-5,3,-2,-4,-2,-3,-2,-1
1526905330234158,4,-4,0,-9,-2,-3,-4,-2
1526905330234158,0,0,-2,-2,-1,0,6,-2
1526905330246125,5,-7,-2,-6,-2,-2,-3,-2
1526905330246125,-23,11,5,11,3,5,3,-4
1526905330255101,17,4,1,1,-1,-2,-1,1
1526905330255101,-10,1,-5,-3,-1,-2,0,-2
1526905330270061,-9,-5,-1,-4,-1,-2,-2,-1
1526905330270061,1,-13,-3,-7,-1,0,-2,-1
1526905330272056,-8,4,1,-1,-1,1,0,-2
1526905330272056,-3,2,1,-6,-2,-3,-8,0
1526905330293000,-12,1,3,2,1,2,-3,1
1526905330293000,-2,-5,-5,4,0,1,0,0
1526905330293998,-2,-1,2,-2,-2,-1,1,-1
1526905330293998,-3,-1,-3,2,-2,-3,-4,-5
1526905330306963,4,-13,-4,1,2,0,2,1
1526905330306963,-4,10,1,5,2,-3,1,0
1526905330315939,12,5,-3,-4,-3,7,-5,-3
1526905330315939,-7,-2,0,1,4,1,-1,2
1526905330329901,20,20,0,1,1,8,3,1
1526905330329901,-8,-32,-7,-7,-2,-1,-1,-1
1526905330331896,-2,-3,0,3,2,-3,-4,-3
1526905330331896,-1,-2,-2,-5,-5,-5,-2,0
1526905330352840,-6,8,1,1,-2,-1,-2,-10
1526905330352840,3,7,-3,-1,-2,1,1,0
1526905330354835,13,1,-3,-1,-1,-6,-6,1
1526905330354835,-5,-24,-1,-1,-1,2,0,1
1526905330366803,2,5,3,2,0,-5,-1,1
1526905330366803,-10,7,1,-1,0,0,0,-4
1526905330375779,-11,1,-4,-2,-3,-3,1,-1
1526905330375779,5,5,-2,1,-1,-1,2,2
1526905330389741,-4,-3,-4,-2,-3,-1,0,-3
1526905330389741,-5,-2,-5,-2,0,-3,-3,0
1526905330396723,4,-2,2,3,0,-1,1,-3
1526905330396723,9,-1,-1,2,-1,1,-1,0
1526905330412680,-19,-1,4,2,0,0,0,3
1526905330412680,58,12,1,-3,-1,2,-1,0
1526905330414675,-26,-19,-3,-3,-1,-2,-2,-4
1526905330414675,3,5,-2,-3,-1,-1,-1,-1
1526905330426642,1,-12,-5,1,-1,-1,-2,1
1526905330426642,-2,5,1,1,-2,-3,-2,-1
1526905330435619,4,0,1,1,-1,0,2,2
1526905330435619,-8,-12,-1,-3,-1,-2,-1,0
1526905330449581,3,9,2,-1,0,-1,-2,-6
1526905330449581,-16,11,2,-4,0,1,-2,-2
1526905330456563,2,-12,-7,-6,-1,0,1,2
1526905330456563,3,11,1,-1,1,-3,-7,-3
1526905330480499,2,1,0,-2,-2,-3,2,1
1526905330480499,-18,2,0,-2,-1,0,0,-2
1526905330481496,12,10,2,-3,-1,-1,-1,2
1526905330481496,24,16,2,-6,-2,-2,2,1
1526905330486483,-20,-13,-4,0,0,0,1,-1
1526905330486483,-8,-4,2,4,-3,0,-2,-4
1526905330495459,-6,-10,-3,0,-5,-1,0,1
1526905330495459,5,6,0,5,1,0,-1,-5
1526905330509422,-4,-6,-1,-5,0,-2,-1,-1
1526905330509422,6,-4,-2,-10,-2,-1,1,2
1526905330516403,-12,-4,-2,-58,0,0,-1,-1
1526905330516403,32,12,0,-78,-1,-4,-1,1
1526905330532360,-9,-7,-1,-41,-1,-4,-1,0
1526905330532360,-2,-7,-4,-9,-2,-1,-1,-1
1526905330534355,-3,-1,0,35,0,-2,-4,-3
1526905330534355,-9,-6,-3,40,-1,2,-1,-1
1526905330555298,16,0,-2,25,-2,1,1,1
1526905330555298,3,0,0,25,-1,-1,2,0
1526905330557294,5,17,3,-24,2,-1,1,-1
1526905330557294,-20,-19,-2,-65,-3,-3,4,-2
1526905330569261,4,5,3,-14,1,1,-5,-3
1526905330569261,-4,0,-3,9,-4,-3,0,0
1526905330576243,-5,-7,-2,56,4,6,-4,-4
1526905330576243,-7,0,3,74,0,1,6,4
1526905330593197,5,4,0,41,0,-2,1,2
1526905330593197,-1,14,0,22,-2,-1,-2,-3
1526905330594195,17,-46,-6,8,-2,-1,2,4
1526905330594195,-8,4,1,14,-3,0,-6,-8
1526905330615139,0,-1,-4,4,0,0,-2,-4
1526905330615139,1,-1,-4,-12,1,-3,-6,-1
1526905330617134,-5,14,5,1,1,-2,1,-4
1526905330617134,-7,-1,-1,-4,-3,0,-4,1
1526905330630099,0,-6,-2,-2,0,2,1,1
1526905330630099,4,3,2,-4,2,4,4,-2
1526905330636082,-3,-13,-5,-13,-6,-1,-6,-1
1526905330636082,-14,-13,-1,9,4,0,-1,-4
1526905330653037,-5,11,-2,-4,-2,1,0,1
1526905330653037,5,-1,2,4,5,-1,-3,1
1526905330654035,-13,11,1,-5,-1,-1,2,-1
1526905330654035,9,8,-3,-7,-6,-2,-2,0
1526905330674978,-5,-13,-2,-3,2,3,-2,2
1526905330674978,-13,-15,-2,-19,-3,0,4,0
1526905330676973,-4,13,1,-3,-1,-4,-3,0
1526905330676973,-11,-5,-2,-1,-1,1,1,-4
1526905330689939,-3,-1,-3,-11,-3,-3,0,1
1526905330689939,21,10,5,-4,2,-1,-4,-6
1526905330696920,1,-9,-1,-5,-2,1,1,-1
1526905330696920,-8,-3,-3,-1,0,-5,-2,-2
1526905330712877,7,-5,-1,3,-2,-2,1,0
1526905330712877,-1,18,2,1,-4,-4,-1,0
1526905330714872,-3,0,2,23,6,1,2,4
1526905330714872,-8,-1,-1,5,2,-2,-4,1
1526905330735816,10,9,0,-4,-7,2,2,-3
1526905330735816,-6,-15,3,21,7,3,-1,5
1526905330736813,6,9,-2,-4,-9,-2,1,0
1526905330736813,-5,-9,0,26,8,2,1,0
1526905330748781,-3,-3,-3,-6,-6,-1,0,-6
1526905330748781,8,-5,-2,-11,-3,1,-4,4
1526905330757757,-2,13,-1,-3,-1,-4,2,5
1526905330757757,4,-2,2,-4,-2,-5,-2,-3
1526905330772717,0,5,1,-4,1,5,2,1
1526905330772717,-14,-26,-7,-6,-4,-4,-1,-2
1526905330774712,18,6,2,-2,-2,-3,-6,-3
1526905330774712,-9,7,2,5,-3,1,1,1
1526905330795656,4,5,1,22,2,-5,-2,0
1526905330795656,0,-7,-5,10,-1,0,2,5
1526905330796653,-24,0,-3,7,-1,3,-1,-5
1526905330796653,4,-2,-4,-7,-2,1,1,4
1526905330808621,-7,-2,-1,-15,-1,-2,-4,-4
1526905330808621,6,-7,-3,-2,-4,-3,-3,-4
1526905330817597,17,2,-4,-16,1,-3,2,2
1526905330817597,-5,0,7,15,8,12,5,0
1526905330832557,-1,-2,-4,-14,-6,-7,-2,0
1526905330832557,-3,7,0,-1,-1,1,3,-2
1526905330834552,-8,3,-1,-1,-1,2,-2,-7
1526905330834552,-1,3,-1,7,-4,-2,0,3
1526905330855496,-7,-3,-3,9,-1,-7,-5,3
1526905330855496,2,-6,0,-5,-3,3,8,-1
1526905330856493,7,1,-1,-2,0,-5,-5,-5
1526905330856493,6,-7,-3,-11,-2,1,-2,-2
1526905330869458,16,14,1,10,0,-2,0,5
1526905330869458,-26,6,-3,-19,-3,-3,-2,-4
1526905330878434,13,-11,-2,28,2,2,2,-1
1526905330878434,2,0,-3,5,-7,-6,-3,-1
1526905330892397,-15,-5,-1,10,0,4,1,-5
1526905330892397,-7,-17,-4,-7,0,-4,-4,0
1526905330894392,-9,4,-1,-23,-5,0,1,0
1526905330894392,-4,3,-4,-27,-6,-6,4,0
1526905330915336,3,-5,7,12,8,7,4,-1
1526905330915336,0,9,-1,-7,-2,-5,1,2
1526905330917330,-4,-2,-1,-10,-1,-1,-2,0
1526905330917330,3,-4,0,-8,-3,0,-1,0
1526905330929298,-7,9,-4,-22,-3,-6,-3,-4
1526905330929298,12,-3,-1,-5,-4,6,-8,-6
1526905330938275,-1,-8,0,2,-3,-1,1,2
1526905330938275,7,8,-3,-9,-2,-3,-6,-3
1526905330953235,8,-16,1,-3,-1,2,1,1
1526905330953235,-25,6,1,3,-1,1,-2,1
1526905330954232,17,-7,-3,-5,-2,-4,-1,1
1526905330954232,-3,8,5,1,2,4,1,5
1526905330975176,17,1,2,-2,-2,-4,-5,-8
1526905330975176,0,-2,0,0,2,0,10,-1
1526905330977171,-24,-10,-1,-13,-3,-2,-13,-1
1526905330977171,2,2,-1,9,0,-2,-3,-2
1526905330989138,-6,5,2,10,5,-4,4,4
1526905330989138,6,8,0,-5,-4,1,-2,-2
1526905330998115,2,3,-1,-10,-1,-2,-1,-8
1526905330998115,3,-8,-4,13,9,1,0,3
1526905331013074,-16,-10,-2,-16,-7,-1,-3,0
1526905331013074,9,3,0,6,4,1,-2,-2
1526905331014072,-4,4,0,-2,-2,-2,2,1
1526905331014072,-1,-13,-3,-18,-5,-4,-3,-10
1526905331035016,-8,0,-3,-6,-3,7,-2,2
1526905331035016,10,9,-1,-9,-4,-6,-2,0
1526905331037011,-28,-17,-5,16,1,-2,0,-1
1526905331037011,-8,2,-1,3,0,-1,2,-2
1526905331048978,20,2,1,3,0,-2,-1,2
1526905331048978,0,19,-1,-2,0,-1,0,-4
1526905331057955,-5,-5,-1,3,2,2,5,6
1526905331057955,6,1,0,-3,-2,0,3,-1
1526905331072914,-14,-10,-4,1,-2,-6,-14,-3
1526905331072914,-2,-5,2,-2,2,-4,-1,0
1526905331074909,5,2,4,9,-5,4,3,-2
1526905331074909,-2,-4,-3,-9,-6,-8,-2,-1
1526905331094856,-4,3,-3,-4,-2,0,2,3
1526905331094856,21,6,-4,4,-1,-2,-5,-5
1526905331096850,-7,-11,-1,2,1,0,-1,-3
1526905331096850,5,5,1,-15,-6,2,-4,2
1526905331108818,-1,-2,6,24,5,1,6,1
1526905331108818,-15,-13,-3,1,-1,-6,-3,2
1526905331117795,11,8,-1,-16,-6,6,-2,-2
1526905331117795,8,-3,1,13,3,2,0,3
1526905331132754,-11,-3,-7,-20,-5,-7,-2,-7
1526905331132754,10,-1,3,12,2,3,0,1
1526905331134749,12,7,0,-1,0,-3,-2,2
1526905331134749,10,-8,-1,-5,0,-2,-3,-4
1526905331155693,-2,-3,-1,1,-2,3,1,0
1526905331155693,-1,-25,-4,-9,-4,-2,1,3
1526905331156691,-12,5,-4,-4,0,-2,-2,-2
1526905331156691,10,15,-3,1,-2,-1,0,-2
1526905331168658,0,1,-3,-7,-3,-5,-11,0
1526905331168658,-6,-7,-3,-1,-3,1,1,-4
1526905331177634,3,5,3,1,7,2,1,0
1526905331177634,-14,-4,1,17,3,5,0,-3
1526905331192594,9,-6,3,-2,-1,1,3,2
1526905331192594,4,-12,-3,-4,-1,1,0,2
1526905331194589,-4,7,-3,-4,-2,-6,-4,-4
1526905331194589,-4,-18,-5,-8,-4,-4,0,1
1526905331215533,-9,5,-1,7,5,-1,3,2
1526905331215533,-2,-5,-2,-5,-2,0,-1,-2
1526905331216530,16,-7,-2,0,0,-3,1,-2
1526905331216530,-6,-5,-2,6,-2,9,-1,1
1526905331228498,3,1,-1,11,3,-3,-1,-2
1526905331228498,-16,-4,2,4,0,-3,-2,-2
1526905331238472,1,1,-3,8,3,0,-1,-3
1526905331238472,-8,5,1,-8,-3,-6,-1,2
1526905331252434,12,-6,0,-3,-1,0,-2,-7
1526905331252434,-2,14,2,-2,-2,0,-1,-1
1526905331254429,-5,-9,2,-2,-1,-2,-2,0
1526905331254429,-9,-4,-3,-5,-3,-5,-1,3
1526905331275373,-2,14,-3,-6,-3,-2,2,-2
1526905331275373,11,-13,-6,-9,-3,-1,5,3
1526905331277368,-20,3,8,19,2,-2,-13,1
1526905331277368,8,2,-2,-3,2,-2,-1,-2
1526905331289335,-8,3,0,-2,-5,5,0,0
1526905331289335,-8,0,2,1,-1,-5,-1,0
1526905331298312,15,-5,-6,-6,-5,-2,2,2
1526905331298312,-12,-4,0,-2,0,-1,0,-1
1526905331313271,-17,-2,-1,-2,0,-2,-4,-6
1526905331313271,17,9,0,1,1,1,0,0
1526905331314269,5,13,1,-8,-5,-1,-1,-7
1526905331314269,19,1,-1,2,1,-2,-3,-4
1526905331335213,-9,-8,-2,-12,-2,-1,5,0
1526905331335213,-5,15,4,12,2,-8,-4,-1
1526905331337208,11,2,0,5,4,9,8,0
1526905331337208,-17,-12,-4,-7,-2,-3,-1,0
1526905331349176,8,1,-2,-13,-9,-2,-1,3
1526905331349176,-4,8,10,41,16,7,1,2
1526905331358152,1,-18,-5,-4,-4,-5,-3,1
1526905331358152,-1,10,-2,0,2,2,5,2
1526905331372114,8,0,-3,-6,0,4,-1,-4
1526905331372114,-24,-31,-11,-16,-8,-3,-4,-10
1526905331379095,-7,11,-2,-3,-3,-3,2,-1
1526905331379095,-9,-15,-3,0,-1,1,0,-2
1526905331403031,12,2,-2,-3,-1,-5,-1,2
1526905331403031,-8,2,-4,-7,0,2,-3,-1
1526905331404029,2,3,2,4,2,2,2,3
1526905331404029,-10,-3,-1,-3,-3,-4,-3,-3
1526905331409015,6,-1,2,6,0,1,-2,0
1526905331409015,-12,-2,2,-3,-2,1,0,4
1526905331417992,2,2,-2,-13,-3,-3,-4,-4
1526905331417992,-9,-9,-2,-14,-7,-2,-4,-2
1526905331431954,13,5,-2,22,6,-1,1,0
1526905331431954,24,13,1,6,6,1,0,4
1526905331438935,-20,-14,-7,-7,-3,0,6,0
1526905331438935,19,10,0,-2,0,0,0,-3
1526905331454893,-14,-12,-4,-10,-8,-1,-1,-5
1526905331454893,9,5,-2,-15,-6,-5,-5,-3
1526905331456888,-12,6,2,-1,2,-1,0,1
1526905331456888,13,5,5,24,2,0,-1,1
1526905331468855,-10,-15,-6,-4,0,-3,-1,-3
1526905331468855,14,19,1,-9,-4,0,1,4
1526905331477832,9,-14,-4,-19,-10,-2,-5,-2
1526905331477832,-14,12,6,42,16,4,2,-1
1526905331491794,12,-1,0,0,2,-2,-3,4
1526905331491794,3,1,-5,-11,-8,4,5,-3
1526905331500770,1,1,-2,-9,-3,-6,-11,-5
1526905331500770,-26,-23,-5,-11,-4,-4,-2,-4
1526905331515730,18,29,3,3,-1,-1,2,0
1526905331515730,-11,-21,-7,-13,-7,-6,-1,2
1526905331516728,-7,-18,0,9,3,-1,2,0
1526905331516728,19,11,-1,-10,-6,-2,0,0
1526905331537671,-10,1,4,11,3,-1,-3,-3
1526905331537671,-1,-6,-3,-11,-3,-2,-2,-2
1526905331539666,-2,-4,-6,-2,-3,-8,-2,2
1526905331539666,17,27,4,-3,-1,8,-4,-1
1526905331552631,-20,-19,4,11,2,-1,1,2
1526905331552631,19,0,1,17,10,2,-2,0
1526905331558615,-10,-17,-2,1,-2,-2,0,1
1526905331558615,2,7,-3,-7,-4,-4,0,-2
1526905331575570,23,-4,-5,-17,-6,-1,-8,2
1526905331575570,-32,-16,-1,-3,1,7,-1,-10
1526905331576568,6,16,1,15,5,1,3,1
1526905331576568,23,-12,-7,-20,-10,-5,-3,4
1526905331597511,-28,-24,0,2,3,1,1,-2
1526905331597511,22,22,3,10,4,-6,-4,-3
1526905331599506,-11,-37,-7,-12,-9,4,3,1
1526905331599506,-9,10,-2,-7,-1,2,3,2
1526905331612471,15,6,0,1,2,-6,-2,4
1526905331612471,-14,-2,-2,-9,-3,7,0,1
1526905331619453,-2,24,4,1,1,-1,-4,-4
1526905331619453,10,-15,0,-7,-2,-1,-1,1
1526905331635410,-16,12,1,2,-1,1,3,-1
1526905331635410,-13,-16,-7,-19,-10,-6,0,4
1526905331637405,-4,12,4,15,-1,-1,0,-4
1526905331637405,26,-2,2,5,5,-2,-11,0
1526905331657351,-9,3,-3,-8,-3,0,0,-2
1526905331657351,4,-8,0,2,-6,-4,4,0
1526905331659346,-9,4,3,5,3,-6,-2,-2
1526905331659346,-18,-6,-2,14,-5,2,2,-3
1526905331671314,12,8,-5,5,-4,-3,0,0
1526905331671314,-3,-4,4,7,3,-2,-4,-2
1526905331680290,31,19,5,9,4,4,3,4
1526905331680290,-10,11,0,-7,-2,-2,-1,-2
1526905331695250,-14,-12,-1,-5,3,4,0,-4
1526905331695250,-7,-7,-4,0,-2,-10,-3,-5
1526905331697245,-7,20,3,-16,3,7,2,-10
1526905331697245,2,7,3,2,2,6,3,2
1526905331718189,-1,-10,-1,-4,3,-8,-15,-6
1526905331718189,49,50,6,-1,0,4,5,-1
1526905331719186,-44,-43,-4,-5,-2,-2,-8,-5
1526905331719186,5,4,-1,-4,-2,2,-1,-1
1526905331731154,-20,-4,1,-6,0,2,2,-1
1526905331731154,28,8,0,3,0,1,1,2
1526905331740130,-8,-5,-3,-3,-3,-1,-1,-5
1526905331740130,16,21,-2,-3,-4,0,1,-2
1526905331755090,-2,-74,-8,-5,-1,-1,3,-1
1526905331755090,-18,1,4,11,6,-1,-6,-3
1526905331757085,-23,5,0,3,1,-4,5,5
1526905331757085,20,-7,-2,14,7,3,-1,0
1526905331778029,-25,6,-6,-11,-5,-2,2,0
1526905331778029,8,2,5,10,1,1,-1,7
1526905331780023,12,-10,-8,-10,-6,-3,-6,-2
1526905331780023,-21,-2,0,-4,-2,-5,8,6
1526905331791991,18,43,1,-1,-2,0,-12,-4
1526905331791991,-20,-68,-10,-12,0,8,8,4
1526905331800968,13,19,4,2,-6,-10,-17,-2
1526905331800968,-3,-9,-2,0,2,5,-19,-5
1526905331814930,7,24,6,14,1,-9,21,2
1526905331814930,-12,-35,-13,-13,-8,5,-2,-5
1526905331816925,-22,1,-1,-12,-4,6,3,3
1526905331816925,-10,-3,1,11,2,-5,-8,0
1526905331837869,21,21,8,10,6,7,-2,-5
1526905331837869,-25,8,0,-7,-8,-13,-5,-5
1526905331839863,42,10,0,4,2,0,6,0
1526905331839863,-11,-4,-2,-5,-3,-3,4,1
1526905331851831,-5,-8,-3,-3,-1,-3,-4,-2
1526905331851831,-4,22,-1,-1,-1,-1,7,-1
1526905331860808,23,-6,-3,-2,0,4,6,0
1526905331860808,1,-16,-1,1,-1,-6,-3,-3
1526905331875767,6,44,6,-2,0,3,2,1
1526905331875767,-31,-45,-6,-2,1,-2,-6,1
1526905331876765,28,17,4,8,7,8,3,2
1526905331876765,-45,-33,-8,-18,-7,-2,-1,-6
1526905331897708,-2,-5,2,15,5,-5,3,3
1526905331897708,9,17,5,18,6,3,-7,1
1526905331899704,2,2,-2,-11,-5,-6,-7,-6
1526905331899704,16,12,5,-7,3,2,-10,-5
1526905331911671,-12,-36,-7,-2,-5,2,5,0
1526905331911671,28,15,2,6,1,5,2,2
1526905331920647,-16,-10,-4,-1,-4,-6,-1,-5
1526905331920647,-13,6,-3,-7,-1,8,-4,-3
1526905331935607,15,14,2,-7,-8,-21,-8,0
1526905331935607,-18,-23,-4,2,3,-5,3,3
1526905331936605,-5,-9,-1,-6,-3,4,3,4
1526905331936605,15,9,3,6,0,-6,0,-1
1526905331957548,-36,1,-1,3,3,5,0,3
1526905331957548,9,5,-1,-5,-1,-8,0,-10
1526905331959543,-1,-8,-4,-7,-10,-1,0,1
1526905331959543,-13,-4,6,25,9,-4,7,1
1526905331971511,42,6,-3,-3,-1,5,3,2
1526905331971511,-2,9,3,-4,1,1,-18,1
1526905331980488,-20,-47,-9,-14,-8,-3,1,-2
1526905331980488,0,-2,-3,-1,2,0,5,0
1526905331995447,2,6,0,-8,-7,5,-2,-1
1526905331995447,-12,1,-2,-3,0,-4,-6,-1
1526905331997442,-2,5,1,3,1,-5,2,-2
1526905331997442,15,4,-6,-6,-6,-6,3,3
1526905332017389,-13,-31,-4,-2,1,-6,-9,-5
1526905332017389,2,1,-1,-2,-5,1,3,-1
1526905332019384,4,5,0,5,4,-1,11,3
1526905332019384,5,-6,2,0,-3,-1,3,-1
1526905332031351,-9,2,-8,-16,-2,5,-2,0
1526905332031351,9,13,2,9,4,-2,4,-2
1526905332040328,-8,31,0,9,3,0,-7,-8
1526905332040328,-30,-63,-6,2,2,3,3,2
1526905332055287,-1,7,4,15,-3,-4,4,2
1526905332055287,-21,-18,-1,-16,-9,-5,-11,-6
1526905332057282,21,15,6,9,2,6,0,0
1526905332057282,-3,15,-1,-8,-10,-3,-2,-6
1526905332078226,-2,-12,-4,-5,-4,-1,0,1
1526905332078226,-6,6,1,-6,-6,-1,5,-1
1526905332079224,8,5,1,-2,-7,-2,-5,3
1526905332079224,15,11,0,-7,-6,-6,-6,0
1526905332091191,11,-1,-3,4,1,8,4,1
1526905332091191,10,22,-2,-7,-6,-2,1,-3
1526905332100167,-2,1,3,14,11,1,-2,1
1526905332100167,16,8,4,16,4,3,3,1
1526905332115127,-7,4,-4,-6,1,-6,-4,-4
1526905332115127,19,13,0,-4,2,-2,2,1
1526905332117122,-12,-5,3,-2,2,-3,-5,-3
1526905332117122,4,-7,-4,-11,-8,7,-2,0
1526905332138066,15,-6,0,6,2,-24,-10,-3
1526905332138066,0,5,0,-3,0,8,9,-1
1526905332139063,11,4,-5,-4,-2,-3,2,1
1526905332139063,-14,13,0,-1,1,-3,-5,1
1526905332151031,-18,-21,-2,-26,-13,5,1,-1
1526905332151031,17,-2,-1,12,5,1,-7,0
1526905332161005,4,-6,2,5,-5,-6,17,2
1526905332161005,-8,-8,-8,-13,-2,-3,2,-2
1526905332174967,4,6,1,-1,-4,4,-3,-4
1526905332174967,-7,5,6,24,5,-3,3,-3
1526905332176962,-7,-5,-6,-5,0,2,-5,1
1526905332176962,4,-5,-2,0,-2,-2,1,-1
1526905332197906,-17,-8,0,-1,-1,-1,3,0
1526905332197906,1,-9,0,-3,1,3,-4,1
1526905332199901,-7,-6,1,3,3,-4,-4,-2
1526905332199901,15,18,2,-6,-5,-1,-1,-2
1526905332211868,-31,-6,-6,-2,2,3,-5,-3
1526905332211868,5,1,-7,-3,-2,-2,5,-2
1526905332220844,5,-2,2,-11,-1,1,-9,3
1526905332220844,-27,0,-1,1,-2,-9,-5,-4
1526905332235804,19,-7,-1,9,7,7,0,0
1526905332235804,10,25,2,-7,-6,-9,-4,4
1526905332237799,-22,-13,0,27,9,3,2,-3
1526905332237799,-11,15,1,-3,4,2,0,1
1526905332257746,5,12,2,3,-1,2,2,-2
1526905332257746,-60,-19,-2,-5,-3,0,-1,-4
1526905332259741,23,19,-1,-11,-6,-3,-3,5
1526905332259741,5,-10,3,7,3,1,1,1
1526905332271708,-15,-8,2,6,2,2,1,4
1526905332271708,3,-8,-2,-2,-1,-1,1,1
1526905332280684,2,-14,-6,-8,-2,-2,-2,-1
1526905332280684,-8,3,-4,0,2,-2,1,1
1526905332294647,10,12,0,-3,-4,1,1,2
1526905332294647,-5,-28,-8,-2,-2,-1,-1,-1
1526905332301628,-7,6,1,-3,-1,-1,-1,-4
1526905332301628,0,-24,-7,-20,-9,-5,0,-2
1526905332317585,-5,-38,-1,23,3,4,-5,-3
1526905332317585,7,12,5,-3,-1,-13,-1,-3
1526905332319581,-15,-8,-4,-4,2,5,4,0
1526905332319581,2,4,1,-1,-2,-3,-1,-1
1526905332331548,4,-8,-2,-11,-2,-2,0,1
1526905332331548,-11,-4,-7,0,-3,0,1,-2
1526905332340525,6,-2,-6,-4,-6,-2,-7,-3
1526905332340525,-9,8,1,2,-5,0,0,-2
1526905332354487,21,26,1,-2,-2,0,2,1
1526905332354487,1,4,-2,2,0,3,1,1
1526905332361468,-1,6,2,-3,-4,-2,-3,-4
1526905332361468,-6,-5,1,8,2,3,0,2
1526905332377426,10,10,-1,-2,-5,-4,-3,-4
1526905332377426,14,6,1,0,-3,1,0,-1
1526905332379421,14,11,6,0,-1,0,-3,-8
1526905332379421,26,3,-1,-8,-2,-2,1,2
1526905332391388,-15,-3,3,21,8,1,1,2
1526905332391388,-6,2,-1,-5,4,8,-7,-4
1526905332400365,6,-18,-2,11,2,-9,-7,2
1526905332400365,-2,1,5,0,-3,-3,-13,-4
1526905332414327,-30,2,-5,-12,-7,-2,1,-3
1526905332414327,12,0,-6,-2,-6,3,2,3
1526905332421308,-21,-9,1,0,-6,0,0,0
1526905332421308,6,5,-1,0,-3,1,2,-3
1526905332438263,-41,-2,-2,-6,1,0,1,4
1526905332438263,15,9,4,5,1,-1,-6,-1
1526905332439260,0,0,0,-6,0,0,2,0
1526905332439260,1,9,-2,0,4,-4,1,0
1526905332460204,7,12,1,-13,-2,1,0,2
1526905332460204,9,-25,-2,-4,-2,-2,-2,-6
1526905332462199,-5,4,0,-1,1,-4,-2,1
1526905332462199,4,15,1,8,2,4,3,-1
1526905332475164,17,-2,1,8,1,-3,-3,0
1526905332475164,-24,21,4,0,-1,-2,-1,-5
1526905332481148,36,-14,-7,-2,-4,0,1,5
1526905332481148,-11,-1,-4,6,4,-4,0,-4
1526905332498103,-2,-15,-3,-8,-2,0,4,1
1526905332498103,-11,3,3,3,1,-4,1,-3
1526905332499101,-9,2,-1,-1,3,2,2,-1
1526905332499101,-6,-13,-5,-23,-11,-3,-5,1
1526905332520044,-2,4,3,18,13,3,0,-1
1526905332520044,-5,-1,1,0,2,0,0,1
1526905332522039,6,21,1,-9,-3,-2,-3,-2
1526905332522039,-5,-32,-4,-3,-3,-5,-9,-1
1526905332535004,4,5,-2,-14,-9,-2,-1,-4
1526905332535004,16,18,2,0,-2,0,4,3
1526905332540988,-20,-7,-2,3,-2,0,0,0
1526905332540988,27,6,2,4,2,2,6,1
1526905332557943,4,2,2,-1,-2,0,-2,-2
1526905332557943,17,-12,-1,2,0,-3,-1,3
1526905332559938,-21,-1,-3,-6,-4,-2,2,-1
1526905332559938,6,1,0,6,1,-1,2,6
1526905332579884,9,-7,-4,-8,-5,2,-5,-2
1526905332579884,5,10,-1,-15,-4,-11,2,0
1526905332581879,19,7,3,-2,4,7,6,-1
1526905332581879,-28,-9,3,9,6,0,-2,-6
1526905332593847,-12,-5,-5,-6,-3,-6,-3,2
1526905332593847,13,-1,-2,-3,-1,1,-3,-1
1526905332602823,2,2,1,0,-2,-3,-4,-2
1526905332602823,-12,-14,-3,-1,2,0,1,-1
1526905332617783,7,7,-2,-1,-2,-3,1,-4
1526905332617783,-16,-11,-3,-3,-3,3,-1,-3
1526905332619778,12,5,-2,-10,-3,-2,0,1
1526905332619778,-7,-5,3,2,3,2,0,-3
1526905332640721,-2,-1,3,-12,0,-2,3,1
1526905332640721,-1,-11,-5,-13,-4,2,5,-1
1526905332641719,9,8,-1,-2,0,-6,-15,0
1526905332641719,-12,5,-2,5,-4,-1,3,0
1526905332653687,5,9,1,8,-2,-1,0,0
1526905332653687,8,-2,0,11,4,-1,-4,-4
1526905332662663,-6,-12,-3,9,1,5,0,-1
1526905332662663,-31,18,4,6,2,1,-1,-7
1526905332677623,17,-3,0,9,0,-2,-5,-1
1526905332677623,-11,-10,-5,1,-1,0,1,6
1526905332679618,7,2,0,8,-1,-3,-1,1
1526905332679618,10,-2,-3,-3,-3,0,0,4
1526905332700562,14,11,-1,-1,-1,-2,1,-1
1526905332700562,-12,-6,0,1,-3,-5,-2,-1
1526905332701559,0,0,0,4,0,1,5,-3
1526905332701559,12,1,2,-1,1,0,1,1
1526905332713527,-19,-11,-3,-5,-1,1,-3,-7
1526905332713527,8,0,-5,-4,-7,4,10,4
1526905332723501,3,-3,1,4,12,0,-13,0
1526905332723501,-8,2,-3,-5,-4,-1,-2,-2
1526905332737463,-1,-5,-2,8,6,0,5,1
1526905332737463,12,10,3,6,0,2,1,-1
1526905332739458,-17,-7,-7,-8,-6,-2,4,-9
1526905332739458,13,1,-3,-10,-6,-6,1,4
1526905332760401,0,1,-3,-2,1,2,-6,-5
1526905332760401,-17,-6,-2,0,-2,-4,-6,-2
1526905332762396,-19,-18,1,-1,-1,4,-2,-1
1526905332762396,19,3,-2,-1,4,0,-3,3
1526905332774364,6,7,-3,-2,-4,2,2,-2
1526905332774364,8,7,2,4,3,-2,-7,-1
1526905332783340,-35,1,-4,-3,-4,-4,-2,-2
1526905332783340,41,-1,-3,-1,1,1,4,1
1526905332798300,-14,-4,0,3,-1,-2,-2,1
1526905332798300,6,-15,-3,-7,0,-1,1,2
1526905332799298,10,7,3,8,1,0,-4,-2
1526905332799298,-18,-6,2,-5,-5,0,-1,-2
1526905332820242,3,-5,0,0,0,-1,2,-1
1526905332820242,-5,9,-1,5,2,4,-7,-7
1526905332822236,3,-12,-3,-9,-8,-7,19,1
1526905332822236,0,6,-1,-1,-3,0,-6,-7
1526905332834204,1,2,0,-1,-2,-1,1,3
1526905332834204,-10,1,4,12,11,-1,1,-3
1526905332843180,17,5,1,0,0,12,-2,-6
1526905332843180,-47,-5,3,1,0,-1,-2,-9
1526905332858140,22,-13,-5,-5,0,-4,1,9
1526905332858140,2,9,-2,-6,-4,3,1,1
1526905332859137,2,-5,3,-2,-1,-5,-4,1
1526905332859137,1,-8,-2,1,-1,-6,-4,-1
1526905332880081,-14,-1,0,4,-4,3,3,-5
1526905332880081,-1,-5,-2,-13,-1,-6,-15,-1
1526905332882076,0,0,-2,4,-2,0,0,-2
1526905332882076,-1,1,0,-1,-1,-4,-1,-1
1526905332894044,-2,-1,0,-10,-1,-2,1,2
1526905332894044,-17,-7,-5,0,-4,-4,0,-6
1526905332903020,7,30,3,-5,-5,-1,-4,3
1526905332903020,16,7,0,1,-4,-9,-12,1
1526905332917980,-8,4,-2,-11,-5,-8,-8,-5
1526905332917980,-2,-8,3,21,3,11,10,1
1526905332919975,-9,7,0,-1,1,-6,-7,5
1526905332919975,-6,3,-5,7,2,3,6,3
1526905332939921,10,-2,-4,-4,-5,-2,-5,-3
1526905332939921,-7,-1,1,-1,-1,-2,-2,-3
1526905332941916,8,-5,0,6,-3,-1,8,5
1526905332941916,-9,-8,-1,15,0,1,-9,0
1526905332953884,-14,0,1,5,4,0,-2,-6
1526905332953884,7,-24,-2,12,0,2,4,5
1526905332962860,-8,-8,-5,4,-1,-3,-2,-6
1526905332962860,11,8,-4,-16,-8,-3,2,-1
1526905332977820,-13,-7,5,45,12,4,-1,-1
1526905332977820,11,9,0,-5,-2,-4,-1,1
1526905332979815,-1,-4,-2,-8,1,-1,-6,-3
1526905332979815,2,-3,-2,-16,-3,2,5,-4
1526905333000759,-9,-5,-1,-17,-6,-2,-5,-1
1526905333000759,6,9,0,-9,-1,-8,20,2
1526905333001756,0,-8,1,9,6,3,1,0
1526905333001756,-6,1,-2,-9,1,5,3,2
1526905333013724,2,-7,-4,-6,-2,-2,-6,0
1526905333013724,-7,-1,-5,-9,-3,-4,-5,-2
1526905333022700,3,0,-4,-15,-8,-3,-1,0
1526905333022700,-7,16,6,6,1,-1,6,-4
1526905333037660,11,-14,-1,-6,-2,-2,-7,5
1526905333037660,-3,7,3,-2,-2,0,-4,-2
1526905333039655,24,1,-3,2,1,1,3,-1
1526905333039655,-25,-10,-5,-1,1,-2,-4,0
1526905333060598,12,14,2,-5,-1,0,4,-4
1526905333060598,3,-6,-1,-4,-3,-4,-7,-2
1526905333061596,-7,-1,1,-8,0,1,1,-4
1526905333061596,-6,-11,2,30,6,0,4,3
1526905333073564,-5,4,0,2,0,1,0,-4
1526905333073564,2,-2,-4,-12,-3,-4,-4,-1
1526905333082540,-9,-4,-1,2,-3,-1,2,1
1526905333082540,11,-4,3,10,9,4,0,2
1526905333097500,-12,3,-4,-6,-4,0,2,-2
1526905333097500,-10,-3,5,0,-2,4,0,2
1526905333099495,7,-1,0,-5,-5,0,-5,-1
1526905333099495,0,-1,-2,-11,-2,-1,2,-1
1526905333120439,8,3,-1,2,1,-4,-3,1
1526905333120439,17,0,0,-1,0,-1,1,-2
1526905333122434,-23,-9,-4,-6,-3,-1,-1,-1
1526905333122434,-13,-1,1,-3,-4,-4,-5,-5
1526905333134401,13,14,2,22,2,4,5,4
1526905333134401,-2,-16,-5,-9,-7,-5,-14,1
1526905333143378,-12,-6,1,12,7,0,2,-1
1526905333143378,17,7,-4,-10,-6,0,-2,1
1526905333158337,-6,5,1,2,-2,1,1,-3
1526905333158337,4,20,0,-1,-2,1,2,-2
1526905333159335,-7,-15,1,7,2,-2,-2,-4
1526905333159335,0,-3,-2,-5,-3,3,0,1
1526905333180279,-6,4,-2,-7,0,-2,0,-2
1526905333180279,-5,2,-1,4,3,1,2,2
1526905333182273,-4,9,5,-6,-1,-1,-3,-5
1526905333182273,13,-11,-5,-8,0,-7,-4,1
1526905333194241,5,-3,-4,-7,-2,-2,15,-3
1526905333194241,-10,3,-1,5,2,2,-1,-2
1526905333203217,-8,-7,-5,2,0,-2,3,4
1526905333203217,-6,0,2,0,-4,-2,-4,-5
1526905333217180,0,4,-1,-8,-3,2,-4,2
1526905333217180,7,-24,-5,-9,-6,-2,0,-2
1526905333224161,-1,-8,-1,6,3,-2,1,1
1526905333224161,26,3,1,-1,1,7,8,-4
1526905333240118,-33,-24,-4,-10,-3,-4,-15,-2
1526905333240118,12,26,4,7,3,-2,1,0
1526905333242113,13,6,1,16,1,-1,-5,-2
1526905333242113,-18,-7,-1,6,-1,-1,-1,-1
1526905333254081,-9,-2,1,-7,-3,-2,-1,-1
1526905333254081,-12,-8,-4,-6,-5,-1,1,-3
1526905333263057,28,17,-2,-17,-7,-3,-5,-1
1526905333263057,-8,5,-1,12,5,-4,0,-2
1526905333277020,18,-1,-1,-11,-12,0,0,3
1526905333277020,5,-2,2,-3,-2,-2,-1,-3
1526905333284001,-7,4,0,4,8,0,-1,-2
1526905333284001,11,-1,-2,-5,-1,-1,3,2
1526905333299958,-5,3,-3,-3,-4,1,-2,-1
1526905333299958,6,-3,-1,-2,2,0,-3,-1
1526905333301953,-7,2,-1,-11,-7,-5,-5,-4
1526905333301953,18,-2,-1,6,3,-2,-2,4
1526905333313921,-7,-5,4,4,4,3,1,-3
1526905333313921,-15,-15,-4,1,-1,1,2,-3
1526905333322897,13,-6,-3,-2,-4,-1,0,4
1526905333322897,-23,-12,2,-5,-2,2,1,4
1526905333336860,2,-20,-6,-4,0,-4,-2,-4
1526905333336860,-1,12,1,-4,-2,-1,0,1
1526905333343841,-18,-6,-1,-8,0,0,2,-4
1526905333343841,-2,0,-1,5,-1,-1,-8,-7
1526905333360796,9,12,1,-1,0,-1,0,3
1526905333360796,-5,-7,-3,1,0,2,-3,-1
1526905333361793,-2,-4,-3,-9,-6,-6,-1,1
1526905333361793,13,11,-2,-5,-4,10,2,3
1526905333373761,1,6,3,8,3,-12,-14,-3
1526905333373761,-9,5,-3,6,3,-7,-3,-1
1526905333382737,14,-6,-5,-1,-3,5,10,-1
1526905333382737,-15,2,-2,-3,0,2,-5,-2
1526905333396700,7,9,3,-2,4,4,0,-1
1526905333396700,2,-5,-5,-4,-4,-1,2,-1
1526905333403681,2,6,1,0,-1,0,-11,-2
1526905333403681,-17,-16,-2,-6,-3,-5,2,-7
1526905333420636,24,22,1,-3,-2,1,2,0
1526905333420636,11,0,4,4,1,0,0,1
1526905333421633,-4,10,-1,3,1,1,2,2
1526905333421633,1,-11,-4,-7,-4,-2,-2,-1
1526905333442577,-20,-11,-1,1,-1,1,2,0
1526905333442577,3,6,-1,-1,-1,2,-1,0
1526905333444572,4,1,0,3,2,-2,-3,0
1526905333444572,-2,1,0,-8,-7,-5,1,0
1526905333457537,-18,-5,-5,3,4,1,1,-5
1526905333457537,-13,-1,0,-38,-2,-7,-14,-1
1526905333463521,9,26,2,-36,1,0,1,1
1526905333463521,11,-13,0,-20,2,0,1,5
1526905333480476,-5,3,0,-6,-1,3,1,-3
1526905333480476,-12,-5,1,18,1,4,5,0
1526905333482470,-16,1,1,15,-5,-2,-5,-8
1526905333482470,11,9,1,8,-1,-2,-4,-3
1526905333502417,26,-2,-2,11,-4,0,-1,1
1526905333502417,-17,-29,-1,13,2,3,-1,1
1526905333504412,-16,-7,-1,9,-2,1,-2,-3
1526905333504412,12,9,-1,8,1,-3,-1,-1
1526905333517377,-10,-20,0,4,0,-1,-1,-3
1526905333517377,4,15,-3,4,-2,0,2,-2
1526905333524358,-5,-17,-2,-5,-1,-8,-3,-4
1526905333524358,-7,-4,-1,3,-1,13,1,-3
1526905333540316,-2,6,-2,-6,-4,-6,1,7
1526905333540316,0,-3,2,14,6,3,-1,0
1526905333542311,-4,0,-2,2,-4,-1,0,-3
1526905333542311,-1,9,-1,-4,-1,-6,-3,-1
1526905333563254,7,-3,2,0,0,1,1,1
1526905333563254,5,24,-3,-2,-5,-1,-1,-5
1526905333564252,-5,-35,-6,3,-1,0,1,4
1526905333564252,-17,-3,0,2,1,-5,-1,-5
1526905333576220,11,-2,-4,-5,-2,0,-3,-2
1526905333576220,-9,-3,2,0,2,-2,-2,-2
1526905333585196,9,11,-1,2,0,2,3,0
1526905333585196,4,-14,-1,0,-3,-5,-2,1
1526905333600156,-31,-5,-3,-1,-5,-2,-2,-4
1526905333600156,29,17,1,0,-1,-2,0,-1
1526905333602150,-15,5,2,2,-1,2,2,-2
1526905333602150,17,-17,-3,-4,-2,-1,-1,0
1526905333623094,6,15,1,-1,3,-1,-4,-3
1526905333623094,-13,-12,-2,-9,-7,-1,1,-1
1526905333624092,13,5,-1,2,6,3,1,4
1526905333624092,-43,8,1,-3,0,-3,0,-3
1526905333636059,-4,-12,-2,5,-1,-2,-2,-4
1526905333636059,26,-21,-2,-7,-2,0,4,2
1526905333645036,-9,-1,2,9,0,-7,-2,2
1526905333645036,10,-1,-4,-9,-3,6,2,-3
1526905333659995,-1,-5,0,-6,-1,0,1,-2
1526905333659995,-3,4,0,1,0,0,-3,-1
1526905333661991,2,-2,-2,0,-1,0,0,0
1526905333661991,1,8,-1,3,-3,-2,-1,0
1526905333682934,1,-2,-3,-10,-2,1,0,1
1526905333682934,-3,3,-1,10,4,5,0,-2
1526905333684929,-22,-6,-4,-8,-6,2,-3,-6
1526905333684929,19,0,-5,8,7,1,2,1
1526905333696897,-12,-3,-2,-4,-3,0,-2,0
1526905333696897,0,12,0,-3,-3,-3,-2,1
1526905333705873,-2,-11,-3,-1,-3,-1,0,1
1526905333705873,-9,7,0,-4,-6,-1,4,-1
1526905333720833,-6,-2,2,0,2,-3,-7,-1
1526905333720833,-1,-2,0,13,5,2,-1,-4
1526905333721830,11,10,2,7,-2,-2,0,-1
1526905333721830,-8,-3,0,-5,5,-1,-5,2
1526905333742774,3,3,-5,-2,-5,-11,6,-4
1526905333742774,-11,-7,1,-1,-2,0,2,0
1526905333744769,24,3,-2,-9,-3,2,2,2
1526905333744769,-14,-5,-5,-7,-4,-6,-7,-3
1526905333756737,10,1,1,1,2,3,1,0
1526905333756737,22,37,1,-12,-4,-2,-3,-3
1526905333765713,-28,-33,-6,-3,1,-2,-1,-1
1526905333765713,12,5,1,-1,-4,-6,-3,1
1526905333780673,-5,-2,-4,-5,-8,5,0,-2
1526905333780673,6,3,-3,5,-3,-7,5,2
1526905333781670,8,2,-1,-5,0,2,0,0
1526905333781670,-5,0,1,2,-3,-2,2,5
1526905333802614,2,1,1,14,8,0,-13,-3
1526905333802614,-7,-10,0,14,7,2,-3,-2
1526905333804609,-2,-11,-2,-12,-3,0,0,0
1526905333804609,11,2,3,2,3,5,3,-1
1526905333816577,-4,7,3,5,-4,1,7,4
1526905333816577,-8,-13,-3,-8,-2,8,-5,2
1526905333825553,-2,14,0,0,-3,-19,-10,-5
1526905333825553,-4,-16,-6,-5,-4,-2,0,-2
1526905333840513,-2,-12,-2,-3,-1,-2,1,-2
1526905333840513,2,5,0,-4,-5,-1,-8,-2
1526905333841511,2,5,0,7,4,-2,2,1
1526905333841511,-9,-2,-4,-9,-10,1,2,-3
1526905333862454,16,8,6,19,8,1,5,-1
1526905333862454,-38,-29,-2,-7,-1,-2,2,-2
1526905333864449,4,5,-1,-3,-2,4,1,-1
1526905333864449,23,9,2,11,1,-1,1,4
1526905333876417,3,-5,-3,-12,-5,3,0,-1
1526905333876417,14,13,-2,-5,-1,-4,3,3
1526905333885393,-13,-1,2,2,2,2,-1,-1
1526905333885393,8,15,0,0,-1,-4,-2,-8
1526905333900353,-10,-5,-4,-2,0,8,2,-1
1526905333900353,8,-7,1,3,2,-5,-4,-1
1526905333902348,0,7,0,7,-4,0,1,-4
1526905333902348,-8,-8,-1,9,1,0,-4,-1
1526905333923291,9,7,0,6,-3,-3,-3,2
1526905333923291,-9,-13,-2,9,-3,1,1,-2
1526905333924289,16,4,2,5,2,11,6,7
1526905333924289,-14,2,-2,-13,-3,-4,-10,-6
1526905333936256,14,-19,0,9,0,-3,-3,3
1526905333936256,5,15,2,4,3,3,9,3
1526905333945233,-22,-20,0,-13,-1,-2,-14,-4
1526905333945233,-6,-1,-1,-12,-4,-4,0,-1
1526905333960193,5,-2,-1,-8,1,-2,2,2
1526905333960193,4,4,-2,-11,-3,-3,-4,-1
1526905333962188,17,2,0,-1,-1,-2,-1,-4
1526905333962188,-9,-1,1,-2,1,0,2,-1
1526905333983131,-2,6,-1,-1,1,2,-4,2
1526905333983131,-2,-5,0,-8,-4,-5,1,-4
1526905333984129,3,1,-1,8,5,-1,1,-1
1526905333984129,-7,5,-3,-8,-4,2,2,1
1526905333996097,2,-1,3,0,-2,-7,-4,0
1526905333996097,-7,9,8,31,6,4,-1,1
1526905334005073,-14,-25,-12,-20,-7,-3,-3,-5
1526905334005073,-1,5,5,17,6,9,3,2
1526905334020033,-2,4,-8,-14,-5,-16,-18,-5
1526905334020033,-11,-13,0,-10,-3,2,1,0
1526905334022027,7,10,-1,0,-2,-4,1,-1
1526905334022027,-5,-17,-1,7,3,0,2,-2
1526905334042971,7,3,-3,-10,-4,2,1,-2
1526905334042971,2,-2,0,-3,-1,-1,-2,-3
1526905334044966,19,26,0,3,1,1,-1,4
1526905334044966,-20,-32,-3,-3,1,-3,-2,0
1526905334056934,-8,7,0,-4,0,1,1,-3
1526905334056934,13,14,-2,-6,-4,-13,-4,-2
1526905334065910,-5,0,3,-6,1,11,10,4
1526905334065910,2,-22,-5,-7,-6,-2,-3,-5
1526905334079872,-11,-2,5,11,6,3,7,2
1526905334079872,-27,-1,-2,-7,-5,-1,-2,-5
1526905334081868,16,3,-4,-3,-8,-6,-4,0
1526905334081868,27,10,1,-4,-1,-5,-1,1
1526905334102811,-22,-8,-2,-9,-12,2,3,-2
1526905334102811,34,17,-1,-9,1,-1,-2,1
1526905334104806,-33,-35,-5,1,1,-1,-1,-2
1526905334104806,1,13,-1,-6,1,-2,-2,2
1526905334116774,-4,-3,-3,3,3,1,3,-3
1526905334116774,28,3,0,-7,-2,3,0,3
1526905334125750,-38,15,4,6,-1,-2,-4,-2
1526905334125750,25,6,-3,-6,-3,-3,-1,4
1526905334139713,-12,-3,2,1,5,0,2,1
1526905334139713,-4,-17,-7,-14,-8,-3,-3,-1
1526905334146694,5,9,10,29,13,3,1,0
1526905334146694,-2,-3,-4,2,-5,-2,0,2
1526905334162651,-2,5,-1,-7,-1,-2,0,-2
1526905334162651,-11,-4,2,11,5,1,0,1
1526905334164646,31,12,-6,-12,-7,-6,-2,-3
1526905334164646,-4,-17,-1,6,2,0,-1,1
1526905334176614,12,8,0,-2,2,1,2,0
1526905334176614,-18,-13,-7,-7,-1,-2,-2,0
1526905334185590,5,-3,1,-4,-2,-3,2,1
1526905334185590,3,18,3,6,2,1,0,-2
1526905334199553,-2,-10,-4,-3,-1,-1,-4,-3
1526905334199553,5,-5,-5,-4,-5,-1,-1,0
1526905334206534,-1,0,0,-2,-1,0,-2,-2
1526905334206534,-3,14,1,4,0,2,-2,-3
1526905334222491,-7,-24,-1,-1,1,-1,0,4
1526905334222491,7,-6,-3,1,0,-2,-1,-1
1526905334224486,18,10,7,3,2,4,0,1
1526905334224486,-27,-3,-3,-6,-3,-4,-6,-5
1526905334236454,8,-1,-2,-1,-3,0,0,1
1526905334236454,2,9,2,3,0,1,3,0
1526905334245430,-8,-3,-6,-9,-5,-2,-3,-3
1526905334245430,0,-10,4,-2,0,0,3,1
1526905334259392,-6,-3,-1,4,-2,-2,-3,-7
1526905334259392,-23,5,0,-14,-5,-1,-3,1
1526905334266375,-18,-8,-3,7,4,2,-2,-2
1526905334266375,24,12,3,3,2,0,3,3
1526905334283329,-5,2,1,2,1,1,0,0
1526905334283329,-5,-2,1,2,-3,1,-4,-8
1526905334284327,25,18,1,-5,-2,-5,-3,2
1526905334284327,-13,-13,-6,-3,0,2,1,0
1526905334296294,-9,0,-1,-3,-3,-1,-1,-1
1526905334296294,6,2,1,-2,0,-1,-1,-1
1526905334305270,-28,2,-2,-3,-3,0,1,0
1526905334305270,-14,-47,-3,-1,0,-2,-3,-3
1526905334319233,13,12,-1,2,-3,1,3,1
1526905334319233,-22,5,3,3,-1,-1,-6,0
1526905334326214,2,-14,-3,-4,-3,1,2,2
1526905334326214,-6,15,1,1,2,0,-2,-7
1526905334343169,-1,15,2,-10,0,-1,-3,-4
1526905334343169,-2,-30,-3,-33,-1,-7,0,4
1526905334344166,-2,0,-3,-25,-3,9,3,-1
1526905334344166,1,20,2,-12,1,-2,-2,1
1526905334356134,-9,-14,2,9,1,0,1,5
1526905334356134,20,10,-4,17,2,-1,1,-3
1526905334365110,-2,2,-2,8,-3,-6,-3,0
1526905334365110,3,6,1,7,-2,-1,3,2
1526905334380070,11,1,-2,4,0,-2,-2,-1
1526905334380070,-10,3,0,7,0,-1,-2,-1
1526905334386054,-11,-28,-3,1,-1,0,0,2
1526905334386054,6,9,-3,1,-1,0,0,1
1526905334403009,-5,4,-2,9,-2,-2,-3,1
1526905334403009,-4,4,0,10,1,2,4,-2
1526905334405004,25,6,-1,9,0,-1,-2,-3
1526905334405004,9,16,1,0,-2,0,0,0
1526905334424950,-18,-33,-7,-9,-2,-1,-3,-3
1526905334424950,7,7,-2,-1,0,1,1,0
1526905334426945,-5,-11,0,-4,-1,-2,1,3
1526905334426945,-1,3,-1,-2,-1,-3,-2,-3
1526905334439910,1,9,0,-8,1,0,-1,1
1526905334439910,-1,3,1,-1,-1,-2,-3,-2
1526905334446891,5,-13,-4,-1,-1,-3,-1,-1
1526905334446891,-22,-2,-1,0,-1,0,1,-1
1526905334462848,19,14,-1,8,1,1,-1,0
1526905334462848,-5,-9,-4,2,-2,-1,-1,-1
1526905334464843,26,18,4,5,-2,-1,-1,-3
1526905334464843,-33,-24,-1,23,9,-5,-3,-2
1526905334485787,-3,-7,-3,-5,-2,6,8,1
1526905334485787,5,1,0,-9,-1,-1,-3,1
1526905334486785,-6,1,-1,-5,-3,-2,1,-2
1526905334486785,2,-13,-5,-8,-4,-3,-3,-2
1526905334499750,10,17,4,2,-1,-4,-4,0
1526905334499750,-16,-10,-1,-60,-2,-1,0,-1
1526905334506731,-9,1,-2,-60,-1,2,0,-2
1526905334506731,-13,-31,-1,-32,0,1,-3,-1
1526905334522688,16,21,-3,-14,-3,-4,-3,-1
1526905334522688,8,-19,-4,42,0,1,2,-2
1526905334524683,-6,3,-1,31,-2,-2,-4,-6
1526905334524683,5,11,2,14,-5,0,0,-2
1526905334545627,2,-5,0,23,-2,-1,-3,-3
1526905334545627,5,0,2,20,-3,-2,-3,-3
1526905334546625,1,2,0,8,-2,-1,0,-1
1526905334546625,-8,6,1,13,-4,0,-1,-2
1526905334558593,9,-23,-6,-9,-5,-5,1,0
1526905334558593,9,6,-1,19,7,0,0,2
1526905334567569,-10,5,5,12,5,-1,-4,0
1526905334567569,9,4,-1,0,0,-2,-4,2
1526905334582528,-11,1,2,-2,1,8,6,0
1526905334582528,-10,-9,-3,-13,-5,-6,-16,-1
1526905334584523,7,20,-4,4,-3,2,-1,0
1526905334584523,9,-7,-7,5,2,1,2,-1
1526905334605467,9,4,-1,-7,-1,-3,-5,-3
1526905334605467,10,-17,-1,2,-3,1,2,2
1526905334607462,-15,-4,2,3,-2,-4,-1,2
1526905334607462,6,13,-2,3,-1,1,-3,-2
1526905334619430,-2,-4,-3,7,-2,-1,1,1
1526905334619430,-10,6,0,34,-4,-1,1,-3
1526905334628406,14,-11,1,40,2,-1,0,2
1526905334628406,1,4,-2,19,-1,1,2,-4
1526905334643366,-14,-3,0,-3,-5,-4,-7,-5
1526905334643366,-1,8,0,-18,2,-3,1,4
1526905334644363,-1,-8,-3,-13,1,1,-1,-1
1526905334644363,-1,15,2,-18,-3,-1,-4,-1
1526905334665307,-4,-25,-2,-17,2,-1,2,0
1526905334665307,13,3,-3,-23,-4,-4,-14,-5
1526905334667302,6,-13,-4,-18,-3,-3,4,3
1526905334667302,-5,10,1,-13,-7,2,2,-1
1526905334679270,7,0,-1,-5,-1,-4,-1,-3
1526905334679270,7,4,1,-10,-1,-2,-1,0
1526905334688246,-12,-1,-1,-11,-1,0,8,-3
1526905334688246,-2,-18,-2,-8,2,-1,-2,-2
1526905334703206,4,-2,-1,-16,-2,2,-2,0
1526905334703206,-5,-2,0,8,4,5,7,-3
1526905334704203,3,9,0,-27,-6,-7,-14,-5
1526905334704203,2,3,4,20,4,1,-1,-4
1526905334725147,-4,6,5,27,3,2,-1,-6
1526905334725147,-2,0,-2,-1,-2,2,1,-1
1526905334727142,11,-8,-5,-9,-1,2,0,1
1526905334727142,10,6,0,9,-3,0,4,5
1526905334739110,-14,-5,1,20,1,-3,-8,-1
1526905334739110,8,7,-1,10,0,2,2,-2
1526905334748086,-20,2,0,10,-1,0,-1,-2
1526905334748086,23,8,-3,-27,-9,-4,-3,2
1526905334763046,-3,5,6,22,14,15,1,1
1526905334763046,-8,1,0,-11,-6,-16,-10,1
1526905334764043,-7,-6,-1,4,4,-1,-2,-2
1526905334764043,0,12,-1,-6,-4,-1,2,0
1526905334784987,-15,-22,-4,-18,-3,-2,-3,1
1526905334784987,12,11,-1,-4,0,3,2,-1
1526905334786982,-4,-9,-2,-7,-2,0,-1,-2
1526905334786982,-5,9,-2,-15,-3,-4,-4,1
1526905334798949,4,18,-1,-5,-2,-6,0,-2
1526905334798949,-8,-2,4,6,0,6,4,-2
1526905334807926,1,-2,-2,16,5,-4,1,4
1526905334807926,-2,1,-2,10,-4,1,9,2
1526905334822885,7,6,1,12,12,-3,-15,-1
1526905334822885,-6,-6,-1,33,4,5,7,0
1526905334824881,-4,-4,-7,2,-9,-7,-5,-3
1526905334824881,6,-8,-1,-5,-3,11,3,0
1526905334845824,31,14,2,7,0,-3,0,-3
1526905334845824,-48,-29,-8,-14,-1,-2,0,1
1526905334846822,6,-2,1,-8,0,-1,-3,-1
1526905334846822,-20,-7,-1,-4,-3,-5,-4,1
1526905334858790,14,3,-5,-18,-11,-3,4,-1
1526905334858790,13,16,2,-14,-2,3,1,-3
1526905334867766,0,-8,-1,-2,-3,-4,-4,1
1526905334867766,-18,-9,-2,-4,5,-1,-2,-6
1526905334882726,-8,-1,-4,-12,-4,1,4,3
1526905334882726,10,-2,0,-9,-3,-1,0,-1
1526905334884720,-6,1,-1,-4,-4,-1,-4,-7
1526905334884720,2,-2,4,2,7,-1,-2,1
1526905334905664,-9,-4,-4,-11,-4,-1,3,0
1526905334905664,3,1,5,26,11,2,0,-3
1526905334906662,22,17,0,6,3,4,2,-1
1526905334906662,-21,-30,-2,1,2,-1,-2,1
1526905334918630,-14,-9,-6,-13,-7,-4,1,0
1526905334918630,-5,-7,-1,-9,-2,-6,-2,-3
1526905334927606,12,23,3,4,-2,3,2,1
1526905334927606,8,-6,-2,5,2,-2,-2,-2
1526905334942565,-5,-3,0,2,-1,0,2,-1
1526905334942565,-5,-5,-4,-6,-7,-8,-1,2
1526905334944560,-21,-7,0,14,8,6,6,-2
1526905334944560,10,12,-2,-6,-1,-4,-3,-1
1526905334965504,-18,-21,0,-5,-7,1,1,-1
1526905334965504,-5,4,-6,-7,-4,-2,-2,-1
1526905334966502,5,-8,0,1,0,-1,0,0
1526905334966502,-15,4,-1,5,0,1,0,-1
1526905334979467,31,18,3,4,-1,-2,-1,0
1526905334979467,-7,4,-1,-11,-5,2,-1,-2
1526905334988443,8,-8,-1,-4,1,-1,-2,0
1526905334988443,14,0,1,8,2,1,2,2
1526905335003403,-14,2,1,6,2,-2,-1,-6
1526905335003403,9,5,-2,-3,-1,1,-1,0
1526905335004401,1,9,3,-6,-4,1,2,0
1526905335004401,1,4,1,-4,4,-3,-3,0
1526905335025344,4,-3,-2,4,-1,-2,1,1
1526905335025344,4,-8,0,-1,-1,0,3,-2
1526905335027339,-8,-6,-1,-5,-1,1,1,1
1526905335027339,14,6,-3,-14,-4,-5,-8,0
1526905335039307,-7,0,-1,0,1,3,0,0
1526905335039307,-6,3,-1,-3,-1,-4,-1,1
1526905335055264,3,-1,-3,-5,-5,0,2,-1
1526905335055264,-4,-6,-3,-3,-3,0,-2,-4
1526905335063243,-8,-2,-2,-2,1,0,0,-1
1526905335063243,8,1,2,1,-1,-3,-3,-1
1526905335064240,10,-2,-3,-2,-2,-4,-3,-2
1526905335064240,-9,-29,-5,4,-2,2,2,-4
1526905335085184,2,20,3,-2,-2,-4,-2,-2
1526905335085184,-2,-22,-2,5,3,-1,-1,-2
1526905335087179,2,0,-4,-10,-7,-4,-2,0
1526905335087179,-10,-9,1,1,7,3,-3,-2
1526905335099147,5,0,-1,6,5,-1,8,-5
1526905335099147,-5,-1,-2,7,1,1,-3,3
1526905335108123,-13,-4,-2,-4,-1,0,-2,-1
1526905335108123,-4,0,-1,5,-1,-1,4,0
1526905335122085,-6,-5,-1,-4,-4,0,-8,-1
1526905335122085,17,14,1,-1,0,0,3,2
1526905335129067,-34,-20,-5,3,0,-7,-4,-1
1526905335129067,15,15,2,-5,-5,4,4,2
1526905335145024,8,-17,-6,-5,-2,-3,-2,5
1526905335145024,-2,2,0,-1,0,2,0,-2
1526905335147019,-2,-14,0,1,1,0,-4,0
1526905335147019,6,10,-1,0,0,-5,1,-3
1526905335158987,-18,-32,-4,-2,-1,2,-1,0
1526905335158987,23,6,-1,-1,-2,-4,-2,-5
1526905335167963,1,9,5,5,2,2,2,-1
1526905335167963,-3,4,-1,-8,-6,-9,-2,2
1526905335181926,4,5,2,11,-2,1,-1,-2
1526905335181926,-11,-1,-1,-3,-2,-2,-2,2
1526905335188906,-18,1,7,25,13,1,0,1
1526905335188906,14,16,-2,-5,-7,-4,-3,-3
1526905335205861,2,-9,-5,-8,-2,-4,-3,5
1526905335205861,3,1,-4,-20,-11,-1,-3,-5
1526905335206859,-15,-3,-2,4,0,3,0,-3
1526905335206859,24,9,3,19,4,1,-1,3
1526905335218827,-26,7,0,-9,-3,-2,1,0
1526905335218827,13,12,-1,5,1,2,1,2
1526905335227803,-13,-8,-7,-23,-10,-3,-2,-1
1526905335227803,-20,-7,-1,-3,-4,2,-3,-5
1526905335241765,9,-22,-4,14,7,2,3,4
1526905335241765,-4,5,1,-3,2,0,1,-1
1526905335248747,9,18,2,5,2,-1,-5,-2
1526905335248747,-6,-5,-2,-14,-6,-1,0,-1
1526905335265701,-11,3,5,-1,1,-4,-4,-4
1526905335265701,20,-1,-4,-1,-2,-2,-3,0
1526905335266699,8,-1,-3,-5,-3,-2,1,-1
1526905335266699,-2,-2,2,8,4,2,1,-1
1526905335278667,3,4,-3,-10,-5,-1,-3,-3
1526905335278667,-19,-11,-1,2,0,0,0,-4
1526905335287643,18,37,-1,-2,-2,-3,-3,-2
1526905335287643,-4,-34,-9,0,0,0,-3,-5
1526905335310581,4,17,-1,1,-1,-1,-2,-3
1526905335310581,-12,-11,-3,2,0,-1,1,2
1526905335311579,18,18,3,6,-2,0,1,0
1526905335311579,-23,-6,1,1,0,-2,-1,1
1526905335325541,10,6,1,-3,-4,2,-3,-1
1526905335325541,-12,-9,-1,0,1,0,-3,-4
1526905335326539,-11,-13,-3,-7,-1,-2,1,1
1526905335326539,23,3,-3,0,0,-1,-4,-1
1526905335347483,-4,5,1,-5,-2,-2,-1,-4
1526905335347483,2,8,1,-13,-8,-2,0,4
1526905335349477,-18,-28,0,26,9,2,0,-3
1526905335349477,-17,-17,-4,-6,-2,-1,1,-2
1526905335362443,33,28,1,1,4,-2,-5,-1
1526905335362443,-19,-5,-3,-4,-3,-1,0,0
1526905335369424,7,-9,0,-10,-1,-1,0,2
1526905335369424,1,19,6,2,-1,0,-1,3
1526905335385381,-14,-14,-3,0,0,-2,0,-3
1526905335385381,15,-6,1,2,1,2,1,-1
1526905335387376,-3,2,-1,-4,-2,-1,-2,-2
1526905335387376,-1,0,-2,2,1,-1,1,2
1526905335408320,-2,0,-3,-10,-7,-2,0,-1
1526905335408320,-8,1,3,7,4,0,0,-2
1526905335409318,-2,-5,-3,-3,0,1,1,2
1526905335409318,-5,14,1,-6,-3,1,-1,-4
1526905335422282,25,0,-6,-4,-3,-3,-1,2
1526905335422282,-8,-7,1,-2,0,-1,0,0
1526905335429264,4,3,0,8,1,1,0,2
1526905335429264,-9,1,0,-8,-2,-3,-1,-1
1526905335445221,-10,-5,-3,0,-3,-1,1,5
1526905335445221,23,-7,-7,-4,0,-1,-3,-3
1526905335447216,-4,5,-2,-7,-2,-1,0,3
1526905335447216,-11,-11,-3,-1,-2,-3,-4,-2
1526905335468160,18,7,0,-10,-2,-1,-2,-1
1526905335468160,-20,-1,1,2,2,1,-1,0
1526905335469157,11,3,-2,-11,-4,-4,-1,-3
1526905335469157,-16,-14,-2,0,-2,-2,2,4
1526905335481125,-8,-1,-1,6,2,-1,-1,-4
1526905335481125,-12,5,1,4,2,-2,-2,-3
1526905335490101,27,16,2,3,-4,-1,-2,-2
1526905335490101,15,5,-2,4,-1,0,0,-1
1526905335505061,-20,-6,3,5,3,1,-1,0
1526905335505061,0,2,0,4,0,0,0,0
1526905335507056,-21,-9,-3,-3,-5,-3,1,-3
1526905335507056,17,2,-4,-5,0,-2,-1,0
1526905335528000,2,4,1,7,4,2,-2,-3
1526905335528000,2,7,-4,3,0,-2,0,4
1526905335529995,-4,-10,-1,-8,-2,-2,-4,-2
1526905335529995,-5,4,4,15,3,1,2,1
1526905335541962,-1,-1,1,-11,-5,-2,5,2
1526905335541962,8,16,-2,-2,-2,-2,5,3
1526905335550939,-11,-27,-4,-3,-3,-3,-14,-4
1526905335550939,3,11,3,-1,-1,0,-2,-3
1526905335564901,7,-5,1,4,-2,-2,-3,-2
1526905335564901,-9,3,0,-5,-2,1,-3,-4
1526905335566896,-14,-17,-4,6,-1,2,-1,-3
1526905335566896,4,2,1,-1,0,-3,-3,-2
1526905335587840,-13,7,-2,-1,-3,-2,-2,-2
1526905335587840,6,-12,-1,0,-1,2,-2,-1
1526905335589835,14,9,1,6,3,0,4,2
1526905335589835,15,27,3,-1,0,-6,-2,0
1526905335601803,-16,-29,0,19,3,8,2,-3
1526905335601803,-9,-2,0,-7,-3,-7,-5,-9
1526905335610779,9,11,4,20,5,1,4,3
1526905335610779,-7,-1,-2,-10,-3,1,-2,0
1526905335625739,-3,0,-2,-14,0,-4,-2,0
1526905335625739,16,-3,-1,0,0,1,2,0
1526905335626736,-3,-3,-2,-15,-2,2,1,-5
1526905335626736,6,7,0,-1,-3,-1,6,2
1526905335647680,-13,-2,2,0,2,-3,-5,-2
1526905335647680,-2,-12,-5,-1,-2,0,0,4
1526905335649674,5,-4,-1,-8,-1,0,0,-4
1526905335649674,4,-5,-1,1,1,2,3,0
1526905335661642,-2,1,-1,-2,0,-1,3,1
1526905335661642,4,-1,-3,-2,0,-1,-2,-1
1526905335670619,-7,5,-3,0,-3,-6,0,2
1526905335670619,-2,-23,-6,-8,-10,0,-2,-2
1526905335685578,8,8,-2,-12,0,-2,-3,-3
1526905335685578,-5,-10,-3,7,0,-3,-2,-2
1526905335686576,2,3,0,-5,4,-3,0,7
1526905335686576,-3,-8,-1,-3,-6,3,-2,0
1526905335707520,9,18,-1,-3,0,-1,6,2
1526905335707520,4,-8,-6,-8,-1,-1,-1,0
1526905335709515,1,-12,-5,-6,-2,1,0,0
1526905335709515,-2,3,-1,-9,-2,-8,-6,1
1526905335721482,-8,-9,1,-2,-3,0,-1,-3
1526905335721482,-3,10,1,1,-3,-3,-2,-2
1526905335730458,9,0,-3,-1,-2,-2,-2,-3
1526905335730458,-20,-3,-1,6,5,3,0,0
1526905335745418,3,-5,-5,2,-2,-1,2,0
1526905335745418,-10,-5,1,5,3,-3,-7,-2
1526905335747414,-3,3,1,-3,-5,1,2,0
1526905335747414,0,10,-1,3,2,1,-1,-6
1526905335768357,-1,1,-5,-9,-1,-1,1,-1
1526905335768357,-6,-6,1,-10,-4,-2,1,0
1526905335769354,5,10,6,29,9,3,-1,-1
1526905335769354,-3,-6,-3,-10,-1,-8,1,-3
1526905335781322,-13,-8,-2,16,-4,3,-3,-5
1526905335781322,7,9,0,-10,-3,5,-7,-1
1526905335790298,-4,-18,-3,-6,-1,1,0,1
1526905335790298,-13,0,1,11,4,-3,-1,-1
1526905335805258,27,13,-1,-10,-12,-2,-5,0
1526905335805258,-5,-11,3,15,5,-1,0,-1
1526905335807253,-6,-1,-4,-12,-4,3,5,-5
1526905335807253,6,-6,-2,2,2,3,-4,1
1526905335828197,-7,5,-1,-2,1,-4,-5,-2
1526905335828197,-2,3,0,-2,-3,1,0,-1
1526905335829195,-3,-4,-1,-3,-1,-4,0,1
1526905335829195,4,-4,1,-4,-5,1,4,-2
1526905335841162,5,0,0,-4,5,1,1,-1
1526905335841162,-5,6,0,-4,1,1,2,-1
1526905335850138,-17,10,-1,2,-1,2,-5,-3
1526905335850138,9,-2,-2,-5,-3,-3,-2,1
1526905335865098,-15,-6,3,25,5,-1,0,1
1526905335865098,11,13,-5,-6,-1,-1,0,-1
1526905335867093,17,8,1,1,3,-1,-2,-2
1526905335867093,-10,-13,1,5,4,5,-2,-2
1526905335888037,14,12,3,-2,1,-3,4,5
1526905335888037,-13,-8,-2,0,0,-8,-3,-3
1526905335890032,6,3,-1,-4,-2,7,6,-2
1526905335890032,-3,4,-2,-6,-4,-6,-6,-2
1526905335902000,-9,-9,-2,-1,-6,1,-1,0
1526905335902000,17,4,1,3,1,-2,2,4
1526905335910976,-23,-9,-4,-3,-7,-5,0,1
1526905335910976,8,-2,-3,-6,1,1,1,0
1526905335924938,-3,-10,2,-1,-1,-1,0,-2
1526905335924938,-1,-6,-4,-5,-6,-2,-4,0
1526905335926933,-4,7,3,-2,4,-2,4,-2
1526905335926933,8,5,7,32,8,2,-8,2
1526905335947877,-8,-12,0,-3,0,0,0,-1
1526905335947877,-3,-10,-5,1,0,1,1,-4
1526905335949872,5,-3,-6,-11,-5,-3,-4,0
1526905335949872,5,1,-3,-5,-2,-2,2,2
1526905335961840,-16,-2,1,-3,1,-2,-3,-7
1526905335961840,11,-9,-2,4,-2,1,-1,3
1526905335970816,0,17,-1,-1,0,-4,-1,-2
1526905335970816,-15,-22,-1,-4,-3,0,1,-2
1526905335985776,1,2,0,-6,-1,-2,-3,0
1526905335985776,-11,-3,1,0,2,1,3,0
1526905335986773,8,1,-1,2,1,-5,-4,0
1526905335986773,4,4,-3,2,-3,9,-1,-3
1526905336007717,-2,3,-2,-3,1,-2,3,4
1526905336007717,-13,18,6,2,1,-1,-1,-6
1526905336009712,19,-24,-5,-3,-5,-3,0,8
1526905336009712,9,6,2,4,2,-4,-3,-4
1526905336021679,-12,-4,-3,-7,-3,0,-2,-4
1526905336021679,-10,4,-1,-1,-1,3,-1,-3
1526905336030656,-7,-4,-3,-1,-2,-2,-2,1
1526905336030656,-1,6,-1,0,-1,-3,1,-3
1526905336044618,12,4,3,16,3,0,-3,-3
1526905336044618,5,-6,-2,-6,-8,-3,0,-4
1526905336051600,-4,4,1,-8,-5,1,-4,-2
1526905336051600,-4,0,-2,-4,1,-2,1,2
1526905336067557,-2,1,-5,-4,0,0,-1,1
1526905336067557,14,-3,-2,-2,-1,-1,-2,0
1526905336069552,-19,-9,0,6,-1,-1,4,1
1526905336069552,5,17,2,-6,-1,-2,-2,-2
1526905336081520,2,-30,-4,-4,-3,-2,0,1
1526905336081520,5,7,1,-1,1,0,1,3
1526905336090496,-3,1,0,-2,-2,-1,-1,-5
1526905336090496,-20,0,1,1,-2,-1,2,3
1526905336104458,27,12,-1,2,2,2,0,2
1526905336104458,5,11,2,1,1,0,1,3
1526905336111440,-11,-10,-1,-1,4,0,-3,-3
1526905336111440,15,-5,-4,-9,-2,-3,0,-2
1526905336127397,-9,1,1,-9,-2,-3,-6,-5
1526905336127397,-19,-5,1,8,2,1,2,1
1526905336129392,6,12,0,1,-1,-2,-2,-1
1526905336129392,-6,-8,-3,-1,1,0,2,2
