timestamp,emg1,emg2,emg3,emg4,emg5,emg6,emg7,emg8
1576152538096147,-1,2,1,4,8,-4,1,-6
1576152538096147,-4,-4,4,4,4,-6,0,-5
1576152538097110,1,-5,3,4,4,-6,-3,-3
1576152538097110,2,-3,-5,-4,0,-5,0,2
1576152538098106,0,-1,-2,-2,-3,-2,-3,-1
1576152538098106,-3,1,1,-2,-1,1,0,4
1576152538099104,-5,0,-4,-9,-2,0,-3,1
1576152538099104,-1,3,-4,-5,2,-1,0,-4
1576152538106085,4,0,-2,-7,0,-1,-1,-2
1576152538106085,8,-1,-3,-2,-3,-3,-2,-2
1576152538115057,4,-1,-1,1,-7,1,3,11
1576152538115057,-19,-4,0,10,-3,6,-3,-9
1576152538128048,2,-1,-4,9,5,1,3,5
1576152538128048,-2,-2,-7,4,4,2,0,5
1576152538136004,0,1,1,-2,4,-1,-2,-1
1576152538136004,3,-2,1,-7,-5,0,-1,1
1576152538143016,4,2,-1,-4,-9,0,-3,2
1576152538143016,8,0,-3,-2,-7,-3,-3,-5
1576152538165923,3,-2,-1,1,-1,-6,1,-2
1576152538165923,-16,-2,5,-2,1,-4,-2,-9
1576152538203863,0,-3,-3,4,5,1,6,-1
1576152538203863,7,-1,1,6,7,-6,1,4
1576152538204817,0,3,-3,4,-2,-2,0,20
1576152538204817,0,6,-11,5,-5,-4,-4,-5
1576152538205818,-4,5,-11,3,-4,0,-6,0
1576152538205818,7,1,-6,-2,-5,2,1,0
1576152538206811,7,-7,4,-2,-1,3,1,-2
1576152538206811,-1,0,11,-5,5,3,4,7
1576152538217783,-4,-1,8,-6,-3,-3,-1,2
1576152538217783,-12,0,6,-3,-1,-3,-1,-4
1576152538224763,-13,-1,-1,0,4,-4,-3,-10
1576152538224763,-4,-1,-3,-7,1,-5,-1,6
1576152538233743,2,-1,-6,1,1,-5,-4,9
1576152538233743,-5,1,-4,0,-1,4,-6,-5
1576152538247755,5,0,-6,-1,-7,5,0,1
1576152538247755,-2,-8,-5,1,-4,4,1,-17
1576152538254735,-3,2,3,6,0,1,1,0
1576152538254735,-1,2,2,3,-4,0,0,3
1576152538269697,-12,2,-4,1,-1,-5,2,-6
1576152538269697,1,-2,-2,0,2,-2,-2,7
1576152538278622,-5,-3,-4,-2,3,0,-2,-7
1576152538278622,-10,0,-4,-4,1,2,0,2
1576152538293583,6,-1,-3,-4,4,2,-2,-17
1576152538293583,8,-4,-8,-4,-6,-1,-2,2
1576152538295583,9,-10,-4,-5,-5,-2,-7,-1
1576152538295583,6,-8,0,-8,1,-6,-4,0
1576152538316594,2,-2,8,-1,-2,-5,-5,-2
1576152538316594,4,5,9,11,-2,-6,1,3
1576152538317519,-18,9,7,6,0,-1,8,-5
1576152538317519,-5,11,2,-1,4,-2,6,7
1576152538329587,-4,-3,0,-6,4,3,2,-5
1576152538329587,1,-3,-4,-4,-1,4,-2,-8
1576152538338460,2,-1,-3,-1,-8,3,4,1
1576152538338460,-1,2,-7,4,-1,5,2,9
1576152538353451,-6,-7,-8,0,2,-4,-4,-11
1576152538353451,-3,-3,-7,0,2,-1,-6,-1
1576152538355417,4,-4,-5,2,2,-5,-6,-4
1576152538355417,12,-2,1,-1,-10,-1,-2,2
1576152538376467,7,6,0,-1,-5,3,2,8
1576152538376467,3,5,-4,-4,-5,0,-2,-3
1576152538377360,-8,-6,0,-4,-1,-5,-5,-4
1576152538377360,-12,-9,-2,3,-3,-5,-9,-12
1576152538390369,-2,2,1,-2,-5,0,-3,5
1576152538390369,-5,-1,0,-9,0,1,3,1
1576152538398306,7,0,6,-6,2,2,1,7
1576152538398306,0,-1,4,4,1,1,-1,-3
1576152538413364,-3,0,-3,7,-1,-4,-1,-7
1576152538413364,-7,0,-2,4,3,-2,1,-2
1576152538415264,4,2,-2,2,-2,-3,2,1
1576152538415264,-1,-1,1,-3,1,-2,5,-11
1576152538436302,6,10,-1,0,1,2,11,5
1576152538436302,5,-2,3,2,1,6,1,3
1576152538438194,-8,2,1,1,0,9,2,-6
1576152538438194,6,-3,-4,2,-2,4,-6,-4
1576152538450201,1,-7,3,3,1,-6,-9,-4
1576152538450201,-2,-9,7,1,2,-13,0,2
1576152538459138,-6,-14,-1,-3,-1,-4,-1,4
1576152538459138,5,-1,-3,-6,4,-1,2,6
1576152538474122,-7,2,-7,-5,2,2,-5,4
1576152538474122,-5,4,0,-1,0,-1,0,8
1576152538475098,1,2,6,-6,-6,2,-2,-3
1576152538475098,3,5,2,-2,-12,2,3,-3
1576152538496087,-7,-2,-6,-1,-5,2,-3,-3
1576152538496087,-8,-1,-10,2,-1,0,-6,-11
1576152538498037,3,0,-6,0,4,6,0,5
1576152538498037,6,1,-3,1,-1,0,3,5
1576152538510050,6,-3,7,6,0,-6,6,13
1576152538510050,5,-4,7,-3,-3,-6,4,0
1576152538518977,6,2,-1,-5,-4,-7,0,-2
1576152538518977,9,-4,0,-5,-2,-2,-10,-11
1576152538533968,-8,-5,0,-3,-2,-2,-3,14
1576152538533968,-5,-1,-2,-3,4,1,-6,-13
1576152538534934,-10,2,-1,-2,8,1,-2,0
1576152538534934,-10,-1,-10,2,4,-3,-4,-2
1576152538555879,21,7,0,-3,3,2,-1,18
1576152538555879,-9,-4,1,0,-6,1,-5,-9
1576152538557874,-2,-2,8,-4,-4,-2,0,-4
1576152538557874,-6,5,-5,-5,2,-2,4,3
1576152538578852,7,-3,-6,4,1,1,5,-4
1576152538578852,0,0,-2,2,-2,2,2,4
1576152538579823,1,0,-2,5,-5,0,5,2
1576152538579823,-9,0,5,2,-2,-2,1,-2
1576152538593779,5,-1,-5,-8,0,-1,-1,-10
1576152538593779,6,4,-2,-6,5,-1,-5,-9
1576152538595771,8,3,-1,-1,-3,-2,-6,-5
1576152538595771,-2,-8,8,-2,-4,-1,-7,-8
1576152538616722,-1,-13,4,-7,-7,-1,-4,-11
1576152538616722,-2,-5,3,3,-9,7,5,7
1576152538617719,-7,1,-8,5,-1,1,1,8
1576152538617719,1,-2,-7,0,5,-8,3,6
1576152538638660,-7,-5,-1,3,7,-3,-1,-5
1576152538638660,1,4,-3,0,3,2,2,4
1576152538640658,-6,9,1,0,-5,0,-3,-9
1576152538640658,0,1,-1,2,-7,-2,-4,1
1576152538653716,-5,-1,-3,-1,-10,-8,-1,-1
1576152538653716,4,-7,1,2,-4,-4,-4,-7
1576152538655614,2,-3,-1,-2,5,3,1,5
1576152538655614,-17,-6,1,-9,0,1,3,-5
1576152538676662,-13,2,2,-4,2,1,-1,-5
1576152538676662,0,-1,-4,-2,-4,-1,-5,-4
1576152538677556,11,3,-8,7,-7,-3,-6,1
1576152538677556,-6,-5,-4,5,-2,-1,-7,-9
1576152538698537,-5,2,4,3,1,-2,0,3
1576152538698537,3,-2,8,-4,2,0,3,13
1576152538700498,5,-6,1,-7,4,-1,-2,-4
1576152538700498,15,4,0,0,4,4,2,5
1576152538713498,0,7,-8,-4,4,2,-4,-5
1576152538713498,3,9,-10,0,4,0,0,5
1576152538719543,-6,-2,-1,5,-3,-10,0,-15
1576152538719543,-4,-6,-1,0,-2,-9,3,-2
1576152538736458,-2,-4,0,-3,-3,-4,4,0
1576152538736458,0,1,7,0,-4,0,2,0
1576152538737400,-9,-7,3,0,-6,2,-2,10
1576152538737400,-2,0,3,4,-2,2,-7,4
1576152538758343,-5,-4,-9,1,-5,1,-5,-8
1576152538758343,3,6,-1,-1,0,2,-1,2
1576152538760335,10,1,2,-4,3,2,-2,-10
1576152538760335,-7,-3,-8,-5,3,2,-2,-7
1576152538773409,16,-4,-3,0,3,2,1,10
1576152538773409,-4,-11,-5,-2,-4,-6,0,2
1576152538780319,-2,1,-1,2,-1,-3,4,1
1576152538780319,9,2,7,1,-2,-4,-2,4
1576152538796239,-15,1,10,-2,-3,0,-4,-16
1576152538796239,-16,2,-3,-1,0,0,-7,-12
1576152538798233,2,8,-5,-9,7,2,-2,-1
1576152538798233,4,1,0,-1,4,-2,0,-1
1576152538819176,-2,-4,-1,-3,1,-2,0,-1
1576152538819176,-2,0,-2,-1,10,1,3,-2
1576152538820176,-2,-3,-4,-4,7,1,-4,1
1576152538820176,1,4,-12,5,1,3,-3,9
1576152538833241,11,7,2,7,-3,0,0,6
1576152538833241,1,1,4,7,-8,-4,2,0
1576152538840244,-5,-4,6,1,-4,-3,-1,3
1576152538840244,-8,-3,0,-3,-14,-2,0,0
1576152538856180,2,0,5,-4,-6,-1,1,0
1576152538856180,1,3,0,-4,-2,-1,-4,-5
1576152538858073,-10,-5,-4,-1,-1,-4,-2,-8
1576152538858073,3,-8,-3,-3,-1,0,0,-1
1576152538879077,8,-1,-10,-1,1,-1,0,0
1576152538879077,-4,-2,-4,0,4,-1,2,8
1576152538880013,22,-1,1,-3,1,2,4,-1
1576152538880013,-8,3,0,-7,3,-3,2,2
1576152538892986,3,6,-3,3,0,-2,0,5
1576152538892986,3,-1,-1,-6,-6,1,1,-5
1576152538900060,-7,-7,2,4,-13,2,-2,0
1576152538900060,-7,-4,0,2,-4,0,-1,0
1576152538916017,6,-3,-3,-2,-6,-1,-3,-4
1576152538916017,-2,-5,1,1,1,-2,-6,-3
1576152538917920,7,2,-1,-4,3,0,-2,2
1576152538917920,-4,-3,-1,6,5,5,-1,2
1576152538938866,-11,-5,-1,-3,2,0,-7,-2
1576152538938866,-1,3,0,-1,1,-1,0,7
1576152538939854,1,2,-1,0,5,-3,5,-11
1576152538939854,7,3,-2,1,3,4,4,-3
1576152538952861,-4,1,-4,-1,1,2,0,-5
1576152538952861,5,-2,-1,-5,-7,0,1,2
1576152538959803,1,3,0,-3,-8,-4,4,5
1576152538959803,6,1,4,-3,-7,-4,-1,-7
1576152538975765,-17,4,4,4,1,1,-3,-6
1576152538975765,-15,1,0,-3,3,2,-6,1
1576152538977750,-17,0,-6,-2,3,-3,0,3
1576152538977750,-6,-5,-2,-4,2,-7,-2,-2
1576152538998700,7,-6,6,0,0,-5,-4,13
1576152538998700,10,-6,-2,5,2,-4,-3,-3
1576152539000690,-5,-3,-8,2,-3,5,-6,4
1576152539000690,9,-5,-3,-5,-5,7,1,-13
1576152539012691,3,-6,3,-9,-3,-7,4,-11
1576152539012691,3,9,6,0,1,-10,5,7
1576152539019653,15,1,6,0,-3,-9,1,11
1576152539019653,-1,0,-3,2,1,-2,-1,3
1576152539036608,0,-3,-7,1,5,7,0,4
1576152539036608,-3,-4,-5,-2,5,1,-1,-10
1576152539037605,7,5,1,2,0,4,-4,-7
1576152539037605,0,2,3,-2,-6,-3,-6,4
1576152539058548,-7,3,-1,0,-2,-4,-2,-10
1576152539058548,-1,-1,-6,0,-5,-3,1,-8
1576152539060546,-11,-5,-5,0,1,1,1,9
1576152539060546,4,0,5,6,0,2,4,9
1576152539072509,15,-4,5,7,-2,1,6,7
1576152539072509,-17,-6,0,-2,-3,1,-1,-9
1576152539081486,-1,-5,-5,-5,-3,-4,-2,1
1576152539081486,3,0,2,-5,-1,-1,-3,4
1576152539096451,-6,1,1,-1,1,0,-2,-2
1576152539096451,12,-1,0,1,-3,1,5,8
1576152539097446,4,3,3,0,-4,-1,1,-10
1576152539097446,-9,0,-4,1,0,-2,-6,-11
1576152539118430,-4,6,-4,-2,-3,-1,-5,-5
1576152539118430,1,8,-4,-1,-6,1,-2,2
1576152539120423,-5,-2,-2,-3,0,2,-3,-4
1576152539120423,0,-2,-7,-8,3,2,0,6
1576152539132396,-10,-2,-4,-4,9,-1,1,3
1576152539132396,-2,-6,-2,-1,3,2,-3,5
1576152539141367,8,2,0,4,-2,5,1,11
1576152539141367,8,-2,-1,1,-7,-5,-1,-11
1576152539156327,-9,4,5,6,-3,-3,-1,-6
1576152539156327,-2,-3,-1,3,1,-2,-3,-1
1576152539157324,-15,-3,-4,-4,1,-4,1,-4
1576152539157324,7,-3,-1,-7,-2,-4,1,5
1576152539179267,1,2,0,-9,-6,-6,-1,1
1576152539179267,-4,0,4,3,-6,-5,-5,-7
1576152539180268,-1,-5,-1,4,-5,0,-6,-12
1576152539180268,-11,0,-7,-1,8,9,-2,-4
1576152539201210,12,1,-11,-2,2,8,5,9
1576152539201210,10,-2,-3,-5,3,2,6,1
1576152539203202,13,-1,-1,-4,-2,-6,1,5
1576152539203202,2,2,-1,1,-4,-3,1,7
1576152539223149,9,-3,4,4,-2,0,-8,-2
1576152539223149,-7,-8,6,-1,-2,3,-2,-3
1576152539225144,-7,-2,3,-2,-3,3,-5,7
1576152539225144,-13,2,7,3,-1,-6,-2,-18
1576152539238109,-8,-7,-3,4,-6,-7,1,-6
1576152539238109,-2,3,-1,3,-6,-5,5,-1
1576152539245092,-3,0,5,1,3,-2,2,7
1576152539245092,-5,-4,-4,0,2,1,-3,4
1576152539261047,-1,-3,-6,-5,-3,-4,-4,-2
1576152539261047,10,-8,-1,-2,-1,2,0,-3
1576152539263050,6,1,2,4,4,0,-4,-1
1576152539263050,6,-4,-1,1,4,-1,-6,7
1576152539283988,-2,0,-5,-10,-4,6,-4,1
1576152539283988,0,8,-3,-9,-1,0,-2,-3
1576152539284982,-2,0,-4,-11,3,-1,4,-12
1576152539284982,-1,-3,-4,-2,2,-3,3,1
1576152539297948,-10,2,-3,7,-2,-5,3,1
1576152539297948,-1,3,-2,0,-4,-2,0,-2
1576152539304930,-1,-1,-2,-3,-2,2,1,-7
1576152539304930,-4,3,-3,-4,-1,1,0,-4
1576152539321492,0,-5,-3,-6,6,-1,1,6
1576152539321492,-2,2,0,4,6,-2,-8,-7
1576152539322490,-1,3,-6,7,-1,-2,-3,-6
1576152539322490,2,-2,-2,8,-5,-1,1,6
1576152539343436,1,-6,-1,6,-3,-1,1,-3
1576152539343436,-5,-8,1,-1,-2,-1,1,6
1576152539345434,-14,-5,9,-6,-5,-1,-2,-7
1576152539345434,-7,4,5,-7,-1,-1,1,-3
1576152539358394,1,7,2,-6,0,1,3,2
1576152539358394,-9,1,-1,-4,1,0,-3,5
1576152539364406,6,7,3,3,4,-1,-2,11
1576152539364406,3,-3,2,1,2,-4,-2,1
1576152539381335,14,-5,1,-1,-2,-6,0,-10
1576152539381335,-10,-5,-7,-3,-2,1,2,-3
1576152539382335,-1,-2,-6,-3,-2,2,-2,-3
1576152539382335,-17,-5,-4,3,-2,0,0,-8
1576152539403279,2,0,-1,1,-5,4,2,5
1576152539403279,-4,4,-2,1,-7,-1,-5,-10
1576152539405269,1,1,6,1,-2,-2,-3,-21
1576152539405269,0,2,6,3,1,0,1,-4
1576152539417886,-4,0,-3,3,1,1,4,-3
1576152539417886,4,3,-5,0,1,1,3,6
1576152539424850,1,0,-9,-3,-1,-5,2,16
1576152539424850,2,-6,0,-9,-3,-4,0,2
1576152539440807,-10,-10,2,-1,3,-3,-5,-4
1576152539440807,-4,0,2,4,4,-3,-2,-4
1576152539442802,-3,-3,0,4,3,0,-3,1
1576152539442802,4,7,-2,0,-2,-3,-1,5
1576152539463779,-3,7,0,-1,-10,3,-5,-3
1576152539463779,16,5,2,3,-2,3,-5,2
1576152539464746,3,6,-4,0,3,-1,2,7
1576152539464746,-10,-1,-8,-2,0,4,4,-3
1576152539477711,5,-5,-2,-1,4,1,4,0
1576152539477711,-8,-5,-1,-3,-3,-2,2,8
1576152539484727,-5,-6,3,-1,-5,-4,-2,1
1576152539484727,15,1,1,3,0,1,-3,6
1576152539501644,-8,0,-1,-5,3,-1,-6,-3
1576152539501644,-6,-7,-1,-1,3,2,2,-2
1576152539502647,9,-6,-3,-2,2,-1,2,-2
1576152539502647,9,-3,3,-4,-4,1,4,9
1576152539523623,-4,-5,2,3,-1,-5,0,1
1576152539523623,0,-9,-3,-1,-3,-1,0,6
1576152539525585,-11,8,-2,2,-6,0,0,-3
1576152539525585,-3,9,-1,9,-1,-3,-5,-2
1576152539537550,1,8,3,-1,-2,1,-9,-11
1576152539537550,10,4,-3,-10,-2,-2,-1,-4
1576152539544531,3,-11,-9,-5,1,-3,2,-1
1576152539544531,16,0,3,-4,-1,0,2,0
1576152539561507,-14,3,-2,-2,-2,-6,0,7
1576152539561507,-5,-2,1,-2,0,-9,-5,0
1576152539562482,0,0,0,-5,-2,-1,1,-3
1576152539562482,-4,-5,0,-4,-5,1,-1,-5
1576152539583495,0,4,-2,0,3,-1,0,-4
1576152539583495,15,5,-2,5,5,-1,1,0
1576152539585421,-2,-2,-3,9,5,0,-2,8
1576152539585421,0,-1,3,8,6,4,0,4
1576152539597389,1,-4,-2,0,0,2,-2,-10
1576152539597389,-5,2,-2,-3,-6,3,4,-10
1576152539606364,-5,-2,-2,-3,-4,0,3,5
1576152539606364,1,-11,0,-4,-1,-4,-1,-2
1576152539621327,-5,-9,-3,-5,-3,2,-6,3
1576152539621327,-1,-3,1,-2,-3,-3,-9,-6
1576152539622321,-3,2,0,3,5,2,-2,-2
1576152539622321,-4,7,-1,-3,-1,2,1,3
1576152539643265,0,0,-4,-2,-6,-3,3,-2
1576152539643265,-14,-2,-8,-4,-6,-11,2,1
1576152539645262,-1,-2,-2,-4,-8,-5,-4,-9
1576152539645262,-11,-6,2,-2,-3,2,-3,-13
1576152539657229,10,9,3,-1,3,5,1,25
1576152539657229,-8,-3,2,4,0,6,-7,-18
1576152539666205,5,6,1,0,4,-1,-3,2
1576152539666205,-3,1,-5,-1,5,-3,-3,2
1576152539681165,1,3,2,-2,-3,-2,3,-1
1576152539681165,-6,2,1,5,0,-5,6,4
1576152539683160,-8,-11,-4,0,-4,1,2,1
1576152539683160,2,-6,0,0,-9,-1,-3,-6
1576152539704136,-3,-4,1,-6,-2,-2,-4,-1
1576152539704136,8,3,7,1,4,4,3,3
1576152539705100,0,1,-1,2,-2,0,-3,-7
1576152539705100,10,4,-5,5,-2,-1,1,5
1576152539717122,9,4,-7,0,-1,-2,3,1
1576152539717122,-4,-1,-1,-5,-3,0,3,7
1576152539726045,1,5,7,-1,-2,3,2,2
1576152539726045,0,-4,-1,-1,-3,1,-3,-5
1576152539741075,-3,-3,0,-1,1,-5,-5,-6
1576152539741075,11,-3,-6,0,4,1,-7,-19
1576152539743000,-6,-5,-5,-3,5,-2,0,-2
1576152539743000,0,-3,3,-7,5,-7,3,-2
1576152539764043,7,1,-1,1,-1,1,1,2
1576152539764043,9,2,3,0,-7,2,-4,2
1576152539764943,-21,-2,0,-4,-2,-6,0,-3
1576152539764943,-9,-3,-2,0,2,-2,2,-16
1576152539777008,-5,-2,-2,-2,2,1,3,0
1576152539777008,-2,0,-1,5,-2,0,1,8
1576152539786001,2,1,0,5,-3,1,2,-3
1576152539786001,-10,-1,-9,-2,-2,-2,-3,1
1576152539800850,5,2,-3,1,-1,2,-5,3
1576152539800850,-1,6,-7,-3,2,2,-5,-7
1576152539802840,5,0,3,-1,2,1,-1,6
1576152539802840,3,-6,7,-5,-5,-3,2,6
1576152539823787,-5,-13,6,0,-1,-3,6,1
1576152539823787,0,-3,2,-3,-4,-3,3,17
1576152539824785,2,-1,0,1,-6,2,-5,-4
1576152539824785,-11,0,-4,5,-2,1,-5,-8
1576152539837754,-7,0,-4,4,2,-1,-6,-3
1576152539837754,8,-4,-5,2,2,2,5,11
1576152539846723,5,0,-6,-6,5,-3,5,5
1576152539846723,-4,-1,-2,-3,3,-1,-1,3
1576152539861683,-4,5,1,6,3,-1,-1,-8
1576152539861683,-7,1,0,-2,-3,1,-2,-2
1576152539862684,6,-2,1,-2,-5,-2,-1,-6
1576152539862684,6,1,5,-2,-8,3,-1,-6
1576152539883727,5,-1,1,-8,0,-4,4,-3
1576152539883727,-9,2,-1,-1,2,-2,-2,-5
1576152539885620,1,2,-1,2,1,-3,-3,4
1576152539885620,-7,-3,0,6,4,-4,-3,6
1576152539897689,-1,-4,-4,5,2,-1,-2,-3
1576152539897689,2,4,-5,2,-2,-1,0,2
1576152539906563,-4,-4,-9,-6,-3,3,4,-4
1576152539906563,3,0,-1,-6,-5,0,-2,-5
1576152539921567,-2,-3,6,-4,-11,-1,-2,-4
1576152539921567,-1,1,3,-3,-8,-5,-2,-1
1576152539922523,-1,5,3,3,1,-2,-1,-7
1576152539922523,7,-3,-7,0,5,1,-3,-9
1576152539943567,-7,-4,-5,-1,8,0,-3,0
1576152539943567,-1,-4,-4,-3,4,0,-2,-1
1576152539945464,-6,-2,-5,-2,-1,-3,-2,4
1576152539945464,-4,-1,-2,-1,3,-6,1,3
1576152539957527,14,-10,-6,2,-2,1,-1,-1
1576152539957527,-9,-6,0,-5,4,-3,-1,0
1576152539966408,-2,-2,4,-7,-6,-1,-3,1
1576152539966408,6,12,5,0,1,2,5,7
1576152539981466,-22,-2,4,1,-4,0,3,-9
1576152539981466,7,-5,1,3,-6,3,4,-3
1576152539982363,13,1,-2,2,-4,5,-1,3
1576152539982363,2,-2,2,2,-2,2,-3,1
1576152540003320,2,7,8,-2,1,-3,-3,7
1576152540003320,10,-2,-1,-2,-1,-5,3,12
1576152540005299,3,-4,-7,4,3,-1,1,6
1576152540005299,-8,-8,-9,-5,3,2,-3,-2
1576152540026275,-1,2,-1,-6,5,-1,-2,-5
1576152540026275,-5,1,2,-3,1,-7,3,-1
1576152540027240,4,-3,-4,0,-5,-5,0,-1
1576152540027240,3,3,0,4,-7,2,3,2
1576152540041236,-8,3,-2,-1,-6,-1,-4,5
1576152540041236,-9,2,-3,-6,-4,2,-5,-17
1576152540042200,0,1,-5,4,5,2,-1,-6
1576152540042200,9,0,-7,0,-2,-3,-4,-6
1576152540064145,5,4,2,1,-5,-1,-1,-2
1576152540064145,-2,4,-3,4,2,-2,-4,-2
1576152540065142,-11,-1,2,-3,1,0,-5,3
1576152540065142,-8,-4,2,-2,2,-1,-3,3
1576152540086085,-2,-7,1,0,-3,-3,0,-1
1576152540086085,-5,-4,-1,0,4,-6,1,2
1576152540088077,-3,3,-4,-6,2,-3,7,7
1576152540088077,-8,8,0,-3,-3,-4,0,-4
1576152540101044,14,8,-4,-2,0,4,2,13
1576152540101044,6,-4,-1,-5,-2,5,-8,-8
1576152540103038,0,-1,6,3,5,1,-3,-7
1576152540103038,-7,-2,4,-2,-1,4,0,-2
1576152540124045,-2,-5,-3,1,-6,1,4,-5
1576152540124045,-8,-4,-2,4,-2,-1,-1,1
1576152540124981,6,-2,1,-5,-4,-5,2,-2
1576152540124981,-8,-2,1,-2,-4,-3,4,-3
1576152540145924,5,-6,-4,2,1,-3,2,-1
1576152540145924,2,5,1,-1,1,2,0,-1
1576152540147918,-2,-4,6,-6,3,0,-1,-5
1576152540147918,-2,-7,0,-4,0,1,-6,0
1576152540159984,-4,-6,-11,-9,-5,0,-3,-2
1576152540159984,11,0,-1,3,-4,2,2,9
1576152540168865,-5,-3,-4,2,-4,1,-1,-3
1576152540168865,8,7,-2,4,-1,-6,3,5
1576152540183925,-2,6,-6,3,0,-1,-2,3
1576152540183925,-11,0,-9,5,-3,-2,-5,-8
1576152540184822,-4,1,1,1,0,0,-3,-2
1576152540184822,2,-1,5,3,6,2,4,-1
1576152540206760,1,3,2,-2,6,0,3,-6
1576152540206760,-3,0,-5,-3,5,-3,4,-8
1576152540207762,7,-3,-4,-1,2,-3,-1,-4
1576152540207762,0,-4,0,-5,-6,-1,-8,-8
1576152540220821,5,-1,10,-2,-7,6,-1,7
1576152540220821,-10,-12,2,-10,-5,-1,-3,-6
1576152540227711,-2,0,-1,-2,-3,-2,-3,-2
1576152540227711,-1,2,-1,-2,1,-4,1,1
1576152540243766,-4,1,1,1,4,-4,-4,2
1576152540243766,1,-1,2,-3,2,-1,-2,3
1576152540245656,-8,0,-8,-8,-9,3,-1,-3
1576152540245656,-8,14,-10,-4,-8,2,1,3
1576152540266662,-9,5,-6,-1,-4,-2,5,-9
1576152540266662,2,-5,3,-1,0,-2,0,2
1576152540267604,-4,-4,9,3,2,-3,-2,1
1576152540267604,4,-4,-4,2,-1,-4,-6,9
1576152540280665,1,-3,-7,-2,-4,-4,-7,7
1576152540280665,2,2,-3,2,3,-3,1,-4
1576152540287647,2,0,1,2,7,-5,5,-7
1576152540287647,4,-4,10,2,3,1,2,3
1576152540303546,-7,-7,7,1,-2,5,-2,2
1576152540303546,-6,-2,-3,-2,-5,6,0,9
1576152540305498,1,3,-4,5,-3,1,-4,-6
1576152540305498,-7,-7,-1,1,0,-7,-3,-4
1576152540326543,6,-4,2,2,4,-6,-4,-9
1576152540326543,15,4,3,0,4,0,-1,1
1576152540327440,-9,-7,-3,-4,-3,1,-3,-1
1576152540327440,-3,2,-1,-3,-7,2,-3,-14
1576152540340507,-7,6,-3,-1,-8,3,3,2
1576152540340507,-3,3,-8,-4,-1,0,0,4
1576152540347487,5,3,-1,0,1,0,-3,4
1576152540347487,1,-6,-2,-6,3,-1,-1,4
1576152540363444,4,-5,3,-3,1,-2,2,-1
1576152540363444,12,2,1,1,-5,-4,6,4
1576152540365344,-5,-2,-1,1,-5,2,3,5
1576152540365344,-7,-12,-4,-5,-3,2,4,-7
1576152540386318,8,2,-6,-5,2,-4,0,-14
1576152540386318,8,-1,-3,6,3,-4,1,-2
1576152540388278,-10,-1,-3,0,4,-2,0,1
1576152540388278,-9,1,-4,5,5,0,1,10
1576152540400346,-25,-4,-4,-2,-1,-1,-10,-19
1576152540400346,-11,-2,1,2,-4,4,-7,-8
1576152540407328,9,-1,5,0,-4,1,-5,4
1576152540407328,2,6,4,0,-2,3,-4,2
1576152540424226,-1,-6,0,-2,-4,0,1,-1
1576152540424226,-3,5,8,-2,-3,1,-1,2
1576152540425180,1,-1,-4,-6,-2,-3,1,-5
1576152540425180,6,1,-2,0,-3,-5,3,0
1576152540446223,6,-1,-6,1,1,-4,-1,3
1576152540446223,-3,-4,-2,-1,3,-4,-2,-8
1576152540448115,-2,0,4,1,7,-4,5,-9
1576152540448115,-2,-4,-1,-4,6,-1,-3,-3
1576152540461081,3,0,5,1,-3,-1,-2,17
1576152540461081,-4,-1,-7,0,-5,-1,-8,-13
1576152540467167,3,6,-7,3,-9,0,-6,-4
1576152540467167,1,2,-4,0,-3,-2,-1,-7
1576152540484134,-13,-6,-1,0,2,-3,3,4
1576152540484134,5,-2,-4,-3,0,-2,4,1
1576152540485016,3,3,6,-1,-2,1,-3,1
1576152540485016,3,3,1,-3,-3,3,-4,-2
1576152540506059,10,1,3,-2,2,3,-1,2
1576152540506059,-4,-4,7,-8,-1,-1,4,7
1576152540507958,3,-4,-5,-5,-2,-2,11,4
1576152540507958,3,0,-5,3,-8,-4,6,-5
1576152540520023,6,0,-7,3,-3,-5,1,3
1576152540520023,-1,-11,1,1,1,0,-10,-22
1576152540528901,4,3,-6,1,1,0,-7,-1
1576152540528901,9,-5,-3,-6,0,-2,-1,3
1576152540543860,-12,1,0,-4,0,0,-2,-7
1576152540543860,-7,4,0,1,-2,5,-4,1
1576152540544857,-11,-5,1,-4,-5,2,-4,0
1576152540544857,3,-2,-2,3,-2,2,-4,-9
1576152540566798,3,5,2,-1,2,0,0,-4
1576152540566798,-5,2,5,-2,7,-1,-2,2
1576152540567800,6,2,2,-3,1,-3,-1,-1
1576152540567800,2,-3,-2,3,-2,-4,1,12
1576152540579860,7,0,-4,-2,-3,-3,3,-15
1576152540579860,2,0,-9,-6,-5,1,3,-2
1576152540588743,-1,-4,0,-1,-3,-2,0,-3
1576152540588743,-14,2,-2,-5,0,0,0,-2
1576152540603803,-4,-2,1,1,1,-4,1,18
1576152540603803,2,3,7,4,3,-5,2,1
1576152540605695,-2,-1,3,3,-1,0,-5,-5
1576152540605695,1,-3,2,4,-2,7,1,2
1576152540626688,-3,-7,-7,-1,-2,8,-2,5
1576152540626688,-7,2,-8,1,-8,4,-7,-3
1576152540627642,0,5,-1,1,-7,1,-3,4
1576152540627642,-9,6,-7,7,3,-5,0,2
1576152540639710,-1,0,-1,0,6,-3,1,4
1576152540639710,-1,-6,-1,-4,3,-7,5,3
1576152540648578,0,-11,-1,-7,-3,0,-1,3
1576152540648578,4,-7,3,-2,1,0,-4,-3
1576152540663642,4,-6,5,-5,-1,-2,-8,-10
1576152540663642,7,7,2,1,0,-3,-3,15
1576152540665534,13,0,0,-4,1,-1,-3,-8
1576152540665534,-11,1,-4,-3,-5,-1,6,-12
1576152540686531,6,3,0,1,-3,2,-2,9
1576152540686531,1,1,-6,2,-8,-1,2,14
1576152540687475,0,-6,-9,6,3,-1,2,7
1576152540687475,-4,1,-5,-2,2,3,3,-7
1576152540699485,-1,-5,6,1,5,2,4,-17
1576152540699485,1,2,4,4,1,-5,4,-7
1576152540708447,-3,7,1,2,-1,-10,5,12
1576152540708447,-5,2,3,0,-2,-8,-7,-2
1576152540723475,-7,5,-6,-8,-1,0,-4,-3
1576152540723475,-6,-7,-8,-4,4,1,-7,0
1576152540725383,2,-1,-2,-4,1,7,-5,11
1576152540725383,7,-2,-1,-3,-1,1,-6,-7
1576152540746485,1,-2,-1,1,-5,-1,4,-15
1576152540746485,-1,-4,5,-4,-5,-1,1,7
1576152540747396,-4,-6,8,1,0,1,0,-4
1576152540747396,4,2,-1,-7,0,2,1,11
1576152540760384,-1,-1,-2,0,1,1,-3,-8
1576152540760384,0,5,-5,1,3,-2,1,-12
1576152540769330,-12,6,0,-3,3,-3,-2,-10
1576152540769330,6,-2,9,-3,-2,-7,2,8
1576152540784288,9,-5,7,-4,-5,-3,4,11
1576152540784288,-5,-2,5,-6,-3,1,-2,-11
1576152540785283,-6,1,-2,-4,-7,2,-5,-5
1576152540785283,-5,-1,-14,2,-1,2,-6,2
1576152540806225,-9,1,-12,3,-2,-5,-4,3
1576152540806225,-4,-8,-1,8,1,-5,-2,-1
1576152540808219,-10,-7,1,1,3,-5,-3,-11
1576152540808219,-12,-9,3,3,-2,-1,4,-3
1576152540820301,3,1,0,7,4,2,2,-1
1576152540820301,3,0,-4,1,-1,7,-3,-7
1576152540829016,2,2,-1,-2,-2,3,4,-4
1576152540829016,9,3,1,-4,-3,-1,2,9
1576152540843978,-5,-7,0,-2,-3,-6,0,1
1576152540843978,6,0,2,-4,3,0,3,0
1576152540844965,-2,5,0,0,7,1,-1,-2
1576152540844965,-1,0,5,1,2,3,-5,-4
1576152540865945,1,7,-1,-2,2,-1,-2,2
1576152540865945,4,3,1,4,-1,-3,1,4
1576152540867910,-7,3,-6,-6,-1,-1,4,2
1576152540867910,-4,0,-1,-9,2,0,-2,-7
1576152540879913,0,1,-1,-7,-7,0,-2,4
1576152540879913,-6,-9,-4,-7,-5,-2,-4,-8
1576152540888856,2,-2,-8,7,-8,0,-2,-1
1576152540888856,16,-1,-2,8,-2,-1,0,2
1576152540903815,-13,0,2,6,-3,-2,1,0
1576152540903815,19,3,-3,3,-7,2,1,9
1576152540904805,11,3,-1,-1,4,2,-1,2
1576152540904805,-8,-5,0,-3,2,-1,-4,-11
1576152540925784,-7,-3,7,-3,2,0,1,2
1576152540925784,-13,-4,-1,-9,4,-1,2,0
1576152540927743,-2,-4,1,-9,-3,-4,-2,-8
1576152540927743,12,-1,-3,-2,-6,-1,0,5
1576152540939780,6,-2,-4,-3,-1,0,-4,1
1576152540939780,4,0,-1,-1,2,0,4,-4
1576152540948687,1,3,-2,6,2,-4,3,6
1576152540948687,-14,9,-3,7,7,-2,3,8
1576152540963751,3,1,-1,5,1,-5,0,-2
1576152540963751,-8,2,-2,4,-2,-1,-6,1
1576152540965646,2,-1,3,-4,-3,-2,-3,8
1576152540965646,-3,-5,0,-3,-4,2,-6,-13
1576152540986637,2,-3,1,2,3,4,-1,4
1576152540986637,1,-3,-2,-6,3,1,5,10
1576152540987586,-7,-8,4,-8,-1,-3,0,-3
1576152540987586,6,-2,-4,-8,-6,-2,-1,-4
1576152541008535,0,0,-1,-10,-4,-4,0,-4
1576152541008535,-3,-2,-4,2,1,0,-4,-2
1576152541010556,-9,-13,-1,8,1,5,-1,2
1576152541010556,1,-5,6,1,6,0,2,3
1576152541023523,1,4,0,0,5,0,1,3
1576152541023523,12,14,0,1,3,-2,1,5
1576152541025485,-3,5,-5,-7,-1,-6,-1,2
1576152541025485,-4,-1,-2,-1,-3,-3,-5,-17
1576152541046487,5,-3,0,4,-7,-1,-5,-5
1576152541046487,3,-11,-7,2,-9,2,-2,-1
1576152541047475,18,-1,3,5,-4,7,7,10
1576152541047475,-18,-8,-1,3,-5,-1,-1,-32
1576152541068419,-12,-2,-4,0,-1,2,0,-5
1576152541068419,2,-1,4,-3,3,-1,0,-2
1576152541070414,-2,-4,3,-10,-1,-6,1,-4
1576152541070414,6,5,8,-11,0,-6,0,16
1576152541083471,3,7,1,-4,-5,-8,-3,3
1576152541083471,-2,-1,-6,-1,-2,-5,-4,-12
1576152541090364,6,-2,-6,2,-2,-3,-3,-5
1576152541090364,17,-1,3,0,2,1,2,12
1576152541106319,-3,-7,-5,-3,4,5,-4,-1
1576152541106319,0,3,2,0,2,3,-4,0
1576152541107314,-5,4,-3,2,-1,2,4,-3
1576152541107314,-27,5,-6,0,-3,7,-1,-3
1576152541128941,-7,8,1,3,-3,4,1,3
1576152541128941,-28,-6,-4,-4,-8,-7,-8,-12
1576152541129923,-17,-4,-7,1,1,-4,-4,0
1576152541129923,9,-3,-13,2,0,-2,2,-6
1576152541142986,1,-9,-10,-1,-1,2,3,-2
1576152541142986,-12,-2,0,-6,1,1,-2,7
1576152541149969,-1,3,10,-5,-4,1,-7,-4
1576152541149969,13,2,10,2,5,-2,7,14
1576152541166826,5,1,8,5,5,-6,5,-11
1576152541166826,16,-5,9,1,3,0,5,-1
1576152541167824,-1,6,3,2,3,-1,-1,6
1576152541167824,-1,4,-6,2,-7,3,-7,2
1576152541188768,-9,0,-1,1,-10,1,-6,-10
1576152541188768,-7,1,0,2,-4,-2,2,-4
1576152541190762,1,-2,2,0,-2,-3,2,2
1576152541190762,-8,-10,-8,-3,-5,1,-5,20
1576152541202828,-10,-15,-6,-3,-6,0,-5,-8
1576152541202828,1,-1,-1,-2,-3,-5,-2,5
1576152541209812,-1,-6,-12,-4,-3,0,2,-4
1576152541209812,18,3,1,0,2,-3,2,13
1576152541226705,10,-5,0,-1,6,0,-1,9
1576152541226705,8,-8,-3,0,1,-3,-1,-3
1576152541227665,0,2,-3,0,5,-1,-1,-3
1576152541227665,-8,4,-5,-3,3,0,1,-8
1576152541248615,-11,5,-3,-3,-4,0,4,-6
1576152541248615,0,8,0,2,1,2,0,-1
1576152541250599,10,2,-2,3,0,0,0,-21
1576152541250599,0,2,6,-2,-1,1,-4,-9
1576152541263605,-5,4,8,-10,-1,-3,-2,-1
1576152541263605,-5,-2,1,0,-4,3,2,11
1576152541269650,14,-2,1,1,-6,1,-3,8
1576152541269650,-28,-10,0,0,-1,-4,1,-2
1576152541286616,4,3,-2,4,1,-6,-3,-10
1576152541286616,-5,-2,-5,4,2,-4,-4,0
1576152541287503,6,6,-10,1,3,-1,1,1
1576152541287503,-68,8,-6,3,1,-1,2,3
1576152541308452,-33,-3,-6,-4,-9,-1,6,4
1576152541308452,-12,1,3,-3,-8,1,0,3
1576152541310443,20,-9,2,-5,-3,0,-4,-6
1576152541310443,32,-11,1,-7,0,-2,-10,-7
1576152541323480,23,2,1,-8,7,-4,-2,7
1576152541323480,11,-2,9,-4,7,-4,0,-15
1576152541330387,-6,-3,3,3,-1,-4,-3,-4
1576152541330387,21,-7,-1,4,5,4,-12,6
1576152541346344,9,2,-2,0,3,10,0,8
1576152541346344,12,8,-4,1,-1,7,5,10
1576152541348343,1,2,-2,0,-8,3,3,15
1576152541348343,2,-3,-3,-4,-9,-5,5,-9
1576152541368328,15,0,1,7,-5,-6,-2,11
1576152541368328,-4,-10,-4,0,-3,-5,-5,5
1576152541370287,-23,-8,-1,-1,0,-1,-1,-7
1576152541370287,7,-8,-2,-3,4,-4,6,-9
1576152541383347,-9,-2,1,-2,8,-1,6,-7
1576152541383347,-13,2,-2,1,4,-3,-3,-14
1576152541390281,-11,3,-2,6,-2,-2,-9,-5
1576152541390281,-5,-6,0,2,-13,0,-5,4
1576152541406285,-1,1,-5,1,-8,-1,-7,2
1576152541406285,2,7,0,0,-8,1,-1,3
1576152541408187,5,5,2,-14,3,-1,4,-4
1576152541408187,4,8,4,-6,8,-1,3,-6
1576152541429185,2,-2,-7,-3,3,-5,-3,-5
1576152541429185,7,3,-6,-2,-1,-6,-3,7
1576152541430121,-14,-14,-1,0,2,-1,-3,-8
1576152541430121,12,1,3,4,4,2,6,0
1576152541442132,6,3,2,-1,0,4,3,5
1576152541442132,-10,-2,0,-3,-5,1,1,-7
1576152541459051,-17,-2,-2,2,-7,0,4,7
1576152541459051,-6,-4,1,2,-2,0,2,11
1576152541466125,-20,-9,0,-2,-4,-1,19,-46
1576152541466125,12,-9,10,1,-1,4,-10,46
1576152541468019,2,7,7,-4,-3,-2,0,14
1576152541468019,1,4,-7,4,-6,-4,-1,0
1576152541488966,2,8,-7,11,-2,-1,-5,2
1576152541488966,-7,-6,-2,2,4,-2,6,-24
1576152541489961,11,-2,0,0,6,2,2,23
1576152541489961,-1,-1,-2,-6,5,-3,5,-31
1576152541502926,13,0,2,-7,-1,-3,-2,17
1576152541502926,4,1,-2,-5,-1,-5,2,-2
1576152541510948,9,-1,0,-7,-2,-4,-10,-17
1576152541510948,5,6,-2,-9,-6,1,-7,-3
1576152541525964,-5,-3,-4,-4,1,0,-8,7
1576152541525964,4,4,-3,0,0,2,0,6
1576152541527860,-7,-2,-4,7,-4,-2,-2,-17
1576152541527860,-11,-5,4,8,-4,-1,-2,3
1576152541548810,-8,7,3,3,0,3,-2,-2
1576152541548810,18,4,-1,-4,3,5,4,4
1576152541549801,-17,-5,-9,0,2,2,4,-13
1576152541549801,-4,-4,0,-1,0,-2,3,-6
1576152541562764,-3,-4,1,-6,0,-6,-5,-4
1576152541562764,-1,-8,-8,-5,2,-4,3,-5
1576152541571741,-16,-5,-3,-9,2,-1,-4,9
1576152541571741,12,1,-1,-3,-3,1,-7,10
1576152541586748,9,0,7,3,-3,-5,-3,-1
1576152541586748,4,6,1,4,-4,-1,0,-3
1576152541587701,1,0,3,4,-6,2,-4,-8
1576152541587701,-2,1,3,7,-5,7,-1,-2
1576152541608643,3,-1,-4,1,-2,1,-2,3
1576152541608643,-2,3,-7,0,-2,-5,-1,-8
1576152541610637,1,-3,-8,-2,5,-3,-1,2
1576152541610637,-5,1,-2,1,5,-1,3,0
1576152541622708,2,-6,0,-4,5,-1,3,18
1576152541622708,-12,-9,5,3,4,-2,1,-24
1576152541631590,-5,0,-2,-6,-5,-7,1,0
1576152541631590,11,0,-3,-6,-7,-6,-6,6
1576152541646654,-14,7,-2,0,-1,2,-4,3
1576152541646654,1,-3,0,2,2,1,-4,-15
1576152541647541,1,3,5,2,4,6,2,9
1576152541647541,2,-4,0,0,-1,2,5,7
1576152541668487,-2,-7,-3,-4,-8,6,-3,-6
1576152541668487,-4,10,9,-1,-8,4,2,6
1576152541670485,-11,4,5,-2,-8,-7,8,-3
1576152541670485,-6,2,-1,-5,0,-7,5,0
1576152541682447,4,-1,-13,1,1,-6,1,-2
1576152541682447,-10,-14,-15,-8,6,-3,-7,-3
1576152541691429,16,-11,-2,-3,-1,-1,-8,2
1576152541691429,0,1,3,-2,-1,3,-5,2
1576152541706482,8,3,9,2,0,3,0,-1
1576152541706482,5,7,-3,0,-2,1,7,13
1576152541707535,-1,2,-9,0,5,0,6,14
1576152541707535,-4,0,-3,-2,7,-5,-6,-21
1576152541736308,-5,-3,3,1,0,4,-6,-8
1576152541736308,-9,8,3,5,-4,1,-5,-7
1576152541738297,0,-1,0,5,-5,1,-3,12
1576152541738297,1,-7,2,0,-4,-2,2,5
1576152541742321,5,-2,9,-3,-4,-5,5,-2
1576152541742321,-5,3,-4,-2,3,0,0,-9
1576152541751301,11,1,-2,-1,6,3,-2,-9
1576152541751301,6,6,-9,-4,6,3,-3,-1
1576152541766324,0,-9,-5,-3,1,1,-4,2
1576152541766324,-10,0,1,2,-3,-1,-2,6
1576152541768221,-1,2,7,5,-8,-1,-3,-7
1576152541768221,7,0,1,7,-2,1,5,8
1576152541789165,-4,-6,-7,1,-3,0,2,-9
1576152541789165,-2,-7,-9,-4,-7,-1,1,0
1576152541790168,-7,-1,-3,-1,4,-10,-1,-11
1576152541790168,-2,6,0,-3,0,-8,-4,6
1576152541802163,-3,4,-5,1,-1,-3,-1,0
1576152541802163,0,-5,2,-2,-4,-1,5,4
1576152541811101,4,-5,5,0,-1,5,-7,21
1576152541811101,-1,0,4,-1,1,4,3,14
1576152541826152,-3,2,0,-8,2,-2,-2,-11
1576152541826152,-1,3,-5,-1,5,-5,-6,-3
1576152541828056,6,-2,0,-5,0,-7,-2,-1
1576152541828056,-7,-8,-2,-3,-7,0,-5,-8
1576152541849111,-14,-3,5,3,-2,2,-6,4
1576152541849111,2,7,-4,-2,-2,-3,4,6
1576152541849999,6,9,-11,-2,2,0,2,-9
1576152541849999,9,3,-4,-1,2,-1,-3,2
1576152541862964,-14,-8,-2,-5,-2,-5,-6,-14
1576152541862964,-7,-9,1,0,-1,5,-2,-3
1576152541871040,-5,-2,-1,2,-2,3,-2,-6
1576152541871040,-2,5,-2,0,-2,1,1,-4
1576152541885999,18,4,2,2,-1,3,8,4
1576152541885999,12,1,3,3,0,-1,2,10
1576152541887898,0,-4,-11,1,-1,-3,0,-26
1576152541887898,0,-13,-4,0,-2,-4,1,-3
1576152541908843,2,-3,4,5,-3,2,-3,6
1576152541908843,5,-1,6,-1,-5,-5,-4,0
1576152541909847,-3,8,11,-2,-3,-4,-2,6
1576152541909847,-21,3,3,-2,-2,-5,-6,-8
1576152541930817,1,5,-5,-2,1,-2,-1,2
1576152541930817,6,-3,1,-2,2,5,1,9
1576152541932787,-10,-9,-1,0,2,-3,3,0
1576152541932787,-8,0,-8,-2,-2,-5,0,-2
1576152541946761,-1,2,-10,-6,-6,-3,6,12
1576152541946761,-12,-5,-12,-2,-5,1,-5,-12
1576152541947738,6,-5,0,0,-3,-1,-7,-3
1576152541947738,17,2,-1,-1,7,1,-3,12
1576152541968719,6,9,-1,5,9,-1,-6,-10
1576152541968719,16,5,-1,0,5,-1,0,12
1576152541970678,-6,-8,5,1,-3,-2,2,-2
1576152541970678,-3,0,5,0,-4,5,1,5
1576152541991680,2,-4,4,-2,-4,0,2,1
1576152541991680,-7,0,2,-4,-6,-2,4,-19
1576152541992629,-8,2,-2,-4,1,2,2,-29
1576152541992629,-11,-2,4,3,4,-2,0,-12
1576152542006671,-3,2,-2,2,5,-1,-3,-3
1576152542006671,-7,-1,-6,1,4,-1,-6,3
1576152542007579,0,0,1,-9,0,6,1,7
1576152542007579,5,-3,2,-7,-4,3,-1,-2
1576152542028520,4,-3,2,-4,-7,1,3,5
1576152542028520,0,-1,0,0,-4,0,-2,1
1576152542030523,18,2,-3,1,-7,0,1,9
1576152542030523,6,-6,0,3,-1,-2,-2,-1
1576152542051461,4,4,-5,4,-2,-4,1,-6
1576152542051461,-5,4,2,2,1,1,0,-6
1576152542052457,1,6,-1,1,8,-6,0,-3
1576152542052457,2,3,0,5,5,0,0,3
1576152542065423,-2,-10,0,-4,4,-3,-4,-1
1576152542065423,-1,-2,-4,-1,-2,4,-2,5
1576152542072406,-9,-1,3,1,-4,0,-7,-17
1576152542072406,0,1,-7,-5,-7,2,-2,-3
1576152542088365,-14,-2,-5,-2,-5,1,-3,0
1576152542088365,3,-6,-2,-5,-4,-2,-2,8
1576152542090359,-6,-1,4,-5,-2,1,2,-9
1576152542090359,4,3,3,-3,1,-4,2,-2
1576152542111299,-9,-5,-2,-6,5,-6,3,5
1576152542111299,0,3,-2,-1,1,-6,2,-7
1576152542113293,-3,-3,-6,0,1,-4,3,7
1576152542113293,-3,-6,2,8,-4,-3,-5,-3
1576152542125361,-7,3,3,7,-2,-3,-10,6
1576152542125361,-19,-10,-6,-1,-1,-2,-5,-4
1576152542132346,3,4,-8,1,4,6,-1,-2
1576152542132346,3,9,-5,-5,-1,4,-2,-4
1576152542149244,3,-3,6,-3,-6,4,3,-3
1576152542149244,6,-2,5,-5,-1,-3,3,-3
1576152542150201,-3,-4,3,2,-9,-1,0,8
1576152542150201,-7,5,-2,-5,-3,3,4,-1
1576152542171140,2,9,-7,-1,1,5,-1,0
1576152542171140,-4,0,1,0,-2,0,0,-5
1576152542173133,3,1,-9,2,0,-1,1,3
1576152542173133,14,-5,0,3,5,-8,3,12
1576152542186120,-1,-2,3,-2,1,-8,-4,-14
1576152542186120,4,3,-2,0,-2,-4,-2,-2
1576152542192186,-4,-2,3,-5,-5,-4,0,7
1576152542192186,-8,-8,1,-6,-7,-6,1,1
1576152542209150,-2,-3,5,-4,-2,-5,1,-9
1576152542209150,2,3,4,0,5,-3,-3,-4
1576152542210036,-2,7,-2,1,3,4,-6,-7
1576152542210036,-3,-4,-10,-6,-3,3,-7,-14
1576152542231082,0,-4,-1,-5,-1,8,0,-1
1576152542231082,-14,-5,2,-4,-2,1,-3,0
1576152542232976,-1,1,2,-1,0,2,-4,2
1576152542232976,-3,-3,-8,2,5,4,-1,2
1576152542246036,11,-6,1,3,-1,1,5,13
1576152542246036,1,-10,-6,3,-4,0,2,0
1576152542252904,-9,2,-5,1,-5,0,-3,6
1576152542252904,-6,3,2,-1,0,-1,0,-5
1576152542268965,0,6,0,3,3,-3,-1,-3
1576152542268965,-3,2,1,3,1,-4,3,2
1576152542270855,23,0,3,-2,0,0,-2,7
1576152542270855,4,-4,0,-4,-1,-4,-6,1
1576152542291800,-2,-3,-1,0,-1,-5,-2,-7
1576152542291800,3,8,-1,0,1,-4,3,-4
1576152542292803,8,5,14,-1,-1,-10,7,15
1576152542292803,-5,3,5,1,-2,3,1,-5
1576152542304808,-4,-4,-4,-4,-4,2,2,0
1576152542304808,0,1,-7,-6,1,3,-2,1
1576152542313743,-14,-5,-8,-3,2,5,2,8
1576152542313743,5,-6,2,3,-4,2,3,15
1576152542328710,-3,-6,-3,12,-7,-3,0,-2
1576152542328710,3,-12,-1,4,-6,0,-5,-10
1576152542330697,2,0,-5,-1,1,2,-1,-3
1576152542330697,-4,-1,-1,-5,5,-1,-5,-3
1576152542351691,-4,6,-1,-2,-2,2,-5,-12
1576152542351691,0,12,3,-1,-4,-2,-5,6
1576152542352642,-4,-11,0,-1,-2,0,1,1
1576152542352642,-8,-2,-4,1,1,1,4,-1
1576152542364708,13,-1,-2,2,0,-2,9,9
1576152542364708,-3,1,3,3,-1,-1,4,3
1576152542373617,-2,-1,-1,0,-1,0,-7,-2
1576152542373617,-3,-1,1,-2,1,-4,-3,-7
1576152542388576,-5,2,-11,-7,0,-1,-5,-1
1576152542388576,-3,4,-1,-4,-1,1,2,8
1576152542390538,-1,3,-7,0,0,-3,-3,-3
1576152542390538,7,-3,-3,-4,-2,-5,1,4
1576152542411585,-5,-4,7,-2,5,-2,2,12
1576152542411585,-1,-8,4,-1,4,0,-2,-3
1576152542412476,-9,-5,-3,0,-1,-3,1,-13
1576152542412476,-1,0,-2,3,0,-2,-2,1
1576152542425442,8,-2,1,-3,1,-2,2,6
1576152542425442,-1,-4,6,1,-1,1,0,-8
1576152542433540,-7,-1,2,-1,1,2,-1,-1
1576152542433540,-4,2,2,-3,-6,8,2,-3
1576152542448411,3,2,-1,0,-2,9,-5,-7
1576152542448411,4,-1,-9,5,-3,0,-1,6
1576152542450410,10,-4,-7,5,-6,-5,1,-1
1576152542450410,-5,2,-3,1,-1,-3,-2,-10
1576152542471454,-3,4,-6,-1,3,-3,-8,-1
1576152542471454,-3,-3,-3,-7,1,-5,-4,0
1576152542472346,-3,1,-1,0,-2,0,0,1
1576152542472346,14,4,4,6,-5,1,6,15
1576152542485360,-36,-8,8,-4,-6,-2,0,-37
1576152542485360,-9,-7,0,-5,0,-4,-4,-4
1576152542494289,0,0,-1,-4,-1,1,0,3
1576152542494289,11,1,-1,4,1,4,3,7
1576152542509262,15,4,-8,7,1,2,4,27
1576152542509262,3,1,-3,3,2,-1,1,-9
1576152542510248,-3,-4,-6,-3,4,-9,0,-11
1576152542510248,-3,-5,-1,-4,1,-9,-4,-6
1576152542531293,6,-3,2,2,-2,-1,-1,9
1576152542531293,-1,9,6,-8,1,3,-4,-12
1576152542533188,12,8,10,-6,1,0,0,0
1576152542533188,2,6,-5,-8,-3,-4,-1,-10
1576152542545273,8,-5,-12,-1,-2,-4,5,20
1576152542545273,2,-2,-9,1,-4,0,2,15
1576152542554130,-10,-7,-2,3,-4,3,-4,1
1576152542554130,-16,-8,0,-1,-4,3,-5,4
1576152542569208,-1,-6,6,1,0,5,3,-5
1576152542569208,5,-4,-3,0,-3,5,3,6
1576152542570084,7,-2,7,0,0,1,3,8
1576152542570084,0,-6,-1,2,-3,-1,-1,4
1576152542591128,-11,7,4,0,-1,-3,-3,-19
1576152542591128,-5,6,-2,-8,-1,1,-4,-3
1576152542593024,6,6,-8,-4,3,-1,-6,16
1576152542593024,-6,-3,-4,-6,2,-5,-10,-12
1576152542605037,5,-1,-4,-4,3,-4,-3,1
1576152542605037,0,-2,-2,-1,-5,-3,0,-10
1576152542613972,3,6,-4,2,-1,0,1,-20
1576152542613972,-7,2,-1,3,5,2,4,5
1576152542628973,6,-1,4,-2,0,-1,2,5
1576152542628973,2,-4,-3,-1,-2,6,-1,3
1576152542629926,-2,-12,-2,-3,-7,4,0,3
1576152542629926,6,3,0,-2,-2,2,-3,-7
1576152542651767,-5,0,1,-4,-4,0,2,-2
1576152542651767,-1,4,1,2,5,-4,2,6
1576152542652770,1,1,-2,-1,-2,-6,-1,-3
1576152542652770,-6,-8,-8,5,-4,-8,-4,-3
1576152542664839,-14,-2,1,3,-5,-5,-3,2
1576152542664839,3,2,8,0,-3,-5,2,1
1576152542673712,-3,0,5,-5,-1,2,7,-3
1576152542673712,0,-5,-2,-9,-1,0,5,-15
1576152542688707,4,-4,-4,-7,3,1,-1,-8
1576152542688707,-12,-9,-2,-2,5,-4,-6,-11
1576152542690664,-8,-1,2,-1,4,-5,-4,2
1576152542690664,-14,4,-3,5,0,-2,-4,-2
1576152542711646,1,3,-2,4,-7,5,-4,-10
1576152542711646,-4,2,-3,8,-4,5,-1,4
1576152542712606,-4,3,-2,6,-3,0,-1,1
1576152542712606,12,-3,3,5,-1,-1,2,5
1576152542724675,2,0,-3,1,-1,-7,0,6
1576152542724675,5,-2,-4,0,3,0,-1,3
1576152542733590,0,-3,-2,-1,1,-3,0,-5
1576152542733590,-4,4,-3,-7,-5,-1,-2,5
1576152542748556,3,-4,-1,-9,-3,1,-4,-1
1576152542748556,4,-3,2,-4,-1,0,-1,1
1576152542750514,-6,5,-7,-2,3,0,-4,-3
1576152542750514,7,11,0,4,2,3,-2,-2
1576152542771453,-3,-1,3,3,-3,-2,-3,1
1576152542771453,5,5,4,-2,-5,-1,1,16
1576152542772449,-22,-6,0,-11,-2,-1,-4,-28
1576152542772449,-2,-2,-4,-4,-1,-4,1,3
1576152542784421,-6,-4,-3,-1,2,2,-1,0
1576152542784421,20,-6,3,3,6,3,-2,6
1576152542793446,9,-7,0,8,4,4,1,22
1576152542793446,-8,-5,-1,2,6,2,1,-4
1576152542808360,1,1,-4,-4,0,1,3,-7
1576152542808360,-16,2,-1,-6,-6,-4,6,-9
1576152542810347,-4,7,4,-6,-6,-5,4,4
1576152542810347,0,-2,2,1,-5,1,-2,-1
1576152542831390,-4,1,2,5,1,-2,0,8
1576152542831390,-8,-5,-1,1,-4,-7,-6,-1
1576152542833285,5,-4,-6,-4,-1,-5,-3,-7
1576152542833285,10,-3,4,4,-5,-1,2,13
1576152542853900,6,1,-1,6,-3,0,-1,-4
1576152542853900,-2,-5,-4,-4,1,-2,1,-5
1576152542855808,-3,3,-1,-1,0,-1,-3,0
1576152542855808,1,8,-4,-7,3,3,-6,1
1576152542868801,-5,0,-3,-7,2,2,-2,-5
1576152542868801,-3,-3,-6,-3,1,-1,-3,-18
1576152542870767,-15,-4,-4,4,-1,3,2,0
1576152542870767,6,-9,-4,2,-11,-1,-1,-2
1576152542891739,19,1,5,1,-7,7,0,13
1576152542891739,1,4,-4,2,-2,3,-2,0
1576152542892710,-3,-1,-2,2,7,0,-6,-22
1576152542892710,-7,0,-4,2,4,-1,3,1
1576152542913649,-11,-11,1,-10,1,-9,1,-11
1576152542913649,4,2,5,-6,2,-1,2,-3
1576152542915639,18,3,3,0,-3,3,-2,11
1576152542915639,-13,4,-1,0,-6,-4,1,-1
1576152542928609,5,3,-5,6,-1,-5,0,1
1576152542928609,-9,0,-1,11,-5,-4,-1,-3
1576152542930599,13,1,-5,0,-5,-5,2,7
1576152542930599,14,-2,3,2,2,2,3,0
1576152542951657,-5,-3,-6,-8,-1,0,-5,-23
1576152542951657,6,-1,4,-7,6,2,1,5
1576152542952542,2,3,9,-1,3,2,0,10
1576152542952542,0,-4,5,-3,6,-5,-6,-1
1576152542973584,9,-1,-4,-2,3,-1,1,20
1576152542973584,1,-5,-7,-5,-1,-2,-2,-13
1576152542975484,3,-9,-7,-5,-13,0,-1,1
1576152542975484,-2,4,0,-3,-7,0,-2,2
1576152542988479,-9,7,-1,5,-4,-1,-7,2
1576152542988479,5,7,1,4,2,0,-2,4
1576152542995427,-29,-6,7,-2,8,2,7,-9
1576152542995427,-9,-3,-1,-1,6,-1,-1,-6
1576152543011387,-16,-2,-7,0,1,-7,3,-8
1576152543011387,-4,-2,0,4,-4,1,1,3
1576152543012381,-3,0,-6,5,-4,2,-2,4
1576152543012381,-1,-4,2,2,-1,3,-2,18
1576152543034323,2,-2,3,-4,3,1,-1,5
1576152543034323,6,-1,-3,-7,-5,-2,-1,9
1576152543035327,-7,-7,1,-4,2,-5,-6,2
1576152543035327,1,3,-7,-12,-5,-4,-1,3
1576152543048322,4,7,-2,-1,-2,-2,5,3
1576152543048322,-7,0,2,0,-1,2,8,-4
1576152543055292,7,10,-1,5,2,1,3,-8
1576152543055292,5,-9,1,5,7,1,2,-12
1576152543071327,2,-9,-1,2,2,0,-5,2
1576152543071327,-17,-17,-2,-3,-1,0,-6,-7
1576152543073226,-1,-4,0,-4,-5,-3,-7,-5
1576152543073226,1,-5,3,-2,-7,-2,0,-4
1576152543094170,6,1,1,3,-5,5,3,9
1576152543094170,-5,6,-1,-1,-1,1,3,-19
1576152543095166,3,6,-3,1,-1,-5,0,-3
1576152543095166,-4,6,-3,-3,2,-1,-1,-5
1576152543108129,-10,0,-2,-2,9,-1,-5,-4
1576152543108129,-4,4,-4,-2,0,0,-1,6
1576152543115206,2,-3,-2,1,-7,6,-1,6
1576152543115206,-9,-5,1,4,-3,0,-1,-9
1576152543131163,1,-9,-1,-3,-2,-5,-5,-3
1576152543131163,-3,-4,-2,-3,-1,-6,-9,-19
1576152543133065,-2,2,-5,-3,0,-1,0,-6
1576152543133065,0,7,-1,-8,-6,-1,-5,2
1576152543154005,-1,3,-3,-5,-4,0,1,-1
1576152543154005,2,9,0,-5,-2,-2,4,5
1576152543155003,3,-1,4,-6,1,-6,3,-1
1576152543155003,0,-1,1,-1,-2,-3,3,-7
1576152543167969,-9,-1,0,2,-1,-3,1,2
1576152543167969,3,-10,1,4,3,2,-4,9
1576152543175039,-8,-11,0,7,2,3,-2,4
1576152543175039,0,-6,0,4,7,1,5,7
1576152543191001,11,3,1,1,-4,-1,0,-3
1576152543191001,-18,-5,-6,-1,-6,-6,-3,3
1576152543192906,-19,-4,-6,0,-1,-4,-1,-6
1576152543192906,3,-6,-1,-2,0,0,-5,-1
1576152543213937,3,-10,1,-4,-1,4,0,-5
1576152543213937,18,7,-4,3,-4,5,0,10
1576152543215845,5,0,0,-2,-4,-3,0,1
1576152543215845,0,4,-2,1,2,-1,9,-1
1576152543227851,8,11,0,-1,5,-2,5,5
1576152543227851,5,4,8,-3,3,-3,-1,-3
1576152543234807,3,0,-1,-5,-3,2,-6,8
1576152543234807,2,3,-2,0,-5,7,-6,3
1576152543251741,-1,-6,0,0,-7,-1,-7,-7
1576152543251741,-4,-8,-1,0,-1,-5,2,2
1576152543252740,1,-4,-2,0,3,-2,3,5
1576152543252740,0,-3,0,-3,0,-2,1,-14
1576152543273686,8,6,-1,5,4,4,2,2
1576152543273686,3,3,-7,4,-6,-1,0,-5
1576152543275677,12,0,-5,-4,-7,-2,3,7
1576152543275677,-12,1,-2,-2,-4,-2,-1,10
1576152543287649,-9,-5,3,3,1,-4,-4,-11
1576152543287649,3,-1,13,8,3,-2,-9,2
1576152543294630,10,-2,10,3,6,4,-2,-8
1576152543294630,-3,-4,8,3,9,1,3,-1
1576152543311584,2,-1,-2,0,1,4,2,0
1576152543311584,-1,-2,-12,-5,-3,0,4,-8
1576152543312578,4,6,-13,-6,-11,-9,-7,-14
1576152543312578,-3,2,-11,-8,-4,-5,-5,2
1576152543333622,-7,3,-1,-8,1,3,-1,12
1576152543333622,13,0,10,-6,0,8,-2,8
1576152543335531,-7,-11,4,5,-5,6,-3,1
1576152543335531,0,-4,-1,5,-6,1,-10,-3
1576152543347502,3,-4,-5,4,-5,-6,-6,-5
1576152543347502,-7,6,-1,3,4,-5,2,-3
1576152543356469,-2,3,-3,-3,6,-6,7,-5
1576152543356469,-5,-5,2,3,-1,-2,7,11
1576152543371523,-1,-4,-4,2,2,-3,1,8
1576152543371523,-8,-6,-5,-4,-4,-5,-6,-21
1576152543372419,0,6,-2,-2,-2,-1,4,-4
1576152543372419,27,3,-3,-8,-8,-2,5,0
1576152543393394,2,-1,6,-1,-5,-1,-5,-4
1576152543393394,-6,-2,5,-1,-4,-1,-4,2
1576152543395365,1,-8,0,-4,1,0,-1,5
1576152543395365,2,0,1,-3,3,-2,1,-1
1576152543407428,0,3,3,-2,2,-2,5,-4
1576152543407428,-3,1,-4,3,3,-2,4,5
1576152543416302,4,1,3,4,1,4,-3,5
1576152543416302,-11,-1,-2,-1,-7,2,-7,-5
1576152543431361,-5,-4,-7,-4,-1,1,-11,-4
1576152543431361,-3,2,-4,-3,3,-2,-6,0
1576152543433265,-9,2,-1,-1,1,-3,-3,-7
1576152543433265,-6,-3,-3,1,2,-4,0,-5
1576152543454209,-11,-3,-2,1,-2,-4,4,-9
1576152543454209,-8,-5,-11,-4,0,-3,7,5
1576152543455201,-7,-3,-5,1,5,-2,0,7
1576152543455201,-11,-2,-4,5,1,-4,-4,-3
1576152543467263,3,3,1,-5,-6,5,2,-1
1576152543467263,1,0,5,-5,-7,2,5,-2
1576152543476141,2,0,4,-6,-3,2,6,4
1576152543476141,2,5,2,-2,1,3,1,0
1576152543491104,9,0,1,2,-1,-1,0,3
1576152543491104,2,-4,1,5,-5,2,-4,7
1576152543493097,0,-1,2,8,-5,-2,-10,-1
1576152543493097,-4,-3,-5,5,-1,-3,-10,0
1576152543514150,-5,2,0,4,-2,-6,-4,1
1576152543514150,5,-1,-1,1,3,-1,1,-7
1576152543515045,10,4,-6,-8,3,2,3,-11
1576152543515045,13,2,-7,-12,2,2,5,2
1576152543527043,-15,-4,-1,-14,-2,4,2,-13
1576152543527043,-5,-4,-3,-12,-5,1,-5,0
1576152543536043,-6,0,7,-6,-3,1,0,3
1576152543536043,0,3,3,1,8,-3,6,4
1576152543550976,6,-2,2,4,2,-6,5,2
1576152543550976,2,-4,-1,10,1,-4,2,1
1576152543552937,14,3,-8,8,2,0,-1,-7
1576152543552937,-14,4,-2,-2,-2,0,0,-6
1576152543573983,0,0,1,-3,-2,1,-5,5
1576152543573983,3,-1,2,-4,-3,0,-9,-1
1576152543574886,-1,-1,9,-5,-6,-2,-6,10
1576152543574886,0,-3,2,-1,-2,-3,-2,-9
1576152543587843,-34,9,-9,1,5,0,1,-1
1576152543587843,5,11,-6,7,6,0,3,11
1576152543596818,-10,-7,-5,7,1,-3,-1,5
1576152543596818,10,-8,3,3,-1,-3,-9,-8
1576152543611779,-5,-8,-3,4,-6,0,2,-2
1576152543611779,12,-3,-7,-1,-6,0,-1,-3
1576152543612783,-9,5,-1,1,-6,2,1,-4
1576152543612783,13,8,1,-5,-3,1,1,2
1576152543633727,10,1,0,-8,0,-2,0,5
1576152543633727,-3,0,4,-5,3,-1,6,8
1576152543635713,-3,-13,1,-5,5,-7,1,0
1576152543635713,0,-1,-1,2,2,-1,1,-1
1576152543647795,16,-2,-3,5,0,0,-3,-4
1576152543647795,-4,-10,-1,2,-5,-4,0,5
1576152543656664,2,-8,-5,-4,0,3,-2,-12
1576152543656664,-3,1,-6,-3,-6,6,-4,1
1576152543671708,2,1,-2,-1,-1,1,-9,-3
1576152543671708,8,-1,-3,6,3,-3,-3,2
1576152543672624,-26,-7,0,9,3,-4,-4,4
1576152543672624,0,-5,5,1,0,-2,5,5
1576152543693564,-8,1,0,-8,-3,0,8,-1
1576152543693564,0,2,-3,-10,-3,1,3,-4
1576152543695562,10,8,-4,-3,1,3,-1,-5
1576152543695562,2,-2,-5,-5,8,2,-3,0
1576152543707578,8,2,7,0,6,-1,-5,-8
1576152543707578,-1,-3,4,4,-7,1,0,-2
1576152543716507,-3,-10,6,5,-12,-4,2,1
1576152543716507,-4,0,3,0,-6,-1,-1,2
1576152543731559,-10,-4,-8,-4,-2,-6,-2,6
1576152543731559,-13,9,-11,-9,-2,-8,-3,-8
1576152543732458,4,10,-12,-1,0,-4,-1,-1
1576152543732458,-2,-8,0,3,0,-5,0,-6
1576152543753499,12,-5,9,4,2,2,-1,9
1576152543753499,1,-1,2,-2,4,5,0,5
1576152543755403,9,3,4,-3,7,3,2,6
1576152543755403,-13,-3,-2,-3,4,-1,-1,8
1576152543767467,-9,-3,-4,7,2,4,-6,-18
1576152543767467,-2,-12,-4,1,1,3,-4,-6
1576152543776343,7,0,-4,-5,-2,0,-1,-1
1576152543776343,3,0,2,-4,-5,-1,4,-2
1576152543791401,-9,0,3,-3,-12,-5,1,-6
1576152543791401,3,6,11,5,-5,-6,3,-2
1576152543793292,-3,3,3,1,-2,-3,3,-3
1576152543793292,-3,0,-9,-3,-3,-2,0,-6
1576152543813241,13,2,-9,-6,-2,3,0,2
1576152543813241,-8,4,-12,-2,1,-2,1,2
1576152543815234,-1,-4,3,0,3,-3,2,1
1576152543815234,-5,-7,7,3,-1,-2,3,-5
1576152543836188,-8,-4,3,0,2,-4,1,-4
1576152543836188,3,-8,1,-6,4,2,-4,0
1576152543838175,4,-4,6,-4,0,4,-11,4
1576152543838175,-6,8,1,2,-3,0,-13,-6
1576152543851238,5,-1,-1,0,-4,-6,-4,4
1576152543851238,-8,0,-5,4,-3,-2,2,-4
1576152543853142,-9,4,-7,1,-5,2,6,-4
1576152543853142,9,5,-1,6,-4,6,6,9
1576152543874108,-9,9,-3,3,1,4,-3,-4
1576152543874108,0,-2,2,-11,3,0,-3,0
1576152543875075,0,-6,-2,-9,0,-2,-3,-6
1576152543875075,1,-8,-3,-2,0,-4,-6,-1
1576152543896118,10,-1,6,1,-4,-2,-1,5
1576152543896118,-1,4,2,4,-1,0,-3,9
1576152543898022,-8,3,-3,-2,-1,2,0,-8
1576152543898022,-5,1,-8,0,0,-4,8,5
1576152543910986,-1,-9,-4,2,0,-4,7,-4
1576152543910986,1,-6,1,1,0,1,-2,-6
1576152543912983,7,1,3,1,-3,-4,0,3
1576152543912983,-4,2,4,4,0,1,-2,-9
1576152543933959,-3,-4,-4,-2,-3,3,2,-2
1576152543933959,0,1,-4,-2,-3,-1,-1,-6
1576152543934923,9,-2,-6,-6,-2,0,-1,-1
1576152543934923,-11,-3,0,-9,-2,-3,-7,-3
1576152543956820,5,9,3,-8,-1,-1,-1,10
1576152543956820,-1,6,-7,1,0,-1,0,-6
1576152543957812,-8,-2,-6,4,-6,3,0,6
1576152543957812,-4,-7,-10,6,-2,6,5,3
1576152543970779,0,-15,-8,3,0,5,3,0
1576152543970779,4,-8,-1,2,7,-6,-3,4
1576152543977794,2,2,3,-4,7,-4,-2,-7
1576152543977794,1,7,6,-8,0,-3,-3,-5
1576152543993751,-7,4,5,-4,-3,-5,-3,4
1576152543993751,-8,6,3,-1,-4,1,-2,-3
1576152543995707,4,-6,-2,5,-8,3,2,0
1576152543995707,-8,-1,-1,9,0,2,4,-1
1576152544016657,-1,-7,-5,-2,-3,4,7,-1
1576152544016657,7,-6,6,-4,-6,0,4,-2
1576152544017650,2,2,1,-2,-1,-6,-6,-14
1576152544017650,4,1,1,-2,7,-5,-7,-1
1576152544030623,-5,6,-4,0,4,-5,-5,-5
1576152544030623,-3,6,-4,1,3,-1,-2,1
1576152544037600,-12,2,-8,-3,4,-3,-4,4
1576152544037600,-4,-4,0,-4,5,-6,-5,-2
1576152544053562,2,-4,1,-5,3,-5,-3,5
1576152544053562,8,-1,6,-7,-6,-3,2,-8
1576152544055548,4,-1,-2,-1,-8,3,0,-4
1576152544055548,15,-7,-6,2,-9,9,-3,5
1576152544076495,1,-5,-8,4,-2,5,3,1
1576152544076495,4,-3,-2,6,1,5,5,-1
1576152544077490,2,-4,-2,0,7,-6,2,0
1576152544077490,-7,3,-3,-10,6,-6,-1,-5
1576152544090557,-3,13,10,-9,5,-7,-2,-4
1576152544090557,-3,4,2,-3,-2,-2,-2,1
1576152544097444,-9,2,4,-1,-7,3,-4,-1
1576152544097444,-10,-4,0,4,-5,2,-1,2
1576152544113400,-16,-13,0,6,-4,4,1,-1
1576152544113400,-11,-10,-3,5,-1,0,-2,-1
1576152544115395,2,1,-7,4,2,-1,0,-3
1576152544115395,20,-1,0,-4,-5,-1,1,3
1576152544136432,1,3,8,-1,0,-2,-3,-3
1576152544136432,-1,2,2,-4,-3,-4,0,7
1576152544138329,4,0,-2,0,1,-3,4,8
1576152544138329,-1,2,-7,-1,-1,1,-1,2
1576152544150298,8,4,-9,0,1,1,-3,9
1576152544150298,1,1,-4,-2,5,3,-9,-4
1576152544157378,-1,2,1,-3,3,6,0,0
1576152544157378,-10,-5,-5,-2,-6,-1,5,-7
1576152544174265,11,-7,3,-2,-5,-4,-2,-1
1576152544174265,7,-7,-2,1,-5,-1,-2,4
1576152544175235,-11,1,-4,3,0,-6,-5,-17
1576152544175235,-4,6,5,2,6,-2,-1,-5
1576152544196277,-3,-1,0,1,4,0,7,3
1576152544196277,3,1,6,-2,3,-1,4,-6
1576152544198168,-6,1,3,-5,0,1,-2,9
1576152544198168,12,1,-4,3,-2,1,-2,6
1576152544211152,4,-1,-4,3,-4,0,-1,-1
1576152544211152,1,0,-4,-1,-3,1,1,6
1576152544217218,-4,-3,2,-6,-5,3,-3,5
1576152544217218,-14,-1,-5,-5,-9,-3,-7,-8
1576152544234167,-5,-1,-10,-4,-5,-3,-7,-4
1576152544234167,-17,-3,-3,5,-5,-2,-1,-4
1576152544235069,16,7,4,6,-2,-4,3,0
1576152544235069,14,-1,2,-3,4,2,1,-2
1576152544256113,-10,-1,0,-2,9,-2,2,-12
1576152544256113,3,-8,-6,-5,6,-7,2,4
1576152544258008,4,-2,0,6,1,-2,5,2
1576152544258008,5,4,4,2,-2,4,2,4
1576152544270072,-3,0,2,2,-3,6,-3,4
1576152544270072,-9,3,0,-10,-2,1,-5,0
1576152544278958,-5,-3,0,-4,8,2,1,0
1576152544278958,0,-3,0,1,0,-5,-2,1
1576152544293950,9,-2,6,-1,0,-2,-4,3
1576152544293950,0,-3,-2,-3,-8,-3,-7,1
1576152544294909,-3,-13,-3,-3,-8,-2,1,3
1576152544294909,-12,-8,-9,-7,-5,-2,5,0
1576152544315889,0,-3,-7,-5,3,-3,2,-2
1576152544315889,-6,5,-3,2,5,0,4,-13
1576152544317849,-6,3,-1,3,0,-1,0,-3
1576152544317849,-5,-3,7,5,3,1,-6,3
1576152544329813,5,3,0,-2,2,-1,-1,-3
1576152544329813,9,-2,-5,1,0,-3,-2,0
1576152544338795,2,3,-1,-2,-8,-4,-1,-2
1576152544338795,-4,3,3,0,-7,-2,2,3
1576152544353554,1,1,3,0,-1,4,1,-4
1576152544353554,5,1,-3,-4,-2,3,0,-5
1576152544355512,1,-3,-3,-2,-3,-3,-2,-1
1576152544355512,-3,1,-3,2,-4,-5,-5,3
1576152544376502,10,-3,2,2,-3,0,-5,-1
1576152544376502,-7,4,-6,-1,5,2,-2,-1
1576152544377459,-8,-1,-5,-2,1,3,-1,-9
1576152544377459,0,3,-5,1,1,2,2,-5
1576152544398397,5,0,5,2,-1,-2,-2,-2
1576152544398397,-7,-2,9,-1,-1,0,0,9
1576152544400395,3,-1,3,-1,-5,-2,-3,0
1576152544400395,5,-2,-3,-2,-3,0,0,-5
1576152544413454,1,-3,-8,0,1,2,1,0
1576152544413454,8,-2,0,-2,4,-1,0,-5
1576152544415354,-8,-5,1,-4,6,-1,1,-2
1576152544415354,-2,-6,0,-4,0,-4,2,5
1576152544436400,-10,0,-6,-1,-5,-2,-2,5
1576152544436400,-6,-4,-4,2,-7,-1,-1,4
1576152544437292,0,2,-1,2,-2,-2,-1,4
1576152544437292,-5,5,-6,1,4,-5,2,-10
1576152544450261,-5,1,-3,-1,3,-5,2,-5
1576152544450261,7,-4,1,-7,1,0,-4,-6
1576152544459232,5,-7,7,-8,0,4,0,1
1576152544459232,7,6,6,-7,-2,5,-3,3
1576152544474240,-3,-1,0,1,-7,0,1,1
1576152544474240,-9,5,-1,7,-4,-3,-2,-4
1576152544475195,-1,1,-1,8,0,-3,-5,3
1576152544475195,-15,-6,-5,0,5,0,-4,-10
1576152544496168,-4,-3,-1,-2,0,3,-2,3
1576152544496168,3,1,-4,-4,-6,0,4,-6
1576152544498129,-2,-5,-1,-6,-5,-5,3,1
1576152544498129,11,-1,-2,3,-5,-5,2,-3
1576152544510142,2,5,-6,1,-2,-5,1,2
1576152544510142,-2,-4,2,1,-1,-3,-7,-10
1576152544519078,-1,-5,-5,-1,2,-1,-6,-4
1576152544519078,-5,0,-6,-7,-2,1,-8,3
1576152544534041,-5,-3,2,2,-3,-2,0,-8
1576152544534041,5,5,-3,4,0,0,6,-1
1576152544535030,-3,8,2,-1,2,2,1,0
1576152544535030,-4,-2,5,-2,9,-4,1,4
1576152544555937,5,0,0,-5,2,-2,2,3
1576152544555937,-7,-1,-1,-3,3,2,2,6
1576152544557923,2,-3,-5,-3,-9,1,0,-9
1576152544557923,3,3,2,-6,-5,1,3,-6
1576152544569999,-9,-6,1,-8,-3,1,-5,-7
1576152544569999,-7,-8,1,2,2,-1,-4,-2
1576152544578872,2,4,-8,4,3,1,-3,7
1576152544578872,2,3,-3,9,2,-2,1,4
1576152544593829,4,9,1,9,-3,-1,-2,-1
1576152544593829,3,-1,3,7,-3,2,0,4
1576152544594825,-6,-1,-3,-3,1,-2,-1,-13
1576152544594825,2,-5,-4,-6,-1,-3,2,-3
1576152544616785,3,-9,-6,-4,1,0,0,-2
1576152544616785,1,-7,-3,1,-3,-2,0,-4
1576152544617769,1,4,4,4,-3,-1,0,-1
1576152544617769,6,-2,11,-1,-3,-6,-3,1
1576152544629838,-6,0,-5,-8,0,-8,-5,0
1576152544629838,-9,4,-2,3,5,-1,-2,0
1576152544638711,-7,2,-1,-2,4,-2,2,2
1576152544638711,-7,-1,3,-1,1,5,0,-12
1576152544653774,-1,-2,0,0,-8,2,-3,3
1576152544653774,0,1,0,-5,-6,3,-4,2
1576152544655661,-2,-8,-8,-4,-3,4,-9,-1
1576152544655661,-3,-3,-5,-1,-6,5,-7,5
1576152544676609,3,-7,3,-3,2,2,2,5
1576152544676609,5,3,1,-7,4,-4,2,7
1576152544677604,9,-2,-2,-4,-2,-9,4,5
1576152544677604,-8,-9,2,1,-1,-7,5,6
1576152544689573,-16,2,3,3,-3,-3,3,-5
1576152544689573,5,8,-4,9,2,-2,4,4
1576152544698597,-10,3,-1,5,1,3,-3,-7
1576152544698597,3,-1,-10,-2,-5,2,-3,-9
1576152544713613,3,-4,-2,-3,-5,3,-1,-9
1576152544713613,10,-4,4,-7,-4,2,-4,2
1576152544715503,6,6,6,-2,5,0,-2,11
1576152544715503,5,1,0,1,3,1,2,11
1576152544736491,-3,1,-1,4,2,-5,-1,-5
1576152544736491,-6,-1,-1,5,-1,-6,-3,-2
1576152544737442,3,-4,-4,-2,2,-1,0,5
1576152544737442,-8,1,-1,-4,0,0,0,3
1576152544758405,-4,4,0,-4,0,3,6,6
1576152544758405,4,0,4,-4,-3,5,7,-1
1576152544760382,-5,-8,-1,-4,-4,-3,5,-1
1576152544760382,11,-5,3,3,-2,-7,-1,5
1576152544773444,-2,-7,0,-1,-4,-8,-8,4
1576152544773444,1,0,-1,0,-5,1,-3,2
1576152544780377,-7,-1,-6,0,-2,0,-7,-14
1576152544780377,-5,9,-5,-2,6,5,-4,-8
1576152544796392,2,7,3,4,13,-1,5,-2
1576152544796392,0,-1,3,9,8,1,0,1
1576152544798282,-1,-3,3,2,1,3,1,4
1576152544798282,1,1,0,1,-4,-1,2,2
1576152544819274,-6,-2,-4,-5,-6,-3,1,1
1576152544819274,-3,-11,1,-9,-8,-3,0,-10
1576152544820228,9,-7,-3,-2,-5,-6,-1,6
1576152544820228,5,-1,-3,-2,-4,-1,-6,1
1576152544834233,3,-4,0,-4,1,2,-4,3
1576152544834233,-6,5,-2,-7,2,-2,-1,0
1576152544835188,-6,4,-1,-1,-1,1,-2,-7
1576152544835188,-4,4,2,-3,3,3,-2,-8
1576152544856232,0,4,-1,-5,1,2,1,-5
1576152544856232,-16,1,-7,-5,-3,0,5,-1
1576152544858127,-6,3,-1,7,-4,5,-1,-3
1576152544858127,-9,0,-1,6,0,-7,1,-2
1576152544879188,6,-9,2,6,1,-6,-3,0
1576152544879188,7,-10,-2,5,0,-5,-7,-3
1576152544880063,8,-1,-1,1,1,-2,-1,3
1576152544880063,7,-1,-2,-3,4,2,2,7
1576152544893086,-2,-1,-3,1,3,2,-2,-7
1576152544893086,9,7,0,1,-2,-1,-4,-12
1576152544900114,-8,0,-24,-5,-7,-4,5,1
1576152544900114,0,-6,-4,-3,-2,-1,1,0
1576152544916067,0,1,3,-1,-4,-2,1,1
1576152544916067,-1,-1,6,-3,6,-2,0,8
1576152544917966,9,7,12,3,4,3,-6,3
1576152544917966,-2,-2,3,0,-6,5,-7,-14
1576152544939005,-4,-2,-6,4,-6,4,-8,-8
1576152544939005,2,-3,-5,5,-4,-1,-2,-3
1576152544939908,7,1,6,-3,1,-6,5,2
1576152544939908,6,3,0,-7,-1,-7,2,2
1576152544952973,-10,-11,-5,-7,-2,-3,-2,-10
1576152544952973,-11,-5,-9,-6,-1,2,2,1
1576152544959852,-11,-1,-2,-1,3,2,0,8
1576152544959852,13,6,5,3,1,-2,-1,-4
1576152544975908,8,13,5,3,3,4,-1,1
1576152544975908,3,8,0,3,2,1,1,1
1576152544977806,3,-4,0,-1,-1,0,3,-6
1576152544977806,-12,-13,-3,0,1,2,4,-11
1576152544998851,5,-3,-3,-1,0,2,2,8
1576152544998851,-1,-4,2,-7,-1,4,3,11
1576152545000741,-7,0,8,-1,-4,-3,0,-4
1576152545000741,-2,0,-3,1,-9,-4,-4,-2
1576152545013812,2,6,-1,0,-7,-4,0,5
1576152545013812,4,0,-6,-3,-5,-1,-2,0
1576152545019789,-5,-4,-2,-1,5,0,-3,-7
1576152545019789,-20,4,0,5,1,-2,0,-2
1576152545036746,8,0,-1,2,-6,-2,2,11
1576152545036746,5,0,10,9,-2,-3,-1,11
1576152545037651,-6,-3,-3,1,0,-3,-5,1
1576152545037651,-4,-13,-3,-4,2,1,-7,-11
1576152545058591,-1,-2,-3,-7,-1,2,1,-13
1576152545058591,8,-1,-11,-9,-6,-2,1,6
1576152545060581,6,0,-5,-7,-2,2,3,-4
1576152545060581,10,4,-1,-1,4,2,3,9
1576152545072653,-14,-6,-7,-3,3,3,-2,-10
1576152545072653,-7,-5,-4,0,1,-7,-6,-8
1576152545081529,-13,2,2,-2,-8,-2,-4,-3
1576152545081529,-6,2,1,0,-8,-3,-6,1
1576152545096589,2,3,6,3,-2,-1,-5,4
1576152545096589,-4,-4,2,-1,3,6,-4,3
1576152545097482,10,-8,0,4,1,1,-2,12
1576152545097482,-29,-9,-1,0,6,0,7,-12
1576152545118429,1,-6,-5,-2,1,-3,7,4
1576152545118429,-8,-1,-4,-4,-3,-2,-1,-12
1576152545120425,6,3,-1,-5,0,-2,-5,-9
1576152545120425,-5,2,-1,2,-3,-3,0,2
1576152545133504,8,4,5,7,0,-5,3,3
1576152545133504,6,5,4,-1,-2,-6,2,-2
1576152545140410,-3,-4,0,-3,-3,-2,-2,-4
1576152545140410,-1,1,-1,-1,0,-4,-4,2
1576152545156420,-12,-1,-2,-1,2,-5,-5,-6
1576152545156420,-2,-2,-4,10,3,2,0,-2
1576152545157322,1,-4,-4,7,0,5,1,-6
1576152545157322,0,-1,-2,-4,-3,4,-3,-3
1576152545179311,-5,-3,0,-7,0,8,0,9
1576152545179311,0,4,2,-7,2,2,-3,-2
1576152545180265,-1,0,4,-5,-4,-6,-1,-1
1576152545180265,11,5,0,-3,-3,-4,4,8
1576152545193271,-9,1,-2,6,-3,-3,-1,6
1576152545193271,-11,-2,-1,4,-1,-3,-3,-6
1576152545200331,1,2,-1,2,0,0,4,2
1576152545200331,9,-2,-3,2,-4,-1,1,1
1576152545216265,11,1,-4,-7,1,0,-6,-7
1576152545216265,-2,-2,-5,-5,-1,1,-3,-2
1576152545218165,-3,-3,3,3,4,-5,0,-4
1576152545218165,1,-2,2,-1,0,2,-1,-3
1576152545239187,-7,-4,-2,-7,1,0,0,-5
1576152545239187,-1,-4,-3,-5,2,3,1,4
1576152545240103,1,0,-5,-1,-2,2,1,6
1576152545240103,1,-10,-3,2,0,0,4,4
1576152545252174,2,4,1,-1,-2,3,-1,-7
1576152545252174,-4,-2,-1,2,-6,-4,-4,-1
1576152545261087,1,1,4,-7,-1,-6,-1,-2
1576152545261087,-11,-1,-3,-4,3,-4,-2,-5
1576152545276110,-8,-4,3,0,2,-1,-2,-14
1576152545276110,0,2,4,-6,4,-2,2,-2
1576152545277998,5,2,-1,-1,-3,-1,-2,1
1576152545277998,13,6,-2,4,-1,-3,-3,0
1576152545299043,13,3,-3,-2,1,2,1,14
1576152545299043,-9,3,-8,3,1,4,1,-3
1576152545299941,-11,-7,-3,4,2,1,0,-2
1576152545299941,-12,-4,-3,6,-7,-3,2,6
1576152545311909,2,-4,1,7,-6,-7,-7,1
1576152545311909,7,-2,-4,5,4,-6,-4,1
1576152545321001,-3,5,-5,1,5,-1,-1,-4
1576152545321001,5,-2,-4,-10,6,2,-2,-2
1576152545336842,4,-6,2,-1,-2,5,2,-1
1576152545336842,1,6,11,-2,-6,5,-1,4
1576152545337844,3,2,5,-1,-4,1,-1,2
1576152545337844,-6,4,2,0,0,0,0,-1
1576152545358884,18,-5,1,-1,-7,-6,2,3
1576152545358884,-8,-7,0,-5,-2,-4,0,-3
1576152545360783,6,2,-3,-4,0,1,0,5
1576152545360783,-1,5,-1,-5,-7,4,4,-3
1576152545372865,-2,6,-5,-4,-3,6,2,-10
1576152545372865,3,-5,-4,-8,-5,-4,1,2
1576152545381722,-1,-5,0,-7,2,-2,1,1
1576152545381722,-1,-6,0,2,4,2,-6,5
1576152545396729,-7,-6,2,6,2,2,-5,-3
1576152545396729,11,0,0,10,2,4,-3,2
1576152545397684,-8,-1,-3,7,-4,-3,-4,-13
1576152545397684,-3,1,3,-3,-3,-7,-2,-8
1576152545418626,3,-5,2,-2,-5,-7,0,8
1576152545418626,-2,-1,3,-2,-1,-3,-3,-2
1576152545420618,7,-3,-6,1,-3,-2,2,2
1576152545420618,-4,-4,-8,2,1,-1,2,-5
1576152545432637,-21,2,-10,4,-1,-3,-3,-2
1576152545432637,-2,-5,-7,1,-1,0,1,-1
1576152545441565,0,9,2,-7,2,2,-2,0
1576152545441565,7,8,-4,-10,0,3,0,-1
1576152545456557,-12,6,2,-4,2,-1,-1,3
1576152545456557,-7,-5,2,0,-1,-1,-4,3
1576152545457519,-2,-4,1,5,0,-1,0,5
1576152545457519,0,-7,-3,-2,-5,4,-3,-4
1576152545478465,-6,-6,-3,-4,1,0,0,-6
1576152545478465,-4,-1,-6,1,1,-1,4,-2
1576152545480457,6,-6,2,0,4,-4,-2,2
1576152545480457,10,2,7,-1,0,-1,2,8
1576152545492533,8,2,-3,-6,-6,3,3,6
1576152545492533,4,2,1,-7,-11,1,1,-7
1576152545501407,-2,3,-5,0,-8,-3,2,-5
1576152545501407,7,-1,1,5,5,-2,1,-3
1576152545516463,-8,-1,0,2,7,-2,-1,-14
1576152545516463,0,-2,-5,2,7,-3,-5,-6
1576152545517362,-13,2,-7,-8,-1,2,-8,-3
1576152545517362,-5,1,-3,-6,-2,-5,-11,10
1576152545539300,-11,-4,-5,2,0,-1,-7,-14
1576152545539300,7,-1,0,3,5,-2,1,4
1576152545540302,-2,-3,2,4,-1,-4,3,-5
1576152545540302,-12,-5,5,-4,-8,0,4,-12
1576152545561246,7,-6,7,-5,-7,-2,4,6
1576152545561246,-4,0,-4,-3,-7,-1,0,-3
1576152545563241,5,4,0,4,0,-2,-4,4
1576152545563241,7,4,-2,7,0,0,-8,6
1576152545576250,5,7,-5,-8,-4,-3,-5,3
1576152545576250,-2,-1,-1,-6,-1,-1,1,-7
1576152545578203,5,-1,-6,-7,3,2,4,3
1576152545578203,0,-4,-2,0,4,-1,2,0
1576152545599142,3,-2,0,7,1,0,3,3
1576152545599142,0,4,-2,1,2,0,0,0
1576152545600140,3,-5,-3,-2,0,1,-3,-10
1576152545600140,-8,-5,4,0,0,-2,1,-1
1576152545612211,-17,-9,1,-1,0,-6,-3,-3
1576152545612211,2,0,2,-2,-1,-1,-3,10
1576152545621129,-6,-3,1,2,-5,2,-2,-6
1576152545621129,3,2,3,1,-2,2,0,0
1576152545636147,6,-3,1,3,1,2,3,-5
1576152545636147,-10,-7,-8,6,-5,3,2,-8
1576152545638041,2,6,-5,2,-2,-1,1,3
1576152545638041,-17,3,-4,-1,-6,1,1,-2
1576152545658979,2,8,3,-1,0,2,0,9
1576152545658979,-3,3,-2,-7,1,-2,-6,2
1576152545659980,5,-1,-6,-12,1,-5,-6,12
1576152545659980,0,-5,-5,-8,4,-4,0,-4
1576152545681025,2,-2,-8,1,-1,-5,-1,1
1576152545681025,8,0,-1,6,-4,0,1,-8
1576152545682919,10,-5,5,3,0,-7,2,3
1576152545682919,4,-5,0,5,4,-11,1,0
1576152545695989,-8,-5,0,-1,1,-2,0,-2
1576152545695989,-5,1,7,0,-4,4,3,2
1576152545697879,-7,3,-1,-6,-4,4,-3,-1
1576152545697879,1,5,-1,-10,-3,-3,-4,-5
1576152545718921,6,-1,-2,-3,1,2,-1,6
1576152545718921,5,-10,-4,0,-3,2,-2,-9
1576152545720821,-2,-4,-4,8,-3,8,3,-3
1576152545720821,0,-2,-7,-2,-9,5,-1,2
1576152545741778,-3,2,-9,-3,2,0,2,8
1576152545741778,1,3,1,-2,2,-1,-2,2
1576152545742782,-3,2,9,2,1,1,-2,-6
1576152545742782,8,2,4,-3,-6,0,0,-1
1576152545756767,-2,3,10,0,-6,-1,-2,-4
1576152545756767,-4,-2,12,-3,5,-6,1,9
1576152545757722,-6,-2,2,-2,7,-6,-1,-5
1576152545757722,-7,0,-8,7,11,-1,-5,-5
1576152545778767,4,4,-3,0,1,-4,-3,-6
1576152545778767,-2,6,-7,0,-2,-4,-1,1
1576152545780655,1,7,-7,-5,-7,-2,3,2
1576152545780655,7,-1,-5,2,-3,1,6,0
1576152545801711,4,-7,-5,0,-1,0,1,0
1576152545801711,-5,-4,-4,-2,-1,-3,0,0
1576152545802599,-3,-3,6,-2,-1,0,1,-3
1576152545802599,1,-2,6,0,-8,0,-3,1
1576152545816566,6,-10,1,-4,-10,2,-2,4
1576152545816566,11,-3,-4,-5,-3,-1,-4,-2
1576152545817556,2,-7,-3,-3,2,0,-1,8
1576152545817556,-2,0,1,-3,4,-2,1,-5
1576152545838505,-3,3,3,1,0,2,-3,5
1576152545838505,-6,-2,-2,5,-2,-3,-1,3
1576152545840494,-11,3,-10,5,-3,-4,-5,-2
1576152545840494,-5,2,-6,5,1,-6,-5,-1
1576152545861542,-2,7,-3,-1,9,-1,4,-5
1576152545861542,3,-1,-4,-5,5,1,5,-12
1576152545862443,-7,6,4,-5,0,3,4,1
1576152545862443,-4,2,5,-6,-3,4,-3,-7
1576152545875507,-2,6,1,-4,-3,-1,-1,-2
1576152545875507,-4,-2,3,2,1,-1,3,-2
1576152545882490,16,-7,2,1,-1,-4,2,-2
1576152545882490,11,-12,-2,-2,3,1,-2,2
1576152545898400,10,3,-3,0,-2,3,-2,6
1576152545898400,-11,4,-8,1,-4,4,-6,-11
1576152545900340,-5,-4,-2,-1,1,-4,-1,-5
1576152545900340,-6,3,-4,1,2,-2,1,-2
1576152545921323,6,-9,-6,-2,-3,-5,-1,-3
1576152545921323,-1,-10,6,0,-1,-1,-4,-2
1576152545923279,0,-8,6,0,-2,2,-3,-3
1576152545923279,-3,0,2,0,-2,-3,-3,6
1576152545935344,-1,3,1,1,-1,-3,0,4
1576152545935344,-3,1,0,-3,-5,-4,2,3
1576152545942330,-2,3,4,-2,-5,0,3,-2
1576152545942330,-2,3,-1,0,-4,1,2,-1
1576152545959108,-4,0,-5,-5,0,3,1,-10
1576152545959108,-7,-7,-5,2,5,1,0,-1
1576152545960000,1,-3,-10,4,3,3,-6,-9
1576152545960000,3,-1,1,-1,-1,-1,-5,-10
1576152545981040,-15,-5,0,2,1,-5,-7,-4
1576152545981040,6,0,1,3,-2,-6,-2,4
1576152545982943,2,0,-4,-2,-5,-5,1,11
1576152545982943,3,-5,1,-5,-1,-1,2,-1
1576152545996022,-15,0,1,-5,-6,-4,-1,-7
1576152545996022,-7,10,0,-5,-9,0,-1,3
1576152546002934,-2,4,-6,2,-6,1,-3,3
1576152546002934,1,-4,-10,0,8,5,-3,6
1576152546018941,-4,-10,-2,-1,8,0,-1,-13
1576152546018941,3,0,2,1,10,5,2,0
1576152546020838,-12,4,2,3,-1,2,1,-3
1576152546020838,0,-2,3,3,-1,-3,0,-2
1576152546041813,7,-3,3,0,-2,-4,4,6
1576152546041813,2,-3,-2,-8,-6,0,1,2
1576152546042784,6,-7,-8,-9,-3,2,-2,2
1576152546042784,-5,0,-3,-2,-2,-1,-1,0
1576152546055785,-3,-2,-2,2,-2,-2,-10,-4
1576152546055785,8,0,0,-5,1,-1,-9,-4
1576152546062770,-13,3,1,-1,-1,0,-2,-5
1576152546062770,-3,-2,-6,2,0,-6,1,5
1576152546078788,12,6,4,0,1,-1,6,4
1576152546078788,5,-4,8,2,-1,-2,5,5
1576152546080677,0,-4,8,5,4,3,0,-3
1576152546080677,-7,1,1,-5,-4,2,-4,-7
1576152546101698,-4,1,-4,-4,2,7,-4,-5
1576152546101698,-10,1,-5,-4,-3,4,-2,-8
1576152546102623,2,0,-6,-3,-1,-3,3,5
1576152546102623,1,-2,-2,-2,0,-4,4,5
1576152546115690,-3,0,-1,2,4,-5,0,2
1576152546115690,-1,9,-3,-1,3,-4,-8,2
1576152546122671,-1,9,3,-1,-3,-1,-4,-9
1576152546122671,3,5,1,4,-2,1,2,12
1576152546138525,-5,0,-2,-3,-4,0,2,8
1576152546138525,9,0,1,3,-1,-4,5,-5
1576152546140519,0,-9,1,-1,0,0,-2,-9
1576152546140519,10,-8,5,7,0,-1,3,-2
1576152546161462,6,-12,8,1,-5,-4,1,-7
1576152546161462,-5,0,-2,-6,-6,-4,3,-3
1576152546162457,10,3,-6,-4,3,-4,-1,7
1576152546162457,6,4,-3,-4,-1,-3,-10,-2
1576152546175461,4,-5,-4,-5,-1,-1,-7,0
1576152546175461,-8,2,-5,-1,-1,0,1,1
1576152546183522,-7,1,1,2,-2,-4,3,0
1576152546183522,-13,1,0,1,-5,1,2,2
1576152546198404,-13,1,2,4,-3,3,2,-6
1576152546198404,-2,-6,-3,-1,1,7,-5,-3
1576152546200362,-5,4,-7,4,3,4,-4,3
1576152546200362,-5,-4,-7,2,1,2,-3,-4
1576152546221405,5,-2,-7,0,0,-1,-2,-1
1576152546221405,7,0,-8,2,-1,-6,-4,2
1576152546223298,7,-1,3,-2,-5,-6,1,3
1576152546223298,0,-3,4,-8,-5,0,2,-5
1576152546235343,3,2,3,-5,0,6,0,-2
1576152546235343,-2,-8,4,-2,6,4,0,-2
1576152546244242,1,-4,0,1,0,2,0,6
1576152546244242,-9,-2,-4,0,-2,-3,1,-6
1576152546259247,-3,-3,-6,2,-3,-5,0,-4
1576152546259247,-4,-3,-4,3,0,-7,-1,-1
1576152546260200,-2,-4,6,-6,-1,-2,-3,-5
1576152546260200,12,-1,3,-1,1,-3,0,16
1576152546281243,-6,1,1,-1,1,-1,-7,-18
1576152546281243,-1,2,5,-1,-2,2,1,6
1576152546283136,-5,-3,-6,-3,0,-1,4,2
1576152546283136,-7,1,-5,-5,-9,2,-1,0
1576152546295208,9,12,-4,3,-7,3,1,16
1576152546295208,-5,3,-7,0,-4,-2,-1,1
1576152546304081,-6,2,-2,5,0,-3,1,-5
1576152546304081,-5,4,1,2,6,1,-4,-13
1576152546319039,3,-1,-4,1,-1,3,-5,1
1576152546319039,5,-4,2,-5,-6,1,-2,1
1576152546320042,-4,-7,-3,-7,1,-2,0,-4
1576152546320042,3,-9,1,-4,2,0,4,-7
1576152546341083,1,0,3,0,3,-1,6,5
1576152546341083,-5,2,-1,3,-2,-1,1,-7
1576152546342982,-8,0,1,-2,-4,-5,-6,-11
1576152546342982,-1,10,1,2,-4,-2,-2,2
1576152546355043,3,4,1,-2,-4,-1,2,-3
1576152546355043,2,1,-7,1,-3,-5,-2,-6
1576152546363856,-5,-6,-8,2,0,1,-3,3
1576152546363856,-7,-13,-9,-1,4,-2,-3,-7
1576152546378859,1,1,3,2,10,1,-1,3
1576152546378859,1,0,-1,-3,11,-2,1,1
1576152546380823,0,3,0,1,2,0,0,3
1576152546380823,-6,-4,-2,-1,-5,0,-1,-4
1576152546400862,-1,-1,1,-2,-2,-4,-3,-10
1576152546400862,2,-8,2,-5,-1,3,-3,-1
1576152546402753,2,-5,8,-3,1,5,1,-5
1576152546402753,1,-2,-2,-2,-3,2,3,5
1576152546414820,-4,2,1,0,-7,-1,4,7
1576152546414820,-1,-2,1,2,-10,-5,-3,-6
1576152546423693,0,-1,-3,-1,-4,-1,-1,-10
1576152546423693,-4,1,-6,-4,5,3,0,0
1576152546438756,-9,-7,-9,0,1,6,2,0
1576152546438756,-8,-3,-7,-1,-1,3,-3,4
1576152546440648,3,-4,1,2,-3,-5,-3,5
1576152546440648,7,-2,5,5,-3,-9,-1,-5
1576152546461713,7,3,4,-2,4,-9,1,3
1576152546461713,-1,1,-2,-1,3,-3,-3,-7
1576152546462592,6,8,-2,1,-1,1,-7,-5
1576152546462592,-1,4,-7,-3,-2,2,-4,-1
1576152546474662,-6,-3,1,-1,-1,2,-1,-6
1576152546474662,7,2,3,8,-4,1,0,1
1576152546483580,-1,-2,-5,3,3,-5,1,-6
1576152546483580,7,1,-4,2,-2,-6,1,-6
1576152546498531,-7,0,-3,-4,-4,-6,3,1
1576152546498531,-7,-4,2,-10,2,3,-1,2
1576152546500490,-5,-2,-1,-10,3,4,-1,4
1576152546500490,2,-2,5,-3,5,0,2,3
1576152546521536,4,-8,4,-2,-2,-1,1,-1
1576152546521536,1,2,3,5,-5,-2,1,-3
1576152546522432,0,3,-4,1,-8,0,1,-6
1576152546522432,-1,2,-2,-2,-6,2,-4,1
1576152546535398,-7,5,1,-5,1,1,-5,8
1576152546535398,4,-5,-1,-5,4,0,1,8
1576152546543376,6,-11,1,2,0,-1,-2,-4
1576152546543376,4,-1,2,1,1,-2,-1,1
1576152546558333,7,1,-5,-5,0,-5,-4,5
1576152546558333,1,6,-6,-3,-4,-3,-1,0
1576152546560328,-5,6,-7,1,4,2,-1,-3
1576152546560328,-10,3,0,-3,0,2,0,-3
1576152546581378,4,3,-4,2,-3,1,1,2
1576152546581378,-20,1,0,3,2,-2,5,-7
1576152546583273,6,-4,2,3,-3,-4,-1,6
1576152546583273,0,-4,5,-2,-1,-3,-3,3
1576152546595350,5,-5,-2,0,3,-3,-3,-6
1576152546595350,-2,-4,-5,-1,-1,4,0,-4
1576152546604211,1,7,0,-5,-9,2,2,6
1576152546604211,2,-2,0,-6,-6,1,-2,-5
1576152546619243,-2,-15,1,-5,-4,-1,-1,-2
1576152546619243,10,-4,5,-3,8,-3,0,7
1576152546620171,-8,-5,5,1,6,-4,1,4
1576152546620171,0,7,-2,7,6,0,1,5
1576152546641215,-7,6,-12,4,2,-1,0,5
1576152546641215,2,5,-1,4,3,-1,-2,-2
1576152546643108,2,3,-1,3,-4,2,-2,0
1576152546643108,-3,4,-2,-2,-5,-4,1,4
1576152546664172,-13,-2,-5,-3,-5,-1,-1,-13
1576152546664172,-1,-3,-3,-5,-9,0,-3,-3
1576152546665054,-4,-7,0,-9,-3,0,-1,-9
1576152546665054,0,-7,5,-3,-1,1,-1,0
1576152546679119,4,1,-2,-1,-3,4,-1,4
1576152546679119,2,5,-3,-2,1,4,-6,5
1576152546680012,-12,4,1,1,0,0,-3,-15
1576152546680012,-1,-1,-2,0,3,2,1,-4
1576152546701050,-4,-4,4,4,3,1,2,-7
1576152546701050,2,0,-1,5,-2,-7,4,3
1576152546702950,12,-2,-2,3,4,-8,1,2
1576152546702950,-18,2,-4,-6,4,-8,-2,-21
1576152546723993,1,6,2,-5,2,-3,-2,-6
1576152546723993,-5,7,-1,-5,-5,0,3,7
1576152546725885,7,6,-8,0,-3,0,-1,1
1576152546725885,5,-3,-3,0,-2,0,-7,0
1576152546738953,9,-7,8,-3,2,3,-9,3
1576152546738953,-4,-8,3,-3,-4,3,-6,-9
1576152546740851,-14,2,2,1,-5,1,-3,3
1576152546740851,1,-1,-7,7,-1,1,0,1
1576152546761835,4,-3,-4,7,5,-4,4,-1
1576152546761835,12,-3,0,4,7,-5,5,1
1576152546762792,3,-4,-5,1,3,-2,9,-3
1576152546762792,10,6,-4,-4,-8,0,6,5
1576152546783837,-3,7,-6,-3,-10,-1,-1,-2
1576152546783837,6,3,0,3,1,2,-3,7
1576152546785727,-6,-9,7,-10,5,4,-5,13
1576152546785727,-15,-7,6,-6,2,2,-6,-5
1576152546797738,-3,0,-8,-3,-5,-2,-4,3
1576152546797738,-1,2,-5,-1,-5,-9,-2,-5
1576152546804682,-2,0,3,2,-1,-6,-1,-1
1576152546804682,1,-7,3,3,3,0,2,4
1576152546821719,2,-4,-1,0,-4,1,0,1
1576152546821719,-1,-4,-4,2,-8,0,2,5
1576152546822629,4,-5,-2,-3,0,3,3,-6
1576152546822629,1,-3,-3,-5,1,-1,-2,-5
1576152546843569,-2,9,-2,3,3,-6,-3,-14
1576152546843569,-1,5,-3,2,0,-3,-5,4
1576152546845565,-1,1,-1,3,1,1,-5,5
1576152546845565,5,3,-5,1,-6,-2,0,2
1576152546858530,-15,-7,1,-2,0,-1,2,-2
1576152546858530,-1,-8,2,-3,1,2,3,4
1576152546865513,-17,-1,-4,-3,-6,1,4,-3
1576152546865513,0,3,0,4,1,1,-2,-15
1576152546881529,-1,6,-1,-1,0,-1,0,1
1576152546881529,-4,4,3,-4,0,0,-1,-6
1576152546882471,6,0,-5,-5,0,-2,-3,4
1576152546882471,-9,-6,0,-8,-4,-3,0,3
1576152546903516,-3,-7,4,-11,-4,0,-1,8
1576152546903516,2,-1,4,-3,2,4,-4,-5
1576152546905410,18,-4,-3,2,2,2,-1,-6
1576152546905410,8,4,-2,6,2,2,-6,-4
1576152546918373,7,-1,-1,3,0,-4,-1,4
1576152546918373,1,-2,-3,-2,-4,0,2,-9
1576152546925351,-3,-4,-3,-1,-5,-2,5,-2
1576152546925351,-10,1,2,-2,1,-2,4,-6
1576152546941414,-8,-1,0,0,5,0,-1,-2
1576152546941414,3,-9,-6,-4,-3,-2,-7,5
1576152546943304,-2,-1,0,2,2,-10,-7,-1
1576152546943304,-3,-2,4,5,-3,-7,-1,-1
1576152546964288,5,8,-2,7,-2,0,1,6
1576152546964288,-3,6,-5,4,-1,2,-2,-6
1576152546965253,-3,8,-10,3,-1,7,-1,0
1576152546965253,13,0,-5,-2,1,5,-1,4
1576152546978218,-10,-10,-1,-6,0,-5,-1,-3
1576152546978218,-3,-3,4,-5,1,-7,2,-6
1576152546985296,6,0,-3,-4,-3,-5,1,-2
1576152546985296,1,-7,-7,-5,-2,-2,1,6
1576152547001253,10,-4,3,0,-3,-4,-4,-11
1576152547001253,-13,-5,4,-2,-1,-3,-4,1
1576152547003144,-4,4,5,-4,3,-1,-1,6
1576152547003144,1,2,1,-4,1,0,-2,6
1576152547024213,6,-5,-2,-1,-6,3,-4,3
1576152547024213,-5,0,0,2,-7,0,0,-7
1576152547025088,-5,5,-1,1,-1,5,1,-5
1576152547025088,-12,1,1,0,-1,-1,1,3
1576152547038085,-9,0,2,0,0,-2,-3,-7
1576152547038085,-1,-8,-2,0,-3,0,4,-3
1576152547045136,-3,-7,1,3,-2,-4,4,6
1576152547045136,-1,-2,-3,3,0,-1,0,1
1576152547060994,-3,10,-3,4,2,-1,2,-3
1576152547060994,11,8,-4,-7,4,-4,-5,3
1576152547062985,13,-2,-3,-10,0,-1,-5,-1
1576152547062985,2,-4,-1,-2,4,4,-1,-7
1576152547084027,-9,3,3,1,-2,10,4,0
1576152547084027,-12,0,4,-1,-2,0,3,-4
1576152547084926,-3,-8,1,0,-5,-5,0,-8
1576152547084926,-2,-3,-5,-4,-6,-2,-8,-1
1576152547097940,7,-4,-9,-4,-1,0,-4,8
1576152547097940,5,-3,-6,1,1,-2,-8,-2
1576152547104914,-9,-4,1,2,-5,-5,-5,6
1576152547104914,8,5,5,-1,-3,-5,5,11
1576152547120929,-2,4,4,-1,2,-1,7,-1
1576152547120929,-8,3,-9,-3,2,3,3,3
1576152547122828,0,2,-1,3,3,-2,-3,-5
1576152547122828,-5,-6,-4,4,6,-3,-3,-1
1576152547143807,2,0,-3,-1,-3,-1,-3,5
1576152547143807,-2,2,2,-7,-3,-2,-2,5
1576152547145766,-4,-2,1,-1,-3,-4,-3,-3
1576152547145766,5,-1,1,0,-6,-4,-2,-6
1576152547157735,0,-6,5,4,0,-5,4,-8
1576152547157735,4,-7,5,4,4,1,8,3
1576152547166709,-10,2,2,-2,3,9,2,-4
1576152547166709,-4,-3,1,-8,-2,6,2,-4
1576152547181719,8,-1,-7,-5,1,-1,-4,-1
1576152547181719,1,1,2,4,-2,5,-2,2
1576152547182666,5,3,1,0,3,0,-1,2
1576152547182666,-3,5,-2,1,1,-2,3,-2
1576152547203714,-9,1,-5,-4,-5,0,0,1
1576152547203714,4,5,-5,-4,-5,-2,-3,9
1576152547205604,5,-3,-4,-3,-6,-6,-4,-4
1576152547205604,-11,-4,-1,3,1,-8,-4,-6
1576152547217609,2,-5,-4,0,-1,-5,1,0
1576152547217609,2,-1,-2,3,0,0,3,3
1576152547226551,0,-1,-5,-2,2,2,0,8
1576152547226551,2,0,2,-6,5,1,-7,2
1576152547241610,-4,3,0,-3,5,-2,-8,-3
1576152547241610,-6,-3,-4,-3,3,-5,-7,-11
1576152547242507,-5,-4,-5,1,-3,-4,-1,-9
1576152547242507,-1,-3,2,2,-8,2,1,1
1576152547263552,-2,-2,3,4,-4,4,1,0
1576152547263552,6,0,1,-1,-4,4,0,0
1576152547265444,-4,-3,-2,-8,-6,6,-4,0
1576152547265444,-4,-6,-2,2,-1,4,5,-10
1576152547277515,2,-4,4,6,-3,-2,1,-1
1576152547277515,-4,-2,0,2,0,-5,1,-11
1576152547286392,2,5,0,0,-1,-9,3,-3
1576152547286392,10,3,0,-1,0,-7,0,1
1576152547301451,-5,6,-4,0,-4,-4,0,2
1576152547301451,-9,2,-2,1,-1,-6,-3,-14
1576152547303340,1,-5,3,-6,5,1,-4,-1
1576152547303340,1,-5,-5,-6,-1,-2,-4,5
1576152547323287,4,-4,-5,-1,1,-2,2,3
1576152547323287,2,3,-4,-2,-1,4,6,7
1576152547325285,-9,2,1,5,-3,6,5,3
1576152547325285,-4,9,0,2,-2,1,-1,8
1576152547337355,-1,-2,-3,0,-6,0,-8,-3
1576152547337355,0,-1,2,1,0,-1,-7,-7
1576152547346230,16,-1,4,2,2,-3,-1,-4
1576152547346230,12,-9,2,-2,3,-6,1,-3
1576152547361189,-7,-7,2,-6,3,1,3,3
1576152547361189,17,-1,-6,-7,-1,-1,4,4
1576152547363187,-9,-1,-6,-4,0,-2,-1,2
1576152547363187,-6,5,-1,4,-2,-4,-4,-18
1576152547384241,10,6,1,0,3,-2,-3,2
1576152547384241,-2,2,-1,-1,1,3,-6,6
1576152547385129,-5,-2,0,-2,-1,4,-1,4
1576152547385129,5,-5,-3,1,-4,3,-6,4
1576152547397200,0,-1,3,-2,-4,-2,6,-5
1576152547397200,-10,-1,3,-2,-3,-7,7,-7
1576152547406118,3,-2,-5,1,1,1,2,-1
1576152547406118,-5,-4,-2,-4,3,7,0,0
1576152547421126,14,0,-2,3,-3,5,-6,-6
1576152547421126,-9,-1,-5,2,2,-4,-6,-2
1576152547423022,-13,-8,2,-2,6,-6,-2,-2
1576152547423022,3,-3,5,0,-4,-8,0,4
1576152547444069,1,1,1,-5,2,-4,-3,1
1576152547444069,12,1,-2,-1,1,-1,3,5
1576152547444966,-6,5,-8,2,-4,3,-1,1
1576152547444966,-10,6,-5,-2,-3,5,-1,2
1576152547457033,-7,4,-8,-4,-3,-4,2,2
1576152547457033,5,1,1,-3,1,-1,1,-7
1576152547466908,0,1,1,-4,0,-1,4,-5
1576152547466908,2,-4,-1,2,-2,0,1,-4
1576152547481864,-2,-3,4,0,-1,4,-6,-4
1576152547481864,7,-5,-3,0,-2,4,-6,-3
1576152547482867,-3,-3,9,1,-1,0,-5,3
1576152547482867,-4,0,1,-2,-5,0,-5,-3
1576152547503904,2,-1,-3,0,-1,1,1,0
1576152547503904,4,4,-2,-1,-5,-1,3,7
1576152547505800,2,6,-4,-2,1,-1,3,-2
1576152547505800,-1,-3,3,1,6,0,0,-2
1576152547517819,-8,-1,1,0,4,-2,-6,-4
1576152547517819,-1,-4,-2,3,0,-5,-7,-1
1576152547526745,3,-1,1,4,-4,-8,-4,-5
1576152547526745,-13,-2,-8,-3,-1,0,4,2
1576152547541755,3,-2,-1,0,0,0,7,-1
1576152547541755,1,-1,-3,-1,-5,4,11,0
1576152547542708,11,6,-5,-8,-2,4,4,4
1576152547542708,11,1,-2,-6,-3,2,-1,1
1576152547563690,-3,-1,-6,-1,-3,2,-4,-1
1576152547563690,-16,-4,2,-1,-2,3,-9,-16
1576152547565640,4,-2,7,-4,-2,1,-1,7
1576152547565640,2,-2,2,-6,-2,-5,-4,2
1576152547586708,-8,1,-6,1,-1,-5,-3,-1
1576152547586708,-18,-5,-5,1,3,0,-6,6
1576152547587587,-2,3,-10,7,8,-3,2,1
1576152547587587,-5,6,-3,0,5,-1,1,0
1576152547600582,3,-8,6,-4,-1,-7,-3,-4
1576152547600582,14,-5,3,-3,1,-5,2,2
1576152547607581,3,-10,-3,-3,1,-1,-3,-7
1576152547607581,9,-2,0,4,-3,-4,1,-3
1576152547623535,17,5,3,3,0,-1,1,7
1576152547623535,-16,4,0,-2,-4,7,1,-1
1576152547625480,-10,-6,1,0,-4,5,-4,-8
1576152547625480,-11,-2,0,2,-3,-1,0,-18
1576152547646535,-11,-6,-5,-1,-9,0,4,6
1576152547646535,-7,-4,-4,2,-5,-6,4,1
1576152547647423,0,-1,-4,-6,-1,-5,-2,3
1576152547647423,11,8,1,-7,7,0,-2,6
1576152547661432,0,8,5,-6,6,3,-4,2
1576152547661432,1,2,0,1,2,1,-5,-1
1576152547662381,-8,-5,-6,1,-4,2,-5,0
1576152547662381,-15,-10,6,3,-1,0,-2,5
1576152547684323,-5,-10,-2,-3,-1,-1,-2,-5
1576152547684323,4,-3,0,-6,0,0,-1,5
1576152547685326,0,3,0,2,0,-4,1,-4
1576152547685326,-4,13,-5,4,3,-1,0,3
1576152547706363,-1,9,-4,8,2,1,6,-3
1576152547706363,-13,2,0,1,2,1,0,-10
1576152547708261,6,-4,-5,-4,-6,1,2,7
1576152547708261,0,-6,-6,-5,-12,1,2,7
1576152547721326,6,-2,2,2,1,1,-3,3
1576152547721326,11,-3,0,7,1,-4,-4,-2
1576152547723221,7,-3,7,0,0,-4,-3,-4
1576152547723221,7,4,7,-5,-5,-1,2,-1
1576152547744214,-6,2,-2,-9,1,-5,2,-9
1576152547744214,-8,-2,-4,-6,0,-6,-1,6
1576152547745166,-4,0,-1,1,1,-2,2,4
1576152547745166,-2,-6,-7,2,-2,-1,-2,-4
1576152547766208,4,-5,3,2,-3,3,1,-2
1576152547766208,11,-4,-2,0,1,1,2,-3
1576152547768102,5,1,-6,-3,-2,1,-5,-4
1576152547768102,-2,-2,1,-1,1,-2,-3,-5
1576152547781114,-3,-5,-5,-1,-4,-4,-3,-2
1576152547781114,-5,5,0,-5,-6,-1,-5,4
1576152547787153,-5,3,-1,-4,-3,-1,-5,-9
1576152547787153,11,4,3,1,0,2,2,3
1576152547804050,-10,1,4,-4,-1,3,-1,-1
1576152547804050,-4,2,1,3,3,3,4,3
1576152547805002,3,-3,-3,5,-5,-2,3,-2
1576152547805002,-3,-3,-1,3,-6,-4,2,-3
1576152547825946,1,0,-6,2,-1,-3,-2,-7
1576152547825946,-6,-2,3,0,3,-4,-5,-5
1576152547827943,-13,2,2,-3,8,-2,0,0
1576152547827943,1,-1,-2,-4,7,-3,-3,8
1576152547841017,-5,-2,-6,-6,6,1,-2,-5
1576152547841017,5,3,-1,-3,0,1,-1,-1
1576152547847888,1,-2,1,3,-3,-2,0,3
1576152547847888,-2,-9,-4,1,-6,-4,1,-6
1576152547863844,9,0,0,3,-5,0,0,4
1576152547863844,1,-5,3,3,-5,4,1,-1
1576152547865841,-3,4,6,1,-3,7,2,-1
1576152547865841,-3,3,-2,-5,2,4,2,5
1576152547885814,1,-4,-3,-5,0,-4,-4,-4
1576152547885814,-3,-6,-2,-8,-6,-9,-7,-15
1576152547887782,-2,0,6,0,3,-1,2,1
1576152547887782,4,5,-8,-1,6,0,-1,1
1576152547900792,4,6,-6,3,3,-3,-4,7
1576152547900792,2,5,0,0,0,-4,1,7
1576152547907756,-18,0,3,-4,-6,-8,3,-1
1576152547907756,-8,-2,2,-3,-4,-1,-2,-6
1576152547923715,-6,-4,-1,0,0,2,-2,-1
1576152547923715,8,-5,-5,3,-4,3,-6,3
1576152547925681,5,-4,-2,-5,-1,2,-4,-2
1576152547925681,-7,-3,-4,-6,2,-5,1,7
1576152547946703,1,3,3,-4,-1,-3,1,0
1576152547946703,3,0,0,-6,0,0,2,-3
1576152547947620,0,7,-6,-1,2,6,1,-1
1576152547947620,8,0,-1,1,-3,5,-4,4
1576152547960690,-9,-1,-3,7,-10,-1,-3,3
1576152547960690,-4,0,-1,9,-4,-3,-4,-6
1576152547967669,11,-7,-2,3,3,-4,2,-1
1576152547967669,-4,0,-2,1,4,0,3,2
1576152547983625,-1,-6,2,-2,5,0,3,2
1576152547983625,-9,-1,11,1,7,0,4,-3
1576152547985516,-8,-2,4,1,0,-2,-1,-2
1576152547985516,1,-4,3,4,-8,-1,-4,-3
1576152548006566,6,2,-4,-4,-4,3,-4,6
1576152548006566,14,3,-8,-7,-3,4,5,2
1576152548007464,11,-2,-7,-4,-1,3,-3,-6
1576152548007464,-3,0,2,-6,0,1,-4,-6
1576152548020530,-13,-6,2,-9,1,3,-3,-15
1576152548020530,-9,-11,-4,0,4,3,-2,5
1576152548027521,-4,0,-6,5,1,-4,5,4
1576152548027521,-6,0,-6,0,-3,-10,2,-14
1576152548044361,-2,2,1,-5,-3,-7,-1,2
1576152548044361,6,3,-6,-7,-1,-5,-3,0
1576152548045362,-5,0,-1,-1,-3,-2,4,7
1576152548045362,-5,3,-5,2,-5,-2,-1,-7
1576152548066304,-7,5,1,6,-1,2,4,0
1576152548066304,1,0,8,2,3,3,-2,2
1576152548068297,8,-2,-3,3,2,2,-8,4
1576152548068297,7,-1,3,-2,1,0,-6,-2
1576152548080386,3,-1,0,1,-3,-1,-5,-4
1576152548080386,-7,5,-4,-2,-2,-4,2,-1
1576152548089239,5,-2,3,-7,-2,-2,-4,-4
1576152548089239,-23,-9,2,-1,-3,2,-5,1
1576152548104200,14,-2,-4,0,-5,1,0,4
1576152548104200,-16,-8,0,-1,-1,3,5,2
1576152548105202,0,-6,-1,4,2,-2,5,0
1576152548105202,10,-7,-2,1,0,-2,5,5
1576152548126141,4,-4,-2,1,2,1,1,-5
1576152548126141,5,4,2,0,-2,-3,-5,-10
1576152548128139,3,8,3,-4,1,-6,-3,-4
1576152548128139,-3,0,5,-1,4,-6,-3,-8
1576152548140210,-4,7,-4,0,6,-6,1,-6
1576152548140210,0,6,-9,-4,0,-1,1,4
1576152548149084,-2,8,0,1,-2,3,-2,-6
1576152548149084,2,8,-1,2,2,4,-3,-7
1576152548164088,0,-7,-2,-4,-3,1,0,-10
1576152548164088,-2,-6,-3,-4,-2,3,0,-2
1576152548165037,-7,-13,-3,-3,-6,-5,-2,-9
1576152548165037,-6,-10,-6,-5,-6,1,1,-4
1576152548186036,-8,-2,1,-5,-4,4,0,5
1576152548186036,6,3,-2,-1,0,3,1,12
1576152548187985,-7,-2,5,5,4,0,-4,-2
1576152548187985,-1,1,-4,5,1,-6,1,4
1576152548200001,0,-4,-1,3,-3,-7,2,2
1576152548200001,-1,-1,-5,4,-1,-7,1,-1
1576152548208934,-1,1,0,0,-3,-4,-4,-1
1576152548208934,5,-7,2,-2,1,-1,-5,1
1576152548223921,-5,2,-4,0,-1,2,0,-1
1576152548223921,-6,2,-1,-6,-7,1,0,-7
1576152548224888,3,2,-6,-5,-3,1,0,2
1576152548224888,2,6,-5,-5,0,1,-2,-1
1576152548245884,2,7,6,5,-1,-3,0,4
1576152548245884,1,-4,5,2,2,-1,-3,-4
1576152548247830,1,-9,-3,0,0,-3,-4,-7
1576152548247830,-1,-3,-5,-2,0,2,3,7
1576152548259792,4,-5,-2,-4,4,-3,1,6
1576152548259792,0,-5,1,5,0,-4,-4,-2
1576152548268773,-3,-5,5,-2,-1,1,-2,10
1576152548268773,-2,4,5,-7,0,2,-4,-5
1576152548283783,-11,2,1,-4,1,3,2,-6
1576152548283783,18,5,1,0,0,0,-2,-10
1576152548285725,0,1,-3,5,0,1,-3,-15
1576152548285725,2,-1,2,-2,-4,-4,-2,-3
1576152548306669,-3,-1,-2,-7,3,-3,5,0
1576152548306669,0,-2,-5,-9,1,-5,2,4
1576152548307667,4,-1,-2,2,2,-1,2,7
1576152548307667,-1,3,-3,5,3,-5,1,3
1576152548319638,4,-4,1,3,-6,3,-3,0
1576152548319638,-8,-3,2,-1,-3,1,-1,5
1576152548328609,-6,0,2,-5,-2,6,6,1
1576152548328609,4,4,5,2,-4,2,2,-3
1576152548343675,2,6,3,2,-2,-1,-3,1
1576152548343675,-5,-10,-7,-3,2,-1,-8,-7
1576152548345565,-3,-9,-6,0,-3,-3,-6,1
1576152548345565,-14,-8,-1,4,-2,3,0,4
1576152548366608,0,-1,1,-3,0,3,1,-5
1576152548366608,-6,4,0,-3,-2,1,1,-5
1576152548368229,-2,4,-2,-5,0,-1,5,6
1576152548368229,1,-5,-1,-1,7,-3,6,5
1576152548380321,4,1,0,3,-1,-5,3,2
1576152548380321,1,3,-2,0,-1,-2,7,-8
1576152548389174,-3,2,-1,-4,-5,-2,-7,-7
1576152548389174,-3,4,-3,1,-4,-3,-10,-2
1576152548404240,-6,-3,-2,3,-2,4,-10,2
1576152548404240,3,4,-2,7,0,4,-5,6
1576152548405134,-1,8,-5,-3,-3,1,1,-2
1576152548405134,-7,-2,0,-4,0,-4,4,-6
1576152548426099,1,-4,1,-2,-1,-5,1,-1
1576152548426099,-3,-5,4,5,-4,-3,5,-2
1576152548428078,1,-5,0,-3,-8,-5,3,-6
1576152548428078,9,0,-7,-6,-2,2,-2,2
1576152548440039,6,-3,-5,-4,3,-3,0,-2
1576152548440039,-4,-6,-3,-2,4,-5,-3,1
1576152548449012,-3,-3,5,7,10,0,-4,-4
1576152548449012,-14,1,7,0,2,1,-2,-1
1576152548464070,-7,4,2,2,1,1,-1,6
1576152548464070,-7,-3,1,-9,1,-2,-7,-5
1576152548464971,9,2,-2,-10,1,-2,-4,7
1576152548464971,17,0,-6,1,-7,2,0,10
1576152548486739,7,3,-7,1,-8,1,0,-4
1576152548486739,-3,3,-3,-1,-3,1,-3,4
1576152548487726,7,12,-6,-1,-8,1,0,2
1576152548487726,-10,0,-4,5,-8,3,-2,-7
1576152548499773,-9,-10,-4,3,-2,-1,4,-2
1576152548499773,-3,-4,-5,3,1,-1,6,0
1576152548508648,2,2,3,2,1,0,7,5
1576152548508648,2,0,8,-3,4,-3,5,0
1576152548523706,3,-8,3,2,4,0,0,1
1576152548523706,1,-4,1,-3,-5,-2,1,5
1576152548525598,-7,-7,-4,-1,-6,1,-4,-2
1576152548525598,-1,1,-3,-4,-3,0,-6,-5
1576152548546648,-6,-2,3,-7,1,1,-4,-6
1576152548546648,10,4,6,-4,4,-1,2,6
1576152548547539,-19,4,1,2,5,0,0,-6
1576152548547539,4,-1,-3,4,1,-1,-2,-6
1576152548568527,-4,3,-5,-3,5,-5,-8,-3
1576152548568527,0,4,2,1,-2,-2,-5,10
1576152548570479,-2,-9,-1,-3,-3,-2,-3,2
1576152548570479,-1,-6,1,-4,-5,-3,-7,1
1576152548583547,-3,2,-2,5,5,-6,-2,-6
1576152548583547,-6,-1,-7,2,4,-2,3,0
1576152548585443,0,-1,-2,-2,1,-6,6,-2
1576152548585443,11,4,-1,-4,-9,0,8,-3
1576152548606383,10,5,-1,-6,-5,1,3,-1
1576152548606383,-2,3,1,1,-2,3,-4,-17
1576152548607380,3,-5,-2,-1,1,1,2,3
1576152548607380,-3,-7,1,-5,10,3,0,-1
1576152548629321,0,-3,3,4,2,0,-2,12
1576152548629321,-4,-9,-3,3,-6,-7,0,1
1576152548630326,-3,-8,-1,3,-4,0,-2,0
1576152548630326,0,-3,-3,2,-2,-2,-3,4
1576152548644321,0,1,1,-4,-6,1,-6,-7
1576152548644321,-1,15,1,-7,-5,2,-6,-2
1576152548645280,-9,8,-5,-6,-4,1,-3,-5
1576152548645280,1,-3,-3,-1,2,0,4,-3
1576152548666326,-8,-5,0,-3,-1,2,2,1
1576152548666326,6,2,3,5,-3,-1,4,11
1576152548668216,13,7,4,3,-2,-1,3,7
1576152548668216,2,-3,-7,2,1,0,-1,-6
1576152548689251,3,-1,-6,-3,-5,6,0,2
1576152548689251,-2,-13,-9,-6,-2,1,-5,-15
1576152548690170,-4,-4,7,-2,2,1,-2,-7
1576152548690170,-1,-10,1,-2,1,0,-8,2
1576152548703223,-3,-2,-2,-4,2,-2,1,-3
1576152548703223,2,3,5,3,0,-1,4,4
1576152548710204,1,3,5,0,4,-1,-2,-2
1576152548710204,-8,5,3,-2,2,-6,-1,0
1576152548726102,-2,5,-1,-1,-5,-7,-5,0
1576152548726102,-8,-3,-6,0,-3,-4,2,-4
1576152548728067,12,-1,-4,1,-6,-4,1,-2
1576152548728067,0,0,4,3,-5,-1,-1,-4
1576152548749048,-1,0,0,4,2,0,1,-3
1576152548749048,11,2,-3,1,5,6,-1,1
1576152548750004,5,2,-5,2,3,2,3,8
1576152548750004,-9,-2,-1,-1,1,-3,2,-1
1576152548763063,-5,-1,-6,-6,-3,-4,4,3
1576152548763063,-4,-5,-9,-3,0,0,0,0
1576152548769945,-7,-8,-6,-1,2,1,-2,-6
1576152548769945,6,10,3,2,-1,6,0,-1
1576152548785913,1,2,8,-1,-4,1,-3,-1
1576152548785913,-1,2,9,-3,0,-2,-9,-1
1576152548787903,-6,-2,4,-6,-3,-3,-4,3
1576152548787903,7,-5,-4,-3,5,-4,4,1
1576152548808842,7,-3,-5,1,6,-4,2,-1
1576152548808842,-1,-1,-6,4,0,0,-1,-3
1576152548810835,-7,3,-2,-1,-7,0,-3,-4
1576152548810835,-5,-1,-2,-2,-11,2,-1,-15
1576152548822810,7,1,-1,-4,-8,-1,1,3
1576152548822810,2,2,0,2,-1,0,0,0
1576152548829821,2,0,-6,7,3,0,0,-3
1576152548829821,6,1,-6,3,3,1,4,7
1576152548846740,6,5,2,7,6,5,3,-8
1576152548846740,3,4,4,0,0,-1,-2,0
1576152548847743,1,10,0,-2,2,-4,-3,7
1576152548847743,-4,-3,6,-6,2,-3,-1,0
1576152548868684,-9,-2,2,-1,0,-6,-1,-4
1576152548868684,1,-1,-2,-5,-6,-2,-3,2
1576152548870675,1,-15,-3,-3,-5,2,0,-5
1576152548870675,0,-10,-4,0,0,-1,-7,6
1576152548883645,-9,-2,-5,3,-3,1,-6,2
1576152548883645,8,8,-2,-2,-4,-1,4,-1
1576152548889729,2,12,-3,-1,-7,-2,4,-7
1576152548889729,-10,-7,-1,0,1,-3,8,-5
1576152548906680,1,-8,-3,-2,2,-4,5,6
1576152548906680,-1,-12,7,-1,3,-4,0,8
1576152548907588,4,-2,7,-5,2,-1,-4,12
1576152548907588,1,6,4,-3,-5,1,-4,-6
1576152548928531,-17,2,-5,-2,-6,2,-3,-3
1576152548928531,-1,-4,-8,-5,-2,4,2,3
1576152548930522,-1,-6,0,-3,-2,0,-4,-3
1576152548930522,0,1,2,0,-3,1,-5,2
1576152548951560,-3,-8,2,-4,-1,-3,-4,-6
1576152548951560,-8,1,3,-2,-1,-9,-4,-9
1576152548953454,5,-2,-4,1,2,-6,6,16
1576152548953454,-11,0,-8,1,4,-1,0,-13
1576152548966520,6,1,4,5,4,1,-2,4
1576152548966520,-9,-4,-2,0,1,2,-3,0
1576152548968422,3,-3,-2,-4,-3,-1,-1,3
1576152548968422,0,7,-3,-2,-6,5,3,3
1576152548988410,3,5,-5,1,0,0,1,-14
1576152548988410,2,-2,1,2,4,4,2,-8
1576152548990363,0,-4,0,5,-1,2,0,-7
1576152548990363,3,-7,1,0,-1,-2,0,4
1576152549003417,-5,-7,0,-4,-5,1,-9,-12
1576152549003417,5,9,0,-3,-1,-5,-5,0
1576152549010403,-19,2,-4,-8,1,0,-6,-18
1576152549010403,-5,3,1,-6,1,1,-4,6
1576152549026268,-4,-5,0,-1,0,-2,0,-1
1576152549026268,-9,-15,-4,5,-5,2,-1,0
1576152549028255,-4,-6,-1,0,-4,-2,0,-1
1576152549028255,-4,-3,1,0,-8,-7,-6,-8
1576152549049201,12,5,3,-5,-5,-10,3,4
1576152549049201,9,2,-1,-1,1,-4,10,4
1576152549050197,5,4,2,1,11,5,9,-2
1576152549050197,-3,-2,-2,1,8,1,4,3
1576152549071140,-4,-1,-10,2,-2,2,-7,-1
1576152549071140,-7,5,-5,1,-1,-2,-8,-4
1576152549072138,-5,3,-7,-3,-3,-7,-6,3
1576152549072138,3,-3,5,0,-2,-5,1,-3
1576152549086121,5,1,8,-2,-2,2,4,-3
1576152549086121,-14,-3,8,-2,-8,2,2,0
1576152549086121,9,1,4,4,-3,5,4,7
1576152549086121,1,1,-4,-2,-3,3,-2,-9
1576152549108083,4,0,-2,-1,5,2,-3,5
1576152549108083,4,4,-2,-4,1,-2,-3,0
1576152549109046,6,-1,0,2,-1,-7,-1,2
1576152549109046,-12,-1,-11,-5,-3,-6,2,4
1576152549131043,-2,-6,-3,-3,-1,-3,2,7
1576152549131043,-2,-7,-1,-3,4,1,-3,-4
1576152549131043,0,-7,-1,-8,2,-1,-4,-3
1576152549131043,2,0,-3,2,-2,-2,-1,-1
1576152549146050,2,-2,-2,3,-5,0,-5,5
1576152549146050,5,1,3,4,-7,-2,-2,4
1576152549146940,-11,-5,3,7,-3,2,0,-10
1576152549146940,-9,-4,6,4,4,2,4,4
1576152549167918,-3,6,-3,3,3,1,7,-1
1576152549167918,3,-6,-2,0,1,-3,-3,-3
1576152549168883,10,2,-5,1,-6,-1,-5,9
1576152549168883,0,7,1,-1,-3,0,-8,-4
1576152549190920,-18,3,-6,-4,-3,3,0,-6
1576152549190920,-5,1,-8,-4,2,5,4,-1
1576152549191819,-4,1,-3,-3,6,2,7,-4
1576152549191819,9,-2,-2,1,2,1,1,5
1576152549205875,8,2,10,1,2,-5,-3,1
1576152549205875,6,-2,3,-4,-3,-9,-2,-7
1576152549206789,-31,0,-4,-7,0,-4,0,-7
1576152549206789,-12,-4,-2,-6,3,-3,1,3
1576152549228732,-22,-3,-1,3,-3,-1,-3,-3
1576152549228732,2,0,-4,3,-8,1,-3,-7
1576152549228732,13,0,5,4,-7,2,-6,-3
1576152549228732,13,0,-3,-2,-5,0,0,-3
1576152549250663,1,-2,-2,-3,4,-1,1,5
1576152549250663,-1,-3,1,0,-1,1,2,8
1576152549251672,2,0,-2,-3,2,0,-1,-4
1576152549251672,9,3,1,0,6,2,-1,2
1576152549265720,8,-3,-1,-5,-1,-2,1,-5
1576152549265720,7,-2,-2,-4,0,-3,1,0
1576152549266624,-2,3,1,7,1,-3,-4,-7
1576152549266624,7,5,4,0,-3,1,-3,5
1576152549288574,7,-4,1,-4,-1,-2,1,1
1576152549288574,0,3,-1,-2,0,2,2,-1
1576152549288574,6,1,2,-4,0,-5,5,20
1576152549288574,-7,-1,-8,2,-6,-4,1,-6
1576152549310521,0,-3,-2,1,-10,3,4,-4
1576152549310521,-4,-4,-5,-8,-2,1,-1,-8
1576152549311497,5,-4,-1,-6,2,1,-5,-3
1576152549311497,-2,4,5,1,0,-2,-4,1
1576152549325468,-1,1,5,0,-2,0,-2,3
1576152549325468,-13,-10,-5,-1,-3,0,0,1
1576152549326468,-8,-2,1,-4,-3,-1,2,-2
1576152549326468,-1,-2,-5,4,1,-1,-2,-4
1576152549348403,3,6,-3,5,6,-4,-8,-1
1576152549348403,7,8,0,8,6,0,-3,6
1576152549348403,-6,-5,-4,0,0,2,-8,-17
1576152549348403,0,-7,-1,-4,4,0,-5,-8
1576152549370437,-10,-1,-4,-5,2,1,1,2
1576152549370437,-8,-1,-3,2,-2,-5,-3,1
1576152549371341,-10,-3,1,2,-5,-7,-2,-14
1576152549371341,-20,1,1,1,-2,1,4,2
1576152549385302,-17,1,2,-3,-2,3,4,-8
1576152549385302,-12,-1,2,-1,3,3,4,0
1576152549386299,2,5,-1,1,-2,1,6,3
1576152549386299,18,0,1,-1,-8,-3,3,3
1576152549408249,14,-9,-11,1,-4,-7,-6,-12
1576152549408249,2,-1,-7,-1,0,-1,-2,-6
1576152549409235,13,-1,1,-4,0,-2,-6,-3
1576152549409235,12,-5,0,-8,0,0,-2,0
1576152549430229,19,5,4,-3,-2,-2,6,11
1576152549430229,6,-3,5,3,-4,-4,2,-16
1576152549431182,-6,-8,2,6,0,-4,-2,3
1576152549431182,-2,-2,-6,-3,5,-1,-1,3
1576152549445189,-9,-7,-5,2,3,2,-1,-5
1576152549445189,12,7,1,-4,2,4,0,2
1576152549446138,11,3,-6,-6,6,9,5,6
1576152549446138,5,3,4,-1,-1,-1,-4,1
1576152549468081,1,0,1,-4,-5,-4,-3,6
1576152549468081,-6,6,3,1,-6,-8,-4,4
1576152549469087,-10,4,0,2,-9,-2,-3,-10
1576152549469087,-9,-4,-1,1,-2,1,-1,-8
1576152549491017,-4,-2,1,-1,4,1,-1,-6
1576152549491017,1,-9,-3,3,6,5,3,4
1576152549491017,3,-9,-10,2,3,1,-2,1
1576152549491017,-6,-7,-9,3,-5,-1,-7,0
1576152549505984,2,-1,-3,0,-10,-6,-5,3
1576152549505984,7,5,2,-5,-9,-3,3,10
1576152549505984,-1,4,4,-4,-5,-8,7,8
1576152549505984,-8,8,4,-3,1,-6,7,-4
1576152549527955,6,-3,4,-5,7,0,6,5
1576152549527955,-11,-4,2,-3,5,2,-1,6
1576152549528924,-1,-9,-6,1,4,5,1,9
1576152549528924,0,-4,-2,4,4,7,-4,4
1576152549550954,0,7,2,3,4,1,-8,0
1576152549550954,-9,-1,1,3,-2,2,-9,-3
1576152549551857,-8,-7,1,2,-2,-3,-7,-6
1576152549551857,-6,1,-4,7,-10,-1,-1,-11
1576152549565817,-2,3,-1,7,-6,-1,-1,2
1576152549565817,1,-4,-3,-1,-1,-2,-5,-14
1576152549566815,-13,1,-1,-7,4,-1,-3,-4
1576152549566815,-5,-7,1,-11,1,-4,-2,-9
1576152549587763,-6,5,0,-8,1,-2,7,0
1576152549587763,4,8,-2,-4,-8,0,5,6
1576152549588761,5,8,-4,0,-6,3,1,-5
1576152549588761,6,-3,-2,-2,-6,1,2,7
1576152549610697,-1,-8,3,-7,1,7,-3,2
1576152549610697,4,-9,6,-4,3,0,-3,-7
1576152549611696,15,-1,-3,-1,2,-6,-2,4
1576152549611696,10,4,-1,2,5,-7,-3,0
1576152549625700,-1,0,-5,-3,2,-5,1,-1
1576152549625700,-6,4,-3,-2,-1,-2,1,2
1576152549626662,-5,4,2,-1,-1,1,-3,-5
1576152549626662,-3,2,2,0,2,-1,-3,5
1576152549648596,3,5,3,4,-1,-5,-2,8
1576152549648596,-3,-4,-2,4,-4,0,-5,5
1576152549648596,-7,2,-5,13,-9,5,0,-9
1576152549648596,7,-1,-4,6,-4,1,5,3
1576152549670540,0,-6,-1,-3,2,-1,4,-3
1576152549670540,4,1,10,-9,6,-4,-5,0
1576152549671568,1,-3,5,-5,2,-2,-3,4
1576152549671568,1,-5,-2,-3,-3,4,-1,-1
1576152549686055,5,-4,-4,4,-4,2,-2,0
1576152549686055,-6,-2,-5,-1,-5,-3,2,0
1576152549686055,-12,0,3,-12,-3,-4,-3,1
1576152549686055,-9,4,-1,-5,-8,-3,0,4
1576152549708006,4,-1,-6,3,-1,0,3,-1
1576152549708006,3,-1,-7,6,6,2,3,5
1576152549708957,-9,-3,-2,2,7,-2,1,-13
1576152549708957,4,3,-2,-9,0,5,-2,-1
1576152549730935,-7,-5,3,-10,-6,5,-8,2
1576152549730935,-1,-8,5,-3,-4,2,-7,-3
1576152549731896,10,-1,2,-2,-6,-2,1,7
1576152549731896,3,-2,0,2,0,-6,1,-3
1576152549744865,-5,-5,-6,7,1,-5,-2,-8
1576152549744865,-1,0,-7,-2,1,-3,1,-2
1576152549752939,-1,3,-6,-3,0,-2,1,1
1576152549752939,-6,-3,-3,1,0,3,1,0
1576152549767909,-10,3,-5,-2,-1,2,2,-4
1576152549767909,-11,4,0,5,-3,-4,-2,-1
1576152549768803,-2,0,0,1,-1,-3,-1,4
1576152549768803,8,-8,0,-1,2,-2,-2,-1
1576152549790648,9,-8,2,0,1,2,-7,0
1576152549790648,7,2,6,-2,-3,4,-3,3
1576152549791553,0,1,5,-3,-4,1,-2,1
1576152549791553,-10,-3,0,-3,1,-4,3,1
1576152549805508,-5,-7,0,-1,-4,1,2,-4
1576152549805508,1,-6,-3,-1,2,-2,-2,-1
1576152549813487,4,-1,-1,5,7,-3,0,-4
1576152549813487,0,9,-5,2,7,-3,-2,1
1576152549828460,4,7,-2,-8,2,-2,-4,0
1576152549828460,-2,2,3,-5,1,2,-1,-4
1576152549828460,2,-1,2,-3,-4,5,1,6
1576152549828460,4,-4,1,5,-3,5,9,10
1576152549850388,-18,0,-5,7,-7,-3,0,-18
1576152549850388,-15,-3,-10,0,-5,-8,-2,-20
1576152549851387,-5,-3,-7,3,2,-1,-3,-4
1576152549851387,-3,1,-4,-6,-1,-4,-11,-3
1576152549865368,8,0,7,-3,3,-3,-4,-2
1576152549865368,3,-6,5,0,-3,-4,-1,-1
1576152549873323,7,-3,3,2,-5,-4,-4,3
1576152549873323,2,-4,4,5,-6,-1,0,2
1576152549887778,6,3,-3,3,-6,0,0,1
1576152549887778,3,0,-3,4,3,1,4,0
1576152549888776,-1,-2,-2,3,1,1,5,1
1576152549888776,-3,-2,-3,-7,3,1,0,6
1576152549910769,-10,2,-7,-1,5,-5,2,6
1576152549910769,-28,-4,-8,-1,1,-1,0,-25
1576152549911716,-5,-1,-2,-8,-2,-5,1,-4
1576152549911716,-5,-4,-2,-1,-2,-2,-4,-6
1576152549924681,2,-3,0,-5,1,0,-8,2
1576152549924681,13,-5,4,-4,4,4,-2,12
1576152549932709,7,5,0,-6,0,2,-1,5
1576152549932709,-6,7,0,-1,0,-3,0,-3
1576152549948618,6,0,-5,0,-5,2,2,0
1576152549948618,9,4,3,5,-6,0,2,2
1576152549948618,3,-5,4,7,-7,-6,2,-2
1576152549948618,0,0,10,-4,-4,-3,-2,-3
1576152549970648,-10,-1,4,0,3,1,-5,4
1576152549970648,2,0,-5,-3,-3,4,-2,3
1576152549971564,0,-3,-6,-7,3,0,0,-2
1576152549971564,0,3,-9,3,-1,-1,2,-3
1576152549985524,2,-4,0,2,1,1,-1,-10
1576152549985524,-10,6,3,5,-3,1,-6,-6
1576152549993535,-8,2,1,-1,-4,6,-3,-1
1576152549993535,-3,-7,-2,-6,3,7,-4,4
1576152550008473,2,-3,-3,0,0,10,0,-4
1576152550008473,14,3,-7,-1,2,7,-1,9
1576152550008473,10,-8,-6,-3,7,4,0,2
1576152550008473,6,-2,6,-5,6,-5,0,2
1576152550030500,3,0,3,-5,2,-16,-1,4
1576152550030500,-3,-2,1,-2,0,-12,-2,4
1576152550031405,-5,-1,4,1,-3,-11,3,-4
1576152550031405,-3,-8,0,1,-8,-1,-1,-12
1576152550045413,-4,4,2,0,-12,2,3,-3
1576152550045413,-2,3,0,-2,-4,0,-1,-12
1576152550053433,-11,1,-5,7,1,2,-3,-1
1576152550053433,4,1,-6,3,5,0,0,0
1576152550068298,0,3,-8,-2,-2,-7,2,-1
1576152550068298,-4,4,0,-6,-3,-3,6,0
1576152550069295,-3,2,3,0,-3,-1,1,-2
1576152550069295,0,-1,10,7,-4,-2,-3,-2
1576152550090238,-7,-1,6,-2,2,-1,-3,2
1576152550090238,6,-9,-4,-6,0,-5,4,7
1576152550091235,4,-8,-6,0,2,-5,-2,3
1576152550091235,6,1,-6,-2,2,-6,-2,4
1576152550105315,-7,-6,4,1,7,-5,-3,-2
1576152550105315,-4,-9,-1,-3,0,1,-2,-4
1576152550113280,-2,-1,-5,-5,0,5,1,-5
1576152550113280,0,4,-9,0,0,3,0,-8
1576152550128149,-2,5,-4,0,0,5,0,-16
1576152550128149,-3,4,-1,-1,-2,2,3,-1
1576152550129135,-3,2,2,-4,-10,-4,0,0
1576152550129135,-7,5,3,-5,-7,-7,-2,2
1576152550151080,0,2,-3,0,0,-8,-1,11
1576152550151080,3,-3,4,3,4,-2,-2,-2
1576152550151080,4,-6,2,6,6,1,2,-3
1576152550151080,-3,-1,-6,3,-3,0,2,-5
1576152550174052,6,-8,0,5,-6,4,0,6
1576152550174052,-1,-4,2,2,-9,2,-1,3
1576152550175017,2,-3,1,1,-3,4,-6,0
1576152550175017,0,0,3,-1,3,4,2,3
1576152550188237,5,9,-6,-6,4,-4,-3,-8
1576152550188237,5,-6,1,0,5,-8,-7,4
1576152550189233,-1,-2,0,0,-2,-5,-3,-4
1576152550189233,-1,-6,-1,1,2,-4,2,-3
1576152550211173,1,0,-2,-1,2,-1,3,-1
1576152550211173,0,5,-1,-10,0,8,5,-5
1576152550211173,-9,10,1,-5,-1,8,1,-1
1576152550211173,-12,3,-4,-2,-2,5,-5,-1
1576152550234234,0,-2,0,1,2,-1,-4,-1
1576152550234234,2,0,-4,4,-2,-6,-6,1
1576152550234234,3,0,7,-3,-1,-3,-5,3
1576152550234234,-4,7,0,-6,-3,0,2,-2
1576152550248074,-3,5,-1,-4,-1,-2,6,5
1576152550248074,-3,4,-2,1,4,-6,0,-2
1576152550249071,-2,-1,-12,-7,4,-5,-1,-1
1576152550249071,-3,-6,-3,2,0,-1,-4,-1
1576152550271071,-3,-11,2,1,-8,0,-5,-11
1576152550271071,-5,-4,-2,7,-7,6,-4,-9
1576152550271071,1,-1,-1,6,-2,0,2,9
1576152550271071,3,-5,4,-1,-1,-3,3,3
1576152550293054,-5,-9,0,-7,2,-1,6,8
1576152550293054,0,-3,-1,-2,0,0,6,2
1576152550293958,4,3,-7,-1,0,2,-1,-1
1576152550293958,-14,-1,-11,-4,-4,-1,-5,-7
1576152550307962,0,0,-4,3,-1,0,-3,1
1576152550307962,2,-4,0,-1,-2,-1,-1,0
1576152550308916,2,-2,5,-4,-4,-2,4,-3
1576152550308916,7,3,4,0,4,-1,6,2
1576152550338877,-5,3,2,-5,3,1,-6,0
1576152550338877,-9,5,2,-1,6,2,-12,3
1576152550339838,-4,0,-7,-4,-2,-2,-11,-10
1576152550339838,6,-2,-1,-2,-3,1,-2,-3
1576152550352798,1,-2,-2,1,-2,1,-1,8
1576152550352798,4,1,10,4,0,1,4,14
1576152550353803,-6,-5,7,0,1,-1,-2,-3
1576152550353803,-1,-8,2,-1,-3,-4,3,-3
1576152550367792,4,2,-2,-5,-6,1,7,2
1576152550367792,7,3,-9,-6,-2,-2,-1,1
1576152550368759,12,2,-1,1,0,-2,0,3
1576152550368759,3,3,5,4,2,-1,-5,0
1576152550390788,7,2,1,1,-1,-1,-6,-2
1576152550390788,-11,-7,-7,-2,1,-7,-5,-8
1576152550391700,-5,-5,-5,1,6,-2,2,0
1576152550391700,-12,-3,-6,1,0,2,-1,-1
1576152550413648,-1,3,2,4,-2,9,1,5
1576152550413648,-6,4,-2,-2,-5,-2,-3,-3
1576152550413648,-2,-1,0,-2,-7,-4,-2,1
1576152550413648,4,-3,-1,-2,-7,0,-4,-6
1576152550428595,1,-4,4,1,2,1,0,-5
1576152550428595,4,-5,2,0,6,1,10,1
1576152550428595,-8,4,-8,-2,-3,-3,6,1
1576152550428595,-6,6,1,-8,-3,-4,0,4
1576152550450575,0,3,-4,-4,-10,-2,1,-7
1576152550450575,3,3,-6,-7,-8,0,-2,-2
1576152550451538,6,-6,2,5,1,1,-5,-2
1576152550451538,-8,-7,3,2,2,2,-4,-4
1576152550473510,-1,-2,0,-1,7,1,-2,7
1576152550473510,-4,7,3,5,6,2,-2,-1
1576152550473510,2,0,-4,-2,3,3,-2,-3
1576152550473510,6,-1,-2,2,3,1,1,5
1576152550488482,6,-3,0,4,2,-6,-3,-5
1576152550488482,4,-4,5,7,0,3,1,-5
1576152550488482,-7,-4,-1,1,-6,5,0,-10
1576152550488482,-1,-1,0,-5,-7,3,1,-13
1576152550510477,-9,-3,-2,-4,-7,-6,0,4
1576152550510477,-7,-1,-3,-5,-6,-7,-4,4
1576152550511378,-13,6,4,-5,3,-5,-9,-4
1576152550511378,9,4,-9,-6,4,-5,0,4
1576152550533415,-5,9,-4,-7,-1,-4,2,-6
1576152550533415,11,0,-3,-7,0,0,1,2
1576152550534322,1,-5,-4,-3,2,4,-3,2
1576152550534322,-6,-9,0,1,1,7,2,3
1576152550548314,-2,-7,5,4,1,-1,-1,-3
1576152550548314,3,0,0,8,-4,-1,2,-12
1576152550549271,3,1,3,3,-4,-6,1,1
1576152550549271,6,2,5,0,4,-7,0,-2
1576152550570221,2,-2,-5,-1,4,4,-1,-3
1576152550570221,1,1,-1,0,6,7,2,0
1576152550571214,-2,-1,-4,-2,1,1,2,-3
1576152550571214,-3,-6,-3,-3,-5,-6,-5,-6
1576152550593251,-5,-5,-3,1,-8,-8,1,-1
1576152550593251,1,1,0,-4,-3,-7,-3,4
1576152550594163,3,2,4,-3,-3,-4,-2,8
1576152550594163,-2,9,1,2,-1,1,-2,0
1576152550608176,-2,2,0,-2,1,6,-8,3
1576152550608176,-6,3,-5,1,-1,7,-8,2
1576152550609111,-10,-2,1,3,2,4,-5,-6
1576152550609111,5,1,3,1,1,-3,2,5
1576152550631101,-1,1,-1,2,-1,-1,9,-3
1576152550631101,0,-6,-3,-1,-1,-2,8,1
1576152550631101,5,-10,-8,-11,-5,-1,10,3
1576152550631101,-2,1,-4,-3,-1,1,5,6
1576152550653093,6,1,1,-2,-1,-1,-2,-4
1576152550653093,5,4,2,5,-5,0,-6,-5
1576152550653999,8,3,6,7,0,-2,-6,3
1576152550653999,-7,0,4,-3,0,-2,-10,-2
1576152550667996,3,-6,-1,-1,-2,-1,-2,-3
1576152550667996,-15,-4,-5,0,0,2,0,1
1576152550668958,-5,-3,-1,1,-3,-4,-1,4
1576152550668958,-7,2,-4,5,-3,-5,-7,-5
1576152550690896,-9,0,-3,-3,-1,-5,-7,-6
1576152550690896,-11,-3,-2,-5,-2,-6,-5,-2
1576152550691889,-4,7,-6,0,5,-1,-1,1
1576152550691889,8,-1,-7,2,4,-1,3,4
1576152550712933,9,-4,-7,-6,-1,3,7,6
1576152550712933,6,-10,-6,-3,5,3,2,-5
1576152550713831,-9,-4,2,-9,-1,2,1,-9
1576152550713831,1,3,5,-4,-2,2,2,-3
1576152550727800,1,-2,3,-4,-4,-1,-1,-2
1576152550727800,1,-7,-1,-3,-6,-3,-3,1
1576152550728796,-2,-4,6,-3,-4,0,-12,2
1576152550728796,-1,-6,4,-1,-5,0,-6,-2
1576152550750832,-4,-2,3,2,0,1,2,1
1576152550750832,3,6,1,0,1,2,5,0
1576152550751741,-6,8,-6,8,4,4,5,-6
1576152550751741,0,-9,-6,4,4,3,3,1
1576152550773677,2,1,0,3,4,-5,1,2
1576152550773677,4,3,-1,-6,-2,-11,0,4
1576152550773677,10,-1,1,-8,0,-7,-1,2
1576152550773677,2,-5,-3,-5,2,-1,-5,6
1576152550788632,-5,-5,2,3,2,2,-3,0
1576152550788632,-5,5,-4,1,1,2,-2,-7
1576152550788632,0,6,-4,0,-9,4,8,-7
1576152550788632,-4,4,1,-6,-10,3,4,-4
1576152550810603,4,-1,1,-7,-6,0,-7,2
1576152550810603,-3,5,-1,-2,-5,0,-7,3
1576152550811572,5,-3,-8,2,3,-2,4,2
1576152550811572,-3,-4,1,-1,2,3,3,-9
1576152550833513,-2,-7,2,0,0,0,-1,-5
1576152550833513,-3,-5,4,0,-3,-3,-4,-12
1576152550833513,-2,-5,-3,-4,-1,-6,-6,7
1576152550833513,0,-5,-5,-4,-1,-1,-2,2
1576152550848479,-2,-2,-2,1,1,1,-2,4
1576152550848479,1,0,-2,4,-1,-2,-3,-3
1576152550848479,-10,7,6,3,-3,-2,-1,0
1576152550848479,0,6,2,1,-5,0,-1,10
1576152550870512,-5,5,0,-4,-1,-2,-2,-6
1576152550870512,4,-4,1,-6,5,-2,3,4
1576152550871417,4,-4,1,-1,6,0,0,-4
1576152550871417,0,-7,2,3,7,-2,-2,2
1576152550893449,-7,6,0,6,-5,1,-6,-8
1576152550893449,10,3,-3,5,-4,-1,1,5
1576152550894349,-3,-4,-8,0,-5,-7,1,-17
1576152550894349,10,-3,-4,-3,0,-4,5,-5
1576152550907413,1,-6,-5,-5,6,0,6,-2
1576152550907413,-1,-4,4,4,2,2,4,8
1576152550916290,-5,4,3,1,-1,6,0,4
1576152550916290,2,3,-5,-1,-3,-2,-3,-4
1576152550930255,9,3,-6,1,-1,0,-2,3
1576152550930255,-10,0,-4,-6,-9,-3,-2,-1
1576152550931255,-8,-9,-1,4,-4,0,-1,-2
1576152550931255,-12,4,0,5,-1,0,-6,-1
1576152550953291,-2,7,2,-5,-1,-9,-1,4
1576152550953291,-3,1,3,-7,2,-4,-1,0
1576152550954206,7,7,4,-9,1,-1,-4,2
1576152550954206,-3,-2,5,-3,4,1,-1,-3
1576152550976128,-1,-11,-5,-3,2,3,1,-3
1576152550976128,-4,-10,-1,-1,2,2,-4,-10
1576152550977135,6,-6,-4,1,-4,2,0,4
1576152550977135,5,8,0,3,-5,4,-1,1
1576152550991129,9,3,-5,5,-4,0,1,9
1576152550991129,6,-2,5,3,1,1,-1,3
1576152550991129,-2,-5,6,7,3,-2,1,-3
1576152550991129,-9,-3,-5,0,0,-8,1,-3
1576152551013128,-11,0,-4,-6,-5,-4,0,-5
1576152551013128,-7,-2,-9,-7,1,1,4,8
1576152551014037,10,4,-4,-2,-1,1,1,-3
1576152551014037,-4,-3,6,-2,-4,-1,-4,-4
1576152551027991,5,1,1,-4,-8,3,-1,-3
1576152551027991,1,4,0,-3,-2,3,-5,-3
1576152551036069,1,-1,-8,-3,-2,-8,-3,-1
1576152551036069,-6,2,-6,-4,0,-4,-2,-1
1576152551051035,-13,0,0,-3,3,-6,-8,-5
1576152551051035,-8,0,2,3,-1,0,-8,-2
1576152551051929,1,0,-1,3,0,3,-1,4
1576152551051929,6,-10,2,-4,6,4,5,-1
1576152551072872,0,-2,-1,-5,4,2,4,0
1576152551072872,0,8,-1,2,1,1,4,-1
1576152551073872,2,-1,2,0,1,1,-1,6
1576152551073872,-1,1,-4,3,-1,3,-3,0
1576152551087929,5,-2,-2,2,3,4,-5,0
1576152551087929,-4,-1,-7,2,-2,-4,-1,3
1576152551095907,-10,-1,-3,4,-3,-8,-1,-4
1576152551095907,7,-4,-1,1,-6,-7,7,2
1576152551110865,-15,-4,2,0,-9,-2,2,4
1576152551110865,8,-4,3,0,-9,-2,4,-2
1576152551111767,4,2,2,-9,-2,-1,-1,-7
1576152551111767,5,1,-5,-6,3,1,-3,0
1576152551133709,4,4,-2,0,6,-2,-2,6
1576152551133709,5,-3,-1,-3,1,5,-6,0
1576152551133709,0,-8,6,-3,0,6,-8,-14
1576152551133709,-4,-7,7,2,1,-1,-3,-1
1576152551147675,-7,-4,5,1,-2,-5,1,7
1576152551147675,-3,1,-7,-5,3,-2,1,1
1576152551155747,3,6,-4,-3,-3,0,5,3
1576152551155747,-4,8,-10,-4,-1,-1,-2,0
1576152551170709,-6,0,-8,-4,0,-1,0,-3
1576152551170709,6,0,-6,-2,2,0,6,0
1576152551171616,-1,-4,-5,1,1,-5,0,5
1576152551171616,6,-4,5,2,-2,0,-2,-6
1576152551193588,3,-2,1,11,-1,-1,-6,-4
1576152551193588,2,-1,9,2,-4,3,-2,8
1576152551193588,1,-3,0,2,-2,5,-4,2
1576152551193588,3,-3,-6,1,-1,4,-7,-6
1576152551207596,-11,-3,-7,-4,0,-1,-2,-10
1576152551207596,-5,5,-1,0,-2,-5,-1,-1
1576152551215589,-6,1,-2,-4,-5,-7,0,-9
1576152551215589,-3,3,2,1,-5,-4,3,4
1576152551230551,5,-2,1,0,5,-3,-1,0
1576152551230551,1,-2,3,-2,-3,-8,-3,-7
1576152551231455,1,3,6,1,-1,-1,2,3
1576152551231455,4,0,6,-4,-6,2,-1,-3
1576152551253498,1,4,2,-4,-5,0,2,-12
1576152551253498,-9,-7,-6,-4,-2,-2,-1,-4
1576152551254388,12,-6,-6,-8,-1,-1,-3,10
1576152551254388,3,1,-7,-3,5,-1,-3,-1
1576152551277325,7,-4,-1,-2,0,2,-3,4
1576152551277325,-3,-6,-4,4,6,3,-3,0
1576152551277325,-18,-2,-3,0,3,-1,-5,-13
1576152551277325,-9,-4,-2,2,-1,-6,-3,-3
1576152551290828,7,1,2,3,-1,-4,2,-1
1576152551290828,-7,0,6,5,-4,4,-1,-11
1576152551291724,-10,2,2,4,-7,5,7,7
1576152551291724,-17,-2,-2,-3,-2,-3,5,-3
1576152551312672,6,-2,-4,-5,-6,-3,-2,-3
1576152551312672,9,-8,0,0,1,-3,0,4
1576152551313663,5,6,3,-2,4,0,-1,6
1576152551313663,0,9,-7,-5,4,4,0,1
1576152551336713,-10,2,-11,2,3,4,1,8
1576152551336713,-7,-4,-6,-3,-5,0,0,-10
1576152551337600,4,-3,-3,1,-1,-3,4,6
1576152551337600,4,-7,-3,1,3,-4,-1,-1
1576152551350665,6,-3,9,0,8,-1,-3,7
1576152551350665,6,-4,9,-9,1,-4,-8,-6
1576152551351571,1,-3,2,-4,-9,0,-1,-5
1576152551351571,8,7,2,2,-16,3,2,1
1576152551373548,0,5,-4,-2,-9,0,0,-6
1576152551373548,-10,2,0,2,-1,2,0,0
1576152551373548,-10,-6,-8,-3,4,-4,-6,-6
1576152551373548,-2,-4,-2,-3,9,-1,2,3
1576152551396655,-6,0,-1,2,1,0,5,2
1576152551396655,7,1,1,0,5,-1,4,5
1576152551397559,1,1,1,2,6,3,3,0
1576152551397559,-1,0,0,3,-2,-3,-2,-3
1576152551410607,-3,-1,4,5,-1,-4,1,-6
1576152551410607,2,-2,0,-2,-6,-6,-3,-2
1576152551411522,2,0,-7,-3,-3,0,-6,-1
1576152551411522,-1,1,-2,-7,-3,0,-4,1
1576152551433553,-8,-2,1,1,-3,4,-4,-3
1576152551433553,3,-3,-8,-1,3,1,-4,-7
1576152551433553,7,-5,0,1,-2,-1,-1,-1
1576152551433553,-6,-6,-1,2,-6,-2,1,1
1576152551455498,7,6,4,1,-5,-2,0,8
1576152551455498,1,5,-2,0,-1,-5,1,4
1576152551456400,-1,2,-5,1,1,-3,0,2
1576152551456400,-7,8,-6,-5,-1,0,-4,1
1576152551470452,2,-2,-10,-4,-6,3,5,-1
1576152551470452,-18,-12,-2,2,-6,1,2,-2
1576152551471358,0,-6,5,1,-1,-7,-5,-3
1576152551471358,-2,-4,7,7,5,-1,1,-3
1576152551493396,-3,-1,-1,-6,3,0,-7,-4
1576152551493396,-2,2,-3,-7,4,-1,-2,-12
1576152551494293,-6,2,-1,4,1,-1,8,-6
1576152551494293,-2,-5,6,4,1,-1,10,3
1576152551516234,-6,-5,5,-7,0,-3,-1,-3
1576152551516234,3,3,4,-5,-5,5,0,3
1576152551516234,-3,-6,1,-3,-3,5,-9,4
1576152551516234,7,2,-3,3,-3,2,-5,-5
1576152551531194,11,6,-6,7,2,-2,-4,-8
1576152551531194,6,4,-5,2,4,-6,-3,7
1576152551531194,0,2,-1,2,0,-2,-3,-4
1576152551531194,5,-4,-2,0,-4,1,-2,-1
1576152551561217,-10,-14,2,-3,-3,-2,-1,-1
1576152551561217,4,1,3,2,2,-3,-2,3
1576152551562115,-9,4,1,-5,2,-3,-2,1
1576152551562115,-4,-2,-1,1,2,-4,-2,-4
1576152551576073,1,1,-4,0,-4,-2,0,9
1576152551576073,-2,-4,-2,-1,-2,-4,2,-3
1576152551576073,5,-3,-1,-1,-3,0,3,2
1576152551576073,-4,2,0,-3,-4,-1,1,-3
1576152551591102,3,-2,2,0,-1,2,7,1
1576152551591102,4,8,1,1,-2,3,2,3
1576152551591102,6,4,-9,-3,0,2,2,1
1576152551591102,-18,-3,-2,-5,3,-4,-6,-5
1576152551613096,-6,1,2,-7,-2,-1,-2,-4
1576152551613096,-1,-4,0,-5,-1,4,0,-5
1576152551613999,0,7,0,3,-4,4,2,-3
1576152551613999,3,-3,-5,-2,-1,-2,-6,0
1576152551636048,-3,2,0,2,2,-9,-5,-9
1576152551636048,0,-3,-2,0,3,-6,-8,-8
1576152551636048,-5,-5,-1,-1,-2,3,-3,-1
1576152551636048,0,-5,-9,4,-4,6,0,5
1576152551650999,1,0,-1,3,-4,3,0,-7
1576152551650999,2,-1,0,3,-5,0,6,5
1576152551651892,-4,-6,5,-5,0,-6,3,-1
1576152551651892,-2,5,4,-8,4,-6,0,1
1576152551672936,-4,0,3,-6,0,-4,-4,6
1576152551672936,-1,3,2,-1,-3,-4,-2,5
1576152551673841,-1,-3,3,2,0,-5,0,-6
1576152551673841,-2,-7,-3,1,1,-4,2,-2
1576152551695872,-14,-8,-8,9,4,1,4,-2
1576152551695872,6,-6,-6,1,1,2,-1,-6
1576152551696826,2,0,-6,-3,-4,2,1,5
1576152551696826,14,4,4,-9,-5,5,1,1
1576152551710889,2,1,5,-5,9,1,-2,-7
1576152551710889,-1,1,0,-4,0,1,0,3
1576152551711786,-1,1,3,5,-1,-1,0,-2
1576152551711786,2,0,0,5,0,-4,-2,4
1576152551732834,3,3,-5,2,-1,-4,-2,1
1576152551732834,-5,6,-1,-2,2,-7,-3,10
1576152551733727,3,-1,2,-8,0,-1,-9,-5
1576152551733727,0,-2,3,-1,-4,1,-7,-1
1576152551755773,6,-4,2,0,-2,1,-4,2
1576152551755773,-8,-5,-9,4,0,7,-2,-2
1576152551756665,-7,-2,-11,1,-1,-1,0,-14
1576152551756665,0,-3,3,0,-5,0,3,-1
1576152551770732,0,-4,2,-5,-10,-6,3,-10
1576152551770732,-4,-1,2,0,-6,-5,2,0
1576152551771626,-8,-2,2,-1,0,-2,3,4
1576152551771626,6,-7,-4,-4,0,-3,5,5
1576152551793571,6,1,-3,0,3,-1,-3,0
1576152551793571,-3,7,1,2,2,4,-3,-3
1576152551793571,6,6,-7,7,5,-3,-2,7
1576152551793571,-8,7,-9,3,4,2,-5,-7
1576152551815511,1,2,-3,-2,-4,4,-2,9
1576152551815511,0,-6,7,-4,-3,3,0,-1
1576152551816505,-3,-5,5,0,-3,2,-5,-3
1576152551816505,-3,3,4,3,1,-6,2,-1
1576152551830571,0,-4,-3,0,2,-4,1,4
1576152551830571,-2,-1,-3,-1,1,-4,1,-1
1576152551831470,6,-1,1,-12,0,0,-2,1
1576152551831470,-3,1,-2,-9,3,2,0,6
1576152551853512,-1,1,-4,0,-1,0,1,5
1576152551853512,4,5,-3,0,-3,-5,3,3
1576152551854405,1,5,1,3,-5,-4,5,-7
1576152551854405,0,-1,7,10,-7,0,3,-12
1576152551875351,-6,-2,-2,1,-2,0,-4,-4
1576152551875351,-5,-5,-8,-1,-1,-5,-6,-4
1576152551876348,-4,-5,-5,-8,1,-3,-4,-2
1576152551876348,2,-4,5,-9,5,1,-1,2
1576152551890315,1,-2,3,-1,8,0,3,3
1576152551890315,6,0,-2,1,2,1,4,10
1576152551891309,-4,3,-2,2,0,-1,5,-4
1576152551891309,-3,-5,-6,2,-7,-4,-1,-7
1576152551913353,-1,1,0,-2,-7,-4,-5,-3
1576152551913353,-1,-3,-1,-6,-1,-1,-6,1
1576152551914245,9,4,-3,-1,-3,5,-5,8
1576152551914245,-2,-6,-2,-1,-3,9,1,1
1576152551936186,-2,-2,-2,4,-3,5,-1,-6
1576152551936186,-5,0,0,6,-1,0,1,-3
1576152551936186,-1,-4,2,1,0,-3,-3,6
1576152551936186,-2,-3,5,0,0,-4,-4,-2
1576152551951181,5,3,2,-5,3,0,-4,2
1576152551951181,-11,-1,2,-2,1,-5,-2,-13
1576152551951181,-8,0,-5,0,-5,-5,3,0
1576152551951181,-4,5,-11,-2,-7,-1,2,5
1576152551973143,-10,0,-6,-1,-1,-2,3,-7
1576152551973143,-2,-3,0,-3,0,2,-7,-9
1576152551974093,-4,-17,11,-2,1,-1,-4,-7
1576152551974093,11,-3,5,-4,-3,-4,-3,8
1576152551995586,5,-4,2,-7,-3,1,-4,-7
1576152551995586,15,9,-6,-3,1,-1,0,1
1576152551996554,5,11,-6,4,5,1,0,3
1576152551996554,2,4,-2,-2,2,-3,1,-3
1576152552010517,-4,3,-1,4,3,-4,5,7
1576152552010517,-10,-9,2,2,-2,-1,-2,2
1576152552018513,5,-8,-1,5,-5,0,-5,5
1576152552018513,10,-2,-8,1,-1,1,0,2
1576152552033490,-9,-6,-2,-2,4,1,1,-13
1576152552033490,-1,-8,1,-7,-2,-3,0,-8
1576152552033490,-2,1,-6,-9,-4,-2,1,2
1576152552033490,-5,1,-3,-5,1,-4,-3,-1
1576152552055488,0,-3,-4,-2,-7,-4,-3,5
1576152552055488,-5,-4,2,1,-3,3,1,1
1576152552056390,-7,6,10,-3,7,1,-1,1
1576152552056390,-7,4,10,-3,3,-1,1,-10
1576152552070350,2,2,7,-2,0,2,2,-2
1576152552070350,2,0,0,1,-8,0,4,0
1576152552078333,4,0,-8,4,-8,0,1,-4
1576152552078333,-1,-1,-4,2,-2,3,-3,-6
1576152552092751,3,9,-4,1,-1,0,-5,1
1576152552092751,4,1,-3,2,6,-3,-5,4
1576152552093705,0,0,-8,1,6,-6,-3,0
1576152552093705,-6,-8,0,4,1,-2,0,2
1576152552115747,5,-2,5,0,-4,0,5,7
1576152552115747,0,0,5,0,-3,4,2,-3
1576152552116652,-2,-6,-1,-1,-7,0,-1,4
1576152552116652,-3,-6,-2,-3,-2,0,-4,-5
1576152552129655,-3,-2,-1,-8,1,2,-1,-5
1576152552129655,2,7,-4,-7,-5,0,-1,-1
1576152552138588,0,-2,-2,-9,1,-3,-1,-2
1576152552138588,-7,-6,-2,-1,3,-3,-5,-2
1576152552153587,-8,-2,-4,3,3,-1,-2,-6
1576152552153587,-3,2,2,-1,1,-4,3,-4
1576152552153587,10,7,0,0,1,-2,5,-2
1576152552153587,2,7,-2,-1,0,-4,2,3
1576152552175491,4,1,-1,0,3,-5,-1,3
1576152552175491,-1,-5,2,2,-1,3,-3,3
1576152552176492,4,-3,2,-6,-3,5,-2,3
1576152552176492,2,2,-2,4,-4,1,-2,-1
1576152552189962,-4,-4,-6,5,-2,-1,-1,-3
1576152552189962,-1,-8,-3,-1,-2,-4,-3,-5
1576152552197940,3,0,5,-1,-5,1,1,-4
1576152552197940,1,1,-1,0,0,1,4,5
1576152552212903,-2,2,-4,3,-1,1,0,7
1576152552212903,-7,7,-1,2,3,1,1,10
1576152552213904,-12,-4,3,-2,5,2,-1,-2
1576152552213904,-12,-4,6,-4,-2,2,-4,0
1576152552235945,2,-6,2,-1,-6,-5,-2,-4
1576152552235945,-4,-9,1,0,-2,-3,-6,-9
1576152552236837,-2,-3,-6,1,-5,-5,-4,-4
1576152552236837,2,2,-10,0,3,2,-4,-3
1576152552249902,7,2,-8,3,5,3,0,0
1576152552249902,2,7,-4,4,0,2,2,2
1576152552257793,4,1,1,-3,-2,2,1,-2
1576152552257793,5,-2,7,-3,-6,5,7,-3
1576152552272842,0,-9,5,-5,-4,-2,-1,-8
1576152552272842,12,-1,5,2,0,-1,-2,1
1576152552273743,2,-2,-7,-1,-1,1,-5,7
1576152552273743,-3,-1,-6,-5,-1,-5,-8,0
1576152552295782,-1,4,-2,-1,3,-4,-4,3
1576152552295782,-10,4,-3,0,4,-3,2,-2
1576152552296686,-6,1,-2,-1,-1,-4,5,-4
1576152552296686,-3,4,1,0,0,-3,0,-5
1576152552318619,5,-2,-3,1,-4,1,-3,8
1576152552318619,2,-9,0,3,-5,-1,-3,-3
1576152552319616,0,-5,6,2,0,-2,5,-4
1576152552319616,4,0,4,-2,5,-3,6,2
1576152552333580,3,-2,1,-3,2,-4,1,4
1576152552333580,1,7,-11,-2,5,5,-2,1
1576152552333580,-9,-3,-5,-3,-3,3,-8,-3
1576152552333580,3,-3,0,-3,-3,-2,-8,2
1576152552355619,-7,3,8,-9,-7,-1,-5,2
1576152552355619,-1,2,1,-5,-1,1,-1,6
1576152552356526,-2,-2,2,4,-1,2,5,-1
1576152552356526,-3,-2,-6,1,-3,1,8,-1
1576152552378469,0,-3,-9,-1,0,0,2,-5
1576152552378469,-6,-5,-7,-2,-2,0,-1,-6
1576152552379459,-9,10,-4,-1,1,1,-2,-2
1576152552379459,-1,1,-1,-4,1,-4,1,0
1576152552393423,2,3,5,-4,-2,-2,0,5
1576152552393423,-1,-2,3,-3,-6,-3,-7,-11
1576152552394417,-1,1,-3,4,2,-6,-10,-6
1576152552394417,4,0,0,8,2,0,-1,-2
1576152552415363,1,-5,3,4,-6,1,2,-7
1576152552415363,-5,-4,0,1,-7,0,4,1
1576152552416363,-4,-5,2,6,-6,-3,3,-6
1576152552416363,-14,-1,-5,0,-6,1,4,-4
1576152552439296,9,-3,1,-4,3,6,-3,-6
1576152552439296,9,-4,7,-3,4,3,-3,5
1576152552439296,-1,1,-2,-5,2,-1,-6,2
1576152552439296,-5,1,-6,-1,4,-3,-2,3
1576152552453359,-4,6,-4,0,1,-1,-2,-2
1576152552453359,-3,-4,-3,0,0,0,2,-6
1576152552454272,-12,-5,-3,-1,1,-3,3,0
1576152552454272,-2,-3,-5,4,-2,-5,2,-19
1576152552475253,-9,1,-10,-1,-2,-3,-3,-4
1576152552475253,2,6,-1,-5,2,-5,-4,4
1576152552476199,1,1,1,-8,6,-3,-5,2
1576152552476199,5,-1,7,0,5,1,-6,6
1576152552499139,-2,-1,0,-4,4,-1,-2,4
1576152552499139,-4,0,-3,-1,-2,-3,1,-2
1576152552500137,5,-7,0,-5,-5,2,4,3
1576152552500137,4,-2,-4,0,-10,2,-1,-1
1576152552513110,7,-3,3,4,-9,4,5,-3
1576152552513110,1,-2,5,5,-4,-1,-1,2
1576152552514109,5,3,3,4,-6,4,1,7
1576152552514109,1,0,4,1,-4,1,3,10
1576152552536079,-8,1,-6,-4,-2,-1,1,0
1576152552536079,-3,5,-12,-7,4,2,0,-7
1576152552536079,3,-3,-7,-5,6,2,-7,-4
1576152552536079,6,5,3,-2,7,5,-4,-3
1576152552559012,-8,-3,3,-5,0,-4,-6,-12
1576152552559012,1,-7,-2,-1,-2,-5,2,-2
1576152552559984,1,-9,-11,8,-4,-5,3,0
1576152552559984,-6,-6,-1,4,-2,-6,0,-6
1576152552572947,1,-2,5,-1,-4,0,5,0
1576152552572947,1,3,6,-1,0,0,2,1
1576152552573937,-2,5,5,-2,0,-5,-3,1
1576152552573937,-4,1,0,-3,1,-5,-5,4
1576152552595978,-3,3,-1,0,4,-3,-4,0
1576152552595978,-5,-4,-5,-2,-6,-2,-1,-7
1576152552596877,1,0,-3,2,-4,-3,-2,-8
1576152552596877,-3,0,-4,-1,-7,-2,-3,-3
1576152552617925,6,2,0,1,0,3,-1,5
1576152552617925,3,-4,1,2,5,2,0,3
1576152552618832,2,-4,-2,-4,5,2,-1,0
1576152552618832,3,2,-6,-4,-2,-3,-2,3
1576152552633777,3,-3,1,5,0,0,0,-4
1576152552633777,-2,5,4,1,-5,-5,-1,3
1576152552633777,0,2,-2,0,1,-6,3,-1
1576152552633777,3,-5,4,-4,6,-4,-3,3
1576152552655821,-7,1,-4,-3,-4,0,-3,-3
1576152552655821,-11,0,-7,-10,-5,5,0,0
1576152552656725,-7,-2,-1,-8,-5,5,0,-3
1576152552656725,11,-4,-4,-5,-5,4,4,9
1576152552678656,3,-10,-2,3,0,2,2,10
1576152552678656,-1,-5,-2,2,3,-1,-5,-5
1576152552678656,0,1,5,1,3,-3,-2,-8
1576152552678656,-11,11,2,2,0,1,2,-13
1576152552693634,6,2,4,-1,-2,0,5,4
1576152552693634,7,-5,2,-6,0,0,2,3
1576152552693634,5,6,-4,-2,-2,1,0,-2
1576152552693634,-3,0,-1,2,1,-1,-7,-2
1576152552715656,-7,3,0,7,4,-3,-3,-3
1576152552715656,-2,2,-3,8,-9,-6,-1,5
1576152552716616,-5,-4,-4,7,-9,-5,-3,0
1576152552716616,1,-7,-2,0,-2,0,-4,3
1576152552738506,-3,-2,-4,-4,3,1,-5,5
1576152552738506,12,2,2,-3,0,-5,-5,-2
1576152552738506,1,-4,4,-2,4,-1,0,-6
1576152552738506,-10,-5,0,-2,-2,1,2,-7
1576152552753567,-4,-2,0,-6,2,1,1,-1
1576152552753567,-1,1,-2,-1,2,4,1,8
1576152552753567,-1,4,-2,-3,-3,1,-6,5
1576152552753567,-8,-1,-4,-2,-5,-4,-1,4
1576152552775403,1,-9,-4,-4,-8,1,3,-4
1576152552775403,-3,3,7,1,0,4,5,-1
1576152552776401,10,7,3,0,0,3,6,5
1576152552776401,4,-2,-3,-2,3,-3,0,-4
1576152552798344,-2,-5,-2,2,-1,-3,-1,1
1576152552798344,-6,-7,-3,4,-2,4,2,4
1576152552799335,-1,1,-4,1,1,5,-1,3
1576152552799335,5,-5,0,-3,-1,-1,0,2
1576152552813401,4,0,-2,-3,-1,-10,0,-4
1576152552813401,-4,2,-1,-4,0,-10,-5,-4
1576152552814296,-5,-2,-4,0,-2,-3,-2,6
1576152552814296,0,1,-5,5,1,-1,-2,5
1576152552835338,-3,0,6,-2,-4,-2,-6,-3
1576152552835338,0,1,6,1,-1,-2,-2,-7
1576152552836236,4,-7,2,-3,-1,-3,-1,-7
1576152552836236,6,-1,3,-3,2,0,0,-9
1576152552858233,0,-2,-4,0,4,8,0,5
1576152552858233,-6,-4,-1,-2,-1,3,0,-1
1576152552859181,-5,-9,1,2,1,-1,-2,3
1576152552859181,-3,-5,-2,-1,-2,0,-4,-4
1576152552873237,-5,-1,-2,-1,0,1,-1,-3
1576152552873237,0,5,-2,-2,-1,-2,-1,-6
1576152552874143,-6,2,1,-10,-5,-6,0,0
1576152552874143,-1,10,0,-5,-3,-1,1,7
1576152552896119,-5,6,-4,0,1,-6,-2,-4
1576152552896119,5,-1,-7,4,1,-6,-6,3
1576152552896119,7,-2,-6,3,4,-3,-7,-3
1576152552896119,2,0,5,0,4,1,-1,-1
1576152552918024,-5,6,1,0,-1,1,4,-9
1576152552918024,-4,3,5,3,2,-2,3,-2
1576152552919022,-3,2,7,0,-5,5,1,-4
1576152552919022,-6,-3,-10,-2,-8,6,3,-3
1576152552932977,5,-10,-10,-5,-7,6,4,1
1576152552932977,2,-9,-5,-3,-4,3,0,-4
1576152552940957,6,-2,-5,2,-5,-3,-5,-5
1576152552940957,-12,0,0,6,-2,0,-8,3
1576152552955957,-2,-1,-4,9,1,-2,-7,8
1576152552955957,-4,-5,5,6,3,-4,3,6
1576152552956911,3,-6,5,-2,6,-6,5,2
1576152552956911,0,5,7,-6,6,-3,5,-11
1576152552977860,-5,9,2,-5,-4,-3,-3,-10
1576152552977860,4,5,-5,-5,-7,0,-1,4
1576152552978856,5,-3,-3,-2,4,5,1,8
1576152552978856,2,-8,-7,0,0,-1,-1,3
1576152553001795,5,-5,0,-1,-3,-4,0,1
1576152553001795,1,1,-6,-2,0,-5,-2,-4
1576152553001795,-22,7,-2,-5,-1,-1,-1,-8
1576152553001795,-8,9,5,-5,1,5,-2,-8
1576152553015757,-4,0,6,0,2,0,-2,2
1576152553015757,2,-1,1,-4,0,2,-3,4
1576152553016754,1,-2,-2,-3,4,0,2,2
1576152553016754,10,-5,-1,-1,3,-4,0,9
1576152553037699,3,-6,-4,5,-1,2,-2,-6
1576152553037699,-2,-5,-11,2,-2,1,-5,-9
1576152553038696,-1,-5,-4,4,-6,-1,-3,-12
1576152553038696,-4,-3,-1,3,-4,-3,2,-3
1576152553052659,1,2,6,2,-4,-5,-1,2
1576152553052659,-2,-3,4,2,0,-1,-5,-10
1576152553060637,-6,3,7,3,1,0,6,-6
1576152553060637,0,1,2,0,-1,0,-1,3
1576152553075638,0,3,-3,-6,3,-4,2,-3
1576152553075638,-2,4,-1,-11,0,1,3,1
1576152553076592,-2,4,-1,-9,-9,0,-2,5
1576152553076592,0,-2,2,2,-8,-2,-1,0
1576152553097618,-3,1,0,0,1,-1,-3,5
1576152553097618,3,3,-5,4,3,1,-3,-4
1576152553098573,-1,3,-8,1,0,3,-2,0
1576152553098573,5,-10,-6,2,4,4,-1,-9
1576152553112605,-6,-3,1,-3,-1,1,3,-3
1576152553112605,-2,-6,6,-3,1,-3,2,5
1576152553120551,2,-5,3,0,3,-3,2,0
1576152553120551,4,2,-8,-6,-1,-5,0,-5
1576152553135579,-7,-2,-4,-5,-5,-6,1,2
1576152553135579,0,0,0,-6,0,-5,1,4
1576152553136476,-9,1,5,-2,-3,-3,-5,-4
1576152553136476,-2,0,-1,0,-4,0,-3,1
1576152553158419,4,-2,-1,2,0,4,-5,9
1576152553158419,-8,5,-5,6,-2,3,5,0
1576152553159412,-1,3,0,6,5,-1,3,6
1576152553159412,4,2,4,-5,2,-2,2,0
1576152553172475,-1,1,-5,-5,1,4,1,0
1576152553172475,2,-5,-5,-7,-2,4,-1,1
1576152553180451,3,-3,0,3,-8,3,2,6
1576152553180451,-5,-5,1,1,-5,1,2,1
1576152553196314,-3,-7,3,1,-2,1,-4,-7
1576152553196314,-1,-3,7,3,1,-2,-5,7
1576152553196314,-3,-1,-1,2,4,-1,-8,-12
1576152553196314,-2,-2,4,0,2,-3,-7,0
1576152553218294,1,1,1,-2,-1,0,-4,6
1576152553218294,-4,4,-3,-2,-5,2,-2,-8
1576152553219251,0,5,-11,-10,-7,-7,3,-3
1576152553219251,-6,3,-6,2,-1,-4,1,3
1576152553232317,2,2,-4,4,-1,-1,4,3
1576152553232317,5,-3,-3,3,-1,-1,0,-2
1576152553241194,8,-7,-2,0,-2,-1,2,-1
1576152553241194,0,-4,-2,0,-3,1,-1,6
1576152553256184,-3,7,-1,-4,-1,-5,-2,2
1576152553256184,-1,-5,1,-3,-3,-1,-3,-9
1576152553256184,5,2,0,3,2,5,0,-5
1576152553256184,4,1,2,2,3,0,1,1
1576152553278103,2,3,2,-1,1,-3,3,14
1576152553278103,2,-5,5,-2,0,-4,-1,-6
1576152553279099,2,-3,-3,-2,0,-4,-2,-2
1576152553279099,4,-3,3,-6,0,-4,-3,-3
1576152553301159,-2,3,1,-6,-5,-1,-4,-6
1576152553301159,-5,9,-1,-9,-5,2,2,1
1576152553302058,-13,-1,4,-6,-3,2,-4,-10
1576152553302058,-5,3,0,1,-2,4,3,-2
1576152553316021,3,-5,-1,2,1,2,-3,-6
1576152553316021,1,0,-5,8,0,-5,-2,7
1576152553316021,-4,-10,-3,5,-1,-6,-1,7
1576152553316021,7,-3,-3,-1,4,-2,1,2
1576152553338000,-6,-7,-4,-1,5,-2,1,-10
1576152553338000,2,-2,7,-3,0,0,0,1
1576152553338958,-3,-3,3,0,-5,0,1,4
1576152553338958,-2,0,3,-3,0,-5,-4,-1
1576152553360997,4,2,-1,-1,2,-2,1,-2
1576152553360997,-2,1,-8,5,1,0,-1,1
1576152553361899,4,12,-7,2,1,0,3,3
1576152553361899,2,2,-4,0,-4,2,2,2
1576152553375962,3,-2,-5,-2,-1,-1,2,-6
1576152553375962,-2,1,-3,-3,-4,3,-1,4
1576152553376858,-3,0,3,5,-8,1,3,-6
1576152553376858,3,-1,-2,-1,-2,-4,2,-10
1576152553397839,2,2,-1,-8,-6,-3,-1,-5
1576152553397839,-12,-6,4,-5,0,-1,-3,1
1576152553398806,-10,-1,2,-7,-1,2,-8,5
1576152553398806,-11,0,1,0,-1,0,-8,-2
1576152553421777,2,-5,-2,4,-2,4,-2,-1
1576152553421777,0,-8,-6,-4,0,1,-1,-5
1576152553421777,6,5,7,-3,0,-1,-4,1
1576152553421777,0,-3,2,1,3,-1,0,-6
1576152553435800,0,-3,-5,5,3,-1,1,4
1576152553435800,-4,1,-8,4,-1,-2,3,-6
1576152553436707,1,-4,-8,4,-1,-3,0,-2
1576152553436707,-20,0,-2,1,-9,-5,1,0
1576152553457645,-2,1,5,1,-3,-5,-3,0
1576152553457645,-3,-7,1,-5,1,-7,5,6
1576152553458639,0,-8,-3,-7,6,0,4,-1
1576152553458639,-3,-4,-7,-12,-2,7,-1,8
1576152553481678,2,-6,-3,-5,-6,8,-6,-8
1576152553481678,2,6,3,2,2,6,-2,1
1576152553482588,3,0,3,-1,3,2,-1,-11
1576152553482588,7,1,-2,4,6,-1,2,4
1576152553495585,-2,5,-2,-1,-2,-5,-1,1
1576152553495585,2,7,-3,2,-2,-6,-2,-1
1576152553496546,2,0,6,-2,-6,-1,0,3
1576152553496546,-1,13,2,2,-5,-1,2,2
1576152553518439,-3,6,5,3,1,0,-2,2
1576152553518439,0,-4,4,4,-3,-7,-2,-8
1576152553519393,-2,0,-7,-5,1,-5,1,-5
1576152553519393,3,-9,0,0,3,-1,-4,-6
1576152553541376,-4,-2,9,4,-1,4,0,2
1576152553541376,14,-6,-5,-4,-1,2,-3,11
1576152553542341,-9,-3,-10,0,0,-1,1,1
1576152553542341,-1,4,-10,-5,1,1,-1,1
1576152553556295,-4,-2,-5,1,0,-2,-1,-5
1576152553556295,1,-1,3,-3,-3,-5,0,-1
1576152553556295,5,0,7,-6,1,-7,-2,2
1576152553556295,-2,-6,5,-6,0,-7,-3,2
1576152553578242,-2,-5,2,1,-3,0,-3,-8
1576152553578242,-13,-10,-2,6,-6,5,2,-10
1576152553579240,7,0,-6,7,-8,-1,-1,-3
1576152553579240,7,5,1,2,-5,-1,2,-1
1576152553601333,-5,9,-11,-9,0,-2,-2,9
1576152553601333,-3,6,-6,-4,5,2,-2,2
1576152553602238,-9,5,-1,0,3,5,1,1
1576152553602238,4,-1,4,2,0,6,-1,-4
1576152553616193,12,-7,2,4,-1,-3,-2,-5
1576152553616193,0,1,-1,-6,-6,-3,-7,1
1576152553616193,-11,-4,3,-7,-2,0,-4,5
1576152553616193,-3,-5,-4,-6,-5,0,-2,-1
1576152553638139,-2,-6,-3,-3,-1,1,3,3
1576152553638139,1,-4,0,-2,0,0,5,-5
1576152553639142,6,-4,-3,7,4,3,-1,-1
1576152553639142,-1,0,3,1,2,-1,0,-3
1576152553661172,-2,-5,-1,0,8,1,-3,8
1576152553661172,-3,2,1,1,10,-1,-2,0
1576152553662074,-9,2,-3,-4,0,-4,-1,-2
