timestamp,emg1,emg2,emg3,emg4,emg5,emg6,emg7,emg8
1523010324971448,-13,-4,3,-3,-3,-2,-3,-5
1523010324971448,7,6,-1,-1,1,1,1,2
1523010324972451,-6,-3,-3,-5,-7,-9,-3,-2
1523010324972451,-1,-1,-1,-1,1,5,-3,2
1523010324972451,7,4,4,6,9,-1,0,-2
1523010324972451,0,1,1,2,2,10,0,-1
1523010324974456,-6,-1,-1,-6,-3,-5,-1,-2
1523010324974456,-10,-4,-1,1,-4,-2,1,-2
1523010324975459,20,1,-2,11,3,-12,-7,4
1523010324975459,-5,-5,-2,3,2,27,7,0
1523010324988493,9,4,-3,0,-1,1,1,1
1523010324988493,-12,-2,-3,-6,-4,-10,-2,-2
1523010324998520,-6,3,2,-8,0,2,-1,-2
1523010324998520,-2,-5,-1,-9,-6,-11,-3,1
1523010325004536,-6,-2,-5,-9,-11,0,-1,-4
1523010325004536,-9,-8,-4,7,16,-6,-5,-7
1523010325019576,-19,-9,2,9,0,0,3,1
1523010325019576,20,10,1,-7,-4,-9,1,4
1523010325034616,-19,-6,2,26,12,9,6,-3
1523010325034616,26,0,-5,-20,-6,0,-3,4
1523010325034616,15,5,-3,-2,-10,-2,2,6
1523010325034616,-8,3,3,-6,1,-5,-1,-4
1523010325080739,-3,0,2,-1,0,-1,0,0
1523010325080739,-1,0,3,2,0,-1,0,-1
1523010325081742,-10,-5,-3,-4,2,1,0,-4
1523010325081742,9,3,-2,3,-3,-2,-3,-2
1523010325082744,-7,-5,0,8,0,-6,-2,0
1523010325082744,-8,-1,5,0,-4,12,0,-5
1523010325085752,-10,-4,-2,-12,-12,-11,-2,5
1523010325085752,20,2,-4,3,12,1,-3,3
1523010325092771,12,2,-1,12,5,4,1,2
1523010325092771,1,-3,3,7,8,-7,-2,-2
1523010325101795,-4,-1,0,-1,0,15,2,-1
1523010325101795,-13,-3,-1,-8,-10,-4,-2,-1
1523010325107810,0,-1,-4,-12,-7,-6,0,1
1523010325107810,1,1,0,2,2,-2,1,4
1523010325124856,-1,0,-3,0,0,-2,-6,-13
1523010325124856,-12,-10,-3,-4,2,-4,-2,-1
1523010325130872,2,0,-2,-2,5,2,-2,-2
1523010325130872,-1,0,1,7,-1,-2,-1,0
1523010325153934,16,7,1,6,4,-1,2,9
1523010325153934,-2,3,0,0,-4,0,-1,-1
1523010325154936,-1,5,5,-6,-9,-4,-1,-1
1523010325154936,-27,-22,-9,-24,-5,0,0,0
1523010325168974,28,14,3,35,8,4,4,3
1523010325168974,-2,-3,-2,-4,-5,-2,-1,-4
1523010325169977,-10,-8,-3,-3,6,4,-2,-1
1523010325169977,8,8,1,-12,-8,-6,-2,0
1523010325191032,-7,-1,-1,-11,1,-5,-3,-5
1523010325191032,-11,0,2,14,-1,1,2,-2
1523010325192035,12,2,-3,-26,-8,-6,-3,-2
1523010325192035,-13,-9,-3,40,16,1,0,1
1523010325214094,8,-5,-2,-2,3,11,-1,0
1523010325214094,11,6,2,5,4,-1,0,1
1523010325215096,-9,-5,-1,-11,-9,2,-1,-3
1523010325215096,-10,-3,-1,-23,-6,-5,1,-6
1523010325229134,-6,-3,-1,-4,-7,-9,0,2
1523010325229134,-1,-1,-4,-31,-6,1,-4,-1
1523010325230136,-2,-1,2,32,9,3,0,-1
1523010325230136,9,6,1,3,-2,-2,-3,-2
1523010325251192,-20,-8,-3,0,-3,-5,2,-2
1523010325251192,10,-3,-4,-15,-7,3,1,1
1523010325252195,24,7,-1,-6,8,3,4,6
1523010325252195,3,0,0,4,2,-2,-5,-6
1523010325274254,-6,-2,-1,-1,-4,-2,-3,-2
1523010325274254,-11,-4,-1,-5,-5,-8,-1,-2
1523010325274254,-2,-1,-1,0,-3,-3,-2,1
1523010325274254,9,2,-2,-3,0,4,2,1
1523010325289293,-10,0,0,3,-3,-3,-1,-3
1523010325289293,-4,-1,-3,-9,8,-8,-1,1
1523010325289293,0,1,-1,27,4,1,-1,0
1523010325289293,5,5,1,9,14,6,0,-1
1523010325311352,-8,5,2,-6,-3,-1,-2,-3
1523010325311352,-14,-22,-10,-2,-2,7,4,1
1523010325312355,12,3,-5,-13,-12,-4,-2,1
1523010325312355,1,-5,-2,-15,-9,-8,-1,-2
1523010325333411,3,1,-1,-2,-5,-2,0,-1
1523010325333411,-8,2,4,-9,-5,-3,-5,-6
1523010325334413,-13,-4,3,31,20,3,0,-3
1523010325334413,-6,-2,2,0,-10,-1,-2,1
1523010325348451,5,-1,-5,-11,-12,-4,-1,-1
1523010325348451,6,1,-2,-11,-13,-4,-2,1
1523010325349454,-5,-6,-3,-10,18,-3,-4,-3
1523010325349454,7,5,4,31,17,3,-2,-1
1523010325371512,-1,-2,-1,1,1,2,2,-2
1523010325371512,7,-2,-3,-5,-3,-1,-2,1
1523010325372515,-3,5,-3,-27,-31,-2,-2,-2
1523010325372515,-6,-4,2,8,-2,-7,-5,-1
1523010325393571,-21,-10,-5,-9,2,-3,-3,0
1523010325393571,28,10,1,12,4,1,2,5
1523010325394573,-4,-4,-2,-6,-1,-1,-2,-4
1523010325394573,4,6,-3,-20,-26,-14,-4,-6
1523010325408611,2,2,1,20,27,11,0,0
1523010325408611,-7,1,2,9,8,19,2,-3
1523010325409613,-5,-2,1,1,0,-1,2,2
1523010325409613,-7,-3,-2,-12,-6,-1,4,0
1523010325431672,4,-5,-2,-20,-32,-15,-4,0
1523010325431672,3,3,0,18,12,-2,2,3
1523010325432675,-4,1,0,12,26,6,0,-2
1523010325432675,-12,-6,-2,-9,-6,-1,-2,-3
1523010325453731,10,5,0,0,-1,0,0,1
1523010325453731,-2,-4,-1,-4,-13,-4,-2,-1
1523010325454733,-8,-14,-3,-10,-18,-5,-2,2
1523010325454733,6,5,0,6,14,2,0,0
1523010325468771,3,-1,3,5,12,5,1,0
1523010325468771,-15,0,2,5,0,-3,-1,-8
1523010325469774,0,-9,-5,-18,-12,-6,-1,-1
1523010325469774,10,-1,-6,-9,-14,-4,-2,1
1523010325491832,6,3,0,16,17,6,3,2
1523010325491832,1,3,2,12,23,1,1,-1
1523010325491832,-11,-4,0,1,-5,-1,-3,-4
1523010325491832,2,7,1,-14,-12,0,1,0
1523010325513891,-19,-24,-4,-9,-10,-16,-1,-2
1523010325513891,10,5,-4,-9,-24,-1,-7,1
1523010325514893,8,6,4,21,36,29,14,2
1523010325514893,1,-4,1,0,2,1,-6,0
1523010325528931,3,13,2,1,-2,4,-1,-3
1523010325528931,-18,-13,0,3,-3,-14,-4,-2
1523010325529934,7,8,-2,-11,-20,-6,-8,-1
1523010325529934,14,10,-2,-3,-7,1,7,3
1523010325550989,-4,-5,-4,-7,5,-8,-9,-4
1523010325550989,-5,-4,2,12,14,10,3,0
1523010325551992,0,5,2,7,-3,-7,-1,-6
1523010325551992,-15,-3,6,11,19,7,0,-2
1523010325574051,7,-1,-7,-17,-28,-17,-3,1
1523010325574051,18,6,-4,-1,-4,7,10,1
1523010325575053,-1,2,4,4,9,3,3,1
1523010325575053,-6,-6,-2,0,-5,3,-2,-5
1523010325589091,-5,0,3,3,-1,1,-3,-1
1523010325589091,-7,-6,-2,-4,-8,-11,-2,-2
1523010325590093,-8,-9,-3,0,-4,-8,-3,1
1523010325590093,6,15,0,-6,-9,-4,-5,0
1523010325611149,-6,-5,-4,-4,-7,4,1,-5
1523010325611149,2,4,2,4,12,-3,-1,1
1523010325612152,-10,-5,0,-11,-3,-7,-5,-4
1523010325612152,-3,-17,-2,-4,-8,-1,7,4
1523010325634211,18,21,1,18,28,14,-2,2
1523010325634211,5,0,-1,5,3,-12,1,0
1523010325634211,-1,0,1,-6,-21,-2,-4,-1
1523010325634211,-5,-9,0,-2,9,18,9,0
1523010325648248,-2,3,4,0,2,4,1,0
1523010325648248,-7,-6,-1,-3,-11,-1,3,-1
1523010325655267,5,-1,-4,-7,-3,-9,-5,1
1523010325655267,6,19,-1,-4,-10,-16,0,-3
1523010325671309,-11,-42,-7,-3,-12,2,-7,2
1523010325671309,-12,-12,0,0,-1,1,-3,-2
1523010325672312,10,14,0,-11,-17,-12,3,2
1523010325672312,3,1,-2,13,17,-4,-29,-1
1523010325693368,-20,-9,-6,7,0,18,28,-5
1523010325693368,3,-8,-3,-1,8,18,-5,-2
1523010325694371,2,-9,-2,0,-8,0,-1,1
1523010325694371,-3,-5,-4,-15,-21,-11,-5,-2
1523010325708408,15,25,6,-4,2,-11,9,3
1523010325708408,-10,-11,-1,1,-2,-8,-4,0
1523010325715426,-13,-4,-1,0,4,16,-4,-4
1523010325715426,5,8,-3,1,8,-3,9,1
1523010325731469,6,-1,-1,1,6,-15,-11,0
1523010325731469,1,0,-2,-14,-21,-18,-2,-3
1523010325732472,1,-5,0,5,7,21,-2,1
1523010325732472,-5,-2,4,6,17,4,-3,-1
1523010325753528,-4,1,-2,9,15,3,9,1
1523010325753528,7,10,2,-4,-15,-11,-4,0
1523010325754531,4,4,-2,-3,5,-12,-3,-6
1523010325754531,-18,-15,0,9,3,10,-1,-2
1523010325768568,4,-8,-2,-9,-13,-22,5,3
1523010325768568,15,17,-4,0,13,21,0,2
1523010325775587,-4,-6,-1,-1,-7,-7,1,-1
1523010325775587,3,2,2,-3,-5,1,2,-2
1523010325791629,-5,7,5,2,2,-6,-9,-4
1523010325791629,-21,-24,-4,1,6,18,3,2
1523010325792632,12,18,-1,-9,-5,-7,-4,-2
1523010325792632,12,-8,-5,6,-1,-5,5,5
1523010325813688,0,2,0,-5,-6,4,-7,-1
1523010325813688,-9,-5,0,0,1,-4,-3,0
1523010325814691,2,17,4,-6,-15,-2,3,0
1523010325814691,-1,-13,-6,-10,13,-4,-3,4
1523010325827725,0,-8,-1,16,16,2,-5,-4
1523010325827725,0,12,2,1,1,5,5,-3
1523010325835747,-3,-10,-2,-6,-10,2,0,-1
1523010325835747,0,1,1,-3,-4,3,1,0
1523010325851789,9,4,-2,-5,1,-10,-7,-1
1523010325851789,-9,0,3,5,4,6,-2,-3
1523010325851789,-13,-13,-1,-2,1,-6,2,0
1523010325851789,10,4,-3,-1,-5,-13,-1,-1
1523010325873848,23,15,-3,-11,0,24,-4,1
1523010325873848,-10,-12,0,5,4,-11,1,-3
1523010325874851,2,0,0,6,3,-5,-2,0
1523010325874851,-21,-9,0,-2,-1,3,0,-4
1523010325895907,-4,5,2,-4,-9,-7,-3,1
1523010325895907,8,11,0,-11,-10,-7,-4,-4
1523010325896910,-12,-16,-5,7,4,4,1,0
1523010325896910,10,4,0,13,14,2,-2,-2
1523010325910947,9,3,0,-4,-13,1,5,1
1523010325910947,-7,-5,-1,-10,-1,-5,-1,1
1523010325911950,-4,-2,0,-1,0,0,-4,-2
1523010325911950,19,12,0,22,11,-6,2,3
1523010325934014,-12,-10,-4,-20,-11,14,-4,-5
1523010325934014,6,4,3,43,27,1,0,2
1523010325935012,-8,-2,-2,-8,-8,-6,1,-2
1523010325935012,-8,0,-2,-8,-10,-1,1,-2
1523010325948046,3,-3,0,-3,-4,-5,-4,1
1523010325948046,11,7,2,-8,-3,-1,-1,0
1523010325956067,2,-4,-3,0,7,0,-2,-1
1523010325956067,2,-4,1,-6,-7,7,0,0
1523010325971107,-18,-7,-2,0,2,-4,2,-2
1523010325971107,-2,0,-2,-5,-7,-4,-3,-1
1523010325972110,-4,0,0,10,10,1,-2,-3
1523010325972110,-6,-4,-1,-10,-6,1,-2,-4
1523010325994168,17,5,-1,-3,-10,-12,-2,3
1523010325994168,15,0,-4,-6,3,1,0,4
1523010325994168,-9,-4,0,7,2,-2,2,1
1523010325994168,-15,-1,-1,-1,0,9,1,-6
1523010326008205,0,5,2,4,5,0,-3,-5
1523010326008205,-23,-4,-4,-26,-23,-9,-2,-5
1523010326024248,6,-5,-5,-23,-15,-9,-3,4
1523010326024248,-3,-1,1,38,35,14,3,1
1523010326031267,0,-1,-1,2,-5,-4,1,-1
1523010326031267,14,6,-1,-2,-3,-2,-3,-4
1523010326032269,12,12,3,-9,1,2,-1,-4
1523010326032269,-38,-23,-6,-19,-16,-4,-1,-1
1523010326054328,29,8,-1,0,2,3,-3,7
1523010326054328,23,9,2,4,-2,-2,0,3
1523010326054328,-17,-9,-3,0,7,-1,-2,-3
1523010326054328,13,8,1,-4,-8,-9,-1,-1
1523010326076387,-10,0,-1,5,6,5,-2,-2
1523010326076387,-17,-16,-4,-4,-2,0,-1,-1
1523010326077390,9,6,0,8,1,1,-2,0
1523010326077390,-1,0,-2,-12,-13,0,1,-2
1523010326098445,-8,-4,-2,2,8,-2,0,-4
1523010326098445,8,4,4,9,-3,3,-1,1
1523010326099448,-9,-1,-1,-4,3,0,-1,0
1523010326099448,4,0,-3,-14,-14,-7,-5,-3
1523010326113485,-26,-14,-4,6,1,0,0,0
1523010326113485,26,11,2,9,0,0,0,1
1523010326121507,-14,-9,-2,5,5,-3,-2,0
1523010326121507,0,-1,-1,-26,-10,0,0,1
1523010326136546,-8,-2,-2,-33,-14,-10,-8,-10
1523010326136546,8,-6,-3,55,26,10,5,5
1523010326137550,18,5,0,-2,-9,1,3,2
1523010326137550,1,0,-2,4,2,-2,-2,-5
1523010326158605,-18,-4,-1,-10,-6,-1,1,-1
1523010326158605,-17,2,0,-20,-7,-6,-5,-7
1523010326159608,-12,0,2,4,6,4,2,-1
1523010326159608,16,-17,-10,-5,0,4,0,11
1523010326173646,36,17,5,15,0,-2,0,0
1523010326173646,-46,-18,-3,-6,-2,-7,-2,-1
1523010326181667,18,4,2,22,8,6,3,0
1523010326181667,-10,6,2,-1,-3,-4,-4,-4
1523010326195705,3,-1,-2,-5,-4,-6,-1,0
1523010326195705,-1,3,-1,-29,-19,-5,-3,1
1523010326203726,-27,-5,2,0,14,6,-1,-7
1523010326203726,-3,-3,4,53,26,-3,1,0
1523010326218765,22,5,-1,8,2,12,2,4
1523010326218765,2,-5,-2,-1,-6,-5,0,-1
1523010326219768,-5,-3,1,0,2,2,-2,-1
1523010326219768,-24,-9,-1,-20,-8,-3,-1,-5
1523010326232803,10,5,1,1,-2,-2,0,-1
1523010326232803,5,-9,-8,-9,-1,-4,-3,0
1523010326241826,18,6,-2,-10,-15,-5,-3,1
1523010326241826,7,6,3,5,-10,-8,-3,-3
1523010326256867,-30,-12,2,8,15,9,3,-2
1523010326256867,0,4,-3,-9,-1,-3,0,-2
1523010326256867,12,4,-3,0,-6,-8,-3,-2
1523010326256867,-2,-1,-2,-24,-9,16,2,0
1523010326278925,-16,-9,0,27,13,-3,0,0
1523010326278925,19,9,-1,-4,1,-1,1,3
1523010326279928,-1,2,-1,-30,-18,-5,-2,-2
1523010326279928,2,0,2,57,34,10,2,-1
1523010326292963,5,5,-1,-21,-13,-9,-4,-2
1523010326292963,-30,-14,-1,4,10,4,-2,-4
1523010326300984,0,9,1,5,-6,-7,-2,-3
1523010326300984,-13,-18,-8,-34,-15,-5,-3,1
1523010326316024,33,14,-3,-3,1,6,1,8
1523010326316024,8,8,6,18,12,4,2,-2
1523010326317027,-5,-8,-3,-7,-4,-5,-5,-1
1523010326317027,-5,2,3,-6,-8,-9,2,-3
1523010326339085,-19,-9,-4,-3,-8,-3,-2,-1
1523010326339085,2,2,0,-18,4,0,-7,-3
1523010326340088,-2,-5,-4,18,12,16,13,2
1523010326340088,3,3,0,10,4,-14,-1,2
1523010326353123,-11,-6,-2,-9,-13,0,0,-2
1523010326353123,3,4,-3,-22,-36,0,-2,-1
1523010326361144,6,4,0,15,37,0,-3,-2
1523010326361144,12,2,-3,-7,-10,-1,0,1
1523010326376184,-2,-1,-2,-4,-4,-4,-2,-2
1523010326376184,-14,-9,-1,-6,-3,-3,-1,0
1523010326377187,7,3,-3,0,-6,1,-2,2
1523010326377187,8,13,2,-13,-5,-13,-4,-3
1523010326398242,-8,-18,-2,14,3,9,2,1
1523010326398242,11,5,2,7,21,0,3,0
1523010326406264,-14,-18,-2,-2,-15,-2,-1,0
1523010326406264,14,14,1,-7,2,-1,-3,-1
1523010326413283,10,8,0,-8,-4,26,-1,-1
1523010326413283,-15,-18,-2,2,-4,-13,-3,-3
1523010326421305,2,-15,-5,-19,-14,-6,1,2
1523010326421305,-5,-3,-2,2,-14,-1,-6,-2
1523010326436344,0,2,4,30,35,2,2,-1
1523010326436344,5,6,0,3,1,8,-3,-1
1523010326437347,-4,7,3,1,2,-11,-4,-1
1523010326437347,-4,-9,-2,-14,-25,0,2,-2
1523010326458403,-3,-1,-3,-10,-14,-10,-1,0
1523010326458403,-2,3,1,13,14,6,-3,-3
1523010326459406,-5,-2,-3,-4,-14,3,0,-4
1523010326459406,5,11,2,5,11,-3,-4,-1
1523010326473443,12,-5,-7,-4,1,12,8,5
1523010326473443,-2,-1,-2,-1,-4,-26,-6,1
1523010326481464,8,4,1,-1,-15,10,4,-3
1523010326481464,-6,-3,3,13,23,15,3,-1
1523010326496504,-8,6,4,4,14,-16,-6,-4
1523010326496504,-5,-12,-5,-6,-14,5,-1,-1
1523010326497507,0,-5,0,3,1,-6,0,2
1523010326497507,1,3,-3,-5,-6,-2,-2,1
1523010326518562,-4,-8,-2,-8,-13,-9,-2,-3
1523010326518562,2,6,2,4,2,5,2,1
1523010326519565,-4,-2,0,7,9,1,-2,-2
1523010326519565,-6,-17,-4,-2,4,3,4,0
1523010326541624,11,13,-4,-8,-4,-10,-4,1
1523010326541624,10,11,-1,-8,-23,0,1,1
1523010326542626,1,5,1,4,8,0,-6,0
1523010326542626,-7,-8,2,12,23,1,2,1
1523010326556664,-16,-4,-2,-1,0,11,1,-3
1523010326556664,1,-1,-2,-2,-11,-2,-5,-2
1523010326557666,0,-4,0,1,10,1,4,1
1523010326557666,0,7,0,-5,-8,-2,-5,-3
1523010326578723,2,-1,-2,-10,-20,-6,-3,-1
1523010326578723,6,3,0,1,18,6,5,3
1523010326579725,-6,-13,-5,-2,-5,1,1,2
1523010326579725,1,0,0,5,8,-1,1,-2
1523010326602786,-3,5,0,-2,2,-4,-4,-2
1523010326602786,-1,3,-1,-5,-3,-3,-1,-3
1523010326603789,5,-3,1,-3,-3,-3,3,1
1523010326603789,-1,-5,-3,-7,-11,-12,-2,1
1523010326616824,-1,-5,-1,0,-2,0,-4,-1
1523010326616824,2,3,-1,0,6,14,5,1
1523010326616824,-11,-1,0,-14,-17,-10,-6,-4
1523010326616824,2,6,-1,2,-22,0,-4,-2
1523010326638883,-5,-21,-2,9,32,-4,2,0
1523010326638883,0,3,-1,3,1,-8,-6,-1
1523010326639886,2,0,-1,2,3,14,2,0
1523010326639886,-3,-1,-3,-17,-27,-6,-2,-2
1523010326661944,-4,-2,1,-6,-15,-6,1,-2
1523010326661944,2,-3,-1,5,7,0,1,-1
1523010326662947,2,1,-3,-3,-8,-9,-4,-1
1523010326662947,5,0,1,-1,4,2,2,1
1523010326675981,-3,-3,1,2,7,2,-1,-2
1523010326675981,-3,-3,-2,-2,2,-1,0,-1
1523010326676984,2,5,-1,1,0,-4,-5,-1
1523010326676984,-11,-7,0,-1,2,6,2,0
1523010326699043,-4,7,-1,-3,-3,-5,-3,-2
1523010326699043,12,-3,-4,5,6,-3,-2,1
1523010326700046,14,-1,-2,3,9,1,8,3
1523010326700046,9,6,0,2,6,0,-5,-3
1523010326722104,-9,-9,-1,-9,-8,10,1,-1
1523010326722104,-4,3,5,-2,-9,-8,-5,-4
1523010326723106,0,-2,-1,5,8,-3,-5,-2
1523010326723106,2,-4,-4,-3,3,2,-1,0
1523010326736141,-2,2,0,-5,-6,-6,-3,-2
1523010326736141,0,-2,-4,-5,-9,0,0,0
1523010326737144,-2,2,0,6,7,-3,-2,-2
1523010326737144,5,3,-1,0,-2,-2,-1,1
1523010326759203,-8,7,4,-10,-18,-4,-1,-4
1523010326759203,-6,-34,-10,3,16,-5,-2,0
1523010326759203,2,5,-1,-1,7,14,1,1
1523010326759203,-3,-1,-1,1,8,-10,-3,-1
1523010326782264,15,3,0,15,3,7,5,2
1523010326782264,-4,4,2,-10,-13,0,0,-3
1523010326783267,-6,-3,-3,-4,-7,-3,-3,-3
1523010326783267,0,1,-1,-2,5,10,-2,1
1523010326805325,7,7,0,-5,-7,-14,-3,-1
1523010326805325,-16,-9,0,-1,-8,-3,1,0
1523010326805325,-1,-4,0,7,7,1,-4,0
1523010326805325,7,4,-1,-3,-4,2,2,-1
1523010326818360,1,1,-2,-1,6,-2,-2,0
1523010326818360,10,12,3,5,-4,-1,0,-1
1523010326819363,-3,1,-1,-3,-1,-2,-3,-4
1523010326819363,-20,-17,0,-11,-17,0,4,-1
1523010326842424,27,11,-7,3,15,-2,-4,2
1523010326842424,-13,-1,2,11,13,5,1,-2
1523010326842424,6,7,0,-10,-14,-11,-5,-2
1523010326842424,-2,-1,0,-3,-9,8,3,1
1523010326856461,-8,-3,3,23,21,3,5,1
1523010326856461,1,-3,-4,-12,-13,-5,-3,-1
1523010326857464,-3,0,0,9,6,3,-1,-5
1523010326857464,-4,0,-1,-6,-7,-7,-4,-3
1523010326879522,1,-2,-3,-19,-13,-3,-5,0
1523010326879522,1,3,1,10,7,-6,-1,0
1523010326886542,-11,-8,-1,-5,-7,11,2,1
1523010326886542,18,7,-1,0,8,4,-1,1
1523010326901581,-11,-6,0,-1,-2,-2,0,-1
1523010326901581,-10,0,0,-13,-12,-15,-3,-4
1523010326902584,-7,-5,-1,-3,-5,5,-3,-2
1523010326902584,7,0,-2,4,16,10,3,2
1523010326916622,19,4,2,36,19,8,2,0
1523010326916622,0,7,3,-6,-9,1,3,-1
1523010326917624,-42,-17,-4,-3,-1,-7,1,-2
1523010326917624,16,5,-3,-8,-9,-4,0,5
1523010326938680,-14,-9,-2,-11,-14,-7,-3,-2
1523010326938680,1,-1,0,0,3,4,-2,0
1523010326939683,5,11,5,1,-5,-8,0,0
1523010326939683,-10,-6,-2,4,-1,-3,-3,-2
1523010326961741,-2,-12,-7,-19,-11,0,0,1
1523010326961741,-6,-3,-1,19,10,11,2,0
1523010326962744,12,5,-2,2,14,12,2,-1
1523010326962744,-8,0,1,2,-4,-13,-2,-5
1523010326976782,-20,-6,0,8,-2,-2,-3,-1
1523010326976782,5,0,-1,-14,-7,1,-1,-1
1523010326976782,4,-10,-5,-5,-8,-9,-3,6
1523010326976782,-1,3,-3,2,11,1,-1,-2
1523010326998840,0,-1,-1,-12,-15,2,1,-1
1523010326998840,-5,0,0,1,9,-1,-2,-4
1523010326999843,-13,0,-1,-20,-13,-7,-2,-3
1523010326999843,10,10,0,13,7,-3,-3,1
1523010327021901,-6,-9,-6,0,8,5,0,2
1523010327021901,11,6,2,-10,-5,2,2,-1
1523010327021901,3,-6,-1,20,8,-4,0,0
1523010327021901,-7,-2,-1,-10,-13,-8,-2,-3
1523010327035939,-1,5,0,-13,-9,-4,-3,-5
1523010327035939,2,3,-1,1,-3,3,-1,0
1523010327036942,-30,-16,-3,-15,-8,2,-2,-4
1523010327036942,12,0,2,15,3,1,-4,2
1523010327059000,12,4,0,12,5,-3,4,1
1523010327059000,-12,-5,-4,6,1,-2,-1,0
1523010327060003,20,10,1,-4,1,0,0,1
1523010327060003,-7,-1,0,-12,-12,-7,-1,-2
1523010327081059,1,-1,-2,-14,-4,-9,-5,0
1523010327081059,-19,-9,-3,-2,-5,1,-2,-2
1523010327082062,12,5,1,4,2,6,1,1
1523010327082062,-1,-2,-2,-5,3,0,0,0
1523010327096098,-8,0,2,9,6,0,0,-6
1523010327096098,-11,-7,-1,6,5,1,0,-1
1523010327097101,9,10,0,0,-6,-5,-1,-1
1523010327097101,-2,-13,-4,-5,11,4,-2,2
1523010327119160,3,6,2,-5,-4,-14,0,0
1523010327119160,-1,-4,-3,-5,3,7,-2,0
1523010327120162,15,9,2,27,14,4,5,4
1523010327120162,-13,-6,-2,-4,-6,-4,0,-4
1523010327141218,-2,0,-2,-10,-15,-9,-2,0
1523010327141218,5,1,-1,-7,-2,-6,-2,0
1523010327142221,-7,-2,1,-9,2,-1,-2,-3
1523010327142221,-4,2,0,4,7,3,1,-3
1523010327164280,-10,-7,-2,-1,4,5,0,0
1523010327164280,10,4,0,-5,-7,-7,1,-1
1523010327165282,5,7,2,-3,-4,-9,-3,0
1523010327165282,-13,-9,-2,0,-1,-2,-1,-1
1523010327179320,2,-3,-3,12,15,10,0,0
1523010327179320,-4,0,3,16,6,-5,2,0
1523010327179320,8,4,-2,2,2,8,-2,-3
1523010327179320,-10,-8,-5,-29,-25,-9,-1,-3
1523010327201378,-9,-6,-5,-6,0,-4,-6,1
1523010327201378,20,13,1,34,33,8,4,1
1523010327202382,-11,-14,-2,-8,-2,1,1,-2
1523010327202382,14,13,3,6,2,2,2,0
1523010327216424,-24,-16,-3,-10,-12,1,-1,-6
1523010327216424,1,-7,-8,-13,-11,-9,-4,5
1523010327224440,5,5,-4,-5,-3,-2,-4,-2
1523010327224440,2,2,1,1,-3,5,0,-2
1523010327238477,2,8,3,3,-7,0,-1,1
1523010327238477,-11,-13,-1,-5,5,2,1,-2
1523010327239480,5,2,0,1,-4,-5,0,1
1523010327239480,4,6,-1,5,3,-2,-1,-1
1523010327261538,10,7,-1,-10,-18,-8,-1,0
1523010327261538,-7,-4,-4,-27,-18,5,-3,-3
1523010327262541,-3,2,4,54,68,6,6,3
1523010327262541,-4,1,-2,9,0,6,-3,-3
1523010327275575,0,-1,-2,0,-7,-3,-3,-2
1523010327275575,9,4,2,-24,-23,-7,0,1
1523010327284600,-4,-14,-7,-12,-5,5,0,0
1523010327284600,4,7,3,16,19,0,2,1
1523010327298637,8,-2,-1,0,6,3,1,2
1523010327298637,-3,-3,-2,-6,-12,-3,-1,-3
1523010327299640,0,3,4,-9,-14,-9,-3,-2
1523010327299640,-1,-9,-2,4,0,-1,0,0
1523010327321699,-2,-6,-4,-14,-24,0,-1,-1
1523010327321699,7,10,2,25,36,3,-3,-1
1523010327328717,0,-1,0,-5,-12,-3,-1,-1
1523010327328717,-8,1,0,-3,-4,0,-3,-3
1523010327335735,-10,-22,-6,-12,-16,-5,-4,-2
1523010327335735,18,11,-1,11,21,7,7,4
1523010327343757,-4,4,4,10,28,0,-2,-2
1523010327343757,-3,-3,-2,-4,-8,2,-3,1
1523010327358797,-4,0,3,10,13,8,8,-1
1523010327358797,-6,1,2,-3,-20,0,-5,-5
1523010327359800,-13,-28,-10,-15,-18,-2,-2,-1
1523010327359800,11,20,-1,0,2,-11,-2,0
1523010327381859,9,0,0,2,4,6,-2,3
1523010327381859,-2,-2,-1,-2,-4,-1,-1,-2
1523010327381859,-3,4,2,-5,-8,-5,-1,-2
1523010327381859,-10,-15,-6,-2,0,0,-1,-2
1523010327395896,6,11,-1,4,4,-3,-1,0
1523010327395896,4,3,0,-2,-5,-1,-2,1
1523010327403917,0,0,2,-3,-5,-2,-2,0
1523010327403917,-4,4,1,1,0,2,1,0
1523010327418957,3,-6,-2,0,2,-1,-2,-2
1523010327418957,-6,-9,-4,-6,-3,-3,-1,-2
1523010327419960,4,16,1,-1,-14,-3,-2,-1
1523010327419960,-7,-19,-5,-4,3,1,1,0
1523010327441016,-4,8,4,1,-1,-5,0,-3
1523010327441016,11,9,-1,2,12,5,-1,0
1523010327442019,-7,-13,-6,-17,-26,-4,-2,0
1523010327442019,11,17,0,5,10,-1,-1,0
1523010327465080,-2,1,-1,9,15,-3,1,0
1523010327465080,-7,-9,-2,-5,-18,-3,-2,-1
1523010327465080,4,11,2,-4,-5,-4,-2,-2
1523010327465080,-9,-11,-2,-10,-26,-10,-1,-4
1523010327479117,0,1,2,9,26,12,-2,-2
1523010327479117,-5,-11,-6,-2,-4,-3,-1,2
1523010327480120,-6,-17,-5,0,4,-11,-1,1
1523010327480120,14,15,2,-3,-10,16,1,0
1523010327501176,-1,-2,-4,-4,-3,-9,-5,0
1523010327501176,-6,4,5,0,0,-8,0,-3
1523010327502179,-7,2,1,-3,-12,-14,-3,-1
1523010327502179,5,-6,-4,16,20,12,4,3
1523010327524237,2,1,-3,-9,-9,6,3,-2
1523010327524237,2,-1,1,6,12,29,1,1
1523010327525240,-5,-1,0,-6,-14,-17,-6,-4
1523010327525240,0,2,1,-9,-11,-9,1,-2
1523010327539277,-5,-1,-2,-2,-5,-7,2,0
1523010327539277,-8,-9,0,5,-2,-9,-7,-4
1523010327539277,8,15,0,5,21,10,3,1
1523010327539277,-6,-10,-1,1,1,13,0,-1
1523010327561337,13,21,1,-7,-8,-6,-4,1
1523010327561337,-1,-13,-6,-5,-11,-14,7,0
1523010327562339,-4,-2,1,2,7,3,0,0
1523010327562339,-5,3,0,-15,-37,-27,-5,-3
1523010327584397,-10,-18,-1,-3,15,-57,-4,-4
1523010327584397,8,6,2,29,47,83,8,-1
1523010327585400,15,4,-2,5,22,26,-13,3
1523010327585400,-5,-4,3,6,6,-18,4,0
1523010327599441,-7,-5,-4,-25,-65,-9,-7,-3
1523010327599441,-2,6,-1,23,51,-40,8,2
1523010327599441,-8,-13,-4,-3,-2,13,5,-3
1523010327599441,-1,0,0,0,9,0,-7,-2
1523010327621496,-1,1,1,-1,-4,-2,-4,-2
1523010327621496,-6,4,0,-15,-25,-8,-8,-2
1523010327622498,9,-6,-3,0,-7,1,8,4
1523010327622498,7,5,-2,-2,7,5,-5,-3
1523010327644557,-8,-12,-2,9,14,20,4,0
1523010327644557,10,6,-1,-9,-19,-3,-2,-2
1523010327645560,-13,-2,-1,-14,-25,-18,0,-1
1523010327645560,-9,-13,-7,-8,7,2,-2,0
1523010327658594,10,5,2,10,2,-37,0,-2
1523010327658594,6,8,2,12,19,29,-3,-1
1523010327659597,10,15,3,6,12,22,5,-4
1523010327659597,-16,-24,-6,-11,-14,10,4,0
1523010327681656,-8,0,-2,2,12,14,-1,-2
1523010327681656,-9,-8,-4,-18,-25,-33,-8,-2
1523010327682662,6,7,0,-4,-9,-17,-1,-2
1523010327682662,-8,2,4,2,5,31,4,2
1523010327704717,1,6,0,4,11,2,1,-1
1523010327704717,35,2,-7,-14,-34,-30,-2,5
1523010327705720,0,-1,-2,-23,-7,16,1,-3
1523010327705720,-1,-1,2,45,33,-15,1,-2
1523010327718754,-7,2,7,6,16,70,10,-2
1523010327718754,3,3,-2,-28,-23,-42,-4,-1
1523010327719757,-13,-15,-7,-6,-15,-9,-6,0
1523010327719757,11,8,3,27,24,-8,2,3
1523010327741816,4,4,0,5,-15,0,-3,-4
1523010327741816,-4,-4,1,-16,4,26,2,-1
1523010327741816,-10,-6,1,32,36,1,5,0
1523010327741816,0,3,-3,-24,-22,-24,-6,-4
1523010327764877,24,8,-3,10,17,17,-5,2
1523010327764877,-27,-12,2,-16,-22,-25,-4,-7
1523010327765883,3,-1,-4,-7,-8,-6,-6,-3
1523010327765883,12,12,3,4,1,6,3,4
1523010327778914,-23,-16,-4,-2,2,9,1,-4
1523010327778914,27,11,-2,0,1,0,1,4
1523010327779917,-10,-7,-1,4,1,-5,-1,-3
1523010327779917,9,4,-1,-1,-1,1,-1,-1
1523010327800973,-11,-7,-2,-19,-12,-11,0,1
1523010327800973,-10,3,0,-3,-12,7,-3,-3
1523010327801976,-11,-16,-4,15,27,-2,0,-3
1523010327801976,25,8,-1,-9,-9,2,-1,0
1523010327825037,-1,0,-1,12,-6,-3,0,4
1523010327825037,4,-3,-2,-4,10,-2,-1,-1
1523010327825037,10,9,3,1,-5,0,-2,-4
1523010327825037,-23,-10,-1,-1,-3,4,-3,-8
1523010327839074,-20,-15,-1,9,8,-2,-2,-2
1523010327839074,3,1,-2,3,-7,13,-5,-5
1523010327840077,23,6,-2,-31,-30,-31,-1,7
1523010327840077,-17,-7,-1,-19,-2,21,-3,-4
1523010327861133,16,10,6,41,38,7,6,0
1523010327861133,-11,-9,-2,-4,-14,-8,-2,2
1523010327862136,-10,0,1,3,-5,-5,-1,-2
1523010327862136,-10,-6,-2,-3,-14,-13,-2,-2
1523010327885197,7,2,-4,-23,-7,-10,-5,0
1523010327885197,-11,-3,4,22,21,9,4,2
1523010327886200,-9,2,3,4,4,19,2,2
1523010327886200,12,-3,-5,3,-6,-15,1,2
1523010327899239,-5,-8,-5,-25,-9,-7,-1,0
1523010327899239,3,6,-1,-1,-3,1,3,-1
1523010327899239,-3,4,1,2,0,1,-2,-1
1523010327899239,15,6,1,-23,1,5,2,3
1523010327921293,-14,-9,-4,2,-3,-14,-10,-2
1523010327921293,3,2,0,4,3,13,2,-1
1523010327922296,-4,-8,-4,-5,-30,-24,2,0
1523010327922296,-2,-1,-4,-1,21,8,-9,0
1523010327944354,11,7,3,0,20,34,3,-2
1523010327944354,7,8,4,-21,-13,-12,-2,-1
1523010327945357,-49,-28,-3,44,20,12,3,1
1523010327945357,20,2,-4,-21,-26,-36,-5,2
1523010327958391,7,6,-3,-6,-13,0,1,0
1523010327958391,-15,-7,2,23,7,12,-3,-7
1523010327959394,27,20,0,-24,-6,-1,-2,-1
1523010327959394,-15,-13,-4,-22,-16,-13,-2,3
1523010327981453,27,15,10,57,28,9,4,5
1523010327981453,-31,-12,-2,32,18,4,0,-7
1523010327982458,1,-2,-2,-2,-7,-1,2,1
1523010327982458,16,7,-1,8,0,1,-2,3
1523010328004514,-5,-1,-4,-40,-5,17,-1,-1
1523010328004514,4,3,2,-2,-2,-11,4,7
1523010328005517,-8,0,-1,1,6,1,-5,-5
1523010328005517,-18,-8,-1,2,-2,3,0,-8
1523010328018551,-3,-8,-6,-8,-17,-21,-1,2
1523010328018551,17,0,-3,1,6,3,-3,0
1523010328019554,-23,-6,-3,-18,-6,5,0,-4
1523010328019554,-15,-2,3,9,7,5,1,-5
1523010328041613,40,8,-2,0,-14,-14,-2,2
1523010328041613,-28,-14,-3,-5,9,3,1,-3
1523010328042615,24,4,1,4,-6,-1,-3,0
1523010328042615,-1,3,1,2,1,10,1,1
1523010328064674,-49,-5,4,-26,-19,-14,-5,-12
1523010328064674,18,-13,-9,-2,4,-8,1,13
1523010328065677,22,11,3,36,39,28,6,3
1523010328065677,-16,-5,-2,4,0,3,1,-1
1523010328077709,4,1,-2,-16,-18,-1,3,1
1523010328077709,-14,-4,-2,-8,-18,-13,-4,-6
1523010328086733,1,3,-1,-11,-2,-6,-6,-2
1523010328086733,8,3,2,9,-2,1,-1,-2
1523010328101773,-41,-18,-4,-6,0,-2,-1,2
1523010328101773,22,11,1,-4,0,-1,-1,2
1523010328101773,5,1,1,2,-2,-4,0,1
1523010328101773,-12,-3,-5,-22,-8,-2,-1,-2
1523010328124834,-2,-2,3,22,1,0,-2,-4
1523010328124834,31,1,-1,-2,9,3,0,6
1523010328125837,-12,-5,-3,3,2,-2,-2,-2
1523010328125837,-2,-3,-1,4,3,-5,-1,-3
1523010328137869,14,6,-1,-3,-6,-1,-1,-1
1523010328137869,-15,-2,1,-6,-3,-5,-3,-5
1523010328146893,3,0,-1,-11,-7,4,0,0
1523010328146893,8,2,-2,5,2,-6,-2,4
1523010328160930,-28,-14,-4,7,5,16,1,-6
1523010328160930,13,12,2,-5,-8,0,0,-1
1523010328161933,-1,0,-1,-22,-8,-10,-2,-2
1523010328161933,-1,-1,1,2,12,3,-1,0
1523010328183992,9,1,4,34,9,-4,-2,1
1523010328183992,-24,-5,-3,-7,-3,6,-2,-5
1523010328184994,-2,-6,-4,-6,-2,1,-3,-3
1523010328184994,8,-1,-6,-29,-26,-3,1,4
1523010328198029,6,-2,-4,-14,16,-9,0,-1
1523010328198029,-4,1,6,50,22,-1,-4,-2
1523010328206050,2,0,1,4,-4,3,2,-2
1523010328206050,-8,-4,-4,5,0,2,3,-1
1523010328221090,18,5,-2,-33,-23,-12,-4,0
1523010328221090,-13,-3,-1,-16,-14,-6,-1,-3
1523010328222093,8,7,1,11,15,4,-7,4
1523010328222093,7,3,2,2,-6,-13,-5,-2
1523010328244152,-13,-6,-2,-3,3,16,7,3
1523010328244152,-13,-8,-3,-20,-16,-19,-5,-1
1523010328245154,10,6,6,35,22,24,6,2
1523010328245154,-3,3,1,11,13,16,5,-2
1523010328258189,-16,-8,-1,4,4,-7,-3,-1
1523010328258189,0,-1,-5,-49,-36,-10,-1,0
1523010328266210,22,9,-6,-3,0,-10,-2,2
1523010328266210,10,0,5,46,40,-1,-3,-1
1523010328281250,7,2,1,7,10,6,0,-3
1523010328281250,-17,-6,1,2,1,10,1,-3
1523010328282253,-14,-3,-4,-35,-31,-16,-1,-1
1523010328282253,9,-5,-5,-9,-6,5,0,4
1523010328304312,13,7,1,0,-4,-10,-2,-1
1523010328304312,-10,-13,-4,-3,0,2,-1,-1
1523010328304312,-4,3,3,-2,-1,4,-1,-4
1523010328304312,-1,3,4,4,1,-5,-1,-3
1523010328318349,-7,-7,-2,-7,-9,-4,2,2
1523010328318349,13,6,-3,5,5,4,0,1
1523010328326370,3,-3,0,1,1,-2,0,0
1523010328326370,-12,-4,-1,-7,-8,-3,-2,-3
1523010328341410,14,16,2,-20,-36,-10,-3,-1
1523010328341410,4,-11,0,37,62,8,0,0
1523010328342413,-3,-4,-1,4,9,10,0,-4
1523010328342413,-2,0,-1,-7,-9,4,0,-3
1523010328363469,-10,-10,-3,0,2,1,2,-1
1523010328363469,-10,-9,-4,-28,-43,-10,-1,1
1523010328364472,12,0,-2,9,8,-26,-5,0
1523010328364472,1,-2,0,4,7,19,-3,-2
1523010328378509,-1,-4,-2,0,-1,10,-1,-2
1523010328378509,8,15,4,6,2,0,1,-1
1523010328386530,-4,-16,-4,-16,-15,-9,-2,0
1523010328386530,-5,1,-5,-4,-10,-10,0,2
1523010328401570,9,6,1,10,11,-2,-2,1
1523010328401570,-7,-5,2,-1,-2,4,1,-2
1523010328402573,-9,2,2,-3,-8,-3,1,-4
1523010328402573,-1,-4,-2,-3,3,-9,-2,0
1523010328423629,-10,-4,3,5,4,12,0,1
1523010328423629,20,15,-10,-6,-1,-3,-3,1
1523010328424632,1,1,3,27,44,14,8,3
1523010328424632,13,5,-1,-5,-5,-6,-1,-1
1523010328446690,0,-3,-2,1,-3,-1,0,0
1523010328446690,-7,-1,2,-6,-22,-7,-2,-2
1523010328447693,-14,3,2,-23,-35,-14,-13,-4
1523010328447693,0,-12,-4,23,31,19,17,3
1523010328461730,12,6,-1,3,5,5,0,1
1523010328461730,4,6,3,7,4,17,3,1
1523010328461730,0,-6,-1,-12,-15,-15,-3,0
1523010328461730,-10,1,3,-8,-18,-15,-10,-5
1523010328483789,3,2,-3,-4,-5,-7,-3,-1
1523010328483789,-2,1,1,5,6,4,0,-2
1523010328484792,-2,-2,-2,-7,-13,9,2,-1
1523010328484792,-2,2,-2,-4,5,-5,-1,0
1523010328507853,4,2,-4,-4,-30,-8,2,-1
1523010328507853,-8,-12,0,16,46,4,-3,-2
1523010328508856,0,3,0,6,13,2,5,-1
1523010328508856,-11,-6,-1,-12,-27,8,-4,-3
1523010328520888,-1,4,-1,14,37,-6,-2,0
1523010328520888,6,1,-1,-3,-29,-4,-1,-1
1523010328521890,4,9,-3,-2,-2,-2,-4,-4
1523010328521890,1,0,0,-2,3,-6,-3,2
1523010328543949,-6,-5,-1,-12,-11,14,8,2
1523010328543949,-10,-2,3,2,-3,-7,-2,-3
1523010328544952,-9,-19,-3,0,3,-4,1,0
1523010328544952,11,18,1,-4,-9,16,1,3
1523010328567010,8,-3,-4,-6,-11,-9,-4,-2
1523010328567010,7,11,0,-5,-11,-11,-1,0
1523010328568013,-12,-19,0,20,49,24,1,0
1523010328568013,-7,0,0,-4,-8,-10,-3,-2
1523010328581047,-5,-2,-1,6,5,-2,-2,-3
1523010328581047,1,1,-2,-6,-8,6,3,-1
1523010328582050,-9,-3,0,-11,-29,-16,-2,-2
1523010328582050,5,11,1,0,2,-1,-2,-1
1523010328604109,10,-3,-4,-5,6,3,-1,1
1523010328604109,-2,-1,-3,-1,-1,-12,-4,-2
1523010328605112,8,10,1,-6,-7,9,-1,-1
1523010328605112,-2,-15,-6,1,3,-2,3,1
1523010328628173,-8,-3,0,-2,0,0,-3,-4
1523010328628173,-3,0,1,0,2,-2,0,1
1523010328628173,1,2,0,-1,-5,7,2,1
1523010328628173,-4,-3,2,-1,0,-5,1,-1
1523010328641208,-4,-2,0,-2,-1,-3,-2,-1
1523010328641208,-4,-7,-5,1,-1,-1,0,-1
1523010328642210,15,16,-2,-4,0,-1,1,4
1523010328642210,3,5,0,0,0,-4,-5,-1
1523010328664269,-6,-5,0,1,-1,-4,-1,-1
1523010328664269,-5,-7,0,-2,2,4,0,-4
1523010328671287,4,9,-1,-8,-30,-8,1,2
1523010328671287,7,8,-2,3,1,-10,0,1
1523010328687330,-9,-17,-2,7,23,13,-1,-3
1523010328687330,-1,-2,3,2,6,14,4,1
1523010328688333,-10,-7,-4,-12,-17,-9,-2,-3
1523010328688333,12,4,-9,-15,-6,-9,-4,-2
1523010328701367,-6,3,2,25,22,5,-1,-1
1523010328701367,5,3,-2,-3,-7,-2,0,2
1523010328702370,6,-9,-4,0,7,2,-1,1
1523010328702370,-5,-3,-1,-3,-7,-3,2,2
1523010328723426,10,8,2,-13,-13,-10,-3,-2
1523010328723426,-5,-1,2,4,7,2,-1,0
1523010328724429,-5,-2,3,3,-4,7,2,0
1523010328724429,-7,-9,-1,3,19,1,-1,-3
1523010328747490,10,8,0,-9,-13,-9,0,2
1523010328747490,-8,-8,-1,5,2,-1,1,-3
1523010328747490,1,2,-1,0,2,0,1,2
1523010328747490,-5,-7,-3,0,-4,5,1,1
1523010328761527,-9,-5,-4,-5,-2,-4,0,0
1523010328761527,43,15,0,-4,-3,-3,0,9
1523010328762530,-12,-6,-1,1,1,0,-4,-11
1523010328762530,-4,-4,4,7,2,1,1,6
1523010328783586,-11,1,2,-1,-1,-1,-1,-5
1523010328783586,-5,1,-1,-1,-5,-2,-4,-4
1523010328784589,-2,-9,-7,-4,2,8,-3,4
1523010328784589,7,7,1,0,2,-4,1,2
1523010328806647,-2,-2,0,-2,-5,-9,-1,-3
1523010328806647,3,1,-2,-6,4,3,1,2
1523010328807650,3,5,-1,3,-5,-5,1,-2
1523010328807650,-17,-8,0,3,5,1,-3,-8
1523010328821688,5,-3,-3,1,-6,-3,0,5
1523010328821688,-2,1,-4,-15,-16,-2,-4,-11
1523010328822690,-22,-16,-7,-34,4,-4,-1,-1
1523010328822690,8,-5,4,55,25,5,1,1
1523010328843746,-4,1,1,-1,-5,-1,-1,-3
1523010328843746,-4,2,0,15,4,-4,0,-6
1523010328844749,8,4,0,-9,-11,0,0,0
1523010328844749,-8,-1,-3,-27,-19,-8,-1,-5
1523010328866807,-1,-5,-4,-6,4,-3,-2,2
1523010328866807,-9,-7,2,-2,-5,6,1,2
1523010328867810,14,9,-1,3,12,-12,-4,3
1523010328867810,0,-2,-2,-2,0,22,3,-5
1523010328881848,2,4,1,6,2,1,0,2
1523010328881848,-27,-12,-3,-6,-6,-8,-4,-1
1523010328881848,21,9,-1,9,1,-6,0,8
1523010328881848,-6,-2,0,-5,-6,-3,-3,-6
1523010328903906,0,7,-1,-9,-2,1,-4,-2
1523010328903906,4,-11,-4,-2,0,0,0,1
1523010328904909,-16,-5,-1,13,9,4,-3,-9
1523010328904909,13,0,-4,-14,1,-3,-2,3
1523010328926967,-2,7,2,22,9,1,1,-5
1523010328926967,3,4,-1,-16,-5,-4,1,5
1523010328927970,-13,-3,2,2,-7,2,1,-3
1523010328927970,31,9,0,11,2,0,0,4
1523010328941005,-42,-23,-3,19,11,7,2,-2
1523010328941005,0,2,1,10,3,1,-3,-5
1523010328949026,-1,11,-1,-12,-18,-5,1,4
1523010328949026,-6,-4,-5,-20,-13,-3,1,-3
1523010328964066,10,3,2,-5,-8,-17,-1,3
1523010328964066,-1,-1,1,8,9,8,1,-2
1523010328965070,10,3,-4,0,5,8,3,8
1523010328965070,-1,2,1,2,-1,-3,-3,0
1523010328987127,-5,-7,-5,-7,-7,-4,-1,-3
1523010328987127,5,2,0,-9,-6,-4,1,-2
1523010328988130,2,0,3,5,4,-4,-2,-5
1523010328988130,-5,0,-2,3,5,0,-1,-1
1523010329001165,7,0,0,-9,-11,-2,0,-1
1523010329001165,-21,-3,-2,-1,-6,-3,-3,-5
1523010329002168,0,0,-2,-54,-22,-11,-4,-5
1523010329002168,9,1,-2,35,22,16,0,-3
1523010329024226,-14,-12,-2,20,1,6,4,4
1523010329024226,23,2,-2,-8,1,-2,1,1
1523010329031245,-7,0,2,14,2,5,0,-2
1523010329031245,-14,-6,-6,-48,-25,-11,-5,-3
1523010329047287,11,8,-2,-19,-4,-2,-3,-1
1523010329047287,-9,-1,2,21,12,6,0,-3
1523010329048290,-11,-8,-2,-1,-6,-3,0,-2
1523010329048290,-2,5,3,1,-1,-1,0,4
1523010329060322,0,1,-1,4,7,6,-3,-4
1523010329060322,-10,-5,-1,-6,-3,-8,0,3
1523010329076365,31,11,-3,10,5,-2,-3,-7
1523010329076365,-23,-20,-7,-50,-41,-2,-1,2
1523010329084386,13,4,1,25,48,2,0,0
1523010329084386,14,7,4,51,20,-5,-2,-2
1523010329084386,-13,-6,-1,12,1,5,5,0
1523010329084386,7,5,1,10,8,8,-2,3
1523010329107447,-19,-4,-2,-49,-30,4,0,-4
1523010329107447,5,-5,-6,-22,-4,4,-1,2
1523010329107447,9,2,1,17,3,-6,-4,-1
1523010329107447,-2,0,-3,-10,-8,-18,-2,-4
1523010329120482,-6,-1,2,-9,-2,-5,0,-2
1523010329120482,-7,6,3,15,13,5,-1,-2
1523010329128503,-2,-12,-2,1,-4,-3,2,7
1523010329128503,14,5,0,-14,-23,-8,-3,1
1523010329143543,-7,-6,-2,-1,15,3,-2,-1
1523010329143543,-4,-1,1,4,-4,2,2,1
1523010329144546,-5,0,0,3,7,-8,-2,-3
1523010329144546,-13,-7,3,13,11,2,1,-3
1523010329166605,32,14,-2,-5,-12,-2,-1,4
1523010329166605,-5,-15,-9,-43,-26,-13,1,4
1523010329167607,5,-1,-3,15,31,17,-8,-4
1523010329167607,-6,-6,1,19,12,4,0,-1
1523010329180642,1,3,5,8,0,0,3,-2
1523010329180642,-9,-1,-3,-7,-8,-7,-5,-5
1523010329188663,-6,0,0,-9,-5,-10,0,0
1523010329188663,5,6,-1,5,4,3,1,0
1523010329203703,1,-7,-2,-21,-18,-4,-5,-2
1523010329203703,-3,4,1,-2,1,0,-1,-2
1523010329204706,-3,4,2,3,-3,-3,3,1
1523010329204706,9,10,-2,-6,-13,0,-3,0
1523010329227767,2,-6,0,12,16,5,4,3
1523010329227767,0,-4,1,0,7,1,0,-2
1523010329228770,-11,0,3,2,-4,1,-1,-4
1523010329228770,3,-2,-4,-11,-16,-12,-2,0
1523010329240802,15,9,-3,-3,3,3,-4,-2
1523010329240802,0,-4,-2,2,12,17,4,-1
1523010329248823,-3,-4,2,7,5,-5,-2,0
1523010329248823,-16,-24,-3,5,6,-5,0,-3
1523010329263863,7,8,-1,-3,-12,0,1,-2
1523010329263863,-11,-6,-3,-4,-4,-2,-1,1
1523010329264866,-3,-2,-2,-21,-29,-3,1,-2
1523010329264866,2,8,2,23,38,-1,-2,0
1523010329285922,5,-2,2,12,17,2,1,0
1523010329285922,1,-3,1,-3,0,-3,2,-2
1523010329286925,-1,4,-1,-9,-22,0,-6,-1
1523010329286925,-4,-7,-4,0,-3,-1,7,-1
1523010329300962,-1,-5,-1,0,-4,-13,-3,1
1523010329300962,-3,2,0,-2,-9,3,-6,0
1523010329308983,-5,-2,-2,-2,7,11,5,-4
1523010329308983,0,4,0,-2,-10,-5,-5,-2
1523010329324023,-4,3,0,3,7,1,-3,0
1523010329324023,-6,-13,-4,-2,-5,-9,-3,-2
1523010329325026,13,11,-3,-5,-9,-2,2,3
1523010329325026,0,0,-3,3,7,7,1,0
1523010329346082,-4,-2,-1,-4,-6,6,0,-1
1523010329346082,1,11,4,-4,-6,-12,-4,-1
1523010329347085,-11,-18,-4,10,12,9,-2,0
1523010329347085,6,8,0,2,4,3,1,2
1523010329369143,6,5,-3,-6,-8,-7,0,2
1523010329369143,0,-4,0,2,2,-1,-3,-1
1523010329370146,-1,6,1,-4,-4,-4,1,-2
1523010329370146,3,4,0,-4,-12,3,3,3
1523010329384183,-9,-12,-5,-7,-9,-2,-3,0
1523010329384183,1,6,1,-5,-22,-3,-2,-4
1523010329385186,2,-7,-7,11,30,12,4,4
1523010329385186,-7,3,0,-5,-11,-7,1,-2
1523010329406242,2,0,-1,-2,11,-7,-16,-4
1523010329406242,-1,-6,-3,-5,-8,0,-4,0
1523010329407245,-3,6,4,-2,0,-1,3,1
1523010329407245,3,-2,-1,-3,1,3,4,0
1523010329429303,8,3,-4,-7,-12,-6,3,2
1523010329429303,1,-2,-1,5,10,-3,3,0
1523010329430306,2,5,4,5,-2,-10,-10,-3
1523010329430306,-21,-22,-5,-2,1,10,-4,-2
1523010329444343,-10,-7,3,5,-8,-3,4,-1
1523010329444343,3,5,-5,-3,2,6,-2,-2
1523010329444343,10,7,-1,-9,-23,-3,0,0
1523010329444343,12,11,2,8,28,-5,-1,-1
1523010329466402,-4,-6,-3,-1,-6,-1,1,0
1523010329466402,-5,-11,-1,-1,-7,-3,0,2
1523010329467405,-4,-1,-1,1,11,9,1,-1
1523010329467405,-7,-2,0,-4,-9,-6,-2,-4
1523010329489463,4,4,-1,-3,0,1,-3,-1
1523010329489463,-9,-15,-6,2,7,0,2,-2
1523010329490466,7,4,0,1,-1,-9,0,-2
1523010329490466,1,-1,0,-3,-10,-10,-6,1
1523010329503501,-1,1,-3,-1,2,9,3,-1
1523010329503501,-8,-1,4,-5,-7,7,4,-1
1523010329504504,-1,1,-2,-5,3,-7,-5,-1
1523010329504504,-2,-11,-1,4,10,5,-2,-3
1523010329526562,4,3,0,-9,-16,-21,0,0
1523010329526562,7,8,-3,1,7,11,-2,-1
1523010329527565,-25,-21,-2,8,7,6,0,-2
1523010329527565,18,18,1,-4,-9,-5,1,1
1523010329549623,-3,-9,-4,-7,-11,-2,-1,0
1523010329549623,8,10,-3,-8,-12,-11,-3,-1
1523010329550626,-2,-8,2,10,27,9,1,-2
1523010329550626,1,-3,-5,-1,-2,-2,-6,-3
1523010329563660,-12,-9,-2,-3,1,1,1,-2
1523010329563660,11,8,2,0,-1,5,0,1
1523010329564664,3,7,2,-2,-5,-9,1,-2
1523010329564664,-20,-21,0,-2,-2,-11,0,-2
1523010329586722,9,5,-2,0,0,10,-4,-4
1523010329586722,0,-8,-2,-1,9,-6,1,3
1523010329586722,-2,-5,-4,-8,-9,-4,-1,-4
1523010329586722,-3,1,1,-5,-13,5,-1,0
1523010329609783,-1,2,3,4,12,-6,0,0
1523010329609783,-15,-1,3,8,15,5,3,2
1523010329610786,24,-1,-11,-16,-21,-9,-3,1
1523010329610786,0,2,2,10,14,-1,-2,-3
1523010329623821,-6,-1,-1,1,1,6,2,-2
1523010329623821,9,4,-2,0,-2,-1,-2,-2
1523010329624824,-9,-7,-1,-3,-6,-15,-1,-2
1523010329624824,-3,1,0,-19,-13,11,-2,-1
1523010329646882,3,3,0,13,4,-2,-2,1
1523010329646882,0,-1,1,-4,4,1,-1,-1
1523010329646882,-9,-8,-1,2,-3,-1,3,-1
1523010329646882,7,5,-3,-1,0,-3,0,1
1523010329669943,10,6,1,-3,0,1,0,3
1523010329669943,1,12,2,-1,-8,-5,-2,-3
1523010329669943,-6,-10,-4,3,5,1,-5,-5
1523010329669943,9,6,1,-18,-10,-5,0,-3
1523010329683981,-14,-11,2,42,29,8,-1,-3
1523010329683981,5,4,0,-5,-11,-6,2,2
1523010329684984,-6,5,-1,1,5,7,-2,-3
1523010329684984,-3,-3,-2,6,3,1,1,1
1523010329706039,4,7,0,-21,-21,-6,-1,-3
1523010329706039,-9,-8,-1,-1,6,-4,-2,-1
1523010329707042,-5,-7,-2,0,1,-3,-2,2
1523010329707042,-5,0,-2,2,2,2,0,1
1523010329730103,1,1,-1,-1,-1,0,0,2
1523010329730103,4,-1,-3,2,5,-2,-2,-7
1523010329731106,25,10,0,-6,-8,-3,0,5
1523010329731106,-24,-11,-1,0,1,5,-3,-5
1523010329744141,-15,-9,-4,-3,-1,0,1,-2
1523010329744141,13,6,2,4,-3,-5,-5,-1
1523010329751159,-9,-6,-2,-5,-3,4,0,0
1523010329751159,15,6,2,0,-9,-1,2,-2
1523010329774221,-23,-8,-1,-8,1,2,-4,-9
1523010329774221,6,-3,-2,7,4,0,0,5
1523010329775224,6,5,4,27,19,3,-1,-4
1523010329775224,-1,1,-1,-12,-19,3,0,3
1523010329789260,-5,-8,-6,-16,-1,-5,0,0
1523010329789260,-2,-1,0,6,-4,1,0,3
1523010329790263,10,9,-1,1,-5,-7,-4,0
1523010329790263,-17,-11,0,11,11,2,-1,-1
1523010329804301,-20,-7,-1,-16,-10,1,-1,-2
1523010329804301,17,0,-4,-7,-3,-4,0,1
1523010329804301,-16,-4,1,0,-2,4,0,-3
1523010329804301,5,0,-1,1,4,-2,-2,1
1523010329826359,16,7,1,1,-6,-3,3,5
1523010329826359,-19,-6,0,0,1,1,1,-5
1523010329827362,-26,-6,-1,-3,-2,1,0,-3
1523010329827362,22,5,-3,-2,2,-6,0,3
1523010329849420,4,-4,-2,3,-1,-1,-1,2
1523010329849420,10,0,-4,-8,-10,-7,0,1
1523010329850423,-2,2,-2,-9,-6,-6,-2,-3
1523010329850423,-39,-12,1,13,14,8,1,-7
1523010329863458,-1,-1,-1,-17,-19,0,-2,-1
1523010329863458,-1,1,1,21,20,4,2,6
1523010329864461,9,3,-2,-10,-12,-6,-4,-1
1523010329864461,6,6,0,-4,-2,-3,-3,-4
1523010329886519,0,-5,-2,-3,-3,-3,-1,3
1523010329886519,-12,-4,-3,-17,-10,1,-6,-5
1523010329887522,0,2,0,5,3,1,5,1
1523010329887522,-4,2,0,0,-5,-4,3,0
1523010329909580,-5,-4,-4,-6,4,0,1,3
1523010329909580,15,3,1,-6,2,-2,0,1
1523010329910583,2,-3,-2,11,2,-6,-2,4
1523010329910583,11,2,1,8,1,2,-5,-3
1523010329923618,-36,-7,-1,6,-3,-1,0,-7
1523010329923618,7,-6,-4,-21,-8,-6,0,0
1523010329924621,12,0,-7,-22,-9,-3,-4,2
1523010329924621,1,0,8,43,18,8,4,2
1523010329946679,5,6,3,23,10,0,-3,-1
1523010329946679,-14,-4,-4,-10,-10,1,0,-3
1523010329947682,1,1,-1,-1,0,2,0,-1
1523010329947682,11,1,-5,-15,-8,-5,-1,4
1523010329969740,-3,5,1,7,4,0,0,-2
1523010329969740,-4,-3,0,-2,-2,1,3,-2
1523010329970743,-9,-4,3,-7,-9,-4,-1,-3
1523010329970743,1,-6,-7,-10,-7,-6,-2,3
1523010329982775,23,4,-2,2,11,3,-2,1
1523010329982775,7,3,1,0,-3,0,2,0
1523010329991799,-9,-6,-5,-41,-16,0,-2,-3
1523010329991799,-5,-1,5,72,30,4,-2,-8
1523010330006839,-3,7,3,-2,-8,-3,1,-4
1523010330006839,-27,-8,-4,8,-2,-6,-4,-1
1523010330006839,19,2,-1,-9,0,5,2,5
1523010330006839,0,3,-3,-41,-12,-2,-1,-1
1523010330029900,13,4,2,6,1,-3,-1,-1
1523010330029900,-14,1,1,11,9,4,-1,-5
1523010330029900,-9,1,1,7,-1,0,1,0
1523010330029900,-3,-5,-4,-31,-24,-6,-2,-1
1523010330042935,21,-3,-4,7,15,-3,-2,4
1523010330042935,4,3,0,-1,-2,1,-2,1
1523010330051959,-1,-2,-1,1,-1,-2,0,0
1523010330051959,8,2,2,-16,-14,-11,-3,-2
1523010330065996,-24,-7,1,18,8,3,-4,-3
1523010330065996,-10,-11,-2,0,2,2,0,-2
1523010330066999,20,12,-1,-1,2,0,1,1
1523010330066999,-27,-18,-9,-28,-10,-1,-2,-2
1523010330090060,20,6,4,21,7,1,0,1
1523010330090060,5,1,2,5,2,-4,-2,-1
1523010330090060,-16,-7,-1,15,9,7,-1,-3
1523010330090060,8,3,0,-19,-14,-6,0,0
1523010330104098,2,-5,-7,-36,-16,-6,-2,-1
1523010330104098,-6,-2,2,26,28,4,0,0
1523010330111116,-9,-2,4,10,1,0,1,-1
1523010330111116,28,8,-6,-7,2,-3,-2,3
1523010330126156,3,0,-3,-50,-30,-6,0,-1
1523010330126156,5,1,5,80,72,17,4,0
1523010330127159,-1,3,2,2,1,-7,-2,0
1523010330127159,-20,-13,0,13,13,0,-1,-3
1523010330149218,9,11,0,-8,-12,-1,1,7
1523010330149218,10,0,-11,-47,-35,-12,-7,-9
1523010330150220,2,-2,-1,4,5,-1,0,-1
1523010330150220,-7,0,4,15,13,17,1,-1
1523010330163255,1,-4,-5,-4,-1,-1,2,4
1523010330163255,-12,-5,3,-17,-15,-1,0,4
1523010330171277,30,9,-2,10,0,-10,1,7
1523010330171277,-3,-1,-2,-10,-12,-2,0,-4
1523010330187319,-14,-6,4,10,8,3,-9,-19
1523010330187319,-24,-17,-1,-3,-6,0,6,11
1523010330187319,22,19,-4,-2,-2,-4,1,1
1523010330187319,1,0,-3,-8,-19,-17,-12,-13
1523010330210380,5,3,-2,-7,12,16,3,2
1523010330210380,1,0,3,17,21,-10,-6,-6
1523010330211383,-25,-13,0,0,-1,26,2,-1
1523010330211383,-11,-6,4,10,9,9,5,8
1523010330223415,30,13,-12,-39,-67,-26,-3,-2
1523010330223415,2,0,4,22,31,2,4,1
1523010330231437,-7,-8,4,9,11,3,0,-2
1523010330231437,-18,-4,2,11,9,8,0,-3
1523010330246476,-8,-7,0,5,0,-1,1,2
1523010330246476,10,4,-6,-29,-40,-9,-3,-2
1523010330247479,-5,1,-2,2,-4,-6,-4,-2
1523010330247479,1,10,2,6,11,5,0,2
1523010330269538,-18,-16,2,6,1,-6,-1,2
1523010330269538,3,-9,-9,-15,-12,4,-2,1
1523010330270541,1,3,1,-3,-32,-7,4,-2
1523010330270541,15,11,-8,-26,-9,-14,-8,-2
1523010330283575,-6,6,7,33,37,10,2,-2
1523010330283575,2,10,1,2,4,1,-7,-5
1523010330291597,-14,-18,1,2,2,1,-4,0
1523010330291597,5,-1,-4,-10,-27,-20,1,5
1523010330306636,-2,3,-4,-2,-6,0,-4,-1
1523010330306636,-3,1,1,-10,-14,7,-5,-4
1523010330307639,12,8,-4,-8,-7,-6,7,0
1523010330307639,4,1,-1,5,10,2,-4,4
1523010330329698,-13,-5,0,6,5,-6,-5,-2
1523010330329698,-13,-30,-4,-9,-10,2,4,1
1523010330330700,7,15,-3,-2,11,2,-4,0
1523010330330700,9,8,2,-1,-14,-4,2,-3
1523010330351756,-3,5,-5,-2,12,5,0,0
1523010330351756,-6,-2,3,10,15,3,2,0
1523010330352759,-9,-9,-3,-1,4,-4,-2,-3
1523010330352759,4,2,0,4,2,-2,0,1
1523010330366796,-1,-4,-2,-12,-19,4,-3,0
1523010330366796,1,-9,-7,-16,-32,-6,4,-3
1523010330366796,-5,-6,2,15,29,9,-1,-1
1523010330366796,-5,-3,2,8,13,1,1,-3
1523010330389858,10,1,-2,1,4,-2,-6,0
1523010330389858,0,3,0,-7,-2,-13,-10,0
1523010330390860,-12,1,-3,-6,-13,0,5,1
1523010330390860,-1,-10,-5,-3,-1,-8,-4,0
1523010330411916,10,5,1,2,5,9,4,-3
1523010330411916,-5,2,1,-5,-5,2,0,0
1523010330412919,3,5,-2,-13,-13,-7,0,0
1523010330412919,-3,-26,-2,14,34,18,-8,0
1523010330425954,-2,-7,1,5,-1,-5,2,0
1523010330425954,3,13,2,-6,-10,-6,0,-3
1523010330426956,-9,-10,0,-5,6,5,-3,-3
1523010330426956,-1,2,-3,0,5,7,5,-1
1523010330450018,-4,-1,4,12,7,-2,0,0
1523010330450018,5,5,1,7,14,9,3,0
1523010330450018,-1,-5,-3,-4,-11,-15,-6,-3
1523010330450018,13,16,2,-4,-11,5,0,-1
1523010330472077,-5,-20,-5,-6,-6,-1,1,1
1523010330472077,1,5,1,-6,-8,-9,-2,-3
1523010330473079,-6,-7,-1,2,6,3,1,0
1523010330473079,-6,0,1,-3,-3,-3,0,-2
1523010330487117,-3,0,1,1,3,-1,3,-1
1523010330487117,0,0,-1,-2,0,-2,-1,-3
1523010330488119,-3,-14,-2,1,-1,3,-3,0
1523010330488119,-5,-2,-1,-2,-3,0,1,-3
1523010330509175,1,6,3,1,0,-9,-2,0
1523010330509175,7,4,-5,-4,-4,-1,-1,-1
1523010330510178,10,-2,1,1,-4,8,2,2
1523010330510178,-1,9,0,0,5,0,2,3
1523010330532237,0,-12,-4,-4,-3,-2,0,-4
1523010330532237,1,5,2,-6,-9,-10,-1,-1
1523010330533239,-5,1,0,1,4,0,-5,-1
1523010330533239,-3,-9,-3,7,15,7,9,0
1523010330546274,-1,14,4,-3,-25,-5,-5,-2
1523010330546274,-5,-8,-2,2,21,10,2,-4
1523010330547276,4,0,-5,-3,-8,-11,-5,-3
1523010330547276,-3,-7,-3,-9,-10,-3,-4,0
1523010330569335,2,2,-1,-4,2,-6,-1,2
1523010330569335,-2,-1,1,1,-12,2,-1,0
1523010330569335,-5,-6,0,1,2,1,-1,-2
1523010330569335,10,7,4,2,-1,-12,-4,0
1523010330592397,-9,0,-4,-4,0,-1,0,0
1523010330592397,5,-9,-5,-7,-11,8,2,-1
1523010330592397,-1,7,3,8,23,5,2,-1
1523010330592397,9,-2,-2,-1,-3,-4,-2,0
1523010330606433,9,4,-1,0,2,-4,0,-1
1523010330606433,-3,1,2,2,-3,-5,-2,1
1523010330607436,-7,-2,-1,-9,-11,2,-1,0
1523010330607436,-18,-3,1,1,-2,4,2,-5
1523010330628493,16,-4,-7,6,11,4,-2,4
1523010330628493,-3,3,-1,-1,-5,-2,-1,1
1523010330629495,0,3,-1,0,-2,-9,-2,-5
1523010330629495,3,4,0,-5,-4,4,-1,0
1523010330652557,-11,-6,0,-13,-1,2,2,-3
1523010330652557,-4,-6,-2,16,5,-2,-1,-4
1523010330652557,5,-2,1,9,8,2,-2,2
1523010330652557,-3,1,-1,0,-7,-6,-3,-3
1523010330666594,-7,-10,-2,-1,-3,-3,1,5
1523010330666594,11,11,2,-9,-2,5,3,0
1523010330667596,-2,-6,-5,-15,1,-1,-1,-1
1523010330667596,9,1,-2,-2,-2,-2,1,0
1523010330688653,-2,-3,1,10,0,-3,-1,-2
1523010330688653,-11,-1,0,2,-4,-6,-1,-1
1523010330689655,-1,1,2,0,-1,0,0,-2
1523010330689655,8,0,-4,-6,-2,1,0,4
1523010330711714,-11,-7,-3,-13,-4,-1,0,0
1523010330711714,2,1,-1,-16,-1,2,-1,0
1523010330712717,5,3,1,24,13,-2,-1,1
1523010330712717,-4,-3,1,-6,0,2,-1,0
1523010330726754,10,8,3,7,2,6,-1,1
1523010330726754,-24,-8,-3,1,-4,-5,-4,-8
1523010330726754,-7,1,-3,-14,-11,-3,-2,-3
1523010330726754,16,-4,-1,2,2,-3,1,1
1523010330748813,3,3,-1,1,2,2,-1,-2
1523010330748813,-10,-4,0,-1,3,1,1,3
1523010330749815,18,7,-3,-7,-9,-6,-3,1
1523010330749815,-23,-6,1,5,-5,1,-2,-6
1523010330771874,-8,-2,1,2,4,0,1,-4
1523010330771874,15,6,-1,2,-1,-4,-1,-1
1523010330772876,-13,-4,-1,-1,0,1,1,-4
1523010330772876,0,-2,0,0,-1,-4,-1,-2
1523010330785911,2,1,-2,-2,-2,2,1,-3
1523010330785911,-2,-1,-1,0,-3,-3,-1,1
1523010330786914,4,0,-1,2,-1,4,0,2
1523010330786914,-8,-5,-2,-5,1,1,1,-4
1523010330808972,-1,3,0,1,4,-1,-4,-3
1523010330808972,1,-7,-3,8,6,1,0,3
1523010330809975,4,4,0,-6,-9,-3,-2,-8
1523010330809975,-11,-2,-4,4,-6,-4,-1,2
1523010330832034,2,-2,-1,11,2,-1,2,2
1523010330832034,14,7,2,-3,-2,1,-3,0
1523010330833036,-11,-5,-1,0,-6,-2,0,0
1523010330833036,-6,-1,-2,7,4,-2,-1,-3
1523010330846071,-8,-2,-1,-1,-3,0,-1,-2
1523010330846071,8,4,-2,0,3,1,1,-1
1523010330847074,26,-5,-3,-8,-4,-2,0,9
1523010330847074,-11,-3,0,0,-4,-5,-3,-1
1523010330869132,-8,-3,0,6,1,0,-3,0
1523010330869132,16,5,1,2,3,4,-2,-4
1523010330870135,-40,-6,-2,-7,-5,-1,0,-1
1523010330870135,11,0,-1,-41,-20,-8,1,3
1523010330892194,25,3,0,52,34,4,0,3
1523010330892194,-3,-1,0,2,-6,3,2,-1
1523010330893196,3,-1,-1,6,2,0,-2,-2
1523010330893196,-3,-2,0,-9,-5,0,-1,-2
1523010330906231,-14,-1,-2,-29,-18,-7,-1,-3
1523010330906231,20,6,1,2,5,-1,0,-2
1523010330907234,-18,-8,-2,2,2,1,1,2
1523010330907234,-6,0,1,1,-1,1,0,0
1523010330929292,-7,-1,-2,1,-1,3,0,-2
1523010330929292,-2,0,-2,7,2,-3,-1,1
1523010330936311,15,4,-1,-4,1,1,0,1
1523010330936311,-9,-2,0,10,4,3,-2,-5
1523010330951351,12,1,0,2,0,2,1,4
1523010330951351,-23,-4,-1,-5,-5,-6,-1,-4
1523010330959372,22,2,-2,-1,-6,-6,-1,2
1523010330959372,-14,-3,-2,11,8,3,0,-1
1523010330965388,14,-2,-2,-14,-10,-6,0,1
1523010330965388,-8,-3,-2,-8,-6,-3,0,0
1523010330974412,9,2,1,-1,4,3,0,-1
1523010330974412,-7,-4,-2,-19,-3,0,-3,-3
1523010330989452,-7,-2,-1,10,6,-5,-1,1
1523010330989452,-3,2,1,12,2,-2,0,3
1523010330989452,0,-4,0,16,8,0,-3,-6
1523010330989452,3,2,-3,4,-3,-2,-4,-2
1523010331012514,-15,-6,-6,-40,-21,-2,1,-2
1523010331012514,2,0,-2,-18,0,-2,-1,0
1523010331012514,12,3,3,34,-2,-1,-3,-2
1523010331012514,2,-2,0,-1,-1,-1,2,3
1523010331025548,1,-2,-3,-36,-17,-3,-3,-3
1523010331025548,15,0,-2,-1,-1,-2,-3,-1
1523010331033569,-35,-2,6,28,13,1,1,-2
1523010331033569,6,0,0,5,0,-3,0,-2
1523010331048610,-3,0,1,4,2,0,1,-1
1523010331048610,-4,-2,-3,-23,-9,-2,-1,0
1523010331049612,10,3,-6,-25,-10,-4,0,2
1523010331049612,13,-3,0,20,16,1,-1,2
1523010331071671,-6,1,0,-3,1,3,-1,-4
1523010331071671,0,-3,-3,-7,-6,-1,-2,-2
1523010331072674,-25,-8,-5,-34,0,-3,-2,-3
1523010331072674,5,3,9,79,21,3,0,2
1523010331085708,-6,-2,-1,3,2,4,-3,-3
1523010331085708,8,1,-1,16,-2,-1,-2,2
1523010331093730,-5,1,0,-16,-6,-1,-1,-1
1523010331093730,9,1,-6,-31,-11,-2,1,0
1523010331108770,-9,-1,0,12,5,-2,-2,-4
1523010331108770,-5,-5,-2,-13,-11,1,0,-1
1523010331109772,15,4,3,13,6,-1,-1,0
1523010331109772,-39,-13,-3,-7,-1,-1,-1,-6
1523010331131831,10,2,2,13,-9,0,0,0
1523010331131831,-7,-5,-3,-32,5,-4,-1,3
1523010331132834,37,12,-3,17,2,0,3,6
1523010331132834,-5,-3,2,8,0,-3,-3,-5
1523010331145868,-3,-1,-2,-8,-6,-4,0,1
1523010331145868,-14,-5,-4,-35,-11,1,-1,-3
1523010331153890,-6,-4,1,33,15,0,-4,-4
1523010331153890,16,11,-1,1,8,2,-1,4
1523010331168930,-12,-10,-4,-10,-2,-5,-1,1
1523010331168930,0,3,1,-4,-2,0,-1,1
1523010331169932,-6,-6,-7,-6,-15,-2,-3,-1
1523010331169932,5,0,-3,-18,-2,-2,-2,0
1523010331191991,5,7,2,10,5,1,-2,-2
1523010331191991,-16,-13,-2,5,3,-7,-3,2
1523010331192994,0,0,-3,-35,-22,-7,-2,1
1523010331192994,7,2,1,30,33,5,1,2
1523010331206028,7,0,0,-5,4,2,-1,1
1523010331206028,-1,2,4,25,5,3,1,-4
1523010331214049,-6,-5,-1,-20,-11,-1,0,0
1523010331214049,5,-4,-4,-44,-33,-5,-1,1
1523010331229090,-1,-4,-1,3,-13,-6,-3,-1
1523010331229090,2,5,9,50,36,6,4,0
1523010331230092,-3,1,-2,-10,-5,0,-3,-2
1523010331230092,-15,-9,1,-5,-5,2,1,-6
1523010331252151,7,-1,-8,-17,-13,-10,0,2
1523010331252151,11,4,-5,-12,-30,-8,0,-1
1523010331253154,4,2,0,12,26,13,1,-2
1523010331253154,-1,8,0,-1,7,-3,0,-1
1523010331274209,-19,-17,1,5,8,5,0,-3
1523010331274209,1,-5,-3,1,-5,-6,-2,1
1523010331275212,5,4,-4,-11,-10,-10,-1,0
1523010331275212,5,3,-1,2,-12,3,-2,-1
1523010331297271,-1,10,3,11,27,2,-1,-5
1523010331297271,-12,-7,4,10,2,3,-1,-3
1523010331298275,-6,-12,-4,-8,-10,-2,1,1
1523010331298275,23,15,-2,-21,-26,-8,-3,3
1523010331312311,2,6,1,14,6,-2,-3,-5
1523010331312311,1,5,4,5,4,1,1,-5
1523010331313314,-11,-8,4,4,1,1,2,-2
1523010331313314,-4,-14,-4,-3,-2,-3,-1,3
1523010331334370,10,-3,-7,-9,-17,3,2,5
1523010331334370,-5,11,2,8,20,10,-2,-3
1523010331335372,-12,-17,-2,3,-4,-9,-2,-3
1523010331335372,5,4,-2,-1,-4,5,1,-2
1523010331349410,0,4,3,-13,-24,-7,0,2
1523010331349410,4,-1,1,21,48,10,2,2
1523010331349410,5,18,3,1,2,0,-2,-4
1523010331349410,-19,-29,-5,2,4,4,1,2
1523010331372471,0,3,2,-11,-23,-3,0,2
1523010331372471,3,6,-2,-10,-23,-4,-2,-1
1523010331372471,3,7,1,15,20,1,-1,0
1523010331372471,-8,-13,-2,1,6,0,-1,-3
1523010331394529,-2,0,-2,2,2,1,-2,0
1523010331394529,-19,-19,0,-4,-17,-3,0,0
1523010331395532,20,20,-3,-4,-3,0,1,3
1523010331395532,8,7,-4,-4,-7,-5,-4,-2
1523010331408567,-3,-5,3,7,4,0,-1,0
1523010331408567,2,4,-3,-9,-6,-8,-4,-2
1523010331409570,-9,-11,-2,-4,-10,0,-1,-2
1523010331409570,-1,8,6,19,37,7,0,0
1523010331432631,-1,3,2,13,29,7,4,1
1523010331432631,-2,-3,-4,4,8,-1,0,1
1523010331432631,-3,-5,-4,-11,-17,6,0,0
1523010331432631,5,7,-2,-11,-29,-2,-5,0
1523010331454690,-6,-11,-1,1,12,-1,2,-1
1523010331454690,-2,0,-2,-3,-11,-4,4,2
1523010331455693,0,-8,-3,-2,0,-4,-2,-1
1523010331455693,0,8,1,-1,-3,-6,-2,-3
1523010331468727,-2,-6,-1,-6,-6,-3,-3,0
1523010331468727,4,0,-2,-2,-2,-5,-2,0
1523010331469730,-6,-2,0,1,4,4,1,0
1523010331469730,-8,-1,1,-3,-1,1,1,-3
1523010331491788,1,-1,-2,0,3,-10,-4,-2
1523010331491788,8,1,-3,-6,-9,1,-3,-1
1523010331492791,-4,-4,0,2,7,2,0,0
1523010331492791,-6,-7,-2,-4,-10,-6,0,-1
1523010331514850,8,12,-3,-12,-15,-5,-4,-2
1523010331514850,2,-1,2,7,12,7,2,-2
1523010331515853,-16,-29,-8,1,4,-8,0,2
1523010331515853,-2,4,-2,4,22,10,-2,-4
1523010331528887,-4,-3,0,6,7,8,1,0
1523010331528887,-4,1,-1,-10,-17,-5,-3,-1
1523010331529890,5,10,2,-2,-8,-5,-1,-2
1523010331529890,-3,-6,-2,-9,-14,-11,-1,1
1523010331551948,-4,-2,-1,0,-1,0,-1,-2
1523010331551948,2,0,0,-2,1,1,0,-3
1523010331551948,2,6,1,-1,-4,0,0,2
1523010331551948,-2,6,0,0,2,2,1,-2
1523010331575010,3,-7,-3,0,2,-5,-1,-1
1523010331575010,6,7,-3,-1,-6,0,0,0
1523010331575010,-3,1,0,-3,2,2,-1,-4
1523010331575010,5,1,2,0,-2,-5,-1,0
1523010331589047,-9,9,3,1,-1,6,-2,-5
1523010331589047,-8,-21,-5,-4,-1,-5,-1,1
1523010331590050,6,10,-1,0,1,0,-3,0
1523010331590050,7,3,0,-1,-1,-2,-1,-1
1523010331611106,-5,-7,-1,-2,-3,-2,0,0
1523010331611106,14,14,1,-3,-8,-5,-2,0
1523010331612109,1,-5,-4,-1,8,2,0,0
1523010331612109,-6,-11,0,-4,-10,-1,2,0
1523010331634167,12,3,-2,0,8,-4,-3,1
1523010331634167,-9,-7,1,5,0,4,-1,-2
1523010331635169,-1,-1,-1,-10,-9,1,-2,-3
1523010331635169,0,2,0,3,1,-5,2,0
1523010331649207,1,2,1,-3,-4,2,1,0
1523010331649207,2,-4,0,9,11,2,0,0
1523010331650210,-9,-5,-1,-3,4,-3,0,-3
1523010331650210,1,1,-3,-9,-15,-6,-3,0
1523010331671266,7,0,2,26,9,9,3,1
1523010331671266,3,2,0,-5,3,-1,-2,-1
1523010331672268,2,0,-1,1,-9,-7,-3,-3
1523010331672268,-4,-3,0,-10,1,2,-1,-2
1523010331694327,-7,-4,-2,-8,-4,-3,-1,-1
1523010331694327,20,9,-2,-2,-5,-2,0,0
1523010331695330,-41,-30,-2,3,1,0,-2,-8
1523010331695330,17,9,1,0,-6,-1,0,4
1523010331709367,4,-2,-4,-9,-2,-3,-2,-2
1523010331709367,6,5,-1,2,5,5,-3,-4
1523010331709367,-3,8,0,8,6,-2,0,-3
1523010331709367,-3,-3,-1,7,0,-2,-2,0
1523010331731426,-9,-6,-2,-5,0,6,-1,-1
1523010331731426,2,2,-1,-11,-11,-4,0,-1
1523010331732429,0,2,0,-5,-3,-1,-2,1
1523010331732429,-1,-7,-3,2,2,-1,0,1
1523010331754487,2,2,-2,-3,0,-6,-2,0
1523010331754487,-7,-5,-2,2,1,0,-1,-4
1523010331755490,12,0,0,0,-3,0,-2,0
1523010331755490,-9,-5,0,8,-1,-1,0,-3
1523010331777548,-15,-5,-2,-6,4,-2,-4,-4
1523010331777548,-2,-3,-1,-29,-14,1,2,6
1523010331777548,12,6,-1,7,1,-5,0,1
1523010331777548,-2,-2,4,25,17,3,-2,-3
1523010331791586,8,-2,2,25,5,5,2,5
1523010331791586,-35,-16,-5,-4,-7,1,0,-4
1523010331792588,25,11,0,-19,-5,-3,-2,0
1523010331792588,-31,-8,-2,-16,-5,1,3,6
1523010331814647,14,1,-1,4,-2,-5,-1,-1
1523010331814647,33,13,1,2,4,-2,0,4
1523010331815650,-19,-4,3,-2,1,3,3,-1
1523010331815650,-8,0,-1,4,0,-4,-2,-8
1523010331828684,-2,1,0,-2,0,-3,1,-3
1523010331828684,-11,-4,-3,4,-1,1,0,0
1523010331829687,0,3,-1,4,-5,-1,0,-1
1523010331829687,6,5,-1,2,3,0,-3,-4
1523010331851746,4,3,-1,-6,-9,0,1,0
1523010331851746,-17,-2,-2,4,3,-1,-3,-6
1523010331851746,10,2,-2,8,2,-1,0,4
1523010331851746,-23,-11,-2,2,1,4,0,-4
1523010331874807,4,3,-2,-9,-6,1,1,-1
1523010331874807,-3,-4,0,5,-2,-8,-4,-2
1523010331875810,-1,2,0,-5,16,8,0,-1
1523010331875810,32,4,-1,-2,-10,-1,-2,1
1523010331887842,-24,-4,-2,-18,-10,-1,0,1
1523010331887842,18,7,10,38,10,0,0,0
1523010331896865,-26,-11,-5,8,-4,-5,0,2
1523010331896865,3,2,-3,-24,-5,-2,-1,0
1523010331911906,3,0,-5,-2,1,-3,-1,-1
1523010331911906,-3,0,-2,-5,-7,-3,0,-3
1523010331911906,2,-3,-1,-5,-1,-3,-4,-8
1523010331911906,12,-2,0,0,3,-3,-3,1
1523010331934967,-8,0,1,-8,-1,0,2,2
1523010331934967,3,4,-1,-15,-4,2,-1,2
1523010331935970,28,0,-3,13,9,-2,0,4
1523010331935970,-14,-4,-2,6,-3,-2,-1,-2
1523010331948002,-19,-5,0,2,0,-2,-4,-7
1523010331948002,-11,-1,0,1,-3,-3,0,-2
1523010331957025,18,4,-2,-19,-10,1,-1,3
1523010331957025,15,3,1,-4,5,0,-1,1
1523010331971063,-13,-5,-3,-18,-7,-4,-3,-1
1523010331971063,3,-4,-4,34,16,-2,-1,1
1523010331972066,4,3,-3,-8,-6,-1,0,-2
1523010331972066,-31,-5,-3,-18,5,-2,0,-6
1523010331994124,28,4,2,34,2,2,1,4
1523010331994124,7,-1,-4,-27,-8,-3,-1,-4
1523010331995127,-13,-4,-3,0,-12,-5,-2,2
1523010331995127,13,4,0,9,17,5,0,-2
1523010332008162,4,5,0,-23,-2,0,0,-1
1523010332008162,-15,-8,-3,-17,-8,-3,0,1
1523010332016183,19,3,-1,28,10,-1,-1,-1
1523010332016183,-32,-8,-1,-9,-11,0,2,1
1523010332031223,0,-1,1,2,1,-1,-2,-3
1523010332031223,9,-3,-1,0,-2,2,2,3
1523010332032226,-4,2,0,-24,-13,-2,-3,-2
1523010332032226,-6,1,0,12,2,-1,-1,-4
1523010332054284,16,-3,-4,7,3,-1,-1,5
1523010332054284,-1,0,0,0,3,2,-1,0
1523010332055287,-7,-3,-1,-3,-5,-2,-5,-4
1523010332055287,12,3,-2,-31,-10,0,1,2
1523010332068321,-12,0,-2,2,16,-4,-3,-3
1523010332068321,-4,1,9,70,18,4,2,2
1523010332076343,8,1,0,0,-1,-3,-2,-2
1523010332076343,-6,0,-1,9,-8,2,-1,1
1523010332091383,1,-1,-6,-76,-33,-5,2,-4
1523010332091383,14,1,-4,13,15,-2,-4,0
1523010332092386,-20,-2,4,42,22,7,4,-2
1523010332092386,2,-1,-2,1,2,-5,-6,-3
1523010332114444,6,-2,1,7,0,0,-1,2
1523010332114444,-5,-6,-6,-41,-19,-8,-2,-1
1523010332115447,-8,-4,0,-9,-9,-3,2,1
1523010332115447,21,6,1,1,3,0,1,0
1523010332128481,-25,-7,-2,8,0,-1,-2,-7
1523010332128481,5,1,-1,-14,-17,-3,-1,2
1523010332136503,-4,0,-8,-30,6,-18,-3,1
1523010332136503,-2,2,12,84,39,18,4,2
1523010332151543,-3,-5,0,12,-2,2,1,-5
1523010332151543,1,-1,-2,-4,-5,0,-1,-5
1523010332152546,-3,1,-3,-28,-17,0,0,2
1523010332152546,8,-5,-7,-32,-24,-14,-4,-2
1523010332174604,1,3,3,38,25,4,-1,-2
1523010332174604,-1,4,3,-13,3,5,1,-2
1523010332175607,-26,-12,-2,-2,-5,1,-1,-1
1523010332175607,-13,-1,-1,-8,-6,-4,2,2
1523010332188641,-7,3,0,-5,-30,-1,-1,0
1523010332188641,17,5,-2,5,33,2,1,4
1523010332196663,4,4,1,11,0,3,-1,-5
1523010332196663,12,1,-2,-1,-2,-2,-1,-2
1523010332211703,-2,-2,-2,-12,-5,0,0,1
1523010332211703,-13,-5,-4,-13,-13,-6,-4,-3
1523010332212706,10,5,4,13,3,3,-2,0
1523010332212706,-5,-8,-3,-12,-2,1,-2,-2
1523010332234764,-5,-7,-1,0,3,-2,-2,0
1523010332234764,-1,9,1,-10,-11,-1,3,2
1523010332235767,15,0,-2,1,8,2,-1,3
1523010332235767,1,-10,-3,2,3,-1,0,-1
1523010332256823,7,4,1,7,9,4,-1,1
1523010332256823,-32,-17,0,-2,-17,-1,0,-3
1523010332257826,7,-6,-7,-24,-29,-6,-2,2
1523010332257826,18,18,2,19,39,-10,-2,-1
1523010332271863,-7,-14,-1,5,-2,9,2,-2
1523010332271863,-13,-7,-1,-4,1,3,0,-1
1523010332271863,-9,3,1,-3,-5,-2,4,-1
1523010332271863,-4,-1,-4,-12,-17,-8,-3,0
1523010332294924,18,23,3,7,6,1,-5,-1
1523010332294924,-20,-30,-10,-18,-10,-1,0,-4
1523010332295927,14,7,-4,5,-6,6,-4,4
1523010332295927,6,-1,4,15,5,-4,12,1
1523010332317986,-8,-10,-3,2,23,8,-7,0
1523010332317986,2,12,4,7,12,-11,-4,-4
1523010332317986,2,8,-1,-7,-15,10,2,-5
1523010332317986,-1,-4,-4,-15,-25,-7,-17,-1
1523010332331021,-2,-2,6,16,32,-2,27,-2
1523010332331021,-2,2,5,7,3,17,14,2
1523010332332023,1,2,2,-8,-28,-19,-1,-4
1523010332332023,0,4,0,-2,14,16,-19,3
1523010332355084,0,-48,-3,18,64,-3,10,0
1523010332355084,3,-31,-10,5,5,-3,-4,-3
1523010332355084,-2,17,5,0,5,-7,8,-1
1523010332355084,-6,-6,-8,-22,-43,-1,-6,-1
1523010332377143,-1,14,-10,-13,-37,-2,-4,2
1523010332377143,3,19,0,3,6,4,0,1
1523010332378146,-8,-11,-1,2,6,1,-3,-1
1523010332378146,8,16,-4,-10,-11,-5,1,-2
1523010332391180,2,1,5,2,-8,2,-7,-1
1523010332391180,5,2,1,-4,-6,-9,6,2
1523010332392183,-8,3,-1,4,2,3,-11,-3
1523010332392183,-8,-12,3,8,13,1,2,1
1523010332414242,1,13,1,-3,-20,-8,0,-5
1523010332414242,5,16,6,0,-17,7,9,3
1523010332415244,-15,-52,-9,11,31,9,-1,0
1523010332415244,1,6,-2,-13,-14,0,8,0
1523010332437302,11,8,-5,6,45,10,-3,0
1523010332437302,-6,1,0,1,10,-2,-20,-2
1523010332438305,-8,6,-1,2,-5,-5,1,-2
1523010332438305,-7,-15,-3,-8,-10,-2,5,-5
1523010332451340,-3,-5,-5,-18,-48,-10,-9,3
1523010332451340,4,11,-1,-3,-5,-11,-1,-4
1523010332452343,-1,-4,3,4,16,4,-1,0
1523010332452343,-4,-6,-2,-5,-12,-13,-4,-1
1523010332474401,-3,10,2,-5,-21,2,-3,-4
1523010332474401,-7,-6,-1,1,8,11,-6,1
1523010332475404,3,-1,-2,-8,-5,-6,-3,0
1523010332475404,11,17,6,15,15,-2,16,2
1523010332497463,1,-5,-3,2,-6,6,0,3
1523010332497463,4,-2,-5,-15,-30,-4,-4,-1
1523010332497463,6,6,2,-13,-13,-19,-18,-2
1523010332497463,5,5,2,23,52,25,9,-1
1523010332511500,-5,-8,-1,-1,-9,-19,-5,-1
1523010332511500,8,11,4,0,-4,-3,-4,-3
1523010332512503,-26,-32,-12,-7,-25,0,6,-1
1523010332512503,-2,-3,2,-7,4,-12,-5,1
1523010332534561,-3,8,3,-1,-5,2,-4,-6
1523010332534561,1,-5,-7,-5,0,-10,0,1
1523010332535564,17,24,5,4,3,5,1,-2
1523010332535564,-19,-23,-3,-15,-25,0,-2,-2
1523010332557622,21,16,-2,-17,-35,-10,-3,5
1523010332557622,-10,-18,-4,1,23,-2,-6,1
1523010332557622,18,27,7,40,59,14,6,-1
1523010332557622,-22,-42,-7,-4,-12,1,-6,0
1523010332571660,7,19,5,-5,-8,-6,0,-1
1523010332571660,4,5,-2,-19,-24,-14,-4,-1
1523010332572663,-5,-8,-2,-4,-18,-5,2,2
1523010332572663,3,8,0,3,11,1,8,-4
1523010332594721,-8,-14,1,8,3,8,-14,-3
1523010332594721,-17,-8,-1,4,8,6,5,0
1523010332595724,-1,-7,-2,-4,1,8,-2,1
1523010332595724,18,26,2,-3,-10,-20,-1,1
1523010332616780,1,-12,-3,-4,-9,-1,-2,-3
1523010332616780,-3,-4,-1,-1,-5,-14,-3,-2
1523010332617783,-3,0,4,27,39,10,1,-7
1523010332617783,-7,-9,-4,-20,-8,0,-3,-3
1523010332631820,-4,6,0,36,31,3,3,2
1523010332631820,-3,0,0,-2,-7,6,3,-2
1523010332631820,25,10,-5,-18,-20,-19,1,2
1523010332631820,-1,2,3,3,1,16,1,3
1523010332654882,-4,-9,-1,-15,-3,-4,-1,-4
1523010332654882,-2,5,-4,-13,-7,-6,-2,-1
1523010332655884,-9,-16,-4,10,3,8,0,2
1523010332655884,0,-2,-1,7,5,1,0,-4
1523010332676940,-7,-5,-4,-11,-8,-5,-12,1
1523010332676940,10,2,2,5,9,6,2,0
1523010332677943,4,5,2,-14,-11,-3,0,-1
1523010332677943,-12,-4,-1,-7,-19,-2,-4,-3
1523010332690977,31,18,-2,-14,4,-8,4,1
1523010332690977,-25,-25,6,70,39,21,7,2
1523010332691980,25,3,-3,-2,-8,1,-1,1
1523010332691980,-15,-2,1,5,3,0,-3,-2
1523010332714039,8,3,-6,-28,-12,-5,1,-6
1523010332714039,-1,2,-5,-31,-21,-20,-8,-4
1523010332715042,-16,-4,1,5,4,5,-2,-2
1523010332715042,0,-6,-2,0,-8,2,3,5
1523010332737100,-4,-6,0,12,1,-3,4,1
1523010332737100,21,10,1,-2,14,12,2,1
1523010332738103,-4,-5,-3,-14,0,2,-3,-3
1523010332738103,-7,4,2,-11,-6,-6,-4,-3
1523010332751137,-5,0,3,3,-1,-2,-2,-2
1523010332751137,27,-2,-2,-3,-5,-7,-1,4
1523010332752140,-47,-18,-3,-11,-10,-7,1,-2
1523010332752140,15,7,3,-3,1,7,0,0
1523010332774199,0,1,3,17,12,3,3,-2
1523010332774199,-19,-2,-2,0,-15,2,-2,-4
1523010332775201,22,9,0,0,7,0,1,-2
1523010332775201,-9,3,0,-9,1,-4,-5,0
1523010332797260,-22,-10,-4,0,-8,-3,3,-4
1523010332797260,4,9,2,0,8,1,-2,-1
1523010332798263,-6,-6,-5,-4,-3,0,0,4
1523010332798263,13,2,0,10,1,-2,-1,0
1523010332810294,-20,-1,0,-9,-5,5,1,-1
1523010332810294,0,3,-2,-1,-5,-1,-2,-6
1523010332819319,-2,2,1,2,-10,-7,0,-5
1523010332819319,20,5,-2,-3,8,4,-4,4
1523010332834359,-14,-10,-5,-25,-3,3,3,-1
1523010332834359,16,3,7,55,17,2,0,7
1523010332834359,-24,-5,2,29,9,6,4,0
1523010332834359,11,7,0,2,-5,2,-1,-4
1523010332857420,-4,0,0,-7,-4,-2,-1,1
1523010332857420,-7,-1,-6,-28,-8,1,-2,-2
1523010332858423,18,9,0,-9,-7,-5,-3,-4
1523010332858423,-9,-4,3,-7,6,-5,1,1
1523010332870455,-20,-9,-5,13,-8,-4,-1,3
1523010332870455,10,3,-4,-14,6,-5,-4,0
1523010332878476,-10,0,0,27,11,5,0,3
1523010332878476,0,0,2,-10,-6,-3,-1,-3
1523010332893516,-15,-6,0,20,3,-2,-2,-1
1523010332893516,4,-1,-6,-17,-15,5,1,-2
1523010332894519,11,-1,-2,-16,-12,-8,-1,1
1523010332894519,-14,-8,-7,-15,6,-1,0,-3
1523010332917580,22,9,3,4,-14,-4,-1,0
1523010332917580,-36,-5,3,26,6,-1,-2,-6
1523010332917580,19,-6,-4,-11,-1,-1,4,3
1523010332917580,-10,-4,-1,7,-6,5,1,-4
1523010332930615,17,5,-1,-18,0,-10,-5,-1
1523010332930615,-4,-9,-4,-30,-4,-9,3,0
1523010332938636,9,0,-3,-5,-8,-2,-7,0
1523010332938636,6,-1,-3,1,-5,-4,0,0
1523010332953676,-2,6,1,14,20,7,4,-4
1523010332953676,-10,0,3,19,2,3,-1,-2
1523010332954679,3,9,-1,-10,-3,-1,-3,-2
1523010332954679,8,-14,-9,-10,-11,-6,-3,4
1523010332976737,9,3,3,23,9,5,0,1
1523010332976737,-14,-8,-2,-9,-5,4,1,-3
1523010332977740,-1,0,3,-23,-16,-1,-1,0
1523010332977740,7,9,-1,0,14,-2,-4,-3
1523010332990775,-16,-5,2,17,18,5,1,1
1523010332990775,11,0,-5,2,-9,-17,-5,0
1523010332998796,-25,-3,3,14,9,20,2,-7
1523010332998796,-17,3,1,-13,-8,-3,1,1
1523010333013836,31,-3,-6,-24,-8,-4,2,7
1523010333013836,21,4,-2,-6,-1,5,-2,3
1523010333014839,-3,0,1,-2,5,-12,-5,-2
1523010333014839,-6,-5,-1,14,1,6,4,1
1523010333036897,-2,3,1,-5,0,2,-1,-2
1523010333036897,-9,-5,-5,-36,-19,-4,1,0
1523010333037900,7,3,10,78,33,6,1,4
1523010333037900,4,3,2,17,12,4,-1,-3
1523010333059959,-24,-14,-5,2,-7,-5,-3,-4
1523010333059959,2,2,-3,-33,-11,0,0,-1
1523010333060961,-6,0,-6,-31,-14,-5,-2,-3
1523010333060961,-6,1,6,41,18,-2,-1,-5
1523010333073996,-10,-8,-3,-6,-3,1,-1,3
1523010333073996,29,12,1,3,3,4,-1,3
1523010333074999,16,-1,-4,-20,-7,0,-2,0
1523010333074999,-20,-6,-2,2,-5,-4,0,-1
1523010333097057,7,7,1,-12,-8,-1,0,-1
1523010333097057,-7,-2,-3,12,5,-1,-2,-2
1523010333098060,-18,-9,-3,-2,-3,-6,-4,-5
1523010333098060,1,-1,-1,-26,-17,0,0,-2
1523010333111094,-7,1,0,8,7,-8,-1,-3
1523010333111094,-3,-10,-3,10,6,3,2,3
1523010333119116,4,4,-1,-2,0,-4,-2,1
1523010333119116,2,-2,-5,-54,-32,10,1,5
1523010333134156,3,-6,-2,8,-6,-8,-4,-2
1523010333134156,-5,3,9,51,32,9,1,-6
1523010333135159,-2,0,-4,-11,-1,2,0,0
1523010333135159,-4,-1,-3,2,-3,-11,-4,-1
1523010333157217,-5,-1,-3,-31,-19,2,0,0
1523010333157217,-4,-1,-3,-14,-11,-1,-2,0
1523010333158220,-8,-5,2,9,2,-5,2,1
1523010333158220,18,9,1,3,5,-2,-2,1
1523010333179276,9,3,1,1,6,0,1,-3
1523010333179276,-12,-6,1,5,2,-1,-2,-4
1523010333180279,-2,-4,-4,-17,-6,1,-1,-1
1523010333180279,3,3,3,11,-7,-6,-2,-4
1523010333194316,-14,-12,0,-8,9,4,-2,0
1523010333194316,8,2,-6,5,5,0,0,4
1523010333194316,7,5,-2,-13,-19,-2,0,-1
1523010333194316,0,-2,-2,-22,-19,-15,-6,-4
1523010333217377,6,8,16,101,88,17,7,0
1523010333217377,-4,1,-1,-22,-11,8,-3,-4
1523010333218381,-2,0,0,3,7,-3,7,1
1523010333218381,3,4,0,-2,-10,-1,-2,-1
1523010333239436,-9,-13,-5,-38,-32,-7,0,-3
1523010333239436,3,-4,-6,1,0,-13,4,7
1523010333240439,8,10,5,0,-1,-1,-20,-3
1523010333240439,6,6,2,13,10,-6,1,-3
1523010333253473,-15,-16,-9,-16,-13,-3,-2,-2
1523010333253473,0,3,4,5,0,6,1,-3
1523010333254476,-6,-8,-6,-13,-12,-10,2,-1
1523010333254476,5,3,-1,8,5,1,-17,-2
1523010333277537,2,-1,-4,-17,-22,0,13,0
1523010333277537,0,5,2,19,28,14,17,3
1523010333277537,8,10,4,3,-8,2,17,1
1523010333277537,-16,-19,-1,32,50,3,-45,-2
1523010333299596,16,12,-1,-11,-12,-4,-3,0
1523010333299596,2,0,-5,-17,-30,-20,-5,-2
1523010333300599,-2,-6,-1,-8,5,10,-2,0
1523010333300599,0,3,4,6,3,1,25,0
1523010333313633,-2,1,-3,-6,-15,-11,-12,-3
1523010333313633,-1,4,4,-6,-2,7,-2,-3
1523010333314636,-2,-4,-3,6,9,-1,-6,-3
1523010333314636,-5,-16,-2,-1,-9,4,9,0
1523010333337697,5,7,-1,-3,3,1,-3,0
1523010333337697,-4,-5,-5,-9,-13,-11,-1,-3
1523010333337697,-2,8,2,7,-4,-3,-2,-3
1523010333337697,-1,-15,-4,-1,7,1,6,3
1523010333359756,5,-2,-1,-7,-3,5,6,2
1523010333359756,-6,-5,-4,0,0,1,-10,-3
1523010333360759,-10,-10,-2,-1,-3,2,1,2
1523010333360759,4,11,2,-5,-8,-2,9,1
1523010333373793,3,6,2,6,1,-6,-11,-3
1523010333373793,3,8,2,-12,-30,-9,-4,-3
1523010333374796,-8,-23,-7,-7,17,9,3,2
1523010333374796,4,6,0,8,11,4,5,1
1523010333396855,-1,3,2,9,5,5,-4,-4
1523010333396855,-6,-8,1,8,23,-9,-4,-1
1523010333397858,-3,2,-2,-6,-18,-5,-15,-3
1523010333397858,5,10,-1,-4,-10,-3,-4,0
1523010333419916,2,1,2,-8,-3,3,5,1
1523010333419916,-5,-16,-7,-7,-14,-12,-2,1
1523010333420918,2,5,-1,8,14,-1,-6,-4
1523010333420918,-8,-7,-1,2,8,20,8,-2
1523010333433953,-5,0,0,0,-3,3,1,0
1523010333433953,13,17,3,-1,-3,-6,-1,2
1523010333434956,0,-10,-6,-7,-8,-6,3,2
1523010333434956,-4,-2,-1,-4,-25,-2,-3,-2
1523010333457014,-3,-6,-1,-1,9,-7,-3,-3
1523010333457014,-2,7,0,4,7,8,2,-1
1523010333458017,-3,-9,-3,-2,5,-3,-2,0
1523010333458017,-1,2,1,1,-4,-5,0,-3
1523010333480076,-10,-10,-3,-15,-29,0,0,2
1523010333480076,7,4,-2,13,18,2,-2,2
1523010333480076,-8,-2,-1,2,8,-9,-7,-3
1523010333480076,4,-1,0,-2,3,10,13,2
1523010333494113,-7,2,-2,-5,-15,-6,-6,2
1523010333494113,-7,-16,1,1,-8,4,4,-2
1523010333495116,11,9,-3,-5,-6,5,2,4
1523010333495116,3,4,-1,-1,-1,-10,-5,-1
1523010333517174,9,4,0,-7,1,-6,-2,2
1523010333517174,-5,-4,1,8,4,2,-1,-2
1523010333518177,1,6,3,5,-1,4,0,-5
1523010333518177,-19,-23,-9,-5,-3,-3,-3,-1
1523010333539233,11,14,1,-1,-10,2,0,0
1523010333539233,-9,-6,-3,-26,-31,-10,-4,-2
1523010333540236,-3,3,0,24,38,7,5,1
1523010333540236,1,4,-2,5,4,0,-4,-6
1523010333554273,1,-7,0,5,4,1,-1,-1
1523010333554273,-4,1,-3,-4,-6,-3,0,-3
1523010333554273,12,4,0,-32,-21,-9,-2,0
1523010333554273,-5,-6,0,8,-3,4,3,7
1523010333577334,-6,-3,-2,9,17,-3,0,-3
1523010333577334,19,14,-1,-6,-11,1,-1,0
1523010333578337,-19,-15,0,-1,-6,-2,-3,-6
1523010333578337,13,7,2,1,6,1,-1,1
1523010333599393,-9,-8,-4,-13,-4,3,0,-4
1523010333599393,0,-5,2,-3,-16,4,-2,2
1523010333600396,3,1,0,9,22,-5,3,1
1523010333600396,11,2,0,3,-7,-4,-3,-1
1523010333614434,-12,-8,-4,10,12,10,2,3
1523010333614434,4,4,1,17,21,1,1,3
1523010333614434,1,1,0,5,-12,-3,0,-1
1523010333614434,0,5,2,-17,-21,-8,-1,-2
1523010333637494,11,2,-1,-1,11,0,-2,-1
1523010333637494,-23,-15,-3,9,12,4,0,-2
1523010333637494,14,3,-2,-10,-15,-11,1,4
1523010333637494,-6,-2,0,1,10,11,2,1
1523010333659553,-1,-3,-2,-7,-9,2,0,0
1523010333659553,6,3,-3,-7,4,0,-1,0
1523010333660556,9,2,-1,3,-11,-5,-3,-1
1523010333660556,-9,1,-1,-1,9,-5,-1,2
1523010333673590,0,3,0,1,-1,-3,0,1
1523010333673590,-1,-3,-1,-7,0,1,-2,-3
1523010333674593,4,3,2,-3,-24,1,1,0
1523010333674593,-4,0,-3,-5,8,-8,-3,-3
1523010333696652,-9,-5,1,16,2,3,-1,0
1523010333696652,-7,4,1,5,15,12,1,0
1523010333697655,-11,-10,-5,-20,-19,-4,1,-1
1523010333697655,17,10,5,27,8,2,-4,0
1523010333719713,1,-1,0,-7,-3,-4,2,1
1523010333719713,1,-2,-1,-5,-8,-3,-1,-5
1523010333720716,-12,-2,0,-9,4,2,-2,-2
1523010333720716,1,0,-1,-8,-2,-2,0,-2
1523010333733750,7,2,-1,5,0,-5,-3,-5
1523010333733750,-16,-8,-2,4,1,0,1,-1
1523010333734754,12,3,-1,-6,1,1,2,6
1523010333734754,14,2,-2,-4,-1,-4,-4,-1
1523010333756812,-16,-6,-3,3,2,-2,1,2
1523010333756812,1,0,-3,-12,-6,1,-1,-2
1523010333757815,-8,2,1,3,5,-1,-1,-3
1523010333757815,0,-2,-4,13,8,-2,-1,-1
1523010333779873,14,4,0,-8,-9,-3,-2,-3
1523010333779873,-2,-2,-2,-39,-26,-8,-2,2
1523010333780876,-17,-6,-3,12,22,-3,-3,-5
1523010333780876,-1,1,5,12,-3,-3,-1,-1
1523010333792908,29,12,1,27,13,14,5,2
1523010333792908,-47,-21,-9,7,-1,-1,-3,2
1523010333801932,18,4,-1,-17,2,5,-1,3
1523010333801932,-3,-1,-3,-26,-14,-10,1,-2
1523010333816972,-14,-4,-1,-1,-3,-1,-2,-5
1523010333816972,20,9,1,-3,4,0,-2,3
1523010333816972,-9,0,1,4,-5,-1,0,-3
1523010333816972,-23,-12,-5,3,2,0,1,-2
1523010333840033,9,9,3,-7,-4,-4,0,3
1523010333840033,3,2,2,10,3,-2,0,-3
1523010333840033,-8,-7,1,4,0,0,1,-1
1523010333840033,7,2,-2,1,-10,2,-1,4
1523010333853068,-6,-2,-2,-3,4,0,-2,-6
1523010333853068,-17,-3,0,7,-1,-4,-3,-11
1523010333861089,-1,-2,0,-17,-9,-2,1,-1
1523010333861089,9,2,-1,2,17,-1,-1,-3
1523010333876129,-14,-12,0,32,-3,-4,-2,4
1523010333876129,25,8,3,18,11,4,-1,3
1523010333877132,-13,-2,-2,1,-10,0,-1,-5
1523010333877132,4,0,0,-24,0,4,0,0
1523010333900193,-5,1,2,-5,0,-3,0,0
1523010333900193,14,5,1,0,-2,-2,1,0
1523010333901196,4,0,0,5,0,-1,-1,0
1523010333901196,-8,-3,-2,-10,-9,-5,-1,-2
1523010333913228,6,0,-1,-5,5,0,-3,0
1523010333913228,17,5,3,-1,-1,0,0,-2
1523010333921249,-26,-8,-4,0,2,1,1,0
1523010333921249,0,-2,-3,7,-5,0,0,2
1523010333936289,15,-1,0,-7,-4,-1,1,2
1523010333936289,9,2,0,-4,1,-2,-2,-1
1523010333937292,30,6,-2,1,-2,-2,-2,0
1523010333937292,-22,-7,0,-13,-9,0,-2,-5
1523010333959351,-28,-4,-2,19,11,0,-2,-5
1523010333959351,4,2,0,3,-2,0,2,4
1523010333960354,21,-2,-1,9,9,4,-1,-2
1523010333960354,-1,-2,-3,-12,-10,-1,0,-3
1523010333973388,6,3,-5,4,-7,0,0,-3
1523010333973388,-12,-4,-1,11,10,-5,-2,-2
1523010333981409,-10,1,1,4,-3,-1,-3,-1
1523010333981409,7,0,0,-10,0,2,2,1
1523010333996449,11,3,-1,-31,-8,-6,-1,3
1523010333996449,28,-2,-4,17,-6,-1,-3,-6
1523010333997452,-80,-16,-1,-9,-7,-1,1,-2
1523010333997452,26,-4,-4,19,8,0,-1,3
1523010334019511,-3,-1,0,-9,0,-1,-2,-4
1523010334019511,-11,-5,-5,-23,-4,1,-1,1
1523010334020514,35,7,0,-6,-5,-5,0,1
1523010334020514,-18,-7,-2,9,-4,-4,-3,-7
1523010334033548,-15,-5,-1,4,9,2,0,0
1523010334033548,7,3,0,-14,-7,-1,-1,-1
1523010334041569,1,-2,-3,-14,4,-3,-2,-4
1523010334041569,-9,1,6,42,16,10,2,1
1523010334056609,12,3,1,3,-6,-1,-1,-3
1523010334056609,5,-4,-5,-9,2,-3,1,4
1523010334057612,-40,-8,-2,-11,-15,-1,0,-3
1523010334057612,11,-1,-5,1,-4,-10,-4,2
1523010334079671,4,3,-3,-15,1,1,-1,-2
1523010334079671,0,4,2,13,9,5,1,-3
1523010334080674,15,2,3,21,8,2,0,0
1523010334080674,-7,-1,-3,-15,-6,-1,-1,-3
1523010334093708,-12,-1,-2,-7,-7,-2,-2,-1
1523010334093708,2,1,-2,-11,-2,-3,-2,-1
1523010334101730,13,3,1,-17,-13,2,1,0
1523010334101730,-33,-8,0,10,15,-2,-2,-4
1523010334116769,6,0,-2,8,-2,0,1,6
1523010334116769,-16,-4,-2,-13,5,-1,0,-2
1523010334117772,21,5,-2,5,9,1,-1,1
1523010334117772,6,5,5,3,-4,1,1,0
1523010334139831,-8,-1,2,32,13,3,0,-1
1523010334139831,-11,-3,-2,6,-2,0,1,2
1523010334140833,4,-2,-5,-8,-3,-1,0,0
1523010334140833,-1,0,-4,-31,-11,-2,-2,-2
1523010334161890,0,1,-3,-23,-14,-5,-1,-6
1523010334161890,-10,0,2,18,-6,-3,-5,-2
1523010334162892,-8,-6,0,7,9,-1,1,0
1523010334162892,-10,-15,-2,-5,-2,1,3,3
1523010334176929,19,7,-3,-28,-18,-5,-2,3
1523010334176929,4,-2,0,2,16,3,2,1
1523010334183948,-8,1,5,40,13,6,0,0
1523010334183948,8,4,2,32,11,1,-1,-2
1523010334199991,-10,-5,0,-15,-5,2,1,-1
1523010334199991,-8,-6,-7,-22,-24,-3,-1,0
1523010334199991,6,5,-1,-14,-12,-5,-2,-1
1523010334199991,0,3,-2,12,15,3,1,-1
1523010334222049,-1,2,-1,0,-5,4,-2,-1
1523010334222049,3,0,0,-1,-1,-1,0,1
1523010334223052,5,1,-3,-1,-2,-4,-4,-3
1523010334223052,-4,0,-2,-17,-14,-6,-2,-2
1523010334236087,0,1,1,1,5,-4,0,-1
1523010334236087,0,-1,0,9,8,2,1,3
1523010334237089,8,-2,-2,0,3,4,0,1
1523010334237089,8,6,-1,-28,-42,-2,1,0
1523010334260151,-13,-3,-2,-12,-18,-12,-8,-8
1523010334260151,-7,-10,-3,29,60,6,0,-3
1523010334260151,3,4,0,2,-18,-2,-4,-3
1523010334260151,5,-3,4,12,15,5,1,0
1523010334282209,15,11,0,-10,-13,-3,2,0
1523010334282209,-16,-8,-5,-26,-35,-7,-1,-3
1523010334283212,0,-4,-1,25,28,4,1,2
1523010334283212,-3,3,2,0,7,-1,-1,-1
1523010334304268,-4,2,0,6,4,2,-1,-2
1523010334304268,-1,-10,-4,-6,-7,3,1,0
1523010334305271,16,11,3,-3,1,0,2,3
1523010334305271,-13,-17,-6,-9,-7,-7,-3,1
1523010334319308,-5,-3,2,10,14,2,-3,0
1523010334319308,18,23,5,2,-9,-6,4,0
1523010334320311,-12,-24,-9,-7,-4,24,13,0
1523010334320311,-1,14,3,-1,0,-10,5,-4
1523010334342369,-3,-18,-7,-21,-20,-7,0,7
1523010334342369,7,14,-1,3,-9,-11,-13,-9
1523010334343372,-14,-13,-1,7,10,-6,-4,-1
1523010334343372,0,1,-1,6,14,9,1,1
1523010334356407,-4,3,-2,6,1,3,3,-4
1523010334356407,-7,-7,-1,-9,-28,-2,2,2
1523010334357411,11,10,-1,-9,-11,-6,-7,-2
1523010334357411,-5,-5,-6,-5,0,0,0,-2
1523010334379468,-20,-12,-1,4,5,-5,2,-1
1523010334379468,-2,4,3,-2,0,0,5,2
1523010334380471,25,15,4,-4,-7,-4,-2,0
1523010334380471,6,-17,-7,-4,-1,-4,-3,6
1523010334402530,25,21,2,2,3,0,-2,2
1523010334402530,-10,-10,-2,9,15,11,6,-2
1523010334402530,-28,-13,3,3,-20,-12,-10,-4
1523010334402530,-3,6,7,19,37,15,-1,-2
1523010334416567,-3,-6,-4,-7,-4,0,-6,-3
1523010334416567,-13,-14,-4,8,2,8,7,-1
1523010334417569,3,11,0,-10,-9,-11,-7,0
1523010334417569,8,2,-2,-12,-23,-7,-6,-3
1523010334439628,-6,-6,-2,3,3,-5,-1,2
1523010334439628,8,5,-2,-7,-4,-6,-5,-7
1523010334440631,-7,-8,-5,-3,1,2,0,0
1523010334440631,5,5,-3,-13,-18,-5,-9,-2
1523010334461686,-1,1,1,3,16,5,9,1
1523010334461686,9,-4,-3,5,-6,-6,-7,-1
1523010334462690,-3,-1,2,3,3,4,5,-2
1523010334462690,-8,-2,1,-3,1,-4,-6,-5
1523010334476726,3,-5,-2,2,-9,3,-1,-1
1523010334476726,-8,-2,-2,-9,-2,-3,-4,0
1523010334477729,17,14,1,0,3,1,-2,3
1523010334477729,-8,-10,-4,-5,-5,-7,2,-6
1523010334499788,0,-4,0,1,-2,-8,-2,-1
1523010334499788,17,5,-1,0,4,5,-2,0
1523010334500791,-5,-3,-1,-2,6,0,1,-2
1523010334500791,1,5,1,-11,-5,1,0,0
1523010334521846,-8,-6,-1,11,2,1,-1,-6
1523010334521846,-8,-4,1,5,2,-1,0,0
1523010334522849,-1,0,-4,-6,-4,-10,-2,-4
1523010334522849,6,11,1,-3,-8,5,-1,2
1523010334536886,-3,-8,-2,-6,16,-8,6,0
1523010334536886,-2,2,2,1,0,8,-15,1
1523010334536886,0,-10,-6,-5,2,3,-2,-3
1523010334536886,14,1,0,16,2,-3,2,2
1523010334559948,-5,0,1,-13,-17,-3,0,-3
1523010334559948,2,5,-1,4,-4,1,2,-3
1523010334559948,-8,-11,-2,-8,0,-8,-1,-1
1523010334559948,2,5,-3,-4,-6,1,0,2
1523010334582007,17,8,0,5,5,8,-2,-1
1523010334582007,-16,-14,-3,-12,-3,-7,1,2
1523010334583010,-9,0,0,4,-1,1,-2,-2
1523010334583010,-4,-3,0,1,2,-3,3,0
1523010334596044,1,2,0,2,-1,-1,-3,1
1523010334596044,16,6,2,-1,1,-3,-3,2
1523010334612086,-23,-5,2,5,2,4,4,-1
1523010334612086,0,-3,-5,-9,-5,-3,-3,-2
1523010334620108,-15,-10,-5,-11,-15,-8,-6,-5
1523010334620108,6,1,-2,19,20,12,3,0
1523010334620108,13,2,-1,7,2,-6,0,-1
1523010334620108,0,3,1,-10,-2,9,0,-1
1523010334642166,-20,-5,0,-8,-1,7,0,-2
1523010334642166,11,5,0,-1,-1,-9,0,4
1523010334643169,-3,-4,-5,-5,-8,2,-1,0
1523010334643169,-7,-1,1,1,6,0,-2,-5
1523010334656204,6,-2,-1,-11,-8,-8,-1,0
1523010334656204,-2,2,0,18,8,15,0,-1
1523010334657206,25,9,-1,1,9,1,4,-2
1523010334657206,-19,-9,1,-3,-8,-5,-3,-4
1523010334679265,17,6,-1,6,7,6,2,2
1523010334679265,-27,-10,-1,-13,-11,-8,-5,-5
1523010334680268,4,-1,-1,-3,-2,1,-1,5
1523010334680268,7,4,2,1,0,0,-1,-2
1523010334702326,-14,-8,-2,-4,-1,-5,-3,-4
1523010334702326,1,-5,-3,-7,-1,-3,-1,-7
1523010334703329,-1,8,2,-2,1,-3,-6,-4
1523010334703329,-9,-7,0,29,6,-1,4,1
1523010334715361,-4,-1,0,4,2,2,-1,4
1523010334715361,29,6,1,-22,-13,-1,9,6
1523010334724385,-27,-11,-2,24,12,8,1,-2
1523010334724385,5,2,-1,0,-3,-7,-4,-4
1523010334739425,0,0,-1,3,0,-1,-3,-4
1523010334739425,-1,4,-3,-17,-18,-13,-6,-5
1523010334740432,-30,-7,2,-11,-2,-6,-1,-3
1523010334740432,26,0,-5,4,1,11,1,3
1523010334762487,-8,-6,-2,7,10,2,0,3
1523010334762487,32,10,2,-6,-1,-7,1,4
1523010334762487,-10,1,1,-8,-12,-8,-5,-7
1523010334762487,-21,-2,-3,4,-14,-9,-8,-10
1523010334775521,-10,-5,-2,-9,-10,3,1,1
1523010334775521,7,4,1,19,7,-1,0,5
1523010334783542,15,-2,-2,-5,3,1,-1,3
1523010334783542,4,3,2,-9,6,0,1,0
1523010334799585,8,1,-1,-6,-7,-1,-3,-1
1523010334799585,-17,-7,0,7,2,0,-2,-3
1523010334800588,2,3,0,-1,-3,-2,-1,-1
1523010334800588,-6,-3,-1,-2,0,1,4,-1
1523010334822646,-14,-3,-1,9,8,-2,0,0
1523010334822646,8,-6,-4,-15,-8,-3,-4,-3
1523010334823649,-12,-8,-4,-7,-1,3,-4,0
1523010334823649,9,3,0,0,5,-1,-2,0
1523010334835681,-10,-4,-1,0,5,0,0,-1
1523010334835681,-11,-1,-1,-1,-9,-6,-1,-3
1523010334843702,19,5,0,5,3,3,3,1
1523010334843702,-11,1,2,5,3,3,-1,-2
1523010334859745,12,-8,-5,-2,1,-1,1,5
1523010334859745,5,3,0,-12,-1,-1,0,-1
1523010334860748,-2,1,1,0,-1,-4,-3,-4
1523010334860748,-20,-10,-4,12,3,-2,2,5
1523010334881804,10,7,3,2,1,0,-4,-6
1523010334881804,-3,-2,-1,12,7,-1,-1,-1
1523010334882807,-3,-2,-2,-9,-15,-1,-1,-2
1523010334882807,-7,4,0,-11,-2,1,-1,-1
1523010334895841,-9,-6,-3,-4,1,0,0,-2
1523010334895841,0,-3,-4,-12,-11,-1,-1,2
1523010334903862,16,3,2,13,10,-1,-2,0
1523010334903862,3,1,3,5,1,-2,-1,0
1523010334917899,21,9,1,-2,-3,0,-2,-3
1523010334917899,-47,-16,-7,-6,-1,0,0,-1
1523010334926924,-4,-3,-2,-8,-4,-1,-1,-5
1523010334926924,6,1,-1,-14,-1,-3,-1,0
1523010334941964,31,5,3,-1,-8,-7,-2,1
1523010334941964,-22,-5,2,25,15,5,1,5
1523010334942966,-3,1,0,-5,-7,1,2,-2
1523010334942966,4,-2,-2,-11,0,-4,-3,0
1523010334956001,-1,5,2,39,16,14,3,0
1523010334956001,17,4,-1,1,-4,-4,-3,-2
1523010334965025,-13,-5,-5,-5,-7,-4,-1,-3
1523010334965025,-4,-1,-1,-6,-15,-2,-2,-1
1523010334978060,-5,1,-2,-12,3,-1,0,1
1523010334978060,3,-1,0,1,6,2,-1,-1
1523010334987084,7,5,1,1,1,-1,2,0
1523010334987084,7,-5,-3,-8,-4,-2,0,1
1523010335002123,-18,-1,0,7,-3,-4,-3,-2
1523010335002123,6,0,-2,0,0,-1,0,-1
1523010335004129,-1,4,0,-26,-1,0,0,1
1523010335004129,16,4,2,20,7,-1,0,-1
1523010335016161,-18,-3,2,32,10,3,3,-1
1523010335016161,21,9,0,5,-7,-3,-3,-4
1523010335025185,-17,-3,0,8,6,0,-1,-3
1523010335025185,-23,-9,-6,-13,-7,-8,-5,0
1523010335047246,13,4,-3,-33,-1,2,0,2
1523010335047246,18,5,-1,-4,-1,1,-1,-4
1523010335049249,2,-6,-2,2,-6,-3,-4,2
1523010335049249,-29,-11,-3,2,-2,1,-1,-2
1523010335062283,-1,-1,-2,-10,2,-6,-2,1
1523010335062283,1,0,1,-14,-5,0,2,2
1523010335064289,4,1,0,10,2,-2,-1,-4
1523010335064289,4,2,-1,0,4,-1,-3,-6
1523010335084342,-18,-9,-3,-1,-5,-2,0,-4
1523010335084342,-13,0,-1,5,-1,8,2,0
1523010335086348,19,8,4,12,1,2,-2,-1
1523010335086348,-21,-12,-6,-17,-6,-3,1,8
1523010335098379,20,7,-5,-48,-28,-8,-1,0
1523010335098379,0,0,6,72,34,4,0,-3
1523010335107404,-14,-3,-2,2,0,-1,-1,-2
1523010335107404,32,11,-1,1,1,2,-2,0
1523010335122443,-2,-3,-3,-28,-16,-4,0,0
1523010335122443,-24,-5,-3,-29,-15,-5,-4,-4
1523010335123447,10,3,0,10,5,2,0,4
1523010335123447,-6,-9,-1,5,3,1,3,1
1523010335144502,-9,-2,0,-12,-11,-3,-3,-4
1523010335144502,4,1,-1,-9,-8,-3,-4,0
1523010335146508,-4,-7,0,32,28,7,1,2
1523010335146508,-3,-2,0,-4,-5,-1,0,-3
1523010335158539,1,1,0,12,6,1,-2,1
1523010335158539,2,-1,-7,-54,-16,-7,-2,0
1523010335167564,7,4,-1,17,-9,-8,0,2
1523010335167564,-3,4,4,5,6,5,-2,-3
1523010335182604,3,-3,-4,11,5,3,1,-1
1523010335182604,-6,-1,3,-16,-17,-5,3,3
1523010335183607,1,-5,-9,-51,-33,-8,-4,-3
1523010335183607,5,6,12,95,93,17,6,2
1523010335204662,-3,9,3,11,2,4,-4,-7
1523010335204662,-20,-23,-9,0,4,-3,1,1
1523010335206668,10,8,-1,-35,-28,-6,-2,2
1523010335206668,2,-16,-8,-30,-29,-8,-2,4
1523010335218700,2,5,3,27,30,5,0,-3
1523010335218700,-8,3,-1,4,4,1,1,-2
1523010335227724,-9,-4,0,-1,3,0,-1,-4
1523010335227724,5,15,4,-19,-22,-3,0,1
1523010335249782,0,-7,-5,6,2,-7,-2,5
1523010335249782,13,3,-3,-5,-3,1,-1,-4
1523010335255798,-1,-6,0,2,-4,-1,2,-3
1523010335255798,2,1,-3,-9,-11,-4,-5,-5
1523010335264822,-15,-13,-2,-8,-13,0,0,-1
1523010335264822,1,9,2,3,-5,-4,-3,-4
1523010335265825,-6,-6,0,11,22,4,0,1
1523010335265825,2,-15,-6,-16,-15,-6,-3,-2
1523010335277857,3,6,-3,-7,-6,-6,-1,-1
1523010335277857,0,-5,1,9,1,2,-2,-1
1523010335286881,2,11,6,32,56,14,2,0
1523010335286881,-4,1,0,-11,-12,1,0,-2
1523010335301921,-10,-9,1,1,-11,-3,2,-2
1523010335301921,13,5,-7,-10,-19,-8,-1,1
1523010335303926,1,-1,-4,-9,2,-1,0,1
1523010335303926,7,7,1,-4,-1,-3,-1,-1
1523010335324982,-2,-1,-1,10,19,4,1,0
1523010335324982,-13,-10,0,4,5,0,0,-4
1523010335325985,-5,-10,-3,-6,-13,-5,-2,1
1523010335325985,5,12,-1,-6,-11,-3,-3,-1
1523010335338017,9,-10,-6,-5,-8,-11,-3,2
1523010335338017,-1,7,5,0,10,-4,-7,-2
1523010335347041,3,-10,-6,6,-17,14,3,3
1523010335347041,-5,-2,2,2,13,5,7,0
1523010335362081,-5,2,0,-7,-19,-8,-6,0
1523010335362081,-1,-1,1,11,25,10,4,-1
1523010335364087,-7,-7,-3,-25,-24,-13,-6,-2
1523010335364087,-5,1,4,14,10,6,-3,-3
1523010335385142,8,8,0,9,8,3,3,3
1523010335385142,9,19,0,-5,-27,-9,-6,0
1523010335386146,-8,-20,-5,-14,-3,-3,0,1
1523010335386146,3,4,-3,3,12,2,-1,-2
1523010335398177,8,6,5,4,-2,-6,-2,-2
1523010335398177,-18,-22,-2,10,18,8,0,-2
1523010335407201,10,11,-1,3,0,-4,0,-1
1523010335407201,6,1,-3,-14,-17,-6,-2,-2
1523010335422241,-4,-6,-1,1,1,3,-1,-1
1523010335422241,1,5,0,-4,-11,0,1,0
1523010335424246,1,4,4,12,22,1,3,0
1523010335424246,-10,-16,-3,6,6,0,0,-1
1523010335444299,3,15,-1,-2,0,5,1,1
1523010335444299,-2,-4,1,-6,-7,-4,-1,0
1523010335446305,3,2,-2,-2,-17,-5,-2,0
1523010335446305,5,4,2,-10,12,-2,-1,-1
1523010335458337,-5,-2,-4,11,0,-1,-1,-3
1523010335458337,-5,-1,0,11,22,2,0,-2
1523010335467361,4,6,2,-5,-11,-4,0,0
1523010335467361,-4,-6,-2,-6,-19,-5,-3,-2
1523010335482401,-4,0,0,-11,-3,2,1,-1
1523010335482401,-3,-13,-4,4,10,-2,-3,-1
1523010335488417,4,11,0,5,3,3,0,0
1523010335488417,1,0,-3,-7,-17,-4,1,5
1523010335504460,0,-5,-3,-13,1,-3,-2,-2
1523010335504460,-8,-5,2,14,13,5,-1,-1
1523010335506465,12,-2,-4,-3,-4,-3,-1,3
1523010335506465,3,6,1,2,-8,1,-2,0
1523010335518497,0,-3,0,2,11,0,1,2
1523010335518497,5,3,-3,-6,-6,-1,2,0
1523010335527521,-14,-4,0,0,5,-4,-2,-2
1523010335527521,-1,-3,-2,-4,-9,-1,1,-2
1523010335542561,4,6,1,4,-1,-2,-1,-1
1523010335542561,1,0,-1,-13,-10,1,0,-2
1523010335543564,-7,-4,-2,1,6,-2,-2,-5
1523010335543564,8,10,1,7,15,3,1,1
1523010335564620,-17,-21,-1,-2,-2,3,0,-3
1523010335564620,-3,0,-2,5,8,-1,1,-1
1523010335566625,8,4,0,-11,-15,-1,-1,1
1523010335566625,8,2,-1,0,-4,-5,-2,0
1523010335578657,0,-1,-1,1,5,2,1,1
1523010335578657,-5,-7,-2,-6,-8,-4,-2,-1
1523010335587681,-9,1,2,-9,-12,0,-3,-5
1523010335587681,-4,-10,-5,30,31,-1,-1,1
1523010335601718,14,11,-1,2,-1,2,0,0
1523010335601718,-5,-6,-5,-7,-12,-3,-3,-4
1523010335603724,1,4,4,-2,2,1,2,-1
1523010335603724,-11,-5,1,-8,-11,-1,-3,-3
1523010335624779,-12,-10,-4,-6,-11,-2,-1,0
1523010335624779,17,7,-3,-2,7,-3,-1,3
1523010335626785,5,0,-1,4,-3,-1,1,0
1523010335626785,-12,-7,-3,-4,-4,-4,-4,-6
1523010335638817,-3,7,2,7,2,5,1,-1
1523010335638817,-7,-8,-1,-4,5,-3,-6,-2
1523010335647841,-2,-4,-2,11,6,4,7,-1
1523010335647841,5,-1,-1,-13,-13,7,2,0
1523010335661878,2,5,-3,2,-5,-4,-2,0
1523010335661878,5,2,-1,-7,-7,-1,1,0
1523010335663884,-13,-6,-2,-1,0,-7,-5,-4
1523010335663884,11,5,-1,-4,-6,-1,0,2
1523010335684939,12,-3,0,-6,3,1,-1,0
1523010335684939,-3,-7,-2,-13,-11,-8,-2,2
1523010335690955,-1,0,1,17,17,3,-2,-1
1523010335690955,0,1,1,-7,0,4,1,-2
1523010335697974,-24,-12,-1,2,-1,-2,-3,-4
1523010335697974,25,5,-1,2,-7,-2,0,4
1523010335706998,-3,-2,-5,-5,-1,1,0,-1
1523010335706998,-5,-1,1,-5,2,-5,0,1
1523010335722038,2,-1,-1,-5,-9,-4,-3,-2
1523010335722038,-6,0,3,4,3,2,0,-1
1523010335724044,8,6,0,-2,-5,1,0,2
1523010335724044,-20,-16,-8,-23,4,-5,-3,-3
1523010335745099,13,13,6,37,21,2,0,-4
1523010335745099,-30,-20,-6,-14,-15,-3,1,-1
1523010335746102,21,2,-3,9,0,1,-1,3
1523010335746102,-4,7,4,8,6,2,-1,-3
1523010335758135,-4,-4,-2,-20,-10,-4,-2,-2
1523010335758135,-1,3,1,3,3,2,-1,-5
1523010335767158,-7,0,0,-8,-7,-9,-2,-1
1523010335767158,8,-1,-1,-4,-7,-3,-2,0
1523010335781195,-34,-13,-8,-6,5,8,1,-2
1523010335781195,37,9,-1,2,-2,0,0,9
1523010335788214,-10,-4,1,-11,3,-2,-1,-3
1523010335788214,-8,2,3,28,10,1,2,2
1523010335804257,16,-1,-2,-4,-8,-2,-2,1
1523010335804257,-13,2,1,-18,-14,-2,-3,-5
1523010335806262,0,-2,1,5,4,0,0,-1
1523010335806262,2,0,1,4,-2,-1,0,0
1523010335818294,2,3,-3,21,5,3,-2,0
1523010335818294,-22,-8,-3,-9,-3,-1,1,-4
1523010335827318,17,3,2,-16,2,0,-3,2
1523010335827318,-20,-8,1,16,-7,1,1,-4
1523010335840353,-2,-5,-5,-11,-1,-1,0,3
1523010335840353,19,8,-1,-2,-1,-3,-2,2
1523010335849377,-6,-1,2,-1,0,2,0,-4
1523010335849377,-5,-3,-2,-5,0,0,1,-1
