timestamp,emg1,emg2,emg3,emg4,emg5,emg6,emg7,emg8
1523010359785537,-12,-16,-1,10,18,-11,-8,-9
1523010359785537,52,14,-4,-7,-5,-5,3,10
1523010359786540,-14,4,0,0,2,-4,10,-15
1523010359786540,23,-3,1,-2,-4,0,-2,4
1523010359789547,6,-1,2,-1,0,2,2,1
1523010359789547,-32,-16,-7,5,3,-1,0,-9
1523010359791558,34,5,0,-3,-1,1,-13,3
1523010359791558,-49,-7,-2,-1,0,1,0,-4
1523010359797569,-18,2,-1,-5,-4,-1,3,0
1523010359797569,11,7,3,0,2,2,-1,2
1523010359806593,15,-9,-6,-2,-2,0,4,3
1523010359806593,3,4,4,-2,4,-2,-2,-3
1523010359822636,11,2,1,-1,-2,1,-2,5
1523010359822636,-1,4,-2,1,-1,-3,0,-1
1523010359826647,-28,-14,-1,3,3,-7,-8,-11
1523010359826647,6,-2,-5,-8,-6,1,-4,1
1523010359842690,7,1,2,-10,-13,9,7,7
1523010359842690,-8,-3,-4,6,7,-2,-1,-2
1523010359851714,-21,-7,-1,1,7,-4,-6,0
1523010359851714,14,2,-2,7,18,-12,0,3
1523010359871767,14,7,1,-10,-12,8,0,2
1523010359871767,-20,1,8,15,-13,6,-2,-9
1523010359905857,1,0,0,-16,-29,24,7,6
1523010359905857,5,7,8,8,-8,-11,1,-1
1523010359909868,23,4,-1,-4,-3,-6,-3,4
1523010359909868,7,0,1,10,22,0,0,9
1523010359910871,-24,-19,-3,11,-7,-35,-14,-9
1523010359910871,2,-8,-13,-15,-7,18,8,-5
1523010359911873,18,21,3,-1,11,32,8,1
1523010359911873,1,5,9,2,-4,-12,-3,-2
1523010359916886,-66,-15,-9,-5,0,-7,-5,-7
1523010359916886,9,5,1,8,4,-11,-1,7
1523010359923905,14,-6,-6,-11,-20,-7,-2,2
1523010359923905,-17,-11,-14,-23,-34,4,-2,-8
1523010359930924,5,5,5,7,16,-5,-2,-3
1523010359930924,-15,-11,-4,24,32,-3,5,-4
1523010359945963,-1,-3,-5,-1,5,10,-2,0
1523010359945963,20,7,3,-5,-5,1,-1,4
1523010359953985,17,4,1,-15,-23,0,5,4
1523010359953985,-1,4,0,8,8,-4,-3,-4
1523010359961004,9,7,1,2,-14,-6,-2,-2
1523010359961004,-10,-1,-7,-10,-14,-10,-13,-4
1523010359977046,-26,-23,-4,-7,6,11,15,-1
1523010359977046,-9,10,5,-9,-12,-5,-20,-2
1523010359984066,5,-7,1,-3,8,5,10,4
1523010359984066,22,11,5,4,-10,-8,-11,1
1523010359991084,-12,-11,-3,10,42,16,16,4
1523010359991084,9,17,-1,13,7,0,12,-16
1523010360006124,-34,-21,-6,7,5,-18,-22,-2
1523010360006124,22,6,4,0,6,-2,-11,3
1523010360014145,-5,8,2,-2,-3,2,27,-1
1523010360014145,-8,-5,-1,-5,3,-3,-8,2
1523010360021164,-22,-11,-4,-5,-7,27,16,-6
1523010360021164,39,5,-1,1,7,13,37,14
1523010360037206,-8,1,3,-1,-12,-14,-23,-6
1523010360037206,-40,-23,-5,1,12,5,1,-4
1523010360043222,15,23,6,3,-8,-19,-16,7
1523010360043222,-28,-21,-6,-1,4,-6,-12,-12
1523010360051244,55,20,6,3,2,14,5,3
1523010360051244,19,7,0,-4,-6,-1,3,8
1523010360066284,-12,-8,-3,2,16,-5,-10,-14
1523010360066284,-34,-12,1,1,-7,5,18,-1
1523010360074306,19,10,0,-3,-3,-2,-11,0
1523010360074306,12,-2,1,-11,-4,2,-6,4
1523010360081324,7,0,-2,1,-6,-6,7,0
1523010360081324,-25,-8,-5,0,7,-1,-5,-8
1523010360096364,33,3,-5,-3,1,-2,2,5
1523010360096364,-63,-16,-3,-9,-9,-1,-12,-14
1523010360103384,19,1,2,-1,-4,0,5,4
1523010360103384,1,2,-2,1,4,2,-2,-1
1523010360111404,-27,-11,-2,1,3,-7,-10,-11
1523010360111404,44,8,-1,-12,-23,3,12,12
1523010360126445,7,12,6,-7,-2,-3,4,1
1523010360126445,-36,-10,-3,-1,5,-5,-9,-6
1523010360133462,-16,-11,-2,9,4,13,-4,-11
1523010360133462,9,1,-1,0,0,-6,3,1
1523010360142486,-2,-1,-4,-15,-26,-10,-6,-2
1523010360142486,28,15,4,-5,-1,0,-7,6
1523010360156523,9,5,4,17,24,-3,6,2
1523010360156523,-11,-4,-1,4,-2,-3,-1,-3
1523010360163542,-14,-10,0,6,5,8,5,-2
1523010360163542,-19,-8,-7,-10,-18,-3,-1,-8
1523010360171564,32,25,8,-11,-17,-6,-7,5
1523010360171564,-3,-11,-4,-6,5,-3,-7,-3
1523010360186604,-22,-27,-14,19,33,-15,-5,-4
1523010360186604,10,31,11,-3,-19,4,1,-1
1523010360194625,-7,-9,7,-8,-8,14,-2,-1
1523010360194625,27,-8,-8,15,16,-19,1,9
1523010360208662,-13,43,21,-24,-48,9,-3,-7
1523010360208662,-6,-14,-13,-5,19,52,21,1
1523010360216683,16,4,1,16,31,-8,-2,2
1523010360216683,9,9,0,-22,-5,1,-1,1
1523010360223702,-34,-22,-14,15,22,-30,-11,-10
1523010360223702,-1,-1,2,3,-38,-30,-9,-2
1523010360230721,21,0,-4,-32,-31,22,8,6
1523010360230721,-15,0,5,11,19,9,5,14
1523010360245761,25,-13,-8,6,21,-3,-8,-10
1523010360245761,-44,-3,3,10,16,-6,-7,-14
1523010360254785,-72,-19,-5,11,10,-13,-8,-8
1523010360254785,7,7,0,-2,-15,-2,-5,-1
1523010360268822,20,15,4,-6,0,17,10,6
1523010360268822,58,5,4,6,6,-9,2,9
1523010360276843,-5,0,-5,-25,-51,-15,-4,2
1523010360276843,-6,-4,-5,5,40,17,-4,-13
1523010360283862,-18,1,4,23,9,1,16,2
1523010360283862,13,-8,-3,3,11,-15,-18,-1
1523010360298902,-44,-3,-2,3,3,6,2,-5
1523010360298902,47,11,6,-32,-54,-4,-1,1
1523010360307927,-36,-23,-8,-12,-5,-5,-2,3
1523010360307927,-6,13,1,24,40,2,-2,-7
1523010360313942,17,2,2,-6,-8,-4,-3,0
1523010360313942,28,11,3,3,-7,-2,-6,5
1523010360325974,-16,-11,-2,9,4,13,-4,-11
1523010360325974,9,1,-1,0,0,-6,3,1
1523010360330987,-2,-1,-4,-15,-26,-10,-6,-2
1523010360330987,28,15,4,-5,-1,0,-7,6
1523010360330987,9,5,4,17,24,-3,6,2
1523010360330987,-11,-4,-1,4,-2,-3,-1,-3
1523010360332993,26,-17,-6,-23,-36,-5,1,0
1523010360332993,-23,-7,-1,13,34,4,9,-6
1523010360337003,17,2,-3,8,9,2,17,3
1523010360337003,-10,-3,-1,26,1,17,-9,2
1523010360352044,-48,-11,-5,-8,-5,-2,-4,-18
1523010360352044,31,3,-2,-24,-30,-6,-6,10
1523010360353046,14,9,5,4,8,0,-6,-7
1523010360353046,-26,-6,2,-1,-3,-11,4,-3
1523010360366081,18,13,4,-2,-4,4,2,10
1523010360366081,6,-2,-3,-5,-8,5,6,3
1523010360374103,-20,-11,-6,3,9,-10,-6,-6
1523010360374103,-10,-1,-1,-7,-9,0,2,0
1523010360389142,7,21,12,8,7,5,-2,4
1523010360389142,-2,-8,-2,-4,0,-1,2,-7
1523010360397164,23,4,-1,6,6,-9,-1,5
1523010360397164,-12,-7,-3,0,-7,-14,-3,-7
1523010360403180,5,-11,-14,-13,5,7,-1,-1
1523010360403180,0,5,5,0,7,24,5,9
1523010360411201,4,10,3,-3,-8,-9,-3,1
1523010360411201,-9,0,-4,-3,-9,3,4,-5
1523010360426241,-8,-2,7,20,24,-17,-6,-2
1523010360426241,5,-3,-4,-4,-32,-2,1,2
1523010360433260,2,-5,-11,-23,7,19,-1,3
1523010360433260,13,-6,-3,0,9,-23,3,3
1523010360465345,12,11,2,-4,-4,3,-8,0
1523010360465345,-35,-21,-8,-8,-7,6,-1,-11
1523010360466348,29,6,9,10,-8,8,3,9
1523010360466348,-59,-11,1,7,-7,-10,-6,-16
1523010360468353,14,6,0,11,14,-5,-1,7
1523010360468353,-30,-8,-11,-28,8,1,-4,-2
1523010360471361,26,-11,-4,-1,0,-3,2,0
1523010360471361,2,-12,-13,-2,-1,0,1,3
1523010360486401,40,32,14,0,-13,1,0,1
1523010360486401,15,15,9,3,-2,1,4,5
1523010360493420,-30,-13,-5,-1,0,-2,-4,0
1523010360493420,-88,-25,-9,-11,-6,4,-6,-29
1523010360508460,0,-5,-7,4,-3,-18,-8,-8
1523010360508460,43,12,-1,0,1,13,8,11
1523010360516481,-12,5,4,-1,-10,0,-6,-5
1523010360516481,40,6,3,-4,-1,14,7,12
1523010360523499,-16,-5,-4,14,22,11,0,-3
1523010360523499,3,-5,1,-8,-10,-11,3,-2
1523010360539542,10,2,3,12,8,-2,-5,1
1523010360539542,21,18,3,-26,-12,-11,-9,2
1523010360546561,-21,-25,-6,9,-15,11,3,-4
1523010360546561,-38,3,5,11,15,-1,1,4
1523010360553580,-29,-11,-11,-6,-14,-2,-1,-9
1523010360553580,47,20,1,8,20,13,11,-3
1523010360568620,9,0,-1,2,2,-2,-4,3
1523010360568620,33,0,3,8,1,-17,-5,-4
1523010360576641,-69,-19,-6,-8,-11,4,16,-6
1523010360576641,-26,9,3,-13,-14,10,-15,4
1523010360583660,76,28,4,11,13,4,14,12
1523010360583660,-40,-28,-5,3,-1,1,6,-9
1523010360599702,12,-1,-2,-1,9,-14,-27,-10
1523010360599702,18,2,-1,5,4,-4,3,3
1523010360605718,-6,5,4,-8,-1,2,2,6
1523010360605718,11,-5,-4,-4,-6,-9,-15,-5
1523010360621761,33,4,2,-5,-3,-5,-2,7
1523010360621761,-64,-9,-4,9,0,7,10,-3
1523010360628780,12,-4,0,-10,-7,-2,-4,3
1523010360628780,17,9,2,-5,1,-1,1,3
1523010360636801,-1,5,0,5,3,-5,0,-3
1523010360636801,17,-3,-1,2,-2,-3,-6,0
1523010360643820,-16,-6,-6,-8,3,-4,10,-3
1523010360643820,-28,0,1,6,3,0,-3,-7
1523010360659862,-1,2,1,9,3,-8,-2,2
1523010360659862,27,6,-2,-12,-9,7,2,10
1523010360667884,-24,-17,-6,-15,-20,-8,-2,-13
1523010360667884,-6,-3,-4,16,31,-13,-5,-2
1523010360673900,20,13,6,3,-1,18,-1,-1
1523010360673900,6,-8,-2,-1,4,5,7,7
1523010360688940,-19,2,2,-4,-32,-23,-4,-1
1523010360688940,2,4,-4,-15,4,14,-5,-6
1523010360696961,18,10,2,-1,1,-14,2,6
1523010360696961,14,-3,0,5,-2,12,6,5
1523010360703980,-31,-12,-1,-10,8,8,-9,-11
1523010360703980,21,11,3,19,4,-25,-5,3
1523010360719020,-7,-12,-11,-30,-35,-10,-5,-2
1523010360719020,-34,-13,6,6,3,6,4,-6
1523010360726039,-13,5,-2,-10,-5,-2,-6,0
1523010360726039,28,24,14,-3,3,11,8,11
1523010360734060,-18,-15,-7,7,6,-9,-7,-18
1523010360734060,53,14,2,7,8,-12,-3,4
1523010360749103,-1,-8,0,11,12,4,1,5
1523010360749103,-55,-22,-8,-8,-12,2,-1,-3
1523010360757121,-12,5,5,2,19,8,6,8
1523010360757121,11,3,-1,-8,-30,-12,-9,-2
1523010360764140,-25,9,-3,1,17,2,8,-13
1523010360764140,24,-7,-5,-1,-1,20,17,6
1523010360779179,19,-1,3,6,1,-2,-10,1
1523010360779179,-15,5,1,-1,9,-9,1,0
1523010360786198,4,-11,-6,-11,-21,6,-6,-3
1523010360786198,-7,8,3,-5,-16,-10,-4,-2
1523010360793218,-5,-1,-4,-17,-15,-17,3,1
1523010360793218,-18,0,-3,2,3,18,-4,-1
1523010360817281,-15,-22,-10,5,5,3,4,-3
1523010360817281,15,-2,3,15,20,-3,-10,-1
1523010360818283,19,12,4,14,2,5,5,7
1523010360818283,19,3,-3,-4,7,-18,-8,-2
1523010360831318,-7,7,5,-20,-24,6,9,-6
1523010360831318,-41,-13,-9,9,-19,-2,-20,-9
1523010360839339,22,-4,3,10,15,16,6,8
1523010360839339,-4,11,2,0,-2,-7,-3,-1
1523010360854379,13,-13,-6,-4,4,-4,-2,-1
1523010360854379,4,-2,1,-14,-17,3,-8,-4
1523010360855383,18,21,6,7,10,-2,-26,3
1523010360855383,-45,-11,-2,-2,-1,3,-8,-1
1523010360876438,27,-7,-3,4,13,-4,23,3
1523010360876438,12,7,1,-7,-12,0,8,-1
1523010360883457,-20,-7,-3,2,2,0,6,-6
1523010360883457,32,5,-1,4,4,-1,-2,3
1523010360900502,-9,-3,-1,2,-4,-2,-12,0
1523010360900502,-13,-8,-6,-4,0,-5,2,0
1523010360901505,-11,-3,-4,-2,3,1,2,-4
1523010360901505,12,-2,5,5,3,1,2,-3
1523010360922561,-3,7,3,-2,0,-3,-4,7
1523010360922561,-3,-6,-3,1,11,2,4,-2
1523010360928577,9,-1,0,0,0,-2,-4,-3
1523010360928577,-5,-3,-4,-4,-9,-12,2,-8
1523010360936598,-4,6,5,6,10,2,-2,4
1523010360936598,4,4,2,-12,-14,3,-1,3
1523010360945622,-4,-8,-3,4,14,-2,4,1
1523010360945622,-7,-4,-2,3,-5,-8,4,1
1523010360959659,1,9,4,-6,-12,14,-5,0
1523010360959659,6,-6,-2,-2,0,2,2,-1
1523010360961665,-11,-12,-5,2,-3,0,1,-11
1523010360961665,5,11,0,-1,-1,-14,-2,0
1523010360982721,13,-3,-2,13,25,-24,-10,6
1523010360982721,-34,4,4,-10,-29,18,3,0
1523010360983723,27,2,1,-7,8,25,13,7
1523010360983723,-31,-15,-3,5,11,3,0,-11
1523010360995755,-3,2,-4,0,5,-6,-1,3
1523010360995755,22,0,-5,2,10,-17,-5,3
1523010361004779,-7,-4,-2,-4,-5,5,3,5
1523010361004779,14,7,2,-8,-22,-1,-4,-9
1523010361019819,11,2,1,-1,9,2,0,5
1523010361019819,7,-5,-2,5,5,-14,-2,1
1523010361021825,3,13,1,-8,-19,-12,-1,1
1523010361021825,4,-6,-5,-10,5,7,4,11
1523010361042881,-110,-38,-9,12,11,3,-8,-27
1523010361042881,30,12,2,-8,-6,-12,-3,0
1523010361043884,28,7,0,18,27,10,2,11
1523010361043884,29,12,5,31,13,11,20,7
1523010361055916,31,9,3,-17,-29,-3,-7,-1
1523010361055916,-75,-16,0,19,17,3,2,-3
1523010361064940,-70,-24,-8,-18,-14,-16,-6,-14
1523010361064940,61,13,1,-5,2,4,-5,11
1523010361079980,16,11,3,-6,-18,-9,-1,0
1523010361079980,-37,-5,-2,-23,-31,-4,-3,-1
1523010361081985,22,8,5,18,19,5,4,1
1523010361081985,-39,-21,-6,-15,-13,-1,-1,-2
1523010361103041,40,12,-3,1,-24,-5,3,-2
1523010361103041,6,1,1,39,46,10,-5,-2
1523010361104043,30,3,0,10,15,-5,7,7
1523010361104043,5,1,-1,-26,-25,7,-10,-10
1523010361116075,-33,-14,-3,3,20,2,-4,-4
1523010361116075,8,4,-2,-3,-12,-3,8,-1
1523010361125100,13,15,2,4,-7,2,11,-3
1523010361125100,-29,-16,-5,-4,1,-10,-8,-8
1523010361140139,18,16,4,-14,-18,-7,-1,13
1523010361140139,23,-2,-4,-3,-2,-2,-9,-7
1523010361142145,7,3,3,-1,-4,-7,-11,5
1523010361142145,-5,-11,-6,-7,1,8,16,-2
1523010361162198,-9,5,4,6,6,4,0,2
1523010361162198,9,-6,-3,2,10,5,7,-2
1523010361164204,-24,-11,-5,-16,-18,-11,-4,-9
1523010361164204,-11,-2,1,4,9,-8,-6,1
1523010361176235,8,0,0,8,3,7,-1,2
1523010361176235,31,5,2,-12,-2,-4,0,2
1523010361185260,-21,-1,-4,-11,-19,-3,-4,-6
1523010361185260,-11,-4,-2,14,19,1,-5,-1
1523010361200299,24,3,1,7,3,-2,0,5
1523010361200299,-2,1,-3,-16,-10,-1,3,3
1523010361201302,-12,-2,5,1,0,-5,-5,-5
1523010361201302,0,-1,6,30,23,-12,-2,2
1523010361222358,-8,-7,-14,-30,-30,2,-2,-10
1523010361222358,4,-2,-5,-12,-1,38,7,6
1523010361224365,-2,-5,1,1,-1,-10,3,2
1523010361224365,14,7,-1,-14,-36,0,2,7
1523010361236396,6,-1,5,12,19,-1,-3,-3
1523010361236396,12,3,10,22,-4,-39,-11,-7
1523010361245420,-5,-4,-1,29,52,3,-4,0
1523010361245420,-34,-27,-33,-53,-53,4,-7,-9
1523010361260460,14,9,4,-15,0,33,20,19
1523010361260460,3,4,3,-8,-1,-6,2,-4
1523010361261463,44,10,6,14,-7,-19,-3,4
1523010361261463,7,5,10,23,10,-21,-10,-3
1523010361282518,-112,-28,-11,-20,7,8,0,-7
1523010361282518,37,5,-2,11,9,5,-4,-7
1523010361284524,-40,-12,-11,-11,-10,-3,-7,-15
1523010361284524,56,17,6,4,-3,6,1,12
1523010361296555,9,2,-3,-7,4,-1,-1,-1
1523010361296555,23,2,2,22,35,-6,2,5
1523010361305579,-54,-15,-5,-5,-18,13,4,-2
1523010361305579,66,14,6,2,5,8,2,7
1523010361319617,-6,2,1,-6,-9,-13,-5,-8
1523010361319617,-30,-15,-5,2,-9,-10,3,2
1523010361321622,-34,6,-5,-17,-14,3,-11,-25
1523010361321622,-7,-12,-4,-27,-29,-5,4,2
1523010361342678,40,7,8,22,22,-7,-3,6
1523010361342678,19,-5,-1,-7,-9,8,1,4
1523010361343681,14,18,1,13,8,8,4,11
1523010361343681,-48,-4,4,7,17,-1,1,-12
1523010361356715,23,4,-2,-10,-40,-13,-6,-7
1523010361356715,-26,0,-3,-18,-1,-1,-3,-3
1523010361364737,-2,-21,-2,7,1,9,4,17
1523010361364737,-38,-3,6,-8,-15,-7,-6,-23
1523010361379777,44,5,-2,12,30,-7,1,4
1523010361379777,-30,20,3,6,-6,24,-4,-2
1523010361385793,9,1,1,3,-4,-3,1,1
1523010361385793,2,2,-4,9,18,4,1,4
1523010361402838,66,8,4,-6,-15,1,4,9
1523010361402838,-62,-19,-4,-6,-7,-16,-19,-22
1523010361403841,24,6,1,-8,-4,-3,15,3
1523010361403841,-10,6,3,0,14,7,10,3
1523010361415873,-99,-27,-7,14,15,-1,-1,-6
1523010361415873,52,9,-1,-2,-2,-4,4,11
1523010361424897,-9,7,0,-17,-15,-1,-10,-14
1523010361424897,24,-4,-1,10,7,1,-3,5
1523010361438934,-1,6,1,1,-1,-1,-2,-7
1523010361438934,-27,-7,-7,-2,-5,-4,1,-2
1523010361445953,-4,-2,2,-8,-6,2,-2,2
1523010361445953,21,9,6,6,12,3,5,7
1523010361462998,-21,-7,-9,1,3,-2,-8,-6
1523010361462998,-4,-6,-4,-4,-15,-4,3,2
1523010361464001,53,-2,-4,-22,1,-10,-3,8
1523010361464001,-38,-5,-2,3,5,-5,-7,-17
1523010361485057,6,-5,1,7,8,3,-5,2
1523010361485057,1,2,7,20,6,-8,0,-6
1523010361487062,-1,-1,-12,-33,-33,19,-1,-1
1523010361487062,-16,-6,-4,0,6,12,9,7
1523010361499094,1,0,0,-7,-4,-12,-2,-6
1523010361499094,14,3,4,3,11,1,3,4
1523010361506113,9,1,0,16,-8,-24,-7,-5
1523010361506113,-5,-5,-5,2,1,25,2,5
1523010361522155,-42,-10,0,-11,-2,-3,-4,-11
1523010361522155,16,1,2,-5,1,-15,-5,0
1523010361524162,0,6,-2,-8,2,2,0,1
1523010361524162,-19,11,8,4,4,5,-1,-3
1523010361545217,91,22,7,11,1,-4,7,19
1523010361545217,-28,-15,-3,-2,3,4,2,-3
1523010361546220,-63,-33,-10,3,3,-9,-9,-22
1523010361546220,34,9,2,4,-1,-11,-6,2
1523010361558252,-59,-23,-10,-8,4,0,-5,-18
1523010361558252,29,8,1,1,-9,-4,3,11
1523010361567276,43,13,4,-5,3,12,8,11
1523010361567276,-21,-4,-3,-3,-2,-17,-7,-1
1523010361582316,13,4,3,15,-1,10,1,-2
1523010361582316,7,1,-5,-2,7,0,-2,0
1523010361584321,-18,-6,1,6,-9,1,3,2
1523010361584321,-49,-35,-11,-32,-19,-6,-4,-9
1523010361605377,21,14,-1,28,4,-6,7,11
1523010361605377,27,5,4,20,38,24,15,-6
1523010361606380,-10,4,7,4,-5,-1,-21,4
1523010361606380,-21,1,-6,-33,-17,-23,-6,-10
1523010361618412,-34,-14,-6,22,29,15,-7,-5
1523010361618412,2,-2,0,5,-12,-4,-4,-1
1523010361627435,0,-16,-2,5,10,17,15,2
1523010361627435,36,17,5,-2,-1,-3,3,3
1523010361642476,47,18,0,-16,-18,-8,2,6
1523010361642476,-55,-25,-8,-6,3,-4,-4,-11
1523010361644481,-25,1,-1,-2,0,1,0,1
1523010361644481,6,-12,-1,3,-11,1,-17,-2
1523010361665537,-17,9,1,-2,0,-7,1,5
1523010361665537,22,9,1,-4,-5,10,4,7
1523010361666540,12,-3,-6,-8,-10,-11,-3,-13
1523010361666540,9,3,-2,12,11,5,7,5
1523010361678572,-27,-15,-4,-5,-3,-3,-5,-4
1523010361678572,14,0,-6,-19,-24,-4,-3,3
1523010361687595,-18,0,0,11,18,-9,1,-6
1523010361687595,14,2,-1,15,13,3,1,0
1523010361701633,16,-4,4,-6,-10,2,0,1
1523010361701633,-14,-3,0,-11,-13,-7,1,0
1523010361710657,3,-1,-5,2,0,2,-2,-3
1523010361710657,-3,4,4,4,11,0,2,2
1523010361724694,-1,0,5,-5,-3,-3,0,0
1523010361724694,-13,-7,-1,-3,-4,-4,-7,-7
1523010361726700,18,11,2,1,2,9,-1,7
1523010361726700,4,-4,3,11,16,0,3,1
1523010361738731,-14,1,2,1,-12,-7,-2,-2
1523010361738731,12,-2,-8,-12,0,6,-4,3
1523010361747755,3,-2,-2,-20,-24,2,5,2
1523010361747755,19,2,2,8,2,3,2,-2
1523010361762795,-2,6,6,0,11,-20,-5,-11
1523010361762795,-16,-1,9,17,5,-12,-5,-4
1523010361763798,10,3,8,26,12,32,7,8
1523010361763798,-23,-16,-22,-13,30,4,-3,0
1523010361784854,36,17,-4,-41,-84,-1,4,3
1523010361784854,25,3,-5,-18,-1,0,6,4
1523010361786859,-44,10,10,12,-2,-24,-7,-6
1523010361786859,44,-7,0,8,13,-6,-7,-4
1523010361798891,-50,-6,-1,9,30,2,0,-1
1523010361798891,-46,-20,4,-8,-11,-2,-5,-7
1523010361807916,98,41,13,5,5,-2,2,11
1523010361807916,12,-5,-3,12,3,-5,-2,-7
1523010361821953,1,2,-3,-3,5,4,0,8
1523010361821953,-64,-5,-8,-8,-12,4,2,-5
1523010361828971,-27,-28,-7,0,20,-5,-9,-21
1523010361828971,27,8,4,-8,-18,-3,-2,6
1523010361845014,76,4,0,2,-2,14,8,20
1523010361845014,-39,-5,-5,-10,-2,1,2,-1
1523010361847019,9,-1,-6,-11,2,1,1,2
1523010361847019,40,8,1,-6,-17,1,4,15
1523010361859051,-89,-52,-7,-6,-16,-5,-11,-29
1523010361859051,69,5,6,18,15,4,1,15
1523010361868075,27,5,-6,-22,0,-16,3,-3
1523010361868075,-10,14,4,44,24,20,-12,4
1523010361882113,-42,7,1,4,-28,6,15,7
1523010361882113,-14,4,-6,-9,27,-20,-43,-15
1523010361884119,14,5,1,-29,-52,-3,6,11
1523010361884119,-59,-4,-4,37,23,2,-2,-6
1523010361905174,57,19,-1,-18,-6,-12,-3,-3
1523010361905174,28,11,1,19,9,20,11,11
1523010361907180,-47,-16,-4,-3,-4,-14,-5,-18
1523010361907180,35,18,3,-23,-3,-12,-6,2
1523010361919211,-71,-21,-9,-1,1,7,-2,-3
1523010361919211,45,8,1,-8,-18,-2,11,-2
1523010361927232,22,14,4,10,9,1,-6,9
1523010361927232,-17,-2,-6,-11,-24,-4,4,-18
1523010361942273,4,-6,3,1,18,-4,1,4
1523010361942273,8,11,0,-23,-38,-5,-1,-8
1523010361944278,-15,-7,0,41,40,16,2,4
1523010361944278,-33,-6,2,-11,-6,0,8,-5
1523010361965334,71,9,-2,-5,-17,-7,-15,-1
1523010361965334,-15,1,3,24,41,4,8,9
1523010361966337,-37,-15,-7,-10,-20,-8,-4,-2
1523010361966337,-8,-1,1,-16,-11,0,0,-1
1523010361978369,18,4,2,3,14,6,4,1
1523010361978369,-27,-14,-6,-11,-27,-8,-1,-6
1523010361987392,39,2,-2,-3,6,2,1,2
1523010361987392,-17,-11,-2,-4,3,0,2,5
1523010362001430,-21,-6,-2,4,11,3,-2,-3
1523010362001430,18,4,0,-1,-4,-7,-1,1
1523010362008449,4,2,3,2,17,3,2,0
1523010362008449,-4,-3,0,1,-3,-1,-3,-1
1523010362025494,5,-5,-4,1,1,-8,-4,-3
1523010362025494,-10,1,-2,-10,-5,1,1,-6
1523010362026497,8,7,2,-4,-10,-13,-2,7
1523010362026497,-1,-4,5,6,-9,8,2,0
1523010362038529,-6,-2,1,10,27,15,-1,-10
1523010362038529,1,-9,-10,-20,-3,-5,1,2
1523010362047553,-5,-6,0,2,-21,-4,-1,1
1523010362047553,-15,8,6,-5,8,5,-1,-5
1523010362062593,24,7,-2,-11,2,-2,5,10
1523010362062593,-21,-6,1,6,-7,-4,-7,-13
1523010362064598,-39,-17,-4,15,23,-18,-13,-7
1523010362064598,9,-2,0,16,7,-33,-5,-2
1523010362084651,4,-14,-13,-9,-14,25,-3,-3
1523010362084651,16,5,-7,-7,19,37,9,4
1523010362100694,16,17,-3,-45,-62,1,7,1
1523010362100694,-19,3,6,-10,6,20,17,12
1523010362101697,-82,-13,1,11,15,-22,-5,-8
1523010362101697,26,-6,-4,5,-8,-26,-15,-19
1523010362107713,-9,-5,1,22,24,5,-5,-2
1523010362107713,32,1,-1,-9,-8,-9,-3,7
1523010362122753,-6,3,2,-5,-4,-2,1,-2
1523010362122753,-11,3,10,43,29,15,7,3
1523010362123756,6,-1,-6,-6,-2,0,-3,-7
1523010362123756,-23,-7,-5,-15,-7,-7,-2,2
1523010362144811,50,3,2,2,-4,12,2,17
1523010362144811,-25,1,3,1,2,-8,8,-14
1523010362146817,2,-4,-6,-10,-9,-3,-5,-12
1523010362146817,35,2,0,3,-1,3,4,15
1523010362158849,-65,-17,-5,-9,-4,-15,-8,-25
1523010362158849,57,20,9,38,23,3,-1,23
1523010362167873,-27,-6,-3,-17,-18,-2,20,5
1523010362167873,-42,-19,-7,16,14,18,-18,-12
1523010362180908,26,14,4,6,28,5,11,10
1523010362180908,1,-2,2,-12,-19,-6,-17,2
1523010362189931,-27,-5,-5,-16,-28,-8,9,-7
1523010362189931,10,10,1,15,14,-13,-7,0
1523010362204971,18,3,1,17,14,8,6,2
1523010362204971,-14,-8,-4,-10,-23,-4,-3,-7
1523010362206977,19,-5,2,-4,20,-2,-8,9
1523010362206977,-20,-8,-7,-25,-28,-6,-6,-20
1523010362228033,37,11,2,2,-5,-14,-4,4
1523010362228033,-1,-7,-4,-11,-9,3,5,0
1523010362229036,6,6,-1,7,6,-2,-2,9
1523010362229036,-1,-3,-1,-2,-5,2,-2,-6
1523010362242070,-24,-2,0,0,7,8,6,-3
1523010362242070,19,-4,0,-9,-12,-8,-1,0
1523010362249089,-11,-5,-2,14,16,1,-5,1
1523010362249089,-20,-3,-5,-7,-2,6,6,-4
1523010362265131,-27,2,-3,-11,-17,-9,-16,-7
1523010362265131,6,-1,-7,-26,-22,-2,3,10
1523010362267137,-24,-5,1,24,37,0,17,-5
1523010362267137,46,6,-1,9,1,-9,0,-1
1523010362279169,-7,-3,1,7,0,6,4,-7
1523010362279169,-39,-10,1,0,0,-11,-17,-5
1523010362288193,22,6,-1,-9,1,11,-1,3
1523010362288193,-14,-3,2,0,-5,-15,2,-2
1523010362301227,16,11,10,9,0,-14,-6,4
1523010362301227,-5,-8,-16,-23,-3,23,8,-3
1523010362310251,15,-3,-4,-9,-29,17,-1,6
1523010362310251,2,3,6,1,18,0,2,-3
1523010362325292,-5,8,11,13,1,-13,-5,-2
1523010362325292,-41,1,-1,2,-7,-21,-3,-3
1523010362326295,4,6,10,18,-4,-9,-6,-3
1523010362326295,16,-12,-15,-40,-9,45,10,10
1523010362347350,35,-4,-11,-6,-8,18,9,7
1523010362347350,-58,-6,7,10,9,-11,-4,-11
1523010362349355,24,-12,-4,12,0,-17,-10,-2
1523010362349355,-46,2,1,4,-2,-21,-6,-6
1523010362361387,0,-10,-4,-7,6,-3,-6,-8
1523010362361387,39,12,3,3,3,10,4,5
1523010362370411,-20,-5,-1,-3,4,-1,-7,-1
1523010362370411,-22,1,1,4,-5,-5,-2,-5
1523010362385451,28,3,-3,-3,-3,6,4,12
1523010362385451,-78,-33,-12,-23,-13,-4,-7,-27
1523010362386454,27,20,7,-4,14,2,1,3
1523010362386454,17,14,4,13,1,5,0,11
1523010362407512,-28,-24,-8,-6,-6,2,7,-12
1523010362407512,44,18,10,19,16,2,7,11
1523010362409516,-15,2,-2,-13,-2,-5,3,2
1523010362409516,-29,-24,-9,-11,-21,-3,-15,-5
1523010362421547,2,11,1,4,-1,-8,1,-3
1523010362421547,38,11,4,37,34,15,12,10
1523010362428566,2,1,-2,-13,-9,3,0,-2
1523010362428566,28,10,1,-27,-20,-24,-15,-5
1523010362444608,0,-8,-4,4,6,9,26,6
1523010362444608,-61,-7,0,-8,-19,-18,-43,-15
1523010362446614,35,2,4,24,37,30,14,7
1523010362446614,11,4,-3,1,-10,-2,0,-6
1523010362467670,44,24,2,-25,-16,8,-6,2
1523010362467670,-17,2,4,12,16,-1,-5,2
1523010362473686,-41,-22,-10,-9,-20,-6,-4,-9
1523010362473686,27,17,6,0,-4,-9,-7,5
1523010362481707,-28,-33,-4,-2,-3,1,14,4
1523010362481707,71,24,2,-3,-11,-5,-15,4
1523010362489729,13,9,-3,0,1,-6,-9,-2
1523010362489729,-16,-10,-2,4,6,10,11,-1
1523010362504768,-13,8,3,1,-5,-12,5,-1
1523010362504768,19,-18,2,-3,-6,-4,13,11
1523010362506774,-38,-6,-4,-5,-3,4,-4,-8
1523010362506774,0,1,-2,5,5,5,8,7
1523010362527830,-20,-9,1,4,0,-1,-15,-6
1523010362527830,25,4,0,-7,-6,0,9,3
1523010362528833,30,8,-4,-1,2,-2,-8,2
1523010362528833,-48,-25,-7,0,2,-4,4,-7
1523010362540865,-11,0,-1,4,11,-3,-15,-5
1523010362540865,22,12,1,-4,-14,-11,7,7
1523010362549889,-2,0,-2,-5,6,0,-2,-6
1523010362549889,11,-6,0,-3,-5,16,5,2
1523010362564928,19,-5,-8,-9,-12,-3,-4,5
1523010362564928,-13,4,3,7,25,3,6,-2
1523010362566934,-9,-6,1,12,-11,-25,-7,-3
1523010362566934,24,2,-2,-10,-23,-4,-3,4
1523010362587990,-29,-5,-2,-8,4,13,-4,-10
1523010362587990,16,2,-3,-7,4,-10,6,-4
1523010362588993,-18,-7,-1,-11,-32,12,1,0
1523010362588993,9,17,10,15,31,25,8,6
1523010362610048,32,18,15,20,18,-23,-6,12
1523010362610048,-50,-25,-9,-16,-24,4,-6,-20
1523010362612054,-9,-12,-8,2,2,-10,0,7
1523010362612054,-15,11,-1,-2,-15,-15,-3,-1
1523010362625089,-24,-9,-1,-18,-7,9,-3,-8
1523010362625089,-4,-5,4,9,19,-1,4,-3
1523010362627094,18,-1,2,3,9,-2,-4,-3
1523010362627094,120,13,-4,-6,-14,-5,1,8
1523010362648150,-13,0,4,8,14,2,3,20
1523010362648150,-90,-52,-17,-8,-13,-10,-19,-59
1523010362649153,71,3,3,-15,-15,14,6,13
1523010362649153,42,5,4,23,40,4,15,4
1523010362661185,-17,-1,-3,24,19,-6,-2,-14
1523010362661185,23,26,6,-12,-18,13,12,24
1523010362670208,9,12,3,3,0,-8,-6,2
1523010362670208,-33,-6,3,4,-6,-10,-7,-8
1523010362685248,55,9,-5,-15,-25,-4,-7,0
1523010362685248,-29,-11,-5,-11,-8,14,23,8
1523010362686252,-86,-6,-2,4,13,-1,-15,-20
1523010362686252,23,13,2,3,-3,-16,-19,6
1523010362707309,63,17,7,2,1,4,-13,8
1523010362707309,-22,-9,-2,29,16,7,24,2
1523010362709313,12,20,3,6,2,1,-19,-1
1523010362709313,-114,-15,-3,-7,-12,26,19,-9
1523010362722347,39,-6,-3,3,16,-44,-33,-1
1523010362722347,54,12,6,-18,-16,30,53,19
1523010362730369,-32,-16,-5,-11,-12,-4,-3,-10
1523010362730369,35,1,-3,6,13,-4,4,-3
1523010362745409,15,24,-1,-9,-22,3,-2,-1
1523010362745409,24,-2,1,6,11,-20,-25,9
1523010362746412,-14,-13,-8,4,6,7,19,-7
1523010362746412,-32,-18,-2,-11,-5,-3,-13,-2
1523010362767467,3,2,-4,-4,-8,-1,5,-2
1523010362767467,17,7,3,4,5,-2,-19,-3
1523010362769473,-32,-7,1,3,9,6,11,6
1523010362769473,32,5,1,-1,-2,-5,3,1
1523010362781504,-60,-17,-8,-3,-5,8,4,-11
1523010362781504,20,12,-1,4,1,-4,-4,9
1523010362790533,21,3,-2,-4,-1,-2,2,6
1523010362790533,-15,-5,-1,-5,-1,-7,-1,-3
1523010362805568,-16,-20,-5,2,-3,5,1,-15
1523010362805568,-5,10,1,-3,-1,-5,-12,3
1523010362806571,24,10,6,4,8,-2,-2,2
1523010362806571,2,-3,-2,-3,-4,0,0,4
1523010362827627,16,0,-2,-7,-2,11,11,8
1523010362827627,-19,-6,-6,-3,-6,-10,-9,-7
1523010362829633,-8,-3,-3,4,1,-8,-6,-5
1523010362829633,0,2,6,11,9,2,-1,-1
1523010362841665,-16,-5,-1,-5,-3,9,3,-1
1523010362841665,12,3,1,1,-3,-8,-5,7
1523010362850689,7,-5,-4,0,2,1,2,-3
1523010362850689,-12,-14,-10,-10,8,8,-5,-6
1523010362864726,-7,11,7,11,3,-14,1,1
1523010362864726,-2,-12,-6,-23,-34,7,-8,-2
1523010362866731,15,6,-4,-4,3,6,7,7
1523010362866731,-4,-2,0,2,15,-29,-7,-7
1523010362887787,19,7,-2,9,0,9,4,3
1523010362887787,13,15,14,9,23,35,5,3
1523010362888790,-80,-35,-20,-6,-13,-8,-6,-17
1523010362888790,13,20,10,-5,-1,-4,0,3
1523010362900822,-8,-1,-5,-9,9,-5,1,4
1523010362900822,26,-2,-7,1,1,-16,-6,-1
1523010362909846,41,2,2,-1,-1,5,2,7
1523010362909846,-46,-15,-8,4,3,-4,-5,-13
1523010362924886,37,15,12,11,-1,4,2,5
1523010362924886,-8,1,0,-2,-7,-1,1,-1
1523010362926891,-26,-17,-4,-14,-1,-2,0,-1
1523010362926891,2,-7,-7,-6,-24,-7,-2,2
1523010362947947,-6,3,7,31,20,11,7,2
1523010362947947,28,5,0,-5,5,0,0,5
1523010362948950,23,8,1,2,-5,-12,-6,-3
1523010362948950,-32,-5,0,-5,-9,1,-6,-7
1523010362960982,-19,-10,-7,-10,-8,16,13,-5
1523010362960982,4,1,-3,0,-5,-14,-6,-1
1523010362970006,34,16,9,7,11,0,8,5
1523010362970006,-2,2,2,21,16,11,0,8
1523010362985046,-29,-16,-7,-32,-17,-7,-8,-14
1523010362985046,13,5,-4,4,-37,-11,-1,-4
1523010362987051,0,8,5,23,39,5,-6,3
1523010362987051,7,-8,-5,-5,-12,-1,-10,-3
1523010363007105,6,0,1,-1,-2,5,11,4
1523010363007105,-11,4,-5,-32,-26,13,2,3
1523010363009110,7,-6,-10,-2,-4,-13,-1,-18
1523010363009110,29,3,3,26,28,9,9,4
1523010363021142,-27,-8,0,-24,-24,-14,-25,-2
1523010363021142,6,-8,-3,12,24,3,12,-2
1523010363030166,69,25,3,-3,-11,7,2,7
1523010363030166,-15,-13,-6,-7,-4,-3,-13,-4
1523010363045206,-33,-16,-9,-14,-21,-17,-14,-23
1523010363045206,-25,-4,4,7,20,11,10,5
1523010363046209,-26,-14,1,1,0,-4,0,0
1523010363046209,23,11,2,-12,-17,3,5,5
1523010363067264,-5,-4,-3,-4,1,-4,-10,-5
1523010363067264,7,-4,-1,12,13,5,7,-1
1523010363069270,-25,0,3,-5,-5,6,0,-2
1523010363069270,22,3,-2,-8,-14,-9,3,8
1523010363081302,-23,-6,-3,12,13,1,1,0
1523010363081302,7,10,3,6,11,-5,-10,-1
1523010363090326,5,11,8,-5,-9,-1,0,3
1523010363090326,-16,-2,-1,0,-1,-5,6,-2
1523010363105366,5,2,0,0,6,-1,-4,0
1523010363105366,-5,-10,-2,-3,-11,-10,-6,0
1523010363106369,-3,-5,-4,-13,-8,9,3,2
1523010363106369,14,8,6,10,15,-4,-1,-1
1523010363127424,-12,-5,-6,-4,-51,-7,-1,-12
1523010363127424,3,-16,-11,-21,16,15,5,14
1523010363129430,-22,1,2,-1,-11,8,5,-9
1523010363129430,23,2,0,-12,-13,4,3,8
1523010363150486,-46,-4,6,13,29,-18,0,-6
1523010363150486,13,4,2,13,13,-17,-11,0
1523010363151488,-4,-18,-12,-3,-15,2,-8,-2
1523010363151488,-40,-5,4,6,10,0,0,-12
1523010363164523,15,2,5,22,-1,-9,1,8
1523010363164523,14,4,-3,-6,15,1,-5,-8
1523010363171542,11,0,-7,-14,3,17,12,7
1523010363171542,19,0,2,-2,-8,3,4,3
1523010363187584,-13,-8,-5,-4,3,4,3,7
1523010363187584,-11,9,8,10,-22,-20,-7,-11
1523010363189590,-9,8,2,-3,-2,-8,-5,0
1523010363189590,-11,-15,-11,-16,-21,-2,-3,-6
1523010363210646,29,5,0,-4,-1,8,4,5
1523010363210646,17,4,-2,22,50,6,-1,5
1523010363212652,17,3,4,9,4,-3,-3,3
1523010363212652,-59,-4,0,25,15,12,7,-2
1523010363224683,22,-2,-3,-10,3,-2,2,2
1523010363224683,2,6,3,-13,-30,-1,-11,1
1523010363226689,15,-2,-3,-16,-10,-12,2,1
1523010363226689,-4,-11,-7,-10,-2,-9,-8,-6
1523010363247744,-4,6,4,19,19,13,6,-3
1523010363247744,12,12,-1,-18,-35,-11,2,2
1523010363248747,8,-9,1,18,29,6,-4,6
1523010363248747,-24,-1,-1,11,6,12,25,5
1523010363269803,-6,-8,-4,13,29,-14,-26,-15
1523010363269803,17,4,-5,-7,-29,24,14,5
1523010363271808,-4,-1,1,-2,4,-8,-21,1
1523010363271808,32,15,2,-13,-6,-5,18,-1
1523010363284843,-46,-24,-2,-29,-29,1,3,4
1523010363284843,-15,-10,-5,15,7,-5,-19,-24
1523010363290859,31,29,-1,12,12,-1,15,1
1523010363290859,-10,-4,-2,-2,-3,1,-12,-1
1523010363307904,24,6,0,-2,-6,2,-2,4
1523010363307904,-34,-18,0,-18,-13,-5,9,7
1523010363308908,5,3,-1,-2,-6,-3,4,-5
1523010363308908,-11,0,-1,0,-7,-7,-34,-12
1523010363329963,30,9,2,0,14,9,13,10
1523010363329963,-18,-3,-1,9,6,-2,1,-3
1523010363331969,-11,-11,-2,4,7,0,0,-5
1523010363331969,17,4,1,-9,-4,-1,2,5
1523010363344001,12,5,-3,-8,-10,-4,-2,1
1523010363344001,-10,-5,0,2,10,-3,-1,-2
1523010363351019,-24,-8,-1,-2,-9,-6,-7,-3
1523010363351019,6,-18,-9,-1,4,-21,-5,0
1523010363367062,8,18,5,2,-4,4,4,1
1523010363367062,-6,6,5,-14,-16,11,3,3
1523010363369067,3,-5,1,-4,-10,12,6,-1
1523010363369067,-7,-9,-1,7,12,-19,-10,-8
1523010363390123,5,-7,-13,10,15,-14,-5,-3
1523010363390123,8,9,-3,-15,-9,20,5,7
1523010363392129,-34,3,8,-16,0,23,6,-4
1523010363392129,11,-4,-3,5,-11,-7,1,3
1523010363404160,-7,-3,2,17,16,-8,-3,-7
1523010363404160,2,3,0,2,-11,-18,-12,-5
1523010363411179,4,-5,-6,-8,-3,-8,-4,1
1523010363411179,-23,-4,-2,-5,-12,10,2,-7
1523010363427221,32,3,4,8,7,-8,1,5
1523010363427221,-21,3,-1,0,3,-7,-5,-1
1523010363429227,-38,-5,1,-7,-21,-2,-1,-4
1523010363429227,23,9,-3,-14,0,8,7,4
1523010363450283,-1,-2,0,-5,-9,3,-1,0
1523010363450283,3,-13,-4,11,16,-2,-2,-4
1523010363451286,29,8,-2,0,0,-16,-6,0
1523010363451286,-17,1,-1,-6,1,0,-3,-3
1523010363464321,-22,-5,-2,-4,-10,14,3,-2
1523010363464321,2,0,3,15,32,0,1,-6
1523010363471339,-5,-3,-3,2,-12,-14,-6,3
1523010363471339,34,7,5,-2,-3,9,-2,6
1523010363487382,-27,-8,-8,-23,-7,3,7,-6
1523010363487382,-6,3,1,-2,-19,-12,1,4
1523010363489387,-5,-7,-3,1,6,0,-11,0
1523010363489387,46,8,1,3,17,4,0,7
1523010363510443,-14,1,3,-9,-27,-7,-1,4
1523010363510443,-13,-10,-3,27,8,-3,2,-8
1523010363511446,-1,0,4,-2,14,14,-14,4
1523010363511446,-7,7,-4,-21,-23,-1,16,2
1523010363524481,4,-2,-5,23,35,-7,-11,-6
1523010363524481,44,15,9,3,6,7,8,3
1523010363531499,-20,-11,-1,-6,-11,-19,-16,-2
1523010363531499,-52,-9,1,14,11,8,28,0
1523010363547542,14,4,-1,-14,-8,5,-13,-2
1523010363547542,-9,-2,-5,-7,-8,6,0,-3
1523010363549547,41,21,4,8,8,-7,10,3
1523010363549547,40,-4,1,-5,-10,-5,-14,1
1523010363569600,-44,-11,-2,2,-6,4,11,-2
1523010363569600,-5,-10,-3,-1,6,-16,-14,-1
1523010363571606,11,5,-2,2,-2,8,4,2
1523010363571606,-19,-3,-2,-1,-8,0,-5,-7
1523010363584640,31,6,0,6,12,13,19,5
1523010363584640,-16,-1,1,-6,-4,-5,-5,-3
1523010363591659,-25,-18,-8,-5,-3,-7,2,-7
1523010363591659,-14,-6,-3,4,-2,-6,-16,0
1523010363607701,37,8,-1,-2,1,15,6,9
1523010363607701,-7,4,-1,-9,-4,-2,-1,-7
1523010363609707,-26,-27,-6,6,-5,-1,3,-1
1523010363609707,16,13,2,2,8,1,-5,-3
1523010363629760,-15,12,7,-6,-6,-6,-6,-5
1523010363629760,0,-2,-4,-2,1,-1,0,1
1523010363631766,2,-8,-3,5,1,-5,-1,-1
1523010363631766,6,9,0,-7,0,0,-2,5
1523010363643798,12,0,1,-2,6,-8,-3,5
1523010363643798,-42,-10,-5,-4,-15,12,3,-7
1523010363652822,16,2,0,-3,3,21,10,5
1523010363652822,-9,-5,3,13,-1,-16,-5,-3
1523010363667861,2,13,4,1,-3,-1,-6,-2
1523010363667861,-26,-10,-3,-12,-4,-11,-4,-10
1523010363668864,8,10,-1,-2,20,0,4,7
1523010363668864,10,4,0,-6,-42,11,3,-2
1523010363689921,19,-4,2,9,7,0,-1,5
1523010363689921,19,4,1,15,16,-5,-6,0
1523010363691926,-35,-2,0,-8,-34,-16,-3,-6
1523010363691926,6,5,8,1,12,8,5,2
1523010363703957,-51,-22,-8,-10,-6,-1,1,-11
1523010363703957,20,-9,-6,-4,1,7,2,-5
1523010363718998,49,6,1,8,10,-2,-3,-3
1523010363718998,98,31,9,9,10,-8,-1,20
1523010363728022,-90,-22,-3,-9,-17,-1,-8,-22
1523010363728022,-33,-42,-11,3,16,-3,-4,-12
1523010363729025,21,1,-1,-3,-9,-7,-2,2
1523010363729025,2,-5,-7,-7,6,2,-3,-4
1523010363750080,74,23,3,-1,7,4,4,13
1523010363750080,-4,9,-1,-12,-19,-9,-2,5
1523010363752086,-8,-2,1,7,9,10,3,-1
1523010363752086,-22,-6,-4,-7,-2,1,-2,-5
1523010363764118,1,6,1,2,4,-3,-1,2
1523010363764118,-3,2,3,-7,-8,-12,-3,4
1523010363773142,24,11,-1,12,5,5,-2,1
1523010363773142,-36,-17,-3,-13,-19,-1,0,-3
1523010363787179,9,-5,-2,-7,-11,-8,-6,-6
1523010363787179,26,21,7,-9,8,1,13,11
1523010363789185,-20,-10,1,32,15,-9,0,-5
1523010363789185,-13,5,-2,5,-11,-7,-15,-12
1523010363810240,13,-12,-2,-4,16,22,9,5
1523010363810240,35,31,6,3,-11,-3,10,15
1523010363811243,-84,-38,-14,-26,-24,-20,-15,-24
1523010363811243,-11,-9,-2,3,17,6,3,5
1523010363823275,34,9,1,-7,-16,7,11,-1
1523010363823275,2,-5,-9,0,3,1,-7,0
1523010363832299,4,6,5,-2,5,-5,14,10
1523010363832299,37,11,0,-4,-3,7,-9,3
1523010363847339,-17,-21,-2,-5,6,1,-9,4
1523010363847339,-8,4,-5,2,-8,-1,-10,-11
1523010363849344,-20,9,3,1,3,-10,-5,1
1523010363849344,-34,-5,0,5,4,16,2,-9
1523010363870400,25,16,1,6,8,-1,8,6
1523010363870400,13,-9,-4,0,-12,-2,3,-4
1523010363871403,72,13,5,-8,-13,-8,-8,8
1523010363871403,-74,-30,-9,17,31,13,10,-8
1523010363883435,-22,4,0,-8,-17,-13,-4,-5
1523010363883435,-14,0,2,13,13,2,-2,-2
1523010363892459,7,-14,-4,-14,-11,8,1,-2
1523010363892459,47,19,2,-7,-2,-10,-1,9
1523010363907499,-40,-14,-6,0,-2,-4,-8,-9
1523010363907499,-7,-17,-8,-10,-3,0,-5,2
1523010363909505,11,38,13,3,1,7,-5,-2
1523010363909505,-15,-15,-1,1,5,-9,-4,-8
1523010363930560,0,-2,-4,7,-3,-7,-2,0
1523010363930560,23,11,6,-6,-10,1,0,8
1523010363931563,-9,5,-1,-8,1,1,5,-3
1523010363931563,-14,-11,0,6,5,-8,-1,-2
1523010363943595,21,9,3,11,-1,-7,-6,-1
1523010363943595,-10,-11,-11,9,19,-8,-3,-4
1523010363952619,-11,-8,-7,-36,-63,25,1,-3
1523010363952619,6,5,2,-13,-11,12,11,9
1523010363967659,4,1,1,-1,-7,-18,-3,-3
1523010363967659,-22,-21,2,17,19,5,-7,-10
1523010363969664,-7,0,-9,13,18,-20,-6,-3
1523010363969664,5,32,15,-16,13,20,3,0
1523010363989718,9,5,4,8,-12,4,3,6
1523010363989718,-3,5,8,-5,-10,-11,-2,0
1523010363991723,14,-3,-3,7,12,-4,2,4
1523010363991723,-37,-28,-12,8,3,-16,-5,0
1523010364003755,-11,1,-10,-15,6,-1,-11,-16
1523010364003755,5,9,5,0,7,7,3,4
1523010364012779,10,-11,-5,8,3,7,0,1
1523010364012779,15,1,-9,-17,-6,-6,-1,-1
1523010364026816,-18,-7,2,1,-2,2,2,3
1523010364026816,23,6,0,-4,-9,-3,-2,-2
1523010364040853,-35,-9,5,7,13,10,5,-1
1523010364040853,11,-8,-9,0,-1,-9,-5,-5
1523010364049878,16,11,12,7,1,-2,0,2
1523010364049878,10,-1,-6,-4,-1,4,-1,5
1523010364051883,9,7,-3,-6,8,5,4,0
1523010364051883,11,0,-1,0,-15,-10,-2,-3
1523010364063915,0,-13,-7,-14,-1,6,1,-2
1523010364063915,-5,-4,-1,5,-18,-5,-2,0
1523010364072939,-18,-8,-5,12,27,-11,-10,-8
1523010364072939,5,-3,0,8,4,12,-8,0
1523010364086976,20,11,3,7,4,5,18,5
1523010364086976,3,3,0,3,11,-3,-13,-3
1523010364093995,-31,5,-3,-22,-33,-12,-17,-16
1523010364093995,-13,-15,0,12,2,-2,4,-4
1523010364110038,-3,2,-1,1,4,3,9,8
1523010364110038,45,-7,-6,-13,-15,2,7,10
1523010364112043,-32,-4,1,-5,-7,-12,4,1
1523010364112043,16,0,-2,-12,-8,-4,8,-3
1523010364132096,29,35,-1,-3,-11,3,-9,-1
1523010364132096,-47,-20,-1,-1,1,-10,-7,-5
1523010364134102,39,9,2,6,7,12,7,1
1523010364134102,-50,-21,-4,1,-4,-7,-16,-3
1523010364147136,6,-1,5,2,5,10,18,3
1523010364147136,-22,4,-2,-2,0,7,8,-9
1523010364154155,11,4,-1,0,3,-8,-23,-4
1523010364154155,9,-3,0,-1,-9,-2,13,2
1523010364170198,-15,-19,-3,2,2,-15,-19,-4
1523010364170198,-4,1,1,2,20,20,13,4
1523010364172203,10,-6,2,3,-9,-1,4,4
1523010364172203,0,6,-2,3,9,1,11,2
1523010364184235,-8,-1,6,-2,2,-5,-9,1
1523010364184235,-12,-7,-1,0,-4,-5,2,3
1523010364192256,9,11,4,0,4,-2,0,3
1523010364192256,15,2,-5,-1,-4,-6,-7,-1
1523010364207296,-30,-15,-9,-5,-3,-2,-4,-6
1523010364207296,-3,7,4,5,4,-12,-9,-4
1523010364213312,11,9,8,8,8,3,4,6
1523010364213312,-12,-11,-12,-23,-31,-2,-9,-8
1523010364230358,-2,-1,1,6,6,4,5,2
1523010364230358,9,16,2,-10,-13,14,2,1
1523010364231360,-13,-26,-5,11,3,2,6,-1
1523010364231360,6,14,10,12,25,-16,-5,-5
1523010364252416,-2,-19,-10,-7,-5,-20,-7,-3
1523010364252416,-3,0,-4,-7,-8,1,-3,-5
1523010364254422,7,2,-3,-17,-17,28,6,3
1523010364254422,16,6,7,13,-2,4,5,9
1523010364267456,-25,-13,-7,0,5,-1,-4,-6
1523010364267456,0,10,7,10,24,-6,-3,-5
1523010364275478,-16,-8,-2,-2,-4,-17,-2,-1
1523010364275478,23,6,-3,3,8,-2,-4,6
1523010364290518,-12,-7,-2,-8,-20,-2,-6,-3
1523010364290518,-3,15,13,11,1,6,4,4
1523010364291520,-2,-6,-5,-5,5,5,5,3
1523010364291520,78,11,10,0,10,7,5,14
1523010364311573,-35,-10,-7,-5,4,-5,-5,-14
1523010364311573,-69,-41,-21,-16,-14,-7,-14,-29
1523010364320598,21,-1,-8,-1,-3,-1,-1,5
1523010364320598,15,8,5,11,16,-3,-6,8
1523010364326614,19,7,1,-1,-3,5,6,8
1523010364326614,21,2,-4,-12,-3,6,0,11
1523010364333632,-6,4,-1,-33,-16,4,2,-2
1523010364333632,-17,-11,-3,37,21,-1,-20,-1
1523010364349675,16,4,3,-18,-40,-5,-11,-1
1523010364349675,-4,-5,-1,18,27,-19,5,-1
1523010364351680,-2,2,5,30,18,20,23,-1
1523010364351680,-36,-8,-3,-22,-26,-10,-20,-6
1523010364372736,-1,0,-2,3,17,2,-4,-5
1523010364372736,28,4,0,-16,-28,2,0,5
1523010364373739,27,5,-3,-11,-9,-28,-7,5
1523010364373739,-39,-15,-3,-4,4,15,14,-12
1523010364386774,54,29,4,13,5,1,-1,7
1523010364386774,-50,-18,-1,-6,-10,-8,-5,-2
1523010364393792,-42,-26,6,20,20,4,-1,-9
1523010364393792,45,43,-14,-38,-40,-14,-9,-8
1523010364410837,17,2,4,9,15,6,9,6
1523010364410837,3,-2,2,35,23,15,5,3
1523010364415851,-16,6,0,3,20,15,-8,3
1523010364415851,-18,-2,6,-13,-11,-18,4,-6
1523010364432896,8,-11,-4,-13,-16,-1,22,0
1523010364432896,-6,3,0,7,-3,-4,-4,-3
1523010364433899,-5,-10,-1,6,-1,-9,3,0
1523010364433899,37,14,-2,-12,-8,-4,-7,-10
1523010364445931,-62,-19,-3,-4,4,1,-5,-3
1523010364445931,21,2,-3,-6,-5,-2,6,0
1523010364454955,11,-3,-8,-5,-6,5,-7,-1
1523010364454955,-31,-9,-2,4,6,3,11,-1
1523010364469995,4,-4,0,5,0,1,-11,0
1523010364469995,-2,2,3,-4,0,-2,-3,0
1523010364472000,19,21,4,-10,-10,-13,-8,-5
1523010364472000,1,-3,3,4,7,10,3,5
1523010364493056,-17,-3,-2,8,10,1,-1,0
1523010364493056,8,-14,-11,-6,-5,-7,-2,2
1523010364494059,22,11,-2,-6,-1,-6,-5,-4
1523010364494059,-34,-4,5,2,-3,3,8,-1
1523010364506091,9,3,14,8,18,5,0,0
1523010364506091,14,-3,-5,-12,-15,2,-1,4
1523010364515115,0,-5,0,17,37,3,-3,-5
1523010364515115,-12,-17,-12,-21,-28,-3,3,5
1523010364530155,11,-2,-13,-23,-10,20,0,1
1523010364530155,10,13,3,14,25,-4,0,-1
1523010364532160,-26,-16,-12,-17,-23,-24,-7,-5
1523010364532160,8,6,4,4,18,12,4,2
1523010364552214,-9,-3,2,14,10,-11,-5,-8
1523010364552214,0,22,6,-8,9,10,-4,-3
1523010364554219,0,-28,-6,9,0,-7,3,5
1523010364554219,3,9,-4,0,5,-5,-4,-2
1523010364566251,-17,13,19,1,-16,1,2,-8
1523010364566251,24,2,-4,-1,-1,-3,0,4
1523010364575275,-36,-2,-5,-7,11,5,-4,-8
1523010364575275,-1,-16,-11,-7,-20,2,1,6
1523010364590315,19,2,0,6,9,7,1,1
1523010364590315,-29,-3,6,2,0,-8,-1,-2
1523010364591317,5,2,-6,-13,-17,-3,-5,-11
1523010364591317,-5,0,15,6,10,0,1,2
1523010364612373,19,9,-5,-8,-10,-14,-4,3
1523010364612373,30,-3,1,9,10,7,-2,13
1523010364614379,-31,-5,-5,3,-12,-1,15,-7
1523010364614379,-10,-10,-3,8,6,7,-4,-10
1523010364626411,-1,2,-2,-8,-15,6,3,2
1523010364626411,24,-9,-8,-18,-22,-16,-6,2
1523010364635435,-36,0,4,18,31,19,-9,0
1523010364635435,-19,-7,2,8,8,-4,4,-7
1523010364649472,5,-1,-4,-24,-17,-17,-8,-8
1523010364649472,28,2,-1,-12,-28,4,5,3
1523010364656491,-17,-3,6,42,35,4,-10,-7
1523010364656491,9,19,4,-22,-26,-3,19,6
1523010364672533,-8,-24,-16,9,3,-8,-18,2
1523010364672533,-8,4,2,6,4,3,13,-5
1523010364674539,3,2,8,-14,-13,-11,6,14
1523010364674539,23,5,-4,6,5,4,-28,-3
1523010364686571,-7,-7,-15,-35,-32,-30,0,-11
1523010364686571,20,12,3,1,0,9,-7,-3
1523010364695595,-5,-10,1,6,-1,6,1,2
1523010364695595,-11,-12,0,2,5,-9,11,-1
1523010364709632,42,25,2,2,-9,10,5,5
1523010364709632,-45,-7,-2,1,5,2,-1,-4
1523010364711638,3,8,1,-12,-16,-8,-3,-1
1523010364711638,-21,-19,-6,-4,-1,2,-8,-5
1523010364732694,3,0,2,-3,-18,-7,6,5
1523010364732694,-32,-13,-4,19,56,6,-6,-8
1523010364733696,27,15,-2,-12,-22,3,4,1
1523010364733696,-2,-15,-2,9,15,-2,4,2
1523010364746731,-5,4,5,12,9,6,5,2
1523010364746731,-32,-10,-2,-19,-25,-1,-1,-15
1523010364753749,18,7,-2,-3,-2,-6,-6,3
1523010364753749,15,12,5,6,1,-3,-2,-4
1523010364769792,-12,-4,2,6,15,5,0,0
1523010364769792,6,-2,2,-8,-12,-5,-4,4
1523010364771797,6,1,-1,-6,-3,-7,-2,-2
1523010364771797,7,2,-4,9,8,3,4,1
1523010364792853,-25,-9,-3,-3,4,-1,-8,-4
1523010364792853,14,8,0,-7,-5,8,4,8
1523010364793856,11,-3,-2,-3,-4,1,7,2
1523010364793856,-1,0,4,10,14,-13,-9,-3
1523010364822934,-19,-4,-2,5,7,11,0,5
1523010364822934,-5,-7,-8,-12,-9,15,4,-12
1523010364823936,30,9,5,-2,-13,-5,2,5
1523010364823936,-26,-6,-4,-3,4,-3,-5,-5
1523010364828950,11,0,1,9,6,-5,-1,2
1523010364828950,6,6,0,1,-4,-5,3,6
1523010364835968,8,-4,-1,-2,-3,-2,-5,0
1523010364835968,-23,5,7,10,3,-2,-5,-8
1523010364853013,9,-2,2,6,4,0,2,2
1523010364853013,-6,-4,-6,6,11,-2,-2,2
1523010364854016,-25,-11,-11,-11,-1,-6,-8,-16
1523010364854016,17,5,-1,-9,-22,-3,4,12
1523010364875072,-11,12,10,15,15,8,5,-1
1523010364875072,73,12,-4,-22,-2,30,7,19
1523010364877078,-58,-13,1,1,1,4,6,-8
1523010364877078,-14,-12,-5,-8,-3,0,-3,0
1523010364889109,15,16,14,4,0,-3,-2,8
1523010364889109,-1,-5,0,18,0,-26,-8,-9
1523010364896128,45,13,4,1,6,4,5,12
1523010364896128,-30,-8,-5,-8,-4,7,-2,-6
1523010364912171,49,5,-3,2,12,-4,-3,7
1523010364912171,-31,1,3,-15,-15,-13,-5,-4
1523010364914176,-61,-25,-10,14,25,14,-2,-28
1523010364914176,-3,7,4,10,-7,-4,-1,6
1523010364935232,-4,-6,-2,2,17,10,11,-2
1523010364935232,42,21,2,-3,-11,1,-7,12
1523010364936235,5,-11,-4,-19,-29,-25,1,4
1523010364936235,-4,-1,-4,-13,-16,-1,-10,-10
1523010364949270,12,1,-6,2,16,10,4,2
1523010364949270,-27,-2,2,-30,-46,-14,1,-2
1523010364956288,37,9,6,33,12,3,-2,10
1523010364956288,17,4,-4,2,15,9,2,-7
1523010364972331,-9,3,-7,-2,-1,-12,6,-1
1523010364972331,-50,-13,4,-2,-16,-2,4,-7
1523010364974336,-7,1,-4,-9,-1,1,-22,-5
1523010364974336,40,-2,-5,5,12,14,8,6
1523010364995392,16,9,4,4,-6,-4,-7,-1
1523010364995392,-28,-23,-4,7,6,-15,-4,-5
1523010364996395,60,39,1,-18,-14,8,8,14
1523010364996395,13,6,-2,-11,-12,-13,-1,0
1523010365009430,-2,-6,1,-3,-9,17,-2,-2
1523010365009430,-42,-26,-5,17,27,-16,8,-22
1523010365016448,-26,-14,2,2,-4,-3,1,2
1523010365016448,-15,-7,-4,0,-3,-2,4,0
1523010365032491,12,9,0,-3,-1,-7,-6,1
1523010365032491,23,2,2,1,-2,16,0,8
1523010365034496,-12,-2,-4,-1,6,3,12,-3
1523010365034496,4,3,-2,-5,-1,-4,7,3
1523010365046528,13,5,5,-3,-8,-5,-16,-4
1523010365046528,5,-6,-5,9,6,2,-4,-2
1523010365055552,0,3,0,-9,-2,-1,1,7
1523010365055552,10,-1,2,1,4,-1,-1,-1
1523010365070592,-49,-14,-4,-7,-10,-1,1,0
1523010365070592,41,12,-4,1,6,-1,-4,-6
1523010365071595,11,13,9,2,-2,-5,-1,1
1523010365071595,13,1,1,-2,-1,0,-5,4
1523010365092651,-43,-11,-5,-4,-2,2,2,-6
1523010365092651,-9,-3,-4,3,5,-3,-7,-8
1523010365094656,5,-3,-1,-1,-6,1,0,6
1523010365094656,-8,-4,0,-1,4,3,-5,-2
1523010365114709,-4,-4,0,1,1,-2,1,-6
1523010365114709,-2,8,1,4,0,-3,-1,8
1523010365116715,6,-2,1,5,3,1,-4,-4
1523010365116715,-3,3,0,-4,-3,0,2,3
1523010365129749,-15,-11,-9,-9,-10,-1,2,-3
1523010365129749,-1,1,3,11,3,-20,-10,-6
1523010365135765,9,6,8,9,13,0,-2,-7
1523010365135765,-19,-15,-13,-22,-13,13,-1,1
1523010365152811,-2,-1,-3,-7,-3,-2,-1,-6
1523010365152811,21,-1,-6,-2,0,0,4,8
1523010365153814,-11,-3,-1,-1,-6,0,-3,0
1523010365153814,6,6,6,2,-11,-6,-3,-6
1523010365174869,-59,-12,-7,-8,-5,1,1,-6
1523010365174869,5,0,-1,-3,-2,-3,-2,-2
1523010365180885,3,-5,-5,6,9,-14,-8,-7
1523010365180885,11,-4,-2,2,1,1,-3,4
1523010365188907,30,3,2,-2,-4,5,1,5
1523010365188907,0,-8,1,-1,6,8,8,4
1523010365197931,-12,4,3,3,8,3,1,3
1523010365197931,-1,2,1,6,4,-9,-4,-9
1523010365212971,-22,7,-1,-6,-16,1,3,4
1523010365212971,-13,-3,-1,2,4,10,-1,0
1523010365213974,9,-4,-6,-15,-13,-4,-3,-6
1523010365213974,2,0,3,11,4,-1,1,5
1523010365235029,4,-10,-1,13,15,-18,-15,-12
1523010365235029,42,14,2,-12,-10,13,8,10
1523010365237035,-15,-2,-3,17,18,10,11,4
1523010365237035,-54,1,5,3,2,-16,-6,-5
1523010365257088,-18,-17,-4,9,7,4,-14,-2
1523010365257088,41,17,-4,-14,-10,-2,-6,-1
1523010365259094,4,-6,-4,-22,-23,-4,-2,5
1523010365259094,-31,2,1,33,13,5,25,-11
1523010365272128,35,8,8,-5,-12,-6,-31,6
1523010365272128,-16,0,-7,22,43,-5,-6,-14
1523010365274134,79,5,-7,-18,-35,8,25,2
1523010365274134,-64,-9,0,5,17,3,2,7
1523010365295189,-10,-20,-5,-9,-13,7,10,-8
1523010365295189,7,12,5,-2,-12,-9,-3,1
1523010365297195,35,-1,-3,-10,-6,-18,-20,-1
1523010365297195,-15,11,-1,-20,-16,16,6,1
1523010365309227,-2,2,-4,6,9,-7,7,-15
1523010365309227,-3,-10,-1,-6,-8,0,5,10
1523010365316245,-18,-1,2,0,-3,-2,-3,-7
1523010365316245,45,4,5,0,1,-4,-9,6
1523010365333291,-17,6,2,16,19,8,9,10
1523010365333291,-10,1,-3,0,-6,9,3,-7
1523010365335296,-10,1,1,4,4,-3,2,6
1523010365335296,-8,-3,-1,-9,-6,-5,-21,-12
1523010365355350,2,5,1,-2,2,-1,16,15
1523010365355350,-16,-14,-8,-8,-9,-10,-11,-21
1523010365356353,-20,2,5,6,3,5,-2,7
1523010365356353,22,-10,-6,-10,0,-4,0,-1
1523010365369387,11,5,-4,-6,-5,-1,0,-4
1523010365369387,-8,8,11,10,4,4,6,28
1523010365376405,-17,-3,-2,-1,6,-3,-9,-21
1523010365376405,7,-4,-6,-5,-1,2,-3,-13
1523010365392448,4,-8,-3,-1,-7,-5,2,6
1523010365392448,1,1,2,2,5,-1,-3,8
1523010365394454,0,-1,0,-8,-13,-6,-2,-4
1523010365394454,2,-2,-1,-3,-1,8,6,5
1523010365415509,-7,1,-3,-4,-1,-3,-5,-13
1523010365415509,2,-1,-1,1,9,1,2,0
1523010365416512,-12,-8,-1,9,10,-4,-5,-2
1523010365416512,15,-3,-6,-9,-12,-11,-2,5
1523010365428544,11,3,1,-3,-6,10,4,4
1523010365428544,-28,-12,-5,-3,-3,-3,-7,-23
1523010365437568,-3,-4,0,1,3,0,1,6
1523010365437568,3,0,-1,5,0,-6,-5,-3
1523010365452608,7,1,1,2,7,-2,-1,0
1523010365452608,-1,0,-3,1,-2,-2,0,3
1523010365454613,-7,0,0,-4,-10,2,0,-2
1523010365454613,19,0,0,-3,-4,1,2,6
1523010365474667,0,-3,-3,-1,-1,-4,-1,-4
1523010365474667,-24,-6,1,4,0,0,-2,-13
1523010365476672,-8,-3,-8,-14,3,1,-5,-3
1523010365476672,13,5,5,1,-1,2,2,3
1523010365488704,12,5,0,-1,4,3,2,5
1523010365488704,20,3,0,1,-5,-1,1,8
1523010365497728,-54,-10,-4,-1,-5,-9,-7,-10
1523010365497728,-2,-7,-5,0,3,-3,1,3
1523010365512768,-28,1,1,-5,-17,-4,0,-14
1523010365512768,10,-11,-6,-2,7,4,-12,-3
1523010365513771,16,8,2,2,-4,9,13,4
1523010365513771,-34,-6,1,-17,-23,-8,6,-6
1523010365534826,12,2,3,25,41,5,-7,10
1523010365534826,-17,-11,-3,6,8,-17,-5,-5
1523010365536832,23,8,3,-1,-10,-16,-4,4
1523010365536832,-2,6,-2,23,25,29,17,-6
1523010365548864,2,0,1,-4,-16,-5,-19,0
1523010365548864,6,12,-6,-22,-26,-10,-2,-6
1523010365557888,50,4,1,12,32,4,-2,10
1523010365557888,-16,-5,4,-2,-6,-2,-7,-2
1523010365571925,-52,-13,-3,0,3,-8,7,-10
1523010365571925,7,14,5,3,2,7,4,9
1523010365578944,4,-5,-2,-13,-21,-2,-14,-8
1523010365578944,11,4,-6,-5,-4,-6,3,3
1523010365594986,42,3,2,2,10,4,7,14
1523010365594986,-30,-10,0,-12,-18,0,6,-3
1523010365596992,-8,6,-3,-20,-18,-13,-3,-3
1523010365596992,-8,-15,-3,30,33,6,0,-5
1523010365609024,-9,-4,-4,6,2,-3,-2,0
1523010365609024,8,2,1,-4,5,4,2,2
1523010365618048,7,0,-1,0,-8,8,8,3
1523010365618048,-7,1,0,-13,-7,-8,-4,2
1523010365633088,17,-2,-1,-9,-16,-2,-3,1
1523010365633088,-5,-2,-6,-3,-5,-3,-6,-8
1523010365634091,-25,-1,5,5,9,2,0,-8
1523010365634091,17,2,-2,-7,-7,2,0,4
1523010365656150,2,6,4,3,-6,-5,4,0
1523010365656150,3,-7,-1,2,6,2,1,0
1523010365657152,-11,-9,-2,3,5,1,1,-1
1523010365657152,12,6,6,5,-1,-15,-11,3
1523010365669184,-20,0,-1,-4,-8,3,2,-8
1523010365669184,7,0,-5,-12,-5,15,-1,4
1523010365676203,-12,-13,-8,7,22,18,1,-6
1523010365676203,-8,6,2,-12,-11,-18,-6,0
1523010365692245,12,13,13,6,7,13,0,-9
1523010365692245,-1,-2,-2,1,-8,12,11,6
1523010365699264,-3,2,-4,-25,-51,-4,5,3
1523010365699264,11,-5,-1,11,18,-14,-2,5
1523010365715306,15,-9,-8,5,3,-14,-5,4
1523010365715306,-18,-10,6,9,11,2,-5,-12
1523010365716310,34,19,10,6,26,16,10,20
1523010365716310,-68,-17,-3,-8,-11,-2,-12,-21
1523010365737365,19,4,-4,-2,7,-9,4,11
1523010365737365,-10,-14,-7,-1,1,-11,-8,-10
1523010365739371,8,2,4,6,-1,-6,-2,4
1523010365739371,36,16,3,-2,-4,5,2,5
1523010365752405,-34,-15,-8,-20,-12,-1,-2,-10
1523010365752405,4,4,0,24,16,3,-1,4
1523010365758422,-26,-2,-1,13,11,-6,-4,-4
1523010365758422,16,3,4,-13,-23,13,16,1
1523010365775466,-8,-10,-6,-9,27,11,-8,-6
1523010365775466,59,28,7,5,-15,-27,-13,13
1523010365776470,12,8,-1,-11,2,25,28,2
1523010365776470,-73,-51,-12,12,2,-6,-56,-27
1523010365788501,-35,3,-6,-11,-29,-7,9,1
1523010365788501,25,7,3,-20,4,-2,15,2
1523010365797525,7,7,5,26,24,-13,-14,8
1523010365797525,50,16,4,-22,-15,15,25,5
1523010365812565,34,-8,-16,7,-5,13,-26,-7
1523010365812565,18,18,2,-5,-9,-22,1,6
1523010365814571,-5,-17,1,0,-8,3,-1,-8
1523010365814571,-67,-28,-4,-11,4,-10,-34,4
1523010365834624,-18,11,7,21,9,19,34,-12
1523010365834624,-75,-27,-9,-4,8,7,1,-6
1523010365836629,61,0,-6,-9,-12,-10,-1,0
1523010365836629,-29,7,-2,3,3,-11,-12,-3
1523010365848661,28,2,6,2,4,3,11,15
1523010365848661,14,1,-2,-5,-12,2,-7,0
1523010365857686,-39,0,-1,-6,-8,-6,-9,-20
1523010365857686,48,12,5,15,17,1,5,8
1523010365871722,-36,-9,0,-11,-13,-10,-1,3
1523010365871722,1,-4,2,8,11,5,6,-3
1523010365878741,-48,-18,-7,-4,-5,-10,-15,-8
1523010365878741,40,23,1,2,-1,4,15,7
1523010365894784,15,4,1,-5,-1,-4,-2,-1
1523010365894784,-7,-5,2,-5,-4,3,-4,3
1523010365896790,-6,0,-5,0,1,-2,2,-3
1523010365896790,-1,-1,0,1,1,-1,-7,-4
1523010365908821,2,-1,0,-3,-1,-4,-1,-4
1523010365908821,8,-2,-3,4,-3,3,1,9
1523010365917845,-11,-1,-3,-2,-3,-5,-3,-14
1523010365917845,3,1,0,2,0,-1,9,-2
1523010365932885,2,-4,2,0,3,-6,-10,1
1523010365932885,-4,5,-3,-10,-16,1,-1,-2
1523010365938901,3,-1,-1,6,7,0,4,5
1523010365938901,7,-1,-2,0,-8,0,7,2
1523010365954944,-9,-3,0,-2,5,15,-5,-9
1523010365954944,0,2,1,11,10,-12,4,-2
1523010365956950,-6,6,0,-23,-36,7,2,11
1523010365956950,13,12,0,-11,8,21,16,11
1523010365968981,9,6,3,8,-14,-32,-5,-7
1523010365968981,-10,-14,-4,3,10,11,-3,-3
1523010365978005,-4,-5,1,9,17,-6,-3,6
1523010365978005,17,2,-3,4,-4,-15,-3,-3
1523010365993045,-19,-3,-1,7,10,5,-5,-8
1523010365993045,-8,-8,-6,-12,2,-2,-6,-10
1523010365994048,23,10,1,-2,-1,8,4,12
1523010365994048,9,-7,-3,-11,-7,7,10,3
1523010366015104,-13,-4,-4,-2,-5,-10,-6,-18
1523010366015104,-11,-1,2,5,-6,-8,-7,-6
1523010366017109,-4,-14,-6,4,10,5,-2,-1
1523010366017109,-33,-4,-3,-1,-3,1,-1,-4
1523010366029141,50,13,6,2,-4,-4,-4,25
1523010366029141,1,14,2,1,-1,1,0,-4
1523010366038165,-32,-21,-8,-7,0,27,19,-14
1523010366038165,9,7,2,9,5,-10,2,12
1523010366052202,-51,-12,-4,-5,-1,1,-9,-16
1523010366052202,37,17,3,-9,-8,-2,-53,16
1523010366054208,31,13,3,7,5,3,45,9
1523010366054208,-9,-27,-5,0,-1,-4,1,-16
1523010366075264,33,11,-5,-11,-12,8,10,7
1523010366075264,8,3,-2,-7,-3,2,13,10
1523010366076267,-26,-13,4,39,43,13,-29,-17
1523010366076267,-43,1,3,-13,-25,-20,-16,4
1523010366088299,-5,-17,-6,-18,6,8,16,-3
1523010366088299,2,5,5,66,50,11,20,-12
1523010366097323,0,7,9,-7,-11,-16,-12,11
1523010366097323,38,-41,-15,-2,-1,9,8,-5
1523010366112363,30,39,-3,-20,-23,-20,-14,8
1523010366112363,-8,-8,-3,-16,-12,1,22,-4
1523010366114368,23,0,1,1,-2,-11,-7,3
1523010366114368,-12,0,6,9,9,5,-2,-12
1523010366135424,-41,-18,-2,-5,-7,-4,-2,-5
1523010366135424,9,1,-2,-6,-3,4,3,8
1523010366136427,8,9,2,-4,-7,-8,-1,0
1523010366136427,0,12,-4,-10,-5,-3,-12,2
1523010366148459,24,4,1,8,7,5,2,1
1523010366148459,-7,1,-1,-4,-5,-3,1,-2
1523010366157483,-42,-19,-5,-12,-10,-13,-15,-11
1523010366157483,3,-2,-2,1,3,-1,3,-2
1523010366171520,14,7,1,6,7,9,5,10
1523010366171520,-11,-7,3,-7,-6,-1,-2,-5
1523010366178538,-7,3,0,-7,-9,-11,-2,1
1523010366178538,7,10,-1,6,8,4,-1,-3
1523010366195584,-5,-11,-3,3,-8,-7,-1,3
1523010366195584,-1,-5,2,-7,-15,-10,-6,-1
1523010366196587,-6,-5,-5,-14,4,2,-3,-2
1523010366196587,7,9,-2,6,17,13,6,1
1523010366217643,-37,-5,5,4,-2,-5,-9,-10
1523010366217643,-6,-5,-6,-18,-29,-2,2,-4
1523010366219648,10,9,2,5,5,8,0,1
1523010366219648,1,-1,-3,-9,8,3,-3,-3
1523010366231680,3,-4,-1,7,11,0,0,-1
1523010366231680,-4,0,1,7,11,-8,-5,-1
1523010366238698,-2,0,-2,-8,-26,-11,-4,-2
1523010366238698,4,5,5,7,8,11,5,5
1523010366254741,8,1,-1,-3,1,-1,1,2
1523010366254741,-20,-9,-4,2,-2,-3,-3,-2
1523010366256747,8,1,-1,-1,-7,-4,-7,-7
1523010366256747,-10,0,-3,-6,-10,-1,6,3
1523010366277802,44,13,3,2,2,1,5,7
1523010366277802,-20,-10,-3,-7,3,1,-4,-7
1523010366278805,-46,-15,-6,3,5,0,-3,-6
1523010366278805,35,10,3,5,-3,-4,-1,2
1523010366292843,-12,-8,-2,-1,3,2,2,1
1523010366292843,-10,-4,-3,-7,-1,3,-1,1
1523010366293846,23,6,-1,-3,-4,-2,5,2
1523010366293846,13,7,3,6,-15,-13,-6,2
1523010366315904,11,1,0,-1,9,11,3,6
1523010366315904,2,-4,-1,18,22,13,-2,-11
1523010366320917,-6,-2,-1,-4,-6,-11,8,2
1523010366320917,-9,-3,-1,-8,-11,-4,-14,-5
1523010366337962,8,3,0,2,0,-18,-2,6
1523010366337962,-7,-7,-2,-8,-17,15,6,-6
1523010366338965,32,11,4,2,2,0,0,6
1523010366338965,-34,-19,-6,-23,-37,-16,-12,-13
1523010366352000,-24,-13,-11,-13,13,10,8,-5
1523010366352000,45,26,10,42,42,1,6,15
1523010366359018,-6,9,5,-8,-7,0,10,4
1523010366359018,-43,-12,-5,-1,5,-10,-21,-10
1523010366375061,-7,-6,-7,-5,-24,-9,-16,-3
1523010366375061,18,4,-3,-19,-9,10,21,2
1523010366377067,-1,5,6,4,0,2,15,7
1523010366377067,6,4,5,0,-1,2,-13,5
1523010366397120,4,3,2,-5,-1,1,0,0
1523010366397120,4,5,-8,-9,-7,-11,-14,-8
1523010366399125,14,10,-7,-1,0,-4,-7,-4
1523010366399125,-23,-21,0,0,4,1,16,1
1523010366412160,-5,3,0,11,7,2,-5,-5
1523010366412160,14,-1,-2,-16,-6,-13,-9,7
1523010366419178,-37,-21,-6,-13,-13,-7,-16,-16
1523010366419178,6,2,0,21,10,9,21,3
1523010366435221,17,-8,1,13,18,3,-5,-2
1523010366435221,-12,9,3,-7,-13,0,8,3
1523010366437227,3,-4,-5,-6,-1,-4,-13,2
1523010366437227,7,9,5,0,7,1,2,-1
1523010366457280,-8,0,-1,-5,-17,-6,2,-4
1523010366457280,-16,-8,-2,-3,-7,-6,-8,-4
1523010366459285,4,-8,-4,2,12,2,-6,3
1523010366459285,17,10,1,2,4,7,9,7
1523010366472320,6,-2,-2,-7,-7,4,0,3
1523010366472320,-24,-13,-4,-1,0,-4,-7,-7
1523010366478336,-5,-3,5,13,6,-3,-2,-3
1523010366478336,26,12,-1,7,9,-5,3,2
1523010366495381,-21,-13,-9,-21,-15,8,-4,-6
1523010366495381,4,-8,-4,-9,-9,6,9,7
1523010366496384,10,2,0,7,13,-6,-1,-1
1523010366496384,-11,1,1,11,22,-8,-9,-11
1523010366517440,15,5,6,9,-17,2,1,6
1523010366517440,-1,-4,-6,-23,-21,9,3,3
1523010366519445,-2,0,2,4,-12,-2,1,-3
1523010366519445,-7,-3,-2,-2,10,-6,-1,-1
1523010366542507,-2,0,-6,1,12,3,0,1
1523010366542507,-7,4,3,2,7,3,-1,-2
1523010366544512,-6,-3,-3,-7,-5,3,1,1
1523010366544512,15,-5,-3,0,-6,-2,-1,-2
1523010366546517,3,-4,2,2,2,-7,0,-2
1523010366546517,-12,-5,1,1,-4,-9,-6,-7
1523010366557547,31,5,-3,-7,5,0,-3,6
1523010366557547,2,2,0,12,12,6,6,3
1523010366570581,-66,-14,-4,-6,-7,-8,-7,-15
1523010366570581,5,-2,-1,-3,2,-4,-5,4
1523010366571584,16,1,-3,2,-13,3,3,2
1523010366571584,18,5,0,-1,-2,-1,-2,-1
1523010366583616,-9,-2,0,8,11,5,15,-3
1523010366583616,-21,-6,-1,5,6,-11,-23,-3
1523010366592640,16,12,2,2,10,-1,-3,1
1523010366592640,1,8,2,-22,-36,8,7,9
1523010366606677,-37,-18,-2,10,8,-1,6,-4
1523010366606677,18,-6,-10,-13,-18,-9,5,-10
1523010366615701,10,2,-4,-3,12,1,-5,-4
1523010366615701,-4,-1,-1,-4,-26,-7,-4,1
1523010366629739,18,9,2,1,30,-4,-1,5
1523010366629739,-16,6,-1,36,2,8,22,-3
1523010366631744,1,-1,-4,-3,10,-3,-24,-5
1523010366631744,20,12,-2,-4,-4,-13,-13,-1
1523010366643776,17,-2,-1,-9,-14,6,10,6
1523010366643776,-24,-9,1,-4,-3,-10,-5,-8
1523010366652800,-15,-5,-2,1,3,7,7,-3
1523010366652800,-2,3,-1,-4,-7,1,4,-8
1523010366665835,-9,-14,-9,2,-2,-8,-17,3
1523010366665835,-1,5,1,-2,12,-4,-5,-4
1523010366674858,-9,-5,0,0,-14,2,4,1
1523010366674858,-12,-3,0,-6,8,2,-6,0
1523010366689899,31,19,3,2,-17,-5,3,6
1523010366689899,-1,-5,1,1,14,2,-2,2
1523010366691904,-29,-11,-6,-2,-5,5,-1,-7
1523010366691904,-12,-4,-2,1,2,1,3,0
1523010366703936,14,7,1,2,1,-1,-4,3
1523010366703936,0,-5,-2,-1,-4,-2,-2,-1
1523010366712960,-4,2,1,0,-4,-2,2,0
1523010366712960,-2,-4,-5,-7,4,6,5,0
1523010366725994,-1,-1,1,-1,-2,0,-2,-4
1523010366725994,7,2,3,7,3,-11,-6,5
1523010366735018,6,-1,-4,-9,-12,1,1,1
1523010366735018,-17,-8,-6,1,19,14,8,1
1523010366750058,4,4,0,-8,-22,-6,-5,-1
1523010366750058,1,3,4,9,8,0,0,-5
1523010366752064,1,-4,0,11,9,-25,0,0
1523010366752064,-13,-7,-13,-38,-39,18,-2,-2
1523010366764096,16,4,-1,-5,10,22,8,7
1523010366764096,2,0,5,10,4,-13,-5,-2
1523010366773120,-15,-13,1,12,4,-5,-6,-8
1523010366773120,1,4,-1,4,5,-13,-4,-5
1523010366786154,-3,3,2,-1,-3,0,0,-3
1523010366786154,17,-4,-11,-17,-8,4,2,4
1523010366795179,5,11,8,-2,5,5,4,4
1523010366795179,-47,-10,-1,9,5,-8,-5,-10
1523010366817237,-3,-5,-5,2,-6,-8,-8,-12
1523010366817237,17,5,4,2,0,5,0,4
1523010366819242,2,-2,-2,-13,-10,-5,-1,1
1523010366819242,-29,-7,1,4,-2,2,-2,-6
1523010366824256,-11,1,0,-6,-19,-6,-1,0
1523010366824256,4,-17,-8,11,42,0,1,-6
1523010366833280,36,24,1,-1,-12,10,-15,3
1523010366833280,18,-11,3,5,-7,0,1,3
1523010366846314,-14,4,5,-15,-7,-15,-11,4
1523010366846314,31,17,6,-4,-11,4,24,14
1523010366855338,-51,-26,-16,1,6,0,3,-10
1523010366855338,-33,12,8,31,29,1,-2,-6
1523010366868373,2,0,0,3,3,-2,-8,-6
1523010366868373,29,10,-1,-16,-17,9,13,4
1523010366877397,45,7,5,-6,-6,-8,2,8
1523010366877397,41,8,-2,12,16,0,5,4
1523010366883413,-4,1,4,0,11,-1,-7,3
1523010366883413,-74,-6,2,-11,-30,-4,-2,-8
1523010366892437,-25,-17,-9,-9,-4,6,-4,-10
1523010366892437,21,-2,-3,-3,-2,2,3,3
1523010366906475,43,22,7,17,15,-4,10,9
1523010366906475,14,-18,-6,-2,-3,0,-8,7
1523010366915498,-44,1,1,-5,-8,-3,-3,-8
1523010366915498,-15,-13,-3,-6,-7,-2,-1,-1
1523010366930539,25,16,5,1,3,4,4,6
1523010366930539,-4,-5,-2,-3,-4,0,-7,-1
1523010366937557,-20,-10,-4,1,-2,0,4,-3
1523010366937557,22,11,9,0,3,-4,-3,1
1523010366943573,-21,-3,-2,0,-1,3,0,-1
1523010366943573,2,2,-1,-4,-4,-1,-6,2
1523010366952597,16,1,3,10,10,-8,-1,-2
1523010366952597,1,-5,-5,0,-3,-11,-4,-2
1523010366966634,-15,-12,-12,-19,-16,21,4,-2
1523010366966634,2,-2,-4,4,17,11,0,1
1523010366975659,3,9,14,26,8,-16,-3,-3
1523010366975659,-7,2,0,-6,-6,9,-2,3
1523010366988693,23,-9,-15,-31,-11,14,11,8
1523010366988693,-48,-10,-6,-1,6,13,-4,-19
1523010366997717,-1,5,5,-1,-3,11,3,3
1523010366997717,11,-1,-5,-8,-2,-8,2,7
1523010367003733,-5,0,4,18,15,-17,-10,-9
1523010367003733,3,1,-2,-3,-1,-9,-9,-3
1523010367012757,-15,-7,1,9,6,-1,-1,4
1523010367012757,19,8,3,2,4,-4,-3,5
1523010367026794,-28,-8,-6,-6,-7,-2,-3,-5
1523010367026794,-4,-4,-4,-2,-8,-10,-3,-6
1523010367034816,13,0,-4,-5,-1,2,-1,-5
1523010367034816,36,14,4,-4,-3,9,3,11
1523010367048853,7,-6,-2,4,2,-3,0,-1
1523010367048853,-86,-22,-3,-1,-4,-15,-14,-18
1523010367057877,5,9,5,-15,-2,6,-1,3
1523010367057877,-34,-10,-8,-4,-6,6,12,-6
1523010367063893,29,13,4,0,-4,-4,0,3
1523010367063893,77,15,5,-6,-33,-2,10,17
1523010367072918,-85,-20,-7,8,38,-3,-15,-11
1523010367072918,-3,-27,-5,-8,-17,10,2,-7
1523010367085952,1,10,2,-8,-1,-5,-3,5
1523010367085952,42,8,0,15,9,2,-14,-3
1523010367094976,43,22,-3,-42,-58,-9,3,-6
1523010367094976,-48,-28,-1,37,36,-12,-7,-2
1523010367109013,-65,-28,-6,10,18,20,15,-12
1523010367109013,-20,-9,5,-18,-21,-11,13,8
1523010367118037,40,4,7,10,9,7,14,12
1523010367118037,107,44,-16,-29,-18,-7,-29,0
1523010367124053,35,17,7,12,1,-1,-5,4
1523010367124053,-44,-9,4,11,23,5,8,0
1523010367133077,-67,-30,-10,-9,-12,0,-3,-13
1523010367133077,-56,-4,5,-6,-8,-6,-1,2
1523010367162154,17,-5,-6,-3,-10,-13,-3,-4
1523010367162154,22,14,6,10,8,13,1,4
1523010367164160,15,-5,-4,4,6,1,14,4
1523010367164160,0,-6,-3,0,-4,-1,-3,-7
1523010367169173,-14,0,0,3,3,-10,-5,-3
1523010367169173,14,10,4,-6,-5,-6,-4,6
1523010367178197,10,-5,-5,-2,-2,5,6,5
1523010367178197,-13,2,2,4,4,-3,1,-8
1523010367184213,2,-7,-2,-5,-3,-8,-6,-3
1523010367184213,-20,-10,-5,-1,-1,0,-1,-3
1523010367193237,20,13,1,5,-1,1,-6,5
1523010367193237,13,10,6,-7,3,4,6,10
1523010367206272,-20,-12,-3,-4,-2,-4,-6,-7
1523010367206272,10,2,-4,1,5,-7,-8,0
1523010367215296,23,8,3,16,3,-1,1,8
1523010367215296,-18,-11,-6,-18,-16,10,1,-5
1523010367228330,-24,-9,-3,-6,16,19,7,-9
1523010367228330,15,2,-2,2,-8,-16,-4,-2
1523010367237354,5,-3,2,5,-6,-14,-9,-2
1523010367237354,-2,1,8,17,18,0,5,4
1523010367243370,8,-12,-14,-15,-20,-8,-8,3
1523010367243370,6,10,1,-13,1,11,0,-5
1523010367252394,-10,-10,-3,-2,2,10,5,-1
1523010367252394,-8,5,3,-4,-16,-4,-6,-12
1523010367266432,16,18,12,10,17,-2,3,7
1523010367266432,-2,3,-4,0,1,-8,-4,1
1523010367275456,-3,-9,-4,-5,-4,-6,-6,-5
1523010367275456,9,-3,-1,9,13,-4,-2,-1
1523010367288490,-3,1,1,10,0,-11,-4,3
1523010367288490,31,-1,-6,-4,1,14,3,3
1523010367297514,-16,20,7,-16,-20,6,3,2
1523010367297514,-54,-22,-3,0,2,-2,1,-12
1523010367303530,4,8,4,5,-6,-8,-3,2
1523010367303530,10,0,-2,-1,4,0,-2,-1
1523010367312554,26,4,-3,-2,6,-2,-10,-1
1523010367312554,42,13,4,3,-4,-3,15,5
1523010367326592,11,0,1,-1,8,13,7,5
1523010367326592,-61,-32,-10,-6,-12,-1,-6,-19
1523010367335616,-36,0,-1,11,30,5,6,2
1523010367335616,15,10,5,-5,-13,-11,-17,3
1523010367348650,0,-15,-2,6,8,5,3,2
1523010367348650,44,14,0,1,-9,16,25,7
1523010367357674,5,1,4,-23,-13,-6,-4,3
1523010367357674,6,4,1,59,50,6,-11,1
1523010367372715,-10,-5,-3,-5,-20,-8,-3,-10
1523010367372715,-2,6,-4,-8,-6,-5,-9,-7
1523010367374720,11,11,2,-3,-5,-8,9,4
1523010367374720,-1,-8,2,-13,-10,12,-14,5
1523010367386752,38,-6,0,-1,-8,-9,1,0
1523010367386752,-105,-31,-12,-14,-12,-1,0,-10
1523010367394773,49,19,-2,6,-1,-7,-12,-6
1523010367394773,-23,-3,-2,-5,0,1,6,5
1523010367408810,12,-3,-9,-6,0,3,-7,-8
1523010367408810,34,9,9,8,10,-1,9,1
1523010367417834,-20,-9,-1,11,11,1,-15,1
1523010367417834,-1,1,-1,-10,-5,-5,14,-5
1523010367439893,-25,-3,-2,-14,-22,-6,-5,-3
1523010367439893,37,14,-1,0,4,-6,-12,7
1523010367441898,-11,-3,1,12,7,6,10,-1
1523010367441898,-11,-19,-7,-6,-10,-3,-4,-8
1523010367453930,-20,1,0,-5,-3,-1,-4,1
1523010367453930,11,-1,0,-4,-6,-10,-11,-6
1523010367462955,1,-3,2,2,2,5,3,0
1523010367462955,10,2,-5,-10,-8,-3,3,2
1523010367477994,-22,-6,-7,3,2,-7,-1,-1
1523010367477994,11,9,5,5,9,0,0,3
1523010367478997,-12,-15,-9,-12,-11,2,-2,-4
1523010367478997,-2,6,-2,-10,-3,-5,3,0
1523010367500053,17,10,6,10,9,1,0,0
1523010367500053,-4,-4,1,6,-6,-4,-5,2
1523010367502058,-4,-4,-3,-12,-5,1,2,1
1523010367502058,2,0,-5,-9,-13,-2,-2,2
1523010367514090,-8,0,0,13,12,8,2,0
1523010367514090,-6,2,2,0,17,8,-3,-2
1523010367521109,9,-3,-1,7,-7,-14,1,2
1523010367521109,-8,-16,-10,-23,-5,0,-3,-5
1523010367537152,8,0,-1,3,-9,7,4,2
1523010367537152,2,39,31,23,-3,-5,0,-2
1523010367539158,-15,-17,-13,-14,4,10,-2,-4
1523010367539158,-9,0,-5,0,13,5,6,2
1523010367560213,-14,-3,2,-1,-2,-11,-8,-14
1523010367560213,-6,-24,-11,-1,-3,4,2,3
1523010367562218,25,23,21,20,10,3,4,2
1523010367562218,-5,-8,-12,-13,-4,-6,0,-2
1523010367574250,-5,9,-4,-2,8,2,0,3
1523010367574250,17,-6,-7,-3,-2,-10,-1,2
1523010367583274,16,15,6,1,-8,2,4,7
1523010367583274,-45,-13,1,6,2,-4,-4,-9
1523010367597312,-4,-8,-6,-5,-2,1,-1,-3
1523010367597312,-3,-4,-6,-7,-4,-4,-2,-5
1523010367599317,6,-10,-10,-8,-6,0,-4,-5
1523010367599317,43,24,12,8,2,0,3,8
1523010367620373,-11,-1,-2,1,-5,-4,0,3
1523010367620373,-27,-14,-6,-6,-1,1,-1,-9
1523010367621376,5,-3,-5,-6,-1,1,-3,-2
1523010367621376,50,15,5,8,-1,-2,0,-2
1523010367633408,-38,-9,1,0,-2,-1,0,4
1523010367633408,-49,-17,-7,-6,-3,-6,-5,-11
1523010367642432,-11,-9,-3,1,0,4,1,-1
1523010367642432,13,3,1,-23,-30,-6,-2,2
1523010367657472,34,10,0,15,10,4,-3,6
1523010367657472,3,3,0,-1,0,-3,6,3
1523010367659477,-5,-3,-1,20,30,-1,-9,-3
1523010367659477,-6,0,1,15,-3,-3,2,1
1523010367680533,15,6,0,-47,-32,-10,-7,-2
1523010367680533,-26,-13,-7,-7,-20,6,-7,-3
1523010367681537,-11,-7,-2,18,6,1,12,-5
1523010367681537,-12,-2,2,-8,-6,-13,-28,-2
1523010367693568,6,7,-1,-5,-5,10,13,1
1523010367693568,32,13,1,1,8,-12,11,13
1523010367702592,-12,-12,-7,-18,-21,3,11,-9
1523010367702592,-59,-29,-2,16,22,9,10,-3
1523010367717632,33,15,0,-8,-14,-9,-9,1
1523010367717632,85,25,3,-8,8,-4,-6,12
1523010367719637,-55,-12,2,11,1,20,11,-4
1523010367719637,-30,-5,-6,-4,2,-19,-23,-9
1523010367739691,11,4,4,-6,-2,7,3,4
1523010367739691,-10,-8,2,11,-3,8,5,-2
1523010367741696,34,15,1,-1,11,-10,-4,8
1523010367741696,50,16,0,-18,-20,3,13,1
1523010367753728,-26,-11,-4,19,12,-6,-9,-4
1523010367753728,5,6,1,12,27,11,-1,-1
1523010367762752,4,-1,3,-10,-12,-7,2,-3
1523010367762752,10,5,3,7,6,8,5,0
1523010367777792,-8,-3,-5,-5,-8,-9,-7,-7
1523010367777792,-25,-1,0,-5,-9,0,4,-1
1523010367778794,-1,-1,-2,-4,1,-1,-11,-1
1523010367778794,25,7,2,0,3,2,5,6
1523010367799850,-11,-4,2,6,2,-2,1,-6
1523010367799850,-19,-7,4,4,0,1,-4,-3
1523010367801856,4,-9,-7,-9,-5,-5,-6,-1
1523010367801856,15,11,1,3,4,0,3,0
1523010367822912,-6,-3,2,8,3,0,2,0
1523010367822912,-13,-9,-2,-7,-1,4,-1,1
1523010367823915,21,7,-1,-11,-17,-15,-5,3
1523010367823915,-15,-4,-1,1,3,8,4,-5
1523010367835946,-12,-16,-6,7,16,5,-2,-6
1523010367835946,6,4,-4,-5,-14,-5,-1,0
1523010367844970,1,4,3,0,0,5,0,2
1523010367844970,-15,-11,-3,9,23,-5,-3,-5
1523010367860010,-6,-11,-9,2,11,-10,-2,-1
1523010367860010,14,11,0,-4,-27,-1,-5,1
1523010367862016,-19,6,3,-9,-2,4,1,-4
1523010367862016,7,0,3,12,1,-11,6,8
1523010367883071,18,-2,3,15,25,7,1,0
1523010367883071,-2,7,0,-11,-6,15,6,5
1523010367884074,-21,-26,-28,-34,-16,23,0,-7
1523010367884074,-18,26,31,-1,-9,3,-1,-7
1523010367896106,-14,-4,-2,9,10,-12,-2,-1
1523010367896106,5,-10,3,14,11,-20,-7,-5
1523010367905130,38,15,2,15,-5,-12,-6,7
1523010367905130,-41,-21,-16,-10,1,1,-4,-9
1523010367920170,-43,-15,-8,-9,-21,-2,-1,-8
1523010367920170,-10,-2,-2,-1,8,3,-1,-3
1523010367922176,13,2,3,1,4,-9,-4,-2
1523010367922176,28,10,-5,0,-4,-1,1,7
1523010367942229,-18,5,6,-5,-3,5,1,-2
1523010367942229,58,9,0,-5,-4,-3,-1,9
1523010367944235,-43,1,6,15,11,-7,-7,0
1523010367944235,-35,-22,-8,-5,-20,4,4,-8
1523010367957269,28,18,3,-8,8,11,9,11
1523010367957269,-20,-10,-4,7,1,-3,-7,-12
1523010367963285,39,12,3,-9,-17,-14,1,4
1523010367963285,40,12,0,2,18,-8,3,6
1523010367980330,-40,-9,-4,-14,-21,8,-15,-5
1523010367980330,36,6,1,-16,-6,-17,1,7
1523010367981333,-43,-13,1,-1,-7,15,-7,-7
1523010367981333,10,2,-3,38,25,7,19,0
1523010368002389,53,7,2,11,18,11,10,4
1523010368002389,-60,-11,-1,-7,3,3,4,-5
1523010368004395,-57,-27,-7,-17,-28,-12,-1,-7
1523010368004395,16,13,-4,-25,-23,-5,-7,-3
1523010368025450,23,-9,2,2,3,-5,-15,3
1523010368025450,70,41,7,13,0,-2,-2,9
1523010368026453,-52,-33,-3,-3,13,1,-4,-3
1523010368026453,-6,-14,-7,-2,-5,6,-10,-3
1523010368040490,22,22,-3,-6,-3,3,13,5
1523010368040490,-23,-20,-2,11,2,11,25,-4
1523010368041493,70,32,5,1,4,-14,-11,3
1523010368041493,-63,-16,-3,5,15,12,6,1
1523010368053525,22,-5,-2,-5,-16,-9,-1,-4
1523010368053525,-13,7,5,-7,-3,-1,1,3
1523010368062549,-30,-16,-2,9,12,4,-2,-17
1523010368062549,6,0,0,3,-10,-3,-9,3
1523010368076586,15,3,-4,-11,-10,-1,12,4
1523010368076586,9,-1,1,-3,-3,-1,-12,0
1523010368083605,6,5,-1,-2,1,-4,2,-3
1523010368083605,6,-3,-4,-21,-16,-3,-9,1
1523010368100650,-15,-1,-3,14,14,0,-3,-4
1523010368100650,-12,-17,-9,-2,2,-2,-6,-2
1523010368101653,10,25,13,2,1,3,1,3
1523010368101653,6,0,-2,-11,-13,-2,3,-7
1523010368122709,-11,-3,-1,8,10,-7,-8,-6
1523010368122709,-16,-14,-6,-4,9,3,-4,0
1523010368124715,15,0,-2,-4,-9,-1,7,6
1523010368124715,1,0,-3,-27,-16,-3,-9,-7
1523010368136746,-4,-2,3,18,14,-5,2,6
1523010368136746,-12,0,1,4,-4,-1,-5,-1
1523010368145770,9,4,0,0,-36,4,5,4
1523010368145770,7,-3,2,23,51,6,-1,0
1523010368159807,-11,-6,-5,-26,-29,-9,-4,-6
1523010368159807,-7,-1,-5,-6,7,2,0,-3
1523010368161813,10,0,-2,5,-1,-14,-1,2
1523010368161813,12,-3,2,6,-1,-3,1,15
1523010368182869,-32,4,7,3,-2,3,-7,-21
1523010368182869,4,-1,1,1,-19,7,4,1
1523010368183872,1,6,-13,-26,-9,5,-1,1
1523010368183872,1,-5,0,0,9,-10,0,7
1523010368195903,-10,-32,-8,12,39,-28,-6,-8
1523010368195903,3,50,22,6,-65,0,-9,-9
1523010368204927,0,-13,5,8,52,48,9,9
1523010368204927,19,5,-11,-13,-23,18,14,12
1523010368219967,-26,-5,-3,-7,-10,8,4,1
1523010368219967,-11,-13,-4,0,4,-36,-9,-14
1523010368221973,22,7,4,11,0,-28,-9,-5
1523010368221973,-12,7,0,4,9,-2,-7,-4
1523010368243029,10,2,4,-7,-4,9,3,7
1523010368243029,-12,-14,-4,18,15,7,-2,-5
1523010368244032,-42,-5,-8,-8,-5,-7,-5,-9
1523010368244032,29,2,0,2,10,5,3,1
1523010368256064,-6,3,-2,-29,-43,-4,-1,2
1523010368256064,-5,-11,-4,20,45,10,3,3
1523010368265087,44,3,6,45,40,5,2,8
1523010368265087,-2,3,5,-4,-19,-13,-8,-6
1523010368280128,-34,-3,-6,-5,-10,5,-5,-6
1523010368280128,59,16,1,-24,-9,-1,2,15
1523010368282133,-53,-25,-5,-4,0,-11,3,-14
1523010368282133,-52,-13,-6,14,-5,4,-15,-20
1523010368302186,25,7,5,-10,-11,-12,-2,7
1523010368302186,-21,-25,-8,-24,-16,13,-8,0
1523010368304192,22,33,1,11,16,-1,14,8
1523010368304192,37,9,5,7,2,8,31,5
1523010368316223,12,-1,-1,19,10,-7,-36,-10
1523010368316223,-61,-15,-8,2,27,-2,15,-5
1523010368325248,-5,-18,3,-14,-26,-6,-1,-4
1523010368325248,-38,-8,2,2,-10,11,-6,-7
1523010368340287,45,28,-2,-1,-5,5,17,20
1523010368340287,45,10,5,-6,1,5,3,5
1523010368341290,7,2,4,2,4,-5,7,0
1523010368341290,-40,-33,-10,-12,-15,-16,-23,-14
1523010368362346,3,4,-6,-3,-1,6,-5,-3
1523010368362346,12,7,1,5,7,-7,-10,-1
1523010368364352,-29,-13,-3,-3,-6,5,20,3
1523010368364352,-2,0,3,2,1,-7,2,5
1523010368376383,8,-6,-1,-12,-12,-1,-3,1
1523010368376383,11,2,-4,14,39,8,10,0
1523010368385407,-30,-9,-3,-6,-10,8,-10,-9
1523010368385407,22,10,0,0,-2,3,10,7
1523010368400448,-8,-3,3,4,7,-1,1,-1
1523010368400448,-7,6,1,-11,-20,-10,-4,-3
1523010368401450,28,-2,-5,-5,0,-5,-13,-4
1523010368401450,5,3,0,4,8,-4,-11,-1
1523010368422507,3,6,7,12,1,2,15,12
1523010368422507,-13,-10,-5,-5,-4,1,-5,-3
1523010368424512,-3,0,-3,-15,-6,-4,-4,10
1523010368424512,12,-2,-4,-7,-7,-1,-2,-21
1523010368436544,-8,-16,-6,-2,-7,-4,-2,-6
1523010368436544,13,15,8,3,13,17,5,1
1523010368445568,10,11,12,27,34,9,-2,5
1523010368445568,-9,-7,-4,-13,-28,-12,0,9
1523010368460608,3,-11,-7,-8,-10,1,1,-3
1523010368460608,-13,-14,-8,-4,-10,-16,-8,-9
1523010368461610,17,8,-3,-15,-3,10,-2,2
1523010368461610,-2,7,11,23,32,9,-1,-6
1523010368482666,1,4,-3,-1,-8,-17,-4,1
1523010368482666,-2,-12,-4,-4,-8,5,7,-3
1523010368484672,-42,-4,-9,-7,-12,-13,-4,10
1523010368484672,-4,23,20,4,3,-2,-2,-2
1523010368496703,17,15,7,4,15,9,4,4
1523010368496703,8,-2,1,1,-2,-6,-5,-1
1523010368505728,-4,-15,-10,-5,-11,-4,-4,-8
1523010368505728,5,-6,-10,-7,-2,-4,-1,2
1523010368519765,-4,-2,2,2,4,4,-1,0
1523010368519765,4,12,3,-2,-4,-5,2,0
1523010368525781,25,-4,-1,3,-2,2,4,-1
1523010368525781,-39,-8,-9,-33,-59,-15,-12,-7
1523010368542826,-43,-16,1,48,89,28,0,-7
1523010368542826,-11,-8,-4,4,-9,-14,-11,-5
1523010368543829,16,7,0,1,-3,22,15,3
1523010368543829,43,1,-2,-13,-17,-7,-12,10
1523010368555861,3,-3,1,-13,-9,3,4,0
1523010368555861,-31,-4,-6,20,10,-6,-16,0
1523010368564885,64,31,11,14,5,-8,-2,7
1523010368564885,-78,-21,-5,-26,-29,-9,-1,-14
1523010368579925,-7,1,-12,31,37,10,-6,-7
1523010368579925,-4,-21,-5,-16,-3,8,-9,1
1523010368581930,28,13,6,11,-8,-11,-11,0
1523010368581930,41,3,-1,7,15,2,17,4
1523010368602986,-59,-25,-2,-23,-21,-13,3,-4
1523010368602986,6,12,-1,-1,-4,5,5,5
1523010368603989,0,3,-1,-8,-6,-14,-11,-14
1523010368603989,37,8,1,6,16,3,4,9
1523010368616021,9,0,-1,-15,-25,-1,0,-7
1523010368616021,-17,-3,-3,-6,2,-2,0,-2
1523010368625045,-7,-8,3,-5,-9,-2,-1,-2
1523010368625045,-4,5,0,9,18,-1,-5,1
1523010368640085,25,7,-1,-8,-17,-7,1,3
1523010368640085,-11,-8,-7,-7,-9,0,7,1
1523010368642090,-29,-5,1,1,9,-5,-5,-7
1523010368642090,1,-5,-5,7,7,5,0,2
1523010368662143,21,20,6,-5,-12,-5,1,4
1523010368662143,13,8,5,1,1,-13,-1,-2
1523010368664149,-25,-16,-12,-10,-4,8,0,-4
1523010368664149,9,10,3,2,3,6,4,12
1523010368676181,11,-6,0,5,-2,-19,-3,0
1523010368676181,-15,-18,-5,-1,-8,-5,-5,-8
1523010368685205,1,10,6,9,6,10,3,3
1523010368685205,6,-5,-21,-38,-11,20,2,-1
1523010368700245,-3,5,2,-11,-2,12,11,4
1523010368700245,-6,-1,2,2,15,-3,-3,-7
1523010368702250,0,-8,2,11,-8,-27,-4,2
1523010368702250,1,-6,-1,6,6,5,-4,-5
1523010368722304,-2,6,-2,-7,-4,19,-4,-3
1523010368722304,0,7,4,7,-15,-21,-5,-1
1523010368724309,5,-6,4,10,22,-7,-2,-2
1523010368724309,-25,-19,-14,1,27,8,3,2
1523010368736341,17,30,16,-27,-25,-5,0,-4
1523010368736341,20,-11,-7,0,3,15,7,5
1523010368745365,-58,-12,2,6,-8,-9,-9,-15
1523010368745365,29,6,4,21,1,-13,-1,3
1523010368758400,-19,-24,-15,-5,0,3,2,-1
1523010368758400,12,5,-2,-5,-1,5,4,0
1523010368767424,17,18,8,-1,0,6,6,5
1523010368767424,7,-2,1,-3,-12,-4,-1,-1
1523010368782463,43,14,5,4,2,0,0,7
1523010368782463,-17,3,3,-6,-7,-2,1,4
1523010368784469,-75,-33,-14,-8,2,4,-4,-10
1523010368784469,-2,11,9,7,9,-1,0,1
1523010368805525,16,-4,-1,1,-8,-4,-1,-1
1523010368805525,19,2,3,-2,2,4,2,4
1523010368806528,13,0,-4,-13,-11,0,-1,1
1523010368806528,-9,5,3,-4,-4,0,0,-2
1523010368818559,1,-6,0,16,9,-4,0,-1
1523010368818559,-4,-5,-2,-28,-35,0,-2,-1
1523010368827584,-1,1,-2,-10,26,-20,2,-8
1523010368827584,2,6,5,26,16,-4,2,-1
1523010368842623,14,0,-1,4,-20,8,10,3
1523010368842623,-17,4,1,2,-5,-5,-19,0
1523010368844629,-45,-43,-13,-9,-15,11,-2,-4
1523010368844629,21,13,1,-17,-10,-19,-17,-1
1523010368864682,-37,-7,1,20,16,-8,23,-10
1523010368864682,30,6,2,-9,-5,11,-10,4
1523010368866688,65,20,0,-6,-10,-5,5,2
1523010368866688,-26,-17,-3,1,6,6,-14,-6
1523010368878719,-64,-18,-5,-11,-10,-5,-9,-7
1523010368878719,-36,-7,-5,1,7,-2,-3,-11
1523010368887744,79,22,2,6,7,5,0,13
1523010368887744,4,0,-1,6,-1,3,0,-2
1523010368902783,-11,-5,2,-17,-7,-12,-10,3
1523010368902783,20,10,1,5,7,3,20,1
1523010368903786,-53,-25,-6,17,4,7,-18,-8
1523010368903786,45,19,4,-2,-23,-1,9,2
1523010368915818,20,7,0,0,18,-7,-15,1
1523010368915818,-74,-47,-10,-3,5,8,2,-9
1523010368924842,-15,14,5,-4,-6,6,7,3
1523010368924842,-14,6,5,-2,-3,-7,2,2
1523010368939882,22,1,-4,-8,-2,-2,-10,-3
1523010368939882,44,11,2,9,3,-2,5,4
1523010368945898,15,2,-3,-2,-7,-7,-2,-1
1523010368945898,-32,6,4,0,9,0,2,-6
1523010368962943,10,-1,-2,-6,-9,1,-5,3
1523010368962943,6,4,2,-1,-5,-11,1,2
1523010368963946,-8,-1,-1,11,9,4,4,4
1523010368963946,-6,0,-4,-24,1,4,0,-6
1523010368975978,-2,-3,-5,-15,-20,13,9,2
1523010368975978,-10,0,7,17,17,-7,2,6
1523010368985002,3,-7,-8,-3,-11,-8,-5,-9
1523010368985002,7,1,-6,1,36,6,2,0
1523010369000042,-8,-7,-5,-14,-46,17,2,-5
1523010369000042,2,-8,-6,-9,-4,18,7,3
1523010369006058,29,21,19,42,18,-23,-9,6
1523010369006058,2,-11,-20,-13,7,-9,-3,6
1523010369023104,-47,-25,-9,-11,8,-15,-3,-16
1523010369023104,22,-2,1,7,12,4,-3,-7
1523010369024107,-11,-8,-2,-9,-7,6,-1,-4
1523010369024107,-36,-4,7,19,-3,-8,-4,-10
1523010369045162,26,6,-2,8,10,-3,0,10
1523010369045162,12,7,-1,-4,-7,0,1,1
1523010369047167,29,13,6,-11,0,7,4,1
1523010369047167,-19,-16,-5,-1,-15,-4,3,5
1523010369059199,-17,4,1,-3,8,0,-4,0
1523010369059199,11,7,0,2,-1,-7,-4,-4
1523010369066218,15,5,0,-12,-6,14,16,6
1523010369066218,-63,-14,1,-8,-7,-11,1,-1
1523010369082260,10,0,5,17,-9,0,-11,-5
1523010369082260,-61,-6,1,3,32,-5,11,-9
1523010369084266,18,2,-2,-17,-20,6,10,9
1523010369084266,48,19,4,3,-8,10,-1,1
1523010369105322,0,0,7,52,35,-7,-32,-5
1523010369105322,21,1,-5,-9,7,3,36,4
1523010369106325,-9,-8,-3,-2,-7,0,-19,-1
1523010369106325,-15,-5,3,14,-1,4,0,-3
1523010369118356,21,4,-1,-26,-20,-4,7,4
1523010369118356,-34,-12,1,0,-8,-1,-11,3
1523010369127381,-22,-2,-3,-13,2,-3,13,-2
1523010369127381,53,19,2,-10,-12,-4,-16,3
1523010369142421,4,4,1,-1,9,-2,-4,3
1523010369142421,-6,4,-4,-4,-10,0,-3,-5
1523010369144426,-18,-5,-1,-7,-2,-5,9,-5
1523010369144426,-5,-8,1,8,6,-2,-13,-8
1523010369165482,-1,1,-4,1,6,0,14,-2
1523010369165482,7,6,4,-3,-6,-12,-19,-3
1523010369166485,-17,-17,-8,-2,-4,6,-8,0
1523010369166485,-3,-4,-2,4,4,6,14,0
1523010369178516,-16,-10,1,-14,1,2,-6,5
1523010369178516,14,4,3,10,0,0,11,1
1523010369187541,16,5,-1,2,9,-3,-4,-1
1523010369187541,5,-4,1,9,7,2,-12,0
1523010369202580,0,2,-2,-12,-6,-3,3,3
1523010369202580,4,-3,-2,1,-2,-4,-14,0
1523010369204586,3,11,10,5,0,1,4,-1
1523010369204586,-5,4,0,-6,-6,0,12,1
1523010369225642,-6,-4,-9,-6,-2,-3,2,-4
1523010369225642,9,-2,-2,10,10,-17,-16,-3
1523010369226645,-7,3,-1,0,-1,2,-5,1
1523010369226645,-2,-16,-12,-28,-5,30,9,-2
1523010369238677,0,-1,3,5,0,0,-1,-3
1523010369238677,-1,-2,8,4,-16,-7,-8,-6
1523010369247701,3,1,-2,23,38,-19,-1,4
1523010369247701,4,-10,-24,-57,-69,7,-1,2
1523010369262741,6,-5,-2,-11,-17,28,18,2
1523010369262741,4,-4,-2,0,8,2,4,7
1523010369264746,-31,5,15,23,19,-10,-11,-11
1523010369264746,-4,-11,-4,20,-5,-40,-10,-9
1523010369284799,36,19,8,-5,7,11,4,6
1523010369284799,-5,11,1,2,-15,3,-1,3
1523010369286804,-28,3,-6,-8,-8,-9,-10,-9
1523010369286804,6,-5,3,8,26,9,8,5
1523010369298837,-9,1,2,0,4,-6,-1,-4
1523010369298837,36,8,1,-1,0,9,0,4
1523010369307861,-24,-7,-6,-7,-7,9,-1,-3
1523010369307861,27,-2,1,6,4,-10,1,-2
1523010369322901,-36,-6,-3,6,6,-14,3,-5
1523010369322901,-17,-8,-5,-26,-19,3,-4,-6
1523010369323904,-19,-8,-10,-14,-5,-7,-11,-4
1523010369323904,19,15,13,26,13,-5,5,8
1523010369344959,5,6,2,-15,-21,13,12,1
1523010369344959,21,-2,-10,-7,23,0,-7,0
1523010369346965,-9,-3,-3,-14,-57,-8,-3,-8
1523010369346965,8,5,1,13,24,-1,-4,-2
1523010369358997,20,-19,-5,13,5,-12,-6,4
1523010369358997,-21,1,0,-28,-61,0,18,-2
1523010369368021,0,-7,-1,6,-99,5,-10,2
1523010369368021,-2,12,-8,-17,-100,1,-28,-7
1523010369383060,8,8,3,-3,-21,-13,-1,-7
1523010369383060,42,13,0,4,23,11,12,1
1523010369384063,9,0,9,7,72,-5,-3,10
1523010369384063,-53,-25,-1,3,51,-4,-18,-3
1523010369405119,-44,-4,-13,-9,36,-1,5,-19
1523010369405119,6,-5,6,6,37,-3,-19,-4
1523010369407125,31,19,1,2,35,14,31,8
1523010369407125,29,3,-1,-3,20,1,3,2
1523010369419156,-14,-6,3,7,22,1,-4,3
1523010369419156,-41,-11,-1,1,10,-9,-5,-3
1523010369428181,8,8,1,-4,-1,6,1,-6
1523010369428181,9,-3,2,3,19,6,7,7
1523010369442218,10,1,-1,5,4,-7,11,4
1523010369442218,-18,-4,-4,4,-10,-1,-9,-3
1523010369444224,20,2,-2,-12,3,-2,-10,-3
1523010369444224,-11,2,1,1,5,0,9,1
1523010369465279,9,9,7,10,3,-3,4,0
1523010369465279,-11,-14,-9,3,-2,-2,-6,0
1523010369466282,16,10,4,-2,5,4,7,7
1523010369466282,-7,0,-1,-4,-7,1,9,-1
1523010369479316,-12,-6,-4,-6,-8,-4,-14,-8
1523010369479316,-13,-8,0,10,3,-22,-3,-2
1523010369487338,2,-14,-11,9,2,-16,-10,-5
1523010369487338,-4,16,4,-22,-37,26,10,0
1523010369502378,42,10,1,-11,20,46,8,17
1523010369502378,-6,-3,-1,-9,-27,0,10,4
1523010369504383,-44,-23,-6,6,9,-13,-3,-15
1523010369504383,5,-4,1,19,16,-38,-11,-2
1523010369525439,1,6,7,15,-2,-9,-9,-5
1523010369525439,61,19,3,1,-3,7,4,13
1523010369526442,-50,-6,0,-6,5,17,9,4
1523010369526442,-33,-27,-13,-15,4,8,0,-11
1523010369538474,-10,-7,-8,-10,-2,-4,-6,-3
1523010369538474,7,21,12,14,9,0,2,-3
1523010369547498,46,7,2,-3,-11,0,-3,6
1523010369547498,-5,-2,0,5,-1,-2,2,2
1523010369562538,7,-6,-4,8,2,-7,-6,-5
1523010369562538,-67,-20,-7,-5,-1,0,-9,-9
1523010369564544,-16,-5,-3,-3,-8,6,10,-3
1523010369564544,7,11,5,6,11,0,3,3
1523010369585599,6,-5,-4,-5,-20,-12,-7,0
1523010369585599,38,15,3,-7,-22,4,-1,2
1523010369586602,8,-4,-4,0,35,17,5,-1
1523010369586602,-24,-12,-2,12,4,-6,5,-4
1523010369598634,-5,10,4,-6,-14,-14,0,3
1523010369598634,-3,0,-1,-6,-5,11,-2,-5
1523010369623701,39,2,-2,-8,-25,-3,-5,7
1523010369623701,-7,1,0,-15,-11,-8,-4,-1
1523010369623701,-10,-4,0,9,6,-6,-8,2
1523010369623701,-14,-6,-3,12,3,14,17,-1
1523010369625706,42,8,-1,-4,-5,-9,-6,2
1523010369625706,7,0,1,-15,-22,2,0,-2
1523010369643754,-78,-13,-2,22,21,-1,-10,-8
1523010369643754,19,-1,-3,-7,6,-1,-2,4
1523010369652778,25,-1,-4,4,-2,0,-4,-3
1523010369652778,17,24,8,0,-6,-7,-2,4
1523010369658794,-63,-24,-10,-21,-15,8,4,-9
1523010369658794,-15,-13,-6,-5,-3,-7,-10,-16
1523010369667818,-35,-11,-3,-6,-5,4,-1,-7
1523010369667818,59,8,0,4,10,-13,4,8
1523010369682858,33,7,4,-7,-21,7,20,8
1523010369682858,-33,-6,-5,5,4,-15,-38,-3
1523010369688875,8,13,2,47,75,32,40,1
1523010369688875,-34,0,4,8,-15,0,-2,-2
1523010369704917,1,-29,-1,9,18,-12,-5,0
1523010369704917,24,-9,-11,-24,-23,11,4,5
1523010369706922,37,27,-2,-26,-30,-15,-13,6
1523010369706922,7,0,-2,7,9,10,-3,-8
1523010369718954,11,14,5,1,-3,-2,-1,-1
1523010369718954,-13,-15,0,-3,1,-2,7,-1
1523010369727978,-51,-11,3,-1,-10,-4,-10,-5
1523010369727978,27,2,-4,8,15,7,6,-1
1523010369743018,22,14,1,-9,-13,-7,-10,3
1523010369743018,-46,-11,6,10,11,2,4,-6
1523010369744021,-23,-7,-6,-6,-8,-2,-2,0
1523010369744021,3,-1,-1,-6,-5,-2,-3,0
1523010369765077,35,3,-2,1,-1,-4,-8,0
1523010369765077,52,24,3,3,9,-2,12,7
1523010369767082,-10,-3,1,-2,-16,-4,-4,-1
1523010369767082,-24,-16,-2,1,3,2,-4,-3
1523010369779114,13,4,-1,11,1,-2,0,2
1523010369779114,-10,2,1,-9,-6,-6,4,0
1523010369788138,-8,-15,-6,-11,-6,-13,-9,-2
1523010369788138,8,3,-2,0,-8,2,2,-3
1523010369802175,-7,2,0,-6,5,21,3,-9
1523010369802175,2,9,11,26,5,1,-1,2
1523010369809194,0,-13,-13,-30,-30,-19,-11,-7
1523010369809194,9,-4,-16,-24,8,5,7,10
1523010369825237,-1,-8,5,5,-12,-18,0,4
1523010369825237,-15,5,4,-4,-8,26,6,-2
1523010369827242,5,7,11,22,15,4,2,4
1523010369827242,18,12,10,26,5,-18,-7,0
1523010369847295,-26,-26,-15,-21,-8,-6,-8,-11
1523010369847295,-5,-5,-13,-11,10,2,3,-2
1523010369849301,2,-4,3,-1,-5,1,-1,-3
1523010369849301,-2,-3,-1,4,3,1,-2,2
1523010369862335,31,19,7,10,8,-2,0,7
1523010369862335,13,-4,2,4,-1,-10,-1,2
1523010369868351,-3,-5,-4,-8,-5,6,0,-4
1523010369868351,14,8,2,0,10,4,-1,1
1523010369885397,-41,-15,-7,-12,-21,-11,-7,-10
1523010369885397,-6,-3,-3,9,28,-1,-8,-3
1523010369886399,-31,-2,1,26,23,13,-3,-1
1523010369886399,3,-5,0,-3,-5,8,5,-3
1523010369907455,39,17,0,-3,-10,2,2,11
1523010369907455,-14,-7,-1,-22,-10,-17,5,-2
1523010369909461,15,-3,-2,-20,-17,-1,-17,-10
1523010369909461,0,1,-2,21,-4,8,6,3
1523010369921493,-45,-13,-3,-4,-9,0,4,-7
1523010369921493,14,8,5,-13,1,1,10,3
1523010369928511,-3,-4,-1,21,4,6,-4,7
1523010369928511,6,3,-7,-18,-8,-17,-5,-11
1523010369945556,-8,-5,-3,-5,-3,4,3,0
1523010369945556,40,13,1,-2,-25,-10,-3,-4
1523010369946559,-40,-23,-5,0,19,-1,-2,0
1523010369946559,-24,-23,2,-4,-10,4,11,-4
1523010369967615,-5,15,3,12,14,-4,-19,7
1523010369967615,-6,-1,-3,-3,-10,1,-7,-5
1523010369969620,17,13,3,-13,-2,-1,12,-1
1523010369969620,3,22,-2,4,8,-7,-8,2
1523010369981652,-7,-25,0,1,4,-2,-5,-4
1523010369981652,11,5,-4,-8,-9,-3,-14,-1
1523010369988672,27,6,-4,1,11,2,9,4
1523010369988672,-38,-16,2,6,-6,2,-4,-2
1523010370004714,23,14,0,-9,10,7,1,0
1523010370004714,-17,-6,-3,9,-7,-5,1,1
1523010370006719,-5,-2,-1,-2,-2,-6,-4,-1
1523010370006719,-4,-1,0,-6,0,-1,-3,0
1523010370027775,13,11,-2,-2,2,2,3,0
1523010370027775,-1,0,2,4,1,2,0,1
1523010370029781,-1,-3,-2,-4,-5,-6,-1,-3
1523010370029781,-7,-3,-2,-5,-3,-5,-3,0
1523010370041812,8,-5,2,1,-5,7,3,-1
1523010370041812,-13,0,-2,6,15,-7,-4,0
1523010370049834,11,8,10,4,-9,-4,-2,0
1523010370049834,-1,19,6,8,17,6,2,4
1523010370064874,-5,-8,-11,-25,-34,1,-2,-7
1523010370064874,-12,-11,-1,5,7,18,7,0
1523010370066879,11,-1,5,12,-3,-35,-3,-4
1523010370066879,-15,-18,-9,-11,24,-2,-14,-9
1523010370087935,19,15,7,12,-6,11,13,10
1523010370087935,4,1,-11,-23,-19,13,3,2
1523010370088938,-44,-13,-2,-7,-9,12,5,-7
1523010370088938,0,-3,3,13,9,-16,-7,-4
1523010370100970,13,2,-1,10,19,-13,-4,1
1523010370100970,-6,-3,0,6,4,-6,-5,0
1523010370109994,23,-2,-3,2,-2,4,2,4
1523010370109994,17,16,-2,-6,-10,-2,0,2
1523010370125034,-41,-8,6,2,10,0,1,-5
1523010370125034,16,-8,4,7,3,2,3,-2
1523010370127039,-9,5,-5,-8,-6,1,-2,1
1523010370127039,23,0,-3,-12,-12,3,4,8
1523010370148095,-20,2,-1,4,-5,-14,-8,-7
1523010370148095,-20,-8,-1,3,9,12,2,-4
1523010370149098,-3,-8,-2,-1,-1,3,4,-1
1523010370149098,50,6,1,7,11,10,-4,-1
1523010370162132,-16,5,2,5,9,1,4,7
1523010370162132,-37,-13,-3,-5,-12,-21,0,-6
1523010370176170,2,8,0,-19,-29,-10,-23,-4
1523010370176170,-31,-12,-1,-16,0,5,17,5
1523010370185194,51,7,0,41,26,20,12,6
1523010370185194,-6,-4,-2,14,24,-2,-10,-11
1523010370187199,-3,3,0,5,4,6,6,0
1523010370187199,-6,-3,7,-3,-5,-8,1,5
1523010370207253,-13,-11,-11,-24,-19,-18,-4,-10
1523010370207253,72,15,-6,-19,-17,-5,-15,5
1523010370209258,-33,-8,3,1,-2,-11,-4,-1
1523010370209258,-53,-45,-14,-6,-13,9,2,-9
1523010370222293,30,10,3,-4,3,4,1,0
1523010370222293,-9,12,6,10,3,-5,8,1
1523010370229311,29,13,-1,-14,-1,6,-7,8
1523010370229311,-6,1,3,19,16,3,2,-1
1523010370245354,-7,-13,-4,-4,-5,-1,5,-14
1523010370245354,15,5,0,2,0,-1,0,1
1523010370246356,13,3,3,8,11,2,5,0
1523010370246356,-19,-2,-2,-4,-9,-1,-6,3
1523010370267412,9,3,0,-3,8,-1,-7,2
1523010370267412,-11,-2,-3,-4,-8,-4,-1,0
1523010370269418,-5,-8,-3,-4,-2,1,4,-4
1523010370269418,8,0,-2,-1,-6,-3,-3,-2
1523010370282452,3,5,4,1,2,-8,-5,3
1523010370282452,-13,0,4,-1,-3,1,5,2
1523010370288469,15,6,2,-5,10,2,0,0
1523010370288469,3,6,3,7,-7,-20,-5,-3
1523010370305514,-25,-9,-1,-8,-14,10,0,-1
1523010370305514,-16,-9,-8,-12,-1,15,-1,-7
1523010370306517,12,-4,-3,7,1,-5,3,2
1523010370306517,3,13,3,0,-2,-8,-8,-5
1523010370327572,-5,-6,-4,-14,-18,-3,-1,1
1523010370327572,-2,-9,0,14,14,0,1,1
1523010370329578,-14,4,-4,1,4,9,2,0
1523010370329578,-8,-12,-6,-14,0,0,-3,-10
1523010370341610,3,2,5,13,22,-1,-3,0
1523010370341610,37,8,6,14,-3,-13,-3,4
1523010370348628,1,-2,-10,-12,-12,7,2,-4
1523010370348628,-75,-10,3,-2,-7,8,1,-4
1523010370364671,24,9,0,2,1,-4,0,0
1523010370364671,6,3,-1,-14,-2,-3,-3,-2
1523010370366677,37,3,1,7,1,-4,3,6
1523010370366677,-64,-18,-5,-2,-4,-1,-6,-11
1523010370387733,-41,-1,1,-1,3,3,0,-4
1523010370387733,5,4,3,7,2,-8,0,4
1523010370389738,3,4,1,8,6,4,-2,-3
1523010370389738,50,4,-5,-6,-2,-2,3,4
1523010370401770,-5,-3,-2,-1,-10,5,3,-2
1523010370401770,1,-1,-1,-4,11,7,1,1
1523010370410794,14,3,2,18,11,-6,1,3
1523010370410794,16,2,-1,2,-2,3,-7,1
1523010370424831,11,-2,-5,-21,-23,-27,-12,-1
1523010370424831,-2,0,-2,-18,-12,20,14,-3
1523010370426836,-80,-13,-2,25,7,5,14,-15
1523010370426836,2,7,0,-16,-35,-19,-34,-3
1523010370447892,51,-5,-2,33,48,25,21,17
1523010370447892,-38,1,-1,-18,-18,-10,-9,-6
1523010370448895,-6,-18,-6,-10,-11,-4,-1,-13
1523010370448895,47,18,4,6,-6,-12,3,9
1523010370460927,-29,-3,-2,-21,-21,0,-14,-3
1523010370460927,30,-1,-4,10,25,5,2,2
1523010370469951,33,16,8,8,8,9,1,6
1523010370469951,-34,-29,-9,-8,2,4,4,-5
1523010370484991,14,6,-1,0,-9,-7,-8,-1
1523010370484991,-8,-1,5,15,21,-3,5,0
1523010370486996,-18,-14,-10,-21,-22,-5,-12,-5
1523010370486996,41,15,5,0,9,1,-1,5
1523010370508053,-16,-3,1,8,12,3,13,0
1523010370508053,-14,-3,-2,5,-12,-4,-6,-5
1523010370509055,27,9,-1,-10,0,0,-3,7
1523010370509055,-9,-7,-6,1,2,5,15,5
1523010370521087,-34,-2,0,-3,-4,-3,-10,-11
1523010370521087,1,3,3,0,-6,3,-4,-2
1523010370536127,3,-7,-5,-7,3,-7,-8,-2
1523010370536127,10,-2,-2,5,7,1,5,-2
1523010370545151,1,22,7,-7,-13,-2,-2,2
1523010370545151,-3,-9,-6,-3,-3,-2,1,1
1523010370547156,-15,-6,-1,-4,-4,6,2,-1
1523010370547156,2,-6,-1,9,6,-4,1,-2
1523010370567210,5,-3,-3,-1,13,-12,-3,-4
1523010370567210,-5,1,-7,-5,-15,3,-3,4
1523010370569215,0,0,3,-3,-10,6,-2,-4
1523010370569215,6,4,5,10,17,-6,1,3
1523010370581247,0,-7,-7,-17,-28,15,5,0
1523010370581247,-9,-10,-3,-8,14,11,4,2
1523010370590271,24,8,1,1,-8,-13,1,8
1523010370590271,0,12,11,5,1,2,0,2
1523010370605311,-15,-17,-2,7,8,-18,-8,-16
1523010370605311,2,15,3,5,-11,-17,-9,0
1523010370606314,11,0,-3,-7,6,7,-1,5
1523010370606314,-33,-21,-8,-6,-1,6,1,-3
1523010370627370,11,2,0,2,1,-1,1,6
1523010370627370,-3,5,1,1,-5,-1,-1,-5
1523010370629375,6,1,-2,-4,5,-3,2,1
1523010370629375,26,4,-2,-2,-2,1,4,0
1523010370641407,17,-2,-3,3,5,1,-5,0
1523010370641407,-33,-12,0,4,-2,6,8,-3
1523010370650431,-21,-5,-2,-10,-14,-13,-11,0
1523010370650431,3,9,1,-7,-13,6,-1,-3
1523010370664468,-2,-6,-2,6,25,-1,10,-6
1523010370664468,4,-1,0,0,7,-7,-18,1
1523010370671488,18,20,7,1,-22,-9,3,4
1523010370671488,-19,-18,-5,-10,6,9,3,-5
1523010370687530,33,27,8,-6,-3,22,26,14
1523010370687530,-29,-7,-7,-19,-39,-26,-37,-18
1523010370689535,-30,-23,-4,63,82,24,11,-1
1523010370689535,71,40,0,-13,-23,-12,-11,2
1523010370701567,29,3,6,5,14,-5,5,9
1523010370701567,-62,-45,-8,-6,-3,7,2,-6
1523010370710591,-18,12,-4,-22,-29,-19,-20,-8
1523010370710591,-52,-14,0,11,7,9,7,-7
1523010370724628,9,-4,-4,-6,-7,-5,-10,2
1523010370724628,56,26,9,0,3,2,7,8
1523010370731647,8,-13,-6,-4,-6,-3,0,-5
1523010370731647,-17,-3,-2,4,8,1,-10,-2
1523010370747690,-4,11,5,-6,-11,-7,5,-4
1523010370747690,5,-2,-2,9,-1,0,3,-5
1523010370749695,-15,-7,-5,-5,6,2,0,0
1523010370749695,9,-10,-6,-5,-1,-2,1,-2
1523010370769748,-31,-10,-3,1,-8,-1,-9,-1
1523010370769748,35,16,5,17,18,5,13,5
1523010370771754,8,12,4,-8,-5,-5,-13,-3
1523010370771754,-8,-4,0,2,-5,-10,-3,-4
1523010370784788,-13,-8,-6,-8,-9,-3,-10,-3
1523010370784788,11,-2,0,6,10,8,8,7
1523010370791807,2,0,-1,-11,-13,0,5,2
1523010370791807,-7,-4,1,-1,0,9,-1,-4
1523010370807850,-8,-4,0,11,-2,-17,-5,-8
1523010370807850,-1,4,-1,-11,1,3,4,-4
1523010370808853,4,-2,-3,-13,-13,12,9,6
1523010370808853,16,9,5,9,32,6,5,10
1523010370829908,-13,-10,-2,5,-22,-12,-6,-4
1523010370829908,-7,-14,-7,3,5,-5,-2,-1
1523010370831914,6,20,11,14,12,-2,2,1
1523010370831914,-2,-4,-15,-28,-23,-7,-7,-6
1523010370843946,-4,-8,-5,-8,7,7,4,5
1523010370843946,16,1,-2,2,-1,-10,-4,-1
1523010370852970,-13,-11,-1,1,0,-2,0,2
1523010370852970,-10,-20,-4,6,2,-4,-1,-1
1523010370868010,-6,12,2,6,5,-1,-5,-6
1523010370868010,15,10,10,1,-4,2,3,2
1523010370869013,0,-9,-9,-14,-6,2,2,-4
1523010370869013,-16,2,0,-1,-4,-4,-2,-4
1523010370890068,-16,-16,1,1,3,4,-1,2
1523010370890068,28,32,10,6,2,1,2,5
1523010370892074,-19,-6,-2,2,-2,-6,-4,-10
1523010370892074,-11,-10,-3,0,-2,-2,-1,-1
1523010370904106,24,7,-4,-1,3,6,0,6
1523010370904106,-20,-3,-6,-1,0,-3,-1,-2
1523010370913130,12,1,2,2,-3,-2,1,4
1523010370913130,-4,-3,1,-3,-6,-4,-1,-7
1523010370928170,11,6,0,0,2,5,1,4
1523010370928170,12,-5,-5,-10,-19,-10,-5,-3
1523010370929172,3,2,-1,-4,17,7,4,0
1523010370929172,0,6,5,17,6,6,4,2
1523010370950228,-21,-17,-2,4,-5,-2,-5,-9
1523010370950228,-11,1,-3,-30,-10,-3,-7,-3
1523010370952234,13,1,0,44,36,-3,22,4
1523010370952234,2,14,2,-23,-19,29,0,3
1523010370964266,57,9,0,17,26,-7,14,4
1523010370964266,29,23,7,31,7,-3,-3,2
1523010370973290,-22,-25,-9,-37,-30,-8,-8,-6
1523010370973290,-57,-18,-4,11,17,11,1,-12
1523010370987327,10,12,4,-9,-29,-3,5,7
1523010370987327,-54,-22,-3,-7,-1,-3,-6,-3
1523010370989332,53,31,-1,-4,-7,-1,6,1
1523010370989332,18,10,2,-1,-11,-14,-23,2
1523010371010388,14,-22,-5,-15,-3,0,-4,-1
1523010371010388,-68,-14,-2,6,6,-9,5,-3
1523010371011391,-11,-10,-2,1,-5,3,-14,1
1523010371011391,21,2,4,-8,-1,1,20,7
1523010371023423,-2,-6,-6,10,12,1,-9,-14
1523010371023423,14,-9,-3,3,3,2,-2,3
1523010371032447,-7,-2,0,-9,-3,-1,5,-2
1523010371032447,27,9,0,8,-5,-10,-4,5
1523010371048490,-1,16,8,-5,-5,-4,-7,0
1523010371048490,-26,-19,-5,-2,0,15,13,-7
1523010371049492,-16,-6,-4,-8,-7,-6,-11,2
1523010371049492,3,4,4,5,5,-5,4,-5
1523010371070548,-26,-8,-4,-1,0,-4,-2,-3
1523010371070548,21,10,0,-10,-10,2,-6,-1
1523010371071551,21,5,2,5,5,1,6,5
1523010371071551,-6,-18,-8,1,-2,-13,0,-1
1523010371092607,-20,19,12,-11,-5,14,1,-4
1523010371092607,25,3,3,13,19,7,1,1
1523010371094613,-9,-5,-8,-10,-9,-8,-6,0
1523010371094613,1,12,5,-4,5,7,7,2
1523010371107647,-9,-11,-10,7,-9,-10,-7,-2
1523010371107647,-1,-8,3,2,-5,3,1,-1
1523010371109653,-5,-6,-3,-3,0,3,-2,-4
1523010371109653,-7,5,8,9,13,-7,-9,-12
1523010371129706,-2,-9,-10,-8,-3,-7,-1,-3
1523010371129706,0,24,17,28,10,-5,-3,1
1523010371131711,10,-2,0,15,1,-3,-2,-1
1523010371131711,11,-9,-29,-64,-23,16,12,13
1523010371143743,-15,-12,0,-1,10,6,2,0
1523010371143743,-4,-9,-5,-7,1,-9,-4,-8
1523010371152767,15,5,5,14,-2,-2,-2,1
1523010371152767,21,32,16,23,10,-7,-4,1
1523010371167807,-59,-25,6,12,6,-2,-3,-9
1523010371167807,26,13,-9,-12,-7,-1,1,4
1523010371169813,-21,-4,2,-10,-5,4,4,-4
1523010371169813,-9,-13,-8,6,-3,-3,-1,-4
1523010371189866,39,12,-2,-5,-2,2,1,13
1523010371189866,-58,-10,-2,-3,-5,-3,-4,-13
1523010371191871,-2,-6,-5,-5,0,4,0,1
1523010371191871,5,-4,2,1,0,-4,-2,-5
1523010371203903,-22,5,1,1,-3,1,0,0
1523010371203903,37,2,-2,-14,-19,-13,-3,1
1523010371212927,10,5,-2,-10,-4,16,2,1
1523010371212927,-2,-6,2,16,-13,7,11,4
1523010371227967,12,12,-1,-17,15,-12,-25,-3
1523010371227967,-11,-20,-6,22,-3,-7,-6,2
1523010371228970,-41,-5,2,18,28,30,26,-11
1523010371228970,11,2,-2,3,-11,-16,-14,1
1523010371250025,36,13,3,-5,0,0,12,6
1523010371250025,-35,-23,-7,-35,-22,-9,-23,-9
1523010371252031,24,13,6,-2,-14,-5,-8,1
1523010371252031,10,-3,-11,10,14,-8,5,-3
1523010371264063,4,-12,-4,15,19,11,23,2
1523010371264063,23,1,5,0,7,-2,-1,3
1523010371273087,-36,-14,3,-9,-14,6,-16,0
1523010371273087,9,13,-6,-11,0,1,-5,-5
1523010371288127,56,35,-5,-10,-16,-17,-12,-3
1523010371288127,-42,-22,-3,4,7,11,22,1
1523010371289130,1,-5,-4,-3,5,-16,-25,-8
1523010371289130,-2,-3,9,-13,-26,-6,-2,7
1523010371310186,-22,-16,-1,30,34,13,6,-4
1523010371310186,-21,13,3,-4,-1,9,4,0
1523010371312191,-8,-3,-8,-10,-21,-14,-2,-5
1523010371312191,-5,-10,-7,1,12,-1,-2,-4
1523010371324223,4,14,14,3,-5,-4,-8,-3
1523010371324223,36,15,-2,1,5,14,7,8
1523010371333247,-1,-6,-6,-8,-5,-9,2,0
1523010371333247,-11,-9,-1,-3,-4,-3,-1,2
1523010371347284,-22,-15,-5,-7,-12,3,-1,-8
1523010371347284,3,0,0,2,7,-2,-3,-2
1523010371349290,7,-1,3,4,4,-6,9,-2
1523010371349290,3,7,-2,-3,-1,-3,-3,-3
1523010371370346,-10,6,8,-5,-5,5,2,6
1523010371370346,3,-8,-14,-5,4,-8,-4,-6
1523010371371349,12,32,15,0,1,-1,3,3
1523010371371349,-6,-18,-2,14,24,3,-5,-1
1523010371383380,-6,-4,-2,-6,-20,2,7,6
1523010371383380,2,-6,-13,-29,-4,32,6,0
1523010371409450,-4,-7,4,32,15,-9,1,-1
1523010371409450,-5,8,-1,-17,-18,-35,-8,-7
1523010371410453,-5,3,-2,-21,-9,16,4,5
1523010371410453,4,-5,5,9,-4,1,2,0
1523010371413460,8,-10,-9,-6,5,-1,-3,0
1523010371413460,0,15,17,31,20,-1,-3,2
1523010371430506,-27,-16,-6,4,-3,-18,-11,-11
1523010371430506,26,0,-9,-15,-3,0,5,8
1523010371431508,-1,11,1,-8,-1,4,1,-2
1523010371431508,-1,-10,0,1,-3,2,0,-1
1523010371443541,17,0,-2,2,2,2,-1,0
1523010371443541,36,18,8,15,7,-3,0,5
1523010371452564,-33,-16,-9,-7,-6,-8,-5,-2
1523010371452564,-45,-18,-7,-16,-10,4,-3,-11
1523010371467604,-23,-6,0,9,8,9,0,-5
1523010371467604,11,-1,0,-4,0,-9,-2,3
1523010371469610,39,7,-1,-13,-2,-7,-2,7
1523010371469610,16,6,2,11,-7,5,3,4
1523010371490665,5,-2,1,1,20,17,7,-3
1523010371490665,-12,-5,1,21,-4,-6,-5,-4
1523010371491669,5,3,-1,-18,-27,-20,-7,-1
1523010371491669,33,14,0,8,31,17,3,2
1523010371503701,-76,-19,-4,-14,-29,-23,2,-4
1523010371503701,27,15,-1,-23,-17,4,15,4
1523010371512724,11,-9,2,61,58,24,-6,4
1523010371512724,-56,-5,0,-7,-8,-10,2,-3
1523010371527764,47,2,0,6,8,-10,-9,5
1523010371527764,-9,12,-4,-13,-9,5,14,-2
1523010371529770,-23,-19,-4,-23,-26,-14,-9,-4
1523010371529770,64,10,2,-4,3,15,0,8
1523010371549823,-13,-7,-10,-8,-5,-7,-3,-7
1523010371549823,-17,8,4,3,-1,-1,4,-7
1523010371551829,31,-10,-1,0,1,2,0,3
1523010371551829,-43,-16,-3,-2,3,5,7,-8
1523010371563860,2,8,2,-19,-26,-6,-14,-1
1523010371563860,47,7,0,22,13,-4,2,4
1523010371572884,-9,12,3,-5,-16,4,-18,2
1523010371572884,-4,-16,-1,4,11,-2,-10,-5
1523010371586922,9,0,-1,1,-8,1,7,4
1523010371586922,-19,-1,1,-7,1,-11,-12,-4
1523010371593940,15,5,-1,-3,5,7,12,6
1523010371593940,-8,-8,-3,-7,-19,-3,4,1
1523010371609983,4,7,1,2,6,2,-2,0
1523010371609983,-28,-17,-3,3,7,-4,-12,-5
1523010371611989,-1,7,2,-10,-11,-3,3,-3
1523010371611989,12,11,4,-2,1,-3,-4,-1
1523010371624021,-4,-2,0,9,7,-4,1,-5
1523010371624021,-4,-3,6,-1,-14,-10,-10,-1
1523010371633045,-6,0,-3,-9,1,-4,5,-1
1523010371633045,-5,5,4,-3,-4,12,6,3
1523010371648085,13,-6,-4,7,12,2,-1,1
1523010371648085,-35,-16,-7,-5,-17,-1,-3,-8
1523010371649087,-6,-3,-4,11,9,-9,-5,-5
1523010371649087,4,5,5,4,9,-14,1,5
1523010371670143,-3,-5,-9,-30,-24,32,3,-2
1523010371670143,8,4,2,-1,-28,-14,2,1
1523010371672149,-7,-3,3,10,6,1,3,-3
1523010371672149,3,-2,-5,-10,12,8,-4,1
1523010371692202,0,-7,-2,10,16,-15,-7,-5
1523010371692202,40,13,5,6,11,-1,-3,6
1523010371694207,-26,0,-3,-6,-9,-1,3,-1
1523010371694207,-40,-14,-1,6,-9,-13,-6,-9
1523010371706239,-3,-3,-3,1,2,0,-1,-1
1523010371706239,6,9,1,1,10,7,0,-1
1523010371715263,15,4,5,1,-6,-3,0,1
1523010371715263,-13,-13,-9,-5,-2,1,0,-3
1523010371730303,-9,1,-1,0,-13,1,2,2
1523010371730303,6,-15,-3,13,28,1,-3,3
1523010371731306,54,19,-2,-3,5,9,3,0
1523010371731306,-53,-14,-6,-32,-33,0,1,-4
1523010371752361,-25,-13,-2,10,9,-3,-6,-5
1523010371752361,5,1,7,-5,-3,-2,10,11
1523010371754367,12,-2,-8,5,21,-11,-10,-5
1523010371754367,38,18,2,38,20,25,7,0
1523010371766399,40,16,2,-37,-73,-23,-8,2
1523010371766399,-59,-12,-2,19,58,20,5,-2
1523010371775423,-10,-24,-8,-28,-25,5,7,-7
1523010371775423,52,17,5,14,-15,-4,20,13
1523010371790463,-47,-9,-1,9,49,-3,-21,-12
1523010371790463,-12,-4,-5,2,-22,-4,-12,-11
1523010371791466,24,15,6,4,-1,-6,1,15
1523010371791466,-64,-19,-6,-13,1,12,-3,-17
1523010371812521,4,-4,2,-2,-17,-11,7,2
1523010371812521,88,21,-1,-12,2,4,6,9
1523010371814527,-36,2,5,3,8,4,2,2
1523010371814527,-53,-40,-10,-14,-10,-16,-16,-8
1523010371826559,2,2,1,3,-3,4,12,6
1523010371826559,8,10,-7,2,5,11,-12,-7
1523010371833577,15,1,1,10,14,6,10,4
1523010371833577,49,11,5,-5,-4,-2,11,11
1523010371850623,-40,-13,-4,-3,3,-1,-2,-12
1523010371850623,-13,-16,-4,-5,-16,-10,-9,0
1523010371851626,-7,-5,-6,-9,-10,1,-2,-4
1523010371851626,-14,5,0,7,7,-19,-20,-10
1523010371872681,25,13,0,6,7,16,9,13
1523010371872681,-6,-5,-2,-2,3,-6,8,-7
1523010371874687,1,-10,-7,-7,-14,-1,-15,-6
1523010371874687,23,20,2,-8,-3,-1,9,7
1523010371886719,32,3,4,15,9,1,-1,0
1523010371886719,-77,-23,-2,2,1,-3,4,-3
1523010371893737,-11,10,3,2,-9,-3,2,3
1523010371893737,20,-17,-6,0,-6,-1,-8,0
1523010371909780,27,13,2,4,13,6,5,3
1523010371909780,-1,-7,-1,-6,-5,2,0,1
1523010371911786,-48,-2,2,-1,-5,-5,-6,-12
1523010371911786,8,-4,0,1,0,-2,-3,3
1523010371932841,14,-4,1,6,9,-1,0,-4
1523010371932841,-7,15,-2,-9,-15,-4,-7,-2
1523010371933844,0,7,7,-2,1,-4,-1,-1
1523010371933844,26,12,-6,9,6,-20,0,6
1523010371946879,-20,-7,0,-5,8,24,4,-2
1523010371946879,-13,-27,-18,-35,-42,12,-6,-8
1523010371953897,20,6,1,4,4,4,8,1
1523010371953897,-11,13,16,11,-1,-8,-5,-1
1523010371969940,-8,2,0,7,12,-25,-12,-5
1523010371969940,22,10,-5,-3,11,3,0,4
1523010371971946,-15,-30,-9,10,-16,-11,-1,-4
1523010371971946,-4,-5,-1,-4,1,6,-4,-7
1523010371993002,17,3,-10,-13,-7,31,14,14
1523010371993002,12,23,13,4,-9,-3,6,4
1523010371994004,-26,-12,-3,-5,6,-4,-2,-8
1523010371994004,-33,-3,0,3,-3,-10,-4,-3
1523010372007039,-1,-4,-4,12,15,-11,-8,-4
1523010372007039,34,-3,2,8,11,-7,0,6
1523010372014057,-41,-14,-10,-7,-6,5,-1,-2
1523010372014057,26,17,4,-10,-5,5,1,7
1523010372030100,21,-6,0,-3,-5,2,0,-3
1523010372030100,-47,-11,0,-4,-13,-7,-2,-6
1523010372032106,25,6,0,1,16,-5,-7,0
1523010372032106,-27,-4,2,3,14,14,2,-6
1523010372053161,-13,0,-8,-13,-17,-2,3,6
1523010372053161,16,0,2,4,11,-10,-6,-1
1523010372055167,12,6,5,-16,-25,-2,2,0
1523010372055167,27,2,-4,16,12,11,13,9
1523010372067199,4,7,4,-18,-28,-26,-14,-3
1523010372067199,-30,-15,-8,-5,-17,4,4,-3
1523010372074218,26,14,8,6,8,11,9,5
1523010372074218,-36,-32,-14,16,40,14,5,-8
1523010372090260,1,1,-6,9,-5,-6,-21,-10
1523010372090260,-33,-3,-2,-25,-13,-7,-4,-2
1523010372092266,28,15,2,-6,-9,-9,9,3
1523010372092266,-30,-14,1,4,-11,7,-20,-8
1523010372112319,21,-2,-8,-13,-12,-1,10,-4
1523010372112319,17,-1,-4,8,6,-3,-5,-1
1523010372114325,17,8,-3,0,9,13,4,5
1523010372114325,22,2,6,-14,-17,-8,-1,0
1523010372126356,-64,-22,3,5,11,3,7,2
1523010372126356,21,15,0,6,6,-1,-11,-7
1523010372135380,-15,-9,-3,7,0,-2,-1,3
1523010372135380,20,1,-1,-14,-16,-8,-8,-7
1523010372150420,21,-3,-6,3,3,8,-1,2
1523010372150420,1,4,8,18,18,1,8,9
1523010372151423,-29,-10,3,-2,-5,-4,-7,-6
1523010372151423,-5,1,-7,-10,-9,1,3,-3
1523010372172479,7,-2,1,1,3,-7,-1,-1
1523010372172479,17,9,4,10,12,2,7,3
1523010372174484,-10,-9,-11,0,2,-1,-12,-7
1523010372174484,18,15,0,-13,-18,-10,-2,8
1523010372186516,-14,7,18,1,1,1,5,0
1523010372186516,-14,-10,-5,1,5,-1,0,-4
1523010372195540,-14,-14,-5,-5,-6,11,-5,-3
1523010372195540,13,1,-3,7,11,-11,5,3
1523010372210581,6,3,-9,-10,-9,-3,-3,-2
1523010372210581,-3,2,6,5,-3,9,0,3
1523010372211583,18,7,5,1,2,-17,2,2
1523010372211583,-19,-8,-7,-13,-22,-6,-4,-8
1523010372232639,-5,3,5,18,44,-14,-7,-2
1523010372232639,-2,-10,-15,-29,-38,2,-3,-5
1523010372234644,8,-7,-6,-6,13,40,14,5
1523010372234644,20,18,10,2,-6,-12,1,4
1523010372246676,-20,-4,2,7,-3,-7,-7,-6
1523010372246676,-16,-2,3,14,20,-14,-5,-2
1523010372255700,7,4,-1,-4,-7,-11,-8,-5
1523010372255700,-16,-9,-8,-6,-1,8,4,-2
1523010372269737,9,7,-1,2,2,1,5,7
1523010372269737,34,13,6,1,1,-3,-2,2
1523010372276756,-104,-31,-7,-7,-20,-15,-12,-25
1523010372276756,39,2,1,8,28,22,5,9
1523010372292799,1,6,0,-10,-36,-5,7,0
1523010372292799,49,6,1,20,33,4,-3,5
1523010372294804,0,4,-3,2,-2,-7,-5,-4
1523010372294804,-3,1,-5,5,18,-7,-23,-6
1523010372314857,41,7,-1,-26,-32,16,7,0
1523010372314857,-15,0,1,-3,-12,-14,1,2
1523010372316863,6,-3,3,12,9,8,24,6
1523010372316863,-111,-32,-5,-3,-3,-2,-12,-15
1523010372329897,89,34,-3,-6,-6,-19,-3,12
1523010372329897,14,-10,0,-7,-8,23,-21,1
1523010372335913,38,5,2,8,31,-6,-5,11
1523010372335913,2,7,2,6,-1,4,21,0
1523010372352959,13,-10,1,4,5,5,3,-1
1523010372352959,-68,-9,-4,2,3,-11,-11,-19
1523010372353961,-30,-6,-5,1,4,0,6,-6
1523010372353961,42,10,-2,-11,-10,3,1,9
1523010372375017,1,-10,-2,-1,5,-4,-9,-4
1523010372375017,36,25,7,4,-3,6,17,7
1523010372377023,-33,-5,-1,1,-2,1,-10,-1
1523010372377023,38,-10,-2,-7,-13,-6,-5,-6
1523010372390057,-45,-1,0,4,5,0,4,-3
1523010372390057,-23,-19,-10,-1,7,-1,1,-4
1523010372392063,13,8,-2,1,-10,-4,-3,4
1523010372392063,10,4,1,-2,0,0,2,-2
1523010372413119,-30,-13,-1,3,9,4,0,0
1523010372413119,5,-4,-3,-11,-18,-6,0,-1
1523010372414121,17,6,0,3,9,-3,-5,-3
1523010372414121,10,9,5,-1,-7,-1,2,4
1523010372435177,-9,-10,3,8,11,6,-2,-2
1523010372435177,-18,-1,-1,-8,-3,-7,-1,-1
1523010372437183,28,5,-2,-12,-21,0,4,8
1523010372437183,-9,-12,-3,0,-3,-4,-3,-8
1523010372450218,-5,3,0,6,3,-1,1,-4
1523010372450218,12,1,-2,1,2,-9,-1,-2
1523010372452223,15,-3,-3,-5,-4,-2,-1,1
1523010372452223,14,-2,-3,-6,1,22,5,5
1523010372472276,-7,-6,-3,2,-8,-4,-2,-3
1523010372472276,15,4,1,3,0,-4,2,2
1523010372474282,9,1,0,3,-2,-7,-4,1
1523010372474282,1,0,-4,-2,-1,-8,-3,-2
1523010372486313,11,0,5,2,4,3,0,-4
1523010372486313,17,0,3,3,2,8,3,3
1523010372495338,32,5,-2,-6,-3,-1,-6,-6
1523010372495338,7,5,1,2,-3,-1,3,9
1523010372510377,-5,-2,-5,-3,-3,-2,-2,-4
1523010372510377,-69,-4,5,2,2,-2,4,-4
1523010372511381,-42,-13,-2,-1,-1,-2,-5,-8
1523010372511381,-29,6,0,-1,0,-1,2,7
1523010372532436,-62,-8,-5,-7,-4,-3,-3,-9
1523010372532436,4,17,2,3,1,-2,0,6
1523010372534442,-13,-3,1,-2,2,3,2,2
1523010372534442,17,12,1,-3,-2,-1,1,2
1523010372555498,-29,-7,-3,-6,-4,-4,-2,-2
1523010372555498,3,-8,-2,-4,-10,-1,-1,1
1523010372556500,-20,4,1,6,17,1,-1,-4
1523010372556500,15,6,0,8,5,-9,-4,0
1523010372569535,17,6,1,-12,-27,-1,2,6
1523010372569535,-17,-7,-5,-1,21,1,-4,-6
1523010372576553,25,2,3,22,18,10,4,1
1523010372576553,-12,-4,-1,-10,-4,-4,-5,-1
1523010372592596,1,3,1,4,-4,0,-1,-1
1523010372592596,3,-4,-5,-14,-28,-11,-5,-3
1523010372594601,1,3,-1,-11,-9,3,8,0
1523010372594601,26,-11,-2,-6,6,5,6,8
1523010372615658,-27,-3,-1,6,1,-3,-6,-7
1523010372615658,50,12,0,-12,-9,-3,2,7
1523010372616660,-10,1,-1,6,-8,-5,7,-7
1523010372616660,-60,-28,-5,9,12,9,1,-10
1523010372629694,80,44,3,-2,-5,-3,0,18
1523010372629694,-18,-22,-3,-1,2,-2,1,-5
1523010372636713,-24,-10,-2,-11,-17,-8,-12,-4
1523010372636713,3,6,2,2,-13,-5,-5,-2
1523010372652756,-7,-9,0,11,21,7,2,-4
1523010372652756,18,14,0,10,11,4,0,4
1523010372654762,8,-1,-4,-11,-2,-3,-3,-1
1523010372654762,-5,0,-2,-10,-16,-4,-2,-2
1523010372674815,-11,-7,-1,4,7,2,-1,-2
1523010372674815,8,3,-2,5,3,2,-1,0
1523010372676820,-7,-8,-4,-9,-2,-15,-9,-5
1523010372676820,7,4,-1,-1,-5,4,0,-1
