timestamp,emg1,emg2,emg3,emg4,emg5,emg6,emg7,emg8
1523010106918541,-3,33,-6,1,10,7,9,-7
1523010106918541,-19,-18,-5,2,4,-2,-3,5
1523010106919548,12,16,8,-3,6,2,-3,-4
1523010106919548,4,-24,-3,5,-4,-11,-21,-22
1523010106920552,5,12,1,-1,3,9,26,1
1523010106920552,13,-4,-4,-1,-6,-11,-12,-18
1523010106923555,20,-51,-14,-3,2,2,-2,15
1523010106923555,-17,14,14,1,-3,2,-2,-26
1523010106930573,14,10,-8,0,5,8,4,12
1523010106930573,10,-3,-3,-2,7,6,7,10
1523010106940600,-9,6,1,3,-5,-11,-14,-26
1523010106940600,-11,-46,-6,-5,-1,-10,3,4
1523010106945613,15,49,4,-2,-16,-23,-28,0
1523010106945613,3,5,-4,-4,1,24,21,-4
1523010106960654,32,-9,3,5,5,8,11,12
1523010106960654,-1,-3,0,-3,2,6,-4,-4
1523010106970689,-2,-9,-9,2,0,-5,-2,-1
1523010106970689,7,35,13,1,-4,-6,-18,-4
1523010106985720,-6,-5,-7,-4,-3,-5,-1,-5
1523010106985720,-7,7,17,5,2,4,17,10
1523010106991736,14,0,-12,-2,-3,9,1,6
1523010106991736,-14,-23,-8,-3,-7,-15,-12,-3
1523010107004771,-14,6,3,3,-2,11,7,-6
1523010107004771,-17,-9,1,-1,8,20,-11,-5
1523010107047885,-8,0,4,-2,-1,-38,-15,-4
1523010107047885,-1,-39,1,-4,-7,25,16,12
1523010107051896,0,0,-8,1,2,-4,15,3
1523010107051896,-2,23,2,0,-2,5,0,-3
1523010107051896,-3,1,1,3,3,-5,-4,-1
1523010107051896,2,-23,1,3,-1,-14,-17,-15
1523010107052899,7,20,-11,-6,-4,8,6,17
1523010107052899,-8,7,9,5,7,9,3,3
1523010107057912,9,5,-5,-6,-3,0,0,-2
1523010107057912,-28,-30,-4,-1,1,-1,3,7
1523010107064931,0,16,0,3,-5,-6,-11,-5
1523010107064931,18,5,-7,-5,-4,-5,21,12
1523010107072952,4,-5,3,-1,0,2,0,9
1523010107072952,-19,-11,3,-4,-3,4,-4,-5
1523010107087992,0,6,-3,1,2,6,-11,-2
1523010107087992,-1,6,-14,-4,-5,-8,-14,-15
1523010107095011,3,-5,5,2,0,2,1,-1
1523010107095011,17,2,7,6,15,21,-11,-9
1523010107119075,6,27,10,-4,-15,-55,-7,3
1523010107119075,-1,4,1,0,2,24,23,23
1523010107120078,6,-18,-8,-2,1,12,16,-1
1523010107120078,1,-5,0,4,3,1,-10,-15
1523010107133112,-20,0,-8,-4,3,-4,3,10
1523010107133112,3,-12,-10,-1,-3,-14,-19,-17
1523010107134115,-5,-9,-1,-7,-6,9,-10,-11
1523010107134115,16,6,22,3,-1,-2,23,35
1523010107156173,-10,15,4,4,5,13,-3,-21
1523010107156173,-7,-21,-19,-4,-6,-29,-21,-12
1523010107156173,-17,22,23,1,3,6,7,10
1523010107156173,-2,-14,-11,-4,-2,0,-3,-6
1523010107179234,4,2,-6,4,8,10,1,1
1523010107179234,13,0,-7,-6,-14,-30,-5,12
1523010107180238,-11,-13,4,-3,-2,17,-2,-4
1523010107180238,-10,1,0,-3,-5,6,11,-2
1523010107193272,-8,4,1,4,12,8,9,7
1523010107193272,8,19,7,-3,6,5,-14,-15
1523010107194275,0,-19,-14,7,3,-18,6,17
1523010107194275,-12,10,3,-9,-13,3,9,7
1523010107215330,9,-6,1,-1,2,15,-3,1
1523010107215330,6,-9,1,1,-3,-4,-12,-10
1523010107216333,-5,-2,-8,1,5,-4,8,3
1523010107216333,-25,-11,-13,-6,-1,-4,-2,-4
1523010107239394,12,11,9,6,-6,-16,-3,-4
1523010107239394,7,-1,-8,-7,-7,15,-1,0
1523010107239394,-13,1,16,-2,-8,2,-7,0
1523010107239394,-16,-4,-9,6,2,-21,-17,-14
1523010107253432,15,-7,-5,-4,10,32,20,19
1523010107253432,-10,5,10,-1,-11,-14,2,1
1523010107254435,10,-11,-12,-5,-4,4,0,-6
1523010107254435,13,3,2,2,2,-27,-11,-8
1523010107275491,-13,-7,-9,-3,-2,2,-22,-23
1523010107275491,4,7,12,-1,0,23,32,40
1523010107276494,15,1,-4,-3,9,-6,-1,17
1523010107276494,-15,-4,-5,-9,-25,-7,-9,-31
1523010107298552,-4,-20,-7,-1,1,9,-2,-4
1523010107298552,-6,19,11,9,4,5,10,-15
1523010107299554,-42,4,4,4,11,1,8,0
1523010107299554,31,7,-2,2,-1,-18,-5,7
1523010107313592,3,-6,-3,-5,-7,-2,-9,-1
1523010107313592,-11,-9,-9,3,5,3,-17,-3
1523010107314595,8,7,5,0,-5,-6,0,-1
1523010107314595,6,-3,4,-6,1,10,15,6
1523010107335651,1,30,6,0,-5,-14,-3,0
1523010107335651,2,-8,-2,-3,2,-2,-3,7
1523010107336654,10,-2,-10,-1,-1,2,-21,-15
1523010107336654,-10,-3,-5,-6,-18,8,18,5
1523010107358712,18,-21,-6,-5,10,-7,12,20
1523010107358712,-26,8,8,11,8,-14,-24,-26
1523010107359715,-12,-23,-16,8,15,3,-23,-17
1523010107359715,8,6,1,1,3,10,9,1
1523010107373752,-10,2,0,-10,-14,1,6,4
1523010107373752,-12,3,-5,-13,-7,-8,-13,1
1523010107373752,11,-11,-3,-1,-9,-7,-4,-2
1523010107373752,35,14,5,-2,17,3,5,12
1523010107395810,-21,-12,-7,6,8,6,3,-13
1523010107395810,1,-34,-9,-10,-7,-4,-3,7
1523010107396813,19,33,15,9,8,3,-10,-13
1523010107396813,-2,-1,1,2,11,2,23,11
1523010107417869,4,1,-5,-3,-9,-1,4,-7
1523010107417869,3,20,6,9,20,1,6,11
1523010107418872,16,0,-2,-6,-25,-14,6,-13
1523010107418872,10,6,3,4,9,9,-10,5
1523010107432909,-3,1,-6,-10,-2,-10,-17,-9
1523010107432909,-10,-25,-1,3,-5,-11,9,-20
1523010107433913,18,-32,-10,-13,-6,6,18,12
1523010107433913,-8,22,6,2,-4,6,-7,-17
1523010107455970,-9,13,6,-1,3,-6,0,9
1523010107455970,-5,2,3,6,19,19,10,-3
1523010107456973,6,-16,-2,-2,-2,0,9,18
1523010107456973,-8,-27,-15,-5,-6,-12,-25,-3
1523010107478029,-7,51,18,9,-1,-10,-23,-9
1523010107478029,-1,-2,-6,-10,-20,2,41,10
1523010107479032,-37,-35,-6,-1,2,5,-3,-20
1523010107479032,-3,9,5,5,-1,-8,-18,9
1523010107493069,-5,-3,-3,1,3,-1,0,5
1523010107493069,5,-20,-8,-2,2,-1,-15,-5
1523010107501091,-4,7,1,-4,-11,3,11,-7
1523010107501091,-20,-18,-5,3,-13,-28,-31,-2
1523010107516130,2,-2,-1,-7,-28,2,-9,-6
1523010107516130,4,1,1,-3,9,28,23,4
1523010107516130,-6,-28,-5,0,6,-4,-16,-5
1523010107516130,-7,69,20,12,13,1,1,-8
1523010107538189,-6,-33,-5,5,-12,-13,5,-12
1523010107538189,5,6,-3,-6,3,3,-10,13
1523010107539192,-7,6,4,-1,0,4,7,11
1523010107539192,2,-27,-15,-6,8,-8,-13,-8
1523010107552227,15,-7,-2,-6,-22,5,8,10
1523010107552227,-3,-6,3,2,5,-2,-9,-14
1523010107561251,-13,30,6,5,3,-9,-10,-8
1523010107561251,-4,-17,-6,-8,-9,-5,2,5
1523010107576291,3,17,4,8,13,9,9,5
1523010107576291,-4,-19,-5,-3,53,7,4,2
1523010107576291,4,8,6,2,-46,4,5,7
1523010107576291,12,-21,-7,-5,-4,3,5,-3
1523010107598349,-5,6,4,-4,-4,-13,-14,-6
1523010107598349,-1,10,9,4,-10,-5,-20,6
1523010107599352,-17,-2,-8,-4,24,7,20,-10
1523010107599352,-15,6,1,0,13,17,19,-5
1523010107612387,11,-39,-7,-4,-14,-5,-12,-1
1523010107612387,-2,11,4,2,-5,-16,-21,5
1523010107620408,13,12,2,-5,-23,1,2,9
1523010107620408,-11,0,0,1,-7,11,8,-5
1523010107635448,2,-10,-6,-7,19,17,44,-6
1523010107635448,-11,-15,-4,-3,-14,-11,-12,-7
1523010107636451,1,-18,-5,2,11,-13,-21,-5
1523010107636451,13,9,-6,-3,18,-1,13,17
1523010107658509,2,22,14,7,-24,2,2,5
1523010107658509,-6,-1,-1,2,-9,-2,-7,-6
1523010107659512,2,-18,-1,0,-14,-3,-7,-1
1523010107659512,8,24,1,-1,21,1,-15,4
1523010107672546,-10,6,0,1,1,-11,-12,-16
1523010107672546,12,-20,1,-3,4,10,33,8
1523010107680568,9,23,7,7,18,3,-5,12
1523010107680568,8,-31,-8,-12,-30,-12,-16,8
1523010107695608,-11,-9,0,-1,-3,2,5,-9
1523010107695608,4,12,0,2,-15,-9,-16,-12
1523010107696611,-12,-16,-6,-5,28,2,-6,-16
1523010107696611,10,-14,0,5,-20,-5,4,5
1523010107718669,-9,1,-1,-4,25,7,9,3
1523010107718669,-9,11,-1,4,2,1,5,7
1523010107718669,3,13,-3,-1,-21,-7,-8,-20
1523010107718669,5,-13,-3,0,-15,0,-10,1
1523010107732706,-6,2,-3,-10,-3,-3,-5,-1
1523010107732706,10,-17,-5,1,-6,-1,-2,-4
1523010107740728,-30,4,2,-1,12,-1,4,3
1523010107740728,2,15,1,1,1,-2,-7,3
1523010107755768,4,-24,-3,2,-8,-5,-3,-5
1523010107755768,-1,4,1,-5,10,-7,-14,-7
1523010107756771,5,-2,2,2,-3,10,21,5
1523010107756771,5,1,-2,0,4,4,9,2
1523010107778829,-9,-12,-1,8,19,-1,6,-6
1523010107778829,-8,-5,-2,-5,-21,-1,-2,1
1523010107779832,13,12,0,-1,-15,-17,-24,-13
1523010107779832,-15,-16,-3,-3,5,7,20,-3
1523010107792866,-4,10,3,-2,8,8,-4,7
1523010107792866,14,-5,-2,2,4,1,2,6
1523010107800888,-8,-15,-2,-1,-5,4,6,8
1523010107800888,7,10,1,0,-1,5,8,-1
1523010107815928,-1,-4,-3,0,-6,-11,-23,-11
1523010107815928,-3,-9,-2,-3,-4,0,3,4
1523010107816931,9,0,0,-1,7,0,-2,5
1523010107816931,-5,10,0,2,-6,-10,-14,-8
1523010107837987,10,-34,-8,-2,20,11,13,9
1523010107837987,-18,25,8,0,-19,-1,-6,-4
1523010107838990,9,7,0,-4,-10,1,6,1
1523010107838990,-3,-15,-2,1,7,-6,17,-10
1523010107853033,-12,15,2,3,-2,-1,2,4
1523010107853033,1,2,-3,-2,8,-1,1,-5
1523010107861048,8,6,1,-2,0,-6,-23,4
1523010107861048,-7,4,-3,0,5,-6,-9,-6
1523010107876088,6,-21,-5,-10,-34,-3,5,-7
1523010107876088,-4,-27,-5,1,-2,5,21,-6
1523010107877091,-11,21,1,1,6,1,-1,-4
1523010107877091,8,8,2,4,-2,-3,2,2
1523010107899149,-3,1,-5,-2,1,-8,-12,9
1523010107899149,11,-37,-4,-4,1,-4,-15,-2
1523010107899149,-11,46,15,4,-6,4,15,13
1523010107899149,-9,-10,-3,1,19,12,20,-9
1523010107921208,-10,11,2,1,-7,-9,-11,-9
1523010107921208,-9,-13,-6,-9,-24,-7,-7,-1
1523010107922214,18,-19,1,0,14,2,-2,17
1523010107922214,-3,4,4,-2,-9,-6,-22,-3
1523010107936249,-5,23,1,1,10,-6,-2,-10
1523010107936249,1,13,-2,1,4,1,-2,8
1523010107936249,-16,-25,-5,-5,-3,-4,16,2
1523010107936249,-11,18,0,0,17,12,1,-14
1523010107958307,24,-40,-4,-4,-20,-6,-2,17
1523010107958307,-10,13,0,-3,1,2,-5,3
1523010107959310,-11,-46,-14,-6,-7,-10,0,-25
1523010107959310,-15,47,16,5,2,7,12,11
1523010107981368,23,13,2,8,14,3,-11,-6
1523010107981368,32,10,-1,3,-7,-12,-2,14
1523010107982371,-18,-27,-4,5,17,11,-9,-11
1523010107982371,-23,-25,-6,-2,-5,3,19,-11
1523010107995405,20,-17,-7,-4,6,3,3,18
1523010107995405,17,23,8,1,-5,1,4,-1
1523010107996408,43,-22,-3,-2,0,1,11,9
1523010107996408,-4,-35,-10,-3,1,-13,-24,-13
1523010108017464,-21,28,12,2,-9,-5,-5,-8
1523010108017464,8,-7,-1,0,0,9,16,0
1523010108026488,6,1,-1,-2,-1,0,0,4
1523010108026488,17,10,-3,-1,-5,2,2,2
1523010108041528,8,11,2,-3,5,0,-5,-3
1523010108041528,-26,-17,-6,2,4,-13,-5,-16
1523010108043533,7,3,7,-2,-6,6,-5,-9
1523010108043533,11,18,-2,-3,-6,-3,-4,10
1523010108063586,13,-5,-10,-5,-5,-7,13,7
1523010108063586,-13,11,5,8,19,12,0,-7
1523010108065592,-20,-22,-6,1,14,-8,-1,-12
1523010108065592,8,-19,0,-6,-16,10,-10,12
1523010108077624,-2,-6,1,3,4,3,-3,-3
1523010108077624,-14,9,9,-1,-5,-2,4,-8
1523010108086648,1,0,-1,-2,-5,10,-1,1
1523010108086648,9,-3,-6,0,2,-22,-8,-3
1523010108101688,-8,5,-5,-2,-4,7,4,11
1523010108101688,-4,-15,-2,-2,-7,-7,-2,-8
1523010108102691,-10,-8,-1,0,0,-1,-8,-12
1523010108102691,10,20,2,1,1,2,5,9
1523010108123746,-13,-13,-13,-4,-5,2,13,4
1523010108123746,9,3,6,-2,4,-6,3,4
1523010108125752,10,-1,-1,-3,-9,-9,-3,5
1523010108125752,-23,6,4,-3,-4,-4,-15,-11
1523010108137784,0,-5,-4,2,6,0,8,11
1523010108137784,0,5,9,2,0,13,-1,-3
1523010108146808,-8,-8,4,-2,-8,-2,0,-8
1523010108146808,9,17,-3,-3,0,-2,10,5
1523010108159842,3,-1,-3,3,3,21,-13,-4
1523010108159842,-24,-3,-2,-2,-4,-15,2,-12
1523010108168866,14,3,7,1,-4,0,4,10
1523010108168866,5,-5,-7,0,0,8,-12,-13
1523010108183906,-16,-3,-9,-7,1,-15,-1,3
1523010108183906,7,-17,-10,-5,1,11,10,9
1523010108185912,-11,0,10,3,-2,-1,2,0
1523010108185912,-4,1,0,0,-1,1,-14,-16
1523010108197944,-5,2,-1,0,0,-24,3,6
1523010108197944,4,-17,-9,-5,1,20,3,10
1523010108206968,-6,17,16,0,-3,-6,4,-9
1523010108206968,-11,-7,-4,2,2,2,1,7
1523010108221005,5,6,-3,-2,-1,-1,-12,-9
1523010108221005,11,2,2,2,-2,-13,-7,-1
1523010108228024,1,-11,-12,-2,4,9,0,0
1523010108228024,-7,9,7,-1,0,1,6,2
1523010108244066,-18,5,10,1,-2,-3,-5,-7
1523010108244066,-2,-4,-9,-2,-3,9,-11,-6
1523010108246072,10,-14,-2,1,2,-2,13,16
1523010108246072,5,-2,-5,-2,-4,10,7,3
1523010108258104,-6,-6,-4,3,9,4,-1,-5
1523010108258104,7,6,5,0,-5,-10,-10,-3
1523010108267128,-16,0,-4,-1,8,8,-15,-10
1523010108267128,-1,-4,-10,-7,-13,-15,3,2
1523010108281165,16,15,8,-1,1,9,5,3
1523010108281165,-9,-12,7,3,4,-2,-2,-14
1523010108295202,-2,7,-3,-2,-4,-5,-2,2
1523010108295202,0,-4,-2,1,-1,-9,-4,-3
1523010108304227,-1,1,-6,-4,-3,1,-7,-4
1523010108304227,-3,9,8,2,1,-1,8,8
1523010108305229,-6,-6,-1,-5,-4,-5,-9,-9
1523010108305229,3,9,-7,3,6,7,-7,-5
1523010108317261,-4,-20,0,0,-2,6,16,7
1523010108317261,-1,-2,-15,-5,-4,-7,5,4
1523010108326285,-19,0,14,4,-1,4,8,5
1523010108326285,1,19,-2,-2,0,-4,-6,-7
1523010108341326,-2,-12,-11,-2,0,-8,-3,-3
1523010108341326,7,-9,-1,-5,-1,-6,-6,8
1523010108347341,10,9,1,1,-5,3,-1,-3
1523010108347341,-7,2,1,8,4,6,9,11
1523010108364387,2,-6,4,-1,0,-1,-3,-8
1523010108364387,-2,-2,-4,-3,-1,3,-1,-3
1523010108365389,10,1,-6,-4,-10,-27,-12,0
1523010108365389,-4,-4,0,4,0,2,-5,3
1523010108377421,7,-8,-1,2,2,7,19,8
1523010108377421,-3,-1,-7,1,-1,-4,-8,-8
1523010108386446,-5,14,3,-9,-4,4,4,4
1523010108386446,7,-1,5,1,0,-5,2,4
1523010108400482,2,0,-1,5,-1,-3,-10,-5
1523010108400482,-11,-16,-5,3,4,0,-7,-7
1523010108407501,-10,5,4,4,4,-14,8,5
1523010108407501,-1,-1,1,-10,-15,5,12,3
1523010108423544,-2,0,-6,-11,1,4,-9,-12
1523010108423544,4,1,4,5,0,0,0,1
1523010108425549,5,-15,-8,0,1,6,3,3
1523010108425549,9,30,9,0,6,-6,2,6
1523010108446605,-8,-19,-6,-2,-2,-4,-3,-2
1523010108446605,-4,-5,-6,-9,-7,-3,-4,2
1523010108448611,-6,-12,-10,-7,-4,-4,-12,-6
1523010108448611,-2,1,-5,-2,11,0,2,-9
1523010108460642,5,19,12,1,-17,-1,0,-4
1523010108460642,1,1,-2,1,-2,0,3,-5
1523010108467661,20,-10,-5,1,-3,-3,4,1
1523010108467661,2,-9,-5,-2,3,-4,-9,-9
1523010108483704,-12,-2,2,-7,3,6,16,4
1523010108483704,-6,-1,4,5,-5,-13,3,3
1523010108485709,0,-5,-1,8,4,5,-16,-7
1523010108485709,14,-14,-4,-6,-6,-6,2,1
1523010108506765,-2,23,8,7,11,-2,-6,-13
1523010108506765,2,8,3,4,-1,6,7,2
1523010108507768,8,-8,-7,-4,-2,0,1,4
1523010108507768,20,5,4,0,2,-6,-8,8
1523010108520802,-10,-5,-1,-3,-2,-7,-14,-8
1523010108520802,-9,-9,-1,1,3,9,9,3
1523010108527821,-3,-6,-5,-4,0,5,0,-3
1523010108527821,18,-6,-5,-4,-2,5,17,19
1523010108543864,4,-6,3,-1,-2,-1,-3,6
1523010108543864,1,4,4,6,14,-2,2,1
1523010108545869,-11,2,0,3,-16,-4,-17,-18
1523010108545869,-10,4,-9,-18,-21,-6,0,-8
1523010108566925,11,-8,2,9,22,6,-19,3
1523010108566925,1,-18,-5,-5,-1,-4,2,-4
1523010108567928,11,26,6,1,1,6,26,23
1523010108567928,-27,11,6,6,3,3,3,-17
1523010108579960,-15,-11,-3,-2,-24,-16,-25,-19
1523010108579960,-8,-7,-10,-11,4,13,8,-5
1523010108588984,17,-13,-4,1,1,-1,-12,-7
1523010108588984,-1,34,4,1,3,0,-4,13
1523010108604024,-12,-21,-6,-4,-1,-4,5,-19
1523010108604024,3,-6,-4,-1,-1,-7,-11,-6
1523010108606029,-2,-3,-2,-4,-12,-4,8,13
1523010108606029,-12,-18,-7,0,1,0,-12,-5
1523010108627085,2,-9,2,-1,4,-1,-4,5
1523010108627085,5,41,13,2,-18,-2,13,12
1523010108628088,4,-3,-5,-2,35,10,-6,-6
1523010108628088,-14,8,6,9,-16,-4,-3,-7
1523010108640120,8,-20,-7,-4,2,-8,11,0
1523010108640120,-12,-16,-6,-2,0,2,-5,-3
1523010108649144,-3,3,1,-1,-10,10,6,3
1523010108649144,3,-18,-11,-13,-6,-9,-10,13
1523010108664184,-4,-5,2,5,4,9,6,-25
1523010108664184,-15,35,8,2,1,-4,0,-19
1523010108665187,-1,8,-7,-3,0,-4,-2,5
1523010108665187,-1,-29,-9,-1,4,1,-9,6
1523010108687245,18,47,14,1,-11,-4,0,24
1523010108687245,-2,-19,-6,-1,5,-1,-17,-1
1523010108689251,-13,13,5,1,1,-4,-6,-22
1523010108689251,-1,14,3,4,-11,3,16,7
1523010108700280,2,-17,-6,-11,8,1,-10,13
1523010108700280,21,-11,3,5,20,14,22,13
1523010108709304,-2,-1,-3,0,-30,-1,11,-2
1523010108709304,-8,3,0,-3,-11,-2,9,-3
1523010108724344,-9,2,-2,3,2,2,1,-8
1523010108724344,12,2,-4,-11,-15,-15,-26,9
1523010108726349,-5,22,1,5,24,-6,-11,-13
1523010108726349,-6,-15,0,1,13,17,21,-1
1523010108746402,-22,-36,-2,-3,-8,7,1,-10
1523010108746402,15,40,10,8,-1,-6,-10,-4
1523010108748408,-14,4,-8,-7,-14,-6,-5,6
1523010108748408,19,-2,5,2,6,-6,-10,12
1523010108760440,3,-2,-9,-7,6,1,15,6
1523010108760440,-22,-21,-5,0,-16,-5,-20,-32
1523010108769464,12,-11,-3,-4,10,7,8,10
1523010108769464,0,34,5,-7,-10,-9,-6,-8
1523010108784504,-15,-24,6,13,33,2,-12,-13
1523010108784504,-2,-8,-4,-1,-19,3,7,-8
1523010108785507,0,3,-2,-4,-25,-3,14,6
1523010108785507,9,-36,1,2,38,18,-9,-19
1523010108806562,-4,28,7,-5,-19,-7,5,31
1523010108806562,-6,0,-1,-1,6,-18,-26,-46
1523010108812578,-31,-16,-2,4,4,-11,-20,3
1523010108812578,17,33,4,0,-21,-11,-9,-1
1523010108820600,-25,-34,-12,-3,-1,7,27,-25
1523010108820600,3,-27,0,3,5,11,17,5
1523010108829624,16,30,6,0,3,-2,-1,12
1523010108829624,-3,-22,-11,2,4,-13,-15,0
1523010108843661,-1,10,0,-4,-11,-12,-36,-46
1523010108843661,-22,-4,-2,-2,-1,6,47,37
1523010108845667,24,-61,-6,-5,-29,10,-14,-14
1523010108845667,-8,90,17,12,21,3,-5,-8
1523010108866722,27,-14,-2,-3,-5,12,32,34
1523010108866722,26,-1,-4,-3,1,-10,-5,1
1523010108867725,-56,-13,-7,-3,19,2,-3,-19
1523010108867725,-1,-12,-2,-5,-5,7,12,9
1523010108879757,15,15,9,6,-14,-5,-9,9
1523010108879757,2,-8,-5,-9,-12,-12,-17,0
1523010108888781,-11,5,-4,-2,1,-4,2,8
1523010108888781,-8,-41,-5,0,20,-22,-33,-13
1523010108903821,6,33,6,3,-3,12,28,22
1523010108903821,27,-2,10,2,-9,25,54,17
1523010108905827,-24,9,-4,0,6,3,-20,-24
1523010108905827,-8,-21,-10,-3,2,22,33,0
1523010108926882,8,-21,-7,-5,0,-29,-32,26
1523010108926882,23,-1,-3,-3,2,-16,-50,19
1523010108927885,-20,56,11,9,4,17,44,-32
1523010108927885,7,-14,0,2,0,-8,1,-8
1523010108939917,-24,-13,-5,-6,-10,-4,-6,-27
1523010108939917,-8,26,2,-6,-5,-6,-15,15
1523010108948941,32,-28,-7,-5,1,-22,-36,-3
1523010108948941,-7,56,10,5,-32,-9,8,23
1523010108963981,28,-31,-9,-8,-8,0,13,5
1523010108963981,-24,-5,0,-5,20,23,17,-10
1523010108965987,12,3,0,3,21,-9,2,20
1523010108965987,2,-18,-14,-10,-32,-16,-19,6
1523010108986040,-6,15,12,8,-4,26,31,-15
1523010108986040,14,-7,0,6,31,10,5,17
1523010108988045,3,16,1,3,-10,9,2,0
1523010108988045,-13,-25,-5,-8,4,-13,-35,-23
1523010109000077,-9,-14,-9,-2,-1,-21,-20,6
1523010109000077,-9,24,4,-1,-13,-9,6,-2
1523010109017123,-2,-9,-4,-5,-4,-1,-16,-13
1523010109017123,2,-5,4,3,16,33,62,8
1523010109024141,6,19,5,3,3,-2,-11,-11
1523010109024141,-2,-11,-3,-2,-16,4,4,7
1523010109025144,26,-16,-5,-2,-7,-32,-34,8
1523010109025144,2,-12,-15,-6,21,-4,11,-15
1523010109046199,-13,30,15,3,-27,9,-5,9
1523010109046199,-22,9,0,-3,16,9,22,-15
1523010109048205,19,-8,6,3,-25,-21,-65,-10
1523010109048205,-19,-35,-14,-8,17,17,38,0
1523010109060237,35,-6,-11,6,31,-17,10,-1
1523010109060237,-56,56,21,4,-14,20,8,-14
1523010109075277,39,-12,-4,3,19,16,33,26
1523010109075277,-17,-12,-4,-2,-15,-7,-10,-10
1523010109084301,1,-5,-2,-8,8,-5,-18,-5
1523010109084301,7,-29,-14,-2,-29,-31,-23,0
1523010109085304,-33,21,1,-5,-1,-9,-3,-5
1523010109085304,13,14,10,12,25,24,27,22
1523010109106360,-15,35,8,-2,10,19,18,-20
1523010109106360,41,-27,-6,2,4,-18,-20,6
1523010109108365,-13,10,6,-4,-16,8,22,5
1523010109108365,-39,-12,-6,-10,-22,-18,-8,-4
1523010109120397,23,14,5,5,16,15,33,24
1523010109120397,2,-25,-3,-2,-26,-3,15,9
1523010109129421,-6,7,-5,-5,2,6,8,5
1523010109129421,-10,-10,2,1,-21,-10,-40,-11
1523010109144461,-38,9,1,-1,-2,-56,-42,-33
1523010109144461,41,-17,-8,1,8,2,-3,22
1523010109145464,0,14,8,-1,27,65,46,43
1523010109145464,4,5,0,2,0,14,-9,-24
1523010109167522,-35,-13,6,-1,-1,-9,32,11
1523010109167522,-30,-23,-16,-11,-52,-26,-18,-17
1523010109168526,15,-7,-9,-1,19,-19,5,-21
1523010109168526,38,45,16,1,8,8,-18,15
1523010109180557,13,-19,-7,2,-8,8,-26,-11
1523010109180557,-18,11,19,4,2,-24,-18,-19
1523010109189581,4,-31,-9,-3,-1,6,50,13
1523010109189581,-5,-19,-8,-12,-8,-2,-40,-18
1523010109203618,-40,-22,-4,-1,-8,-4,4,-19
1523010109203618,13,49,9,8,41,12,-43,-29
1523010109205624,35,-28,-6,-3,-6,21,81,41
1523010109205624,19,35,9,4,7,-16,-23,-17
1523010109226680,3,-35,-14,-10,-28,-30,-8,-21
1523010109226680,7,-18,-4,4,17,36,7,8
1523010109227683,-19,2,9,8,12,-17,-21,-16
1523010109227683,19,9,7,5,-17,-20,4,15
1523010109239714,-21,-16,-10,-6,-9,12,-2,24
1523010109239714,30,10,-4,2,14,-26,-18,-22
1523010109248738,-18,-6,-23,-14,-21,-2,-29,0
1523010109248738,-40,23,9,4,-2,21,40,37
1523010109263778,-11,-28,11,4,-2,-30,-35,-26
1523010109263778,15,33,0,1,-2,-11,24,17
1523010109269794,6,16,-2,-2,6,29,-13,-9
1523010109269794,-13,-29,-15,-7,-6,-16,-26,6
1523010109293858,4,45,12,10,12,2,19,6
1523010109293858,-21,-35,-24,-13,1,38,17,-2
1523010109295864,7,37,30,13,-6,-23,-17,-9
1523010109295864,-9,-21,-11,-3,-4,-17,-2,-18
1523010109299874,28,-15,-18,-7,-4,6,-19,11
1523010109299874,-16,-24,-6,-6,1,9,-1,11
1523010109308898,-12,25,15,12,5,-36,19,20
1523010109308898,27,-6,14,-8,-17,5,-3,0
1523010109322936,14,26,9,3,9,26,13,-13
1523010109322936,3,-20,-1,-4,2,6,16,7
1523010109329954,-15,-14,0,1,-4,1,-19,-18
1523010109329954,2,-12,-14,1,-5,-33,-16,-16
1523010109346999,14,9,0,-6,-3,16,-14,7
1523010109346999,-3,8,22,9,16,32,17,8
1523010109348003,-22,6,-4,-1,-8,-18,-23,-24
1523010109348003,28,8,-11,0,5,11,13,21
1523010109369058,-17,16,16,0,-13,-10,-6,-7
1523010109369058,-1,-18,-16,-6,-2,-10,-9,-8
1523010109371064,-4,1,-17,-8,-9,-7,-6,-9
1523010109371064,0,11,4,6,6,4,-6,9
1523010109383095,1,-2,-8,-11,17,46,33,37
1523010109383095,3,-12,4,-3,-8,-33,4,4
1523010109390114,7,6,-5,-5,-16,-14,-21,-20
1523010109390114,-28,-25,-23,-8,-2,4,9,-1
1523010109414178,-8,40,26,3,1,5,-14,16
1523010109414178,-3,2,-5,0,4,-14,8,-4
1523010109415181,8,-3,21,-3,6,21,0,-9
1523010109415181,29,18,3,5,3,-1,8,19
1523010109429218,-14,-27,-10,0,-2,-3,1,-9
1523010109429218,-20,-7,-9,-2,-6,-8,-12,-9
1523010109430221,1,6,-15,-7,1,-5,-12,-9
1523010109430221,-9,-13,6,1,-1,-8,9,-5
1523010109443255,20,6,-6,-6,-1,-3,-8,3
1523010109443255,-7,-17,1,-5,-4,2,11,10
1523010109450274,-1,14,8,8,2,13,24,24
1523010109450274,-11,10,9,-1,-7,3,0,-20
1523010109466317,10,-6,-15,8,18,-14,-17,6
1523010109466317,-9,-5,2,2,-1,-19,-18,-29
1523010109468323,-1,-6,7,3,3,34,8,21
1523010109468323,9,2,-1,-6,-9,-11,6,-3
1523010109489378,8,6,0,1,-6,-8,-1,0
1523010109489378,-1,3,2,-2,0,6,-2,3
1523010109490381,-9,-6,-14,1,4,0,0,-7
1523010109490381,-6,3,10,-1,0,8,-10,-16
1523010109503416,-2,-14,-9,1,-7,-20,-3,-7
1523010109503416,4,11,5,0,0,7,15,17
1523010109510434,1,-7,-4,1,-3,-18,-13,-27
1523010109510434,-5,6,-4,-5,6,23,21,28
1523010109526477,4,-13,3,-7,-3,9,5,11
1523010109526477,-9,7,3,4,-4,-3,-7,-7
1523010109528482,0,1,-2,2,1,-6,-8,-3
1523010109528482,6,28,-4,1,3,0,-11,-15
1523010109549538,-8,-37,-2,1,5,22,-5,-8
1523010109549538,1,12,4,-4,-9,-32,-3,0
1523010109550541,-3,-2,-12,-8,-3,6,-9,-15
1523010109550541,-9,-9,3,4,6,7,32,34
1523010109562573,8,14,-2,2,0,6,12,7
1523010109562573,-2,-25,-9,-3,1,7,-13,-17
1523010109571597,-3,21,10,4,-2,-13,-9,-5
1523010109571597,0,-13,-11,-1,-4,-9,-21,-16
1523010109586637,-3,-5,-9,0,0,0,-4,-6
1523010109586637,2,-1,3,2,2,7,-1,-2
1523010109588642,3,10,-3,-8,-8,-11,4,12
1523010109588642,5,1,0,5,6,6,3,4
1523010109608696,-5,-10,-4,-6,0,-14,-3,-7
1523010109608696,-2,7,-5,-1,1,10,-4,3
1523010109610701,2,-18,-4,-3,-2,13,-19,2
1523010109610701,-4,-15,0,-4,-15,-17,13,0
1523010109622733,-1,-2,-6,-1,-2,5,14,8
1523010109622733,0,22,17,2,4,2,-3,-4
1523010109631757,-2,0,3,5,6,7,10,8
1523010109631757,5,-11,-3,-1,3,-4,-21,-15
1523010109646797,5,-10,-11,-1,1,-3,-10,0
1523010109646797,5,2,-2,-5,-15,-4,5,13
1523010109647800,0,-5,0,-3,-4,-3,1,-3
1523010109647800,-9,26,9,2,1,0,-2,1
1523010109668856,10,-18,-10,-1,-2,-5,-9,8
1523010109668856,-9,19,2,4,10,4,4,-19
1523010109674872,8,-20,-6,-2,4,8,14,15
1523010109674872,-6,7,0,-2,-4,-11,-4,-11
1523010109682893,5,21,17,-2,-20,3,2,5
1523010109682893,-1,-9,1,1,4,-1,6,-5
1523010109691917,0,-5,-7,-3,-1,-3,14,2
1523010109691917,-3,-46,-17,-6,8,9,-14,-15
1523010109706957,-8,43,9,9,7,-8,-1,-7
1523010109706957,1,-6,-7,-2,-3,-5,-6,3
1523010109707960,-1,3,0,-3,-10,-10,-14,-1
1523010109707960,13,3,1,-3,13,3,-16,-4
1523010109729016,6,20,4,-5,-14,-1,25,-11
1523010109729016,1,-30,-2,2,8,8,9,5
1523010109731021,-16,10,5,5,3,-7,-7,-8
1523010109731021,13,-13,-1,3,-2,3,-11,6
1523010109743053,4,-17,-4,-3,-2,-14,-30,-7
1523010109743053,-5,19,3,0,4,-6,-5,1
1523010109752077,13,-16,-8,-7,-19,-7,20,8
1523010109752077,-6,5,4,0,18,18,7,9
1523010109766114,-7,-6,0,7,-4,-1,-7,-11
1523010109766114,-5,-27,-4,-3,-21,2,-13,-2
1523010109768120,4,2,-1,1,10,-2,3,8
1523010109768120,-2,23,2,1,-4,-3,17,7
1523010109789176,5,-13,-3,1,15,10,6,-2
1523010109789176,2,-11,-5,-2,-2,-5,-9,-8
1523010109790178,-7,-12,-1,-1,-4,-7,-5,-1
1523010109790178,-8,23,6,1,-3,0,18,6
1523010109802210,0,-18,-7,-3,-2,-13,-27,-6
1523010109802210,13,4,2,-2,-8,5,13,0
1523010109811234,0,23,12,6,10,12,5,3
1523010109811234,-8,-7,-4,-4,-22,-18,-9,-15
1523010109826274,-5,11,1,0,16,9,4,14
1523010109826274,-7,-30,-10,-5,7,4,3,-12
1523010109828280,0,0,-4,-6,3,-7,-16,-2
1523010109828280,5,-16,-6,-9,-27,-13,-17,-4
1523010109849336,-4,-19,-1,2,1,8,6,-6
1523010109849336,-10,33,13,5,0,4,11,7
1523010109850338,7,-19,-4,-1,42,0,15,-7
1523010109850338,-7,47,12,1,-23,-1,-24,-2
1523010109862370,-1,-25,-6,-7,-6,-4,-7,5
1523010109862370,5,-10,-4,0,-7,2,9,7
1523010109871394,0,17,-2,-4,-1,13,30,16
1523010109871394,-23,-28,1,9,7,-11,4,-12
1523010109886434,21,-13,1,1,8,3,-7,8
1523010109886434,-13,33,1,0,12,0,-13,-7
1523010109888440,-14,7,-5,-7,-26,-15,-9,-3
1523010109888440,-13,-18,-6,-1,3,-2,-11,-26
1523010109909496,5,8,-3,-7,-19,1,23,11
1523010109909496,25,-27,-1,-1,2,-13,-19,10
1523010109910498,-24,15,3,4,-6,-3,-3,-13
1523010109910498,24,-34,-4,-2,17,9,8,15
1523010109922530,-26,34,11,5,1,13,4,-13
1523010109922530,1,-1,-3,-4,13,16,8,2
1523010109931555,1,21,1,1,-26,-21,-31,-8
1523010109931555,-5,-28,-5,-2,12,3,16,-5
1523010109946594,6,-15,0,4,-4,-10,-11,-1
1523010109946594,-11,-10,-6,-5,5,-3,-2,-4
1523010109948600,15,3,6,5,-22,0,-8,9
1523010109948600,1,-7,-3,-2,5,-10,-16,-12
1523010109968653,-4,-26,0,-3,-3,12,27,9
1523010109968653,-30,25,5,-1,-7,5,2,-7
1523010109970659,2,-14,-3,0,12,15,22,-2
1523010109970659,-4,22,5,2,5,-1,1,2
1523010109982690,-6,-9,-6,-5,-25,-21,-26,-11
1523010109982690,15,-6,-1,-2,-8,4,6,-3
1523010109991714,-9,6,3,6,2,17,21,-1
1523010109991714,15,-20,-3,-1,3,4,-3,10
1523010110006754,-18,25,3,-2,19,3,4,-6
1523010110006754,-6,1,2,2,-20,-29,-38,-10
1523010110007757,27,-10,-2,-1,10,8,6,8
1523010110007757,-16,-3,1,0,-5,5,15,3
1523010110028813,-3,36,6,0,-3,3,13,-10
1523010110028813,2,-23,-6,0,9,3,9,3
1523010110030818,9,2,-2,-2,-1,-14,-28,-1
1523010110030818,-3,7,0,0,-9,-4,6,3
1523010110042850,11,0,-1,-5,-8,-4,-11,2
1523010110042850,-10,-14,-2,1,3,7,8,5
1523010110051875,-1,-21,-3,1,21,-11,-21,-3
1523010110051875,-4,-2,-2,2,-31,-17,-28,2
1523010110065911,-5,-11,-5,-3,25,15,31,-2
1523010110065911,-5,29,8,-1,-18,24,34,-16
1523010110072931,-4,-21,-9,-5,0,-8,-12,0
1523010110072931,17,-5,-2,-3,5,-1,1,11
1523010110088973,17,-29,-5,0,0,-18,-34,1
1523010110088973,-26,25,6,5,-7,-2,-8,-1
1523010110090978,0,15,1,-2,-1,-1,-7,-4
1523010110090978,-7,-9,-4,-4,3,5,6,-6
1523010110103010,11,11,-1,1,7,5,13,2
1523010110103010,14,-29,-6,-6,-9,-4,9,7
1523010110112034,-15,14,1,-7,-16,-6,-12,-3
1523010110112034,12,21,7,3,11,6,3,-6
1523010110127074,-5,-7,0,-2,-14,-15,-10,2
1523010110127074,1,-12,-6,0,23,-7,-20,3
1523010110128077,-7,-19,-9,-2,-11,14,37,-2
1523010110128077,4,35,7,1,7,17,11,-6
1523010110149133,7,-10,-4,-3,-14,-6,-3,-2
1523010110149133,-17,10,2,-1,-4,-12,-23,-5
1523010110151138,6,8,-3,0,1,-5,-24,-4
1523010110151138,-4,-6,-3,2,15,-2,-7,2
1523010110162167,-10,-3,0,-3,-10,3,20,-2
1523010110162167,14,-4,-3,-3,-3,-7,-10,-2
1523010110172194,0,3,-1,2,18,-3,0,-2
1523010110172194,3,-5,-1,-1,-17,-1,17,7
1523010110186231,-26,16,4,0,-2,4,-9,3
1523010110186231,-1,53,-5,-2,-3,-2,3,-4
1523010110192247,-5,1,-3,-2,0,-8,-23,4
1523010110192247,9,-4,-2,-4,3,-9,-3,3
1523010110209293,3,-5,7,7,2,14,43,4
1523010110209293,6,-50,-5,-2,8,1,-2,-33
1523010110210295,-15,22,4,-1,-5,4,6,33
1523010110210295,1,-16,-9,-2,9,-8,-14,1
1523010110222327,2,-32,-9,-5,-7,-10,-19,9
1523010110222327,2,40,16,1,-9,2,12,-1
1523010110231351,-1,-32,-11,-6,-15,0,15,0
1523010110231351,-9,24,16,5,6,14,0,-8
1523010110245389,-15,-13,-4,-3,18,1,4,6
1523010110245389,1,-32,-8,1,-5,-18,-17,13
1523010110252407,1,1,1,-1,-6,-5,-22,-6
1523010110252407,-8,23,4,-3,3,13,30,0
1523010110269453,11,-12,-1,3,5,6,9,5
1523010110269453,18,-11,-1,2,-2,-1,-2,15
1523010110270456,-3,16,1,0,-1,-10,-3,-2
1523010110270456,-4,0,-4,-5,-6,-4,-12,-3
1523010110282487,10,16,0,0,-2,-7,-13,-7
1523010110282487,-1,-38,-12,-4,11,10,9,0
1523010110291512,5,33,5,2,-5,1,19,-3
1523010110291512,-5,4,0,1,3,5,0,0
1523010110305549,4,-3,0,3,-2,-10,-5,-12
1523010110305549,-6,-21,1,-2,-6,-4,-13,4
1523010110312567,3,-17,-11,-8,-7,-3,12,-6
1523010110312567,1,-4,8,1,-7,-14,-15,-10
1523010110328610,0,-3,-1,-3,1,3,10,6
1523010110328610,-5,-8,2,3,6,24,10,-2
1523010110330615,6,-2,0,3,4,-4,-8,-1
1523010110330615,-5,-23,-7,-4,-10,-10,0,-7
1523010110351672,15,33,1,-3,-3,-11,-25,-1
1523010110351672,-4,-5,4,2,4,8,2,-8
1523010110353677,-8,34,7,4,0,8,8,-5
1523010110353677,-7,-29,-15,-3,-5,-1,2,3
1523010110365709,-13,-1,-1,-1,-2,-4,-8,-14
1523010110365709,17,-10,-9,-5,-6,-10,-1,12
1523010110372727,8,7,4,4,4,5,4,3
1523010110372727,-5,-20,-8,1,3,-11,-8,-12
1523010110388770,6,16,9,-4,-4,10,0,11
1523010110388770,-3,3,1,-5,-11,-15,-6,-1
1523010110390776,7,5,2,3,2,2,-13,-21
1523010110390776,-14,-3,-4,-4,-8,3,19,24
1523010110411832,-4,-31,-16,-6,0,3,3,-11
1523010110411832,-11,14,13,2,2,-7,-2,0
1523010110412834,2,0,-2,5,0,0,-10,-15
1523010110412834,13,14,-19,-9,-4,5,1,12
1523010110425869,-10,-11,16,8,-1,0,4,-5
1523010110425869,-4,-13,-13,-4,2,1,2,11
1523010110432887,3,-12,-1,-3,-1,-6,3,-5
1523010110432887,-2,15,4,2,5,10,-12,-13
1523010110448930,-2,0,-3,-1,3,-2,-6,-6
1523010110448930,6,1,1,-2,-3,-3,8,6
1523010110450935,-6,-5,-9,-5,-7,2,4,6
1523010110450935,6,-21,-9,-2,-1,6,10,6
1523010110471991,1,26,12,7,10,10,-7,2
1523010110471991,-7,-13,0,-1,-2,-5,2,-8
1523010110478007,2,-2,-1,-2,2,-3,3,6
1523010110478007,-8,4,8,-1,-2,-7,-9,-11
1523010110486029,-5,1,-7,-1,-2,-7,-8,-6
1523010110486029,0,0,1,1,-2,-10,-5,-7
1523010110493047,-9,-15,-4,-5,1,30,10,13
1523010110493047,13,11,15,1,-4,-18,-13,-9
1523010110509090,-1,7,7,-1,-4,3,6,10
1523010110509090,0,-1,-14,-4,3,8,9,6
1523010110511096,-11,-6,-6,-3,-7,-24,-9,-13
1523010110511096,6,16,24,9,9,17,-2,6
1523010110531149,-8,-18,-15,-10,-7,-9,-2,-11
1523010110531149,1,9,4,-1,-7,-14,5,8
1523010110533154,-5,-14,-9,0,-3,1,-1,2
1523010110533154,6,-1,-5,0,1,14,1,-1
1523010110545186,-4,-4,-3,-2,0,-11,-5,-8
1523010110545186,5,19,6,3,6,9,-5,0
1523010110554210,-3,2,8,4,5,6,-1,3
1523010110554210,-11,-2,1,-3,-7,-10,-5,-16
1523010110569250,-11,-14,-13,1,1,5,10,17
1523010110569250,-9,4,9,0,1,6,1,-3
1523010110570253,5,12,-2,0,0,-15,-4,1
1523010110570253,4,-1,5,0,0,-9,-13,-6
1523010110591309,8,1,-1,0,1,9,4,4
1523010110591309,0,3,-3,-1,-3,4,19,14
1523010110597325,0,0,-5,-2,1,-5,5,4
1523010110597325,14,-12,-8,-4,-1,3,0,14
1523010110605346,-7,1,1,-3,-3,-2,-16,-19
1523010110605346,-9,2,-6,-3,-5,-20,-4,-6
1523010110614370,-5,-5,5,3,5,2,5,5
1523010110614370,11,-4,-5,-2,-3,14,11,6
1523010110629410,24,-1,-3,-2,0,-7,-11,7
1523010110629410,-13,13,7,-1,-2,6,0,6
1523010110630413,-45,-7,-12,-2,3,-7,-9,-23
1523010110630413,10,-17,-7,-6,-4,-8,4,18
1523010110651469,-8,12,4,4,-3,-12,-5,-11
1523010110651469,29,-3,-3,2,1,-4,-7,-4
1523010110653474,-20,4,2,-6,6,17,10,-5
1523010110653474,-14,-6,6,-7,-17,1,6,12
1523010110665506,16,7,3,10,0,-1,1,8
1523010110665506,-11,4,-6,-1,-3,-5,-15,-12
1523010110674530,27,3,1,-2,2,-5,-9,10
1523010110674530,-18,-12,-8,-5,-1,-11,1,-3
1523010110688567,-7,-6,1,0,-5,-3,7,0
1523010110688567,8,-4,-8,-1,0,8,-17,4
1523010110690573,23,3,7,-2,-4,3,4,7
1523010110690573,-6,38,20,7,13,7,22,11
1523010110711629,-2,-6,-8,-1,1,3,-1,-1
1523010110711629,-21,5,2,-4,4,-1,9,-7
1523010110713634,5,-29,-16,-1,0,-11,-21,-8
1523010110713634,17,-12,-7,4,-5,2,-2,4
1523010110725666,-28,24,15,0,5,2,11,-14
1523010110725666,9,8,-3,-1,1,6,-9,-10
1523010110734690,4,-2,-2,-1,16,0,-3,2
1523010110734690,-18,2,-3,2,-24,-15,-18,-21
1523010110748727,21,-19,-5,0,-1,6,31,9
1523010110748727,3,18,4,1,8,-1,-6,-1
1523010110750733,2,-11,-4,-6,-7,3,7,-3
1523010110750733,0,-18,-2,5,10,-1,2,-9
1523010110771789,8,13,1,-8,3,1,-19,10
1523010110771789,5,-3,5,10,-9,-3,-2,-7
1523010110772792,-13,1,5,2,0,-8,0,1
1523010110772792,18,12,1,-3,8,8,3,3
1523010110793847,4,-30,-7,-1,-10,-1,2,5
1523010110793847,5,21,-1,0,3,-2,-9,-7
1523010110795853,-4,-13,-1,-8,-11,-4,-17,-25
1523010110795853,-13,3,-2,5,4,-2,12,0
1523010110808887,-7,0,-4,-8,-7,-9,-14,-6
1523010110808887,17,-14,-2,4,6,16,25,23
1523010110810893,24,23,3,-5,-2,10,18,22
1523010110810893,3,7,0,1,6,-6,-5,-11
1523010110831949,-9,19,3,-1,14,-11,-25,-10
1523010110831949,3,12,-6,-8,-37,-7,-17,1
1523010110832952,-12,-18,1,2,-7,2,44,-11
1523010110832952,11,-12,-4,-3,21,8,-1,13
1523010110844983,-20,23,8,2,-1,1,-4,-7
1523010110844983,-10,-9,-1,0,1,1,-7,-27
1523010110854007,1,7,5,11,4,2,-12,2
1523010110854007,3,-21,-4,-2,2,-13,1,2
1523010110869048,-2,-9,-4,2,-1,1,-1,5
1523010110869048,-18,-18,-6,-7,-13,-5,-5,-6
1523010110871053,-3,32,1,-4,-8,-7,-4,8
1523010110871053,6,-15,-5,2,2,0,-20,-17
1523010110891106,-3,17,0,-2,-1,0,7,3
1523010110891106,-8,2,1,-2,-4,10,38,22
1523010110893112,13,2,4,3,-1,6,6,-2
1523010110893112,-2,-4,1,-1,-17,-10,-16,4
1523010110905143,5,-7,2,4,18,9,5,3
1523010110905143,-14,-5,-5,-4,25,-4,-23,-11
1523010110914168,-4,6,-1,6,-11,-7,7,4
1523010110914168,-4,-4,-3,-11,-11,5,20,5
1523010110929207,19,-21,-1,1,1,16,19,15
1523010110929207,-2,35,11,8,3,-7,-15,-10
1523010110930210,-7,12,-1,0,12,3,-13,-11
1523010110930210,-10,-18,-9,-8,-16,-5,-10,-7
1523010110950263,-8,-22,-3,-2,-22,-10,0,1
1523010110950263,6,5,2,-2,8,1,2,-16
1523010110959287,-4,4,-2,-1,-8,-15,-36,2
1523010110959287,-6,3,-8,-6,-2,8,27,8
1523010110965303,-4,-17,-7,0,8,9,14,7
1523010110965303,0,-4,-2,4,-6,14,9,-2
1523010110974328,-2,-9,-1,0,9,-11,-26,-12
1523010110974328,-22,15,4,0,1,1,3,10
1523010110989367,-1,-2,4,10,9,-13,-22,-29
1523010110989367,-8,-19,-11,-10,-53,-29,-30,-9
1523010110990370,3,-15,-3,-14,12,46,55,26
1523010110990370,10,29,9,3,12,1,-8,-2
1523010111011426,3,13,1,-1,-8,-15,-20,-1
1523010111011426,-3,-18,0,5,34,3,0,-3
1523010111013431,-6,-5,-6,-4,-37,-27,-19,4
1523010111013431,9,1,-1,1,9,12,10,6
1523010111025463,-24,11,5,3,11,8,20,-7
1523010111025463,11,-7,-1,0,12,6,-1,13
1523010111041506,-2,-24,-8,-2,-4,-5,-6,-4
1523010111041506,1,-18,-3,2,-5,-12,-27,-11
1523010111049527,-10,14,0,-12,-16,9,42,23
1523010111049527,6,30,7,12,-3,-2,-1,-13
1523010111051533,0,-9,1,1,2,-5,-5,-1
1523010111051533,-9,1,-1,-5,7,11,18,1
1523010111071586,20,-50,-12,-5,-15,-3,-33,-4
1523010111071586,1,16,8,-2,17,9,16,14
1523010111073591,-11,15,0,4,35,-2,-10,-18
1523010111073591,8,-12,-2,2,-58,-41,-60,-8
1523010111085623,16,-15,-10,-12,-9,1,12,4
1523010111085623,-39,-20,1,1,25,34,53,-7
1523010111094648,15,34,7,5,11,-11,-23,-2
1523010111094648,-10,-24,-4,1,16,16,38,0
1523010111108685,-2,21,5,3,-4,-7,-16,4
1523010111108685,17,-7,-5,-2,-34,-29,-45,-7
1523010111110690,-12,-19,-7,-5,5,9,17,4
1523010111110690,-24,8,2,4,1,1,10,-5
1523010111131746,7,20,3,-2,-4,-1,-10,-14
1523010111131746,16,-7,-5,-4,6,-18,-20,21
1523010111132749,-2,-4,2,0,-5,12,21,0
1523010111132749,-6,-11,1,1,18,13,20,-4
1523010111144781,6,4,-2,4,-17,-23,-49,-5
1523010111144781,-14,-16,-5,-11,-26,19,45,0
1523010111153805,8,28,8,1,11,4,-34,-5
1523010111153805,4,-6,-5,-2,3,-9,-7,-9
1523010111168845,-6,0,1,2,22,12,18,2
1523010111168845,12,-14,-7,-4,-2,-14,-32,3
1523010111174861,4,-11,-6,-2,-22,-12,9,7
1523010111174861,0,10,2,-3,12,13,13,-9
1523010111191906,-3,9,11,4,8,2,6,-12
1523010111191906,-13,-12,-9,-2,6,-5,-11,-7
1523010111192909,-2,16,-1,-1,-23,3,-5,-7
1523010111192909,3,-12,-4,-2,-4,-3,5,5
1523010111204941,6,-9,-4,3,28,4,5,6
1523010111204941,-3,23,3,1,6,4,6,9
1523010111213964,-3,-7,-3,-3,-19,0,-11,-3
1523010111213964,2,5,-1,-5,-8,-11,-31,1
1523010111228002,6,-4,3,0,-5,6,14,4
1523010111228002,-8,20,3,3,22,3,4,-11
1523010111235021,2,-12,-6,0,-7,-15,-14,5
1523010111235021,3,17,0,-2,4,1,-6,-6
1523010111252066,-5,-12,-2,-7,-7,17,37,11
1523010111252066,-6,0,0,4,8,-4,-7,-3
1523010111253069,6,22,-4,2,-6,-14,-10,0
1523010111253069,-6,32,2,-4,-8,-7,-11,0
1523010111274124,5,-5,0,-3,4,-4,-21,7
1523010111274124,-11,-26,-6,-6,-9,5,31,2
1523010111276130,-4,-3,12,5,0,6,26,-12
1523010111276130,5,-22,-4,5,18,-10,-29,8
1523010111288162,-6,-13,-11,-11,-33,-7,0,-21
1523010111288162,2,-24,-1,-4,-1,11,5,21
1523010111295181,-1,-4,-2,3,13,-1,6,-2
1523010111295181,-3,7,2,6,-1,-7,-6,-2
1523010111311223,-3,-9,-4,-2,-3,-12,-27,2
1523010111311223,6,-6,-4,1,-10,4,24,8
1523010111313229,2,7,1,-4,11,16,1,-3
1523010111313229,-2,18,8,0,-6,-4,2,-15
1523010111334285,-18,-30,-8,-4,-7,-4,-6,-3
1523010111334285,5,-6,3,3,-2,-5,-13,-2
1523010111335288,-10,38,9,5,7,-1,8,5
1523010111335288,-3,-31,-11,-2,-9,-3,-6,-5
1523010111348322,-5,2,1,-1,-13,-7,1,-1
1523010111348322,1,-7,-1,0,13,3,-8,6
1523010111355341,-8,-28,-7,-7,-1,-5,-7,-4
1523010111355341,0,3,1,0,-12,3,3,-1
1523010111371383,-7,10,5,2,10,15,40,3
1523010111371383,8,30,1,4,13,-1,-12,-4
1523010111373389,7,10,-8,-4,-15,-9,4,6
1523010111373389,4,4,1,-1,1,-1,-1,-4
1523010111394444,-1,-2,-1,-1,8,-1,2,-14
1523010111394444,9,-10,-6,-4,-10,-7,15,3
1523010111395447,-2,11,9,-6,2,2,-9,-2
1523010111395447,11,6,7,3,2,9,18,13
1523010111408482,-4,5,2,0,-9,-2,-21,-5
1523010111408482,-3,-5,2,0,-3,0,-11,-10
1523010111415501,5,-17,-10,1,1,-3,4,-7
1523010111415501,-9,-20,-2,-4,-1,-15,-10,-6
1523010111431543,10,1,5,7,8,5,-4,2
1523010111431543,4,-12,-6,-8,-11,-1,-15,-8
1523010111433549,-3,6,7,5,5,6,13,5
1523010111433549,7,6,-1,-2,3,15,18,22
1523010111453602,4,3,-8,3,8,-1,-2,-15
1523010111453602,-3,13,10,-2,-10,-20,-23,-11
1523010111455608,-12,2,-1,-1,-5,0,-4,-10
1523010111455608,-3,-19,-9,-3,7,-3,2,-11
1523010111468642,8,-8,-3,-2,-2,2,9,21
1523010111468642,4,28,15,12,11,32,7,4
1523010111476663,6,-7,-11,-8,-6,-8,-2,6
1523010111476663,-3,9,-1,1,-4,-4,-9,-13
1523010111491703,-1,-4,-7,0,-2,-13,-10,3
1523010111491703,6,6,-8,-7,-8,-35,-7,-4
1523010111492706,-8,-13,0,1,4,26,-1,-2
1523010111492706,-5,-14,-14,-3,9,9,9,5
1523010111513762,-7,-27,-7,-8,-25,-25,-6,-9
1523010111513762,2,16,16,2,0,12,21,17
1523010111515767,9,9,0,3,2,-8,4,2
1523010111515767,-1,-2,5,1,-3,7,-9,-4
1523010111527799,-13,-4,-1,-3,5,1,-18,-12
1523010111527799,3,-4,-9,0,-3,-10,-2,-4
1523010111536823,6,-13,-9,-3,0,7,-2,1
1523010111536823,-3,-8,8,2,2,5,28,16
1523010111551864,0,3,1,0,5,6,4,10
1523010111551864,-4,-15,-16,-4,-6,-8,-9,0
1523010111552866,17,13,12,1,0,-3,-4,-4
1523010111552866,-21,1,-3,1,-4,-6,-9,-4
1523010111573922,6,25,15,5,6,3,-4,-24
1523010111573922,-2,-24,-15,-5,-4,-3,1,10
1523010111575927,4,9,6,-1,-3,2,2,-7
1523010111575927,-5,-5,-3,-4,-5,-3,-17,-13
1523010111587959,1,-4,-10,0,-6,-23,-3,3
1523010111587959,-6,19,13,5,9,41,23,25
1523010111596983,5,-15,-4,3,-4,-24,-1,-7
1523010111596983,6,1,2,0,0,4,1,-13
1523010111612023,0,-7,1,-3,1,7,8,23
1523010111612023,1,-1,-8,3,0,-8,-7,-14
1523010111613026,-19,-13,1,-1,-4,-2,-5,10
1523010111613026,3,6,-3,4,3,-5,-14,-6
1523010111634082,6,9,11,-1,2,4,-4,-6
1523010111634082,3,14,5,-3,2,28,15,13
1523010111636088,-17,-6,-3,-4,-4,-2,1,-12
1523010111636088,7,-8,-7,-7,-13,-19,-4,10
1523010111648119,14,-7,5,-1,0,-4,-9,-8
1523010111648119,-22,8,-13,-3,3,9,-6,-3
1523010111657143,12,-3,4,3,-3,-37,-1,1
1523010111657143,-2,3,10,-4,-9,23,17,9
1523010111671180,-7,1,2,0,5,6,9,0
1523010111671180,-2,-14,-9,-4,-4,-4,-13,-14
1523010111673186,-2,11,6,5,10,8,-2,4
1523010111673186,-2,6,-2,1,-3,-22,-6,-4
1523010111694242,-5,-8,-7,-7,-7,3,-4,13
1523010111694242,3,-1,-4,-2,5,1,3,-27
1523010111695245,-13,-17,-13,6,5,4,-4,-4
1523010111695245,5,-2,1,-5,-5,-5,-1,7
1523010111707276,-11,13,4,8,4,10,6,-1
1523010111707276,13,-5,-9,-9,-10,-28,-9,6
1523010111716301,11,-12,-9,-4,-1,8,1,13
1523010111716301,-20,2,-2,-1,2,15,-6,-20
1523010111731340,-6,9,13,0,3,6,3,-6
1523010111731340,0,13,2,5,-4,-27,-10,-3
1523010111733346,3,-10,-12,-8,-2,14,-1,4
1523010111733346,10,-4,-5,1,8,-12,13,20
1523010111754402,-3,-17,-4,-6,-9,4,-3,-7
1523010111754402,2,17,12,5,-3,-3,2,-1
1523010111755405,-1,-27,-11,1,-4,-13,-8,-3
1523010111755405,10,33,11,5,2,1,2,7
1523010111767437,-19,-10,-8,-2,7,13,-1,-15
1523010111767437,-10,-9,-6,-5,-6,-5,-1,-4
1523010111776460,1,-1,-1,-10,-1,5,1,8
1523010111776460,-2,-7,-9,2,-6,-20,-14,-21
1523010111791501,2,5,3,3,-5,-1,7,8
1523010111791501,-9,-1,-4,-2,3,5,-2,-6
1523010111793506,1,-1,5,-4,-4,-5,-5,0
1523010111793506,2,2,-1,-1,-5,2,-6,-6
1523010111814562,-3,7,-1,-2,-1,-4,12,4
1523010111814562,4,5,-3,2,1,-6,-13,-15
1523010111815565,6,-3,-6,-11,-6,1,16,8
1523010111815565,-2,9,8,-2,-12,-5,-8,5
1523010111827596,0,-24,-8,5,2,-2,-5,-3
1523010111827596,-2,20,8,6,4,2,-1,-2
1523010111836621,11,40,16,3,0,5,2,2
1523010111836621,3,-16,-6,-3,8,0,5,4
1523010111851661,9,-8,-6,-6,-4,-7,-4,-1
1523010111851661,-3,8,5,-3,8,4,-4,2
1523010111853666,-2,-5,4,7,3,8,5,-8
1523010111853666,-3,-1,-5,-7,-1,3,-2,2
1523010111873719,8,-9,-6,-5,7,-6,-7,3
1523010111873719,-11,-18,-2,9,-12,-11,3,-5
1523010111875725,-8,4,4,-1,-1,1,-10,-25
1523010111875725,8,-10,-1,-1,-3,-3,5,10
1523010111887757,-4,4,4,3,-10,-5,-16,-3
1523010111887757,10,9,7,2,9,2,9,8
1523010111896780,-7,0,-3,-6,-1,0,8,-4
1523010111896780,-2,-6,3,12,38,32,-3,-2
1523010111911820,14,-33,-13,-5,-17,-7,17,5
1523010111911820,3,26,3,-9,-8,-4,-24,-5
1523010111912823,-42,-19,-3,7,17,-13,-14,-22
1523010111912823,4,-2,-9,-15,-30,-9,7,7
1523010111934882,5,25,12,21,25,8,-5,-12
1523010111934882,22,-31,-7,-4,-15,6,15,20
1523010111939895,-3,-1,-3,-10,-10,-7,1,15
1523010111939895,-44,-6,3,7,17,-7,-10,-34
1523010111947916,14,-4,-9,-12,-16,1,-3,5
1523010111947916,-8,3,7,10,1,0,-5,3
1523010111956940,3,-20,-5,5,0,12,-4,-1
1523010111956940,1,-9,-1,-7,-7,-1,14,1
1523010111971981,-18,-10,-3,-1,23,-16,-6,-1
1523010111971981,4,2,-5,-3,-32,-15,-19,-11
1523010111972984,-3,16,4,3,6,11,4,-4
1523010111972984,-8,-10,3,-1,1,0,-1,-7
1523010111994039,17,34,3,-13,5,8,15,20
1523010111994039,-7,-18,-7,5,16,-12,-19,-16
1523010111996045,5,-23,-4,-3,-20,-7,-14,8
1523010111996045,5,5,1,-5,-14,8,39,-4
1523010112008076,-1,13,4,5,11,2,-8,1
1523010112008076,-19,6,-5,-9,4,1,1,-5
1523010112017100,12,-14,-4,-2,-28,-12,-1,4
1523010112017100,18,-13,-1,3,5,-5,-29,8
1523010112031138,-20,16,8,5,-16,-4,0,-13
1523010112031138,-6,6,0,0,36,2,5,1
1523010112033143,7,-9,-2,-7,-28,-1,-1,5
1523010112033143,2,5,-1,-1,12,1,5,5
1523010112054199,-22,-10,-5,-5,-24,-3,10,0
1523010112054199,4,-16,-8,-6,3,4,14,9
1523010112055202,2,-4,4,9,38,11,-7,-7
1523010112055202,13,17,-1,-5,-12,-7,-14,11
1523010112068237,-3,11,8,9,9,13,29,9
1523010112068237,3,6,-5,-8,-27,-11,4,-1
1523010112077261,2,2,-3,-7,-1,1,19,8
1523010112077261,4,-13,-5,-1,4,-4,-24,-14
1523010112091298,-10,-1,0,2,-20,-8,-10,-10
1523010112091298,3,24,7,5,5,7,4,11
1523010112097314,4,6,5,3,25,13,11,7
1523010112097314,-4,6,7,2,-15,-9,-3,-4
1523010112114359,1,-12,-10,-9,3,-1,-11,-6
1523010112114359,3,-16,-1,5,-5,4,8,-12
1523010112115362,-3,40,13,2,-3,-9,-12,4
1523010112115362,7,-9,0,4,5,2,0,8
1523010112127394,4,-6,-2,-9,-11,2,15,11
1523010112127394,-6,1,-4,-4,1,3,2,2
1523010112137421,1,-11,-6,-1,25,-9,-8,-9
1523010112137421,0,12,1,7,-11,5,-2,6
1523010112150455,5,-30,-4,-6,1,17,9,1
1523010112150455,-18,32,7,-2,0,2,-7,-7
1523010112157474,1,-7,-1,0,-4,-3,3,-4
1523010112157474,-5,-6,-1,-2,4,-10,-9,-2
1523010112174519,8,-15,-8,3,8,-13,-15,1
1523010112174519,2,37,6,-1,-21,-4,4,7
1523010112175522,-3,-6,-3,-5,15,6,-7,-1
1523010112175522,3,-8,-1,5,5,11,6,-8
1523010112187554,-12,-6,2,0,-4,-6,4,-7
1523010112187554,10,-15,-6,-6,-1,-3,2,8
1523010112196578,-9,-10,-5,-1,-37,-20,-12,-13
1523010112196578,5,24,3,-1,27,10,13,4
1523010112210615,8,-7,-4,-6,-8,4,-14,2
1523010112210615,-12,19,7,7,9,6,9,-1
1523010112217634,2,-23,-10,-4,-5,-4,-10,7
1523010112217634,-10,-12,-6,-7,-29,-13,-10,-6
1523010112233676,1,1,0,4,-8,-6,-9,-5
1523010112233676,-1,-2,-1,-2,-3,0,-4,-3
1523010112235682,-8,1,4,4,16,3,9,-3
1523010112235682,11,-8,-8,-1,2,-3,-2,18
1523010112256738,-9,14,7,-4,3,8,3,-16
1523010112256738,-5,-30,-9,0,-4,5,-3,-20
1523010112257740,0,-5,-1,1,13,1,0,0
1523010112257740,-7,-3,0,0,-1,-5,-5,-6
1523010112270775,10,21,2,3,1,-11,-15,4
1523010112270775,-8,-16,-4,-5,-28,-4,-11,4
1523010112277794,-3,22,3,1,20,11,20,2
1523010112277794,1,-16,-1,1,2,4,1,-1
1523010112293836,-12,4,-2,4,37,-3,-15,-1
1523010112293836,16,-8,-1,1,-34,-12,-8,2
1523010112295842,5,-13,-8,-16,-20,5,12,5
1523010112295842,-17,-5,-1,-4,8,12,17,4
1523010112316898,9,-4,2,1,20,-9,-15,-5
1523010112316898,-12,44,8,6,2,-12,-19,-7
1523010112317901,6,-7,-1,8,34,2,-2,3
1523010112317901,-5,-18,-5,-7,-35,7,18,-4
1523010112330935,1,-1,1,-2,-12,2,11,10
1523010112330935,3,-19,-8,-3,29,9,7,6
1523010112337954,-9,7,3,2,-14,-7,-16,-13
1523010112337954,7,-17,-5,-6,4,-8,-15,-3
1523010112353996,-9,34,4,3,-14,6,12,5
1523010112353996,14,-3,0,-3,-1,0,1,1
1523010112356002,1,-13,-1,4,23,-2,-1,8
1523010112356002,-8,23,7,5,-26,-1,-3,-15
1523010112377058,5,-18,-8,-5,-3,-5,10,3
1523010112377058,-6,5,-1,-2,15,1,8,5
1523010112378061,13,12,2,5,2,3,-2,4
1523010112378061,-6,-2,-4,0,-4,-9,-8,-3
1523010112391095,-9,4,2,0,-25,9,26,-1
1523010112391095,12,-17,-6,-7,-4,4,15,2
1523010112398114,-15,-12,-2,3,36,4,-10,-9
1523010112398114,9,6,-2,1,12,-11,-17,-5
1523010112414156,-5,3,-1,-2,-43,-9,-17,-2
1523010112414156,6,5,6,3,16,7,10,8
1523010112420172,-2,6,1,-7,-37,1,8,-1
1523010112420172,7,-23,1,2,30,3,3,4
1523010112436215,-18,31,0,-1,16,-4,-1,-14
1523010112436215,-2,-5,-5,1,-1,-4,-9,-2
1523010112438221,-2,-3,-6,-7,-20,-5,-13,-1
1523010112438221,6,-6,-4,-1,-6,1,-5,8
1523010112450252,0,-21,-4,-4,3,3,29,-4
1523010112450252,1,-7,-4,-2,1,-2,-1,9
1523010112459277,-4,20,5,2,-18,0,6,-10
1523010112459277,-5,16,2,-5,-11,-5,-10,-3
1523010112474317,4,-22,-3,2,15,6,-14,-3
1523010112474317,-3,14,0,-1,-4,-4,3,4
1523010112475319,3,-20,-10,-2,3,-3,2,3
1523010112475319,-13,6,3,-2,-26,-5,-7,-5
1523010112496375,5,-13,2,2,19,7,-18,8
1523010112496375,-3,4,-4,-2,-13,-5,6,-12
1523010112498380,0,-6,2,-3,-16,-7,-16,-3
1523010112498380,-3,-3,0,1,20,2,22,4
1523010112510412,5,4,5,2,12,7,-4,2
1523010112510412,0,-13,-6,4,4,2,0,-3
1523010112519437,-15,-4,2,-2,-21,-5,10,3
1523010112519437,-8,23,1,2,5,8,-8,-1
1523010112534477,-4,-15,-5,-5,1,-2,1,-6
1523010112534477,-7,-11,-3,-2,4,-10,-2,4
1523010112535479,1,-15,-12,-6,-6,3,-5,6
1523010112535479,-6,6,10,2,20,10,9,-20
1523010112556535,-2,10,-2,1,-14,-5,-1,6
1523010112556535,6,-6,-7,-3,5,-6,-11,-1
1523010112558541,5,32,9,4,-20,-7,-10,-4
1523010112558541,14,-5,-6,-5,-1,-4,1,6
1523010112570572,-5,9,0,-1,3,-2,1,-4
1523010112570572,9,-8,-9,-4,13,13,10,3
1523010112579597,1,13,7,-2,-10,-12,1,0
1523010112579597,-8,9,4,2,1,9,-6,-11
1523010112593633,8,-12,-2,0,-6,-4,-7,1
1523010112593633,2,-1,-1,1,8,-1,-11,-4
1523010112595639,-2,-6,-2,-1,-3,-4,27,-4
1523010112595639,-4,-27,-3,-3,-6,2,6,10
1523010112616695,1,-7,-1,-2,3,-4,5,0
1523010112616695,0,-10,-4,2,0,1,-8,-18
1523010112618701,3,5,-1,-2,2,4,-8,7
1523010112618701,7,9,3,3,-5,-13,3,-5
1523010112629729,-8,-15,-6,-6,-14,1,-12,3
1523010112629729,4,16,1,-1,-5,-8,-1,6
1523010112639757,4,-8,0,-3,7,15,7,2
1523010112639757,-11,-11,-6,-3,-5,-9,-1,-5
1523010112653794,4,8,-1,-2,1,-1,-8,-4
1523010112653794,-1,4,-3,4,-6,-4,-17,-26
1523010112655799,-1,-1,-1,-1,0,-15,-6,3
1523010112655799,2,-16,-4,1,-1,17,9,10
1523010112676855,4,23,6,-4,4,5,10,-10
1523010112676855,-14,-7,-1,-2,-4,6,7,7
1523010112677858,3,-3,-3,0,-3,-5,-10,-13
1523010112677858,1,-2,3,0,-3,-15,-11,3
1523010112689890,-2,-21,-10,1,1,1,-4,-11
1523010112689890,2,24,8,1,2,9,4,10
1523010112698914,1,-14,-1,-2,-7,10,1,2
1523010112698914,-4,7,1,-3,-7,-22,-6,3
1523010112713953,5,-4,-2,3,3,0,0,3
1523010112713953,-6,-4,-10,-4,-3,2,-5,-3
1523010112715959,5,9,-1,-1,4,-2,-5,-11
1523010112715959,6,29,14,3,7,21,21,11
1523010112737015,-5,-4,5,1,-5,-16,-4,-9
1523010112737015,-3,-7,-12,-3,-3,4,-1,8
1523010112738018,1,1,0,3,8,2,-1,0
1523010112738018,4,-22,-13,-4,-4,-11,-4,-7
1523010112750050,4,20,12,7,5,-5,-2,5
1523010112750050,0,5,-2,-7,-7,4,2,-2
1523010112759074,-13,-13,-6,-5,-5,-16,-4,-2
1523010112759074,3,-4,-5,-5,1,26,4,5
1523010112774114,-5,-1,1,0,0,-9,-7,0
1523010112774114,-4,4,-1,0,-7,-16,-2,-1
1523010112776119,7,3,8,-1,4,12,10,11
1523010112776119,-7,17,8,6,5,5,-4,-9
1523010112796172,-4,2,-2,-1,-5,-2,0,2
1523010112796172,8,2,-11,-5,-2,-11,3,17
1523010112798178,-8,-4,4,1,-1,2,1,-17
1523010112798178,2,7,11,1,5,5,-4,0
1523010112810209,3,-4,-10,-2,-1,-7,-4,-2
1523010112810209,-3,9,8,1,0,4,5,5
1523010112819234,5,-3,-13,-4,-2,-10,-1,9
1523010112819234,3,-8,-6,-2,0,3,-2,-4
1523010112834274,-12,5,-1,3,5,-1,3,1
1523010112834274,1,12,13,-4,-6,13,-5,-4
1523010112835277,-5,-6,-8,-5,-10,-4,1,-6
1523010112835277,8,10,11,0,0,-6,3,4
1523010112856332,-10,-7,-14,-6,-5,-15,-10,-9
1523010112856332,0,-3,-1,6,6,7,2,4
1523010112858338,-6,-4,8,1,5,20,6,4
1523010112858338,-3,-4,-11,0,-3,-18,-5,-8
1523010112870369,-2,-2,0,2,-4,3,-6,-1
1523010112870369,-2,1,7,4,-1,-17,6,3
1523010112879394,-3,-4,-2,3,0,1,2,0
1523010112879394,1,-10,-11,-3,2,4,-3,8
1523010112893431,-6,7,-6,-5,0,2,-8,-9
1523010112893431,0,8,10,1,-9,-10,-12,-8
1523010112900449,8,0,0,-2,-2,-5,7,14
1523010112900449,-14,-18,-7,-1,-3,3,4,-9
1523010112916492,3,21,19,4,3,12,7,-1
1523010112916492,6,-10,-11,-4,1,-1,-9,2
1523010112918498,-3,-5,-3,0,0,-7,-12,-3
1523010112918498,4,-14,-7,-4,-1,-2,11,1
1523010112930529,3,0,2,-1,-4,-4,1,1
1523010112930529,0,-1,-4,0,4,0,4,-1
1523010112939554,17,5,4,0,1,6,-2,7
1523010112939554,-10,6,1,3,-2,-10,-5,-4
1523010112954594,-17,-6,-2,-3,-2,1,2,-8
1523010112954594,-2,9,0,-3,-4,-2,3,-1
1523010112955597,2,-21,-10,-5,0,-19,-7,-2
1523010112955597,14,30,14,1,9,27,-3,7
1523010112976653,7,12,14,3,-2,-3,3,3
1523010112976653,-9,0,-4,-2,-1,-7,-1,-2
1523010112978658,-13,2,-1,5,2,2,1,-1
1523010112978658,10,-13,-5,-3,-5,-10,-4,5
1523010112990690,-21,-8,-7,-2,4,2,-3,-1
1523010112990690,0,10,2,-4,-9,-1,-1,1
1523010112999714,2,8,1,2,2,-11,1,-7
1523010112999714,3,-4,-1,-1,-5,2,-15,-10
1523010113013751,19,6,-2,-2,1,11,6,9
1523010113013751,-2,-25,-9,4,8,6,19,11
1523010113019767,-2,16,6,-3,-5,-17,-23,-11
1523010113019767,5,-9,-7,-4,-2,6,17,3
1523010113036812,-17,0,2,0,-3,-7,2,-9
1523010113036812,6,8,-3,2,6,9,-4,-5
1523010113037815,-1,-14,4,2,3,5,2,4
1523010113037815,-4,-8,-4,-1,6,-15,-16,-5
1523010113049847,7,-15,-10,-6,-15,-5,-12,3
1523010113049847,-6,-8,-2,-3,-3,-6,0,-6
1523010113058871,-2,2,-4,0,4,9,7,-2
1523010113058871,0,1,2,-2,-2,-1,3,2
1523010113073911,8,15,3,5,2,0,9,-3
1523010113073911,2,-13,-2,-1,2,-4,-3,-6
1523010113079927,-2,-4,1,-1,0,3,0,-1
1523010113079927,-13,3,2,-2,-6,-9,-12,-8
1523010113096972,4,-2,1,3,-3,10,2,6
1523010113096972,1,-7,1,-1,-2,-7,8,-7
1523010113098978,0,-17,-9,-3,4,6,7,0
1523010113098978,-3,21,12,2,10,2,7,5
1523010113110007,7,5,0,3,6,-9,-10,4
1523010113110007,-5,-14,-6,-8,-17,1,-8,-7
1523010113119031,2,-7,-1,3,4,5,11,4
1523010113119031,-1,-5,-3,-3,-15,-15,-6,-3
1523010113134071,-4,-4,-6,-2,1,-11,-6,11
1523010113134071,5,0,0,-1,3,-2,-4,-9
1523010113140087,-7,2,0,-4,-3,2,1,1
1523010113140087,9,-10,-5,-1,-8,-3,-13,-8
1523010113156130,-2,23,8,2,21,16,17,5
1523010113156130,-6,-6,-3,-2,-15,-1,10,-2
1523010113158135,0,10,2,-5,-2,-1,-5,2
1523010113158135,-4,-23,-8,0,-9,-6,-2,2
1523010113179191,1,-21,-13,-7,-8,4,5,2
1523010113179191,-5,13,7,-2,9,3,-6,-2
1523010113181196,2,3,4,5,-3,2,-2,-6
1523010113181196,-7,-3,1,-3,-5,-7,0,-2
1523010113193228,8,-1,-7,-1,12,-10,-6,5
1523010113193228,-2,0,4,1,-16,3,-5,-1
1523010113200247,-7,-23,1,2,5,3,15,4
1523010113200247,-5,26,4,2,1,-8,-13,-2
1523010113216290,2,-2,-8,-8,-2,6,-1,-6
1523010113216290,-2,-13,0,4,27,10,9,-1
1523010113218295,1,-2,4,6,-7,-4,-8,-1
1523010113218295,-21,-2,-2,-1,3,5,18,-9
1523010113239351,5,14,-1,-1,-11,-3,-7,3
1523010113239351,1,-2,-1,0,13,-8,-9,0
1523010113240354,-5,-8,-1,-1,-8,3,-3,-2
1523010113240354,7,-16,-2,-4,-11,3,0,8
1523010113253388,2,19,3,-3,-3,0,-2,1
1523010113253388,-10,-12,0,0,-15,-5,-14,-25
1523010113260407,0,-1,1,4,47,0,-2,4
1523010113260407,2,-13,-4,-4,-37,-1,0,4
1523010113276450,-1,-3,0,-1,1,5,-1,6
1523010113276450,1,-7,-2,0,2,0,1,12
1523010113278455,-4,16,1,-1,-13,-5,-10,-15
1523010113278455,9,-7,-2,0,12,0,6,8
1523010113299511,-2,-9,-2,-1,-5,-4,-2,-1
1523010113299511,-15,-9,-2,0,-9,-9,-10,-10
1523010113300514,0,27,7,-1,9,13,-1,-3
1523010113300514,-4,-6,-1,-2,4,6,4,5
1523010113313548,10,-3,-2,1,-1,-4,-6,-5
1523010113313548,-11,-1,-2,-1,1,4,13,10
1523010113320567,3,-6,-5,-3,-22,-7,-1,-1
1523010113320567,-12,6,4,-2,-7,-4,-6,-9
1523010113336610,-9,-1,-4,1,16,0,-2,-18
1523010113336610,12,1,3,2,21,3,-10,4
1523010113338615,9,3,-1,-2,6,-6,-8,13
1523010113338615,-2,-7,-6,-3,-9,11,26,-2
1523010113358668,-22,1,2,6,-7,-1,5,-11
1523010113358668,1,-4,-2,-4,-8,-3,2,-3
1523010113360674,-5,10,2,-1,4,0,0,6
1523010113360674,10,-12,-3,2,11,-9,-22,-2
1523010113372706,4,-2,-5,-3,-14,-11,-5,0
1523010113372706,-15,17,9,4,21,7,1,-10
1523010113381730,9,8,6,4,-9,7,11,6
1523010113381730,-5,-5,-4,1,25,-1,1,-1
1523010113396770,5,-3,-3,-3,-20,-3,0,4
1523010113396770,8,-11,-1,-7,-18,-6,-11,5
1523010113397772,4,-21,-6,-5,-6,-10,-14,-3
1523010113397772,-21,24,8,-2,-7,-1,9,-11
1523010113418828,7,3,1,0,22,10,9,7
1523010113418828,4,-7,-4,-1,-4,-5,-7,-4
1523010113420834,-13,-4,-1,2,2,1,-6,-11
1523010113420834,3,-16,-3,1,5,0,0,-4
1523010113432866,1,7,-3,0,20,-12,-14,7
1523010113432866,-8,16,3,-2,-42,0,11,-3
1523010113441890,-3,-16,-8,-6,-3,5,8,1
1523010113441890,11,6,0,-2,3,-1,-10,-7
1523010113456930,-15,3,4,-1,-6,-2,3,-7
1523010113456930,3,6,0,3,16,-2,-7,-9
1523010113458935,4,-3,-2,-1,-3,-6,5,2
1523010113458935,-2,-1,-5,-3,-13,-4,-8,5
1523010113478989,7,4,-3,-6,-12,-9,-13,1
1523010113478989,3,-12,-3,-6,6,-2,1,-1
1523010113480994,-9,5,5,3,11,19,25,-1
1523010113480994,5,4,1,4,12,0,-9,-2
1523010113493026,1,-12,-1,1,-7,-1,-1,-1
1523010113493026,-3,0,-4,-2,0,-8,-11,3
1523010113502050,-8,12,0,-3,-21,-6,-3,-7
1523010113502050,9,-2,-2,0,-5,-1,0,0
1523010113516087,-9,1,0,2,-4,2,-4,-7
1523010113516087,18,-4,-4,-4,20,11,-1,9
1523010113518092,-9,-14,-2,-2,-1,-2,6,-6
1523010113518092,-6,24,10,5,9,-1,1,-1
1523010113539148,4,-9,-6,-4,-27,-10,-17,2
1523010113539148,5,-11,-3,-2,4,-3,8,8
1523010113541154,-5,4,3,1,1,2,3,4
1523010113541154,-4,-19,-2,-2,-4,-1,-3,-4
1523010113553186,3,8,1,-3,1,6,13,-4
1523010113553186,-1,21,4,4,1,-4,-16,3
1523010113562210,7,-2,-4,-4,6,-6,-8,-5
1523010113562210,-5,-11,-2,1,-8,8,14,3
1523010113576247,-3,-10,-4,-3,-6,0,-4,-5
1523010113576247,5,-21,-5,0,14,-8,-3,1
1523010113578252,3,52,12,2,-11,0,-6,2
1523010113578252,6,-23,-5,-1,18,10,21,7
1523010113599308,-10,25,7,0,-6,4,2,3
1523010113599308,2,-9,-3,-2,-14,-4,12,-2
1523010113600311,0,-25,-9,-6,-2,-22,-12,-4
1523010113600311,2,-3,-5,-3,3,0,9,-2
1523010113612343,3,0,0,1,-12,14,2,9
1523010113612343,-5,-6,-3,-6,-15,-6,-10,-2
1523010113621367,8,7,0,-3,2,-4,3,0
1523010113621367,9,13,5,-5,-6,-8,-9,4
1523010113636407,-32,-27,-13,15,17,-13,-23,-14
1523010113636407,-26,-21,-6,4,4,11,28,2
1523010113638412,-14,18,6,-9,-13,3,-5,-9
1523010113638412,-3,-12,-2,4,0,0,-1,12
1523010113659468,18,-4,6,-5,11,-9,-11,-1
1523010113659468,11,20,-1,-20,-19,-11,-5,-5
1523010113660471,-49,-57,-15,22,15,3,3,-28
1523010113660471,-2,13,8,6,4,-4,-7,5
1523010113681527,-17,11,0,-1,10,8,24,-5
1523010113681527,47,10,4,5,-2,7,-2,15
1523010113683532,9,-15,-5,-14,-10,-11,-9,-2
1523010113683532,-44,-1,0,-2,2,6,1,-9
1523010113696567,10,-20,-7,5,-1,9,7,6
1523010113696567,-18,-9,-5,-4,-5,-15,-15,-5
1523010113698572,34,18,3,2,0,6,-2,5
1523010113698572,5,-4,1,2,5,4,4,-2
1523010113718626,14,0,-7,-9,1,-6,-15,0
1523010113718626,-2,5,8,3,-3,0,9,0
1523010113720631,8,6,5,9,-8,-9,8,7
1523010113720631,-1,-22,-12,-3,2,3,1,-5
1523010113733665,-2,12,3,-3,-1,6,4,-1
1523010113733665,2,15,9,12,14,3,-3,-8
1523010113741687,-10,-12,-8,-3,-1,-2,-1,10
1523010113741687,-7,-2,5,-7,-7,10,-1,-10
1523010113756727,17,-5,-6,1,-2,-15,-6,-2
1523010113756727,-7,15,-1,0,-12,4,-1,0
1523010113758732,0,4,-1,-2,-6,7,11,-1
1523010113758732,11,-5,-1,2,2,-5,-6,8
1523010113778785,6,22,7,-1,1,2,-3,-15
1523010113778785,-17,-32,-12,-4,-2,-7,10,3
1523010113780791,5,-20,-7,-3,7,-4,3,4
1523010113780791,8,30,14,7,9,18,-10,-6
1523010113792823,4,-1,-1,-1,-8,-10,-3,11
1523010113792823,-9,15,8,2,-8,-4,15,-2
1523010113801848,-1,-24,-10,-6,4,11,-4,8
1523010113801848,1,-23,-12,-5,-8,-17,-18,-17
1523010113816887,-2,17,11,3,-2,3,4,-6
1523010113816887,-2,-4,-8,-5,11,6,4,8
1523010113817893,5,-7,0,-3,-13,-6,-19,-8
1523010113817893,-4,6,1,1,-6,-11,5,0
1523010113838945,-3,3,-10,-4,3,19,8,-3
1523010113838945,2,0,15,3,4,4,-6,-6
1523010113840951,-4,12,-3,-1,1,-4,-1,1
1523010113840951,3,-14,-5,-5,-6,-14,-9,-3
1523010113852983,-5,9,-2,1,-11,-15,-19,-2
1523010113852983,16,-9,-8,1,0,16,11,-4
1523010113862007,-12,14,15,3,12,7,-12,-2
1523010113862007,-14,-5,-6,-5,-9,-3,13,1
1523010113877047,0,-13,-6,-3,-1,-3,13,11
1523010113877047,-1,-13,-7,1,5,-4,-15,-6
1523010113879052,-3,26,5,-1,-3,-21,-8,-9
1523010113879052,11,-2,13,0,-7,6,-6,0
1523010113899106,2,-7,1,0,6,10,11,8
1523010113899106,-10,-10,-8,-4,-8,-18,-4,11
1523010113901113,9,-11,2,2,10,30,8,-9
1523010113901113,-5,8,-1,0,-4,-14,-11,-6
1523010113913143,7,-3,-6,-3,-3,-10,2,3
1523010113913143,-2,8,1,5,1,15,0,8
1523010113922168,-16,-14,-11,-5,4,-2,6,1
1523010113922168,3,3,3,0,-5,-7,1,9
1523010113936207,-1,15,16,2,-1,3,0,-11
1523010113936207,-4,-5,-13,-5,-3,-18,-5,5
1523010113938210,1,-10,-3,0,-1,13,-1,3
1523010113938210,-1,12,11,-1,3,18,-5,-10
1523010113959266,-8,-8,-16,-2,-7,-21,0,0
1523010113959266,-5,-6,-5,-4,-4,-13,-17,-6
1523010113960269,1,28,6,-3,-11,-25,-3,2
1523010113960269,-4,-8,3,0,14,35,14,7
1523010113972300,-8,-6,0,-1,-5,7,9,10
1523010113972300,-5,18,8,2,3,8,1,-10
1523010113981324,4,-21,-15,-2,-5,-9,-5,-4
1523010113981324,-1,-2,-5,-4,1,-12,-5,0
1523010114004385,2,15,4,2,8,10,-5,-2
1523010114004385,-3,-11,-6,-1,-3,-5,-2,-5
1523010114005388,1,9,12,2,1,19,1,5
1523010114005388,1,-1,-10,-4,1,-9,2,4
1523010114019426,0,-4,11,1,-8,-12,3,1
1523010114019426,4,2,-5,3,3,3,1,0
1523010114020428,1,-8,0,-4,-4,-10,-5,-3
1523010114020428,-11,-7,-8,2,-4,-8,-9,-11
1523010114032460,-4,-9,-10,-5,1,4,-8,-4
1523010114032460,6,24,18,4,2,5,5,-2
1523010114047500,-5,3,-5,1,-1,4,3,3
1523010114047500,0,-11,0,0,-4,-6,1,-1
1523010114055522,-2,-1,-9,2,6,6,6,4
1523010114055522,2,3,5,-1,0,-10,-4,1
1523010114062540,-12,-6,0,0,2,18,-4,-12
1523010114062540,10,-1,-13,-10,-5,-21,-1,5
1523010114079585,-8,1,4,0,-4,-2,-4,1
1523010114079585,12,-2,-2,2,4,17,-5,1
1523010114080588,-4,-5,2,-1,-10,-23,-5,-7
1523010114080588,1,4,-5,-2,2,1,10,6
1523010114101654,-4,5,-4,1,4,7,0,-1
1523010114101654,-6,-15,-2,-1,-9,-4,4,-2
1523010114103653,12,4,2,1,2,-1,3,-1
1523010114103653,-3,0,-3,0,-2,-7,-15,-10
1523010114115681,5,18,1,-1,-8,-12,9,12
1523010114115681,-5,1,-1,-1,8,14,-5,-8
1523010114122700,6,-14,-1,-3,2,-8,1,9
1523010114122700,4,-4,-8,-1,-6,5,2,2
1523010114138743,-1,51,25,1,9,11,-8,-5
1523010114138743,5,-7,-11,-2,2,0,2,-2
1523010114140748,-8,-15,-7,-5,-11,-8,0,9
1523010114140748,2,1,6,0,0,-5,1,-1
1523010114161804,-8,0,-11,-1,-1,-2,-9,0
1523010114161804,8,5,3,1,-1,-18,0,0
1523010114162807,1,-1,-2,-2,-3,4,0,3
1523010114162807,1,-18,-1,0,-1,16,11,-2
1523010114174839,-7,-17,-9,-6,-3,-2,1,-7
1523010114174839,-2,13,11,3,8,-1,-3,-1
1523010114183863,-2,0,0,3,2,-12,-5,-12
1523010114183863,2,-10,-4,0,-5,-7,3,9
1523010114198903,12,14,8,3,12,19,14,2
1523010114198903,0,-15,-6,-5,1,13,-5,-7
1523010114200908,7,1,0,-2,0,2,-2,9
1523010114200908,-14,5,6,7,6,0,-8,-20
1523010114221964,-8,-26,-16,-6,-7,-14,-1,-7
1523010114221964,4,14,12,2,-5,-2,5,8
1523010114222967,11,12,3,8,4,-4,1,0
1523010114222967,3,7,3,-3,0,0,1,13
1523010114236002,5,-5,-13,-1,-14,-2,-11,-4
1523010114236002,-11,-16,-4,-7,2,-1,-4,-7
1523010114243020,2,15,3,-1,2,5,9,0
1523010114243020,-6,-10,-3,1,-6,-12,-10,-3
1523010114259063,6,-9,-4,-2,9,1,4,-6
1523010114259063,5,13,1,0,-5,1,-4,5
1523010114261068,-12,-8,0,-4,-10,4,12,-3
1523010114261068,4,8,-2,-5,-1,-6,-3,4
1523010114281121,-3,-12,-5,-1,-9,-10,-12,-4
1523010114281121,6,-9,-2,0,9,-1,1,8
1523010114283127,-4,-20,-6,1,22,5,-2,-7
1523010114283127,-9,3,-1,-3,-30,-6,3,-13
1523010114296161,8,-10,-4,-3,11,1,4,8
1523010114296161,-5,11,-6,-12,-1,-9,-5,0
1523010114303180,-5,10,4,5,-6,-1,4,1
1523010114303180,9,5,1,3,2,-2,-9,-10
1523010114319223,-11,13,0,-3,16,8,-12,-4
1523010114319223,-6,-15,-3,1,-6,7,17,3
1523010114321228,0,-8,-4,0,11,7,14,15
1523010114321228,-4,-5,3,-1,-36,-7,0,-7
1523010114341281,5,-6,-2,-3,10,-3,-6,-1
1523010114341281,-5,-13,-1,2,-3,0,-5,-2
1523010114343287,7,3,0,-3,-15,-11,-15,-12
1523010114343287,-12,-1,-3,3,17,9,-8,3
1523010114355319,-9,16,3,-1,-12,0,10,6
1523010114355319,-5,-5,1,7,23,2,2,-6
1523010114364343,-14,0,-1,-3,-27,-6,-7,-13
1523010114364343,3,-4,0,-2,-19,-6,-3,3
1523010114379383,4,-3,-1,-2,17,8,-2,-2
1523010114379383,-5,4,2,-3,-5,4,9,11
1523010114380386,11,-11,-3,1,2,1,-6,-2
1523010114380386,-4,11,1,5,14,3,11,1
1523010114401443,-3,4,1,-1,-16,-7,-1,-1
1523010114401443,-12,-8,1,4,-12,-9,-17,-29
1523010114403447,4,6,-1,-2,-1,1,-8,5
1523010114403447,2,4,0,-6,6,8,7,8
1523010114415479,2,-4,-1,0,2,-3,4,-4
1523010114415479,8,-12,-7,-4,-20,-8,-6,2
1523010114424503,-18,-11,-4,-5,3,-10,-9,-5
1523010114424503,-3,-3,-5,-2,10,2,-7,1
1523010114439543,-3,31,8,1,5,8,4,-9
1523010114439543,-2,-19,1,1,-6,0,-1,-1
1523010114440546,3,4,-4,-1,2,6,7,5
1523010114440546,13,18,0,-1,7,-6,-3,0
1523010114461601,-2,-30,-8,-5,-18,-9,-9,-4
1523010114461601,-8,6,1,-2,-4,5,9,0
1523010114463607,2,9,2,6,5,-1,7,-1
1523010114463607,-6,-15,-4,-2,-5,8,2,-2
1523010114475639,1,-9,-1,-1,-3,2,0,-1
1523010114475639,1,0,-3,-3,3,-8,-5,9
1523010114484669,0,-10,1,-2,-5,1,-4,3
1523010114484669,-2,16,-2,-2,2,-4,-14,-7
1523010114498700,8,-12,-6,-2,-7,-12,0,12
1523010114498700,-26,-1,3,-1,-4,6,14,-11
1523010114500706,-5,-14,-3,1,2,1,-7,-9
1523010114500706,-1,1,4,7,3,-6,-9,2
1523010114528780,8,-9,-3,0,32,7,0,8
1523010114528780,6,9,0,-9,-23,5,3,-4
1523010114530786,-10,-15,0,-2,-6,3,7,-1
1523010114530786,-4,20,-2,-3,6,4,2,-2
1523010114534796,5,-19,-2,2,-15,-7,-6,3
1523010114534796,2,15,0,-1,-4,-9,-13,-8
1523010114543820,-10,-18,0,-2,25,-1,-9,-8
1523010114543820,24,23,0,1,-9,4,10,12
1523010114558860,-25,9,2,2,-5,-2,0,-10
1523010114558860,11,-1,-1,0,7,2,-11,-3
1523010114560866,3,-5,0,-3,-4,-8,-5,-2
1523010114560866,-1,-9,0,2,-14,-10,-5,6
1523010114581921,5,13,0,-1,16,18,24,2
1523010114581921,-1,-25,-6,-1,-1,-7,-12,-10
1523010114582924,-2,34,-1,-3,6,-9,-6,2
1523010114582924,-3,-14,-9,-2,-2,7,9,3
1523010114594956,-5,-4,1,1,-28,-6,-12,-21
1523010114594956,-2,2,0,-1,1,-4,-1,6
1523010114603980,3,-1,-1,-3,-3,-6,-7,1
1523010114603980,2,-9,-1,2,13,2,0,-2
1523010114619020,-1,11,-2,-1,-6,1,7,1
1523010114619020,-2,-12,-4,-3,13,3,-1,-1
1523010114621025,-5,0,0,1,-13,2,-2,5
1523010114621025,0,10,2,-1,4,-4,-2,-2
1523010114642081,-5,-8,-3,0,-9,-5,-7,-9
1523010114642081,5,-8,-1,1,15,-2,-3,0
1523010114643084,5,11,-1,-2,-21,0,11,1
1523010114643084,-7,0,0,-3,22,3,-1,-2
1523010114655116,2,5,-2,-1,-6,1,-3,4
1523010114655116,7,0,0,-2,-7,-4,1,7
1523010114664140,-3,-1,0,3,-5,1,-5,-10
1523010114664140,0,-9,-1,-1,6,2,10,3
1523010114679180,2,14,3,-1,2,-4,-2,-1
1523010114679180,8,-2,-2,-2,-5,-1,-3,11
1523010114681185,-1,-9,-2,0,-1,4,7,3
1523010114681185,1,4,2,1,-1,-4,5,3
1523010114701239,-5,-5,-3,-4,1,0,2,-1
1523010114701239,-2,-3,-1,-2,-11,-1,3,3
1523010114703245,6,-5,-3,0,20,-6,-14,8
1523010114703245,-10,-2,-2,-3,-25,2,-1,-11
1523010114715276,0,8,3,3,3,1,14,1
1523010114715276,-4,0,0,1,9,2,-1,1
1523010114724300,-5,5,-2,-7,-22,-6,-4,0
1523010114724300,5,-7,-2,-1,17,4,-4,1
1523010114739340,-11,-22,-3,-1,-5,-8,-7,-12
1523010114739340,1,3,-2,2,4,-5,0,0
1523010114740343,-1,12,5,3,2,2,15,1
1523010114740343,-3,-9,-3,-2,-7,1,-2,6
1523010114761399,-11,2,-6,-2,3,1,1,1
1523010114761399,-3,-16,-2,-2,-1,-1,4,-6
1523010114763404,-5,7,4,-2,-5,-2,-6,-1
1523010114763404,-1,20,4,0,-6,-5,7,-1
1523010114775436,10,-4,-2,1,8,-1,-9,2
1523010114775436,1,-6,-6,0,-6,-1,-1,0
1523010114784465,2,-37,-1,-7,-20,-4,-5,-10
1523010114784465,-1,15,7,6,14,-7,-3,-1
1523010114799500,11,2,-3,-5,0,6,2,10
1523010114799500,0,5,-1,1,-8,3,0,-2
1523010114800503,-6,5,-4,1,5,0,-4,-4
1523010114800503,5,-9,-3,-4,-12,-15,-13,2
1523010114821558,1,33,5,0,-3,0,4,7
1523010114821558,1,2,0,1,15,11,24,-2
1523010114823564,4,-1,-2,1,12,10,13,3
1523010114823564,-8,-37,-14,-3,-4,-9,-16,-9
1523010114835596,4,29,4,3,-4,-11,-11,-2
1523010114835596,3,-5,0,-4,-7,-6,-6,-3
1523010114844620,-4,-9,0,0,5,0,2,-5
1523010114844620,-3,-12,1,2,1,2,4,-2
1523010114866679,-2,-30,-10,-4,-6,-3,-2,0
1523010114866679,-6,16,3,1,-1,-2,-4,1
1523010114868685,6,-27,-9,-3,0,0,-4,0
1523010114868685,5,9,6,0,-3,-4,2,-2
1523010114881718,-14,2,1,5,5,3,-15,-8
1523010114881718,-9,7,1,3,-1,1,-9,-11
1523010114883724,5,-8,-4,-2,-8,2,35,7
1523010114883724,-2,-14,-10,-4,-2,4,1,-12
1523010114895756,7,36,13,5,4,-3,2,4
1523010114895756,-5,17,6,2,-1,-9,-15,-1
1523010114911799,8,4,-6,-4,3,5,-12,1
1523010114911799,-15,-8,-3,-3,-2,2,8,-4
1523010114918818,3,-21,-10,-2,-3,-7,-1,1
1523010114918818,-3,-14,0,-2,-1,-9,-6,-5
1523010114924833,3,4,4,-1,-2,1,-5,-4
1523010114924833,0,-6,-1,1,4,6,2,1
1523010114941878,3,-1,-3,-4,-8,-5,-3,4
1523010114941878,-5,-8,2,6,0,5,6,-1
1523010114942881,-3,0,0,2,5,-4,-8,-2
1523010114942881,3,9,0,2,2,0,-3,-6
1523010114955916,-1,-3,-2,-2,-2,-1,2,2
1523010114955916,6,0,-4,-6,-1,2,2,1
1523010114963937,-1,0,0,1,1,-5,-10,-5
1523010114963937,-1,3,-3,1,2,-3,-9,0
1523010114978977,-1,12,4,-1,-6,2,18,5
1523010114978977,2,-7,-3,-5,-4,6,8,4
1523010114984994,-6,-9,-1,-1,3,-3,-4,-7
1523010114984994,1,-3,-7,-1,-3,0,-7,-2
1523010115002039,3,-2,4,2,-3,-4,-9,-4
1523010115002039,0,7,-1,2,4,-2,-4,5
1523010115003042,4,4,-8,-3,3,-14,2,7
1523010115003042,5,23,15,8,-5,6,7,-3
1523010115015073,-4,-28,-17,-9,-1,5,2,1
1523010115015073,-9,-3,-1,0,3,-3,-2,-4
1523010115024097,-6,-5,-9,-1,-7,-5,-10,-7
1523010115024097,4,-15,-18,-7,3,0,2,8
1523010115038134,1,29,21,5,-2,-11,1,4
1523010115038134,3,-2,-5,-2,-2,19,-1,-6
1523010115045153,-2,-7,2,-4,1,0,7,11
1523010115045153,-8,0,2,-2,-4,-7,-7,-7
1523010115061196,4,-9,-12,-1,-1,0,-4,-1
1523010115061196,-4,-5,1,0,-2,-12,-1,4
1523010115063201,1,5,5,1,0,-1,-1,-8
1523010115063201,16,-1,-1,-3,-3,0,0,1
1523010115084258,-18,-3,-8,-2,1,-2,-2,-4
1523010115084258,-6,-8,-7,-3,-2,-17,-4,-3
1523010115085260,7,1,2,1,2,23,3,3
1523010115085260,-5,2,-1,-3,0,0,7,7
1523010115098294,8,7,14,8,1,7,1,-2
1523010115098294,4,8,-4,-2,-4,-13,-5,-6
1523010115105313,-10,-16,-1,2,0,-1,0,1
1523010115105313,-7,2,-8,-1,7,16,-8,-5
1523010115121356,3,13,7,-4,-4,-12,-1,5
1523010115121356,-6,-5,-4,-4,-2,6,6,-1
1523010115123362,-1,0,7,3,3,2,-3,-3
1523010115123362,-4,6,-2,1,0,1,3,3
1523010115144417,5,-9,-6,-3,-1,-1,-5,-1
1523010115144417,1,3,6,1,2,1,3,5
1523010115145420,-4,7,6,-1,-1,-1,-4,-7
1523010115145420,-11,4,1,-2,-5,-12,-2,-5
1523010115157452,-4,-13,-10,0,0,6,0,1
1523010115157452,9,-2,-10,0,-1,-7,-3,3
1523010115166476,3,7,20,4,3,7,0,2
1523010115166476,-7,1,-1,-1,-4,-11,-3,1
1523010115181516,4,4,-7,-7,-1,7,-3,-5
1523010115181516,-6,2,-1,-8,-10,-17,-5,-3
1523010115183521,-3,-11,-5,4,3,9,9,7
1523010115183521,7,17,4,3,8,6,3,2
1523010115204577,-9,-16,-4,-5,-5,-18,-6,-7
1523010115204577,3,7,4,3,-3,1,1,1
1523010115205580,5,5,-5,-2,-1,-1,-3,1
1523010115205580,-4,8,8,-2,-6,-27,-4,0
1523010115218615,-3,-4,-7,-5,5,32,2,0
1523010115218615,-4,-10,-3,3,3,5,-2,-1
1523010115225633,-9,-7,-3,-2,-2,-12,-3,-4
1523010115225633,2,-8,-6,-1,0,3,0,2
1523010115241676,0,-6,-2,2,-2,-7,-1,2
1523010115241676,7,2,5,-5,-4,0,1,3
1523010115243682,-5,-9,-8,-4,-7,-6,-3,-4
1523010115243682,-1,5,1,-1,5,8,-1,-2
1523010115263735,-7,-5,-3,-5,-8,-4,-2,-3
1523010115263735,5,-9,-2,6,6,2,-3,3
1523010115265740,5,-1,-4,-3,27,5,-1,2
1523010115265740,-3,21,1,-8,-32,-13,-5,-2
1523010115277772,2,6,0,5,-3,-1,-2,2
1523010115277772,-9,-7,-8,-5,5,13,18,-3
1523010115286796,-3,8,5,0,-10,-7,-10,-6
1523010115286796,4,-23,-7,-1,15,13,12,8
1523010115301836,-2,4,7,4,-1,-12,-2,-2
1523010115301836,-2,-9,-2,-3,-2,0,-13,-7
1523010115302839,3,-17,-10,3,3,-5,-8,-3
1523010115302839,-2,0,0,-3,1,0,-12,-2
1523010115323895,5,0,1,3,0,-7,10,-2
1523010115323895,10,-9,-2,-7,4,1,9,8
1523010115325900,-19,41,19,1,-11,-4,-3,-13
1523010115325900,3,-12,-6,1,-8,-4,-9,-5
1523010115337932,4,-4,-6,-4,-4,8,18,7
1523010115337932,-1,-4,4,-3,2,-2,5,-1
1523010115346956,15,-2,-6,-8,-10,-8,3,16
1523010115346956,-8,-2,-2,4,23,22,-5,-8
1523010115361996,-2,41,18,7,6,7,-14,-1
1523010115361996,7,1,-1,-7,-5,-3,7,4
1523010115362999,-2,-33,-7,0,-11,-10,-6,-15
1523010115362999,-1,50,6,6,-4,-17,-4,1
1523010115384057,-11,-35,-15,-8,24,0,-4,-10
1523010115384057,11,1,7,2,-17,4,-13,-7
1523010115390071,-17,-32,-8,0,-6,-16,-6,-15
1523010115390071,10,-4,-1,-3,-3,24,14,-1
1523010115398092,-10,4,2,-2,-1,-2,-4,4
1523010115398092,-15,5,-1,9,3,-7,-27,-2
1523010115407117,5,-7,-8,-7,-3,7,28,5
1523010115407117,13,-2,7,4,-5,1,16,4
1523010115421153,0,1,-2,-1,7,-4,-6,1
1523010115421153,7,-18,-7,-3,-14,-15,-18,-16
1523010115423159,-16,21,1,2,-13,-3,-25,5
1523010115423159,-6,2,-1,0,-9,-9,17,-2
1523010115444215,13,-3,-1,-6,-6,3,4,3
1523010115444215,0,-5,2,2,19,4,-9,-2
1523010115446220,26,-11,-2,8,4,-3,-2,5
1523010115446220,-16,38,13,-4,0,6,11,-8
1523010115458252,-1,-25,-2,5,-9,-8,-3,-1
1523010115458252,-11,22,5,3,4,0,7,-3
1523010115467276,9,4,-2,-1,15,11,6,-3
1523010115467276,10,-44,-14,-6,-3,-13,-19,6
1523010115481314,-19,19,5,-3,-15,-7,-6,-6
1523010115481314,8,-10,5,3,-3,8,22,10
1523010115483319,-8,-3,-7,-8,-1,-4,-4,-1
1523010115483319,-3,0,-4,5,12,-8,-7,-8
1523010115504375,9,-40,-9,-2,-15,0,1,-3
1523010115504375,-5,24,7,-3,-7,0,-4,5
1523010115506381,-7,30,6,-2,-1,-4,4,12
1523010115506381,-9,-23,-5,-3,2,7,-2,-4
1523010115517410,1,-26,-6,-2,9,-4,1,-8
1523010115517410,-16,13,2,1,-3,5,6,-15
1523010115526434,3,-9,-2,-1,-20,-14,-19,-5
1523010115526434,12,13,-3,-3,16,-5,-26,8
1523010115541473,-5,-9,-4,-1,8,9,15,6
1523010115541473,-10,-18,-5,-6,10,37,62,24
1523010115543479,-8,2,7,8,-1,13,6,-24
1523010115543479,-10,-13,-5,-2,-16,-9,-5,17
1523010115564534,19,6,-2,-3,-5,-17,-16,-7
1523010115564534,-39,-17,-1,4,9,-8,-27,-33
1523010115565537,-2,40,13,0,-1,-6,-20,10
1523010115565537,16,-45,-13,-5,-2,-17,-2,-2
1523010115577569,4,43,20,10,13,30,15,14
1523010115577569,-5,-12,-5,2,-4,-16,-32,-5
1523010115586594,3,-4,-2,2,19,5,-14,8
1523010115586594,19,7,-4,-2,-26,-8,29,2
1523010115601633,-2,-39,1,-8,1,31,46,-7
1523010115601633,-15,40,10,3,-7,-3,-4,5
1523010115603639,-2,-12,-5,0,1,3,1,4
1523010115603639,14,11,3,4,6,-5,-30,-4
1523010115623692,-7,-7,-7,-2,-10,-26,-20,-12
1523010115623692,16,-8,-8,-5,-4,-9,-18,5
1523010115625698,-6,-31,-10,-11,-29,-19,-30,-7
1523010115625698,17,53,17,8,14,30,34,31
1523010115637729,20,-37,5,-2,19,57,65,-2
1523010115637729,-23,74,25,11,-2,-19,-12,-22
1523010115646753,-6,-6,-13,-5,-13,-11,-7,-9
1523010115646753,9,-16,-11,-4,0,-7,-17,1
1523010115661793,8,21,2,5,-14,-25,-36,4
1523010115661793,6,-32,-6,-3,2,-3,-23,-11
1523010115667810,3,-4,2,2,1,3,28,6
1523010115667810,-16,-19,-2,0,5,8,4,-4
1523010115683852,-6,36,8,-2,-4,-13,-12,1
1523010115683852,23,-21,-3,1,6,24,69,19
1523010115685858,-12,-14,-1,1,-5,-15,-27,-13
1523010115685858,-7,-21,-7,1,14,-1,-3,-16
1523010115697889,-21,17,2,0,-36,-13,-15,3
1523010115697889,4,-13,-5,-9,-15,-11,-37,1
1523010115706913,15,-4,1,1,25,21,31,14
1523010115706913,-12,10,4,1,12,3,11,0
1523010115720950,-10,-8,-12,-3,-9,-23,-31,-9
1523010115720950,14,6,2,1,7,13,23,10
1523010115727969,6,2,-1,1,-12,1,4,13
1523010115727969,-11,-6,-3,-7,-13,-10,-25,-24
1523010115745014,-7,28,10,6,22,2,-7,1
1523010115745014,-6,-23,-15,-8,-17,-2,11,-4
1523010115746018,13,-8,-2,-2,29,14,17,-1
1523010115746018,-18,19,1,-2,-9,-8,-11,-4
1523010115767073,1,24,5,10,15,-41,-70,-7
1523010115767073,21,-47,-12,-15,-36,18,54,14
1523010115768076,-32,36,17,6,34,44,68,4
1523010115768076,2,-8,-3,-2,-10,-3,-27,-12
1523010115781110,-2,-24,-7,-6,2,-3,-6,-3
1523010115781110,11,-2,-4,3,2,-27,-42,1
1523010115783116,3,5,-5,0,-10,-10,-4,1
1523010115783116,-3,14,5,1,15,10,16,2
1523010115804172,18,-28,-8,-4,-15,-7,2,3
1523010115804172,-16,25,4,1,11,7,10,-6
1523010115806177,4,-4,3,-2,-19,13,4,0
1523010115806177,-2,-1,-8,-4,5,-2,-12,2
1523010115818209,-5,-17,-5,2,12,2,-6,-3
1523010115818209,6,3,-3,0,-1,-10,-22,-1
1523010115827233,-6,-12,-1,-3,-5,10,28,-3
1523010115827233,-7,33,6,2,-5,6,11,6
1523010115841270,5,-25,-9,-1,0,5,18,0
1523010115841270,-5,-14,-2,-6,-2,-11,-27,-2
1523010115843276,3,35,9,10,28,-18,-41,-7
1523010115843276,7,-18,-6,-6,-47,-12,2,2
1523010115864332,-12,-4,-3,-11,-7,27,54,-14
1523010115864332,-3,-8,0,4,5,1,0,3
1523010115865334,-4,-3,-4,-5,-6,-14,-13,-3
1523010115865334,10,-3,2,3,10,-3,7,3
1523010115877367,-9,2,-1,-3,-29,-34,-80,-6
1523010115877367,-5,5,-7,-1,29,24,58,10
1523010115886391,2,2,2,-5,-2,24,49,-13
1523010115886391,-2,27,7,5,-5,-4,1,3
1523010115901430,4,-22,-4,-1,-3,-3,1,0
1523010115901430,0,-11,-2,2,-6,-21,-46,-6
1523010115907446,3,-14,-6,-3,-8,-13,-10,8
1523010115907446,-9,-16,-1,-3,4,9,24,2
1523010115924492,-2,0,1,-2,-1,0,13,-2
1523010115924492,-4,-17,0,3,23,-4,-11,-8
1523010115925494,2,11,0,-3,-35,-16,-48,5
1523010115925494,-7,-4,-1,-5,2,14,42,4
1523010115937526,-1,4,7,2,-4,5,14,9
1523010115937526,-2,11,1,2,5,5,-14,-6
1523010115946551,2,6,4,4,1,-8,-36,-12
1523010115946551,-2,-5,-7,-3,1,-16,-8,-7
1523010115960588,4,-16,-11,-9,0,8,29,11
1523010115960588,4,22,11,3,-2,2,16,-2
1523010115967607,5,-19,-5,0,9,-1,-22,1
1523010115967607,-1,3,-6,-3,11,-1,-39,2
1523010115984652,2,1,1,3,-11,4,24,3
1523010115984652,6,-33,-3,-6,-16,-22,2,2
1523010115985655,1,-13,-8,-4,-1,13,7,-1
1523010115985655,-7,10,2,2,19,-8,-7,-1
1523010116006710,1,20,-1,-5,-15,4,-9,-11
1523010116006710,10,52,20,7,5,18,1,1
1523010116008716,1,-29,-8,-2,2,-11,11,-7
1523010116008716,-3,-10,-5,-3,-2,-1,-3,7
1523010116020748,-2,1,-6,3,16,-11,-15,-11
1523010116020748,2,-7,-3,-2,-5,13,35,10
1523010116027766,0,18,10,0,8,4,-9,-1
1523010116027766,-2,-19,-3,1,-13,-9,7,-5
1523010116043809,-3,17,10,4,22,10,8,7
1523010116043809,3,-68,-15,-4,-23,-37,-52,-5
1523010116045815,-9,32,10,-5,1,17,42,-5
1523010116045815,5,14,1,7,10,15,11,19
1523010116066871,4,7,12,0,4,5,-10,-3
1523010116066871,-11,-16,-11,-3,4,-1,2,-13
1523010116067873,1,1,-1,1,-4,-31,-28,-7
1523010116067873,1,7,-4,-1,-14,8,-10,-14
1523010116080908,2,4,-6,1,15,13,13,7
1523010116080908,-6,-6,-4,-4,0,9,9,4
1523010116087926,-9,-11,1,2,-12,-5,5,-2
1523010116087926,0,8,1,1,0,-4,2,-9
1523010116103969,-1,-32,-6,-2,-4,-12,-17,-5
1523010116103969,2,23,-1,1,5,11,-9,-1
1523010116105975,-4,-31,-9,-2,-9,-14,16,-7
1523010116105975,-4,44,23,3,4,17,6,1
1523010116127030,-1,4,-8,-1,0,-2,-5,-6
1523010116127030,-6,-12,-6,-1,-8,-12,-13,-9
1523010116128033,5,1,-7,-4,-1,-1,-20,-6
1523010116128033,5,-3,-4,-2,1,0,21,31
1523010116141068,-9,-14,1,-3,1,17,8,2
1523010116141068,2,11,0,-1,-3,-1,6,-15
1523010116148086,-7,-9,-6,-5,0,-4,-8,0
1523010116148086,7,3,-2,2,-5,3,-15,-14
1523010116164129,-1,-15,-10,-6,-4,-8,2,7
1523010116164129,7,26,18,5,7,-5,0,10
1523010116166134,-7,-12,-4,-3,-4,3,-4,-4
1523010116166134,-8,-4,-7,-2,-6,-10,-9,-9
1523010116186188,6,11,2,3,6,2,17,13
1523010116186188,0,-9,-9,1,0,4,1,1
1523010116188193,4,10,4,-3,0,5,9,4
1523010116188193,-6,-14,-10,-3,-3,-4,-7,0
1523010116200225,-2,17,8,2,-6,-2,-8,-1
1523010116200225,-4,13,14,6,3,-7,-2,-1
1523010116209249,6,4,-6,1,6,-3,14,23
1523010116209249,1,-14,-13,-7,-5,-2,-4,-11
1523010116224289,1,6,6,0,-2,-2,-7,-7
1523010116224289,1,0,-6,-5,-4,2,4,5
1523010116225292,0,2,12,6,6,5,-5,-4
1523010116225292,-4,-2,-4,-4,0,-9,-19,-15
1523010116246348,-4,-9,-10,-5,-10,-22,-7,3
1523010116246348,2,3,1,-3,-1,2,13,9
1523010116248353,-2,0,2,-3,0,10,2,1
1523010116248353,2,-4,-2,-2,-3,-4,7,1
1523010116260385,-4,0,-2,1,1,10,1,-5
1523010116260385,-3,-1,3,-4,-4,-4,-6,-1
1523010116269409,3,-1,-8,3,1,0,-1,-1
1523010116269409,1,1,2,3,5,1,-9,-2
1523010116284449,-5,3,0,-1,2,5,-3,1
1523010116284449,-4,-8,-6,-4,-3,-2,4,3
1523010116285452,0,-7,-2,-1,-3,-6,3,7
1523010116285452,-1,9,6,0,-1,28,1,2
1523010116306508,1,-4,-3,1,0,-21,-14,-20
1523010116306508,3,4,-8,-1,1,5,6,6
1523010116308513,0,4,11,5,2,3,19,16
1523010116308513,-1,0,-1,-1,-3,-1,-8,-8
1523010116329569,3,-6,-11,-3,4,-22,-9,-11
1523010116329569,-1,5,2,-1,-6,-2,1,2
1523010116330572,-2,-21,-2,-4,2,17,3,-1
1523010116330572,2,15,6,1,1,0,10,16
1523010116344609,-1,-1,4,3,4,12,-9,-20
1523010116344609,-2,-11,-10,1,1,-27,-13,-5
1523010116345612,-8,3,-5,-9,-12,-5,-2,-2
1523010116345612,-2,-7,8,6,4,4,12,10
1523010116366668,-2,2,0,0,-3,1,5,12
1523010116366668,-4,-7,-6,0,0,1,-7,-14
1523010116368673,2,-2,3,1,-2,-10,-17,-8
1523010116368673,-1,3,-6,-3,-1,-2,1,-6
1523010116380705,-7,-4,-4,-3,-4,6,-6,-3
1523010116380705,1,-3,5,0,-2,4,4,6
1523010116389729,-2,-1,-4,2,5,10,9,-9
1523010116389729,2,4,-4,-8,-6,-30,-15,1
1523010116403766,-3,-1,6,5,-8,9,8,-2
1523010116403766,0,11,2,-2,2,7,-1,1
1523010116405772,4,-1,0,1,0,-19,-6,5
1523010116405772,-4,-1,-5,-1,13,29,-20,-11
1523010116426828,3,-4,-1,-3,-8,-8,8,8
1523010116426828,-1,-10,-1,-2,-1,23,9,-7
1523010116427830,2,10,1,2,1,-5,-3,-1
1523010116427830,5,11,2,-3,-14,-30,13,11
1523010116439862,-4,3,-1,0,4,9,-7,7
1523010116439862,-4,-10,-4,-1,3,3,15,-2
1523010116448886,5,7,-8,-4,5,-9,-12,-7
1523010116448886,-6,3,3,-1,-13,-18,-8,-4
1523010116463926,-6,8,0,-3,0,-28,-16,-3
1523010116463926,3,-10,-6,-4,4,27,6,0
1523010116465932,-1,-13,-5,2,8,43,26,6
1523010116465932,2,-12,-4,2,0,4,-7,-6
1523010116486988,7,6,4,-2,4,-7,23,8
1523010116486988,-2,9,-1,0,-12,-41,-26,-5
1523010116487990,-3,-4,-4,-4,-3,-6,-22,-5
1523010116487990,6,15,0,2,6,5,2,-10
1523010116509046,0,-12,-3,-1,-15,12,5,-4
1523010116509046,-16,-5,2,2,18,11,6,0
1523010116511052,-1,0,-2,-3,0,6,9,6
1523010116511052,2,0,0,5,-5,-17,-6,-12
1523010116524086,1,1,-2,0,6,-25,2,1
1523010116524086,5,0,4,5,1,39,-12,-2
1523010116526092,0,6,-2,-2,9,-21,5,2
1523010116526092,-9,-15,-8,-10,-21,24,24,2
1523010116547148,0,4,2,2,0,0,-6,4
1523010116547148,-2,6,1,-7,-16,-64,-8,6
1523010116548150,-2,-9,-5,0,-1,47,-20,-15
1523010116548150,3,-5,-1,3,24,11,16,5
1523010116560182,-9,-3,-2,-4,-9,-2,-4,-2
1523010116560182,-1,-15,-1,0,-14,-9,4,3
1523010116569207,2,17,1,0,0,-32,-7,-5
1523010116569207,-8,8,0,2,-13,-14,-18,-4
1523010116584246,3,-17,-2,-1,13,40,18,8
1523010116584246,3,15,1,2,-3,-25,4,-11
1523010116586252,-7,-17,-7,-14,-16,5,1,-3
1523010116586252,-5,-9,5,1,10,18,11,6
1523010116606305,4,-4,1,1,5,-1,-15,-4
1523010116606305,-2,3,-1,-2,-3,-11,-13,-6
1523010116608310,0,4,-1,5,1,-13,13,0
1523010116608310,-5,-2,-3,-2,-15,-37,-25,-7
1523010116620342,5,-15,-3,7,40,20,16,2
1523010116620342,5,35,9,-21,-40,43,19,-1
1523010116629366,-3,-11,2,-1,-16,-12,7,1
1523010116629366,-1,-4,-3,-4,-1,-5,-9,0
1523010116644406,2,-9,3,4,-3,-32,-37,-9
1523010116644406,-2,-14,-7,6,7,-9,10,-5
1523010116645409,-7,13,1,0,22,37,23,11
1523010116645409,3,-16,-3,-1,9,1,4,-5
1523010116666465,-1,2,-2,-3,-28,-22,-6,-5
1523010116666465,6,-3,3,4,28,15,-12,6
1523010116668470,3,-17,-6,-6,-28,-31,-29,2
1523010116668470,3,29,5,8,37,-12,31,7
1523010116680502,-6,-37,-15,-22,-58,34,4,-2
1523010116680502,1,17,11,7,23,22,8,10
1523010116689527,3,6,-5,5,-4,-13,-8,-4
1523010116689527,1,-7,-2,-2,4,-8,-17,0
1523010116704566,-7,6,3,2,0,-8,7,-1
1523010116704566,-3,-16,-9,-6,-17,-10,9,1
1523010116705570,-5,-6,0,2,14,11,11,1
1523010116705570,-4,2,-4,-5,-20,-4,-10,-3
1523010116726625,0,18,4,3,23,14,7,1
1523010116726625,2,-14,-6,-8,-34,-26,-23,-1
1523010116728630,5,16,5,4,21,-1,-28,-6
1523010116728630,-2,-41,-5,3,-10,17,5,-11
1523010116740662,-5,39,3,-6,-4,-3,28,1
1523010116740662,-14,-16,2,8,80,13,11,-11
1523010116749686,-5,14,-1,-7,-79,-24,-23,-2
1523010116749686,20,24,2,0,17,33,17,10
1523010116763724,-4,-12,-4,2,8,-11,-14,-2
1523010116763724,1,-8,-6,5,4,-5,-19,-18
1523010116765729,-7,-18,-6,-1,27,-5,0,-4
1523010116765729,-12,-17,-6,-8,-25,-15,-15,-12
1523010116786785,2,1,4,0,-2,4,12,6
1523010116786785,-5,-4,-3,-3,0,11,12,11
1523010116787788,3,1,5,10,3,-5,-3,2
1523010116787788,5,2,-3,0,-19,-12,-18,2
1523010116799820,-6,-6,0,-1,3,4,9,6
1523010116799820,8,6,2,0,5,3,2,13
1523010116808843,3,28,2,2,-19,3,3,-1
1523010116808843,-10,-13,1,3,7,4,25,-11
1523010116823884,-5,-16,-1,-3,-17,-13,-5,-2
1523010116823884,5,0,-1,1,17,22,-2,14
1523010116829900,-25,-8,0,-4,20,20,22,-26
1523010116829900,5,-4,-4,-2,-35,-45,-31,7
1523010116846945,4,-17,-4,3,8,11,-17,-6
1523010116846945,-4,21,4,1,30,26,24,1
1523010116847948,9,20,-1,-4,-28,-12,0,13
1523010116847948,2,8,3,-3,6,14,13,-2
1523010116859980,3,-7,1,4,23,-2,2,-3
1523010116859980,-7,-8,-7,-4,-71,-51,-40,-14
1523010116869004,10,1,-1,0,21,13,-7,14
1523010116869004,-8,-10,-5,-5,45,23,22,1
1523010116892065,3,8,-2,-9,-51,-3,4,1
1523010116892065,-6,-6,-2,-3,-1,17,-2,13
1523010116893068,-9,-4,-4,0,-19,-26,-9,-41
1523010116893068,-10,3,0,1,14,-7,-29,1
1523010116907105,12,15,4,4,11,-3,-9,0
1523010116907105,7,-2,-6,-5,-28,-12,24,-2
1523010116908108,9,-1,-1,-1,17,14,0,25
1523010116908108,-3,-14,1,2,9,13,20,-8
1523010116929163,-37,-12,-2,-9,-12,9,-17,-22
1523010116929163,7,5,4,13,-3,-12,-7,3
1523010116931169,3,-7,-5,-7,-6,-8,1,-3
1523010116931169,1,10,-2,-31,3,6,-4,7
1523010116943201,1,9,-5,4,-4,-20,-15,5
1523010116943201,-14,-18,0,26,24,25,8,-6
1523010116950220,10,-5,1,-7,18,3,7,-12
1523010116950220,11,11,-3,-40,-57,-20,-3,7
1523010116965259,15,7,7,-15,-5,-22,-11,-8
1523010116965259,-8,-8,-9,-5,-65,-76,-34,4
1523010116974284,-41,-16,-5,72,110,61,26,-13
1523010116974284,11,7,9,22,48,46,10,30
1523010116989324,22,4,2,1,-31,8,13,-15
1523010116989324,21,0,-2,-39,-4,1,1,-18
1523010116990326,-26,-9,-5,-29,-25,-27,-14,1
1523010116990326,-9,1,-7,-4,-39,-51,-17,11
1523010117012385,-9,0,0,-12,37,18,-8,-26
1523010117012385,8,4,5,14,11,16,1,5
1523010117017398,6,-4,-3,-14,-35,-24,3,6
1523010117017398,-5,1,-4,13,21,12,3,2
1523010117026422,5,2,1,10,-2,-4,8,15
1523010117026422,-6,-6,-2,-6,-7,-5,-7,-17
1523010117028428,0,6,-1,-16,-5,8,3,13
1523010117028428,-3,-8,-2,26,9,6,0,-16
1523010117049483,7,-14,-3,11,17,5,4,32
1523010117049483,-12,-2,4,-18,1,6,1,-27
1523010117051489,9,6,2,-20,-18,-1,-3,8
1523010117051489,10,18,-1,15,-4,-10,-6,0
1523010117063521,-19,-7,-3,30,23,3,-1,-3
1523010117063521,-3,1,-2,3,11,-1,-7,8
1523010117070540,7,-3,-2,-16,-17,-3,9,2
1523010117070540,-4,-7,-2,-20,-19,-1,4,-9
1523010117094604,5,4,3,1,-4,-2,-5,7
1523010117094604,9,-6,4,-2,9,8,3,26
1523010117096609,-30,-16,-8,2,-7,-20,-15,-36
1523010117096609,-4,4,-1,-7,0,1,-7,-6
1523010117109643,4,-4,-1,2,7,11,16,19
1523010117109643,7,4,2,0,-7,1,0,-14
1523010117110646,10,8,5,-14,-15,-6,-1,6
1523010117110646,-13,-9,-8,28,24,0,-6,-12
1523010117123681,-5,-2,-3,-17,-8,-8,-5,-3
1523010117123681,-15,-6,-6,9,0,6,-2,-12
1523010117130700,5,-3,2,9,13,16,10,18
1523010117130700,18,6,2,-38,-48,-10,2,3
1523010117146742,-7,-5,-6,-20,10,-7,3,4
1523010117146742,-31,-20,-3,49,30,2,-5,-26
1523010117148748,15,-2,0,1,-13,-30,-28,7
1523010117148748,7,-11,-5,6,16,25,21,25
1523010117169803,12,25,7,-19,-28,13,14,-19
1523010117169803,8,4,1,-15,-1,1,6,13
1523010117171809,4,7,1,14,4,-2,-1,1
1523010117171809,0,-1,-4,0,1,-18,-14,-12
1523010117182838,-5,-6,-2,2,0,-9,-10,3
1523010117182838,3,0,2,-3,-1,0,-2,6
1523010117191863,6,7,-3,5,4,3,-11,-7
1523010117191863,6,19,3,-4,-4,3,2,8
1523010117206902,-7,1,4,7,10,11,30,-8
1523010117206902,6,-3,-3,-7,-7,-5,-5,9
1523010117207905,-1,-1,-1,-1,0,-3,1,0
1523010117207905,-4,-1,-4,1,-9,-6,-15,-7
1523010117228961,0,-2,-3,12,8,-1,-9,15
1523010117228961,9,-4,3,-13,4,2,6,2
1523010117230967,-6,-7,-3,6,6,8,12,0
1523010117230967,-13,-3,-2,-4,-3,-6,-5,-16
1523010117242998,7,-6,-1,5,1,-10,-15,-3
1523010117242998,7,-6,-5,-10,-7,-1,17,13
1523010117252022,6,41,20,7,4,9,21,-4
1523010117252022,-14,-7,-6,0,-2,2,1,-13
1523010117267062,3,1,-2,-5,-8,-8,-9,1
1523010117267062,-3,-12,-2,0,5,-2,-15,-10
1523010117268066,9,-7,-6,4,-10,-4,2,12
1523010117268066,-1,0,-2,1,4,9,12,2
1523010117289121,-6,-3,-4,-2,-7,-35,-16,-11
1523010117289121,-1,1,4,-3,-6,19,2,5
1523010117291126,-9,-12,-2,4,20,16,11,4
1523010117291126,4,5,1,1,2,-8,-3,3
1523010117303158,-3,-38,-21,-7,-3,7,1,-4
1523010117303158,-2,13,-2,-2,-11,-19,-9,-13
1523010117312182,-12,37,23,12,-1,-6,-13,-8
1523010117312182,3,-1,-3,-6,-1,5,2,7
1523010117327222,1,6,6,1,-3,-9,9,-2
1523010117327222,-1,-25,-17,-3,3,-6,-6,1
1523010117329227,2,-26,-13,-14,-2,44,5,-3
1523010117329227,-6,0,7,4,-3,-61,-8,-2
1523010117349281,4,-9,-8,1,-3,26,2,1
1523010117349281,-3,6,17,-1,1,9,6,6
1523010117351287,1,-8,-3,1,-4,-14,-7,0
1523010117351287,-5,3,1,-2,-13,4,-6,-12
1523010117362315,2,3,0,3,10,-7,-1,1
1523010117362315,-4,-7,0,0,10,-6,-6,-2
1523010117371339,9,8,0,2,25,7,-1,5
1523010117371339,6,0,-2,3,-3,9,10,4
1523010117386379,-20,12,4,-3,-9,1,6,5
1523010117386379,1,13,16,6,-5,7,6,0
1523010117388385,7,-9,-7,-7,-21,-36,-17,-7
1523010117388385,-1,9,-1,1,0,17,4,4
1523010117409441,-5,-4,-5,-7,5,3,-4,4
1523010117409441,4,-1,-2,-1,4,2,-1,-5
1523010117410444,-1,-5,-11,-6,-3,-7,-1,2
1523010117410444,8,1,0,3,-3,-2,-11,-3
1523010117422475,0,6,11,5,9,27,15,18
1523010117422475,-4,11,8,0,1,-2,21,9
1523010117439521,-6,-6,-6,-2,-7,-13,-8,-4
1523010117439521,-7,-6,-3,-2,4,0,-3,-4
1523010117446539,7,0,1,-1,0,-5,-9,-7
1523010117446539,0,-9,-4,-8,-5,-3,-11,-2
1523010117448545,-6,8,4,6,-2,-1,1,0
1523010117448545,0,-3,-9,-2,4,-10,-4,-3
1523010117469601,0,-10,-1,-6,-13,-13,-11,-16
1523010117469601,-2,-22,-7,-4,5,19,17,6
1523010117470604,-5,20,16,5,1,29,9,6
1523010117470604,-3,-6,0,-3,-3,1,1,1
1523010117482635,4,1,-2,1,3,-13,-8,2
1523010117482635,-6,14,-5,-3,-3,2,-19,-9
1523010117491660,-1,-37,-19,-11,-14,-12,2,-4
1523010117491660,-6,0,5,5,9,11,20,7
1523010117506699,0,7,5,1,4,-2,-3,-2
1523010117506699,-1,-6,-9,1,-9,-9,-16,-12
1523010117508705,0,3,0,-9,-5,-8,-1,6
1523010117508705,2,8,3,-1,-1,3,-5,-2
1523010117528758,-2,-8,-4,-3,-3,11,0,-7
1523010117528758,5,-3,5,8,7,12,2,16
1523010117530764,-1,3,1,-2,2,-7,-5,-9
1523010117530764,1,-12,-5,-4,-16,-25,-13,2
1523010117542795,2,-2,0,-3,2,5,11,12
1523010117542795,3,7,5,1,2,9,5,7
1523010117551820,-2,-1,-7,-5,-3,3,3,-12
1523010117551820,4,16,8,6,2,8,11,6
1523010117566860,0,-8,-5,-1,11,-3,-8,-2
1523010117566860,-5,14,1,3,-13,0,-3,3
1523010117567862,13,4,0,-3,-4,-10,-7,3
1523010117567862,-8,-14,-12,-4,-3,-2,-15,-12
1523010117588918,2,8,-1,2,-6,-5,3,-5
1523010117588918,-4,-6,-1,-7,2,-6,0,0
1523010117590924,2,4,0,3,3,-16,-7,-1
1523010117590924,-7,-7,-7,-10,2,17,-14,-22
1523010117602956,1,-19,1,-1,0,7,12,2
1523010117602956,0,8,1,-4,-6,-2,3,-4
1523010117611979,0,0,-1,0,0,5,2,6
1523010117611979,1,-18,-7,2,7,-7,0,0
1523010117627019,0,23,10,-1,9,-5,-20,-5
1523010117627019,-11,-18,-10,-3,-3,-8,-3,-6
1523010117628022,11,6,-1,3,-1,2,21,5
1523010117628022,-4,-11,-2,-4,4,3,-10,-1
1523010117649078,-2,6,4,2,-22,-17,5,-3
1523010117649078,3,-3,-3,1,19,16,-13,0
1523010117651084,4,0,-3,-6,-1,11,9,11
1523010117651084,3,-15,0,1,-12,2,10,0
1523010117663115,0,5,-5,-6,-9,-8,-17,-2
1523010117663115,8,20,7,6,8,-11,1,1
1523010117672140,-3,-6,-2,2,-8,1,3,0
1523010117672140,9,2,-3,-7,-4,-10,-7,-3
1523010117687179,-13,-14,3,-4,-9,0,16,7
1523010117687179,10,23,4,5,12,3,6,1
1523010117693195,5,-6,1,3,1,0,-7,-3
1523010117693195,-3,-7,1,-5,5,-2,5,5
1523010117709238,-3,-1,2,7,5,2,-1,-6
1523010117709238,-6,-30,-11,-4,-3,-1,6,-9
1523010117711244,2,10,1,-3,-4,0,-1,15
1523010117711244,9,-1,4,5,-18,-14,-9,3
1523010117723276,-5,-7,-4,-4,18,8,-8,-3
1523010117723276,0,3,5,-2,-10,5,20,-5
1523010117732300,-13,-2,-7,-3,33,1,-8,-3
1523010117732300,-12,-9,8,9,-26,2,4,-4
1523010117746337,-2,-16,-8,-7,-12,4,5,10
1523010117746337,-16,-3,-3,-2,-2,-10,-18,-17
1523010117748342,0,9,-5,-11,-5,2,-4,4
1523010117748342,1,23,8,5,25,10,18,0
1523010117768395,-8,-7,0,5,-2,2,3,0
1523010117768395,6,6,-4,-7,-16,-15,-8,4
1523010117776417,-13,14,-1,-1,-12,-10,-11,-8
1523010117776417,-10,-11,0,0,14,2,-16,-12
1523010117782433,-3,-13,-5,2,3,-1,-9,-21
1523010117782433,1,-5,-4,-5,-6,5,13,15
1523010117791458,17,8,1,-4,-2,3,11,15
1523010117791458,-1,-23,-4,-2,-7,0,-9,-3
1523010117806497,6,11,4,1,0,-2,-2,7
1523010117806497,-8,-8,-1,1,1,-4,-10,-11
1523010117812513,-12,-17,-4,6,8,-4,-11,-13
1523010117812513,-18,-10,0,-4,-27,-4,12,-9
1523010117829558,6,7,-1,2,-1,12,12,9
1523010117829558,0,4,-4,-7,22,20,0,-9
1523010117830561,7,-32,-2,-4,-16,-1,0,6
1523010117830561,-10,-5,0,-4,15,-2,-3,0
1523010117842593,-30,15,5,6,-7,-17,-20,-16
1523010117842593,-1,-8,-10,-2,-15,-13,-7,7
1523010117851617,3,9,1,4,3,4,-3,-17
1523010117851617,10,-14,-1,-2,5,2,-1,8
1523010117865654,2,-2,-4,-7,-8,-1,1,3
1523010117865654,-6,3,1,3,4,2,-1,-5
1523010117872673,-7,-18,-2,1,3,3,7,11
1523010117872673,-1,2,-2,-4,-6,-1,-5,-17
1523010117888715,6,3,-2,-2,27,0,1,10
1523010117888715,-4,-17,-5,-4,-32,-11,-19,-16
1523010117890721,-3,7,-2,1,3,1,6,-2
1523010117890721,4,7,1,-1,7,8,5,6
1523010117911777,15,11,2,1,4,8,4,-1
1523010117911777,2,-18,-2,1,13,-15,-8,5
1523010117912780,-3,27,4,1,-28,-13,-18,-6
1523010117912780,5,-8,-3,-2,13,6,17,8
1523010117925814,-7,-14,-3,-3,-7,4,5,-11
1523010117925814,2,10,5,2,-4,-3,1,1
1523010117932835,-5,-6,-6,0,-2,-7,-3,-11
1523010117932835,2,11,5,6,11,3,-7,8
1523010117948875,7,-7,-7,-6,-4,1,-1,-3
1523010117948875,-4,14,2,1,2,1,5,-2
1523010117950881,7,8,5,-1,-5,-7,-13,-3
1523010117950881,-4,-9,-3,-1,9,-9,-16,-6
1523010117971937,5,6,-2,-4,-11,5,13,3
1523010117971937,1,0,2,0,-4,1,6,8
1523010117972939,-3,-10,-5,0,12,9,10,-4
1523010117972939,3,7,4,-2,-5,-5,-5,3
1523010117985974,2,-11,-2,-3,1,-8,-12,1
1523010117985974,-5,-13,-3,-1,-6,-6,20,3
1523010117992993,0,28,5,3,18,7,-7,-3
1523010117992993,13,-29,-8,-4,-13,5,13,7
1523010118008033,-31,29,7,1,1,1,-3,-9
1523010118008033,6,-6,-7,-3,-3,1,-7,0
1523010118017057,-3,-26,-2,1,-4,-6,-1,9
1523010118017057,8,11,4,-1,-1,6,2,-1
1523010118032097,3,-18,2,3,2,11,14,2
1523010118032097,0,2,0,0,-1,-9,-8,-7
1523010118033100,3,32,2,-4,-17,0,-5,0
1523010118033100,-7,4,0,-14,-2,0,-2,2
1523010118046134,8,-4,-5,6,-15,-4,3,-1
1523010118046134,1,-5,5,10,9,13,24,10
1523010118053153,0,-13,-4,7,14,-3,-21,-11
1523010118053153,-3,-4,-4,-6,-26,-2,5,-2
1523010118069195,2,3,-1,-5,8,-1,-9,2
1523010118069195,-5,-10,-6,-14,-11,-6,-19,-6
1523010118071201,0,-9,-3,1,3,-4,5,-4
1523010118071201,4,12,8,8,8,-5,1,-1
1523010118091254,-10,-11,-5,-3,-5,-1,-5,-7
1523010118091254,1,17,3,3,5,4,9,3
1523010118093259,0,5,-2,-1,6,2,5,4
1523010118093259,-7,-7,-2,0,7,0,-4,0
1523010118105291,6,-11,0,0,-4,-7,4,-7
1523010118105291,-7,-6,0,-1,-1,-8,-13,-10
1523010118114316,-5,3,-3,-3,-6,-5,0,-1
1523010118114316,2,-13,-5,-2,-9,1,1,6
1523010118129355,5,11,2,4,6,-8,-21,-10
1523010118129355,-5,2,2,-4,-11,8,10,5
1523010118131361,-7,2,6,-3,-3,3,14,2
1523010118131361,2,5,-3,3,7,-2,-8,1
1523010118151414,-13,-19,2,2,5,-3,-5,-7
1523010118151414,-3,4,-7,4,13,-6,-11,2
1523010118153420,1,-13,-8,-5,-10,-8,-14,1
1523010118153420,-16,28,13,-1,-2,1,3,2
1523010118165451,-1,-25,-4,-5,-14,3,15,6
1523010118165451,9,1,5,5,38,4,2,1
1523010118174476,0,-21,-5,0,-5,3,5,0
1523010118174476,2,8,-2,0,-7,-3,-15,-5
1523010118197537,8,21,-1,-3,-15,-14,2,0
1523010118197537,1,11,-2,2,-7,0,-4,0
1523010118198540,8,15,-3,2,17,11,-2,3
1523010118198540,1,0,-2,3,8,7,12,0
1523010118211574,-1,0,2,-2,4,-1,4,-1
1523010118211574,4,-12,-1,-6,-12,-5,12,-1
1523010118213579,-10,-3,-4,-5,-5,-8,-9,-10
1523010118213579,1,-7,-1,1,-2,-3,0,2
1523010118225611,9,-4,1,2,10,5,-6,7
1523010118225611,1,-24,-6,-4,-5,-4,-15,2
1523010118234636,-5,9,2,-1,-11,-10,5,-14
1523010118234636,1,-5,-2,3,3,6,9,2
1523010118248672,3,0,1,-4,8,7,-3,4
1523010118248672,-3,-4,-1,-1,-4,-3,-6,-4
1523010118250678,1,-14,-6,-3,-1,-2,-11,-7
1523010118250678,2,20,4,2,3,-2,18,4
1523010118271734,-3,21,0,2,-10,-7,-16,-8
1523010118271734,-7,-13,-6,-5,-2,1,9,-8
1523010118273739,-1,5,3,1,-10,2,8,2
1523010118273739,-1,5,2,1,8,1,-12,-5
1523010118285771,-2,-18,-2,2,3,-6,-5,1
1523010118285771,1,3,1,0,-2,7,-8,-2
1523010118294795,4,-3,-4,-5,0,-1,10,5
1523010118294795,-5,-8,-6,-7,-4,8,-15,-12
1523010118308833,0,4,4,2,-5,-16,9,7
1523010118308833,-2,-5,6,1,3,13,11,-9
1523010118310838,-2,7,2,0,2,2,3,5
1523010118310838,-1,-14,-8,-2,-3,-4,-3,-3
1523010118331894,3,-1,-3,-2,-3,-1,-8,-2
1523010118331894,4,-5,0,1,4,5,-11,-5
1523010118332897,2,41,8,3,0,1,-4,-2
1523010118332897,-6,-25,-6,1,-1,-7,20,12
1523010118344928,-3,-8,-6,-5,-4,3,3,-8
1523010118344928,0,10,4,1,0,-4,-2,4
1523010118353953,4,-13,-7,0,1,8,-6,5
1523010118353953,1,12,2,-1,-8,-16,-15,-4
1523010118369995,2,10,-1,-3,4,-5,4,2
1523010118369995,-6,-9,2,1,-1,9,6,-8
1523010118370998,2,12,0,2,6,3,2,1
1523010118370998,1,-6,-4,-3,-11,-27,-3,2
1523010118392054,-4,-4,0,-1,-5,20,3,2
1523010118392054,1,-6,-8,1,1,4,-13,-8
1523010118393057,-4,0,4,1,-3,-11,4,1
1523010118393057,-3,15,2,-1,6,11,4,2
1523010118405088,0,-3,-6,-2,1,-8,0,-2
1523010118405088,0,21,15,2,-7,-8,1,10
1523010118414113,3,6,-2,3,1,7,4,6
1523010118414113,-1,-14,-8,-3,1,-2,-8,-5
1523010118429153,0,2,6,1,1,3,-3,2
1523010118429153,-7,-10,-8,-2,-1,-5,0,-4
1523010118431158,3,-8,-9,-5,-7,-2,0,3
1523010118431158,2,15,5,-1,-4,-12,-12,-12
1523010118451211,1,-23,-5,0,4,28,7,4
1523010118451211,-1,2,2,-6,15,-14,8,13
1523010118453217,0,16,5,3,-3,1,-6,-10
1523010118453217,0,-13,-9,1,-5,12,2,-1
1523010118465248,-2,9,7,0,19,13,3,-5
1523010118465248,2,-9,-5,2,9,-25,-1,3
1523010118480289,-3,-18,-5,-6,5,19,0,3
1523010118480289,4,7,7,4,-11,-26,-8,2
1523010118489312,-4,-1,-3,0,-5,13,-1,-1
1523010118489312,-3,-6,-11,-8,-8,7,4,-3
1523010118490315,-5,11,10,-2,2,-20,-4,-1
1523010118490315,2,-3,-10,-3,6,22,0,-4
1523010118511371,-3,-19,-6,-5,-14,-15,-2,-1
1523010118511371,0,29,14,2,-21,-9,-8,-6
1523010118513377,-2,-38,-24,-7,-2,-1,3,3
1523010118513377,-4,17,23,7,16,5,2,3
1523010118525408,7,4,1,-4,-29,-14,5,5
1523010118525408,-9,-16,-13,9,49,10,-15,-19
1523010118534433,-1,4,-3,0,-4,-5,11,8
1523010118534433,0,-10,2,-5,-9,-4,4,12
1523010118549472,-3,3,-6,5,23,8,-3,-15
1523010118549472,-2,-5,1,-11,-38,-4,-2,5
1523010118550476,3,13,3,1,-2,-11,-6,-4
1523010118550476,-3,-5,-2,0,-2,8,4,1
1523010118571531,-1,11,9,7,17,13,1,3
1523010118571531,0,-12,-12,-6,-13,-13,-5,-1
1523010118573537,2,17,18,3,10,3,0,2
1523010118573537,3,-8,-14,-3,-7,2,-5,-8
1523010118585568,-7,4,4,-2,-1,-11,-2,-3
1523010118585568,4,16,6,5,1,6,2,7
1523010118594593,-5,-7,-7,-5,-1,12,-2,-5
1523010118594593,-6,-5,-5,-8,-13,-36,-4,-5
1523010118609632,2,-3,-1,1,2,9,-1,3
1523010118609632,1,1,-5,-9,-9,-8,10,11
1523010118610635,-1,-1,-4,6,1,7,-2,-5
1523010118610635,-1,-8,1,2,6,5,-4,-7
1523010118631691,-6,18,9,2,2,-13,-8,-1
1523010118631691,-1,12,3,-1,-7,2,7,4
1523010118633697,-2,-22,-7,-2,-9,-2,2,4
1523010118633697,-3,-17,-12,0,5,18,2,-3
1523010118645728,3,15,5,-11,-15,-26,-8,-1
1523010118645728,-5,-10,-2,3,2,6,-12,-8
1523010118654753,1,17,-1,-6,-1,1,5,9
1523010118654753,3,-13,0,5,6,2,5,-2
1523010118668790,3,-2,-5,-4,6,-1,-12,2
1523010118668790,1,8,2,1,-20,-7,2,-1
1523010118670796,-3,5,2,-2,-3,4,6,7
1523010118670796,-8,-19,-6,-3,-6,-2,4,-6
1523010118691851,-3,18,3,0,2,0,-1,-4
1523010118691851,-1,-6,-5,2,6,-5,-9,-7
1523010118692854,7,16,-1,-8,-7,-10,-13,2
1523010118692854,1,18,9,1,6,3,-5,1
1523010118704886,1,-18,-6,5,0,7,17,2
1523010118704886,3,-6,-5,1,5,8,4,2
1523010118713910,-4,-7,2,-1,3,-4,-6,-12
1523010118713910,9,8,4,-4,-2,-10,-17,4
1523010118728950,-4,-9,-4,-4,-21,-13,-3,-8
1523010118728950,5,-2,-3,-3,7,8,1,5
1523010118734966,-4,-8,-2,7,10,7,15,-4
1523010118734966,-9,-4,-4,-6,-10,-6,-4,-6
1523010118752011,1,-14,-3,2,2,-12,-3,2
1523010118752011,-2,-9,-5,-6,-1,6,-4,2
1523010118753014,5,18,3,-6,-2,-9,-3,-3
1523010118753014,7,7,3,3,3,3,-4,-1
1523010118765046,-6,-3,-2,3,0,7,10,5
1523010118765046,5,-4,-3,-7,-4,-2,12,8
1523010118774070,-12,-9,-3,4,3,-1,-16,-6
1523010118774070,5,11,-1,-2,7,-2,9,2
1523010118789110,-1,-20,-5,-4,-1,9,-6,-3
1523010118789110,-2,13,9,5,3,4,15,2
1523010118797131,1,-18,-9,-3,2,-5,-3,4
1523010118797131,-6,3,3,0,-14,-8,-7,-7
1523010118812171,-3,0,-5,-3,12,2,2,-4
1523010118812171,0,-1,2,11,-2,6,2,5
1523010118814177,-7,-5,-1,1,19,1,-5,-11
1523010118814177,-5,-17,0,2,-12,-3,0,0
1523010118825206,4,23,0,-7,-8,-11,-12,-3
1523010118825206,-6,18,5,0,-2,-8,-11,-6
1523010118834230,6,-11,-6,-1,-6,0,16,11
1523010118834230,7,-8,0,-1,13,11,19,7
1523010118848267,-4,-3,-2,7,6,8,11,-3
1523010118848267,1,3,0,-5,-5,-6,-10,-5
1523010118855286,1,8,2,1,-16,-11,-10,-1
1523010118855286,-2,1,-4,-1,6,0,-1,-1
1523010118871329,3,-11,-1,-1,-1,2,6,2
1523010118871329,-6,5,-2,-2,-2,-5,3,0
1523010118873334,-1,-3,-2,-2,-11,-2,6,-7
1523010118873334,-1,-3,0,7,0,5,5,0
1523010118894390,0,-6,1,-3,11,5,-10,-4
1523010118894390,-6,0,0,1,12,-4,-4,-10
1523010118895393,-3,-22,-4,-3,-28,-3,5,3
1523010118895393,3,19,2,-3,-2,-1,-9,-4
1523010118908427,3,-4,-4,2,-1,-7,-1,3
1523010118908427,-7,1,0,-5,0,-2,-3,-2
1523010118915446,7,12,-2,-5,9,1,-5,4
1523010118915446,-3,-8,2,2,1,0,-3,-3
1523010118931489,4,-2,0,1,2,5,6,2
1523010118931489,4,-10,0,9,-3,0,-3,11
1523010118933495,-5,-15,0,5,0,0,0,-9
1523010118933495,1,4,0,-6,-3,-1,-3,4
1523010118954550,-11,-2,-1,-1,24,-13,-5,-2
1523010118954550,5,1,-5,-11,-35,-7,-3,8
1523010118955553,4,4,-1,3,19,20,13,4
1523010118955553,-6,-14,-3,2,-1,2,-16,-5
1523010118968587,1,-2,-1,2,-1,1,12,4
1523010118968587,9,27,6,5,4,0,0,-4
1523010118975606,-1,-12,-3,-1,-7,-10,-5,-10
1523010118975606,-2,1,-2,-4,3,2,5,4
1523010118991649,0,-11,-3,-2,-14,-2,-8,10
1523010118991649,-7,-9,-6,-4,5,-2,-8,-12
1523010118993654,3,2,2,-3,-6,-3,-11,-1
1523010118993654,-5,0,0,3,2,3,10,2
1523010119013707,-7,-1,-1,3,-13,-8,-7,-6
1523010119013707,1,4,-4,-2,-1,4,8,0
1523010119015713,7,2,2,-1,7,-1,-10,-5
1523010119015713,-20,-23,-6,-7,-15,0,9,-1
1523010119028747,-1,30,4,-8,-6,-2,-7,-5
1523010119028747,1,-7,-5,10,-1,2,-1,-6
1523010119036769,-5,-7,0,-6,-52,-10,-6,4
1523010119036769,9,11,-1,1,16,3,-3,-1
1523010119051809,-8,-5,-2,-6,-6,3,-8,-5
1523010119051809,5,3,0,-2,24,-4,-1,2
1523010119052811,-10,-5,0,-1,9,3,8,0
1523010119052811,5,-4,1,-4,-16,3,6,5
1523010119073867,-5,-10,-6,-3,3,0,2,-6
1523010119073867,-3,3,1,0,-2,-3,-7,1
1523010119079883,3,4,2,7,3,-6,-3,-3
1523010119079883,-1,0,0,-3,5,-6,-10,-4
1523010119087904,2,0,-2,1,-1,-2,-3,1
1523010119087904,2,-1,-2,1,-5,2,8,5
1523010119102944,-4,-1,-1,-3,0,1,-5,-3
1523010119102944,2,2,2,2,5,-3,-2,-4
1523010119111968,7,-10,-3,-3,-4,-1,5,4
1523010119111968,-17,-8,-2,-4,-9,-3,-4,-3
1523010119112971,5,26,4,5,24,3,4,5
1523010119112971,1,-1,-1,-2,-17,-1,-4,-6
1523010119134027,1,2,2,-4,-10,-3,-2,1
1523010119134027,-3,-5,-4,-6,2,1,1,-4
1523010119136032,-15,-12,1,4,4,1,8,0
1523010119136032,1,9,-2,3,13,-1,3,0
1523010119148064,0,-10,0,-1,0,1,-8,0
1523010119148064,3,7,-1,-4,0,-1,-6,-4
1523010119163104,2,3,0,-2,-2,0,4,0
1523010119163104,2,0,-2,-2,-2,-8,-9,-6
1523010119172128,-3,-16,-3,3,-1,0,5,1
1523010119172128,-10,13,2,-3,-17,-5,-6,-7
1523010119173131,-3,-8,-5,-3,8,-1,5,-5
1523010119173131,-7,-21,-1,2,7,7,9,-1
1523010119202208,9,14,2,1,13,-6,-5,-5
1523010119202208,4,-2,0,3,-22,-5,-3,-2
1523010119203212,-3,-4,-4,-4,-4,1,-1,2
1523010119203212,0,-1,0,-4,-10,-5,-6,-4
1523010119208224,-7,-5,-1,-2,-2,0,-9,-6
1523010119208224,2,-1,-3,1,15,7,13,7
1523010119217249,-2,7,-3,-2,-8,-4,-7,-12
1523010119217249,2,-3,-1,3,8,1,-3,2
1523010119231286,-3,-2,1,-2,-8,-2,3,-3
1523010119231286,5,9,-1,-8,1,-1,3,-3
1523010119233292,2,-22,-2,1,-1,-10,-22,1
1523010119233292,-9,13,1,2,1,-1,-6,-2
1523010119254347,-6,12,2,0,-7,12,20,0
1523010119254347,3,-7,-6,-8,7,4,11,2
1523010119255350,6,4,-2,1,-2,1,4,0
1523010119255350,2,-6,-2,0,5,-7,-17,3
1523010119267382,0,-3,-4,2,-7,-9,-9,-2
1523010119267382,-10,-5,1,2,-1,2,8,-5
1523010119276406,2,1,0,-5,7,3,2,6
1523010119276406,-7,1,-1,-1,-6,-1,-2,-4
1523010119291446,4,-5,0,3,2,1,-1,3
1523010119291446,-7,-2,-4,-2,9,-5,-4,-2
1523010119293451,-3,9,2,-2,-28,-2,-1,1
1523010119293451,3,0,-1,-5,4,1,2,3
1523010119314507,-1,-11,-3,-3,-9,0,0,0
1523010119314507,2,0,5,3,7,-3,-12,-2
1523010119315510,-1,23,3,2,5,0,1,0
1523010119315510,5,-17,-5,-2,-7,-4,11,7
1523010119327542,-5,5,2,-3,-1,0,1,-12
1523010119327542,6,-4,-2,7,6,0,-6,0
1523010119336566,2,4,-1,-6,-10,0,-11,1
1523010119336566,-1,-9,-2,0,-6,1,11,-3
1523010119352608,7,-4,0,1,2,-4,-3,-2
1523010119352608,6,-19,-3,0,-6,-2,4,4
1523010119353611,-14,-6,4,-3,2,-6,-8,-9
1523010119353611,2,14,0,1,3,0,3,6
1523010119374667,1,-6,-2,4,10,1,-10,6
1523010119374667,-3,9,-2,-9,-15,1,4,-8
1523010119375670,2,-7,-3,6,22,6,8,-2
1523010119375670,0,-3,0,-3,-4,3,-1,1
1523010119387702,-2,13,2,-3,6,-3,-3,-3
1523010119387702,3,12,4,6,21,2,-5,2
1523010119396726,3,-4,-4,-1,-27,-9,-1,3
1523010119396726,-5,3,1,-2,-5,0,-1,-3
1523010119411766,-1,-18,-4,-2,-3,-1,0,-1
1523010119411766,0,5,-1,-2,3,1,2,3
1523010119413771,3,-4,-3,0,13,2,6,5
1523010119413771,-1,4,3,0,-2,-6,-7,-7
1523010119433825,5,-13,-3,-2,2,-2,-1,4
1523010119433825,-7,-21,-2,-4,-10,1,-2,0
1523010119435830,0,-7,-2,-3,1,6,4,2
1523010119435830,4,-4,-4,-5,2,7,2,4
1523010119447862,-6,14,7,5,2,-6,-1,-3
1523010119447862,3,9,-1,1,-4,-6,-5,2
1523010119462902,1,-8,-3,0,-3,-5,-3,-4
1523010119462902,-1,0,0,0,-1,-4,-7,-3
1523010119471926,4,-5,-4,-3,0,2,-1,0
1523010119471926,-4,0,-1,2,-4,1,17,-1
1523010119477942,1,4,-2,-4,-1,-2,1,-3
1523010119477942,-2,8,0,-2,-9,-7,0,-6
1523010119493984,-4,-1,1,1,-2,0,-9,-4
1523010119493984,0,-9,-2,2,12,10,1,1
1523010119495990,0,9,1,1,1,-2,-3,-2
1523010119495990,-2,-4,-3,-1,0,0,0,-6
1523010119508022,-1,-5,1,-1,-12,0,-6,4
1523010119508022,-2,-7,-2,-2,-8,-10,-4,-2
1523010119517046,-1,-16,-3,-4,3,3,1,5
1523010119517046,3,11,3,3,3,-1,-4,3
1523010119532086,-2,1,0,-2,-4,-1,-2,1
1523010119532086,-11,2,-4,0,6,3,-5,-2
1523010119533089,1,4,-5,-2,-1,-2,11,5
1523010119533089,0,-16,-2,-3,-3,2,11,6
1523010119554145,-1,2,3,3,5,4,7,4
1523010119554145,0,6,-1,1,-7,-5,-14,-1
1523010119560160,-3,0,-4,-2,-3,-13,-19,-4
1523010119560160,-2,0,-2,-3,4,9,6,-2
1523010119568182,1,-15,-4,2,2,5,6,2
1523010119568182,1,7,7,1,-3,-2,-4,-6
1523010119577206,1,14,9,2,0,1,3,1
1523010119577206,-3,-7,-4,-1,2,-4,-3,-2
1523010119591243,-5,-3,1,-2,1,-3,-3,-9
1523010119591243,3,-7,-9,-7,-11,-8,-8,-1
1523010119593248,0,-8,-6,-4,6,1,2,-4
1523010119593248,-2,18,15,0,5,12,8,2
1523010119615307,0,-9,-2,0,-2,3,6,1
1523010119615307,-1,5,2,3,2,7,-2,-2
1523010119616310,0,6,-5,-1,-7,-10,-9,-8
1523010119616310,-3,-24,-7,-2,-2,-15,2,6
1523010119627339,-7,16,11,-3,-6,6,0,-1
1523010119627339,2,6,4,3,3,5,4,3
1523010119636363,0,-1,2,0,-2,4,-1,-1
1523010119636363,-1,-4,-8,2,5,-1,-7,-4
1523010119651403,1,-5,-2,-3,-3,-9,0,-1
1523010119651403,-2,3,-2,-4,1,0,-2,1
1523010119653409,-1,1,-2,-3,-5,-4,-6,-1
1523010119653409,3,-6,-8,1,-1,2,-2,2
1523010119674464,-2,16,5,-2,-1,-2,3,-10
1523010119674464,-5,-4,9,-1,-3,-3,5,8
1523010119675467,-4,1,3,3,0,-1,0,1
1523010119675467,0,0,-1,-1,1,6,-7,-5
1523010119687499,3,-3,0,-3,-3,-14,-4,-1
1523010119687499,4,8,-3,-2,-10,-1,-9,-8
1523010119696523,-4,-12,-5,-5,2,-3,10,9
1523010119696523,-3,-3,-7,-7,-4,-5,3,7
1523010119710560,-4,-8,-4,-1,-1,23,-4,-4
1523010119710560,3,-1,-3,0,-5,-9,-1,1
1523010119717579,2,-3,-1,-3,6,-8,-2,-2
1523010119717579,-2,6,6,5,4,18,-11,-9
1523010119734624,-3,-10,-6,-2,1,-23,-5,0
1523010119734624,2,4,4,-2,-1,7,7,2
1523010119735627,0,3,-3,1,-2,9,8,1
1523010119735627,-1,3,7,-1,-2,-9,-1,4
1523010119747659,-3,-19,-4,1,1,-3,-6,-5
1523010119747659,-2,9,-3,4,5,2,-5,-9
1523010119756683,4,1,1,-1,-5,-2,1,5
1523010119756683,-2,-2,-3,1,2,0,7,-1
1523010119770721,0,-1,0,1,-3,1,1,4
1523010119770721,2,-4,-5,2,-2,-3,-6,-2
1523010119777739,0,-3,-5,-1,1,-2,-5,-2
1523010119777739,-3,5,1,0,-1,-18,-6,-5
1523010119793782,-2,-10,-4,-1,-7,15,9,2
1523010119793782,-3,-4,-1,-4,0,-1,6,7
1523010119795787,1,-2,-1,3,-1,-1,-5,-3
1523010119795787,-3,-1,1,-1,1,11,-8,-7
1523010119816843,-1,-1,-4,0,3,-21,1,4
1523010119816843,6,16,6,-2,-7,0,6,3
1523010119817846,-4,-12,-4,-3,-2,-1,-3,1
1523010119817846,3,7,10,1,-5,-14,-5,-3
1523010119838902,-8,3,-1,-2,4,14,0,-4
1523010119838902,-4,-7,-11,-3,-3,-1,0,0
1523010119840907,0,-6,-6,-2,-1,-3,-2,-1
1523010119840907,9,-1,10,8,9,3,6,8
1523010119853942,9,2,-4,-10,1,-14,-4,0
1523010119853942,-19,0,1,10,1,-3,-4,-7
1523010119855947,2,0,2,-2,-13,11,7,6
1523010119855947,2,5,-10,-4,10,-2,-3,-2
1523010119877003,1,-5,2,-5,-25,-7,-9,0
1523010119877003,2,9,-5,1,22,-3,2,-3
1523010119878006,-2,-4,19,14,11,9,4,7
1523010119878006,-10,-8,-19,-7,3,-6,-2,-1
1523010119891040,4,8,16,3,9,14,5,3
1523010119891040,1,-3,-2,-10,-24,-11,-6,1
1523010119898059,-8,-8,-11,-9,-22,-11,-10,-17
1523010119898059,1,-8,-2,8,14,7,2,-4
1523010119914102,-1,-8,-10,3,3,11,4,1
1523010119914102,-2,-4,-2,-6,-6,6,0,-2
1523010119916107,5,4,3,4,18,1,0,1
1523010119916107,-3,3,6,-9,-34,-21,-2,-4
1523010119937163,-1,8,3,3,20,4,-3,0
1523010119937163,4,1,-2,-3,-5,7,0,-1
1523010119938166,2,7,-1,-5,-1,-6,8,6
1523010119938166,-1,-7,-1,-3,-14,-2,-1,-3
1523010119951200,-2,-9,-3,-2,1,-11,4,2
1523010119951200,9,9,1,-1,6,2,-2,4
1523010119958219,0,-9,-5,2,2,7,-2,-3
1523010119958219,5,10,6,1,4,4,5,5
1523010119974262,-2,7,5,0,-8,-3,1,0
1523010119974262,3,-3,-5,1,9,-4,0,4
1523010119980278,-10,-15,-7,-4,-4,-4,-7,-7
1523010119980278,5,-9,-4,-7,-4,3,1,6
1523010119996320,-1,5,-3,1,-3,-7,-20,-8
1523010119996320,2,5,3,8,12,-1,1,0
1523010119998326,-2,-5,1,1,-13,5,17,-1
1523010119998326,-1,8,4,-3,-8,-4,-2,-6
1523010120010358,-1,-2,-5,-1,-3,-1,-2,0
1523010120010358,-3,-4,-10,-6,6,-4,-16,-5
1523010120019382,4,1,3,-4,6,0,-6,0
1523010120019382,-2,-1,0,3,-5,1,0,-4
1523010120034422,4,4,-1,-3,-4,2,5,5
1523010120034422,-2,1,1,1,-3,-4,-4,-2
1523010120035425,-13,-29,-12,2,4,11,-6,-11
1523010120035425,6,12,2,-1,2,7,6,3
1523010120055477,-8,40,14,4,5,0,0,1
1523010120055477,-3,-8,-7,-1,-10,-8,3,2
1523010120070518,3,7,0,1,-3,-12,-7,0
1523010120070518,-8,-26,-7,1,8,1,-13,-5
1523010120071521,1,-7,-6,-6,-6,2,11,0
1523010120071521,8,4,5,-6,-3,-2,8,11
1523010120079542,5,1,8,7,-4,0,-4,2
1523010120079542,-3,4,-1,-3,9,-1,-10,-14
1523010120094582,2,-8,-1,0,-4,-2,-1,2
1523010120094582,-8,-9,0,0,4,3,2,-6
1523010120095584,10,9,5,-3,3,6,13,8
1523010120095584,-4,-9,-6,-3,10,-4,3,-5
1523010120116640,-3,-9,0,7,-19,-2,-6,-2
1523010120116640,2,2,0,0,3,6,3,2
1523010120118646,-1,1,1,-4,-9,-8,-24,-2
1523010120118646,-7,-13,-7,0,1,-3,5,3
1523010120130678,2,-4,-5,-2,5,2,26,9
1523010120130678,-4,-1,-4,-5,3,2,-2,-9
1523010120139702,-5,10,3,-1,15,6,1,-5
1523010120139702,4,1,2,-1,-16,-2,-1,10
1523010120153739,6,2,-1,-4,5,-7,-11,-3
1523010120153739,-1,-10,0,7,-5,-5,-1,-11
1523010120155744,-9,-7,-1,-5,4,1,4,2
1523010120155744,3,-7,-4,2,-5,2,-3,5
1523010120176800,-6,3,-4,-1,0,-2,-1,-5
1523010120176800,1,7,1,-4,-1,-3,-6,0
1523010120177803,0,-5,-1,-4,6,-1,0,-4
1523010120177803,-3,3,1,-1,-13,5,7,-5
1523010120189835,-4,-15,-5,2,3,2,6,5
1523010120189835,2,5,-1,-5,-7,-5,-9,5
1523010120198859,-2,-11,1,2,3,3,-4,-2
1523010120198859,-1,5,-2,-7,0,1,5,6
1523010120214902,-5,0,0,7,8,-1,-12,-14
1523010120214902,-2,0,-3,3,-1,5,10,1
1523010120216908,1,17,3,0,-8,-2,15,1
1523010120216908,0,-1,1,1,2,-2,-3,-3
1523010120236960,4,-13,-7,-12,-5,-4,0,11
1523010120236960,-5,-9,-2,0,-16,-13,-17,-8
1523010120237963,-8,9,-1,6,26,-4,-4,-6
1523010120237963,0,1,3,0,4,6,-2,0
1523010120249995,-3,0,1,6,7,4,-7,0
1523010120249995,-1,-6,-3,-5,-13,2,9,4
1523010120259019,6,-6,0,-2,-3,-2,7,1
1523010120259019,0,9,-2,1,0,-11,-16,-3
1523010120274059,-5,-4,-4,1,6,-3,-8,-3
1523010120274059,4,6,2,0,9,3,8,3
1523010120276064,5,2,3,-2,-8,5,5,4
1523010120276064,2,-11,-1,0,1,4,-2,-1
1523010120297120,-8,-3,1,-2,-12,-4,-4,-7
1523010120297120,-1,2,-5,-3,5,1,-1,4
1523010120298123,4,-9,-5,-6,-8,-2,-3,-2
1523010120298123,-3,4,3,-3,-2,-2,-2,1
1523010120310155,8,-2,2,2,-2,-4,-4,-8
1523010120310155,-16,5,-1,2,-9,-11,-11,-8
1523010120319179,3,-1,-5,-9,-5,8,8,2
1523010120319179,-7,-14,-4,-1,1,4,0,-10
1523010120334219,2,1,-1,-4,4,2,-4,3
1523010120334219,9,2,3,1,1,3,7,9
1523010120336224,-7,-8,-5,2,4,-14,-18,-12
1523010120336224,-10,-1,0,-2,-27,-8,-13,-4
1523010120356277,5,10,1,2,9,13,15,2
1523010120356277,-2,-5,-3,-4,2,7,7,-2
1523010120358283,-3,-4,-2,-2,-4,-2,-9,-7
1523010120358283,1,-10,-1,1,14,-2,6,2
1523010120370315,3,13,2,4,-15,-8,-14,-1
1523010120370315,-3,-5,-4,-4,0,1,-9,-4
1523010120379339,-4,-9,1,2,-13,7,13,-3
1523010120379339,1,6,3,1,17,-2,-2,-3
1523010120394379,-4,-6,-3,-2,21,4,7,-1
1523010120394379,1,2,-1,1,-5,-5,-6,-2
1523010120395382,-2,-4,-1,-2,-8,-5,-18,1
1523010120395382,0,-7,-2,3,-1,0,5,-1
1523010120416438,-9,8,1,-1,-2,2,10,-1
1523010120416438,6,9,2,3,13,-1,-3,-6
1523010120418443,-9,-6,-1,-1,-7,0,-1,2
1523010120418443,3,4,-3,-2,-2,0,2,-4
1523010120430475,-7,-13,-6,-6,0,-4,-9,-8
1523010120430475,-3,3,-1,2,-1,-1,0,2
1523010120439499,3,5,2,-5,-8,-9,-10,0
1523010120439499,-4,-4,-1,4,6,5,14,4
1523010120454539,-5,-5,-1,4,1,7,-3,0
1523010120454539,-3,-5,-5,-5,-8,1,3,-3
1523010120455542,3,0,4,1,2,-2,3,7
1523010120455542,2,13,-1,-6,-10,-3,-8,3
1523010120476598,-1,-7,-1,-4,-5,-7,1,-1
1523010120476598,-4,-6,0,0,1,-1,-2,0
1523010120478603,-1,5,-1,1,5,1,-4,-1
1523010120478603,1,5,-3,-2,-8,-7,0,-1
1523010120490635,4,0,0,-1,2,3,5,5
1523010120490635,1,3,0,-4,-16,-2,-6,-4
1523010120499659,0,2,-3,-3,0,1,5,2
1523010120499659,-6,-14,-2,0,6,0,-12,-3
1523010120513697,8,-3,3,1,2,-6,-50,4
1523010120513697,-8,-21,-7,-5,-6,-3,-7,-4
1523010120515702,-1,13,5,7,5,11,1,-1
1523010120515702,2,-3,0,-1,1,2,20,2
1523010120536757,-2,-3,-4,-4,-10,-3,41,0
1523010120536757,3,12,4,0,15,-3,9,1
1523010120544779,1,8,-1,-2,-6,-4,18,0
1523010120544779,2,5,0,-4,-7,2,-2,-2
1523010120550795,-1,-7,-2,-6,-5,-4,2,-4
1523010120550795,3,-2,-1,2,-1,-1,6,-1
1523010120559819,-4,-15,-1,0,2,-1,4,1
1523010120559819,-1,-6,3,2,-1,-2,-8,-2
1523010120573856,-1,0,-1,-3,-6,-5,-16,-4
1523010120573856,-1,-1,-4,-1,1,1,-1,3
1523010120575862,-2,6,-1,0,-4,-1,-3,-1
1523010120575862,0,2,1,3,13,6,2,3
1523010120596917,7,-2,-2,-3,-34,-15,0,2
1523010120596917,-4,-3,-1,-2,3,14,5,5
1523010120597920,2,-11,-1,-2,2,1,5,5
1523010120597920,2,-9,-3,-3,3,0,-3,0
1523010120609952,-5,3,3,6,7,1,-4,-2
1523010120609952,2,3,-4,-1,-2,-7,-7,4
1523010120624992,-2,-6,-7,-4,1,-6,-13,-1
1523010120624992,-4,9,0,3,-5,-3,4,-4
1523010120633014,-3,1,-4,2,5,-3,-11,-1
1523010120633014,1,9,-3,-6,8,10,8,-7
1523010120640032,-3,14,5,6,7,-2,3,-10
1523010120640032,0,0,0,6,-3,2,-1,-4
1523010120657077,-2,-6,-2,-4,5,8,7,-8
1523010120657077,2,0,-2,-3,-6,-9,-3,-2
1523010120658080,-3,-7,-6,-4,3,-4,-12,-3
1523010120658080,4,-7,1,-2,-7,-4,-4,7
1523010120671115,-1,-11,-3,-2,1,4,11,4
1523010120671115,-1,23,2,0,0,-4,-11,4
1523010120679136,8,8,1,0,5,3,1,5
1523010120679136,-2,-5,2,1,-7,-4,9,2
1523010120701195,1,-6,-1,-3,2,2,1,-2
1523010120701195,-1,-2,-2,4,-4,-1,-3,-1
1523010120703200,1,0,2,4,13,1,-2,-1
1523010120703200,0,-2,-1,-2,-7,-3,-1,-4
1523010120716235,0,-4,0,0,1,21,6,-2
1523010120716235,0,0,0,0,-1,-5,-2,-6
1523010120718241,-3,0,-1,-3,-9,-2,-4,-5
1523010120718241,-2,-4,-5,-5,5,-1,-3,1
1523010120739296,-3,10,7,0,-5,-28,-5,-4
1523010120739296,0,-8,-16,-3,1,12,1,4
1523010120741302,-2,-26,-7,-4,-8,2,2,-4
1523010120741302,1,31,17,0,-1,-5,2,-2
1523010120753333,-1,-3,-5,2,3,-2,-3,-3
1523010120753333,0,8,1,2,0,-8,-12,-6
1523010120760352,2,-12,-7,-4,-7,-5,8,6
1523010120760352,-2,-18,-5,-2,2,8,-2,0
1523010120776395,-5,4,1,0,-1,-3,-3,-7
1523010120776395,1,0,-1,-2,-2,-3,7,10
1523010120778400,3,3,-5,-1,0,2,-2,7
1523010120778400,0,-3,1,-4,-3,0,-1,-2
1523010120799456,-12,0,2,-3,-1,-2,-7,-14
1523010120799456,1,5,-4,1,-1,0,-1,2
1523010120800459,1,2,2,-1,-1,-4,3,4
1523010120800459,-1,-3,-5,0,0,4,2,8
1523010120821515,-1,3,-2,-1,-1,-7,-2,4
1523010120821515,0,5,-1,0,-4,-2,0,-2
1523010120823520,1,2,2,-1,-2,5,-6,-1
1523010120823520,-1,-5,-4,1,4,-3,-9,-8
1523010120836555,3,-2,0,-3,-7,-8,-3,4
1523010120836555,-2,-2,0,1,2,10,11,4
1523010120838561,-3,3,-1,1,3,-4,1,-3
1523010120838561,0,-4,-8,-5,0,4,-1,-1
1523010120859616,-1,2,5,1,0,0,3,5
1523010120859616,0,5,-3,-1,-1,-5,-5,-1
1523010120860619,1,0,-1,-4,-4,-2,-3,-6
1523010120860619,-8,-4,-8,0,-3,-6,-3,-5
1523010120873653,3,3,3,1,3,7,7,4
1523010120873653,-3,-2,-3,-3,-3,-4,-5,-9
1523010120880672,-2,7,7,-2,-1,0,-2,1
1523010120880672,2,0,0,2,2,10,2,13
1523010120896715,-5,-5,-5,-3,-7,-23,-1,-7
1523010120896715,2,-8,-1,-5,-6,3,0,0
1523010120898720,1,0,-1,-5,-2,-2,-4,-4
1523010120898720,-6,5,5,3,3,6,-3,-6
1523010120918773,0,5,-3,1,4,6,2,5
1523010120918773,0,1,-1,3,2,-6,0,3
1523010120920779,0,-1,-2,-3,-2,-1,0,-2
1523010120920779,1,-4,2,-4,-5,0,4,0
1523010120933814,-6,-10,-6,3,4,13,2,-5
1523010120933814,0,8,7,2,-1,-6,-5,-3
1523010120947851,-1,2,6,2,0,-2,-4,0
1523010120947851,4,-3,-2,-2,-1,-3,-2,-3
1523010120956875,1,10,1,-2,-4,1,-2,-2
1523010120956875,-5,-9,-7,-5,0,-3,-1,2
1523010120957878,-3,-5,-4,5,2,-3,1,2
1523010120957878,-4,-6,-1,-3,-1,7,-2,-5
1523010120978933,0,-1,-2,0,-1,2,2,2
1523010120978933,0,5,4,0,1,1,0,0
1523010120980939,-7,0,-4,-2,-6,-10,-9,-8
1523010120980939,1,-6,-6,2,-3,-9,1,1
1523010120992971,1,9,10,1,0,2,-4,-3
1523010120992971,0,4,-5,-2,-1,5,-4,-6
1523010121001995,2,3,13,3,2,2,6,10
1523010121001995,-1,0,-4,-1,-2,-8,-4,-3
1523010121017035,0,-6,-8,-3,-1,6,2,0
1523010121017035,4,5,3,2,-1,-2,0,0
1523010121018038,-2,-3,-6,-4,-4,0,-3,-4
1523010121018038,-9,0,-5,0,2,1,-10,-12
1523010121040096,4,3,-4,-4,-4,-15,-2,4
1523010121040096,2,0,-1,-2,-5,6,-1,3
1523010121041099,-2,-8,-6,-5,-2,-3,-6,-1
1523010121041099,-5,25,14,4,1,0,9,-1
1523010121053131,3,1,-9,1,6,7,8,4
1523010121053131,1,-3,-7,-1,-2,-7,-4,1
1523010121068171,-12,9,16,5,-1,-7,-2,-11
1523010121068171,2,-12,-6,0,-1,9,-2,-1
1523010121076192,-5,5,0,-4,5,14,2,-4
1523010121076192,-3,-2,1,1,-8,-10,0,-4
1523010121078197,6,-11,-9,-6,-3,-3,-6,1
1523010121078197,3,-4,2,-3,-5,-18,-9,-3
1523010121099253,5,6,1,3,3,4,6,10
1523010121099253,0,-10,-1,-4,2,7,4,3
1523010121101259,-2,-8,-5,2,4,3,3,-1
1523010121101259,2,-12,-6,-4,-9,-9,0,1
1523010121113291,-1,14,1,2,-1,-2,-17,-1
1523010121113291,3,13,10,6,6,3,14,6
1523010121127328,-1,-9,-4,-3,1,0,9,1
1523010121127328,-2,-6,-6,-1,-2,-2,-1,2
1523010121136352,1,-1,-2,-1,-4,-5,-17,-4
1523010121136352,-1,-3,-5,-4,-1,-5,-1,-1
1523010121138358,-3,-9,-1,0,2,10,9,2
1523010121138358,0,10,3,1,1,1,2,-3
1523010121159413,-1,2,-3,-1,-4,-1,4,1
1523010121159413,-5,1,-1,-6,-10,-3,-16,-12
1523010121160416,-2,7,-4,1,-3,-5,-9,-7
1523010121160416,0,-9,-1,-3,9,4,2,4
1523010121181472,-1,2,3,3,5,7,21,-1
1523010121181472,-3,-7,3,6,0,-2,-2,-8
1523010121183478,3,-7,-3,-1,-5,-3,-1,3
1523010121183478,-2,-8,-1,-4,-3,-8,-15,-2
1523010121196512,0,0,-2,0,1,-1,0,3
1523010121196512,6,-5,1,-4,2,2,10,11
1523010121198518,-6,-5,3,3,1,0,-7,-5
1523010121198518,-2,-3,-4,-1,-1,-4,-4,-2
1523010121226592,4,3,-2,1,-5,0,1,-1
1523010121226592,-4,-1,0,0,-1,-2,-2,-3
1523010121228598,3,-1,-3,-5,3,0,-3,1
1523010121228598,0,3,3,1,-7,4,11,2
1523010121232608,0,-2,0,-2,4,0,-4,-5
1523010121232608,-6,-4,-2,1,4,-1,-5,-10
1523010121241632,-4,0,-2,-3,-3,-1,0,-6
1523010121241632,3,3,0,3,8,-4,1,3
1523010121256672,2,3,-5,-6,-13,-7,0,2
1523010121256672,-5,0,3,0,14,2,-3,-8
1523010121258678,2,-3,-3,-5,-18,-4,-4,8
1523010121258678,1,1,2,1,14,7,19,0
1523010121278731,-2,-4,-6,-1,2,1,-5,4
1523010121278731,5,1,0,-2,-3,-1,2,10
1523010121280736,1,-14,-3,-3,-3,-2,3,4
1523010121280736,-1,17,7,5,-6,-6,-10,3
1523010121292768,2,-12,-4,1,1,3,8,-5
1523010121292768,-6,-3,1,0,-2,2,10,4
1523010121301792,-2,3,1,1,3,0,-5,-3
1523010121301792,-1,-2,-4,-5,-15,-6,-9,-5
1523010121317835,-10,-11,-8,-6,-5,-5,-12,-6
1523010121317835,6,-6,1,4,-6,0,-4,5
1523010121318838,-3,-3,1,2,6,2,-2,-7
1523010121318838,0,-2,0,-1,3,2,-2,9
1523010121338891,6,17,6,2,0,6,10,-9
1523010121338891,-8,-18,-4,-5,4,-2,0,-8
1523010121340896,4,7,-1,4,0,1,3,0
1523010121340896,-4,6,1,-3,-8,-3,-1,1
1523010121352928,1,-5,-1,-4,-15,-11,-5,4
1523010121352928,1,-3,-7,-6,9,-2,-8,1
1523010121361952,-8,-2,3,6,17,16,4,-4
1523010121361952,3,4,-3,-2,4,1,2,2
1523010121376992,5,-5,0,-3,-6,-8,-9,1
1523010121376992,-5,7,2,2,-7,-6,-1,-1
1523010121377995,1,-1,-4,-6,-4,-4,-7,4
1523010121377995,-8,-14,-3,2,-8,2,8,-13
1523010121399051,5,13,2,4,11,-5,-7,3
1523010121399051,-7,-22,-3,-2,-7,5,5,-1
1523010121401057,5,2,2,-1,2,4,4,6
1523010121401057,-1,1,-1,1,-8,3,7,3
1523010121413088,-3,-4,-2,0,7,1,-3,-10
1523010121413088,10,4,1,-2,-4,-5,-9,0
1523010121422112,-4,3,-1,-3,2,-7,-12,-10
1523010121422112,10,-3,2,2,-4,-2,-1,7
1523010121437152,-1,-12,-3,-1,-4,1,0,-2
1523010121437152,-6,18,-1,-1,-1,-8,-8,-3
1523010121438155,-3,-13,-8,-6,-15,1,5,2
1523010121438155,-3,-3,1,6,58,8,-2,-3
1523010121459211,-9,-3,-6,-6,-47,-3,3,4
1523010121459211,-5,-5,3,-3,-4,-1,-2,-8
1523010121461216,5,-3,3,6,6,6,6,8
1523010121461216,-2,-4,-5,-4,-3,-2,-5,-2
1523010121473248,-14,-2,2,1,16,0,-7,-2
1523010121473248,6,-7,-6,-4,-3,-4,0,4
1523010121482272,-1,15,0,-6,-2,1,18,-6
1523010121482272,-6,-11,-4,-3,-8,-2,-11,3
1523010121497312,4,9,1,0,9,-4,-16,-4
1523010121497312,-4,-11,-3,1,-11,-2,4,5
1523010121498315,-12,-10,2,1,6,5,4,-15
1523010121498315,13,3,0,1,-15,-3,3,7
1523010121519371,5,10,1,-4,3,5,3,8
1523010121519371,-2,-4,2,4,10,1,1,-4
1523010121520374,-5,-6,-5,-4,-15,-6,-17,0
1523010121520374,1,8,-2,-3,-4,2,-7,-4
1523010121532405,3,-3,0,2,0,-1,18,3
1523010121532405,4,5,-2,-3,0,4,12,0
1523010121541429,-6,-16,-4,2,-5,-9,-12,-8
1523010121541429,-1,8,3,-4,2,4,7,-1
1523010121556469,2,-6,-3,2,-1,10,-1,3
1523010121556469,12,-1,2,-1,24,2,2,6
1523010121562485,-17,0,-1,-3,-36,-6,-2,-4
1523010121562485,-7,4,-2,-1,-10,-10,-9,-7
1523010121579531,13,25,5,3,19,7,11,1
1523010121579531,-12,-9,0,3,4,7,5,0
1523010121580533,16,-10,-2,-1,1,-8,-11,-7
1523010121580533,-22,6,4,2,9,-4,-5,-9
1523010121592565,-7,-13,-8,-2,10,-5,-1,-1
1523010121592565,5,15,1,0,-31,-3,-12,-1
1523010121601589,11,4,2,-2,13,-2,8,8
1523010121601589,2,-6,-4,-4,-19,-1,1,-3
1523010121615627,-14,-7,-1,0,10,1,-1,-8
1523010121615627,1,-6,-3,2,6,-1,-6,0
1523010121622645,-12,-3,1,2,3,-4,0,-3
1523010121622645,3,6,-1,-1,2,5,-7,-2
1523010121639691,0,5,2,-1,-21,-1,8,4
1523010121639691,9,-9,-1,-2,-14,-2,-1,1
1523010121640694,-10,8,0,-4,6,13,4,-7
1523010121640694,3,-19,-4,-2,1,-6,8,2
1523010121652725,2,3,-1,-1,-2,-3,-14,-1
1523010121652725,-5,-5,-2,-3,7,-3,3,-2
1523010121661750,7,7,4,3,2,-2,1,3
1523010121661750,-4,-6,-4,-1,-7,-3,-13,-8
1523010121675787,1,7,-3,-1,1,-1,-9,-1
1523010121675787,-10,-10,-1,-1,5,2,7,-8
1523010121682806,2,10,1,0,-6,2,-8,5
1523010121682806,9,2,4,0,1,5,13,1
1523010121698848,-5,-1,-1,0,6,-1,4,1
1523010121698848,-4,-5,-5,-6,7,4,-8,-3
1523010121700854,10,-1,0,1,1,0,-4,-3
1523010121700854,-16,-9,2,2,-9,-8,-11,-2
1523010121721909,3,-6,-4,-1,-6,-9,-17,3
1523010121721909,2,20,5,-1,-7,2,-10,-7
1523010121722912,-2,7,-1,0,7,5,-3,8
1523010121722912,2,-10,-3,-4,-3,-8,-7,-9
1523010121735946,-4,0,-2,0,-11,-3,8,-4
1523010121735946,-4,0,1,2,3,1,1,0
1523010121742965,1,-6,-1,-1,1,-6,3,2
1523010121742965,-4,-5,-4,-1,21,-6,-6,-1
1523010121759008,-3,-10,-2,-3,-15,4,22,-5
1523010121759008,-1,4,-2,0,6,3,16,1
1523010121765024,-2,-5,0,-2,-7,-3,3,-4
1523010121765024,4,9,0,0,-1,2,1,4
1523010121782070,2,-2,-3,-2,5,-7,-11,-4
1523010121782070,-4,-3,-2,-1,-6,-7,-14,-5
1523010121783072,-3,0,-1,2,11,1,7,-1
1523010121783072,0,-16,-3,-4,-18,-1,5,0
1523010121804128,-3,12,5,1,8,3,4,1
1523010121804128,-1,0,-3,-1,-18,-5,-2,2
1523010121806134,-2,-21,0,2,7,-2,2,0
1523010121806134,2,-2,2,0,-9,-3,-4,-3
1523010121819168,-14,-19,-3,-1,0,2,4,1
1523010121819168,-1,13,-2,-1,5,1,-16,-2
1523010121821173,0,1,-2,-4,-4,-1,3,0
1523010121821173,4,1,1,-3,-1,4,6,1
1523010121841227,5,7,-3,0,2,-4,-6,2
1523010121841227,1,-7,-5,2,7,-1,12,5
1523010121848245,-1,4,-2,-3,-2,2,-6,-8
1523010121848245,4,-1,3,0,-4,-1,4,7
1523010121856266,-1,-2,-3,-4,-13,2,-11,-1
1523010121856266,7,5,1,-2,0,-1,1,9
1523010121863285,3,-4,-3,2,-3,1,4,3
1523010121863285,0,-24,-2,3,14,2,-3,3
1523010121878325,2,-3,4,0,3,-3,-3,5
1523010121878325,0,-9,-5,-1,-8,-4,11,3
1523010121887350,-3,-11,-4,-5,0,-5,-2,4
1523010121887350,0,20,2,-1,-2,0,-2,-3
1523010121901387,-2,4,3,1,7,3,0,-2
1523010121901387,1,1,-1,0,-4,1,-1,-5
1523010121903392,1,10,-3,-1,0,-4,-6,2
