timestamp,emg1,emg2,emg3,emg4,emg5,emg6,emg7,emg8
1523010133419017,36,-6,-1,-5,-1,-12,5,5
1523010133419017,-3,16,0,3,7,4,37,85
1523010133424030,12,-3,-4,-9,-7,-9,-36,-55
1523010133424030,-31,4,3,2,2,11,10,3
1523010133424030,-43,-11,2,-1,-5,-30,-15,-32
1523010133424030,61,11,-3,-2,-2,10,7,-9
1523010133425033,-25,3,0,0,1,5,19,7
1523010133425033,15,-5,-7,-5,0,-14,-7,25
1523010133431049,23,-2,5,3,2,13,4,5
1523010133431049,-35,1,-1,0,0,28,-4,-14
1523010133437065,15,5,-3,-3,-7,-42,-1,28
1523010133437065,24,-5,-5,-9,-7,22,-17,5
1523010133451102,-50,-17,-1,2,-4,-7,0,-53
1523010133451102,32,9,4,7,3,-10,-4,29
1523010133462132,-65,-7,-1,3,6,21,16,10
1523010133462132,-6,-2,4,2,-2,-12,-13,-38
1523010133466142,9,1,1,-5,-6,3,1,41
1523010133466142,-16,3,-7,-6,-4,0,-7,-44
1523010133497229,-1,-2,1,6,5,1,0,7
1523010133497229,53,8,-2,-5,0,-17,10,5
1523010133498228,-23,-10,1,-1,2,37,3,16
1523010133498228,-45,-7,-1,4,-1,-18,-15,-29
1523010133510259,-2,0,-3,-3,0,-7,10,24
1523010133510259,-18,-8,-2,1,-4,-6,-10,-52
1523010133550366,-56,7,1,2,6,23,38,1
1523010133550366,-42,-19,1,-2,-3,10,-27,-6
1523010133550366,41,9,4,3,2,-1,-15,9
1523010133550366,-1,7,0,1,-9,-19,22,4
1523010133551369,49,3,-3,-2,6,9,-60,31
1523010133551369,-8,5,1,7,5,1,30,-4
1523010133552372,-14,-22,-1,-6,-5,-3,-8,-24
1523010133552372,-11,4,-9,-3,3,6,1,-6
1523010133557385,0,7,1,-2,-13,-13,-4,-12
1523010133557385,42,5,0,-3,5,-4,7,22
1523010133570419,-5,-16,4,0,2,5,-14,-10
1523010133570419,-30,-5,-1,-1,-3,-3,5,4
1523010133579443,-7,-8,-9,-6,-3,-1,10,-26
1523010133579443,-5,-1,-4,-6,-5,-3,-10,4
1523010133585459,21,5,4,2,-3,-3,23,-12
1523010133585459,35,6,7,3,2,-7,-48,12
1523010133602505,-20,-5,-5,-1,-1,13,29,3
1523010133602505,45,16,4,2,-3,-16,-49,4
1523010133616542,-62,-28,-9,-10,-2,1,31,-10
1523010133616542,-1,5,0,7,5,4,28,-6
1523010133622558,35,13,6,7,-2,-10,-36,16
1523010133622558,1,-6,-4,-2,-2,-3,-2,-1
1523010133639603,6,-4,5,2,0,0,-14,3
1523010133639603,-59,-5,-6,-7,-1,1,-11,-25
1523010133640606,23,-1,-5,-1,-1,-4,23,2
1523010133640606,-10,-8,1,-1,-3,1,1,2
1523010133662665,-11,-7,2,0,-1,-3,-6,0
1523010133662665,40,7,1,1,2,8,17,16
1523010133667678,1,6,1,2,-1,-10,-9,-15
1523010133667678,-34,-7,-6,-6,-3,-2,-11,-20
1523010133676702,-21,-18,-3,-5,-2,-4,31,6
1523010133676702,15,11,-3,-2,-4,-9,-24,-7
1523010133682718,15,1,-1,2,1,-1,8,11
1523010133682718,14,-8,1,2,3,14,19,8
1523010133706782,13,2,2,10,9,0,-3,11
1523010133706782,8,3,2,-5,-5,-3,0,-16
1523010133708787,4,-10,-1,-1,-4,-10,-17,-4
1523010133708787,13,8,-3,-2,2,6,16,-3
1523010133721822,-9,5,5,3,1,2,-4,8
1523010133721822,11,-6,-3,-1,-7,-4,-19,6
1523010133723827,10,5,-2,-4,-1,4,26,3
1523010133723827,8,-2,3,4,2,-2,9,-8
1523010133736862,2,0,-2,-2,-7,0,-10,1
1523010133736862,-38,-10,-6,-5,-4,-1,8,-17
1523010133742878,-30,-7,-3,0,2,-3,-18,-10
1523010133742878,-6,-4,-1,-1,0,6,-7,-4
1523010133758920,16,1,7,4,-2,-5,-15,4
1523010133758920,13,1,-4,-4,-1,3,25,13
1523010133760926,-41,-2,-4,-7,-16,-4,8,-14
1523010133760926,24,5,3,4,15,-9,-17,9
1523010133781982,-6,-4,-1,-1,-2,-1,-22,-11
1523010133781982,1,5,-3,-2,-1,0,12,-15
1523010133783987,-13,-4,-3,-4,-2,-6,-12,0
1523010133783987,-10,-17,-7,-2,-12,-6,-8,1
1523010133796019,-13,0,-3,-1,11,3,-3,-4
1523010133796019,19,5,6,7,4,2,-4,17
1523010133803038,21,2,0,0,3,0,6,8
1523010133803038,-2,10,3,-3,-10,-5,3,-5
1523010133819080,-5,-13,-1,3,0,-4,-7,0
1523010133819080,11,-4,-1,-2,0,5,-4,12
1523010133821086,29,12,3,5,8,1,5,-5
1523010133821086,-53,-9,0,0,-2,-10,-5,-3
1523010133842142,7,6,0,-3,-2,11,2,3
1523010133842142,11,-5,-5,-3,-1,0,22,6
1523010133843144,10,6,1,-2,-2,-5,0,4
1523010133843144,-44,4,0,-3,-2,2,12,-17
1523010133855176,34,-8,-3,3,0,5,19,7
1523010133855176,-37,-10,2,3,2,-4,-12,2
1523010133864201,-7,-8,-4,-2,3,4,-12,-2
1523010133864201,24,4,-2,-2,-5,0,23,8
1523010133879240,16,-6,1,-1,1,0,-5,12
1523010133879240,14,9,-2,-7,-4,5,35,-4
1523010133881246,6,-10,0,2,3,-3,-18,7
1523010133881246,-31,-4,-7,-6,-4,-2,10,-19
1523010133902302,7,10,0,-1,-2,-4,7,2
1523010133902302,0,-3,1,-1,-3,-3,-12,-8
1523010133903305,-66,-14,-6,-7,-6,-2,-11,-28
1523010133903305,19,6,-1,0,7,12,59,11
1523010133915336,50,14,8,1,-3,-11,-68,7
1523010133915336,-55,-20,-8,2,3,-7,-57,-32
1523010133924361,12,10,7,1,0,-3,29,2
1523010133924361,16,-11,1,0,-1,4,1,1
1523010133939400,-9,14,-7,-7,-4,-4,19,1
1523010133939400,40,12,6,2,1,1,-51,-18
1523010133941406,-69,-41,-1,-1,-1,4,-3,-16
1523010133941406,-16,6,-6,-5,-4,-5,-11,2
1523010133961459,-24,8,-1,-2,-4,-2,11,-8
1523010133961459,20,4,-2,3,0,0,13,4
1523010133963465,15,2,2,1,0,-1,3,-1
1523010133963465,16,2,5,2,0,1,-12,25
1523010133975496,-34,-16,-4,-2,0,-5,27,-24
1523010133975496,-13,-8,-7,1,4,10,-16,2
1523010133984521,34,24,2,-3,-3,-5,0,12
1523010133984521,32,-3,4,2,-1,-5,-33,0
1523010133999560,-33,1,-2,-1,0,14,59,10
1523010133999560,-16,-17,-4,-2,-1,-1,13,-15
1523010134000563,37,5,3,7,3,-7,-29,20
1523010134000563,-11,15,1,1,-1,-5,0,-10
1523010134021619,16,-2,-1,1,1,4,-3,-8
1523010134021619,28,7,3,-2,-2,-6,29,25
1523010134023625,-21,-2,-3,-3,0,-5,1,-12
1523010134023625,20,1,-2,-1,0,9,-10,1
1523010134035656,-31,0,0,-2,-4,-4,-16,-20
1523010134035656,13,-7,2,-3,0,0,-19,34
1523010134044681,-19,0,-9,-4,-2,3,5,-11
1523010134044681,14,5,5,3,2,-12,-4,7
1523010134059720,14,-3,-2,-2,-1,8,16,12
1523010134059720,-46,13,-3,1,0,-10,-27,-10
1523010134066739,8,-11,-4,-5,-3,2,49,-11
1523010134066739,-3,-13,-3,-1,-2,-9,-41,-15
1523010134081779,54,8,0,-3,0,10,-6,35
1523010134081779,-40,-1,2,5,2,2,29,-21
1523010134083785,19,9,1,-2,-3,-6,-20,8
1523010134083785,-38,-6,-1,1,1,4,7,-21
1523010134095816,26,1,1,0,1,-4,-7,36
1523010134095816,14,8,6,5,1,-2,0,-9
1523010134110857,11,5,-2,0,3,9,2,7
1523010134110857,-39,-24,-5,-2,-2,-11,5,-19
1523010134118878,6,6,-5,-5,-1,-2,-18,24
1523010134118878,-42,-9,-9,-8,-6,6,5,-66
1523010134120883,4,7,3,7,4,-5,10,43
1523010134120883,30,-5,2,-4,-1,27,25,-21
1523010134141939,-54,-17,3,2,-2,-34,-41,-39
1523010134141939,69,18,0,0,0,7,20,69
1523010134143944,4,3,4,1,1,-5,13,26
1523010134143944,-9,-7,-5,-7,-2,14,-12,-23
1523010134155976,-68,-15,-8,-9,-9,-37,-32,-67
1523010134155976,1,-4,0,1,3,26,18,14
1523010134165001,21,6,5,7,1,-8,4,24
1523010134165001,14,8,1,2,1,9,6,28
1523010134180041,42,7,-1,-1,-1,9,29,3
1523010134180041,-57,-21,-5,-5,-4,-16,-22,-12
1523010134182046,-14,-9,-4,-1,1,1,-3,-20
1523010134182046,47,23,-1,-3,-4,1,17,12
1523010134202099,14,6,0,6,5,12,0,19
1523010134202099,17,0,5,4,1,1,2,-1
1523010134203102,-13,0,2,-4,-4,0,-7,1
1523010134203102,-10,-1,0,-1,-2,-12,-3,7
1523010134215134,-1,-1,-3,-4,0,9,5,-17
1523010134215134,26,3,3,3,0,-4,1,20
1523010134224158,0,-10,-5,-5,-4,4,-6,-9
1523010134224158,-22,-4,4,6,2,-13,-27,-33
1523010134239198,-2,-5,-5,-3,-1,19,19,3
1523010134239198,-24,-14,-4,-4,-2,-7,-9,-19
1523010134241203,-1,8,0,-4,-5,1,-6,-13
1523010134241203,-9,-6,0,-1,1,9,11,20
1523010134262259,11,5,1,2,0,-7,2,25
1523010134262259,-15,-5,-3,-1,-4,-18,-21,-42
1523010134263262,20,-2,-2,0,3,27,-1,-5
1523010134263262,3,-3,-2,-4,0,-6,14,51
1523010134275294,-12,5,5,11,3,4,2,-1
1523010134275294,-4,0,-1,-5,-2,-4,-11,-12
1523010134300361,-17,-11,-4,-1,-1,-8,4,6
1523010134300361,-8,-6,-6,-2,-4,-3,-10,-20
1523010134300361,19,7,-1,-1,-1,1,4,9
1523010134300361,34,10,-2,0,-2,-18,6,27
1523010134302366,-34,-18,-2,-2,-1,25,-6,-28
1523010134302366,-7,1,2,2,3,-1,-11,-4
1523010134329439,-16,-6,-5,-3,-1,4,4,-11
1523010134329439,41,11,0,0,-3,-15,3,32
1523010134331444,-17,-1,0,-1,-2,5,-11,-31
1523010134331444,-6,-4,-3,-2,-6,-19,-8,2
1523010134335455,-7,-1,-2,-2,-3,-6,-13,-23
1523010134335455,6,-2,2,2,3,15,16,40
1523010134344478,12,0,2,0,0,-1,-15,-33
1523010134344478,7,-1,-1,1,0,-2,7,1
1523010134359518,-44,-6,-2,-2,-2,-12,-6,-16
1523010134359518,8,1,1,-3,0,36,14,26
1523010134360521,2,-4,-2,-2,-8,-33,-13,-13
1523010134360521,7,4,-2,1,2,21,10,-16
1523010134381577,18,-1,2,0,3,-7,-1,24
1523010134381577,-53,-9,-4,-2,-1,4,-2,-30
1523010134383582,1,1,2,2,1,5,-3,8
1523010134383582,19,-2,-4,-2,-4,-10,-12,-14
1523010134395615,27,13,1,1,2,7,7,10
1523010134395615,-14,-4,0,-1,-1,-5,-4,-23
1523010134404639,9,2,-2,0,1,-6,2,25
1523010134404639,0,1,1,0,1,4,-3,22
1523010134419678,7,0,-1,-4,3,12,0,-16
1523010134419678,-5,5,0,0,0,-3,2,-3
1523010134426696,-4,-2,1,-1,-3,-11,-1,14
1523010134426696,-11,0,-3,-4,2,8,-3,-4
1523010134441736,34,11,-3,-1,-3,-7,5,23
1523010134441736,-36,-14,-3,-3,-2,6,-8,-20
1523010134443742,2,4,1,0,1,-11,5,16
1523010134443742,-16,-1,-1,2,1,-6,8,4
1523010134455774,2,-2,-2,-1,-3,3,-10,-5
1523010134455774,26,10,1,1,-3,-1,2,4
1523010134464798,4,3,1,0,-1,4,7,5
1523010134464798,-13,-5,-2,-1,-2,-13,-6,-4
1523010134478835,-24,-8,-1,0,0,-9,-2,-12
1523010134478835,32,5,-2,-2,-1,19,3,23
1523010134486857,-26,-9,-3,-3,-1,-3,-3,-19
1523010134486857,1,3,4,1,2,-6,0,-18
1523010134502899,21,4,0,2,-3,-7,-2,18
1523010134502899,-32,-7,-4,-3,3,5,-1,2
1523010134503902,-13,-5,-1,1,-1,14,-2,-23
1523010134503902,-1,-7,-1,-3,-4,-13,-10,-9
1523010134523955,-1,-4,-2,-3,-3,10,13,15
1523010134523955,34,8,4,2,-1,-31,-9,10
1523010134525961,11,-3,0,-2,2,31,9,25
1523010134525961,-13,0,-1,0,4,13,8,-26
1523010134547016,-3,-1,0,-1,-4,-30,-10,-1
1523010134547016,-6,-2,1,1,1,-1,6,-10
1523010134549022,2,0,-1,-2,0,-12,-2,7
1523010134549022,22,0,2,2,0,13,8,21
1523010134560051,-34,-11,-6,-3,-4,6,-6,-28
1523010134560051,14,8,-1,-1,-2,-3,-5,-7
1523010134585118,3,2,0,0,-2,-10,2,13
1523010134585118,12,-3,-3,-3,-2,10,2,16
1523010134586121,-29,-5,-2,0,0,2,-2,-39
1523010134586121,18,10,1,4,1,7,2,11
1523010134587123,12,2,1,0,1,-2,-5,-9
1523010134587123,-7,-5,0,1,-2,-11,1,18
1523010134607176,10,5,0,0,-1,-4,-1,16
1523010134607176,-5,-9,-6,-6,-1,12,-7,-12
1523010134613193,-11,-6,-5,-6,-7,-25,-5,-30
1523010134613193,-3,10,5,5,4,0,-3,0
1523010134620211,2,-3,-1,2,1,-5,5,28
1523010134620211,2,5,-3,-4,-2,34,9,-25
1523010134629235,21,0,2,-1,-1,-20,-10,18
1523010134629235,-23,-12,-2,0,-1,-5,4,-16
1523010134644275,5,6,0,-3,-3,13,-15,-18
1523010134644275,11,4,2,3,-1,-34,15,29
1523010134646281,-27,-7,-2,3,1,10,1,-4
1523010134646281,23,-1,0,-3,-3,-4,9,-3
1523010134667336,0,-6,2,1,4,-6,8,21
1523010134667336,-1,5,-6,-1,-1,-1,14,13
1523010134668339,-9,2,1,1,3,22,-16,-18
1523010134668339,-18,-12,-1,-4,-2,-4,-4,-13
1523010134680371,-6,-1,0,-1,0,2,-10,-20
1523010134680371,-15,-11,-3,-3,0,-9,-9,-4
1523010134689395,-2,-2,-4,-3,-1,-13,2,-8
1523010134689395,-2,4,-2,1,-3,5,-4,13
1523010134704435,22,1,2,0,0,5,4,20
1523010134704435,-23,-8,-1,1,1,0,3,-27
1523010134706440,2,0,-4,-4,-3,-2,5,11
1523010134706440,0,-7,2,1,2,19,1,7
1523010134735518,0,6,3,-1,-5,-26,-33,-8
1523010134735518,11,-4,-3,2,1,0,-6,23
1523010134741534,19,0,-2,-2,-1,12,10,-16
1523010134741534,-53,-9,-1,-2,0,-2,-13,-3
1523010134741534,15,7,3,2,0,11,13,12
1523010134741534,5,4,2,1,-3,-19,-12,2
1523010134749555,10,-9,-3,-2,-1,0,-9,4
1523010134749555,12,-1,-2,0,-2,-3,23,4
1523010134764595,-3,-4,-3,-1,1,-11,-29,-8
1523010134764595,-16,-2,-5,-4,-5,-1,-16,-26
1523010134765598,20,4,4,2,2,1,10,16
1523010134765598,2,6,-1,-1,-1,-7,-3,2
1523010134786653,-18,-13,-5,-1,-1,-7,6,-3
1523010134786653,17,4,-1,-1,0,18,10,0
1523010134788659,1,4,4,1,-3,-13,-9,9
1523010134788659,22,-1,-1,0,3,14,5,7
1523010134800691,-22,-4,-1,-1,1,13,36,17
1523010134800691,-30,-4,-2,-6,-6,-12,-24,-21
1523010134824755,-4,0,-2,1,2,0,-1,-2
1523010134824755,9,6,-3,-3,-4,-18,-22,-6
1523010134825758,16,-1,2,2,1,13,42,15
1523010134825758,10,3,-1,-2,2,-5,-33,19
1523010134827763,-10,10,1,-2,-4,-7,-14,-15
1523010134827763,21,2,-2,0,0,5,-2,2
1523010134846814,-21,-11,-6,-2,-2,-5,8,-13
1523010134846814,4,1,2,3,1,2,19,12
1523010134848820,1,-4,-1,-3,-2,4,-1,-1
1523010134848820,-13,-11,-3,-5,-3,-1,4,-7
1523010134860851,-9,13,-1,0,0,-3,-12,-12
1523010134860851,4,-5,-4,0,0,-4,5,1
1523010134869875,-10,10,0,2,-1,-4,1,15
1523010134869875,17,-7,1,1,2,-4,9,-1
1523010134884915,14,4,0,-3,-2,5,-11,-7
1523010134884915,-32,-9,-2,-2,-1,-4,-8,-9
1523010134890931,3,-4,-3,-4,-2,1,2,-8
1523010134890931,18,11,4,3,1,-18,-23,1
1523010134906974,10,-1,-2,0,0,11,15,-9
1523010134906974,-30,1,0,2,0,0,4,-6
1523010134908979,-8,-6,-2,0,1,3,20,0
1523010134908979,-14,-3,-1,-4,-5,-8,-3,-27
1523010134921011,0,4,0,0,1,-3,18,1
1523010134921011,18,2,-1,0,-1,5,-34,-2
1523010134930035,-22,-13,-2,-2,-3,-6,10,-14
1523010134930035,8,4,4,2,2,1,0,16
1523010134944072,10,4,-1,0,-2,0,-21,-12
1523010134944072,-16,-10,-10,-6,-4,-5,7,0
1523010134950088,18,10,3,3,1,4,8,11
1523010134950088,14,-3,1,0,-2,2,-9,11
1523010134967134,-30,-15,-3,-5,-8,-13,5,-17
1523010134967134,12,8,1,4,3,10,33,9
1523010134969139,38,11,0,0,0,1,-16,4
1523010134969139,-29,-20,-3,0,-1,-2,12,-4
1523010134981171,5,16,-4,-3,-3,-3,-19,3
1523010134981171,15,8,7,3,1,-9,10,12
1523010134989192,-5,-28,-8,-8,-5,-1,5,-6
1523010134989192,-30,14,3,3,0,-2,-18,-3
1523010135003229,16,0,1,2,0,1,-11,2
1523010135003229,31,11,0,-3,-3,-7,11,9
1523010135018270,-19,-12,1,-2,-2,3,-1,-12
1523010135018270,-13,-11,-7,-3,-1,0,9,-4
1523010135027293,-14,-3,-2,0,3,3,4,6
1523010135027293,0,7,-1,-2,0,3,-37,-10
1523010135028296,-3,0,1,-1,-2,-3,17,2
1523010135028296,-6,-3,-1,1,-1,5,22,1
1523010135049352,25,-5,1,1,2,4,1,8
1523010135049352,-40,-7,-5,-4,-5,-7,0,-16
1523010135051358,8,12,-1,6,4,2,2,5
1523010135051358,14,-4,0,-1,-1,0,-9,8
1523010135063390,-13,-10,-3,-1,-1,2,-1,-4
1523010135063390,13,-1,-4,-3,-2,-9,-11,-2
1523010135070408,-4,4,-2,-1,0,5,25,-2
1523010135070408,-10,-1,4,-4,-3,-2,7,6
1523010135086451,-8,-1,0,-2,-2,-6,-16,-8
1523010135086451,-3,-3,0,-2,0,-2,6,-6
1523010135088456,-6,-13,-3,-2,-1,-2,-12,3
1523010135088456,25,13,1,0,-1,-8,-28,4
1523010135109512,-16,-12,0,-4,-2,3,8,-9
1523010135109512,-22,1,-2,-3,-5,-7,-8,-15
1523010135111518,-8,5,3,6,2,4,10,5
1523010135111518,0,-5,-4,-2,-4,-3,5,-9
1523010135131571,22,1,0,0,-1,4,-15,10
1523010135131571,-11,-6,0,0,-1,-1,-3,-2
1523010135133576,6,-4,-1,-1,-3,-3,1,2
1523010135133576,-21,-4,-3,-2,1,4,12,-5
1523010135146611,6,9,1,1,1,0,-10,-1
1523010135146611,19,12,11,0,-1,0,8,-2
1523010135148617,0,-6,-5,1,-1,-1,-16,0
1523010135148617,0,-4,-3,-2,0,-2,2,-7
1523010135168670,-5,-2,-4,-2,-1,0,4,-5
1523010135168670,7,-5,-4,-2,-1,0,7,9
1523010135176691,-15,-2,-5,-5,-2,-5,-15,-1
1523010135176691,4,1,-2,3,2,-3,-19,-4
1523010135183710,23,21,12,1,-2,5,15,12
1523010135183710,-60,-16,-3,-5,-3,-7,-11,-24
1523010135190728,35,35,4,4,2,4,6,14
1523010135190728,-11,-21,-12,-5,-5,-1,4,-5
1523010135206771,-10,1,-7,-4,-3,-4,-8,-3
1523010135206771,22,4,2,1,-1,-1,28,12
1523010135208776,-10,-4,2,-1,-1,-1,-10,-1
1523010135208776,5,-3,-1,-4,-1,0,-1,7
1523010135229832,-1,1,1,2,0,-5,-2,-2
1523010135229832,22,3,-5,-2,0,4,13,7
1523010135230835,-3,-9,-3,-6,-2,-3,-1,2
1523010135230835,-9,14,5,3,0,-1,-8,2
1523010135243869,-12,-8,-7,-2,-1,4,10,-1
1523010135243869,14,-11,1,6,4,-3,16,-3
1523010135257907,18,5,1,-9,-8,3,-49,3
1523010135257907,-48,-18,-4,0,2,-1,1,-5
1523010135266931,17,-7,-8,-1,2,-1,-6,5
1523010135266931,-10,0,-1,0,0,-4,0,16
1523010135268936,9,7,3,-3,-1,-8,-5,-14
1523010135268936,21,9,6,2,-1,-5,-17,4
1523010135288990,-35,-12,-6,-1,0,1,15,-34
1523010135288990,20,-7,-4,-1,2,9,-6,-1
1523010135290995,-5,1,-1,1,0,-17,11,-1
1523010135290995,17,7,-2,-5,0,16,0,2
1523010135303027,-3,-9,1,-4,-5,-2,-10,4
1523010135303027,19,-2,5,8,4,11,10,6
1523010135312051,-71,-24,-5,-2,-3,-5,-11,-39
1523010135312051,20,10,1,0,0,7,22,-5
1523010135327091,16,8,1,1,0,-17,-44,17
1523010135327091,-4,-17,-6,-7,-3,2,0,-13
1523010135328094,-5,10,4,4,3,5,12,13
1523010135328094,0,-4,0,1,-2,-9,-33,-8
1523010135349150,-28,9,2,1,0,3,9,-18
1523010135349150,16,5,0,-3,-3,-15,-16,11
1523010135351155,34,-6,0,4,3,9,8,26
1523010135351155,-41,-14,-5,-10,-7,8,17,-44
1523010135363188,25,13,-1,-1,0,14,-1,21
1523010135363188,7,-2,2,-6,-4,-15,-13,2
1523010135372211,-14,-6,-2,3,2,-1,-5,-21
1523010135372211,5,2,1,0,-1,-16,19,6
1523010135387251,8,1,2,-2,1,-1,-12,13
1523010135387251,-46,-15,-9,-6,-2,12,-7,-36
1523010135388254,40,18,4,0,-5,-22,-8,16
1523010135388254,8,0,0,3,4,7,5,33
1523010135409310,-16,-7,-5,-3,-6,-17,-33,-72
1523010135409310,6,-5,-1,0,-1,22,23,5
1523010135411315,-30,-23,-6,-5,9,-2,9,-4
1523010135411315,62,23,4,-2,-15,-12,-7,35
1523010135423347,34,8,3,0,10,1,12,26
1523010135423347,-57,-18,-1,3,0,-9,-5,-19
1523010135432371,-10,-3,-4,-3,-1,6,-6,-5
1523010135432371,-18,-14,-4,-1,-2,-2,-3,-15
1523010135447411,8,7,-2,-2,3,1,29,17
1523010135447411,-3,-1,4,2,2,5,-15,18
1523010135449417,-28,-15,-1,5,1,1,7,8
1523010135449417,33,3,-3,-5,-2,-17,2,-5
1523010135476488,-13,0,3,2,-10,-45,-16,1
1523010135476488,24,-10,2,5,8,58,36,21
1523010135478494,-23,-3,-1,0,-5,-3,-1,-19
1523010135478494,-7,-4,-2,-1,1,4,4,19
1523010135483507,-4,4,4,5,3,17,-1,-26
1523010135483507,11,8,0,2,0,-24,-10,14
1523010135492531,18,4,1,0,-3,2,-5,-11
1523010135492531,-34,-10,-2,-3,2,6,-5,-25
1523010135506568,-15,-8,-5,-2,-4,1,-2,-9
1523010135506568,31,21,0,-5,-4,-10,-9,14
1523010135508574,2,4,4,1,-1,9,5,4
1523010135508574,-8,-3,-2,1,2,-11,-8,-4
1523010135529631,-10,-9,-4,-4,-3,23,-3,-20
1523010135529631,5,1,2,-2,-5,-29,-7,4
1523010135531635,4,-5,-4,-6,-4,-4,5,-8
1523010135531635,-17,5,2,2,-1,-6,-6,4
1523010135542664,-1,-3,-2,-1,5,35,22,57
1523010135542664,19,6,1,2,-2,-8,-6,-57
1523010135557704,23,-6,-3,-4,-6,-22,-24,-8
1523010135557704,-62,-8,-1,2,5,22,10,-3
1523010135566728,-17,1,-2,-4,-6,-10,0,8
1523010135566728,6,-1,0,0,-1,-6,-1,4
1523010135568734,9,2,2,-1,-2,6,5,10
1523010135568734,6,-3,1,0,0,4,-3,-24
1523010135589789,7,4,4,6,0,-23,1,9
1523010135589789,-14,-5,-6,-9,-6,14,-3,-8
1523010135590793,-14,-5,1,8,5,5,-7,-25
1523010135590793,22,4,-3,-4,-5,2,2,10
1523010135602824,-19,0,4,2,0,-10,1,0
1523010135602824,9,-3,0,0,2,13,-1,18
1523010135611848,1,4,1,-1,-1,3,0,0
1523010135611848,-36,-16,-4,0,1,-20,-6,-11
1523010135626888,8,-4,-6,-2,-4,-13,-16,-33
1523010135626888,2,0,-1,-5,0,-11,4,22
1523010135628894,10,7,1,-2,-1,14,9,15
1523010135628894,18,6,4,3,1,0,6,10
1523010135648947,-4,-10,-4,-5,-3,-3,-2,4
1523010135648947,17,2,0,1,2,-2,2,9
1523010135650952,-45,-6,-4,-3,-4,-9,-13,-24
1523010135650952,11,-1,0,-2,0,6,4,10
1523010135662988,11,4,-1,0,2,3,5,13
1523010135662988,-18,-10,-1,0,-1,5,-10,-30
1523010135672008,17,-3,-5,-2,-5,-14,-2,31
1523010135672008,-2,-2,-2,0,-4,-10,-11,-30
1523010135687048,20,6,-1,1,0,7,9,19
1523010135687048,-2,-5,1,1,0,-4,-4,2
1523010135689054,1,-2,-1,-2,0,-9,0,-8
1523010135689054,7,2,-1,0,0,9,4,23
1523010135710109,-12,-5,-4,-1,3,-1,-4,-25
1523010135710109,-6,4,-1,3,-1,-3,0,1
1523010135715123,-27,-11,-1,-1,4,21,5,-4
1523010135715123,-3,2,-2,-4,-5,-11,-9,-13
1523010135723144,24,5,2,1,1,5,8,17
1523010135723144,-32,-14,1,-3,-2,-4,-5,-11
1523010135732169,13,5,0,1,1,2,5,10
1523010135732169,12,0,0,-3,-1,-2,-7,-7
1523010135747208,-18,-3,1,3,-2,-9,1,-3
1523010135747208,6,-1,-4,-2,-1,19,5,9
1523010135748211,-5,1,0,-2,-5,-13,-7,-15
1523010135748211,30,4,2,3,1,8,10,16
1523010135770270,-3,0,-4,-4,-2,10,2,3
1523010135770270,-7,3,1,0,-7,-40,-25,-5
1523010135771272,-23,-13,-3,-1,2,6,14,13
1523010135771272,5,-1,-3,-1,-1,-5,-3,-9
1523010135783304,12,6,2,-1,-2,8,-2,-2
1523010135783304,5,1,1,2,0,3,-1,-15
1523010135792328,16,2,-1,1,0,6,3,7
1523010135792328,0,-2,2,2,0,-7,1,24
1523010135807368,-1,1,-5,-3,0,-5,15,11
1523010135807368,-5,-6,-1,-1,3,29,0,-22
1523010135808371,-3,3,-4,-2,-3,-9,-7,-10
1523010135808371,3,3,4,3,4,6,10,13
1523010135829430,-13,-6,0,0,-4,-17,-11,-4
1523010135829430,6,1,0,-1,-2,-6,5,19
1523010135835443,26,1,-1,-4,-2,41,10,-6
1523010135835443,0,-1,-3,-3,-2,-11,-11,5
1523010135843464,-26,-8,-3,-4,-5,-4,-4,-17
1523010135843464,-20,2,0,2,-1,-8,5,-6
1523010135852488,-1,-5,-3,-2,1,-11,-9,-6
1523010135852488,4,-3,-2,-2,-4,7,0,-9
1523010135865523,3,3,0,2,5,14,1,0
1523010135865523,6,-1,-1,-1,-3,-13,5,23
1523010135874547,8,5,3,4,2,-9,-1,12
1523010135874547,-2,-5,-6,-4,-2,-2,-6,-16
1523010135889587,-3,3,-1,1,0,-4,-5,-7
1523010135889587,13,2,-3,-3,0,4,12,2
1523010135890589,33,10,3,0,0,-9,-3,27
1523010135890589,-52,-10,-3,-1,0,18,-1,-20
1523010135902621,-4,-1,0,-1,0,5,-4,1
1523010135902621,11,-1,-3,-2,-1,-1,0,-7
1523010135912654,-31,-4,2,-1,-3,-8,1,-27
1523010135912654,14,0,-3,-1,-1,0,-2,1
1523010135934707,-6,4,1,0,-2,-5,3,-15
1523010135934707,-5,-1,-3,-3,1,-1,-8,6
1523010135935710,4,1,0,-1,-1,-7,1,2
1523010135935710,-25,-5,-1,-1,0,4,1,-18
1523010135956765,-2,3,-2,1,-2,-8,-1,8
1523010135956765,1,3,-1,-1,3,20,9,-5
1523010135958771,-1,-1,-4,-4,-6,-10,-9,3
1523010135958771,7,1,5,1,1,2,-4,5
1523010135971805,14,-1,0,-2,-4,-11,1,0
1523010135971805,3,-3,1,0,-1,-16,-20,0
1523010135973811,-5,-4,-1,2,4,28,23,-12
1523010135973811,-6,-1,1,1,2,-7,-7,3
1523010135985843,4,0,-3,0,-1,-4,-3,-1
1523010135985843,11,8,2,0,-3,-13,-6,15
1523010136000883,-26,-10,-2,-2,-2,7,5,-20
1523010136000883,36,1,1,2,0,-4,-15,6
1523010136008904,14,6,-4,-1,0,-1,23,6
1523010136008904,-30,-6,1,0,1,-2,-3,-13
1523010136010909,40,9,2,-1,-1,-10,-2,30
1523010136010909,-36,-13,-1,-1,-2,-1,4,-11
1523010136031965,-13,-3,-4,-4,-4,11,-17,-11
1523010136031965,3,2,0,1,-1,-4,13,1
1523010136033971,-3,-4,2,3,4,-1,-1,11
1523010136033971,20,4,-4,-4,-6,-8,7,-9
1523010136046005,0,1,-2,-1,-1,3,-7,-6
1523010136046005,-20,-5,0,1,-1,1,4,2
1523010136053021,2,3,-1,-1,-1,-9,-17,-3
1523010136053021,30,7,-2,-1,0,19,20,17
1523010136069064,-35,-8,0,1,1,-9,-18,-12
1523010136069064,17,5,-4,-7,-4,17,-1,-4
1523010136071069,-22,-14,-1,1,-2,-7,-3,-6
1523010136071069,2,1,1,2,1,-4,4,16
1523010136092125,2,0,1,-1,-2,6,-1,1
1523010136092125,3,-4,-3,0,0,0,-4,13
1523010136093128,12,7,-2,-5,-1,-7,11,-6
1523010136093128,-5,-2,-1,-1,-1,-7,-25,2
1523010136115187,-14,-1,2,-1,-2,7,5,5
1523010136115187,-6,-13,-2,0,0,-2,-5,-7
1523010136116190,43,18,0,0,0,1,7,10
1523010136116190,-7,-5,1,0,2,-2,-19,-6
1523010136129224,-21,-14,-7,-3,-4,0,3,-8
1523010136129224,-5,3,-2,-3,-4,-8,1,-18
1523010136131229,-17,-9,-4,0,2,8,8,4
1523010136131229,14,7,3,0,-2,-17,-8,3
1523010136152285,15,6,2,2,1,4,25,6
1523010136152285,15,8,-6,-4,-3,-5,-47,-9
1523010136153288,3,-1,-1,2,-1,9,22,15
1523010136153288,-3,-3,3,0,0,-3,16,0
1523010136166323,-5,-4,1,0,0,0,-1,10
1523010136166323,-19,2,1,0,-1,-4,0,-11
1523010136173341,-4,-5,-1,-1,1,7,15,0
1523010136173341,20,-1,-3,-4,-4,-1,-2,-2
1523010136196403,2,6,2,3,0,0,1,5
1523010136196403,-23,-5,-2,0,0,-3,5,-18
1523010136198408,8,0,4,1,-1,-6,-22,-7
1523010136198408,-11,-2,4,1,-1,6,24,-9
1523010136211443,24,5,-7,-3,-2,-3,-18,-6
1523010136211443,13,-6,0,0,1,-6,32,13
1523010136213449,-43,-17,0,0,-1,1,-32,-18
1523010136213449,10,-2,-2,-3,-2,2,-2,9
1523010136225480,0,15,-2,-1,0,-1,-1,11
1523010136225480,1,-5,0,0,-2,-7,-8,0
1523010136234504,-5,-5,-2,-2,-1,-4,-23,-8
1523010136234504,5,-9,-1,1,-1,13,57,4
1523010136249544,-43,-1,1,-1,2,-1,-5,-7
1523010136249544,2,-15,-11,-5,-2,3,1,-8
1523010136251550,40,24,4,1,-2,-5,-10,-3
1523010136251550,-56,-21,-2,0,-1,0,-33,-13
1523010136271603,6,-1,-2,-1,-1,-4,-12,-1
1523010136271603,-14,0,3,-1,0,11,42,8
1523010136273608,0,-2,-2,0,-1,-2,-2,-1
1523010136273608,27,11,2,3,0,-4,-18,5
1523010136285640,17,-10,0,0,-4,-4,19,8
1523010136285640,-16,1,2,2,0,-4,-30,-2
1523010136294664,-7,3,-5,-4,-4,-1,12,-4
1523010136294664,-8,-7,1,-1,-1,-6,-9,-2
1523010136309704,33,1,-4,-3,-3,-7,-3,2
1523010136309704,-20,9,-5,-2,-3,3,11,-4
1523010136310707,-8,-4,0,0,1,-4,-6,-2
1523010136310707,9,-7,0,-1,-2,3,-8,-3
1523010136331763,-12,1,-7,-2,0,1,10,0
1523010136331763,15,5,1,3,0,-4,-5,-1
1523010136333768,-11,-10,-4,-3,-1,-4,-14,-2
1523010136333768,-7,9,1,-1,0,0,1,-6
1523010136345800,18,10,1,0,0,0,-6,0
1523010136345800,-2,-3,1,0,-2,3,10,3
1523010136354824,-20,-19,-2,1,0,-2,-13,-5
1523010136354824,0,8,2,3,1,0,4,-5
1523010136369864,10,-10,-4,-4,-1,0,-12,2
1523010136369864,0,3,2,1,1,-3,32,3
1523010136370867,-9,-4,-1,-6,-6,3,-7,-6
1523010136370867,21,16,1,-1,2,-5,-1,7
1523010136391923,-13,3,-1,4,0,6,5,-10
1523010136391923,16,3,2,0,0,-3,-18,10
1523010136393928,10,-9,1,1,0,1,9,3
1523010136393928,-30,-5,-4,-5,-3,2,2,-1
1523010136405960,-11,-1,1,-1,-2,-3,-8,-1
1523010136405960,16,3,0,2,1,1,-3,-3
1523010136414984,16,19,-1,1,0,-4,14,6
1523010136414984,13,-3,1,-2,-2,5,11,10
1523010136430024,-17,0,-2,-2,-5,-8,-6,-18
1523010136430024,6,-3,-3,-1,1,1,-14,7
1523010136431027,4,-6,1,-2,0,2,8,-4
1523010136431027,-10,0,0,-1,-1,2,15,-4
1523010136452083,10,3,0,1,1,2,0,7
1523010136452083,7,3,-1,-3,-3,-5,-21,-9
1523010136453086,-47,-6,-4,-2,-2,-4,-7,-10
1523010136453086,13,-5,-2,-1,-2,4,28,4
1523010136474141,4,-7,0,1,2,-2,-13,-3
1523010136474141,2,4,5,-3,-3,0,1,1
1523010136482163,4,12,0,1,1,1,16,9
1523010136482163,-18,-8,-6,-3,0,-4,-17,-12
1523010136489181,8,5,-3,-3,-2,0,-3,6
1523010136489181,4,2,-1,1,-2,1,3,1
1523010136491187,5,-6,0,0,-4,0,-10,3
1523010136491187,-18,-8,-3,1,-1,-1,5,-7
1523010136512244,40,12,2,1,1,3,4,6
1523010136512244,-12,-7,-2,2,2,-1,19,2
1523010136514248,-37,-15,-1,-4,-1,0,-42,-5
1523010136514248,-12,1,1,0,1,-9,-28,-4
1523010136525278,29,7,-1,-1,-2,5,42,10
1523010136525278,-1,14,0,0,-2,0,-20,-8
1523010136534301,-2,-8,-6,-1,-2,-1,10,-2
1523010136534301,8,11,9,2,1,-4,-10,10
1523010136549341,-42,-26,-14,-6,0,8,0,-10
1523010136549341,20,7,1,-6,-8,-17,-16,-4
1523010136551347,-26,-28,-11,-3,-2,0,8,-9
1523010136551347,-26,5,3,2,0,-8,-23,-8
1523010136572403,15,12,14,4,4,5,14,21
1523010136572403,7,2,-2,-4,1,11,18,-13
1523010136573405,60,24,2,4,2,4,-10,21
1523010136573405,-1,-11,-8,-2,1,-2,23,-3
1523010136585437,-15,-8,-4,-2,-6,-18,-56,-28
1523010136585437,-17,-16,-2,-3,1,13,24,2
1523010136594461,3,13,8,1,-3,-5,37,-8
1523010136594461,32,0,-3,2,2,-1,-42,-1
1523010136609501,-11,8,4,3,2,1,-2,0
1523010136609501,19,10,-6,-1,2,5,-6,5
1523010136611507,-9,-9,-3,-6,0,-7,-11,-7
1523010136611507,2,-8,0,-2,-4,8,44,8
1523010136631560,-26,-14,-6,-3,-1,-5,-18,-4
1523010136631560,11,4,-3,1,1,-5,-6,17
1523010136633565,14,21,12,0,-3,-10,-29,3
1523010136633565,-4,-4,-2,1,1,11,26,-8
1523010136645597,12,10,0,-2,0,1,-31,1
1523010136645597,-35,-31,-8,1,0,-9,-4,-11
1523010136654621,43,14,-1,2,-1,9,16,12
1523010136654621,-16,11,10,0,-4,-6,-19,1
1523010136669661,-32,-11,-6,-3,-5,-4,17,-28
1523010136669661,3,-4,0,-2,2,-2,-13,-3
1523010136670664,0,-2,-2,-2,0,-8,-12,2
1523010136670664,5,-3,-7,0,1,12,9,4
1523010136691720,5,3,-2,-3,0,-6,21,14
1523010136691720,13,9,5,3,1,1,-17,-3
1523010136693725,-30,-13,-2,1,0,4,10,0
1523010136693725,1,4,-3,-4,0,-3,-5,9
1523010136705757,-6,0,0,-1,-2,-2,1,2
1523010136705757,9,-8,2,0,-2,-7,-8,3
1523010136714782,-2,8,1,1,3,18,33,6
1523010136714782,25,4,-2,-2,-2,-6,-13,10
1523010136729821,-20,-4,-2,0,0,-5,-9,-2
1523010136729821,-18,-10,-3,-3,-3,-6,-11,-33
1523010136730824,19,-1,-3,-1,-3,-2,-1,10
1523010136730824,-3,-1,-1,1,0,-1,8,7
1523010136751880,17,10,2,5,4,1,10,4
1523010136751880,-9,-7,-1,-2,-4,5,-11,1
1523010136753885,6,-8,0,3,4,3,2,-2
1523010136753885,11,2,-4,-2,-2,-1,-8,-5
1523010136765917,15,11,1,-1,0,-3,15,7
1523010136765917,-43,-11,-6,-4,-4,0,3,1
1523010136774942,-9,1,-3,0,1,-5,-3,-5
1523010136774942,-3,-14,-7,-4,-4,-2,-14,-20
1523010136788979,22,6,2,-1,2,-5,1,-11
1523010136788979,10,5,6,2,-1,13,20,16
1523010136795997,-9,-8,-6,-4,-3,-4,-3,-6
1523010136795997,-4,-1,-2,2,-2,-7,-7,-9
1523010136812040,0,0,-1,0,0,4,-2,3
1523010136812040,3,4,4,4,2,-6,-13,12
1523010136814045,-3,-7,-3,-5,-1,4,13,-22
1523010136814045,14,3,-6,-5,-5,-25,-18,1
1523010136826077,-7,-4,-2,2,0,8,9,10
1523010136826077,12,3,3,0,2,-10,5,2
1523010136834099,-1,1,0,-3,-2,1,-10,2
1523010136834099,-39,3,-2,2,-1,1,12,-13
1523010136849139,-2,-5,-4,-2,-3,2,-24,-6
1523010136849139,-5,-12,-3,-3,-4,-16,1,-4
1523010136855155,1,-1,4,3,5,16,5,9
1523010136855155,7,0,-5,-5,-2,1,2,2
1523010136872200,1,-7,0,3,-3,-14,7,-1
1523010136872200,-5,-1,1,1,2,0,8,6
1523010136878216,-21,-12,-6,-3,-5,-4,-23,-33
1523010136878216,17,11,4,3,-4,-1,7,37
1523010136885235,0,-9,0,0,5,-12,2,11
1523010136885235,-45,-3,-7,-10,-1,53,7,-8
1523010136894258,-8,-10,-1,2,-2,-17,-22,11
1523010136894258,3,-9,-3,-1,-2,-1,-5,-26
1523010136908296,29,17,3,-2,-3,-27,-17,0
1523010136908296,-4,4,-1,1,0,-2,2,27
1523010136915314,-16,-8,-3,-3,-2,10,13,22
1523010136915314,1,-11,-8,-7,-6,-3,-2,-1
1523010136932360,-12,-14,-3,-2,5,17,-8,-6
1523010136932360,40,16,6,6,5,21,22,33
1523010136933363,-68,-14,-4,-1,-2,-1,-8,-94
1523010136933363,-16,6,2,-5,-5,-41,-17,6
1523010136954418,8,7,-4,-5,-3,-2,-2,15
1523010136954418,0,-5,-2,1,-1,13,12,-11
1523010136956424,56,20,2,-1,-2,-36,-13,33
1523010136956424,-18,-8,-1,3,6,37,8,-26
1523010136968456,7,0,2,0,-5,-14,-14,26
1523010136968456,-3,-15,-3,-4,-3,-25,-21,-42
1523010136975475,2,10,3,3,-1,6,3,2
1523010136975475,-1,15,-1,1,4,13,6,6
1523010136991517,25,-5,-3,-3,-2,-3,-7,19
1523010136991517,9,-14,-2,-1,-6,16,25,-17
1523010136993523,-7,6,-2,-3,-1,-37,-6,-6
1523010136993523,19,14,1,-1,3,34,4,22
1523010137014579,-50,-5,4,5,2,2,12,-27
1523010137014579,11,-2,0,-1,-1,0,-7,8
1523010137015581,14,0,0,1,-1,2,12,30
1523010137015581,-8,-2,-1,2,-8,-28,-14,-25
1523010137028616,5,8,4,0,10,41,15,7
1523010137028616,1,-6,1,1,1,1,-13,-4
1523010137035635,-17,-4,0,0,-3,-26,-4,16
1523010137035635,-12,-6,0,0,0,5,3,-9
1523010137051677,-6,-9,-2,-4,-9,2,-1,-51
1523010137051677,-11,-4,1,3,2,-26,-3,-1
1523010137053683,19,9,0,1,2,18,13,15
1523010137053683,13,5,-5,0,3,3,-7,9
1523010137074739,-53,-5,-1,-3,-4,-5,9,-22
1523010137074739,23,12,-2,-5,4,7,5,10
1523010137075741,27,4,0,0,-3,8,6,5
1523010137075741,-23,-3,3,2,-3,-1,-4,-17
1523010137088776,22,-5,-6,-2,-4,-10,-6,6
1523010137088776,-12,5,-2,-1,-2,-17,-21,1
1523010137095795,-7,-8,-5,-2,3,24,8,-18
1523010137095795,9,6,3,1,-1,-16,6,41
1523010137111837,-20,-8,-3,-4,-6,-15,-13,-50
1523010137111837,15,-2,0,2,1,-18,0,37
1523010137113843,-3,-8,-1,-2,1,30,1,-9
1523010137113843,-11,-4,-6,-5,-1,8,-7,-27
1523010137133896,20,3,-1,2,2,12,8,19
1523010137133896,-30,-7,1,-1,-5,-26,0,-23
1523010137135902,-18,1,2,0,-1,0,-3,-6
1523010137135902,36,11,1,1,-1,-41,-3,18
1523010137148936,-12,-6,-3,-5,-3,43,13,12
1523010137148936,7,2,-3,-2,-2,12,-16,-20
1523010137155955,16,7,2,2,-1,-12,10,26
1523010137155955,-35,-14,2,-1,0,-1,-10,-40
1523010137171997,9,4,-1,1,2,4,-3,4
1523010137171997,14,3,-1,-1,-4,-17,-11,11
1523010137174003,-18,-7,-3,-3,-3,4,8,-15
1523010137174003,-9,-1,-1,2,3,27,12,9
1523010137194056,-10,-2,-2,0,-5,-25,-12,-25
1523010137194056,5,6,2,3,3,10,8,18
1523010137196062,33,2,1,-4,-4,-12,-18,0
1523010137196062,-18,-3,-1,0,1,2,14,13
1523010137208093,-27,-3,-2,-4,-2,2,-6,-13
1523010137208093,0,-3,1,3,2,0,-2,-6
1523010137217117,1,-12,-4,-1,-2,-7,5,5
1523010137217117,50,11,-1,-1,0,5,5,3
1523010137232157,-9,11,-1,-3,-2,-21,-2,-1
1523010137232157,-6,4,-1,-2,-1,10,14,9
1523010137233160,-21,-12,-2,1,0,3,-26,-37
1523010137233160,-16,-6,-3,0,-2,-11,3,-9
1523010137254216,23,1,-1,0,1,18,-7,6
1523010137254216,-16,-8,-1,-7,-1,18,7,-2
1523010137256221,9,5,1,1,1,-8,21,5
1523010137256221,22,3,2,-1,0,-9,-1,13
1523010137268253,-8,5,0,0,0,6,-3,6
1523010137268253,-40,-11,-4,-3,-3,4,-2,-23
1523010137277277,2,-1,0,4,0,-4,0,10
1523010137277277,0,-5,-2,-3,-1,2,-15,-18
1523010137292317,13,4,-1,0,0,2,10,16
1523010137292317,-13,-11,-1,-3,-1,-10,-8,-27
1523010137293320,4,8,0,-1,0,-4,-6,14
1523010137293320,9,4,-2,0,-2,2,5,1
1523010137314376,1,-22,-4,1,0,-11,1,10
1523010137314376,35,17,-2,-3,-3,1,5,16
1523010137316381,14,2,3,-1,1,-4,-7,-12
1523010137316381,-58,-21,-6,-6,-3,17,-15,-17
1523010137328414,-23,2,1,1,2,-6,3,7
1523010137328414,-5,-14,-4,0,-2,-7,-11,-31
1523010137344456,2,1,2,1,-1,-19,-21,1
1523010137344456,20,4,0,1,2,19,26,10
1523010137351474,4,-5,-2,-1,-3,-13,4,9
1523010137351474,14,8,-1,-1,-3,2,9,1
1523010137353480,-20,-6,1,2,-1,-2,-4,6
1523010137353480,4,2,0,-1,-2,-10,-11,2
1523010137373533,-3,-1,-1,-3,-2,0,1,1
1523010137373533,6,2,1,4,3,-5,-2,3
1523010137382558,-1,-4,-4,-3,0,28,20,3
1523010137382558,-22,-4,1,2,1,-1,-11,12
1523010137388573,-14,-1,3,-1,-2,8,2,-2
1523010137388573,-18,-13,-5,-2,-3,-8,-4,-3
1523010137397597,-3,5,0,-2,-1,4,17,2
1523010137397597,17,1,-3,-3,-2,0,-23,16
1523010137412638,6,-4,-4,0,1,-18,-1,-21
1523010137412638,15,12,6,0,-2,-1,-7,9
1523010137414643,-16,-10,-3,1,-3,9,-21,5
1523010137414643,2,7,2,-2,0,-4,10,-3
1523010137434696,18,4,0,0,-1,4,0,12
1523010137434696,-7,-6,-3,0,-2,-11,3,-2
1523010137440712,2,5,0,-2,-1,-2,3,-9
1523010137440712,14,10,0,4,-1,-5,-2,-1
1523010137447730,-5,-13,-7,-2,1,-1,2,-2
1523010137447730,-22,-9,3,-1,0,4,-11,-13
1523010137456754,36,0,3,0,1,-8,-47,10
1523010137456754,-39,-1,-5,-3,-5,4,45,-16
1523010137471794,1,7,-2,-2,-5,-2,3,-19
1523010137471794,17,0,1,2,-2,4,-9,16
1523010137473800,-9,-6,-2,-3,-2,1,0,-11
1523010137473800,12,0,1,-2,-1,-8,-11,-1
1523010137493853,9,11,0,-1,4,2,7,9
1523010137493853,0,-6,-2,2,3,-3,14,3
1523010137501874,15,2,2,0,3,-1,12,-10
1523010137501874,-9,-6,0,0,2,5,-12,2
1523010137507890,-10,-8,-7,-6,-3,-1,-1,-3
1523010137507890,22,6,2,-2,1,-9,-23,-8
1523010137516914,-6,-6,-2,3,0,-3,23,-10
1523010137516914,-11,5,1,2,0,1,3,11
1523010137531954,9,0,-1,0,-1,3,-8,-3
1523010137531954,21,14,1,0,0,-4,3,20
1523010137533960,7,-2,-3,0,0,0,11,-3
1523010137533960,-1,-1,-2,-3,-2,-3,-23,-12
1523010137554013,-6,2,3,3,2,6,11,11
1523010137554013,13,-2,-1,2,-2,-6,-24,-16
1523010137556019,-38,-4,1,-1,1,-1,-3,7
1523010137556019,19,-8,-9,-3,0,-7,4,-5
1523010137568050,-37,8,0,0,1,2,-13,-6
1523010137568050,-12,-3,-4,-5,-2,-1,0,-2
1523010137577074,9,-7,-1,1,0,1,24,11
1523010137577074,-1,-15,2,-1,-2,-7,-15,-6
1523010137591112,31,18,-1,-4,-6,6,16,11
1523010137591112,6,22,1,-2,-2,-1,-1,6
1523010137599133,-28,-9,-1,-5,-7,-4,-8,-7
1523010137599133,12,1,0,4,3,0,7,1
1523010137614173,13,-15,-2,4,-2,-11,-12,-14
1523010137614173,-30,-7,-1,0,0,6,10,11
1523010137616179,5,4,-4,-1,-1,3,-11,-8
1523010137616179,4,-1,6,2,-1,0,8,2
1523010137628211,16,-7,-6,-3,-4,-6,-16,-1
1523010137628211,-28,7,-5,-4,-6,-2,6,-1
1523010137637234,18,2,2,1,1,-1,-13,-4
1523010137637234,-13,0,1,0,2,7,44,9
1523010137652274,41,12,-1,4,0,-6,-25,11
1523010137652274,-58,-23,-7,-6,-4,2,0,-23
1523010137653277,-9,-8,-3,-3,-3,0,1,-4
1523010137653277,10,5,-2,-1,-2,-4,-16,-4
1523010137674333,4,7,4,1,1,6,4,9
1523010137674333,12,-16,1,1,0,0,23,-3
1523010137676339,7,6,6,2,-1,-2,-33,1
1523010137676339,13,8,1,-4,-8,4,29,14
1523010137688370,-30,-15,-8,-2,9,0,-10,-9
1523010137688370,1,26,-4,-2,-5,-6,-5,-10
1523010137697395,2,-10,3,1,-1,-4,-9,1
1523010137697395,11,2,-3,-5,-3,0,-11,2
1523010137712435,13,11,4,-1,-5,0,2,2
1523010137712435,-13,-15,-5,-2,1,-1,-8,-6
1523010137718450,-11,-7,-4,-2,0,4,21,6
1523010137718450,-7,15,-2,0,-2,-1,-11,-6
1523010137734493,19,0,0,0,-2,-7,-9,6
1523010137734493,8,-6,2,1,2,0,-3,-1
1523010137736499,1,3,0,-3,-5,7,28,4
1523010137736499,-21,-11,0,0,-1,-7,-15,-11
1523010137748530,-4,17,0,-4,-4,0,15,-4
1523010137748530,17,1,-1,-4,-3,-3,12,3
1523010137757554,-1,-2,0,3,3,7,-19,-1
1523010137757554,11,7,1,3,1,-2,-14,4
1523010137771592,-42,-16,-5,-6,-6,-7,27,-1
1523010137771592,21,2,2,4,2,3,-8,7
1523010137777608,-4,-4,0,-6,-4,-5,4,-4
1523010137777608,-8,-4,-5,0,1,1,-3,-3
1523010137794653,3,2,-1,0,-2,1,-20,-9
1523010137794653,18,6,5,-1,1,3,19,15
1523010137795656,-30,-9,-4,1,1,-4,-9,-11
1523010137795656,4,0,-2,0,0,-2,-14,-8
1523010137807688,-25,-3,0,-3,-2,5,18,4
1523010137807688,16,-3,3,2,0,-6,0,0
1523010137816712,22,7,2,1,-1,5,3,6
1523010137816712,-4,-9,-3,0,0,-6,-13,2
1523010137830749,-3,3,2,0,1,7,14,0
1523010137830749,-27,-13,-7,-2,-2,-2,-14,-10
1523010137837768,14,3,0,-3,-3,-3,-1,0
1523010137837768,-7,0,-2,-6,-5,-4,-8,6
1523010137854813,27,2,4,9,5,1,10,3
1523010137854813,-6,0,-2,-3,1,0,-6,-2
1523010137855816,-20,2,-2,-1,-3,-4,-10,-6
1523010137855816,6,3,0,-1,-1,0,2,2
1523010137867848,-44,-16,-2,-3,1,3,3,-4
1523010137867848,9,1,-6,-4,-4,-5,10,-6
1523010137876872,0,3,1,2,2,0,-21,-1
1523010137876872,17,7,1,-2,-3,-7,7,10
1523010137890909,4,3,4,1,-1,-2,-11,1
1523010137890909,-7,-7,-1,2,-1,2,1,0
1523010137905949,13,-2,-3,1,0,1,8,-4
1523010137905949,-23,-4,0,0,2,-1,-9,2
1523010137913970,12,-2,-9,-10,-6,5,6,-7
1523010137913970,-1,2,2,1,1,-1,6,3
1523010137915976,3,-7,-3,0,2,-8,-2,8
1523010137915976,-65,-8,-2,-2,-3,5,12,-21
1523010137937032,33,-1,0,-1,-2,-1,1,14
1523010137937032,10,0,-1,1,1,-4,-13,-4
1523010137939037,-1,-5,-3,-3,-2,-1,7,-7
1523010137939037,14,0,-1,3,3,-1,4,5
1523010137951069,7,-7,-1,-3,-1,-3,-6,5
1523010137951069,-6,3,-2,-1,0,-2,0,-8
1523010137958088,8,-4,2,1,0,-3,5,11
1523010137958088,23,6,1,-1,2,2,7,-1
1523010137982152,-27,-10,0,5,2,1,-11,-22
1523010137982152,5,1,3,-1,-3,-2,-2,-4
1523010137983155,-6,0,-2,-1,-1,-22,-9,4
1523010137983155,9,1,-2,-1,0,44,42,-4
1523010137997192,19,0,1,-2,-2,-15,-13,3
1523010137997192,-16,-3,0,-1,0,3,-2,9
1523010137998194,7,10,2,4,1,2,-2,-10
1523010137998194,-3,-6,-4,-1,-2,-7,-9,0
1523010138011229,-34,-8,-1,-3,0,-1,2,-6
1523010138011229,27,3,-1,-2,0,3,-2,15
1523010138018248,-20,-5,-4,-6,-2,-4,-14,-27
1523010138018248,7,2,2,5,-1,-16,-12,-4
1523010138034290,18,3,0,-2,-3,-1,13,28
1523010138034290,-6,-1,-2,-7,-1,20,-1,-37
1523010138036296,-2,-6,3,7,0,-11,6,-1
1523010138036296,-16,-2,-3,-2,3,4,18,12
1523010138057352,0,-6,-1,1,0,-12,-34,8
1523010138057352,8,-2,4,4,5,19,19,17
1523010138058354,16,6,-4,-5,-1,1,-8,-27
1523010138058354,-18,-8,-3,-2,0,-7,-4,-1
1523010138071389,-5,1,1,1,-5,-11,-11,-22
1523010138071389,-10,-13,-3,-3,-3,-14,-3,8
1523010138078408,-15,1,-2,-5,1,3,0,-27
1523010138078408,13,-1,-3,-7,-8,-5,-16,33
1523010138094451,11,9,0,-2,1,12,5,-14
1523010138094451,-9,-9,2,7,-1,0,-8,-10
1523010138096456,-11,-5,-3,0,-2,-9,7,2
1523010138096456,14,10,-3,1,2,-27,-5,14
1523010138116509,-5,-17,0,-4,-3,23,22,-21
1523010138116509,-38,-7,-1,-1,-1,17,-9,10
1523010138118515,29,9,-1,-1,-5,2,-32,46
1523010138118515,17,3,-3,-3,-5,-46,0,28
1523010138130546,-18,-13,0,1,0,-7,-31,-92
1523010138130546,3,3,-1,-1,0,-19,4,20
1523010138139571,-27,-5,1,2,0,34,23,16
1523010138139571,8,0,0,5,5,82,17,-10
1523010138154610,13,10,3,0,-3,-44,-1,30
1523010138154610,5,3,3,1,-1,9,9,-10
1523010138156616,-4,-8,-5,-7,-5,-23,0,3
1523010138156616,-7,5,-3,-4,-3,19,-20,-17
1523010138176669,7,-1,6,11,7,11,20,9
1523010138176669,15,3,-5,-5,-5,-13,-19,-2
1523010138178675,-11,5,-6,-1,1,8,26,15
1523010138178675,15,1,1,-4,-10,-33,-9,3
1523010138190706,-72,-12,1,-3,2,6,-15,-49
1523010138190706,13,-3,-2,-6,-7,-24,-7,21
1523010138199731,2,2,-1,-2,-2,3,0,-39
1523010138199731,37,7,0,1,3,0,-4,8
1523010138222792,4,-9,-6,-5,0,13,8,61
1523010138222792,-1,12,3,4,3,0,-3,-45
1523010138224797,-8,4,2,2,-1,7,8,49
1523010138224797,-16,-11,-5,-7,-1,-4,-17,-73
1523010138236829,-1,-2,2,3,-3,-2,3,16
1523010138236829,-3,-7,-6,0,0,14,2,9
1523010138238834,-2,-6,-2,-4,-5,-43,-17,-9
1523010138238834,-17,-1,1,3,4,7,21,-24
1523010138250866,0,1,-1,2,-1,-22,-8,35
1523010138250866,29,5,0,-2,0,39,10,2
1523010138259891,10,1,3,2,-2,-32,-13,-26
1523010138259891,-21,2,-1,-1,-2,34,11,13
1523010138274930,-7,-2,-2,-7,-7,-11,5,-24
1523010138274930,3,-2,3,5,5,-1,0,31
1523010138275933,8,3,2,2,2,24,19,29
1523010138275933,-4,-4,-5,-1,-6,-35,-14,9
1523010138296989,21,2,-3,-2,4,38,3,6
1523010138296989,-15,-6,-1,0,0,-12,0,-17
1523010138298995,27,-1,-5,-5,-2,6,-1,6
1523010138298995,-25,1,2,2,0,-14,-2,-10
1523010138311026,-7,-1,-2,0,-1,-1,-3,-5
1523010138311026,-10,-7,1,0,-5,-1,-14,-23
1523010138320051,-21,-2,1,3,3,24,13,14
1523010138320051,16,0,-3,-3,-3,-21,-10,20
1523010138334087,35,5,1,-2,1,-2,3,-1
1523010138334087,-7,1,-1,-2,-3,-6,0,20
1523010138336093,-15,1,0,-1,-1,-5,-9,-35
1523010138336093,9,4,1,0,4,28,13,-20
1523010138357149,18,1,-1,-2,-1,-20,-18,32
1523010138357149,1,4,3,2,3,-14,5,5
1523010138358152,3,-1,-3,-1,-3,16,3,18
1523010138358152,8,5,1,1,-1,-2,0,-23
1523010138370183,-24,-13,-2,-5,-2,12,3,-21
1523010138370183,16,4,0,0,-5,-22,-2,5
1523010138379208,-2,-1,-1,0,4,3,-5,5
1523010138379208,6,-6,1,1,1,6,19,18
1523010138394247,8,4,-2,-3,-3,15,11,38
1523010138394247,-1,2,-2,-4,-1,1,-2,-13
1523010138396253,-6,-5,4,0,-3,-18,-24,-36
1523010138396253,-26,-2,-4,-1,0,12,-14,4
1523010138417309,11,0,2,1,-3,-43,2,-10
1523010138417309,-20,-6,-4,-1,-1,6,3,5
1523010138419314,14,-2,-3,-2,-2,3,9,10
1523010138419314,11,5,1,-4,2,-20,-11,-7
1523010138430344,-15,-7,-2,1,-3,21,-4,2
1523010138430344,-4,-7,-2,0,4,7,9,-3
1523010138439368,30,8,4,14,5,3,0,4
1523010138439368,-47,-12,-5,-5,-5,-19,-20,-37
1523010138454407,-7,2,0,-5,-2,14,24,-10
1523010138454407,12,2,-1,-4,-7,-45,-24,27
1523010138456413,-8,-4,0,0,4,19,21,-12
1523010138456413,19,7,0,-2,1,-18,5,15
1523010138476466,20,3,0,-8,-11,-14,-3,-1
1523010138476466,-43,-12,2,14,12,21,-3,-43
1523010138478472,-5,-2,-2,3,-2,-13,-3,16
1523010138478472,30,12,0,1,4,9,8,24
1523010138491506,5,-2,1,5,10,15,1,11
1523010138491506,22,7,-1,-8,-8,20,14,9
1523010138499528,-10,-8,-4,-6,-4,-11,-19,-36
1523010138499528,-19,-9,1,4,3,4,5,5
1523010138514568,29,14,1,1,-1,4,-3,21
1523010138514568,-6,-10,-6,-4,-1,-17,-12,-13
1523010138516573,-30,-4,2,3,1,17,15,25
1523010138516573,-11,-3,-1,-8,-9,4,-2,-54
1523010138537629,-16,4,0,2,1,-5,-11,-5
1523010138537629,11,-2,0,2,0,-2,2,13
1523010138539635,3,-1,1,-14,1,5,8,15
1523010138539635,29,4,-1,10,-2,-26,4,25
1523010138550664,-27,-10,-5,2,1,21,-3,-13
1523010138550664,7,4,1,-3,3,9,9,-10
1523010138559688,5,-1,-6,-6,-5,-7,-12,-10
1523010138559688,-15,0,2,0,2,20,8,-17
1523010138574728,-5,-2,1,1,-1,-11,-27,-3
1523010138574728,15,5,0,-4,-1,3,9,4
1523010138576733,-17,-5,-2,-1,2,-22,-19,-12
1523010138576733,-36,-9,-4,-2,0,31,22,-26
1523010138596786,13,-1,2,4,1,-22,4,-6
1523010138596786,-1,-1,-1,-5,-3,14,-3,20
1523010138598792,-29,-1,0,7,-2,-4,15,-25
1523010138598792,11,6,-3,-2,-6,-14,-35,7
1523010138610823,11,3,-1,-2,-2,-6,1,6
1523010138610823,16,-11,0,-2,-2,-5,2,10
1523010138619848,-5,0,-2,-5,-1,2,-22,-32
1523010138619848,-31,-7,-4,1,4,-1,18,-6
1523010138634887,18,-6,-5,-4,-4,-5,-3,9
1523010138634887,-12,-2,4,2,1,-11,-9,-6
1523010138635891,9,-6,0,-3,-4,8,7,11
1523010138635891,10,7,1,1,-2,-7,-9,-4
1523010138656946,-11,1,-3,-4,3,-10,3,23
1523010138656946,3,-5,-5,0,-7,17,9,1
1523010138658952,-7,-9,-1,2,-2,-12,-24,-10
1523010138658952,7,-3,0,-1,-1,8,16,-3
1523010138670983,-31,-4,-4,2,1,-2,-27,-2
1523010138670983,27,14,-4,-2,0,-8,7,33
1523010138680008,-16,-12,-2,-3,-2,15,6,-36
1523010138680008,25,10,1,2,0,-13,-12,43
1523010138694045,4,3,0,-2,-2,13,32,-16
1523010138694045,-41,1,0,1,4,-20,-8,-30
1523010138696051,4,-15,1,-4,-5,-2,-15,15
1523010138696051,9,3,-4,-3,5,3,7,13
1523010138717106,2,-2,-1,2,-1,3,-5,-25
1523010138717106,-11,-8,6,3,3,-10,-5,-1
1523010138718109,43,7,-4,-6,-1,4,26,17
1523010138718109,-20,10,3,2,-5,3,-30,8
1523010138730141,-23,-4,-5,5,-2,-6,2,-21
1523010138730141,-1,-2,-2,1,-1,6,11,-6
1523010138739165,-8,-8,1,0,5,0,5,3
1523010138739165,31,8,0,1,-2,0,4,6
1523010138754205,13,0,-2,-2,1,0,-1,17
1523010138754205,-3,-5,3,3,-4,-1,-9,-15
1523010138760221,-19,-2,-1,-2,0,-1,-11,4
1523010138760221,11,6,-2,-10,-7,2,13,5
1523010138777266,-2,-3,1,3,2,2,-4,-16
1523010138777266,1,1,-1,-2,-3,-10,-47,-8
1523010138783282,22,3,-3,0,11,5,70,15
1523010138783282,-30,-4,1,0,-5,-2,-24,5
1523010138790301,-6,1,-3,-4,-2,-5,7,-18
1523010138790301,-2,-2,-2,-3,-7,-5,-20,-5
1523010138799325,19,3,1,2,-1,-5,5,10
1523010138799325,-23,-11,-1,4,1,6,-3,-8
1523010138814365,0,1,-1,-2,-3,0,7,2
1523010138814365,24,2,0,0,2,-7,-4,3
1523010138822387,-18,0,2,1,-3,4,0,-5
1523010138822387,16,2,-4,-3,-3,-9,-14,-8
1523010138837426,9,0,-1,-1,-1,0,-3,12
1523010138837426,-11,-5,-3,-1,-2,11,25,0
1523010138838429,-11,-11,0,-2,-2,-14,-37,-5
1523010138838429,6,-5,-1,0,1,2,15,3
1523010138859485,5,15,2,-1,1,-1,-8,-8
1523010138859485,-8,-6,-2,-2,-1,3,19,0
1523010138861490,9,-1,1,3,-1,-5,-18,2
1523010138861490,18,1,-1,1,-1,-3,0,16
1523010138873522,-32,-5,-4,-6,-3,1,-5,-25
1523010138873522,21,-3,0,0,4,-1,16,5
1523010138880541,-25,6,1,-4,-8,-2,-17,-14
1523010138880541,6,-5,-1,-2,-2,-6,6,4
1523010138896584,8,-4,-1,-2,-3,-3,-7,13
1523010138896584,0,-1,-1,-1,0,8,14,-4
1523010138898589,22,-2,-1,2,-2,-1,9,6
1523010138898589,-17,8,-2,0,-2,-9,-15,-4
1523010138919645,18,-4,4,-2,-3,6,-4,6
1523010138919645,-12,3,-1,-1,-1,-3,-24,-17
1523010138920648,13,-1,-1,2,0,2,10,9
1523010138920648,-8,-6,-4,1,4,3,-1,-7
1523010138933682,-43,-5,-3,-4,-2,-4,9,-10
1523010138933682,29,17,4,3,1,0,-15,3
1523010138940701,-9,-18,-5,-2,0,2,-2,7
1523010138940701,-24,1,-5,-4,-5,-3,39,-13
1523010138956744,-7,-10,0,-3,-2,-3,-44,-5
1523010138956744,-10,0,0,1,2,-2,11,-1
1523010138958749,10,8,2,-1,0,5,5,1
1523010138958749,18,6,2,1,2,-3,-4,6
1523010138979805,-7,-5,-1,0,-1,-4,24,0
1523010138979805,15,-7,-5,1,-1,4,-9,5
1523010138980808,-35,-18,0,-3,-2,-11,-19,-6
1523010138980808,16,13,-6,-5,-2,7,17,-6
1523010138993842,-2,3,-1,1,0,-10,-2,-2
1523010138993842,-1,-4,2,0,2,6,-26,8
1523010139000861,-3,1,4,4,-1,1,12,2
1523010139000861,10,19,-1,-1,2,-2,-33,5
1523010139016904,-38,-27,-9,-8,-4,-3,-3,-17
1523010139016904,-2,-1,-3,-3,-1,3,70,12
1523010139018909,-12,0,0,1,-2,-4,-45,-9
1523010139018909,7,-1,3,4,1,-2,5,-2
1523010139038962,33,8,3,6,3,4,-5,17
1523010139038962,-5,0,-2,-4,-2,-4,-9,-3
1523010139040968,-5,14,1,-4,-3,0,20,-14
1523010139040968,4,-5,4,2,1,-3,-21,4
1523010139053000,9,1,0,1,2,0,16,-8
1523010139053000,30,8,0,0,-2,-2,0,10
1523010139062024,-66,-23,-6,-3,-4,0,16,-6
1523010139062024,17,-3,1,0,-1,0,-3,-2
1523010139077064,11,10,3,3,0,0,7,8
1523010139077064,8,7,-3,-9,-5,2,9,-9
1523010139079069,29,-5,-2,4,4,-5,-38,12
1523010139079069,-23,-2,-4,-3,-1,5,44,-1
1523010139099123,-12,-9,0,-2,-3,-2,3,-8
1523010139099123,-7,14,1,3,0,-12,-9,-3
1523010139101128,47,19,0,-3,-5,3,-15,7
1523010139101128,-11,-21,-3,-3,-2,-1,-9,-18
1523010139113160,-7,2,1,1,4,3,23,17
1523010139113160,-15,1,0,-1,-3,0,-25,-15
1523010139122184,20,-11,-1,2,0,-2,11,-3
1523010139122184,-14,-7,-3,0,-2,-10,2,-6
1523010139144242,34,33,4,-3,-4,5,9,12
1523010139144242,-15,-19,-4,1,2,-1,10,20
1523010139146248,21,5,-1,-3,1,20,43,11
1523010139146248,-47,-9,-2,-4,-4,-17,-26,-11
1523010139159282,-20,-14,-6,-2,-1,-1,-10,-11
1523010139159282,9,-12,1,1,-1,0,-6,2
1523010139161288,-15,13,1,4,2,2,11,13
1523010139161288,11,9,-1,-3,-3,-2,-12,-14
1523010139173320,15,5,3,2,4,7,20,22
1523010139173320,-27,-12,-8,-9,-12,-1,-12,-35
1523010139182344,6,2,0,2,3,0,18,10
1523010139182344,21,-1,0,2,1,-11,-32,-1
1523010139197383,-5,0,-3,-2,1,14,-3,8
1523010139197383,-4,-6,-1,-4,-5,0,23,-6
1523010139198386,-26,-5,-3,0,1,-2,4,2
1523010139198386,24,20,0,-1,0,1,2,1
1523010139219442,40,10,5,2,0,-1,-9,19
1523010139219442,-5,-5,0,0,5,-3,-2,0
1523010139221447,5,3,-2,-5,-3,3,-6,-20
1523010139221447,-10,-10,-3,-1,-2,-11,4,7
1523010139233480,-12,-5,0,-3,-1,8,30,-1
1523010139233480,2,10,-2,1,4,-12,-56,-5
1523010139242504,-1,3,2,0,-1,-13,-19,1
1523010139242504,23,4,0,1,5,45,50,38
1523010139258546,-12,-2,2,2,2,-12,3,2
1523010139258546,-24,-16,-2,-1,-2,-9,-28,-35
1523010139259549,11,18,-2,1,0,-2,-24,-5
1523010139259549,-6,-3,0,0,0,-1,4,2
1523010139279602,1,-14,1,0,-2,-6,-4,-5
1523010139279602,11,1,1,-1,-1,4,7,13
1523010139280605,-6,-6,1,-3,3,1,15,7
1523010139280605,-8,3,0,-6,-8,-5,-14,-17
1523010139292637,5,-12,-4,3,3,-20,-15,8
1523010139292637,2,6,2,2,2,11,7,21
1523010139301661,-5,3,-3,-2,-6,-5,-1,-36
1523010139301661,15,-6,2,1,1,0,18,37
1523010139317703,5,6,-2,-2,-5,-11,-27,-53
1523010139317703,-19,-9,-5,-1,0,7,28,19
1523010139319709,-4,-6,-1,0,-1,11,-27,-5
1523010139319709,-2,1,3,-2,0,-6,-10,-5
1523010139339762,26,1,0,-3,-1,2,2,33
1523010139339762,-27,-1,-2,-11,-2,-18,-15,-27
1523010139340765,-10,-5,-10,1,3,27,41,-3
1523010139340765,10,-3,4,12,6,-14,-14,3
1523010139369842,10,2,0,-2,-4,-2,-3,5
1523010139369842,-18,-1,1,0,2,20,16,-1
1523010139371847,15,9,-2,-7,-5,-44,-21,32
1523010139371847,-26,-6,0,-6,-2,14,3,-42
1523010139376861,5,-9,-2,0,1,3,1,-14
1523010139376861,7,9,-5,-3,-5,-7,-8,-3
1523010139378867,-25,4,3,4,1,1,-1,-5
1523010139378867,9,-3,-5,-4,1,1,0,18
1523010139399922,-26,-6,2,0,-4,1,-4,-26
1523010139399922,17,-2,2,1,-1,-4,1,-1
1523010139400925,18,2,-4,-4,-1,-4,3,15
1523010139400925,-9,0,0,0,0,-2,8,-2
1523010139412957,13,3,1,-2,-3,5,-22,8
1523010139412957,-27,-13,1,3,0,-17,-7,-17
1523010139421981,10,11,2,1,0,1,-4,-1
1523010139421981,5,-2,0,-2,-4,-8,-9,-8
1523010139436018,-8,-6,-4,0,3,6,11,4
1523010139436018,25,10,0,0,-2,6,9,10
1523010139445042,3,-1,1,-1,-3,-8,5,11
1523010139445042,-2,-5,-6,-3,-4,6,-12,-24
1523010139459079,-36,-8,-2,-2,-2,0,-5,-2
1523010139459079,-19,-6,0,3,1,-7,-3,-27
1523010139461085,19,1,-3,-5,-4,17,10,14
1523010139461085,11,6,-1,-1,-1,-2,7,7
1523010139473117,-1,-4,1,2,3,-5,-4,-6
1523010139473117,5,-3,-2,-1,-1,3,0,-5
1523010139482141,15,5,2,1,-2,1,-1,20
1523010139482141,-25,-6,-2,1,-5,-4,-11,20
1523010139497181,-8,-13,-3,-7,-4,-14,5,-45
1523010139497181,5,6,-1,1,-2,16,9,4
1523010139498183,-5,-5,-1,0,-3,-18,-35,-21
1523010139498183,-2,0,0,0,-2,-6,0,-9
1523010139519240,-10,-3,0,0,1,11,-4,14
1523010139519240,0,-7,0,-3,-7,-6,0,1
1523010139525255,7,5,0,-1,0,0,11,-2
1523010139525255,-12,-7,-5,-7,-1,3,-7,-23
1523010139533277,14,3,-2,0,1,-15,-6,5
1523010139533277,-28,-3,0,0,3,8,2,10
1523010139542301,-11,1,-2,-1,1,8,4,-4
1523010139542301,4,0,0,-2,-2,-8,-5,3
1523010139556338,2,-1,-2,-1,-2,13,7,7
1523010139556338,27,0,0,0,0,-7,-11,24
1523010139564360,-11,4,1,0,1,0,17,-5
1523010139564360,-10,-4,-3,-2,-2,-36,-20,-12
1523010139579400,4,5,3,-1,1,30,3,9
1523010139579400,1,1,0,1,0,-3,8,-3
1523010139581405,-11,-5,-4,2,-1,-1,-4,-10
1523010139581405,9,3,3,4,2,-3,7,14
1523010139593437,3,5,1,-2,-6,-4,-3,-4
1523010139593437,-3,-5,-7,-4,-2,-5,-7,4
1523010139602461,-17,-6,1,-3,-1,3,7,-28
1523010139602461,-4,1,5,2,0,3,8,14
1523010139616498,5,0,0,1,1,-6,1,18
1523010139616498,5,1,1,3,0,8,-2,-8
1523010139623517,12,-1,-3,-2,0,-5,-2,4
1523010139623517,16,5,-5,-3,-1,-9,-3,-5
1523010139647581,-21,-5,-3,-4,-1,13,-3,-11
1523010139647581,21,5,2,2,-1,-2,15,22
1523010139649586,-13,-5,-2,-2,-3,-6,-12,-12
1523010139649586,-14,-4,-2,-2,-1,-2,-2,-13
1523010139652594,6,-2,-3,0,-4,-7,4,9
1523010139652594,-8,0,4,4,0,-1,-2,-7
1523010139662621,12,3,0,-3,-1,-5,-2,27
1523010139662621,-7,0,-1,4,2,20,-5,-32
1523010139676658,4,0,-1,-3,-3,-16,1,3
1523010139676658,13,-1,0,-1,-1,-8,1,2
1523010139682674,-8,2,-1,-1,-5,-6,3,27
1523010139682674,-41,-9,-5,-6,1,-2,-4,-35
1523010139699720,0,-5,-4,-1,-1,17,-12,-20
1523010139699720,5,0,1,4,-1,-6,8,1
1523010139700722,28,8,1,1,3,10,-5,3
1523010139700722,8,0,-2,-4,-3,4,4,34
1523010139712754,0,2,1,1,0,-8,2,-27
1523010139712754,-35,-11,-2,-5,0,0,-7,-15
1523010139729800,12,0,-2,0,-2,2,-4,-21
1523010139729800,-12,0,-1,3,2,9,11,23
1523010139735815,0,1,-1,1,3,-4,2,29
1523010139735815,15,-3,-2,-6,-3,-14,-3,-27
1523010139742834,-11,1,-3,-2,0,9,5,10
1523010139742834,22,4,4,4,1,23,11,11
1523010139759880,-17,-5,-5,-3,-5,-7,-6,-18
1523010139759880,-2,0,-2,1,2,0,7,18
1523010139760882,-6,2,-1,0,-2,-3,0,-4
1523010139760882,13,-1,-1,-5,-2,-4,-10,-10
1523010139772914,2,4,1,0,0,0,7,21
1523010139772914,-39,-4,-1,0,-1,4,-9,-24
1523010139781938,10,-2,-3,-4,-3,-8,-2,3
1523010139781938,16,7,1,-2,0,1,7,20
1523010139795975,3,1,-1,-1,0,0,-2,-16
1523010139795975,7,0,1,-6,-2,-8,4,-2
1523010139802994,-10,-8,0,-1,1,4,-13,-9
1523010139802994,-20,-8,-3,-3,-3,11,0,-23
1523010139819037,19,7,1,1,-1,-18,-1,17
1523010139819037,-4,-2,-3,-2,0,15,4,12
1523010139821042,0,-6,-1,0,0,-1,-1,-24
1523010139821042,-2,-1,1,3,-2,-19,-7,0
1523010139842098,-20,-8,-2,-1,0,12,1,-10
1523010139842098,4,-2,-1,1,0,3,-5,-12
1523010139843101,1,2,2,0,0,7,16,12
1523010139843101,8,6,-2,-1,0,-14,-23,5
1523010139856135,-18,-6,-3,-3,-3,1,-6,-16
1523010139856135,16,6,1,1,-3,-5,1,17
1523010139863154,-11,-8,-2,2,1,-1,0,3
1523010139863154,4,-2,-1,2,2,0,3,-2
1523010139879197,5,-3,-1,-1,0,-10,2,3
1523010139879197,-8,-2,0,-1,2,2,-2,-9
1523010139881202,9,0,0,-1,-4,-1,3,7
1523010139881202,5,1,-7,-2,-4,-3,-5,7
1523010139902258,1,2,4,0,-1,2,11,-6
1523010139902258,7,-1,3,2,1,-2,1,4
1523010139903261,6,-5,-1,3,0,3,12,13
1523010139903261,4,11,-4,-7,-5,-8,-12,-6
1523010139916295,9,-1,-1,1,0,4,-4,1
1523010139916295,-10,-7,-2,0,-2,-5,-1,2
1523010139923314,-12,3,3,1,2,-3,-5,-4
1523010139923314,6,-2,2,1,1,0,6,0
1523010139939357,17,2,-1,-1,-2,-3,4,0
1523010139939357,-11,-3,-5,-3,-2,11,-3,-3
1523010139941362,-7,2,-1,-2,-4,-6,-12,-24
1523010139941362,-4,2,-1,-2,-1,-1,14,7
1523010139962418,-2,0,1,-1,2,-5,0,0
1523010139962418,7,5,1,1,-2,-3,-23,8
1523010139963421,-5,-3,-2,-2,0,-5,0,3
1523010139963421,-12,-10,-1,0,0,15,12,3
1523010139976455,10,5,-2,-4,0,-6,-7,2
1523010139976455,9,1,1,-2,-1,-1,2,3
1523010139983474,-13,-9,-3,-1,3,-7,-9,5
1523010139983474,16,7,1,1,-1,-2,6,10
1523010140006535,-18,-10,-1,-2,-3,2,-8,-10
1523010140006535,9,2,-1,0,-1,-6,3,8
1523010140013554,9,7,0,0,-2,-5,-9,-3
1523010140013554,11,0,-2,-2,1,-2,5,-3
1523010140021575,-20,1,1,1,1,9,7,-1
1523010140021575,4,-4,-2,-1,-1,-3,1,0
1523010140023581,0,2,0,0,-3,-6,-10,-17
1523010140023581,7,0,0,2,0,1,12,9
1523010140035613,0,-4,-2,-2,-2,-1,-9,6
1523010140035613,-33,-13,2,-2,2,3,-3,-41
1523010140044637,18,4,-2,-2,2,0,15,20
1523010140044637,-13,1,-1,0,0,-3,-23,-7
1523010140059677,10,-3,-3,-1,-2,-8,-10,-4
1523010140059677,-9,-6,5,5,2,5,25,18
1523010140060680,2,-3,-5,-2,-3,0,-1,-15
1523010140060680,-14,6,0,-2,-1,-4,-11,-14
1523010140081736,-12,-6,-2,0,1,0,9,-1
1523010140081736,9,0,-2,-3,-2,-11,-14,0
1523010140083741,18,-3,0,0,1,8,9,6
1523010140083741,-4,6,-2,-2,-3,1,-9,-1
1523010140095773,-3,-1,-2,4,2,-10,-19,1
1523010140095773,3,-5,-2,-2,-1,10,22,12
1523010140104797,15,7,2,2,0,2,18,19
1523010140104797,-19,-8,-5,-4,-3,0,5,-12
1523010140119837,-5,0,3,-5,-1,-4,-11,2
1523010140119837,-4,-3,0,-1,-3,-5,-18,0
1523010140120840,-2,7,0,1,3,5,1,-1
1523010140120840,-16,-11,-4,-1,-1,-5,2,-16
1523010140141895,9,-1,-1,-2,-4,8,16,7
1523010140141895,11,6,3,2,2,-3,1,17
1523010140143901,-39,-10,-3,-4,-4,-5,-17,-25
1523010140143901,27,11,0,-1,-3,-2,-13,8
1523010140155933,14,3,1,1,6,4,21,16
1523010140155933,14,7,2,2,1,-1,-14,-8
1523010140164957,-8,0,-3,-3,-3,0,14,-6
1523010140164957,-2,-11,1,2,3,0,-15,5
1523010140178994,-3,0,-2,-3,-5,-4,-16,-7
1523010140178994,0,-2,-2,-1,2,4,17,-1
1523010140181000,-1,-4,-1,-2,-3,-3,-14,-5
1523010140181000,2,-7,-3,1,-2,8,25,5
1523010140202055,3,8,3,0,0,-3,-3,-1
1523010140202055,-29,-15,-7,-4,-5,-5,-11,-11
1523010140204061,6,0,-3,-2,0,-7,-14,-5
1523010140204061,-8,6,0,1,-3,-4,-2,2
1523010140215090,5,-2,-3,-1,-3,2,1,-5
1523010140215090,19,6,2,-1,1,-1,-1,1
1523010140225117,3,-6,3,2,1,3,12,14
1523010140225117,-15,-8,-4,-3,-2,-1,2,-5
1523010140254194,6,14,-1,0,1,-5,-2,0
1523010140254194,1,4,-4,-2,-3,-1,-5,-4
1523010140256199,9,-3,3,2,2,-2,-1,6
1523010140256199,2,-2,-2,3,0,-1,-5,1
1523010140262215,-26,-10,0,2,1,7,1,-10
1523010140262215,3,-2,-3,-1,-3,-2,-5,2
1523010140263218,-2,6,0,-1,-2,2,2,1
1523010140263218,9,5,-1,1,0,-3,2,1
1523010140275250,-10,-12,-2,-2,-2,-1,3,-1
1523010140275250,1,3,0,-2,-3,-4,-6,-13
1523010140284274,6,-1,-2,2,1,2,-2,1
1523010140284274,-25,-7,-4,-2,0,1,4,-15
1523010140299314,-3,-1,-1,-3,0,-5,-22,10
1523010140299314,12,1,4,0,-2,1,4,-3
1523010140301319,-8,-3,-3,-1,-1,-2,-7,-9
1523010140301319,-4,3,-2,-2,-1,-9,2,0
1523010140322375,3,1,-3,-1,-2,-1,10,-2
1523010140322375,-19,-6,0,1,2,0,2,-3
1523010140323378,18,4,-2,-1,-2,0,0,5
1523010140323378,-20,-3,-2,-5,-2,-1,-7,-19
1523010140335410,-10,-6,1,0,-1,-4,1,-1
1523010140335410,-10,-9,-1,-2,-2,-2,-2,-2
1523010140344434,-4,7,0,2,-1,-3,1,-2
1523010140344434,-2,-11,2,0,0,3,-6,2
1523010140359474,19,12,0,1,-5,0,3,-4
1523010140359474,1,-9,-2,-2,-1,-1,-4,10
1523010140365490,-19,-13,-6,-5,-4,0,-3,-9
1523010140365490,21,12,2,-1,1,-2,5,12
1523010140381532,27,3,3,2,2,0,-2,13
1523010140381532,-50,-13,-4,-5,-3,-10,6,-26
1523010140383538,-2,0,-2,-1,1,-5,-33,9
1523010140383538,20,-2,-1,-3,-2,7,21,12
1523010140395570,-7,-16,-4,-1,0,0,1,7
1523010140395570,11,8,-2,2,0,0,3,9
1523010140404594,5,-3,2,-1,-1,-4,-8,11
1523010140404594,-11,0,0,-4,-5,-4,-43,-18
1523010140419634,8,6,0,3,3,2,9,11
1523010140419634,11,-2,-3,-3,-2,0,-1,-3
1523010140420637,-17,-7,-1,-2,-2,-9,5,-2
1523010140420637,19,3,3,1,1,12,19,7
1523010140441692,-12,-5,2,-4,0,-1,1,2
1523010140441692,5,-8,-5,-2,-2,-2,-5,-6
1523010140443698,15,16,3,3,1,-2,4,-5
1523010140443698,-6,-7,-5,-1,0,-3,-5,2
1523010140455730,-8,-4,-2,-4,-1,-1,3,-17
1523010140455730,13,10,1,1,-1,7,5,14
1523010140464754,-13,5,-4,-5,-4,-4,10,-13
1523010140464754,6,4,-1,2,1,-14,-19,1
1523010140485810,0,-8,0,0,1,11,19,1
1523010140485810,1,-5,0,1,1,-9,-14,-18
1523010140494834,-30,-6,-5,-5,-3,12,31,1
1523010140494834,28,6,4,2,-1,-8,-12,-29
1523010140501852,-5,-3,-5,-2,-1,-5,-7,10
1523010140501852,6,5,4,3,0,-4,-1,-7
1523010140503858,-2,-8,-5,-6,-2,10,-2,-2
1523010140503858,-18,-11,-2,-3,-1,-2,3,-5
1523010140515890,1,6,0,0,0,-9,-5,-2
1523010140515890,0,-4,-3,-2,-2,7,7,21
1523010140524914,12,4,1,2,4,-4,8,15
1523010140524914,-10,-8,-1,-2,-6,-2,-4,2
1523010140538951,2,0,-3,0,-1,-9,-5,-1
1523010140538951,2,7,0,1,0,2,-5,24
1523010140540957,-12,-3,-3,-2,-6,-15,-26,-36
1523010140540957,24,5,1,-1,4,21,30,14
1523010140562013,-37,-17,-1,1,0,-7,-5,-11
1523010140562013,-13,3,-2,1,1,-8,1,-13
1523010140568028,34,10,2,2,-1,-1,4,22
1523010140568028,-5,-6,-5,-1,-3,-14,-23,-10
1523010140576050,6,2,1,-2,-3,3,-1,2
1523010140576050,8,0,0,1,3,1,7,1
1523010140585074,-12,-7,-5,-1,-2,4,-13,-14
1523010140585074,-17,-5,1,-2,-1,8,11,4
1523010140599112,19,8,-1,2,1,2,3,13
1523010140599112,22,9,1,-1,-4,-25,-3,18
1523010140606130,-3,-2,1,0,2,29,-7,-9
1523010140606130,-6,-4,-3,-2,-1,-12,5,16
1523010140622172,-14,-6,0,-5,-1,5,2,-42
1523010140622172,-30,-3,-1,-1,2,3,-4,-8
1523010140623176,7,4,2,-1,1,3,-5,-16
1523010140623176,-2,-10,1,2,0,7,6,17
1523010140635207,35,12,-2,-1,-4,4,-10,21
1523010140635207,-1,0,2,2,3,-3,-6,-7
1523010140652253,-12,-2,-2,-2,-6,-24,-5,-15
1523010140652253,-16,-2,-1,0,3,16,-6,-9
1523010140659271,-6,1,2,2,1,-8,6,-1
1523010140659271,1,-7,-4,0,-2,28,10,12
1523010140673309,32,9,0,0,1,-4,-16,-8
1523010140673309,0,-9,2,-2,-4,-2,20,24
1523010140682332,-10,-6,-1,2,-1,-3,-13,-15
1523010140682332,-12,-2,-7,-6,-1,14,-15,-18
1523010140683336,-8,-1,1,4,2,-3,15,13
1523010140683336,-5,-8,-1,-1,1,-13,-17,-11
1523010140695367,10,-3,1,-2,-6,-12,8,4
1523010140695367,-31,-1,-5,-3,-6,-8,-12,-23
1523010140704391,-11,4,0,3,1,-3,11,-8
1523010140704391,8,4,1,2,2,11,-5,-4
1523010140718429,-7,-6,-3,0,-1,7,-7,4
1523010140718429,5,-7,1,-5,-1,8,29,21
1523010140725447,0,-5,-5,-8,-15,-27,-23,-24
1523010140725447,3,1,-2,0,1,-20,7,16
1523010140741490,-11,-3,5,4,3,16,2,5
1523010140741490,3,-6,0,0,-3,-18,-13,-14
1523010140743496,-25,-3,-2,-3,6,9,4,7
1523010140743496,-11,-1,-1,3,-4,5,-3,-18
1523010140764551,13,-1,-2,-4,-2,-23,2,0
1523010140764551,-11,-3,-1,-2,-3,-2,8,-44
1523010140766557,-12,-2,2,2,3,20,13,36
1523010140766557,24,0,0,0,1,3,-6,-7
1523010140778589,-17,0,-4,-5,-3,-5,-13,-10
1523010140778589,10,-5,0,0,0,-23,-2,5
1523010140785607,-4,0,-3,0,-2,7,12,15
1523010140785607,8,9,2,1,3,13,-2,-17
1523010140801650,-19,-8,0,-2,-7,-19,-16,17
1523010140801650,25,1,3,4,-1,8,1,10
1523010140803655,-19,-6,-1,0,-1,4,-8,-13
1523010140803655,37,8,3,1,1,-12,8,55
1523010140824711,-21,1,-2,3,5,46,3,-42
1523010140824711,-10,-3,1,-1,-8,-23,-31,-29
1523010140830727,27,5,-2,-2,-1,-21,13,33
1523010140830727,-17,1,0,-5,-5,-3,-7,-14
1523010140839751,16,1,-1,1,0,-9,-1,1
1523010140839751,-6,4,-2,2,6,21,14,32
1523010140845767,-8,2,1,2,2,2,-12,-22
1523010140845767,7,-4,-1,-4,-3,-10,-5,9
1523010140861810,-10,-13,-3,-4,-5,18,4,-29
1523010140861810,33,14,1,2,0,-34,-11,7
1523010140863815,2,1,0,0,0,10,3,3
1523010140863815,-11,-8,-4,-4,-5,-21,6,-5
1523010140884871,1,7,-2,1,0,-10,-1,20
1523010140884871,-12,-4,-3,0,1,19,8,-12
1523010140885874,2,-5,-5,-3,-2,-9,-11,-6
1523010140885874,-5,2,2,0,-2,1,10,0
1523010140898909,-11,-5,2,0,-1,10,2,2
1523010140898909,19,3,0,-2,0,10,1,11
1523010140905927,-6,-2,0,-2,-5,-34,-3,-2
1523010140905927,1,-8,-2,-3,0,17,-6,-13
1523010140920967,17,6,-1,-1,-1,8,11,26
1523010140920967,-14,-2,-3,-3,1,14,-7,-15
1523010140929991,-5,2,1,0,0,-6,0,-3
1523010140929991,-17,-7,2,2,0,-3,0,6
1523010140944029,16,7,-1,-4,-3,-13,-4,-8
1523010140944029,-23,-9,-1,-1,-2,-9,-5,0
1523010140946034,30,5,-4,-1,2,17,4,-9
1523010140946034,-20,-6,-1,0,-2,-12,0,6
1523010140967090,7,5,-1,0,1,17,1,-2
1523010140967090,2,-3,1,-2,1,0,3,18
1523010140969095,-31,-6,-2,-3,-2,-8,-4,-9
1523010140969095,3,0,0,2,1,11,5,-11
1523010140982130,20,4,1,2,0,-19,3,18
1523010140982130,-12,-4,-1,-2,-1,11,4,-2
1523010140983133,-6,-1,-1,1,1,-5,-12,-3
1523010140983133,-4,-1,-7,-5,-5,-1,-3,-5
1523010141004189,15,0,0,-2,-2,-15,-6,-17
1523010141004189,15,3,4,3,0,0,5,14
1523010141006194,-6,-1,1,0,1,12,12,14
1523010141006194,-20,-6,-3,0,0,-4,-3,-3
1523010141018226,-15,-7,-4,-4,-2,-4,-7,-14
1523010141018226,-6,3,1,0,2,13,11,-3
1523010141034268,17,3,0,-1,-1,-13,2,14
1523010141034268,13,-4,-2,-1,0,3,-19,-24
1523010141042290,10,9,-1,-2,-3,-27,4,8
1523010141042290,13,-7,1,0,4,24,15,19
1523010141043293,-10,-1,1,-1,-3,10,-6,-15
1523010141043293,-11,1,0,4,3,-19,-2,-16
1523010141064348,-31,-7,-4,-2,2,14,-3,0
1523010141064348,-6,-2,0,-2,-4,-6,-15,2
1523010141066354,30,13,2,0,-2,-11,-5,24
1523010141066354,-12,-4,1,-1,1,24,6,-18
1523010141078386,-3,-10,2,0,2,8,12,-9
1523010141078386,-2,-5,-4,-4,-5,-36,-24,0
1523010141087410,-1,-5,0,2,2,13,8,2
1523010141087410,-3,-3,-1,0,0,-2,0,10
1523010141108466,19,6,-2,-2,-3,-1,4,-6
1523010141108466,-19,-11,-1,0,-1,-11,-19,-21
1523010141117490,-3,0,-2,1,3,5,23,1
1523010141117490,18,7,0,-1,-2,5,6,13
1523010141124508,0,-13,-2,1,2,10,1,11
1523010141124508,-24,-11,-3,-4,-3,1,-8,-18
1523010141126514,6,3,-3,-3,-2,-4,-12,0
1523010141126514,1,2,3,4,2,-4,5,8
1523010141138546,-8,-1,-1,2,0,1,-13,8
1523010141138546,35,5,2,2,2,2,1,7
1523010141147570,-2,-5,0,-1,1,0,3,1
1523010141147570,3,3,-4,-4,-2,0,4,-5
1523010141161607,11,-3,0,-2,0,0,-5,3
1523010141161607,5,4,-4,-5,-5,-4,-9,-18
1523010141163613,-32,-3,0,0,-2,-3,17,-4
1523010141163613,24,5,-5,-5,-4,-5,-25,-2
1523010141191687,-14,-10,1,1,1,6,22,-11
1523010141191687,2,-1,1,1,0,0,10,0
1523010141193693,8,1,-1,1,-1,3,-11,-3
1523010141193693,27,-1,0,-1,-3,-11,-17,-6
1523010141197703,-43,-11,-4,-4,-3,-3,0,12
1523010141197703,7,-3,5,3,2,8,15,14
1523010141206727,-11,7,-2,-2,-1,-1,-12,-7
1523010141206727,11,4,-2,-2,-3,-3,8,-2
1523010141222770,19,11,1,0,3,-9,-19,-4
1523010141222770,8,1,2,0,0,3,23,0
1523010141223773,9,-17,-5,-1,-2,4,-21,-2
1523010141223773,-36,-4,-1,1,0,0,11,-5
1523010141244828,8,6,1,-2,-3,-8,-17,-9
1523010141244828,-7,-6,0,-3,-4,5,6,8
1523010141245831,12,17,0,2,2,-7,1,-3
1523010141245831,8,-1,-1,-1,-4,7,5,11
1523010141257863,-13,-15,-3,0,0,-6,-12,-12
1523010141257863,21,21,0,-1,-8,-6,1,0
1523010141266887,-3,5,1,-2,7,1,-23,-7
1523010141266887,-13,-18,-5,-3,5,2,21,7
1523010141281927,5,0,5,2,-2,1,19,4
1523010141281927,-6,-26,0,0,1,-2,-9,0
1523010141283933,-19,13,-4,-1,-10,6,50,-7
1523010141283933,15,-8,1,-1,-3,-8,-50,-2
1523010141303986,-5,-4,0,0,1,-3,-13,-9
1523010141303986,0,-7,-2,0,1,4,17,3
1523010141305991,5,-4,0,0,-6,-4,-2,4
1523010141305991,13,12,3,4,1,2,15,8
1523010141318023,-30,-11,-5,-3,-8,-4,-13,-12
1523010141318023,-2,5,1,2,3,-1,4,4
1523010141327047,7,9,-3,-4,1,-1,-6,-3
1523010141327047,-33,-3,-3,0,-2,-4,3,-3
1523010141342087,19,10,1,-1,-1,3,1,7
1523010141342087,-19,-10,1,1,1,-3,-3,-5
1523010141344093,8,1,-4,-4,-5,0,-2,3
1523010141344093,4,4,-3,-2,-1,-5,-9,3
1523010141364146,22,2,0,3,3,0,5,10
1523010141364146,-17,-12,0,-2,0,0,4,-9
1523010141366151,-3,-1,1,2,-2,-3,-9,6
1523010141366151,-18,1,-2,-3,-2,1,-7,-6
1523010141378183,0,13,1,0,2,-5,-10,0
1523010141378183,8,-11,-5,-1,1,2,3,4
1523010141387207,-14,-4,-2,-2,-3,-4,-9,-6
1523010141387207,7,8,0,-1,-2,-2,10,0
1523010141402247,1,-4,1,-3,0,1,-3,6
1523010141402247,4,3,2,2,0,0,6,5
1523010141403250,-8,-13,0,0,0,-4,-8,-2
1523010141403250,7,3,-3,-1,-2,0,15,4
1523010141424306,-17,-5,-3,-2,-3,-3,-12,-4
1523010141424306,-3,1,-1,1,2,-3,-9,-3
1523010141426311,-4,4,2,1,0,2,7,-2
1523010141426311,10,-11,-2,1,2,0,1,2
1523010141438343,-9,-4,-4,-4,-4,-1,9,-5
1523010141438343,6,1,2,0,1,0,-17,4
1523010141447367,15,-3,-1,0,2,-5,-7,8
1523010141447367,-1,6,1,-3,-1,-2,6,-8
1523010141462407,-6,-14,-4,1,3,4,7,-1
1523010141462407,-16,-1,-2,-5,-4,-5,-32,-10
1523010141463410,-3,-2,-2,2,1,0,-4,-4
1523010141463410,16,6,8,0,-2,-5,4,6
1523010141484466,-10,-3,-1,1,-3,-2,7,-3
1523010141484466,12,11,1,-2,-1,1,3,-4
1523010141486472,1,-2,-5,-5,-1,-10,-19,-5
1523010141486472,-5,0,2,0,1,11,18,-1
1523010141498503,-10,-16,-1,-5,-1,3,0,-14
1523010141498503,9,7,-1,0,0,2,6,9
1523010141507527,-4,9,-1,-1,0,-2,-17,-13
1523010141507527,-16,-7,1,1,-2,-10,-19,-1
1523010141521564,26,3,-1,-1,-1,9,16,4
1523010141521564,-12,8,-2,-2,-5,-10,-8,-15
1523010141523570,-3,-7,-7,-3,-3,3,4,-6
1523010141523570,-20,-3,3,2,1,0,-1,-2
1523010141544626,6,4,2,1,-1,-9,-3,-6
1523010141544626,0,-3,0,0,0,11,26,-1
1523010141545628,13,3,0,-1,-8,-1,14,17
1523010141545628,-11,-9,-7,-4,8,-4,-5,-27
1523010141557660,0,2,5,4,-1,-4,-5,9
1523010141557660,-12,11,-8,-3,-1,-3,4,-6
1523010141566684,7,-6,-1,-1,-1,-4,6,5
1523010141566684,5,0,-3,-5,-3,-1,-41,10
1523010141581724,6,7,1,-2,-2,-3,16,5
1523010141581724,-2,-5,-1,1,1,-7,-15,-1
1523010141587740,-10,-11,-1,-1,1,7,6,6
1523010141587740,8,10,-4,-3,-5,-2,-5,-4
1523010141604786,2,-3,-1,-3,-2,-3,-9,-1
1523010141604786,2,3,0,0,-4,-8,-14,-3
1523010141606791,-19,-15,-7,-3,0,4,18,0
1523010141606791,27,4,2,2,2,6,32,12
1523010141617821,-3,1,-2,-1,2,-3,-3,12
1523010141617821,10,3,-1,-2,-1,-6,-12,-8
1523010141634866,12,4,2,-1,2,12,8,2
1523010141634866,-16,-10,0,2,1,-4,-8,6
1523010141640882,-17,1,-6,-3,-2,0,-19,-13
1523010141640882,27,3,1,0,1,-4,0,18
1523010141647900,-8,-6,-1,0,1,2,8,-8
1523010141647900,-29,-7,1,-1,-3,-6,-2,-15
1523010141663943,0,3,1,-1,-1,0,-12,-11
1523010141663943,-4,-9,-3,0,-1,-12,12,6
1523010141670962,25,16,4,0,0,5,0,6
1523010141670962,-4,-6,-3,-2,-2,0,8,-1
1523010141687004,-18,-3,2,2,2,-3,-6,-9
1523010141687004,1,-2,-1,-1,1,17,13,12
1523010141689010,21,9,-2,-3,-5,-19,-10,5
1523010141689010,16,-3,2,1,-2,-4,-3,3
1523010141701042,10,-2,-2,-1,0,3,39,3
1523010141701042,-34,-5,-1,-1,-1,-13,-78,-7
1523010141708060,8,1,3,2,1,3,6,7
1523010141708060,-11,-4,-4,-4,-1,7,-4,-7
1523010141724103,11,6,0,1,0,-3,5,7
1523010141724103,-1,-3,-1,1,0,0,22,1
1523010141726108,-12,0,0,-1,-1,0,-5,-1
1523010141726108,-4,-2,-1,-1,-2,-3,-5,-8
1523010141747164,1,0,-1,1,-1,-6,-11,-8
1523010141747164,-11,-4,-4,-2,0,15,17,-1
1523010141753180,3,4,-1,-1,-1,-5,-11,-8
1523010141753180,27,6,-1,-1,-1,-6,13,9
1523010141761202,3,1,0,-1,0,16,9,15
1523010141761202,-28,-1,-2,-3,-4,-9,1,-17
1523010141768220,0,-8,1,1,-1,-7,-3,-8
1523010141768220,21,4,3,2,3,-5,-1,10
1523010141785266,-17,-8,-2,0,0,12,4,-2
1523010141785266,5,3,2,1,1,15,1,-8
1523010141787271,1,-2,-4,-4,-1,3,1,4
1523010141787271,-12,-11,-3,-1,-1,-8,-3,-2
1523010141807324,13,7,-2,0,-6,-13,-15,-4
1523010141807324,-2,0,-1,0,1,12,12,-1
1523010141808327,-8,0,1,-2,-3,-1,1,-3
1523010141808327,8,4,4,3,1,11,14,14
1523010141821362,0,-5,-2,-2,-4,-8,-20,-19
1523010141821362,-19,1,-3,-3,-1,-2,5,2
1523010141828380,5,2,2,2,-1,-9,-2,6
1523010141828380,-12,-4,0,-4,-1,10,-5,-6
1523010141844423,3,-3,-1,-1,0,-6,-1,-1
1523010141844423,21,3,-2,-3,-3,4,-3,2
1523010141846428,-22,-6,0,-1,-3,-10,-1,-3
1523010141846428,-3,-5,-3,-1,-2,3,4,1
1523010141867484,6,4,2,2,-3,-9,-1,-4
1523010141867484,-7,-3,1,-1,2,-4,-3,7
1523010141869490,5,0,-4,0,1,25,1,-9
1523010141869490,-12,-3,-1,-3,-2,-11,-6,-10
1523010141881521,-2,0,0,-1,-2,-1,-5,8
1523010141881521,22,5,1,3,-2,-21,4,10
1523010141888540,-23,-8,-1,2,5,5,-4,-10
1523010141888540,-3,-2,0,1,-1,-2,-9,-19
1523010141904583,-4,0,1,0,-2,-9,10,18
1523010141904583,-2,-2,-3,-1,-6,-4,1,-2
1523010141906588,5,-2,0,0,1,-6,-3,-7
1523010141906588,-13,1,1,1,-1,5,-2,7
1523010141926642,-21,-3,-1,1,2,4,-1,-17
1523010141926642,12,-4,-5,-3,-1,-1,6,7
1523010141928647,7,6,-1,-3,-3,-2,-4,1
1523010141928647,-4,-8,1,2,-2,-1,-3,3
1523010141940679,-2,3,3,0,0,8,7,0
1523010141940679,-11,2,-3,2,1,1,0,-3
1523010141949703,5,2,1,0,-3,4,1,2
1523010141949703,-13,-8,-3,-2,-1,4,1,-6
1523010141964743,-22,-5,-2,-2,-5,-2,-8,-5
1523010141964743,23,9,0,0,1,3,1,2
1523010141965746,-11,-2,-3,-2,-1,-9,-6,-10
1523010141965746,-2,1,2,2,2,-5,4,17
1523010141986802,6,-1,-2,-2,-1,2,-1,-12
1523010141986802,-2,-1,0,0,0,-2,0,3
1523010141988807,-5,1,0,-1,-3,-11,-3,-18
1523010141988807,-2,-1,-2,-1,-3,6,-10,-8
1523010142000839,11,-2,-2,-2,1,2,4,12
1523010142000839,-22,-3,-1,-1,-1,-3,2,6
1523010142009863,28,2,0,2,2,3,11,17
1523010142009863,-23,-4,-2,-4,-5,2,-9,-23
1523010142024903,-18,-3,-2,-1,-1,-20,-4,-5
1523010142024903,3,5,0,-1,-3,9,-4,2
1523010142025906,8,-1,-3,-2,0,4,7,5
1523010142025906,24,5,1,0,1,-9,-6,9
1523010142046962,22,4,-2,0,0,9,3,14
1523010142046962,-30,-9,-5,-4,-4,-13,-9,-24
1523010142048967,-11,-2,-3,-3,-2,3,-7,-9
1523010142048967,6,0,0,0,0,0,5,-4
1523010142060999,2,0,2,0,1,5,-1,-7
1523010142060999,-1,-4,-2,-2,-2,-10,-2,12
1523010142070023,8,5,-1,-2,0,-2,1,3
1523010142070023,-18,-4,-3,-2,-2,0,-1,-18
1523010142084060,6,2,-2,0,3,18,3,16
1523010142084060,14,4,1,1,0,-7,3,-3
1523010142086066,-15,-5,1,0,0,-1,-8,1
1523010142086066,-3,-4,1,2,0,-16,14,9
1523010142107122,21,4,-3,-3,-3,20,1,-6
1523010142107122,5,0,-2,-1,0,13,-4,-3
1523010142113138,-1,-2,-1,0,-4,6,3,-11
1523010142113138,-10,3,1,0,-1,-4,-7,7
1523010142120156,-11,-2,0,0,0,-9,12,9
1523010142120156,0,0,-1,-3,0,10,1,-6
1523010142129180,-4,-3,-1,0,-1,-9,-12,-18
1523010142129180,17,1,-2,-5,-4,-4,-3,11
1523010142143217,-17,-5,1,0,0,5,1,-4
1523010142143217,5,0,-2,1,0,7,8,1
1523010142158257,0,-1,-1,-1,-1,-7,9,18
1523010142158257,-1,-1,-1,-1,-3,0,-2,-10
1523010142167282,3,-2,-1,-3,-2,-8,-8,-2
1523010142167282,4,-4,0,-2,-1,7,1,6
1523010142168284,-17,2,-4,-2,-3,-4,-14,-11
1523010142168284,19,5,0,3,3,8,6,3
1523010142180316,-20,-8,-1,-2,1,5,-3,-2
1523010142180316,2,4,0,1,-4,-24,-5,-11
1523010142189340,-4,-5,-2,0,3,4,4,17
1523010142189340,-3,-2,-1,1,-1,-3,-2,-2
1523010142204380,3,0,-2,0,1,5,-6,-4
1523010142204380,5,2,-1,-1,-3,-25,-10,-10
1523010142206386,-11,5,-3,-1,0,11,6,0
1523010142206386,-1,-3,1,1,0,-1,5,-1
1523010142227442,3,-3,2,3,-1,-12,-16,7
1523010142227442,-6,-7,-1,-3,0,8,4,-12
1523010142229447,0,1,-1,0,-1,-5,2,6
1523010142229447,5,-2,-1,-1,2,5,-6,-13
1523010142240476,5,-3,-2,-2,-3,-8,3,-2
1523010142240476,-3,2,1,0,2,3,0,3
1523010142255516,-1,-2,-1,0,-2,-6,1,1
1523010142255516,-3,-3,0,-1,-1,-15,-11,1
1523010142264540,3,0,0,-2,-2,24,18,-3
1523010142264540,6,2,2,2,0,5,-16,3
1523010142266546,-25,-5,-5,-3,-2,-2,9,0
1523010142266546,19,5,-1,0,-1,-1,-4,2
1523010142286599,0,0,2,3,0,-15,-9,1
1523010142286599,-21,-4,-1,2,-1,5,4,1
1523010142288604,17,4,0,0,0,-5,-13,-14
1523010142288604,0,-3,-2,-5,-4,9,8,11
1523010142300636,13,10,0,-3,-2,-7,-4,12
1523010142300636,12,-4,-1,-2,0,7,15,18
1523010142309660,-35,-4,1,1,-1,-7,-9,-8
1523010142309660,7,2,-1,1,0,4,5,2
1523010142324700,-7,1,-2,-2,-1,-9,-3,-8
1523010142324700,6,0,0,3,2,-7,2,10
1523010142325703,17,-5,-2,-3,-1,16,16,15
1523010142325703,7,9,-2,0,1,0,-7,5
1523010142354780,-14,-3,0,-1,1,-5,19,-19
1523010142354780,-21,-6,-2,-3,-2,-2,-27,-3
1523010142355783,23,8,2,4,4,4,21,4
1523010142355783,-11,-6,-2,0,-1,-1,0,-22
1523010142360796,-7,-13,-2,1,-2,-13,-3,0
1523010142360796,-8,4,-2,-1,-2,7,-10,-14
1523010142376839,-2,-2,-4,-5,-3,-3,11,1
1523010142376839,11,8,3,-1,1,2,2,6
1523010142384860,1,2,-1,1,-1,-12,-29,-14
1523010142384860,2,-9,2,1,1,6,13,-6
1523010142386866,0,1,-2,-1,-3,4,-9,-1
1523010142386866,-6,-5,0,1,1,-7,3,1
1523010142406919,-9,-5,-2,-2,-2,1,-6,10
1523010142406919,11,7,0,2,0,-5,-7,6
1523010142408924,-5,9,-3,0,2,1,26,10
1523010142408924,7,-18,-2,-2,-3,-1,-7,-2
1523010142420956,-36,-9,-1,-1,-1,-1,-8,-8
1523010142420956,16,12,-1,-2,-2,2,-8,-10
1523010142429981,22,1,0,0,0,-7,-9,-10
1523010142429981,-23,0,-5,-2,-1,3,-2,-11
1523010142443015,-7,-7,-1,0,0,5,7,0
1523010142443015,0,-4,-2,-1,-2,-10,2,-6
1523010142452039,1,5,-2,0,-1,2,-4,4
1523010142452039,-1,1,0,0,-4,0,-27,-2
1523010142467079,25,3,2,-1,-2,-2,21,4
1523010142467079,-11,-7,-2,0,3,0,7,4
1523010142469084,10,-3,1,-1,-3,-7,7,0
1523010142469084,-22,6,-1,-1,-1,4,9,2
1523010142481116,4,-9,-3,-3,-3,-1,-8,3
1523010142481116,-12,6,2,0,-2,-5,-7,-16
1523010142489137,-5,-5,-4,-1,0,0,-3,5
1523010142489137,0,0,0,-2,-1,-4,-8,-2
1523010142504178,29,9,3,0,-1,0,17,4
1523010142504178,-34,-4,-3,0,-2,5,-15,-5
1523010142510194,23,2,0,-1,-2,-3,-21,3
1523010142510194,-31,-10,1,2,2,3,3,0
1523010142527239,22,7,2,0,3,1,6,-2
1523010142527239,15,12,1,-1,0,1,16,3
1523010142528242,-6,2,-3,0,-2,-10,-22,-1
1523010142528242,27,-8,0,-1,-3,3,26,1
1523010142540274,-18,-2,3,0,0,1,-11,0
1523010142540274,10,-15,1,1,2,-1,0,13
1523010142549298,-20,-2,-5,-5,-5,1,3,-18
1523010142549298,0,-6,-1,-3,-2,-13,-16,-2
1523010142563335,-6,2,-6,-2,-3,-2,2,2
1523010142563335,11,-6,0,-2,-2,1,6,2
1523010142570354,6,6,1,2,5,4,-4,-4
1523010142570354,-3,2,0,-2,-1,-2,1,-8
1523010142587399,-21,-7,-7,-4,-5,-4,-10,-16
1523010142587399,-43,-8,-4,-7,-6,-2,0,-1
1523010142588402,22,-1,-1,1,1,0,8,18
1523010142588402,-10,13,-1,0,-2,-3,0,-18
1523010142600434,32,5,-1,-3,-1,3,-4,20
1523010142600434,8,7,2,4,-3,-7,8,-1
1523010142609457,-4,-6,-3,-3,-3,1,5,5
1523010142609457,25,12,3,1,-2,-7,-24,-11
1523010142623495,-18,-30,-3,2,8,5,-8,19
1523010142623495,-17,4,0,1,1,-4,-6,-2
1523010142630514,-52,-6,-2,1,5,-2,13,-3
1523010142630514,53,18,7,6,1,4,1,21
1523010142646556,0,3,-11,-12,-11,-6,11,-4
1523010142646556,-1,1,0,3,1,5,6,-4
1523010142648562,2,-9,-3,-8,-17,-4,-2,-3
1523010142648562,-39,-2,-10,-3,14,4,21,-4
1523010142669617,5,-21,0,0,-4,-11,-57,-41
1523010142669617,39,2,0,2,5,9,4,21
1523010142671623,-27,-4,2,-7,-10,-9,-2,-14
1523010142671623,7,-7,-4,5,1,2,10,5
1523010142683655,-13,10,1,2,2,7,13,2
1523010142683655,33,12,1,3,5,-1,-2,6
1523010142690674,-10,-10,4,2,4,5,-2,-20
1523010142690674,3,-5,-1,-10,-9,-5,-38,-4
1523010142706716,15,28,7,8,5,-6,47,6
1523010142706716,-20,-13,-8,-7,-10,8,-28,-24
1523010142708722,7,7,-1,-2,2,-3,-10,15
1523010142708722,-5,-4,0,-3,-2,5,14,6
1523010142729777,-6,-12,0,6,-1,-6,-3,7
1523010142729777,-4,-2,0,-1,-2,-6,4,10
1523010142730780,23,18,-2,-1,3,-7,-24,4
1523010142730780,0,-5,-1,3,2,6,19,12
1523010142743815,-4,-3,-2,-5,-4,-3,4,13
1523010142743815,-16,-1,-2,-3,-2,3,0,-1
1523010142750834,10,-12,1,5,5,4,0,18
1523010142750834,-5,-2,-2,-5,-5,-3,-5,-10
1523010142766876,5,12,2,-2,-4,1,3,14
1523010142766876,5,-5,-2,1,4,-9,1,-10
1523010142768882,23,1,2,1,-3,5,9,-1
1523010142768882,-38,-8,-1,2,7,4,6,-3
1523010142789937,-5,-10,-1,-3,-1,0,-14,-17
1523010142789937,12,15,-2,-5,-5,-4,12,1
1523010142790940,-10,-2,-1,-3,-1,-5,-3,-11
1523010142790940,-4,-7,2,0,-2,-8,-8,14
1523010142803975,-29,-4,-2,-3,-2,11,-8,-30
1523010142803975,7,3,0,-2,-1,-8,-2,-1
1523010142810994,25,6,2,2,3,1,2,12
1523010142810994,-10,-4,-2,-1,-5,-1,6,14
1523010142834055,1,6,2,4,4,-7,-4,-9
1523010142834055,7,2,-3,-2,-6,-12,-3,7
1523010142836060,-12,-6,0,1,2,6,15,1
1523010142836060,8,-6,2,-3,-7,-9,-19,-3
1523010142849095,13,-6,-4,-1,2,10,9,0
1523010142849095,-7,2,3,1,2,7,19,-13
1523010142857116,-25,-16,-5,-2,2,-1,-18,5
1523010142857116,-10,5,-3,-1,-2,-4,-4,6
1523010142863132,-13,-11,-5,-3,-1,4,-6,-8
1523010142863132,15,3,1,2,0,9,16,0
1523010142872156,18,-2,0,3,4,-8,-9,18
1523010142872156,-18,-11,-4,-1,-1,2,-12,-17
1523010142887196,12,5,-1,3,-2,8,5,2
1523010142887196,17,7,1,0,-4,-10,-12,-10
1523010142889201,-23,-13,0,0,-1,-2,4,-4
1523010142889201,25,6,-2,-1,-4,-3,5,-4
1523010142909255,-27,5,-1,-5,0,-5,-1,-8
1523010142909255,9,-1,-2,-3,-1,2,-10,2
1523010142911261,3,0,-2,-4,-3,-5,0,-24
1523010142911261,-25,-10,-2,-2,3,2,3,-9
1523010142923292,8,-2,2,4,-2,10,1,10
1523010142923292,-10,5,2,2,3,3,4,13
1523010142938332,19,1,0,-4,-7,-14,-9,-9
1523010142938332,14,4,2,-2,5,18,2,5
1523010142947356,1,1,-2,-1,-2,-7,-3,26
1523010142947356,-16,-2,-6,-5,-1,-13,-14,-63
1523010142948359,16,2,6,4,0,5,17,38
1523010142948359,-12,-5,-1,4,-2,-3,1,-24
1523010142970417,-13,1,0,0,2,-13,-3,2
1523010142970417,-11,-13,-4,-3,-2,11,4,3
1523010142975431,-6,0,-5,-5,-3,-7,-8,-13
1523010142975431,6,3,2,4,-3,-2,9,19
1523010142983452,6,-3,0,0,-1,-16,-6,6
1523010142983452,-4,-6,-4,0,1,17,-3,3
1523010142992476,-9,-9,3,-2,-3,-11,-21,-13
1523010142992476,14,2,0,-4,2,17,14,11
1523010143006513,11,-1,-1,-3,-2,-6,-10,-5
1523010143006513,-6,-2,-1,-1,0,-5,8,15
1523010143008519,-1,-3,0,0,-1,11,3,10
1523010143008519,-1,1,0,2,-1,-33,-20,-19
1523010143029575,9,1,-1,-3,-1,31,5,-5
1523010143029575,-30,-6,-3,-2,-2,7,-4,-13
1523010143031580,5,2,0,-2,-1,-18,-1,-3
1523010143031580,-15,-4,1,-2,-5,-7,-8,-5
1523010143043612,-2,0,-4,-2,1,-12,16,-6
1523010143043612,-11,5,3,-1,0,-2,-12,-1
1523010143060658,4,3,3,1,0,0,-3,-9
1523010143060658,2,-4,-6,-7,-2,18,-5,-12
1523010143066674,13,3,3,-1,-2,-3,-3,15
1523010143066674,-3,-4,-3,-1,-1,-1,7,9
1523010143068679,-11,-3,0,1,2,-4,-9,-18
1523010143068679,5,1,-2,-3,-2,-7,3,11
1523010143089735,-2,0,1,2,1,3,1,-8
1523010143089735,13,3,-3,0,-3,-8,-4,18
1523010143090738,-23,-6,-3,1,2,15,-2,-23
1523010143090738,13,-2,-2,0,-1,1,7,2
1523010143102769,-3,2,3,-3,1,0,6,18
1523010143102769,-2,-11,-4,-4,-5,-3,-13,-20
1523010143111793,-10,-7,-3,-1,-6,-12,-7,13
1523010143111793,12,3,-2,0,0,11,11,-13
1523010143127836,-9,-4,0,1,-1,-34,-4,-6
1523010143127836,6,4,0,0,-1,19,2,11
1523010143132850,6,3,0,-1,0,19,4,-5
1523010143132850,-7,-2,-3,0,2,-9,4,11
1523010143149895,-2,-5,1,1,-4,4,-9,-5
1523010143149895,-12,-5,-3,-3,-2,-5,-2,-13
1523010143150898,-7,2,-2,-3,-2,-6,-4,3
1523010143150898,21,7,3,3,1,-5,2,9
1523010143171953,-9,-6,-5,-5,-3,4,-2,-8
1523010143171953,-3,-2,0,1,3,-10,-9,3
1523010143173959,15,4,-1,-1,-2,21,16,9
1523010143173959,-7,-7,-1,-4,-2,-24,-14,-28
1523010143186993,-16,-2,-1,0,-3,-1,-6,-7
1523010143186993,4,-1,-2,0,-1,0,11,21
1523010143188999,16,2,-1,-1,-2,-5,-5,-4
1523010143188999,3,2,1,0,0,8,13,14
1523010143209052,12,-2,2,2,2,-3,-5,11
1523010143209052,-14,0,-2,-2,-2,-6,-1,-19
1523010143217074,-9,-2,-1,0,0,-9,-3,1
1523010143217074,3,2,-2,0,1,10,-6,0
1523010143223089,-20,-9,-3,-5,-1,3,4,-26
1523010143223089,12,4,1,3,2,0,5,20
1523010143232114,-3,-8,0,1,-2,-18,-10,-17
1523010143232114,12,9,-2,-3,-1,14,-8,10
1523010143246151,-3,1,-1,-4,-3,-8,-2,12
1523010143246151,-3,1,-1,-3,-3,2,1,-15
1523010143260188,-17,-7,-3,-2,0,-1,-3,-6
1523010143260188,2,0,0,-2,0,-4,0,-5
1523010143269212,13,5,4,6,0,3,5,16
1523010143269212,5,3,-3,3,-1,1,-8,9
1523010143271218,23,8,-1,-3,1,13,13,15
1523010143271218,-26,-10,-3,0,-2,-15,9,-5
1523010143283250,-31,-9,2,-4,0,4,-5,-14
1523010143283250,18,1,-1,-3,-3,-20,-1,11
1523010143292273,-13,-2,-3,-1,0,16,6,-12
1523010143292273,2,-2,2,2,3,8,-1,9
1523010143307313,9,-2,-3,0,1,7,7,-25
1523010143307313,4,6,3,0,-1,-10,-8,-2
1523010143308316,6,1,-2,0,0,2,1,10
1523010143308316,-23,-8,-3,-3,-1,1,4,-3
1523010143329372,24,4,-1,2,1,-7,0,11
1523010143329372,8,-5,-2,-1,1,1,1,5
1523010143331378,-18,-2,-3,0,1,-4,-4,-14
1523010143331378,7,3,2,-2,-5,-22,-24,3
1523010143343409,-7,-3,2,2,2,16,6,19
1523010143343409,17,2,2,-3,0,-1,4,-8
1523010143352433,-7,-5,-2,1,-5,-10,32,12
1523010143352433,-12,-7,-2,1,-5,-14,-41,-11
1523010143367473,-6,0,-4,-4,2,31,7,-26
1523010143367473,-24,-5,-3,-1,1,-5,-6,7
1523010143368476,-3,1,2,0,5,-3,-5,-4
1523010143368476,13,2,-1,-4,-1,7,19,10
1523010143389532,12,-1,1,-1,-3,-11,-6,15
1523010143389532,-7,-3,-2,0,2,8,10,-6
1523010143391538,-5,2,3,1,1,0,-24,-25
1523010143391538,23,-2,-1,-1,1,3,11,23
1523010143403569,-18,-9,0,-1,1,2,-9,-7
1523010143403569,-10,0,0,1,-3,-6,11,-6
1523010143412593,10,-4,-4,-4,-4,0,-17,-1
1523010143412593,-21,-5,0,0,1,-1,4,7
1523010143427634,11,-7,-5,-3,-3,-11,6,4
1523010143427634,-2,0,0,-1,0,2,6,-19
1523010143428636,1,-3,-4,-1,-1,-5,-27,7
1523010143428636,6,11,0,1,2,-1,14,-3
1523010143450695,10,5,2,1,-1,0,-4,8
1523010143450695,-9,-1,-4,-6,-3,2,-12,-7
1523010143451698,-1,-5,-3,1,0,0,1,13
1523010143451698,2,6,1,-1,0,0,9,-5
1523010143462727,-12,-3,-1,-2,-1,-4,33,-8
1523010143462727,16,2,0,2,-1,6,-42,-4
1523010143471751,-6,0,-1,-1,-1,0,0,-9
1523010143471751,-3,3,-1,-3,-5,-19,-3,-5
1523010143486791,0,-10,0,-3,-4,-5,-22,-7
1523010143486791,-13,-5,-3,0,3,-1,35,-3
1523010143492807,5,3,2,1,1,-5,11,2
1523010143492807,-5,-4,-2,0,-1,9,-9,-12
1523010143509852,-2,0,-1,2,2,-7,-4,-13
1523010143509852,-1,-3,-1,1,-1,-6,12,19
1523010143510855,7,6,0,-1,-4,3,-16,-8
1523010143510855,3,-6,-5,-2,2,0,-17,-5
1523010143531911,-3,-1,1,-1,-2,6,34,-1
1523010143531911,-14,-9,-3,-3,0,-3,-10,-9
1523010143533916,19,16,5,2,2,3,3,14
1523010143533916,-7,-9,-3,-2,-3,1,6,-10
1523010143545948,-21,-10,-3,-2,-1,-8,-24,-14
1523010143545948,24,7,4,6,3,6,3,16
1523010143552967,-5,1,-2,-4,-4,-4,-2,-7
1523010143552967,-11,-3,-3,-1,-1,7,14,6
1523010143571015,17,10,1,4,1,-17,-27,15
1523010143571015,-3,-3,-1,-2,-3,11,12,12
1523010143572018,0,-16,-5,-5,-4,2,0,-5
1523010143572018,13,-1,1,1,0,1,8,-3
1523010143592071,2,-4,-1,-2,-1,1,3,-4
1523010143592071,21,14,2,3,1,2,-6,8
1523010143594076,-20,-7,-1,0,1,-4,-30,-9
1523010143594076,0,-5,-1,-6,-8,3,7,-20
1523010143607111,0,3,4,3,4,-5,-4,8
1523010143607111,8,-11,-7,-5,0,-4,-21,3
1523010143615132,2,5,2,2,1,6,41,1
1523010143615132,-16,1,-3,-3,-1,0,-17,-2
1523010143629169,1,-1,2,-2,-2,4,10,4
1523010143629169,10,8,0,1,-1,-7,-11,4
1523010143631175,-8,0,-1,-1,0,-1,-6,4
1523010143631175,-1,-7,-2,0,0,-6,-5,0
1523010143652231,0,-5,-2,-4,-2,10,10,-4
1523010143652231,-8,-3,-2,1,-3,0,19,5
1523010143653234,-26,-5,-3,-2,-2,-4,-15,-10
1523010143653234,3,9,2,3,2,2,2,-2
1523010143666269,1,-9,-6,-1,0,-1,-25,1
1523010143666269,1,6,2,3,3,-1,-4,0
1523010143673287,4,0,-4,-3,-3,-1,21,-5
1523010143673287,12,6,3,0,0,-3,-16,7
1523010143690332,0,2,0,1,1,7,7,-3
1523010143690332,-9,-13,-3,-4,-2,-5,16,0
1523010143691335,13,15,0,-1,-2,-2,-2,10
1523010143691335,-9,-6,1,-3,-2,-1,-13,-4
1523010143712391,-11,11,-1,2,-1,-3,11,-18
1523010143712391,-1,6,0,-1,-5,0,-12,5
1523010143713394,-11,-28,-8,-2,0,4,8,0
1523010143713394,18,-2,0,-1,-2,-1,3,8
1523010143725425,-2,0,1,2,0,-1,2,2
1523010143725425,0,22,6,2,4,-3,3,-7
1523010143735452,11,-10,-1,-1,-4,0,2,-3
1523010143735452,-39,-10,-4,-1,1,3,8,-9
1523010143749489,1,-2,1,-4,-5,-6,-11,-6
1523010143749489,-1,2,-3,0,-2,-2,-11,-2
1523010143751495,7,3,-1,1,2,1,8,-1
1523010143751495,8,3,3,1,1,2,3,5
1523010143771548,2,-4,-6,-2,-3,-2,-3,-3
1523010143771548,-6,-6,-4,-3,-2,-3,-1,-1
1523010143773553,8,0,-4,-7,-2,0,10,-1
1523010143773553,4,1,2,6,4,-4,-20,-2
1523010143785585,-7,7,1,0,-2,-1,-13,1
1523010143785585,-11,3,0,-3,-3,0,5,-7
1523010143794610,17,-4,-2,-2,-3,-2,2,1
1523010143794610,-10,8,4,0,-1,5,7,3
1523010143809649,14,-9,-3,-3,-6,-9,7,13
1523010143809649,-14,-12,-5,-6,-4,-4,-14,-25
1523010143811655,-26,2,1,3,3,-5,-10,1
1523010143811655,14,-3,-3,-3,-3,2,7,-5
1523010143831708,9,4,1,0,-1,1,-5,0
1523010143831708,-15,-15,-8,-1,-2,0,8,-8
1523010143833713,7,4,3,-2,-1,-2,-6,-1
1523010143833713,2,5,-4,-1,-1,-8,-14,-8
1523010143845745,0,5,0,-2,2,4,13,0
1523010143845745,14,10,4,1,0,0,7,8
1523010143854769,-4,-2,-1,-4,0,-1,-3,-2
1523010143854769,5,-1,2,0,1,0,-6,-4
1523010143869809,-17,-16,-3,0,-1,-3,1,-4
1523010143869809,3,11,-3,-2,-1,-3,2,4
1523010143870812,33,11,5,2,0,4,3,13
1523010143870812,-44,-11,-5,-4,-1,2,5,-18
1523010143891868,25,17,3,5,0,-4,-35,8
1523010143891868,-19,-16,-2,-1,1,6,24,-3
1523010143893874,-2,4,-2,-1,-4,-8,-11,3
1523010143893874,20,8,-1,1,1,-1,15,10
1523010143905905,7,-1,0,1,0,-1,-3,11
1523010143905905,-3,-2,-2,-2,-3,-5,-16,4
1523010143914929,-8,-1,-1,0,0,5,1,-3
1523010143914929,6,-10,0,0,-2,3,6,10
1523010143928966,-7,-5,-3,0,0,2,7,6
1523010143928966,-5,10,0,2,-1,-3,-3,-10
1523010143935986,-20,-5,2,3,2,-12,-29,1
1523010143935986,3,-7,-5,-4,-1,17,10,10
1523010143952028,-16,-3,-2,-6,-5,-10,3,-12
1523010143952028,7,5,2,0,0,-1,-12,-8
1523010143954034,3,-25,-5,1,3,-4,14,7
1523010143954034,-24,5,-5,-2,-7,-5,-8,-9
1523010143966065,18,-1,2,-2,0,4,-10,8
1523010143966065,-14,4,1,-2,1,0,17,-9
1523010143975089,6,7,3,2,-1,6,5,2
1523010143975089,10,-6,2,1,1,-10,-3,13
1523010143989126,13,4,-3,1,1,4,22,5
1523010143989126,-8,-1,-4,-8,-5,-7,-41,-6
1523010143991132,-6,1,2,0,-1,-13,6,-12
1523010143991132,8,-3,-2,-2,2,19,-2,-1
1523010144012188,14,7,1,3,1,-3,9,13
1523010144012188,-16,-10,-1,-4,-2,-10,-13,-10
1523010144013191,20,6,-4,-2,-1,5,-1,-10
1523010144013191,-13,0,1,-1,0,-9,-6,-9
1523010144025222,6,3,3,4,2,-2,8,1
1523010144025222,28,-1,-2,4,-2,12,10,26
1523010144034247,-4,-6,-2,-3,-3,-2,-4,-13
1523010144034247,-8,0,1,1,-1,-10,4,-10
1523010144049287,0,3,-5,-6,-2,-2,-40,-9
1523010144049287,-5,-4,0,4,3,2,15,-1
1523010144051292,-18,3,2,1,-2,1,1,4
1523010144051292,4,-12,-3,0,-1,-1,-3,-7
1523010144071345,-15,-3,-3,-3,-4,-1,3,4
1523010144071345,10,10,1,-3,-1,-1,-6,-1
1523010144078364,-3,-6,-1,-3,-1,8,4,5
1523010144078364,8,-1,3,1,1,-4,7,10
1523010144085382,-14,-7,-4,-1,-1,-4,-2,-9
1523010144085382,-9,-8,-6,-6,-4,-5,-13,-13
1523010144094407,1,-4,2,-1,-2,12,28,-7
1523010144094407,-19,7,-1,0,1,-6,-6,2
1523010144109446,8,2,-1,-1,-1,8,4,-8
1523010144109446,13,-3,0,3,2,-5,0,7
1523010144111452,20,1,1,-1,2,-8,-9,20
1523010144111452,-18,-3,-4,-2,-3,-3,19,-2
1523010144132508,-9,-7,-1,-2,-1,6,-35,-19
1523010144132508,-12,-6,-4,-1,-2,-17,-13,1
1523010144134513,10,6,0,-4,-3,20,37,4
1523010144134513,22,1,1,3,0,-8,-13,0
1523010144145542,-7,0,-4,-2,2,1,19,12
1523010144145542,-8,-6,-1,0,-3,-2,-12,-31
1523010144154567,-8,-5,0,3,2,-6,-10,6
1523010144154567,-8,-5,-4,-6,-5,-4,-3,-17
1523010144169606,-2,3,-1,1,0,2,9,8
1523010144169606,15,1,1,-2,-4,5,17,13
1523010144171612,-12,-2,-1,0,0,-8,-12,-18
1523010144171612,9,1,0,-1,0,12,3,8
1523010144191665,-12,-8,-1,-3,-4,-12,-8,-13
1523010144191665,3,1,1,0,1,10,5,12
1523010144193671,6,-2,-1,-3,-5,-5,-11,2
1523010144193671,-11,-4,-3,0,-1,-7,-6,1
1523010144205702,-20,4,-3,-2,-3,-3,0,-22
1523010144205702,19,7,1,0,-1,-2,10,21
1523010144214727,-10,0,3,2,1,10,-20,-22
1523010144214727,2,-8,-1,-2,-1,0,0,5
1523010144229766,-11,1,-4,-2,-2,-1,2,-11
1523010144229766,6,2,-1,1,-1,1,8,13
1523010144230770,1,-1,-2,0,2,-6,-4,4
1523010144230770,1,0,-1,-2,-4,-8,-8,5
1523010144259846,11,5,2,2,-2,-6,2,1
1523010144259846,-2,-3,-1,-2,2,15,-4,1
1523010144260850,16,4,0,-1,0,13,12,14
1523010144260850,5,1,-2,1,1,0,-1,-1
1523010144265862,-10,-5,-4,-3,-2,1,0,-7
1523010144265862,-21,0,0,-1,0,-11,-5,-4
1523010144274887,-26,-5,-3,-3,-2,-5,-9,-17
1523010144274887,15,5,2,1,-1,-6,7,10
1523010144289926,24,1,1,0,1,19,5,19
1523010144289926,-1,-3,-1,1,-1,-3,1,-22
1523010144291932,-7,-2,3,0,1,-5,-7,2
1523010144291932,9,3,-1,1,0,3,7,19
1523010144311985,-7,-1,-1,-2,-4,-12,-12,-22
1523010144311985,-8,0,-4,-4,-2,-5,-2,-5
1523010144313991,-17,-9,-3,-3,0,13,4,-5
1523010144313991,5,3,2,0,-2,0,-4,4
1523010144326022,-8,0,2,-2,-1,-1,2,-2
1523010144326022,13,2,-1,0,0,-6,7,24
1523010144335047,-7,-4,-1,-1,-1,-12,-12,-21
1523010144335047,12,0,-3,-2,-2,-4,-8,-12
1523010144349084,-11,-1,-5,-1,1,10,4,-15
1523010144349084,2,-1,0,-1,2,8,-9,-4
1523010144351090,-17,-4,-4,-4,-3,-10,0,1
1523010144351090,-7,-3,2,1,1,4,-1,-1
1523010144372145,15,3,-2,-3,-7,-17,-1,4
1523010144372145,11,3,0,0,0,8,-6,-8
1523010144373148,0,-3,2,2,-1,2,12,11
1523010144373148,-7,0,0,0,-1,-3,-11,-16
1523010144386182,-9,-2,1,2,-3,-19,1,9
1523010144386182,-10,-3,0,-5,2,29,0,-14
1523010144394204,5,1,-3,-1,-1,2,-8,4
1523010144394204,7,-3,1,-1,-2,-7,7,11
1523010144409244,1,0,2,1,1,1,-3,-8
1523010144409244,-21,-5,-2,-2,-3,1,0,-3
1523010144415261,10,0,-2,-4,-2,-6,-1,14
1523010144415261,-6,-2,-2,0,-1,1,-1,-10
1523010144432305,14,2,-2,1,1,4,2,1
1523010144432305,-27,-4,-3,-4,-2,-11,-4,-14
1523010144433308,8,2,-2,1,-4,-10,-12,-1
1523010144433308,1,1,-2,-6,0,7,7,5
1523010144454364,1,0,2,2,-3,-1,7,2
1523010144454364,13,4,-1,-2,-1,4,3,4
1523010144456369,-16,-5,-3,-9,-5,-5,1,-10
1523010144456369,-18,-2,0,-11,-4,-35,-7,-18
1523010144468401,4,-3,2,38,15,46,4,13
1523010144468401,13,5,-3,-10,-5,3,21,22
1523010144475420,0,0,0,-3,3,-21,0,-2
1523010144475420,14,-3,-4,10,1,10,0,6
1523010144491463,-12,-21,-6,-13,1,-11,-5,-12
1523010144491463,-9,17,7,11,1,-19,-3,11
1523010144499484,-5,11,2,-2,1,20,-7,-32
1523010144499484,-19,-12,-3,-13,-7,-6,-2,0
1523010144505500,11,7,-1,-13,-4,1,-2,7
1523010144505500,14,-18,-11,-2,-3,-3,4,7
1523010144514524,-22,0,6,-9,-5,-7,0,5
1523010144514524,12,7,4,9,4,4,-4,-8
1523010144536582,13,-9,-4,-3,-8,-15,-11,-1
1523010144536582,18,1,-3,-4,-1,13,3,7
1523010144538588,16,13,4,10,3,3,6,21
1523010144538588,-32,-12,-6,-1,2,14,2,-35
1523010144551623,-11,0,1,-6,4,-23,-5,-3
1523010144551623,7,-3,-3,0,-4,-14,-12,-7
1523010144553628,-4,-11,-2,2,-3,11,6,-16
1523010144553628,18,3,-1,3,0,-7,3,24
1523010144574684,-21,-5,1,-8,-3,7,0,-23
1523010144574684,-14,-7,-2,-1,0,-12,-2,-9
1523010144575687,21,5,2,1,1,-5,3,16
1523010144575687,17,9,5,1,2,2,13,8
1523010144588721,-21,-6,-3,0,-6,13,-2,-5
1523010144588721,7,4,-1,2,4,-2,5,1
1523010144595740,4,-9,-7,-3,-5,-7,-13,-9
1523010144595740,7,-1,-3,-3,-6,7,-4,-4
1523010144611783,-1,3,2,2,2,-4,1,15
1523010144611783,0,9,6,5,2,2,-5,-1
1523010144613788,1,-7,-6,-3,-1,-8,23,21
1523010144613788,0,6,1,-5,-2,-6,-21,-11
1523010144634844,-17,-10,-2,-1,-2,15,0,-6
1523010144634844,-6,-2,-4,0,-1,0,15,0
1523010144635847,-6,-9,0,3,3,-1,-22,-8
1523010144635847,-1,-3,1,4,0,5,5,2
1523010144648881,17,12,5,-1,-2,-2,8,19
1523010144648881,-8,-12,-1,-1,3,-8,-15,4
1523010144655900,20,1,-4,-4,-2,13,10,-14
1523010144655900,-20,-2,0,0,1,1,2,1
1523010144671942,4,7,-1,1,-3,-13,-32,-6
1523010144671942,1,0,0,-1,-4,-4,-6,-4
1523010144673948,-5,-2,1,2,1,-4,5,5
1523010144673948,11,-4,0,-3,2,8,0,5
1523010144695004,-5,0,-2,-2,3,-2,2,-13
1523010144695004,-1,0,1,-2,-5,-4,-9,1
1523010144697009,-9,3,0,2,0,0,-3,6
1523010144697009,-8,0,-3,-1,-4,1,5,3
1523010144709041,20,-1,-3,-2,-3,-1,20,9
1523010144709041,-11,3,-1,-1,4,-12,-24,-12
1523010144716060,-3,3,1,6,4,7,-7,-4
1523010144716060,15,6,1,-3,0,-5,11,8
1523010144732102,11,3,3,2,-4,1,0,13
1523010144732102,3,0,-2,-4,-5,-10,-12,-5
1523010144734108,8,-8,0,3,2,5,27,21
1523010144734108,-21,-12,-4,-2,-1,2,-5,-20
1523010144754161,-6,2,-1,-4,-3,-6,2,-3
1523010144754161,-4,-4,0,-1,-3,0,1,2
1523010144756167,-5,8,6,-1,1,-5,-21,-9
1523010144756167,15,4,-1,-1,0,1,7,-2
1523010144777226,4,-1,0,-1,0,1,-1,4
1523010144777226,6,-5,-3,1,1,8,5,2
1523010144778227,-14,-14,-5,-4,-2,-12,-4,-2
1523010144778227,-13,7,0,-3,-7,-3,-9,-3
1523010144792262,-9,2,-1,0,1,-4,5,-11
1523010144792262,6,0,-5,-1,1,9,-6,-1
1523010144798278,7,0,-2,-2,-3,-3,-3,-4
1523010144798278,18,-6,3,2,5,-2,-12,11
1523010144814322,-25,-9,-2,1,1,-2,1,-14
1523010144814322,3,15,1,-5,-4,0,10,-4
1523010144816326,-6,1,-2,2,2,-3,-4,-2
1523010144816326,1,2,-1,-4,-4,1,-6,4
1523010144828358,1,3,-1,-2,0,-6,-10,4
1523010144828358,5,-2,-1,3,-3,10,30,-3
1523010144837383,3,-1,0,-4,-6,-4,-4,6
1523010144837383,-3,-1,-2,0,0,-3,1,-1
1523010144852422,8,2,-1,-2,0,3,-4,4
1523010144852422,-21,4,-1,-2,2,-6,-3,-7
1523010144853425,21,14,-3,1,-1,-4,-2,10
1523010144853425,-12,-17,-1,1,1,10,6,-5
1523010144874481,-21,-8,-1,-2,-11,-10,-9,-3
1523010144874481,11,1,-3,0,17,-1,-4,4
1523010144876487,-6,-1,1,-4,-18,-4,3,0
1523010144876487,-4,8,-1,-1,-2,-3,-11,-9
1523010144888518,7,-17,-3,13,31,10,8,18
1523010144888518,-3,4,0,-6,-10,0,0,-3
1523010144897543,21,1,-1,6,14,-6,-11,-6
1523010144897543,-17,-8,1,2,3,6,10,1
1523010144911580,-8,1,0,-7,-14,-3,-4,-3
1523010144911580,-6,2,-1,6,3,0,0,-6
1523010144913585,5,-3,-6,-9,-12,-6,-7,2
1523010144913585,1,-15,-9,-6,-1,-6,-10,-7
1523010144934641,4,8,4,5,10,-4,-4,-2
1523010144934641,1,5,6,3,-4,5,10,7
1523010144936646,-31,-12,-5,-4,-7,-9,-8,-8
1523010144936646,16,12,0,-2,-2,-2,4,-2
1523010144948678,-4,-6,-3,-4,3,1,6,3
1523010144948678,3,0,-1,-3,-8,-6,-16,-7
1523010144957703,4,15,3,-1,-5,9,-7,-4
1523010144957703,5,-12,2,2,10,-3,17,17
1523010144971740,-27,-1,-2,-10,-7,-6,-8,-9
1523010144971740,20,1,-1,9,-2,5,-2,12
1523010144973745,-14,-22,-5,-6,-1,7,30,1
1523010144973745,-25,3,4,8,8,-5,-17,-23
1523010144994801,21,11,-3,-5,-8,13,13,-1
1523010144994801,-11,7,3,-8,-12,-15,-25,-2
1523010144995804,2,-2,-3,4,16,7,2,-5
1523010144995804,0,-12,-1,-2,-4,-5,-5,10
1523010145007836,7,23,5,5,-3,3,13,6
1523010145007836,-9,-24,-10,-5,-2,-3,-17,-8
1523010145016860,9,2,-1,-2,-7,-4,-22,0
1523010145016860,-8,7,3,2,-1,-4,-2,-4
1523010145031900,2,-8,-4,2,2,5,28,-4
1523010145031900,8,2,-4,-5,-1,-12,-23,-2
1523010145033905,-6,-4,5,2,3,4,19,7
1523010145033905,13,-4,-4,-1,-3,-3,-1,5
1523010145054961,-6,3,-1,-6,-7,-4,-22,2
1523010145054961,-7,14,2,0,2,-3,21,-10
1523010145055964,15,-3,-2,-2,1,10,12,18
1523010145055964,-20,0,-4,-3,-5,-3,-10,-17
1523010145067996,2,0,-4,0,-2,-4,-5,-6
1523010145067996,12,-12,-5,-6,-3,7,12,4
1523010145077020,-2,14,4,1,2,-10,-11,2
1523010145077020,-6,0,1,7,0,5,-1,-11
1523010145092060,-5,-3,-4,1,-3,3,-8,-2
1523010145092060,-3,-3,-5,-2,5,11,4,-10
1523010145094065,-3,1,2,7,1,-6,-13,2
1523010145094065,14,-3,-3,0,-2,-2,3,6
1523010145114118,-8,-7,-2,-3,-2,-14,4,8
1523010145114118,2,0,-2,-9,-4,2,-7,-13
1523010145116124,-17,-5,-4,-7,-3,-20,-11,-31
1523010145116124,4,5,0,-1,2,29,8,11
1523010145128156,9,-1,-1,-3,-3,-8,-17,-3
1523010145128156,-16,-12,-1,1,1,-3,14,8
1523010145137180,4,0,-1,-4,-3,0,-4,-8
1523010145137180,9,5,1,-3,-1,-9,-2,13
1523010145151217,18,10,1,4,-4,-12,-3,-9
1523010145151217,-15,-7,2,2,5,9,6,-13
1523010145158236,7,-4,-2,0,2,-6,2,16
1523010145158236,-13,-4,-5,-3,-2,-2,2,-12
1523010145174278,17,4,-1,-6,0,8,-9,17
1523010145174278,9,-4,2,1,-1,-5,1,8
1523010145176284,8,0,-1,0,-1,2,4,-4
1523010145176284,-15,2,1,-10,-6,-13,-12,8
1523010145188316,0,-6,-2,13,6,13,19,-2
1523010145188316,-8,-3,-1,-1,-3,-15,-14,-6
1523010145197340,4,-10,0,-2,1,29,16,3
1523010145197340,29,4,-1,-3,-9,-13,3,-3
1523010145212380,-34,-7,-4,-10,3,6,-5,-10
1523010145212380,3,-1,2,3,2,-5,6,4
1523010145213383,-7,1,1,-5,3,-3,-3,-6
1523010145213383,-19,-6,-1,-3,-3,-7,-2,-5
1523010145235441,35,10,0,4,3,2,2,6
1523010145235441,22,6,2,0,2,-5,5,17
1523010145236444,-26,-5,-4,7,-4,-8,-4,-10
1523010145236444,4,-6,1,-12,-2,5,-1,18
1523010145248476,-11,-11,-2,27,7,-7,-3,-15
1523010145248476,-14,-24,-5,1,-5,5,-7,-10
1523010145257500,-2,15,3,-15,-13,-4,-2,-7
1523010145257500,45,25,1,-25,12,-2,-1,4
1523010145271537,-74,-32,-7,27,-1,0,2,-4
1523010145271537,16,4,2,0,3,-1,-5,-1
1523010145278556,-10,-16,-6,6,-5,6,7,-9
1523010145278556,-6,-12,-1,4,4,-3,-5,-16
1523010145294599,28,15,3,-9,8,-18,6,34
1523010145294599,-1,-10,-5,1,7,14,-1,-19
1523010145296604,-23,-3,1,6,-1,17,-10,-11
1523010145296604,23,20,5,8,-1,2,7,-3
1523010145308636,28,5,1,-3,-15,3,-3,-4
1523010145308636,-76,-16,-3,-11,-1,-9,12,8
1523010145317660,29,4,3,2,9,-8,-6,5
1523010145317660,-35,-23,-7,2,-8,8,7,-6
1523010145331697,25,11,1,-7,-1,4,3,23
1523010145331697,12,9,0,-3,-11,-15,-13,-28
1523010145333702,-18,-15,-3,-3,4,9,-3,-7
1523010145333702,-10,-2,2,15,2,-5,-1,-12
1523010145354759,-8,4,1,-22,-11,4,2,1
1523010145354759,36,5,-2,-6,8,2,15,23
1523010145355761,-28,-7,1,38,10,1,-4,-11
1523010145355761,6,2,-2,0,-2,-7,-5,7
1523010145367793,-13,-2,-4,-14,-6,2,-6,-11
1523010145367793,6,12,3,-2,-4,6,10,20
1523010145376817,-2,-9,1,-3,-4,-18,-15,-22
1523010145376817,-5,-3,-3,-2,-1,21,4,12
1523010145391857,26,0,2,0,-2,-21,-4,2
1523010145391857,-3,2,1,10,-6,9,-4,9
1523010145397873,1,3,1,-12,-4,-7,12,30
1523010145397873,-8,7,-1,4,2,3,1,-2
1523010145414919,1,1,-1,-15,-4,12,-15,-20
1523010145414919,-2,-17,-1,15,-1,5,4,10
1523010145415921,18,12,2,9,1,3,3,14
1523010145415921,-9,2,1,-2,-3,-7,-8,-13
1523010145427953,-4,5,1,0,0,-4,-4,-8
1523010145427953,-8,-2,-2,-8,-5,6,-10,-2
1523010145436977,28,1,-2,-20,2,15,14,29
1523010145436977,-23,-13,-5,9,-4,3,-1,-15
1523010145451015,-19,0,-3,-2,-1,-20,-3,-1
1523010145451015,7,5,-1,5,4,3,2,-10
1523010145458033,10,4,-1,-6,-1,-10,-4,7
1523010145458033,22,3,-1,-4,1,-2,2,18
1523010145475078,-6,-2,-2,-3,-1,-6,-2,-1
1523010145475078,0,2,-3,-8,-8,8,-8,-17
1523010145476082,9,-4,0,-1,0,-10,-7,9
1523010145476082,5,-2,2,4,2,-2,9,1
1523010145497137,3,0,-2,-7,-3,-3,-9,-10
1523010145497137,-1,1,1,0,0,0,4,12
1523010145499143,-20,4,-5,-15,-7,5,1,-9
1523010145499143,1,-5,2,28,9,3,-5,-5
1523010145512177,-3,-1,-1,-1,2,5,13,5
1523010145512177,1,2,0,6,-1,-24,-10,-6
1523010145518193,6,-2,-1,-11,-7,24,3,2
1523010145518193,-30,-11,-7,-33,-14,-5,0,3
1523010145534236,-6,5,3,28,-1,2,-4,-7
1523010145534236,21,2,5,2,1,-5,2,11
1523010145536241,5,-7,-3,-1,8,-5,-5,-9
1523010145536241,-9,0,-3,-11,-11,0,-12,-25
1523010145557297,13,-5,0,0,13,17,3,-5
1523010145557297,-29,-2,-4,-8,-1,-11,-11,-15
1523010145558300,7,6,2,23,-4,-6,6,14
1523010145558300,8,-1,-2,-11,-2,8,3,5
1523010145571334,14,5,-2,-15,-1,-13,-4,0
1523010145571334,1,-8,-3,5,4,2,5,16
1523010145578353,3,-3,-3,-18,-7,6,-2,-21
1523010145578353,6,1,5,22,8,-2,-8,3
1523010145594396,-22,0,1,-2,-4,-7,0,4
1523010145594396,9,3,-1,-2,-1,-7,5,6
1523010145596401,7,1,0,-4,-1,4,-9,-7
1523010145596401,-14,-4,0,-15,-13,-5,6,2
1523010145617457,-10,-4,-2,19,12,5,-2,-15
1523010145617457,-27,-5,-3,-3,1,6,10,-3
1523010145618460,-2,3,-3,-6,-8,-16,-3,1
1523010145618460,4,-7,-4,-9,3,2,-6,-8
1523010145631494,11,8,1,10,-1,-23,0,19
1523010145631494,1,0,-3,-12,-9,-8,-4,-5
1523010145645531,7,-3,-2,5,-2,6,-1,3
1523010145645531,1,0,3,8,5,4,6,-4
1523010145654556,-2,-7,-2,-4,-11,4,-8,-2
1523010145654556,5,-3,1,10,4,7,1,6
1523010145656561,-13,-2,2,2,-1,-15,-5,-22
1523010145656561,-5,1,-1,-9,1,-7,-5,3
1523010145676614,8,-3,-4,0,-8,16,8,-3
1523010145676614,6,5,0,-1,0,-8,-8,5
1523010145678620,-10,1,-1,-4,2,-18,-5,-8
1523010145678620,10,-7,-2,5,5,-5,1,7
1523010145690652,2,2,1,-6,6,26,-1,0
1523010145690652,-8,-10,0,-2,2,10,9,19
1523010145699676,9,7,2,-1,-1,-3,-4,1
1523010145699676,-15,-4,-1,-6,-8,-15,-5,-10
1523010145714716,10,1,-3,-4,4,-9,3,13
1523010145714716,7,5,4,17,9,7,-3,5
1523010145715719,-43,-16,-6,-1,-7,-6,-1,-8
1523010145715719,4,-1,1,0,3,-4,-14,6
1523010145736774,1,3,-2,-5,-8,-9,1,20
1523010145736774,14,1,-1,-5,-5,7,2,-27
1523010145738780,3,2,0,5,7,12,4,7
1523010145738780,11,4,-1,-1,-5,4,8,7
1523010145750812,-15,-5,-2,-11,-8,-12,-1,-2
1523010145750812,5,7,-3,-4,0,-4,-21,-18
1523010145759836,10,-3,0,-2,16,-11,-8,10
1523010145759836,0,3,3,12,3,23,29,0
1523010145774876,2,2,0,0,-3,5,6,9
1523010145774876,11,2,-2,4,-2,-9,-6,-5
1523010145775878,-1,0,2,-6,3,9,15,7
1523010145775878,9,-3,-2,5,-5,-18,-27,5
1523010145796934,39,6,-2,-2,2,9,24,20
1523010145796934,-30,7,2,-5,-2,-3,-7,-27
1523010145798940,-19,-8,-4,-1,0,-3,1,-7
1523010145798940,1,6,2,0,-2,-6,-6,-7
1523010145810972,15,-6,-3,-2,-10,-2,3,-5
1523010145810972,-21,-6,-5,-7,4,0,-2,-1
1523010145819996,6,9,3,7,-5,-1,-1,-2
1523010145819996,-5,-6,0,-4,-3,-2,3,-10
1523010145835036,-13,-5,-2,0,1,0,-11,-11
1523010145835036,26,5,4,13,28,1,19,7
1523010145836039,-27,-20,-8,-6,-7,-5,-15,-12
1523010145836039,26,11,1,4,-4,3,10,15
1523010145858097,-27,-3,-2,-6,-6,1,-8,-27
1523010145858097,3,3,1,-7,-11,-5,-4,4
1523010145859100,20,-8,-2,4,-1,-4,9,20
1523010145859100,-20,-12,-2,-3,6,10,8,-12
1523010145871132,4,6,2,-1,0,-5,-11,-1
1523010145871132,0,-6,-4,0,-6,7,16,-2
1523010145880156,11,4,2,-2,-5,-5,-9,3
1523010145880156,6,-3,-4,0,-4,2,-10,9
1523010145894193,-8,8,5,3,-1,-3,-2,-13
1523010145894193,7,-14,-5,-2,2,-4,-17,4
1523010145896198,-7,-2,0,-2,-3,3,5,-5
1523010145896198,-28,-4,-3,-2,0,-10,-6,-6
1523010145918257,-8,7,0,2,1,2,12,6
1523010145918257,9,1,-1,-8,-11,-4,-15,7
1523010145919260,5,-5,-2,-2,0,4,-2,-11
1523010145919260,1,-5,0,6,-1,-7,0,-1
1523010145930289,-1,11,-5,-4,-6,-4,-23,-6
1523010145930289,-9,-1,0,-5,-6,6,21,4
1523010145939313,6,-2,2,4,10,0,0,1
1523010145939313,-15,-13,1,-3,2,-2,-6,-4
1523010145954353,17,-7,-2,-1,-2,-4,6,2
1523010145954353,-21,3,-6,-4,-13,-7,-13,-3
1523010145956358,23,24,5,5,2,3,1,4
1523010145956358,3,-8,-1,2,3,2,11,4
1523010145976412,-21,-19,-1,1,-2,-3,-15,-8
1523010145976412,-13,-2,-5,-4,3,2,5,-15
1523010145984433,4,6,3,-2,-8,-5,1,2
1523010145984433,6,8,1,-1,-4,-2,-8,2
1523010145990449,4,-2,4,2,9,0,-3,0
1523010145990449,3,-4,-2,-3,-4,3,32,6
1523010145999473,-12,3,-1,-3,-3,1,-3,-12
1523010145999473,20,5,1,0,4,-4,-1,0
1523010146014513,-21,-9,-4,-2,-7,-5,-9,2
1523010146014513,11,7,3,3,9,1,-7,6
1523010146016518,6,3,-4,-7,-11,-7,-31,-2
1523010146016518,-16,-6,-3,1,-3,8,23,1
1523010146036571,7,0,1,-1,6,4,3,-1
1523010146036571,18,9,3,4,7,-5,9,10
1523010146038577,-11,-12,-1,-3,-3,1,-15,-11
1523010146038577,-30,-12,-6,-4,-3,-4,-4,-8
1523010146050609,7,2,-2,-4,-6,3,8,-5
1523010146050609,-6,-2,1,-2,-7,-11,-49,-3
1523010146059633,18,0,1,0,0,4,33,11
1523010146059633,-14,-8,-4,-4,-8,-8,-15,-9
1523010146081692,4,7,1,1,11,3,7,5
1523010146081692,3,-2,1,-4,-16,-4,1,-1
1523010146083697,-30,-4,-4,0,5,2,-1,-10
1523010146083697,22,0,5,1,5,0,-11,8
1523010146096732,-1,6,-3,-4,-6,2,13,-2
1523010146096732,-2,-9,0,2,2,-6,-12,1
1523010146104753,9,-5,0,-3,-4,5,25,2
1523010146104753,-32,4,-2,-2,-2,0,-6,-13
1523010146110769,-10,-7,-2,1,0,-6,-10,-12
1523010146110769,0,3,-2,-2,-3,1,10,-8
1523010146119794,0,-7,-3,-2,1,-2,-6,3
1523010146119794,22,4,2,0,0,-3,-7,2
1523010146134833,-7,-4,-5,-3,-1,2,13,2
1523010146134833,-25,-6,-3,-1,0,5,2,-12
1523010146135836,6,1,0,3,3,0,6,2
1523010146135836,12,2,2,-2,-1,-4,14,1
1523010146156891,4,0,-1,1,-3,0,-33,-6
1523010146156891,4,0,0,1,8,-2,4,3
1523010146158897,-7,-4,-4,0,-2,-4,-7,0
1523010146158897,10,0,1,0,-1,1,-1,-6
1523010146170929,-18,-13,-6,-5,-3,-5,3,-15
1523010146170929,12,0,0,0,-2,0,1,-2
1523010146179953,2,10,3,0,0,-1,-8,-1
1523010146179953,13,5,-3,-1,-1,-1,8,5
1523010146194993,0,11,3,2,2,-5,-19,4
1523010146194993,-6,-11,-1,-1,-5,-5,-7,-1
1523010146196998,-3,6,3,0,-2,1,-1,4
1523010146196998,16,-2,-3,-5,-1,2,2,11
1523010146217051,4,2,0,-1,0,8,14,-2
1523010146217051,-15,5,0,1,-6,-9,-2,2
1523010146219057,-4,-8,-1,2,2,-2,-13,-2
1523010146219057,0,-3,-1,0,2,-3,12,10
1523010146231089,11,4,-2,-2,-2,1,-13,15
1523010146231089,-31,-4,-3,-3,1,-2,-14,-5
1523010146240113,-5,-6,-1,-2,-3,-3,-8,2
1523010146240113,-4,1,0,-4,-4,-4,-9,4
1523010146254150,26,2,1,1,2,0,10,10
1523010146254150,24,4,2,1,-1,3,6,4
1523010146256156,-18,-3,-4,-13,-11,-18,-10,-7
1523010146256156,-3,5,1,19,27,13,10,-12
1523010146277212,3,-3,-1,-6,-3,1,2,-1
1523010146277212,14,-3,-5,-3,0,4,2,-6
1523010146278214,5,-2,1,-2,-6,-2,1,-13
1523010146278214,10,5,-1,-7,-10,3,4,13
1523010146290246,-39,0,-2,-1,3,-30,-3,-17
1523010146290246,8,-7,0,3,0,26,-5,10
1523010146299270,0,-2,-1,2,1,-6,4,-1
1523010146299270,6,0,-1,-2,-1,-2,-12,8
1523010146314310,-2,0,1,3,2,3,-3,-14
1523010146314310,11,6,1,-4,-6,-8,2,7
1523010146320326,0,-10,0,5,6,6,10,11
1523010146320326,-23,-4,-4,-3,-1,-3,-14,-13
1523010146337371,17,3,-1,-1,-2,5,8,13
1523010146337371,-19,-6,0,-2,-2,-7,5,-12
1523010146338375,28,2,-1,0,6,4,-1,0
1523010146338375,9,0,0,3,-5,0,3,-1
1523010146359430,-9,-7,-1,-5,-2,-9,4,7
1523010146359430,-2,1,-2,-3,0,-6,-6,-5
1523010146361436,-4,-1,-1,-1,-3,7,4,-1
1523010146361436,-2,1,0,-3,-3,-6,-9,-10
1523010146373467,2,5,2,1,-1,3,12,17
1523010146373467,7,-3,-1,-2,3,-21,-10,7
1523010146380486,0,1,0,0,0,33,10,9
1523010146380486,-14,-9,-2,-7,-4,-3,-2,-35
1523010146397531,13,-1,-4,-1,1,3,-3,7
1523010146397531,-1,-3,1,-1,-2,-5,4,1
1523010146398535,-11,4,-1,2,-1,-15,0,17
1523010146398535,-6,-11,-6,-3,-2,11,-6,-14
1523010146410566,-17,-1,-1,0,1,-11,-10,-11
1523010146410566,1,-1,0,1,0,7,2,-12
1523010146419590,-7,-1,0,2,1,-4,2,-2
1523010146419590,-3,5,2,2,-2,-3,1,21
1523010146433627,17,1,0,0,-1,3,4,-2
1523010146433627,-24,-7,0,-2,0,14,1,-4
1523010146440646,11,2,0,4,0,-16,-5,-2
1523010146440646,-29,-3,-2,-10,1,2,-2,-12
1523010146456689,-6,-1,1,11,-5,-3,2,-3
1523010146456689,-10,-5,-2,-5,1,19,3,3
1523010146458694,16,3,1,8,3,0,1,0
1523010146458694,-7,-1,-2,1,-3,-9,-8,-4
1523010146479750,22,7,1,-1,-1,-3,3,22
1523010146479750,-16,-6,-4,-4,-3,-5,0,-33
1523010146480753,-12,2,-2,-5,-8,-21,-8,-11
1523010146480753,13,0,0,0,-1,25,4,15
1523010146493788,-3,0,-3,-3,-1,-2,-7,-1
1523010146493788,-3,0,1,1,0,-7,-1,4
1523010146500806,10,-1,-2,-4,-1,-2,2,0
1523010146500806,-7,-2,2,5,1,-4,-5,-7
1523010146516849,-18,-4,-2,-4,1,6,1,2
1523010146516849,7,-3,2,5,0,1,-1,-5
1523010146518854,5,-4,-3,-5,-4,-7,-5,-7
1523010146518854,15,5,-2,0,-1,-1,10,23
1523010146539910,-11,-1,2,5,0,3,-9,-14
1523010146539910,-5,-6,-2,0,-2,-1,-1,0
1523010146540913,-11,-2,-2,-3,-1,-5,4,-2
1523010146540913,-5,4,2,4,-1,-17,-2,3
1523010146552945,-15,-15,-9,-7,-5,28,-1,-15
1523010146552945,22,3,1,-1,1,-5,0,11
1523010146561969,-9,-1,2,1,2,2,-5,-5
1523010146561969,4,-1,-1,-5,0,-2,-3,-7
1523010146577009,15,6,2,7,-2,-13,-2,-2
1523010146577009,-44,-14,-5,-7,-5,1,-2,2
1523010146579015,18,1,-1,2,8,11,4,18
1523010146579015,-6,-1,0,2,-4,-10,-3,-21
1523010146600070,-19,-6,-2,-4,2,5,-4,-5
1523010146600070,24,3,0,2,1,13,4,8
1523010146601073,-14,-3,0,-4,-5,-12,-4,-3
1523010146601073,16,1,-1,-2,-3,5,9,25
1523010146614108,-24,-3,-4,-4,-2,-14,-6,-28
1523010146614108,1,1,0,3,0,-7,-6,1
1523010146621126,-7,1,-1,-1,-1,8,-4,-9
1523010146621126,11,-1,-2,-1,-3,-6,-2,-3
1523010146637169,20,10,1,-2,1,6,6,7
1523010146637169,-20,-5,0,0,0,-5,2,-1
1523010146639175,11,-2,-3,-2,-2,4,2,11
1523010146639175,6,-1,-2,-3,0,1,-13,-10
1523010146659227,-12,-1,-2,-3,-4,-7,3,-3
1523010146659227,6,7,3,4,1,-7,6,8
1523010146665243,-11,-5,1,2,-3,-8,-5,-9
1523010146665243,3,-1,-3,-2,0,9,-3,-8
