timestamp,emg1,emg2,emg3,emg4,emg5,emg6,emg7,emg8
1523010153294874,7,-3,-2,0,0,12,25,9
1523010153294874,9,-10,3,-2,0,4,0,8
1523010153295877,-4,8,0,0,0,-4,-3,17
1523010153295877,4,5,-4,-2,-3,-10,3,53
1523010153296880,-3,-2,-3,-1,-7,0,-20,46
1523010153296880,-4,-15,3,1,4,2,14,26
1523010153297882,1,7,-2,0,1,-10,-2,22
1523010153297882,-6,-4,-1,-3,-4,-8,6,-10
1523010153298885,-5,-8,2,-5,-15,20,-44,-29
1523010153298885,9,0,7,8,32,12,19,-29
1523010153310917,-14,-10,-12,4,1,3,1,-49
1523010153310917,6,6,-2,-3,4,-7,10,-43
1523010153321946,4,2,-1,-5,-4,-12,-2,-30
1523010153321946,-2,-8,5,-3,-7,0,-9,-24
1523010153325964,-1,5,3,1,-4,-6,-6,-9
1523010153325964,-4,3,-4,-1,-3,4,-4,-4
1523010153342005,0,-4,0,0,2,7,20,-5
1523010153342005,-6,-7,-1,-4,-13,-8,-2,-3
1523010153357040,7,16,-2,1,7,-6,-4,4
1523010153357040,5,0,-3,0,-11,3,-11,-2
1523010153357040,-6,-10,3,4,11,13,14,-2
1523010153357040,-3,3,2,2,-8,-18,-13,-1
1523010153403162,1,6,-3,2,15,-21,-11,-1
1523010153403162,-7,-13,0,-1,14,18,-8,-5
1523010153404165,-9,-17,4,-1,-4,4,2,-3
1523010153404165,3,15,2,3,-6,-7,-16,-2
1523010153409179,3,-3,-12,-8,-12,18,32,7
1523010153409179,-1,0,1,1,-3,-11,-1,3
1523010153411184,1,-2,3,-3,-1,-5,-10,3
1523010153411184,-4,-4,-4,2,0,0,4,3
1523010153416197,2,7,-1,0,2,-10,-23,0
1523010153416197,-2,-1,-2,-4,-5,8,11,2
1523010153425221,-3,-8,5,3,2,14,7,-2
1523010153425221,0,-4,-6,-3,0,-12,-1,2
1523010153431237,-3,3,-6,-4,-4,7,-9,-1
1523010153431237,0,-4,-2,2,10,-5,-6,-1
1523010153447280,-3,-3,7,-1,-5,-1,12,-3
1523010153447280,5,6,-6,-2,0,3,2,4
1523010153453296,-3,-2,-1,-3,-11,-12,-6,1
1523010153453296,1,2,0,-3,3,8,1,-2
1523010153476357,-4,-9,1,5,19,4,-6,-4
1523010153476357,-4,0,0,-1,-3,2,10,0
1523010153477360,-2,-6,-3,0,2,8,3,6
1523010153477360,2,5,3,-3,-14,-12,-3,1
1523010153491397,6,-8,-3,-2,-5,-6,-3,-1
1523010153491397,-4,-2,-3,-4,-3,-1,-7,-8
1523010153492400,-5,-1,1,0,2,10,9,-6
1523010153492400,1,-1,1,1,-4,-6,-3,0
1523010153514458,1,1,-1,-2,1,-1,-1,0
1523010153514458,-5,0,-3,-1,0,-7,-8,-6
1523010153514458,0,4,-2,1,-2,-11,-5,-3
1523010153514458,-3,-1,2,1,2,5,-2,-2
1523010153536517,-6,-23,-6,-3,-3,1,3,2
1523010153536517,4,12,1,-1,0,12,15,8
1523010153537520,-2,-2,3,1,4,-4,-1,-1
1523010153537520,-6,-6,-1,-3,-9,-8,10,0
1523010153551557,0,-1,-1,0,-5,-13,-27,3
1523010153551557,2,5,4,3,1,4,-2,-3
1523010153552560,-4,-13,1,0,7,-3,11,4
1523010153552560,6,9,-6,-3,-3,5,-6,-1
1523010153573616,3,4,-4,-5,-3,1,16,2
1523010153573616,-5,-10,-2,2,7,-2,-5,-5
1523010153574618,9,16,2,-2,-8,-13,-12,0
1523010153574618,-12,-14,-2,-2,-2,1,-10,-8
1523010153596677,1,-2,1,-2,-3,8,15,0
1523010153596677,-3,2,0,1,-1,2,1,3
1523010153597680,-1,0,-1,1,3,-2,-4,-4
1523010153597680,3,-5,-2,-4,-4,-12,-6,-2
1523010153611717,-8,0,-1,-2,-3,-15,-6,-6
1523010153611717,1,0,0,-1,-2,10,2,3
1523010153612720,5,8,2,-2,0,5,1,5
1523010153612720,9,10,-3,1,0,3,2,14
1523010153633776,-4,-3,1,0,-2,0,-15,8
1523010153633776,-4,-4,0,-3,-3,-9,17,10
1523010153634778,-7,-9,-3,-1,-1,2,-20,2
1523010153634778,5,3,1,-1,-1,-11,1,5
1523010153656837,-3,11,2,0,0,1,2,1
1523010153656837,1,-13,-10,-6,-10,1,-24,3
1523010153656837,-10,-7,3,4,2,1,14,-4
1523010153656837,2,1,0,0,-4,-1,5,-3
1523010153671877,1,6,4,1,5,7,-10,-2
1523010153671877,-2,-2,-3,0,-2,-4,-3,-2
1523010153671877,11,9,0,-4,-7,-1,-1,5
1523010153671877,-6,-9,1,3,15,18,0,6
1523010153693936,-2,-10,-7,0,-4,-10,10,8
1523010153693936,-2,7,4,3,3,-9,-5,4
1523010153694938,7,-8,-2,-2,-5,-15,5,14
1523010153694938,4,6,-2,-3,-2,18,-13,12
1523010153715994,-8,-7,1,-2,3,-1,1,11
1523010153715994,2,3,-4,-4,1,0,4,10
1523010153716997,0,3,-1,-1,-3,-14,-13,-2
1523010153716997,8,4,-2,0,-6,-4,12,-2
1523010153731034,3,6,3,1,5,-9,-10,-22
1523010153731034,-33,-25,-6,-3,-2,12,13,-23
1523010153732037,8,9,1,4,2,12,6,-25
1523010153732037,9,-4,-2,-3,-1,-4,2,-24
1523010153754096,8,5,-2,-4,-8,-8,-21,-21
1523010153754096,-1,-2,2,-1,4,5,4,-20
1523010153755098,-2,-3,-4,-2,2,4,0,-7
1523010153755098,3,0,-1,-10,-5,-2,1,-4
1523010153776154,-5,-6,-4,7,1,-12,4,1
1523010153776154,12,4,2,-2,-1,12,2,3
1523010153777157,-13,-5,-2,0,2,-5,2,-2
1523010153777157,0,-10,0,4,9,2,-4,4
1523010153791194,-2,5,-2,-8,-7,0,9,1
1523010153791194,1,0,0,-2,0,5,-9,1
1523010153792197,0,-9,-3,0,-1,-2,0,6
1523010153792197,-9,2,0,-3,-10,-25,-7,-3
1523010153814255,-7,-3,-2,2,1,15,6,5
1523010153814255,9,4,2,-2,1,-12,-2,7
1523010153815258,2,-4,0,-3,-1,14,4,-2
1523010153815258,-21,-2,2,5,-4,-15,-16,-6
1523010153836314,17,4,-1,4,10,9,4,6
1523010153836314,-5,1,3,0,1,-8,-6,-3
1523010153837317,-3,2,3,1,-2,4,1,-7
1523010153837317,1,-5,-8,-3,-1,2,1,0
1523010153852358,-10,3,3,-1,-2,-9,0,-3
1523010153852358,0,0,-1,-1,-5,-7,0,2
1523010153858373,-6,-8,-2,-3,3,7,1,2
1523010153858373,-1,-2,0,-1,1,-4,3,-1
1523010153874415,-4,-2,-3,2,0,19,-3,-5
1523010153874415,13,4,1,1,-1,-4,-2,1
1523010153874415,-9,-9,-1,-1,-2,0,0,1
1523010153874415,3,4,2,1,-1,-8,1,0
1523010153896475,4,-3,-1,-4,-3,-3,0,5
1523010153896475,-8,-3,1,3,2,2,-5,-5
1523010153897477,-2,-4,-5,-1,-10,-14,1,1
1523010153897477,7,-2,-1,0,2,13,8,3
1523010153910511,-4,-4,-3,-2,0,-4,1,-8
1523010153910511,-8,-4,-1,-1,-2,-2,-9,-3
1523010153918533,-4,4,4,0,-9,-17,-7,-4
1523010153918533,2,-4,-3,0,6,7,-3,-3
1523010153933573,3,0,-2,1,12,11,11,11
1523010153933573,10,0,1,-2,-7,-10,1,3
1523010153934575,-1,-2,0,1,0,8,0,-3
1523010153934575,-2,4,1,0,-7,-8,-1,-4
1523010153956634,-23,-6,-1,1,-5,-10,-7,-11
1523010153956634,1,-1,-5,0,1,1,1,-5
1523010153957638,13,1,0,-1,3,-5,-4,5
1523010153957638,-7,-7,-1,-5,-9,-6,2,-1
1523010153970671,17,9,4,-8,3,31,4,6
1523010153970671,0,-5,-1,14,6,-3,1,1
1523010153978693,-5,-3,2,14,1,5,-2,-2
1523010153978693,2,1,-2,0,2,-7,-3,-4
1523010153993733,8,3,-3,-5,-8,-13,-8,0
1523010153993733,-5,0,1,-9,-7,1,0,1
1523010153994735,-13,-8,-3,-7,-2,4,2,-4
1523010153994735,-1,-1,-1,6,5,3,2,1
1523010154016794,-3,-3,-2,-2,-7,-14,-1,1
1523010154016794,12,5,1,-2,-3,-3,-2,-1
1523010154017797,-15,-8,-1,-3,2,4,-2,0
1523010154017797,0,0,1,-2,-3,3,4,10
1523010154030831,13,0,-5,-3,-3,-1,-6,-10
1523010154030831,-4,-1,-1,-1,1,-1,5,4
1523010154046874,4,0,2,-1,1,1,-10,-2
1523010154046874,-7,-1,0,-2,-4,-6,4,-3
1523010154053893,6,3,-1,5,3,6,2,1
1523010154053893,-17,-6,-5,-4,-7,4,-6,1
1523010154054895,-5,5,-1,2,7,10,5,-3
1523010154054895,9,1,3,1,13,10,-3,-3
1523010154076954,6,-2,0,3,-5,-19,2,3
1523010154076954,6,5,0,-10,0,-6,-7,-6
1523010154077957,-6,-2,1,-5,-9,0,-2,1
1523010154077957,-16,-6,-3,8,4,-5,-1,-9
1523010154090991,0,-2,3,1,1,-1,-10,-4
1523010154090991,-22,-7,-2,2,1,-9,-2,-1
1523010154098010,27,2,-1,-8,-7,-1,11,5
1523010154098010,15,6,-3,-6,-4,2,2,2
1523010154122074,-18,-5,-2,-3,0,-1,3,-2
1523010154122074,3,-1,-1,3,-2,2,3,-1
1523010154123077,-5,-1,-1,-3,2,-6,-12,-5
1523010154123077,-7,-7,-1,-4,-7,-3,-4,-2
1523010154136112,2,2,-1,-3,-2,17,1,-6
1523010154136112,-9,-6,-3,6,7,-9,-3,-2
1523010154137114,7,4,2,0,-2,6,3,0
1523010154137114,-3,-4,0,4,1,6,10,3
1523010154151151,-7,1,1,6,1,-2,-2,-1
1523010154151151,-2,-6,-5,-6,-1,0,-6,-3
1523010154166191,9,4,-2,-8,-9,-11,-4,-6
1523010154166191,-3,-2,0,3,-1,-4,-1,3
1523010154174213,-1,-5,0,-3,-1,-5,-11,-3
1523010154174213,16,10,1,2,4,14,14,1
1523010154175216,-15,-7,-3,2,3,0,-4,-1
1523010154175216,-3,1,-2,-6,-3,-9,-5,-2
1523010154196271,-8,-4,-1,-2,-3,-2,7,-1
1523010154196271,14,0,0,-4,-4,-6,1,-1
1523010154197274,-2,-1,-3,-7,-3,-13,-18,-2
1523010154197274,-2,-5,1,5,10,17,16,-2
1523010154211311,-5,-7,-2,0,0,3,-13,-4
1523010154211311,-1,2,-2,-3,-2,-1,1,0
1523010154218331,7,2,-2,1,-1,-4,3,2
1523010154218331,1,2,0,-4,-10,-12,-13,-6
1523010154234373,-13,-11,-4,0,4,1,8,5
1523010154234373,1,1,1,-4,-6,-8,0,0
1523010154234373,-6,-7,-1,3,5,17,8,-1
1523010154234373,17,11,0,4,2,-6,-21,3
1523010154256447,1,1,3,-2,-3,4,10,-4
1523010154256447,3,-4,-3,0,-2,5,-5,-1
1523010154257435,-3,-1,1,1,0,-7,6,-3
1523010154257435,-6,-4,-1,-9,-3,6,4,-7
1523010154287514,4,7,3,2,-3,-11,-3,-10
1523010154287514,-12,-9,-1,-2,-2,-7,-7,-23
1523010154287514,1,0,0,9,9,22,2,-13
1523010154287514,2,-1,-1,-8,-23,-13,-6,-9
1523010154293530,0,-2,-5,7,32,2,5,0
1523010154293530,1,1,3,4,1,6,5,10
1523010154294533,1,-2,-2,-2,1,-6,-1,8
1523010154294533,-6,-6,1,1,-5,1,-3,5
1523010154317594,-7,-3,2,-9,-14,-10,-4,8
1523010154317594,-6,-8,-4,0,-3,-1,5,23
1523010154317594,36,25,1,-2,2,16,3,23
1523010154317594,-21,-19,-10,-6,-2,-4,-7,10
1523010154338650,7,5,-1,-1,-9,-4,-3,9
1523010154338650,-4,1,2,4,6,-2,-2,-5
1523010154339653,-8,-5,0,0,-7,-7,8,-4
1523010154339653,1,1,1,-1,-1,-2,-4,-12
1523010154353690,-6,-7,-3,-3,3,5,18,-16
1523010154353690,3,3,-2,0,-5,-10,-25,-6
1523010154354693,-4,-5,0,2,4,-3,-3,-4
1523010154354693,8,2,0,-3,6,5,6,10
1523010154376751,-4,-1,2,1,-8,4,10,16
1523010154376751,1,3,3,-1,-7,-10,6,20
1523010154377754,1,-8,-7,-5,0,5,2,50
1523010154377754,-4,-2,1,-2,0,-7,-8,49
1523010154398810,5,1,1,-2,-7,-4,-9,43
1523010154398810,5,9,0,-4,-3,2,3,37
1523010154399813,-10,-6,2,2,2,-16,-12,16
1523010154399813,-5,-9,-1,2,0,17,19,0
1523010154429893,3,-1,-1,-1,1,4,-13,-23
1523010154429893,-2,4,-1,-3,3,5,4,-46
1523010154430896,-10,-4,0,-2,-4,-9,-6,-55
1523010154430896,2,5,4,11,28,3,0,-42
1523010154435909,-9,-16,-2,-2,-15,-7,-5,-37
1523010154435909,12,20,-3,2,8,7,4,-26
1523010154443930,0,-2,0,-7,-12,-10,-14,-24
1523010154443930,-3,-2,0,-4,-9,-3,5,-12
1523010154458970,4,4,2,3,0,0,-5,-8
1523010154458970,-7,-6,-2,-3,-1,3,0,-6
1523010154459973,-7,-9,1,2,3,0,7,-7
1523010154459973,1,-7,-3,1,-3,-2,-3,-6
1523010154482031,4,6,1,-2,0,-5,-9,2
1523010154482031,4,5,-5,-4,-3,-1,4,5
1523010154483034,-7,-3,-1,1,6,10,-2,-4
1523010154483034,-8,-3,2,3,-1,-8,-4,-2
1523010154496069,-3,-6,-1,-2,-1,-1,2,4
1523010154496069,13,9,-1,-5,-3,-10,7,2
1523010154504090,0,0,4,3,-8,8,-6,2
1523010154504090,-8,-6,-3,-2,8,7,21,-6
1523010154519130,6,6,1,3,0,-8,-12,4
1523010154519130,0,-1,1,-2,-1,2,-3,0
1523010154520133,3,7,-2,-2,-5,-9,5,2
1523010154520133,1,-6,0,-5,-11,5,2,3
1523010154542191,0,19,2,0,-2,-5,-3,-4
1523010154542191,-8,-29,-7,-3,11,1,-16,2
1523010154543194,-2,3,-2,-1,-3,-1,5,2
1523010154543194,0,3,1,1,-3,-11,-11,2
1523010154556229,-3,1,-1,-2,-14,-3,4,0
1523010154556229,-8,-10,1,1,4,13,-2,1
1523010154564250,2,1,0,-1,8,1,3,-1
1523010154564250,2,-3,-3,-1,-4,-7,-6,2
1523010154579290,-3,7,-1,0,3,2,5,-1
1523010154579290,8,10,-2,1,-7,-4,-1,3
1523010154579290,-2,-10,1,-1,4,1,-4,1
1523010154579290,-1,3,1,3,4,1,0,4
1523010154602351,-2,-8,-3,-4,-1,-3,1,1
1523010154602351,-1,-1,1,2,-2,2,-5,2
1523010154603354,-5,2,-3,-5,-8,-8,-2,-2
1523010154603354,9,0,2,2,1,6,-3,2
1523010154615386,-2,-12,-2,-1,3,0,0,-3
1523010154615386,-2,10,1,2,-3,-10,-26,-7
1523010154624410,-4,-11,-5,-5,-4,6,22,-1
1523010154624410,0,-5,1,-1,-6,-10,6,2
1523010154639450,5,5,-2,-1,7,14,-4,-2
1523010154639450,-13,-9,0,3,8,0,4,-8
1523010154639450,-1,0,2,0,-2,-8,-11,-6
1523010154639450,3,12,-5,-5,-4,-1,-4,-9
1523010154661508,1,-5,-4,-2,-5,-6,6,-7
1523010154661508,5,4,-4,-4,-5,-2,-6,-6
1523010154662512,-7,-5,-1,2,2,-3,2,-11
1523010154662512,-7,-2,0,-1,0,4,-2,-17
1523010154675546,-5,-5,4,1,0,3,-3,-18
1523010154675546,-2,-1,2,-1,0,-8,5,-22
1523010154683567,5,6,-3,-3,-2,7,-1,-8
1523010154683567,0,-7,-1,-2,1,1,2,-7
1523010154698607,4,5,-3,0,-3,-6,-6,0
1523010154698607,-4,-5,-2,-4,-10,8,10,0
1523010154699610,-6,-17,-2,-3,7,-12,-2,0
1523010154699610,-7,-3,0,1,-5,4,-8,16
1523010154721669,19,19,3,1,5,3,-2,24
1523010154721669,-6,-10,-7,-6,-8,-6,12,33
1523010154722672,1,4,5,1,-5,-3,-23,13
1523010154722672,2,-2,-9,-9,-4,0,-4,20
1523010154744730,0,-3,3,-2,-1,-5,2,14
1523010154744730,-4,2,2,0,-2,-8,2,17
1523010154745733,10,12,-2,-1,-3,1,0,-1
1523010154745733,-2,-9,5,4,5,-1,-2,9
1523010154758768,-5,-1,-4,-1,0,-8,-2,41
1523010154758768,19,13,0,-1,2,17,-2,48
1523010154759771,-24,-20,-4,-2,2,-7,1,32
1523010154759771,6,7,0,-11,-24,-13,-4,-9
1523010154781829,-7,-4,-5,-4,6,4,0,-41
1523010154781829,2,-7,4,12,18,0,3,-51
1523010154781829,-6,-2,0,7,6,0,1,-36
1523010154781829,0,-4,-3,-3,-2,-2,1,-26
1523010154804890,24,7,-2,-10,-18,0,-5,-13
1523010154804890,-19,-19,-4,-3,-3,-12,11,-3
1523010154805893,11,4,1,-1,-1,40,20,2
1523010154805893,-8,-1,1,5,4,-4,-12,-3
1523010154818927,-6,-3,-3,-2,-1,-5,2,5
1523010154818927,17,5,-2,0,-1,-4,-9,0
1523010154819930,-3,-5,-5,-2,-3,-13,1,5
1523010154819930,-22,-13,-2,-1,4,-2,0,-7
1523010154840986,2,-7,-3,1,0,9,-2,-3
1523010154840986,11,4,3,2,1,-1,-2,-3
1523010154841989,-11,-2,4,-1,-6,-12,-2,6
1523010154841989,2,0,-3,-10,-17,-6,0,-2
1523010154865050,-3,2,1,-5,9,-5,-9,-5
1523010154865050,-7,-8,-2,12,19,30,8,0
1523010154866053,19,8,3,12,3,-20,-16,3
1523010154866053,-5,-6,-3,-7,7,31,11,-1
1523010154879087,5,-1,0,24,-4,-5,16,11
1523010154879087,8,0,1,4,-4,-9,-6,-6
1523010154880091,5,8,-1,-13,1,2,-3,-6
1523010154880091,-19,-2,4,6,8,-13,-10,-2
1523010154901146,13,6,4,-8,-1,-2,-11,-10
1523010154901146,-29,-13,-6,-11,-5,8,3,0
1523010154902149,8,1,0,1,0,-11,-3,-9
1523010154902149,13,10,-1,-2,-7,-3,2,5
1523010154925210,-13,0,3,0,0,-3,2,-3
1523010154925210,-9,-5,4,7,7,-14,-15,-5
1523010154925210,-6,2,4,0,-7,18,6,-8
1523010154925210,8,-2,-8,-18,6,9,9,4
1523010154939247,-15,-6,-2,43,6,8,-7,-9
1523010154939247,7,3,1,-4,-19,-21,-11,-15
1523010154946266,3,2,-2,-23,-4,-8,2,2
1523010154946266,12,10,9,9,4,13,-1,8
1523010154961306,-13,-14,-8,0,6,11,10,0
1523010154961306,-16,-8,0,2,1,-15,-6,2
1523010154962309,6,4,-1,7,-4,2,-4,2
1523010154962309,-3,-3,-2,-22,-23,-44,-16,-4
1523010154984367,6,1,-2,-3,13,25,8,10
1523010154984367,-3,2,0,10,9,15,15,6
1523010154985370,5,-8,0,1,-11,-7,-6,3
1523010154985370,2,-13,-5,5,16,20,12,2
1523010154999407,-49,-10,-2,-9,-14,-21,-14,-7
1523010154999407,33,-5,2,-13,-12,-9,0,8
1523010154999407,-22,7,0,-1,-13,6,-6,-6
1523010154999407,-33,-1,1,4,33,14,0,-17
1523010155021466,35,8,-4,-1,-10,10,14,21
1523010155021466,-24,-7,-3,-15,-1,-28,-18,-12
1523010155022469,-13,-13,-5,-1,-18,18,20,9
1523010155022469,55,16,6,26,5,-9,-6,3
1523010155044527,-20,-1,0,-45,-2,-18,-10,-6
1523010155044527,-8,3,-1,16,-3,4,3,-3
1523010155045530,-4,-2,-2,1,1,-4,-5,-1
1523010155045530,2,2,-2,-4,-9,12,8,9
1523010155058565,26,17,4,5,19,12,-5,-6
1523010155058565,1,-15,-6,-12,-24,-26,0,5
1523010155059567,5,1,1,-1,12,21,-5,0
1523010155059567,1,-2,-3,-3,-16,-10,-1,2
1523010155081626,-18,-13,-2,8,-2,-7,-10,-13
1523010155081626,25,8,-1,-12,9,8,-11,-9
1523010155082629,-20,-12,-4,3,-2,8,12,7
1523010155082629,-3,2,1,1,-10,-17,-8,-2
1523010155104687,2,0,0,-2,2,4,1,2
1523010155104687,-11,-2,2,3,-1,14,5,-3
1523010155105690,5,0,-2,2,2,-14,-8,-8
1523010155105690,11,-2,-3,-6,-17,-4,-3,7
1523010155118725,0,3,-4,-3,4,-12,0,4
1523010155118725,7,5,3,1,-1,15,5,3
1523010155119727,-15,-5,-1,7,12,-12,-8,-3
1523010155119727,-20,1,-2,4,1,8,-2,-3
1523010155141786,39,0,-2,-5,-8,-12,-3,8
1523010155141786,-5,-1,-4,-9,-1,16,6,-1
1523010155142789,11,5,3,3,15,-7,-3,1
1523010155142789,-25,-8,6,48,32,11,1,-8
1523010155164847,26,3,-3,-3,-15,-9,-8,0
1523010155164847,-17,-6,-4,-15,-14,0,4,-6
1523010155165850,-12,1,2,-9,-12,-6,2,-7
1523010155165850,13,-3,-8,-14,-3,1,-4,0
1523010155178884,-9,3,2,5,12,5,3,-1
1523010155178884,-18,0,3,-3,-1,-2,-7,-4
1523010155179888,3,-2,-3,-2,-1,-5,9,-6
1523010155179888,45,8,-3,-11,-15,-28,-7,15
1523010155201946,-54,-12,-2,-11,-16,14,9,2
1523010155201946,48,11,3,23,27,-3,-4,8
1523010155201946,-22,-14,-6,-9,-6,3,-3,-3
1523010155201946,-41,-1,6,25,1,1,0,-10
1523010155225007,18,-5,-6,-15,11,-4,-1,6
1523010155225007,-40,1,3,3,-11,5,1,-12
1523010155225007,43,5,5,29,8,0,-1,10
1523010155225007,-12,-6,-3,-13,-2,-2,0,-5
1523010155239044,-5,4,1,3,-12,-7,-7,-5
1523010155239044,-26,-5,1,-7,15,13,-4,-8
1523010155240048,24,5,-3,-10,-17,-8,0,11
1523010155240048,9,1,0,-19,-2,-14,0,4
1523010155261103,-6,-4,-2,-10,-8,17,4,-8
1523010155261103,16,8,1,35,11,-11,-1,2
1523010155262106,-15,-7,-5,-16,2,-7,3,0
1523010155262106,16,3,-3,10,22,15,-2,-2
1523010155284165,-14,-2,2,5,0,20,6,-2
1523010155284165,16,-5,-2,-19,-17,-1,6,5
1523010155285167,-10,3,3,1,7,-4,-9,-7
1523010155285167,-3,-6,-3,-15,-11,-15,-3,-3
1523010155299204,-25,-8,-2,1,-10,-3,-3,-7
1523010155299204,20,0,-8,-10,7,10,0,5
1523010155300207,3,2,2,-2,-5,-9,2,-4
1523010155300207,4,3,4,2,7,6,2,-2
1523010155321263,-39,-13,1,25,3,-3,-2,-9
1523010155321263,5,-6,0,0,-11,-6,2,6
1523010155322266,13,9,1,-13,-1,-2,-3,-2
1523010155322266,-33,-17,-4,-10,-2,22,5,2
1523010155344325,22,9,2,14,11,-23,-25,1
1523010155344325,15,5,-6,-41,-16,-5,-4,-13
1523010155345327,-3,3,0,45,25,3,0,1
1523010155345327,-2,-2,-1,-8,-13,-5,-5,-1
1523010155358362,-6,3,-1,4,9,2,15,4
1523010155358362,-23,-4,-1,-2,-9,-11,-8,-3
1523010155366383,-5,-9,-3,-21,-13,-7,-1,-4
1523010155366383,2,2,1,6,5,19,-7,-5
1523010155381423,18,4,-2,-1,-2,-3,8,4
1523010155381423,7,4,0,-11,-11,-6,-11,3
1523010155382426,-9,-6,0,6,7,0,8,-2
1523010155382426,20,4,2,9,1,5,7,2
1523010155404485,8,2,-3,-14,-10,-21,-4,-3
1523010155404485,2,2,1,7,9,17,10,1
1523010155405487,-2,-3,-1,-10,-5,0,-14,-11
1523010155405487,-9,-11,5,16,16,3,0,-15
1523010155418522,0,2,0,-3,1,-4,3,-7
1523010155418522,20,18,-2,0,1,-5,-5,3
1523010155426543,-12,-22,-5,12,7,13,6,11
1523010155426543,-1,-2,0,-19,-12,-27,-3,5
1523010155441587,2,-1,0,5,-3,25,11,9
1523010155441587,-14,-4,-1,3,-3,-1,-2,5
1523010155442586,7,6,-1,-14,-12,-6,-5,-8
1523010155442586,-3,0,-3,-1,-5,5,-3,-18
1523010155464645,12,9,-1,-1,3,-19,-9,-13
1523010155464645,-21,-31,-7,0,-3,7,5,-13
1523010155465648,34,28,-4,-6,-1,5,-2,-6
1523010155465648,-7,-9,0,3,1,-9,-1,-3
1523010155478682,-1,1,3,1,-1,-2,-2,5
1523010155478682,-8,-8,-2,4,-8,0,6,27
1523010155486703,-7,0,2,-3,5,-1,6,23
1523010155486703,16,-12,-6,1,2,5,-3,30
1523010155501743,11,23,-4,-8,1,-5,-10,50
1523010155501743,-9,-5,3,8,2,-6,-7,35
1523010155502746,-9,-6,0,-2,-19,-25,-7,51
1523010155502746,-8,-7,-2,-8,-4,13,7,44
1523010155524809,2,-2,0,3,4,17,8,19
1523010155524809,-3,-2,-4,1,4,-4,1,-21
1523010155525808,0,-6,1,-1,-7,-1,-3,-46
1523010155525808,-16,1,2,-2,-5,-3,-2,-61
1523010155537839,4,-9,-4,-10,-14,-2,-2,-48
1523010155537839,24,34,-4,-2,-9,-4,-4,-32
1523010155546863,-8,-12,-2,6,31,15,8,-26
1523010155546863,-4,-3,6,2,-15,-14,-3,-17
1523010155561903,-13,-5,0,1,-3,4,5,-12
1523010155561903,-4,-14,-1,1,7,-1,-1,-8
1523010155561903,3,5,0,-5,-3,3,-7,-8
1523010155561903,-5,-9,-1,0,2,-6,-13,0
1523010155584965,4,14,-4,-5,-6,-6,5,-4
1523010155584965,-3,-2,3,0,-1,4,11,-6
1523010155585967,3,0,-3,-2,0,1,-8,-5
1523010155585967,-4,-7,2,4,5,4,5,-5
1523010155597999,-1,-3,-2,-2,-7,-6,3,-8
1523010155597999,2,1,-3,-5,-7,1,1,-5
1523010155606021,-3,-3,1,4,12,1,3,-3
1523010155606021,5,13,2,-2,-6,-8,-5,-2
1523010155622063,-6,-9,0,4,10,3,-6,-5
1523010155622063,4,13,-3,-1,-3,0,4,2
1523010155629082,-3,-2,-1,-7,-41,-13,-3,-1
1523010155629082,3,-11,-1,4,30,12,-2,2
1523010155645124,5,9,-2,0,-2,-1,-3,1
1523010155645124,-3,-2,1,3,1,1,1,1
1523010155645124,-11,-17,1,-5,-19,-4,-8,-3
1523010155645124,5,11,-3,4,24,3,7,7
1523010155658159,0,-10,-4,-4,5,3,2,2
1523010155658159,0,9,6,0,2,-2,-11,0
1523010155666181,-3,-12,-6,-1,4,4,9,4
1523010155666181,-8,-7,1,0,-20,-3,0,1
1523010155681220,0,6,-4,0,16,6,-4,2
1523010155681220,2,6,2,2,-3,-5,0,1
1523010155682223,2,-1,-3,0,2,-2,-7,4
1523010155682223,1,-2,-1,2,-3,-1,15,4
1523010155712303,-7,-6,-1,-4,-13,-11,-19,-2
1523010155712303,-7,10,5,6,20,17,14,-2
1523010155713306,3,-26,-7,-3,6,-2,0,9
1523010155713306,-4,-3,-2,-5,-10,-7,-7,-3
1523010155726340,5,10,1,-2,-7,-5,0,1
1523010155726340,3,11,1,1,1,1,-6,6
1523010155734362,2,5,0,-1,6,5,1,0
1523010155734362,1,-2,-2,-5,-6,-3,0,1
1523010155741381,2,1,-3,-2,-9,-2,-2,4
1523010155741381,-14,-26,-5,-3,-6,-9,-7,-4
1523010155742383,6,16,1,0,9,0,2,5
1523010155742383,1,6,2,0,-13,0,-2,5
1523010155764442,-8,-23,-4,2,12,4,1,-1
1523010155764442,4,0,-2,1,-2,-4,-4,9
1523010155764442,4,5,1,-4,-8,-1,1,10
1523010155764442,-7,-1,-1,-3,-10,-7,0,12
1523010155787503,3,10,-3,2,0,-2,1,13
1523010155787503,0,-2,-1,-2,-3,-3,-1,16
1523010155787503,0,2,2,3,-1,2,-2,8
1523010155787503,8,10,-4,-8,-8,0,-1,4
1523010155801540,-5,-1,4,1,3,1,4,-11
1523010155801540,-13,-21,-4,1,4,-1,-5,-23
1523010155802543,7,9,-4,-1,0,-2,-5,-17
1523010155802543,-2,0,0,1,0,8,3,-20
1523010155824602,-4,-5,-1,-1,-1,-1,-1,-17
1523010155824602,0,9,5,2,2,-13,-9,-19
1523010155825605,-4,-5,2,2,-1,9,8,-22
1523010155825605,0,-13,-3,1,15,4,1,-22
1523010155854682,4,28,-4,-6,-11,-6,-3,-35
1523010155854682,-5,-16,-2,-5,-21,-4,-2,-26
1523010155855684,7,13,3,7,37,0,9,-16
1523010155855684,-1,0,0,2,-15,-5,-12,-10
1523010155861700,1,-8,4,5,21,1,3,0
1523010155861700,6,2,-3,-5,-13,3,4,4
1523010155862703,-9,-8,0,-4,-14,-2,0,9
1523010155862703,-5,9,0,-3,0,-5,1,31
1523010155883759,5,0,-1,-4,-16,-5,-2,30
1523010155883759,-6,-7,-4,-1,4,-2,0,30
1523010155884762,5,8,1,-3,0,-10,-7,24
1523010155884762,-3,9,0,0,6,19,3,17
1523010155914842,1,-11,-4,0,-6,-10,-2,15
1523010155914842,-2,-5,-5,-4,7,8,-1,6
1523010155915845,1,6,2,1,-3,-9,4,4
1523010155915845,7,5,-2,0,1,-10,-8,1
1523010155921860,-7,-7,-2,-7,-5,-4,5,-3
1523010155921860,1,-3,4,3,7,14,2,7
1523010155921860,-4,1,-4,-3,-10,-9,-7,8
1523010155921860,-6,-3,-1,3,14,1,3,16
1523010155943919,0,-1,-1,-6,-16,2,-3,17
1523010155943919,2,7,4,9,-2,-6,-3,10
1523010155944922,-2,-3,-2,6,16,9,1,4
1523010155944922,10,-2,-6,0,2,7,10,-5
1523010155967983,1,-1,-2,-3,-3,-5,-12,-29
1523010155967983,9,9,0,-7,-10,-7,-1,-31
1523010155968986,-20,-10,-4,-4,-3,6,-3,-39
1523010155968986,9,2,1,0,-4,-11,-3,-32
1523010155981018,-10,-9,0,-1,-2,-2,2,-13
1523010155981018,1,-5,-4,-5,7,1,-1,-6
1523010155982020,3,3,3,5,0,2,-3,3
1523010155982020,-9,-7,-5,-4,-2,-10,-2,-1
1523010156004079,0,-3,2,2,1,3,2,12
1523010156004079,7,7,0,1,9,3,-1,12
1523010156005082,-1,-3,-1,-11,-11,-1,1,8
1523010156005082,-9,4,-4,-21,-13,-6,-9,-5
1523010156027140,-2,-3,-1,27,8,7,8,3
1523010156027140,-9,-7,0,-2,1,-8,0,-5
1523010156028143,13,3,2,5,0,6,-3,6
1523010156028143,22,16,1,-4,-7,-12,-3,5
1523010156041178,-27,-8,-2,-17,-12,-19,-10,-6
1523010156041178,0,-14,-7,-1,5,15,5,4
1523010156042181,4,4,-1,-8,-11,-1,1,-4
1523010156042181,-4,-2,2,0,5,5,0,1
1523010156064239,9,6,-3,3,8,-1,4,0
1523010156064239,-5,-3,3,1,-8,-6,-9,2
1523010156065242,-27,-18,-5,-4,-5,-12,-1,-7
1523010156065242,18,2,-6,3,3,11,4,9
1523010156087300,14,11,2,0,1,-3,0,-3
1523010156087300,-6,-4,1,-9,-4,-4,-1,-4
1523010156088303,-9,-5,-2,9,5,7,-8,-7
1523010156088303,-20,-10,0,3,-4,-7,3,-12
1523010156101338,12,4,2,1,5,6,-1,8
1523010156101338,22,1,-4,-15,-7,-1,-5,-6
1523010156102341,-23,-10,-5,-21,-2,1,2,-1
1523010156102341,7,3,2,45,11,-3,-4,-5
1523010156124400,-4,-2,1,12,6,8,-4,-5
1523010156124400,-5,-6,-1,7,7,-7,2,4
1523010156124400,13,7,0,-11,-10,0,5,6
1523010156124400,-5,0,-5,-23,-13,-6,-3,-4
1523010156147460,6,2,4,-4,-2,-1,3,7
1523010156147460,-3,-5,-1,0,-2,0,0,-5
1523010156148463,9,6,1,6,2,2,0,5
1523010156148463,-6,-4,-2,-8,-2,-3,-3,-1
1523010156161498,2,-8,-3,-1,6,2,0,4
1523010156161498,-10,-6,-1,-3,-4,3,2,-4
1523010156162505,19,6,3,4,-5,-4,1,4
1523010156162505,-7,-6,-4,2,0,-4,-7,-7
1523010156183556,8,4,1,-7,0,8,-1,1
1523010156183556,-35,-10,1,3,-1,-5,1,-1
1523010156184559,14,1,-2,3,-2,5,0,-1
1523010156184559,-2,6,0,-2,-1,3,3,7
1523010156206618,-5,-2,-1,-11,-14,-11,-5,-9
1523010156206618,-3,-3,-2,5,4,0,-3,-8
1523010156214639,-2,0,1,15,3,-8,-6,-2
1523010156214639,-20,-9,-4,-11,-7,7,2,0
1523010156222661,-4,0,-1,2,9,7,-1,-4
1523010156222661,0,2,-1,-1,-1,-2,0,3
1523010156223663,-17,-6,-3,-4,-3,-4,1,-1
1523010156223663,36,14,1,1,-3,-2,-3,7
1523010156245722,-16,-8,-3,0,-2,0,1,3
1523010156245722,12,4,3,2,0,3,-2,4
1523010156246725,-5,-2,1,4,2,0,-1,-2
1523010156246725,-31,-8,0,-1,0,0,-1,-6
1523010156266778,22,5,-2,-2,-5,-4,-4,0
1523010156266778,-9,-3,0,0,2,3,1,7
1523010156267781,14,2,-1,0,0,5,1,5
1523010156267781,-6,-1,-1,-1,-2,-3,-2,-3
1523010156281818,1,3,2,-2,2,3,-3,-6
1523010156281818,-28,-6,-1,2,-1,-2,-3,-11
1523010156282821,15,4,-1,-4,-3,-8,-2,2
1523010156282821,21,5,-2,-13,-5,8,4,8
1523010156303876,-9,-7,1,30,10,-2,-2,-5
1523010156303876,9,4,-1,-2,2,11,1,2
1523010156304879,-15,-2,-1,0,1,-5,-4,-5
1523010156304879,-4,2,-2,-8,1,-9,-3,0
1523010156326938,-4,1,-1,-8,-14,-2,5,2
1523010156326938,-3,-4,-1,-18,-1,-12,-9,-5
1523010156327941,-2,-4,1,11,6,9,-4,-3
1523010156327941,18,-3,-2,20,12,4,1,6
1523010156349999,0,0,-2,-12,-3,2,2,4
1523010156349999,6,3,1,-6,-7,2,2,1
1523010156349999,-10,-4,-2,7,1,-9,-7,-7
1523010156349999,-15,-2,1,3,0,-8,-3,-4
1523010156364037,-7,-2,-2,-2,2,11,2,-2
1523010156364037,3,1,-3,-3,-3,-2,7,6
1523010156365039,18,-3,-6,-49,-19,-5,0,6
1523010156365039,-4,0,5,72,23,4,0,-3
1523010156387098,-10,0,-2,-3,2,-7,0,0
1523010156387098,3,0,-3,0,0,2,-1,0
1523010156388100,-10,-3,-2,-13,-8,0,1,2
1523010156388100,1,1,0,-16,-1,7,-2,-9
1523010156401135,-10,1,0,-6,-6,-5,-5,-2
1523010156401135,5,-5,0,10,3,4,1,-1
1523010156409156,4,1,2,1,3,-1,1,0
1523010156409156,-12,-7,-6,-35,-31,-13,0,-4
1523010156424197,3,2,0,29,25,8,7,2
1523010156424197,15,5,0,1,4,3,-5,2
1523010156425200,-5,-5,-1,7,2,-4,-2,-2
1523010156425200,5,3,-1,-14,-4,7,-1,-3
1523010156447258,-8,-7,-1,-13,-12,-2,-7,-3
1523010156447258,4,-3,0,-5,-9,-10,8,-2
1523010156448261,-11,-6,-3,-4,-1,2,-6,-3
1523010156448261,-7,-1,4,22,15,1,3,0
1523010156461295,-5,-5,-6,-13,-3,-6,-3,-1
1523010156461295,-15,1,0,7,4,-4,1,-2
1523010156469316,3,7,0,-1,-2,4,3,-3
1523010156469316,13,8,-1,-7,2,-3,-1,2
1523010156484356,-14,-10,-6,-5,-14,-7,-1,4
1523010156484356,7,2,-1,1,3,3,-2,0
1523010156484356,9,4,2,-6,-3,2,-1,-3
1523010156484356,-14,-12,-3,4,11,-10,-3,-9
1523010156507418,15,6,-1,5,4,17,4,2
1523010156507418,-6,1,0,-3,-9,-21,-8,-7
1523010156508421,-3,-11,-3,4,7,0,3,0
1523010156508421,24,11,0,-11,-5,-2,-2,0
1523010156520453,5,3,1,-10,0,-4,0,1
1523010156520453,1,-2,1,-2,-10,-6,-1,-6
1523010156529476,-6,-2,-1,10,7,8,-8,-5
1523010156529476,-10,-8,1,-14,-31,4,6,-5
1523010156543514,14,7,-1,26,27,-15,-4,-10
1523010156543514,-5,-3,-1,-2,1,23,0,-1
1523010156544517,3,1,-1,7,6,-10,8,4
1523010156544517,-9,-4,1,-11,0,5,0,13
1523010156567578,-5,-6,-4,-21,-14,0,6,15
1523010156567578,5,2,2,15,3,-10,-18,12
1523010156567578,-5,-4,-1,6,2,-12,-9,10
1523010156567578,1,3,-4,-12,-2,11,0,8
1523010156580612,7,11,-1,0,-4,4,8,-14
1523010156580612,-1,-9,-4,6,11,-4,-9,-34
1523010156588633,-7,-4,0,-2,-7,0,2,-37
1523010156588633,2,3,1,6,2,-12,-6,-23
1523010156603674,1,1,-3,-9,-10,5,2,-15
1523010156603674,-3,1,-3,-9,-4,-1,6,5
1523010156604677,-3,2,2,7,1,1,1,11
1523010156604677,2,-8,1,3,-2,-9,-2,27
1523010156626735,-5,-2,-4,-2,-3,7,-3,34
1523010156626735,-2,4,1,2,24,2,3,25
1523010156627738,2,-2,-2,-2,4,1,-2,47
1523010156627738,2,10,-4,1,12,14,7,51
1523010156657818,-4,2,2,-1,-11,-14,-18,47
1523010156657818,5,3,-1,-3,-18,15,7,50
1523010156658820,-4,-5,-2,-4,-2,-2,7,20
1523010156658820,-4,5,2,2,-1,-5,-2,-16
1523010156665839,3,-3,-2,-1,-3,-3,2,-34
1523010156665839,1,-2,-3,-4,-5,-8,-1,-46
1523010156665839,-10,-9,3,5,0,2,0,-50
1523010156665839,-2,-1,-4,-3,-2,4,-3,-30
1523010156686895,4,15,2,1,-9,-8,-6,-28
1523010156686895,-4,-8,-4,0,10,1,-8,-17
1523010156687898,-1,-8,-2,-4,-18,2,24,-13
1523010156687898,-1,-4,2,3,8,-2,-12,-15
1523010156709956,-5,0,-1,0,3,-2,1,-11
1523010156709956,0,5,1,1,-1,-2,-11,-8
1523010156710959,3,-3,-2,-2,-8,7,6,-2
1523010156710959,-4,-10,-2,-7,-19,-7,13,-9
1523010156723994,0,-2,-2,-1,2,-15,-11,-7
1523010156723994,1,-2,1,-1,-6,16,-1,-5
1523010156724996,-3,1,-1,2,8,4,-7,-8
1523010156724996,-2,2,4,0,-1,-4,-4,-8
1523010156747055,1,1,-2,-2,1,1,0,-3
1523010156747055,0,-3,0,-1,-6,-11,6,-3
1523010156748058,3,3,1,0,15,2,-1,-1
1523010156748058,-1,-12,-3,1,-2,-3,-6,-3
1523010156770116,-4,-1,0,0,-6,4,4,-3
1523010156770116,-4,-4,-3,4,18,-2,0,1
1523010156770116,-4,-8,1,3,-7,-1,1,-3
1523010156770116,-8,8,1,-1,-8,-1,-9,-2
1523010156784154,2,-12,-5,-4,-1,-1,-6,3
1523010156784154,5,2,1,-2,2,2,3,4
1523010156785156,2,6,0,3,5,-5,-19,3
1523010156785156,-3,0,0,1,8,-5,11,0
1523010156807215,-5,-5,-1,0,-14,-1,4,5
1523010156807215,7,7,1,-3,-12,7,-2,6
1523010156808218,0,1,0,1,4,-3,-4,3
1523010156808218,-1,-14,-7,-4,-3,0,-1,3
1523010156830276,4,9,-1,-4,-8,0,2,6
1523010156830276,-7,-9,-2,0,19,-3,6,2
1523010156831279,1,5,4,1,-5,-4,-8,2
1523010156831279,-7,-14,-5,0,0,1,-3,1
1523010156844314,-1,4,-2,0,5,2,7,1
1523010156844314,3,-2,-3,-3,-10,-7,-2,5
1523010156845316,3,3,0,-6,-7,-1,0,4
1523010156845316,-1,2,3,4,6,3,-2,0
1523010156867375,-1,-2,1,-1,3,-3,-5,2
1523010156867375,4,15,3,-4,-26,-3,2,4
1523010156868378,-5,-9,-4,0,11,-8,4,2
1523010156868378,1,-11,0,3,5,-6,-4,7
1523010156890436,1,6,0,-5,9,14,-6,6
1523010156890436,-8,-2,1,3,18,0,18,4
1523010156891439,4,1,0,-2,-13,-2,10,9
1523010156891439,5,10,-5,-4,-11,-6,-14,10
1523010156904474,5,1,2,3,2,-4,6,17
1523010156904474,-5,-7,1,-2,-9,-2,-5,16
1523010156904474,-6,-4,-4,-4,-5,-7,-14,8
1523010156904474,-4,8,2,1,14,14,22,5
1523010156926533,0,5,-4,-3,-3,1,-3,-9
1523010156926533,-3,-8,-3,0,0,-2,-3,-13
1523010156927535,-4,-4,3,3,0,0,1,-19
1523010156927535,11,16,-3,-5,-6,-3,-2,-14
1523010156949593,-11,-16,-6,-1,-1,-15,-3,-17
1523010156949593,-1,5,2,1,-6,7,-1,-19
1523010156950596,-5,-10,0,-3,5,16,-2,-17
1523010156950596,-5,-1,-1,3,10,-2,-1,-27
1523010156963631,2,0,1,5,6,2,6,-34
1523010156963631,-1,-1,-4,-4,-10,-18,-25,-32
1523010156964634,1,2,0,-3,-7,7,21,-31
1523010156964634,-2,3,3,-4,-10,2,-5,-20
1523010156986692,-2,-10,-1,6,38,7,11,-2
1523010156986692,1,-6,-8,-1,-1,-2,-6,7
1523010156987695,2,7,-3,-2,-6,-4,-9,21
1523010156987695,-6,-5,-2,-2,-11,-10,-5,34
1523010157009753,-4,-3,1,-4,-11,12,6,33
1523010157009753,11,-1,1,-5,-1,1,5,35
1523010157010756,7,8,0,1,5,-1,-4,28
1523010157010756,-5,-4,-5,-3,0,-5,4,12
1523010157023791,-4,-6,-1,0,-3,-4,-10,6
1523010157023791,-3,0,0,2,5,1,4,-1
1523010157024794,-3,-1,-4,-3,-4,-3,-4,3
1523010157024794,-8,-2,-2,-2,0,-8,-6,3
1523010157046852,4,-1,1,-5,-5,6,-4,12
1523010157046852,2,4,3,-2,-3,-2,2,10
1523010157046852,1,-3,-2,3,-6,-14,-6,8
1523010157046852,13,6,-1,0,10,20,-4,3
1523010157069914,-9,-1,7,1,2,-4,-3,-11
1523010157069914,-7,-15,-6,-4,-8,-5,5,-13
1523010157070916,16,15,1,-2,2,0,-3,-19
1523010157070916,-9,-5,-1,1,0,-5,2,-16
1523010157082948,1,-7,-3,4,3,-11,-4,-17
1523010157082948,-11,-4,0,1,8,16,4,-9
1523010157091972,-5,-3,-3,-6,-12,-6,-1,-2
1523010157091972,-4,-4,1,-5,-2,-2,0,2
1523010157107013,-1,-1,1,2,-6,-1,-2,6
1523010157107013,2,-3,-1,9,5,-5,0,6
1523010157107013,2,-5,-1,3,0,-6,-2,-1
1523010157107013,6,7,-4,-6,-7,23,2,2
1523010157130074,-3,-8,-2,-6,1,-12,-3,2
1523010157130074,-5,5,3,0,-3,-3,2,0
1523010157130074,-7,-7,-1,-1,-1,3,-3,-4
1523010157130074,6,2,1,2,4,-2,0,4
1523010157144111,12,4,1,0,-3,-1,-4,-3
1523010157144111,-13,-7,-4,-1,-2,-2,2,3
1523010157145114,-2,-3,-1,-2,1,-3,-1,-2
1523010157145114,10,7,2,2,2,1,2,4
1523010157166170,1,-1,-1,-2,-7,0,0,-7
1523010157166170,16,10,5,0,3,-8,-4,-1
1523010157167172,-14,-10,-1,-7,-6,18,5,-1
1523010157167172,-6,-6,-3,-1,0,-13,-2,-6
1523010157189231,3,1,-1,6,5,7,0,1
1523010157189231,-10,-8,-4,0,-17,-7,-7,-11
1523010157190234,4,5,0,-8,6,4,-3,-4
1523010157190234,5,0,-2,-1,-5,-9,4,1
1523010157204271,-16,-8,-2,-12,-3,9,-1,-5
1523010157204271,-1,-2,-1,18,12,-2,4,5
1523010157205274,13,2,0,5,2,-5,-1,-3
1523010157205274,5,-7,-6,-8,-5,-4,-4,-11
1523010157226330,3,1,-3,-9,-13,-24,-4,6
1523010157226330,1,-3,-1,-13,2,23,-4,-6
1523010157227333,-24,-10,-4,-3,-4,-6,1,6
1523010157227333,-3,4,2,5,5,10,2,1
1523010157249391,-3,-1,0,-1,-10,-2,-3,-4
1523010157249391,31,11,1,-10,-5,-10,-2,-1
1523010157250394,-33,-11,-4,11,4,-5,0,2
1523010157250394,-2,-1,-1,7,0,5,0,-2
1523010157263428,-1,-2,-2,-3,0,-1,0,-2
1523010157263428,7,6,3,-8,0,1,0,-2
1523010157271450,12,2,1,-4,-6,-3,0,1
1523010157271450,-19,-6,-2,14,7,4,-3,-3
1523010157286489,8,-5,0,-2,2,-2,2,2
1523010157286489,-5,1,0,-1,-2,-1,3,-2
1523010157287492,-14,-2,-2,-4,0,-11,-1,-5
1523010157287492,4,-1,-2,-7,-7,4,-6,0
1523010157309551,2,3,0,1,-3,5,-1,-3
1523010157309551,-14,-8,-4,-4,-5,-13,-3,-2
1523010157310554,14,6,2,2,8,6,0,4
1523010157310554,-9,2,3,-3,-2,8,4,-4
1523010157323590,-13,-3,1,-1,-1,0,-1,-3
1523010157323590,2,-4,-2,1,-2,-5,-7,2
1523010157331610,-15,-4,-2,2,-2,4,5,-7
1523010157331610,18,7,2,-10,-1,-11,-2,0
1523010157346649,-7,-2,-3,-6,-17,-1,-5,-1
1523010157346649,-12,0,5,13,18,9,2,0
1523010157347652,17,2,2,14,0,-9,-3,0
1523010157347652,-6,-2,-1,-6,-2,-3,2,10
1523010157369710,10,5,-1,1,-2,-6,-1,-4
1523010157369710,-17,-7,-2,-8,-13,0,6,2
1523010157370714,26,12,-1,-2,4,8,-5,1
1523010157370714,-20,-8,-4,-3,-4,-7,2,3
1523010157383748,9,1,3,2,10,1,-4,3
1523010157383748,-15,-4,-2,0,0,2,2,2
1523010157391770,2,-1,-1,-2,-3,-5,-4,-1
1523010157391770,4,4,-1,0,2,-1,2,-4
1523010157406810,-24,-11,-3,2,5,5,3,-6
1523010157406810,17,5,-2,-5,-8,-3,-7,3
1523010157407813,-17,-14,-4,-12,0,-8,-2,1
1523010157407813,28,8,-1,14,-2,-11,-9,-1
1523010157429871,-17,-9,2,15,-2,7,0,1
1523010157429871,3,4,2,2,6,9,5,-4
1523010157430874,-2,0,-2,-16,-7,-15,0,-2
1523010157430874,-12,-4,-5,8,1,14,-8,-3
1523010157442905,-4,-2,-3,-12,4,-24,-1,-4
1523010157442905,2,1,-1,4,-11,27,7,-2
1523010157451930,-1,2,2,6,9,6,5,4
1523010157451930,6,2,-1,-10,-6,-13,-6,-3
1523010157466970,-2,-8,-4,-4,-3,3,0,9
1523010157466970,13,2,-1,-5,1,-15,-7,5
1523010157466970,1,1,-1,-16,-4,4,5,1
1523010157466970,-12,-5,1,12,14,21,1,-5
1523010157490031,3,4,0,-2,-10,-7,-2,-2
1523010157490031,-7,-2,-4,-17,-7,-14,-1,-1
1523010157491034,-17,-5,-4,-15,-1,4,-13,-8
1523010157491034,44,16,7,47,15,-5,3,10
1523010157503065,-39,-10,-4,1,8,7,6,-7
1523010157503065,-3,1,0,2,-7,12,1,-9
1523010157511087,-7,-9,-5,-29,-12,-4,5,1
1523010157511087,-3,1,6,38,6,7,-4,-1
1523010157526127,25,4,1,2,2,-22,-10,1
1523010157526127,9,3,-1,6,1,-16,9,8
1523010157527130,-20,-3,1,-2,4,51,7,-15
1523010157527130,-12,-10,-4,-29,-13,-11,0,6
1523010157549188,7,-1,2,7,0,6,-8,-3
1523010157549188,-3,3,-1,-14,-10,-23,-9,1
1523010157550191,35,12,0,19,15,2,-2,5
1523010157550191,-9,-8,-1,-16,-2,-16,1,-5
1523010157572249,1,4,3,11,-3,14,-2,-5
1523010157572249,-18,-20,-5,13,9,-1,-1,3
1523010157573252,12,8,1,26,0,-5,3,-2
1523010157573252,-3,-1,-2,-19,-16,-2,2,-3
1523010157586287,23,9,-2,-15,-2,-9,0,3
1523010157586287,-12,-9,-1,-11,-1,3,1,-1
1523010157587290,-5,-1,3,13,-1,-11,-4,-3
1523010157587290,-7,2,-7,-60,-30,3,1,2
1523010157609348,9,6,-3,-15,-15,-10,-2,1
1523010157609348,-2,4,0,62,51,19,10,1
1523010157610351,6,-2,3,-12,-14,-9,18,7
1523010157610351,-12,-17,-8,34,18,-11,-17,-8
1523010157632409,-6,9,3,-11,-9,8,-5,1
1523010157632409,-1,-4,-4,-38,-62,-6,-4,-4
1523010157633412,-22,-13,-8,5,20,-32,-9,-11
1523010157633412,11,8,2,-20,-4,25,1,-3
1523010157646447,-9,-7,-4,-7,4,10,4,3
1523010157646447,11,2,0,1,13,-21,-5,-7
1523010157647450,7,2,2,1,-31,-13,-9,-2
1523010157647450,1,2,3,23,2,-20,-6,-2
1523010157669508,-23,-30,-12,-13,8,26,10,4
1523010157669508,12,16,3,-14,-5,2,-5,-2
1523010157670511,11,-4,-1,5,7,3,-3,7
1523010157670511,-12,-3,-3,-6,1,-10,1,-5
1523010157692569,12,6,5,15,7,11,10,0
1523010157692569,-13,-19,-6,-22,-10,-23,-11,2
1523010157692569,-9,6,5,12,8,19,-5,1
1523010157692569,10,3,0,6,6,0,4,6
1523010157706607,2,-1,-2,-3,-1,-16,0,-2
1523010157706607,-4,-2,1,-3,-9,4,-6,-7
1523010157707610,10,-11,-5,1,9,19,1,7
1523010157707610,-17,-6,1,-20,3,-13,6,0
1523010157729668,1,-1,0,21,11,3,-11,8
1523010157729668,14,8,3,11,16,-3,-5,2
1523010157730671,-15,-10,1,3,-5,6,5,-9
1523010157730671,-5,-6,-8,-14,-12,11,16,-13
1523010157752729,7,5,0,4,4,-8,-14,-12
1523010157752729,13,11,-6,3,6,3,-5,-8
1523010157752729,2,3,4,-6,-6,-5,-3,-12
1523010157752729,-8,-8,-7,-8,3,1,2,-4
1523010157766767,12,18,4,5,-7,-6,0,-6
1523010157766767,-18,-22,-2,2,0,8,1,-4
1523010157767770,7,8,2,-1,21,2,0,0
1523010157767770,1,5,2,7,-2,-2,-5,5
1523010157789828,-11,-7,-2,2,-11,-16,-9,14
1523010157789828,1,-8,-4,-16,-10,18,15,21
1523010157789828,5,9,4,15,27,-10,4,12
1523010157789828,-5,0,5,13,1,0,-12,0
1523010157811887,4,0,-3,-5,-1,-2,2,-6
1523010157811887,-4,-4,-4,-4,-10,-9,3,-8
1523010157812889,-1,-5,1,-4,-16,11,-7,-8
1523010157812889,-5,-3,-7,-9,-1,1,3,-5
1523010157826927,4,4,1,-2,3,3,2,-7
1523010157826927,10,9,0,-1,-4,-4,5,-2
1523010157826927,-10,-11,-2,0,-16,-12,-8,-2
1523010157826927,-1,-12,-2,0,22,5,-1,5
1523010157857007,-6,-10,-1,-1,1,10,5,1
1523010157857007,7,17,1,3,-1,-7,-7,3
1523010157858010,1,1,-2,-4,8,-5,-6,2
1523010157858010,1,-1,-2,-2,4,3,4,0
1523010157871044,-8,-5,0,-9,-25,-8,1,-4
1523010157871044,-8,-9,0,10,14,6,-7,-5
1523010157879065,11,11,-1,-4,-11,-3,1,1
1523010157879065,6,18,2,0,-4,-13,4,4
1523010157886084,-2,-13,-5,-1,13,4,-14,-1
1523010157886084,-4,1,3,-4,-16,9,21,-3
1523010157887087,-6,-12,-3,-7,-17,-5,-9,-2
1523010157887087,-2,5,3,4,18,1,-3,-4
1523010157910148,4,-6,-3,-1,0,-3,8,1
1523010157910148,1,0,0,2,3,-4,-10,-2
1523010157910148,-10,-14,0,-3,-8,-5,-1,-6
1523010157910148,7,21,-8,-7,-12,-3,-2,1
1523010157932207,-3,18,1,-2,-11,-1,6,-3
1523010157932207,-7,-22,-4,1,35,0,-23,-2
1523010157933210,3,4,-1,-2,6,5,12,4
1523010157933210,-2,0,4,4,-14,-7,-13,-1
1523010157946244,1,0,-2,-2,-7,0,1,2
1523010157946244,-3,3,-2,0,-12,1,7,0
1523010157947247,1,-2,2,-3,-8,-11,-8,-1
1523010157947247,-6,-5,-1,-6,-15,6,-4,-4
1523010157969305,10,8,2,8,30,2,8,4
1523010157969305,-6,-2,-1,0,-4,5,1,2
1523010157970308,0,-9,-3,1,4,0,-5,0
1523010157970308,2,4,2,-2,-6,3,3,2
1523010157992367,-8,-6,-5,-5,-2,-1,0,-5
1523010157992367,-4,9,4,2,1,-6,-7,-4
1523010157993369,-5,-15,-4,-1,5,2,-3,1
1523010157993369,2,-12,-3,-4,-6,0,6,3
1523010158006404,0,5,-2,0,-3,-4,-4,-2
1523010158006404,1,0,-2,-7,-22,-4,-4,-2
1523010158007407,-3,4,2,2,16,8,3,1
1523010158007407,-4,-10,0,3,0,-8,1,1
1523010158029465,-1,-13,1,-2,-8,0,0,0
1523010158029465,2,16,-3,0,-1,-1,0,1
1523010158030468,-10,-34,-4,2,10,-3,-2,-1
1523010158030468,4,14,-2,0,2,2,-5,1
1523010158052527,10,8,-8,-7,-9,8,2,5
1523010158052527,-1,1,5,-3,3,-2,4,4
1523010158053530,-1,11,1,-6,-11,-3,-3,7
1523010158053530,-9,-9,1,0,-13,-4,0,5
1523010158066564,2,8,5,12,20,4,-9,9
1523010158066564,-4,-22,-3,0,14,9,11,4
1523010158067567,7,23,-2,-4,-8,-3,1,1
1523010158067567,-7,-6,-4,-4,-5,-6,0,-10
1523010158089625,-5,-5,1,-5,-15,-7,-4,-11
1523010158089625,0,-2,4,3,4,-3,-9,-8
1523010158096644,-1,-5,-2,0,-1,3,9,-5
1523010158096644,5,8,-5,-3,-8,0,-3,-17
1523010158112687,1,3,0,-3,0,-2,-1,-36
1523010158112687,-7,-10,-1,1,11,-2,0,-31
1523010158112687,2,13,-2,-4,-9,-2,-1,-27
1523010158112687,6,6,-1,-1,-7,-3,-4,-8
1523010158134745,-6,-13,7,10,32,12,5,0
1523010158134745,0,-7,-4,-3,-18,-7,-4,8
1523010158135748,-6,2,0,-1,4,-2,1,5
1523010158135748,-1,-6,-3,-1,-1,19,6,20
1523010158148783,-1,-5,-2,-3,-2,-8,0,18
1523010158148783,-3,-2,-1,-3,-11,-5,0,22
1523010158149785,13,7,-1,-1,-3,-3,-4,17
1523010158149785,0,-1,-3,0,7,-6,-3,9
1523010158171844,-5,0,-1,-2,-9,-3,-2,4
1523010158171844,12,9,-4,-1,7,2,2,7
1523010158172847,-5,-6,0,1,-3,-4,-5,-3
1523010158172847,2,3,2,0,0,-3,-1,1
1523010158185881,-6,-7,-3,-5,-6,-3,-3,-2
1523010158185881,-6,-3,2,3,8,6,5,-5
1523010158193903,1,-3,0,-1,2,5,-2,3
1523010158193903,-4,4,3,-12,-8,-10,0,3
1523010158208943,12,6,-2,-18,-29,-16,-10,1
1523010158208943,1,-4,-1,21,34,9,10,-12
1523010158209945,2,1,-1,-4,-11,-2,-3,-5
1523010158209945,5,8,1,5,10,2,-1,-8
1523010158232004,-16,-11,-3,0,-6,3,0,-15
1523010158232004,-5,2,-1,-13,-15,-1,3,-4
1523010158233007,17,8,3,4,5,0,1,7
1523010158233007,-2,1,-2,-4,-3,-5,-9,-8
1523010158246041,-1,-2,0,-5,0,-5,3,10
1523010158246041,-2,4,2,1,-7,-8,-6,4
1523010158254063,-17,-11,-3,2,3,3,-2,-11
1523010158254063,5,4,0,5,6,2,-1,1
1523010158269103,10,5,0,0,6,19,5,1
1523010158269103,-7,0,-1,-12,-9,-5,-2,5
1523010158270105,13,9,-2,-5,-8,-15,-1,1
1523010158270105,-28,-19,-6,12,16,0,3,4
1523010158292164,9,1,2,0,-1,13,-1,-2
1523010158292164,5,-2,0,-27,-18,-11,5,-1
1523010158293167,-9,-10,-2,13,15,-4,2,1
1523010158293167,18,10,-1,-2,-8,0,-10,-6
1523010158306201,-13,-11,-1,8,10,0,2,-1
1523010158306201,8,4,3,6,-3,2,-5,0
1523010158314223,-18,-8,-2,-15,-6,0,-3,-6
1523010158314223,0,-5,0,-6,1,-4,5,2
1523010158329262,4,0,0,-2,-6,-4,-4,-1
1523010158329262,-4,-1,-2,-3,2,2,-2,-1
1523010158330266,0,0,-1,0,4,3,2,1
1523010158330266,2,-7,1,4,2,2,0,-1
1523010158352324,8,4,-1,-7,-10,-10,-2,-5
1523010158352324,-8,-6,-3,-26,-17,-3,-4,1
1523010158353327,2,-6,2,46,39,11,4,1
1523010158353327,0,1,4,22,9,2,2,2
1523010158366361,7,4,-1,-6,-4,-4,4,4
1523010158366361,-13,-1,-2,4,-5,0,-6,-10
1523010158374383,1,2,-3,-22,-19,0,-5,1
1523010158374383,-2,-3,-2,-19,-9,1,1,-1
1523010158389422,-4,1,3,13,10,-1,8,-2
1523010158389422,3,0,-1,-6,-5,-1,-11,-1
1523010158389422,2,-3,-1,-19,-21,-7,2,5
1523010158389422,10,5,1,45,20,9,-1,-1
1523010158412484,-30,-16,-7,-19,-5,-2,0,-2
1523010158412484,5,4,7,59,25,2,3,1
1523010158413487,-7,-2,-2,-10,-13,4,0,-5
1523010158413487,1,-1,-3,-18,-7,-5,-3,1
1523010158425518,-10,5,2,-32,-9,-11,-4,-6
1523010158425518,13,3,-1,9,8,14,3,1
1523010158434543,-13,-3,-4,10,-5,-7,-4,-3
1523010158434543,5,2,-3,-17,-6,0,4,1
1523010158450585,-2,-5,-2,5,1,-2,-8,-5
1523010158450585,-8,-4,-3,-21,-7,-6,-3,1
1523010158451588,-11,3,-2,-8,-13,-2,-2,-7
1523010158451588,-7,-2,-3,-7,3,0,-4,-1
1523010158472644,7,-2,1,21,11,-1,-1,2
1523010158472644,-4,-2,-3,15,5,14,8,1
1523010158472644,10,2,-2,4,-1,-1,-6,0
1523010158472644,2,2,1,-9,-12,-6,-3,4
1523010158485678,-3,-4,2,-4,-1,-3,-1,0
1523010158485678,2,3,1,-6,-15,-20,-4,2
1523010158493700,-2,4,-1,-15,9,15,3,-2
1523010158493700,-20,-12,0,2,12,7,1,-2
1523010158508740,-11,-2,-1,10,-4,1,-1,-3
1523010158508740,32,-1,-4,2,-2,-18,-3,5
1523010158509743,-1,6,2,1,0,6,-2,3
1523010158509743,14,3,-1,-7,-4,-6,-3,-3
1523010158531801,-16,-7,-4,8,2,12,5,8
1523010158531801,-18,-1,-3,-23,-1,1,-5,-14
1523010158532804,18,2,-2,-19,-16,-17,-3,8
1523010158532804,-9,-4,-2,49,16,10,-4,-11
1523010158555865,14,1,-1,-13,-7,-6,-3,4
1523010158555865,9,9,2,-26,8,4,-1,1
1523010158555865,-3,-9,-3,26,-8,-2,1,7
1523010158555865,-21,-3,-5,-32,-16,-13,-8,-10
1523010158568900,8,3,1,-2,-3,-4,-5,2
1523010158568900,-10,-1,2,-2,2,6,4,2
1523010158569903,8,4,4,3,16,-1,-1,0
1523010158569903,-2,-4,-2,-19,-5,-6,4,5
1523010158599983,-6,-6,1,26,12,8,0,-6
1523010158599983,10,0,0,10,2,-2,1,5
1523010158600985,4,7,4,-17,-21,-10,-3,-6
1523010158600985,-8,-7,-5,1,1,-3,-3,0
1523010158615023,9,4,2,-17,10,3,3,3
1523010158615023,-19,-6,-9,2,-4,4,0,-3
1523010158616025,5,4,2,20,7,-4,-3,-4
1523010158616025,-18,-12,-3,-36,-26,-4,3,1
1523010158629060,8,-5,-2,12,4,-6,-5,-7
1523010158629060,-3,0,-2,-9,-7,1,-1,-3
1523010158630063,4,15,2,11,33,10,-1,-6
1523010158630063,-4,-3,0,-42,-36,-4,0,3
1523010158652121,6,9,0,17,14,-4,1,1
1523010158652121,-30,-30,-4,29,7,-2,0,1
1523010158653124,6,-4,-2,-17,-13,0,-3,-2
1523010158653124,13,16,2,16,11,3,2,-2
1523010158675183,7,-8,-5,-16,-18,-6,-2,1
1523010158675183,-35,-12,-5,-30,7,8,2,-8
1523010158675183,1,2,-2,20,7,-1,5,4
1523010158675183,5,0,3,47,5,-9,-1,5
1523010158689220,7,3,-4,-29,-37,9,-1,-9
1523010158689220,19,10,8,12,19,-13,4,9
1523010158690223,-18,-13,-9,1,-2,-2,-2,-8
1523010158690223,28,10,0,4,11,13,9,2
1523010158712281,-40,-10,-1,-19,-10,-2,-2,1
1523010158712281,11,0,-4,-5,-13,-2,0,2
1523010158713284,-9,-7,0,-1,-1,-4,-1,-4
1523010158713284,9,8,-3,-5,-1,5,-2,1
1523010158734340,26,11,6,13,10,0,0,3
1523010158734340,-7,-6,-2,-29,-28,-1,1,1
1523010158735343,-7,2,6,17,13,1,-2,0
1523010158735343,7,-2,-2,18,10,4,-2,-7
1523010158749380,-33,-19,-5,1,3,1,7,0
1523010158749380,10,13,2,-4,-23,-13,-10,-7
1523010158749380,-7,0,-1,-8,-4,-8,-2,-1
1523010158749380,9,5,0,-3,19,22,5,6
1523010158772441,-7,-3,-1,21,5,-6,-10,1
1523010158772441,-2,-6,-2,15,2,-9,2,-3
1523010158773444,16,2,-1,-16,-15,-5,-1,2
1523010158773444,-26,-10,-6,-5,9,19,6,3
1523010158794500,18,6,0,-24,-6,-8,-2,4
1523010158794500,-4,-5,0,22,1,5,-3,-3
1523010158795503,-4,-3,2,4,1,3,5,0
1523010158795503,3,8,-3,-26,-29,-24,0,-4
1523010158808537,5,0,3,42,55,20,2,3
1523010158808537,5,-4,-1,-3,-5,-8,-6,-1
1523010158809540,3,-5,-6,-18,-5,-2,5,2
1523010158809540,24,12,2,11,7,-4,-8,-1
1523010158832601,-8,-1,0,-11,-21,0,-2,-5
1523010158832601,7,4,3,-4,7,-5,-1,-5
1523010158832601,-12,-7,-1,-5,-1,7,-1,3
1523010158832601,-12,-13,-6,3,-5,-22,-8,5
1523010158854660,3,6,0,-1,-10,5,-3,7
1523010158854660,13,4,0,6,20,20,11,6
1523010158855663,-18,-25,-6,-7,-11,-4,-6,-1
1523010158855663,11,20,4,-4,-14,2,5,-6
1523010158868697,-7,-10,-4,2,23,-12,-13,-7
1523010158868697,7,5,-2,0,-30,-12,-4,-10
1523010158869700,2,2,3,20,48,23,12,-6
1523010158869700,-3,-3,-1,5,-5,-12,1,-5
1523010158891759,4,2,-1,-5,-6,3,-5,-2
1523010158891759,-1,1,-1,-6,-10,3,-13,3
1523010158892761,1,-3,-3,-7,-3,-1,10,0
1523010158892761,-2,3,0,3,8,2,3,11
1523010158914820,4,13,3,-6,-6,1,8,29
1523010158914820,-10,-29,-9,0,9,-1,-3,27
1523010158915823,20,38,3,-7,-18,-1,-10,38
1523010158915823,-4,2,1,2,7,-6,-2,46
1523010158928857,-1,-15,-6,-2,-3,-12,-2,24
1523010158928857,-4,-1,2,-6,6,12,3,1
1523010158929860,-9,-21,-4,-3,-15,-7,3,-27
1523010158929860,-5,-7,-4,-5,-12,1,-10,-36
1523010158951919,7,6,5,10,23,3,8,-31
1523010158951919,-4,-1,0,10,30,-1,-11,-22
1523010158952922,-7,0,-2,-4,-6,7,9,-21
1523010158952922,-8,-3,-2,-10,-24,-4,-13,-16
1523010158974980,-3,-15,-2,-3,-26,-13,1,-17
1523010158974980,-3,-3,-2,0,-4,1,3,-18
1523010158975983,12,11,-2,-4,-6,0,-13,-3
1523010158975983,-12,-13,-5,-4,3,2,-6,-13
1523010158989017,-2,-4,0,2,9,5,3,-13
1523010158989017,5,18,2,0,-2,-4,1,-9
1523010158990022,4,6,6,-2,-15,-9,-3,-5
1523010158990022,-2,1,-4,2,1,1,4,-3
1523010159012079,-2,-9,-5,-2,10,2,-9,-5
1523010159012079,-11,-4,5,6,-8,6,8,-5
1523010159013081,2,-4,-7,-5,-13,-10,-15,-4
1523010159013081,5,8,0,5,25,-1,15,1
1523010159035140,0,5,0,-10,-22,7,6,-3
1523010159035140,2,4,0,-2,-1,-4,-3,5
1523010159035140,-11,-12,1,2,-6,3,-2,-5
1523010159035140,-9,-23,-5,1,1,2,0,0
1523010159057199,17,23,-2,-1,1,-10,-7,1
1523010159057199,5,-8,-2,-3,0,0,0,-2
1523010159058202,-4,-1,3,2,1,-5,-2,-4
1523010159058202,1,3,-4,-1,9,-1,-8,1
1523010159072238,-14,-3,6,-1,-1,13,10,-2
1523010159072238,0,-1,-7,-1,14,-4,-21,-2
1523010159073241,5,0,-1,-2,-1,5,35,13
1523010159073241,-3,9,0,5,39,7,-3,-5
1523010159094297,2,-2,-2,-5,-21,6,0,6
1523010159094297,-4,11,6,1,-2,-15,-5,-2
1523010159095300,-6,-4,-3,1,-11,5,-6,0
1523010159095300,-4,0,-6,-7,-22,-5,12,6
1523010159109337,0,-4,-7,-6,-2,-13,-7,-1
1523010159109337,7,3,3,4,5,10,-13,4
1523010159110340,-7,-18,-2,3,9,-5,6,0
1523010159110340,3,9,0,1,-9,-1,-3,-1
1523010159132399,-5,1,-3,-3,2,-2,-3,-5
1523010159132399,-7,-11,-2,-1,-15,1,6,4
1523010159133401,4,10,2,3,3,0,-5,5
1523010159133401,7,4,-2,-3,34,10,1,2
1523010159154457,-4,-2,-3,0,0,-24,-14,-2
1523010159154457,-1,-3,4,4,2,23,9,7
1523010159155460,-2,-1,2,-1,-6,-1,5,-1
1523010159155460,-2,-4,1,-11,-45,-8,0,3
1523010159168495,1,4,-4,5,3,-7,0,0
1523010159168495,0,-1,1,1,8,-3,-3,-3
1523010159176516,-6,-18,-8,-5,15,-1,-12,1
1523010159176516,2,3,1,-2,-15,0,2,3
1523010159191556,6,3,-3,-4,-7,-2,3,8
1523010159191556,0,2,-2,-5,-6,-7,3,0
1523010159192559,-3,1,0,2,11,9,-4,-2
1523010159192559,-2,1,5,2,-7,-9,-8,1
1523010159214617,-3,-23,-2,2,4,2,2,3
1523010159214617,12,20,-4,-7,-22,-12,4,3
1523010159215620,8,15,3,-1,2,-2,-7,1
1523010159215620,-19,-17,-3,0,27,1,-3,-1
1523010159228655,-1,1,4,1,-8,7,2,4
1523010159228655,-4,-7,-1,3,-2,7,4,14
1523010159236676,4,3,1,2,1,-13,-4,16
1523010159236676,-3,-10,-5,2,-1,9,-1,18
1523010159251716,3,-1,-6,-8,-6,-8,-1,23
1523010159251716,-6,-2,1,-1,0,-6,-1,7
1523010159252719,-4,10,-1,-3,-5,-7,-5,-7
1523010159252719,-5,-10,-1,-1,-8,1,-1,-15
1523010159275780,2,8,0,-1,-5,8,3,-24
1523010159275780,-1,-5,3,6,4,-10,-2,-22
1523010159275780,2,7,-4,-8,13,6,7,-16
1523010159275780,3,8,4,14,14,-12,-9,-24
1523010159288815,7,-3,-1,-3,-4,20,13,-24
1523010159288815,7,13,4,1,17,20,4,-25
1523010159296836,-7,-12,-4,3,-6,-14,-4,-41
1523010159296836,4,10,-2,-6,-15,-7,-6,-46
1523010159311876,-7,-9,6,-5,-12,-17,-9,-38
1523010159311876,-2,-8,-7,-5,1,-8,0,-25
1523010159311876,0,-4,-1,4,3,20,2,1
1523010159311876,9,8,2,-12,-27,-11,5,16
1523010159334937,-3,3,-3,4,16,-10,-9,24
1523010159334937,7,-1,0,4,11,-4,4,28
1523010159335940,-15,-12,-6,-6,1,4,5,35
1523010159335940,7,-2,1,1,-2,20,5,32
1523010159356996,9,6,-2,-3,-15,-2,6,28
1523010159356996,-5,-7,-2,-10,-4,-12,-12,23
1523010159357999,6,11,2,13,7,-18,-7,10
1523010159357999,-4,-11,-5,-9,-4,17,8,12
1523010159372036,-14,-8,1,5,7,2,-3,4
1523010159372036,5,5,-4,0,-1,-17,-6,-4
1523010159372036,-17,-24,-2,-5,-14,7,10,1
1523010159372036,25,14,1,-5,5,-7,-3,7
1523010159395098,3,4,0,-5,-15,-13,1,-3
1523010159395098,-20,-18,0,5,19,13,10,-2
1523010159395098,0,8,-1,6,13,7,-19,1
1523010159395098,-7,-6,-2,3,-7,1,-9,-1
1523010159408132,1,3,9,4,21,19,9,9
1523010159408132,-2,-11,-3,-2,-35,-24,-7,0
1523010159416153,-4,0,0,0,8,16,5,-4
1523010159416153,1,-7,-4,0,5,-17,2,2
1523010159431193,13,12,-5,-7,-9,3,-8,-7
1523010159431193,7,1,1,-8,-1,12,16,-4
1523010159432196,10,10,1,-4,-9,-26,-21,-15
1523010159432196,-8,-8,3,6,13,15,14,-23
1523010159454254,-15,-14,-1,-5,0,-8,-1,-18
1523010159454254,2,-6,-2,-2,-5,2,-6,-5
1523010159455257,5,5,-5,12,11,11,8,3
1523010159455257,-14,-5,4,-2,2,4,-5,6
1523010159468292,4,6,3,2,-11,-19,0,-2
1523010159468292,16,5,-7,-21,12,28,8,8
1523010159476313,-5,-5,-7,-5,-12,-23,-14,2
1523010159476313,-17,-6,1,23,14,3,-11,-1
1523010159491353,-5,-4,4,12,15,17,15,2
1523010159491353,-1,6,-3,-3,-12,-14,-14,-7
1523010159492356,3,-6,-4,-23,-16,-7,9,9
1523010159492356,-1,-2,-3,-7,-7,-8,3,-2
1523010159522436,6,-3,6,6,11,-4,-8,1
1523010159522436,-5,2,-4,2,0,4,0,0
1523010159523439,-16,-4,2,3,-7,3,3,-7
1523010159523439,9,-2,1,-3,-7,-16,-8,-1
1523010159537476,-1,-2,0,-6,-1,12,-1,-2
1523010159537476,-10,-8,1,6,7,-2,2,-2
1523010159538479,13,10,2,1,-4,-4,-6,4
1523010159538479,13,-11,-4,-3,-7,5,8,4
1523010159551513,10,7,1,0,-1,4,3,9
1523010159551513,-4,1,-1,-8,-4,-10,-12,-18
1523010159552516,-34,-7,0,4,-6,-2,-3,-13
1523010159552516,-5,-1,2,13,7,-17,0,2
1523010159574575,8,-4,-6,13,10,14,-2,4
1523010159574575,-6,1,7,6,-6,5,-1,4
1523010159575577,15,4,-7,-18,-7,-3,2,-4
1523010159575577,-6,1,1,-12,-2,0,0,-2
1523010159597636,-7,-7,-4,-5,-6,-7,-5,-2
1523010159597636,24,7,0,-3,-16,-4,-1,9
1523010159597636,-20,-7,-1,11,15,3,2,-3
1523010159597636,0,-2,-1,1,11,10,-3,-3
1523010159611673,-6,-2,-3,-5,-8,-7,0,-1
1523010159611673,-13,-3,0,-1,-2,-6,1,-2
1523010159612676,22,5,-1,-6,-8,-6,2,8
1523010159612676,4,1,-1,-8,-3,5,-4,-5
1523010159635737,-9,0,0,13,2,-9,-3,1
1523010159635737,-1,-5,-4,5,19,8,5,-8
1523010159635737,3,1,-1,-2,-3,6,0,3
1523010159635737,-2,-1,1,-13,-7,-4,-3,-3
1523010159656793,20,5,1,-2,1,-4,-2,7
1523010159656793,-16,-4,0,-1,-11,2,0,-3
1523010159658799,13,5,4,6,7,8,2,0
1523010159658799,-20,-10,-3,-1,1,-3,-1,-4
1523010159671833,-6,-6,-1,-12,-8,-9,-1,1
1523010159671833,13,-2,-6,-15,-12,4,3,3
1523010159672836,-8,2,0,8,16,-1,0,-1
1523010159672836,15,3,2,20,-2,-2,-4,-1
1523010159694894,-16,-7,0,-3,0,-5,0,-1
1523010159694894,-16,-1,2,10,9,8,2,-3
1523010159695898,29,6,-3,-21,-13,-5,-5,1
1523010159695898,-24,-13,-4,-8,-17,-2,0,-1
1523010159716953,13,7,0,13,15,-5,-8,-8
1523010159716953,-1,-2,3,3,15,8,11,4
1523010159717956,-11,-7,-2,-22,-12,9,-1,-3
1523010159717956,10,8,2,5,3,-10,-5,0
1523010159731993,-18,-13,-1,27,4,13,12,-3
1523010159731993,13,-1,-5,-1,-9,-15,-10,5
1523010159731993,5,4,-1,4,6,7,1,-1
1523010159731993,-14,-7,-2,-21,-14,-6,-1,1
1523010159755054,-7,-6,-4,-28,-11,-1,-1,-2
1523010159755054,8,3,6,16,11,0,3,5
1523010159756057,9,3,-2,18,-2,-7,4,4
1523010159756057,-4,0,-1,-6,-1,-11,-13,-10
1523010159777113,-9,-4,-3,-9,9,9,1,-3
1523010159777113,-2,0,-1,2,-6,5,2,3
1523010159778116,-5,-1,-3,3,-2,-12,4,3
1523010159778116,10,3,-1,1,5,18,0,5
1523010159800174,-4,-4,-1,-2,2,-6,-5,-4
1523010159800174,1,1,1,-11,-15,-17,-7,-3
1523010159800174,-11,-5,-4,-21,-4,-10,-2,-6
1523010159800174,-4,-1,0,28,25,32,13,-1
1523010159815214,-7,-9,-5,3,-5,4,-4,-2
1523010159815214,2,4,3,-8,0,-4,-5,-3
1523010159815214,2,-3,-5,4,-11,-12,-3,-3
1523010159815214,8,2,-1,-16,-7,-14,-2,2
1523010159837273,0,5,2,-5,-2,9,2,-1
1523010159837273,-1,-6,-4,-2,-4,8,3,-2
1523010159838276,8,2,-2,-4,3,-7,-5,2
1523010159838276,-8,-2,0,5,14,12,5,3
1523010159851310,-4,-4,-3,-4,-7,1,0,2
1523010159851310,-4,3,0,-3,0,-9,-13,-11
1523010159852313,-11,0,2,0,7,-1,3,-2
1523010159852313,14,-2,-2,8,-16,-1,5,3
1523010159874372,2,5,1,-17,1,4,-4,1
1523010159874372,-15,-7,-2,7,5,-1,-2,2
1523010159875375,-13,-8,-3,-27,-5,3,9,-2
1523010159875375,26,7,1,33,5,-15,-23,-2
1523010159897433,-22,-10,-3,10,5,-3,6,-4
1523010159897433,3,-2,-2,-8,-2,-4,-1,-1
1523010159898436,-12,-3,2,0,-1,27,-1,-3
1523010159898436,0,0,-1,-25,-22,-19,2,-1
1523010159910468,4,0,-2,-6,8,3,-7,-6
1523010159910468,-4,-6,3,10,13,18,7,1
1523010159919492,2,3,0,4,-5,-2,0,3
1523010159919492,-8,-3,-2,-2,1,-6,-2,-5
1523010159933529,15,4,-3,-6,-11,-8,-5,8
1523010159933529,-14,-6,-3,1,-1,-14,-2,-4
1523010159941550,0,1,-1,9,4,5,-9,-7
1523010159941550,1,1,-1,-4,7,18,6,-5
1523010159957593,-4,-6,0,-3,3,-6,-1,3
1523010159957593,-1,-4,-1,3,-10,4,7,2
1523010159957593,11,0,-1,1,4,-7,-11,2
1523010159957593,-4,-2,-2,-5,-4,-12,2,5
1523010159971631,10,3,3,2,-5,2,1,-7
1523010159971631,-11,-4,-1,0,1,-5,0,-1
1523010159972634,22,5,-2,6,-2,0,-2,3
1523010159972634,-7,-4,-3,-12,-7,1,4,0
1523010159994692,7,4,0,6,2,-3,-1,0
1523010159994692,-1,-4,0,1,11,1,1,-3
1523010159995695,-5,7,2,-13,-16,1,1,-6
1523010159995695,2,1,0,24,20,-9,-4,-6
1523010160017753,5,3,3,9,5,-8,1,-6
1523010160017753,2,-1,-2,-1,-2,23,-7,-12
1523010160017753,-18,-14,-3,4,4,2,2,-9
1523010160017753,3,3,0,-18,-14,3,7,-8
1523010160031791,-8,-2,0,-2,-7,-11,-5,-3
1523010160031791,9,2,1,2,2,-10,0,10
1523010160038809,1,0,0,3,0,8,1,14
1523010160038809,-21,-7,0,-5,-3,-2,-7,7
1523010160061870,2,0,-2,3,2,0,1,13
1523010160061870,14,1,-4,-7,-10,-4,1,20
1523010160062873,3,-4,-4,8,16,2,3,16
1523010160062873,5,5,-1,-1,2,-3,-2,1
1523010160076910,-7,-9,1,-2,-4,6,-3,-14
1523010160076910,-9,-3,-1,-11,-12,-6,-2,-12
1523010160077913,-2,4,2,7,15,-7,-6,-12
1523010160077913,-4,-7,-3,0,4,-2,2,8
1523010160090948,2,6,0,-6,-9,-3,-2,15
1523010160090948,3,-9,-1,0,1,16,-2,28
1523010160098969,-3,1,0,2,-8,-1,4,20
1523010160098969,1,5,-2,-6,-3,4,-1,29
1523010160115012,2,-8,-5,-5,5,-2,-1,30
1523010160115012,-6,-4,2,1,-6,-8,7,37
1523010160116015,7,5,0,-2,-16,-4,-9,89
1523010160116015,0,-2,-3,2,3,3,2,45
1523010160137070,-5,-11,-1,1,10,0,2,-9
1523010160137070,2,-2,0,-3,-9,-10,-19,-65
1523010160138074,-4,1,-1,1,-3,9,27,-85
1523010160138074,-3,-1,2,3,4,-8,-9,-61
1523010160151108,6,-1,-2,6,23,9,7,-44
1523010160151108,1,-1,1,3,1,0,4,-30
1523010160159129,1,-2,0,-3,-11,-7,4,-24
1523010160159129,-1,-6,-4,-11,-16,-6,-15,-15
1523010160175172,-12,-3,4,1,-7,2,4,-17
1523010160175172,0,5,0,-1,3,0,2,-11
1523010160175172,5,6,-2,-1,-8,-8,-12,-12
1523010160175172,-1,4,-1,1,4,6,19,-13
1523010160197230,1,-6,-3,-4,3,-2,-8,-6
1523010160197230,0,4,2,0,-1,8,2,-3
1523010160198233,-8,-25,-6,0,5,-7,-13,-11
1523010160198233,2,12,-1,-16,-43,-6,-1,-10
1523010160211268,1,9,2,23,82,19,1,3
1523010160211268,0,7,1,-2,-7,-10,-23,1
1523010160219289,-2,-4,2,2,9,9,18,-1
1523010160219289,-3,-10,-1,0,-5,-3,-9,-3
1523010160233326,2,7,-5,-14,-39,-2,23,4
1523010160233326,-4,-14,-1,2,7,-7,-7,5
1523010160242351,-3,8,5,6,10,3,-17,-3
1523010160242351,-8,-28,-10,-2,0,-2,18,2
1523010160256387,3,8,0,-7,-22,-7,-7,4
1523010160256387,2,-8,2,2,14,7,2,6
1523010160265412,-7,-4,3,3,-10,-9,0,0
1523010160265412,0,6,1,4,15,11,1,8
1523010160270425,5,5,2,-5,-15,-3,-6,3
1523010160270425,0,-3,-1,-4,-5,2,7,8
1523010160279449,-6,6,-6,-1,1,-10,-25,0
1523010160279449,-3,2,0,5,11,0,13,2
1523010160293486,-2,-8,0,-2,-13,-8,-28,4
1523010160293486,-4,-7,-3,-4,-8,-6,29,7
1523010160302510,0,6,0,-1,5,4,-4,2
1523010160302510,1,5,4,3,8,11,8,5
1523010160317550,-2,-7,-3,-7,-13,-7,0,1
1523010160317550,2,-2,1,4,0,2,-6,0
1523010160318553,9,14,-6,-1,-3,-6,-13,2
1523010160318553,-7,-1,-3,-7,-8,-3,-9,-3
1523010160330585,4,5,2,-2,-2,-9,14,4
1523010160330585,-6,-13,2,3,2,9,-11,1
1523010160339609,-1,2,1,0,3,6,5,5
1523010160339609,4,17,2,3,1,0,-6,2
1523010160353646,-4,-7,-6,-10,-14,-14,-12,4
1523010160353646,-4,-5,0,7,6,-7,12,2
1523010160362670,8,11,1,2,-3,6,6,3
1523010160362670,7,-6,0,0,1,0,-5,5
1523010160377710,-10,-1,2,1,-6,-1,-9,-1
1523010160377710,-8,-3,4,0,6,2,-1,1
1523010160378713,9,5,-8,-5,-4,0,10,9
1523010160378713,4,-3,0,1,6,-4,-10,5
1523010160390745,9,7,-5,-4,-7,7,1,13
1523010160390745,-5,3,-1,0,1,-7,-16,4
1523010160399769,-10,-13,1,2,4,5,11,12
1523010160399769,-9,-1,-3,0,4,3,3,3
1523010160413806,5,-10,4,2,-2,12,1,1
1523010160413806,-6,-9,-5,-5,-4,-7,0,-6
1523010160422833,-7,-3,-2,0,-6,-1,-5,-14
1523010160422833,8,12,-7,-7,-4,-16,-8,-16
1523010160436867,-3,-3,0,-1,-1,4,10,-9
1523010160436867,-2,1,1,1,-1,3,-2,-14
1523010160438873,-4,-10,-1,-1,-1,-6,0,-11
1523010160438873,-1,-3,4,-2,-3,3,-4,-11
1523010160459929,-5,-5,-4,-1,12,-3,-4,-6
1523010160459929,9,7,-3,-1,-9,-5,8,-5
1523010160461935,-1,2,-3,-2,2,-6,-2,-10
1523010160461935,0,1,1,-1,6,19,-1,-10
1523010160472964,-16,-1,5,2,-1,-11,-7,-20
1523010160472964,4,6,-9,-11,-16,-2,0,-12
1523010160481988,-3,-3,-2,7,18,-3,-5,-28
1523010160481988,6,4,3,1,-12,-7,-1,-27
1523010160497027,1,0,-1,-5,-11,1,-7,-19
1523010160497027,-2,-4,2,4,17,20,18,-6
1523010160499033,-4,-4,-2,5,18,-4,3,10
1523010160499033,0,-6,-1,-1,0,2,-4,20
1523010160520089,1,1,-2,1,1,-1,0,22
1523010160520089,-2,4,0,-6,-19,-14,-7,19
1523010160521092,1,-2,-1,-4,-5,-1,-5,27
1523010160521092,-3,-8,-4,-2,8,8,0,18
1523010160533123,11,11,1,-2,-6,2,0,12
1523010160533123,-8,-6,-4,-3,-11,-3,-12,12
1523010160542148,-1,7,-4,-6,8,1,3,6
1523010160542148,-1,3,6,-1,-4,-14,1,7
1523010160557187,-7,-12,-5,-2,-14,-7,-5,-5
1523010160557187,1,2,-2,2,18,-8,-13,-6
1523010160559193,3,5,2,-14,-15,23,24,-5
1523010160559193,3,0,-2,0,-3,-6,-7,1
1523010160580249,1,0,4,10,17,2,9,1
1523010160580249,-10,-9,-2,3,5,-5,-7,-1
1523010160581252,17,14,-4,-1,-13,0,-8,5
1523010160581252,-8,-22,-5,-5,-4,-5,-5,-1
1523010160593284,0,0,1,-3,-4,6,11,3
1523010160593284,-11,-8,0,0,0,-7,-1,5
1523010160602308,0,6,1,-2,-7,0,-4,1
1523010160602308,3,1,0,-1,0,6,1,1
1523010160618350,4,-6,-2,8,21,-5,-10,3
1523010160618350,3,4,0,-5,-12,-15,0,-2
1523010160619353,-15,-13,-7,-3,-4,11,-15,-7
1523010160619353,-3,1,0,8,10,1,12,-8
1523010160639406,1,-7,-3,-8,-9,7,0,-6
1523010160639406,11,13,1,0,3,1,11,-8
1523010160641412,-5,-3,3,-9,-15,-5,-10,-11
1523010160641412,-9,-15,-4,6,17,1,4,-13
1523010160653443,11,6,2,15,-1,6,-6,-5
1523010160653443,12,10,1,-8,-2,1,-5,-1
1523010160662468,-6,-1,-2,9,4,-13,3,4
1523010160662468,-11,-5,-2,-4,-19,-6,5,5
1523010160677507,-14,-5,1,7,17,-5,5,0
1523010160677507,15,7,-3,-2,-4,23,4,8
1523010160678511,6,3,1,-4,4,-8,-8,4
1523010160678511,7,3,4,-4,-14,-8,-4,2
1523010160699566,-9,-5,-7,-3,5,0,6,8
1523010160699566,6,2,-3,-1,-2,-8,-9,0
1523010160701572,1,-4,-3,-3,1,6,7,1
1523010160701572,0,-1,0,-2,-5,-8,-6,-2
1523010160713603,0,5,1,-15,-7,-6,-5,-6
1523010160713603,-13,-5,-3,21,25,4,-3,-2
1523010160722628,8,1,-1,3,-1,7,1,2
1523010160722628,7,-1,0,6,4,3,0,-4
1523010160737667,-23,-16,-4,-9,-12,6,-2,-4
1523010160737667,5,7,-1,-9,-5,-4,6,4
1523010160738670,-9,-5,0,4,2,-13,-5,-6
1523010160738670,-2,-3,-1,1,0,4,-4,-1
1523010160759726,15,11,0,-3,-3,-13,1,9
1523010160759726,-8,-6,-5,1,1,21,5,-10
1523010160761732,-5,-3,2,-13,-15,-12,-4,-1
1523010160761732,6,3,-1,4,18,1,-7,3
1523010160773764,7,-1,2,7,8,0,0,1
1523010160773764,-16,-6,-3,17,11,-6,6,-7
1523010160782788,3,4,1,3,-4,-4,-4,-4
1523010160782788,-9,-4,0,-10,-7,-8,8,0
1523010160796825,-7,-5,-5,-10,-9,5,-5,-11
1523010160796825,3,4,1,-5,-1,-2,2,7
1523010160798831,7,0,0,0,2,1,-2,0
1523010160798831,-10,-3,-2,-6,-7,-8,-5,-2
1523010160819886,1,-1,-1,1,0,-6,-1,-3
1523010160819886,5,0,-2,-8,-11,-5,-1,3
1523010160821891,0,0,-1,10,8,13,2,0
1523010160821891,21,8,4,3,-4,2,-6,-1
1523010160832921,-29,-12,-2,-5,-7,-8,-1,-3
1523010160832921,-1,1,-1,-1,2,-3,4,8
1523010160841945,2,-3,-4,-3,0,2,-3,-1
1523010160841945,10,4,0,-1,-4,-3,-1,2
1523010160857987,-5,-2,-2,-2,-2,-1,-1,-2
1523010160857987,-1,3,1,-1,-2,-1,-1,-3
1523010160859993,-2,1,2,3,-5,-4,2,0
1523010160859993,-10,-5,-2,-3,4,1,-8,-8
1523010160880046,13,4,-1,-1,-4,3,1,4
1523010160880046,7,2,2,-6,-5,1,-7,-4
1523010160881049,-9,-5,-5,0,-3,-9,-1,-1
1523010160881049,0,-2,2,-2,9,13,-1,0
1523010160893081,-13,1,4,11,2,-3,-2,-4
1523010160893081,-4,-2,-3,1,2,4,0,-1
1523010160910126,8,5,-1,-6,-2,-4,0,1
1523010160910126,14,0,-6,-21,-25,-9,-3,1
1523010160917145,18,8,1,19,11,0,-1,0
1523010160917145,-3,1,3,14,5,4,-3,-2
1523010160919150,-24,-8,-2,-4,-7,3,2,-4
1523010160919150,-4,-2,0,-2,2,-3,2,0
1523010160940206,16,7,0,-17,-11,0,-4,-3
1523010160940206,-19,-11,-4,-10,-8,-5,-1,0
1523010160941209,14,5,0,1,9,5,4,5
1523010160941209,-18,-11,-5,3,7,1,-2,-8
1523010160953241,5,3,3,15,1,-2,2,0
1523010160953241,-6,-8,-6,-17,-14,-12,-4,1
1523010160962265,6,1,-4,-21,-12,-5,-3,-5
1523010160962265,-1,-3,7,30,20,1,0,1
1523010160977305,-7,-2,0,31,26,17,0,-2
1523010160977305,7,0,1,3,-12,-5,-1,-4
1523010160979310,-14,-7,-3,-15,-2,-8,-3,-1
1523010160979310,1,7,-2,-17,-23,4,1,1
1523010160999364,3,-3,-1,13,2,-8,1,0
1523010160999364,-2,0,-1,-7,6,-2,-10,-3
1523010161001369,6,2,1,11,2,3,2,-5
1523010161001369,0,-4,-1,-8,-2,-15,-14,0
1523010161013401,-4,2,-1,-13,-1,17,4,1
1523010161013401,15,7,-1,-1,-3,6,0,-2
1523010161022425,-11,-4,-2,2,2,-2,1,0
1523010161022425,-2,2,3,12,3,-2,2,-1
1523010161037465,-14,-10,-4,-27,-24,-6,0,4
1523010161037465,1,2,-1,5,18,1,-5,-3
1523010161038468,-10,-3,-1,13,5,3,1,2
1523010161038468,17,5,2,0,-5,-5,1,-3
1523010161061529,-17,-10,-2,-8,-3,8,3,-1
1523010161061529,-7,0,0,-6,0,1,2,-5
1523010161062532,-3,-2,-4,0,2,2,-3,-1
1523010161062532,-5,-3,-4,1,0,-2,2,3
1523010161073561,10,3,-1,-15,-12,-12,-4,0
1523010161073561,-5,1,1,-10,-4,0,-1,0
1523010161082585,8,-3,0,20,2,2,1,2
1523010161082585,7,4,2,11,7,5,-1,-1
1523010161097625,-4,0,-1,-8,-8,-6,-1,-2
1523010161097625,-11,-8,-1,4,2,-2,-2,-3
1523010161098628,21,11,-2,-23,-5,10,-7,4
1523010161098628,-6,-5,0,12,0,0,3,-4
1523010161119684,13,3,2,12,9,-8,-7,-5
1523010161119684,-10,-3,2,-1,-7,6,3,-2
1523010161125699,-6,-1,-4,-11,-7,-10,-3,-4
1523010161125699,-3,-1,-2,3,4,6,3,3
1523010161133721,9,-1,0,-3,-7,-6,-3,-1
1523010161133721,-3,-4,-2,-3,-1,-4,0,1
1523010161142745,1,5,1,2,-1,12,2,-2
1523010161142745,-6,0,-1,-9,3,-11,-7,-2
1523010161156782,-8,-4,-2,0,3,10,7,-2
1523010161156782,7,1,0,4,7,-4,3,-2
1523010161158788,1,3,1,16,-4,-11,-5,-7
1523010161158788,-2,1,2,-6,3,2,-1,-4
1523010161179843,-10,-8,-2,-8,-8,-8,-5,-5
1523010161179843,5,-2,-1,0,-3,2,2,-7
1523010161181849,0,3,-1,-9,-16,-12,-3,-15
1523010161181849,-2,-5,-1,0,10,9,-2,-18
1523010161201902,9,8,2,5,3,1,6,-16
1523010161201902,-12,-16,-4,1,-1,9,2,-1
1523010161203908,-1,1,0,0,-5,-10,0,8
1523010161203908,-4,-6,-5,-17,-22,-9,3,17
1523010161215939,-1,2,4,9,17,-1,-16,21
1523010161215939,7,-5,-3,5,6,6,-3,28
1523010161224964,-5,3,-4,0,-2,-12,2,23
1523010161224964,4,0,-2,-10,-18,4,-7,19
1523010161240003,4,-1,-2,2,14,-3,3,7
1523010161240003,-5,-1,3,3,0,6,0,-9
1523010161241006,-6,-4,0,3,9,-2,0,-10
1523010161241006,-1,-4,-2,-3,-3,2,8,-13
1523010161253038,-8,-4,0,-6,-11,0,-4,-18
1523010161253038,3,-3,-2,1,-3,-7,-3,-6
1523010161262062,3,8,-8,-9,6,-4,2,-4
1523010161262062,4,3,-2,-2,-2,12,15,13
1523010161276099,-5,-2,0,10,13,1,-8,6
1523010161276099,-2,-2,0,-7,-11,-16,-2,31
1523010161285123,5,7,1,1,3,12,-5,40
1523010161285123,-4,8,5,4,0,3,-4,24
1523010161300163,-4,-35,-12,-9,-9,-1,9,27
1523010161300163,7,19,2,-2,-12,-12,-9,2
1523010161301166,0,1,-1,-3,-12,2,-4,-7
1523010161301166,-7,-2,1,14,43,4,-13,-13
1523010161313198,3,6,3,-6,-15,2,21,-20
1523010161313198,-5,-2,-5,0,-2,-8,4,-25
1523010161322223,-3,-6,-3,-6,-16,-4,-8,-23
1523010161322223,-6,-10,2,-6,-15,-3,-10,-19
1523010161336259,2,6,1,6,26,0,0,-15
1523010161336259,3,-7,-5,-4,-1,1,2,-10
1523010161343278,-9,4,1,4,-7,2,1,-10
1523010161343278,-2,7,-4,-5,-11,-7,-1,-13
1523010161359321,-2,-6,-3,-7,-5,2,-6,-9
1523010161359321,6,8,3,-1,-9,-8,1,-4
1523010161361326,2,-3,-6,4,17,2,-4,-11
1523010161361326,-4,1,0,-4,-22,-6,-1,-8
1523010161382382,2,2,2,2,17,16,4,2
1523010161382382,-5,-1,3,3,4,10,-1,-9
1523010161383385,-6,-27,-1,-2,-14,-8,2,-6
1523010161383385,-6,-8,-1,0,10,-6,2,-3
1523010161396419,9,15,-4,-4,-13,-5,14,3
1523010161396419,-5,-11,-3,-6,-11,-2,-17,-3
1523010161403438,6,18,4,11,47,4,-3,-3
1523010161403438,-2,-20,-5,-2,-6,3,13,3
1523010161419481,-12,-13,-1,-6,-26,-4,-7,-1
1523010161419481,7,21,7,0,7,1,17,3
1523010161421486,-9,-16,-2,0,-6,-3,-17,-3
1523010161421486,3,7,-6,4,12,0,-14,1
1523010161442542,3,-4,-4,-5,-14,-6,-1,1
1523010161442542,1,6,1,4,0,-1,0,0
1523010161443545,-8,-4,2,1,-7,4,5,0
1523010161443545,4,13,5,4,15,3,13,1
1523010161456579,-6,-19,-5,-6,-12,-8,-22,-1
1523010161456579,2,9,1,2,2,5,1,2
1523010161463598,4,3,-5,-3,1,-5,3,5
1523010161463598,4,6,-2,-2,-5,-8,-2,0
1523010161479641,-6,-8,1,-2,-8,7,-14,0
1523010161479641,-1,-1,1,0,5,10,34,3
1523010161481646,3,3,-3,-1,3,-1,2,3
1523010161481646,1,18,3,-1,15,-4,-2,0
1523010161502702,1,-18,2,0,0,-9,-5,5
1523010161502702,-6,0,-5,3,5,5,-14,-2
1523010161503705,-3,6,-3,-5,-24,-1,7,-1
1523010161503705,3,1,-6,0,3,-6,-11,2
1523010161515737,-6,6,13,6,13,9,6,0
1523010161515737,6,-12,-12,-7,-12,-3,-12,5
1523010161524761,6,8,1,3,14,3,8,-1
1523010161524761,-5,-13,-1,3,6,3,-2,3
1523010161539801,0,15,2,-1,0,-2,14,-1
1523010161539801,0,-1,-2,0,-9,-15,-10,-1
1523010161541806,-3,-2,-1,-1,-2,17,1,2
1523010161541806,2,-10,-6,-7,-8,0,0,3
1523010161561859,-8,-6,1,2,1,-5,2,-2
1523010161561859,2,12,3,-1,3,-4,-6,1
1523010161563865,0,3,-1,-1,3,-5,-1,5
1523010161563865,-5,-7,-3,-5,-6,1,-3,4
1523010161575897,-1,4,-1,-1,-4,-4,9,11
1523010161575897,-1,8,0,-2,-9,-1,-13,15
1523010161584921,0,-10,-1,2,22,3,0,17
1523010161584921,4,12,5,1,-12,-2,8,20
1523010161599961,-4,-23,-11,-5,-5,-9,-22,5
1523010161599961,-9,-1,0,-3,-13,0,17,-4
1523010161600963,-2,-2,3,5,12,8,8,-9
1523010161600963,-4,-9,-1,1,6,5,0,-15
1523010161622020,13,29,1,-1,-1,-7,-4,-20
1523010161622020,0,-11,0,-1,0,0,-7,-17
1523010161624025,-1,-8,-5,-6,-10,-11,-6,-21
1523010161624025,-1,-2,4,3,0,-6,3,-22
1523010161636057,-10,-16,-7,-1,0,7,1,-22
1523010161636057,4,15,-4,0,8,10,1,-30
1523010161651097,1,2,2,-3,-5,2,3,-32
1523010161651097,0,6,-1,0,-4,-3,-4,-34
1523010161660121,5,-4,-4,-4,-3,-5,5,-20
1523010161660121,2,1,1,1,7,-1,0,-12
1523010161661124,-1,-4,-2,-2,-7,-4,-1,1
1523010161661124,3,9,2,-3,-12,-1,-4,2
1523010161682179,-1,-3,1,4,7,-3,-7,8
1523010161682179,-9,-13,-5,1,6,4,12,18
1523010161684185,0,7,-1,1,-5,-5,-6,23
1523010161684185,5,-1,-1,-5,-1,-1,2,34
1523010161696217,-2,12,1,0,-7,1,-6,26
1523010161696217,-3,-6,-1,-4,-5,0,6,25
1523010161705241,2,-3,-1,-1,7,-2,-14,16
1523010161705241,4,-1,-3,-4,-19,-17,-2,8
1523010161719278,5,3,-1,-6,5,6,-3,5
1523010161719278,-10,-4,2,8,17,18,-5,-8
1523010161721284,6,0,-4,-4,-13,-11,2,2
1523010161721284,-12,-11,-3,-1,3,4,3,-2
1523010161742340,-3,-4,-1,-1,-4,1,-1,9
1523010161742340,9,6,-2,-5,-4,-6,-5,8
1523010161744345,-2,0,1,1,-3,-2,1,5
1523010161744345,6,-5,-1,-1,2,-3,-4,11
1523010161755374,-6,-7,0,-1,-2,-2,4,12
1523010161755374,-3,3,0,2,8,0,-8,7
1523010161765401,12,1,2,2,-7,2,-1,2
1523010161765401,-11,-12,0,-2,6,-1,1,-6
1523010161779438,-8,4,-1,-3,-1,1,-2,-28
1523010161779438,5,-2,2,2,3,-2,0,-23
1523010161781443,4,0,3,-13,-13,-6,-1,-33
1523010161781443,-6,-5,1,15,21,2,-3,-28
1523010161802499,11,9,0,-12,-19,-6,-1,-5
1523010161802499,-8,-5,-4,13,9,-12,-1,-4
1523010161803502,-1,-2,-2,-4,-9,7,3,6
1523010161803502,8,-4,0,-7,-2,13,3,9
1523010161815534,-7,2,2,7,6,-12,-6,6
1523010161815534,1,1,0,-6,-16,-6,6,9
1523010161824558,-3,-5,1,2,4,-1,-4,2
1523010161824558,0,-1,1,0,-2,7,-2,4
1523010161839598,-6,3,-1,-1,6,0,2,3
1523010161839598,13,11,3,6,3,-13,-5,-6
1523010161841604,-28,-20,-6,-2,1,6,5,2
1523010161841604,6,2,-3,-2,-11,-6,-1,-3
1523010161862659,7,7,6,7,7,4,1,0
1523010161862659,-13,-6,-1,0,1,-7,-4,-2
1523010161863662,6,-2,2,7,11,1,1,3
1523010161863662,1,2,0,-7,-8,-3,4,-5
1523010161875694,0,-6,-4,-3,-3,-5,0,-1
1523010161875694,-7,-4,-3,-11,-11,-1,-3,0
1523010161884718,-5,2,3,1,6,7,1,-3
1523010161884718,1,-3,-2,-6,-1,-1,-1,0
1523010161899758,-14,2,0,0,0,-3,-3,-2
1523010161899758,10,0,-2,6,5,9,2,7
1523010161901763,19,-2,-5,-19,-15,-8,1,6
1523010161901763,-4,4,2,27,10,-5,-3,1
1523010161921817,14,6,0,-1,8,4,-1,-4
1523010161921817,-9,-2,-1,-10,-6,14,-3,-10
1523010161923822,-11,-3,1,-8,1,-4,-1,2
1523010161923822,7,-4,-2,-10,-2,0,1,1
1523010161935854,-3,-2,-1,14,2,-6,-7,-7
1523010161935854,-7,-2,-2,11,1,-8,4,9
1523010161944878,6,0,1,-1,-4,4,-1,-3
1523010161944878,-2,-4,-2,-7,-2,-1,-2,0
1523010161966936,-15,-6,-4,-5,-6,3,4,1
1523010161966936,5,2,0,-12,-3,0,-1,-2
1523010161968942,-5,0,0,10,9,-1,1,-3
1523010161968942,1,-6,-2,2,-9,-4,-4,-1
1523010161981976,17,3,-1,-2,-3,4,6,7
1523010161981976,14,3,1,-1,1,4,-4,-4
1523010161983982,-24,-6,0,-1,-1,-5,1,-2
1523010161983982,-4,-2,2,-1,2,3,1,1
1523010161996014,-4,2,0,-1,0,1,-3,-4
1523010161996014,6,3,-1,-5,-2,-2,-4,-3
1523010162005038,-34,-13,-1,3,-5,-15,-2,-5
1523010162005038,11,-2,-2,-6,0,23,1,6
1523010162020078,8,5,-1,7,2,-13,5,-3
1523010162020078,-5,-3,-5,-5,-12,-2,-2,-1
1523010162021081,17,6,2,6,17,10,-1,-1
1523010162021081,-20,-6,-1,-5,-4,-9,0,-3
1523010162042137,-2,0,-1,-10,-1,4,-2,0
1523010162042137,3,-3,-2,6,1,0,-1,1
1523010162044142,-7,-1,-2,3,-9,-7,-2,-2
1523010162044142,10,2,-1,-5,-1,-5,-3,0
1523010162056174,-3,-5,0,0,2,5,0,0
1523010162056174,-15,-1,1,9,1,-6,-1,0
1523010162065198,7,3,-1,0,1,7,-1,5
1523010162065198,-12,-4,-1,0,-2,-5,-4,-5
1523010162080238,12,3,-2,-5,-4,-2,-2,2
1523010162080238,2,0,-2,-1,3,2,1,5
1523010162081241,9,0,1,-15,-9,-3,-4,-4
1523010162081241,-15,0,-1,7,2,-1,3,1
1523010162102297,-11,-5,4,40,5,-3,-3,-4
1523010162102297,-4,-4,-2,-14,-2,-2,-4,-1
1523010162104302,6,3,0,-2,-7,-3,1,0
1523010162104302,-3,-2,0,-15,-2,-6,-1,-1
1523010162116334,2,-4,-3,-7,-3,-2,0,0
1523010162116334,7,5,-1,0,1,-1,0,-2
1523010162125358,-9,-5,-1,1,4,5,1,-1
1523010162125358,-9,-6,-2,-3,-3,-3,-2,-4
1523010162139395,17,0,-5,-5,0,-1,1,8
1523010162139395,-2,2,0,-20,-11,-12,-4,-5
1523010162141401,-1,-4,-2,22,11,3,-1,-1
1523010162141401,0,-2,-1,9,7,15,4,-3
1523010162162457,-6,0,5,0,-6,-6,-2,-5
1523010162162457,-1,-3,-6,-7,1,-2,7,5
1523010162163459,6,3,-2,-5,-8,-9,-8,-1
1523010162163459,6,1,2,0,-3,-3,0,6
1523010162175491,-12,-6,-3,-14,-8,2,-5,-6
1523010162175491,-22,-8,-1,8,6,11,5,-1
1523010162184515,9,0,0,12,0,-10,0,-3
1523010162184515,20,10,1,4,1,-3,3,6
1523010162199555,-24,-8,-3,-16,-3,6,0,-1
1523010162199555,3,2,-1,-9,-10,-2,-3,-2
1523010162205571,-5,-2,-3,4,11,6,1,1
1523010162205571,-12,-5,-2,0,-7,-8,-6,-13
1523010162222617,2,-3,1,-2,1,-3,0,1
1523010162222617,19,8,0,3,1,-8,-6,1
1523010162223619,-5,-13,-4,-3,-6,14,5,5
1523010162223619,10,1,-1,-10,-6,-3,-1,-1
1523010162235651,-15,0,0,-11,7,1,-1,-2
1523010162235651,-13,-6,-3,20,14,2,-6,-1
1523010162244675,21,10,0,10,3,-7,1,1
1523010162244675,-7,-2,0,10,0,9,-8,-3
1523010162258713,0,-2,-3,-5,-6,-4,8,0
1523010162258713,9,7,0,-21,-12,-9,1,2
1523010162265731,-8,-6,-2,-5,-8,-6,-5,1
1523010162265731,-13,-5,1,3,7,5,2,-2
1523010162282777,5,4,0,4,-1,0,-4,-5
1523010162282777,6,-3,-3,1,1,-1,2,1
1523010162288793,6,6,-3,-13,-9,-4,-1,-4
1523010162288793,-13,-8,-2,-4,-12,8,0,2
1523010162295811,0,-2,-1,-3,8,-10,1,0
1523010162295811,1,4,0,0,-4,3,-1,0
1523010162304835,2,-1,-4,1,1,-1,-5,-4
1523010162304835,-1,2,-1,3,1,-12,-1,-4
1523010162318873,-6,-8,-2,-3,-10,5,1,4
1523010162318873,-2,0,3,-4,-3,3,-3,-5
1523010162325891,-1,-1,3,-3,4,7,2,-1
1523010162325891,5,3,-1,7,6,-5,0,-3
1523010162341934,1,2,4,6,1,3,-2,-4
1523010162341934,-14,-8,-5,0,-2,-13,1,-1
1523010162343939,11,-1,-3,-12,-11,-6,3,6
1523010162343939,9,6,-2,-3,2,-6,-5,-5
1523010162364995,-4,-6,0,2,3,8,-2,-1
1523010162364995,-3,-2,1,6,-8,4,0,-2
1523010162365998,-11,-2,3,4,21,-2,-2,0
1523010162365998,-6,-6,-1,-9,-16,-8,0,0
1523010162379033,24,10,0,5,2,-7,-5,-3
1523010162379033,-5,-4,3,8,0,12,8,-5
1523010162386051,10,6,0,-5,-9,-4,-1,-8
1523010162386051,-12,-7,-2,-8,3,-4,2,-9
1523010162402094,3,-1,2,-2,-10,3,-3,-16
1523010162402094,0,-2,-3,-13,-20,-3,1,-11
1523010162404099,0,4,2,17,30,-2,-6,-1
1523010162404099,0,-1,1,3,6,4,6,9
1523010162425155,1,-1,0,-1,-7,-1,-3,18
1523010162425155,-3,0,-2,5,11,2,-5,21
1523010162426158,-2,-3,-3,-13,-30,-2,8,14
1523010162426158,7,5,-3,-6,5,0,-14,-10
1523010162439193,-5,-14,-2,2,0,-17,-1,-21
1523010162439193,5,6,-2,2,5,5,-3,-20
1523010162446211,0,0,-1,-7,-2,11,2,-12
1523010162446211,-4,-2,0,-3,-9,-10,-3,-4
1523010162462254,4,1,1,1,5,6,3,-3
1523010162462254,-11,-13,-5,0,0,-8,-3,-3
1523010162464259,-10,-5,0,-3,3,-3,-2,-1
1523010162464259,12,5,-1,3,9,9,4,11
1523010162484312,1,6,0,-2,-4,-11,-9,9
1523010162484312,-5,-5,-3,-3,3,9,9,19
1523010162486318,2,2,-1,4,5,0,-7,18
1523010162486318,-6,-10,-2,-7,-9,-1,1,15
1523010162499353,-4,-6,0,9,18,4,-1,30
1523010162499353,1,3,1,1,4,-1,4,49
1523010162506371,-9,-3,-4,-4,-14,-5,-6,29
1523010162506371,11,10,-1,-5,-4,-7,-2,25
1523010162522414,1,-2,1,-8,-31,2,-3,7
1523010162522414,-5,-3,-1,9,26,4,-2,-3
1523010162524419,-6,-4,4,-3,0,-1,-1,-9
1523010162524419,2,-3,1,0,-4,-2,-1,-9
1523010162544473,-10,-21,-5,-5,-6,-1,0,-9
1523010162544473,10,24,1,-1,-12,-5,-3,-23
1523010162546478,9,-6,2,0,0,-4,0,-25
1523010162546478,-14,-19,-7,-1,1,1,2,-26
1523010162558510,9,10,2,-1,3,4,4,-16
1523010162558510,-3,-3,1,-5,-15,-2,2,-19
1523010162567534,-1,0,-2,-5,-2,-11,-4,-13
1523010162567534,-3,0,4,9,6,7,-6,-9
1523010162582574,-3,-7,0,6,16,3,12,-2
1523010162582574,6,-1,-3,-2,-7,-9,-6,-1
1523010162583577,-2,9,-5,-5,-18,5,8,-6
1523010162583577,-1,-3,1,-2,-3,-4,-3,-1
1523010162604632,-7,-1,-2,-1,8,2,-2,-7
1523010162604632,5,11,2,1,-7,4,-5,-3
1523010162606638,-6,-18,-2,0,-5,-3,-2,-3
1523010162606638,4,9,-1,-2,2,1,2,0
1523010162618670,4,12,3,2,2,-8,-9,-6
1523010162618670,-2,-9,-1,-2,1,-4,4,-3
1523010162627694,2,8,-1,2,5,6,-1,-3
1523010162627694,-16,-18,-3,1,-5,-4,4,-8
1523010162642734,0,-5,-4,-3,9,4,1,0
1523010162642734,0,0,-2,-2,-5,-2,-7,-1
1523010162643737,-4,2,-1,1,2,2,3,2
1523010162643737,0,-2,3,2,-2,-4,3,-1
1523010162671811,-10,-8,-2,-3,-1,3,0,-4
1523010162671811,20,25,-2,0,2,-12,-19,0
1523010162673817,-2,-6,-7,-7,-1,-4,8,4
1523010162673817,-1,-4,0,-2,-2,17,3,-1
1523010162678830,-3,2,3,2,-9,1,5,0
1523010162678830,-15,-30,-6,-2,-3,-3,5,-2
1523010162687854,1,7,0,0,11,-6,-15,0
1523010162687854,2,1,0,0,3,-6,0,4
1523010162701891,-2,-4,-1,-8,-17,-3,2,4
1523010162701891,-2,3,3,5,33,6,-13,-3
1523010162703897,0,3,-3,2,-4,0,3,1
1523010162703897,9,5,-2,-2,-4,1,0,7
1523010162724953,-2,-8,-6,-9,-20,-9,2,11
1523010162724953,-2,4,1,-1,-8,-8,3,10
1523010162726958,-5,-4,2,7,21,5,-6,12
1523010162726958,-10,-7,1,-1,1,15,-2,21
1523010162737987,-2,-3,-2,-1,-4,-3,1,22
1523010162737987,9,20,1,-1,-12,-8,7,15
1523010162747011,-7,-14,-6,-8,-11,3,-6,4
1523010162747011,5,11,3,3,8,-10,-12,-10
1523010162762052,3,1,0,9,20,4,5,-16
1523010162762052,-8,-13,-7,-3,2,4,3,-31
1523010162764057,3,7,2,0,-10,-9,1,-31
1523010162764057,0,1,-2,-3,-15,-3,-6,-25
1523010162785113,-11,-26,0,1,10,7,-1,-22
1523010162785113,11,18,0,-2,3,1,-2,-13
1523010162786115,-5,-2,-1,-3,-8,-3,-11,-19
1523010162786115,7,6,0,-9,-15,-15,6,-8
1523010162798147,-1,-5,0,11,1,3,-9,-14
1523010162798147,0,2,-1,9,23,22,8,-15
1523010162807171,-5,-11,3,-2,0,3,-6,-18
1523010162807171,7,7,0,-6,-5,-8,4,-14
1523010162822211,-8,0,-2,-6,-17,-15,-7,-36
1523010162822211,-8,-16,-4,5,7,-1,-4,-24
1523010162824217,11,12,-1,-2,-2,5,6,-6
1523010162824217,-13,-12,-1,-1,-11,-5,-6,5
1523010162845272,14,24,3,-1,11,4,8,24
1523010162845272,-1,-10,-5,-4,-10,2,0,40
1523010162846276,-8,-14,1,1,7,-4,2,35
1523010162846276,-3,7,2,0,-2,-10,-2,26
1523010162858307,-2,-4,-5,-17,-22,-9,-9,32
1523010162858307,-8,-4,-3,3,12,8,-4,16
1523010162867331,1,4,-2,-6,1,9,7,14
1523010162867331,4,-1,-1,13,10,2,8,10
1523010162882371,1,7,-1,-1,6,1,-10,-3
1523010162882371,3,3,6,-12,-25,-20,5,13
1523010162884377,10,-1,-4,21,27,2,1,15
1523010162884377,5,-3,-2,-5,10,10,8,26
1523010162904430,-1,1,2,25,17,-6,-6,14
1523010162904430,4,5,2,-9,-19,-5,2,8
1523010162906436,-8,-7,1,-11,-17,10,5,-12
1523010162906436,-3,-5,-1,0,7,-4,-1,-29
1523010162918467,8,8,1,-3,0,-1,3,-27
1523010162918467,3,-14,-2,3,-4,-8,-7,-24
1523010162927491,-6,-4,0,-1,7,10,-3,-19
1523010162927491,7,3,-7,-3,-3,-5,-2,0
1523010162942531,-22,-8,1,-16,-19,-2,8,1
1523010162942531,24,13,-6,-5,-8,-14,-3,4
1523010162943534,0,-1,3,31,23,7,1,7
1523010162943534,-3,-3,1,14,14,14,0,0
1523010162964590,-8,-1,-3,3,1,7,9,2
1523010162964590,-13,-11,-3,-10,-9,-7,-1,-1
1523010162966595,3,7,2,-20,-22,-12,0,3
1523010162966595,14,3,3,-5,0,6,-2,1
1523010162978627,-13,-5,-4,7,7,-3,4,4
1523010162978627,0,-4,0,-1,2,10,-3,-10
1523010162987651,3,2,-2,-8,-12,-18,-12,-5
1523010162987651,-12,-6,-1,5,12,14,5,-2
1523010163009710,24,6,-4,-4,-1,-2,-3,2
1523010163009710,-4,5,0,0,-6,0,3,2
1523010163011715,-3,-6,2,-2,-9,-15,-4,-5
1523010163011715,2,0,-4,6,2,6,-3,-6
1523010163024750,27,12,4,-7,-1,-3,-7,-3
1523010163024750,-26,-8,-4,4,6,1,-3,-4
1523010163026756,0,-2,3,9,4,10,1,5
1523010163026756,0,3,-3,-21,-12,-14,1,-4
1523010163038788,-6,-1,0,14,0,1,-6,0
1523010163038788,9,-1,1,-11,0,2,4,-1
1523010163047811,-10,1,0,-2,-12,-23,-4,-2
1523010163047811,-12,-4,-2,-4,2,13,-1,-5
1523010163062851,-1,0,-1,-9,1,4,1,-3
1523010163062851,-5,1,0,-6,3,-5,-1,-3
1523010163064856,1,-6,-4,-2,-2,6,0,-4
1523010163064856,4,5,3,10,-13,-14,-9,-2
1523010163084910,-6,2,-2,-1,5,-9,-1,-1
1523010163084910,11,-3,-3,-7,-6,14,6,4
1523010163086915,6,-3,0,10,13,-1,2,-1
1523010163086915,-21,-6,1,-8,-6,-11,-3,-7
1523010163098947,-9,3,-3,-5,-4,3,-2,-6
1523010163098947,-12,2,-1,8,6,0,-1,-4
1523010163106968,13,2,4,7,-2,-1,-1,1
1523010163106968,-10,-6,-1,3,3,4,1,0
1523010163130030,17,-2,-4,-5,3,9,1,7
1523010163130030,-6,2,1,0,-8,-5,0,4
1523010163131032,0,1,-4,-13,2,10,1,3
1523010163131032,-23,-7,-1,9,0,-7,3,-12
1523010163145070,-12,2,-1,2,-6,0,0,-1
1523010163145070,4,-4,-4,-11,3,-3,-10,-6
1523010163146073,14,1,-3,-7,-23,-14,-6,3
1523010163146073,7,0,0,1,14,22,8,6
1523010163167128,11,-4,-4,-23,-8,1,-1,1
1523010163167128,-6,3,2,32,9,-12,-5,-3
1523010163169134,-17,-2,-2,0,-4,1,-1,-6
1523010163169134,10,2,-2,-9,-11,-15,-3,9
1523010163183171,-3,1,-4,-6,3,2,-4,-9
1523010163183171,-4,-1,2,-6,2,9,2,6
1523010163190190,6,4,2,-6,-6,-2,0,-1
1523010163190190,-2,0,-2,-2,-3,-14,-3,2
1523010163205230,8,-2,-2,2,1,8,3,7
1523010163205230,-6,-1,-4,-2,-1,-1,-5,-4
1523010163206233,1,-3,0,-3,1,0,-2,-1
1523010163206233,-9,-3,-3,-11,-4,-1,0,0
1523010163218264,-20,-4,3,18,4,5,-1,-5
1523010163218264,26,1,-2,4,3,-12,-3,2
1523010163227288,-29,-4,-1,3,-2,1,4,-4
1523010163227288,13,-3,-1,-33,-8,3,3,9
1523010163241326,8,7,0,34,14,-9,-7,1
1523010163241326,-10,-5,-1,15,-2,2,-5,-8
1523010163248345,-6,-4,-2,-17,-4,-4,-3,-3
1523010163248345,4,-1,-3,-7,-11,-4,-6,-4
1523010163264387,-3,2,-1,-24,-13,-4,6,-2
1523010163264387,-7,-7,-2,4,5,12,7,3
1523010163266393,11,5,0,-1,0,-12,-9,3
1523010163266393,-12,-7,-1,-3,-6,10,-6,-5
1523010163287448,5,4,4,3,-7,-18,-2,-4
1523010163287448,-2,3,-2,-16,-7,19,5,-1
1523010163288451,10,-3,-2,2,8,2,3,5
1523010163288451,3,-1,-5,12,12,6,-2,-1
1523010163301486,3,-3,-4,-7,-4,-7,-6,5
1523010163301486,9,6,1,12,6,6,1,-5
1523010163308505,-23,-7,0,-15,-8,0,-3,-5
1523010163308505,-4,-2,0,11,1,-1,-3,-4
1523010163324547,3,0,-3,-2,-4,-1,-1,-1
1523010163324547,2,2,-1,-7,-11,-3,-4,3
1523010163326553,14,4,-2,-3,5,-1,3,0
1523010163326553,-18,-6,1,10,2,-11,2,-1
1523010163347608,10,-3,-1,8,3,13,4,7
1523010163347608,-7,-1,0,-16,2,-1,0,-2
1523010163348611,1,-3,0,4,-2,2,-1,-4
1523010163348611,20,11,2,-1,-6,-6,1,2
1523010163361646,-38,-16,-2,-6,6,-5,-8,-6
1523010163361646,1,1,-1,8,2,2,13,0
1523010163368664,-10,-7,-1,5,-2,-1,2,0
1523010163368664,10,7,2,-1,4,-1,-3,-6
1523010163385710,3,2,-1,-6,-16,4,0,4
1523010163385710,5,7,-2,-4,-12,-23,-6,-4
1523010163386712,-23,-5,-2,14,24,6,0,-5
1523010163386712,4,1,2,-21,-11,1,-2,-1
1523010163407768,-15,-3,-2,24,23,11,4,-1
1523010163407768,0,1,3,2,-1,-13,-2,0
1523010163408772,6,3,-2,2,-16,-5,-3,-2
1523010163408772,-5,-13,-2,14,10,-8,-6,-3
1523010163421806,8,4,-2,-19,-12,1,-2,-1
1523010163421806,5,3,-4,-6,1,-1,4,5
1523010163428824,0,-2,-3,-5,-1,0,1,-2
1523010163428824,15,8,0,-3,-1,0,-2,-1
1523010163444867,-2,-6,1,-5,-7,-14,-2,-5
1523010163444867,-12,-5,-2,-1,2,3,-4,-6
1523010163446873,18,6,0,-5,-4,-4,-4,1
1523010163446873,-2,-12,-2,-3,-2,-3,2,-1
1523010163466926,8,5,1,-8,-12,0,4,-1
1523010163466926,-8,-8,-5,9,25,0,3,4
1523010163468931,-11,-5,1,-9,-20,8,5,9
1523010163468931,2,5,-2,12,23,11,-4,-5
1523010163481966,8,3,2,6,-2,-7,0,-13
1523010163481966,-8,-6,-6,-9,-11,-13,-2,-23
1523010163487982,1,2,-1,-4,-6,4,-1,-26
1523010163487982,-1,-3,0,-2,-5,7,1,-6
1523010163505027,-3,-3,-1,-7,-8,-5,-2,8
1523010163505027,5,5,-1,1,-1,0,-3,22
1523010163506030,1,-5,-1,3,12,-5,0,23
1523010163506030,-2,0,-4,-2,-9,-3,-1,42
1523010163527086,-1,-1,3,2,9,7,-2,40
1523010163527086,-4,-12,-1,-3,-16,-4,-8,27
1523010163529091,11,5,-1,-3,1,0,0,18
1523010163529091,-4,-6,-2,5,-2,2,1,-11
1523010163541123,-6,-8,-2,-2,-2,-2,-6,-20
1523010163541123,8,26,0,-8,-32,-4,0,-15
1523010163550147,-3,-15,-4,7,13,-4,-5,-21
1523010163550147,-2,4,3,7,35,0,-6,-20
1523010163565187,-4,-1,2,2,-9,4,13,-14
1523010163565187,-6,0,-1,1,7,9,3,-17
1523010163566190,-5,7,-2,-9,-27,-4,-14,-7
1523010163566190,3,-10,-3,-3,-11,-5,-1,-3
1523010163587246,0,-3,-1,2,4,-10,-9,-12
1523010163587246,0,-3,1,-3,-4,3,1,-8
1523010163589252,-2,-4,0,0,14,4,5,-8
1523010163589252,0,-1,1,4,0,-4,-1,-6
1523010163601283,-2,-5,-1,-1,-1,3,0,-5
1523010163601283,-4,0,-2,-1,-5,-6,2,0
1523010163610307,3,3,2,2,8,2,0,-2
1523010163610307,5,9,2,-1,12,-4,-1,-4
1523010163624344,-3,-16,-5,-6,-26,-5,2,-2
1523010163624344,-3,-6,-1,0,14,0,-8,-2
1523010163626350,-1,1,-1,0,-2,6,4,0
1523010163626350,-3,3,2,4,24,-4,1,-2
1523010163647406,0,3,0,0,4,2,2,-2
1523010163647406,-1,4,-2,-1,-5,4,-19,3
1523010163648408,1,-4,-2,-3,-1,4,18,2
1523010163648408,-7,-12,-5,-6,-30,-8,-3,1
1523010163660440,-4,6,2,3,19,-5,-4,-2
1523010163660440,-4,5,-5,-1,-2,-1,-3,2
1523010163670467,-2,-6,-2,0,-1,-4,-5,1
1523010163670467,-5,3,-1,0,-3,4,1,-1
1523010163684504,2,10,1,-2,-6,-1,4,7
1523010163684504,3,3,0,0,3,1,-2,2
1523010163686510,-2,1,0,3,28,6,0,3
1523010163686510,2,3,-1,-4,-12,-1,1,-1
1523010163707566,-4,-1,1,0,0,-2,-5,0
1523010163707566,3,5,0,0,-9,-2,4,4
1523010163708568,4,10,-3,-4,-9,-11,-7,1
1523010163708568,-14,-29,-1,0,-2,5,4,2
1523010163720600,2,9,-1,-2,8,-3,-3,1
1523010163720600,4,4,-5,-6,-19,-3,1,3
1523010163729624,-8,-8,3,3,11,5,0,1
1523010163729624,-1,10,0,-3,-4,-3,-8,-1
1523010163744664,0,-8,-2,0,3,5,0,3
1523010163744664,-3,-8,1,-4,-3,-5,7,0
1523010163746670,1,1,-3,-2,-9,-1,-8,3
1523010163746670,2,7,4,0,-9,-2,4,1
1523010163767726,4,3,-2,3,6,-2,-4,3
1523010163767726,-3,-4,-2,0,-8,-3,0,-2
1523010163768728,-4,-2,1,0,7,5,-2,-3
1523010163768728,1,-6,0,1,2,-4,-1,0
1523010163780760,-1,4,4,0,1,5,0,-2
1523010163780760,-1,-10,-5,-2,3,2,1,-1
1523010163795800,-2,-9,-3,-1,-6,-9,-2,-2
1523010163795800,1,3,1,0,0,-1,-2,0
1523010163804824,-1,-1,-5,-3,-10,1,1,-3
1523010163804824,-1,1,0,2,8,2,-3,-1
1523010163806830,2,11,2,-2,5,-3,2,-1
1523010163806830,3,1,-2,-4,-11,-3,1,0
1523010163826883,-3,11,0,1,-2,0,-3,-3
1523010163826883,-1,-9,-3,0,13,2,-3,-3
1523010163828888,4,8,0,-5,-13,-4,0,3
1523010163828888,3,-3,1,-1,-5,-12,-3,3
1523010163840920,-13,-16,-3,1,2,9,-1,4
1523010163840920,7,11,2,1,8,8,3,8
1523010163849944,-3,1,-1,-2,-5,-6,1,3
1523010163849944,-6,2,0,-4,-16,-4,-4,-1
1523010163863981,-1,0,-2,-2,2,-5,-3,6
1523010163863981,-3,-13,-2,2,3,0,1,4
1523010163872003,7,3,0,3,10,1,-2,1
1523010163872003,-3,-6,-5,-13,-33,-4,0,-6
1523010163887043,3,-1,0,14,46,9,3,-16
1523010163887043,-3,2,-2,-5,-7,-3,-3,-28
1523010163889049,-3,-5,0,2,16,1,0,-26
1523010163889049,-8,4,-1,2,-13,-7,-8,-25
1523010163901080,3,1,-1,-5,-7,5,9,-17
1523010163901080,0,-1,0,0,0,-4,-4,-15
1523010163916120,3,2,1,-5,-13,-3,6,-2
1523010163916120,2,-3,-4,-4,7,4,-3,3
1523010163925144,7,4,0,-6,-16,-6,-4,20
1523010163925144,-2,-10,-2,3,13,-2,-3,19
1523010163926147,-5,-3,0,1,-15,2,-1,15
1523010163926147,2,-2,2,4,12,2,3,21
1523010163947203,7,8,-12,-15,-24,-9,-3,7
1523010163947203,11,7,0,-3,-8,-7,-1,4
1523010163955225,-2,-9,3,17,34,8,0,0
1523010163955225,-8,-7,-2,3,12,3,2,2
1523010163961241,-10,-6,0,4,3,-2,-7,-4
1523010163961241,4,5,2,-1,-16,-11,-4,10
1523010163970264,-4,-11,-6,-14,-26,-5,2,19
1523010163970264,4,5,0,5,24,16,1,13
1523010163985304,6,4,2,-3,-8,-7,-2,4
1523010163985304,-13,-15,-1,-1,5,2,1,-2
1523010163987310,-5,-6,0,0,-3,-6,-4,-18
1523010163987310,1,-2,-3,-3,-1,-1,-2,-24
1523010164007363,13,7,-3,-4,0,-1,0,-13
1523010164007363,-4,-1,2,-4,0,1,2,-22
1523010164009369,5,1,0,14,14,0,-2,-7
1523010164009369,3,2,0,-8,-15,-9,1,1
1523010164029422,-7,-5,-2,-3,9,12,1,0
1523010164029422,-4,-2,-2,2,11,5,0,7
1523010164031427,12,4,-1,-4,-24,-5,-4,4
1523010164031427,-10,-7,-4,-2,12,2,0,4
1523010164044461,-7,-2,-1,-16,-16,-11,0,6
1523010164044461,12,7,4,21,16,5,4,10
1523010164046468,-4,-10,-4,-11,-11,0,-1,-3
1523010164046468,8,5,-1,2,3,-7,-4,-5
1523010164074542,2,4,2,3,-3,-2,3,8
1523010164074542,-5,-5,-1,-3,-3,-1,-3,-8
1523010164076547,-2,1,0,0,-2,-5,2,4
1523010164076547,2,0,1,1,-1,4,1,0
1523010164080557,-17,-14,-7,-9,-4,-5,-2,-2
1523010164080557,-1,1,0,0,-2,1,1,0
1523010164089582,7,-2,3,-9,1,3,-1,-4
1523010164089582,-6,-2,-1,14,-4,-1,1,1
1523010164104621,-7,-1,1,8,9,4,-1,-3
1523010164104621,12,-5,-2,-5,-3,-8,2,3
1523010164110637,-10,-3,-3,-7,-10,0,-1,-4
1523010164110637,0,3,0,-22,-14,3,1,-3
1523010164127683,-1,7,1,27,12,1,-2,-13
1523010164127683,-7,-4,1,20,4,-7,-4,-6
1523010164128686,6,-2,-3,-5,0,0,-1,0
1523010164128686,3,0,1,-2,-1,1,-1,-1
1523010164140717,-6,-6,-2,-8,-5,-2,-3,-7
1523010164140717,-6,0,-2,-12,-4,3,-1,-3
1523010164149742,-1,-6,-3,1,3,-4,-7,-7
1523010164149742,20,5,-1,3,1,4,7,1
1523010164163779,-12,-4,-3,8,3,-1,-3,3
1523010164163779,-13,-2,3,0,-1,2,4,-2
1523010164170797,4,-1,-1,-12,-12,-11,-4,2
1523010164170797,-5,-1,-3,9,11,5,-7,-7
1523010164186840,13,7,-1,-16,-5,4,6,7
1523010164186840,-12,-8,-3,12,-2,-2,-3,-6
1523010164188846,-19,1,3,15,8,-1,0,-5
1523010164188846,-5,-2,-5,-17,-13,-11,-3,1
1523010164200877,-2,1,-1,8,-1,1,-1,1
1523010164200877,9,4,-2,-19,3,-4,-3,4
1523010164209902,-10,-3,-2,-5,2,-6,-1,-4
1523010164209902,-2,-3,-2,12,2,-3,-5,-3
1523010164224942,-10,-2,0,-7,-4,-3,-4,-4
1523010164224942,6,-1,0,-7,-6,-3,3,1
1523010164237976,13,3,-1,-1,0,16,4,8
1523010164237976,-6,-7,-3,-19,-10,0,-2,-5
1523010164247000,2,1,1,33,11,0,-2,0
1523010164247000,-10,-7,-1,-5,0,-5,-5,-2
1523010164249005,-1,3,0,-6,-2,2,1,5
1523010164249005,-2,0,1,-1,-12,-3,3,-2
1523010164270062,-1,2,-3,-14,2,0,-7,-6
1523010164270062,-1,-5,0,15,0,3,6,-3
1523010164271064,0,2,1,-4,-2,3,2,0
1523010164271064,-14,-1,-1,2,3,-1,1,3
1523010164284099,14,4,-2,-20,-11,-5,3,4
1523010164284099,7,1,-3,-13,-4,-8,-5,2
1523010164291117,34,5,2,34,10,14,2,8
1523010164291117,-30,-12,-1,-1,8,0,0,0
1523010164307160,-16,1,1,3,-2,2,-5,-14
1523010164307160,10,1,-1,-9,-5,2,0,3
1523010164309166,-10,-3,-2,-11,-8,-6,-2,-1
1523010164309166,10,1,-2,0,-2,-3,-1,1
1523010164330222,2,1,-2,5,3,-3,1,5
1523010164330222,4,2,0,-6,-9,-1,-2,-4
1523010164331224,-20,-6,-1,1,6,-12,-9,-7
1523010164331224,-4,-3,1,9,11,12,1,3
1523010164345261,3,3,-1,-12,-7,-2,1,1
1523010164345261,23,-1,-3,-5,3,3,0,6
1523010164351277,-4,-2,-1,1,-13,-8,0,2
1523010164351277,0,0,1,4,5,0,-1,-3
1523010164367320,-10,-5,-1,-9,-2,0,-2,-6
1523010164367320,-1,-4,-3,3,-10,0,-1,4
1523010164369326,-4,-1,-4,4,3,1,-1,-3
1523010164369326,-2,-2,2,8,11,1,0,1
1523010164390382,17,4,0,2,-2,2,1,4
1523010164390382,2,5,-1,-12,-1,5,-1,1
1523010164392387,-22,-7,-2,-7,-16,-11,-3,-7
1523010164392387,19,6,-3,-5,3,8,3,2
1523010164404419,5,0,-2,2,11,1,2,4
1523010164404419,-6,-4,-1,12,0,2,-1,-4
1523010164411438,11,6,3,-13,-3,-4,-2,1
1523010164411438,-26,-12,-4,15,10,-3,-1,-4
1523010164428483,0,2,0,0,-3,3,0,2
1523010164428483,-19,-2,-1,-8,5,3,0,-4
1523010164433496,4,5,2,-6,-1,7,3,-4
1523010164433496,2,1,-2,-7,-8,-6,-3,-5
1523010164449539,-6,-7,-1,-6,-4,-2,2,0
1523010164449539,-1,1,3,10,3,-4,-2,-2
1523010164451544,5,-5,-2,2,2,2,0,-1
1523010164451544,22,5,1,-8,-3,-8,-2,5
1523010164463576,-27,-12,-1,6,-1,-1,-3,-9
1523010164463576,11,1,-3,4,7,0,1,1
1523010164478616,3,3,-1,2,0,3,-4,1
1523010164478616,5,-1,-3,-27,-24,-11,-3,-4
1523010164487640,5,8,3,12,7,13,-3,-3
1523010164487640,7,-5,-5,1,11,1,1,2
1523010164488643,-3,-4,1,22,15,9,6,-1
1523010164488643,-5,-3,2,-1,-7,-6,-15,-3
1523010164510702,0,1,-2,-6,-3,-11,-2,-3
1523010164510702,-17,-1,-2,-10,-5,-2,1,-5
1523010164515715,-2,-2,-5,-6,-2,-3,-1,-1
1523010164515715,2,-2,0,-1,2,3,6,2
1523010164523736,1,-3,1,5,-3,-4,-2,-4
1523010164523736,2,4,0,-1,-1,0,-3,2
1523010164532760,-8,-12,-5,-11,-5,-9,1,-3
1523010164532760,-4,0,1,-2,-20,-3,2,-13
1523010164546798,14,3,-3,-1,4,-11,-2,-9
1523010164546798,-5,4,4,3,-4,-1,-3,-9
1523010164548803,-5,-4,1,-2,-13,2,4,1
1523010164548803,14,3,-1,9,-11,-1,2,13
1523010164569859,-8,-13,-7,-11,-1,16,10,16
1523010164569859,5,9,3,10,17,-9,-7,11
1523010164571865,-8,-5,0,-10,-1,1,-5,-3
1523010164571865,-3,-1,2,1,5,-9,-1,-6
1523010164583896,5,3,-2,4,-10,-7,-1,-6
1523010164583896,-8,-3,-4,-8,-7,4,3,-14
1523010164592920,7,5,0,1,2,0,-2,-9
1523010164592920,0,-1,-1,2,6,2,3,-10
1523010164606958,6,5,2,0,1,-1,-1,-12
1523010164606958,-16,-15,-5,-3,0,0,-2,-4
1523010164608963,-2,-1,1,1,4,-3,-4,9
1523010164608963,12,7,-6,-7,-9,0,1,15
1523010164637038,4,6,-4,-5,-9,-1,-3,20
1523010164637038,0,-7,-1,-10,-24,-4,8,45
1523010164639044,2,3,2,20,56,5,-17,41
1523010164639044,-17,-14,2,3,6,10,1,36
1523010164643054,-2,-1,0,1,-7,-5,-6,22
1523010164643054,0,3,-2,-5,-20,-3,2,5
1523010164652078,-5,-4,-2,-7,-12,-9,7,-5
1523010164652078,3,-2,2,6,14,7,-3,-18
1523010164667118,-4,-4,0,1,2,-5,-6,-21
1523010164667118,1,-8,0,0,0,1,6,-24
1523010164669123,6,2,-7,-6,-10,4,3,-16
1523010164669123,-8,5,3,3,7,-3,-2,-20
1523010164689177,14,6,-2,-6,-6,-5,-3,-11
1523010164689177,4,5,0,2,4,-2,-4,-10
1523010164696195,-6,2,1,-3,-25,-9,1,-15
1523010164696195,-6,-13,-5,-4,18,9,-1,-11
1523010164703214,-10,-4,4,8,0,-1,0,-9
1523010164703214,1,19,-4,-2,17,5,-2,-11
1523010164712237,6,-4,-4,0,17,5,1,-9
1523010164712237,1,2,0,-4,-25,-3,-4,-2
1523010164727278,-8,-15,1,-1,-3,-6,0,-7
1523010164727278,3,-6,-3,-3,-8,-7,-6,-2
1523010164733294,-4,2,0,-4,-6,6,-1,-9
1523010164733294,-2,-5,3,1,2,8,4,-1
1523010164757358,-6,-19,-2,0,7,-3,2,4
1523010164757358,1,17,-3,-1,-12,-4,-7,-2
1523010164759363,4,5,-1,-4,-4,-7,-2,1
1523010164759363,0,-8,-1,0,3,-3,4,0
1523010164763374,-5,-13,-1,-2,1,4,0,0
1523010164763374,-1,-20,-2,2,-1,-1,4,2
1523010164772398,0,5,-1,-15,-75,-16,-9,2
1523010164772398,-3,-10,-3,14,92,20,-1,-4
1523010164787437,-4,8,2,1,-3,7,1,2
1523010164787437,3,7,0,3,10,0,7,4
1523010164789443,-7,-8,1,2,0,0,-14,-6
1523010164789443,3,7,-3,-11,-45,-15,-4,6
1523010164817517,6,6,-2,-5,-10,13,2,4
1523010164817517,-5,-6,1,4,21,-4,-3,-4
1523010164818520,3,0,3,5,32,11,8,7
1523010164818520,-10,-15,3,2,-7,-7,-3,-6
1523010164823533,6,18,-3,2,3,-4,-4,4
1523010164823533,3,7,0,-5,-18,3,1,0
1523010164832558,-5,-15,0,1,1,-6,1,0
1523010164832558,2,6,1,1,0,0,0,3
1523010164847597,5,8,-2,-1,2,-1,2,6
1523010164847597,0,2,-2,-8,-36,-9,-6,1
1523010164848600,0,-3,-3,9,36,15,10,2
1523010164848600,-7,-3,-2,-5,10,11,-12,0
1523010164869656,-4,0,0,3,7,-5,7,3
1523010164869656,2,5,3,1,3,-3,-3,2
1523010164871662,2,-7,-4,-3,-16,-3,8,1
1523010164871662,-9,-9,-2,-5,-24,-12,-17,-7
1523010164883693,1,12,-3,2,7,9,12,4
1523010164883693,5,2,-2,-3,4,0,-3,2
1523010164892718,-2,2,0,3,12,-3,-9,-2
1523010164892718,5,8,0,-1,-14,-9,-1,-1
1523010164914776,-9,-9,1,-3,-4,-9,-8,-3
1523010164914776,-8,-17,0,6,21,9,4,-2
1523010164916781,6,15,-4,-5,-7,0,2,1
1523010164916781,-9,-17,-4,1,-6,-7,3,-3
1523010164929816,-6,-1,-4,-4,-3,-4,-6,-1
1523010164929816,6,9,-5,-5,-7,7,1,0
1523010164931821,-4,-7,3,-3,-8,-4,-2,-2
1523010164931821,0,-2,-1,4,11,-3,-1,2
1523010164943853,1,2,1,-2,-10,-3,-3,0
1523010164943853,-12,-11,1,1,4,9,2,-6
1523010164952878,0,5,-2,-2,-3,-15,-1,3
1523010164952878,10,-3,-6,-5,-10,6,6,2
1523010164966915,8,12,-2,0,-2,-2,-4,-1
1523010164966915,-7,-6,2,-3,-6,3,5,-1
1523010164968920,-14,-10,0,6,15,0,-5,-10
1523010164968920,-1,2,6,0,-14,-7,1,9
1523010164989976,4,6,-6,-9,-12,-10,-9,3
1523010164989976,-1,-3,1,16,51,2,-8,4
1523010164990979,-1,-5,0,-14,-29,2,5,5
1523010164990979,2,7,-1,2,9,-6,5,2
1523010165003011,1,-6,-3,-3,3,11,-1,-3
1523010165003011,-3,-11,-3,-6,-26,-7,-2,-14
1523010165012035,1,1,0,5,11,-3,-5,-23
1523010165012035,10,5,1,-3,-3,1,1,-20
1523010165027075,2,4,3,1,-6,-5,2,-17
1523010165027075,-9,-9,-3,-1,-2,-9,-2,-20
1523010165029080,-2,-1,-4,-2,3,11,-3,-16
1523010165029080,-7,-2,0,-6,-14,2,6,-9
1523010165050136,2,2,-3,5,11,-6,-3,3
1523010165050136,-4,-14,-2,-5,-9,-4,-8,12
1523010165051139,8,3,-2,0,14,-3,1,19
1523010165051139,6,5,-4,-4,-16,1,3,18
1523010165063171,-4,-6,-3,10,29,10,0,21
1523010165063171,4,6,3,-2,-5,1,1,13
1523010165072196,-5,-4,-1,0,3,-18,1,9
1523010165072196,6,2,-4,0,0,10,-11,-3
1523010165086232,2,3,2,-9,-9,3,14,-1
1523010165086232,-5,-3,0,-4,-7,-7,-22,0
1523010165101272,-2,-2,4,0,-7,1,6,6
1523010165101272,-9,0,1,2,12,2,5,14
1523010165110296,5,-11,-6,-13,-26,-13,-1,7
1523010165110296,7,8,0,5,16,13,4,10
1523010165111299,-5,-7,0,-2,-7,-6,-4,4
1523010165111299,-5,3,-2,0,0,-1,-9,0
1523010165123331,10,2,0,-2,-6,9,0,-4
1523010165123331,3,1,-2,8,0,-16,4,-14
1523010165132355,-2,1,2,-7,-20,5,-3,-21
1523010165132355,-3,-5,3,2,20,25,3,-22
1523010165146392,-5,-7,-3,6,-2,-4,-2,-18
1523010165146392,3,-1,0,-3,-6,-7,1,0
1523010165153411,15,7,-6,-3,-23,-5,-4,-7
1523010165153411,-20,-9,-1,5,18,-11,-6,-8
1523010165169453,-6,0,1,6,10,-3,12,2
1523010165169453,5,5,6,-12,-8,18,-2,-3
1523010165176472,-21,-14,-2,9,-3,-9,2,5
1523010165176472,7,6,0,-11,-30,-1,-4,3
1523010165192515,-6,-8,-1,3,7,5,-1,4
1523010165192515,-12,0,-2,1,2,-13,-1,0
1523010165193518,11,-7,0,-1,12,11,1,-1
1523010165193518,28,15,-3,-20,-17,-14,2,6
1523010165206552,-5,0,-2,-2,-17,-7,-5,4
1523010165206552,-11,-3,1,13,24,6,4,-5
1523010165213571,-1,-1,1,2,3,-7,-7,6
1523010165213571,-15,-7,-1,8,3,8,9,-1
1523010165229614,1,1,-5,-25,-15,-10,-6,1
1523010165229614,4,-1,0,-14,-15,-2,-3,4
1523010165231619,-13,1,0,2,10,-3,-1,-3
1523010165231619,12,-1,-7,-8,-5,-7,-4,-3
1523010165252675,2,4,3,-1,14,19,10,0
1523010165252675,-6,-4,-2,15,-5,-27,-24,-8
1523010165253678,-22,-6,-2,25,10,14,7,-6
1523010165253678,21,-4,0,-14,-11,8,2,6
1523010165266712,8,1,1,-27,6,8,1,-7
1523010165266712,-23,-11,-4,63,32,7,4,-12
1523010165273731,-26,1,5,-14,-15,-14,-4,0
1523010165273731,3,9,-2,6,0,-11,-6,0
1523010165289773,14,-4,-6,-3,-3,-2,-3,2
1523010165289773,10,-3,2,-26,-17,6,7,7
1523010165291779,4,-2,-4,0,0,2,-5,-9
1523010165291779,-22,-1,2,10,13,1,2,-3
1523010165311832,13,7,2,10,-1,-9,-5,0
1523010165311832,-2,-5,-5,-31,-13,-4,3,4
1523010165313838,13,4,7,37,15,10,4,1
1523010165313838,2,-2,-2,-6,12,-1,1,3
1523010165326872,-8,-1,-1,26,5,-4,-6,-6
1523010165326872,1,-2,1,4,-9,4,-1,-7
1523010165333891,0,0,-2,-19,2,-2,3,6
1523010165333891,7,5,1,-4,-11,-1,0,3
1523010165349933,-13,-2,2,7,9,-2,-8,-4
1523010165349933,32,2,-3,-5,-6,1,6,11
1523010165350936,4,-1,-1,-10,-8,-3,0,1
1523010165350936,-15,-5,-3,12,4,-10,-2,-3
1523010165371992,-30,-4,-4,-5,-11,8,-5,-10
1523010165371992,8,-1,0,-7,-2,2,3,2
1523010165373998,6,-2,-6,-14,5,3,-4,-4
1523010165373998,-23,-6,-1,0,-4,-4,2,0
1523010165386029,10,0,-2,-2,-3,-10,-2,-1
1523010165386029,-3,-1,6,5,-2,1,-2,-2
1523010165395054,0,-1,-3,-10,-3,3,-2,2
1523010165395054,2,1,-2,-16,1,2,-1,0
1523010165410093,-5,1,5,39,5,-4,0,-1
1523010165410093,10,1,-2,-14,-9,2,3,5
1523010165411096,-14,-2,-2,7,-1,-2,3,2
1523010165411096,-8,2,4,8,6,1,-4,-4
1523010165432152,3,0,-4,-27,-9,0,-1,2
1523010165432152,-8,-3,-1,-4,2,4,-3,-9
1523010165434158,16,7,4,6,-2,2,1,4
1523010165434158,-3,-4,-8,-3,-10,-7,-5,2
1523010165446189,-8,4,0,0,4,-8,-3,-4
1523010165446189,-17,-9,-5,-11,0,5,1,-2
1523010165461229,24,10,1,-14,-8,-12,-4,5
1523010165461229,8,3,4,17,8,8,-2,-1
1523010165470253,-9,-4,-5,-23,-15,-8,-2,-3
1523010165470253,-18,-1,4,11,5,0,-1,-5
1523010165471256,5,1,-2,-11,3,5,2,2
1523010165471256,21,7,4,45,0,-4,-1,-1
1523010165492312,-24,-6,-1,11,10,4,3,2
1523010165492312,2,1,-4,1,7,3,3,-3
1523010165494317,2,-1,1,-10,-10,2,3,-7
1523010165494317,10,-2,-4,-28,-9,-8,-1,4
1523010165506349,8,2,1,1,-2,4,-2,0
1523010165506349,-3,-1,-3,-12,-3,-7,-3,1
1523010165515374,-8,-5,-3,-12,3,-2,-3,-4
1523010165515374,-15,-6,-2,15,-1,-9,-1,-11
1523010165529411,-2,1,2,10,8,16,3,-2
1523010165529411,15,5,-2,4,-14,-2,-2,8
1523010165531416,3,0,-1,-25,3,7,-1,2
1523010165531416,-12,-4,2,17,1,1,-1,-2
1523010165552472,1,-2,0,12,13,-5,-3,-4
1523010165552472,-4,-6,-6,-7,-6,-1,0,9
1523010165553475,-4,-2,-4,-9,-8,-8,-4,-8
1523010165553475,3,1,2,-7,-2,-1,2,2
1523010165565507,-5,-4,-4,-3,1,1,-3,-1
1523010165565507,8,2,2,-1,-2,-2,-3,-6
1523010165580547,-9,-5,-2,5,-2,-2,-3,-8
1523010165580547,-18,-10,-4,-21,-1,-5,-1,-2
1523010165589571,12,5,3,2,-5,-16,2,-1
1523010165589571,-6,3,5,5,10,15,0,-7
1523010165591576,12,-17,-9,-7,-8,-6,1,9
1523010165591576,10,8,1,-7,-5,1,1,1
1523010165612632,5,3,-2,16,9,-7,-4,2
1523010165612632,-16,-2,-1,-16,-2,-14,-1,-5
1523010165613635,5,11,2,10,5,33,6,0
1523010165613635,-1,-8,-1,3,2,1,1,1
1523010165626670,3,-1,-3,8,-19,-4,-2,4
1523010165626670,0,-2,-2,7,15,-10,-6,-5
1523010165634691,-1,2,4,2,-9,-9,0,-3
1523010165634691,1,-2,-3,-19,-3,7,3,2
1523010165649731,-4,-3,-4,-12,-2,-3,-6,-7
1523010165649731,-8,-4,-1,-2,-11,0,2,1
1523010165655747,-3,-1,-1,4,-4,-5,0,3
1523010165655747,10,5,0,8,5,-4,-4,1
1523010165672792,1,0,-1,-13,-4,2,5,3
1523010165672792,5,0,-3,-1,-10,4,0,-5
1523010165673795,-7,1,3,15,13,-3,-3,-5
1523010165673795,-10,-18,-4,-23,-14,0,2,6
1523010165685827,18,9,2,9,0,-7,-1,-1
1523010165685827,-2,-8,2,-6,11,8,1,3
1523010165700866,-2,2,1,24,25,3,1,10
1523010165700866,-12,-1,2,-3,-26,0,-2,-24
1523010165709891,-2,-2,-8,-13,1,-2,-2,-19
1523010165709891,1,4,-3,-6,4,-11,0,-11
1523010165711896,-7,-9,1,1,-6,-2,8,-18
1523010165711896,12,13,-2,1,2,9,-12,-11
1523010165732952,11,10,0,-8,-2,-3,1,5
1523010165732952,7,2,-4,0,-5,-1,0,13
1523010165734958,-3,-6,-3,-8,-15,-18,-6,23
1523010165734958,-9,-4,5,8,11,1,3,15
1523010165745987,-14,-21,-2,-6,1,11,-2,21
1523010165745987,2,6,0,5,5,-6,-2,35
1523010165755012,5,-8,-7,-14,-39,-7,-2,35
1523010165755012,5,2,-2,-5,-11,-6,-2,15
1523010165770051,-3,4,5,15,46,8,-2,-3
1523010165770051,-11,-17,-2,3,0,-1,2,-12
1523010165771054,3,13,-2,-5,8,4,-5,-20
1523010165771054,2,-3,0,-6,-37,-11,1,-18
1523010165792109,-5,0,-3,-10,-15,-6,-3,-12
1523010165792109,-2,-7,2,6,9,5,-1,-14
1523010165794115,0,8,0,-1,-7,-9,-3,-14
1523010165794115,-8,-12,1,5,17,6,-10,-6
1523010165806147,3,-7,-4,-3,-5,0,9,3
1523010165806147,3,23,-1,-3,-6,-3,-7,-7
1523010165815171,-10,-31,-1,6,0,-5,1,-10
1523010165815171,7,12,-1,-1,-17,0,1,4
1523010165830211,-1,-5,0,1,33,22,-7,-5
1523010165830211,7,0,-1,-1,-6,-12,-2,-7
1523010165831213,8,13,-2,-13,-44,-5,-6,-7
1523010165831213,-9,-13,5,19,65,4,6,-5
1523010165852269,-2,1,-2,-10,-37,-6,3,1
1523010165852269,4,-1,-1,-3,-4,1,-1,0
1523010165854275,-6,-6,2,5,16,7,3,1
1523010165854275,-1,0,-1,-6,-16,-9,-8,-4
1523010165866307,-5,8,-1,-2,-10,-6,1,-6
1523010165866307,-6,-2,2,-1,5,6,3,-5
1523010165875331,4,-3,-1,2,-1,-4,-3,2
1523010165875331,4,0,0,2,4,4,4,2
1523010165890371,6,16,-1,1,14,-4,-2,5
1523010165890371,1,3,-1,-1,-17,-1,-4,-1
1523010165892376,-7,-4,1,-2,-8,-1,-6,-3
1523010165892376,-7,-7,-2,6,28,8,11,-2
1523010165912429,-1,3,0,-1,-7,-5,7,0
1523010165912429,-6,-12,-5,5,27,15,-1,3
1523010165914435,4,3,2,-1,-2,11,3,-1
1523010165914435,-2,-4,-3,-7,-24,-13,-11,-1
1523010165925464,-4,-9,-2,-3,-10,1,5,6
1523010165925464,1,5,-10,-10,-7,-6,6,-2
1523010165935490,4,20,13,7,-3,-1,-7,0
1523010165935490,0,-6,-2,5,32,22,8,4
1523010165949528,-10,-6,-6,-7,-3,-5,-11,-4
1523010165949528,-5,-14,-6,-2,-21,-9,-2,1
1523010165951533,-8,-2,-2,0,6,1,-2,-6
1523010165951533,-1,0,3,3,12,-12,-3,3
1523010165972589,7,12,-3,-1,1,2,3,5
1523010165972589,0,-8,1,-3,-7,2,-2,1
1523010165973592,6,9,-1,2,8,-5,-1,0
1523010165973592,-11,-7,-3,-5,-19,-7,9,1
1523010165985624,-3,-5,-3,0,14,1,5,4
1523010165985624,5,17,6,2,9,10,-7,-1
1523010165994648,-9,-32,-2,2,17,0,4,2
1523010165994648,10,26,-1,-2,-12,-1,1,0
1523010166016707,6,-2,-4,-2,-22,-6,-2,3
1523010166016707,-3,5,6,5,14,-2,11,-3
1523010166023725,-11,-15,-4,0,23,2,-16,-2
1523010166023725,-2,-1,-3,-2,8,4,0,4
1523010166032749,3,6,-4,-5,-17,-5,-4,-1
1523010166032749,5,6,5,-3,-27,-6,-2,0
1523010166033752,-5,-7,-3,2,19,6,5,-3
1523010166033752,-3,-7,2,-2,-11,-3,-1,1
1523010166054808,6,15,6,3,7,-21,-11,1
1523010166054808,4,-3,-6,-2,10,24,1,2
1523010166056813,-4,-18,-7,-1,-7,1,10,1
1523010166056813,2,11,-3,-4,-7,-5,-5,-2
1523010166068845,0,-3,2,-1,-4,-2,-4,2
1523010166068845,-14,-5,-1,-1,-6,-14,-4,-9
1523010166075864,7,9,0,-2,-4,-4,-4,1
1523010166075864,5,16,2,0,-6,4,6,-2
1523010166091907,-2,-18,-10,-4,0,2,3,6
1523010166091907,-5,-5,2,5,-5,-10,0,6
1523010166093912,0,11,1,-4,0,5,-10,2
1523010166093912,-5,-3,-1,0,13,-3,-1,2
1523010166105944,-12,-16,-2,6,11,7,5,-3
1523010166105944,-2,-2,-2,-5,-8,-6,-3,-7
1523010166114968,12,24,4,0,-9,-6,1,-5
1523010166114968,1,-2,-3,1,6,4,-2,-15
1523010166129005,-4,2,2,-6,-19,4,-1,-30
1523010166129005,-8,-9,-3,-5,5,-5,-2,-26
1523010166136024,-6,4,3,9,5,0,2,-25
1523010166136024,11,12,0,-3,-8,0,-3,-22
1523010166152067,0,-13,-4,1,2,0,0,-3
1523010166152067,6,-3,-3,-7,-9,-2,-1,1
1523010166154072,1,9,-1,-4,0,-3,2,14
1523010166154072,-7,-12,-2,-2,-11,1,-6,25
1523010166175128,2,4,3,5,6,0,-2,19
1523010166175128,-1,-3,3,4,9,-9,-3,19
1523010166181144,-2,-12,-6,-6,0,10,9,16
1523010166181144,-3,-3,-3,3,7,-2,1,9
1523010166189165,-3,6,1,-7,-12,-1,-6,-6
1523010166189165,7,6,-3,-6,-3,-3,-1,2
1523010166196184,-6,-5,-1,12,11,-8,-1,-5
1523010166196184,7,6,-1,-2,-5,5,-2,2
1523010166220248,-12,-11,-6,-8,-2,2,4,11
1523010166220248,-3,-7,5,-10,-18,-1,-1,19
1523010166221251,8,-7,-3,-2,4,5,2,23
1523010166221251,11,6,-3,14,10,-7,-2,16
1523010166235288,-15,-5,3,13,20,5,-2,7
1523010166235288,12,9,-1,3,0,-1,-1,-3
1523010166236291,-2,6,0,-12,-15,-6,2,-20
1523010166236291,-7,-9,-3,-11,-12,4,-1,-35
1523010166249325,6,6,1,-2,11,-4,-1,-28
1523010166249325,-16,-17,-5,2,8,4,1,-23
1523010166256344,0,12,4,2,1,-8,-4,-15
1523010166256344,-3,-7,-2,5,9,7,3,-7
1523010166272386,-3,-7,-3,-10,-14,-7,-1,-5
1523010166272386,15,1,-3,4,7,4,2,8
1523010166278402,2,-3,-2,4,7,-3,-4,4
1523010166278402,0,-1,0,-2,-6,-8,-4,6
1523010166294445,4,2,5,3,-4,0,0,5
1523010166294445,-28,-12,-1,-18,3,7,0,0
1523010166296451,15,-1,0,30,13,-1,-3,4
1523010166296451,-6,5,-4,-12,-6,-5,11,9
1523010166309485,13,2,-4,8,-8,-6,-6,-1
1523010166309485,5,9,5,-3,-5,-15,-6,0
1523010166315501,-14,-8,-2,-9,1,17,-1,-4
1523010166315501,-3,-3,-3,-3,2,-6,-4,1
1523010166332546,-20,-11,1,-1,6,3,2,3
1523010166332546,5,0,-1,9,-1,9,4,-3
1523010166334552,-10,-5,-4,-10,-9,-11,-2,0
1523010166334552,-4,-5,-4,-6,-16,-8,-5,-7
1523010166354606,8,9,-1,-14,6,8,1,-1
1523010166354606,5,0,2,21,12,-3,1,5
1523010166356611,9,3,6,38,-2,6,7,3
1523010166356611,-10,-5,-2,-12,-11,-11,1,9
1523010166368642,-4,-1,-2,-7,6,10,-4,-4
1523010166368642,5,-1,0,-20,-9,3,-3,-5
1523010166377667,5,-2,-5,-19,1,-5,-1,0
1523010166377667,-18,-6,-1,13,2,-9,-7,-9
1523010166392707,-4,-2,-3,-3,-8,13,9,3
1523010166392707,24,11,2,8,2,-6,5,2
1523010166393710,-18,-10,-6,-20,-15,-1,-9,-19
1523010166393710,-4,3,2,-5,1,2,-1,-2
1523010166414765,15,4,4,14,6,-8,-4,4
1523010166414765,-4,-5,-5,-5,-6,-9,-6,-6
1523010166416770,-18,-2,2,11,19,13,4,-6
1523010166416770,16,5,1,-8,0,3,-3,-4
1523010166428802,0,-4,-5,-1,-17,1,-3,-5
1523010166428802,12,-1,-2,9,7,-3,3,11
1523010166437827,11,-1,0,-2,-11,-16,-5,-2
1523010166437827,-31,-11,-6,3,16,10,0,-3
1523010166459885,7,7,1,-24,-18,-20,-3,-2
1523010166459885,-6,-2,-1,2,4,12,-1,0
1523010166461891,-3,-3,-4,-5,-1,5,4,6
1523010166461891,9,7,1,-3,-3,-3,0,2
1523010166474925,-4,-7,-2,-1,-14,-6,-3,1
1523010166474925,-27,-8,-5,-3,13,-3,-7,-9
1523010166476931,-2,1,-1,-7,-2,-5,1,5
1523010166476931,38,13,-2,9,-2,6,2,8
1523010166488963,-18,-5,-1,2,4,-5,-3,0
1523010166488963,9,-4,-1,-2,-9,-5,0,-1
1523010166496984,-12,4,0,-18,-15,1,-7,-11
1523010166496984,-5,-1,-2,-9,0,-7,-5,-5
1523010166520045,0,1,1,35,16,8,-1,-6
1523010166520045,-2,-3,0,18,-2,-16,0,8
1523010166526061,-1,-4,-5,-13,-4,20,3,4
1523010166526061,-9,-3,-3,-9,-5,-7,3,0
1523010166535085,4,2,1,-8,5,3,-4,-1
1523010166535085,16,2,-2,-10,-10,-2,-2,0
1523010166536088,-10,-8,-1,-5,-3,-12,-2,4
1523010166536088,16,7,2,-4,-3,6,0,1
1523010166548120,-24,-8,-3,-6,6,0,4,2
1523010166548120,-12,-3,1,3,-3,-4,-9,-12
1523010166557144,3,-5,-2,6,3,5,2,-4
1523010166557144,0,2,1,6,4,12,-8,-4
1523010166572184,-14,-3,-1,6,-6,-12,3,-2
1523010166572184,12,3,-1,-10,1,9,2,5
1523010166574190,16,3,-1,0,-2,-8,-2,0
1523010166574190,-22,-6,0,8,5,13,1,-5
1523010166595245,1,3,-1,-40,-3,-4,-5,-3
1523010166595245,5,-4,-3,21,-11,-2,-2,3
1523010166596248,8,3,6,66,30,9,11,7
1523010166596248,-3,-2,-2,-19,-10,-7,2,3
1523010166608280,22,9,5,15,2,1,-3,1
1523010166608280,-38,-10,-3,-32,-5,6,3,-8
1523010166617304,20,8,1,-11,-5,-2,-4,-1
1523010166617304,-10,-10,-4,12,14,0,0,2
1523010166632344,2,-2,-1,-11,-3,5,1,-1
1523010166632344,-11,-5,0,-3,-1,6,3,5
1523010166634349,-5,0,-1,-6,-14,-10,-7,-8
1523010166634349,0,-7,-7,-46,-18,-7,1,6
1523010166654402,14,0,1,73,31,-5,-2,0
1523010166654402,2,2,0,2,5,11,2,-1
1523010166656408,-14,0,0,-3,-13,-5,-2,0
1523010166656408,5,5,0,-27,-20,3,2,2
1523010166668440,1,-7,2,-5,-4,-8,-1,9
1523010166668440,5,5,-1,24,4,-4,0,-1
1523010166685485,-11,-6,-4,-16,1,-3,-9,-13
1523010166685485,-5,-4,-3,-4,-3,-13,-3,-1
1523010166692504,-3,1,-3,0,-7,1,1,0
1523010166692504,-11,-4,0,-10,-1,-1,1,-2
1523010166693507,4,0,-3,-15,-12,-11,0,7
1523010166693507,8,4,2,27,12,5,-4,-5
1523010166714562,9,-2,-1,-14,3,10,2,-2
1523010166714562,15,7,3,3,1,-5,0,1
1523010166716568,-13,-10,-3,-16,-5,0,4,5
1523010166716568,-2,6,-1,26,-4,-10,-4,-2
1523010166728600,-18,-5,-3,-17,2,-1,-5,-7
1523010166728600,7,3,4,17,10,5,8,0
1523010166737624,1,1,0,1,5,5,0,0
1523010166737624,-5,-1,0,1,-16,-3,-2,-4
1523010166752664,-5,-3,-2,-9,-2,-9,-5,-3
1523010166752664,-6,-2,-2,8,-5,-2,7,3
1523010166753666,10,3,1,0,3,2,-3,-2
1523010166753666,-2,1,-2,-15,-4,0,3,-3
1523010166774722,9,4,-4,-5,-5,-2,-4,1
1523010166774722,-15,-4,2,-1,2,7,-1,-5
1523010166776728,20,-1,-3,-2,2,4,5,9
1523010166776728,15,8,3,8,7,-18,-8,2
1523010166788760,-31,-14,-5,-33,-26,-1,5,-2
1523010166788760,-3,4,4,42,20,0,-4,-3
1523010166797784,-23,-7,-4,-14,4,0,2,-5
1523010166797784,5,0,0,11,0,0,2,-1
1523010166812824,4,7,3,5,2,-10,-3,-2
1523010166812824,-11,-3,0,-2,-3,14,-1,-4
1523010166813827,-12,0,1,-1,0,-1,-2,-3
1523010166813827,4,-2,-7,-16,-20,-1,3,1
1523010166834882,8,-1,-3,25,24,8,-7,-4
1523010166834882,2,-4,-2,-26,-13,-16,0,-1
1523010166836888,-1,-4,-1,5,-3,-4,0,-1
1523010166836888,-8,2,2,-4,12,0,3,0
1523010166848920,9,3,-1,1,0,-4,-1,-3
1523010166848920,7,-1,-4,-13,-2,2,-4,-6
1523010166857944,1,-2,0,2,2,4,1,1
1523010166857944,-8,-6,-3,-11,-1,-4,-1,1
1523010166871981,8,5,1,13,-5,4,3,-1
1523010166871981,-2,-5,-2,2,11,-12,-5,1
1523010166873987,-6,-6,-2,-16,-9,1,-3,-4
1523010166873987,10,5,4,14,6,10,2,1
1523010166895042,1,0,-1,5,5,-8,-1,2
1523010166895042,16,11,0,-27,-19,3,-1,-2
1523010166896045,-18,-22,-6,9,5,-3,3,6
1523010166896045,8,4,-3,2,-6,2,6,-2
1523010166908077,-9,-5,-1,-3,-9,3,-10,7
1523010166908077,-7,-4,-1,-5,-6,-9,-2,5
1523010166917101,3,3,2,-1,9,-5,-8,6
1523010166917101,3,2,-1,-1,-9,-13,2,12
1523010166932141,10,7,-3,-2,-31,4,4,3
1523010166932141,-6,-12,-3,-12,3,7,-3,-21
1523010166938157,3,0,4,13,8,0,-1,-29
1523010166938157,-16,-8,1,9,12,-5,-4,-31
1523010166955202,6,4,-4,-14,-11,4,2,-20
1523010166955202,3,0,-1,-5,-9,-7,-1,-10
1523010166956205,2,-1,1,-1,-4,-2,1,8
1523010166956205,2,3,2,7,10,2,-1,17
1523010166968237,2,-7,-1,-6,0,-7,-2,20
1523010166968237,5,13,0,-6,-23,4,-3,23
1523010166977261,-3,-9,-1,7,13,2,8,35
1523010166977261,-2,-1,6,10,16,4,-11,31
1523010166991298,6,5,-2,-3,-9,2,1,21
1523010166991298,-14,-14,-2,-5,-3,-12,-8,-5
1523010166998317,8,7,-3,-5,0,-8,-9,-16
1523010166998317,1,2,-1,4,2,7,-2,-19
1523010167014360,-9,-5,-3,1,1,7,7,-20
1523010167014360,5,4,1,-7,8,10,5,-7
1523010167016365,0,17,0,-10,-30,-6,4,-10
1523010167016365,-10,-10,-1,13,28,-1,-12,-11
1523010167028397,-1,-1,-1,-4,-2,-3,0,-8
1523010167028397,-3,-6,-3,4,-7,-6,-4,-1
1523010167037421,3,1,4,3,-1,6,2,-3
1523010167037421,1,-12,-5,-5,-8,-1,1,-6
1523010167051458,-9,-6,-2,-7,-10,-7,-1,-4
1523010167051458,-4,-5,0,3,12,2,0,-1
1523010167058477,13,20,-2,-8,-26,-6,0,-1
1523010167058477,1,-4,0,6,24,-1,6,-5
1523010167074520,-5,-11,-2,-2,-7,3,-4,-5
1523010167074520,-11,-12,-2,9,2,-11,-3,-2
1523010167076525,3,-2,3,-2,19,10,-5,1
1523010167076525,-1,8,2,-1,-18,5,0,-3
1523010167097581,1,-2,-1,-2,6,2,6,1
1523010167097581,-2,4,-2,0,-5,-3,1,2
1523010167098584,-3,1,1,3,-9,-6,-6,-6
1523010167098584,-4,-16,-8,-2,0,3,2,4
1523010167111619,-2,8,2,3,14,1,0,-1
1523010167111619,9,9,2,-3,-7,0,0,2
1523010167118637,-8,-16,0,-1,3,-4,-4,-3
1523010167118637,2,16,-2,-2,-3,1,-1,-2
1523010167134680,6,3,-5,-5,-1,-16,-8,3
1523010167134680,-2,-4,-2,1,19,24,9,0
1523010167136685,-7,-13,-1,5,-2,-2,7,2
1523010167136685,5,3,-1,-3,-9,-2,-2,3
1523010167157746,0,12,3,-1,15,-4,-5,2
1523010167157746,-2,-2,-1,-7,-30,-9,-1,2
1523010167159250,-3,-12,-2,-2,2,-3,-5,2
1523010167159250,-5,3,1,2,14,11,8,0
1523010167171786,-6,-8,-4,-4,-14,-5,-4,-4
1523010167171786,3,3,3,1,11,-4,-3,3
1523010167178804,-8,-9,-4,-6,-17,-5,-1,-3
1523010167178804,0,1,-3,-4,-14,-10,-5,2
1523010167194846,-2,3,4,0,4,1,-4,-3
1523010167194846,2,-6,-1,2,7,6,1,2
1523010167196852,5,6,-5,-5,-7,-2,2,1
1523010167196852,-3,4,2,-5,-17,-13,-7,0
1523010167216905,4,2,5,8,13,5,-1,1
1523010167216905,-9,-12,-6,-6,-3,-3,4,-5
1523010167218910,5,15,3,7,29,18,2,2
1523010167218910,-7,-19,-1,0,0,-4,-1,-2
1523010167231946,4,11,3,-4,-12,-7,-1,-1
1523010167231946,3,-1,-2,-5,-10,4,-2,0
1523010167238965,3,8,2,2,-2,-9,-5,0
1523010167238965,1,-3,-8,-2,-3,0,2,-2
1523010167255007,-1,-3,-2,2,5,3,4,2
1523010167255007,-1,4,2,2,3,-7,-8,4
1523010167256009,-11,-18,-3,-2,5,5,-1,8
1523010167256009,-1,12,2,-1,0,-2,3,17
1523010167277065,-5,-9,-1,-1,-2,-2,-1,28
1523010167277065,-2,3,-2,2,9,9,4,34
1523010167279071,8,7,0,1,1,0,-2,33
1523010167279071,0,14,3,-3,-20,-20,-5,17
1523010167291103,-8,-30,-7,-4,28,21,3,-1
1523010167291103,3,9,-2,6,28,-10,-6,-18
1523010167300126,-8,-6,-1,-2,-8,2,0,-36
1523010167300126,2,-2,-1,-2,10,8,-2,-34
1523010167315166,-4,8,0,-6,-37,-11,-1,-36
1523010167315166,-8,-10,2,2,4,-3,1,-40
1523010167316169,-2,-14,-7,0,4,-1,-7,-35
1523010167316169,5,8,-1,2,-4,1,1,-51
1523010167337225,-6,-4,-2,-1,-3,-1,3,-54
1523010167337225,-1,1,-3,-3,-7,-3,-2,-54
1523010167339230,3,9,1,-2,-2,-5,1,-38
1523010167339230,-10,-16,-1,-1,0,5,0,-17
1523010167351263,14,4,1,1,4,-2,-1,8
1523010167351263,2,5,-6,-2,-5,-3,-8,14
1523010167360287,-7,-3,1,-3,-10,-11,-5,26
1523010167360287,-8,-4,-1,2,0,10,1,41
1523010167375326,5,-1,-1,0,17,-7,0,41
1523010167375326,2,-3,1,-3,-18,-3,2,34
1523010167376329,-5,5,2,-4,-7,-7,0,27
1523010167376329,3,-5,-4,7,33,-1,2,19
1523010167404404,-3,-5,-1,-2,-2,14,-3,9
1523010167404404,5,4,1,-5,-12,6,3,8
1523010167406409,-4,-7,-1,-4,0,-6,-1,6
1523010167406409,0,4,-3,-18,-32,-9,-5,5
1523010167411422,9,1,0,5,10,-4,0,10
1523010167411422,4,1,1,15,23,6,0,13
1523010167420447,-1,-1,1,4,-10,4,6,17
1523010167420447,0,-1,0,-1,-6,-3,-3,21
1523010167434484,5,8,-3,-6,-9,-5,0,7
1523010167434484,3,-1,1,-3,-8,-4,-3,2
1523010167436489,3,-2,2,2,9,4,2,-9
1523010167436489,6,3,-3,-3,1,2,0,-24
1523010167457545,-8,-12,-3,-6,8,-2,0,-26
1523010167457545,-24,-14,-1,-6,-11,-7,-4,-30
1523010167458548,-5,-8,-5,1,5,-2,0,-14
1523010167458548,16,8,1,-7,-4,1,0,-9
1523010167470580,-11,-12,5,-6,-8,6,1,-4
1523010167470580,26,13,-4,15,10,-13,0,7
1523010167479604,-8,-7,-2,0,12,12,2,2
1523010167479604,-18,-6,0,1,-7,7,0,-3
1523010167494644,20,4,-3,-7,-7,-8,-2,7
1523010167494644,-16,-8,0,-14,-13,-4,1,2
1523010167496649,1,0,-1,2,2,-7,-5,-1
1523010167496649,17,14,4,6,10,-3,6,9
1523010167524724,-32,-11,2,5,-6,4,1,-2
1523010167524724,17,3,-4,-5,-2,-1,-1,3
1523010167526730,14,10,-1,-7,-8,-4,-3,8
1523010167526730,-12,-4,0,2,14,-1,-2,-2
1523010167530740,14,1,-1,1,-3,-4,1,7
1523010167530740,-7,2,3,2,-4,-4,-1,1
1523010167539764,-8,-3,1,-7,-3,5,-5,-15
1523010167539764,-7,-10,-8,13,18,5,0,7
1523010167562825,-1,6,3,-7,-12,-2,0,-4
1523010167562825,-9,-8,-3,7,15,-2,1,4
1523010167563828,11,2,2,1,-13,4,3,2
1523010167563828,-2,1,-2,-3,-7,-5,-3,0
1523010167576863,-10,-5,-2,-5,1,-6,-5,-8
1523010167576863,8,2,3,-7,-9,15,1,1
1523010167578868,4,4,-2,-6,2,-9,2,4
1523010167578868,2,-3,-4,-4,-13,3,-1,-2
1523010167590900,2,-3,-3,4,9,0,1,5
1523010167590900,-7,0,0,-14,-9,-3,-3,-7
1523010167599924,-5,-3,-2,19,10,-3,-1,-3
1523010167599924,3,2,0,8,1,5,-1,-2
1523010167614964,-1,-1,1,-1,-2,3,-2,-2
1523010167614964,9,-7,-2,-7,-6,-3,-4,1
1523010167616969,-13,-5,-4,-7,-2,-1,-2,-9
1523010167616969,-11,-5,-1,-17,-19,-7,-6,-10
1523010167637022,9,3,-2,19,18,-4,3,5
1523010167637022,2,1,2,7,0,7,0,-4
1523010167639028,5,-3,-2,-8,2,4,2,4
1523010167639028,-7,-3,-2,-22,-17,-10,-2,-6
1523010167651060,33,6,1,39,7,-2,-4,2
1523010167651060,-43,-18,-6,-15,0,11,0,-13
1523010167666100,7,4,3,12,-2,-3,-2,2
1523010167666100,-1,3,-5,-17,-2,-1,-2,-6
1523010167675124,0,2,2,-16,-7,-2,-2,-2
1523010167675124,11,2,0,11,0,-5,1,5
1523010167676126,-9,-4,-2,-2,1,1,-3,-3
1523010167676126,-4,-2,-1,4,4,-2,-2,-4
1523010167697182,-10,1,0,-2,-4,0,-1,-2
1523010167697182,6,3,0,5,2,-5,-2,2
1523010167699188,-9,-4,-2,-10,-1,4,-3,-4
1523010167699188,6,8,2,10,7,1,2,4
1523010167711220,-15,-16,-6,-9,-7,-7,-3,-4
1523010167711220,15,8,0,2,-12,-6,-2,5
1523010167720244,-7,-5,1,2,11,2,-3,2
1523010167720244,2,0,-1,-9,-9,6,0,0
1523010167735284,-9,-6,0,15,10,3,-2,-4
1523010167735284,-13,-5,-3,-4,5,3,2,-2
1523010167736287,-1,0,-2,11,-5,-7,-2,-4
1523010167736287,-6,-2,0,6,3,-2,-2,2
1523010167757342,-5,3,-2,-22,-14,3,-2,4
1523010167757342,10,1,1,0,0,-4,-4,2
1523010167759348,5,4,0,-8,-8,-4,2,4
1523010167759348,-8,-6,-1,-4,13,0,0,-1
1523010167771380,8,1,1,7,-4,6,5,3
1523010167771380,-5,0,1,19,1,-6,-3,-2
1523010167780404,-11,-5,-1,-17,-8,4,-3,-5
1523010167780404,5,1,-1,28,10,-10,-2,1
1523010167794441,-8,-5,-3,-21,-16,-1,1,-2
1523010167794441,9,3,0,25,22,6,-3,1
1523010167796446,4,1,0,-15,-20,-18,2,0
1523010167796446,3,-2,-3,4,4,8,-1,0
1523010167817503,-1,0,2,-3,1,4,2,0
1523010167817503,-17,-7,-1,-22,-6,-3,-4,-2
1523010167818505,14,1,0,9,4,-2,-6,0
1523010167818505,3,2,-3,-4,-4,-3,0,-3
1523010167830537,5,3,0,-9,4,-1,1,-5
1523010167830537,-23,-7,-2,0,-17,2,3,1
1523010167839561,1,1,-1,5,9,1,-4,-3
1523010167839561,6,-1,-1,-12,-11,1,1,5
1523010167854601,8,5,5,30,7,-4,-1,-5
1523010167854601,-19,-8,-6,-25,6,0,2,-2
1523010167860617,-8,-3,-3,1,-6,-6,2,-2
1523010167860617,-7,2,2,-6,-11,6,-5,-4
1523010167877663,7,-1,-5,-5,7,7,-3,3
1523010167877663,7,3,6,4,-4,-2,2,-3
1523010167878665,-17,-7,-6,-3,-9,-1,0,-1
1523010167878665,7,8,2,12,8,-5,0,1
1523010167890697,-25,-14,-6,-16,-3,0,2,1
1523010167890697,22,12,0,-1,0,-5,0,3
1523010167899721,-4,-2,-3,-32,-16,-16,-6,-3
1523010167899721,0,-3,7,49,23,28,14,5
1523010167913758,-6,-3,0,15,12,-10,-11,-7
1523010167913758,1,-5,-3,0,2,-2,-1,-2
1523010167920777,14,5,0,-20,-21,-8,1,1
1523010167920777,-25,-8,-4,-9,1,-14,-4,-6
1523010167937823,18,3,-4,-12,-14,0,1,-1
1523010167937823,11,0,0,1,7,17,-2,-7
1523010167938825,14,3,5,17,11,2,1,4
1523010167938825,-13,-4,-4,-13,-14,-10,3,-2
1523010167950857,-16,-3,2,7,5,1,3,-4
1523010167950857,19,10,-3,-9,-10,-15,-1,0
1523010167959882,-10,-8,-3,9,11,14,-3,0
1523010167959882,10,5,-1,1,2,-19,-4,-1
1523010167973919,3,3,1,-12,-13,8,1,-2
1523010167973919,-18,-17,-4,-23,-1,-2,-1,1
1523010167980937,11,7,5,45,24,9,3,1
1523010167980937,10,2,-5,-17,-11,1,-1,1
1523010167996980,9,5,-2,-2,-4,-23,-2,-5
1523010167996980,-8,-3,2,1,-4,13,-1,-20
1523010167998985,-3,0,1,-7,-3,11,8,-6
1523010167998985,-23,-21,-7,-17,-14,4,0,3
1523010168020041,4,7,2,13,8,-7,-1,-3
1523010168020041,7,1,-9,0,-4,-8,-1,-10
1523010168022047,-4,0,-1,-5,-7,-7,1,-7
1523010168022047,8,4,-1,3,3,5,0,-2
1523010168034079,-9,-3,-3,-12,-12,4,-1,4
1523010168034079,-3,-4,1,1,-22,-7,6,7
1523010168041097,3,2,-3,-9,17,4,-10,-4
1523010168041097,2,4,1,7,20,-2,3,12
1523010168057140,-8,-13,0,5,7,11,1,10
1523010168057140,0,0,3,10,8,-7,-7,10
1523010168059145,-3,-3,0,-8,-19,9,10,44
1523010168059145,8,-2,-2,-5,-8,-8,-6,44
1523010168080201,7,6,-1,-2,3,-2,3,39
1523010168080201,-8,-15,2,4,2,3,-1,24
1523010168081204,4,11,0,0,-2,7,0,-3
1523010168081204,-5,-18,-3,-6,-18,-9,-8,-16
1523010168094238,-1,3,-1,4,17,4,-1,-20
1523010168094238,-1,-3,-2,-5,-11,-5,3,-16
1523010168101257,-12,-10,2,4,4,-3,-1,-20
1523010168101257,5,16,-1,4,13,3,-3,-22
1523010168117300,6,32,-6,-11,-20,-5,-5,-11
1523010168117300,-4,-9,-1,0,9,-8,-3,-12
1523010168123316,4,-4,-4,-1,-7,1,-3,-10
1523010168123316,1,-1,1,9,28,8,4,-12
1523010168140361,-4,-12,0,-3,-1,-1,0,-9
1523010168140361,1,4,3,10,34,9,-5,-1
1523010168141364,-3,-11,-4,-1,-11,-7,-3,-7
1523010168141364,4,2,0,-6,-16,-3,-3,-10
1523010168154398,-7,-7,0,0,-7,-2,-1,-6
1523010168154398,10,20,-5,-3,-6,-3,1,1
1523010168161417,-2,-11,-1,0,9,3,1,0
1523010168161417,-5,7,4,-1,-6,-3,0,-6
1523010168177460,-5,-7,-4,-3,2,-9,0,-3
1523010168177460,-4,-13,-3,-8,-30,-3,-3,4
1523010168179465,2,1,1,-1,6,-5,-2,-2
1523010168179465,5,13,-2,0,-11,-3,-3,-2
1523010168199518,-2,3,6,2,-2,8,2,-2
1523010168199518,-4,-10,-5,1,26,4,3,2
1523010168201524,-5,-6,-3,1,-1,-1,-2,-3
1523010168201524,-5,2,0,-1,1,-1,-2,0
1523010168214558,1,-1,-2,-2,-11,-6,-4,-2
1523010168214558,3,7,3,0,-17,0,-8,-1
1523010168220574,3,2,-2,-1,-2,-3,5,2
1523010168220574,0,2,-2,-3,-3,-1,4,-2
1523010168237620,-8,-14,-2,-3,-8,-2,-8,0
1523010168237620,-6,-5,2,2,9,1,5,1
1523010168238622,2,15,2,3,1,-7,-8,-1
1523010168238622,3,-17,-11,-10,-19,-1,0,2
1523010168259679,-3,5,0,5,17,-3,0,-2
1523010168259679,-1,-1,1,1,0,5,0,-1
1523010168265694,-2,5,2,9,62,15,3,-1
1523010168265694,-6,-1,-3,-1,-3,8,6,-1
1523010168273716,-7,-14,0,-1,-13,-3,-5,3
1523010168273716,17,28,-2,-4,-15,-6,1,3
1523010168282739,0,1,0,-2,-22,-6,6,0
1523010168282739,1,0,-5,-6,1,-7,-11,-1
1523010168297780,-5,-11,2,1,10,1,3,2
1523010168297780,-7,2,3,1,-1,-6,1,-2
1523010168298782,-1,-2,-3,-4,-11,3,-1,3
1523010168298782,2,5,4,2,5,-8,-11,0
1523010168319838,2,-4,-6,-3,-2,4,10,1
1523010168319838,-3,-12,-1,-9,-34,-6,4,2
1523010168321844,-3,-10,1,5,46,12,5,3
1523010168321844,5,22,1,-1,28,6,-1,0
1523010168333876,4,3,-3,-2,1,0,-4,1
1523010168333876,-3,0,-1,-4,-25,-18,-4,0
1523010168342900,-5,-3,1,2,-28,2,-3,-2
1523010168342900,-7,-9,0,6,-3,4,1,-1
1523010168356937,3,10,-2,1,-4,-6,-1,0
1523010168356937,-6,-7,-3,-1,10,2,-1,-3
1523010168358942,4,3,1,-2,-17,-8,-1,2
1523010168358942,4,8,1,-1,0,-1,-1,1
1523010168379998,-2,-2,0,-4,-9,1,-2,0
1523010168379998,4,0,-2,9,2,4,0,0
1523010168381001,3,1,-3,-5,1,-1,-3,1
1523010168381001,-3,-2,0,1,-5,1,3,0
1523010168393033,-3,2,6,-2,-6,1,-1,-3
1523010168393033,10,3,-6,-5,14,1,2,3
1523010168403060,-5,-4,-1,2,-18,-14,-10,-6
1523010168403060,-3,-3,-4,2,24,4,7,1
1523010168417097,-5,5,0,-1,-14,10,4,-2
