timestamp,emg1,emg2,emg3,emg4,emg5,emg6,emg7,emg8
1523010236604437,-4,-3,-4,-3,-3,0,-4,2
1523010236604437,2,0,1,-1,0,-2,-28,-4
1523010236605446,10,4,3,2,-1,6,32,9
1523010236605446,-19,-6,-9,-2,-4,-3,17,-6
1523010236612455,-13,-4,-2,-4,-2,-5,38,-1
1523010236612455,8,0,1,-4,-5,-2,-36,6
1523010236615463,-20,-4,3,6,4,-2,1,2
1523010236615463,9,8,-2,1,-1,1,15,8
1523010236616466,0,7,0,-2,-3,-9,-71,-3
1523010236616466,-1,-6,-3,-5,-3,5,5,-7
1523010236626493,-10,-6,-2,-3,1,0,7,-7
1523010236626493,-8,-3,-4,3,0,4,-15,-4
1523010236638530,4,-2,0,-1,0,0,12,1
1523010236638530,-5,-5,1,-2,-2,-1,-4,-9
1523010236646546,18,9,3,-1,-2,-2,-49,-2
1523010236646546,12,7,-1,-1,-1,-2,11,6
1523010236660583,-11,-5,-3,-1,-2,0,-2,-5
1523010236660583,-11,-1,0,-1,1,2,26,1
1523010236675623,-4,-4,-1,-1,-2,-3,8,2
1523010236675623,-13,-5,1,1,0,-10,-44,2
1523010236676626,19,8,0,-1,-1,-3,-12,2
1523010236676626,7,-3,0,1,2,-1,22,6
1523010236722749,0,3,-5,-1,-1,-14,-37,-5
1523010236722749,-2,-8,-2,-4,-5,-2,-16,-9
1523010236723751,21,5,5,0,1,-1,9,6
1523010236723751,1,5,2,1,1,-2,-6,1
1523010236724754,-19,-18,-6,-1,-2,4,10,-2
1523010236724754,-5,9,0,0,0,-1,1,1
1523010236727763,-5,-1,3,1,1,-2,-7,-3
1523010236727763,7,1,-4,0,-1,7,10,5
1523010236734780,17,6,0,1,4,-1,11,8
1523010236734780,-3,-5,-4,-2,2,-4,-5,-1
1523010236742802,-6,-9,-1,0,1,-9,-5,-1
1523010236742802,2,5,2,0,1,4,12,1
1523010236749820,2,-1,-3,-2,-1,-4,57,1
1523010236749820,14,2,-2,-2,-2,-13,-58,3
1523010236764860,2,-2,1,-1,1,9,-17,-11
1523010236764860,-49,-7,-1,0,0,9,-10,-12
1523010236771879,17,4,0,1,-2,-1,-6,-3
1523010236771879,4,1,0,-2,1,2,41,10
1523010236786919,-8,-8,-1,-3,-1,-16,17,-8
1523010236786919,-16,-4,-1,-3,-1,-6,-15,-7
1523010236795943,5,4,0,-2,-3,0,14,-1
1523010236795943,3,-6,-3,1,-4,10,-14,-1
1523010236809980,14,-4,-4,-3,2,26,-27,3
1523010236809980,16,6,0,1,-4,-20,48,6
1523010236816999,-3,2,-2,-5,-1,-1,-18,1
1523010236816999,-6,-7,2,0,2,23,54,-3
1523010236833042,-7,3,1,-1,0,-5,-14,2
1523010236833042,11,4,0,1,4,37,39,-1
1523010236835047,12,2,1,3,4,-2,-14,9
1523010236835047,11,4,-1,-2,5,23,21,2
1523010236855101,-52,-9,3,-1,-1,-17,7,-11
1523010236855101,7,-3,-5,-1,3,16,24,1
1523010236862119,7,-2,-1,-2,-5,-22,7,9
1523010236862119,0,4,-1,-3,0,9,34,2
1523010236870140,4,-3,-2,0,-2,-11,-22,1
1523010236870140,3,-2,0,2,14,58,-33,3
1523010236877159,-5,3,2,4,-4,-14,-12,-3
1523010236877159,-1,-3,-3,-3,-4,-19,28,1
1523010236893202,4,1,3,-1,1,10,-29,5
1523010236893202,-2,-1,0,-1,-6,-34,8,-5
1523010236895207,-11,-2,-5,-7,-5,18,16,-3
1523010236895207,-3,0,1,2,0,8,-37,-2
1523010236916263,9,6,1,5,4,30,78,10
1523010236916263,-7,-9,-6,-6,-5,-61,11,0
1523010236917266,1,10,3,1,1,16,-29,-5
1523010236917266,-6,-1,2,1,-1,-16,-1,-2
1523010236930300,9,-4,-2,-7,-18,-82,57,7
1523010236930300,0,-4,-1,0,-3,15,-71,0
1523010236937319,-21,-10,-2,-3,-4,3,20,3
1523010236937319,7,8,4,7,11,60,-31,-8
1523010236953362,-3,1,2,2,1,-11,-22,-2
1523010236953362,3,1,-2,-1,-2,18,54,7
1523010236955367,12,-1,0,3,3,6,-2,10
1523010236955367,-2,4,0,-3,-6,-4,-32,1
1523010236975421,-8,1,0,4,5,10,-12,-10
1523010236975421,6,-2,1,0,3,19,-36,-5
1523010236977426,-4,-3,-3,-6,-1,20,-19,-7
1523010236977426,2,1,-3,3,6,7,30,3
1523010236990460,-1,1,-2,0,0,15,11,-7
1523010236990460,0,-1,-1,1,0,-13,2,3
1523010236997479,2,5,-1,-1,2,-17,-2,-7
1523010236997479,-11,-5,-1,-4,-2,-1,-69,-11
1523010237013522,4,2,0,-3,-6,-41,-6,7
1523010237013522,11,-1,0,0,-1,-6,3,0
1523010237014524,4,0,3,3,3,1,-33,3
1523010237014524,-43,-14,-7,-6,-6,-19,-31,-11
1523010237036583,5,3,0,-3,1,-12,51,2
1523010237036583,5,-1,-3,-7,-9,-24,2,4
1523010237041596,11,1,-1,9,1,-6,45,-2
1523010237041596,11,3,2,0,-2,-4,77,7
1523010237049618,-4,-5,-4,-3,0,-6,-46,-4
1523010237049618,-6,-4,-5,-5,-13,-50,23,-22
1523010237058642,-4,-2,-1,-3,2,45,26,-1
1523010237058642,-6,-5,-2,-2,-2,-24,-1,-1
1523010237073682,-15,-6,-4,-4,-5,32,-27,-3
1523010237073682,1,3,0,0,3,2,-37,3
1523010237074684,-10,-6,-2,0,2,13,4,-8
1523010237074684,5,1,-3,-3,-2,-9,-12,-1
1523010237095740,8,5,1,0,6,56,-8,1
1523010237095740,-7,-4,-5,-7,-13,-18,59,5
1523010237097746,-13,-8,-1,-2,0,-23,-75,-10
1523010237097746,15,1,-1,2,4,33,-7,9
1523010237109778,-6,1,1,1,-3,-10,40,-2
1523010237109778,-4,1,3,4,6,20,-104,-7
1523010237118802,-2,0,1,-1,0,5,-27,-1
1523010237118802,6,-1,0,-3,-4,-18,32,3
1523010237132839,12,3,-3,4,1,20,-4,-3
1523010237132839,-4,-6,-1,0,3,20,-6,4
1523010237134844,-9,1,0,-2,-1,-17,-3,-1
1523010237134844,-1,-2,0,-1,-5,-12,-26,-6
1523010237155901,9,-4,-4,-7,-3,-20,-40,-9
1523010237155901,13,2,0,2,2,11,51,1
1523010237157906,-21,-2,-1,-1,-4,-11,-10,2
1523010237157906,4,-9,-2,-2,0,-3,-3,-5
1523010237169938,-20,-6,-2,-3,0,-24,3,-4
1523010237169938,18,4,0,-3,-2,11,0,0
1523010237178962,2,5,-5,-3,-3,18,34,-5
1523010237178962,3,0,1,1,-3,-18,20,9
1523010237192999,2,-8,2,5,2,34,61,-3
1523010237192999,1,9,1,3,5,14,-4,5
1523010237195004,2,-5,-1,2,0,-5,61,2
1523010237195004,-7,2,-1,3,3,-5,35,-2
1523010237223079,5,-3,-2,-1,-2,1,19,2
1523010237223079,-3,-2,-4,-2,-4,2,-41,-1
1523010237225084,1,5,-3,-2,1,-24,17,-2
1523010237225084,10,1,2,3,4,15,-23,1
1523010237229095,-9,-2,-1,-2,-2,-19,4,-1
1523010237229095,3,4,2,0,1,-14,-44,0
1523010237238119,12,-4,-4,-4,2,49,0,7
1523010237238119,-26,-7,1,1,-1,-13,-46,11
1523010237253159,-5,-1,0,-2,0,32,3,5
1523010237253159,-5,3,-2,5,8,16,-11,-1
1523010237255165,6,1,4,1,-2,-1,29,-10
1523010237255165,3,6,-1,-2,-3,-4,17,-10
1523010237276220,8,6,6,1,5,10,91,1
1523010237276220,-12,-4,1,-5,-5,5,41,-12
1523010237277223,-7,-14,-3,-2,-1,-9,-29,-9
1523010237277223,2,3,-3,-4,-3,-7,-26,-6
1523010237289255,10,3,0,1,0,-16,-28,8
1523010237289255,-1,-2,-1,0,0,-6,-1,9
1523010237298279,7,5,3,4,5,8,12,19
1523010237298279,-4,-3,1,-5,-9,-29,-47,22
1523010237313319,-1,-3,-3,-2,0,2,44,22
1523010237313319,-15,-3,1,4,6,-4,32,10
1523010237315324,2,-1,-1,-6,-10,-11,-14,17
1523010237315324,4,-1,-2,9,11,18,75,-5
1523010237335378,5,5,1,-3,0,11,23,-3
1523010237335378,10,1,3,3,1,-9,60,9
1523010237337383,-4,-1,-1,-3,-2,-10,-51,1
1523010237337383,-4,2,-2,-7,-9,-37,-46,3
1523010237349415,-3,0,0,2,1,-7,-42,11
1523010237349415,-15,-7,-3,-3,-8,-14,-16,-4
1523010237358439,2,-2,-1,0,-3,-10,5,-3
1523010237358439,2,0,-2,-3,-3,19,53,-16
1523010237373479,4,2,2,3,2,11,64,-14
1523010237373479,7,1,0,-2,-5,-11,-37,-2
1523010237374482,-10,-2,-5,-4,-4,1,12,-13
1523010237374482,1,5,4,2,5,30,52,-14
1523010237395538,2,3,4,5,-4,-20,-92,4
1523010237395538,1,-4,-1,3,5,6,38,4
1523010237397543,-6,0,-2,-3,-7,-14,-70,-9
1523010237397543,-4,-6,-3,-2,0,0,24,-3
1523010237409575,-8,-4,-2,-5,-5,-1,-78,-20
1523010237409575,5,5,-2,-2,-6,-1,8,-15
1523010237418599,1,-2,-2,-2,-1,-12,-4,-12
1523010237418599,-6,-6,-3,-4,-4,-4,-6,-3
1523010237434642,4,1,-1,-1,-1,4,-4,-11
1523010237434642,-15,-12,-5,-4,-4,-2,43,4
1523010237439655,12,5,2,4,4,2,69,-13
1523010237439655,4,-4,-3,0,-3,3,22,2
1523010237455698,-3,-3,-3,1,1,10,40,-6
1523010237455698,6,5,0,-4,-6,-25,10,-7
1523010237457703,1,4,-1,-1,-3,-2,-50,-13
1523010237457703,-2,-3,2,-1,-3,-9,-21,-7
1523010237469735,-7,-8,-4,1,1,13,-29,-9
1523010237469735,-3,3,-2,2,3,11,-17,-9
1523010237478759,0,2,3,3,1,-21,-20,7
1523010237478759,6,2,-2,-4,-9,-5,19,7
1523010237493799,-3,-1,-1,-4,-8,-31,86,12
1523010237493799,-3,-1,-2,-9,-8,11,-26,-5
1523010237494802,-5,-3,1,8,24,9,30,5
1523010237494802,-1,0,1,-1,-2,3,13,2
1523010237515858,8,1,1,3,-1,5,22,15
1523010237515858,-5,-2,-2,-4,-7,-5,-95,2
1523010237521874,-2,-4,-3,-6,-7,3,43,10
1523010237521874,-2,2,-2,0,5,-1,-10,-1
1523010237529895,0,-4,-5,-8,-6,13,-36,-4
1523010237529895,8,-1,2,7,4,21,42,-2
1523010237538920,-10,-2,-1,-6,-9,-10,-18,1
1523010237538920,7,1,-1,-5,-21,-1,-22,-1
1523010237552956,-16,-6,-2,-1,20,-10,-22,-8
1523010237552956,4,2,-1,2,28,25,66,-3
1523010237554963,4,-4,-1,1,-6,47,58,6
1523010237554963,-1,-1,-1,6,20,-12,-80,-1
1523010237576018,14,8,3,14,-2,-4,26,8
1523010237576018,-5,-10,-7,-1,-1,-30,-47,-6
1523010237577020,-3,0,1,-11,-12,9,-87,-16
1523010237577020,3,9,5,2,14,2,-21,-2
1523010237589061,7,-6,-4,-12,-18,-15,-30,-2
1523010237589061,-17,-3,0,0,-3,15,-29,-7
1523010237598076,-4,-1,0,2,-3,-6,51,-1
1523010237598076,4,-2,0,-4,-5,1,82,-3
1523010237613117,-5,13,1,-1,5,35,-97,-3
1523010237613117,4,-2,-1,-5,-16,-39,99,20
1523010237615122,-4,5,5,3,-6,-62,-71,-18
1523010237615122,-2,-8,-4,-3,7,21,9,4
1523010237636178,2,6,2,0,4,20,56,2
1523010237636178,8,12,1,-6,-20,-33,-39,-5
1523010237637180,-12,-14,-5,-3,21,-2,94,-7
1523010237637180,-3,-4,-2,4,-3,-9,16,2
1523010237649212,-4,-12,-8,-11,-30,-24,-12,-1
1523010237649212,9,17,3,10,4,-6,-2,-10
1523010237658237,6,-7,-1,-3,-5,13,35,11
1523010237658237,-23,-8,1,-2,1,-15,-78,-19
1523010237672274,5,0,-1,2,4,6,21,4
1523010237672274,6,1,1,-4,-1,11,28,7
1523010237687314,8,7,1,4,9,52,22,8
1523010237687314,-22,-10,-2,-6,-14,0,26,3
1523010237694332,-4,-2,-2,3,-3,0,-23,-4
1523010237694332,3,-6,0,1,18,2,-56,-1
1523010237703356,14,5,-2,0,-4,-16,-44,7
1523010237703356,7,9,4,0,-4,-15,-16,7
1523010237718396,-5,-1,-1,-3,5,-13,-6,0
1523010237718396,9,-2,-1,-1,1,16,-7,-5
1523010237720402,-11,-9,-4,-2,0,-9,11,0
1523010237720402,-6,-3,-3,-1,1,13,71,5
1523010237740455,4,5,0,-4,7,70,0,-3
1523010237740455,-10,-9,-1,8,4,-21,32,-1
1523010237742461,8,5,1,2,0,4,10,9
1523010237742461,11,0,-1,-3,-10,-5,3,-4
1523010237754493,3,1,1,4,13,-21,-14,1
1523010237754493,-6,-9,-4,-12,-9,18,-7,1
1523010237764519,-12,5,-1,1,-4,-21,-5,-12
1523010237764519,3,9,0,1,-2,12,-11,-1
1523010237778556,7,-7,-3,2,0,-26,39,-5
1523010237778556,2,1,-1,-3,-2,6,-16,2
1523010237779559,-2,-7,-1,-1,-2,-3,-9,-2
1523010237779559,-3,-4,0,-1,2,4,-5,0
1523010237801617,-21,-2,0,2,-1,-14,33,-3
1523010237801617,-6,-5,-3,-3,-3,7,-19,-2
1523010237806631,12,0,-1,-1,2,14,4,4
1523010237806631,12,9,2,5,7,3,-11,2
1523010237814652,-5,-8,-5,-5,-2,7,24,-8
1523010237814652,0,5,3,2,1,3,-2,2
1523010237823676,-2,-2,-1,-2,-1,40,-25,-1
1523010237823676,0,-7,0,-1,-2,-40,27,6
1523010237838716,-5,0,-6,-1,-6,3,-19,-8
1523010237838716,-5,2,-2,-1,-3,-15,-48,-2
1523010237839719,2,2,0,-3,-2,12,3,4
1523010237839719,-2,-5,-2,0,3,17,-1,2
1523010237860775,-5,2,2,0,-1,-5,-19,-6
1523010237860775,2,0,2,2,0,-5,30,3
1523010237862780,-6,-1,1,-1,-1,-14,-6,-7
1523010237862780,-3,-2,-3,-2,-1,12,-71,-2
1523010237883836,7,2,-1,-3,-7,-17,11,7
1523010237883836,-4,-1,-2,-2,0,14,45,-7
1523010237884839,-2,-2,-1,-1,0,1,-37,-1
1523010237884839,-1,0,0,0,-2,-3,19,-3
1523010237897873,-1,-1,-1,-1,-3,-26,2,0
1523010237897873,0,-5,-5,-3,-2,-10,-36,5
1523010237899879,-6,-4,-3,-4,-4,-13,6,-2
1523010237899879,-2,-2,-2,1,0,-18,34,-3
1523010237920935,-1,1,-2,-4,0,2,-32,2
1523010237920935,1,1,1,3,-2,-5,2,-2
1523010237921938,2,-2,-2,-2,-2,-8,8,1
1523010237921938,2,-4,-3,-2,2,3,0,-4
1523010237933969,1,7,2,4,3,-31,13,2
1523010237933969,-10,-10,-3,-4,-6,-7,-26,1
1523010237943996,0,3,3,3,0,-2,18,0
1523010237943996,-4,-9,-3,-1,-1,-26,32,-9
1523010237958033,4,5,1,1,2,18,10,1
1523010237958033,7,2,-1,-2,-2,-1,-12,-1
1523010237960040,3,-5,0,2,-1,-10,50,2
1523010237960040,1,2,-1,-2,-3,-2,12,-6
1523010237981095,-17,2,-1,0,1,0,-53,-9
1523010237981095,3,-2,1,-1,0,-6,32,7
1523010237982098,-7,-8,-4,-2,-2,-9,6,-4
1523010237982098,23,14,1,-1,1,16,15,11
1523010237994129,7,-7,-3,-1,-1,12,-6,-1
1523010237994129,-30,-1,-6,-3,-3,7,22,-11
1523010238003154,-5,-2,0,0,0,-5,-5,-3
1523010238003154,1,0,0,-5,0,7,-24,-3
1523010238018193,15,3,2,-1,-5,-12,5,5
1523010238018193,0,-7,0,-2,0,1,2,0
1523010238020199,-4,0,-1,-3,-3,-1,-41,-5
1523010238020199,-8,-2,1,4,-2,1,-19,-4
1523010238040253,3,-2,-5,-4,-1,0,27,0
1523010238040253,3,-13,-3,1,0,-2,8,-3
1523010238047272,0,0,-1,0,0,-3,3,2
1523010238047272,-19,-3,-1,-3,-5,-8,-22,-9
1523010238054290,0,3,1,4,4,14,63,8
1523010238054290,7,6,-1,-3,-1,-10,-3,0
1523010238063314,8,-2,-1,-2,-1,0,-1,1
1523010238063314,2,-5,1,0,-3,9,-7,3
1523010238078354,-10,-1,1,0,-2,-1,-4,-3
1523010238078354,3,5,2,1,0,5,2,3
1523010238080359,1,-1,-1,1,-1,0,15,0
1523010238080359,8,1,-2,-2,0,2,0,-4
1523010238100412,-19,-9,-1,-2,-1,-1,-28,-4
1523010238100412,-10,-4,-2,0,-3,-2,21,-5
1523010238102418,2,5,0,0,-1,3,-13,4
1523010238102418,1,-4,-2,-1,-1,-1,6,2
1523010238114449,1,-6,-5,-3,-1,3,-43,-1
1523010238114449,9,15,0,1,0,3,-3,3
1523010238123474,-5,-4,3,-1,-1,-2,11,2
1523010238123474,-9,-7,-3,0,1,2,-6,0
1523010238137511,6,-1,1,-1,-2,7,1,3
1523010238137511,-2,-1,-2,-2,-2,1,34,0
1523010238144529,6,5,-3,-2,-3,-5,-9,1
1523010238144529,-2,-2,1,-1,-2,8,-2,-2
1523010238161575,-6,0,0,4,4,-7,-13,-3
1523010238161575,-4,-7,-2,-4,-5,1,-9,-7
1523010238163581,-1,0,-2,-1,1,-1,4,-1
1523010238163581,-3,11,6,3,2,1,4,2
1523010238174609,0,-1,-1,-1,-3,-1,8,-7
1523010238174609,7,0,-3,-2,-1,-4,-21,-6
1523010238183634,4,-3,-1,2,5,0,-3,-6
1523010238183634,-3,-6,-2,-1,-4,-11,2,-4
1523010238197671,4,6,-2,-2,0,-2,-8,-4
1523010238197671,-14,-13,3,0,1,-1,-3,-9
1523010238205692,-23,1,0,-1,-5,1,0,-5
1523010238205692,2,1,-3,-2,3,-12,65,5
1523010238220732,-1,-3,-1,-4,-3,3,-43,1
1523010238220732,12,-2,-2,-2,0,-3,1,10
1523010238222738,-3,0,2,0,-2,-1,-14,1
1523010238222738,0,2,3,-1,-2,1,0,7
1523010238234770,-6,-6,-2,0,-3,-2,15,6
1523010238234770,-2,-3,-4,-2,-1,5,-4,10
1523010238243794,11,6,0,1,0,-7,9,10
1523010238243794,-3,-1,0,2,3,-2,-28,-2
1523010238257831,-14,-3,-1,-2,-2,-6,5,-3
1523010238257831,11,0,-2,-2,-2,3,4,-3
1523010238264849,-4,-6,-4,-3,0,3,-41,-7
1523010238264849,-5,-6,-4,0,-2,27,20,-4
1523010238280892,-4,-10,0,-1,-2,-3,22,-8
1523010238280892,2,8,3,0,2,1,-70,-3
1523010238282898,6,1,-2,-3,-4,-3,-8,-8
1523010238282898,10,0,-1,-1,0,-4,-12,5
1523010238302951,5,4,-1,0,0,1,-62,2
1523010238302951,0,3,-4,-3,-6,-5,67,11
1523010238304956,-4,-4,3,1,5,1,22,5
1523010238304956,0,0,0,0,-4,-1,-23,16
1523010238317991,-4,-1,-1,-2,0,-4,23,14
1523010238317991,3,-4,-5,1,1,-3,49,16
1523010238325010,-2,5,2,-6,-6,0,-75,4
1523010238325010,-10,-7,-2,-1,0,-2,-31,-9
1523010238341052,3,1,-4,0,-3,-6,51,-1
1523010238341052,2,0,-1,-1,-1,-5,-19,-7
1523010238342055,-3,4,-1,1,0,2,68,0
1523010238342055,-3,-10,-2,-5,-3,-3,-10,-10
1523010238363111,10,5,-1,3,1,-1,-68,-10
1523010238363111,2,6,4,3,0,-6,-28,-11
1523010238365116,-12,-11,-4,-2,-2,0,14,-8
1523010238365116,-3,0,0,-2,-2,-4,-2,-11
1523010238378151,-1,0,2,0,2,3,27,-3
1523010238378151,-6,-2,-2,-2,-2,4,8,-3
1523010238384167,5,-5,-4,0,1,-6,-10,-9
1523010238384167,1,-1,-2,-4,0,-4,3,-1
1523010238401212,3,2,3,4,3,7,15,2
1523010238401212,-3,-3,-2,-4,-1,1,-6,-8
1523010238402215,1,2,-5,-4,-2,-2,-2,3
1523010238402215,-1,2,4,2,-1,3,11,1
1523010238423271,5,2,1,2,-1,-12,-44,-8
1523010238423271,-7,1,0,1,1,-2,-15,0
1523010238425276,-11,-6,-4,-1,-2,9,6,-3
1523010238425276,-5,-1,-4,-1,-4,-8,-26,-19
1523010238437309,5,2,-2,-5,-6,-3,55,6
1523010238437309,3,-2,1,0,-2,2,-4,-1
1523010238452348,2,-6,-1,-5,-6,-9,-13,-1
1523010238452348,5,4,3,5,4,2,16,-3
1523010238460370,-9,-3,-2,1,-3,-8,-10,-10
1523010238460370,-11,-4,-2,-2,-2,10,-43,-8
1523010238462375,8,1,1,-2,-6,2,54,0
1523010238462375,4,1,-3,-4,-3,5,2,8
1523010238483431,-5,-5,-2,-4,-1,1,-3,1
1523010238483431,7,-9,-2,-2,-1,-1,10,4
1523010238485436,-15,10,3,1,0,-12,2,1
1523010238485436,3,1,-5,-2,-1,3,-9,4
1523010238497468,-2,-9,-4,0,-1,4,4,1
1523010238497468,-4,4,8,6,0,-4,2,-1
1523010238506493,5,-7,-7,-3,-4,-10,15,4
1523010238506493,-1,3,0,0,-6,-3,-5,2
1523010238519527,-4,-1,-5,-3,0,-5,44,1
1523010238519527,3,0,0,1,1,-5,5,-1
1523010238528551,10,1,4,1,0,-3,-58,-6
1523010238528551,-18,1,-2,0,1,0,4,0
1523010238543591,-6,-8,-6,-4,-2,-2,-32,-4
1523010238543591,6,-1,1,-1,3,13,-23,3
1523010238544594,3,15,-2,0,1,-10,85,3
1523010238544594,1,-10,-1,-1,2,45,18,-2
1523010238556625,11,2,2,0,-3,-19,50,16
1523010238556625,-15,-3,-4,0,-1,-12,-39,-11
1523010238565649,6,-4,2,4,2,4,42,-1
1523010238565649,-9,-4,-6,-6,-4,7,-76,-3
1523010238580689,10,5,-2,-4,-3,0,9,4
1523010238580689,8,6,-2,1,1,5,18,-2
1523010238582695,-5,-1,3,4,-2,-56,18,0
1523010238582695,-13,-9,1,-2,-2,-28,42,7
1523010238603751,-4,14,6,-1,3,30,-96,-13
1523010238603751,8,1,-2,-1,-2,-18,-14,5
1523010238604759,10,-1,-3,-4,-2,32,6,1
1523010238604759,-21,-6,-4,1,2,-10,0,-5
1523010238616785,-16,-9,-2,-5,-3,8,1,-10
1523010238616785,6,3,-5,-6,-5,14,51,-6
1523010238625810,-2,-1,3,2,3,7,-52,2
1523010238625810,3,-7,-2,0,1,2,34,1
1523010238640849,-3,-9,-3,-1,0,0,19,5
1523010238640849,-11,8,4,1,4,39,43,-12
1523010238642855,10,2,-1,-1,-6,-19,38,12
1523010238642855,14,5,-2,-2,-2,-2,-10,-5
1523010238664913,0,6,-1,0,0,0,-19,-2
1523010238664913,-3,-10,-3,-4,0,-4,31,9
1523010238669927,-6,-7,-5,-6,-4,-23,-102,-11
1523010238669927,0,-7,-1,1,-1,-13,24,-7
1523010238676945,3,2,-1,-1,-2,2,13,1
1523010238676945,21,9,3,1,3,-20,16,7
1523010238685970,-19,-3,2,2,4,17,7,5
1523010238685970,-21,-8,-1,-4,-16,-89,19,-9
1523010238725073,18,-3,-5,-3,-1,-13,-29,1
1523010238725073,-1,0,0,-1,0,23,45,1
1523010238726077,6,-5,0,2,5,-15,-44,1
1523010238726077,5,11,1,3,0,17,18,-3
1523010238727079,-2,4,0,-1,-1,14,54,3
1523010238727079,-4,-9,0,0,-4,-21,-25,9
1523010238731089,1,-4,-2,-3,0,21,-2,-9
1523010238731089,12,4,4,1,4,18,-16,0
1523010238737106,-16,-6,-4,-2,-2,-4,-8,-2
1523010238737106,22,-2,-3,-2,0,10,0,5
1523010238746130,27,8,3,-1,-2,11,13,-7
1523010238746130,-79,-12,1,2,5,7,-25,-5
1523010238761169,13,9,1,2,1,-8,17,5
1523010238761169,-10,-5,0,0,-3,-9,5,-5
1523010238762172,8,-7,-5,-4,5,60,-61,1
1523010238762172,52,14,3,-1,-4,37,83,25
1523010238783228,-12,-9,-2,11,2,-50,-94,-14
1523010238783228,-15,-8,-4,-2,-1,-9,-12,-1
1523010238785234,4,5,3,1,1,5,43,9
1523010238785234,3,-7,-5,-9,-2,22,-49,-4
1523010238797265,-5,-2,0,-6,-1,13,1,-9
1523010238797265,4,6,1,1,-2,-25,-7,-12
1523010238806290,-19,-14,-4,-3,-6,-35,4,7
1523010238806290,-1,1,1,2,5,3,-11,0
1523010238820327,-10,-13,-5,-5,-3,-4,-28,-12
1523010238820327,-9,6,2,2,1,-3,-20,-9
1523010238822333,-7,8,-2,-1,-3,-41,32,-11
1523010238822333,15,5,-1,-2,0,20,19,7
1523010238843388,11,2,-1,-3,0,19,25,-5
1523010238843388,-9,-8,-2,-8,-7,-25,-49,6
1523010238845393,-16,-4,0,2,3,0,-3,-16
1523010238845393,11,4,-4,-1,1,-29,-13,-2
1523010238857425,-2,10,2,1,1,16,11,1
1523010238857425,-4,-6,0,-7,-3,12,17,10
1523010238866450,-11,-2,-3,3,3,17,2,-10
1523010238866450,9,2,-3,1,3,-3,5,9
1523010238880487,-8,-11,-3,-1,-3,10,36,-1
1523010238880487,-8,6,0,-1,-2,-21,-48,-11
1523010238882492,0,-2,-3,-10,-12,-20,38,0
1523010238882492,12,6,4,5,6,-7,-15,-4
1523010238903548,16,2,-1,-2,-3,-6,-5,24
1523010238903548,-12,-7,-2,3,1,38,2,-10
1523010238904551,1,4,-1,0,-1,-1,64,2
1523010238904551,5,-4,-1,1,0,4,-14,1
1523010238916583,8,11,2,1,-2,5,-4,2
1523010238916583,-25,-12,-6,-9,-7,-2,-57,-2
1523010238925607,3,-2,1,8,-1,-3,9,10
1523010238925607,-4,2,-2,-1,1,27,9,-3
1523010238940647,9,-3,-1,0,2,-5,-21,4
1523010238940647,2,5,-1,0,-1,-17,-12,-13
1523010238942652,-2,-4,1,-4,-5,63,30,6
1523010238942652,-1,2,3,-1,-3,-14,40,-6
1523010238963708,10,2,0,0,2,-1,-3,1
1523010238963708,-6,3,1,-5,-3,4,41,2
1523010238964711,-9,-15,-3,-2,-1,-10,-56,1
1523010238964711,1,-3,-2,9,4,8,-1,0
1523010238976743,-18,-2,-4,-5,9,-2,8,6
1523010238976743,20,5,3,1,-3,2,32,10
1523010238985767,11,0,-1,-8,1,-48,83,1
1523010238985767,-4,0,0,5,4,-7,-9,1
1523010239000807,3,12,4,3,0,17,69,-8
1523010239000807,7,-2,-2,2,2,2,0,9
1523010239002812,3,8,4,3,5,11,-31,3
1523010239002812,-9,-9,-2,-6,-6,-8,2,2
1523010239022866,3,-2,-3,0,-3,-15,-13,-5
1523010239022866,1,5,2,0,1,5,-16,-5
1523010239024871,-12,-13,-4,-1,-6,9,-64,-14
1523010239024871,16,8,1,-1,2,-13,-16,-1
1523010239036903,3,-4,-3,-3,-10,-7,26,1
1523010239036903,-40,-14,-1,2,3,-6,-9,-22
1523010239045927,9,-3,-3,-5,-6,-2,-29,-1
1523010239045927,-2,-4,-3,-3,-10,-8,13,-11
1523010239060967,1,8,4,1,9,-14,-48,-13
1523010239060967,18,6,2,6,3,-1,84,13
1523010239061970,-8,0,-3,3,4,-6,13,-12
1523010239061970,-1,-10,-3,-3,-4,0,-35,4
1523010239084028,-1,5,3,-1,-7,6,91,4
1523010239084028,7,-4,-3,-9,-7,-4,-68,14
1523010239085031,-12,-1,-1,10,9,7,-16,16
1523010239085031,-4,-1,0,-1,-5,0,25,6
1523010239097063,-10,-8,-5,0,2,-2,70,9
1523010239097063,-4,-14,-3,-1,0,-7,37,4
1523010239106088,11,1,-2,-6,-3,13,33,7
1523010239106088,-13,6,3,2,-1,-5,58,-11
1523010239120124,4,7,0,-4,-3,1,-20,1
1523010239120124,3,-2,-4,2,4,-1,19,-10
1523010239127143,-2,-1,0,-2,-6,-7,-13,-3
1523010239127143,-15,-6,-5,-4,-2,-19,0,-8
1523010239143186,-4,-7,-2,-1,-3,3,-35,-12
1523010239143186,16,11,1,0,1,11,27,-5
1523010239145191,-4,4,-1,-1,-1,-9,61,-8
1523010239145191,3,-8,1,-2,0,14,-61,4
1523010239166247,-8,-1,-4,-4,-7,-9,-13,8
1523010239166247,3,-7,-3,1,-3,0,-13,13
1523010239167250,-5,0,1,4,7,2,-56,17
1523010239167250,1,-6,-1,-4,-3,-8,21,26
1523010239180284,2,6,-1,0,-3,4,-12,24
1523010239180284,0,-3,-1,-5,-8,0,13,33
1523010239187303,6,-1,-1,-4,-4,-2,20,10
1523010239187303,13,12,-1,-3,-1,-5,-13,6
1523010239203346,-2,-20,-3,4,3,11,-3,2
1523010239203346,0,8,1,-1,-3,-24,69,1
1523010239205351,-4,12,4,1,-3,11,-29,-2
1523010239205351,-6,-6,-1,2,-1,4,35,-5
1523010239217382,-3,-6,-4,-2,-2,0,0,-2
1523010239217382,12,0,-1,2,4,5,-19,-8
1523010239226407,-2,0,0,0,-1,-2,20,-14
1523010239226407,3,-2,0,-1,1,-1,-4,-18
1523010239240444,-3,6,-3,-1,-2,2,58,-14
1523010239240444,6,-5,1,-1,-3,9,11,-6
1523010239247463,-8,-3,-4,-4,-4,-1,-48,-22
1523010239247463,-9,2,0,1,0,-8,-46,-25
1523010239263506,6,-4,-6,3,-3,-9,-18,3
1523010239263506,-11,2,0,-1,-1,-12,-103,-26
1523010239264508,4,-1,-2,-4,-4,16,52,-3
1523010239264508,11,10,1,1,2,-14,-45,-4
1523010239285564,0,9,1,1,2,-9,-17,4
1523010239285564,-1,-9,-4,-1,-2,3,10,-3
1523010239287576,-12,-9,1,2,-1,-13,-5,-7
1523010239287576,3,3,-2,-4,-3,7,10,1
1523010239300604,7,3,0,-1,-2,-1,14,-1
1523010239300604,4,2,-4,0,-3,1,7,1
1523010239306620,-7,-6,-3,-3,-2,-6,-13,-14
1523010239306620,-1,5,3,0,-1,3,-14,0
1523010239323666,-10,-7,0,0,1,0,15,-10
1523010239323666,-1,0,-3,0,-2,7,66,-3
1523010239324668,2,-2,0,1,-5,-10,-12,1
1523010239324668,5,0,-2,2,1,2,20,5
1523010239345724,-1,-3,-3,-5,-4,-1,67,-3
1523010239345724,-5,0,1,0,2,12,-34,-9
1523010239347729,2,3,-2,-2,2,3,18,5
1523010239347729,0,-2,-3,-1,-4,-5,10,-13
1523010239359761,-4,6,1,-2,0,-3,-14,-6
1523010239359761,-9,-1,3,3,-1,-4,-4,-15
1523010239366780,-5,-11,-6,-6,-4,-16,-55,0
1523010239366780,-1,3,-4,0,-1,5,21,6
1523010239384828,5,9,-4,-3,-5,-6,-26,-6
1523010239384828,1,-8,1,-3,-1,-6,-18,0
1523010239385831,-3,4,7,3,4,1,16,4
1523010239385831,0,-5,-2,0,1,3,45,4
1523010239405884,-8,-5,-4,-4,-3,6,41,-4
1523010239405884,1,6,-2,0,1,-4,24,11
1523010239407889,9,0,0,1,2,-2,18,2
1523010239407889,-4,-5,-1,0,-2,9,4,8
1523010239420928,6,10,2,3,1,-6,-21,1
1523010239420928,-13,-11,0,-4,-3,1,-3,-7
1523010239434961,4,1,0,2,3,8,14,4
1523010239434961,6,3,-3,-5,-3,-9,3,8
1523010239442983,-1,1,-2,2,3,-8,-47,-1
1523010239442983,-13,-1,3,0,-1,21,1,-2
1523010239444988,1,-3,1,0,-2,-3,6,-1
1523010239444988,5,4,-1,-1,-3,-17,-101,-4
1523010239466044,-5,-10,-3,-2,0,3,30,-1
1523010239466044,-5,-1,-5,-6,-2,-12,13,-2
1523010239467047,-2,-1,1,1,2,6,19,-3
1523010239467047,-6,-4,0,0,0,1,-27,-8
1523010239479079,5,1,0,-1,-1,-12,-20,6
1523010239479079,-1,3,-3,0,-1,-7,-28,-2
1523010239488103,1,-5,-2,-2,0,-8,29,2
1523010239488103,-5,3,-2,0,-1,-3,20,2
1523010239503143,6,-11,-1,1,-1,-9,-26,8
1523010239503143,-1,8,-1,-2,0,2,29,-7
1523010239505148,2,3,2,2,-5,-4,13,7
1523010239505148,-9,-12,-2,-2,-1,10,23,0
1523010239526204,1,1,0,0,-2,17,-9,-1
1523010239526204,-1,-8,-2,1,1,-10,-43,-3
1523010239527207,4,8,0,-1,-2,1,-10,3
1523010239527207,-10,5,-2,-2,-1,2,12,-1
1523010239539239,-3,-8,1,0,-1,7,10,-5
1523010239539239,4,-3,-2,0,-1,-5,26,3
1523010239548262,3,5,1,0,3,-12,-1,-6
1523010239548262,7,3,1,-2,-3,17,-67,2
1523010239563303,-4,-5,-2,-1,1,-2,-14,1
1523010239563303,8,2,0,-1,-1,-2,12,4
1523010239565308,-14,-2,3,-1,2,-5,3,0
1523010239565308,0,-2,-3,-2,0,19,68,-4
1523010239586364,-2,-1,-2,-2,0,-5,9,-3
1523010239586364,1,-4,-2,0,-2,-2,-20,3
1523010239587367,0,-4,-2,-2,-2,12,-33,-8
1523010239587367,-6,-5,-1,-1,0,-8,21,-1
1523010239599399,-2,2,0,-2,-1,-1,-12,-3
1523010239599399,3,2,-4,-2,-2,-3,-7,-4
1523010239608423,-4,-6,-3,-2,-2,3,-7,-1
1523010239608423,-12,0,1,-1,0,-7,9,1
1523010239623463,6,3,4,3,0,-10,-6,8
1523010239623463,-10,2,1,2,4,-24,-1,-2
1523010239625468,1,-7,-4,3,1,34,12,-1
1523010239625468,2,1,-3,0,-3,-15,-4,-9
1523010239645522,0,3,2,-1,1,4,14,2
1523010239645522,2,-5,-3,-2,-3,3,-19,3
1523010239647527,4,3,1,2,4,-16,35,8
1523010239647527,0,0,2,4,3,-5,2,-2
1523010239659559,-2,0,-4,-6,-3,12,-2,-6
1523010239659559,6,3,3,2,0,6,-7,11
1523010239669585,-1,-1,-1,-2,-2,-12,-17,-1
1523010239669585,4,0,-2,-3,-4,17,6,-1
1523010239683623,-1,1,0,0,0,-1,26,-4
1523010239683623,3,-4,-1,1,1,4,17,9
1523010239684625,-3,4,-3,-3,-2,-2,-3,-2
1523010239684625,-5,0,3,2,2,-12,-1,-3
1523010239705681,-5,-6,-2,0,0,-2,-4,-3
1523010239705681,5,-5,-4,-3,-2,4,17,0
1523010239707687,4,3,-1,-2,-2,-7,-39,4
1523010239707687,2,4,0,-2,0,-11,15,-8
1523010239719719,-5,-3,-1,1,-2,-4,-19,-1
1523010239719719,-11,-2,3,3,1,7,9,8
1523010239728743,-5,-4,-1,-1,-4,-5,-2,-10
1523010239728743,13,3,-4,-1,-1,1,-7,10
1523010239742780,3,-5,-3,0,1,-9,-25,2
1523010239742780,-3,5,1,-4,-4,-2,42,-9
1523010239750801,-12,-6,2,2,1,-9,27,-11
1523010239750801,3,-2,-2,0,0,9,10,12
1523010239765841,4,0,-2,-2,-1,-4,31,1
1523010239765841,1,7,2,-2,2,8,-58,4
1523010239767847,0,1,0,-2,-2,1,11,-1
1523010239767847,-8,-5,0,-1,-1,-8,7,1
1523010239779879,2,-4,-3,-4,-4,-5,-3,0
1523010239779879,-6,0,-2,-1,-2,-14,-9,-4
1523010239788903,0,-1,-1,-1,-1,9,-14,-3
1523010239788903,-1,-4,-4,-1,1,0,-16,-1
1523010239802940,-3,-4,-2,-1,0,0,-11,-4
1523010239802940,5,9,2,3,0,5,11,5
1523010239804946,2,-5,-3,-2,1,-6,-4,0
1523010239804946,-17,-5,2,-2,-3,-4,-5,-9
1523010239826002,-3,2,-3,-1,-1,1,-4,1
1523010239826002,3,2,-1,-2,-1,-1,8,-6
1523010239828007,14,-2,-2,-2,-2,1,-5,2
1523010239828007,-6,2,-2,-1,-1,-11,-4,-7
1523010239839036,-6,-4,0,-2,0,-9,-30,1
1523010239839036,-9,-12,-3,0,-2,10,0,-6
1523010239848060,-5,5,1,-1,-3,14,23,-3
1523010239848060,-7,-5,0,0,-1,1,-14,-8
1523010239863100,13,-5,-1,0,-1,4,37,4
1523010239863100,10,3,-4,-3,-2,-20,-16,4
1523010239865105,1,-8,-1,-2,-2,0,-6,-8
1523010239865105,-2,5,2,2,0,-2,-2,1
1523010239886161,-11,6,1,0,2,3,13,-1
1523010239886161,-10,-7,-2,0,0,9,14,-5
1523010239887164,-4,-1,0,1,0,1,-2,5
1523010239887164,12,-2,-2,-1,0,-6,-4,8
1523010239899196,-1,-1,-1,0,-2,2,1,2
1523010239899196,1,-2,-2,-2,0,4,9,-4
1523010239914236,-6,2,-1,1,-3,8,-10,0
1523010239914236,-5,-4,-1,-2,-1,9,20,-6
1523010239923260,-2,2,-2,0,-1,-7,-23,-7
1523010239923260,0,-1,1,-1,-1,7,-10,-3
1523010239925265,0,-9,-3,-1,0,0,13,2
1523010239925265,14,3,-2,-2,0,4,19,1
1523010239946321,-14,5,0,-4,-3,-1,-35,-8
1523010239946321,1,7,2,1,1,-13,0,-2
1523010239947324,-1,2,-2,-4,-2,9,-7,5
1523010239947324,6,-5,-5,-3,-3,-4,-2,0
1523010239959356,-5,-9,2,-2,-1,2,-33,-10
1523010239959356,5,-3,-4,0,0,1,52,2
1523010239968380,-1,-3,0,1,0,-10,-15,9
1523010239968380,-7,1,-2,0,-3,0,-8,-4
1523010239983420,0,1,-2,-1,-2,3,15,3
1523010239983420,-7,-6,0,1,0,-9,-11,-5
1523010239989436,1,3,-1,1,0,4,-7,-7
1523010239989436,7,-5,2,2,0,-7,30,3
1523010240005479,7,5,1,-2,-3,-2,11,-4
1523010240005479,-17,-4,1,-1,-1,-2,-16,-7
1523010240007484,-5,-1,-1,-2,0,-4,31,-14
1523010240007484,-11,-4,-3,-2,0,-2,-15,-1
1523010240019516,4,-6,-4,-3,-2,-12,-65,-8
1523010240019516,15,3,0,0,1,0,-10,6
1523010240028540,6,7,3,1,1,0,14,3
1523010240028540,-4,-2,-2,-2,1,-1,13,5
1523010240042578,-8,-8,-5,-2,0,9,13,-2
1523010240042578,-1,-3,-3,-3,-2,-5,-32,1
1523010240049596,0,3,6,3,2,-2,54,12
1523010240049596,10,3,-1,1,-2,-1,-36,3
1523010240065638,-3,-12,-4,0,-3,-7,3,6
1523010240065638,-15,-4,3,1,-2,4,4,3
1523010240067644,-1,-7,-4,-2,-2,-1,-12,0
1523010240067644,4,5,-1,0,0,0,-4,5
1523010240079677,-2,0,-4,1,0,-3,-14,-2
1523010240079677,4,-4,0,-1,-2,5,3,9
1523010240088700,-2,-1,-1,-2,-1,-1,20,7
1523010240088700,-3,-7,-5,1,0,-2,-33,1
1523010240102737,0,6,2,0,1,-2,6,-7
1523010240102737,4,2,2,0,-2,-1,-25,-12
1523010240109756,-4,-2,-2,-2,-3,2,9,-16
1523010240109756,7,5,0,-1,1,4,0,-5
1523010240125798,1,3,0,0,-1,-2,15,3
1523010240125798,-3,-5,-3,-2,1,-1,5,5
1523010240127804,6,1,1,0,-3,-2,12,23
1523010240127804,-13,-5,-1,-2,-4,-11,-19,16
1523010240148860,4,6,-1,-2,1,3,0,33
1523010240148860,3,-2,-3,-5,-6,5,37,34
1523010240149863,-1,-1,2,2,2,0,-31,21
1523010240149863,-12,-2,-1,0,2,-6,-11,3
1523010240162897,4,1,0,1,-3,0,41,8
1523010240162897,-4,-2,-4,-18,-49,-5,-12,-5
1523010240169916,1,-1,1,4,27,8,-19,-8
1523010240169916,4,7,3,11,23,10,16,-12
1523010240185958,-1,2,-2,-2,16,9,19,-17
1523010240185958,10,0,1,27,53,2,7,-11
1523010240187964,-6,-8,-1,1,-18,-16,-66,-30
1523010240187964,-4,0,-3,-12,-20,-1,12,-16
1523010240208017,-1,-2,-2,-11,-28,-8,7,-16
1523010240208017,-6,-4,-5,-10,-10,-6,16,-16
1523010240210023,0,-2,0,-2,5,-2,-9,-10
1523010240210023,7,0,1,8,10,-2,10,-14
1523010240223057,-3,-3,0,-13,-23,-4,3,-9
1523010240223057,-5,8,1,6,8,-4,-6,-18
1523010240229073,0,-1,-2,1,-2,0,0,-1
1523010240229073,8,5,-3,-4,-16,5,2,1
1523010240246118,0,-7,-1,2,11,-2,-19,-6
1523010240246118,-4,-7,-1,-2,-1,1,-70,-8
1523010240247122,6,1,-1,0,-2,-2,45,9
1523010240247122,-9,1,0,-4,-2,7,15,0
1523010240268177,10,1,-2,3,6,4,-3,3
1523010240268177,-7,2,2,5,9,0,-6,0
1523010240270183,1,-5,-3,-10,-16,-6,7,-3
1523010240270183,-3,6,1,-1,-4,-10,-15,4
1523010240282214,-1,-3,-1,6,3,13,-19,8
1523010240282214,-7,-4,0,-1,-4,-8,18,7
1523010240289233,-2,2,-1,-4,-2,3,-2,3
1523010240289233,0,0,-2,3,-1,-5,7,4
1523010240306278,2,4,2,1,2,7,29,0
1523010240306278,11,1,-2,-7,-6,-1,5,8
1523010240307281,-7,-4,0,1,3,8,-24,-4
1523010240307281,6,2,-1,1,1,0,-17,-2
1523010240328337,-2,4,3,-1,-4,-4,-26,-5
1523010240328337,-9,-2,-4,-3,-5,-9,3,-3
1523010240330343,-17,-5,-3,0,-5,-4,6,-10
1523010240330343,2,-3,-3,-5,-4,1,-28,-6
1523010240342375,11,-3,2,1,5,-7,13,4
1523010240342375,-6,3,2,0,-8,3,-12,-18
1523010240349393,-3,0,-1,-1,8,4,32,-9
1523010240349393,0,-8,-2,5,-3,-7,-81,-6
1523010240365436,-3,3,-2,2,12,-7,41,2
1523010240365436,11,5,5,3,0,-5,-20,3
1523010240367441,-2,-7,-3,-2,-3,8,-24,-4
1523010240367441,-12,-4,-4,-6,-4,10,43,1
1523010240388497,-11,-10,-1,-5,-13,-11,-4,-4
1523010240388497,1,-2,-2,1,7,4,30,4
1523010240390503,2,3,-2,-3,-3,-6,-25,-2
1523010240390503,5,3,1,1,3,-5,22,3
1523010240402534,-1,4,2,2,-2,4,-15,1
1523010240402534,-2,-14,-6,-2,-2,3,25,-1
1523010240410556,6,6,-4,-4,-2,-5,-16,2
1523010240410556,-7,4,3,-2,-4,5,31,-3
1523010240425596,-4,-1,-3,-5,-3,-3,-12,-5
1523010240425596,-9,-13,-6,-7,-3,-1,-6,-10
1523010240427601,-10,-8,0,2,3,-2,5,-1
1523010240427601,16,10,-2,-2,0,-8,-14,8
1523010240448657,-7,2,0,3,1,7,6,5
1523010240448657,2,-3,-4,-6,-1,-4,11,-5
1523010240449660,5,0,-1,-2,-4,-20,2,5
1523010240449660,-6,-11,-8,-6,-2,2,-4,-2
1523010240461692,-7,-2,-1,-6,-2,-2,-14,7
1523010240461692,8,2,1,9,4,0,13,8
1523010240470716,4,4,2,7,8,7,6,6
1523010240470716,-7,-4,-1,-2,-3,1,-21,0
1523010240485756,3,3,-2,0,0,8,8,-1
1523010240485756,0,0,2,-7,-4,-15,-11,7
1523010240487761,-3,4,0,1,-2,-2,-6,-11
1523010240487761,2,1,-2,-2,1,5,23,-3
1523010240508817,-4,-4,-7,-2,2,-1,-7,-11
1523010240508817,-6,4,4,-1,1,6,-4,1
1523010240509821,8,3,2,-3,-3,17,0,5
1523010240509821,-4,-1,-1,1,1,6,1,4
1523010240529873,-4,-7,-1,2,-2,-12,-5,-3
1523010240529873,2,0,-3,2,1,4,7,-2
1523010240530876,14,3,1,-1,-2,-17,-12,5
1523010240530876,-17,-9,-3,-3,-1,0,0,-10
1523010240544913,9,1,3,2,-5,1,-7,5
1523010240544913,8,3,0,-1,17,35,21,9
1523010240545916,-14,-5,-4,-2,-8,-17,-37,-11
1523010240545916,9,3,0,-2,-1,-9,6,1
1523010240567974,-5,-4,0,4,0,-3,4,-4
1523010240567974,-5,0,0,-1,-6,-9,6,-3
1523010240568977,0,-8,-2,-5,-2,2,8,-1
1523010240568977,1,15,0,-2,0,3,20,3
1523010240590033,3,-6,1,-3,0,0,0,-5
1523010240590033,5,0,-2,0,-1,-13,-25,-4
1523010240591036,3,0,-1,0,-2,0,27,13
1523010240591036,-13,-8,0,0,-4,7,-11,-11
1523010240605073,-4,-1,-1,0,1,-1,0,2
1523010240605073,3,2,-3,0,-1,-2,1,-3
1523010240606076,0,-2,0,2,1,0,2,2
1523010240606076,12,-6,-2,-2,0,-12,6,1
1523010240628134,2,6,0,-2,1,-13,2,4
1523010240628134,-8,-9,0,-1,-2,11,9,2
1523010240628134,-2,1,-1,-1,-2,-14,-8,-7
1523010240628134,5,2,0,0,3,-1,16,8
1523010240650193,3,-6,-3,0,3,-3,-7,-11
1523010240650193,-3,5,0,-4,-3,-6,5,5
1523010240651196,-8,15,7,3,0,0,-6,-1
1523010240651196,-1,-11,-2,0,-1,7,1,-5
1523010240666236,3,-4,1,2,0,-1,-5,-3
1523010240666236,3,1,-2,0,-2,1,0,0
1523010240667239,-7,-5,-3,-1,-1,4,-14,-5
1523010240667239,-4,1,-2,0,1,-8,3,-3
1523010240687292,-7,-1,0,-1,-1,9,-4,-10
1523010240687292,-3,2,2,2,-1,-2,-7,2
1523010240688294,-3,-4,-3,-2,0,4,-3,-4
1523010240688294,2,1,-1,0,2,-16,-9,5
1523010240710353,3,5,1,-1,0,16,8,8
1523010240710353,-5,-3,-3,-3,0,-4,-11,-6
1523010240711356,-4,0,-1,-1,1,-1,4,0
1523010240711356,-4,-3,-1,-1,-1,12,11,3
1523010240725393,8,-5,-3,-2,-4,0,-18,-4
1523010240725393,-4,5,-2,-1,-5,-7,-5,2
1523010240726396,-4,-3,-1,-2,-2,6,11,3
1523010240726396,-1,4,-2,-2,-4,-3,-9,-4
1523010240747452,-10,-2,1,1,2,-2,-3,-9
1523010240747452,6,-3,-1,0,-2,4,2,1
1523010240748454,-1,-3,-3,0,-2,-3,-9,-3
1523010240748454,2,-1,1,-1,0,-4,8,4
1523010240770513,5,1,1,0,-1,-2,-2,7
1523010240770513,-7,-1,0,-2,2,-3,4,-3
1523010240770513,1,1,-1,-2,-1,18,-8,-1
1523010240770513,4,2,0,0,0,5,14,3
1523010240785553,1,3,-1,-1,0,-14,-1,6
1523010240785553,-3,-2,-1,-2,-1,-7,-7,-7
1523010240785553,-4,-2,-2,-1,-1,0,-3,0
1523010240785553,3,2,-2,-2,-3,-4,-5,6
1523010240807612,-14,-7,-4,-2,-2,-8,-7,-15
1523010240807612,8,-1,1,0,-2,-1,1,-2
1523010240808614,1,-1,-2,-4,-4,-7,4,1
1523010240808614,-3,-10,-3,-3,-2,-2,0,-5
1523010240830673,-2,5,1,-2,-1,0,8,12
1523010240830673,-2,10,4,2,0,2,-4,-2
1523010240830673,-3,-8,-5,0,0,-11,18,-11
1523010240830673,-6,-4,-6,-4,-4,9,-21,-2
1523010240844710,5,-6,0,0,-2,2,2,5
1523010240844710,4,-5,-2,0,0,0,6,4
1523010240845713,-3,7,5,1,0,-2,-1,3
1523010240845713,2,4,0,3,0,-5,0,-4
1523010240867772,-5,-4,-1,-2,-3,0,3,-3
1523010240867772,1,-2,-2,-1,-2,8,2,3
1523010240868774,1,-3,-3,0,-3,4,-1,0
1523010240868774,5,6,1,1,0,1,37,6
1523010240889830,0,9,4,2,4,3,5,3
1523010240889830,-3,-5,-3,-2,0,6,7,-9
1523010240890833,2,-8,-2,0,-1,8,-7,1
1523010240890833,-6,6,0,-3,-2,-3,19,-7
1523010240904870,-4,0,-2,-3,-3,-17,17,1
1523010240904870,-9,-12,-2,1,-2,-6,-75,-8
1523010240905873,-4,6,1,-2,-3,-28,-4,-4
1523010240905873,4,2,0,0,1,21,-15,-1
1523010240927932,2,4,-4,-5,3,30,11,-2
1523010240927932,7,-20,-1,-2,-5,-25,39,13
1523010240928934,-2,15,3,2,9,30,-83,-6
1523010240928934,3,8,6,-1,-13,-43,-70,-11
1523010240949991,2,13,1,4,14,71,26,-8
1523010240949991,-1,-5,-4,-3,-6,-73,49,12
1523010240950993,-5,-15,0,2,3,-6,-68,-4
1523010240950993,11,13,3,5,4,-7,1,14
1523010240973052,-5,-22,-2,0,-7,-31,-3,-2
1523010240973052,8,24,0,2,6,45,92,4
1523010240974055,4,-13,-4,0,0,-4,-36,4
1523010240974055,-10,-10,-9,-6,-4,15,-27,-18
1523010240988092,-9,-12,-5,-5,-9,-57,-80,-15
1523010240988092,-2,-2,-2,7,5,11,-44,-6
1523010240988092,-1,-12,1,-6,-7,2,60,7
1523010240988092,12,19,-1,4,7,8,-16,2
1523010241010151,-2,-5,0,-6,-15,-20,5,-7
1523010241010151,-6,4,5,4,5,19,-34,-13
1523010241011153,-21,-16,-4,0,6,-8,37,8
1523010241011153,-5,-6,-7,-7,-11,-10,-7,0
1523010241025190,17,4,-2,2,2,-6,-4,8
1523010241025190,5,-7,1,-1,-2,16,-17,5
1523010241026193,-10,14,6,0,-3,-7,14,-8
1523010241026193,-4,-18,-11,-5,-1,-13,82,8
1523010241047249,-7,11,-3,-3,0,-14,-96,-21
1523010241047249,-10,-8,-4,-9,-3,11,-49,-20
1523010241048252,16,5,0,13,9,-10,49,3
1523010241048252,-7,-8,3,-3,-1,11,22,-2
1523010241070311,20,5,1,1,5,9,12,8
1523010241070311,8,10,5,-4,-10,-22,2,-2
1523010241071313,-15,-5,-6,-11,-16,-3,16,-3
1523010241071313,-7,1,-4,7,12,9,18,3
1523010241084348,-9,-8,-4,2,-11,-18,-16,10
1523010241084348,-2,-5,2,-2,0,-9,-71,7
1523010241092369,9,2,3,2,2,11,34,22
1523010241092369,9,3,-3,-8,-6,-16,-19,5
1523010241107409,-2,-2,-2,-3,-3,16,53,10
1523010241107409,-17,-2,-2,0,3,2,15,-11
1523010241108412,-1,14,-1,-5,-4,-2,-37,-14
1523010241108412,-9,-6,8,2,-4,-7,0,-11
1523010241130470,5,5,2,1,6,5,6,-2
1523010241130470,7,1,-3,0,-1,1,7,-3
1523010241131473,6,-4,-3,-2,-1,11,28,-9
1523010241131473,9,9,-3,-1,1,1,6,-8
1523010241144507,-23,-16,1,-2,2,3,6,-19
1523010241144507,5,-1,-1,2,0,-8,45,7
1523010241152529,1,0,-3,-3,-3,6,-7,1
1523010241152529,3,4,0,4,4,3,-71,13
1523010241167569,-1,-6,-5,-5,-7,-4,-17,32
1523010241167569,-9,-2,1,0,-4,-2,23,39
1523010241168572,5,11,6,2,1,-1,-20,37
1523010241168572,-3,-1,-4,-1,-5,2,18,26
1523010241190630,3,-2,2,0,2,12,70,15
1523010241190630,-6,-5,-1,0,-1,-6,15,-9
1523010241190630,2,1,-3,0,0,4,57,-18
1523010241190630,5,3,-1,-1,1,4,20,-23
1523010241204668,4,2,0,0,-8,-3,8,-29
1523010241204668,-2,2,1,2,7,7,9,-28
1523010241212689,3,-1,-2,-1,-4,-5,-39,-22
1523010241212689,-8,-3,-5,-3,-3,-6,-5,-31
1523010241227729,2,-9,-1,0,-2,-4,3,-15
1523010241227729,3,10,4,-1,-5,3,-19,-17
1523010241228732,4,4,1,-1,0,-3,-28,1
1523010241228732,-13,-4,-3,-4,-3,-6,14,-4
1523010241249788,0,0,-2,3,4,5,-8,3
1523010241249788,-9,-9,-6,-2,2,14,14,-7
1523010241250790,-4,-1,-4,-4,-6,-8,-8,-3
1523010241250790,9,1,-2,2,8,1,-19,6
1523010241264827,5,6,2,-5,-1,2,4,10
1523010241264827,9,9,9,4,7,12,-52,-1
1523010241272849,-9,-8,-5,-1,-4,-1,-7,6
1523010241272849,-5,-14,-2,-3,-2,6,50,11
1523010241287889,-13,-1,-2,0,1,-6,-61,-9
1523010241287889,6,-4,-3,-1,-3,-8,-13,9
1523010241288892,6,5,-1,0,-1,2,28,0
1523010241288892,9,2,3,0,2,22,14,8
1523010241309948,-14,-2,0,6,8,2,25,3
1523010241309948,-4,2,-6,-6,-8,-2,24,7
1523010241310950,4,-5,-1,3,2,-3,-12,-4
1523010241310950,-18,-8,-5,-3,-2,-2,82,6
1523010241324987,10,4,0,-4,-1,-1,14,5
1523010241324987,4,-2,0,-4,-2,-8,-14,-1
1523010241333009,5,7,-3,-4,-2,8,33,5
1523010241333009,10,-7,0,0,-1,-9,-12,3
1523010241348049,-3,5,0,2,0,0,-3,1
1523010241348049,-1,-1,5,-2,-2,-4,-22,4
1523010241348049,-3,-3,-3,-1,0,0,1,-4
1523010241348049,2,0,1,-1,-4,-6,-22,-4
1523010241370108,-7,-3,2,-1,-2,-3,2,1
1523010241370108,5,2,-2,-1,-1,5,0,-4
1523010241371110,-12,-4,1,-1,2,6,-47,-13
1523010241371110,4,4,-5,1,-5,-13,-22,-13
1523010241384145,8,-5,0,-4,1,4,-5,-6
1523010241384145,-28,-13,-1,1,0,1,22,-8
1523010241393169,1,5,-3,-1,1,-9,4,-5
1523010241393169,-1,2,1,-1,0,-5,-26,-9
1523010241407206,5,-1,-3,-2,-2,8,19,1
1523010241407206,10,-1,-5,-2,-3,-4,-14,5
1523010241408209,-11,-12,0,1,0,-4,4,0
1523010241408209,11,20,5,2,0,1,-13,4
1523010241430268,-7,-4,2,-1,-2,-2,-19,-8
1523010241430268,-2,-1,-5,-5,-5,-4,46,-1
1523010241431270,-6,-8,0,2,0,-6,-10,-1
1523010241431270,4,4,0,-1,0,0,-29,6
1523010241444305,2,-2,2,-1,2,0,10,5
1523010241444305,3,-2,2,0,1,-6,10,0
1523010241452326,4,9,1,-2,-2,-5,-13,-1
1523010241452326,-7,-10,0,0,0,13,5,-4
1523010241467366,-11,4,-5,-3,-4,-12,-2,-8
1523010241467366,11,-7,-4,0,0,13,40,4
1523010241468369,0,5,-1,1,0,-4,-13,1
1523010241468369,-13,-3,2,-1,-1,0,-10,-4
1523010241490428,-7,-2,-2,0,3,8,0,-1
1523010241490428,1,-1,0,-1,-1,-6,8,0
1523010241491430,13,5,1,-3,-3,0,-12,5
1523010241491430,0,-1,-3,-2,-4,-6,1,1
1523010241513489,9,7,3,3,0,2,-7,10
1523010241513489,-8,-4,-4,0,0,-5,-7,-3
1523010241514492,3,-3,-3,1,2,4,18,1
1523010241514492,-9,-11,-5,-2,-2,-8,-13,-5
1523010241527526,1,-2,-1,-3,-5,-3,10,-1
1523010241527526,3,5,0,0,0,-18,-48,4
1523010241528529,-7,-4,-2,3,2,-6,-1,-2
1523010241528529,-5,-7,0,-2,-1,4,-7,-12
1523010241550588,4,1,0,-2,-2,-7,9,0
1523010241550588,-11,-7,-1,-1,-2,7,-8,-4
1523010241550588,3,0,-2,-2,0,5,49,3
1523010241550588,8,6,1,-1,1,-1,-12,6
1523010241573649,-4,-7,-3,-3,-3,-11,10,-4
1523010241573649,-1,0,-2,-2,-2,6,12,-3
1523010241574652,9,-3,-1,-1,-1,-12,-8,3
1523010241574652,-10,2,3,-1,2,19,11,-3
1523010241587686,9,6,-2,-1,-1,6,-6,-2
1523010241587686,-8,1,1,3,2,0,2,3
1523010241588689,-4,-5,-3,-4,-5,5,6,-2
1523010241588689,2,-9,-3,-1,-2,-24,-4,1
1523010241609745,2,-4,0,3,3,-30,15,4
1523010241609745,7,7,1,-2,-2,3,-58,0
1523010241610748,4,12,3,-2,-3,21,31,0
1523010241610748,-7,-8,1,-1,3,-19,-18,5
1523010241632806,-2,-8,-4,-1,-4,-3,11,-2
1523010241632806,4,2,0,2,2,0,3,0
1523010241633809,-2,5,2,2,4,-1,-13,-1
1523010241633809,-2,-14,-6,-3,-4,-25,27,0
1523010241647846,2,5,2,3,3,13,18,10
1523010241647846,-8,-3,-2,-2,-3,-18,19,-1
1523010241648849,-5,1,-3,0,1,25,-40,-4
1523010241648849,14,-6,3,1,0,-1,8,6
1523010241669905,-4,3,-1,0,-2,-12,-30,-11
1523010241669905,1,6,2,0,-1,24,31,-8
1523010241670908,-10,-3,-5,-4,-1,-8,5,3
1523010241670908,4,-3,4,0,1,19,9,0
1523010241692966,5,1,0,-2,-4,-7,-67,10
1523010241692966,-6,-6,-1,0,3,4,21,1
1523010241693969,-1,-1,-1,-4,-3,-16,-10,-10
1523010241693969,9,2,-1,-2,-3,28,15,7
1523010241708006,-12,-5,-3,-3,-2,-5,-36,-11
1523010241708006,-6,5,0,2,-1,-4,-9,-4
1523010241709009,1,-9,-2,-3,-2,0,16,5
1523010241709009,-8,-1,-5,-3,-1,-2,-2,-2
1523010241730065,3,2,3,4,3,19,23,-4
1523010241730065,-5,-15,-3,-1,-4,1,-24,-5
1523010241731068,-4,1,-4,0,0,-2,16,-3
1523010241731068,6,5,2,-1,6,25,-9,0
1523010241753127,-7,-3,0,0,0,24,9,-7
1523010241753127,8,-2,-1,1,-1,-23,-27,4
1523010241753127,-6,-8,-5,-3,-2,19,-18,0
1523010241753127,4,20,3,1,-2,-6,-8,3
1523010241768166,2,-5,-2,0,1,-21,-16,1
1523010241768166,-4,-2,-1,-3,-2,-19,-58,-7
1523010241768166,6,-6,-1,1,3,8,5,5
1523010241768166,-3,4,-4,-2,-3,21,-8,-5
1523010241790225,0,4,-1,-2,-4,-17,-2,-2
1523010241790225,-8,-7,3,4,0,9,21,2
1523010241791228,-1,7,2,2,1,-8,6,0
1523010241791228,-2,-8,0,1,1,-29,0,-6
1523010241813287,-2,-4,-2,-1,-2,5,10,6
1523010241813287,8,5,-2,0,3,10,9,0
1523010241814289,13,5,1,-2,-9,-44,-14,7
1523010241814289,-7,2,3,2,2,-11,-7,-8
1523010241827324,-9,-5,-1,-1,-1,-3,12,-9
1523010241827324,0,-1,1,-1,-2,-5,14,1
1523010241828326,-6,-12,-1,2,1,-6,-14,3
1523010241828326,10,12,-1,-3,-3,-10,7,-1
1523010241850385,-10,3,-2,-3,-4,2,-32,-8
1523010241850385,-2,-3,-3,-3,-2,-2,-2,-2
1523010241851388,4,3,0,-1,0,4,58,-1
1523010241851388,1,-8,-1,0,-1,1,-16,-3
1523010241872444,6,2,3,4,8,29,4,5
1523010241872444,-9,-4,-2,-1,-1,20,58,5
1523010241873446,2,7,0,-3,-5,-25,7,-2
1523010241873446,-2,-11,-2,0,-1,-23,-3,3
1523010241887484,-2,8,1,-3,0,15,13,-1
1523010241887484,-3,0,-2,1,4,30,-1,-3
1523010241888486,-5,-6,-4,-2,-4,4,-10,-6
1523010241888486,-3,-4,-2,-1,-4,-6,-6,1
1523010241910545,2,-4,-2,-2,-1,-11,7,-2
1523010241910545,2,-2,0,0,2,-1,-14,-1
1523010241910545,2,-5,-2,-1,1,-1,-5,1
1523010241910545,-10,7,-1,-2,-4,1,13,-20
1523010241932603,-12,-14,0,-3,0,24,-3,3
1523010241932603,1,4,-1,-1,-1,-16,6,2
1523010241933607,5,5,-1,-1,1,6,-14,-2
1523010241933607,5,-4,0,-1,1,8,9,4
1523010241947644,-8,-8,-4,-2,-2,11,19,0
1523010241947644,-2,0,0,-1,0,-11,-4,-1
1523010241948646,5,4,-1,0,-1,1,35,2
1523010241948646,-5,-5,-5,-4,-1,7,-17,-10
1523010241969702,6,2,1,-2,-5,-19,19,9
1523010241969702,-3,-7,1,-2,-2,-12,-31,-10
1523010241970705,-9,1,-2,3,0,17,47,-8
1523010241970705,0,-5,-3,-1,3,-3,-79,-3
1523010241992763,6,2,0,0,-1,-21,-5,3
1523010241992763,0,-7,-3,-2,-2,-2,20,1
1523010241993766,-2,11,2,1,-1,5,-19,1
1523010241993766,-4,-7,-1,2,0,-5,26,4
1523010242008806,-2,-3,-2,0,1,9,1,-7
1523010242008806,4,1,0,-2,-1,12,-22,-14
1523010242008806,-6,-2,0,-1,1,-2,3,-11
1523010242008806,1,-3,-1,0,0,-11,1,-1
1523010242029862,7,2,0,1,-2,0,-26,-7
1523010242029862,-2,1,2,-2,-2,-4,-1,8
1523010242030865,-2,-4,-3,-2,-3,0,-8,-3
1523010242030865,-9,-4,-4,0,-3,-2,-53,-1
1523010242052924,-2,-3,-1,-1,0,-4,20,11
1523010242052924,3,7,3,0,2,-3,14,12
1523010242053927,1,-7,-3,-2,-1,-8,-22,19
1523010242053927,0,6,-1,-4,-4,10,120,20
1523010242067963,-1,-7,-2,-3,-1,-3,1,7
1523010242067963,7,4,-1,2,-1,-2,-16,3
1523010242068966,2,-2,-2,-3,-1,1,0,2
1523010242068966,-1,-1,-2,-1,-1,-4,8,-9
1523010242090022,2,1,0,1,2,-5,-3,-11
1523010242090022,0,-8,-1,1,-2,-6,26,-14
1523010242091025,-16,0,0,1,0,-5,-13,-12
1523010242091025,3,11,-1,-4,-4,8,27,4
1523010242113084,0,-5,0,0,-2,-7,-96,12
1523010242113084,-5,-11,-2,2,2,3,-2,37
1523010242113084,-1,3,0,-3,-3,-1,3,42
1523010242113084,-3,-7,-2,0,-1,-3,-7,49
1523010242128123,-2,5,1,-1,0,-2,22,32
1523010242128123,0,1,1,-2,0,4,37,13
1523010242135142,-1,-6,-2,-2,0,2,-30,-16
1523010242135142,0,-9,-3,-3,-1,6,-24,-36
1523010242150182,4,7,-1,-1,-3,-2,55,-35
1523010242150182,-6,-6,-1,-1,-2,-8,-49,-42
1523010242151185,-1,-1,-1,-3,-5,-1,21,-18
1523010242151185,-1,2,2,7,11,1,5,9
1523010242172241,8,10,-5,-2,-2,12,-38,3
1523010242172241,1,-12,0,-5,-6,-6,-9,-4
1523010242173244,-8,3,4,0,-3,-5,-14,-21
1523010242173244,2,5,3,1,1,4,10,-15
1523010242187281,-4,-13,-4,0,0,-3,9,-8
1523010242187281,-2,17,-1,-1,-2,1,7,14
1523010242188284,9,-2,-1,-3,-4,-3,-87,24
1523010242188284,-3,-11,-4,-4,-4,-2,7,17
1523010242218363,-15,2,-2,-1,0,-5,15,-8
1523010242218363,1,-3,0,0,-3,-7,2,-25
1523010242219366,4,0,-2,2,-1,10,68,-21
1523010242219366,3,1,-3,-1,-1,-2,-10,-28
1523010242232401,-5,-7,0,1,-2,-10,6,-21
1523010242232401,-1,1,0,-3,-6,6,-41,-19
1523010242233404,3,5,-2,3,3,-4,-28,-15
1523010242233404,-8,-6,-1,-3,-7,-4,-82,-12
1523010242247441,7,-6,1,2,5,0,58,0
1523010242247441,-6,0,3,-1,4,-1,-43,-10
1523010242255462,-1,1,-2,-2,-7,0,-5,-10
1523010242255462,7,2,-4,2,-4,0,19,2
1523010242270502,-8,-7,1,-1,-1,-4,1,-6
1523010242270502,-5,4,-1,1,-3,2,29,5
1523010242270502,3,5,0,-1,1,5,14,3
1523010242270502,-3,-3,1,-3,-6,-14,10,-3
1523010242292561,0,-2,-3,2,6,2,-10,1
1523010242292561,4,3,1,2,5,-2,47,0
1523010242293564,0,10,-3,0,1,-4,-3,-1
1523010242293564,-1,-11,-4,-5,2,6,38,14
1523010242306598,8,5,5,2,-3,3,4,16
1523010242306598,-8,1,-5,-1,0,-2,0,-8
1523010242315622,3,-2,1,2,7,-2,16,4
1523010242315622,-2,3,0,0,-2,-2,-3,-4
1523010242330662,-7,-8,-5,-7,-5,-1,47,-3
1523010242330662,5,0,0,0,0,12,66,22
1523010242330662,-8,-3,-3,-3,-6,-4,18,2
1523010242330662,3,1,1,1,-4,-10,-45,-2
1523010242352721,3,3,-3,-2,4,2,27,2
1523010242352721,1,5,1,0,-2,-5,-24,6
1523010242353724,-1,-1,-3,-3,-4,-6,12,6
1523010242353724,4,-3,-3,0,-5,1,-25,5
1523010242366758,-4,-1,0,-1,3,-10,-32,2
1523010242366758,-4,-2,0,0,-2,-1,-5,-3
1523010242374780,4,-4,-2,1,5,-2,-8,5
1523010242374780,1,3,2,-2,-2,4,10,-2
1523010242389819,-12,-4,-4,0,-5,1,-19,-2
1523010242389819,5,-5,-2,-3,1,-3,-19,7
1523010242390822,2,-2,-1,-4,-3,0,41,10
1523010242390822,-6,0,1,0,3,4,-4,5
1523010242412881,0,-1,0,-1,-4,1,-36,6
1523010242412881,-3,-1,-2,1,0,-5,20,0
1523010242413884,0,-4,-2,1,0,2,3,12
1523010242413884,1,0,0,1,3,-2,19,4
1523010242426918,1,0,-2,-3,-4,-5,-16,-4
1523010242426918,-10,2,-2,-1,0,1,-13,-3
1523010242434939,-2,-3,-2,-2,0,-3,-15,-3
1523010242434939,1,0,-1,-1,3,2,7,-5
1523010242449980,6,2,2,1,-1,1,15,5
1523010242449980,-2,-2,-1,-2,0,3,-34,-3
1523010242450982,0,1,-2,-2,-1,-2,15,-5
1523010242450982,-6,-4,1,2,1,-9,-26,-2
1523010242473041,0,3,1,-3,-2,1,24,-7
1523010242473041,4,3,0,2,2,-4,11,3
1523010242474044,-6,-5,-3,-5,-4,3,2,-5
1523010242474044,-1,0,-2,3,3,-1,-1,-8
1523010242496102,1,5,3,0,1,0,-15,-3
1523010242496102,2,1,-2,0,0,-3,-10,4
1523010242497105,-4,-12,-1,-2,-4,-3,-1,-8
1523010242497105,0,-4,-4,-3,0,0,12,-5
1523010242510139,4,2,-1,0,-1,-4,-11,-4
1523010242510139,-6,5,7,0,0,2,14,5
1523010242511142,-13,-2,-3,-1,3,-3,-12,-6
1523010242511142,-4,-8,-4,-9,-20,-8,27,2
1523010242532198,6,1,-3,7,19,-2,-51,-3
1523010242532198,7,-8,-1,0,-3,-4,1,-5
1523010242533201,-1,4,2,1,1,-1,0,-1
1523010242533201,-1,3,0,0,0,-16,-10,3
1523010242556262,5,-1,0,-7,-6,15,41,6
1523010242556262,4,5,-4,-3,-3,7,-5,-11
1523010242557265,7,-7,-3,0,2,2,-2,3
1523010242557265,-12,-4,1,0,2,7,-7,-3
1523010242570300,4,4,1,2,-5,-15,-5,6
1523010242570300,-4,-4,-3,-4,2,-8,13,-8
1523010242571302,3,1,2,0,-2,5,-13,0
1523010242571302,5,-3,-2,0,2,-1,7,2
1523010242592358,-2,6,2,-2,-3,0,2,3
1523010242592358,3,-3,-3,-2,-2,-3,2,7
1523010242593361,2,4,-2,0,0,-7,-15,-1
1523010242593361,-10,0,4,2,7,3,9,3
1523010242616422,-8,-12,-5,-6,-7,27,23,-8
1523010242616422,0,-4,-3,-3,0,-13,4,-4
1523010242616422,10,9,-1,0,-1,-2,-86,-3
1523010242616422,3,-13,-3,-2,1,8,25,2
1523010242630459,-2,-6,0,-1,-2,-5,1,-6
1523010242630459,8,2,-1,0,-2,-9,0,2
1523010242631462,-8,1,-1,-1,-2,1,5,4
1523010242631462,-16,6,1,-2,0,-4,-14,-21
1523010242652518,0,-1,-1,-1,-4,-9,-24,-1
1523010242652518,-4,-3,-4,-2,-2,-3,17,-9
1523010242653521,7,-2,-1,-1,2,5,-1,3
1523010242653521,7,4,-1,-2,0,0,-5,5
1523010242675580,-5,-3,-2,1,2,-2,6,-3
1523010242675580,8,9,1,1,-1,-4,-18,3
1523010242676582,4,10,2,-1,-2,26,29,4
1523010242676582,-13,-8,-4,-5,-2,-7,2,-12
1523010242690619,-5,-16,-4,-2,1,-1,-10,0
1523010242690619,-10,-1,0,-1,0,5,-9,1
1523010242690619,-8,1,1,-3,-4,-26,-5,-7
1523010242690619,12,9,2,3,2,5,2,-3
1523010242712678,-24,-7,-1,1,1,-7,4,-4
1523010242712678,5,-3,-2,1,1,10,16,9
1523010242713681,4,-8,-3,-3,-2,-13,1,1
1523010242713681,8,-5,0,-3,-3,0,4,2
1523010242734737,5,13,0,1,-1,6,-5,-2
1523010242734737,-2,4,1,2,2,-4,-6,-1
1523010242735739,-5,-3,-1,-1,-1,10,16,1
1523010242735739,-2,-3,-2,-1,-1,2,-9,-2
1523010242749777,3,2,0,0,0,-2,-7,0
1523010242749777,-8,-6,-4,-1,-3,-4,-19,-5
1523010242750780,3,-7,-2,-1,-2,-3,18,-8
1523010242750780,2,0,2,1,2,7,-3,1
1523010242772838,1,1,0,0,0,0,12,5
1523010242772838,-3,0,-2,-2,-3,0,-8,-11
1523010242773841,4,0,-2,-1,1,-2,-5,2
1523010242773841,2,-8,0,-1,-1,-2,3,3
1523010242794897,-1,10,3,2,0,4,6,-2
1523010242794897,-10,-3,0,0,0,-4,-1,-3
1523010242795899,-6,-6,-1,1,1,3,3,0
1523010242795899,3,2,0,1,0,4,4,5
1523010242809937,13,1,-2,-1,-1,-9,-8,3
1523010242809937,-6,-7,-3,-1,-3,32,25,6
1523010242810940,-12,-1,1,1,0,-7,1,1
1523010242810940,5,1,-2,-2,-2,-10,-2,3
1523010242832998,-2,-2,-1,0,0,-25,-16,-8
1523010242832998,8,0,-3,0,3,22,16,5
1523010242834001,4,-3,-1,0,-1,-1,5,3
1523010242834001,-12,-3,1,0,-1,-1,-5,-3
1523010242855057,-5,10,3,2,-3,16,1,-4
1523010242855057,-4,5,2,0,-2,-17,-23,-5
1523010242856059,6,-2,-4,-3,2,10,4,5
1523010242856059,-2,-2,1,-3,0,-7,0,-1
1523010242878118,0,-8,-2,-2,-1,3,-6,-1
1523010242878118,4,0,-1,-1,-3,-7,-3,0
1523010242879121,-6,5,0,-2,-1,-1,-8,-8
1523010242879121,-11,-2,-1,0,1,13,-7,-1
1523010242893158,-1,-2,-1,-1,-2,-36,-10,2
1523010242893158,2,0,-2,-1,-3,1,2,-4
1523010242893158,-3,0,0,-1,4,15,2,-3
1523010242893158,1,1,0,-2,0,-1,0,0
1523010242915216,1,-2,2,0,0,4,6,1
1523010242915216,2,8,3,0,1,-13,5,6
1523010242916219,-8,-8,-3,-3,-6,-25,-23,-8
1523010242916219,-5,-1,1,0,-1,-2,0,-6
1523010242930257,-2,-3,0,-3,2,8,1,2
1523010242930257,0,-3,-3,-1,-1,-7,-5,4
1523010242931260,-2,1,0,-1,1,9,8,-3
1523010242931260,4,4,0,-1,1,-3,0,0
1523010242952315,-4,-3,-1,-1,-2,8,0,-2
1523010242952315,-6,-1,-1,-1,-2,3,-5,-3
1523010242953318,2,0,-3,-1,-4,-6,6,1
1523010242953318,-5,-4,-2,0,-2,-4,-2,-1
1523010242975376,-1,-3,-1,-4,1,4,6,-1
1523010242975376,4,0,0,-1,3,2,-7,1
1523010242976379,-11,-13,-3,-3,-2,-1,-5,-14
1523010242976379,7,12,1,1,-1,0,6,7
1523010242990417,1,-3,-2,-1,-1,2,-2,-6
1523010242990417,1,0,-3,-2,0,0,-2,1
1523010242991420,4,0,-2,-1,-3,-6,4,7
1523010242991420,-3,-6,-3,-2,-2,4,3,-3
1523010243012475,-5,-2,-3,-5,-3,1,-1,-8
1523010243012475,1,-1,0,0,-1,-6,-4,1
1523010243013478,1,2,-1,1,0,-1,4,4
1523010243013478,0,-2,-1,-1,1,5,-6,-4
1523010243035536,0,-1,0,2,-2,-5,-6,-1
1523010243035536,3,-2,-2,-2,0,-18,13,0
1523010243036540,1,0,1,-1,-1,15,-13,-1
1523010243036540,-3,-1,0,-1,-1,-13,-2,-3
1523010243051579,5,-1,-2,-1,0,-6,7,12
1523010243051579,-11,-1,-3,-2,-3,4,-2,-17
1523010243052583,4,3,0,1,-3,-14,-7,4
1523010243052583,-1,-2,-3,-4,-1,12,20,-3
1523010243073638,-2,-5,-1,-2,0,-4,1,-4
1523010243073638,-3,0,-1,-1,2,-7,-12,-7
1523010243080657,2,2,-1,1,-2,-7,23,7
1523010243080657,1,0,-2,1,-3,0,-10,-2
1523010243095696,-1,0,1,-2,-1,5,6,-1
1523010243095696,3,0,2,0,2,5,-4,-3
1523010243095696,-3,-4,-3,-5,-3,-4,-20,-12
1523010243095696,0,-2,-2,-2,0,8,9,-10
1523010243109734,0,7,2,1,-1,-3,-14,-17
1523010243109734,-4,-3,2,3,-1,-8,-17,-14
1523010243110737,1,1,-1,0,0,0,-5,-7
1523010243110737,1,-1,-1,-1,-2,-4,19,-1
1523010243132795,-1,-3,-3,-2,-3,9,34,18
1523010243132795,0,-3,-2,-2,-5,22,-17,22
1523010243133798,-3,5,0,7,4,5,23,28
1523010243133798,3,-1,1,2,0,-4,4,17
1523010243154854,-5,-2,0,0,1,-4,10,10
1523010243154854,-1,1,2,-2,-2,-2,10,0
1523010243155857,6,1,-3,-3,-2,-1,7,-8
1523010243155857,-1,-1,0,-3,-1,-7,-34,-15
1523010243169894,1,0,0,0,-4,0,28,-4
1523010243169894,-4,-1,-1,5,7,10,-25,11
1523010243170897,2,-6,-2,-3,8,1,-12,31
1523010243170897,6,7,0,4,-1,0,13,67
1523010243192955,4,-7,-2,-1,-4,-7,-41,41
1523010243192955,-10,-7,-3,-1,-12,-10,30,17
1523010243193958,-9,3,1,-4,-3,9,38,-15
1523010243193958,-1,-5,0,2,9,1,-91,-25
1523010243215014,3,1,-1,6,15,2,23,29
1523010243215014,5,1,-2,-2,-1,0,13,34
1523010243216017,5,-2,-1,-5,-10,-6,-3,15
1523010243216017,5,6,2,0,-3,-2,27,-7
1523010243230054,-14,-3,-1,-1,-3,5,-36,-54
1523010243230054,1,-6,-1,3,-1,3,-17,-50
1523010243231057,11,6,-1,-2,8,3,-5,-46
1523010243231057,-1,-3,-5,-4,-3,-1,25,-44
1523010243253116,-28,-17,4,0,0,2,-16,-42
1523010243253116,5,14,7,-1,-1,-6,-6,-22
1523010243253116,3,9,-1,-6,-24,7,53,-14
1523010243253116,-6,-8,-7,4,28,9,26,-4
1523010243275174,7,4,-3,-4,-7,-4,-15,-9
1523010243275174,-14,-17,-1,-6,-2,-6,-17,-2
1523010243276177,-6,1,-3,3,-10,0,9,-9
1523010243276177,5,2,2,-8,0,-13,-15,-2
1523010243289211,8,-10,-11,-4,-3,4,-17,-4
1523010243289211,5,10,-6,-2,4,12,111,1
1523010243297233,-5,-20,11,3,-1,-1,-49,29
1523010243297233,-7,-2,6,8,-9,27,114,17
1523010243312272,-9,-6,-14,-15,-3,-4,-19,8
1523010243312272,22,17,-4,1,-3,-12,35,9
1523010243313275,5,16,23,8,1,10,53,-10
1523010243313275,-13,-8,-1,9,0,-6,-7,4
1523010243335334,6,-5,-1,2,6,27,77,5
1523010243335334,0,-8,-24,-9,-5,-34,-90,13
1523010243336337,18,-5,-26,-14,4,14,26,15
1523010243336337,-9,7,13,-6,-7,-26,-78,-18
1523010243349371,-19,20,8,5,1,7,20,0
1523010243349371,-9,-18,-3,-4,-1,9,36,-11
1523010243357393,0,1,4,8,5,-19,-32,3
1523010243357393,7,-11,-13,-11,-5,-3,-22,0
1523010243372432,17,15,11,-2,-5,-25,-69,7
1523010243372432,-8,10,18,19,8,9,-35,-20
1523010243373436,0,1,-2,-4,-3,-1,-11,0
1523010243373436,-1,-4,-7,-2,0,6,-10,4
1523010243395494,-13,-16,-7,-11,-2,-7,-16,-5
1523010243395494,-6,2,6,4,2,20,-79,-6
1523010243396497,-1,1,0,7,1,-13,26,-13
1523010243396497,1,-4,-1,-3,-7,21,45,1
1523010243409531,17,19,5,2,6,1,47,10
1523010243409531,5,-4,-5,-1,2,2,34,6
1523010243417553,-7,-2,-2,4,6,7,2,-6
1523010243417553,-14,-7,6,-2,-8,-8,-1,-6
1523010243432593,11,6,0,7,-2,-9,28,5
1523010243432593,-6,-6,-6,-8,-9,-5,-36,1
1523010243440614,-15,2,-8,-9,8,14,3,-6
1523010243440614,5,0,0,4,-1,-4,113,16
1523010243455654,2,-9,0,1,-2,0,32,-3
1523010243455654,-2,4,1,-4,4,-9,63,12
1523010243455654,-4,-3,1,-3,-10,-22,-41,-10
1523010243455654,6,10,-2,-6,-5,2,2,20
1523010243470694,-12,-13,-3,3,5,-1,-30,-9
1523010243470694,5,3,-1,-8,-12,-16,-58,0
1523010243477713,-4,-5,0,1,4,-1,18,12
1523010243477713,2,-2,-6,-5,-5,-27,-121,-14
1523010243492752,0,5,-2,2,-1,8,10,-2
1523010243492752,-4,-12,4,1,0,7,42,4
1523010243493755,-10,-11,-4,-2,-3,-9,-64,-4
1523010243493755,5,12,-1,-2,-1,-11,53,-8
1523010243514811,0,0,4,0,-1,13,-21,2
1523010243514811,5,8,3,4,-1,-12,-3,2
1523010243515814,-2,-12,-1,-2,-2,-5,18,2
1523010243515814,1,-2,-2,1,2,6,-3,-6
1523010243529851,5,4,4,1,-4,-6,-7,-3
1523010243529851,-3,2,-4,-4,-3,20,14,1
1523010243537873,-7,-9,-3,-5,-2,5,29,-9
1523010243537873,-2,-12,-5,0,0,2,-20,3
1523010243553915,-5,12,4,3,-1,-15,-60,-10
1523010243553915,-4,12,0,0,3,1,-44,-12
1523010243559931,6,0,-2,-5,-3,-7,-18,9
1523010243559931,-3,0,4,4,-2,11,24,-8
1523010243574972,1,-17,-9,-7,-6,23,-36,8
1523010243574972,4,2,-1,0,1,4,36,3
1523010243575974,-8,-11,-2,-3,0,-1,-3,-10
1523010243575974,5,4,-3,-3,0,-5,95,2
1523010243598033,-2,8,6,-1,-1,12,27,-3
1523010243598033,-8,-14,-4,-1,-2,-6,43,-4
1523010243599035,6,4,-1,1,0,3,9,1
1523010243599035,4,0,-1,-1,2,11,15,9
1523010243613072,-2,-8,2,1,-4,-17,-5,-1
1523010243613072,8,7,-1,1,0,0,0,1
1523010243613072,5,3,-3,2,0,-28,-9,-1
1523010243613072,-22,-13,0,1,2,17,8,-11
1523010243635131,1,10,0,1,5,14,69,5
1523010243635131,6,-6,-3,-3,-2,27,21,13
1523010243636134,3,12,4,4,2,-12,1,0
1523010243636134,-4,1,1,1,1,-5,-50,-3
1523010243658193,1,-6,-3,-1,-1,-15,23,-2
1523010243658193,-4,-12,-3,-4,-1,3,-4,-2
1523010243659195,9,7,-1,-1,0,11,-10,-3
1523010243659195,0,5,0,-3,-1,-10,-10,4
1523010243673233,-9,-12,-2,-1,-3,-15,-58,-1
1523010243673233,8,8,-3,1,1,-17,53,3
1523010243673233,-7,-5,1,1,4,-18,4,-10
1523010243673233,4,7,2,1,1,16,-17,1
1523010243695291,3,-7,-2,0,-1,-10,17,2
1523010243695291,-4,0,-2,-1,-2,22,12,-2
1523010243696294,-6,-11,-5,-2,-3,-8,-17,5
1523010243696294,2,8,0,-1,-3,-8,-34,4
1523010243709329,2,-3,2,-2,-1,-22,15,-9
1523010243709329,-1,-4,-2,-2,2,-12,-16,-6
1523010243717350,-4,-5,-1,-1,-2,4,12,4
1523010243717350,2,-1,0,0,0,7,-12,2
1523010243732390,-4,-1,-1,0,-5,-24,-5,-1
1523010243732390,-4,-1,0,0,0,-3,-8,-3
1523010243733392,-4,5,-1,-3,-2,-19,-11,-7
1523010243733392,1,-7,-1,-1,0,-8,-18,0
1523010243755451,5,-2,-3,1,0,11,23,-2
1523010243755451,-4,-2,-2,-1,2,-3,-8,-4
1523010243756454,-3,4,2,1,2,16,5,-3
1523010243756454,2,-1,0,-2,-4,-6,4,2
1523010243778513,-4,1,-2,-1,1,9,5,3
1523010243778513,-4,-8,0,0,-3,-4,-14,-4
1523010243779515,4,2,0,-1,-1,15,-2,11
1523010243779515,0,-2,-1,0,-2,-3,-8,-8
1523010243792550,2,3,-1,-1,-2,-1,-5,-5
1523010243792550,-3,1,-3,-1,-2,11,-21,-5
1523010243793553,-3,-3,0,2,-1,-23,17,2
1523010243793553,-3,-4,-2,1,-2,-20,26,-1
1523010243815611,0,-3,0,1,-1,48,-5,1
1523010243815611,-9,3,-3,-4,-1,-14,-15,3
1523010243815611,-4,1,1,-1,-3,-1,-8,-6
1523010243815611,4,0,2,2,-4,-39,-18,-4
1523010243838672,2,3,-2,-3,2,1,16,4
1523010243838672,-1,-3,0,-1,-2,0,6,-2
1523010243839675,1,1,-1,-2,2,31,8,4
1523010243839675,-5,2,-1,-3,-3,18,2,-6
1523010243852710,-5,-7,-3,-1,-1,-7,1,-2
1523010243852710,2,-5,-3,-3,-2,-7,-2,-1
1523010243853713,-1,7,-1,-1,0,-3,-12,-2
1523010243853713,2,-1,2,-1,3,15,5,2
1523010243883792,-2,-2,-3,-1,-1,-5,0,-1
1523010243883792,-2,2,2,2,1,1,5,10
1523010243883792,-6,-7,-2,1,-1,-37,9,-8
1523010243883792,-1,1,-2,-2,0,22,-1,-3
1523010243897830,-2,-1,-2,0,2,-14,-6,-1
1523010243897830,-2,0,1,-2,-1,-10,-6,-1
1523010243898832,3,-2,-1,-1,4,32,24,4
1523010243898832,-10,-6,-2,-1,0,-7,-24,-2
1523010243912870,2,0,-1,-1,-2,-14,-2,3
1523010243912870,-3,-2,-1,0,3,12,12,-5
1523010243913873,-4,-9,-2,-4,-4,-8,-14,-3
1523010243913873,1,3,0,-2,0,-1,-12,-7
1523010243934928,-7,0,-1,1,1,9,4,-9
1523010243934928,2,6,-1,0,-4,6,-13,4
1523010243935931,-1,0,-1,-1,-1,18,8,3
1523010243935931,-1,-10,-4,0,1,-19,-10,-5
1523010243957990,1,1,-2,0,-1,1,17,4
1523010243957990,1,1,-2,0,0,-14,-17,0
1523010243958992,-5,-3,3,2,1,2,-6,-1
1523010243958992,-1,-1,-1,-1,-3,0,4,4
1523010243973030,0,3,1,0,0,1,9,-4
1523010243973030,4,8,0,-2,-1,-11,-18,-3
1523010243974033,5,-2,-1,-3,-2,7,8,5
1523010243974033,-3,1,0,-3,-1,8,-5,2
1523010243995088,-2,-3,2,0,2,1,-28,1
1523010243995088,2,-3,-3,-2,0,-9,8,-3
1523010243996091,-2,-3,-2,-2,-4,-6,6,-5
1523010243996091,4,4,0,2,-1,-23,7,-2
1523010244018150,-5,-6,0,-2,-2,19,-12,-1
1523010244018150,0,1,-1,-1,3,15,12,-2
1523010244018150,5,0,0,-3,-2,5,-5,2
1523010244018150,-3,-12,-5,-4,2,3,8,-1
1523010244032187,9,3,-1,-2,-1,-6,-12,-1
1523010244032187,-1,1,0,0,-2,0,7,-4
1523010244033190,4,3,1,-1,-1,-6,-10,-3
1523010244033190,-2,-4,0,-2,-3,0,-6,1
1523010244063270,-5,0,0,0,1,-4,39,1
1523010244063270,-1,-10,-1,0,-2,-5,-22,2
1523010244064273,0,2,-1,-2,-2,-5,0,-1
1523010244064273,0,10,3,1,0,2,-6,2
1523010244077307,-6,-8,-3,-4,-2,-5,12,-5
1523010244077307,-2,-3,-2,-2,-3,-2,5,-11
1523010244078310,3,-7,-1,1,-1,4,-7,-3
1523010244078310,-5,4,2,-1,-1,1,5,-1
1523010244092347,-5,-5,0,0,-2,-2,-11,-10
1523010244092347,0,1,-2,1,-1,-16,60,1
1523010244093350,0,-5,-4,-1,-2,14,-31,-4
1523010244093350,3,-3,-4,-3,-2,-5,-5,6
1523010244115408,6,4,4,3,1,-7,-18,15
1523010244115408,-5,-1,-2,-1,0,-5,-1,14
1523010244116411,-6,-3,0,-1,0,-6,-1,2
1523010244116411,2,-2,-1,0,0,6,25,10
1523010244137467,-1,6,3,2,1,3,31,-6
1523010244137467,6,4,1,0,-4,3,-28,-10
1523010244138470,0,1,-3,-3,1,-4,6,-13
1523010244138470,-8,-5,-2,1,0,3,-27,-18
1523010244152508,-1,-6,-4,-1,0,-9,8,-7
1523010244152508,5,8,4,2,2,9,37,9
1523010244153510,-2,1,2,3,1,0,-17,19
1523010244153510,2,0,0,-1,-4,-8,6,48
1523010244175568,-5,-4,0,0,0,6,-11,55
1523010244175568,1,3,1,0,-1,6,-18,48
1523010244175568,2,7,-4,-2,-3,-3,-7,29
1523010244175568,0,-9,-2,-1,0,3,5,-5
1523010244197627,-4,-2,1,-2,-3,-1,-7,-29
1523010244197627,-4,-4,0,0,0,-2,5,-40
1523010244198630,-3,1,0,0,-2,-2,-32,-42
1523010244198630,-2,-1,-3,-3,-4,1,18,-44
1523010244212667,8,3,3,-1,1,-4,-3,-13
1523010244212667,2,-3,-3,-2,-1,5,55,-5
1523010244213670,-11,-3,0,0,1,-2,-42,-6
1523010244213670,1,1,0,1,-2,-2,4,16
1523010244234726,-5,2,1,-1,-3,-7,-7,5
1523010244234726,2,-6,-3,-1,-1,0,-3,2
1523010244235729,-2,-3,-4,-3,0,5,37,-1
1523010244235729,2,6,1,1,-1,-3,-16,-9
1523010244257787,0,0,0,0,-1,5,-12,-5
1523010244257787,2,2,-3,1,-1,-4,-23,-1
1523010244258790,0,-6,-2,-3,-5,-4,17,7
1523010244258790,-4,-4,0,-1,2,0,-13,5
1523010244272827,2,4,-1,0,-1,-1,-5,16
1523010244272827,-1,-3,-1,-1,-1,3,-12,19
1523010244273830,0,-1,1,0,5,-5,-4,12
1523010244273830,-5,-6,-3,-2,-2,-3,11,3
1523010244294886,3,-1,-2,0,-3,-11,-44,-11
1523010244294886,-2,4,-3,-6,-9,2,50,-11
1523010244295888,4,3,0,6,13,1,-15,-14
1523010244295888,-1,-4,-1,-1,-3,5,-11,-29
1523010244317947,0,-2,-2,-2,-2,3,1,-22
1523010244317947,-1,3,-3,-2,0,-3,-16,-24
1523010244318950,-9,-13,-3,-3,-6,-1,28,-15
1523010244318950,-9,-7,-1,2,2,0,-6,-33
1523010244332987,-3,6,1,0,-1,3,17,-17
1523010244332987,1,-5,-3,2,1,-5,-69,-34
1523010244333990,12,11,1,-2,-1,6,18,-2
1523010244333990,2,5,8,3,2,-2,-14,0
1523010244355046,2,0,-1,0,-2,-1,-4,3
1523010244355046,3,6,-2,0,-2,-1,11,13
1523010244356048,-5,-15,-5,-4,-3,2,-3,8
1523010244356048,-5,-4,-3,0,-4,-2,-20,9
1523010244378107,-1,0,-5,-1,2,-1,14,10
1523010244378107,1,-3,2,-1,-2,4,51,17
1523010244378107,2,-6,-4,-1,-2,-1,-20,7
1523010244378107,7,5,1,0,-2,11,7,9
1523010244393147,-12,5,4,-2,-4,1,27,6
1523010244393147,0,4,-6,-1,1,-3,-22,-1
1523010244393147,2,8,-2,0,-3,-10,16,6
1523010244393147,-8,-17,-4,-5,-1,-4,5,8
1523010244415206,-7,-2,4,3,3,2,-2,8
1523010244415206,2,-9,-4,-1,0,-3,-17,5
1523010244416209,5,9,5,1,-1,2,32,0
1523010244416209,6,6,-2,-3,-1,-9,-70,-10
1523010244437264,0,-4,-4,-3,-5,-17,-15,-8
1523010244437264,-5,-3,0,-1,-1,3,17,-1
1523010244438267,-5,1,1,-2,-2,-8,-13,-3
1523010244438267,-7,-5,-1,2,2,-4,33,-3
1523010244452305,2,-2,-1,0,0,-1,-2,-7
1523010244452305,2,-3,-5,-2,-2,-8,-39,-4
1523010244460326,4,-1,-1,-2,-3,-1,13,-6
1523010244460326,-7,2,0,-2,-1,5,9,2
1523010244475366,5,-13,-3,-2,-2,4,12,9
1523010244475366,3,5,-2,3,2,-6,-14,-7
1523010244476368,-2,10,8,0,1,0,8,-1
1523010244476368,2,-2,-2,-1,0,-8,21,3
1523010244497424,-2,-4,-6,-1,0,13,-55,-12
1523010244497424,1,-7,-3,-3,0,-3,37,10
1523010244498427,-11,-8,-4,-1,-2,6,-26,2
1523010244498427,-4,6,1,3,1,8,-9,2
1523010244512464,-4,-3,-1,-1,0,-19,9,-2
1523010244512464,3,-1,-1,-1,1,11,0,-1
1523010244520486,4,1,-3,-3,-5,-4,-6,1
1523010244520486,0,3,0,0,-2,9,23,12
1523010244535526,-4,-14,-3,-1,-2,-5,18,1
1523010244535526,3,5,0,-1,-3,-2,-8,3
1523010244536528,-11,-5,1,0,1,-2,-3,1
1523010244536528,7,-3,0,-1,0,-12,-7,-4
1523010244557584,16,8,-2,2,1,4,5,5
1523010244557584,-8,-3,2,-2,0,-5,-18,-5
1523010244558587,1,-2,-3,-1,0,5,0,0
1523010244558587,-10,-4,-3,-4,-4,-4,4,-5
1523010244571622,-6,8,1,0,1,0,-4,3
1523010244571622,3,-6,-2,0,-1,-17,19,-2
1523010244580646,-3,-3,0,0,2,27,-4,-14
1523010244580646,-1,0,-1,-4,-1,10,9,8
1523010244595686,0,-4,-5,-2,-1,5,-14,-4
1523010244595686,1,1,-1,-1,-3,9,-6,-4
1523010244595686,-5,-1,1,1,1,-8,-16,-2
1523010244595686,6,6,2,-1,-3,-11,16,7
1523010244617744,1,-5,-2,-1,2,-1,11,1
1523010244617744,2,4,-1,-4,3,20,15,2
1523010244618747,8,4,1,1,-3,-12,-14,-6
1523010244618747,-8,-2,-2,-2,-3,37,4,-1
1523010244631782,1,4,0,-1,1,-10,11,9
1523010244631782,-6,0,0,-2,-6,-13,-39,-7
1523010244639803,-2,-2,-2,-1,-2,-1,20,0
1523010244639803,8,-4,2,2,2,-13,-10,-5
1523010244654843,-7,0,-3,0,-1,11,7,-2
1523010244654843,-7,-7,1,-1,1,0,-15,8
1523010244655845,9,7,-1,-3,-1,1,4,7
1523010244655845,-3,-4,-3,2,1,-6,-2,-1
1523010244677904,0,-1,-2,-3,-1,1,-3,-7
1523010244677904,-9,0,2,1,0,6,-2,5
1523010244678907,-5,-4,-1,1,1,0,-7,-3
1523010244678907,1,-1,-5,-5,3,31,16,-2
1523010244691941,-3,3,-1,-1,-1,-3,-7,-2
1523010244691941,0,-2,0,0,0,-5,-24,-2
1523010244699963,-4,-3,1,-2,-5,-1,2,-4
1523010244699963,1,2,3,2,-1,-2,-4,4
1523010244715003,-1,1,-3,-2,-1,-20,-1,-1
1523010244715003,-5,-2,-2,-2,2,39,7,-5
1523010244716005,-3,-3,0,-1,-3,-7,9,5
1523010244716005,3,-1,-2,0,-1,-14,-11,1
1523010244738064,6,4,-1,-1,-1,5,3,-1
1523010244738064,1,0,0,0,0,-20,5,2
1523010244738064,-2,-1,0,0,-1,-3,0,1
1523010244738064,-3,3,1,2,1,-11,-14,-5
1523010244752102,-2,-4,-4,-4,-4,12,-2,-9
1523010244752102,-1,2,0,1,2,3,18,-1
1523010244760123,0,-3,-1,-3,1,1,-5,-3
1523010244760123,5,3,-1,-3,0,8,-4,3
1523010244775163,-2,3,2,2,1,3,15,4
1523010244775163,-14,-3,-2,-3,-2,-39,-29,-9
1523010244776165,4,-5,-2,1,0,-18,3,1
1523010244776165,-1,0,-1,-2,-1,3,7,3
1523010244797222,-1,-4,-1,0,1,2,-7,-1
1523010244797222,5,4,1,2,-1,6,8,2
1523010244798224,1,0,1,-2,-1,-10,9,6
1523010244798224,-6,-4,0,-1,-1,-9,-27,-3
1523010244812261,-4,6,0,-1,-1,-5,-21,-5
1523010244812261,2,-5,-2,0,0,-9,-3,-4
1523010244820283,-6,-2,-2,-1,-3,19,9,5
1523010244820283,6,-4,-1,0,-2,-4,2,-2
1523010244835323,1,-1,0,-2,-3,6,9,5
1523010244835323,-1,-1,-3,-2,-1,-7,-9,-9
1523010244836326,-7,-3,0,0,1,-5,-10,1
1523010244836326,-6,-2,-1,-2,-1,-5,17,-1
1523010244857382,-9,-7,-3,-2,0,-15,-6,-4
1523010244857382,1,-3,-2,-3,-2,30,8,3
1523010244858384,6,3,1,-1,1,-1,1,-5
1523010244858384,6,2,0,-2,1,5,-6,0
1523010244880443,0,3,-2,-1,-1,-6,-3,0
1523010244880443,0,-1,-1,-1,-1,-19,-23,1
1523010244881446,-1,-1,0,-2,-2,-6,4,-3
1523010244881446,-4,3,2,0,-1,-12,-10,1
1523010244895483,-6,-3,0,-1,1,16,-4,0
1523010244895483,-9,-1,-3,-2,-1,8,11,-3
1523010244896486,13,4,1,-1,1,-1,-8,-3
1523010244896486,-5,-15,-7,-5,-4,-17,1,-3
1523010244917542,9,7,3,0,-1,-3,4,1
1523010244917542,9,9,2,1,-2,-5,13,3
1523010244918544,-24,-14,-3,-2,-1,-1,-7,-7
1523010244918544,-5,-7,0,-3,-2,1,1,-7
1523010244940603,10,-2,-2,0,1,3,6,2
1523010244940603,1,3,0,-1,1,-3,8,3
1523010244941606,11,8,-2,1,1,-1,-58,1
1523010244941606,-6,-4,0,0,0,-4,7,-6
1523010244955643,-4,3,-2,-4,-1,-3,-8,-4
1523010244955643,5,-3,0,-2,-1,-12,-5,2
1523010244955643,3,-3,-4,-1,0,11,15,-5
1523010244955643,3,7,0,0,1,-1,8,-10
1523010244977702,0,-3,-1,-1,-3,-3,-19,-2
1523010244977702,-5,-7,-4,0,-1,1,12,-6
1523010244985723,-9,2,1,0,-1,1,-9,-4
1523010244985723,1,-3,-2,0,-2,5,2,6
1523010244999760,2,10,2,3,-1,-5,2,15
1523010244999760,2,-2,-2,-4,0,0,16,13
1523010245000763,-6,-10,0,-3,-2,0,23,4
1523010245000763,-3,3,0,0,-1,-5,-27,-9
1523010245016806,4,-4,-1,-2,-1,8,29,-17
1523010245016806,-2,-6,-3,-2,-1,-4,16,-9
1523010245017809,6,5,2,0,0,-9,6,-8
1523010245017809,1,-1,0,1,-1,-2,-7,3
1523010245037862,-7,-2,2,1,0,8,17,25
1523010245037862,0,-3,-2,-1,-3,3,-46,50
1523010245038864,2,-8,-4,-2,-4,-2,17,54
1523010245038864,-4,-1,4,0,3,1,-5,27
1523010245059920,-1,-3,4,1,2,-12,-29,-9
1523010245059920,11,6,-1,2,1,-1,5,-33
1523010245060923,-7,3,1,0,-2,-6,-10,-44
1523010245060923,-3,-3,-3,-1,-3,8,-11,-20
1523010245074960,-1,-1,2,2,1,0,0,-3
1523010245074960,7,0,0,1,-1,5,6,10
1523010245075963,2,1,-2,-2,-4,-4,-16,2
1523010245075963,-10,-4,-1,-3,-2,2,57,-7
1523010245098022,-1,1,-2,-1,-1,5,17,5
1523010245098022,-9,-4,-1,-1,-3,-2,-34,12
1523010245099024,5,-1,-2,1,1,-4,32,37
1523010245099024,4,2,0,-2,-2,-3,3,20
1523010245120080,-6,-7,-4,-1,-1,-3,-4,7
1523010245120080,-5,1,-2,-1,-3,-2,-7,-32
1523010245121083,-2,2,1,-2,-3,4,22,-34
1523010245121083,-2,-3,-1,1,-2,-8,-15,-29
1523010245135120,-2,-5,-3,0,-3,-2,3,-30
1523010245135120,5,3,1,0,-2,-2,1,-21
1523010245136123,-8,-2,1,1,0,0,-1,-21
1523010245136123,4,-1,-1,0,-2,-2,-6,-14
1523010245158182,-1,-5,0,-1,0,-1,3,-15
1523010245158182,-1,8,0,0,-1,-3,31,-14
1523010245158182,2,0,-3,-5,-3,11,2,-2
1523010245158182,-1,-5,2,2,3,0,-6,-8
1523010245180240,0,7,-1,-2,-2,-3,-12,-1
1523010245180240,-3,-1,-1,-4,-1,-1,32,3
1523010245181243,-6,-7,-1,2,4,-1,-72,-7
1523010245181243,4,10,4,3,-4,-3,8,8
1523010245195280,-2,-7,-4,1,-1,4,23,3
1523010245195280,-2,-1,-3,-4,-4,-1,-14,0
1523010245196283,6,3,-2,-4,-2,4,36,11
1523010245196283,-7,-6,-2,-3,-2,-3,-17,-4
1523010245217339,6,5,2,0,-3,-7,-41,6
1523010245217339,-7,-1,-2,3,-3,-1,-1,3
1523010245218342,5,-4,-4,-2,-2,-6,-3,1
1523010245218342,-2,-8,3,-1,-1,-1,8,2
1523010245240400,-2,5,-3,1,1,1,14,2
1523010245240400,7,2,1,-2,-1,1,-37,5
1523010245241403,-2,1,-4,-1,-1,-4,2,-2
1523010245241403,2,-2,-2,0,3,-2,7,1
1523010245257446,0,-2,-1,0,-1,-2,-21,-5
1523010245257446,3,3,0,-3,-4,6,9,-1
1523010245258448,0,0,-1,2,0,-3,-3,-12
1523010245258448,2,3,-4,-2,3,4,-8,-3
1523010245277499,-3,-1,1,-3,-2,2,21,-8
1523010245277499,-5,0,-3,-4,-3,-1,-28,-6
1523010245278502,-1,-4,1,-2,0,0,3,-1
1523010245278502,-1,-3,-2,-1,-3,9,4,3
1523010245300561,5,2,1,1,0,-12,17,3
1523010245300561,-11,-6,0,3,0,0,-28,-11
1523010245300561,-3,-8,-2,-3,-2,8,-26,2
1523010245300561,5,8,-1,-3,-3,-3,0,5
1523010245315600,7,3,-4,-2,-2,-2,2,13
1523010245315600,-9,-12,-4,-1,0,0,-4,9
1523010245315600,-6,0,7,4,1,-3,21,10
1523010245315600,-2,0,0,1,-1,-6,-13,10
1523010245338662,7,-2,-4,-3,-1,7,-11,15
1523010245338662,3,-2,-1,0,2,0,-4,18
1523010245339664,-2,1,-3,0,1,-5,9,9
1523010245339664,-9,-1,0,-1,-2,4,20,0
1523010245360720,-7,-7,-2,2,2,-2,-4,0
1523010245360720,0,-3,-3,-3,-2,6,-7,-3
1523010245360720,4,-1,-2,-2,1,-4,9,-5
1523010245360720,0,4,0,-2,1,-8,65,1
1523010245375760,2,10,4,0,1,6,-13,1
1523010245375760,4,3,1,-2,-1,-5,21,-3
1523010245382779,-2,-8,0,-2,-5,-2,-17,3
1523010245382779,-14,-5,0,1,-3,-2,-8,-7
1523010245397819,0,-1,-3,-1,-2,-5,-2,-9
1523010245397819,-2,-1,-3,-3,-3,-15,-47,-12
1523010245398822,6,3,-1,1,0,1,19,-1
1523010245398822,0,-4,-4,-2,1,-10,-18,-1
1523010245419877,-5,0,-1,-2,0,0,6,0
1523010245419877,-11,-5,3,4,4,8,6,-8
1523010245420880,7,1,-1,-3,-2,4,0,-12
1523010245420880,7,-1,-2,-2,-1,-7,-24,1
1523010245434918,-10,2,-1,-2,-3,-5,0,-16
1523010245434918,9,-3,-3,1,2,-2,21,1
1523010245442939,-5,9,6,-2,-1,-1,-4,2
1523010245442939,2,10,4,4,2,6,4,-2
1523010245457979,-5,-7,-4,-1,-2,2,1,1
1523010245457979,0,-7,0,-4,-1,-1,13,4
1523010245458984,0,-6,-2,-2,0,-7,-11,-1
1523010245458984,-2,1,2,0,0,5,-7,1
1523010245480037,-3,-2,-3,-2,-1,-1,-8,2
1523010245480037,12,4,2,0,-3,-6,8,4
1523010245481040,-5,-5,-2,1,0,4,3,-3
1523010245481040,-1,2,0,-1,-1,2,6,-2
1523010245495078,11,5,-1,-1,-2,5,-19,4
1523010245495078,-12,-9,-1,1,0,-14,5,-7
1523010245496080,0,-7,0,2,1,6,0,-4
1523010245496080,4,5,-4,0,-1,4,-3,0
1523010245518139,-5,-1,0,-1,-1,-3,4,-4
1523010245518139,9,1,1,1,1,7,16,12
1523010245518139,-2,2,-2,-4,2,7,-14,-3
1523010245518139,3,-13,-4,-3,-2,6,-10,-5
1523010245540197,-12,-6,1,2,1,-1,1,1
1523010245540197,-2,10,0,2,1,-2,7,-4
1523010245548219,-3,-3,1,2,1,-16,-22,1
1523010245548219,6,5,1,0,2,18,3,5
1523010245554235,-2,-4,-7,-5,-4,-10,-6,-8
1523010245554235,-13,-8,1,0,0,-1,-3,-5
1523010245563259,-2,4,-1,0,0,5,6,2
1523010245563259,7,-2,-3,-4,-3,-6,-4,2
1523010245577296,5,-2,1,2,2,6,-4,-8
1523010245577296,-1,-2,-1,0,1,5,6,6
1523010245578299,0,14,0,-1,-4,-6,6,1
1523010245578299,6,1,-1,1,-1,-4,-7,1
1523010245600358,-12,-9,-1,0,-1,-2,1,-2
1523010245600358,4,1,0,-1,-2,3,6,5
1523010245601361,-12,-3,0,-2,-1,-11,-8,-13
1523010245601361,-6,1,2,2,2,-2,-3,-4
1523010245614395,6,2,-2,-2,0,1,4,3
1523010245614395,1,-4,-1,7,1,-3,-1,8
1523010245622416,-2,-2,0,-1,1,-4,4,2
1523010245622416,3,-2,-1,3,0,6,-3,0
1523010245638459,-2,-4,1,0,-1,-18,-3,-1
1523010245638459,-7,1,1,-4,-2,7,-4,-7
1523010245645478,-4,1,-2,0,-2,6,9,3
1523010245645478,-1,-4,-2,-3,-1,-12,-6,-1
1523010245660517,3,0,-4,-4,-1,6,-1,3
1523010245660517,-2,13,5,-3,-2,-6,-5,-9
1523010245661520,-1,2,-1,1,1,6,2,-2
1523010245661520,-3,-1,-1,-2,-2,-5,-9,-3
1523010245674555,11,0,1,2,-1,10,-3,7
1523010245674555,-9,-10,-5,-4,-3,-3,-4,-6
1523010245690598,2,1,-1,1,1,-4,5,4
1523010245690598,-7,-5,-2,-2,0,-7,0,-2
1523010245697616,-3,-3,-1,-2,-1,-2,2,-1
1523010245697616,-2,1,0,-2,1,-6,-5,-2
1523010245698619,11,6,0,-2,-3,4,0,1
1523010245698619,-7,3,-2,-4,-3,-1,0,-2
1523010245720677,6,1,-3,3,0,8,-2,-8
1523010245720677,-6,-8,0,5,2,-6,-4,2
1523010245720677,-14,-17,-3,-1,-3,-2,1,-5
1523010245720677,-23,14,5,-2,-1,1,-4,-5
1523010245734715,5,9,0,-6,-3,-5,-6,-4
1523010245734715,8,1,-1,-2,-1,4,3,3
1523010245742736,16,1,-1,-2,-1,1,4,6
1523010245742736,1,-10,-5,-2,-3,-11,-1,6
1523010245757776,-10,0,-2,2,2,-4,2,-3
1523010245757776,9,1,-2,-3,1,0,7,-2
1523010245758779,-8,-4,1,-1,-2,1,-3,0
1523010245758779,3,2,0,-2,-2,-3,0,-1
1523010245779835,0,2,-1,-1,-1,9,1,-2
1523010245779835,-3,-1,-1,-2,-1,7,7,3
1523010245780837,-8,-5,-2,-2,0,-4,-7,-8
1523010245780837,0,-1,1,2,2,0,2,-7
1523010245794875,7,-1,-1,-2,-2,-4,3,7
1523010245794875,-3,-2,-2,-3,0,1,-10,-10
1523010245802896,2,1,-2,-1,-1,1,7,2
1523010245802896,5,-3,1,2,1,8,3,1
1523010245817936,0,3,0,-4,-1,-8,11,1
1523010245817936,-8,-6,-2,-4,0,-11,-22,1
1523010245818939,-3,-2,-1,1,-1,0,16,-11
1523010245818939,9,2,0,-3,-1,-4,-5,3
1523010245839995,0,1,-2,0,-1,0,0,-2
1523010245839995,0,4,2,2,-2,-5,5,2
1523010245840998,-2,-5,-4,-4,-1,-6,-32,-7
1523010245840998,0,-6,-1,0,1,0,-7,-2
1523010245863056,2,1,0,0,-2,-3,3,4
1523010245863056,4,0,-1,-4,-2,0,-10,2
1523010245864059,-2,-3,0,0,-1,-3,3,-5
1523010245864059,-5,-1,-1,1,-1,4,3,-9
1523010245878096,4,2,-2,-3,0,-5,-12,2
1523010245878096,-1,-1,-2,1,-1,6,13,-3
1523010245878096,1,0,3,0,-1,1,-2,-1
1523010245878096,-6,-4,-1,1,-1,-4,2,1
1523010245900155,-4,-2,-1,-4,-2,-1,5,2
1523010245900155,3,0,-2,-1,-1,-3,7,10
1523010245901158,-4,-2,0,-1,-1,-3,-5,17
1523010245901158,0,1,0,1,-2,5,-14,14
1523010245923216,-5,-2,-3,0,-1,-1,13,-2
1523010245923216,2,-3,-3,-1,-1,3,6,-16
1523010245924219,0,3,-1,-1,0,-2,-4,-13
1523010245924219,1,-2,1,1,0,-3,2,-9
1523010245938256,-2,-3,-3,0,0,1,-4,11
1523010245938256,-2,2,-3,-3,-1,-2,-6,45
1523010245939259,1,-1,0,0,-1,-3,5,63
1523010245939259,2,-2,-3,-1,0,1,2,48
1523010245960315,0,-1,0,0,1,-3,3,2
1523010245960315,-3,0,1,1,-1,1,-4,-26
1523010245961318,9,3,-1,-1,-1,-2,-2,-28
1523010245961318,-8,-6,-4,-4,-2,-5,-1,-17
1523010245983376,-6,-4,-2,0,-2,-1,2,-7
1523010245983376,-1,-1,-1,0,-3,-3,-29,-2
1523010245984379,0,1,1,2,1,2,2,24
1523010245984379,0,3,2,1,-2,-3,7,41
1523010245997413,8,5,-1,-4,-5,1,-6,29
1523010245997413,-3,-4,-1,2,-3,-7,-3,-12
1523010245998416,-11,-5,-3,-5,-1,8,9,-36
1523010245998416,-1,-3,0,-2,-3,-1,20,-62
1523010246020475,-2,1,0,1,0,1,-64,-51
1523010246020475,7,0,1,-5,-3,-1,-7,-34
1523010246021478,1,-1,-2,-3,-10,-7,-7,-37
1523010246021478,-5,-2,-3,-4,-9,4,19,-22
1523010246043536,-11,-2,-1,6,1,6,-23,-21
1523010246043536,4,1,-2,-4,13,1,22,-6
1523010246044539,2,-6,-1,2,-6,9,-3,3
1523010246044539,-7,0,-2,4,13,2,9,-16
1523010246057574,3,-1,-1,-4,-9,-8,19,2
1523010246057574,-5,-8,-4,0,-4,1,4,2
1523010246058576,6,4,1,-4,-5,-4,7,6
1523010246058576,-19,-2,0,-3,-5,-2,0,-3
1523010246080635,8,1,3,1,5,0,10,5
1523010246080635,-1,2,0,-1,-8,-1,-1,3
1523010246080635,-2,-4,-1,2,5,-3,-2,3
1523010246080635,6,1,0,-1,0,-3,-14,1
1523010246103696,-7,0,-4,0,-1,0,7,1
1523010246103696,0,1,-1,0,1,-3,-8,2
1523010246104699,2,0,0,2,2,1,4,0
1523010246104699,0,-2,-1,-1,1,-1,-16,-1
1523010246117733,-3,2,-1,0,-1,0,8,8
1523010246117733,6,2,1,-2,-3,0,9,6
1523010246118736,-5,-2,-1,4,9,6,-6,3
1523010246118736,0,-5,-1,0,-2,-4,-7,4
1523010246139792,6,3,-2,-4,-2,-6,-3,10
1523010246139792,-7,4,1,1,-3,4,-30,2
1523010246140795,-15,-4,-1,-2,-6,-8,-7,4
1523010246140795,8,2,-1,3,1,1,-1,14
1523010246162853,6,-1,-1,-1,-2,4,0,14
1523010246162853,2,-3,0,0,-1,2,7,14
1523010246163856,6,5,1,1,-1,-2,2,5
1523010246163856,-8,0,2,-2,-2,1,-11,2
1523010246177893,-8,-6,-3,-2,-2,-2,11,-1
1523010246177893,-3,-5,-5,-2,-3,-3,4,1
1523010246178896,3,-5,0,-1,-2,-2,2,-2
1523010246178896,10,2,-5,-4,-3,-1,6,8
1523010246199952,4,13,4,1,-2,1,-1,1
1523010246199952,-13,6,4,0,0,-5,-1,-8
1523010246200955,-5,-11,-6,-1,-1,-3,-6,-9
1523010246200955,8,9,2,2,1,3,1,-5
1523010246223013,-5,-13,-7,-2,-1,-6,3,-1
1523010246223013,-1,-4,-2,-4,-3,0,-2,-3
1523010246224016,1,5,-1,2,1,-1,3,-6
1523010246224016,-5,-1,0,-3,-2,0,-5,-5
1523010246238053,7,1,0,-1,1,3,10,1
1523010246238053,0,3,3,1,2,0,4,-1
1523010246238053,-4,1,-3,-1,0,-4,-6,-11
1523010246238053,7,-2,-1,-1,1,3,8,-2
1523010246260112,1,-3,1,-2,0,6,-4,1
1523010246260112,2,-2,-1,-6,-2,-2,10,-7
1523010246261115,-8,-1,-1,7,5,-1,-29,-9
1523010246261115,-10,0,-4,4,0,-3,6,2
1523010246283173,-2,-2,-2,-1,-1,-7,-3,-2
1523010246283173,-1,-10,-2,-2,-1,1,7,6
1523010246283173,14,5,-1,-4,-1,-6,4,9
1523010246283173,-2,2,1,-2,-2,-2,-7,0
1523010246298213,-20,-7,-1,-1,-2,-5,-7,-11
1523010246298213,6,2,-2,4,2,4,1,10
1523010246298213,-7,-14,-3,-5,-3,-1,5,-6
1523010246298213,7,0,-2,1,0,-2,-5,1
1523010246320272,3,11,6,0,0,1,4,-2
1523010246320272,2,-5,-5,-1,1,-2,1,1
1523010246321275,-4,3,2,0,3,7,4,-2
1523010246321275,-5,-9,-5,-3,-3,0,2,-4
1523010246342331,6,-2,-1,6,1,-13,-10,1
1523010246342331,1,-3,0,1,0,7,5,-3
1523010246343333,7,3,2,-3,-2,-15,-6,8
1523010246343333,-8,-2,-2,-3,0,16,-3,-1
1523010246357371,-2,-1,0,-2,0,3,3,1
1523010246357371,-4,-4,-4,-5,-5,-23,4,-4
1523010246358373,-1,-2,1,2,0,15,0,-4
1523010246358373,8,4,2,1,1,0,-2,5
1523010246380432,-7,-4,0,-2,-2,0,5,-5
1523010246380432,6,-2,0,1,2,0,-3,2
1523010246381435,-1,-6,-2,-6,-5,-7,5,8
1523010246381435,6,4,-3,-1,0,-6,-3,0
1523010246402491,1,-2,-1,0,1,5,3,-5
1523010246402491,2,8,0,-1,-1,-2,-5,-1
1523010246403493,-9,1,2,-1,0,2,0,-7
1523010246403493,-5,-6,-1,1,0,0,-2,0
1523010246417531,-3,-10,-6,-5,-3,-5,1,1
1523010246417531,-4,3,4,2,1,2,-7,-2
1523010246418534,1,4,-4,0,0,0,6,4
1523010246418534,3,0,-3,-1,-2,-10,-1,-1
1523010246440592,1,1,-2,-2,-3,-2,3,-2
1523010246440592,-6,-5,0,1,1,10,5,-1
1523010246440592,5,2,0,0,0,-3,-5,9
1523010246440592,2,2,3,0,-1,-5,5,7
1523010246462651,-3,-4,-2,-7,-2,-5,-14,-9
1523010246462651,7,0,0,1,-4,-5,-5,-2
1523010246463653,-23,-5,-3,-1,-1,3,8,-6
1523010246463653,-7,-5,0,0,-1,-11,-10,-8
1523010246476688,2,1,0,-2,-2,3,-5,-5
1523010246476688,9,1,-2,4,0,-16,4,3
1523010246485712,0,1,0,-3,-3,16,5,2
1523010246485712,5,0,-3,-5,-3,3,3,8
1523010246499749,-12,-2,0,-2,0,5,2,0
1523010246499749,-6,-6,-3,-4,-1,-2,-7,-10
1523010246500752,12,9,1,1,1,-1,-4,-3
1523010246500752,0,1,-1,-2,0,-8,2,2
1523010246522811,-1,-5,-3,2,1,3,-6,-7
1523010246522811,-6,-2,1,-3,0,12,-2,6
1523010246523814,11,-3,-1,0,0,-2,-2,-8
1523010246523814,-6,2,-2,-4,-2,4,-7,-4
1523010246536848,-23,-7,-3,-2,-1,-7,-2,-4
1523010246536848,-2,-2,-2,0,2,2,6,2
1523010246544869,8,4,1,-4,-2,-10,1,4
1523010246544869,11,0,-1,-7,-9,26,0,1
1523010246559909,6,3,0,6,15,7,-4,0
1523010246559909,-8,0,-1,1,-3,-14,-18,-1
1523010246560912,-1,-1,-1,0,0,-5,-9,1
1523010246560912,5,1,0,3,0,-10,-1,-5
1523010246582971,-5,1,-3,-3,-6,0,5,-1
1523010246582971,-2,-2,-1,-4,1,29,9,-3
1523010246583974,-4,-2,-1,0,2,-11,4,3
1523010246583974,-2,-1,0,-3,0,-4,-1,5
1523010246597008,6,1,-1,1,-2,-6,4,-2
1523010246597008,3,4,3,-2,1,-8,-3,-3
1523010246605029,-15,-5,-3,-4,-5,-2,-8,-21
1523010246605029,-4,-1,-1,2,2,10,3,3
1523010246620070,3,1,-1,-2,-2,1,1,6
1523010246620070,6,-3,-1,0,0,-6,-2,-1
1523010246621073,-1,-5,-1,-3,0,1,4,4
1523010246621073,-6,0,-1,-1,-1,17,0,-7
1523010246643130,5,5,-1,-9,-7,-3,5,4
1523010246643130,-5,-5,1,0,10,-5,-10,3
1523010246643130,5,0,-1,4,2,1,6,5
1523010246643130,-5,-3,-1,0,-2,-8,-2,-1
1523010246657168,7,-2,-2,1,-3,-2,2,-6
1523010246657168,-2,-5,-2,-4,-7,2,-12,2
1523010246665189,-1,17,5,-4,-3,-2,0,0
1523010246665189,4,0,0,-14,-14,-9,-9,-5
1523010246680229,-5,-3,0,22,18,11,-25,2
1523010246680229,3,0,-3,-4,-2,-6,1,-3
1523010246681232,0,-9,-4,-6,-1,2,4,-5
1523010246681232,-3,0,0,10,16,-4,-6,-5
1523010246702288,2,-2,-1,-15,-28,-5,1,3
1523010246702288,3,2,-1,7,10,2,6,-6
1523010246703291,0,-2,-1,2,-7,4,-10,2
1523010246703291,-5,-4,-1,-4,18,2,19,1
1523010246717328,4,-1,-1,-7,-5,-5,2,0
1523010246717328,-9,3,1,4,-1,-5,14,1
1523010246725349,-5,1,1,-8,-7,0,-27,6
1523010246725349,2,0,0,2,-5,-9,-4,5
1523010246740390,-11,-13,-3,0,5,-3,-1,-6
1523010246740390,4,4,2,-8,-9,-10,11,2
1523010246741392,9,1,1,1,6,13,17,-1
1523010246741392,-3,-2,-5,-3,-7,-8,-5,-7
1523010246762448,6,7,-2,4,2,-7,-3,6
1523010246762448,-8,-6,-1,-1,4,4,5,-4
1523010246763450,-2,-4,-2,1,-7,-3,8,2
1523010246763450,1,-1,-1,6,7,1,-4,5
1523010246777488,2,3,-2,-9,-10,-4,6,0
1523010246777488,-2,-2,-2,-3,-3,6,-8,-5
1523010246785509,4,0,1,4,3,-4,-2,-8
1523010246785509,-1,0,-1,-3,-9,-1,22,-11
1523010246799546,-2,0,-3,-4,1,-5,-55,-7
1523010246799546,1,-1,-2,-1,3,1,-2,-15
1523010246807568,-4,-2,-1,1,-1,3,0,-8
1523010246807568,-3,-3,-2,1,-7,-4,-2,-12
1523010246822608,-3,-8,-1,0,1,-1,18,-1
1523010246822608,0,2,-1,2,-2,-4,-9,3
1523010246823611,1,-9,1,-3,-4,-6,10,13
1523010246823611,0,0,0,-3,-7,-6,26,16
1523010246845669,9,2,0,5,3,12,-52,11
1523010246845669,-6,3,-1,-12,-28,-3,-4,18
1523010246846672,-19,-14,-5,8,22,4,19,16
1523010246846672,-1,3,1,4,-1,-9,-39,8
1523010246860709,4,3,-3,-5,-3,1,30,9
1523010246860709,1,0,-2,0,1,-2,2,8
1523010246860709,1,3,1,-6,-19,-9,-21,-1
1523010246860709,-7,-2,-3,-2,3,2,-14,8
1523010246882768,-5,1,0,2,3,-1,13,10
1523010246882768,0,-8,-2,0,-2,4,-1,-5
1523010246883771,5,-1,-2,1,0,-1,8,-12
1523010246883771,-8,-4,-3,-1,-6,-4,-5,-27
1523010246905829,9,11,10,0,-3,0,14,-18
1523010246905829,2,-4,-1,6,6,-9,22,-12
1523010246906832,-2,-4,-1,-3,-3,8,25,-7
1523010246906832,-3,-2,-3,2,-5,3,-19,-7
1523010246920869,0,1,-2,-5,1,-3,23,-1
1523010246920869,-1,-1,1,-1,-13,-16,-59,-4
1523010246921872,0,0,0,3,18,2,37,7
1523010246921872,-2,3,1,11,15,6,-4,4
1523010246942928,-3,-3,-4,-3,1,3,8,8
1523010246942928,-6,-3,0,3,18,6,-2,7
1523010246943930,2,-4,0,-1,-10,-2,-13,0
1523010246943930,0,-9,-2,-5,-9,0,-1,4
1523010246965989,4,10,1,0,-5,-3,5,0
1523010246965989,7,7,-2,-2,0,3,7,-1
1523010246966992,-3,-2,0,0,-5,-3,-22,-7
1523010246966992,-5,-3,2,-2,1,2,12,-8
1523010246980026,-4,-12,-6,4,2,-7,-14,1
1523010246980026,0,-3,0,-8,-10,6,30,-1
1523010246981029,6,5,1,3,3,-5,-16,-6
1523010246981029,4,0,2,2,6,0,7,2
1523010247003088,-2,-2,-6,-1,-1,-3,0,-6
1523010247003088,0,12,3,1,2,0,-10,-8
1523010247003088,-5,-13,0,-4,-6,-4,0,-1
1523010247003088,2,0,-3,0,-6,-1,6,-1
1523010247026149,0,0,-2,-3,4,-1,-5,-4
1523010247026149,0,-4,0,-2,0,2,-20,-2
1523010247027152,-2,2,-1,-1,-13,-5,25,-2
1523010247027152,-1,2,1,-1,24,3,36,-6
1523010247041190,-9,-5,-4,-3,-29,-8,-57,-19
1523010247041190,0,-1,-3,-2,16,4,4,-3
1523010247041190,-4,0,0,-4,-5,-3,-25,-6
1523010247041190,4,9,1,2,1,-1,5,-2
1523010247063248,3,-3,-1,-2,-2,-2,18,-2
1523010247063248,1,-3,1,3,-5,2,7,-4
1523010247063248,-1,3,1,-2,0,-5,-18,-5
1523010247063248,-9,-3,-4,-7,-10,4,-9,-15
1523010247086309,1,-3,-2,-4,-6,-1,9,1
1523010247086309,-5,1,-3,-1,0,-2,-9,-3
1523010247086309,7,7,5,3,12,3,8,6
1523010247086309,6,2,-1,-3,-8,-3,-11,6
1523010247100346,-5,-4,1,-1,8,0,7,3
1523010247100346,-7,-15,-5,-4,-8,-5,18,0
1523010247101350,-4,3,-1,4,4,-1,-26,6
1523010247101350,0,-2,-1,-3,1,8,7,12
1523010247122405,0,2,-1,-1,1,2,-5,12
1523010247122405,3,-3,-1,1,-3,-2,9,12
1523010247123408,-7,1,-4,-3,1,-2,-1,3
1523010247123408,2,-1,0,-1,-10,-8,-8,7
1523010247145467,-5,-9,-3,-1,6,2,13,1
1523010247145467,-3,-2,-2,-1,-2,-3,5,1
1523010247146469,-1,7,-1,-1,-4,5,40,1
1523010247146469,10,2,-3,-4,-5,-12,-65,3
1523010247160506,-16,0,1,0,1,1,7,-12
1523010247160506,1,-8,-2,-1,-1,-2,-7,-2
1523010247161509,-8,-9,-4,-2,0,-3,-3,-1
1523010247161509,0,-4,-4,-5,-3,2,38,-1
1523010247182565,9,-6,-1,5,2,-1,-10,-1
1523010247182565,-7,0,1,0,-5,-3,-12,-5
1523010247183568,4,14,4,1,2,2,2,-6
1523010247183568,0,-2,0,1,-1,-2,3,1
1523010247205627,9,-2,-2,0,-3,-1,-2,-1
1523010247205627,-4,-1,-2,-2,1,6,10,-3
1523010247206629,1,-2,-4,-2,-2,0,-13,-4
1523010247206629,-7,13,4,2,0,-2,-2,-4
1523010247220666,-1,-4,-2,-2,1,-1,6,-3
1523010247220666,0,5,3,0,1,-1,-5,0
1523010247220666,3,-4,-3,-4,2,-1,-6,-1
1523010247220666,7,-7,1,0,-2,-1,-10,1
1523010247242725,-1,-2,1,2,3,-1,-1,5
1523010247242725,-5,0,0,-1,-1,2,-5,1
1523010247243728,1,2,-3,1,-4,3,-11,-4
1523010247243728,-13,-13,-3,0,-1,-1,12,5
1523010247265787,12,3,2,-2,1,8,2,-2
1523010247265787,-6,1,-1,-1,-5,6,-7,-7
1523010247266789,-3,-3,-1,-2,1,-17,-16,-1
1523010247266789,9,1,-3,3,3,4,3,0
1523010247280826,-3,0,2,-1,1,0,5,4
1523010247280826,10,-1,0,1,-1,-6,0,5
1523010247281829,-2,-20,-4,-6,-3,0,0,-2
1523010247281829,3,8,0,-1,-1,4,3,3
1523010247302885,-7,8,5,0,-1,-11,-10,-11
1523010247302885,-2,-1,1,3,1,-6,1,-9
1523010247303888,5,-4,-3,2,-1,6,-9,1
1523010247303888,11,-2,-3,-1,-2,-4,0,2
1523010247324944,-8,-5,-3,0,-2,-1,-3,3
1523010247324944,-3,-3,-4,-5,-2,-3,1,4
1523010247325947,5,-1,0,1,1,2,0,-4
1523010247325947,-6,-1,-1,-3,-1,-7,-12,-7
1523010247339984,-1,0,0,0,-2,-1,8,4
1523010247339984,-3,-3,0,0,-2,9,8,-1
1523010247340987,-7,-2,0,2,1,-10,1,4
1523010247340987,2,4,-1,1,-1,-21,-1,-1
1523010247363045,4,2,1,-1,2,13,8,-5
1523010247363045,0,-4,0,0,2,8,2,3
1523010247364048,0,0,-2,3,-1,12,2,-1
1523010247364048,-4,-1,-1,-3,-2,-5,-2,-4
1523010247385104,-8,-6,-1,2,1,-4,-4,-7
1523010247385104,1,5,1,-1,-1,-3,-4,2
1523010247386107,11,6,1,1,0,1,5,8
1523010247386107,2,3,0,1,2,8,-1,4
1523010247400144,-14,-5,-3,-1,-4,-6,-6,-9
1523010247400144,-8,2,0,1,-1,0,-3,-6
1523010247401146,-1,-8,-2,0,-2,-8,0,0
1523010247401146,-4,1,-3,0,-4,9,12,3
1523010247423205,6,-3,1,0,1,-1,4,5
1523010247423205,8,-2,-1,3,0,-11,-1,-4
1523010247423205,-10,0,1,-1,-1,-9,-11,-1
1523010247423205,7,-2,-3,-1,-1,3,0,0
1523010247445264,-5,-1,0,-1,-1,-4,-6,-5
1523010247445264,-3,-2,-3,2,0,-1,0,-1
1523010247446267,-1,4,0,-4,-1,9,-6,-2
1523010247446267,-1,-1,-2,-2,-1,1,0,2
1523010247459301,-4,-3,-2,-3,0,2,4,4
1523010247459301,3,-1,0,0,-2,-29,-19,-1
1523010247467322,-6,2,-3,-8,-6,34,5,-4
1523010247467322,-9,-4,0,-2,2,-7,-10,-11
1523010247482362,0,-2,0,0,0,-2,-2,-5
1523010247482362,2,3,0,-3,1,32,2,3
1523010247483365,-1,-3,0,0,0,-17,2,2
1523010247483365,-6,2,-1,-5,-1,-2,-1,0
1523010247513445,11,0,-2,0,0,2,5,5
1523010247513445,-2,1,-1,0,-3,-9,-6,-2
1523010247514448,-5,10,1,-3,0,3,7,-4
1523010247514448,-3,-8,0,0,-1,-5,-16,-2
1523010247519461,-1,0,-1,-4,-1,-6,-5,2
1523010247519461,2,-4,-1,5,1,2,3,-1
1523010247527482,0,-3,-2,0,-1,-6,2,1
1523010247527482,2,3,0,-4,-12,-4,-13,-2
1523010247542522,-1,-4,-2,-3,4,2,27,1
1523010247542522,1,1,-2,-1,1,25,-2,0
1523010247543525,4,-3,-1,0,-1,-2,1,4
1523010247543525,-11,-3,1,4,3,9,0,-9
1523010247565584,2,5,0,-8,-2,-8,-9,-2
1523010247565584,0,-1,-3,-7,-2,-7,2,1
1523010247565584,0,0,0,6,1,-3,0,1
1523010247565584,0,-2,-2,-3,0,-3,0,-1
1523010247579621,-12,-11,-3,1,-3,-6,-3,0
1523010247579621,12,1,-1,-1,1,-2,7,1
1523010247587643,3,7,1,0,0,-1,-4,-4
1523010247587643,-4,-5,-3,-1,1,-5,6,6
1523010247602682,5,5,0,1,-1,5,1,-6
1523010247602682,-4,-4,1,-1,-4,-5,-13,-4
1523010247603685,-2,-5,-2,-3,0,-5,1,-4
1523010247603685,0,3,-1,-1,0,12,6,-3
1523010247625744,10,3,-2,-1,0,-1,1,6
1523010247625744,1,3,-3,-4,-3,-4,6,5
1523010247632762,-4,-3,1,-2,-2,-1,8,-2
1523010247632762,2,-2,-2,-2,1,2,-9,-7
1523010247639782,-5,-5,-1,0,-2,-2,23,-1
1523010247639782,-4,-2,-1,-2,0,-1,-11,-4
1523010247647803,8,7,1,-2,-7,-2,2,1
1523010247647803,4,10,-1,1,17,-4,4,1
1523010247662842,4,-8,-2,-1,-1,0,-8,0
1523010247662842,1,-4,0,5,1,1,21,10
1523010247663845,-15,-11,-4,-1,0,-3,-5,-9
1523010247663845,4,-2,0,0,-6,-2,5,-4
1523010247684901,2,9,0,-3,0,-3,-10,-8
1523010247684901,-4,-7,-4,-1,4,9,-14,-1
1523010247685904,-1,-2,0,-3,-4,-3,-30,-3
1523010247685904,-1,3,-4,1,0,3,2,10
1523010247708965,1,-3,-3,-2,-5,-6,-13,11
1523010247708965,1,4,4,-3,5,-9,24,1
1523010247708965,0,-8,-1,-2,-1,5,-19,3
1523010247708965,3,-1,0,-2,-3,5,-3,3
1523010247723002,1,-2,0,4,-4,3,0,-10
1523010247723002,-1,2,-1,-3,-3,-5,-3,-19
1523010247724005,-1,-9,0,-3,-2,1,3,-7
1523010247724005,-10,7,3,-17,-42,-17,23,2
1523010247745061,-4,2,1,30,63,15,-16,43
1523010247745061,-6,-3,-1,1,0,8,0,70
1523010247746064,3,-4,-2,3,8,-2,12,68
1523010247746064,-2,-3,-2,0,-12,3,-19,20
1523010247768123,5,2,-3,-11,-16,-9,30,-13
1523010247768123,-1,-4,-1,-3,-7,-12,-54,-32
1523010247769125,-3,3,4,4,16,3,5,-17
1523010247769125,3,1,-2,-2,-1,1,2,-12
1523010247783162,-7,-1,0,-6,-13,-3,-30,-4
1523010247783162,7,-2,-3,2,7,0,32,25
1523010247783162,-1,-1,1,-1,-11,-4,4,14
1523010247783162,-2,-3,0,4,11,-3,-8,3
1523010247805221,2,0,1,-3,-3,-1,-3,-20
1523010247805221,2,-2,0,2,-1,-2,-21,-37
1523010247806224,-8,-2,-3,-6,-16,-5,-4,-48
1523010247806224,-1,-1,-3,5,6,-8,-11,-35
1523010247828282,0,0,0,-2,-13,1,37,-29
1523010247828282,-1,-2,1,2,10,-1,-6,-19
1523010247829285,0,-3,-1,0,8,1,-3,-19
1523010247829285,-1,2,-3,0,-2,-2,-1,-8
1523010247842320,-1,-1,2,-6,-12,-9,24,8
1523010247842320,-10,1,-1,-3,-9,-2,-24,-10
1523010247843322,-2,-7,-1,5,4,3,3,-5
1523010247843322,4,0,1,4,3,3,17,6
1523010247865381,6,3,0,-5,-9,-1,-11,10
1523010247865381,-3,-3,-3,-1,-1,4,23,-3
1523010247866384,-5,-2,-3,1,1,1,-4,-4
1523010247866384,-11,-4,-7,-2,-3,1,-1,-5
1523010247888443,-1,-4,1,2,0,2,-1,5
1523010247888443,-1,6,1,-3,-9,-5,-4,-3
1523010247889445,8,2,-1,0,1,-2,27,6
1523010247889445,-1,-5,-3,-2,2,-4,20,2
1523010247902480,4,3,-1,2,4,3,-3,-3
1523010247902480,-10,-4,-3,-5,-8,-4,10,-4
1523010247903483,-5,-2,2,-1,3,-1,-26,1
1523010247903483,3,-1,-3,0,2,0,2,-1
1523010247925541,-8,-9,-3,-3,-11,1,-16,-5
1523010247925541,7,-2,-2,-7,-2,1,11,2
1523010247926544,-4,3,-1,0,-12,-11,9,-9
1523010247926544,6,8,7,3,7,8,13,3
1523010247948602,8,6,-3,-5,-11,-3,-16,-1
1523010247948602,-16,-4,-5,-1,12,0,-8,-9
1523010247949605,-3,-7,-5,-3,-6,0,-6,-7
1523010247949605,1,-5,0,-1,2,-2,-12,-6
1523010247962640,0,1,1,1,4,0,-3,-6
1523010247962640,-2,7,0,-3,-9,-3,8,-14
1523010247963642,-1,-1,0,1,5,0,7,-5
1523010247963642,7,-1,-2,1,1,0,-6,2
1523010247985701,-5,-4,-5,-3,0,0,-8,2
1523010247985701,-10,-1,5,2,0,-1,17,9
1523010247985701,0,-1,-3,0,3,1,-4,5
1523010247985701,8,-5,-2,-3,-3,-4,-9,9
1523010248008762,-2,6,-2,-2,-4,4,-14,1
1523010248008762,2,-6,2,2,-1,-2,-6,9
1523010248008762,-8,1,-3,-1,-2,7,22,12
1523010248008762,-3,1,-2,-3,-4,-5,-13,15
1523010248022800,-4,-4,-4,1,9,-1,-5,11
1523010248022800,6,2,1,-4,3,1,-5,17
1523010248023803,-4,3,0,4,3,2,41,8
1523010248023803,-1,2,-2,-1,0,0,-31,2
1523010248045861,1,-5,-2,-2,1,1,2,6
1523010248045861,-4,-10,-5,-2,-7,0,0,0
1523010248046864,1,-1,1,-2,-3,-4,0,-2
1523010248046864,-4,12,2,0,3,2,22,-1
1523010248068923,0,1,2,-3,-8,-14,1,-6
1523010248068923,-4,-11,-1,3,-1,0,5,-3
1523010248069925,-4,-4,-7,-4,-3,-12,-22,-6
1523010248069925,3,-8,-3,1,-2,-4,-13,-9
1523010248082960,10,12,5,-1,0,4,1,6
1523010248082960,-4,0,-1,-1,-1,-3,-3,2
1523010248083962,2,3,0,-4,-1,6,9,-3
1523010248083962,-7,-10,2,-1,1,-3,5,-6
1523010248106021,3,-4,-4,-2,0,-2,8,-4
1523010248106021,8,1,-1,1,2,-4,-5,-7
1523010248113040,3,2,-1,-2,0,4,-12,-9
1523010248113040,-3,2,3,-3,0,0,7,-6
1523010248128080,-9,-13,1,3,3,3,-5,-2
1523010248128080,1,5,-1,1,-2,1,3,6
1523010248129082,12,9,0,-1,-2,-9,-13,2
1523010248129082,0,-5,-4,0,-3,5,-2,-1
1523010248143120,-14,-18,-4,-1,1,-7,0,0
1523010248143120,1,8,3,1,-3,3,-8,-2
1523010248143120,5,4,1,-2,0,1,1,7
1523010248143120,4,-1,-1,1,0,-2,-2,0
1523010248165178,-1,0,0,0,2,4,-3,-4
1523010248165178,4,-4,-3,-2,-1,-1,7,-5
1523010248166181,0,1,0,1,1,-1,-1,-1
1523010248166181,2,12,4,1,-1,-2,3,0
1523010248196261,3,1,-1,2,-2,7,0,-14
1523010248196261,-15,-5,-4,0,-1,-8,-15,-5
1523010248196261,-7,-4,-4,-2,-3,4,1,-1
1523010248196261,-4,-8,-4,-3,1,3,-9,1
1523010248203280,1,4,2,0,-2,-4,7,3
1523010248203280,5,2,1,0,2,-9,-2,-9
1523010248203280,0,0,2,1,-1,8,-10,1
1523010248203280,1,-3,-2,-2,1,-8,3,-1
1523010248225338,5,-1,-1,-2,-1,0,-2,4
1523010248225338,17,-2,-3,1,-1,2,-1,5
1523010248226341,-19,7,0,2,0,-8,-3,-2
1523010248226341,-3,-10,-1,-3,-1,1,-1,-3
1523010248248400,1,12,0,-1,-2,-3,-11,-3
1523010248248400,6,3,2,-1,-1,2,12,0
1523010248249403,3,-9,-4,-1,1,6,-7,0
1523010248249403,-1,-3,-3,-2,-1,3,3,4
1523010248271461,-5,19,6,0,-3,1,-3,-2
1523010248271461,-5,-3,-4,-3,-1,-2,1,2
1523010248271461,5,1,-2,-1,-4,-5,-1,0
1523010248271461,-21,-14,-6,0,-3,0,-3,-8
1523010248285499,-3,-11,-4,-1,2,-2,6,6
1523010248285499,-11,8,2,-2,-2,2,-11,-16
1523010248286501,-4,-5,-2,0,0,-3,1,-3
1523010248286501,8,3,-1,-2,-2,-1,-1,1
1523010248308560,-6,-7,-2,0,-1,-2,2,3
1523010248308560,9,7,2,2,0,-6,9,10
1523010248309563,1,-2,-3,-2,2,12,0,1
1523010248309563,5,4,3,2,-1,-1,-2,-1
1523010248322597,-6,-1,-3,-2,0,4,1,1
1523010248322597,1,-7,1,3,1,-6,-4,-3
1523010248323600,-10,2,2,-1,-1,-7,0,1
1523010248323600,-1,7,0,-1,0,4,10,4
1523010248345658,-4,5,2,1,-2,-6,-3,-2
1523010248345658,-7,-14,-3,-3,-2,8,8,8
1523010248345658,11,1,-4,0,-2,-5,-4,1
1523010248345658,-4,6,1,1,0,0,-3,-4
1523010248368720,-2,-9,-2,-1,-2,-2,-5,-3
1523010248368720,3,3,-1,1,1,-1,6,3
1523010248369723,4,-2,0,1,0,-3,-5,-1
1523010248369723,1,0,-2,-2,-4,-8,3,1
1523010248381754,4,-4,-2,-1,1,6,5,0
1523010248381754,-14,0,0,-1,-1,11,-3,-2
1523010248390778,-7,0,-2,0,2,-34,-10,0
1523010248390778,1,-1,-2,-1,-2,41,3,-1
1523010248404816,-6,-4,1,-2,-2,1,-8,-6
1523010248404816,6,-4,-2,-3,-2,3,-1,2
1523010248405818,-2,0,0,-1,-2,-6,-5,-5
1523010248405818,-6,4,0,-4,2,-8,0,-2
1523010248427877,4,-4,-1,-5,0,1,-2,1
1523010248427877,-4,1,-2,9,2,-16,-13,-4
1523010248428880,-3,-2,-1,1,-1,15,3,1
1523010248428880,4,-3,-3,-1,-1,-7,-2,-1
1523010248441914,-7,-1,-1,-1,-4,5,0,-6
1523010248441914,1,-2,-1,-3,-1,0,6,1
1523010248449935,0,-2,0,0,-1,-19,-4,-1
1523010248449935,-5,-3,-2,1,2,6,-4,2
1523010248464976,1,2,-1,-2,0,-7,-2,6
1523010248464976,-10,0,0,-3,-3,0,-5,-8
1523010248465979,-4,-1,-1,-1,0,12,4,1
1523010248465979,2,1,-1,-2,0,-6,-1,-1
1523010248488037,1,-9,-2,0,0,-7,-3,-3
1523010248488037,-6,8,3,-3,-1,5,0,-1
1523010248489040,9,-5,-1,-2,-1,10,7,3
1523010248489040,-1,3,-2,-3,-4,-14,-10,-5
1523010248502074,9,1,1,0,-1,3,6,5
1523010248502074,4,-10,-4,-4,-1,4,5,0
1523010248510095,0,9,1,1,0,-14,-15,-5
1523010248510095,8,-2,-3,0,0,22,11,10
1523010248525136,2,-4,-3,0,-1,0,-3,-10
1523010248525136,-14,-1,3,-4,0,2,1,-3
1523010248526138,-3,-3,-3,-3,-3,-14,1,1
1523010248526138,2,-5,-1,0,-1,-7,-4,-6
1523010248548197,-3,3,0,-1,0,-6,-3,2
1523010248548197,14,2,1,1,1,-6,0,-2
1523010248548197,4,-1,0,0,-1,16,7,-2
1523010248548197,-1,1,0,0,-1,-9,33,-5
1523010248562234,5,1,-1,-2,-1,12,-33,-1
1523010248562234,-5,-1,-3,-1,-1,-9,-1,1
1523010248570256,2,-4,-1,-1,-1,3,2,-2
1523010248570256,-5,8,2,0,1,-9,0,-8
1523010248585296,3,5,0,1,1,5,32,-14
1523010248585296,7,-7,-3,-4,-2,3,-15,-4
1523010248586298,-2,2,2,3,2,8,9,-6
1523010248586298,-1,0,0,-1,-9,-31,-24,3
1523010248608357,0,-13,-8,-9,-7,-9,34,12
1523010248608357,-2,6,4,3,8,58,-22,10
1523010248608357,12,12,2,-10,-30,-59,-77,18
1523010248608357,4,-13,6,24,52,97,-34,-1
1523010248622394,-12,-12,-2,-10,-11,-12,29,10
1523010248622394,-4,-10,-2,21,29,22,42,-15
1523010248630415,1,17,11,-3,-15,-45,8,-6
1523010248630415,3,3,-6,-24,-23,-38,87,12
1523010248645456,0,-3,-8,6,-1,-10,-34,19
1523010248645456,1,-5,2,-3,-19,-13,56,56
1523010248646459,9,6,-6,10,27,20,31,79
1523010248646459,4,-5,3,-2,-13,-23,-64,41
1523010248668517,-12,-15,-3,-1,-5,15,25,8
1523010248668517,9,11,-9,-15,-14,-23,-19,-9
1523010248675536,-14,7,8,6,12,20,20,-16
1523010248675536,-40,-14,-2,-4,-1,4,0,-20
1523010248682554,10,20,9,7,4,-3,-7,9
1523010248682554,7,3,-1,0,-9,-15,-24,15
1523010248690576,14,-5,-12,-5,3,22,4,9
1523010248690576,14,0,-5,0,-6,7,67,-6
1523010248705616,5,2,0,2,3,-10,-31,-40
1523010248705616,-10,-8,1,0,-2,-9,20,-48
1523010248705616,-3,-2,-2,0,0,22,34,-52
1523010248705616,-7,-6,-4,0,-9,-14,-11,-35
1523010248727674,4,16,2,-5,-9,-6,9,-25
1523010248727674,4,-3,-2,-3,-8,-4,-7,-17
1523010248728677,-12,-15,-1,4,3,7,-3,-21
1523010248728677,0,8,-3,2,9,0,22,1
1523010248750736,2,3,-5,-1,-4,5,-12,-6
1523010248750736,-1,-4,9,-3,-7,-14,-58,2
1523010248751739,-12,-10,-12,-6,-9,3,-27,-15
1523010248751739,6,3,-2,2,-4,-15,-19,-8
1523010248765776,-2,5,2,-3,7,4,47,32
1523010248765776,-13,-4,-8,-3,0,-7,-5,-8
1523010248765776,-1,-10,2,3,14,11,29,3
1523010248765776,3,-4,1,2,-8,-4,1,5
1523010248787834,1,10,0,4,1,-2,-43,-9
1523010248787834,1,-2,8,2,10,2,32,11
1523010248788837,1,-8,-9,-6,8,3,-29,-1
1523010248788837,-3,1,-3,-5,-7,-7,22,-2
1523010248810895,-3,-2,-1,-4,-16,-1,-34,-3
1523010248810895,4,9,-2,5,21,9,56,7
1523010248811898,5,-3,4,-3,-10,-4,4,-3
1523010248811898,-5,-12,0,-3,-5,-1,-21,4
1523010248824933,-10,-6,-3,0,4,4,-7,-16
1523010248824933,6,2,-5,-5,-13,-2,-14,10
1523010248825936,-3,-5,-4,-4,-3,2,36,-2
1523010248825936,2,6,3,1,9,-4,-32,-18
1523010248847994,-2,-3,1,0,4,-2,-23,-9
1523010248847994,-11,-7,-6,-4,-1,-5,-22,-14
1523010248848997,-1,5,-1,-3,-4,-4,-20,-7
1523010248848997,4,-6,1,-1,-4,3,4,1
1523010248871056,7,13,10,0,-6,-7,17,-1
1523010248871056,-1,-5,-2,-5,-16,-6,-22,-19
1523010248872058,-14,-8,-6,-5,0,4,-19,-9
1523010248872058,2,9,-8,1,0,1,18,-1
1523010248885093,-2,-11,8,-6,12,6,6,0
1523010248885093,3,-2,1,1,-21,-6,7,2
1523010248886096,5,12,-3,-20,-70,-6,5,8
1523010248886096,0,-10,-4,23,80,14,-19,14
1523010248908154,-4,-13,-2,-21,-35,-22,-17,2
1523010248908154,0,6,1,18,5,18,19,8
1523010248908154,-6,1,4,-1,-18,-7,-4,10
1523010248908154,-3,-3,-11,-22,17,-2,-21,3
1523010248931215,7,-4,-6,32,59,20,23,19
1523010248931215,-2,5,13,-15,-56,-13,-11,10
1523010248932218,3,7,1,5,30,1,23,15
1523010248932218,-8,-23,-5,-2,-18,2,-22,12
1523010248945253,4,-7,-9,2,-3,-7,21,14
1523010248945253,1,21,7,16,27,3,-47,-4
1523010248946256,1,-12,-1,5,15,2,2,12
1523010248946256,2,18,2,-15,-49,-17,9,-3
1523010248967311,-6,1,-2,-14,-13,2,-7,-9
1523010248967311,-9,-26,-10,3,11,-4,-10,-4
1523010248968315,2,-6,-1,-15,-13,-8,7,-7
1523010248968315,9,-6,-10,4,3,8,21,-4
1523010248991375,-10,18,17,16,-4,-5,-12,-10
1523010248991375,0,9,-2,-8,20,-3,34,0
1523010248991375,-9,-6,-5,12,9,8,-52,-19
1523010248991375,5,20,11,-15,-24,-11,-10,2
1523010249005413,8,-4,-7,2,6,3,-1,-3
1523010249005413,-6,-8,-2,-4,-7,-6,8,0
1523010249006416,5,-6,-5,-4,4,0,-2,-3
1523010249006416,5,-1,0,-3,-13,-10,-19,0
1523010249027471,-14,-4,-1,-3,-1,0,20,-3
1523010249027471,-1,6,0,-12,-4,0,-54,-10
1523010249028474,7,2,-1,3,2,-1,-8,-3
1523010249028474,-6,2,1,1,-5,-3,10,-3
1523010249058554,-5,-9,-3,0,5,-14,-1,-12
1523010249058554,3,-10,-3,-4,-4,-1,-3,-2
1523010249059557,-1,8,5,8,24,6,14,2
1523010249059557,-1,-3,1,8,0,6,4,4
1523010249065573,-6,-10,-6,-2,-2,-5,-43,5
1523010249065573,7,12,-1,-15,-15,-9,26,2
1523010249066576,0,-7,0,5,-14,-2,6,-6
1523010249066576,-11,-8,0,16,47,5,6,4
1523010249087631,-1,7,2,3,-9,12,2,-1
1523010249087631,8,1,-1,4,31,-10,12,3
1523010249088635,5,-9,-2,-14,-5,-3,-32,7
1523010249088635,3,18,4,4,-12,7,3,2
1523010249110693,-9,-5,0,3,4,12,40,-7
1523010249110693,-4,1,-1,-7,-10,-25,-36,-9
1523010249111696,2,-1,-3,-6,12,25,23,4
1523010249111696,0,-7,-1,-7,-8,-7,-3,-2
1523010249125733,1,0,-3,-23,-40,10,-25,1
1523010249125733,0,1,2,49,49,13,27,1
1523010249125733,-6,-2,0,-11,-24,-12,-3,-1
1523010249125733,3,3,2,10,10,3,-3,0
1523010249148794,5,-6,-1,-8,-3,-4,8,-4
1523010249148794,-8,-7,-6,-16,-16,0,-5,-4
1523010249148794,-2,10,3,8,20,-1,-1,-2
1523010249148794,-7,-7,0,-10,-2,2,-5,-5
1523010249170853,10,-4,-4,-6,-5,-9,1,8
1523010249170853,3,-4,-2,-5,1,7,3,5
1523010249171856,-11,4,-2,8,6,-2,6,-12
1523010249171856,-6,-10,-2,-13,-20,-6,-5,0
1523010249185893,-3,10,1,2,10,-3,1,5
1523010249185893,-3,10,0,-13,-5,-17,-7,1
1523010249186896,1,-1,0,16,19,11,8,4
1523010249186896,2,-13,-4,-37,-20,-7,-12,-7
1523010249207951,2,-3,0,31,22,-3,-12,1
1523010249207951,-1,-3,0,-8,-41,4,2,1
1523010249208954,-5,-7,-1,35,33,-14,-9,-4
1523010249208954,0,7,1,-1,-7,19,-4,-3
1523010249231013,0,-6,2,-3,10,1,7,5
1523010249231013,2,-4,-4,-19,-15,11,11,4
1523010249232016,4,9,2,-11,-16,-20,-11,-3
1523010249232016,-16,-12,-2,14,2,-3,4,-9
1523010249245050,5,6,0,-2,-3,-2,3,1
1523010249245050,-6,-15,-3,1,7,12,-1,-1
1523010249246053,7,11,1,-10,-13,-2,4,2
1523010249246053,-2,6,3,5,6,-3,-5,-1
1523010249268112,-4,-6,-5,-21,-22,-3,3,4
1523010249268112,-1,-8,0,19,29,3,-16,-18
1523010249269114,-10,4,3,-1,-11,4,3,-2
1523010249269114,7,12,1,-4,6,-7,-4,0
1523010249291173,-3,-4,-5,7,-5,-7,-1,-2
1523010249291173,10,4,-3,-16,2,11,6,2
1523010249292176,1,-7,-1,12,-1,1,-2,-1
1523010249292176,-12,-8,-5,-17,-10,-2,12,1
1523010249304208,7,2,4,19,10,3,-1,6
1523010249304208,-11,-3,-1,0,9,-15,0,-5
1523010249313231,4,-3,-4,-13,-8,18,-1,-10
1523010249313231,5,-1,-1,-12,-10,-7,2,4
1523010249328271,-7,-3,-2,8,17,0,-3,0
1523010249328271,0,4,1,-1,-8,-4,-1,4
1523010249328271,-4,1,0,-18,-11,-3,1,3
1523010249328271,2,7,0,14,0,-4,-2,-3
1523010249351333,2,-7,-7,-29,-15,4,2,0
1523010249351333,-3,7,6,26,5,4,-2,-5
1523010249351333,1,-13,-5,-40,-7,-16,2,5
1523010249351333,15,13,-1,22,33,1,-4,6
1523010249364367,-8,0,-2,8,4,-14,-7,-10
1523010249364367,-2,-27,-9,-25,-8,7,13,12
1523010249372389,-15,15,-5,-59,-71,-11,3,5
1523010249372389,15,4,7,65,83,13,-19,1
1523010249387429,-10,-1,-2,-8,8,12,20,-7
1523010249387429,-1,-3,-4,-35,-7,-1,38,-9
1523010249388432,1,-19,1,44,16,16,-23,0
1523010249388432,-22,-16,-3,-36,-33,-7,-1,-11
1523010249410490,3,-1,-2,-6,-10,-7,-7,3
1523010249410490,6,18,8,22,10,9,-1,2
1523010249411493,13,13,-1,-14,-2,-9,11,2
1523010249411493,3,9,2,-3,-14,-5,0,4
1523010249425530,2,-4,5,11,30,3,0,-3
1523010249425530,7,11,-5,-4,-12,-3,-5,5
1523010249432549,1,-14,-1,15,15,1,3,-1
1523010249432549,9,2,3,-3,-22,-4,-5,1
1523010249447589,-4,1,-3,-17,-25,-7,-1,-2
1523010249447589,-27,3,4,11,-5,1,-9,-10
1523010249448592,1,-7,-1,10,19,0,-2,4
1523010249448592,-3,-5,-9,3,4,-1,3,-1
1523010249470650,10,2,-3,-31,-49,-16,-9,6
1523010249470650,3,0,1,2,3,6,11,5
1523010249471653,0,4,-2,20,50,9,-3,-8
1523010249471653,-10,-13,-5,-21,-45,-10,-17,12
1523010249484688,2,0,0,6,22,2,3,19
1523010249484688,2,0,-3,-9,-19,-10,-13,22
1523010249492709,-1,3,0,8,2,-2,-12,-1
1523010249492709,8,4,4,-1,7,0,7,-2
1523010249507749,-4,4,3,10,6,-1,-23,-11
1523010249507749,-8,-16,-7,2,2,-1,14,7
1523010249508752,2,9,2,-8,-19,-4,7,11
1523010249508752,1,-8,-2,-6,-2,-2,-2,0
1523010249530810,-15,-4,-2,4,-2,4,-5,-18
1523010249530810,2,11,10,2,20,-5,-4,-21
1523010249531813,2,-2,-4,2,-11,-4,-5,-21
1523010249531813,8,-11,-9,-4,2,4,-12,-11
1523010249544848,2,-4,0,0,11,11,6,-12
1523010249544848,1,-2,-4,2,-7,-7,-9,-14
1523010249552869,-1,3,1,0,0,9,54,1
1523010249552869,-7,-4,-3,-3,-7,2,-48,-10
1523010249567909,-1,-2,-2,-2,3,-2,-1,2
1523010249567909,3,3,6,6,10,2,-7,2
1523010249568912,1,-1,0,0,-7,-7,-9,1
1523010249568912,0,2,-4,-7,-19,-6,44,3
1523010249589968,8,-3,-2,-4,-35,-8,-43,3
1523010249589968,-5,-7,-4,10,54,10,-18,-2
1523010249590970,-14,-3,-3,-5,-24,-4,0,-5
1523010249590970,-7,0,-3,4,32,1,-10,-3
1523010249605007,1,4,0,0,-19,-1,24,2
1523010249605007,4,-5,0,-2,-15,-7,10,3
1523010249613029,14,5,1,-3,2,1,-10,7
1523010249613029,-15,8,5,3,-8,-1,6,-8
1523010249628069,-5,-9,-2,3,10,-3,4,-1
1523010249628069,-6,-9,-4,-6,-16,-3,-6,-4
1523010249629072,11,11,0,7,27,7,10,6
1523010249629072,-5,8,2,-6,-34,-4,-2,-3
1523010249650127,-4,-11,-2,12,57,10,11,2
1523010249650127,-8,-13,-4,-8,-25,-5,-5,-7
1523010249651131,4,2,3,1,8,-2,-17,-1
1523010249651131,7,9,0,1,-3,-9,-2,4
1523010249673189,6,5,2,-2,-7,5,13,2
1523010249673189,-7,-6,-3,-8,-18,-6,2,-7
1523010249674192,-8,-4,-4,-1,-3,-1,-12,-3
1523010249674192,5,-2,0,3,18,3,12,6
1523010249688229,2,7,-3,-3,1,-8,15,5
1523010249688229,3,-10,0,2,5,13,-16,-4
1523010249688229,-9,0,2,-1,-20,-11,-19,-3
1523010249688229,-1,-9,-2,1,29,14,16,0
1523010249710287,4,6,1,0,-5,-4,-6,-4
1523010249710287,10,5,-2,-2,-12,-3,7,8
1523010249711290,-10,-10,-4,-6,-9,-7,-2,-8
1523010249711290,3,5,4,-1,-15,2,1,-3
1523010249733349,0,4,3,-1,6,-2,-8,-8
1523010249733349,-4,5,-2,8,23,3,1,-8
1523010249734352,-5,-16,-4,-2,6,-1,-2,-5
1523010249734352,7,1,-1,-10,-24,-4,11,-2
1523010249747386,5,-1,-1,2,-2,5,-3,1
1523010249747386,-17,-6,-2,-5,-3,-5,-27,-12
1523010249748389,1,7,-3,-3,-1,-3,19,6
1523010249748389,-3,-7,0,3,16,-5,8,4
1523010249770447,-2,3,2,-1,-5,3,-5,-1
1523010249770447,-6,1,1,1,-1,-1,-4,7
1523010249778469,-1,5,5,0,-8,2,1,-1
1523010249778469,2,-3,-3,-5,-20,-5,0,1
1523010249793509,3,-4,-4,-2,23,-1,-21,1
1523010249793509,12,3,-1,0,-3,5,-1,13
1523010249794511,-1,6,-3,-3,-9,-10,-13,0
1523010249794511,-7,-15,-5,-5,-10,-1,-1,6
1523010249807546,-4,1,1,7,15,2,6,2
1523010249807546,3,-2,-1,-5,-13,-1,8,1
1523010249808549,5,1,-1,2,11,3,9,4
1523010249808549,3,5,-1,-4,-9,-5,-16,-3
1523010249830607,-10,-11,-2,-9,-25,-1,14,-1
1523010249830607,2,1,3,-1,-7,-5,-15,-2
1523010249830607,-2,-5,-2,4,9,3,-4,-5
1523010249830607,-5,-4,-2,1,-6,-8,6,-4
1523010249860687,-1,3,-3,1,4,5,8,-3
1523010249860687,5,6,1,2,17,2,9,3
1523010249861690,0,0,-3,0,-4,8,2,0
1523010249861690,1,-6,-2,-2,0,1,-13,-5
1523010249867706,-11,-2,1,-1,-6,-9,-8,-9
1523010249867706,8,4,-3,-4,-10,-2,-7,-4
1523010249868709,-7,1,-1,-6,-12,-4,2,-3
1523010249868709,-6,-6,0,8,13,-7,9,-5
1523010249890767,0,2,1,-2,6,15,19,11
1523010249890767,4,2,1,9,1,-8,15,2
1523010249890767,-2,-4,-6,-1,2,0,-6,-2
1523010249890767,5,9,2,-5,-5,-4,0,2
1523010249913829,-8,-4,-1,-9,-3,-3,0,-4
1523010249913829,-4,-1,-1,5,7,2,-14,-1
1523010249913829,7,-1,0,14,32,-2,31,6
1523010249913829,3,0,1,-3,-5,6,-15,3
1523010249927866,0,-2,-2,-5,-13,-6,-4,-7
1523010249927866,-7,-3,-4,-8,1,-3,0,-12
1523010249928869,-6,-2,-3,-6,-10,-4,-9,-4
1523010249928869,-1,0,-3,2,10,5,4,0
1523010249949925,2,1,5,3,-7,-2,-4,5
1523010249949925,3,0,1,0,0,1,6,10
1523010249950928,-1,2,-1,-2,-7,-1,-11,-11
1523010249950928,-2,8,-1,-2,2,2,0,-5
1523010249973989,5,15,1,1,-3,-7,-4,0
1523010249973989,-16,-8,-1,-2,-7,-1,-3,3
1523010249974992,1,-8,-3,-1,1,-2,1,5
1523010249974992,3,-15,-1,4,1,2,-2,1
1523010249988026,-9,-1,-4,-2,-4,-3,-4,-10
1523010249988026,7,13,3,0,2,3,4,1
1523010249989029,0,-4,-2,-4,-5,2,-4,3
1523010249989029,1,1,1,1,1,2,1,3
1523010250010085,-1,-14,-2,3,-3,-9,0,0
1523010250010085,1,0,-4,-1,-2,-1,-1,-1
1523010250011087,-2,-2,-3,-7,0,9,-5,-2
1523010250011087,-4,-2,0,0,-4,-8,-11,0
1523010250033146,10,1,0,1,3,7,10,12
1523010250033146,-5,-8,-3,-3,-2,-24,-9,-9
1523010250034149,-3,5,3,3,-3,14,-4,-12
1523010250034149,-8,3,1,-1,0,-6,-4,0
1523010250048186,-1,-5,-1,2,-2,6,5,2
1523010250048186,10,6,2,1,1,-2,1,9
1523010250048186,-8,-13,-4,-3,-1,-11,9,-1
1523010250048186,-4,-2,-2,-1,1,12,-12,-10
1523010250070245,5,2,-1,-3,-5,-8,-8,-3
1523010250070245,-8,-9,0,-2,0,8,7,-2
1523010250071248,2,6,1,4,2,1,1,6
1523010250071248,4,-1,2,2,2,7,7,0
1523010250094309,16,9,-1,-1,-1,6,-8,0
1523010250094309,-9,-10,-3,-3,-2,-2,4,-5
1523010250095311,-12,-13,-2,0,-4,-4,-4,1
1523010250095311,-2,1,-3,-3,1,-8,7,-1
1523010250107343,2,-1,1,2,2,2,-3,5
1523010250107343,11,11,-2,-2,-1,6,7,10
1523010250108346,-5,0,1,0,-1,-7,-8,-11
1523010250108346,-1,-3,-1,-2,0,1,1,2
1523010250130405,-13,-11,-3,-9,-7,0,-13,-15
1523010250130405,-1,-6,0,11,17,1,12,1
1523010250131407,10,11,1,-1,-1,-6,-1,12
1523010250131407,0,0,-1,-11,-5,0,3,3
1523010250153466,-2,4,0,13,4,-4,-3,-4
1523010250153466,0,0,-2,-8,-2,0,-5,-6
1523010250154469,-5,-7,-2,-9,-8,-3,-2,4
1523010250154469,10,2,-1,15,11,-1,3,5
1523010250167504,-10,-2,-2,-7,-3,-2,2,2
1523010250167504,-14,-8,-5,-4,-10,2,-8,-8
1523010250168506,3,1,1,3,2,-14,11,6
1523010250168506,-10,-2,-3,-5,-5,14,-2,-10
1523010250190564,5,-1,-1,-2,-3,-15,-2,1
1523010250190564,8,1,1,2,-3,5,2,6
1523010250191567,2,-2,-2,-7,-18,0,-2,-1
1523010250191567,-6,-1,0,1,15,1,-1,-1
1523010250213626,-8,-3,-3,4,-1,0,3,-10
1523010250213626,1,-1,0,-4,-3,0,-2,-2
1523010250214629,0,-11,-5,-2,2,6,-3,1
1523010250214629,5,4,-1,-5,-3,-7,-1,4
1523010250235685,0,6,6,-3,0,2,-2,-4
1523010250235685,0,6,2,1,-3,-2,1,-1
1523010250236688,5,3,-2,1,1,-1,6,-2
1523010250236688,-4,-10,-4,-2,-6,4,-7,-1
1523010250250725,5,-5,-4,-6,-1,-1,2,2
1523010250250725,-3,-1,-1,7,0,-4,-5,-4
1523010250250725,2,2,0,3,3,4,5,-2
1523010250250725,-10,-4,-2,-3,-2,-5,1,-5
1523010250273786,1,0,-1,-3,-3,-2,0,3
1523010250273786,2,0,-2,-4,-2,-1,0,6
1523010250274789,2,1,-1,-3,0,1,-11,2
1523010250274789,1,0,-2,6,5,-7,5,1
1523010250286821,2,-2,-1,-2,-6,1,-4,2
1523010250286821,-8,-4,1,-2,0,-5,3,5
1523010250295845,-2,5,-2,1,3,-1,10,-9
1523010250295845,7,-2,0,-2,-7,-8,-27,-1
1523010250309882,2,-1,-2,1,2,7,-2,-8
1523010250309882,-2,-6,-1,-4,-4,2,-2,-14
1523010250310885,-6,3,-2,-6,-7,8,-4,-11
1523010250310885,1,3,2,-2,-1,0,6,-5
1523010250333946,-1,-5,-3,6,3,3,6,-2
1523010250333946,-1,-1,-2,-5,-6,-2,-6,-10
1523010250333946,3,-2,0,2,2,-1,6,-3
1523010250333946,1,2,-1,0,-2,2,2,-2
1523010250346981,-7,-2,-1,-3,-1,-2,-4,4
1523010250346981,4,-2,-1,1,-2,1,4,17
1523010250355002,3,5,6,2,1,-2,0,18
1523010250355002,-3,-1,-2,2,4,-1,2,6
1523010250370042,0,-3,-4,-2,-3,-5,3,1
1523010250370042,-5,-1,-2,1,2,0,0,-11
1523010250371045,-6,1,0,-1,-3,-3,-2,-8
1523010250371045,0,3,3,-3,-18,-2,-1,1
1523010250393103,-6,-4,-3,2,15,1,-4,24
1523010250393103,-3,-6,-3,1,-4,0,3,38
1523010250394106,1,7,3,-1,-3,-4,-6,65
1523010250394106,-4,0,-2,-6,-5,7,-2,63
1523010250407140,2,0,2,1,0,-4,2,35
1523010250407140,3,4,0,1,1,3,-1,11
1523010250415162,0,-3,-3,-1,1,-2,-10,-23
1523010250415162,0,-2,0,-2,1,-4,5,-26
1523010250430202,-3,1,0,-2,-7,0,-11,-18
1523010250430202,-7,-2,-1,-4,-7,-4,-11,-23
1523010250431205,1,-2,-4,6,12,1,4,-24
1523010250431205,-1,1,-2,-2,-2,-4,13,-20
1523010250453263,5,-1,0,-6,-7,1,-14,16
1523010250453263,-2,-2,2,-2,-8,-3,19,55
1523010250454266,-1,0,-2,4,15,-2,-36,37
1523010250454266,3,-1,-2,1,9,-1,1,-1
1523010250467301,-3,-1,0,-1,-2,-3,5,-43
1523010250467301,1,2,1,-1,-3,0,1,-63
1523010250475322,-1,-2,-3,-2,-11,-1,6,-54
1523010250475322,-2,0,-1,-1,-3,0,-6,-43
1523010250490362,-1,-3,3,0,0,0,4,-35
1523010250490362,-2,1,-2,2,2,2,-2,-32
1523010250497381,4,2,-2,-1,-5,-4,6,-19
1523010250497381,-4,-2,1,-1,-3,-5,-5,-17
1523010250513423,-3,0,0,-3,-8,1,0,-5
1523010250513423,-3,-1,-1,6,13,3,-2,-11
1523010250514426,-1,-6,-3,-3,-1,-6,2,-2
1523010250514426,5,1,1,-2,-3,0,-6,6
1523010250527461,-9,-2,0,-2,-9,-5,-5,-2
1523010250527461,-5,-1,-4,-4,24,1,-11,-5
1523010250535482,0,1,1,4,5,9,26,0
1523010250535482,-3,-5,-2,-2,-9,3,-22,5
1523010250550522,1,-2,0,0,0,-1,-2,2
1523010250550522,1,0,2,1,-10,-3,-4,3
1523010250551525,3,-1,-2,-4,-6,1,1,2
1523010250551525,-7,-1,-1,0,5,1,6,5
1523010250573583,-6,-7,-4,-3,1,-3,4,2
1523010250573583,7,0,0,1,-5,-1,-3,5
1523010250574586,-7,-7,-7,-5,-5,1,-5,3
1523010250574586,8,9,5,4,0,-3,5,5
1523010250587620,2,4,-1,1,3,-2,-2,7
1523010250587620,-7,-7,-5,-3,-6,0,3,-3
1523010250595642,3,2,-2,-5,-6,-2,-6,8
1523010250595642,-6,-9,-4,-1,2,-3,4,6
1523010250610682,3,-1,1,-1,1,1,11,7
1523010250610682,4,4,1,3,6,6,-10,8
1523010250610682,11,2,-1,-2,-7,-7,-11,5
1523010250610682,-14,-5,-4,2,13,2,8,1
1523010250633743,-7,1,0,-2,-2,-3,-1,1
1523010250633743,2,4,1,1,-4,-1,18,4
1523010250634746,3,2,0,-3,-4,4,-43,-3
1523010250634746,11,4,1,-2,-6,-1,3,8
1523010250655802,-10,-7,-3,0,0,-2,-1,-1
1523010250655802,-1,-10,-6,-2,-2,-1,-12,6
1523010250656805,-4,3,3,-1,-1,-5,10,1
1523010250656805,6,0,-1,-1,-3,3,13,7
1523010250670842,2,-1,2,1,4,0,-6,7
1523010250670842,-1,-7,-1,-2,-7,-4,10,8
1523010250670842,-3,-6,-3,1,-1,-2,7,5
1523010250670842,-8,9,0,-1,-5,4,-9,3
1523010250693904,4,1,-4,-5,-4,-6,2,0
1523010250693904,-5,-2,-2,0,0,0,16,2
1523010250693904,2,0,-2,0,2,-9,-13,3
1523010250693904,-1,-10,-7,-4,-3,-2,-16,-8
1523010250715962,-3,-2,1,0,0,2,17,-3
1523010250715962,9,18,7,1,-3,-11,-2,2
1523010250716965,1,-7,-5,-5,-2,25,-17,-4
1523010250716965,-12,0,0,1,-1,-8,49,0
1523010250729999,-1,0,-4,-2,-3,-2,-9,-6
1523010250729999,-2,10,2,-1,-1,-4,-7,-9
1523010250731002,5,14,5,0,-1,-7,-5,-5
1523010250731002,0,-12,-8,-4,-2,5,23,-2
1523010250753061,-5,-14,-2,0,0,3,-21,-10
1523010250753061,-2,3,-1,-2,-2,-11,-10,0
1523010250754063,1,-3,3,-1,-2,10,19,2
1523010250754063,2,3,5,2,1,-6,-11,-2
1523010250776122,5,22,3,2,0,-1,8,7
1523010250776122,0,-18,-8,-2,-5,-4,-10,-2
1523010250777125,-6,-11,-7,-2,1,3,10,0
1523010250777125,3,22,7,-4,-3,2,24,-1
1523010250790159,3,6,3,2,1,-7,-28,-8
1523010250790159,5,2,-2,-3,-2,8,2,-3
1523010250791162,-7,-11,1,1,-1,-10,12,-2
1523010250791162,0,-8,-4,-1,-1,1,-15,-4
1523010250813221,-1,0,0,0,-2,-6,4,1
1523010250813221,1,-1,-3,-2,-2,1,-3,2
1523010250813221,-1,2,1,0,2,-2,14,0
1523010250813221,4,0,3,-1,-1,0,-11,5
1523010250836282,7,-4,-3,1,2,-13,-5,6
1523010250836282,-18,-8,-4,-1,1,12,0,-13
1523010250837285,-10,1,4,-1,-3,-21,4,-9
1523010250837285,8,5,-1,1,1,-5,-24,-2
1523010250850319,3,-4,-1,-1,2,10,10,7
1523010250850319,-1,1,0,0,-2,-3,4,6
1523010250851322,-1,-5,-5,-1,-1,10,-7,-2
1523010250851322,-8,-1,-1,-1,0,-19,-8,-4
1523010250872378,1,1,-2,-2,-3,32,5,0
1523010250872378,4,4,2,0,1,-3,-6,1
1523010250873381,3,0,0,0,0,-5,-2,0
1523010250873381,6,-13,-2,-3,0,-3,-9,3
1523010250896442,-4,0,0,-2,-2,-2,-1,-1
1523010250896442,6,4,-2,-2,-1,8,-2,0
1523010250896442,-7,-6,-1,-1,0,2,-1,-3
1523010250896442,1,-1,0,1,-2,-1,0,-1
1523010250910479,-7,-4,-1,0,-1,-4,0,-2
1523010250910479,3,3,0,0,-1,-3,-2,-4
1523010250911482,-1,-5,-1,0,2,-9,0,-1
1523010250911482,-5,6,1,0,-2,7,-8,1
1523010250932538,-3,-2,0,-1,-1,-13,0,-1
1523010250932538,1,-10,-3,-3,1,4,-2,-2
1523010250933541,-1,10,1,-1,-2,-5,11,-6
1523010250933541,0,-3,0,-1,0,-1,-16,-1
1523010250955599,0,-3,-1,2,-1,-2,7,0
1523010250955599,5,-2,-4,1,-2,-3,-6,2
1523010250956602,0,-2,-1,-1,-1,-4,-5,-4
1523010250956602,-4,-5,0,1,1,2,4,-1
1523010250970639,-4,2,-3,-1,-3,-12,-2,-6
1523010250970639,-7,-1,-1,-2,-1,-2,0,-4
1523010250970639,5,2,1,0,1,6,0,11
1523010250970639,-6,-6,-3,-1,-2,-1,-5,-4
1523010250992698,-4,-7,-4,-2,-1,-2,1,2
1523010250992698,-4,7,1,1,-4,-17,-7,-10
1523010250993701,-6,-8,-3,-1,-1,18,2,1
1523010250993701,-2,-12,-4,-2,-1,1,-4,-7
1523010251017765,-4,5,0,-1,0,-2,4,0
1523010251017765,1,6,3,0,1,1,0,3
1523010251018767,-2,-1,-2,1,2,-13,-9,1
1523010251018767,3,-4,-1,-1,2,10,7,11
1523010251030799,-9,-11,-4,-3,-2,9,-6,-14
1523010251030799,6,2,0,0,-1,-2,3,2
1523010251030799,-8,-5,-2,-3,0,1,-1,1
1523010251030799,9,4,-1,2,-1,4,2,3
1523010251052858,-1,-2,1,1,0,0,-3,-3
1523010251052858,-6,-9,-2,-1,-2,-13,8,2
1523010251053861,5,14,2,-3,0,-2,-4,4
1523010251053861,6,-4,-1,-1,-5,-10,-6,-4
1523010251075919,10,7,3,0,2,12,3,7
1523010251075919,-22,-17,-5,-3,-1,-2,-3,-1
1523010251076922,-3,7,-2,0,-4,-1,4,-7
1523010251076922,-4,-3,-1,-1,1,-4,-1,0
1523010251089957,10,5,3,2,-1,-2,0,2
1523010251089957,7,8,-1,-1,-1,3,3,6
1523010251097978,4,-4,-2,0,-1,-6,-18,1
1523010251097978,-9,-2,0,-1,0,3,7,-4
1523010251121039,-2,-6,-2,-1,0,2,8,2
1523010251121039,1,2,-1,-1,0,4,-4,-1
1523010251122042,2,1,2,1,0,5,6,2
1523010251122042,5,3,-2,-2,-4,-20,-13,-2
1523010251136079,-10,-6,-2,-2,-1,1,-5,-3
1523010251136079,-1,2,0,-1,0,2,1,-2
1523010251137082,8,0,1,1,1,-17,1,1
1523010251137082,-13,-1,0,-1,-3,19,-1,-8
1523010251150116,1,-2,-2,-3,0,5,-1,-1
1523010251150116,3,1,0,-1,0,0,9,2
1523010251151120,-2,-12,-1,-2,-1,11,2,-4
1523010251151120,3,4,1,-3,1,-3,-2,-2
1523010251173178,11,16,2,1,-1,-11,-1,0
1523010251173178,-3,-8,-2,-2,1,8,1,3
1523010251173178,-11,-8,-3,-4,-1,4,-3,-10
1523010251173178,-5,-6,-2,-2,-2,-6,-1,0
1523010251196239,1,-3,-1,-2,-3,4,1,-1
1523010251196239,15,3,-1,1,1,-2,0,2
1523010251197242,-7,-8,0,1,2,-3,-5,-1
1523010251197242,-7,13,3,0,0,5,0,-5
1523010251209274,1,-5,-3,-1,-1,-5,0,-2
1523010251209274,0,4,0,2,0,-4,-8,-5
1523010251218298,2,-3,-4,0,1,-8,4,6
1523010251218298,-9,-4,-2,0,-2,11,-7,-1
1523010251233338,1,-4,-2,-2,-2,-5,-1,3
1523010251233338,-1,0,-1,-1,-2,0,-3,1
1523010251233338,3,5,-1,-3,-2,0,3,-1
1523010251233338,14,4,-1,0,1,-1,11,5
1523010251256399,-4,-2,1,0,-2,-16,-35,-17
1523010251256399,-1,-4,-3,-2,-2,10,15,-20
1523010251256399,2,3,-2,1,-3,-6,-21,-21
1523010251256399,-3,-5,-1,-1,-1,2,0,-8
1523010251269434,2,-3,1,1,2,-3,27,1
1523010251269434,1,4,0,-3,-2,-2,-22,-3
1523010251285476,-4,0,-1,-2,-2,4,3,-9
1523010251285476,4,-3,-3,-1,0,-5,1,-8
1523010251292495,0,0,1,0,0,1,-2,5
1523010251292495,3,-2,0,2,-1,0,-2,19
1523010251293498,4,2,-3,0,-3,0,9,19
1523010251293498,-10,-7,-2,-2,-1,-2,-7,3
1523010251315556,-6,-6,1,-1,-2,1,6,5
1523010251315556,-3,1,-1,1,0,0,5,6
1523010251316559,2,0,0,0,-1,-5,-6,10
1523010251316559,0,-3,-4,1,-3,-7,-6,32
1523010251329594,-2,-6,-3,-2,1,2,-6,48
1523010251329594,1,0,3,1,1,3,-2,63
1523010251337615,1,3,-1,-1,-1,0,13,39
1523010251337615,-1,3,1,0,0,-5,-16,9
1523010251352655,-3,-4,-1,2,2,3,-1,8
1523010251352655,-12,-4,-4,-2,-1,4,4,-17
1523010251353658,-1,-1,-1,-1,-1,-4,0,-8
1523010251353658,6,1,0,-1,0,-8,0,-18
