timestamp,emg1,emg2,emg3,emg4,emg5,emg6,emg7,emg8
1522235821276756,-62,15,6,4,-1,5,-3,-20
1522235821276756,107,99,15,17,8,-2,5,14
1522235821277759,-63,-82,-18,-7,-3,4,4,-17
1522235821277759,84,97,26,0,7,8,29,65
1522235821278767,-24,-51,-29,-8,-9,3,14,-57
1522235821278767,14,28,-7,-3,-8,-3,-28,-1
1522235821281770,-59,75,9,1,-8,-35,9,-10
1522235821281770,87,20,1,0,22,-14,-1,14
1522235821288788,64,-93,-11,-6,-11,24,-26,6
1522235821288788,-94,-30,-5,4,14,-20,-21,-38
1522235821300820,51,-31,6,5,11,36,8,39
1522235821300820,-10,24,-3,-8,-12,-2,-6,0
1522235821303828,83,102,22,9,13,6,33,31
1522235821303828,-108,-99,-17,-4,-10,24,49,-22
1522235821320878,24,51,13,6,3,5,-27,14
1522235821320878,10,24,-2,-3,-1,-13,5,19
1522235821328902,-71,19,17,6,11,-1,-16,-14
1522235821328902,81,-46,-15,-6,-32,-3,-2,-18
1522235821350954,24,47,2,1,28,-36,-48,-10
1522235821350954,-100,59,4,-7,-15,0,49,-4
1522235821351957,-70,-87,-5,3,19,10,-8,-3
1522235821351957,47,113,10,0,1,41,-2,10
1522235821363989,18,0,-3,0,-5,-12,30,5
1522235821363989,-6,-57,-16,-11,-12,-11,13,-26
1522235821405097,107,62,12,10,-4,-59,-41,14
1522235821405097,68,-9,-3,-5,4,19,16,29
1522235821406100,-91,66,1,-11,-12,-12,2,-14
1522235821406100,68,-63,4,10,-16,-22,4,19
1522235821409108,89,-21,12,10,26,56,58,89
1522235821409108,-110,14,-37,-19,-34,-57,18,-71
1522235821410111,127,-2,9,7,31,-7,-37,61
1522235821410111,-59,36,14,12,-2,11,-15,-19
1522235821418132,-41,-56,-19,-15,-10,-9,-13,-2
1522235821418132,46,63,27,10,5,2,21,31
1522235821424148,-63,22,-13,-9,-13,15,16,-69
1522235821424148,75,58,-18,-4,1,-27,-19,-4
1522235821440191,99,2,16,7,5,53,56,59
1522235821440191,13,-59,-23,-20,-14,23,-21,-24
1522235821446207,59,84,2,4,0,9,-65,-10
1522235821446207,-100,-75,-21,-7,-6,-54,-19,-10
1522235821455230,-68,16,6,-5,0,-15,6,-23
1522235821455230,127,83,26,13,24,25,-9,54
1522235821477289,-52,-106,-25,-8,-26,-29,-16,-14
1522235821477289,52,81,9,2,-2,13,-9,10
1522235821479294,-102,-13,-15,-8,5,2,-14,-62
1522235821479294,-101,-51,-2,0,14,-22,-24,-14
1522235821491326,78,29,23,5,1,-13,80,36
1522235821491326,63,-83,4,2,5,3,5,32
1522235821500350,-111,35,-7,-1,-16,-12,-17,-36
1522235821500350,93,33,6,2,9,33,-28,-22
1522235821515390,64,-15,-15,-5,-5,-31,9,-2
1522235821515390,105,82,19,6,0,77,55,29
1522235821516393,37,-48,-15,-6,-2,-13,-13,-37
1522235821516393,71,75,26,7,7,47,56,86
1522235821538452,-116,-16,-26,-16,-7,-2,-81,-53
1522235821538452,-1,31,-4,4,0,-1,28,-8
1522235821539454,62,104,9,1,-9,4,-4,15
1522235821539454,-28,6,-2,-3,-6,-25,-6,10
1522235821551487,91,18,14,3,16,22,46,47
1522235821551487,-29,24,7,1,-7,29,-6,4
1522235821560510,47,-14,9,1,-11,-16,-39,-10
1522235821560510,3,63,1,-2,20,12,2,26
1522235821575550,-54,-16,-11,-1,4,11,46,-30
1522235821575550,-3,-18,-14,-2,-1,-11,-25,-21
1522235821576553,-15,-34,8,4,2,-38,12,10
1522235821576553,122,35,5,-4,-19,-18,23,17
1522235821597609,-125,-122,-6,5,-2,-1,-42,-21
1522235821597609,47,68,-8,-13,-1,-20,-25,-31
1522235821599614,15,2,-5,-3,5,15,0,3
1522235821599614,-81,-35,1,3,-15,-62,-10,-57
1522235821611646,94,-79,3,-1,-1,1,32,48
1522235821611646,-21,49,5,4,30,-39,21,-14
1522235821620670,-22,-30,-18,-1,-7,75,38,-7
1522235821620670,34,42,-5,-7,-5,-34,-29,-1
1522235821634707,48,75,8,2,-1,17,11,9
1522235821634707,-92,-46,13,7,5,4,11,6
1522235821640723,74,67,1,-7,-8,-26,-33,-26
1522235821640723,30,4,-13,2,10,18,-5,2
1522235821657769,-13,6,13,9,10,11,8,-2
1522235821657769,-110,-42,-15,-11,-17,5,-16,-27
1522235821658771,15,103,11,0,9,4,7,-6
1522235821658771,-25,-128,-14,-3,-6,-40,-36,-37
1522235821670804,-54,49,6,-5,-13,-5,9,-9
1522235821670804,127,18,24,10,13,28,77,55
1522235821679827,51,-6,-7,-6,5,-9,-65,32
1522235821679827,30,95,1,6,5,-20,15,-17
1522235821694867,36,-25,2,8,-4,-12,34,22
1522235821694867,59,-17,-8,-6,-5,8,-10,-30
1522235821696873,-17,19,-8,-2,-3,-2,33,1
1522235821696873,17,13,7,-2,0,21,9,15
1522235821717928,-38,96,-6,-7,-5,-2,-10,-1
1522235821717928,19,-8,-14,0,-8,-22,-14,-27
1522235821718931,-6,-37,5,-2,-1,-8,-19,-2
1522235821718931,-24,25,0,-3,1,39,8,19
1522235821731966,23,23,0,-8,-8,-31,-35,-13
1522235821731966,99,91,-4,-3,-2,-2,-26,-25
1522235821748008,-47,19,3,5,1,6,7,-7
1522235821748008,46,-103,-6,-5,1,18,-6,18
1522235821755027,84,53,16,8,11,8,8,7
1522235821755027,13,-15,-11,-3,-7,-5,27,11
1522235821757033,31,45,-4,1,-3,-71,-46,-7
1522235821757033,-119,-65,-2,-4,-4,11,33,3
1522235821778088,49,59,-5,-5,1,-4,-19,-24
1522235821778088,-51,-49,-16,-4,-5,-36,13,-11
1522235821779091,55,8,6,4,4,39,-12,3
1522235821779091,-101,0,-3,-5,-5,-38,-17,-14
1522235821791124,69,34,8,1,-8,-9,-24,12
1522235821791124,-45,-111,-5,0,24,13,39,-5
1522235821800147,-52,-37,-10,-3,-7,-3,16,1
1522235821800147,61,89,9,-3,-5,10,-19,-1
1522235821814184,-59,0,11,9,10,1,-7,7
1522235821814184,2,113,8,-1,-14,-11,-40,-11
1522235821821203,-47,-103,-14,-3,-1,-5,20,12
1522235821821203,49,-10,6,7,8,1,-10,3
1522235821837245,-18,-15,-12,-7,-10,12,2,4
1522235821837245,61,29,9,5,3,14,-25,36
1522235821839251,-6,43,-11,-2,-1,-13,18,-24
1522235821839251,65,-12,3,-1,0,0,10,29
1522235821851283,-104,-77,-30,-13,-10,18,-10,-55
1522235821851283,82,2,10,2,0,25,12,25
1522235821860307,-121,0,0,-4,-2,-15,-13,14
1522235821860307,78,16,4,6,6,3,-3,-20
1522235821874344,-63,-8,-15,-10,-8,-8,-10,-7
1522235821874344,18,-27,2,5,-1,-1,-53,-24
1522235821881363,41,1,12,-1,-5,25,34,32
1522235821881363,-81,-25,2,3,2,-22,-13,-38
1522235821897406,-29,-41,6,-2,-1,-24,2,12
1522235821897406,-44,80,4,-10,-7,-3,9,20
1522235821899411,-31,26,-1,8,-9,5,-7,-40
1522235821899411,0,18,3,1,2,25,23,32
1522235821911445,71,9,8,9,-1,-14,-1,-5
1522235821911445,-11,30,-1,3,14,23,-8,9
1522235821920467,-19,-21,-9,-7,-4,2,1,-38
1522235821920467,-46,-62,-13,-9,-8,3,-19,-13
1522235821933502,10,14,10,3,-1,-4,25,10
1522235821933502,59,18,-4,-8,-7,-22,-22,8
1522235821942525,116,11,3,-2,1,-20,9,9
1522235821942525,-71,-55,-26,-13,-3,41,13,-47
1522235821957565,59,-16,-1,1,2,17,24,-5
1522235821957565,4,-48,0,2,-1,9,-9,28
1522235821959571,0,78,9,1,4,8,-7,-7
1522235821959571,56,22,0,-2,-18,-24,15,39
1522235821979624,7,54,1,4,12,57,-25,10
1522235821979624,-33,-68,-3,4,2,5,42,5
1522235821981629,74,-25,-12,-5,-7,-44,-60,-30
1522235821981629,-123,-15,-12,-6,-8,32,19,-11
1522235821994665,46,26,10,8,11,-4,-17,35
1522235821994665,37,40,9,-2,-5,1,12,-4
1522235822001682,67,-47,3,7,11,21,18,34
1522235822001682,15,-75,-13,-4,5,-3,16,-12
1522235822017725,-42,-63,-19,-8,-6,-8,3,-34
1522235822017725,-128,7,-15,-3,-7,-3,-8,-29
1522235822018728,64,9,16,3,3,21,19,34
1522235822018728,-46,45,6,7,3,-22,-31,-16
1522235822039784,92,40,6,1,2,-8,36,23
1522235822039784,-22,-110,-11,-5,-8,-17,-13,1
1522235822041789,-68,-86,-5,-1,6,13,-3,-13
1522235822041789,97,69,-6,-2,-2,8,18,15
1522235822054824,-40,-17,5,0,0,1,17,-9
1522235822054824,33,30,-2,-4,-3,-5,-2,-7
1522235822060840,-15,14,-1,0,-2,51,38,-4
1522235822060840,-28,-23,-2,-6,-3,-33,-28,-6
1522235822077885,31,-52,0,7,4,-11,-3,11
1522235822077885,0,42,9,3,3,15,19,3
1522235822078888,29,107,2,-3,1,1,3,-6
1522235822078888,-65,-74,-2,-1,2,-7,-1,-6
1522235822099943,-33,70,-10,-7,-2,21,-5,-10
1522235822099943,30,-23,6,0,0,7,-13,2
1522235822101949,-6,-46,-16,-5,-4,-21,0,12
1522235822101949,26,72,9,-3,-2,-15,-16,-1
1522235822113981,7,1,4,4,1,-11,-11,-9
1522235822113981,33,-30,0,-2,0,12,-7,9
1522235822123005,-104,-93,-7,-1,0,-6,0,-12
1522235822123005,96,56,-9,-6,-8,-8,-18,2
1522235822138045,-44,38,13,2,-3,1,-17,-3
1522235822138045,-72,-44,-15,-8,-2,17,68,-19
1522235822139048,55,24,-1,-3,0,1,-16,20
1522235822139048,-15,-2,15,8,4,-11,29,8
1522235822160103,-22,20,-10,-6,-6,-9,-39,-21
1522235822160103,45,14,0,-2,1,-8,-12,10
1522235822162110,-23,-7,-1,-4,-5,-21,-8,-17
1522235822162110,41,25,8,5,5,15,10,30
1522235822174141,-1,-36,7,5,8,25,7,5
1522235822174141,13,-35,-1,3,1,-26,-18,-3
1522235822183165,102,31,3,5,7,12,13,33
1522235822183165,34,67,18,7,5,1,-10,-31
1522235822197202,-56,-4,-23,-8,-8,9,19,-29
1522235822197202,4,63,6,6,3,-11,-34,-6
1522235822199208,-51,-117,-24,-7,-10,-23,-21,-26
1522235822199208,56,83,5,-3,-2,7,-11,24
1522235822220264,-5,5,-1,-4,-2,-19,41,6
1522235822220264,-94,-71,-4,-4,-8,-29,-34,-18
1522235822221266,76,99,27,4,4,19,39,32
1522235822221266,-24,-81,-24,-7,-7,-13,-39,-42
1522235822234302,-6,-69,-6,0,-5,-1,-39,-5
1522235822234302,-9,78,1,-4,-5,-4,25,2
1522235822242323,68,-42,-6,-4,-1,-21,-7,1
1522235822242323,45,-10,-3,-1,-1,-9,-12,20
1522235822257362,-23,-62,1,2,-18,4,1,-11
1522235822257362,25,32,4,1,1,-4,1,9
1522235822259368,61,18,9,5,3,3,-2,11
1522235822259368,-109,29,4,3,4,14,18,4
1522235822280424,5,-17,-10,-7,-7,-24,1,15
1522235822280424,73,29,-6,-2,-2,23,-23,-27
1522235822281427,-71,38,-4,0,1,-4,-14,-11
1522235822281427,-1,12,-11,-3,-8,10,-6,-5
1522235822293458,57,25,11,4,6,-4,10,5
1522235822293458,-22,-72,-9,-6,-4,-1,-4,-5
1522235822302482,-13,67,4,-2,0,9,9,2
1522235822302482,0,-15,-3,-3,-2,-8,-34,-18
1522235822317522,57,33,16,4,9,-13,0,39
1522235822317522,-112,1,-12,-2,-5,11,-22,-28
1522235822319527,25,-66,-8,-2,-7,-9,9,-13
1522235822319527,-31,-96,1,0,3,30,53,7
1522235822340585,15,9,-6,-1,2,-9,-10,-8
1522235822340585,28,56,0,-1,0,28,3,14
1522235822341586,-50,-8,-1,-3,-1,-18,-10,15
1522235822341586,79,6,-5,-3,10,-14,-42,-8
1522235822353618,54,11,4,1,5,15,18,16
1522235822353618,-1,9,-4,-5,-3,-15,-12,-14
1522235822362642,5,-7,-4,1,-12,11,4,-9
1522235822362642,7,83,2,1,21,7,18,-2
1522235822376679,-44,-105,-21,-5,-5,-14,-20,-10
1522235822376679,39,23,8,2,7,19,3,0
1522235822385703,-3,9,0,-2,-1,5,13,-12
1522235822385703,-39,-16,-6,-6,-13,-13,-23,9
1522235822399740,-21,8,8,2,3,8,1,3
1522235822399740,28,23,7,0,2,3,26,21
1522235822405757,-94,-1,-7,-8,-7,-33,-31,-41
1522235822405757,5,13,-7,-1,-9,-13,5,-18
1522235822422802,28,38,9,1,4,17,-13,-16
1522235822422802,-50,-56,-1,1,1,-27,-3,11
1522235822423805,8,46,7,4,10,19,17,21
1522235822423805,8,0,1,-1,-3,-27,-19,-10
1522235822435836,-24,8,-4,-4,-8,-2,-5,-5
1522235822435836,34,33,10,3,4,-2,5,12
1522235822445863,-6,3,1,0,0,-2,-5,8
1522235822445863,-52,-23,-3,2,1,28,38,18
1522235822459900,127,95,12,12,4,-18,3,28
1522235822459900,83,-60,-7,-4,-6,18,50,6
1522235822465916,-39,-18,-13,-9,-12,-7,-50,2
1522235822465916,-47,-24,0,-2,0,-1,-5,-12
1522235822482962,72,48,4,3,3,6,-2,6
1522235822482962,32,21,3,1,1,0,-4,3
1522235822483965,22,-14,0,-2,-9,-39,1,-3
1522235822483965,18,8,1,-1,-5,-14,0,7
1522235822505020,-26,15,-3,-3,-3,-3,-3,6
1522235822505020,-27,-10,-5,-1,-8,-15,-6,12
1522235822507026,72,54,17,0,5,29,6,15
1522235822507026,-56,-48,-6,0,-2,-15,-25,-47
1522235822519057,-18,22,-7,0,4,-4,6,-17
1522235822519057,62,19,0,2,-12,-7,-24,-5
1522235822526076,73,42,6,2,8,23,20,38
1522235822526076,51,-31,-5,-2,-4,32,31,5
1522235822542119,-60,-84,-9,-3,-2,18,23,-9
1522235822542119,63,112,29,-2,6,1,-25,25
1522235822544124,-65,16,-11,2,-1,-5,-7,-5
1522235822544124,-5,-29,1,-1,-1,-14,-12,-23
1522235822565180,-100,11,-8,-3,-3,-3,-19,-19
1522235822565180,-12,88,16,1,3,12,34,20
1522235822567186,-34,-56,-8,-7,-5,-4,6,-19
1522235822567186,4,-29,-3,-4,10,5,8,22
1522235822579218,-62,-35,-9,-4,-3,24,-25,-31
1522235822579218,-44,-61,-13,0,2,2,20,-23
1522235822586236,82,77,21,7,9,5,5,40
1522235822586236,-40,12,-15,-5,-16,-22,-38,-24
1522235822602279,127,39,9,-3,0,5,30,26
1522235822602279,-34,-62,-14,-3,14,12,18,-12
1522235822604284,-45,-80,-9,-1,-1,-3,-6,-14
1522235822604284,71,-34,17,7,3,15,-7,26
1522235822625340,-39,6,-4,-4,-5,-27,-32,-4
1522235822625340,-19,-25,-14,0,-5,4,11,-10
1522235822626343,-22,17,2,0,-4,3,18,-18
1522235822626343,-25,55,-4,-5,-1,-8,2,-7
1522235822638375,29,30,-2,-4,-3,6,7,3
1522235822638375,-5,-71,0,2,-2,-30,-9,-7
1522235822647398,-5,52,-4,-5,0,-1,-8,-28
1522235822647398,32,57,3,2,-3,14,3,20
1522235822662439,43,-57,-3,0,-1,1,6,20
1522235822662439,-66,37,0,1,1,36,-19,-10
1522235822664444,69,7,3,3,0,-26,-18,5
1522235822664444,49,44,4,-3,1,-4,31,9
1522235822685500,-84,-99,-10,6,-2,-4,4,-12
1522235822685500,12,24,2,-2,-2,-8,-9,-10
1522235822686503,1,-45,-10,-5,-3,1,-8,-5
1522235822686503,-32,40,8,-2,-1,2,16,3
1522235822698534,119,54,12,4,4,12,20,19
1522235822698534,-72,10,-16,-7,-11,-25,-3,-13
1522235822707558,-38,-48,-9,-3,-2,-9,-30,-11
1522235822707558,60,16,2,0,-1,2,1,15
1522235822730621,48,91,12,4,8,-7,3,2
1522235822730621,66,-29,8,3,-3,23,1,42
1522235822731624,-25,16,-4,1,1,3,6,-38
1522235822731624,39,-51,-19,-2,-5,-2,-4,-12
1522235822745665,38,2,1,3,1,-3,0,1
1522235822745665,34,5,-3,-2,-3,-5,-3,9
1522235822746663,15,6,9,1,1,0,-17,7
1522235822746663,2,9,-3,1,1,5,-5,-1
1522235822758695,8,80,9,3,-3,16,-16,-7
1522235822758695,5,-43,-6,-1,3,16,-15,5
1522235822767719,-66,-4,3,3,-3,-25,20,-3
1522235822767719,-78,-82,-9,1,-5,-10,27,-7
1522235822782758,1,-5,-2,-1,1,-23,-52,-6
1522235822782758,4,-15,1,-1,1,-2,1,-4
1522235822784764,67,5,-5,1,2,0,1,-10
1522235822784764,7,41,27,10,10,16,3,11
1522235822804817,0,-50,-27,-9,-15,-28,-8,-10
1522235822804817,35,30,-5,3,0,-11,0,-3
1522235822806823,55,-42,-7,0,-1,13,-15,2
1522235822806823,-2,46,11,5,4,-11,-11,19
1522235822818856,66,74,13,0,0,10,44,8
1522235822818856,-128,-49,-26,-9,-10,-27,-23,-51
1522235822827878,51,122,7,3,-4,1,20,26
1522235822827878,78,54,3,2,18,13,13,16
1522235822842918,-115,-28,-5,-6,-4,3,-14,-18
1522235822842918,16,-2,-8,-6,-7,-4,5,3
1522235822843921,21,12,4,1,4,-13,-5,8
1522235822843921,24,51,5,-3,-3,35,-6,3
1522235822864977,-40,-128,-22,-6,-11,-21,-10,-37
1522235822864977,108,11,8,3,5,-17,0,14
1522235822866982,-34,-43,1,-2,4,14,27,25
1522235822866982,-78,5,-20,-18,-20,-13,-37,-20
1522235822879014,56,49,11,7,8,34,36,14
1522235822879014,48,71,16,3,8,5,-17,21
1522235822888038,-98,-75,-14,-2,-8,-12,-32,-20
1522235822888038,-55,87,5,3,-5,-17,10,-22
1522235822903078,-43,-86,-5,1,4,11,-11,-17
1522235822903078,36,57,13,2,3,0,14,51
1522235822904081,-30,-7,-4,-3,2,19,10,-10
1522235822904081,-31,-36,-10,-4,-4,-12,14,19
1522235822925137,48,27,9,7,3,0,-26,6
1522235822925137,11,-20,-2,3,3,5,-8,-9
1522235822927142,-21,7,-11,-8,-4,-7,-15,-28
1522235822927142,45,-128,-18,-4,-8,-12,3,-6
1522235822939174,-83,22,7,4,4,2,8,3
1522235822939174,72,59,0,-2,-4,-11,-20,-12
1522235822948198,81,-66,-2,-2,-3,-8,9,7
1522235822948198,-16,-12,-2,-1,1,-3,-4,3
1522235822962235,-10,-15,-6,-9,-6,4,25,-10
1522235822962235,49,39,-8,-3,-3,0,14,-5
1522235822964241,-52,6,-1,1,-2,9,-4,1
1522235822964241,93,14,12,6,4,5,-11,1
1522235822985297,-71,45,2,-3,-1,-6,-1,3
1522235822985297,-128,-63,-8,-1,-6,-3,-7,-39
1522235822986301,63,-12,9,6,-1,-11,-3,9
1522235822986301,52,-20,-6,1,3,30,19,0
1522235822998331,-17,36,-6,-7,-10,-32,-18,-47
1522235822998331,9,15,5,3,-2,23,1,-10
1522235823007355,44,-17,4,0,-1,13,20,16
1522235823007355,42,-62,-5,0,-2,-17,-12,-7
1522235823022395,104,39,18,4,4,7,-19,30
1522235823022395,24,2,-9,-8,-7,-3,-17,10
1522235823024401,-66,-22,-8,-4,-2,-2,-12,-36
1522235823024401,4,62,7,-1,-2,0,33,21
1522235823045456,127,-46,-8,-2,0,1,9,24
1522235823045456,-64,2,-7,-4,-7,-35,-12,-44
1522235823046460,57,72,-3,-4,-1,17,35,7
1522235823046460,7,15,-2,-3,-5,-12,-9,-6
1522235823058491,-38,-19,-3,2,0,-9,1,3
1522235823058491,-5,17,12,1,6,18,3,19
1522235823067515,-76,-25,-5,-2,-5,-3,-6,-18
1522235823067515,-1,11,10,3,2,-9,-1,1
1522235823082555,-38,-98,-11,-2,-2,4,-2,16
1522235823082555,-39,24,-3,-5,-5,-16,8,-14
1522235823084561,18,25,-13,-6,-7,-1,-28,-36
1522235823084561,-7,-5,1,2,2,18,20,9
1522235823104614,-25,14,10,6,4,0,-6,-2
1522235823104614,35,16,3,-1,3,-6,-6,0
1522235823106619,73,-3,2,-1,2,-2,-15,20
1522235823106619,-11,14,0,-2,-9,-20,-29,-24
1522235823118651,82,80,7,0,3,14,26,64
1522235823118651,-90,-54,-21,-7,-7,3,-19,-94
1522235823127675,9,-10,10,8,5,13,42,18
1522235823127675,22,-14,-10,-5,-4,8,-18,-1
1522235823142715,26,26,-1,3,1,-16,-6,15
1522235823142715,29,53,18,3,3,10,-1,45
1522235823144720,23,2,-13,-5,-1,-7,-9,-30
1522235823144720,17,9,-11,-5,-5,-4,-1,-9
1522235823164773,2,14,3,2,0,8,11,-10
1522235823164773,-3,45,0,1,0,-4,4,25
1522235823166779,-42,-76,-7,-2,0,1,-6,-6
1522235823166779,-18,55,5,3,3,-3,8,16
1522235823178811,4,36,-7,-5,-2,0,-2,-31
1522235823178811,21,-95,-4,-4,-1,0,13,41
1522235823187835,-35,31,-4,-1,-3,-5,-32,-16
1522235823187835,7,0,8,-4,-6,-26,1,14
1522235823202875,32,58,14,13,9,12,48,0
1522235823202875,-60,-128,-32,-6,-2,-11,-42,-14
1522235823203878,-60,66,6,-1,1,-15,22,22
1522235823203878,-19,4,-8,-4,-4,18,-40,-1
1522235823224934,7,-26,-2,-2,-2,-9,5,-6
1522235823224934,12,-10,9,3,2,-27,37,6
1522235823226939,33,-1,9,4,4,18,-6,7
1522235823226939,-19,31,-9,-3,-4,-47,5,-17
1522235823238971,56,-14,-5,-5,-1,23,-1,2
1522235823238971,65,127,13,0,0,70,15,-2
1522235823247995,-8,-16,-15,-1,-6,-59,-23,-28
1522235823247995,21,27,2,0,1,15,-5,8
1522235823262032,2,15,0,1,1,3,-9,9
1522235823262032,34,-54,3,1,3,5,12,10
1522235823269050,87,126,22,6,6,2,-1,15
1522235823269050,-20,-127,-35,-9,-8,1,1,-18
1522235823285093,-115,-26,-8,-3,-2,-8,-7,-3
1522235823285093,-17,17,5,-1,-2,-8,-21,-9
1522235823287099,-8,-19,-1,-2,0,-6,26,17
1522235823287099,106,26,14,2,4,-1,-12,19
1522235823299130,-13,21,-8,-3,-7,-17,-28,3
1522235823299130,-23,-17,-2,2,0,-2,17,-3
1522235823308155,58,77,16,5,1,-6,3,22
1522235823308155,-20,-58,-16,-3,-2,-6,-1,-12
1522235823322192,-23,19,-8,-3,-4,11,9,-23
1522235823322192,-68,-28,4,4,5,1,15,17
1522235823329210,63,-22,-8,-4,-3,11,-11,-12
1522235823329210,-31,28,16,3,6,11,20,25
1522235823345253,-3,-68,-10,-6,-10,-35,-29,-28
1522235823345253,116,38,7,2,-1,-7,24,10
1522235823347259,-54,-84,-23,-9,-5,1,-25,-3
1522235823347259,4,88,8,3,2,0,4,3
1522235823359291,10,31,2,2,0,1,-4,6
1522235823359291,27,-62,-13,-7,-3,3,0,-7
1522235823368315,51,18,2,2,1,19,1,12
1522235823368315,-105,-47,-7,-4,-4,5,-6,-56
1522235823382352,7,40,7,3,2,0,5,10
1522235823382352,15,59,7,0,1,-3,1,24
1522235823388368,84,-1,3,0,1,18,16,2
1522235823388368,-7,-103,-14,-3,-5,1,-5,-2
1522235823405413,-67,5,-2,3,0,-1,-22,-21
1522235823405413,19,-49,-5,-4,-5,-25,-27,-9
1522235823406416,-33,29,8,3,6,7,13,18
1522235823406416,-19,55,12,4,1,22,18,2
1522235823427472,-21,-49,-5,-5,-3,-1,5,0
1522235823427472,54,-1,0,3,2,6,-13,3
1522235823429477,-74,21,2,2,-1,-11,-6,-16
1522235823429477,-42,-37,-4,0,-1,5,14,-11
1522235823441509,-3,-15,1,0,0,-8,-23,3
1522235823441509,-48,32,-11,-8,-6,-11,-15,-20
1522235823448528,9,-18,7,0,-2,7,7,0
1522235823448528,25,47,5,3,3,-16,18,4
1522235823465573,89,-3,1,-3,-1,6,7,15
1522235823465573,-86,46,10,2,1,-16,-30,2
1522235823466576,-4,-91,-23,-12,-8,-10,-11,-22
1522235823466576,19,-5,-1,2,1,-2,11,5
1522235823487631,8,35,3,-1,0,7,18,-2
1522235823487631,0,36,-1,3,1,7,16,4
1522235823489637,-2,27,-4,-2,-1,1,-31,-1
1522235823489637,41,-17,-5,0,-2,-3,-13,9
1522235823501669,11,-36,-6,-2,0,3,2,-6
1522235823501669,-15,14,2,1,1,16,4,-8
1522235823508688,20,44,6,0,1,-1,9,11
1522235823508688,-25,-75,-8,0,0,-6,-11,-38
1522235823524730,-102,24,-9,-3,-5,1,-11,-38
1522235823524730,31,-39,-11,-2,-1,6,16,0
1522235823526735,27,24,-1,-1,-1,-15,-1,14
1522235823526735,7,0,1,-1,-2,-12,-10,14
1522235823547791,-12,58,6,-2,0,-3,0,-4
1522235823547791,-44,-111,-17,-4,-4,-9,-1,-8
1522235823548794,18,42,12,1,3,19,19,4
1522235823548794,95,93,12,5,7,9,1,30
1522235823560826,-77,-14,-22,-6,-10,-12,-11,-36
1522235823560826,17,41,-1,-3,-2,-3,4,4
1522235823569850,-6,28,7,-4,-3,-1,14,-1
1522235823569850,43,35,1,-3,-4,-5,-10,1
1522235823584890,-15,-102,-7,-2,2,16,17,16
1522235823584890,29,3,11,3,2,14,11,5
1522235823586895,-47,-4,-4,2,-1,-5,-20,-20
1522235823586895,-35,10,3,-3,-3,19,-14,-17
1522235823606949,78,20,10,4,0,-13,18,11
1522235823606949,23,-48,-4,-6,-5,-7,-9,3
1522235823614970,3,40,8,1,0,9,-15,-12
1522235823614970,-88,-42,-14,-6,-6,-8,2,-19
1522235823620986,70,17,7,3,6,23,-7,22
1522235823620986,-64,41,-3,-6,-4,-8,3,-26
1522235823630010,-14,5,-5,-1,0,2,12,3
1522235823630010,2,-1,-7,-3,-3,-13,-15,-6
1522235823645050,-8,32,-11,0,-2,3,6,2
1522235823645050,35,1,1,0,1,-2,-7,-4
1522235823647055,-17,57,0,1,2,-3,5,4
1522235823647055,-72,-69,-4,0,0,-4,-6,2
1522235823667109,102,-25,4,6,2,-5,13,27
1522235823667109,47,34,4,4,2,20,34,-3
1522235823669114,6,0,0,2,-1,-16,-14,5
1522235823669114,85,22,-1,0,1,-9,-19,11
1522235823681146,-31,72,7,1,1,3,6,-4
1522235823681146,23,-107,-1,3,0,-8,2,15
1522235823690170,-97,-56,-14,-7,-6,-25,-10,-17
1522235823690170,44,99,12,0,-2,-5,-4,11
1522235823705210,28,-10,-3,-5,-3,3,-23,15
1522235823705210,-6,75,8,1,-1,6,-5,0
1522235823707215,85,-32,-2,0,1,14,22,5
1522235823707215,-86,-59,2,3,3,-3,-14,-9
1522235823727269,-10,25,8,2,2,-5,-4,-21
1522235823727269,40,-72,-14,-2,-1,-5,-9,8
1522235823729274,14,-18,4,5,4,9,12,18
1522235823729274,13,93,1,1,1,10,25,-33
1522235823741306,17,-7,5,-1,-2,-10,-8,4
1522235823741306,-28,18,1,-1,-1,-9,-14,-7
1522235823750330,-52,-55,-15,-5,-2,6,7,18
1522235823750330,3,-32,2,-3,-6,-3,-1,-18
1522235823765370,-1,-8,-9,-4,-3,0,22,12
1522235823765370,56,5,4,-2,-1,-33,-46,14
1522235823766373,-36,12,-5,-5,-5,6,-4,-11
1522235823766373,2,-11,-1,-2,-4,9,38,-3
1522235823787428,1,-13,0,1,-2,-16,-46,6
1522235823787428,-2,50,2,1,-1,-8,0,5
1522235823789434,52,1,-3,-2,-3,4,-7,-6
1522235823789434,-59,-15,-8,0,0,-3,5,-11
1522235823801466,7,-10,3,0,2,24,1,3
1522235823801466,1,36,0,-3,0,-5,9,10
1522235823810490,-35,-51,-5,-2,-2,-10,-14,-19
1522235823810490,-17,58,8,2,2,1,3,26
1522235823825530,7,-88,-8,-2,2,-5,19,-3
1522235823825530,-66,-65,-3,-4,-4,7,1,-7
1522235823826532,41,32,-4,-1,-2,-9,-3,-18
1522235823826532,18,0,-1,1,1,0,-3,13
1522235823847588,-9,-58,-8,-1,0,-13,-4,-24
1522235823847588,5,47,1,-2,1,3,-4,-4
1522235823849594,17,-35,1,-3,-5,-4,3,-12
1522235823849594,-11,13,-3,-2,0,-6,1,-1
1522235823861625,2,39,4,-2,2,2,-4,6
1522235823861625,29,-2,-5,-3,0,16,31,3
1522235823870650,-31,21,-3,-3,0,-4,-24,5
1522235823870650,63,36,-8,0,-3,-9,-22,-27
1522235823884687,-43,-35,-2,1,-1,9,13,-4
1522235823884687,26,3,2,2,0,-1,29,-6
1522235823886692,-6,99,7,4,0,-8,-21,14
1522235823886692,-12,-125,-9,1,2,-8,-6,8
1522235823907748,-10,26,-3,-2,-5,-7,-17,-5
1522235823907748,26,57,1,-3,-1,3,2,7
1522235823908751,-49,-10,3,0,-1,0,9,-8
1522235823908751,61,39,2,-3,0,0,-10,-9
1522235823921785,-19,35,0,0,-3,-7,-3,-5
1522235823921785,-80,-73,-20,-8,-2,-9,-1,-13
1522235823930810,21,63,6,2,0,3,13,10
1522235823930810,23,-62,-4,-1,0,0,-10,5
1522235823944847,3,25,-4,-4,-4,-21,6,-7
1522235823944847,-27,-8,0,-1,-1,5,-21,-17
1522235823946852,5,0,1,1,2,1,17,10
1522235823946852,-58,-8,2,0,-2,1,-10,7
1522235823967908,39,-8,7,1,1,9,1,10
1522235823967908,-31,-31,-1,-1,-3,-8,19,-33
1522235823968911,-54,-99,-17,-6,-7,12,-22,-12
1522235823968911,1,37,4,8,2,7,13,7
1522235823980942,-76,-3,-2,1,0,-12,-18,-11
1522235823980942,67,24,8,2,1,0,-10,16
1522235823997988,4,8,5,1,3,0,14,-2
1522235823997988,4,16,-1,-4,-4,-4,-5,2
1522235824005006,3,-14,-6,0,1,2,12,3
1522235824005006,-4,29,1,2,5,8,9,2
1522235824007012,31,36,3,0,1,-6,13,6
1522235824007012,37,-28,-7,-2,-2,30,-1,-2
1522235824028068,-44,-1,4,3,1,-11,6,2
1522235824028068,40,-10,1,2,0,8,-10,-3
1522235824029071,-18,-20,-1,-3,-3,2,3,-8
1522235824029071,-13,7,2,1,2,-6,20,-2
1522235824041102,30,-1,-1,-5,-6,-7,-2,4
1522235824041102,-22,36,7,4,2,5,-10,-12
1522235824050126,-44,-1,-2,-3,-2,-5,-5,6
1522235824050126,-48,-30,-1,-1,-3,-5,-9,-12
1522235824065166,-8,44,-4,-3,1,-1,-35,9
1522235824065166,31,15,-6,-4,-2,-14,-19,0
1522235824067172,-7,-23,6,1,2,7,9,4
1522235824067172,-49,35,-1,-2,0,-6,-2,-4
1522235824087225,60,-6,1,2,-1,8,21,17
1522235824087225,-47,33,-2,-2,-4,1,-12,3
1522235824089231,29,-44,-4,-3,-1,-5,-13,0
1522235824089231,29,46,3,1,-2,-3,8,8
1522235824101262,10,-3,2,4,4,-4,-19,3
1522235824101262,1,26,-6,-8,-5,20,20,-1
1522235824110286,45,4,-1,-3,-3,-5,17,6
1522235824110286,46,-12,7,3,2,-1,1,24
1522235824125326,-49,-19,-9,-1,0,-3,-7,-22
1522235824125326,-68,8,10,7,4,2,-15,9
1522235824126329,-22,109,-2,-3,-3,-17,-16,-24
1522235824126329,31,-65,-11,0,-1,3,7,3
1522235824147385,-33,16,-6,-4,-5,-6,-5,-13
1522235824147385,4,-4,-2,-1,-1,-10,-24,-16
1522235824149390,41,27,1,3,1,3,21,7
1522235824149390,-1,9,7,0,-3,-2,-26,-9
1522235824161422,12,-1,0,1,-1,8,19,-4
1522235824161422,31,-10,1,1,2,-5,7,9
1522235824170446,21,-52,-9,-3,-2,5,0,5
1522235824170446,-31,9,1,0,-1,-1,-6,-2
1522235824184483,14,5,-4,-2,1,0,-1,-4
1522235824184483,18,-39,-1,-3,-2,-11,1,3
1522235824191502,-34,-80,0,4,3,-4,-3,10
1522235824191502,44,89,-7,-6,-4,-21,-7,-15
1522235824207545,0,7,5,1,0,14,11,6
1522235824207545,-2,0,-7,-3,-6,-15,28,1
1522235824209550,-40,-9,2,5,3,6,-14,5
1522235824209550,-20,-27,0,-3,-1,12,9,-7
1522235824221582,49,14,8,2,1,11,29,2
1522235824221582,-8,2,-5,0,-1,-6,-31,-6
1522235824230606,-1,-5,-6,-2,2,15,7,2
1522235824230606,24,25,-5,-3,-1,11,-7,6
1522235824244643,2,101,12,2,0,0,27,5
1522235824244643,1,-10,-6,-2,-1,3,-30,2
1522235824251662,24,-3,1,1,0,5,-6,-14
1522235824251662,26,30,2,2,-1,0,-13,13
1522235824267705,9,-18,-1,-1,-1,5,-13,-2
1522235824267705,-5,21,2,3,2,-6,-13,-15
1522235824273721,34,25,-9,-7,-4,10,-21,0
1522235824273721,-86,-30,-2,-5,-2,-7,5,-14
1522235824281742,14,-4,-5,0,-2,-14,-15,0
1522235824281742,23,-53,-1,2,3,17,45,14
1522235824290766,25,27,-4,-2,-4,-23,-23,-15
1522235824290766,-14,-66,-5,0,1,12,6,-4
1522235824304803,-23,5,2,-3,2,11,2,10
1522235824304803,-27,4,3,1,-5,3,29,3
1522235824310820,29,59,6,-1,-1,-13,-14,-4
1522235824310820,-21,-12,-2,0,0,-16,-7,-2
1522235824327865,-26,-16,-3,-3,-1,0,22,1
1522235824327865,14,7,3,2,1,10,0,15
1522235824328867,-2,-16,4,3,3,4,19,7
1522235824328867,-48,46,-6,-1,-2,1,-13,-10
1522235824349923,92,0,4,2,3,-7,15,21
1522235824349923,-32,39,-1,-5,-6,-4,-5,-1
1522235824351929,-45,-16,-3,3,-2,-6,3,-9
1522235824351929,5,20,2,0,-1,-2,12,-5
1522235824364963,16,-13,-3,-4,-4,-8,-29,-7
1522235824364963,15,57,2,1,2,4,-3,1
1522235824370980,-21,6,5,0,0,-5,7,11
1522235824370980,27,5,1,2,-2,-16,-26,-12
1522235824388025,21,3,-6,-2,-2,-10,-4,-8
1522235824388025,-27,42,0,-4,-5,14,17,-4
1522235824389027,-61,-75,-18,-4,0,-9,-8,-3
1522235824389027,5,29,5,1,3,6,10,15
1522235824410083,-20,-39,-13,-3,-5,-10,-3,-13
1522235824410083,80,29,2,2,4,-7,-31,4
1522235824412089,51,13,14,-2,-1,11,39,3
1522235824412089,-98,-26,-2,0,0,1,5,-5
1522235824424121,11,0,-1,-2,-3,0,-9,-14
1522235824424121,-8,-23,-7,-4,0,-1,10,-1
1522235824431140,4,11,-2,1,0,11,-14,-4
1522235824431140,116,-5,-2,-1,-1,-1,-16,-3
1522235824447182,-107,-12,-6,-3,-4,-8,23,-10
1522235824447182,-34,9,-1,-1,-2,-50,-49,-9
1522235824449187,59,-29,-4,0,1,1,17,8
1522235824449187,4,6,-1,-3,-2,-1,7,-2
1522235824470243,31,-16,2,0,0,3,-16,12
1522235824470243,29,-28,-3,-2,-2,-3,-2,-21
1522235824472249,-15,86,4,-1,-5,-6,-6,-10
1522235824472249,-53,-87,-9,-2,-1,-1,9,-8
1522235824484280,74,30,-3,-3,-3,2,2,6
1522235824484280,-109,6,4,2,3,9,3,-2
1522235824491299,-31,-43,-11,-4,-4,3,-9,3
1522235824491299,44,27,6,4,0,9,9,-2
1522235824507342,-51,6,-4,0,-2,6,-20,-1
1522235824507342,72,-27,-3,-3,-5,-4,9,10
1522235824509347,-8,-5,6,0,1,1,2,14
1522235824509347,-7,24,-1,0,1,-9,-2,16
1522235824530403,-10,-46,-5,-3,-2,-7,-4,-23
1522235824530403,-1,62,4,0,2,2,-2,-7
1522235824531405,-8,0,-3,-2,-4,-26,3,3
1522235824531405,101,19,2,-1,0,5,37,10
1522235824543437,11,30,8,2,3,9,1,8
1522235824543437,-71,-28,-7,-2,0,3,-9,-11
1522235824552462,-54,-24,-4,-3,0,-4,-21,-14
1522235824552462,-59,-3,3,1,-2,-6,10,7
1522235824567501,53,12,-5,-3,-3,-6,-23,4
1522235824567501,20,-9,-1,-1,-2,5,10,21
1522235824569507,-2,65,3,-1,2,4,0,-10
1522235824569507,-28,-79,-11,-3,-2,-3,-15,-11
1522235824590562,-12,59,4,1,1,15,18,11
1522235824590562,102,-50,-3,-1,1,3,6,9
1522235824591568,13,18,4,1,-2,-3,2,9
1522235824591568,-5,65,5,-1,-1,16,-7,4
1522235824603597,7,-30,-4,-2,0,15,-13,-15
1522235824603597,-64,-19,0,1,1,2,15,10
1522235824612621,6,16,0,-2,2,9,1,-5
1522235824612621,20,11,-4,-3,-3,0,-6,8
1522235824627662,-51,-94,-5,-2,-1,-9,-7,-4
1522235824627662,26,22,-1,-2,-2,6,35,-18
1522235824629667,122,40,4,3,2,24,18,18
1522235824629667,-96,-85,-15,-3,-6,-22,-24,-32
1522235824657741,29,26,10,1,3,-9,-2,12
1522235824657741,16,-25,-10,-4,-3,-26,-40,-7
1522235824658744,-35,-1,3,0,-1,15,25,-2
1522235824658744,43,31,4,0,1,-3,-5,10
1522235824663757,-70,24,0,0,0,-7,6,-1
1522235824663757,28,22,4,0,-2,-8,-1,-4
1522235824672781,76,-14,-1,0,1,-16,-21,21
1522235824672781,-52,-69,-17,-5,-6,-10,-13,-53
1522235824687821,38,12,-6,-3,-3,-2,3,1
1522235824687821,23,13,4,3,0,1,2,10
1522235824688824,-15,8,1,-1,0,2,-19,4
1522235824688824,71,-16,1,0,3,6,25,14
1522235824717901,-11,-7,-1,-1,-1,-7,3,4
1522235824717901,-61,-3,-4,0,-1,-5,-15,-11
1522235824718904,49,-22,-8,-5,-2,-7,-24,-7
1522235824718904,-1,98,14,2,0,-24,-16,6
1522235824723917,-54,-103,-16,0,-1,11,-18,-19
1522235824723917,58,26,1,-2,-3,-3,-2,3
1522235824732941,16,-41,2,0,1,-8,2,8
1522235824732941,-50,7,-2,0,-3,2,6,-5
1522235824747981,-16,41,3,1,-1,-6,-12,4
1522235824747981,59,11,1,-2,-2,13,11,9
1522235824748984,-128,-27,-7,-3,-4,8,9,-27
1522235824748984,69,-16,-1,-1,2,15,10,22
1522235824770040,-2,-7,2,1,0,3,2,1
1522235824770040,-42,-39,-7,-5,1,10,6,-24
1522235824772045,-47,0,0,-3,-3,-18,-9,7
1522235824772045,63,17,3,1,2,10,6,18
1522235824784077,-4,0,3,3,1,5,11,-6
1522235824784077,47,15,4,1,2,4,0,11
1522235824793101,18,-35,-8,-4,-3,14,41,-4
1522235824793101,-8,20,5,2,4,0,-21,18
1522235824808141,-23,25,-1,-4,-6,-3,40,6
1522235824808141,22,1,2,1,2,0,-21,-4
1522235824809144,-23,-9,-8,-4,-4,-1,-5,-7
1522235824809144,-22,-5,-2,3,2,18,20,-9
1522235824830200,15,21,8,0,0,4,29,10
1522235824830200,5,-37,-5,-3,1,6,-17,1
1522235824832206,-4,44,3,-1,-2,-33,-19,-15
1522235824832206,35,33,7,3,1,4,5,5
1522235824844237,-33,32,-2,-2,-1,-10,-18,-1
1522235824844237,-16,1,0,-2,-1,-4,9,-5
1522235824853261,21,-21,-1,-1,3,13,11,5
1522235824853261,-55,0,-6,-3,-4,-21,-52,-20
1522235824867298,1,9,0,0,2,8,4,-12
1522235824867298,9,-85,-4,1,1,5,-4,3
1522235824869304,-27,32,0,-1,-2,-2,-5,-6
1522235824869304,-41,1,0,-3,-3,-15,6,7
1522235824890359,16,14,-1,-1,-1,6,-22,16
1522235824890359,-80,-37,2,5,5,25,27,-12
1522235824891362,58,26,2,1,0,4,5,20
1522235824891362,-28,-8,2,0,-5,-3,29,1
1522235824903394,-21,-17,-1,-2,0,-13,-28,-13
1522235824903394,44,82,2,-3,-5,0,13,6
1522235824912418,-42,-60,-11,-1,-1,-18,-11,-8
1522235824912418,33,0,0,2,1,0,13,3
1522235824927458,57,2,5,0,4,24,34,16
1522235824927458,-67,16,-1,0,-2,-22,-14,-7
1522235824929464,-11,14,1,0,-2,-5,13,0
1522235824929464,18,-9,-3,-2,-2,25,-31,-7
1522235824950519,57,15,2,0,1,6,4,-12
1522235824950519,6,-12,2,1,1,-7,7,15
1522235824951523,45,13,7,3,2,17,22,-3
1522235824951523,11,-49,-5,-2,0,-10,2,-7
1522235824963554,0,-83,-7,-2,-4,-2,-5,5
1522235824963554,29,36,0,-2,-5,-13,-13,-2
1522235824972578,-92,-33,-2,-2,-3,-1,-9,-10
1522235824972578,127,49,0,-3,-2,3,27,9
1522235824987618,-49,17,-1,-2,-1,0,-5,-16
1522235824987618,-13,-9,-6,-2,-1,-3,3,-14
1522235824989623,-8,40,1,3,3,-7,-27,-1
1522235824989623,25,-3,3,3,5,8,21,13
1522235825009677,1,3,-3,-3,-4,-15,-19,2
1522235825009677,-21,32,0,0,-1,-8,13,-9
1522235825011682,21,-47,-5,-4,-3,0,4,-3
1522235825011682,-43,-14,-2,-1,-4,-6,-13,2
1522235825023714,63,4,-2,1,-2,-1,9,6
1522235825023714,27,3,2,2,2,-6,-10,18
1522235825032738,35,21,2,1,1,8,-7,3
1522235825032738,19,11,-1,0,-3,-10,2,-17
1522235825047778,-59,-9,-1,-3,-2,-10,2,13
1522235825047778,53,21,-1,1,0,4,-9,4
1522235825048780,-51,-1,-2,0,0,4,5,2
1522235825048780,-8,-4,-2,-3,-1,0,-1,0
1522235825070840,17,-20,1,0,1,-7,-13,0
1522235825070840,-5,-53,-5,-3,-1,8,14,-1
1522235825072844,42,-6,1,-1,1,-2,-11,-2
1522235825072844,-40,5,-3,-2,-1,5,-11,-3
1522235825083874,-5,9,-1,0,0,1,-9,-7
1522235825083874,-38,43,-1,-4,-5,-9,-23,-27
1522235825092898,36,-29,-4,0,-1,-1,3,4
1522235825092898,-12,6,0,-1,1,16,-9,8
1522235825107938,45,108,5,0,0,-10,12,4
1522235825107938,-4,-42,0,1,-1,2,8,13
1522235825108940,48,52,0,-2,6,23,-7,-3
1522235825108940,-21,13,-1,2,-8,-23,-11,-13
1522235825129996,-8,-13,-3,1,0,2,6,4
1522235825129996,-24,7,5,4,3,7,1,2
1522235825132002,-53,-10,-8,-7,-15,-8,-3,-7
1522235825132002,-44,-13,-3,0,-2,-13,1,-9
1522235825144034,80,-48,-5,-1,4,21,2,16
1522235825144034,64,75,-1,-2,11,4,33,11
1522235825153058,-79,-77,-7,-3,-9,-6,-57,-15
1522235825153058,-3,37,6,1,3,-4,2,-4
1522235825168097,118,41,-7,-10,-9,-6,-23,30
1522235825168097,-100,-45,-6,0,4,47,13,-36
1522235825169100,33,32,4,-3,-1,-53,12,19
1522235825169100,-21,-48,-10,-1,-7,-12,3,-32
1522235825190156,-22,59,4,-3,1,16,23,10
1522235825190156,-28,-18,0,-1,-2,2,-14,-5
1522235825192162,-36,-7,-1,-1,0,-2,11,-17
1522235825192162,19,-39,1,3,0,-3,31,-12
1522235825204193,3,-26,-10,-4,0,7,-49,-20
1522235825204193,-20,-26,-6,-2,-7,17,-25,11
1522235825213218,32,51,5,-2,-2,13,13,13
1522235825213218,-41,-12,-7,-1,4,13,22,-5
1522235825227255,-126,-25,1,-1,-2,-22,-12,-32
1522235825227255,85,-38,0,-7,-6,-24,-2,13
1522235825234273,-44,-13,-8,-1,-2,-5,-22,-9
1522235825234273,40,-4,-1,3,17,5,-29,-3
1522235825250316,14,39,-1,-7,-4,-6,5,15
1522235825250316,105,-20,0,-1,-29,-24,-6,38
1522235825251319,-68,-46,-24,-8,39,29,49,-41
1522235825251319,79,15,9,5,2,27,-38,-6
1522235825263351,4,58,5,2,3,-8,-2,-13
1522235825263351,45,73,-3,-2,5,-17,-17,-12
1522235825272376,127,42,13,6,-4,39,11,29
1522235825272376,-34,99,-2,-5,-20,-33,2,14
1522235825287415,-66,-89,-4,2,12,9,11,-16
1522235825287415,-35,-2,5,-2,-5,-9,28,4
1522235825293432,1,-21,-6,-4,-10,-14,-77,-2
1522235825293432,46,39,4,-1,2,15,1,20
1522235825310476,54,-40,-3,0,-12,-24,-5,-4
1522235825310476,-55,-32,-9,-5,-14,-23,5,-28
1522235825311479,66,37,9,6,6,-3,26,-7
1522235825311479,-16,36,4,-1,3,9,-15,18
1522235825332535,59,-94,-7,-1,-2,-17,-8,13
1522235825332535,-26,-76,4,1,10,35,31,7
1522235825334540,-60,29,1,-1,-10,-15,-10,-15
1522235825334540,-67,-122,-7,-4,-6,-16,0,5
1522235825346572,-53,83,12,8,4,15,33,-3
1522235825346572,110,127,11,5,8,-7,-5,11
1522235825353590,-62,-6,-19,-9,-9,-19,2,-34
1522235825353590,-76,42,5,2,1,6,-2,-20
1522235825370636,18,-33,-2,0,1,15,13,8
1522235825370636,-61,-32,-9,-6,-2,5,-6,-28
1522235825371639,55,54,25,9,5,-5,15,34
1522235825371639,1,10,-17,-5,2,-14,5,-13
1522235825392695,-92,-69,-4,-1,-18,-44,-19,1
1522235825392695,-40,28,-12,-6,-17,1,-21,10
1522235825394700,41,-13,14,11,40,10,2,4
1522235825394700,22,-22,-6,-6,1,13,11,1
1522235825406732,40,7,2,-1,-2,-29,-9,1
1522235825406732,-60,47,-7,-6,-8,-20,-3,-21
1522235825413750,-56,-102,-11,-4,-9,5,-12,-5
1522235825413750,54,12,3,1,-4,-38,4,16
1522235825429793,34,26,12,-2,-3,41,17,13
1522235825429793,108,24,1,-6,17,9,5,-8
1522235825431799,43,-18,-1,0,-5,13,7,-7
1522235825431799,13,34,-4,-3,3,5,-4,-9
1522235825452854,6,27,-3,-2,-8,10,49,-1
1522235825452854,-67,-53,-14,-5,-17,-28,-19,-15
1522235825453857,25,89,8,-3,0,16,-6,18
1522235825453857,60,-110,-7,-1,-5,23,21,17
1522235825465889,-65,100,-11,0,9,3,-11,-30
1522235825465889,90,10,30,14,3,0,-4,69
1522235825474913,-103,-24,-19,-12,-29,3,9,-43
1522235825474913,-21,8,5,-2,0,2,3,-11
1522235825489953,29,49,8,-1,1,1,24,22
1522235825489953,-24,-82,-8,-8,-5,-23,-9,15
1522235825491959,-48,-32,-16,-3,-7,-27,-15,-37
1522235825491959,46,51,13,6,5,0,-8,14
1522235825513014,-71,41,6,-4,-11,23,20,-22
1522235825513014,-74,-13,-11,-2,-11,22,-78,-10
1522235825514017,109,92,32,10,35,14,89,114
1522235825514017,-128,-62,-19,-4,-5,-36,-54,-77
1522235825526049,115,7,-15,-2,3,-9,-32,-1
1522235825526049,80,55,20,8,4,7,1,52
1522235825535073,-71,-38,-20,-14,-20,-7,-41,-52
1522235825535073,11,34,15,9,-9,-1,-12,19
1522235825550113,47,-22,1,0,8,-34,-25,26
1522235825550113,71,27,12,0,19,-8,47,13
1522235825552118,-39,-52,-6,4,-8,0,-68,-58
1522235825552118,94,39,6,0,-8,8,50,36
1522235825573174,5,-1,-5,-6,6,17,-23,-37
1522235825573174,0,-79,-3,-4,8,3,8,17
1522235825574177,-31,-49,1,-4,-26,-24,39,-14
1522235825574177,48,-6,-7,-1,30,13,13,-6
1522235825586209,39,-2,-2,-2,-16,20,2,34
1522235825586209,-93,-28,-13,-6,11,24,-10,-94
1522235825595233,88,-52,-3,0,-2,-17,5,32
1522235825595233,-15,56,5,0,-9,2,-41,14
1522235825610273,95,-68,5,2,7,3,41,62
1522235825610273,-81,-2,-27,-8,-20,-45,-55,-81
1522235825612278,26,-22,-8,-2,-4,9,3,13
1522235825612278,9,-4,-3,-3,2,21,10,-1
1522235825632332,101,1,18,7,14,3,1,54
1522235825632332,-33,-82,-20,-7,-13,-9,-25,-38
1522235825634337,99,118,14,4,10,18,16,42
1522235825634337,69,6,-7,-8,-12,-29,-15,12
1522235825646369,-94,-64,-16,-2,2,11,-11,-34
1522235825646369,-50,-12,-14,-3,-6,-14,-15,-18
1522235825655392,-58,89,3,3,1,3,-30,-7
1522235825655392,71,-90,2,0,-2,21,29,40
1522235825670433,-124,-25,-12,-5,1,-1,-26,-71
1522235825670433,69,47,24,15,15,24,30,28
1522235825671441,-9,-50,-10,-3,4,8,-12,7
1522235825671441,-20,27,2,-2,-2,-13,7,-5
1522235825692491,30,35,3,-2,-7,-25,12,19
1522235825692491,-52,7,-10,-3,1,12,22,-9
1522235825694497,-41,28,-3,-3,-11,-25,37,-38
1522235825694497,4,-28,-3,1,10,7,-45,2
1522235825706528,65,48,12,3,1,18,2,-4
1522235825706528,-10,4,2,0,4,-9,33,23
1522235825715553,50,-32,-8,-4,-6,-22,-10,24
1522235825715553,-32,52,1,0,-8,0,20,-7
1522235825730592,89,19,6,3,3,4,45,27
1522235825730592,-80,-14,-8,-2,-1,-21,-28,-54
1522235825731595,80,19,-1,-2,3,11,-5,2
1522235825731595,49,22,-1,3,-1,11,-3,4
1522235825752651,-119,-93,-10,-3,-3,-5,-5,-37
1522235825752651,57,3,6,3,2,19,29,37
1522235825754656,-12,-17,0,-3,-2,8,4,-3
1522235825754656,30,36,2,1,0,6,-3,4
1522235825766688,-77,-25,8,5,3,-15,-6,17
1522235825766688,41,110,4,-8,-13,-10,-15,-19
1522235825775712,-23,0,5,5,5,-12,-20,1
1522235825775712,68,4,8,4,2,8,16,32
1522235825789749,-70,39,8,5,4,24,23,19
1522235825789749,49,27,-7,-5,-8,-25,-52,-25
1522235825791755,15,-79,-10,4,2,-3,6,7
1522235825791755,33,-80,-6,-2,-4,0,6,-12
1522235825812811,-114,16,-21,-13,-13,-33,-22,-37
1522235825812811,90,41,12,8,9,23,9,41
1522235825813814,4,33,10,-2,3,-36,-13,4
1522235825813814,-40,38,-3,-1,-21,10,36,-24
1522235825825845,-22,-23,-4,-1,3,-10,-44,-23
1522235825825845,58,35,10,5,6,10,14,41
1522235825834870,-27,-38,-13,-13,-4,0,-8,-24
1522235825834870,51,10,-6,-5,1,-9,-7,-12
1522235825849910,46,-47,2,5,1,-2,-14,-6
1522235825849910,19,-22,-5,-4,-4,-9,16,1
1522235825851915,56,97,12,3,3,14,16,21
1522235825851915,-61,2,14,0,5,-2,-14,7
1522235825872971,5,18,-15,-5,-12,-11,-13,-20
1522235825872971,24,-14,-8,-4,2,-13,-1,30
1522235825873974,58,-15,3,2,1,6,-14,11
1522235825873974,-15,4,0,-1,3,-8,-5,9
1522235825886005,-38,37,-2,-6,9,17,32,-20
1522235825886005,-71,-75,4,12,11,22,41,-7
1522235825895029,23,69,18,3,3,13,26,19
1522235825895029,27,-23,-19,-5,-2,-14,-23,-26
1522235825910069,-43,66,2,-5,-5,0,-7,5
1522235825910069,-43,-4,-5,-1,-3,2,-2,-15
1522235825912075,39,-28,-8,-5,-2,1,-17,-3
1522235825912075,-103,-4,-1,5,3,9,5,-34
1522235825933131,37,30,-2,-5,-13,-23,-11,15
1522235825933131,2,-74,1,4,27,36,57,3
1522235825934134,-52,-28,-9,-1,-4,2,-36,-13
1522235825934134,-59,14,-1,-4,-3,-7,15,10
1522235825946165,52,-44,2,5,6,5,-6,-5
1522235825946165,-37,-31,-1,-6,-12,-24,4,1
1522235825955190,-35,11,5,1,1,-3,-30,-6
1522235825955190,44,-86,-7,4,5,-17,29,-1
1522235825970229,40,-14,2,-1,-1,25,4,25
1522235825970229,29,45,-6,-7,-8,-23,-20,-19
1522235825972235,-43,56,-9,-5,-4,-5,11,-24
1522235825972235,-96,-47,-8,-2,-8,-2,-20,1
1522235825992288,13,15,-1,1,0,-6,-27,-6
1522235825992288,57,113,31,8,1,44,25,41
1522235825994293,8,-81,-24,-14,-11,-38,-12,-32
1522235825994293,74,109,2,1,1,14,29,-2
1522235826006325,45,-14,1,1,4,18,-10,-2
1522235826006325,-85,-20,-6,-6,-9,-18,-48,-31
1522235826015350,108,9,7,4,-6,-14,-11,19
1522235826015350,-15,-45,1,-1,0,-26,5,-12
1522235826030389,13,-27,-5,-3,-5,-11,12,4
1522235826030389,61,97,10,-4,-3,10,10,19
1522235826031393,87,-87,-17,-4,-5,-6,21,31
1522235826031393,-67,-40,-23,-7,-12,-2,-19,-29
1522235826052448,53,28,2,2,2,-19,-9,-25
1522235826052448,-38,-29,-10,-3,-3,-3,-7,-5
1522235826054453,-13,127,28,10,8,12,10,20
1522235826054453,64,-14,1,-8,0,35,12,58
1522235826066485,-85,-16,-7,2,1,-3,2,-48
1522235826066485,3,7,2,5,-1,-1,-36,13
1522235826075509,-45,-2,-1,1,0,0,-10,-19
1522235826075509,30,34,11,3,2,6,8,15
1522235826089546,72,11,8,5,15,-1,-14,22
1522235826089546,16,-20,-13,-3,-2,-12,-16,-31
1522235826096565,22,81,11,-1,1,10,17,3
1522235826096565,1,14,4,3,5,6,2,17
1522235826112608,78,-75,-13,-2,-28,-23,1,16
1522235826112608,19,-29,5,6,17,3,19,-1
1522235826114613,-58,-24,-5,-3,3,38,22,1
1522235826114613,7,-34,2,2,0,-12,-15,7
1522235826126645,19,-5,2,-4,-5,0,-1,-1
1522235826126645,0,47,-10,-5,-9,6,23,21
1522235826135669,-45,-87,1,0,-1,-12,0,-3
1522235826135669,-16,37,5,3,1,5,2,-26
1522235826149706,-38,5,0,-4,2,12,3,0
1522235826149706,107,48,2,-3,-7,-24,-11,22
1522235826156725,-45,18,-11,-4,-3,12,9,-8
1522235826156725,-5,-10,6,5,-4,-15,-4,-11
1522235826172768,-44,26,2,-1,3,-6,-17,-8
1522235826172768,-29,-33,0,3,3,22,12,9
1522235826174773,-12,47,-4,-6,0,11,21,-1
1522235826174773,-34,-25,-4,1,-7,-6,-37,-28
1522235826185802,10,-20,-3,-1,-4,-8,10,-2
1522235826185802,68,24,0,-5,-2,-17,-28,6
1522235826194826,-39,15,13,6,4,14,26,-11
1522235826194826,127,-7,-13,-6,9,8,30,11
1522235826209868,-110,-91,-29,-11,-13,-17,-38,-68
1522235826209868,9,-30,-1,0,0,-9,-7,-17
1522235826215882,94,26,6,-1,-4,-32,4,12
1522235826215882,18,64,11,5,6,-23,-70,-1
1522235826232928,93,13,13,3,4,15,19,42
1522235826232928,-122,-78,-20,-4,-8,-8,-7,-40
1522235826233930,25,30,2,0,-4,5,-37,0
1522235826233930,-37,50,6,-2,-3,1,18,13
1522235826254986,46,8,7,3,8,5,23,24
1522235826254986,12,110,9,2,-1,-4,-7,-1
1522235826256992,-3,-65,-2,1,2,12,3,12
1522235826256992,-122,-30,-12,-5,-3,2,3,-7
1522235826278047,39,42,-2,-5,-3,1,1,-8
1522235826278047,37,0,11,4,1,4,7,14
1522235826279050,33,0,-9,-3,-1,30,20,-8
1522235826279050,47,35,7,4,9,3,19,21
1522235826293087,11,43,8,-4,5,-19,-4,3
1522235826293087,-22,-35,-6,0,0,17,52,-9
1522235826294090,51,-8,4,5,4,-14,-66,3
1522235826294090,-30,45,5,4,0,-1,-28,-15
1522235826315146,-27,-27,-19,-9,1,42,18,8
1522235826315146,-7,-17,-2,-4,-8,-11,-9,0
1522235826317152,-13,-35,0,2,14,16,7,-3
1522235826317152,14,1,7,1,-2,0,20,30
1522235826329183,-38,37,2,1,-1,4,-5,8
1522235826329183,68,-63,13,5,1,-4,25,47
1522235826336202,-45,-67,-25,-6,-11,-12,-32,-57
1522235826336202,1,-50,-6,0,-4,-11,-20,-19
1522235826352244,0,3,4,0,-2,-5,-12,2
1522235826352244,-44,-76,-3,-2,5,19,15,2
1522235826354250,95,51,20,5,6,-6,29,30
1522235826354250,-53,-32,-13,-9,-9,-11,-13,-28
1522235826375306,-33,-5,-1,-1,2,-2,-8,4
1522235826375306,46,45,9,-5,-18,-13,-56,11
1522235826376308,-30,-35,-12,-5,-6,-33,-26,-21
1522235826376308,-9,-7,4,1,-1,-3,-9,-19
1522235826389343,22,60,10,1,1,5,7,26
1522235826389343,-91,-2,-9,-6,-6,-21,-25,-27
1522235826396362,89,28,-2,-2,-2,20,21,16
1522235826396362,-19,-45,-1,-2,-5,3,-3,-11
1522235826412404,20,-5,-1,1,-1,-5,2,-7
1522235826412404,0,13,3,4,7,-5,10,3
1522235826414410,-46,-94,-7,-3,-5,-5,-6,1
1522235826414410,32,47,4,0,3,-1,9,1
1522235826435466,-70,-7,1,-1,1,11,39,-6
1522235826435466,57,-26,-11,-3,1,-20,-55,12
1522235826436468,-48,92,3,1,-4,-12,39,-23
1522235826436468,-22,-17,-7,-4,-8,-9,-11,-15
1522235826448500,51,15,-2,-3,-3,4,13,0
1522235826448500,68,26,6,-1,3,23,54,1
1522235826457524,58,8,3,2,1,-14,-28,29
1522235826457524,27,47,10,3,3,-1,21,16
1522235826472565,-9,-47,-10,-6,-8,-38,-15,-37
1522235826472565,-1,-1,-1,1,9,9,16,-1
1522235826474570,57,31,3,-2,-12,2,6,1
1522235826474570,-19,-22,-7,1,-2,-31,23,6
1522235826495626,17,-84,-13,1,-6,-8,-25,-7
1522235826495626,-82,54,6,-1,7,0,-6,-10
1522235826496628,-31,-20,-5,-2,-1,-13,6,-4
1522235826496628,60,34,3,4,3,32,17,26
1522235826508660,-2,25,3,1,1,9,-1,7
1522235826508660,102,-42,-11,-3,-5,17,26,3
1522235826517684,-50,13,1,1,4,2,-21,-12
1522235826517684,-39,-90,-6,-3,-2,-9,-34,-4
1522235826532724,-69,70,-4,-8,-1,15,29,-10
1522235826532724,7,37,1,-2,-3,13,-20,-20
1522235826534730,-19,-21,4,1,3,-15,-14,7
1522235826534730,65,84,3,-1,-3,5,17,-2
1522235826562804,-49,-80,2,2,0,-18,-28,-10
1522235826562804,10,25,3,0,1,10,18,11
1522235826563808,-80,65,6,-3,-1,2,15,10
1522235826563808,-68,-26,-8,-3,-8,-12,-19,-13
1522235826568820,89,22,5,1,-1,-15,-4,8
1522235826568820,-25,-7,-5,0,-3,14,28,6
1522235826577844,-48,1,3,6,5,-4,2,-10
1522235826577844,-21,-30,-6,-4,-5,-6,15,-13
1522235826592884,21,55,8,4,16,10,-5,8
1522235826592884,6,32,-1,0,-1,-5,-15,3
1522235826593887,9,-97,-10,-6,-7,5,6,-4
1522235826593887,46,59,17,4,8,18,-1,40
1522235826614943,8,5,1,5,-5,-8,24,-9
1522235826614943,-1,-16,-12,-3,-6,-35,-27,-26
1522235826616948,30,-10,-5,-4,1,32,-1,30
1522235826616948,64,9,-2,2,2,1,0,-14
1522235826628980,-91,-51,0,1,4,9,-8,3
1522235826628980,-17,9,-4,-3,-2,-8,-7,-6
1522235826638004,27,17,2,0,-1,3,13,14
1522235826638004,55,-2,-1,-1,-1,-12,-45,-11
1522235826653044,21,-21,-2,3,0,11,7,17
1522235826653044,-64,30,-1,0,0,-4,-7,-16
1522235826654047,-30,10,-7,-3,-3,-2,10,-15
1522235826654047,3,-13,2,5,2,16,22,8
1522235826675103,-3,-1,-6,-7,-4,-4,-7,-1
1522235826675103,-6,-28,4,-1,-2,-6,-12,11
1522235826677108,39,84,9,2,2,-9,6,-9
1522235826677108,-32,-16,-3,-2,4,9,-11,10
1522235826689140,15,34,-4,-3,-10,-20,-25,-20
1522235826689140,73,26,6,5,3,10,13,13
1522235826698164,-62,-28,1,-1,4,-2,-8,-1
1522235826698164,40,32,-2,1,0,9,4,11
1522235826712201,24,-19,1,-1,3,11,-2,7
1522235826712201,-37,49,8,-4,-4,13,23,-1
1522235826714207,-18,-76,-15,-2,-2,-6,-14,-28
1522235826714207,47,68,4,-1,1,-22,11,7
1522235826735262,94,-9,-4,-7,-4,-2,-5,23
1522235826735262,-59,-53,-9,2,0,-14,-3,-39
1522235826736265,45,-68,2,3,-2,4,1,16
1522235826736265,-32,-10,-2,-2,-5,8,-1,-6
1522235826748297,-28,24,6,-1,2,6,1,1
1522235826748297,69,-52,-7,-1,0,3,2,10
1522235826758324,48,-15,-8,-2,-1,2,-8,9
1522235826758324,-27,-29,-1,-1,0,2,7,-41
1522235826772361,19,62,1,0,1,-18,15,-3
1522235826772361,-20,-10,3,0,-2,1,-11,-5
1522235826774366,-17,-13,2,0,-3,-6,-7,15
1522235826774366,87,-9,-6,0,1,1,-1,11
1522235826795422,49,-6,-13,-4,-4,2,-3,-35
1522235826795422,-80,54,4,1,-1,-4,-7,-3
1522235826796425,42,27,4,0,-1,-4,-1,-10
1522235826796425,-28,1,-1,0,-4,-12,10,20
1522235826808457,18,-39,6,-2,-2,-7,-77,6
1522235826808457,-28,5,7,2,6,-2,9,-8
1522235826817481,-38,-5,-10,-3,-1,-3,2,-21
1522235826817481,-25,55,-2,0,-4,0,-7,-6
1522235826832521,-66,-76,-10,0,-1,2,8,-10
1522235826832521,46,-24,4,1,1,10,-7,5
1522235826834526,22,20,10,0,-3,3,-1,6
1522235826834526,-21,-14,-1,-5,-1,16,12,-25
1522235826855582,-86,43,2,-3,0,13,-4,12
1522235826855582,-25,-7,-5,-3,0,-14,-10,-3
1522235826856585,86,40,3,-1,1,9,27,11
1522235826856585,-78,-105,-7,0,0,-13,-1,-20
1522235826868617,103,42,3,1,3,20,15,22
1522235826868617,-20,-12,1,-3,-2,1,13,1
1522235826877641,-32,111,-7,-5,-6,-26,-42,-24
1522235826877641,48,-7,1,2,-1,4,-3,4
1522235826892681,-59,-21,-2,2,0,1,12,-1
1522235826892681,2,13,-2,-3,-4,18,13,14
1522235826894686,-5,-15,10,10,7,-10,13,24
1522235826894686,43,44,2,1,2,9,-6,18
1522235826914740,-91,-101,-12,-4,-5,-22,-17,-33
1522235826914740,127,71,-4,-2,-2,7,11,9
1522235826916745,-47,-66,3,1,5,32,2,1
1522235826916745,-34,2,-9,-6,-8,-19,-5,9
1522235826928776,41,61,6,0,-2,0,17,9
1522235826928776,1,-93,-13,-2,0,-2,-5,-10
1522235826937802,-33,21,1,-6,-4,-1,-3,-15
1522235826937802,64,22,7,5,4,1,-24,6
1522235826952841,-36,-22,-4,1,3,5,-1,12
1522235826952841,-10,-12,-8,-5,-5,-14,-2,-1
1522235826953844,8,37,4,4,2,6,-25,-13
1522235826953844,16,-23,0,3,0,20,34,6
1522235826974899,-44,-45,-16,-4,-3,20,12,-2
1522235826974899,-36,-48,-8,1,1,-32,-31,11
1522235826976905,16,19,-1,2,2,-4,-3,-1
1522235826976905,8,9,0,-6,-4,-8,-10,-6
1522235826988936,74,-39,-3,-2,1,14,25,-5
1522235826988936,79,90,17,2,1,-19,11,4
1522235826997961,2,-7,-19,-8,-8,-19,-22,-19
1522235826997961,-3,-21,-5,-1,1,0,18,-12
1522235827011998,38,76,13,1,-1,-4,5,4
1522235827011998,-25,-4,-1,-2,9,21,-1,-4
1522235827019016,26,8,4,-1,-16,-12,18,9
1522235827019016,20,21,-1,-4,-4,-7,-6,3
1522235827035059,-36,-3,3,2,2,-6,-3,3
1522235827035059,-96,9,-4,-6,-2,2,-41,-37
1522235827037065,62,-2,-8,-1,-2,-13,5,16
1522235827037065,-128,-25,-12,-4,-2,-4,-7,-30
1522235827049096,-20,0,-3,-2,-3,-5,-29,-24
1522235827049096,67,29,6,0,-3,0,19,16
1522235827058121,-30,-85,-8,-1,3,15,-27,-7
1522235827058121,-4,33,4,2,-5,-9,18,-2
1522235827072158,36,36,6,0,1,-12,5,-1
1522235827072158,-5,-35,-4,-2,-4,-8,7,7
1522235827079176,73,29,0,-4,1,27,25,-5
1522235827079176,39,-68,-5,-1,1,5,9,1
1522235827095219,-43,-8,-3,3,-3,3,1,1
1522235827095219,53,-20,1,1,2,15,24,18
1522235827097225,-120,25,-6,-7,-3,-19,-54,-23
1522235827097225,-1,14,0,0,-1,6,0,6
1522235827109256,18,44,1,-5,-2,-3,17,-16
1522235827109256,16,-26,-4,-1,-1,-7,-10,8
1522235827118280,-24,45,2,4,4,-3,9,8
1522235827118280,-36,-98,-6,-2,1,11,-7,5
1522235827132318,118,42,15,4,2,7,-6,4
1522235827132318,-11,2,-8,-2,-5,-8,38,-6
1522235827138334,-11,19,3,3,0,0,7,-7
1522235827138334,7,31,1,2,2,-5,-21,-5
1522235827155379,37,-16,3,4,0,-4,-10,23
1522235827155379,-39,-7,-3,0,0,6,-14,-19
1522235827156382,10,-4,1,1,3,-4,7,5
1522235827156382,-3,34,8,2,2,1,13,-6
1522235827168414,33,21,-1,0,-2,-30,-16,5
1522235827168414,71,38,13,2,2,26,27,18
1522235827177438,-40,-38,-24,-5,-2,-14,15,-12
1522235827177438,31,39,1,-1,-3,-3,-18,-1
1522235827192478,29,-32,-5,-2,-1,-3,20,12
1522235827192478,-60,-2,-3,-1,-3,-5,-23,-9
1522235827198494,23,-28,3,-1,-1,-6,54,19
1522235827198494,10,-5,3,0,1,3,-22,7
1522235827215539,-28,54,-5,-3,-2,-14,0,-12
1522235827215539,26,-40,2,3,1,9,-20,17
1522235827216541,-68,81,4,-7,-2,5,-3,-26
1522235827216541,22,-53,-7,1,2,1,6,-1
1522235827237598,22,76,9,1,2,1,-21,1
1522235827237598,2,-24,-6,0,0,-4,12,8
1522235827239603,51,-19,-4,-1,-4,7,-7,-6
1522235827239603,17,14,3,-2,-5,-20,14,-3
1522235827251634,25,-17,3,2,4,2,-21,20
1522235827251634,7,-70,-11,-2,-2,-24,-32,-9
1522235827258653,-2,-11,2,2,-1,10,2,0
1522235827258653,-18,81,-1,-1,0,25,-10,6
1522235827274696,16,29,-5,-2,-4,10,19,-5
1522235827274696,-29,-32,-8,-4,-5,-18,-14,-15
1522235827276702,67,14,8,1,-1,-16,-20,12
1522235827276702,-11,15,3,0,2,13,5,4
1522235827297757,-128,-22,0,-2,2,0,17,-25
1522235827297757,38,60,-4,-1,-2,9,7,-11
1522235827299763,-2,-47,-5,1,0,-11,-20,-4
1522235827299763,6,3,-3,-2,-4,-12,41,-3
1522235827311795,-1,21,5,3,3,-1,-45,1
1522235827311795,18,-57,-5,-4,-1,-10,-7,-2
1522235827318813,-34,-30,0,1,0,-3,24,8
1522235827318813,-26,27,-3,-5,-5,19,0,-10
1522235827334856,-87,-42,-3,2,-2,-6,11,-1
1522235827334856,68,35,3,-3,0,0,-4,-5
1522235827336862,54,29,-1,-1,1,18,-10,-8
1522235827336862,22,14,8,8,4,-13,25,29
1522235827357917,-12,-60,-18,-10,-13,-41,-73,-20
1522235827357917,-48,11,6,3,3,38,-9,8
1522235827358920,0,-82,-7,-5,-8,-27,32,2
1522235827358920,22,44,7,4,3,-33,-37,6
1522235827370952,-8,-86,-2,0,3,33,72,8
1522235827370952,12,49,5,0,-1,-1,-1,-4
1522235827379976,-18,-30,-4,-4,0,8,-19,8
1522235827379976,17,0,-10,-7,-3,-6,-20,-27
1522235827395016,-84,13,4,1,2,43,58,-2
1522235827395016,-13,0,-10,-4,-5,-5,-4,-5
1522235827397021,107,30,3,1,1,1,9,11
1522235827397021,-23,-95,-6,-2,2,22,-17,0
1522235827418077,25,32,10,2,-8,0,12,16
1522235827418077,-38,-16,-12,-3,-4,-10,0,-20
1522235827419080,17,126,20,3,1,7,-21,4
1522235827419080,-44,-50,-17,-2,-7,-16,-6,6
1522235827431113,61,-2,-7,-6,3,-4,-6,-7
1522235827431113,58,42,8,4,5,-1,8,18
1522235827440137,-12,20,1,-1,-6,-9,-6,-4
1522235827440137,22,-35,5,3,3,20,0,5
1522235827455176,9,-8,-4,-3,1,-11,-2,4
1522235827455176,29,-11,-11,-5,-7,-5,15,1
1522235827457181,77,23,0,0,5,23,11,0
1522235827457181,4,-7,8,3,2,-9,-30,-3
1522235827477235,60,22,5,1,-1,-29,-7,24
1522235827477235,14,29,6,-1,-5,-14,-18,11
1522235827479240,-54,-90,-19,-4,-2,8,-4,-39
1522235827479240,-18,52,8,0,-1,2,14,7
1522235827491272,54,36,-1,-2,0,5,-8,-3
1522235827491272,18,-60,6,0,6,-3,27,19
1522235827500296,-53,56,3,0,-2,-17,-17,-8
1522235827500296,27,-31,-8,-2,-3,13,-1,-2
1522235827515335,42,22,6,1,-1,-28,-1,-4
1522235827515335,-9,3,-3,-2,0,7,0,-6
1522235827516338,-23,-99,-8,-3,4,31,18,10
1522235827516338,16,24,-1,-3,0,9,10,-19
1522235827537394,21,-5,-1,1,2,18,10,7
1522235827537394,-1,12,-5,-2,-2,-22,-14,-9
1522235827539399,16,8,8,4,2,23,23,21
1522235827539399,-17,7,-4,-1,-4,-35,-31,2
1522235827551432,-17,-30,-5,-2,-3,1,-5,-20
1522235827551432,7,46,5,0,-3,2,-13,-12
1522235827560456,-76,-13,3,1,-1,-7,-3,-1
1522235827560456,7,10,2,-5,-1,8,43,1
1522235827575495,-31,15,-1,-2,1,-1,-28,6
1522235827575495,20,-7,4,1,2,10,6,8
1522235827576498,-69,-13,-1,-1,-1,9,-2,-22
1522235827576498,-8,-15,-7,-3,-3,-30,-16,-7
1522235827597554,49,31,1,-4,0,17,-2,-5
1522235827597554,-21,13,-7,-2,-7,-9,1,-1
1522235827599559,26,-95,-3,1,-2,-7,-1,4
1522235827599559,69,56,-5,-3,-4,-8,-8,-5
1522235827611592,-60,61,-2,-1,-2,4,-2,-6
1522235827611592,27,-47,0,1,-1,7,36,11
1522235827620615,-17,67,6,1,-1,-19,-18,-13
1522235827620615,-35,-15,-3,2,3,23,17,-4
1522235827635655,98,22,-1,-1,0,-12,3,12
1522235827635655,-118,59,-1,-5,1,12,-6,-37
1522235827636658,22,73,0,0,-6,-26,-6,11
1522235827636658,50,81,6,2,0,14,13,11
1522235827657714,-103,-107,-16,-4,-5,-18,-9,-22
1522235827657714,40,33,15,7,6,38,15,35
1522235827659720,45,1,-2,-1,4,19,3,4
1522235827659720,-81,-9,2,-2,-3,-12,-39,-8
1522235827671752,62,78,4,-4,-5,-1,0,-4
1522235827671752,-19,-24,-4,0,3,6,28,2
1522235827680775,-9,83,-1,-2,-7,-16,-49,-11
1522235827680775,-42,-119,-10,-1,1,13,20,-7
1522235827694812,-61,-12,1,2,-1,-4,16,8
1522235827694812,-28,4,-2,-1,-2,1,13,-15
1522235827696818,6,-4,-7,-3,-2,-9,-13,1
1522235827696818,76,80,15,3,2,17,2,12
1522235827717874,-2,-57,-1,0,-4,4,-35,-9
1522235827717874,13,41,-5,-2,-2,-18,-26,-2
1522235827718877,-39,-50,6,8,4,5,12,19
1522235827718877,-41,-99,-12,-5,-4,0,10,-11
1522235827730908,88,24,3,1,3,4,18,4
1522235827730908,-39,-17,0,-1,-4,-13,-33,-22
1522235827739932,24,18,1,1,3,8,23,11
1522235827739932,39,7,-3,-3,0,5,-22,14
1522235827754972,-35,-6,-9,-5,-6,2,55,-15
1522235827754972,19,-16,-2,-2,-1,-3,-29,2
1522235827756978,8,1,0,-4,-4,-9,15,0
1522235827756978,-5,-37,-5,2,2,8,-1,0
1522235827778034,66,34,5,-2,3,4,-5,22
1522235827778034,-43,76,3,-2,-4,-7,2,8
1522235827779036,-65,-65,-12,-3,-3,2,-35,-33
1522235827779036,47,38,5,-5,0,-11,12,14
1522235827791069,44,44,4,5,1,-8,-35,4
1522235827791069,-103,-67,-3,-16,-25,16,25,-11
1522235827800092,127,65,5,10,18,14,-3,41
1522235827800092,-65,15,0,-4,-3,-48,-18,-15
1522235827815132,13,22,0,1,6,-4,7,5
1522235827815132,42,-44,-5,-4,-3,-19,-56,2
1522235827817138,-35,-85,-3,-1,-4,-4,15,2
1522235827817138,-5,54,1,4,-2,12,10,8
1522235827837191,-31,-24,-1,0,1,-3,-8,-18
1522235827837191,6,20,2,2,8,32,48,18
1522235827839196,57,-33,-4,-10,-6,-12,5,-2
1522235827839196,-34,2,-10,-6,-13,-36,-36,-31
1522235827851228,-67,-49,-1,0,-4,12,7,-11
1522235827851228,27,-39,2,6,6,-12,11,16
1522235827860252,-8,57,5,0,-1,-1,1,-7
1522235827860252,20,-15,-2,-1,1,-5,4,2
1522235827875292,-40,24,0,-1,0,26,38,3
1522235827875292,75,-18,0,0,4,-7,-46,-11
1522235827877298,12,32,-6,-3,-6,-18,-1,12
1522235827877298,-95,-9,-5,-4,-3,10,16,-20
1522235827897351,14,-2,3,3,6,40,8,5
1522235827897351,43,49,-3,-1,3,1,4,18
1522235827899356,-18,-52,-11,-3,-6,-5,24,-8
1522235827899356,-3,-12,-1,-2,0,2,-13,-4
1522235827911388,27,49,-5,-1,-4,-16,-1,10
1522235827911388,0,-84,-7,-1,3,18,23,7
1522235827920412,-30,34,7,0,-2,-16,-5,-2
1522235827920412,56,52,-3,-2,2,4,14,3
1522235827934449,-45,-46,-11,-3,-2,-7,-5,-8
1522235827934449,19,99,7,0,0,-6,-6,-2
1522235827941468,70,52,9,5,4,-3,-6,30
1522235827941468,18,0,1,7,3,14,15,-5
1522235827957511,-29,-22,-4,-8,-7,-17,1,2
1522235827957511,4,18,2,3,0,-10,1,-11
1522235827959516,49,30,11,3,3,34,-8,19
1522235827959516,-19,23,-2,1,0,-14,-10,1
1522235827971548,-7,-40,-6,-4,-2,8,-7,-12
1522235827971548,-4,-15,2,6,2,-34,1,12
1522235827980572,-108,-33,-1,-1,1,11,14,-18
1522235827980572,87,-5,-1,-5,-7,-11,-19,10
1522235827994609,-37,-6,-4,-1,-1,-14,-22,-14
1522235827994609,-81,-122,-18,-6,-4,-10,-30,-23
1522235828001628,35,-23,1,0,0,14,7,9
1522235828001628,75,26,0,-2,-1,-19,25,1
1522235828017670,16,-12,-5,-1,-1,-6,-8,-3
1522235828017670,46,116,19,8,5,6,-9,-1
1522235828019676,-31,-82,-17,-6,-9,-20,-11,-26
1522235828019676,-19,-16,-1,6,4,21,-6,17
1522235828031708,-59,28,-1,-2,-1,-10,-8,-19
1522235828031708,1,15,-1,-4,-3,-8,11,3
1522235828040732,51,-13,-2,2,3,11,8,6
1522235828040732,-8,-36,0,-1,-4,6,0,4
1522235828054769,33,4,-2,-1,0,-4,2,2
1522235828054769,-30,50,-5,-2,0,2,-18,-15
1522235828061788,-27,-42,-2,-5,-5,-5,35,-8
1522235828061788,43,2,4,-1,2,19,-23,5
1522235828077830,47,27,4,-1,-4,-12,-13,8
1522235828077830,27,-17,-1,3,2,5,-5,-10
1522235828079836,39,68,5,5,2,-5,-3,3
1522235828079836,-119,-36,-4,-2,-2,-2,9,-24
1522235828090865,6,15,-1,-2,-3,2,-11,-19
1522235828090865,-11,-65,-6,-1,0,4,9,1
1522235828099890,6,-9,-2,1,-1,4,5,-12
1522235828099890,-7,100,16,1,1,-14,-24,4
1522235828114929,68,-9,-10,-5,-7,1,-9,-1
1522235828114929,-116,-30,-12,-5,-5,-19,-11,-19
1522235828120945,66,57,-2,-5,-4,-11,-17,-6
1522235828120945,-27,3,0,-4,1,8,17,2
1522235828137990,-7,-37,4,0,3,7,4,20
1522235828137990,104,30,-1,-3,-2,5,13,1
1522235828138993,-47,-13,0,0,1,8,-16,-19
1522235828138993,-29,-29,-2,-1,-2,-35,-17,2
1522235828151025,-24,-2,4,1,3,-11,-3,5
1522235828151025,5,-16,8,0,1,3,30,25
1522235828160049,14,40,-5,-2,-7,-28,-68,-24
1522235828160049,19,7,-3,-4,4,26,16,7
1522235828174086,4,-37,1,5,4,8,11,-5
1522235828174086,-30,96,9,-1,0,0,-9,11
1522235828181105,44,-52,-6,-3,-3,-1,21,6
1522235828181105,-19,22,3,2,2,3,24,7
1522235828198150,-10,-78,-6,-4,-5,-12,-48,5
1522235828198150,19,19,2,2,4,14,15,2
1522235828199153,-89,-23,-3,-6,-6,-1,0,-18
1522235828199153,42,-32,-3,0,-3,2,-2,4
1522235828220209,39,36,4,1,1,2,19,13
1522235828220209,17,-70,1,0,-2,2,-12,-3
1522235828222214,-94,-21,-6,-2,-2,0,2,-18
1522235828222214,86,81,8,2,1,9,-18,5
1522235828234246,1,19,-3,-1,-4,-14,15,4
1522235828234246,-63,11,-5,-3,-1,-10,-14,3
1522235828241265,52,31,12,6,3,39,32,21
1522235828241265,-10,-34,-3,-2,-1,-23,-10,-20
1522235828257307,-37,18,3,3,1,18,44,-2
1522235828257307,16,-10,-2,-2,-2,-19,-19,11
1522235828259313,30,-22,-11,-4,0,13,1,-13
1522235828259313,-44,-8,-2,-2,-3,1,14,2
1522235828280369,78,29,3,-1,-1,-8,-23,7
1522235828280369,-26,31,-2,0,5,29,20,-10
1522235828281371,-4,-58,0,-1,1,-13,-12,7
1522235828281371,25,-24,-1,3,2,10,13,7
1522235828294406,38,16,3,-2,-2,-12,-12,-3
1522235828294406,1,29,-6,-2,-3,3,-17,-21
1522235828301425,43,-39,-2,0,-1,-18,9,14
1522235828301425,-5,-32,0,0,2,-2,-16,4
1522235828317467,39,12,-1,-3,0,0,4,5
1522235828317467,20,-37,-10,-8,-7,2,-2,-17
1522235828319473,42,57,6,3,-2,-10,-14,10
1522235828319473,71,-31,-14,-1,-1,1,5,-7
1522235828340529,-58,70,11,1,2,-15,-32,-5
1522235828340529,42,-61,-5,-2,3,14,38,25
1522235828341531,-93,-27,-15,-5,-3,-15,4,-38
1522235828341531,-37,28,-1,-1,-8,-24,0,-17
1522235828353563,49,73,5,4,0,11,-31,11
1522235828353563,43,-55,-11,-5,-6,-6,-11,-27
1522235828362587,60,38,10,3,3,-12,23,22
1522235828362587,-77,-42,-7,-11,-4,-7,4,2
1522235828377627,-54,-60,-9,-1,-1,17,37,-5
1522235828377627,42,24,12,6,0,-18,-10,20
1522235828379632,-10,50,3,-1,-2,5,20,-7
1522235828379632,22,69,-5,-4,-6,-12,-41,-32
1522235828399686,1,18,1,-3,-2,-5,-4,5
1522235828399686,-10,26,-1,-2,-1,17,-13,9
1522235828401691,44,66,5,2,-1,16,2,2
1522235828401691,-44,-97,1,-2,1,-6,38,5
1522235828413723,18,-54,-7,-1,1,-13,-18,-1
1522235828413723,-5,98,19,4,4,-11,4,13
1522235828422747,82,-80,-10,-6,-3,2,-31,12
1522235828422747,33,46,8,5,4,29,3,7
1522235828437787,69,-79,-21,-1,-3,1,18,-6
1522235828437787,-6,28,1,-2,-1,-18,-9,-8
1522235828439792,77,45,5,4,6,9,-8,36
1522235828439792,-66,0,-9,-5,-7,-2,-7,-22
1522235828459846,-97,-86,-11,-3,-4,-21,-30,-39
1522235828459846,-38,65,3,-1,-2,7,28,6
1522235828461851,41,-18,-2,1,1,-6,18,19
1522235828461851,-17,32,10,1,0,15,-1,10
1522235828473883,-88,28,-8,-10,-2,-26,-49,-25
1522235828473883,-24,-122,-15,-5,-1,4,-21,-12
1522235828482907,7,27,-2,-1,1,1,-10,-2
1522235828482907,-79,-18,-9,-7,-5,-40,4,-20
1522235828497947,-60,-3,2,0,3,54,38,6
1522235828497947,41,30,6,1,2,7,1,17
1522235828498950,2,7,-2,-1,-2,2,-6,3
1522235828498950,-56,-87,-5,4,7,59,9,7
1522235828528027,125,55,5,0,-3,-25,17,17
1522235828528027,-45,-7,-2,-2,-7,-7,11,-13
1522235828529030,-82,52,0,1,-12,23,56,-17
1522235828529030,43,-47,-12,-4,23,-17,-77,18
1522235828534043,-94,-22,2,1,-11,-18,19,-11
1522235828534043,125,-24,1,0,20,28,-34,35
1522235828543067,-93,1,-5,-9,-7,-18,-8,-29
1522235828543067,83,58,-3,-6,-13,-23,20,-12
1522235828558107,68,-1,-4,2,-10,7,15,9
1522235828558107,-28,-105,-15,-8,-9,-41,-16,-23
1522235828559110,-78,34,7,2,8,21,35,-3
1522235828559110,109,-24,-2,-5,-8,-27,-48,7
1522235828580165,-80,-34,-9,3,11,19,7,-12
1522235828580165,5,113,15,0,-6,-1,1,-18
1522235828582171,-90,1,-3,2,-3,-39,-47,-7
1522235828582171,-14,-17,2,3,-10,-12,-35,-15
1522235828594203,-11,-23,3,0,-2,-45,11,-5
1522235828594203,85,-17,-15,-3,-10,-22,20,-20
1522235828603228,58,22,12,2,8,35,-8,33
1522235828603228,82,80,12,0,-18,-12,10,16
1522235828617264,-60,33,1,0,17,-1,8,-12
1522235828617264,9,-17,1,0,5,13,-1,10
1522235828619269,-57,-90,-8,-2,-9,-3,-6,-13
1522235828619269,28,39,-2,0,1,20,4,1
1522235828640325,127,71,11,3,7,7,29,31
1522235828640325,-95,-36,-5,-4,-12,25,-16,-13
1522235828641328,25,11,-1,-7,-2,-10,-6,2
1522235828641328,-9,15,7,6,9,10,21,8
1522235828653360,-12,-18,-5,-5,-7,5,9,-6
1522235828653360,11,86,16,2,14,15,7,3
1522235828663387,38,-84,-20,-1,-4,-26,-22,-8
1522235828663387,-47,14,-3,-3,3,37,63,8
1522235828677424,109,55,10,-2,-2,18,-29,3
1522235828677424,43,-42,3,6,0,-21,26,23
1522235828679429,43,68,11,4,10,12,13,23
1522235828679429,-8,16,5,3,5,-13,26,7
1522235828700485,-12,-84,-21,-5,-6,17,-5,-18
1522235828700485,40,34,-2,1,-2,-10,-5,-8
1522235828701488,26,65,2,4,1,-1,-39,-6
1522235828701488,68,-5,5,-4,0,8,10,24
1522235828713520,-5,-49,-14,-10,-5,-19,-24,-14
1522235828713520,-128,-41,-15,-7,-22,-23,14,-26
1522235828722544,40,20,2,1,-4,-5,16,-3
1522235828722544,-15,-28,-2,-4,0,-6,-33,-35
1522235828737584,-44,-11,9,3,2,14,28,13
1522235828737584,-15,13,-9,-9,-7,-45,-64,-23
1522235828739589,26,49,3,-1,-4,8,-12,-7
1522235828739589,-15,-60,-2,0,-25,-9,23,22
1522235828760645,82,55,11,3,14,46,26,30
1522235828760645,-70,-82,-6,4,10,0,5,-16
1522235828761648,28,-5,0,2,2,-4,-13,-9
1522235828761648,12,20,2,1,-2,-29,-9,3
1522235828773679,68,127,8,-3,-4,1,-17,-5
1522235828773679,51,-76,-7,-3,2,0,9,12
1522235828782704,43,20,-4,-1,-3,-3,-23,-3
1522235828782704,-81,-94,-21,-5,2,11,-12,-56
1522235828797743,44,10,9,7,-3,-10,-7,9
1522235828797743,69,12,2,-2,4,37,2,15
1522235828799749,-18,-105,-2,0,12,-5,17,1
1522235828799749,9,-1,-10,-3,-16,-14,-17,-23
1522235828819802,-16,10,7,3,5,-6,-40,10
1522235828819802,37,12,-4,-4,-7,-16,14,1
1522235828821808,68,105,27,7,9,25,33,38
1522235828821808,22,47,-7,-7,1,12,-10,0
1522235828833839,-103,-121,-15,-3,-3,-11,-1,-32
1522235828833839,74,32,8,8,7,21,-10,13
1522235828842863,-78,44,-1,-4,-8,-39,24,3
1522235828842863,10,-25,-3,-1,-1,5,0,4
1522235828857904,48,6,2,0,0,7,79,30
1522235828857904,-99,53,-9,-4,-11,-7,-54,-27
1522235828858906,73,-2,-7,-4,3,16,21,1
1522235828858906,-67,21,3,-2,3,5,0,2
1522235828879962,74,37,11,6,1,3,5,23
1522235828879962,57,35,1,3,0,9,16,32
1522235828881968,-128,-53,-11,-7,-8,-2,-8,-70
1522235828881968,102,83,0,0,0,-15,-5,10
1522235828894000,41,-22,-10,-9,-10,31,8,30
1522235828894000,-82,-58,-12,-6,15,-16,-14,-84
1522235828903023,-20,-30,0,6,-4,-4,-25,5
1522235828903023,122,106,26,8,13,16,24,49
1522235828917061,-128,-97,-6,-4,4,-5,-9,-8
1522235828917061,-3,-15,-14,-8,-13,-1,-15,-50
1522235828924080,37,-46,-13,0,-2,-11,17,8
1522235828924080,-119,21,13,2,10,-5,-9,-10
1522235828940122,-60,7,-19,-9,-12,-20,-37,-54
1522235828940122,56,39,11,0,-1,19,-21,21
1522235828942127,37,69,15,6,4,4,6,-7
1522235828942127,54,-86,-4,3,4,3,3,58
1522235828954159,-57,26,-11,-8,-20,-42,-44,-53
1522235828954159,-52,-2,0,3,28,-23,-6,5
1522235828963183,83,12,0,-2,-3,3,2,18
1522235828963183,-73,-70,-26,-9,-1,-6,-45,-38
1522235828977221,119,61,11,2,6,-9,-11,17
1522235828977221,83,-2,-1,-6,-7,12,21,-3
1522235828984239,-55,-29,2,1,-1,-7,-21,-12
1522235828984239,49,13,6,1,5,7,25,14
1522235829000282,40,-3,10,2,3,-20,-29,9
1522235829000282,-53,119,0,-2,-5,30,36,15
1522235829002287,14,-54,-9,0,-3,-39,-38,4
1522235829002287,66,4,5,3,1,7,27,-4
1522235829014319,-100,-49,-17,-11,-6,-6,-25,-23
1522235829014319,72,76,24,6,-2,-2,24,42
1522235829023343,-111,-105,-13,-3,0,7,-4,-23
1522235829023343,69,115,5,-5,-4,-2,17,18
1522235829037380,48,-9,2,6,10,33,17,-12
1522235829037380,95,51,13,4,5,10,12,36
1522235829043397,-70,-118,-20,-12,-9,2,28,-13
1522235829043397,104,-64,2,3,6,5,-31,-6
1522235829060442,45,59,25,18,9,25,29,29
1522235829060442,63,-5,-9,-9,-9,-21,-23,24
1522235829061444,-21,-46,-22,-8,-22,-13,-23,-26
1522235829061444,-11,57,9,1,6,4,12,7
1522235829073476,1,-26,-14,-6,-5,-3,-12,-12
1522235829073476,51,-49,-1,-5,-10,-6,11,13
1522235829082501,3,87,13,6,11,-18,-24,-12
1522235829082501,-109,-97,-12,-3,-11,0,21,-9
1522235829096537,102,-4,-12,-10,-6,-12,28,5
1522235829096537,57,61,21,9,4,9,0,15
1522235829103556,75,24,-4,-5,1,-1,-3,-23
1522235829103556,-5,-10,-2,2,-10,11,-4,-16
1522235829119599,-76,62,3,1,3,1,3,-26
1522235829119599,22,-79,2,2,-4,0,51,17
1522235829126618,87,40,1,-1,-1,1,-39,11
1522235829126618,110,92,16,12,9,15,12,21
1522235829142660,-56,-75,-27,-14,-32,-33,-28,-20
1522235829142660,-20,-8,0,1,5,-8,-1,-12
1522235829144666,41,-48,-3,1,-1,15,2,5
1522235829144666,85,69,4,-3,1,-8,-2,14
1522235829156697,103,22,11,3,7,23,2,12
1522235829156697,11,-114,-18,-5,-6,5,49,-20
1522235829163716,1,13,17,9,8,-3,-34,30
1522235829163716,-10,7,-6,-7,-5,-9,-19,-3
1522235829187780,-80,86,16,3,8,5,16,11
1522235829187780,30,-33,-8,2,2,16,-15,-7
1522235829189785,-45,33,6,2,2,13,53,8
1522235829189785,20,-47,-9,-5,-1,-32,-49,-13
1522235829202820,-23,26,13,5,0,16,-4,23
1522235829202820,14,-33,-9,-1,0,-10,-20,-8
1522235829203823,-31,19,7,1,2,13,17,14
1522235829203823,-14,62,3,-1,-1,-7,-7,-13
1522235829216857,-34,-93,-10,-4,-1,-1,13,-24
1522235829216857,-99,24,2,-1,-2,26,-5,-13
1522235829223876,116,84,2,3,5,12,8,41
1522235829223876,-128,-67,-16,-5,-9,-13,-7,-45
1522235829239919,56,-3,-2,-4,-4,9,-10,27
1522235829239919,40,73,9,3,10,-20,-29,-5
1522235829241924,-92,-70,-10,-3,-5,-45,-2,-19
1522235829241924,-44,-15,6,-1,3,6,31,24
1522235829262980,-42,12,-4,-5,-6,-16,-22,-32
1522235829262980,17,-11,-16,-5,4,25,-42,-26
1522235829263983,20,19,8,2,-9,14,29,-3
1522235829263983,94,-48,1,6,23,7,-13,9
1522235829276015,58,-55,-1,1,5,-20,20,36
1522235829276015,-78,-62,-16,-10,-17,39,-55,-47
1522235829285038,76,68,4,5,8,1,24,3
1522235829285038,33,31,3,-1,-3,20,15,9
1522235829300079,42,22,1,1,-3,-10,6,18
1522235829300079,74,-5,16,0,-3,-14,30,56
1522235829302084,-113,-68,-25,-10,2,43,-23,-70
1522235829302084,-8,39,0,4,-4,-38,29,0
1522235829323140,15,60,13,6,13,50,-3,23
1522235829323140,-83,76,-1,0,-5,-27,7,-1
1522235829324143,41,-33,-3,0,0,0,-17,18
1522235829324143,-66,-81,-14,-5,-5,13,26,-32
1522235829336174,-61,4,-2,0,-5,-14,-12,-6
1522235829336174,-38,-19,5,2,2,0,38,9
1522235829345199,127,78,16,0,-4,-11,-43,47
1522235829345199,-128,-61,-20,-13,-7,-19,-55,-96
1522235829360238,71,16,-9,-2,-27,-21,-27,1
1522235829360238,57,61,3,0,2,-11,14,-13
1522235829362244,54,-21,1,-2,-1,13,26,10
1522235829362244,13,23,11,0,1,1,-12,26
1522235829382297,-37,-7,0,0,11,51,29,2
1522235829382297,-6,-44,-20,-10,-12,-51,-44,-56
1522235829384302,24,-23,7,5,4,-4,-7,13
1522235829384302,-21,-20,-6,-3,-3,15,13,31
1522235829396334,6,-70,-9,-1,-3,15,-16,-14
1522235829396334,-9,30,5,5,2,7,12,29
1522235829405359,-27,1,2,1,4,-11,-2,-10
1522235829405359,35,-11,1,-1,-4,-7,-2,-3
1522235829420398,27,62,9,5,12,-20,9,-2
1522235829420398,60,28,18,5,10,28,17,54
1522235829421401,-70,29,-12,-10,-32,-25,8,-46
1522235829421401,-9,-4,3,4,8,18,25,9
1522235829442457,44,9,2,-1,2,-18,-3,-6
1522235829442457,-13,-25,0,-4,3,17,20,13
1522235829444462,-46,47,1,-3,-4,12,0,0
1522235829444462,-14,49,2,3,-2,-6,3,9
1522235829456494,5,-12,4,1,9,-6,3,4
1522235829456494,36,18,-2,-5,-10,-18,-15,-6
1522235829465519,-5,25,5,-1,4,-1,16,26
1522235829465519,-25,-64,-11,0,-4,-6,-13,-13
1522235829480558,71,17,7,0,0,-28,-38,-6
1522235829480558,-19,11,-2,-1,3,20,25,-1
1522235829481561,-9,-2,8,2,0,-4,26,13
1522235829481561,14,31,11,-1,-7,-15,-5,2
1522235829502617,12,26,-5,4,27,-14,-2,10
1522235829502617,40,-21,-7,1,-3,-22,-17,7
1522235829504622,-6,48,4,2,18,23,-13,-17
1522235829504622,-30,-41,-27,-12,-15,-14,-23,-55
1522235829516654,41,39,-2,-1,-13,3,9,-12
1522235829516654,44,23,3,3,6,-7,4,6
1522235829525678,-5,-15,-7,-5,-14,-24,-44,-8
1522235829525678,27,-9,11,0,16,6,9,11
1522235829539715,-94,-22,-6,-3,-5,-2,-5,-12
1522235829539715,-93,-68,-18,-6,-3,-7,-10,-53
1522235829541721,91,-36,-1,3,-6,0,15,13
1522235829541721,63,23,5,0,-1,6,0,23
1522235829562777,-67,-18,-8,-5,-6,3,8,-12
1522235829562777,66,-8,7,0,-4,-22,-1,27
1522235829564782,-82,-23,-10,-3,-1,-9,-28,-41
1522235829564782,9,-1,0,-1,2,24,3,13
1522235829576814,35,34,0,-3,-3,-10,8,14
1522235829576814,-38,35,8,1,2,33,36,7
1522235829585838,68,5,-13,-5,2,7,18,9
1522235829585838,-70,26,2,0,-2,2,-7,5
1522235829599875,125,57,12,3,-1,5,-6,15
1522235829599875,-59,-72,-17,-5,-7,-2,-14,-8
1522235829601881,-92,-46,-3,2,-4,-15,2,-28
1522235829601881,87,47,4,-2,11,20,3,16
1522235829622937,8,15,6,1,4,9,24,11
1522235829622937,20,30,3,0,-2,-9,-15,-7
1522235829623939,-55,-61,-5,1,6,9,11,19
1522235829623939,107,52,3,1,-4,-1,1,7
1522235829635971,-116,-78,-7,-3,-5,-3,-10,-19
1522235829635971,-33,20,2,-1,2,-9,-7,0
1522235829644995,15,-32,-1,-4,2,3,-3,15
1522235829644995,-15,-5,4,-3,-9,-14,18,-3
1522235829660035,46,13,2,-2,5,8,-36,-4
1522235829660035,-33,-106,-17,-5,-5,-6,-3,-6
1522235829662041,-43,71,4,-1,-4,15,3,-9
1522235829662041,-14,-13,-4,-3,1,16,-11,7
1522235829683096,23,13,-8,-10,-20,-28,-39,-4
1522235829683096,-2,21,-5,4,-4,-15,21,-6
1522235829684099,18,95,17,5,11,25,-37,2
1522235829684099,43,36,1,0,-4,-49,-13,15
1522235829696131,-94,-92,-13,-4,-9,8,-10,-11
1522235829696131,14,33,3,-1,6,-2,0,23
1522235829705155,-36,-33,-14,-3,-10,22,18,-29
1522235829705155,51,39,8,7,3,-13,34,15
1522235829720195,14,-1,4,5,5,21,20,5
1522235829720195,9,39,-1,-2,-2,-6,-16,0
1522235829722201,84,40,23,12,7,-5,19,13
1522235829722201,-41,-92,-24,-11,-7,2,-20,11
1522235829742254,-43,-90,-31,-7,-5,-11,2,-77
1522235829742254,-45,14,4,2,4,13,-14,-9
1522235829744259,70,7,-2,1,0,-17,7,6
1522235829744259,26,-11,10,6,-1,6,-19,6
1522235829756291,-70,59,11,1,-10,-20,24,13
1522235829756291,111,-12,2,-2,23,35,7,13
1522235829765315,-22,-28,-19,-7,-13,-41,-20,-36
1522235829765315,-24,16,2,0,3,14,39,-1
1522235829780355,18,35,6,0,-5,2,-18,5
1522235829780355,-3,2,-4,-1,-2,-7,18,2
1522235829781358,24,4,10,4,16,-9,24,19
1522235829781358,24,2,0,-2,-3,8,-34,-7
1522235829802413,-16,44,3,1,13,-15,18,0
1522235829802413,-115,45,-3,-4,-12,5,-27,-43
1522235829804419,96,-126,-18,-1,-3,2,-50,5
1522235829804419,-65,-7,-2,1,-10,-18,39,-5
1522235829816451,39,6,9,3,2,-4,-2,12
1522235829816451,35,-10,3,-1,-5,5,-9,16
1522235829825475,23,65,8,2,-1,-19,12,10
1522235829825475,75,78,16,7,12,28,32,40
1522235829839512,98,-111,-14,-5,-9,11,-7,27
1522235829839512,23,-43,-7,5,7,-9,30,-11
1522235829846531,-18,79,7,-1,-5,-2,-9,0
1522235829846531,12,-19,1,-1,-1,-15,-17,4
1522235829862573,34,65,7,0,8,9,16,16
1522235829862573,-5,-28,-1,-3,-16,-8,-16,-7
1522235829864579,-50,-35,-1,-2,-3,11,-2,0
1522235829864579,-16,16,1,1,16,3,-16,-6
1522235829876611,-15,-3,-4,2,5,6,11,-8
1522235829876611,26,-36,10,2,-4,-5,-5,15
1522235829885635,-70,-60,-15,-7,-3,35,45,-36
1522235829885635,-79,-20,-9,-6,-7,-10,-8,-25
1522235829899672,-29,-7,1,1,-2,5,1,2
1522235829899672,104,71,9,5,4,-2,-50,20
1522235829906691,50,62,13,3,3,-1,18,33
1522235829906691,-16,29,-14,-8,-7,9,1,-26
1522235829922734,-88,-91,-19,-5,-6,-6,-3,-16
1522235829922734,2,44,1,0,-2,6,4,3
1522235829924739,15,7,3,2,-1,-11,-2,5
1522235829924739,39,-31,-1,-3,-5,-17,-25,-4
1522235829936771,-10,24,9,1,10,24,27,18
1522235829936771,-128,-33,-20,-11,-17,-1,11,-47
1522235829945795,-18,-52,-8,-1,-2,-2,-9,-3
1522235829945795,23,25,-1,-1,-2,-7,-3,-10
1522235829959832,73,44,3,-2,4,-8,8,17
1522235829959832,-55,-96,-10,-4,-2,-6,1,-10
1522235829966851,15,5,-5,-6,-14,-14,-15,-2
1522235829966851,-27,-29,0,2,11,13,-3,-2
1522235829982893,49,35,6,-3,-3,1,4,3
1522235829982893,17,24,-3,-2,1,-7,1,-5
1522235829983896,9,18,3,4,3,12,-3,0
1522235829983896,-40,-50,-15,-6,-5,-3,-7,-12
1522235829995928,16,-8,2,2,0,0,18,-6
1522235829995928,54,51,5,1,2,-9,28,5
1522235830004952,16,0,-1,0,6,20,-17,10
1522235830004952,47,101,7,0,2,14,13,13
1522235830019992,-82,-91,0,5,17,12,29,-18
1522235830019992,75,58,-2,-2,-3,-25,-10,0
1522235830026008,45,40,0,-2,-6,0,17,2
1522235830026008,-111,28,-1,-1,6,14,18,-13
1522235830043053,58,19,-4,-2,-16,-10,-41,-4
1522235830043053,34,8,11,6,12,12,9,21
1522235830044056,-26,51,-10,-7,-2,-24,-14,-26
1522235830044056,19,-52,-5,-3,-17,-5,-5,-5
1522235830056088,-22,24,3,3,14,1,-5,5
1522235830056088,-98,-16,-3,-1,-4,-11,-1,-11
1522235830065112,80,-40,-6,1,0,-5,-2,19
1522235830065112,-44,-60,-10,-2,-5,2,2,-16
1522235830079149,20,48,1,0,-5,-3,-7,-5
1522235830079149,-50,18,-3,-2,-2,-4,-4,-9
1522235830086168,0,6,5,2,4,0,-1,14
1522235830086168,-25,-70,-7,-4,-4,-3,17,-7
1522235830103213,-10,-56,-8,-4,-6,-10,-2,-4
1522235830103213,43,5,3,1,3,-8,-1,10
1522235830104216,-67,2,-1,-1,0,6,-3,-16
1522235830104216,-33,-10,-4,0,-4,-17,-23,-6
1522235830125272,35,73,2,-3,-6,-8,-11,3
1522235830125272,18,-19,-1,-2,-4,-5,-21,0
1522235830127277,2,-15,-1,2,3,2,14,-1
1522235830127277,44,23,2,1,0,2,6,9
1522235830140312,-5,0,-2,-4,-5,-5,-10,-1
1522235830140312,-3,-4,0,-3,1,6,0,1
1522235830146328,-123,-6,0,-6,-3,-8,-8,-21
1522235830146328,52,7,1,3,1,-2,-14,2
1522235830162370,13,61,6,1,-9,0,8,4
1522235830162370,-22,-98,-8,1,13,0,-5,0
1522235830164376,58,7,-1,-3,-17,-21,-11,3
1522235830164376,23,-30,-1,-5,6,-3,4,-2
1522235830185432,-47,16,-7,1,-4,-6,-11,-18
1522235830185432,4,39,1,-4,-6,6,4,4
1522235830186434,12,-6,1,1,-1,13,20,9
1522235830186434,48,87,10,1,-6,-1,23,9
1522235830198466,23,-16,6,5,5,-16,-69,12
1522235830198466,-58,-99,-7,0,-8,9,40,-5
1522235830207490,-105,9,-13,-7,2,-30,-23,-20
1522235830207490,66,24,2,-3,-6,8,10,0
1522235830222530,22,7,4,-2,17,3,3,1
1522235830222530,33,45,2,-1,-12,20,31,3
1522235830224535,28,-39,-1,-2,-17,-6,-37,1
1522235830224535,-20,58,3,0,31,4,20,8
1522235830245592,-1,-89,-10,-1,-12,-34,22,3
1522235830245592,-29,-20,-2,0,1,-6,-6,-15
1522235830246594,48,89,6,2,-5,7,22,14
1522235830246594,-86,-43,4,-2,-9,-20,-8,-13
1522235830258626,-19,40,-7,-9,6,33,0,-9
1522235830258626,66,111,16,5,-11,17,12,19
1522235830267650,-5,29,-17,-3,22,10,-31,-37
1522235830267650,-49,-98,-4,1,-25,11,-16,6
1522235830282690,32,39,2,2,34,-14,2,4
1522235830282690,32,14,-3,-3,-11,-30,-45,1
1522235830284695,87,11,19,12,14,52,50,40
1522235830284695,-78,-38,-16,-4,-25,-61,18,-14
1522235830304749,5,-40,-5,-3,-4,-8,-2,-2
1522235830304749,86,94,15,2,24,-29,-3,35
1522235830306754,-14,-52,-20,-2,-8,20,-32,-20
1522235830306754,23,-29,4,4,5,16,-2,5
1522235830318786,-3,58,2,-2,-19,-7,13,6
1522235830318786,-76,5,-6,-5,-6,24,36,5
1522235830327810,28,57,8,9,37,-22,-4,12
1522235830327810,0,-23,-10,-9,-4,-7,-21,-6
1522235830342850,50,1,1,3,-8,15,8,4
1522235830342850,-68,-39,-6,-1,-4,-14,-32,-30
1522235830344855,-47,-29,3,-3,-13,3,27,-5
1522235830344855,38,65,-7,-2,6,12,-19,-9
1522235830364908,109,34,3,1,-7,16,42,20
1522235830364908,-44,-62,-4,4,11,21,-1,-10
1522235830366914,-55,-56,-1,0,-6,-17,2,-14
1522235830366914,80,79,24,5,12,18,4,36
1522235830378946,-126,-105,-10,-4,-18,-66,-13,-25
1522235830378946,84,80,-11,-9,-14,-24,-42,-18
1522235830387970,37,-4,3,-2,-7,11,4,9
1522235830387970,54,-7,8,4,14,-1,-4,7
1522235830403010,-46,4,5,3,-6,28,7,6
1522235830403010,24,59,9,0,-1,23,32,-11
1522235830404013,-43,-49,-5,5,3,-8,-17,-6
1522235830404013,0,14,-11,-6,-2,9,-7,-5
1522235830433090,22,61,15,3,5,-13,-4,-2
1522235830433090,-67,-58,-12,5,3,-8,-13,0
1522235830434092,125,44,3,-9,-12,11,2,24
1522235830434092,-96,-13,-13,-5,9,18,-3,-40
1522235830448129,1,8,-12,-1,2,16,-7,-22
1522235830448129,57,15,-2,-3,-4,-10,-3,0
1522235830449132,-12,-10,-1,-1,-3,2,15,4
1522235830449132,52,15,3,4,-4,1,-7,12
1522235830463170,-20,60,-6,-9,-10,1,-14,-9
1522235830463170,15,-70,-17,-8,2,2,-16,-23
1522235830464172,1,-20,-5,-2,-6,-9,7,2
1522235830464172,25,59,8,2,0,-8,-12,6
1522235830485228,-11,-36,-1,-1,-6,11,-1,5
1522235830485228,82,99,22,12,7,14,17,30
1522235830487234,-51,-79,-14,-1,10,0,-16,-36
1522235830487234,11,-41,-10,-4,-8,-40,-44,-14
1522235830499265,15,0,2,-1,-14,53,48,10
1522235830499265,18,1,2,5,4,-21,-42,17
1522235830508290,38,1,4,-6,-31,-14,-18,4
1522235830508290,-2,16,-3,0,20,-37,8,-13
1522235830522327,1,-17,-1,-3,4,-8,-7,-2
1522235830522327,-35,-35,-10,-1,-1,0,-8,-4
1522235830524332,72,117,5,-2,-19,2,34,19
1522235830524332,-76,-117,-15,-4,0,16,2,4
1522235830545388,58,59,5,-4,3,-13,-5,24
1522235830545388,-101,-47,-8,-9,-5,-8,3,-53
1522235830547393,15,2,4,6,11,-3,-16,-4
1522235830547393,7,-7,-1,0,-9,19,26,-7
1522235830567447,97,67,15,3,11,-3,-10,18
1522235830567447,3,-99,-26,-8,-7,-1,-6,2
1522235830569452,-46,5,1,-2,7,-3,-12,-4
1522235830569452,43,-20,1,-4,-4,11,5,-2
1522235830582486,35,69,5,4,4,23,20,0
1522235830582486,-67,-5,14,0,-22,-13,4,5
1522235830584492,86,13,2,-2,9,1,36,22
1522235830584492,-44,6,1,0,-1,18,-21,-5
1522235830605548,-128,-108,-24,-11,-12,-57,-33,-51
1522235830605548,44,31,5,4,9,0,11,4
1522235830606551,-62,-90,-12,-4,6,-1,15,0
1522235830606551,75,17,8,4,-3,-2,-37,18
1522235830618582,38,-63,1,1,-4,2,-2,21
1522235830618582,51,31,-9,2,7,5,-2,-16
1522235830627607,-41,10,-3,2,-8,-3,-10,-12
1522235830627607,60,15,13,5,3,18,25,27
1522235830642647,-36,21,-16,-7,-2,2,-17,-41
1522235830642647,71,57,1,0,-2,-9,-11,11
1522235830644652,-66,-56,3,2,7,5,3,-4
1522235830644652,7,42,-3,-3,-7,-4,-4,-13
1522235830665708,95,37,14,7,11,7,9,38
1522235830665708,-78,-18,-3,1,8,38,18,-18
1522235830666711,9,62,-20,-11,-20,-18,-4,-1
1522235830666711,27,39,4,0,8,-10,4,3
1522235830678742,-63,-84,-5,1,2,11,9,-1
1522235830678742,6,63,-2,-3,-8,-2,3,6
1522235830687766,3,22,12,4,7,0,-7,12
1522235830687766,-20,-43,-10,-4,-8,-9,10,-5
1522235830702806,115,0,9,2,8,-4,-5,13
1522235830702806,-41,-38,-2,-6,-4,-23,8,-3
1522235830704812,-26,-58,-1,-1,-1,-22,3,-17
1522235830704812,-6,28,13,3,-1,-7,-4,8
1522235830724865,-5,76,6,-4,-5,-18,6,-18
1522235830724865,-98,-99,-15,-2,-1,42,8,-2
1522235830726871,-6,42,10,3,3,20,-16,2
1522235830726871,18,23,-4,-2,-4,-26,-18,-7
1522235830738902,-14,-10,-1,2,0,25,38,1
1522235830738902,14,-23,11,2,3,-2,-8,16
1522235830754945,22,113,8,-1,4,12,-9,0
1522235830754945,2,-56,-11,-2,-4,10,61,11
1522235830762966,-103,-48,-15,-4,-1,-10,-75,-11
1522235830762966,20,55,7,0,2,-12,-6,4
1522235830763969,-15,-19,1,2,0,-27,-8,-1
1522235830763969,39,6,11,0,5,14,10,7
1522235830785025,47,41,-2,-3,-22,-3,11,12
1522235830785025,25,-72,-12,-2,-2,-33,-33,-14
1522235830791041,56,-72,-4,-1,1,-6,-11,2
1522235830791041,17,7,6,1,2,28,9,7
1522235830799062,2,7,-2,-3,-9,-37,9,-5
1522235830799062,-61,-22,1,2,8,96,18,-6
1522235830808086,116,17,10,7,-6,-29,12,28
1522235830808086,-17,42,-21,-7,6,-14,-53,-26
1522235830822124,-85,-95,-11,-2,5,11,33,-15
1522235830822124,52,116,8,-2,0,-14,-2,4
1522235830829142,-38,-82,-13,-4,-2,2,-1,-13
1522235830829142,-3,24,0,1,-4,8,22,9
1522235830845185,66,36,2,0,5,10,-21,2
1522235830845185,-87,-61,-8,-4,-3,-30,-18,-23
1522235830847190,12,47,-1,1,-6,19,16,-13
1522235830847190,-57,-67,-1,-5,-8,-23,-5,2
1522235830859222,15,-38,-5,1,2,23,16,-2
1522235830859222,107,31,6,1,6,-31,0,18
1522235830868246,29,22,2,-1,-5,8,-2,15
1522235830868246,2,-47,-14,-4,1,7,1,-9
1522235830882283,27,6,4,3,14,17,5,3
1522235830882283,-8,30,11,7,0,-8,-9,-10
1522235830889302,-76,-49,-6,-4,-1,5,-1,-3
1522235830889302,71,76,11,4,7,44,50,13
1522235830905345,-27,-13,-4,-7,-8,-57,-61,-5
1522235830905345,127,9,7,2,3,-13,19,35
1522235830907350,-111,21,-9,-11,-9,-5,-21,-44
1522235830907350,0,35,4,5,-4,16,-30,-14
1522235830919382,-22,5,-2,-1,-1,6,1,-8
1522235830919382,-14,-74,-2,0,-1,16,16,-7
1522235830928406,35,61,6,-3,1,-16,-9,16
1522235830928406,-35,-36,-1,6,0,-1,1,-11
1522235830942444,12,63,5,2,0,-3,23,5
1522235830942444,-15,-64,-11,-5,-17,3,14,-9
1522235830948459,5,-39,3,4,2,16,-26,5
1522235830948459,-77,43,-2,-6,5,-24,6,-5
1522235830965504,20,1,3,5,8,18,6,-13
1522235830965504,1,75,6,0,-4,-8,-15,-1
1522235830966507,2,-17,2,0,-10,0,7,-7
1522235830966507,121,10,-4,-6,-6,8,-10,15
1522235830978539,-128,16,3,-3,-8,-35,-54,-28
1522235830978539,-43,-16,-3,0,11,-20,22,6
1522235830995585,-5,18,-2,4,-2,-4,-5,1
1522235830995585,61,75,5,-2,2,-5,-21,5
1522235831001600,17,-31,4,2,-1,44,68,24
1522235831001600,-60,-69,-12,-7,-16,-26,-51,2
1522235831008619,19,21,-13,-3,23,41,7,-11
1522235831008619,-65,-64,-1,-2,-8,-28,23,-5
1522235831025665,74,1,0,-7,-47,-22,-31,6
1522235831025665,48,118,7,1,36,19,-12,-14
1522235831026667,-55,7,-4,-7,-8,-28,-6,-2
1522235831026667,-65,-63,-10,-6,-3,-25,-26,-16
1522235831047723,31,24,7,0,-15,28,11,13
1522235831047723,-51,-112,-14,1,-14,-4,-7,-3
1522235831049729,40,54,16,8,27,-10,-4,6
1522235831049729,-1,-37,-6,-2,-8,-22,1,2
1522235831061760,57,43,7,4,3,-11,-86,17
1522235831061760,-48,36,11,4,1,8,32,5
1522235831068779,-33,-10,-7,-7,-6,10,37,-20
1522235831068779,-17,-36,-15,-5,-8,9,-22,-2
1522235831084822,22,8,-3,1,17,2,35,2
1522235831084822,76,-21,0,2,-2,4,8,13
1522235831086827,88,34,8,4,-10,3,4,13
1522235831086827,-38,-24,-9,-9,1,14,-17,-13
1522235831107883,-12,-48,-11,-5,13,4,11,-6
1522235831107883,127,127,22,4,8,2,13,36
1522235831108886,-52,-55,-14,-2,-15,-15,-6,-23
1522235831108886,127,76,20,6,-4,-13,-32,21
1522235831121920,-45,-114,-34,-6,20,-31,-58,-25
1522235831121920,-25,8,5,3,-2,9,11,-3
1522235831128939,-34,25,8,1,1,9,-12,10
1522235831128939,71,-29,-7,-4,0,12,29,8
1522235831144982,-39,-3,1,1,1,30,16,11
1522235831144982,24,7,0,1,6,-10,-39,-16
1522235831146987,93,-12,8,7,24,21,32,38
1522235831146987,-112,38,-27,-16,-17,-35,-31,-70
1522235831168043,63,-28,3,-4,-6,-11,-7,-11
1522235831168043,31,-22,-4,-5,-28,-19,0,-9
1522235831169045,-13,14,5,5,12,-9,-2,2
1522235831169045,39,55,16,7,9,40,29,21
1522235831181077,-90,-20,-1,1,4,-13,4,2
1522235831181077,-82,-47,-15,-4,-22,2,2,-20
1522235831190101,93,79,15,2,4,-24,-30,10
1522235831190101,-5,-49,6,8,13,14,0,28
1522235831206144,-81,-26,-12,-6,-5,-1,-7,-57
1522235831206144,29,13,4,-2,-5,-5,-13,-1
1522235831207147,20,-36,-7,-3,-9,1,29,9
1522235831207147,48,127,28,8,5,24,-30,-1
1522235831228203,-5,-64,-7,0,7,2,27,18
1522235831228203,12,84,4,-1,10,23,4,20
1522235831229206,-128,-70,-16,0,-6,10,5,-68
1522235831229206,93,33,2,1,-4,0,7,3
1522235831241237,63,116,20,3,3,0,15,13
1522235831241237,21,-42,-9,-2,-4,-3,2,0
1522235831250262,-15,28,4,1,2,4,-19,14
1522235831250262,-22,-63,-14,-4,-9,-11,16,1
1522235831265301,18,30,10,6,4,43,34,11
1522235831265301,-69,-34,-10,-4,7,-29,-1,-20
1522235831267307,125,83,11,-1,-7,-2,18,56
1522235831267307,-75,-91,-37,-10,-22,-30,-8,-62
1522235831287360,112,62,4,3,7,20,1,19
1522235831287360,39,-15,-1,-4,-16,10,7,0
1522235831289365,79,-5,3,6,1,3,16,10
1522235831289365,-62,99,24,1,12,2,20,30
1522235831301397,30,-22,-21,-5,-5,-17,-3,-12
1522235831301397,13,-25,-6,1,-2,-10,-12,-9
1522235831310421,52,22,-5,-9,-13,1,-6,3
1522235831310421,7,4,15,9,13,13,-5,38
1522235831325462,-94,-89,-21,-6,-9,-16,-21,-45
1522235831325462,-7,106,10,7,11,-14,-13,-11
1522235831327467,18,-52,-8,-3,-15,2,5,6
1522235831327467,17,-48,-11,-2,12,3,7,15
1522235831347520,-9,25,6,-2,7,25,24,16
1522235831347520,-31,-28,-1,-1,2,-1,-17,-8
1522235831349525,41,36,10,-1,7,-30,-24,-4
1522235831349525,-85,34,-11,-3,-3,0,25,-26
1522235831361557,-15,17,2,-1,0,-7,-3,-23
1522235831361557,86,8,-1,1,9,6,19,36
1522235831370581,-7,16,11,-3,-1,17,6,17
1522235831370581,11,-91,-26,-10,-10,2,3,-48
1522235831385621,41,46,11,3,-4,-22,-61,13
1522235831385621,80,72,5,1,-2,15,-11,-5
1522235831386624,-68,-128,-22,-7,-6,-17,-6,-26
1522235831386624,30,7,6,-2,-5,-3,0,20
1522235831407680,7,31,5,-2,-5,17,5,10
1522235831407680,-59,-67,-15,-10,-2,-4,35,-16
1522235831409685,-37,32,-4,-4,2,-22,-66,-12
1522235831409685,59,36,9,7,9,42,47,7
1522235831421717,103,-76,17,3,-1,-9,-38,47
1522235831421717,-62,-64,-19,-1,5,-17,-9,-68
1522235831430742,65,26,-11,-3,-1,6,5,-2
1522235831430742,-29,10,7,4,1,-16,-10,0
1522235831444778,35,62,1,-4,0,4,41,27
1522235831444778,69,39,14,3,-9,6,-57,8
1522235831446784,-128,-61,-10,-4,-18,7,6,-16
1522235831446784,54,45,-4,0,17,-21,-20,0
1522235831467840,9,-32,-2,3,7,64,105,8
1522235831467840,3,-20,5,2,0,-17,-29,8
1522235831469845,-20,92,13,4,-4,-14,-3,-8
1522235831469845,31,-17,1,-7,-7,-1,-10,26
1522235831480874,-71,25,-6,2,7,-16,-29,-37
1522235831480874,11,-15,-9,-5,-2,-16,24,19
1522235831489898,97,-9,16,8,-5,6,3,22
1522235831489898,-79,60,7,-1,0,34,13,-15
1522235831512959,-111,-53,-15,1,-4,-63,-8,-17
1522235831512959,62,-53,-5,-3,-14,-14,-13,14
1522235831513962,9,60,12,7,19,23,17,-1
1522235831513962,-26,6,-11,-4,-28,-14,-25,-12
1522235831527999,43,23,-8,-7,6,-1,-7,-13
1522235831527999,4,56,16,6,10,15,28,21
1522235831529002,-10,-71,-24,-9,2,1,-2,-12
1522235831529002,33,-42,15,8,14,1,-6,22
1522235831541034,42,66,-3,-2,-9,33,22,-1
1522235831541034,-32,-49,0,-1,-1,-14,-1,0
1522235831550058,-42,-32,-2,-6,7,30,46,-4
1522235831550058,39,21,6,1,9,-33,-11,12
1522235831565098,110,21,9,7,7,58,14,42
1522235831565098,-128,5,-19,-14,-8,12,-22,-92
1522235831567104,45,-55,-7,-1,-6,-13,-12,-3
1522235831567104,71,21,-2,-4,-14,18,18,7
1522235831588159,-22,1,1,-4,-5,-27,-51,-13
1522235831588159,117,127,32,12,15,11,0,40
1522235831589162,-110,-64,-39,-14,-15,-18,-15,-28
1522235831589162,38,64,2,-5,-22,-18,-7,-23
1522235831601194,-81,-96,-22,-4,9,-53,-29,-14
1522235831601194,-39,30,-1,2,-3,3,45,-1
1522235831610218,32,13,5,5,1,-4,-15,8
1522235831610218,104,96,10,1,1,28,38,29
1522235831625258,-30,-45,-13,-9,-10,-79,-29,-16
1522235831625258,20,-7,-1,-3,1,16,13,7
1522235831627263,11,-13,10,0,8,1,6,28
1522235831627263,-36,17,-3,-1,-14,29,35,-6
1522235831647317,98,9,10,3,3,-55,-7,5
1522235831647317,-83,-59,-14,-1,-6,-3,-29,-28
1522235831649322,63,75,27,6,5,4,11,16
1522235831649322,-39,7,-4,0,-1,-25,-18,-5
1522235831661354,73,65,20,7,1,31,33,48
1522235831661354,-61,-76,-21,-6,0,2,-19,-10
1522235831670378,-30,45,2,-3,-4,1,7,-14
1522235831670378,13,-78,4,4,7,-10,-17,7
1522235831685418,-51,3,5,1,0,17,22,-6
1522235831685418,44,33,1,2,0,13,13,14
1522235831686420,-32,-1,-1,2,4,10,-2,-3
1522235831686420,17,-86,-18,-6,1,-19,-19,9
1522235831707477,-24,55,5,-4,-20,9,-3,-24
1522235831707477,12,5,-4,-1,13,4,17,7
1522235831709482,23,11,-6,-1,-3,-41,-67,-21
1522235831709482,-61,-34,-4,-4,-10,6,25,-16
1522235831721514,13,-31,-8,-8,4,9,-5,-18
1522235831721514,-15,-3,6,3,-4,-1,3,0
1522235831730538,110,69,2,0,12,80,31,43
1522235831730538,-102,-58,-6,0,4,-56,0,-51
1522235831744575,-64,20,-7,-5,-9,-2,-55,-8
1522235831744575,66,-96,-22,-11,-10,-8,-10,8
1522235831751594,-52,-15,-8,-6,-3,-18,13,-21
1522235831751594,99,85,15,7,8,22,-28,35
1522235831767636,-92,-20,1,-3,-5,12,35,4
1522235831767636,38,26,8,7,2,-1,1,8
1522235831769642,0,58,4,-3,-3,12,-13,-38
1522235831769642,-106,-104,-16,-6,-13,-8,9,-10
1522235831781673,56,21,3,3,2,2,-5,10
1522235831781673,-11,17,11,3,1,22,5,18
1522235831790698,58,-22,-3,-2,2,-21,-7,2
1522235831790698,-61,36,20,5,9,-11,14,13
1522235831804735,9,-33,-16,-6,-15,-16,-31,-4
1522235831804735,62,82,13,8,13,12,50,14
1522235831811753,-111,-128,-22,-2,-5,-30,2,-14
1522235831811753,-38,-53,-8,-9,0,-7,-26,-48
1522235831827796,7,77,11,5,-2,-4,24,2
1522235831827796,-18,35,-5,-8,-9,-21,-37,-23
1522235831829802,-9,8,0,1,-2,-13,7,5
1522235831829802,58,30,5,2,9,13,-15,29
1522235831841834,-34,-19,-3,0,3,13,21,-13
1522235831841834,-2,8,8,-2,-1,-8,-6,1
1522235831850858,69,36,0,-1,-2,2,34,22
1522235831850858,25,6,-1,4,4,1,-27,9
1522235831864895,127,-1,5,0,5,0,-5,43
1522235831864895,-35,8,-3,3,1,-1,-5,-27
1522235831870911,73,43,11,4,-2,-5,4,9
1522235831870911,-3,-106,-30,-5,-1,2,6,7
1522235831887956,-37,-9,-12,-5,-3,-19,-36,-28
1522235831887956,26,40,7,4,1,38,50,19
1522235831888959,-57,-83,-8,3,0,1,-9,-7
1522235831888959,110,119,20,6,3,-37,-9,25
1522235831900991,-73,-56,-15,-10,-5,-1,-11,-29
1522235831900991,-44,-18,-4,-5,-6,-16,-9,3
1522235831910014,11,-2,0,2,-4,-20,-39,-19
1522235831910014,28,13,-4,-4,-2,-6,14,14
1522235831925055,16,-58,-5,-4,1,9,16,7
1522235831925055,-35,31,-2,-3,-6,-18,-20,-17
1522235831931071,-11,-6,14,1,5,0,37,23
1522235831931071,85,-12,-5,-2,-7,18,-37,-2
1522235831948116,-95,9,3,3,26,8,3,-14
1522235831948116,15,-54,-7,-4,-9,-31,-11,3
1522235831949119,64,7,4,5,32,16,17,35
1522235831949119,-103,-43,-12,-7,-10,-2,18,-11
1522235831970174,118,93,3,2,-2,26,-22,-12
1522235831970174,16,-82,3,4,-1,-19,8,7
1522235831972180,-66,0,4,-2,-11,11,5,-1
1522235831972180,86,35,-3,-9,-24,64,6,5
1522235831984212,-32,89,16,10,27,-41,48,31
1522235831984212,-88,-87,-33,-13,-15,-11,-34,-65
1522235831991231,66,62,1,-2,-8,11,-13,-10
1522235831991231,42,-45,-1,3,4,6,4,-5
1522235832007273,15,7,9,-3,-17,16,14,3
1522235832007273,48,14,2,-2,3,9,8,33
1522235832009279,-52,-11,-14,-5,-8,-6,-12,-30
1522235832009279,-95,16,7,6,5,5,25,-6
1522235832030335,13,22,4,3,-2,-5,-36,7
1522235832030335,42,66,-1,-1,3,-14,-14,8
1522235832032340,-62,-53,-12,-4,-6,12,-2,-3
1522235832032340,6,67,9,3,-1,-17,0,-5
1522235832044372,31,-43,-7,-2,-2,4,8,-2
1522235832044372,22,14,9,3,4,23,22,17
1522235832051390,-27,70,1,-1,-6,-4,-8,-10
1522235832051390,-20,-42,-5,-2,6,-15,-6,-13
1522235832067433,-41,-14,-1,-3,-8,1,8,4
1522235832067433,-7,-31,-5,-7,-6,5,8,-9
1522235832069438,36,20,-2,1,-4,-4,-3,6
1522235832069438,-31,-13,8,4,19,-11,-7,-8
1522235832090494,51,-24,-10,0,0,21,3,9
1522235832090494,-15,44,13,4,1,-9,4,12
1522235832091497,49,20,-9,-6,-7,-39,-19,12
1522235832091497,-74,-3,-12,-7,-6,21,7,-45
1522235832103529,51,45,-1,-5,-16,12,8,14
1522235832103529,52,23,7,5,16,11,6,19
1522235832112553,-84,24,5,-3,3,8,-4,-23
1522235832112553,49,62,1,1,-5,-16,-11,18
1522235832127593,-12,-11,5,6,-2,-11,4,-13
1522235832127593,-28,-98,-8,1,5,19,8,-7
1522235832129598,1,24,3,-4,-3,2,-9,-6
1522235832129598,85,47,-1,1,7,3,5,34
1522235832150654,1,1,-5,0,-5,-8,-4,-15
1522235832150654,41,-67,-1,1,-6,-3,-11,10
1522235832151658,20,28,7,2,3,4,2,-9
1522235832151658,-5,-74,-1,0,1,12,50,17
1522235832163689,-52,-67,-10,-7,2,20,-36,-8
1522235832163689,-19,63,-1,-3,-7,-4,-13,-9
1522235832172713,19,-39,-11,-4,-1,-4,0,1
1522235832172713,44,80,14,2,-2,-3,-17,12
1522235832187753,13,-86,-11,-1,6,24,42,6
1522235832187753,-2,54,-1,5,3,-6,-23,-2
1522235832189758,-8,-59,-3,-3,-26,29,-4,5
1522235832189758,1,28,26,11,34,-9,0,32
1522235832209811,-60,-90,-31,-14,-7,-24,22,-70
1522235832209811,94,44,6,3,2,7,-9,18
1522235832211817,45,-45,-6,0,3,-1,3,-7
1522235832211817,31,54,10,-3,-17,-12,-8,-9
1522235832223849,86,55,20,-4,-13,-36,-11,41
1522235832223849,-66,8,-8,0,-1,67,68,-2
1522235832232873,-64,60,8,1,17,-36,-73,-12
1522235832232873,-4,-7,-15,-9,-22,-40,-1,-10
1522235832247913,14,46,17,2,-1,30,-13,4
1522235832247913,77,-71,-16,-3,-22,-22,63,32
1522235832248916,-100,1,1,-4,2,9,-20,-23
1522235832248916,-20,-37,-6,-3,-2,25,-1,-16
1522235832269971,4,30,-7,4,2,12,-16,0
1522235832269971,16,64,36,11,8,50,52,23
1522235832271977,-18,-40,-14,-4,-4,-5,42,21
1522235832271977,-10,29,-6,-7,-8,-38,-28,-24
1522235832284009,121,122,17,3,7,22,8,47
1522235832284009,-21,-86,-23,-13,-17,-45,-34,-45
1522235832293033,-41,-15,3,6,-6,20,11,-7
1522235832293033,-1,-23,-12,-5,-16,-14,-25,-30
1522235832308073,9,-16,8,0,13,27,27,18
1522235832308073,-57,27,-8,-9,5,-3,-33,-4
1522235832309075,47,81,7,0,-9,-29,-1,12
1522235832309075,36,-51,-7,1,-10,-3,-4,10
1522235832330131,-50,-75,4,2,17,3,24,1
1522235832330131,78,-49,-9,3,-1,-12,-14,-17
1522235832332136,-54,-128,-21,-4,-4,29,7,-19
1522235832332136,19,60,6,2,12,17,17,12
1522235832344168,-23,49,0,-5,-5,-43,-16,-9
1522235832344168,6,36,12,6,8,1,-33,13
1522235832353193,6,58,13,6,7,26,12,6
1522235832353193,62,64,-3,-10,-7,51,8,17
1522235832367230,31,-44,2,2,-12,-38,-13,-19
1522235832367230,-56,20,-9,-2,-4,-18,-16,-18
1522235832369235,77,14,6,3,11,5,4,17
1522235832369235,-72,-49,0,-1,2,9,-9,-6
1522235832390291,-51,0,-15,-8,-2,-2,2,-9
1522235832390291,-5,44,-11,-9,-7,17,-6,-23
1522235832392297,105,-8,-3,4,23,-10,5,-5
1522235832392297,45,-64,9,7,12,-7,-9,23
1522235832404328,19,8,-4,-2,0,-1,7,-17
1522235832404328,-11,8,1,3,4,-6,-44,-8
1522235832413353,10,-37,7,2,-6,3,12,19
1522235832413353,-117,-99,-25,-1,1,-10,-2,-21
1522235832427389,32,49,8,4,-1,6,-9,6
1522235832427389,56,-35,-14,-10,-7,-6,16,30
1522235832429395,-12,35,-6,-3,-6,-19,-65,-35
1522235832429395,55,-31,2,5,1,-8,-6,2
1522235832450451,-27,-48,-8,0,4,-3,-5,8
1522235832450451,-51,-65,1,1,5,5,20,0
1522235832451454,72,32,7,-3,1,-1,-1,16
1522235832451454,-6,63,5,-3,-13,-1,39,0
1522235832463485,-86,-71,-25,-10,-7,1,-33,-28
1522235832463485,-19,-36,-2,0,1,-23,-25,-11
1522235832472510,-30,-19,12,4,6,7,17,5
1522235832472510,103,62,-6,-3,-6,-22,6,1
1522235832487549,57,70,18,5,-16,-7,-10,16
1522235832487549,-21,25,-11,-3,9,-2,-13,-49
1522235832489555,-16,-81,-9,-4,-11,-17,12,17
1522235832489555,-39,-51,-5,-7,6,6,-8,-23
1522235832510611,-15,32,-3,-3,-13,-11,3,-18
1522235832510611,57,-48,13,5,6,-8,35,38
1522235832511614,-84,20,-37,-18,-16,-13,-60,-94
1522235832511614,46,49,5,2,2,2,3,1
1522235832523646,44,-16,1,1,11,39,1,10
1522235832523646,56,74,28,11,2,17,37,4
1522235832532669,27,-64,-16,-6,0,-12,25,21
1522235832532669,-19,1,3,3,1,-20,-17,3
1522235832547709,51,75,18,8,2,-2,-3,14
1522235832547709,-89,57,-8,-4,4,-7,-8,-21
1522235832549715,-11,17,3,2,-6,-16,-5,5
1522235832549715,-41,-3,-17,-11,1,35,3,-28
1522235832577789,10,-81,-13,0,1,-3,11,11
1522235832577789,127,124,14,-2,-20,-20,-10,21
1522235832579795,-22,-41,10,5,6,-10,13,14
1522235832579795,-67,40,-3,-7,-4,-28,7,7
1522235832583805,-34,-47,-12,-2,-11,-11,1,-31
1522235832583805,24,41,-5,-4,1,-17,-20,-6
1522235832592830,44,98,16,3,5,57,55,41
1522235832592830,-44,10,2,2,3,-3,-25,0
1522235832607869,37,3,7,2,-5,-42,-22,16
1522235832607869,-118,-72,-10,-3,-6,-22,-18,-32
1522235832608872,127,79,16,5,4,1,44,37
1522235832608872,-111,-75,-3,3,4,-21,-47,-19
1522235832629928,14,84,2,-13,-14,-60,-34,-16
1522235832629928,-7,-84,11,19,13,61,54,68
1522235832631933,-120,80,-43,-33,-22,3,-52,-66
1522235832631933,15,-89,-22,-5,-9,-46,-41,-22
1522235832643965,84,22,7,7,8,5,-1,11
1522235832643965,-18,99,20,3,2,18,-28,20
1522235832652990,100,110,20,4,-7,-3,41,48
1522235832652990,-22,69,-2,4,-5,43,-27,-13
1522235832668029,-39,46,-1,3,21,-7,50,9
1522235832668029,26,-73,6,-3,-2,22,-8,-46
1522235832669032,74,-18,17,11,15,22,38,60
1522235832669032,-64,27,-3,-6,-5,-22,-43,-50
1522235832690088,-15,-78,-4,2,-17,-29,-31,-16
1522235832690088,94,91,6,-2,10,-3,-23,7
1522235832692093,-28,-107,-9,-5,-13,-45,-24,-11
1522235832692093,101,-76,-6,-2,13,-17,43,32
1522235832704125,-84,5,-11,-5,-6,49,-23,-43
1522235832704125,-16,60,-11,-6,-10,3,7,-11
1522235832713149,-59,4,0,0,3,1,-33,-33
1522235832713149,97,0,-14,-2,-8,15,30,18
1522235832728189,57,23,6,-1,2,15,17,28
1522235832728189,25,44,3,-2,-14,-20,-2,38
1522235832729192,-45,-82,-27,-8,22,7,33,-58
1522235832729192,-54,59,5,5,-12,7,64,-18
1522235832750248,-15,14,5,-1,12,23,25,36
1522235832750248,74,-43,-7,6,5,-16,-13,9
1522235832752253,80,34,23,11,-6,-33,-3,50
1522235832752253,127,82,29,9,20,74,-40,96
1522235832764285,-128,-56,-61,-35,-32,-22,11,-127
1522235832764285,-52,-66,-30,4,1,-12,-27,-9
1522235832773309,111,85,14,8,4,8,-1,35
1522235832773309,83,66,5,1,5,-5,-11,8
1522235832795368,92,97,36,15,7,7,-1,78
1522235832795368,-49,-35,-6,-6,-3,2,-3,-30
1522235832797373,40,-24,7,1,-1,-19,-25,-19
1522235832797373,75,0,-8,-4,4,33,39,10
1522235832810407,8,-94,6,1,13,9,18,24
1522235832810407,-62,30,-6,0,-5,-10,-1,-28
1522235832812413,-14,-91,-10,-1,-2,-7,-1,5
1522235832812413,-80,114,7,-3,-7,-22,-13,-38
1522235832823443,10,-72,-12,1,1,5,-22,-8
1522235832823443,102,-30,13,7,12,11,34,23
1522235832832466,-92,81,10,-2,-12,15,-23,-5
1522235832832466,-39,-6,3,-1,1,1,16,-15
1522235832847506,50,78,10,-2,4,24,32,42
1522235832847506,-41,-76,-25,-3,-4,-24,-19,-26
1522235832853522,123,69,2,-4,-3,1,9,21
1522235832853522,-64,-52,-14,-5,-6,-20,-6,-31
1522235832870567,81,56,11,10,7,1,-9,24
1522235832870567,-44,-15,5,3,2,37,30,-3
1522235832871570,72,67,10,4,24,20,75,35
1522235832871570,-109,-128,-52,-22,-19,-34,-24,-57
1522235832883602,57,55,-7,-1,-2,8,-27,-34
1522235832883602,46,48,14,1,-24,-18,8,30
1522235832892626,-99,-69,-10,-2,24,7,-17,-23
1522235832892626,26,-13,17,9,6,35,5,23
1522235832906663,41,-6,9,1,0,-14,27,7
1522235832906663,4,19,-8,-9,3,-11,5,3
1522235832913682,41,55,5,5,-8,42,-2,-28
1522235832913682,28,-13,-4,1,-1,-2,-12,15
1522235832930727,-117,-4,-12,-8,-11,-8,-16,-20
1522235832930727,27,49,14,4,6,-5,-2,8
1522235832931730,-7,9,-7,-3,-9,-7,-3,3
1522235832931730,55,40,38,15,23,10,41,60
1522235832952786,-39,-30,-19,-4,-7,24,-11,-17
1522235832952786,-38,-70,-18,-10,-6,4,-5,5
1522235832954791,-18,-84,-27,-14,-17,-44,-67,-51
1522235832954791,9,-15,14,7,-1,12,-1,20
1522235832966823,-23,31,12,5,9,-32,-7,21
1522235832966823,-54,32,14,0,6,3,22,-27
1522235832973842,101,16,-2,2,6,4,1,22
1522235832973842,62,10,4,-2,-7,-10,20,20
1522235832989885,16,74,5,-2,-3,7,-26,-25
1522235832989885,43,20,-15,-5,-8,-17,-35,-39
1522235832991890,45,-2,4,-1,-14,-21,-2,10
1522235832991890,100,55,14,11,9,4,19,-12
1522235833012946,-16,-104,-7,0,17,37,37,22
1522235833012946,-30,-7,2,4,-11,1,-12,-22
1522235833013948,-47,10,-11,-3,-3,-4,-2,-16
1522235833013948,52,38,11,-3,-3,1,-1,36
1522235833026983,-22,-12,-9,-6,-9,9,-10,-34
1522235833026983,-1,-21,1,1,5,-29,-48,6
1522235833034002,-63,-27,7,4,-3,10,22,2
1522235833034002,64,48,4,4,11,-13,-2,7
1522235833050044,-67,-42,-2,-8,-7,-67,-18,-17
1522235833050044,-53,13,-10,-4,-3,9,14,-14
1522235833052050,-47,13,15,5,18,23,9,6
1522235833052050,-83,27,-17,-11,-13,-21,1,-19
1522235833073105,41,25,5,4,2,7,0,8
1522235833073105,44,24,13,1,6,10,3,3
1522235833074108,-71,-77,-18,-4,-14,-22,-1,-1
1522235833074108,-33,-79,0,2,4,13,-19,-11
1522235833086140,91,25,-1,-5,-2,-11,0,4
1522235833086140,59,-16,-4,-3,-7,-4,15,11
1522235833095164,-66,6,7,6,18,25,13,19
1522235833095164,-86,-40,-19,-8,-9,-26,-21,-49
1522235833110204,-29,-27,0,4,0,23,15,23
1522235833110204,44,-5,2,-2,-2,12,0,11
1522235833112210,-8,-23,-5,-6,-5,-12,-14,-23
1522235833112210,-74,75,0,0,-1,6,-2,-3
1522235833133266,117,41,9,3,6,0,6,29
1522235833133266,-107,-47,-18,-11,-26,-30,-2,-19
1522235833135271,-86,-17,-13,-7,-9,-3,-39,-23
1522235833135271,16,-11,2,0,-1,-23,29,-3
1522235833146300,47,55,10,5,2,-12,-36,4
1522235833146300,-23,-35,-8,-1,2,-7,12,11
1522235833155324,62,46,2,-3,-5,13,10,3
1522235833155324,0,-65,-7,-3,-3,8,-12,-13
1522235833170364,-11,76,5,-2,-7,-1,-5,-27
1522235833170364,40,80,11,10,9,11,15,14
1522235833172369,65,67,12,-1,-1,-14,-32,6
1522235833172369,-78,-68,-23,-9,-3,4,-17,-20
1522235833193426,-77,18,-5,-2,0,-7,13,-11
1522235833193426,43,26,4,5,5,15,2,6
1522235833194428,26,-59,-4,5,5,8,9,6
1522235833194428,48,-52,8,7,4,-1,45,28
1522235833206460,-8,38,-9,-9,-4,-34,-38,-31
1522235833206460,47,20,-6,-5,-6,19,1,-13
1522235833215484,44,11,-1,0,-4,-6,11,8
1522235833215484,87,14,6,-5,-7,1,-16,8
1522235833230524,-13,-91,2,1,12,45,71,2
1522235833230524,-38,-41,-4,8,7,-21,-33,-9
1522235833231527,-89,-8,-14,-16,-6,-4,-39,-17
1522235833231527,51,33,-3,3,-14,-23,-8,-1
1522235833252583,48,14,6,4,1,13,12,24
1522235833252583,43,11,9,2,4,-9,1,10
1522235833254588,78,56,12,6,8,30,9,31
1522235833254588,95,5,-11,-13,-11,-7,-15,-19
1522235833266620,-112,-111,-16,-3,-11,12,-21,7
1522235833266620,85,17,4,-2,-1,16,7,17
1522235833275644,-74,-25,-17,-4,-2,-19,19,-52
1522235833275644,4,-61,-9,-4,7,-2,-28,-3
1522235833290684,-37,-17,13,5,2,1,6,4
1522235833290684,17,6,-4,-2,2,1,-3,-1
1522235833291687,84,-4,8,1,-3,-10,33,14
1522235833291687,-56,16,-3,-3,2,-5,-14,-20
1522235833312743,50,14,-11,-6,-8,-15,17,-2
1522235833312743,-56,-13,15,0,5,9,7,-1
1522235833314748,21,92,-2,0,-12,-8,5,-2
1522235833314748,-55,-30,-7,2,25,25,18,-4
1522235833326780,5,36,1,-5,-35,-19,-44,8
1522235833326780,32,22,4,7,53,-14,0,2
1522235833335804,-13,-3,0,-1,-34,-30,-13,-13
1522235833335804,41,41,9,2,-1,25,2,13
1522235833349841,-3,-46,-10,-2,-13,-13,39,-4
1522235833349841,51,-11,-7,-8,-17,9,-20,10
1522235833351847,-16,-29,0,-1,9,22,-6,-8
1522235833351847,14,38,6,5,-5,-12,1,10
1522235833372902,-24,-67,-11,-5,2,-17,-10,-12
1522235833372902,-5,16,5,2,-6,16,6,2
1522235833373905,113,21,13,4,16,-3,33,43
1522235833373905,-76,-49,-8,-4,-9,9,-18,-26
1522235833385937,-34,27,3,4,22,21,9,6
1522235833385937,50,70,1,-3,-11,-23,5,-7
1522235833394961,4,-25,-11,-1,0,10,-12,-14
1522235833394961,1,23,5,-1,0,-25,-9,-2
1522235833410001,-59,-11,-1,-1,-1,6,-8,-5
1522235833410001,-18,24,13,4,0,12,24,37
1522235833412007,8,-44,-3,2,-3,-7,9,-2
1522235833412007,94,127,8,-1,-5,8,34,23
1522235833433062,-53,-56,-26,-9,-1,-36,-17,-38
1522235833433062,-18,-40,-5,0,-2,41,3,3
1522235833434065,-31,80,3,-2,0,-33,-36,-10
1522235833434065,26,17,0,1,2,19,-4,7
1522235833446097,74,-18,10,0,-11,-48,21,25
1522235833446097,-44,33,-5,-5,-6,-29,-13,-18
1522235833455121,51,56,6,-3,-14,17,-10,8
1522235833455121,-124,-76,-15,0,22,37,-2,-21
1522235833470161,9,48,6,6,8,20,16,9
1522235833470161,-43,2,-3,-2,-1,8,2,-22
1522235833472167,-15,33,2,2,0,-19,-4,-6
1522235833472167,36,16,6,2,-2,-4,9,27
1522235833493222,127,-9,4,7,3,4,-25,7
1522235833493222,-111,-75,-13,-7,0,2,5,-8
1522235833494225,-20,37,7,0,3,4,-9,-12
1522235833494225,6,8,6,-2,-10,-29,-4,-4
1522235833506257,91,99,16,7,10,17,-13,14
1522235833506257,47,-19,-8,-5,-16,-59,-34,-18
1522235833515281,-34,-48,-3,-1,2,4,5,-9
1522235833515281,-59,-65,0,1,-1,14,0,-3
1522235833530321,56,71,4,-2,6,-1,-12,-5
1522235833530321,15,6,19,8,5,-2,6,17
1522235833532326,-90,-128,-31,-15,-11,-19,-6,-11
1522235833532326,71,-33,12,4,2,-17,16,39
1522235833552380,-88,-18,-20,-10,-11,6,-50,-47
1522235833552380,-65,-47,0,0,7,20,18,0
1522235833554385,17,44,-3,-1,6,6,4,7
1522235833554385,28,-11,-2,0,-5,-7,-3,13
1522235833566416,-78,-39,-4,-3,-1,8,2,-16
1522235833566416,-10,-20,-11,-3,-2,2,-2,-8
1522235833575441,-36,-8,0,0,3,4,13,-4
1522235833575441,16,73,9,-2,-3,2,-17,-8
1522235833589478,48,57,6,2,-1,1,12,23
1522235833589478,27,17,-2,1,-12,-7,-16,-5
1522235833596496,-1,-67,-9,0,-1,15,15,-3
1522235833596496,10,70,6,0,2,-3,4,-11
1522235833612539,-5,-114,-24,-10,-1,9,5,-11
1522235833612539,127,67,8,2,-4,14,3,18
1522235833614545,-85,-19,0,-4,-3,-11,-5,9
1522235833614545,-25,8,-4,0,-1,-4,-20,-21
1522235833626576,-50,33,7,4,8,-5,15,-3
1522235833626576,-7,-1,1,0,0,3,4,2
1522235833635601,50,-8,1,-1,-1,-9,13,1
1522235833635601,16,87,11,2,1,7,4,9
1522235833649638,-78,-77,-21,-7,-8,0,-1,-17
1522235833649638,-81,-4,-8,1,0,8,20,-3
1522235833656657,-1,-12,4,1,3,3,0,-17
1522235833656657,-41,-2,-11,-3,-9,-13,10,-6
1522235833672699,127,38,11,3,1,-15,-6,15
1522235833672699,-49,-31,-6,-3,-2,1,-10,-9
1522235833674706,17,-3,0,2,4,8,3,6
1522235833674706,-12,-24,-3,-5,-1,4,1,-8
1522235833686736,5,9,-1,-3,-5,-31,-7,3
1522235833686736,74,14,1,3,1,3,-6,2
1522235833695760,-57,-49,-8,-3,-13,-47,-15,-3
1522235833695760,36,-27,-1,-2,-18,0,-4,6
1522235833709798,50,35,10,3,-4,12,7,0
1522235833709798,87,24,-8,-6,-3,15,12,1
1522235833716816,22,9,3,0,1,9,-9,-11
1522235833716816,-34,-26,-5,-1,4,-14,2,1
1522235833732859,52,19,5,2,3,35,28,8
1522235833732859,-32,-7,2,0,-4,-23,-12,1
1522235833734864,11,-49,-7,-1,5,31,2,-10
1522235833734864,3,-53,-6,-3,-1,-7,14,-3
1522235833746896,-78,43,7,3,4,11,-38,-3
1522235833746896,-6,-30,-9,-4,-7,-52,-16,-12
1522235833754917,45,49,6,2,-6,37,17,18
1522235833754917,66,-1,-2,-4,6,-12,1,-1
1522235833769958,-23,10,3,0,-8,-28,-3,1
1522235833769958,12,-68,-1,-1,-3,20,-17,2
1522235833775974,30,2,-6,-2,2,-7,17,3
1522235833775974,1,8,5,3,9,22,12,0
1522235833793019,39,22,1,0,8,4,6,10
1522235833793019,-82,-57,-4,2,5,0,3,-8
1522235833794022,7,-9,-11,-8,0,-28,-18,-15
1522235833794022,40,-3,0,1,1,32,-7,5
1522235833806054,-67,-19,-9,-2,-11,-4,11,-13
1522235833806054,75,32,3,4,3,16,18,8
1522235833815077,-1,63,8,3,8,8,0,4
1522235833815077,8,-66,-16,-5,-11,-27,-28,-8
1522235833829115,27,23,-3,-3,-19,0,0,1
1522235833829115,106,122,17,6,13,42,18,12
1522235833844155,69,-2,3,2,-1,-50,-10,12
1522235833844155,47,58,5,3,0,4,1,10
1522235833853179,-40,-5,7,0,10,3,-13,-12
1522235833853179,-41,-48,-11,-2,-9,-14,0,0
1522235833854181,20,2,0,-1,10,19,28,-2
1522235833854181,-69,58,7,2,1,30,3,-2
1522235833875238,-6,-98,-15,-3,-1,3,0,-7
1522235833875238,-53,45,5,4,0,-7,12,1
1522235833877243,70,-23,-2,-5,-8,-16,-33,15
1522235833877243,-11,10,-11,-5,0,-7,-1,-12
1522235833889275,40,-13,8,13,7,23,7,18
1522235833889275,127,-24,-11,-6,0,5,6,-29
1522235833896293,-33,40,-7,1,-7,-3,-16,-3
1522235833896293,25,-63,-7,1,4,-3,0,-11
1522235833912336,-7,37,8,3,3,-16,-6,11
1522235833912336,2,45,8,3,-5,-10,0,15
1522235833914342,-41,10,4,-1,2,31,7,-3
1522235833914342,-70,-37,-4,-7,-5,0,-3,-13
1522235833935397,53,45,2,-4,1,-7,10,3
1522235833935397,-71,-107,-16,-6,-1,-11,3,-7
1522235833937403,21,7,-4,-5,11,14,-23,-14
1522235833937403,20,45,9,4,-12,-12,3,11
1522235833949434,35,83,4,-1,4,21,18,6
1522235833949434,-13,32,-18,-4,2,2,-13,-2
1522235833956453,40,38,4,1,-9,5,-24,3
1522235833956453,-9,-46,-11,-5,2,-5,-4,-15
1522235833972496,-29,11,3,1,3,-22,-7,0
1522235833972496,57,16,6,-1,-3,3,-17,-1
1522235833974502,-66,-27,-1,-1,-2,4,22,16
1522235833974502,74,51,12,2,8,-2,-3,13
1522235833995557,-118,-64,-21,-13,-13,-3,-17,-39
1522235833995557,26,-69,-11,-3,-3,-4,3,-14
1522235833996560,65,-21,-15,-2,-9,-7,-5,-19
1522235833996560,-42,1,5,2,2,8,3,1
1522235834008592,21,8,0,2,0,-13,9,6
1522235834008592,48,28,14,5,3,3,7,20
1522235834017616,-84,-14,-1,-5,-5,-36,-27,-13
1522235834017616,8,1,-1,-2,1,6,19,13
1522235834032656,-32,36,-7,-2,3,8,-1,-27
1522235834032656,2,-42,-1,1,-4,-9,-12,0
1522235834034661,-25,33,10,5,2,2,10,6
1522235834034661,1,12,-6,-3,-4,-18,-6,-2
1522235834055717,110,0,11,7,4,3,16,25
1522235834055717,-48,33,-2,0,-6,3,4,-13
1522235834056720,11,30,2,-2,-6,-27,-5,9
1522235834056720,-12,-25,3,1,3,8,34,13
1522235834068752,-43,-17,-6,-3,-2,7,-8,-15
1522235834068752,20,12,9,3,5,11,16,12
1522235834077776,31,51,2,-1,4,7,-9,5
1522235834077776,-12,-77,-22,-14,-39,-19,-7,-14
1522235834092816,17,25,1,-4,-8,-2,-14,4
1522235834092816,-60,-42,8,-1,25,3,4,8
1522235834094821,-1,29,7,-5,-25,1,8,2
1522235834094821,63,55,-2,-5,-17,-4,-6,-19
1522235834114874,29,-30,-1,1,-8,9,7,5
1522235834114874,41,9,11,3,-42,-6,-12,2
1522235834116880,-97,-32,-9,-5,54,-3,13,-28
1522235834116880,7,51,5,-1,-14,-19,-12,9
1522235834128912,56,-7,-2,0,-10,17,16,17
1522235834128912,21,93,3,0,5,-37,-27,-14
1522235834137936,71,-21,11,10,5,11,-3,15
1522235834137936,-39,-56,-1,3,11,11,-16,-16
1522235834152976,36,55,3,-2,-5,-29,13,5
1522235834152976,-28,0,-11,-12,-48,-23,-17,9
1522235834153978,88,-14,-1,2,23,36,-7,9
1522235834153978,-123,-28,-13,-1,7,-23,-32,-21
1522235834175034,16,26,5,4,10,9,-16,5
1522235834175034,-76,0,-1,-1,1,1,2,2
1522235834177039,-58,-30,-12,-5,-29,-25,5,-12
1522235834177039,31,37,3,4,20,19,10,7
1522235834189071,-48,-68,1,2,15,-3,-4,-7
1522235834189071,54,22,-4,-2,3,23,10,-4
1522235834198096,-81,31,0,-3,-16,0,-1,-7
1522235834198096,-23,47,1,2,0,-1,13,9
1522235834213135,24,6,1,-3,5,-27,-16,-1
1522235834213135,-100,-3,-6,-4,13,3,-1,-8
1522235834214138,-34,-15,-10,-4,-4,-2,-6,-14
1522235834214138,-38,9,3,-3,-5,-10,-15,-4
1522235834235194,-40,8,3,2,0,35,34,4
1522235834235194,122,31,-7,-3,8,6,7,5
1522235834237199,39,-55,-1,1,3,-9,6,9
1522235834237199,18,-21,-2,1,-3,35,25,6
1522235834249231,5,-11,-1,1,25,-6,-36,0
1522235834249231,-64,33,5,0,1,1,-5,-3
1522235834258255,18,-35,-6,-1,1,-22,-26,-10
1522235834258255,127,28,16,3,7,1,10,35
1522235834272293,-66,17,-22,-12,-21,-16,-16,-49
1522235834272293,-55,-20,-8,-1,-5,-1,-1,2
1522235834274298,-39,-26,0,2,2,17,12,-8
1522235834274298,30,38,6,-1,2,1,1,6
1522235834295354,89,46,15,7,0,6,15,26
1522235834295354,-40,-111,-10,-1,6,0,-6,-18
1522235834297359,25,80,-6,-5,-5,6,2,3
1522235834297359,-67,-82,-7,-1,-5,-12,-28,-16
1522235834309391,-8,-48,-1,0,22,17,7,0
1522235834309391,85,32,-3,-3,0,-27,-4,0
1522235834318415,42,50,18,7,-15,0,17,36
1522235834318415,-25,-43,-10,-1,14,-3,-2,-33
1522235834332452,-38,-46,1,-1,-12,-11,-39,1
1522235834332452,45,12,0,-3,-7,10,-13,-18
1522235834334458,-54,-6,10,2,3,-22,13,10
1522235834334458,-39,1,-13,-9,3,11,6,-13
1522235834355514,5,3,-5,3,-1,-15,-3,7
1522235834355514,-52,-47,1,0,-1,5,1,2
1522235834356517,87,76,-9,-1,16,-18,-26,3
1522235834356517,-92,-17,16,3,-4,11,13,-15
1522235834368548,97,-52,-22,-9,-9,-1,12,-7
1522235834368548,35,92,1,-3,11,8,-1,5
1522235834377572,75,50,10,5,-9,35,5,9
1522235834377572,-48,-61,-12,1,11,0,8,-12
1522235834392613,107,55,4,-4,-38,-29,13,39
1522235834392613,-57,27,-4,6,45,33,2,-24
1522235834394618,-52,20,5,3,37,32,-21,-18
1522235834394618,64,120,-2,-6,-9,-21,-5,10
1522235834415674,-75,-39,9,2,-3,17,4,2
1522235834415674,4,-6,-1,-1,-17,-29,-9,3
1522235834416676,-57,-10,4,0,-4,17,32,2
1522235834416676,31,4,5,3,-9,-4,-16,14
1522235834428708,-128,-10,-6,-6,9,10,6,-12
1522235834428708,-14,-4,-7,-5,-28,-24,-9,0
1522235834437732,45,10,4,-2,-25,17,16,-6
1522235834437732,-9,-86,-11,-5,1,-38,-2,0
1522235834452772,-4,25,8,4,-26,0,-15,0
1522235834452772,91,41,0,1,17,12,25,28
1522235834454778,-31,-21,-3,-4,-26,-21,-9,-17
1522235834454778,91,37,-3,-1,8,11,25,7
1522235834474831,-39,17,6,-2,-4,1,-2,-8
1522235834474831,52,-27,11,7,4,5,15,11
1522235834476836,13,8,-9,-4,-10,-20,-4,-9
1522235834476836,85,-39,-7,-4,0,2,3,19
1522235834488868,-33,31,-3,0,17,4,-21,-5
1522235834488868,5,33,-6,-4,-13,-6,-12,-16
1522235834497892,81,-11,-5,2,2,-4,8,10
1522235834497892,22,9,9,1,-9,-4,-16,0
1522235834512932,40,49,6,2,-9,5,26,0
1522235834512932,-74,-87,-8,2,57,6,-24,2
1522235834513935,-89,-18,12,3,-4,-3,-9,12
1522235834513935,-6,-31,-2,-6,-6,-14,-5,-22
1522235834534991,31,-35,-9,2,-16,9,8,-13
1522235834534991,0,42,7,4,0,-5,27,9
1522235834536996,-28,-61,-3,1,23,-16,4,-5
1522235834536996,92,22,7,3,5,-1,-1,32
1522235834549029,-19,-2,-9,-3,-11,-5,-32,-5
1522235834549029,-67,-34,-3,-6,-28,1,-16,-32
1522235834558052,11,-49,-11,-3,7,16,0,-1
1522235834558052,-14,45,10,6,-12,-7,-2,4
1522235834573092,71,-2,0,-4,17,9,14,-1
1522235834573092,21,52,11,8,-26,8,-17,18
1522235834574095,-2,-90,-14,-9,-13,-35,-5,-12
1522235834574095,9,19,-9,-5,-16,-13,-14,0
1522235834595150,-47,-77,-12,1,16,-5,6,-3
1522235834595150,10,51,10,1,0,14,15,2
1522235834597156,-6,24,4,-1,-7,-10,3,2
1522235834597156,-6,3,-1,-4,6,22,-15,-22
1522235834609188,-31,-28,8,6,-3,-45,-8,1
1522235834609188,18,19,-7,-8,-8,-12,2,13
1522235834618212,-62,-83,-20,-6,-13,-5,-14,-25
1522235834618212,-61,-7,3,1,9,9,11,0
1522235834631247,-6,66,-3,1,12,31,17,-6
1522235834631247,-9,-31,-2,1,9,7,2,-4
1522235834640271,108,27,7,-2,-15,-12,9,19
1522235834640271,-14,43,1,1,2,-14,4,0
1522235834655310,10,5,-4,-1,-1,-7,2,-1
1522235834655310,39,32,2,-3,-5,0,-4,1
1522235834657316,74,-7,-2,1,6,17,10,4
1522235834657316,-4,-66,-6,-3,-5,7,0,1
1522235834669348,81,16,5,-1,1,-5,-3,5
1522235834669348,34,-30,-3,-3,-22,-8,4,0
1522235834678372,-34,7,-1,1,40,17,8,0
1522235834678372,-62,30,-4,-3,-2,4,-17,-17
1522235834692409,-9,0,4,3,5,11,11,4
1522235834692409,-45,-40,-6,-4,4,2,1,-4
1522235834698425,53,16,4,0,-20,28,48,18
1522235834698425,-95,25,3,5,18,1,-4,-2
1522235834715470,-37,-46,-4,-3,6,27,-4,-3
1522235834715470,-53,-48,-4,-1,6,-38,-8,-14
1522235834716473,-37,32,-9,-7,-12,-7,-8,-13
1522235834716473,3,10,-2,0,5,3,21,-4
1522235834728505,80,109,19,5,-12,-10,6,23
1522235834728505,-115,-25,-25,-10,-11,19,-18,-47
1522235834737529,55,-31,-5,3,7,-1,13,7
1522235834737529,27,38,3,-3,-14,-14,-29,-12
1522235834752569,25,-63,-16,-8,2,-28,-28,-19
1522235834752569,18,34,8,-1,-27,-19,5,17
1522235834758585,-112,-91,-11,2,54,67,25,-19
1522235834758585,16,38,2,-2,-6,-24,-26,12
1522235834775630,9,-18,0,3,5,17,42,4
1522235834775630,29,24,3,1,4,-3,-2,6
1522235834776633,-21,2,8,1,-19,-8,-18,3
1522235834776633,-54,-6,6,6,6,16,28,14
1522235834788665,78,-88,-15,-9,-14,-14,-37,-16
1522235834788665,-63,37,3,0,-5,-7,6,-13
1522235834797689,-3,-8,-6,-2,6,0,-2,9
1522235834797689,-52,-24,-7,-4,2,7,3,-22
1522235834811726,-48,19,-1,0,-2,-20,8,-5
1522235834811726,33,8,2,-1,2,-1,-21,10
1522235834818745,25,11,3,-1,-9,-13,-23,2
1522235834818745,25,5,0,0,-2,3,4,8
1522235834835790,-41,-6,-3,-2,0,10,10,0
1522235834835790,69,-10,4,3,14,14,18,17
1522235834836793,-90,-26,2,2,-7,-17,-10,-13
1522235834836793,56,-9,3,-5,-42,8,20,8
1522235834857849,-26,62,2,4,50,7,-22,-2
1522235834857849,46,-1,-7,-4,3,7,15,-4
1522235834859854,9,21,-2,-4,-10,-25,-25,2
1522235834859854,44,8,3,1,-5,-13,-6,-4
1522235834871887,-15,-5,2,2,-8,13,3,6
1522235834871887,7,-14,5,3,5,-6,-10,7
1522235834878905,26,44,8,1,0,17,1,1
1522235834878905,9,-28,-5,-1,9,3,3,6
1522235834894947,-31,22,6,1,-37,-18,-1,-11
1522235834894947,18,-112,-14,0,23,17,4,2
1522235834896953,-27,126,-5,-5,-13,1,3,1
1522235834896953,21,2,-3,-2,5,-16,-6,-12
1522235834918008,9,6,-3,-1,-8,3,2,-14
1522235834918008,24,40,9,1,-13,-5,1,5
1522235834919011,59,-38,-2,-1,1,-9,-19,-1
1522235834919011,32,40,4,2,-4,12,3,8
1522235834931043,-51,-66,-2,-3,3,-2,-5,5
1522235834931043,38,28,2,0,7,2,-5,5
1522235834940067,-45,4,-6,-6,-5,19,16,-32
1522235834940067,2,-13,-9,-3,6,-24,-15,-1
1522235834955107,20,27,2,1,6,-2,-10,3
1522235834955107,-24,-21,0,-2,1,-4,-10,-3
1522235834957113,12,-16,4,1,-10,-17,7,11
1522235834957113,3,21,8,2,5,11,-41,3
1522235834978169,-37,-49,1,2,-1,1,0,-1
1522235834978169,94,21,-3,-2,0,-6,-6,17
1522235834979172,21,39,-1,-9,-6,-3,9,-8
1522235834979172,-109,-2,-13,-3,3,-3,5,-42
1522235834991205,15,22,2,3,3,-6,-3,9
1522235834991205,18,-56,-7,-2,-5,-3,1,-4
1522235835000227,7,44,10,5,2,8,11,6
1522235835000227,74,7,-3,-8,-18,4,2,10
1522235835015267,54,-14,-3,-3,5,6,5,2
1522235835015267,-101,28,-4,-1,3,-22,-11,-50
1522235835017273,9,-21,2,7,-23,-18,-9,13
1522235835017273,-94,-82,-15,-11,5,28,-11,-5
1522235835037326,51,35,7,4,2,-11,16,13
1522235835037326,-78,82,2,-2,5,11,7,10
1522235835039331,29,5,5,0,7,-19,-32,2
1522235835039331,52,-9,-2,0,1,-16,1,6
1522235835051363,-18,-42,-7,0,2,25,-4,2
1522235835051363,-42,-8,0,0,-2,9,0,1
1522235835060387,-6,-76,1,2,5,10,39,4
1522235835060387,80,64,-3,-5,0,-7,0,13
1522235835075427,84,69,7,1,-1,9,4,12
1522235835075427,-55,-78,-12,1,-7,-9,-8,-17
1522235835076430,-22,7,-1,2,5,0,-8,-3
1522235835076430,-11,59,7,-1,7,7,30,14
1522235835097486,-31,-52,-7,-1,-3,8,14,-14
1522235835097486,102,89,12,-2,3,0,15,26
1522235835099491,-61,-54,-2,0,-12,12,-13,8
1522235835099491,-78,-24,-12,-6,-20,-1,-19,-34
1522235835111524,-12,-55,-2,5,28,21,0,-1
1522235835111524,70,34,11,5,6,34,15,24
1522235835120547,-72,5,-8,-9,-14,-26,2,-28
1522235835120547,87,25,13,14,40,22,1,27
1522235835135587,10,25,-3,-3,-8,6,8,-3
1522235835135587,-21,-38,-4,1,-20,-50,-41,-14
1522235835136591,20,26,6,9,7,1,18,29
1522235835136591,49,54,3,-3,-4,-10,-26,8
1522235835157648,-77,0,-11,-3,3,-5,-32,-46
1522235835157648,-1,-48,-4,-3,-15,10,18,12
1522235835159651,32,41,3,3,0,5,-10,3
1522235835159651,-34,-16,7,5,-2,-8,15,-9
1522235835171683,-3,23,-4,-7,-3,-28,-23,-1
1522235835171683,1,5,-4,-2,-22,1,0,6
1522235835180707,50,111,2,3,14,-15,-20,-11
1522235835180707,-30,-93,-3,-2,-6,-12,11,-9
1522235835195747,22,31,5,3,-3,-17,-22,4
1522235835195747,11,-1,3,0,8,4,2,7
1522235835196750,37,-14,-1,-4,-3,10,3,15
1522235835196750,-21,38,-2,-2,2,15,6,-10
1522235835217805,-87,-41,-8,-2,-15,-7,30,-4
1522235835217805,24,6,-4,-5,-3,-28,-10,0
1522235835219811,38,12,5,4,-11,3,-23,19
1522235835219811,-22,29,-1,1,32,-3,-12,-9
1522235835231843,10,-33,-4,-3,-7,-3,-11,11
1522235835231843,32,26,-3,-1,13,14,10,-2
1522235835240867,16,-15,-5,-4,5,-3,3,14
1522235835240867,-25,33,3,-3,-12,14,42,10
1522235835254904,35,-21,-5,2,-6,-20,-6,7
1522235835254904,-66,20,6,3,11,-9,1,-10
1522235835256909,69,-9,-2,2,4,4,-19,2
1522235835256909,-88,-58,-11,-5,-8,-5,3,-10
1522235835277965,52,62,9,1,-10,6,12,5
1522235835277965,-90,-10,7,-1,-8,19,-6,-2
1522235835278968,-13,-99,-11,-4,2,15,8,-32
1522235835278968,102,14,6,5,5,-1,-13,26
1522235835291000,-71,5,-1,0,-1,-20,-4,4
1522235835291000,51,38,-7,-7,-14,3,1,-5
1522235835300024,-27,-45,-4,-5,4,6,-9,-9
1522235835300024,8,-1,-3,-3,-8,-4,1,4
1522235835315064,-11,29,0,-3,0,22,16,5
1522235835315064,37,40,1,1,2,-22,-2,0
1522235835317069,-26,28,-1,-1,11,7,5,-20
1522235835317069,18,8,7,7,-5,-1,9,4
1522235835338125,8,-85,-12,-8,-2,-5,-9,-2
1522235835338125,-44,7,-10,-5,4,7,-7,-37
1522235835339128,24,29,1,-6,-6,-6,3,10
1522235835339128,-22,-15,-2,-1,1,-4,-16,-13
1522235835351160,-24,-21,-1,0,-3,-1,-7,-13
1522235835351160,-17,-46,-2,1,2,8,-3,-15
1522235835360184,52,75,2,-1,-1,-3,12,8
1522235835360184,-40,-61,-2,1,1,7,13,3
1522235835375224,75,52,-3,-7,-4,-4,-14,0
1522235835375224,-33,-83,0,5,2,2,10,1
1522235835377229,19,13,1,-2,1,-1,-26,-1
1522235835377229,62,-20,1,-4,-6,-16,11,11
1522235835398285,-38,53,2,1,-2,11,41,2
1522235835398285,2,-20,-5,-4,-1,5,-4,5
1522235835399288,-7,-17,9,3,7,16,12,15
1522235835399288,0,-11,-7,-6,-18,-57,-51,-6
1522235835411319,-3,-31,-1,2,1,17,36,6
1522235835411319,30,17,-5,-4,0,-5,-6,0
1522235835420344,-45,-10,-1,1,-1,-15,-1,1
1522235835420344,9,9,2,-1,3,19,11,2
1522235835435383,-17,20,1,0,1,-17,-35,-16
1522235835435383,-41,29,3,2,-2,-21,2,5
1522235835437389,24,-19,-8,-2,-6,-4,-2,-3
1522235835437389,-32,-37,-6,-1,0,13,0,-9
1522235835458445,35,79,15,3,0,14,5,16
1522235835458445,-31,-64,4,3,8,15,27,7
1522235835460450,10,32,2,-3,-7,-13,-16,-5
1522235835460450,54,21,-1,0,-3,-6,7,4
1522235835471480,11,-2,4,0,1,-8,10,2
1522235835471480,32,6,2,0,3,2,-29,16
1522235835480505,-62,33,3,-1,4,-6,7,-16
1522235835480505,41,14,0,2,3,10,14,6
1522235835495543,16,26,-4,0,4,15,9,7
1522235835495543,-27,-41,-3,-6,-9,-9,-16,-5
1522235835496546,-12,-22,-6,-3,1,-13,-1,-6
1522235835496546,7,32,6,0,4,1,14,3
1522235835517602,6,-15,2,1,3,-4,-1,11
1522235835517602,19,89,7,0,-5,13,23,-7
1522235835519608,47,-110,-17,-7,-9,-17,-11,-13
1522235835519608,-117,15,-4,1,6,-3,-12,-34
1522235835531639,-30,-38,-7,-1,0,3,-21,-6
1522235835531639,34,3,-3,-2,0,-3,8,8
1522235835540663,16,52,9,5,3,11,25,10
1522235835540663,20,-17,-2,-1,0,7,6,11
1522235835554701,9,-41,-6,-5,7,-17,-17,-15
1522235835554701,46,57,5,4,5,8,-7,7
1522235835568738,-71,-88,4,2,-14,5,5,-7
1522235835568738,10,34,-5,-8,-7,-9,-66,3
1522235835577762,-12,14,-4,0,-4,9,5,-12
1522235835577762,4,25,6,4,0,-5,8,7
1522235835579767,9,16,-2,-2,0,-3,-8,-6
1522235835579767,-56,-5,0,0,1,15,11,5
1522235835591800,13,-30,-5,-2,-4,-7,-8,-8
1522235835591800,57,41,1,0,2,1,2,-9
1522235835600823,-59,10,-3,0,-1,-1,-2,12
1522235835600823,26,78,10,5,5,13,6,1
1522235835614861,-46,-70,-26,-10,-26,-2,18,-13
1522235835614861,-18,-33,-5,2,8,14,-24,5
1522235835621879,90,74,4,1,9,-17,-18,12
1522235835621879,-59,-42,-3,1,-11,-5,-10,-11
