timestamp,emg1,emg2,emg3,emg4,emg5,emg6,emg7,emg8
1522235848692616,-1,24,0,10,-2,19,2,-13
1522235848692616,-21,-5,-1,4,-4,-8,3,2
1522235848693619,11,3,-1,-3,0,3,-1,-6
1522235848693619,-4,19,1,-5,4,-7,0,3
1522235848695624,-4,-56,-5,6,0,22,4,9
1522235848695624,6,17,1,-2,-2,2,-2,-3
1522235848696629,-93,-63,1,0,0,-3,-10,-12
1522235848696629,85,76,-4,-10,-8,-8,8,9
1522235848704648,13,6,1,-2,-4,-1,0,-7
1522235848704648,3,-67,-12,6,5,0,-24,-1
1522235848709661,28,48,3,1,3,4,5,25
1522235848709661,-122,-98,-13,-2,5,24,15,-19
1522235848720690,23,42,4,0,-6,-17,-27,-13
1522235848720690,24,44,-4,-2,0,-16,5,8
1522235848734728,99,100,14,6,2,-4,7,25
1522235848734728,-59,-88,-6,-3,-5,-21,-16,-9
1522235848740744,9,8,7,7,4,2,19,3
1522235848740744,-3,38,-5,-7,-6,-2,-5,-4
1522235848770824,-26,-22,-2,1,6,18,-11,1
1522235848770824,-14,-5,7,5,8,2,3,5
1522235848801906,-36,-13,-10,-6,-3,-10,-6,-9
1522235848801906,53,82,10,-3,0,-10,-4,-3
1522235848803912,12,-22,-5,6,-2,-1,-9,0
1522235848803912,29,-21,-5,1,-2,3,8,6
1522235848803912,-22,17,-2,-2,1,2,-2,-8
1522235848803912,41,-47,-11,-4,1,14,-2,5
1522235848806920,-5,37,2,3,-9,0,4,-12
1522235848806920,-40,-2,0,-1,-8,-17,-6,-2
1522235848813938,2,-25,-1,2,3,2,4,0
1522235848813938,25,22,2,3,6,11,15,4
1522235848822963,-23,18,3,2,-3,-23,-25,0
1522235848822963,8,-57,-1,0,-6,3,-1,-6
1522235848837000,-99,-10,8,0,0,-7,4,5
1522235848837000,-26,-13,3,-7,0,0,-9,-7
1522235848844018,115,61,-15,-2,-5,3,15,12
1522235848844018,-37,78,11,4,5,-14,-20,0
1522235848852039,91,31,-2,-4,0,-17,-1,14
1522235848852039,-105,-57,-2,0,3,11,-4,-6
1522235848867079,-18,-27,9,9,5,-2,11,8
1522235848867079,54,-19,-13,-8,-3,2,-11,-10
1522235848874098,50,88,3,-6,-11,7,1,11
1522235848874098,-78,-51,1,7,8,-11,14,10
1522235848890141,-17,18,9,-2,2,15,-10,-1
1522235848890141,63,29,1,-1,0,2,5,9
1522235848890141,-19,-20,-5,-2,-6,7,-3,-4
1522235848890141,15,46,3,3,-5,-11,2,5
1522235848912200,11,-52,0,0,1,9,-1,-13
1522235848912200,22,5,-5,-6,-8,1,3,6
1522235848913202,16,74,4,-5,6,3,-2,-4
1522235848913202,3,-14,-9,-6,-15,-10,-12,-9
1522235848926237,-47,-36,-5,2,-3,-2,0,-2
1522235848926237,-37,-28,7,5,11,3,6,-11
1522235848934258,-29,-20,-1,-2,3,20,4,-1
1522235848934258,106,-40,-5,6,1,-7,-9,-3
1522235848949298,-68,-33,3,-2,0,22,24,-1
1522235848949298,23,101,8,8,-6,-42,-2,5
1522235848950300,-54,-60,-17,9,0,-6,1,3
1522235848950300,66,64,-1,4,2,24,8,7
1522235848972359,-39,43,5,1,-8,-3,-1,-12
1522235848972359,-43,-22,-2,0,4,11,-1,-6
1522235848973362,-1,-15,-3,-8,0,-6,-1,-5
1522235848973362,-45,99,12,-6,-2,-4,-5,-8
1522235848994418,21,-89,-29,-4,3,-7,-10,0
1522235848994418,-17,16,4,-8,-3,27,13,10
1522235848995421,-20,-5,0,-3,-3,-9,-5,1
1522235848995421,42,-9,-6,-6,-6,-18,-7,-6
1522235849009458,-26,-6,5,0,5,1,0,-9
1522235849009458,-17,-12,-8,-3,-1,0,-5,-6
1522235849010461,65,-15,0,-2,-4,-12,-4,10
1522235849010461,0,38,-8,-8,-6,-8,-8,-6
1522235849032519,49,22,-3,-4,-2,-9,-14,3
1522235849032519,-22,-18,-3,0,5,-3,-16,-5
1522235849033522,3,-56,-5,-2,-14,0,-4,-6
1522235849033522,10,-8,6,5,8,9,6,7
1522235849054578,-9,-47,-7,-6,-7,-8,-3,-2
1522235849054578,6,30,0,2,-2,1,4,-6
1522235849055580,2,19,2,0,10,5,3,3
1522235849055580,-40,-33,2,1,2,4,-10,-2
1522235849069617,-52,-29,3,3,3,-1,14,0
1522235849069617,23,32,-3,-6,4,21,5,5
1522235849070621,24,19,1,-1,-11,-27,-7,-9
1522235849070621,-51,-56,-6,2,0,4,3,-1
1522235849092679,94,89,10,1,5,15,0,11
1522235849092679,14,-65,-4,-6,-3,-9,7,5
1522235849092679,3,15,3,0,2,-2,-11,5
1522235849092679,-13,5,-1,-1,6,13,4,-4
1522235849114737,-44,-11,8,2,0,-9,2,-2
1522235849114737,51,23,-5,-2,3,-3,-7,-6
1522235849115740,-70,-16,-2,2,-1,5,0,-8
1522235849115740,-55,-17,-1,-5,-5,-9,3,-1
1522235849129777,44,78,2,1,0,21,0,2
1522235849129777,-6,1,0,5,2,6,10,6
1522235849130780,7,-39,2,-10,-7,-9,8,12
1522235849130780,-34,-22,-4,10,8,0,-8,-10
1522235849151836,-13,21,3,-1,0,-10,-1,0
1522235849151836,26,-6,-2,-4,-7,-7,-8,-3
1522235849152839,-22,-55,-1,0,7,7,-13,-7
1522235849152839,20,21,-2,-2,-8,-4,-5,5
1522235849174897,-11,-23,-5,0,1,-12,-7,1
1522235849174897,-39,2,5,6,1,-2,1,7
1522235849175900,-25,32,1,-3,4,22,10,-3
1522235849175900,55,34,-1,-7,-17,-11,0,1
1522235849189938,-93,-109,-1,4,4,6,1,0
1522235849189938,55,63,1,-3,-7,2,-13,4
1522235849190941,15,25,-3,4,5,-3,3,-8
1522235849190941,-22,-51,-5,-1,0,-7,11,-2
1522235849211996,19,68,3,-3,-11,-3,-8,4
1522235849211996,-99,-111,2,11,12,12,11,-8
1522235849212999,24,68,1,-10,-4,0,-2,8
1522235849212999,-34,22,6,4,-1,2,0,-1
1522235849235057,44,-5,-1,1,6,12,3,-7
1522235849235057,20,-53,-11,-7,-10,-18,-12,-6
1522235849235057,-3,17,3,4,5,-3,-3,-1
1522235849235057,-27,-38,-6,-6,-7,-12,2,3
1522235849250097,39,51,1,0,-5,8,14,6
1522235849250097,-72,-9,-5,-4,1,-12,-15,-7
1522235849250097,14,-19,-1,2,-1,-7,3,-2
1522235849250097,31,26,1,-3,-6,-2,-9,-9
1522235849272156,0,2,-11,-6,7,9,-1,-5
1522235849272156,-22,26,1,-3,-7,-6,13,1
1522235849273159,-9,-10,0,-4,-2,-3,-4,0
1522235849273159,14,23,0,-3,0,3,6,0
1522235849295217,7,-59,-5,-4,-7,-14,-13,-3
1522235849295217,-26,54,-1,-4,1,17,5,1
1522235849295217,44,60,5,3,2,7,-6,1
1522235849295217,7,-43,-2,4,1,-2,-3,3
1522235849309254,-63,-16,-2,-2,0,0,-4,-9
1522235849309254,83,6,-3,-1,-4,-7,-6,2
1522235849310257,18,-65,-7,-2,-4,6,8,4
1522235849310257,-15,6,4,4,8,-5,12,-1
1522235849332316,12,41,4,-3,-3,-10,-19,-2
1522235849332316,-42,8,0,3,6,6,5,-6
1522235849333319,-29,-24,-6,-2,-4,-10,-3,0
1522235849333319,28,-28,-2,0,2,3,-1,-3
1522235849354375,-17,-5,0,-1,1,-3,2,-2
1522235849354375,38,38,1,-3,-2,-4,1,0
1522235849355377,1,-48,-5,-3,-1,-1,-4,-3
1522235849355377,-16,0,-8,-2,-10,-14,-6,-1
1522235849369414,-20,34,0,0,-4,-9,7,5
1522235849369414,11,-54,-4,2,4,1,-4,-5
1522235849370417,-30,16,1,-3,-5,7,-1,-12
1522235849370417,29,38,-2,0,4,-18,-13,-1
1522235849392476,53,41,2,0,5,4,9,12
1522235849392476,-82,-76,6,1,0,-8,4,-10
1522235849393479,43,36,-5,-9,-7,-11,-5,2
1522235849393479,-22,-1,6,-1,1,3,-3,0
1522235849414534,77,36,0,-1,2,-4,15,4
1522235849414534,-25,-58,-4,-1,-4,24,-19,3
1522235849415537,9,13,7,4,1,-6,6,-2
1522235849415537,-7,-8,-10,-4,2,4,-7,-8
1522235849429574,18,41,2,-2,-7,-21,4,0
1522235849429574,-30,-60,-13,-3,11,5,0,-6
1522235849430577,42,79,-4,0,-3,-5,-7,3
1522235849430577,-14,-66,-6,-3,8,17,-1,5
1522235849452636,-42,18,2,3,-8,25,-3,-7
1522235849452636,27,-29,-5,-5,-8,-14,13,4
1522235849452636,-44,-16,2,4,8,13,23,4
1522235849452636,-6,21,0,-2,-4,-11,1,-2
1522235849474694,-45,-44,1,0,5,2,1,-7
1522235849474694,-32,41,1,-5,-5,-2,-3,-5
1522235849475697,81,80,8,4,7,10,-3,4
1522235849475697,35,35,2,-2,-11,4,5,9
1522235849497755,-50,24,2,1,5,-6,-5,-11
1522235849497755,-14,-29,-18,-5,-9,-3,-6,-4
1522235849498758,-25,18,5,0,3,2,-7,-3
1522235849498758,-21,0,0,-1,0,0,-4,-11
1522235849511793,44,-21,-6,-4,-8,-14,-13,6
1522235849511793,48,28,10,7,7,4,10,6
1522235849512796,27,-33,-6,-4,0,-2,-3,-5
1522235849512796,55,67,3,6,2,1,-1,9
1522235849534854,-18,-84,-10,-9,1,2,2,-4
1522235849534854,-47,3,7,3,-8,4,4,-3
1522235849535857,-48,-34,-3,6,-1,-5,-5,4
1522235849535857,15,28,2,-2,-5,13,7,0
1522235849548891,6,-23,0,1,0,-21,-18,8
1522235849548891,70,66,0,-5,0,4,1,-2
1522235849556913,-58,-26,-3,-4,-8,-12,4,-3
1522235849556913,0,-34,-3,-1,0,-3,-1,0
1522235849571953,1,5,0,-1,-1,9,5,5
1522235849571953,1,-11,-1,-4,-3,-12,-5,-2
1522235849572955,-9,2,-3,0,0,0,2,1
1522235849572955,-27,-28,-1,-2,5,3,2,-3
1522235849595014,0,17,0,-4,-13,-6,-8,-7
1522235849595014,65,2,0,-2,-2,4,8,12
1522235849596017,-28,-37,-3,2,7,-4,-13,-6
1522235849596017,19,42,2,-2,-1,2,10,0
1522235849609051,-13,-28,1,-2,1,3,-2,0
1522235849609051,43,112,6,-10,-21,-4,-1,1
1522235849617073,-33,-91,-17,-1,8,-9,1,-4
1522235849617073,7,-23,1,1,9,3,-24,-5
1522235849632115,30,8,-1,2,-5,6,9,-3
1522235849632115,-23,51,9,9,31,18,9,2
1522235849633117,26,-7,-2,-21,-27,-24,6,5
1522235849633117,11,0,7,12,5,18,10,0
1522235849655186,-67,-15,-8,-5,-4,-18,-25,-9
1522235849655186,67,71,-9,-1,-8,-12,-15,-1
1522235849656183,-50,-70,-3,-4,-19,8,-2,-7
1522235849656183,13,-18,0,4,14,18,-4,7
1522235849669212,65,56,6,3,-4,-2,10,7
1522235849669212,-36,-30,-4,-5,-11,-4,3,-9
1522235849677235,-3,27,-5,4,25,5,-6,4
1522235849677235,-7,5,-3,4,-9,-12,-7,-5
1522235849692274,-69,-32,5,2,4,-2,3,-17
1522235849692274,40,-20,-2,3,5,6,-9,11
1522235849693275,53,73,6,0,-1,13,7,6
1522235849693275,-93,-43,-5,-4,-12,-26,-3,-12
1522235849714331,50,23,-3,-4,4,8,7,12
1522235849714331,-56,-73,2,4,7,4,-2,-5
1522235849715334,-7,-19,6,2,1,4,-2,2
1522235849715334,17,-21,-8,-4,-9,9,4,-3
1522235849729371,-18,2,-7,-4,1,-5,0,-3
1522235849729371,16,57,-3,-1,-2,-12,-5,3
1522235849737393,-38,6,4,-1,0,9,1,-4
1522235849737393,12,25,-6,-6,-4,-7,-1,1
1522235849752433,4,7,-1,-1,2,-2,0,-1
1522235849752433,-42,-23,8,2,-6,1,4,4
1522235849753435,56,12,-2,1,4,-1,-6,-8
1522235849753435,15,13,-4,-4,-7,-5,1,2
1522235849774491,-15,53,5,3,6,5,2,0
1522235849774491,-5,-18,-8,-5,-3,-6,1,-4
1522235849775494,44,9,0,3,-1,-5,-1,4
1522235849775494,-16,-18,-5,-2,0,16,1,-9
1522235849797552,29,-6,-3,-3,-1,-24,-4,-3
1522235849797552,4,-19,1,-5,-2,15,1,-2
1522235849798555,-27,-7,5,6,4,3,5,10
1522235849798555,21,37,-3,-9,-7,-16,-7,-8
1522235849820613,21,1,-7,-3,-1,0,-9,-6
1522235849820613,-62,-58,-8,2,-8,-9,-5,-6
1522235849821619,28,12,2,0,6,14,18,11
1522235849821619,-76,1,11,6,9,-15,-5,1
1522235849834651,8,-41,-7,-4,-15,-1,5,2
1522235849834651,-36,-19,6,2,-2,4,2,-7
1522235849835654,41,23,-10,-7,-3,-3,-14,-9
1522235849835654,-10,4,4,3,-4,-5,10,22
1522235849857713,5,10,-2,-2,3,4,-4,-10
1522235849857713,25,-37,-9,-1,3,-2,6,-4
1522235849858715,-21,-37,5,4,-3,-1,-23,-2
1522235849858715,14,0,4,4,4,11,8,6
1522235849880773,-47,-11,-3,-2,0,3,-7,-1
1522235849880773,33,20,1,0,2,-2,-1,-1
1522235849881776,-28,7,1,1,3,11,8,-3
1522235849881776,43,15,3,-1,-6,-12,-6,-2
1522235849894811,-17,-50,0,3,3,10,5,2
1522235849894811,29,115,9,3,16,1,4,4
1522235849895813,-24,11,-1,-3,-12,-15,1,-1
1522235849895813,3,-35,0,2,4,6,-3,0
1522235849916870,14,5,2,0,-2,-1,7,7
1522235849916870,-24,7,-5,-5,-4,-7,-8,-15
1522235849917872,-14,3,0,4,3,-2,1,2
1522235849917872,3,-7,-9,-6,-3,10,-1,-16
1522235849940933,-35,9,2,-1,-4,-13,-1,4
1522235849940933,-31,-13,2,3,-9,-5,-2,10
1522235849940933,0,-54,-8,-8,-7,-12,-7,-5
1522235849940933,-3,47,6,3,-3,-11,2,-5
1522235849954972,-3,-60,-4,1,0,2,1,-9
1522235849954972,-13,-36,-5,-6,0,-3,-5,-3
1522235849955974,-18,12,1,3,-1,-4,2,-1
1522235849955974,-25,2,7,1,-4,-2,-2,8
1522235849977029,9,-20,-9,-4,1,-2,-7,-2
1522235849977029,39,14,-5,-3,4,1,0,10
1522235849978032,19,6,0,-2,-4,-1,-2,-2
1522235849978032,-10,12,-4,-5,-3,0,18,-2
1522235850000090,3,-41,-10,-4,-6,-7,-30,-10
1522235850000090,-46,22,3,4,2,-4,0,3
1522235850001093,9,27,-1,-4,1,10,4,0
1522235850001093,2,14,-7,-1,2,6,-6,-6
1522235850015130,3,34,9,-1,7,15,12,1
1522235850015130,-34,-22,-7,-4,-6,-8,-5,-7
1522235850015130,51,6,-9,-10,-5,-13,-9,-2
1522235850015130,-40,-15,7,-4,-1,3,5,0
1522235850037189,40,68,5,-1,2,-6,0,1
1522235850037189,28,-40,-3,-3,0,12,-2,4
1522235850038192,-81,-51,-9,-1,0,-18,6,-11
1522235850038192,19,-2,-2,2,1,-14,-8,-3
1522235850060250,-7,24,4,2,2,12,1,7
1522235850060250,-29,-24,-1,-2,-8,-8,7,-4
1522235850061253,32,44,3,4,2,-2,-1,2
1522235850061253,-1,-5,-6,0,-7,3,-4,0
1522235850075290,-51,-17,-2,1,5,-21,4,-1
1522235850075290,-26,-6,3,5,15,0,-17,3
1522235850075290,40,33,2,-3,-14,-3,0,2
1522235850075290,-31,-70,-5,9,6,8,3,-1
1522235850097349,25,69,7,8,0,3,7,3
1522235850097349,-7,-12,-8,2,-8,-6,-9,-8
1522235850098352,-7,-14,0,6,4,-8,-3,-4
1522235850098352,-24,-44,-2,-4,0,-3,4,-5
1522235850120410,-1,15,2,1,-1,-12,-12,1
1522235850120410,3,7,4,5,5,26,10,1
1522235850121413,-13,-3,-4,-12,-15,-4,-6,-1
1522235850121413,27,55,2,9,9,-5,-2,1
1522235850134448,-33,-92,-5,-3,-2,-11,3,-2
1522235850134448,26,48,6,-2,-8,-9,-5,10
1522235850142469,-69,-34,8,3,17,14,4,-7
1522235850142469,29,9,-6,1,-2,3,2,2
1522235850157509,25,20,3,-1,5,11,5,-1
1522235850157509,-42,-6,4,-3,1,-5,9,5
1522235850158512,57,53,-6,-4,7,16,1,-2
1522235850158512,-7,25,-2,-6,-18,-21,-5,-3
1522235850180570,-56,-48,-8,0,1,19,-1,0
1522235850180570,28,8,3,0,-5,-14,-3,-6
1522235850181573,1,-6,-2,-1,-3,-9,-11,1
1522235850181573,-24,1,3,2,5,2,-1,-3
1522235850193605,9,-37,-6,-4,-7,8,1,5
1522235850193605,-19,-20,-4,-2,-1,-6,-3,-3
1522235850202629,47,31,1,-3,-2,26,6,-2
1522235850202629,64,5,-7,0,3,-11,4,-1
1522235850217669,-18,12,1,-8,-18,0,7,-5
1522235850217669,-34,-9,1,14,8,4,16,-2
1522235850217669,-3,-45,-2,0,0,-12,-7,-3
1522235850217669,-13,4,3,-5,-2,4,-3,2
1522235850240730,106,126,4,1,0,1,0,0
1522235850240730,-13,-57,-3,-3,9,6,0,-8
1522235850241733,41,68,2,3,-10,-10,-3,1
1522235850241733,-46,-22,0,1,-2,17,-3,0
1522235850253765,40,31,-1,-5,-3,-14,-1,4
1522235850253765,-24,-31,-3,-2,-5,-5,-8,1
1522235850262789,0,30,-3,1,7,-1,10,0
1522235850262789,-10,-31,-2,-5,0,1,-3,2
1522235850276826,-12,-7,2,3,5,5,3,0
1522235850276826,92,33,-1,-4,11,6,-5,0
1522235850277828,-66,-104,-6,3,-9,-7,1,-2
1522235850277828,-15,-35,0,0,0,4,17,4
1522235850300890,-5,1,-1,-1,-2,-6,-27,-5
1522235850300890,15,22,-4,-3,-7,-4,0,4
1522235850300890,-18,7,0,0,4,-3,2,1
1522235850300890,-16,12,6,2,-2,1,1,1
1522235850313924,34,-80,-9,-2,5,2,1,3
1522235850313924,-40,-49,-8,-3,-4,0,-5,-3
1522235850321946,-10,71,1,-5,-5,-25,-6,-7
1522235850321946,16,-19,-7,-3,-8,0,-13,-6
1522235850336986,15,28,-4,0,0,1,6,5
1522235850336986,31,29,2,-4,-8,-7,2,5
1522235850337989,10,11,-3,4,6,5,13,4
1522235850337989,19,31,4,3,3,-3,-17,-6
1522235850360047,-15,-8,1,2,14,10,1,-4
1522235850360047,-4,14,-5,-8,-18,-9,1,0
1522235850361050,-18,-60,5,3,7,16,2,5
1522235850361050,40,78,1,-5,-5,-13,-7,-5
1522235850374084,-44,-71,-2,2,-2,2,4,3
1522235850374084,-5,34,3,-3,0,6,-5,-4
1522235850382106,8,43,-1,-5,-5,-11,-5,-2
1522235850382106,-27,-17,-7,-3,-1,6,-4,-5
1522235850398149,28,29,-2,-1,-2,-6,0,2
1522235850398149,25,31,1,-2,-4,-7,10,3
1522235850398149,-54,-52,-2,1,-1,7,-3,-6
1522235850398149,15,-13,-5,-1,4,0,0,-1
1522235850420207,37,70,4,-5,-10,-8,3,4
1522235850420207,-14,-83,-12,0,-3,-17,-10,-5
1522235850421210,-6,10,-5,-2,-1,8,-9,-16
1522235850421210,-42,-56,-5,-2,-2,-8,3,-3
1522235850443268,-44,-43,2,3,-1,0,0,-3
1522235850443268,12,29,0,2,1,5,0,1
1522235850443268,5,20,5,-1,-2,-1,1,8
1522235850443268,20,-20,-2,2,0,2,-5,-16
1522235850457305,-8,-8,-4,-2,-2,0,-4,-7
1522235850457305,8,86,10,3,1,5,0,-4
1522235850458308,37,0,-1,-1,0,11,21,11
1522235850458308,-10,-16,-10,-1,-3,-9,-26,-11
1522235850480367,-44,-29,-2,-2,-2,0,3,-5
1522235850480367,26,21,4,2,3,-4,-2,-7
1522235850481370,11,21,2,-1,4,14,0,10
1522235850481370,18,43,4,0,-13,-12,6,-1
1522235850503428,-12,-19,-10,-3,2,6,5,-12
1522235850503428,-14,-28,2,-1,-5,-3,3,4
1522235850503428,-44,-15,0,3,-1,7,8,4
1522235850503428,10,59,3,-1,4,-3,4,8
1522235850517466,-29,0,-2,-1,0,-5,1,2
1522235850517466,-2,62,5,0,12,6,2,-2
1522235850518468,7,-76,-7,-2,-7,-1,-6,-2
1522235850518468,25,58,8,2,3,9,3,12
1522235850540527,24,9,-1,-1,-4,-16,-6,3
1522235850540527,-32,8,-3,2,2,-11,-2,-3
1522235850541529,26,-51,-4,-3,-1,-11,-9,-6
1522235850541529,-47,-47,-6,-1,0,5,1,-5
1522235850562585,90,43,-2,-5,-3,3,-2,10
1522235850562585,-4,-39,-6,-5,-4,-4,-4,-1
1522235850563588,39,82,4,0,0,14,-8,-10
1522235850563588,-50,-101,-5,-4,-7,-11,1,-4
1522235850576623,-99,-9,7,3,3,1,-4,-4
1522235850576623,-4,-35,-4,1,-2,5,-4,-3
1522235850584644,52,43,3,-4,-1,10,1,7
1522235850584644,-1,31,-2,-2,2,4,1,-4
1522235850600687,34,33,-2,0,3,2,-1,1
1522235850600687,-58,-68,-7,-3,-13,2,4,-10
1522235850601689,23,50,2,1,0,6,-12,0
1522235850601689,-5,-59,-2,-2,1,-2,3,5
1522235850622745,6,8,7,0,2,0,-7,1
1522235850622745,57,27,3,3,2,-8,8,8
1522235850623748,-84,-30,-3,5,3,-5,3,-1
1522235850623748,-38,32,5,6,-1,1,-4,0
1522235850637786,65,20,1,5,-1,-1,-2,-2
1522235850637786,16,10,-1,2,2,5,1,2
1522235850637786,-21,-36,-5,1,-6,-9,1,-9
1522235850637786,3,-14,0,1,4,1,-5,-2
1522235850660846,-21,-6,2,0,-4,-3,8,8
1522235850660846,-16,24,6,-2,0,3,-6,0
1522235850660846,6,-53,-2,0,3,-5,1,-2
1522235850660846,2,50,0,-3,11,1,-6,-7
1522235850682905,41,-72,-10,-5,-9,-7,2,-2
1522235850682905,-7,-16,-5,-3,-2,-2,-7,-2
1522235850683908,-22,37,-10,-8,-9,-2,-10,-14
1522235850683908,6,-13,2,-1,1,9,11,7
1522235850696942,-13,19,-3,-5,0,-13,-2,-4
1522235850696942,1,16,6,-1,3,-2,5,4
1522235850697945,-6,-54,-1,4,2,-6,-13,-1
1522235850697945,35,40,1,0,-3,-6,0,6
1522235850720003,-28,14,2,0,4,15,2,10
1522235850720003,8,31,2,1,-4,16,-5,-5
1522235850721007,-85,-73,-14,-8,9,17,29,-1
1522235850721007,68,39,-17,-11,-23,-32,-27,-9
1522235850743065,-12,17,5,1,3,4,-5,-4
1522235850743065,20,-13,-4,-3,-2,-9,-8,-2
1522235850744068,-7,27,6,2,2,-9,-7,4
1522235850744068,0,-43,3,5,3,9,8,3
1522235850757102,-4,-15,-4,-1,-1,-3,1,-5
1522235850757102,8,0,0,1,2,1,0,0
1522235850758105,22,10,2,-1,-8,-10,1,0
1522235850758105,-66,35,9,6,18,19,11,4
1522235850780164,-2,-63,-12,-17,-22,0,-11,-6
1522235850780164,39,41,-9,7,8,-9,0,-1
1522235850781167,12,54,4,0,2,-14,0,-2
1522235850781167,-7,-14,5,5,-1,3,12,8
1522235850803225,33,127,8,-3,3,-5,-21,-2
1522235850803225,-42,-93,-14,-4,-5,-4,-5,-13
1522235850804228,7,-3,-1,-2,-5,7,3,-3
1522235850804228,-22,-13,9,4,4,-1,22,5
1522235850817262,32,64,6,3,3,10,-3,-1
1522235850817262,24,-58,-12,-9,-10,1,-24,-1
1522235850818265,33,39,2,3,-7,-18,-21,1
1522235850818265,-25,-50,-4,-3,-5,10,3,-7
1522235850840324,-27,-22,-7,-1,-1,0,6,-9
1522235850840324,-5,40,9,1,13,1,5,3
1522235850841326,-29,-30,0,0,-6,6,-1,-1
1522235850841326,72,34,-3,-3,-12,-29,-8,5
1522235850863385,-35,-70,-3,4,6,0,6,-7
1522235850863385,-7,29,-1,-3,-9,-2,5,5
1522235850863385,23,45,3,0,1,-11,0,-2
1522235850863385,-22,-76,1,4,3,11,1,-2
1522235850877422,-14,-45,-11,-4,-9,-18,-5,2
1522235850877422,36,67,3,0,3,-1,9,6
1522235850878425,3,-28,0,0,3,-4,-5,-3
1522235850878425,1,42,2,-3,-5,7,-10,-2
1522235850900483,-50,9,9,5,8,4,16,1
1522235850900483,30,-53,-5,-2,-5,-2,7,0
1522235850901486,8,35,1,0,-2,-5,-8,3
1522235850901486,33,19,-6,-3,3,-7,-16,-7
1522235850922542,-16,15,7,4,0,-4,1,0
1522235850922542,15,-9,1,-2,-8,-7,7,5
1522235850923545,-55,6,-10,-4,-3,-17,-11,-8
1522235850923545,0,37,3,1,3,17,17,-4
1522235850937582,-7,-16,-5,-1,-4,-11,-26,-9
1522235850937582,-25,-5,2,0,6,4,-4,4
1522235850938585,12,-45,-5,-2,-8,8,6,2
1522235850938585,26,35,2,1,-3,3,-3,6
1522235850960643,-53,-84,0,0,12,2,9,4
1522235850960643,10,-1,-7,-4,-6,0,-8,-7
1522235850961646,41,12,10,9,7,-6,7,8
1522235850961646,-44,-15,-7,-4,-4,-6,-8,-14
1522235850982702,2,5,-2,-4,-1,4,6,3
1522235850982702,-70,8,4,0,-2,0,-4,1
1522235850983705,6,-12,1,-4,-4,-1,-4,-4
1522235850983705,20,-12,-3,4,-3,-5,-3,3
1522235850997742,-8,-12,2,1,-1,2,0,-5
1522235850997742,-36,28,2,-5,1,7,13,-1
1522235850997742,50,63,1,2,1,3,-7,8
1522235850997742,-23,-87,-7,-5,-2,4,-1,4
1522235851019801,29,40,0,1,-2,-21,-17,-10
1522235851019801,-14,19,1,2,1,-2,2,-7
1522235851020804,5,22,4,0,-2,-4,6,-3
1522235851020804,-18,-38,-4,-2,-3,-2,-4,-9
1522235851041859,12,15,-5,0,-3,7,6,1
1522235851041859,15,-44,2,3,1,-5,-3,-1
1522235851049880,-9,-5,-3,-1,-1,1,-3,-5
1522235851049880,4,48,-1,-1,-2,8,5,3
1522235851056899,8,-20,-2,1,-4,2,5,3
1522235851056899,-17,16,4,1,6,5,2,8
1522235851064920,37,-2,-8,-3,-14,11,3,8
1522235851064920,19,-3,0,-2,1,1,1,8
1522235851079961,-12,20,0,0,-2,0,2,3
1522235851079961,20,18,-2,-1,-5,-7,-7,-5
1522235851080963,-23,-51,1,1,6,1,14,4
1522235851080963,0,7,1,0,-2,-6,-10,-4
1522235851103021,-9,-4,2,1,-3,-8,18,4
1522235851103021,21,-7,-3,-1,0,7,-4,1
1522235851104025,-41,6,5,1,0,-4,-1,-2
1522235851104025,10,4,-3,-1,-1,2,-4,-12
1522235851117059,-19,-13,-9,-4,16,20,-6,-10
1522235851117059,37,23,7,3,-14,-28,-3,1
1522235851125080,25,-12,-6,-1,0,2,5,6
1522235851125080,-34,-16,-8,0,-4,-13,-5,-6
1522235851140120,-7,20,0,-1,4,3,0,-5
1522235851140120,-44,-15,-1,-2,2,3,0,-6
1522235851140120,38,50,3,0,2,-5,-3,-1
1522235851140120,25,0,4,1,2,-2,-1,3
1522235851163181,16,-9,5,3,-2,13,4,16
1522235851163181,18,1,-3,-1,1,1,1,2
1522235851164184,-25,26,0,-3,-1,2,-18,-14
1522235851164184,-2,-41,-4,-2,-2,-4,3,8
1522235851176216,-4,-19,3,0,-5,-6,-6,-1
1522235851176216,-1,0,-6,1,2,18,14,0
1522235851185240,36,30,1,2,0,-2,-23,1
1522235851185240,-38,-8,-8,-5,-2,-2,-3,-11
1522235851200280,57,68,-4,-5,-9,-17,-17,-8
1522235851200280,-47,-39,-1,0,0,-8,-3,-1
1522235851200280,-18,-39,-1,0,4,7,9,-3
1522235851200280,38,84,9,1,-2,4,0,5
1522235851223341,-45,-77,-5,1,0,-2,-1,-9
1522235851223341,26,21,-2,-3,-9,1,-1,-3
1522235851223341,-28,-22,-6,0,0,-1,3,-6
1522235851223341,45,18,3,0,-6,-1,-3,1
1522235851236376,-7,10,0,0,-3,-1,7,5
1522235851236376,-48,-14,5,1,7,5,-1,1
1522235851244397,57,29,8,2,2,-14,0,-3
1522235851244397,-41,-15,-1,2,4,4,2,0
1522235851259437,35,32,0,-2,-3,3,2,8
1522235851259437,-5,-10,-2,-2,0,-2,-3,1
1522235851260440,-16,1,0,0,1,5,1,4
1522235851260440,-32,-21,0,1,4,-26,-7,-3
1522235851282498,61,11,-1,0,0,0,0,5
1522235851282498,-21,-38,-4,-3,-3,13,-2,-9
1522235851283501,-27,-38,-5,-5,-3,-9,-6,-8
1522235851283501,22,33,2,0,1,5,3,4
1522235851296536,-38,-23,-5,-3,-6,-11,-10,-5
1522235851296536,60,28,2,-1,0,-1,12,6
1522235851304557,-24,-41,-12,-3,-2,-16,3,-3
1522235851304557,-39,-48,-3,-1,3,5,-5,-5
1522235851319597,-9,8,4,-1,-3,-3,-2,0
1522235851319597,15,25,4,0,2,5,-5,-1
1522235851320600,-37,-17,-4,0,-3,14,16,-2
1522235851320600,32,19,8,3,1,-2,5,10
1522235851342658,-4,16,-5,-3,0,-5,-3,-8
1522235851342658,54,63,-4,-4,-3,-7,-8,4
1522235851343661,-14,-24,3,-1,-2,19,3,-1
1522235851343661,28,51,4,0,4,1,4,7
1522235851356696,-18,-52,-1,-1,1,2,16,-3
1522235851356696,-32,12,-2,-1,-2,-4,1,2
1522235851364717,-7,12,2,1,1,-2,-2,-2
1522235851364717,16,25,-1,-4,-7,-8,-1,-4
1522235851379757,-2,5,-1,0,2,8,6,3
1522235851379757,23,-12,4,4,0,-8,-18,1
1522235851380760,9,52,-2,-5,-1,-8,-10,5
1522235851380760,-84,-109,-8,-3,-9,20,9,-5
1522235851402818,33,65,0,-3,1,15,25,5
1522235851402818,-43,-15,-3,0,-1,-10,-6,-14
1522235851403821,21,16,-1,0,-2,5,1,-5
1522235851403821,32,22,5,-1,3,-2,-19,8
1522235851425880,4,-6,-6,-3,-3,-4,-1,-3
1522235851425880,-30,-40,-5,-4,-1,5,4,-5
1522235851425880,12,-3,3,0,-2,-13,-8,0
1522235851425880,13,9,-3,0,0,4,8,-3
1522235851439917,-14,-4,2,1,-6,-21,-10,-3
1522235851439917,10,20,0,-2,1,2,-4,3
1522235851440920,-35,-22,0,0,0,2,3,1
1522235851440920,-7,-61,-16,-5,-7,-5,-4,-6
1522235851462978,9,-2,-2,-1,2,0,-19,1
1522235851462978,38,88,10,1,4,8,15,1
1522235851463981,-28,-69,-7,1,-2,15,7,3
1522235851463981,38,22,-4,-2,1,-3,2,6
1522235851485037,-41,-15,-5,-3,-12,-5,-6,-7
1522235851485037,-3,-28,-5,-5,-1,-3,-5,1
1522235851486040,27,17,2,-1,3,-5,13,0
1522235851486040,-2,-1,1,3,-1,-13,-9,1
1522235851500077,9,68,10,2,8,16,2,0
1522235851500077,11,-3,-5,-3,-3,-5,-4,3
1522235851501080,-50,3,0,0,-4,-3,2,-4
1522235851501080,48,86,4,-2,1,-6,-4,-2
1522235851523138,10,13,-2,0,3,8,-1,5
1522235851523138,-15,-9,4,4,1,-8,3,0
1522235851524141,-3,18,-2,0,6,-1,-2,-4
1522235851524141,-27,6,6,1,-3,10,2,-2
1522235851545197,32,21,2,-2,-1,12,4,-4
1522235851545197,-70,-101,-10,-3,-3,-29,-34,-8
1522235851546200,-5,28,3,4,1,-3,-12,6
1522235851546200,3,22,-2,-3,-3,-9,2,8
1522235851560236,-1,-45,-1,-1,-2,-6,-1,-3
1522235851560236,-31,10,4,2,4,11,8,0
1522235851560236,0,18,-4,-2,-6,-17,-5,-5
1522235851560236,22,14,-5,-4,-4,-11,-6,0
1522235851583298,-2,-36,0,-1,11,3,5,3
1522235851583298,31,36,0,-2,-8,-4,-7,0
1522235851583298,-17,-39,-1,-2,-1,21,-1,1
1522235851583298,-12,-1,-6,-3,-6,8,4,-12
1522235851605356,1,7,-3,1,-3,-4,2,1
1522235851605356,31,-3,-3,-2,-1,-6,1,6
1522235851607362,10,-7,0,-1,-1,-1,0,0
1522235851607362,-32,49,14,5,9,-1,-1,5
1522235851619394,-1,-61,-11,-4,-6,4,-5,5
1522235851619394,13,-5,-3,-2,0,11,8,-9
1522235851620397,32,93,4,1,1,2,-2,0
1522235851620397,11,0,-10,-3,0,5,-2,-9
1522235851643458,-3,44,2,0,-6,-20,-10,2
1522235851643458,-10,-3,2,0,-2,0,16,3
1522235851643458,16,-1,-5,1,-1,-9,0,1
1522235851643458,-19,-31,-1,-1,-1,-4,1,-5
1522235851665516,0,37,2,-1,-1,4,4,2
1522235851665516,2,0,-5,-1,15,9,-7,-9
1522235851666519,-12,-46,-1,1,-11,-14,1,-4
1522235851666519,-6,-27,-2,-2,-4,1,11,7
1522235851679554,-3,-3,2,2,0,-8,-6,0
1522235851679554,-19,-15,0,-9,-6,-6,2,-1
1522235851680557,14,15,-7,-3,1,-15,-8,-10
1522235851680557,-17,-93,-5,-2,-1,-14,7,2
1522235851702615,-10,-24,1,3,0,-12,-22,-5
1522235851702615,-26,-24,-3,1,-1,4,7,5
1522235851703618,8,-14,-5,0,2,-3,-4,-8
1522235851703618,11,14,-2,-1,-2,0,-5,-3
1522235851725676,8,35,2,0,1,5,13,1
1522235851725676,23,23,0,-3,-5,-3,-2,-1
1522235851726679,-8,-72,-5,0,0,8,-1,-10
1522235851726679,-17,40,5,2,3,4,-5,-4
1522235851739714,-4,12,-4,-4,-4,2,0,-3
1522235851739714,19,37,6,0,-3,6,-1,5
1522235851740716,-14,13,2,-2,0,4,3,6
1522235851740716,12,52,9,0,0,0,3,5
1522235851762775,-23,-92,-7,0,16,16,-4,9
1522235851762775,15,8,-6,-1,-13,-16,-6,-17
1522235851763778,8,33,6,0,0,11,1,2
1522235851763778,-17,-9,-6,-3,0,16,-5,-3
1522235851785836,18,-23,-7,-3,-4,2,3,0
1522235851785836,8,-32,-1,-1,5,10,-3,9
1522235851785836,-13,58,2,-1,-1,-14,-2,-10
1522235851785836,-18,-38,-1,0,3,1,1,0
1522235851799873,12,27,-3,-1,-5,-7,-1,-10
1522235851799873,-15,12,0,-2,-1,-3,-1,7
1522235851800876,9,5,2,2,-2,2,0,7
1522235851800876,37,6,0,-5,-4,-4,0,6
1522235851822935,-31,-7,0,-4,-2,-4,-5,-16
1522235851822935,-20,16,4,7,5,9,6,-6
1522235851823938,12,-46,-4,-4,-1,2,-3,3
1522235851823938,26,24,-5,-2,-4,-3,-2,1
1522235851845996,27,64,9,1,-3,-1,0,7
1522235851845996,16,40,-1,-1,-1,2,6,3
1522235851845996,-80,-120,-6,-1,4,5,-3,-5
1522235851845996,22,-9,-5,-1,-11,-10,-3,-7
1522235851860033,5,43,2,0,-1,3,1,-2
1522235851860033,28,-16,1,0,1,-2,0,3
1522235851868055,38,-29,-11,-3,-6,-4,-2,0
1522235851868055,-15,5,1,0,7,8,-3,-7
1522235851883094,-3,-9,3,3,2,14,10,8
1522235851883094,1,-5,-8,-6,-9,-37,-7,-7
1522235851884097,-8,13,3,1,1,11,6,5
1522235851884097,-48,-34,-3,0,3,-3,3,-7
1522235851905153,11,53,-2,-2,-5,-9,-3,-2
1522235851905153,-25,-112,-4,-2,4,12,-12,0
1522235851906156,3,19,0,1,-3,-4,-4,-1
1522235851906156,-23,-3,-2,-3,-2,-1,3,0
1522235851920195,10,1,2,-1,0,2,4,6
1522235851920195,17,23,5,3,1,7,4,-1
1522235851920195,-21,23,2,0,-5,-12,-5,1
1522235851920195,32,-38,-2,2,-1,1,-5,1
1522235851943255,-26,11,1,-3,-2,-8,-2,-1
1522235851943255,6,51,-1,-4,-3,-4,0,2
1522235851944257,6,-3,2,1,4,7,4,5
1522235851944257,-10,-11,-9,-5,-1,-2,-4,-4
1522235851965313,-23,-41,0,-1,11,2,-5,-6
1522235851965313,5,17,-2,1,-1,-8,4,3
1522235851966316,20,52,-2,-3,-6,-35,-1,-1
1522235851966316,4,20,3,-2,-3,-9,-1,0
1522235851979350,-9,-23,-4,-4,-1,-3,-8,-7
1522235851979350,-8,-6,1,-2,3,7,0,-1
1522235851980353,-19,1,-3,-2,2,5,-1,-9
1522235851980353,-10,-2,2,1,0,-3,-5,1
1522235852003415,-19,-15,-1,2,-2,-7,-1,-1
1522235852003415,-30,-17,1,-2,0,10,1,-2
1522235852003415,52,40,-1,0,-2,-1,-6,-2
1522235852003415,9,43,4,-1,1,8,0,-2
1522235852025473,-31,-34,-5,0,-3,6,8,0
1522235852025473,8,25,1,-1,-6,4,1,-1
1522235852026476,24,17,4,0,-5,-4,-4,-1
1522235852026476,4,13,-3,1,-3,1,4,3
1522235852039510,9,58,4,2,-1,0,2,2
1522235852039510,-35,-86,-14,-2,-2,-3,-6,-5
1522235852047532,0,-20,-4,-2,1,0,-11,-1
1522235852047532,18,-9,4,2,2,7,10,5
1522235852062572,1,1,-4,-4,-4,-6,-6,4
1522235852062572,13,-4,2,-1,3,3,5,-7
1522235852063574,-7,7,-6,-3,-1,-2,-3,-2
1522235852063574,-26,-59,-5,-1,0,4,3,-2
1522235852085633,50,36,2,-2,-2,-5,8,4
1522235852085633,-45,-56,-8,-4,4,5,-1,-2
1522235852086636,-29,-9,2,1,-1,3,4,1
1522235852086636,50,25,-2,-1,-1,-8,-12,5
1522235852098668,-27,-37,-5,-1,1,2,16,-5
1522235852098668,11,46,7,3,2,5,0,5
1522235852107692,-16,-13,3,1,-2,5,5,-2
1522235852107692,-12,-29,-10,-7,-6,-19,-6,-3
1522235852122731,67,12,2,1,-2,-5,-8,6
1522235852122731,-42,-11,-4,-3,-4,-11,-5,0
1522235852122731,-7,-3,-1,2,3,14,5,-7
1522235852122731,12,39,5,1,3,1,5,6
1522235852145793,-18,-48,-8,-4,-5,-15,-11,-3
1522235852145793,23,60,7,3,0,-5,3,3
1522235852145793,10,24,4,0,1,14,4,6
1522235852145793,-37,-54,-12,-6,-3,0,-3,-21
1522235852158827,-23,20,3,1,1,-4,-5,-4
1522235852158827,61,6,2,-1,-1,-8,-1,5
1522235852166849,-14,15,-4,-2,-6,-22,-12,-4
1522235852166849,8,6,-1,3,1,16,14,7
1522235852181888,-36,-57,-6,0,-2,1,7,-7
1522235852181888,18,21,3,-5,-1,5,-5,-6
1522235852182891,-20,-45,-14,-5,-3,-2,1,-3
1522235852182891,0,18,5,3,1,3,4,6
1522235852205953,-10,-5,2,-3,2,11,3,-1
1522235852205953,-16,-4,0,2,1,-6,-16,-2
1522235852205953,6,-1,3,-1,8,12,7,-2
1522235852205953,6,16,1,2,-6,-15,-9,-1
1522235852218987,14,8,-1,0,0,-4,-7,-1
1522235852218987,-5,-10,-10,-8,-8,2,-2,-2
1522235852227009,11,0,6,2,3,-5,6,-3
1522235852227009,3,31,0,-3,1,3,-25,-2
1522235852242049,-33,-23,-5,-1,0,-6,-7,-2
1522235852242049,18,22,4,1,5,0,3,4
1522235852243052,-8,4,-5,-1,-3,10,-2,1
1522235852243052,12,1,6,-1,1,-2,19,4
1522235852265110,-5,-5,-5,-1,-4,-1,0,-3
1522235852265110,-28,15,-1,0,1,9,6,-3
1522235852266113,17,56,1,2,-2,4,4,5
1522235852266113,-17,-17,-3,-2,-4,-4,-11,-1
1522235852279147,55,24,-6,-4,-6,5,-4,0
1522235852279147,26,10,-7,-1,-5,-26,-3,1
1522235852287169,4,12,7,1,-2,-1,5,3
1522235852287169,-29,14,2,-2,2,-8,-15,-11
1522235852302208,5,0,-2,-2,7,1,-6,3
1522235852302208,-10,-4,4,3,-2,11,6,-1
1522235852303211,-10,-6,1,1,-5,-20,-8,-8
1522235852303211,-25,-74,-5,-4,-1,9,9,11
1522235852325270,54,25,8,2,2,-6,-4,6
1522235852325270,-55,4,-5,-5,-5,-8,-8,-12
1522235852326273,-43,-111,-17,-3,-2,-1,-2,-4
1522235852326273,14,43,10,5,3,9,14,8
1522235852348331,12,15,0,-2,-5,-2,-6,-1
1522235852348331,50,9,-4,-2,1,-13,-2,-5
1522235852349334,-16,-11,-1,-2,-7,12,-3,-2
1522235852349334,27,30,0,-1,3,7,2,8
1522235852362368,-46,-108,-6,0,-4,9,5,-6
1522235852362368,27,17,-1,-1,-4,-14,-3,7
1522235852363371,-22,8,2,2,2,1,1,2
1522235852363371,33,30,1,-3,-1,-6,-12,-6
1522235852385430,-4,3,-9,-2,-3,1,17,-2
1522235852385430,-16,-22,-1,1,13,19,-14,-17
1522235852386432,47,14,1,-2,-8,-19,-4,5
1522235852386432,14,41,3,3,0,0,5,4
1522235852408491,-19,-12,-6,-3,-8,-15,-10,-7
1522235852408491,22,57,6,-2,1,9,6,6
1522235852408491,-20,-70,-5,2,5,13,4,-1
1522235852408491,7,17,4,-2,-4,-16,-5,-3
1522235852422528,-37,-16,1,-4,3,-4,-3,-7
1522235852422528,5,4,0,1,-4,2,7,13
1522235852423531,48,37,5,0,-3,-2,-8,0
1522235852423531,-30,-29,-5,-1,1,-9,-3,-5
1522235852445589,-19,-7,-2,-1,-2,-10,3,-2
1522235852445589,-10,11,-4,-2,-5,-6,-2,1
1522235852447595,-31,-59,-6,-1,2,2,-2,-3
1522235852447595,-3,26,2,2,-2,3,1,-4
1522235852467648,37,22,-2,-2,-1,4,-3,1
1522235852467648,-14,-45,-4,-5,-5,-5,1,-7
1522235852468651,13,53,8,2,1,-5,-10,-2
1522235852468651,59,2,-10,-6,-4,0,-3,1
1522235852482688,21,48,4,1,2,3,1,6
1522235852482688,-38,-79,-3,0,-1,10,6,0
1522235852482688,19,36,3,-1,7,-7,-1,-1
1522235852482688,-13,-27,4,3,-3,-3,1,4
1522235852505750,-26,-9,4,0,0,22,5,-1
1522235852505750,48,27,0,-3,-3,3,-5,2
1522235852506752,-50,-23,-1,2,3,10,5,-6
1522235852506752,6,1,-1,-3,0,-22,-7,4
1522235852527808,38,-15,-6,-5,-3,-4,-4,-6
1522235852527808,-9,-1,1,4,3,-1,6,-1
1522235852528811,2,12,0,0,-1,-7,0,3
1522235852528811,-8,20,-1,-3,1,12,4,-4
1522235852541845,-50,-39,2,5,3,4,1,-2
1522235852541845,20,4,-3,-2,-4,-3,-2,3
1522235852550870,-20,-32,-5,0,-1,12,1,-3
1522235852550870,-4,6,-3,-2,-4,-15,-1,6
1522235852565909,-24,40,3,0,3,-3,-4,1
1522235852565909,24,17,2,1,-2,-9,-2,0
1522235852566912,-1,26,2,1,-2,9,-5,4
1522235852566912,21,37,7,-1,5,15,11,1
1522235852587968,-62,-58,-10,-1,-4,-4,7,-9
1522235852587968,44,19,-1,-1,9,-24,-20,1
1522235852588971,-8,4,-2,-2,-13,1,5,-1
1522235852588971,-25,-20,-2,-1,-1,13,3,-3
1522235852602005,16,35,1,-2,0,-19,-10,0
1522235852602005,23,31,1,0,-2,5,7,2
1522235852618048,46,-11,0,1,5,-5,-1,1
1522235852618048,-13,-27,-7,-3,-2,3,-9,-6
1522235852625067,-12,-80,-2,-2,-1,-1,2,-1
1522235852625067,-113,-71,-1,1,1,9,-5,-6
1522235852632085,61,37,-4,-3,-3,-2,3,-1
1522235852632085,-41,-23,-6,-2,-3,-5,-1,-2
1522235852648128,58,70,0,0,0,2,-7,7
1522235852648128,-18,-8,0,-2,-3,-1,6,-5
1522235852649131,-23,-11,4,1,3,1,4,-1
1522235852649131,13,4,2,0,3,-5,-18,-5
1522235852661163,49,33,1,-1,-4,-20,-5,5
1522235852661163,-15,2,2,0,-1,8,8,-3
1522235852671191,9,61,2,3,0,-2,4,1
1522235852671191,-28,-75,-6,-3,11,1,-1,-3
1522235852685227,-18,7,5,3,-6,-12,8,6
1522235852685227,15,24,-3,-1,-4,2,0,6
1522235852687232,-2,-12,-2,0,-1,-8,-6,-4
1522235852687232,-5,9,3,2,-1,-4,2,-1
1522235852716309,32,53,5,1,2,6,-5,1
1522235852716309,27,-7,-2,-3,1,-3,-1,0
1522235852717312,-50,-52,-8,-3,-5,5,1,-5
1522235852717312,37,46,0,-1,-3,10,-2,4
1522235852721322,-41,-11,-2,-2,-3,-2,5,-5
1522235852721322,36,19,0,0,0,0,2,1
1522235852730346,-32,-30,-8,-1,1,-6,-9,-2
1522235852730346,-47,-60,-7,-3,-3,20,20,-12
1522235852745386,68,54,4,0,-4,-10,-11,3
1522235852745386,-33,-1,-3,0,2,19,3,-5
1522235852747392,33,32,4,0,0,-7,1,0
1522235852747392,-22,66,6,2,1,-2,0,9
1522235852768447,-25,-51,-9,0,2,14,9,-8
1522235852768447,-67,-31,-1,1,-1,-12,-1,-2
1522235852769450,107,43,-7,-10,0,-7,-14,1
1522235852769450,11,22,3,1,-12,-15,8,3
1522235852781482,-33,-26,5,-1,4,9,-9,-10
1522235852781482,-27,-54,-7,0,0,4,0,2
1522235852790506,-33,-2,5,5,3,0,3,-7
1522235852790506,-5,-60,-15,-4,-3,-7,-11,-8
1522235852805546,-20,-40,-4,0,2,14,8,-1
1522235852805546,15,20,6,-1,-1,3,2,5
1522235852807552,15,28,8,4,2,0,10,8
1522235852807552,37,-4,-7,-5,-2,-1,13,-6
1522235852827605,-39,-9,-4,-5,1,7,-30,-6
1522235852827605,-58,12,9,-6,1,-5,-2,2
1522235852829610,88,83,-12,-10,-11,-12,-10,-2
1522235852829610,2,23,3,-4,-1,-13,-2,8
1522235852841642,-14,-17,-3,-4,10,7,5,-7
1522235852841642,19,26,3,-2,-6,0,3,4
1522235852850666,-60,-37,-1,-1,0,2,-11,-10
1522235852850666,-8,-56,-2,2,-1,8,-10,-6
1522235852865706,25,59,3,0,-1,15,9,4
1522235852865706,-21,-9,-11,-4,-4,-16,-8,-3
1522235852866709,-16,-68,-6,0,-4,5,3,5
1522235852866709,7,4,6,4,4,5,5,10
1522235852887765,-23,-7,-1,1,-4,1,8,3
1522235852887765,7,5,-3,0,-6,-6,-13,-8
1522235852889770,7,-10,5,6,2,3,9,9
1522235852889770,-34,-3,-4,-1,-3,-8,-19,-7
1522235852901802,19,2,0,2,-6,-9,-15,-2
1522235852901802,7,9,0,3,0,-11,2,0
1522235852910827,-18,70,4,1,-3,-8,-2,-2
1522235852910827,-86,-89,-9,-1,2,10,-6,-6
1522235852924863,56,80,7,-1,-2,-9,6,5
1522235852924863,32,16,-12,-2,9,15,4,-3
1522235852931882,-4,-4,1,0,-4,7,2,-5
1522235852931882,-37,-1,3,-1,2,4,10,-5
1522235852947924,41,66,3,0,-4,0,10,5
1522235852947924,17,-46,-8,-4,0,3,-5,-8
1522235852949930,-22,-16,6,2,-4,-4,-4,2
1522235852949930,32,57,1,-5,-5,2,-1,-4
1522235852961962,-51,-19,2,0,2,-3,-21,0
1522235852961962,42,-19,3,-2,-5,-24,21,0
1522235852978005,-34,-22,-5,1,5,16,13,2
1522235852978005,58,-21,-11,-3,-2,-2,-15,0
1522235852985023,-7,16,-3,-3,-5,-19,18,2
1522235852985023,-18,25,4,0,2,9,-23,-5
1522235852992042,-14,3,1,-2,-2,-24,-2,8
1522235852992042,-18,-9,3,4,10,-1,3,2
1522235853008084,33,20,-9,-5,-9,0,1,-2
1522235853008084,13,35,0,0,0,11,0,0
1522235853009087,48,24,-1,2,-5,-7,6,-1
1522235853009087,4,6,0,-3,-2,8,-7,0
1522235853022122,-46,-54,0,1,8,0,-11,0
1522235853022122,5,55,5,0,-3,-1,-2,4
1522235853031147,-18,-77,-15,-6,-6,6,-14,-4
1522235853031147,31,58,6,0,1,-5,9,3
1522235853044180,-15,-25,13,5,-1,-8,10,1
1522235853044180,-16,-20,-7,-4,-4,11,-14,-3
1522235853053205,23,32,6,2,3,10,12,9
1522235853053205,-49,-17,3,3,-2,-17,7,4
1522235853068244,34,52,0,-3,-1,-1,-11,-7
1522235853068244,-5,-48,-4,0,6,-8,0,-1
1522235853069247,26,87,4,1,-2,9,5,0
1522235853069247,-62,-72,-10,-2,3,3,-9,-9
1522235853081279,22,-27,-11,-4,-7,-8,0,3
1522235853081279,-5,7,1,1,0,5,4,-1
1522235853090303,-43,-56,-2,1,0,-4,9,-14
1522235853090303,65,93,1,-3,-4,-11,-28,2
1522235853104340,-4,-13,0,0,-3,4,-2,-6
1522235853104340,18,-5,-4,0,-1,5,8,3
1522235853113365,-37,-57,1,4,4,-13,-4,-4
1522235853113365,1,-9,-2,-1,-8,2,6,1
1522235853128404,23,-26,-6,-1,-1,6,4,5
1522235853128404,3,3,-4,-5,-8,-15,-10,-4
1522235853129407,-27,4,2,2,2,0,-3,-9
1522235853129407,30,24,1,-1,0,4,5,7
1522235853150463,-10,-20,5,2,4,10,2,3
1522235853150463,-5,12,4,2,2,1,10,9
1522235853152469,36,40,-8,-9,1,-3,-15,-6
1522235853152469,-23,-45,-4,-1,-15,-12,2,-14
1522235853164500,-101,-113,-14,-1,5,22,-6,-6
1522235853164500,54,76,4,-2,-8,-22,8,3
1522235853173525,2,3,2,1,0,3,1,1
1522235853173525,-53,-34,-1,-1,2,7,0,1
1522235853187562,68,70,2,-5,-3,-10,0,4
1522235853187562,-30,-61,-8,-1,-1,8,15,-3
1522235853189567,-5,13,1,1,2,0,-26,-5
1522235853189567,-6,-69,-2,-4,-2,-14,-1,-2
1522235853201599,3,2,0,0,-1,7,-4,-2
1522235853201599,14,48,-1,-5,-1,-9,-9,-1
1522235853210623,26,-19,1,0,-3,-2,8,2
1522235853210623,8,69,1,0,1,6,17,1
1522235853223657,-43,-19,4,2,3,-13,-4,-3
1522235853223657,7,-16,-4,0,-2,4,-7,-5
1522235853232681,22,8,5,2,4,3,4,10
1522235853232681,25,-1,-7,-5,-4,-3,-8,-11
1522235853247721,12,-9,-2,-2,-5,5,6,5
1522235853247721,-44,14,4,3,0,-8,-5,-2
1522235853249727,-47,-28,-3,-2,-2,-14,4,-2
1522235853249727,80,66,4,0,1,-3,-9,7
1522235853261759,4,37,0,-2,1,2,11,2
1522235853261759,-9,11,2,0,2,8,14,-4
1522235853270783,-23,-12,-2,0,-3,7,-3,3
1522235853270783,-12,13,8,3,6,10,-4,5
1522235853283817,-1,-44,-11,-6,-5,-11,-9,-3
1522235853283817,12,13,-3,-3,-4,-5,5,-5
1522235853292841,24,-5,-11,-3,-7,-6,-21,-3
1522235853292841,-9,14,1,0,-1,-12,3,0
1522235853307881,0,11,0,1,2,12,-5,-5
1522235853307881,-1,-19,-3,-2,-1,-2,-4,2
1522235853309887,-18,-16,2,1,-1,3,4,-5
1522235853309887,-36,-36,-5,0,2,8,-5,-5
1522235853330942,45,77,4,2,0,5,4,1
1522235853330942,-61,-88,-2,2,1,2,-5,-4
1522235853331945,74,120,4,-6,-9,-14,-7,-1
1522235853331945,-35,-82,-9,-2,3,2,-1,0
1522235853343977,5,32,-10,-3,-6,-14,0,1
1522235853343977,11,5,3,2,-1,-3,-11,0
1522235853353001,-47,-34,-5,0,-1,3,11,-7
1522235853353001,3,40,5,8,0,1,5,0
1522235853368041,18,-1,1,4,2,-6,0,5
1522235853368041,37,-73,-9,-2,-3,-6,-11,-3
1522235853370047,-14,31,5,4,2,10,5,-5
1522235853370047,13,-43,-9,-10,-7,-6,-7,-6
1522235853390100,-29,-13,4,-3,0,1,0,-2
1522235853390100,13,55,7,3,4,21,5,3
1522235853392106,-33,-14,2,-4,-1,10,13,-1
1522235853392106,38,23,-12,-7,4,-7,-15,-1
1522235853404137,-13,-10,3,1,-5,0,4,5
1522235853404137,13,36,-1,-3,-4,2,0,-6
1522235853413161,-20,-11,0,2,3,3,-2,3
1522235853413161,-32,-61,1,3,0,5,-4,1
1522235853428201,14,41,1,-5,-2,-8,5,1
1522235853428201,43,12,-6,-2,-2,-12,-23,4
1522235853429204,-20,-28,2,4,-2,-5,1,-2
1522235853429204,6,67,-2,0,-3,-4,3,-2
1522235853450259,39,29,2,2,-1,-3,-5,0
1522235853450259,-65,-7,4,-1,0,4,1,-4
1522235853452265,-13,-31,-4,0,-2,-10,-6,3
1522235853452265,51,59,8,-4,-2,2,3,0
1522235853464297,-27,-4,-2,-3,-2,-7,-1,-7
1522235853464297,27,46,2,0,4,4,8,6
1522235853473321,-31,-50,-1,-1,-9,-11,-7,-14
1522235853473321,28,52,2,-2,-2,5,9,6
1522235853488361,-7,-23,-3,0,-4,-16,2,-7
1522235853488361,-48,-36,-3,-1,-3,-15,-29,-2
1522235853489364,18,61,2,3,10,28,6,1
1522235853489364,11,-68,-4,2,-3,-25,1,2
1522235853510419,4,-4,0,1,2,14,-12,-4
1522235853510419,-3,-20,-5,-3,-2,-14,2,1
1522235853512425,40,48,1,-5,-5,4,10,2
1522235853512425,-22,-26,1,0,2,15,0,-2
1522235853524457,-29,-10,2,1,2,-5,6,-1
1522235853524457,-27,-38,7,2,4,10,10,7
1522235853533481,48,52,-2,-3,-2,0,-4,5
1522235853533481,-31,55,3,0,-1,2,6,-9
1522235853547518,22,-76,-4,0,-7,-2,4,9
1522235853547518,-33,-52,-7,-2,-5,-5,0,-6
1522235853549523,2,7,0,0,4,0,-3,1
1522235853549523,16,48,8,3,-2,-9,4,10
1522235853570580,-15,9,-5,0,3,5,-7,2
1522235853570580,21,30,1,0,-1,1,1,-4
1522235853572585,33,-38,-1,6,0,-14,-5,7
1522235853572585,-17,1,5,0,0,6,3,4
1522235853584617,-21,-17,-5,-6,3,10,-1,-7
1522235853584617,-40,-72,-7,-6,-6,8,2,-5
1522235853592638,6,42,-5,0,-1,-6,-5,8
1522235853592638,-11,-15,-1,1,5,6,1,1
1522235853607678,33,84,5,1,-2,-12,-6,3
1522235853607678,-15,1,4,3,0,-3,4,-2
1522235853609683,24,-14,-5,-6,-3,-1,10,-3
1522235853609683,-15,-25,-3,-3,1,-10,-26,-6
1522235853630739,0,19,-4,-4,-4,8,9,-5
1522235853630739,18,-4,-2,1,1,5,6,1
1522235853631742,-66,-45,3,0,0,0,13,-12
1522235853631742,-7,27,0,-2,-6,2,-11,4
1522235853643774,30,-7,-4,-4,-1,-2,9,4
1522235853643774,32,68,3,-1,-2,8,-5,-3
1522235853652798,3,-22,-11,-4,-2,-3,-4,-6
1522235853652798,-18,-26,-3,1,-1,-1,5,-9
1522235853667838,-44,-30,0,2,2,-1,-5,-1
1522235853667838,31,35,0,-5,-2,-12,-1,-4
1522235853669844,-19,14,2,1,-1,10,-7,1
1522235853669844,17,4,-7,-6,-5,-7,-4,-13
1522235853689897,-15,-98,-6,0,-2,-3,-6,2
1522235853689897,32,45,2,4,3,-5,4,-1
1522235853697917,1,-14,-2,-1,0,-1,-6,1
1522235853697917,16,54,5,1,-9,-1,2,5
1522235853703934,-23,-4,3,-3,0,-2,-2,-6
1522235853703934,-29,-21,-5,-3,-1,4,2,-16
1522235853718974,17,26,5,3,-4,-20,-3,7
1522235853718974,-30,-104,-8,1,5,6,4,-2
1522235853727997,-1,47,3,0,2,-8,-11,-9
1522235853727997,-17,-57,-2,-1,-2,-1,2,6
1522235853730003,-6,17,-8,-5,0,28,0,-7
1522235853730003,45,41,2,-1,2,-4,4,6
1522235853751059,-27,-23,2,1,1,4,2,7
1522235853751059,37,20,-8,-2,-1,8,-5,-8
1522235853752062,-80,-106,-1,2,1,-13,-19,-3
1522235853752062,33,-3,-12,-5,-4,-9,12,7
1522235853764094,-3,4,3,2,-1,-2,15,1
1522235853764094,52,52,7,1,1,5,-21,11
1522235853773118,-4,-30,-1,-1,-1,7,-2,-4
1522235853773118,-15,20,4,-3,4,0,-8,-4
1522235853788158,12,28,8,4,-7,-1,7,3
1522235853788158,-18,-13,2,3,-5,-15,2,-1
1522235853789160,20,37,4,0,1,1,-15,5
1522235853789160,-66,-48,-2,-1,-1,-4,-4,-1
1522235853810216,74,9,-7,-7,1,-4,-10,0
1522235853810216,-10,3,10,5,6,12,8,6
1522235853812222,13,30,-6,-2,-9,-15,2,-1
1522235853812222,-5,22,1,-1,2,7,-4,-3
1522235853824254,-1,0,2,0,1,-1,3,1
1522235853824254,20,18,0,-3,-7,-3,3,2
1522235853833278,3,14,2,0,2,-8,1,-2
1522235853833278,-21,-21,0,1,3,17,9,-5
1522235853848317,1,13,-5,-3,-2,-3,-1,-1
1522235853848317,-70,-40,0,0,1,3,3,-6
1522235853849320,27,55,6,1,-1,-1,2,1
1522235853849320,62,7,-9,-5,-9,11,15,3
1522235853870376,3,74,5,0,1,1,-29,0
1522235853870376,-37,-33,-6,1,3,-4,6,-1
1522235853872382,-8,-39,-2,-1,-11,-17,-22,-3
1522235853872382,-26,-3,3,4,7,17,12,4
1522235853884413,32,17,-1,-4,-7,-14,0,5
1522235853884413,5,1,-10,-4,-5,-3,1,1
1522235853893438,3,-16,-5,-2,4,7,10,4
1522235853893438,26,34,4,2,-1,-13,-8,2
1522235853906472,-24,-9,-4,-2,1,6,-9,-1
1522235853906472,-64,-51,-1,0,2,5,-3,-8
1522235853915496,92,50,-2,-2,-2,-5,15,11
1522235853915496,2,-48,-7,-2,-1,0,-7,-7
1522235853930536,-33,-27,3,3,3,20,4,-3
1522235853930536,12,-11,1,0,-3,-27,1,2
1522235853932541,-8,-8,-4,-1,-3,-11,5,-4
1522235853932541,-9,12,3,2,3,15,-10,-3
1522235853944573,-28,-29,-1,1,-6,-31,0,-1
1522235853944573,40,16,-2,-1,-1,6,15,3
1522235853953597,17,26,-3,-1,-1,-2,-27,-10
1522235853953597,13,23,0,-4,1,-18,-5,6
1522235853967634,-12,-29,-9,-7,-13,11,1,-9
1522235853967634,-32,-23,-4,0,-1,11,-3,-4
1522235853969640,-7,-6,2,0,4,6,34,3
1522235853969640,4,15,-1,-4,-7,-25,1,-6
1522235853990696,-9,-21,-2,1,9,21,-10,2
1522235853990696,-11,-1,4,0,0,-5,17,4
1522235853991699,-37,-4,-1,-2,0,23,6,-1
1522235853991699,21,-9,-3,0,0,-1,-6,-9
1522235854003731,14,65,2,-3,0,-9,7,6
1522235854003731,-43,-62,-21,-6,-1,9,-13,-13
1522235854012754,-23,-49,0,0,1,6,-1,-3
1522235854012754,-17,29,7,5,3,13,19,3
1522235854027794,-4,5,-2,1,-3,-27,-10,-3
1522235854027794,24,47,2,0,0,5,-2,7
1522235854033810,-3,-11,0,0,1,-12,-2,-4
1522235854033810,-25,-24,-3,-4,-5,-7,-8,-5
1522235854050855,23,22,0,0,2,10,7,-2
1522235854050855,4,-28,-1,1,2,-6,-9,-2
1522235854051858,44,49,1,-2,-2,3,22,6
1522235854051858,-32,-58,-3,-1,0,-7,-17,-5
1522235854063890,-23,-30,-3,1,-1,-14,3,0
1522235854063890,9,73,15,3,1,-2,4,3
1522235854072914,-8,-21,-12,-1,-1,-11,-13,-1
1522235854072914,53,19,-4,-4,-8,-6,3,2
1522235854086952,-9,12,1,1,-2,13,0,-9
1522235854086952,6,4,-11,-8,-9,-7,-6,-9
1522235854093970,-7,-57,3,1,0,19,-7,0
1522235854093970,-2,101,11,3,3,-9,0,1
1522235854111016,9,-36,0,4,5,3,-7,0
1522235854111016,26,25,-2,-2,-4,-10,-9,-3
1522235854112019,-28,-22,3,2,1,-11,-6,-4
1522235854112019,-14,33,1,0,1,-2,-4,-4
1522235854124050,7,17,0,-4,-1,8,6,-5
1522235854124050,-36,-51,-3,0,2,9,0,-1
1522235854133074,-29,-20,0,1,2,-14,-5,-8
1522235854133074,61,39,4,-2,-1,24,7,-1
1522235854147112,-8,-34,-6,-2,-1,-2,-3,-2
1522235854147112,3,30,2,1,-8,-5,3,3
1522235854154130,-3,-21,-7,-2,-5,4,3,6
1522235854154130,-17,-32,-1,3,-1,8,0,-1
1522235854170173,6,-7,1,2,2,3,7,7
1522235854170173,13,10,-4,-3,-3,-1,-9,-6
1522235854172178,-47,-19,5,2,3,4,2,0
1522235854172178,11,13,0,-2,0,-4,6,0
1522235854184210,9,18,0,-1,3,23,-14,5
1522235854184210,-11,-37,-2,0,2,-18,4,-9
1522235854193235,69,127,6,-5,-3,-5,6,5
1522235854193235,-5,-62,-14,-3,-4,-10,-7,-4
1522235854208274,-31,-40,5,1,2,6,6,-1
1522235854208274,87,79,-10,-8,-5,2,-3,12
1522235854214290,-50,-10,-3,-1,-1,11,3,-11
1522235854214290,-32,2,-4,-1,-1,-15,-7,-1
1522235854230333,21,9,-2,2,-1,-9,3,3
1522235854230333,8,43,7,0,1,4,-6,-13
1522235854232338,4,4,3,1,-3,-5,-1,0
1522235854232338,5,-44,-4,-3,-2,3,0,12
1522235854253394,-36,-29,-13,-5,-3,-8,-1,-12
1522235854253394,20,4,5,1,-2,-12,4,13
1522235854254397,16,4,-4,1,12,11,-7,-14
1522235854254397,-20,-14,2,1,-9,-5,-2,-3
1522235854267431,3,11,3,-2,-5,-26,2,2
1522235854267431,-7,-34,-7,-1,-2,-1,-14,-1
1522235854274450,-3,29,4,3,3,10,5,12
1522235854274450,12,-5,0,1,0,-2,-1,2
1522235854290492,-8,-61,-7,-3,-2,-1,38,6
1522235854290492,-38,2,5,2,0,5,3,-4
1522235854292498,-4,-65,-4,1,-3,-7,-2,0
1522235854292498,-2,35,-5,-3,0,1,0,-5
1522235854313555,22,23,-7,-3,-2,8,-12,-6
1522235854313555,-34,-22,6,1,0,7,5,-6
1522235854314557,-8,-12,-2,-4,-4,-7,-1,2
1522235854314557,-49,-48,0,2,2,0,-2,3
1522235854326588,3,20,1,1,5,12,-3,-5
1522235854326588,58,-1,4,3,0,-13,-3,8
1522235854335613,-29,-49,-16,-7,-5,1,-6,-13
1522235854335613,14,17,2,-3,-2,1,4,0
1522235854350652,-42,-8,1,2,12,0,-9,-10
1522235854350652,-53,3,8,4,-8,-2,12,1
1522235854351656,64,56,-2,-3,-4,-7,-3,6
1522235854351656,-61,-80,-7,-3,0,-8,-5,-10
1522235854372711,33,39,1,-6,-4,7,0,6
1522235854372711,36,62,2,0,6,0,-6,2
1522235854374717,-47,-75,-3,3,-1,-1,-1,-9
1522235854374717,24,74,-1,-11,-6,-20,-13,2
1522235854386748,29,54,10,4,0,9,9,10
1522235854386748,3,-45,-6,1,-2,-8,-15,-1
1522235854395772,-24,12,3,-1,0,-6,4,-11
1522235854395772,15,-41,1,3,7,24,6,-2
1522235854410812,-26,-3,-1,-3,-3,-1,0,-15
1522235854410812,21,9,-9,-7,0,0,-6,0
1522235854411815,17,-17,3,0,-1,3,-9,1
1522235854411815,26,5,5,3,3,9,6,5
1522235854432871,-45,-30,-3,-3,-6,-11,-9,-2
1522235854432871,23,32,-11,-6,5,-5,-8,-1
1522235854434877,-29,-23,-6,-2,-8,2,12,1
1522235854434877,34,83,9,2,0,-17,-19,-2
1522235854446908,-26,-74,-9,2,-5,-7,-6,-4
1522235854446908,30,-12,-3,3,8,5,-2,-1
1522235854455932,25,42,2,-4,-4,-3,2,3
1522235854455932,-23,10,1,-4,-2,-8,3,-3
1522235854470972,1,0,0,2,1,9,6,6
1522235854470972,-5,16,-14,-2,-1,9,3,-9
1522235854471975,-7,-27,16,3,-4,-20,-6,3
1522235854471975,36,11,-8,0,-5,-19,3,1
1522235854500049,6,8,1,-2,-1,-18,-4,2
1522235854500049,-35,21,2,2,-3,7,10,0
1522235854502055,-24,13,-5,1,0,6,-2,1
1522235854502055,18,-1,-4,-2,1,15,5,-1
1522235854507068,-21,-21,-2,1,-2,-14,-8,0
1522235854507068,44,38,6,-1,-6,-2,-1,1
1522235854516092,-16,75,4,2,6,5,-6,-5
1522235854516092,-34,-47,-4,-2,-4,0,-6,-1
1522235854530129,34,30,-1,-1,2,4,-6,-6
1522235854530129,-24,-10,6,1,-1,8,6,2
1522235854532135,6,4,1,0,1,-4,-6,3
1522235854532135,-2,23,-3,0,1,-3,10,-2
1522235854553191,22,24,5,-2,-4,-14,-14,1
1522235854553191,-31,-47,0,0,0,-5,-3,-12
1522235854554193,18,-10,-4,-2,0,-7,-3,1
1522235854554193,-18,2,-2,1,0,6,12,-5
1522235854566225,61,64,3,-3,-9,-2,-25,1
1522235854566225,-56,-64,-12,-2,-4,9,5,-5
1522235854575249,53,23,-5,-5,-5,-5,11,5
1522235854575249,-13,-6,8,3,0,13,4,1
1522235854590289,-34,11,5,0,6,7,9,-6
1522235854590289,44,23,10,3,5,0,-8,7
1522235854592295,-26,-47,-4,0,-2,11,-1,-1
1522235854592295,17,33,-2,-1,-1,-3,-1,3
1522235854613350,-7,-54,-7,-3,-2,0,0,-4
1522235854613350,-53,-14,4,-1,-2,-8,2,-1
1522235854614353,22,-21,-3,-2,0,9,-4,-3
1522235854614353,19,60,-7,-4,-5,-6,-8,-1
1522235854626385,12,3,2,-1,0,0,1,1
1522235854626385,2,1,-5,-3,-3,14,3,-3
1522235854635409,23,50,6,2,2,-2,-7,-5
1522235854635409,-26,-56,-3,-1,-2,-6,-6,1
1522235854650449,-3,21,1,-2,2,9,7,9
1522235854650449,11,-27,-4,0,0,-10,4,-3
1522235854652455,-56,-41,-1,0,0,0,-21,-3
1522235854652455,18,39,-2,-3,0,5,11,4
1522235854673510,-27,41,7,0,0,4,23,-4
1522235854673510,20,3,-1,-2,-2,-5,-29,3
1522235854674513,15,2,3,0,0,2,4,7
1522235854674513,-31,-65,-8,-9,-1,-5,-7,-7
1522235854687548,5,-12,3,0,4,6,12,8
1522235854687548,18,69,7,4,-5,-8,4,-3
1522235854695569,8,23,-12,1,-5,-34,-4,-2
1522235854695569,-14,-20,6,0,2,19,-6,-5
1522235854710609,12,-20,-10,-1,-3,-15,-1,4
1522235854710609,-5,-16,-4,0,0,-6,1,5
1522235854712615,-27,7,4,3,4,12,3,1
1522235854712615,37,-34,-8,-2,-1,-3,4,5
1522235854732668,23,48,6,1,1,8,-12,-5
1522235854732668,-17,-16,1,1,2,7,8,3
1522235854734673,-2,-25,-8,-1,-1,0,4,2
1522235854734673,-39,23,7,3,2,0,4,0
1522235854746705,21,-11,-6,-5,-6,-6,-3,10
1522235854746705,-12,-7,1,-1,1,0,3,0
1522235854755729,6,-1,7,1,-1,12,17,1
1522235854755729,16,36,3,3,-4,-13,-24,-7
1522235854770769,-41,-5,-8,-7,-6,-3,-7,-8
1522235854770769,-15,-30,-3,0,-1,-1,-5,3
1522235854771772,20,37,3,-2,-2,-13,0,-8
1522235854771772,16,-2,-5,-2,0,-1,2,8
1522235854792828,-33,-55,2,3,5,5,-2,-9
1522235854792828,34,53,-2,-4,-4,-12,-2,-9
1522235854794833,-25,-87,-5,-5,2,9,-9,0
1522235854794833,31,28,1,-1,-8,4,14,11
1522235854806865,4,10,4,0,-1,-13,-16,10
1522235854806865,-7,-8,-9,2,5,-4,-1,-4
1522235854815889,4,15,9,3,1,3,-2,-3
1522235854815889,-44,-32,-11,-5,-2,-13,-11,-10
1522235854830931,34,38,2,-3,-3,4,10,8
1522235854830931,15,-18,5,2,1,-2,-9,5
1522235854831932,-3,-24,-5,-3,-1,-5,1,-4
1522235854831932,-39,-38,3,0,2,2,5,-7
1522235854852988,33,23,-13,-3,-3,-1,-1,-6
1522235854852988,-4,-1,-5,-6,-5,8,-4,-15
1522235854854993,16,30,1,-1,-3,-6,-1,4
1522235854854993,3,19,7,4,3,-9,-7,-10
1522235854867025,-47,-80,-12,-1,0,-2,0,-1
1522235854867025,8,1,0,0,-1,-5,1,4
1522235854876049,5,24,-8,-7,-1,12,-2,-2
1522235854876049,12,-31,-3,0,2,1,1,-2
1522235854890086,1,5,1,1,1,3,0,-2
1522235854890086,-31,-1,3,0,0,-3,-2,-6
1522235854892092,-14,4,-1,-6,-3,3,0,-3
1522235854892092,47,13,0,2,-1,-9,-8,3
1522235854913147,-8,-20,10,0,11,4,3,-2
1522235854913147,-2,-90,-14,1,-9,1,7,9
1522235854915153,-28,33,2,1,1,-1,-9,-12
1522235854915153,8,4,-4,1,1,11,3,3
1522235854926182,14,6,-6,-3,-3,-2,-7,-3
1522235854926182,-2,8,-2,-1,3,-3,5,-2
1522235854935206,25,7,-5,1,-2,-3,0,4
1522235854935206,-27,-4,-1,-5,-3,0,2,-1
1522235854950246,-4,0,-2,0,-1,-1,1,3
1522235854950246,17,82,18,1,3,9,-1,4
1522235854952252,-52,-42,-3,0,-1,-6,-2,-8
1522235854952252,8,38,3,1,-1,1,1,-3
1522235854973307,30,3,-5,-2,-7,-16,-5,0
1522235854973307,22,-58,-5,-6,-3,-7,-3,-1
1522235854974310,-33,-11,-7,-6,0,3,-2,-6
1522235854974310,16,20,7,-2,-1,-1,-1,4
1522235854986342,-2,22,-1,-1,-1,17,-1,-10
1522235854986342,-24,2,1,4,5,5,3,-2
1522235854995366,52,55,5,4,2,1,4,15
1522235854995366,-79,-117,-12,1,-1,-8,-16,-15
1522235855009403,14,20,-11,-4,-1,2,7,-1
1522235855009403,-12,39,4,0,-15,-7,1,3
1522235855016422,36,70,-2,-2,-5,3,-2,2
1522235855016422,25,14,0,3,4,2,16,5
1522235855033467,-6,-9,-1,1,1,-13,-33,-7
1522235855033467,-23,-57,-2,-2,2,-4,-4,-7
1522235855034470,13,16,2,4,1,-3,-2,3
1522235855034470,-25,-28,-6,-3,-1,1,-3,1
1522235855047504,6,-61,-10,-4,-3,-1,0,-10
1522235855047504,-14,27,-5,-3,-4,8,5,-3
1522235855055526,16,-26,5,0,-3,-3,0,4
1522235855055526,-13,47,1,-4,2,4,1,-3
1522235855069563,5,10,6,2,-1,-11,6,4
1522235855069563,9,21,2,2,4,6,-5,0
1522235855076582,-4,-30,-3,-2,-4,-13,6,-4
1522235855076582,-14,8,7,4,1,6,4,5
1522235855092624,-15,47,5,2,1,-7,-3,0
1522235855092624,-67,-54,-7,1,1,-6,-10,-2
1522235855094630,79,-9,-6,-7,-5,-2,7,4
1522235855094630,30,26,3,-2,-1,1,0,-2
1522235855106661,-30,-30,0,1,-3,2,3,1
1522235855106661,1,14,2,-1,-2,4,11,-1
1522235855115686,-32,6,4,0,2,-2,-4,-4
1522235855115686,-16,-32,-4,-4,-2,-3,5,1
1522235855129723,34,40,4,2,-4,11,-9,4
1522235855129723,4,21,-1,-2,0,-6,-4,-7
1522235855136742,-10,-43,-7,-1,-3,9,-1,2
1522235855136742,-7,-19,2,3,0,0,-2,-2
1522235855152784,-16,-22,-1,0,2,-6,5,2
1522235855152784,38,18,1,0,-2,11,1,0
1522235855154790,-20,5,1,-1,1,11,-4,-1
1522235855154790,9,2,-6,-8,-6,-19,-5,-4
1522235855166821,-6,-17,-6,-7,0,18,7,-2
1522235855166821,34,-5,1,-1,2,0,-3,2
1522235855175846,-29,-36,-5,-4,2,-6,4,1
1522235855175846,30,74,-7,-4,-4,3,-20,-6
1522235855189883,-36,37,7,-1,-4,-7,7,-10
1522235855189883,22,19,-6,-4,-1,0,1,1
1522235855196901,2,19,5,2,2,-16,-10,0
1522235855196901,-3,-6,2,0,2,13,9,3
1522235855212944,2,-31,-6,-2,-2,4,7,4
1522235855212944,11,21,0,1,0,-5,-16,2
1522235855214950,27,63,6,1,0,-5,-4,-4
1522235855214950,-1,-6,-3,-1,0,4,-9,-3
1522235855243024,-16,-71,-5,0,-2,-17,-3,-8
1522235855243024,-11,35,1,-1,-1,2,7,-5
1522235855245030,-9,-1,-6,-5,-1,19,-2,-2
1522235855245030,-2,8,-1,3,-2,-3,4,2
1522235855250042,9,23,4,2,-2,-5,5,3
1522235855250042,5,-9,-3,0,-3,0,-5,2
1522235855257061,-16,-21,-3,-2,-1,-12,7,-7
1522235855257061,-1,5,6,2,0,-2,-9,1
1522235855273104,-4,-24,-3,0,3,-3,-8,-5
1522235855273104,-27,-51,-4,-1,-1,8,1,-2
1522235855275109,2,57,1,-2,-2,2,6,1
1522235855275109,-39,-66,0,-2,-1,-1,5,2
1522235855295162,72,45,4,4,4,0,7,10
1522235855295162,-21,-14,-1,-2,-1,-2,5,-7
1522235855297168,15,11,-3,1,2,-2,-8,0
1522235855297168,18,-4,2,-3,-3,-12,8,6
1522235855310203,-15,35,-2,-5,-6,-8,-8,-3
1522235855310203,5,32,5,3,1,2,3,-4
1522235855316218,-16,-49,-7,-1,-3,-16,-5,-7
1522235855316218,10,49,8,2,0,3,-12,-1
1522235855333264,-56,-74,-9,-5,-1,1,-2,-1
1522235855333264,44,5,-4,-5,-5,-3,-5,-6
1522235855334267,-3,11,4,3,2,-1,-7,5
1522235855334267,-1,-23,-2,-2,-2,3,5,-2
1522235855355322,-19,56,4,-2,-3,-2,0,-2
1522235855355322,45,-37,-4,0,7,0,-5,3
1522235855357328,17,47,-1,-4,-14,-8,-3,0
1522235855357328,-29,-31,-14,-4,-2,4,5,1
1522235855369360,-25,16,7,4,9,15,4,-10
1522235855369360,4,26,-8,1,-1,-8,-5,3
1522235855378384,27,16,6,2,3,14,5,4
1522235855378384,-1,-7,0,1,0,-10,-1,-2
1522235855393424,-15,12,-8,-5,-5,0,-6,4
1522235855393424,-6,30,1,-1,-3,-6,-2,-5
1522235855394426,-3,-49,-6,-2,1,7,-3,-4
1522235855394426,26,78,3,0,-4,-5,3,1
1522235855415482,-12,-71,-5,1,2,-10,-5,-7
1522235855415482,-45,-17,1,0,0,1,6,0
1522235855417488,-6,-7,-7,-3,-1,-2,-3,1
1522235855417488,53,12,-4,-5,-3,1,-6,-3
1522235855429519,32,31,12,5,3,7,7,18
1522235855429519,-48,-45,-8,-5,-7,-11,-5,-10
1522235855438544,9,42,6,6,2,1,4,7
1522235855438544,-15,-47,-4,0,3,-3,-1,-3
1522235855452581,10,-42,-3,-6,-4,1,-4,3
1522235855452581,10,4,-1,3,1,-3,1,-1
1522235855454586,-53,-23,-5,-4,-1,-2,-1,-2
1522235855454586,29,-9,-1,0,-1,-4,-3,-3
1522235855475642,5,16,3,1,-1,-11,-3,-1
1522235855475642,13,51,0,-5,6,6,0,6
1522235855477648,21,9,-2,1,-11,-6,1,4
1522235855477648,-56,-53,-10,-4,3,10,-5,-16
1522235855489679,4,6,1,3,0,2,3,3
1522235855489679,28,19,8,2,3,0,4,14
1522235855497701,4,-6,2,-4,1,2,2,-2
1522235855497701,8,2,-3,-2,-1,-9,-2,3
1522235855512741,19,71,-2,-4,-5,-10,-7,-3
1522235855512741,5,-60,-5,0,-2,-1,7,-1
1522235855514746,-19,-21,-9,-4,2,4,-20,-3
1522235855514746,-33,-8,3,4,-1,-9,10,1
1522235855535802,26,26,-4,-2,1,10,2,-3
1522235855535802,21,15,0,-3,-3,6,1,2
1522235855536805,-24,-75,-1,3,4,1,0,-3
1522235855536805,9,27,4,-1,-5,-11,-7,-3
1522235855548837,-34,-25,-4,1,-1,-4,5,11
1522235855548837,51,22,5,2,0,1,-6,-1
1522235855557861,-9,-26,2,-1,-2,-12,2,0
1522235855557861,-9,-15,-2,-1,0,0,11,4
1522235855572900,-13,2,5,2,16,6,-17,-13
1522235855572900,-26,-64,-4,-1,-10,-4,0,3
1522235855574906,7,1,-2,-2,2,6,-1,-8
1522235855574906,9,34,1,0,-2,0,2,0
1522235855595962,8,-22,-4,-4,-5,3,-5,-6
1522235855595962,-45,23,6,4,1,-15,1,-5
1522235855596965,-6,-4,1,1,-1,-5,1,-4
1522235855596965,-10,43,2,0,1,8,-9,-3
1522235855608996,-3,-54,-11,-2,-4,-7,9,-5
1522235855608996,-44,-80,-9,-1,5,11,-7,-8
1522235855618020,21,9,0,-1,-10,-10,10,7
1522235855618020,6,3,-10,-5,-3,-13,-22,-10
1522235855633061,18,61,9,1,-3,11,11,3
1522235855633061,11,5,0,1,-2,-2,3,5
1522235855635066,-29,-18,-3,2,6,8,1,-7
1522235855635066,16,8,0,-1,0,5,1,0
1522235855655119,6,29,5,-3,-2,-3,-1,6
1522235855655119,-10,17,-5,-6,-6,3,8,-2
1522235855657125,-8,-42,-6,1,2,-19,-23,-2
1522235855657125,16,22,5,3,1,1,3,0
1522235855669156,9,-2,-8,-4,-5,-14,1,-3
1522235855669156,-55,11,4,3,5,18,-1,-1
1522235855678180,39,42,2,-2,-1,-12,-14,0
1522235855678180,-17,-4,-4,-3,1,-3,19,2
1522235855693220,2,12,-2,-2,-15,-17,-7,0
1522235855693220,46,40,1,3,4,9,11,2
1522235855694223,-69,-82,-7,-4,0,9,-9,-3
1522235855694223,37,32,-1,0,-2,-7,-9,0
1522235855715279,-21,-8,-7,-4,2,8,-1,-6
1522235855715279,19,43,1,-3,-5,-17,-7,0
1522235855717284,21,40,0,-2,-1,9,7,3
1522235855717284,2,-12,0,-1,-3,8,1,4
1522235855729316,-2,-20,3,4,3,-19,-1,7
1522235855729316,-10,-16,-2,0,0,-6,-4,-1
1522235855738341,15,11,-2,-5,-1,17,10,-2
1522235855738341,-16,-6,0,0,0,-2,4,1
1522235855753380,16,-21,2,-2,1,8,-3,-2
1522235855753380,-28,-2,2,1,-3,-19,-14,-5
1522235855754383,-8,-11,0,-2,-2,7,21,3
1522235855754383,9,-5,1,1,-2,-2,-12,3
1522235855775439,14,5,0,0,3,9,0,9
1522235855775439,12,28,4,-1,-5,-6,1,-2
1522235855777444,-32,-72,1,3,3,8,-2,-12
1522235855777444,47,81,3,-2,-4,-10,1,4
1522235855789476,-17,-29,-11,-1,-2,7,-3,-5
1522235855789476,11,13,-1,1,0,7,-6,0
1522235855798500,-24,32,4,1,-1,-4,-1,3
1522235855798500,18,-22,-2,1,2,3,6,3
1522235855812537,12,61,1,0,1,1,-3,-4
1522235855812537,-38,-77,-7,0,1,-4,2,-4
1522235855814543,23,57,4,1,-7,0,6,4
1522235855814543,-22,-37,-8,-5,-5,-7,-5,2
1522235855835599,0,-14,-7,-2,-4,0,-2,-11
1522235855835599,-1,-19,1,-2,-1,1,-3,-1
1522235855837604,30,46,1,-3,0,-7,0,4
1522235855837604,-18,-33,1,2,2,9,0,-3
1522235855849636,-2,-15,-2,-2,-4,-6,-1,0
1522235855849636,-42,4,1,0,2,9,5,-3
1522235855858660,11,0,-2,0,1,-17,-14,-2
1522235855858660,-8,24,-5,-4,-2,15,-3,-6
1522235855872698,-15,38,3,-3,-2,-21,-5,4
1522235855872698,5,12,-10,-4,-8,-8,5,-6
1522235855874703,26,46,4,0,1,4,8,5
1522235855874703,-6,-20,-3,-3,-4,5,-4,-1
1522235855895758,-19,-2,5,2,3,6,15,0
1522235855895758,6,16,4,1,1,-3,-15,-1
1522235855896762,23,-8,-1,-1,-2,-3,-1,3
1522235855896762,-57,-18,7,2,5,-1,6,1
1522235855908793,38,0,-2,-4,-3,-13,-12,-7
1522235855908793,48,8,-4,-3,-1,3,2,2
1522235855917817,22,53,-2,-2,-3,2,10,-1
1522235855917817,-36,-119,-1,3,12,8,-7,12
1522235855932857,-34,-7,-8,-3,-8,-5,-1,-3
1522235855932857,-4,12,0,-1,-2,6,-2,-3
1522235855938873,-1,8,3,1,2,-3,4,0
1522235855938873,2,24,-1,-3,-1,-1,4,-4
1522235855955919,-26,-13,7,2,5,15,2,1
1522235855955919,41,-13,-5,1,0,-4,2,0
1522235855956921,-20,-5,0,2,0,3,-3,3
1522235855956921,-18,-49,-9,-6,-6,-5,0,0
1522235855968953,13,2,-1,-2,1,7,-2,3
1522235855968953,-24,7,2,1,1,12,-4,-1
1522235855977977,3,-33,-2,-1,1,14,6,-3
1522235855977977,15,40,1,1,-6,-25,-4,-3
1522235855992015,5,-3,-1,-2,-2,10,5,-3
1522235855992015,-53,-44,-3,0,2,-5,1,-3
1522235855999033,22,27,0,-3,-2,-2,-6,4
1522235855999033,40,26,1,-2,0,3,1,0
1522235856015076,8,12,6,8,3,7,0,-2
1522235856015076,-1,37,2,-3,-4,-10,2,6
1522235856017081,-14,-40,-9,-3,8,-3,-7,-10
1522235856017081,-3,-68,-9,-4,-10,1,-5,-8
1522235856029113,-32,-15,-1,0,1,-5,-1,4
1522235856029113,15,19,1,0,3,9,3,5
1522235856046158,4,-15,0,0,-1,-7,-2,2
1522235856046158,28,61,-2,-3,-3,0,-2,3
1522235856052174,-34,-12,-4,-2,0,-1,-1,-1
1522235856052174,31,-8,-3,1,-4,-6,-4,-4
1522235856059193,-7,-2,-7,-5,-2,7,2,-8
1522235856059193,-20,2,-1,1,2,2,3,6
1522235856075236,1,27,-1,-2,-4,-6,0,-3
1522235856075236,-44,-85,-7,-4,-4,-4,-8,-7
1522235856077241,17,-12,-1,0,-2,-4,-6,-1
1522235856077241,-1,39,9,2,1,5,4,5
1522235856089273,-7,-13,-3,0,4,3,-2,-4
1522235856089273,45,52,0,-2,0,-3,3,5
1522235856098297,-13,-15,1,-1,-4,-4,-3,-8
1522235856098297,9,33,-1,-1,0,1,3,1
1522235856112334,0,-14,-4,-2,0,6,0,-3
1522235856112334,1,6,3,1,-2,-11,-2,-8
1522235856119353,-9,-8,1,-1,-2,-4,1,5
1522235856119353,0,0,1,0,2,-1,-3,-7
1522235856135395,18,13,5,0,-2,0,-1,4
1522235856135395,1,39,-1,-1,0,11,0,-5
1522235856137401,-46,-95,-13,-2,-3,-12,-3,-2
1522235856137401,21,24,3,-1,-1,-10,-3,-4
1522235856158457,10,6,-5,-2,-5,-3,-3,-8
1522235856158457,11,2,-1,-1,-2,0,-3,-5
1522235856159459,-39,35,5,-1,12,5,0,-2
1522235856159459,44,-9,-6,-3,-10,-6,-4,0
1522235856172494,12,-5,0,-2,-3,-7,-1,5
1522235856172494,-22,-8,-2,1,0,4,2,-5
1522235856179513,10,33,-1,-2,-2,-4,-1,0
1522235856179513,-17,-16,-4,-1,1,0,1,-7
1522235856195555,-8,-68,-6,0,2,2,1,4
1522235856195555,-13,-14,3,1,1,3,-1,1
1522235856197561,-17,19,0,1,-2,-2,2,2
1522235856197561,-3,23,-3,-5,-1,2,-2,-4
1522235856216611,32,36,0,-2,-5,-6,-3,-3
1522235856216611,-31,-7,6,4,0,2,0,2
1522235856225636,33,-27,-4,0,-3,3,3,4
1522235856225636,-8,11,2,-1,-1,-1,-3,0
1522235856232654,33,81,4,2,5,0,-2,3
1522235856232654,-68,-101,-19,-7,-7,-5,-6,-4
1522235856239673,8,71,1,0,-1,15,4,-1
1522235856239673,30,8,-1,1,1,-5,-2,2
1522235856255715,4,2,5,1,0,14,8,5
1522235856255715,-23,-44,1,0,0,-26,-3,-4
1522235856256718,7,2,-1,-1,-2,17,4,3
1522235856256718,-20,-34,-3,-1,-2,-6,-11,-2
1522235856277774,8,28,2,-2,-1,-1,-2,-1
1522235856277774,32,28,-2,1,-4,-4,-6,5
1522235856279779,-44,-92,-7,-4,-1,8,-3,-6
1522235856279779,-59,-60,-4,1,2,-5,10,-8
1522235856291811,-8,9,1,-1,-1,-12,-5,-2
1522235856291811,59,82,2,-1,3,11,25,3
1522235856300835,16,-14,-3,-3,-6,-23,-14,4
1522235856300835,16,61,5,1,1,1,-1,3
1522235856315875,-33,-96,-11,-3,-2,28,28,-6
1522235856315875,-10,2,2,-1,-4,-14,-25,-1
1522235856316878,26,58,1,-2,-1,0,-7,-2
1522235856316878,-14,-58,-7,-4,-4,-6,-4,-6
1522235856337934,-34,6,4,-1,2,-4,-10,-2
1522235856337934,6,42,3,1,0,-8,4,7
1522235856339939,-7,28,4,1,-7,-6,-5,5
1522235856339939,5,-17,-7,-3,2,9,-1,-4
1522235856351971,15,50,4,1,-2,-12,3,-2
1522235856351971,-4,-11,2,4,4,5,5,3
1522235856360995,-4,-46,-7,-4,-6,-15,-2,-4
1522235856360995,14,33,-2,-2,1,5,0,1
1522235856376035,-6,-8,-4,-2,-2,-3,-22,1
1522235856376035,-13,71,8,2,4,9,-3,-1
1522235856377038,22,-50,-11,-1,0,-2,-2,-3
1522235856377038,-15,17,4,2,-3,11,2,0
1522235856398094,11,3,-4,-1,0,-13,-7,0
1522235856398094,22,-53,-10,-4,-3,-4,2,-5
1522235856400099,-6,43,4,0,0,22,4,4
1522235856400099,-20,-3,5,3,-1,-2,16,3
1522235856412131,36,26,-3,-2,-3,-14,-31,-2
1522235856412131,-18,-15,1,0,0,12,4,-7
1522235856421155,-32,-51,-7,-5,-3,-6,-1,-2
1522235856421155,19,47,1,-1,-3,-9,-2,3
1522235856435192,-7,-42,-1,2,1,-3,12,1
1522235856435192,16,7,4,3,10,19,1,4
1522235856437198,4,-11,0,-2,-4,-17,-1,0
1522235856437198,-13,7,-3,-2,0,9,-15,-7
1522235856458253,-10,-5,4,0,-2,-23,6,-1
1522235856458253,28,-9,-9,-5,-4,-5,-11,1
1522235856459256,4,35,6,2,4,3,-8,-5
1522235856459256,3,-5,4,3,1,5,5,9
1522235856471288,-10,-7,-4,-2,0,4,-1,-12
1522235856471288,-15,-41,-2,1,-2,1,-5,-1
1522235856480312,25,57,-1,-5,-1,-13,-9,-6
1522235856480312,4,28,0,1,-5,-12,14,-1
1522235856503374,16,0,-3,-2,-1,19,3,3
1522235856503374,-35,11,4,2,-5,-19,5,-11
1522235856504376,15,-4,6,3,2,9,20,6
1522235856504376,-3,34,3,0,2,-4,-20,-13
1522235856518414,-3,-35,-12,-7,-5,1,0,-2
1522235856518414,27,19,2,0,-4,3,1,7
1522235856520419,-15,3,4,2,2,11,6,1
1522235856520419,3,16,2,0,1,-9,-4,2
1522235856531448,24,13,-2,-4,-2,-1,4,2
1522235856531448,14,2,-2,-3,7,5,-2,-4
1522235856540472,-2,22,0,-1,-9,-14,-1,3
1522235856540472,-13,-44,-7,-3,3,10,2,-4
1522235856555512,-31,-9,2,-3,2,2,-2,-1
1522235856555512,5,16,3,-5,-3,1,4,8
1522235856557517,20,-13,-4,-2,1,-7,-4,-3
1522235856557517,-25,-68,1,3,0,1,3,1
1522235856577570,2,4,-3,1,-4,-2,-3,-1
1522235856577570,24,38,2,2,-3,2,1,17
1522235856579576,-45,-24,-1,2,5,14,3,2
1522235856579576,42,45,5,-3,-5,-13,-1,9
1522235856600632,-9,5,-6,1,-1,-1,-2,-10
1522235856600632,-13,-35,-6,2,-1,-2,4,5
1522235856602638,-30,-23,0,3,0,-2,-3,-1
1522235856602638,37,25,-1,-2,0,2,-4,-29
1522235856615672,-11,-69,-5,2,3,7,5,9
1522235856615672,-32,-65,-11,-5,-8,-13,-5,-14
1522235856617677,-5,37,2,1,1,2,3,4
1522235856617677,-47,-17,-2,-2,-2,-1,-3,-11
1522235856637730,38,85,5,-3,7,-5,-1,7
1522235856637730,7,28,7,3,-6,-4,1,2
1522235856639737,-18,-57,-8,-2,1,2,-6,-7
1522235856639737,-15,-45,-5,-2,-2,1,-3,3
1522235856651768,-7,68,16,10,4,3,5,8
1522235856651768,34,23,4,10,-2,0,4,9
1522235856660792,30,42,2,15,-2,-1,-3,-8
1522235856660792,-9,-4,-12,12,-3,-13,-2,7
1522235856675831,-10,-23,0,9,-1,4,-3,-5
1522235856675831,-20,-16,-3,-4,0,2,-3,-18
1522235856676835,26,49,3,-8,0,2,1,5
1522235856676835,-25,-50,0,-3,1,-4,3,1
1522235856697890,50,20,-5,-13,-8,-8,-3,5
1522235856697890,-23,-24,-1,-7,-3,2,-3,-7
1522235856699896,-17,31,5,-7,2,0,2,0
1522235856699896,68,69,0,-5,13,11,-1,10
1522235856727970,-51,-107,-9,-8,-16,-5,-1,-12
1522235856727970,4,30,2,1,3,10,1,2
1522235856729976,18,-5,-2,-2,0,-5,-4,-2
1522235856729976,-8,-5,0,-2,-1,5,1,5
1522235856734989,-27,-22,-1,1,1,3,1,-4
1522235856734989,103,103,-1,-2,-4,-10,-7,2
1522235856742007,-40,-94,-11,-2,-3,-4,-1,-10
1522235856742007,-15,-12,-1,-1,-2,8,3,12
1522235856758050,-35,-30,2,6,5,26,5,-4
1522235856758050,-7,-19,2,1,-1,-3,18,2
1522235856760056,33,41,-2,-5,-1,-3,-3,-1
1522235856760056,-24,-4,4,-1,-4,-5,8,-5
1522235856772087,5,8,-3,-2,1,-2,-14,1
1522235856772087,12,18,-2,-3,0,2,-6,-6
1522235856781112,-33,-79,-6,-1,1,0,-3,-3
1522235856781112,-9,-8,-3,-4,8,1,4,4
1522235856795149,-12,39,4,1,-8,-22,-1,-1
1522235856795149,-3,-38,-7,-2,1,0,-14,-5
1522235856797154,39,-1,-3,-5,-5,1,-9,1
1522235856797154,-47,-24,-2,-3,-2,-3,-21,-13
1522235856818210,-2,-26,-6,-3,2,-9,-4,-4
1522235856818210,-5,11,3,0,2,3,3,8
1522235856819213,-7,15,1,0,1,1,-1,-6
1522235856819213,28,0,-5,-5,-8,6,-10,-2
1522235856831248,15,15,1,-1,1,-3,20,3
1522235856831248,-9,53,8,1,-1,6,-16,-3
1522235856840269,-30,-50,-4,1,1,-3,8,2
1522235856840269,29,38,-3,-3,-5,-3,-4,2
1522235856855309,6,9,-2,-3,-3,-13,-4,-6
1522235856855309,-38,2,5,4,4,15,8,-3
1522235856857314,31,30,1,1,-3,-18,-23,0
1522235856857314,-23,-34,-2,1,0,4,1,-2
1522235856878370,29,13,-2,-2,0,11,-3,3
1522235856878370,26,58,4,1,-3,-10,-2,0
1522235856879373,-38,0,-4,-1,-2,2,2,-2
1522235856879373,1,12,-1,-2,-8,-16,-4,0
1522235856891405,1,1,-3,-1,2,-1,-14,-4
1522235856891405,-7,-37,-1,2,3,-6,3,6
1522235856900428,17,51,4,-2,-1,0,9,0
1522235856900428,-2,-16,5,3,2,4,2,0
1522235856914466,-19,3,2,0,-3,2,-4,-3
1522235856914466,9,-36,-8,-5,-7,18,2,-2
1522235856921485,-1,7,3,0,0,-2,2,5
1522235856921485,-1,-4,-1,0,-1,3,4,1
1522235856938530,-26,7,4,-2,2,9,1,-4
1522235856938530,-7,-28,-12,-4,-4,-12,8,-3
1522235856939533,26,-26,-4,-1,-7,-8,-4,1
1522235856939533,6,37,2,-2,3,9,1,-5
1522235856951565,-49,-73,-2,1,-4,-17,-15,-2
1522235856951565,5,17,-2,-1,-2,-3,-9,-5
1522235856960589,7,16,1,0,-1,-1,9,-1
1522235856960589,15,0,0,1,1,1,5,7
1522235856974626,14,19,-1,-1,1,2,8,-2
1522235856974626,-77,-72,0,3,5,2,4,-3
1522235856981644,38,19,0,1,-3,-15,-8,-1
1522235856981644,21,12,-1,-4,-2,-2,-2,0
1522235856997687,21,15,-1,-1,-8,0,8,4
1522235856997687,17,21,1,1,0,1,-1,-3
1522235856999693,-73,-67,-8,-6,-3,6,-1,-11
1522235856999693,-5,10,-1,2,0,-2,-3,-1
1522235857011724,-5,19,-1,0,3,3,8,4
1522235857011724,27,39,1,-3,-3,-5,-3,-3
1522235857020748,-10,-28,-2,2,1,4,3,4
1522235857020748,18,21,2,0,-2,-5,1,-1
1522235857034786,-2,-22,-8,-6,-3,-5,-10,-4
1522235857034786,-33,-11,1,1,-3,11,-7,-2
1522235857041804,8,23,2,-1,4,15,11,1
1522235857041804,-15,-23,4,4,1,-9,2,5
1522235857057847,35,43,1,3,0,-4,-1,-1
1522235857057847,13,-15,1,0,0,-7,0,-1
1522235857059852,-5,-8,-2,-2,-1,3,-7,5
1522235857059852,-9,-4,-7,-6,-4,14,7,-11
1522235857071885,-16,-17,0,-1,-2,-10,-9,-5
1522235857071885,11,26,-1,2,0,-2,4,-3
1522235857080908,0,18,7,0,1,0,0,4
1522235857080908,4,-34,-8,-3,-1,-3,-4,-8
1522235857094945,8,11,2,1,13,3,4,2
1522235857094945,-3,-42,-10,-6,-16,-7,-3,-6
1522235857101964,12,44,5,2,-1,-1,-6,1
1522235857101964,-5,0,1,1,-1,-2,9,4
1522235857118007,-9,-8,2,2,1,9,13,3
1522235857118007,-5,-14,1,2,7,-2,-3,0
1522235857120012,16,49,1,-4,0,6,5,2
1522235857120012,-2,-14,-5,-2,-1,-5,-9,1
1522235857140065,-13,-14,-2,0,-5,7,2,-7
1522235857140065,0,31,1,0,4,6,-11,-5
1522235857142071,-1,16,-1,-1,-4,-5,-11,-8
1522235857142071,-1,19,2,0,3,8,19,0
1522235857155106,8,16,0,-2,-1,7,3,-3
1522235857155106,-1,-26,-7,-5,5,1,-1,-2
1522235857162124,-11,12,1,0,-2,-6,-1,3
1522235857162124,-33,-21,-2,3,-2,-3,-9,-2
1522235857178167,41,47,-1,-4,-4,-11,-4,0
1522235857178167,-29,-42,-1,-1,-3,-8,0,-3
1522235857179170,-10,3,-3,-2,2,11,5,1
1522235857179170,2,11,3,1,-1,-13,-8,-5
1522235857200225,16,-9,-7,-2,-4,-1,0,4
1522235857200225,28,24,0,-2,-2,-2,2,4
1522235857202234,-21,-32,-11,-4,0,-3,-1,-8
1522235857202234,3,-2,-1,2,0,6,-5,-3
1522235857215265,-17,-6,-2,-6,-4,-14,-6,-4
1522235857215265,19,-4,-1,-1,-4,-2,-3,3
1522235857221281,12,50,11,0,-2,1,18,17
1522235857221281,-18,-65,-9,-9,-3,-1,-7,-18
1522235857237324,5,0,0,4,5,7,1,-1
1522235857237324,-12,-80,-8,-3,-8,-10,-5,3
1522235857244343,-5,45,11,-3,1,-2,-1,6
1522235857244343,16,29,-1,1,-3,-1,1,1
1522235857260385,25,6,-1,0,1,0,-5,-3
1522235857260385,-32,-45,-1,1,-3,-25,-7,-2
1522235857262391,14,16,0,1,-1,-19,-5,1
1522235857262391,-11,-50,-4,2,6,16,24,5
1522235857274422,3,-2,-5,-3,-7,-20,-28,-10
1522235857274422,-36,-18,3,3,6,9,2,-1
1522235857283447,48,-2,-4,-4,-4,-1,-10,-16
1522235857283447,-34,15,-3,-3,-2,-1,-12,-4
1522235857298486,-1,35,6,3,1,4,14,5
1522235857298486,-12,16,1,1,1,13,-3,-2
1522235857299489,5,-18,-7,-4,-2,-2,-6,-3
1522235857299489,57,33,6,1,-2,-4,7,10
1522235857320545,-27,-18,-7,1,-8,14,23,-6
1522235857320545,2,84,-2,-5,-2,13,-7,-6
1522235857322551,-13,-106,-8,2,-2,7,2,-4
1522235857322551,10,30,5,-2,1,-2,-5,1
1522235857334582,-26,-27,-4,-2,-3,-5,-1,3
1522235857334582,0,-7,-2,1,-1,1,6,-7
1522235857343607,5,27,5,3,-1,-8,-3,7
1522235857343607,-27,-2,-2,-5,-2,-7,-18,-9
1522235857357643,-4,-26,2,-1,1,10,-6,-3
1522235857357643,25,72,5,2,-1,-14,4,9
1522235857359649,-38,-55,-2,2,2,1,12,-7
1522235857359649,6,8,3,3,9,-10,-18,4
1522235857380705,1,31,3,1,-4,0,-3,-1
1522235857380705,16,-38,-3,-5,-4,-5,-3,-1
1522235857382711,-32,19,1,0,2,12,1,-6
1522235857382711,-5,23,-2,0,0,-19,2,-4
1522235857393740,26,-45,-9,-2,0,-2,1,1
1522235857393740,-35,11,6,4,3,-8,-6,-4
1522235857402764,21,31,-1,-2,0,0,3,-2
1522235857402764,-16,-33,-12,-4,-5,-6,4,1
1522235857417803,24,33,7,2,1,-2,1,14
1522235857417803,20,8,-3,-2,-1,3,6,-1
1522235857419809,-1,29,5,3,4,2,-5,-4
1522235857419809,9,-23,-5,1,-3,9,4,4
1522235857440865,-20,19,1,1,-3,-8,-5,-2
1522235857440865,10,-40,-6,-3,-1,17,4,0
1522235857441868,-2,27,-4,-2,0,-5,-3,-3
1522235857441868,-6,-88,-3,0,-1,6,0,-1
1522235857453900,-19,-5,0,-1,1,0,-7,-2
1522235857453900,11,31,4,2,-1,2,16,7
1522235857462923,9,-19,-6,-3,-4,-11,-8,2
1522235857462923,32,73,10,-2,-2,3,3,3
1522235857477963,-24,-33,1,1,5,-8,14,0
1522235857477963,5,-13,-3,0,1,8,-19,-2
1522235857479969,-18,-10,0,2,-1,-7,-20,3
1522235857479969,9,37,7,3,-1,3,4,1
1522235857501025,13,13,-2,-4,-4,-3,7,-4
1522235857501025,-24,-30,-3,-2,-1,-2,1,-2
1522235857502028,-18,16,6,1,3,9,-2,3
1522235857502028,19,35,2,-4,-5,-6,-5,4
1522235857514059,-22,-73,-8,-3,14,16,-6,-4
1522235857514059,-8,8,-2,-1,-9,-24,-5,-5
1522235857523084,15,33,6,0,2,10,1,-2
1522235857523084,-59,-78,-8,-1,-4,-3,6,-4
1522235857538123,53,32,-2,2,-2,0,-2,0
1522235857538123,-2,20,-2,1,1,-5,1,3
1522235857540129,-27,-58,-10,-5,0,-5,20,-5
1522235857540129,3,26,7,2,0,12,-8,-4
1522235857560182,-32,-38,-1,-1,-4,-6,-16,-5
1522235857560182,8,4,1,1,0,11,6,1
1522235857562187,45,12,-4,-4,-4,-2,-1,0
1522235857562187,-28,-20,-3,-1,-1,15,14,6
1522235857574219,-9,21,-1,-2,-2,-7,-16,-2
1522235857574219,2,-29,7,1,3,-4,13,1
1522235857583244,38,57,0,-3,-7,-14,-12,-6
1522235857583244,9,-4,1,-2,-1,-5,-9,1
1522235857598283,-1,-8,2,3,0,11,5,5
1522235857598283,25,57,4,-2,-3,4,5,2
1522235857599286,-9,-9,-1,0,4,7,-7,1
1522235857599286,-10,-16,-5,-2,-2,-3,-4,-2
1522235857620343,-18,43,4,2,-4,-11,1,-1
1522235857620343,-7,3,-1,0,4,-1,-19,-5
1522235857622347,-30,-92,-1,1,-2,12,11,0
1522235857622347,66,105,2,-3,0,-8,-6,4
1522235857634379,-23,-74,-7,-2,1,0,6,-3
1522235857634379,-13,-77,-5,1,2,4,18,7
1522235857643403,9,32,-5,-4,-4,-9,-7,1
1522235857643403,-37,-15,-2,-3,-5,-8,-4,-4
1522235857658443,43,58,6,1,6,13,3,11
1522235857658443,15,-44,-9,-3,-3,1,3,-6
1522235857659446,-43,-41,-2,1,-3,-6,1,9
1522235857659446,2,-12,-5,-5,-4,-11,-2,-4
1522235857680501,-31,-32,3,2,11,26,15,-1
1522235857680501,22,15,-5,0,-10,-10,-13,-4
1522235857682507,-22,17,-1,-1,-1,-12,3,-5
1522235857682507,-11,5,1,1,2,5,3,4
1522235857694539,8,3,-4,-3,-4,-1,-2,-2
1522235857694539,9,-46,-6,-2,0,-6,-14,-4
1522235857703563,-3,4,-3,-1,1,4,11,-7
1522235857703563,11,13,4,0,2,-6,2,2
1522235857717600,36,36,1,-3,-6,-12,-1,5
1522235857717600,-23,76,10,4,7,4,-2,-4
1522235857719606,11,-32,-11,-1,-4,-6,-8,-6
1522235857719606,-25,18,-2,-1,7,22,2,-7
1522235857740662,23,16,1,-1,-9,-26,-4,-2
1522235857740662,4,-4,-3,-2,3,10,6,3
1522235857742667,11,-24,2,-1,-1,-18,2,-5
1522235857742667,-33,-47,-7,1,1,-7,-18,-9
1522235857754699,-2,42,4,0,-6,-14,-2,1
1522235857754699,-10,-23,-6,-1,-1,0,2,2
1522235857763723,-5,33,6,2,9,10,0,-1
1522235857763723,-6,-31,-5,-2,-12,-15,-2,-4
1522235857777760,-2,9,-4,-5,-1,8,12,-3
1522235857777760,-2,25,4,1,5,4,-18,5
1522235857779766,-6,2,3,1,-3,-12,-4,3
1522235857779766,40,46,-1,-2,1,-8,0,-3
1522235857800822,11,-38,1,4,4,3,-1,-5
1522235857800822,-9,39,6,-1,-8,-14,0,-9
1522235857801824,-18,-84,-19,-5,-3,15,-2,4
1522235857801824,6,20,2,0,0,-1,-2,0
1522235857813856,-13,-3,3,2,-4,-12,-5,0
1522235857813856,54,96,5,-1,0,-2,5,13
1522235857822880,-47,-82,-11,0,1,2,-10,-30
1522235857822880,12,31,1,-2,-1,2,4,3
1522235857837920,-16,-30,-6,-2,2,4,0,4
1522235857837920,-36,-8,2,0,0,3,4,4
1522235857843936,44,25,0,-2,-3,0,-1,9
1522235857843936,3,-6,-4,-2,-6,5,2,3
1522235857860981,-1,25,-2,0,1,5,-6,-8
1522235857860981,-23,10,-8,1,-10,-10,1,-4
1522235857861984,37,22,5,1,1,19,0,1
1522235857861984,-38,-36,-10,1,-4,-12,-3,0
1522235857874016,7,14,-2,-1,-1,1,-6,-1
1522235857874016,-8,-29,0,0,5,16,7,4
1522235857883040,13,63,4,-2,0,-16,3,9
1522235857883040,25,41,9,3,4,3,0,-3
1522235857897077,-35,-81,-18,-5,-6,-3,-4,-10
1522235857897077,5,23,-4,-3,-1,-13,-3,-2
1522235857904096,2,-45,1,1,0,0,-2,2
1522235857904096,9,25,3,0,0,0,1,5
1522235857920139,-30,-21,-3,0,-1,0,-1,-1
1522235857920139,33,-20,-6,-4,-2,-2,-5,-9
1522235857922144,-5,36,4,1,1,0,1,0
1522235857922144,0,-16,-2,-2,-3,-3,-3,1
1522235857934176,20,34,4,3,-1,7,-1,1
1522235857934176,-44,-94,-5,-1,0,3,1,-6
1522235857943200,20,76,8,3,-10,-6,4,10
1522235857943200,11,-73,-9,-6,-1,4,-10,-15
1522235857958240,12,30,6,0,1,12,1,10
1522235857958240,3,-1,-6,-6,-4,-13,3,-9
1522235857964256,4,-16,-4,-1,3,-1,0,-1
1522235857964256,-7,-13,5,0,1,-2,-3,8
1522235857988320,28,54,2,0,-4,-12,12,0
1522235857988320,-5,2,-1,1,4,-5,-21,1
1522235857989323,-16,7,1,-3,1,2,1,-5
1522235857989323,-22,-5,-4,-1,-5,-10,-1,1
1522235857994336,-8,-117,-7,-2,-1,12,4,-4
1522235857994336,28,93,9,1,0,-5,26,3
1522235858003360,-41,7,-4,-1,1,-10,-14,-8
1522235858003360,48,-29,-6,-3,1,11,-2,0
1522235858017397,-24,4,1,1,0,-27,-28,-2
1522235858017397,30,1,2,1,11,14,15,-3
1522235858024416,20,32,0,-1,-11,3,7,5
1522235858024416,-31,-17,2,0,-2,-16,9,-2
1522235858040458,-24,-4,-5,-4,-2,3,1,-2
1522235858040458,47,17,0,-4,-6,-9,-40,1
1522235858042464,3,34,4,0,4,-3,17,1
1522235858042464,-15,-18,-4,3,5,-8,0,-2
1522235858063519,35,5,-9,-5,-8,-2,-7,-7
1522235858063519,-43,4,7,2,0,5,7,-2
1522235858064523,13,-72,-9,-3,-4,4,-6,3
1522235858064523,-12,22,3,-3,-3,-12,2,0
1522235858077557,-8,44,6,2,5,-6,0,4
1522235858077557,-41,-64,-6,1,5,27,6,-2
1522235858084576,56,-4,-5,-5,-16,-9,-15,-1
1522235858084576,14,35,5,3,2,7,-6,0
1522235858100618,-31,-33,-2,-1,0,14,4,-10
1522235858100618,10,15,0,0,-4,-13,-17,2
1522235858102624,-102,-46,-2,3,5,5,-19,-8
1522235858102624,48,24,-2,-2,-3,-2,25,9
1522235858122677,-7,-2,4,-2,3,12,16,2
1522235858122677,95,95,-2,-6,-5,-1,-32,6
1522235858124682,-37,-66,-2,4,7,33,6,-10
1522235858124682,12,7,-5,-4,-1,-5,-8,3
1522235858137717,17,23,4,2,0,0,1,-11
1522235858137717,-60,-59,-1,4,4,3,10,-4
1522235858143733,17,51,5,-1,2,-10,8,14
1522235858143733,8,-39,-8,-2,3,0,-9,-16
1522235858160778,32,119,0,-2,-3,-6,-14,1
1522235858160778,-21,-68,-8,-2,-4,-7,31,3
1522235858161781,40,16,-1,-3,-1,-18,-21,1
1522235858161781,-109,-44,5,3,3,7,-5,2
1522235858182837,88,4,-12,-8,-3,-13,-23,8
1522235858182837,-44,-36,-8,-4,-4,-16,7,-18
1522235858184842,29,41,0,-4,-5,3,10,11
1522235858184842,-2,13,0,3,4,0,8,-9
1522235858196874,-74,-40,3,1,1,8,15,-6
1522235858196874,10,51,3,-5,1,14,-36,6
1522235858205898,-10,-69,-8,-7,-6,-48,-38,-4
1522235858205898,-1,69,4,-1,24,46,10,1
1522235858220938,-70,-46,-7,1,-30,-70,-8,0
1522235858220938,-16,84,9,3,-4,-17,12,-11
1522235858221941,-53,-17,7,4,2,35,-4,9
1522235858221941,-11,-8,-14,-5,-16,-41,-38,4
1522235858242997,-60,-85,-6,-1,13,36,23,-6
1522235858242997,15,29,9,0,-3,-2,5,0
1522235858245002,20,104,4,5,10,7,0,-2
1522235858245002,-39,-61,-4,1,-6,5,7,-2
1522235858257034,-24,-24,-1,5,8,8,14,3
1522235858257034,21,26,2,4,-4,-2,-1,23
1522235858266058,33,11,-9,-6,4,1,0,-19
1522235858266058,33,-19,15,7,-2,-18,9,16
1522235858280095,-34,23,6,-2,1,7,1,9
1522235858280095,-3,-19,-2,0,-1,4,-6,-8
1522235858282101,40,21,0,-4,1,12,29,11
1522235858282101,-67,-35,3,4,3,-12,-2,-12
1522235858303157,37,6,6,0,3,68,13,2
1522235858303157,-3,-45,-13,-5,-13,-42,-52,-2
1522235858305162,45,64,7,5,-1,4,8,4
1522235858305162,-44,1,-7,-7,-11,-3,-5,-10
1522235858317194,127,110,7,-4,4,7,-8,13
1522235858317194,-40,-79,-3,6,11,20,46,3
1522235858325215,-102,-35,0,2,-2,-11,-5,-15
1522235858325215,100,26,1,-3,-10,4,36,14
1522235858340255,-93,-72,-15,-4,0,-24,-35,-8
1522235858340255,79,-27,-2,-6,-5,-10,10,19
1522235858342261,-20,-22,-10,1,1,-9,-5,-2
1522235858342261,49,-28,-7,-4,0,-19,15,-4
1522235858363316,-112,-17,14,6,-4,11,30,-36
1522235858363316,-2,-14,0,3,-1,-27,-39,1
1522235858364319,105,32,-18,-23,-13,30,14,-18
1522235858364319,11,35,6,2,9,3,-13,3
1522235858376351,5,-22,-4,0,-1,2,28,10
1522235858376351,3,68,5,-1,8,15,-20,-1
1522235858385375,-107,-121,-14,-3,-7,-17,-5,-18
1522235858385375,8,66,7,4,4,22,-8,3
1522235858400415,29,49,9,1,-12,-28,-19,5
1522235858400415,-8,-2,-14,-6,-4,24,27,-2
1522235858402420,-22,-3,6,5,10,21,-4,15
1522235858402420,28,24,-6,-8,-21,-16,-4,1
1522235858423476,47,-34,0,-2,1,-37,-28,-1
1522235858423476,-46,36,-2,-4,0,32,11,-16
1522235858424479,-81,-38,-5,1,-6,-37,-19,-4
1522235858424479,-42,-18,1,2,10,21,-4,0
1522235858436511,34,63,12,5,7,11,-12,6
1522235858436511,-37,-103,-7,2,2,18,8,-3
1522235858445535,30,51,1,-1,0,-32,-4,2
1522235858445535,-39,-8,3,2,2,31,1,-3
1522235858460575,29,5,-8,-1,1,-5,0,16
1522235858460575,-46,26,-9,-5,-6,-9,2,-19
1522235858462580,19,-78,-5,-1,5,30,12,-4
1522235858462580,1,19,0,-2,-7,-27,-10,-2
1522235858482634,32,53,-7,1,0,-6,-1,2
1522235858482634,-8,-65,-3,-3,-17,-8,2,10
1522235858484639,-9,-25,13,7,0,-10,2,6
1522235858484639,39,59,-5,-7,-2,1,-8,-6
1522235858496671,13,-73,-5,-3,-6,8,-13,-3
1522235858496671,48,92,12,0,2,-14,-1,21
1522235858506698,-18,43,6,0,3,18,17,-19
1522235858506698,-39,-110,-9,-4,-8,-15,-17,1
1522235858520734,18,29,-7,-5,-1,7,-2,-5
1522235858520734,-49,-19,2,2,8,3,1,-4
1522235858521738,29,43,10,2,-1,-29,13,14
1522235858521738,17,26,1,2,9,17,11,0
1522235858542793,-26,-37,-1,-5,-7,-43,-6,-9
1522235858542793,-42,-6,1,0,8,0,0,0
1522235858544799,55,39,-6,-4,-2,-4,2,8
1522235858544799,-26,7,6,3,8,9,15,-3
1522235858565855,-6,-30,-8,-2,4,-1,-18,-1
1522235858565855,-9,-7,8,5,-3,-15,13,-8
1522235858566857,-12,26,-8,-3,0,23,-14,-2
1522235858566857,-2,38,1,-2,-7,-25,-19,2
1522235858580894,-17,83,13,6,-5,11,5,7
1522235858580894,29,-47,-10,-3,-9,4,14,-7
1522235858581897,-35,61,6,2,-2,-1,-11,-12
1522235858581897,-72,-65,-9,-3,-10,18,2,-7
1522235858602953,104,45,-6,-3,-2,7,-3,2
1522235858602953,32,6,1,-3,6,-8,-21,0
1522235858604959,-8,7,8,0,-14,-6,5,7
1522235858604959,14,10,3,0,3,6,-9,2
1522235858616991,-53,-4,1,2,10,10,17,-6
1522235858616991,5,-64,-3,-5,-8,11,1,0
1522235858626015,32,15,-3,-3,-2,-25,-15,-5
1522235858626015,17,57,7,2,4,-10,14,8
1522235858641055,-16,-18,1,4,2,4,3,-3
1522235858641055,-26,-36,1,2,2,7,-8,-2
1522235858642057,-17,14,-2,-2,2,14,8,8
1522235858642057,12,-51,-19,-8,-6,2,-12,-10
1522235858663113,3,47,-2,-2,2,27,25,-2
1522235858663113,53,29,-3,-1,-3,-21,-12,-4
1522235858665119,-22,-11,10,3,3,-9,-9,3
1522235858665119,47,-45,-6,-2,-8,-19,3,8
1522235858677150,4,-14,-5,-4,-4,-5,-19,-6
1522235858677150,-42,-43,-4,-1,1,5,-13,-10
1522235858692190,-31,-53,-4,-1,-1,-4,6,-2
1522235858692190,12,20,11,3,6,12,2,-4
1522235858700212,16,34,-8,-5,-6,-18,-20,7
1522235858700212,79,42,-2,-3,-6,1,18,1
1522235858702217,-15,-30,-3,4,3,7,26,-5
1522235858702217,-33,42,11,4,5,10,-18,-4
1522235858723273,-84,-128,-22,-8,-8,-14,2,-11
1522235858723273,65,127,5,2,1,-1,-4,9
1522235858724276,6,-15,2,1,-6,9,4,6
1522235858724276,-13,12,-5,-1,10,11,9,-1
1522235858736308,-56,-49,16,8,-3,1,7,-5
1522235858736308,41,53,-11,-10,-8,-6,-4,7
1522235858745332,-3,-37,-7,-2,1,-1,-9,-4
1522235858745332,-8,16,2,-2,3,-24,5,2
1522235858760371,-1,19,4,2,3,1,-1,-3
1522235858760371,-55,-19,7,3,7,1,7,1
1522235858762377,20,-61,-10,-4,-8,-1,-11,-1
1522235858762377,16,31,-2,-2,-2,3,20,0
1522235858783433,70,64,-7,-4,-1,-3,-20,2
1522235858783433,15,60,3,-2,-3,-2,-2,3
1522235858784436,29,22,2,0,5,6,0,-5
1522235858784436,-28,-29,-12,0,-2,3,-5,-8
1522235858796467,22,30,14,6,2,-8,1,8
1522235858796467,-73,17,-2,0,2,2,0,-6
1522235858805491,40,-72,-14,-4,-5,-11,-21,2
1522235858805491,-9,-2,0,0,-2,5,16,4
1522235858819529,20,14,4,2,6,-1,15,16
1522235858819529,-67,-33,0,-1,-8,-1,-5,-14
1522235858826547,-12,48,2,1,6,7,0,-1
1522235858826547,3,92,11,-1,-8,-11,-4,-3
1522235858843592,-34,-80,-16,-4,0,-8,-8,-15
1522235858843592,38,-21,-2,-3,-7,-3,7,9
1522235858844596,65,80,0,-4,-4,-5,2,1
1522235858844596,28,59,2,-8,0,18,-10,-7
1522235858856627,-73,-43,0,0,-2,-4,5,-3
1522235858856627,15,-25,5,6,4,-16,0,1
1522235858865651,7,17,-6,-5,-7,3,-8,-2
1522235858865651,25,4,0,-1,1,-12,-5,3
1522235858879689,-21,-20,-2,-1,-2,20,1,-6
1522235858879689,49,47,1,0,3,9,12,3
1522235858886708,-30,-66,-6,-4,-3,-26,-7,3
1522235858886708,-55,-19,0,-2,-3,-1,-8,-1
1522235858902750,-26,11,-2,0,3,2,1,-1
1522235858902750,30,-18,0,-1,-17,-3,-3,-7
1522235858904756,-57,16,13,2,6,4,12,6
1522235858904756,44,-34,-7,0,0,11,-4,10
1522235858916787,20,40,-1,2,-6,-15,33,-8
1522235858916787,-52,-71,1,3,10,10,4,11
1522235858925811,8,45,7,-1,1,-9,-6,-6
1522235858925811,-10,-117,-8,1,-7,-4,-2,-3
1522235858939849,32,10,2,1,6,9,7,3
1522235858939849,21,108,-1,-2,1,-4,-9,4
1522235858946867,-33,-45,4,5,0,11,11,10
1522235858946867,41,44,1,-3,-2,-12,-4,7
1522235858962910,-24,-62,-6,-2,8,-7,-21,-4
1522235858962910,-53,-2,-3,-5,-5,0,-1,-11
1522235858964915,32,83,4,0,4,-1,-7,1
1522235858964915,-1,-67,-6,-3,-15,0,-17,-11
1522235858985971,3,63,6,1,1,26,17,4
1522235858985971,29,-22,4,0,-1,-20,-7,-5
1522235858986974,-15,4,-6,-4,2,10,-4,-10
1522235858986974,16,46,-1,2,0,-9,9,12
1522235859000009,5,-17,5,2,-1,0,-10,0
1522235859000009,-12,-3,1,1,2,-2,-6,-5
1522235859007027,-32,-56,-19,-3,-5,-6,-2,-7
1522235859007027,-23,-43,-9,-6,1,-2,-2,-7
1522235859023070,51,27,-1,-7,-8,-4,-7,-3
1522235859023070,-18,8,-10,-2,0,0,-3,-6
1522235859025075,15,-1,5,1,12,17,7,6
1522235859025075,11,27,2,1,-11,-18,8,10
1522235859045128,-26,-16,-2,2,0,3,-6,-1
1522235859045128,4,5,-3,-5,2,7,-4,-4
1522235859047134,8,-34,-1,-1,-1,-17,-16,-3
1522235859047134,-12,3,-6,0,3,-16,-1,0
1522235859060168,-38,31,1,-1,-3,-6,-5,-2
1522235859060168,4,-31,0,3,2,2,1,4
1522235859067187,-18,-8,2,-1,-6,-11,3,-13
1522235859067187,-30,50,8,-3,2,12,-1,-7
1522235859083230,15,-61,-13,-4,-14,-3,-11,-5
1522235859083230,-28,-25,0,0,5,-16,0,2
1522235859084232,-27,-27,-4,-2,-4,17,18,7
1522235859084232,27,23,5,3,5,10,0,4
1522235859105288,-2,13,5,4,6,8,7,4
1522235859105288,5,-25,3,-3,0,6,4,2
1522235859107294,22,101,-1,-3,-8,-5,-4,7
1522235859107294,-50,-36,-3,1,3,5,-1,-9
1522235859119326,-12,-14,2,3,-4,-7,5,2
1522235859119326,30,17,-2,-4,1,12,-4,4
1522235859128350,-37,27,10,4,0,3,0,-7
1522235859128350,29,10,5,3,1,-6,14,-2
1522235859143389,-12,-7,-10,-5,0,1,-35,-8
1522235859143389,22,7,1,-1,3,11,-14,0
1522235859144393,19,-15,-8,-2,-5,-14,0,0
1522235859144393,14,-11,-2,-1,1,6,0,5
1522235859165448,10,39,8,4,3,8,-6,-3
1522235859165448,-58,-39,-9,-4,-2,-18,20,-5
1522235859167454,-3,-57,-5,-1,13,12,15,4
1522235859167454,22,29,0,-1,-7,-14,-7,-6
1522235859179485,24,-3,-9,-3,1,-9,3,2
1522235859179485,-27,9,0,1,-6,-3,-3,-2
1522235859188509,21,20,3,0,4,19,2,-4
1522235859188509,0,-60,-11,-6,-1,6,-2,-1
1522235859203549,25,19,2,0,0,-6,14,8
1522235859203549,3,58,13,5,4,1,6,2
1522235859204552,-37,-71,-10,-2,6,0,-9,-4
1522235859204552,21,30,-2,-3,-11,-9,-12,-1
1522235859225608,-27,-12,0,-3,3,1,-4,-3
1522235859225608,6,6,-4,-1,-1,-8,5,0
1522235859227614,57,50,8,1,3,2,-3,2
1522235859227614,-22,-27,-4,0,-2,13,12,3
1522235859239645,25,-17,-1,0,-1,-12,-20,-4
1522235859239645,-12,-35,-7,-4,-4,-1,-8,1
1522235859248669,58,64,5,-1,-12,-2,-1,2
1522235859248669,-106,-28,-1,-3,6,12,-13,-12
1522235859262707,31,-6,-1,-1,-8,-30,1,0
1522235859262707,-64,28,3,-1,3,34,4,0
1522235859264712,8,-29,-3,-3,-3,-23,5,-2
1522235859264712,42,30,-5,-2,-2,7,7,3
1522235859285768,-4,5,4,2,-1,4,6,-2
1522235859285768,-13,-4,-6,-4,-1,-3,-18,0
1522235859286771,52,32,3,0,-1,3,0,2
1522235859286771,-68,-63,0,0,11,3,20,-7
1522235859298803,7,39,1,-3,-14,-19,-2,4
1522235859298803,59,-2,-7,0,-2,-3,0,-6
1522235859307826,-6,-38,-3,0,-7,7,1,3
1522235859307826,9,95,12,1,5,-4,-5,2
1522235859322867,-27,-64,-18,-6,-4,9,2,0
1522235859322867,-10,-3,-1,1,0,3,-2,-10
1522235859324872,-24,-17,-3,0,-4,-3,0,4
1522235859324872,35,49,4,0,-2,-12,-8,-3
1522235859345928,-16,-1,-2,-3,3,7,-5,-7
1522235859345928,-5,-23,-1,2,-5,-23,12,3
1522235859347933,-19,2,-4,-2,4,12,7,-6
1522235859347933,6,0,-7,-3,-1,7,-9,-6
1522235859358962,12,18,6,2,-6,-22,-6,1
1522235859358962,-17,-62,-6,-2,-1,-6,-4,-1
1522235859367986,-43,48,6,-1,-4,-2,-16,-6
1522235859367986,61,-66,-12,-2,-2,-16,11,13
1522235859383026,-4,-32,-4,-3,13,16,5,-12
1522235859383026,-10,42,5,1,-7,1,1,3
1522235859385032,-12,11,1,1,-1,-6,-5,-5
1522235859385032,3,-40,0,2,-1,-5,-3,3
1522235859406088,3,33,1,1,3,21,5,-3
1522235859406088,-6,20,2,2,3,6,2,0
1522235859407090,-4,-90,-10,-3,-2,-2,-1,-5
1522235859407090,21,29,-2,-3,-3,-2,-14,-1
1522235859419122,21,16,3,2,-7,-14,-1,3
1522235859419122,-1,40,7,7,9,0,12,8
1522235859428147,-13,-96,-12,-4,-11,-17,-7,-2
1522235859428147,10,103,6,0,1,-1,1,10
1522235859443186,-9,-17,-4,-2,-1,1,3,-5
1522235859443186,14,-5,0,2,3,17,-3,0
1522235859445192,-25,35,-1,-4,0,-11,-7,-8
1522235859445192,-14,-23,3,-1,-1,-11,9,-2
1522235859465245,-29,-13,1,2,1,10,-18,-5
1522235859465245,64,5,2,-3,-3,-4,9,7
1522235859467250,50,101,1,-1,-4,5,-3,1
1522235859467250,-50,-79,-8,-2,-1,5,-1,-11
1522235859479282,17,43,-1,-2,-3,-3,6,-2
1522235859479282,-36,-38,-2,-1,1,0,-9,-4
1522235859488306,14,72,11,4,3,0,12,6
1522235859488306,14,34,-2,-2,-3,-9,-12,-9
1522235859503346,-24,-34,-9,-3,-11,6,3,0
1522235859503346,19,33,-3,0,2,20,-14,6
1522235859504349,-13,-33,5,0,-7,-13,-6,1
1522235859504349,-56,-21,3,3,6,25,-3,-7
1522235859525405,81,20,-8,-4,-3,-10,-2,9
1522235859525405,24,-35,8,-1,-1,4,5,-7
1522235859527410,-25,28,-4,5,3,3,-3,0
1522235859527410,-36,-112,-1,0,1,3,2,-4
1522235859539442,27,56,4,-7,10,17,-29,0
1522235859539442,-3,10,-14,-5,-20,-40,0,2
1522235859548466,67,103,2,-3,2,4,-5,0
1522235859548466,-11,0,2,2,-4,-11,8,4
1522235859562503,-62,21,13,6,10,-13,16,0
1522235859562503,31,-11,-4,-7,-2,2,10,-2
1522235859576541,-11,-37,-1,-2,9,1,-9,4
1522235859576541,20,41,-1,1,-14,-1,4,-11
1522235859585565,-23,-45,-6,-1,-2,-11,-35,-5
1522235859585565,-40,-15,-2,-4,3,4,-4,-2
1522235859587570,7,-34,-2,-1,-3,-3,13,7
1522235859587570,12,16,-3,-4,8,23,-2,-1
1522235859599602,3,13,1,2,-10,-9,19,4
1522235859599602,-35,-31,2,5,2,4,1,-4
1522235859608626,-68,-36,-1,-4,-3,-10,-24,-9
1522235859608626,45,51,-4,-2,-2,7,-1,8
1522235859622663,-24,25,2,3,1,10,17,-4
1522235859622663,0,14,-1,-1,1,8,-11,3
1522235859624669,-3,-21,-2,1,9,11,13,-1
1522235859624669,-12,-16,2,-2,-11,-15,-6,-2
1522235859644722,14,5,-5,-4,-3,-9,-1,-6
1522235859644722,8,21,5,-2,1,0,2,-4
1522235859653746,-39,-12,-4,-1,-3,-2,-3,-5
1522235859653746,-59,-54,-5,0,1,-3,0,-8
1522235859658759,86,36,-3,-2,-3,1,7,7
1522235859658759,-25,-28,-5,-1,0,-3,-2,-1
1522235859667783,4,-11,3,-2,-3,0,2,-2
1522235859667783,-46,19,0,0,2,-8,-15,-9
1522235859682823,1,-78,-16,-5,-5,4,9,-1
1522235859682823,3,-54,-5,-2,4,4,-2,-3
1522235859684829,2,7,-6,-3,-4,-6,0,-2
1522235859684829,19,29,6,0,2,-4,-1,8
1522235859705884,3,7,5,2,3,0,2,5
1522235859705884,-14,40,-2,-4,-5,-2,-5,-9
1522235859706887,6,-23,1,4,8,6,7,3
1522235859706887,48,26,-7,-7,-7,-11,-7,7
1522235859718919,-21,77,9,5,5,20,21,5
1522235859718919,55,41,-2,-1,-5,-6,-17,7
1522235859727943,-32,-41,-3,2,1,7,1,-4
1522235859727943,-13,48,7,-1,-11,5,-1,-6
1522235859741980,-61,-30,-2,-1,4,9,9,-7
1522235859741980,89,75,-6,-3,-3,-14,-3,6
1522235859748999,13,-21,-7,-3,-4,-5,-5,-5
1522235859748999,-1,-3,0,3,6,-3,5,3
1522235859766044,25,-12,-1,2,0,13,2,3
1522235859766044,-43,-22,1,-3,-3,-1,-6,-7
1522235859767047,-18,12,8,5,1,-9,-10,-3
1522235859767047,26,-54,-7,-6,1,-2,-7,5
1522235859779079,-30,0,2,1,-2,1,1,-6
1522235859779079,-38,-27,3,3,5,-1,5,9
1522235859788103,3,51,6,1,-4,-4,-1,3
1522235859788103,17,4,3,-3,5,8,8,1
1522235859802140,41,15,1,1,-4,-21,-19,4
1522235859802140,-36,-24,-5,-1,-1,2,5,-5
1522235859809159,-35,-24,1,2,0,-8,0,0
1522235859809159,56,59,-5,-6,-5,-7,5,2
1522235859825201,-75,-103,-7,1,1,12,24,-2
1522235859825201,-8,6,-4,-5,-7,-23,-32,-12
1522235859827207,91,31,-2,-3,-4,-8,-6,0
1522235859827207,-14,-10,-1,4,4,-1,-3,9
1522235859839239,21,8,-3,-5,-5,-14,-11,-19
1522235859839239,26,23,-1,0,3,-1,3,1
1522235859848263,-26,-34,-4,0,-1,18,24,3
1522235859848263,-54,-44,0,1,0,-7,-30,-8
1522235859862300,28,26,1,-1,1,3,1,8
1522235859862300,-77,-20,3,3,1,-6,-14,-1
1522235859869319,34,13,-3,-2,7,5,0,-4
1522235859869319,54,56,-2,-1,-5,-3,6,-7
1522235859885362,-5,-60,-7,-2,-2,-9,5,5
1522235859885362,2,-24,2,2,-1,5,8,-1
1522235859887367,-30,-9,-1,-3,-4,0,1,1
1522235859887367,15,62,-3,-3,1,-7,-1,4
1522235859899399,-15,8,1,0,0,-6,-5,1
1522235859899399,40,-5,-5,-3,-7,3,-4,-4
1522235859908423,35,24,-3,-5,-7,-20,-6,2
1522235859908423,-99,-72,4,6,7,8,9,-7
1522235859922460,2,61,6,-2,-3,-2,-6,0
1522235859922460,32,-36,-8,-3,1,7,4,1
1522235859929478,-15,-1,-3,-5,-7,-14,-9,-6
1522235859929478,-22,24,-1,-1,-3,-13,-11,-1
1522235859945521,-53,-57,-1,0,-2,0,-6,-4
1522235859945521,57,51,3,-2,-2,4,6,3
1522235859947527,-19,29,3,2,1,7,6,0
1522235859947527,21,-7,2,0,2,9,21,2
1522235859968583,-28,-2,-1,-1,-2,-17,-20,3
1522235859968583,46,19,2,-4,1,4,4,-4
1522235859970588,-6,-12,1,2,-5,15,-3,-4
1522235859970588,35,34,2,-1,-3,3,7,4
1522235859982620,31,23,-2,2,0,10,10,11
1522235859982620,-55,-24,1,1,5,-5,-1,3
1522235859989638,-2,7,-2,-3,-7,-25,-1,1
1522235859989638,34,-2,-5,-3,-1,-6,3,-13
1522235860005681,-13,0,1,-1,-1,-11,-10,0
1522235860005681,33,3,-3,-1,0,19,17,12
1522235860007687,-21,-15,-7,-6,-8,4,16,-3
1522235860007687,-51,-29,2,2,4,1,-15,-2
1522235860027740,45,-10,-3,0,-1,-6,6,-3
1522235860027740,38,55,3,0,1,7,6,5
1522235860029745,-29,-45,-8,-3,-1,0,-7,-2
1522235860029745,30,-45,-10,-7,-7,-3,-4,-8
1522235860042780,18,26,-8,-1,-4,2,-2,-1
1522235860042780,-43,4,6,3,2,-4,10,-4
1522235860056817,19,40,-3,-2,9,13,-22,0
1522235860056817,-4,27,6,0,-21,-25,13,11
1522235860065841,-12,-54,-9,1,2,19,-12,-19
1522235860065841,45,8,-6,-4,-5,-9,-5,0
1522235860066844,-7,40,11,2,0,-3,-2,0
1522235860066844,10,-30,-8,0,5,-7,3,2
1522235860087899,-45,32,8,4,2,-5,5,-5
1522235860087899,-58,-27,4,2,-2,7,7,3
1522235860089905,4,-37,-5,-2,0,-4,-4,-2
1522235860089905,2,55,9,4,3,10,-1,8
1522235860101937,30,34,2,-5,-9,-5,-3,-2
1522235860101937,-2,-21,-6,-1,1,-8,-8,-5
1522235860110962,-33,21,10,2,3,8,0,-3
1522235860110962,9,-1,-8,-3,1,1,-8,-4
1522235860126001,-16,-68,-4,0,3,-6,4,2
1522235860126001,-10,34,0,-2,-5,-4,-3,2
1522235860127004,-37,23,14,6,3,6,9,9
1522235860127004,10,-58,-9,-4,0,7,-9,-11
1522235860148059,-4,27,-1,-1,1,9,1,-5
1522235860148059,-25,-31,-7,-2,-1,-13,-4,-6
1522235860150065,19,-6,-5,0,-3,-5,-4,1
1522235860150065,-25,23,8,6,9,9,7,3
1522235860162097,26,12,-7,-7,-12,-21,-8,-7
1522235860162097,-56,-44,-1,1,2,13,-3,0
1522235860171121,20,39,0,-2,-4,-1,-5,4
1522235860171121,-20,-96,-5,-1,1,8,28,7
1522235860185158,5,67,7,1,-1,-5,-9,-4
1522235860185158,-7,-16,-2,1,7,3,4,3
1522235860187163,-12,2,-9,-4,-7,-23,-11,-6
1522235860187163,-13,22,3,2,3,11,-6,5
1522235860208219,45,78,2,-1,-4,1,8,-2
1522235860208219,-34,-57,-3,-2,2,10,-6,-6
1522235860209223,31,10,-2,1,1,11,1,-5
1522235860209223,-60,-23,-3,0,2,-1,-6,-7
1522235860221254,-31,7,2,-3,1,1,0,3
1522235860221254,61,75,2,-1,-2,9,-9,-3
1522235860231282,17,-29,-1,0,2,26,15,6
1522235860231282,15,37,0,-2,-7,-12,-10,-3
1522235860245318,24,-4,1,4,5,8,26,2
1522235860245318,-100,-77,3,3,0,-8,1,-11
1522235860247323,50,-82,-16,-9,-10,7,11,2
1522235860247323,36,67,-1,-3,-2,-9,-4,-10
1522235860268379,-62,-55,-2,1,3,11,3,-1
1522235860268379,-1,24,1,-1,-5,-16,-3,1
1522235860269382,51,48,3,1,0,-7,-20,-4
1522235860269382,-7,-25,1,0,-1,-5,9,5
1522235860281414,-6,17,1,-1,-5,-14,-14,-4
1522235860281414,-38,-67,-5,2,2,17,-7,-2
1522235860290438,0,-3,1,-4,-1,-14,24,5
1522235860290438,68,11,-8,-4,-9,-3,-16,3
1522235860305478,-45,-43,-5,2,5,13,-7,0
1522235860305478,35,38,1,-2,9,-18,6,8
1522235860307483,-9,2,3,6,3,8,-2,-2
1522235860307483,24,-28,-5,-5,-3,7,-4,-5
1522235860328539,5,-13,-1,-1,-6,-14,-3,2
1522235860328539,-8,40,1,-2,3,-4,4,-8
1522235860329542,7,2,-4,-1,3,2,8,2
1522235860329542,-109,-89,-3,2,7,4,-1,-4
1522235860341573,69,20,1,-3,-3,8,0,6
1522235860341573,29,17,-10,-7,-9,-5,0,-2
1522235860350598,17,33,2,0,1,-2,-12,-2
1522235860350598,-42,24,2,-2,1,8,3,-7
1522235860365637,59,15,-6,-1,0,-1,20,3
1522235860365637,45,24,-3,0,0,4,-30,1
1522235860367643,-11,34,-2,0,-1,-17,-10,-4
1522235860367643,-20,-75,-7,-3,-3,17,5,-1
1522235860387696,-39,35,7,4,6,9,-1,-1
1522235860387696,-11,20,4,-3,-7,-3,15,1
1522235860389702,-14,-40,-5,-2,0,1,-6,-7
1522235860389702,46,71,6,1,-4,-11,-12,-11
1522235860401734,-42,-6,2,2,3,5,-5,-1
1522235860401734,14,4,-1,-1,-5,-1,20,-2
1522235860410758,-5,-5,0,-3,-4,-6,9,10
1522235860410758,-2,1,3,3,2,-2,8,5
1522235860425797,-53,-39,-1,-3,-2,3,-1,-7
1522235860425797,70,36,-2,-2,1,10,2,3
1522235860426801,-32,-15,-2,-4,-2,-3,-3,0
1522235860426801,42,40,-4,-5,-2,-5,-7,2
1522235860447856,-28,-45,-6,0,-1,8,-3,-4
1522235860447856,19,-1,1,1,-1,-9,-4,2
1522235860449862,-29,-10,-5,-4,-2,-2,-8,-5
1522235860449862,6,12,1,0,2,16,2,2
1522235860461894,14,-7,-2,1,-1,-15,-12,4
1522235860461894,-37,64,10,1,-5,-3,-1,-8
1522235860470918,-34,-47,-6,2,0,-9,-5,-11
1522235860470918,29,12,-5,-1,-1,-10,-7,-4
1522235860485958,34,8,-5,-5,-6,9,14,3
1522235860485958,-17,-18,-1,1,3,10,-9,4
1522235860486960,-9,24,3,2,-1,-18,-4,1
1522235860486960,-3,-2,-3,-1,1,5,0,-1
1522235860508016,-19,-10,-1,-2,-2,-13,-17,-4
1522235860508016,-43,-3,-2,-1,-1,0,2,1
1522235860510021,89,-32,-7,-2,6,18,4,1
1522235860510021,-72,-40,5,4,-2,-6,7,0
1522235860522053,46,44,-4,-2,-1,6,-3,-11
1522235860522053,33,28,0,-2,-3,-9,-5,-1
1522235860531078,-5,25,5,2,-2,0,3,4
1522235860531078,10,6,1,2,1,-2,-3,10
1522235860545115,-16,-10,5,6,4,18,16,0
1522235860545115,5,-3,-2,-3,0,-15,-11,-8
1522235860547120,-23,67,-2,-3,-4,-11,-2,-3
1522235860547120,34,13,-2,-1,2,25,13,4
1522235860568176,2,-1,2,1,0,-27,-39,2
1522235860568176,-21,-17,-4,1,7,-1,-4,-6
1522235860570181,-2,1,4,1,-12,-13,18,4
1522235860570181,-9,61,5,-2,0,-4,16,0
1522235860582213,-2,-112,-14,-6,-5,4,20,1
1522235860582213,-17,-25,-5,-1,-4,-13,-17,-7
1522235860591242,-3,4,-10,-4,2,5,-8,-6
1522235860591242,-15,-21,-1,1,0,-11,-15,-7
1522235860605274,15,86,5,-1,-1,9,15,-5
1522235860605274,-61,-92,2,1,1,1,5,4
1522235860607280,39,9,-4,-3,-3,-5,1,-4
1522235860607280,15,71,0,0,-2,-9,-6,-3
1522235860628336,-43,-53,-7,2,7,18,-1,-2
1522235860628336,19,3,1,2,-5,-10,1,0
1522235860629338,-46,-34,5,3,6,15,6,1
1522235860629338,44,67,-4,-7,-6,-23,-20,2
1522235860641370,10,30,1,-1,-1,-11,-13,-8
1522235860641370,-44,-95,-10,-4,-1,4,8,-2
1522235860650394,-8,-12,-4,-4,-3,11,-4,-1
1522235860650394,7,-3,0,0,-1,5,7,-5
1522235860665434,-7,-4,4,-2,-3,-16,-3,7
1522235860665434,14,42,5,2,5,8,4,-3
1522235860667440,14,87,11,3,-5,5,-3,-3
1522235860667440,6,-89,-14,-2,-1,3,-16,-15
1522235860688496,-2,26,0,1,-2,-15,7,-1
1522235860688496,17,28,1,-1,-2,4,6,8
1522235860689498,17,22,3,1,2,1,9,5
1522235860689498,-22,-7,-2,-1,-4,-12,-32,-2
1522235860701530,-22,-24,4,1,1,3,0,2
1522235860701530,48,15,-4,-3,-5,13,14,3
1522235860710554,-80,-18,0,0,0,-7,1,-12
1522235860710554,53,-108,-17,-7,-5,-4,1,1
1522235860724592,13,35,2,-4,0,-10,-13,7
1522235860724592,-6,6,2,1,0,0,10,7
1522235860731610,8,31,3,0,0,1,-8,0
1522235860731610,-87,-70,-1,-1,3,2,11,-1
1522235860747653,41,30,2,3,1,11,2,-2
1522235860747653,22,-46,-14,-7,-10,-13,-5,-1
1522235860749659,53,14,-9,-5,-5,-8,-11,3
1522235860749659,-5,60,5,-2,-1,2,4,-4
1522235860761690,-19,-12,-1,2,1,2,4,4
1522235860761690,-45,-19,1,2,4,2,-6,-14
1522235860770715,59,5,-1,-1,-1,-3,-3,-1
1522235860770715,1,32,2,0,0,6,0,-6
1522235860784752,-8,33,-6,-4,-7,-19,-7,-5
1522235860784752,19,11,-3,-2,0,9,4,5
1522235860791770,-34,-42,2,1,14,-1,-1,5
1522235860791770,-2,19,3,-1,-9,4,-7,-4
1522235860807813,-21,-21,3,0,-2,-1,10,-2
1522235860807813,49,32,-1,-1,0,9,-3,2
1522235860809818,-13,9,-2,-2,0,18,29,-2
1522235860809818,42,-15,3,4,2,-7,-18,11
1522235860821850,-38,-31,1,1,2,7,-12,-1
1522235860821850,32,106,8,4,0,-17,-16,0
1522235860830875,-21,-47,-3,-1,1,6,-2,3
1522235860830875,23,39,-4,-4,-2,4,9,1
1522235860843909,-6,-1,2,0,-1,2,1,1
1522235860843909,-25,-7,0,0,1,0,2,-3
1522235860852933,-22,70,7,2,2,-1,-3,-1
1522235860852933,45,-21,-13,-3,-6,-14,3,-2
1522235860867973,8,-25,-7,-4,-2,7,-10,2
1522235860867973,-44,-9,-1,-3,-2,1,11,0
1522235860869978,-1,-28,-3,-2,-6,-12,-9,1
1522235860869978,-7,-6,5,3,1,-14,-2,1
1522235860891034,-51,-10,-1,-1,1,21,12,-6
1522235860891034,54,42,0,0,0,-10,2,0
1522235860892037,-24,-128,-28,-7,-10,6,-6,-3
1522235860892037,-25,28,10,4,4,7,-7,5
1522235860905071,1,1,0,-2,-7,-24,17,-6
1522235860905071,-6,6,2,2,8,-11,-11,1
1522235860912090,51,46,4,1,-2,-6,-4,5
1522235860912090,-54,-70,-2,-1,-2,17,13,-8
1522235860928132,-5,-18,-2,-1,-4,-10,-5,-2
1522235860928132,24,7,-5,-5,-5,5,13,0
1522235860930138,29,27,7,2,0,-11,-32,-3
1522235860930138,-58,11,0,2,3,9,7,3
1522235860950191,71,-13,-7,-1,6,10,-8,3
1522235860950191,-12,-25,-1,0,-7,-16,3,-1
1522235860952197,16,28,2,-1,0,10,-2,-2
1522235860952197,-6,59,7,1,1,-3,9,6
1522235860965231,-7,13,1,1,0,-5,1,2
1522235860965231,-46,-21,-5,-2,2,1,-7,-5
1522235860972250,8,20,3,0,1,6,9,3
1522235860972250,-4,-8,2,-2,-2,-9,-9,-4
1522235860988292,23,-15,-4,-2,-2,-2,0,1
1522235860988292,-8,-19,3,1,-3,1,10,2
1522235860989295,-19,4,0,-1,0,-3,-12,-3
1522235860989295,19,2,-6,-1,-1,-4,1,-1
1522235861010351,-1,-14,9,6,7,23,-1,7
1522235861010351,-13,43,3,0,-6,-6,-8,-3
1522235861012356,8,4,1,0,0,4,4,3
1522235861012356,36,-1,-9,-3,-2,-9,-1,1
1522235861024388,-6,-11,-4,-1,-3,-1,-1,-1
1522235861024388,-7,3,1,-1,3,8,3,7
1522235861033412,1,1,-5,-3,-1,-10,2,-9
1522235861033412,-20,-73,-4,-2,-2,14,-2,-1
1522235861048452,-13,46,5,3,7,6,2,-1
1522235861048452,9,-30,-5,-1,-12,0,-1,-3
1522235861049455,19,-34,-6,-3,-5,-1,-8,2
1522235861049455,2,50,4,1,2,-5,-3,-5
1522235861070511,-41,-87,-6,-3,-6,-27,1,-6
1522235861070511,1,26,2,0,2,4,-6,-5
1522235861072517,-20,-14,-1,3,1,-4,2,1
1522235861072517,0,-12,-6,-5,-7,-1,-1,-3
1522235861084548,15,40,1,-2,-3,2,-15,-1
1522235861084548,-12,-12,0,-1,-1,-22,6,-1
1522235861093573,-20,-31,-2,-2,-3,-1,13,-2
1522235861093573,0,11,6,1,0,-11,-10,-2
1522235861108612,21,14,2,2,3,10,6,0
1522235861108612,7,-33,-10,-4,-2,-2,-15,1
1522235861109615,-19,-2,1,0,2,0,2,-7
1522235861109615,-13,8,2,1,4,19,20,7
1522235861130671,17,3,-1,-3,-4,-4,5,0
1522235861130671,18,60,5,2,-1,8,-5,0
1522235861132676,-14,-39,-5,2,-1,-1,-7,-4
1522235861132676,10,-40,-1,-2,-2,0,3,-1
1522235861144708,-16,-33,-6,-6,-6,-8,-15,1
1522235861144708,4,21,0,-1,3,6,-5,-3
1522235861153733,-22,-4,2,-1,2,-5,3,2
1522235861153733,8,14,2,1,2,5,15,-1
1522235861167769,35,36,0,-2,-2,-2,-18,-1
1522235861167769,-31,-65,-10,-4,-2,22,-1,-14
1522235861169776,-6,4,0,-2,-4,-27,-10,-1
1522235861169776,0,3,-1,2,1,-4,1,4
1522235861190831,-12,9,1,0,7,13,12,-1
1522235861190831,0,-13,1,0,-2,-9,-9,6
1522235861191834,7,69,6,2,1,8,14,-4
1522235861191834,0,-42,-9,-4,-6,-18,-13,0
1522235861203865,-5,-23,-6,-2,-2,-3,0,0
1522235861203865,-4,-5,-1,-1,1,7,4,-2
1522235861212889,8,0,2,-1,2,4,-3,3
1522235861212889,15,40,3,0,-1,-7,11,1
1522235861227929,14,18,1,0,0,14,2,2
1522235861227929,-17,-32,-1,2,0,-4,-6,-2
1522235861229935,18,73,4,0,0,4,-2,3
1522235861229935,-23,-20,-10,1,0,-4,0,-5
1522235861250990,-5,25,-1,-1,-4,-6,1,-8
1522235861250990,-12,-58,-7,-5,-3,-2,3,5
1522235861251994,25,9,-1,-2,-1,1,1,-2
1522235861251994,-9,17,7,2,3,0,-3,4
1522235861264025,1,22,-2,-3,-14,-11,0,-4
1522235861264025,15,26,3,-2,2,8,-2,0
1522235861273049,8,5,-5,-4,-4,-8,-2,-5
1522235861273049,6,11,-1,0,-1,4,-8,-1
1522235861288089,36,43,0,-1,1,0,-4,1
1522235861288089,-4,-13,-4,-4,-4,-2,5,4
1522235861290095,17,-2,1,1,-3,7,-2,-1
1522235861290095,-39,-75,-7,-1,-2,-10,-1,-1
1522235861311151,-47,5,8,7,6,1,3,-11
1522235861311151,32,47,-4,-1,-1,-2,-2,-2
1522235861312154,-25,-45,-3,0,1,1,0,1
1522235861312154,35,40,1,-1,-4,1,-7,1
1522235861324185,-7,-6,0,-1,-1,-1,1,2
1522235861324185,2,-53,-4,-2,-3,-7,-4,-4
1522235861333209,-53,-67,-4,0,1,-16,-1,-3
1522235861333209,6,49,6,1,3,26,-1,-3
1522235861348249,-2,-47,-5,-3,-3,-14,-14,-2
1522235861348249,-25,15,5,3,6,8,29,-4
1522235861349252,31,3,0,-2,-2,-5,-16,2
1522235861349252,-45,21,8,4,4,6,5,-2
1522235861370308,77,-10,-5,-3,-3,4,0,7
1522235861370308,-47,-48,-3,-1,-2,-16,2,4
1522235861372313,33,3,-7,-5,-5,-16,-8,-5
1522235861372313,-3,59,4,-2,1,9,-3,-4
1522235861384345,-38,-58,-9,-1,2,3,-3,-3
1522235861384345,42,75,7,-1,0,9,-1,7
1522235861393369,-59,-122,-11,-1,-1,10,12,-3
1522235861393369,-17,43,1,-1,-2,-24,-4,-5
1522235861408409,82,51,-1,-1,-3,-15,17,8
1522235861408409,24,24,1,1,-5,-8,-8,0
1522235861409412,-26,20,-2,-3,-2,9,-6,-7
1522235861409412,-4,-9,-4,-1,-2,1,3,-6
1522235861430467,-42,18,7,4,4,0,-4,0
1522235861430467,39,12,-1,-4,-2,-15,0,1
1522235861432473,12,-19,1,1,1,20,7,0
1522235861432473,36,-51,-6,-1,-1,-18,-2,6
1522235861444505,-100,3,4,1,1,5,-1,-8
1522235861444505,32,8,-8,-5,0,16,-10,1
1522235861453529,-3,32,5,-1,-4,-17,-5,0
1522235861453529,19,-23,-2,-1,-3,-6,-1,-3
1522235861468569,-4,7,1,1,5,4,-3,1
1522235861468569,-13,39,3,1,-3,5,0,-6
1522235861469572,-7,-21,-10,1,0,6,3,-3
1522235861469572,1,-8,-4,0,-4,-8,0,1
1522235861490627,12,11,3,0,2,4,4,5
1522235861490627,-30,82,5,-1,-1,-2,-17,-8
1522235861492633,25,14,-7,-5,-4,-9,2,6
1522235861492633,-13,19,5,0,3,1,0,-3
1522235861504664,23,13,-2,-1,-2,-4,3,2
1522235861504664,-3,-68,-5,0,3,-2,-8,-5
1522235861513689,0,47,11,3,3,3,14,5
1522235861513689,1,-64,-6,-4,-3,0,-11,-5
1522235861527726,-1,-11,-8,-5,-2,6,9,-5
1522235861527726,-6,-32,0,1,0,-3,-1,-4
1522235861529732,-15,-24,1,-4,2,0,-4,-2
1522235861529732,-13,14,0,2,-1,8,33,1
1522235861550788,11,-38,-3,0,0,-1,-10,-5
1522235861550788,3,-19,-6,-3,-6,-6,0,2
1522235861551790,-26,17,4,3,-2,-4,-6,-8
1522235861551790,11,41,0,-2,-1,-1,-2,-2
1522235861563822,4,-3,0,-1,1,2,-8,-1
1522235861563822,-6,2,-3,1,1,4,3,1
1522235861572846,10,-16,1,-1,-2,-15,-9,-1
1522235861572846,-3,4,-2,-2,-4,-5,-5,-1
1522235861587886,-56,-21,0,0,1,6,0,-5
1522235861587886,45,12,-3,-3,1,-2,-8,-3
1522235861589892,1,37,3,-2,-1,14,23,3
1522235861589892,-48,-32,-2,0,10,-1,-4,-2
1522235861610947,66,37,-4,-4,-18,-12,-4,1
1522235861610947,-42,-18,0,3,2,11,0,2
1522235861611950,3,24,2,0,0,0,-3,1
1522235861611950,28,3,-2,2,0,2,-5,1
1522235861623982,-52,-29,0,1,1,9,-2,-11
1522235861623982,4,9,3,1,-2,5,2,-1
1522235861633006,5,-10,-6,-1,-3,-8,-1,2
1522235861633006,14,-2,1,-1,0,-8,-3,4
1522235861647043,6,4,3,2,3,2,0,6
1522235861647043,-13,-8,0,-2,-1,4,0,-7
1522235861654062,-12,28,2,3,6,-1,19,1
1522235861654062,43,-28,-10,-7,-12,-13,-36,-4
1522235861671108,15,10,-2,-1,-1,-17,-8,4
1522235861671108,-22,-15,3,0,-1,-6,1,0
1522235861672110,17,21,-2,-4,-1,3,-14,0
1522235861672110,9,94,5,0,1,13,15,-2
1522235861684142,-20,-86,-11,0,-1,0,3,-2
1522235861684142,-8,-10,-1,2,-1,-9,-13,4
1522235861693166,-5,-4,-3,-2,-3,5,0,-2
1522235861693166,5,5,4,0,-2,1,1,2
1522235861707203,-5,25,1,-3,-1,0,0,1
1522235861707203,8,-7,-2,-1,1,1,6,6
1522235861714222,16,-10,-3,0,0,7,-10,1
1522235861714222,-19,-36,-2,0,-2,-16,-10,-3
1522235861730264,4,22,1,-1,-2,-4,1,-1
1522235861730264,7,17,-2,-1,-1,-8,2,1
1522235861732270,-30,-54,-6,0,14,15,-5,-1
1522235861732270,13,-1,-3,0,-13,-15,0,-2
1522235861744301,-2,-34,-3,-5,1,10,-2,-3
1522235861744301,23,37,3,5,-4,-11,4,4
1522235861753326,-41,-71,-4,-3,-5,2,-8,-7
1522235861753326,-13,-28,-6,0,4,11,4,3
1522235861767363,13,29,2,-2,5,1,2,3
1522235861767363,-4,16,-1,1,0,8,4,-1
1522235861774381,1,-51,-7,-3,-7,-12,-3,-1
1522235861774381,-13,10,0,-2,-1,2,-2,2
1522235861790424,28,54,5,1,-3,-1,4,8
1522235861790424,-62,-103,-10,-4,1,1,1,-9
1522235861792430,22,39,9,2,-2,-4,0,1
1522235861792430,26,49,2,0,-4,4,3,3
1522235861804461,-16,-35,-5,0,-4,-5,0,-4
1522235861804461,-9,13,4,-1,3,1,-3,-7
1522235861813486,18,19,-6,-2,-5,-3,-4,1
1522235861813486,-48,-30,0,-1,1,8,1,-9
1522235861827522,48,-23,-5,-2,-1,2,-2,-2
1522235861827522,12,58,9,2,1,-2,2,3
1522235861841560,13,-8,-2,1,-3,-2,1,4
1522235861841560,21,16,0,-2,4,5,1,0
1522235861850584,-34,8,1,2,1,-3,-1,0
1522235861850584,-5,-11,-3,-2,-2,0,0,2
1522235861852590,30,36,2,-3,-2,3,-4,0
1522235861852590,-25,-21,2,3,3,5,1,-1
1522235861872643,14,39,3,0,-3,-7,16,3
1522235861872643,-8,-58,-10,-3,-5,-9,-17,-1
1522235861874648,2,-38,-2,0,-3,7,1,-2
1522235861874648,-15,-38,-2,-1,-1,-13,-6,0
1522235861887683,-12,13,-1,-2,-1,10,2,-11
1522235861887683,-2,26,-3,-2,0,-1,10,-4
1522235861894701,-9,19,2,0,-1,-3,-1,1
1522235861894701,7,-4,0,-1,0,-3,9,-3
1522235861910745,8,15,0,1,2,13,-6,3
1522235861910745,-15,-29,-2,-3,-2,-11,-6,-2
1522235861911747,1,42,3,2,-1,-2,-5,3
1522235861911747,33,6,3,2,0,4,8,0
1522235861932802,-28,-32,-6,-3,-4,-10,-10,-2
1522235861932802,-10,0,0,0,3,33,-1,-1
1522235861934808,10,9,-2,-3,-2,-18,18,7
1522235861934808,28,-1,0,0,1,7,-16,-7
1522235861947842,-59,-3,2,3,1,4,-1,-4
1522235861947842,66,0,-5,-6,-1,-12,-12,4
1522235861953859,-14,21,5,-1,-10,-9,-8,-4
1522235861953859,-48,-17,2,1,2,4,11,4
1522235861970904,17,38,-2,-2,-3,-13,-1,-1
1522235861970904,-13,-47,-4,0,-2,1,9,-2
1522235861971907,26,-5,0,1,3,3,9,-1
1522235861971907,-4,2,-6,-3,-2,-2,-18,-3
1522235861992962,-49,-52,-1,-2,-3,-2,-3,0
1522235861992962,-2,-5,8,4,5,0,6,5
1522235861994968,58,48,-8,-6,0,4,-1,-4
1522235861994968,5,-25,-4,-5,-7,1,-2,0
1522235862007000,-2,-6,-4,-2,2,-6,-10,-1
1522235862007000,28,70,9,1,-1,-9,-13,1
1522235862016024,-82,-98,-13,-2,-2,3,-8,-5
1522235862016024,45,15,-2,0,1,6,15,9
1522235862031064,-11,28,5,1,2,-14,-21,-7
1522235862031064,2,79,5,-1,0,41,9,2
1522235862032067,-14,-46,-6,-2,-5,-16,-21,-5
1522235862032067,13,29,-10,-6,-7,8,-13,-5
1522235862053122,-34,-24,-2,-1,-6,-7,36,-1
1522235862053122,29,4,2,2,1,-12,-4,-3
1522235862055128,-15,70,1,-2,1,9,4,-3
1522235862055128,-15,-80,-6,-1,0,-10,4,3
1522235862067160,2,-15,-4,0,-1,10,1,3
1522235862067160,-20,-11,-4,-5,-3,-5,10,0
1522235862076184,39,50,5,-3,0,-10,-27,-1
1522235862076184,-14,-31,0,0,2,-6,-7,-3
1522235862090221,25,17,2,2,3,8,-1,3
1522235862090221,-26,-5,-10,-4,2,-11,-4,-5
1522235862092226,-15,-23,1,3,6,13,8,-1
1522235862092226,-24,40,4,-2,-11,-25,0,-4
1522235862113282,42,-1,4,0,-2,7,-4,2
1522235862113282,-25,-70,-9,-3,-7,-4,3,-1
1522235862114285,1,27,3,-1,4,3,7,0
1522235862114285,-34,1,3,3,7,9,2,-4
1522235862126317,75,94,2,-3,-4,-5,1,4
1522235862126317,2,-64,-10,-2,-2,-9,-8,-4
1522235862136344,-33,-12,1,1,2,3,5,-1
1522235862136344,18,15,1,2,3,0,-3,-7
1522235862150381,-35,-41,-3,3,0,-2,-3,5
1522235862150381,50,38,-3,-3,-2,0,-7,-8
1522235862152387,19,6,-3,-1,-5,-22,4,-1
1522235862152387,-25,34,1,1,1,1,16,-1
1522235862173442,-32,-66,-4,-2,1,-1,-18,-6
1522235862173442,-9,-24,0,1,1,1,-16,-5
1522235862174445,-3,35,7,1,2,13,8,1
1522235862174445,45,0,-2,-3,-7,-7,-4,-4
1522235862186477,-24,-65,-8,-6,-6,-8,18,-2
1522235862186477,-8,20,1,1,1,0,-23,6
1522235862195501,-28,-31,-1,-1,8,2,-2,-2
1522235862195501,2,14,0,1,-1,9,-1,-4
1522235862210540,26,39,-3,-2,-3,10,-3,-7
1522235862210540,-29,-43,2,-1,0,5,13,1
1522235862212546,9,43,2,1,3,5,8,2
1522235862212546,-7,13,3,4,-2,-10,-4,9
1522235862233602,15,-1,1,0,1,-5,-17,-5
1522235862233602,25,102,8,0,-1,-2,11,3
1522235862234605,-75,-99,-11,-1,0,10,0,2
1522235862234605,26,37,1,0,0,-1,-3,1
1522235862246637,26,31,-5,0,-2,-1,8,6
1522235862246637,24,5,-3,0,-6,-3,0,-2
1522235862255661,38,6,4,0,-1,3,-1,4
1522235862255661,-6,26,-2,-2,-2,-5,-4,-2
1522235862270700,-45,-12,2,2,3,4,1,-1
1522235862270700,-6,-12,-1,-4,-3,-4,0,-4
1522235862272707,17,-9,0,1,-4,-7,-5,-3
1522235862272707,11,-7,-1,0,3,8,0,4
1522235862292759,-17,-34,5,0,2,0,-2,5
1522235862292759,-7,-32,-8,-4,3,-11,2,-7
1522235862294765,15,66,5,0,-10,-5,-7,-2
1522235862294765,-14,-11,-1,0,-1,-1,-3,-5
1522235862306797,7,16,-1,-4,-1,20,2,0
1522235862306797,0,33,3,0,-1,0,1,2
1522235862315821,-2,3,-1,-2,3,0,0,0
1522235862315821,-1,-4,-7,-3,-1,4,-4,-4
1522235862330861,-9,63,4,-1,-4,-16,1,2
1522235862330861,-13,-36,-1,0,1,-2,2,3
1522235862331863,-3,-68,-11,-6,-8,-11,-9,-6
1522235862331863,-15,-26,-7,0,-2,-1,-3,-7
1522235862352919,-24,-26,0,0,3,1,-1,-3
1522235862352919,92,58,5,2,0,-1,1,11
1522235862354924,-32,-28,-4,-3,2,2,2,3
1522235862354924,-11,-2,4,0,0,2,1,-2
1522235862366956,27,28,4,-2,1,-2,0,-1
1522235862366956,-20,-19,-4,-4,-5,-4,-1,2
1522235862375981,16,24,2,2,0,2,-1,0
1522235862375981,3,-10,-2,0,2,-2,-2,0
1522235862391021,22,65,8,2,2,-3,0,1
1522235862391021,-62,-77,-11,-1,-1,4,9,2
1522235862392024,2,24,-3,-3,-1,-8,-6,-4
1522235862392024,12,-2,3,3,1,3,-1,1
1522235862413079,5,-2,-4,-4,-2,-14,-5,-2
1522235862413079,38,89,12,3,3,19,8,3
1522235862415084,-44,-91,-10,-4,-6,-7,-9,-2
1522235862415084,-26,-28,0,0,-1,-3,18,8
1522235862427116,-13,-105,-2,2,0,0,-10,-3
1522235862427116,11,21,-5,-1,1,29,9,3
1522235862436140,53,118,1,-4,-6,-25,-9,-2
1522235862436140,-3,-3,2,0,-1,4,4,-1
1522235862450177,-24,-21,-1,3,-3,-5,6,3
1522235862450177,-29,-9,-2,-1,-2,-6,-14,0
1522235862452183,23,40,6,2,4,16,13,3
1522235862452183,-11,-23,-8,-4,-6,-11,-12,-4
1522235862473239,26,25,1,-1,1,9,4,4
1522235862473239,-37,-30,0,1,2,-13,-7,-6
1522235862474242,14,24,3,-1,0,-2,-2,0
1522235862474242,-15,-2,1,0,-1,7,4,-3
1522235862487276,40,30,-6,-4,-4,-5,-10,-1
1522235862487276,-8,13,2,-3,-3,-10,6,-1
1522235862495297,-19,-21,0,1,3,2,-1,-3
1522235862495297,11,8,-3,-3,-5,-17,-23,-1
1522235862510337,25,32,0,-2,-2,2,12,5
1522235862510337,-21,-46,-5,-2,-1,7,-11,-6
1522235862512343,-60,-42,3,3,1,-11,15,-2
1522235862512343,47,5,-2,-2,0,10,8,3
1522235862533398,-10,10,3,-3,-2,3,5,-3
1522235862533398,-1,11,0,1,-1,1,-4,5
1522235862534402,29,75,-1,-1,0,7,-9,-6
1522235862534402,-20,-52,-7,1,1,-10,-1,-8
1522235862546433,-30,-13,1,0,-3,2,-6,-2
1522235862546433,8,23,0,-1,-2,-15,6,-2
1522235862555457,44,-1,3,1,2,10,7,10
1522235862555457,0,0,4,-1,-2,4,0,-3
1522235862569495,19,-2,-5,-3,-3,-2,-3,1
1522235862569495,-32,-19,-3,-1,1,3,-6,-7
1522235862576513,14,22,4,2,-2,-2,1,4
1522235862576513,-21,45,0,-2,1,24,7,-3
1522235862593558,-86,-128,-12,1,1,11,-12,-6
1522235862593558,61,76,-4,-2,2,-14,-6,-1
1522235862594561,-10,-11,-2,-2,-12,-10,-13,-5
1522235862594561,-5,24,1,0,2,1,3,4
1522235862606593,38,14,2,-1,2,3,2,0
1522235862606593,-23,-2,-1,-3,-2,3,2,-2
1522235862615617,-14,-51,-5,-2,-3,-12,-2,-6
1522235862615617,-47,0,1,0,1,-12,11,-3
1522235862629655,60,36,-5,-2,1,-3,-26,-1
1522235862629655,-14,13,3,2,0,-3,4,-1
1522235862636673,-46,-99,-9,-2,2,13,0,7
1522235862636673,25,-24,-6,-2,-5,6,11,-3
1522235862652716,-18,38,2,3,0,-8,5,3
1522235862652716,19,-25,-1,1,2,-3,-8,-5
1522235862654721,-28,19,1,-2,-2,-11,5,-3
1522235862654721,3,2,0,0,-3,-5,-12,-3
1522235862666753,-1,2,-6,-5,-2,0,12,4
1522235862666753,21,3,-2,-1,-3,-2,-11,2
1522235862675777,50,73,7,2,4,12,7,5
1522235862675777,-45,-86,-5,-2,1,-4,-8,-3
1522235862689814,-51,-5,3,2,0,-13,4,-6
1522235862689814,44,43,1,-4,-2,0,-4,5
1522235862696833,-2,3,-1,-2,0,-1,14,-1
1522235862696833,31,22,-3,-2,1,-4,-17,-2
1522235862712876,-30,-33,-3,-2,-3,-6,-3,-8
1522235862712876,-9,-17,-1,-3,-2,-25,-7,3
1522235862714881,15,-10,-3,0,6,27,20,7
1522235862714881,26,37,2,1,-3,6,5,3
1522235862726913,-1,31,6,0,3,10,16,2
1522235862726913,-46,-18,-2,0,-7,-14,-25,-11
1522235862735937,23,-38,-6,-4,-5,-25,-17,-3
1522235862735937,10,47,3,0,1,-1,14,9
1522235862749974,1,26,1,2,-1,-17,-22,-5
1522235862749974,-48,-82,-7,-4,2,14,18,-5
1522235862756993,2,30,-1,-3,-8,-1,-12,-3
1522235862756993,4,0,-2,1,-2,4,-9,-3
1522235862773035,21,4,-2,0,0,8,16,6
1522235862773035,-2,1,4,1,-1,0,9,4
1522235862775041,-25,-25,-3,-2,3,3,-10,-2
1522235862775041,10,17,6,0,2,8,-8,-2
1522235862796097,50,43,-5,-6,-7,-5,-13,3
1522235862796097,-13,-14,-4,0,0,9,10,-5
1522235862797100,-18,-16,-3,-1,0,-10,1,-3
1522235862797100,21,29,-1,-3,-4,-10,-2,5
1522235862810134,-1,59,4,0,4,13,-1,5
1522235862810134,-42,-41,-3,2,-2,-28,5,-4
1522235862817153,-15,-42,-6,-3,-2,-6,-6,-2
1522235862817153,36,5,-4,-2,-7,5,-4,2
1522235862833195,3,-3,-1,0,-1,-7,-1,-5
1522235862833195,23,16,3,-2,-1,6,1,4
1522235862835201,0,23,4,1,-2,0,13,1
1522235862835201,-47,-79,-7,-1,3,-12,-19,-11
1522235862855254,-1,-33,-4,-5,-5,-5,-1,1
1522235862855254,1,35,1,0,-2,5,0,-4
1522235862857260,-14,36,7,3,4,2,0,-6
1522235862857260,1,-34,-7,-1,0,1,0,-3
1522235862870294,46,32,-1,-1,-4,-4,0,-1
1522235862870294,-15,-22,0,0,4,13,2,-2
1522235862876310,9,29,1,-4,-3,-9,-5,2
1522235862876310,-37,2,5,3,5,-5,7,3
1522235862893355,-14,-12,2,-2,-5,-3,-1,1
1522235862893355,36,47,1,1,-1,-1,1,3
1522235862894358,4,-17,-4,0,-1,13,-3,-3
1522235862894358,-9,-35,-4,-2,-1,-15,-10,-6
1522235862915414,-71,-59,-7,-2,6,1,11,1
1522235862915414,76,-2,-4,-1,-1,43,29,10
1522235862917420,-15,-1,1,0,-4,-3,-28,-7
1522235862917420,16,18,-9,-2,-2,6,3,-5
1522235862929451,-24,34,-10,0,9,14,6,2
1522235862929451,5,-20,20,-3,-19,-25,-9,-11
1522235862938475,-61,-31,-1,-2,6,-13,-13,-11
1522235862938475,91,80,3,1,1,17,29,9
1522235862953515,-87,-93,-18,-3,-6,-21,-12,-9
1522235862953515,19,59,-3,-2,3,9,9,0
1522235862954518,62,21,0,0,-1,3,5,-2
1522235862954518,-59,5,8,0,-7,-11,-14,-4
