timestamp,emg1,emg2,emg3,emg4,emg5,emg6,emg7,emg8
1522235724491540,-8,0,-5,-5,2,1,11,17
1522235724491540,-9,-5,3,-2,1,0,-3,-13
1522235724492542,5,6,5,13,-1,-6,22,-7
1522235724492542,-7,3,-1,-6,-4,-3,-3,2
1522235724493545,8,22,-2,-11,-18,-6,-8,7
1522235724493545,-16,-64,-8,14,7,1,7,3
1522235724494547,-6,-1,3,11,4,7,-2,10
1522235724494547,1,7,0,-3,11,0,3,-4
1522235724502573,0,1,2,-7,-9,2,2,6
1522235724502573,32,25,0,-5,2,-3,-2,-5
1522235724507582,-38,-13,-4,1,5,2,-3,-7
1522235724507582,-2,-23,-6,4,8,-2,2,2
1522235724522622,30,3,0,-3,1,-10,-8,4
1522235724522622,-7,11,0,-11,-9,25,-27,4
1522235724532649,17,-10,-1,-5,-10,-20,1,-2
1522235724532649,3,44,7,-4,0,6,8,1
1522235724539668,-13,-80,-8,12,8,4,1,-19
1522235724539668,29,32,5,3,-4,8,3,11
1522235724561726,12,5,-6,-17,-12,-43,-22,-17
1522235724561726,-10,11,-5,12,-6,-1,-4,-10
1522235724601833,50,37,12,8,-1,-3,0,1
1522235724601833,-20,12,-2,-9,-6,4,-4,5
1522235724602839,8,-3,-3,-1,-15,-3,-16,0
1522235724602839,0,6,-1,-4,-6,2,0,4
1522235724605843,-6,-11,1,-6,-7,3,3,-8
1522235724605843,-11,9,1,1,-7,-5,-18,-18
1522235724606846,-5,-4,-3,-6,-4,-26,-13,-3
1522235724606846,10,-9,0,-6,-1,-14,-15,1
1522235724612862,6,9,-1,28,5,31,31,-1
1522235724612862,11,-2,-2,6,-1,12,5,-15
1522235724621886,-21,7,1,8,6,-1,38,31
1522235724621886,-1,0,-1,-11,-7,34,16,-25
1522235724627902,3,-12,-1,13,22,19,-4,22
1522235724627902,18,-1,3,2,-10,5,9,3
1522235724642942,-19,-8,-3,-9,13,-15,-5,-9
1522235724642942,4,-2,2,0,-22,-21,21,-4
1522235724649961,-35,-12,-3,-5,0,12,-9,-4
1522235724649961,6,16,1,-3,-4,10,28,18
1522235724673022,51,-21,1,-4,51,17,-22,-16
1522235724673022,-30,-5,-6,-1,7,-32,-22,14
1522235724674025,1,4,-6,-19,-21,-23,-13,0
1522235724674025,-48,-28,-2,5,32,-7,-11,-44
1522235724688062,36,15,-1,-3,-9,3,19,-6
1522235724688062,-30,-4,1,6,1,1,-1,-12
1522235724689065,-7,-11,-2,-3,7,0,-9,-12
1522235724689065,0,17,-5,-8,-20,-10,12,19
1522235724711124,19,3,3,-8,-14,8,-11,7
1522235724711124,-12,11,-1,7,4,8,-6,-14
1522235724711124,-19,-35,-7,-8,-5,-1,-2,-8
1522235724711124,16,-25,0,-6,6,9,0,16
1522235724733182,14,18,-1,-10,-7,-3,-11,-14
1522235724733182,-40,15,0,8,-13,-9,-7,17
1522235724734184,9,-4,1,3,3,-14,-8,-9
1522235724734184,12,-17,-4,8,14,-17,21,-2
1522235724748222,-26,-23,-6,0,-7,2,-6,14
1522235724748222,-17,-3,1,0,6,25,25,-2
1522235724749225,45,45,5,2,-4,-12,1,1
1522235724749225,10,7,4,3,0,-7,-11,14
1522235724770280,-4,10,-4,-1,-13,-10,-2,-15
1522235724770280,17,-11,4,13,9,-6,40,3
1522235724771283,-32,-3,-3,-6,-6,19,12,-9
1522235724771283,-9,-38,-12,-10,-3,-14,-16,-7
1522235724793342,31,29,8,-7,-7,4,1,10
1522235724793342,11,-9,-7,-8,-4,-18,-10,0
1522235724794344,-49,-21,-6,5,-11,3,3,-8
1522235724794344,13,13,-1,-5,-11,-9,-6,7
1522235724807379,-28,-14,-1,1,-2,1,8,0
1522235724807379,25,13,-2,-4,1,-2,-16,-4
1522235724815400,25,13,3,-2,7,-6,-1,1
1522235724815400,-9,-2,-2,0,-3,9,-17,-3
1522235724830440,-20,5,0,-3,0,1,4,4
1522235724830440,21,1,5,0,12,-27,1,8
1522235724831445,6,15,-4,-6,-14,-29,-8,8
1522235724831445,-20,-10,-6,0,-9,-1,-11,-11
1522235724853502,23,2,-5,-12,-15,-2,4,1
1522235724853502,25,0,-3,3,11,26,-2,-2
1522235724853502,11,-3,8,-6,-2,-13,-5,7
1522235724853502,-22,13,4,3,-3,-9,-31,-14
1522235724867539,-14,19,-6,3,0,7,3,6
1522235724867539,-12,-37,-4,3,7,11,-15,2
1522235724875560,8,8,-2,3,-1,-2,-3,24
1522235724875560,20,11,6,8,25,10,3,2
1522235724890600,-16,-19,2,-2,-5,10,6,-4
1522235724890600,36,28,1,1,-8,0,-10,1
1522235724891603,-24,-41,-7,-10,30,8,26,-3
1522235724891603,37,33,6,4,-3,10,10,19
1522235724913662,-18,2,-4,10,-3,-16,-10,0
1522235724913662,-9,-24,-1,-7,4,3,-4,-3
1522235724913662,20,13,0,-2,-11,3,-2,-1
1522235724913662,37,-8,-5,-8,1,-6,17,-1
1522235724927699,-70,-3,7,-3,16,21,-6,-6
1522235724927699,23,7,1,4,-11,-8,-1,9
1522235724935720,-23,0,-4,-1,6,11,-5,-4
1522235724935720,21,9,0,0,-1,-2,-16,5
1522235724950761,31,0,-2,-7,-2,3,3,-13
1522235724950761,-2,0,-2,1,12,0,-41,6
1522235724951763,-15,-11,0,5,4,-7,-2,6
1522235724951763,-52,-7,0,-4,-11,-11,-5,-14
1522235724972819,5,20,0,-7,-12,21,27,5
1522235724972819,1,-16,2,0,-14,-6,3,2
1522235724973821,13,14,-2,-8,-3,-1,-4,-12
1522235724973821,-21,-33,1,-3,1,4,3,2
1522235724987858,-10,-27,-11,1,2,-9,-5,5
1522235724987858,-5,14,0,-7,5,-1,7,-11
1522235724995880,9,22,8,5,-17,7,-4,4
1522235724995880,-30,10,-4,-3,0,0,25,-10
1522235725010920,32,-5,-3,-5,-4,-21,-36,-10
1522235725010920,-33,-4,-5,-16,-9,11,2,9
1522235725011923,17,-8,-3,24,-5,-29,-5,-18
1522235725011923,-5,-7,-5,-6,29,5,50,21
1522235725032978,26,19,5,2,-5,-15,-6,-3
1522235725032978,-80,-59,-15,-5,4,-2,-4,-28
1522235725033981,-1,14,3,1,19,16,-24,10
1522235725033981,-14,-18,-1,-9,-12,-36,-16,-25
1522235725047016,35,2,3,12,2,0,5,4
1522235725047016,19,18,3,-2,-18,17,1,-13
1522235725056040,-30,-12,-5,-10,14,7,-3,-16
1522235725056040,12,-1,-1,4,-5,-1,-2,2
1522235725071080,-3,-16,0,-2,1,7,10,16
1522235725071080,2,28,2,4,5,-16,5,-3
1522235725071080,9,-17,3,-4,-8,0,3,4
1522235725071080,13,17,-3,7,-9,16,-11,-3
1522235725093138,-14,-16,4,-3,3,-14,-2,-7
1522235725093138,22,19,1,5,-3,21,41,27
1522235725094141,26,8,-8,-6,-19,2,-7,-2
1522235725094141,-27,-39,-4,-6,-22,-9,-11,-16
1522235725107176,-30,-8,-6,-7,-6,0,-14,-2
1522235725107176,9,3,1,7,9,0,28,2
1522235725116199,2,-2,1,-4,0,18,-10,6
1522235725116199,18,18,5,7,-13,15,10,20
1522235725130237,-12,8,2,5,-8,-21,-17,-5
1522235725130237,26,10,5,-3,-1,0,-11,-2
1522235725131240,-55,-16,-3,0,-7,-14,9,-7
1522235725131240,12,8,0,3,9,4,-5,3
1522235725153298,23,-14,-6,-7,17,21,9,12
1522235725153298,29,3,-2,-2,-3,-10,-14,-1
1522235725154301,-8,11,0,2,-3,-5,0,2
1522235725154301,11,12,5,8,9,8,-4,16
1522235725167336,-6,-18,-2,3,-2,-3,22,4
1522235725167336,-4,7,-6,-7,-14,-2,-16,-3
1522235725175357,-21,-22,5,5,9,-25,-5,-15
1522235725175357,3,16,3,-2,8,22,7,0
1522235725190397,12,5,-10,-10,-7,2,3,1
1522235725190397,-10,6,3,9,12,-2,-11,-7
1522235725191401,-21,-1,-3,-4,-12,3,21,4
1522235725191401,9,0,-3,-13,-12,-15,-39,-1
1522235725213458,4,-3,-2,4,-1,-8,-2,-7
1522235725213458,-5,-5,4,9,17,4,0,3
1522235725214461,26,5,-1,1,-3,1,4,5
1522235725214461,-13,-10,1,-3,-2,-25,-27,-3
1522235725236520,4,-3,-9,-16,-26,8,17,-1
1522235725236520,-12,8,2,10,15,-11,-6,0
1522235725237522,8,-9,-1,2,-2,2,-6,-1
1522235725237522,-4,-33,-5,-9,-3,-4,20,15
1522235725250557,-9,13,12,21,19,-15,-11,-17
1522235725250557,2,7,-10,-10,-14,-1,4,4
1522235725251560,-3,-10,-4,-3,2,4,5,-2
1522235725251560,5,7,-2,6,2,8,3,6
1522235725273618,-7,8,0,-7,6,-6,-4,5
1522235725273618,25,1,1,-7,-39,4,-2,-4
1522235725273618,-3,5,3,9,1,-15,-15,3
1522235725273618,-29,-1,-8,-6,-10,-4,12,-22
1522235725296679,-25,-8,-3,2,15,3,2,8
1522235725296679,-12,-6,-2,-4,-23,4,-6,-14
1522235725296679,36,6,3,-3,-1,15,-16,19
1522235725296679,-20,20,3,0,1,-15,18,2
1522235725310717,-11,-4,4,12,-18,4,-5,-9
1522235725310717,-35,-46,-3,-3,16,1,35,2
1522235725311720,36,12,0,-7,-8,4,8,-6
1522235725311720,6,8,0,19,17,10,-14,-7
1522235725332775,8,9,-2,-1,14,7,11,4
1522235725332775,3,-8,-4,0,1,-3,-9,-1
1522235725333778,-5,4,-3,-7,-7,6,4,4
1522235725333778,-9,-10,-3,-8,5,-20,-3,-16
1522235725356839,32,12,2,-1,3,10,-11,0
1522235725356839,-32,-8,-3,2,9,4,-6,1
1522235725356839,-27,-14,-4,-6,-11,-7,-4,-7
1522235725356839,43,17,1,-2,-8,-11,-11,18
1522235725370877,-36,15,8,1,-3,0,3,6
1522235725370877,35,-6,-4,-14,-8,-8,-12,-2
1522235725371879,9,0,-3,9,14,-18,-9,-7
1522235725371879,-11,-7,1,-4,11,17,5,-10
1522235725392936,11,7,-1,-2,-17,-10,-14,-2
1522235725392936,3,17,2,3,-2,3,4,7
1522235725393938,-39,-53,-5,-8,-8,-4,-1,-6
1522235725393938,50,7,-3,-2,-19,4,-2,-4
1522235725415997,-36,-7,0,9,15,0,10,12
1522235725415997,-2,11,-3,2,11,-8,-17,-33
1522235725416999,-24,9,1,4,5,25,7,13
1522235725416999,7,12,-2,-8,-6,-1,-1,-14
1522235725431038,4,-16,-1,-16,-19,-8,-37,-6
1522235725431038,-4,0,3,3,-12,-12,-15,5
1522235725432047,13,6,-3,-1,-11,5,12,-7
1522235725432047,-32,-8,0,-2,-2,7,-4,2
1522235725453103,-8,8,-3,-4,6,-8,-9,-3
1522235725453103,4,-3,3,1,3,4,6,2
1522235725454099,35,-9,0,-11,0,-6,1,7
1522235725454099,-48,-13,-2,3,1,5,0,-6
1522235725476157,7,-11,-3,3,-1,-2,8,-1
1522235725476157,-17,-11,-5,-11,6,12,-8,-15
1522235725477159,13,38,0,-8,7,-12,6,-9
1522235725477159,22,13,11,11,-2,2,2,2
1522235725491199,17,-10,-5,-1,15,9,-4,-25
1522235725491199,-13,0,3,1,-8,-6,-12,3
1522235725491199,26,16,0,3,11,-3,4,7
1522235725491199,4,-8,-4,-5,8,4,-4,-4
1522235725513255,-24,4,7,18,-13,-13,2,-18
1522235725513255,31,0,-3,-7,-9,0,1,8
1522235725514258,24,15,-5,-9,-30,-10,-5,-7
1522235725514258,-10,-6,-1,2,15,5,-2,12
1522235725536316,-36,-29,-5,-6,2,7,56,3
1522235725536316,53,22,1,10,-9,1,-21,7
1522235725537319,-17,-24,0,-7,-6,0,34,-6
1522235725537319,13,5,-1,-6,-11,-10,-15,-1
1522235725550353,17,7,0,-8,3,-26,-1,16
1522235725550353,-63,-9,1,1,-1,32,5,5
1522235725551357,1,-1,-1,3,3,-27,-12,-41
1522235725551357,4,9,0,-3,-6,12,8,20
1522235725572412,-6,-28,-3,2,18,4,-9,-3
1522235725572412,5,-5,-3,1,12,-11,7,-19
1522235725581436,-40,3,0,1,5,13,-15,4
1522235725581436,0,-19,-5,-3,2,-3,4,2
1522235725595473,40,13,-1,-5,-4,6,-7,11
1522235725595473,-5,13,0,0,17,-4,4,-4
1522235725604497,-25,-26,0,17,17,8,14,13
1522235725604497,40,14,-4,-1,-7,-2,-1,-12
1522235725618535,-10,5,-6,1,-1,0,0,1
1522235725618535,-4,-10,-3,-1,6,-7,-2,8
1522235725620540,24,12,6,7,-8,-4,-10,3
1522235725620540,5,-3,1,-2,-8,-4,-4,-16
1522235725641596,13,16,1,-1,-10,24,4,1
1522235725641596,-14,-9,-5,10,2,-10,7,-2
1522235725642599,-15,6,-3,-2,-6,-5,1,1
1522235725642599,14,-3,3,-3,1,-28,-18,9
1522235725654631,25,11,-2,-6,9,18,10,-6
1522235725654631,-24,-10,-1,6,-7,-26,-13,-6
1522235725663655,18,10,1,-8,3,4,10,3
1522235725663655,-27,-11,-4,-10,-15,-6,1,-2
1522235725678695,5,5,3,7,13,47,64,3
1522235725678695,-6,2,1,-5,-7,-47,-14,-5
1522235725680700,9,-6,-3,-2,9,5,-19,9
1522235725680700,23,19,3,19,-4,7,3,-5
1522235725701756,-43,-22,-5,3,-16,-15,-17,2
1522235725701756,34,6,4,-11,8,31,34,23
1522235725702760,-15,11,0,1,-2,0,-7,-6
1522235725702760,4,-8,1,7,4,1,7,14
1522235725714791,48,28,2,-3,-34,-48,-20,-1
1522235725714791,-67,-41,-6,4,16,15,-8,-10
1522235725723815,-8,-10,-1,-2,-1,16,9,-2
1522235725723815,-17,-4,0,-15,1,-8,6,7
1522235725738854,9,9,2,6,3,-23,-1,-2
1522235725738854,40,11,2,-8,-4,-1,-12,3
1522235725740860,-10,-5,-1,0,-1,8,4,9
1522235725740860,-19,-3,0,-2,8,18,1,-17
1522235725768938,5,-35,-4,-10,-14,-9,-26,-7
1522235725768938,4,14,-2,7,10,11,18,20
1522235725770940,-18,-23,-1,3,-2,-10,-8,-3
1522235725770940,3,13,0,-13,-13,3,12,17
1522235725774951,-6,1,3,-1,18,0,-29,8
1522235725774951,6,1,4,20,7,-5,-2,-1
1522235725783974,-4,4,-2,-8,-9,21,16,7
1522235725783974,14,0,-5,-4,-16,-25,-9,-17
1522235725799014,-21,0,1,-2,5,14,22,3
1522235725799014,12,7,5,-4,-3,0,2,-17
1522235725801020,3,24,-5,-10,-4,-11,-7,0
1522235725801020,-12,-32,-1,12,37,1,-42,5
1522235725821073,-9,2,-4,-3,-2,-1,-19,3
1522235725821073,-14,-10,-3,-5,-8,-13,21,-1
1522235725823079,30,12,3,1,4,-8,-17,-10
1522235725823079,-8,3,0,3,1,19,13,1
1522235725835111,-1,-4,-2,1,5,-7,-9,-5
1522235725835111,10,15,4,-4,-11,13,-2,5
1522235725844134,-3,-33,-4,2,11,0,3,3
1522235725844134,-40,1,-2,1,-1,-8,5,-15
1522235725859174,-17,-2,-3,-4,2,36,-4,-9
1522235725859174,21,10,2,-8,-19,-10,19,5
1522235725860177,19,0,2,-8,9,-7,-1,-12
1522235725860177,5,-2,-2,1,-12,3,0,1
1522235725881233,-58,5,-7,7,-5,-3,-9,-1
1522235725881233,-3,-13,-1,-3,2,3,-11,-7
1522235725883238,-4,3,-3,-6,-2,26,-1,2
1522235725883238,0,-1,4,3,-13,11,14,5
1522235725895270,11,13,2,-8,3,-4,-3,-5
1522235725895270,5,-11,-3,1,-4,3,-10,-6
1522235725904295,40,18,0,5,-11,-16,-1,1
1522235725904295,-52,-5,-2,-9,3,1,6,5
1522235725919335,-31,-44,-1,5,-4,-2,9,0
1522235725919335,-1,20,-2,1,-12,-4,-10,3
1522235725920337,9,8,-9,1,18,-3,-4,4
1522235725920337,53,-3,3,-7,-3,-19,-12,-4
1522235725941393,8,33,2,3,0,-10,2,0
1522235725941393,-26,-32,-4,-4,-2,3,-1,-9
1522235725943399,-21,26,-1,0,4,-1,-3,3
1522235725943399,21,4,-4,-4,4,-1,3,3
1522235725955431,-16,-5,7,3,6,-3,-3,-1
1522235725955431,29,33,2,-2,-4,-3,-1,-3
1522235725964455,-14,-27,-2,2,-5,-2,-6,2
1522235725964455,-9,-10,-5,3,4,0,1,5
1522235725978491,30,3,-3,-5,-9,6,-3,-9
1522235725978491,-1,4,5,-7,1,0,-4,-1
1522235725980497,15,-28,-5,6,3,-7,11,8
1522235725980497,-54,-21,-10,0,2,4,0,-15
1522235726001553,6,-1,0,-1,-3,-2,4,2
1522235726001553,17,12,-6,2,1,2,7,9
1522235726002559,-23,20,1,-5,-10,-6,-6,2
1522235726002559,5,-28,15,3,0,1,-1,-9
1522235726014587,19,-1,-8,-1,13,-4,-6,0
1522235726014587,-43,-47,-11,0,1,-1,-7,-13
1522235726023611,45,52,-14,-2,-2,-1,4,1
1522235726023611,-10,-14,21,3,6,5,1,3
1522235726038651,11,3,4,-4,-3,-7,3,-2
1522235726038651,31,31,-25,-2,2,-2,-31,6
1522235726040657,-57,-27,47,8,-3,0,-3,-8
1522235726040657,33,85,-24,-5,-1,9,10,9
1522235726061712,-15,-66,45,5,4,-7,-10,-4
1522235726061712,-6,-6,-10,4,-12,3,24,0
1522235726062715,5,-50,-14,-14,-27,10,-9,-12
1522235726062715,-43,-30,-8,0,-20,3,1,-5
1522235726074747,44,90,-2,9,0,16,14,7
1522235726074747,1,-52,-2,-21,-41,-24,-12,-1
1522235726083771,-25,-4,-10,2,-54,-14,6,-6
1522235726083771,5,-14,3,6,66,-13,-12,-10
1522235726098811,-3,11,-23,-9,25,9,-3,7
1522235726098811,1,-22,5,13,36,18,36,11
1522235726100817,-56,-29,-14,-14,-41,-11,-37,-25
1522235726100817,25,26,6,0,-6,1,-1,10
1522235726121872,-14,-8,-7,-11,-39,-15,-2,1
1522235726121872,26,35,8,10,11,3,-3,0
1522235726122875,35,-3,-13,-11,-22,-24,12,13
1522235726122875,-13,5,4,20,33,61,12,12
1522235726134907,30,35,-8,8,79,3,-3,-18
1522235726134907,-63,7,2,-7,-17,-16,-10,-15
1522235726143931,-24,-25,13,0,-38,-12,-6,-1
1522235726143931,7,0,-9,-8,-11,-8,-7,-4
1522235726158971,27,-5,-7,-21,-82,-20,3,12
1522235726158971,28,27,-6,-1,29,19,7,3
1522235726160976,-2,12,10,15,65,0,3,-7
1522235726160976,18,12,8,-4,-18,-11,7,14
1522235726181029,-96,-36,-7,0,10,11,6,-18
1522235726181029,32,14,0,-8,-26,-11,-12,-5
1522235726183035,-9,-17,-1,3,1,13,-7,8
1522235726183035,21,1,0,-6,-97,-32,2,-3
1522235726195067,0,-14,-4,6,90,24,-3,4
1522235726195067,3,1,6,16,35,-1,8,11
1522235726204091,-1,21,5,2,-6,-1,5,-14
1522235726204091,-18,-33,-16,-3,0,-3,-7,-1
1522235726217125,32,-20,-11,-29,-66,-29,-14,-15
1522235726217125,-18,-3,4,22,9,18,-38,-7
1522235726226149,-35,7,8,-6,34,-1,-12,-6
1522235726226149,9,5,1,-2,-6,-7,9,-4
1522235726241190,21,16,3,-8,-13,-14,-1,-1
1522235726241190,-3,-35,-6,-14,2,-11,-10,12
1522235726243195,30,0,-11,20,83,14,-3,2
1522235726243195,-22,11,0,-11,8,3,-11,-17
1522235726255227,6,8,1,15,12,32,26,9
1522235726255227,-26,-9,5,-1,-3,11,0,-10
1522235726264251,23,-1,-3,-9,3,-29,-8,15
1522235726264251,-7,0,2,7,104,25,23,-12
1522235726279290,16,2,-4,7,-6,-14,6,20
1522235726279290,15,2,5,-11,-33,-22,-28,-3
1522235726280293,-19,11,-1,-14,-27,15,-9,-12
1522235726280293,-6,-20,-6,0,-2,-15,-6,17
1522235726301349,-9,-3,4,-2,-40,-20,-7,-10
1522235726301349,14,7,1,7,73,33,5,-19
1522235726303355,12,14,-3,-16,-7,-23,2,21
1522235726303355,43,17,1,-1,-30,-3,-15,1
1522235726315387,-54,-46,-3,23,44,26,20,3
1522235726315387,-16,-8,4,-7,-60,8,7,-29
1522235726324411,27,13,-1,1,-3,54,17,8
1522235726324411,-19,16,3,-3,-8,13,0,-4
1522235726338448,31,7,4,1,-7,-43,-36,-3
1522235726338448,0,-8,-3,-4,-21,2,44,-3
1522235726340454,-44,-5,-10,1,-12,3,18,-3
1522235726340454,-2,-28,-2,6,-19,-13,-35,-12
1522235726361509,-37,21,4,-2,-7,5,-18,5
1522235726361509,8,-18,2,7,-69,-12,1,6
1522235726363515,56,26,-4,-4,-11,-17,13,22
1522235726363515,-4,-2,-8,-10,18,-12,-4,4
1522235726375547,-6,-20,-8,-38,-47,-5,-9,-9
1522235726375547,-7,8,4,6,1,-10,3,8
1522235726383568,-18,-7,7,3,-20,6,5,-11
1522235726383568,41,18,-1,13,26,-6,-2,17
1522235726398608,53,10,-2,-4,-16,-2,7,-2
1522235726398608,-14,-3,-11,-20,12,-41,-32,2
1522235726400613,-42,-13,5,26,25,30,9,0
1522235726400613,-10,-1,-4,-24,-18,-18,1,-14
1522235726421669,4,20,2,22,61,16,3,12
1522235726421669,-4,-17,2,-23,-42,9,9,18
1522235726422672,-17,-24,1,27,61,18,-18,-21
1522235726422672,27,1,-4,-26,-35,-19,1,5
1522235726434704,21,5,-1,10,10,1,-9,-4
1522235726434704,9,23,3,-12,-53,-6,1,-1
1522235726443727,-4,-33,1,-4,5,-14,-5,3
1522235726443727,3,20,-1,5,-16,18,7,-4
1522235726457765,-27,-1,7,-8,-50,-10,-9,-6
1522235726457765,36,13,4,5,65,13,5,6
1522235726464784,-50,-45,-11,3,52,-3,12,-20
1522235726464784,-12,-8,6,9,7,-31,-9,-10
1522235726481829,32,16,-4,-7,-60,47,32,4
1522235726481829,-55,-11,-4,14,41,-6,5,21
1522235726482832,49,24,4,3,-15,12,8,26
1522235726482832,-1,-16,-5,5,18,19,-1,-2
1522235726494864,13,-1,-2,12,-5,36,-11,-4
1522235726494864,44,16,-3,-1,22,-15,74,-1
1522235726503888,-26,-11,-7,-2,-42,-28,-31,-19
1522235726503888,-35,-13,6,-6,-24,14,-8,3
1522235726517925,-1,9,1,-6,7,0,15,13
1522235726517925,-8,-15,-2,5,6,8,-18,-15
1522235726524943,1,24,-7,-14,-12,-19,-15,-9
1522235726524943,10,19,-4,-2,-26,1,4,7
1522235726540986,-31,-40,3,4,-6,-20,-6,-28
1522235726540986,1,21,2,13,72,-11,-28,7
1522235726542991,32,-1,-5,-15,-16,52,39,10
1522235726542991,-44,-23,-11,-5,-7,-10,-8,-13
1522235726555023,-3,-16,-2,-7,-29,-22,5,-3
1522235726555023,-3,-15,4,6,-16,8,-4,7
1522235726564048,49,36,7,4,-12,-4,-8,1
1522235726564048,30,27,1,4,16,-38,-7,3
1522235726578085,-65,-19,-8,4,33,-10,-13,-5
1522235726578085,-17,8,-5,-13,-37,-8,-23,-12
1522235726585104,-8,15,6,-11,-8,-19,-15,-1
1522235726585104,12,-13,0,-8,-19,-12,12,-9
1522235726601146,-2,-5,-1,3,22,-34,-3,5
1522235726601146,43,-1,-3,4,21,13,-5,9
1522235726603151,-29,22,5,-2,-1,-13,2,-15
1522235726603151,-8,-8,-3,1,-14,21,17,16
1522235726615183,-9,-5,-5,6,28,4,2,-8
1522235726615183,1,8,6,4,-13,-23,-3,-8
1522235726624208,-7,-15,0,-6,-12,-7,3,-2
1522235726624208,22,-15,0,-5,-45,5,15,-4
1522235726638244,-31,-6,-7,1,0,10,4,3
1522235726638244,18,38,-9,-10,11,12,-11,1
1522235726645263,5,-41,5,-7,-9,-12,-14,-2
1522235726645263,-21,-27,8,14,20,12,4,1
1522235726661306,32,35,-1,3,-8,-23,-7,-5
1522235726661306,-31,-20,-6,-4,55,10,1,-7
1522235726663311,1,19,-2,4,-8,3,-2,5
1522235726663311,-10,-17,3,7,9,18,-6,-2
1522235726684370,-6,-7,-7,7,-24,1,-8,-4
1522235726684370,-2,-25,1,2,-13,1,2,-5
1522235726685370,-42,-15,-10,-8,-15,-12,6,-11
1522235726685370,18,26,0,-3,14,7,4,8
1522235726698404,-16,-6,1,1,4,2,-8,-4
1522235726698404,0,14,-3,-1,-29,-12,1,-8
1522235726705423,11,-25,-3,-8,-17,-14,-2,16
1522235726705423,7,26,2,5,2,-7,-7,-4
1522235726721466,8,3,-2,-10,-2,-3,-3,-13
1522235726721466,2,-24,1,0,-21,18,5,-1
1522235726723471,-9,-5,6,-1,16,-25,-5,3
1522235726723471,20,32,0,-14,-13,10,-6,-4
1522235726743524,-21,-44,4,6,5,5,-2,6
1522235726743524,0,25,-4,-7,-49,4,16,-7
1522235726745530,-10,-13,-11,3,34,-10,14,-6
1522235726745530,-4,-4,-5,-21,-16,-7,-1,-3
1522235726757562,-11,14,7,10,9,-6,9,6
1522235726757562,2,-14,-4,1,-5,-6,-4,1
1522235726766586,45,21,8,-3,-7,9,-2,0
1522235726766586,5,0,3,0,2,-26,-3,-3
1522235726781626,-79,-5,-4,-7,7,18,14,1
1522235726781626,-13,-6,4,5,9,0,-2,3
1522235726782628,55,38,-5,3,-17,8,-13,-6
1522235726782628,13,-28,-2,6,35,6,-6,0
1522235726803684,47,13,1,-3,-13,-6,-9,-3
1522235726803684,-44,3,2,5,-6,-3,-1,-3
1522235726805690,18,10,0,0,-33,-3,-2,7
1522235726805690,-8,-28,-3,8,34,0,4,-3
1522235726817722,10,3,-2,0,6,-2,-12,0
1522235726817722,-2,1,8,6,-3,1,-4,-5
1522235726826746,7,2,-8,-9,0,9,-2,-3
1522235726826746,-23,2,-5,-14,-27,6,-15,-2
1522235726841786,3,-1,2,2,22,13,0,0
1522235726841786,16,17,-2,-10,2,-20,3,5
1522235726842788,25,-10,-2,10,5,-2,-3,-3
1522235726842788,-80,-16,-1,-1,-14,24,7,-8
1522235726863844,11,10,3,-13,-52,-16,-10,-12
1522235726863844,8,-4,-3,0,6,-1,-20,-7
1522235726865849,-3,11,-2,-3,9,23,29,-3
1522235726865849,9,1,-1,-1,12,-17,-22,10
1522235726877881,9,0,-5,-11,-15,30,21,4
1522235726877881,-4,-5,11,0,5,9,4,-5
1522235726886906,9,0,-4,-9,1,-17,-8,25
1522235726886906,19,16,1,6,-5,-2,13,-7
1522235726900943,-6,4,-2,1,15,-10,0,8
1522235726900943,12,-21,-2,0,4,-14,-15,-9
1522235726902948,-33,14,-3,-12,7,16,3,-2
1522235726902948,-20,-25,-2,6,-22,-2,-3,1
1522235726924004,20,-14,-2,16,85,-6,12,-4
1522235726924004,-6,-13,-1,-7,0,-21,-6,16
1522235726926009,-18,18,5,-8,-68,9,-6,-8
1522235726926009,11,20,0,6,8,14,3,3
1522235726938041,25,15,-2,-4,16,30,23,-3
1522235726938041,-18,-8,-6,2,-8,-25,-43,20
1522235726946063,1,-15,0,15,12,-42,-30,-13
1522235726946063,1,-6,0,1,-14,7,-8,3
1522235726961103,-11,-15,-4,-2,-4,-6,-1,-4
1522235726961103,59,15,-3,-5,3,36,17,5
1522235726963108,-1,-11,-2,6,25,-3,-11,13
1522235726963108,-35,0,1,-4,13,-10,-1,-17
1522235726984164,33,16,3,-2,-18,-17,1,14
1522235726984164,-31,-8,-3,-9,-9,24,-7,-15
1522235726985167,25,2,0,5,23,0,-14,-7
1522235726985167,6,11,-3,0,12,-3,7,5
1522235726997199,-8,-6,1,6,-4,-11,-5,-2
1522235726997199,-17,-6,0,11,-51,-1,-32,15
1522235727006223,1,-10,0,2,4,-23,26,-5
1522235727006223,4,27,3,1,44,19,4,1
1522235727021262,-9,-25,-3,-13,-27,-5,-18,-2
1522235727021262,-14,-3,-1,3,-4,-13,16,-14
1522235727023268,9,16,1,1,-11,17,6,8
1522235727023268,33,-5,-4,0,-4,-24,-6,-2
1522235727044324,21,12,4,3,-8,-14,-16,-1
1522235727044324,-59,-15,-5,0,27,-8,32,-7
1522235727045327,13,-13,-10,-1,0,12,9,9
1522235727045327,-4,1,-2,-1,-10,-6,1,-10
1522235727057359,-17,-9,-1,1,-6,7,-4,-42
1522235727057359,8,-10,-7,-1,10,-2,3,-14
1522235727066382,-48,3,5,0,11,11,-12,-11
1522235727066382,27,-3,-4,-1,-11,1,6,39
1522235727081422,7,3,-5,-6,-23,-5,4,14
1522235727081422,36,35,4,-4,16,-4,-5,-4
1522235727083428,-17,-11,1,0,0,-5,-7,0
1522235727083428,-40,-19,-6,-2,2,-8,-10,-22
1522235727103481,22,31,5,10,21,11,7,13
1522235727103481,-38,-27,-9,-17,-24,-3,7,9
1522235727105487,38,19,-2,17,23,10,7,0
1522235727105487,7,-14,9,-5,-26,-11,-22,1
1522235727117518,-10,20,-1,-9,-10,35,32,15
1522235727117518,13,-36,-9,-1,-5,8,-18,0
1522235727126542,-13,-13,-5,-7,-6,-4,-1,-12
1522235727126542,25,18,-6,-6,-11,-3,2,3
1522235727141582,-20,-6,6,-3,3,1,-20,1
1522235727141582,33,12,0,2,14,-27,15,-1
1522235727142585,-26,-17,8,-6,-1,3,-2,-2
1522235727142585,-40,-21,-7,-5,2,-4,0,-14
1522235727163641,58,50,-2,-5,-11,-4,-3,1
1522235727163641,-32,-61,-5,-1,0,30,7,0
1522235727165646,-11,17,21,-8,-25,-8,2,1
1522235727165646,11,4,-4,5,4,3,5,-10
1522235727177678,-33,-26,4,-8,-19,-14,-5,-7
1522235727177678,13,23,-5,11,19,8,1,-4
1522235727186702,-4,-6,-13,-9,-7,5,-5,-3
1522235727186702,6,-1,5,0,-1,-5,10,0
1522235727201742,-18,-13,-14,-6,-10,-4,-4,-11
1522235727201742,1,16,5,5,5,7,13,-1
1522235727202745,4,14,4,1,1,-3,0,-4
1522235727202745,5,-53,-6,3,6,-29,-8,2
1522235727223801,-6,10,0,-1,6,-2,4,7
1522235727223801,8,5,-6,-3,0,-6,-6,5
1522235727225806,37,39,-2,5,9,7,-5,1
1522235727225806,-91,-53,3,-6,-10,0,2,-5
1522235727237838,8,-31,0,2,-1,-11,-13,-4
1522235727237838,-14,2,3,-3,-1,11,5,13
1522235727246862,17,11,-7,-4,3,-4,2,-2
1522235727246862,28,35,-1,-11,3,5,-33,-5
1522235727260899,-14,-30,-4,15,9,-16,-4,8
1522235727260899,34,23,8,-3,-12,33,13,13
1522235727262905,1,-31,-15,5,-12,-9,-1,-7
1522235727262905,10,10,5,5,4,9,17,7
1522235727283961,-15,-8,-1,-3,16,26,-8,-4
1522235727283961,37,33,0,-3,-6,-43,-15,-2
1522235727285966,-30,-24,-3,-8,9,-1,5,-3
1522235727285966,11,32,-4,-6,-3,11,6,2
1522235727297998,-20,-17,0,3,0,-7,7,-2
1522235727297998,-8,-19,-8,-2,-2,0,1,-8
1522235727307022,-29,14,17,1,6,3,-4,-1
1522235727307022,16,-11,-3,1,-3,-14,13,6
1522235727321059,18,26,7,4,-1,-9,-8,1
1522235727321059,-1,16,0,-1,-1,-12,-4,-13
1522235727323065,-28,-34,-11,6,18,24,4,-7
1522235727323065,-26,27,-2,-1,-1,7,2,-2
1522235727344120,14,1,-1,2,7,-7,-1,4
1522235727344120,0,3,1,-10,-11,10,3,-3
1522235727345123,-31,-34,-4,15,-1,0,0,9
1522235727345123,40,7,-3,-1,0,4,-3,-24
1522235727357156,-18,6,16,2,21,12,-6,-8
1522235727357156,-14,-26,-6,16,17,-30,4,1
1522235727366179,50,13,-1,-8,-11,5,-12,4
1522235727366179,2,21,5,-1,1,13,6,10
1522235727381219,-16,-50,-12,-9,-16,-11,-3,-5
1522235727381219,6,25,11,1,-2,6,-14,-6
1522235727383224,-8,0,-1,-8,-7,19,8,1
1522235727383224,17,-3,0,20,8,-15,1,10
1522235727404281,-22,12,-5,0,0,6,-2,12
1522235727404281,28,12,5,1,17,11,25,2
1522235727405283,-14,-13,-8,-10,-22,-16,-8,-6
1522235727405283,6,7,-1,-18,-7,27,5,-6
1522235727417315,-27,5,1,2,-23,-34,0,-3
1522235727417315,-30,-11,-6,-4,4,7,-3,-4
1522235727426339,-8,12,2,5,15,-18,-8,12
1522235727426339,10,2,9,0,-12,10,-7,12
1522235727440376,3,16,-3,-11,-8,-28,-34,-23
1522235727440376,5,-43,-9,8,20,11,19,-4
1522235727447395,-14,11,3,-3,7,5,17,5
1522235727447395,-4,-12,-3,4,7,-7,1,-2
1522235727463438,13,2,-3,-8,-24,18,5,9
1522235727463438,-3,29,7,4,-9,-5,10,-7
1522235727465443,19,-9,-2,-7,3,-12,-22,-11
1522235727465443,-11,-23,-2,9,11,-5,1,1
1522235727477475,-37,-13,-8,-10,8,1,19,4
1522235727477475,-3,5,-3,-15,-17,-1,-4,4
1522235727486499,17,-2,-1,16,7,-14,-14,-4
1522235727486499,-30,35,-1,-15,-19,1,3,-7
1522235727500536,52,4,3,5,28,28,-13,-5
1522235727500536,-57,-40,-3,-3,0,-31,-6,-12
1522235727507555,23,11,-1,-8,1,7,6,14
1522235727507555,-17,8,-1,-12,-12,1,-9,0
1522235727523598,11,4,2,9,30,-2,23,13
1522235727523598,-6,13,7,3,1,21,-11,2
1522235727525603,-5,2,-2,-4,0,-17,2,-6
1522235727525603,-11,-10,-6,2,-10,-3,4,-12
1522235727537635,0,-19,-6,-8,-9,-5,3,4
1522235727537635,19,20,14,1,-3,11,-4,12
1522235727546659,17,6,-1,0,0,1,0,0
1522235727546659,10,7,-2,-1,1,-5,3,7
1522235727560696,1,16,-10,-5,-9,-25,-7,-4
1522235727560696,-35,-16,0,1,-5,16,-5,-12
1522235727567715,0,5,-3,4,-13,-3,7,3
1522235727567715,13,-8,3,-3,6,-2,0,1
1522235727583757,4,9,3,-6,-14,0,-11,-10
1522235727583757,38,25,-2,4,-14,-7,6,17
1522235727585763,-84,-49,-5,4,1,0,13,-9
1522235727585763,10,-3,-7,10,-2,4,1,8
1522235727606819,-4,-4,12,3,-4,-6,4,-6
1522235727606819,16,14,-11,-6,3,-2,-7,5
1522235727607821,23,-8,1,-5,-6,3,-4,6
1522235727607821,4,-6,1,3,0,-5,-2,-4
1522235727620856,15,-9,3,1,-4,9,1,1
1522235727620856,-12,20,-7,-11,-10,-4,-5,-6
1522235727627875,-1,-22,2,-7,-12,-7,-14,-1
1522235727627875,22,-7,-4,-4,10,-5,-3,-13
1522235727643917,2,2,-1,14,0,-2,3,-3
1522235727643917,-34,-4,1,5,-1,3,2,2
1522235727645923,16,8,-4,-2,5,2,4,-4
1522235727645923,15,1,2,0,10,3,0,13
1522235727665976,-34,3,-3,-5,-13,-4,-13,-23
1522235727665976,9,-27,6,2,1,-10,-2,5
1522235727667982,4,8,0,12,12,5,12,1
1522235727667982,-19,4,0,13,4,2,0,-8
1522235727681016,22,2,-8,-6,8,0,3,7
1522235727681016,5,13,3,-6,-16,-9,-16,-7
1522235727683021,-36,14,11,-10,5,4,8,0
1522235727683021,10,-29,-4,-6,25,15,4,6
1522235727704077,-37,-7,-1,0,-6,14,15,1
1522235727704077,25,-3,-6,1,4,-15,-8,4
1522235727705080,11,4,2,-3,-5,-6,-5,-16
1522235727705080,-12,4,-3,-11,-30,-2,0,-5
1522235727726136,30,15,6,4,1,-9,-9,8
1522235727726136,-14,-20,-5,0,8,9,0,-3
1522235727728141,27,13,-3,-7,-7,-2,1,7
1522235727728141,3,-6,1,-6,-4,0,9,2
1522235727740173,-13,-27,-4,2,-8,6,-6,-3
1522235727740173,9,10,-3,6,4,-1,7,-1
1522235727749197,1,4,5,3,-7,4,-9,4
1522235727749197,-3,36,8,-2,-11,-11,6,2
1522235727764237,12,-42,-8,-4,-3,4,3,-6
1522235727764237,-40,2,-2,8,15,-2,-11,-15
1522235727765240,-20,-10,-6,0,9,-4,6,3
1522235727765240,36,9,-7,0,11,-4,-8,3
1522235727786296,8,26,13,6,-14,18,15,6
1522235727786296,19,-11,-4,-19,2,-32,-5,4
1522235727788301,-2,3,-4,-9,-11,-7,-13,8
1522235727788301,-21,-3,-6,3,6,13,-14,-10
1522235727800333,-11,6,-4,0,8,-10,0,19
1522235727800333,13,-20,1,1,-2,35,7,8
1522235727809357,7,12,-1,1,-6,3,5,-4
1522235727809357,21,-4,0,-1,-7,-12,-8,4
1522235727824397,-3,7,-2,3,11,2,5,9
1522235727824397,-9,4,1,-3,7,12,7,-11
1522235727825400,-1,-27,-3,0,-21,-23,-8,-5
1522235727825400,14,-19,-4,-4,-8,8,11,2
1522235727846456,3,5,4,2,-9,-13,6,-5
1522235727846456,-1,27,1,11,18,3,2,-9
1522235727848461,12,-7,1,9,18,5,3,10
1522235727848461,-11,6,2,-12,-11,-2,-10,-5
1522235727860493,-23,-8,-2,-6,-5,-3,-10,0
1522235727860493,13,0,-1,3,-9,-5,7,17
1522235727869517,-17,0,-6,-8,1,7,2,-28
1522235727869517,7,7,6,10,8,-2,-1,-10
1522235727883554,7,1,-3,-12,-4,-4,-3,-8
1522235727883554,-43,-9,1,20,2,-18,19,11
1522235727885560,29,1,3,-4,6,18,7,1
1522235727885560,-18,-8,0,-2,-11,0,6,1
1522235727906615,15,-1,-3,7,18,-5,-18,-11
1522235727906615,-1,-8,-4,-11,-38,-11,0,-17
1522235727907618,-24,-5,-4,-1,33,2,50,15
1522235727907618,-1,3,2,-10,-15,-10,4,-11
1522235727919650,-40,-6,-2,0,5,-4,-17,-4
1522235727919650,22,0,0,-11,-3,10,-6,-5
1522235727928674,11,19,2,8,-17,-8,-7,7
1522235727928674,-28,-19,-3,-9,-13,10,-7,-2
1522235727943714,24,-2,-4,-2,-7,21,26,0
1522235727943714,-34,-5,-1,-1,4,-8,-10,-11
1522235727945719,42,39,6,-6,-17,-3,-20,7
1522235727945719,-39,-53,-3,1,19,-16,1,29
1522235727966775,28,8,0,1,-7,4,-29,-27
1522235727966775,2,-13,-5,-4,-12,-21,-3,1
1522235727967778,-12,10,-4,-23,-33,-5,-7,-39
1522235727967778,-8,25,0,12,36,33,-16,-1
1522235727979810,16,-4,2,5,20,2,24,22
1522235727979810,8,-4,-1,-9,-12,4,16,2
1522235727988834,-4,-10,-3,5,6,-11,-19,11
1522235727988834,-4,10,0,-8,-8,-7,3,-9
1522235728003874,8,15,-3,6,8,-2,-5,-5
1522235728003874,31,11,3,-3,-1,4,-7,18
1522235728005879,-31,-52,-9,-7,3,10,-4,-5
1522235728005879,-22,5,-4,-1,-6,-11,-6,-9
1522235728025932,2,11,-2,-2,5,4,10,4
1522235728025932,-3,0,10,0,-11,3,-11,-2
1522235728027938,23,-18,-11,-5,-13,2,15,8
1522235728027938,21,16,1,3,-4,-7,-1,-5
1522235728039970,-33,-1,-3,-3,1,-5,18,-3
1522235728039970,-15,17,-6,-11,6,2,-36,-10
1522235728048994,-26,-37,0,7,-9,-5,-11,-5
1522235728048994,19,5,-3,3,11,-7,6,6
1522235728064034,17,9,6,-9,-13,-1,1,8
1522235728064034,-16,-11,-10,-4,2,6,8,-4
1522235728065036,5,12,13,11,7,-1,-3,1
1522235728065036,-2,21,0,-4,-10,-8,-14,2
1522235728086093,-36,-22,-7,-1,1,0,5,-5
1522235728086093,17,28,-3,-3,0,-1,1,-5
1522235728088098,-8,7,2,5,16,-3,1,7
1522235728088098,24,-20,0,3,2,7,7,4
1522235728100130,-14,29,7,4,0,-7,-10,-2
1522235728100130,4,-36,3,-5,-4,-1,0,-2
1522235728109154,-2,1,-5,6,4,3,5,0
1522235728109154,-26,-19,-5,-4,-9,-6,1,-5
1522235728124194,17,-16,-10,-2,6,-3,-8,-1
1522235728124194,-24,23,-2,12,7,0,2,8
1522235728125196,13,1,0,-3,-8,1,-7,-9
1522235728125196,7,12,-6,1,-1,-24,-6,-6
1522235728146252,15,5,4,-10,-23,0,1,11
1522235728146252,1,-22,0,7,17,0,2,-18
1522235728148258,11,30,-3,-2,20,3,-7,3
1522235728148258,-19,-12,7,8,-9,-5,-2,1
1522235728160289,27,8,1,0,-8,-1,2,3
1522235728160289,-6,-29,-10,-5,-1,3,-7,-11
1522235728169314,-16,12,-5,1,20,-6,-1,4
1522235728169314,-43,-31,5,-9,-2,18,5,-5
1522235728184354,3,-12,-4,4,5,7,1,-2
1522235728184354,21,18,7,-4,-6,-9,-1,6
1522235728185356,-3,11,0,-12,-11,-4,1,1
1522235728185356,36,14,-13,10,15,2,-3,-2
1522235728206412,-13,-1,6,-2,4,3,0,-2
1522235728206412,28,-6,0,-9,-6,2,0,9
1522235728208418,-24,24,-6,3,-24,0,-3,-2
1522235728208418,-13,-56,-2,-1,11,0,-5,-5
1522235728220450,-2,3,-3,8,8,1,5,1
1522235728220450,-17,-35,-8,-8,-7,-1,6,-2
1522235728229473,20,11,7,-1,-6,-3,4,2
1522235728229473,-5,18,2,-3,-14,8,6,6
1522235728243511,27,7,6,15,-3,-15,-12,-3
1522235728243511,-17,-8,1,3,2,1,-3,-6
1522235728245516,-37,-13,1,2,9,-7,-5,-1
1522235728245516,7,8,-1,-4,-10,2,1,-1
1522235728266572,-12,-18,-9,-7,14,2,0,-7
1522235728266572,1,18,2,1,3,3,0,9
1522235728267575,17,-7,4,2,-5,0,-2,-6
1522235728267575,20,13,-8,-5,2,-7,-9,-1
1522235728279607,-4,6,-3,-2,-6,-5,13,5
1522235728279607,-4,-27,-11,-5,-1,1,1,3
1522235728288630,1,6,2,-6,-8,0,-3,-11
1522235728288630,-19,-18,3,-1,3,2,0,-1
1522235728303671,2,15,1,2,3,0,-4,-2
1522235728303671,-3,-1,-2,-2,-22,-2,-3,-1
1522235728305676,20,-13,-1,5,-1,0,-3,1
1522235728305676,-22,13,-2,-15,-6,-24,-5,-6
1522235728326732,18,8,4,4,-5,-3,-8,-5
1522235728326732,-18,4,-1,13,3,-3,3,3
1522235728327735,-13,-3,3,12,13,10,17,11
1522235728327735,6,-20,-8,-1,19,-2,-9,-10
1522235728339767,7,-15,1,-15,-10,2,0,-3
1522235728339767,-25,12,3,11,-2,-6,-12,3
1522235728348790,7,-4,-5,-5,0,-15,-10,-2
1522235728348790,-10,11,-2,5,-2,2,8,5
1522235728362828,-11,-1,2,-9,3,-1,-9,-14
1522235728362828,4,3,-2,-7,1,2,0,-5
1522235728369846,-8,-5,-4,-8,-6,4,-2,-2
1522235728369846,14,0,-3,10,4,4,5,4
1522235728386892,8,4,1,-9,-18,1,29,25
1522235728386892,-7,-12,3,5,33,1,-16,-22
1522235728387894,8,7,-6,10,6,1,-20,-9
1522235728387894,29,-3,6,-1,-8,-2,12,2
1522235728399926,-38,-9,-11,-3,-1,0,6,4
1522235728399926,0,28,13,-1,1,7,12,8
1522235728408951,2,-17,-1,8,-1,-4,-1,-2
1522235728408951,8,19,0,0,18,3,-1,6
1522235728422988,-8,-18,-1,2,-15,-1,-7,-6
1522235728422988,-32,4,0,-1,9,3,0,0
1522235728430006,0,-5,-4,-14,-4,-7,-12,-9
1522235728430006,3,20,1,0,-10,5,14,2
1522235728446049,16,-24,-5,-2,0,-1,-6,1
1522235728446049,12,-21,-11,-10,-11,8,-9,11
1522235728448054,0,8,5,-6,-16,7,15,-19
1522235728448054,2,-9,-2,-17,-4,-9,-20,0
1522235728460086,0,-2,1,17,25,-11,-22,9
1522235728460086,12,11,-2,-1,1,0,35,-4
1522235728469110,-19,0,-3,-2,-25,-7,-11,3
1522235728469110,32,8,-2,-4,72,32,-9,12
1522235728483148,-5,-4,-1,13,6,-19,-7,-4
1522235728483148,-16,3,2,-1,-6,-6,-2,-4
1522235728490167,-2,-11,0,-1,9,0,13,-5
1522235728490167,6,-2,2,-3,-48,-16,-12,6
1522235728506209,6,4,-4,-16,-11,3,4,-30
1522235728506209,39,18,0,4,3,1,-3,16
1522235728508214,34,-5,-5,-3,11,12,1,2
1522235728508214,-81,9,12,-6,-13,-15,0,-6
1522235728520246,-18,-8,-1,13,-73,-41,-3,6
1522235728520246,-3,-9,-2,-11,-20,30,2,-2
1522235728529270,11,12,0,-4,1,3,6,4
1522235728529270,-24,-15,-7,2,-2,-3,7,-7
1522235728543307,16,11,8,-2,7,-3,-15,-13
1522235728543307,-6,12,2,0,-1,-8,-20,-2
1522235728550326,-10,-1,1,1,19,3,19,-1
1522235728550326,25,7,-3,4,-22,-4,18,-2
1522235728566369,1,-4,1,-1,26,13,-21,10
1522235728566369,4,-2,-8,6,59,7,-9,-21
1522235728568374,-7,-7,-4,-7,10,8,-11,16
1522235728568374,15,20,12,-3,-32,-4,9,9
1522235728588427,-24,-7,-13,12,26,-2,-4,-45
1522235728588427,52,5,8,1,-18,-3,1,13
1522235728590433,-17,2,3,-5,-15,-14,-6,8
1522235728590433,-43,-12,-2,7,15,14,2,-1
1522235728603467,-10,15,-3,-8,-8,-3,6,3
1522235728603467,42,-29,-7,-10,-13,21,6,2
1522235728610486,-58,-2,8,15,4,0,6,16
1522235728610486,12,-3,-3,1,-2,-20,-23,-8
1522235728626529,1,-3,-5,-13,1,28,0,7
1522235728626529,10,26,2,6,-15,-27,-11,8
1522235728628534,9,-38,-5,-8,-11,-7,-8,-20
1522235728628534,4,1,-1,3,-5,8,-2,-6
1522235728648587,-4,-10,-2,-7,5,2,7,16
1522235728648587,-10,-1,0,3,5,-9,4,14
1522235728650593,12,9,-3,-5,13,4,14,-22
1522235728650593,-4,10,-1,4,2,-3,-23,-2
1522235728662625,-12,-17,-3,-1,13,2,1,-2
1522235728662625,-17,-13,-5,-1,-2,28,13,3
1522235728671650,22,11,0,2,24,-7,-2,2
1522235728671650,26,8,-4,7,18,-1,14,6
1522235728686688,-55,0,3,-1,-4,4,4,15
1522235728686688,-12,-24,-4,-5,-9,-7,-3,-41
1522235728688694,-2,-18,-2,1,1,-7,-11,-4
1522235728688694,38,-1,-7,-6,-27,1,-7,-5
1522235728708747,16,36,6,-26,-18,12,12,13
1522235728708747,-26,-14,-3,24,30,-13,0,-3
1522235728710753,24,-4,-7,-9,-41,-4,-2,0
1522235728710753,-1,12,4,-1,21,-1,-7,7
1522235728722784,-6,-33,-3,14,16,3,8,-24
1522235728722784,0,22,11,-9,-13,-12,-3,-6
1522235728731809,14,16,-10,-12,-14,4,3,25
1522235728731809,6,-3,2,9,7,9,-8,-27
1522235728746848,6,-36,-7,-1,-17,1,0,4
1522235728746848,-2,-2,3,-3,-6,-9,1,2
1522235728747851,16,-13,-7,-5,-2,0,-12,0
1522235728747851,47,20,6,-1,7,-3,20,11
1522235728768907,-24,21,0,7,0,4,-3,-15
1522235728768907,18,1,1,-15,5,4,-5,-1
1522235728770913,-28,18,2,-3,-23,-19,4,12
1522235728770913,-36,-34,-8,-2,14,1,22,-9
1522235728782944,14,27,5,-3,-7,-4,-2,3
1522235728782944,-13,-3,-4,-8,-12,1,-7,1
1522235728791969,-32,15,10,8,9,-1,-7,-12
1522235728791969,-9,-44,-9,-8,-29,-7,-3,-3
1522235728806005,34,36,0,18,21,3,-10,4
1522235728806005,-52,-20,6,-2,-2,-3,8,-2
1522235728808011,-8,23,-11,-3,-5,-1,4,-1
1522235728808011,10,-1,2,-4,-13,-1,-1,-5
1522235728829067,15,-12,12,0,-4,-2,-4,3
1522235728829067,2,18,-10,-1,0,-7,2,11
1522235728830070,55,-30,4,6,-5,3,-3,0
1522235728830070,-104,-1,-10,-6,3,1,-8,-5
1522235728842102,12,-13,-9,-3,5,-5,-5,1
1522235728842102,33,44,4,10,-6,-1,4,8
1522235728851125,-25,-46,-6,5,18,3,1,-4
1522235728851125,20,8,0,-7,-3,4,-4,-5
1522235728866165,3,-4,-1,4,-2,-3,10,4
1522235728866165,15,17,-2,-8,2,-1,-2,-1
1522235728868171,-22,-31,-1,-4,-5,-2,-1,-3
1522235728868171,-10,8,0,-2,-5,-8,-6,1
1522235728889227,-8,-15,-6,3,-4,-21,-8,-2
1522235728889227,29,3,-2,-8,-6,16,-3,10
1522235728890230,26,13,2,0,6,5,-5,-1
1522235728890230,0,23,-3,-1,6,1,7,-1
1522235728902262,-23,-30,-1,-2,3,-1,2,3
1522235728902262,-17,-35,-5,-1,-11,-11,-5,-8
1522235728911286,-24,6,-3,-6,6,-2,6,7
1522235728911286,38,-3,4,5,7,5,1,13
1522235728926325,-43,22,-2,-6,-3,5,-7,-11
1522235728926325,23,17,4,-3,-5,-8,-2,0
1522235728928331,-36,-20,0,2,1,3,2,-1
1522235728928331,-6,-2,1,-5,-5,-5,-3,-8
1522235728949387,35,16,0,12,10,7,-9,5
1522235728949387,-17,-20,-4,1,-4,2,6,1
1522235728950389,12,23,0,3,-2,-3,-6,-2
1522235728950389,-1,-11,-2,-1,13,4,-3,-8
1522235728962421,5,0,-5,-25,-27,1,-3,-7
1522235728962421,12,2,1,-4,-3,-7,-3,-2
1522235728971445,4,5,-3,19,3,12,26,8
1522235728971445,5,13,2,-4,4,-2,-17,5
1522235728986485,-8,-49,-2,5,16,-10,5,-7
1522235728986485,-19,14,-5,0,6,-5,-2,5
1522235728988491,35,-9,-6,-9,-5,5,-8,-7
1522235728988491,-20,2,6,5,-9,1,17,8
1522235729008544,9,14,0,1,5,7,12,6
1522235729008544,10,-23,-8,-4,-21,17,-1,-9
1522235729010549,22,18,15,7,6,-2,-13,1
1522235729010549,-26,-29,-8,0,-3,1,2,-6
1522235729022581,12,34,3,-2,-17,4,-7,1
1522235729022581,4,14,-9,-3,-1,-12,3,-11
1522235729031605,-18,-25,2,-10,-3,-1,-3,-1
1522235729031605,14,12,-11,3,-6,0,2,-2
1522235729046645,-11,-36,0,-2,-3,-6,-3,7
1522235729046645,18,13,0,-2,5,-7,-3,5
1522235729047648,-8,12,3,-3,-6,-5,8,-8
1522235729047648,16,25,3,0,5,-7,-17,-2
1522235729068704,-8,-25,-3,1,-16,2,-3,-5
1522235729068704,0,-5,-1,5,3,-5,-2,3
1522235729070709,-12,11,1,-18,-8,-8,-15,5
1522235729070709,-26,-13,-1,8,14,3,14,-12
1522235729082741,5,13,0,-8,-12,1,0,-6
1522235729082741,1,-12,0,2,16,2,-3,-2
1522235729091765,-4,9,-4,-9,9,2,15,-6
1522235729091765,20,-1,0,-7,-18,-9,-39,29
1522235729106805,-13,3,-3,-2,4,-5,-17,-13
1522235729106805,-32,-10,4,2,6,-5,2,-21
1522235729107808,45,7,-7,-3,4,0,-14,-7
1522235729107808,-53,-8,-2,9,-4,1,8,-9
1522235729128864,-13,-7,-2,0,10,2,13,9
1522235729128864,24,3,2,1,-22,-5,0,16
1522235729130869,-6,-4,-6,3,-7,20,-7,-17
1522235729130869,16,2,5,-2,-1,5,21,9
1522235729142901,10,14,2,3,-2,-1,-1,13
1522235729142901,-10,-2,-3,-5,-4,1,6,0
1522235729151925,-31,-2,2,1,3,-12,-2,4
1522235729151925,17,-3,2,-2,-9,-4,4,-2
1522235729165962,1,2,-2,-1,-2,5,-3,7
1522235729165962,-7,-10,-2,-3,-4,0,-2,1
1522235729167968,-1,1,2,-9,-12,-11,-2,2
1522235729167968,3,-5,1,32,23,6,-1,-7
1522235729189023,0,5,-2,-7,3,-4,9,5
1522235729189023,-6,-3,-3,-5,-5,-7,-10,6
1522235729191029,-7,-5,-1,1,-5,-9,-5,-4
1522235729191029,17,-6,-2,1,11,6,1,-5
1522235729203061,31,14,-1,1,33,1,7,10
1522235729203061,-35,-11,3,6,2,12,-1,-5
1522235729211082,13,4,-1,-1,-9,-5,-3,2
1522235729211082,17,11,-1,-14,-8,-10,5,19
1522235729226122,23,-19,-6,5,1,-9,-5,-41
1522235729226122,-18,2,1,-5,4,1,6,11
1522235729228127,50,9,0,14,7,2,-2,0
1522235729228127,-52,-25,-1,-14,-11,-6,-2,-18
1522235729249183,-14,8,3,4,-36,1,0,6
1522235729249183,10,-3,-6,3,14,19,7,-17
1522235729250186,-29,14,0,3,-11,-10,-6,1
1522235729250186,42,1,0,-6,-39,2,12,25
1522235729262219,0,6,-1,3,37,11,-14,1
1522235729262219,-38,-18,-3,-11,-19,-24,-9,-16
1522235729271242,5,-2,-4,-1,35,14,1,17
1522235729271242,24,30,4,-18,-9,-1,22,16
1522235729285279,-52,-25,-1,7,-9,2,27,-13
1522235729285279,31,0,2,3,-4,-4,-14,12
1522235729292298,-32,14,-1,-6,-31,-9,-1,-27
1522235729292298,32,-17,-1,-4,2,-3,-17,-10
1522235729308341,11,11,1,-3,-3,1,2,0
1522235729308341,0,5,-2,-1,7,-3,2,-4
1522235729316362,-11,-1,-4,-5,-15,0,2,9
1522235729316362,-16,-29,1,4,5,8,-15,-7
1522235729322378,18,-5,-1,4,-5,-4,-1,2
1522235729322378,8,3,2,0,-11,-8,-1,6
1522235729331402,-5,-12,-8,-15,-21,-12,-4,-14
1522235729331402,20,13,2,-1,-1,-3,-7,10
1522235729345439,-1,4,-2,-3,5,1,13,11
1522235729345439,-45,-9,-4,-4,-24,6,-6,-9
1522235729352458,5,-4,-2,3,26,6,23,8
1522235729352458,-18,-8,-15,-3,3,-19,-11,-12
1522235729368500,45,7,10,-2,-11,21,2,1
1522235729368500,46,17,2,9,7,-6,1,7
1522235729370506,1,9,2,4,5,0,-3,9
1522235729370506,-3,9,-1,4,-13,1,5,-12
1522235729382538,-36,-18,-9,0,-22,-13,-13,1
1522235729382538,35,9,2,-3,10,2,5,2
1522235729391562,-12,-24,2,-5,-6,4,0,-4
1522235729391562,-29,5,-3,11,23,1,-5,-20
1522235729405599,15,10,2,-7,3,2,-1,-5
1522235729405599,-9,-12,-1,-3,5,-4,-13,17
1522235729412618,-18,23,-1,1,-12,-2,-7,-52
1522235729412618,7,-26,-2,-4,-9,-3,-2,7
1522235729428660,0,14,-11,5,20,6,-3,3
1522235729428660,12,5,19,0,-5,-10,5,3
1522235729430666,14,-2,0,3,18,3,-2,14
1522235729430666,-33,-20,-1,-7,-5,8,-5,-11
1522235729442698,-13,-10,-3,-3,-15,-11,8,-11
1522235729442698,2,-2,-6,0,5,-2,-1,-3
1522235729451722,4,-3,-6,-1,-9,-3,-4,8
1522235729451722,-8,-7,0,3,-3,-1,1,-1
1522235729465759,3,-8,-8,-2,-8,0,-7,3
1522235729465759,-12,17,-3,-2,-2,2,1,-1
1522235729472778,3,-8,1,-2,-3,-5,-4,8
1522235729472778,0,-18,-3,-10,-5,-3,-1,-8
1522235729488820,-25,10,-4,4,8,-6,-7,-2
1522235729488820,2,-1,-4,-1,-1,-1,2,-4
1522235729490826,16,-1,-1,4,7,-3,3,4
1522235729490826,-9,11,2,-2,-2,0,5,2
1522235729511882,19,9,4,0,3,0,1,3
1522235729511882,-1,29,4,0,0,3,3,1
1522235729512884,-27,-29,2,-3,-10,-2,-3,7
1522235729512884,26,-11,-7,-3,6,0,-3,-1
1522235729525919,2,0,3,0,4,-7,2,3
1522235729525919,-20,-7,0,-1,18,-1,-19,-9
1522235729527924,44,27,3,-6,-27,-4,11,9
1522235729527924,-56,-3,0,10,13,-3,6,-13
1522235729548980,-5,-1,-2,3,2,3,-2,-8
1522235729548980,-26,-17,0,-1,-9,-26,-9,-10
1522235729550987,12,-9,-2,3,6,16,4,3
1522235729550987,23,10,4,4,17,6,6,10
1522235729571039,2,-17,-7,-12,-4,-1,-4,-8
1522235729571039,-18,17,-5,-12,-11,-2,1,2
1522235729573044,16,-16,-4,12,26,-3,-2,-25
1522235729573044,-8,-3,3,4,-6,-1,3,9
1522235729586078,-4,13,3,-5,-3,-3,0,1
1522235729586078,8,-12,-3,-1,-6,6,6,2
1522235729588084,23,9,-2,-1,6,1,-2,17
1522235729588084,33,0,3,-3,15,1,-5,0
1522235729609140,-76,-11,-2,-7,-5,-3,-13,0
1522235729609140,-6,-2,-2,0,0,3,3,-18
1522235729610143,-33,-14,0,-3,2,-4,-4,4
1522235729610143,27,12,2,-6,-3,-6,3,8
1522235729631200,26,18,4,5,4,-2,30,3
1522235729631200,14,-15,-2,1,-1,7,-11,17
1522235729633204,-50,2,0,-1,-16,1,2,10
1522235729633204,14,11,-1,8,14,1,-8,-16
1522235729646238,2,-17,0,-3,0,1,5,-9
1522235729646238,-13,15,-2,-5,-5,0,-4,6
1522235729652254,5,-4,-5,0,16,-2,0,1
1522235729652254,-4,0,0,-4,-37,2,2,13
1522235729669300,-3,17,6,6,19,0,-9,-13
1522235729669300,48,-4,-3,4,9,0,-3,-6
1522235729670303,-2,7,-1,-1,2,-2,-2,-4
1522235729670303,-20,-3,-6,-14,-17,-20,-11,-22
1522235729691358,19,6,3,-11,-20,19,11,6
1522235729691358,-15,19,2,0,8,-15,-2,-4
1522235729693364,-23,-78,-9,-8,-12,-8,-4,-2
1522235729693364,-7,20,-3,-2,8,-4,3,-6
1522235729705396,16,-14,-1,-5,-5,5,21,22
1522235729705396,22,-5,-5,-5,-8,1,-6,-9
1522235729714420,-17,29,8,7,-7,7,7,9
1522235729714420,9,-1,3,1,-1,3,-4,3
1522235729728457,-13,-12,1,7,3,-8,-33,-14
1522235729728457,-16,-10,-1,1,-8,2,18,15
1522235729730463,13,11,0,1,-10,-1,2,-16
1522235729730463,30,-10,0,5,18,1,6,14
1522235729751519,2,14,3,12,16,-3,-29,-8
1522235729751519,-6,-11,-3,6,14,-2,8,0
1522235729753524,53,7,-5,-4,0,-3,-11,3
1522235729753524,-99,29,5,-3,-6,0,-9,7
1522235729765556,20,-59,-7,-6,-7,-2,4,-4
1522235729765556,23,1,0,5,5,7,-1,-1
1522235729774580,-21,0,-3,-1,10,1,2,-3
1522235729774580,28,-1,-7,1,5,6,2,-4
1522235729788617,7,32,16,0,-6,-7,-7,10
1522235729788617,-13,-37,-6,-8,-4,0,-1,-7
1522235729790623,7,24,5,0,9,2,11,1
1522235729790623,-5,-24,-10,-1,-17,-2,-3,-5
1522235729811678,-18,4,0,1,2,-1,4,-3
1522235729811678,15,16,1,-6,-25,-4,0,6
1522235729812681,-37,11,-3,-2,-11,-4,-12,-7
1522235729812681,43,-16,-3,-2,7,-1,-1,5
1522235729824713,-62,-32,-8,4,1,-2,-2,-9
1522235729824713,-20,20,0,-6,-1,-3,-8,1
1522235729833737,-9,6,7,4,15,-2,-7,-3
1522235729833737,6,1,-4,-14,-42,-5,-10,-24
1522235729850782,-24,5,-4,-7,-1,1,2,7
1522235729850782,38,-2,-4,-13,-6,0,8,2
1522235729851785,6,-19,0,1,-5,-2,-4,22
1522235729851785,15,14,13,7,-2,0,3,-26
1522235729871838,-17,-8,-4,9,6,1,-2,6
1522235729871838,-30,6,-1,-1,-11,-2,-10,-13
1522235729872841,30,11,1,6,23,2,2,15
1522235729872841,-19,3,-3,14,13,-1,4,6
1522235729884873,40,-7,1,-3,-10,-2,-4,-17
1522235729884873,-65,-33,-1,-4,-1,0,1,3
1522235729893897,3,-8,-7,3,3,-3,-3,-15
1522235729893897,-9,-5,0,5,1,-2,4,14
1522235729908937,15,24,10,7,-5,-1,-7,-15
1522235729908937,15,14,-5,-3,-19,-3,31,14
1522235729910943,-5,-25,-2,-1,11,5,-26,-27
1522235729910943,3,17,1,-5,-3,-7,10,5
1522235729930995,-19,-7,-10,-12,-16,-1,7,11
1522235729930995,-14,-38,0,10,15,2,4,-1
1522235729933001,19,26,-2,-14,-10,-3,1,-4
1522235729933001,-9,-12,-4,12,8,0,-8,2
1522235729945033,-13,21,6,-6,-5,5,-5,-2
1522235729945033,13,-5,-3,3,26,0,-9,-9
1522235729954057,-23,-2,0,-16,-53,-1,8,6
1522235729954057,5,6,10,12,20,4,-8,5
1522235729969096,34,13,0,4,-4,-3,8,-4
1522235729969096,-9,-9,-5,6,13,-1,-16,-7
1522235729970100,41,10,-1,6,8,-2,5,17
1522235729970100,-13,-7,1,-4,0,4,4,-20
1522235729991155,8,-2,-10,-11,-11,-7,-2,10
1522235729991155,21,17,11,6,-3,6,-2,4
1522235729993161,-12,-3,-7,-3,-5,-6,-1,-3
1522235729993161,39,-8,-3,-9,-12,1,-6,-1
1522235730005193,4,7,-6,3,12,-2,6,-6
1522235730005193,-32,-15,0,-2,-4,0,-10,-9
1522235730014216,-5,-26,-6,-7,-11,-4,0,3
1522235730014216,-3,5,-4,7,7,1,7,10
1522235730029256,24,-2,0,-7,-7,-3,-8,-2
1522235730029256,-4,12,5,0,6,1,-2,-4
1522235730030259,-7,-4,-3,0,19,1,-1,-9
1522235730030259,18,14,-4,-15,-16,12,0,6
1522235730051315,-23,-34,-4,-3,1,-16,7,8
1522235730051315,10,-8,-6,-4,2,-4,-4,6
1522235730053321,3,9,6,-2,13,-3,0,-13
1522235730053321,-16,-10,-6,-10,-9,-8,-6,-12
1522235730065352,16,7,3,5,-6,7,0,17
1522235730065352,-12,-12,-6,-4,-5,-14,11,2
1522235730074376,-8,7,0,5,3,2,-40,-13
1522235730074376,23,3,0,0,-3,-3,1,3
1522235730089417,-9,-7,-5,-3,2,7,-4,2
1522235730089417,27,-5,-2,4,4,3,-6,-4
1522235730090419,-37,13,1,-14,-23,4,14,-10
1522235730090419,4,12,6,21,22,1,3,5
1522235730111476,-16,-43,-6,-3,-18,-7,-10,-6
1522235730111476,-48,5,-5,4,17,3,6,-10
1522235730113480,21,-2,-2,8,-1,-3,5,-2
1522235730113480,-14,7,1,-8,10,-1,-2,6
1522235730125512,21,3,0,8,10,0,8,-3
1522235730125512,25,14,2,10,10,5,4,12
1522235730134537,-6,-3,1,-3,-10,2,2,-8
1522235730134537,-14,0,-4,2,3,-1,6,8
1522235730148574,-7,2,-2,0,1,2,-3,-22
1522235730148574,37,9,1,-15,-17,-4,-2,12
1522235730150579,10,24,10,17,31,5,1,8
1522235730150579,-18,-15,0,-4,-8,-1,0,9
1522235730171635,14,9,0,-2,4,-5,0,5
1522235730171635,-47,9,-3,-3,-13,0,-6,-17
1522235730172638,-35,-25,3,11,8,-5,-1,-8
1522235730172638,8,5,-4,-3,-10,-2,8,5
1522235730184669,35,11,2,-1,24,2,-8,4
1522235730184669,-25,-34,-8,-4,-12,-1,-1,-7
1522235730193693,17,14,0,-19,-46,-7,-8,4
1522235730193693,-5,-32,2,26,40,10,-10,-15
1522235730208733,-22,10,-4,-4,3,-8,2,7
1522235730208733,33,3,2,-3,-9,-3,-12,-13
1522235730210739,11,2,-3,-5,-5,3,3,-2
1522235730210739,-28,-6,-4,3,-5,-5,0,-17
1522235730231795,6,0,-3,-6,-9,1,1,13
1522235730231795,24,3,3,3,-2,-14,-3,1
1522235730232797,-3,-8,-4,10,4,23,18,-8
1522235730232797,-24,4,-4,-14,32,12,-21,-15
1522235730244829,-14,-13,-1,1,5,-6,8,-1
1522235730244829,14,3,-6,-2,5,-5,-2,5
1522235730253854,4,7,-2,-1,7,-4,17,24
1522235730253854,-13,-12,0,-12,-39,-7,-1,-15
1522235730267891,18,16,3,1,-6,6,-16,8
1522235730267891,-28,-9,-1,-2,11,7,0,-19
1522235730274909,25,0,0,-7,-1,-15,-10,10
1522235730274909,25,25,3,6,-4,1,7,8
1522235730290952,-37,-11,-2,-4,4,-8,7,-3
1522235730290952,-11,13,6,-5,-24,2,0,-17
1522235730292957,16,-9,-1,8,20,3,-7,7
1522235730292957,-11,6,-4,-16,-6,-4,-1,4
1522235730304989,32,19,7,-3,3,9,2,-14
1522235730304989,-42,4,-6,4,-1,2,6,9
1522235730314013,8,-22,-2,-2,-6,0,1,15
1522235730314013,-13,-2,-6,-7,-14,-5,-5,-6
1522235730328050,6,22,-1,2,-15,-4,4,-5
1522235730328050,0,-31,0,1,11,7,1,8
1522235730335069,6,0,-5,-3,-4,6,-2,3
1522235730335069,-8,-16,-3,0,-1,-15,5,-9
1522235730351113,-27,0,0,-2,-1,2,8,-1
1522235730351113,13,7,1,0,1,0,1,7
1522235730353118,-31,-5,-4,-7,-3,-9,-6,-18
1522235730353118,47,6,-1,2,15,2,-5,-4
1522235730365149,-46,-17,-5,6,-13,2,-4,2
1522235730365149,78,23,3,-6,-9,-5,-8,-19
1522235730374173,-51,29,-2,-7,-7,-1,7,7
1522235730374173,11,-33,-1,7,3,3,3,11
1522235730388210,-5,-7,-2,-12,-8,-3,-5,-11
1522235730388210,-36,-25,1,11,12,3,3,14
1522235730395229,25,24,1,6,8,-4,-4,-3
1522235730395229,-3,0,-3,-5,-11,0,2,2
1522235730411272,16,2,3,-3,7,0,-4,9
1522235730411272,-8,8,-6,-7,-17,-1,-2,2
1522235730413277,-4,2,8,0,-6,-3,-3,-6
1522235730413277,12,27,-5,-5,-3,1,9,19
1522235730425309,-1,-46,-2,-1,0,-2,-13,-29
1522235730425309,6,-5,4,4,3,4,-1,-2
1522235730434334,-24,-4,-4,0,-5,-7,-6,-5
1522235730434334,-27,8,0,-8,-15,-2,4,8
1522235730448370,10,19,-7,1,-4,1,11,10
1522235730448370,-36,-2,10,0,2,-5,-5,-11
1522235730455389,43,-14,-7,-4,4,0,0,9
1522235730455389,-18,12,-2,5,3,-2,-12,-18
1522235730471433,0,5,-6,7,7,1,2,3
1522235730471433,24,-10,-6,-3,1,-5,2,12
1522235730473437,-25,0,0,-2,1,-1,3,3
1522235730473437,-7,-12,4,-5,3,-1,-1,-6
1522235730493490,10,15,1,0,5,-2,-10,-1
1522235730493490,8,14,-7,0,0,1,10,5
1522235730495496,0,27,5,1,18,-5,-5,-4
1522235730495496,-4,-58,-4,-3,-27,-3,-4,-7
1522235730508530,15,4,0,-2,3,1,6,9
1522235730508530,7,-10,2,-6,-16,-2,-1,6
1522235730515549,-23,-20,-9,2,5,0,-10,-3
1522235730515549,28,30,7,8,1,-6,5,4
1522235730531591,-48,-12,2,3,1,8,-7,3
1522235730531591,26,7,-4,-2,-2,-7,3,3
1522235730533597,-9,-8,-4,-3,-13,2,5,-13
1522235730533597,8,8,3,6,0,0,-1,-3
1522235730553650,13,-2,0,-1,0,-3,0,13
1522235730553650,2,12,-8,-11,5,-1,-9,-4
1522235730555655,22,-8,-1,-1,-4,-5,-7,-13
1522235730555655,-17,-14,-10,1,9,1,-3,4
1522235730567688,-28,19,-3,-17,-15,-1,-2,-9
1522235730567688,26,12,1,0,0,7,4,15
1522235730577714,52,-30,10,7,15,3,6,12
1522235730577714,-31,1,-4,-5,8,2,6,-15
1522235730591752,-1,-4,-7,-12,-16,-8,-9,-7
1522235730591752,-6,-4,5,-3,-1,0,3,-5
1522235730592754,-11,10,0,-8,-23,-5,-1,2
1522235730592754,4,4,5,19,11,4,-5,11
1522235730613810,26,-7,2,2,8,6,10,13
1522235730613810,-2,7,-9,1,5,0,-14,5
1522235730615815,0,-6,-4,-5,-6,-1,5,-2
1522235730615815,0,3,4,-6,-5,1,1,8
1522235730627847,-16,9,-1,5,-4,-4,-3,-10
1522235730627847,27,7,6,4,2,0,3,3
1522235730636871,-50,-20,-11,-5,3,-2,-1,-5
1522235730636871,20,16,3,-7,-10,-1,-2,0
1522235730651911,-27,-19,-4,1,5,-2,-8,-2
1522235730651911,6,-14,3,1,-12,1,12,7
1522235730652914,9,16,3,6,11,1,-1,5
1522235730652914,32,7,-5,-1,-1,2,1,-11
1522235730673970,-2,4,0,-21,-4,-4,2,-4
1522235730673970,-39,-8,2,2,-2,-2,-5,-14
1522235730675975,12,5,-6,-8,-14,0,8,8
1522235730675975,7,-3,-3,6,13,3,-2,12
1522235730688007,52,24,-6,-4,-6,-2,-5,-17
1522235730688007,-90,-21,7,6,7,-2,-9,-11
1522235730697031,16,3,1,-3,-3,-4,-7,1
1522235730697031,-24,-2,-2,-12,-1,0,6,-4
1522235730711069,56,1,1,11,-4,0,1,11
1522235730711069,-42,-15,-11,-3,-1,3,7,-9
1522235730713074,-8,3,-2,-4,-16,0,-17,-9
1522235730713074,3,4,5,3,6,0,13,6
1522235730734130,-3,-11,4,3,3,0,6,21
1522235730734130,27,5,-3,5,8,-2,-2,14
1522235730735133,-2,15,1,-11,-14,-4,-8,-1
1522235730735133,-17,-21,-6,-19,-23,-8,-7,-1
1522235730747165,-50,3,0,4,5,-1,-9,5
1522235730747165,20,12,-4,-16,-6,2,25,2
1522235730756189,-4,-10,2,14,11,0,-13,-3
1522235730756189,28,24,2,-4,-8,-6,-7,-2
1522235730771228,-20,-14,1,1,5,0,-3,-4
1522235730771228,33,-3,-6,-2,4,0,4,24
1522235730773234,-34,-26,-6,-2,-1,-4,11,-22
1522235730773234,2,14,2,1,25,-1,-5,-6
1522235730794290,6,-13,-3,-2,-27,-2,-14,1
1522235730794290,7,-4,-7,12,-7,6,-3,-7
1522235730795292,-6,18,7,-2,8,-6,1,-14
1522235730795292,-25,-12,0,17,10,4,-5,-1
1522235730807325,-4,-2,-2,-11,-24,-10,1,-15
1522235730807325,14,12,2,-5,-4,-2,-5,3
1522235730816349,11,18,-5,1,5,2,6,-6
1522235730816349,-24,-34,-4,-1,3,0,-3,0
1522235730831389,11,13,3,-2,1,1,6,5
1522235730831389,-12,-11,2,-5,-3,-2,-4,-12
1522235730833394,27,-5,-3,-5,-4,-3,-3,2
1522235730833394,-18,7,-5,-3,-21,-1,4,-1
1522235730854449,19,7,1,4,8,2,-1,-10
1522235730854449,8,5,1,0,3,-5,-7,-4
1522235730855452,-9,-10,-3,5,7,1,15,-19
1522235730855452,34,10,-1,-7,-6,-4,-2,1
1522235730867484,-36,-23,-5,13,7,4,6,6
1522235730867484,-68,-2,1,0,-33,-7,-15,-16
1522235730876509,20,-6,-3,5,-12,-3,-4,13
1522235730876509,-6,-7,-6,-4,-11,0,-1,-3
1522235730891548,4,-4,3,1,14,3,-7,-7
1522235730891548,28,2,0,1,0,0,1,1
1522235730893554,-8,16,3,6,-2,6,5,17
1522235730893554,-24,-48,-7,-3,-22,-6,0,-6
1522235730913607,43,3,0,0,24,1,-1,6
1522235730913607,-36,0,-3,-2,4,-2,0,-6
1522235730915612,-33,-12,-1,-6,5,1,-7,-16
1522235730915612,15,25,4,11,-12,0,3,3
1522235730927644,3,4,0,-13,-21,1,3,-1
1522235730927644,39,1,-4,13,61,7,6,-4
1522235730936668,-37,-3,2,-1,28,-6,-9,11
1522235730936668,21,28,2,-5,-12,-2,-2,7
1522235730951708,-9,-26,-6,0,8,-3,0,-6
1522235730951708,-12,-4,-1,-9,-33,-3,-9,5
1522235730952711,-4,-2,-9,-3,3,2,-2,-4
1522235730952711,19,22,6,0,12,2,-2,-8
1522235730973767,10,-15,3,5,0,-3,-8,5
1522235730973767,35,9,5,-5,-7,4,-5,-8
1522235730975772,-11,-1,-4,-3,9,0,4,4
1522235730975772,-6,-13,-1,-6,-12,1,-5,4
1522235730987804,-22,4,-7,-3,-6,1,9,2
1522235730987804,-2,-8,1,-7,-4,-8,1,5
1522235730996828,16,4,-1,-1,0,-1,13,4
1522235730996828,25,1,8,-6,-5,-1,4,6
1522235731011868,-11,7,-7,4,5,2,-9,-5
1522235731011868,-17,22,10,1,-9,-3,3,1
1522235731012870,28,-36,-7,-3,1,4,-4,-3
1522235731012870,-65,-10,8,-2,8,0,-5,-4
1522235731033927,47,10,-2,-3,-2,-2,3,-14
1522235731033927,35,12,-2,-10,10,-2,-4,-1
1522235731035932,19,8,2,2,-4,-4,-3,1
1522235731035932,-20,-16,-7,1,9,1,2,-3
1522235731047964,-33,-27,2,6,0,-1,6,7
1522235731047964,1,0,-10,2,3,1,-13,-3
1522235731056988,2,-3,-1,4,-8,-2,6,4
1522235731056988,-19,-17,-13,2,-3,0,-2,-12
1522235731071025,5,26,4,-1,-16,-5,4,4
1522235731071025,9,-3,-2,-7,-29,0,-8,2
1522235731073031,-8,3,6,5,4,6,5,10
1522235731073031,10,1,-6,4,10,0,0,1
1522235731094086,27,6,-1,-2,3,-5,-2,-14
1522235731094086,-47,-2,-3,-3,-15,-7,-4,-1
1522235731095089,-14,-13,-1,-10,-25,-7,-3,-2
1522235731095089,21,-5,0,3,15,-1,4,10
1522235731108123,-77,2,0,-4,-6,3,-2,-3
1522235731108123,6,-6,-2,10,21,0,8,2
1522235731116145,10,19,1,-4,-9,-2,-2,5
1522235731116145,-8,-11,-2,1,-1,0,1,8
1522235731131185,23,13,-2,-2,8,-3,-7,-13
1522235731131185,21,5,-10,-5,3,0,1,-4
1522235731133190,-40,-17,7,2,9,-2,-1,2
1522235731133190,27,-4,2,-4,-31,6,0,0
1522235731154246,-9,24,-4,-4,0,-12,0,-1
1522235731154246,21,21,-6,-2,6,-1,-1,1
1522235731155249,12,-14,-2,0,1,1,-11,2
1522235731155249,-20,11,-2,6,20,-2,1,-15
1522235731167281,-33,-46,-2,-17,-17,2,2,4
1522235731167281,-9,-11,6,24,31,6,12,8
1522235731176305,24,10,-7,-5,-2,-2,1,3
1522235731176305,-9,-19,-3,-1,10,-4,-5,8
1522235731190342,2,11,7,-3,-7,-2,-9,-23
1522235731190342,1,-8,-6,-13,-13,-5,-7,1
1522235731197361,43,10,2,-4,-1,-2,-6,-1
1522235731197361,-14,9,-1,0,-6,0,-5,-6
1522235731214406,13,-8,-4,14,16,3,6,12
1522235731214406,0,-2,9,-3,-2,0,2,-12
1522235731215409,-41,-5,-3,1,-8,-1,-4,-7
1522235731215409,26,-1,1,-1,25,-2,-1,1
1522235731228443,-24,3,4,3,2,4,0,7
1522235731228443,-32,-23,-2,7,-9,-10,-3,-2
1522235731236466,12,5,-4,-1,-4,0,9,13
1522235731236466,7,2,3,1,-10,-4,-1,-5
1522235731250502,13,17,-3,2,-6,2,-10,8
1522235731250502,-23,-12,-8,-5,-4,0,9,-9
1522235731257521,17,-24,10,1,-4,-2,1,-5
1522235731257521,2,16,-3,-2,-6,0,-6,-3
1522235731273563,15,-12,-1,0,10,0,9,9
1522235731273563,-22,10,-2,-11,-11,1,1,-18
1522235731275569,4,-4,-10,-7,12,0,-3,3
1522235731275569,34,1,-1,0,-2,0,-5,-12
1522235731287601,-36,-3,4,6,8,7,0,-3
1522235731287601,-9,-8,-5,3,4,-8,2,24
1522235731296625,12,25,1,2,15,0,-1,-10
1522235731296625,-36,6,4,-7,-31,-3,-2,-9
1522235731310662,4,-8,-7,-3,-5,-4,-9,-2
1522235731310662,23,-6,2,3,19,5,-1,1
1522235731317681,-10,-6,-10,-2,6,0,1,4
1522235731317681,-16,35,5,-3,6,3,12,10
1522235731333723,14,12,3,-1,-15,-5,-16,-11
1522235731333723,-17,-21,-1,4,9,2,11,-3
1522235731335729,8,1,-4,-7,8,-2,-6,-3
1522235731335729,38,6,1,3,-11,-5,-2,4
1522235731347760,14,-15,2,3,4,-2,3,2
1522235731347760,23,24,-1,1,-6,-1,-6,13
1522235731356785,-65,-22,1,-2,-13,-1,-5,-12
1522235731356785,15,-8,-4,-3,13,2,1,-2
1522235731370822,-11,-10,0,-8,-7,2,1,-2
1522235731370822,13,21,-1,-8,-16,-4,-2,6
1522235731377840,13,-12,2,1,-15,1,6,-2
1522235731377840,-8,-4,-4,-22,6,1,-7,-3
1522235731393883,42,18,0,15,26,-3,1,-5
1522235731393883,-44,-25,-6,-4,4,1,-9,-8
1522235731395888,-22,19,0,0,5,2,11,1
1522235731395888,-10,-28,1,4,-4,0,3,-9
1522235731415942,-12,3,-4,-5,-16,-4,-11,-14
1522235731415942,18,-1,3,-7,-5,-1,14,23
1522235731417947,0,12,-2,2,-5,6,14,-1
1522235731417947,-26,-4,-3,10,-3,-10,-13,-18
1522235731430982,33,4,-3,-1,-7,0,15,5
1522235731430982,-21,-14,2,4,4,4,-13,-5
1522235731438000,5,1,1,-8,-16,1,2,18
1522235731438000,-11,-1,-2,-8,-13,8,2,-28
1522235731454043,-2,-3,0,7,8,-7,-1,19
1522235731454043,30,10,2,-3,-6,-4,-4,4
1522235731456048,28,1,0,6,0,1,-1,6
1522235731456048,-21,-7,-4,-13,-8,-2,4,10
1522235731476102,29,3,0,5,14,-6,-7,5
1522235731476102,-1,-1,-2,2,-2,16,14,-11
1522235731478107,-19,-3,3,-4,-3,-6,-21,5
1522235731478107,13,4,-1,10,-5,19,29,6
1522235731491141,-12,-5,-5,-11,38,-2,-9,-14
1522235731491141,19,11,6,3,-15,-4,1,-6
1522235731497158,7,3,3,6,2,-5,1,1
1522235731497158,25,-3,-3,5,6,-8,-3,1
1522235731514203,-43,1,-2,-10,-23,4,13,-9
1522235731514203,0,1,2,-10,-26,-9,-41,-3
1522235731515206,16,1,-3,5,22,2,-6,-10
1522235731515206,-10,-16,-1,-3,7,-13,-7,-1
1522235731536261,6,2,3,1,-9,24,13,14
1522235731536261,1,0,0,1,11,2,-6,-4
1522235731538267,-20,-2,1,-1,-24,4,14,-2
1522235731538267,39,17,2,3,-7,-6,-3,16
1522235731550299,-8,-10,-5,-3,-8,1,2,9
1522235731550299,-6,1,0,5,37,-3,4,0
1522235731559323,26,-1,-1,6,5,5,-12,7
1522235731559323,-7,14,3,6,4,-1,3,5
1522235731574363,15,24,2,5,-16,-11,8,10
1522235731574363,-32,-49,-5,2,17,-3,-2,-6
1522235731575366,24,6,-1,-7,-5,-12,-9,-12
1522235731575366,-55,-14,-4,-7,-3,-2,8,1
1522235731596421,20,11,2,7,-9,-2,-6,13
1522235731596421,-2,10,2,14,9,0,22,-11
1522235731598427,-4,-10,-5,-3,-4,9,-36,-4
1522235731598427,-34,-5,-4,4,-1,-28,-17,-15
1522235731610459,-14,-6,1,-9,8,-3,-3,-4
1522235731610459,9,3,-2,-6,-17,-5,1,13
1522235731619483,-7,-6,-2,15,30,-3,6,-13
1522235731619483,30,15,3,5,-3,25,30,-1
1522235731633520,-25,4,-2,-2,-9,-6,-25,-13
1522235731633520,15,-22,-1,-12,-4,-2,5,-12
1522235731635525,16,18,0,-10,-16,1,12,4
1522235731635525,10,-17,-7,-5,4,0,-11,6
1522235731656581,-11,-12,-1,20,13,-30,-5,-5
1522235731656581,-53,14,2,0,-3,8,-14,-7
1522235731658587,-25,-16,1,3,-1,15,10,-7
1522235731658587,-18,5,4,-5,11,-11,-6,-28
1522235731670618,-1,6,-1,-14,-14,-3,-2,-1
1522235731670618,60,9,-9,-3,-8,-8,-8,4
1522235731679643,-11,-20,-6,-4,4,-14,1,-7
1522235731679643,9,1,-3,9,13,1,-18,14
1522235731693680,3,11,6,-4,-1,14,8,10
1522235731693680,12,13,1,-6,-4,-3,3,-1
1522235731695685,-18,22,-4,-8,3,0,-4,-4
1522235731695685,-9,-39,-5,4,-12,1,2,-8
1522235731716741,1,-5,0,5,17,-6,-2,-5
1522235731716741,18,11,4,-5,3,3,0,5
1522235731717744,34,17,6,-7,-20,-7,6,6
1522235731717744,-81,-11,-11,-1,-3,0,3,6
1522235731729776,4,-58,-13,-23,-40,1,6,-1
1522235731729776,-10,19,6,17,18,1,-1,-6
1522235731738800,7,-17,-2,1,17,-4,-4,4
1522235731738800,51,58,-1,1,9,5,-1,9
1522235731753840,-15,-51,1,-5,-11,3,4,-1
1522235731753840,-3,15,2,-3,-6,0,-4,-1
1522235731755845,-19,-4,4,3,-6,-5,-1,-1
1522235731755845,25,-30,-7,-2,-4,6,-8,0
1522235731776901,6,7,-2,-3,6,-1,-1,-2
1522235731776901,-5,1,-7,-2,-6,-3,0,0
1522235731777904,-53,-40,0,1,6,0,7,-7
1522235731777904,47,39,11,4,0,-3,-1,14
1522235731789936,27,13,-4,8,10,6,5,-3
1522235731789936,-14,-8,3,-5,-2,-2,-6,-4
1522235731798960,-14,35,-9,-7,-12,-1,2,-5
1522235731798960,-26,-62,-11,-4,-2,-1,-7,-8
1522235731813999,18,36,22,5,4,-2,-5,6
1522235731813999,-11,5,-14,-4,-7,-5,-1,-2
1522235731816005,28,-21,23,6,3,-1,0,0
1522235731816005,5,-27,1,-3,-12,-2,3,-10
1522235731836058,4,14,-4,2,-3,9,-4,-1
1522235731836058,8,13,-1,-2,4,-9,-1,2
1522235731838064,-25,-1,-6,-7,-15,-1,-5,6
1522235731838064,16,20,3,13,3,1,8,0
1522235731850096,-15,-9,-5,-8,1,3,3,-1
1522235731850096,32,1,5,5,-3,2,2,3
1522235731859119,-20,1,-7,-14,-21,-4,-9,0
1522235731859119,9,18,4,-3,7,1,0,6
1522235731874160,-16,-17,-6,-1,10,1,0,-2
1522235731874160,-13,-20,1,-7,2,-1,-9,-3
1522235731875162,29,-1,2,6,8,-3,2,-16
1522235731875162,14,26,-7,1,-1,1,3,1
1522235731896218,-13,-22,-10,5,3,-3,-3,-4
1522235731896218,-20,-3,0,4,-11,3,2,13
1522235731898224,-1,0,-10,-2,4,-1,-5,1
1522235731898224,-10,16,6,2,3,0,-7,-6
1522235731910255,32,23,-1,-6,-4,-7,1,-4
1522235731910255,-20,-63,-4,-2,-5,0,7,-2
1522235731919279,-22,5,-15,0,-3,1,6,4
1522235731919279,2,-5,2,-4,4,-1,-1,-1
1522235731934319,-18,5,-3,-15,-16,0,25,-8
1522235731934319,13,9,0,-7,40,1,-11,2
1522235731935322,18,9,5,7,6,-4,-20,-8
1522235731935322,-29,-15,-3,-7,-5,-4,4,-4
1522235731956378,-2,5,-1,-3,7,-2,-9,0
1522235731956378,22,14,-1,2,-2,4,14,9
1522235731958383,13,5,1,-8,-14,7,4,1
1522235731958383,-4,-2,-5,-19,-40,-24,-8,6
1522235731970415,-30,-5,-1,41,8,-5,-7,-7
1522235731970415,-4,-4,-1,-6,-13,-3,-15,-17
1522235731979439,52,3,-2,0,0,3,-3,25
1522235731979439,-16,4,2,6,2,1,-7,-20
1522235731994479,-12,-1,1,-16,-43,0,-11,-6
1522235731994479,19,8,3,9,5,-8,46,9
1522235731995482,-4,8,0,7,-4,10,-3,-3
1522235731995482,-9,-8,3,13,21,6,0,9
1522235732016538,8,0,-3,-8,5,-4,10,-7
1522235732016538,-14,6,3,4,-4,6,2,-5
1522235732018543,-2,6,-3,-7,-3,-7,-1,-19
1522235732018543,40,9,4,-3,2,-2,0,17
1522235732030575,-18,0,-3,-1,14,3,-11,0
1522235732030575,-23,-41,-10,-8,-26,-1,-6,-3
1522235732039599,-33,6,-1,-17,-5,-4,13,1
1522235732039599,-3,-16,-3,6,12,14,-3,-2
1522235732053636,34,14,5,16,39,3,3,10
1522235732053636,2,8,-2,-5,-29,-3,-13,1
1522235732055642,16,-7,-6,-3,30,-4,-5,-8
1522235732055642,14,10,-2,2,-17,4,-1,-5
1522235732076698,-31,-48,-4,-6,0,-1,-2,7
1522235732076698,13,6,-4,-1,6,-3,-6,1
1522235732077700,-24,-7,2,6,-9,4,4,-26
1522235732077700,5,18,-3,1,1,4,1,-13
1522235732089732,-13,1,8,3,0,-2,-5,-1
1522235732089732,16,5,4,-1,0,0,-4,4
1522235732098756,-3,-6,-10,6,4,-7,2,9
1522235732098756,-48,11,11,1,-7,1,-2,-1
1522235732113796,22,4,-3,-19,-16,-4,-2,2
1522235732113796,0,11,-5,11,24,4,-1,-16
1522235732119812,-20,8,7,3,3,1,5,17
1522235732119812,-8,-39,-3,1,9,-6,-24,-5
1522235732137860,13,8,-2,9,-2,3,2,11
1522235732137860,29,-5,-4,-8,19,1,-7,10
1522235732139866,30,12,2,0,-7,-3,0,2
1522235732139866,-24,-10,0,-2,18,3,-12,-8
1522235732149893,17,26,-1,-2,-14,1,-1,-8
1522235732149893,-8,-23,3,-5,-17,-4,-9,-5
1522235732158916,-15,-10,-12,-3,-6,-3,-3,1
1522235732158916,16,4,-1,-7,6,-2,15,7
1522235732172954,10,23,3,-9,-7,3,6,8
1522235732172954,-24,-6,-5,0,0,-1,-2,-17
1522235732179972,-4,0,2,-1,-1,-3,-2,7
1522235732179972,-4,-4,-2,-2,0,-3,4,8
1522235732196015,12,-1,5,-11,-16,-4,-7,-4
1522235732196015,-9,1,-1,5,10,-1,2,10
1522235732198020,-10,-5,1,-1,-9,-2,-7,-1
1522235732198020,17,15,-7,-3,-19,-3,4,6
1522235732210052,-13,-24,-1,-5,1,-3,9,-9
1522235732210052,-44,-49,-5,-7,-30,-6,-5,0
1522235732219076,42,10,-3,-3,24,-1,-1,7
1522235732219076,-25,0,1,5,27,3,0,-8
1522235732234116,-31,-5,-5,-1,-13,2,1,0
1522235732234116,20,25,2,5,11,2,8,4
1522235732235119,17,-8,-5,-8,-7,-2,-4,3
1522235732235119,-21,-11,-5,-4,-6,-1,15,3
1522235732256175,25,8,3,22,26,17,-7,3
1522235732256175,-10,17,0,2,-15,-2,3,-15
1522235732258180,24,2,2,-5,0,-4,-5,4
1522235732258180,-39,-14,-1,-2,6,4,-3,-2
1522235732270212,-20,7,-8,-5,-2,-8,0,-3
1522235732270212,-5,-6,-1,1,-7,-2,-4,3
1522235732279236,1,-1,3,10,-4,7,9,-9
1522235732279236,23,5,-2,-6,-22,-7,-12,0
1522235732293273,15,-3,-3,4,8,-6,4,10
1522235732293273,11,19,1,-1,-4,4,-1,-3
1522235732300292,17,-14,-2,3,14,-6,0,-12
1522235732300292,34,13,1,-18,-28,-1,-3,-2
1522235732316335,-46,-6,1,4,33,-1,-10,-10
1522235732316335,26,10,4,1,1,3,4,0
1522235732318340,12,18,0,10,-2,1,-6,2
1522235732318340,-55,-17,-6,-7,-15,-2,1,-1
1522235732339396,12,36,-3,-8,-1,0,2,0
1522235732339396,8,-27,1,4,2,-10,-5,2
1522235732340399,-33,-21,3,8,22,9,4,-2
1522235732340399,17,20,3,6,1,-10,2,-3
1522235732353433,-12,-27,-2,1,-3,-3,4,-8
1522235732353433,19,23,-4,0,9,2,-1,5
1522235732360452,-22,16,-2,-15,-21,-6,-7,2
1522235732360452,3,-25,6,8,14,3,-1,2
1522235732376494,5,-6,-4,-2,-5,3,-4,-1
1522235732376494,-10,8,0,-5,9,-1,-2,-2
1522235732378500,17,-10,-2,0,-5,2,10,3
1522235732378500,-1,14,0,7,-1,1,1,3
1522235732398553,-3,-3,-4,-7,-8,-3,5,-4
1522235732398553,18,13,1,-6,4,-3,-7,15
1522235732400559,-22,-1,1,11,-6,-5,-28,-25
1522235732400559,14,-16,-4,6,10,3,-4,-32
1522235732413593,4,-4,4,-8,-20,-5,-9,0
1522235732413593,-24,6,-4,1,4,1,1,-2
1522235732420612,-18,1,1,-2,-3,-2,9,1
1522235732420612,22,-1,3,0,1,0,-2,16
1522235732436654,3,-6,-9,9,-10,-6,-7,-7
1522235732436654,-10,-3,7,-1,-1,-2,0,-12
1522235732437657,-10,-8,0,-5,-3,-1,5,12
1522235732437657,-1,2,-1,5,6,-2,0,-3
1522235732458713,10,4,0,-4,-1,3,2,-3
1522235732458713,-10,-4,-3,1,-5,-4,3,2
1522235732460718,-8,-5,-2,1,-2,-6,-2,1
1522235732460718,13,20,-4,-15,-1,-1,-3,6
1522235732472751,26,-8,-4,-4,-16,-3,1,9
1522235732472751,-28,14,3,-3,-1,1,-18,-13
1522235732481774,-47,-68,-5,-6,-13,3,10,-16
1522235732481774,10,14,2,8,-6,0,0,0
1522235732496814,17,-13,-3,0,6,1,5,8
1522235732496814,28,9,-4,-5,6,-1,2,-16
1522235732497817,5,5,-4,4,-11,1,-3,0
1522235732497817,16,-3,6,9,-10,-2,0,4
1522235732518873,-44,-14,-4,-9,-13,-5,0,-2
1522235732518873,7,4,2,-1,-1,-1,-5,-1
1522235732520878,17,24,7,6,11,1,2,6
1522235732520878,-67,-32,-13,-15,-9,-1,-3,-12
1522235732532910,4,16,3,3,12,7,-9,-27
1522235732532910,-21,-12,-5,-6,-26,-15,9,7
1522235732541935,9,7,-5,-3,9,-10,-12,-13
1522235732541935,45,0,6,1,1,-1,5,6
1522235732556974,1,9,4,-2,-1,-5,4,0
1522235732556974,-19,-36,-7,-5,0,7,-32,0
1522235732557977,11,6,-2,-11,-31,-5,0,2
1522235732557977,3,8,4,8,16,1,-9,1
1522235732579033,-6,-14,2,11,7,0,-4,8
1522235732579033,19,15,0,9,25,1,13,6
1522235732581038,-10,-15,-9,-10,-5,-4,-9,-1
1522235732581038,-2,17,1,-16,0,0,15,4
1522235732593070,-24,-14,2,-3,-5,-2,2,-10
1522235732593070,4,5,-6,-3,6,0,1,-23
1522235732602095,-13,3,5,6,-2,5,-2,9
1522235732602095,9,-23,-6,-4,-5,1,-3,-12
1522235732616131,-38,-1,-4,-4,6,-6,-5,7
1522235732616131,25,12,-2,5,-11,3,12,15
1522235732618137,-11,-30,-9,-1,7,0,-2,-15
1522235732618137,5,14,6,5,1,5,3,0
1522235732639193,26,-2,-4,-12,-2,-7,-1,6
1522235732639193,-13,-3,5,0,-8,0,-3,12
1522235732640195,-12,7,-6,-4,13,2,2,-4
1522235732640195,24,-3,2,3,-5,-2,4,4
1522235732652227,-4,-1,-2,0,2,-3,-4,-15
1522235732652227,-15,-4,4,-6,-22,-4,-3,-8
1522235732661251,18,11,3,4,0,-2,1,5
1522235732661251,-5,7,-9,3,-6,1,-6,10
1522235732676291,-2,2,5,5,7,3,-7,-4
1522235732676291,7,-12,-8,0,-25,-4,13,11
1522235732678297,-6,13,4,-11,-3,-1,-20,-8
1522235732678297,0,14,-1,10,-1,0,0,0
1522235732699352,17,-3,-1,-9,-4,9,-1,19
1522235732699352,-25,-38,-10,-4,0,-14,-15,-14
1522235732700355,-1,5,3,-2,-6,-2,2,-9
1522235732700355,-4,-9,-1,0,-8,3,-1,1
1522235732712387,-7,22,2,-5,3,-3,-2,-2
1522235732712387,34,-1,0,-1,22,2,5,1
1522235732721411,-4,8,-2,0,-3,5,13,12
1522235732721411,-48,-12,1,-4,14,-4,7,4
1522235732736451,-4,10,-1,7,-5,-2,-9,-22
1522235732736451,-7,5,1,-1,11,10,11,4
1522235732738457,19,2,-2,1,-8,-2,9,25
1522235732738457,23,1,-2,-6,-25,-17,-19,-36
1522235732758510,-20,-12,0,13,50,7,7,5
1522235732758510,-10,5,5,20,4,2,-6,7
1522235732760515,7,-1,2,-5,4,3,-2,3
1522235732760515,9,1,-2,-2,-2,-1,17,9
1522235732772547,-6,-8,-3,6,12,3,1,0
1522235732772547,20,4,-1,-8,4,-1,-5,-4
1522235732781571,-34,-2,3,18,-1,-2,26,-5
1522235732781571,-17,-7,-4,-8,5,5,-18,3
1522235732797614,7,-1,0,-1,-7,-3,2,16
1522235732797614,33,10,2,0,5,4,-4,-10
1522235732798616,36,11,1,-5,-7,0,0,1
1522235732798616,-78,-49,-5,1,-7,6,5,7
1522235732818669,35,15,-2,1,-8,-5,-4,15
1522235732818669,-27,-4,-3,-17,-32,-1,11,1
1522235732820675,14,6,-1,5,9,-1,-7,-2
1522235732820675,48,21,-2,-2,24,2,1,0
1522235732832707,6,-6,3,-8,-15,-2,2,-10
1522235732832707,-7,7,-2,3,-2,-2,-6,-1
1522235732841731,-46,-43,-7,-5,-9,-7,-14,-5
1522235732841731,2,14,-3,-11,-9,0,-1,-3
1522235732855768,12,-8,-1,13,11,2,8,7
1522235732855768,-9,20,5,4,15,1,2,-10
1522235732862787,-6,-18,-1,-9,2,2,-2,-14
1522235732862787,51,4,-3,9,2,-2,11,16
1522235732878829,-39,17,-4,-12,-17,-1,-9,-6
1522235732878829,-1,-13,-2,-4,0,1,-4,-4
1522235732880835,3,3,-1,0,5,-2,3,3
1522235732880835,4,8,4,-2,-5,0,8,7
1522235732892867,25,6,-5,-1,-7,-6,1,-10
1522235732892867,-20,-20,-5,2,4,-3,-5,6
1522235732901894,-20,4,2,0,2,2,4,-3
1522235732901894,12,7,0,5,3,-3,-10,-1
1522235732916931,-22,0,2,-7,2,1,2,7
1522235732916931,8,1,-2,4,-3,1,-5,-2
1522235732917933,37,-1,4,6,-4,-1,-1,-5
1522235732917933,-33,-1,-3,-5,3,-4,-8,-9
1522235732938989,65,-16,-4,-2,-5,-1,-2,5
1522235732938989,-9,0,6,6,-1,3,6,6
1522235732940997,23,14,-6,-6,-2,-4,-1,2
1522235732940997,-23,-8,1,1,-4,8,-6,-12
1522235732953027,-10,7,3,1,4,-4,-6,-5
1522235732953027,8,-12,1,-7,-3,-6,-6,4
1522235732962051,21,7,-5,0,-7,-4,9,9
1522235732962051,-58,-5,7,5,-10,-4,-7,-11
1522235732976088,-31,3,-5,-2,8,4,1,0
1522235732976088,-11,-7,1,-3,5,2,9,0
1522235732978093,-37,-38,-5,6,0,-1,-7,-5
1522235732978093,48,21,-4,2,15,2,-1,-3
1522235732999149,23,17,8,-6,-16,-11,-2,-5
1522235732999149,-30,19,-2,0,7,-2,2,11
1522235733000152,-16,-18,-8,0,4,-2,-8,-6
1522235733000152,1,-33,8,-3,-5,3,-1,3
1522235733012184,19,6,-3,5,-2,0,-1,-4
1522235733012184,-6,12,-5,-9,-7,-3,0,1
1522235733021208,-8,9,-1,-5,-6,2,-2,4
1522235733021208,-4,-11,-7,3,8,-3,3,7
1522235733036248,-18,12,7,-4,-11,-6,-1,-7
1522235733036248,42,-16,5,2,0,3,0,-1
1522235733038253,-36,21,-2,1,0,1,-2,-4
1522235733038253,4,-3,-2,-2,-11,-5,-5,-1
1522235733059309,-8,-27,-5,7,-6,0,-4,-7
1522235733059309,-12,-13,-9,-3,-2,-5,-6,-9
1522235733060312,27,15,3,5,9,7,-5,-10
1522235733060312,-20,5,-1,-1,-3,0,4,-6
1522235733081367,-12,-10,5,-5,-12,-6,-3,4
1522235733081367,7,2,-6,2,5,-3,0,-4
1522235733083373,8,14,5,-3,6,-6,-9,7
1522235733083373,0,-4,-5,10,-9,5,0,1
1522235733095405,2,24,-5,-3,-2,2,7,4
1522235733095405,21,7,0,2,0,-3,-2,-4
1522235733102424,-39,-59,-3,-3,0,5,3,-2
1522235733102424,-1,6,1,0,-1,-8,-6,-3
1522235733119469,-17,-32,-8,2,2,-5,-1,-1
1522235733119469,-4,7,-6,0,2,4,1,6
1522235733120472,15,36,6,0,1,2,-2,3
1522235733120472,1,-49,-4,-6,11,-1,-8,-3
1522235733132504,-4,8,-1,-8,-10,-4,5,-5
1522235733132504,11,1,-4,-6,-1,1,-1,-7
1522235733141528,14,3,-2,-5,-4,-2,1,0
1522235733141528,-7,22,12,5,2,-2,1,-3
1522235733155565,2,25,3,2,4,4,-1,5
1522235733155565,-27,-53,0,2,-1,-3,-6,-14
1522235733164589,30,16,-6,9,5,1,5,10
1522235733164589,24,23,8,-6,-4,-5,3,-6
1522235733178626,-28,-37,-1,-13,-6,1,-1,3
1522235733178626,7,19,15,8,1,1,4,8
1522235733180631,-6,3,-8,-9,-12,-7,-6,-23
1522235733180631,4,13,-11,-8,-9,-1,-5,-15
1522235733192664,10,13,10,-12,2,-3,-2,-4
1522235733192664,-1,-18,6,32,5,4,4,7
1522235733201688,-5,-8,1,-11,-19,-3,-6,-3
1522235733201688,14,13,-5,4,15,3,-2,3
1522235733215725,-14,-9,-8,0,-3,-1,2,-9
1522235733215725,13,10,0,-2,4,0,13,13
1522235733222744,24,4,-2,-4,-16,-4,-6,11
1522235733222744,-2,-7,-2,-1,-5,-3,-1,-5
1522235733238786,16,16,0,8,5,2,-7,13
1522235733238786,13,23,-13,-13,-11,0,-6,-1
1522235733240791,9,2,9,7,11,-2,3,0
1522235733240791,-12,-37,-10,-10,-7,-2,-3,2
1522235733252823,22,-2,1,6,7,-2,0,-7
1522235733252823,-55,15,-12,-12,-4,-3,-6,-23
1522235733261847,46,12,11,1,5,2,0,7
1522235733261847,7,-18,-3,11,25,3,-4,7
1522235733275885,8,-12,-2,2,-2,1,7,8
1522235733275885,-13,-5,-4,-6,-6,-6,-3,-26
1522235733282904,-22,7,-4,-2,-7,-2,7,-4
1522235733282904,2,8,0,-2,-11,3,-3,22
1522235733298946,-6,1,-4,-9,-12,-2,2,-3
1522235733298946,-10,-29,3,2,5,0,7,-4
1522235733300952,-2,-4,0,0,6,-4,-2,-3
1522235733300952,32,8,4,7,9,4,4,8
1522235733321005,-33,-9,-5,1,1,3,6,13
1522235733321005,33,16,-4,-11,16,0,-1,0
1522235733323010,-17,-5,1,-20,-20,-4,2,-2
1522235733323010,9,4,-7,0,0,-5,-2,-14
1522235733336045,-5,-6,-3,0,3,1,-6,-13
1522235733336045,-1,19,3,-1,-2,-3,-3,5
1522235733343063,-12,-10,2,3,11,4,6,6
1522235733343063,-17,7,-5,-3,-3,0,-2,-3
1522235733359106,25,-8,0,-1,6,-1,-2,7
1522235733359106,0,-1,2,-2,-7,0,-1,6
1522235733360109,-49,2,-4,6,-1,-3,-19,-13
1522235733360109,9,13,3,-10,-17,-4,8,7
1522235733381164,-21,-9,-2,4,1,1,16,10
1522235733381164,20,16,3,-3,-4,-1,-3,-8
1522235733383170,13,-29,-3,12,10,1,-3,-7
1522235733383170,-21,0,-1,-17,-38,-7,-6,-1
1522235733396204,7,-8,-5,28,29,6,-9,-21
1522235733396204,-6,2,4,-10,-18,2,7,15
1522235733402220,-10,-1,-1,11,30,6,4,1
1522235733402220,2,-1,5,4,5,-1,-1,-1
1522235733419266,25,10,-2,-10,-5,-5,6,8
1522235733419266,-12,-16,-7,-4,10,3,-8,3
1522235733420269,-4,2,5,2,-6,1,5,-12
1522235733420269,22,38,-1,-5,-4,-3,10,-4
1522235733441324,6,-31,0,-4,-3,-2,-11,0
1522235733441324,-14,-47,-5,5,5,-2,-12,-13
1522235733443330,-18,-1,-4,-7,-8,-6,19,5
1522235733443330,9,-12,-1,2,15,2,9,15
1522235733455362,-8,26,3,-5,-12,-2,-9,-8
1522235733455362,5,-14,-2,-3,-7,-3,-9,8
1522235733464386,9,6,0,-7,-18,-1,-7,4
1522235733464386,-18,-9,-2,-5,-1,0,-7,-21
1522235733479426,-43,12,1,5,2,1,-4,-1
1522235733479426,19,18,-5,-3,-12,4,11,13
1522235733480428,13,-23,5,5,1,-2,5,3
1522235733480428,-19,-9,-4,-4,3,4,-2,-3
1522235733501484,-15,-13,-1,-9,-6,-3,-9,0
1522235733501484,-15,10,-1,1,-1,-6,-5,-3
1522235733503489,1,7,-3,-9,3,0,3,-2
1522235733503489,4,11,0,-3,-3,-2,-6,25
1522235733515521,5,-44,-3,1,1,2,15,-21
1522235733515521,-18,7,2,-5,-16,-3,-10,-12
1522235733524546,-3,6,-5,-1,7,-1,-6,15
1522235733524546,10,13,4,5,-8,-4,2,-4
1522235733538583,35,-10,-12,-8,-5,-4,-15,-6
1522235733538583,-20,-4,2,-14,-10,0,14,4
1522235733540588,6,-12,-1,4,8,-3,-8,-7
1522235733540588,-21,12,4,9,19,3,4,-9
1522235733561644,21,2,0,5,4,0,-1,4
1522235733561644,2,-16,-7,-3,-12,-4,-5,1
1522235733562647,1,5,-5,0,2,0,3,-1
1522235733562647,-20,6,13,0,-11,1,-3,0
1522235733574678,36,0,-5,-5,-4,-4,-3,7
1522235733574678,-22,16,3,6,31,-2,-2,-5
1522235733583703,4,-19,3,-5,-11,-1,-8,2
1522235733583703,17,-1,-5,2,7,1,-1,-6
1522235733598742,-7,5,-2,-6,-11,0,5,7
1522235733598742,22,7,-1,3,-6,12,3,5
1522235733600748,2,13,0,1,-15,-10,7,1
1522235733600748,-7,-21,-5,-2,-4,-5,-3,-7
1522235733621804,-25,-2,6,5,28,0,-7,-3
1522235733621804,27,13,0,-4,4,-1,16,5
1522235733622807,2,15,-5,4,-1,3,-5,-13
1522235733622807,-38,-46,9,-3,-4,-4,-5,0
1522235733634839,-16,24,-6,-7,-6,0,0,6
1522235733634839,20,0,3,-5,-3,-4,1,-1
1522235733643863,15,31,6,4,11,-1,-8,-6
1522235733643863,-3,-58,-14,-3,8,-3,0,-3
1522235733658902,-1,4,0,-2,-16,0,7,5
1522235733658902,11,-10,0,-1,9,-5,0,11
1522235733660908,-4,37,10,8,-13,5,5,1
1522235733660908,-2,1,-11,-3,-1,-1,-13,-1
1522235733681964,-4,20,10,5,-3,0,1,-3
1522235733681964,-4,-10,-6,3,10,0,-7,-3
1522235733682967,4,-16,-2,0,-5,-2,-6,1
1522235733682967,18,-4,-4,-1,0,4,9,4
1522235733694998,1,-2,-5,-14,6,-4,-2,0
1522235733694998,-11,11,5,0,-1,4,-4,-4
1522235733704022,-30,-10,-5,1,9,1,3,-8
1522235733704022,17,24,6,-8,-14,-3,-7,-2
1522235733719062,-33,-13,1,5,7,2,1,-1
1522235733719062,12,12,4,-2,-13,8,-6,-1
1522235733721068,3,-22,-11,-2,2,-12,2,-1
1522235733721068,-13,12,1,7,-11,-3,11,-4
1522235733741121,13,0,-6,-4,-9,-5,-5,-4
1522235733741121,-4,-11,1,3,-8,-3,0,1
1522235733743127,-11,-2,-3,5,9,4,1,0
1522235733743127,14,3,0,-4,-12,0,4,6
1522235733755159,-2,-16,0,-3,-8,2,23,-8
1522235733755159,-20,5,-3,24,41,-6,-15,-7
1522235733764182,11,-13,0,-5,-7,5,-4,0
1522235733764182,-4,22,-1,0,3,-2,-1,-3
1522235733779222,-10,-5,0,-2,-17,-6,-7,4
1522235733779222,6,4,-4,-14,14,5,9,-10
1522235733780225,3,-22,-2,-3,-6,-3,-3,5
1522235733780225,5,-1,0,12,20,-1,-1,-6
1522235733801281,-14,2,-6,-4,-8,-3,-10,-4
1522235733801281,5,0,2,1,-17,-9,-3,2
1522235733803286,-6,4,-6,-11,-16,-1,-10,-2
1522235733803286,-1,-9,-6,-13,-19,9,0,1
1522235733815318,19,8,5,1,0,-8,2,5
1522235733815318,-10,-3,-6,-7,-23,-7,13,-5
1522235733824342,-4,-4,2,11,18,9,2,6
1522235733824342,-1,-4,-1,8,16,-1,3,6
1522235733839382,-1,13,1,-1,6,-2,-20,-16
1522235733839382,-6,-8,-5,-12,-10,12,9,-4
1522235733840385,-5,-5,-1,-2,28,-8,-5,3
1522235733840385,9,7,1,-9,-19,-17,-15,-2
1522235733861441,-2,1,0,13,25,3,-3,-4
1522235733861441,6,-6,4,0,-9,-5,-8,4
1522235733863446,-3,6,-4,-14,-21,-13,-6,-23
1522235733863446,1,2,-1,0,-15,11,20,10
1522235733875478,0,-2,1,13,24,10,5,0
1522235733875478,6,14,-4,0,-5,-5,-3,-7
1522235733884502,7,-28,0,12,6,2,-4,6
1522235733884502,-18,-6,2,6,20,-20,-12,-21
1522235733898539,10,1,-3,-12,-22,4,5,6
1522235733898539,12,10,4,9,26,7,-7,11
1522235733900545,1,-14,-4,-1,2,-9,21,6
1522235733900545,16,11,-4,-8,-5,-1,-3,2
1522235733921603,-26,-8,5,2,-3,3,0,-9
1522235733921603,-11,10,-2,1,-10,-20,-23,-11
1522235733923606,-5,-5,-3,-7,-5,5,3,-1
1522235733923606,-10,-12,3,2,3,10,5,6
1522235733934635,48,13,3,-1,11,-2,-2,9
1522235733934635,-2,-5,-3,2,-2,5,11,1
1522235733943659,2,27,-4,-5,-16,3,-9,-8
1522235733943659,-48,-11,-8,-9,9,-5,-4,-7
1522235733958699,-15,-29,8,0,-16,-2,-2,3
1522235733958699,46,1,3,-17,5,-6,0,6
1522235733960705,-11,1,-3,-1,21,-3,-6,1
1522235733960705,-12,9,-1,13,4,13,-1,3
1522235733981760,-12,6,-8,5,14,-2,-4,-1
1522235733981760,-25,-21,-2,-15,-15,-23,-6,-3
1522235733982764,28,19,4,0,-10,18,22,9
1522235733982764,16,4,0,-6,6,15,15,4
1522235733994795,31,-6,0,1,-19,-7,-2,-7
1522235733994795,-63,-9,0,2,1,-4,-3,5
1522235734003819,-15,1,-8,-2,-15,-4,3,-4
1522235734003819,5,-10,-3,2,1,-5,-42,-4
1522235734017857,18,10,-4,-2,-6,2,5,1
1522235734017857,11,-1,-1,5,-6,5,-2,4
1522235734032897,13,8,5,8,4,0,4,-4
1522235734032897,4,-14,-3,-4,-3,5,12,8
1522235734041921,-59,-11,-14,-1,-4,-5,-10,-14
1522235734041921,11,16,12,1,-2,-1,-8,11
1522235734042923,-7,-16,-3,5,2,5,-7,4
1522235734042923,44,10,0,-19,-24,-13,1,-7
1522235734054955,-5,9,-2,14,55,4,-16,-22
1522235734054955,-6,-5,-5,2,0,6,19,12
1522235734063979,19,26,3,4,1,0,-3,-2
1522235734063979,-47,-17,-1,-2,-4,4,2,-9
1522235734078016,24,13,2,-13,-20,-8,9,21
1522235734078016,0,-6,-2,4,-6,1,-3,-16
1522235734085035,-2,-12,5,9,11,-6,-17,22
1522235734085035,-10,7,-3,-5,12,-5,-8,-61
1522235734101078,22,-4,0,-4,-3,3,-1,5
1522235734101078,-20,1,-2,3,0,-20,2,6
1522235734103083,15,3,-4,-6,-9,3,-1,-1
1522235734103083,-21,-1,-5,4,0,-1,5,13
1522235734115115,30,2,7,-3,-1,8,7,5
1522235734115115,17,14,-1,1,3,3,1,-19
1522235734124139,-9,-19,1,-7,-5,-3,-4,-12
1522235734124139,3,2,-5,2,4,-3,-3,4
1522235734138176,-7,-18,9,-6,-7,-9,3,4
1522235734138176,28,16,1,3,0,6,-2,-6
1522235734145195,-37,-18,0,-2,-4,-1,1,-3
1522235734145195,43,22,4,5,4,4,6,12
1522235734161238,-49,-12,-15,-1,-11,-3,-4,5
1522235734161238,-14,-1,-1,-6,0,6,1,7
1522235734163243,31,-38,0,-2,3,0,-2,-2
1522235734163243,4,-8,0,-1,-7,-7,-4,12
1522235734175275,-1,27,-5,-4,-4,1,2,-12
1522235734175275,0,-15,-9,-3,-3,1,-7,11
1522235734184299,-1,24,6,-1,-1,0,6,0
1522235734184299,12,11,4,5,-4,-3,2,11
1522235734198336,29,-17,-5,-5,-9,3,4,13
1522235734198336,-29,-28,1,4,10,0,-7,-24
1522235734205355,-37,4,-7,-14,-19,-1,-3,-10
1522235734205355,-24,-10,5,13,36,3,18,5
1522235734221397,22,20,-3,-1,-1,-5,-19,-16
1522235734221397,-1,-26,-4,0,-3,-5,6,0
1522235734223403,32,23,5,-1,0,8,0,5
1522235734223403,-16,17,8,-2,-10,-9,1,3
1522235734244458,-46,-16,-2,1,-2,-1,4,7
1522235734244458,25,1,-7,-3,2,1,-3,5
1522235734245461,16,26,-1,3,0,-5,-2,-8
1522235734245461,-21,-53,5,-8,-8,2,4,14
1522235734258496,6,7,10,1,3,1,-4,0
1522235734258496,7,14,0,-4,-8,-1,-11,-17
1522235734265515,-7,32,-9,-1,4,-2,2,-2
1522235734265515,7,-15,7,5,0,3,-6,-1
1522235734281557,-30,-3,4,-1,-2,-2,-1,-3
1522235734281557,21,-6,-3,0,-1,1,2,-2
1522235734283563,6,2,-1,1,7,-4,-3,-5
1522235734283563,3,10,-12,-14,-19,-3,-1,-9
1522235734303616,-5,-6,-1,15,16,1,4,-2
1522235734303616,-15,-31,-3,-8,-28,0,10,4
1522235734305621,-16,-8,-2,3,19,-1,-2,-8
1522235734305621,21,9,0,1,0,-2,-11,-3
1522235734318656,20,10,0,-13,-13,1,6,8
1522235734318656,-28,28,-3,-2,15,3,-1,16
1522235734324672,-25,-40,7,4,-10,-2,-2,5
1522235734324672,17,-7,-4,-4,-7,-7,-3,-20
1522235734341717,24,5,-5,-2,3,1,-1,1
1522235734341717,-20,15,-6,-2,4,-3,-2,0
1522235734342720,-27,-13,6,-5,-12,-4,1,-6
1522235734342720,21,18,2,1,8,1,-1,7
1522235734363776,-6,-14,2,1,-3,-4,-9,-3
1522235734363776,-1,-1,-2,-4,-4,-3,0,-4
1522235734365781,27,-28,-9,-3,-10,-5,-4,-1
1522235734365781,-51,-6,-4,3,4,2,-6,3
1522235734377813,-8,9,9,0,-2,0,5,0
1522235734377813,24,1,2,10,3,3,1,2
1522235734386837,43,25,2,-14,-25,6,6,3
1522235734386837,-13,-10,-4,8,33,-3,-6,2
1522235734401877,0,2,-6,-4,-5,-4,-3,7
1522235734401877,-15,-6,2,-1,-9,2,-4,-17
1522235734402880,-17,6,-5,-20,-22,-5,-1,-6
1522235734402880,-2,3,-11,14,35,5,-1,-5
1522235734423936,23,8,10,1,-1,0,-5,-2
1522235734423936,-4,-27,-4,1,4,-3,0,2
1522235734425941,2,4,0,0,5,1,-2,-3
1522235734425941,-38,10,-7,-1,-12,0,-1,1
1522235734437973,-6,-6,8,3,4,-3,-1,0
1522235734437973,-10,-10,-10,9,2,-2,-5,-5
1522235734444991,7,-19,9,6,12,1,2,1
1522235734444991,5,16,-9,-12,-19,-2,-1,1
1522235734461034,1,5,-7,3,0,1,1,-6
1522235734461034,-37,-4,3,-13,-12,-3,-5,1
1522235734463040,5,2,-9,0,1,-2,-7,-3
1522235734463040,56,19,1,-6,-8,-5,3,12
1522235734484096,-53,-14,-12,-6,-5,0,-3,-9
1522235734484096,9,-12,9,-2,1,2,4,3
1522235734486101,-28,4,-2,7,13,2,11,8
1522235734486101,36,3,4,0,-5,1,-2,2
1522235734498133,10,34,-4,-4,-12,-2,-4,-12
1522235734498133,53,-3,8,-3,7,0,-4,2
1522235734506154,-27,-15,-5,4,11,-1,-11,-8
1522235734506154,11,-6,2,-1,-2,10,3,-1
1522235734521194,-36,-9,-4,-16,-27,-10,9,3
1522235734521194,10,12,2,5,20,1,0,3
1522235734523200,47,21,3,3,-2,-1,0,6
1522235734523200,-49,-29,-7,0,-4,-4,-10,-12
1522235734544255,24,2,3,-7,4,5,2,10
1522235734544255,-17,12,5,-1,-21,1,1,0
1522235734545258,-9,-6,-2,1,12,-3,3,-5
1522235734545258,15,6,2,-14,-11,-4,-1,-6
1522235734557290,-10,-15,-4,17,12,-1,0,13
1522235734557290,0,2,-1,-4,-9,0,-2,-6
1522235734566314,-22,-7,-3,5,11,-4,-4,-12
1522235734566314,9,13,0,-4,-9,-5,-9,-5
1522235734581354,28,-16,-5,-5,-14,-5,5,4
1522235734581354,9,22,2,0,3,1,5,2
1522235734583360,-16,-1,-3,1,-5,-1,-10,-10
1522235734583360,39,-51,-13,-1,22,0,9,12
1522235734604415,-40,-4,12,1,-11,1,-11,-16
1522235734604415,24,9,-7,-1,7,2,-3,4
1522235734605418,-13,11,3,-4,0,-5,-1,2
1522235734605418,1,24,1,-7,-12,-2,4,1
1522235734617450,18,-11,-7,1,38,2,3,3
1522235734617450,-30,-9,-2,-2,-4,-4,-2,-9
1522235734626474,12,-5,0,-1,-13,-3,3,6
1522235734626474,15,4,-2,-3,-26,-2,1,-1
1522235734641514,-24,-2,-5,-1,22,2,-9,-18
1522235734641514,-18,-13,-1,0,0,-4,5,1
1522235734643519,14,-9,-6,-1,-7,3,-2,0
1522235734643519,10,16,15,3,3,-2,-5,-7
1522235734663572,3,6,-5,-4,-26,-1,2,-2
1522235734663572,15,13,-1,-7,26,1,-3,-12
1522235734665578,-6,-24,-1,12,3,1,-7,1
1522235734665578,-14,2,-1,3,-9,5,27,-1
1522235734677610,-2,1,-3,-3,-4,1,-4,15
1522235734677610,-1,5,1,6,17,-1,-3,-11
1522235734686634,21,7,-3,1,1,-3,-9,-6
1522235734686634,-20,-13,3,-4,-2,-1,-10,0
1522235734701674,-14,0,-2,1,2,2,3,6
1522235734701674,-38,-23,-9,-2,-10,-7,-6,-2
1522235734702676,5,20,5,6,-1,1,9,0
1522235734702676,-2,-6,0,-8,10,-3,-1,-1
1522235734723732,20,0,-6,2,-29,-2,9,15
1522235734723732,6,3,5,-7,5,3,-10,-13
1522235734725738,-5,10,0,6,5,-1,5,3
1522235734725738,-14,-1,0,8,8,3,3,2
1522235734737769,22,-12,-1,1,-2,-3,-2,3
1522235734737769,-2,-5,-4,-2,-17,-5,-5,-14
1522235734746794,-13,2,-2,-12,-9,-3,9,-10
1522235734746794,-9,-10,-6,-6,3,-2,-2,-8
1522235734761834,0,17,2,1,4,1,-2,-11
1522235734761834,47,17,2,7,-1,1,6,64
1522235734763839,-14,-26,-8,-5,-2,3,3,-2
1522235734763839,-5,3,-1,5,-4,0,-10,-20
1522235734783892,-3,-9,0,0,10,3,1,2
1522235734783892,-11,9,-3,-4,-4,-2,-5,-4
1522235734785898,3,21,-2,-3,15,2,-1,3
1522235734785898,-21,-32,1,-11,-9,-5,-4,-8
1522235734797929,46,9,0,-6,-27,-6,-2,9
1522235734797929,-19,17,-1,14,34,2,-5,1
1522235734806954,-13,-25,-7,1,-8,1,9,9
1522235734806954,4,29,10,15,2,0,-5,-8
1522235734820991,-5,-19,-4,-8,6,7,7,2
1522235734820991,24,8,5,-5,-3,-6,11,-3
1522235734822997,15,13,4,1,-3,-1,-3,2
1522235734822997,-28,-28,-10,-7,-9,-3,-2,6
1522235734844052,0,20,4,2,-4,-9,-8,-9
1522235734844052,5,-19,-7,-5,-11,3,7,7
1522235734846058,-8,4,-1,-4,-1,-7,-13,-36
1522235734846058,12,-3,7,8,10,1,0,17
1522235734858089,-11,-2,-4,6,8,1,8,-9
1522235734858089,16,-12,-8,-5,-24,1,-1,-9
1522235734867114,-4,11,4,1,-1,-2,-1,4
1522235734867114,19,12,-2,-21,-36,1,-3,1
1522235734881151,6,16,3,20,94,1,-1,11
1522235734881151,-40,-15,-4,-2,-7,2,4,8
1522235734883157,0,3,0,2,-12,-1,-1,9
1522235734883157,9,17,0,1,5,0,-3,-7
1522235734904212,-12,-32,-4,-4,-22,-4,-4,2
1522235734904212,12,13,-1,-7,-8,-2,-5,6
1522235734905215,-15,-21,1,-3,10,-2,-5,-16
1522235734905215,-9,44,0,1,-14,-2,3,1
1522235734926270,4,-25,3,-8,-13,-2,-11,-12
1522235734926270,19,-21,-2,4,3,6,3,9
1522235734928276,-21,-6,-8,-4,-25,-11,-4,-2
1522235734928276,11,15,5,-2,8,-3,-4,-1
1522235734941311,-15,25,1,21,8,-1,-5,-7
1522235734941311,1,-11,0,-7,8,-1,0,-8
1522235734943316,10,-17,0,3,-9,4,-1,17
1522235734943316,-24,-13,-9,1,12,2,5,4
1522235734964372,-15,-3,1,-11,-18,0,3,3
1522235734964372,-4,-5,4,9,6,-3,-2,-17
1522235734965375,1,1,2,0,35,-2,-29,4
1522235734965375,-3,7,-5,0,4,-4,0,4
1522235734977407,2,0,-6,-12,-26,-3,-3,-1
1522235734977407,9,-24,-9,-6,-7,-5,-10,-36
1522235734986431,12,-4,9,1,-8,1,12,-6
1522235734986431,-16,-19,-7,-1,11,-2,2,8
1522235735000468,25,4,5,2,8,0,-6,-2
1522235735000468,11,51,9,10,8,1,-2,5
1522235735007486,-4,-16,-13,-9,-12,-1,-1,6
1522235735007486,6,-11,0,0,-5,0,5,0
1522235735023529,-24,-8,-4,-8,-2,-4,0,-3
1522235735023529,-8,-6,-11,-1,-4,-4,4,-1
1522235735025534,7,4,-2,7,-7,-2,3,1
1522235735025534,11,14,12,1,16,6,4,6
1522235735037566,7,-3,-2,-3,-2,-1,3,-2
1522235735037566,-12,16,10,-4,4,-2,-3,3
1522235735046591,-67,-29,-4,6,28,-1,-4,-4
1522235735046591,8,-29,-3,-3,-27,2,-7,-9
1522235735060628,19,20,-9,-8,-11,4,-2,-8
1522235735060628,-15,-21,7,3,17,-5,10,0
1522235735067646,26,41,4,-3,-6,0,-1,4
1522235735067646,-17,-20,-7,0,-7,-3,9,3
1522235735083689,-38,-5,5,-4,-8,-6,-10,-16
1522235735083689,5,-6,-15,-3,-18,0,-10,0
1522235735085694,2,9,7,-7,-4,3,5,1
1522235735085694,-10,6,2,7,4,-2,-2,1
1522235735097726,20,-5,-4,2,-2,0,-7,-11
1522235735097726,-33,11,6,4,-5,0,2,-7
1522235735106750,39,2,-9,-6,-6,-5,7,5
1522235735106750,-28,6,-4,0,5,0,-9,-20
1522235735120787,-2,3,9,3,2,1,7,0
1522235735120787,17,3,1,10,33,1,-1,7
1522235735127806,-29,-22,2,6,1,4,-2,-1
1522235735127806,-11,-2,-4,-2,-2,0,2,12
1522235735143849,1,-4,-7,-10,-11,-1,-3,0
1522235735143849,28,17,2,4,5,-3,1,4
1522235735145854,16,10,-1,-5,-23,1,1,4
1522235735145854,23,4,0,14,28,0,-2,-2
1522235735173929,-15,3,0,2,10,-2,-5,-9
1522235735173929,7,-14,-4,-12,-22,-3,0,8
1522235735175934,-32,-2,1,-4,-2,0,11,0
1522235735175934,32,4,-2,-3,-7,-6,-4,-5
1522235735180947,-29,-10,-2,-1,-3,-3,3,2
1522235735180947,22,15,4,0,-7,4,-8,-2
1522235735187966,-31,-12,4,-2,-3,2,9,-9
1522235735187966,20,7,-3,-4,1,0,-12,16
1522235735204009,-1,11,4,0,10,3,13,-5
1522235735204009,4,-49,-17,-10,-20,-4,5,-6
1522235735206014,4,23,0,-2,8,1,-3,1
1522235735206014,-5,-6,2,2,-3,-1,1,-3
1522235735226067,0,9,-4,-5,-11,-1,-2,4
1522235735226067,-17,-11,2,-6,-4,-3,-8,8
1522235735228073,15,-3,-8,11,9,10,0,-13
1522235735228073,5,-10,-5,-7,-13,-15,-3,3
1522235735241107,15,-1,-7,4,16,-1,-2,5
1522235735241107,35,18,4,2,-13,-1,5,-6
1522235735243113,-20,13,-1,-5,-12,-9,-6,-13
1522235735243113,-36,-40,-2,-2,0,2,-6,-6
1522235735264169,-11,-11,-1,1,-10,5,9,21
1522235735264169,-9,6,4,5,16,-4,-5,-11
1522235735265171,40,20,-4,4,13,-2,-8,2
1522235735265171,9,10,0,-7,-9,2,6,3
1522235735286227,1,-12,2,-5,-7,-4,3,-11
1522235735286227,-30,-3,-4,7,-9,3,-1,6
1522235735288233,27,-32,1,-8,-3,1,0,13
1522235735288233,-12,12,-2,9,15,0,-5,-8
1522235735301267,37,19,-5,-11,-10,-3,3,15
1522235735301267,-37,8,2,8,26,6,3,-6
1522235735307283,-10,-14,2,3,5,0,2,9
1522235735307283,-2,15,2,-2,-8,1,-1,-7
1522235735324329,16,-18,-6,3,13,0,3,1
1522235735324329,-11,-2,0,-12,-30,-6,-9,-12
1522235735325331,2,3,-2,4,7,-5,-3,8
1522235735325331,-1,-17,-6,-9,0,2,1,3
1522235735346387,30,-24,1,3,-12,-1,-3,10
1522235735346387,-56,4,-2,-3,-2,0,0,-14
1522235735348392,-9,-25,-3,-7,-6,-3,16,0
1522235735348392,15,18,1,-3,-10,-3,-38,-44
1522235735360424,-14,7,-4,1,9,-4,-9,-4
1522235735360424,33,0,5,5,-3,-1,2,13
1522235735369449,-4,-18,-6,-22,-35,-5,-1,6
1522235735369449,-2,0,3,19,20,7,7,-6
1522235735384488,16,12,0,2,-10,-9,0,-5
1522235735384488,-59,-14,-3,-1,5,-1,-11,-10
1522235735385491,-18,30,-3,1,-4,2,-10,0
1522235735385491,27,-26,-8,-10,-7,1,23,17
1522235735406547,-30,17,1,1,14,1,-7,-18
1522235735406547,18,-28,3,-8,-11,1,9,23
1522235735408552,9,20,4,11,11,1,-6,-8
1522235735408552,32,13,-3,-2,-6,-5,1,6
1522235735420584,-25,-46,-4,4,2,2,2,-3
1522235735420584,-6,18,-1,-4,-1,0,0,1
1522235735429608,-6,-4,-1,10,8,1,-7,-7
1522235735429608,-13,-6,6,-7,-2,-3,5,3
1522235735444648,31,25,6,1,1,1,4,0
1522235735444648,11,3,-16,-8,-6,-3,-3,-12
1522235735450664,7,-21,14,6,-1,-3,-3,-7
1522235735450664,5,28,4,0,-4,-2,3,0
1522235735466707,-61,-12,-2,3,24,6,2,1
1522235735466707,20,-4,-1,-4,-17,-1,-2,17
1522235735467710,-14,20,-1,1,-10,0,-12,-1
1522235735467710,-6,-17,-3,5,18,0,6,-18
1522235735479741,11,7,-1,-2,3,-2,-8,-9
1522235735479741,-20,-15,-7,0,5,-1,-5,7
1522235735488766,-12,10,0,-3,10,2,9,2
1522235735488766,-9,3,1,-9,-18,-4,2,7
1522235735503806,0,-10,-3,12,-7,15,-8,-3
1522235735503806,25,10,3,9,36,-9,7,1
1522235735505811,10,-1,0,-4,-5,-5,0,2
1522235735505811,-14,12,-1,-1,-8,-1,3,20
1522235735526867,-6,1,0,7,0,-4,16,3
1522235735526867,3,0,-1,-3,2,1,1,0
1522235735527869,-5,-7,-2,-2,11,3,-8,-5
1522235735527869,14,2,-1,-3,4,-3,-7,-2
1522235735548926,12,45,8,-6,-16,-3,1,5
1522235735548926,-43,-59,-8,-6,-9,2,-2,-11
1522235735550932,20,8,1,8,5,-2,1,3
1522235735550932,-15,13,-2,2,-22,2,8,11
1522235735563965,14,-18,1,-3,-11,-5,-1,-16
1522235735563965,9,17,4,1,-3,1,2,18
1522235735565971,35,-1,-6,-1,-6,2,-2,-25
1522235735565971,-57,-17,-4,-7,-20,-3,-7,6
1522235735586024,-2,-2,-2,-6,44,-2,-3,-1
1522235735586024,14,6,3,-3,-6,2,-6,-6
1522235735588029,-29,1,-3,-2,-2,1,3,2
1522235735588029,24,-8,-1,-1,-3,1,0,-1
1522235735600061,8,-11,-6,-7,-18,-6,-13,-5
1522235735600061,-30,-2,-2,2,-8,-1,-2,-12
1522235735609085,16,23,5,4,8,-4,3,-1
1522235735609085,7,-24,1,5,21,-6,-2,0
1522235735624125,23,15,0,6,-8,6,-1,-2
1522235735624125,18,24,2,-7,-13,-1,-1,-2
1522235735626131,-28,-13,-2,6,-3,-1,-1,2
1522235735626131,9,-8,2,-9,3,0,4,2
1522235735646184,-4,-1,-4,-16,-3,-1,-9,3
1522235735646184,-17,25,0,-4,-7,-3,3,3
1522235735648189,-9,-40,-5,-10,-1,0,1,-2
1522235735648189,0,12,-3,-5,-14,-6,-4,4
1522235735660221,9,-5,1,4,31,-2,1,7
1522235735660221,20,7,1,-8,-8,5,0,-7
1522235735669245,9,-9,0,-12,-30,-1,-8,8
1522235735669245,-1,3,0,16,33,7,19,1
1522235735684285,56,-10,-4,0,0,-1,5,17
1522235735684285,-50,-23,-8,3,10,-2,-4,-6
1522235735685288,0,12,4,2,11,-1,-3,-6
1522235735685288,-2,15,2,1,-8,-2,-5,0
1522235735706344,-1,10,-3,2,-13,-2,2,7
1522235735706344,42,-12,-1,6,11,-1,-7,-5
1522235735708349,-30,-2,-3,2,-3,-2,11,-1
1522235735708349,-7,4,1,-2,-5,-2,-5,-4
1522235735720381,-25,8,0,-1,-2,2,3,-2
1522235735720381,28,-15,-5,0,-8,-2,-6,0
1522235735729405,18,-1,-3,-3,-2,-3,-5,-3
1522235735729405,-14,3,1,-2,3,4,-4,0
1522235735744445,-29,-3,-2,-6,-11,-4,-1,-5
1522235735744445,12,-2,8,2,0,-3,-8,-10
1522235735745448,11,22,2,-3,2,-4,-1,6
1522235735745448,-21,1,-4,0,-1,0,2,-10
1522235735766504,28,-36,-10,-1,-6,-2,-2,-3
1522235735766504,-55,-13,4,1,-12,1,5,4
1522235735768509,17,11,-1,0,-6,2,-1,9
1522235735768509,11,-4,-7,2,14,2,-10,-9
1522235735780541,4,1,2,5,-32,-3,2,-1
1522235735780541,-1,28,2,-3,-4,3,2,8
1522235735789565,1,-58,-11,5,11,-5,-8,-27
1522235735789565,-48,1,5,-9,-20,-5,-3,3
1522235735803602,44,0,1,2,20,-1,-4,12
1522235735803602,39,25,-10,2,9,-3,10,5
1522235735805608,-4,25,-4,-4,-10,4,-2,6
1522235735805608,15,-3,12,1,-1,-1,1,-2
1522235735826663,-29,-10,-2,-20,-19,-8,-2,-8
1522235735826663,24,14,-3,11,7,5,0,-6
1522235735827666,-72,-55,-6,0,10,2,0,1
1522235735827666,12,5,-2,-3,2,-2,-3,1
1522235735839698,-20,18,3,-2,-4,3,0,6
1522235735839698,27,-2,-3,-3,-2,-1,0,-3
1522235735848722,27,41,7,3,-2,1,-1,0
1522235735848722,3,-20,-15,-1,2,2,4,-3
1522235735863762,-23,1,5,3,2,0,0,3
1522235735863762,-4,2,8,0,-9,0,3,-19
1522235735865768,1,15,7,-1,14,-2,-3,5
1522235735865768,8,6,0,-2,0,0,6,0
1522235735893842,-7,-33,-11,0,5,4,-1,-9
1522235735893842,-22,-23,-9,-1,-1,-7,-7,-15
1522235735895847,6,11,2,-4,-5,-3,6,4
1522235735895847,1,-12,-2,1,-2,-3,-10,-5
1522235735899858,8,16,0,3,0,1,2,3
1522235735899858,-49,-13,-7,-6,-1,-1,2,8
1522235735908882,12,23,10,-1,-2,6,0,-3
1522235735908882,10,1,-2,-11,-3,-6,-2,4
1522235735922919,-12,16,7,3,-2,-4,-4,-3
1522235735922919,4,-21,-2,-4,-1,-3,-6,1
1522235735929938,-7,-9,-9,4,1,-4,-3,0
1522235735929938,4,1,-1,2,2,4,0,5
1522235735946983,-20,6,0,-7,-2,0,-2,-2
1522235735946983,27,14,1,6,4,-1,4,9
1522235735947986,-5,-11,-4,-2,-12,-4,-4,-15
1522235735947986,7,-1,-1,4,2,2,-3,-1
1522235735960018,-16,-8,-3,-5,4,2,11,0
1522235735960018,4,4,-2,-10,-16,-6,-24,3
1522235735969042,7,-3,7,9,7,-3,5,-2
1522235735969042,3,4,-2,-1,-16,-4,-11,-4
1522235735983079,-14,0,-4,-11,19,1,4,-13
1522235735983079,-8,-5,0,-2,3,1,7,5
1522235735990098,10,-1,-7,-5,1,-1,2,13
1522235735990098,-14,-1,2,0,4,-2,1,-5
1522235736006140,22,4,-2,1,-7,1,-16,-2
1522235736006140,1,11,4,-3,1,-1,6,-5
1522235736008146,-1,-36,-6,3,0,-1,2,13
1522235736008146,-9,14,-4,-3,-1,-1,-1,0
1522235736029202,-17,-54,-8,0,-10,-5,-2,-6
1522235736029202,2,11,3,-2,-1,-1,-3,-9
1522235736030204,38,24,4,0,1,2,3,6
1522235736030204,-19,-8,2,3,4,3,9,15
1522235736043239,-28,7,1,7,-4,-3,-1,8
1522235736043239,-5,-8,-9,-2,-4,-3,-4,-14
1522235736050258,-8,-1,-4,-6,-2,3,3,-6
1522235736050258,16,0,-1,1,9,0,-4,-1
1522235736066301,4,21,-1,0,7,-2,-2,6
1522235736066301,1,-9,4,13,10,4,-1,2
1522235736068306,-1,-6,-4,-1,-8,-8,-5,-2
1522235736068306,18,-4,-1,-2,-1,15,0,-8
1522235736080338,-5,3,-1,-2,-10,-13,5,-2
1522235736080338,7,-1,1,-4,4,-2,3,4
1522235736089362,11,13,-5,-3,-2,-2,-7,4
1522235736089362,46,5,-4,-1,-2,-4,4,-13
1522235736103399,-58,-6,9,4,-2,5,-5,-9
1522235736103399,10,-5,-2,1,1,2,-1,2
1522235736110418,-29,-14,-5,-3,-1,-3,2,-7
1522235736110418,4,9,-4,1,-4,-4,-4,9
1522235736126460,28,5,-2,1,3,2,-3,6
1522235736126460,-4,-10,2,1,-4,3,6,5
1522235736128466,-8,8,2,0,-4,-5,-8,-9
1522235736128466,-5,-56,-2,-10,-5,-3,24,13
1522235736149522,-7,23,0,3,-2,-4,-30,-15
1522235736149522,-23,-1,1,5,-7,-2,2,7
1522235736150525,5,-7,-4,-7,-2,1,-1,-5
1522235736150525,21,18,1,0,-1,-2,-9,-2
1522235736163559,1,3,1,-2,-11,-3,11,10
1522235736163559,15,-1,-3,2,-7,7,2,0
1522235736171580,26,16,4,11,12,-6,-2,-8
1522235736171580,-62,-33,-5,-2,2,-10,-7,-15
1522235736186620,-3,-9,-5,-2,5,4,-2,-10
1522235736186620,-1,3,1,5,8,-2,-3,4
1522235736188625,0,2,-1,-18,-16,3,12,15
1522235736188625,-4,12,1,5,8,0,-9,-14
1522235736208679,-2,1,0,-2,-5,-3,2,2
1522235736208679,17,10,-2,-2,0,-2,11,13
1522235736210684,3,20,1,-2,-4,3,-10,3
1522235736210684,-33,-38,0,-6,-7,-5,-4,-4
1522235736223719,21,6,3,3,7,7,-2,-8
1522235736223719,-21,9,-4,-7,0,-5,-3,-6
1522235736229735,11,-9,-2,2,4,2,-2,1
1522235736229735,-18,12,-3,2,0,1,0,-3
1522235736246780,5,-25,-2,0,-4,-3,8,-5
1522235736246780,9,5,2,-2,6,-1,-4,3
1522235736247783,49,2,0,7,6,3,2,-3
1522235736247783,-63,13,-2,-1,-16,4,-9,-6
1522235736268839,11,-11,-4,1,-11,-3,-8,-4
1522235736268839,-17,1,-4,-2,4,-5,-5,-20
1522235736270844,-15,-2,0,1,0,0,-11,12
1522235736270844,31,13,-2,5,-14,0,16,-16
1522235736282876,-8,-25,-2,-5,9,4,-2,6
1522235736282876,-16,-6,1,-2,-9,-10,-4,-18
1522235736291900,11,-10,-2,3,0,1,3,12
1522235736291900,-32,6,-1,3,8,-2,6,13
1522235736306940,20,16,4,1,1,0,1,-5
1522235736306940,24,0,1,5,2,2,4,2
1522235736307943,-13,4,-3,-8,-4,-3,1,-7
1522235736307943,-46,-25,-3,-3,-2,-6,-2,-2
1522235736328998,-15,11,-2,-2,0,0,1,17
1522235736328998,62,-7,-1,1,11,3,2,6
1522235736331004,-44,21,10,2,-8,-2,-2,-24
1522235736331004,26,-3,-6,-11,-4,-6,-16,1
1522235736343036,2,1,-1,9,10,-1,8,11
1522235736343036,-22,-1,-6,-6,-4,5,-2,10
1522235736352060,1,11,7,-2,-5,2,5,7
1522235736352060,32,11,-2,-6,4,-3,0,-14
1522235736366097,2,-12,9,15,10,5,0,1
1522235736366097,7,41,-1,2,-7,0,5,8
1522235736368103,-35,-68,-7,-9,-15,-4,26,-2
1522235736368103,18,40,6,5,16,0,-1,16
1522235736389158,31,8,-7,-18,-11,-1,1,6
1522235736389158,10,14,12,0,-5,1,-12,-21
1522235736391164,-50,-27,-7,-1,24,-5,-12,-15
1522235736391164,28,-1,-4,-11,-49,0,1,16
1522235736403196,-13,-6,-4,-19,-7,-5,7,-10
1522235736403196,41,5,0,2,-2,1,-4,-14
1522235736411217,-26,10,-4,-12,19,-2,0,12
1522235736411217,28,-7,-1,-1,-2,-1,-17,8
1522235736426257,17,16,-6,1,-25,-15,1,1
1522235736426257,-30,-22,-5,-3,22,2,6,2
1522235736428262,11,0,-1,20,-5,-5,4,13
1522235736428262,-28,5,7,2,13,1,-11,-40
1522235736449318,-2,-13,-1,-3,-8,-8,-14,-9
1522235736449318,2,31,9,0,-7,-9,-1,-4
1522235736450321,-5,-80,-14,-6,-27,-8,-5,-9
1522235736450321,21,11,-1,7,12,10,-19,24
1522235736462353,-7,6,-2,-6,-4,-3,3,-33
1522235736462353,-20,-12,-3,9,-16,-1,3,5
1522235736471378,24,2,-3,3,5,-2,-15,-4
1522235736471378,-3,3,-3,-5,14,-3,13,15
1522235736486417,-12,-15,1,-4,-4,-4,-15,-15
1522235736486417,-4,-6,-2,-18,-16,-6,-1,16
1522235736488422,-5,16,3,8,9,6,3,-12
1522235736488422,50,-4,1,-6,-6,-2,5,26
1522235736509478,-72,-7,-4,6,14,4,2,30
1522235736509478,-9,16,-1,0,-2,0,-3,16
1522235736510481,2,46,6,0,-2,-4,-6,-7
1522235736510481,-6,-27,9,-4,-9,6,2,-15
1522235736522513,-3,-17,-5,7,24,4,-4,10
1522235736522513,-46,-27,-8,6,9,-2,0,-18
1522235736531537,0,16,-7,-8,-8,2,-6,-5
1522235736531537,7,23,3,8,6,8,19,-7
1522235736546577,18,16,1,6,-5,-5,4,-5
1522235736546577,47,-2,2,0,4,1,4,15
1522235736548582,-4,9,1,5,6,0,-4,-8
1522235736548582,-51,-15,-7,-5,4,-7,0,-29
1522235736568635,-4,-5,-3,-5,-6,4,23,-14
1522235736568635,4,-6,0,-6,-1,3,-16,-10
1522235736570641,26,3,1,-4,17,5,2,-13
1522235736570641,16,-8,-3,4,2,-3,-4,16
1522235736582673,2,32,7,-3,-4,1,2,-2
1522235736582673,-22,-21,-9,-9,-15,-6,-5,4
1522235736591697,0,-11,5,0,-10,-15,-2,-4
1522235736591697,-10,-3,-3,-1,5,18,12,3
1522235736606737,11,20,0,2,-3,-1,-3,10
1522235736606737,-20,-12,-2,-10,-14,0,6,-12
1522235736607739,-11,34,5,4,-1,-1,8,14
1522235736607739,38,-20,-4,9,25,-8,-18,2
1522235736628795,-9,-14,4,-1,-1,-1,9,-1
1522235736628795,-11,-6,1,6,14,2,5,-6
1522235736630801,16,5,-2,-5,-5,6,-5,0
1522235736630801,-13,42,4,0,-23,-8,2,7
1522235736642832,-6,-35,-9,-1,1,5,-8,17
1522235736642832,-5,-13,-5,-4,2,-2,-5,-12
1522235736651857,14,1,4,1,5,10,-1,3
1522235736651857,6,-2,5,0,-9,-14,-4,-3
1522235736666897,9,-7,-5,-2,2,-4,-3,1
1522235736666897,-9,13,2,-11,-16,-3,4,2
1522235736667899,4,-12,3,10,13,5,2,2
1522235736667899,-10,2,-3,-9,-30,-4,2,4
1522235736688955,24,8,-7,2,18,2,-7,-11
1522235736688955,18,1,-2,-6,-9,2,-1,6
1522235736690961,-16,-2,-3,-6,-7,-3,2,-4
1522235736690961,-31,-11,-5,0,-6,3,4,0
1522235736702993,-9,6,1,-7,-12,-5,-6,-10
1522235736702993,29,24,-1,11,1,3,-12,-3
1522235736712017,4,-21,0,2,16,-2,15,12
1522235736712017,-21,-47,-3,1,20,6,7,2
1522235736726054,16,-4,-5,-7,-9,-5,-2,0
1522235736726054,8,4,1,1,2,-1,-2,-3
1522235736728059,-36,16,-4,-5,-4,-1,-5,-3
1522235736728059,1,19,-1,4,0,-4,-4,-8
1522235736749115,6,0,2,1,4,3,3,11
1522235736749115,-4,-18,-3,7,5,-3,-1,-5
1522235736751121,32,27,2,2,-2,1,4,1
1522235736751121,-13,14,7,-4,4,-3,-10,-6
1522235736763152,-4,-18,-4,-7,-7,-1,-4,-3
1522235736763152,33,-28,0,-4,-17,-2,7,11
1522235736772177,-66,-7,-6,1,12,2,-11,-9
1522235736772177,-3,-2,-7,6,-4,3,5,3
1522235736786214,5,21,11,7,16,1,-3,-6
1522235736786214,-16,-12,-5,6,12,-3,-3,-2
1522235736788219,40,5,2,0,2,-1,2,0
1522235736788219,-12,0,-3,-5,-6,-4,-4,-8
1522235736809275,-15,1,1,-3,0,-2,-7,2
1522235736809275,11,7,-4,-8,-4,2,15,6
1522235736810278,7,-9,-1,-6,-15,0,3,1
1522235736810278,14,9,-3,-4,-2,-4,-7,-2
1522235736822309,-13,-5,-7,-2,-5,0,-1,3
1522235736822309,-9,13,11,10,27,2,0,-5
1522235736831334,-2,-23,-5,4,-7,1,5,3
1522235736831334,16,21,3,-3,10,-2,-3,-5
1522235736846373,48,4,0,0,-3,2,-4,-1
1522235736846373,-36,-5,3,0,0,-2,-7,-1
1522235736848379,5,10,-6,-8,-9,-5,0,7
1522235736848379,-10,-42,-12,2,11,-1,0,-6
1522235736869435,39,10,4,-1,-1,4,-2,0
1522235736869435,-50,-24,-1,1,-2,-2,-1,1
1522235736870437,-6,0,3,-2,-25,-1,-4,-5
1522235736870437,12,6,0,-17,17,-1,-6,1
1522235736882470,-38,1,-4,-11,-11,-4,4,-10
1522235736882470,20,-5,-2,8,4,3,-2,-6
1522235736891494,10,-6,-1,-7,-10,-1,0,6
1522235736891494,-37,-5,-1,3,-10,-6,-4,4
1522235736905531,0,-8,2,12,17,2,-1,-11
1522235736905531,-9,0,-1,-2,3,10,0,4
1522235736912550,24,8,2,-3,9,-11,-15,-6
1522235736912550,-4,9,4,-1,-4,3,13,6
1522235736928592,-17,-6,3,-1,-6,-6,-5,9
1522235736928592,39,17,-4,-3,-11,-5,-3,-7
1522235736930597,-62,-16,-8,0,-4,2,-7,-6
1522235736930597,41,8,14,-2,0,-4,-6,1
1522235736942629,-29,-17,-3,-3,-6,2,4,-4
1522235736942629,8,23,1,0,4,-1,-2,5
1522235736951654,16,-18,0,-3,-9,3,2,4
1522235736951654,7,12,-4,7,16,1,-1,-5
1522235736965691,1,15,2,0,1,2,-8,2
1522235736965691,17,15,-4,-1,0,-4,3,2
1522235736972709,-14,-6,7,-2,0,-1,1,2
1522235736972709,-12,-4,-8,3,-7,-1,-1,-10
1522235736988752,7,-6,-1,-7,-22,-3,1,5
1522235736988752,-1,4,3,-4,-2,1,-2,0
1522235736990758,6,6,3,7,17,2,-3,-5
1522235736990758,-19,-52,-12,-5,8,1,-1,-13
1522235737002789,7,7,-6,-9,-8,-3,2,4
1522235737002789,-5,23,16,0,-10,-6,-3,-2
1522235737011813,28,-1,-3,4,9,-1,3,4
1522235737011813,5,12,4,-6,-12,-2,3,3
1522235737026853,-12,-6,-6,2,8,-3,-2,-2
1522235737026853,1,-17,-11,-5,-6,-5,-2,5
1522235737027856,24,18,10,0,-5,-1,-4,-2
1522235737027856,-4,1,-6,2,-2,1,1,2
1522235737049915,-50,-9,-2,-4,2,0,1,-6
1522235737049915,4,-9,-2,-1,1,-4,0,-7
1522235737050917,-25,-3,-4,-2,0,-2,-3,3
1522235737050917,27,1,-2,3,-5,-3,-10,9
1522235737071973,2,15,2,-3,0,-1,9,-4
1522235737071973,-34,-15,17,2,4,4,4,7
1522235737072976,18,-10,-5,0,-5,2,2,-4
1522235737072976,8,17,2,-12,-19,-1,-1,-8
1522235737086010,2,9,-1,3,-8,-4,-8,-15
1522235737086010,-10,-16,-15,-6,-3,-4,-2,6
1522235737093029,9,2,4,3,28,3,5,-3
1522235737093029,-44,-9,7,5,-11,2,-2,4
1522235737109072,7,17,-1,-3,-2,5,-7,-15
1522235737109072,-8,-8,-1,-2,-4,-14,-2,13
1522235737111077,-2,-3,-3,-9,-13,-1,3,1
1522235737111077,-12,16,-2,0,6,0,4,0
1522235737131130,43,-15,-3,2,4,1,-4,14
1522235737131130,-30,1,-2,4,-6,2,-2,-7
1522235737133136,-21,-14,-5,0,0,-4,2,-4
1522235737133136,44,7,1,5,-12,-3,1,-5
1522235737146170,35,8,1,-7,-11,-2,0,6
1522235737146170,-21,-11,-4,-3,14,3,-4,-5
1522235737153189,-19,5,-1,2,5,-1,-9,-8
1522235737153189,25,11,-6,-1,5,4,9,2
1522235737169231,-39,-32,11,3,7,-1,2,-1
1522235737169231,11,4,-4,12,32,3,1,-7
1522235737170234,-4,-4,0,0,-28,-5,-3,8
1522235737170234,21,5,1,-15,18,0,-5,4
1522235737191291,-8,11,0,13,10,-2,4,-4
1522235737191291,4,-12,2,-5,-21,-3,-9,-8
1522235737193295,-21,7,0,17,28,3,-4,-8
1522235737193295,3,-21,-7,-18,-8,-7,-4,5
1522235737205327,11,16,1,11,6,2,1,9
1522235737205327,-5,-14,-6,-8,4,4,7,-12
1522235737214352,43,30,1,-11,-51,8,3,16
1522235737214352,-62,-25,1,4,15,-5,-4,-4
1522235737229391,9,3,2,0,2,-3,-4,8
1522235737229391,3,10,-3,-1,-3,-4,-8,-12
1522235737230394,16,25,2,-4,-5,-2,6,-9
1522235737230394,-7,-35,-4,7,-20,4,8,-1
1522235737251450,17,-4,-2,-13,-4,-3,4,10
1522235737251450,-15,5,5,9,5,0,0,5
1522235737253455,-9,-7,-4,-3,-2,-2,-4,-4
1522235737253455,9,15,-3,2,7,2,-5,0
1522235737265488,-5,-2,1,0,-4,-1,-4,-6
1522235737265488,20,-2,-5,-3,-11,-1,-2,5
1522235737274511,2,-18,-5,-9,9,-3,1,-1
1522235737274511,-8,25,2,3,-2,-5,-6,-12
1522235737288549,2,-42,-5,-3,-6,3,5,5
1522235737288549,-19,18,0,-2,-8,2,3,3
1522235737290554,-29,-34,-7,5,9,-1,-5,-8
1522235737290554,38,2,8,11,5,-1,0,3
1522235737311610,2,15,-2,0,-7,0,-3,1
1522235737311610,15,4,-1,1,4,0,-2,-6
1522235737313615,-14,3,-6,-2,-15,-8,-1,-1
1522235737313615,-23,-16,-8,-8,1,1,0,-12
1522235737325647,-3,18,1,-1,7,-4,-7,-6
1522235737325647,1,4,3,-2,-5,0,-1,6
1522235737334671,5,1,2,-3,-17,-8,3,-3
1522235737334671,-3,0,-1,8,43,-1,0,3
1522235737348709,-6,-25,-6,-4,-35,7,2,1
1522235737348709,14,11,5,5,-1,-9,3,3
1522235737350714,9,16,-2,-5,10,1,-6,-9
1522235737350714,-8,-37,-11,-4,-7,-4,-6,-6
1522235737371770,15,-6,4,-2,3,-2,-6,2
1522235737371770,-18,-15,-2,-4,-5,3,4,-11
1522235737372773,24,13,6,12,5,-2,-3,4
1522235737372773,21,15,2,-6,-19,2,2,5
1522235737384804,-56,1,-8,0,24,-1,-1,-6
1522235737384804,13,-17,-6,9,-21,-3,-6,1
1522235737393828,-3,2,1,-5,16,-3,3,2
1522235737393828,-29,3,2,6,-16,0,1,2
1522235737408869,12,7,0,-13,-12,-3,1,13
1522235737408869,21,35,-7,-4,14,-2,-1,-5
1522235737410874,7,-43,-1,0,5,2,-2,-7
1522235737410874,-12,2,2,-8,-9,2,-3,0
1522235737431930,-5,21,4,-2,-8,-6,-14,-9
1522235737431930,2,-1,-2,-4,-3,2,14,17
1522235737432933,41,0,-4,-8,-2,1,1,-4
1522235737432933,48,23,9,8,1,-1,2,-4
1522235737444964,-26,5,-2,2,7,-1,-7,-14
1522235737444964,-13,-23,-5,2,-2,0,-5,2
1522235737453988,-2,6,2,5,6,-1,0,7
1522235737453988,-30,2,13,-6,-6,3,1,-1
1522235737469028,49,8,4,11,41,3,5,6
1522235737469028,-19,1,-2,-6,-8,0,-6,-13
1522235737471034,-26,-8,-6,-6,-13,-4,5,5
1522235737471034,27,21,6,-4,-5,1,5,8
1522235737491087,-6,3,-4,-4,-4,4,0,-10
1522235737491087,4,-14,4,0,5,-3,-2,4
1522235737493092,10,9,-1,1,1,0,-4,1
1522235737493092,-35,5,-6,-4,-4,-1,-8,-2
1522235737505124,0,-19,-4,-16,-21,-6,-1,-6
1522235737505124,27,20,2,14,21,5,6,8
1522235737514148,-65,-55,-6,-13,-17,-4,-4,2
1522235737514148,21,9,-7,2,4,-3,-11,-7
1522235737529188,-18,-11,2,-8,-21,1,8,1
1522235737529188,25,2,-5,-7,-3,1,2,-4
1522235737530191,-16,24,4,-6,2,6,5,7
1522235737530191,-9,-30,-6,12,18,1,2,-7
1522235737551247,2,24,9,6,5,-2,-4,0
1522235737551247,-10,-25,-8,-6,-8,2,0,3
1522235737553252,25,21,5,1,-6,0,3,-2
1522235737553252,2,-11,-6,-3,-3,-3,1,5
1522235737565284,6,-5,-4,7,16,2,1,-3
1522235737565284,22,-1,-3,0,-2,-3,-9,1
1522235737574308,-1,9,-2,-4,5,0,2,-17
1522235737574308,-1,1,-2,-2,-4,-3,-2,-7
1522235737589348,-14,-40,-2,5,14,-1,3,4
1522235737589348,22,5,5,-8,-14,0,-1,2
1522235737590351,-18,-7,-7,13,8,-1,-11,-10
1522235737590351,15,2,-2,-4,-9,-1,6,10
1522235737611406,-23,-9,-2,-3,1,0,3,0
1522235737611406,-4,3,2,2,-1,2,-4,-7
1522235737613412,57,27,-1,-5,1,-5,-12,0
1522235737613412,-11,-52,-6,-5,-17,2,9,10
1522235737625444,-43,-17,-4,6,29,1,-7,-5
1522235737625444,-22,2,-1,-7,4,-2,-4,-13
1522235737634468,32,16,7,-5,-12,1,6,6
1522235737634468,-33,6,2,-3,-1,-1,-4,-1
1522235737649508,19,3,-6,-9,-24,0,2,-1
1522235737649508,-17,-1,-1,3,-4,0,1,1
1522235737650511,-20,-1,6,15,8,-1,-3,-4
1522235737650511,35,12,-3,-3,0,-3,3,-3
1522235737671567,-10,2,-4,-2,2,-1,0,2
1522235737671567,-8,-3,8,4,7,-4,0,-15
1522235737673572,-16,1,-5,-3,-5,-1,1,8
1522235737673572,17,-28,3,-2,7,-1,-1,11
1522235737685604,-3,33,-8,-4,-27,-7,-1,-12
1522235737685604,-4,-5,-1,-6,-5,-2,-2,-3
1522235737694628,-29,-45,-8,-6,-4,0,0,-1
1522235737694628,-2,14,1,-4,0,-2,-4,-5
1522235737708665,26,21,5,2,10,-2,1,5
1522235737708665,4,-6,-6,-1,10,-3,-2,0
1522235737710670,-25,0,1,-14,-24,-3,3,10
1522235737710670,-3,19,3,11,19,-2,-6,-6
1522235737731727,15,-9,4,2,-15,-4,4,2
1522235737731727,-8,0,-6,2,-4,-1,-4,2
1522235737732729,7,-4,-4,-5,14,2,1,8
1522235737732729,5,4,-1,3,-9,0,-1,-2
1522235737744762,7,7,-1,2,6,2,-4,10
1522235737744762,-2,-14,-2,-2,-6,-1,-4,-17
1522235737753785,-26,-12,-5,-14,-17,-8,-4,-7
1522235737753785,31,20,1,13,20,0,-2,-5
1522235737768825,-19,0,3,4,-15,-1,3,-7
1522235737768825,8,2,-6,-5,-7,5,8,14
1522235737774841,-3,-11,1,10,21,12,2,-7
1522235737774841,-9,-2,-4,-8,-34,1,-3,0
1522235737791886,33,8,3,1,15,5,1,9
1522235737791886,-6,15,0,10,3,-1,2,3
1522235737792889,7,3,2,7,0,0,-1,-3
1522235737792889,-1,-8,-5,-3,-10,-4,-5,7
1522235737804921,4,5,-5,-2,-2,-1,-1,11
1522235737804921,-13,-19,8,0,-9,-5,-3,-7
1522235737813945,-7,16,0,-4,15,-3,0,-8
1522235737813945,-23,-15,-4,3,10,0,-5,-11
1522235737827982,-1,-11,0,-6,-2,-4,0,3
1522235737827982,-22,-1,-2,-5,-2,-2,2,1
1522235737835001,17,8,2,4,-4,-3,-2,1
1522235737835001,5,16,3,-9,-8,-4,-1,2
1522235737852046,-6,-16,-3,2,5,-2,-4,-5
1522235737852046,1,5,1,-1,2,2,-1,5
1522235737853049,23,-6,0,14,-1,-2,0,-8
1522235737853049,8,21,0,-2,3,0,6,11
1522235737865081,24,2,-1,-1,1,-3,-2,-8
1522235737865081,-24,-27,-3,0,-15,-1,-7,-4
1522235737874105,1,7,-2,-12,-10,2,-8,6
1522235737874105,-9,-1,2,3,11,-12,4,-12
1522235737889145,49,14,6,-3,-5,2,4,5
1522235737889145,-20,4,-2,2,23,0,4,-5
1522235737897166,0,2,-4,-10,-16,2,-5,1
1522235737897166,-17,6,-5,-2,7,5,4,-3
1522235737911204,-1,-24,-5,-11,-18,-6,-5,0
1522235737911204,20,6,2,1,-2,2,7,6
1522235737913209,-49,-3,0,0,6,-2,-5,3
1522235737913209,-15,-23,-8,-14,-8,2,-5,-6
1522235737925241,-12,-24,-1,8,-11,-4,-5,-6
1522235737925241,27,20,3,0,21,4,-1,9
1522235737934266,-5,-11,-1,5,-3,0,2,-13
1522235737934266,3,13,2,-5,1,-2,-2,-1
1522235737948302,-40,-14,-7,-11,-5,0,0,-3
1522235737948302,23,2,-2,2,-14,-6,-7,-1
1522235737955321,22,3,0,0,4,-2,2,9
1522235737955321,-20,-11,-1,-2,-7,2,0,-6
1522235737972366,23,14,5,6,6,-1,-5,-6
1522235737972366,20,1,-1,-3,-3,1,-1,-2
1522235737973369,-12,-13,-3,0,2,-5,4,-4
1522235737973369,-10,-2,0,7,-4,2,1,11
1522235737985401,-9,0,-8,-4,9,-3,-5,-9
1522235737985401,2,1,2,6,-8,-3,-4,-10
1522235737994425,4,0,-2,-14,-11,2,-2,1
1522235737994425,15,-4,0,3,8,3,11,9
1522235738009464,-18,1,-2,2,-1,-1,2,-8
1522235738009464,-2,-3,-3,-13,-22,-2,-2,8
1522235738010467,-18,-4,0,-8,-19,-3,-5,-11
1522235738010467,0,-1,0,8,28,8,-4,1
1522235738031523,-5,0,0,-13,1,-10,-2,9
1522235738031523,-7,-3,-5,4,-3,-2,4,-3
1522235738033529,6,-5,-1,1,1,-4,-4,-4
1522235738033529,5,2,1,-5,-14,-2,0,-3
1522235738053582,-55,-9,-2,2,16,7,2,0
1522235738053582,-23,4,0,-4,8,-2,-4,-5
1522235738055589,39,11,-4,7,3,-2,6,0
1522235738055589,9,-1,-1,-2,-16,-2,-13,-9
1522235738068621,5,17,1,0,10,4,3,3
1522235738068621,-3,-2,1,-1,3,-1,0,6
1522235738075640,-34,-10,-1,6,16,0,-11,1
1522235738075640,-2,4,1,-9,-23,-5,7,-1
1522235738091683,-10,-10,0,13,4,1,1,-8
1522235738091683,28,12,0,-13,-9,0,3,6
1522235738092686,-8,-7,-3,10,28,3,1,-5
1522235738092686,3,-4,-3,-5,-13,-2,-7,-8
1522235738113742,-5,7,1,4,4,-2,-5,0
1522235738113742,12,-6,0,4,0,3,5,-2
1522235738115748,17,3,1,-1,-5,0,-4,6
1522235738115748,-1,-5,-2,-6,4,-6,-4,8
1522235738128781,-12,-5,-2,1,4,3,7,-5
1522235738128781,-23,1,-4,-4,-8,-1,0,0
1522235738134797,-22,-3,3,-8,-13,-4,-7,-7
1522235738134797,32,5,-4,4,0,3,-1,-1
1522235738151844,22,0,0,-9,-14,-2,-6,8
1522235738151844,-14,-10,-2,5,5,0,-6,-3
1522235738152846,49,14,1,-2,-1,0,14,14
1522235738152846,-70,0,-3,-4,-17,-2,3,1
1522235738173901,0,-18,0,4,-2,0,-2,-5
1522235738173901,-4,4,-3,5,-12,1,-19,-2
1522235738175907,-2,-18,-2,7,26,-6,12,0
1522235738175907,1,25,6,-4,2,-3,0,4
1522235738187939,18,-24,-4,-7,2,-2,4,-2
1522235738187939,14,1,0,15,5,2,-3,-6
1522235738196963,-72,-13,-5,-7,-21,0,5,-11
1522235738196963,20,-6,-2,2,8,1,4,10
1522235738212003,-2,14,-1,-11,-18,-6,-1,5
1522235738212003,11,-2,3,8,13,-2,-4,3
1522235738213006,24,7,-4,-4,-3,1,-10,-8
1522235738213006,-27,13,6,9,25,0,-1,-13
1522235738234061,-4,-24,1,-2,-10,1,-3,1
1522235738234061,6,-19,-4,-7,-4,-2,9,6
1522235738236067,21,16,3,-8,-24,-5,-2,4
1522235738236067,15,-7,-4,-4,12,1,-3,-4
1522235738248099,7,29,2,3,-5,2,-2,5
1522235738248099,-7,-32,-4,-7,9,-3,-5,-7
1522235738257123,6,13,-5,4,13,0,5,-4
1522235738257123,-21,-35,-1,1,-4,2,-6,-8
1522235738271160,20,-1,-6,2,-3,-2,0,-8
1522235738271160,-33,-1,2,-7,-10,-1,-7,-7
1522235738273165,7,17,1,-7,-7,3,9,10
1522235738273165,9,-27,-1,-2,9,1,6,-1
1522235738294221,-15,-5,-2,8,21,2,5,3
1522235738294221,31,13,5,-1,-4,0,-1,-2
1522235738295224,-16,-5,-2,-8,4,-3,-9,-1
1522235738295224,17,16,-6,-1,-7,-3,-4,4
1522235738307256,-38,1,-2,-7,-16,-3,3,-3
1522235738307256,16,-1,-13,-6,-6,0,5,6
1522235738316280,10,-11,10,10,11,3,-2,-1
1522235738316280,5,13,4,3,-10,-4,-5,-2
1522235738331320,4,-18,-7,-2,2,1,-2,7
1522235738331320,-8,9,9,3,3,2,3,-10
1522235738333325,1,-3,-5,-7,-14,-3,-2,2
1522235738333325,45,3,-5,-3,0,0,4,-3
1522235738354381,-79,3,5,0,-6,-4,-10,-12
1522235738354381,-2,16,-3,4,23,-2,5,3
1522235738355384,11,-3,-14,-5,-6,0,-3,-5
1522235738355384,-2,-38,29,4,-19,6,-2,-3
1522235738367416,39,38,-4,-2,-5,-4,-5,9
1522235738367416,-1,-21,-3,-3,-3,-2,2,1
1522235738376440,-25,-10,-2,-1,0,-2,-1,-1
1522235738376440,-12,26,-6,-1,3,-7,-5,-4
1522235738391480,7,-5,-1,-7,0,-3,-2,-4
1522235738391480,-17,9,1,6,-14,1,-3,-2
1522235738393485,32,2,0,7,20,0,-4,1
1522235738393485,-17,4,-5,1,6,0,10,4
1522235738414541,9,-5,1,-12,-13,0,-1,-3
1522235738414541,11,24,3,12,30,4,0,-1
1522235738415544,-29,-26,0,4,3,2,-7,2
1522235738415544,19,9,-2,-5,-10,-1,-7,6
1522235738427575,-3,-11,-7,-8,14,-1,6,-14
1522235738427575,-1,-1,3,5,0,-1,8,2
1522235738436600,9,23,7,1,-5,0,6,9
1522235738436600,23,-5,0,5,8,0,-5,-3
1522235738451640,1,13,1,2,-13,-2,-3,3
1522235738451640,-27,-36,-10,-13,4,0,-7,-1
1522235738453645,22,14,-1,2,7,1,9,-2
1522235738453645,-15,2,8,-5,-9,-3,-6,-10
1522235738473698,5,20,-4,6,8,3,4,15
1522235738473698,4,-1,15,2,-3,1,5,-4
1522235738475704,1,14,-7,-3,-5,6,-7,0
1522235738475704,-34,-36,-16,-4,12,-14,-7,-3
1522235738487735,10,-7,-2,5,-1,-4,6,-3
1522235738487735,-15,0,1,-10,-1,-6,-1,-1
1522235738496759,7,-8,-2,-4,-6,0,2,4
1522235738496759,-2,-12,-11,-4,-5,2,3,-5
1522235738511800,3,3,10,6,-4,1,-11,-4
1522235738511800,10,7,-1,0,22,3,2,3
1522235738512802,-7,6,4,0,-6,1,-2,-5
1522235738512802,15,26,-7,-2,-4,0,-3,-1
1522235738533858,9,-42,0,0,-6,0,10,3
1522235738533858,5,23,2,-2,-15,-2,1,5
1522235738535864,31,-6,-7,1,1,-1,-5,-10
1522235738535864,-6,6,6,0,8,0,-2,6
1522235738547895,7,11,-1,1,4,-2,-8,-3
1522235738547895,-6,-8,-9,-4,-10,-4,0,5
1522235738556919,-21,-2,6,-1,-6,-6,-6,-3
1522235738556919,-4,-3,-4,-3,-10,2,0,3
1522235738571960,18,15,2,17,10,5,-7,-5
1522235738571960,-16,-20,-5,12,11,0,-4,-3
1522235738572962,4,1,-5,-2,-6,-3,3,2
1522235738572962,-12,-1,4,6,9,0,0,3
1522235738594018,-59,3,-1,-3,-5,-3,-2,-11
1522235738594018,5,1,-3,-4,-16,-2,-6,-10
1522235738596023,-7,-11,-1,7,11,0,2,-2
1522235738596023,18,0,4,2,-6,3,3,9
1522235738608055,6,11,-4,-8,5,0,2,-3
1522235738608055,-31,0,1,-3,-7,7,-7,-15
1522235738617079,2,-26,-5,-8,-4,-11,-6,0
1522235738617079,31,15,-15,-3,0,-1,3,-4
1522235738631118,7,2,14,-5,-4,-6,-2,-4
1522235738631118,-5,0,-6,-9,-7,-2,2,-4
1522235738633122,10,-2,4,1,2,1,0,4
1522235738633122,-22,0,-8,1,-4,0,-6,-4
1522235738654178,-4,-18,-4,1,2,2,1,7
1522235738654178,23,10,-2,-1,-2,-2,-4,2
1522235738656183,-7,11,4,-1,0,1,-8,-8
1522235738656183,-9,-4,-4,-3,-3,-3,4,0
1522235738667212,0,-3,-1,1,2,3,3,2
1522235738667212,30,2,3,-15,4,-5,9,7
1522235738676236,-65,-10,-5,9,-18,-4,-1,-2
1522235738676236,-2,-4,2,2,8,4,-5,-4
1522235738691276,15,2,0,-1,4,-7,-4,16
1522235738691276,-26,-11,-9,-16,-17,-2,-5,-32
1522235738693282,25,25,0,18,34,3,0,6
1522235738693282,3,-9,6,-9,-17,-7,4,-2
1522235738714338,-15,-4,-4,-4,-7,2,-1,-2
1522235738714338,7,-8,-4,6,2,-1,-2,9
1522235738715341,15,-2,-4,-8,-7,0,-3,-1
1522235738715341,0,19,10,0,-7,-1,-9,3
1522235738727372,-9,-17,-7,1,2,-1,1,-3
1522235738727372,-3,-8,1,-12,-22,-3,-3,-11
1522235738736396,-17,-10,1,1,4,2,8,-4
1522235738736396,-25,-16,-6,-7,-29,-4,-7,-3
1522235738751437,18,17,1,0,23,8,7,13
1522235738751437,3,11,2,21,18,-1,-2,-3
1522235738753442,37,-8,0,-5,-17,-10,-4,3
1522235738753442,-58,-4,-2,-10,6,1,6,-4
1522235738774497,-1,0,-1,2,-4,-2,-3,-9
1522235738774497,-10,-3,-1,-7,-31,2,8,17
1522235738775500,8,11,2,-1,16,1,-11,-7
1522235738775500,15,-1,-2,8,0,0,5,-6
1522235738787533,12,-1,-3,-11,-15,-1,-8,-3
1522235738787533,0,-2,3,13,12,-3,1,8
1522235738796556,2,5,-5,-11,-24,-4,-2,0
1522235738796556,14,-19,-4,3,23,1,-8,-3
1522235738810593,-14,19,0,-3,-2,-5,8,-6
1522235738810593,24,17,6,1,11,1,-4,3
1522235738817612,-18,-47,-9,-3,0,1,6,12
1522235738817612,-4,3,-1,-1,-4,0,-1,-4
1522235738833655,21,-4,-3,8,17,-2,-5,-4
1522235738833655,-17,6,4,-1,15,-5,-6,-4
1522235738835660,13,2,2,3,4,2,-7,-6
1522235738835660,20,5,-2,3,17,2,14,17
1522235738847692,3,4,-2,-3,-1,-1,-9,-19
1522235738847692,-23,-4,-3,0,-14,-1,-1,-3
1522235738856716,-11,2,-1,-5,-16,-1,6,-4
1522235738856716,16,5,-3,7,23,-1,7,-2
1522235738870754,7,-4,-3,1,-12,-2,0,12
1522235738870754,-3,-11,0,-4,12,-3,-6,-5
1522235738877772,-6,6,0,-4,10,2,-1,-9
1522235738877772,20,19,4,3,-5,3,-1,1
1522235738893815,2,-22,-3,-4,-3,-4,-1,-7
1522235738893815,-3,-32,-12,-9,0,-2,-2,3
1522235738895820,5,25,8,3,4,-1,3,9
1522235738895820,-7,-19,4,-7,4,1,-3,-9
1522235738907852,-7,1,0,-6,-5,0,-9,-5
1522235738907852,-16,7,-1,-1,-13,3,9,8
1522235738916876,8,29,7,-2,3,0,-1,8
1522235738916876,-7,-48,-8,4,-8,-3,-7,3
1522235738930913,32,0,-1,-4,-13,-2,6,10
1522235738930913,-17,4,-2,18,8,-2,-4,-12
1522235738937932,-1,20,-3,-2,30,2,-1,-2
1522235738937932,-31,0,9,1,-10,-5,-3,-5
1522235738953975,-10,-13,-5,8,9,-2,-3,-5
1522235738953975,18,21,3,-2,-17,-1,-3,2
1522235738955980,4,-17,1,6,16,2,1,-2
1522235738955980,4,1,-8,-6,-8,0,0,-1
1522235738977036,18,-5,-1,-7,-1,2,6,4
1522235738977036,-29,11,-8,0,-5,1,2,-1
1522235738978039,-22,-20,10,-4,-2,-4,-5,-1
1522235738978039,12,-5,-3,-3,-17,0,2,11
1522235738991074,-3,9,-2,-3,-4,1,-9,-6
1522235738991074,12,-32,-4,-2,5,3,5,3
1522235738998092,-4,0,-7,-6,-19,-2,-3,-4
1522235738998092,2,12,8,3,4,-1,1,-5
1522235739014134,-11,-3,-5,-4,-12,1,1,3
1522235739014134,13,4,3,10,7,2,-2,-8
1522235739016140,-9,3,-9,-23,-36,-3,-3,0
1522235739016140,13,18,3,12,33,-2,-1,-2
1522235739036193,-18,-38,-3,-2,-12,-2,-4,-5
1522235739036193,-1,1,-3,-11,-4,-5,-4,-6
1522235739038198,2,-9,-3,2,-14,4,6,0
1522235739038198,3,17,-2,-6,-12,-2,-3,-2
1522235739051233,1,8,5,1,9,-6,-5,-1
1522235739051233,-7,0,-2,2,-4,4,-3,-5
1522235739057249,-3,-13,-7,-2,4,-3,6,-4
1522235739057249,-13,-12,-6,-5,-11,-3,2,-4
1522235739074294,4,15,0,2,14,1,2,3
1522235739074294,-11,-16,4,-2,0,1,2,1
1522235739075297,-1,33,-1,2,1,-4,-8,-8
1522235739075297,0,-23,-5,0,0,-7,-1,6
1522235739096353,-3,1,0,4,-6,-1,2,1
1522235739096353,9,9,3,7,6,1,1,-3
1522235739098359,37,16,8,5,-1,0,1,9
1522235739098359,-23,-19,-6,-4,-2,9,-4,7
1522235739110390,2,6,1,2,1,-5,9,-2
1522235739110390,4,12,7,-2,-4,-5,-9,-7
1522235739119414,24,6,-2,5,8,4,8,-1
1522235739119414,-2,-6,-6,-3,-6,-4,8,-3
1522235739134454,34,5,1,-4,5,0,1,5
1522235739134454,-51,-16,-5,15,4,0,-2,-1
1522235739135457,-14,-7,-1,2,5,2,2,-4
1522235739135457,7,32,5,-9,0,2,3,4
1522235739156513,4,-11,-1,8,-30,-6,-2,9
1522235739156513,23,12,5,4,-1,4,-6,-1
1522235739158518,-22,-18,-3,-4,4,3,-8,-10
1522235739158518,-10,15,5,2,2,-7,-12,-4
1522235739170550,18,-9,-3,-13,-17,-1,-3,-2
1522235739170550,5,-2,-1,-8,13,-2,9,6
1522235739179574,40,-8,2,5,-11,3,1,13
1522235739179574,-32,-7,-1,4,3,1,2,-9
1522235739194614,-8,16,0,-2,-1,-3,2,-4
1522235739194614,11,-12,-7,-6,-3,-1,-2,1
1522235739195617,-28,-1,0,-2,12,-2,2,-1
1522235739195617,49,11,0,2,-9,1,-4,-3
1522235739216673,-16,-12,-5,0,8,1,-9,-9
1522235739216673,-22,6,-3,-6,-4,-2,4,6
1522235739217676,13,4,3,0,-1,-4,4,-2
1522235739217676,-10,-8,-2,-4,-7,-4,-11,0
1522235739230710,-13,15,1,2,8,1,-3,-4
1522235739230710,19,-2,-2,-9,-9,-1,-5,2
1522235739238731,-16,-15,-2,11,7,-2,-6,-3
1522235739238731,-16,-11,-4,-3,-1,2,1,-11
1522235739253771,3,14,0,6,10,8,5,-2
1522235739253771,-6,7,2,-11,-5,-3,6,1
1522235739255777,7,-13,-4,2,26,-1,-8,2
1522235739255777,4,14,-2,1,-6,-1,0,-2
1522235739276833,19,-15,-2,-1,4,1,-11,7
1522235739276833,-63,4,3,-6,-12,0,10,-3
1522235739277835,-3,-8,-6,-3,-8,4,16,1
1522235739277835,40,3,-1,-3,-1,-4,-26,-5
1522235739289867,-28,-9,-2,0,11,-2,-12,-3
1522235739289867,14,-2,-1,4,1,6,5,4
1522235739298892,-34,4,0,-6,-9,-7,2,-16
1522235739298892,4,-11,-2,3,7,3,11,8
1522235739313931,13,11,-4,-9,-11,-6,-5,-3
1522235739313931,-25,-36,3,3,3,-4,-8,-5
1522235739315937,11,1,-3,-1,-6,-1,-4,4
