timestamp,emg1,emg2,emg3,emg4,emg5,emg6,emg7,emg8
1522235543782286,13,-3,5,-1,-2,7,5,5
1522235543782286,-1,9,-11,-3,4,2,12,-5
1522235543783289,22,-13,-10,-5,-1,-12,-4,13
1522235543783289,-3,20,8,0,7,-26,2,1
1522235543787299,29,-37,0,4,6,4,8,-12
1522235543787299,6,15,3,2,2,8,-23,-16
1522235543790307,-8,-21,-11,4,-1,-8,5,-5
1522235543790307,1,-7,6,4,7,7,11,14
1522235543793315,82,16,-9,-11,15,-26,-22,-21
1522235543793315,40,1,3,-2,-6,-6,-2,-6
1522235543803342,14,-29,-3,-3,-6,3,19,10
1522235543803342,-4,-12,-7,-2,-7,0,-13,62
1522235543817379,-72,14,3,7,1,7,-21,52
1522235543817379,-47,-38,-7,1,6,-2,8,44
1522235543822392,-20,69,8,0,-3,-7,-15,-22
1522235543822392,28,7,-5,-5,5,-12,1,-20
1522235543834425,-83,-41,4,1,3,9,29,-22
1522235543834425,48,31,5,0,-10,-18,-16,5
1522235543854478,-39,-27,-6,-4,4,5,-11,21
1522235543854478,-40,38,3,-7,-9,2,30,-5
1522235543856483,46,33,-3,-3,-7,15,-13,9
1522235543856483,12,-44,5,3,1,9,12,39
1522235543901603,-50,-1,11,-14,-1,0,2,-26
1522235543901603,2,17,-3,0,4,8,1,28
1522235543902606,-2,6,1,6,0,-2,-14,8
1522235543902606,-15,32,2,-4,6,-16,1,-14
1522235543906616,-12,-39,-5,-38,-2,19,9,-47
1522235543906616,-11,12,1,-18,12,10,-1,-59
1522235543907619,-31,-9,-6,-2,7,8,5,-27
1522235543907619,-50,-14,-4,14,-7,-20,-11,-43
1522235543914638,-7,-14,-2,24,-15,-9,11,-29
1522235543914638,-24,-15,-1,15,-1,0,14,-14
1522235543920653,88,8,0,15,-3,6,-34,-14
1522235543920653,20,7,0,4,0,-3,-16,-36
1522235543929678,11,7,0,4,9,0,-20,-11
1522235543929678,52,3,-1,1,-15,8,30,-9
1522235543942712,-18,-2,-15,-3,3,-13,-14,-13
1522235543942712,34,6,15,1,-10,-2,31,-16
1522235543951737,52,3,4,2,6,6,5,-6
1522235543951737,-32,-9,-5,-5,0,7,-5,-2
1522235543973794,76,-16,-4,-4,-3,-1,9,11
1522235543973794,-86,9,-7,-9,-8,2,2,4
1522235543975800,-2,-6,3,5,0,-9,-8,0
1522235543975800,26,-19,1,-1,0,-1,-1,5
1522235543987832,-14,11,5,-1,0,5,-9,2
1522235543987832,1,-21,-15,-2,1,-9,3,4
1522235543996856,102,-22,4,3,6,9,18,4
1522235543996856,-87,-18,-5,-2,2,-2,-4,-11
1522235544011896,-7,-37,-7,-4,-15,-6,-58,-18
1522235544011896,101,58,-4,-7,14,15,3,30
1522235544012899,-111,-7,-4,0,-6,3,-17,-3
1522235544012899,-50,-1,-4,20,-8,-1,6,-9
1522235544033954,12,-16,-7,18,9,-8,-9,-104
1522235544033954,39,-19,4,12,-8,-3,21,-59
1522235544035960,77,-8,-8,-8,-7,2,4,-66
1522235544035960,33,30,10,-11,-6,0,-2,-29
1522235544047992,-42,13,-1,-13,1,-6,16,-30
1522235544047992,-11,5,-4,-10,4,15,-22,-18
1522235544057016,22,-7,2,-8,-5,-16,8,-17
1522235544057016,-1,-15,-2,-8,-1,-9,-7,6
1522235544072056,8,4,1,-11,-7,-1,22,44
1522235544072056,3,22,15,-3,16,18,0,47
1522235544073058,-82,-25,-7,-2,-6,3,-27,79
1522235544073058,26,24,-4,-1,-1,12,-14,5
1522235544094114,18,45,8,0,-2,-18,17,51
1522235544094114,-24,-28,-5,3,-9,-4,7,54
1522235544096120,-18,28,-4,6,10,8,2,66
1522235544096120,89,-3,3,0,-1,-1,-3,22
1522235544108152,-52,20,3,0,6,8,7,25
1522235544108152,14,-6,-3,2,-6,-9,-13,17
1522235544117176,9,36,10,2,5,18,20,15
1522235544117176,2,-13,-13,-4,-12,-49,-5,-4
1522235544131213,17,0,7,-1,9,28,7,13
1522235544131213,14,-25,-4,-2,-3,-5,-4,11
1522235544133218,-46,12,-7,2,1,-5,12,-7
1522235544133218,12,18,14,4,4,-5,-58,-17
1522235544154274,-11,-28,-15,-6,-6,18,10,3
1522235544154274,-1,5,7,0,-6,-10,-25,-24
1522235544155277,-27,-3,-1,-1,2,11,12,2
1522235544155277,-20,-5,-4,-5,4,3,16,3
1522235544168311,5,-22,-12,-2,-3,0,14,7
1522235544168311,64,-31,8,-1,5,3,-14,-9
1522235544176333,-76,-29,-6,-2,-4,-2,-2,2
1522235544176333,13,4,-9,1,-2,4,3,-5
1522235544191373,-11,27,5,-2,0,5,-11,1
1522235544191373,59,25,6,4,1,-5,4,13
1522235544193378,42,14,1,2,-4,-1,26,-7
1522235544193378,-29,-41,-7,-1,9,-8,-23,10
1522235544214434,-1,32,7,4,3,-10,-2,-11
1522235544214434,50,68,-1,-3,-6,2,30,22
1522235544215437,-5,-43,4,-4,3,11,-21,-36
1522235544215437,-5,30,10,2,-9,7,-4,32
1522235544227468,11,-14,-1,1,4,-15,25,13
1522235544227468,-12,-17,-3,4,-3,-5,-8,-8
1522235544236493,29,3,-1,2,-5,-7,-9,-1
1522235544236493,16,-11,0,1,-14,-3,10,7
1522235544251533,32,59,15,7,11,29,-9,-18
1522235544251533,-66,-49,-14,-12,-1,-17,1,-9
1522235544253538,11,3,4,1,-5,7,-16,-4
1522235544253538,-20,38,9,-3,1,-16,36,0
1522235544274594,-12,-21,-8,-4,-7,-12,2,-3
1522235544274594,-45,-70,-9,-6,-8,-18,-15,-38
1522235544275597,44,54,13,1,4,-19,-9,5
1522235544275597,-1,-6,-6,-2,9,21,19,9
1522235544287629,15,-31,1,3,-6,-15,-2,3
1522235544287629,8,2,-8,0,11,7,-20,10
1522235544296653,-3,-17,-10,-4,1,-3,28,3
1522235544296653,17,-21,-10,-4,1,-3,-14,7
1522235544311693,14,47,13,0,-5,3,-4,4
1522235544311693,1,5,6,6,-7,-13,-12,14
1522235544313698,43,18,-1,4,12,25,21,50
1522235544313698,3,-26,-4,1,-2,-38,0,3
1522235544333751,14,-15,-17,-8,-4,-13,-45,15
1522235544333751,-16,61,18,-5,-6,15,24,48
1522235544335757,-2,23,-4,-2,5,-3,-35,-15
1522235544335757,28,-40,-1,-4,-13,-1,21,18
1522235544347789,80,-3,-3,2,2,8,3,-15
1522235544347789,56,-29,-3,2,-10,-9,-2,-37
1522235544356813,57,32,2,-5,19,5,-14,-10
1522235544356813,-17,12,2,-1,-4,12,20,-11
1522235544371853,-24,-17,0,2,3,-8,8,-8
1522235544371853,-83,-26,-13,-3,-13,-1,-2,-17
1522235544372855,-72,-35,-13,0,-8,-6,5,-13
1522235544372855,-4,23,1,2,7,1,0,-22
1522235544393911,-45,8,-5,-1,5,-2,21,4
1522235544393911,-31,4,3,-4,4,5,-24,-17
1522235544395916,-52,-14,-8,-3,-17,-7,19,-20
1522235544395916,15,17,-2,1,18,10,-4,-10
1522235544407948,-60,-17,-3,1,-5,-10,-28,-10
1522235544407948,-4,15,15,1,-4,8,3,12
1522235544416973,27,17,1,4,-4,-5,-10,21
1522235544416973,-30,3,-1,-1,6,17,23,-1
1522235544431010,-21,-43,1,0,-8,-11,-33,0
1522235544431010,-40,11,3,-2,4,5,7,26
1522235544439031,27,13,4,-4,-11,-16,-32,-1
1522235544439031,42,-2,-4,-4,21,8,-11,-8
1522235544454071,54,-11,-3,-14,-22,-2,24,19
1522235544454071,-61,11,-4,-8,12,0,-3,-37
1522235544456076,77,-13,0,4,-2,-1,11,2
1522235544456076,-1,-1,5,0,5,-7,3,-77
1522235544468108,37,10,1,0,-14,2,-9,-114
1522235544468108,72,-41,-6,7,17,12,4,-44
1522235544477132,-19,10,-3,-2,-15,-16,19,-4
1522235544477132,-7,72,6,1,-8,10,7,17
1522235544491169,-4,-7,-8,-2,4,-4,-35,31
1522235544491169,12,-15,-10,-5,0,9,21,-1
1522235544497186,-87,-20,0,-1,-6,-5,-31,3
1522235544497186,27,-46,2,-23,-14,-8,-8,25
1522235544514231,9,33,2,-12,18,10,23,28
1522235544514231,-35,-15,-8,-8,-10,1,-2,-9
1522235544515234,25,-11,-6,2,11,16,-1,5
1522235544515234,-14,3,2,9,-7,-7,-9,10
1522235544527265,-38,-22,2,12,4,-14,17,25
1522235544527265,34,-30,0,11,0,-8,5,25
1522235544536290,8,3,-1,8,2,-3,-15,-15
1522235544536290,-17,-15,-4,5,-5,-4,-21,-3
1522235544551330,26,-8,-2,6,-10,0,11,8
1522235544551330,-13,-19,-7,4,7,3,3,0
1522235544557345,44,26,11,-2,-12,-4,9,-3
1522235544557345,-52,-10,-8,2,5,4,15,14
1522235544574390,17,46,-1,-4,1,1,-1,3
1522235544574390,48,-11,4,-4,-14,-9,-14,-44
1522235544575394,-73,-22,-6,-7,22,10,22,-23
1522235544575394,20,-11,-3,-3,-11,-18,-27,53
1522235544587425,-55,28,-2,-2,-3,-2,7,43
1522235544587425,-76,32,7,-2,1,5,17,41
1522235544596449,-16,-39,-1,20,7,-6,2,-35
1522235544596449,3,33,15,20,-8,-1,-9,-128
1522235544610487,56,-2,-3,5,3,-6,-2,-84
1522235544610487,71,27,3,-6,-5,0,-3,-15
1522235544617506,22,-40,0,-9,-7,7,20,35
1522235544617506,-33,-29,-13,-11,-7,-6,-23,43
1522235544634551,13,2,0,-7,0,-43,14,8
1522235544634551,11,6,1,-4,2,14,6,-38
1522235544635553,26,-9,-9,-10,-8,-6,-2,31
1522235544635553,14,17,4,0,-6,-13,-7,45
1522235544647585,11,-17,1,-8,6,38,-2,55
1522235544647585,-9,-1,-5,-5,0,-5,-8,42
1522235544656609,-9,26,2,-5,-1,-8,11,3
1522235544656609,65,-43,-9,-1,0,2,-13,25
1522235544670647,-29,11,11,2,0,5,10,1
1522235544670647,31,-6,3,1,-1,4,-27,17
1522235544677665,21,19,-1,1,-8,-3,-4,19
1522235544677665,1,17,3,-6,3,24,14,8
1522235544693708,-25,-43,-11,1,-5,5,0,-9
1522235544693708,-18,8,-3,2,8,-19,-12,16
1522235544695713,-4,18,10,1,-3,0,13,-7
1522235544695713,51,10,-7,4,1,19,-4,2
1522235544716770,-16,-42,-2,-2,3,-20,-18,4
1522235544716770,-12,18,4,1,-12,-1,8,-62
1522235544717773,7,-13,-10,-4,1,-10,-14,-22
1522235544717773,-65,-3,0,-6,-4,6,24,-15
1522235544730813,-11,-9,-7,2,4,-5,-39,-7
1522235544730813,-31,-2,3,2,4,-7,-5,5
1522235544744846,-8,6,3,-3,-12,1,13,11
1522235544744846,-5,-26,-13,-1,13,4,-6,-30
1522235544753868,23,22,7,2,-14,-21,-1,-1
1522235544753868,-3,-14,-3,-4,1,3,-1,9
1522235544759884,9,22,-2,-3,5,14,12,1
1522235544759884,-57,-13,2,-2,0,2,-28,-6
1522235544776930,-37,10,-1,-3,-6,-1,9,8
1522235544776930,123,16,-7,-4,8,8,-11,-2
1522235544777932,87,-71,-21,-4,-1,-34,5,14
1522235544777932,-8,51,28,3,2,-10,-14,15
1522235544790967,-13,3,-1,2,8,24,4,-20
1522235544790967,-31,-28,0,-2,-13,10,9,18
1522235544805004,-38,25,-2,0,1,-8,-21,-12
1522235544805004,35,-8,-10,2,-4,-27,11,5
1522235544814028,-31,4,-5,-2,-5,-1,-6,-17
1522235544814028,-4,-9,-3,-2,5,1,12,7
1522235544816033,-1,1,0,-2,4,7,3,12
1522235544816033,39,9,3,3,-7,0,1,6
1522235544836086,-22,-18,-11,-3,0,0,14,-2
1522235544836086,-24,-16,4,-3,-4,-4,-5,-4
1522235544838092,-44,35,19,4,1,22,11,12
1522235544838092,1,11,-1,2,10,-4,11,-18
1522235544850123,39,-2,0,-2,-13,2,-52,9
1522235544850123,-53,-10,-4,-2,-6,-11,-1,-10
1522235544859148,-29,4,0,0,15,10,-25,-7
1522235544859148,34,-26,0,-4,-14,-6,13,11
1522235544873185,58,17,16,2,6,26,40,11
1522235544873185,56,-19,-11,0,-6,-11,-26,-13
1522235544882209,34,62,8,1,-6,-4,-22,1
1522235544882209,-64,-31,-12,0,14,12,4,17
1522235544896246,-13,-39,-20,-3,-9,-16,12,48
1522235544896246,5,58,17,2,8,16,4,18
1522235544898252,-10,-26,-10,1,4,-37,-8,15
1522235544898252,23,37,14,5,-8,6,35,4
1522235544919307,-38,-47,-10,1,0,-3,-20,-23
1522235544919307,10,-24,14,4,7,21,33,3
1522235544920310,-45,16,-6,-1,-2,-8,-11,6
1522235544920310,0,-29,-12,-4,9,7,-5,0
1522235544932342,1,14,6,1,-10,-5,0,5
1522235544932342,-56,-34,-10,-1,1,16,9,0
1522235544941366,-44,70,11,-6,-5,-1,-22,-28
1522235544941366,4,29,4,3,-1,-13,-8,7
1522235544956406,-62,18,1,2,-20,-11,-3,-9
1522235544956406,-3,-3,-11,2,25,16,-16,-9
1522235544958412,22,-31,6,1,-14,-3,15,-17
1522235544958412,32,25,-6,-9,-3,7,20,-14
1522235544979468,24,28,-2,-8,4,-11,4,-23
1522235544979468,-95,22,11,-4,-11,-33,-12,-19
1522235544980480,26,-35,-15,-8,-3,3,16,-11
1522235544980480,41,16,5,-4,-12,-7,-8,-30
1522235544992502,34,4,8,5,25,26,11,-2
1522235544992502,32,3,1,2,4,-10,-5,-10
1522235545001526,24,-37,-7,-4,-6,13,10,-8
1522235545001526,7,21,0,-3,-12,-10,-51,2
1522235545015563,-27,-10,-7,-5,39,8,9,-8
1522235545015563,-25,15,2,1,-18,-11,-6,10
1522235545022582,-46,13,3,5,4,12,5,-14
1522235545022582,-3,-9,-7,0,-21,-28,-19,-19
1522235545038625,0,6,10,0,7,0,-19,-6
1522235545038625,-82,-19,-13,-5,-4,9,36,-8
1522235545040630,-4,-54,-12,-6,-4,-22,-29,-6
1522235545040630,-6,17,1,-1,6,19,10,4
1522235545052662,52,-3,3,-6,-17,-21,-18,-7
1522235545052662,-32,-6,2,-1,6,6,18,9
1522235545061686,89,0,3,1,-13,13,25,-10
1522235545061686,-128,-63,-16,-2,-1,-17,-41,-32
1522235545075723,43,17,5,9,-6,3,18,5
1522235545075723,98,-4,-1,-27,15,-7,-74,-4
1522235545082742,-15,24,1,-22,-10,-19,28,16
1522235545082742,63,4,0,-9,31,2,30,12
1522235545098784,-80,-16,3,2,-20,4,24,3
1522235545098784,-7,17,-8,8,-23,-16,-6,-3
1522235545100790,13,-23,-1,15,18,4,-18,2
1522235545100790,12,8,-3,7,2,16,-26,28
1522235545112822,74,-21,-4,8,-1,2,33,50
1522235545112822,-32,17,10,4,0,-10,-24,-6
1522235545121846,58,18,5,7,2,10,23,12
1522235545121846,-5,-21,-2,3,-6,5,33,-6
1522235545135883,-50,5,-6,-2,8,4,-16,-36
1522235545135883,33,-15,1,4,-11,-9,18,-11
1522235545142901,15,-16,-7,-2,-18,-3,-22,-20
1522235545142901,-4,12,0,-2,25,16,23,-4
1522235545158944,-10,-28,-6,-4,-18,-9,-19,-21
1522235545158944,18,24,-4,-3,5,2,11,-9
1522235545160950,-36,-9,-1,5,2,-3,-3,-16
1522235545160950,32,6,0,-1,-7,3,-14,-2
1522235545172981,-43,-3,6,-4,-13,-10,22,4
1522235545172981,35,-5,-5,2,11,14,1,-6
1522235545182006,35,15,0,-5,-4,-17,-25,-29
1522235545182006,41,26,3,-3,-26,-6,29,-119
1522235545196043,28,-19,-4,-3,35,10,-12,-94
1522235545196043,-79,36,8,0,-11,9,4,-24
1522235545203062,-81,-7,2,2,14,28,-8,8
1522235545203062,8,-31,-5,2,-5,-23,-14,18
1522235545219104,-66,10,0,9,-17,-12,-1,6
1522235545219104,98,1,0,11,-3,11,26,25
1522235545221110,-31,-23,-6,10,-9,-1,-18,-16
1522235545221110,-5,-10,4,3,7,4,-7,47
1522235545242166,37,14,11,-2,-3,1,0,53
1522235545242166,27,-16,5,-6,5,15,31,59
1522235545243168,7,24,-2,-6,0,-11,-57,37
1522235545243168,23,-30,0,-5,4,1,22,37
1522235545256202,13,16,0,-4,5,11,4,32
1522235545256202,20,-30,-10,-9,-10,-19,-3,4
1522235545263224,-13,16,9,-7,-1,-10,8,14
1522235545263224,-23,-8,-4,-2,9,-4,-14,7
1522235545279264,65,7,-5,-2,7,13,9,30
1522235545279264,-102,-5,-5,1,3,-4,-7,-11
1522235545280274,52,-33,-1,-2,15,12,18,0
1522235545280274,-54,22,-6,-8,-25,-9,-16,-60
1522235545301322,42,25,19,9,2,-10,-6,-23
1522235545301322,-37,-26,3,2,-11,-5,33,-16
1522235545303328,-6,-1,-10,0,7,-13,-32,-8
1522235545303328,-21,34,11,4,-4,19,13,41
1522235545316363,28,9,-5,-6,2,-5,-11,13
1522235545316363,0,25,8,-3,6,4,-14,-5
1522235545322379,9,3,4,3,-1,5,14,16
1522235545322379,-1,-35,-10,-3,-11,-21,-16,10
1522235545339424,-57,24,-9,-5,5,-1,-18,-15
1522235545339424,40,5,17,3,-8,-2,10,53
1522235545340427,-37,10,-7,-4,13,17,41,24
1522235545340427,8,19,18,2,-8,-20,-75,-8
1522235545362485,84,-10,2,-2,-16,9,24,12
1522235545362485,80,-37,-22,-7,30,17,-21,-9
1522235545363492,51,34,21,13,-14,4,23,12
1522235545363492,-13,-33,-26,-7,-6,-24,26,-9
1522235545375520,-68,50,13,3,16,13,-12,12
1522235545375520,33,-13,4,2,-7,-8,-3,11
1522235545384544,14,-22,-18,-7,-12,-8,6,-36
1522235545384544,5,16,4,2,13,13,-2,6
1522235545398581,-59,-8,-6,-3,-8,5,6,4
1522235545398581,27,-20,-11,-1,1,-4,-15,-13
1522235545400590,4,32,7,5,19,3,10,22
1522235545400590,-81,-12,-14,-7,-12,38,0,-15
1522235545421642,30,-58,-45,-14,-9,-25,3,-28
1522235545421642,-96,106,71,16,-9,-33,-31,17
1522235545423648,-32,-13,-11,-8,-12,28,30,13
1522235545423648,60,-32,8,0,16,-4,-32,11
1522235545435680,-53,35,11,3,-11,1,16,19
1522235545435680,35,-60,-23,2,10,53,-4,-23
1522235545444704,36,30,2,-2,-16,-42,-1,13
1522235545444704,48,-24,-1,9,11,-5,-38,-7
1522235545458741,-31,27,38,1,-22,25,40,25
1522235545458741,-9,-61,-49,1,2,9,-15,16
1522235545460746,-6,74,51,-1,-8,5,-5,20
1522235545460746,81,16,-5,-4,0,22,31,39
1522235545481802,116,-75,-3,11,7,15,27,22
1522235545481802,-70,8,-39,-15,-5,-35,-44,-53
1522235545487818,71,28,10,8,-4,5,19,27
1522235545487818,-88,-60,-31,-3,8,-28,-47,-60
1522235545494837,-16,7,-6,-2,-15,-47,27,33
1522235545494837,-50,30,26,2,7,19,47,47
1522235545503861,17,-72,-40,-9,11,-13,-40,-3
1522235545503861,23,44,5,-6,-27,-8,-10,39
1522235545518901,-31,-2,-15,4,21,0,-10,-13
1522235545518901,67,55,28,7,4,5,19,28
1522235545520906,-95,-64,-30,-6,-6,3,-21,-18
1522235545520906,-38,-10,8,5,0,12,31,5
1522235545541962,59,35,22,-3,-12,3,-28,-61
1522235545541962,-74,-32,-7,-11,14,-29,0,-15
1522235545542965,28,3,9,10,-2,4,-19,5
1522235545542965,-6,98,12,8,-2,-6,2,-14
1522235545554996,73,-43,-23,-13,-30,-19,-29,-9
1522235545554996,-45,-25,-16,-20,-4,23,-21,-53
1522235545564021,16,32,15,4,36,5,44,-30
1522235545564021,70,-16,2,0,-5,12,64,-12
1522235545579061,-16,-74,-16,-5,-1,-19,-15,-28
1522235545579061,87,50,27,13,-2,-2,-73,-18
1522235545581067,48,-85,-44,-11,-14,-12,-21,-32
1522235545581067,19,33,18,-3,10,-36,10,-22
1522235545601119,-93,29,5,2,23,34,-20,-16
1522235545601119,84,-1,20,3,-37,-17,19,-22
1522235545603125,-128,-65,-28,-7,-4,23,9,-15
1522235545603125,43,-36,2,-3,3,13,-1,56
1522235545615157,-64,-42,-9,-5,4,-33,58,-4
1522235545615157,68,-64,-6,4,11,26,-47,4
1522235545624181,50,127,39,3,-61,-34,-40,-47
1522235545624181,-128,-121,-33,-11,52,26,26,-47
1522235545639221,63,-5,-3,-7,-29,1,10,25
1522235545639221,-54,-9,-5,-2,-5,-14,-3,-11
1522235545640223,91,-88,-26,-6,-14,6,-12,6
1522235545640223,-57,99,11,4,27,-43,3,26
1522235545661279,12,95,41,11,16,43,-3,17
1522235545661279,88,-9,-14,6,-10,-5,36,2
1522235545663289,9,68,16,-6,-4,-11,-49,3
1522235545663289,-8,-22,-16,10,-4,-53,29,-22
1522235545675316,-23,-87,-15,-12,22,-9,-74,1
1522235545675316,30,77,1,1,-27,-17,27,14
1522235545684341,-76,2,17,10,41,36,70,-14
1522235545684341,103,-3,8,-4,-52,-1,-56,55
1522235545699381,-13,-1,-2,-1,14,23,24,68
1522235545699381,-36,20,6,-1,-5,-19,-2,20
1522235545700384,-66,-42,-20,5,45,0,-57,4
1522235545700384,35,42,22,-7,-47,7,31,-8
1522235545721439,42,-8,-4,2,30,-7,10,-121
1522235545721439,34,-41,-19,-10,-5,18,6,-84
1522235545723444,-50,10,1,0,-17,-34,24,-64
1522235545723444,19,24,-2,4,-7,6,0,9
1522235545735476,-45,17,-1,-1,12,1,-28,1
1522235545735476,-19,-81,-36,-3,-10,-10,43,61
1522235545744501,-31,25,23,3,64,20,-22,-27
1522235545744501,-31,-102,-18,-2,-26,18,-28,14
1522235545759540,41,115,12,4,-12,-3,72,46
1522235545759540,-110,-78,-42,-16,-13,10,-67,70
1522235545760543,34,-31,11,-4,-1,-36,30,61
1522235545760543,-104,-7,-3,-8,-10,7,-5,-82
1522235545781599,127,-15,-9,9,22,12,20,-119
1522235545781599,-50,-59,-34,-10,-14,14,49,-101
1522235545783604,85,36,46,3,-13,16,-52,-35
1522235545783604,-6,60,5,0,-3,-15,-80,-112
1522235545795638,-128,-30,-1,-4,9,40,49,6
1522235545795638,3,-7,-11,-8,-26,-11,-7,-100
1522235545804660,-96,-20,-19,3,-17,-13,19,2
1522235545804660,104,-58,-18,12,37,10,-5,2
1522235545818697,90,-80,-4,5,11,10,9,22
1522235545818697,12,117,17,8,8,-30,-10,77
1522235545820703,92,-18,-3,0,-2,32,31,89
1522235545820703,99,-19,-26,-6,-6,10,-9,39
1522235545841759,-128,37,18,-4,-1,12,13,101
1522235545841759,71,-38,-11,3,12,-13,66,98
1522235545842762,-46,37,36,11,6,-8,16,66
1522235545842762,-30,-4,-5,-1,2,-1,-9,61
1522235545854793,31,-65,-38,-8,-5,-16,-72,6
1522235545854793,-5,119,56,8,11,9,-8,28
1522235545863818,33,-19,-7,-9,23,-11,47,7
1522235545863818,103,65,16,-4,-15,34,41,53
1522235545878857,21,7,-10,-5,-30,-31,-69,-69
1522235545878857,-28,-64,-12,-7,4,-8,-15,-7
1522235545884873,60,-4,-19,15,4,-35,-1,-14
1522235545884873,-99,-3,23,-8,-10,-16,12,-17
1522235545901919,-28,-26,-6,-4,8,-5,19,40
1522235545901919,-4,-60,-22,4,6,-30,17,-30
1522235545902924,-85,89,17,1,-1,40,20,-11
1522235545902924,-105,5,-15,-4,2,23,-22,15
1522235545914954,39,39,32,9,-9,-87,8,12
1522235545914954,-69,-79,-20,-5,4,-1,-12,-11
1522235545923977,-80,74,27,-15,-43,-14,-32,19
1522235545923977,-32,13,-3,15,28,-11,-30,2
1522235545938015,38,-13,-22,-15,-22,7,-53,-14
1522235545938015,77,83,32,12,24,7,63,10
1522235545945033,51,-25,-42,-4,15,23,27,-6
1522235545945033,-102,-32,-12,-9,-9,31,3,-2
1522235545962079,52,6,-3,-5,-1,7,-33,35
1522235545962079,52,-81,-11,2,-1,-29,-16,-14
1522235545963084,83,26,45,-1,-33,30,-52,17
1522235545963084,75,66,-9,-4,17,-9,19,-20
1522235545976116,47,-23,-10,6,-16,10,4,-21
1522235545976116,-29,34,22,6,8,7,5,19
1522235545984137,-79,-45,-36,0,18,36,22,-28
1522235545984137,45,68,38,14,-3,-1,29,18
1522235545998175,-128,-23,-9,-6,-2,0,-21,-19
1522235545998175,73,-22,-6,6,2,-13,-10,-33
1522235546005193,-72,-60,-31,-3,-15,-35,-23,-20
1522235546005193,17,6,10,1,-1,2,18,34
1522235546022239,-6,15,8,-5,15,-51,15,-14
1522235546022239,-73,108,17,-1,-11,66,24,42
1522235546027252,13,-32,-9,-7,-4,-24,-51,-35
1522235546027252,-6,-57,-19,-6,19,-13,20,-5
1522235546035273,77,-5,0,-6,-13,-13,-42,-8
1522235546035273,-38,-12,-1,-5,11,-5,57,38
1522235546044298,27,-47,-5,-13,-10,-72,-5,31
1522235546044298,83,52,14,5,-9,-5,3,18
1522235546058334,-113,-20,5,4,-1,19,11,-26
1522235546058334,-10,65,-9,-16,-18,7,-46,-14
1522235546065353,-64,-104,-15,-4,12,30,14,10
1522235546065353,-84,-67,-10,0,-16,-31,-15,-2
1522235546081396,112,73,17,3,18,23,28,-3
1522235546081396,93,-61,-13,4,1,18,-32,-25
1522235546083401,29,44,-15,-9,-35,-54,-4,-38
1522235546083401,-26,-83,-12,-10,22,34,32,-10
1522235546095433,-101,-1,-1,-1,-1,13,-5,-5
1522235546095433,16,-7,-6,-5,-12,12,-1,3
1522235546104457,124,59,2,9,0,6,40,4
1522235546104457,48,-30,-9,3,-9,-6,-33,-16
1522235546118494,-11,-7,20,3,0,6,10,3
1522235546118494,-41,0,5,4,11,9,-2,-4
1522235546132532,-36,26,-10,-15,-5,10,36,-8
1522235546132532,31,-41,-3,3,13,20,16,8
1522235546141555,-7,28,2,8,-10,13,-3,6
1522235546141555,1,-20,-7,-6,2,-60,-47,-37
1522235546143561,72,0,-6,8,-3,1,32,28
1522235546143561,43,88,35,7,-4,-19,-8,6
1522235546163614,1,-111,-40,-13,3,3,41,1
1522235546163614,19,127,42,-3,-26,6,27,24
1522235546165620,20,-36,-1,2,15,12,-20,-8
1522235546165620,-2,37,-2,-5,14,-7,-42,-11
1522235546178654,78,0,16,5,-22,8,12,31
1522235546178654,-62,-19,-20,-7,1,-46,-3,-7
1522235546185673,39,-51,2,4,0,2,7,6
1522235546185673,-70,-23,-4,-10,-24,8,25,-16
1522235546201715,-101,50,-2,3,18,14,-21,29
1522235546201715,-125,-47,-17,3,11,9,-59,-55
1522235546202718,-23,-21,-16,6,0,6,37,11
1522235546202718,-37,-28,-3,0,3,-9,42,8
1522235546223774,62,-2,2,-5,-4,11,29,-25
1522235546223774,125,28,0,-5,-5,-17,-25,-4
1522235546225780,86,37,9,10,28,27,-9,22
1522235546225780,-7,42,13,2,-12,-23,-52,-1
1522235546238814,-13,-51,-10,-12,-7,-5,47,-27
1522235546238814,92,6,3,8,12,25,-28,34
1522235546252856,-7,75,32,3,-10,-23,10,3
1522235546252856,87,-24,-36,-1,17,12,11,15
1522235546261875,96,-4,12,7,-13,-17,-95,20
1522235546261875,51,2,0,1,15,27,36,12
1522235546262878,31,-9,-7,-9,-33,-3,-24,-31
1522235546262878,33,27,1,0,15,26,-35,-23
1522235546283934,-29,-14,3,8,-31,-29,18,-19
1522235546283934,15,94,11,3,27,26,-17,9
1522235546285940,-13,-55,-13,-1,-9,7,-38,-13
1522235546285940,-42,-79,-10,-5,9,-6,-30,-10
1522235546297971,72,42,1,3,-12,-21,33,-7
1522235546297971,-17,-30,3,-17,-9,49,43,14
1522235546306995,-28,47,4,-4,4,-20,-63,-15
1522235546306995,-9,-28,-10,-5,-15,-16,15,-1
1522235546322035,4,13,2,4,5,-22,32,-5
1522235546322035,-86,-74,-18,-3,1,-9,-17,-31
1522235546323038,53,50,4,-2,8,8,19,-4
1522235546323038,-22,7,2,-1,-9,-15,38,-68
1522235546344094,1,-53,-2,-3,9,29,-39,-11
1522235546344094,-28,74,44,12,-3,-32,36,0
1522235546346099,-64,-25,-12,-6,9,12,13,-4
1522235546346099,39,-105,-20,-4,-18,-6,-60,23
1522235546358131,-91,115,20,-5,1,-11,0,4
1522235546358131,90,-38,-1,2,0,37,81,-12
1522235546367155,-58,-6,10,-3,-5,-26,-49,10
1522235546367155,-33,25,4,11,14,-15,46,27
1522235546381192,22,-36,-8,0,-5,26,-52,3
1522235546381192,8,28,2,-6,-7,-13,42,27
1522235546383198,52,26,20,3,-12,-12,25,-19
1522235546383198,-20,-4,-16,0,13,12,62,-70
1522235546404254,30,-52,-3,-4,2,21,-108,-44
1522235546404254,-13,13,-11,-2,-3,-26,34,-10
1522235546405256,27,31,4,-3,3,32,28,-19
1522235546405256,46,30,9,-2,-18,2,-63,23
1522235546417288,-91,3,3,3,22,-47,57,7
1522235546417288,-14,-27,24,4,-1,22,-44,-24
1522235546426312,86,-46,-25,-3,-11,-3,-7,31
1522235546426312,-17,14,-21,-2,26,15,31,12
1522235546441352,41,-4,3,-1,-36,-43,-12,0
1522235546441352,15,-23,-10,4,25,35,40,43
1522235546443358,-115,9,-2,-1,-2,16,45,52
1522235546443358,-113,-50,-4,-3,11,19,-45,-13
1522235546464413,68,67,6,2,-1,23,-6,7
1522235546464413,46,-3,5,1,-13,-38,-45,-33
1522235546465416,3,-47,-6,-6,4,-3,-25,20
1522235546465416,11,43,24,3,-26,-39,11,-38
1522235546477448,-19,19,-20,2,14,14,-18,2
1522235546477448,116,34,22,3,22,6,37,54
1522235546486472,-84,24,49,13,1,20,-40,-71
1522235546486472,103,-52,-40,-6,-3,-20,50,70
1522235546501512,110,37,40,1,0,-14,-21,-13
1522235546501512,44,-10,-28,1,-11,-9,-27,-39
1522235546503518,16,-126,-46,-14,-17,-4,36,10
1522235546503518,-24,-31,28,8,4,38,14,-2
1522235546524573,-128,-45,-16,-6,-20,-36,51,-10
1522235546524573,8,-46,-17,11,-7,-62,-74,23
1522235546525576,11,-4,-6,-1,36,10,-2,8
1522235546525576,29,-6,-15,-25,-31,-44,-19,-27
1522235546537608,-1,-20,-1,-5,-11,-37,67,25
1522235546537608,-66,-8,-4,-10,-37,-16,-66,-8
1522235546546632,33,-16,-8,18,48,7,2,9
1522235546546632,7,127,35,13,-37,-28,11,55
1522235546561672,63,-116,-20,-1,33,63,-32,5
1522235546561672,-71,-44,-16,-1,2,-5,-38,1
1522235546563680,69,14,-2,-7,-32,-51,6,-33
1522235546563680,-90,41,1,8,-1,40,21,9
1522235546583730,61,119,27,11,13,50,-20,17
1522235546583730,-32,-4,-1,-10,13,-18,13,35
1522235546585736,-24,-65,-57,-12,-36,-39,-46,-14
1522235546585736,97,74,29,9,10,-19,72,26
1522235546597768,-77,22,15,-19,-26,6,-33,-54
1522235546597768,-11,-35,-26,-1,36,28,42,-26
1522235546606792,44,-35,-18,9,19,31,-3,19
1522235546606792,-88,50,58,0,-8,32,26,15
1522235546621832,58,-34,-14,-7,-8,15,16,-11
1522235546621832,-82,36,15,4,-7,33,12,32
1522235546622835,-76,6,-18,-19,-10,2,27,-21
1522235546622835,31,-56,12,17,-24,-34,-93,-44
1522235546643890,25,88,13,-4,30,57,-13,2
1522235546643890,-43,-70,-18,-9,-48,68,52,67
1522235546645896,-67,127,41,16,60,-18,-34,19
1522235546645896,24,-62,-8,-17,-19,-16,1,-22
1522235546657928,-57,-96,-16,0,-19,-29,87,23
1522235546657928,-2,41,10,-10,15,44,-78,-33
1522235546666952,10,99,12,-2,-31,22,40,29
1522235546666952,42,-1,-29,-1,1,-4,-33,13
1522235546681992,-10,-55,42,27,51,-12,14,1
1522235546681992,-98,-2,0,-2,-50,-102,-52,-20
1522235546682995,99,-60,10,-9,-9,38,22,-23
1522235546682995,-11,35,-14,-2,-2,5,-25,5
1522235546704051,78,-6,-2,11,10,-42,57,2
1522235546704051,-39,24,12,14,-8,27,-22,1
1522235546706056,42,30,6,0,-13,-71,-37,15
1522235546706056,102,53,19,6,2,-93,39,-8
1522235546718089,-27,-57,-33,-10,15,92,25,41
1522235546718089,59,-48,-11,-6,4,-14,15,-25
1522235546727112,54,-6,-1,48,0,36,2,63
1522235546727112,43,-55,-32,35,16,-4,-16,-38
1522235546741149,61,20,-24,-24,-32,-44,19,40
1522235546741149,-15,35,50,-6,58,9,3,-63
1522235546743155,-52,-80,2,-32,-34,-1,1,37
1522235546743155,-36,-41,-5,-28,9,-6,-21,-5
1522235546764210,-12,50,-6,-7,-2,35,-13,13
1522235546764210,76,31,16,-26,-54,-88,-32,-53
1522235546766216,-49,-78,-3,-27,11,20,-17,-79
1522235546766216,-99,-55,-8,-26,5,38,-29,12
1522235546778247,-100,73,31,6,9,-124,-49,-16
1522235546778247,99,-62,2,14,13,67,-1,4
1522235546787272,60,45,46,6,-22,50,48,45
1522235546787272,70,15,-24,-19,-8,21,-22,-79
1522235546800306,-3,-41,-37,-21,-28,-46,-128,-76
1522235546800306,-22,-14,-50,7,-14,16,48,7
1522235546809330,38,124,36,3,17,-12,-14,13
1522235546809330,31,-94,-18,0,10,-6,27,53
1522235546824370,-32,-61,-30,15,-28,5,54,42
1522235546824370,29,122,13,28,97,85,-53,-60
1522235546825373,85,-81,-41,-1,-35,3,-24,-38
1522235546825373,58,39,12,1,-34,-28,-68,-65
1522235546837405,-107,-80,-61,-25,-19,-14,-56,40
1522235546837405,77,-66,28,-19,12,38,124,126
1522235546846429,12,24,-15,-20,-11,-1,-3,-87
1522235546846429,-48,102,53,30,76,75,13,71
1522235546861469,56,-16,-3,9,-16,-22,-5,-17
1522235546861469,-56,-56,-29,6,-34,-9,4,-48
1522235546863474,-23,7,-11,-11,4,1,106,81
1522235546863474,-69,-38,-14,-44,-2,-17,-72,-44
1522235546884530,-2,51,48,1,26,28,3,0
1522235546884530,12,-5,-13,-6,-21,-27,-6,-22
1522235546885533,5,43,-20,19,7,32,66,-5
1522235546885533,-31,4,22,16,-4,10,7,-12
1522235546897565,49,-18,-14,9,-6,-21,2,28
1522235546897565,48,-4,3,36,-14,1,-29,-20
1522235546906589,-114,-72,-3,-2,57,2,-49,26
1522235546906589,121,-33,-28,-6,-60,18,79,51
1522235546920626,-33,44,27,1,13,-10,41,5
1522235546920626,66,-73,-23,-17,-12,15,-41,-10
1522235546927645,7,3,-15,8,10,-65,-113,-89
1522235546927645,-76,-49,-33,-106,22,15,127,106
1522235546943687,-55,-54,13,-99,-24,63,-20,-25
1522235546943687,70,51,-21,-45,-16,-46,-9,-7
1522235546945693,46,-17,-11,-4,-9,-52,-31,13
1522235546945693,-76,-95,-21,60,3,13,-24,-37
1522235546957724,127,47,25,41,50,60,2,1
1522235546957724,-99,0,1,39,20,2,99,26
1522235546966749,29,56,21,33,-77,-47,-32,73
1522235546966749,-26,-85,-9,43,72,61,-7,-44
1522235546980786,65,72,30,31,-23,33,-15,-14
1522235546980786,-15,53,14,21,-15,-14,47,57
1522235546987804,7,11,12,11,-38,-4,-22,-43
1522235546987804,-11,24,27,17,57,-34,-29,2
1522235547003847,-107,41,19,17,14,72,23,-12
1522235547003847,-71,47,1,-1,34,20,13,30
1522235547005853,-128,-48,-37,-16,5,-3,-75,-10
1522235547005853,16,107,30,3,-15,31,18,-3
1522235547017884,113,-81,-51,3,-21,-47,-38,-62
1522235547017884,64,-46,-8,-7,26,-14,14,77
1522235547026909,-88,75,0,-5,-12,76,101,30
1522235547026909,-4,-26,-39,-15,-6,28,-73,-1
1522235547040946,90,-43,-10,0,-31,1,75,12
1522235547040946,-109,-96,-33,8,-3,-93,-45,-16
1522235547047964,80,42,-24,-13,-8,-2,-33,-59
1522235547047964,58,-6,33,27,15,-12,-11,69
1522235547064007,-128,-17,-8,-9,-24,-37,-59,-45
1522235547064007,-9,36,-20,-27,-49,33,-52,-34
1522235547066013,-15,71,91,14,61,-17,11,-18
1522235547066013,44,40,-25,-16,-13,21,2,25
1522235547078044,-8,-51,-7,-2,11,60,-48,30
1522235547078044,85,59,25,-1,-17,-12,64,8
1522235547087068,-66,-95,-44,11,-12,-15,-40,-18
1522235547087068,90,50,-10,-27,2,-13,-2,-38
1522235547101106,-20,68,20,12,-16,-2,-47,-14
1522235547101106,-10,-78,-49,-23,-20,-23,-66,-33
1522235547108124,46,1,-12,10,35,-44,-11,61
1522235547108124,9,43,29,12,35,72,122,-10
1522235547124167,37,-29,-1,-13,-34,-54,-80,-60
1522235547124167,34,-88,-20,17,8,51,-33,7
1522235547126173,-75,31,44,-12,10,-4,-35,64
1522235547126173,-44,-32,19,-49,-22,-36,34,-16
1522235547146226,57,12,-15,-83,38,-63,-5,62
1522235547146226,46,33,18,-38,-11,4,45,25
1522235547148231,-27,-85,-76,-29,16,-52,-32,-82
1522235547148231,25,43,28,36,-4,36,-40,-10
1522235547161266,15,-33,-47,32,-38,23,6,5
1522235547161266,34,-56,-34,-11,-43,-72,-2,55
1522235547167281,22,-78,-65,9,46,55,28,-2
1522235547167281,-39,-6,57,2,-32,-32,39,45
1522235547184327,-59,-42,-3,43,49,31,18,-16
1522235547184327,-91,-13,3,-2,-10,32,-103,-121
1522235547185330,5,19,5,4,-4,-57,107,61
1522235547185330,55,-42,-32,-6,-93,-97,33,-40
1522235547205383,114,123,69,75,63,-30,114,61
1522235547205383,-38,-64,2,-19,28,125,14,-13
1522235547214407,-28,-82,2,-16,-10,53,-111,-17
1522235547214407,98,8,-53,-15,-28,-2,-9,-59
1522235547221425,-104,-127,-31,-14,7,-35,-3,61
1522235547221425,124,127,-21,-6,8,-18,33,-95
1522235547227441,-24,37,114,-1,-10,10,92,15
1522235547227441,-8,-76,-44,-3,-20,-28,-128,-47
1522235547244487,63,-13,-79,-48,-45,-6,-8,-55
1522235547244487,-89,94,35,79,88,-128,18,61
1522235547245489,48,-51,-22,34,15,110,101,49
1522235547245489,-24,-98,-16,27,7,41,-56,-19
1522235547266546,3,33,66,-10,5,12,-33,-38
1522235547266546,55,-47,2,-30,-73,-82,-14,46
1522235547268551,-29,67,-54,-36,18,50,50,-45
1522235547268551,2,75,106,12,9,-66,-6,74
1522235547280582,22,11,-41,16,12,46,97,78
1522235547280582,-11,-122,-32,-6,-28,3,-28,-23
1522235547289607,-78,47,44,14,45,-20,-12,-35
1522235547289607,-40,-54,-47,-14,-32,-19,33,5
1522235547303644,-27,36,63,9,7,75,-17,-24
1522235547303644,91,127,7,15,-7,-64,-67,17
1522235547311666,5,-64,-1,-31,18,81,36,-50
1522235547311666,26,16,-27,-1,10,-17,-50,-18
1522235547326705,-108,-87,-30,-14,-42,-8,21,-42
1522235547326705,30,117,54,1,41,-8,-52,39
1522235547328711,121,-23,-11,-13,-29,2,-49,-50
1522235547328711,-128,-24,-11,-2,-19,78,15,3
1522235547340742,69,-15,-15,7,67,58,-25,17
1522235547340742,61,-19,-18,-12,-44,-16,15,-19
1522235547349767,127,-52,20,-7,-26,-26,-93,14
1522235547349767,-71,57,37,41,87,23,127,74
1522235547363804,87,28,-75,-8,-28,18,-68,-38
1522235547363804,-101,-128,31,6,27,89,51,43
1522235547365809,32,125,46,35,-16,-65,15,29
1522235547365809,-27,-40,-53,-58,-25,17,-94,-50
1522235547386865,-115,63,-34,-21,-8,-22,41,-29
1522235547386865,-104,100,-27,-15,41,4,6,-12
1522235547387868,78,-26,-25,-25,-32,-16,-28,-5
1522235547387868,-26,-61,11,20,-2,45,-32,-69
1522235547399900,33,-23,15,16,32,-110,92,51
1522235547399900,46,-101,-22,-8,0,82,83,-3
1522235547408924,97,79,-5,5,-23,-76,-102,-1
1522235547408924,-63,13,60,-2,-29,-78,61,8
1522235547423964,81,-38,1,22,26,26,78,22
1522235547423964,108,7,-10,-46,4,94,114,29
1522235547425969,-78,-77,-10,-69,-52,-36,-34,41
1522235547425969,81,46,-71,18,14,-11,69,-25
1522235547447025,13,77,101,-31,-3,15,-42,72
1522235547447025,-46,-93,-30,55,-11,-57,-110,-64
1522235547448028,-3,-36,59,-19,-8,-4,20,-7
1522235547448028,-38,108,-47,-36,17,24,-37,13
1522235547460060,13,-120,-11,10,1,43,-2,33
1522235547460060,-25,54,93,7,-12,-70,-101,-28
1522235547469083,14,-48,-95,2,-34,-24,-2,27
1522235547469083,125,-116,-11,-4,20,75,76,0
1522235547484124,16,106,28,-35,1,-29,-53,-47
1522235547484124,23,56,32,-77,10,-66,-9,45
1522235547486129,-84,79,36,-69,-104,-7,-82,-70
1522235547486129,127,13,1,-10,60,-31,84,127
1522235547506182,-40,-47,-18,89,14,-53,-79,-104
1522235547506182,88,57,28,-4,-27,56,117,93
1522235547508188,-73,-59,-20,31,88,-61,-34,-54
1522235547508188,-85,-30,-6,4,-18,-49,-43,-46
1522235547520219,-33,36,-7,17,-44,6,-60,61
1522235547520219,33,33,-13,57,-24,-51,25,-2
1522235547529244,-31,-5,-38,41,-6,75,28,-49
1522235547529244,-17,57,20,12,27,73,8,16
1522235547543281,34,64,87,10,-61,23,-28,-58
1522235547543281,13,-105,-63,11,26,7,16,-9
1522235547551303,105,103,-15,87,-8,41,97,56
1522235547551303,65,-43,-23,60,-11,-26,-116,-31
1522235547566342,3,73,3,59,18,4,28,-38
1522235547566342,-3,39,14,11,-33,127,-30,-37
1522235547568349,-11,-57,8,36,68,4,46,-2
1522235547568349,-59,79,21,7,-48,-53,-40,-4
1522235547580379,82,-55,-41,-32,34,-17,55,5
1522235547580379,-128,-3,13,-14,-33,-22,-67,-40
1522235547589404,44,-67,-26,-2,56,-22,52,113
1522235547589404,121,-18,7,10,-27,-6,-33,-25
1522235547604443,-128,40,5,-11,19,20,-42,-50
1522235547604443,56,18,18,37,12,24,55,19
1522235547605446,100,4,1,-41,-11,58,36,-34
1522235547605446,-1,77,82,14,9,-39,-72,16
1522235547626502,-46,-128,-70,11,-37,-3,45,-5
1522235547626502,-34,49,57,14,3,-38,-86,-40
1522235547632518,-83,43,-27,-10,25,41,95,-2
1522235547632518,63,-46,8,-11,-24,10,-91,-80
1522235547640539,-32,52,70,-5,-10,-50,32,34
1522235547640539,45,43,21,-17,5,-22,34,63
1522235547649563,-12,-44,-86,-47,-57,-26,-67,-74
1522235547649563,6,29,58,10,-19,6,23,11
1522235547664603,69,-24,-32,-20,39,-31,25,43
1522235547664603,-65,-33,-21,9,40,48,-27,-22
1522235547665606,-52,-36,-18,-18,-70,-74,-22,18
1522235547665606,-33,-37,41,45,50,11,-11,-62
1522235547686662,60,-19,15,65,-50,15,61,114
1522235547686662,-20,-31,-80,-26,-30,8,-8,-47
1522235547688667,100,62,47,-17,29,-24,26,29
1522235547688667,-48,-41,29,-50,33,78,39,-41
1522235547700699,-109,-66,-30,-5,-21,-62,-32,-11
1522235547700699,51,-22,-35,14,-14,-26,-46,-11
1522235547709723,-128,25,75,2,12,0,43,-29
1522235547709723,98,67,-12,-35,-23,25,-10,51
1522235547722757,-44,-52,24,-30,-30,34,-18,-30
1522235547722757,48,-89,-85,-47,29,-95,88,89
1522235547731782,4,-110,-20,2,66,105,-8,-69
1522235547731782,14,-19,0,14,-30,-38,6,41
1522235547746822,36,105,81,-13,33,108,-102,-16
1522235547746822,-23,30,-56,46,-2,0,38,29
1522235547747825,-104,-14,-3,10,1,3,107,47
1522235547747825,62,-32,5,34,10,-69,-33,-2
1522235547759856,93,-67,-34,10,24,49,26,34
1522235547759856,-57,-76,-65,-2,-36,-39,-56,-34
1522235547768880,34,42,106,83,28,-43,-127,-9
1522235547768880,-34,36,-128,26,34,92,100,34
1522235547783921,61,100,50,-49,-73,-25,-24,43
1522235547783921,-59,5,62,-92,70,111,6,-1
1522235547785926,88,-16,-38,102,-15,-33,-45,-42
1522235547785926,-32,52,-15,49,-30,-83,2,32
1522235547806982,113,3,-79,86,57,-51,76,5
1522235547806982,55,-85,21,29,1,-74,15,-101
1522235547807984,-53,92,11,-104,39,-10,-14,93
1522235547807984,26,-34,-9,-30,-22,-5,29,32
1522235547829040,13,-86,-89,-39,1,94,106,-2
1522235547829040,-22,20,110,-41,-29,-112,-62,-2
1522235547831046,32,-128,-35,-12,14,-57,-78,-101
1522235547831046,-4,-44,-36,-33,-30,-39,-78,19
1522235547843077,16,54,7,-81,3,-38,10,28
1522235547843077,54,66,9,-85,47,27,30,-28
1522235547850096,22,25,58,-86,-34,96,-48,23
1522235547850096,-122,-11,-55,-67,-20,-3,112,-50
1522235547866139,-7,-36,34,1,-24,-59,-46,-24
1522235547866139,25,97,-57,52,54,36,-96,60
1522235547868144,-32,55,67,-26,-46,-90,12,28
1522235547868144,127,79,24,35,6,24,56,65
1522235547880176,-70,-101,-53,-5,9,-19,-72,-65
1522235547880176,-22,-68,2,64,-33,32,-68,-29
1522235547889200,121,-1,-80,-33,12,11,105,104
1522235547889200,22,-103,7,13,-62,-14,-83,-50
1522235547903237,32,127,34,5,105,-10,29,58
1522235547903237,-49,30,60,1,12,30,119,8
1522235547910256,-44,-113,-103,-17,-112,-59,-27,-23
1522235547910256,4,-45,-28,-22,47,-41,19,-8
1522235547926299,102,79,60,1,-12,48,-23,-59
1522235547926299,127,53,-35,14,28,22,55,75
1522235547928304,-91,33,13,17,-32,1,-11,-95
1522235547928304,94,90,30,32,33,93,102,38
1522235547940336,-128,-5,10,36,-66,-66,8,52
1522235547940336,-51,-26,-19,-9,-23,102,37,-3
1522235547949360,-28,-80,-9,0,69,-63,-11,13
1522235547949360,-71,-123,-20,-40,-72,-54,-23,-58
1522235547963397,-7,-52,-23,26,37,53,2,11
1522235547963397,21,-13,10,3,-49,3,-42,-33
1522235547970416,85,118,23,16,-16,37,23,40
1522235547970416,-106,-98,-73,31,80,-24,-89,13
1522235547986459,-36,85,85,-23,-27,79,92,18
1522235547986459,14,-128,-95,-15,-90,-87,-20,-6
1522235547988464,-2,-31,-41,66,19,64,-59,-13
1522235547988464,55,-21,16,-47,48,-51,19,3
1522235548000496,54,7,-32,-6,39,-53,-45,7
1522235548000496,-40,79,67,-13,-20,103,-7,16
1522235548009520,11,-41,35,-21,-28,33,-23,31
1522235548009520,-125,-29,-56,45,-74,39,-126,-99
1522235548023557,4,-65,16,-112,89,-40,10,-35
1522235548023557,127,72,31,-31,6,-64,74,33
1522235548030576,-17,-4,28,-86,45,-2,-6,-26
1522235548030576,71,117,82,-36,18,69,57,30
1522235548046618,19,34,-103,-31,-9,-111,-116,-13
1522235548046618,66,49,-27,35,-1,88,79,46
1522235548048624,38,-43,75,26,-13,-19,-80,-21
1522235548048624,-112,-51,-36,3,37,-28,67,-5
1522235548068677,-44,-45,-40,31,-34,-20,-18,-23
1522235548068677,-19,-3,7,8,45,-63,-7,6
1522235548070683,58,61,-26,39,-15,-2,-18,27
1522235548070683,-30,-48,17,22,-37,36,61,-15
1522235548083717,9,-85,-64,29,-19,4,-13,-6
1522235548083717,-109,-29,42,50,14,-17,11,-70
1522235548090736,81,68,-1,6,-19,17,-30,87
1522235548090736,-40,-43,-26,26,75,76,56,17
1522235548106778,-59,54,90,60,-44,-31,-43,33
1522235548106778,-73,-35,-13,4,-47,-35,-26,-23
1522235548107781,-23,12,-16,-11,-80,34,65,32
1522235548107781,61,45,-9,-14,95,-43,-36,-9
1522235548128837,-44,-73,-111,-2,-21,52,86,-5
1522235548128837,-36,29,79,30,31,5,-15,15
1522235548130842,-72,-37,-24,-14,10,-66,-1,-99
1522235548130842,65,11,22,42,-64,-40,-98,-3
1522235548143877,45,2,27,-16,-33,83,17,-9
1522235548143877,95,-21,-44,-5,46,-12,13,-23
1522235548149893,125,41,-25,-4,14,70,30,30
1522235548149893,97,-14,47,10,-26,-33,-9,73
1522235548166938,20,22,86,14,-8,-47,-35,-33
1522235548166938,86,31,-12,11,-3,51,-58,-39
1522235548167941,118,17,-29,7,19,-18,57,68
1522235548167941,-29,-45,-80,29,-31,48,31,-21
1522235548188997,-64,-66,44,66,46,83,77,-9
1522235548188997,34,16,27,19,-46,-116,-92,24
1522235548191002,-126,-110,-30,-41,82,-93,-30,-38
1522235548191002,99,95,38,-10,-128,66,-10,-18
1522235548203034,67,8,4,21,66,8,-8,-30
1522235548203034,-117,-17,7,10,14,-39,24,-38
1522235548212058,1,-26,-30,-12,9,-61,-8,15
1522235548212058,-122,0,7,-3,57,-41,78,43
1522235548227098,-118,-49,-34,-55,-70,-42,-57,-49
1522235548227098,-71,-7,66,-17,33,28,31,14
1522235548228101,-117,52,9,88,-21,-13,20,-69
1522235548228101,21,-2,-67,-1,50,34,-88,32
1522235548249157,-76,-21,73,28,16,-11,95,10
1522235548249157,-25,-33,-30,8,-15,13,-42,18
1522235548251162,-18,-84,-28,-44,4,11,-70,-92
1522235548251162,-40,6,52,-36,67,-83,-2,75
1522235548263194,72,46,-35,-32,-62,19,0,3
1522235548263194,15,-21,-10,-14,-32,-42,-34,-74
1522235548272218,16,-24,-66,6,5,3,57,52
1522235548272218,-54,-80,-23,-12,-55,-52,-106,-128
1522235548286255,34,53,-20,-21,13,-18,-48,84
1522235548286255,22,-10,-126,-55,15,20,78,73
1522235548288261,2,28,113,10,-45,2,-3,1
1522235548288261,22,19,48,61,42,-57,-17,-47
1522235548309316,92,46,-17,-3,-9,22,-37,-34
1522235548309316,18,11,-15,-36,-8,1,25,-8
1522235548310319,9,-54,-8,-6,25,42,28,4
1522235548310319,61,71,-29,-63,-29,-5,1,0
1522235548322351,-41,-45,-9,30,-61,20,-17,21
1522235548322351,112,41,45,13,40,8,-92,8
1522235548331375,2,10,-54,-37,35,40,38,-9
1522235548331375,7,-2,-8,54,-66,89,127,62
1522235548347418,60,-25,-20,9,20,-18,-21,-19
1522235548347418,-14,25,43,-31,39,5,13,17
1522235548348421,-68,-83,-85,-15,24,12,-13,-33
1522235548348421,107,125,42,-38,-25,-70,-55,77
1522235548369476,28,-1,31,36,10,80,37,-47
1522235548369476,4,31,-15,79,-112,0,-62,76
1522235548370479,127,-2,34,-10,53,12,29,47
1522235548370479,-104,-87,-32,-36,5,-70,-84,-64
1522235548382511,49,-54,-73,-34,38,-87,18,-67
1522235548382511,-70,-60,-17,-38,34,20,-13,20
1522235548391536,96,115,57,69,-89,113,-6,23
1522235548391536,54,-80,41,-62,-34,-3,77,87
1522235548406575,-69,3,-93,-19,43,-9,-54,-12
1522235548406575,45,-62,-32,-49,41,10,-3,-60
1522235548408580,51,25,-6,32,-44,8,68,85
1522235548408580,-26,66,26,16,44,58,13,-94
1522235548428634,78,6,-13,-7,-66,-2,-64,97
1522235548428634,-37,-92,-53,-23,-79,-50,51,27
1522235548430639,-128,-74,3,4,90,60,-38,-13
1522235548430639,127,-23,33,31,-6,-15,-17,-70
1522235548442671,-54,59,-38,-103,-2,108,60,47
1522235548442671,5,89,127,28,-56,-72,-60,-89
1522235548451695,-64,-81,-68,-57,8,-50,-34,-7
1522235548451695,-36,-90,-56,39,43,-4,-40,11
1522235548466735,35,90,79,1,11,73,87,-16
1522235548466735,92,-32,-29,-60,-45,38,30,23
1522235548468740,-83,-7,66,-83,20,9,1,20
1522235548468740,98,120,-10,-24,19,53,24,45
1522235548488793,-85,-98,-41,-47,-33,-128,-40,-29
1522235548488793,58,53,-28,48,89,59,21,-1
1522235548490799,57,46,71,65,-82,-32,5,23
1522235548490799,-9,65,14,54,-36,56,-81,14
1522235548511855,-82,-28,-20,43,16,8,86,-3
1522235548511855,-25,-70,-9,40,51,53,-48,17
1522235548512858,16,85,-9,16,-56,-63,5,65
1522235548512858,-98,-128,-63,41,81,103,45,9
1522235548526894,22,15,76,24,-16,-120,-14,-16
1522235548526894,6,57,-13,28,-10,51,21,-13
1522235548527898,-16,-25,8,62,7,16,-9,-46
1522235548527898,-102,-61,12,-45,-66,-13,-82,-6
1522235548548953,109,77,3,29,29,66,40,-12
1522235548548953,-92,-50,-44,-25,20,-38,24,39
1522235548550960,-64,27,1,12,-7,2,-40,-103
1522235548550960,-15,16,29,59,-82,-49,17,73
1522235548562991,-93,-21,63,12,82,82,-34,-37
1522235548562991,-73,-8,-18,16,-11,17,-21,43
1522235548572015,-7,-4,-45,33,25,-4,-24,4
1522235548572015,59,-42,24,24,-19,-8,34,-39
1522235548587055,19,-103,-89,82,-56,-13,-92,41
1522235548587055,99,6,42,104,73,-8,97,102
1522235548588057,112,-13,-3,108,-37,-11,-41,-122
1522235548588057,111,-37,10,55,41,60,25,19
1522235548609113,87,-101,-30,17,-24,-44,6,3
1522235548609113,99,-22,-22,13,24,-45,-30,-64
1522235548611119,112,-22,-17,9,-28,-33,-19,68
1522235548611119,-12,54,-60,-67,32,26,103,-41
1522235548623150,2,69,35,-43,-32,-12,-24,37
1522235548623150,-85,-54,-2,-94,-92,-42,-4,-84
1522235548632175,63,14,17,-99,127,37,45,-5
1522235548632175,90,38,-28,-96,-27,-60,-36,30
1522235548646212,-125,-66,36,-81,-22,9,16,55
1522235548646212,119,93,6,-67,27,29,43,47
1522235548648217,-75,20,17,-21,-65,-81,4,41
1522235548648217,-9,-91,37,-20,66,35,14,14
1522235548669273,-19,110,18,-23,48,86,-38,-80
1522235548669273,58,-128,-74,1,-46,-29,-35,-2
1522235548671279,-60,-25,17,26,-33,5,6,-22
1522235548671279,13,6,-5,21,19,-71,-94,-43
1522235548682308,121,-41,-2,30,-14,-17,70,23
1522235548682308,-19,-6,-16,-4,-4,35,-18,-58
1522235548691332,83,16,41,5,1,23,31,31
1522235548691332,67,37,-17,-4,3,-14,11,8
1522235548706372,74,-8,-20,1,-19,-31,38,-8
1522235548706372,-12,4,4,-3,-34,11,0,-10
1522235548712388,-48,-57,-26,-19,86,-13,-46,-14
1522235548712388,26,87,49,21,16,-14,34,-33
1522235548729433,70,-17,-23,3,2,40,-21,13
1522235548729433,57,44,46,53,32,-17,26,41
1522235548730436,-20,-47,4,-23,-45,5,-53,-31
1522235548730436,-20,36,-31,-31,-12,-8,31,-33
1522235548742468,-1,60,21,-5,-16,-7,-8,-47
1522235548742468,-47,-26,-37,-32,-8,-19,-70,20
1522235548751492,104,-71,25,-17,-56,23,50,2
1522235548751492,58,5,-11,10,-72,13,-11,6
1522235548766532,-79,-89,-71,-59,50,-1,15,6
1522235548766532,-84,1,24,8,29,-22,-44,-16
1522235548768537,98,20,3,-4,30,-4,-27,11
1522235548768537,-112,18,4,8,-63,3,29,1
1522235548789593,82,1,-4,-52,-43,-24,-34,27
1522235548789593,-30,78,28,-22,-25,34,107,35
1522235548790595,-13,-31,-39,-41,105,28,-51,-74
1522235548790595,-45,-38,8,28,-34,6,30,37
1522235548802627,-62,-94,-38,-21,-42,20,-26,-12
1522235548802627,-103,27,26,14,-10,-106,-43,-33
1522235548819673,127,71,23,37,-13,61,113,49
1522235548819673,101,9,-15,-36,102,4,7,8
1522235548825689,-71,-28,50,16,-48,27,22,-25
1522235548825689,127,-53,-17,-9,94,8,-7,-37
1522235548832708,-128,91,-37,26,-75,-47,78,32
1522235548832708,0,-88,49,4,37,4,-79,-23
1522235548848750,20,54,-29,-5,-19,-60,-75,-9
1522235548848750,-45,-32,-13,25,-72,40,51,55
1522235548850756,53,-55,-14,-20,38,-61,-29,-18
1522235548850756,-51,42,16,-27,6,9,2,10
1522235548862788,-36,-13,-19,-11,-61,-19,-3,-19
1522235548862788,3,-45,-17,-63,-4,12,5,-24
1522235548871812,127,-16,25,29,11,31,-33,34
1522235548871812,79,57,-5,-66,-42,-39,4,1
1522235548885849,-35,20,24,-59,127,33,-2,-21
1522235548885849,18,2,27,-30,-53,3,-15,6
1522235548892867,-44,40,-55,-128,-13,6,-18,-63
1522235548892867,-58,-76,-9,-42,-23,-37,-98,10
1522235548908910,-42,59,14,76,43,23,43,-88
1522235548908910,44,-92,-6,42,-10,39,18,23
1522235548910916,-28,56,28,93,-31,-28,-38,-8
1522235548910916,-88,-30,-52,20,37,-81,39,-42
1522235548922947,-24,4,10,48,-45,-40,-27,26
1522235548922947,0,-24,0,58,39,-9,-62,-23
1522235548931972,-122,-50,-8,-3,-33,15,-3,-30
1522235548931972,62,2,-29,23,-8,1,26,51
1522235548946009,127,120,16,84,12,44,105,112
1522235548946009,-97,-11,13,-10,21,-9,-18,-69
1522235548953028,110,50,21,15,-34,15,14,113
1522235548953028,-101,-115,-67,-12,-26,13,-17,-43
1522235548969070,107,3,13,9,38,-6,14,43
1522235548969070,91,119,16,66,3,-18,-9,22
1522235548971075,-105,22,13,-15,46,28,16,-60
1522235548971075,-53,-66,25,38,-62,35,19,36
1522235548992131,90,31,-4,6,-73,-54,-110,18
1522235548992131,-68,-23,-81,-116,-65,-48,-4,-39
1522235548993134,-75,-10,37,-20,89,14,-7,-23
1522235548993134,57,33,46,-18,-49,59,112,48
1522235549006168,-128,-86,-52,-29,46,-91,-112,-94
1522235549006168,45,35,13,-31,64,36,45,27
1522235549013187,99,-3,2,66,-72,-60,-79,23
1522235549013187,-39,-27,-2,20,66,81,68,7
1522235549029230,-35,-110,-47,37,-6,-15,36,-67
1522235549029230,82,29,15,3,9,14,-62,50
1522235549031236,-128,-34,-1,54,-31,-15,19,-30
1522235549031236,21,91,-9,-6,-3,-48,-53,-67
1522235549051288,109,32,15,41,-25,38,61,26
1522235549051288,-9,-56,15,31,13,14,-6,0
1522235549053294,72,-32,-14,-24,10,32,11,11
1522235549053294,127,99,33,65,-69,-21,-43,-45
1522235549066328,-31,-30,0,79,-41,-12,41,-29
1522235549066328,112,-42,30,101,-125,-16,52,6
1522235549072345,35,-18,-35,59,32,3,15,-20
1522235549072345,-52,72,-2,7,37,6,-46,27
1522235549089390,-17,16,13,-13,5,1,2,-49
1522235549089390,-110,-28,8,-19,-48,12,27,81
1522235549090392,47,-46,-20,-50,-64,-39,44,115
1522235549090392,93,28,23,85,-61,-23,-12,46
1522235549111449,-36,-98,-33,9,99,25,-29,-42
1522235549111449,95,108,-2,49,33,-4,-32,-61
1522235549113454,92,36,-10,-10,11,6,-1,-12
1522235549113454,0,-12,-30,-5,-44,-8,32,11
1522235549125485,127,31,93,7,-21,21,12,127
1522235549125485,-128,-54,-46,-61,107,13,-26,-53
1522235549134510,-123,-9,-2,-53,16,-16,7,-39
1522235549134510,111,4,-10,-122,11,13,-4,44
1522235549149549,81,1,15,-87,-73,-14,-4,75
1522235549149549,-87,-84,-62,-106,27,10,8,-112
1522235549150552,-21,24,2,-32,-26,-32,-64,-40
1522235549150552,-67,-59,13,-21,39,32,-19,11
1522235549171608,-89,11,-15,-64,-42,2,12,64
1522235549171608,50,56,13,-56,20,7,6,27
1522235549173614,95,-68,12,1,8,-17,18,53
1522235549173614,41,50,26,10,-81,-2,-39,-50
1522235549185646,-113,-111,-88,-97,109,60,-25,-92
1522235549185646,124,127,-19,-37,-33,9,65,77
1522235549194670,1,-74,71,48,-8,15,10,-8
1522235549194670,106,31,33,0,-11,0,108,53
1522235549208706,-61,-13,-32,-18,-35,-69,-97,-61
1522235549208706,85,-10,-40,47,-41,3,68,4
1522235549210712,111,35,7,16,-38,-7,-52,31
1522235549210712,-75,69,-16,-17,127,18,-83,-55
1522235549231768,-51,7,-63,124,-18,3,127,102
1522235549231768,41,50,109,127,-16,-2,-108,-1
1522235549233774,19,-32,-20,46,-46,-8,9,-90
1522235549233774,26,30,6,-39,62,29,51,14
1522235549245806,-8,-10,-32,-70,-79,-45,-128,-107
1522235549245806,-11,6,25,-66,37,3,-8,21
1522235549252824,3,67,-31,-61,-9,71,127,127
1522235549252824,-128,-128,-23,-71,-10,-4,63,-26
1522235549268867,45,79,65,-113,-44,7,-5,0
1522235549268867,-26,-38,-2,-57,45,-21,3,-84
1522235549274882,-58,54,4,-71,-12,44,-74,46
1522235549274882,-38,-84,-72,-95,20,6,39,-110
1522235549291928,127,12,37,-34,38,29,11,127
1522235549291928,0,-75,-10,-17,-41,-17,127,108
1522235549292931,-28,66,-20,-17,11,-19,-122,-93
1522235549292931,-53,24,-20,4,17,-53,-11,60
1522235549305965,-88,116,71,-5,-57,31,73,-64
1522235549305965,-50,-71,-72,-25,-4,-45,-86,-33
1522235549312984,-13,-23,-11,-19,99,80,118,58
1522235549312984,93,2,51,33,-128,-64,-58,61
1522235549329027,89,-52,-12,45,116,29,6,-2
1522235549329027,-107,30,-3,-49,-37,-29,-75,-32
1522235549331032,32,-87,-16,17,47,31,-46,2
1522235549331032,6,-20,-6,-13,12,24,28,40
1522235549352091,21,52,22,28,-20,-64,23,18
1522235549352091,-46,44,-8,-44,26,20,75,23
1522235549353091,-128,-10,33,-9,-66,-75,-59,-68
1522235549353091,32,20,-18,-65,-28,48,2,56
1522235549366125,126,28,5,-17,47,-7,51,61
1522235549366125,-44,13,8,81,-39,5,75,31
1522235549373144,89,-57,-16,102,56,12,-72,5
1522235549373144,-105,71,0,127,-90,-24,103,72
1522235549389186,-108,-82,-44,97,13,-5,-117,-127
1522235549389186,16,40,45,42,32,29,-91,-13
1522235549391200,62,72,22,116,-103,-1,60,13
1522235549391200,104,-45,4,60,72,69,-60,-20
1522235549411245,-77,-114,-58,-81,0,-47,0,-40
1522235549411245,-8,-20,2,56,-95,-65,-128,-88
1522235549413251,96,16,-5,-43,60,37,105,19
1522235549413251,68,71,3,-47,22,-8,-23,-7
1522235549426285,68,107,39,-11,18,6,99,55
1522235549426285,-65,-102,-12,-52,-39,21,-26,-55
1522235549432301,29,31,17,-87,70,-95,-37,-44
1522235549432301,127,70,-7,-38,-72,-16,-104,-6
1522235549449346,9,13,23,-47,-3,-1,-43,88
1522235549449346,45,-75,-66,-9,0,1,23,-21
1522235549450349,65,5,50,-26,-84,5,45,-14
1522235549450349,37,-65,-11,-32,106,-24,-56,-128
1522235549471405,33,77,13,-8,-31,32,-1,11
1522235549471405,50,45,-3,10,-66,6,-10,21
1522235549473411,-21,-39,-49,-10,28,-20,99,58
1522235549473411,54,-125,-10,-20,59,4,-6,48
1522235549485442,30,84,58,2,-56,23,52,50
1522235549485442,-18,7,-14,18,50,-76,-73,-20
1522235549494466,-39,62,-16,-25,-4,18,31,109
1522235549494466,29,-59,-8,-7,45,-4,63,-12
1522235549509506,-25,-41,6,12,-12,-22,-48,-82
1522235549509506,-23,108,27,3,-26,13,-25,28
1522235549510509,7,10,-15,-13,-52,-53,-33,-14
1522235549510509,-6,-1,2,-3,22,-16,-34,-50
1522235549531564,-72,-77,-41,9,-40,-5,44,-3
1522235549531564,-28,67,49,1,12,37,-39,15
1522235549533570,-87,-107,-49,-8,68,20,38,-89
1522235549533570,-7,28,16,1,-63,-10,47,29
1522235549545602,-16,-50,12,-2,-4,2,19,-65
1522235549545602,32,-42,-6,3,56,54,63,9
1522235549554626,75,36,-8,-1,-22,-3,-35,35
1522235549554626,-86,10,-7,-4,-26,12,-27,7
1522235549568663,-1,70,36,0,-3,13,11,56
1522235549568663,27,25,-17,3,-22,-22,-26,-34
1522235549570669,64,66,54,-2,13,16,29,40
1522235549570669,94,15,28,-4,-10,4,-4,-1
1522235549591725,127,-38,-54,-75,7,19,23,-4
1522235549591725,124,110,18,-58,27,1,8,2
1522235549593730,-11,-108,-40,-46,-3,-74,-81,-36
1522235549593730,-121,106,13,-76,-67,40,29,-14
1522235549605762,-110,61,-2,-33,96,71,-6,-20
1522235549605762,-34,9,23,-35,-3,-62,32,-15
1522235549613783,-21,-58,-12,-43,-90,-7,-22,28
1522235549613783,-103,-40,-5,14,101,42,23,-5
1522235549628823,-54,-22,4,5,-37,-26,-27,33
1522235549628823,-2,-38,8,15,4,67,69,76
1522235549630830,35,70,55,22,-17,-18,-69,-20
1522235549630830,-122,-68,-52,6,-21,-13,-22,-21
1522235549651885,-55,-5,6,22,14,24,-9,14
1522235549651885,-50,29,15,27,-35,-3,-30,-34
1522235549652887,-27,-24,22,-6,78,78,68,77
1522235549652887,95,-56,-33,-14,-78,-3,-49,-21
1522235549664919,-29,-8,-33,-6,8,-6,24,-35
1522235549664919,-56,-118,-20,18,5,4,63,36
1522235549673943,-16,44,-19,21,-80,-21,-113,-83
1522235549673943,54,126,75,2,78,64,67,59
1522235549688983,-38,-26,-13,-3,-87,-40,-119,-79
1522235549688983,-9,-91,-1,0,-1,-47,5,71
1522235549690989,-30,-126,-99,-4,5,81,97,1
1522235549690989,-56,89,75,18,42,-29,51,55
1522235549712045,45,-5,-6,13,-44,15,-86,13
1522235549712045,12,27,39,-17,-28,73,45,91
1522235549713047,-107,-46,-14,16,-17,-36,2,22
1522235549713047,-80,60,92,15,37,51,-52,83
1522235549725079,42,17,-80,15,12,-73,7,127
1522235549725079,27,-31,2,6,19,50,12,79
1522235549734103,76,38,24,0,14,-60,33,-2
1522235549734103,33,-128,-85,-8,8,-106,-97,-120
1522235549750146,59,79,41,6,-54,64,-28,-93
1522235549750146,51,-25,16,4,54,-8,72,-128
1522235549755159,49,33,47,11,-58,-3,-30,-118
1522235549755159,19,-128,-94,-18,0,37,-19,-116
1522235549771202,84,78,83,1,-35,-87,23,-102
1522235549771202,64,18,-40,3,66,-37,-36,-107
1522235549773207,42,9,6,6,-8,65,14,-68
1522235549773207,127,50,48,14,-76,-51,45,41
1522235549785239,-16,-107,-27,29,84,105,-71,127
1522235549785239,15,75,50,-26,-26,-2,-13,48
1522235549794263,-82,-45,-64,11,29,-32,-40,50
1522235549794263,49,80,27,38,32,-51,4,-28
1522235549808300,-71,-16,1,19,-52,-95,-6,108
1522235549808300,-68,-45,-8,50,8,21,-94,73
1522235549815319,14,64,44,3,14,78,65,102
1522235549815319,-87,-106,-114,-37,-20,-65,76,-61
1522235549831362,-58,92,33,37,-4,63,23,-13
1522235549831362,28,-101,-35,34,19,12,-5,51
1522235549833367,-117,53,84,28,-66,83,57,-72
1522235549833367,-104,-39,-16,17,13,-4,-13,82
1522235549845399,15,-74,-64,-18,56,-96,-84,-88
1522235549845399,75,126,6,-8,28,14,-5,11
1522235549854423,-67,-49,-12,1,91,-39,-6,-29
1522235549854423,116,78,65,7,-94,15,0,41
1522235549868460,-62,-85,-102,-12,94,68,126,-31
1522235549868460,39,106,93,28,-72,-42,-71,-5
1522235549875479,52,-79,-73,-43,-34,-3,48,49
1522235549875479,1,83,45,61,83,31,-64,-55
1522235549891521,20,34,68,-2,-6,-21,30,41
1522235549891521,18,32,-101,-42,-7,-69,-57,-54
1522235549893527,-14,-11,7,-12,-21,-44,28,114
1522235549893527,-67,-67,-49,-61,-26,27,-2,-25
1522235549914583,41,0,-14,-13,-3,38,31,97
1522235549914583,-27,-76,-4,-33,14,83,101,-3
1522235549915586,-49,44,30,-39,56,-28,-76,-31
1522235549915586,-34,78,26,24,77,-13,14,25
1522235549928620,70,-49,-35,-106,-71,28,10,45
1522235549928620,-114,-71,8,-55,58,17,45,-8
1522235549935639,-11,-27,-12,-33,-45,-34,-47,-54
1522235549935639,15,-69,-50,-11,-36,77,-7,76
1522235549951682,8,29,48,59,54,58,11,14
1522235549951682,-17,-66,24,58,-60,25,-40,8
1522235549953687,70,95,-28,68,10,-88,33,-15
1522235549953687,-48,-114,-21,65,-43,5,-75,8
1522235549973740,62,1,41,81,27,32,57,22
1522235549973740,55,-12,3,-2,-2,47,37,-35
1522235549975745,25,33,-36,-4,-30,-22,-42,-23
1522235549975745,9,3,14,-23,8,-8,46,12
1522235549988780,25,39,4,-30,-2,33,-15,68
1522235549988780,-77,-78,-15,-41,-46,-100,-32,-97
1522235549995799,56,40,-16,-3,62,78,6,67
1522235549995799,37,56,19,5,-41,-52,-8,31
1522235550011841,-88,-78,6,30,2,-33,3,-46
1522235550011841,19,28,-24,28,20,58,61,67
1522235550012844,-16,78,18,-12,23,-4,-109,-82
1522235550012844,19,2,-45,-33,-28,-35,90,74
1522235550033900,40,23,15,17,-37,8,2,-69
1522235550033900,-50,-77,-1,13,-53,7,-8,-11
1522235550035905,63,-40,-38,5,92,65,53,46
1522235550035905,8,-8,-41,-9,-77,-25,19,28
1522235550048940,-46,-63,2,-30,41,9,-72,33
1522235550048940,97,84,-3,50,47,11,-28,-39
1522235550054956,-12,-34,2,-28,-80,53,31,80
1522235550054956,-24,107,39,-22,44,64,-92,-98
1522235550072001,27,-79,-44,-44,34,9,123,113
1522235550072001,-12,108,50,-7,-62,-84,-79,46
1522235550074007,-128,-62,12,-45,-15,-36,-28,-28
1522235550074007,62,-100,-41,-49,34,-1,12,56
1522235550094060,11,60,-6,-2,24,-106,25,48
1522235550094060,108,30,28,25,-9,38,70,82
1522235550096065,-39,59,36,38,-10,-38,-37,-19
1522235550096065,-89,-92,-54,34,34,-16,41,37
1522235550108097,98,26,-5,9,-78,73,12,-13
1522235550108097,42,6,-5,35,54,-19,39,108
1522235550117121,-59,-76,16,44,19,39,24,127
1522235550117121,-21,-62,14,-8,-24,-53,-98,-18
1522235550131158,-16,111,45,-14,-19,-91,-67,-119
1522235550131158,-51,-70,-30,-5,-12,7,55,-22
1522235550133164,126,125,50,89,-47,-48,20,-36
1522235550133164,-36,78,-28,67,26,86,17,-12
1522235550154219,-29,-68,17,46,33,6,-65,24
1522235550154219,39,47,-26,-20,-57,-65,-18,106
1522235550156225,-63,-36,-22,-47,38,-15,-27,51
1522235550156225,-15,-80,5,-13,3,-46,-84,74
1522235550168257,-12,33,-15,-39,-58,46,79,-45
1522235550168257,-99,40,61,-50,26,19,2,-82
1522235550177281,37,16,-55,-32,-27,0,25,-121
1522235550177281,-48,37,44,5,-46,8,-35,-103
1522235550191319,-28,-28,-35,-20,39,65,47,-114
1522235550191319,-6,33,-35,-45,-15,-76,-50,-125
1522235550193324,49,-14,28,4,43,56,49,-39
1522235550193324,79,-15,42,4,-19,-61,-25,-105
1522235550214379,-28,50,11,-5,-22,-65,-6,-68
1522235550214379,-79,-13,-46,10,17,64,34,-35
1522235550215382,-5,-100,-47,12,-18,-72,-30,-54
1522235550215382,-5,-3,28,-71,11,55,11,4
1522235550227414,-9,10,-26,-42,19,-21,-17,83
1522235550227414,-38,-43,-30,-44,-5,35,15,-4
1522235550236438,12,-6,26,14,-22,27,-71,-30
1522235550236438,17,-18,-51,-1,31,-104,59,11
1522235550251478,-36,-17,56,27,-24,37,-104,-14
1522235550251478,74,-81,-88,23,-11,-13,32,9
1522235550253483,46,65,75,49,63,41,56,-30
1522235550253483,44,-43,47,-14,-46,40,10,-6
1522235550274539,19,73,-34,49,-13,-41,-21,-28
1522235550274539,35,-71,-1,5,66,-77,-56,7
1522235550275542,22,-95,-18,-22,-59,-14,44,28
1522235550275542,12,66,-49,-8,88,-46,-6,-9
1522235550287574,43,-16,16,21,-28,27,-7,-5
1522235550287574,23,40,76,32,54,-11,-17,23
1522235550296598,-68,-82,-75,-24,-20,13,31,-38
1522235550296598,31,124,-17,-7,-48,3,-88,-12
1522235550311640,-91,-96,-18,17,-2,-28,-17,-18
1522235550311640,16,63,-18,70,12,6,17,-110
1522235550313644,-7,32,-8,17,22,-12,-36,-6
1522235550313644,7,-72,-30,14,-26,31,72,25
1522235550333697,11,-4,-13,-18,31,38,17,-33
1522235550333697,15,-67,31,-8,7,64,40,-27
1522235550335702,-6,14,4,-5,-1,-29,-66,-65
1522235550335702,-30,-20,-8,-2,12,-13,-26,-62
1522235550347734,-27,-63,-16,0,-16,-9,39,32
1522235550347734,-22,88,30,-19,-63,-16,-27,42
1522235550356758,79,-80,-13,-16,25,34,-18,20
1522235550356758,103,-32,-36,-10,-8,42,81,70
1522235550371798,67,36,67,16,2,-96,-34,66
1522235550371798,-9,-2,-45,-33,-14,69,-25,64
1522235550372800,17,-15,64,51,8,-29,-90,1
1522235550372800,-30,18,4,-7,-8,13,62,-32
1522235550393856,-25,-3,-20,-11,-73,-47,10,-72
1522235550393856,-44,-64,-26,-12,-12,62,-18,-128
1522235550395862,2,119,25,-5,-9,57,16,-46
1522235550395862,-19,49,30,25,-49,94,-32,-61
1522235550407894,60,57,-41,-23,87,-6,19,-72
1522235550407894,-33,-82,74,-12,-109,-50,-65,32
1522235550416918,-52,-51,-31,-21,59,41,84,61
1522235550416918,-32,71,51,27,-45,-55,-74,75
1522235550431958,-30,50,-6,-40,10,45,-26,53
1522235550431958,-4,-16,-9,11,30,-29,27,77
1522235550432961,-125,127,-37,8,-49,6,10,90
1522235550432961,-122,-68,-24,-53,4,16,54,60
1522235550454016,-30,-34,29,45,31,-17,-69,61
1522235550454016,95,51,-58,15,20,-17,66,26
1522235550460032,-14,-48,12,-23,-35,-44,-66,3
1522235550460032,-48,40,55,34,64,-62,2,-3
1522235550468054,7,-63,-75,-6,-41,38,89,93
1522235550468054,-9,43,63,-6,12,-36,-59,71
1522235550477078,13,-24,-37,-22,-78,-12,56,40
1522235550477078,-2,-80,-12,-15,32,-14,-57,31
1522235550492118,24,64,23,11,3,-24,39,75
1522235550492118,55,-60,1,7,-38,1,39,34
1522235550493120,107,-15,-11,5,117,-9,39,51
1522235550493120,20,-19,31,-60,-65,-27,-52,-16
1522235550514176,55,38,-14,-89,23,-33,-78,7
1522235550514176,69,-35,-56,-85,-19,31,-19,-25
1522235550516182,16,21,63,-12,10,-28,30,26
1522235550516182,-53,85,-26,31,5,25,36,-13
1522235550528214,7,-45,-26,28,17,-26,49,-25
1522235550528214,-5,6,43,21,-32,-9,-42,-13
1522235550537238,4,-25,-36,25,-29,12,-29,-3
1522235550537238,83,-66,9,40,35,-9,53,-47
1522235550551275,-37,31,3,23,-45,-24,-13,50
1522235550551275,-15,50,-20,35,23,-7,34,18
1522235550553280,-18,-90,-11,-6,25,33,-16,-17
1522235550553280,41,17,17,17,-39,12,-47,3
1522235550574336,-70,66,83,9,40,-13,18,3
1522235550574336,-2,-52,-23,13,-64,-11,-44,0
1522235550575339,-27,-58,-20,-30,48,12,19,22
1522235550575339,80,-8,-18,-9,-11,5,10,17
1522235550587371,-7,-25,-2,-9,-10,38,19,-47
1522235550587371,34,27,14,-4,-5,-44,23,-52
1522235550604416,61,36,-19,-1,46,20,-38,-24
1522235550604416,21,-33,-53,-32,-10,26,25,39
1522235550611435,-8,-56,22,19,0,-8,-79,-81
1522235550611435,-20,83,-6,82,-16,-6,62,-35
1522235550613440,-38,-45,-1,71,62,-2,34,-31
1522235550613440,109,82,17,16,-16,9,-30,-4
1522235550634496,-82,-84,-61,-23,-28,29,26,11
1522235550634496,-42,-12,-32,-48,67,-1,-39,12
1522235550635499,-36,52,110,-3,-61,5,-30,16
1522235550635499,-38,-49,-67,-39,17,-82,-53,-41
1522235550647530,11,101,17,-19,-24,9,-17,-43
1522235550647530,82,12,18,-23,19,17,-5,33
1522235550656555,12,34,-7,-27,9,-7,-9,-27
1522235550656555,-7,-56,-58,-44,-26,-34,24,-34
1522235550670592,55,20,-7,-17,11,53,-79,17
1522235550670592,12,-75,23,7,76,47,-9,-30
1522235550677610,45,39,-12,7,-65,-31,45,4
1522235550677610,-72,-3,74,4,37,49,43,36
1522235550693653,-26,17,-67,16,-86,-95,72,3
1522235550693653,30,42,59,37,87,127,-57,83
1522235550695659,-25,3,11,-37,-70,-32,-15,61
1522235550695659,-47,-12,37,42,8,25,56,-19
1522235550707690,40,-125,-27,-26,-17,-61,-10,-14
1522235550707690,-51,86,40,21,-37,-46,25,9
1522235550716714,-70,-10,-20,-14,13,-7,-7,-5
1522235550716714,73,54,-14,6,-8,26,15,7
1522235550730752,-51,-45,20,41,20,-31,-65,24
1522235550730752,-22,-16,-2,11,-5,35,13,50
1522235550737770,22,96,-5,-20,14,-16,87,64
1522235550737770,11,-48,-2,4,-37,-23,-77,89
1522235550754816,37,-38,-59,-15,-13,-51,19,-45
1522235550754816,-75,-19,14,2,62,74,18,0
1522235550756821,21,-23,45,47,-38,-3,-42,0
1522235550756821,-74,-47,-19,10,19,-26,-28,-18
1522235550767850,-28,98,38,10,73,31,31,31
1522235550767850,-49,-16,-23,-1,-45,-62,-20,-90
1522235550776875,40,-19,-30,-32,-34,19,13,41
1522235550776875,-103,-22,-1,-5,-35,-13,24,43
1522235550790912,-52,25,28,29,16,74,-28,-37
1522235550790912,9,-75,-69,-16,-25,-27,41,-17
1522235550797930,14,5,-24,18,75,52,-20,-50
1522235550797930,104,81,40,8,22,52,12,-4
1522235550813973,16,1,30,7,-32,-78,4,-4
1522235550813973,83,31,45,-18,-8,-7,8,-26
1522235550815978,-91,-108,-96,-12,-30,33,-18,-90
1522235550815978,76,31,49,11,-33,-4,15,-50
1522235550828010,10,-16,8,-14,60,34,-80,-68
1522235550828010,-51,-5,-59,-16,9,-16,-7,-24
1522235550837034,87,-39,36,9,-60,-55,-17,-31
1522235550837034,-102,61,-13,-11,27,15,71,-14
1522235550851072,58,13,-11,-19,8,36,37,-63
1522235550851072,8,25,26,9,-32,-23,-2,-14
1522235550858090,34,71,5,-43,-15,10,-5,21
1522235550858090,1,13,-46,29,9,-3,-28,-13
1522235550874133,-32,-24,26,48,-18,9,12,25
1522235550874133,40,-35,-26,-15,-17,18,43,-11
1522235550876138,33,66,-24,36,14,-28,-88,-4
1522235550876138,36,-48,54,-2,12,1,2,-97
1522235550896191,-21,36,-14,3,-36,-59,3,-57
1522235550896191,12,-14,-38,-4,18,-20,-23,-95
1522235550898197,1,108,37,-43,-28,-17,14,-51
1522235550898197,-19,-90,-95,-40,19,-3,11,-26
1522235550911233,24,-22,90,7,0,54,36,104
1522235550911233,14,0,-42,-8,-10,-38,19,-24
1522235550918250,90,50,22,-1,32,51,-16,-109
1522235550918250,-30,16,64,-10,-46,-57,24,-86
1522235550934293,60,-27,-48,18,56,56,-31,-34
1522235550934293,40,45,3,-42,-27,25,-79,-3
1522235550935295,-2,-87,-31,16,-4,-20,50,103
1522235550935295,-62,-28,32,-1,-1,-11,-1,65
1522235550956351,-62,-35,27,11,-7,1,-2,41
1522235550956351,-34,-1,-16,-11,15,-15,-13,123
1522235550958357,-127,-15,-33,0,-7,12,1,73
1522235550958357,-29,-1,-8,6,-25,-20,-34,66
1522235550971391,41,-20,-23,-26,-11,64,99,31
1522235550971391,-81,62,-28,14,5,-23,1,-73
1522235550977407,40,100,88,26,42,21,60,27
1522235550977407,-12,-44,-15,17,22,33,-21,109
1522235550993450,15,-74,-18,-14,-12,4,46,82
1522235550993450,81,-64,13,-16,-60,-5,6,48
1522235551001471,75,2,-12,5,36,21,36,36
1522235551001471,-52,35,-8,-22,11,41,21,49
1522235551016511,127,94,-37,6,16,-33,11,-27
1522235551016511,-27,-72,63,-46,1,39,-27,18
1522235551018517,12,-54,6,-37,-59,-99,-94,-6
1522235551018517,90,19,-23,-44,59,8,31,62
1522235551030548,-34,20,-9,-20,-52,-3,47,89
1522235551030548,-46,51,9,30,34,-40,35,117
1522235551039572,30,-28,19,23,-4,44,8,-14
1522235551039572,-58,-27,-14,3,-24,-45,-66,-17
1522235551054612,18,23,-39,17,4,-18,51,4
1522235551054612,89,13,7,37,-4,88,-14,11
1522235551055615,-77,-28,34,-12,-33,-92,-35,59
1522235551055615,85,41,17,57,-13,20,-16,-98
1522235551076671,-86,-2,-44,-7,-14,-7,-12,-26
1522235551076671,13,61,7,-9,89,43,35,-89
1522235551078677,-13,6,32,-1,-43,17,-27,-23
1522235551078677,45,25,-22,27,36,-60,-32,-2
1522235551090708,-72,-128,11,-21,-10,-22,-75,-60
1522235551090708,30,98,-13,-34,9,45,29,25
1522235551099732,28,-9,-45,16,21,28,27,43
1522235551099732,51,-53,-8,-16,2,-69,-56,-56
1522235551113770,-10,121,89,32,-4,-3,-15,8
1522235551113770,-30,-128,30,41,8,-5,69,14
1522235551115775,-27,-19,-1,1,-31,-10,-15,7
1522235551115775,54,-16,1,-8,-19,116,68,103
1522235551136831,26,90,59,38,8,-45,9,10
1522235551136831,-7,-71,-52,-21,-57,-103,-114,-9
1522235551137834,25,50,-14,26,19,65,-13,-45
1522235551137834,-66,9,19,-8,7,-4,110,-40
1522235551149866,12,-22,-22,-41,13,116,-106,-43
1522235551149866,39,85,68,32,8,-68,-17,-26
1522235551158889,-50,-53,-108,-27,-54,-14,55,45
1522235551158889,58,8,74,18,85,54,34,-42
1522235551173930,-40,-67,-6,-13,-72,-5,-52,-44
1522235551173930,20,-31,-65,-23,22,-12,-13,52
1522235551175935,-41,-83,-55,19,18,-6,64,-74
1522235551175935,86,99,34,33,-45,75,-12,70
1522235551196991,-65,-79,-26,-8,12,19,-61,-63
1522235551196991,39,51,5,6,7,24,4,49
1522235551197993,-12,-2,-25,-7,16,-17,-23,-4
1522235551197993,57,43,8,-11,-73,-34,-33,-59
1522235551219050,67,-70,-8,-51,24,9,23,39
1522235551219050,10,-25,13,28,-27,-44,33,-10
1522235551221055,12,-71,8,11,38,10,60,-18
1522235551221055,-82,78,64,-12,50,4,-97,-38
1522235551234089,27,-47,-63,-29,-91,-73,16,9
1522235551234089,-12,-128,-38,-22,79,34,-38,-89
1522235551236095,9,110,43,-3,-32,-27,-28,-32
1522235551236095,-33,-89,-9,2,4,-1,4,-3
1522235551257151,0,-11,9,4,20,-6,-4,-12
1522235551257151,49,35,-15,24,-50,28,-25,39
1522235551258153,16,-36,42,-43,87,61,28,2
1522235551258153,-48,-42,-119,-35,-5,-94,-46,-52
1522235551270185,-28,21,43,10,-64,-9,-31,17
1522235551270185,-80,9,53,28,71,29,-25,-41
1522235551279210,21,51,-2,-31,-23,16,-65,-3
1522235551279210,-90,-26,-31,-46,-72,15,68,37
1522235551294249,-7,-18,-84,1,127,4,-81,-34
1522235551294249,-100,-12,67,33,-25,-29,95,90
1522235551296255,66,49,-1,-12,-66,-4,-36,-42
1522235551296255,-104,-75,-1,32,84,59,90,14
1522235551316308,77,69,-46,-17,-24,-62,-67,8
1522235551316308,-27,-66,-60,-90,-24,0,39,33
1522235551318313,-82,2,59,-6,8,18,-20,1
1522235551318313,45,1,-78,-27,-23,-35,9,3
1522235551330345,-78,-27,44,35,-26,9,24,79
1522235551330345,36,22,8,43,46,41,47,-21
1522235551339369,54,-58,-4,82,3,-44,3,7
1522235551339369,79,-55,-17,49,11,19,-48,-18
1522235551354409,-20,52,17,-96,8,-22,37,50
1522235551354409,69,-6,-2,-108,-81,-2,-45,7
1522235551355412,-48,-42,-11,-91,8,-10,-6,16
1522235551355412,0,22,18,21,2,-65,1,47
1522235551376468,43,-58,37,50,59,69,51,69
1522235551376468,16,-49,-12,40,-23,9,-61,-116
1522235551378473,-30,-37,-48,-51,7,-22,19,6
1522235551378473,-7,66,-6,-55,-25,0,-45,89
1522235551390505,25,10,-11,6,5,-18,28,31
1522235551390505,31,-33,35,24,-12,-63,-7,16
1522235551399529,76,-16,21,43,-29,34,67,17
1522235551399529,-61,-64,-44,13,19,21,-54,-113
1522235551414569,27,-25,-60,-11,-9,-23,-42,-75
1522235551414569,10,3,-27,53,10,89,8,83
1522235551415572,7,22,26,58,9,-109,-40,-74
1522235551415572,32,54,81,35,-19,89,25,46
1522235551436628,0,-75,-64,3,18,25,51,-47
1522235551436628,27,54,31,8,-12,-23,43,-86
1522235551438633,-32,-47,-37,-24,26,-5,-91,-96
1522235551438633,-43,-64,-41,7,-50,-5,32,-21
1522235551450665,2,63,53,11,-73,-21,41,-55
1522235551450665,-18,-26,-40,-21,86,81,-18,-4
1522235551459689,17,67,-32,-9,3,-9,4,-27
1522235551459689,-58,42,91,4,5,-46,-27,-68
1522235551473726,62,-27,-34,36,23,69,-67,-7
1522235551473726,-11,70,84,18,-56,-77,32,-89
1522235551475732,-8,-68,-31,-19,-55,-19,-49,-75
1522235551475732,17,-64,-101,-26,49,-19,-37,-126
1522235551496788,-31,60,25,-4,-27,10,1,-18
1522235551496788,8,48,10,25,20,-37,-62,-5
1522235551497790,-53,-34,33,-14,-7,17,72,66
1522235551497790,-10,56,-42,-20,-71,-22,-22,10
1522235551510825,-12,-9,-8,-10,10,-21,78,44
1522235551510825,-49,-68,-56,10,32,-17,-50,44
1522235551518846,36,-84,-59,1,-33,-6,82,66
1522235551518846,-31,97,92,45,56,6,-41,18
1522235551532883,31,-13,31,39,59,83,60,21
1522235551532883,-12,-77,-47,-25,-108,-52,19,0
1522235551541908,25,61,-26,3,45,72,0,-32
1522235551541908,100,75,61,-21,-11,-74,24,50
1522235551556947,58,-29,22,3,27,37,-29,-77
1522235551556947,81,-42,-32,-18,-20,11,20,-55
1522235551557950,49,0,8,-1,35,-6,-114,57
1522235551557950,-42,15,-27,-5,-60,12,52,26
1522235551569982,-50,-17,-17,-25,16,-31,47,11
1522235551569982,-23,123,84,6,6,19,10,64
1522235551579006,-82,106,-5,8,-23,-3,4,59
1522235551579006,48,-26,0,36,49,32,37,72
1522235551594046,-50,-86,-37,15,-24,-38,-21,48
1522235551594046,-53,-22,-28,-2,-66,-16,-51,7
1522235551596052,-1,-62,28,14,63,66,-50,24
1522235551596052,3,-86,-28,-26,36,-72,-4,5
1522235551617107,-103,2,6,-29,-19,1,8,-33
1522235551617107,-93,29,6,-33,-3,-19,-5,26
1522235551618110,-44,73,30,-10,15,39,41,-60
1522235551618110,4,-74,-38,-16,-43,-9,83,101
1522235551630142,22,-62,10,13,26,21,-71,-84
1522235551630142,44,73,59,-1,14,-32,9,11
1522235551639166,-31,67,29,-5,-7,-14,32,43
1522235551639166,58,2,11,15,17,14,2,-30
1522235551653203,103,45,-10,9,-4,-26,-44,-35
1522235551653203,89,-72,-13,-61,-33,15,4,-32
1522235551660222,8,-36,-16,30,13,-18,34,-72
1522235551660222,51,-75,-15,13,-10,-22,-112,-19
1522235551676264,-12,41,23,18,33,-29,-51,-41
1522235551676264,53,-108,-41,27,-30,52,61,38
1522235551678270,-81,4,7,9,-23,22,-14,-36
1522235551678270,-59,-32,-56,-14,-21,7,-70,-44
1522235551690302,70,40,12,-31,-9,-41,-41,102
1522235551690302,-93,54,-20,4,43,116,32,41
1522235551699326,92,-86,15,22,12,-83,14,-7
1522235551699326,-31,-23,9,-27,-25,27,88,17
1522235551713363,11,-63,-46,-26,11,78,-25,19
1522235551713363,-9,-3,40,-11,-15,-25,73,28
1522235551720382,25,-8,-36,-22,5,0,29,63
1522235551720382,2,39,40,9,-26,6,23,-19
1522235551736425,61,68,12,16,4,-45,-17,50
1522235551736425,-90,-12,7,-4,70,-18,-52,-11
1522235551738430,77,-25,-3,-5,-23,25,-42,11
1522235551738430,40,-26,-3,-14,6,48,54,-5
1522235551750462,5,110,93,-19,-8,-19,25,-4
1522235551750462,21,7,-22,-22,-21,-5,-31,-6
1522235551759486,5,-23,15,6,-10,11,77,28
1522235551759486,32,19,-4,-10,23,11,-113,31
1522235551773523,-75,-3,12,36,-42,11,55,8
1522235551773523,-63,-104,-65,-19,-8,-1,53,-32
1522235551780542,9,112,34,25,-2,-26,-75,-28
1522235551780542,20,-20,-25,18,10,21,64,-36
1522235551796584,-41,-25,6,2,67,-1,32,-9
1522235551796584,-8,81,-34,7,-7,-49,7,8
1522235551798590,-52,-35,-2,-21,-4,-28,7,-8
1522235551798590,68,32,9,22,-25,8,-51,-6
1522235551819646,59,12,-18,5,-7,-44,12,8
1522235551819646,-37,74,76,22,68,57,2,-19
1522235551820648,-27,3,-9,9,-79,-46,12,55
1522235551820648,-26,-60,-11,-19,81,65,-79,-30
1522235551833683,-28,80,29,2,-25,15,-16,-28
1522235551833683,48,-47,-14,14,-16,-15,17,19
1522235551840701,10,83,-18,-6,5,-24,-1,7
1522235551840701,15,-41,49,16,16,0,33,1
1522235551856744,-35,-128,-95,-30,-39,-38,-8,-15
1522235551856744,-51,101,77,14,34,15,26,69
1522235551858750,-19,-21,-25,-36,-51,20,-38,-32
1522235551858750,12,-15,-13,13,83,13,96,10
1522235551878803,51,-92,-27,-5,-42,-20,8,39
1522235551878803,27,11,-6,-5,-49,-24,-83,-28
1522235551880808,11,-43,-15,14,64,6,38,18
1522235551880808,-73,12,-5,-11,-38,-34,11,53
1522235551893843,19,99,3,6,1,-4,5,10
1522235551893843,-22,-77,-45,-4,-10,7,-25,-54
1522235551899859,-43,-31,18,-2,-13,14,19,32
1522235551899859,22,65,-10,20,-34,-45,12,-29
1522235551916904,-60,-3,13,17,-17,3,19,-37
1522235551916904,72,-21,0,13,11,-8,43,18
1522235551917907,-6,103,-14,7,-4,-41,-35,67
1522235551917907,13,-64,22,32,55,2,-32,2
1522235551938962,41,9,-9,-27,-13,24,6,32
1522235551938962,9,86,4,2,-5,5,64,-53
1522235551940968,5,-127,-21,-20,24,37,-43,-21
1522235551940968,-66,49,-11,-27,-68,4,9,73
1522235551954003,-3,-72,29,3,53,5,-7,-33
1522235551954003,16,-44,-42,-12,-41,6,-23,-13
1522235551960019,64,21,0,-3,68,47,38,31
1522235551960019,-57,19,-11,-51,-27,37,-58,-20
1522235551977064,-40,-12,-2,8,-8,-27,-23,-10
1522235551977064,54,24,7,-10,-33,-43,-34,50
1522235551978067,-23,-2,49,3,-6,-47,56,1
1522235551978067,13,49,-34,-13,0,-2,0,-6
1522235551999122,2,-34,-9,6,-24,-8,28,5
1522235551999122,-9,15,22,4,66,39,-36,-85
1522235552001128,-44,-74,-12,-6,-75,-55,-63,-22
1522235552001128,31,100,45,-2,64,74,3,-15
1522235552013160,-21,6,-45,-25,-48,18,-5,-7
1522235552013160,32,9,14,21,28,-8,-51,-44
1522235552022184,32,-15,-14,6,22,29,65,-54
1522235552022184,-29,-57,-15,3,-19,-59,24,-74
1522235552037224,16,73,0,9,3,31,27,20
1522235552037224,40,-63,17,5,-13,17,-24,12
1522235552038226,-47,47,-44,-16,10,17,-40,-38
1522235552038226,7,-14,-1,11,-38,-58,49,51
1522235552059282,-55,47,31,-6,40,-18,-15,-33
1522235552059282,0,-10,-41,-43,-24,70,80,-26
1522235552061288,34,-18,-15,-26,-5,-40,-102,-26
1522235552061288,-31,-52,26,-3,31,-42,-40,-20
1522235552073320,65,-15,5,6,-20,47,-23,45
1522235552073320,57,23,-7,15,25,8,13,53
1522235552081341,-49,-35,-5,5,-29,-24,-38,-102
1522235552081341,13,-1,-7,12,-19,25,14,-37
1522235552096381,39,73,75,14,21,15,0,-32
1522235552096381,33,-40,-8,7,-10,-21,52,14
1522235552098386,-75,-37,-5,13,-51,-21,-21,-68
1522235552098386,-1,89,8,20,22,33,34,-123
1522235552119442,-55,-57,-15,10,4,38,-55,-93
1522235552119442,46,-115,-101,-5,35,-37,-41,19
1522235552120445,-15,127,124,56,-8,-8,46,62
1522235552120445,25,-2,-2,-5,-10,-19,-3,51
1522235552132477,2,-28,-36,2,19,45,46,28
1522235552132477,-35,-29,-22,-18,9,-14,22,-15
1522235552147517,36,-45,-24,-19,10,13,-1,31
1522235552147517,-99,-37,53,-8,1,-21,-32,-95
1522235552156541,-41,-36,5,-10,11,14,8,33
1522235552156541,-42,61,27,15,-24,-26,-47,76
1522235552158546,52,-34,-32,-22,18,11,45,-16
1522235552158546,62,-30,-32,-10,27,-1,-16,39
1522235552179602,48,-45,-23,2,-7,-22,32,-7
1522235552179602,52,20,12,16,-5,-40,-43,-2
1522235552180606,75,113,17,13,-8,39,12,42
1522235552180606,51,-68,-36,17,-9,-19,-40,68
1522235552192637,37,-92,-57,-29,4,0,13,71
1522235552192637,-13,20,58,13,-7,-20,-10,39
1522235552201661,-36,46,-6,11,-27,26,52,22
1522235552201661,-24,46,-31,-22,-40,-17,-69,-18
1522235552216701,-31,-8,42,25,60,-16,17,13
1522235552216701,-66,-49,-63,11,1,33,8,-4
1522235552218706,24,-6,28,-46,9,-3,47,19
1522235552218706,26,-37,2,2,10,10,80,5
1522235552238759,-25,-9,12,-15,-18,8,-62,-21
1522235552238759,-18,78,10,-37,-40,-71,29,-17
1522235552240765,-1,-31,-15,2,0,21,-107,-40
1522235552240765,-26,86,28,9,24,15,60,-53
1522235552252797,-31,-16,-6,1,-59,-86,4,49
1522235552252797,-75,-4,35,-6,-12,25,-27,-35
1522235552261821,9,63,1,30,67,50,38,86
1522235552261821,118,72,-24,-18,-48,-28,-25,60
1522235552276860,82,76,46,34,3,19,6,52
1522235552276860,12,-59,-11,22,24,-44,-56,-18
1522235552277864,-89,15,9,20,16,-13,-44,14
1522235552277864,-88,18,15,-3,-31,68,-39,43
1522235552298919,39,47,-5,9,43,-46,69,44
1522235552298919,-6,-66,-32,-8,-42,13,12,-22
1522235552300925,14,-4,2,35,8,-18,-6,33
1522235552300925,-2,-29,-24,27,24,-7,-33,-37
1522235552312957,-7,67,-7,-21,-83,12,4,-4
1522235552312957,1,-53,-3,-8,71,-6,-11,-32
1522235552321981,20,-66,-44,-25,12,36,8,-6
1522235552321981,-23,-3,21,-1,-22,-18,20,71
1522235552337021,3,-6,-11,-36,-9,-33,-12,-32
1522235552337021,44,98,31,-6,18,6,-8,38
1522235552338023,18,4,-2,-13,4,-22,-6,-59
1522235552338023,14,-3,-48,10,-29,-40,-21,12
1522235552359079,-42,-90,15,-8,10,19,-5,-121
1522235552359079,20,-27,-16,-23,-10,32,67,46
1522235552361084,7,38,-3,-13,4,-10,50,62
1522235552361084,-25,-47,-14,6,-8,16,-48,-28
1522235552373116,-33,29,17,10,10,31,-31,1
1522235552373116,19,-21,-38,-35,18,50,9,38
1522235552382141,-53,-35,-5,-16,0,3,-24,-50
1522235552382141,11,40,34,12,15,-7,55,49
1522235552397180,-1,-5,-19,10,-15,-19,5,23
1522235552397180,-37,-67,5,31,26,11,-11,-46
1522235552398183,-33,-50,-25,-22,-40,0,30,41
1522235552398183,12,-51,13,15,34,-22,0,-61
1522235552419239,75,10,18,-24,10,10,-34,-34
1522235552419239,4,84,24,12,-33,-42,38,57
1522235552421244,9,-20,14,12,7,9,-16,-16
1522235552421244,-50,-66,-44,-38,17,3,-5,-3
1522235552433276,59,62,20,23,-19,11,-1,32
1522235552433276,16,-24,3,-16,-16,-27,-37,55
1522235552442301,-28,12,16,8,29,28,10,1
1522235552442301,-13,-70,-67,-22,7,29,-6,-35
1522235552456337,84,22,3,-3,-9,22,-21,42
1522235552456337,-99,-25,-13,-20,-39,-42,42,-26
1522235552458343,50,4,10,-17,-14,-5,20,15
1522235552458343,25,-63,-36,-21,24,16,-45,3
1522235552479399,-27,32,41,33,35,16,37,-2
1522235552479399,-1,-11,-10,5,-7,40,-29,35
1522235552480402,31,-1,-37,22,13,1,9,12
1522235552480402,-29,96,60,-1,-39,-14,-42,4
1522235552492433,-53,-11,-18,-16,18,-33,1,71
1522235552492433,-50,-3,-2,-10,5,-21,-8,-54
1522235552501458,-28,-32,-41,-12,-2,23,41,-11
1522235552501458,7,60,56,5,-11,32,8,20
1522235552516497,-23,-82,-14,16,0,-61,-12,-26
1522235552516497,50,88,7,5,-21,0,-11,-3
1522235552518503,40,39,-37,-23,-27,-31,-24,-5
1522235552518503,-1,27,17,25,37,-18,23,19
1522235552546577,-121,-88,-22,-7,-29,52,29,-42
1522235552546577,7,12,-1,0,23,30,-87,-60
1522235552548583,-1,-48,50,-7,-37,-24,15,-37
1522235552548583,-20,20,-31,-1,17,-24,-34,6
1522235552552594,77,-73,13,-12,-32,32,17,10
1522235552552594,-15,9,-18,-8,27,-7,75,11
1522235552561617,-15,53,10,6,-52,-26,-45,-100
1522235552561617,-55,-77,-24,-9,15,9,68,18
1522235552575655,38,-31,20,13,-7,-57,-38,-61
1522235552575655,-13,81,-15,1,-15,54,71,-17
1522235552582673,64,-16,-4,-5,24,3,-71,10
1522235552582673,-7,31,2,5,-18,17,78,32
1522235552598716,11,-46,-11,7,13,-18,-42,-40
1522235552598716,16,-18,10,8,-11,28,5,-31
1522235552600722,9,3,-17,0,7,-49,9,19
1522235552600722,17,20,42,4,-18,-4,-36,-32
1522235552612753,63,35,-2,-14,10,43,11,19
1522235552612753,-42,-14,3,7,14,-36,-35,-9
1522235552621778,1,-72,-20,22,-18,-3,24,-10
1522235552621778,-3,67,45,38,-43,-3,-71,-114
1522235552635815,8,32,-3,80,12,-25,34,-33
1522235552635815,28,-40,-3,61,-9,-19,-18,-45
1522235552642833,-49,-23,28,29,39,36,46,-24
1522235552642833,34,-3,-22,7,-10,22,7,55
1522235552658876,3,-7,-11,-42,3,32,29,-22
1522235552658876,8,-2,22,-15,-38,-70,-93,34
1522235552660881,-28,-4,-12,-44,2,25,51,21
1522235552660881,-8,-40,57,-31,47,-18,15,-11
1522235552672913,53,102,-17,-40,8,25,54,48
1522235552672913,-41,-11,12,-61,-10,-6,5,63
1522235552681937,-1,59,30,6,-29,11,-64,46
1522235552681937,-40,-128,-31,9,-18,-49,34,-8
1522235552695974,52,56,7,7,6,15,-15,-15
1522235552695974,-25,-20,0,0,16,17,35,-16
1522235552702993,50,-11,-23,-21,6,-37,-73,-110
1522235552702993,-2,42,-10,58,6,-6,25,76
1522235552719036,-18,-106,-32,50,20,85,-37,-4
1522235552719036,64,69,35,15,-28,-46,45,37
1522235552721041,8,-73,-27,-11,40,19,22,58
1522235552721041,-46,-20,-16,-43,2,-29,37,31
1522235552733073,42,-13,12,-29,-12,0,-29,-35
1522235552733073,37,20,-16,-20,1,-15,21,9
1522235552742097,45,-13,-8,-23,-1,48,-16,-47
1522235552742097,27,41,11,-41,7,-5,-53,-36
1522235552756134,-39,-23,7,-17,-19,-73,-20,25
1522235552756134,5,47,31,-8,22,47,24,30
1522235552763153,-6,3,19,23,8,-29,-20,0
1522235552763153,-14,-33,-30,-16,-47,46,52,-35
1522235552779195,-21,1,-10,-19,42,-34,-93,-7
1522235552779195,17,-61,4,-1,0,39,45,-16
1522235552781201,-31,-18,10,-14,-6,79,9,61
1522235552781201,45,40,-5,6,-13,-28,7,-27
1522235552801254,-120,15,25,3,-18,-51,-3,-38
1522235552801254,6,-39,-33,6,-7,6,-24,1
1522235552803260,-61,12,10,26,3,-27,0,39
1522235552803260,60,-12,35,12,31,83,10,-55
1522235552815291,-55,65,25,3,-10,-26,-2,-11
1522235552815291,-51,-21,-19,8,-2,1,5,37
1522235552824316,-22,-1,14,14,-14,-24,-4,-7
1522235552824316,1,47,20,21,-4,-7,16,37
1522235552839355,49,38,-38,9,6,-24,-40,17
1522235552839355,21,17,23,-3,-30,0,14,-32
1522235552840358,34,-101,-43,2,35,12,10,32
1522235552840358,-14,-32,-2,-26,-9,1,-10,7
1522235552861414,6,67,7,-11,5,2,-11,59
1522235552861414,19,-34,-30,-5,12,12,12,31
1522235552863420,5,15,15,-3,11,-3,43,-23
1522235552863420,-7,-21,-27,-12,-31,-50,-45,-43
1522235552876454,20,61,24,-12,-13,53,32,40
1522235552876454,-16,-18,-33,-9,46,-9,39,7
1522235552882470,-49,12,16,-3,9,10,-15,-68
1522235552882470,32,-18,25,-3,-3,-14,-36,48
1522235552899515,-62,-52,-29,-9,-27,-16,19,-29
1522235552899515,-39,-6,-7,-2,0,62,-16,-70
1522235552900518,2,105,45,3,-16,-16,25,62
1522235552900518,32,-49,-27,5,-20,16,-60,-4
1522235552921574,-27,-68,-15,2,53,-38,-5,4
1522235552921574,26,54,31,6,-19,-2,4,-3
1522235552923580,3,-26,-25,11,22,-13,22,-19
1522235552923580,-71,26,-4,-4,-33,-5,19,24
1522235552935612,72,38,24,11,1,30,-1,-13
1522235552935612,-97,-42,-7,-5,43,-47,19,15
1522235552944636,-5,73,17,-6,-14,-18,-80,-37
1522235552944636,27,-113,-65,7,-19,-2,62,-3
1522235552959675,27,35,17,-13,9,-74,-60,-24
1522235552959675,-20,19,0,8,-24,-5,31,37
1522235552960678,-3,-57,-6,2,-35,17,-15,-22
1522235552960678,3,81,8,3,61,-69,-53,-5
1522235552981734,-28,-125,-13,-13,-60,-8,15,-24
1522235552981734,56,16,2,4,11,64,-11,-55
1522235552983739,-33,-9,-7,-22,-40,-88,-33,56
1522235552983739,47,110,31,-6,0,6,10,29
1522235552995771,-40,-45,-36,-2,4,42,56,71
1522235552995771,14,82,71,22,25,10,-79,-17
1522235553004795,-53,-43,4,6,-11,33,108,32
1522235553004795,3,7,-20,-20,-15,16,0,28
1522235553018833,53,-2,-22,-13,-44,-44,3,-8
1522235553018833,-43,-23,-26,3,18,37,-16,-7
1522235553020838,28,-5,14,13,17,1,-35,-24
1522235553020838,-42,18,22,0,-18,38,52,21
1522235553041894,63,59,0,-2,28,58,39,3
1522235553041894,-77,-116,-35,-6,-10,-11,-45,-31
1522235553042896,16,82,44,-6,-16,-29,-100,-88
1522235553042896,-76,-6,-16,-4,32,36,89,102
1522235553054928,-67,-52,-32,9,23,-71,-41,37
1522235553054928,58,127,89,3,-11,24,61,18
1522235553069968,48,-53,-35,9,11,-7,-15,87
1522235553069968,30,24,-16,7,6,2,-11,58
1522235553078992,13,12,25,3,-17,27,-20,-49
1522235553078992,24,9,-18,13,37,-16,53,55
1522235553080998,6,-126,-56,-16,-17,-75,-22,-15
1522235553080998,-4,59,26,2,-15,22,-31,-23
1522235553102053,-19,16,-2,-10,37,39,63,-50
1522235553102053,-9,-16,-10,8,-47,-45,-34,0
1522235553103056,10,-15,-64,-32,22,55,13,-75
1522235553103056,-37,-34,51,13,33,-5,-14,-40
1522235553115088,83,19,6,21,-44,2,56,-3
1522235553115088,-32,-45,-37,-22,2,-53,-26,-72
1522235553124112,-25,79,43,25,20,78,53,62
1522235553124112,87,-128,-33,-12,14,-22,-110,-9
1522235553139152,-43,-32,35,-11,-10,3,36,19
1522235553139152,66,79,25,10,12,37,6,10
1522235553141158,-19,-23,1,5,-32,-55,51,-41
1522235553141158,17,14,-11,9,20,18,-61,-37
1522235553162214,-34,-36,-2,11,7,27,15,-6
1522235553162214,-51,-33,-51,-8,-4,-6,-61,-107
1522235553163217,8,-3,21,-5,3,12,60,1
1522235553163217,-10,28,16,-26,12,6,-8,-20
1522235553175248,18,44,18,-15,9,5,61,-36
1522235553175248,52,-34,-4,-20,-73,-85,-60,-29
1522235553184272,41,26,8,16,53,65,-16,-7
1522235553184272,-26,14,59,16,13,2,93,-66
1522235553199312,28,19,-10,14,-15,-9,-56,-104
1522235553199312,-3,-19,-31,-27,-2,10,0,-66
1522235553200316,-8,72,12,5,-40,-52,-20,-14
1522235553200316,16,-105,-39,0,-30,-29,-34,-26
1522235553221371,67,80,76,21,34,31,-49,-49
1522235553221371,0,-100,-10,-5,-57,-18,84,-49
1522235553223376,-8,62,18,-7,62,-17,-53,-5
1522235553223376,-38,88,9,47,-9,52,27,-44
1522235553235408,33,-99,-88,-44,-2,36,48,95
1522235553235408,-8,-44,-62,-9,0,20,5,38
1522235553244432,-22,65,104,13,50,-74,7,7
1522235553244432,-33,26,26,14,-62,-28,5,34
1522235553259472,-51,9,-9,7,-7,-88,-41,20
1522235553259472,30,18,28,4,10,22,-3,126
1522235553260475,37,35,9,-20,2,23,-51,25
1522235553260475,34,-42,23,31,-21,-16,65,19
1522235553281531,-18,-28,-7,0,-1,-30,-41,23
1522235553281531,18,6,5,8,105,30,57,98
1522235553283536,6,-43,-49,-18,-92,14,-3,-58
1522235553283536,-4,12,4,-21,32,-18,17,54
1522235553295568,-40,-34,3,-5,-53,18,26,0
1522235553295568,-20,-57,-49,15,19,-46,-123,14
1522235553304592,49,8,-2,6,-57,1,17,34
1522235553304592,98,27,-23,-13,35,6,21,54
1522235553319632,25,-99,-56,-13,11,-64,64,27
1522235553319632,-48,69,47,4,10,3,-55,46
1522235553320635,-15,-102,-50,-1,-34,49,3,20
1522235553320635,-51,7,17,-10,0,-17,21,51
1522235553348709,20,20,1,-1,17,30,60,86
1522235553348709,-51,-66,23,8,-15,-11,20,-16
1522235553350715,-18,47,27,10,-1,-17,-63,22
1522235553350715,55,-52,-43,-12,50,31,-3,2
1522235553355728,-22,87,83,28,3,108,-28,-22
1522235553355728,-7,52,62,6,-29,-23,-4,20
1522235553364752,-127,-29,-60,-16,5,12,67,-14
1522235553364752,-13,-54,-7,-4,-73,-40,-22,-31
1522235553378789,-61,-50,0,11,11,10,-28,13
1522235553378789,26,108,43,-1,-67,38,-7,3
1522235553380795,27,-16,-2,48,107,-35,57,-19
1522235553380795,51,-22,-46,-40,-57,-8,-58,-34
1522235553401850,54,-5,-18,-7,38,-36,60,-16
1522235553401850,77,-82,-35,1,-28,20,40,14
1522235553402853,-26,-48,-17,-18,0,10,-11,43
1522235553402853,-32,-47,-21,15,35,16,52,-88
1522235553414885,33,37,18,-18,-50,-18,-40,-3
1522235553414885,9,-38,-19,-19,35,-2,-27,-27
1522235553423909,54,7,-42,11,13,11,-21,-10
1522235553423909,-3,14,-17,-6,-9,-30,-30,-2
1522235553439952,-21,80,9,-21,-34,-25,-70,-37
1522235553439952,-75,-38,-16,21,76,50,49,6
1522235553446970,10,-52,-30,-19,-54,4,10,33
1522235553446970,3,-25,3,2,-5,-53,-17,27
1522235553462010,-35,-56,-35,1,7,7,21,-7
1522235553462010,27,15,15,4,-28,-28,8,38
1522235553463013,88,8,5,8,24,33,-66,-2
1522235553463013,-98,3,25,7,10,-46,-7,-36
1522235553475045,-61,55,-13,-7,21,39,-29,-12
1522235553475045,16,-91,-43,-5,-60,11,18,-24
1522235553484069,-12,-36,13,-5,27,-19,-18,-10
1522235553484069,46,48,10,-6,-31,-4,27,40
1522235553500112,-16,-81,5,8,57,-4,-65,9
1522235553500112,-8,92,6,7,14,36,6,-26
1522235553505125,1,10,21,-9,-38,-10,-1,51
1522235553505125,24,-97,-44,-3,31,16,15,13
1522235553522170,-51,-59,-17,-2,-39,18,32,7
1522235553522170,68,51,5,14,-25,30,-37,-28
1522235553523173,-29,-18,-11,5,38,-70,-26,-50
1522235553523173,93,27,1,-20,-2,32,6,-3
1522235553535206,-96,-51,-11,-6,-19,45,-15,15
1522235553535206,27,48,1,-16,-8,-5,29,38
1522235553544229,17,-50,-19,7,-6,17,4,3
1522235553544229,26,11,88,31,41,20,39,1
1522235553558266,127,108,7,-16,1,4,-17,65
1522235553558266,102,-123,-35,-14,-44,-50,23,-57
1522235553565285,-84,24,-12,-13,26,29,-3,9
1522235553565285,1,56,3,17,7,29,-33,10
1522235553581327,23,-8,-24,-4,16,50,58,70
1522235553581327,-98,20,16,7,16,-71,32,61
1522235553583333,-14,6,-34,-11,-64,-24,-54,-48
1522235553583333,-33,60,-34,-10,13,-15,-71,69
1522235553595364,-14,19,15,3,-23,0,0,58
1522235553595364,-96,-3,-30,-10,13,-14,45,-39
1522235553604389,-23,-6,15,-2,-5,7,14,44
1522235553604389,-6,-63,4,15,35,2,10,9
1522235553618426,94,-12,43,-1,-38,-62,-39,-31
1522235553618426,-70,-26,-12,-10,56,19,-28,49
1522235553625444,-29,93,17,13,-33,18,67,28
1522235553625444,-95,-37,2,-14,26,-29,-96,-108
1522235553641487,70,18,26,0,-17,3,70,16
1522235553641487,-31,-59,3,3,11,0,-82,-128
1522235553643493,5,-46,-5,-9,5,-32,9,27
1522235553643493,30,-81,-54,-21,-53,41,26,-42
1522235553655524,-9,18,29,15,12,-57,-19,-36
1522235553655524,48,89,13,-11,-2,-17,-59,-66
1522235553664549,9,36,-17,8,-26,31,13,11
1522235553664549,-56,-31,14,7,14,-24,30,-22
1522235553678587,-9,80,-17,-10,2,36,14,-63
1522235553678587,-42,-45,-12,-42,-56,-12,-54,-24
1522235553685604,26,33,21,7,23,26,51,18
1522235553685604,11,37,37,1,-1,13,-79,61
1522235553701647,-56,-13,-30,19,3,-56,-62,-109
1522235553701647,39,-5,-8,19,26,5,66,33
1522235553703653,-19,62,40,12,-4,-8,-11,-13
1522235553703653,-9,6,18,8,-45,-3,-27,9
1522235553715684,3,-54,-29,-4,28,79,0,-24
1522235553715684,68,43,0,2,0,-56,48,-9
1522235553724708,11,-7,10,5,-54,-47,-28,16
1522235553724708,4,-10,-29,-8,50,36,83,-1
1522235553738746,-28,65,42,8,10,-114,-128,-49
1522235553738746,29,18,9,3,-1,15,-21,20
1522235553745764,14,-78,-83,-22,23,89,71,-19
1522235553745764,-8,127,76,19,-24,-78,-36,15
1522235553761807,-14,-84,-27,-8,-22,44,33,-1
1522235553761807,-10,33,10,0,0,33,-36,-44
1522235553763813,-56,7,14,0,6,-16,7,-107
1522235553763813,13,-91,-71,-20,-10,3,1,-119
1522235553783865,20,89,33,11,21,10,-23,-86
1522235553783865,-75,-40,-3,7,-10,-8,21,-128
1522235553789882,-12,-30,62,13,3,17,4,-60
1522235553789882,-51,-49,-64,-26,3,-42,12,15
1522235553798906,14,54,26,9,-12,-7,-7,43
1522235553798906,5,55,6,17,-8,-62,19,127
1522235553804922,-75,-53,-27,6,19,-40,-80,66
1522235553804922,-44,24,51,-11,-18,39,76,24
1522235553821967,-26,23,-83,-11,-2,5,38,-45
1522235553821967,37,-26,4,1,49,53,-34,45
1522235553822970,119,87,-52,-7,15,-38,51,3
1522235553822970,77,50,39,8,-14,-19,16,27
1522235553844026,48,16,3,-7,2,44,13,33
1522235553844026,69,32,-38,-24,-24,-22,-6,52
1522235553846032,60,13,26,1,31,55,-29,99
1522235553846032,50,-60,-40,53,6,-12,-1,59
1522235553858063,-5,-30,-9,55,-23,42,93,67
1522235553858063,-31,10,3,30,-26,-6,12,88
1522235553865081,-8,-21,12,15,30,-71,-24,55
1522235553865081,-64,-14,-11,-42,-11,-36,-57,46
1522235553882127,3,-6,-6,-34,-2,9,47,11
1522235553882127,1,7,16,-32,22,-8,-25,-54
1522235553883129,7,27,8,-35,-45,-5,-25,-53
1522235553883129,25,-8,-7,-13,9,61,-5,-44
1522235553904185,56,-62,-6,-14,-10,-30,-21,-70
1522235553904185,-93,48,40,2,39,2,92,-33
1522235553906191,80,-49,31,-7,-30,-21,-14,20
1522235553906191,-19,60,6,9,-10,70,-8,-51
1522235553918223,2,-96,-32,8,48,-36,-14,90
1522235553918223,-6,-53,5,-11,-32,35,18,32
1522235553927247,7,-13,-12,-5,-33,-14,-29,24
1522235553927247,-33,-49,3,-13,27,-19,56,111
1522235553941284,-9,58,35,-22,-65,-15,-14,59
1522235553941284,47,-13,-26,27,58,38,-33,-29
1522235553943289,-57,-39,-20,6,-17,-66,-46,20
1522235553943289,-67,-60,-23,2,6,34,-17,10
1522235553964345,-72,21,8,7,3,-68,4,32
1522235553964345,40,2,-40,0,-2,72,59,30
1522235553965348,22,47,4,0,16,53,-49,8
1522235553965348,-19,-68,-17,-13,-27,20,28,-95
1522235553977380,-9,-15,-4,-2,14,11,-5,46
1522235553977380,-36,-60,-15,-14,-27,-12,-15,-1
1522235553986404,23,-7,-19,16,29,-7,18,-9
1522235553986404,93,-4,3,-12,-42,43,-19,26
1522235554001444,-88,58,26,6,41,-40,-21,-35
1522235554001444,66,-52,-13,-9,-19,-1,-9,6
1522235554003449,-96,-22,-23,-49,-14,22,28,-39
1522235554003449,75,111,58,-9,13,-5,-33,23
1522235554024505,38,-45,-23,-36,-22,36,3,1
1522235554024505,75,35,75,-16,17,-29,-74,4
1522235554025508,-20,-43,-14,2,31,-7,98,-26
1522235554025508,114,112,27,-3,-50,-79,-17,-2
1522235554037539,73,-7,13,23,24,115,62,-5
1522235554037539,5,55,-5,28,-35,-41,-15,26
1522235554046564,38,-55,-7,29,33,76,76,-23
1522235554046564,-42,40,14,10,-1,-13,-9,-29
1522235554061604,-39,-77,-14,17,-21,-38,-12,21
1522235554061604,-7,-36,-51,14,13,8,27,-14
1522235554063609,48,96,44,4,-10,-13,-69,9
1522235554063609,-53,-66,-75,11,15,-39,23,-52
1522235554084665,-39,-22,61,24,20,29,39,22
1522235554084665,-63,-26,-26,3,-19,-38,-48,-23
1522235554085668,18,73,19,2,-11,23,13,-14
1522235554085668,26,37,22,13,21,23,-13,31
1522235554097699,26,12,-27,-16,-1,42,-83,18
1522235554097699,-28,-104,-27,-9,-39,-32,31,16
1522235554106723,-90,68,39,13,59,63,2,37
1522235554106723,-14,-76,-3,-7,-45,-49,-11,-54
1522235554121764,45,23,-53,-19,19,23,-23,15
1522235554121764,-88,-24,7,8,-5,20,1,-20
1522235554123769,-20,-22,-31,-9,-34,63,-13,-34
1522235554123769,81,-53,-13,-10,15,-69,64,20
1522235554143822,8,-21,-21,-1,25,-35,-35,-8
1522235554143822,-16,41,31,-2,-30,-36,-33,-2
1522235554145828,25,37,33,-8,0,-16,36,0
1522235554145828,1,11,-31,-1,16,60,-16,6
1522235554157859,-4,-39,-3,-7,-20,52,28,4
1522235554157859,-24,-46,9,-10,4,-55,-39,36
1522235554166884,-42,-25,21,14,-14,-23,-42,6
1522235554166884,0,23,14,15,46,68,-6,-62
1522235554181924,-32,53,12,14,-7,15,54,14
1522235554181924,63,-13,-14,-13,-17,1,41,20
1522235554182926,-27,-9,-36,-14,-15,-7,-11,33
1522235554182926,28,-81,-19,2,27,-33,-23,22
1522235554203982,-51,50,28,3,13,-38,-15,18
1522235554203982,58,110,22,13,-12,57,110,9
1522235554205987,0,-94,2,4,7,-119,-59,-21
1522235554205987,-13,20,28,12,10,32,17,-4
1522235554218019,90,-23,-21,-10,-3,-19,-10,-61
1522235554218019,-71,78,21,-6,15,30,-21,24
1522235554227044,40,-26,-30,-1,-19,7,36,-14
1522235554227044,29,0,22,-9,-18,-16,-48,-3
1522235554242083,-2,-65,-8,14,-1,-42,11,-3
1522235554242083,34,-84,-26,-13,7,-14,-58,-11
1522235554243086,13,45,12,-1,-15,22,44,22
1522235554243086,-81,-57,-24,3,-1,103,67,29
1522235554272164,5,79,26,7,13,-51,-75,-55
1522235554272164,18,52,5,-7,2,-29,-13,42
1522235554273166,-66,-97,-37,7,9,-9,48,-11
1522235554273166,27,-28,27,2,-33,-34,-38,20
1522235554278179,-17,6,-5,-18,-31,2,51,2
1522235554278179,27,-25,-41,1,81,-7,-24,-32
1522235554287203,22,64,48,12,9,20,-43,7
1522235554287203,58,-4,-30,-15,-9,19,22,33
1522235554301240,-68,41,36,-15,-30,39,29,-14
1522235554301240,-25,-5,-1,5,4,11,-39,-13
1522235554303246,127,28,-35,-3,-22,-5,32,17
1522235554303246,-107,-21,1,3,21,-32,-7,-15
1522235554324302,-2,-108,-21,-5,6,-52,-44,-38
1522235554324302,39,98,64,8,-9,4,60,-3
1522235554326307,-42,63,37,-20,9,-23,-84,-3
1522235554326307,-12,-23,-39,-1,-42,18,5,-6
1522235554338339,2,29,-14,-8,-26,-108,30,35
1522235554338339,114,5,38,-10,-7,82,63,58
1522235554346361,-33,-73,-15,16,55,-48,-81,-55
1522235554346361,75,27,61,-3,-53,-69,81,-44
1522235554361401,-76,15,2,8,59,102,-1,18
1522235554361401,-24,-14,-20,-8,-42,67,-9,7
1522235554367416,39,83,54,18,4,-48,88,17
1522235554367416,-26,-19,-33,-4,14,12,-70,3
1522235554384462,54,-25,-35,9,-11,100,102,16
1522235554384462,22,44,11,6,5,-46,-117,23
1522235554385465,-13,-16,-3,-9,-40,15,121,-65
1522235554385465,38,29,-9,-2,53,1,-56,-5
1522235554397496,54,-22,20,1,-22,-37,-17,5
1522235554397496,-94,-106,-45,-12,6,2,5,-87
1522235554406520,-7,-35,-26,-22,-48,8,79,-1
1522235554406520,28,127,57,32,48,-56,-64,14
1522235554421560,21,-5,17,-3,53,59,8,49
1522235554421560,98,-45,-21,-13,-38,-76,-6,-62
1522235554423566,7,-38,8,9,-16,65,44,21
1522235554423566,71,-46,-61,-16,15,-15,-55,-51
1522235554444622,-35,30,-5,-13,-66,26,57,32
1522235554444622,35,26,9,-7,40,-6,-47,32
1522235554445624,-12,44,28,9,-44,-62,-98,-6
1522235554445624,-24,-29,-23,-3,18,-72,-79,11
1522235554457656,-90,-118,-54,6,-8,-43,1,-84
1522235554457656,-11,88,48,0,4,55,28,20
1522235554466682,-20,-47,-9,-10,-17,52,-37,-25
1522235554466682,8,17,-17,22,3,39,28,17
1522235554480717,14,-46,14,-24,-39,-98,-126,-48
1522235554480717,-59,-51,-29,6,9,-101,-6,-53
1522235554487736,-26,16,40,28,0,72,59,18
1522235554487736,-7,-2,-19,-25,27,51,-19,27
1522235554503779,0,107,51,11,48,-16,-2,-25
1522235554503779,-38,-21,-26,15,-28,64,-12,-27
1522235554505784,87,-8,-94,-31,-1,-124,44,34
1522235554505784,-96,-78,52,4,-75,21,42,-39
1522235554517816,15,-17,-44,-2,-43,67,-2,35
1522235554517816,-16,12,48,29,81,-38,26,-62
1522235554526840,66,-8,-47,-11,60,8,-17,21
1522235554526840,51,-5,32,11,-3,99,35,-11
1522235554540877,-49,-68,-7,44,-20,-72,-56,38
1522235554540877,39,58,5,-16,8,-1,127,-15
1522235554547896,-40,-43,-5,-16,-5,11,-33,-10
1522235554547896,28,26,-22,-23,-8,-41,53,42
1522235554563939,52,45,-1,-9,14,-12,-26,-12
1522235554563939,11,-76,-25,-3,-27,22,32,62
1522235554565944,58,104,16,-3,68,-24,-27,88
1522235554565944,-65,3,31,-21,-57,43,98,109
1522235554577976,53,7,-16,-22,72,23,16,29
1522235554577976,41,-72,-26,-13,-54,12,-16,-12
1522235554587000,-58,36,9,4,58,-34,-78,-55
1522235554587000,6,84,33,-17,-54,52,-46,-84
1522235554601037,38,39,-21,-17,20,-51,40,12
1522235554601037,-12,-14,-5,0,5,18,11,-15
1522235554608056,-70,-16,45,42,-19,30,-50,-23
1522235554608056,21,-73,-28,26,-27,-19,35,-20
1522235554624098,-22,3,12,-18,21,31,-31,-29
1522235554624098,2,91,6,29,-21,-1,-102,5
1522235554626104,35,-105,-2,15,-23,-2,58,-11
1522235554626104,-39,25,-25,10,-10,27,-17,6
1522235554638136,-48,-100,7,0,76,15,52,-51
1522235554638136,11,32,15,-28,-58,8,-6,85
1522235554647160,-37,-52,-27,-13,-28,58,-51,-105
1522235554647160,117,43,9,3,35,-28,41,-21
1522235554661198,-24,6,-36,-11,-38,14,-5,-13
1522235554661198,-10,-9,0,18,27,2,-8,34
1522235554675234,25,-29,-1,-4,17,-18,0,14
1522235554675234,-128,-54,-13,-16,2,-98,-48,-64
1522235554684259,74,-26,16,22,-68,-4,25,9
1522235554684259,-40,50,16,-11,52,30,40,1
1522235554686264,-13,33,-36,-20,-21,1,-80,-20
1522235554686264,53,15,45,21,63,-40,105,108
1522235554706317,51,12,-17,-32,-53,-2,-23,-77
1522235554706317,-20,-51,-3,-27,-12,31,20,34
1522235554708323,96,17,-17,-28,-11,-47,77,12
1522235554708323,5,26,-32,-2,28,-2,-39,48
1522235554721357,73,104,49,7,-10,16,62,127
1522235554721357,-19,-31,-25,5,-14,7,-8,74
1522235554727373,-69,-73,-22,11,1,39,-12,106
1522235554727373,-30,33,61,26,6,-33,36,-16
1522235554744419,-73,-32,29,38,-11,7,69,58
1522235554744419,79,-1,-20,2,-19,-26,-35,-19
1522235554745421,17,55,-20,2,54,64,8,-53
1522235554745421,8,-76,-43,-25,-34,24,-31,-80
1522235554766477,31,68,35,12,9,17,-1,-122
1522235554766477,-15,18,45,24,59,5,-1,-65
1522235554768483,8,-8,6,12,-56,1,65,-43
1522235554768483,14,-71,-50,-28,-14,-22,-28,-97
1522235554780514,-81,-21,-8,12,38,-13,-116,-53
1522235554780514,-29,-41,-14,-13,-5,35,70,16
1522235554795554,28,35,50,49,-3,40,68,-12
1522235554795554,27,94,-27,-16,-13,26,-1,5
1522235554804578,-30,-23,28,4,-36,-32,-17,13
1522235554804578,-32,19,-23,-5,13,-10,-70,-70
1522235554805581,38,-39,-10,-23,3,-20,-106,-57
1522235554805581,-43,-35,-14,6,-15,17,48,-53
1522235554826637,8,-34,-26,-2,-7,-33,-8,-86
1522235554826637,-32,83,46,29,32,-99,15,-128
1522235554828642,-8,-85,-48,-34,18,31,-36,-92
1522235554828642,59,79,34,12,17,92,49,-86
1522235554840674,1,-63,-22,-6,-7,8,-26,-112
1522235554840674,22,58,-2,13,-11,11,72,-36
1522235554849699,-90,-108,-49,-34,-17,-35,-84,79
1522235554849699,5,79,34,18,38,-7,42,31
1522235554863735,21,45,-12,-5,-15,-11,-26,89
1522235554863735,-62,-49,-3,-25,-28,38,25,108
1522235554865743,-51,14,-5,12,5,-43,-25,104
1522235554865743,-4,125,68,2,-17,-51,-31,127
1522235554886797,30,12,0,-6,23,-46,35,116
1522235554886797,22,-71,-16,-30,-43,-2,-21,2
1522235554888802,-4,-22,32,14,1,7,66,72
1522235554888802,-10,-108,33,-2,-7,-37,-51,-13
1522235554900834,37,-37,-36,-6,8,48,22,-1
1522235554900834,83,83,-26,9,-2,-15,-80,-16
1522235554909858,12,2,33,9,-3,6,73,-27
1522235554909858,56,-87,-60,-14,7,49,40,-21
1522235554923895,-29,33,31,3,-1,2,-20,-52
1522235554923895,44,-110,-91,-12,-2,22,-13,-32
1522235554925901,63,120,52,-23,20,25,83,46
1522235554925901,54,-28,-28,-2,-14,26,-122,-63
1522235554946956,28,-5,-16,-12,-13,-30,-3,73
1522235554946956,-71,-96,18,27,-13,-52,-16,-82
1522235554947959,86,53,27,18,21,7,-17,-3
1522235554947959,-2,93,29,-4,-49,-3,-28,-88
1522235554959991,-79,52,3,-12,86,24,-83,-93
1522235554959991,30,-29,14,-2,-52,33,70,65
1522235554969015,-68,-31,-30,77,35,-118,-48,52
1522235554969015,38,-32,-10,49,40,111,127,127
1522235554984055,28,17,10,13,-42,12,54,44
1522235554984055,100,45,27,-4,32,-24,-68,24
1522235554986061,-76,12,-15,-23,-66,-34,9,16
1522235554986061,-23,10,-4,-38,23,24,39,30
1522235555007116,6,64,-35,-4,33,-35,41,62
1522235555007116,11,36,-2,-22,0,58,63,33
1522235555008120,71,-81,6,-32,-60,-7,13,7
1522235555008120,-30,-98,-55,1,17,-65,-103,38
1522235555020151,3,-30,15,-8,12,22,62,20
1522235555020151,-68,78,72,10,12,32,43,14
1522235555029175,-56,-63,-14,-13,-9,14,-11,-6
1522235555029175,-45,10,23,-20,-29,-33,-73,-66
1522235555044215,-23,-113,-54,-17,60,44,69,60
1522235555044215,16,-35,-49,-15,0,20,-27,-4
1522235555046220,44,97,77,-8,-62,4,2,-16
1522235555046220,-22,-37,-16,19,36,-20,-34,27
1522235555066274,54,-82,-33,3,-26,-42,-42,26
1522235555066274,-70,92,83,21,22,-68,-17,36
1522235555068279,-19,-94,-33,-2,11,35,-69,-87
1522235555068279,-62,-80,-9,-13,-77,-10,60,-16
1522235555080311,-36,90,6,-4,-42,-84,-128,-64
1522235555080311,21,-42,-17,2,56,40,18,52
1522235555089335,122,-8,-37,-31,-50,-39,25,-5
1522235555089335,-101,77,-6,-5,5,3,-28,-19
1522235555104375,-9,-78,-37,8,3,-3,-1,-29
1522235555104375,4,-24,14,14,-1,15,-66,-26
1522235555105378,56,30,24,21,20,17,66,20
1522235555105378,92,-27,-24,-25,-7,1,42,1
1522235555126434,-7,-15,-2,-1,-17,-44,17,-26
1522235555126434,-47,-66,-33,-7,-33,-39,22,4
1522235555128439,2,27,-4,7,42,-5,-70,-32
1522235555128439,0,-93,-54,-25,-38,-86,-25,38
1522235555140471,-5,28,102,32,25,-7,39,88
1522235555140471,34,-20,-22,10,-2,47,-20,-36
1522235555149495,-51,25,-2,-4,-24,9,-72,-43
1522235555149495,-28,-62,-12,-9,20,-40,65,24
1522235555164534,-33,48,60,-2,-34,40,-63,17
1522235555164534,57,-34,-16,1,21,-19,9,-23
1522235555165537,5,6,17,-3,10,38,53,26
1522235555165537,58,52,51,19,1,3,1,35
1522235555186593,-91,-95,-47,-1,-7,53,16,-47
1522235555186593,2,98,7,0,-14,-19,-34,-27
1522235555188599,-60,-49,5,13,11,23,34,-14
1522235555188599,77,87,48,6,9,50,45,44
1522235555200631,0,-34,-27,-14,5,1,-10,-9
1522235555200631,-29,-57,-11,-3,-32,-25,-67,-106
1522235555209655,-56,-3,-9,-4,17,-14,36,99
1522235555209655,-77,15,-4,-16,-21,-58,-52,-53
1522235555224694,-24,39,-23,-1,18,36,74,-62
1522235555224694,-27,65,-1,-5,-4,-35,18,46
1522235555225698,78,13,21,-3,5,39,19,-22
1522235555225698,-92,51,1,12,-21,21,-36,-34
1522235555246753,54,-13,-13,7,-40,52,-32,28
1522235555246753,81,22,-24,-6,50,9,34,-63
1522235555248759,123,24,2,-11,-12,-35,-33,10
1522235555248759,-22,-31,1,11,2,44,-29,-47
1522235555260791,3,13,-5,-5,-4,-39,52,-9
1522235555260791,-20,-8,17,12,-7,24,-33,69
1522235555269815,-32,23,-34,-13,14,-40,37,64
1522235555269815,22,38,51,12,29,35,-50,-17
1522235555283852,55,30,22,8,-29,22,30,65
1522235555283852,-19,-2,24,3,10,-17,-44,-57
1522235555285857,-98,-66,-36,-14,6,39,-68,11
1522235555285857,35,-43,-13,-27,-9,-34,-7,-3
1522235555306913,31,-3,-12,-11,-21,-44,-27,-28
1522235555306913,-34,-9,-2,22,-24,67,76,112
1522235555307916,64,10,15,-6,50,47,-83,-110
1522235555307916,-5,-42,-39,-10,-6,42,69,62
1522235555319948,5,20,71,-5,3,-4,0,28
1522235555319948,-72,-74,-57,-9,-25,-28,-37,-16
1522235555328972,23,54,-14,5,8,-6,-22,-31
1522235555328972,21,-17,14,20,26,15,25,28
1522235555344012,3,42,-36,-8,5,-3,-23,-84
1522235555344012,29,-52,-42,-32,-52,25,-19,26
1522235555346017,-34,8,15,2,54,79,63,-29
1522235555346017,89,-6,-2,7,-4,14,12,25
1522235555367073,3,-12,-10,7,3,-28,-37,-4
1522235555367073,16,-88,-3,7,-32,-9,-59,-35
1522235555368077,-56,27,-2,-6,27,-56,58,26
1522235555368077,-55,-13,-29,-8,-5,-11,21,-40
1522235555380108,52,-28,-13,-15,-11,34,10,-21
1522235555380108,-21,57,33,16,20,6,14,-5
1522235555389132,116,16,-7,17,-44,-36,8,24
1522235555389132,16,37,41,10,60,27,10,102
1522235555403169,-13,-49,-14,1,-5,-18,-25,-95
1522235555403169,74,45,-4,5,20,-35,52,28
1522235555410188,-72,0,14,-8,-28,-69,-77,-30
1522235555410188,44,28,10,7,-13,-29,-13,33
1522235555427233,-26,10,-23,2,8,28,11,-29
1522235555427233,-20,-61,6,-1,30,17,39,-45
1522235555428236,-15,-6,0,-5,-29,4,-47,25
1522235555428236,25,-64,-40,1,-20,24,57,-43
1522235555440267,-12,72,44,1,31,39,-15,-43
1522235555440267,6,-66,-42,-5,26,-24,42,82
1522235555449292,-46,14,13,-16,-20,49,-39,-55
1522235555449292,-58,-54,-54,-10,-4,45,-40,-26
1522235555463329,0,-40,-18,7,6,-9,-53,37
1522235555463329,-64,47,14,5,-14,-50,110,92
1522235555470347,-4,-97,-4,9,-2,-10,-40,-43
1522235555470347,10,36,8,-7,6,-30,-22,-24
1522235555486390,-81,37,-21,-8,-18,42,74,106
1522235555486390,83,62,47,19,8,-17,-63,-54
1522235555488396,37,42,18,2,-13,-4,23,-2
1522235555488396,10,6,4,14,19,-20,1,-47
1522235555500427,72,-70,-9,-10,-24,-45,-50,57
1522235555500427,80,78,-16,-21,-6,-15,-16,-9
1522235555509452,5,1,26,-3,-7,16,62,47
1522235555509452,5,-41,-17,3,-13,-23,-60,-7
1522235555523489,-35,92,19,4,31,-3,9,-74
1522235555523489,-3,-54,-14,-25,-38,47,-94,-40
1522235555530507,1,-3,-10,-15,8,-43,46,75
1522235555530507,-52,60,21,4,-18,-22,7,6
1522235555546550,54,16,4,-3,9,31,7,46
1522235555546550,-19,-10,1,18,1,-5,21,6
1522235555548556,52,39,9,9,16,-2,-9,28
1522235555548556,24,-88,-14,3,6,-15,27,-15
1522235555560588,-35,6,34,23,-11,-47,-105,-64
1522235555560588,-65,15,18,-2,-16,13,34,8
1522235555569611,-14,-62,-9,1,-12,-10,34,-75
1522235555569611,19,3,-2,2,36,18,-14,-20
1522235555583649,-45,-33,14,-9,-2,44,33,55
1522235555583649,-65,-16,-39,-15,4,-31,-58,-12
1522235555590667,14,-19,-14,15,6,-9,46,-31
1522235555590667,3,48,29,-4,5,50,-54,15
1522235555606710,79,-20,-44,-10,-11,-41,35,-37
1522235555606710,-61,50,-19,-7,1,16,0,-3
1522235555608715,18,-38,-6,19,8,21,49,43
1522235555608715,-46,22,-8,-12,-16,12,36,8
1522235555620747,80,-6,15,28,2,23,10,82
1522235555620747,35,17,-19,-7,6,-35,-14,-3
1522235555629772,-12,41,21,-2,-10,46,-51,-16
1522235555629772,54,-23,7,-2,-26,21,72,13
1522235555642806,80,-12,-5,3,19,4,-54,-8
1522235555642806,26,-92,-23,-19,-20,-5,-18,27
1522235555651830,32,108,26,-2,21,23,2,-36
1522235555651830,49,41,-8,-2,22,5,-5,52
1522235555666870,-65,-14,21,-8,-20,-9,87,-3
1522235555666870,66,-31,18,4,-10,-7,-40,-16
1522235555667873,38,32,-9,5,1,-28,32,14
1522235555667873,54,63,-14,-15,-11,-44,-75,32
1522235555688928,-13,-81,-13,7,18,8,-24,-9
1522235555688928,-48,7,10,0,-5,-8,58,2
1522235555690934,-7,-67,6,12,-16,-22,-40,3
1522235555690934,34,42,10,10,44,47,46,20
1522235555703968,-71,-30,-39,-6,-20,-34,-14,-19
1522235555703968,103,14,15,16,7,-14,-20,-30
1522235555709985,-117,-51,-14,-23,5,18,50,10
1522235555709985,22,31,21,-2,-25,-12,47,21
1522235555727030,-3,-14,-60,-13,10,-20,-29,-22
1522235555727030,55,-18,7,5,31,66,16,8
1522235555728033,-81,-38,-24,-1,-16,-20,-1,-1
1522235555728033,-32,-6,33,11,-3,-35,-24,7
1522235555749088,11,-69,-38,-17,-12,61,-11,-46
1522235555749088,36,36,6,-6,1,-64,82,67
1522235555751094,-25,-32,-5,0,-8,-15,-20,-10
1522235555751094,-46,-39,-18,-18,-15,-64,-58,-51
1522235555763125,28,46,-8,-8,19,37,124,-4
1522235555763125,48,-24,38,26,13,30,-9,46
1522235555772150,-24,-8,13,-11,-2,32,14,-41
1522235555772150,-29,-81,-32,-1,-1,-5,20,-18
1522235555787189,8,122,72,2,20,-30,-48,-42
1522235555787189,-31,-64,-14,-23,-10,13,-40,-5
1522235555788192,51,-37,-26,-5,-29,0,-29,0
1522235555788192,-58,-5,-12,8,1,36,-32,-48
1522235555809248,46,3,18,8,-14,-28,44,42
1522235555809248,-64,42,12,4,28,34,9,1
1522235555811254,60,-13,-34,-12,-24,-11,-39,35
1522235555811254,-44,59,34,8,-19,-69,-56,-74
1522235555823285,-43,27,29,17,18,-8,27,51
1522235555823285,-74,-24,-9,-6,-6,16,38,-12
1522235555832310,122,8,3,9,9,-6,-77,-38
1522235555832310,15,22,-14,-13,-12,-99,65,4
1522235555846346,24,-86,23,3,14,90,-94,23
1522235555846346,17,91,29,21,11,-6,-11,-14
1522235555848352,26,1,14,-7,38,61,80,42
1522235555848352,51,-41,-11,5,12,13,-6,4
1522235555869408,-91,-70,-41,-7,-49,36,-40,-30
1522235555869408,8,-67,-36,-11,5,-70,60,36
1522235555870411,-26,29,38,4,-7,-33,-72,-54
1522235555870411,73,-2,-10,-12,-2,95,-3,-18
1522235555882443,-21,-22,-51,-18,-27,-49,82,-2
1522235555882443,-58,-12,7,-9,0,55,-96,-22
1522235555891467,-108,30,11,3,16,32,92,33
1522235555891467,-79,-69,13,2,7,8,-31,9
1522235555906506,-42,81,-17,-12,4,-22,-53,-34
1522235555906506,30,18,24,7,-32,12,-13,0
1522235555908512,64,0,-10,1,7,-34,25,16
1522235555908512,34,85,11,-9,-9,1,-13,21
1522235555929568,-48,-20,1,23,37,16,31,0
1522235555929568,9,-42,-10,8,-12,-19,15,-15
1522235555930571,17,45,-21,-19,-28,-22,-21,3
1522235555930571,59,5,10,13,27,54,3,34
1522235555942603,53,20,27,-6,-32,-47,8,50
1522235555942603,-65,19,-10,12,25,3,-12,0
1522235555951627,61,-87,-33,8,-14,-15,32,-25
1522235555951627,-14,66,32,1,-5,-65,-12,13
1522235555966667,24,-17,-2,-3,14,13,-32,-5
1522235555966667,7,13,-21,-6,-12,2,-21,-15
1522235555968672,10,-10,37,11,3,11,35,3
1522235555968672,-36,-53,-1,-12,-6,41,23,-16
1522235555989728,31,-22,-4,-11,-6,-80,-20,17
1522235555989728,-82,46,3,-7,-7,-31,2,2
1522235555990731,9,22,8,14,14,30,69,23
1522235555990731,24,-31,-8,3,3,48,6,68
1522235556002762,2,41,8,-15,-23,-59,-59,-75
1522235556002762,3,35,-11,-7,-15,27,38,-32
1522235556011787,9,-21,15,-7,-1,-42,-95,-35
1522235556011787,12,-45,-21,1,13,5,-13,2
1522235556026826,46,-28,13,21,1,39,121,72
1522235556026826,84,26,-7,-5,-7,-5,-106,-86
1522235556028833,1,25,27,6,-6,-37,-13,64
1522235556028833,22,-33,-21,-1,-3,-28,78,-56
1522235556048885,-66,19,-7,-1,-3,15,18,31
1522235556048885,-41,-22,14,5,10,9,-9,-81
1522235556050890,-16,-8,-1,7,13,44,-78,-41
1522235556050890,-128,-73,-48,-11,-11,3,-56,18
1522235556062922,-92,24,89,12,13,-21,52,40
1522235556062922,-31,33,22,-3,-9,4,6,65
1522235556071947,-44,-17,-47,-20,0,20,27,10
1522235556071947,-21,-28,4,6,-11,-60,-11,-55
1522235556094005,62,45,-10,6,-1,0,-15,92
1522235556094005,76,31,-6,8,5,13,1,127
1522235556096011,39,-29,4,-20,-19,15,3,53
1522235556096011,68,4,-12,-58,24,49,8,-29
1522235556109045,116,84,12,-33,-6,-17,-10,-59
1522235556109045,-9,1,11,-34,-4,3,8,-64
1522235556111051,-23,-39,-30,-7,2,4,68,-64
1522235556111051,19,19,-2,49,20,-1,44,-82
1522235556123082,94,9,-36,18,13,-60,-43,-89
1522235556123082,-1,-49,2,39,5,49,-21,-12
1522235556132108,-28,40,36,30,5,-37,-70,-41
1522235556132108,-91,21,-15,1,-19,-14,7,67
1522235556146143,-15,-128,-24,5,0,82,46,-13
1522235556146143,-11,91,55,12,-6,-50,-36,-31
1522235556154165,65,-2,0,7,-8,-10,8,-8
1522235556154165,-92,25,4,-7,7,13,-92,-25
1522235556169205,-46,16,-13,-8,-2,21,35,-19
1522235556169205,41,-110,-41,-16,-3,-36,33,3
1522235556171210,14,35,10,-10,-4,26,-11,-19
1522235556171210,50,17,11,6,-9,7,-1,12
1522235556183242,-96,-41,-18,9,2,23,-16,-7
1522235556183242,41,-13,-20,-9,7,-84,-57,-53
1522235556192266,-39,35,38,6,-23,-12,102,73
1522235556192266,-18,-27,-23,-17,12,30,46,-32
1522235556214325,5,-82,-7,-4,-18,28,-10,-10
1522235556214325,33,30,2,2,12,10,35,3
1522235556216330,-38,58,9,-1,-27,-28,-48,5
1522235556216330,76,-17,-11,2,19,2,49,14
1522235556229365,-76,-26,6,-4,-1,30,-47,-39
1522235556229365,18,-42,-16,-12,-8,15,83,2
1522235556231370,-4,-59,-33,-6,-1,10,4,17
1522235556231370,35,114,57,24,-15,-25,-31,-22
1522235556242399,44,16,-11,-20,-20,26,11,21
1522235556242399,-56,-35,-24,-7,-16,-48,-4,-14
1522235556251423,58,-10,-29,-12,48,45,-20,26
1522235556251423,-72,29,0,-31,-42,-7,14,26
1522235556266463,6,-71,-5,22,18,-12,-7,4
1522235556266463,-2,38,14,7,4,-1,-46,-13
1522235556268469,30,-76,-29,-12,-8,-21,28,3
1522235556268469,31,-58,-3,11,10,16,55,50
1522235556289525,-6,114,19,-2,-9,-17,-75,-45
1522235556289525,-43,-10,-18,-8,-12,33,22,41
1522235556290527,47,-42,3,12,1,-43,25,4
1522235556290527,-52,-25,25,8,13,21,30,1
1522235556302559,-22,27,9,-7,-26,-18,-13,-19
1522235556302559,-2,-45,-11,16,26,11,39,-3
1522235556311584,-25,24,3,-15,-13,8,-80,-17
1522235556311584,12,71,22,-1,-16,-21,49,9
1522235556326623,21,17,-19,5,43,21,26,29
1522235556326623,17,22,7,-6,-14,2,-28,-1
1522235556328629,-6,5,9,5,16,11,-17,-42
1522235556328629,-3,-51,-10,-1,-12,-24,29,17
1522235556349684,78,61,-11,0,2,-10,-67,-68
1522235556349684,-2,-10,-5,9,1,-20,60,20
1522235556350687,-26,-18,3,-2,15,43,35,31
1522235556350687,3,-42,0,5,3,-39,-82,-32
1522235556362719,18,11,7,-5,10,6,42,12
1522235556362719,-51,-8,-1,-18,-25,-12,-70,61
1522235556371743,26,-6,-16,-7,-29,-35,-21,-6
1522235556371743,7,-9,-19,12,41,33,42,-21
1522235556385780,0,-59,4,-2,-14,3,-56,35
1522235556385780,20,102,57,8,3,39,12,10
1522235556392799,-13,27,9,-4,3,-4,27,-8
1522235556392799,-8,25,-20,-8,-29,-19,-54,5
1522235556408842,19,-60,-11,3,-1,-14,-37,13
1522235556408842,40,25,47,1,-6,8,42,0
1522235556410847,21,17,-32,-37,0,0,-25,-26
1522235556410847,-24,-49,2,-8,19,24,7,16
1522235556431903,16,81,13,-3,-24,-25,13,-28
1522235556431903,-19,-40,-11,13,6,17,-50,5
1522235556432906,-9,-5,-6,-1,-34,-44,-35,-80
1522235556432906,-4,-44,-38,2,20,-14,-48,-2
1522235556445940,-63,2,-15,-4,9,16,-28,23
1522235556445940,-39,-26,-8,8,17,-27,35,23
1522235556452959,2,70,30,15,-7,35,-8,-9
1522235556452959,86,35,-31,-14,-24,18,18,7
1522235556469001,-82,-20,15,10,1,-44,123,37
1522235556469001,-5,-24,-45,-24,-3,-6,-68,-108
1522235556471007,-55,-21,15,9,21,26,52,123
1522235556471007,-11,38,16,7,-16,-21,-15,-27
1522235556483039,37,-89,-7,4,4,52,3,42
1522235556483039,-9,80,58,4,17,-49,-13,6
1522235556492063,11,-55,-22,0,9,12,82,-35
1522235556492063,34,74,44,5,-21,-11,-114,0
1522235556506100,-96,45,-5,-8,9,-2,3,4
1522235556506100,6,-94,-13,1,-17,58,112,9
1522235556513119,-4,20,-23,-7,11,-45,-68,-2
1522235556513119,65,8,-4,4,-12,14,15,30
1522235556529161,50,-72,7,-2,1,-45,-72,-77
1522235556529161,-21,-52,-30,-1,-9,11,59,36
1522235556531170,63,0,-12,-10,4,34,4,-34
1522235556531170,1,8,14,5,-22,-19,39,13
1522235556543199,24,57,17,-8,23,-12,19,-41
1522235556543199,-26,12,3,9,12,-31,-60,-21
1522235556552223,20,-10,29,0,-12,22,34,52
1522235556552223,1,-25,-9,-13,-10,-60,-11,-32
1522235556566260,55,33,-9,0,3,-21,23,27
1522235556566260,50,-28,-22,-9,-1,8,12,9
1522235556573279,-77,47,38,9,11,23,-23,-20
1522235556573279,-35,-3,-13,5,-5,-24,-32,99
1522235556589321,-7,80,5,5,-4,-16,-1,-34
1522235556589321,-76,-76,-18,-6,23,60,86,-25
1522235556591327,-16,65,0,-21,-5,-2,-22,-18
1522235556591327,-128,-80,-24,-41,-4,-15,-24,-21
1522235556611380,60,-18,14,2,-6,-1,35,57
1522235556611380,104,59,13,0,1,1,-118,-54
1522235556613385,-12,-47,-14,13,-3,11,51,107
1522235556613385,41,30,24,12,-6,-11,-23,10
1522235556626420,-7,-56,-23,7,14,18,22,13
1522235556626420,14,19,12,7,-2,3,-22,25
1522235556632436,4,-10,3,13,5,-26,-4,-28
1522235556632436,34,17,16,13,26,33,-10,-106
1522235556649481,7,7,-7,-22,-36,-17,-36,-6
1522235556649481,59,19,-1,0,31,3,46,21
1522235556650484,18,-39,-11,2,-1,-7,-8,-12
1522235556650484,5,81,-12,-11,-10,19,68,0
1522235556671540,-35,-23,5,9,6,9,-53,-56
1522235556671540,-15,-8,-5,-2,-30,-5,19,35
1522235556673546,67,-12,15,0,9,-8,-18,-10
1522235556673546,-50,-66,-19,8,5,37,34,-6
1522235556686580,47,-7,-12,-2,-17,5,-6,43
1522235556686580,8,-69,-27,-7,6,-12,-15,-53
1522235556692596,-38,86,28,8,-6,28,5,-20
1522235556692596,-4,2,2,7,-5,-16,-49,35
1522235556709641,-25,5,-6,-3,31,21,-66,-18
1522235556709641,-101,-60,-14,0,-21,18,84,62
1522235556710644,24,-4,-12,-12,13,23,-13,-25
1522235556710644,-16,-23,14,-10,6,0,16,20
1522235556739721,-18,97,59,27,16,13,-8,10
1522235556739721,-14,-50,-12,-7,-10,-19,-21,-15
1522235556740724,-63,-18,-8,0,5,-2,63,-14
1522235556740724,-4,0,4,5,-13,-23,4,-5
1522235556745737,-82,-83,-22,-9,-3,33,95,-10
1522235556745737,34,75,14,-9,17,1,-122,-17
1522235556754761,-65,40,-5,14,0,5,14,-4
1522235556754761,31,-33,2,0,0,-7,1,-4
1522235556769801,-28,-47,-4,3,-16,-8,36,-26
1522235556769801,14,98,23,7,-5,8,25,18
1522235556771806,100,-75,-17,-10,20,-36,-48,39
1522235556771806,-50,17,11,-1,-1,19,-2,-40
1522235556791860,74,-41,-51,-26,-12,26,71,18
1522235556791860,39,13,34,28,19,-47,11,-13
1522235556792862,19,40,3,-11,-36,-16,-3,-7
1522235556792862,31,36,-2,-1,7,11,-7,0
1522235556804894,31,-56,-17,-1,-2,-6,-12,-3
1522235556804894,92,32,14,-4,1,7,-37,-24
1522235556813918,104,2,-4,-2,-1,-5,0,21
1522235556813918,45,-34,-16,8,8,8,-43,-3
1522235556828958,51,51,41,-6,-20,-44,29,14
1522235556828958,-54,-70,-32,-17,-11,16,-11,-12
1522235556830964,-80,-61,-17,0,14,11,-30,-43
1522235556830964,2,25,31,3,-12,-11,27,42
1522235556852019,-75,56,-16,5,10,21,-26,41
1522235556852019,-73,-87,-19,-11,-21,4,14,-2
1522235556853022,-46,16,5,12,14,-14,-41,-15
1522235556853022,-26,-7,-8,-3,6,24,9,-55
1522235556865054,-16,16,-11,-5,-19,-6,60,29
1522235556865054,59,-15,2,-8,-18,-36,-32,-42
1522235556874078,18,-44,10,1,-10,-9,10,40
1522235556874078,-18,-46,-41,6,18,22,-11,-43
1522235556889118,73,85,17,12,26,17,-16,-1
1522235556889118,-117,2,18,0,-22,-14,25,-32
1522235556891124,5,-4,-8,-7,-9,-30,-43,-81
1522235556891124,3,-36,-13,-3,1,-18,-16,100
1522235556912180,-15,57,13,-10,-30,-24,15,7
1522235556912180,16,52,11,14,26,-8,-60,28
1522235556913182,26,13,-3,-12,-10,-3,4,48
1522235556913182,-60,-26,-7,-5,22,-1,19,-2
1522235556925214,-84,-33,13,1,-9,-35,-21,-66
1522235556925214,16,6,-24,-4,-1,10,1,53
1522235556934238,-56,17,1,-11,-9,13,18,23
1522235556934238,78,34,7,15,2,27,1,-36
1522235556949278,-47,-128,-31,-9,-17,-25,-34,34
1522235556949278,17,92,8,-1,12,29,47,-110
1522235556955294,-14,-74,-7,7,-1,34,2,45
1522235556955294,57,-9,-12,-17,-11,-25,1,-12
1522235556971337,90,-53,-3,3,24,39,-35,40
1522235556971337,37,33,29,2,-14,2,-29,0
1522235556973342,53,-2,-3,-11,-19,-43,-23,-1
1522235556973342,15,-32,-11,-7,7,16,25,-26
1522235556985374,-64,29,40,15,8,-10,3,-23
1522235556985374,-78,1,-10,-11,-24,-17,33,78
1522235556994398,-11,5,26,15,18,3,0,-56
1522235556994398,-15,-28,-41,-12,-19,-21,-63,9
1522235557009438,-55,24,-8,3,7,-31,-42,-38
1522235557009438,29,-48,-6,-8,7,114,80,60
1522235557015454,-58,-15,-19,-12,-14,-33,-6,-45
1522235557015454,23,82,45,16,10,-28,-7,0
1522235557031497,17,1,-20,1,4,17,22,49
1522235557031497,-15,-26,-12,-11,-25,-7,14,-5
1522235557033502,-9,-7,-13,1,28,31,2,21
1522235557033502,0,15,10,-3,-13,23,16,13
1522235557045534,1,8,-13,-1,0,40,5,-50
1522235557045534,-14,13,22,-17,-21,-44,-40,0
1522235557054558,64,-26,-9,6,22,-28,-9,-23
1522235557054558,-17,95,21,5,-12,-14,35,15
1522235557069598,25,-71,-8,7,-15,18,20,20
1522235557069598,15,35,-7,1,16,-7,8,31
1522235557070600,-27,41,-7,5,-14,1,-4,6
1522235557070600,1,-5,2,-4,0,1,2,5
1522235557091656,47,-1,19,9,1,-25,12,10
1522235557091656,25,-49,-26,-6,38,43,-36,-21
1522235557093662,21,86,7,4,-16,-3,23,36
1522235557093662,-34,-85,4,6,2,-33,2,18
1522235557105694,45,11,-23,-13,-6,-20,8,13
1522235557105694,43,23,-4,-3,-8,-23,-16,-13
1522235557114718,-128,13,7,27,19,-4,-52,10
1522235557114718,-87,-13,-23,-15,6,36,60,-46
1522235557128755,-106,-42,-10,-12,-2,-61,-4,8
1522235557128755,29,19,1,12,-3,9,-2,13
1522235557130760,37,-22,16,-10,-9,84,35,-12
1522235557130760,-10,-95,-49,18,11,-6,14,6
1522235557151819,-18,127,30,-7,-7,26,4,37
1522235557151819,-33,-57,-7,-2,0,-51,-33,42
1522235557153822,-42,-84,-15,-12,-13,-49,-6,37
1522235557153822,-45,68,27,12,-14,-4,-9,4
1522235557165854,-76,-48,-14,7,30,91,-9,-87
1522235557165854,17,85,18,-7,-12,-58,9,-15
1522235557173875,63,-85,-11,6,16,-26,-84,-30
1522235557173875,36,-27,-3,-16,-11,-41,-3,-29
1522235557188915,86,6,9,14,-11,-31,41,-19
1522235557188915,70,-42,-21,-4,11,27,16,-15
1522235557190924,63,51,25,2,-11,-16,34,9
1522235557190924,86,-22,-11,-17,-6,43,-8,-40
1522235557211976,36,-10,34,14,22,19,58,27
1522235557211976,-36,-23,-15,-15,-12,-52,-81,-70
1522235557212979,-21,15,-9,-5,-21,-2,19,-35
1522235557212979,13,-82,-27,0,0,-42,-10,25
1522235557225011,7,41,18,-13,-11,-15,-88,2
1522235557225011,22,-10,-1,13,8,16,47,29
1522235557234035,-4,63,44,-4,-2,11,33,6
1522235557234035,20,5,21,0,-17,-24,-66,-30
1522235557249075,51,-71,-43,-4,16,-2,-13,12
1522235557249075,-55,29,37,16,0,-19,-6,16
1522235557251080,-16,-4,-20,-4,-4,38,12,-19
1522235557251080,26,15,10,8,22,19,2,96
1522235557272136,-56,55,-10,-15,-28,-14,-3,-39
1522235557272136,-32,-62,-16,12,11,33,-5,-6
1522235557273139,0,16,1,2,21,49,48,45
1522235557273139,-95,45,8,-5,6,-47,1,-5
1522235557285170,40,-59,-15,-5,-28,-32,-23,-40
1522235557285170,28,-8,10,-15,-3,35,-14,11
1522235557294195,-23,-47,-25,-10,-8,-10,5,13
1522235557294195,41,1,9,5,3,12,38,25
1522235557308232,-53,56,-9,3,23,40,-12,32
1522235557308232,-16,16,16,8,-16,-39,-34,-24
1522235557315250,7,-21,-12,0,-12,-23,32,-13
1522235557315250,25,40,-17,-19,-5,21,-9,13
1522235557331293,-28,-68,11,13,5,-9,41,-10
1522235557331293,34,32,2,0,0,-2,-64,-4
1522235557333299,29,87,21,2,2,-7,-27,-15
1522235557333299,-51,-82,-27,-22,4,70,55,14
1522235557345330,20,45,21,-1,-8,-20,-44,7
1522235557345330,18,69,3,7,21,-14,37,21
1522235557354354,-33,-24,-4,16,10,26,-17,-24
1522235557354354,84,30,-6,2,-18,-31,-30,28
1522235557368392,-6,10,9,-9,15,11,17,-2
