timestamp,emg1,emg2,emg3,emg4,emg5,emg6,emg7,emg8
1576152391454511,-2,-2,-1,0,-1,0,0,1
1576152391454511,-5,-3,0,-3,-2,-3,-2,-4
1576152391455507,-5,-1,-3,-4,-1,0,0,-3
1576152391455507,1,1,-1,-1,2,-2,1,3
1576152391457502,4,-1,1,-1,-1,2,0,3
1576152391457502,4,-1,0,3,-2,0,0,-1
1576152391458499,1,1,-1,0,-1,-1,0,-2
1576152391458499,-5,-1,0,-3,-3,-3,-6,-5
1576152391464486,1,0,-4,-4,1,-1,-1,-1
1576152391464486,-1,1,0,0,0,2,7,5
1576152391472468,4,0,-1,0,2,0,-1,4
1576152391472468,-3,-3,0,2,-3,-1,-5,-11
1576152391479446,-2,1,1,0,-1,0,-3,-1
1576152391479446,-1,-2,0,1,2,-2,-3,-5
1576152391497430,-2,-4,-3,1,0,1,0,0
1576152391497430,-5,-1,1,0,-1,1,-1,1
1576152391501389,-1,-1,-2,0,-1,-4,-2,0
1576152391501389,-3,-2,0,-3,-2,0,-1,1
1576152391525420,-3,-1,1,-3,-2,-2,1,-8
1576152391525420,0,0,-3,1,4,-1,2,7
1576152391526320,0,-2,-2,-1,-3,-3,0,0
1576152391526320,1,0,-1,-1,1,-4,-2,-5
1576152391564217,-1,2,0,0,0,-8,-4,-3
1576152391564217,0,0,2,-1,-1,0,-4,0
1576152391565215,4,0,-1,0,0,-1,-1,1
1576152391565215,-4,-1,0,1,0,2,-3,-5
1576152391566212,0,-3,-2,-3,-2,1,-2,-5
1576152391566212,-1,3,2,0,1,1,-1,-3
1576152391569203,-6,-2,-1,-1,-1,-2,-3,2
1576152391569203,-4,-1,-2,-1,-4,-3,3,2
1576152391575187,-6,-4,-1,-2,0,0,1,0
1576152391575187,3,-2,-2,-3,-2,-6,-4,-2
1576152391583166,3,0,-3,-2,0,0,0,0
1576152391583166,6,-2,-2,-1,0,-2,-4,-5
1576152391592148,-4,-4,1,0,-1,0,-1,-4
1576152391592148,-3,0,-1,-1,0,1,2,6
1576152391606190,-4,-2,2,-1,-3,2,-2,4
1576152391606190,-3,-1,-3,-1,-1,-3,-1,-1
1576152391615087,6,2,0,1,-2,2,0,4
1576152391615087,2,-5,-2,-1,2,-1,7,7
1576152391637127,0,-2,-1,1,2,-2,-2,5
1576152391637127,-2,-1,0,0,-2,0,2,-3
1576152391639020,-2,0,-1,-3,-2,1,0,-6
1576152391639020,4,1,-2,2,-2,2,-3,-2
1576152391651984,-1,1,1,-1,-5,-5,-4,-2
1576152391651984,-2,-1,1,-1,-2,0,3,-1
1576152391657968,-3,-2,-3,1,2,5,3,-3
1576152391657968,-1,0,-4,-3,-3,-6,-6,-1
1576152391675034,-3,0,-2,-1,1,-1,-1,-6
1576152391675034,-1,0,-2,2,-1,-1,-3,0
1576152391675924,-2,0,-1,0,-1,-1,-1,1
1576152391675924,1,2,0,1,-1,2,0,-1
1576152391696975,3,-2,-1,2,0,1,3,2
1576152391696975,-4,-1,1,-3,-2,-1,-1,0
1576152391698863,1,-2,-2,-2,-1,-2,-2,-3
1576152391698863,-5,1,1,-1,0,-2,-1,4
1576152391719902,-2,-1,0,-1,0,-4,0,3
1576152391719902,-2,-2,-1,-1,0,-1,-1,1
1576152391720799,-4,2,-1,0,0,-5,-3,-1
1576152391720799,-3,-3,-1,0,-2,-2,-4,-6
1576152391734761,1,-1,-2,0,1,-1,-3,2
1576152391734761,2,0,0,-3,0,1,-5,1
1576152391735760,2,-1,1,-1,-1,-1,0,1
1576152391735760,-2,-1,0,-1,0,-3,-3,-8
1576152391756808,-6,3,-4,-2,1,-1,3,-3
1576152391756808,-1,-4,-3,-1,1,-2,-1,-1
1576152391758705,-1,3,0,2,-1,-2,-2,6
1576152391758705,-4,-3,-1,2,-1,2,0,0
1576152391771766,2,-1,-1,-1,-2,-7,-2,-5
1576152391771766,4,2,1,0,1,-1,-1,1
1576152391778701,3,3,-1,-2,-1,-3,-1,-1
1576152391778701,0,-1,-2,-1,-3,5,5,-1
1576152391794707,0,0,0,-3,0,2,-1,0
1576152391794707,-1,-1,1,-1,-2,-2,0,-2
1576152391796598,-1,-5,2,-1,1,-2,1,1
1576152391796598,-2,0,0,-1,1,-1,-2,0
1576152391817587,-4,-3,-2,0,0,0,0,-2
1576152391817587,1,0,0,2,-3,0,-1,-1
1576152391818544,-2,0,-2,-1,-1,1,-4,-7
1576152391818544,-1,0,-4,-2,2,-1,-5,2
1576152391831605,-2,-4,1,-2,1,3,-2,-2
1576152391831605,2,0,-2,-2,2,0,-3,-3
1576152391845570,1,1,-1,0,1,2,3,4
1576152391845570,2,1,2,-1,0,-1,-2,-1
1576152391854444,-1,-1,-4,-1,-3,-3,1,-3
1576152391854444,-1,-3,-6,-2,0,-2,2,4
1576152391856437,-3,-1,0,0,-3,0,-2,-4
1576152391856437,2,-1,-3,-1,-3,-3,1,0
1576152391877497,-5,1,1,-2,-1,2,-3,-6
1576152391877497,-2,-3,0,1,1,1,0,-1
1576152391878380,-1,1,0,0,-1,-3,-7,3
1576152391878380,-1,-3,-2,0,2,0,9,9
1576152391891446,5,1,0,0,-3,1,0,1
1576152391891446,-1,2,-1,-2,0,-2,-1,-5
1576152391898326,1,-2,-2,0,1,-3,1,-3
1576152391898326,1,0,-1,2,-2,1,-4,-9
1576152391914287,-4,-2,0,-2,-3,-7,-2,-5
1576152391914287,0,2,0,0,-2,0,0,4
1576152391916276,-2,-3,-1,1,-2,2,4,7
1576152391916276,-3,-1,-1,-2,-1,-1,1,-5
1576152391937268,0,-1,-2,-2,-4,2,0,-1
1576152391937268,1,-1,0,-2,-1,-5,-3,-7
1576152391938218,0,-1,2,2,0,-1,0,-2
1576152391938218,0,0,-2,-1,-1,-3,0,5
1576152391951286,0,-4,3,1,1,2,-4,5
1576152391951286,-5,-1,-2,-1,-2,1,1,4
1576152391958170,1,0,-2,-2,-2,3,3,-1
1576152391958170,-2,0,-1,-2,-2,-1,2,1
1576152391975120,-2,-1,-2,0,-1,-1,-1,-8
1576152391975120,0,1,1,0,0,2,4,-3
1576152391976121,-1,-4,-1,-4,-2,-2,-1,-1
1576152391976121,-1,-4,0,-2,-2,-5,-6,-6
1576152391997062,-2,-1,0,-2,-1,-3,-2,0
1576152391997062,5,0,-3,-2,-4,-5,-1,2
1576152391999058,-1,0,-1,-2,-2,-3,-2,-5
1576152391999058,-1,-2,0,1,0,3,1,1
1576152392011031,0,0,-3,-1,3,0,-3,-1
1576152392011031,-3,-3,1,-1,-1,0,-3,-1
1576152392026980,0,1,-1,0,0,-4,-5,-2
1576152392026980,-2,0,0,-3,-2,-4,0,-1
1576152392035007,-1,0,0,2,2,0,1,-4
1576152392035007,-2,-1,0,2,-2,-1,0,1
1576152392035963,4,-1,-2,-3,-2,-2,-1,-3
1576152392035963,5,2,0,-1,-3,-3,-5,-6
1576152392056943,-1,0,0,-2,-3,1,1,3
1576152392056943,-1,-1,1,-2,-1,0,0,-5
1576152392058902,-2,0,0,0,0,0,-3,2
1576152392058902,-4,0,0,0,0,2,2,-2
1576152392070911,4,1,2,2,0,0,-2,1
1576152392070911,2,-1,-1,-2,-3,0,0,0
1576152392079840,-2,1,-1,-4,-2,2,-4,-5
1576152392079840,0,0,-1,-1,2,0,-3,-1
1576152392094915,-3,0,-1,0,-3,-1,2,-7
1576152392094915,-5,-4,-4,-2,0,-2,-3,-4
1576152392095801,-3,-2,-1,0,0,0,3,-1
1576152392095801,0,0,-1,1,0,1,-2,0
1576152392116854,-3,0,0,-3,-1,2,0,2
1576152392116854,-1,1,0,0,0,0,-3,5
1576152392118785,-1,4,0,-1,-2,-3,-2,5
1576152392118785,2,0,2,-1,-1,0,4,0
1576152392130758,-5,-5,-4,1,-1,-1,1,-4
1576152392130758,-1,0,1,0,-1,0,-1,-4
1576152392139729,1,-1,-1,1,-1,2,1,-1
1576152392139729,3,-1,-1,1,-2,-2,-4,-5
1576152392154695,2,-2,0,-2,0,1,1,8
1576152392154695,-5,-2,-2,-3,1,-1,1,2
1576152392155688,-2,-2,-2,-2,3,5,0,1
1576152392155688,1,0,3,3,-1,1,0,3
1576152392176675,1,-1,-1,-1,-1,0,-1,2
1576152392176675,-2,0,-2,-1,-1,-2,-7,-5
1576152392178629,4,-2,0,0,0,1,1,-2
1576152392178629,4,0,-2,-2,0,-1,1,1
1576152392190639,1,2,1,1,-1,-3,3,4
1576152392190639,-2,-2,3,0,0,0,-1,-5
1576152392199573,1,-1,-1,-1,2,-4,-3,0
1576152392199573,-2,-2,-1,-2,-2,0,-3,1
1576152392214530,-1,-1,-3,-2,-3,-3,-4,1
1576152392214530,-5,-3,-1,1,-2,0,1,-2
1576152392216525,-5,-1,1,1,0,-1,-1,-3
1576152392216525,-5,-1,1,-3,2,-2,3,-3
1576152392237475,1,2,-3,-3,0,1,-1,-4
1576152392237475,4,0,-1,-1,1,-2,0,1
1576152392238467,6,-1,0,-3,-2,-1,4,5
1576152392238467,-4,0,0,1,-2,0,-1,-1
1576152392250436,0,0,-2,-1,-3,-4,0,0
1576152392250436,-1,-2,-4,-4,-3,0,1,-1
1576152392259408,-4,2,0,0,1,1,1,0
1576152392259408,0,-1,-2,-2,1,-2,-1,2
1576152392274372,-2,1,2,1,0,1,-1,-1
1576152392274372,1,-2,0,0,-2,0,-4,-6
1576152392276419,-1,0,-1,-3,-2,-4,-5,-10
1576152392276419,-1,-4,-3,-1,0,-3,-3,-7
1576152392297308,3,-1,0,5,-3,-2,1,-2
1576152392297308,0,0,-2,-1,0,1,3,4
1576152392298306,1,-2,1,-1,-2,0,-1,2
1576152392298306,0,1,-1,0,-1,-3,-5,0
1576152392310278,-2,0,-3,-1,1,-2,-1,-7
1576152392310278,-5,0,0,1,0,6,-1,-3
1576152392319253,-11,0,0,-3,-2,-6,0,0
1576152392319253,-3,-1,-2,-1,-3,-3,-5,0
1576152392334243,-6,-2,-3,2,0,1,-3,-6
1576152392334243,6,0,-2,1,0,2,4,-1
1576152392336203,4,3,-3,-2,0,-3,-1,-3
1576152392336203,-2,-3,-1,1,0,-3,-2,-3
1576152392357181,3,-1,0,-3,-1,-3,2,1
1576152392357181,-1,-1,1,1,-1,-3,-3,-5
1576152392358149,0,-1,-1,1,-2,1,1,2
1576152392358149,-2,1,-1,-2,-3,2,1,3
1576152392371134,-1,-1,1,-2,-1,0,0,0
1576152392371134,3,1,-1,-2,-1,-2,-1,1
1576152392380088,-1,-2,-2,-2,-1,-1,-1,-5
1576152392380088,0,0,1,0,-1,-2,-2,-4
1576152392395046,1,-2,-1,-3,-1,-2,-1,-2
1576152392395046,1,-1,-1,0,-3,-3,-2,-3
1576152392396048,-1,1,-4,0,0,1,-1,4
1576152392396048,3,0,-2,-3,0,-2,-1,0
1576152392416988,4,-1,3,-2,2,-2,-3,6
1576152392416988,6,0,-3,-3,0,1,6,11
1576152392418588,-2,-3,0,-1,-3,0,1,-2
1576152392418588,-3,1,-1,0,0,-1,-3,-4
1576152392439530,4,0,0,-2,-1,-1,4,9
1576152392439530,-7,0,0,0,1,2,-4,-5
1576152392441526,3,-1,2,0,1,2,0,4
1576152392441526,0,-1,0,2,1,0,3,2
1576152392454490,-3,1,0,0,0,-2,-3,-3
1576152392454490,-1,1,-3,-1,1,-4,-3,-1
1576152392456485,0,-1,0,-1,-2,4,1,-7
1576152392456485,-3,-2,-5,-3,-1,-4,-1,-7
1576152392477430,-2,-5,1,2,-1,2,1,-3
1576152392477430,1,2,0,0,-4,-1,2,-2
1576152392478428,-2,1,-1,0,1,0,-2,-7
1576152392478428,-2,-1,-1,-4,-2,-2,-2,0
1576152392499372,0,-3,-1,-2,-1,-1,0,-4
1576152392499372,-3,1,1,-1,1,-5,-5,0
1576152392501366,2,0,0,-2,0,-3,2,9
1576152392501366,-3,-2,-1,1,1,-1,2,0
1576152392514332,0,0,-6,-3,0,-1,-3,-3
1576152392514332,1,0,0,0,-2,-2,-1,-3
1576152392516326,-4,-5,0,-1,-2,1,-3,-2
1576152392516326,2,2,-1,-2,-2,2,-1,5
1576152392535275,-5,-2,-1,-1,1,-2,-2,-6
1576152392535275,-3,-1,-3,-3,1,0,2,2
1576152392544253,3,-1,1,2,-2,-1,1,0
1576152392544253,3,0,2,1,2,3,2,7
1576152392559211,0,-1,-4,-1,-3,3,-1,-1
1576152392559211,-1,-4,-1,-1,0,-2,-1,-1
1576152392561207,-2,0,-2,0,-1,-3,-3,0
1576152392561207,-4,0,1,-4,-2,-2,-3,-2
1576152392582152,1,0,-1,1,-1,1,0,3
1576152392582152,-5,-6,0,1,1,1,3,2
1576152392583147,7,3,-2,-1,-3,-7,-6,-1
1576152392583147,0,-4,-2,1,0,4,4,0
1576152392596112,-3,0,0,-2,-1,3,-5,-8
1576152392596112,-1,-1,3,-3,-2,-3,0,-5
1576152392605089,-3,2,-1,1,-1,1,-3,-5
1576152392605089,-4,-2,0,0,-1,-3,1,1
1576152392619415,-2,0,2,-2,-1,0,-2,1
1576152392619415,0,-3,2,2,0,1,-3,1
1576152392621410,5,-2,-2,-2,2,-1,1,6
1576152392621410,0,0,-3,-1,-1,-1,0,-3
1576152392642355,-1,1,-3,-1,-1,-1,1,-1
1576152392642355,0,4,0,-1,-1,-3,-2,-2
1576152392643353,-1,-2,-2,-1,-3,1,-1,-2
1576152392643353,-1,1,0,-2,-2,-2,-2,0
1576152392655320,-1,-2,-2,2,-2,-5,-1,-2
1576152392655320,-2,0,-4,-3,0,-1,-6,-7
1576152392664296,-6,-2,-1,-4,-1,-1,1,-6
1576152392664296,4,1,-3,0,1,1,1,7
1576152392679256,-3,1,-1,-2,-2,-2,-1,-2
1576152392679256,-4,0,-3,0,-1,2,1,-10
1576152392681251,2,-3,2,3,1,2,-3,-1
1576152392681251,-3,-1,1,0,-1,0,-2,-9
1576152392702198,2,1,0,0,1,-1,1,14
1576152392702198,2,-2,0,0,-1,-1,-9,0
1576152392703197,-1,1,0,0,2,0,0,-12
1576152392703197,-1,-7,0,1,-1,-2,-6,-2
1576152392716161,-2,-2,-2,-2,-2,0,-2,-39
1576152392716161,5,-1,1,0,0,1,5,50
1576152392724289,-4,-3,-2,-3,-2,-1,2,13
1576152392724289,6,-2,2,1,1,-4,-5,-6
1576152392739244,5,2,0,-1,-4,-5,-4,-2
1576152392739244,-7,-2,-2,-1,-2,-3,3,-15
1576152392741239,-1,0,0,0,-2,-4,-2,-2
1576152392741239,1,-3,-1,2,-1,0,2,45
1576152392762187,-2,-5,-1,1,-1,2,-1,6
1576152392762187,3,2,-1,-3,1,-3,-3,-9
1576152392763179,-3,1,-1,1,-1,-2,-3,2
1576152392763179,-2,2,-4,-3,-2,-1,0,-15
1576152392775152,-1,0,-1,1,2,0,0,4
1576152392775152,-3,-5,-2,-4,-3,-1,-2,-8
1576152392785126,1,0,0,1,1,2,-3,-2
1576152392785126,-6,-3,-1,-1,0,3,4,-5
1576152392800083,-1,3,-1,-1,-4,-7,-2,4
1576152392800083,6,3,0,2,1,1,-4,-7
1576152392801079,0,-2,-4,-4,-2,-2,-2,-11
1576152392801079,2,2,1,-2,-2,0,-3,-7
1576152392822021,-1,-3,0,-1,-3,-1,2,3
1576152392822021,-6,-2,-1,0,-3,1,3,-3
1576152392824018,0,0,0,1,1,-3,-3,2
1576152392824018,-3,-1,-2,-4,-1,-4,-4,-9
1576152392835985,-1,-3,-2,-4,-4,-2,0,2
1576152392835985,-2,-2,-2,0,-1,-1,0,4
1576152392844963,1,-2,-2,0,-1,0,4,3
1576152392844963,-2,-3,-2,0,3,-1,-1,-1
1576152392859920,-9,-2,0,-1,0,-1,-1,3
1576152392859920,-3,0,-3,-1,-2,-1,1,0
1576152392860923,-4,-3,0,-3,-3,-3,0,3
1576152392860923,5,1,0,-3,-2,0,3,-9
1576152392881871,0,-2,-1,-1,-2,0,0,2
1576152392881871,-2,-2,-1,0,0,-1,-2,-3
1576152392889851,0,1,-2,0,0,0,0,-5
1576152392889851,2,1,-1,1,0,-1,2,-31
1576152392895889,0,1,-1,-2,3,4,3,2
1576152392895889,3,2,0,-1,-1,1,0,-4
1576152392904806,7,0,1,-1,0,0,0,-2
1576152392904806,-7,-3,1,1,-3,-4,-5,-2
1576152392919761,-3,-1,0,0,-1,0,-2,4
1576152392919761,0,-2,1,-2,-4,0,0,-3
1576152392920759,1,-1,0,-1,1,1,1,-1
1576152392920759,9,2,0,0,-1,-2,-3,8
1576152392941746,2,-1,-1,0,2,-1,1,-1
1576152392941746,-3,1,1,0,0,-1,-1,-4
1576152392943700,-3,-2,-4,-2,-2,3,-3,21
1576152392943700,-3,-1,-1,-2,-2,-3,-5,8
1576152392964642,4,-1,-2,1,1,-1,-2,8
1576152392964642,-8,0,1,0,-1,-4,-2,-5
1576152392966636,-5,1,-1,-1,-4,1,1,-6
1576152392966636,-7,1,-3,0,-1,1,2,2
1576152392979600,6,0,1,-2,-1,1,-2,-5
1576152392979600,7,0,-4,-3,-1,0,-1,16
1576152392981596,2,-1,-2,0,0,-4,-2,-8
1576152392981596,-3,-2,-1,0,-1,2,0,-4
1576152393002540,-6,-3,-1,-1,-2,-5,-5,-7
1576152393002540,2,0,0,0,0,2,6,-1
1576152393003539,1,1,-2,-1,-1,-1,-1,-6
1576152393003539,1,0,1,-1,0,0,-2,3
1576152393024480,-2,-1,-2,1,-1,1,-2,-6
1576152393024480,-1,-3,-3,-1,2,2,0,-5
1576152393026481,2,-2,0,0,0,2,0,6
1576152393026481,2,-1,-2,-2,-4,1,1,3
1576152393039501,-1,0,2,0,-1,1,-1,2
1576152393039501,-1,1,0,1,-1,-1,-2,0
1576152393041438,1,-3,0,-3,-1,-3,0,-1
1576152393041438,2,-2,-2,-2,-3,0,0,6
1576152393062379,-4,-3,1,-2,-1,1,1,-1
1576152393062379,1,-3,-3,-2,-1,-4,-3,-10
1576152393063377,-1,0,-1,-1,-1,-1,-6,-5
1576152393063377,-3,-2,-2,-2,0,0,-1,-3
1576152393084373,-4,1,-3,-2,-3,1,-1,-5
1576152393084373,1,-1,-2,0,-1,0,-2,2
1576152393086316,0,-2,-1,-4,1,-2,1,-2
1576152393086316,-1,-4,-1,3,0,1,0,20
1576152393099288,5,5,2,4,4,-1,2,1
1576152393099288,-5,-2,1,-1,-1,2,-1,-1
1576152393105323,-2,-2,-2,0,-2,-2,0,1
1576152393105323,-1,1,0,-3,-1,-1,2,12
1576152393122226,-5,-4,-1,-1,1,1,1,0
1576152393122226,1,0,-1,-1,-4,0,-3,-8
1576152393123218,-4,-2,0,0,-2,-2,-7,-4
1576152393123218,0,1,0,1,-1,3,4,-5
1576152393144162,0,-2,-2,-1,-3,-3,-2,1
1576152393144162,0,-3,-2,0,0,3,2,0
1576152393146159,-2,1,-1,-1,0,1,3,4
1576152393146159,2,-1,-2,-3,0,1,-2,-6
1576152393159169,-4,-3,-2,0,-3,-3,0,0
1576152393159169,1,-2,-2,-1,0,-2,1,-1
1576152393166138,0,1,-1,2,0,0,-1,-3
1576152393166138,0,1,3,2,2,-1,-1,-5
1576152393182108,1,-2,-1,-3,-1,1,1,-2
1576152393182108,-2,-1,1,0,-2,-4,-2,-4
1576152393184058,-1,-4,0,-2,-1,-1,2,-1
1576152393184058,-1,2,-1,-1,0,-2,-3,-1
1576152393205032,-3,1,-2,0,-1,-2,-5,-4
1576152393205032,0,-1,-1,-1,0,1,1,3
1576152393205999,3,1,-3,-2,-1,0,4,4
1576152393205999,-3,-3,-2,-2,-3,-1,-3,-2
1576152393219014,1,1,-2,-2,-1,-3,-2,-8
1576152393219014,-5,-3,0,-2,-2,-2,-1,4
1576152393225995,-4,0,1,-1,-2,-2,-3,-3
1576152393225995,-5,-1,-4,-4,0,-4,-6,-6
1576152393241900,4,1,0,-2,1,-1,2,10
1576152393241900,-4,0,0,0,-1,-2,-2,-4
1576152393243899,-2,0,-2,-2,-1,2,4,0
1576152393243899,-1,-1,0,1,1,-2,2,1
1576152393264869,1,-2,-2,-2,1,-2,-2,2
1576152393264869,-2,1,-1,0,-1,1,-3,1
1576152393265835,-5,-1,-3,-1,0,1,0,-5
1576152393265835,0,-3,-1,-1,-3,-4,0,-1
1576152393278834,2,-2,-1,1,-1,3,-1,-1
1576152393278834,0,0,0,-1,-1,5,1,-1
1576152393285830,3,-3,-2,2,-1,-1,-2,2
1576152393285830,-6,-3,-3,-2,-2,-2,1,-11
1576152393301788,0,-1,0,0,-2,1,1,-1
1576152393301788,-4,0,-1,-2,-1,-4,1,-4
1576152393303736,4,-1,2,0,0,-1,0,0
1576152393303736,0,-2,1,0,2,0,0,-7
1576152393324722,-5,-3,1,-2,-2,-2,-3,-4
1576152393324722,1,1,-2,-1,-2,-2,-7,-3
1576152393325677,-6,-1,1,0,-1,1,2,0
1576152393325677,2,0,-1,-1,-2,3,2,7
1576152393338688,-2,1,1,0,-4,-2,-1,-1
1576152393338688,3,2,-1,1,1,-2,1,5
1576152393345624,-2,-3,0,-2,-1,-3,-3,-6
1576152393345624,5,0,-1,-1,-2,-1,-4,2
1576152393362579,-3,-2,-3,-4,0,0,0,-3
1576152393362579,-1,-1,1,-1,0,0,0,-4
1576152393363579,3,-1,-2,-3,-2,-3,-3,-4
1576152393363579,5,1,0,0,0,1,1,0
1576152393384568,-1,-2,-3,0,1,1,-2,2
1576152393384568,-3,0,-1,-1,0,-4,2,0
1576152393386515,-2,0,-1,3,1,-1,3,2
1576152393386515,-1,-2,1,-2,-2,-3,-6,-1
1576152393398484,-3,0,-1,0,-3,-2,-1,-2
1576152393398484,1,-1,-4,-3,-1,2,-3,0
1576152393405511,0,-1,-2,-4,-1,0,-1,0
1576152393405511,3,1,-1,-2,1,0,-1,-3
1576152393422456,-2,-2,1,1,0,-1,1,1
1576152393422456,-3,-3,0,0,-1,1,-1,6
1576152393423419,-7,0,-2,-1,-2,0,-3,-2
1576152393423419,-1,-1,-3,-3,0,-9,1,2
1576152393444462,0,-2,0,-1,1,-1,-2,1
1576152393444462,2,1,0,0,-3,-4,-7,-3
1576152393446357,-4,-3,-1,-2,0,2,3,-6
1576152393446357,-4,-1,-2,-1,-3,3,-1,-7
1576152393458326,-3,0,1,-2,-3,-1,1,0
1576152393458326,2,0,-2,-1,1,-3,0,1
1576152393467301,0,-2,-3,-1,-3,-3,-6,-2
1576152393467301,-5,1,-3,1,-1,1,-2,-8
1576152393482259,-4,2,-2,0,-1,-2,-2,3
1576152393482259,-6,-1,-2,-2,-2,0,-1,-8
1576152393483260,0,-2,-1,-2,-1,-1,-2,0
1576152393483260,0,-4,-1,-2,-1,0,3,4
1576152393504203,0,-4,-1,0,0,0,-4,-6
1576152393504203,5,-3,2,3,0,0,2,3
1576152393506195,-5,-1,0,0,-4,-3,-4,-3
1576152393506195,-1,-4,0,0,-1,0,-1,-7
1576152393518166,-1,-2,-5,0,-1,1,6,0
1576152393518166,1,1,1,-2,0,1,2,2
1576152393527141,-2,-2,1,0,-1,-3,-2,-1
1576152393527141,0,0,-4,0,2,1,-4,4
1576152393542201,-2,-2,1,-2,1,2,-1,-5
1576152393542201,-6,-2,-3,-2,-1,0,0,-2
1576152393544094,5,0,-2,-2,-3,0,-2,2
1576152393544094,-4,-3,1,-2,-3,-1,2,1
1576152393565038,8,0,-2,-3,3,2,0,2
1576152393565038,2,2,0,0,-3,-6,-2,-5
1576152393566039,1,2,1,2,2,1,2,4
1576152393566039,-4,-1,-1,-1,1,2,0,0
1576152393578007,-1,1,-1,1,-1,0,0,0
1576152393578007,-3,-2,0,-1,-3,0,0,3
1576152393587018,-4,1,-1,-2,1,-1,2,-1
1576152393587018,0,0,-1,1,1,-1,-1,-2
1576152393601976,-2,0,-3,-1,-4,-6,-4,-8
1576152393601976,-5,-1,-4,2,-2,4,1,-7
1576152393603932,1,0,-2,-1,1,-1,-1,-2
1576152393603932,-5,3,0,-1,-2,1,0,-4
1576152393624983,2,-1,1,-1,0,0,-1,-2
1576152393624983,3,-1,-2,-3,2,-3,-3,2
1576152393625876,3,-1,-1,1,-1,1,-1,7
1576152393625876,-3,-4,0,-2,-1,-4,-1,-4
1576152393637883,-5,3,0,-1,-2,-1,0,-3
1576152393637883,-3,-1,0,-1,-1,-4,-1,6
1576152393647819,3,0,-1,0,-1,1,-2,2
1576152393647819,-2,-2,-2,-1,2,-2,1,0
1576152393661880,5,0,-1,0,-2,-4,-2,1
1576152393661880,0,-1,1,-2,0,1,-2,-8
1576152393663775,1,2,-2,-2,1,2,-2,-2
1576152393663775,-2,0,0,-1,-4,-1,-3,1
1576152393684773,-2,-2,-1,-4,-2,-1,-1,3
1576152393684773,2,0,-1,-1,1,6,1,-1
1576152393690801,-7,1,-4,-1,-3,-8,-2,-2
1576152393690801,0,-4,-2,1,-2,-1,0,5
1576152393698689,-1,-2,2,0,2,2,2,-4
1576152393698689,0,-3,-2,0,-3,-2,-2,-3
1576152393707669,-2,-2,2,0,-2,1,-3,-3
1576152393707669,2,3,-1,-1,-4,-1,0,7
1576152393722625,4,1,-2,-1,-1,-4,-1,-1
1576152393722625,-3,0,-3,0,2,-1,1,4
1576152393723616,-1,2,2,1,2,0,2,0
1576152393723616,-1,-2,-3,1,-3,-1,-1,0
1576152393744570,2,-1,1,1,0,0,0,-5
1576152393744570,0,1,-2,-2,-1,1,-1,-5
1576152393746552,1,-2,-2,-3,0,0,3,-1
1576152393746552,-5,-1,2,-3,-1,-2,-1,-1
1576152393758520,-6,1,-1,1,-1,0,0,3
1576152393758520,2,-4,-2,-1,-2,-3,0,2
1576152393767512,-3,-1,-1,2,-2,0,-3,-4
1576152393767512,3,4,-2,0,0,-3,-4,-9
1576152393782566,-1,0,-3,-1,-1,0,-1,0
1576152393782566,0,3,-1,-2,0,0,-2,0
1576152393783456,0,-1,0,-1,-1,-5,-1,-2
1576152393783456,3,-2,-3,0,0,2,6,2
1576152393804496,-6,-3,-1,0,0,0,-2,0
1576152393804496,0,-3,0,-1,1,2,0,-2
1576152393806392,5,3,-1,0,-2,-2,0,-1
1576152393806392,-3,-1,-1,-1,0,0,-1,5
1576152393818366,-3,-2,-1,1,-2,-1,0,4
1576152393818366,-5,-4,-1,-1,0,6,0,3
1576152393827345,0,-1,0,-2,0,-3,-2,-2
1576152393827345,-5,-3,2,-1,1,2,-3,-7
1576152393842340,0,-2,0,-2,-2,-1,-2,-3
1576152393842340,-5,2,0,-1,-2,-3,0,2
1576152393843294,4,0,-3,-1,-2,0,-1,2
1576152393843294,2,0,-1,-2,-1,-2,-5,-3
1576152393865236,-1,2,0,-1,0,-3,-2,0
1576152393865236,0,0,-3,-1,-3,0,3,-4
1576152393866241,0,-4,-3,-4,1,0,-1,3
1576152393866241,4,-1,-2,2,1,-1,-5,-1
1576152393887285,4,2,2,-1,-1,0,2,0
1576152393887285,-3,-2,-3,-3,0,-7,-2,-8
1576152393889171,-3,-3,1,-1,-3,1,-1,-3
1576152393889171,0,0,-1,-2,1,1,-1,-1
1576152393902236,-1,-2,1,2,1,-3,-2,2
1576152393902236,4,-1,0,1,3,-2,-4,1
1576152393904133,-4,-1,-2,0,-1,5,4,-2
1576152393904133,-2,-5,1,4,0,2,3,27
1576152393925075,5,-4,-1,-2,0,-1,-9,-4
1576152393925075,0,2,1,-2,-2,-4,-3,1
1576152393926079,-3,-2,-1,-2,-1,-1,-1,7
1576152393926079,1,1,-2,1,-1,-1,-1,-5
1576152393947060,-7,-1,-3,-2,1,-2,1,-3
1576152393947060,1,0,1,-1,-3,-1,2,6
1576152393949010,-1,-3,3,6,0,7,-1,25
1576152393949010,5,2,-2,-2,-2,-7,-2,-9
1576152393962076,-4,0,-2,-2,-1,0,0,-2
1576152393962076,3,0,-1,-2,-2,0,4,-20
1576152393963971,3,0,-2,-3,0,0,-1,-8
1576152393963971,-5,-3,-2,-1,0,-1,0,-4
1576152393984918,1,-1,1,3,-2,3,0,7
1576152393984918,-1,-1,0,1,0,-1,-4,-9
1576152393985913,-2,2,0,0,-2,-4,-2,-8
1576152393985913,-9,-4,-1,-1,0,-1,1,-7
1576152394006855,-1,-1,-2,-1,0,-4,-2,-9
1576152394006855,1,-1,0,0,2,-3,0,5
1576152394008858,4,-2,0,-1,-2,0,-1,1
1576152394008858,-1,0,1,-1,-2,2,3,1
1576152394020820,0,-1,-3,2,-2,3,4,8
1576152394020820,6,-3,1,0,0,-1,-3,6
1576152394029796,1,-2,0,-2,-1,-2,0,-2
1576152394029796,-2,1,-1,0,0,0,-1,-4
1576152394044856,-5,-3,-1,-3,-4,-1,-2,-1
1576152394044856,1,2,-2,0,0,0,-2,5
1576152394045760,-6,1,0,-1,0,-2,-3,-7
1576152394045760,-1,-1,1,0,-1,1,0,-3
1576152394066793,-3,-1,-1,-3,-2,0,4,-3
1576152394066793,-5,-2,-3,-1,-3,-1,-6,-5
1576152394068698,-4,-6,-3,-3,0,-2,-3,-8
1576152394068698,-4,0,-2,-3,-5,0,1,2
1576152394081661,0,-1,-2,-3,1,-2,-2,-3
1576152394081661,0,-3,0,0,-2,-4,1,6
1576152394088637,-2,0,0,1,0,1,2,-2
1576152394088637,2,1,0,-4,-2,0,-4,-1
1576152394104600,4,-2,1,-2,2,1,3,2
1576152394104600,1,-2,1,0,-2,0,0,0
1576152394106589,-2,0,-4,-1,-1,0,1,-2
1576152394106589,2,2,-3,-1,-1,-3,-3,13
1576152394127533,-2,0,-2,-1,-2,0,1,0
1576152394127533,-2,2,-1,-1,0,-1,-3,-6
1576152394128535,-4,-3,0,0,-2,-5,-1,-12
1576152394128535,1,-4,1,-1,-1,0,0,-13
1576152394141599,-1,0,0,0,1,-1,-5,1
1576152394141599,3,-3,0,0,-3,1,1,9
1576152394148479,-2,1,-1,0,-1,-1,-3,7
1576152394148479,-5,0,-2,-3,1,3,-1,-9
1576152394164532,-3,3,2,-1,0,0,-2,-5
1576152394164532,0,-4,-3,-1,-1,-3,-1,-7
1576152394166428,1,-1,0,-2,0,1,-2,0
1576152394166428,0,1,-4,0,-1,-3,-3,-8
1576152394187372,-1,-2,-1,-1,-1,-2,0,-1
1576152394187372,3,1,0,2,-2,0,-2,2
1576152394188369,-4,0,0,-1,-3,-3,-6,-12
1576152394188369,0,-1,-2,0,2,-3,1,0
1576152394201335,5,2,-1,-2,0,-2,-3,4
1576152394201335,-7,-1,-3,2,0,-1,0,2
1576152394208317,0,-1,0,-3,-1,0,5,-16
1576152394208317,0,1,1,-1,-2,1,-1,2
1576152394224379,-5,-1,1,1,-4,-1,-1,-8
1576152394224379,2,1,-3,-3,-1,0,-2,-2
1576152394226274,-4,-3,-1,-1,-3,-1,-2,2
1576152394226274,0,-2,2,1,1,0,4,-2
1576152394247227,0,-1,-1,-2,-3,-1,-1,-5
1576152394247227,1,0,0,-1,-3,-1,0,8
1576152394248221,-1,0,0,2,-1,-4,-3,2
1576152394248221,-3,-4,0,-1,-1,0,-4,3
1576152394261293,-1,-1,-4,0,0,-2,1,3
1576152394261293,-3,1,1,-1,2,-2,2,6
1576152394268174,-2,2,0,-3,0,0,4,8
1576152394268174,3,-3,0,1,-2,0,-1,-2
1576152394285123,0,-1,0,-1,-3,-1,-1,-1
1576152394285123,-2,-1,0,2,-1,0,2,4
1576152394286125,5,-1,-3,0,1,2,2,11
1576152394286125,-3,1,1,-3,1,-2,0,-2
1576152394307165,-1,-1,-2,0,0,2,-1,1
1576152394307165,-3,-1,-6,-2,-2,-3,-1,-4
1576152394309066,1,0,0,1,0,-2,-7,6
1576152394309066,-4,-4,-1,2,-2,-1,4,1
1576152394321127,2,1,-3,-1,-3,-1,-2,1
1576152394321127,-2,2,2,-4,1,-2,-1,-22
1576152394327894,5,0,-1,-3,-1,-3,-1,-1
1576152394327894,2,-1,-2,-1,-3,-4,-1,-2
1576152394344905,-3,-2,-2,-2,1,-1,-1,2
1576152394344905,-2,-2,-1,-1,1,-1,-4,-3
1576152394345804,-6,-1,-1,-1,-1,-1,1,-2
1576152394345804,-4,1,-2,-3,0,-3,-1,0
1576152394366850,-1,-2,0,2,-1,-1,0,0
1576152394366850,4,-1,0,0,-2,1,0,4
1576152394368746,-3,0,-1,-3,-2,-1,-1,2
1576152394368746,-2,1,-2,2,2,2,1,8
1576152394380744,-2,0,-2,-1,-2,-2,1,-2
1576152394380744,-1,-4,-1,-1,0,-2,0,3
1576152394389688,-1,0,-2,0,2,1,2,-1
1576152394389688,0,-1,-3,-2,-3,-2,-3,-5
1576152394404743,-5,1,1,-1,0,-2,-1,-4
1576152394404743,-2,-1,-1,1,-1,1,-2,1
1576152394406640,-2,0,1,-1,-1,-1,-2,-4
1576152394406640,0,0,-1,-2,0,-1,-1,4
1576152394426685,0,-4,1,-2,2,0,0,5
1576152394426685,1,-1,-1,-1,0,-2,-1,7
1576152394428584,1,-1,-2,0,-2,-2,2,-2
1576152394428584,-1,-2,1,0,-2,-2,1,-5
1576152394440651,0,-2,1,0,-2,1,-5,-5
1576152394440651,-2,1,1,0,1,0,0,2
1576152394449524,5,-1,0,-4,0,2,1,-2
1576152394449524,1,-1,0,-2,-2,-2,-3,-4
1576152394464588,0,-3,-2,0,-1,1,5,3
1576152394464588,-1,1,-3,1,-3,0,-2,-2
1576152394466477,-5,-3,0,1,-2,0,-1,-1
1576152394466477,-5,-1,-2,-1,-3,-2,-3,-3
1576152394487428,-1,1,-1,-1,0,1,4,-2
1576152394487428,-3,-1,-2,-2,2,2,0,3
1576152394488423,-1,-3,-3,-2,-3,0,-3,-5
1576152394488423,0,-1,1,0,-1,0,2,1
1576152394500432,1,1,0,-1,1,-2,-3,-2
1576152394500432,1,-3,-1,-2,-3,0,-1,1
1576152394509410,-5,-1,-2,1,0,-4,-1,-6
1576152394509410,-3,0,-3,-1,-2,-1,-2,1
1576152394524359,3,0,0,0,-2,0,-2,5
1576152394524359,-1,-4,-1,-2,-3,-2,-3,-7
1576152394526319,1,0,-3,-1,-1,-1,-1,-5
1576152394526319,2,-2,1,1,-4,-2,-2,2
1576152394547367,0,3,1,-1,1,-1,-1,2
1576152394547367,0,1,-1,-3,1,-1,1,3
1576152394548263,7,0,0,4,0,0,0,29
1576152394548263,0,0,0,1,-1,2,0,-9
1576152394561271,1,-3,0,-1,0,-2,-4,0
1576152394561271,-1,-2,-1,-2,-3,-2,1,0
1576152394570202,0,-5,2,2,-2,-3,-5,-8
1576152394570202,2,0,-3,0,2,3,9,5
1576152394584266,3,-1,-2,0,1,0,-4,-4
1576152394584266,-11,-3,-2,0,-2,0,-5,-14
1576152394586165,0,1,2,-1,-1,-4,-4,-7
1576152394586165,-1,3,2,-1,-1,-4,-4,-4
1576152394607211,-4,-4,-1,3,2,1,1,-6
1576152394607211,3,3,-3,0,0,1,4,7
1576152394609099,0,-2,-4,-1,-1,1,-3,-2
1576152394609099,2,-3,-1,1,0,-1,-3,6
1576152394621184,0,-3,0,-1,-4,0,1,0
1576152394621184,-1,1,1,-1,-1,3,-2,-8
1576152394630042,-9,-2,-2,-1,2,-1,4,0
1576152394630042,-3,-2,-4,-2,-1,1,-1,-3
1576152394645082,-1,0,-4,-1,-3,-3,0,1
1576152394645082,2,0,-3,-2,-2,0,-2,-3
1576152394645999,1,2,-3,-1,-1,1,-2,0
1576152394645999,1,-3,1,0,1,-1,-1,4
1576152394667049,-5,-1,0,-4,-3,0,-4,-5
1576152394667049,4,0,3,-2,-3,-8,-6,1
1576152394668938,3,1,-1,-2,0,4,3,-7
1576152394668938,-7,-1,1,-1,-1,-2,-1,-2
1576152394680932,2,-1,0,-1,-1,-3,0,2
1576152394680932,-5,-4,-3,-2,1,-1,0,2
1576152394689886,-4,-2,0,-2,-1,0,1,5
1576152394689886,1,1,-2,2,-1,3,0,-18
1576152394704877,0,-1,-3,0,-2,-2,-5,-5
1576152394704877,-2,1,-1,0,0,-2,-3,-6
1576152394705840,6,0,1,-2,-1,1,0,2
1576152394705840,2,0,-1,-2,-2,0,-1,0
1576152394727510,-3,-3,-1,0,-3,0,3,-2
1576152394727510,-5,-1,0,0,-2,0,0,-4
1576152394728518,-6,0,-2,-2,-1,-3,-11,-13
1576152394728518,4,0,-2,-3,0,-4,-4,4
1576152394740484,-5,1,1,1,0,-1,1,-23
1576152394740484,1,-5,-1,-2,0,-1,0,7
1576152394749508,2,0,0,-4,-3,-1,2,2
1576152394749508,-1,1,0,-2,-2,0,-3,-2
1576152394764522,2,0,-2,-4,0,2,4,-1
1576152394764522,3,-2,3,2,2,2,1,12
1576152394766467,1,1,1,1,-1,-1,3,8
1576152394766467,-2,-2,2,2,0,-3,0,-2
1576152394787411,-5,-2,-4,-2,0,1,-1,-6
1576152394787411,-5,0,0,-2,-1,0,1,-6
1576152394788354,-4,-2,-2,2,-1,-8,-1,5
1576152394788354,1,1,0,-2,-1,-1,-3,25
1576152394809401,-1,-4,-1,-1,1,-1,-4,7
1576152394809401,2,0,-1,0,-2,1,0,2
1576152394811297,4,1,-2,0,3,3,-1,0
1576152394811297,0,-2,-3,-4,-3,2,2,-16
1576152394824359,-1,-1,-1,3,1,-2,-2,35
1576152394824359,-3,-2,-3,-3,-2,-1,0,-3
1576152394826257,-2,1,0,0,-1,-2,-2,-8
1576152394826257,0,-2,0,-1,1,0,5,1
1576152394847283,2,1,1,4,0,2,-2,2
1576152394847283,4,-2,-1,4,5,1,2,2
1576152394848280,2,-3,-2,-2,-2,0,-4,10
1576152394848280,-3,1,1,0,-1,-2,2,2
1576152394870221,4,2,0,-3,-3,-1,0,-3
1576152394870221,-1,-1,-3,-2,-1,-2,0,-4
1576152394871222,3,0,2,1,1,-3,-3,-1
1576152394871222,-3,0,0,-4,1,-1,-3,0
1576152394885180,-5,-2,-2,-1,-1,-1,3,-5
1576152394885180,3,1,0,-1,-1,-2,-1,-9
1576152394886182,2,-3,-1,-4,-2,3,2,3
1576152394886182,-1,-5,-4,-1,-2,0,-2,0
1576152394907225,-4,1,1,0,3,-3,2,-2
1576152394907225,-2,1,0,-1,-2,0,0,-14
1576152394909118,-2,1,-1,-1,0,-1,-1,-4
1576152394909118,2,0,-4,1,-1,0,-3,-7
1576152394929558,2,0,-1,-1,-4,-10,-6,-5
1576152394929558,-5,0,-4,0,1,-5,-4,-22
1576152394931536,-2,-4,1,0,-1,1,0,4
1576152394931536,-1,0,-1,-3,-3,-1,1,1
1576152394944540,2,0,0,-3,-1,2,3,2
1576152394944540,-5,0,1,-1,-2,-3,-2,0
1576152394946497,-3,1,1,1,-1,-1,1,-4
1576152394946497,-1,-2,-1,-1,-1,0,1,-1
1576152394967547,-2,-1,0,2,-2,0,-3,-4
1576152394967547,0,-2,1,-2,-4,2,2,9
1576152394968447,-2,-1,-3,0,-2,0,-3,2
1576152394968447,1,0,0,-2,0,1,-2,5
1576152394989418,-1,-3,-3,-2,-1,-1,0,-1
1576152394989418,2,-2,0,0,1,0,-1,4
1576152394991378,-3,-2,-1,-1,0,0,0,-2
1576152394991378,-1,-2,-3,-1,-1,-1,-3,-10
1576152395004342,-1,0,1,1,0,-3,-4,-1
1576152395004342,1,1,-2,-2,-3,-3,-3,-1
1576152395011324,2,-1,1,0,0,-2,-3,-3
1576152395011324,-5,-4,-2,0,-2,-2,0,-2
1576152395027384,-2,0,0,1,-2,4,2,4
1576152395027384,-4,-2,-3,0,-5,-2,0,1
1576152395028507,2,-1,-3,2,0,0,5,4
1576152395028507,2,0,-2,-3,-2,-3,1,1
1576152395049525,3,3,-1,-3,0,0,-3,-8
1576152395049525,5,-3,-1,0,0,2,1,24
1576152395051418,0,-2,-1,-2,-3,-2,-2,-4
1576152395051418,-3,1,0,-1,1,1,1,4
1576152395064432,1,-3,0,-2,0,-1,-3,5
1576152395064432,3,-3,0,-1,-2,1,1,-2
1576152395070467,0,-2,1,2,-1,-1,1,3
1576152395070467,0,1,-1,-1,-2,-1,-1,-5
1576152395087425,0,-1,-1,-1,0,-1,1,-4
1576152395087425,-2,0,0,0,-2,-1,0,0
1576152395088321,2,-2,-2,-5,-2,-4,-2,-5
1576152395088321,2,0,0,-3,0,-4,-4,-6
1576152395109365,-6,0,-1,-1,-1,0,-4,-4
1576152395109365,-2,0,3,1,-2,-3,-8,-6
1576152395111260,-1,3,-4,-2,-1,-4,1,4
1576152395111260,-6,-2,0,0,0,-1,1,-4
1576152395124322,-2,-4,-2,-3,1,4,2,0
1576152395124322,-1,1,-2,-2,0,-5,-1,-1
1576152395131252,-2,-2,0,2,0,2,-1,-1
1576152395131252,1,-1,1,1,-2,-1,-4,-1
1576152395147162,1,1,0,1,0,1,5,7
1576152395147162,0,-4,0,0,-1,3,4,-2
1576152395149173,-1,-2,-3,-1,-1,-2,-4,-2
1576152395149173,-3,1,0,1,3,-3,0,-1
1576152395169203,-1,-1,0,0,-1,-2,-2,-4
1576152395169203,-4,0,-2,-2,2,1,-2,-28
1576152395171099,-5,-1,-1,-1,-1,0,-2,-11
1576152395171099,-2,0,-1,-2,0,-3,0,4
1576152395184159,3,-2,-2,-3,-1,-2,-3,12
1576152395184159,0,2,-1,-1,1,0,-4,-5
1576152395191226,2,1,2,2,0,0,-3,-5
1576152395191226,0,0,0,0,0,1,3,-7
1576152395207168,-1,0,-4,-1,-3,-2,0,-11
1576152395207168,1,-3,-2,0,0,-3,1,7
1576152395209056,-3,0,-2,0,2,2,0,-4
1576152395209056,2,-4,-1,0,-4,-4,-4,9
1576152395230036,1,-1,1,0,-1,-4,-3,-4
1576152395230036,0,2,0,1,0,2,2,6
1576152395231000,-8,-4,-2,-4,-2,0,3,5
1576152395231000,-4,-3,-2,-3,-1,1,0,-1
1576152395243967,2,1,-1,1,-1,-1,-1,1
1576152395243967,4,0,-2,-2,1,-2,-1,15
1576152395250948,4,-2,1,-2,1,-1,-3,-5
1576152395250948,-3,-2,-4,-3,-4,-2,-1,-6
1576152395267007,-2,-1,1,-2,-2,-1,-1,-2
1576152395267007,0,3,-2,-1,-1,-3,-3,-2
1576152395268898,-4,0,-2,-2,-1,-1,0,3
1576152395268898,2,-1,-1,0,-2,-1,-2,3
1576152395289941,-6,-3,-1,-1,-4,-2,-2,-1
1576152395289941,-1,-3,-1,-3,-2,-2,0,1
1576152395290840,4,0,-1,0,-3,1,-2,2
1576152395290840,-2,0,0,1,1,0,-3,-1
1576152395303841,-3,2,-2,-1,1,-3,-1,-6
1576152395303841,-7,-2,2,0,1,1,1,-6
1576152395312779,1,2,-1,-3,-4,-4,-3,11
1576152395312779,3,0,1,0,1,-1,2,1
1576152395326844,0,0,-1,-5,-2,-1,1,0
1576152395326844,0,-3,-3,2,-2,-1,-1,-1
1576152395328737,-2,1,4,-3,2,0,2,-9
1576152395328737,-4,0,1,1,0,-1,0,-4
1576152395349720,-7,0,1,2,0,1,0,9
1576152395349720,2,0,-1,-1,0,-2,-2,2
1576152395351674,-1,-4,-4,2,-2,-2,-1,2
1576152395351674,3,0,-2,-1,-2,0,-3,4
1576152395363644,-1,-1,-1,-1,-2,-1,-4,1
1576152395363644,3,-1,0,1,0,3,0,33
1576152395372618,-8,1,-4,-2,-3,-1,8,-2
1576152395372618,-2,-4,0,0,-3,0,1,0
1576152395387582,0,-3,-1,0,-1,1,-1,-5
1576152395387582,-2,0,0,-1,-2,0,-1,-10
1576152395388579,0,-3,0,-2,1,-1,-7,-3
1576152395388579,-3,-2,1,0,0,-2,-2,-2
1576152395409522,5,0,-2,1,0,1,1,-4
1576152395409522,1,0,-3,-3,0,-1,1,-5
1576152395411515,-2,-1,0,0,-2,-2,0,1
1576152395411515,-1,-1,0,-2,0,2,0,-9
1576152395423586,8,0,-1,4,2,-3,-3,11
1576152395423586,-4,-2,0,0,-2,-3,-5,-7
1576152395432459,-2,-2,0,0,-3,0,1,-8
1576152395432459,-5,3,1,0,0,0,0,2
1576152395447421,-2,0,-4,-1,-1,-3,2,0
1576152395447421,3,1,0,-3,0,-1,-1,-1
1576152395448417,3,-1,-1,1,-1,-7,-6,3
1576152395448417,1,-1,-1,-3,-4,0,0,1
1576152395469385,-6,-1,-2,-2,-3,-2,2,-2
1576152395469385,-9,-4,-1,-2,0,-3,-3,-8
1576152395471355,-3,-1,-1,-2,2,0,-3,-2
1576152395471355,4,0,-2,-3,0,-1,-1,5
1576152395492301,0,-3,0,-4,0,-2,0,-4
1576152395492301,3,0,1,0,-2,1,0,-11
1576152395493296,-1,1,-1,0,0,1,0,-2
1576152395493296,2,0,-4,-2,-2,0,-3,1
1576152395507344,0,2,1,-2,-2,-2,-5,-4
1576152395507344,-2,-1,-2,2,2,-1,2,2
1576152395508257,0,0,-5,-3,-2,-1,0,-3
1576152395508257,4,-1,-1,0,2,-1,0,-7
1576152395529313,1,0,1,-2,0,-3,-8,1
1576152395529313,-5,-2,-4,-2,-3,-1,3,-11
1576152395531195,1,-2,-1,1,-3,0,5,0
1576152395531195,-5,-3,-3,0,-2,-2,-1,-22
1576152395543266,0,-4,1,0,-2,-2,-2,-5
1576152395543266,-3,-4,-2,-3,-2,-1,-6,-3
1576152395552142,2,0,1,-2,0,1,0,3
1576152395552142,-12,-4,-1,-2,-1,-1,1,5
1576152395567102,-1,0,1,0,1,0,1,-4
1576152395567102,5,5,0,1,0,-1,-3,3
1576152395569093,9,-2,1,1,2,0,-1,-3
1576152395569093,-8,-2,-1,-3,-3,-5,-4,-8
1576152395590085,0,-6,-2,-1,0,-2,-1,-4
1576152395590085,-2,0,-4,1,-3,0,0,-1
1576152395591035,-4,0,-4,-2,-1,-1,-1,0
1576152395591035,8,1,0,0,0,1,3,10
1576152395603106,-2,0,0,-1,-1,2,-1,1
1576152395603106,-1,1,0,-2,0,-2,4,-2
1576152395612027,1,-1,-1,1,-2,1,1,3
1576152395612027,-2,-5,-2,-1,0,-2,0,8
1576152395627043,-4,0,-3,-2,-2,-2,-1,17
1576152395627043,3,3,2,2,0,-1,-1,4
1576152395628934,2,-3,-3,-1,-1,-3,0,-15
1576152395628934,-1,-2,0,2,-5,0,2,-9
1576152395649878,-1,3,-4,0,2,-1,-1,-7
1576152395649878,1,0,-2,-2,0,-3,-2,-1
1576152395650972,0,1,0,-3,1,1,-5,4
1576152395650972,7,2,-2,0,-1,1,-1,6
1576152395662845,0,-5,-2,2,-3,-3,1,-4
1576152395662845,-2,-1,1,-1,-2,-1,1,0
1576152395671852,-5,1,0,0,2,2,5,0
1576152395671852,2,-1,0,0,2,1,-1,4
1576152395686883,-3,2,-1,-2,-1,-1,0,-8
1576152395686883,-5,-2,1,-3,-1,2,-2,-1
1576152395688774,-1,2,0,1,-2,-1,-2,6
1576152395688774,-4,-1,-2,-3,-2,-2,-4,-2
1576152395709821,-3,-1,-3,-1,0,1,2,-3
1576152395709821,-1,-1,-1,-1,-2,0,-3,4
1576152395711712,-2,-2,1,-1,-1,-3,-5,-4
1576152395711712,3,2,0,1,0,0,1,-2
1576152395723727,7,-1,0,1,0,1,-3,-6
1576152395723727,2,-2,-2,-1,-2,-2,2,4
1576152395732657,1,-2,-3,-2,-1,-2,1,-3
1576152395732657,-8,-2,-1,1,-3,-1,-5,0
1576152395746620,-4,-1,1,-3,1,0,2,-6
1576152395746620,-2,-2,-1,-1,2,-1,-2,-8
1576152395748614,-2,0,0,-3,-3,1,-2,2
1576152395748614,7,0,1,-1,0,-3,-2,2
1576152395769661,-3,-3,0,-2,-3,-1,-1,12
1576152395769661,-3,-3,-1,-3,-3,-1,-3,-1
1576152395771552,-2,-1,-4,-3,0,-2,-2,-9
1576152395771552,-6,1,-3,0,-1,0,0,6
1576152395792581,-4,1,-1,-1,-1,-2,-3,-9
1576152395792581,-3,-4,-4,-2,0,-1,7,1
1576152395793498,1,-3,0,0,-1,-1,-5,-1
1576152395793498,4,2,0,0,1,-2,0,-1
1576152395807574,3,0,-2,0,0,0,0,3
1576152395807574,-2,-1,-1,2,-1,-3,-4,-1
1576152395808461,0,5,-2,-3,-1,5,5,4
1576152395808461,-5,-4,0,-1,2,2,-1,-2
1576152395829428,-3,-4,0,-1,-3,-1,0,-2
1576152395829428,2,2,0,-2,1,-2,-1,3
1576152395831393,2,0,1,2,1,-2,5,4
1576152395831393,1,0,-2,-2,-3,-2,-2,5
1576152395852436,-3,-2,-2,-1,0,-1,0,-4
1576152395852436,-3,0,-1,-1,-1,-1,1,-8
1576152395853334,-3,-3,-1,-1,0,-4,-3,-3
1576152395853334,2,4,-2,-1,1,-3,-3,4
1576152395867400,2,-2,1,1,-2,-1,-2,-2
1576152395867400,2,0,-2,1,-2,1,-1,2
1576152395868297,-1,-3,1,2,-1,-1,-2,-5
1576152395868297,0,-2,-1,-1,-4,-1,-1,-30
1576152395889342,-5,3,-1,-2,-1,4,-2,3
1576152395889342,-1,-2,0,0,1,-1,-5,2
1576152395891232,0,0,0,-2,0,-2,-2,2
1576152395891232,-5,0,1,2,1,-1,1,-4
1576152395912281,-1,0,-3,-2,1,-3,2,-4
1576152395912281,0,-2,-1,0,-3,-1,-2,-2
1576152395914171,-4,-1,-3,-3,0,0,-4,-2
1576152395914171,2,1,2,0,1,-4,-1,6
1576152395926167,6,-2,-1,1,0,0,0,4
1576152395926167,-1,1,-3,-1,0,-2,0,6
1576152395933146,0,-2,-1,-1,-3,0,-1,3
1576152395933146,-6,-1,-1,1,-1,0,3,7
1576152395950121,3,3,0,-1,-1,-1,-2,-3
1576152395950121,2,-1,2,2,1,3,1,-3
1576152395951074,1,-1,2,-1,0,0,2,6
1576152395951074,2,-2,0,-2,-3,1,-1,9
1576152395972069,-2,-3,2,-2,0,-4,-2,0
1576152395972069,-2,1,-2,-3,-2,-1,0,7
1576152395974011,-1,0,0,-2,-3,-4,-3,-11
1576152395974011,0,-1,-2,0,0,1,1,2
1576152395985980,-4,-1,0,3,-1,2,0,-3
1576152395985980,1,-3,-3,-2,-3,-3,-4,0
1576152395992961,-6,1,1,-1,-1,-1,-4,-2
1576152395992961,6,-1,-2,-1,1,1,3,6
1576152396010034,-3,0,1,-3,-2,-1,0,2
1576152396010034,1,2,1,-1,1,0,-3,-8
1576152396010916,-6,1,-4,-1,-1,-2,-5,-10
1576152396010916,-2,0,0,0,1,3,2,-4
1576152396031957,6,1,-1,1,2,-4,0,-3
1576152396031957,1,0,4,0,0,0,-2,-1
1576152396033852,-4,1,-1,1,2,0,4,0
1576152396033852,-1,-4,0,1,-1,2,2,35
1576152396046571,-5,-2,-4,0,-1,1,0,2
1576152396046571,-3,-1,-1,2,-2,-2,-1,-9
1576152396053520,0,-4,0,1,-1,-1,0,4
1576152396053520,0,0,-2,-1,-1,-2,-5,-14
1576152396069524,-5,-1,0,1,-3,-1,0,-14
1576152396069524,0,-2,-3,-2,-1,0,0,4
1576152396071469,2,-1,-1,-2,-3,-3,-1,-2
1576152396071469,-6,-5,-3,-3,-1,0,-2,-12
1576152396092530,-1,-1,-1,-1,0,2,-1,1
1576152396092530,-1,1,-3,1,-1,-1,-1,-4
1576152396093415,1,1,-3,-2,1,-2,0,4
1576152396093415,-1,-2,1,-1,-1,-3,0,-8
1576152396106480,3,-1,0,-1,-2,-2,-2,1
1576152396106480,-3,1,0,-2,-1,-3,-1,-10
1576152396113359,3,-2,-3,0,-4,-1,0,-1
1576152396113359,1,-1,0,-2,-3,-1,-1,0
1576152396129354,-3,1,-1,-3,-2,-2,0,-6
1576152396129354,-2,0,0,-1,-2,-2,-4,-3
1576152396131310,5,0,0,-1,-1,1,1,4
1576152396131310,-4,1,1,1,0,-3,-2,-4
1576152396152359,-4,-5,-2,-1,-1,-1,-1,-2
1576152396152359,-4,-1,-2,0,-2,-1,-2,-2
1576152396153252,1,2,1,1,-1,-4,-2,-1
1576152396153252,2,3,-1,-1,1,1,-1,-2
1576152396166320,0,0,-2,1,0,2,0,5
1576152396166320,-3,-5,0,-2,-3,-3,-2,7
1576152396173300,-10,-2,-1,0,0,-2,-1,3
1576152396173300,1,0,-2,-2,1,2,0,-1
1576152396190190,-1,2,1,1,-2,-2,-1,4
1576152396190190,2,2,-2,-2,1,-2,-3,-4
1576152396191152,-3,-5,1,3,-1,3,3,-4
1576152396191152,-3,-1,-3,-5,-5,-11,-8,-2
1576152396212193,-2,-5,-4,-3,0,0,-1,-6
1576152396212193,1,-3,-1,0,-1,1,2,-2
1576152396214090,-3,-3,-1,-2,-5,-3,-3,-3
1576152396214090,-8,-1,-2,0,1,-2,-1,-7
1576152396226063,0,-1,-1,0,-3,0,-1,7
1576152396226063,4,0,2,-2,1,-4,2,4
1576152396233140,-5,-3,-2,-2,-1,-1,-3,-9
1576152396233140,1,0,1,1,0,1,4,4
1576152396249757,1,0,2,-1,0,-1,0,2
1576152396249757,0,3,0,2,0,4,0,4
1576152396250752,7,3,1,-2,-1,-1,-4,-2
1576152396250752,-2,0,0,-1,-1,0,-5,-6
1576152396272696,4,-3,1,-1,1,-2,1,9
1576152396272696,-7,-3,-2,0,0,-1,3,0
1576152396273695,-2,2,-1,-1,-1,0,-3,-5
1576152396273695,6,0,-2,-2,-3,-1,-3,2
1576152396285765,0,-4,-1,0,0,-3,-2,-4
1576152396285765,1,1,-3,1,-1,0,-1,5
1576152396294638,0,0,-3,0,2,1,0,3
1576152396294638,0,-3,0,0,-1,0,-2,2
1576152396309696,-1,1,1,2,1,2,0,6
1576152396309696,1,-1,0,0,0,0,0,-1
1576152396311590,0,-2,0,1,0,2,5,1
1576152396311590,-4,-1,-1,-1,-1,-2,-1,3
1576152396332567,0,-1,-1,1,0,-2,0,-7
1576152396332567,0,1,1,-3,-1,-3,-3,-6
1576152396333534,6,3,0,-2,-1,0,0,0
1576152396333534,-11,-2,-2,-2,-2,-2,-2,-8
1576152396345547,-3,1,-2,-1,0,-2,-4,-2
1576152396345547,1,-2,0,-2,1,-1,1,0
1576152396354523,-1,-2,-4,-2,-1,1,-2,3
1576152396354523,3,-2,0,1,0,2,2,-4
1576152396369437,3,4,-2,-5,-1,-1,-4,-9
1576152396369437,0,0,-2,-2,-2,2,-2,-1
1576152396371431,-2,-1,-2,-1,1,-4,-2,-3
1576152396371431,-3,-2,-1,0,-1,-2,0,-6
1576152396392375,-3,-3,-1,-1,-1,-1,2,0
1576152396392375,-7,1,-3,0,1,0,-1,-14
1576152396393373,-2,0,0,-1,-2,-1,-2,6
1576152396393373,0,1,-1,0,-2,1,-2,5
1576152396405338,-4,-3,0,-1,-2,-3,-2,-10
1576152396405338,-1,0,1,0,-1,-3,1,-5
1576152396414317,1,1,-1,-1,0,-2,-1,-7
1576152396414317,3,4,-2,-2,0,1,2,4
1576152396429277,2,1,0,-1,-4,0,-1,2
1576152396429277,1,-3,-2,3,0,2,0,4
1576152396431269,-3,-3,1,1,0,3,-1,-1
1576152396431269,3,-3,-2,0,0,-1,0,29
1576152396452213,3,-2,-1,-2,0,-2,-2,-3
1576152396452213,-4,-5,-2,-2,-1,-2,0,3
1576152396453214,1,0,0,-2,-3,-4,-1,-3
1576152396453214,-3,0,0,1,-3,-2,-4,-10
1576152396466176,1,-1,1,4,0,2,-5,4
1576152396466176,-2,2,-3,-5,-1,0,0,5
1576152396475153,-5,1,0,0,-2,-3,-4,-9
1576152396475153,-5,0,1,1,0,-2,0,-12
1576152396489115,1,-2,-3,-3,-3,-3,2,4
1576152396489115,-1,0,-1,-3,-2,-1,-4,1
1576152396491111,1,-2,-2,-1,-1,-1,3,3
1576152396491111,-5,3,-1,0,-3,0,3,-1
1576152396512058,-2,-3,-3,-2,2,0,-2,-8
1576152396512058,5,-1,1,-3,1,-1,0,4
1576152396514049,-3,-4,0,1,-4,3,1,10
1576152396514049,2,-5,2,-4,-2,-3,-2,-1
1576152396526048,-2,1,-1,-1,-2,0,0,-3
1576152396526048,-5,-1,0,1,0,4,3,4
1576152396534992,-2,-2,-1,-2,2,0,4,2
1576152396534992,7,-1,2,1,2,0,0,-7
1576152396549645,-1,-1,1,1,0,1,0,3
1576152396549645,5,-1,-4,-1,-2,-3,-6,-6
1576152396551588,3,2,-1,-1,0,-2,-2,-3
1576152396551588,-2,-1,-3,-1,0,-1,-3,16
1576152396572555,-5,-3,-1,-3,-2,2,2,-6
1576152396572555,-1,0,1,-1,-3,-3,-5,-7
1576152396573531,2,0,-1,1,0,-1,2,7
1576152396573531,-8,-2,-1,0,-1,0,-1,-9
1576152396585546,-8,-3,-1,-2,-3,-3,-3,-2
1576152396585546,-7,-4,0,-2,-2,-2,-1,1
1576152396594475,3,1,0,-3,0,-1,-1,-11
1576152396594475,1,-2,-2,-2,-2,0,-2,-8
1576152396609434,-3,2,-2,-1,-1,-2,-3,-3
1576152396609434,1,0,1,-1,-2,-3,-1,-6
1576152396611428,-4,-4,-4,-1,1,0,-2,2
1576152396611428,4,-1,-3,-1,0,0,-2,-3
1576152396632479,-3,1,3,1,0,-1,3,0
1576152396632479,0,-1,-2,0,2,0,-1,12
1576152396633372,-2,2,0,-2,-1,0,-6,-4
1576152396633372,1,2,-4,-1,1,0,3,-2
1576152396645438,4,2,-1,0,-2,-3,0,-3
1576152396645438,2,-2,-1,0,1,0,3,-7
1576152396654435,3,-2,1,1,-2,-2,0,-2
1576152396654435,1,-3,0,0,0,1,0,-1
1576152396669373,0,3,-1,-2,0,4,3,4
1576152396669373,0,-2,-4,3,0,0,-3,2
1576152396671269,-2,-2,2,-1,-4,-3,-2,4
1576152396671269,-1,0,-1,-3,-3,-1,-1,-2
1576152396692319,-4,1,-4,-1,0,-3,-4,-1
1576152396692319,0,-4,2,3,-1,2,2,21
1576152396694207,3,1,-1,1,-1,1,1,-5
1576152396694207,4,0,-1,-1,-1,-2,-3,-1
1576152396715183,-1,-3,-1,-2,1,2,-5,2
1576152396715183,0,2,-1,-2,-1,-6,-2,-10
1576152396716151,1,-1,-3,-2,0,-2,-2,0
1576152396716151,2,1,1,0,-1,0,2,2
1576152396729163,-1,-2,2,1,2,-2,-3,-4
1576152396729163,-3,0,-1,-3,0,-1,-1,-7
1576152396731112,-2,1,-1,1,1,-1,-1,-1
1576152396731112,-6,-4,-3,-2,-2,-3,-3,2
1576152396752052,-6,-3,-5,-5,-4,0,3,-6
1576152396752052,-2,0,1,1,0,0,1,3
1576152396754047,-2,0,-1,-1,-2,0,0,0
1576152396754047,0,2,-5,-2,-3,2,0,-2
1576152396775046,0,1,1,-1,-1,0,-1,2
1576152396775046,6,-2,-3,-2,-3,-2,-2,0
1576152396775991,-2,-1,2,-1,-1,0,2,-2
1576152396775991,-1,-1,1,0,0,-2,-1,2
1576152396790001,3,-2,0,-1,0,-2,0,4
1576152396790001,1,0,-1,-1,-2,-1,-1,-11
1576152396790950,-2,2,-2,1,-3,0,-2,-3
1576152396790950,-4,-3,1,-2,-1,-2,-2,-5
1576152396811936,-4,1,-1,0,-1,-2,3,2
1576152396811936,4,0,-3,-1,-1,2,0,-3
1576152396813887,-6,0,-2,-2,2,-1,-6,-15
1576152396813887,-2,-2,-2,-2,-1,-2,1,-2
1576152396834860,-4,0,-3,-1,0,0,-3,-3
1576152396834860,-3,0,0,-1,-3,-4,-7,-8
1576152396835830,4,-4,-1,-3,-1,-3,1,4
1576152396835830,1,-1,0,2,-3,5,3,26
1576152396848834,4,2,2,2,0,-3,2,1
1576152396848834,-5,3,-1,-1,-2,-3,-1,-2
1576152396855822,3,1,0,-2,1,7,7,5
1576152396855822,-1,-3,2,0,1,-1,-1,-10
1576152396871783,-3,-2,-3,-2,-1,-3,-1,-2
1576152396871783,3,1,2,0,-3,-2,-3,5
1576152396873727,-2,-1,1,2,-1,0,-2,-5
1576152396873727,6,1,-3,0,-1,3,-1,-8
1576152396894724,-4,-2,0,-2,-1,0,-1,0
1576152396894724,-1,-1,1,1,1,3,2,-7
1576152396896665,2,-3,-4,-2,1,-4,-5,-3
1576152396896665,-6,-1,1,-1,-1,-4,-5,-3
1576152396908734,3,-1,-2,1,-1,0,-3,3
1576152396908734,-8,1,-2,-3,-1,-2,-1,1
1576152396915721,0,-1,-1,-1,1,-2,1,4
1576152396915721,-6,-2,-3,0,0,-2,-4,-8
1576152396931677,4,-3,0,1,-2,-2,-3,-7
1576152396931677,-1,-4,-5,-3,-1,2,1,-5
1576152396939554,-1,3,-2,-2,-1,-1,-2,-11
1576152396939554,-4,-1,1,0,-1,-1,2,2
1576152396954614,-8,-3,2,-2,-3,0,-2,-3
1576152396954614,-1,-1,0,-2,-1,0,1,1
1576152396956505,3,-3,-3,-1,-3,-3,-2,1
1576152396956505,2,-3,-1,1,-1,-1,-3,-1
1576152396969519,3,0,-2,-2,-2,-2,-3,-2
1576152396969519,3,2,1,1,2,2,-2,-2
1576152396975558,-1,-1,-2,0,0,-1,-1,6
1576152396975558,7,1,-2,-4,-3,-2,2,7
1576152396992531,6,-1,0,-1,-1,2,4,-1
1576152396992531,-3,0,-1,0,-3,-1,1,31
1576152396993415,-3,-3,0,0,0,-2,-4,4
1576152396993415,-1,2,-1,0,-1,1,-3,2
1576152397014455,3,-1,-2,1,-1,-1,-1,1
1576152397014455,-2,-3,-2,-1,2,-3,2,1
1576152397016346,-2,1,3,1,-1,0,2,2
1576152397016346,-4,2,2,-4,-2,-4,3,5
1576152397029349,8,1,-1,1,1,0,0,9
1576152397029349,0,1,1,-2,-2,0,-2,-10
1576152397043381,5,-1,1,1,-1,-1,-1,-2
1576152397043381,6,0,-3,1,0,0,0,-5
1576152397052350,-5,-2,2,0,0,-1,2,2
1576152397052350,-7,-2,-2,0,-1,1,-2,2
1576152397053295,-2,-1,-2,-3,-1,-4,-2,-2
1576152397053295,-1,1,0,-1,-3,-2,0,-7
1576152397075191,1,1,-3,-2,0,0,-3,-4
1576152397075191,5,1,1,-2,1,0,-1,0
1576152397076186,-3,-2,-1,-4,-2,1,-2,-2
1576152397076186,-3,-3,1,0,0,-2,-4,-2
1576152397089254,-3,-1,0,-1,1,1,-2,10
1576152397089254,-4,0,-4,1,-1,-3,1,-8
1576152397096180,-3,-2,-2,1,-3,1,0,-1
1576152397096180,1,-1,-1,-2,-1,-2,0,-15
1576152397112197,1,-1,-2,0,-2,-4,-10,-6
1576152397112197,-1,1,1,-1,-2,2,4,-2
1576152397114085,-2,0,0,1,1,1,1,12
1576152397114085,0,0,0,-1,0,2,0,3
1576152397135100,2,-3,-1,0,-4,-3,-2,-7
1576152397135100,1,-3,-1,-1,-1,-1,-2,22
1576152397136027,3,1,-1,-2,-5,-4,-2,-3
1576152397136027,0,0,-3,-1,-1,0,-2,1
1576152397149096,-8,-2,-4,-2,-2,-2,0,-3
1576152397149096,-3,-2,-1,-1,-1,-2,-1,-8
1576152397156072,1,0,0,1,0,-1,-1,-3
1576152397156072,-5,0,-1,-2,0,-1,1,7
1576152397172029,-1,-1,2,0,-1,2,4,-2
1576152397172029,0,-1,4,0,2,0,-1,-12
1576152397173926,-4,-2,-3,-2,1,-1,-1,-3
1576152397173926,-5,0,0,0,0,-2,-4,-6
1576152397194972,-2,-1,-2,0,-1,-1,0,10
1576152397194972,0,1,-1,-2,-3,-3,-3,-10
1576152397195867,4,2,-2,-4,-3,-4,-4,-7
1576152397195867,-1,-2,-2,-2,-1,0,-1,0
1576152397207836,0,0,-2,1,0,1,2,-2
1576152397207836,5,-3,-1,0,2,0,2,0
1576152397216927,-4,-2,0,-2,-2,1,0,5
1576152397216927,-3,3,1,1,0,-2,3,7
1576152397231871,-5,1,0,-1,0,-1,-4,-2
1576152397231871,0,-1,-3,0,-2,1,-1,0
1576152397233768,0,-1,-3,1,-2,0,0,-2
1576152397233768,-2,-4,-1,-3,0,0,-1,-7
1576152397254715,-4,2,-1,-1,0,-1,-1,-3
1576152397254715,-2,0,0,-2,-1,-7,-5,-18
1576152397256703,5,0,-1,0,1,3,4,18
1576152397256703,1,-5,1,0,-1,-3,-1,-3
1576152397268708,-6,-2,3,-1,0,0,1,0
1576152397268708,-7,-1,-1,-2,-3,-5,-5,-9
1576152397277648,-3,-3,1,-1,-2,0,0,-11
1576152397277648,-1,0,-3,-2,-1,2,0,5
1576152397292656,-2,0,-2,-6,-1,-2,0,-4
1576152397292656,4,-2,-1,-1,-1,2,2,6
1576152397293607,4,0,0,-1,1,-1,-4,-3
1576152397293607,0,-2,0,0,0,1,4,1
1576152397314656,4,0,-1,0,0,-1,-2,-3
1576152397314656,2,-1,1,1,-2,-3,-2,-2
1576152397316544,-9,-3,-3,0,0,0,-4,-3
1576152397316544,-1,-3,-1,-1,-2,-5,-7,-12
1576152397328513,2,4,0,0,3,-1,0,0
1576152397328513,-1,1,3,2,1,2,0,1
1576152397337490,4,-2,0,-2,-1,1,1,-2
1576152397337490,-2,-2,0,2,0,-2,0,-1
1576152397352564,-4,-4,-1,-2,-1,2,4,-2
1576152397352564,3,-2,-3,-2,-2,-1,0,1
1576152397353447,1,2,1,-2,-2,-2,-1,-2
1576152397353447,2,-1,-3,-1,0,1,-3,6
1576152397374491,-1,0,-3,0,-1,-3,-1,-4
1576152397374491,-6,-2,-2,-3,-1,3,3,0
1576152397376384,5,0,0,-1,0,-3,-4,-3
1576152397376384,-6,0,-4,-3,-1,0,-5,-11
1576152397388354,1,-2,1,0,-2,0,-1,-3
1576152397388354,-3,2,-1,-3,-2,-2,1,2
1576152397397328,-4,-1,0,1,1,0,3,-13
1576152397397328,-5,0,-3,0,-2,-1,1,-2
1576152397412337,-4,2,-3,-2,-2,-4,-4,-1
1576152397412337,5,-2,-3,-3,2,1,-1,0
1576152397413287,3,1,2,1,1,1,2,7
1576152397413287,7,0,2,0,-1,0,0,-1
1576152397435229,2,-3,-1,-2,-3,-3,-1,-3
1576152397435229,-1,-1,0,2,-1,1,-1,2
1576152397436224,-8,-1,-4,-1,-2,-2,-3,2
1576152397436224,-3,-4,1,-1,0,-2,-1,1
1576152397448296,0,-1,-3,-3,-1,-3,-1,-2
1576152397448296,-1,0,0,-2,1,1,0,0
1576152397457275,-1,-1,-1,-3,1,-2,0,-3
1576152397457275,0,-1,-1,-1,-3,-1,-2,2
1576152397472330,8,-1,-2,-1,-3,1,1,2
1576152397472330,-2,-2,-2,-2,-3,-1,2,1
1576152397473230,-7,-3,-2,-1,-1,-5,-1,-3
1576152397473230,1,0,-1,-2,0,-1,2,-4
1576152397494175,-11,0,2,1,1,1,-1,-7
1576152397494175,1,4,-2,2,-1,0,-2,-4
1576152397496165,1,-1,1,0,0,-1,-3,6
1576152397496165,5,0,1,0,-2,-1,-2,1
1576152397508136,2,0,0,0,-1,2,3,7
1576152397508136,1,-1,0,-1,0,-5,-2,-15
1576152397517110,-1,-2,-2,-2,-1,-2,-4,-4
1576152397517110,-1,-1,-3,-1,0,4,5,0
1576152397532169,2,0,3,1,1,-3,-5,7
1576152397532169,-4,0,2,0,0,7,6,4
1576152397534066,2,0,-2,1,3,1,-1,6
1576152397534066,-2,-2,0,0,1,0,1,0
1576152397555078,-3,-1,-4,-1,-2,-2,1,-1
1576152397555078,-6,-3,-1,-3,-2,-3,-3,2
1576152397556011,-1,-3,0,-1,-2,0,-2,-3
1576152397556011,2,-2,-1,-1,-2,0,-3,-3
1576152397567976,5,-1,-1,-1,-1,-3,-4,-6
1576152397567976,2,-1,-1,0,-3,-3,-5,-6
1576152397576996,-1,2,-1,0,1,2,0,2
1576152397576996,-6,-1,-1,1,-2,-3,0,3
1576152397592010,-1,-1,-3,-1,0,1,5,1
1576152397592010,-5,-2,-2,-2,-2,-3,0,4
1576152397593906,-7,-2,-1,-1,-1,-1,-1,-10
1576152397593906,1,-1,-2,-1,1,-1,-3,18
1576152397614947,3,-3,2,1,0,-1,-3,1
1576152397614947,-2,-3,-1,1,-3,-1,0,14
1576152397615848,-7,-3,-2,-1,-3,-2,2,-1
1576152397615848,1,-3,1,-2,1,-2,-2,-13
1576152397628823,-4,-1,-1,-1,0,-1,-1,0
1576152397628823,-4,1,-2,-1,1,-2,1,-4
1576152397636908,4,0,0,-1,-3,-3,-3,-1
1576152397636908,-6,-1,-1,-1,-2,0,-2,-8
1576152397652748,-5,-4,-2,-2,-2,-4,-7,-7
1576152397652748,3,2,0,0,0,3,2,-5
1576152397653749,0,-1,0,-2,-2,0,0,-3
1576152397653749,-3,3,-2,-1,-3,-1,-1,-3
1576152397674723,1,-1,-2,-1,-1,2,3,-5
1576152397674723,6,-2,1,0,1,0,1,2
1576152397676682,8,-1,-1,-2,-1,-1,0,4
1576152397676682,8,1,-1,1,0,-2,-4,2
1576152397697627,-8,0,1,-1,-5,-2,-2,-5
1576152397697627,1,-1,-2,-3,-1,0,-6,-4
1576152397698628,0,-4,-2,-1,-1,-2,-2,1
1576152397698628,3,-2,-1,-2,0,-2,1,-8
1576152397712586,-4,0,0,0,1,-2,2,10
1576152397712586,-6,0,-4,-3,-2,-2,-1,3
1576152397713588,-8,-2,2,1,0,7,3,15
1576152397713588,-5,-3,-3,1,-1,-1,1,-15
1576152397734574,-5,-4,-1,-1,0,-1,0,-2
1576152397734574,3,-3,0,-1,1,-3,-4,5
1576152397736524,3,1,-2,-1,2,0,0,3
1576152397736524,0,-1,0,-2,-2,-3,-2,2
1576152397757585,3,0,-3,-2,-2,-3,-1,3
1576152397757585,0,-3,-2,1,-1,-4,0,-3
1576152397758472,3,-1,-2,-1,-1,-2,1,-5
1576152397758472,-2,0,-1,-1,0,1,-3,3
1576152397772528,-4,-1,0,-1,-1,0,5,-2
1576152397772528,-3,0,1,0,0,1,-3,0
1576152397773425,-1,0,-2,0,-2,-3,-1,-4
1576152397773425,0,-1,-2,-4,-3,-2,2,5
1576152397794474,3,-3,-2,-2,-3,0,-2,6
1576152397794474,-3,0,0,0,-1,-3,-4,0
1576152397796363,-5,1,1,-1,0,-1,-1,-1
1576152397796363,-2,0,1,-2,0,0,0,-2
1576152397817406,4,0,-1,2,1,-2,0,-5
1576152397817406,0,-2,-2,2,-1,0,3,-5
1576152397818306,2,0,-1,2,-1,-3,-10,15
1576152397818306,0,-2,-2,-1,0,1,5,5
1576152397831272,2,0,1,0,0,2,-2,3
1576152397831272,1,0,1,0,-1,-3,1,0
1576152397838288,-1,-1,-1,1,-1,0,-1,1
1576152397838288,-1,2,0,-1,1,1,-5,1
1576152397855206,3,-2,-1,0,-1,3,1,4
1576152397855206,2,0,0,-1,-2,-3,1,2
1576152397856207,0,-3,0,-1,-2,-2,1,-12
1576152397856207,5,-2,1,2,-2,-1,-8,-1
1576152397877253,1,-1,2,0,0,-3,-3,12
1576152397877253,-1,1,0,-2,-1,-1,-3,-5
1576152397879144,2,-2,-2,1,0,0,5,1
1576152397879144,-4,-3,-2,3,3,1,1,2
1576152397891213,1,-2,-2,-1,0,-3,-1,-2
1576152397891213,-3,-1,-4,-1,0,-1,-2,-6
1576152397898130,3,1,0,0,-2,-3,1,-1
1576152397898130,3,1,0,-2,-1,-3,1,-3
1576152397915124,1,-1,-2,-1,-1,0,-3,-3
1576152397915124,-3,-3,-3,-2,1,2,2,0
1576152397916046,-6,-2,-1,0,0,-1,0,-21
1576152397916046,-6,-3,-2,-1,-1,-2,0,-4
1576152397937993,4,4,-2,0,-4,-1,-5,-4
1576152397937993,-2,-4,-2,0,2,2,1,4
1576152397938985,0,2,0,-5,-3,-2,0,-2
1576152397938985,-1,-1,0,0,-1,1,-3,3
1576152397951953,0,0,0,-3,0,-1,-3,-1
1576152397951953,-5,0,-3,-1,-4,-4,-4,-4
1576152397957900,-9,-1,1,-1,-1,1,-3,0
1576152397957900,-5,-3,-1,0,0,-1,0,5
1576152397974910,-6,-3,1,-1,-4,-1,-3,-10
1576152397974910,2,-2,2,0,0,-1,3,-1
1576152397975815,0,-1,-1,-4,0,-1,2,3
1576152397975815,1,-1,-2,1,-2,-1,-4,-7
1576152397996759,-4,-1,-2,-1,0,-3,3,-7
1576152397996759,-1,-2,1,1,-3,-1,-1,0
1576152397998747,-2,0,0,-3,0,0,-2,0
1576152397998747,-4,0,-1,-4,-1,-3,-3,-7
1576152398011720,1,-1,-3,-2,0,0,-2,4
1576152398011720,-5,0,-4,-2,0,-1,-2,1
1576152398018695,4,1,0,0,-2,0,-1,17
1576152398018695,1,1,-2,-1,-3,-4,-1,-8
1576152398034756,-4,-2,1,-1,-1,-2,-2,-6
1576152398034756,3,1,2,0,0,-1,-2,2
1576152398036647,-5,-4,-2,-2,-1,0,-1,-3
1576152398036647,3,0,-1,-1,1,-2,1,3
1576152398057628,-1,0,-2,0,-1,2,-1,-2
1576152398057628,5,0,-1,0,0,0,-2,-2
1576152398058593,1,-2,-3,2,-1,-3,-3,1
1576152398058593,-9,-2,-2,1,-3,0,-3,-8
1576152398071658,-7,-1,-2,-1,-3,0,6,0
1576152398071658,3,-2,-1,-1,-2,1,2,3
1576152398078536,3,-1,0,1,0,1,0,-2
1576152398078536,2,-1,-1,-3,1,-1,-1,7
1576152398094493,2,0,1,0,0,-3,-3,-1
1576152398094493,-4,-1,-2,1,-4,-2,-3,-11
1576152398096489,-1,1,0,0,-1,-2,-3,-5
1576152398096489,0,0,1,0,-4,3,3,-2
1576152398117533,2,-3,0,-1,2,4,1,2
1576152398117533,-2,0,0,-2,2,0,1,5
1576152398118427,-1,0,-3,-1,1,-3,-2,-4
1576152398118427,3,2,1,-1,0,-2,-2,-17
1576152398131392,-8,-2,0,-2,0,-1,0,-21
1576152398131392,-2,2,-3,-1,0,-1,-1,9
1576152398139408,4,0,-3,0,-3,0,0,-5
1576152398139408,2,0,-3,-2,0,-2,-3,-1
1576152398154433,-4,-2,-2,0,1,6,1,-3
1576152398154433,3,0,2,0,-2,-8,-6,2
1576152398156330,-6,-1,1,2,0,-1,2,-9
1576152398156330,-8,-2,-1,0,1,-1,-2,4
1576152398177379,0,2,-2,-3,-1,-5,1,6
1576152398177379,5,-2,0,1,2,1,-4,-2
1576152398178268,2,-1,0,0,1,1,-2,2
1576152398178268,-7,0,-1,0,-1,-2,2,2
1576152398191279,-9,-4,0,2,-2,-2,-6,2
1576152398191279,-1,-2,-2,-1,-3,1,1,-9
1576152398200213,4,0,-1,-1,0,-4,0,-3
1576152398200213,1,-6,-1,0,-1,1,-1,3
1576152398215191,5,2,1,-1,-3,-2,-1,9
1576152398215191,2,1,0,-4,-2,-2,2,-3
1576152398216170,-4,0,-2,-2,-1,2,-1,-3
1576152398216170,-5,-2,-1,0,1,1,0,5
1576152398237217,7,3,-2,-2,2,-3,-1,-1
1576152398237217,-3,-3,-1,-2,-2,-3,-6,-4
1576152398239109,-2,-1,-1,-4,-3,1,3,8
1576152398239109,0,-1,0,0,-3,-3,-2,-3
1576152398250658,-3,-2,0,0,-2,0,-6,-20
1576152398250658,-5,2,-3,-1,-2,0,-1,-6
1576152398259530,-1,-2,-2,-2,-3,-2,0,-4
1576152398259530,0,-1,-1,-1,-5,-2,0,3
1576152398274595,3,-4,-1,1,0,0,2,2
1576152398274595,2,0,-1,-1,1,-1,0,6
1576152398276486,-1,-2,0,-2,0,-5,-3,5
1576152398276486,-1,0,-1,-2,1,4,5,-22
1576152398297432,2,-1,-1,-1,0,1,-1,7
1576152398297432,-4,1,-2,0,-2,5,2,0
1576152398298428,-2,0,-2,1,-2,-8,-1,5
1576152398298428,1,0,-1,-2,-1,-3,-4,-5
1576152398311392,-4,0,-3,-1,0,0,1,3
1576152398311392,10,-1,2,-1,0,0,-2,-7
1576152398319456,2,2,-1,-2,-3,1,-1,-12
1576152398319456,2,-2,-2,-2,-4,-3,-3,9
1576152398334435,-4,-3,-2,3,-2,-1,2,3
1576152398334435,-1,-3,1,2,0,0,1,6
1576152398336329,-2,-1,0,1,0,3,-1,-2
1576152398336329,1,-1,0,-1,-1,-1,4,13
1576152398357349,-1,1,0,-1,-2,-1,-4,-4
1576152398357349,-9,1,-2,-2,-1,-2,-2,-3
1576152398358268,-6,-5,-2,-2,-3,0,-1,0
1576152398358268,2,1,-1,-2,1,-1,-1,-8
1576152398371281,-1,0,-2,-2,-1,-2,1,-3
1576152398371281,-2,1,-1,1,0,-3,-2,-5
1576152398380213,3,-3,-1,0,-1,-2,-2,0
1576152398380213,2,-2,-4,-1,-1,-3,-5,-4
1576152398402187,6,-2,0,-1,-1,0,2,7
1576152398402187,1,-4,1,-1,-1,-3,-5,1
1576152398404149,-6,1,2,-1,-2,-2,0,-3
1576152398404149,2,-1,-1,0,-4,0,3,6
1576152398417216,-5,-2,0,1,2,-3,1,2
1576152398417216,-7,-4,-4,-1,-2,-1,0,-3
1576152398419106,-2,-1,0,0,0,-3,-2,-2
1576152398419106,-2,0,2,-1,-1,-3,-1,5
1576152398431193,0,1,1,1,-4,-3,-2,-2
1576152398431193,7,-1,-1,1,1,2,2,5
1576152398440049,2,-1,0,-2,-1,0,-2,-2
1576152398440049,-4,0,-2,1,-2,-1,-1,-4
1576152398455012,-3,-2,-1,-4,-3,-2,-5,-12
1576152398455012,0,-1,-1,-1,-1,0,-1,2
1576152398456009,3,2,-3,-4,-1,-2,-4,6
1576152398456009,-1,-2,-1,-1,-3,-1,-1,1
1576152398476996,2,0,-2,-2,-2,0,3,8
1576152398476996,0,-2,-1,-1,-3,2,1,0
1576152398478949,7,0,-2,-2,1,2,2,-2
1576152398478949,-1,-2,2,2,3,2,3,1
1576152398491019,-1,3,-2,2,-1,-3,-7,1
1576152398491019,-5,-1,2,0,1,0,3,-2
1576152398499889,-1,-1,-3,-1,-2,-5,-5,0
1576152398499889,-2,-3,0,0,0,-1,-2,-12
1576152398514951,1,0,0,-1,-1,0,-3,-1
1576152398514951,-4,-1,1,0,-3,-1,-3,2
1576152398515846,-4,-1,0,0,-1,2,0,-3
1576152398515846,5,-2,-2,-2,0,-3,-3,-2
1576152398536893,1,-1,-1,-3,-1,-3,0,4
1576152398536893,0,-3,-3,-4,0,-1,0,-2
1576152398538792,-3,-1,-4,-2,2,-2,2,2
1576152398538792,-3,-1,-2,1,-1,0,-2,-1
1576152398550856,3,-3,0,2,-2,0,1,3
1576152398550856,0,0,0,1,-1,-4,-4,-5
1576152398559734,-1,-2,0,-1,-2,1,0,2
1576152398559734,0,-1,0,-2,1,0,2,6
1576152398575686,-5,-1,0,-1,0,1,4,-1
1576152398575686,-5,0,2,-1,-5,-3,0,1
1576152398576688,2,-1,-1,-2,-1,3,0,2
1576152398576688,2,1,0,-1,1,-2,-5,-1
1576152398597628,-3,-3,0,-2,-1,1,-3,-1
1576152398597628,-1,0,-2,-1,3,0,-1,-3
1576152398598629,1,2,0,3,3,1,1,-6
1576152398598629,2,0,-1,0,-2,1,2,3
1576152398619670,-5,-1,-4,0,0,-3,-2,-8
1576152398619670,-3,-3,1,-3,-2,-2,-6,2
1576152398621563,-1,-1,0,-2,0,-1,0,1
1576152398621563,4,-2,1,1,1,0,0,-4
1576152398634552,0,-2,-1,0,0,1,-1,1
1576152398634552,-5,0,-2,-1,-1,2,-1,-5
1576152398640571,-3,3,-1,0,-3,0,2,4
1576152398640571,-4,1,0,-3,-4,-1,-1,-17
1576152398657505,-1,-3,-4,1,0,1,2,6
1576152398657505,-2,-1,0,-1,0,-2,-1,-4
1576152398658465,-3,1,1,0,1,3,0,2
1576152398658465,-4,0,-1,-3,0,-7,-2,2
1576152398679410,0,1,-1,-2,1,0,-2,-2
1576152398679410,1,-3,-2,1,-1,2,6,4
1576152398681405,-5,0,-4,1,-1,-1,0,5
1576152398681405,2,-2,1,1,-1,3,1,3
1576152398694477,2,0,-1,-3,-2,-3,-5,-4
1576152398694477,3,1,1,1,2,-2,2,3
1576152398696365,-2,-3,-3,-3,-1,-1,-1,-8
1576152398696365,1,1,0,-1,-2,1,-5,4
1576152398717411,2,-5,2,-3,-2,0,-1,10
1576152398717411,-3,-1,-5,-2,-3,2,-2,-10
1576152398718305,-4,-3,2,1,-2,-4,0,-4
1576152398718305,-10,-1,-2,0,-1,1,1,9
1576152398740246,-4,-1,2,-3,-3,-1,1,-2
1576152398740246,4,0,-1,-2,0,0,-2,1
1576152398741248,-3,-6,-1,-2,-1,-3,-2,-3
1576152398741248,-5,-1,-2,-1,0,0,-4,3
1576152398754208,-2,1,-2,-1,-1,-1,-1,-1
1576152398754208,-4,-3,-3,0,-4,-3,0,1
1576152398761278,-2,-4,-1,-1,1,0,3,-5
1576152398761278,1,-1,-3,1,1,-1,-2,-4
1576152398777251,-1,1,0,-1,2,-1,-2,-4
1576152398777251,6,1,-3,-1,-4,0,-3,-3
1576152398779141,4,1,1,1,-2,0,-4,-2
1576152398779141,-1,1,-2,-2,-3,-2,-1,-1
1576152398800086,3,2,-2,1,3,6,-1,0
1576152398800086,2,-2,3,-1,-1,-6,-1,2
1576152398801084,-4,-1,-3,-1,0,0,-1,2
1576152398801084,0,0,-3,-2,-2,1,2,-3
1576152398814156,-4,0,-1,2,1,1,2,-5
1576152398814156,-1,0,-2,0,0,1,-1,-1
1576152398821133,-2,3,-1,0,-1,-2,-4,-2
1576152398821133,2,0,-1,-1,0,0,-4,-2
1576152398837092,0,1,-3,-3,-5,-2,-6,-9
1576152398837092,2,0,0,-1,4,0,-6,-6
1576152398838983,6,-2,-1,0,0,-1,0,1
1576152398838983,-2,-3,0,-1,-1,2,-2,-3
1576152398860024,0,-3,-1,1,-2,-4,-1,-3
1576152398860024,-5,1,-2,-2,1,0,3,-14
1576152398860926,-1,-1,-2,3,-1,0,-4,-1
1576152398860926,-3,-2,1,-2,-2,-4,-2,0
1576152398873892,0,-5,-1,-3,2,0,1,3
1576152398873892,-3,1,1,1,0,1,-1,-2
1576152398880906,0,0,-4,-2,-1,-1,1,-1
1576152398880906,0,-2,0,0,-1,1,3,35
1576152398896930,-3,-2,0,2,-2,-2,-1,3
1576152398896930,-1,-3,-1,-1,-2,-2,0,0
1576152398898822,1,1,0,-1,0,-2,-1,-5
1576152398898822,2,-2,-1,-1,-1,0,-4,-8
1576152398919814,-6,-3,-3,-4,-1,-4,1,-3
1576152398919814,3,2,-2,0,-1,-1,-6,8
1576152398920771,-4,-2,-1,0,-2,-2,-2,-5
1576152398920771,6,-2,-1,-1,3,-2,3,-1
1576152398933731,0,1,0,1,-1,-1,-4,-5
1576152398933731,0,0,-1,-1,-2,0,6,4
1576152398940811,2,1,2,-1,0,1,-2,-4
1576152398940811,-5,-1,-3,-2,-2,-2,-3,-6
1576152398957701,1,2,1,-2,1,-1,0,-1
1576152398957701,-4,-2,1,1,3,1,1,5
1576152398958670,1,0,-1,-5,-2,-1,-3,-1
1576152398958670,-6,0,-2,-2,-1,-4,-1,-1
1576152398979609,0,-1,2,3,-1,1,1,4
1576152398979609,3,1,-4,-2,-4,-4,-3,-4
1576152398985697,0,-1,2,2,0,-1,2,-3
1576152398985697,-3,0,-1,2,1,1,-1,-6
1576152398994567,0,1,-2,-1,2,0,1,5
1576152398994567,2,-1,0,-3,0,-5,-6,0
1576152399000593,-2,1,-2,-1,-3,-3,-5,5
1576152399000593,-2,0,-1,0,-2,0,2,0
1576152399017552,-2,-1,-2,1,-3,-1,4,-3
1576152399017552,-7,-4,-3,0,0,0,4,1
1576152399018507,1,0,0,-3,1,2,-2,10
1576152399018507,-2,-3,-1,-1,-2,-2,-1,-5
1576152399039449,5,-1,-4,-3,-3,-2,-1,4
1576152399039449,1,1,1,0,1,0,0,-4
1576152399041443,0,-4,-3,-3,-3,-3,-1,-5
1576152399041443,3,0,1,-2,-1,-3,-2,4
1576152399054405,-2,0,2,-1,0,0,0,5
1576152399054405,2,1,-3,-2,-4,-1,-2,0
1576152399060434,-6,1,-2,0,-3,0,-3,-6
1576152399060434,-4,-2,-1,-2,-2,2,4,0
1576152399077349,1,0,-1,-1,-3,-2,-2,-6
1576152399077349,-6,-5,0,0,-1,-2,-2,0
1576152399078350,-2,-5,-3,-3,0,-4,-1,5
1576152399078350,0,-1,-1,2,3,-1,-2,-6
1576152399099392,-4,1,-3,-3,-1,0,-4,-3
1576152399099392,-1,0,1,0,0,-3,-6,2
1576152399101286,0,-1,1,1,0,0,1,-6
1576152399101286,2,-3,-2,0,-1,1,2,-1
1576152399113356,-4,-2,2,-1,0,0,1,5
1576152399113356,-4,-4,0,-1,0,3,1,-5
1576152399122232,4,0,1,-1,1,1,2,7
1576152399122232,6,0,-3,-2,-2,-1,-4,-1
1576152399137310,-3,-1,0,0,0,-1,1,-3
1576152399137310,-7,-2,-1,-4,-5,0,0,-5
1576152399139178,3,1,2,0,-2,-3,2,8
1576152399139178,-5,1,-1,-1,-2,-3,1,-7
1576152399160171,4,-2,2,0,-2,2,1,26
1576152399160171,2,0,-2,-4,-3,-2,-1,2
1576152399161125,0,-1,0,0,0,-3,-1,-4
1576152399161125,0,1,-2,0,-3,-1,-3,-3
1576152399173185,3,0,-2,-2,-1,-1,-5,-18
1576152399173185,1,2,1,2,2,0,1,0
1576152399182071,-3,-2,-3,-1,-4,3,-1,0
1576152399182071,4,1,0,0,3,0,1,6
1576152399197026,-3,-3,-3,0,-1,-1,3,-2
1576152399197026,-1,-1,-4,-1,0,-1,-1,0
1576152399199021,-5,-3,2,-2,-1,0,-1,-8
1576152399199021,1,0,0,-1,-1,-1,1,-4
1576152399220075,1,-2,0,-1,-1,-2,0,-2
1576152399220075,3,0,1,-1,0,0,2,4
1576152399220963,-1,-1,-2,-3,0,-1,-2,-10
1576152399220963,-7,-1,2,-1,0,0,-3,0
1576152399232941,-4,0,0,1,-1,-1,-2,-2
1576152399232941,0,-1,-1,0,-2,-6,-3,4
1576152399241998,2,1,-2,0,-3,1,-4,2
1576152399241998,0,-3,2,1,0,-3,-3,1
1576152399256983,8,2,-1,2,0,-2,-1,-6
1576152399256983,1,-1,-1,0,0,3,-1,-1
1576152399258913,0,0,-1,-2,-2,-2,1,-4
1576152399258913,-4,-1,0,1,-1,-2,-4,-6
1576152399279861,-4,-3,1,-2,0,1,0,1
1576152399279861,0,0,-2,2,-1,0,1,-5
1576152399280856,-2,-3,-5,-2,-2,2,1,0
1576152399280856,1,1,-2,-3,1,0,4,8
1576152399293850,-5,-5,-3,-2,-4,-2,0,0
1576152399293850,-5,-2,2,0,0,2,3,17
1576152399302811,-3,1,0,0,2,-2,1,0
1576152399302811,5,1,-1,-1,-1,0,-1,-1
1576152399317758,4,-2,0,0,0,-1,-5,-2
1576152399317758,-1,-3,-4,-2,-1,1,1,-3
1576152399318755,-1,1,0,0,0,0,0,3
1576152399318755,-6,-1,-3,-1,-1,0,3,10
1576152399339697,2,3,2,0,-2,0,-1,-3
1576152399339697,4,-2,0,-1,0,1,-1,-7
1576152399341693,0,0,0,1,-2,0,-2,-3
1576152399341693,-3,-1,-1,1,-2,2,-5,-10
1576152399353772,-6,-2,-1,-1,0,1,0,2
1576152399353772,0,0,1,-2,-2,-1,1,-4
1576152399362599,-3,0,0,-1,2,-1,-2,-5
1576152399362599,0,0,0,0,-1,-3,2,-5
1576152399377560,-1,0,-2,-1,-3,-1,-2,-1
1576152399377560,-7,1,1,0,0,-3,-4,-8
1576152399378555,1,0,1,-2,-2,-3,-2,3
1576152399378555,1,-1,-1,-4,0,-2,1,1
1576152399399599,2,0,-1,-1,0,1,0,-3
1576152399399599,3,3,0,-2,-1,0,-1,-1
1576152399401498,-1,-3,0,0,-4,-3,-2,3
1576152399401498,-1,-1,-3,-2,0,2,-4,-4
1576152399413561,-4,-2,-1,0,1,-1,-1,0
1576152399413561,0,-2,-2,0,0,-1,1,5
1576152399422445,-2,-1,1,-3,-3,0,-1,-1
1576152399422445,-6,1,-2,-1,-4,-1,-1,-7
1576152399437496,1,-1,0,-1,0,-1,0,6
1576152399437496,6,-2,-2,0,-2,-3,0,4
1576152399438394,-1,1,-2,-3,0,1,0,-4
1576152399438394,-1,0,-1,-1,-3,-2,-2,-4
1576152399459438,-8,-2,-2,-1,-1,-1,-3,-7
1576152399459438,-4,-2,-2,-1,-2,0,2,20
1576152399461333,3,0,0,2,0,-3,0,0
1576152399461333,-1,1,3,0,-1,-1,-3,0
1576152399473400,-1,1,-2,-3,-4,1,3,-3
1576152399473400,-2,2,3,0,-3,-2,-1,-10
1576152399482277,-2,-2,-1,-2,0,0,-3,-6
1576152399482277,1,-1,-4,0,-1,-4,-3,0
1576152399497237,1,-2,-1,-1,1,-2,2,0
1576152399497237,-2,-2,-1,0,1,-1,-3,-5
1576152399498234,2,0,-4,-2,0,1,3,0
1576152399498234,6,0,-1,-1,-1,-3,0,5
1576152399520206,-4,-1,2,-3,1,-4,-5,-2
1576152399520206,-4,-3,-2,2,-1,0,-1,-6
1576152399521188,0,0,0,-2,-2,-1,1,3
1576152399521188,-1,-1,2,-1,-1,1,-1,-1
1576152399542216,-3,2,-1,3,-2,-3,1,0
1576152399542216,-2,1,-4,0,1,2,0,-4
1576152399544113,-3,-2,-2,1,-1,-9,-3,2
1576152399544113,1,0,0,-2,0,0,-3,2
1576152399557171,1,-1,-1,0,-2,-1,-2,1
1576152399557171,4,-1,-1,2,-1,0,0,-7
1576152399559070,-5,-1,1,1,-1,0,0,-3
1576152399559070,-4,-3,-2,-2,1,-1,1,-6
1576152399580111,-6,0,-2,3,-2,-2,-1,3
1576152399580111,1,2,0,-2,1,1,0,2
1576152399581020,7,-2,1,1,1,-1,1,3
1576152399581020,0,-3,2,0,0,-2,2,4
1576152399601999,1,1,-2,-3,-2,1,-1,3
1576152399601999,0,-2,-3,-3,0,0,-3,15
1576152399603949,-2,-2,-3,-1,-2,1,-2,-6
1576152399603949,-5,1,-1,-1,1,-1,2,0
1576152399617011,4,2,1,0,-1,-1,-2,-2
1576152399617011,-1,1,2,-2,-2,-2,2,-3
1576152399618912,-6,-1,-1,-2,0,-1,-3,0
1576152399618912,1,-1,-2,-3,-3,-3,-1,4
1576152399639854,2,1,-1,-2,-1,-1,-5,-8
1576152399639854,-2,-4,0,0,0,-5,-4,-10
1576152399640853,4,1,-1,1,0,3,-2,3
1576152399640853,-5,-3,-2,-1,-2,-2,-2,-6
1576152399662454,-5,-5,-2,0,0,-1,-1,3
1576152399662454,2,0,-3,-2,1,1,1,6
1576152399663457,2,-2,-4,-1,-2,0,0,-2
1576152399663457,3,-2,-1,0,1,0,-1,0
1576152399677416,-2,-1,-2,0,1,-1,-1,-2
1576152399677416,-3,-2,0,-1,-2,-2,-1,-2
1576152399678415,-5,-1,-1,1,-1,-3,3,4
1576152399678415,-1,1,0,1,-4,-1,-2,-10
1576152399707442,5,-1,-1,-1,-2,-1,1,-3
1576152399707442,4,0,-1,-1,0,0,-3,-7
1576152399708335,1,1,2,0,2,-1,-5,-7
1576152399708335,-6,2,-1,1,0,-1,-5,-2
1576152399722394,-6,2,-3,-3,-1,-1,-1,-2
1576152399722394,0,-1,0,-1,-2,0,-3,-2
1576152399724293,1,2,-2,-1,-2,0,1,-5
1576152399724293,2,-2,0,-1,-1,-2,3,4
1576152399736360,-5,-1,0,-1,2,4,1,2
1576152399736360,3,1,-1,1,-1,-6,1,3
1576152399743339,-1,-2,-3,1,-1,-1,0,2
1576152399743339,3,0,2,1,-2,-4,-3,-1
1576152399759677,4,-3,-3,-2,-3,-2,1,5
1576152399759677,-3,0,0,1,-1,-1,-1,8
1576152399761634,-6,-1,1,0,0,-1,0,1
1576152399761634,-4,-2,-3,-4,-3,2,-1,2
1576152399782647,0,-2,1,-2,0,-3,-2,-2
1576152399782647,-4,-1,-3,-1,-3,-3,0,-4
1576152399783571,-2,1,-2,-1,-1,1,2,-1
1576152399783571,0,-1,1,0,1,1,0,1
1576152399796636,0,2,0,0,-2,-2,-3,-8
1576152399796636,-4,-1,-1,-1,0,1,0,-10
1576152399803619,5,-2,-2,-1,0,-2,0,1
1576152399803619,-1,-1,-2,-3,1,0,3,-1
1576152399819574,-6,-3,1,-1,0,-2,-2,-6
1576152399819574,-4,-1,-1,-2,-1,0,-2,-3
1576152399821477,-1,-1,0,2,0,-2,-2,3
1576152399821477,0,-1,-1,0,0,2,-2,0
1576152399842419,0,-1,-1,0,1,-5,-6,0
1576152399842419,-2,-2,-2,0,1,0,0,2
1576152399843410,-5,2,1,-1,-4,-1,-2,1
1576152399843410,-5,-2,-3,-1,-3,-2,-3,-1
1576152399856480,0,1,-2,-2,0,0,0,0
1576152399856480,-1,-3,-3,-1,0,-2,-1,-7
1576152399863458,5,-1,-1,-1,1,1,-1,5
1576152399863458,4,0,1,0,0,0,4,3
1576152399879318,0,-3,0,-2,-4,-5,-1,1
1576152399879318,-1,2,-2,-4,0,0,-3,-5
1576152399881314,0,-3,0,-1,0,0,-3,-6
1576152399881314,-5,0,-2,-1,-3,-3,-2,2
1576152399902348,0,-2,0,-1,0,-1,1,2
1576152399902348,-4,-1,-1,-1,-4,0,-3,-4
1576152399903260,-1,-3,0,-2,-3,-1,-7,-1
1576152399903260,-1,0,-2,-1,4,3,3,-5
1576152399916317,-3,-1,-2,-1,-1,1,-5,-3
1576152399916317,1,2,0,-1,-1,-1,-3,3
1576152399923233,5,0,-2,-1,2,0,1,3
1576152399923233,-2,-2,0,1,0,-1,-1,-3
1576152399940175,0,0,-1,1,-4,-3,-2,-3
1576152399940175,0,0,0,0,-2,-2,-5,-4
1576152399941152,-3,-3,-5,-1,-2,-2,0,1
1576152399941152,2,0,3,-1,-2,1,1,1
1576152399962139,4,-1,-1,0,-2,0,3,-1
1576152399962139,2,-1,-2,-3,0,0,-1,-1
1576152399964088,-1,-1,1,-1,0,-1,-1,-1
1576152399964088,-1,-1,-5,1,-2,-1,-4,2
1576152399977058,3,-2,-1,2,0,2,2,4
1576152399977058,3,-2,-1,-1,1,1,3,1
1576152399983138,-4,1,3,-2,-1,-1,0,-4
1576152399983138,0,-1,0,0,-2,-1,2,8
1576152400000012,-3,-3,0,-1,1,-2,-1,-3
1576152400000012,-2,0,-2,0,-1,1,-1,2
1576152400000988,0,1,-1,-1,0,-1,-1,-1
1576152400000988,-1,1,-2,-2,-1,-2,-3,-4
1576152400022032,-8,-1,-2,-1,-1,1,0,-9
1576152400022032,1,-3,0,2,0,2,0,2
1576152400023937,2,1,0,-2,0,0,1,-2
1576152400023937,2,0,0,-1,-5,-3,-6,-7
1576152400035990,-3,-1,1,-1,1,-2,0,-4
1576152400035990,-6,-1,-2,1,-1,-2,2,-2
1576152400044885,-5,-1,0,2,-1,1,3,1
1576152400044885,1,-2,1,-1,-1,-1,-3,2
1576152400059833,2,-1,-3,-4,-3,-1,-1,3
1576152400059833,1,-1,2,2,-4,0,-3,2
1576152400060830,-1,-3,-2,-1,-1,0,-1,-1
1576152400060830,-2,0,-1,-2,1,1,-1,-1
1576152400081822,0,2,-2,0,0,1,0,1
1576152400081822,7,0,-1,-3,1,-3,0,0
1576152400083771,-4,-1,-4,2,0,2,2,-1
1576152400083771,-1,-3,0,0,-1,-5,1,-2
1576152400095776,-1,-1,1,0,-2,2,-6,-3
1576152400095776,-4,-2,1,-1,-1,2,0,3
1576152400104714,3,0,0,1,-3,1,4,1
1576152400104714,3,0,-2,-2,1,1,1,0
1576152400119777,-3,-4,-1,0,0,-2,3,0
1576152400119777,1,1,-1,-1,-2,-3,-2,-6
1576152400121667,-8,-2,1,-2,-1,-6,-10,-4
1576152400121667,2,1,-2,-1,1,-1,6,7
1576152400142653,5,1,0,-2,-3,-1,2,1
1576152400142653,-4,-1,-3,-4,-3,-2,-3,-5
1576152400143612,5,2,1,-2,-1,-4,-1,-2
1576152400143612,-5,1,-1,2,-1,-1,-3,-4
1576152400155681,3,0,-1,0,-2,-2,-1,2
1576152400155681,1,-3,-2,-3,-1,-2,2,-18
1576152400164733,3,-1,-2,-3,-2,-1,-3,-4
1576152400164733,-6,-4,-1,-3,-4,-1,-3,-5
1576152400179788,-8,-1,0,0,-2,-2,-1,2
1576152400179788,-4,-2,-2,-1,-1,-3,-2,-2
1576152400181682,0,1,-3,-1,1,1,-2,-3
1576152400181682,1,1,1,1,-1,-1,-8,-3
1576152400202674,-3,1,-2,-1,0,-3,-4,-5
1576152400202674,0,-2,0,2,0,1,-3,2
1576152400203627,-3,-1,1,-2,1,0,-1,2
1576152400203627,-3,-4,-1,0,-1,0,-1,-3
1576152400215694,3,1,-3,-3,0,-1,3,-6
1576152400215694,3,2,-3,-1,-1,-1,-3,4
1576152400224572,1,-2,0,-1,0,0,0,0
1576152400224572,-2,1,-1,-2,0,-1,-2,3
1576152400239632,-5,-3,2,1,1,1,1,4
1576152400239632,2,1,0,1,0,-1,0,2
1576152400241526,5,0,0,-2,-1,-1,2,3
1576152400241526,3,-5,0,-1,1,2,5,10
1576152400262520,-4,-5,0,-2,-1,0,-1,4
1576152400262520,-2,1,-1,1,2,0,2,3
1576152400263487,-8,-2,-1,1,-7,2,0,-2
1576152400263487,2,-2,-2,-2,-3,-8,-2,-7
1576152400275482,4,0,-1,1,-2,2,-2,-3
1576152400275482,-2,-3,-2,0,0,-2,-2,7
1576152400284476,0,-4,1,1,-1,-1,1,-5
1576152400284476,-12,-2,-3,-1,-2,1,1,-3
1576152400299471,-2,-2,-6,-3,-1,-2,1,2
1576152400299471,-2,1,2,2,-2,-2,-1,-3
1576152400301364,1,-2,-2,0,-1,-3,1,5
1576152400301364,3,-3,0,0,-2,2,1,2
1576152400322412,4,-1,3,-1,0,-1,-3,-6
1576152400322412,0,-1,2,-2,0,-3,-1,2
1576152400323313,1,2,-2,1,1,-2,1,-2
1576152400323313,3,3,0,0,-1,-1,-2,1
1576152400336317,-3,0,-1,1,0,-1,-1,-7
1576152400336317,-2,-4,-2,-1,-2,0,-4,-3
1576152400345247,-3,-1,0,1,0,-1,-5,1
1576152400345247,1,-1,0,-1,-3,4,3,0
1576152400360227,-1,2,-2,2,-1,-1,0,-1
1576152400360227,-3,-1,0,-2,-2,-1,0,-2
1576152400361202,-7,-2,1,1,0,-1,0,1
1576152400361202,0,-3,-1,-2,-2,-3,-1,-2
1576152400382252,-2,-3,1,0,-1,2,-1,3
1576152400382252,5,1,-3,0,-1,3,-1,0
1576152400384142,1,-1,0,-2,-1,-1,0,1
1576152400384142,-4,1,-1,1,2,0,1,-9
1576152400396232,2,-2,-2,-1,0,-1,0,0
1576152400396232,-5,0,-4,-5,-1,0,3,-4
1576152400405085,4,0,1,-3,-1,-1,1,-4
1576152400405085,1,0,-2,1,-1,-4,-4,-1
1576152400420150,2,3,-1,0,1,7,-1,3
1576152400420150,-2,-2,0,1,-1,-3,1,0
1576152400421046,2,-2,-1,-3,-2,-2,-3,-6
1576152400421046,1,-1,1,-3,-2,-3,-1,-4
1576152400442092,-2,-2,-2,-2,-2,-3,0,0
1576152400442092,-4,-4,0,-2,-2,-1,-3,0
1576152400443982,-4,-1,-4,0,-4,-1,1,4
1576152400443982,-3,0,-1,-1,-1,-3,-3,-6
1576152400456055,2,-1,-2,-2,-4,-1,-5,-5
1576152400456055,-3,0,0,1,1,-2,-2,-5
1576152400464926,0,-1,-2,-2,2,2,-3,3
1576152400464926,-2,-1,0,-1,0,0,1,-3
1576152400479929,-5,-1,-2,-1,-2,-2,-2,-7
1576152400479929,-1,1,2,0,-1,-1,0,-1
1576152400480885,-2,-1,-1,0,-1,0,4,2
1576152400480885,-1,2,0,0,-1,0,1,5
1576152400501827,-1,-4,0,-1,-1,-1,-2,7
1576152400501827,5,0,-1,-1,2,2,4,6
1576152400503823,-1,-6,-2,1,-2,2,-5,-2
1576152400503823,3,-1,-1,-1,2,-1,2,3
1576152400524865,-4,-2,-1,-3,-3,-2,0,0
1576152400524865,6,1,-2,-2,-2,-2,1,-3
1576152400525771,8,-1,2,1,1,0,0,-7
1576152400525771,-11,-1,-2,0,-2,1,-1,-5
1576152400539728,-1,-1,-2,-1,2,0,-1,1
1576152400539728,-5,2,-4,-1,-2,0,-1,-15
1576152400541720,-4,1,-2,-1,0,-2,1,2
1576152400541720,0,0,-3,-2,-3,-3,-4,2
1576152400562710,-1,0,4,2,-1,-3,-4,-1
1576152400562710,-1,-1,-1,-3,-2,3,3,5
1576152400563664,3,2,-1,1,0,-3,-2,-2
1576152400563664,3,-2,-1,-1,0,-1,0,1
1576152400584711,0,1,-1,-2,-3,-1,0,-5
1576152400584711,-1,-1,-2,0,1,1,1,5
1576152400586600,-11,-3,-2,-1,-3,-3,-3,-8
1576152400586600,-3,-2,-3,-2,-3,-9,-5,0
1576152400599671,-1,0,-1,3,3,-3,-2,-1
1576152400599671,-2,0,1,0,1,-3,-7,1
1576152400601560,-1,3,-1,0,-1,1,3,4
1576152400601560,-2,-4,-2,-1,1,5,0,2
1576152400622626,2,-2,-3,-3,1,-1,3,3
1576152400622626,1,-4,-2,0,0,-5,-2,-2
1576152400623503,3,1,0,0,-2,-2,-3,-1
1576152400623503,-1,2,0,-2,-2,-4,-3,-5
1576152400644446,-6,-3,1,-1,-1,3,0,0
1576152400644446,-1,-2,1,0,0,1,3,3
1576152400646440,-2,-4,0,-4,-1,-1,-1,2
1576152400646440,0,2,1,1,1,2,0,0
1576152400659488,0,0,-3,-1,-1,0,-3,-2
1576152400659488,-4,-3,0,-2,-5,-4,-7,-8
1576152400666389,1,-2,-1,-3,-1,-1,-5,-5
1576152400666389,2,2,-3,-1,-1,0,1,-1
1576152400682448,0,1,0,0,1,-1,-2,-3
1576152400682448,0,0,-2,0,1,-1,1,1
1576152400683342,-2,-2,-3,-1,-3,0,3,20
1576152400683342,1,-1,2,0,3,1,0,-5
1576152400704391,0,-1,-2,1,-6,-2,-2,-1
1576152400704391,-4,1,2,-2,0,2,2,5
1576152400706281,-1,0,0,-1,-1,-2,-3,-9
1576152400706281,-4,-4,-2,-4,-1,1,-3,1
1576152400719340,0,-5,0,-3,-2,0,1,2
1576152400719340,4,1,-1,2,1,0,-1,-2
1576152400726281,-1,0,-1,-3,0,8,5,2
1576152400726281,-2,-1,0,1,2,-1,-1,-2
1576152400742287,-3,1,-1,-4,-2,-1,-2,-9
1576152400742287,-1,-2,-1,-5,-2,-1,-2,-5
1576152400744179,-5,-4,-3,-4,2,-2,-1,-3
1576152400744179,-3,0,-2,2,-3,2,0,-7
1576152400765170,-2,1,0,0,0,0,1,0
1576152400765170,2,-2,-2,-1,-2,0,-6,2
1576152400766123,0,-1,-2,-1,0,-3,3,-1
1576152400766123,-6,-4,3,1,-1,-1,-2,2
1576152400779090,2,-2,0,-1,-1,-3,1,2
1576152400779090,0,1,1,3,2,1,-2,-2
1576152400786170,3,0,1,4,0,-2,-3,4
1576152400786170,4,-2,-1,-2,-2,0,-2,-5
1576152400802127,-4,-1,2,-1,2,1,4,-3
1576152400802127,3,-1,-2,-2,0,-1,-1,3
1576152400804019,0,0,-1,-2,-3,-1,-3,1
1576152400804019,-5,-1,-1,3,0,3,4,5
1576152400825008,-2,3,2,1,-1,0,0,3
1576152400825008,0,-2,-2,-4,-2,1,0,-2
1576152400825960,3,2,1,1,-2,-2,-2,-8
1576152400825960,-2,-2,-3,-1,-2,-2,-3,-1
1576152400839021,-1,-3,0,-2,0,-2,-6,7
1576152400839021,-1,2,-2,-1,0,-3,1,-1
1576152400846010,2,-3,-2,-2,-1,-1,-1,-2
1576152400846010,-1,0,-1,-2,-3,1,1,5
1576152400861909,-6,-3,-4,-3,0,-1,0,-3
1576152400861909,0,2,1,2,-2,1,1,0
1576152400863860,-4,0,-2,-1,-3,-4,1,-3
1576152400863860,3,2,-1,-1,-3,-2,-1,-4
1576152400884903,3,-4,0,-1,-1,-2,-2,-4
1576152400884903,0,-2,-2,0,-3,-1,-2,-5
1576152400885801,-10,-2,-1,0,-1,-1,-2,-9
1576152400885801,2,0,-2,-4,-1,-4,-3,3
1576152400898870,1,1,0,1,-1,-4,-1,3
1576152400898870,-5,-3,-2,-1,-4,1,3,5
1576152400905850,0,-2,2,0,-1,2,3,8
1576152400905850,-3,-2,-1,-2,0,-3,-2,-4
1576152400921745,-1,1,-4,-2,-1,2,0,1
1576152400921745,-2,-1,0,-2,0,-2,-4,-6
1576152400923699,4,3,-1,-1,-1,1,1,3
1576152400923699,0,-3,-2,1,-2,2,-1,2
1576152400944643,1,-3,-3,-2,0,3,0,-6
1576152400944643,2,-2,-2,-4,-3,4,4,8
1576152400946637,1,1,-3,-1,0,-2,-4,-8
1576152400946637,-4,-3,-2,-1,0,-1,0,0
1576152400959605,1,-2,0,-2,-3,-2,-3,-4
1576152400959605,0,-2,-2,1,2,-3,3,-5
1576152400965693,-1,-1,2,-2,-3,-3,-2,0
1576152400965693,-1,1,-1,1,1,1,4,-1
1576152400982650,-2,0,-3,0,-4,-2,0,-3
1576152400982650,-2,-5,2,-3,2,-2,0,-3
1576152400983541,4,-2,-2,-2,2,-1,-3,-3
1576152400983541,5,0,0,0,-3,-1,-2,-7
1576152401004483,-1,-5,-2,1,-1,-2,-3,1
1576152401004483,1,3,2,1,-3,1,1,7
1576152401006478,0,-2,-1,-1,0,-1,-2,-2
1576152401006478,2,2,-3,-3,-1,-2,-2,3
1576152401018448,2,1,0,-1,-1,1,-4,-11
1576152401018448,-1,1,-4,0,1,-4,-4,1
1576152401027422,-4,-1,1,-2,1,1,-2,-4
1576152401027422,0,-1,0,-1,0,-3,-1,-2
1576152401042486,2,0,1,1,-1,0,2,1
1576152401042486,-3,-2,-1,-3,-3,-1,-2,-8
1576152401043380,-1,2,-1,-1,-1,-3,-1,4
1576152401043380,-6,1,-4,-2,-2,3,4,-1
1576152401064366,-6,2,-3,0,0,0,1,7
1576152401064366,0,3,1,-1,-1,-2,-4,-4
1576152401066318,2,-1,-2,1,-2,0,0,3
1576152401066318,4,-2,1,0,0,-1,-7,-2
1576152401078289,7,-1,-1,-2,2,0,0,0
1576152401078289,-1,0,-1,1,-1,2,-1,-1
1576152401095241,1,3,-2,-5,-3,-1,-4,3
1576152401095241,-3,1,-1,0,1,-1,0,-1
1576152401102327,-3,-1,0,-1,0,0,1,1
1576152401102327,1,-2,-1,2,-2,-1,-3,2
1576152401104216,-5,-1,-1,1,-1,-3,3,-3
1576152401104216,0,-2,1,0,-2,-1,0,-4
1576152401124208,-1,-2,-2,0,1,2,3,1
1576152401124208,-1,-1,-1,-3,-2,-11,-4,-3
1576152401126158,-1,1,2,4,1,2,-1,-3
1576152401126158,-1,0,-2,-2,1,-2,1,-1
1576152401138169,-3,1,0,-2,-1,-2,-2,3
1576152401138169,-3,-2,-2,-2,-1,-1,-2,-2
1576152401147104,2,1,-2,-2,-2,-1,-2,1
1576152401147104,3,-5,-3,0,-3,-2,2,7
1576152401162062,4,0,2,-3,-4,-3,-5,-10
1576152401162062,-5,-2,-1,-1,-1,1,2,-4
1576152401164059,-7,-2,-1,0,1,-5,2,-5
1576152401164059,1,-2,0,-1,0,0,-4,-4
1576152401184765,-2,2,1,-1,0,1,3,-5
1576152401184765,-2,0,0,2,1,3,-1,1
1576152401186753,-2,-1,-2,-1,-1,-2,-1,1
1576152401186753,0,2,-2,-1,-1,0,0,2
1576152401198814,2,-3,-2,1,0,1,0,2
1576152401198814,2,1,-1,-1,-1,-1,-1,-7
1576152401207700,-1,-2,3,2,-2,0,0,-2
1576152401207700,4,-3,-1,-3,3,0,0,5
1576152401222711,-2,-2,1,-3,-2,-1,-4,3
1576152401222711,3,-2,-2,-2,-1,2,0,6
1576152401223656,-1,-1,-3,-1,-1,0,1,3
1576152401223656,-6,3,0,-1,-1,-1,0,-5
1576152401244681,-3,-2,0,0,0,-2,-3,-4
1576152401244681,-1,-2,0,2,0,0,2,1
1576152401246593,-1,-2,-1,-2,1,-2,-3,-4
1576152401246593,-4,-1,-1,-2,-2,-1,2,2
1576152401258565,-4,2,-3,0,-4,-1,-3,1
1576152401258565,-1,-1,1,-1,-2,-2,-1,-4
1576152401267538,-1,-4,3,-1,-1,-1,1,-8
1576152401267538,-2,-2,1,2,0,5,-2,-4
1576152401282612,0,3,-1,-2,1,-5,-2,4
1576152401282612,0,-3,0,-1,-3,1,0,3
1576152401283498,-3,3,-2,-1,0,-3,-3,0
1576152401283498,2,-3,1,-1,-1,-1,1,-13
1576152401304546,1,0,-4,-1,-4,-2,-3,2
1576152401304546,3,3,-3,-3,1,0,0,11
1576152401306434,-1,-1,-1,0,-2,2,0,3
1576152401306434,-3,0,-3,-3,-4,-1,-4,-9
1576152401318404,-6,-2,-4,-2,-2,-1,2,-6
1576152401318404,-7,-1,-3,-1,-1,-2,-3,-2
1576152401327378,1,-2,0,-1,0,0,-2,-5
1576152401327378,0,2,-2,0,0,-3,-1,6
1576152401342443,1,0,0,0,1,-1,2,0
1576152401342443,0,-2,1,-1,0,2,2,-2
1576152401343336,0,1,-4,-3,-2,0,0,1
1576152401343336,-7,2,-1,-4,-4,-6,-4,-1
1576152401364374,-3,-1,-2,0,1,-3,-5,-3
1576152401364374,5,-1,0,1,1,-2,-1,-1
1576152401366275,2,-3,-1,-3,0,2,-1,2
1576152401366275,-1,-3,0,1,-1,-1,2,1
1576152401378243,1,-1,-4,-1,-2,0,0,3
1576152401378243,-3,-4,-3,-3,-2,-7,-6,-6
1576152401387222,3,2,-1,-1,-2,-1,1,-1
1576152401387222,-4,1,1,0,-1,-2,-3,-2
1576152401402283,0,-1,1,-1,-3,-1,-1,-11
1576152401402283,0,0,-1,4,2,0,2,13
1576152401404173,-2,-3,-1,0,0,-2,-2,-2
1576152401404173,1,1,-1,-1,-1,-3,-2,-2
1576152401425163,-1,-2,1,-4,-3,-2,0,1
1576152401425163,-4,0,-1,-3,-3,-3,5,-7
1576152401426115,-1,-2,-2,1,1,0,-4,-2
1576152401426115,-1,-3,0,0,2,4,-1,6
1576152401447161,2,0,-3,-1,-1,-1,1,6
1576152401447161,1,-1,-2,-2,-3,-6,-1,-7
1576152401449053,-1,-2,1,-2,1,0,3,8
1576152401449053,0,-6,-1,-2,0,-3,0,-2
1576152401462019,9,-1,-2,-1,1,0,1,5
1576152401462019,-6,0,0,-2,-2,-1,-2,-7
1576152401468005,0,-2,-2,-2,-1,0,0,-2
1576152401468005,-1,1,-2,-3,-2,0,-4,2
1576152401485061,-7,-4,-2,0,-2,3,-1,-1
1576152401485061,-1,-2,0,0,-2,1,-3,-3
1576152401485955,4,1,-2,-2,-2,0,1,-5
1576152401485955,-6,0,1,1,0,1,0,-1
1576152401506898,1,2,0,0,3,-1,-1,-12
1576152401506898,2,-1,-2,-2,1,-3,-7,-1
1576152401508894,-2,2,-1,1,-1,-2,0,-3
1576152401508894,-4,-2,0,0,0,-2,1,2
1576152401521859,-2,-2,-1,-1,-3,-2,0,20
1576152401521859,2,2,0,0,1,3,0,4
1576152401523853,2,1,-1,-1,-3,4,2,-1
1576152401523853,4,0,-2,2,0,0,0,3
1576152401544803,0,0,0,-1,0,-2,2,-3
1576152401544803,-2,1,-2,0,-2,2,-3,-6
1576152401545795,2,1,1,-1,-1,-3,-3,5
1576152401545795,-4,-2,0,-2,0,-3,-4,-6
1576152401567577,-5,-2,0,-1,0,-1,0,-5
1576152401567577,3,0,1,0,-1,-3,0,3
1576152401568546,-1,-1,-2,-3,-1,-2,-1,-4
1576152401568546,7,1,-1,-2,-2,0,-2,3
1576152401581615,1,0,2,0,0,-4,-3,-1
1576152401581615,-5,-5,1,-2,-1,2,2,-4
1576152401588491,0,-3,-1,-2,-2,-1,-3,-1
1576152401588491,0,0,0,0,-1,-1,1,1
1576152401604552,-5,-1,-1,0,0,-1,-4,-2
1576152401604552,-1,3,-1,1,-1,2,0,0
1576152401606443,6,-5,-1,-3,1,3,0,5
1576152401606443,6,-1,2,-1,-1,-7,2,-2
1576152401627508,-1,0,-1,1,0,-3,-3,0
1576152401627508,-3,1,0,0,0,-2,-1,1
1576152401628384,-9,-4,-2,0,-2,-2,-2,-5
1576152401628384,2,-1,-3,-2,-3,2,-2,-3
1576152401641453,0,-2,-1,0,-1,1,0,-5
1576152401641453,-2,-1,-1,1,1,-3,3,0
1576152401648331,0,-1,1,1,-1,-6,-2,0
1576152401648331,-1,-2,-2,-4,-1,-2,-4,0
1576152401664391,0,-3,0,0,-3,0,1,-3
1576152401664391,0,-1,-1,0,-1,2,1,0
1576152401666286,1,2,-3,0,-1,0,1,0
1576152401666286,-4,2,-3,0,0,-1,1,2
1576152401687701,-1,0,-4,-4,0,2,-1,-4
1576152401687701,-1,-2,-1,-3,-3,-3,-6,-4
1576152401688674,-1,2,1,-1,-1,-5,-2,-8
1576152401688674,-5,-4,-1,-2,0,0,1,1
1576152401701723,2,0,-1,1,-3,1,-1,0
1576152401701723,-1,-4,-1,-3,-2,-4,-1,3
1576152401708607,-1,1,-1,-1,0,-2,-2,-5
1576152401708607,-1,1,0,0,0,0,-1,-2
1576152401724659,-3,1,-2,0,-3,-1,-3,-7
1576152401724659,-4,0,-3,-1,-1,-1,-2,-6
1576152401726552,-2,-3,2,-1,-2,-1,-2,5
1576152401726552,-3,1,-5,1,-1,-3,0,1
1576152401747498,-4,0,1,-1,-4,2,-2,-3
1576152401747498,2,2,-1,-1,-2,0,-3,-5
1576152401748495,3,0,1,-1,1,3,2,8
1576152401748495,-1,-4,0,1,-1,-3,-1,4
1576152401761461,-5,-2,1,0,3,-1,0,10
1576152401761461,-2,0,0,-1,0,-2,-1,-2
1576152401768441,1,0,-2,1,-1,-3,1,-10
1576152401768441,3,0,-1,-1,-3,0,-3,-2
1576152401784503,0,0,2,-1,-1,-2,-1,-4
1576152401784503,-1,-2,-4,1,2,0,1,-4
1576152401786392,-2,0,-3,-1,-1,-2,-1,1
1576152401786392,0,-3,2,-1,1,2,0,0
1576152401807439,1,-1,-4,-4,0,2,2,4
1576152401807439,2,-2,0,1,-1,-3,-2,0
1576152401808334,4,-2,-2,1,-1,-2,-2,16
1576152401808334,-5,-1,-1,-1,-2,1,-1,-3
1576152401821399,3,0,-3,0,-1,0,0,-3
1576152401821399,-2,-1,-1,-2,-3,-1,-2,-4
1576152401828282,-6,-3,-1,-2,-1,-5,-2,-3
1576152401828282,3,0,-1,-4,-1,-2,-1,-3
1576152401844239,-2,-2,-2,-1,-3,-3,-1,3
1576152401844239,-1,1,0,0,0,0,2,1
1576152401846230,-3,1,-1,-2,-1,-2,-3,-4
1576152401846230,0,-1,0,-3,0,0,-2,-3
1576152401867386,-2,-4,0,1,-2,-5,-1,-2
1576152401867386,4,2,0,-1,0,1,0,0
1576152401868285,-5,-5,-5,-3,-1,1,0,-3
1576152401868285,1,0,2,2,0,-3,-4,4
1576152401881345,2,1,0,0,-2,-2,-1,-1
1576152401881345,2,0,1,-2,-2,0,3,5
1576152401888228,-5,2,0,-1,-1,1,0,-4
1576152401888228,-2,-4,-3,-2,0,-1,0,1
1576152401905229,1,-2,1,0,-1,-5,-2,0
1576152401905229,1,-1,-2,-3,0,-1,-5,1
1576152401906182,1,1,0,3,0,-1,8,0
1576152401906182,-4,1,-1,1,0,-3,-1,-5
1576152401927121,-1,-1,0,-2,-1,-5,-5,-10
1576152401927121,-3,-1,-2,-1,-3,-1,2,-2
1576152401929116,-1,-3,1,-2,1,1,-3,-4
1576152401929116,-3,1,-1,-2,-1,-2,-3,-4
1576152401941184,-2,-2,0,1,2,3,3,2
1576152401941184,1,-1,-2,-1,0,-2,-2,2
1576152401950061,-4,0,-2,1,0,1,-3,-4
1576152401950061,2,1,-2,0,-2,-2,1,2
1576152401965124,-4,-1,-2,-1,-1,3,-2,-4
1576152401965124,-3,0,0,-1,0,-1,-4,-2
1576152401966019,1,0,1,0,-1,2,3,-4
1576152401966019,-1,2,1,1,0,-2,0,2
1576152401987065,0,-3,-1,-2,-2,-1,3,4
1576152401987065,-2,-6,-3,-3,-2,0,-2,-9
1576152401988957,-4,-2,-1,-1,-1,-3,-7,-4
1576152401988957,-3,0,-3,1,-3,1,-1,-1
1576152402000963,0,-2,-1,-5,-2,-2,4,3
1576152402000963,-5,-2,0,0,-1,0,-1,-5
1576152402009901,-2,-3,-2,-1,-2,-3,-5,-1
1576152402009901,2,-3,-2,-1,1,1,3,-3
1576152402024961,1,-1,-1,1,0,0,0,3
1576152402024961,3,1,-2,1,1,-4,2,4
1576152402025861,1,1,2,-2,0,-1,2,1
1576152402025861,-1,-2,2,0,-2,-2,0,-2
1576152402047800,-1,0,-4,0,0,0,-3,-3
1576152402047800,-1,-2,1,-1,1,0,-1,-5
1576152402048803,4,0,0,1,-1,-5,-3,-3
1576152402048803,-4,-1,0,-2,0,2,0,-2
1576152402060866,-2,-2,1,-2,0,1,0,-8
1576152402060866,-2,-1,-3,0,-2,-1,-1,-1
1576152402069744,3,0,-1,-4,-4,3,2,1
1576152402069744,-5,0,-3,1,-4,-2,-1,-2
1576152402084801,0,4,-1,1,-2,0,-2,0
1576152402084801,-6,-1,-1,0,0,1,3,2
1576152402086697,1,1,-1,0,2,-3,0,6
1576152402086697,4,-2,-2,0,1,-1,1,0
1576152402107687,-3,-1,0,-1,0,0,-2,-1
1576152402107687,0,0,2,0,0,-2,-2,2
1576152402108643,-6,-1,-3,-2,-2,-1,0,-3
1576152402108643,0,-1,-1,1,-1,0,0,9
1576152402120709,-6,-2,-1,-2,-2,-2,-4,-13
1576152402120709,-4,1,-3,-2,-1,0,3,-4
1576152402129581,-3,-3,-1,-1,0,-5,-2,4
1576152402129581,-1,1,-1,-3,-1,-2,-2,-3
1576152402144579,1,0,0,-1,1,-1,-2,0
1576152402144579,1,-3,-1,-1,0,5,1,4
1576152402146535,0,0,0,2,1,0,0,0
1576152402146535,-2,0,-1,-2,-2,-1,-3,-3
1576152402167657,-3,-3,0,-2,-2,-3,-1,1
1576152402167657,4,-1,-2,-2,-2,1,0,-1
1576152402168660,4,0,1,0,0,0,1,4
1576152402168660,1,-3,2,1,0,0,2,-2
1576152402180730,-4,1,-1,1,2,0,0,8
1576152402180730,-2,-2,1,-1,-1,-6,-2,-2
1576152402189611,-4,-3,-2,-3,-2,1,3,-4
1576152402189611,0,-3,-1,-1,-1,-5,-7,-4
1576152402204666,6,-1,-2,0,0,4,4,3
1576152402204666,-5,0,0,0,-1,-2,-3,-2
1576152402206559,-3,1,-2,1,-1,1,0,-3
1576152402206559,-4,-1,-3,-3,2,0,2,-3
1576152402227539,3,-2,-1,-1,-2,-1,1,2
1576152402227539,-2,-5,-4,0,-3,-2,-2,-1
1576152402228506,-2,1,-2,-2,-2,-2,-5,-5
1576152402228506,-2,0,2,0,0,1,0,17
1576152402240471,-1,1,-1,-1,0,-2,0,-7
1576152402240471,0,1,0,-1,-2,-4,-4,-1
1576152402249508,0,0,1,0,2,-2,-2,1
1576152402249508,0,-3,0,-1,-2,-2,-3,-3
1576152402264509,-6,0,-1,1,-1,-2,0,-1
1576152402264509,2,0,0,0,1,-1,0,5
1576152402266399,-1,2,-2,2,-3,2,-2,-5
1576152402266399,1,-2,-4,-3,-4,-3,-1,-2
1576152402287391,2,-1,0,2,0,-2,-1,6
1576152402287391,-1,0,-2,-1,-1,1,-2,-2
1576152402288340,2,-1,0,-2,1,-1,0,4
1576152402288340,-4,-3,-2,-3,0,1,2,-7
1576152402301353,1,2,-1,-2,-1,-4,-1,0
1576152402301353,0,-3,-1,2,-1,0,0,-6
1576152402310282,-1,-4,0,2,-2,0,-3,-3
1576152402310282,1,1,0,1,-1,-1,0,-4
1576152402325244,-3,-2,0,-2,0,-1,2,-2
1576152402325244,0,1,0,-3,0,1,-1,-3
1576152402326239,-4,1,0,0,0,-1,-1,0
1576152402326239,-2,-3,-4,1,0,-1,-3,-4
1576152402347282,-3,0,-1,-4,2,0,-1,-2
1576152402347282,1,1,-1,1,-3,0,-2,-2
1576152402349179,4,-3,2,-1,-2,0,0,-2
1576152402349179,-2,-3,-2,3,1,-2,2,-1
1576152402361157,1,3,0,1,-1,5,-2,4
1576152402361157,1,-1,-2,-4,-3,-9,0,-9
1576152402370123,9,1,-2,-2,1,-4,-4,-4
1576152402370123,-4,3,1,-1,0,0,-3,-1
1576152402385151,-8,-2,-3,-2,-2,-1,0,-5
1576152402385151,-6,2,-2,-3,0,1,4,1
1576152402386083,-1,-1,-1,-1,-2,0,1,-4
1576152402386083,5,2,0,-3,-2,-2,-2,0
1576152402407127,2,2,0,1,0,-2,0,-1
1576152402407127,-2,1,-2,2,-1,-3,-6,-1
1576152402409017,-3,-4,-3,0,2,-1,1,-1
1576152402409017,2,3,0,-1,-3,3,2,-1
1576152402430077,0,-3,0,-1,-4,0,0,0
1576152402430077,-3,-4,-1,0,-1,1,-2,-3
1576152402430961,3,-2,0,-1,-3,0,-2,1
1576152402430961,2,0,-2,0,3,0,1,2
1576152402444958,-2,-3,-4,-1,-2,-5,-7,-10
1576152402444958,-2,-2,-1,-2,0,2,3,3
1576152402445919,-8,1,-1,-1,-1,-2,-2,-2
1576152402445919,-5,-2,1,-1,-1,-1,-2,-6
1576152402466962,2,-1,-2,0,-2,-7,-2,8
1576152402466962,2,-1,-1,-2,-1,-2,-3,1
1576152402468857,0,1,-4,-1,1,2,3,-6
1576152402468857,-3,-4,0,1,-4,-2,-1,-7
1576152402489905,-7,0,0,1,-4,1,-1,-6
1576152402489905,-6,0,0,1,2,-1,-1,-16
1576152402491798,4,0,1,-1,-3,-1,0,0
1576152402491798,0,-4,-2,-2,-1,-2,0,1
1576152402504761,3,-1,-2,2,2,0,-1,1
1576152402504761,0,-2,-2,-3,-3,1,2,3
1576152402506760,-7,-2,0,-3,-1,-1,0,-1
1576152402506760,-1,0,0,0,-1,-1,0,-1
1576152402527740,-5,-2,-4,-3,-4,0,0,-5
1576152402527740,2,0,1,-2,-5,-3,2,2
1576152402528698,1,0,-2,1,0,-3,0,5
1576152402528698,3,3,0,1,1,-1,-4,-3
1576152402549742,-1,-3,-4,-3,-4,-1,-3,0
1576152402549742,0,0,-1,1,1,0,-1,-1
1576152402551636,0,0,-1,0,-2,-1,0,2
1576152402551636,-4,-1,1,-1,-3,-3,-1,-3
1576152402564604,0,-3,1,-1,1,0,0,0
1576152402564604,1,2,0,-2,0,0,0,8
1576152402570690,-4,-2,-1,-2,-1,-2,-4,1
1576152402570690,-6,-2,-3,-2,-2,-2,-4,0
1576152402587626,0,-2,-1,0,-1,0,2,-2
1576152402587626,1,0,-1,1,-1,-3,-3,-2
1576152402588539,2,2,-3,0,-1,1,4,3
1576152402588539,2,-1,-3,-2,0,3,4,4
1576152402609483,-4,2,1,-1,0,-5,-1,-8
1576152402609483,-3,0,-1,-2,-1,-2,0,2
1576152402611476,-1,-1,1,1,0,2,-2,3
1576152402611476,-2,-1,-3,0,-1,-2,-1,10
1576152402624442,1,-1,2,-2,2,-1,-1,-3
1576152402624442,1,-1,1,-1,0,3,-3,2
1576152402630524,-4,-1,1,-1,-2,2,-1,4
1576152402630524,1,-4,-2,-3,0,-2,2,-1
1576152402647483,4,0,1,0,-1,-1,0,11
1576152402647483,2,-1,-2,1,-1,-3,-2,-2
1576152402648379,0,0,1,-1,0,-1,0,0
1576152402648379,-3,0,-2,2,1,0,-5,-6
1576152402669422,-3,-2,-3,-3,1,0,-1,2
1576152402669422,-4,-2,-1,-1,-1,0,1,-8
1576152402671317,1,0,-2,0,1,3,1,-3
1576152402671317,2,-1,-2,-3,1,-2,0,-2
1576152402684386,0,1,-1,2,1,0,-4,-2
1576152402684386,-1,-2,-1,-4,-3,-2,-3,2
1576152402691314,-4,-2,-2,-1,0,-4,-2,-6
1576152402691314,-5,-1,-1,-3,-1,-2,-1,-2
1576152402707339,1,1,-1,-2,-2,-1,1,-4
1576152402707339,-1,-2,0,1,-2,1,-2,4
1576152402709214,3,0,-1,-3,-4,-10,-6,-5
1576152402709214,5,-3,-2,0,0,1,-2,6
1576152402730205,-3,0,-2,0,1,1,-1,-1
1576152402730205,1,2,1,2,-1,2,0,-1
1576152402731158,-1,-3,-1,-1,0,0,0,1
1576152402731158,1,2,1,2,-2,-1,0,-3
1576152402744240,3,-4,0,-3,-1,-2,-3,4
1576152402744240,5,0,0,0,0,-1,0,-1
1576152402751206,-4,-2,-2,0,-1,-1,1,9
1576152402751206,2,-2,1,1,-1,1,0,-2
1576152402767163,-5,3,-3,0,-1,1,0,-2
1576152402767163,-2,0,2,-2,1,0,-2,0
1576152402769055,1,-1,-1,1,-2,-1,0,-5
1576152402769055,3,-1,-2,-4,-2,-4,-1,-1
1576152402789860,0,-2,-2,-1,-1,-1,0,-3
1576152402789860,-1,-1,-2,0,0,0,1,-1
1576152402791748,-3,-1,0,0,0,0,-1,-7
1576152402791748,-4,0,-2,-2,-1,-2,-3,-1
1576152402803814,-1,-2,-2,-1,-2,0,-1,-6
1576152402803814,-2,-2,-2,2,0,-1,3,5
1576152402818794,2,-1,-1,-2,-1,-1,0,4
1576152402818794,-1,1,0,0,-1,1,3,2
1576152402827653,-2,-1,-1,-2,-1,-1,0,-1
1576152402827653,-3,4,1,1,0,-2,-2,-4
1576152402828652,1,-2,-1,-1,-1,2,0,-2
1576152402828652,-2,-1,-1,-2,-2,-2,-1,-6
1576152402849593,-2,-1,0,1,1,-6,-5,1
1576152402849593,-1,0,-3,-2,-2,1,-3,-11
1576152402851588,0,-3,-1,2,0,0,1,-2
1576152402851588,-2,-1,1,-1,2,1,-3,0
1576152402863656,6,1,-2,1,0,1,0,10
1576152402863656,-3,-3,-1,-4,0,-1,1,-5
1576152402870639,2,0,1,-3,-3,-2,-2,-1
1576152402870639,-3,-2,-1,-2,-3,-3,-3,-1
1576152402887613,-3,-3,-2,-1,-2,1,1,-6
1576152402887613,-7,-2,-3,-4,-2,-4,-3,-3
1576152402888498,0,2,-1,-1,-1,-1,-3,6
1576152402888498,-2,0,-1,-2,0,0,2,-1
1576152402909541,-1,-3,-1,0,-2,-1,4,5
1576152402909541,0,1,-1,-2,-3,-2,-3,0
1576152402911429,-6,-4,-1,-2,2,-2,0,-9
1576152402911429,2,1,-2,-1,-1,2,2,4
1576152402923429,-1,-3,-1,0,1,0,-1,2
1576152402923429,4,-1,-2,0,1,0,0,8
1576152402932373,-3,0,-2,-3,-1,-4,0,3
1576152402932373,0,0,-2,0,-3,-1,-1,2
1576152402947444,-4,-2,-2,-4,-2,-1,-3,-6
1576152402947444,-2,0,0,-1,-1,0,1,7
1576152402948331,1,-1,-1,0,-2,3,-2,-1
1576152402948331,-4,-2,3,-1,-2,-11,-3,-5
1576152402970275,-1,-4,-1,-2,-5,-2,0,-2
1576152402970275,3,-1,0,2,-1,1,0,0
1576152402971269,3,-4,0,0,0,-1,-1,0
1576152402971269,-1,2,0,2,-2,0,-1,-10
1576152402983341,-6,1,-1,-2,0,-2,-7,-12
1576152402983341,-2,-2,-3,-2,-4,-1,3,1
1576152402992215,-1,2,-2,-3,1,1,2,7
1576152402992215,6,0,-2,0,0,3,2,6
1576152403007174,-2,0,1,-1,-2,-1,1,2
1576152403007174,-1,-2,-1,-1,0,4,3,10
1576152403009168,-3,1,-2,-2,-1,-2,-1,0
1576152403009168,4,-2,-2,1,0,2,0,2
1576152403030207,-1,0,-2,-2,-2,-2,-1,-6
1576152403030207,-2,-3,-2,2,0,1,1,0
1576152403031111,0,2,0,-3,0,0,-2,-3
1576152403031111,1,-3,-1,-2,-1,-3,2,8
1576152403043181,3,-2,-3,0,-3,2,3,4
1576152403043181,-2,-2,0,-1,-2,-4,-4,-8
1576152403052110,-6,-2,-1,-1,-2,-3,-5,-5
1576152403052110,0,-2,-3,-1,1,2,2,-2
1576152403067116,-1,-2,5,2,3,1,1,-2
1576152403067116,6,-1,1,-1,0,-3,-1,-2
1576152403069007,3,-2,-3,1,0,1,2,-2
1576152403069007,0,-2,-1,-3,1,-2,-4,5
1576152403097278,3,1,-1,-1,-2,-4,2,2
1576152403097278,-4,0,0,-1,2,-3,-2,0
1576152403099168,-1,-4,1,1,-1,-1,-1,7
1576152403099168,3,4,0,0,-2,-1,-4,1
1576152403103256,0,0,1,1,0,2,0,2
1576152403103256,1,-1,-1,0,-3,-2,-6,-6
1576152403112146,-3,1,1,2,1,1,-1,13
1576152403112146,-3,-4,-1,0,2,-1,-1,-5
1576152403128092,0,0,-4,-2,0,0,-4,-7
1576152403128092,3,0,0,-1,-3,-1,-1,-5
1576152403129094,-5,-2,-4,-3,-3,-1,1,0
1576152403129094,-2,-1,-2,1,-1,-1,-1,2
1576152403150154,3,2,2,1,-1,-2,-1,1
1576152403150154,1,-1,-3,-3,1,0,0,-2
1576152403151031,-6,5,1,-2,-3,-2,-3,-10
1576152403151031,-1,1,-1,1,0,2,-1,-6
1576152403163101,-5,-5,0,-1,-1,-2,0,0
1576152403163101,4,2,0,0,-1,3,7,1
1576152403172020,3,0,1,0,0,-1,-1,-7
1576152403172020,-4,-4,1,-1,1,-1,-2,-5
1576152403187037,0,0,-3,-1,0,-4,-3,2
1576152403187037,-1,2,1,3,0,-2,-1,6
1576152403188928,0,1,-2,-1,-1,-3,0,6
1576152403188928,-5,-1,-2,-1,-4,-1,-2,-5
1576152403209971,0,0,-2,-3,-2,0,-2,4
1576152403209971,-8,-5,-5,-5,-3,-2,-6,-5
1576152403210870,1,-2,-2,-2,-1,1,-1,-7
1576152403210870,2,-1,0,-2,0,0,-1,3
1576152403223886,-4,-3,-3,0,-3,-1,2,-2
1576152403223886,3,-3,-3,1,0,-1,-1,2
1576152403231914,1,-1,-2,1,1,-1,-2,-9
1576152403231914,-4,1,-1,-1,-4,-1,0,-3
1576152403246873,-2,-2,-1,1,1,-3,-5,6
1576152403246873,-6,2,1,-3,-1,0,-1,-3
1576152403248769,-5,-6,0,0,1,-1,1,-3
1576152403248769,-3,-1,0,0,-1,-1,-3,6
1576152403269812,0,-1,-1,-2,0,0,1,-4
1576152403269812,-5,-1,-2,-1,0,-1,-1,-4
1576152403271707,3,-3,-3,-1,-3,0,-2,-1
1576152403271707,1,-1,0,-3,-1,-1,-1,-4
1576152403283785,-1,0,-2,-2,-1,0,0,-2
1576152403283785,0,-3,-1,-3,-2,-4,-4,-7
1576152403292657,0,0,1,-1,-3,0,3,-1
1576152403292657,-7,0,-2,-1,1,-3,0,-9
1576152403306614,-1,1,0,1,-4,-1,-4,-5
1576152403306614,-4,-3,-2,0,-1,-2,1,3
1576152403313595,-2,1,-3,0,0,-2,1,3
1576152403313595,-3,1,-1,-2,-2,-3,-1,-2
1576152403329554,2,-1,-1,-1,1,1,-2,1
1576152403329554,0,-4,0,0,-2,2,3,2
1576152403331547,5,0,-2,-4,1,-3,-4,1
1576152403331547,-2,-1,-1,1,1,1,-1,-3
1576152403352609,-4,2,1,3,1,1,1,1
1576152403352609,-2,-1,2,2,-2,0,-2,-5
1576152403353492,3,2,0,3,-2,-1,0,-1
1576152403353492,7,-3,0,0,0,2,3,4
1576152403367452,-2,-5,-2,-3,-2,-1,-1,1
1576152403367452,5,1,1,-1,-2,-4,-2,4
1576152403368449,1,1,1,2,1,3,0,-2
1576152403368449,3,-3,-3,2,-2,-2,0,2
1576152403389498,0,-5,1,-1,0,-3,-2,4
1576152403389498,-1,0,-2,-2,0,0,-3,2
1576152403391387,0,-3,-4,-3,0,-3,-4,-7
1576152403391387,-1,-3,0,-3,-3,-3,-2,-2
1576152403412439,-3,2,-1,-1,1,4,1,-10
1576152403412439,0,-1,-1,-2,-1,-1,-3,-9
1576152403413330,-5,-5,1,1,0,-2,-2,6
1576152403413330,2,2,0,-2,-2,3,-2,-2
1576152403427407,1,-1,-1,-1,-2,-2,-2,0
1576152403427407,1,-1,-3,-1,0,-1,-3,-2
1576152403428290,1,2,-2,0,-1,-2,0,0
1576152403428290,3,3,-2,0,-1,0,-2,8
1576152403449337,0,0,-1,0,-2,-1,0,-4
1576152403449337,4,1,3,0,1,-3,1,2
1576152403451228,-3,1,-4,0,-1,-1,-3,-2
1576152403451228,-8,-5,-2,-3,0,-3,-1,-2
1576152403472274,0,1,0,-3,-2,-2,-4,-9
1576152403472274,-9,-1,-1,-1,2,3,0,1
1576152403474168,-1,0,-1,-1,-2,-4,-2,2
1576152403474168,3,-2,1,-1,0,1,7,4
1576152403487134,7,0,0,1,2,0,-3,1
1576152403487134,1,-3,-2,1,-1,3,-2,4
1576152403493237,4,-2,1,0,-1,-2,-2,1
1576152403493237,0,2,0,2,-2,-3,-3,-1
1576152403510073,0,-1,0,3,1,0,2,20
1576152403510073,2,-2,-1,0,-1,-1,0,-2
1576152403511069,1,1,1,-2,-2,1,-3,-4
1576152403511069,-8,-1,-1,-1,-2,-6,-6,-3
1576152403532114,-2,-1,-2,-4,0,4,2,-6
1576152403532114,0,2,-1,-1,-3,-10,-3,7
1576152403534006,-2,-3,-3,-1,1,2,4,4
1576152403534006,2,3,3,-1,0,-1,3,0
1576152403547018,-2,0,-1,-2,-2,-2,-2,-6
1576152403547018,-3,0,-1,1,1,2,2,3
1576152403552969,1,-1,-2,2,-2,-1,1,1
1576152403552969,1,-2,-1,0,-1,-1,-3,-3
1576152403569910,-4,0,0,1,0,2,5,1
1576152403569910,-3,-2,-2,-1,-3,0,-2,-1
1576152403570906,-1,-1,1,-3,-2,-5,0,-2
1576152403570906,2,2,-2,-1,-2,-1,2,0
1576152403591898,1,2,-1,0,-3,-4,-1,-1
1576152403591898,-1,3,2,0,0,-1,-6,1
1576152403593845,-5,-1,0,1,-2,5,0,-2
1576152403593845,-1,-1,-3,-2,-1,1,-3,-1
1576152403606910,1,-1,-2,-3,-1,-1,1,-9
1576152403606910,1,-1,0,0,-2,-1,4,0
1576152403613839,-1,0,0,2,0,0,-2,1
1576152403613839,0,-1,1,0,1,0,0,-1
1576152403628856,-6,-2,0,-3,-3,0,-2,-6
1576152403628856,-2,3,-3,-1,1,0,0,-11
1576152403637731,-4,-2,-2,0,-1,-2,-1,-2
1576152403637731,-2,-1,0,1,-1,-2,-4,-6
1576152403652735,-1,-3,-2,1,0,1,0,3
1576152403652735,2,-2,0,-1,0,1,-2,-3
1576152403653686,2,0,-1,-2,-1,-1,-2,-4
1576152403653686,-1,-2,-2,-4,-2,-3,0,1
1576152403666756,-2,-3,-2,0,-1,0,0,2
1576152403666756,-4,-1,-2,-3,-3,-2,0,-23
1576152403673749,-1,-1,-1,-1,-1,-3,0,-4
1576152403673749,-3,0,1,0,0,-1,-4,0
1576152403689699,-4,-1,-1,1,2,-3,-2,-5
1576152403689699,-4,-2,-2,-4,-2,-1,-1,0
1576152403691585,-3,-1,-1,-1,-1,3,-2,-1
1576152403691585,5,2,-1,-2,-1,-4,0,0
1576152403712530,-1,0,-1,-4,-4,-5,-4,-8
1576152403712530,-3,-3,-2,0,1,2,-1,7
1576152403713528,5,1,0,0,-3,1,-2,-5
1576152403713528,1,-3,1,-2,1,2,0,2
1576152403726596,3,2,-1,1,2,1,-1,2
1576152403726596,-2,-4,0,-1,0,0,-2,-2
1576152403733577,5,-2,1,1,1,0,-3,-1
1576152403733577,-9,0,-2,-2,-2,-2,4,0
1576152403749529,2,1,-1,-2,-3,-2,1,-5
1576152403749529,1,0,2,-2,2,1,0,11
1576152403751425,-3,-2,0,-1,-1,-2,0,-1
1576152403751425,-2,-3,-2,3,0,2,0,-2
1576152403772472,0,1,-1,-1,1,-1,-1,2
1576152403772472,5,-2,0,4,2,-1,0,1
1576152403773366,-8,-1,-1,-6,-3,-4,1,-2
1576152403773366,-2,0,-2,-2,-1,0,-5,3
1576152403786441,2,-5,0,0,-3,-1,-1,16
1576152403786441,2,2,-2,-1,-2,1,-1,4
1576152403793314,3,-4,-2,2,0,0,2,7
1576152403793314,1,0,0,-2,-1,-2,-2,0
1576152403809375,-5,3,1,2,-1,-2,-2,-13
1576152403809375,0,0,-1,-4,-3,-3,1,-4
1576152403811264,-1,2,-2,-3,0,1,-2,-9
1576152403811264,-1,-2,-2,2,-1,3,-2,1
1576152403832313,4,-1,-1,0,1,2,1,6
1576152403832313,-5,1,-3,1,-1,-3,0,3
1576152403834203,-6,-2,0,-1,1,-4,0,2
1576152403834203,-2,0,0,-3,1,-1,0,-6
1576152403846292,-1,-1,-4,-4,0,-2,-5,-11
1576152403846292,-2,-1,-2,1,-3,0,-3,-3
1576152403855149,1,-2,-2,-1,-2,-3,0,-2
1576152403855149,2,-2,-1,2,0,-2,1,0
1576152403870208,0,-3,3,-1,-2,-2,0,2
1576152403870208,2,-2,-1,1,0,4,1,-4
1576152403871106,-3,0,0,-3,2,-1,-4,-1
1576152403871106,2,3,-2,1,-2,1,-1,-3
1576152403892152,0,-2,-1,-1,1,1,0,3
1576152403892152,-2,-1,-2,-2,-2,0,-4,1
1576152403894043,4,3,1,1,2,0,5,4
1576152403894043,9,-1,-1,-1,-2,-2,-4,-2
1576152403906016,-5,0,-4,2,0,1,2,-3
1576152403906016,-2,1,2,0,-2,-4,-1,-5
1576152403914988,3,2,-1,2,-1,1,1,11
1576152403914988,-4,0,4,2,0,-1,-4,-4
1576152403930046,0,0,2,3,-2,-1,-4,1
1576152403930046,-7,-3,0,-4,-1,-4,-2,-5
1576152403930946,4,0,-3,-2,-4,0,-2,-6
1576152403930946,-3,-7,-2,-1,0,0,0,-3
1576152403951993,-6,-2,-2,0,-3,-2,-2,-3
1576152403951993,4,-1,0,1,-1,0,1,12
1576152403953884,-5,-2,-1,1,1,0,0,-3
1576152403953884,-3,-3,-4,-6,-3,-1,1,2
1576152403965953,-4,1,0,-1,-1,-2,2,0
1576152403965953,-2,0,0,-2,-2,-1,0,3
1576152403974830,-3,1,-3,0,-4,1,0,-5
1576152403974830,-2,1,0,-2,-3,2,0,2
1576152403989833,0,-2,-2,-2,-1,0,1,-2
1576152403989833,8,1,0,1,-1,0,-1,-1
1576152403990784,-3,1,-1,-1,0,-1,4,-3
1576152403990784,-5,-2,1,0,2,-2,1,-3
1576152404011730,-6,-1,-1,0,-2,-1,0,0
1576152404011730,1,0,-3,1,0,-3,-2,-7
1576152404013725,-3,-3,-3,-3,-2,2,-6,3
1576152404013725,-5,-2,-3,-4,-1,-5,-6,-2
1576152404025789,5,0,3,2,-1,1,2,4
1576152404025789,3,0,0,-3,-1,-1,0,2
1576152404034670,3,-2,3,1,-1,0,-3,-1
1576152404034670,-4,-3,0,0,-2,0,5,3
1576152404049629,-2,-3,-3,0,-1,-1,-4,3
1576152404049629,0,-1,-2,0,0,1,0,-1
1576152404051623,5,2,-1,-1,0,6,1,2
1576152404051623,0,2,-1,-2,-3,-4,-1,-1
1576152404072653,3,-1,-1,-4,-1,-5,-1,0
1576152404072653,-4,-1,0,0,-1,-1,-1,-3
1576152404073570,-4,-2,0,0,1,2,-1,-1
1576152404073570,0,-2,0,0,-1,0,-1,-2
1576152404085637,2,1,0,-1,0,3,1,0
1576152404085637,1,-1,0,-3,-2,-2,-1,4
1576152404094509,-2,-1,1,-3,-2,-8,-2,0
1576152404094509,-3,0,-3,1,-1,2,0,0
1576152404109573,-8,-4,-3,-1,-3,-1,0,-5
1576152404109573,-6,1,-2,-2,-2,-1,-5,-4
1576152404111463,5,-1,-1,-2,-2,-2,1,2
1576152404111463,3,-1,0,1,-2,1,1,3
1576152404132506,0,2,-3,-4,0,0,-4,-4
1576152404132506,-5,-1,2,1,-1,0,1,-12
1576152404133405,-2,-3,1,-3,-2,-1,-1,10
1576152404133405,0,0,1,1,2,-2,-2,-3
1576152404145476,-1,-1,0,1,-1,-1,1,-3
1576152404145476,-2,-1,-2,1,1,1,1,4
1576152404154466,-2,1,-2,0,-2,-3,-4,-11
1576152404154466,-1,1,-1,0,-1,0,-3,6
1576152404170310,-2,-1,1,2,1,-2,0,0
1576152404170310,2,1,-3,-1,0,-1,0,-2
1576152404171302,0,-4,0,0,-1,2,0,-3
1576152404171302,5,1,-3,-3,-1,2,0,-2
1576152404192106,-2,0,0,-1,-1,0,2,2
1576152404192106,-4,-3,0,1,-1,-5,-3,-2
1576152404193998,-1,0,-2,1,1,-2,2,-2
1576152404193998,-4,0,2,-2,-1,-1,-6,-10
1576152404205965,-4,-1,-3,-2,-2,-3,-6,-3
1576152404205965,-2,0,0,1,-1,-2,-1,-1
1576152404214941,3,3,-2,-2,1,-2,-2,11
1576152404214941,0,-2,-1,0,-3,-3,1,0
1576152404230001,2,0,0,-2,-1,4,1,-5
1576152404230001,-4,0,-2,-1,-2,-10,-3,0
1576152404230898,-3,-3,-2,1,-1,-2,-2,-5
1576152404230898,3,1,0,0,-2,1,-3,1
1576152404251941,1,-3,2,-3,-1,-2,-1,-3
1576152404251941,-2,-4,-1,-3,0,2,3,1
1576152404253837,1,1,-1,-1,-2,0,0,-6
1576152404253837,-3,0,-1,-2,0,-5,-1,-2
1576152404274886,-5,0,2,2,-2,0,-4,-14
1576152404274886,2,1,-1,-1,1,5,0,-5
1576152404276775,-6,-6,0,0,-3,0,2,-3
1576152404276775,-6,-3,-2,-1,3,0,-2,6
1576152404288841,3,0,-1,-3,0,-2,0,3
1576152404288841,-1,1,-1,-2,0,-1,-1,-4
1576152404295823,7,4,0,0,0,0,1,8
1576152404295823,0,-1,0,0,0,0,1,-10
1576152404312726,7,3,-2,-2,-1,-3,-4,0
1576152404312726,1,-3,-1,0,-1,-1,-3,5
1576152404313679,-3,-3,-2,0,-1,2,1,-6
1576152404313679,-1,-2,-3,-2,-2,-2,-1,-3
1576152404334726,0,-1,1,2,-1,0,1,1
1576152404334726,-5,0,-1,-2,-3,0,-1,-3
1576152404336616,-7,-3,-1,-2,-3,-1,-4,-4
1576152404336616,-2,-2,1,-1,0,3,0,1
1576152404349681,0,1,0,-1,0,0,4,0
1576152404349681,0,1,0,-1,-1,-2,-2,3
1576152404351575,-1,-1,0,2,0,-3,-2,5
1576152404351575,1,1,-1,-2,-2,-1,-2,-6
1576152404372640,-3,-3,-2,-1,-3,-6,-3,-1
1576152404372640,1,-2,-2,-1,1,3,4,5
1576152404373520,6,2,-2,-1,0,-2,-4,-10
1576152404373520,-3,-1,-1,-1,-1,2,1,1
1576152404394521,-4,-2,-2,-4,-3,0,1,2
1576152404394521,1,1,-2,1,-1,-2,-3,-3
1576152404396501,7,-1,0,-1,-2,-9,-6,4
1576152404396501,-5,-3,1,2,1,0,-1,-4
1576152404409514,-1,-3,-2,0,1,3,0,-1
1576152404409514,-5,-4,2,-2,0,-1,-1,3
1576152404415554,-4,-3,0,-1,1,1,-1,2
1576152404415554,4,2,-1,2,-3,-3,0,4
1576152404432508,0,-1,-3,-1,-1,-3,-3,-3
1576152404432508,0,2,1,2,-1,-1,-5,4
1576152404433403,-2,-1,-2,-3,0,3,2,-5
1576152404433403,-4,-5,0,0,0,2,-2,-8
1576152404454348,-3,-3,1,-1,-3,1,-5,-6
1576152404454348,-1,0,-1,-1,-1,0,2,-4
1576152404456342,-2,-2,1,0,-2,-1,-1,-1
1576152404456342,0,-1,-1,-1,0,-4,2,1
1576152404469401,-3,3,-2,0,0,-1,3,1
1576152404469401,0,-2,0,-3,-1,-1,4,2
1576152404476287,-6,1,1,0,2,-1,1,8
1576152404476287,3,-2,-2,-1,-2,0,3,1
1576152404492347,8,-1,-1,0,0,-1,1,6
1576152404492347,-5,0,1,0,-4,1,-2,-6
1576152404494238,-3,0,-4,-1,-1,0,-2,-9
1576152404494238,5,-1,0,-2,0,2,-1,3
1576152404515184,-2,0,1,-1,2,1,-3,1
1576152404515184,2,-1,-2,2,0,1,-3,4
1576152404516181,-6,-1,2,1,-1,-1,-3,6
1576152404516181,-4,0,-1,1,-2,-1,1,5
1576152404529151,-2,0,2,0,0,0,0,-1
1576152404529151,-3,-2,0,-1,0,-1,2,-6
1576152404536246,-3,-1,-2,0,-3,1,-1,-8
1576152404536246,3,-1,-1,-4,2,-3,0,4
1576152404552188,-3,-2,-1,1,-1,-2,2,1
1576152404552188,1,1,1,-2,-1,-2,-3,-9
1576152404554079,-2,1,-5,-1,0,-3,-2,-6
1576152404554079,2,-3,-1,-1,0,-2,1,-1
1576152404575140,-3,0,-1,-3,-1,1,-2,-7
1576152404575140,3,-2,1,1,1,-1,-1,21
1576152404576022,-3,-1,-1,1,-1,-1,0,0
1576152404576022,-3,-1,-2,-3,-3,0,0,3
1576152404588743,1,-2,-2,0,-3,-2,-5,-4
1576152404588743,-5,-1,-5,0,-1,0,-1,-4
1576152404595676,5,-4,2,-1,-1,1,0,6
1576152404595676,-1,0,0,-2,-1,-2,-1,-6
1576152404612683,3,-2,-1,-2,0,1,-1,-4
1576152404612683,-4,0,0,0,1,0,-2,-4
1576152404613631,-1,2,1,-4,0,-1,2,4
1576152404613631,3,0,0,1,1,1,-2,-13
1576152404634676,2,0,2,-1,-1,-6,-1,7
1576152404634676,3,0,-3,-1,-1,-2,-1,-3
1576152404636567,-3,-4,-1,0,1,2,-1,0
1576152404636567,-4,-3,-2,1,-3,-1,-4,1
1576152404649579,-1,2,-3,-2,0,4,0,3
1576152404649579,3,-4,0,0,-1,-5,-3,3
1576152404655621,4,-2,0,-1,-6,-4,0,-6
1576152404655621,1,0,-1,-1,-3,-1,2,2
1576152404672574,-6,-4,1,-2,-3,-1,1,-1
1576152404672574,-4,-1,-1,-2,-2,-2,-4,-7
1576152404673472,6,1,-3,-2,0,-1,-2,1
1576152404673472,-6,-1,0,-1,0,-1,-3,-8
1576152404694448,1,-2,-5,-1,0,0,-3,3
1576152404694448,2,-1,0,0,-2,1,0,0
1576152404696407,-2,-4,-3,0,-1,-2,-1,-4
1576152404696407,-1,0,2,0,0,1,4,5
1576152404709494,-10,1,4,-1,2,-2,-1,-4
1576152404709494,-7,0,0,-4,-5,2,-2,-19
1576152404716403,-4,-1,-1,0,2,0,1,-7
1576152404716403,5,2,-2,-1,-1,-4,-4,0
1576152404732344,4,-2,2,1,1,1,2,1
1576152404732344,-3,-1,0,-1,-2,0,0,-2
1576152404734307,4,-3,1,1,1,0,1,4
1576152404734307,-6,1,-1,1,-2,0,-5,-6
1576152404755272,-2,0,-3,0,-1,-2,-5,-7
1576152404755272,3,2,0,0,1,-3,-2,-3
1576152404756248,1,0,-1,-2,-1,-1,-3,2
1576152404756248,3,-2,-2,1,-1,-1,1,3
1576152404777250,2,-1,-2,-1,-4,0,-1,1
1576152404777250,3,-3,-1,-2,1,0,1,4
1576152404778190,-9,2,-1,-5,-3,1,-3,-8
1576152404778190,-1,-2,1,-3,0,-3,-2,-3
1576152404791259,-10,-2,-2,2,-3,0,0,-4
1576152404791259,2,0,-2,-2,0,-2,0,-1
1576152404792154,0,-5,1,-1,1,-1,-1,-8
1576152404792154,2,1,-5,0,0,0,-4,3
1576152404814191,4,-2,0,-3,-1,-3,-2,3
1576152404814191,5,0,-3,0,-2,1,-1,4
1576152404815127,-3,-2,-3,2,0,-1,0,5
1576152404815127,-7,0,1,0,1,4,3,3
1576152404837135,2,-3,-1,1,-1,-9,-5,9
1576152404837135,1,-1,1,-3,-1,-3,-3,-5
1576152404838029,-2,2,4,-2,-2,-1,2,3
1576152404838029,0,-4,-3,0,-1,2,3,3
1576152404852040,0,2,-1,-3,3,1,0,0
1576152404852040,3,-2,-1,-1,1,3,4,16
1576152404852040,1,-1,-2,-1,-2,-1,0,3
1576152404852040,0,1,-7,-2,-2,-2,-3,-4
1576152404873935,3,-2,-2,1,-4,4,2,2
1576152404873935,-4,-2,-2,0,-3,0,0,-6
1576152404874932,-3,-2,-2,0,0,0,4,-2
1576152404874932,-7,-1,3,0,-1,0,0,2
1576152404896972,4,-1,1,0,-1,4,-1,-8
1576152404896972,-6,1,-3,-2,1,-3,-1,0
1576152404896972,-3,-1,3,0,1,2,-2,-2
1576152404896972,-4,-3,1,-1,2,-2,0,-1
1576152404911948,0,0,-3,-1,0,-3,-3,-1
1576152404911948,5,0,-1,-1,-4,-1,-3,-1
1576152404911948,0,2,-1,0,-3,-3,-4,-1
1576152404911948,3,-1,3,3,1,-2,-1,0
1576152404933877,-5,-1,2,1,-1,0,2,-5
1576152404933877,-7,-2,1,-2,-1,1,4,7
1576152404934773,1,-2,-3,-3,-1,-1,2,4
1576152404934773,-5,0,0,1,2,-1,-2,-5
1576152404956713,-1,2,-1,-1,1,-4,-2,1
1576152404956713,-7,1,-2,0,0,-2,-3,-3
1576152404957709,3,0,4,1,-2,-2,-3,-6
1576152404957709,-8,-5,-1,-2,-4,-2,-3,-5
1576152404971870,-2,0,1,-1,2,-2,-2,3
1576152404971870,-2,-1,1,-2,2,6,3,-1
1576152404972764,-6,0,-4,0,-1,2,0,-5
1576152404972764,8,-1,-2,-1,0,2,-1,7
1576152404993743,3,-2,0,0,3,0,2,-4
1576152404993743,-4,0,-3,-1,2,-2,1,-2
1576152404994710,3,0,-1,0,-2,-4,-7,-9
1576152404994710,-2,0,0,-1,-5,-2,-5,-5
1576152405016650,-4,-2,-1,1,-4,1,-2,10
1576152405016650,-1,-1,0,0,0,-2,-3,-2
1576152405017645,0,0,-3,-4,1,-2,1,0
1576152405017645,0,1,-4,-4,0,-1,-1,1
1576152405031706,-6,-3,-6,-2,-2,0,1,-7
1576152405031706,8,1,-1,0,-3,-3,-3,0
1576152405032607,1,-4,-2,0,1,1,2,1
1576152405032607,-4,1,2,-2,0,-1,0,-3
1576152405054592,-7,2,-1,-1,-3,-4,-3,-7
1576152405054592,-1,-2,-2,2,-1,0,-2,-2
1576152405054592,2,0,0,-1,-1,1,-3,5
1576152405054592,6,0,0,-2,2,-2,-1,1
1576152405076592,-1,-2,0,-3,2,2,-1,-3
1576152405076592,6,-1,-1,-3,-3,-2,-4,-7
1576152405077489,-4,-1,-1,-2,-1,0,-1,-5
1576152405077489,-8,-1,-2,2,-4,-1,-3,-3
1576152405091551,-3,0,3,0,-2,-4,1,-1
1576152405091551,-3,-2,0,0,-2,-3,-3,2
1576152405092444,-1,4,-2,1,-1,1,0,-6
1576152405092444,-1,-5,-1,-1,-2,0,1,-1
1576152405114507,4,-2,0,-1,-1,0,-3,2
1576152405114507,3,-1,-1,1,3,2,-2,3
1576152405114507,-2,-5,0,2,-2,-2,4,1
1576152405114507,6,1,-2,-2,0,-2,0,3
1576152405136330,1,-1,-1,-2,0,-3,-1,-4
1576152405136330,-3,0,3,-2,-2,0,1,0
1576152405137327,-6,1,-2,-1,1,-2,-3,6
1576152405137327,-2,-4,-2,-2,1,-3,-4,-4
1576152405151289,5,-1,-4,-5,-4,2,-3,-3
1576152405151289,1,-1,-4,-2,-1,0,-3,-2
1576152405152283,0,2,-1,-1,-1,0,-3,-4
1576152405152283,-12,-4,-3,-2,-3,-2,1,-2
1576152405174229,-4,-2,0,3,-2,-2,3,12
1576152405174229,-2,-1,-3,-2,-3,-1,3,-6
1576152405175225,6,-2,1,-2,-3,-5,0,4
1576152405175225,9,2,1,-1,3,-2,2,5
1576152405196170,2,0,-1,-2,-3,1,1,-3
1576152405196170,-5,1,-4,-2,2,6,3,-5
1576152405197166,-7,-3,-1,-3,0,-3,-3,-5
1576152405197166,-2,3,-1,-2,-4,3,0,-7
1576152405211130,-1,-4,2,0,-2,-1,0,4
1576152405211130,2,-1,3,-2,0,1,-4,1
1576152405212126,-1,0,-1,-2,-1,0,0,-5
1576152405212126,2,-1,1,-1,-1,-1,-3,2
1576152405234064,-3,-1,-4,-1,0,0,-4,0
1576152405234064,-1,0,1,3,-1,-3,1,11
1576152405235061,0,-5,1,3,2,1,-2,2
1576152405235061,0,1,0,1,2,1,4,-3
1576152405257002,-3,1,-1,0,0,-2,-1,-2
1576152405257002,4,-2,1,-3,1,-6,0,5
1576152405257002,-2,2,5,1,-2,0,-2,1
1576152405257002,-9,-3,0,-1,-3,0,-2,-6
1576152405271964,-3,-1,1,0,-1,2,-4,-6
1576152405271964,-5,0,-3,-4,-4,-4,-4,-5
1576152405271964,1,-1,-4,-4,-2,0,-3,2
1576152405271964,-2,-3,0,-2,-1,-1,-2,-1
1576152405293904,-1,0,-1,1,-1,-1,1,-2
1576152405293904,5,-3,2,0,0,-4,5,1
1576152405294901,3,0,-3,-1,2,0,1,-2
1576152405294901,-2,-3,-4,-1,-4,-2,-3,-1
1576152405316924,-6,1,-1,-1,-2,-1,-2,-8
1576152405316924,5,2,-3,2,0,5,-1,1
1576152405316924,-4,1,-1,0,1,-2,-3,-3
1576152405316924,-1,-3,-2,0,-1,0,6,12
1576152405339850,7,0,1,-2,0,-2,3,-1
1576152405339850,-2,-2,-1,-2,-3,-4,-3,1
1576152405340780,-3,-1,-4,-4,-1,-4,-6,-5
1576152405340780,1,0,0,1,-1,-1,1,1
1576152405353814,0,1,-1,-2,-2,-2,2,-5
1576152405353814,-4,1,0,-1,1,-1,-2,-5
1576152405354747,-2,-2,-3,-1,-1,-1,-1,0
1576152405354747,8,1,-2,-1,-1,-1,-6,5
1576152405376786,1,-2,-2,-1,-3,-1,-5,-2
1576152405376786,-3,-1,2,-1,1,0,-3,-5
1576152405377685,4,4,-1,-2,-4,-1,3,7
1576152405377685,3,-1,0,0,-1,0,1,2
1576152405391750,-3,-2,1,2,1,-2,3,4
1576152405391750,-4,-2,-4,-3,-2,-3,0,-11
1576152405392644,0,0,0,0,-1,-2,-1,3
1576152405392644,-3,-1,1,-1,2,-2,-5,-1
1576152405414594,7,-3,-2,-2,3,4,-2,4
1576152405414594,3,0,0,0,-4,1,2,5
1576152405414594,-6,-3,3,-2,-1,3,3,0
1576152405414594,0,-2,-2,-3,-3,-2,-1,-5
1576152405436628,-6,-2,-3,-1,0,-1,-2,0
1576152405436628,4,0,-4,-1,-1,0,-4,-7
1576152405437523,-1,1,-1,1,0,0,-3,-3
1576152405437523,2,2,1,-1,-1,-2,-1,-8
1576152405451588,-5,0,-3,-2,-1,3,1,2
1576152405451588,0,0,-3,1,-1,0,3,4
1576152405452485,2,-2,-1,0,-2,-2,-3,-1
1576152405452485,-1,-4,-1,-1,0,-1,1,1
1576152405474509,1,0,-1,-2,2,-4,-3,-4
1576152405474509,-5,-1,2,1,-2,-1,2,-3
1576152405474509,-5,-1,0,2,-1,1,0,-4
1576152405474509,3,2,0,2,-2,3,-1,0
1576152405496463,-2,0,0,-2,-2,-3,2,-2
1576152405496463,-10,-3,-3,1,-1,1,-2,-1
1576152405497367,0,-1,-4,-1,0,-1,2,-5
1576152405497367,-3,2,-3,-3,-1,-1,-1,5
1576152405511324,6,-1,2,1,-1,2,1,2
1576152405511324,-2,1,1,-3,1,-5,-4,-7
1576152405519307,-3,-1,-2,-1,-4,-2,1,-15
1576152405519307,2,-1,1,-2,-2,-2,0,-2
1576152405542342,-4,-3,2,1,-2,-1,-3,-4
1576152405542342,-3,-2,1,-1,0,-1,1,2
1576152405543240,-5,-1,-1,0,1,0,-1,5
1576152405543240,-3,-1,-3,-1,-3,0,0,-5
1576152405556309,11,1,2,-2,0,0,3,2
1576152405556309,4,0,0,-2,1,0,-1,-7
1576152405557205,-8,-4,-2,-1,-1,-1,-3,0
1576152405557205,-4,0,1,2,1,-1,1,-1
1576152405580191,-5,-1,-4,-2,-1,-4,-1,1
1576152405580191,1,-1,-5,0,-2,2,1,6
1576152405580191,6,-1,-2,0,-2,-1,-1,0
1576152405580191,0,-1,1,2,-3,-4,-2,-3
1576152405594104,3,0,2,-2,-1,-3,-6,-6
1576152405594104,1,-4,1,0,0,-3,-3,3
1576152405595100,0,-2,2,1,0,1,1,0
1576152405595100,-6,-1,-1,-1,2,0,1,-1
1576152405616147,-8,0,-3,-2,0,2,-1,1
1576152405616147,-7,1,2,1,-3,-2,3,1
1576152405617042,0,-2,2,-3,-1,1,0,1
1576152405617042,7,-2,0,1,2,0,-1,-2
1576152405631047,-2,-3,-1,1,0,1,1,1
1576152405631047,-3,0,-1,0,1,-1,-1,-1
1576152405638987,-1,0,-5,-1,0,-1,-1,0
1576152405638987,-3,1,-3,-3,-2,-3,-1,-3
1576152405654044,-4,-1,-3,-3,-3,-3,-1,-2
1576152405654044,-1,-3,-4,0,-1,0,-6,-8
1576152405654950,4,1,-3,-3,-1,-2,-2,-2
1576152405654950,-1,-1,-3,-2,-2,-4,0,1
1576152405676898,2,0,-2,-1,-4,0,-2,2
1576152405676898,2,1,2,1,-1,-2,-3,-1
1576152405676898,-3,-1,6,0,2,0,-1,4
1576152405676898,0,-1,-1,-1,-2,0,0,-5
1576152405690941,-4,2,-1,-1,0,0,3,-5
1576152405690941,-3,0,-3,-3,3,3,5,6
1576152405698824,2,0,0,-1,0,0,1,3
1576152405698824,-1,-1,0,-1,0,1,2,3
1576152405713822,6,-3,-2,1,-1,-3,1,1
1576152405713822,1,2,-2,0,-2,-2,-1,-2
1576152405714787,1,-1,-4,0,0,-1,0,2
1576152405714787,0,0,1,-2,0,0,-5,8
1576152405736819,-2,3,-2,1,2,0,0,1
1576152405736819,-3,0,2,0,-2,-4,-3,-2
1576152405737721,3,-1,3,-1,-1,2,-1,0
1576152405737721,-2,-4,-1,1,-1,-3,-4,-7
1576152405750693,-4,0,2,-3,-2,-5,-3,1
1576152405750693,0,-2,2,-2,-2,-6,0,-3
1576152405758671,-3,0,1,-1,-1,-3,-2,-6
1576152405758671,2,1,0,-3,0,3,-1,-4
1576152405773657,2,-2,-1,1,2,2,0,-1
1576152405773657,7,-1,-4,0,1,1,1,3
1576152405774630,0,-2,-8,-2,-3,-2,-4,-4
1576152405774630,-5,-2,-1,-1,0,3,-1,-3
1576152405796863,-1,-2,-3,0,-4,-1,-4,1
1576152405796863,-10,-1,1,0,2,3,0,1
1576152405796863,-1,-1,2,0,2,0,-3,-3
1576152405796863,-7,2,0,-3,-1,-2,-2,3
1576152405810804,2,0,0,-2,-2,-2,0,0
1576152405810804,6,-2,0,1,-3,0,-3,-5
1576152405818786,6,-1,3,-2,-1,-1,3,4
1576152405818786,0,-4,-3,0,-1,-4,-2,-5
1576152405833773,-6,-1,1,0,1,2,3,-4
1576152405833773,4,-1,-3,-4,-2,-1,-2,1
1576152405834742,-5,-4,-3,1,0,-2,-3,0
1576152405834742,4,-1,-1,1,-1,2,2,-3
1576152405856732,-5,-2,-5,-1,0,-2,-1,-7
1576152405856732,-3,-2,1,-2,-3,-2,0,-2
1576152405857678,-4,0,2,0,0,-1,-4,-1
1576152405857678,-6,-2,2,-1,-1,-5,0,-3
1576152405870696,2,1,-3,0,0,-1,2,-2
1576152405870696,-3,1,-3,-1,-1,-2,-4,3
1576152405878622,-4,-2,-3,2,1,0,0,-1
1576152405878622,-2,-3,-3,-3,-2,-2,0,1
1576152405893582,-1,-1,2,-2,-3,-2,0,-4
1576152405893582,-2,-3,-2,-2,-2,-1,1,4
1576152405894580,-6,0,-1,-4,-4,0,-6,-9
1576152405894580,-1,-2,-1,0,1,2,-6,-2
1576152405916570,-1,-2,1,1,-1,-4,-4,0
1576152405916570,1,-4,-1,-2,-3,-3,-5,-3
1576152405917517,6,2,-3,-2,0,1,7,-1
1576152405917517,1,2,1,-1,-3,-1,4,-1
1576152405939506,-1,-4,1,1,0,0,1,-3
1576152405939506,-1,2,0,0,1,0,2,3
1576152405940457,-2,0,-3,0,-1,-3,-2,-1
1576152405940457,3,1,-5,0,0,2,2,1
1576152405954440,-2,-3,1,-2,0,1,1,5
1576152405954440,-2,0,-1,0,-3,1,-3,-3
1576152405954440,2,-2,1,2,-3,-1,-2,2
1576152405954440,-8,-3,-1,0,-2,-1,-1,-4
1576152405976415,-1,3,2,0,0,-3,-1,2
1576152405976415,5,0,2,1,1,-2,1,-6
1576152405977359,-1,-1,-5,-1,-1,-2,-5,1
1576152405977359,-3,-3,-4,-2,-3,-4,-7,-3
1576152405999311,-2,3,-3,0,-2,-1,-1,0
1576152405999311,-10,-3,2,0,-4,-2,0,-6
1576152406000311,-6,0,4,-2,-1,-3,3,1
1576152406000311,5,1,1,0,1,2,-1,2
1576152406014270,-2,-2,-2,1,-2,2,5,-2
1576152406014270,0,-1,-4,-2,0,1,6,2
1576152406014270,0,-2,-2,2,-3,1,1,8
1576152406014270,-4,-2,-1,-1,1,1,-1,-3
1576152406036262,5,1,-3,-3,-2,-9,-5,3
1576152406036262,-2,-2,0,0,0,-3,-1,-1
1576152406037212,1,-2,3,0,0,-4,-3,-2
1576152406037212,3,2,-1,1,0,0,2,-1
1576152406059151,0,-2,0,0,-3,4,-3,4
1576152406059151,-4,0,-1,-1,2,1,-1,0
1576152406060147,-5,-4,-3,-1,3,-2,-1,-5
1576152406060147,1,0,-2,-1,0,-4,0,1
1576152406074155,0,-2,3,2,-2,3,0,1
1576152406074155,0,-2,-3,0,-1,-6,-5,-3
1576152406075110,5,1,0,3,1,4,4,-1
1576152406075110,-3,-4,1,-3,0,-2,1,3
1576152406096052,-5,0,-1,-1,-1,-1,1,-2
1576152406096052,-2,-1,-2,-2,-4,-1,-2,-2
1576152406097048,0,-1,-1,-3,-2,0,2,-4
1576152406097048,1,-3,-1,-1,-1,-1,2,0
1576152406118993,1,0,-3,-1,2,-2,-1,0
1576152406118993,0,-4,-1,0,-1,1,-4,-1
1576152406119987,-2,0,-1,-3,-3,-4,-4,14
1576152406119987,-5,1,-3,0,-1,-1,-3,-2
1576152406133954,-3,-2,-3,-2,-1,0,1,-2
1576152406133954,-3,0,-3,2,-2,2,0,1
1576152406134948,-2,-1,-3,-3,-1,-2,-1,-5
1576152406134948,-4,-2,0,-2,-3,1,-3,-2
1576152406156892,5,-1,2,1,3,-1,0,5
1576152406156892,4,2,-1,-3,1,-2,1,-1
1576152406156892,3,0,0,1,-1,-1,2,0
1576152406156892,5,0,2,1,0,0,0,3
1576152406178830,-4,-2,-2,-1,-1,1,-3,-10
1576152406178830,-3,-3,1,-1,-1,0,-5,0
1576152406179828,-2,-2,-3,0,-2,0,-4,-3
1576152406179828,-3,-3,-2,-1,-3,-5,3,4
1576152406193793,2,0,0,2,0,0,1,-1
1576152406193793,0,0,-2,-4,-2,-1,-3,2
1576152406194788,1,1,2,-1,1,5,-1,5
1576152406194788,-3,-2,2,-1,0,-4,-3,-5
1576152406216379,1,0,-1,-3,0,-1,-3,-3
1576152406216379,-9,-3,-1,0,0,-1,2,-2
1576152406217379,3,-2,-1,-2,-2,0,-1,0
1576152406217379,1,0,-3,1,-1,0,-1,-1
1576152406239319,2,-1,-1,-2,-1,-3,-7,3
1576152406239319,-1,-2,0,2,-2,-1,-2,0
1576152406239319,-9,-3,1,-2,-2,-5,-4,-5
1576152406239319,3,0,-1,1,1,0,-3,-5
1576152406254278,2,-2,1,0,1,-1,1,4
1576152406254278,0,0,1,3,3,1,5,6
1576152406254278,-3,-1,0,-1,-2,-3,-4,-14
1576152406254278,4,0,-3,-1,-2,1,1,-1
1576152406276217,-3,1,-3,-3,-4,1,-1,-5
1576152406276217,3,1,1,-1,-2,-1,-2,3
1576152406277214,8,1,-2,5,3,-1,4,5
1576152406277214,-3,-3,2,1,2,-1,-3,-2
1576152406298741,-12,-1,2,0,-1,-3,1,1
1576152406298741,-2,3,2,-3,1,0,0,-1
1576152406299736,-2,1,0,-1,-1,-2,-1,-2
1576152406299736,-5,0,-1,-2,1,-1,-1,6
1576152406313704,5,-1,-1,2,-2,-1,-1,-7
1576152406313704,2,-2,1,0,-3,-1,-1,12
1576152406314697,-1,-5,-5,-1,3,1,-2,0
1576152406314697,-1,0,-2,-2,-1,6,2,0
1576152406336639,3,-1,0,-3,3,-3,-1,-10
1576152406336639,3,1,-1,0,-1,-1,3,-7
1576152406337635,3,0,-3,-3,1,-3,-1,-3
1576152406337635,-3,2,0,1,-3,-2,0,-1
1576152406358579,-3,-4,-2,1,-4,-2,-1,6
1576152406358579,3,3,-1,-2,1,-1,3,-1
1576152406359582,-2,1,1,1,-2,1,3,2
1576152406359582,-1,0,-2,-2,-1,0,-5,-7
1576152406373544,1,1,-3,0,2,1,2,1
1576152406373544,-1,1,-2,-1,1,-1,-2,-5
1576152406374541,-5,-3,2,0,-2,-4,0,-2
1576152406374541,-2,-4,-1,0,-2,-1,0,5
1576152406396483,-4,0,3,-3,-1,-1,0,5
1576152406396483,0,-4,-1,3,1,-1,1,-1
1576152406397480,3,1,-1,0,-1,1,-6,1
1576152406397480,0,-1,-1,1,-2,-2,-2,-7
1576152406419417,-2,-2,2,1,-2,-1,-1,2
1576152406419417,-1,-1,1,-2,-3,-3,-5,-4
1576152406419417,-5,-1,1,-1,1,-4,0,-1
1576152406419417,2,-1,-1,2,0,-1,-3,1
1576152406434415,3,0,-1,-4,0,1,-2,-6
1576152406434415,2,0,-3,-1,-1,1,0,-5
1576152406434415,-2,-2,-1,-3,-4,1,-3,-22
1576152406434415,-7,0,-1,1,1,-1,-1,-5
1576152406456390,-5,-2,-3,3,0,-3,0,2
1576152406456390,-5,-2,-3,-2,-1,-2,-2,2
1576152406457322,6,-1,1,2,-1,-3,1,4
1576152406457322,0,-3,1,-1,3,-4,-3,0
1576152406479328,-2,0,1,0,-2,2,1,1
1576152406479328,4,2,-2,-1,-1,-3,0,-7
1576152406479328,3,1,-3,0,-2,1,0,7
1576152406479328,2,-3,2,0,0,0,0,4
1576152406494258,3,-2,1,-2,2,-4,-3,-4
1576152406494258,-5,-1,2,-1,2,2,-2,0
1576152406495217,-8,-2,-2,-3,-3,-3,-3,-4
1576152406495217,0,-3,0,-2,0,-1,1,-1
1576152406516160,-1,-1,-3,-2,-1,0,-5,-7
1576152406516160,1,-3,-1,0,-1,0,3,10
1576152406517158,-3,2,2,-1,-1,-1,0,6
1576152406517158,-6,-1,0,1,-2,2,1,-1
1576152406539145,-3,-1,-2,0,-1,1,-1,6
1576152406539145,1,-3,-3,-3,1,-2,0,-2
1576152406540094,3,-1,-5,-2,1,2,5,7
1576152406540094,2,-1,-2,-2,0,-1,0,0
1576152406554157,4,0,-2,0,-2,2,0,-3
1576152406554157,-5,0,-2,1,-3,-3,-4,-2
1576152406555055,-5,-1,-1,-2,1,-2,-1,-6
1576152406555055,3,3,2,-1,0,-2,-2,3
1576152406576996,3,-1,-3,-1,-4,-3,-4,-1
1576152406576996,2,1,-3,0,-3,-1,0,4
1576152406576996,-4,-4,-1,-2,-2,-9,-7,-1
1576152406576996,-5,-1,-3,-4,-3,-1,0,-1
1576152406600036,-4,1,1,0,-3,-2,0,-1
1576152406600036,6,-1,1,-1,0,1,0,6
1576152406600940,4,-1,-1,0,-2,-1,0,-8
1576152406600940,0,0,-1,0,-3,2,1,-1
1576152406613998,0,3,2,-1,1,-3,-1,4
1576152406613998,-5,-4,-1,-3,1,-1,0,0
1576152406614900,2,2,-1,-1,1,3,-1,8
1576152406614900,-1,-3,-4,-1,0,-1,0,2
1576152406636911,-5,-1,-2,-1,-2,3,3,1
1576152406636911,3,0,0,3,-2,2,-3,-11
1576152406636911,-4,-3,1,-1,-1,-2,1,-9
1576152406636911,-1,-2,-2,-3,-5,-3,-3,-10
1576152406658778,0,-2,-2,-1,-1,-3,-2,-2
1576152406658778,2,1,0,-2,-2,-3,-5,-1
1576152406659779,-6,0,-3,-3,-1,0,-2,-1
1576152406659779,2,-1,2,1,-1,1,-2,0
1576152406673740,-1,-2,0,-2,2,0,2,-1
1576152406673740,-8,-1,-1,-1,1,-2,-2,-3
1576152406681720,-1,-1,-2,-2,-3,-2,1,6
1576152406681720,0,2,0,-2,1,-2,1,-1
1576152406696679,-7,-4,-4,-3,-4,-4,0,-2
1576152406696679,-1,-2,1,-1,0,0,0,1
1576152406697676,3,1,-1,-1,-1,3,0,-4
1576152406697676,-7,-3,-2,2,-3,0,-1,0
1576152406718620,-1,1,0,-1,-2,0,-1,-1
1576152406718620,-3,0,0,-2,-3,-1,2,-1
1576152406719618,-1,1,-1,-2,-4,-3,-4,-8
1576152406719618,6,0,0,-1,0,-2,0,-3
1576152406733577,2,1,0,1,2,2,-2,0
1576152406733577,-1,-4,1,-2,-2,-2,-1,-1
1576152406741556,-3,-4,-1,-2,3,2,3,-4
1576152406741556,-1,3,-3,-1,0,-2,-2,-1
1576152406756520,-4,-3,-2,-1,-4,-3,-3,-8
1576152406756520,4,-3,2,1,0,2,0,20
1576152406757513,3,0,3,0,1,-1,1,4
1576152406757513,0,-1,-1,2,2,2,0,1
1576152406779455,-3,0,1,2,1,1,1,-1
1576152406779455,-2,2,-1,0,-1,5,1,-10
1576152406779455,-1,-2,-1,-1,-5,-4,1,6
1576152406779455,-2,0,1,-2,-3,-1,-2,-1
1576152406793454,-1,3,-1,-2,1,0,-1,0
1576152406793454,-5,-1,-5,1,1,-3,-2,-6
1576152406801463,2,-1,-1,0,-1,2,-3,1
1576152406801463,8,-1,0,1,1,0,2,0
1576152406816426,2,-1,0,-2,-3,-4,-2,-1
1576152406816426,6,3,1,-2,-1,-2,-2,-5
1576152406817359,-1,0,0,1,-4,0,2,0
1576152406817359,2,0,-1,-2,1,-5,-3,-3
1576152406839366,4,0,-3,0,-1,2,1,4
1576152406839366,-1,1,0,-1,-1,1,0,-3
1576152406840293,-4,-1,-2,3,1,2,-3,-1
1576152406840293,-1,-1,-1,-3,-2,1,-3,1
1576152406862332,-4,0,2,0,3,1,4,3
1576152406862332,-2,-3,-1,0,1,-3,-1,-5
1576152406863232,-1,2,-1,-2,-1,0,-2,-8
1576152406863232,-3,-3,-3,-1,1,-2,-4,-4
1576152406876303,5,1,-2,-2,0,0,-1,-1
1576152406876303,-2,-2,0,0,-2,-3,-1,3
1576152406877199,-2,-3,-2,0,3,2,7,0
1576152406877199,1,-2,-1,-2,-1,0,-2,5
1576152406899238,-1,-1,1,-2,-3,-1,-4,0
1576152406899238,3,0,0,-1,1,0,2,0
1576152406900133,6,-2,-4,-1,-3,-1,-2,-4
1576152406900133,-1,-3,-4,0,-3,-2,0,-4
1576152406913144,2,1,-2,-1,0,-1,-1,1
1576152406913144,-5,1,0,0,0,2,-1,0
1576152406921075,-1,0,0,-3,1,-2,-2,5
1576152406921075,0,0,2,0,0,-2,1,-3
1576152406937085,-7,-4,1,-1,-1,-3,-1,-2
1576152406937085,-7,-2,-3,0,-2,-3,-2,-2
1576152406937085,1,3,-3,-1,0,0,-1,2
1576152406937085,-3,-2,-1,1,-2,0,2,-1
1576152406959078,1,-2,-1,-1,1,-2,-2,3
1576152406959078,4,2,1,-3,1,-2,0,4
1576152406959978,1,-1,2,-1,-3,-4,-4,2
1576152406959978,-2,-2,-1,-1,-1,0,3,-2
1576152406973940,-4,-2,-1,1,0,1,-1,-4
1576152406973940,-2,-2,-5,-2,-2,0,-1,-6
1576152406982017,-2,-3,2,0,-1,1,-1,1
1576152406982017,1,0,-2,-1,-3,1,-2,3
1576152406996991,0,-2,-1,2,-2,-1,-2,-9
1576152406996991,-5,-4,-2,-1,-1,3,-2,-4
1576152406996991,-5,1,0,-2,0,-8,1,-9
1576152406996991,2,-2,0,-1,-3,-3,-5,4
1576152407018820,-3,-1,-4,1,-1,-1,-2,-4
1576152407018820,-1,0,-1,-2,-1,0,0,-3
