timestamp,emg1,emg2,emg3,emg4,emg5,emg6,emg7,emg8
1522235687422025,-7,12,-3,15,-6,1,-15,-35
1522235687422025,61,11,6,1,20,19,-4,-6
1522235687422025,-10,-21,-25,-4,-29,-10,2,-8
1522235687422025,4,11,17,3,-4,-14,12,32
1522235687423027,-21,-26,11,3,10,74,15,12
1522235687423027,-33,14,-8,-44,-100,-34,-38,-16
1522235687424030,80,-73,-37,55,126,-59,-42,5
1522235687424030,95,65,2,-24,-47,-21,-19,-5
1522235687429050,-51,1,14,3,-9,3,-7,-2
1522235687429050,90,-23,17,8,-30,16,35,68
1522235687436062,71,40,-11,-10,2,55,-24,-25
1522235687436062,71,-31,-29,5,17,-5,9,-8
1522235687450099,41,1,17,-26,14,-37,42,28
1522235687450099,9,-22,-7,1,-88,-2,14,-31
1522235687460126,63,53,7,41,68,76,26,-7
1522235687460126,30,-37,-2,-6,8,0,-39,26
1522235687465139,-50,-6,8,22,-92,-108,-21,-5
1522235687465139,-26,-8,-13,16,122,48,49,-24
1522235687490206,-46,-29,-11,-22,-27,-25,13,19
1522235687490206,-82,51,13,-1,21,37,26,-11
1522235687491209,-39,27,6,-11,-45,-6,-30,13
1522235687491209,-90,14,13,21,-39,-5,-3,26
1522235687528311,-63,-4,-75,-24,3,20,-19,-36
1522235687528311,-32,21,56,4,5,-8,-8,27
1522235687529311,-17,-18,-9,2,-4,-4,-3,-6
1522235687529311,2,12,1,3,-9,-3,1,29
1522235687529311,-13,-52,-22,4,-8,8,10,8
1522235687529311,-10,11,-5,-11,-31,-29,-5,-8
1522235687532318,-61,47,10,5,42,34,-3,-1
1522235687532318,-86,-96,17,11,-9,-29,15,-22
1522235687539336,13,18,-32,6,13,-30,-20,3
1522235687539336,-24,-10,-7,-6,15,6,5,-22
1522235687547358,8,-67,-14,-2,-11,3,17,10
1522235687547358,0,21,0,-4,-11,4,-6,-19
1522235687556382,20,-48,-9,-13,-22,-1,5,27
1522235687556382,-9,57,53,-2,11,-7,-9,-5
1522235687570419,-4,41,18,-6,-16,-10,6,-25
1522235687570419,32,-89,-74,-8,24,18,-27,18
1522235687577438,-17,107,93,10,-41,-23,-14,-36
1522235687577438,18,3,-23,-6,64,34,3,7
1522235687600499,-7,5,30,9,11,-4,5,-3
1522235687600499,8,-85,-45,-11,-69,-19,20,19
1522235687602504,-20,41,79,19,98,34,35,9
1522235687602504,7,1,-8,-23,-30,-3,-25,-4
1522235687615539,-13,62,-59,-9,-5,5,-9,-16
1522235687615539,22,83,-2,18,-13,63,22,15
1522235687622558,-4,-29,8,-11,-21,-43,19,-9
1522235687622558,9,-95,-37,6,13,-15,-11,10
1522235687638600,1,87,63,1,-25,-8,-4,21
1522235687638600,-50,81,-14,-8,-61,-10,-23,-15
1522235687639603,45,59,41,23,90,31,10,19
1522235687639603,-66,-31,0,-7,-21,9,13,-14
1522235687660659,-21,-128,-73,-7,26,-2,-5,19
1522235687660659,7,85,34,-2,14,-15,-1,-11
1522235687662664,24,57,-3,-19,-62,9,-12,1
1522235687662664,49,89,-11,7,11,-19,20,8
1522235687675699,5,-38,17,2,-43,-40,-65,-11
1522235687675699,-31,-23,23,23,91,54,19,-4
1522235687681715,18,-75,-28,-10,-44,-16,-51,-14
1522235687681715,65,-47,-56,-4,26,35,53,5
1522235687698760,34,44,17,0,-29,-6,22,6
1522235687698760,33,-66,-8,-1,14,-37,-8,11
1522235687699763,-25,24,11,-3,-21,-16,-9,-8
1522235687699763,-8,0,-9,-6,-42,14,5,10
1522235687720819,-50,-75,-23,15,62,8,-29,-25
1522235687720819,-57,21,40,-11,-2,-17,-1,-62
1522235687722824,45,9,-3,3,11,12,0,81
1522235687722824,-18,-22,4,-8,-22,12,-17,-70
1522235687734856,24,47,-7,7,-14,10,38,-4
1522235687734856,-50,-51,-8,-3,-33,-22,-26,15
1522235687741875,-67,-13,-12,-8,20,26,-8,-15
1522235687741875,75,26,-1,0,-28,27,43,9
1522235687757918,8,-109,-24,-17,6,-23,-14,-7
1522235687757918,92,65,9,25,72,23,9,-11
1522235687759923,-22,-7,-5,-9,-21,38,-4,21
1522235687759923,-24,-44,6,-4,-1,-28,-21,-17
1522235687780979,-39,5,14,-28,-71,-38,-21,21
1522235687780979,-30,-20,-7,54,81,-10,49,-17
1522235687782984,-8,-25,-16,-11,-20,-54,21,10
1522235687782984,15,-16,-7,-9,-1,9,-7,27
1522235687795016,45,46,8,-22,-77,37,35,10
1522235687795016,-87,-49,-8,8,4,-25,-12,-50
1522235687802035,117,31,-10,8,17,-31,-15,-5
1522235687802035,-96,30,7,-3,-22,-40,-43,-5
1522235687818077,40,34,17,33,38,36,23,34
1522235687818077,-4,-24,-27,-48,-38,-4,-49,-42
1522235687820082,25,8,33,33,18,22,26,-7
1522235687820082,-80,-20,-1,-6,-16,-75,-51,-21
1522235687841139,20,-34,-13,-5,-20,30,2,1
1522235687841139,-35,-5,-7,0,31,17,50,-8
1522235687842141,-27,-4,-15,-17,-60,-30,-3,-14
1522235687842141,-59,-2,4,8,77,-5,-7,-1
1522235687854173,-25,-14,-27,7,12,-17,-20,10
1522235687854173,-60,-10,-8,-13,-24,21,-5,17
1522235687863197,-6,-26,2,1,-27,-21,-1,-12
1522235687863197,10,17,-30,0,-25,-1,-10,6
1522235687878237,20,-57,-21,0,39,3,22,5
1522235687878237,40,70,42,-6,-20,-28,-12,37
1522235687880243,35,-107,-70,-12,4,38,6,14
1522235687880243,2,60,30,7,18,38,25,22
1522235687901298,-23,11,13,7,26,-13,2,-29
1522235687901298,69,89,-5,-14,-36,1,-11,26
1522235687902301,-51,-7,-26,-4,-7,-11,6,2
1522235687902301,-16,-39,37,7,10,7,8,-3
1522235687914333,17,-12,-8,6,3,-13,0,-17
1522235687914333,-9,54,-2,-8,-35,-10,-27,35
1522235687931378,22,3,19,-1,32,29,8,-8
1522235687931378,1,-56,-27,6,-58,-17,-4,-30
1522235687938397,-23,52,5,-4,26,21,-21,-8
1522235687938397,55,37,3,-6,-30,-15,17,10
1522235687940403,-19,-59,-38,-5,27,13,-9,-13
1522235687940403,37,-56,-39,-7,-10,-21,-7,14
1522235687960456,7,68,29,7,1,-20,1,-4
1522235687960456,12,-41,-40,-4,3,16,1,-26
1522235687962461,-14,-38,-12,-4,-34,-13,6,9
1522235687962461,71,103,28,18,42,-9,-14,-2
1522235687974493,-40,-13,21,-23,-71,-7,-7,-9
1522235687974493,-7,-96,-29,-13,93,4,12,26
1522235687983517,-38,-12,2,1,17,-13,-25,-34
1522235687983517,27,8,33,-1,-3,19,32,20
1522235687998557,-24,-77,-26,-2,16,-16,-14,-26
1522235687998557,46,127,91,2,-73,-6,-38,16
1522235687999560,-65,-76,-51,4,11,-3,6,-54
1522235687999560,9,74,23,20,82,0,2,19
1522235688020615,-23,-33,19,2,-56,4,6,-7
1522235688020615,18,-100,14,-33,-67,28,14,57
1522235688022621,-30,32,3,5,-5,-46,-16,2
1522235688022621,5,-82,-80,-1,36,51,33,1
1522235688034653,16,16,67,28,25,-34,-18,-2
1522235688034653,3,-23,-16,-5,3,43,16,-24
1522235688043677,39,34,14,-8,-45,-27,-5,23
1522235688043677,16,-2,-19,-18,-37,-16,-34,15
1522235688058717,-61,-25,-4,11,62,13,1,-1
1522235688058717,43,-47,-56,0,-27,-26,-9,-46
1522235688059719,27,127,101,14,7,27,9,-4
1522235688059719,47,-79,-13,-6,-43,0,3,2
1522235688080775,25,32,-33,-3,9,-26,2,20
1522235688080775,-37,-61,-8,10,3,-7,-17,16
1522235688082781,86,26,12,-20,-79,-19,-2,-18
1522235688082781,-121,3,-4,18,88,49,1,-18
1522235688094813,127,63,13,-5,-21,2,0,25
1522235688094813,-82,-66,-16,-31,-36,-36,31,-7
1522235688103837,66,-5,-21,41,87,13,-20,-10
1522235688103837,-51,-5,10,-25,-48,10,29,-59
1522235688118877,-98,-22,-7,-14,-42,-7,15,12
1522235688118877,108,43,6,13,-17,30,42,0
1522235688119879,-42,9,-4,-24,-13,40,-55,8
1522235688119879,18,-7,19,19,-3,-31,9,49
1522235688140935,-49,-17,-39,-9,42,11,5,-16
1522235688140935,51,48,46,7,-37,-20,-20,-39
1522235688142941,-24,-47,0,23,-14,-18,13,3
1522235688142941,-3,-19,-39,-8,58,82,3,27
1522235688154972,6,-38,7,2,-26,0,-3,11
1522235688154972,0,70,19,4,-40,-55,-39,-9
1522235688163997,-34,-70,-12,0,96,27,-5,37
1522235688163997,101,74,0,-29,-42,-100,6,-23
1522235688186055,51,-58,2,19,6,-15,9,-14
1522235688186055,-48,13,16,0,24,31,3,6
1522235688187058,-12,-22,19,24,-18,-3,-13,25
1522235688187058,-2,-43,-30,-1,-18,-9,-12,-4
1522235688201095,28,125,25,-7,-20,9,28,8
1522235688201095,-88,-74,-15,13,80,-10,-16,0
1522235688202098,-7,-26,18,-24,-59,-7,12,0
1522235688202098,-11,-44,0,2,-2,-20,-21,-19
1522235688214130,35,42,3,-2,-22,-2,-21,-19
1522235688214130,-66,-21,-8,4,40,46,12,26
1522235688223154,5,27,-7,-23,-8,-22,6,-14
1522235688223154,77,-18,-25,-6,-18,-25,-38,5
1522235688238194,-60,-35,-11,7,24,53,20,-6
1522235688238194,3,-8,-11,-7,15,6,7,-4
1522235688240199,11,-50,-28,-1,5,-1,14,-8
1522235688240199,-17,53,50,3,-39,7,8,30
1522235688261255,1,-70,-20,-15,-17,-3,-6,5
1522235688261255,29,-43,-80,1,29,-3,-9,25
1522235688262258,-34,24,58,13,-13,7,11,-39
1522235688262258,-18,52,43,2,-4,5,-8,-10
1522235688274290,-33,53,3,17,-9,-13,-16,-9
1522235688274290,31,-3,7,-25,-33,25,9,12
1522235688283314,8,-17,-53,5,36,-6,20,5
1522235688283314,-28,-19,-44,-8,-48,2,-3,34
1522235688298354,2,60,86,4,16,26,23,-18
1522235688298354,45,65,23,16,34,-81,-23,-57
1522235688300360,-35,37,-46,-5,-38,2,7,25
1522235688300360,-27,-72,-18,9,71,1,5,3
1522235688321415,35,46,-38,-39,-110,18,-23,-11
1522235688321415,-29,-29,57,8,17,23,4,4
1522235688322418,16,49,3,-12,-37,-11,6,3
1522235688322418,0,-66,-22,5,-32,-18,10,10
1522235688343474,-74,-106,-29,7,33,-25,-12,-40
1522235688343474,-1,-11,-23,-10,-55,24,9,-7
1522235688345479,1,-28,-18,0,85,-7,28,-1
1522235688345479,-20,27,21,21,11,29,-25,5
1522235688358514,15,39,8,1,20,-25,-26,17
1522235688358514,90,-9,-17,6,11,28,13,11
1522235688360519,-53,-128,-34,-8,8,-45,31,-43
1522235688360519,8,127,48,-1,-9,-6,5,-22
1522235688380573,87,-19,-29,-1,6,-13,-10,38
1522235688380573,-61,13,11,2,-41,5,-14,-14
1522235688382578,71,-31,11,-4,-5,26,-4,-9
1522235688382578,6,-66,-50,-14,-46,-12,5,27
1522235688403634,-18,8,-25,1,80,17,3,-72
1522235688403634,6,22,30,7,-2,-10,-3,26
1522235688404636,-2,52,21,-4,-33,-17,-19,-17
1522235688404636,34,-48,-15,-2,18,26,0,-2
1522235688418673,-38,-35,-6,-3,-100,-41,9,35
1522235688418673,92,15,-5,3,99,-5,-22,-18
1522235688419677,48,0,-7,3,24,-48,-28,2
1522235688419677,36,24,14,-7,-10,-11,19,-22
1522235688440732,-108,-31,-8,-1,-80,-30,31,13
1522235688440732,53,31,17,10,18,13,-24,55
1522235688442737,-128,-83,-11,-2,2,3,-26,-37
1522235688442737,54,102,49,3,-11,21,51,2
1522235688463793,6,-17,-6,-31,-7,-18,-21,11
1522235688463793,-39,46,-15,-8,1,-35,-24,13
1522235688464796,22,15,7,30,6,29,-8,9
1522235688464796,-46,-29,-24,-15,7,-1,-12,-26
1522235688477831,74,-13,20,-10,-51,-27,13,-4
1522235688477831,-104,-40,-35,33,92,45,34,-42
1522235688484849,-7,-39,12,-1,-39,10,1,14
1522235688484849,-15,50,21,-15,-42,-13,13,11
1522235688499889,-26,-18,-34,28,-16,55,-53,8
1522235688499889,90,-40,11,-5,48,19,2,-10
1522235688508913,81,5,-12,-23,-17,23,1,7
1522235688508913,25,7,8,-3,-32,-15,-19,-22
1522235688522951,-31,-23,6,10,41,75,22,13
1522235688522951,-45,4,11,-11,-61,-37,2,1
1522235688524956,-67,11,4,7,-14,38,40,-9
1522235688524956,1,-21,-24,-5,39,3,-56,10
1522235688546012,-21,55,-58,-6,39,13,11,2
1522235688546012,-90,60,59,7,-62,2,32,-10
1522235688547015,-9,70,0,-16,10,-1,11,54
1522235688547015,-33,-27,17,18,15,-16,-23,-18
1522235688560049,10,-68,-11,5,45,-18,-5,6
1522235688560049,-21,-56,-33,-6,-43,-7,2,12
1522235688569073,-7,72,16,-13,-24,-12,-31,14
1522235688569073,1,-48,-23,3,2,9,16,13
1522235688583110,-15,11,41,17,51,21,3,-22
1522235688583110,6,38,13,-10,-29,-18,-8,-10
1522235688589126,64,-33,-9,-5,-18,-5,-13,-39
1522235688589126,-70,-65,-30,2,17,8,16,-19
1522235688606172,38,18,-20,-8,-1,-13,13,-17
1522235688606172,22,-36,11,-1,12,-13,-17,18
1522235688607175,43,4,-2,-7,-7,-13,2,10
1522235688607175,-19,-28,35,10,-64,5,-16,-13
1522235688619206,-1,30,13,1,29,-9,8,44
1522235688619206,11,-15,-1,0,-22,-13,1,-27
1522235688628233,-84,-12,-20,-11,3,34,-16,-4
1522235688628233,-5,71,15,4,1,18,-9,-27
1522235688642268,15,-57,-14,-9,-48,-46,2,45
1522235688642268,-10,-61,-32,9,54,5,26,-30
1522235688649286,90,67,-15,-5,2,-25,7,22
1522235688649286,-52,-64,-1,-11,-30,2,2,-6
1522235688666332,6,86,28,-4,-29,6,4,-44
1522235688666332,-34,-30,-25,-18,-30,-1,-48,12
1522235688667334,35,-56,-57,20,97,45,20,7
1522235688667334,-10,-42,-12,1,16,-52,-19,20
1522235688679367,-20,-23,65,17,70,7,0,9
1522235688679367,-6,24,-55,-14,-96,-43,1,0
1522235688688390,-25,127,109,9,-11,32,9,-3
1522235688688390,28,0,-35,-1,-1,11,20,40
1522235688703430,17,-10,-34,-5,-14,-41,-6,-1
1522235688703430,-24,45,1,8,-7,18,-25,-28
1522235688705436,-1,18,13,-1,15,4,0,-21
1522235688705436,6,36,3,-4,0,10,11,-35
1522235688725489,47,-79,-74,-28,2,2,-15,-5
1522235688725489,-76,-80,9,-10,11,-7,4,7
1522235688727495,-13,49,57,7,-108,-62,1,12
1522235688727495,-39,-37,24,16,119,66,9,-12
1522235688748550,46,6,-3,2,-35,21,-2,7
1522235688748550,28,-90,-90,13,60,-4,15,8
1522235688750555,-63,-9,29,-2,18,-10,-17,-7
1522235688750555,30,13,4,-5,-25,-5,19,6
1522235688763592,68,-77,-44,5,-8,-7,-14,20
1522235688763592,45,127,121,19,9,6,-12,7
1522235688764593,-43,-78,-25,-11,-8,-20,-13,-9
1522235688764593,-10,-21,-27,-6,-56,-30,-8,3
1522235688785649,-20,50,23,4,48,30,15,27
1522235688785649,30,8,-24,-7,-2,-2,22,32
1522235688787654,27,-45,-26,-4,-7,8,-29,-22
1522235688787654,-21,-69,-6,-12,-6,3,-4,4
1522235688808710,-8,23,28,3,-9,0,5,-6
1522235688808710,27,-14,0,-3,-49,-19,22,22
1522235688809713,97,6,0,-2,73,20,-8,12
1522235688809713,55,23,-15,-2,-41,5,13,15
1522235688823750,-55,-5,7,-4,40,-18,-33,-25
1522235688823750,53,25,3,0,-11,48,26,-23
1522235688824753,-14,-56,-26,7,-80,-16,-52,-1
1522235688824753,3,51,20,-6,28,-18,42,10
1522235688845809,66,-1,6,-7,16,38,-2,-32
1522235688845809,16,-46,7,-10,-28,-56,-42,7
1522235688847814,-74,5,-18,2,36,69,44,2
1522235688847814,-53,-31,7,19,-59,-18,-2,-51
1522235688868870,12,35,21,4,26,26,37,-8
1522235688868870,45,40,-16,-23,-46,-20,-19,-15
1522235688869873,12,-29,-9,4,45,-31,23,23
1522235688869873,86,5,26,-28,-96,-41,-34,27
1522235688883911,-18,-63,-79,28,82,33,26,-23
1522235688883911,7,58,91,1,1,11,23,0
1522235688884913,119,19,-10,11,-1,-8,6,9
1522235688884913,71,-15,9,6,11,37,12,-1
1522235688905968,-48,-77,-4,-9,-5,-25,-27,-9
1522235688905968,71,11,-51,-14,-17,-40,-14,-17
1522235688907974,-26,-27,18,4,-14,0,-49,23
1522235688907974,26,34,11,0,55,28,73,11
1522235688928027,53,58,19,-12,-7,-11,-3,23
1522235688928027,-83,-119,-73,10,-14,28,10,-25
1522235688930032,17,80,78,-12,-20,-1,12,14
1522235688930032,72,34,9,19,25,11,-7,-11
1522235688943067,-79,58,11,-6,-24,-12,-25,7
1522235688943067,-52,-52,4,-20,-9,15,27,13
1522235688949083,-43,-88,-71,-2,6,-28,-38,-34
1522235688949083,-49,45,20,-1,-14,-19,3,-5
1522235688966128,-36,38,18,3,2,10,-9,-30
1522235688966128,-29,-18,-4,4,19,37,8,16
1522235688967131,-27,9,-11,-5,-20,7,26,-1
1522235688967131,-60,-95,-78,-1,54,-16,-12,4
1522235688988187,-36,84,98,15,-43,-17,-2,-9
1522235688988187,-1,-27,-33,4,22,-6,-15,14
1522235688990192,-33,18,25,-7,-17,16,27,-18
1522235688990192,3,-20,-2,-6,-1,-7,-19,26
1522235689003227,43,-60,-36,-7,-6,-8,-10,-6
1522235689003227,72,27,-98,-17,26,-30,-5,1
1522235689009243,-35,79,73,35,-12,13,30,32
1522235689009243,10,-32,-46,-8,-5,-4,-19,19
1522235689026288,12,-45,-46,-2,24,-1,4,8
1522235689026288,20,-45,4,-4,22,-7,9,12
1522235689027291,18,24,-6,-6,-37,-25,-34,-23
1522235689027291,-25,-4,-4,1,2,20,5,-22
1522235689048346,1,-9,16,-4,-31,-12,11,9
1522235689048346,26,-66,-60,6,16,-5,1,21
1522235689050352,-55,-22,0,-16,-38,-9,2,-2
1522235689050352,-26,11,-13,5,-32,36,-5,-15
1522235689062385,23,55,-7,-4,21,-32,-16,12
1522235689062385,-40,-18,3,-3,5,33,-3,-23
1522235689069403,26,3,-32,-3,11,-35,15,-15
1522235689069403,11,-80,-24,-2,-19,-24,-24,-1
1522235689085445,-81,68,-1,-4,31,35,18,2
1522235689085445,-30,49,60,18,26,-15,-20,5
1522235689087451,-52,-64,-45,-25,-33,13,-3,-14
1522235689087451,-17,127,53,2,-16,-17,1,8
1522235689108507,17,-83,-23,-15,-39,-21,-5,-38
1522235689108507,-30,110,58,18,65,10,8,-26
1522235689110513,61,-38,-24,3,47,16,-22,18
1522235689110513,-9,-9,19,-4,-23,9,-6,-12
1522235689122544,22,-1,1,5,-16,-2,5,7
1522235689122544,39,52,20,-17,-60,24,3,23
1522235689129562,1,-82,-44,-1,17,-12,3,-4
1522235689129562,-52,-10,-16,1,46,-14,-34,-14
1522235689145605,21,-51,-24,-5,-49,20,-11,-4
1522235689145605,-23,-71,8,0,-24,-41,-13,-15
1522235689147611,35,85,23,2,17,-7,11,3
1522235689147611,92,-11,-20,-2,25,-3,-5,-27
1522235689168666,-10,-34,19,7,-19,-20,13,42
1522235689168666,73,57,11,1,-39,2,-48,14
1522235689169669,-108,-41,-15,-7,14,3,33,-17
1522235689169669,-32,24,13,2,30,-42,-8,-13
1522235689182704,123,-1,-6,2,6,8,21,23
1522235689182704,-108,-14,12,-19,-9,40,24,6
1522235689189722,7,-10,-5,16,-3,11,12,-3
1522235689189722,-16,-1,23,5,-4,28,35,36
1522235689205765,-48,-7,-6,2,12,-21,40,-11
1522235689205765,1,-67,-12,-22,2,83,1,-59
1522235689207770,36,92,27,2,-6,-6,9,17
1522235689207770,30,-45,-11,15,37,-18,-14,-23
1522235689228827,-25,-19,-17,-8,-5,-26,-21,-14
1522235689228827,25,2,0,-8,-5,-26,0,30
1522235689229829,-33,7,-13,-13,-33,-50,-93,-14
1522235689229829,-56,4,5,38,2,83,69,-10
1522235689242864,-53,-43,-3,-31,-7,-5,-39,-10
1522235689242864,17,32,2,10,-24,16,13,-10
1522235689249882,-20,-127,-11,11,18,-9,47,31
1522235689249882,75,52,-5,-23,43,-86,-99,-17
1522235689265925,106,43,-2,-1,-45,-4,-8,-8
1522235689265925,-41,-44,12,31,56,61,76,14
1522235689267931,4,-10,-16,-22,-10,47,37,6
1522235689267931,-13,-57,-12,-3,-24,19,-16,9
1522235689287984,-88,-22,20,-6,18,-10,-14,-9
1522235689287984,-16,64,17,13,-34,-97,-53,9
1522235689289989,17,6,1,-12,-20,29,27,-21
1522235689289989,-38,-25,-3,-9,-9,6,7,20
1522235689302021,8,87,-10,9,-2,-6,-18,4
1522235689302021,-33,-37,3,3,15,1,19,17
1522235689311051,-17,-55,10,7,25,-10,-20,2
1522235689311051,-32,9,-2,-10,-29,-3,-6,-17
1522235689326085,-27,-8,2,3,-19,17,15,23
1522235689326085,-4,49,20,3,-11,-14,-7,-34
1522235689328092,-12,29,1,6,40,1,-7,19
1522235689328092,18,-39,5,-1,4,-12,-9,-4
1522235689348143,-5,-59,-1,9,14,29,23,-2
1522235689348143,14,-57,3,-1,-19,-39,-10,19
1522235689350149,38,22,-45,-3,-8,-12,-9,11
1522235689350149,-4,-57,-8,-30,-15,-1,6,2
1522235689362181,-4,71,24,24,55,22,15,30
1522235689362181,62,-49,-30,-1,43,2,29,27
1522235689371205,11,90,4,0,20,41,-20,-40
1522235689371205,-73,-59,28,8,-50,-67,-7,-19
1522235689386245,3,-53,-15,-6,46,45,-53,-7
1522235689386245,35,28,-21,-7,-1,-34,2,-10
1522235689387247,25,-44,-64,-14,-13,20,33,8
1522235689387247,-3,104,38,13,10,28,14,0
1522235689408303,-14,53,6,-3,-41,-8,-6,-41
1522235689408303,-3,-46,23,8,21,-36,-22,-15
1522235689410309,9,-121,-71,-7,-30,-43,-9,-43
1522235689410309,-4,-17,7,1,-9,15,3,21
1522235689422341,20,98,19,10,41,-12,12,2
1522235689422341,16,19,-14,-6,-12,23,-3,-12
1522235689431365,-7,-70,-24,-11,-62,-27,5,9
1522235689431365,-32,69,-13,5,49,4,-11,-18
1522235689446405,-56,-77,-44,-8,-20,8,22,27
1522235689446405,-41,127,44,3,23,18,-18,-6
1522235689447407,85,3,42,17,4,8,4,25
1522235689447407,-62,-43,-32,-2,25,51,23,-17
1522235689468463,28,78,-3,8,23,-20,12,11
1522235689468463,-12,26,23,-20,-24,-21,-27,-23
1522235689470469,14,15,38,-4,20,-5,-4,10
1522235689470469,55,-12,-7,4,-28,-6,-21,17
1522235689482500,0,-6,-6,-11,-39,5,36,-7
1522235689482500,18,-55,-18,-6,-5,-10,-20,-2
1522235689491525,-15,44,53,5,1,0,-3,-7
1522235689491525,17,-24,-27,-4,-5,-3,5,7
1522235689505562,96,-128,-9,-9,-12,-4,-10,24
1522235689505562,-61,75,11,4,-33,-14,-1,-41
1522235689507567,16,-54,-27,-1,14,3,-10,8
1522235689507567,14,30,42,3,-3,2,-6,10
1522235689528623,3,-43,-17,-10,-32,-49,-42,-27
1522235689528623,42,-21,-2,-1,-57,76,34,53
1522235689529626,-24,-26,-12,1,91,41,39,-14
1522235689529626,36,3,-14,-18,-68,-86,-23,29
1522235689541658,-2,37,20,40,99,-42,9,-52
1522235689541658,1,-44,-30,3,-19,-4,-54,-10
1522235689550682,-60,59,23,-2,14,14,-12,9
1522235689550682,52,13,-7,-14,-34,33,4,17
1522235689565722,12,-8,1,-10,-27,88,31,-1
1522235689565722,-36,-72,-31,12,38,-38,-8,-47
1522235689567727,102,74,20,-3,-14,-50,-8,47
1522235689567727,-8,25,29,27,46,27,0,-23
1522235689588783,35,-62,-18,-25,-57,-49,-52,4
1522235689588783,-119,-23,-22,-3,-38,-22,27,-12
1522235689589786,50,-43,17,5,8,33,23,-4
1522235689589786,127,69,-2,-29,5,66,53,38
1522235689612847,-128,-63,-7,22,52,26,5,-35
1522235689612847,127,85,13,7,43,3,-36,36
1522235689613850,69,20,1,-9,-101,-46,-38,-13
1522235689613850,-42,1,9,28,28,-35,52,28
1522235689625882,-78,-70,-2,-27,60,41,-32,-64
1522235689625882,86,45,-3,-14,-4,0,42,28
1522235689627887,-45,-27,-14,9,-13,-22,-32,-21
1522235689627887,31,34,5,-30,-44,20,-12,15
1522235689648943,37,61,10,14,-6,20,31,-6
1522235689648943,-68,-59,-38,-9,31,9,-2,30
1522235689649946,77,33,12,-3,9,-1,19,0
1522235689649946,-122,-44,-4,4,-1,-33,1,-28
1522235689661978,84,25,-2,-11,-46,-40,-13,31
1522235689661978,11,13,-13,-8,4,9,-19,0
1522235689671002,-87,-12,-14,5,23,17,4,0
1522235689671002,-60,-18,-2,-2,9,-13,-20,-17
1522235689686042,-45,37,6,7,-29,-7,15,42
1522235689686042,-54,-60,-22,-4,34,7,-6,-21
1522235689688047,-65,-63,-6,-9,-9,-26,-32,-4
1522235689688047,1,61,58,10,-12,5,-2,-29
1522235689708100,13,-27,-18,-8,-5,-23,-3,16
1522235689708100,21,23,5,0,-10,1,14,19
1522235689710106,-7,43,-1,-9,7,6,6,23
1522235689710106,-8,22,-9,12,12,-4,-13,-13
1522235689722137,61,-18,3,3,-13,-4,11,44
1522235689722137,-54,-66,4,3,3,-10,-14,-44
1522235689731162,-1,63,-16,0,-15,1,4,-10
1522235689731162,15,-74,8,18,47,4,-2,-23
1522235689745199,-13,111,5,-9,-56,9,-6,12
1522235689745199,26,38,10,-22,-55,9,9,4
1522235689752217,-4,-13,-10,6,34,0,24,12
1522235689752217,23,-34,-53,5,18,-28,-22,-5
1522235689768260,-18,-63,58,14,28,14,-1,-10
1522235689768260,10,-89,-33,-9,1,-17,-5,-22
1522235689770265,6,89,49,12,-27,-3,2,-3
1522235689770265,-27,4,-68,-16,-23,19,0,7
1522235689791322,-31,121,50,-5,-9,-13,32,-1
1522235689791322,38,-30,-1,3,-16,-5,-27,13
1522235689792324,-11,-86,-15,8,85,18,9,4
1522235689792324,-15,15,26,5,21,-9,1,-2
1522235689806361,-21,-128,-45,-3,-30,-18,-36,-14
1522235689806361,-40,108,17,12,57,52,61,17
1522235689807364,-38,-10,22,1,-35,-41,-24,-16
1522235689807364,3,-39,-26,1,-24,17,-11,6
1522235689828420,24,-69,-11,-15,-79,0,34,15
1522235689828420,-10,19,16,16,90,-68,-14,-17
1522235689830425,-42,-27,-14,-25,-67,30,-24,-1
1522235689830425,12,2,7,-8,1,38,11,0
1522235689850479,30,14,-12,4,9,-25,-27,-7
1522235689850479,29,-25,2,2,-22,-2,13,12
1522235689852484,31,-42,4,2,-8,3,18,-16
1522235689852484,25,17,26,-3,-22,-16,-13,17
1522235689864516,12,-40,-20,-5,19,23,10,-1
1522235689864516,8,77,28,8,-10,7,-12,-22
1522235689873540,-35,67,50,10,25,7,5,-13
1522235689873540,66,-23,7,9,-12,-8,2,17
1522235689888579,-8,1,-23,-3,27,-4,-3,-13
1522235689888579,43,-46,-9,-10,-29,-8,-4,20
1522235689889583,35,-2,-14,-3,13,6,11,3
1522235689889583,-5,-7,-10,2,-19,-14,-42,-39
1522235689910638,-21,50,1,-12,-37,22,74,0
1522235689910638,-60,-48,4,14,1,4,-13,10
1522235689912644,47,5,-2,12,75,4,3,-21
1522235689912644,-64,-6,-2,-4,12,12,0,25
1522235689925678,83,36,4,-2,-5,4,-12,-4
1522235689925678,8,-4,4,-32,-89,6,-18,2
1522235689931694,-75,7,3,38,-9,-29,-1,-1
1522235689931694,15,-32,-19,-18,3,-61,-9,-3
1522235689948740,-14,7,16,28,-3,36,-26,3
1522235689948740,111,0,-12,7,30,-10,7,-5
1522235689949743,-53,8,-17,-38,-38,-52,-61,32
1522235689949743,49,4,0,-14,-42,-25,0,-22
1522235689970798,-98,-17,0,4,-33,63,85,16
1522235689970798,82,-21,-4,47,98,70,-54,0
1522235689972804,41,25,27,6,-31,5,-7,-8
1522235689972804,-78,-27,2,0,-45,-37,-7,-25
1522235689984835,-20,11,6,-2,84,50,-18,4
1522235689984835,-88,26,-7,-5,-21,-16,38,-26
1522235689991854,28,-84,-19,-2,14,8,19,-2
1522235689991854,7,38,-2,-18,-19,33,10,23
1522235690008900,43,10,1,-3,-3,-60,-69,-31
1522235690008900,-37,-57,-3,-7,-19,-19,5,-6
1522235690009902,1,56,8,-2,-7,-23,-14,9
1522235690009902,-5,-15,5,7,41,13,45,5
1522235690030959,-85,-35,-30,-3,14,7,-24,-5
1522235690030959,-14,-34,-13,-7,-7,-8,6,4
1522235690032964,1,77,37,-13,-45,-5,-13,5
1522235690032964,-65,-8,21,24,26,12,21,5
1522235690044996,32,-23,-32,-14,21,-44,-17,-20
1522235690044996,-9,8,6,-12,-54,11,8,17
1522235690052014,-32,14,-34,11,44,44,29,-16
1522235690052014,-2,-63,-44,11,20,2,-14,4
1522235690068057,-25,93,79,8,26,-16,12,5
1522235690068057,-41,44,12,-8,-22,-22,-23,6
1522235690070062,47,-68,-36,-17,-19,18,23,5
1522235690070062,-22,-43,-8,0,-6,-8,-4,-21
1522235690091118,-4,-90,-40,-9,-34,-22,-16,6
1522235690091118,-6,11,25,5,17,10,12,-12
1522235690092121,8,66,29,-3,-6,2,13,9
1522235690092121,31,16,8,4,19,-1,-13,-8
1522235690105155,16,-9,45,11,-5,-1,6,20
1522235690105155,-65,32,-22,-26,-32,-6,3,-26
1522235690112174,35,-50,-15,-21,-34,-2,-12,6
1522235690112174,-12,-7,-16,12,5,-2,4,-14
1522235690128216,6,85,17,-1,-13,-33,-17,1
1522235690128216,7,-5,20,19,37,7,16,1
1522235690130222,-14,-83,-25,-16,-3,2,-5,5
1522235690130222,48,127,30,4,-49,3,-4,-13
1522235690151279,13,-90,-46,-37,-92,0,-10,-17
1522235690151279,2,10,-10,-1,4,0,5,12
1522235690152281,37,-39,-66,2,11,-2,9,19
1522235690152281,-65,49,83,22,35,-2,-12,-5
1522235690164312,-37,50,-39,11,32,3,9,3
1522235690164312,-6,29,7,-11,-14,-1,3,-9
1522235690173336,-8,-16,-1,-3,-49,3,-27,-4
1522235690173336,21,-34,-26,4,77,43,14,31
1522235690188376,32,13,-7,0,44,-34,19,0
1522235690188376,-35,-51,-6,19,13,21,-32,4
1522235690190382,-51,9,-1,3,24,-12,14,-3
1522235690190382,13,-42,-9,-9,-35,-16,2,8
1522235690210435,23,72,47,-5,-5,32,7,22
1522235690210435,56,-21,-30,-25,-49,-26,4,0
1522235690212441,-15,-37,-3,29,81,29,25,-5
1522235690212441,35,-40,-8,-16,-32,-11,-17,-10
1522235690225475,36,65,6,11,18,-3,2,1
1522235690225475,45,-19,-32,-6,-5,-2,8,4
1522235690232494,-58,-23,-3,-5,-16,-2,-19,-26
1522235690232494,43,47,-2,2,5,-4,8,14
1522235690248536,18,4,-31,-1,-1,-7,-10,-32
1522235690248536,34,-31,54,9,17,5,0,5
1522235690250542,-29,44,16,0,-14,-6,-7,7
1522235690250542,-32,-6,-14,-7,-39,-5,5,-5
1522235690270595,101,-50,-36,-20,2,46,30,16
1522235690270595,62,31,8,7,-96,-42,-36,8
1522235690272601,-62,-43,-6,9,105,77,-10,-43
1522235690272601,82,20,3,6,-13,-36,-9,10
1522235690284632,-45,-36,11,9,28,11,19,1
1522235690284632,33,28,3,1,-6,-51,-20,6
1522235690293656,86,-40,3,-33,-27,-18,-40,2
1522235690293656,-36,31,1,21,-20,17,23,5
1522235690308696,-89,-56,-12,-18,6,3,-74,-30
1522235690308696,-106,-6,19,28,17,-15,52,-44
1522235690309699,96,54,2,-3,-39,-41,13,10
1522235690309699,-11,-1,-20,-10,16,25,-19,13
1522235690330755,-28,-28,19,13,-82,-20,-11,18
1522235690330755,41,25,0,-4,115,55,20,2
1522235690332760,29,-17,-7,-7,-40,-56,-60,-22
1522235690332760,-26,-42,-4,-3,-2,36,61,-8
1522235690344792,79,65,7,-8,-16,-26,-79,11
1522235690344792,-3,-3,-11,-23,-30,44,-19,27
1522235690353816,-52,-12,22,44,36,-1,53,-14
1522235690353816,82,-60,-12,-6,31,-4,27,14
1522235690368856,34,23,13,10,-24,-5,4,-3
1522235690368856,77,-38,-37,-34,24,-21,-36,-19
1522235690369859,-31,95,51,-4,-24,46,-2,-11
1522235690369859,81,51,62,-6,-29,-16,-25,23
1522235690390916,-113,-45,-7,5,39,21,40,5
1522235690390916,-16,-53,-13,0,-22,-14,8,-8
1522235690392920,-21,-94,-54,-10,-38,-5,9,11
1522235690392920,-72,85,48,13,28,-12,-4,-13
1522235690404952,86,24,-35,-11,-18,-4,-2,8
1522235690404952,-86,76,57,21,35,15,16,1
1522235690413976,20,-61,-5,-2,3,5,15,18
1522235690413976,-62,39,0,-19,-22,-17,-30,-14
1522235690428013,23,7,-18,7,12,-24,12,15
1522235690428013,-5,6,-15,-5,-17,40,41,19
1522235690430019,-65,-45,16,12,38,-27,-23,-20
1522235690430019,0,-31,-4,-10,-25,10,-2,2
1522235690451075,-35,-23,-14,-13,-21,-14,1,-36
1522235690451075,26,6,4,7,25,-8,8,41
1522235690452077,6,64,13,2,-9,0,6,18
1522235690452077,24,-58,-52,-5,-43,-8,-26,0
1522235690464109,14,60,-17,7,66,23,10,-1
1522235690464109,-33,-52,38,-8,-67,-7,-10,-22
1522235690473133,51,49,-19,-4,10,-11,18,25
1522235690473133,3,-89,-72,-4,11,8,-9,-42
1522235690488173,5,-9,38,1,-34,-16,13,15
1522235690488173,-55,70,25,1,29,16,-4,-4
1522235690490179,20,100,18,-9,-40,2,-1,-4
1522235690490179,-16,-109,-9,4,59,-12,35,2
1522235690511235,10,29,42,5,-24,18,-26,13
1522235690511235,-21,-117,-45,5,56,0,5,-24
1522235690512238,-14,88,53,3,-26,-2,-22,-9
1522235690512238,-68,2,12,3,7,-1,-6,24
1522235690524269,-38,-46,-37,-2,10,-4,9,-11
1522235690524269,15,91,26,-2,-25,-14,-1,17
1522235690533293,-8,-23,-25,-6,-12,1,3,-21
1522235690533293,-19,23,0,0,3,3,-6,-4
1522235690547330,8,-17,8,9,14,-17,9,-11
1522235690547330,-24,-22,-23,-5,-29,-13,-21,-3
1522235690554349,-2,-31,2,4,26,10,30,-1
1522235690554349,29,49,5,-6,-7,6,-17,-10
1522235690571394,-15,-38,3,-6,1,13,22,-3
1522235690571394,63,9,-19,-3,2,0,-13,-5
1522235690572397,42,-57,-15,7,1,-2,15,17
1522235690572397,-9,29,2,0,-6,0,11,-33
1522235690584429,-22,2,-31,-9,-5,-10,-21,-3
1522235690584429,55,5,39,17,12,4,7,5
1522235690593454,-31,-28,-20,-3,-5,-11,-15,-7
1522235690593454,42,11,-4,-4,-3,10,4,16
1522235690607490,-27,-16,3,-7,-10,4,7,-22
1522235690607490,66,16,-9,-5,-23,-37,-12,1
1522235690614509,-45,-10,-4,-5,8,56,28,-7
1522235690614509,-2,-43,-15,-8,-28,-40,-73,-3
1522235690630552,20,20,18,32,73,22,40,13
1522235690630552,-78,-41,-17,-4,-47,1,33,-3
1522235690632557,73,23,-7,3,60,0,-12,1
1522235690632557,2,10,-3,-9,-2,94,49,4
1522235690644589,18,13,18,-25,-47,-82,-33,7
1522235690644589,116,32,-7,-4,9,3,18,42
1522235690653613,-108,-6,1,8,-12,5,-20,-67
1522235690653613,17,13,2,10,-13,-22,-2,12
1522235690668653,16,-40,6,-7,36,4,14,8
1522235690668653,3,1,-15,11,15,13,0,-34
1522235690669656,109,105,13,5,-38,-14,-14,47
1522235690669656,55,7,-4,-19,13,-84,-38,25
1522235690690712,-94,-56,-4,4,-13,42,22,-46
1522235690690712,69,53,12,3,33,10,30,26
1522235690692717,-78,-103,13,-34,-74,-13,-19,12
1522235690692717,78,99,-25,30,18,74,23,-40
1522235690714776,127,-38,-6,5,42,-15,13,17
1522235690714776,-61,55,14,-8,-47,-23,4,-5
1522235690716781,-25,-11,-4,0,16,13,-37,19
1522235690716781,57,-41,9,13,42,23,-2,-1
1522235690728813,-19,-10,-15,-10,-21,1,-20,-15
1522235690728813,-13,-2,5,15,15,-10,0,7
1522235690729816,67,25,-23,-30,-56,-36,-10,-12
1522235690729816,-113,-69,-28,-9,-15,-8,-24,-24
1522235690750872,-3,60,18,16,19,15,-21,-6
1522235690750872,-87,-55,10,-10,-18,-12,-7,2
1522235690752877,-37,-47,6,14,-1,-17,9,7
1522235690752877,-5,30,5,9,48,22,33,7
1522235690772930,29,0,-18,-5,-27,-9,-15,14
1522235690772930,-53,-76,-15,-3,3,12,-23,-2
1522235690774935,19,13,4,6,6,1,21,14
1522235690774935,20,20,-54,-6,-12,-29,0,-2
1522235690787970,-80,-52,56,21,70,25,-4,9
1522235690787970,-27,0,-13,-15,-49,5,-7,5
1522235690794989,37,7,9,5,45,-8,4,0
1522235690794989,-66,-20,20,4,12,-14,22,1
1522235690811031,-30,-11,-48,-16,-74,-29,-10,-2
1522235690811031,-10,9,-4,-3,58,26,-10,-21
1522235690813037,-14,61,36,14,-33,-3,19,4
1522235690813037,-20,47,10,-27,-70,-7,-4,-5
1522235690833090,27,-10,22,7,45,1,-3,8
1522235690833090,-25,-66,-45,-3,42,-15,-13,-7
1522235690835096,16,3,-22,1,-37,0,-6,-17
1522235690835096,-1,21,52,6,17,-4,0,11
1522235690847127,3,-1,-23,-8,-21,17,7,7
1522235690847127,35,-44,-30,-19,-60,-18,-17,-12
1522235690856151,2,74,11,-3,23,13,16,15
1522235690856151,-11,-24,17,3,-5,-7,-34,-20
1522235690871192,-20,1,-34,-7,-39,-17,0,-2
1522235690871192,-5,14,30,16,86,14,2,1
1522235690872194,34,-41,-26,16,9,5,4,0
1522235690872194,-101,-48,16,-17,-38,-14,10,10
1522235690893250,-19,43,3,0,-18,6,19,7
1522235690893250,-24,24,-5,12,-15,-29,-37,-17
1522235690895255,-31,-47,3,2,92,16,-4,-2
1522235690895255,39,-22,-8,-4,25,-4,1,8
1522235690907287,36,22,24,6,-25,-6,-7,-7
1522235690907287,-82,-43,-6,-1,-8,20,32,-4
1522235690914306,-40,-36,9,-1,-5,-2,-4,-21
1522235690914306,78,-8,2,6,4,2,-2,19
1522235690931351,28,15,19,-2,7,-10,-9,-26
1522235690931351,31,8,-7,-5,-18,2,-4,27
1522235690932354,-46,-6,-50,-11,-3,-9,-10,-33
1522235690932354,61,7,17,-1,-68,-13,-17,-24
1522235690953410,-62,-7,13,3,58,23,68,10
1522235690953410,-22,-15,-17,-6,12,-5,-10,-4
1522235690955415,35,-20,9,18,-15,10,26,13
1522235690955415,-63,34,-10,-12,-38,-61,-62,-22
1522235690967447,121,-17,-12,4,3,20,15,7
1522235690967447,98,18,4,-8,33,16,18,2
1522235690974465,-60,-12,5,-12,-62,-74,-17,2
1522235690974465,76,14,4,6,71,52,50,24
1522235690990508,-24,-12,-2,35,24,10,25,-44
1522235690990508,-22,45,6,-20,-28,-31,-34,41
1522235690992514,120,14,14,3,-67,-11,-57,11
1522235690992514,-102,-107,-38,-27,64,36,59,22
1522235691013570,64,100,18,-9,-15,-39,-12,8
1522235691013570,-35,-8,8,27,-6,103,22,-41
1522235691015575,22,-5,-2,-24,9,-7,-36,6
1522235691015575,99,11,-6,20,7,-6,-21,18
1522235691026604,-47,-42,-4,-7,-14,30,-15,26
1522235691026604,35,-1,15,5,4,-50,26,-22
1522235691035628,-43,5,-1,0,12,19,27,-5
1522235691035628,24,2,-4,20,14,-7,-36,9
1522235691050668,76,-27,-20,-27,-50,16,0,14
1522235691050668,127,118,23,-15,-37,-79,-64,-1
1522235691052673,-4,-53,-1,3,43,-23,-19,-13
1522235691052673,-17,-65,-43,-16,-16,20,31,3
1522235691073729,-38,96,63,26,11,-31,-35,-8
1522235691073729,9,-39,-2,-2,-10,29,1,4
1522235691074732,-55,-14,-10,3,25,3,26,-18
1522235691074732,61,-1,-8,-12,-74,4,13,-6
1522235691087766,-68,-89,-26,-9,26,-13,-22,4
1522235691087766,-51,26,29,0,22,25,22,2
1522235691094785,-20,-5,-26,0,-19,17,9,19
1522235691094785,-74,51,51,7,2,-9,-1,-10
1522235691110829,-25,-21,3,-3,6,-8,-8,16
1522235691110829,-39,-31,-9,13,3,2,7,-14
1522235691112834,21,-84,-45,-13,3,6,8,-1
1522235691112834,8,77,26,4,-1,-15,-18,19
1522235691133889,-15,54,0,-11,-10,5,8,-5
1522235691133889,-9,-96,-27,-3,15,-13,6,10
1522235691134892,9,91,25,7,5,17,9,5
1522235691134892,-32,-104,-29,-16,-64,1,12,-24
1522235691146924,-11,17,24,24,75,14,-10,-14
1522235691146924,11,-35,-55,-33,-59,-9,-3,0
1522235691155948,22,48,12,10,92,10,11,-3
1522235691155948,-32,-57,10,11,-7,0,7,-2
1522235691170988,-3,53,43,-21,-46,-10,-13,-4
1522235691170988,-3,-113,-35,20,69,2,0,-5
1522235691172993,-6,101,49,-18,-90,2,6,-8
1522235691172993,19,-15,-32,-10,28,-1,-2,-6
1522235691193046,11,-36,-15,0,-36,-20,6,32
1522235691193046,-24,5,-1,6,41,10,-8,-54
1522235691195052,43,31,13,7,-63,7,-3,8
1522235691195052,62,-28,-17,19,106,34,9,26
1522235691207084,-44,42,4,-13,-37,-12,-7,-2
1522235691207084,-102,37,20,-4,-17,-12,-13,-26
1522235691216108,-18,29,-13,-6,11,-5,9,1
1522235691216108,-67,32,13,34,-38,-49,14,-30
1522235691231148,48,-69,-44,-6,34,29,-30,1
1522235691231148,37,82,14,-1,12,16,24,21
1522235691232153,-19,-40,3,0,-28,3,12,14
1522235691232153,-5,62,13,-10,32,21,-12,-21
1522235691253206,34,-41,-25,0,-11,-16,5,-8
1522235691253206,22,-9,-11,5,-26,-5,-6,19
1522235691255212,36,28,43,1,11,9,-4,-13
1522235691255212,31,16,-39,-8,3,-10,-18,6
1522235691267244,-97,8,11,4,-4,-5,4,-18
1522235691267244,126,21,-18,-9,-12,11,2,42
1522235691276268,6,-11,11,10,17,-6,11,-6
1522235691276268,-17,19,-8,-15,-27,-7,7,6
1522235691291307,58,-21,-23,-7,-6,-12,-32,-1
1522235691291307,-32,15,24,-11,-6,-28,31,3
1522235691292310,6,-25,-13,20,52,12,16,26
1522235691292310,-4,9,18,16,37,28,-26,3
1522235691313366,16,4,-11,-6,-44,-23,3,3
1522235691313366,32,-1,18,14,3,25,-9,-2
1522235691315372,-59,-25,-22,-18,-43,-42,-11,-11
1522235691315372,0,-27,9,-32,20,-53,-47,-20
1522235691327404,84,6,1,24,9,-40,-1,-3
1522235691327404,97,31,5,-16,-40,12,-34,23
1522235691336428,9,-68,-21,28,2,-29,25,-31
1522235691336428,-17,29,16,5,3,20,2,3
1522235691351468,5,-21,-11,-10,25,18,52,-7
1522235691351468,18,-23,10,-3,-11,-36,-14,-30
1522235691352471,49,-1,-15,-5,15,-5,-35,-13
1522235691352471,-29,-6,19,4,-60,75,-1,-6
1522235691373526,-11,-18,-27,-7,44,36,42,-17
1522235691373526,-35,-5,10,-14,-33,12,0,47
1522235691375532,61,-25,-3,-1,-21,-31,12,-1
1522235691375532,-63,32,-14,-5,-55,40,-17,-10
1522235691387563,2,6,-8,-5,81,49,-14,-9
1522235691387563,16,-25,8,14,1,16,11,-2
1522235691395585,51,3,-7,-21,-17,3,-1,2
1522235691395585,-9,-14,-5,1,36,-22,42,7
1522235691411627,57,35,28,-13,-83,1,-8,15
1522235691411627,-16,-8,-4,18,45,4,9,-20
1522235691413633,-37,0,-9,-4,5,11,6,25
1522235691413633,90,-33,-14,-6,-1,-24,-5,-6
1522235691433686,-88,86,19,-8,-28,2,-6,-5
1522235691433686,-12,-8,1,5,22,-12,-15,-12
1522235691434689,-116,-21,-1,-10,-7,32,-10,1
1522235691434689,5,44,31,4,-2,-9,6,24
1522235691446721,-46,-68,-21,6,20,-7,-6,18
1522235691446721,-38,24,13,-6,-37,-8,-8,-12
1522235691455744,20,-16,-22,6,66,23,-1,-5
1522235691455744,-30,-25,-13,-14,14,-28,5,-7
1522235691470786,-17,-8,24,8,-3,-18,-8,7
1522235691470786,-7,38,5,-8,-6,-4,0,-9
1522235691472790,14,-26,-5,5,21,7,0,-7
1522235691472790,34,1,1,4,0,-9,-4,11
1522235691493846,-12,-128,-8,-14,-29,-3,8,7
1522235691493846,-31,35,11,-1,-11,-6,0,-3
1522235691494849,-4,96,-2,-14,-58,0,-8,-6
1522235691494849,9,-26,42,20,55,8,-2,-5
1522235691506881,42,8,-42,12,6,15,-13,-23
1522235691506881,18,42,26,7,29,-5,8,0
1522235691515904,-36,-66,7,-17,-54,-2,-8,31
1522235691515904,-70,21,11,-20,-76,-2,12,-24
1522235691529942,3,-83,-20,3,85,-27,-7,-5
1522235691529942,2,26,-40,9,31,-38,-27,5
1522235691536961,51,55,47,23,-24,9,4,16
1522235691536961,-58,-20,-3,-7,11,2,6,-8
1522235691553003,-21,65,26,-7,-40,21,6,-3
1522235691553003,-19,-69,-79,-26,-30,3,29,21
1522235691555008,8,35,15,44,127,-10,-17,-22
1522235691555008,15,29,18,-19,-99,-18,14,11
1522235691567040,39,1,-36,-23,-76,-14,-40,-17
1522235691567040,-39,18,4,-4,1,7,13,19
1522235691576064,-42,-13,28,-1,-11,8,-11,4
1522235691576064,44,-46,28,20,28,-12,3,-9
1522235691591108,-21,-25,-2,-5,2,6,2,-15
1522235691591108,-11,25,7,-4,-24,14,24,12
1522235691593110,13,-41,-21,-8,16,1,-20,-23
1522235691593110,47,-37,-69,-1,32,-9,-17,-8
1522235691613163,-42,-3,54,23,-4,-30,-7,11
1522235691613163,75,-48,-64,-21,-12,6,6,-16
1522235691615168,2,109,75,-3,-21,16,22,8
1522235691615168,19,-12,-28,-5,-6,-7,-14,21
1522235691636224,3,-34,-32,-9,-17,-1,4,7
1522235691636224,102,18,27,20,30,-13,-6,-3
1522235691637227,-42,-63,-51,-3,-11,-1,0,-22
1522235691637227,2,-16,-17,-9,-6,11,-11,2
1522235691651264,3,48,19,-7,-19,-5,7,5
1522235691651264,-69,-33,17,-2,5,6,2,-28
1522235691652267,59,-23,-7,6,16,20,-14,23
1522235691652267,-19,-1,2,20,49,-3,14,4
1522235691673323,16,46,-2,-25,-100,-23,-11,-14
1522235691673323,-29,-25,6,9,66,45,12,-13
1522235691675328,2,-15,-12,-21,77,-2,-7,-26
1522235691675328,127,29,2,15,7,5,33,13
1522235691696384,-80,-5,-2,17,13,-11,-23,-13
1522235691696384,32,39,24,-29,-92,-9,0,10
1522235691697387,-2,-29,-21,34,-15,-29,-4,15
1522235691697387,-54,-21,9,-9,47,-33,-19,-12
1522235691711425,99,18,-11,-14,0,-16,19,5
1522235691711425,-40,-24,-7,-13,-28,-17,7,1
1522235691712427,13,41,7,15,-42,-43,-64,-8
1522235691712427,-97,-54,-2,4,0,98,62,-31
1522235691733482,67,30,4,-2,11,-5,1,16
1522235691733482,108,-4,5,-13,-96,-31,11,-30
1522235691735488,33,-4,-10,14,84,38,42,32
1522235691735488,-1,43,9,2,-4,33,24,4
1522235691755541,5,-54,11,32,44,-79,-18,-39
1522235691755541,68,10,-7,8,-14,1,66,41
1522235691757547,11,11,-2,-20,-24,-18,0,-2
1522235691757547,94,-54,-9,-7,-18,-45,-15,15
1522235691770581,22,105,26,-4,-6,34,42,29
1522235691770581,-99,-10,12,6,23,12,-57,1
1522235691776598,-43,-33,-51,-10,-13,-1,-2,-18
1522235691776598,-66,45,38,7,-21,-33,-29,18
1522235691793643,-37,-22,-6,7,30,62,12,0
1522235691793643,-25,-91,-31,7,0,-4,-17,-6
1522235691794646,-55,69,49,-3,22,6,8,-17
1522235691794646,4,10,-19,-5,-10,-7,-23,-11
1522235691815701,-81,-25,-5,-9,-4,19,7,18
1522235691815701,24,35,-2,9,32,3,-14,10
1522235691817707,23,-48,-15,1,-36,-12,10,11
1522235691817707,2,14,-6,-24,-14,-10,-2,11
1522235691830741,-24,-12,-1,19,12,10,-10,-7
1522235691830741,-38,-43,1,-9,52,5,-12,5
1522235691836757,10,45,-23,-2,-32,-10,-1,-9
1522235691836757,-29,55,41,9,-4,-12,-4,1
1522235691853803,17,-15,-18,-8,-15,-3,-9,7
1522235691853803,-21,6,5,5,-3,-2,-18,-16
1522235691854805,31,-29,-10,-8,-9,13,12,9
1522235691854805,-1,-13,-28,-4,-5,-13,-12,-10
1522235691875861,27,-16,-1,-6,6,1,-4,-5
1522235691875861,-21,32,-9,0,-4,-1,-2,-7
1522235691877868,-14,-60,-15,-9,-20,0,2,-14
1522235691877868,3,59,16,-2,12,-7,-11,-19
1522235691889898,51,-39,-31,-4,-16,-6,-1,34
1522235691889898,-67,32,36,7,-21,-4,-1,-3
1522235691896917,9,-29,-19,-9,29,12,-8,-10
1522235691896917,8,17,-1,10,18,-9,-11,-10
1522235691913962,18,-52,-40,-18,-82,0,-6,9
1522235691913962,-4,37,25,17,-12,-23,-12,-15
1522235691914965,25,-74,-20,-5,48,10,23,14
1522235691914965,34,7,-43,-8,-4,-12,-10,12
1522235691936021,-41,-59,28,-4,-87,-32,-8,-26
1522235691936021,0,27,13,-5,84,40,4,15
1522235691938026,-13,92,3,7,-33,4,0,-6
1522235691938026,16,-119,-36,-13,-16,-8,-3,9
1522235691950058,-18,12,15,8,106,10,-5,-21
1522235691950058,-1,43,9,-9,-56,-11,-8,-11
1522235691957077,18,-47,-18,-10,-40,-1,16,19
1522235691957077,10,35,11,0,-50,4,-6,5
1522235691973119,8,25,2,-4,33,6,16,1
1522235691973119,1,-108,16,17,39,2,4,-9
1522235691975125,-9,-40,-82,-38,-76,-32,-50,-18
1522235691975125,-44,99,102,44,79,20,10,-17
1522235691996181,-45,-63,-51,-18,-77,-32,18,10
1522235691996181,89,-74,-21,10,106,69,-6,18
1522235691997184,-104,11,-50,-33,-66,-41,-6,-12
1522235691997184,0,55,23,21,28,2,1,-3
1522235692010218,48,49,-13,23,88,9,-30,6
1522235692010218,88,82,42,-8,-82,-8,44,41
1522235692017237,-67,-35,9,-12,-64,1,3,-41
1522235692017237,58,-57,-115,-22,37,19,-11,9
1522235692033280,-36,81,69,16,28,-24,13,-10
1522235692033280,5,21,-74,-14,-59,-40,-12,2
1522235692039295,23,42,78,22,63,39,0,1
1522235692039295,-22,-56,-39,-19,-104,-13,34,6
1522235692056341,34,-11,13,6,120,25,-44,13
1522235692056341,-25,-31,-36,-3,-41,-22,-9,-13
1522235692057344,6,50,12,18,52,7,6,8
1522235692057344,44,-4,33,-1,12,7,9,19
1522235692070378,33,-14,-29,-27,-88,5,1,-9
1522235692070378,20,31,19,-17,-17,-10,-7,-5
1522235692077397,50,-23,17,18,19,-5,6,6
1522235692077397,7,-32,-11,-9,-72,-5,-11,7
1522235692093440,24,0,-18,8,96,15,12,-12
1522235692093440,-97,-2,27,4,-29,2,-10,-14
1522235692095445,71,-10,12,27,37,39,17,1
1522235692095445,-38,11,3,-17,-23,-15,-16,-20
1522235692115498,-23,18,15,3,-20,5,31,5
1522235692115498,-23,-37,-22,-20,-14,12,0,-20
1522235692117504,-25,-66,6,16,83,24,37,18
1522235692117504,31,85,33,8,-9,-12,-36,-40
1522235692129535,10,2,-6,4,-33,-1,-10,8
1522235692129535,-24,8,-25,18,34,-19,-26,-15
1522235692138559,-55,-39,26,-16,-75,-3,-3,11
1522235692138559,77,10,51,9,60,-14,30,24
1522235692153599,-89,-39,-19,-3,1,-11,-3,-41
1522235692153599,95,28,-16,-34,-36,-3,-1,21
1522235692154602,-15,-38,9,15,21,9,-13,-7
1522235692154602,-11,-20,-31,18,-37,-16,51,-13
1522235692175658,34,20,5,-17,-4,-5,-67,4
1522235692175658,20,-1,22,-4,-21,-34,23,39
1522235692177663,-18,-18,2,-8,5,7,-101,-38
1522235692177663,-5,-18,-25,7,68,91,57,-9
1522235692189695,-83,-32,14,15,-29,-7,14,13
1522235692189695,97,42,-13,-8,16,5,0,-23
1522235692198719,93,48,9,5,-45,-67,-2,13
1522235692198719,-8,-92,-51,-17,-15,8,-54,-43
1522235692213759,88,112,59,-1,-12,1,12,14
1522235692213759,-128,-52,20,26,33,24,9,12
1522235692214762,-2,11,-11,-25,-11,-8,17,-34
1522235692214762,52,-42,-13,-1,5,-35,-14,16
1522235692235818,79,38,-25,3,-8,3,19,4
1522235692235818,-26,2,16,8,2,-12,-19,-4
1522235692237823,-14,45,20,12,13,11,32,20
1522235692237823,-102,-66,-43,-19,-18,-21,-27,-13
1522235692249855,9,30,17,-5,5,26,-7,16
1522235692249855,-57,15,-1,15,16,5,10,-3
1522235692258879,-17,15,-13,-4,7,-6,8,6
1522235692258879,-40,79,-8,0,0,3,-8,10
1522235692273919,-37,6,14,-7,0,-7,11,-4
1522235692273919,-33,-78,-26,-11,-73,-13,-7,-9
1522235692274922,22,14,5,19,52,21,8,10
1522235692274922,-39,-7,-8,-23,-55,-17,-16,7
1522235692295978,-24,41,6,8,3,14,11,-18
1522235692295978,17,-72,-50,-14,-6,-16,-6,-4
1522235692297983,37,39,10,-9,-38,-6,2,10
1522235692297983,14,27,23,12,35,0,14,18
1522235692310015,-16,-20,-42,-10,-3,-8,-22,-11
1522235692310015,10,-8,3,12,12,3,-1,-7
1522235692319039,4,-47,-30,-18,-56,4,14,19
1522235692319039,-41,16,45,4,23,15,-4,-13
1522235692333076,46,-43,-29,1,-9,-6,17,12
1522235692333076,14,-7,-2,5,44,-5,-7,19
1522235692335082,-25,22,26,-8,-8,-18,-18,-11
1522235692335082,11,39,-11,10,4,15,-3,2
1522235692356137,-9,7,12,-30,-74,-12,9,-8
1522235692356137,-10,-57,-30,0,62,16,-7,-17
1522235692357140,-10,-35,-35,-5,-30,-28,12,-11
1522235692357140,5,100,21,1,-12,-12,-24,25
1522235692369172,-61,-54,-8,19,34,1,2,-17
1522235692369172,10,94,23,-12,-15,19,15,22
1522235692378196,-39,-23,4,-12,-6,13,-3,-23
1522235692378196,55,-16,-28,-12,-35,-19,2,19
1522235692393236,-66,-5,-7,-8,20,2,-7,-8
1522235692393236,-54,-5,28,27,-3,-23,-14,-10
1522235692395242,-48,-6,-17,8,-35,-12,-3,-5
1522235692395242,9,-7,-17,5,77,38,15,20
1522235692416297,14,-28,17,-11,-35,-7,-5,-11
1522235692416297,41,-44,-24,2,4,3,-7,-29
1522235692417300,53,31,20,2,9,1,3,11
1522235692417300,22,-22,3,-15,-56,-24,0,11
1522235692429332,-2,71,-4,6,1,6,-8,-5
1522235692429332,48,5,23,1,14,8,5,13
1522235692438356,58,-3,-12,8,4,8,9,13
1522235692438356,-16,-39,12,-6,-10,-11,-8,-26
1522235692453396,48,39,25,8,3,5,5,28
1522235692453396,-3,1,-2,-8,-14,-11,-1,-26
1522235692455401,32,-15,11,17,57,5,0,8
1522235692455401,8,-11,8,-21,-45,-14,-1,-2
1522235692476457,61,3,-6,-1,-96,2,11,19
1522235692476457,-39,-9,-3,20,39,-24,-11,3
1522235692477460,27,40,12,-2,35,11,-51,-17
1522235692477460,-20,-93,-17,9,83,9,30,-7
1522235692489492,41,-20,6,-2,-7,4,2,-11
1522235692489492,26,46,21,-12,-54,-4,9,3
1522235692498516,-60,10,-7,6,-27,10,2,-14
1522235692498516,-57,-40,-7,-24,-39,-22,-7,-29
1522235692513556,69,-48,-17,-10,14,5,-25,16
1522235692513556,15,70,8,27,59,-9,-11,-7
1522235692515561,-12,5,18,5,43,7,15,-4
1522235692515561,30,28,8,-16,-20,14,-16,-11
1522235692535615,-126,-53,-15,14,9,23,28,-20
1522235692535615,85,33,-5,-20,-69,-8,-32,-2
1522235692537620,-40,-16,-5,-9,16,11,5,22
1522235692537620,-18,18,16,33,-36,-8,16,9
1522235692549651,36,2,-16,-7,119,3,-8,-9
1522235692549651,32,-17,1,5,-53,10,4,7
1522235692558676,56,-22,3,-5,-2,15,17,10
1522235692558676,-52,-55,2,-7,-2,-37,-30,-17
1522235692573716,98,37,-11,-22,-30,-12,-5,1
1522235692573716,53,0,-10,17,20,11,17,-3
1522235692574719,98,33,1,-8,13,10,8,6
1522235692574719,54,17,10,-4,6,25,8,4
1522235692595774,-5,-66,-5,-3,-32,-13,-6,-1
1522235692595774,-16,6,4,-32,-22,-6,4,-1
1522235692597780,53,-17,1,18,40,11,-2,6
1522235692597780,3,18,-9,3,13,9,-6,6
1522235692618835,-55,-80,-19,-5,10,-10,-6,-2
1522235692618835,-46,62,19,-16,-17,0,7,23
1522235692619838,-64,38,30,7,-15,-13,4,8
1522235692619838,-97,-19,-6,1,0,-6,-7,-6
1522235692632873,-11,-5,-5,2,2,-3,1,-3
1522235692632873,-72,35,12,5,12,10,4,6
1522235692639892,-70,-46,-28,-7,-25,-13,-4,-2
1522235692639892,23,74,29,6,18,3,0,-12
1522235692655934,-16,3,2,5,4,5,7,17
1522235692655934,-40,20,10,9,23,15,6,-7
1522235692657940,-17,-18,-12,-10,-14,-2,6,3
1522235692657940,17,-8,-39,-19,-23,0,-7,-6
1522235692677993,-1,77,13,22,13,-4,-6,-1
1522235692677993,45,-61,1,0,-50,-3,3,5
1522235692679998,11,10,-10,-10,39,-5,2,-1
1522235692679998,20,0,-10,20,22,2,-1,3
1522235692693033,-4,59,14,4,-23,0,-4,-6
1522235692693033,-10,-35,-5,0,18,-5,-1,-4
1522235692695038,7,-66,-36,-5,-27,3,6,5
1522235692695038,-1,66,25,-3,-16,-15,-12,-1
1522235692716094,11,-85,-17,-5,46,-1,0,6
1522235692716094,-30,50,-8,0,7,4,-5,-14
1522235692717097,-37,-7,20,8,-33,-4,-5,-13
1522235692717097,29,25,-10,7,-26,-5,15,21
1522235692738152,-26,50,41,-7,-36,11,-6,-20
1522235692738152,-1,-72,-26,-19,-14,-15,-10,11
1522235692740158,17,6,-7,6,-21,-17,-9,-9
1522235692740158,10,-38,-19,6,72,5,-1,15
1522235692753193,-10,78,45,4,-30,-11,3,5
1522235692753193,7,-84,-2,8,35,21,13,1
1522235692759209,-25,45,12,-8,-28,-1,-13,-15
1522235692759209,22,-36,-4,1,13,-6,-10,-4
1522235692776254,-7,53,-10,-3,0,3,0,13
1522235692776254,-3,-54,-20,2,11,-2,-6,2
1522235692777257,-18,25,12,1,0,-5,6,-4
1522235692777257,-87,-83,-13,-6,-24,4,2,-11
1522235692798313,-1,-32,-13,10,41,-1,0,13
1522235692798313,7,52,-12,-4,-24,0,1,-36
1522235692800318,-28,11,-35,-6,-1,-15,-1,8
1522235692800318,22,-55,38,7,1,27,-4,11
1522235692812350,25,17,31,1,1,0,-4,12
1522235692812350,35,-14,-13,-4,-1,5,8,-1
1522235692819368,-13,-1,-4,2,13,-6,-7,-5
1522235692819368,4,18,-3,5,-2,-5,1,-12
1522235692836414,-3,-72,-25,8,0,-5,6,-2
1522235692836414,-28,18,13,0,17,-1,2,5
1522235692837417,-23,-22,1,-3,-16,-4,10,3
1522235692837417,-8,22,6,-20,-24,-5,-1,6
1522235692858472,21,-23,-16,-22,-30,4,-4,3
1522235692858472,4,16,0,20,51,0,-9,-4
1522235692860478,-2,-25,4,-11,15,3,-8,-12
1522235692860478,50,15,-2,-20,-87,-3,20,-1
1522235692872510,53,3,-5,23,107,10,-14,-1
1522235692872510,-3,-11,9,-21,-38,-14,-8,-12
1522235692879528,48,-9,2,13,2,-2,-1,5
1522235692879528,0,13,9,-5,50,9,-16,5
1522235692895571,-68,-1,0,-1,-19,2,21,9
1522235692895571,8,-3,-9,-5,-15,-3,-11,7
1522235692897577,23,-11,2,-9,-16,-12,14,13
1522235692897577,-29,8,-11,29,23,-15,4,19
1522235692918632,64,0,-8,-29,-36,33,14,-17
1522235692918632,-42,-14,8,-5,-34,-3,-8,6
1522235692919635,-12,27,-6,-3,50,1,-21,-33
1522235692919635,-73,-44,11,39,47,-42,-4,2
1522235692932670,76,-15,-16,-2,-21,-7,17,9
1522235692932670,-46,25,0,-30,-56,11,17,-3
1522235692939688,14,-10,8,-11,-2,-12,-30,-8
1522235692939688,4,-14,-11,-7,-12,10,-1,12
1522235692955731,-99,5,9,-15,5,-39,-23,-18
1522235692955731,91,-32,-1,39,30,17,-2,11
1522235692957737,33,24,-16,4,-7,22,21,64
1522235692957737,17,-21,4,-14,-1,19,-3,-35
1522235692978792,35,5,10,2,-19,-19,-11,-5
1522235692978792,-65,14,7,-1,9,4,22,11
1522235692979795,24,7,-4,-1,-12,-10,-4,-7
1522235692979795,-12,66,-4,-1,1,-5,-3,-3
1522235692992830,54,3,-1,-5,-21,15,9,11
1522235692992830,-36,-49,-9,11,30,2,-2,-18
1522235692999848,-43,26,12,-7,-12,-5,-6,-22
1522235692999848,40,-22,-18,-15,-33,2,-10,5
1522235693015891,-54,25,-18,3,-14,-5,-4,0
1522235693015891,-4,-25,4,-6,20,6,-2,-3
1522235693017896,-58,-28,4,34,21,3,-4,-6
1522235693017896,12,-75,-18,-9,30,-3,9,3
1522235693038952,-6,73,-5,-13,-7,-7,-1,4
1522235693038952,-15,-89,23,8,0,-7,-1,3
1522235693039955,29,67,7,-10,-28,5,11,7
1522235693039955,13,10,16,4,7,4,-5,-13
1522235693052989,-12,57,-7,-2,-14,1,-3,-5
1522235693052989,19,-10,-25,-18,-8,-8,-13,-2
1522235693060008,19,0,29,4,-20,-5,2,9
1522235693060008,28,10,-1,-1,12,-3,-8,1
1522235693077053,-46,59,5,16,33,6,-4,-26
1522235693077053,5,-44,2,-1,-84,2,2,-6
1522235693079059,9,-13,-7,-12,43,11,5,-1
1522235693079059,22,-19,-18,10,12,-39,-15,5
1522235693098109,25,-20,-24,8,7,24,7,4
1522235693098109,1,41,29,1,8,6,3,-3
1522235693100115,-36,-56,0,-19,-29,-6,-5,-16
1522235693100115,7,-2,6,2,4,-2,2,7
1522235693112147,19,15,14,13,-20,-17,-9,12
1522235693112147,14,-66,-38,-3,-1,-11,13,-8
1522235693121171,13,43,-54,-13,-43,-7,-14,-16
1522235693121171,-21,108,74,-8,-18,35,2,-3
1522235693136210,19,-128,-41,5,17,-35,-14,12
1522235693136210,28,127,41,7,22,9,8,5
1522235693137213,-27,-86,-19,-4,-1,1,4,-14
1522235693137213,-13,-34,-36,-18,-50,23,7,3
1522235693158269,-12,-58,-6,-20,-23,5,6,-1
1522235693158269,6,5,-23,3,67,3,-31,5
1522235693160275,-38,22,12,34,34,-10,12,0
1522235693160275,-7,51,7,-8,-64,-19,-9,-3
1522235693172306,-51,-75,-9,-7,32,10,0,-15
1522235693172306,-38,-34,-11,-11,-41,-17,2,-8
1522235693181331,52,55,18,4,7,2,8,20
1522235693181331,10,21,-14,-6,-5,-9,-15,-15
1522235693196370,2,-20,32,2,-16,3,12,0
1522235693196370,6,-3,8,0,19,0,-15,-2
1522235693197373,76,-21,-22,-2,9,9,18,10
1522235693197373,-22,-33,-19,1,14,-1,5,3
1522235693218429,-3,55,36,5,-5,-5,-6,-10
1522235693218429,-10,12,-6,5,20,6,11,-2
1522235693220434,31,-36,5,-5,-34,-6,-13,11
1522235693220434,-82,-3,-16,-6,12,3,8,-27
1522235693232467,-62,-36,-8,-5,13,11,-4,-4
1522235693232467,48,16,1,-10,-12,-4,0,11
1522235693241490,-35,-17,9,-22,-82,-9,2,6
1522235693241490,-39,-13,10,7,-9,4,27,4
1522235693255527,-28,4,-4,25,92,15,-32,-13
1522235693255527,39,49,8,13,-14,-40,-9,-6
1522235693257533,56,40,8,12,22,18,-1,-5
1522235693257533,9,-85,-7,-57,-94,0,14,13
1522235693278589,45,10,2,67,66,61,39,-9
1522235693278589,-53,6,-7,1,-5,10,-18,-11
1522235693280595,44,8,13,8,-23,13,-16,22
1522235693280595,-29,30,4,11,63,-58,4,15
1522235693291624,22,11,8,-15,-39,-23,41,1
1522235693291624,-26,8,-16,-4,0,-12,-55,-9
1522235693301650,-87,-37,-8,-35,-16,30,28,-38
1522235693301650,100,-10,10,29,34,105,25,11
1522235693315687,79,10,-1,-8,-73,-45,-2,18
1522235693315687,-53,-67,-17,-11,42,-7,18,-43
1522235693317693,-59,25,17,5,7,-27,-32,7
1522235693317693,127,54,-6,-1,-30,33,-16,31
1522235693338749,21,-26,-11,-12,4,-7,-16,-4
1522235693338749,-42,-21,2,-6,-29,9,13,-3
1522235693339752,86,5,-11,5,-11,-17,3,7
1522235693339752,3,38,4,-3,56,-41,-30,7
1522235693351784,15,55,14,-14,-31,44,15,-23
1522235693351784,14,-22,21,19,16,6,14,10
1522235693360809,10,18,11,3,29,1,0,-12
1522235693360809,-55,-26,3,12,-9,-3,-2,1
1522235693375847,-7,-6,-19,-20,-22,-25,-24,-4
1522235693375847,-20,-21,-17,0,4,-1,3,2
1522235693377853,-57,42,9,7,1,18,3,2
1522235693377853,31,15,-2,1,-7,-15,-4,-3
1522235693398909,-62,-67,-21,-11,2,-21,-16,-1
1522235693398909,-23,14,1,4,-6,14,5,4
1522235693399912,-5,-88,-40,-2,9,-16,0,6
1522235693399912,-39,59,38,10,5,-6,2,-11
1522235693420967,-43,-34,13,-1,3,4,-8,4
1522235693420967,62,79,29,2,-6,13,14,16
1522235693422973,3,-7,-5,-9,11,-10,-6,-5
1522235693422973,-15,-61,-17,2,-3,-8,-4,-15
1522235693436007,-2,-66,-54,-6,11,-9,1,14
1522235693436007,44,48,41,10,-6,-10,-1,-12
1522235693438013,-70,19,-6,-5,52,24,8,-16
1522235693438013,-8,-2,66,6,-49,-10,-14,-18
1522235693458066,39,15,-40,-25,10,-8,5,10
1522235693458066,11,39,5,11,-17,-8,0,7
1522235693460071,16,-38,19,-6,-18,5,-3,-1
1522235693460071,-20,-38,-56,-6,22,-11,5,-8
1522235693472103,-22,-12,-6,4,30,7,-15,1
1522235693472103,-49,70,58,24,34,11,5,-22
1522235693481127,4,-96,-24,-11,-67,-20,15,8
1522235693481127,27,68,-37,-17,-37,6,1,5
1522235693496167,-29,-59,53,7,26,-13,-7,-4
1522235693496167,17,-93,-73,-7,46,8,-3,19
1522235693497170,-6,93,65,29,38,-12,-18,1
1522235693497170,-30,-39,-10,-12,-38,3,-4,-22
1522235693518226,35,0,-29,-18,-58,0,10,-11
1522235693518226,28,0,-26,3,7,6,-7,19
1522235693520231,-27,-33,-6,-25,-28,-30,-5,-10
1522235693520231,17,-34,-5,42,111,19,11,13
1522235693540284,-25,127,48,-1,-23,8,-7,10
1522235693540284,-9,-56,-27,-13,-11,5,-6,-3
1522235693548306,6,35,-30,0,-2,-17,-9,-13
1522235693548306,-15,-30,51,8,-4,6,9,-7
1522235693556327,47,23,-3,-4,-6,-3,1,11
1522235693556327,-61,-18,-3,-11,-16,-4,2,-11
1522235693557330,47,43,18,8,7,10,0,3
1522235693557330,24,-23,-28,-6,-1,1,-5,8
1522235693578386,-63,4,10,8,-6,-4,-4,-6
1522235693578386,18,-27,-11,-7,-29,-15,-1,-4
1522235693580391,-2,3,-13,4,-10,7,1,1
1522235693580391,26,9,-6,-3,33,2,17,-1
1522235693601447,16,-18,-25,-7,-7,-12,-31,-4
1522235693601447,32,72,32,0,-8,-5,3,-3
1522235693602450,-78,-11,-7,-14,-50,0,8,6
1522235693602450,-25,14,-3,-4,12,8,-18,6
1522235693616487,-1,22,6,-6,7,2,16,7
1522235693616487,-42,-55,-15,12,16,4,-2,-6
1522235693617490,40,-2,2,-15,-48,-18,-1,16
1522235693617490,-18,38,9,16,83,48,37,3
1522235693639548,26,-41,-2,-12,8,-38,-59,-41
1522235693639548,-1,2,-10,23,-21,-7,5,6
1522235693640551,-66,-26,10,-1,26,-10,13,-2
1522235693640551,93,30,-20,-31,-86,-16,20,21
1522235693660604,-88,13,0,31,29,26,-38,1
1522235693660604,-1,-11,-7,-25,-58,-18,7,21
1522235693662610,70,-3,-1,12,60,-20,-74,-8
1522235693662610,94,66,7,8,-22,25,18,-4
1522235693675644,70,-6,13,1,7,17,26,12
1522235693675644,43,6,-3,-35,-105,50,58,40
1522235693681660,79,-14,-22,40,127,36,17,-34
1522235693681660,21,-25,-7,-9,-9,-54,-77,6
1522235693698706,-34,1,24,7,-23,20,44,-3
1522235693698706,112,38,-10,-26,10,22,-13,20
1522235693699708,6,-47,-27,43,-33,-2,23,11
1522235693699708,-86,64,50,-3,10,-3,9,-43
1522235693720764,17,26,1,-1,38,12,23,21
1522235693720764,-34,-25,-1,-5,17,-9,-13,-15
1522235693722769,27,7,-15,-17,-19,-10,13,-4
1522235693722769,-60,-81,-57,7,5,-20,-19,11
1522235693735804,-47,-6,28,9,-19,29,30,-1
1522235693735804,12,8,2,-7,-5,-19,-6,-6
1522235693741820,-101,23,-4,-27,-45,-1,-21,12
1522235693741820,28,-114,-2,13,-19,4,9,0
1522235693758865,9,42,8,-13,40,-6,-3,8
1522235693758865,-14,20,-8,9,33,-8,-13,-24
1522235693759868,5,39,18,-5,-12,8,2,18
1522235693759868,-23,11,-13,1,-6,-2,-5,-4
1522235693780924,15,-46,-26,-6,-38,-13,-2,6
1522235693780924,-33,34,23,17,22,-7,-9,-13
1522235693782929,-46,-7,32,0,20,4,0,-10
1522235693782929,15,11,-19,-16,-3,0,1,-5
1522235693794961,10,17,5,-1,-25,-12,-12,-14
1522235693794961,-12,-21,-25,4,16,-11,-5,1
1522235693801980,15,-62,-14,-10,-36,11,7,0
1522235693801980,-3,61,31,-1,54,-1,10,7
1522235693818022,21,-83,-47,0,-22,-15,-10,-17
1522235693818022,-78,52,51,6,0,0,-7,-12
1522235693820028,65,-1,-29,-10,-50,-4,1,12
1522235693820028,-52,-52,47,15,74,16,-1,-9
1522235693842086,27,1,-47,-9,-18,-14,-5,12
1522235693842086,-4,10,35,11,58,-2,0,-13
1522235693844092,30,-46,-68,-11,-15,-11,3,-2
1522235693844092,-38,22,3,-11,-76,-14,0,-14
1522235693855121,12,67,34,-6,-10,12,-2,31
1522235693855121,-7,-77,-50,-10,-3,-12,-4,-14
1522235693862140,-19,21,9,13,15,12,-5,-2
1522235693862140,15,24,-25,3,18,6,3,-18
1522235693878182,-20,-26,35,0,-44,-33,5,0
1522235693878182,32,-66,-20,-12,-41,-13,-10,11
1522235693880188,-10,32,27,-4,26,37,14,10
1522235693880188,-4,-74,-53,-17,-37,-49,-36,-10
1522235693901243,-43,50,20,15,78,29,-2,-15
1522235693901243,-3,-71,-36,22,66,2,2,-9
1522235693902247,-8,29,36,-17,-37,-3,13,2
1522235693902247,9,63,28,-16,-73,-1,-4,-1
1522235693914278,-31,-33,-17,-9,-37,-4,1,-5
1522235693914278,-8,-15,-14,16,49,22,3,12
1522235693923302,12,-60,-49,16,67,4,-10,-3
1522235693923302,-31,82,102,-2,-74,-10,42,-2
1522235693938342,75,28,-10,-7,-19,-18,-43,-6
1522235693938342,-55,-54,-18,-12,-30,-2,-7,-6
1522235693940348,9,77,9,-5,9,-9,-1,-2
1522235693940348,37,-51,-12,11,31,1,-7,19
1522235693961404,-49,-40,-9,7,32,-1,5,-10
1522235693961404,-6,96,8,-4,-32,12,10,-3
1522235693962406,30,47,36,-3,-9,7,3,3
1522235693962406,-4,26,-28,-3,20,3,-3,8
1522235693974438,-87,-60,0,1,17,-2,6,0
1522235693974438,38,-30,-14,2,2,-11,-11,-2
1522235693983462,-33,-4,6,-2,-14,-4,4,-7
1522235693983462,13,32,-14,-1,17,9,2,2
1522235693998502,97,42,9,10,-23,2,6,15
1522235693998502,-71,1,4,4,12,-2,2,-16
1522235694000508,61,41,13,1,-15,1,12,-4
1522235694000508,-84,-128,-19,5,21,2,-41,-7
1522235694020561,82,39,-8,-3,20,8,5,32
1522235694020561,-58,-25,6,-7,11,58,51,-26
1522235694022566,49,19,13,-10,-16,-27,-4,11
1522235694022566,-97,-31,-18,11,16,-17,-19,-12
1522235694034598,-97,16,8,-21,-23,-14,40,-4
1522235694034598,117,52,12,-31,-52,-23,-23,24
1522235694043622,-7,-51,0,6,12,-9,-36,6
1522235694043622,-56,-74,-33,5,54,7,52,-53
1522235694058662,87,7,-17,-20,-55,-90,-36,9
1522235694058662,23,70,39,25,41,86,29,-2
1522235694059665,46,15,-12,-41,-80,-34,-5,16
1522235694059665,112,-33,15,54,56,-32,-18,6
1522235694080721,-18,4,-26,-9,-1,-13,-49,-52
1522235694080721,0,15,-5,-2,-6,21,5,5
1522235694082726,-57,10,9,1,17,-10,5,-4
1522235694082726,-34,27,11,-24,-69,70,-37,9
1522235694094758,59,-69,-19,30,85,-4,6,5
1522235694094758,-36,61,29,1,-17,-37,-42,-32
1522235694103782,-12,20,26,23,32,-1,30,-16
1522235694103782,55,-7,0,-28,-66,-12,-6,13
1522235694118822,-45,-5,2,-5,-26,-10,45,-8
1522235694118822,-22,-51,-22,1,16,-30,-42,17
1522235694119825,94,-46,-16,7,29,42,9,15
1522235694119825,37,56,11,-7,-21,-7,-3,-1
1522235694140880,29,-87,-18,-3,-30,29,12,12
1522235694140880,31,51,-28,-2,-3,-34,30,15
1522235694142886,-90,9,45,18,20,16,-21,-4
1522235694142886,18,19,1,-3,3,-18,12,24
1522235694154918,-53,-41,3,2,-17,11,-5,-4
1522235694154918,72,-53,-35,-3,18,-12,14,4
1522235694163942,-32,31,6,4,-1,-8,-21,-14
1522235694163942,-1,23,-12,-10,-20,-2,11,17
1522235694177979,-30,13,10,0,5,18,-6,-6
1522235694177979,-79,-93,-4,5,2,-5,-6,-17
1522235694179985,-12,55,0,-14,-28,-17,-1,14
1522235694179985,38,47,6,8,57,3,8,-5
1522235694201041,-70,-11,-4,-5,7,23,8,-9
1522235694201041,58,-13,19,7,-17,-8,-16,5
1522235694203046,-3,-69,-29,5,23,-4,-1,-2
1522235694203046,3,41,8,-4,-31,0,5,13
1522235694215078,4,17,-12,-3,-4,6,-8,-7
1522235694215078,-57,64,19,-2,0,7,17,3
1522235694224102,-18,-50,-5,-3,1,-12,-10,-8
1522235694224102,26,-41,-16,-6,-18,-1,-3,1
1522235694238139,-30,30,2,-14,-6,24,-3,-4
1522235694238139,29,29,-2,25,25,-15,-1,9
1522235694240144,-28,-13,7,-9,-11,-5,1,-21
1522235694240144,20,-108,-51,-17,-4,-31,-10,4
1522235694261200,-40,113,81,21,45,14,3,-16
1522235694261200,-21,-32,-15,-21,-60,-1,1,18
1522235694262203,24,7,-21,-3,51,19,10,3
1522235694262203,-47,28,89,16,-6,0,9,-16
1522235694274235,57,-105,-46,1,-31,-28,-15,15
1522235694274235,-22,97,28,8,29,0,-6,-11
1522235694283259,-48,-62,5,-5,-19,10,8,9
1522235694283259,-77,84,5,-8,12,-12,-4,-28
1522235694298299,55,-25,-18,-8,-9,-18,-15,14
1522235694298299,19,2,31,10,-53,-13,-7,-6
1522235694300304,-6,6,-32,1,62,31,23,2
1522235694300304,2,25,-23,-10,0,26,-18,-4
1522235694321360,-26,-25,17,6,-27,6,15,4
1522235694321360,38,56,-3,-16,-31,-6,7,7
1522235694322363,-69,2,-7,10,-18,-29,-17,-11
1522235694322363,15,-33,-19,1,54,10,9,12
1522235694334395,-49,13,-3,15,4,17,17,-7
1522235694334395,19,-20,14,-4,27,-1,-25,-5
1522235694343419,37,-81,-22,8,13,8,-13,3
1522235694343419,-2,72,41,-16,-77,22,49,9
1522235694357456,-8,53,-10,-14,-22,-15,-36,5
1522235694357456,59,-27,-6,5,8,-17,-4,0
1522235694364474,-25,18,-1,5,25,-1,-22,2
1522235694364474,-11,-43,-4,-5,-32,9,18,-8
1522235694380517,79,60,-24,-14,15,2,8,-10
1522235694380517,30,-88,3,2,1,4,11,1
1522235694382523,-40,14,-6,-1,-6,-13,-21,-6
1522235694382523,47,-100,-53,3,18,-13,-11,23
1522235694394554,44,89,52,6,7,11,14,9
1522235694394554,-71,-83,-4,-11,7,2,-4,-2
1522235694403579,33,30,11,-3,-44,-6,7,-2
1522235694403579,35,-12,-22,-5,2,-10,1,10
1522235694417616,48,-8,-6,13,-43,-16,-4,-8
1522235694417616,-110,-36,-8,-5,66,8,-41,-5
1522235694424635,127,64,21,-14,-29,-13,27,18
1522235694424635,-94,-91,-19,28,20,-30,-22,-35
1522235694440677,-42,-8,-3,6,22,44,1,-5
1522235694440677,85,52,13,-7,3,-1,14,16
1522235694442683,-36,-33,-15,-16,-28,39,15,-12
1522235694442683,90,56,10,2,-2,-63,-52,7
1522235694454715,21,-24,-9,12,11,88,76,0
1522235694454715,-116,-40,-19,0,-10,-16,-38,-14
1522235694463739,-112,15,9,-15,-83,-38,-3,-10
1522235694463739,110,0,7,5,87,33,34,14
1522235694478778,-41,18,7,22,47,-49,-45,-21
1522235694478778,99,0,-17,-12,-27,56,49,20
1522235694479781,-62,-15,-2,11,20,-26,0,-12
1522235694479781,-119,-3,2,-16,-92,-47,-36,-13
1522235694500837,83,-3,9,-10,5,28,54,7
1522235694500837,-24,28,-3,11,48,9,-1,-10
1522235694502843,-68,-24,22,14,11,-43,19,-2
1522235694502843,94,35,-11,4,7,25,13,18
1522235694523898,39,-32,-3,-24,-1,-35,-18,-5
1522235694523898,26,-15,-10,-2,-61,-23,-22,1
1522235694524901,1,-34,-16,-6,19,17,5,2
1522235694524901,-54,26,21,-10,-20,20,25,-11
1522235694536933,60,-10,-8,8,30,-12,-45,6
1522235694536933,127,126,18,5,-20,-41,-9,-7
1522235694545957,25,-15,-13,-5,9,26,-9,2
1522235694545957,-20,-12,5,-1,21,38,15,-12
1522235694560997,29,31,5,0,-31,-34,-14,3
1522235694560997,-92,-83,-22,-4,-8,-6,18,5
1522235694563003,35,69,17,3,25,28,-5,-20
1522235694563003,-28,-20,-15,-7,-15,14,-3,9
1522235694583056,-128,8,15,-4,-27,-20,-33,-8
1522235694583056,12,-9,6,4,-13,3,-7,-11
1522235694585061,1,4,2,16,48,-9,-5,0
1522235694585061,-17,-29,-20,-12,-2,15,-1,5
1522235694597093,-54,-13,-29,4,-22,-37,-20,-8
1522235694597093,-29,17,38,8,-13,1,8,-1
1522235694606117,64,35,32,7,1,3,-10,9
1522235694606117,-69,9,-5,2,7,-15,4,-13
1522235694621157,-23,-37,-26,-8,18,19,7,-1
1522235694621157,-19,22,10,-10,-32,3,3,5
1522235694622160,33,-17,-16,-4,-12,8,6,5
1522235694622160,8,-20,-12,4,14,7,-3,4
1522235694643216,5,33,9,-6,-26,-5,9,13
1522235694643216,-4,-43,-9,10,18,-8,1,-5
1522235694645221,3,-25,-19,4,8,9,-1,-7
1522235694645221,22,50,9,-3,-16,-2,-26,0
1522235694658255,-24,-39,5,-1,-10,8,34,0
1522235694658255,-2,-36,-17,-8,10,24,-14,1
1522235694664271,4,-43,-28,-17,-76,-24,-1,-3
1522235694664271,1,104,19,19,98,32,31,-3
1522235694681317,4,-98,-16,-8,-7,3,-42,-9
1522235694681317,1,21,7,13,51,-10,14,8
1522235694682320,-25,-58,21,-12,-38,17,-3,8
1522235694682320,3,-4,2,-3,-24,-9,-19,-22
1522235694703375,4,-32,-45,-13,-3,16,28,9
1522235694703375,94,102,-14,-5,-9,-20,7,6
1522235694705381,-98,-22,23,0,6,-3,-38,-35
1522235694705381,11,-61,-54,-10,-10,-13,5,6
1522235694718415,-43,105,81,14,2,4,5,2
1522235694718415,-30,25,-5,-1,8,2,5,-8
1522235694724431,14,29,-30,2,-32,-24,-10,12
1522235694724431,14,54,37,-9,42,-2,-27,-6
1522235694741477,-27,-108,-16,4,6,11,-5,-15
1522235694741477,3,14,4,-4,-20,-10,11,7
1522235694742480,24,13,-38,-6,31,11,-2,-7
1522235694742480,10,-25,1,10,-1,0,7,16
1522235694763535,71,25,2,2,-30,-15,5,13
1522235694763535,-106,-16,31,-1,-3,17,-11,-19
1522235694765541,3,38,8,0,7,3,11,9
1522235694765541,-16,-15,-2,0,-29,-16,-10,15
1522235694777573,-25,-43,-19,-8,18,1,6,-27
1522235694777573,-11,-69,-47,-18,-46,9,0,1
1522235694784592,15,-22,32,9,33,12,1,3
1522235694784592,19,68,35,3,-18,4,13,-4
1522235694800634,17,12,-7,3,31,-10,0,2
1522235694800634,22,20,6,-8,-20,1,6,4
1522235694802639,-14,-24,-3,9,-17,15,9,2
1522235694802639,63,-47,-18,3,22,-2,-35,-2
1522235694823695,2,-1,3,3,-30,15,25,3
1522235694823695,123,3,2,7,47,10,-5,1
1522235694824698,-53,-2,-8,-20,-14,-19,22,-2
1522235694824698,3,-6,0,-7,-35,-11,-5,-3
1522235694837732,9,21,1,7,25,-1,-34,-4
1522235694837732,0,-17,1,6,-47,31,27,-5
1522235694844751,127,37,8,0,20,1,3,26
1522235694844751,-39,-44,-4,13,-25,-6,13,-18
1522235694860794,-3,3,-6,-10,49,-12,-8,-7
1522235694860794,46,-8,-7,-18,5,49,70,3
1522235694862799,16,1,2,-3,4,26,-63,8
1522235694862799,9,22,21,-1,-46,-66,-52,4
1522235694883855,91,-13,-26,-6,-21,27,15,-1
1522235694883855,20,-6,1,11,50,-23,-10,3
1522235694884858,-27,8,-4,-16,27,35,20,-1
1522235694884858,23,27,15,14,-102,-5,83,25
1522235694897894,-65,-34,-2,12,82,15,-91,-31
1522235694897894,44,-40,-6,-3,-8,-15,-3,0
1522235694904911,28,-3,10,2,-14,-30,-20,0
1522235694904911,-60,17,-1,-25,-90,-63,-24,0
1522235694920954,118,9,-18,23,61,32,29,18
1522235694920954,-124,3,27,16,10,-25,-8,0
1522235694922959,17,40,-5,-16,-63,-15,3,-19
1522235694922959,104,-44,-56,-26,113,8,-27,0
1522235694943013,-27,80,70,0,-49,21,14,-5
1522235694943013,-40,-50,-21,-3,2,-1,-36,-7
1522235694945018,-27,-5,11,6,0,6,21,20
1522235694945018,-44,-9,-6,-1,20,15,-6,-10
1522235694957049,-46,-87,-24,-15,-34,-20,8,9
1522235694957049,54,49,23,5,17,1,-1,9
1522235694966074,-26,16,0,10,-10,-34,8,-2
1522235694966074,-10,-28,-24,-2,39,52,17,-6
1522235694981113,1,42,15,-7,1,-53,-12,3
1522235694981113,-73,3,5,0,-38,-7,-5,-13
1522235694982116,-5,-17,-28,1,25,-7,12,-4
1522235694982116,-26,-27,-8,2,-58,20,-4,3
1522235695003172,-39,55,-10,6,71,3,42,10
1522235695003172,-48,-82,27,-7,-24,20,-10,5
1522235695005178,-18,-22,-34,-6,-4,-4,-5,-2
1522235695005178,-20,56,18,8,12,0,-20,-6
1522235695017209,-59,23,61,-1,-61,-13,13,-4
1522235695017209,31,7,-55,-2,-5,-5,-2,5
1522235695026234,20,19,23,-1,57,10,-5,-1
1522235695026234,-32,-19,15,6,-1,19,25,7
1522235695041273,42,-31,-30,-4,-12,-23,-17,2
1522235695041273,37,15,26,8,-38,-38,-21,-21
1522235695042277,-80,-58,-4,12,46,35,0,-6
1522235695042277,15,-30,-29,-20,31,-26,11,3
1522235695063332,-22,29,12,-9,-40,10,-5,-12
1522235695063332,39,10,-11,17,-3,-15,12,13
1522235695065338,-16,-68,-30,-4,28,12,27,-24
1522235695065338,-65,46,26,-15,-12,29,0,-10
1522235695077369,11,61,10,1,11,-21,8,19
1522235695077369,16,13,0,-18,-43,-1,-4,5
1522235695086393,-6,-45,-17,-1,-2,-6,-14,5
1522235695086393,13,-26,-15,16,31,-9,-24,-8
1522235695101433,16,-23,4,1,-2,6,12,19
1522235695101433,-56,51,-23,-15,-17,6,12,-20
1522235695103439,25,-66,-8,-10,-19,-10,-2,14
1522235695103439,7,67,66,7,-9,0,2,12
1522235695123492,60,36,-19,-4,-16,17,17,7
1522235695123492,-61,-51,-59,9,49,-12,-11,2
1522235695125500,2,91,33,0,-42,6,-12,-24
1522235695125500,-8,-65,-3,-3,13,8,18,5
1522235695137529,-32,-10,-30,-1,-10,-23,-38,-1
1522235695137529,19,70,88,-1,-21,16,2,6
1522235695146553,-44,21,-9,2,-2,-16,-2,-6
1522235695146553,-32,-38,-12,8,23,-8,-1,-17
1522235695160591,66,-30,-19,2,3,19,10,11
1522235695160591,-46,6,18,-2,15,-13,-8,-14
1522235695162596,23,29,19,2,-8,-14,1,19
1522235695162596,-32,13,12,0,-20,5,1,-7
1522235695183652,-25,-24,-21,-12,-10,28,-2,-1
1522235695183652,-10,-12,-16,-4,-7,-5,6,-2
1522235695185657,41,27,23,10,11,-7,-8,6
1522235695185657,2,-8,-19,-7,-9,21,12,1
1522235695197689,-23,-16,8,-3,-11,-54,-52,-19
1522235695197689,59,-18,-5,-3,24,17,5,9
1522235695206714,-11,41,7,16,0,14,21,-3
1522235695206714,58,-19,-20,-21,-23,-27,2,2
1522235695220750,67,-6,5,13,21,19,-4,-8
1522235695220750,-93,-19,-3,-4,27,8,-9,-8
1522235695222756,97,21,-2,-1,-9,-19,-4,7
1522235695222756,43,-12,3,3,4,6,3,3
1522235695243812,15,3,15,-3,-8,-13,7,7
1522235695243812,-22,-10,-12,-9,-1,5,27,-5
1522235695244814,28,32,-6,-10,-28,2,-24,-4
1522235695244814,28,-1,3,19,25,-20,-30,7
1522235695256846,27,9,15,-3,-15,40,18,7
1522235695256846,0,-2,-10,6,-3,-2,2,-2
1522235695265871,-79,-23,-11,-22,-11,1,1,-9
1522235695265871,-44,17,2,-13,-40,-30,1,-8
1522235695280910,-62,14,-4,26,53,26,-44,0
1522235695280910,127,16,-9,-12,-2,-9,-4,15
1522235695282916,-30,-22,-8,0,-24,41,10,-15
1522235695282916,82,-24,7,7,35,-10,-25,-8
1522235695302969,-109,-27,-4,-8,-57,-28,-10,-3
1522235695302969,-56,75,0,21,12,6,-32,2
1522235695304974,2,-60,0,-6,52,28,23,-1
1522235695304974,50,12,-8,6,-9,36,-1,-6
1522235695317006,-28,-17,-8,-17,-31,-16,5,-15
1522235695317006,-9,-31,-5,4,32,6,-2,-15
1522235695326031,-25,-31,-5,-2,-50,-14,-6,3
1522235695326031,-71,51,41,-1,10,-1,7,5
1522235695341070,102,19,-5,-5,6,-13,16,-6
1522235695341070,-37,-9,-9,-9,-16,-6,-16,-5
1522235695343076,38,-13,9,18,13,35,-16,5
1522235695343076,-26,-52,-35,-21,-9,-36,28,-9
1522235695363129,52,25,-1,9,-21,-11,5,12
1522235695363129,11,-7,6,-18,-5,4,6,10
1522235695365134,-27,-6,4,7,11,-16,-7,8
1522235695365134,-119,-6,7,15,32,29,3,-12
1522235695377166,82,24,-17,-9,-12,-19,7,3
1522235695377166,-51,-32,-7,-1,-3,-3,-5,0
1522235695386190,32,-56,-46,-12,-1,6,27,0
1522235695386190,-26,117,83,8,2,-10,-12,1
1522235695401230,-89,-49,-3,-5,8,0,12,-10
1522235695401230,-10,-29,37,17,9,13,13,-3
1522235695402233,-13,34,-1,-6,-2,-23,-20,4
1522235695402233,67,5,-33,-5,-17,9,24,13
1522235695423289,-49,-69,-5,-3,-23,-1,-10,-8
1522235695423289,24,59,11,5,46,6,-2,11
1522235695425294,6,4,5,0,-12,-10,11,-3
1522235695425294,41,-118,-63,-3,8,-3,-11,10
1522235695446350,-65,100,54,14,24,11,13,-4
1522235695446350,27,-30,-51,-16,-74,-15,-1,-8
1522235695447353,-10,15,27,-5,34,9,2,-7
1522235695447353,10,36,-10,4,17,4,-29,2
1522235695460387,46,-109,-17,6,2,8,0,17
1522235695460387,-18,-7,-15,-13,-41,-16,4,-15
1522235695467406,26,71,7,2,-10,-11,-4,1
1522235695467406,-13,8,8,-4,5,-4,-3,-13
1522235695483449,3,91,-1,8,59,7,11,-21
1522235695483449,-32,-95,-19,6,0,-4,-9,2
1522235695485454,56,83,35,-3,-43,-7,3,5
1522235695485454,-36,-60,-58,-27,-48,-2,1,-8
1522235695505507,-25,49,66,9,21,-9,-3,2
1522235695505507,53,21,-7,18,70,-5,-1,12
1522235695507513,-68,-80,0,7,-24,-15,-13,-5
1522235695507513,16,47,-5,-19,-91,10,9,0
1522235695520547,-27,-80,-27,-18,43,22,18,-1
1522235695520547,-16,43,59,7,-6,0,15,5
1522235695522553,-4,-2,-21,9,24,-6,-12,-12
1522235695522553,23,-31,5,4,1,-15,3,7
1522235695543608,-37,-10,-42,-3,-42,-1,1,6
1522235695543608,39,-6,2,-11,-2,16,-3,3
1522235695549624,-1,6,1,0,12,-10,-11,-11
1522235695549624,10,-83,-27,3,4,7,17,-3
1522235695565667,23,86,16,9,-67,-6,-8,3
1522235695565667,-40,3,-31,-19,52,-32,-14,-3
1522235695567672,-64,-31,-1,12,19,27,22,-5
1522235695567672,51,27,4,-3,15,20,-22,11
1522235695580707,-70,-7,30,0,-8,18,19,-3
1522235695580707,-6,-21,-2,-8,-17,-9,-17,-4
1522235695586723,68,89,-34,-9,-32,-19,3,12
1522235695586723,4,-57,-19,-3,45,-6,9,-1
1522235695603768,0,21,35,3,-10,-3,-8,-1
1522235695603768,26,44,11,-4,-41,2,-1,-11
1522235695604771,-14,-3,-11,3,37,-6,-9,-1
1522235695604771,-15,25,24,5,-5,6,2,17
1522235695625827,10,-45,-26,-8,-15,-7,-2,-7
1522235695625827,-8,-32,-9,3,2,11,1,0
1522235695627832,72,63,3,-10,3,-11,-9,-3
1522235695627832,-87,-50,1,2,7,-1,4,-5
1522235695639864,24,-27,-1,-5,-23,-31,-7,-1
1522235695639864,9,19,4,3,0,22,-10,-4
1522235695646883,-15,-24,-11,11,13,-30,5,-10
1522235695646883,29,35,29,-17,-27,0,9,0
1522235695663928,37,-31,-19,13,17,-46,-49,-12
1522235695663928,110,4,-12,-8,42,17,28,8
1522235695664931,-3,-12,20,9,-24,36,-10,16
1522235695664931,66,60,9,-5,14,40,-11,-25
1522235695685987,-76,-57,-15,-8,-29,15,-16,7
1522235695685987,35,-41,-14,10,-9,-20,9,0
1522235695687992,-7,-9,22,-12,19,-56,-46,13
1522235695687992,-71,6,-1,28,46,-23,5,-32
1522235695700024,-49,2,-7,-12,-5,28,35,6
1522235695700024,-27,-9,9,-1,-37,39,-19,10
1522235695707043,-4,-21,-21,-20,-53,-25,-21,-35
1522235695707043,31,4,16,12,8,-10,2,19
1522235695723085,118,60,-12,-3,50,-19,-12,-9
1522235695723085,6,-19,6,-22,-62,11,80,16
1522235695725091,123,-24,-5,20,85,-8,10,-9
1522235695725091,8,17,-6,-24,-24,-35,-43,12
1522235695745144,1,-17,24,21,-12,44,19,6
1522235695745144,-49,13,0,-7,3,-44,-50,-6
1522235695746147,23,5,4,0,24,30,48,10
1522235695746147,-38,-82,-1,-14,-22,13,15,-15
1522235695768205,98,80,-13,-10,19,15,3,6
1522235695768205,13,2,-2,8,1,-51,-15,6
1522235695769208,-128,26,3,-3,-26,29,-2,-14
1522235695769208,-56,3,4,4,-3,-6,-2,7
1522235695783245,-20,-36,-14,0,-7,-12,11,4
1522235695783245,-76,-13,7,-3,15,1,-8,-22
1522235695783245,-12,34,-24,-5,-19,-19,-4,5
1522235695783245,51,23,10,14,20,11,14,10
1522235695805304,-80,-36,7,4,-10,-12,-7,-3
1522235695805304,65,19,-14,-11,-3,9,-5,1
1522235695806307,-50,18,6,-6,-26,0,10,14
1522235695806307,-30,-20,-8,10,23,3,0,4
1522235695819341,-14,-4,18,2,-53,-2,-9,-10
1522235695819341,-30,-48,-17,6,74,2,5,3
1522235695827362,10,-25,22,0,-18,14,20,0
1522235695827362,-24,8,7,-6,8,-2,-23,-2
1522235695842403,-3,23,-35,4,-20,-12,-11,-8
1522235695842403,-11,-62,20,0,-37,6,4,6
1522235695843405,48,-26,-1,-10,-4,0,-1,11
1522235695843405,22,58,-50,-9,-10,-5,3,-12
1522235695865464,-20,-55,17,1,73,-5,7,-10
1522235695865464,12,127,17,22,-3,15,-7,0
1522235695866466,-26,-100,-7,-18,-22,3,-3,-11
1522235695866466,-2,43,19,1,-4,-1,2,0
1522235695879501,18,55,-16,-16,-40,9,4,3
1522235695879501,-19,-47,6,12,31,6,6,0
1522235695887522,16,-2,7,5,-6,1,-4,-3
1522235695887522,15,10,28,0,29,22,7,2
1522235695902562,-26,-32,5,9,-52,-36,0,-5
1522235695902562,2,-33,-7,-12,12,0,-28,-22
1522235695903565,-1,-5,-19,2,25,-5,3,4
1522235695903565,58,-20,-24,-1,-47,-9,4,14
1522235695925624,-61,-29,23,-3,18,14,-2,-4
1522235695925624,9,-2,-21,-22,-45,-4,2,-3
1522235695925624,-38,18,19,14,15,-19,-15,-9
1522235695925624,18,-25,-22,-5,18,16,1,0
1522235695948685,25,-25,-11,3,15,-26,-2,-1
1522235695948685,17,27,40,15,-3,14,10,14
1522235695949687,-58,16,-33,-17,21,27,-8,-25
1522235695949687,-23,-31,-7,-15,-93,-23,4,3
1522235695962722,-13,35,5,2,65,15,2,-9
1522235695962722,-30,18,12,13,35,-19,-40,4
1522235695963725,48,-60,-19,-1,-17,2,19,17
1522235695963725,-12,79,22,-1,-4,2,-15,-14
1522235695985783,10,-90,-13,-6,-9,-5,-2,9
1522235695985783,23,-15,-23,-2,-3,-1,14,-1
1522235695985783,67,70,27,6,6,3,2,11
1522235695985783,-83,-40,-2,2,7,-8,-7,-11
1522235696008845,-47,16,-9,0,9,14,3,5
1522235696008845,37,18,-3,-1,-21,1,11,1
1522235696008845,-37,-19,5,-19,-20,-14,5,3
1522235696008845,-19,-13,-12,30,43,33,16,-20
1522235696022882,14,25,6,-19,-42,-37,-8,0
1522235696022882,-34,-23,-10,6,-10,2,5,-9
1522235696023885,11,15,5,8,43,-4,-50,1
1522235696023885,71,20,7,-17,-19,-57,4,14
1522235696044941,-25,-15,-13,11,25,47,-6,-16
1522235696044941,-8,28,1,-19,-40,-8,16,-3
1522235696045944,1,-2,2,10,-21,-5,-8,3
1522235696045944,48,-2,8,27,38,22,34,16
1522235696068002,-18,-52,-7,-1,14,26,-22,-9
1522235696068002,42,29,-7,-12,-6,-34,-11,6
1522235696069005,8,10,-2,0,-20,8,-21,-18
1522235696069005,30,-18,-4,0,12,6,-18,2
1522235696083042,9,41,4,-9,-17,8,18,7
1522235696083042,-74,-28,1,9,17,16,4,-5
1522235696084045,90,20,-4,-16,-10,24,11,8
1522235696084045,48,-5,1,-11,-26,17,9,7
1522235696105100,68,6,-1,2,26,4,-9,-8
1522235696105100,106,8,8,2,8,-20,-20,10
1522235696106104,42,6,-8,9,-11,-34,-6,-6
1522235696106104,36,-9,5,4,2,-23,31,6
1522235696128162,127,22,6,2,-8,-3,32,6
1522235696128162,-92,-10,-21,4,53,-2,-78,-13
1522235696128162,-128,-76,-10,-11,-9,43,63,-18
1522235696128162,40,32,9,-6,2,10,33,-3
1522235696142199,89,-10,-9,-10,-21,-11,44,10
1522235696142199,43,-11,8,18,-11,-55,3,-6
1522235696150220,-1,29,-6,-6,1,26,21,10
1522235696150220,-59,7,-7,-7,-6,-26,-53,-16
1522235696165260,1,14,19,11,14,-13,-2,8
1522235696165260,-40,0,-1,-10,-16,4,9,-3
1522235696166263,-30,-35,-8,3,8,-26,-14,-5
1522235696166263,17,-70,-31,-2,-2,4,6,-4
1522235696187319,-101,-19,27,0,-3,3,-8,-9
1522235696187319,40,22,-7,-9,-1,26,15,3
1522235696188322,5,71,15,3,5,-7,-7,2
1522235696188322,-63,9,-1,-9,-41,10,-12,1
1522235696202359,21,-25,-31,7,24,-13,-21,15
1522235696202359,-22,6,39,1,3,25,19,-9
1522235696203362,14,-40,-18,-13,-29,-22,5,11
1522235696203362,36,-39,-14,-11,26,20,-19,-1
1522235696225421,-94,80,-1,-5,-1,12,-7,-2
1522235696225421,-22,8,-9,2,24,-17,5,-6
1522235696226424,27,9,19,8,2,7,9,16
1522235696226424,8,10,-24,-11,-21,0,5,-1
1522235696247479,-41,-39,34,4,-41,15,-9,-4
1522235696247479,7,-41,-56,-8,-32,-50,-4,-12
1522235696248482,21,89,-15,-4,57,18,10,7
1522235696248482,-47,-55,47,19,20,-46,-47,-10
1522235696262519,-14,-20,21,-8,-91,24,29,0
1522235696262519,32,27,-48,-10,44,27,4,-10
1522235696263522,-30,29,88,18,15,-34,-44,-6
1522235696263522,17,-42,-53,-19,-36,12,22,3
1522235696285580,27,48,23,5,12,-21,-32,-1
1522235696285580,98,58,7,-11,-62,15,4,30
1522235696286583,-76,-114,-24,-5,-14,8,2,-15
1522235696286583,13,43,7,15,45,0,8,4
1522235696307639,16,-50,-33,1,49,-12,-16,-10
1522235696307639,-3,48,72,10,-18,0,7,-1
1522235696308642,57,-8,-9,-13,-39,-14,-4,11
1522235696308642,-93,-33,-21,-3,-6,1,1,2
1522235696322679,21,5,7,-6,7,21,8,-1
1522235696322679,-58,-39,-26,2,41,-12,-11,-5
1522235696323682,24,14,54,22,32,-7,6,12
1522235696323682,38,59,15,-3,1,30,-3,-5
1522235696345740,-18,86,-29,-2,-14,1,16,8
1522235696345740,1,-26,35,-5,-24,15,4,5
1522235696345740,-21,-19,-24,-5,-11,-11,-6,-13
1522235696345740,-4,19,-11,5,12,-15,-5,-1
1522235696367799,-34,-6,-7,6,24,-5,5,-9
1522235696367799,55,-28,-36,-4,11,7,-5,0
1522235696368802,-9,-37,-11,-7,-12,0,-3,-5
1522235696368802,64,76,25,-3,13,35,42,5
1522235696382839,19,-60,-21,-1,-5,-53,-83,-5
1522235696382839,-2,-13,-2,0,-41,10,31,5
1522235696383841,27,-37,-25,1,1,-18,-11,-16
1522235696383841,18,9,18,5,-4,-20,-34,-4
1522235696404897,127,15,-2,4,3,23,52,14
1522235696404897,-100,-8,-2,-3,-17,-2,-29,-4
1522235696405900,20,-2,-11,-3,49,11,-1,-11
1522235696405900,76,66,13,26,-17,-29,-18,16
1522235696427959,-9,-34,-3,-24,-29,36,40,-12
1522235696427959,83,-19,-5,9,26,-18,-11,7
1522235696428962,20,45,-9,-4,-34,2,20,4
1522235696428962,-18,-57,-4,-7,11,-6,-22,-7
1522235696442999,117,63,12,-4,-13,33,-7,24
1522235696442999,-35,18,9,28,0,-11,15,-19
1522235696444001,23,-27,-13,4,59,74,10,2
1522235696444001,-2,-2,12,-9,-16,-14,-10,-12
1522235696465057,-66,-20,-6,25,28,-38,-17,-6
1522235696465057,50,75,-1,-13,-21,51,21,0
1522235696466060,44,-8,4,9,-4,-65,41,14
1522235696466060,-114,0,11,1,-7,14,3,3
1522235696488118,-3,-20,-2,13,-2,51,26,-4
1522235696488118,-70,-19,-4,-15,25,-16,-9,-10
1522235696489121,-56,15,-8,-2,-30,-14,-32,-6
1522235696489121,-16,-18,4,-1,4,-35,1,3
1522235696503158,34,-4,-1,-9,-7,-31,16,-1
1522235696503158,21,-7,-42,-6,3,0,-34,-4
1522235696503158,-62,-80,29,6,1,18,-5,-1
1522235696503158,71,105,39,2,2,-29,-8,-8
1522235696525217,-14,2,-8,-8,-4,-12,-24,-6
1522235696525217,-63,-50,-9,5,13,11,10,-1
1522235696526220,-8,57,10,-5,-21,-16,-11,7
1522235696526220,-39,-94,-28,-2,-24,8,18,1
1522235696548278,29,19,-2,7,61,21,10,2
1522235696548278,-45,22,20,-15,-33,12,-5,-11
1522235696548278,-3,-55,-16,3,25,-24,-5,-16
1522235696548278,52,25,3,0,-24,-1,20,2
1522235696562316,-77,-26,-11,-15,12,-16,-45,-7
1522235696562316,-22,-21,10,-7,-3,-19,-7,-4
1522235696563320,41,18,-23,-12,-65,2,-36,6
1522235696563320,0,-31,-25,-3,77,57,24,-9
1522235696585377,-53,28,59,2,-20,-32,-9,-8
1522235696585377,-7,16,16,5,14,-4,6,8
1522235696586380,-25,-33,19,-2,-10,14,10,-4
1522235696586380,44,4,-33,-8,-16,-3,-12,8
1522235696607435,-31,-59,-49,-6,-13,-12,-8,-13
1522235696607435,-26,4,56,16,45,-1,9,2
1522235696608438,29,42,1,0,-6,1,-1,11
1522235696608438,-29,25,22,-2,-16,19,7,1
1522235696622476,21,-19,-3,-4,-10,2,-5,-13
1522235696622476,53,14,-29,0,3,9,7,10
1522235696623478,7,-26,-36,-10,-21,-18,24,14
1522235696623478,-72,26,42,25,69,1,-14,-10
1522235696645537,-1,-23,-11,-12,-46,0,15,2
1522235696645537,54,-21,-34,-13,-41,-3,-10,10
1522235696646540,-27,54,52,14,17,8,-7,-6
1522235696646540,4,-13,-17,-23,-69,-15,19,3
1522235696667595,-2,-1,-35,-2,-27,-2,-15,-6
1522235696667595,2,-31,-34,-1,78,2,-17,3
1522235696668598,50,79,25,-1,33,17,12,-20
1522235696668598,23,-10,-32,6,15,0,-12,-7
1522235696682636,-15,50,35,8,-26,-17,14,9
1522235696682636,9,-56,-14,-6,-12,1,0,3
1522235696690656,-9,-29,-45,-11,-6,5,5,4
1522235696690656,0,19,38,3,-32,-15,-21,-10
1522235696705697,-22,3,-25,10,51,13,5,6
1522235696705697,31,47,13,-7,0,-2,10,5
1522235696705697,30,36,17,2,-52,6,-5,10
1522235696705697,-44,-44,-10,-8,-4,23,-28,-7
1522235696727755,17,38,-18,0,53,-5,12,3
1522235696727755,-16,-7,32,14,7,-4,-11,5
1522235696728758,-48,-13,3,18,70,-17,-9,-8
1522235696728758,-60,-44,-33,-32,-111,-11,-3,-12
1522235696741793,31,-27,-30,-16,-24,-2,-11,-4
1522235696741793,22,81,53,-3,-3,0,6,-10
1522235696750817,-12,-30,2,-10,-18,-4,3,5
1522235696750817,-20,-38,-6,14,50,-3,2,-14
1522235696764854,51,-6,26,7,17,4,4,13
1522235696764854,29,-18,-24,-5,-30,-4,12,-2
1522235696765857,34,-29,-9,-4,-8,-2,-15,1
1522235696765857,13,36,10,7,39,10,8,3
1522235696787915,-39,-27,10,-1,-38,-14,-17,-10
1522235696787915,10,-1,-3,1,10,7,-2,12
1522235696788918,-71,43,-8,-15,-17,-28,3,-6
1522235696788918,111,-11,4,15,-9,45,10,17
1522235696801952,-84,-6,-2,1,-6,52,-30,-12
1522235696801952,-18,4,-2,-1,3,-64,-2,0
1522235696809974,-25,-16,-12,3,-13,-32,-9,-21
1522235696809974,108,50,-5,-28,10,-58,-22,20
1522235696825014,-61,-39,19,24,18,3,-34,-12
1522235696825014,78,9,6,-1,-85,16,-9,2
1522235696826017,-79,2,-13,3,56,88,9,-12
1522235696826017,-16,-20,-2,12,15,-63,-14,1
1522235696848075,102,65,7,-21,-62,10,7,13
1522235696848075,-72,-28,-4,9,69,-16,5,-10
1522235696849079,-65,-57,3,-4,-43,-1,-4,-19
1522235696849079,23,51,-11,-5,11,53,19,14
1522235696862113,102,48,8,5,39,-9,19,13
1522235696862113,-93,-44,18,11,-111,22,32,11
1522235696870134,121,-36,-26,-5,72,36,-36,-14
1522235696870134,-72,32,2,5,48,30,15,4
1522235696885173,-89,-107,-19,1,18,-22,-3,-4
1522235696885173,56,108,50,-6,-37,49,29,10
1522235696886177,82,101,-16,-5,-43,-67,-42,-19
1522235696886177,46,-14,-15,9,59,6,1,8
1522235696908235,-36,-39,25,-1,-3,20,12,-8
1522235696908235,-102,-79,-16,-6,18,-16,6,-8
1522235696908235,-16,8,8,1,-19,12,17,25
1522235696908235,32,22,-1,-2,-28,-22,-9,-8
1522235696922272,-39,-32,-21,-11,4,-33,18,0
1522235696922272,2,48,13,5,21,19,-6,10
1522235696930294,14,-12,4,-5,-6,-4,2,-11
1522235696930294,-58,-15,-21,-11,-40,-11,-5,-5
1522235696945334,-16,35,12,10,75,8,5,-1
1522235696945334,21,-3,-2,-2,10,-5,-24,-10
1522235696946337,5,57,18,-4,-4,2,3,14
1522235696946337,-50,-22,14,11,2,-11,19,-2
1522235696967392,24,-63,-25,-12,-37,-2,-21,-14
1522235696967392,-8,16,-28,-14,15,-5,-14,-11
1522235696968395,-14,-51,-26,0,11,-16,17,16
1522235696968395,-2,35,24,4,-25,15,7,6
1522235696982432,18,-4,7,6,10,-5,12,2
1522235696982432,8,-30,-51,7,18,-9,-10,-12
1522235696990453,10,-34,64,-6,-90,-17,2,3
1522235696990453,-5,-19,-38,8,90,34,9,1
1522235697005494,-25,52,11,-2,-12,5,-6,3
1522235697005494,18,9,-23,-8,54,-1,2,-4
1522235697006496,3,-5,-11,8,5,5,17,-4
1522235697006496,-28,5,30,-34,-123,-38,-27,-11
1522235697027552,-3,49,19,3,35,3,16,-3
1522235697027552,19,-21,-49,3,51,10,-12,11
1522235697035573,38,10,23,18,60,18,26,16
1522235697035573,-73,-50,-28,3,-11,-26,-18,-23
1522235697042592,1,24,35,1,-42,-1,2,15
1522235697042592,-32,-49,-21,1,-7,-2,5,-11
1522235697050613,12,-12,-12,-10,-10,-15,-7,-5
1522235697050613,42,-65,-1,-5,-28,11,9,10
1522235697065653,10,34,4,-1,-28,-10,5,8
1522235697065653,8,-13,-2,9,7,4,-13,-4
1522235697066656,-13,5,-13,-2,88,12,-31,-6
1522235697066656,24,-83,-15,9,5,-15,19,-7
1522235697087712,51,100,23,2,-30,2,10,7
1522235697087712,-25,-1,37,-5,-24,8,9,-7
1522235697088715,5,13,-24,-7,-32,-12,7,7
1522235697088715,-13,-8,32,4,3,-8,-21,-3
1522235697110774,-9,13,-22,-6,21,-2,-4,-16
1522235697110774,-9,-46,-26,-12,-27,-14,5,-8
1522235697111776,18,82,73,6,-8,6,-3,-2
1522235697111776,-93,-29,-41,-1,18,6,6,3
1522235697125813,53,-33,-8,-1,-2,-4,-1,0
1522235697125813,-60,23,30,-1,-11,-7,-12,-15
1522235697125813,41,-36,-37,-15,-61,-21,-10,17
1522235697125813,12,44,18,3,43,39,20,3
1522235697147872,-52,-18,-4,9,19,6,5,-19
1522235697147872,109,23,8,-6,13,-26,-28,13
1522235697148875,-60,-17,-23,-4,6,1,-21,-3
1522235697148875,15,22,30,26,38,11,35,18
1522235697169931,84,8,-12,-17,-24,-22,-17,-7
1522235697169931,-72,-12,-1,8,-13,-44,-45,2
1522235697170933,45,1,2,-17,-17,-31,-46,-2
1522235697170933,8,32,12,9,-40,16,-7,18
1522235697184970,-59,-14,-17,7,31,14,23,-19
1522235697184970,54,23,9,3,-7,45,50,1
1522235697185973,-69,-14,-9,-18,9,-7,11,-4
1522235697185973,-59,-32,-10,9,-65,-55,-52,-16
1522235697208032,72,-10,-2,-4,42,34,30,-1
1522235697208032,-94,21,-12,-11,-10,-32,-70,-28
1522235697209035,66,21,7,-5,-3,14,1,10
1522235697209035,-34,-46,4,-6,17,-3,46,0
1522235697230090,-5,-5,-10,-2,14,-11,-86,-1
1522235697230090,94,-4,18,8,-14,-37,30,21
1522235697231096,102,15,-28,-6,-4,9,-3,-16
1522235697231096,-43,22,13,-6,-21,2,-37,-6
1522235697245131,50,-31,5,4,8,-1,61,1
1522235697245131,-64,11,-5,-29,-7,29,7,5
1522235697246133,3,-12,-17,5,-39,-8,-3,12
1522235697246133,18,29,9,9,52,31,11,-5
1522235697268192,-66,15,7,14,6,-15,3,17
1522235697268192,31,-15,11,-14,-42,14,25,9
1522235697268192,-124,-30,-30,-3,2,21,11,-21
1522235697268192,-2,-26,1,0,22,-5,-15,0
1522235697290250,-41,-21,1,-5,-9,10,12,0
1522235697290250,-6,17,6,9,0,12,-6,-10
1522235697291253,-15,0,-21,2,8,-11,6,10
1522235697291253,31,43,8,1,14,5,-1,-5
1522235697305290,-59,-29,0,-6,-21,-16,-17,-1
1522235697305290,-12,-36,-13,5,6,-11,19,-6
1522235697306293,3,2,29,12,20,8,-7,1
1522235697306293,41,-7,-55,-17,1,-3,5,-8
1522235697327349,-22,95,69,9,-23,-3,-14,0
1522235697327349,49,-5,0,4,38,17,5,17
1522235697328352,-2,10,1,-1,-25,13,32,-1
1522235697328352,17,-4,-2,-11,-12,10,-14,-4
1522235697350410,-6,14,-23,-7,-10,-13,-3,2
1522235697350410,19,15,24,13,22,-7,-8,-2
1522235697351415,-13,4,5,19,67,17,17,7
1522235697351415,-35,9,57,-16,-90,-18,-14,-3
1522235697364447,47,-15,-70,-26,-38,-10,-5,2
1522235697364447,-33,19,-12,7,46,-8,-16,-14
1522235697372469,-60,-15,76,18,37,25,15,-13
1522235697372469,49,4,-1,4,13,-4,-4,6
1522235697387509,-19,-7,-49,-13,-89,-8,8,4
1522235697387509,-19,4,44,2,52,18,-18,-12
1522235697388511,22,44,-5,3,10,-21,11,1
1522235697388511,9,-7,-12,0,23,18,20,0
1522235697410570,-39,-25,-1,-10,-19,-17,-23,-8
1522235697410570,10,-24,-35,-19,-91,-20,5,1
1522235697411573,15,-18,-9,13,30,23,2,2
1522235697411573,-6,66,9,-4,-2,-6,8,2
1522235697424607,-14,-23,52,6,35,-7,-30,-6
1522235697424607,11,22,8,20,18,1,3,2
1522235697432629,41,-51,-55,-14,-46,-2,12,24
1522235697432629,-6,42,-10,-2,-23,2,11,-5
1522235697447668,-15,-53,-4,-13,-32,-1,-11,-3
1522235697447668,-2,15,-1,1,56,7,-5,-2
1522235697448671,-17,20,-2,-1,40,-5,-7,5
1522235697448671,13,-34,-29,2,14,-11,5,-11
1522235697470730,8,-2,4,12,22,6,10,7
1522235697470730,21,-10,17,-6,-39,-1,11,6
1522235697470730,-28,-14,-30,-12,-29,-5,-6,-5
1522235697470730,31,5,-4,0,7,-7,-14,-5
1522235697484767,18,-20,-2,9,10,-6,-9,-15
1522235697484767,90,1,-16,-19,-83,15,28,16
1522235697492789,-31,-14,8,14,63,21,-17,-8
1522235697492789,-16,-3,4,4,-5,-24,-1,-6
1522235697507828,-13,-18,-14,6,21,20,36,-1
1522235697507828,59,6,1,-7,-24,-30,-39,0
1522235697508831,-98,-14,13,6,-59,22,15,-2
1522235697508831,117,34,9,1,55,-27,-46,6
1522235697529887,-39,-25,-2,8,-9,72,32,6
1522235697529887,-25,10,-10,-6,6,-63,-23,-9
1522235697530889,101,-1,11,-19,7,31,34,-3
1522235697530889,-48,-46,-2,19,-16,-10,2,5
1522235697544927,48,64,-5,-29,-24,-15,-19,-14
1522235697544927,-104,-41,-16,3,5,51,-10,-30
1522235697545930,83,16,5,-5,6,-33,2,17
1522235697545930,-86,-33,-1,-10,-50,8,1,-7
1522235697567988,29,-21,9,-8,50,6,-12,10
1522235697567988,33,51,-15,-10,-28,-24,75,-4
1522235697568991,-126,-38,-6,9,-18,-15,-53,-12
1522235697568991,25,-7,0,-4,24,26,31,4
1522235697590047,-57,-7,12,15,21,3,25,19
1522235697590047,73,26,-7,3,11,-41,-21,-7
1522235697591050,84,26,-7,-15,-8,21,13,10
1522235697591050,-81,-53,3,-3,-18,-37,5,9
1522235697605087,82,-33,-1,0,-35,29,15,1
1522235697605087,60,-31,-31,10,58,16,-24,11
1522235697606089,-47,-23,14,-6,-1,-44,-24,-24
1522235697606089,-19,95,41,4,-4,41,4,-7
1522235697628148,-52,7,-8,3,-11,-19,9,2
1522235697628148,35,-11,-10,1,6,22,8,17
1522235697628148,9,-11,-12,-7,-34,-15,0,-7
1522235697628148,22,-10,-9,-2,15,4,-11,0
1522235697650207,12,-2,1,11,20,-17,-11,-4
1522235697650207,-91,8,20,-9,-17,8,3,6
1522235697651210,-27,-31,-8,8,4,-14,-4,1
1522235697651210,32,18,25,5,6,-6,6,3
1522235697665247,36,93,20,1,1,-26,-14,-2
1522235697665247,-32,-27,17,5,7,27,10,-5
1522235697666250,8,-17,-12,-15,-25,-17,-13,-9
1522235697666250,30,-23,-59,-2,23,4,-4,-5
1522235697688308,9,7,1,-1,-10,-14,-9,0
1522235697688308,-36,7,42,4,0,3,-4,-7
1522235697688308,13,22,13,1,-1,0,13,17
1522235697688308,26,16,-18,-5,-64,-17,3,-2
1522235697710367,-28,-90,-68,-16,3,-5,-12,-16
1522235697710367,32,91,25,8,90,32,8,11
1522235697711370,-6,-3,15,2,33,-9,-8,6
1522235697711370,-45,-112,17,11,17,17,-1,-8
1522235697725407,57,29,-1,-17,-48,-3,19,-17
1522235697725407,-35,35,24,-4,-63,3,-24,-7
1522235697726410,21,18,-43,-16,-30,-24,1,3
1522235697726410,8,-14,18,-6,-11,-15,-17,-14
1522235697747465,7,60,42,20,44,5,3,18
1522235697747465,-1,-65,-23,1,-5,9,15,7
1522235697748468,10,42,-6,-5,7,-6,-6,-8
1522235697748468,-2,31,-4,5,-38,2,5,0
1522235697770526,-67,-71,-30,-3,38,6,-9,2
1522235697770526,9,55,-12,-18,-47,-8,14,-1
1522235697771529,-32,-38,44,15,18,6,-1,-1
1522235697771529,42,9,5,2,32,8,7,10
1522235697793588,3,2,9,-3,-43,-5,-26,5
1522235697793588,-75,-18,-15,-2,46,1,-2,-15
1522235697794591,37,0,0,-2,-20,7,9,12
1522235697794591,-2,-74,-1,9,28,0,-2,11
1522235697807625,31,106,42,10,7,-5,-3,13
1522235697807625,27,-101,-20,3,-17,-10,1,1
1522235697808628,-78,-72,-25,-2,5,-5,7,-27
1522235697808628,41,82,55,2,-12,5,-2,7
1522235697830686,-56,6,-7,-16,-7,10,3,2
1522235697830686,94,-6,2,8,-18,-4,6,12
1522235697830686,-87,-24,-18,-10,1,1,-15,-21
1522235697830686,30,-27,-40,12,57,-5,0,3
1522235697853748,47,-29,-11,-4,-29,-17,-3,-2
1522235697853748,-26,30,15,-10,-23,7,-4,-1
1522235697854751,27,31,3,4,2,11,8,2
1522235697854751,-22,20,-6,-7,-10,-11,-19,-5
1522235697867785,-10,13,1,0,15,-11,-9,4
1522235697867785,60,-14,-10,-22,-45,-4,-6,2
1522235697868788,122,38,-4,0,-14,-42,-27,7
1522235697868788,7,-17,-3,14,54,40,-5,-4
1522235697889844,54,-27,-5,20,42,-6,-6,-5
1522235697889844,27,9,-1,4,3,-25,-2,8
1522235697890847,-20,13,4,-8,-39,46,-10,-19
1522235697890847,-13,39,-6,-24,-20,-3,43,8
1522235697904884,21,-35,4,14,13,10,17,30
1522235697904884,-60,11,-14,-30,-13,9,11,-57
1522235697912905,51,16,1,24,-3,24,13,5
1522235697912905,-57,5,25,12,-5,4,2,-8
1522235697927945,-99,-104,-29,-7,25,-19,-41,-19
1522235697927945,127,29,23,44,55,58,-9,28
1522235697928948,95,28,-5,-26,-59,-90,-2,-11
1522235697928948,101,52,-14,2,-10,79,12,-10
1522235697950004,-47,-51,-11,-9,18,-13,12,-10
1522235697950004,-65,2,10,9,-14,-28,-37,2
1522235697951007,82,-30,-3,9,25,-71,34,-1
1522235697951007,97,19,-3,0,-26,-16,5,14
1522235697965043,127,106,51,-6,-18,-52,-4,-1
1522235697965043,-58,-124,-23,13,6,-14,106,-16
1522235697973065,53,89,-5,0,12,-68,-75,18
1522235697973065,-103,-3,7,-10,1,10,25,-14
1522235697988105,82,20,-31,-2,-17,34,-18,-2
1522235697988105,5,40,30,-6,4,-37,37,16
1522235697989108,-64,-2,14,-4,-7,46,1,15
1522235697989108,-37,-84,-18,-2,-5,4,-11,-17
1522235698010164,8,-33,-20,-4,8,-17,-23,15
1522235698010164,-86,-83,15,1,-14,20,-2,-16
1522235698011166,40,47,-4,-5,7,26,-14,1
1522235698011166,-47,8,-1,2,-2,-21,-21,8
1522235698024201,-16,-30,-5,0,13,18,39,-8
1522235698024201,-47,10,-10,-7,-29,-38,-49,7
1522235698033225,-36,14,14,2,18,93,59,-7
1522235698033225,-39,-71,-58,3,-25,-26,-24,-20
1522235698048265,-6,84,29,1,51,-5,18,-2
1522235698048265,104,-19,5,2,16,-14,-14,10
1522235698048265,31,-18,22,5,26,66,2,-2
1522235698048265,-64,-75,-48,-12,-48,-41,71,18
1522235698070323,40,-2,8,-4,-27,-2,-24,-25
1522235698070323,22,127,18,18,44,-9,-14,14
1522235698071327,-85,-57,23,-6,-19,24,9,6
1522235698071327,-22,-2,16,-10,-27,-24,-46,-31
1522235698084361,10,-26,-33,-2,3,33,48,4
1522235698084361,8,-15,-44,-16,6,-16,-37,-1
1522235698092382,-4,14,66,18,30,11,-6,-10
1522235698092382,43,20,2,-3,-28,-25,-15,17
1522235698107422,14,88,20,-6,-15,25,16,6
1522235698107422,35,1,-59,-19,-107,-37,-39,-20
1522235698108425,83,74,22,24,83,-7,-5,-1
1522235698108425,-37,-54,-8,-4,77,-4,2,-15
1522235698130483,16,-47,31,4,4,27,-13,-13
1522235698130483,-4,2,19,-5,-57,-10,17,2
1522235698131486,60,-31,-57,-11,0,9,-25,-12
1522235698131486,-21,-61,-14,7,63,0,28,-3
1522235698144520,-77,80,21,-1,-36,-23,-17,-24
1522235698144520,-31,-84,24,-3,30,42,-9,8
1522235698152542,-31,27,12,-2,-36,-10,34,18
1522235698152542,99,53,-1,-9,-19,31,-2,18
1522235698167582,-23,-128,-119,-19,4,-34,-28,-24
1522235698167582,-41,119,86,17,12,23,14,1
1522235698168585,-38,-83,-26,-8,8,-6,8,12
1522235698168585,83,-35,-70,-4,15,4,-25,26
1522235698190643,-12,118,101,11,-29,-20,4,7
1522235698190643,9,22,-49,-6,26,-7,-12,-14
1522235698191646,-62,-15,-5,-1,34,6,6,2
1522235698191646,-61,-9,29,1,-43,-17,13,-13
1522235698213704,3,-36,-41,-2,34,-24,-35,21
1522235698213704,-15,-68,-52,-2,13,23,36,0
1522235698214707,-53,103,58,-2,-21,-25,-19,1
1522235698214707,95,63,18,-13,-15,14,15,21
1522235698227742,8,22,1,6,-40,-16,-37,-36
1522235698227742,-23,-82,-11,-4,20,24,-7,5
1522235698228744,-119,-44,-93,-5,15,-14,12,-9
1522235698228744,103,79,97,25,20,37,23,15
1522235698250803,-91,-50,-28,-10,-20,-11,-15,-21
1522235698250803,127,32,6,6,-8,-11,-6,31
1522235698250803,-73,-128,-47,-16,-45,24,12,-39
1522235698250803,75,42,-1,-5,13,-38,-60,2
1522235698272862,21,-13,18,13,8,45,31,7
1522235698272862,-58,-12,-10,-16,-48,55,32,-8
1522235698273865,33,46,4,0,42,-8,-21,4
1522235698273865,37,-37,3,15,26,8,-20,1
1522235698287901,103,-15,-11,-5,3,45,2,11
1522235698287901,-33,1,3,2,35,-15,16,1
1522235698288904,114,67,16,0,-37,-46,-25,-8
1522235698288904,-51,-39,-22,0,-9,9,-15,-13
1522235698309960,106,8,16,-6,-38,-34,-16,42
1522235698309960,84,13,-7,16,71,37,-14,-10
1522235698310963,6,15,14,-1,-11,-9,-25,7
1522235698310963,-28,-10,-23,-10,-7,-11,24,-11
1522235698333022,10,-12,-10,-14,-4,-7,14,-11
1522235698333022,65,50,27,-20,-36,15,-18,7
1522235698334024,-11,-14,-18,25,43,4,66,-4
1522235698334024,-23,-10,29,-13,-54,-3,35,0
1522235698348061,-3,44,-2,9,16,-30,-50,4
1522235698348061,16,-35,-5,-8,15,44,30,-14
1522235698349064,64,-23,-15,-10,-15,51,0,-16
1522235698349064,-79,53,-14,-11,-21,-2,-17,-7
1522235698370120,-34,34,35,17,0,40,51,23
1522235698370120,-38,-63,-12,12,10,-55,-45,-4
1522235698371124,114,22,7,-1,-39,-12,-3,22
1522235698371124,4,28,-9,6,13,5,10,-10
1522235698393181,-28,-86,-12,-11,15,26,27,8
1522235698393181,-47,67,7,3,-14,-28,-10,-3
1522235698393181,-64,-2,12,-13,-12,5,-5,11
1522235698393181,-111,21,-48,-1,14,-19,-12,-2
1522235698408221,-70,22,66,7,-9,-21,7,-8
1522235698408221,-25,-7,-9,-5,-38,-18,4,-6
1522235698408221,52,-24,-19,15,49,14,-5,1
1522235698408221,13,-46,1,9,52,14,-2,3
1522235698430280,-44,-29,-20,8,11,4,12,-8
1522235698430280,-19,101,17,-7,-26,5,-5,7
1522235698431283,-22,-54,-30,-10,-18,-7,-3,-13
1522235698431283,1,8,42,3,-7,-7,-12,-6
1522235698453341,40,0,2,2,-1,4,9,9
1522235698453341,9,-32,-5,-6,-1,-28,-6,-19
1522235698453341,-30,49,-26,-5,4,-28,-13,-8
1522235698453341,9,-10,47,9,-23,15,0,-6
1522235698467379,-21,-12,-46,-25,-21,9,18,-21
1522235698467379,19,13,3,6,-22,-10,-24,14
1522235698468381,9,48,2,-3,27,-19,3,16
1522235698468381,46,-85,1,16,32,14,-4,6
1522235698490440,-58,-8,-25,11,38,2,-1,-17
1522235698490440,10,-32,19,-1,17,-7,-4,-5
1522235698491443,-38,5,22,7,-55,-4,13,3
1522235698491443,55,58,-16,-11,13,-8,-9,-4
1522235698512499,23,-66,-12,-18,-17,5,7,17
1522235698512499,-5,-31,-68,9,38,-2,15,2
1522235698513501,-20,54,71,-8,-50,-21,-25,-10
1522235698513501,14,-24,-10,7,20,4,12,23
1522235698527538,57,37,-58,-11,-23,-15,-2,17
1522235698527538,-16,75,-2,5,-17,20,0,-19
1522235698528541,-27,-59,28,14,58,4,2,-8
1522235698528541,27,40,1,-3,-57,-25,-1,1
1522235698550600,30,31,3,-8,-25,-3,2,6
1522235698550600,-20,51,-15,12,77,-11,-9,-5
1522235698551603,-74,-63,0,-16,-62,19,-12,-21
1522235698551603,-21,95,2,-17,33,-1,-9,6
1522235698572658,-24,-101,9,7,-22,-43,-30,-11
1522235698572658,-91,6,24,6,25,5,25,5
1522235698573661,101,21,-19,-5,-57,-38,-15,5
1522235698573661,-33,-100,-47,-17,8,36,-42,-32
1522235698586696,-27,41,-9,6,25,8,12,11
1522235698586696,26,-116,15,-4,-22,0,18,-1
1522235698595720,12,78,-9,2,58,12,18,20
1522235698595720,-23,-57,20,-3,-71,-23,-14,-3
1522235698610759,79,27,-17,-7,10,5,-7,-14
1522235698610759,-64,-9,5,-3,-7,13,0,11
1522235698610759,77,-49,-28,-6,-22,-3,0,-13
1522235698610759,15,85,25,2,0,1,11,-3
1522235698632818,-39,16,19,11,24,0,-11,-8
1522235698632818,-11,-54,-39,-12,-11,-12,6,-7
1522235698633821,24,80,5,-3,-9,8,0,12
1522235698633821,-4,15,3,8,17,-4,9,-8
1522235698646855,-58,-66,-1,4,12,-4,-7,8
1522235698646855,50,24,17,-11,-28,33,5,2
1522235698654877,27,-44,-35,-12,-20,-18,2,5
1522235698654877,-25,14,-6,-10,-5,-42,5,-2
1522235698669917,89,75,33,15,14,-23,42,16
1522235698669917,-101,-46,-7,-9,2,30,-11,-9
1522235698670920,-60,-38,9,5,-27,2,10,5
1522235698670920,119,43,0,13,-37,13,25,12
1522235698692978,0,-14,11,-40,33,1,22,-4
1522235698692978,-7,-12,-22,18,44,-26,-21,-12
1522235698693981,-13,-7,2,5,24,-38,17,5
1522235698693981,25,33,19,-7,-42,13,-8,8
1522235698708018,-39,7,4,13,18,39,-16,24
1522235698708018,-15,-31,-11,-4,-6,26,21,-29
1522235698709021,71,29,9,-18,-51,2,-20,1
1522235698709021,74,-68,-5,25,58,-6,-9,17
1522235698730077,-55,73,-5,-15,-22,11,-14,-33
1522235698730077,70,3,27,14,56,-19,-68,14
1522235698731080,-49,-19,4,9,4,-18,36,-3
1522235698731080,-47,1,-11,-27,-14,33,1,-1
1522235698753138,11,12,-1,20,-7,67,40,-7
1522235698753138,-13,-10,0,-23,-50,-44,-45,-5
1522235698754141,16,-51,-7,17,43,21,7,1
1522235698754141,-71,-9,18,3,18,25,-21,-9
1522235698776199,-2,47,-7,-4,-30,-19,-18,-10
1522235698776199,32,-57,-52,-13,-7,-10,21,3
1522235698777202,6,32,23,8,42,37,8,-1
1522235698777202,-128,77,68,10,3,-25,4,-18
1522235698790237,30,-17,-11,-3,-26,-31,-15,3
1522235698790237,34,28,9,-1,-16,8,20,8
1522235698791242,-13,-40,-45,-13,4,1,-16,10
1522235698791242,32,-30,-25,2,1,-16,8,4
1522235698813298,-5,-60,7,1,6,-9,-5,-3
1522235698813298,6,75,61,7,-3,-4,11,3
1522235698813298,-47,12,-16,-1,-7,6,-20,-8
1522235698813298,13,-44,-25,-10,-5,7,4,1
1522235698827335,-16,72,23,5,3,4,-1,6
1522235698827335,-21,-45,10,-4,-17,-10,6,2
1522235698828338,-4,-36,-12,-3,-7,-5,-14,-10
1522235698828338,14,-5,-20,5,27,-5,5,-7
1522235698850397,-3,-10,-31,-3,-1,-34,-7,5
1522235698850397,17,-22,1,2,-19,12,7,-4
1522235698851399,1,5,11,3,-3,19,0,1
1522235698851399,8,8,-6,-7,-47,0,0,-2
1522235698872455,-25,-33,2,-8,-21,-24,-4,-22
1522235698872455,-40,34,-3,7,83,-1,-2,5
1522235698873458,1,-10,-18,12,18,-5,-7,-7
1522235698873458,-35,-39,-8,9,7,6,3,-1
1522235698887495,-5,40,23,-15,-47,-4,-18,3
1522235698887495,0,-18,76,2,-117,-27,8,0
1522235698895517,27,-44,-48,-19,47,48,11,20
1522235698895517,-12,-66,8,12,41,-8,-36,-27
1522235698910556,35,97,-15,18,28,-11,7,3
1522235698910556,-23,-87,52,23,33,16,20,8
1522235698911561,56,38,30,-27,-102,12,-13,22
1522235698911561,32,13,-18,-14,-23,-18,5,-9
1522235698932615,-20,-96,-36,-2,45,42,-8,4
1522235698932615,25,53,-65,-1,39,-12,-7,6
1522235698933618,-27,61,85,41,62,-48,-6,-12
1522235698933618,7,7,-12,-21,-101,21,9,13
1522235698947655,-57,-18,-7,-9,-22,-27,-16,9
1522235698947655,-5,-57,-32,-17,13,28,26,-8
1522235698955676,-53,-92,-13,2,10,-11,-29,-15
1522235698955676,-18,1,-17,7,19,-12,11,22
1522235698970716,30,26,106,21,14,-9,7,-4
1522235698970716,47,31,-18,-21,-91,-20,-16,9
1522235698970716,81,13,-34,5,30,16,22,6
1522235698970716,-95,-26,-12,6,41,21,6,-6
1522235698992775,5,58,2,-2,-13,-11,5,-1
1522235698992775,28,70,-22,-8,-2,8,-6,-6
1522235698993778,67,-42,48,-6,-52,-6,7,-1
1522235698993778,-51,-5,3,6,13,-16,2,1
1522235699006812,54,-19,-36,-9,-4,22,-12,-2
1522235699006812,4,-12,-30,6,41,4,-6,5
1522235699015836,12,7,23,1,-19,-38,-3,0
1522235699015836,53,112,69,-9,-32,14,2,2
1522235699029873,22,-52,-18,-8,-14,33,17,-4
1522235699029873,5,20,-16,0,11,-22,-12,15
1522235699030877,-117,-45,-28,-5,-45,-34,9,-11
1522235699030877,67,-2,-10,6,79,58,29,-6
1522235699052935,-52,-30,7,-8,-60,-52,-26,-3
1522235699052935,60,39,13,8,-19,56,-19,2
1522235699053938,43,28,-13,7,76,-47,35,-10
1522235699053938,116,0,-11,-6,-18,-65,-62,19
1522235699066972,-59,-2,-14,-1,19,-14,-2,-36
1522235699066972,17,-48,5,-24,-17,8,25,14
1522235699074993,32,9,7,29,23,-29,-30,-22
1522235699074993,22,33,-16,-12,-21,-36,16,-4
1522235699090033,127,11,-1,5,12,28,0,26
1522235699090033,15,25,-7,-7,-13,-44,-33,-18
1522235699091036,-46,-46,0,-10,-12,89,40,3
1522235699091036,41,21,19,15,32,-53,-3,17
1522235699113095,59,44,-22,-18,-16,-58,-61,-9
1522235699113095,-119,-15,2,5,1,3,-6,-3
1522235699114098,-65,27,13,9,-8,49,13,7
1522235699114098,-35,-57,-21,-5,-29,14,-17,-22
1522235699127132,74,-45,11,-1,21,12,8,10
1522235699127132,-20,9,-9,-11,34,10,26,-7
1522235699135153,1,20,0,4,-36,-2,-9,13
1522235699135153,18,12,-7,-10,37,-8,-18,0
1522235699150193,-128,-38,-5,8,6,3,-3,-15
1522235699150193,-6,15,18,11,14,5,29,12
1522235699151197,11,8,-15,-27,-31,-18,-35,-17
1522235699151197,28,-38,-25,9,-1,-2,32,-2
1522235699173255,3,17,5,3,-3,16,37,16
1522235699173255,-30,-48,20,7,9,-13,-27,-8
1522235699173255,-67,41,20,-1,-3,3,-7,2
1522235699173255,3,12,-19,-11,-10,22,-1,-33
1522235699187291,38,-51,-49,2,19,11,0,12
1522235699187291,-37,81,28,0,-31,-6,5,-12
1522235699195313,40,-33,1,1,12,17,2,2
1522235699195313,-53,-13,6,-1,-8,13,5,2
1522235699210353,-42,-18,-15,-2,2,5,11,3
1522235699210353,61,55,-5,1,-3,-6,3,1
1522235699211356,-19,-25,-15,-7,4,5,0,-3
1522235699211356,-46,18,3,0,3,-6,-22,0
1522235699232412,-2,15,41,8,-2,-13,4,-1
1522235699232412,21,-23,0,-2,0,9,7,-1
1522235699233414,-64,-41,-4,-8,-2,2,-20,-9
1522235699233414,-6,-19,-17,1,-11,6,7,-4
1522235699256476,12,1,1,-6,-7,7,-6,6
1522235699256476,-11,11,21,-5,-18,5,9,0
1522235699257478,6,51,-43,-8,11,-8,3,-1
1522235699257478,2,-23,26,18,39,4,-7,-6
1522235699270513,-29,44,-23,-4,-7,-17,14,-14
1522235699270513,50,-76,-22,-4,8,8,-24,9
1522235699271516,19,74,19,9,2,-23,-3,10
1522235699271516,40,91,2,-34,-74,41,17,8
1522235699292571,-28,-84,-19,23,45,14,6,8
1522235699292571,-7,106,-5,-6,-26,7,-1,-15
1522235699293574,-12,-48,9,-2,9,-4,-19,-7
1522235699293574,51,78,5,13,25,-23,-16,-4
1522235699315633,-12,-110,-68,-24,-57,-7,-8,-1
1522235699315633,-12,72,89,11,20,-10,30,-4
1522235699316636,-2,-74,-22,-10,-34,9,-31,-4
1522235699316636,-5,-37,-28,-9,-5,-10,3,2
1522235699330673,-114,-56,15,0,-11,6,0,-17
1522235699330673,22,-91,-51,-9,-25,-28,-9,6
1522235699331676,-28,98,5,0,55,39,46,-2
1522235699331676,-7,-59,21,12,16,-1,-23,13
1522235699352731,4,41,24,2,-20,-5,2,-18
1522235699352731,-15,-10,-25,0,41,19,-12,0
1522235699353734,30,-13,1,0,-7,-16,14,3
1522235699353734,-27,-31,-7,1,9,-7,3,6
1522235699375793,-41,20,8,-4,-33,13,-1,-2
1522235699375793,2,-19,-14,1,12,8,24,-7
1522235699375793,5,-49,0,5,2,-3,-10,-4
1522235699375793,-11,-25,-13,2,14,14,11,-3
1522235699390837,-1,93,58,5,5,-5,-8,-2
1522235699390837,44,-41,-12,0,-10,-1,-1,13
1522235699390837,-27,-17,-16,-3,-11,-7,-12,-8
1522235699390837,-75,0,10,-1,-13,-25,-2,-8
1522235699412891,37,5,4,1,28,21,10,8
1522235699412891,82,11,-19,-5,-11,4,10,-4
1522235699413894,2,19,10,4,16,-22,27,-2
1522235699413894,1,-7,2,-6,6,24,-33,2
1522235699434950,57,-5,-8,13,9,75,-36,-7
1522235699434950,14,0,-12,-4,-6,-32,-6,-8
1522235699435953,-30,-13,3,-22,-77,-63,-33,5
1522235699435953,-10,-20,-4,14,28,35,64,-5
1522235699449990,30,7,0,5,58,-2,1,13
1522235699449990,-68,-7,-3,-7,7,30,-77,-12
1522235699450993,123,19,9,23,-4,-6,11,-1
1522235699450993,-10,12,-2,-11,-15,5,-6,-5
1522235699473051,127,37,10,-22,-17,-34,9,16
1522235699473051,-80,-35,-12,-6,-8,-14,-6,-5
1522235699474054,-103,-7,-4,-1,-2,16,16,-7
1522235699474054,127,44,-6,-13,-14,-28,-20,14
1522235699495110,-112,-38,-8,6,12,-4,23,-16
1522235699495110,46,30,7,-3,-12,-5,13,8
1522235699496113,74,18,8,4,18,19,-25,4
1522235699496113,25,-39,10,5,-4,-11,2,-5
1522235699510150,34,-20,-2,-2,5,-11,36,-3
1522235699510150,66,7,-23,-7,-21,-15,-16,2
1522235699511153,15,3,-10,3,11,10,4,7
1522235699511153,-3,62,39,3,-1,2,-1,6
1522235699533211,-128,-58,0,-1,-13,-11,-17,-11
1522235699533211,-11,0,6,11,21,7,19,12
1522235699533211,39,-11,-28,-7,4,4,-12,-7
1522235699533211,-85,12,2,-10,-24,1,1,2
1522235699555270,-52,-21,5,10,1,-4,3,3
1522235699555270,-35,3,1,7,-3,15,11,-3
1522235699556272,-41,9,1,-13,-82,-43,-45,-3
1522235699556272,-24,-18,-10,14,93,35,32,-3
1522235699570310,-29,17,5,-6,6,28,15,8
1522235699570310,7,-8,-4,-9,2,-18,13,-3
1522235699571312,-17,0,2,-7,-29,6,-13,0
1522235699571312,-1,-13,6,3,-6,-49,-10,-2
1522235699593371,83,31,-13,-11,-8,1,-17,-11
1522235699593371,41,-9,-27,-4,2,-4,15,10
1522235699593371,-2,-4,22,0,21,7,17,-5
1522235699593371,23,-23,-24,2,-35,-25,-4,6
1522235699615429,30,82,21,3,10,0,11,6
1522235699615429,-48,-63,-21,-7,-13,-7,-8,-15
1522235699616432,11,-15,-3,6,18,9,-10,6
1522235699616432,-11,-21,-5,-4,-7,3,2,-7
1522235699630470,-4,19,-1,4,1,-11,-8,1
1522235699630470,-8,-16,3,3,-4,9,-17,2
1522235699631472,11,-25,-3,9,54,13,24,16
1522235699631472,67,61,2,-9,-19,1,2,6
1522235699652528,-15,-11,10,-6,-33,-9,-11,-3
1522235699652528,-25,-31,-10,-9,-32,-8,-14,-12
1522235699653531,-3,-15,18,6,45,15,8,-6
1522235699653531,-39,-12,4,4,21,-9,-2,-23
1522235699675589,4,-10,-1,-17,-97,-22,-22,-4
1522235699675589,46,120,5,10,98,17,26,2
1522235699676592,-24,-20,-2,1,5,-7,-2,-13
1522235699676592,-11,-17,27,-6,-63,15,-15,0
1522235699690629,-30,-61,-32,7,60,7,1,-13
1522235699690629,3,-26,24,-14,-80,-40,-26,9
1522235699691632,-1,104,4,1,58,42,40,1
1522235699691632,-32,-70,-26,-6,-53,-42,-27,-8
1522235699712688,27,35,-4,13,107,10,-5,3
1522235699712688,16,55,39,-5,-37,-4,-7,9
1522235699713691,21,-91,-5,-3,-65,-5,8,3
1522235699713691,-18,25,-8,6,73,13,17,4
1522235699735749,37,-44,-22,-10,-28,-10,-21,3
1522235699735749,-37,16,-5,13,36,-19,22,-5
1522235699735749,-12,5,-9,-3,14,0,-41,-8
1522235699735749,25,-58,14,-5,-41,14,26,14
1522235699758811,-44,-38,10,-5,-38,-48,-22,-4
1522235699758811,40,-1,-5,5,48,-3,28,1
1522235699759814,-23,37,4,10,38,20,-49,2
1522235699759814,-63,-31,-38,-13,-74,-29,-35,-17
1522235699772848,-11,60,14,15,67,27,12,-4
1522235699772848,7,4,53,8,-23,8,-18,6
1522235699773850,-48,-41,-22,-4,-29,-3,17,-11
1522235699773850,43,46,-11,3,40,43,-11,8
1522235699795909,53,0,-4,2,-16,-17,4,22
1522235699795909,15,-29,-30,-6,-6,-15,3,-16
1522235699795909,-9,-11,9,-4,-58,-35,-2,8
1522235699795909,101,95,26,4,-12,62,51,-4
1522235699809946,39,-42,-16,2,78,-18,6,-16
1522235699809946,82,22,-19,2,23,-19,-32,12
1522235699817968,37,-6,5,-4,11,14,13,3
1522235699817968,-15,15,0,10,8,2,51,17
1522235699833008,20,38,26,-12,-80,96,37,8
1522235699833008,-60,-61,-58,0,13,-48,-76,-42
1522235699834011,-65,28,7,-3,9,-16,20,-2
1522235699834011,0,3,39,0,32,-49,-44,-6
1522235699855066,86,-32,-24,-3,-23,24,40,8
1522235699855066,-27,-55,-11,-17,-60,20,-60,1
1522235699856069,36,0,-1,4,-66,-11,11,-2
1522235699856069,70,2,-35,-12,74,24,36,3
1522235699870106,42,50,-45,-16,-17,-33,-22,11
1522235699870106,-100,-64,52,9,-17,1,19,-3
1522235699878128,105,58,12,2,10,-26,7,5
1522235699878128,-96,-1,-4,-8,-12,-27,-62,0
1522235699893167,43,-58,-38,-6,-3,-13,-12,2
1522235699893167,-46,49,17,4,5,12,13,-3
1522235699893167,41,-17,-2,-5,-22,41,-4,-8
1522235699893167,-1,-9,0,1,3,-17,6,2
1522235699915226,-81,35,-6,0,7,13,0,7
1522235699915226,-19,-4,28,6,6,-40,6,3
1522235699916229,-47,7,26,6,17,8,22,-8
1522235699916229,34,-78,-59,-2,-47,-9,-17,-10
1522235699929263,-31,8,6,8,39,4,0,-6
1522235699929263,37,75,10,-5,-10,29,35,3
1522235699938287,-12,32,-27,-5,12,-4,-16,7
1522235699938287,-15,23,20,-1,-14,-4,3,5
1522235699953328,-30,6,-5,-5,-24,-20,-6,-2
1522235699953328,6,-47,9,8,13,9,13,3
1522235699953328,-4,-1,-55,-9,4,-3,-15,-7
1522235699953328,-57,39,71,10,2,5,0,-8
1522235699975386,18,44,23,8,5,-16,2,8
1522235699975386,6,-10,-48,-5,10,12,5,0
1522235699976389,2,-11,-24,-6,7,2,-3,5
1522235699976389,-27,24,4,1,-5,3,11,-5
1522235699989424,-34,-35,6,-1,-25,-13,-8,-5
1522235699989424,15,4,-15,-14,-26,13,8,12
1522235699997445,-7,9,9,0,-13,-8,-2,-4
1522235699997445,25,-64,-59,-3,26,-4,-4,5
1522235700012485,-1,43,75,-3,-89,-31,-10,-5
1522235700012485,-38,-15,-11,17,111,54,8,-11
1522235700013488,8,-41,-1,9,24,-2,6,2
1522235700013488,3,-54,-15,-8,-44,6,-6,-4
1522235700035546,-32,3,-29,-12,21,2,0,-2
1522235700035546,28,-47,3,5,-14,-11,8,17
1522235700036549,-1,51,3,0,9,8,-3,7
1522235700036549,61,-40,32,6,32,-8,4,1
1522235700049583,-94,-27,-21,0,-16,1,-9,-26
1522235700049583,7,-44,-16,-3,-1,-3,6,1
1522235700057607,-11,-23,17,5,1,-20,-15,-9
1522235700057607,-1,66,-30,-18,-38,3,-1,7
1522235700072645,40,48,80,7,-11,9,9,7
1522235700072645,-20,-56,-2,-9,-1,-2,-2,2
1522235700073648,-20,-32,-29,-3,-62,6,11,1
1522235700073648,-33,96,9,-2,22,-8,-14,-2
1522235700095706,6,-79,-12,7,47,13,10,7
1522235700095706,-31,97,-36,-14,2,-6,-10,-22
1522235700095706,12,40,72,11,-13,-10,-6,-5
1522235700095706,-12,3,-3,-4,-37,0,3,-8
1522235700117764,35,-55,-23,2,62,9,2,4
1522235700117764,22,15,-67,-3,-28,-8,9,3
1522235700118767,-73,7,11,-9,-9,-2,-15,-24
1522235700118767,-26,-1,52,8,0,6,1,-8
1522235700132804,1,16,-17,1,7,-7,-5,-4
1522235700132804,3,2,9,-1,-44,-13,-6,-5
1522235700133807,40,-2,-15,2,54,17,12,12
1522235700133807,-7,-3,-15,0,10,-10,-1,4
1522235700154863,9,26,12,-5,-7,-6,1,-1
1522235700154863,39,21,27,2,-45,12,6,9
1522235700155866,-21,-59,-7,13,27,4,-8,12
1522235700155866,-24,-41,-18,-7,-1,26,23,0
1522235700178927,9,-5,-5,-12,-36,-15,8,3
1522235700178927,114,53,23,14,10,30,-20,9
1522235700178927,-69,-33,-11,14,34,-39,44,-23
1522235700178927,-31,-28,-10,-1,4,-17,-21,-3
1522235700192964,-7,26,2,-6,-22,-30,-7,-1
1522235700192964,9,89,52,12,-94,-70,-8,28
1522235700193967,-39,-99,-77,-39,51,15,-15,-84
1522235700193967,61,90,-5,2,30,0,7,17
1522235700215023,11,-47,-17,-6,-21,12,14,-7
1522235700215023,71,49,48,6,-1,29,11,18
1522235700216026,-16,-59,2,4,8,-26,-48,10
1522235700216026,78,-21,-60,-16,-28,-26,-44,-28
1522235700239087,83,70,44,10,18,11,26,22
1522235700239087,-96,-60,6,-18,1,-9,-45,-36
1522235700239087,-40,25,-8,-3,-9,64,70,20
1522235700239087,44,-9,-15,-12,2,21,-65,2
1522235700253124,-23,34,5,6,-11,-31,2,14
1522235700253124,39,-21,11,0,-71,2,8,2
1522235700254127,43,-6,10,8,66,-96,-24,-1
1522235700254127,-111,39,-3,2,-12,21,17,-1
1522235700275183,2,-32,-9,-1,-5,19,-10,7
1522235700275183,-86,-56,-4,1,25,16,36,-1
1522235700276186,124,85,0,-7,-49,4,-29,10
1522235700276186,26,-20,-12,1,-7,-5,9,13
1522235700298244,-17,-14,5,-2,12,13,-7,-8
1522235700298244,-15,-12,-19,-6,14,-5,11,-7
1522235700299247,-9,49,18,15,-14,15,-2,8
1522235700299247,-79,-58,-8,-3,9,-15,8,-12
1522235700313284,-59,18,36,12,6,7,-8,-15
1522235700313284,30,-34,-17,-4,25,0,-1,-7
1522235700313284,40,84,19,-6,-33,11,2,16
1522235700313284,-24,-29,0,8,-16,-1,15,-4
1522235700335343,19,-67,-40,-8,22,-8,-17,-5
1522235700335343,21,63,27,4,33,-3,-2,-4
1522235700336346,6,-11,-1,0,-15,14,5,9
1522235700336346,-18,-71,-43,-8,-11,-9,4,-2
1522235700358404,-34,-8,56,10,-16,0,-8,-8
1522235700358404,-3,19,-43,-5,23,4,4,3
1522235700359407,-11,-23,28,-2,-24,9,-1,-6
1522235700359407,23,-8,22,7,4,-3,5,4
1522235700372441,-21,-50,-53,-9,-2,-4,-4,-4
1522235700372441,-25,46,26,-1,10,4,6,-11
1522235700373444,15,-15,-5,-15,-35,-4,-4,6
1522235700373444,3,-3,-1,13,-23,-24,-8,2
1522235700395503,14,-6,7,9,44,56,9,-3
1522235700395503,26,8,-2,-4,-25,-2,16,-1
1522235700396505,7,-41,-25,2,26,-8,11,10
1522235700396505,27,94,29,1,-22,12,1,-1
1522235700418564,-29,60,26,-2,4,-28,-21,-6
1522235700418564,-22,-81,-28,2,4,-7,-3,8
1522235700419567,24,3,-30,-3,-18,19,5,11
1522235700419567,-11,34,36,-2,-1,5,11,-7
1522235700432601,-3,-18,-26,-7,-11,-19,-20,-10
1522235700432601,-25,17,-31,0,47,-6,-1,-10
1522235700433604,7,-34,18,5,-42,-7,-7,-3
1522235700433604,-15,-11,2,-16,-13,2,6,8
1522235700455662,9,26,-40,-2,12,7,-1,0
1522235700455662,-22,-8,38,2,-30,-12,-6,-4
1522235700456665,-7,-8,-10,-1,4,4,3,0
1522235700456665,-11,-28,-12,-2,3,7,2,4
1522235700477721,-2,77,19,2,6,2,14,2
1522235700477721,-2,-46,-47,-3,7,4,2,4
1522235700478724,8,-41,44,19,32,6,-3,3
1522235700478724,34,46,9,-16,-69,-14,-2,-5
1522235700492761,-12,-3,-38,-12,-3,-1,-3,-6
1522235700492761,-24,39,22,6,-8,-3,-9,-3
1522235700493764,-9,-30,36,11,12,13,8,-1
1522235700493764,25,-26,-14,-3,24,1,7,11
1522235700515822,39,8,29,6,-20,-5,0,-2
1522235700515822,30,3,-8,0,15,21,1,2
1522235700515822,6,64,-17,-10,-28,-16,-7,-1
1522235700515822,-10,-35,-2,8,20,-2,7,-4
1522235700537881,2,-25,-8,-2,-11,-7,-7,-4
1522235700537881,6,-22,15,-2,-10,-6,1,4
1522235700538884,-11,79,-3,5,-5,3,15,-1
1522235700538884,-32,-46,-5,2,27,19,-24,-10
1522235700552921,5,-15,-9,-19,-54,-17,11,3
1522235700552921,69,-6,-10,5,65,-9,5,5
1522235700553926,-16,-15,-7,1,-12,22,15,-4
1522235700553926,-4,-21,6,8,21,2,-5,-3
1522235700574980,-1,23,3,-9,-42,-25,5,0
1522235700574980,1,-20,1,5,11,-12,-38,-8
1522235700575982,-27,7,-3,5,12,-4,-1,4
1522235700575982,-6,30,18,6,25,-2,3,6
1522235700598041,19,-51,-13,3,-2,3,20,-5
1522235700598041,-20,-12,-20,-21,-16,-19,-39,-8
1522235700599044,-44,59,14,3,14,49,26,3
1522235700599044,10,36,31,-9,-17,-29,-48,-11
1522235700612078,41,33,2,2,-6,13,14,5
1522235700612078,-89,-39,-10,-11,1,-27,-11,-17
1522235700620099,44,-39,0,5,14,17,-26,6
1522235700620099,36,4,-12,-20,-13,19,30,-3
1522235700643161,82,36,1,25,6,6,11,15
1522235700643161,35,7,12,1,21,-15,-12,17
1522235700644164,58,-35,-23,-2,-26,-29,2,-17
1522235700644164,100,0,7,2,2,20,9,-2
1522235700658201,-52,-27,-6,14,0,-16,-14,-1
1522235700658201,-66,0,-2,5,1,36,-12,13
1522235700658201,89,38,-2,-9,-9,12,-35,-11
1522235700658201,-87,20,0,-3,-8,-40,32,1
1522235700672238,-19,-68,-26,-6,3,48,20,-5
1522235700672238,-18,79,48,9,-17,2,31,-5
1522235700680259,-88,-22,0,-8,4,-28,-6,-6
1522235700680259,32,17,7,2,-8,0,-4,5
1522235700695299,-42,-12,-3,-11,-7,-20,-23,-3
1522235700695299,31,-37,-21,6,8,10,17,-5
1522235700696302,-52,16,-6,-8,2,-18,-9,-1
1522235700696302,-60,-96,-23,3,3,4,-2,3
1522235700718361,-23,26,1,-3,17,-13,9,-2
1522235700718361,61,24,32,0,-24,15,17,3
1522235700718361,-60,-5,9,-3,-5,-17,-5,4
1522235700718361,2,-13,-9,2,11,-18,-26,-3
1522235700734403,-14,-38,-9,-6,8,-1,-15,-6
1522235700734403,2,-39,-29,-6,-13,3,15,-2
1522235700735406,21,30,19,-2,3,-3,-9,7
1522235700735406,-18,51,-1,4,10,7,14,-6
1522235700755459,29,-67,0,-8,-30,-10,-12,4
1522235700755459,-67,30,32,9,60,24,8,-9
1522235700756462,18,-4,-31,-7,-15,-4,13,6
1522235700756462,36,32,18,7,2,7,11,6
1522235700777518,-18,-42,-3,1,23,-4,-17,-11
1522235700777518,31,44,-17,-4,-27,-11,-7,6
1522235700778521,-23,-9,16,8,10,-2,-2,-7
1522235700778521,12,-54,-21,-10,-8,-3,-13,-3
1522235700792558,-8,20,-24,-6,0,4,-1,2
1522235700792558,-10,4,39,-13,-74,-3,0,-16
1522235700800579,33,46,-35,19,87,2,5,-2
1522235700800579,24,20,10,23,37,2,0,6
1522235700815619,-26,-6,10,-26,-70,11,7,22
1522235700815619,11,5,-33,-14,-6,6,5,-6
1522235700816622,11,-33,27,6,-14,-17,-12,-3
1522235700816622,-17,-19,-2,8,17,-4,4,-4
1522235700837678,-15,-23,-31,0,36,16,1,-4
1522235700837678,0,-36,21,6,16,4,0,-10
1522235700838681,25,56,15,-11,-57,-22,0,-4
1522235700838681,-24,-56,0,-6,-4,11,-2,5
1522235700860739,16,70,41,11,15,-4,-16,-4
1522235700860739,3,-26,-24,-4,-12,-5,2,12
1522235700861742,-7,-49,-10,9,19,4,0,-10
1522235700861742,2,39,19,-4,-10,7,10,11
1522235700875779,11,42,-8,5,9,-4,10,-1
1522235700875779,-6,-76,-34,3,-1,-5,-13,-4
1522235700875779,-21,-20,6,-13,-20,3,5,-7
1522235700875779,0,42,2,1,-2,-4,-10,-3
1522235700897838,-11,25,6,-1,11,2,6,-8
1522235700897838,10,-41,-20,3,10,-3,26,13
1522235700898841,0,29,35,6,1,-5,-25,3
1522235700898841,-29,-110,-39,-13,-26,1,6,-19
1522235700911875,0,79,20,7,16,-15,-9,-6
1522235700911875,13,11,13,9,-1,-6,12,-5
1522235700919896,-5,-10,-23,-14,-30,86,31,18
1522235700919896,-21,7,10,4,15,-40,-85,-9
1522235700934936,-19,-25,-3,-2,5,6,17,-4
1522235700934936,-3,38,-7,1,-4,-15,-27,10
1522235700935939,12,-25,-12,-9,4,37,12,-7
1522235700935939,92,58,25,5,2,-51,8,15
1522235700957998,-85,-50,-6,-6,-11,-10,-17,-13
1522235700957998,0,-5,1,-2,2,-1,11,-8
1522235700959001,66,1,-15,-3,4,-6,-64,4
1522235700959001,-16,-35,4,6,0,-21,34,9
1522235700981059,80,-45,-25,-6,-6,-28,-49,-2
1522235700981059,54,71,18,0,8,46,13,-4
1522235700982062,-32,10,6,2,-10,-63,61,10
1522235700982062,24,11,-9,-15,-1,44,-15,-3
1522235700995096,44,29,25,15,4,-64,48,10
1522235700995096,94,31,-17,-10,3,17,21,6
1522235700996099,6,2,2,7,8,-42,-30,48
1522235700996099,-34,33,-12,-11,-4,-6,-31,-87
1522235701018157,62,-78,-1,0,-31,52,30,6
1522235701018157,-84,11,5,4,12,-10,-50,7
1522235701019160,22,16,-4,-4,-26,9,93,35
1522235701019160,-47,-2,-17,-4,4,-18,-55,13
1522235701041219,42,-8,-33,-2,17,23,43,51
1522235701041219,25,70,48,2,-6,19,3,-24
1522235701042221,-125,-128,-43,-1,-7,3,-33,-36
1522235701042221,-50,49,-2,-7,4,5,12,-4
1522235701055256,86,62,18,-6,1,20,-44,4
1522235701055256,-88,-79,-10,-5,-5,-40,53,20
1522235701056259,58,40,17,-1,0,3,-41,-10
1522235701056259,11,-34,-6,14,-9,51,35,-4
1522235701078317,-108,-33,12,-3,16,-19,-29,-14
1522235701078317,56,31,-8,-2,6,-17,14,-7
1522235701078317,-86,-16,12,5,-7,4,-7,-24
1522235701078317,42,-27,-12,-11,-31,-16,12,11
1522235701101378,-33,47,-1,8,6,56,-1,3
1522235701101378,35,-76,-19,3,13,5,-7,-12
1522235701101378,-60,-37,-39,-19,-1,-23,-1,-27
1522235701101378,84,108,72,11,1,-5,-28,23
1522235701115416,-69,-55,6,-3,-11,-32,10,-21
1522235701115416,31,36,4,-1,-16,-4,-8,11
1522235701116419,98,-33,-11,9,25,1,5,-3
1522235701116419,4,-55,-27,-6,3,9,46,10
1522235701137474,-1,45,30,3,-19,-10,-28,-19
1522235701137474,-39,-45,0,3,-4,-1,-35,7
1522235701138477,22,-5,-43,-4,22,12,37,-9
1522235701138477,-11,81,69,15,0,16,25,27
1522235701161539,7,15,3,-10,-21,7,-6,-22
1522235701161539,-15,-34,-58,-7,7,-23,11,1
1522235701161539,4,92,18,-4,-1,-15,-23,7
1522235701161539,0,-49,12,11,10,-8,-3,11
1522235701175580,14,14,-7,-7,-4,9,-3,7
1522235701175580,-35,-30,17,4,17,10,5,-36
1522235701176579,0,-17,-12,5,37,-4,-20,-3
1522235701176579,25,35,-23,-8,-41,-4,-2,-13
1522235701197634,-4,-89,-40,-11,1,8,7,16
1522235701197634,-33,71,13,-5,-28,14,-11,-12
1522235701198637,39,79,21,-5,-6,-31,-9,-6
1522235701198637,-18,-33,-6,15,45,47,11,13
1522235701220696,107,43,-19,-3,14,-18,3,17
1522235701220696,-34,-52,3,-1,-34,-18,-9,-17
1522235701221699,-103,5,25,-9,-34,29,22,-20
1522235701221699,35,-17,-31,-15,-18,-29,-31,-4
1522235701235736,14,30,9,1,4,-8,-14,8
1522235701235736,-9,7,0,7,19,-2,-13,6
1522235701235736,48,-4,21,0,-3,28,33,7
1522235701235736,-53,-82,-63,-2,9,-24,-2,-29
1522235701257795,-58,80,65,13,19,0,-11,-10
1522235701257795,42,28,-17,-3,1,5,-2,13
1522235701258797,30,-49,3,-7,-26,-7,-5,5
1522235701258797,-42,-62,-25,-6,-2,32,-10,4
1522235701280856,36,25,-22,-9,3,-23,13,-11
1522235701280856,-2,-25,-3,11,8,8,-7,-7
1522235701281859,-42,-8,-4,-1,-8,0,19,25
1522235701281859,27,41,28,2,7,-2,-29,-13
1522235701295895,77,9,-2,5,-10,28,-22,7
1522235701295895,6,1,4,-17,12,13,22,-28
1522235701295895,37,-20,-3,13,4,32,-20,-11
1522235701295895,47,3,13,-20,-32,-24,28,11
1522235701317955,20,-51,-19,18,-1,10,22,-29
1522235701317955,-52,19,-2,10,69,32,-89,-14
1522235701318957,67,12,-5,-3,-4,-37,64,21
1522235701318957,12,3,23,3,-3,-78,4,6
1522235701341016,96,25,-25,-20,-45,37,52,9
