timestamp,emg1,emg2,emg3,emg4,emg5,emg6,emg7,emg8
1576746832988434,-2,1,-1,1,0,-1,-3,1
1576746832988434,-2,1,-1,-1,0,0,0,-1
1576746832988434,-1,-3,-2,-1,0,-1,-1,-2
1576746832988434,0,1,-2,-1,-1,-1,1,-1
1576746832989400,3,0,-1,-1,-1,0,1,0
1576746832989400,-2,-2,-5,0,-1,1,-1,0
1576746832990400,2,0,0,0,1,-1,-1,1
1576746832990400,-1,0,-6,1,0,0,-1,-5
1576746833002370,0,-4,-3,0,-1,-1,-1,-1
1576746833002370,-1,2,-4,0,0,-1,1,-2
1576746833009393,4,1,2,0,-1,-1,0,-1
1576746833009393,-3,-3,-6,-2,-1,-1,-2,-1
1576746833017324,3,0,1,-2,0,1,2,2
1576746833017324,-4,-2,4,-1,0,-1,0,7
1576746833031330,6,-1,-1,0,-1,1,-2,4
1576746833031330,-3,-2,-3,-1,0,-2,-2,-5
1576746833042276,-4,1,-6,-3,-1,-1,-1,0
1576746833042276,6,0,-1,0,0,-2,-1,-1
1576746833055269,-3,0,0,-1,0,-1,1,-3
1576746833055269,-2,0,1,-3,0,0,-1,0
1576746833063225,-3,-2,-1,0,0,0,0,-2
1576746833063225,-2,-2,-1,-2,-1,-1,-3,-5
1576746833076233,-1,3,-4,-1,0,-2,-2,1
1576746833076233,2,-1,-2,-1,-1,-2,-2,-1
1576746833117059,-1,0,2,-3,-3,-1,0,3
1576746833117059,10,2,-4,-3,0,0,-1,-2
1576746833118056,-6,0,-4,1,-1,-2,-3,-1
1576746833118056,3,1,1,-1,0,-1,-1,2
1576746833118056,0,-2,-1,0,2,-1,-3,0
1576746833118056,0,-3,-2,0,-1,1,-1,0
1576746833122091,-3,0,-1,-1,1,-1,-1,-5
1576746833122091,-2,-4,0,-1,-1,0,1,-4
1576746833129025,2,-1,1,1,0,1,1,-2
1576746833129025,-3,-3,-1,-2,-1,0,-2,-5
1576746833137086,1,-1,-3,-1,-1,-1,-1,-3
1576746833137086,-7,-3,-1,-2,1,-3,0,0
1576746833144001,-3,-1,0,-2,0,-2,-2,-2
1576746833144001,1,1,-3,1,0,1,0,0
1576746833159048,0,0,-2,-3,0,2,0,3
1576746833159048,1,2,-1,-1,-1,-2,-3,-4
1576746833165928,-4,-1,-1,0,-2,-1,-1,-1
1576746833165928,0,-2,-2,1,-1,-2,1,1
1576746833189906,0,1,0,0,-1,0,-1,-2
1576746833189906,2,-3,0,1,-2,-1,3,7
1576746833190860,-3,-2,-5,-3,0,0,-2,-2
1576746833190860,2,-1,0,0,-2,-1,-1,0
1576746833203931,-2,-1,1,0,-1,-1,-1,-2
1576746833203931,0,0,-4,-3,1,2,-2,1
1576746833210850,-1,-1,1,-1,-3,0,0,-4
1576746833210850,1,0,1,-1,1,0,0,6
1576746833227807,-2,0,-2,0,-2,0,-2,-3
1576746833227807,1,0,-5,-1,-1,-3,-2,-3
1576746833228761,-2,-1,0,0,-1,-2,0,-1
1576746833228761,-1,2,-2,-2,0,-1,-2,-1
1576746833249806,2,-2,-1,0,-1,-3,0,1
1576746833249806,-11,1,3,0,-3,1,2,-1
1576746833251746,-11,-2,-5,0,-1,0,-2,-2
1576746833251746,0,-4,-3,-1,-1,-3,0,0
1576746833264662,-2,-2,-3,-1,0,1,-2,-3
1576746833264662,0,-1,-3,1,1,1,0,0
1576746833270754,2,2,-5,0,0,0,-1,2
1576746833270754,1,-4,-1,0,-1,-1,0,0
1576746833287723,-4,-6,0,-1,1,-2,0,1
1576746833287723,2,1,-1,-1,-2,-1,-2,-1
1576746833288599,1,0,0,0,-1,-2,0,-3
1576746833288599,-3,3,-2,-1,0,0,0,0
1576746833309645,-5,0,-1,-2,0,-1,1,-1
1576746833309645,1,-1,2,1,-1,-1,0,-2
1576746833311542,-1,-4,0,1,1,0,-1,0
1576746833311542,-3,1,2,-1,-2,-2,0,-1
1576746833324540,6,-4,2,1,0,-1,0,7
1576746833324540,-7,-1,-2,-1,-2,-2,-3,-2
1576746833331483,0,1,0,-1,-2,0,-2,-2
1576746833331483,-5,-1,-3,-1,-2,0,-2,-5
1576746833347487,-5,-2,1,-2,-2,0,-1,0
1576746833347487,-6,-3,3,-1,0,-2,-2,-6
1576746833348491,2,0,0,0,-2,-2,-1,1
1576746833348491,-11,-2,-2,1,-1,-1,-1,-2
1576746833369485,-5,-4,4,0,-1,0,0,0
1576746833369485,-4,-3,-2,-2,-1,-2,-1,-3
1576746833371379,-2,1,2,1,2,-1,1,-1
1576746833371379,-2,-2,-1,-2,-1,0,-1,-4
1576746833384441,-4,1,-4,-1,0,0,-2,1
1576746833384441,0,-6,1,-2,-1,0,0,-2
1576746833391362,3,1,3,-1,0,0,-1,3
1576746833391362,-3,-3,0,0,0,-1,0,-1
1576746833407281,0,0,-1,0,-2,-2,0,1
1576746833407281,4,1,-2,1,-2,1,-3,1
1576746833409280,7,-1,-3,-4,-2,-3,-1,-4
1576746833409280,0,-4,-1,0,-2,-2,-2,-3
1576746833430243,3,0,1,1,-3,-2,1,1
1576746833430243,4,-2,0,1,1,1,-2,1
1576746833431220,1,0,-3,-1,-2,0,0,2
1576746833431220,1,1,-2,0,0,0,0,1
1576746833444235,0,-2,-2,-1,-3,0,0,1
1576746833444235,5,2,-1,-1,1,-2,-3,-3
1576746833451217,-2,-2,1,0,0,0,3,3
1576746833451217,0,0,-1,-3,-2,-1,-3,0
1576746833467176,-3,2,0,-2,0,1,-2,-4
1576746833467176,-4,0,-3,2,-1,-2,0,-2
1576746833469161,-1,-1,0,0,0,-1,-2,-2
1576746833469161,0,0,0,-1,0,1,-2,-4
1576746833490092,3,-1,2,-1,1,0,-1,-4
1576746833490092,-1,0,-2,-2,-1,-1,-1,2
1576746833491056,-4,-2,-1,0,2,-2,-1,-3
1576746833491056,3,-1,-4,-1,-2,-2,-1,0
1576746833503073,0,-1,-1,2,-1,0,-2,0
1576746833503073,8,1,-1,0,-1,1,2,-1
1576746833512062,1,0,-9,-2,-2,-2,-4,-1
1576746833512062,2,-2,-4,-2,-1,0,1,-1
1576746833527009,3,3,-2,0,-2,2,-1,3
1576746833527009,-8,-3,-1,-2,-2,-2,-2,-1
1576746833528959,-1,1,-2,0,-1,-1,0,-4
1576746833528959,1,0,0,0,1,-3,0,-1
1576746833549951,4,-3,-3,-1,-2,-2,0,-5
1576746833549951,-6,0,-4,1,-1,1,-1,3
1576746833551894,0,-4,-4,0,-1,-1,-1,-4
1576746833551894,0,2,1,-1,0,-1,1,3
1576746833563888,-5,-2,0,-2,-1,-2,-2,-1
1576746833563888,1,1,-3,0,0,-1,0,0
1576746833572839,-4,-2,2,0,0,-2,-2,-6
1576746833572839,-2,-1,-4,-3,-2,-2,-2,-2
1576746833587798,2,0,-2,-2,1,-1,-1,-2
1576746833587798,-2,0,-2,2,-2,0,-1,-2
1576746833588797,4,0,-2,0,-3,1,0,0
1576746833588797,-7,-1,-1,-2,1,-1,-2,-3
1576746833609843,4,0,-5,-1,-2,0,-3,-3
1576746833609843,-3,-1,-3,-2,0,1,0,0
1576746833611739,1,-1,2,0,-2,-3,0,2
1576746833611739,-1,-1,-1,1,-2,0,0,2
1576746833623703,-2,0,2,-1,0,0,-2,-2
1576746833623703,1,-1,-1,-2,-3,-1,0,-1
1576746833632680,1,1,-1,-3,-1,1,0,2
1576746833632680,-2,0,-2,1,-1,-1,-1,1
1576746833647757,-2,2,-2,1,1,-2,-2,-2
1576746833647757,0,-2,-4,-1,-3,-2,-3,-3
1576746833648636,1,0,-1,-2,0,2,-1,1
1576746833648636,-1,0,0,-1,-4,1,0,-2
1576746833669682,1,-4,-3,-2,0,1,0,1
1576746833669682,-4,1,1,-1,1,-2,-3,-1
1576746833671576,-2,0,-1,0,1,0,1,2
1576746833671576,-6,-3,3,-1,1,0,-1,4
1576746833683647,-3,3,-2,1,0,-1,1,-1
1576746833683647,-1,0,-2,-2,0,-1,0,-4
1576746833692521,-6,0,0,0,-1,-2,-2,-3
1576746833692521,3,1,-2,0,-1,-2,0,1
1576746833707481,-2,-4,-1,0,-2,-3,-1,-2
1576746833707481,-3,-3,-1,-1,-3,0,-1,1
1576746833708478,-8,0,-2,0,-2,0,-1,0
1576746833708478,2,1,1,0,0,-1,-1,-3
1576746833729523,-3,2,-1,-1,1,-2,-1,-2
1576746833729523,-5,-4,3,1,0,-1,1,0
1576746833731430,-2,-1,2,2,-1,0,-1,-1
1576746833731430,-5,1,2,0,0,0,-1,-1
1576746833743488,0,-2,0,-3,-3,-1,1,-2
1576746833743488,-2,0,0,-1,0,-2,-2,-2
1576746833752363,-5,1,-2,-4,-1,-1,1,-2
1576746833752363,1,-4,0,-3,0,-1,-2,-5
1576746833766421,-3,-2,-2,0,-1,0,1,-2
1576746833766421,-1,0,2,0,-1,-2,-2,1
1576746833767321,-1,0,-3,-2,-2,-1,2,-2
1576746833767321,1,0,-2,-3,-2,-2,-2,-6
1576746833789264,2,-4,0,0,1,-1,-2,-1
1576746833789264,3,0,-3,0,-1,-1,0,0
1576746833790256,-4,-4,-4,-1,-2,-1,-1,1
1576746833790256,0,1,2,-1,0,-3,0,0
1576746833811205,5,0,-1,0,-1,-1,-3,3
1576746833811205,0,-2,0,-1,1,-1,-2,-1
1576746833812202,5,-1,-3,0,-2,-1,-1,-1
1576746833812202,5,3,-2,0,1,-2,0,-3
1576746833826196,0,-1,2,0,-2,-2,-2,-3
1576746833826196,1,0,-1,-1,2,1,2,0
1576746833827162,7,1,2,-1,2,0,-2,1
1576746833827162,-5,-3,-5,0,-2,0,-1,-3
1576746833849102,1,-1,-2,-2,-1,-2,0,0
1576746833849102,2,-1,0,-1,-2,-1,-1,-2
1576746833850101,-3,-4,-1,0,-1,0,-2,-4
1576746833850101,-2,2,0,0,-1,0,-1,-2
1576746833872038,-4,2,-3,0,1,-1,0,4
1576746833872038,1,-3,0,0,0,-1,-1,-4
1576746833872038,-2,3,-1,0,0,-2,0,2
1576746833872038,2,-1,1,1,1,-1,-2,0
1576746833887012,-5,1,1,-3,-1,1,0,-4
1576746833887012,3,2,-3,-4,-3,-1,-1,-4
1576746833887012,5,-1,-3,1,1,0,0,0
1576746833887012,1,3,-2,0,-1,0,-1,1
1576746833908973,3,0,-3,-1,-1,0,-1,-2
1576746833908973,-1,2,-4,0,1,1,0,4
1576746833909941,0,1,-3,1,-1,-1,-1,-1
1576746833909941,1,-3,-2,-1,-1,-1,1,3
1576746833931913,0,0,-1,-2,0,0,0,-4
1576746833931913,-5,-3,3,-1,-3,0,-2,0
1576746833931913,0,-3,-4,-1,-1,0,0,2
1576746833931913,-5,-1,-6,-3,-2,0,-1,1
1576746833946884,-1,0,-1,2,-1,-3,-2,-4
1576746833946884,0,2,-6,0,-1,-2,0,-1
1576746833947870,-2,-3,1,-3,-3,-1,-1,-2
1576746833947870,0,-1,-2,0,1,-2,-1,0
1576746833968784,-1,-5,-2,-1,-1,-1,-1,1
1576746833968784,3,-1,-2,-1,-2,-1,-1,-5
1576746833969781,1,-2,-1,-1,0,-1,-4,-1
1576746833969781,2,-3,-1,-2,0,-2,2,0
1576746833991719,4,1,-2,-1,1,-1,-2,-1
1576746833991719,3,0,-1,0,-1,0,0,-1
1576746833992720,3,2,-3,-3,0,-2,1,0
1576746833992720,-1,-2,1,0,-1,1,-3,-4
1576746834006678,0,0,1,-1,-1,-2,-1,2
1576746834006678,-4,-1,-1,0,-1,1,-2,0
1576746834007676,-1,-1,-1,-1,-1,-1,-2,-3
1576746834007676,-5,-2,-4,-3,0,0,-2,-2
1576746834028626,-1,-3,-2,1,0,1,1,-4
1576746834028626,0,0,1,1,0,1,0,2
1576746834029621,-5,2,-4,-2,0,-3,0,1
1576746834029621,0,1,-3,-2,0,-1,-1,-1
1576746834051559,-4,0,2,-3,-1,-1,0,-1
1576746834051559,0,-1,1,1,-1,-1,3,-1
1576746834052560,3,1,-1,0,0,0,-2,-4
1576746834052560,1,-3,-1,-2,-2,-1,-1,0
1576746834066519,5,2,-3,-1,-1,0,-3,-1
1576746834066519,-11,-2,-1,-4,-2,-2,-1,0
1576746834067516,1,-1,0,0,0,-1,2,-4
1576746834067516,-3,-2,1,2,0,0,1,-1
1576746834097435,-8,-2,0,-1,-1,0,0,-2
1576746834097435,3,0,-2,0,-1,0,-2,2
1576746834098432,-7,-3,1,0,0,1,1,3
1576746834098432,-3,-2,1,-2,-1,0,-2,2
1576746834111398,-3,3,0,0,-2,-1,-2,-3
1576746834111398,-7,-1,0,-1,-1,0,-1,-2
1576746834112396,5,-2,-6,-2,-1,1,0,-3
1576746834112396,-5,1,-2,1,-1,-2,1,-2
1576746834134337,-6,-2,0,-2,-2,-1,2,1
1576746834134337,-2,-3,2,1,-1,-2,-1,6
1576746834134337,4,1,-3,-1,-2,-3,-3,-1
1576746834134337,-7,0,1,-2,0,-2,-1,-4
1576746834156281,-2,-3,-1,0,1,2,0,-2
1576746834156281,0,-1,-2,-1,1,-1,0,-4
1576746834157279,-2,-1,0,-1,-1,-1,-1,-1
1576746834157279,2,0,-1,0,-2,0,1,1
1576746834171237,-3,0,1,1,-3,-1,1,1
1576746834171237,4,0,1,0,1,0,1,0
1576746834172235,-3,-2,-1,1,-1,-1,0,-1
1576746834172235,-2,-1,-5,-2,0,0,-1,-1
1576746834194176,1,0,-3,-1,1,-1,-2,3
1576746834194176,2,0,1,2,-1,0,0,-1
1576746834195173,1,2,0,-1,-1,0,0,1
1576746834195173,3,2,-1,0,-1,-1,0,0
1576746834216117,4,-4,1,-1,0,0,-1,0
1576746834216117,1,0,-3,-4,-1,-2,-4,-3
1576746834217114,3,1,-4,-1,-1,0,1,0
1576746834217114,-2,0,1,-1,-2,-2,-3,-4
1576746834232078,-9,-3,-3,-2,0,-1,0,-4
1576746834232078,0,2,1,-1,0,0,-2,-2
1576746834232078,3,-2,-1,0,0,-2,-1,-1
1576746834232078,-3,0,1,-1,-2,-1,-1,0
1576746834254017,11,1,-7,-3,-2,-1,-2,0
1576746834254017,0,-3,-4,-2,-2,-3,-2,-4
1576746834255016,-3,1,2,-1,0,-1,1,1
1576746834255016,2,-1,-1,-2,-1,0,-1,0
1576746834276959,3,1,2,0,0,1,1,2
1576746834276959,-4,-2,0,-3,0,0,1,0
1576746834276959,-5,-3,1,-1,0,-2,-3,-2
1576746834276959,-4,2,0,1,0,-1,-1,3
1576746834291919,-7,-2,-1,-1,-2,-1,-4,-3
1576746834291919,-5,-2,0,-1,0,0,1,2
1576746834291919,-6,0,3,1,1,0,1,-1
1576746834291919,-1,-3,2,0,0,1,-1,0
1576746834313892,0,2,-3,-1,0,-1,-3,-3
1576746834313892,0,-1,-3,1,0,-1,0,2
1576746834314859,-5,1,2,0,-1,-1,-2,2
1576746834314859,3,-3,-4,0,0,1,-2,0
1576746834336839,0,-2,3,-1,-1,1,1,-4
1576746834336839,-4,-3,-2,-2,-2,1,-1,0
1576746834337796,-5,-3,-3,0,-1,-2,-1,-2
1576746834337796,-1,3,-3,-1,-1,-2,0,0
1576746834351789,-11,-6,0,-1,-2,0,-1,-1
1576746834351789,1,0,-2,-2,0,-2,0,0
1576746834352757,-4,-1,3,0,0,2,0,-2
1576746834352757,-3,-4,0,-1,0,-3,1,1
1576746834374698,3,-1,-4,-1,-1,-2,0,1
1576746834374698,-5,3,-2,1,0,-2,-2,1
1576746834374698,-5,-2,-1,-5,-4,-1,-2,2
1576746834374698,3,-3,-4,0,-1,0,0,-3
1576746834396701,2,4,-2,-2,-2,-1,-1,0
1576746834396701,0,0,-1,-1,-1,1,-2,-3
1576746834397637,-3,-1,-2,-2,-1,-1,-3,-1
1576746834397637,-5,-2,3,-2,1,0,-4,-7
1576746834411661,-6,-2,3,1,1,-1,1,-2
1576746834411661,-3,2,-3,0,0,-1,2,2
1576746834412599,-3,-5,0,-1,-1,-1,1,-1
1576746834412599,-3,-2,1,-1,-3,-2,0,1
1576746834434581,1,-1,0,-2,-2,-1,1,3
1576746834434581,-4,-2,-1,-1,-1,1,-2,-1
1576746834434581,-1,0,2,-1,-1,0,0,-1
1576746834434581,-3,0,-3,-3,-3,-1,0,-2
1576746834456498,2,4,-4,0,-1,-1,-3,-4
1576746834456498,1,-2,-3,-2,-3,-1,0,1
1576746834457476,-4,-2,-3,1,-1,-2,-1,-1
1576746834457476,-1,-4,1,1,0,1,0,-3
1576746834471479,-1,-1,2,-1,-2,-3,-3,-3
1576746834471479,-6,-3,0,-1,-1,-1,-3,-4
1576746834472437,-5,-1,1,0,1,-2,-2,-4
1576746834472437,-7,-2,2,0,-1,-2,-1,1
1576746834494405,2,1,-2,1,-2,-2,1,3
1576746834494405,-8,0,-1,-1,-1,0,-1,0
1576746834494405,-4,-1,4,0,-2,0,-2,0
1576746834494405,-9,-5,-5,-1,0,0,-3,-5
1576746834516321,2,0,-1,-2,0,0,0,4
1576746834516321,5,-1,-3,-1,-2,-2,0,3
1576746834517318,-8,0,2,-1,0,1,0,-2
1576746834517318,-1,-1,0,-1,0,0,0,0
1576746834531277,0,-1,-3,-2,-1,-2,-1,-1
1576746834531277,2,-3,4,0,-1,-1,-2,0
1576746834532276,0,-1,-3,0,-1,-4,-3,-1
1576746834532276,4,3,-3,-1,-1,-2,-3,0
1576746834554258,1,-1,-2,0,0,1,-1,0
1576746834554258,4,1,1,0,-1,0,1,1
1576746834555215,10,-1,-5,1,0,2,-1,-3
1576746834555215,-3,2,1,0,-3,-1,0,-2
1576746834577153,0,0,0,-2,1,-1,-3,-3
1576746834577153,-1,-1,-1,-2,-1,-2,-2,-4
1576746834577153,0,-2,-3,-1,-1,0,-3,-2
1576746834577153,6,3,2,-3,-1,-1,1,3
1576746834592112,-3,-2,-2,2,1,0,1,-1
1576746834592112,-5,-2,-1,1,-2,1,-2,-5
1576746834592112,-2,0,1,-1,-3,-2,1,1
1576746834592112,1,-4,-2,0,0,-2,-2,0
1576746834614054,-1,-1,-2,-1,0,-1,-3,-2
1576746834614054,2,2,1,1,0,0,0,0
1576746834615054,2,0,-1,-2,-1,-4,0,-1
1576746834615054,-3,0,-1,1,0,0,-1,-2
1576746834637086,-2,-2,-2,-1,-1,0,-1,-1
1576746834637086,-1,-2,0,0,-1,0,-3,-2
1576746834637086,-2,-1,0,-2,-1,0,-1,-1
1576746834637086,1,1,-2,1,-2,-2,-1,2
1576746834652073,2,-2,-3,0,0,-1,-2,2
1576746834652073,2,1,1,-1,0,-3,0,1
1576746834652073,-2,0,-1,-3,0,1,0,1
1576746834652073,-8,-3,0,-2,0,-2,-2,-2
1576746834673894,-2,1,-1,0,-2,0,1,1
1576746834673894,1,0,-2,-1,-2,0,-1,-1
1576746834674893,-1,0,-1,-1,-2,-2,-1,1
1576746834674893,2,-2,0,-1,0,0,0,-1
1576746834696937,-3,-2,-4,-1,-1,0,-2,1
1576746834696937,-4,-2,-1,-1,0,-1,-1,-1
1576746834697831,1,-3,-3,-1,-1,2,3,4
1576746834697831,-1,0,3,1,1,0,2,0
1576746834711895,4,0,2,-2,1,-2,1,-5
1576746834711895,1,0,-2,-1,1,0,0,-1
1576746834712828,0,0,-2,-1,-2,-1,-1,-3
1576746834712828,-4,-3,-1,-1,-1,-1,-2,-1
1576746834733837,-2,2,-3,0,-2,0,0,-1
1576746834733837,2,0,-1,3,1,-2,-1,2
1576746834734732,2,-1,0,-1,0,-1,0,-1
1576746834734732,3,0,-1,1,-1,0,1,3
1576746834756673,-4,1,-2,0,0,1,1,2
1576746834756673,1,-3,-3,-1,0,-3,-2,-3
1576746834757676,1,2,-5,-2,0,0,-1,-1
1576746834757676,2,0,0,-1,-2,1,-1,-3
1576746834771737,-1,-3,-2,-2,0,0,0,1
1576746834771737,-1,0,-2,0,-1,0,0,-2
1576746834772666,2,0,0,0,0,-2,-2,-3
1576746834772666,0,0,-2,0,-3,-1,3,2
1576746834794619,-7,-3,1,-1,-1,-2,1,3
1576746834794619,0,0,1,-1,0,0,-1,0
1576746834794619,-3,0,-1,-1,-1,-1,-1,-1
1576746834794619,7,-2,-1,0,0,-1,-3,1
1576746834816558,-3,-2,-3,-3,-3,-1,-2,-5
1576746834816558,0,-1,-1,-1,-1,2,2,1
1576746834817511,-2,1,-4,0,0,0,1,-5
1576746834817511,-6,0,1,-2,-1,-1,-4,-6
1576746834831574,7,0,3,1,-1,-2,1,-1
1576746834831574,-2,-1,0,-2,-2,-3,0,-6
1576746834832472,5,-1,-4,-1,-1,2,1,-13
1576746834832472,-3,2,-2,-1,-1,-1,1,-8
1576746834854514,-1,-1,1,0,1,-2,-2,-10
1576746834854514,-9,-1,-1,0,-4,-1,-3,-2
1576746834854514,0,-3,1,1,-1,-2,-1,1
1576746834854514,-3,1,1,0,0,-3,-3,-2
1576746834876397,-6,2,-2,0,0,-1,-2,-2
1576746834876397,0,-2,2,-1,-1,0,-4,2
1576746834877355,-9,-3,2,0,-1,0,-1,4
1576746834877355,-1,-4,-5,-2,-2,-1,0,5
1576746834891315,-5,0,4,1,0,-2,-2,4
1576746834891315,3,-1,0,-1,-1,-1,1,4
1576746834899328,-3,-1,0,-2,0,-2,0,4
1576746834899328,0,3,4,-1,0,1,0,3
1576746834914355,0,0,-3,1,-2,0,0,-1
1576746834914355,4,-1,-5,-2,0,-1,-2,-6
1576746834915251,3,1,-2,0,-1,-2,0,1
1576746834915251,3,-1,2,0,0,-1,-2,-2
1576746834937191,1,-4,0,-3,-1,0,-1,-1
1576746834937191,1,0,-2,-2,-2,-2,-3,1
1576746834937191,5,-3,-3,0,0,0,-2,2
1576746834937191,0,1,-4,-1,-2,0,-3,-4
1576746834951254,0,1,-4,-2,0,-1,-1,-4
1576746834951254,-1,-1,-3,-2,-1,-2,-2,-4
1576746834959232,-3,0,-4,-1,-1,1,-2,-3
1576746834959232,4,0,-6,0,-2,0,-1,4
1576746834974092,1,1,-1,0,0,0,-3,0
1576746834974092,1,-2,1,-1,-1,-1,1,1
1576746834975098,3,2,-1,0,0,-1,-1,0
1576746834975098,0,-1,-1,1,1,2,2,-3
1576746834997085,3,-3,7,-1,-2,0,-1,2
1576746834997085,-8,-1,-2,-1,1,-1,-1,-1
1576746834997085,8,-4,2,0,0,0,2,1
1576746834997085,-4,1,-2,0,0,-1,0,1
1576746835011050,-8,1,-1,0,0,0,1,1
1576746835011050,1,-1,1,0,0,-1,0,1
1576746835019076,3,2,-3,-1,0,-3,-3,-5
1576746835019076,-4,-2,-3,0,-2,-3,0,-2
1576746835034033,7,-2,-2,1,-1,-2,-1,2
1576746835034033,-3,0,-3,1,-2,0,-2,-2
1576746835034935,-2,-3,-2,-1,-2,0,0,0
1576746835034935,3,-2,2,-2,0,0,-3,0
1576746835056872,-1,2,-2,-1,0,1,-1,-3
1576746835056872,3,-4,0,0,1,0,-1,-2
1576746835057876,1,2,-4,0,0,0,1,1
1576746835057876,1,-3,0,0,0,-1,0,-2
1576746835070935,2,-5,-7,-1,-2,0,-1,-3
1576746835070935,5,0,-1,1,0,0,0,2
1576746835078913,0,2,-2,0,-1,-1,0,-1
1576746835078913,4,-1,-2,0,2,-1,3,0
1576746835094772,-1,1,0,-1,1,-2,0,-5
1576746835094772,-4,1,-2,0,-3,-1,2,-1
1576746835094772,-1,-1,-1,0,-1,-1,-1,0
1576746835094772,1,1,-1,-2,0,0,-1,-1
1576746835116811,2,-1,-2,1,0,-2,0,-1
1576746835116811,1,0,-1,-1,0,-1,0,1
1576746835117757,4,-1,-4,-2,-1,0,-2,-2
1576746835117757,-4,-1,-2,-1,0,0,0,-1
1576746835130721,1,1,0,-3,-3,0,2,3
1576746835130721,0,-3,-1,-2,-1,1,-2,-2
1576746835139651,2,-1,0,-1,-1,-1,-1,-3
1576746835139651,-1,0,-2,0,-2,-1,-1,-1
1576746835154659,-3,0,-2,1,0,1,-2,0
1576746835154659,2,1,-5,-2,-2,0,-1,-3
1576746835154659,1,-2,1,0,2,-1,-2,-4
1576746835154659,1,-3,-4,-4,-3,-3,-2,-2
1576746835176652,1,-3,-2,1,1,-1,-1,0
1576746835176652,4,2,-4,-1,0,0,-1,-2
1576746835177586,0,1,0,0,0,-2,0,-4
1576746835177586,0,-1,3,2,-2,-2,-1,0
1576746835191511,1,-3,0,-2,-2,-5,0,-2
1576746835191511,0,-1,4,0,0,1,2,1
1576746835199583,-3,3,-3,0,-3,-3,-3,0
1576746835199583,-3,-1,2,0,0,0,-2,-3
1576746835214555,-4,-1,-2,-2,-2,1,-3,0
1576746835214555,-6,-4,-1,-1,0,-2,-2,-2
1576746835215448,-1,-1,1,-2,0,1,3,4
1576746835215448,-12,0,2,0,-1,0,-1,2
1576746835236490,0,-1,-3,1,1,1,1,1
1576746835236490,-7,-1,-1,1,0,-2,0,-1
1576746835237394,-15,-4,0,0,-3,-1,-1,0
1576746835237394,-1,-2,-1,-1,-3,-1,-2,0
1576746835251417,0,-1,2,-1,0,-1,0,-2
1576746835251417,-3,2,3,-1,1,-1,1,-1
1576746835259425,-7,-1,0,0,-1,-2,-1,-4
1576746835259425,0,-2,-2,-2,0,-2,1,0
1576746835274295,-7,-3,2,-1,-2,1,1,3
1576746835274295,0,0,-3,0,-1,-1,-1,-3
1576746835275290,-6,0,4,-1,1,1,-1,-3
1576746835275290,0,-1,-2,1,-1,0,2,0
1576746835297230,-3,-1,2,-1,-2,-1,1,0
1576746835297230,2,0,-5,-2,-1,-1,0,0
1576746835297230,-5,-5,0,-1,-2,0,-2,-2
1576746835297230,3,-3,-3,0,-1,-2,-2,-2
1576746835320277,-2,4,1,-2,0,0,-1,1
1576746835320277,2,0,-1,1,-1,-1,-1,1
1576746835320277,-1,-2,1,-1,-3,-2,-2,0
1576746835320277,-5,1,-3,-4,-2,-1,0,0
1576746835334229,1,-3,-1,0,-1,0,-1,0
1576746835334229,2,1,-3,0,0,1,1,-1
1576746835335164,-7,-2,-1,-1,1,-3,0,1
1576746835335164,3,-1,1,-1,-1,-1,-1,-2
1576746835357069,-3,-3,-3,0,1,-3,1,-1
1576746835357069,-4,-1,-3,-2,-1,-3,0,0
1576746835357069,-1,-1,3,-1,0,0,-1,-2
1576746835357069,2,2,-2,0,-1,0,-1,0
1576746835379109,1,1,-3,-1,-2,-2,-5,-6
1576746835379109,-7,-2,-2,-1,-1,-1,-4,0
1576746835380044,-1,2,-2,0,-1,-2,-3,1
1576746835380044,-3,-2,-1,0,-1,-1,-1,-4
1576746835394006,22,8,-8,0,1,1,1,2
1576746835394006,3,-3,2,0,0,-1,-2,-1
1576746835394979,-3,-2,-2,-2,0,-2,2,1
1576746835394979,-3,-1,0,0,0,1,0,-4
1576746835416952,0,0,-3,-3,-1,-1,-1,-1
1576746835416952,-1,-1,1,-2,0,-1,-2,-3
1576746835417910,2,1,0,-1,0,-2,1,0
1576746835417910,1,-1,-2,1,-1,-3,-2,3
1576746835438946,-8,-4,-3,-1,0,0,0,-3
1576746835438946,7,0,1,1,-1,0,1,0
1576746835439848,1,2,1,0,0,0,-2,4
1576746835439848,-2,-1,0,-2,-1,-2,0,-1
1576746835453910,-7,-3,-3,-3,-2,-2,-2,-2
1576746835453910,-5,1,-2,0,0,0,-1,-2
1576746835454811,3,-2,-1,0,-2,2,0,-2
1576746835454811,1,-1,-2,2,1,1,1,3
1576746835476773,-2,-1,0,1,-1,0,-2,-2
1576746835476773,-5,-2,-2,-3,0,-2,-2,-1
1576746835477754,5,-1,-6,-1,-3,0,-1,-1
1576746835477754,4,-1,-2,-2,-1,-1,1,1
1576746835499698,-2,0,1,0,0,-2,0,2
1576746835499698,0,2,-3,0,-1,0,0,-4
1576746835499698,-6,-1,-3,-1,1,-2,-1,-1
1576746835499698,0,-1,1,0,0,0,-2,-2
1576746835514668,2,-1,-8,0,-1,-1,0,-3
1576746835514668,6,0,-1,-2,-1,-2,-1,3
1576746835514668,-4,1,-2,1,-1,-1,1,1
1576746835514668,6,1,-5,-1,-1,-1,-1,-2
1576746835536689,4,-1,-1,1,0,-2,-2,-1
1576746835536689,-4,-2,-4,2,-1,-2,1,2
1576746835537632,-5,2,-3,-2,-1,0,-1,-1
1576746835537632,4,0,-2,-1,0,-1,0,1
1576746835559586,-6,1,2,-1,0,-2,-1,-3
1576746835559586,3,0,-3,-1,-2,-1,0,-1
1576746835559586,1,-3,1,0,-2,0,-2,0
1576746835559586,-2,1,1,1,0,-1,-2,0
1576746835574494,8,-1,-4,-2,-1,0,0,-3
1576746835574494,0,-2,-1,-3,-3,-1,-1,-1
1576746835574494,-2,2,-1,0,-1,0,1,-1
1576746835574494,-6,1,-3,-2,-2,-4,-2,-2
1576746835596528,-10,-1,3,0,-2,1,-2,0
1576746835596528,-8,0,0,0,0,0,-1,1
1576746835597430,-4,-4,-1,0,-1,0,-1,-3
1576746835597430,-4,-1,-1,0,0,-1,0,0
1576746835619469,-5,-2,2,-1,-1,-1,0,2
1576746835619469,-15,-5,2,1,0,0,-1,-2
1576746835620376,-4,-2,3,0,1,-1,1,3
1576746835620376,-7,-3,-1,1,0,-2,-1,-1
1576746835634422,-2,2,-2,0,0,1,-2,0
1576746835634422,-2,-1,1,-1,-1,-2,-2,-1
1576746835635334,-2,-3,2,-1,0,-2,0,-2
1576746835635334,-2,-1,0,-2,0,-1,1,0
1576746835656307,-3,-4,3,-1,-1,-1,1,5
1576746835656307,-2,-3,-2,-2,-1,-3,-2,-3
1576746835657267,-2,-2,-3,-1,-2,-1,-2,0
1576746835657267,0,1,3,1,-1,1,-1,-2
1576746835679308,1,-3,2,0,-1,-2,-1,2
1576746835679308,-4,-1,-2,-1,1,0,2,1
1576746835680216,1,-3,1,-1,0,-1,-1,-6
1576746835680216,0,-1,-3,-2,-1,1,-2,-1
1576746835694262,-4,0,0,-2,-1,-2,0,4
1576746835694262,0,-1,-2,0,-3,-1,-3,-3
1576746835695174,-2,-2,1,0,0,-1,-1,0
1576746835695174,-1,1,-1,0,-3,0,-1,-1
1576746835717141,3,0,1,0,-2,-1,0,0
1576746835717141,-2,-4,-1,-1,-3,-1,-2,-4
1576746835717141,-2,-1,-3,-2,0,-2,1,1
1576746835717141,-1,-3,1,-3,0,0,-1,-1
1576746835739147,-4,0,-1,2,0,-2,2,-1
1576746835739147,5,0,-1,-1,0,-1,-2,-1
1576746835740047,-2,-1,1,-1,-1,-1,-1,0
1576746835740047,-3,-3,-1,-1,-2,-3,-5,-3
1576746835754107,-6,0,1,-2,-1,0,0,-1
1576746835754107,-7,-3,0,0,0,3,2,1
1576746835755048,0,0,-3,-1,-1,-2,0,-1
1576746835755048,-3,-2,-1,-2,0,-1,2,0
1576746835776946,-2,-2,0,2,1,0,1,0
1576746835776946,1,-3,4,0,-3,-1,-2,3
1576746835776946,-4,-1,1,-1,-1,0,-3,-7
1576746835776946,0,0,1,-2,-2,1,0,5
1576746835798887,-3,-1,-4,0,0,-1,-2,-4
1576746835798887,0,3,-2,-1,-1,-1,-1,1
1576746835799888,-5,-1,-2,-1,0,0,-1,0
1576746835799888,-3,-1,0,1,0,-2,-2,-1
1576746835813893,-2,-2,1,-2,0,1,1,-1
1576746835813893,1,0,-4,-1,0,0,-1,0
1576746835814848,5,0,-1,-1,-1,-1,1,0
1576746835814848,-5,-1,-2,-1,1,-3,-2,-4
1576746835836885,-1,-4,2,-1,-1,-2,-1,0
1576746835836885,-2,-1,2,1,1,-2,1,-1
1576746835837824,0,1,-5,-1,-2,0,-1,3
1576746835837824,0,-1,1,-1,-1,-1,0,-1
1576746835859724,-1,0,-1,-1,0,0,0,-2
1576746835859724,2,2,-1,1,1,1,0,0
1576746835859724,4,0,2,3,1,0,-2,1
1576746835859724,-5,-4,-4,1,0,-1,-2,-3
1576746835873687,-1,-2,0,-2,-2,0,-1,-1
1576746835873687,-1,2,1,-2,-1,-1,0,0
1576746835874685,6,-3,-1,-2,0,-1,-1,-3
1576746835874685,3,3,-3,0,0,0,0,-1
1576746835896629,-2,2,-2,1,-2,-1,0,1
1576746835896629,-2,-2,3,-1,-1,-1,-1,-1
1576746835897623,2,2,-3,-1,-1,-2,-1,-2
1576746835897623,-3,-1,2,-2,0,-1,1,4
1576746835919604,0,0,-2,-2,-1,0,0,-5
1576746835919604,-5,0,-1,0,1,1,-1,4
1576746835919604,0,0,-1,-1,-1,0,0,-1
1576746835919604,-3,-2,2,0,0,-1,0,-1
1576746835934592,0,0,-2,1,-1,0,-3,-3
1576746835934592,-1,1,0,-1,0,-2,1,3
1576746835934592,-3,-1,0,-1,-1,1,-1,-4
1576746835934592,1,-1,-1,0,-1,-2,0,-5
1576746835956466,-7,-2,2,-2,-1,-4,-2,-4
1576746835956466,4,-1,-2,0,-1,-2,-1,-2
1576746835957463,-1,-3,-1,-2,-3,-1,-2,-2
1576746835957463,2,2,-2,0,1,0,0,0
1576746835979503,-7,-2,2,0,-4,-1,0,1
1576746835979503,-6,-2,-2,1,-1,-1,-1,-4
1576746835980412,0,-1,2,-1,0,-1,-1,2
1576746835980412,-7,0,2,-3,-1,0,0,-1
1576746835993409,-4,-1,-2,0,0,-3,-3,-2
1576746835993409,-1,-2,2,-1,-3,0,0,3
1576746836001392,-4,-1,-2,-2,-2,-2,0,0
1576746836001392,-3,-5,-2,-3,-1,1,-2,0
1576746836016309,3,0,1,1,0,0,1,-4
1576746836016309,4,-3,1,-2,0,-2,-2,-4
1576746836017311,-4,-3,3,-1,-1,-3,-2,1
1576746836017311,0,-1,2,-1,-1,-1,-1,-2
1576746836039246,-4,1,2,1,0,0,-2,0
1576746836039246,2,1,-3,0,0,-2,-2,-2
1576746836040246,5,0,-4,0,1,1,2,-1
1576746836040246,0,0,2,-2,-2,-1,-3,-3
1576746836053208,3,-4,-1,-1,-2,-2,-1,1
1576746836053208,-2,0,-1,-2,0,0,-1,-5
1576746836062189,0,3,2,0,1,0,0,4
1576746836062189,1,-2,-2,-2,-2,-2,-1,-2
1576746836077160,0,1,-2,-4,-1,1,0,2
1576746836077160,5,-1,-2,-2,0,-1,-2,-5
1576746836077160,-2,0,-2,-1,-1,-3,-2,-4
1576746836077160,0,1,0,0,-1,0,-1,2
1576746836099101,4,0,0,-1,0,1,-1,5
1576746836099101,8,-2,-6,-1,-1,0,0,-1
1576746836100107,2,-1,0,0,0,1,0,-3
1576746836100107,-3,1,2,0,1,-3,-3,-6
1576746836113049,3,0,-1,-1,1,-4,-1,0
1576746836113049,1,0,-1,-1,1,0,-1,-2
1576746836122048,2,-2,-1,-1,-1,0,-2,-3
1576746836122048,-2,-3,-1,-1,-1,-2,-1,2
1576746836137004,3,-2,-3,0,2,0,0,-3
1576746836137004,3,3,-3,-2,0,3,1,2
1576746836137004,2,0,-1,0,0,-1,0,0
1576746836137004,-3,-1,1,-2,-1,0,1,1
1576746836158946,0,-2,0,-1,-2,-1,-2,-1
1576746836158946,-5,1,-4,-2,-4,-5,-2,-2
1576746836159958,0,-2,-3,1,0,-1,0,-1
1576746836159958,-1,-1,-3,-2,-1,1,-1,0
1576746836173883,0,-1,-3,-1,-3,0,-2,-1
1576746836173883,2,-3,-2,0,0,2,1,2
1576746836181866,-2,-1,-1,-2,-3,-2,-2,-3
1576746836181866,0,0,-4,1,-2,-2,1,4
1576746836196848,-1,-1,-5,-1,-1,0,0,-2
1576746836196848,2,1,4,-1,-1,-1,0,2
1576746836197826,-1,-2,-6,-3,-4,-2,-2,-1
1576746836197826,-7,-2,3,0,-1,-2,-2,-2
1576746836218803,5,2,0,0,0,-2,0,2
1576746836218803,-1,1,0,-1,-1,-1,-2,-1
1576746836219761,-1,3,-1,-1,0,0,-1,0
1576746836219761,0,-3,0,-1,0,-2,-1,-4
1576746836233723,2,-1,-1,0,-1,-1,0,-2
1576746836233723,2,3,-1,-1,-2,-1,0,1
1576746836241703,-1,0,-3,-1,-3,-1,-1,-1
1576746836241703,1,0,-4,1,-2,0,-1,0
1576746836256662,9,2,-4,-3,-1,1,-1,-1
1576746836256662,-4,0,-3,-1,0,-1,-1,0
1576746836257665,7,-1,1,0,-1,0,1,0
1576746836257665,3,-1,-1,-1,0,-1,-1,-2
1576746836279600,-3,2,-1,-1,-1,-1,-2,-5
1576746836279600,-1,-4,-3,-1,-1,-1,-2,-4
1576746836279600,1,-1,2,-2,0,0,-2,-2
1576746836279600,0,-4,-2,-2,-1,0,-1,-2
1576746836293603,1,-1,2,0,0,-2,0,-2
1576746836293603,5,-1,-4,1,0,0,0,-2
1576746836301582,2,-5,-1,1,0,-1,-2,-2
1576746836301582,4,4,-2,0,-1,0,-1,-5
1576746836316544,0,0,-3,-2,-3,1,1,2
1576746836316544,-1,-1,-4,0,-1,-1,1,2
1576746836317549,1,-2,-1,-3,2,0,1,2
1576746836317549,4,1,0,-1,-1,1,0,-2
1576746836339439,3,-3,1,0,-2,-1,-2,1
1576746836339439,-3,1,-2,0,0,-1,-2,0
1576746836339439,0,2,0,1,0,-2,2,1
1576746836339439,-2,-2,1,-2,-2,-1,-2,-1
1576746836362383,-9,-1,-2,-3,0,2,0,-6
1576746836362383,5,-3,3,2,1,0,0,-2
1576746836363384,-7,0,0,1,-3,-3,-2,-2
1576746836363384,-4,-1,-2,-1,0,-1,-2,-1
1576746836376381,1,0,-4,0,1,0,0,-2
1576746836376381,0,1,-1,-1,-1,-2,-3,0
1576746836377343,2,2,-4,-3,-1,-1,-1,1
1576746836377343,8,1,1,2,0,0,-1,2
1576746836399324,-3,-4,-1,-2,-1,-2,-1,1
1576746836399324,-2,-3,0,-3,-3,-1,-1,-7
1576746836400327,2,1,0,-2,-1,0,-1,2
1576746836400327,-4,1,0,1,0,-1,1,2
1576746836422319,2,-2,-3,-1,-1,0,-2,1
1576746836422319,-1,-3,-2,-4,-1,-1,0,0
1576746836423219,3,-1,2,-1,-2,0,-1,-2
1576746836423219,1,-3,-5,-2,0,-1,-2,-3
1576746836437218,11,3,-3,0,0,-2,1,0
1576746836437218,-3,-3,3,1,0,1,3,0
1576746836437218,-5,-1,-4,-2,0,-1,-3,-5
1576746836437218,7,0,-4,-2,0,-1,0,-2
1576746836459124,-2,-1,1,-1,-2,-3,-1,1
1576746836459124,5,-3,0,-1,0,0,-1,0
1576746836460125,10,-2,-4,-1,-1,-1,1,3
1576746836460125,-4,0,0,-1,0,-1,1,0
1576746836482159,-3,0,-4,-3,0,-1,-2,1
1576746836482159,3,-1,-2,-1,-3,-1,-2,0
1576746836483056,1,-2,0,1,1,0,0,-1
1576746836483056,7,-3,-4,0,-1,-1,0,2
1576746836497097,-4,-3,-1,0,-1,0,-1,2
1576746836497097,0,2,-1,3,-1,-1,1,-1
1576746836497097,3,-3,-1,0,-1,-2,-1,-3
1576746836497097,-3,-3,-3,-1,-1,-1,0,-2
1576746836519064,-1,1,-1,-2,0,-1,-1,-2
1576746836519064,-2,0,-1,-1,0,-2,-2,1
1576746836519963,1,2,-1,-1,0,0,0,2
1576746836519963,5,0,-2,-1,-2,-1,0,1
1576746836542898,3,-3,-5,-2,-2,-1,-1,-6
1576746836542898,-3,-2,-2,-1,0,0,-1,1
1576746836542898,-6,-1,-1,-1,1,-1,-1,-3
1576746836542898,3,0,0,-2,-1,-2,1,0
1576746836556860,-3,2,-2,0,0,0,-1,-4
1576746836556860,5,0,0,0,1,0,-3,-2
1576746836557857,-7,1,-3,-2,-1,-2,1,-3
1576746836557857,-4,3,-1,1,-2,-2,-1,1
1576746836578901,-2,-2,-2,-1,2,-1,-1,1
1576746836578901,2,0,-4,-1,-2,-1,-1,-1
1576746836579799,-7,-5,-1,-1,-1,1,0,-3
1576746836579799,-2,1,1,-1,-2,0,-3,0
1576746836601840,4,3,-4,0,-2,-2,-1,-4
1576746836601840,-7,-1,0,-1,-2,-2,-2,0
1576746836602786,0,1,-1,0,1,-3,-2,0
1576746836602786,1,-3,-1,-3,2,-1,-1,-3
1576746836616803,-6,-6,-2,-2,-1,-1,1,-3
1576746836616803,-5,-3,-3,-3,-3,-2,0,-2
1576746836617733,6,-2,0,0,0,0,-1,3
1576746836617733,1,-2,-4,1,-2,0,-3,-2
1576746836639639,3,2,2,1,0,1,1,1
1576746836639639,-1,0,0,0,-1,1,0,-2
1576746836639639,3,-1,-3,-2,-2,2,-1,0
1576746836639639,1,0,-1,0,-1,1,0,-2
1576746836661625,0,-3,0,0,-2,-3,-1,2
1576746836661625,0,3,0,1,-2,0,-1,0
1576746836662581,-1,0,0,-2,-2,0,-1,1
1576746836662581,6,-1,0,-1,1,1,0,-2
1576746836676582,-16,-3,0,-3,0,-2,-3,-1
1576746836676582,-4,-1,0,0,-2,0,-2,1
1576746836677554,4,-2,1,1,0,-1,-1,1
1576746836677554,-4,-1,-1,-1,-4,-2,-1,-3
1576746836699554,6,0,0,-1,-2,2,-1,0
1576746836699554,4,-2,-3,-3,1,-4,0,0
1576746836700476,-4,0,-2,-1,-3,-2,-1,-3
1576746836700476,-5,-2,2,-1,-1,-2,-2,3
1576746836721524,0,1,-1,-1,0,1,-1,3
1576746836721524,0,0,-2,-2,-1,-1,-2,-1
1576746836722422,3,-2,-2,-1,-2,-1,0,-2
1576746836722422,-3,2,1,0,0,-4,0,1
1576746836736480,-3,-3,3,-1,0,-1,0,-1
1576746836736480,-2,-2,0,-1,-2,-2,0,-3
1576746836737382,-3,2,1,-1,0,-2,1,-1
1576746836737382,-4,-4,0,0,-1,0,-2,2
1576746836759416,-4,-1,0,-2,-1,-2,-3,-1
1576746836759416,2,0,-2,-2,-1,-1,-1,-2
1576746836760327,-1,0,-3,-1,0,0,-3,-3
1576746836760327,2,-5,-1,-1,-1,-1,1,0
1576746836782258,-1,4,0,-1,1,-2,-2,-2
1576746836782258,4,1,-7,-3,-2,1,-1,-2
1576746836782258,-1,-1,0,0,-2,-1,-4,-3
1576746836782258,3,0,-1,0,-1,2,0,0
1576746836797219,8,0,0,0,-1,-3,-2,-3
1576746836797219,-2,-4,-3,-1,2,0,-2,-1
1576746836797219,4,-1,-1,0,1,-1,-2,1
1576746836797219,6,1,-2,0,1,-1,0,0
1576746836819203,3,1,1,0,-2,0,1,1
1576746836819203,-1,-1,3,0,-1,-1,2,2
1576746836820163,10,1,3,2,0,0,0,-1
1576746836820163,-10,0,-6,-2,1,0,-2,-2
1576746836842143,8,2,-6,1,-1,0,0,-2
1576746836842143,1,-3,-3,0,0,1,0,-1
1576746836842143,-4,-3,1,-4,-2,-1,1,0
1576746836842143,2,3,-1,-3,-2,-2,-1,0
1576746836857059,9,2,-3,0,1,-1,1,-1
1576746836857059,-4,-1,1,2,0,-1,-1,-3
1576746836857059,4,-1,2,-3,0,-1,1,4
1576746836857059,-1,-2,-3,0,0,0,-2,-3
1576746836879098,-5,-3,1,-4,-1,0,0,1
1576746836879098,0,0,3,1,0,-1,-1,-1
1576746836880005,-3,-2,-4,-2,-1,1,-2,-1
1576746836880005,6,0,0,-1,-2,-1,0,-2
1576746836902050,1,-3,-1,0,-1,-1,0,3
1576746836902050,-4,-1,-2,-2,-1,-2,-2,-4
1576746836902934,-1,-2,-2,1,1,-1,0,0
1576746836902934,2,0,0,-1,1,0,-3,-3
1576746836916901,2,-2,-4,0,0,0,0,-4
1576746836916901,2,1,-1,-3,-3,-1,-1,-3
1576746836917902,4,2,-3,-1,-1,-2,-1,-4
1576746836917902,2,-2,-2,0,-3,-1,-1,0
1576746836938941,-2,0,2,-2,-1,-1,-2,0
1576746836938941,2,2,2,1,0,1,-1,2
1576746836939837,-7,1,-3,-1,1,-1,-4,-5
1576746836939837,6,-1,-1,-1,2,1,1,-5
1576746836961780,5,1,-4,-1,-1,0,1,1
1576746836961780,-2,-2,-3,0,0,-1,1,-1
1576746836962783,-5,-1,0,-2,-2,0,1,0
1576746836962783,-1,2,0,-4,-2,-1,-3,1
1576746836975783,-4,-4,1,1,0,0,-1,3
1576746836975783,5,0,-5,-1,-1,0,-3,1
1576746836984717,-1,3,-1,1,0,0,1,0
1576746836984717,3,0,-3,-2,0,-1,1,2
1576746836998734,2,-4,-7,-3,-3,0,0,-1
1576746836998734,2,1,1,2,0,-2,-1,-2
1576746836999675,1,-4,-2,-1,-1,-2,-3,-5
1576746836999675,2,3,-3,-3,-1,-2,1,1
1576746837021721,1,2,-2,0,-3,0,-2,-3
1576746837021721,1,-2,-4,0,-1,0,-1,-2
1576746837022652,6,0,-3,-2,-1,0,-1,-2
1576746837022652,-4,-2,0,-1,-3,0,-1,1
1576746837036579,-5,-3,-2,0,0,0,-2,-4
1576746837036579,-2,1,-1,-3,-1,-2,0,-3
1576746837044624,4,1,-1,-1,-4,0,1,1
1576746837044624,-4,-1,-3,0,-1,-5,-1,-3
1576746837059569,-1,2,-1,2,1,-2,-2,-2
1576746837059569,-1,2,-1,-2,-1,-2,1,-3
1576746837059569,4,-3,-3,-1,0,-1,-1,4
1576746837059569,0,0,0,-1,0,0,0,-4
1576746837081465,-3,1,-1,-3,-1,0,0,2
1576746837081465,1,0,1,-1,0,-1,0,-2
1576746837082460,-1,2,-1,0,-1,-1,-1,1
1576746837082460,2,-4,-3,1,-2,-1,-1,0
1576746837096448,0,2,-6,-2,0,-2,-2,-2
1576746837096448,-5,0,-1,-2,0,-1,-2,1
1576746837104495,-3,-1,2,0,-1,-1,-3,-1
1576746837104495,-10,-5,0,1,-1,-1,0,1
1576746837119408,0,-1,-2,1,0,0,-1,2
1576746837119408,-6,-3,1,-2,-1,-3,-2,0
1576746837120361,-6,-2,3,-2,-1,2,0,-3
1576746837120361,1,1,0,-1,0,0,-2,-4
1576746837142299,1,-1,0,-3,-3,-1,0,2
1576746837142299,4,0,-1,1,0,0,0,1
1576746837142299,-8,-6,-2,-2,0,0,1,-1
1576746837142299,0,-2,-1,-1,0,-2,-1,2
1576746837156259,1,-1,-2,-1,-1,0,0,-2
1576746837156259,-3,-3,-1,-2,-2,-2,-3,-2
1576746837164331,0,2,-4,0,-2,-2,1,-2
1576746837164331,0,-2,1,-1,-1,0,-2,-1
1576746837179297,-7,0,2,-1,0,0,-1,-2
1576746837179297,2,1,-1,2,-2,0,1,-2
1576746837180202,3,-4,0,2,0,-1,-1,0
1576746837180202,3,4,1,1,-2,-1,-1,3
1576746837202134,-5,-1,0,-2,-1,0,-4,-5
1576746837202134,6,-2,-4,-3,-3,0,-2,-4
1576746837202134,-1,1,2,0,0,-1,-1,0
1576746837202134,6,-2,0,-2,-1,-1,2,-3
1576746837216100,3,-1,-2,0,-1,-2,-3,-5
1576746837216100,0,1,-3,-1,-1,0,2,3
1576746837224075,1,-1,-4,-3,-1,-1,-3,-4
1576746837224075,2,1,-2,-1,-1,-2,-3,2
1576746837239077,5,0,-1,-1,1,-1,0,1
1576746837239077,2,0,-1,-1,0,-2,0,-1
1576746837240034,-1,0,0,0,-3,-1,0,-3
1576746837240034,-5,1,-1,-1,0,1,-1,-2
1576746837262087,4,1,-3,0,-1,-1,0,1
1576746837262087,-1,-1,0,-1,-1,0,0,-1
1576746837262087,-2,-1,-1,-1,0,0,-1,1
1576746837262087,0,3,-4,-2,-1,-2,-1,0
1576746837284918,-5,1,0,-1,-1,-3,-1,6
1576746837284918,-8,0,3,-2,-1,-2,-3,2
1576746837285918,1,0,1,-2,1,0,0,0
1576746837285918,-1,-2,-2,0,0,-1,-3,-4
1576746837298878,14,3,-4,-1,0,-2,0,-4
1576746837298878,2,0,-3,-2,0,-2,-2,4
1576746837299878,7,-1,-4,0,-1,0,0,1
1576746837299878,8,1,-5,-3,-2,0,1,0
1576746837321916,5,2,-2,-2,-1,-1,-1,-2
1576746837321916,-2,-2,-3,0,0,-2,-1,-3
1576746837322812,0,0,2,0,0,-1,-2,0
1576746837322812,-3,1,-2,0,-1,0,1,1
1576746837344804,-1,0,-3,0,-2,1,-1,-2
1576746837344804,-3,-2,-2,-1,-1,-2,-3,-2
1576746837345758,2,-2,0,-1,-2,-2,-2,-2
1576746837345758,1,-1,-2,0,0,-2,-1,1
1576746837358754,4,1,-3,1,-1,0,0,1
1576746837358754,-3,0,-2,-2,-1,0,0,1
1576746837359712,1,-2,-1,0,1,0,0,-3
1576746837359712,1,1,-4,-1,1,-2,-2,-1
1576746837381655,-5,-1,0,-1,-1,0,1,0
1576746837381655,-10,-4,-1,0,0,-2,-1,-5
1576746837382660,10,6,-4,-1,-1,-2,-3,-3
1576746837382660,-3,-3,1,-3,-2,-1,0,1
1576746837404695,2,-2,1,0,1,2,1,1
1576746837404695,-4,2,1,1,0,-1,-1,-2
1576746837405595,-6,1,-4,-2,-1,0,-2,0
1576746837405595,-6,-3,-3,1,0,0,-1,-1
1576746837419593,-4,-1,-1,-2,-2,-2,-2,-3
1576746837419593,-5,-4,2,-2,-1,0,0,1
1576746837419593,-3,-1,-2,2,-3,0,2,4
1576746837419593,3,-2,0,0,0,-2,-2,-5
1576746837441496,-5,-2,-3,-3,-1,-1,1,-1
1576746837441496,-4,-1,2,1,-2,0,-1,1
1576746837442499,-2,-3,-1,-1,0,-2,-2,-6
1576746837442499,-3,1,0,1,0,1,1,0
1576746837464528,-4,4,-2,-1,-1,-2,-1,-1
1576746837464528,7,-4,-1,-1,-1,0,-1,-2
1576746837465432,-2,-2,1,-1,-1,-1,0,-1
1576746837465432,-3,-1,-2,-3,-3,-2,-1,-2
1576746837479493,-8,-2,-1,-1,-1,0,-3,1
1576746837479493,-10,-2,0,-1,-1,0,1,0
1576746837480402,-2,1,-1,0,-1,-3,-1,2
1576746837480402,-4,-1,0,-1,-1,0,0,0
1576746837501430,1,-1,-5,-2,-2,-3,-3,-3
1576746837501430,-7,1,0,2,-1,0,0,2
1576746837502334,-6,-2,0,-1,-2,-1,1,-3
1576746837502334,1,1,2,0,-1,-2,-2,0
1576746837525275,-1,-2,-2,-1,-1,-1,-2,-4
1576746837525275,-7,-4,4,-1,-2,0,-1,-3
1576746837525275,1,0,-1,-1,0,-1,-1,3
1576746837525275,-8,-1,1,1,-2,0,-1,-5
1576746837539268,-4,-4,2,-1,-2,-3,2,-4
1576746837539268,0,0,0,-1,0,1,0,-1
1576746837540231,-5,-1,1,0,0,1,0,5
1576746837540231,-9,-1,-3,-1,-1,1,-2,0
1576746837561178,4,-1,0,-1,2,0,1,1
1576746837561178,-4,-1,2,0,-2,-1,-2,0
1576746837562172,2,-1,-1,-1,0,1,0,-4
1576746837562172,1,2,-1,1,1,-1,0,0
1576746837585116,-7,-1,3,1,0,-2,-2,1
1576746837585116,4,1,0,-2,-3,-1,0,2
1576746837585116,0,-1,-2,-1,-2,-3,-2,-3
1576746837585116,1,-2,-2,-2,-1,-2,0,-1
1576746837599074,-12,-2,3,2,-1,2,0,1
1576746837599074,-3,-2,2,-1,-1,0,-2,-2
1576746837600073,-4,-2,3,0,-1,0,1,9
1576746837600073,-1,1,-1,-3,-3,-1,-3,-1
1576746837622045,9,-2,-3,0,-2,-1,0,-1
1576746837622045,-4,-1,0,-1,1,-1,-1,-4
1576746837622045,-3,-1,0,-1,-2,-2,1,-5
1576746837622045,5,-2,-1,0,-1,-2,0,2
1576746837644964,5,2,-1,0,1,-1,0,0
1576746837644964,2,-4,-3,0,0,-2,-2,-3
1576746837645951,0,-3,-2,0,-2,-2,-2,-2
1576746837645951,1,0,-2,-3,0,0,-2,-2
1576746837659016,-5,-1,2,0,-1,0,-1,-4
1576746837659016,5,-1,-3,1,1,0,2,0
1576746837659912,2,-2,-2,-3,-1,-1,-2,-5
1576746837659912,11,1,0,0,-1,-2,1,2
1576746837681955,-6,-2,-2,-4,-2,1,1,2
1576746837681955,3,3,2,-2,-1,-1,0,-1
1576746837682882,1,-2,-3,1,-1,-2,-2,-1
1576746837682882,-6,-2,-2,-2,0,-2,-2,-1
1576746837704896,1,1,-3,-2,-3,-3,-4,0
1576746837704896,6,1,-2,-1,1,-1,1,3
1576746837705786,-1,0,1,-2,-1,0,0,0
1576746837705786,-1,-2,-1,-2,-1,0,-2,1
1576746837719749,5,0,-2,1,2,1,-1,1
1576746837719749,4,0,-4,-2,1,-1,0,-2
1576746837719749,4,0,0,-1,-1,-2,0,2
1576746837719749,-2,-2,-2,0,-1,-1,-2,-5
1576746837741697,-4,-2,-2,-1,-2,0,-1,-1
1576746837741697,6,-1,-3,0,-1,-1,0,2
1576746837742692,4,2,-3,-2,1,0,-1,-6
1576746837742692,4,-1,0,0,0,-1,1,-1
1576746837764733,-3,-1,-6,-2,-2,-2,0,-3
1576746837764733,4,2,-2,-2,-2,-2,-3,-1
1576746837765628,-4,-5,-2,1,-2,-2,0,-1
1576746837765628,-2,-2,-5,-1,0,-2,-2,1
1576746837779640,-2,3,-1,-1,0,1,-2,-2
1576746837779640,-2,-4,-1,-1,-2,-2,-2,-4
1576746837779640,-2,3,-2,0,1,1,-2,-3
1576746837779640,1,0,-1,0,0,0,0,-1
1576746837801634,0,0,-3,-2,-1,0,-1,-2
1576746837801634,5,-1,-1,-1,-1,-1,0,-3
1576746837802536,-3,-5,-4,-3,-1,0,-2,-2
1576746837802536,1,-3,-2,-1,1,0,1,4
1576746837824515,1,-1,0,-1,1,-1,2,3
1576746837824515,5,-3,-2,0,-1,2,2,4
1576746837825467,0,0,1,1,0,-2,1,-1
1576746837825467,1,1,-5,0,-4,-2,-2,2
1576746837839431,4,-4,1,0,0,-2,0,4
1576746837839431,3,0,1,-3,-1,-2,-1,-2
1576746837839431,3,1,-3,-1,1,-2,-1,2
1576746837839431,-2,2,1,-2,-1,0,1,1
1576746837861475,-2,-2,2,-1,1,0,-1,-2
1576746837861475,-4,0,-4,0,0,0,-1,-4
1576746837862371,0,1,1,1,0,0,-1,0
1576746837862371,-2,-3,2,0,-1,-2,0,-3
1576746837884411,-1,-2,0,1,-1,-1,-1,-2
1576746837884411,-2,0,0,0,-2,-1,-1,-1
1576746837885343,-2,0,-2,-1,-2,0,0,-5
1576746837885343,-3,-2,1,0,-2,-1,-1,1
1576746837898377,0,-2,-2,-1,-1,0,-2,-3
1576746837898377,3,-1,-1,-1,-2,-2,-1,1
1576746837907249,1,2,-3,-1,0,0,0,1
1576746837907249,0,2,0,0,1,-2,-2,0
1576746837921265,1,-1,0,-1,0,-2,-1,-3
1576746837921265,0,-1,-1,-2,-4,-2,-1,-3
1576746837922209,-2,-3,-1,-2,-1,0,-1,2
1576746837922209,3,0,-1,0,-2,0,0,-3
1576746837944256,2,0,-6,1,-1,1,0,-1
1576746837944256,8,0,-1,0,0,1,1,3
1576746837945151,-3,-4,2,1,0,-2,-2,-2
1576746837945151,3,-2,-2,-1,0,-1,0,-2
1576746837958156,1,-1,-1,-1,-1,-1,0,1
1576746837958156,6,1,-3,-2,1,0,1,-2
1576746837967138,5,2,-2,-1,-1,0,0,-3
1576746837967138,4,-3,2,0,-2,-1,-2,1
1576746837982116,-3,1,-3,0,-1,-1,0,-2
1576746837982116,-1,-1,1,0,1,1,-1,0
1576746837982116,0,0,1,-1,-1,-2,-3,-3
1576746837982116,1,0,-5,-1,-2,0,-1,-4
1576746838004094,1,-1,-3,1,-2,-2,0,-2
1576746838004094,-2,2,-3,2,0,-1,-2,0
1576746838004989,3,0,-1,-1,-1,-1,1,-2
1576746838004989,0,0,-1,-1,-2,-2,-2,0
1576746838019001,-11,-3,-2,-1,-2,0,-2,-3
1576746838019001,-1,1,-1,0,-1,0,0,-2
1576746838027033,2,1,0,-2,1,-1,0,5
1576746838027033,-6,-1,-4,-2,-2,-2,-1,-5
1576746838041983,5,2,1,-2,0,-1,-1,0
1576746838041983,-3,-2,-2,-2,-1,-1,-1,4
1576746838042889,3,-1,-1,1,-2,1,-2,0
1576746838042889,-2,-1,1,-1,0,0,0,0
1576746838063939,4,0,-1,-2,-1,-1,0,1
1576746838063939,-2,-3,-5,-2,-3,-1,1,0
1576746838064829,2,0,-4,-1,-1,-1,-1,-4
1576746838064829,3,2,-1,-2,0,0,0,-2
1576746838078791,-3,-4,-2,0,-2,-2,0,-1
1576746838078791,1,0,0,-2,0,-1,-2,1
1576746838086866,-1,-2,-1,-2,-1,-3,-2,0
1576746838086866,1,-1,0,0,-1,0,0,-1
1576746838101830,0,0,2,0,-1,0,1,1
1576746838101830,1,-1,-2,-1,0,-1,-1,-1
1576746838102770,-3,-2,-2,2,-2,1,-1,-2
1576746838102770,0,0,2,0,2,0,-1,1
1576746838124666,3,0,-4,0,-1,-1,-2,0
1576746838124666,-3,-1,-3,0,-1,-2,0,-1
1576746838124666,-4,-3,-2,-3,-2,0,0,-2
1576746838124666,0,-1,-3,-2,-1,0,1,1
1576746838138734,1,-1,-5,-3,-2,0,0,-1
1576746838138734,-3,0,-2,-1,-1,-3,-4,-4
1576746838146713,1,2,-3,-2,-1,-3,1,-1
1576746838146713,2,1,-2,-1,0,-2,-1,-5
1576746838161574,7,2,-1,1,-1,-1,1,0
1576746838161574,0,2,2,0,-1,0,-1,-1
1576746838162570,-6,0,2,1,-1,-1,-1,-1
1576746838162570,0,0,-3,-1,-1,-1,0,3
1576746838184587,0,-2,0,-1,1,-1,0,-2
1576746838184587,-2,-3,-1,-1,-2,1,1,-1
1576746838184587,0,0,1,-2,-2,0,0,1
1576746838184587,-1,0,-5,1,-1,-1,-1,-1
1576746838198573,0,-4,1,-3,-2,1,-2,-3
1576746838198573,-3,0,1,1,0,-4,-1,0
1576746838206452,-1,-1,-3,1,0,-2,0,3
1576746838206452,-2,-5,-1,0,0,0,0,-3
1576746838221509,2,0,-2,-3,1,-2,-2,3
1576746838221509,2,-5,0,-1,-1,0,-4,-4
1576746838222408,1,-1,-1,1,-1,1,0,2
1576746838222408,5,1,-2,-1,-2,-3,-1,-2
1576746838244449,-5,1,-1,1,-1,0,-1,-1
1576746838244449,-5,-4,2,-2,-1,-1,-1,1
1576746838245379,-3,-2,0,-3,-2,-5,-4,-3
1576746838245379,-5,-4,2,-1,-2,0,0,-2
1576746838267387,-1,1,-2,-2,-1,-3,-1,-2
1576746838267387,0,2,-1,0,-2,-1,0,0
1576746838268285,-3,-4,1,0,1,1,1,2
1576746838268285,0,2,-1,-1,-1,-1,0,-1
1576746838282245,1,-1,3,-3,1,-1,-2,-1
1576746838282245,-7,1,1,0,0,-2,2,-1
1576746838282245,4,0,-3,-1,-1,-1,-1,-1
1576746838282245,6,-1,-6,-1,0,-1,-2,3
1576746838304289,2,-3,0,0,-2,0,0,0
1576746838304289,-2,-2,-5,-2,-2,0,-3,0
1576746838305228,2,0,-3,-2,-2,0,0,-2
1576746838305228,-2,1,1,-1,-2,0,-3,-1
1576746838327231,3,3,-2,0,-3,-2,-1,-2
1576746838327231,-2,0,-4,0,-2,-2,-2,-5
1576746838328125,-1,1,0,-1,0,-1,1,1
1576746838328125,-1,-2,0,-2,-2,-1,0,-1
1576746838342131,-2,1,-5,-3,-1,-1,0,2
1576746838342131,6,-3,1,0,-1,1,0,-2
1576746838342131,5,2,-2,-1,0,1,1,0
1576746838342131,2,1,-1,1,0,0,-2,0
1576746838364027,2,0,-3,0,0,-2,0,-1
1576746838364027,-2,-2,-3,0,-1,-1,-1,2
1576746838365026,5,2,-2,1,-2,0,-1,1
1576746838365026,-3,0,2,-2,2,-1,-1,-2
1576746838387067,-4,-4,-1,0,-3,1,-1,-5
1576746838387067,6,0,-2,-1,1,0,1,0
1576746838387962,-2,-3,0,-1,-2,-2,-3,-2
1576746838387962,4,-2,-2,1,-2,2,0,1
1576746838402030,-1,0,1,1,0,-3,-3,-2
1576746838402030,5,0,-5,0,1,0,1,0
1576746838402922,3,-1,2,0,0,-3,-1,-1
1576746838402922,0,0,-4,0,-1,0,0,-1
1576746838423868,7,-1,-1,1,0,2,-1,2
1576746838423868,5,1,3,-1,-3,0,-4,2
1576746838424866,-5,2,-4,-4,-2,-3,-1,3
1576746838424866,-4,0,-5,0,0,0,1,-1
1576746838447848,2,1,-2,-2,0,1,1,-1
1576746838447848,-5,2,-1,-4,-4,-2,1,0
1576746838447848,0,-3,-4,-1,-2,-1,-1,-4
1576746838447848,-3,-1,1,0,-1,-2,0,-3
1576746838461870,-2,-2,-3,-1,-1,-1,-2,0
1576746838461870,-6,-3,-4,-1,0,-1,-3,-3
1576746838462765,-1,-3,-2,-1,-2,-1,0,-3
1576746838462765,-1,-1,-1,0,1,-1,-2,-2
1576746838484704,-4,0,1,0,-2,-1,-2,-3
1576746838484704,5,2,0,-1,-1,0,-2,-6
1576746838484704,0,-2,-1,-1,0,1,-1,-1
1576746838484704,-7,-1,-5,-1,-1,-2,-2,-3
1576746838507763,-1,-1,-4,-3,-4,-2,-2,-3
1576746838507763,0,-1,-2,2,2,-2,-1,-1
1576746838507763,-1,0,-4,-1,0,0,0,0
1576746838507763,4,0,-1,-3,-1,-1,-1,1
1576746838521709,-11,-3,0,0,1,0,1,2
1576746838521709,-2,2,0,-3,-1,-1,-1,-3
1576746838522603,-1,-2,1,1,-2,0,-1,1
1576746838522603,2,-2,-2,-2,0,-1,0,3
1576746838544634,6,-2,-3,-2,1,-1,1,0
1576746838544634,-3,2,5,2,1,1,0,5
1576746838544634,-2,1,-2,0,-2,0,-1,-1
1576746838544634,5,0,0,-3,-2,0,-2,1
1576746838567585,2,-1,-5,1,-1,-1,1,-3
1576746838567585,1,0,-5,0,-2,-1,-1,-1
1576746838568515,-3,0,-1,1,0,-2,0,-3
1576746838568515,1,0,-3,1,-3,-2,-1,1
1576746838581543,-10,-4,0,-1,1,-3,-1,-3
1576746838581543,-3,0,-3,-2,-2,0,-1,1
1576746838582444,-6,-1,0,-4,-2,3,-3,-4
1576746838582444,-2,-3,1,-1,-1,-2,0,-1
1576746838604486,3,1,-2,0,-2,1,-1,-2
1576746838604486,1,-4,-1,0,0,-2,-1,1
1576746838605381,0,-1,-4,-2,1,0,0,0
1576746838605381,-7,-1,-1,0,2,0,0,-2
1576746838635349,-1,3,3,1,0,-1,0,-2
1576746838635349,-2,-3,1,-2,-2,1,0,5
1576746838635349,2,2,-2,1,-2,-3,-1,1
1576746838635349,-3,-4,-3,-3,0,0,0,-1
1576746838642283,2,1,0,-2,1,0,1,-1
1576746838642283,-1,-1,-4,2,-1,-1,-2,-3
1576746838642283,-5,0,1,-2,-1,-1,-1,1
1576746838642283,0,0,-4,-1,-2,0,-1,-3
1576746838664326,0,0,0,-2,-3,-1,0,0
1576746838664326,2,-2,-1,-2,0,0,1,-1
1576746838665270,6,-1,0,-1,1,0,-1,2
1576746838665270,-1,0,-3,0,0,0,-1,1
1576746838687265,-5,0,1,0,-2,-1,-1,2
1576746838687265,-2,-3,1,-1,-2,-1,0,-1
1576746838688162,-2,-3,-1,-1,0,-2,0,-1
1576746838688162,4,1,0,1,-2,0,-1,-2
1576746838702172,3,-1,-1,0,1,1,-1,5
1576746838702172,6,0,-2,0,-1,-2,-1,-2
1576746838702172,0,-1,-5,-2,-1,-1,-2,-1
1576746838702172,-2,-3,2,0,-1,-2,1,-3
1576746838724165,12,0,0,0,2,-2,-3,0
1576746838724165,2,0,-3,1,-2,-1,2,1
1576746838725067,3,-2,-4,-2,0,-1,-1,-3
1576746838725067,4,0,-2,-2,0,1,-1,-2
1576746838747009,-1,1,-4,0,0,1,-2,-1
1576746838747009,0,0,1,-2,0,-3,-1,-4
1576746838748000,0,-2,0,0,-2,-1,-1,-1
1576746838748000,3,2,0,1,0,-1,-1,-3
1576746838761070,-1,-1,-3,-2,-1,1,-1,-2
1576746838761070,0,-1,-2,-1,0,-1,-1,1
1576746838769048,5,-2,-2,-1,-3,-3,0,0
1576746838769048,5,1,3,1,-1,0,0,0
1576746838784006,-5,-3,2,-2,-2,-1,0,1
1576746838784006,0,-1,-1,-1,0,-1,-1,-3
1576746838784903,2,2,-3,-1,-1,0,0,-1
1576746838784903,1,-2,-3,-2,1,0,0,-1
1576746838807850,0,1,-4,-2,0,-1,-4,-3
1576746838807850,-9,-1,-1,-4,-1,-1,1,-5
1576746838807850,1,1,2,3,0,0,1,-1
1576746838807850,2,-3,-1,-2,-1,0,-1,2
1576746838821909,2,1,-2,-1,-3,-1,0,-1
1576746838821909,-2,2,-4,0,1,-1,-2,2
1576746838822806,3,-1,-1,0,0,-1,0,-1
1576746838822806,3,-1,-6,-3,-2,-2,0,-2
1576746838843850,1,-2,-2,0,-1,-1,-1,-2
1576746838843850,0,0,0,-1,-2,1,-2,1
1576746838844741,0,1,-2,1,0,0,0,3
1576746838844741,3,2,-1,0,0,-2,-1,2
1576746838867796,1,-3,-3,1,0,-3,0,-5
1576746838867796,3,0,-5,0,-1,1,-1,1
1576746838867796,0,0,-1,-2,-1,2,-1,0
1576746838867796,-4,-3,-1,0,-2,0,-2,-3
1576746838880751,2,2,4,-1,-1,0,0,-2
1576746838880751,3,0,-4,-1,0,1,1,2
1576746838889621,-10,0,-1,-3,-1,-3,-1,1
1576746838889621,-3,0,2,2,0,-1,1,0
1576746838904639,6,1,-3,-1,-1,0,-1,0
1576746838904639,-1,-1,-2,1,-1,0,0,1
1576746838904639,-2,-1,0,1,-1,0,-1,-4
1576746838904639,-4,0,-4,-1,0,-2,-1,5
1576746838927623,-1,0,1,-1,-1,-1,2,0
1576746838927623,8,-1,-3,-3,-2,-3,-1,-4
1576746838928537,5,0,-2,-1,-1,0,-1,-1
1576746838928537,-2,0,-3,-3,-1,-3,-2,-4
1576746838941481,-4,1,-3,0,-2,0,-3,-1
1576746838941481,-3,-1,-3,-2,-2,-1,0,-2
1576746838949576,-1,-2,0,1,-1,-3,-1,-1
1576746838949576,2,-1,-3,1,-1,-1,-3,-2
1576746838964526,5,0,-2,-1,-2,0,1,6
1576746838964526,-6,0,-2,1,0,-1,-4,0
1576746838964526,1,1,-5,-2,-1,-1,-3,-6
1576746838964526,-5,-1,-1,0,-2,-2,1,-3
1576746838987462,-9,-3,3,-1,-1,-3,0,0
1576746838987462,-5,-1,1,0,-1,1,1,-1
1576746838988391,-1,-1,1,-1,-2,-2,0,-3
1576746838988391,-3,-2,-1,-1,0,0,0,-2
1576746839001425,-5,-1,-2,-3,-1,1,0,0
1576746839001425,-4,-1,5,1,-2,1,-2,-3
1576746839009344,-7,1,-1,1,-1,-1,0,-2
1576746839009344,-4,-2,-1,-2,-1,0,0,1
1576746839024362,3,1,-5,0,0,0,0,-1
1576746839024362,-2,-4,3,-1,0,0,0,-2
1576746839025261,-3,-1,-2,0,-2,-1,-1,5
1576746839025261,-4,-1,2,-2,0,1,-3,-1
1576746839047201,-6,-5,0,0,1,0,-3,-2
1576746839047201,-1,-1,1,-1,-2,-1,-2,1
1576746839048199,-5,-1,1,-1,0,-1,0,-3
1576746839048199,3,0,-3,0,-2,0,-1,0
1576746839061268,-4,0,-3,-1,0,-1,-1,-2
1576746839061268,-7,1,1,-2,-2,-2,0,2
1576746839069246,0,-6,-2,-1,-2,1,0,0
1576746839069246,2,2,1,-2,-1,-2,-1,-1
1576746839084201,-3,-1,1,-1,-1,-2,-2,-2
1576746839084201,-3,1,1,2,-1,-1,-2,-3
1576746839085101,0,2,-2,-2,0,0,0,-1
1576746839085101,1,-2,-1,-3,-1,-1,-1,-1
1576746839107073,5,3,2,0,-1,-3,-1,-1
1576746839107073,-3,-3,-2,-2,-1,-4,-1,1
1576746839107073,0,-2,-3,-3,-3,-1,-4,-7
1576746839107073,-2,-1,-3,0,0,-1,-1,3
1576746839121104,1,-1,-3,-2,-2,-2,-2,-1
1576746839121104,-2,-2,0,0,-1,1,1,1
1576746839129079,-3,0,0,-2,0,-1,-2,-1
1576746839129079,6,0,0,0,-1,-2,0,-2
1576746839144046,7,-1,-1,0,-1,-1,-1,-5
1576746839144046,-3,-2,1,-4,-1,-2,0,-2
1576746839144939,1,-1,-3,1,-1,0,1,4
1576746839144939,-4,-2,-2,-2,0,-2,1,-1
1576746839166983,1,2,-3,-1,-1,0,0,1
1576746839166983,1,0,2,-1,-2,-1,-1,-5
1576746839167888,-2,-1,4,0,-1,0,-1,0
1576746839167888,2,1,0,2,0,0,1,1
1576746839189864,-4,1,1,-2,-2,-1,-1,1
1576746839189864,-3,-3,-2,-1,0,2,-2,0
1576746839190819,-3,-2,-1,-1,-1,-1,-3,1
1576746839190819,0,-2,-2,-1,-1,-1,-1,-1
1576746839204779,12,3,-7,-2,1,0,0,0
1576746839204779,-3,0,-3,2,-1,0,1,-1
1576746839204779,8,-1,-1,-3,0,-2,0,0
1576746839204779,4,0,-4,-2,0,0,-1,-2
1576746839226822,-4,0,0,0,-2,0,1,1
1576746839226822,3,1,-1,0,0,-1,0,2
1576746839227722,5,-2,0,0,1,0,-1,1
1576746839227722,-2,-1,-3,-3,-3,-1,-4,-3
1576746839249760,-1,-1,0,0,0,-2,1,-1
1576746839249760,4,-1,-2,-1,-2,-3,-2,-1
1576746839250661,-7,0,-1,1,0,-1,2,0
1576746839250661,0,-2,0,-2,0,0,0,-2
1576746839264665,5,-1,-3,-1,-2,0,0,0
1576746839264665,-1,3,-1,-2,0,-1,-1,-1
1576746839264665,-3,-2,-1,1,2,-2,0,-2
1576746839264665,-2,-1,-1,0,-1,1,-2,-4
1576746839286660,-7,-3,2,-1,1,-1,1,0
1576746839286660,3,-2,0,0,-2,-2,-2,-2
1576746839287604,4,3,-2,-1,-2,0,-2,0
1576746839287604,2,0,-4,-2,-2,-2,0,-1
1576746839310498,-16,-1,3,-1,-1,0,-1,-3
1576746839310498,3,-3,-1,-2,1,0,0,2
1576746839310498,-5,2,2,-2,0,-1,0,-1
1576746839310498,-1,0,-1,-1,-1,0,-2,-3
1576746839324565,-5,-1,-3,1,0,-1,-1,-1
1576746839324565,-2,3,-1,-1,-1,-2,0,-1
1576746839325467,-2,-2,-3,0,-4,-1,-3,-4
1576746839325467,-1,2,-2,0,0,0,2,1
1576746839346500,1,-2,-6,-2,-2,-2,-2,2
1576746839346500,0,-3,-4,-1,0,-1,-1,-1
1576746839347399,4,1,-3,-1,-1,0,-4,-3
1576746839347399,-3,1,0,-2,-1,0,-1,1
1576746839370383,-2,-5,-1,0,-2,2,0,-1
1576746839370383,3,1,-1,-1,1,1,0,0
1576746839370383,-10,-1,-2,0,-1,2,0,-1
1576746839370383,-6,-5,1,-1,0,-3,-1,-2
1576746839384399,-5,0,-1,-1,0,-2,1,-2
1576746839384399,-3,-2,-2,-1,-1,-1,1,-3
1576746839385346,0,-2,0,-1,-1,-1,-2,1
1576746839385346,-1,2,0,0,-1,0,-4,-3
1576746839406241,5,-1,4,-1,0,0,-1,0
1576746839406241,0,2,-1,1,-2,0,1,1
1576746839407238,-2,0,-2,-1,0,-3,-1,-1
1576746839407238,-3,-6,-1,0,-1,-1,-2,-2
1576746839430287,2,3,0,-1,0,-1,0,3
1576746839430287,7,-4,-2,-3,-1,0,-2,0
1576746839431174,2,-2,-1,-1,-2,-1,3,-2
1576746839431174,3,-1,-3,0,1,0,1,-1
1576746839444243,-3,-1,2,-2,-1,0,-5,-3
1576746839444243,3,1,-5,-2,-1,0,-1,-4
1576746839445145,-3,2,1,0,0,1,-1,1
1576746839445145,3,1,-1,0,0,1,-1,-2
1576746839467149,1,-5,-3,-2,-2,-1,-2,-3
1576746839467149,4,1,2,0,0,0,0,1
1576746839467149,2,-1,-1,-2,-1,-2,0,-3
1576746839467149,0,0,-3,-1,2,-1,-1,-2
1576746839490016,-1,-2,1,0,-1,0,0,3
1576746839490016,8,-1,-4,-4,-2,-3,-2,-5
1576746839491025,7,1,-1,-1,-2,-1,-1,0
1576746839491025,4,-1,-3,0,-2,1,1,3
1576746839504079,-9,-3,2,0,-1,-1,0,1
1576746839504079,0,-3,0,1,1,-2,-2,0
1576746839504988,2,2,0,0,-2,-2,-2,-2
1576746839504988,-1,-1,-1,-2,0,-2,-2,0
1576746839527022,2,0,-2,-2,1,-1,-2,-3
1576746839527022,-1,0,-1,1,-2,0,1,0
1576746839527925,-1,-4,2,-1,-2,0,1,-2
1576746839527925,1,4,1,0,-3,-2,-2,4
1576746839549958,7,0,-5,0,-2,-1,-2,-4
1576746839549958,1,1,-5,0,1,0,-1,2
1576746839550890,8,-1,-6,-2,0,1,-2,-1
1576746839550890,3,-1,0,-1,2,1,0,-1
1576746839563921,6,4,0,-2,-1,1,-1,1
1576746839563921,2,2,-4,-2,-3,-2,0,-1
1576746839564817,2,0,2,2,0,0,-1,2
1576746839564817,-4,-1,-1,-2,-1,-1,0,-2
1576746839586858,1,1,-1,2,-1,-3,-1,-3
1576746839586858,2,-3,-2,-2,0,2,0,4
1576746839587792,-2,0,-4,-1,1,-2,-1,-1
1576746839587792,1,1,2,0,0,1,0,2
1576746839609798,6,-1,-4,1,0,1,-1,-3
1576746839609798,-1,-1,-4,-1,-1,-3,-3,-1
1576746839610700,4,0,-1,-2,0,0,0,-4
1576746839610700,1,0,-3,-1,-3,-1,-2,0
1576746839624696,2,2,-5,-2,1,-2,0,1
1576746839624696,-4,-3,3,-1,-1,-1,-2,-1
1576746839624696,-2,1,-4,-2,1,-2,1,-3
1576746839624696,3,3,-2,-3,-1,-2,-1,-1
1576746839646645,0,1,-2,-2,-1,-2,-1,1
1576746839646645,-2,-2,-3,-1,0,-1,-2,-5
1576746839647637,1,-4,-1,-3,-2,-2,-2,1
1576746839647637,4,-2,-2,0,-1,0,1,0
1576746839669634,2,0,-3,0,-2,-1,0,-2
1576746839669634,1,1,-2,0,-3,-1,-1,-3
1576746839670535,-4,-1,2,1,-2,-1,1,1
1576746839670535,-2,-1,-3,0,0,-1,-2,-1
1576746839684590,-1,-2,0,0,0,2,0,-2
1576746839684590,1,-2,-4,-2,-1,0,-2,-1
1576746839684590,2,2,-2,0,0,-1,-1,-1
1576746839684590,0,-3,-2,-2,-1,-2,0,-1
1576746839706437,0,1,-2,-2,-1,-2,-1,2
1576746839706437,1,1,-3,3,0,-2,1,0
1576746839707439,5,1,-2,-2,0,-2,1,1
1576746839707439,-4,-1,-2,-2,-2,-1,1,-1
1576746839730402,2,-2,-4,-3,-2,-4,-2,2
1576746839730402,1,-3,2,0,1,0,-1,-2
1576746839730402,-1,1,-1,-2,-1,-1,-4,-3
1576746839730402,-4,1,0,2,0,1,1,2
1576746839744432,-1,-2,0,-2,-1,-2,-1,-4
1576746839744432,0,3,-2,1,1,-1,0,0
1576746839745345,-2,-2,3,2,0,-2,-1,1
1576746839745345,0,0,-1,-2,0,-3,0,1
1576746839767276,-6,-1,1,0,-3,-1,-1,-4
1576746839767276,-1,-1,1,-1,-1,-3,-1,-1
1576746839767276,-2,0,-2,-1,-1,3,-2,-4
1576746839767276,1,-1,0,-3,-1,-2,-1,1
1576746839790250,-7,-2,1,-1,0,1,-3,-4
1576746839790250,-4,2,4,-2,-4,1,-2,-3
1576746839791248,1,-4,0,1,0,0,2,3
1576746839791248,1,0,1,0,0,-2,0,2
1576746839803281,3,0,1,0,0,-1,0,0
1576746839803281,1,-2,0,-2,0,-1,0,-1
1576746839812187,-6,1,-2,-4,-2,-2,-3,-4
1576746839812187,5,1,-7,-1,-1,0,-4,-6
1576746839827163,0,0,0,1,1,-1,1,0
1576746839827163,-2,-3,2,-2,0,-1,0,-3
1576746839827163,2,-1,-3,-1,-2,-2,0,-1
1576746839827163,1,-2,0,0,-2,-1,-1,0
1576746839850153,2,2,-2,-3,0,0,-2,-2
1576746839850153,3,-1,-6,0,-3,-1,-3,-2
1576746839851106,2,-1,-5,1,0,1,1,1
1576746839851106,-4,1,-2,-2,-2,-1,-3,-3
1576746839864062,0,0,-4,-1,0,-1,1,2
1576746839864062,-3,1,0,0,-3,-2,0,0
1576746839871994,-6,0,-1,0,-1,-1,0,-2
1576746839871994,1,-2,1,-2,1,0,1,2
1576746839887055,0,-1,0,-1,-1,-1,-3,1
1576746839887055,-2,-3,-4,-2,-1,-1,-1,-2
1576746839887954,2,1,-4,1,-1,0,-3,-1
1576746839887954,-2,-1,-1,-1,0,0,0,-3
1576746839909995,4,0,-3,-1,-2,-2,-2,-3
1576746839909995,3,-4,-4,-1,0,0,2,4
1576746839910900,3,-2,1,-2,-3,0,-1,2
1576746839910900,0,-1,-3,-1,-1,-2,-3,-5
1576746839923883,5,-2,-3,0,-1,0,-2,0
1576746839923883,-1,0,0,-3,0,-1,-2,-3
1576746839931938,4,0,0,-1,0,-2,2,0
1576746839931938,-3,1,-2,1,0,1,1,-1
1576746839946894,-3,-2,-2,-3,-2,-3,1,0
1576746839946894,3,0,-2,2,-2,0,-2,0
1576746839947835,-1,0,1,-1,0,-1,-2,0
1576746839947835,-2,-2,1,0,-3,-1,0,-2
1576746839969834,-1,0,-4,0,-3,-3,0,-4
1576746839969834,-1,0,-5,0,0,0,0,0
1576746839970769,-3,-1,-2,-1,-2,-2,0,-1
1576746839970769,5,-2,1,0,-1,0,-2,0
1576746839983796,-8,-2,1,-2,0,-1,-2,-3
1576746839983796,-3,0,0,0,0,-1,0,0
1576746839991774,4,1,-3,0,-1,0,-1,-3
1576746839991774,1,-3,0,-2,-1,-2,-1,2
1576746840006645,0,-3,-1,0,-2,0,-2,-1
1576746840006645,-3,-4,-3,-2,-1,-1,0,-3
1576746840007633,1,2,-4,-2,0,0,-2,-4
1576746840007633,-2,0,-1,2,-1,0,0,0
1576746840029619,-1,2,0,-1,-2,1,-1,-4
1576746840029619,-4,3,-1,-1,0,0,-2,4
1576746840030579,3,-5,0,0,-2,-1,-1,0
1576746840030579,3,-1,-2,-1,0,-3,-1,1
1576746840043636,0,1,-2,0,0,0,1,-4
1576746840043636,5,2,-1,0,0,-3,0,-1
1576746840051620,2,-2,1,-2,-2,-1,-1,0
1576746840051620,-1,1,-3,-3,0,0,0,-3
1576746840067594,3,0,-2,0,-2,0,0,0
1576746840067594,4,-1,-2,-2,-2,-2,2,0
1576746840067594,3,2,-1,0,1,0,-1,-1
1576746840067594,-7,-4,-3,-2,0,1,0,1
1576746840090411,-3,1,2,0,0,-1,0,2
1576746840090411,1,0,-1,-1,-1,0,1,1
1576746840090411,-1,-1,-2,-2,-1,-2,-1,1
1576746840090411,-2,2,-1,-2,-2,-1,-2,-3
1576746840103478,0,-2,0,1,0,-1,2,4
1576746840103478,-3,0,4,0,-1,-3,-2,-3
1576746840111450,4,-4,0,-2,-1,0,1,4
1576746840111450,1,-2,2,1,0,-2,-1,-2
1576746840127314,6,-1,-4,-3,0,-1,0,2
1576746840127314,-1,0,0,-1,-1,1,-3,-2
1576746840127314,-4,0,-1,-1,-1,-2,-2,-5
1576746840127314,5,-2,-3,-1,-1,0,-1,0
1576746840150302,-3,0,0,0,0,1,-1,0
1576746840150302,-1,-4,1,-2,0,1,1,-2
1576746840150302,-2,1,1,0,-1,-1,-3,-1
1576746840150302,0,-2,-3,0,0,-1,0,-1
1576746840172194,-2,-1,2,2,1,-2,0,0
1576746840172194,4,-2,-1,-1,1,0,0,-1
1576746840173190,-3,-2,0,-2,-1,-1,1,1
1576746840173190,1,-1,-1,-3,-3,-1,-3,-1
1576746840187186,0,-2,-1,-2,1,0,-1,0
1576746840187186,5,1,-4,-1,-2,-1,1,-5
1576746840187186,0,-2,-1,0,2,1,0,-1
1576746840187186,-6,2,-4,-1,-4,0,-1,-2
1576746840210195,6,-1,0,0,-1,2,0,1
1576746840210195,1,-2,-3,-3,-1,-1,-1,0
1576746840211099,4,-1,-3,-1,0,-2,-1,-1
1576746840211099,2,3,-5,-2,-3,-1,0,-1
1576746840233031,-2,0,0,-2,-3,-1,-3,-2
1576746840233031,1,-2,-3,-2,-1,-1,-2,-3
1576746840233031,3,-3,-2,1,-1,-2,0,-3
1576746840233031,4,0,1,-1,0,1,1,1
1576746840247106,-3,-1,-2,-1,-1,-2,-1,0
1576746840247106,-1,2,-4,0,-2,0,0,1
1576746840247106,-7,-1,-4,0,0,1,-2,-1
1576746840247106,4,-5,0,-4,-1,-1,0,1
1576746840270030,4,-1,-2,0,-1,-2,-1,-2
1576746840270030,-4,-1,-1,-1,-1,0,0,0
1576746840270981,3,4,-2,0,1,0,-1,-1
1576746840270981,4,1,-2,1,0,0,1,-3
1576746840292880,-3,-1,0,-1,-1,-1,0,-2
1576746840292880,8,-2,-4,1,0,-1,0,0
1576746840292880,4,0,-1,0,-2,-1,-2,0
1576746840292880,-1,-1,2,0,0,0,-3,-1
1576746840306876,-2,-1,2,1,-2,-2,0,2
1576746840306876,-2,-4,1,2,-1,1,-2,-2
1576746840307882,-2,2,-4,-1,-1,-1,0,1
1576746840307882,2,2,-3,0,0,-3,-3,-3
1576746840329773,-2,3,-4,-1,0,-3,-1,2
1576746840329773,-1,-1,0,-3,-1,-2,0,-1
1576746840329773,3,-4,-3,0,-1,0,-2,-2
1576746840329773,2,-2,1,0,-2,-2,1,2
1576746840352821,3,1,-4,-3,-2,0,-1,-3
1576746840352821,-6,0,-1,-1,-1,0,-1,0
1576746840353708,-1,-2,0,-2,-3,1,-1,2
1576746840353708,1,0,0,1,1,-1,0,-1
1576746840366772,-6,-4,-2,1,-1,0,-2,-5
1576746840366772,5,-2,-1,0,0,-1,-2,2
1576746840367722,-7,0,1,-1,0,0,0,-1
1576746840367722,1,-1,1,0,1,-1,0,-4
1576746840389610,-4,-4,2,-1,-2,0,-2,1
1576746840389610,-1,5,-1,-1,-1,-2,1,-2
1576746840389610,-2,0,0,-2,-1,-1,0,-3
1576746840389610,0,-1,-3,0,-1,0,-2,3
1576746840412647,3,-1,-4,-3,-3,0,-1,-2
1576746840412647,-1,-2,2,1,-1,-2,-2,-2
1576746840413557,3,3,-3,0,-1,-2,0,0
1576746840413557,-1,1,1,-2,-1,-1,-2,-4
1576746840426612,-1,-4,-2,-2,0,0,0,0
1576746840426612,0,-1,-2,-1,0,0,0,1
1576746840427514,-3,-2,-4,-3,0,-1,0,-1
1576746840427514,-5,-1,-2,-3,-2,-2,-1,-1
1576746840449562,9,1,-1,1,0,0,1,1
1576746840449562,-2,-1,0,-1,0,-1,-2,-2
1576746840450448,0,-1,0,1,1,0,-1,-1
1576746840450448,3,0,1,-1,2,2,1,1
1576746840472390,5,0,-2,0,-1,0,-1,0
1576746840472390,-2,0,-7,-2,-3,0,-2,-3
1576746840473392,2,-1,-3,-1,0,-1,0,1
1576746840473392,-2,0,1,0,-2,-1,-2,-2
1576746840486448,-11,-2,5,-2,2,-2,-1,0
1576746840486448,-1,-1,1,-2,0,-2,-1,2
1576746840487350,-4,-3,0,0,-1,1,0,-1
1576746840487350,-2,-2,-4,1,-2,-3,-1,1
1576746840509391,-2,0,-1,0,-1,0,0,-3
1576746840509391,-4,-2,-1,-3,-1,0,-1,0
1576746840510297,-4,-1,3,-2,-3,0,1,4
1576746840510297,-9,-5,-3,-3,-1,-1,-1,-4
1576746840532240,0,-3,-2,-2,-3,0,-2,-2
1576746840532240,0,0,2,1,-1,0,-1,1
1576746840533263,-1,0,-2,-2,-1,-3,-2,-4
1576746840533263,-4,-2,-1,1,1,-1,-2,0
1576746840547230,4,1,-5,-2,-1,-1,-3,1
1576746840547230,-5,-2,2,0,-1,1,3,3
1576746840547230,6,0,1,-1,-1,0,-2,0
1576746840547230,1,-1,-3,-1,-1,-1,2,2
1576746840569233,-2,-1,0,-1,-1,0,0,3
1576746840569233,-1,-1,-1,-1,-2,-2,0,0
1576746840570180,1,2,-1,-1,0,-1,-1,0
1576746840570180,-1,-3,-1,-2,1,-1,-2,-1
1576746840592173,-6,-3,-1,-1,-1,-2,-1,-2
1576746840592173,-2,0,3,-1,0,-1,-2,-6
1576746840593067,-3,-1,-3,2,0,-2,-1,-5
1576746840593067,-1,1,0,-2,-2,-2,-3,1
1576746840607081,5,2,-5,0,1,0,0,-4
1576746840607081,-3,0,0,-1,-1,-1,-1,-2
1576746840607081,0,-4,-2,0,1,0,-1,2
1576746840607081,2,1,0,-1,-2,0,2,3
1576746840629071,-2,2,-2,-2,-2,-2,-1,0
1576746840629071,4,-2,-3,-1,-2,0,-1,-3
1576746840629973,2,1,-6,-3,0,-1,-4,-4
1576746840629973,-1,-1,0,-2,0,-2,0,-2
1576746840652907,0,2,-2,0,0,1,-1,-1
1576746840652907,-1,-1,3,0,0,-2,-1,1
1576746840652907,-7,1,0,-2,-1,0,0,1
1576746840652907,0,-1,-2,0,-2,1,-1,-1
1576746840666970,1,-1,-1,0,-3,1,1,-2
1576746840666970,2,1,-2,-2,-1,-1,-2,-3
1576746840667911,-2,-4,-2,-1,-2,-1,-2,-4
1576746840667911,-3,2,-2,-1,0,-1,-2,-3
1576746840688812,-5,1,2,0,0,-2,-1,-3
1576746840688812,2,-1,-3,1,-2,0,0,-1
1576746840689820,3,0,-2,-1,-2,-1,1,2
1576746840689820,2,0,1,-2,0,-1,-3,-2
1576746840712853,4,-2,-2,1,-2,0,-2,0
1576746840712853,-4,-2,-1,-2,-2,-2,-3,-1
1576746840712853,1,-2,-1,-1,-1,0,-1,-1
1576746840712853,-3,-1,-2,-1,-3,2,-1,1
1576746840725807,5,1,-4,-3,0,-2,-1,-1
1576746840725807,-2,-1,-2,0,0,0,1,2
1576746840734727,-2,-2,0,1,-1,-1,-2,0
1576746840734727,0,0,-3,-1,-1,-1,-1,0
1576746840749694,-3,-2,-3,0,-1,-2,-1,-3
1576746840749694,-2,-1,-3,-1,1,1,0,1
1576746840749694,0,0,0,0,0,0,0,-5
1576746840749694,2,1,0,1,0,-2,-1,-1
1576746840772588,-1,-2,-1,-2,-1,0,1,1
1576746840772588,3,1,-4,1,-2,-3,-1,-3
1576746840773589,2,0,0,1,-1,-1,-1,2
1576746840773589,-3,1,0,1,-2,-2,-2,0
1576746840786585,-7,-2,1,-1,-1,1,1,5
1576746840786585,2,0,2,-1,0,-1,-1,-3
1576746840794639,2,0,0,-2,-2,-2,2,3
1576746840794639,-4,-3,-4,-2,0,-1,-2,-3
1576746840809598,6,-3,-3,1,-3,-2,-2,-1
1576746840809598,-2,1,-4,0,0,-1,0,1
1576746840810496,-2,1,-1,0,0,-2,-3,0
1576746840810496,7,2,2,0,0,0,2,3
1576746840832529,-1,0,-1,-1,0,0,-3,-4
1576746840832529,5,-2,-1,-2,-2,-2,-1,0
1576746840833476,1,-3,-4,1,-1,1,1,1
1576746840833476,-3,1,-1,-1,0,0,-2,-2
1576746840846475,5,2,0,0,0,-2,-2,-2
1576746840846475,-2,0,-2,-2,-2,0,-1,-2
1576746840854474,-7,-3,0,0,-1,0,-2,1
1576746840854474,-5,-2,2,-1,-1,-3,-2,-1
1576746840869424,-2,0,-1,-2,-2,1,0,1
1576746840869424,-12,-1,4,0,0,0,-2,0
1576746840870365,1,-1,-4,0,-2,-1,0,-3
1576746840870365,0,-3,0,-4,-1,-1,1,-1
1576746840892366,-8,-2,3,1,-2,-2,-1,-1
1576746840892366,-2,-3,-1,0,-1,-1,2,7
1576746840893317,-4,0,2,-3,0,-1,0,-2
1576746840893317,-1,-3,3,0,1,0,-1,1
1576746840906234,-1,-6,0,0,0,1,0,0
1576746840906234,-4,-2,0,-1,-1,0,-1,1
1576746840914310,-4,0,1,-1,-1,-2,-1,-2
1576746840914310,-1,-2,-3,-1,-3,-1,0,-2
1576746840929268,1,-1,-5,-2,-2,-1,0,-2
1576746840929268,2,-3,-3,0,0,0,-3,-3
1576746840930206,3,3,0,1,-2,0,0,-2
1576746840930206,-4,-2,-3,-1,0,-2,-2,-1
1576746840952209,-5,-1,-1,-3,0,-1,-1,-3
1576746840952209,-4,0,1,0,0,-1,0,0
1576746840953118,-5,-2,0,-2,-1,-2,0,-2
1576746840953118,2,-1,4,0,-1,1,1,3
1576746840966168,0,0,0,0,0,-1,0,0
1576746840966168,2,1,3,-3,0,0,1,-1
1576746840974141,0,-7,-2,-2,-1,0,0,-3
1576746840974141,0,3,-2,-1,-1,0,1,-2
1576746840989010,2,-2,2,-1,-1,-1,-1,2
1576746840989010,0,1,-1,0,0,1,-1,1
1576746840990016,2,1,-2,0,0,-2,-3,-2
1576746840990016,1,-3,-2,0,-3,-2,-2,-3
1576746841012945,5,0,-4,1,-2,-1,-1,-1
1576746841012945,2,-1,-3,0,1,-2,0,0
1576746841012945,0,4,-1,-3,0,0,0,2
1576746841012945,-1,-6,-1,-1,0,-1,0,0
1576746841025916,-2,1,0,0,-1,0,0,-1
1576746841025916,2,2,-1,-1,-1,-2,-1,-5
1576746841033891,3,-1,-2,-1,-1,-1,0,1
1576746841033891,4,3,-1,0,0,1,-1,1
1576746841049847,2,1,-2,-2,-1,-2,-1,-1
1576746841049847,3,-4,-4,-1,1,-2,-1,-3
1576746841049847,5,-1,0,0,-1,0,2,2
1576746841049847,-2,-3,-3,0,-1,-1,1,-2
1576746841072785,1,-2,4,-1,0,-2,-1,3
1576746841072785,-3,-4,-2,-2,-3,1,-2,-4
1576746841072785,4,1,-2,2,1,-2,-3,-4
1576746841072785,-1,-4,0,-2,1,0,0,0
1576746841094825,-5,-3,-1,-4,0,-3,-2,-4
1576746841094825,0,-1,3,-1,0,-2,-1,0
1576746841095731,5,1,-1,-2,-2,1,-1,0
1576746841095731,3,2,-4,2,1,-2,1,0
1576746841109714,11,4,-5,-1,0,1,-1,-1
1576746841109714,3,-3,-5,-1,-2,0,-1,0
1576746841109714,7,-3,-4,0,-3,0,-3,0
1576746841109714,7,-1,-1,0,-1,0,1,-1
1576746841132724,-5,-3,-1,0,-1,2,0,2
1576746841132724,5,1,-5,1,-2,0,0,-5
1576746841133637,-4,0,-4,0,0,-2,0,-2
1576746841133637,0,0,0,-1,-2,-1,-1,1
1576746841154667,3,-1,1,0,2,0,0,-1
1576746841154667,3,-1,1,-1,-1,-1,-1,0
1576746841155563,-3,-4,0,-3,-1,-3,-2,-4
1576746841155563,5,4,-2,0,-2,0,-1,-4
1576746841169635,11,-1,-6,0,-2,-1,-1,-2
1576746841169635,-5,-2,-1,0,-3,-1,-2,-2
1576746841169635,0,2,-2,0,-1,-1,0,-1
1576746841169635,-3,-1,-4,-2,1,-2,0,-2
1576746841192563,3,2,-3,-2,-1,0,-2,-2
1576746841192563,-4,0,-4,-2,-2,0,0,1
1576746841193470,7,-2,-2,0,1,0,-2,-2
1576746841193470,-2,-2,-3,0,-2,-1,-3,-1
1576746841215408,-4,-1,-1,0,-1,-2,-2,4
1576746841215408,3,-1,-3,0,-1,-1,-1,-3
1576746841215408,-4,1,-1,-1,-2,-1,0,3
1576746841215408,0,2,-2,-2,0,-3,-1,-3
1576746841229438,-6,0,1,-1,-2,-2,0,-1
1576746841229438,1,-1,0,-1,0,-2,-1,1
1576746841230418,-6,-4,-1,0,0,1,-4,-3
1576746841230418,-2,-1,0,-1,0,-2,0,1
1576746841252403,-3,-1,-2,0,-2,-1,0,-2
1576746841252403,-6,-1,0,-3,-1,0,-1,-4
1576746841253339,-2,-1,0,0,-1,0,2,3
1576746841253339,-5,0,-3,0,-2,0,-3,-2
1576746841275330,-1,-3,-1,0,0,-2,0,-5
1576746841275330,6,1,-2,1,-1,1,0,2
1576746841275330,-2,2,0,-2,-1,0,-2,-1
1576746841275330,-1,-2,-3,-3,-2,-1,-1,0
1576746841289205,-9,0,-3,-1,1,-1,0,-3
1576746841289205,4,2,0,1,-1,1,-1,0
1576746841290208,1,0,-2,-3,0,-1,-1,-5
1576746841290208,6,-3,0,1,-2,-1,1,2
1576746841312243,6,2,2,-2,-2,0,0,-3
1576746841312243,-1,1,-2,-2,-2,-2,0,-1
1576746841313145,1,-1,1,0,-1,0,-1,4
1576746841313145,2,2,1,-2,1,-1,-2,-1
1576746841335185,1,-4,0,-2,-1,-1,-2,3
1576746841335185,1,1,-1,0,-1,0,-1,1
1576746841336117,0,-2,-1,2,1,0,1,0
1576746841336117,2,-2,-3,-1,0,-1,0,0
1576746841349144,-9,-2,-1,2,0,-1,0,1
1576746841349144,2,2,-1,-2,0,0,-1,-2
1576746841350048,-3,0,-1,-3,-3,-2,-1,-2
1576746841350048,3,-1,2,-2,0,0,0,0
1576746841371985,3,0,-6,-2,0,1,0,2
1576746841371985,-4,-1,-1,1,-1,1,-1,-3
1576746841372982,2,-1,-1,-1,2,1,0,-3
1576746841372982,4,-1,0,-1,-2,-2,1,-2
1576746841395023,4,1,-2,0,-1,-1,-3,-3
1576746841395023,2,0,-2,0,-2,0,0,0
1576746841395928,-1,1,-2,-1,-1,-1,-1,0
1576746841395928,0,0,-6,-1,-1,0,-2,-1
1576746841408921,-4,-3,3,-2,-1,-1,-1,0
1576746841408921,-6,0,-1,0,1,-1,-1,1
1576746841409888,-2,0,-1,-1,-2,-1,-1,-1
1576746841409888,-2,-3,1,-2,-1,0,-1,-3
1576746841432867,7,-1,-2,0,-1,-1,-2,1
1576746841432867,1,-3,-3,-2,0,-1,0,-1
1576746841432867,5,-1,0,0,-2,0,0,1
1576746841432867,-3,1,-6,0,-1,-1,-1,-8
1576746841454841,4,4,-1,1,-1,-1,-1,-2
1576746841454841,3,-1,-3,-2,0,1,-1,2
1576746841455813,3,-1,-1,2,-2,-1,-1,2
1576746841455813,-4,0,2,-1,0,-1,-1,1
1576746841469736,-2,1,-4,-2,0,0,-1,-3
1576746841469736,5,0,-3,-2,0,-2,0,-3
1576746841469736,0,-1,0,0,0,0,0,-3
1576746841469736,3,2,-2,2,0,-1,2,3
1576746841492760,3,-2,-1,-1,-2,-1,-2,-1
1576746841492760,2,0,2,1,-2,-4,-1,1
1576746841493711,-7,-1,-2,-2,-2,-2,0,-1
1576746841493711,2,-2,-3,-3,-1,0,-1,0
1576746841514677,1,1,-2,0,-1,0,1,3
1576746841514677,2,-2,0,-3,-1,-1,0,3
1576746841515602,-1,-1,-1,-1,-1,-1,-2,-5
1576746841515602,6,-2,-6,1,-2,-1,-2,-1
1576746841529675,-2,-3,-5,1,0,0,2,2
1576746841529675,-1,2,-1,1,1,0,-2,1
1576746841529675,2,-2,-1,-1,0,-2,-1,3
1576746841529675,-5,-2,-1,-2,-2,-2,-1,-2
1576746841551605,0,0,3,0,1,-1,-2,-3
1576746841551605,0,-2,-4,-1,-1,-1,0,-1
1576746841552506,6,2,-3,0,2,0,0,0
1576746841552506,-2,-1,1,-1,-2,-1,0,0
1576746841575441,-2,0,2,0,0,0,0,2
1576746841575441,-8,-3,0,2,0,0,0,-2
1576746841575441,-1,1,-2,0,-2,0,-2,-1
1576746841575441,4,1,-1,0,1,-1,-2,0
1576746841588405,0,-1,-4,-3,-2,-3,-2,-4
1576746841588405,1,1,2,-2,1,-1,0,-2
1576746841597382,2,-1,-3,-2,0,-2,0,-1
1576746841597382,5,1,-1,1,1,-1,-3,-3
1576746841611440,-3,-1,0,1,0,0,-1,-3
1576746841611440,2,-1,-1,-1,-3,0,0,0
1576746841612342,0,1,-2,1,0,-2,-3,0
1576746841612342,-6,-2,1,0,-2,1,0,2
1576746841635357,3,-2,-2,-1,0,-2,-2,-2
1576746841635357,2,-1,0,1,-3,0,-1,-2
1576746841635357,-7,-5,-1,0,-1,0,-2,-2
1576746841635357,-1,1,1,2,1,-1,0,-1
1576746841649347,-3,1,-1,-1,-2,1,0,2
1576746841649347,-3,-3,1,-1,1,-1,-1,-2
1576746841650293,-4,-3,-2,-3,1,-1,2,0
1576746841650293,-1,0,0,-1,0,0,1,-1
1576746841672183,-4,-1,-1,-1,-1,-2,-1,2
1576746841672183,0,-1,-3,0,-4,-2,-1,-2
1576746841672183,-1,-2,1,-1,0,-2,0,1
1576746841672183,-1,-2,-2,-1,-1,0,-1,0
1576746841695220,-2,0,-2,-2,-2,0,-2,-8
1576746841695220,-2,-1,-3,-2,0,0,-1,-2
1576746841696127,2,0,0,0,0,-1,0,-1
1576746841696127,2,-1,-5,-1,-1,-1,-2,-1
1576746841709084,5,1,-1,-1,0,-1,0,-2
1576746841709084,4,0,1,-2,0,-1,-1,-1
1576746841717171,0,-1,1,-1,0,3,1,3
1576746841717171,4,0,-2,-2,-1,0,-2,-3
1576746841732031,-8,-1,-1,-1,0,-1,0,-4
1576746841732031,2,-3,-1,1,-1,0,0,1
1576746841732031,1,-2,-3,-2,-3,-4,0,-1
1576746841732031,-2,-2,0,-1,1,0,3,9
1576746841754960,2,-2,0,0,0,0,-2,-2
1576746841754960,-1,0,-5,-1,-1,-2,0,-2
1576746841755958,5,2,-3,-2,-2,-1,-1,-5
1576746841755958,-1,1,-2,-1,0,0,-3,-1
1576746841768974,7,-2,1,-1,0,-1,1,3
1576746841768974,3,-2,-3,-1,0,-3,-1,1
1576746841776999,-2,-2,0,-2,-1,0,-2,0
1576746841776999,0,-3,0,-2,-2,0,1,-2
1576746841791961,3,1,-3,0,0,-1,1,1
1576746841791961,1,-4,-1,-2,0,0,-2,-1
1576746841792867,1,0,-4,-4,-2,0,-1,-3
1576746841792867,2,2,1,0,0,0,0,-2
1576746841814836,3,-2,-2,-1,-2,0,-1,-1
1576746841814836,0,0,-2,-1,0,-1,0,-5
1576746841815807,2,2,-3,1,-2,0,-2,-3
1576746841815807,1,-1,-2,-3,-1,-1,-2,-2
1576746841828866,4,1,-5,-1,0,-3,-2,-2
1576746841828866,-5,-3,0,-1,1,-1,-3,-2
1576746841836841,3,1,0,1,-1,-1,0,3
1576746841836841,-1,-1,-6,-1,-2,-1,-1,-2
1576746841851801,5,-1,-1,1,-1,-1,1,4
1576746841851801,1,1,-4,-1,0,1,0,0
1576746841852751,5,-1,0,2,0,0,1,1
1576746841852751,-1,-1,1,0,-2,-3,-1,0
1576746841874739,-13,-5,-2,-1,-2,-1,-3,-2
1576746841874739,-3,3,0,-1,-1,-1,0,-2
1576746841875639,-3,-3,0,-2,1,1,-1,3
1576746841875639,5,4,-3,1,-1,0,0,3
1576746841888603,-3,-2,-3,-2,0,0,-1,0
1576746841888603,-5,-2,4,1,-1,-1,-2,-1
1576746841896678,-6,-1,-2,-1,-1,-2,0,-3
1576746841896678,2,-4,-1,2,1,1,0,0
1576746841911640,4,1,1,-3,1,-2,0,-5
1576746841911640,2,1,-2,-1,-2,-1,-3,2
1576746841912595,-3,-1,-1,-1,-2,-2,0,-1
1576746841912595,-3,1,2,-2,0,-2,0,-3
1576746841935478,3,1,-4,-2,-2,-2,-2,-2
1576746841935478,-1,0,-4,-2,1,1,0,0
1576746841935478,1,-4,1,2,0,1,-2,-1
1576746841935478,2,0,-2,0,-1,1,0,3
1576746841948539,3,1,-1,2,-1,0,0,-3
1576746841948539,5,1,-2,-1,-1,-3,-1,-3
1576746841956459,0,-1,-2,-3,-2,-2,-3,-2
1576746841956459,0,-1,-2,-1,0,-1,-3,-4
1576746841971427,8,0,-1,0,0,0,1,2
1576746841971427,-3,-3,-5,-3,-1,0,-2,-2
1576746841972380,-2,0,-1,0,-1,0,-1,2
1576746841972380,-2,-2,0,-1,-1,0,-3,-3
1576746841995373,0,2,0,1,-1,0,0,1
1576746841995373,-3,1,2,1,1,1,1,6
1576746841995373,-3,-5,5,-2,0,-3,0,-5
1576746841995373,-7,0,0,-3,-2,-2,0,2
1576746842008385,-5,-4,-4,-2,-2,0,-3,0
1576746842008385,-3,0,2,0,-2,-1,0,1
1576746842017291,6,0,-4,-1,-2,0,-2,-5
1576746842017291,-2,0,-1,0,0,-2,-1,-2
1576746842032218,6,1,-3,1,1,0,1,-1
1576746842032218,3,0,-3,0,0,0,1,-1
1576746842032218,-3,-2,-2,0,-1,-1,-1,2
1576746842032218,12,-1,-6,-3,-2,-1,0,-3
1576746842055158,-3,3,-1,-2,-1,-1,0,-3
1576746842055158,-2,-3,2,0,0,-2,2,2
1576746842056162,1,-1,0,-3,-1,1,-3,-3
1576746842056162,-2,-4,-2,1,1,2,0,2
1576746842077100,0,-1,-2,-1,-1,-1,-2,2
1576746842077100,6,-1,-2,0,-1,-1,-1,-1
1576746842078097,-2,0,-1,0,-1,0,0,0
1576746842078097,-1,1,-3,-1,-2,-1,-1,-5
1576746842092102,5,1,-3,-1,0,-1,-1,-2
1576746842092102,1,-3,-4,0,-2,-1,0,-3
1576746842092102,2,1,-5,0,0,-1,2,2
1576746842092102,5,0,-3,-1,0,-2,-1,0
1576746842115096,-2,-4,1,0,0,2,-1,4
1576746842115096,5,2,-3,-1,2,0,-2,-4
1576746842116031,9,-1,-5,0,-1,-1,-1,-2
1576746842116031,-2,-1,-1,-1,-2,-1,1,2
1576746842137936,0,0,0,0,0,-1,-1,-1
1576746842137936,-2,-2,-5,-1,-2,0,-2,-2
1576746842137936,1,4,1,0,-1,-2,-1,-4
1576746842137936,-2,3,-1,-1,-2,-1,-1,-1
1576746842152000,-5,-1,-1,-1,0,-2,-1,-1
1576746842152000,-2,-2,-2,0,-1,1,0,0
1576746842152933,-3,-2,1,1,1,0,-2,0
1576746842152933,-1,-2,-3,-2,-1,0,-1,-3
1576746842174937,0,1,-2,-1,-2,1,3,-1
1576746842174937,-4,1,2,0,-1,-2,-1,0
1576746842175892,1,2,-5,-1,0,-2,1,3
1576746842175892,3,-3,2,-2,-1,-2,-1,-2
1576746842197788,0,-1,1,-1,0,-1,0,2
1576746842197788,4,-1,-2,-2,-2,2,0,-5
1576746842197788,-1,1,-2,0,-3,-3,0,-1
1576746842197788,-3,1,-4,-1,-1,0,1,2
1576746842211838,-9,-2,-2,0,-1,0,-1,-2
1576746842211838,3,-6,-1,0,-2,-2,-1,-1
1576746842212744,-2,-1,-2,-2,-1,1,0,-2
1576746842212744,3,1,-2,-1,-1,-2,-2,-7
1576746842234777,8,-1,-4,-1,-1,-2,0,-3
1576746842234777,-3,0,1,1,-1,-2,0,3
1576746842235679,-1,-3,-2,1,-1,-3,-1,-3
1576746842235679,2,-2,-1,-1,0,1,-1,0
1576746842257716,1,0,-2,-3,0,-2,-2,3
1576746842257716,-1,-3,0,-2,-1,0,0,1
1576746842258623,2,0,-1,-3,-2,-1,0,-1
1576746842258623,-2,0,0,-1,-1,-1,0,0
1576746842271579,-7,-2,1,0,0,-1,-1,2
1576746842271579,3,3,-6,-1,-2,-2,-2,-4
1576746842272579,-1,-3,0,0,2,1,-2,3
1576746842272579,-4,-4,-1,0,-1,0,-2,2
1576746842295516,0,1,-4,-1,0,0,-2,-1
1576746842295516,2,0,-2,-2,-3,-1,-2,-1
1576746842295516,-1,-1,1,0,-1,2,0,-4
1576746842295516,-2,0,-1,1,1,-1,-1,2
1576746842317554,2,-1,-5,-2,-2,1,-2,-3
1576746842317554,-2,-3,-1,2,0,0,0,0
1576746842318506,-2,-1,-1,-1,-1,-2,1,-1
1576746842318506,0,1,-2,0,-1,0,1,1
1576746842331518,-10,-2,4,-2,-1,-2,1,4
1576746842331518,1,4,0,-2,2,-2,-1,-5
1576746842332430,-8,-3,-3,-1,-1,-1,-1,1
1576746842332430,2,0,-2,0,-1,0,-1,-2
1576746842355356,4,0,-5,-1,-2,-1,-1,2
1576746842355356,-5,-3,1,-1,0,0,-1,1
1576746842355356,-5,0,1,-2,-2,1,-1,-1
1576746842355356,-1,0,0,0,0,-2,-2,1
1576746842377396,3,-1,0,0,-1,0,0,-2
1576746842377396,-7,2,1,0,0,-3,2,2
1576746842378303,-1,0,-2,0,0,0,-2,-2
1576746842378303,-6,-1,0,0,-1,0,0,1
1576746842391294,-7,-4,4,1,-1,-2,0,1
1576746842391294,-3,-3,0,-2,-2,-1,0,-2
1576746842392255,-6,0,4,-1,-1,-2,-2,1
1576746842392255,-1,0,-2,-2,-1,-2,0,1
1576746842422219,0,0,1,0,-1,1,1,3
1576746842422219,-6,-3,-2,-2,-1,0,-5,-2
1576746842423180,1,-3,2,0,-1,1,0,1
1576746842423180,0,0,2,0,-1,0,-1,-1
1576746842437235,1,2,-3,-1,-1,-1,-3,-4
1576746842437235,1,1,-1,0,0,0,-3,-2
1576746842438135,3,1,0,0,-3,-1,1,4
1576746842438135,-1,0,-2,-2,0,-2,-1,-5
1576746842451198,6,-1,-3,0,0,0,-1,-1
1576746842451198,1,-1,0,-1,-1,1,-1,-3
1576746842459177,-2,-2,-3,1,1,-2,-3,-2
1576746842459177,8,1,0,-1,-1,-2,0,-3
1576746842475134,-2,0,0,0,0,-2,-2,-6
1576746842475134,-1,1,0,-1,0,1,0,1
1576746842476042,3,2,-4,-2,0,-2,0,-3
1576746842476042,-1,-1,-3,-1,-1,1,-1,-3
1576746842497974,-1,-2,-3,-3,0,-1,0,-1
1576746842497974,-2,-3,-1,0,-2,-1,1,4
1576746842497974,4,-1,-1,0,-1,-3,-1,-6
1576746842497974,-2,-1,-2,0,0,-1,0,3
1576746842511945,4,2,-3,-1,-3,-1,0,4
1576746842511945,-4,-1,-2,-2,-1,-2,-2,-3
1576746842512986,0,0,-3,-1,-1,-2,-2,0
1576746842512986,-1,-2,-1,-1,-1,0,-1,0
1576746842534978,-7,2,-2,-1,-2,-2,0,-2
1576746842534978,0,-4,-3,-1,0,0,-2,-3
1576746842535924,1,1,-1,0,0,1,0,-3
1576746842535924,1,1,-3,0,-1,-1,-1,1
1576746842557874,2,-2,-3,0,-1,-2,-1,-5
1576746842557874,1,1,-1,-1,-1,-1,-1,-1
1576746842557874,-2,-4,-1,-1,1,1,0,3
1576746842557874,1,-1,-2,-1,-2,0,-1,-2
1576746842571775,1,-1,-2,-1,0,0,-1,1
1576746842571775,-2,1,-1,0,-1,-2,-1,1
1576746842572779,0,0,1,0,0,-1,-1,-1
1576746842572779,-1,-2,-1,0,0,-2,-1,0
1576746842594815,-1,-4,0,0,0,0,-2,0
1576746842594815,3,0,-1,0,0,-2,0,1
1576746842595768,-3,-2,0,-1,-2,1,0,2
1576746842595768,5,-1,0,-2,0,0,1,2
1576746842617688,-8,-3,0,-1,0,-2,-2,-8
1576746842617688,4,0,-4,0,-2,-1,-1,0
1576746842618649,4,-4,-3,-1,-1,0,2,-2
1576746842618649,0,-2,-4,0,-1,-1,-1,-3
1576746842631617,3,1,-1,0,-2,0,-2,2
1576746842631617,-2,-2,-4,-2,-1,-1,-1,-1
1576746842639638,0,1,0,0,0,-1,-1,0
1576746842639638,-2,-1,-3,0,-1,-3,-3,-4
1576746842654603,2,0,-3,-1,1,-1,0,0
1576746842654603,3,-1,-1,1,0,-2,0,-2
1576746842655552,-6,1,-1,-2,-1,-2,-3,2
1576746842655552,-1,-3,0,-3,-2,2,1,3
1576746842677589,-3,-2,-1,1,1,0,-1,-2
1576746842677589,4,3,-3,-1,0,0,-1,1
1576746842678505,-3,-3,-3,-1,-2,-1,-1,-3
1576746842678505,2,1,1,2,0,0,-2,2
1576746842691510,-3,-4,-4,-2,-1,-1,-1,0
1576746842691510,0,-1,2,-2,1,1,-1,-3
1576746842699532,0,-1,2,-1,-1,-1,1,-2
1576746842699532,-1,0,-5,-1,-2,-1,-3,-2
1576746842715431,7,4,1,0,-2,0,1,1
1576746842715431,0,-2,-4,-1,-1,-2,-3,-2
1576746842715431,-2,-1,-4,-1,-1,-1,-2,0
1576746842715431,-2,0,0,0,0,-1,-2,-1
1576746842737430,-1,0,0,-1,-2,0,-1,1
1576746842737430,3,1,-2,-1,-2,0,2,2
1576746842738333,1,1,-1,-2,-3,-1,2,3
1576746842738333,-4,-1,3,2,0,0,1,-1
1576746842751396,-4,-1,1,-4,-1,-2,-2,-4
1576746842751396,6,-4,0,1,-2,-1,0,-1
1576746842759375,-6,-4,3,-1,1,-1,-1,0
1576746842759375,-7,2,0,-3,-1,1,1,2
1576746842774337,-5,0,1,-1,-2,0,-1,0
1576746842774337,1,-1,3,-1,0,-1,4,1
1576746842775240,-2,-1,-1,-3,-1,-2,-2,-3
1576746842775240,0,-2,-3,0,-1,-2,-3,-2
1576746842797211,4,0,1,1,-1,-1,-1,-1
1576746842797211,-5,-4,2,0,-1,0,0,-2
1576746842798174,4,1,-1,-1,-1,-1,-1,-2
1576746842798174,2,-3,-3,-2,0,-1,-2,0
1576746842811237,1,-1,-3,1,-1,-1,0,0
1576746842811237,-5,-1,1,1,0,0,0,4
1576746842819158,4,-4,-3,1,-1,1,0,0
1576746842819158,-5,-1,-2,-4,-4,-2,-3,-1
1576746842834174,4,1,-1,0,0,-1,1,-1
1576746842834174,-8,-2,1,1,-1,-2,-3,-2
1576746842835117,2,0,-3,-2,0,0,0,0
1576746842835117,1,-3,0,-3,-2,-1,1,0
1576746842858011,-4,0,-2,-2,-3,1,-3,-1
1576746842858011,3,1,-4,-2,-1,-1,-2,-1
1576746842858011,4,-1,1,-1,-1,-2,-2,-6
1576746842858011,4,-2,0,1,0,-2,-1,-2
1576746842871094,0,-1,-1,-2,0,-2,0,-1
1576746842871094,3,0,-3,-1,0,0,0,-5
1576746842879054,2,1,-1,3,0,0,-1,3
1576746842879054,4,0,0,0,0,1,1,0
1576746842894016,3,1,-2,0,0,-2,-1,-1
1576746842894016,3,-1,-1,-3,0,0,0,1
1576746842894912,2,4,-1,0,1,1,0,2
1576746842894912,-2,-2,1,0,-2,0,0,-1
1576746842917889,1,-1,-5,2,0,0,1,3
1576746842917889,3,0,-5,-2,-1,0,-1,-5
1576746842917889,7,1,-3,0,0,-1,0,-2
1576746842917889,3,1,1,-1,-2,-1,0,-3
1576746842930818,-2,-1,-5,-4,-1,-1,0,-3
1576746842930818,2,2,-2,0,-2,-2,-1,0
1576746842939790,0,1,-2,-1,-1,0,1,3
1576746842939790,2,-3,0,2,2,-1,1,-1
1576746842953854,12,1,-5,1,-1,-2,1,1
1576746842953854,-2,0,-4,-1,-2,0,-1,2
1576746842954753,-3,1,-2,-1,-2,-1,-2,-2
1576746842954753,12,3,-2,-1,0,-1,0,-1
1576746842977800,-8,-4,0,-3,0,-1,-1,-1
1576746842977800,-2,0,1,0,-3,-2,-1,3
1576746842978689,1,-2,-3,0,-1,-1,-1,-3
1576746842978689,-1,0,-4,-2,0,-2,0,0
1576746842999733,3,-2,2,3,-1,-2,0,0
1576746842999733,7,-1,-3,-2,-1,-4,-1,-2
1576746843000634,2,1,0,-2,-1,0,0,-1
1576746843000634,2,1,-1,-3,-3,1,-1,1
1576746843014633,9,1,-4,0,0,0,-2,-3
1576746843014633,-1,-2,0,0,0,3,2,2
1576746843014633,2,-1,-3,-2,-1,-1,-1,-2
1576746843014633,6,0,-5,0,1,-2,0,-2
1576746843037632,2,4,2,-1,0,0,-1,-1
1576746843037632,0,-3,-1,0,0,0,0,-3
1576746843038539,5,0,-1,0,-2,-3,0,2
1576746843038539,-2,-1,2,0,-2,-1,-1,0
1576746843060470,0,1,-4,-3,1,-1,-4,-6
1576746843060470,4,1,-1,-2,1,-1,-2,-4
1576746843060470,-1,-3,-2,1,0,-1,1,0
1576746843060470,-4,-1,-3,0,-2,-2,-2,-2
1576746843074475,-1,2,-2,-1,-2,-1,0,1
1576746843074475,1,2,0,-2,-1,-1,1,0
1576746843075438,-1,-1,-2,1,0,1,-1,-1
1576746843075438,1,1,-2,-2,1,-1,1,5
1576746843097443,-1,-2,-2,0,-2,-2,-2,1
1576746843097443,1,2,1,1,-1,-1,-1,0
1576746843098421,0,1,-4,-1,-1,-1,0,2
1576746843098421,-2,-2,-5,0,-1,-2,-2,-6
1576746843120360,0,-1,0,-1,-1,-2,0,1
1576746843120360,1,-2,1,0,1,1,0,3
1576746843120360,-5,-5,0,-2,-3,-2,-3,-2
1576746843120360,-4,-1,0,-1,-1,0,0,0
1576746843134371,-9,-5,-3,0,-1,-1,0,-7
1576746843134371,-6,-4,-4,0,-1,-1,-2,-2
1576746843135322,-2,-2,2,-2,0,1,0,-1
1576746843135322,-2,3,-2,-1,-2,-1,0,5
1576746843157312,-17,-4,1,0,-3,-1,-2,-4
1576746843157312,-4,-1,1,-1,-2,-1,-1,-5
1576746843158214,-8,0,-1,1,1,-1,0,0
1576746843158214,0,0,-1,2,1,-2,-1,1
1576746843180154,-4,-2,3,-1,-1,0,-1,3
1576746843180154,0,-3,-3,-1,-2,-3,-2,0
1576746843181159,2,5,-4,0,0,0,1,2
1576746843181159,-3,-1,-3,-5,-1,-2,-1,-3
1576746843194216,2,0,-4,2,1,-1,-2,-1
1576746843194216,-3,-3,1,0,0,0,0,0
1576746843195113,-1,-1,-1,-1,-1,-2,-2,-5
1576746843195113,-2,-1,0,0,0,-1,0,-2
1576746843217150,9,3,3,-2,-1,0,-1,-3
1576746843217150,-2,2,-2,-3,-1,0,-1,-2
1576746843219053,-1,-1,-1,0,0,0,-1,-2
1576746843219053,2,0,1,0,-2,1,-1,-2
1576746843239994,1,-1,-1,-3,-2,0,-2,-1
1576746843239994,0,-1,-3,0,-1,-2,0,0
1576746843240993,0,1,0,-4,-1,-1,-2,-4
1576746843240993,3,-2,-2,1,1,0,1,1
1576746843254051,-2,-4,4,1,0,1,2,6
1576746843254051,-4,1,-1,-2,-2,0,-1,0
1576746843254950,0,-5,-2,0,-1,-1,-1,-2
1576746843254950,1,0,-3,0,-2,0,0,-2
1576746843277933,3,-2,1,1,-1,-2,2,0
1576746843277933,5,0,-1,-1,-1,-1,1,-2
1576746843277933,0,-1,-1,-2,0,1,0,2
1576746843277933,4,0,-1,-1,-1,-3,-1,-4
1576746843299930,4,0,-3,0,1,-2,0,-1
1576746843299930,3,-2,-2,-1,1,-2,-5,-2
1576746843300839,2,-1,-1,0,-2,-2,-1,-1
1576746843300839,-1,-1,1,-1,0,0,0,5
1576746843314790,-6,-1,-4,-2,-1,-3,-1,-1
1576746843314790,-1,0,2,0,2,0,1,-1
1576746843314790,2,0,0,1,-2,-2,0,-7
1576746843314790,-3,-2,-3,-2,-1,0,-2,0
1576746843337767,4,0,-1,-2,-1,0,0,2
1576746843337767,1,-1,-3,0,0,-1,-2,-1
1576746843338726,1,0,0,-1,-1,0,-1,0
1576746843338726,0,-1,-2,-1,-2,-2,1,-4
1576746843359768,4,1,-5,-3,0,1,-1,2
1576746843359768,-6,-1,-5,-1,0,-2,1,-2
1576746843360673,-1,1,1,1,-1,0,-1,2
1576746843360673,-3,-2,-4,-1,-2,-1,-3,-5
1576746843374674,2,-4,2,-1,0,1,2,1
1576746843374674,-3,-2,-1,0,-3,-1,0,2
1576746843374674,0,1,-4,-3,-1,0,0,2
1576746843374674,0,0,-3,-1,-2,0,0,2
1576746843397578,3,2,-2,0,1,0,0,2
1576746843397578,5,-4,2,0,0,-1,0,2
1576746843398601,1,-2,-3,0,0,-1,1,-2
1576746843398601,-2,-5,-1,0,-2,-1,-4,-2
1576746843420506,5,2,-5,-1,-2,-1,-1,-8
1576746843420506,0,2,-2,-2,1,0,0,2
1576746843420506,0,-3,-3,-2,-3,1,-1,-3
1576746843420506,0,0,-4,-1,1,-1,1,-2
1576746843434567,-1,-2,-1,0,0,0,-4,-4
1576746843434567,-1,0,-3,1,1,1,-1,2
1576746843435503,0,0,1,0,0,-1,1,1
1576746843435503,-2,-2,-2,-1,0,-1,-1,-2
1576746843457512,2,0,-5,-2,-3,-3,-3,-1
1576746843457512,0,1,-1,-4,0,-1,-1,-5
1576746843458413,4,-1,-4,1,0,0,0,-3
1576746843458413,3,-2,1,0,0,-1,-1,-1
1576746843480385,-7,-2,4,0,-1,-3,2,0
1576746843480385,2,0,-3,-1,0,-1,-2,-4
1576746843480385,-3,-1,0,0,-1,-2,0,2
1576746843480385,-4,-1,0,0,0,0,-2,-1
1576746843494405,2,-1,0,0,-2,2,0,-1
1576746843494405,-3,1,2,-1,-2,-1,1,1
1576746843495315,-3,-2,4,0,1,-1,1,5
1576746843495315,-4,-1,-2,-1,-2,-1,1,5
1576746843517347,-4,-2,0,-2,-2,0,1,-1
1576746843517347,3,0,-2,0,0,-1,-1,-4
1576746843518249,-2,1,-1,-3,-1,-2,-2,-2
1576746843518249,3,-1,-1,-2,0,-1,-1,-4
1576746843540296,-6,-2,-6,-2,0,-1,-3,2
1576746843540296,6,2,-3,0,-2,-2,0,-5
1576746843541195,7,-1,-1,1,-2,0,-1,-1
1576746843541195,-3,0,-1,0,-1,1,0,0
1576746843554150,-1,0,-5,1,-1,-2,0,-4
1576746843554150,-2,-4,0,-1,-3,0,-1,1
1576746843562224,0,-1,-1,0,2,-1,-1,-1
1576746843562224,-3,-1,2,0,-2,-3,0,-4
1576746843577189,4,-1,2,1,1,0,0,1
1576746843577189,1,0,1,0,-3,0,0,-1
1576746843578095,-5,-1,-2,-2,-2,-3,-1,1
1576746843578095,-3,-2,-2,1,1,-1,-1,2
1576746843600127,5,-1,-2,-1,1,-4,-1,-2
1576746843600127,1,2,-2,-1,-2,-1,1,2
1576746843601078,4,-2,-5,-1,0,-1,-2,-3
1576746843601078,0,-1,1,-1,-2,-1,-1,-2
1576746843614041,2,0,0,2,0,2,0,2
1576746843614041,3,-1,-3,0,-2,0,-3,2
1576746843621967,-2,-3,-1,1,0,-1,1,-2
1576746843621967,0,1,-2,-3,-1,-1,-2,0
1576746843637925,2,2,-4,-2,-2,-1,-2,-2
1576746843637925,0,-5,1,-2,0,-1,2,3
1576746843637925,-4,-2,-4,-1,0,-1,-3,-2
1576746843637925,6,2,0,-1,-2,-1,-1,-2
1576746843659969,1,-2,-4,-2,0,0,3,-1
1576746843659969,1,-1,-4,-2,-1,-3,-2,-8
1576746843660890,-1,2,-1,-1,0,-1,0,-1
1576746843660890,1,-2,-4,-1,-2,0,-2,-5
1576746843673864,-4,-3,2,-2,-2,-1,1,-1
1576746843673864,-1,1,0,-1,3,0,-1,5
1576746843681907,5,-2,0,-3,-1,-1,0,0
1576746843681907,-1,0,-1,0,0,-3,0,1
1576746843697853,2,2,-4,-1,-1,-2,-1,0
1576746843697853,-3,-1,-4,-1,-1,-1,0,-3
1576746843697853,3,2,-3,0,-1,-2,-1,-4
1576746843697853,1,0,-1,-1,1,2,0,-1
1576746843719806,3,-1,-3,1,-1,-1,-1,-4
1576746843719806,-3,0,1,0,2,2,3,3
1576746843720709,-1,1,-2,-1,-3,-2,-1,1
1576746843720709,1,2,-5,0,0,0,-1,1
1576746843733717,2,0,2,0,0,1,0,2
1576746843733717,2,-2,0,-1,-2,1,-2,1
1576746843741747,0,0,-3,-2,-1,1,1,3
1576746843741747,-2,-1,-1,-1,-1,-1,1,0
1576746843757705,5,1,0,0,-1,-2,-4,-1
1576746843757705,-1,2,-2,0,1,1,0,-1
1576746843758612,2,2,0,-1,0,0,0,0
1576746843758612,-2,-2,1,0,-1,-3,0,0
1576746843780545,-4,-1,-3,-1,0,0,1,0
1576746843780545,0,0,2,2,-1,-2,0,-2
1576746843780545,6,-3,0,1,0,1,1,-1
1576746843780545,-1,0,-1,-2,-1,0,0,2
1576746843793607,-4,0,-1,-1,-1,-1,-1,-3
1576746843793607,-7,-2,-1,-3,-1,-3,-2,-4
1576746843801586,-1,0,-3,-1,-1,0,-1,0
1576746843801586,4,-3,-3,-1,-1,0,0,1
1576746843817480,4,-1,-3,-1,-1,1,-1,3
1576746843817480,-1,0,1,-2,-1,0,-1,-4
1576746843818484,2,-1,0,-4,-1,-1,-1,0
1576746843818484,2,-3,1,-1,1,-1,0,-2
1576746843840383,0,0,-3,1,-1,-1,-1,2
1576746843840383,0,-2,-2,-1,-4,0,1,4
1576746843840383,-4,-2,-3,1,0,-3,0,2
1576746843840383,-2,3,0,0,-1,1,-2,-1
1576746843853443,3,-3,-2,0,0,0,0,1
1576746843853443,1,-3,-3,-1,0,-1,-1,-4
1576746843862330,-1,2,-1,-2,1,-1,0,2
1576746843862330,-3,2,-2,-2,-1,-1,-1,-1
1576746843877385,-7,0,2,-4,-1,-1,-1,-3
1576746843877385,0,-2,-1,-1,0,-1,0,-1
1576746843878325,-5,-1,1,1,-1,-1,-1,-4
1576746843878325,-7,-3,0,2,0,-1,0,3
1576746843900334,-3,-3,-1,1,-1,2,1,0
1576746843900334,-2,3,-1,-2,-1,0,-2,-1
1576746843901220,-1,-2,2,0,-1,-1,0,4
1576746843901220,-2,0,-2,-3,-1,1,-2,-3
1576746843922167,4,0,-3,-1,-2,-2,-2,-1
1576746843922167,-1,-2,0,-1,-2,-1,1,4
1576746843923165,-1,0,-2,1,-1,-1,-3,-5
1576746843923165,1,-1,1,-2,-1,-1,-1,0
1576746843937224,4,0,-3,-1,1,1,0,1
1576746843937224,2,-5,0,-1,2,0,-2,-2
1576746843938124,3,0,-1,0,-2,0,0,-1
1576746843938124,6,3,-3,0,0,-1,0,0
1576746843960166,5,1,-2,1,-1,-3,-1,1
1576746843960166,1,2,1,0,-2,-2,-1,2
1576746843961093,2,-4,-2,-1,-1,1,0,1
1576746843961093,7,0,-1,1,2,2,0,8
1576746843983003,2,-1,-4,-2,-2,-1,-1,-8
1576746843983003,8,-1,-1,0,-1,-2,-1,2
1576746843983003,-7,0,-1,-2,-1,0,-1,-4
1576746843983003,9,0,-1,0,0,-1,1,-3
1576746843997064,2,-1,-4,0,0,-1,-1,-2
1576746843997064,3,-1,-3,0,0,0,-2,-2
1576746843997977,3,0,-4,-2,0,0,-1,-5
1576746843997977,-2,-2,-1,1,-1,-2,-2,-5
1576746844020004,0,1,-2,-2,1,2,0,1
1576746844020004,0,-3,-1,-1,-3,0,-1,1
1576746844020914,6,-3,-3,-2,1,-2,-2,-2
1576746844020914,3,1,0,-3,-1,-1,0,0
1576746844042899,8,1,3,-1,1,0,2,3
1576746844042899,-3,3,-2,-1,-1,-1,-2,-4
1576746844042899,-3,-1,1,0,-1,-1,-1,-3
1576746844042899,2,1,-4,-1,-2,-1,0,-5
1576746844056840,-5,-1,-1,1,0,0,0,0
1576746844056840,2,0,-4,-2,-2,1,0,0
1576746844057809,-1,-2,-2,0,0,-2,0,-3
1576746844057809,1,0,-4,-1,0,-2,1,-2
1576746844079847,-3,-1,-2,-2,-2,-1,-2,-2
1576746844079847,-5,0,-1,0,1,0,1,-4
1576746844080745,3,0,-3,1,-2,1,-2,-1
1576746844080745,-2,2,0,2,-1,0,-2,1
1576746844102793,-4,-3,-2,-3,-1,-1,-1,-1
1576746844102793,8,1,3,-2,0,0,1,4
1576746844103678,0,-1,-2,-1,-2,0,-2,-1
1576746844103678,0,-5,-5,-3,-2,-1,-3,-3
1576746844116698,-6,-2,-3,-1,2,0,-2,-3
1576746844116698,-1,-1,-2,-2,0,0,-1,2
1576746844117684,-1,0,0,-1,-1,-1,-1,4
1576746844117684,-1,0,-3,0,-3,-2,0,-3
1576746844139586,0,-1,-1,1,-2,0,1,0
1576746844139586,-7,1,-1,0,-2,0,-3,-3
1576746844140582,-3,-1,-2,-1,-2,0,-1,1
1576746844140582,-5,-4,1,-1,-2,-1,1,3
1576746844162534,-1,-1,-2,-1,2,-3,-1,-6
1576746844162534,-1,-2,-3,0,-2,-2,0,-3
1576746844163527,0,4,0,0,0,0,-1,1
1576746844163527,-5,2,-2,-1,0,-1,1,-2
1576746844176583,1,2,-2,-1,-3,-1,0,1
1576746844176583,-2,-2,-3,0,-2,-2,1,2
1576746844177492,0,-1,-2,-3,0,1,-1,-1
1576746844177492,-3,-4,-2,1,-1,0,-1,-5
1576746844200428,5,-1,0,1,-2,-1,-2,-1
1576746844200428,-1,0,1,0,1,-3,-1,-1
1576746844200428,1,-4,-5,-1,-1,0,0,0
1576746844200428,-5,-3,-1,-1,1,-1,-1,3
1576746844222414,-6,0,-2,0,-2,0,-1,0
1576746844222414,10,-2,-3,2,0,0,-2,0
1576746844223413,-2,-2,0,0,-1,0,-2,-5
1576746844223413,7,2,0,-1,0,1,0,4
1576746844237323,-3,-3,-1,-2,-4,-1,0,-3
1576746844237323,0,0,0,-2,1,-1,0,-1
1576746844237323,-6,-1,2,1,0,-1,0,-2
1576746844237323,-3,-2,-3,0,-2,-2,-2,-2
1576746844260370,-1,1,3,-1,0,-1,0,3
1576746844260370,-10,-3,0,-2,-1,-1,1,-3
1576746844260370,-5,-1,1,0,1,-1,2,6
1576746844260370,-3,0,-2,-3,-1,1,-2,-2
1576746844282304,-2,-1,-3,-2,-1,0,-1,1
1576746844282304,-5,-1,1,-3,0,-2,-2,-1
1576746844283204,-5,-2,3,0,-1,0,1,1
1576746844283204,2,0,0,1,-1,-1,-1,-1
1576746844297173,-7,-4,1,-2,-2,-3,-1,0
1576746844297173,0,-2,-3,-2,-1,-1,-2,-1
1576746844297173,-10,-4,-1,-4,0,-3,-1,-3
1576746844297173,2,0,0,0,0,1,-1,-3
1576746844320200,0,-1,-3,-1,-1,2,-1,1
1576746844320200,-3,1,0,-2,0,1,-1,1
1576746844321100,-3,-4,1,-1,-2,-1,0,-5
1576746844321100,1,-2,2,1,2,0,-1,-2
1576746844342141,1,-2,-1,-1,-1,-2,-3,0
1576746844342141,-1,-3,1,0,0,0,0,-3
1576746844343040,3,2,-3,-1,-2,-1,-2,-3
1576746844343040,-1,-2,0,-1,0,0,1,5
1576746844357112,1,-1,-4,-1,0,-2,-2,-3
1576746844357112,-2,0,0,1,-2,-1,0,3
1576746844358010,2,-1,-1,-2,-2,-3,0,3
1576746844358010,2,-1,-1,-3,-2,-2,-2,-3
1576746844380044,-1,-2,-1,0,0,-1,0,-1
1576746844380044,2,-1,2,1,-1,1,-1,-2
1576746844380949,8,-2,-2,0,0,-2,-1,-2
1576746844380949,-1,1,2,0,-1,-2,-2,3
1576746844402918,-2,1,-2,-2,-2,-3,-2,-3
1576746844402918,-4,-5,-4,-1,1,-2,-1,-1
1576746844402918,2,0,-2,-1,-3,0,0,1
1576746844402918,1,1,0,0,-2,1,1,3
1576746844415944,0,0,1,1,-2,-2,0,-1
1576746844415944,0,2,-2,-1,1,0,1,1
1576746844424821,-1,1,-2,0,0,-1,0,0
1576746844424821,-1,-2,-5,-5,0,-1,0,-6
1576746844439784,7,2,-4,0,-1,1,3,5
1576746844439784,4,0,-3,0,-3,-2,-2,-2
1576746844440783,3,3,0,0,0,1,-2,-1
1576746844440783,-1,1,-3,-1,0,-2,0,-2
1576746844462831,2,-2,1,0,-2,1,1,-1
1576746844462831,0,-2,-3,-1,-1,1,3,-1
1576746844463717,-1,-2,0,1,0,-2,-4,-1
1576746844463717,-2,-1,0,-3,0,0,0,-2
1576746844476781,-1,-1,-3,1,0,-1,-2,-2
1576746844476781,6,2,-3,-4,-2,-1,0,-1
1576746844477688,-1,-1,-1,2,0,-1,0,-1
1576746844477688,0,0,-2,-1,-2,-1,-1,-1
1576746844499722,-6,-2,-4,-1,-2,-1,-2,-7
1576746844499722,-2,-4,-3,-1,-2,-3,-2,-3
1576746844501623,1,1,-1,-1,2,-1,-1,-3
1576746844501623,-1,0,-4,0,-1,-2,0,2
1576746844522562,2,0,-3,-1,0,1,0,-1
1576746844522562,2,2,0,0,-2,0,-2,-2
1576746844524561,1,0,-2,0,-2,-1,0,2
1576746844524561,-2,-1,-2,1,0,-1,-2,0
1576746844536567,-1,1,-3,-2,0,0,-1,0
1576746844536567,2,3,0,0,2,-1,-2,2
1576746844545508,2,-1,1,0,1,0,2,1
1576746844545508,-2,-3,-3,-1,-2,-3,-2,-4
1576746844560458,2,-1,-2,-1,-1,-2,0,2
1576746844560458,2,0,-1,1,-2,1,0,-2
1576746844561462,1,1,-1,-2,-2,1,-2,-3
1576746844561462,2,0,-4,0,-1,2,1,-3
1576746844582501,-1,3,2,-1,0,-2,-2,-2
1576746844582501,1,-1,-4,0,-2,-2,-2,3
1576746844584445,2,-1,-3,-2,-4,-2,-2,-1
1576746844584445,-2,-3,-4,-2,-1,1,-1,-3
1576746844596462,3,1,-2,-2,-1,0,-2,1
1576746844596462,0,-1,-1,0,-2,-2,0,1
1576746844605342,-4,-3,-1,0,-1,0,-2,-5
1576746844605342,0,1,1,0,0,-2,-1,0
1576746844620371,3,1,1,0,-1,0,0,-1
1576746844620371,-2,-1,1,-2,1,1,0,1
1576746844621296,-1,-1,-3,-3,-1,-1,-1,0
1576746844621296,0,-1,1,0,-2,0,-2,3
1576746844642339,-1,-2,-3,2,2,2,0,-4
1576746844642339,-5,-3,-3,0,-1,1,-1,-2
1576746844644241,-3,0,-1,0,1,0,-2,-1
1576746844644241,-5,-4,0,1,-2,0,-1,4
1576746844656279,-1,-1,-2,-2,-2,1,-1,2
1576746844656279,-5,-1,-2,-1,0,-1,-2,-5
1576746844665224,0,-4,-2,0,0,-2,-1,0
1576746844665224,2,-2,1,3,0,-1,-3,-3
1576746844680238,-4,0,-1,-2,-2,0,-1,2
1576746844680238,2,-3,0,1,0,-1,2,-2
1576746844681172,4,2,-3,-2,0,-1,-1,-1
1576746844681172,2,-1,-6,-1,-1,-2,0,-2
1576746844702181,-2,0,0,1,1,-1,-1,0
1576746844702181,3,1,-2,0,0,0,-3,-2
1576746844704081,-1,0,4,0,1,0,2,8
1576746844704081,0,0,-1,-1,1,-1,1,2
1576746844716141,-3,0,-3,0,-2,2,-1,-5
1576746844716141,0,-1,-2,0,-3,-2,0,5
1576746844725021,4,2,-2,0,-1,1,0,1
1576746844725021,-2,-2,-2,-1,-2,-1,-2,0
1576746844740077,-8,-3,-1,-2,-3,-4,-1,-1
1576746844740077,1,1,0,-1,-2,0,-1,-1
1576746844741971,1,0,-3,-2,-2,0,-2,-5
1576746844741971,-1,0,4,-1,-1,0,1,-1
1576746844762955,2,-4,0,1,-1,-1,-2,-2
1576746844762955,-6,-2,-3,1,0,-1,-1,-1
1576746844763925,3,-2,-2,-1,-1,-1,-2,-1
1576746844763925,5,0,-2,0,-1,0,0,-2
1576746844775981,5,-2,-2,1,-2,-1,-2,0
1576746844775981,3,0,0,-2,1,-1,0,-1
1576746844784858,2,1,-4,1,-1,-2,0,0
1576746844784858,-2,-2,-2,1,-1,0,-1,-2
1576746844799918,-2,3,-1,-4,-2,-1,0,-1
1576746844799918,4,0,-2,-3,-1,1,-1,-2
1576746844801816,2,1,-3,-1,-1,-1,-1,-3
1576746844801816,4,3,-2,0,0,-1,1,-1
1576746844822818,8,-1,-2,-1,0,0,1,-1
1576746844822818,-2,-2,-1,0,-1,0,-2,-4
1576746844823762,-3,-2,-1,-3,-1,-1,0,-1
1576746844823762,6,3,-1,-3,0,0,0,-1
1576746844835821,1,-5,-3,1,1,-1,-2,-4
1576746844835821,1,-1,-1,-2,-2,0,0,1
1576746844844741,2,-2,-2,-1,-1,-2,0,-3
1576746844844741,2,0,-4,-2,-2,0,-2,-2
1576746844859757,-1,-3,0,1,0,-1,1,1
1576746844859757,6,-2,-3,-2,-1,0,-1,2
1576746844861662,1,-3,-5,0,-1,-1,-2,-2
1576746844861662,5,0,-2,-1,-2,-2,0,2
1576746844882697,-5,-2,3,0,2,0,2,2
1576746844882697,5,3,0,-1,-2,-1,0,-3
1576746844884600,6,-3,-5,0,-1,0,-1,-3
1576746844884600,1,2,-5,1,1,0,-1,-1
1576746844904540,-2,-2,-2,0,-2,-2,-1,1
1576746844904540,0,0,-1,0,-1,0,0,0
1576746844906540,1,3,-3,0,0,-1,-2,-1
1576746844906540,0,-2,-6,-2,-1,0,-2,-5
1576746844919592,-1,-1,-3,-1,-1,0,-2,2
1576746844919592,-1,0,-3,-1,-2,0,2,-5
1576746844926525,5,2,-3,2,0,-1,0,0
1576746844926525,3,3,-5,-2,-1,-2,-2,-1
1576746844942536,-2,0,1,-2,0,-1,-1,0
1576746844942536,-3,-1,-6,0,1,1,0,0
1576746844944441,2,-1,0,-2,0,0,-1,1
1576746844944441,-3,-2,-2,1,1,-1,-1,2
1576746844965448,-2,-2,-4,-2,-1,-1,-1,-1
1576746844965448,6,0,-2,-1,-1,-2,-1,1
1576746844966376,-3,-1,2,0,-2,0,0,2
1576746844966376,1,-1,0,-2,-1,-2,0,-2
1576746844978436,-1,-2,-1,0,0,-2,0,-1
1576746844978436,-6,-2,-2,1,0,-1,-2,1
1576746844987372,-1,-2,3,0,0,-2,2,-3
1576746844987372,-5,0,-1,0,-1,1,-1,-3
1576746845002377,-3,-1,3,-1,-2,2,1,2
1576746845002377,-2,-1,0,-3,-1,0,-2,-6
1576746845004272,-11,-3,-1,1,-1,1,-2,-3
1576746845004272,-5,0,2,-1,0,-2,0,2
1576746845025326,-10,-2,-1,-1,0,-1,-3,-7
1576746845025326,-4,-2,1,0,0,-1,2,4
1576746845026221,-4,-1,2,-2,-3,1,-1,2
1576746845026221,0,-3,-1,1,-1,-1,1,2
1576746845038180,-3,-1,-2,-1,-1,-1,1,2
1576746845038180,-4,-1,-2,-1,-1,-1,-3,-1
1576746845047252,-1,-1,2,1,1,0,-1,-2
1576746845047252,-4,-1,-3,0,-2,-1,-2,0
1576746845062158,-2,2,1,0,0,-1,-1,-1
1576746845062158,-2,-1,1,0,-1,1,-1,-5
1576746845064119,-1,4,-1,-1,0,-1,1,2
1576746845064119,-1,-3,2,-3,0,2,0,1
1576746845085160,0,-3,-1,-1,0,-2,-1,-4
1576746845085160,-2,1,-1,-2,-1,-3,-1,0
1576746845087050,0,-2,1,0,-2,-1,0,1
1576746845087050,3,1,1,0,-1,-1,0,-2
1576746845099057,-7,-3,-2,-2,0,-2,-3,-4
1576746845099057,5,0,0,0,0,-2,-1,-1
1576746845108002,4,0,-1,-1,0,-3,-1,-2
1576746845108002,-6,-2,-2,-2,-2,0,-1,-1
1576746845122952,0,0,2,2,-1,-2,-1,-6
1576746845122952,-2,-3,2,0,0,-1,-1,1
1576746845123956,-3,-2,1,-2,-1,-1,0,0
1576746845123956,3,-1,-1,-3,0,-1,-2,0
1576746845144906,1,0,3,-3,0,0,-1,1
1576746845144906,-6,-3,-3,1,-2,-1,0,1
1576746845146944,0,2,1,0,-1,-2,1,0
1576746845146944,-3,-1,-5,-1,0,0,0,-2
1576746845159855,2,-1,1,-3,-2,1,-2,0
1576746845159855,-1,0,-1,-3,0,-1,-3,-2
1576746845165938,-1,-3,0,0,-2,1,-2,0
1576746845165938,1,2,-1,0,0,-1,-2,-1
1576746845182858,0,1,-3,-1,-1,0,0,2
1576746845182858,-2,1,2,2,0,-1,1,-1
1576746845183792,0,-3,-3,-3,-3,-2,-1,0
1576746845183792,1,0,-3,1,1,-1,-1,-8
1576746845204735,2,1,2,2,-1,0,1,1
1576746845204735,5,-1,-4,0,-1,0,0,3
1576746845206735,0,3,-1,-2,0,-1,0,0
1576746845206735,-2,-5,-2,-1,-3,-3,-2,-2
1576746845219734,-4,2,0,0,-1,0,-2,0
1576746845219734,4,-2,0,1,-1,0,0,-2
1576746845226676,-5,-1,-1,2,-2,0,-3,-3
1576746845226676,0,2,-1,-3,-1,-2,1,-2
1576746845242733,4,-1,-2,-2,0,-1,-1,-5
1576746845242733,-3,-3,-4,-1,-2,0,0,0
1576746845248718,2,-2,-5,0,1,0,1,-2
1576746845248718,1,-2,1,0,0,-1,-1,2
1576746845264674,-1,-1,-2,-4,-3,-2,-1,1
1576746845264674,-3,2,-2,0,0,-1,-1,-4
1576746845266578,-1,-2,1,-1,1,-2,-1,2
1576746845266578,2,0,-1,0,1,0,0,4
1576746845278637,-4,-2,-1,-3,0,-2,-1,1
1576746845278637,0,2,-1,1,-1,-3,-2,-5
1576746845287515,-1,-2,-4,-3,-2,-1,-2,-3
1576746845287515,6,-2,-2,-1,-1,0,-1,1
1576746845302568,2,-1,0,-1,-2,0,2,1
1576746845302568,1,-4,-2,-1,0,0,0,2
1576746845304469,0,-1,-1,-1,-3,-1,-1,-1
1576746845304469,-6,0,1,0,-1,-2,-1,1
1576746845325457,2,-2,-4,-3,0,-1,0,-4
1576746845325457,1,0,-1,-1,0,0,-2,-1
1576746845326422,0,-1,-3,-2,0,0,-4,-3
1576746845326422,0,-1,-3,0,0,0,-1,-1
1576746845338378,0,-2,-1,1,-1,-1,0,1
1576746845338378,-4,-2,0,-2,-2,-1,-1,-2
1576746845347355,2,-1,-1,0,-2,0,0,0
1576746845347355,1,0,0,-1,0,0,-1,-1
1576746845362407,3,0,-5,3,-2,-1,1,1
1576746845362407,6,0,1,-3,-1,-2,0,-1
1576746845364317,3,-2,-1,0,0,1,0,2
1576746845364317,-5,-3,-1,-2,-3,1,0,-3
1576746845385362,-1,-2,1,-1,-3,1,-1,1
1576746845385362,-4,0,0,-1,-1,0,2,2
1576746845386250,-6,-1,0,-1,-1,-1,-1,-2
1576746845386250,-5,0,2,-2,-2,-1,-1,0
1576746845399216,-2,0,-1,0,-1,0,-4,0
1576746845399216,-5,-2,2,0,0,-1,1,2
1576746845407242,0,-6,-2,-2,-3,-2,-1,-1
1576746845407242,-5,2,0,-1,0,-1,0,1
1576746845422159,0,-1,-1,-1,2,0,-1,0
1576746845422159,1,-1,-3,-2,-2,-2,-3,1
1576746845424201,2,0,1,0,-1,1,2,2
1576746845424201,4,1,0,-1,-2,-1,0,0
1576746845445191,-4,-2,2,1,-2,0,0,1
1576746845445191,1,-1,-5,0,-1,-1,0,-3
1576746845447087,0,1,-2,0,-1,-4,-2,-1
1576746845447087,3,-5,0,0,-2,-1,-2,-4
1576746845459086,2,3,-4,-1,1,-1,0,-2
1576746845459086,-5,0,0,0,0,-1,-1,-1
1576746845468051,-4,-2,-2,0,1,0,-1,-3
1576746845468051,3,2,-2,-2,0,-1,0,-2
1576746845482991,3,-2,-1,-3,-1,-2,0,-4
1576746845482991,-2,0,-1,0,-2,0,-1,-1
1576746845483992,0,0,-1,1,-2,-2,0,0
1576746845483992,-3,-3,-4,-1,-1,-1,-1,-1
1576746845504932,-3,0,-3,-2,-2,-2,0,-1
1576746845504932,2,3,-2,-3,2,1,-1,-2
1576746845506935,1,2,-1,-1,1,-2,0,-3
1576746845506935,3,1,1,1,0,1,-1,-2
1576746845519007,-2,1,-2,0,-3,0,1,-2
1576746845519007,1,-1,1,0,-1,1,0,1
1576746845527880,-1,-1,-5,2,-1,-1,0,2
1576746845527880,2,-1,-2,-1,0,-2,-1,3
1576746845542900,10,2,-3,0,0,-2,1,2
1576746845542900,0,-1,-1,0,-2,-1,-1,-1
1576746845543840,7,2,1,-2,1,1,0,-1
1576746845543840,1,-2,-1,0,-1,-1,0,0
1576746845564871,1,0,-1,3,0,0,1,1
1576746845564871,1,0,-2,-4,-3,-2,-2,-1
1576746845566823,3,-1,-3,0,-2,0,-2,-2
1576746845566823,-4,-1,0,0,-2,0,0,2
1576746845578834,3,-3,3,-1,0,-1,-2,-3
1576746845578834,1,-3,-1,0,-1,-1,-1,-3
1576746845587712,3,-2,-1,-2,2,2,0,1
1576746845587712,-1,1,-3,-1,0,1,-1,-4
1576746845602770,3,0,-4,1,2,0,-2,-3
1576746845602770,3,-1,0,0,0,0,0,1
1576746845603711,1,2,-5,-2,-4,-2,-2,1
1576746845603711,3,0,-3,1,-2,0,-1,-1
1576746845624715,-2,-2,-3,-2,-3,0,-1,-1
1576746845624715,-3,-3,-2,-1,-1,0,-1,-1
1576746845626616,1,0,2,0,1,-2,1,3
1576746845626616,-1,-2,-1,1,0,-2,-2,-1
1576746845638574,1,2,0,-2,2,-1,-1,2
1576746845638574,0,-2,-1,0,-1,-3,0,-2
1576746845647556,-2,-1,-1,-1,-2,0,-1,-6
1576746845647556,2,1,-2,1,-3,-2,-1,-4
1576746845662609,-1,1,-2,-2,-1,-2,0,2
1576746845662609,3,2,0,0,0,2,-1,0
1576746845664504,0,-2,-5,-1,0,-2,0,-3
1576746845664504,-2,-1,2,-1,-1,0,-1,-1
1576746845685474,-1,0,-1,0,-2,-1,-1,-3
1576746845685474,2,3,0,-2,0,1,-2,0
1576746845686454,-2,-1,-1,0,-1,-1,-2,-6
1576746845686454,0,-1,-1,-2,0,-1,2,2
1576746845698514,-9,-6,3,0,-1,0,-3,-6
1576746845698514,-2,0,2,-1,-2,-3,-2,1
1576746845707390,0,0,-2,-2,-1,-1,-2,1
1576746845707390,-3,-3,-4,-4,1,-2,-2,0
1576746845722407,-6,-1,2,1,-1,-1,-1,-6
1576746845722407,-2,-1,-7,-2,1,-2,-1,-6
1576746845724353,-2,-2,2,-1,0,-2,0,-1
1576746845724353,6,3,-1,0,-1,-1,0,1
1576746845745399,-3,-1,-3,1,-2,-1,-2,4
1576746845745399,-2,0,-2,0,1,-2,-1,0
1576746845746298,0,-4,1,-1,0,1,-1,-1
1576746845746298,-2,-1,3,0,0,1,0,4
1576746845758352,-10,-4,0,-1,-1,-1,1,-2
1576746845758352,0,0,-1,1,1,-1,0,-5
1576746845767276,1,2,1,-1,-2,-1,0,3
1576746845767276,-9,1,-2,-3,-2,-2,0,-1
1576746845782292,-6,-2,6,0,2,-1,-3,3
1576746845782292,-4,0,-3,-1,0,0,1,3
1576746845784193,0,0,-5,-2,-1,-3,-2,-3
1576746845784193,-4,-1,1,0,-3,0,0,-2
1576746845805178,-3,-2,2,2,-1,0,-1,-3
1576746845805178,-2,-4,1,-1,-2,-1,-2,1
1576746845807129,2,0,-4,0,-1,-1,-2,0
1576746845807129,-5,0,-1,-3,-1,-2,-1,-2
1576746845827174,-6,-2,-3,-4,-2,-1,-1,-2
1576746845827174,4,-1,-1,0,-2,0,0,0
1576746845829066,-5,0,-1,-2,-2,0,-3,-1
1576746845829066,6,1,0,1,2,-2,-2,-1
1576746845843029,4,0,-5,-3,-3,-2,-1,-3
1576746845843029,4,1,1,-1,-2,0,0,0
1576746845844035,4,3,0,1,-1,1,-1,-1
1576746845844035,3,0,-4,1,-2,-2,1,-1
1576746845865068,4,0,2,-1,0,-2,0,3
1576746845865068,-2,-3,-1,0,0,-2,1,-1
1576746845867007,5,0,-4,-3,0,0,0,0
1576746845867007,0,0,0,0,0,-1,-2,1
1576746845887908,-6,-1,0,-1,-1,-1,-1,-2
1576746845887908,1,-1,-2,-3,-1,-3,-3,-4
1576746845888913,-4,-4,-2,1,1,-1,1,-1
1576746845888913,1,-1,-6,-1,-3,1,0,-3
1576746845902907,-4,-1,0,1,-1,-1,-1,2
1576746845902907,0,0,-5,0,-4,-1,-1,-3
1576746845903867,0,-1,-3,0,0,0,-1,-3
1576746845903867,-2,-3,-2,-1,-1,-1,0,0
1576746845924912,-2,-2,1,-1,-1,-1,0,1
1576746845924912,-3,2,0,0,0,1,0,1
1576746845926803,3,-1,0,2,-2,-1,2,-1
1576746845926803,-3,-4,1,-1,-1,-1,-1,-3
1576746845947858,1,1,-3,-1,-2,-2,-3,-2
1576746845947858,2,0,-3,0,1,-1,-1,0
1576746845948747,2,2,-2,0,-1,-2,-1,1
1576746845948747,-1,0,-1,-1,1,0,1,1
1576746845961810,8,-1,-5,-1,1,-1,-1,1
1576746845961810,-1,1,-2,0,-2,-1,-1,1
1576746845968791,-5,-1,-1,-1,-2,-1,-1,-4
1576746845968791,0,0,-4,0,-1,1,-1,-1
1576746845984748,-5,-2,-3,-5,-2,-3,-1,0
1576746845984748,1,-3,0,2,-1,2,-1,1
1576746845986652,4,0,1,-1,-2,-1,-1,5
1576746845986652,3,-2,-1,-1,-1,-2,1,-2
1576746846007688,-11,-6,1,0,-1,0,0,0
1576746846007688,5,0,-2,-1,1,0,2,-1
1576746846009591,-1,-1,-1,0,-1,-2,-1,-2
1576746846009591,-3,0,-1,-2,1,-1,-2,0
1576746846021550,8,2,-1,-2,-2,0,0,-2
1576746846021550,-1,-1,-2,-1,-3,-2,-3,-5
1576746846028627,2,-1,-1,0,-2,0,2,1
1576746846028627,-1,-2,-1,-1,0,-1,-1,0
1576746846045487,-2,1,2,-2,-2,-1,-1,0
1576746846045487,-3,0,-1,-1,-3,1,1,-1
1576746846046492,-4,3,0,-1,-1,-1,-1,1
1576746846046492,-1,-1,-3,0,-2,-1,-3,-5
1576746846067528,-5,-1,2,0,-2,-1,0,2
1576746846067528,1,0,-1,-1,1,-1,0,-1
1576746846069478,-6,-2,0,-3,-3,-1,-1,-2
1576746846069478,-1,-1,-2,-3,-2,-1,-1,-1
1576746846082388,-1,1,-2,1,-1,-1,-2,-4
1576746846082388,-3,0,-1,-3,-2,-1,-1,2
1576746846088423,-2,2,-2,1,1,-1,1,3
1576746846088423,-6,-2,-1,-3,-1,-2,-1,-1
1576746846105363,-1,-1,1,2,0,0,1,-2
1576746846105363,-8,-3,-1,-1,1,-1,1,0
1576746846106325,1,-2,-2,0,1,1,-3,-3
1576746846106325,0,0,0,-2,0,-3,-2,-2
1576746846127369,-2,0,-1,0,2,0,-3,-2
1576746846127369,0,1,2,-1,-1,-2,1,1
1576746846129266,-1,-4,-2,-1,-1,0,-1,-4
1576746846129266,-7,-2,3,0,-1,-1,-1,3
1576746846142274,-5,-3,-2,-1,0,0,-1,-2
1576746846142274,-5,-2,4,0,0,0,-1,2
1576746846149211,-2,0,0,-1,0,0,1,-1
1576746846149211,-1,-2,4,0,-1,0,1,0
1576746846165263,-6,1,3,-1,-2,-2,-2,-1
1576746846165263,0,-2,-2,-2,0,-2,0,1
1576746846166207,1,-1,1,1,-2,-1,-2,-2
1576746846166207,-2,1,0,0,-1,0,-3,-1
1576746846187111,-3,-3,-3,-2,-2,1,2,1
1576746846187111,-4,-1,-1,-2,-1,1,-3,0
1576746846189108,-2,-2,-3,-2,0,0,-2,1
1576746846189108,2,-2,-2,1,0,-3,-3,-7
1576746846202171,3,-3,-2,-2,1,0,0,-1
1576746846202171,1,-2,-1,1,-2,-2,-1,-1
1576746846209096,-2,-2,0,-2,1,-2,1,0
1576746846209096,3,0,1,-2,-2,-3,-1,-2
1576746846225059,-2,-2,-2,0,-1,0,-1,2
1576746846225059,2,-1,-4,-1,0,-2,-2,-1
1576746846227009,0,-1,-2,-1,1,1,0,0
1576746846227009,-5,-3,-1,-2,-1,-1,1,0
1576746846247974,-2,-1,-2,-1,-3,-1,1,1
1576746846247974,-1,1,-2,-3,-1,-1,1,-2
1576746846248950,2,-2,-1,1,1,1,-1,-1
1576746846248950,0,-2,1,-1,-1,1,-1,0
1576746846262010,0,0,-3,-1,0,0,-2,-3
1576746846262010,-3,0,0,1,-1,-1,-2,-1
1576746846269007,-5,-1,0,-3,-1,-1,-2,-4
1576746846269007,-1,-3,-2,-1,0,1,1,0
1576746846284948,-1,-1,1,-1,0,0,1,2
1576746846284948,1,-4,1,-1,-1,0,-2,-3
1576746846286845,0,3,0,-2,-2,-3,0,-2
1576746846286845,-1,-1,-4,-1,-1,0,-2,-1
1576746846307887,-1,1,1,-1,0,-3,0,-5
1576746846307887,-2,0,-2,-2,-1,0,-2,-6
1576746846308792,6,-1,1,-1,-3,-1,-2,2
1576746846308792,-2,0,0,-1,0,1,-3,-1
1576746846320752,-2,-3,3,0,-1,-1,-3,-1
1576746846320752,1,-1,-1,0,-3,-1,2,1
1576746846329766,2,-2,-4,0,-1,-1,0,-3
1576746846329766,-4,1,-1,0,0,-2,1,1
1576746846344787,-1,-3,-2,0,-1,-1,-2,-2
1576746846344787,-1,0,-2,-2,-1,0,-2,1
1576746846346686,-2,2,-4,-2,-3,-1,-1,-1
1576746846346686,-1,-2,-2,-1,-1,-2,0,2
1576746846367729,2,0,0,1,0,0,1,1
1576746846367729,1,1,-2,-1,0,-2,-1,0
1576746846369619,-2,-2,-1,1,-1,1,0,2
1576746846369619,0,-2,-1,-2,-1,1,0,-2
1576746846381633,-2,0,-1,0,-2,0,-3,1
1576746846381633,0,-3,-2,0,-2,-1,0,-4
1576746846390575,-1,0,-1,0,-1,0,-2,-5
1576746846390575,-2,1,-1,-1,-2,-2,0,0
1576746846404528,-7,-2,0,-1,-2,1,-1,-3
1576746846404528,0,1,-2,-1,-1,-1,0,1
1576746846406526,-3,-1,-4,-3,0,-1,-1,2
1576746846406526,6,-4,-1,1,-2,0,-1,2
1576746846427519,1,0,0,-3,-1,-2,0,-3
1576746846427519,0,1,-3,1,0,0,-2,0
1576746846429502,1,0,0,-1,1,-1,-1,2
1576746846429502,-5,0,0,1,-2,-2,-1,-3
1576746846441472,-1,0,0,-1,1,-2,0,1
1576746846441472,2,-2,2,-2,-2,-2,-2,-3
1576746846450446,-3,-1,-1,0,-1,-1,-2,-3
1576746846450446,-2,4,-1,-1,1,-2,-1,-4
1576746846465416,5,1,-2,-1,0,-2,-1,1
1576746846465416,-3,2,0,0,-3,-1,-1,-3
1576746846466361,-2,-1,2,-1,0,0,1,-2
1576746846466361,7,-3,0,1,-1,0,-1,0
1576746846487306,-10,-3,-3,0,-2,0,0,-3
1576746846487306,0,2,-4,-1,1,0,1,1
1576746846489308,4,-2,-2,-1,1,-1,0,0
1576746846489308,-10,-6,3,-3,-2,-2,-1,0
1576746846501368,0,-1,2,1,-2,-2,-2,1
1576746846501368,-4,-3,0,-1,-2,1,1,-2
1576746846510245,-5,1,3,1,-1,-3,-2,3
1576746846510245,3,1,0,0,-2,2,0,-4
1576746846525305,-5,2,-2,-1,1,-2,0,-2
1576746846525305,-6,-3,0,0,-1,-1,-2,-2
1576746846526211,1,0,-5,0,-2,0,0,1
1576746846526211,-4,-2,-1,0,0,0,-2,-1
1576746846547245,-7,0,2,-1,-2,0,-1,-9
1576746846547245,0,0,-2,-2,-2,-2,0,-1
1576746846549150,1,1,-2,-2,-2,-2,1,1
1576746846549150,-6,-4,0,-1,-1,0,0,-4
1576746846561164,4,0,0,2,-2,2,1,5
1576746846561164,-3,0,-2,-1,1,-4,-2,-1
1576746846570088,-1,-3,2,0,-2,-1,0,1
1576746846570088,1,2,-2,-2,-1,-2,2,1
1576746846585146,1,1,-1,-1,-1,-1,0,1
1576746846585146,0,-1,3,0,-1,-1,0,2
1576746846587038,3,-1,-2,2,-1,-1,-1,-4
1576746846587038,-4,1,1,-1,0,-2,-1,4
1576746846607983,0,0,-3,-2,-1,-2,0,0
1576746846607983,3,-2,2,1,1,0,-2,1
1576746846608988,-7,-2,-1,-1,-2,-1,0,1
1576746846608988,2,-2,3,1,-1,-1,-1,1
1576746846620948,-1,-4,4,-2,-2,1,1,-1
1576746846620948,-4,-4,1,-1,1,0,-2,-1
1576746846629924,5,2,-4,-1,0,1,-2,-1
1576746846629924,0,0,-3,0,-3,-1,-1,1
1576746846644886,2,1,-1,-2,0,-2,-1,2
1576746846644886,0,-1,1,0,-1,-1,1,4
1576746846646886,-1,-1,-1,-1,-1,0,0,-1
1576746846646886,2,-1,0,0,-1,2,-1,-3
1576746846667921,3,-2,-1,-2,0,0,-1,-3
1576746846667921,-3,-1,-3,1,2,0,-1,-1
1576746846668821,-1,-4,1,0,0,-1,-1,-4
1576746846668821,3,-3,0,0,0,-1,3,5
1576746846680890,-7,-4,-1,-2,-2,0,-3,-3
1576746846680890,7,4,-3,-3,-3,-1,1,-2
1576746846689803,1,-2,-3,0,-1,0,0,1
1576746846689803,3,0,1,0,0,-2,-1,-3
1576746846704723,4,1,-1,1,0,1,-2,-2
1576746846704723,0,-1,-1,0,1,1,1,1
1576746846706721,2,1,-1,0,-2,0,-1,0
1576746846706721,-2,-1,-1,-2,-1,-1,0,3
1576746846727738,1,1,1,-1,0,-1,0,3
1576746846727738,-6,0,-3,-2,-2,-3,-1,-9
1576746846728691,5,-2,-3,-3,-3,-2,-1,1
1576746846728691,-4,0,-2,-1,-1,-2,-3,2
1576746846741659,3,-2,-6,1,1,-2,-3,-1
1576746846741659,-1,-1,0,1,-1,-2,-1,0
1576746846750609,-1,-2,0,-1,-1,-3,-3,0
1576746846750609,2,-2,-1,-3,0,-1,0,-4
1576746846765561,-7,-1,-1,-1,-1,-3,-2,-2
1576746846765561,1,-1,0,-1,-2,1,1,1
1576746846766566,-2,3,-4,0,-1,1,-2,-4
1576746846766566,0,-2,-4,0,-1,0,-2,-2
1576746846787503,0,-1,-2,-1,-1,0,0,0
1576746846787503,4,-2,-4,-3,-1,-1,-3,1
1576746846789505,6,-1,-2,-2,0,-1,0,0
1576746846789505,-1,3,-2,0,-2,0,0,0
1576746846810452,-5,-5,-1,-1,0,-2,-1,-2
1576746846810452,1,2,-3,0,-1,-1,0,-1
1576746846811449,-3,-2,-1,0,-1,-1,0,-1
1576746846811449,2,1,-1,-1,0,-1,0,-1
1576746846825449,-1,-2,-1,-1,-1,-1,-1,2
1576746846825449,-2,-5,-2,0,-1,-1,-2,-3
1576746846826407,2,0,-2,-1,-1,-3,-2,0
1576746846826407,0,1,-5,0,-1,-1,-2,-2
1576746846847437,-5,-3,0,-3,-1,0,1,-2
1576746846847437,0,1,-3,-3,-1,0,-1,-1
1576746846849380,0,0,-3,0,0,-2,0,-1
1576746846849380,-4,1,-1,-1,-3,-1,-1,-4
1576746846870288,-3,1,1,0,-2,0,-2,1
1576746846870288,2,-1,-2,-1,-3,0,0,-2
1576746846871279,-8,-2,2,-1,2,0,-1,0
1576746846871279,-4,-2,2,-5,0,-1,1,0
1576746846885353,-5,1,-3,-1,-2,-1,0,1
1576746846885353,-2,-4,1,0,-1,-1,-1,1
1576746846886237,-2,1,-1,-2,-1,1,0,-3
1576746846886237,-4,-4,1,-1,0,-1,-1,-2
1576746846907190,-2,-1,2,-1,0,-2,0,1
1576746846907190,-10,-3,-2,-1,-1,-2,-3,-4
1576746846909185,2,2,-2,-1,1,0,-1,1
1576746846909185,-3,-5,-3,-1,-1,-1,0,1
1576746846930157,-5,-3,0,0,-1,-3,0,-3
1576746846930157,2,0,-4,-1,-1,0,1,3
1576746846931127,-1,-1,0,-2,-2,-1,-3,-4
1576746846931127,-1,3,-2,-1,0,-2,-2,0
1576746846944130,10,-1,-3,-1,-1,-2,-2,-2
1576746846944130,1,0,0,1,0,1,0,0
1576746846951108,0,-3,-1,-2,-2,-2,-2,-1
1576746846951108,3,-1,1,-1,0,0,0,1
1576746846967023,-10,-2,-2,-1,-1,0,-2,-3
1576746846967023,-1,0,0,0,1,-3,0,1
1576746846969018,-4,0,0,0,1,-1,2,-1
1576746846969018,-1,-2,3,0,-1,0,0,-1
1576746846989961,-6,1,0,1,1,0,1,-3
1576746846989961,-2,-2,0,-1,0,0,0,0
1576746846991957,1,1,-2,0,-2,-1,-2,-3
1576746846991957,0,-1,-1,1,-2,1,-3,-4
1576746847003925,8,1,-2,-2,-2,-1,-2,-2
1576746847003925,4,3,-2,-2,0,0,-3,-2
1576746847010906,-2,1,0,-1,0,1,-2,1
1576746847010906,-5,0,-1,-4,-2,-1,-1,-2
1576746847027861,-3,-3,2,-3,-2,1,-2,-1
1576746847027861,1,-1,-2,1,0,0,0,-2
1576746847028858,0,0,0,-2,-1,-1,0,0
1576746847028858,-1,1,1,0,-1,-1,-1,0
1576746847049802,-4,-1,2,0,-1,1,0,1
1576746847049802,-6,-4,-1,1,-2,-3,-2,2
1576746847051796,2,-1,-2,-1,-1,-1,-2,-2
1576746847051796,3,0,-1,-1,-1,-1,1,-2
1576746847064796,2,1,0,1,0,-1,1,0
1576746847064796,0,2,-3,-4,-1,-2,-4,-3
1576746847070746,-2,-2,2,2,-1,1,0,-2
1576746847070746,-2,-1,-2,1,-1,-2,0,-4
1576746847087701,-5,0,2,-1,-1,0,-1,-2
1576746847087701,1,-2,-1,0,-1,-1,-1,-2
1576746847088695,-4,-2,-3,-2,-1,-1,-3,-1
1576746847088695,3,0,1,3,1,0,1,2
1576746847109743,1,0,-1,-1,0,0,1,1
1576746847109743,1,1,0,-1,-2,1,-1,3
1576746847111635,1,0,-1,-1,-2,-2,-2,0
1576746847111635,0,-1,2,0,0,-1,1,0
1576746847124720,-3,0,-5,0,-1,-2,-1,-3
1576746847124720,0,1,0,-1,0,1,1,1
1576746847131629,-2,-2,0,0,1,1,1,0
1576746847131629,0,-2,-2,0,-3,-1,-2,0
1576746847147640,-1,3,-1,-2,0,-1,1,-2
1576746847147640,-7,-1,1,-2,-2,1,-1,0
1576746847149587,2,-3,1,1,-1,-1,-1,2
1576746847149587,-6,0,-1,-1,0,-2,1,-1
1576746847170479,0,-5,-2,-2,0,-2,-2,-2
1576746847170479,-1,1,-1,-1,0,-1,0,1
1576746847171481,-3,1,-2,-1,-2,-2,0,0
1576746847171481,1,-1,-2,-1,0,0,-1,1
1576746847184540,-1,-2,-1,-1,-1,-2,-1,4
1576746847184540,-3,-4,-3,1,0,-1,0,-5
1576746847191468,-2,-2,-2,-3,1,0,0,-1
1576746847191468,-5,0,1,-1,-1,0,0,3
1576746847207482,-3,-1,2,2,-1,-1,1,3
1576746847207482,4,-1,-1,-1,-1,0,-1,-2
1576746847209377,4,0,-4,1,-2,-1,0,1
1576746847209377,-4,-1,0,-3,-3,-1,-3,-4
1576746847230419,-3,1,2,-1,0,0,2,2
1576746847230419,0,-1,-4,-1,-2,-1,-2,0
1576746847231317,-3,0,-2,0,-1,-2,-1,0
1576746847231317,-2,-3,0,0,0,-1,1,1
1576746847243384,-6,-5,0,-2,-2,-1,-4,-6
1576746847243384,-3,1,0,-2,-1,-1,0,-1
1576746847252300,-2,-1,0,-3,-2,0,0,-2
1576746847252300,-3,-1,1,1,0,0,-2,0
1576746847267267,-4,-1,1,-1,-1,0,1,3
1576746847267267,-5,-3,1,0,-1,-2,1,0
1576746847269222,-7,-2,-1,-3,-1,-2,-2,-3
1576746847269222,-3,-2,1,2,0,0,0,0
1576746847290262,1,-1,1,0,0,1,0,-3
1576746847290262,-3,2,0,-2,-3,-1,-2,-3
1576746847291165,-7,-2,-1,-2,-1,0,2,2
1576746847291165,-3,-2,-1,-4,0,-2,-1,1
1576746847304122,-3,0,0,0,-1,1,0,-2
1576746847304122,-6,-3,-2,-2,-1,-2,-1,-2
1576746847313105,3,-1,-1,-1,-1,0,1,-1
1576746847313105,-3,-1,-1,-1,-2,-1,-1,0
1576746847328057,1,-1,0,0,-2,-1,-2,-2
1576746847328057,-2,0,-1,-1,-1,-1,0,-3
1576746847329062,0,-2,-3,-1,0,0,2,2
1576746847329062,4,4,-2,-2,1,0,-4,-2
1576746847350098,-1,1,-1,-1,-1,0,-1,-1
1576746847350098,6,-1,-2,0,1,0,-1,0
1576746847352014,5,-2,-1,-1,-2,-1,-2,-2
1576746847352014,1,-1,-3,-2,0,-1,-1,-5
1576746847364014,0,-2,-2,0,0,0,0,0
1576746847364014,-1,1,0,0,2,0,0,-2
1576746847372944,2,1,1,1,-1,0,-2,0
1576746847372944,-1,-1,-1,-2,-1,-2,-2,0
1576746847387896,2,1,1,-2,1,-1,-1,-1
1576746847387896,-1,0,1,-2,0,-3,0,2
1576746847388898,0,-2,-2,0,0,1,-1,-7
1576746847388898,4,1,-2,0,-1,1,1,-2
1576746847409894,-6,-2,-3,0,-1,-1,-2,-1
1576746847409894,5,-2,-4,-1,0,-2,-1,1
1576746847411840,0,-1,-5,-2,-2,-3,-1,1
1576746847411840,-2,0,-1,-2,-2,-1,0,-4
1576746847423900,2,-1,-1,-2,-2,-1,1,0
1576746847423900,0,0,0,1,0,0,0,0
1576746847432820,-8,0,-2,-1,-1,-1,-3,1
1576746847432820,3,0,1,-1,-1,-1,-1,-1
1576746847447849,4,1,-4,0,1,0,-3,-4
1576746847447849,-2,-1,3,0,-2,-1,0,0
1576746847448733,4,2,1,-1,1,0,2,5
1576746847448733,-2,-3,-5,0,0,1,-1,0
1576746847469780,-2,-1,-1,0,-2,-1,-2,-1
1576746847469780,-1,-1,-5,1,-2,-1,-1,-1
1576746847471687,3,1,-2,-1,-1,-1,-1,-3
1576746847471687,-6,0,-3,-2,0,-1,-1,-3
1576746847483741,-3,-1,0,-1,0,2,2,0
1576746847483741,4,-4,-2,-2,-1,-1,-2,-2
1576746847492618,-3,0,-3,-1,-2,-3,-4,1
1576746847492618,1,3,-2,1,0,-1,-2,-2
1576746847507677,2,0,-1,-1,-1,0,-2,-1
1576746847507677,-3,2,0,-3,-1,-1,0,1
1576746847509577,1,-2,-2,0,-2,0,-1,-5
1576746847509577,-2,-1,2,-3,0,-1,-1,4
1576746847530516,0,0,-1,-1,-1,-2,-2,0
1576746847530516,-6,1,-2,-2,-2,0,0,-2
1576746847531518,-1,-1,0,0,1,0,-1,-4
1576746847531518,-3,-3,0,-1,-3,-3,1,1
1576746847543519,2,0,-3,-1,-1,-1,-2,1
1576746847543519,-4,-1,-2,-1,0,0,-2,0
1576746847552458,6,1,-2,0,-1,-3,-2,-2
1576746847552458,-5,-3,-1,1,-1,2,-1,0
1576746847567516,-6,-1,0,-2,-1,0,-2,0
1576746847567516,-1,-1,-1,-1,0,-1,-1,-4
1576746847569446,4,-1,-2,-1,-1,-2,-1,4
1576746847569446,-6,-3,3,1,1,1,-1,-1
1576746847590402,-3,-4,-1,0,0,-3,0,0
1576746847590402,0,-3,-3,1,-1,0,-2,-4
1576746847591354,-2,0,-1,2,-2,-1,1,1
1576746847591354,1,1,-5,-2,-3,0,-2,-5
1576746847603360,-1,0,1,-1,-4,-2,-1,0
1576746847603360,1,-2,-1,-1,-1,0,0,5
1576746847612325,-1,-1,1,-2,-1,1,1,3
1576746847612325,1,1,-4,-1,-1,-1,0,-2
1576746847627356,-7,-3,-1,-1,0,-1,-2,-2
1576746847627356,0,0,0,-3,-1,-2,-1,-2
1576746847629288,-4,-1,-1,-1,1,0,-1,1
1576746847629288,-4,0,1,-2,0,-1,2,6
1576746847650295,-6,-1,0,0,-1,0,1,-3
1576746847650295,-5,-1,-1,2,-3,-2,0,1
1576746847651246,-4,-2,-1,-1,-1,-2,-3,-7
1576746847651246,0,-3,2,0,0,0,-2,0
1576746847664159,2,-1,2,0,0,-1,2,1
1576746847664159,-1,-1,1,-2,1,-1,0,-2
1576746847672140,-1,0,0,-3,1,1,1,0
1576746847672140,-3,-2,2,-2,0,-3,0,-6
1576746847687099,-4,-7,1,-1,-2,-1,0,-1
1576746847687099,-1,2,-2,3,0,0,-1,-2
1576746847689094,-1,1,-1,1,-2,-2,1,2
1576746847689094,2,-2,-2,0,-2,-1,0,-1
1576746847710073,-4,-1,-1,-2,-1,-1,1,2
1576746847710073,5,1,-1,-1,0,2,-2,-1
1576746847712048,6,2,0,0,0,-1,1,-2
1576746847712048,2,-1,1,-3,-2,-2,-1,-1
1576746847732975,1,4,0,0,-1,-3,3,1
1576746847732975,-3,-1,-3,0,-2,-2,-2,-3
1576746847733980,-1,0,-1,0,-1,0,-2,-1
1576746847733980,3,0,-2,1,-1,0,-2,-4
1576746847747037,4,1,2,0,1,0,0,1
1576746847747037,0,-4,-3,-2,-1,-1,0,-2
1576746847753919,6,-1,-1,-1,0,-2,-1,-1
1576746847753919,4,-1,0,0,0,-2,1,3
1576746847769948,-4,0,-3,0,-1,-1,-2,-1
1576746847769948,0,1,-2,0,0,-3,1,-2
1576746847771873,2,-2,-2,0,-2,-1,-3,0
1576746847771873,-1,0,1,-1,0,0,-1,-1
1576746847792905,-4,2,-1,0,2,-1,-2,0
1576746847792905,1,-2,-4,-1,-1,0,1,3
1576746847793821,-9,-1,1,-2,-1,-1,-1,-3
1576746847793821,3,-2,0,1,-2,0,-2,-6
1576746847807884,-2,-2,-1,1,-1,0,-2,2
1576746847807884,1,-1,-4,0,0,-2,-1,-2
1576746847808781,1,-3,0,0,0,0,0,1
1576746847808781,0,-2,-2,0,-2,0,0,3
1576746847829726,3,-2,-3,-2,-2,-3,-1,-4
1576746847829726,-2,-1,3,-2,1,2,1,3
1576746847831747,-2,1,-5,-1,0,-1,-1,-2
1576746847831747,-3,0,-2,-1,0,0,-1,-1
1576746847852754,1,0,0,-1,-2,-1,-2,0
1576746847852754,-3,0,0,0,0,-2,-1,0
1576746847853654,1,1,0,0,-1,-2,0,0
1576746847853654,-2,-1,-3,-1,0,0,-1,1
1576746847866716,1,-2,-3,0,1,0,-1,1
1576746847866716,0,-2,1,-1,-2,-2,1,-2
1576746847873633,-2,-1,1,0,-2,0,1,1
1576746847873633,-1,1,-4,-2,0,0,0,-3
1576746847890554,0,0,0,0,-1,1,1,1
1576746847890554,-4,1,0,-1,-2,0,-3,-3
1576746847891567,2,-2,-4,0,1,-2,0,0
1576746847891567,-4,2,-3,0,0,-1,0,0
1576746847912591,-1,1,-1,-2,-1,-1,-2,-3
1576746847912591,0,0,0,0,-1,1,-1,1
1576746847914541,0,-4,0,-3,-1,0,-1,7
1576746847914541,-2,-1,1,-2,-2,-1,-2,0
1576746847926556,6,2,-6,-1,0,0,1,-3
1576746847926556,-4,-1,0,-1,-2,1,0,2
1576746847933534,3,-1,-4,-1,1,0,-1,-6
1576746847933534,1,-2,4,-1,1,-2,0,0
1576746847950438,-7,-3,4,0,-2,0,0,0
1576746847950438,1,-2,0,0,1,0,-1,0
1576746847951404,-5,-1,1,-1,-2,-2,-1,-3
1576746847951404,-2,-4,-5,1,-3,-2,-2,-1
1576746847972336,-4,-2,-1,-2,1,0,-1,-5
1576746847972336,-1,2,-2,-3,-2,-1,-1,-2
1576746847974337,-4,0,-1,0,1,-1,0,-3
1576746847974337,1,1,3,-2,-1,-1,-1,-2
1576746847987295,-6,-4,-5,-1,-2,-1,-3,-2
1576746847987295,-2,-3,-3,2,1,-1,-1,3
1576746847993378,-6,-3,1,-1,-3,2,1,4
1576746847993378,3,2,0,1,0,0,1,2
1576746848010294,-13,-3,3,-1,0,-1,-3,0
1576746848010294,-5,-2,2,-2,-1,-2,0,-3
1576746848011240,-3,-3,-2,-3,-1,-1,-1,0
1576746848011240,-10,-3,1,-1,-2,-1,-1,-6
1576746848032276,4,1,1,0,-2,-2,-2,-1
1576746848032276,0,0,0,0,0,-1,1,0
1576746848034177,0,-1,1,-2,0,1,0,-3
1576746848034177,-8,-1,-3,-2,0,-2,-1,2
1576746848047244,0,0,-1,-2,1,0,-1,1
1576746848047244,-5,-2,0,-1,1,0,-2,-3
1576746848054117,4,3,1,1,0,-1,1,0
1576746848054117,0,-1,0,0,-1,0,0,2
1576746848070072,-6,-3,-1,-1,-2,-1,0,-3
1576746848070072,2,-2,-3,0,0,0,-1,-2
1576746848072075,-3,-1,-1,-1,-3,-2,-3,0
1576746848072075,3,-1,3,0,0,-2,0,1
1576746848093013,0,-3,-3,-2,-2,0,-1,2
1576746848093013,-3,1,-3,-2,-1,-2,-1,-3
1576746848094018,-1,-1,0,3,0,-1,0,1
1576746848094018,1,-1,2,-2,-2,1,-1,-2
1576746848107079,3,2,2,0,-2,-1,-1,1
1576746848107079,2,0,3,-2,1,0,0,-2
1576746848114068,1,-1,-3,-2,-1,1,-3,-5
1576746848114068,4,2,-2,0,0,-1,0,-1
1576746848130012,-5,-2,2,-1,1,-1,-1,-3
1576746848130012,3,1,-6,-1,-3,-1,-1,-1
1576746848131960,4,0,-1,-1,0,0,0,-2
1576746848131960,0,-2,-1,-1,-1,0,0,1
1576746848152891,1,0,2,1,0,0,-2,-2
1576746848152891,1,-2,-3,-2,-3,-1,-2,-3
1576746848153850,-6,0,-2,-3,-1,-1,-2,-3
1576746848153850,-2,-4,0,1,1,-2,-1,2
1576746848166857,4,-2,-1,-1,-2,-3,2,-1
1576746848166857,-2,-1,-1,-2,0,0,-1,-3
1576746848173836,2,2,0,0,-2,0,1,1
1576746848173836,-7,-1,-3,-2,-1,0,-3,-2
1576746848189853,0,0,-2,-1,0,-1,-3,-2
1576746848189853,-1,0,-1,-1,-1,0,-1,0
1576746848191783,5,-2,-5,-2,-1,-1,-2,-1
1576746848191783,3,0,-1,0,-2,-2,-1,-1
1576746848212793,2,3,0,0,0,-1,0,1
1576746848212793,-5,-2,-1,0,-1,0,0,1
1576746848213699,0,0,1,-1,-2,-3,-1,-1
1576746848213699,-1,0,-2,0,-1,-2,-1,-3
1576746848226657,1,-1,-1,1,-1,1,1,0
1576746848226657,0,-2,0,0,1,-2,-2,-2
1576746848235631,-4,-2,0,0,-2,1,2,5
1576746848235631,2,-3,0,-1,-1,0,-2,0
1576746848250591,-1,-3,-1,0,-1,-2,1,-2
1576746848250591,-1,1,-2,0,0,-2,-3,-3
1576746848251595,2,2,-5,0,-1,-3,-4,-18
1576746848251595,-4,-1,-7,-2,-1,1,1,6
1576746848272633,-1,-2,1,-1,-1,0,0,1
1576746848272633,-4,-3,-6,-1,0,-1,-2,-1
1576746848274532,6,-1,0,-1,-2,-1,-2,1
1576746848274532,0,1,1,-1,-1,-1,-1,0
1576746848286533,4,3,-4,-1,-1,-1,-1,-1
1576746848286533,-3,-1,1,0,0,-2,-1,0
1576746848295525,-1,0,-2,-1,0,-1,0,2
1576746848295525,0,-2,-1,-2,-1,-1,-2,-3
1576746848310439,-1,-2,-2,2,-1,1,1,-1
1576746848310439,2,1,2,-2,-4,-1,-1,-1
1576746848311431,-3,-1,-2,0,-1,0,1,1
1576746848311431,4,2,1,-1,-1,0,0,0
1576746848332470,-10,-1,0,-3,0,-1,-1,3
1576746848332470,7,0,-6,-1,0,-1,-1,-1
1576746848334369,0,-1,-1,-3,-2,1,1,2
1576746848334369,-5,0,-1,1,-1,-2,0,0
1576746848346344,-3,-4,-4,-3,-1,-1,0,-2
1576746848346344,0,-4,-5,-1,-2,-1,-2,-2
1576746848355314,0,-1,0,0,-1,-1,-1,0
1576746848355314,1,0,3,1,0,0,0,2
1576746848370271,2,0,-5,-1,-1,0,-4,-2
1576746848370271,-4,0,1,-1,-1,-1,1,1
1576746848371274,0,2,-4,0,-1,0,-1,-2
1576746848371274,-2,1,-3,-1,0,-1,0,-1
1576746848392312,-11,-3,0,0,-2,0,-1,-1
1576746848392312,2,0,-3,0,-1,0,0,2
1576746848394213,1,2,0,0,-1,0,0,4
1576746848394213,-6,-1,2,0,-2,-1,-2,-7
1576746848406274,-12,0,1,0,1,0,0,-4
1576746848406274,-1,0,0,0,-2,0,1,2
1576746848415154,-5,-2,-1,-1,-3,0,-2,-3
1576746848415154,-1,-2,0,1,1,1,1,1
1576746848430211,0,1,-3,-2,0,-2,-2,-3
1576746848430211,-4,1,2,1,0,0,0,-4
1576746848432110,1,-2,-1,-2,-1,-1,-1,-1
1576746848432110,0,0,-2,0,-1,0,-1,-3
1576746848453055,3,-3,2,-1,-2,-1,-2,1
1576746848453055,-2,0,-5,0,-1,1,0,-2
1576746848454055,-3,-2,-1,-1,0,-1,-1,-3
1576746848454055,2,-3,-2,-1,-1,-2,0,-1
1576746848466113,-2,-3,-1,-3,-1,1,-2,-3
1576746848466113,2,1,2,0,-1,0,-1,1
1576746848474990,2,-1,-1,2,2,0,-1,-2
1576746848474990,-3,-2,-6,-1,1,0,-3,1
1576746848490049,2,2,-5,-1,0,-3,-1,-1
1576746848490049,3,-3,1,-1,-2,0,-2,1
1576746848491945,1,-6,-2,-1,1,-2,0,0
1576746848491945,-5,4,1,0,0,-1,-1,-3
1576746848512929,4,-1,1,2,-2,1,0,2
1576746848512929,-5,-1,-3,0,1,-1,0,-2
1576746848513887,1,2,0,0,-3,-1,-1,1
1576746848513887,0,-2,-1,-3,-3,-1,-2,1
1576746848525955,1,2,-1,-1,-3,-1,2,0
1576746848525955,-3,-3,2,-1,-1,-1,-3,-3
1576746848534860,0,-2,0,-2,-1,-1,-1,4
1576746848534860,-3,1,-2,0,0,0,-1,-4
1576746848549889,-4,-3,2,-2,0,0,1,0
1576746848549889,3,-1,1,0,-2,-2,1,1
1576746848551832,-1,0,-3,0,-2,-1,0,2
1576746848551832,3,-1,0,-2,-2,-2,0,-1
1576746848572828,-1,-2,-2,-1,0,-1,-2,1
1576746848572828,-6,1,0,-2,-1,-3,-1,-1
1576746848573737,4,0,1,-1,-1,-1,-1,-3
1576746848573737,0,0,2,0,-1,0,1,1
