timestamp,emg1,emg2,emg3,emg4,emg5,emg6,emg7,emg8
1522257389525933,55,0,7,22,19,-1,0,-4
1522257389525933,-87,-3,1,16,35,3,1,0
1522257389525933,30,1,-2,-2,-5,0,-2,-8
1522257389525933,-13,6,3,-3,-3,-3,0,-2
1522257389526936,8,-1,-6,-16,-7,-3,-1,7
1522257389526936,61,-5,0,-1,-7,-3,1,1
1522257389528941,-30,-1,-2,5,3,0,-1,-1
1522257389528941,-1,-8,-4,-2,9,-3,-3,-10
1522257389537968,6,17,3,-1,-13,-1,1,1
1522257389537968,-21,-7,1,-3,4,-4,-3,-1
1522257389542978,47,-26,-6,-2,-38,4,-1,6
1522257389542978,-25,5,-2,-2,1,0,-5,0
1522257389554008,-76,2,3,3,9,1,1,-8
1522257389554008,59,-10,-1,-2,-7,6,2,2
1522257389568044,-12,11,5,-2,-2,-4,3,-6
1522257389568044,-8,5,0,-1,-9,-17,-2,-4
1522257389573058,-23,2,0,-1,4,0,-3,3
1522257389573058,40,6,-5,-7,-25,11,-1,10
1522257389588102,-20,-16,-1,1,6,12,0,-4
1522257389588102,-11,1,2,8,10,-4,-1,2
1522257389598125,2,-9,-6,-8,0,3,-1,-5
1522257389598125,20,4,-1,-6,-20,-3,5,0
1522257389637228,-9,-7,2,7,17,2,-1,1
1522257389637228,41,2,-1,0,5,-3,0,8
1522257389638234,-16,10,-3,-5,-3,-7,-2,-2
1522257389638234,-18,-9,-4,-6,-7,-4,-5,-1
1522257389640236,-6,10,1,-5,-6,-2,-3,-3
1522257389640236,-5,-20,-2,0,-2,-3,2,2
1522257389641239,-15,11,4,3,2,8,-1,-3
1522257389641239,14,2,-6,-2,0,2,2,-4
1522257389648258,-14,-3,13,2,2,2,2,1
1522257389648258,-2,11,2,-3,4,-3,-3,-2
1522257389655276,-8,-16,-7,0,7,-2,0,-3
1522257389655276,-9,1,-1,3,0,-4,-1,-3
1522257389662295,-2,-10,-4,3,-6,-2,2,-3
1522257389662295,-1,28,0,-4,-5,-5,-6,-3
1522257389677335,-3,6,10,5,9,5,-2,-4
1522257389677335,22,7,-3,-3,-13,3,-2,5
1522257389685356,7,4,-6,-3,10,1,-3,4
1522257389685356,-34,-20,-3,-1,-5,2,-1,-6
1522257389708417,12,7,-6,-5,-7,-18,-2,-2
1522257389708417,18,-4,1,0,6,13,3,-1
1522257389709420,-28,-9,-3,-1,-8,-5,-3,-3
1522257389709420,-26,-9,-1,2,-8,-11,-2,-1
1522257389723458,-25,-11,-4,-2,4,17,3,6
1522257389723458,8,23,12,3,7,-6,2,9
1522257389723458,10,-20,-13,-2,-2,-1,0,-2
1522257389723458,13,58,13,4,6,0,1,-5
1522257389745516,30,-45,-5,-10,-7,-9,-10,5
1522257389745516,-12,3,0,0,2,-1,1,3
1522257389746519,-23,3,-1,-5,-1,-2,-1,-6
1522257389746519,28,-7,-3,-1,3,2,3,1
1522257389768577,19,-4,0,5,-6,0,1,-5
1522257389768577,-32,-32,-15,-3,10,-1,-1,1
1522257389769580,2,12,2,0,-3,-2,-3,-5
1522257389769580,-4,0,-5,-1,5,1,2,4
1522257389783617,-28,-7,-8,-7,-14,-7,-4,1
1522257389783617,-21,-15,-1,-4,0,6,-2,-6
1522257389783617,-18,1,0,4,-4,-1,1,-9
1522257389783617,63,-11,4,3,-1,4,1,3
1522257389805676,22,-15,-2,2,3,-1,2,8
1522257389805676,-67,3,3,-1,-6,-9,-4,-6
1522257389806679,16,-14,-2,-2,-2,0,-3,-3
1522257389806679,-1,11,1,-4,-7,1,-3,-1
1522257389828737,-18,-14,-1,0,-1,0,0,-1
1522257389828737,28,21,-2,-5,-4,-7,-3,-1
1522257389829740,24,12,5,2,3,3,2,-9
1522257389829740,17,11,-4,4,1,0,2,7
1522257389842775,44,-16,-4,-1,-4,-11,-2,1
1522257389842775,-10,0,0,0,2,17,2,3
1522257389843778,-36,-7,-3,-3,-5,-3,-1,1
1522257389843778,-12,-3,-1,-1,2,4,2,-2
1522257389865836,-7,22,4,0,-1,3,2,-6
1522257389865836,33,17,4,3,-5,-18,-3,-2
1522257389866839,110,45,15,7,-7,4,4,5
1522257389866839,-93,-97,-21,-8,-13,4,-9,-18
1522257389888897,-13,-2,0,3,32,-11,1,-4
1522257389888897,5,-17,-6,-3,-8,9,0,6
1522257389889900,-4,2,0,6,24,0,-4,-1
1522257389889900,1,6,6,-3,-15,-5,-1,-1
1522257389902934,-55,-5,-2,1,-9,4,-2,-13
1522257389902934,33,14,-2,-1,4,-10,-4,-5
1522257389903938,-32,-8,-3,-10,0,-3,1,3
1522257389903938,42,27,3,-17,-11,3,-1,6
1522257389925996,-11,8,1,31,-9,4,0,0
1522257389925996,-16,5,3,14,49,3,1,-6
1522257389925996,53,-6,-3,3,0,0,-1,-2
1522257389925996,-20,-20,-21,-15,-4,-12,-4,5
1522257389949057,33,33,14,-13,-9,-3,0,10
1522257389949057,-12,-15,2,0,-26,-23,-3,-4
1522257389950060,28,-1,0,0,4,21,-4,1
1522257389950060,-13,0,9,7,20,7,-4,-10
1522257389963094,33,6,-1,-7,-7,5,1,5
1522257389963094,-92,-23,-9,-5,-7,1,0,-11
1522257389964097,56,-9,-18,-14,-12,-18,-2,-5
1522257389964097,12,24,10,10,-1,-2,0,0
1522257389986156,-18,-6,-4,-1,2,4,-4,5
1522257389986156,16,8,2,-2,-17,-4,-8,-7
1522257389986156,24,-13,-9,-2,12,4,0,6
1522257389986156,-37,-13,-8,3,-15,4,3,-7
1522257390009217,39,-7,-10,-1,29,1,-1,0
1522257390009217,-7,10,6,-2,3,2,3,11
1522257390009217,-37,-15,4,-3,-17,-19,-5,4
1522257390009217,49,13,7,0,6,4,-1,-1
1522257390022252,-61,-9,1,-1,7,3,3,-8
1522257390022252,16,-4,-4,0,2,1,2,-4
1522257390030273,-1,0,-5,-1,0,-1,2,2
1522257390030273,15,9,4,-1,1,-5,4,13
1522257390045313,-27,6,4,-3,-10,0,-2,-2
1522257390045313,19,14,4,3,0,6,-3,1
1522257390046316,-61,3,6,0,-7,-2,-1,0
1522257390046316,-15,-2,-3,-3,3,-17,-3,-1
1522257390068374,58,6,-6,-4,-8,12,-2,-3
1522257390068374,12,14,1,0,-25,3,5,9
1522257390069377,33,-12,-2,-4,17,-1,-1,-1
1522257390069377,-66,-8,-7,0,-1,0,2,-5
1522257390082412,23,22,9,-2,-9,-5,4,-1
1522257390082412,-36,-9,1,0,-4,-23,-3,1
1522257390090433,-8,1,-3,0,16,20,-2,-5
1522257390090433,2,2,-3,0,2,6,1,7
1522257390105473,25,5,3,1,0,-6,-4,-10
1522257390105473,-40,31,4,2,10,4,2,0
1522257390106476,-45,-11,0,-2,-10,-10,-2,3
1522257390106476,6,-7,-1,3,17,-1,0,-3
1522257390128534,-26,-4,-6,-7,-14,5,-1,0
1522257390128534,25,-8,-1,-7,10,-5,-3,-4
1522257390129537,12,6,-2,-1,-49,-4,-1,6
1522257390129537,-34,-11,-3,6,34,2,0,-1
1522257390142571,48,2,3,2,-7,-4,1,5
1522257390142571,-64,-23,1,-1,-2,1,-2,-9
1522257390150593,-21,11,1,-2,-2,-7,1,-2
1522257390150593,-26,-7,1,-2,-18,3,1,-5
1522257390165633,41,7,-5,-3,-10,0,1,0
1522257390165633,66,-18,-5,-4,10,-5,-1,6
1522257390166635,-25,-2,-2,2,3,7,0,1
1522257390166635,28,12,9,5,-7,3,1,2
1522257390188694,-87,2,-1,1,29,3,-1,3
1522257390188694,31,-5,-8,-2,-6,-9,-4,-7
1522257390189697,-4,-1,-3,-2,2,7,4,2
1522257390189697,-5,-16,-11,-6,-6,-5,-5,-2
1522257390202731,-1,6,7,-3,-6,-4,-2,-5
1522257390202731,-31,-3,1,-3,-9,8,1,-6
1522257390210753,18,2,-1,1,12,-5,-6,-4
1522257390210753,-11,-3,-1,0,-5,0,-4,-8
1522257390225792,15,-10,-4,1,2,0,2,1
1522257390225792,-1,-15,-1,2,3,2,1,-4
1522257390226795,1,17,7,2,3,-1,2,10
1522257390226795,38,10,7,2,1,2,0,-4
1522257390248854,-3,15,-2,-3,-27,-12,-4,0
1522257390248854,-11,-39,-10,-7,7,8,-1,0
1522257390249857,14,-21,-7,0,-15,1,-1,-8
1522257390249857,-61,38,10,2,1,-15,-2,0
1522257390270913,62,-5,-2,-2,10,15,0,5
1522257390270913,3,25,3,-1,-1,-1,-4,-6
1522257390271915,-20,-18,-3,-4,-22,-1,-1,-2
1522257390271915,-6,-7,-5,-1,-4,-2,0,0
1522257390285952,19,-13,4,0,0,-8,-2,-4
1522257390285952,47,4,6,6,0,-8,0,0
1522257390286956,-76,7,-6,-6,6,6,-2,-3
1522257390286956,61,4,0,-4,-13,2,0,5
1522257390309014,-13,2,-5,9,34,1,-2,-1
1522257390309014,-7,-19,-1,-1,-5,2,-1,2
1522257390310017,20,26,3,2,7,-11,-4,-1
1522257390310017,2,-24,2,2,-5,4,-1,-5
1522257390322049,-95,-1,3,-1,-11,-1,1,-6
1522257390322049,117,46,-1,-4,-4,-1,-2,19
1522257390331072,14,-9,-7,-6,0,-2,3,-11
1522257390331072,-9,-23,-17,-5,-10,-2,1,5
1522257390346113,-8,-26,-6,-6,-1,-3,2,4
1522257390346113,51,6,8,11,5,3,2,-7
1522257390346113,-62,36,2,-3,-12,-9,-9,6
1522257390346113,-62,-51,-8,0,-6,6,-3,-18
1522257390369174,72,44,6,-4,-7,-11,-2,12
1522257390369174,-58,-18,-6,-10,-10,-2,1,-3
1522257390369174,51,-19,5,-1,8,0,2,4
1522257390369174,11,13,5,5,5,-3,-4,-6
1522257390382208,-73,-24,-4,2,-2,2,-2,-16
1522257390382208,80,11,-1,5,6,9,7,9
1522257390390230,-32,-11,-7,-9,-14,-3,4,6
1522257390390230,-38,8,-6,4,16,4,-6,-8
1522257390405270,47,9,5,1,-2,1,-4,4
1522257390405270,-33,-10,-5,-1,-12,-9,-6,-10
1522257390406272,-22,-10,0,3,45,13,3,-3
1522257390406272,85,11,8,-3,-37,-3,3,11
1522257390429334,51,-14,-12,-7,8,-4,-6,-10
1522257390429334,-85,-28,2,2,-2,-7,-1,-6
1522257390429334,29,-1,0,2,-4,-11,-1,-6
1522257390429334,-4,10,2,-4,0,3,0,8
1522257390451392,-2,6,2,3,6,3,2,9
1522257390451392,-21,0,-1,-6,-12,-1,-5,2
1522257390452395,68,8,3,-3,-4,-1,0,9
1522257390452395,26,14,2,3,8,-2,1,0
1522257390465431,67,2,4,7,-4,6,5,-1
1522257390465431,-79,0,-3,2,9,5,0,2
1522257390466434,-71,-31,-10,-1,-7,0,-3,-14
1522257390466434,-1,-5,-3,-8,-14,-9,3,-7
1522257390489502,-18,-1,-7,-14,-18,-12,-3,1
1522257390489502,37,3,6,15,28,18,2,-7
1522257390489502,12,22,13,12,14,-12,3,1
1522257390489502,42,-20,-9,-4,13,10,0,18
1522257390511553,-56,-4,-5,-7,-10,-6,-1,-7
1522257390511553,1,-2,-11,-7,-7,2,-1,2
1522257390512555,-5,16,6,-15,-27,-5,-3,-3
1522257390512555,-15,6,7,22,62,5,-5,-5
1522257390525589,-54,-6,-4,5,-2,-6,-1,3
1522257390525589,69,5,-1,3,2,15,3,0
1522257390526592,-71,-35,-6,7,30,2,-3,-9
1522257390526592,21,0,1,-18,-18,1,-2,1
1522257390548650,24,6,-1,-5,-8,-3,-2,-3
1522257390548650,11,11,5,-1,-10,-12,-3,0
1522257390549653,43,-13,-2,-4,-8,-1,0,0
1522257390549653,-88,-14,-8,0,-35,7,6,-3
1522257390571712,79,65,-1,-4,9,-5,-3,25
1522257390571712,-39,-30,-4,-6,-6,-9,-2,-4
1522257390572715,-10,10,9,8,-13,4,-2,-2
1522257390572715,46,23,16,8,11,-13,-2,-10
1522257390585749,-23,-20,-3,1,-1,12,-1,-6
1522257390585749,-21,0,-4,-8,0,0,-2,2
1522257390586752,22,16,-9,-4,-7,4,0,6
1522257390586752,9,-6,0,-3,-5,-6,-2,-6
1522257390607808,-30,-16,4,2,11,0,0,-5
1522257390607808,21,12,0,-10,-9,-9,-3,3
1522257390616832,-8,-10,-4,-4,-39,-1,-2,-2
1522257390616832,17,4,-1,21,55,8,2,2
1522257390630869,-62,-6,6,8,16,4,5,-11
1522257390630869,-45,9,0,5,-12,-3,2,3
1522257390632875,89,9,1,-4,-4,-5,-2,9
1522257390632875,-100,-51,-17,-25,-17,-19,-5,-8
1522257390653930,1,-4,-2,-3,-15,13,-3,-5
1522257390653930,4,-10,5,3,7,5,0,-10
1522257390655936,2,3,-1,1,5,1,-3,-10
1522257390655936,16,23,2,0,-10,-8,0,7
1522257390667968,-40,-27,-4,-3,-2,-9,-2,2
1522257390667968,-3,2,0,-2,-7,-1,4,2
1522257390676992,-31,1,-3,-1,16,-6,-1,1
1522257390676992,28,16,4,-1,-14,4,-4,2
1522257390691029,-25,-7,0,2,9,5,-3,-8
1522257390691029,-15,2,-6,-20,23,-14,-12,-8
1522257390693035,102,20,10,3,-77,-8,-3,8
1522257390693035,-70,-10,-4,6,23,29,7,-1
1522257390714090,-7,1,4,3,9,-2,1,-6
1522257390714090,-6,-9,0,8,21,4,2,-8
1522257390715093,69,7,5,-3,4,-7,7,4
1522257390715093,-17,-12,-11,-18,-35,-18,-6,2
1522257390727125,12,-16,-7,-1,-6,-5,-2,1
1522257390727125,23,0,-5,-1,-2,2,-3,3
1522257390736149,-100,18,3,4,13,5,2,-5
1522257390736149,82,7,10,9,-1,-8,-3,-11
1522257390751189,-15,-24,-10,-6,8,-3,-3,10
1522257390751189,10,-13,-5,-8,-5,-10,-7,0
1522257390753194,-60,-10,-6,3,9,23,2,1
1522257390753194,-28,2,1,1,18,2,2,0
1522257390774250,23,-3,0,-4,-22,-7,-1,-3
1522257390774250,0,31,15,8,-6,-4,-2,-1
1522257390775253,50,-6,-5,-1,19,-2,-5,0
1522257390775253,12,-5,-1,-6,-15,-4,0,-2
1522257390787285,-51,8,8,6,-14,-1,-1,-16
1522257390787285,70,-5,-8,0,-13,1,0,11
1522257390796309,16,5,-12,-7,15,-2,1,17
1522257390796309,3,-5,-2,-6,18,-5,-6,-1
1522257390810346,50,33,3,-5,-30,0,3,2
1522257390810346,-102,-49,-13,3,17,-4,-6,-24
1522257390819371,62,-6,11,8,7,4,2,-14
1522257390819371,-58,13,-5,-11,-16,-18,2,21
1522257390833407,0,-17,-13,-5,11,15,-8,-4
1522257390833407,-11,10,0,-6,-4,2,-1,-7
1522257390835413,-16,-12,-6,3,1,-8,-3,-4
1522257390835413,60,29,18,21,-5,14,13,2
1522257390847445,44,17,-2,-5,-7,-8,1,20
1522257390847445,-26,12,2,1,-13,-6,5,14
1522257390856469,-49,-16,-5,-14,6,-5,-3,-4
1522257390856469,13,9,-1,-2,-7,-2,-6,-10
1522257390870506,-1,10,0,8,4,-1,2,-3
1522257390870506,-19,-30,-4,-3,5,13,2,-5
1522257390877525,78,22,7,10,14,6,6,-1
1522257390877525,-24,48,18,-1,-5,8,3,34
1522257390893567,9,-19,-8,-7,0,-14,-6,-5
1522257390893567,9,-12,-4,-4,-42,-7,-2,-3
1522257390895573,-116,-58,-8,4,41,7,-2,-13
1522257390895573,17,-50,-15,2,4,1,-6,-33
1522257390907604,-5,65,21,1,-1,2,9,32
1522257390907604,36,17,6,2,-3,-1,5,11
1522257390916629,-3,11,3,3,-10,-1,-2,-10
1522257390916629,-25,2,-11,-8,-3,-9,-8,-7
1522257390930666,54,-2,1,0,7,-7,2,3
1522257390930666,1,-22,-11,-5,11,19,2,4
1522257390937688,-55,26,0,-7,-20,-4,-1,4
1522257390937688,6,-9,-3,-1,7,-2,-4,-7
1522257390953730,9,-12,2,5,-3,4,1,-22
1522257390953730,-36,39,12,13,-1,-3,6,22
1522257390955733,82,-19,-16,-13,-15,-9,-12,1
1522257390955733,-30,-17,-1,-2,-1,10,0,-4
1522257390976789,-11,19,1,-9,-13,-6,-4,4
1522257390976789,9,3,4,8,29,1,1,-6
1522257390977791,-9,13,11,8,21,7,8,0
1522257390977791,71,21,6,2,-6,2,3,9
1522257390990826,-78,-77,-15,-5,-2,-5,-3,-17
1522257390990826,4,-10,-8,-7,-13,6,0,-4
1522257390997844,-35,6,-4,-4,-9,-6,-8,-4
1522257390997844,29,-4,-2,0,3,-2,-2,-5
1522257391013887,-34,-36,-2,3,3,1,-4,-10
1522257391013887,-39,22,-1,-5,-12,-6,-2,-7
1522257391015893,32,1,8,-1,2,-1,3,6
1522257391015893,-40,-20,-6,-3,-5,-1,5,0
1522257391035945,3,4,0,2,4,2,3,3
1522257391035945,54,11,1,2,-1,-9,-6,-6
1522257391037951,15,16,2,3,2,14,-2,-10
1522257391037951,-48,-36,-15,-8,5,-5,-4,4
1522257391050986,-5,16,0,-6,-16,0,-1,11
1522257391050986,42,-2,4,5,7,-13,-6,1
1522257391057002,21,-3,-2,2,19,1,-1,0
1522257391057002,-62,2,1,5,30,15,-2,-9
1522257391074047,89,12,0,2,3,1,4,-6
1522257391074047,-42,-7,-3,-10,-5,-1,1,15
1522257391075050,-24,-3,-2,-3,-18,-14,-7,4
1522257391075050,20,-2,-3,-3,-17,-9,-3,-3
1522257391096105,-36,-10,-9,2,7,7,0,-8
1522257391096105,19,38,12,-2,5,-5,2,5
1522257391098111,18,-18,-9,-9,-12,-5,3,6
1522257391098111,-1,-11,-5,-5,-2,-8,-1,1
1522257391111145,-10,7,4,4,-15,0,1,-9
1522257391111145,-7,-2,2,6,19,2,1,-10
1522257391117161,-16,-19,-6,-3,-5,-3,-3,5
1522257391117161,5,12,0,-2,-15,-14,0,3
1522257391134207,19,-3,-4,1,39,10,-1,-11
1522257391134207,-53,-23,-4,-3,-6,14,-5,-12
1522257391135209,-86,-18,-1,4,-1,6,7,-10
1522257391135209,127,63,14,3,2,3,0,24
1522257391158271,-128,-12,-15,-14,-18,-18,-11,21
1522257391158271,-18,-20,-8,-4,-12,-3,-8,-18
1522257391159274,-23,9,7,5,-3,-5,1,0
1522257391159274,-2,-14,-2,5,8,4,4,-12
1522257391170303,42,25,8,5,3,5,6,-6
1522257391170303,32,-5,-2,-7,19,-3,2,10
1522257391179327,10,-23,-12,-44,-99,-8,-8,-2
1522257391179327,-16,5,4,41,42,-8,-6,-7
1522257391194367,-11,0,3,5,9,12,-2,3
1522257391194367,18,-1,-4,9,8,-1,3,-1
1522257391195369,-40,-2,-2,0,7,0,3,-5
1522257391195369,20,1,-3,-18,-29,3,1,3
1522257391216425,102,18,-4,-6,-5,-2,-4,12
1522257391216425,-35,-7,1,3,-20,-13,-4,-14
1522257391218431,-39,22,10,7,24,5,-1,-2
1522257391218431,-31,-8,-7,-8,1,19,5,4
1522257391230462,-42,-29,-5,3,16,0,0,-7
1522257391230462,127,40,5,-5,-14,1,3,16
1522257391239487,-108,-27,-5,8,18,-7,-5,-10
1522257391239487,-54,30,5,5,1,0,1,12
1522257391253524,27,-1,3,-10,-21,-9,-7,-5
1522257391253524,-28,-10,-1,0,-2,1,3,1
1522257391255529,56,7,4,7,13,1,4,7
1522257391255529,15,-16,1,-7,-8,0,0,-9
1522257391283604,-44,-13,-2,-4,-6,-7,-5,-2
1522257391283604,-18,-7,-2,-3,1,-2,-4,1
1522257391285609,8,-11,-5,-2,0,-14,-7,-11
1522257391285609,2,-3,-6,-7,-54,17,-6,-5
1522257391289620,-23,0,-2,2,1,4,-1,-8
1522257391289620,65,4,-3,5,13,5,-1,2
1522257391298645,-49,-4,-1,4,7,2,4,-6
1522257391298645,-6,-15,-9,-15,-17,-18,-1,0
1522257391313684,26,7,6,-3,-5,-3,6,5
1522257391313684,-47,-3,-2,8,0,-2,4,-11
1522257391315689,123,41,9,-6,-24,1,-5,23
1522257391315689,-7,-18,-3,5,51,-3,-4,1
1522257391336745,-69,4,-5,7,10,2,4,-12
1522257391336745,18,-14,-8,-7,-2,-2,1,-6
1522257391337748,-21,-16,-5,1,12,-1,2,8
1522257391337748,13,32,13,1,-4,1,-1,-1
1522257391349780,4,-4,-2,-3,5,-1,-4,5
1522257391349780,-2,1,10,-4,-5,-2,1,0
1522257391358804,-12,7,-1,4,-18,-2,-1,-4
1522257391358804,8,-22,-11,-9,19,6,-1,5
1522257391373844,30,17,4,-3,-19,1,3,5
1522257391373844,-10,-7,-12,-5,-8,0,-4,-12
1522257391375849,-11,7,-2,0,9,0,1,3
1522257391375849,-15,-5,0,-2,2,-10,-4,-6
1522257391395902,-18,-2,4,1,-15,1,1,-7
1522257391395902,-10,-18,-8,-4,-4,0,-1,8
1522257391397908,80,34,1,2,10,5,1,-4
1522257391397908,-78,16,9,2,-7,-5,0,-10
1522257391409940,-63,-23,-7,-1,0,-10,-5,0
1522257391409940,-10,1,1,5,-4,-3,0,-4
1522257391418964,24,-29,-10,-2,8,15,-1,-1
1522257391418964,22,-7,-2,-1,0,9,8,11
1522257391434004,11,-7,4,3,-5,0,-3,-17
1522257391434004,32,14,1,5,16,1,-3,6
1522257391435006,13,17,5,1,5,-6,4,11
1522257391435006,-21,-14,-6,-7,-5,-9,-7,-12
1522257391456062,-17,-3,-3,0,4,4,-1,-1
1522257391456062,-50,-6,1,-1,12,-5,-4,-6
1522257391458067,28,6,-2,1,-31,4,3,0
1522257391458067,-40,5,2,1,4,-4,1,-6
1522257391470100,103,-3,-1,-6,0,-9,-3,10
1522257391470100,9,22,5,-6,-10,1,3,-1
1522257391479124,-14,-15,-3,-3,6,-7,-6,-2
1522257391479124,-34,-29,-4,-4,-6,7,0,-16
1522257391494163,61,21,4,4,7,1,-2,9
1522257391494163,-85,-5,-9,-6,-7,-1,-5,-10
1522257391495166,48,0,-2,-4,7,-8,-1,21
1522257391495166,-24,-20,-2,2,-12,-5,-8,-8
1522257391516222,46,21,3,-4,17,4,1,-7
1522257391516222,-46,-20,-3,-5,-26,6,-2,-4
1522257391518228,-38,-3,-3,6,22,3,1,-20
1522257391518228,75,45,-4,-7,-11,-18,-6,19
1522257391530259,-24,-26,-2,4,11,-7,2,-13
1522257391530259,10,3,3,-3,-4,12,5,16
1522257391539285,-37,-20,-12,-7,-4,-5,-4,-5
1522257391539285,-23,8,8,5,1,0,-3,-3
1522257391554324,29,3,-8,2,-4,-2,-9,-10
1522257391554324,-21,-5,8,4,-3,-6,0,-7
1522257391555326,24,0,5,4,9,3,5,2
1522257391555326,-22,-15,-3,-6,0,1,-3,-4
1522257391576382,35,17,0,-4,-46,-2,8,19
1522257391576382,-54,20,7,8,50,0,-2,-5
1522257391578387,9,-6,6,1,5,6,1,5
1522257391578387,-28,24,0,0,-6,2,-1,-14
1522257391590419,-49,-30,-11,-9,0,-2,-3,-1
1522257391590419,96,7,-9,-3,-11,-4,3,5
1522257391599443,19,16,6,-2,-7,-3,-1,9
1522257391599443,10,-6,-3,-1,15,4,-2,3
1522257391613481,-60,-26,6,7,-9,9,5,-8
1522257391613481,68,27,3,1,10,2,1,4
1522257391615486,39,-17,-9,-6,1,-13,-2,-5
1522257391615486,7,-20,3,1,-9,-4,5,3
1522257391636542,3,0,-5,-6,-26,-3,-5,-3
1522257391636542,23,-21,-8,5,7,-3,0,0
1522257391637547,-32,40,23,12,10,3,7,-19
1522257391637547,106,-39,-30,-25,-48,-7,-12,32
1522257391649577,-92,0,0,2,55,12,2,-3
1522257391649577,-21,-7,2,1,-11,-5,-3,-3
1522257391658601,-62,-14,-3,2,5,2,-8,-17
1522257391658601,46,15,4,3,3,2,5,-3
1522257391673640,-2,15,2,-1,-1,-5,4,5
1522257391673640,-54,22,2,-2,3,3,-2,2
1522257391675646,-6,-10,-2,2,6,3,4,-1
1522257391675646,-7,-11,-1,3,2,-3,0,-6
1522257391696702,25,1,-6,-6,-8,-22,-8,11
1522257391696702,-19,-22,1,1,-10,13,0,-2
1522257391697704,4,9,-4,-1,-14,-4,-4,3
1522257391697704,-49,-22,4,11,25,1,8,-9
1522257391709736,-106,-1,10,10,-6,22,7,-8
1522257391709736,85,16,-17,-18,-19,-21,-13,35
1522257391718760,-67,-15,-8,-14,4,-8,-7,-11
1522257391718760,19,10,-1,6,-5,3,5,-6
1522257391733800,-113,15,8,6,12,-8,1,-35
1522257391733800,106,31,-1,-2,0,9,8,29
1522257391735806,-62,-43,-9,-8,-1,5,-11,4
1522257391735806,-34,0,4,-3,-14,-20,-4,-12
1522257391756862,37,9,0,6,53,15,-4,11
1522257391756862,11,-7,3,0,-1,19,3,-16
1522257391757864,-9,14,-4,-5,-17,-4,1,4
1522257391757864,31,11,-4,2,54,14,0,8
1522257391769896,31,-9,1,-2,-19,-15,-2,-2
1522257391769896,-23,-11,5,5,2,-9,-1,-19
1522257391778922,58,14,6,2,13,-9,2,5
1522257391778922,-59,-38,-14,-10,-33,7,-1,9
1522257391793960,29,-3,-7,6,34,4,-3,8
1522257391793960,-67,-16,-3,-2,6,-3,-2,-16
1522257391795966,-45,64,20,6,-11,0,0,-9
1522257391795966,93,-11,-4,-2,-11,-9,2,26
1522257391816019,42,-3,-2,-1,-8,-3,0,7
1522257391816019,-39,-21,-4,-1,-1,1,1,-5
1522257391818024,-118,-23,-1,7,-13,8,2,-24
1522257391818024,63,42,-4,-11,0,-5,-4,19
1522257391830056,-36,-16,-4,-18,-51,-13,-3,0
1522257391830056,20,3,1,10,77,7,3,11
1522257391839080,-60,-9,1,9,-10,13,1,-13
1522257391839080,49,30,8,9,5,13,-3,-6
1522257391853117,-30,-44,-19,-12,-23,-5,1,10
1522257391853117,-5,0,-2,-15,-36,-14,-5,-8
1522257391860137,24,-9,-7,-9,2,-8,0,10
1522257391860137,-37,-4,11,18,24,1,-1,-35
1522257391876179,41,56,14,5,15,-4,-3,11
1522257391876179,-68,-74,-23,-13,-55,-9,-7,6
1522257391878184,44,-25,-13,-10,9,11,-1,13
1522257391878184,-49,1,7,-4,-9,-5,-5,-22
1522257391899241,48,30,12,3,8,3,1,-4
1522257391899241,20,18,5,3,-2,-5,1,0
1522257391900243,21,-4,-5,-5,-10,-5,-2,7
1522257391900243,38,-24,-13,-4,-14,-1,-1,-14
1522257391913277,-33,101,40,21,16,8,8,4
1522257391913277,-106,-58,-20,-10,-6,-9,-8,-5
1522257391920296,61,-7,-3,-3,-1,-12,-5,1
1522257391920296,6,17,8,3,-6,12,4,4
1522257391936339,-41,-46,-10,-2,4,3,0,-4
1522257391936339,-37,14,2,-4,-10,0,-6,-22
1522257391938344,49,4,-3,0,9,4,2,8
1522257391938344,-72,-17,-5,-5,-8,-10,-1,-12
1522257391958397,-3,-19,-3,-1,24,9,2,-10
1522257391958397,109,50,9,-4,-22,-4,2,27
1522257391960403,-4,4,1,2,8,8,3,-3
1522257391960403,47,-6,-5,-6,1,-13,-1,22
1522257391973437,-47,-25,-15,-3,-18,-1,-4,-12
1522257391973437,-10,10,6,-3,-7,-5,3,-1
1522257391980456,72,28,9,14,-1,1,0,-3
1522257391980456,-106,20,9,12,26,7,-1,-19
1522257391996498,112,5,-11,-13,-35,-22,-5,35
1522257391996498,-98,-38,-7,3,39,21,-1,-14
1522257391997501,8,32,16,-2,-1,-17,1,1
1522257391997501,-21,-31,-14,-9,-9,15,-7,0
1522257392018558,-4,-9,-5,-4,-5,-2,-3,-10
1522257392018558,19,18,4,7,-1,-1,3,-1
1522257392020563,-30,-30,-10,-7,5,-3,-2,-1
1522257392020563,19,26,7,5,-3,-7,6,3
1522257392033597,-10,-8,-5,1,5,1,-4,-21
1522257392033597,41,-28,-8,-7,-7,-7,-2,13
1522257392039613,-37,-12,-5,-1,-4,1,1,-3
1522257392039613,-3,6,-2,-6,-10,-11,-3,2
1522257392057661,-22,-24,-7,-4,-3,5,-4,-7
1522257392057661,13,24,0,6,-21,0,-1,-11
1522257392059667,-16,4,-1,5,22,5,0,3
1522257392059667,-13,-4,0,-3,-18,-2,1,12
1522257392078717,-47,15,12,9,42,10,0,-20
1522257392078717,60,11,2,8,22,-9,6,34
1522257392080722,9,3,-5,-9,-3,5,-5,-4
1522257392080722,48,15,4,-1,-1,-4,1,4
1522257392092754,-36,-47,-8,-8,-11,1,-2,-11
1522257392092754,-75,26,4,5,-7,5,3,-10
1522257392099773,26,-17,-8,0,0,-2,2,10
1522257392099773,-24,-22,1,3,8,2,-2,-3
1522257392116818,63,18,11,5,-13,-6,2,7
1522257392116818,-5,17,11,5,-3,-2,2,-9
1522257392117822,85,0,-13,-6,17,0,-3,26
1522257392117822,-14,1,-9,-3,-1,-2,-2,-6
1522257392138878,-2,-4,3,-4,-7,-4,-5,6
1522257392138878,-41,-11,-3,2,2,0,-4,-8
1522257392140882,-31,-12,0,2,-23,0,0,-6
1522257392140882,38,9,-2,1,4,0,-1,7
1522257392152914,-5,13,-1,-3,5,-1,2,1
1522257392152914,30,-8,0,-3,0,-1,-6,-19
1522257392161938,-49,-23,3,-2,-16,-17,-3,-6
1522257392161938,71,25,-1,-1,10,9,5,10
1522257392175975,24,-18,-13,-7,-12,-2,-2,8
1522257392175975,-34,-27,0,-3,-9,-1,-4,-4
1522257392177981,6,-2,-2,1,-1,4,-2,-8
1522257392177981,-57,-14,0,-1,2,-6,3,-8
1522257392199037,22,17,1,0,-1,0,4,4
1522257392199037,32,-14,-6,0,1,-9,-4,-1
1522257392200039,26,15,4,-1,6,19,-5,0
1522257392200039,-22,18,8,1,44,0,1,6
1522257392212071,-13,-13,-7,-9,-51,-12,-4,-4
1522257392212071,-13,7,-5,4,14,12,-1,-6
1522257392221095,-3,-16,-4,-4,-10,-6,2,-4
1522257392221095,0,-18,5,7,-5,4,2,-13
1522257392236135,95,60,1,-2,14,-4,4,41
1522257392236135,18,-6,1,-4,-12,-11,-9,-16
1522257392238141,-42,7,4,4,9,-2,-1,1
1522257392238141,-18,-12,-1,0,-5,3,-3,-9
1522257392259197,-54,-10,-7,0,-1,-3,2,-10
1522257392259197,72,-3,4,2,3,5,0,-11
1522257392261202,95,13,-11,-8,1,2,5,42
1522257392261202,-67,-1,-7,-13,3,-17,-4,-3
1522257392272231,-7,-23,-1,7,-35,8,0,-8
1522257392272231,-18,10,3,0,6,1,1,1
1522257392281255,-20,5,1,-2,-2,0,-2,-17
1522257392281255,41,6,-4,0,1,3,-2,4
1522257392296295,-59,-13,1,-5,-1,-4,-4,5
1522257392296295,51,10,0,-2,-13,-17,-2,4
1522257392298300,-128,-13,1,7,21,26,-1,-22
1522257392298300,69,3,-1,-1,-25,-4,2,11
1522257392318354,29,14,0,3,24,10,-1,-23
1522257392318354,-1,7,-7,-15,-12,-11,7,38
1522257392320359,13,-10,-3,-15,-47,-17,-5,-3
1522257392320359,-27,-2,8,29,18,7,-2,-9
1522257392332391,-18,-6,1,4,10,-1,-3,-10
1522257392332391,-10,2,3,5,13,2,4,0
1522257392341415,74,26,4,-8,-20,-6,2,4
1522257392341415,-93,-44,-8,-13,-7,-3,-5,-7
1522257392356455,42,14,0,4,17,-3,-1,14
1522257392356455,-45,-6,0,-1,-8,-4,-1,-10
1522257392358460,-42,11,-1,8,18,21,3,-2
1522257392358460,-7,-1,-25,-13,-16,-9,-8,4
1522257392378514,-56,6,14,1,12,2,-4,-2
1522257392378514,31,-9,-6,-5,-4,5,0,6
1522257392380519,-54,-2,10,6,3,-18,-3,-17
1522257392380519,13,-11,-1,5,2,3,1,-3
1522257392392551,2,-8,-9,-6,-8,2,2,2
1522257392392551,10,11,2,2,0,4,-5,-7
1522257392401575,-21,-12,-8,-5,2,-7,0,-7
1522257392401575,62,18,7,-18,-50,-2,1,13
1522257392416615,36,-21,-1,17,39,-7,-3,-2
1522257392416615,-73,-11,4,5,8,20,1,-18
1522257392417618,95,18,0,5,-17,-15,3,23
1522257392417618,-93,-25,-4,-7,22,19,-1,-23
1522257392438673,83,23,-5,-11,-11,-3,4,34
1522257392438673,-83,-13,-10,-7,-12,-4,-3,0
1522257392440679,1,6,12,4,-4,-5,-3,-7
1522257392440679,-15,11,5,5,11,-7,-2,-10
1522257392452711,55,0,1,2,-5,0,-1,-14
1522257392452711,6,-3,-4,-9,6,-19,-2,5
1522257392461735,-27,-29,-16,-11,-9,12,-2,9
1522257392461735,26,8,4,7,0,-2,0,-5
1522257392476775,-56,-16,0,8,3,3,3,-3
1522257392476775,70,14,0,1,4,0,0,-5
1522257392477778,-46,-24,-5,-6,-2,-11,-5,-1
1522257392477778,72,11,6,-4,-7,-1,-2,3
1522257392498834,-26,-10,-3,-6,-1,3,3,2
1522257392498834,-3,32,11,1,-13,-1,2,-3
1522257392500839,-12,-11,-1,0,7,-10,-2,-12
1522257392500839,53,24,0,-2,-15,3,-2,15
1522257392512871,-22,-12,-4,0,17,6,-3,-11
1522257392512871,-74,-29,-8,2,5,0,-4,-6
1522257392521895,12,-2,5,1,-1,3,-1,-3
1522257392521895,41,24,5,10,29,-8,2,5
1522257392535932,-41,18,4,-6,-10,-2,-2,-3
1522257392535932,41,-1,-4,-1,-12,7,2,14
1522257392537937,-6,7,-2,10,48,2,-7,-15
1522257392537937,-42,-7,-1,-1,-17,-10,1,-6
1522257392558993,-17,-1,2,3,-6,10,8,6
1522257392558993,87,6,-7,-8,7,-10,-2,8
1522257392560999,29,-2,-2,-8,-17,9,0,10
1522257392560999,-14,-6,-2,0,-19,-1,-2,-4
1522257392572028,-8,-3,-1,-2,9,-4,-4,-9
1522257392572028,-29,5,6,2,-2,-4,-1,-11
1522257392581052,-55,16,15,7,-15,2,2,-6
1522257392581052,24,-11,-9,-2,19,1,0,9
1522257392596092,6,-13,-5,-4,-9,-9,-5,-8
1522257392596092,-93,9,-2,0,-6,5,0,8
1522257392598097,86,-8,-8,-6,4,-10,-6,2
1522257392598097,-54,-5,5,-1,4,5,1,-1
1522257392619155,-5,-11,-12,-8,-12,-10,-1,-3
1522257392619155,36,-20,9,10,30,6,2,-4
1522257392620156,36,40,9,6,2,5,1,-4
1522257392620156,-74,-10,-6,-1,3,-6,-3,12
1522257392632188,42,-6,-5,-8,-21,-4,-6,-4
1522257392632188,41,0,0,2,19,-4,-2,-1
1522257392641212,-18,-5,-5,-3,1,4,2,0
1522257392641212,69,-6,2,1,-1,0,0,-7
1522257392656252,-93,6,-4,-6,-12,0,-2,-2
1522257392656252,-7,-4,-9,-7,0,2,-4,-9
1522257392658257,64,15,-9,3,-5,0,-4,-5
1522257392658257,-22,-21,5,0,-10,-5,-4,-3
1522257392679313,-48,-6,5,6,8,-1,0,-3
1522257392679313,4,2,-3,-3,-37,-9,-1,-3
1522257392680316,-25,-31,-8,-5,17,0,3,-3
1522257392680316,14,21,2,-1,-5,0,4,-2
1522257392692348,37,1,-3,-3,0,-3,-1,4
1522257392692348,-8,3,5,0,-10,1,2,2
1522257392701372,-53,-6,2,3,-2,-5,1,-10
1522257392701372,25,45,2,2,3,-8,0,14
1522257392716411,-35,-39,-15,-11,-2,13,-1,11
1522257392716411,-36,15,-2,2,11,4,-3,-9
1522257392718417,-33,1,10,4,-5,1,4,11
1522257392718417,-35,-29,7,8,18,2,-1,-13
1522257392738472,18,29,7,4,-5,0,0,-11
1522257392738472,27,-9,2,0,-2,2,0,8
1522257392740476,41,5,-8,-6,4,-20,-1,4
1522257392740476,-15,-4,-5,-9,-37,10,2,1
1522257392752507,-16,-8,0,4,2,-1,2,-13
1522257392752507,94,17,-3,1,10,2,3,19
1522257392761532,-107,-38,-16,-12,-6,-14,-10,-6
1522257392761532,-16,2,12,3,-15,1,3,7
1522257392775569,36,14,-3,-2,3,-4,-6,-6
1522257392775569,-23,-5,5,1,-4,2,-2,-15
1522257392782588,-1,3,2,0,1,3,-3,0
1522257392782588,28,-12,-15,-9,-1,-4,-3,2
1522257392798630,-74,-28,-3,1,-1,-3,1,-5
1522257392798630,28,6,2,0,-3,-2,1,-3
1522257392800636,30,8,8,6,2,10,3,1
1522257392800636,3,5,-22,-14,-2,-14,-7,3
1522257392821691,29,14,2,1,0,3,1,2
1522257392821691,-11,-12,-6,-2,-3,-7,-1,9
1522257392822694,33,16,-2,-2,-29,1,0,-2
1522257392822694,-93,-4,10,11,48,8,2,-20
1522257392834726,99,25,5,3,2,-8,4,14
1522257392834726,-8,-32,-10,-9,-12,-3,-1,16
1522257392843750,-89,-22,-7,-11,-13,-3,-12,-28
1522257392843750,33,7,8,9,26,13,2,7
1522257392858791,13,-3,1,-2,6,-5,-3,-3
1522257392858791,-22,10,4,15,25,13,3,-5
1522257392860795,63,-3,-10,-2,1,-4,5,6
1522257392860795,13,12,1,-7,-16,-8,-8,-3
1522257392881851,-16,-35,-7,-4,8,10,-2,8
1522257392881851,-22,-1,4,-1,-3,-5,-2,-6
1522257392882854,8,7,4,5,-9,2,0,0
1522257392882854,-31,-11,-5,-2,-7,-6,0,-9
1522257392895889,-11,2,-2,-4,-9,-4,0,-1
1522257392895889,-47,-13,-10,-10,-7,-6,-6,-8
1522257392902907,62,25,7,1,1,-3,4,21
1522257392902907,43,-7,7,5,3,1,0,-6
1522257392918950,-47,-36,-6,-3,-35,-8,-5,-7
1522257392918950,10,-8,-7,-1,26,0,-1,-8
1522257392920955,-34,6,-3,0,4,-25,-1,-5
1522257392920955,19,-3,-5,-11,-6,24,-1,-13
1522257392941008,10,8,-1,7,20,8,-2,5
1522257392941008,-18,4,4,4,-10,6,2,-5
1522257392943014,44,-18,-8,-5,-4,2,2,-6
1522257392943014,0,6,3,-3,6,-12,-1,11
1522257392956048,-39,-11,-2,-5,-11,-10,-4,-4
1522257392956048,8,11,9,1,0,-2,-2,3
1522257392962064,-11,-3,3,7,10,4,-3,-9
1522257392962064,-42,-35,-14,-3,-21,-4,0,-11
1522257392979110,87,47,6,7,10,11,6,-2
1522257392979110,-21,-32,-26,-18,-19,-14,-11,1
1522257392980112,-61,-25,0,-3,1,3,-1,-7
1522257392980112,5,4,1,1,-11,-2,2,6
1522257393009189,-19,-9,3,-1,-2,-16,-1,-4
1522257393009189,36,16,4,5,36,17,4,1
1522257393010193,-6,11,3,4,21,10,0,5
1522257393010193,61,13,-5,2,1,0,-2,0
1522257393015205,-66,-38,-11,-18,-5,-21,-6,1
1522257393015205,-7,0,7,4,-34,-5,-3,0
1522257393022224,-8,0,-2,11,35,18,1,4
1522257393022224,12,7,3,5,9,-1,-1,3
1522257393039269,10,9,4,2,-5,5,-1,-4
1522257393039269,21,24,4,-6,-27,-3,4,6
1522257393040272,-31,-11,-1,-5,-11,-4,-2,0
1522257393040272,-23,6,0,3,7,2,2,6
1522257393061328,58,-1,-7,-5,-3,-6,-1,5
1522257393061328,-2,-7,1,-4,-2,-5,0,-6
1522257393063334,72,19,4,-5,-10,7,3,15
1522257393063334,-93,-8,0,2,16,-2,-2,-8
1522257393075366,-40,-7,-2,0,-5,3,-6,-20
1522257393075366,43,12,5,9,9,-3,1,11
1522257393082384,20,14,3,-2,-3,-4,-1,7
1522257393082384,1,-18,-6,-5,-10,-3,0,3
1522257393098427,43,11,10,7,6,8,1,-5
1522257393098427,1,-7,0,1,5,2,5,4
1522257393100433,-57,-21,-15,-14,-19,-12,-6,-11
1522257393100433,-12,32,9,3,4,1,3,3
1522257393121488,0,1,-4,-6,3,-14,0,1
1522257393121488,12,13,2,6,-62,16,1,0
1522257393123494,15,-6,1,6,36,5,3,6
1522257393123494,-24,8,-1,1,23,3,1,-4
1522257393134523,-45,3,0,1,-2,-8,-6,-7
1522257393134523,73,11,-2,-7,-2,1,-6,7
1522257393143547,-74,-13,-6,-6,-17,-4,-1,-4
1522257393143547,70,-7,-6,-4,-17,-3,-2,-2
1522257393158587,-99,24,7,6,13,7,6,5
1522257393158587,30,-25,-4,-4,14,-12,-3,1
1522257393160592,1,-7,-7,0,-4,1,-2,-3
1522257393160592,-45,-1,5,1,4,-2,-3,-1
1522257393181648,71,7,2,1,-10,2,6,11
1522257393181648,-70,3,-1,-2,5,-6,-1,-12
1522257393182651,-8,-1,-4,-1,-1,7,-1,-4
1522257393182651,23,1,-3,0,-17,-5,-2,2
1522257393194683,-50,5,1,1,0,5,-2,7
1522257393194683,-3,1,0,-1,-12,-4,0,2
1522257393203707,58,9,1,-1,10,-7,-2,-1
1522257393203707,-84,-26,-7,-5,-6,-4,-3,-9
1522257393218747,36,16,-1,-1,3,5,3,3
1522257393218747,-49,-21,-6,-2,6,3,1,-9
1522257393220752,7,7,9,1,-14,-9,-2,2
1522257393220752,89,25,-1,0,1,11,1,1
1522257393241808,35,-29,-7,5,7,6,-2,15
1522257393241808,-14,-13,-5,-6,5,-7,-3,-7
1522257393242811,-52,-5,-3,0,-3,3,-2,-11
1522257393242811,13,-1,3,-4,-4,-2,-2,-1
1522257393254843,18,8,4,-2,-15,-4,-1,-3
1522257393254843,-26,-5,1,3,10,2,0,0
1522257393263867,18,0,0,-3,-28,-2,-2,3
1522257393263867,8,0,5,2,16,0,3,4
1522257393278906,59,-22,-3,2,12,9,6,-22
1522257393278906,-62,25,-8,-11,-24,-13,-9,13
1522257393280912,90,22,3,-2,14,-3,-2,-3
1522257393280912,-75,-29,-10,-7,-38,-4,-1,6
1522257393300965,-38,-4,1,0,-26,-17,-6,-8
1522257393300965,18,0,4,12,41,29,10,-3
1522257393302970,-5,-14,-7,-4,-11,-1,2,7
1522257393302970,25,7,-3,-3,-1,-2,-1,6
1522257393315002,10,25,13,-5,-10,-3,0,5
1522257393315002,-11,-10,-3,-10,46,-29,-5,-9
1522257393324027,9,0,0,-7,-73,17,-1,6
1522257393324027,9,0,-9,2,29,4,-1,-4
1522257393339067,-1,-11,-6,15,31,13,5,2
1522257393339067,10,9,4,7,16,-3,2,1
1522257393340072,-107,-26,3,2,8,-5,-3,-28
1522257393340072,48,8,3,-2,-23,-5,2,11
1522257393361125,-63,11,0,-7,0,4,-5,-5
1522257393361125,113,29,0,-4,-30,1,1,22
1522257393363130,-22,1,1,-1,10,-9,-2,0
1522257393363130,-41,-13,3,-2,-9,1,0,-13
1522257393375162,45,-32,-21,-5,5,-5,-2,4
1522257393375162,-37,5,27,15,10,11,6,-27
1522257393384186,95,51,0,1,17,-2,3,40
1522257393384186,-11,-6,-1,0,5,-20,-7,-3
1522257393399226,-12,-13,-1,-2,2,21,1,-1
1522257393399226,30,-49,-10,-5,-13,-1,-6,-9
1522257393400229,-55,16,8,3,18,4,5,-5
1522257393400229,-7,27,-1,0,-5,-1,-3,-11
1522257393421285,5,4,3,0,5,-9,-2,4
1522257393421285,-38,-3,-3,-3,-46,0,0,-2
1522257393423290,5,-12,1,0,25,-14,-4,-3
1522257393423290,85,8,-11,4,15,19,3,0
1522257393435322,-84,-1,0,-8,-6,-4,-3,10
1522257393435322,-6,-1,1,0,3,-2,0,5
1522257393444346,8,-14,-1,-3,-2,-10,-2,-7
1522257393444346,12,-7,6,2,-18,-10,-2,1
1522257393459386,48,12,2,7,19,14,8,7
1522257393459386,-102,2,-8,-4,-4,3,-4,-14
1522257393460389,47,-34,-15,-6,2,-4,-2,3
1522257393460389,55,15,11,1,0,3,1,2
1522257393481445,-62,10,0,-2,0,-10,-8,-12
1522257393481445,0,-6,-4,-3,-13,-4,-2,0
1522257393483450,36,-2,0,3,-3,7,3,-1
1522257393483450,-63,-8,-2,-7,-13,-3,-1,-12
1522257393495482,20,14,4,2,0,0,0,2
1522257393495482,28,10,-1,-4,10,-3,-3,7
1522257393504506,-48,17,1,2,-1,2,-5,-17
1522257393504506,-31,-24,-6,0,4,-1,1,3
1522257393518543,117,6,-3,-3,-33,-9,-4,-1
1522257393518543,-67,-46,-10,-10,-13,-8,0,9
1522257393520549,27,-2,-1,14,79,27,2,1
1522257393520549,10,6,0,-8,1,-8,-5,1
1522257393541605,-24,2,4,11,3,0,0,-11
1522257393541605,31,-8,-2,5,20,-3,-1,-8
1522257393542607,-26,-4,0,-2,-27,-4,3,2
1522257393542607,-41,4,-3,-3,-3,-8,1,7
1522257393554639,12,-3,-5,-17,-67,-5,-2,3
1522257393554639,44,14,1,15,71,10,5,9
1522257393563663,-14,-4,2,1,15,-5,-3,-11
1522257393563663,-19,-13,-6,-2,-29,1,-2,3
1522257393578704,-26,-2,-3,-3,1,-5,0,2
1522257393578704,32,7,-4,3,-2,3,1,-1
1522257393580709,-13,-1,1,-3,-22,-5,-1,-4
1522257393580709,13,2,6,4,16,-8,2,1
1522257393601764,7,4,-2,-12,-3,11,-7,-14
1522257393601764,-31,8,6,3,-14,2,2,5
1522257393602767,45,-27,-12,-8,0,-9,-8,9
1522257393602767,-6,-4,-4,-5,-14,-20,-5,-11
1522257393614799,12,-19,-5,9,39,17,1,-2
1522257393614799,-28,26,4,0,-6,2,-4,-14
1522257393623823,36,-8,-5,-4,-23,-7,-4,1
1522257393623823,-7,-6,1,-4,6,5,2,9
1522257393638863,30,9,5,14,49,0,3,-4
1522257393638863,-28,-3,3,-5,-11,-1,1,2
1522257393640869,-13,5,-1,4,5,0,1,-2
1522257393640869,35,-24,-7,-3,-7,0,-4,-3
1522257393660922,-20,19,3,-1,-8,-6,4,4
1522257393660922,19,-8,-1,-1,-13,-2,2,1
1522257393662927,-13,5,-4,-2,-3,-1,-2,0
1522257393662927,25,-4,-1,4,8,13,1,-4
1522257393674959,-103,-11,-4,-5,-17,-21,2,-1
1522257393674959,59,11,1,1,5,11,-1,5
1522257393683983,-29,23,2,-5,-14,-3,-1,-4
1522257393683983,15,-14,-11,-3,-2,5,0,10
1522257393698020,-26,-15,2,3,20,-11,-3,-2
1522257393698020,51,2,-7,-6,-16,3,2,3
1522257393705039,-71,-5,6,2,0,2,2,-7
1522257393705039,17,24,8,1,4,3,3,2
1522257393721081,-6,-16,-2,0,3,-5,-2,0
1522257393721081,33,6,7,3,-4,-5,-3,-8
1522257393723087,127,61,10,4,6,2,1,25
1522257393723087,-128,-68,-24,-9,-1,-12,-12,-8
1522257393735119,-1,-21,-5,-2,-6,5,-2,2
1522257393735119,-9,-17,-10,-3,-20,-4,-4,-10
1522257393744143,-8,-8,2,7,22,7,7,-6
1522257393744143,23,20,8,2,2,2,4,-1
1522257393758180,32,6,-4,-5,-4,-1,1,4
1522257393758180,-7,1,4,-3,-6,-2,-2,0
1522257393765199,-23,-5,-1,-2,9,1,1,4
1522257393765199,36,21,10,2,12,1,-1,-3
1522257393781241,-46,-10,5,11,8,9,6,-4
1522257393781241,22,6,-11,-7,1,-14,-5,7
1522257393783247,22,4,-8,-13,-29,4,-4,4
1522257393783247,0,-27,-14,-1,36,2,-1,7
1522257393804303,21,26,6,3,-6,1,-1,-5
1522257393804303,-13,-16,9,7,-8,-2,2,-3
1522257393805306,-15,21,4,0,-4,-4,-1,-3
1522257393805306,0,20,7,3,-12,0,2,-2
1522257393818340,18,-18,-12,-10,-8,-7,-5,2
1522257393818340,-38,-11,-8,-3,8,-4,-2,-4
1522257393825359,26,7,1,5,-6,1,-1,-15
1522257393825359,8,11,18,10,4,8,6,21
1522257393841401,-36,-4,-5,-9,-10,-10,-11,1
1522257393841401,-49,-12,-3,-9,5,-9,-4,-5
1522257393843407,3,8,-2,-3,-15,2,2,-4
1522257393843407,11,-14,-7,1,11,4,4,-14
1522257393863460,8,12,-1,2,-4,7,3,5
1522257393863460,-16,-6,0,0,6,3,-2,3
1522257393865465,-26,-5,-2,-2,-11,-10,-5,-6
1522257393865465,18,-4,5,0,-9,-10,-5,1
1522257393878500,-3,11,2,-2,-2,-9,0,3
1522257393878500,13,-34,-10,2,2,27,1,-14
1522257393884516,60,15,-2,-1,0,0,3,16
1522257393884516,-42,1,-1,-6,-13,0,-5,-15
1522257393901561,19,25,5,3,-5,-9,-2,-9
1522257393901561,-38,-28,-7,-4,-3,-11,-5,-3
1522257393902567,-71,-45,-8,3,13,-2,-5,-12
1522257393902567,88,51,17,4,-13,2,1,11
1522257393923620,-39,-8,-6,-6,-8,-1,-1,-3
1522257393923620,74,29,2,-1,-1,-5,3,9
1522257393925625,-7,-37,5,2,16,5,1,-17
1522257393925625,-84,26,-10,-4,-7,-11,-2,6
1522257393938663,58,11,5,4,-12,0,0,0
1522257393938663,-39,-9,-6,-3,4,9,-3,3
1522257393944676,56,-8,-5,-8,-15,-5,-7,-3
1522257393944676,-38,-6,0,-4,7,-1,2,-1
1522257393961721,21,-18,-3,-1,3,5,1,2
1522257393961721,-101,-6,3,2,3,-8,1,-10
1522257393962724,60,54,13,1,-4,-5,0,3
1522257393962724,20,12,4,6,-6,6,0,-2
1522257393983780,40,-39,-8,-4,-8,-16,-5,7
1522257393983780,-47,13,7,12,32,19,6,-3
1522257393985785,-21,-49,-13,-6,-4,-2,4,0
1522257393985785,19,-7,-8,-3,4,3,-3,-10
1522257393997817,-49,-19,-4,-6,-8,-3,-1,3
1522257393997817,35,8,0,1,13,-8,-4,-5
1522257394004836,-17,6,4,6,-1,-10,1,-3
1522257394004836,70,-19,-9,1,14,16,1,3
1522257394021881,-32,43,3,5,7,9,1,4
1522257394021881,14,9,-4,-10,-15,-7,-1,15
1522257394022884,-31,-5,-4,-6,-2,-3,-3,-2
1522257394022884,-44,-26,6,3,-15,-12,-6,-14
1522257394043939,19,-2,4,7,22,7,4,-9
1522257394043939,-13,-3,-7,-2,-4,-4,7,6
1522257394045945,-27,-10,-1,-2,-19,4,-4,-19
1522257394045945,37,50,0,-20,-6,-3,1,23
1522257394057977,11,-7,-12,-86,-29,3,-4,2
1522257394057977,18,0,15,68,27,-3,-5,-7
1522257394067001,-37,-4,-18,12,24,-7,1,3
1522257394067001,0,10,16,27,-6,-7,-1,-9
1522257394081038,-49,-43,-7,-29,28,22,6,-8
1522257394081038,92,78,1,-48,-94,-16,-3,15
1522257394083044,-113,-32,-2,-46,39,10,3,11
1522257394083044,-25,3,3,90,14,0,-6,-7
1522257394104100,4,14,2,19,-7,-15,-4,-8
1522257394104100,-18,-23,-3,3,10,3,3,-7
1522257394105102,63,29,11,-7,-32,-2,-2,2
1522257394105102,-7,-29,-15,-47,-8,-7,-3,4
1522257394117134,-2,-14,-4,13,19,0,3,-2
1522257394117134,25,1,-12,-5,-5,-2,-8,-9
1522257394126158,21,32,29,11,-12,1,4,9
1522257394126158,-6,-26,-11,-24,1,-12,-1,-10
1522257394141198,41,18,4,26,-4,15,-1,8
1522257394141198,-41,2,-9,-18,6,2,-1,-4
1522257394143203,1,-7,-3,7,12,-3,2,2
1522257394143203,-24,-8,6,-3,-47,-5,3,-9
1522257394164259,4,2,-2,9,10,4,2,-4
1522257394164259,-40,-9,4,-11,-32,-22,-1,1
1522257394165262,53,-17,-21,-54,49,16,-6,14
1522257394165262,-30,2,-3,26,1,2,-4,-5
1522257394177294,56,15,8,66,25,-2,-2,4
1522257394177294,5,-5,4,10,17,8,1,-7
1522257394186318,-121,-8,5,24,-25,-6,-2,-12
1522257394186318,7,7,-18,-46,-14,-4,-3,5
1522257394201358,40,7,2,-16,0,-5,0,9
1522257394201358,0,-11,1,-2,18,2,-3,-2
1522257394203364,-22,-6,-5,-9,-34,-6,3,9
1522257394203364,29,34,15,7,10,-2,3,-4
1522257394223417,-34,9,-3,6,-12,1,2,-6
1522257394223417,-4,-7,21,5,9,8,1,-12
1522257394225422,55,-27,-19,-11,-10,-6,-6,15
1522257394225422,-127,-33,-10,-8,15,8,-2,-18
1522257394237454,100,23,2,2,-11,-9,-3,2
1522257394237454,67,-10,-20,-16,-1,1,2,1
1522257394246478,-30,-7,4,15,1,-7,-3,-5
1522257394246478,-1,2,4,5,16,6,-3,4
1522257394261518,-59,-22,-1,-12,-22,-6,-6,-15
1522257394261518,-9,6,0,0,20,8,3,-2
1522257394262521,75,-10,-6,10,-8,-11,1,-7
1522257394262521,3,35,-2,-14,-26,0,7,30
1522257394283576,-19,-2,-2,-15,-7,-5,-5,-7
1522257394283576,-78,10,4,-5,-5,0,-3,-10
1522257394285582,88,-19,-2,23,4,13,5,10
1522257394285582,30,-24,-2,-11,28,-2,4,6
1522257394297614,-80,-4,-9,-11,-12,-3,-3,-1
1522257394297614,1,-9,2,7,-2,-7,-4,-12
1522257394306638,-26,49,16,1,-2,-10,-2,3
1522257394306638,76,-17,-8,-2,22,20,-3,7
1522257394321678,-5,3,0,13,3,3,2,2
1522257394321678,27,-15,-4,3,-10,1,-1,1
1522257394322681,-26,45,11,5,-1,2,4,-9
1522257394322681,-22,-36,-7,-6,-3,-6,-1,-4
1522257394343736,-17,7,-3,-5,24,-12,-1,7
1522257394343736,-9,10,-4,-13,-36,-4,-3,-1
1522257394345742,-41,11,-1,-6,15,3,-3,-10
1522257394345742,76,5,1,3,-21,-18,-4,-10
1522257394357774,-45,-20,-10,-52,-67,17,-4,-2
1522257394357774,90,-30,-4,69,48,-3,-1,13
1522257394366798,-101,0,1,0,-8,-7,-1,-3
1522257394366798,23,27,-3,-2,42,9,-5,12
1522257394381838,-8,9,3,5,-6,-7,4,-7
1522257394381838,37,18,0,-12,-14,0,3,10
1522257394382840,-107,-35,-1,5,-10,5,0,-15
1522257394382840,59,4,2,-1,-11,-13,-1,11
1522257394403896,36,6,3,-2,6,7,1,7
1522257394403896,-78,-6,-20,-30,-3,1,-2,1
1522257394405902,52,-4,15,19,13,0,-3,-11
1522257394405902,24,26,7,-1,-11,4,3,-1
1522257394417934,-16,-31,0,10,18,-6,-2,4
1522257394417934,-9,-7,5,-7,-8,-14,0,-2
1522257394426958,3,-2,-7,2,36,29,1,-2
1522257394426958,8,-1,-1,-4,-5,4,0,-21
1522257394440995,12,-3,1,12,7,4,1,6
1522257394440995,-59,2,1,-8,-31,-12,3,-5
1522257394443000,102,4,-4,2,16,-7,-2,12
1522257394443000,-95,-9,-2,-4,-9,3,-1,0
1522257394464056,108,31,2,9,35,-10,-3,-10
1522257394464056,-122,-18,1,-13,-52,4,-1,9
1522257394465059,41,-17,-14,-8,-16,-6,-5,0
1522257394465059,8,25,5,-1,-17,0,3,2
1522257394478093,92,26,7,-3,3,-2,0,4
1522257394478093,-57,-30,-9,2,13,-4,-8,-19
1522257394486115,-3,17,8,11,5,26,7,-8
1522257394486115,-74,-10,-5,1,9,-16,1,10
1522257394501155,-54,-15,-6,-5,-20,8,-3,-9
1522257394501155,58,16,7,-1,21,0,-2,-2
1522257394503160,36,24,-2,-5,-5,-12,1,14
1522257394503160,2,17,7,-7,-17,-1,-4,-1
1522257394524216,-39,-12,3,5,0,-2,-2,-5
1522257394524216,-17,9,7,-9,1,5,4,-2
1522257394525219,69,-6,-8,1,8,-7,-3,14
1522257394525219,-24,-7,-7,2,-1,3,-1,-9
1522257394537250,-73,1,5,0,-15,-7,-4,-4
1522257394537250,-32,-12,-8,3,37,3,-5,-6
1522257394546275,-60,-15,-6,-12,-24,-8,0,-1
1522257394546275,2,-14,-2,2,0,0,-3,-10
1522257394562317,70,1,-3,5,9,-14,2,8
1522257394562317,-19,15,2,7,25,22,5,3
1522257394567330,-41,4,-8,-7,-13,-8,-7,-3
1522257394567330,58,-26,-4,-6,12,-1,-6,-7
1522257394584376,-41,32,13,0,-10,-1,2,1
1522257394584376,-11,-16,3,1,-12,-6,-1,-7
1522257394585378,43,14,-1,-7,-35,-5,1,9
1522257394585378,-117,-45,-10,17,78,21,6,-5
1522257394597410,34,21,-4,-3,-4,-2,-2,-11
1522257394597410,38,17,9,-1,9,1,1,12
1522257394606435,-74,10,4,4,4,-10,-2,-15
1522257394606435,-27,-13,-1,-7,-27,-7,-4,-8
1522257394620472,41,-13,-7,2,8,5,2,0
1522257394620472,36,2,-2,-3,12,-6,-1,3
1522257394627490,-24,-12,-11,-1,-16,8,-7,3
1522257394627490,37,11,12,4,-9,-3,-4,-3
1522257394643533,-47,-26,-10,-20,-1,-3,-1,5
1522257394643533,40,6,-4,-35,-27,-17,-5,0
1522257394645539,-37,3,7,29,32,3,0,-15
1522257394645539,-52,-4,-1,22,-5,1,1,-9
1522257394657570,65,36,4,2,0,-7,3,16
1522257394657570,15,-44,-12,-6,-17,-1,-4,10
1522257394666594,-12,-20,-2,-30,-52,-4,0,-5
1522257394666594,-24,2,-4,6,58,7,2,7
1522257394680632,-3,-9,4,11,21,-8,2,-10
1522257394680632,-77,1,2,4,-9,17,4,-4
1522257394687650,106,12,-10,-8,-4,-8,-4,22
1522257394687650,-58,2,-5,-16,-27,-6,-3,-3
1522257394703693,-31,-10,3,3,-20,-1,-2,-4
1522257394703693,49,19,3,9,12,-5,-1,2
1522257394705698,-94,-24,-1,3,12,1,0,-22
1522257394705698,59,4,-4,-10,-20,-7,1,16
1522257394726755,-27,-1,-5,-28,1,2,2,9
1522257394726755,38,-14,-17,-80,-53,-22,-6,-7
1522257394727757,-47,21,26,92,95,26,7,-2
1522257394727757,-2,27,7,8,-24,-13,-1,3
1522257394740792,-41,-34,-4,19,-1,18,-2,-6
1522257394740792,29,-17,-13,2,-1,0,1,1
1522257394747810,-25,57,5,-45,-28,-2,3,-1
1522257394747810,80,13,14,3,-3,-13,6,41
1522257394763853,-72,-22,-5,14,-8,8,-8,-10
1522257394763853,33,34,13,7,16,1,-1,0
1522257394765858,4,-39,-17,-11,14,-3,-1,-5
1522257394765858,19,-10,2,8,0,8,-1,-29
1522257394785912,41,9,-7,-14,-20,-10,-2,16
1522257394785912,-40,-7,-3,9,3,1,-1,4
1522257394787917,19,-6,0,-1,-14,-4,-3,3
1522257394787917,21,-12,-3,-13,-11,-2,-3,-14
1522257394800951,-11,-12,1,-7,6,-1,1,-4
1522257394800951,-24,27,6,24,34,8,2,3
1522257394807970,12,-16,-8,-13,-5,-8,-5,-3
1522257394807970,-45,-8,-8,-13,-8,2,-2,-11
1522257394824013,24,-16,-5,5,6,-16,-2,-5
1522257394824013,110,44,13,17,0,13,-2,13
1522257394826019,-73,-40,-8,-17,-32,-24,-1,3
1522257394826019,-27,-3,-6,-9,25,31,2,-6
1522257394846071,95,40,2,-33,-11,2,2,15
1522257394846071,-26,-25,8,94,15,-9,-1,-17
1522257394848077,-34,-37,-12,-25,12,2,-8,-7
1522257394848077,24,-20,-6,20,-21,-7,-2,-5
1522257394861111,-47,20,7,6,20,4,1,4
1522257394861111,58,21,6,-25,-20,1,0,-1
1522257394867127,-18,-6,1,7,28,-1,-2,-2
1522257394867127,26,4,-4,-8,-8,-8,-5,-4
1522257394884172,-17,-16,-12,-8,-10,0,-5,-13
1522257394884172,4,4,-1,-10,-2,-8,4,8
1522257394885175,9,8,3,5,-18,1,3,-1
1522257394885175,2,0,2,-13,0,1,-2,-5
1522257394906231,59,8,5,14,5,-1,1,-2
1522257394906231,-118,-42,-11,-11,-2,0,-4,0
1522257394908237,92,25,6,-3,-12,-6,0,7
1522257394908237,-97,9,10,4,7,8,3,-12
1522257394920269,-22,-46,-7,11,0,-11,-3,-13
1522257394920269,76,-11,-7,-6,11,12,-1,0
1522257394927287,-64,-29,-15,-14,-16,8,-3,-2
1522257394927287,39,13,-3,-4,-5,-13,-3,7
1522257394944332,-42,-9,8,8,-3,0,1,-8
1522257394944332,46,13,2,-8,0,-1,2,0
1522257394945335,-34,11,1,2,-4,-6,-1,-10
1522257394945335,-51,-6,1,3,4,3,2,-7
1522257394966391,41,-7,-12,-7,-14,-2,0,14
1522257394966391,-19,15,1,-2,37,1,-1,0
1522257394968397,6,18,4,4,-6,-2,7,2
1522257394968397,-3,14,5,3,-8,2,3,5
1522257394980430,46,16,-4,-3,4,3,-1,0
1522257394980430,-91,-8,8,-2,-10,-6,-3,-5
1522257394987447,34,5,-3,-16,-31,-12,-5,-5
1522257394987447,-39,-5,3,11,78,10,1,2
1522257395003490,-13,3,-4,19,9,9,-2,5
1522257395003490,73,-9,-11,-4,-12,-1,-4,-15
1522257395005495,-34,13,1,0,17,5,-1,2
1522257395005495,69,-14,-5,-12,-36,-15,-5,12
1522257395026551,-50,-16,-3,-4,0,5,-5,-11
1522257395026551,-16,-3,0,3,6,3,2,-5
1522257395027554,25,3,3,1,-5,1,2,5
1522257395027554,22,0,-5,-4,-15,-7,-1,-2
1522257395039586,-64,-14,-2,-5,1,-3,-2,-2
1522257395039586,40,10,4,-3,-33,-4,-4,4
1522257395048609,34,7,2,3,18,0,-1,0
1522257395048609,94,2,-4,0,-5,-1,3,12
1522257395063650,-84,-15,-2,-3,-13,-3,-2,-3
1522257395063650,-4,5,-6,-3,-3,-13,2,-4
1522257395065655,-7,7,5,6,-3,14,2,0
1522257395065655,-33,4,-2,-1,-1,3,-7,-1
1522257395086711,50,-48,-8,-5,-5,-2,-3,-9
1522257395086711,-50,49,10,3,4,-5,-1,2
1522257395087714,45,-2,-5,2,1,-4,1,5
1522257395087714,-30,-20,3,0,-2,-1,1,-9
1522257395099746,-65,16,5,0,3,1,7,-2
1522257395099746,83,-5,-7,-4,-42,-2,-1,20
1522257395108770,-84,-34,-7,-3,11,-16,-7,-11
1522257395108770,56,-2,-10,-13,-10,15,3,2
1522257395123809,-73,28,7,11,13,-13,1,-21
1522257395123809,-78,-29,-11,-12,1,5,-6,-2
1522257395125815,-17,41,7,2,8,9,3,9
1522257395125815,-55,-23,-8,-4,-10,-9,-4,-7
1522257395146871,-11,6,9,0,-3,1,-1,-3
1522257395146871,11,17,7,2,16,-4,0,-4
1522257395147874,62,-1,-2,3,-7,-2,-4,4
1522257395147874,-68,-11,-8,-6,-19,-3,-1,0
1522257395159905,28,15,3,2,14,1,0,4
1522257395159905,60,9,-3,2,3,-3,0,9
1522257395168930,10,0,12,2,-16,4,-2,-10
1522257395168930,-32,-13,-3,-2,-3,-5,-5,-10
1522257395183969,4,-2,-5,-8,-7,2,-1,5
1522257395183969,-21,-25,-5,0,11,1,1,-6
1522257395185975,34,9,1,1,-10,2,2,3
1522257395185975,-28,8,7,3,13,-9,3,-3
1522257395206028,73,25,-4,1,-5,5,-3,8
1522257395206028,-117,-41,-14,-13,6,10,-11,-17
1522257395208034,106,6,3,-3,-12,-7,1,11
1522257395208034,-54,-15,-4,-9,-31,3,-3,-7
1522257395220066,61,10,5,15,72,5,3,7
1522257395220066,-69,21,5,4,3,-3,6,2
1522257395229089,-13,-43,-22,-4,-3,-1,-7,-11
1522257395229089,17,29,9,3,3,-8,-3,7
1522257395244129,43,16,7,0,-20,1,3,-2
1522257395244129,6,7,7,13,-3,1,5,0
1522257395245132,-74,-2,-3,-1,15,2,6,-9
1522257395245132,127,20,0,3,3,1,5,7
1522257395266188,-45,1,-15,-18,-21,-11,-10,11
1522257395266188,-33,8,7,-16,-13,-3,-3,-6
1522257395268193,-26,-6,4,-6,14,4,-3,-8
1522257395268193,-2,4,8,41,9,-7,4,-8
1522257395280225,52,-8,-1,8,-7,21,2,1
1522257395280225,37,-7,-3,4,8,-11,0,-8
1522257395289249,17,-3,-5,-15,-34,-2,0,15
1522257395289249,-31,2,-5,-18,8,-6,-1,5
1522257395304289,-50,-11,-3,-7,-11,-13,-5,-5
1522257395304289,11,-16,-1,4,-3,7,3,-11
1522257395305292,-16,4,8,7,5,-8,1,-13
1522257395305292,38,-9,-9,-10,7,20,-3,22
1522257395326348,-44,-2,-2,-8,-17,-13,-3,0
1522257395326348,53,26,11,4,3,0,-1,-3
1522257395328353,-39,-43,-7,8,9,-1,-3,1
1522257395328353,-44,-10,0,0,-5,-7,-3,-13
1522257395340388,53,3,0,-5,7,4,3,-4
1522257395340388,-77,-2,-1,-1,-7,3,-1,2
1522257395349409,20,32,7,5,6,-1,3,4
1522257395349409,25,-16,-12,-11,-1,-2,2,5
1522257395363446,-82,-10,0,-5,-5,-3,-3,-3
1522257395363446,45,8,-6,-6,-6,-17,-2,9
1522257395365452,15,4,2,12,24,13,4,2
1522257395365452,35,17,7,5,22,7,2,0
1522257395386508,-32,-9,-2,2,2,1,2,-7
1522257395386508,60,1,0,4,-2,4,3,8
1522257395387510,-97,-46,-15,-13,-10,-21,-7,-5
1522257395387510,36,13,-1,-5,1,10,-8,1
1522257395399542,61,-12,1,2,-8,1,-2,0
1522257395399542,-35,17,5,5,13,2,4,3
1522257395408566,25,4,-4,1,-19,-11,-1,-3
1522257395408566,-6,-6,1,0,11,6,2,-8
1522257395423606,-46,14,0,-3,-50,0,2,6
1522257395423606,36,-10,-10,-3,44,3,-5,4
1522257395425612,-9,-9,1,-3,-4,2,-4,-3
1522257395425612,-16,-2,4,2,-12,-9,1,-1
1522257395446667,48,7,5,-9,2,-2,1,-6
1522257395446667,-81,2,6,17,-5,-4,2,-8
1522257395447670,60,25,-8,-6,-5,19,1,16
1522257395447670,39,7,-5,-5,-7,-22,-10,-7
1522257395459702,-34,2,6,8,18,19,0,-3
1522257395459702,-32,-23,-8,-8,-17,-4,-1,-2
1522257395468726,33,-6,-1,-4,3,-2,-1,0
1522257395468726,-51,8,-3,-4,-16,-4,1,-1
1522257395483766,25,4,-2,-3,13,-8,-2,1
1522257395483766,22,-4,0,0,0,1,3,-2
1522257395485772,-56,7,-3,-5,-9,-2,0,4
1522257395485772,-17,-8,1,1,-11,7,-1,-1
1522257395506827,24,-2,2,3,12,-9,-6,-4
1522257395506827,-9,20,-6,-6,-23,6,-3,2
1522257395507830,19,-7,-2,2,9,-4,-2,-9
1522257395507830,-10,-19,-4,-2,1,1,-1,-4
1522257395519862,19,12,-1,2,6,-2,-1,6
1522257395519862,124,-13,2,-17,-36,-43,-1,12
1522257395528886,-44,25,-4,15,27,37,-10,-21
1522257395528886,-36,3,2,2,2,12,3,5
1522257395543926,-14,-17,-6,-3,1,3,-7,-14
1522257395543926,40,13,5,0,-1,1,-2,-5
1522257395545931,6,-34,-1,-5,-7,-17,1,1
1522257395545931,-17,-7,2,0,13,-4,1,-4
1522257395565984,11,-5,-4,-4,-28,0,5,6
1522257395565984,-49,-6,-5,4,17,4,-2,-12
1522257395567990,-19,-25,5,-3,-13,-7,-2,-13
1522257395567990,34,13,-10,-7,1,0,-3,20
1522257395580022,-23,6,4,-7,-9,-10,-4,-2
1522257395580022,-27,-23,-4,-3,1,8,-3,0
1522257395589046,6,19,2,2,3,4,1,-4
1522257395589046,36,0,-3,-1,-6,-7,3,-3
1522257395603084,-20,-13,-5,-2,4,-2,3,1
1522257395603084,20,-23,-16,1,11,8,-3,-3
1522257395610102,-3,82,49,18,6,-1,10,18
1522257395610102,84,18,0,-2,-4,-2,-2,14
1522257395626145,-2,-28,-13,-5,5,9,-5,-8
1522257395626145,-9,-19,-2,0,1,12,4,14
1522257395628150,20,-4,-13,-13,-23,-10,-5,-1
1522257395628150,-40,-6,6,3,2,-4,-3,-12
1522257395640182,6,2,6,5,6,-1,2,7
1522257395640182,4,6,0,-3,-2,-6,3,0
1522257395649206,8,-27,-11,-1,6,2,-3,0
1522257395649206,-39,-2,2,6,2,-1,1,-11
1522257395663243,-8,29,27,22,32,13,7,-3
1522257395663243,79,64,-7,-6,-14,-11,-8,27
1522257395670261,-40,-25,-12,-13,-11,-13,-5,-4
1522257395670261,-71,-40,-11,-4,-5,2,-6,-11
1522257395686304,-5,-14,-5,0,9,4,2,-4
1522257395686304,-31,3,14,7,4,5,4,-10
1522257395688310,41,9,2,-2,4,4,3,9
1522257395688310,10,3,-1,-5,-9,-7,3,1
1522257395709366,4,3,-5,-2,-9,-9,-4,0
1522257395709366,5,-20,-1,2,5,7,1,0
1522257395710368,-25,16,-6,-1,3,-3,-3,-8
1522257395710368,12,-7,1,2,-1,1,-1,-5
1522257395723403,-21,9,-2,-4,-8,-5,-6,-3
1522257395723403,-128,-41,-11,-1,-4,4,2,-7
1522257395730421,71,14,-5,-4,-6,6,-5,16
1522257395730421,10,7,8,1,1,-1,2,2
1522257395746464,20,0,-1,-3,-4,-2,-1,2
1522257395746464,43,35,7,1,0,-4,-3,-19
1522257395748470,-6,-34,13,8,8,2,9,10
1522257395748470,-1,34,-4,-6,-10,-13,-1,22
1522257395768523,-59,-58,-18,-9,0,3,-8,-3
1522257395768523,2,10,-1,-1,-3,-1,-7,-19
1522257395770528,-82,6,-4,2,1,0,-2,-9
1522257395770528,73,15,0,4,4,3,0,-1
1522257395783563,-13,-17,-4,-6,-6,-10,0,-1
1522257395783563,-13,4,2,1,-25,1,-2,-3
1522257395789579,18,-13,-8,3,13,1,1,1
1522257395789579,-20,-13,-3,-6,-7,0,-2,-10
1522257395806624,-45,25,8,3,-4,-5,3,2
1522257395806624,80,-18,0,-1,11,12,1,5
1522257395807627,-21,-14,-3,-1,-2,-5,-6,-5
1522257395807627,51,5,-3,3,0,8,1,9
1522257395828683,-45,15,-1,-1,-1,-6,0,-3
1522257395828683,0,-7,4,2,8,-6,0,13
1522257395830688,36,6,5,2,-15,-4,3,-3
1522257395830688,-34,-12,-1,-3,7,-6,0,-4
1522257395843723,19,-14,-3,-2,1,17,-3,-14
1522257395843723,-3,48,9,0,2,-6,-4,3
1522257395849739,-6,-27,-13,-14,-6,0,0,7
1522257395849739,-40,-31,-1,0,-6,-2,-5,-13
1522257395866784,66,11,0,10,12,-7,0,6
1522257395866784,-79,-21,-4,1,-2,5,1,-7
1522257395867787,42,0,-2,-2,6,-2,0,0
1522257395867787,18,27,1,-4,-7,-1,-1,5
1522257395888842,-3,-3,2,0,-6,-3,3,3
1522257395888842,-22,-20,-8,-2,8,-2,-1,-7
1522257395890848,41,19,2,0,-7,1,4,1
1522257395890848,-68,-20,-13,-6,0,-4,-6,-13
1522257395902880,-1,-4,-10,-2,-2,2,-4,-9
1522257395902880,4,11,10,-3,-8,-5,1,10
1522257395909899,62,1,2,3,-6,-19,-5,-4
1522257395909899,-33,-4,2,1,3,5,-1,-7
1522257395925941,44,24,6,4,7,18,5,2
1522257395925941,-77,-73,-21,-8,-6,-6,-5,-12
1522257395927946,35,12,-5,-8,3,-7,-1,10
1522257395927946,-18,-2,0,0,-16,-6,-3,-1
1522257395949002,6,-3,-3,-3,-9,-12,-7,-10
1522257395949002,99,11,7,10,25,23,2,3
1522257395951008,-62,15,-1,0,0,0,1,-3
1522257395951008,-19,-26,-1,-2,-6,-3,1,-3
1522257395963040,72,2,-4,-10,-6,-8,-1,11
1522257395963040,-77,8,2,-2,-17,-6,-4,-13
1522257395971061,-57,-5,3,12,21,10,-2,-6
1522257395971061,21,15,4,5,11,-2,4,3
1522257395986101,49,3,-4,-4,-14,-6,-3,7
1522257395986101,69,27,0,-6,0,-2,3,20
1522257395988106,-75,3,7,-2,-1,18,-1,-15
1522257395988106,-24,-13,-4,-2,6,0,2,5
1522257396009163,-12,-9,-2,3,-4,-4,-1,2
1522257396009163,12,-5,1,1,-8,-12,-2,-2
1522257396010165,-96,10,-6,-4,-1,-2,0,-6
1522257396010165,8,-2,-5,-4,1,-1,-2,4
1522257396022197,-13,23,9,1,-2,-4,-1,-2
1522257396022197,5,12,5,1,14,-3,0,-2
1522257396031221,27,-2,8,6,-6,6,3,-5
1522257396031221,64,29,6,2,8,1,2,24
1522257396046261,-45,-24,-14,-9,-25,-15,-4,1
1522257396046261,61,6,-5,0,19,17,-1,-3
1522257396048266,17,-19,-11,-6,-8,-3,-3,-5
1522257396048266,27,21,5,4,-2,2,-1,-5
1522257396069322,-30,-8,2,0,20,-6,1,-4
1522257396069322,-21,-6,0,1,-13,-3,-4,0
1522257396070325,51,-8,6,4,-3,-23,2,-2
1522257396070325,4,6,-8,-5,1,18,-5,-5
1522257396082357,21,-17,-5,-4,-2,11,-1,1
1522257396082357,-52,-14,0,-2,-8,-10,0,-16
1522257396091381,75,32,3,-3,1,2,2,31
1522257396091381,-8,-21,-9,-7,-25,0,-6,-3
1522257396106421,34,12,4,6,22,-3,4,4
1522257396106421,-1,1,-4,-4,0,14,2,0
1522257396108426,-7,7,1,5,5,-4,0,-21
1522257396108426,-63,-1,-4,3,-11,-2,5,11
1522257396128479,-55,2,8,-5,-21,3,-1,0
1522257396128479,33,5,-2,2,12,-9,-2,9
1522257396130485,-13,-8,-2,5,31,8,-3,-2
1522257396130485,47,13,2,4,-2,-3,0,-8
1522257396142517,-5,-12,-4,5,1,2,-1,-5
1522257396142517,-41,-7,3,-3,-10,-11,2,-1
1522257396151541,-28,3,-3,-10,-38,-10,-3,-2
1522257396151541,34,-7,-3,1,34,26,0,2
1522257396166581,-4,1,-4,0,2,11,2,-4
1522257396166581,2,-8,-1,-2,-7,-1,-3,-5
1522257396167584,25,16,-3,-7,-13,-3,2,4
1522257396167584,44,-15,0,-5,-8,-21,-2,1
1522257396188639,-42,5,-3,-4,7,-1,-1,-3
1522257396188639,24,24,3,0,-4,1,-2,-1
1522257396190645,-119,-91,-7,-2,-2,-1,-6,-13
1522257396190645,43,-10,5,2,8,-8,3,-8
1522257396202677,42,44,1,0,-32,-3,-2,19
1522257396202677,-3,-3,-11,-1,14,-1,-2,-1
1522257396211701,41,20,7,1,2,3,2,5
1522257396211701,-15,6,11,3,5,1,0,-14
1522257396226741,-53,-22,-10,-4,-5,-7,-5,-9
1522257396226741,-16,-9,-5,-2,-11,-2,2,2
1522257396227743,15,5,-4,0,14,-11,1,3
1522257396227743,-24,-6,2,-3,7,13,0,-3
1522257396248799,36,19,9,4,7,0,4,4
1522257396248799,0,-11,-3,-4,-9,-13,3,8
1522257396250805,22,27,-1,-2,2,14,-3,-6
1522257396250805,-51,-3,-3,1,-4,-5,-2,-2
1522257396262836,26,-20,-5,-3,9,-4,-3,0
1522257396262836,89,14,8,4,-1,5,3,0
1522257396271861,-48,-53,-17,-17,-32,-22,-11,-3
1522257396271861,8,50,7,-2,4,7,-1,5
1522257396286900,-6,-11,-5,2,11,4,1,-8
1522257396286900,-111,-61,-5,-4,-3,-3,-5,-4
1522257396287903,54,42,16,8,2,2,4,4
1522257396287903,-4,-11,-1,3,-5,-3,-3,-9
1522257396308959,-37,-7,-4,-7,-5,-2,0,-4
1522257396308959,46,17,-2,-1,-1,4,4,9
1522257396310965,-17,-6,0,2,10,10,5,5
1522257396310965,-26,-15,-6,-2,-5,-4,-1,-5
1522257396322996,67,28,7,5,0,-2,0,9
1522257396322996,-62,-18,-8,-5,2,-6,-4,-17
1522257396332021,27,1,3,4,0,7,1,16
1522257396332021,-12,3,-6,-3,4,-11,0,4
1522257396346057,19,-3,5,1,-3,11,1,-6
1522257396346057,-55,27,2,-2,-2,-7,-3,1
1522257396348063,-33,-20,-7,-3,-1,8,-3,-9
1522257396348063,-104,-22,3,2,-7,-19,-1,-35
1522257396369119,70,13,0,-1,8,7,4,39
1522257396369119,-14,32,1,-6,-12,0,-5,12
1522257396370122,-30,1,-4,0,11,-4,-4,-9
1522257396370122,-66,-13,-4,-9,-13,-5,-1,-6
1522257396382153,-17,-5,1,7,6,-4,-4,-16
1522257396382153,27,-4,2,7,6,0,5,0
1522257396391178,35,-1,-5,-2,-33,0,1,6
1522257396391178,28,45,7,-1,10,0,2,11
1522257396406217,-66,-12,1,-5,-6,-6,-4,-21
1522257396406217,88,13,2,-3,-2,-15,-1,8
1522257396408223,-53,-29,-6,-5,-5,12,-5,-10
1522257396408223,0,-20,1,5,0,8,1,-3
1522257396429279,60,22,-6,-6,-9,-8,0,17
1522257396429279,6,-29,-15,-2,0,2,-4,-1
1522257396430282,-82,-5,7,5,1,-4,2,-20
1522257396430282,127,14,-2,-3,-10,-18,0,27
1522257396442313,-123,-27,-5,-4,5,7,-3,-8
1522257396442313,-46,-15,3,1,-6,2,-2,-20
1522257396451337,110,28,2,3,5,-2,0,6
1522257396451337,-24,0,-3,-4,9,0,1,12
1522257396466377,-14,-26,-9,-4,-19,-8,-2,-8
1522257396466377,-16,6,2,-2,2,7,0,4
1522257396468383,85,44,14,4,5,4,1,2
1522257396468383,-101,-70,-13,-1,4,-1,-7,-19
1522257396488436,107,24,6,-1,-10,-9,3,23
1522257396488436,-76,-24,-8,-3,5,6,-5,-2
1522257396490442,-71,-3,-2,1,11,-6,0,-3
1522257396490442,101,50,2,-4,-9,3,-1,0
1522257396502474,-31,-43,-5,-2,-19,3,-1,2
1522257396502474,14,17,9,10,12,4,0,-17
1522257396511497,48,11,-7,-12,-36,-18,-6,27
1522257396511497,-19,5,-2,11,76,9,-4,0
1522257396526537,-16,-9,2,3,0,7,-2,-14
1522257396526537,28,-18,0,7,3,11,6,-5
1522257396527540,14,1,2,0,1,-6,4,-10
1522257396527540,76,17,1,-4,-24,-1,10,22
1522257396548596,32,14,-3,-15,5,-11,-9,0
1522257396548596,-58,2,-2,-4,-38,-8,-3,3
1522257396550601,36,-17,-1,4,35,4,-2,-9
1522257396550601,-23,26,9,0,-66,-1,-2,-3
1522257396562633,-56,-11,-2,19,71,-4,10,-1
1522257396562633,77,1,-9,-23,-26,8,1,12
1522257396571658,-43,-6,-7,15,13,2,-5,-7
1522257396571658,-6,-15,2,2,-14,-17,-3,-15
1522257396585695,-78,-4,6,6,7,27,1,-11
1522257396585695,28,-1,-5,0,21,0,0,3
1522257396592713,60,15,3,-12,-12,-5,-6,22
1522257396592713,-32,-1,0,-1,1,1,-5,-10
1522257396608756,8,1,-1,-4,-5,-9,-1,-2
1522257396608756,-24,6,4,4,2,-7,0,-3
1522257396610761,-46,12,3,-4,0,11,4,-11
1522257396610761,-58,-71,-20,-7,-7,-9,-4,-1
1522257396631817,84,33,-4,-11,-16,-17,-2,10
1522257396631817,-34,2,6,3,-4,19,0,-4
1522257396632820,-9,-13,-6,3,-10,-3,-5,-10
1522257396632820,-47,-12,3,3,19,9,2,-12
1522257396653876,52,9,-5,2,2,-1,3,9
1522257396653876,-12,-12,-7,-3,2,-6,0,-10
1522257396655881,63,-28,-6,-7,-16,-6,5,12
1522257396655881,-34,-5,-2,-7,-20,-7,-11,5
1522257396668916,-88,-10,3,1,-2,3,-2,-14
1522257396668916,37,27,4,2,0,-10,3,10
1522257396670921,-23,-8,0,0,1,5,2,-10
1522257396670921,-31,-3,-6,-1,4,5,1,-5
1522257396690974,-4,2,3,2,-8,-1,-2,-11
1522257396690974,-35,12,2,-1,7,-3,-2,7
1522257396692980,14,-3,-6,0,3,-13,-3,0
1522257396692980,70,23,6,4,11,13,3,4
1522257396706014,-15,10,2,1,-7,2,-3,2
1522257396706014,-75,-17,-6,-1,1,-4,-4,-9
1522257396713033,-75,-13,-8,-11,-6,-10,-6,-7
1522257396713033,11,0,-6,-5,10,-2,-7,0
1522257396729075,74,13,6,3,-25,-1,1,-9
1522257396729075,68,-3,4,6,-2,-1,2,9
1522257396730078,-32,-6,0,-1,21,9,1,2
1522257396730078,-10,5,-5,-5,-5,-5,1,-3
1522257396751134,-102,-30,2,5,5,6,6,-19
1522257396751134,125,33,-6,-1,13,-2,3,36
1522257396753140,-89,-11,-2,-3,-4,-5,-5,-8
1522257396753140,31,11,4,3,1,4,4,2
1522257396766174,6,0,-3,-9,0,-6,-6,-1
1522257396766174,4,-4,2,-2,-8,-2,-3,-12
1522257396772190,7,4,2,0,7,5,3,3
1522257396772190,-1,-18,-5,-1,-2,2,3,-9
1522257396789235,14,-12,-6,-3,-1,-9,-1,13
1522257396789235,-57,-19,-7,-2,-27,-15,-4,-8
1522257396790238,47,20,1,0,13,26,-4,-3
1522257396790238,20,-3,-4,-3,-2,-4,-5,-5
1522257396811294,-14,-4,-2,0,3,-7,-5,-4
1522257396811294,-15,-10,2,6,3,12,0,-15
1522257396813300,73,1,-5,-3,-16,-9,1,11
1522257396813300,63,33,5,3,-4,4,-1,17
1522257396825331,-117,-77,-18,-10,5,-8,-5,-9
1522257396825331,58,2,2,-2,6,-3,-3,-3
1522257396832350,-8,8,3,-1,-5,-2,-2,-12
1522257396832350,-5,12,-1,-5,-4,-1,0,-2
1522257396849395,53,10,5,2,-4,-2,3,8
1522257396849395,-49,-10,-9,-3,5,1,1,-5
1522257396850399,-11,26,12,5,4,3,3,0
1522257396850399,11,0,-1,-6,-11,-33,-1,4
1522257396871454,-24,15,1,6,12,33,4,-7
1522257396871454,68,4,-1,-1,6,2,-1,14
1522257396873459,-21,6,-3,-1,-5,1,5,12
1522257396873459,6,-6,1,-1,6,0,-1,-4
1522257396885491,-48,5,5,1,-15,-9,1,-6
1522257396885491,79,35,10,7,0,-9,2,-2
1522257396894515,-80,-56,-17,-3,4,11,-7,-5
1522257396894515,69,12,7,1,-10,0,-5,-3
1522257396908553,-77,-43,-16,-14,-9,-7,-8,-12
1522257396908553,36,-1,-2,-4,4,-5,-3,4
1522257396910558,8,16,4,3,-13,-8,1,0
1522257396910558,-82,-25,-1,6,12,8,5,-14
1522257396931614,127,49,8,6,7,0,6,30
1522257396931614,-128,-24,-4,-4,6,-3,-5,-11
1522257396932616,35,-9,-5,-7,-12,-13,-7,-6
1522257396932616,-62,-27,1,5,2,10,9,10
1522257396944648,47,12,-5,-3,11,0,0,-8
1522257396944648,2,17,-2,0,-30,2,1,1
1522257396953672,-44,-4,0,6,9,5,-1,1
1522257396953672,-4,-4,-5,1,-5,0,-5,-3
1522257396968712,26,0,-6,-3,-1,-3,0,7
1522257396968712,-69,24,14,2,4,5,1,-13
1522257396970718,-17,-7,-2,0,-3,-8,-1,-1
1522257396970718,78,45,6,1,4,-2,1,5
1522257396991774,-35,-24,3,0,-9,-2,3,4
1522257396991774,88,38,1,-1,2,-14,-9,-3
1522257396992776,-94,-74,-10,-1,9,13,-4,-31
1522257396992776,25,-15,-15,-16,-6,-7,-7,7
1522257397004808,30,10,2,1,-5,-8,-3,-2
1522257397004808,12,-13,1,0,9,16,3,-5
1522257397013832,6,28,8,3,4,-7,6,6
1522257397013832,-49,-18,-5,-2,-5,3,1,-12
1522257397028872,-8,16,4,6,0,1,5,5
1522257397028872,-59,-26,-14,-7,2,-8,-3,-2
1522257397030878,84,22,1,-6,-9,-6,-2,11
1522257397030878,-64,-8,11,5,3,3,-2,-5
1522257397051934,-13,9,1,-1,-35,-1,-2,1
1522257397051934,34,9,0,1,20,2,3,8
1522257397052937,-39,-3,-1,-5,-4,1,0,6
1522257397052937,-36,-18,-7,-5,-8,-8,-8,-8
1522257397064968,19,31,7,9,3,2,-1,-17
1522257397064968,-41,-53,0,4,-6,-10,8,13
1522257397073992,61,29,-4,-5,1,4,-6,13
1522257397073992,22,14,3,0,1,5,0,-6
1522257397089032,-72,-26,-11,-2,20,1,-8,-9
1522257397089032,11,-8,0,4,14,5,-2,-3
1522257397091037,-29,11,3,2,2,-10,4,4
1522257397091037,88,11,-2,-4,-5,-4,-1,3
1522257397111091,-48,-37,-10,-9,-9,-13,-3,-8
1522257397111091,-2,-9,1,2,-1,11,2,3
1522257397113096,23,12,2,-3,-3,-5,3,0
1522257397113096,-4,13,-1,0,-5,9,-1,-7
1522257397125128,-32,6,9,10,13,2,2,-7
1522257397125128,71,29,-5,-5,-18,-10,-3,16
1522257397134152,81,4,2,4,23,2,3,5
1522257397134152,-86,-10,-5,-7,0,-1,3,-2
1522257397149192,59,10,0,-8,-4,-6,-2,11
1522257397149192,-39,-24,-6,-5,-1,10,-3,-7
1522257397150195,-1,-15,-5,2,-8,1,-6,-5
1522257397150195,-25,11,8,11,7,1,8,-2
1522257397171251,14,-22,-8,-5,0,-2,-3,-3
1522257397171251,-46,-2,1,1,1,0,-3,-6
1522257397173256,18,18,3,-2,-8,-2,-4,-16
1522257397173256,42,-5,-6,1,1,-3,1,26
1522257397185288,3,3,5,-5,-47,-3,-4,2
1522257397185288,39,-5,-6,4,57,5,-1,-3
1522257397194312,-95,9,0,-1,-1,-5,1,-6
1522257397194312,-26,-8,3,4,3,-7,5,-5
1522257397209352,40,19,0,-6,6,12,2,-2
1522257397209352,66,26,5,-4,-20,-3,3,9
1522257397210355,-49,-21,-7,-2,-2,-7,-3,4
1522257397210355,-7,-2,5,-2,-14,-2,-6,-8
1522257397231411,64,18,2,8,28,-2,-3,2
1522257397231411,-99,-16,3,4,-12,-7,4,-14
1522257397233416,-26,-19,-2,2,13,24,3,-2
1522257397233416,111,72,16,-3,-12,1,0,17
1522257397245448,27,18,-2,-5,1,0,0,24
1522257397245448,-86,-21,-6,-5,-8,-5,-7,-17
1522257397254472,28,13,5,-1,-7,-9,-1,-1
1522257397254472,-64,-30,-7,-1,4,0,2,-8
1522257397268510,-1,-1,1,3,4,0,-1,-13
1522257397268510,19,50,7,3,1,0,0,-1
1522257397270515,1,-56,-15,-15,-16,-24,-1,16
1522257397270515,4,-14,-11,-2,8,8,-8,-11
1522257397291570,0,1,1,8,21,-9,8,0
1522257397291570,-26,-28,-14,-6,-15,9,-8,-11
1522257397292573,1,1,1,3,11,17,-4,-16
1522257397292573,-28,11,-5,-3,-5,-3,-2,11
1522257397304605,-7,-3,-5,-5,-9,-1,-3,-4
1522257397304605,-17,5,3,-3,-3,-10,-3,-2
1522257397313629,36,27,13,6,-5,-5,1,5
1522257397313629,15,-15,-3,-3,-6,-1,-2,-2
1522257397328669,-59,-11,1,3,10,4,3,-17
1522257397328669,85,-21,-5,-4,-11,-5,3,14
1522257397330675,33,67,13,2,-4,0,3,17
1522257397330675,-84,-31,-5,-1,-2,-2,-4,-14
1522257397351731,-14,-12,5,2,-3,-6,-5,-2
1522257397351731,25,6,3,2,-15,2,2,1
1522257397352733,94,-2,-5,-3,-20,3,0,4
1522257397352733,-35,12,-1,2,30,0,-5,-7
1522257397364765,-55,18,-7,-8,-11,-1,-6,2
1522257397364765,-9,-4,-1,1,0,-4,-1,-6
1522257397373789,-11,-15,-4,2,-7,-6,-2,-11
1522257397373789,27,12,2,2,2,2,3,1
1522257397388829,4,-3,-1,2,-2,-4,2,2
1522257397388829,13,1,-4,-3,-1,12,0,-8
1522257397390834,27,-18,-9,-2,7,4,7,18
1522257397390834,-32,-16,-7,-6,-4,-3,-8,-1
1522257397411890,5,-5,3,3,3,1,-2,0
1522257397411890,-57,-4,-1,-1,2,-7,-2,-8
1522257397412893,29,-3,4,-2,-4,1,0,-12
1522257397412893,-19,11,8,2,18,-16,0,9
1522257397424925,-37,-7,-7,-12,-30,14,0,-3
1522257397424925,-2,11,3,17,54,11,1,11
1522257397433949,1,-28,-9,-2,2,-3,-4,-4
1522257397433949,76,8,1,3,-17,-2,5,2
1522257397447986,-5,-18,-1,1,17,-3,-5,-11
1522257397447986,-32,-5,2,-7,-11,-3,0,-1
1522257397455005,-14,6,-9,-6,0,-4,-3,-1
1522257397455005,19,0,3,-3,1,1,3,1
1522257397471047,18,2,-2,0,-7,-5,-4,1
1522257397471047,-7,9,-5,-2,-7,-3,0,1
1522257397473053,-42,-7,-4,1,-6,-7,-7,-12
1522257397473053,57,29,-5,-6,-17,6,-2,12
1522257397485085,23,-24,1,-2,9,-10,1,5
1522257397485085,-103,-2,-2,-1,-3,10,-2,-4
1522257397494109,10,8,4,7,30,4,3,1
1522257397494109,-44,-21,-5,1,0,-4,-1,-11
1522257397508146,16,9,-1,-2,-1,4,-4,0
1522257397508146,19,-4,-8,-4,-7,-8,-1,-7
1522257397515164,19,4,7,-1,-2,-4,-1,10
1522257397515164,-14,1,3,0,-14,0,-2,-9
1522257397531207,22,-5,-1,3,5,-3,5,5
1522257397531207,52,11,3,-3,-12,-3,3,2
1522257397533213,-30,-20,-6,-3,-8,0,2,-11
1522257397533213,-31,-35,-6,0,0,-3,-1,0
1522257397545244,48,43,2,-2,-6,3,2,11
1522257397545244,35,-6,-1,-5,-6,1,-6,7
1522257397554269,-52,-11,10,9,10,1,-5,-10
1522257397554269,63,-2,-2,2,3,0,-4,3
1522257397568309,-72,-1,-5,-1,-1,2,1,-2
1522257397568309,55,-5,-2,-8,-4,-5,1,8
1522257397575324,-10,1,-2,-3,-4,-3,-2,-10
1522257397575324,-92,-23,1,2,2,2,3,-2
1522257397591367,37,52,-2,-1,-7,-11,-5,-5
1522257397591367,32,-19,8,7,3,12,-1,-13
1522257397593373,45,16,-5,-3,-4,-8,3,25
1522257397593373,26,-4,1,1,4,24,6,-4
1522257397613426,-63,-19,-1,-1,-1,-1,0,-4
1522257397613426,-20,2,-1,-1,-3,-9,-3,-6
1522257397615431,-50,-28,-11,1,-15,1,1,-24
1522257397615431,60,35,8,0,15,-7,1,29
1522257397628466,1,-7,-2,-4,-3,1,-6,1
1522257397628466,-12,3,3,3,3,-1,1,-2
1522257397635485,-26,2,2,-2,-11,1,-2,0
1522257397635485,5,0,-7,-5,-7,-10,1,-4
1522257397651527,41,1,1,4,11,8,2,-4
1522257397651527,-112,-8,-1,0,-2,-4,0,3
1522257397653533,70,-18,-8,0,7,1,-4,-12
1522257397653533,101,52,7,-5,-18,-16,-1,15
1522257397673585,-39,-31,-8,-3,2,7,-4,-9
1522257397673585,-85,-16,0,-1,-7,0,-1,-7
1522257397675591,47,15,1,-5,0,-4,1,12
1522257397675591,-27,-6,-2,4,5,6,-2,-18
1522257397688626,-14,-3,3,-3,-10,-5,-4,6
1522257397688626,43,1,-3,0,-1,-8,-3,0
1522257397694642,-102,15,7,1,9,2,0,-14
1522257397694642,46,-10,-7,-2,-18,0,1,2
1522257397711687,99,26,-2,-5,3,-3,0,6
1522257397711687,-43,-32,-13,-8,-6,-9,-7,-4
1522257397712690,12,10,1,-1,4,5,-3,8
1522257397712690,-42,-16,0,0,-1,4,-3,-9
1522257397733745,-1,-7,7,6,-1,0,4,-8
1522257397733745,65,18,-2,1,0,-2,-4,7
1522257397735751,35,-10,-11,-6,-7,-9,-3,2
1522257397735751,16,-1,-5,-3,-11,-1,-1,-6
1522257397747783,-55,-5,-6,0,-2,-10,1,-1
1522257397747783,99,-6,2,1,16,11,6,8
1522257397754801,-94,-3,6,3,3,6,6,4
1522257397754801,30,12,-5,-7,3,-7,-11,0
1522257397771847,58,3,5,2,-15,0,-2,2
1522257397771847,-49,-14,-4,-1,-7,-3,-2,-8
1522257397772850,-44,-2,3,3,0,5,0,-7
1522257397772850,73,26,-6,-4,5,-2,4,25
1522257397793905,-104,-11,-6,-2,-3,-3,-4,-7
1522257397793905,26,4,1,-6,-8,-8,-1,0
1522257397795911,10,0,2,8,21,12,4,-1
1522257397795911,-63,-27,4,5,3,-4,1,-22
1522257397807943,78,41,3,1,-7,-26,-2,22
1522257397807943,-77,-30,-11,-7,11,32,-5,-9
1522257397816967,68,27,7,-5,-6,-5,0,15
1522257397816967,-58,-19,-4,-4,-6,-1,-3,-14
1522257397831004,43,-12,-2,5,28,10,4,-7
1522257397831004,-76,14,4,0,-10,-15,0,-11
1522257397833010,27,-6,-7,-1,-7,-7,-6,-1
1522257397833010,-12,8,6,3,11,2,-1,0
1522257397854065,-11,-8,4,-1,-10,6,-1,-3
1522257397854065,75,20,6,2,-1,-4,6,17
1522257397855068,-7,-5,-7,-5,-3,3,-6,-11
1522257397855068,-27,8,6,3,5,1,3,-5
1522257397867100,40,-7,-8,-11,-6,-4,-6,13
1522257397867100,32,21,5,-1,0,-7,0,6
1522257397876124,-29,-15,-2,3,-9,-2,1,-5
1522257397876124,-39,-9,-1,2,5,5,3,-4
1522257397891164,-62,3,0,5,-6,-3,-3,-23
1522257397891164,119,20,-7,-1,6,11,2,23
1522257397893169,-69,-20,-8,-13,-14,-21,-7,-3
1522257397893169,4,6,-1,-2,-5,13,-5,-5
1522257397914225,-21,-17,6,6,21,4,2,-2
1522257397914225,-36,1,-1,2,-17,-13,-2,-10
1522257397915228,65,9,0,-1,17,14,10,11
1522257397915228,10,6,4,-3,-14,-6,-1,3
1522257397927260,-1,-18,-1,-3,11,6,2,4
1522257397927260,3,2,1,-1,2,-7,-2,-7
1522257397936284,-5,25,7,5,-15,0,2,10
1522257397936284,-43,-31,-14,-9,-2,-8,-8,-8
1522257397951324,75,11,4,0,-12,7,1,-12
1522257397951324,-56,9,-3,-1,-10,-19,-2,10
1522257397953329,60,20,8,2,7,16,0,14
1522257397953329,-19,-16,-3,0,5,-4,-4,8
1522257397974385,-11,8,4,6,4,5,2,-2
1522257397974385,24,-15,1,-1,-4,0,0,-15
1522257397975388,-3,-15,-6,-2,-2,-11,-2,-6
1522257397975388,-10,-1,-3,-3,-2,-7,1,-2
1522257397987420,-13,-11,-9,-6,-1,4,-2,3
1522257397987420,-5,-10,-4,0,4,6,0,-12
1522257397996444,-31,6,0,-3,-3,-5,-4,-4
1522257397996444,35,-15,0,3,10,1,-5,-7
1522257398011484,-27,5,-1,-8,-1,-14,-4,1
1522257398011484,12,-2,1,4,-23,7,-2,-4
1522257398013489,-26,0,-6,1,3,-10,-6,-10
1522257398013489,-5,27,7,1,-7,17,5,1
1522257398033542,-20,-49,-17,-10,12,-8,-7,4
1522257398033542,-59,-17,-2,-5,-8,0,-4,-2
1522257398035548,-61,-1,9,2,-2,-6,1,-19
1522257398035548,50,21,2,-1,-14,-5,1,10
1522257398047580,-11,19,2,7,-3,5,3,-1
1522257398047580,-26,-3,2,3,13,4,1,0
1522257398056604,14,-39,-7,-3,-4,-4,-2,-6
1522257398056604,-8,18,-5,-3,15,-7,1,8
1522257398071644,32,-10,-6,-7,-33,11,4,6
1522257398071644,-15,-2,6,2,13,-2,-1,1
1522257398072646,67,18,-1,-3,8,2,1,15
1522257398072646,-9,-19,1,-2,-5,-4,-2,-9
1522257398093702,-46,33,13,6,-3,-3,4,2
1522257398093702,-10,-12,-6,0,7,-11,-2,-10
1522257398095707,34,14,3,3,-2,12,2,4
1522257398095707,-33,-10,-10,-3,-2,1,0,4
1522257398107739,12,9,-1,1,10,-2,-3,-6
1522257398107739,-9,-10,-7,2,-6,3,1,1
1522257398116764,-12,-11,-1,0,-3,-5,-3,-4
1522257398116764,31,48,17,7,-3,-9,2,0
1522257398131803,35,-16,-2,-3,3,19,3,17
1522257398131803,-57,3,-5,-10,-14,-9,-9,-8
1522257398132806,25,29,-3,3,31,9,5,13
1522257398132806,-2,-39,-10,-2,-1,-2,-4,-17
1522257398153862,15,0,3,4,-10,-6,2,-4
1522257398153862,60,11,-1,-1,4,1,1,10
1522257398155867,-64,21,5,-2,-9,-4,-2,-5
1522257398155867,-19,-33,-8,-2,1,2,-2,-7
1522257398167899,19,16,2,-3,5,-8,-2,2
1522257398167899,12,10,-3,-5,-8,0,1,-1
1522257398176923,-68,-28,-4,2,-18,1,3,-5
1522257398176923,54,-8,-4,1,16,-5,-6,9
1522257398191963,-37,-15,-5,-1,-5,-1,-2,-15
1522257398191963,66,9,-2,-4,9,-4,-5,5
1522257398192966,-34,-15,5,-1,-12,-2,-3,-10
1522257398192966,1,8,2,-1,-6,1,2,4
1522257398214022,-81,-9,-4,-1,1,-1,5,4
1522257398214022,61,5,6,2,5,-2,-5,-9
1522257398216027,-4,44,-5,-5,-5,8,0,10
1522257398216027,-11,-12,-4,0,2,8,-1,3
1522257398228059,-37,-12,-5,-6,-3,-6,-10,-5
1522257398228059,14,9,7,2,2,2,9,13
1522257398237083,47,3,4,-2,-7,-7,-3,-4
1522257398237083,-1,4,5,6,3,2,4,-1
1522257398251120,-32,-35,-12,-5,-6,-4,-5,1
1522257398251120,-46,25,7,2,-6,-2,2,-1
1522257398253126,-12,-20,-5,-5,7,-2,-1,-6
1522257398253126,-13,14,-1,1,-8,0,4,-6
1522257398274182,-5,-32,-6,-2,-1,-1,0,-6
1522257398274182,36,-2,2,4,-5,6,4,10
1522257398275185,25,-6,-8,-1,21,-3,-5,2
1522257398275185,-12,-17,-6,-6,-10,-3,-7,-6
1522257398287216,27,7,10,8,7,1,2,1
1522257398287216,-24,15,-3,0,-4,-9,1,-3
1522257398296240,28,-33,-8,-8,-5,1,-6,-7
1522257398296240,-48,-20,-6,-5,-18,1,-5,3
1522257398311280,50,28,2,4,5,-1,-2,5
1522257398311280,-5,-18,-6,-1,1,3,-1,-8
1522257398313286,-37,4,1,-3,-12,-10,1,1
1522257398313286,91,-6,1,8,20,1,2,2
1522257398334342,-17,50,14,3,1,3,6,-3
1522257398334342,-45,-16,-5,0,2,-6,-4,-2
1522257398335345,-9,18,1,-6,-17,8,0,-6
1522257398335345,10,-14,2,-4,7,2,1,-6
1522257398347376,56,37,2,2,2,2,4,14
1522257398347376,-20,-50,2,-1,-2,-3,-4,-1
1522257398356400,42,3,-4,1,-4,-6,-3,8
1522257398356400,-51,-7,-8,-4,0,-1,1,-3
1522257398371440,80,11,-4,0,2,-6,-4,-11
1522257398371440,-22,43,15,2,-3,5,2,-5
1522257398373446,25,-26,-9,-6,3,-16,-4,10
1522257398373446,44,18,2,-2,-35,11,0,4
1522257398393499,-38,-17,-1,1,23,3,2,6
1522257398393499,1,2,-7,-2,3,0,-4,-9
1522257398395504,5,6,2,-1,-5,-1,-2,-9
1522257398395504,50,17,3,3,10,-12,1,7
1522257398416560,-74,-24,-2,-6,-16,-8,-8,-16
1522257398416560,45,-21,0,6,6,9,4,3
1522257398418567,-26,43,3,0,2,-3,2,1
1522257398418567,-112,-21,-17,-13,1,-6,-7,-4
1522257398431600,11,7,7,-2,-13,1,-4,-3
1522257398431600,33,-4,-5,0,5,-2,-1,2
1522257398432603,-60,-16,0,4,-6,0,-3,-11
1522257398432603,-3,12,7,7,4,-7,2,-9
1522257398453659,6,-10,-10,-6,0,7,3,5
1522257398453659,-53,8,1,-7,-9,-7,-1,-3
1522257398455664,87,1,3,1,9,15,-2,17
1522257398455664,-46,1,4,-8,-4,-6,-4,-5
1522257398467696,24,-6,-3,7,-7,10,1,3
1522257398467696,7,-8,-5,0,19,-4,2,-5
1522257398476720,-28,18,1,7,0,4,2,-5
1522257398476720,14,4,2,-9,1,-6,-6,10
1522257398490757,-70,-33,-6,-10,-26,-16,-12,-12
1522257398490757,-10,2,2,6,-4,6,3,6
1522257398497776,-21,-9,2,4,1,1,-2,-13
1522257398497776,1,-8,-2,5,9,4,5,-5
1522257398513818,3,-25,-19,-4,8,-2,3,-7
1522257398513818,41,80,26,-2,-5,4,2,33
1522257398515824,58,-25,-7,-15,-4,-9,-5,0
1522257398515824,-6,-4,4,7,-6,-1,0,-5
1522257398536880,8,-1,4,13,0,-12,3,-1
1522257398536880,-68,-7,-13,1,10,18,2,-7
1522257398537883,-21,4,-2,2,-8,1,2,-8
1522257398537883,69,-6,0,-1,-6,-5,3,-4
1522257398550917,-49,66,10,-5,7,13,2,30
1522257398550917,49,-33,-13,-21,1,-19,-11,3
1522257398557936,6,2,2,2,-27,8,-4,-3
1522257398557936,-58,-25,-7,8,16,2,0,-14
1522257398573978,40,17,4,4,0,-4,3,-10
1522257398573978,-12,-3,-3,-1,12,-2,1,-2
1522257398575984,-53,-11,0,-9,-7,-5,4,10
1522257398575984,83,20,0,-18,-16,0,-1,1
1522257398596037,-72,-19,-5,12,10,-5,-9,-12
1522257398596037,63,-8,-4,-5,-26,0,-5,-4
1522257398598043,-9,-3,-5,7,9,-11,1,-4
1522257398598043,18,14,6,4,-6,-6,-1,6
1522257398611077,33,-27,-10,-13,4,15,-3,-4
1522257398611077,-27,-2,-12,1,-2,0,-4,-23
1522257398618096,-10,33,14,4,11,3,7,37
1522257398618096,7,3,-2,-7,4,-3,-3,2
1522257398634138,-2,-2,8,-4,0,-4,-1,-6
1522257398634138,6,-6,0,9,-2,1,6,2
1522257398635141,-10,-14,-5,1,1,-11,-4,-18
1522257398635141,-12,12,-5,-5,-5,10,-4,11
1522257398656197,-3,-22,-7,-10,-3,-10,-5,-5
1522257398656197,-40,11,4,1,-11,4,0,-1
1522257398658203,21,-13,0,0,10,-1,-6,-15
1522257398658203,-26,-2,0,3,-16,-1,0,4
1522257398671237,33,14,0,4,10,-1,-1,-4
1522257398671237,-8,-15,0,3,0,0,0,-5
1522257398677253,74,17,-3,-2,-9,-14,0,8
1522257398677253,-59,-18,-3,1,4,12,-4,-4
1522257398694298,24,11,2,-3,2,2,2,3
1522257398694298,-18,19,7,-3,-3,2,-2,-1
1522257398695301,32,-22,1,0,2,7,4,-1
1522257398695301,67,16,-3,2,5,-8,-1,6
1522257398716357,-61,2,3,-3,-9,-4,4,5
1522257398716357,-39,-20,-7,-5,-1,-5,-4,-6
1522257398718362,-17,26,2,-1,5,5,5,10
1522257398718362,-34,-10,-3,-2,3,-2,-6,-11
1522257398730394,-22,-18,-8,1,-8,1,-3,-8
1522257398730394,41,5,-3,1,0,-1,1,8
1522257398737413,3,-5,-2,0,-4,4,-1,-5
1522257398737413,-23,-8,3,4,0,0,5,9
1522257398753455,16,9,-1,-3,1,-6,1,-5
1522257398753455,-15,-33,-5,-9,-34,-7,-4,0
1522257398755461,12,0,-6,0,5,11,-2,-4
1522257398755461,12,5,7,2,14,1,1,-5
1522257398776517,-52,12,2,4,3,2,-1,-4
1522257398776517,4,2,2,-3,-9,-23,-3,4
1522257398778523,-38,-14,-5,-7,-14,12,1,-10
1522257398778523,0,15,3,1,-3,1,0,14
1522257398790554,79,11,1,3,5,0,2,7
1522257398790554,-12,-3,-1,4,4,1,0,-1
1522257398799578,-52,-17,-2,1,1,-8,-5,-4
1522257398799578,52,2,6,2,6,7,2,-9
1522257398813615,8,1,3,4,-9,-9,9,1
1522257398813615,24,-24,-5,-14,0,9,-10,19
1522257398815621,-24,-13,-1,0,9,-2,-2,-16
1522257398815621,-32,6,-6,-5,-2,-3,0,-2
1522257398836676,-1,-15,3,-4,-27,-6,-1,-10
1522257398836676,-5,11,-3,15,35,7,3,-9
1522257398837679,50,14,0,1,-1,-3,1,14
1522257398837679,-13,-14,-11,-4,-3,-4,0,2
1522257398849711,-18,-26,-9,-7,-6,-7,-6,-2
1522257398849711,62,39,7,3,2,7,3,4
1522257398858736,-8,-7,6,-2,0,2,-4,-3
1522257398858736,-33,-18,-5,1,-10,-2,4,-6
1522257398873775,11,33,6,-3,11,9,2,0
1522257398873775,4,11,-3,1,-2,-4,-2,-2
1522257398875781,1,-29,-14,-8,-13,-8,-2,2
1522257398875781,-23,17,10,6,8,1,1,6
1522257398896836,-33,4,-1,-7,-7,-4,-7,1
1522257398896836,-71,-35,-8,-2,6,-8,-2,-24
1522257398897839,42,7,3,-1,-16,14,2,-2
1522257398897839,33,27,4,5,6,0,0,-1
1522257398909871,-41,-12,1,2,6,4,-1,2
1522257398909871,80,1,-6,-2,2,-2,2,4
1522257398918895,-19,21,-3,-4,-2,-6,-4,-1
1522257398918895,-8,-22,-11,-8,-8,-5,-7,-3
1522257398933935,76,9,6,1,0,-3,0,6
1522257398933935,-23,-32,-8,-2,-14,1,0,1
1522257398935940,-29,26,8,4,8,-4,2,-2
1522257398935940,1,20,0,-2,3,2,0,-7
1522257398956996,-55,-42,-11,-3,-1,2,0,-2
1522257398956996,-11,27,12,0,2,2,0,0
1522257398957999,15,1,0,1,5,-4,-1,2
1522257398957999,-51,-9,0,3,8,-3,0,2
1522257398970031,-3,-8,-1,0,-20,6,2,5
1522257398970031,24,21,-4,-6,6,-17,0,-3
1522257398979056,20,-18,-7,-3,-1,16,2,13
1522257398979056,25,3,3,-2,-8,-8,-7,-16
1522257398994095,15,-12,-3,2,-7,-2,-1,-4
1522257398994095,-39,-2,4,1,6,3,2,-7
1522257398995098,-4,-9,-1,3,-7,-9,-1,-8
1522257398995098,95,32,-5,-3,2,-2,-1,28
1522257399016154,17,-34,-4,-2,14,2,0,7
1522257399016154,-45,8,0,-3,-11,-4,-10,-10
1522257399018159,3,4,6,3,6,-4,-2,-6
1522257399018159,-24,-20,4,3,-4,8,1,-10
1522257399030191,-5,39,2,-2,3,-2,3,-1
1522257399030191,42,0,-7,-2,-3,2,5,13
1522257399039215,0,-25,3,3,4,-4,0,4
1522257399039215,59,-6,-2,-8,-16,-23,0,-2
1522257399054255,-81,2,-3,1,-5,11,-3,-12
1522257399054255,-28,-20,0,9,31,16,3,-7
1522257399055258,83,30,-9,-13,-29,-7,-9,9
1522257399055258,-120,-24,2,-3,18,4,-2,-3
1522257399076314,109,15,-3,0,-3,-12,2,6
1522257399076314,-22,5,4,2,-10,0,1,-8
1522257399078319,-29,-24,-6,1,7,-1,-3,-11
1522257399078319,52,17,2,1,-6,-12,1,-5
1522257399090351,53,-26,-2,-8,0,12,-1,14
1522257399090351,-81,-9,2,-1,-4,-2,-3,0
1522257399099381,5,-3,-2,0,9,-5,-5,-7
1522257399099381,-10,-1,-4,-3,-12,0,1,-9
1522257399114415,45,-3,-5,-1,6,1,-4,7
1522257399114415,124,39,-3,-47,10,-9,-1,12
1522257399115418,-46,3,-2,-7,-95,-5,-3,-6
1522257399115418,-11,-10,7,75,83,21,3,-4
1522257399136473,-16,16,5,17,8,-4,2,-10
1522257399136473,-3,-16,-3,10,3,2,0,7
1522257399138480,-28,9,-5,-19,-5,-4,3,-6
1522257399138480,21,12,-2,-30,-23,-4,2,8
1522257399150511,31,12,-3,0,-4,-4,-8,-24
1522257399150511,-23,16,4,-3,-19,-8,-3,21
1522257399159535,-9,-12,-3,1,27,2,-4,-7
1522257399159535,-43,-12,-3,-6,-17,-1,-4,-6
1522257399173572,-38,-8,-11,-9,7,-2,2,1
1522257399173572,-7,-19,-2,1,-16,2,1,-9
1522257399175577,-33,17,7,9,21,0,0,4
1522257399175577,0,-20,-12,-4,0,5,-1,-5
1522257399196633,60,13,0,-8,-12,-6,0,3
1522257399196633,16,-14,8,14,3,5,-15,6
1522257399197636,56,-8,1,6,13,-4,14,-7
1522257399197636,-13,11,2,-11,-6,0,-10,-1
1522257399209668,-54,-6,-5,-5,-6,-14,1,11
1522257399209668,-7,-3,1,8,1,15,-5,12
1522257399218693,8,-4,-2,2,24,-1,-1,8
1522257399218693,16,11,3,-10,-39,4,0,-1
1522257399233732,-39,-7,4,6,11,-1,2,-8
1522257399233732,51,-16,-9,-3,-2,-8,3,4
1522257399235737,-37,0,-3,2,6,0,-2,-6
1522257399235737,-19,-7,1,-5,-3,-1,1,-4
1522257399256793,4,8,2,1,-4,0,-7,2
1522257399256793,-3,-3,-5,1,-8,-2,3,-16
1522257399257796,-37,-6,-3,1,10,2,-1,-12
1522257399257796,56,-7,1,-5,-1,-5,2,6
1522257399269828,-34,4,-7,-1,-4,1,-8,7
1522257399269828,-32,2,6,3,4,1,5,-6
1522257399278852,37,-8,-13,-2,1,0,-5,7
1522257399278852,-42,26,18,3,3,-4,1,-6
1522257399293892,-27,-2,3,-6,-4,-3,0,-2
1522257399293892,10,10,-1,-4,-9,-3,0,3
1522257399295897,-14,-2,-2,-5,17,-10,-2,2
1522257399295897,-47,-13,-8,-9,-48,1,2,0
1522257399316953,64,22,8,5,15,-12,0,-6
1522257399316953,1,16,-4,5,-13,11,-1,-2
1522257399317956,-24,-18,-2,3,18,1,-2,2
1522257399317956,37,-8,-8,-1,4,-1,0,4
1522257399329987,-5,4,5,-1,-4,3,5,-3
1522257399329987,19,-5,4,1,-9,-9,3,-5
1522257399339012,-27,2,-3,0,0,1,-2,8
1522257399339012,33,6,-5,0,8,-9,-5,-1
1522257399354052,-82,-24,-4,0,0,16,1,-11
1522257399354052,17,0,-1,-2,8,-2,1,0
1522257399356057,43,22,7,2,-9,6,-2,1
1522257399356057,3,-16,-8,-2,8,-7,1,6
1522257399376110,-43,21,15,4,10,1,1,-1
1522257399376110,70,-18,-2,-2,-15,-2,-2,-5
1522257399378116,12,13,1,-3,0,-4,2,6
1522257399378116,-7,-3,-6,-2,5,1,0,4
1522257399390147,-8,-7,-7,-8,-12,-1,0,8
1522257399390147,-52,-6,-15,-7,-5,-5,-5,-6
1522257399399172,4,-9,6,4,-6,-1,1,-3
1522257399399172,9,15,12,6,19,2,1,1
1522257399413209,39,9,1,-2,-15,4,-6,-10
1522257399413209,-9,13,8,5,-4,-14,3,-1
1522257399420228,54,-13,-8,0,3,0,-1,-1
1522257399420228,34,-19,-18,-14,7,9,-6,3
1522257399436270,-52,-27,-2,-4,3,5,-2,-14
1522257399436270,10,-6,-4,-4,-2,-3,-3,-1
1522257399438276,-12,13,8,2,-5,-2,1,-7
1522257399438276,0,7,3,6,-6,-2,-1,-1
1522257399450307,30,-10,-2,3,0,-6,1,2
1522257399450307,13,-20,-4,0,14,4,3,-1
1522257399459339,37,31,17,4,-2,2,3,3
1522257399459339,-49,17,0,-3,2,-2,-3,4
1522257399473369,10,6,-9,-6,7,-11,-6,0
1522257399473369,-58,-25,-2,-4,-34,0,-3,-3
1522257399480387,10,-11,-8,2,5,0,-2,0
1522257399480387,-1,0,2,-1,-5,4,2,-4
1522257399496430,36,3,7,3,9,2,3,5
1522257399496430,29,7,-7,0,3,-2,-3,-1
1522257399498442,-92,-3,2,0,-4,1,-3,-18
1522257399498442,67,-10,-3,2,3,1,0,0
1522257399518489,39,-25,-13,-9,-16,-9,-3,21
1522257399518489,-68,8,2,-2,12,4,3,0
1522257399520494,-24,-29,-12,-5,-7,-3,-5,2
1522257399520494,-14,-6,7,3,2,-7,-1,-19
1522257399533529,20,-8,-1,0,-2,11,5,1
1522257399533529,55,34,6,4,9,3,5,11
1522257399540547,-55,-12,-6,-7,2,-2,-5,-12
1522257399540547,-29,0,-3,-2,-11,-22,2,8
1522257399556590,17,20,7,7,3,10,-3,-4
1522257399556590,-41,-15,1,6,12,10,0,-17
1522257399557593,86,4,2,-4,-13,-3,-5,21
1522257399557593,0,-24,-4,-3,1,3,-2,-2
1522257399578649,-14,20,-1,-5,-2,-10,-1,2
1522257399578649,8,7,-3,-6,-10,-6,-3,-6
1522257399580654,-30,0,-3,3,7,6,6,3
1522257399580654,-14,5,-2,1,0,-3,2,0
1522257399593688,-24,-2,-4,1,-3,-2,-4,-14
1522257399593688,-20,-1,9,2,6,-1,-1,0
1522257399599704,5,18,5,0,-7,-4,0,8
1522257399599704,16,-1,0,-4,-3,0,-4,-1
1522257399616750,-6,16,2,0,2,1,-1,0
1522257399616750,-54,-21,-12,-6,1,5,-2,-6
1522257399617752,15,30,-3,-2,-1,-1,2,12
1522257399617752,66,5,-1,1,6,0,-1,10
1522257399638808,-47,3,1,-6,-22,-10,-3,-8
1522257399638808,10,-12,-1,5,11,-6,-2,-5
1522257399640814,1,-13,2,7,5,6,0,-12
1522257399640814,42,35,6,8,3,8,7,-7
1522257399652846,-30,-94,-19,-10,-9,-4,-2,12
1522257399652846,-8,27,4,-5,-5,-2,-3,6
1522257399659865,35,-7,-5,-6,-6,-5,-4,-8
1522257399659865,-28,-9,-2,-5,-3,-5,-5,-7
1522257399676909,12,6,2,1,-5,-10,2,-5
1522257399676909,16,-2,-3,2,13,14,5,-8
1522257399677913,-41,-13,-1,-2,15,14,0,-4
1522257399677913,62,-2,-7,-10,-8,2,-4,8
1522257399698970,-63,9,9,8,14,3,-1,-1
1522257399698970,38,10,2,-1,-13,-15,0,6
1522257399700974,1,10,5,4,-6,-6,-4,-15
1522257399700974,-75,-33,-1,1,4,3,4,6
1522257399713005,47,25,-9,-6,-2,-1,9,9
1522257399713005,57,0,0,1,1,2,3,5
1522257399722030,-58,-26,-9,-7,-4,-3,0,1
1522257399722030,-25,4,1,0,-1,1,-4,-6
1522257399736067,8,-9,3,0,4,4,0,-4
1522257399736067,30,7,0,16,15,-12,0,-2
1522257399738072,19,5,-4,-6,4,9,0,-4
1522257399738072,-83,-33,-7,-5,-26,-7,-1,4
1522257399759128,43,31,9,6,19,4,-1,-2
1522257399759128,-29,-14,-7,-14,-9,-5,-9,-3
1522257399760131,-2,-2,1,-17,-5,1,-1,-3
1522257399760131,-16,8,-4,14,17,-1,-1,-9
1522257399772163,1,3,1,7,-8,7,5,2
1522257399772163,1,17,-1,1,-6,-2,1,10
1522257399781187,37,-16,-6,-1,-7,-15,-1,10
1522257399781187,-16,20,6,-5,2,6,-2,-5
1522257399796227,-10,4,3,1,-5,-2,-2,-2
1522257399796227,-52,0,4,2,8,4,0,-7
1522257399798232,55,3,4,0,-10,-6,0,-2
1522257399798232,-16,6,-7,-7,4,9,0,16
1522257399819289,37,-17,-12,-4,0,-8,-3,9
1522257399819289,-8,10,4,-5,-5,6,0,-6
1522257399820291,-27,7,2,5,1,-5,0,-6
1522257399820291,2,-1,7,7,0,-5,2,-18
1522257399832323,-6,20,0,-1,12,-17,-2,8
1522257399832323,70,-19,-5,1,20,21,-1,15
1522257399841346,-24,-22,-7,7,-3,0,3,-2
1522257399841346,51,50,19,6,3,10,4,11
1522257399856387,5,5,7,-3,-7,-1,-3,-5
1522257399856387,-29,-7,-1,0,-14,-9,-2,-8
1522257399858392,-26,-20,-6,-8,16,-2,1,-2
1522257399858392,-21,-20,-9,-4,-1,-1,-1,-4
1522257399879448,36,-9,5,0,-9,4,1,-3
1522257399879448,-98,15,3,5,-4,-7,-2,-2
1522257399880451,62,9,4,4,-9,6,3,1
1522257399880451,-38,7,-5,-9,-7,-7,-3,-5
1522257399892483,58,4,0,4,19,8,-2,16
1522257399892483,26,1,-2,-6,-8,-7,-2,3
1522257399901507,-70,3,-1,-6,-2,-3,-4,-3
1522257399901507,66,11,3,1,0,1,-1,-3
1522257399916546,-69,-11,-7,-4,-11,-2,0,-9
1522257399916546,1,4,5,2,2,1,1,5
1522257399918552,32,-3,4,5,-2,-1,-4,3
1522257399918552,-12,-7,-2,1,-2,-17,-4,-7
1522257399938606,-9,1,-2,-5,2,22,1,-7
1522257399938606,18,-17,-10,-9,-18,-16,-3,-3
1522257399940611,3,5,-4,-1,46,19,0,1
1522257399940611,17,-19,-5,-7,-21,4,0,0
1522257399952642,-21,12,8,13,11,-1,2,0
1522257399952642,-11,18,5,5,2,0,0,-7
1522257399961667,70,-24,-14,-4,-19,-16,-8,12
1522257399961667,-16,-2,-4,-6,-4,-6,-1,3
1522257399976706,-40,-5,-8,-10,-4,-6,-3,-12
1522257399976706,57,-9,-8,-6,-2,1,2,1
1522257399977709,-82,28,14,10,-4,-4,3,-17
1522257399977709,-78,4,5,0,7,3,-1,-10
1522257399998765,22,-1,-12,-4,-13,-5,-4,5
1522257399998765,52,-3,-2,-1,3,0,-3,2
1522257400000770,7,-1,1,-3,-10,1,-5,2
1522257400000770,25,-1,-1,-1,2,-5,-4,0
1522257400012802,-11,13,5,9,1,0,-2,-12
1522257400012802,-47,-14,-6,-6,1,7,-1,-5
1522257400021826,24,7,-5,-5,-5,-7,-1,0
1522257400021826,34,12,4,4,3,6,2,3
1522257400036866,-67,-35,-4,-4,-7,-8,-1,-3
1522257400036866,112,22,-1,0,1,0,0,11
1522257400037869,-127,-16,8,6,-1,5,-3,-26
1522257400037869,82,-13,-18,-11,-3,-8,-3,14
1522257400058927,18,9,3,-4,-13,-17,-3,7
1522257400058927,-63,-14,4,-2,6,14,-4,-8
1522257400060930,18,-22,-3,6,-1,-1,1,2
1522257400060930,-12,15,7,5,4,5,2,-13
1522257400072962,16,-2,-8,-4,0,1,2,2
1522257400072962,-24,-19,-2,-4,-1,-7,-2,3
1522257400081986,12,7,2,-3,-34,-22,0,2
1522257400081986,0,-13,-4,1,32,16,1,-3
1522257400096023,16,13,5,2,8,4,1,4
1522257400096023,-26,-1,1,1,-10,0,2,-8
1522257400098029,64,-11,-12,-12,-10,-3,-4,6
1522257400098029,-68,4,4,0,3,-8,-2,-3
1522257400119085,-5,-1,-4,-3,2,-1,0,0
1522257400119085,-16,4,-2,-6,-20,-7,0,-7
1522257400121090,-6,7,2,13,36,6,0,2
1522257400121090,-21,-9,-5,0,-6,1,-2,-1
1522257400132119,68,12,8,9,6,5,1,3
1522257400132119,6,9,-1,-2,-4,-5,-3,9
1522257400141143,-42,-8,0,-6,-26,-19,-3,-9
1522257400141143,104,5,1,7,27,15,6,7
1522257400156184,-39,31,5,-6,-5,-3,1,14
1522257400156184,-69,-29,-6,-2,-1,-2,-6,-6
1522257400158189,1,16,1,1,9,13,5,6
1522257400158189,-24,-24,-6,0,-11,-5,-5,-9
1522257400179245,43,4,4,2,0,2,1,-8
1522257400179245,-10,13,1,0,8,-4,-1,5
1522257400180247,-19,-36,-11,-5,-1,-2,-3,-5
1522257400180247,35,37,18,-1,-14,-5,2,10
1522257400192279,-41,-11,-1,0,-6,0,-3,-10
1522257400192279,40,12,2,4,1,1,3,-7
1522257400201304,-2,-1,-5,-5,-1,0,-4,1
1522257400201304,-50,-27,-12,-6,-10,-6,-1,-4
1522257400216343,64,-32,8,9,8,4,1,-10
1522257400216343,-53,29,-3,-4,2,-3,-7,19
1522257400218349,-35,-5,-2,-3,-1,0,-5,-5
1522257400218349,-15,7,-3,0,-3,-2,-2,-6
1522257400239405,-91,-27,-3,-1,-1,-4,2,-13
1522257400239405,120,9,-2,2,-1,3,2,9
1522257400240408,34,24,4,1,4,7,2,-4
1522257400240408,-46,-3,-4,-7,-9,-3,-2,16
1522257400252441,37,3,-4,-3,-1,4,-5,-7
1522257400252441,-6,-19,5,0,-3,-5,3,-4
1522257400261463,-31,14,4,1,1,-2,-2,0
1522257400261463,9,-10,0,4,-2,2,-1,-8
1522257400275500,25,-8,-12,-6,-8,-4,-4,4
1522257400275500,8,3,-4,-2,2,-1,-2,4
1522257400282519,11,-23,-3,-3,-6,-15,-1,0
1522257400282519,-35,21,4,3,3,15,-1,-16
1522257400298562,44,9,-6,-6,4,-4,-1,17
1522257400298562,-128,-31,-2,-3,1,-2,-6,-22
1522257400300568,113,12,7,3,4,6,5,13
1522257400300568,-24,-5,4,4,-5,-19,1,-4
1522257400312599,36,4,1,4,3,6,0,6
1522257400312599,-45,-15,-1,1,1,4,5,-10
1522257400321623,-10,-3,-21,-6,-2,-5,-6,-11
1522257400321623,81,16,5,-8,-7,-8,-3,26
1522257400335660,-45,-7,3,0,-22,-1,-3,-7
1522257400335660,13,5,6,14,54,4,-2,-5
1522257400342679,-41,-12,-6,-6,-8,5,3,-3
1522257400342679,-54,-14,-8,-5,-13,-6,-3,-16
1522257400358721,85,42,7,5,5,3,6,6
1522257400358721,-84,-54,-12,-10,-14,-7,-7,2
1522257400360727,19,19,7,0,3,1,-2,2
1522257400360727,10,-19,-6,-4,1,1,0,3
1522257400372759,-19,14,-1,-4,7,-3,-3,-10
1522257400372759,35,20,6,6,-9,2,2,-4
1522257400381783,-41,0,2,5,2,-4,1,-3
1522257400381783,23,-6,0,-2,-7,11,1,-3
1522257400395820,66,41,-1,-3,-7,-4,-3,21
1522257400395820,-50,-49,-13,-8,-1,7,0,-3
1522257400402839,6,16,10,1,-4,-1,0,6
1522257400402839,-25,-15,0,4,3,-1,3,-6
1522257400418882,-13,-41,-18,-2,9,-2,-2,-12
1522257400418882,44,48,12,4,-3,-3,0,7
1522257400420887,-6,-1,0,-2,-4,-1,-1,1
1522257400420887,-25,3,-1,0,4,-5,-4,-8
1522257400441943,30,-14,-1,-3,-18,0,-5,6
1522257400441943,38,9,3,4,34,1,2,-3
1522257400442946,-24,-21,4,3,3,5,2,-6
1522257400442946,80,29,-1,1,5,0,7,27
1522257400455980,-128,-22,-11,-14,-7,-13,-8,-7
1522257400455980,-5,4,2,-1,-15,-2,-2,-2
1522257400462999,15,23,9,5,-3,-3,-1,2
1522257400462999,-36,-29,-4,0,13,16,-2,-13
1522257400480044,35,24,8,4,-1,2,3,5
1522257400480044,23,-18,-5,-3,-9,-2,-2,1
1522257400481047,-50,-1,-7,-5,-1,-5,-2,-6
1522257400481047,42,-8,-5,-3,3,-7,-5,0
1522257400501100,-56,-11,3,0,3,3,2,-6
1522257400501100,34,20,2,2,-9,-7,-1,1
1522257400503105,6,-1,1,1,0,1,0,2
1522257400503105,-23,-5,-4,-6,-4,3,-3,-3
1522257400516140,36,2,4,2,2,2,5,-3
1522257400516140,-49,-6,-1,0,2,0,-5,-10
1522257400522156,21,-8,-11,-6,-23,-1,-2,9
1522257400522156,-16,13,5,-1,15,-6,0,7
1522257400539202,-15,-23,-8,-2,4,5,-3,-1
1522257400539202,59,6,1,-5,-30,-11,1,-4
1522257400540204,16,11,0,0,31,7,0,8
1522257400540204,3,-38,-6,0,-18,-4,-5,-10
1522257400561260,-67,21,7,6,0,-1,0,-11
1522257400561260,45,7,1,-4,-8,3,2,12
1522257400563265,45,1,-3,-6,-6,-5,-4,-4
1522257400563265,-82,-27,0,0,-6,-2,0,-6
1522257400576300,6,4,0,-3,4,-4,-2,8
1522257400576300,37,-12,-9,-4,-1,1,-2,-8
