timestamp,emg1,emg2,emg3,emg4,emg5,emg6,emg7,emg8
1522257430654234,5,0,-1,-5,0,-4,-3,0
1522257430654234,-15,-15,-11,-13,-9,-9,-7,-21
1522257430660251,0,18,1,12,37,3,2,10
1522257430660251,0,-24,19,20,-6,0,-1,-1
1522257430661258,-2,42,-34,-29,-21,-4,7,-8
1522257430661258,-13,-15,15,14,19,-1,-4,2
1522257430662264,32,89,4,16,10,1,6,16
1522257430662264,-37,-80,-4,-24,9,4,11,26
1522257430673285,-35,12,2,-3,-35,-11,-3,-10
1522257430673285,-13,-25,-6,-21,-42,0,-6,-22
1522257430684314,-29,22,-17,-18,8,-4,-7,-1
1522257430684314,17,-52,-7,4,-8,-10,-1,-6
1522257430688325,40,20,26,12,29,7,-1,6
1522257430688325,1,25,2,19,21,2,8,18
1522257430704367,-69,-57,-4,3,-18,-9,-10,-28
1522257430704367,0,21,-10,1,4,-10,-7,-16
1522257430711392,-3,-30,-6,4,-4,-3,-1,2
1522257430711392,52,25,11,21,14,2,3,19
1522257430728440,46,-21,-5,-29,-17,2,3,-11
1522257430728440,-104,17,-16,-23,-31,2,-1,-22
1522257430733445,58,-1,3,1,-12,1,-3,10
1522257430733445,-64,-1,1,1,30,3,-3,-12
1522257430748485,-42,-23,2,-1,-38,-13,-3,-7
1522257430748485,21,24,2,7,42,21,2,-3
1522257430789594,62,3,4,4,3,6,5,18
1522257430789594,-71,5,-4,-6,-6,17,-4,-19
1522257430790597,101,4,-3,-1,-1,-1,4,7
1522257430790597,-82,-15,-7,-5,-8,4,-5,-23
1522257430793605,-13,-2,2,0,-8,0,7,10
1522257430793605,36,10,0,-8,28,-24,0,16
1522257430794608,-87,-14,-10,2,-33,-3,-1,-20
1522257430794608,92,10,2,6,25,21,-3,10
1522257430801626,-17,4,4,5,-3,4,4,8
1522257430801626,57,10,-3,-13,-12,-28,-7,-11
1522257430807642,-26,-14,5,5,-16,17,5,-10
1522257430807642,95,16,-6,-4,-4,-2,-2,11
1522257430824687,-125,4,2,0,12,-31,-7,-24
1522257430824687,83,-10,-7,-3,-33,48,-2,18
1522257430830703,-16,-4,-1,-9,11,0,-3,-1
1522257430830703,-12,-12,5,-3,-64,5,10,-9
1522257430839727,88,6,1,18,77,15,0,-6
1522257430839727,10,7,-2,-1,-25,-23,0,1
1522257430861786,-3,3,1,4,8,-4,-1,0
1522257430861786,-5,-2,0,-4,8,-2,1,9
1522257430863791,5,-4,-5,-9,-30,-12,-8,-9
1522257430863791,-40,-12,3,9,15,0,0,-4
1522257430875823,15,1,1,-1,14,3,-8,0
1522257430875823,1,8,-1,-1,14,-13,-3,7
1522257430884847,1,-7,-7,-9,-26,-5,-10,-5
1522257430884847,-3,-18,-10,4,13,5,3,14
1522257430900890,-89,-22,-4,-6,4,-7,-8,-10
1522257430900890,-20,11,0,1,-9,-10,-9,0
1522257430902895,-4,-1,3,3,0,6,-4,-8
1522257430902895,17,36,25,26,23,9,4,8
1522257430921945,31,-22,-12,-11,-26,-8,1,6
1522257430921945,-16,-41,-13,-1,15,-4,-6,-18
1522257430923951,1,27,-2,-6,-1,10,3,-1
1522257430923951,-22,-29,-5,-27,-30,-9,2,-20
1522257430934980,17,-9,-5,14,10,-8,-1,5
1522257430934980,-20,37,14,3,15,-1,11,18
1522257430945007,3,-5,1,27,5,0,1,7
1522257430945007,-9,11,-11,-4,-13,3,2,-1
1522257430959044,13,-20,-21,-62,-34,1,4,13
1522257430959044,-8,12,16,0,4,-2,-9,-16
1522257430961050,13,-48,-18,-8,-9,-7,-1,0
1522257430961050,-21,14,-13,24,45,1,-1,-7
1522257430982106,5,11,53,43,34,-1,-7,6
1522257430982106,-14,-43,-10,25,35,5,0,20
1522257430983109,13,64,-6,-69,-69,-9,1,-12
1522257430983109,-23,-25,-7,-15,-47,-5,-3,-6
1522257430995140,33,28,-20,-4,6,-2,4,9
1522257430995140,-41,8,9,-2,0,-9,-1,-24
1522257431004164,-15,-43,-5,4,-6,-4,-5,-4
1522257431004164,25,1,-7,-3,-14,-2,0,6
1522257431019204,31,23,3,12,62,10,4,8
1522257431019204,-55,1,6,9,1,3,1,-5
1522257431021209,-19,-17,-4,3,6,7,3,10
1522257431021209,-17,-2,3,-6,1,-4,1,-6
1522257431042265,85,27,7,11,-2,5,12,24
1522257431042265,-38,-12,-5,-8,-15,-10,-8,-22
1522257431043268,-8,-3,-3,-5,3,5,-11,-4
1522257431043268,-22,-4,8,5,16,3,-2,-12
1522257431055300,51,-4,0,2,-12,-14,-2,-2
1522257431055300,-13,6,-7,-17,-9,15,7,3
1522257431064324,-39,8,7,-1,-2,-4,1,3
1522257431064324,-25,-7,4,1,8,4,-6,-15
1522257431079364,-98,4,-2,-13,-45,3,2,-19
1522257431079364,62,-5,-11,-5,30,-29,-4,10
1522257431081369,52,3,7,19,42,34,5,12
1522257431081369,34,0,3,9,6,-1,3,7
1522257431101423,-57,6,1,-1,-1,-10,6,1
1522257431101423,18,8,-1,-4,-28,10,-6,-25
1522257431103428,-40,-7,-1,3,-6,-7,1,10
1522257431103428,4,-3,-9,-11,4,-24,-11,5
1522257431115460,47,2,1,4,-11,18,-5,3
1522257431115460,30,5,2,4,-5,8,2,3
1522257431124484,-28,-2,-2,5,6,-3,1,-15
1522257431124484,-17,4,0,-3,-9,4,4,0
1522257431139524,-59,-14,14,11,7,-14,12,1
1522257431139524,121,86,28,-9,-8,-19,25,79
1522257431140527,-81,-69,-42,-59,-92,-2,-44,-76
1522257431140527,24,-32,4,60,89,28,-8,3
1522257431163588,27,-7,-11,0,0,-1,-16,-15
1522257431163588,6,-13,8,32,21,13,13,11
1522257431164591,27,38,19,-2,-25,-29,14,28
1522257431164591,21,15,-4,-24,-30,-6,-1,6
1522257431175620,-45,-22,-5,0,8,-2,-10,-12
1522257431175620,-35,-9,-12,-19,-24,-1,-12,-16
1522257431184644,26,2,5,9,17,-7,-5,-1
1522257431184644,12,-4,-31,-12,-13,-3,-7,0
1522257431199684,31,55,56,12,15,7,2,2
1522257431199684,-32,-30,-10,-8,-20,-13,-17,-31
1522257431200688,15,1,-1,13,19,5,4,7
1522257431200688,-7,-27,-5,3,-1,-2,10,9
1522257431221742,8,51,-8,-14,-22,-7,1,-1
1522257431221742,-19,-44,0,0,11,7,1,-5
1522257431223748,33,24,-23,20,28,6,13,20
1522257431223748,9,-15,31,-7,-13,2,11,6
1522257431235780,1,-34,-8,-20,-26,-4,-1,-6
1522257431235780,-27,-4,-10,3,8,3,3,-2
1522257431244804,-4,23,9,-1,-4,1,12,1
1522257431244804,14,-11,-26,-25,-21,-9,7,12
1522257431259844,-15,-14,-13,8,18,0,-6,-16
1522257431259844,-3,-3,10,6,10,4,5,1
1522257431260846,23,-11,-12,-7,1,-8,1,8
1522257431260846,-18,9,3,-4,-66,-2,2,2
1522257431281902,2,-52,-14,11,61,7,-4,-1
1522257431281902,21,85,15,18,-4,-2,0,10
1522257431283908,-22,-52,14,50,72,8,-3,4
1522257431283908,-16,28,35,-7,-18,6,0,-11
1522257431295940,-2,6,-50,-87,-93,-9,5,0
1522257431295940,8,-42,-45,-20,-23,-9,-12,-7
1522257431304964,32,-1,25,22,16,-4,-4,22
1522257431304964,-25,29,36,32,37,2,-5,-23
1522257431319001,33,8,-8,9,17,5,0,9
1522257431319001,-76,-12,-9,-16,2,0,-17,-28
1522257431321006,-71,-25,-15,-20,-22,-6,-9,-19
1522257431321006,3,-17,-13,11,24,-11,-12,-8
1522257431342062,22,4,5,8,-2,-11,3,12
1522257431342062,101,16,2,-6,-39,-14,12,17
1522257431343065,-63,-14,5,8,40,23,-1,-12
1522257431343065,20,-3,-15,-8,12,4,0,9
1522257431355097,-83,-7,-1,5,10,-1,-10,-21
1522257431355097,20,-5,8,6,3,3,5,18
1522257431364120,72,30,3,-12,-26,-13,-2,-16
1522257431364120,-64,-14,-10,-15,-3,-3,-1,3
1522257431379161,3,9,5,3,-9,2,0,5
1522257431379161,44,-5,1,-4,7,-11,-1,5
1522257431385177,24,12,1,-11,-21,18,5,-2
1522257431385177,43,9,-7,-8,-8,-27,-3,-6
1522257431402222,-8,-9,5,17,17,34,1,-8
1522257431402222,-61,-5,2,3,-2,1,0,-6
1522257431403225,43,13,4,-10,2,-2,13,17
1522257431403225,26,-2,-1,-24,-5,-15,-6,-8
1522257431415256,-55,7,0,29,-73,-17,-2,-5
1522257431415256,53,-7,-8,6,72,52,-6,1
1522257431424281,19,5,4,2,5,-8,8,11
1522257431424281,17,18,10,28,9,16,15,21
1522257431438318,-96,-8,2,4,14,2,0,-40
1522257431438318,6,-16,-14,-16,-19,-14,-24,-26
1522257431445337,42,-4,-1,-5,-27,-11,-2,5
1522257431445337,-82,4,-1,-8,8,1,-4,10
1522257431462382,-62,10,14,-8,12,2,8,22
1522257431462382,73,15,2,6,-13,-2,8,2
1522257431463385,-74,-3,-8,-10,7,-15,-17,-17
1522257431463385,15,0,-1,-1,-15,4,-2,-2
1522257431484441,13,-1,-2,2,14,0,-5,5
1522257431484441,-38,-4,1,-8,-6,-7,-4,-2
1522257431486446,32,11,4,1,-13,-8,5,21
1522257431486446,-17,-5,-7,-4,-92,3,-2,-12
1522257431498479,72,-5,-6,16,99,8,-10,-10
1522257431498479,-89,-6,5,-3,-1,25,5,9
1522257431505497,7,0,-7,5,-11,-7,-10,-16
1522257431505497,10,21,-16,0,-2,-4,-5,-3
1522257431521539,69,-28,15,-6,-13,-14,-5,-2
1522257431521539,-7,5,3,-4,-16,-17,1,-9
1522257431523544,-9,1,8,0,9,9,-2,-6
1522257431523544,3,-24,-14,-1,23,-2,1,4
1522257431544602,23,46,3,-6,-25,-6,-6,-9
1522257431544602,-9,-39,9,3,11,-1,3,0
1522257431545604,4,75,-26,3,-10,-2,1,4
1522257431545604,-15,-85,56,25,29,9,7,-4
1522257431558638,20,6,-15,-18,-25,-1,8,34
1522257431558638,-20,-15,-18,-2,-7,-6,-5,-5
1522257431565656,-4,12,25,10,14,6,7,1
1522257431565656,17,24,-15,-12,-1,-1,6,10
1522257431581699,9,0,-10,-4,-7,-2,-7,-9
1522257431581699,-9,-9,11,17,0,-8,4,4
1522257431583705,13,-19,-10,-10,2,4,7,6
1522257431583705,-16,12,-15,-3,38,4,1,4
1522257431604760,-12,33,19,-14,-43,-15,-8,-11
1522257431604760,-8,-67,-23,-15,-8,1,2,6
1522257431605763,30,57,23,11,17,-8,7,2
1522257431605763,-16,28,21,9,-36,1,-16,2
1522257431618800,-7,-22,-23,-11,17,6,2,-13
1522257431618800,5,-15,38,52,17,-4,-13,-6
1522257431625816,-20,-3,-13,-13,-4,3,-4,-7
1522257431625816,21,14,-12,-57,-23,3,13,-2
1522257431641859,-44,-7,-1,7,-2,-7,-7,-12
1522257431641859,1,-15,-17,17,33,-9,-5,-9
1522257431643865,-16,-2,19,18,-13,-2,-1,-2
1522257431643865,22,12,-18,-26,-21,-1,10,0
1522257431664921,19,-21,-5,-8,-3,9,4,3
1522257431664921,-6,17,0,-8,-4,-3,-3,-3
1522257431665923,-20,-7,-10,9,6,-5,-11,7
1522257431665923,30,-52,4,20,19,-1,-5,-4
1522257431678959,31,14,3,6,6,0,5,7
1522257431678959,35,30,6,-7,-9,-7,-1,-12
1522257431685976,-40,-35,-7,-13,-4,10,-4,-20
1522257431685976,-38,-4,-11,-3,11,-11,-7,-9
1522257431702019,47,5,7,4,-38,0,12,20
1522257431702019,-4,26,-4,-7,47,21,4,40
1522257431703021,-80,-30,-7,-27,-50,-37,-5,-42
1522257431703021,44,12,4,13,-62,0,0,-2
1522257431724077,-60,-21,-21,14,103,32,-25,-22
1522257431724077,29,24,2,-6,-26,7,10,8
1522257431726083,57,-11,0,-9,-15,6,10,13
1522257431726083,17,28,15,21,15,-13,-1,-4
1522257431738114,-51,-40,0,2,14,-4,7,11
1522257431738114,19,14,-12,-20,-25,0,-5,-18
1522257431747139,-46,-25,-1,0,-25,-27,-1,12
1522257431747139,90,-2,-2,5,37,25,-4,7
1522257431760173,72,26,5,-1,-17,-14,0,9
1522257431760173,-20,-8,-3,-3,13,10,0,-7
1522257431777219,-27,18,5,3,-14,11,4,8
1522257431777219,13,7,-8,-4,3,-18,-9,-5
1522257431784237,29,-5,4,2,-2,2,0,0
1522257431784237,-127,-12,-6,-10,-26,-13,-2,-18
1522257431786243,76,-2,1,-1,4,-6,-3,-1
1522257431786243,-7,0,-9,3,38,9,-5,14
1522257431807298,5,5,1,-7,-97,-8,-1,2
1522257431807298,47,22,4,6,42,10,1,-13
1522257431808301,-35,-16,-6,-2,20,15,-8,-8
1522257431808301,-51,-3,-4,6,17,-3,7,2
1522257431820333,31,-9,-4,-5,-25,-21,-2,-4
1522257431820333,-4,28,17,-3,-22,-11,2,4
1522257431829358,18,1,3,5,9,21,-4,5
1522257431829358,2,-38,-11,-8,-5,-10,-2,6
1522257431844397,-2,24,6,-4,11,-3,-1,4
1522257431844397,16,-2,5,-2,-11,4,5,3
1522257431846403,24,-10,-31,4,41,2,2,3
1522257431846403,-20,-13,51,21,-6,1,1,10
1522257431866456,-5,-11,-16,-13,-1,-3,2,0
1522257431866456,14,-39,-11,-1,-2,1,-2,1
1522257431868461,21,-4,17,2,-20,-2,0,0
1522257431868461,-26,33,-20,-17,-11,-5,-2,-7
1522257431880493,14,-10,5,18,30,5,0,0
1522257431880493,-20,-9,3,0,-13,-10,1,-18
1522257431889517,27,-7,-24,-23,-12,-1,5,13
1522257431889517,-18,6,-7,2,7,5,-2,-8
1522257431903554,-18,-14,11,-1,16,-3,-7,-10
1522257431903554,21,49,-13,-1,-5,-8,0,2
1522257431910573,12,-17,17,20,17,2,-6,0
1522257431910573,-29,-6,10,-9,-6,-1,-5,-10
1522257431926616,-5,19,-1,-18,-16,-3,-2,7
1522257431926616,14,12,-10,-3,-5,-2,0,16
1522257431928621,7,2,8,6,4,4,-2,6
1522257431928621,-13,-35,-4,12,9,1,-7,-21
1522257431940653,-13,-2,-8,-9,-5,-1,1,0
1522257431940653,-25,5,2,-7,-12,0,-6,-20
1522257431949678,-10,-19,-5,-14,-9,-3,6,-1
1522257431949678,27,14,-9,3,4,0,7,7
1522257431963714,3,-10,-5,4,-17,-3,0,-3
1522257431963714,-4,1,1,4,14,0,0,1
1522257431970733,-2,-31,-14,-3,19,2,-3,-7
1522257431970733,-12,31,10,-5,0,0,2,-4
1522257431986775,9,-2,-2,-1,-8,0,7,-11
1522257431986775,-12,-3,1,-4,-7,-20,-1,7
1522257431988781,19,5,5,12,3,13,-3,2
1522257431988781,18,-6,-13,0,7,4,-3,5
1522257432009838,-39,2,6,6,15,1,-4,-17
1522257432009838,12,-12,-2,-2,-12,3,-1,6
1522257432010840,51,15,-1,-9,-7,-9,-3,5
1522257432010840,-71,-16,-6,-9,-8,-18,-4,-16
1522257432023874,83,17,4,5,5,5,5,14
1522257432023874,-26,-17,-5,-5,2,23,-8,-25
1522257432030893,-84,8,3,1,-5,8,8,-4
1522257432030893,70,16,-8,-4,-9,-13,-6,5
1522257432046935,-5,-13,-2,2,12,-10,0,10
1522257432046935,42,3,2,0,-25,-6,7,5
1522257432048941,-2,10,-2,-6,-22,2,-1,4
1522257432048941,19,-4,-3,-3,5,5,6,12
1522257432068994,-4,2,4,23,82,-12,4,8
1522257432068994,3,-5,-1,-8,4,21,-4,-8
1522257432071000,17,14,2,2,-22,-3,-6,-4
1522257432071000,-41,-3,4,0,-8,-2,1,-3
1522257432084034,124,28,0,-5,-47,-16,-7,30
1522257432084034,-93,-39,-16,-9,22,24,-17,-29
1522257432090050,-44,-11,1,0,6,2,-5,-15
1522257432090050,-16,-1,-8,-3,-1,8,-5,-4
1522257432107095,25,30,2,-1,-6,4,1,11
1522257432107095,-26,-24,-3,4,-11,-21,4,-2
1522257432108098,15,26,18,1,0,-14,-5,3
1522257432108098,16,1,-2,1,3,8,-2,-5
1522257432129154,-59,-6,0,-1,1,9,3,-7
1522257432129154,25,-5,-7,-4,-16,-25,-1,17
1522257432131159,6,-34,-18,-4,14,11,-9,-18
1522257432131159,16,16,7,1,0,-3,-2,-5
1522257432143191,-29,-1,1,-3,-11,0,1,-6
1522257432143191,7,5,9,10,6,2,-1,2
1522257432152215,30,22,-3,-2,1,-11,4,4
1522257432152215,-13,-56,-11,-10,-9,-3,-2,-1
1522257432167255,-43,14,-11,-7,-7,10,-2,-12
1522257432167255,24,-3,15,0,-4,-10,4,-4
1522257432168258,5,23,5,6,9,0,8,-1
1522257432168258,1,6,-4,7,2,5,0,0
1522257432189314,-26,-21,-3,-4,-3,-1,-4,-12
1522257432189314,25,19,-2,0,3,-3,5,11
1522257432191319,-4,-3,-1,-4,-4,-5,6,-5
1522257432191319,0,-4,-4,-3,-2,0,-1,-3
1522257432203351,5,-11,0,5,12,-2,-3,-4
1522257432203351,-2,-13,3,20,14,-3,-3,4
1522257432212375,14,33,-6,-5,-18,2,-3,2
1522257432212375,-35,-50,-9,-35,-25,-4,3,-16
1522257432226412,4,27,6,15,9,1,-4,10
1522257432226412,24,-20,7,18,11,3,8,19
1522257432228418,-11,-15,-8,-16,-2,-1,-2,7
1522257432228418,6,16,-5,-17,-14,-1,-2,-10
1522257432249474,-13,-20,-17,-23,-15,-5,-5,-8
1522257432249474,10,31,7,15,20,-2,2,2
1522257432251479,-7,23,25,21,7,-6,-5,-5
1522257432251479,17,-5,-3,-4,-2,0,3,13
1522257432263511,-32,-29,-1,-1,7,-1,-1,1
1522257432263511,15,20,-12,-9,-36,-9,-5,2
1522257432271532,-7,-30,-12,8,20,-2,-5,1
1522257432271532,-18,35,10,8,6,-6,-5,-10
1522257432286572,24,-15,2,3,2,2,0,-2
1522257432286572,-12,0,-1,-12,-11,1,-6,16
1522257432288578,-30,-6,-3,-7,-16,-20,2,-1
1522257432288578,4,8,3,15,26,28,1,4
1522257432309634,0,-8,-6,-3,-11,1,2,-1
1522257432309634,24,5,-3,-16,-3,6,6,2
1522257432310639,39,-16,-3,-7,1,3,5,12
1522257432310639,-37,12,3,9,6,-8,-1,-13
1522257432322668,3,-9,-1,-14,-56,-31,-1,-4
1522257432322668,-5,5,1,-6,42,12,3,-1
1522257432331692,-7,-8,-6,5,7,19,-8,-13
1522257432331692,-16,2,0,2,3,9,5,6
1522257432346732,-12,2,3,6,5,13,-2,-10
1522257432346732,-42,4,-4,-9,-22,-12,-1,-6
1522257432348737,49,0,1,0,1,-4,0,16
1522257432348737,-84,-8,3,4,11,-7,-10,-18
1522257432369794,-8,13,5,-1,-12,0,9,20
1522257432369794,97,1,-1,-2,-11,-21,-4,4
1522257432370796,-76,-21,-6,-4,9,20,-11,-20
1522257432370796,98,12,-4,-3,-19,-12,0,18
1522257432382828,-121,-31,-4,-1,14,-12,-11,-32
1522257432382828,77,20,-4,-3,-10,18,2,-4
1522257432391852,74,-3,-1,-2,3,-2,5,12
1522257432391852,-50,-15,-7,-2,-4,-8,-3,4
1522257432405889,16,21,12,6,0,6,3,1
1522257432405889,-4,-2,0,0,0,-13,2,1
1522257432412908,-22,-7,-1,-5,0,6,2,-3
1522257432412908,7,-8,-6,2,30,6,0,-2
1522257432428951,28,-4,-4,5,13,13,1,5
1522257432428951,-38,-1,-2,-5,-53,-2,-4,-6
1522257432430956,8,10,-1,3,39,-8,0,-3
1522257432430956,13,6,4,4,-33,-7,0,5
1522257432452012,3,5,1,0,25,3,-7,1
1522257432452012,-17,-14,-9,-7,-5,-2,-3,-2
1522257432453015,-1,-6,-17,-8,-16,-12,-5,-2
1522257432453015,5,26,30,8,2,5,2,0
1522257432467052,51,27,-1,1,-3,2,0,8
1522257432467052,-49,-20,5,2,14,2,2,-17
1522257432468055,-17,-38,-15,4,-12,-1,-4,6
1522257432468055,5,19,3,-6,3,-3,-2,3
1522257432489110,3,11,-8,-13,-14,2,-3,-6
1522257432489110,-13,-2,7,15,25,3,3,7
1522257432491116,-14,16,17,1,-7,1,10,-3
1522257432491116,32,-20,-14,-11,-18,-1,6,1
1522257432504151,-5,-33,-14,-10,-14,-3,0,3
1522257432504151,-25,32,12,15,18,2,4,-22
1522257432512173,21,-4,9,22,5,-1,6,13
1522257432512173,-15,8,-24,-39,-17,-10,-3,-10
1522257432527214,9,31,-10,-10,-5,-5,-4,-5
1522257432527214,-1,-63,11,35,59,-3,-3,12
1522257432528215,31,-5,-11,-18,-89,-4,-2,6
1522257432528215,-16,24,-14,-12,10,1,-2,-11
1522257432549270,-8,-40,33,2,2,3,1,-22
1522257432549270,-39,18,-3,-12,-8,-2,-15,-15
1522257432551276,-15,-53,-5,26,31,-4,-1,6
1522257432551276,35,34,9,14,1,-3,-5,-6
1522257432563308,25,-23,-15,0,1,0,7,6
1522257432563308,29,34,-2,-14,-10,5,0,8
1522257432572332,-30,6,5,-12,0,-5,-10,-15
1522257432572332,-19,-29,-9,4,9,3,2,-1
1522257432586369,2,-8,-1,9,14,2,1,6
1522257432586369,0,23,4,-2,-15,0,4,6
1522257432588374,32,17,-10,-22,-2,-5,5,1
1522257432588374,5,11,14,15,9,11,3,23
1522257432609430,76,-2,3,6,2,0,9,18
1522257432609430,-56,-18,-22,-22,-12,-1,-8,-21
1522257432611436,-2,20,6,-7,-5,-20,2,11
1522257432611436,23,-25,9,14,11,16,-1,-11
1522257432623468,26,22,-1,3,-1,-6,-4,12
1522257432623468,82,-13,-17,-20,-49,11,-4,-10
1522257432632492,-66,13,7,4,46,2,0,-6
1522257432632492,-81,-23,2,-8,-30,-25,0,-28
1522257432646529,64,4,-8,23,37,3,-8,4
1522257432646529,31,11,0,5,30,5,4,19
1522257432648534,56,4,11,1,-8,5,5,3
1522257432648534,-26,-4,-8,-1,12,5,-5,7
1522257432669590,-25,-9,-12,-21,-35,-24,-19,-26
1522257432669590,75,-2,-7,-8,-18,-4,-11,-1
1522257432670593,127,10,-1,4,49,21,7,17
1522257432670593,-23,2,2,2,-14,-20,-1,-4
1522257432682625,-13,11,11,4,-5,5,4,-2
1522257432682625,23,21,-2,-1,3,-2,1,12
1522257432691648,-90,-29,-11,-15,-23,0,-17,-39
1522257432691648,38,-8,0,5,3,-1,-2,-2
1522257432706689,-81,-4,2,2,3,5,0,-5
1522257432706689,-27,-1,3,1,14,1,8,10
1522257432708694,61,13,-4,-12,-11,-32,-6,3
1522257432708694,0,-3,-6,-3,-69,26,-3,-1
1522257432730753,5,-8,-3,28,89,18,0,2
1522257432730753,-67,-15,-2,-1,-13,-12,-5,-11
1522257432732758,-32,2,1,5,-9,-3,-7,-6
1522257432732758,35,-1,-4,-4,4,-30,-8,14
1522257432742784,-3,14,-4,-16,-27,22,1,1
1522257432742784,-13,-18,-9,-1,-7,-3,-4,-6
1522257432751809,-31,21,24,5,0,7,-5,-2
1522257432751809,18,-10,1,6,16,-3,-1,3
1522257432766849,-7,-15,-15,-2,-12,-12,-3,-8
1522257432766849,-8,-21,-8,13,29,-3,2,-1
1522257432768854,17,48,36,2,-11,13,11,-6
1522257432768854,3,-28,-11,-25,-21,-6,-1,-2
1522257432789910,1,-14,8,9,0,0,4,-2
1522257432789910,-3,25,-7,-15,-15,1,6,17
1522257432790913,1,-16,-21,-19,-15,-3,2,-4
1522257432790913,27,-16,1,20,26,2,4,-1
1522257432802944,-15,21,13,-1,-8,-6,-3,-10
1522257432802944,13,-5,-2,0,-6,-4,4,-4
1522257432811969,1,-3,-15,-2,-7,2,0,5
1522257432811969,17,28,-12,-16,15,1,-3,-6
1522257432827012,-13,-62,3,-14,-32,-4,-1,-13
1522257432827012,-17,-7,-21,4,1,-6,-4,0
1522257432828012,-27,48,64,40,29,0,-4,-3
1522257432828012,21,-22,10,23,19,11,5,8
1522257432849067,-14,18,-26,-32,-15,-5,3,3
1522257432849067,-13,-46,-1,-7,-4,3,3,-2
1522257432851073,-17,7,-17,-9,-7,-2,-1,-3
1522257432851073,44,17,15,29,21,0,0,3
1522257432863104,-28,-1,17,16,3,2,1,-6
1522257432863104,6,18,-7,-33,-25,-3,0,1
1522257432872128,5,-54,-29,-5,1,0,-2,2
1522257432872128,1,30,-4,0,-28,-2,-5,20
1522257432886166,0,8,35,39,54,0,-4,-7
1522257432886166,-10,-20,-13,-21,-31,-7,-2,-9
1522257432893185,14,34,-7,-21,0,6,3,4
1522257432893185,-16,-28,-16,-17,11,2,0,-6
1522257432909227,7,12,-14,-16,-20,-9,-1,12
1522257432909227,23,17,24,34,24,-18,-3,-2
1522257432911232,70,-3,-1,11,14,24,10,30
1522257432911232,-49,-6,1,-1,0,5,12,-16
1522257432932288,-33,-2,-13,-10,-1,-22,-9,-13
1522257432932288,6,11,8,-1,-32,14,-4,-3
1522257432933291,-102,-44,-16,-6,-17,2,-3,-14
1522257432933291,70,27,7,2,18,7,4,6
1522257432946326,111,6,-8,-34,7,-14,-9,19
1522257432946326,22,4,9,-17,-110,-8,11,21
1522257432953344,-54,1,-7,46,84,11,-4,-13
1522257432953344,-34,-1,4,14,-6,23,-6,-8
1522257432969387,-84,-3,1,14,-14,-6,9,-9
1522257432969387,59,4,-3,-12,-17,12,-8,7
1522257432971392,-22,-5,2,-13,-45,-1,3,6
1522257432971392,41,12,8,5,37,-16,-3,6
1522257432991445,49,-14,-9,-12,-23,7,-1,10
1522257432991445,-71,-2,4,8,31,-10,-7,-12
1522257432993451,-1,3,1,-4,1,-23,-3,-7
1522257432993451,31,-2,-13,-8,-11,5,-8,5
1522257433006485,-4,25,-4,-8,-16,4,5,8
1522257433006485,2,5,18,21,46,10,11,3
1522257433013504,22,-10,-13,-6,-1,-10,-9,-6
1522257433013504,-53,-17,-1,-15,-34,-12,-2,0
1522257433029547,30,-3,-5,3,2,6,-1,6
1522257433029547,-42,1,3,12,43,-1,0,-10
1522257433030549,37,-9,-7,-10,-37,-13,0,-10
1522257433030549,-15,4,-1,-5,-5,10,0,-2
1522257433051605,-11,7,5,10,4,12,4,2
1522257433051605,-24,-9,-6,3,16,-5,-7,-16
1522257433053611,-21,-7,-2,-7,-12,0,-1,4
1522257433053611,4,6,0,0,-11,-13,-1,-6
1522257433066645,-11,0,-3,4,24,2,1,-1
1522257433066645,26,-21,-2,-4,-3,1,-3,-1
1522257433072661,-19,16,-4,-2,-3,-4,-1,-1
1522257433072661,0,-1,10,3,10,-5,-1,-8
1522257433089706,-5,19,2,-2,-12,1,-3,3
1522257433089706,6,-14,2,6,12,0,-3,7
1522257433090709,21,-5,-5,-3,-18,-1,0,-1
1522257433090709,4,-11,-1,5,16,1,5,5
1522257433111765,-22,-28,-23,-18,-28,-5,-5,-23
1522257433111765,-6,0,12,10,21,2,-3,1
1522257433113771,23,42,-5,4,20,3,6,15
1522257433113771,-22,0,0,-11,-29,-4,1,-2
1522257433125802,-3,-25,-4,-10,-38,-6,-4,-7
1522257433125802,-11,10,-8,5,38,4,0,-10
1522257433132821,12,-36,0,-4,1,-5,1,1
1522257433132821,0,1,0,5,-18,-2,7,1
1522257433149867,-10,23,2,12,29,0,-3,5
1522257433149867,57,-19,11,16,10,3,-2,13
1522257433150869,17,-33,-11,-10,20,4,-3,-21
1522257433150869,-55,9,6,-8,-24,-14,-8,-12
1522257433171925,27,8,28,24,13,2,0,8
1522257433171925,47,57,16,36,-3,0,7,18
1522257433173931,-3,11,-39,-72,-46,-10,-1,-21
1522257433173931,-33,-23,4,-31,5,2,-7,-10
1522257433185962,-5,17,-6,-14,-18,-4,-3,-2
1522257433185962,-8,-32,-5,8,32,0,-4,15
1522257433194986,-7,-21,24,41,8,-1,0,8
1522257433194986,122,61,6,-1,-17,-3,9,27
1522257433209024,-56,-10,-1,5,46,-2,-11,-27
1522257433209024,5,-19,-18,-16,-23,-7,-6,-12
1522257433211029,5,-7,-3,6,-18,-16,-2,1
1522257433211029,41,-2,-3,8,20,3,-1,3
1522257433232085,56,2,5,9,-6,25,15,38
1522257433232085,-66,8,-4,-15,-12,5,6,-12
1522257433233088,-23,-1,4,-2,5,4,-3,-8
1522257433233088,8,3,-4,4,-2,-10,-4,-1
1522257433245120,24,-1,1,-1,-11,-13,8,9
1522257433245120,-50,-6,-11,-18,-13,8,0,-15
1522257433254143,-19,15,12,5,-25,-14,-2,2
1522257433254143,9,-17,-3,15,61,26,-7,-7
1522257433269184,-62,-17,-10,-8,-7,19,-4,-14
1522257433269184,9,11,2,-14,-11,-4,2,2
1522257433271189,20,13,9,12,-5,2,1,6
1522257433271189,-50,-22,-7,10,25,-4,2,-8
1522257433292245,108,9,-3,-5,-3,-7,3,17
1522257433292245,-67,-1,0,-4,-4,-10,-9,-30
1522257433293248,49,-7,-6,-1,0,16,-2,15
1522257433293248,26,-3,-8,-7,-14,-5,-5,3
1522257433305280,-69,-24,-5,-2,-3,0,-5,-12
1522257433305280,50,18,8,0,-30,-5,7,-1
1522257433314303,-29,30,8,13,44,-9,-1,5
1522257433314303,-58,-12,-10,-7,1,13,-9,-9
1522257433329343,16,-4,-3,-2,-18,-4,-4,4
1522257433329343,64,-1,-9,-7,-11,3,-3,5
1522257433331349,-61,-39,1,0,12,-4,-1,-10
1522257433331349,30,12,5,-10,-14,-11,2,1
1522257433351402,-4,-5,0,-2,-13,-17,-11,-9
1522257433351402,-20,4,-5,9,11,2,4,2
1522257433353407,1,4,4,3,7,-5,0,7
1522257433353407,36,-6,-2,0,-16,30,-4,-4
1522257433365439,-44,1,0,4,32,-5,-7,-20
1522257433365439,-21,-3,-2,-8,-4,-7,-5,3
1522257433374463,39,10,-2,0,-12,-3,-2,5
1522257433374463,-14,-10,-4,-1,-5,-20,4,-12
1522257433389503,-22,5,-2,-7,-12,-1,1,3
1522257433389503,31,31,0,-2,9,8,-1,4
1522257433391509,12,-30,3,0,-1,5,0,-7
1522257433391509,0,20,-12,-5,-12,-7,4,0
1522257433411562,43,2,14,6,12,9,8,3
1522257433411562,6,-26,5,6,6,-4,0,3
1522257433413567,-9,-67,-19,12,1,5,-3,-8
1522257433413567,-22,99,42,2,-18,-6,7,-6
1522257433425599,-12,-3,12,-11,-15,5,8,10
1522257433425599,4,5,-4,-2,7,-1,-1,18
1522257433434623,-3,-34,1,10,7,4,3,-1
1522257433434623,0,-28,-24,-11,-3,-10,0,2
1522257433449663,5,14,-12,-9,-1,-5,2,4
1522257433449663,-24,14,-4,-12,-48,-5,5,-8
1522257433450666,18,4,3,5,52,12,-3,2
1522257433450666,-13,-20,2,12,-8,-4,-1,7
1522257433471722,6,0,1,7,8,1,-1,-2
1522257433471722,7,2,-10,-16,13,-10,-15,-18
1522257433473727,16,-15,-1,-5,-59,-6,-4,0
1522257433473727,-3,-1,-25,7,33,-1,-5,-6
1522257433485759,-33,3,43,14,-2,-1,1,-23
1522257433485759,5,17,-17,-1,8,7,1,7
1522257433494783,-24,-34,-1,-12,-13,-7,-6,-10
1522257433494783,2,-18,5,12,14,0,1,15
1522257433509823,20,32,-11,4,-8,2,5,-5
1522257433509823,5,-10,-13,-23,-4,-1,6,-14
1522257433510826,-13,43,11,-13,-3,4,4,-2
1522257433510826,-7,-40,-6,3,5,-2,6,-4
1522257433531882,12,4,-2,13,-14,0,-4,1
1522257433531882,11,10,14,14,15,5,13,15
1522257433533887,12,20,-15,-1,-2,-5,-14,1
1522257433533887,-9,-30,1,-13,-11,-4,-12,-13
1522257433545919,-1,2,0,-6,-7,-3,5,4
1522257433545919,6,-14,-2,-4,-3,2,-2,4
1522257433554943,42,22,-2,-1,-1,4,7,-5
1522257433554943,-51,-31,-3,1,-1,-19,-8,-28
1522257433568980,36,12,-9,-10,8,20,-1,3
1522257433568980,2,-21,-3,4,-1,-2,-4,2
1522257433570986,-35,20,4,2,3,-15,-5,-5
1522257433570986,72,21,7,0,-7,23,13,23
1522257433592041,-118,-33,-16,-6,0,-8,-3,-22
1522257433592041,9,-12,0,3,3,-3,-11,3
1522257433593044,-1,28,5,-1,2,-14,0,4
1522257433593044,19,0,-2,-9,-75,-12,-2,13
1522257433605076,-13,-31,-8,4,50,8,1,-10
1522257433605076,30,21,12,10,-1,20,4,-6
1522257433614100,49,-4,-12,-11,20,11,-10,8
1522257433614100,-33,-8,-7,-5,-4,-7,-5,-10
1522257433629140,16,0,4,6,-5,-12,4,14
1522257433629140,-69,1,8,8,-9,-7,-4,12
1522257433631146,59,4,-1,-6,-11,-1,-5,-17
1522257433631146,-59,17,7,6,27,9,3,2
1522257433652201,14,-18,-7,-4,-11,-6,-7,-10
1522257433652201,-29,-20,-5,-6,4,-10,-9,-6
1522257433653204,-6,19,5,-2,-4,4,5,8
1522257433653204,14,12,-2,-1,11,3,-1,4
1522257433665236,17,-8,-7,-5,-6,-5,-6,-17
1522257433665236,7,1,3,-1,0,-3,2,5
1522257433674260,-24,9,5,2,-8,6,0,8
1522257433674260,6,-2,1,-2,-13,-5,-2,-6
1522257433689300,23,-4,-6,0,9,-21,3,21
1522257433689300,38,-9,-14,-1,7,24,2,-6
1522257433691306,-35,17,17,5,-2,4,1,-6
1522257433691306,1,16,10,4,18,2,0,-5
1522257433712361,28,-1,-5,-5,-21,-2,3,20
1522257433712361,-4,4,8,6,25,-3,-1,-5
1522257433713365,-16,-25,-14,-7,-26,-4,7,4
1522257433713365,-2,-8,-1,1,19,-2,2,-7
1522257433725396,5,4,1,0,-5,-3,-3,10
1522257433725396,-10,-13,-1,-1,1,-9,0,-5
1522257433734420,19,51,-5,2,-14,5,5,8
1522257433734420,-61,-94,-19,-18,-11,-4,1,-8
1522257433749460,1,99,6,-7,-10,6,-1,-8
1522257433749460,-36,-54,3,2,-1,-3,1,-4
1522257433751465,12,-16,2,0,11,-2,-1,0
1522257433751465,14,13,-2,0,0,1,4,10
1522257433771518,19,-26,-10,-4,3,-1,-1,1
1522257433771518,30,15,-4,6,-4,-3,7,8
1522257433773524,-43,8,8,1,5,0,-2,-17
1522257433773524,29,18,-5,4,15,1,-3,11
1522257433785556,-22,-63,12,16,7,7,3,-6
1522257433785556,32,47,-11,-40,-19,-23,-8,-5
1522257433794580,-9,-31,0,-1,-100,-4,2,5
1522257433794580,24,18,-6,32,78,14,-3,1
1522257433808617,-14,-23,12,5,-3,0,-5,-8
1522257433808617,-9,26,2,-1,-13,3,6,1
1522257433815636,-5,-39,-17,-34,-4,-1,2,4
1522257433815636,1,15,1,-12,-29,-11,-8,3
1522257433831679,9,63,16,9,4,0,-14,-1
1522257433831679,-23,-42,3,19,5,-3,-7,-13
1522257433833684,-2,1,-2,5,20,-4,-6,-11
1522257433833684,14,-4,1,3,-10,-1,-1,-2
1522257433845716,79,-10,-10,2,14,7,7,32
1522257433845716,-71,1,-2,-7,-20,-16,-7,-34
1522257433854740,-57,5,-5,4,28,19,-2,-20
1522257433854740,52,-8,1,-2,-4,-4,6,19
1522257433868777,-91,-15,-16,-20,-21,4,-4,-37
1522257433868777,70,6,-1,-4,-18,-6,1,17
1522257433875796,110,10,3,10,34,-26,6,23
1522257433875796,-83,-10,-2,-8,-20,8,-10,-39
1522257433891838,28,-17,-5,-4,15,6,7,13
1522257433891838,-1,-4,4,4,16,10,3,5
1522257433893844,14,7,4,4,-9,-9,3,2
1522257433893844,15,18,0,-19,-46,-9,-1,8
1522257433914900,7,1,-2,-2,24,-6,7,14
1522257433914900,-10,2,1,14,-15,-10,7,9
1522257433915902,10,9,-4,7,50,38,-6,-6
1522257433915902,-41,4,10,2,8,0,4,7
1522257433928937,44,-4,-11,-8,-18,1,-15,-18
1522257433928937,-41,-16,-3,-10,-23,-12,-9,-3
1522257433935955,56,12,2,-4,-8,-11,0,7
1522257433935955,-106,18,-2,5,3,3,-3,-6
1522257433951998,-19,-30,-6,-4,-12,-7,-9,-6
1522257433951998,46,10,-1,-1,10,4,-3,2
1522257433954004,6,5,1,0,-7,-5,-5,1
1522257433954004,-15,-14,-2,-2,7,-23,-7,-23
1522257433974057,29,14,1,-2,-29,14,4,13
1522257433974057,-34,-3,-3,1,38,12,3,2
1522257433976062,-47,-10,0,0,6,15,-7,-2
1522257433976062,67,5,4,2,-5,-5,4,22
1522257433989097,-17,1,1,1,-5,-13,-4,-6
1522257433989097,-17,-3,0,-4,-7,-1,-5,-5
1522257433995112,-14,17,-2,-5,-47,-6,2,-14
1522257433995112,18,-14,-2,1,30,2,-3,6
1522257434012158,-16,10,-7,-4,-23,-1,0,-8
1522257434012158,23,-20,-7,4,23,16,6,9
1522257434013161,-63,16,25,6,-4,-10,0,-7
1522257434013161,16,4,4,0,-16,3,-3,-5
1522257434034217,24,-23,-9,-2,1,-3,1,0
1522257434034217,14,1,3,1,-5,-5,1,-5
1522257434036222,-1,-33,-15,-4,-1,-5,0,-2
1522257434036222,14,17,4,-4,-13,7,7,10
1522257434048254,13,0,1,4,17,-1,0,17
1522257434048254,13,16,0,8,11,1,-1,-4
1522257434055273,-22,-22,-3,10,21,0,-1,-5
1522257434055273,10,-24,-6,-7,-10,2,-6,2
1522257434072318,11,23,-8,-21,-22,-5,9,6
1522257434072318,-13,27,-9,-15,-14,-2,-1,-10
1522257434073321,9,-11,9,15,38,5,3,9
1522257434073321,-20,-19,11,0,-9,-6,-4,-10
1522257434094376,-9,-33,-4,7,-10,-3,-3,-9
1522257434094376,-21,-2,-11,-3,-9,1,-1,3
1522257434096382,18,81,4,15,28,-6,-1,12
1522257434096382,41,-105,-6,-1,-4,4,8,7
1522257434108414,-56,65,11,-18,-4,2,3,-13
1522257434108414,53,54,-8,-10,-37,2,4,4
1522257434115433,-44,-72,1,0,16,-1,4,-6
1522257434115433,-38,29,-3,7,8,-7,-6,-9
1522257434131475,4,-25,-3,1,10,-3,-1,-6
1522257434131475,-19,-26,5,-1,-16,-3,-6,2
1522257434133481,1,2,-16,-3,4,-5,-5,-7
1522257434133481,19,25,4,6,1,3,1,3
1522257434154536,-7,-20,0,1,5,-12,2,1
1522257434154536,25,7,8,4,10,10,-1,3
1522257434155539,-7,1,-1,-10,-16,4,-6,-8
1522257434155539,4,2,-2,2,-9,3,5,8
1522257434167571,0,42,2,5,-10,2,1,3
1522257434167571,52,-29,4,2,13,-5,3,14
1522257434176595,44,-11,-6,2,29,9,-1,-2
1522257434176595,-88,4,-4,-3,6,3,-9,-28
1522257434191635,27,4,2,9,1,-8,3,12
1522257434191635,-1,-11,0,-5,-2,12,-3,2
1522257434193645,81,13,2,-10,-44,-10,4,35
1522257434193645,-27,17,0,0,28,27,4,-15
1522257434214696,8,-14,1,-5,3,-4,-2,-16
1522257434214696,52,-14,-2,-2,-63,-16,3,13
1522257434215699,-4,23,5,1,41,13,9,15
1522257434215699,-7,-2,-1,4,23,6,7,2
1522257434227731,13,4,2,4,10,5,-3,5
1522257434227731,-48,-20,-12,-13,7,-12,-18,-19
1522257434236755,-19,-9,-10,-9,-24,-13,2,7
1522257434236755,40,30,17,0,-27,-7,6,18
1522257434251795,-117,-10,-3,-3,-5,-3,-8,-27
1522257434251795,-23,-5,-3,6,28,0,-3,-16
1522257434253800,5,-9,-2,-7,-25,-4,-6,-13
1522257434253800,20,0,-10,-2,5,-9,0,-2
1522257434274856,19,-2,4,-6,-30,-20,-2,4
1522257434274856,15,18,4,6,-15,39,6,14
1522257434275859,-72,-24,-10,-2,19,5,-1,-13
1522257434275859,64,15,-7,-12,-25,-2,-8,4
1522257434287891,11,2,5,9,17,-23,-4,11
1522257434287891,-32,-1,2,-7,13,-5,-3,-15
1522257434296915,-24,-7,1,10,4,18,-3,-16
1522257434296915,33,9,-4,9,10,-8,-2,12
1522257434311955,15,-12,-4,-2,-18,5,-1,2
1522257434311955,-45,-14,6,4,1,-3,2,3
1522257434313960,-1,-29,-18,-8,-7,-7,-6,-13
1522257434313960,2,42,27,1,-4,-9,-6,-11
1522257434334013,-7,-17,-7,2,4,12,0,3
1522257434334013,4,1,0,0,14,-1,3,-4
1522257434336019,7,-6,-5,-9,-12,-13,-2,2
1522257434336019,8,2,-5,12,0,-4,-4,1
1522257434348051,12,5,3,16,26,15,5,1
1522257434348051,-12,0,-2,-18,-8,-11,-4,-13
1522257434357075,11,11,15,3,-22,-4,3,6
1522257434357075,-12,-17,-12,-8,-2,2,6,-12
1522257434372115,-4,-9,-7,-6,11,5,0,-8
1522257434372115,14,5,-2,5,5,-7,2,3
1522257434373118,-22,28,-9,-11,-15,-4,-5,16
1522257434373118,30,-30,-3,2,-13,-8,-2,7
1522257434394173,-11,5,27,41,96,13,1,2
1522257434394173,17,48,5,-25,-26,0,8,15
1522257434396179,-30,8,-5,-15,-21,1,-2,-29
1522257434396179,-16,-34,-18,16,31,-6,-8,4
1522257434408211,10,41,31,-9,-34,-2,3,14
1522257434408211,-2,-81,-37,16,18,1,0,3
1522257434417234,32,37,46,-6,12,4,-2,-2
1522257434417234,-42,-7,-31,-70,-71,-13,-18,-17
1522257434432275,29,-5,-11,17,5,-9,-10,1
1522257434432275,-12,-16,-7,-11,-1,-10,-1,-8
1522257434433277,36,15,-2,12,0,-6,-7,10
1522257434433277,30,1,-2,16,14,-3,3,9
1522257434454333,9,-3,-4,-10,-19,-3,5,5
1522257434454333,-39,5,4,14,52,-8,-1,-11
1522257434456339,-1,-22,-10,5,-33,-8,13,11
1522257434456339,72,6,16,11,27,32,-8,-6
1522257434468371,-84,-13,-19,-25,-24,0,-7,-18
1522257434468371,57,18,11,3,7,0,0,-6
1522257434477395,-22,6,-9,-11,-20,-5,-5,-14
1522257434477395,10,-7,4,-3,-1,-1,9,22
1522257434491432,-23,-3,-13,-5,-6,0,-4,-7
1522257434491432,40,34,13,4,-24,0,0,2
1522257434493437,30,-27,7,5,11,-12,6,4
1522257434493437,29,7,-5,-3,-22,13,2,3
1522257434514493,110,-9,-10,-2,11,-6,3,11
1522257434514493,-12,15,-1,-6,-41,2,-1,2
1522257434516498,11,5,-2,4,26,23,9,9
1522257434516498,-24,1,8,8,36,-4,4,2
1522257434528530,-41,-11,-4,9,62,12,1,-12
1522257434528530,36,-5,3,-8,-7,-4,-2,11
1522257434536552,-42,-4,3,-3,-36,-13,-3,-5
1522257434536552,60,24,6,15,14,-14,10,15
1522257434551592,-59,-11,-17,-5,-11,23,-22,-24
1522257434551592,83,-5,0,11,22,-9,-9,-3
1522257434553597,-20,-13,0,-3,0,7,0,6
1522257434553597,-99,-3,-3,-7,-13,0,-1,0
1522257434574653,38,18,9,1,-13,-6,5,19
1522257434574653,-28,-14,-2,-2,-2,-7,-5,-10
1522257434575656,-19,-5,-8,0,5,3,-4,-13
1522257434575656,43,11,5,-12,-65,-35,-4,-4
1522257434587687,7,-4,-2,2,50,13,-3,-1
1522257434587687,-44,-10,-3,-3,-7,16,-6,-7
1522257434596712,25,10,1,8,39,-1,4,5
1522257434596712,-5,3,1,2,24,4,1,0
1522257434611751,18,-5,-3,-14,-57,-13,3,17
1522257434611751,-38,3,2,-1,-33,-2,-7,-9
1522257434613757,25,2,-15,2,32,5,-7,1
1522257434613757,-27,-5,-5,-9,-4,-1,-8,-16
1522257434634813,7,19,36,7,-17,4,6,-2
1522257434634813,-28,-3,-7,0,13,-5,4,-4
1522257434635816,-4,-7,-1,-5,-18,-6,-4,-2
1522257434635816,-13,28,-9,-2,0,6,-4,-8
1522257434647847,-1,-41,7,6,-2,-7,8,5
1522257434647847,12,-20,-24,6,7,2,2,-2
1522257434656871,21,-18,35,15,0,3,0,4
1522257434656871,-26,-2,-3,-13,-4,4,9,6
1522257434671911,2,-17,-10,-1,-6,-4,-2,-16
1522257434671911,13,18,0,-12,-5,-3,-3,12
1522257434673917,-7,-21,-40,-28,-26,-6,-8,-19
1522257434673917,-1,-5,16,33,34,5,4,12
1522257434693970,-3,-9,-13,-23,-22,-10,2,-3
1522257434693970,-7,-11,-7,-2,8,-3,-3,2
1522257434695976,-35,23,-3,-16,-41,-2,-2,-11
1522257434695976,5,-12,5,-14,13,2,-2,-7
1522257434708007,24,-37,-21,7,-3,-6,-4,6
1522257434708007,35,54,-5,24,30,-1,4,20
1522257434717031,-14,59,77,41,23,3,-6,-5
1522257434717031,-19,-60,-11,-14,-29,-2,-5,-7
1522257434731069,-24,24,-3,-18,-9,5,0,-7
1522257434731069,-28,33,16,2,1,0,2,-6
1522257434738087,32,-57,-55,-30,-11,-11,-6,4
1522257434738087,38,7,1,2,2,-1,2,-5
1522257434754130,30,30,4,-15,-10,-6,-8,-9
1522257434754130,16,-10,7,-3,-1,1,8,9
1522257434756135,-70,-11,-12,9,0,-26,-7,-24
1522257434756135,27,0,-5,15,31,27,0,1
1522257434768167,-32,-14,-9,-3,-35,-7,-8,-4
1522257434768167,-13,-8,12,20,78,10,-5,1
1522257434777192,46,-5,-3,-4,-24,8,7,20
1522257434777192,51,10,-1,-6,-5,-9,9,9
1522257434791229,-7,5,-3,2,9,-13,-10,-17
1522257434791229,-24,-25,-3,-8,-28,16,2,-16
1522257434798247,23,8,0,-4,1,-15,8,22
1522257434798247,102,18,2,-1,-6,8,4,20
1522257434814290,-6,-8,-5,-2,-34,10,1,-10
1522257434814290,-41,-17,-3,-12,30,-12,1,-11
1522257434816295,30,-6,-7,-1,23,16,0,-1
1522257434816295,31,17,7,8,-3,-13,1,11
1522257434837351,-21,-41,-10,4,-9,-5,6,8
1522257434837351,-11,53,20,-12,-19,-8,1,-4
1522257434838354,-27,-14,4,14,-38,12,4,6
1522257434838354,-8,2,-12,6,53,6,-4,-10
1522257434851388,-95,12,3,-4,-2,-5,-7,-4
1522257434851388,14,10,1,0,-10,1,0,0
1522257434858407,63,0,0,-5,-12,-4,0,-2
1522257434858407,-67,6,5,0,-27,-24,2,-4
1522257434874450,-31,-46,-11,1,25,30,-1,-6
1522257434874450,64,-19,-4,-1,-35,-28,-1,-5
1522257434876455,-60,10,-6,1,29,27,-6,-11
1522257434876455,-66,-14,-6,-5,-29,2,-6,-18
1522257434896508,99,45,15,4,38,-11,9,38
1522257434896508,80,-10,2,-6,-56,-48,-7,-8
1522257434898515,-7,-6,-4,20,108,60,-13,-25
1522257434898515,15,-14,-2,10,-82,14,-3,-12
1522257434911548,-24,8,5,11,94,17,-1,4
1522257434911548,-34,-7,2,-2,-10,11,-1,-1
1522257434917564,40,3,-2,-14,-21,-30,0,8
1522257434917564,-23,-2,-3,-12,-4,-6,-6,0
1522257434934609,29,16,6,-1,-24,-6,2,6
1522257434934609,8,-10,-5,2,-3,8,-1,0
1522257434935612,-31,-2,-8,-14,-12,-16,-5,2
1522257434935612,8,-47,-42,-15,19,-1,-11,-9
1522257434956668,-23,52,53,10,-27,-8,3,-8
1522257434956668,-59,-17,-4,4,20,14,0,3
1522257434958674,7,1,3,0,-16,-9,6,17
1522257434958674,3,0,-11,0,7,-5,-6,-20
1522257434971708,45,-15,-17,0,-5,-4,2,-1
1522257434971708,16,-1,2,14,10,15,5,6
1522257434979730,-11,-7,4,1,-10,-9,7,-12
1522257434979730,13,0,-7,-16,-13,-5,6,13
1522257434994769,-10,2,-8,-24,-8,0,7,-4
1522257434994769,-23,8,2,-2,4,7,0,-5
1522257434995772,13,22,-8,-7,-14,-10,4,-1
1522257434995772,-9,-17,17,-3,-5,-6,0,-6
1522257435016828,20,-14,-14,13,38,1,-1,11
1522257435016828,-22,-59,-6,-3,-9,5,0,14
1522257435018834,4,99,16,13,10,0,-2,2
1522257435018834,-32,-19,21,27,38,2,-6,-12
1522257435030865,39,-13,-6,16,-9,1,1,1
1522257435030865,-71,-38,-7,-33,-35,0,-4,-21
1522257435037884,32,15,-34,-32,-21,-6,0,16
1522257435037884,-86,-40,-3,-25,-10,-2,-8,-33
1522257435054929,14,63,3,-4,-7,-9,1,3
1522257435054929,96,11,-9,2,20,-1,2,2
1522257435055932,-32,-12,15,4,-6,-6,-6,-7
1522257435055932,-23,0,-14,3,9,-6,-2,13
1522257435076988,33,-22,-4,8,-6,-2,-1,9
1522257435076988,78,36,15,6,0,4,4,17
1522257435078993,-85,-37,-10,-9,-4,-7,0,-41
1522257435078993,63,13,3,8,-1,-14,0,13
1522257435091025,-2,-6,6,2,-31,24,-2,-9
1522257435091025,21,27,1,5,32,7,2,5
1522257435100050,127,-25,3,13,48,2,9,30
1522257435100050,-113,-4,6,-2,8,24,-1,-35
1522257435114087,69,11,-3,-17,-28,-13,-7,0
1522257435114087,77,-4,-11,-5,-7,2,3,20
1522257435116092,-74,-21,5,2,-35,-6,-4,-9
1522257435116092,-14,24,4,-18,29,-9,1,-2
1522257435137148,-76,-1,-9,0,4,-5,5,5
1522257435137148,-88,-9,-6,11,-9,17,-8,-7
1522257435138151,35,-5,9,-1,-22,1,0,8
1522257435138151,127,40,11,21,31,17,17,42
1522257435150182,-109,-24,-5,-1,-5,-21,1,-28
1522257435150182,46,11,-12,-8,-6,-11,-27,-28
1522257435159207,-106,-11,-2,-3,0,21,-5,-22
1522257435159207,46,-8,-7,-11,-23,-13,-4,12
1522257435174246,101,-1,1,-6,-6,25,11,23
1522257435174246,-47,-7,-7,4,11,-5,0,-20
1522257435176252,43,23,23,7,6,1,-6,-7
1522257435176252,6,16,-5,2,-9,-4,-1,5
1522257435197308,-9,-6,10,5,4,-4,-2,-1
1522257435197308,36,13,2,-4,-41,-12,-2,-2
1522257435198310,-13,-30,-13,2,39,-5,-2,-11
1522257435198310,22,7,5,5,8,-1,-2,18
1522257435210342,-29,5,-1,1,-22,-1,-6,-11
1522257435210342,-18,-15,-6,-1,5,0,0,0
1522257435219367,0,-1,-10,-12,-8,6,0,7
1522257435219367,1,4,0,-1,-6,-13,-5,-3
1522257435234406,-49,-11,-11,-4,-6,-22,-7,-10
1522257435234406,-18,-3,7,2,15,26,1,7
1522257435236412,-41,1,-4,-1,-5,-13,-4,4
1522257435236412,-33,1,-1,-10,-10,-1,-5,-11
1522257435256465,17,-13,-9,-8,5,0,-9,-12
1522257435256465,-25,-1,3,-4,-3,-16,6,5
1522257435258471,90,5,4,2,13,0,6,17
1522257435258471,-80,4,-11,-3,-9,9,-2,-17
1522257435270502,33,-1,-21,-2,4,-2,-1,5
1522257435270502,-43,24,53,16,17,-2,-5,-12
1522257435279526,37,-23,-11,-3,-14,2,2,8
1522257435279526,17,29,11,5,5,0,7,-3
1522257435294566,29,-52,-16,6,10,4,-1,30
1522257435294566,2,34,-15,5,1,-10,-4,4
1522257435295569,-19,-27,11,5,-6,2,4,0
1522257435295569,-11,19,5,-47,-53,-3,4,-2
1522257435316624,6,5,-3,-22,-7,-3,5,-3
1522257435316624,29,-7,-18,-8,4,-2,2,5
1522257435318630,-34,-8,13,53,55,-11,-13,-21
1522257435318630,27,16,14,55,44,5,0,13
1522257435330662,-9,-22,-15,-66,-83,-7,2,-2
1522257435330662,29,1,-16,-41,-40,-8,6,11
1522257435339686,-63,9,-5,-14,13,3,-6,-1
1522257435339686,-7,-13,2,20,22,-1,-9,-14
1522257435354726,14,34,10,35,38,3,-3,5
1522257435354726,-10,-44,7,9,13,-3,0,3
1522257435355729,27,5,-3,-8,-27,-24,4,8
1522257435355729,-33,-34,-17,-2,8,24,-8,-5
1522257435376785,27,38,21,18,25,4,-2,-1
1522257435376785,-40,-26,-13,-11,-17,-7,-10,-23
1522257435378791,84,35,-9,-5,-10,4,5,15
1522257435378791,38,-13,8,0,-5,0,7,14
1522257435390822,-83,19,13,4,1,2,-4,-38
1522257435390822,-9,2,5,10,9,8,8,1
1522257435399846,34,4,-8,-9,-12,-2,-4,-6
1522257435399846,3,-12,-11,-9,-6,-6,0,-2
1522257435414886,31,-11,-3,1,4,-8,2,-2
1522257435414886,-9,8,0,-4,8,-2,3,1
1522257435415889,-23,-10,0,4,-36,-4,-10,12
1522257435415889,124,4,-3,-8,20,8,6,18
1522257435436945,-73,-12,1,30,22,-6,-7,-24
1522257435436945,91,8,5,1,-9,3,11,22
1522257435438950,37,0,-2,-18,-9,7,6,16
1522257435438950,13,8,-3,2,-18,-25,-14,10
1522257435450982,8,-3,0,1,-11,7,0,-16
1522257435450982,-79,-11,-6,2,-10,8,-4,-13
1522257435460006,-74,3,3,3,21,-3,8,-3
1522257435460006,1,3,0,-4,-10,-5,2,4
1522257435474043,0,-17,-4,-8,-1,-3,1,-4
1522257435474043,58,25,-2,3,-1,-9,-5,-2
1522257435476049,0,-27,-15,-13,-10,-1,-12,-26
1522257435476049,-38,-21,2,3,7,-3,-2,0
1522257435497104,61,-3,1,-1,-3,3,2,2
1522257435497104,-90,-1,2,5,10,5,0,-14
1522257435498108,23,16,-1,1,3,-2,2,11
1522257435498108,-69,-7,-4,-1,4,13,2,-14
1522257435510139,100,3,-5,-6,-3,-14,-4,14
1522257435510139,-6,0,1,1,12,17,-3,-4
1522257435519163,11,1,3,-2,-25,-7,5,3
1522257435519163,-35,8,1,3,28,-24,6,2
1522257435534203,16,4,-2,-9,-1,17,0,13
1522257435534203,-38,-12,-10,3,5,-2,-13,-25
1522257435536209,14,-4,-1,-11,16,6,-1,-1
1522257435536209,13,9,-11,12,-5,4,0,-1
1522257435557264,-16,-14,16,0,8,-6,-1,5
1522257435557264,7,-3,1,3,-5,-10,-2,-3
1522257435558267,-3,-10,-5,-4,-4,-3,-6,-8
1522257435558267,6,-16,-16,-8,-17,0,0,-5
1522257435570299,-21,57,18,9,9,-4,-3,-1
1522257435570299,27,-13,-4,-8,-11,1,-2,6
1522257435579324,-22,-9,5,-3,-1,1,0,-10
1522257435579324,5,-19,-10,-10,-16,0,10,26
1522257435594363,-8,-15,-14,1,0,-2,-1,-24
1522257435594363,10,19,12,15,23,-5,4,8
1522257435596368,-3,-9,-5,1,-7,-4,-5,-19
1522257435596368,52,20,0,-19,-17,3,0,6
1522257435616421,4,-22,-9,-12,-11,-1,4,3
1522257435616421,-21,25,-6,7,-8,-4,3,6
1522257435618427,-35,-22,3,33,49,3,-1,-6
1522257435618427,-22,8,-1,-11,-12,1,-6,-14
1522257435630459,-26,-38,-2,-14,-9,5,6,4
1522257435630459,35,79,-11,3,24,-8,-4,11
1522257435639483,-1,-20,33,41,-1,1,-4,1
1522257435639483,-65,30,22,-55,-44,0,0,-9
1522257435654523,-23,-20,-20,-25,-29,0,4,-14
1522257435654523,-7,-91,-32,-7,-8,-12,-7,-3
1522257435656528,10,75,31,14,11,5,5,-1
1522257435656528,68,6,7,31,39,2,0,8
1522257435676582,-19,22,13,49,23,-23,-13,-18
1522257435676582,19,-35,-29,-54,-31,24,8,5
1522257435678587,-1,-14,-18,-24,-10,-5,0,-1
1522257435678587,-32,-11,0,3,-21,-5,-9,-21
1522257435690619,18,7,-6,-4,-8,0,-4,12
1522257435690619,80,-16,20,34,39,-5,-2,4
1522257435699643,-75,1,-5,-8,-4,-1,-1,-2
1522257435699643,-1,-3,-7,-8,-2,4,4,10
1522257435713680,-26,-3,9,9,-12,4,-5,3
1522257435713680,65,24,17,7,5,-14,3,25
1522257435720699,-21,1,-19,-29,-11,20,-1,-23
1522257435720699,-42,-6,8,17,8,7,6,7
1522257435736741,31,7,-4,-2,8,2,-4,-8
1522257435736741,13,-11,4,-11,-22,-18,10,20
1522257435738748,73,23,-3,-8,8,20,5,13
1522257435738748,3,-10,1,19,3,-1,1,-19
1522257435750778,30,3,0,-3,16,11,5,10
1522257435750778,-128,-11,-2,-16,-24,5,-14,-43
1522257435759803,-14,-25,-17,-8,-11,-15,-4,9
1522257435759803,69,8,9,10,16,1,4,10
1522257435773840,97,22,-2,-6,-23,-6,14,33
1522257435773840,-32,-11,8,4,10,9,-3,-14
1522257435780858,-63,-5,-2,5,13,3,-4,-7
1522257435780858,-14,3,-1,-4,-7,-6,-7,-4
1522257435796901,20,-1,-4,-1,14,12,-1,6
1522257435796901,20,14,3,1,2,-12,0,0
1522257435798907,4,-19,-12,-4,-27,-1,-4,-19
1522257435798907,-31,-10,-5,-1,3,-6,-3,-23
1522257435818961,48,1,3,-1,5,-10,-1,16
1522257435818961,-62,9,8,11,-23,6,1,-9
1522257435820965,9,1,-5,5,46,2,-7,13
1522257435820965,5,3,-3,-11,-9,-20,-7,0
1522257435834000,-30,-6,0,8,-7,8,-7,-1
1522257435834000,19,2,7,5,23,0,6,16
1522257435841018,75,5,-4,-2,-69,-7,3,1
1522257435841018,-54,-20,-3,13,90,30,-2,1
1522257435857061,-18,8,2,-9,1,0,0,4
1522257435857061,-41,-11,-6,-13,-22,-12,-9,-9
1522257435859067,8,3,1,0,8,-10,1,-1
1522257435859067,36,2,0,0,-33,-8,-6,3
1522257435879120,-34,-8,-2,-10,-3,-4,-7,-5
1522257435879120,31,15,3,4,20,11,2,22
1522257435881125,-10,13,-16,-12,-18,-10,-7,-19
1522257435881125,13,-48,-5,-3,-20,0,0,-2
1522257435894160,-54,16,28,12,13,-1,1,-14
1522257435894160,2,4,0,1,-8,1,4,-3
1522257435900176,41,21,15,3,7,3,6,37
1522257435900176,5,-7,-18,-6,-13,-4,-2,-8
1522257435917221,-72,-6,-8,2,10,-3,-4,-29
1522257435917221,1,3,3,2,1,3,-4,-7
1522257435918224,-58,-19,-6,-9,-9,0,6,17
1522257435918224,-10,3,-1,5,0,-2,0,-18
1522257435939280,41,-14,-5,-1,-3,4,3,2
1522257435939280,26,7,0,1,15,3,0,-6
1522257435941285,21,-1,-4,-4,1,-4,4,3
1522257435941285,-6,-4,0,-10,-26,-7,0,6
1522257435953317,18,54,-6,26,34,0,-2,5
1522257435953317,-16,-46,31,17,35,9,3,0
1522257435960336,0,59,20,-38,-44,-2,-6,2
1522257435960336,-17,43,-15,-38,-82,-12,1,-8
1522257435977381,-79,-111,-20,-25,-37,-9,-5,-18
1522257435977381,13,66,-21,-23,-16,-8,-10,-16
1522257435978384,39,-32,12,22,34,-5,-3,1
1522257435978384,50,-15,10,16,31,4,0,8
1522257435999439,25,57,9,11,11,-14,3,11
1522257435999439,-56,-55,-17,8,3,9,-3,-12
1522257436001445,-37,-23,-8,4,7,2,-6,-17
1522257436001445,23,22,3,5,6,-15,3,6
1522257436013477,20,-25,-12,-5,-1,17,-1,9
1522257436013477,99,7,2,-4,-10,-6,-2,10
1522257436022501,-80,3,-2,-1,-7,-3,-2,-16
1522257436022501,40,-6,-1,10,14,8,-2,12
1522257436036538,-7,6,6,-3,-21,-9,-3,-8
1522257436036538,-11,-7,-4,-6,21,2,-6,-26
1522257436038544,-39,-5,-8,2,3,0,-8,-14
1522257436038544,-14,-1,2,7,-8,-2,5,12
1522257436059600,16,0,5,-8,11,4,1,-7
1522257436059600,25,15,0,4,6,11,4,12
1522257436060602,45,-12,-9,5,6,-2,13,38
1522257436060602,53,-6,5,0,9,13,-1,0
1522257436072634,40,23,-2,-6,-5,1,4,11
1522257436072634,38,1,0,-3,-15,-5,-4,1
1522257436081658,-29,-20,0,10,14,5,-7,-24
1522257436081658,-85,-6,-3,-6,1,3,-8,-3
1522257436096698,-9,8,1,-1,2,4,7,14
1522257436096698,-14,-1,4,-6,-51,-5,9,14
1522257436102714,68,9,5,9,50,4,7,6
1522257436102714,29,16,1,-3,12,-7,6,0
1522257436119759,53,-7,-9,-24,-89,-1,-3,9
1522257436119759,-18,-16,-2,27,63,9,-1,-6
1522257436120762,32,-12,-4,-14,-51,-14,-13,-22
1522257436120762,-110,-10,3,26,91,22,1,-16
1522257436132794,66,24,10,-5,5,-11,6,8
1522257436132794,-40,0,-10,-12,-34,-14,-7,-3
1522257436141818,35,8,-5,-3,-14,4,-6,17
1522257436141818,2,1,2,0,-9,-5,-7,-18
1522257436156858,-39,-3,-2,2,2,-22,5,-9
1522257436156858,24,2,-6,-2,8,25,2,9
1522257436158863,-13,-25,9,4,5,1,0,-19
1522257436158863,-10,15,2,-7,-26,-8,-5,2
1522257436179919,-5,-11,-5,5,22,7,-2,4
1522257436179919,-9,-22,-5,0,-24,-5,3,3
1522257436180922,7,44,16,5,13,-8,1,7
1522257436180922,30,1,5,2,-15,3,6,5
1522257436192954,-36,-14,-1,-5,7,4,-3,-13
1522257436192954,-16,-4,-8,-10,-10,-31,-5,-8
1522257436201978,-12,-14,-17,-9,-3,25,2,-1
1522257436201978,20,-9,0,4,4,-4,-3,-1
1522257436217018,-14,12,1,20,29,5,-4,-5
1522257436217018,-12,-5,14,-7,-17,-2,1,12
1522257436219024,29,10,-4,-14,-17,-7,9,12
1522257436219024,60,4,3,-3,-10,1,2,22
1522257436239076,-104,-36,-16,-6,-3,-8,-14,-30
1522257436239076,23,10,3,7,9,-2,-3,5
1522257436241082,-58,9,-11,2,5,-6,-3,-8
1522257436241082,3,5,-1,2,-1,-2,-6,0
1522257436253114,-7,-39,13,12,7,0,-1,-7
1522257436253114,12,28,12,0,-2,5,2,-5
1522257436262138,-3,-21,5,7,11,1,3,11
1522257436262138,18,34,-57,-18,-8,-6,-1,-6
1522257436277178,-2,45,24,17,4,4,2,8
1522257436277178,-40,-44,8,-48,-52,-4,-1,-11
1522257436278180,33,15,4,-13,-13,-1,0,2
1522257436278180,-69,-14,12,16,9,-5,-5,10
1522257436299237,3,-3,-18,8,18,-7,-5,7
1522257436299237,-2,-17,-26,-20,-9,-6,-4,1
1522257436301242,45,-2,-7,-8,-26,-4,-1,7
1522257436301242,13,-28,0,-6,-4,-3,-6,-11
1522257436313273,31,16,10,8,1,-4,-4,7
1522257436313273,25,12,4,23,28,5,-4,-2
1522257436322297,-14,-24,-5,2,2,0,-4,-1
1522257436322297,32,13,9,1,-5,-5,4,3
1522257436337337,-31,-8,-2,-9,-5,4,-1,4
1522257436337337,1,20,1,4,3,0,-1,-28
1522257436338340,3,-12,-7,1,11,20,0,-5
1522257436338340,87,0,8,-1,-12,21,6,23
1522257436359396,-90,-1,-3,-11,-7,-2,3,-20
1522257436359396,92,2,-8,-6,1,7,0,23
1522257436361402,28,10,7,11,1,-40,-1,-12
1522257436361402,-20,-3,4,2,19,60,13,-2
1522257436373433,58,10,-1,-11,-15,-2,14,15
1522257436373433,-128,-8,-5,3,4,-1,-6,-20
1522257436382458,20,13,3,3,-1,6,-1,7
1522257436382458,76,-6,-6,-13,-10,-33,-12,-1
1522257436396494,55,15,-2,-1,-16,8,3,-17
1522257436396494,-22,12,17,25,39,15,19,35
1522257436398500,12,-11,-20,-17,-36,-52,-25,-40
1522257436398500,10,-20,6,-3,8,31,2,2
1522257436419556,72,-12,1,5,19,17,8,9
1522257436419556,-1,10,-11,-7,-26,-24,-19,-34
1522257436420559,-30,1,8,6,9,9,11,12
1522257436420559,22,6,-7,-10,-10,-11,4,-7
1522257436432590,34,-12,-7,-7,-24,-7,-4,4
1522257436432590,-13,10,7,7,-16,-12,2,0
1522257436441615,-9,-3,-1,22,56,46,9,11
1522257436441615,-39,6,1,8,1,-19,-7,-10
1522257436456654,-34,1,3,-4,-16,-19,1,-3
1522257436456654,16,-5,0,3,11,-4,0,8
1522257436458660,-1,-21,-8,-5,-6,-6,-7,-7
1522257436458660,-46,11,14,4,-25,-9,-10,-8
1522257436479716,-13,-4,-5,-7,20,-18,-7,5
1522257436479716,24,-43,-15,-9,-20,-4,-8,-6
1522257436480718,8,18,-1,-2,-5,5,-5,-5
1522257436480718,-26,15,0,3,9,-6,-1,-8
1522257436492751,-20,-24,11,-1,3,1,-10,-14
1522257436492751,24,10,-4,2,12,6,5,17
1522257436501774,-10,-25,3,-1,-28,8,5,7
1522257436501774,18,-70,-31,4,25,-14,-5,-5
1522257436515812,-9,66,30,-5,-3,11,-5,8
1522257436515812,-22,1,1,-11,-12,8,5,-7
1522257436522830,-11,11,3,3,3,-9,7,8
1522257436522830,-39,-3,8,3,-8,-6,2,7
1522257436539876,8,-19,-22,-13,-3,7,0,-3
1522257436539876,18,12,-3,-4,-1,0,3,-10
1522257436540879,-18,-20,3,-4,-8,-8,6,-6
1522257436540879,5,35,1,2,9,1,1,5
1522257436552910,39,-24,-4,13,15,4,3,18
1522257436552910,-59,-25,6,-2,-2,-19,-10,-19
1522257436561935,20,-10,-14,7,23,8,-2,-9
1522257436561935,26,31,27,14,-9,3,-2,-3
1522257436576974,-10,21,-14,-33,-24,-4,0,-3
1522257436576974,23,-18,-19,-8,3,2,4,12
1522257436578981,-17,-68,-2,-2,-12,-7,-4,14
1522257436578981,-3,59,15,27,53,2,6,-8
1522257436599033,-66,13,-12,-30,-32,-8,-15,-32
1522257436599033,-16,-54,-14,-15,-49,-3,-11,6
1522257436601038,-5,30,-3,-7,5,-1,0,1
1522257436601038,32,-6,-5,-6,-13,-5,-3,19
1522257436613070,8,-10,2,29,27,-3,-4,0
1522257436613070,-14,-3,5,11,19,1,-1,-8
1522257436622094,-12,40,10,5,7,-20,3,8
1522257436622094,65,-22,-5,-8,-11,14,0,-9
1522257436637134,-90,-29,-10,-4,8,-6,-3,-19
1522257436637134,82,21,4,1,-17,16,0,15
1522257436638137,48,-1,5,5,23,41,9,12
1522257436638137,-23,-2,-2,-13,-30,-45,-9,3
1522257436659193,22,1,2,5,27,88,29,5
1522257436659193,101,27,2,-3,-8,-70,-15,18
1522257436661198,35,6,5,-6,-14,14,-7,2
1522257436661198,-48,-23,-12,-14,-31,-14,4,-21
1522257436673230,28,-5,-6,18,65,33,-3,-3
1522257436673230,-22,13,9,9,11,2,6,3
1522257436682254,37,6,-4,-4,7,-13,-4,-4
1522257436682254,-25,-17,-6,-11,-15,-9,2,8
1522257436696291,16,-39,-11,-2,-19,-18,-4,-10
1522257436696291,7,58,25,11,8,19,15,11
1522257436703310,-91,-9,-4,0,-5,-29,-6,-16
1522257436703310,52,-42,-19,-6,-11,17,-5,-2
1522257436719352,17,45,24,5,-6,-14,-8,2
1522257436719352,-7,-19,-4,5,26,14,0,-11
1522257436721358,-33,-3,5,-3,-9,-13,2,-7
1522257436721358,-80,11,-6,-4,-80,11,5,7
1522257436742414,83,-8,-19,-8,49,-9,-8,22
1522257436742414,-95,-17,-4,-16,-88,-21,-8,-20
1522257436743417,-24,27,10,4,24,10,5,7
1522257436743417,-23,-13,3,9,25,21,2,-9
1522257436756451,80,9,-1,7,38,-28,3,12
1522257436756451,-3,-2,-3,11,21,14,-4,2
1522257436763470,23,-21,-7,-1,29,-9,-4,-7
1522257436763470,17,8,2,-10,-2,-20,-8,-9
1522257436779513,2,-17,4,6,-58,-9,-3,2
1522257436779513,30,18,0,3,26,10,6,5
1522257436781518,1,-17,-19,-8,-45,-1,-5,-4
1522257436781518,20,24,14,-1,21,-9,-5,1
1522257436801571,62,35,8,-2,-35,-1,-6,-7
1522257436801571,61,-37,-9,-3,9,3,0,-1
1522257436803577,35,22,16,21,13,2,-5,3
1522257436803577,-25,-39,-4,2,0,12,3,-3
1522257436816611,-72,12,-5,-20,-24,-13,-1,-8
1522257436816611,-29,19,11,13,19,7,3,2
1522257436822627,19,-30,-21,-22,-18,-2,-5,-8
1522257436822627,-28,19,-3,-18,6,1,0,16
1522257436839672,-41,-17,-8,10,-2,-4,-1,-8
1522257436839672,-23,28,2,-3,25,0,-3,-14
1522257436840675,6,-16,5,-14,-24,2,0,0
1522257436840675,-21,-2,-11,-8,1,-6,1,-1
1522257436861731,-1,-18,-14,-11,-13,-10,-2,13
1522257436861731,19,-19,8,9,10,12,15,21
1522257436863737,35,50,10,8,-19,-9,-4,-6
1522257436863737,-49,10,-9,10,71,12,-2,-9
1522257436875769,43,-60,-2,17,22,2,9,30
1522257436875769,-80,-26,-11,-15,-15,-3,-7,-24
1522257436882787,16,38,30,21,10,10,7,13
1522257436882787,-2,5,-41,-23,-34,-14,11,-31
1522257436899832,-10,53,66,-2,-4,7,3,-3
1522257436899832,21,17,-16,-15,13,2,3,-3
1522257436900835,15,-31,-9,6,-9,-8,-5,17
1522257436900835,-4,-6,11,-1,-9,10,6,0
1522257436921891,-25,-1,-13,-13,-26,-15,-5,4
1522257436921891,-40,-13,-2,-1,23,-2,-36,-60
1522257436923896,-45,8,-1,1,12,-18,-3,2
1522257436923896,110,-12,7,21,14,12,-1,21
1522257436935928,-81,-3,-10,-2,8,1,3,-15
1522257436935928,46,5,14,-4,-42,-11,13,27
1522257436942947,-14,-2,-10,4,53,24,6,2
1522257436942947,20,-5,2,-1,9,-18,2,9
1522257436958990,7,-4,-1,-11,-41,-26,3,-19
1522257436958990,21,16,-4,9,8,39,1,2
1522257436960998,-92,-15,-3,3,1,0,6,-21
1522257436960998,80,16,14,-1,-7,11,7,28
1522257436982051,-75,-4,-15,-13,-41,15,-13,-22
1522257436982051,117,-6,-14,12,41,-18,-4,19
1522257436984056,-35,6,4,-4,53,-5,6,5
1522257436984056,-61,-25,3,-3,-63,-25,-12,-29
1522257436995085,-36,7,-1,25,75,44,18,30
1522257436995085,-53,-9,-17,-18,-28,-11,-19,-29
1522257437004109,51,10,5,-8,-27,18,4,13
1522257437004109,-11,2,11,-8,-39,-50,-11,-20
1522257437019150,-13,-7,-3,13,38,5,13,18
1522257437019150,59,3,-1,-8,-23,14,4,31
1522257437021155,-6,15,5,17,28,23,3,-10
1522257437021155,-23,-6,-9,-7,17,-8,-12,-6
1522257437042211,-6,-11,-4,-23,-73,-23,-11,-12
1522257437042211,71,7,4,15,-2,3,4,4
1522257437043213,46,-4,-10,7,47,1,-7,8
1522257437043213,-34,4,2,5,6,19,-6,0
1522257437055245,44,0,-2,5,25,2,-17,-5
1522257437055245,-20,5,9,-3,-5,-15,12,22
1522257437064269,29,10,-16,-20,-97,-8,-4,-15
1522257437064269,-9,-29,15,11,43,11,-5,-14
1522257437079309,36,5,1,-4,-18,-8,-5,-5
1522257437079309,-27,-14,2,-4,10,-10,0,2
1522257437081315,35,2,-7,-10,-37,-6,-1,4
1522257437081315,32,31,3,3,28,15,0,-6
1522257437102370,86,-14,-10,-2,1,-17,0,11
1522257437102370,-20,7,-1,1,-14,2,-3,-21
1522257437103374,-10,-36,-38,-27,-13,-11,-10,-3
1522257437103374,-26,8,25,12,-4,5,1,-1
1522257437115405,-6,35,24,21,16,3,7,6
1522257437115405,-61,-53,-1,3,11,1,-2,-1
1522257437124429,-24,-17,-2,-14,-31,-7,-5,-24
1522257437124429,6,40,-7,-5,5,-6,0,7
1522257437139469,-23,-27,-10,-3,-4,7,-3,-17
1522257437139469,42,14,2,3,17,1,7,13
1522257437141474,16,-24,22,9,10,2,4,0
1522257437141474,-25,-2,-25,-13,-21,-7,-5,-4
1522257437161527,9,-38,-7,43,52,0,5,15
1522257437161527,-70,1,-12,-47,-79,-15,-4,-20
1522257437163533,-24,66,33,-27,-16,-4,0,-11
1522257437163533,30,-24,-10,-5,0,-2,6,15
1522257437175565,-38,-19,16,33,47,1,-9,-14
1522257437175565,-1,28,10,25,32,9,12,12
1522257437184589,3,-77,-35,-25,-10,-3,-19,-29
1522257437184589,6,36,9,-29,-44,-1,-10,-11
1522257437199629,20,19,-5,-24,-38,-14,-4,-13
1522257437199629,-61,-12,6,22,17,-7,-9,5
1522257437200632,8,7,8,17,23,-1,13,29
1522257437200632,52,-13,-4,11,18,14,9,0
1522257437221688,-20,5,-6,-10,-18,-6,-13,-18
1522257437221688,-39,-39,-5,1,7,2,1,-14
1522257437223693,81,26,6,3,-5,2,8,29
1522257437223693,-114,-15,-3,9,8,2,-5,-15
1522257437235725,90,30,2,-13,-19,-1,4,33
1522257437235725,-37,-22,-2,-5,10,14,0,-10
1522257437244749,-87,-26,-6,7,-3,-25,-9,-10
1522257437244749,43,0,4,6,8,22,2,12
1522257437259789,37,6,-4,-16,-7,1,14,3
1522257437259789,25,15,-12,-9,-12,-10,1,-3
1522257437260792,32,1,1,4,16,34,0,7
1522257437260792,25,14,1,-3,-7,-7,3,0
1522257437281848,-31,-9,-4,-21,12,-9,1,8
1522257437281848,-44,18,4,-2,-73,-5,6,9
1522257437283853,-20,16,9,27,91,-7,4,-12
1522257437283853,-99,-41,-5,21,-21,33,0,-17
1522257437295885,-24,-6,-11,2,33,8,-7,-17
1522257437295885,110,16,-4,-14,-11,-5,-8,23
1522257437304909,-47,8,2,-17,-47,-15,0,0
1522257437304909,8,-6,-1,-5,-2,-22,2,25
1522257437318946,-67,-4,6,3,-10,10,4,-22
1522257437318946,39,31,14,6,17,-6,3,-4
1522257437320952,7,9,-14,-5,-27,1,-12,8
1522257437320952,35,-34,-8,-2,35,-3,-9,-1
1522257437342008,-63,10,1,-7,-45,-10,-2,6
1522257437342008,-7,-16,0,5,29,18,-5,-16
1522257437344013,83,14,3,6,-11,-19,4,7
1522257437344013,18,17,4,-11,-71,12,6,9
1522257437356045,7,-12,-5,13,72,2,-5,-5
1522257437356045,21,5,-1,8,15,3,-5,-4
1522257437365069,-43,-11,1,3,-2,8,4,-9
1522257437365069,5,12,-1,-19,-17,-9,-5,-3
1522257437379108,37,-1,-2,11,-8,-14,-7,-1
1522257437379108,-5,1,-13,2,19,5,-6,-9
1522257437381112,-16,-47,-1,0,-5,-4,-1,-3
1522257437381112,17,2,4,-1,3,-15,-1,-4
1522257437409186,32,34,4,-6,-10,11,-1,4
1522257437409186,-54,-21,0,6,6,-6,2,4
1522257437411191,34,37,-4,4,-7,3,2,12
1522257437411191,-24,-49,-16,-15,-1,-6,-5,-23
1522257437415202,-7,-25,-9,-15,-28,-5,1,-10
1522257437415202,1,12,8,-2,-6,-1,0,15
1522257437424226,-9,33,-6,17,27,0,-2,-5
1522257437424226,7,-59,17,35,56,13,12,15
1522257437439266,-15,45,-18,-62,-87,-8,5,2
1522257437439266,6,-23,-2,-4,-25,-8,3,-9
1522257437441271,-6,6,9,-5,2,6,-5,13
1522257437441271,-21,6,-20,-20,6,-9,-1,1
1522257437462327,29,-32,-7,6,-9,-9,3,6
1522257437462327,-20,22,-4,-7,14,-12,-4,-10
1522257437463330,24,-27,10,10,-25,9,-2,1
1522257437463330,-77,-22,-31,7,25,-4,-8,-12
1522257437475362,8,47,67,24,9,11,7,14
1522257437475362,10,23,-19,-11,-20,-8,-4,-9
1522257437484386,-29,-72,-12,7,23,3,-5,-11
1522257437484386,61,113,35,11,-1,-4,3,12
1522257437499427,-48,-63,-3,15,-11,-1,-1,-5
1522257437499427,51,11,-3,-13,15,7,7,19
1522257437501431,-63,3,-5,-31,-30,-3,6,-17
1522257437501431,14,-3,-9,-13,-16,-6,-1,-2
1522257437522487,33,13,-2,10,5,-3,-12,-1
1522257437522487,4,-44,7,16,34,11,10,3
1522257437523491,17,13,-10,-10,-18,-12,-4,9
1522257437523491,-55,-2,5,-1,-30,-25,-8,-12
1522257437535522,-5,0,-6,8,25,28,-2,1
1522257437535522,68,-8,-2,2,18,13,4,7
1522257437544546,-53,7,-3,1,30,-4,-1,-24
1522257437544546,69,-3,2,6,-26,3,0,4
1522257437559586,25,1,-3,-5,-18,-11,6,21
1522257437559586,-83,-20,-8,-6,-3,-7,-19,-42
1522257437560589,79,8,0,-7,-24,-36,-8,6
1522257437560589,-57,-11,1,-1,7,15,2,-2
1522257437581644,41,6,-11,-5,16,14,-3,4
1522257437581644,23,3,7,-1,6,-31,6,13
1522257437583650,-63,-3,14,1,-21,10,0,-3
1522257437583650,39,18,-4,-2,3,-18,5,8
1522257437595681,-90,-10,-11,10,52,45,-1,-13
1522257437595681,-17,8,5,0,19,15,0,9
1522257437604706,-11,-2,5,-1,-38,-3,8,-5
1522257437604706,106,27,8,9,69,-6,6,22
1522257437618744,-33,-37,-20,-6,-30,-17,-15,-7
1522257437618744,-33,6,2,6,-38,-10,-5,-13
1522257437625762,14,5,2,7,26,12,11,25
1522257437625762,-29,-4,-11,-8,4,4,-7,-12
1522257437641804,31,3,1,-8,-17,3,-2,-10
1522257437641804,9,-7,-15,-3,7,9,-3,8
1522257437643810,-12,1,10,-5,-46,-3,6,8
1522257437643810,-13,14,-3,10,35,18,-1,-9
1522257437655841,15,-22,3,-3,6,-16,-6,-11
1522257437655841,19,11,10,-1,-23,-6,0,6
1522257437664866,71,2,-8,0,-4,16,-3,4
1522257437664866,-52,-24,-6,0,16,-8,-7,-16
1522257437678903,24,5,-12,-9,-11,-17,-2,0
1522257437678903,16,11,17,6,14,17,3,14
1522257437685921,-26,-5,3,8,17,-5,-6,0
1522257437685921,21,-18,-4,-1,-19,0,-8,3
1522257437701964,3,44,-40,-8,2,-8,0,-7
1522257437701964,-41,-16,53,0,-32,0,6,-7
1522257437703969,22,-2,-25,-12,9,3,-2,11
1522257437703969,-14,7,38,6,-11,2,1,-8
1522257437724022,15,0,6,5,3,3,9,7
1522257437724022,1,19,-16,9,12,-9,-2,-4
1522257437726028,0,-9,1,10,13,5,3,-15
1522257437726028,6,-27,-23,-28,-18,9,10,6
1522257437739064,10,52,22,5,-3,-8,2,3
1522257437739064,-19,-23,-8,-8,-6,-3,-11,-28
1522257437745078,10,-2,4,15,25,5,3,5
1522257437745078,26,54,0,13,6,-7,0,12
1522257437762124,-20,-71,15,15,17,1,-1,7
1522257437762124,3,-27,-27,-30,-37,0,3,-4
1522257437763127,-4,67,25,0,-4,5,3,1
1522257437763127,-31,-55,5,18,4,-2,-4,-7
1522257437784182,-6,73,20,21,35,-9,-18,-3
1522257437784182,34,-11,-13,7,-10,2,12,26
1522257437786188,-63,-58,-29,-82,-58,-7,-7,-25
1522257437786188,10,14,2,-19,-20,9,1,7
1522257437799223,43,-31,3,7,4,-3,2,4
1522257437799223,-96,-10,0,23,25,-4,-7,-7
1522257437805239,62,31,4,26,19,-6,-5,3
1522257437805239,10,-1,-1,2,-8,-2,2,-11
1522257437822284,-24,-10,0,-4,-19,-18,6,8
1522257437822284,104,19,-4,-1,25,21,3,3
1522257437823286,-39,0,0,2,6,-4,-1,-3
1522257437823286,-78,2,-6,-3,2,15,-3,-21
1522257437844342,-10,-30,-20,-15,-18,0,-2,-6
1522257437844342,101,17,2,-4,-7,1,0,10
1522257437846348,-86,-14,-1,1,7,8,-7,-12
1522257437846348,44,-5,-4,-4,-2,-6,-7,-1
1522257437858381,66,0,5,-8,-10,3,15,-5
1522257437858381,-17,6,-6,-3,-7,-6,-6,-1
1522257437865398,127,8,-1,12,9,-11,-8,17
1522257437865398,-113,-3,-2,1,-11,-42,3,1
1522257437882443,2,3,-7,-26,-10,20,-3,6
1522257437882443,-34,-10,2,0,-20,6,5,0
1522257437883446,-6,-10,3,1,36,-7,9,-4
1522257437883446,-19,32,-4,18,-14,15,-3,22
1522257437904502,67,2,5,1,4,-7,1,7
1522257437904502,-100,-3,-3,-6,-2,-2,-11,-15
1522257437906508,28,-8,-12,-7,-19,-4,-11,-9
1522257437906508,30,-34,0,-21,-12,-13,8,2
1522257437918539,9,12,4,-17,-44,-12,0,-1
1522257437918539,-19,5,-1,27,15,1,3,9
1522257437925558,-1,17,8,34,20,27,5,-2
1522257437925558,32,-4,-5,-1,9,10,1,-4
1522257437941601,-23,1,-3,5,0,-4,-5,-4
1522257437941601,32,3,0,-20,-10,-15,-1,-3
1522257437943607,-16,-7,-2,-1,-7,-11,-8,4
1522257437943607,28,-2,-3,0,-10,-3,-11,-1
1522257437964662,-71,1,-2,-1,1,4,-8,-15
1522257437964662,27,5,-1,-2,5,-5,0,8
1522257437965665,18,-21,-15,-5,-5,-1,-5,-12
1522257437965665,2,4,8,0,3,7,-6,0
1522257437977697,-24,-17,-6,-2,9,-4,0,6
1522257437977697,-16,-42,4,7,15,-1,-4,-24
1522257437986721,-8,58,25,13,22,5,6,10
1522257437986721,38,-1,-17,-11,-32,-6,-3,-2
1522257438001760,-29,-39,-16,0,-11,0,5,-1
1522257438001760,-1,21,-8,-17,-18,-2,8,5
1522257438003766,-23,20,5,-2,16,5,4,1
1522257438003766,0,-9,17,11,14,2,6,-2
1522257438024822,23,18,-3,1,-4,-6,5,-3
1522257438024822,7,-19,-19,-10,-10,-5,-1,-1
1522257438025825,-7,-13,-12,-16,-17,-4,10,3
1522257438025825,26,18,0,4,17,3,-1,7
1522257438037857,-9,10,1,3,6,1,-1,-5
1522257438037857,15,2,12,8,13,0,3,11
1522257438046881,52,-7,-4,-3,-80,-3,-5,5
1522257438046881,-96,-16,-3,9,87,6,-5,-34
1522257438061920,23,9,4,19,26,0,-4,8
1522257438061920,93,28,6,9,-8,1,5,12
1522257438063926,-37,17,-5,-17,-21,-4,2,-14
1522257438063926,63,-55,-3,-6,-26,2,3,2
1522257438083979,4,3,-7,-28,-24,0,6,1
1522257438083979,43,19,8,12,27,-3,-1,11
1522257438085985,122,69,-43,-31,-2,-8,-8,-10
1522257438085985,-20,-21,38,-15,-26,3,0,-4
1522257438098017,22,8,12,3,-2,-4,-3,1
1522257438098017,-5,-10,7,7,-6,-7,-2,6
1522257438107040,-87,-21,-3,13,22,-2,3,-4
1522257438107040,-6,18,-10,6,2,-14,-1,5
1522257438122081,-38,-25,-3,9,13,20,-1,1
1522257438122081,26,5,-6,-5,-3,1,1,4
1522257438123083,-97,-35,11,8,13,6,-6,-21
1522257438123083,54,13,-9,0,-7,-19,0,7
1522257438144139,-69,-12,2,-1,1,14,-13,-12
1522257438144139,-48,2,-9,-12,-7,-8,-6,-8
1522257438146145,66,-21,9,-20,7,-7,3,25
1522257438146145,-51,7,1,16,-5,25,1,-2
1522257438158176,14,13,-7,13,0,-9,-5,-19
1522257438158176,35,2,-1,-21,-9,7,2,6
1522257438167200,-81,-27,-3,-46,2,-9,-2,-9
1522257438167200,39,9,-2,40,2,0,8,-2
1522257438182240,6,15,12,49,-19,-22,10,11
1522257438182240,25,-14,-7,34,61,5,-8,-10
1522257438183243,127,-10,4,20,23,24,-2,14
1522257438183243,14,10,-11,-43,-19,-1,-7,3
1522257438204299,-110,-20,-5,-14,13,5,0,-20
1522257438204299,-13,1,-3,-14,-34,-25,-9,-11
1522257438206304,70,-6,-6,-4,-19,-9,-9,3
1522257438206304,-13,-1,-7,-8,7,6,1,9
1522257438218336,10,4,6,-3,-4,-4,0,-2
1522257438218336,-121,3,9,-5,-7,1,11,9
1522257438227361,94,21,7,16,7,-6,4,19
1522257438227361,-106,-32,-14,-2,-11,1,-20,-52
1522257438242400,57,-6,-1,-14,4,-2,1,17
1522257438242400,4,1,-1,-9,-3,7,-4,-10
1522257438243403,-43,-7,4,15,9,10,2,3
1522257438243403,101,17,4,2,2,-16,5,24
1522257438264459,-30,-2,-10,-13,-20,-2,-9,-15
1522257438264459,-26,-10,-3,-3,19,8,-5,-7
1522257438266465,-13,-4,5,23,-2,-9,-3,0
1522257438266465,12,6,-3,-9,0,-6,-1,6
1522257438278496,59,-1,-10,-9,1,1,-1,7
1522257438278496,8,-2,10,8,-11,1,-1,0
1522257438287520,-64,-15,2,-3,0,-3,-1,-4
1522257438287520,8,9,-5,-9,-18,2,-2,10
1522257438301557,12,9,-2,12,21,2,-1,4
1522257438301557,28,-24,-1,15,8,-2,0,12
1522257438303563,-44,36,25,16,1,3,-1,-7
1522257438303563,-18,-36,-15,-27,-28,-1,3,5
1522257438324619,40,-3,-29,5,18,3,6,17
1522257438324619,-44,69,74,40,24,7,0,-14
1522257438325622,-47,-52,-40,-71,-75,-6,3,-21
1522257438325622,18,3,-10,-19,-9,3,8,3
1522257438337653,16,14,-20,17,44,-9,2,12
1522257438337653,10,-23,-4,-26,-48,-7,-2,-13
1522257438346677,-41,2,6,15,9,0,12,-25
1522257438346677,2,15,8,2,-7,-3,-8,-3
1522257438361717,-6,-6,4,-13,-3,-5,0,-2
1522257438361717,29,3,-6,38,45,2,-6,10
1522257438363723,51,20,13,13,18,3,8,19
1522257438363723,35,-40,-22,-26,-31,-9,-12,-14
1522257438384779,-100,-6,17,4,-10,-6,-13,-34
1522257438384779,54,-18,-26,-18,-20,-12,-11,-18
1522257438385782,15,-1,-4,0,-1,-4,-5,5
1522257438385782,37,44,-3,20,28,7,7,16
1522257438397813,94,2,25,5,20,14,7,25
1522257438397813,-109,-36,-13,-17,-23,5,5,-16
1522257438406837,18,19,-19,-13,7,-1,-6,-3
1522257438406837,0,18,19,18,23,7,9,0
1522257438421877,56,-11,-1,-11,-27,8,0,-8
1522257438421877,-78,-13,-23,-18,-4,-4,-3,-7
1522257438423883,12,-10,3,19,-3,-10,0,13
1522257438423883,-31,-6,6,15,37,8,1,-3
1522257438444939,21,2,0,-15,-13,-5,1,6
1522257438444939,50,-4,-6,-11,-31,5,7,11
1522257438445941,-27,-8,2,10,26,-5,-10,-6
1522257438445941,-45,4,-1,-4,49,1,-5,-10
1522257438457973,55,-5,5,22,1,9,5,3
1522257438457973,-39,8,0,4,14,4,-1,-2
1522257438466997,-31,-8,-9,-8,-10,-7,-9,-10
1522257438466997,62,-3,1,-7,-47,-11,0,12
1522257438482037,-14,5,4,-2,30,5,-6,-12
1522257438482037,62,-2,-6,-9,-12,-16,-1,4
1522257438484043,-63,-2,8,5,-9,7,5,4
1522257438484043,40,31,3,-2,-22,-10,-5,13
1522257438504096,-104,-38,-11,-8,7,25,-9,-25
1522257438504096,-7,3,-3,-7,-24,11,4,5
1522257438506101,16,-6,2,9,-3,-1,4,2
1522257438506101,17,0,5,10,10,10,-2,-1
1522257438518133,0,9,-2,-21,-25,-35,2,5
1522257438518133,0,10,-1,-15,-5,11,2,8
1522257438527157,-11,-10,2,26,31,4,-6,-3
1522257438527157,55,3,1,25,-9,-12,-9,-5
1522257438541194,28,3,-2,-12,-18,5,-4,-4
1522257438541194,18,-7,-6,0,19,1,-3,-2
1522257438548213,13,-4,-1,-11,-14,0,-1,1
1522257438548213,-38,-8,-1,-2,-4,-4,-1,-5
1522257438564255,0,13,-2,-5,-16,-2,1,4
1522257438564255,-13,8,-9,-3,14,-13,1,6
1522257438566261,28,-54,-3,-4,0,6,-6,-3
1522257438566261,-37,29,18,3,8,5,1,-6
1522257438578293,-11,6,13,3,-5,-3,-6,10
1522257438578293,29,7,-5,3,9,2,-3,2
1522257438587317,18,-13,-13,5,2,-3,0,-5
1522257438587317,3,-21,-18,5,20,0,-2,-3
1522257438601354,20,27,14,11,-5,-3,4,0
1522257438601354,13,-5,0,-6,-11,-3,1,-4
1522257438608373,-9,-17,-22,-40,-38,3,3,-1
1522257438608373,-45,30,37,0,5,1,5,-3
1522257438624415,-5,-25,-20,-4,-18,-9,0,-8
1522257438624415,-7,-10,-4,0,-6,-6,-1,0
1522257438626422,11,6,6,11,20,-6,3,5
1522257438626422,8,29,-13,-10,-7,-2,1,-8
1522257438647477,-80,-9,12,2,-6,-6,-3,-9
1522257438647477,-27,0,1,-4,-13,2,0,3
1522257438648480,-36,16,-1,-3,2,-1,-5,-3
1522257438648480,35,-20,-27,-1,-2,-4,6,1
1522257438661514,78,-37,-2,6,23,-2,-2,3
1522257438661514,-34,55,3,2,-52,-2,-4,-19
1522257438668533,55,-11,33,26,76,13,6,11
1522257438668533,-4,-25,-12,-3,-9,-6,-9,-13
1522257438684575,32,17,-15,1,21,-1,-11,-1
1522257438684575,32,-1,-1,-8,-15,-6,3,12
1522257438686581,38,-32,-9,-9,-1,-7,6,11
1522257438686581,-28,43,27,-5,-58,-2,-9,-22
1522257438706634,-18,-2,-10,-15,-3,3,11,7
1522257438706634,16,-55,-15,4,16,6,7,3
1522257438708640,-21,58,-1,0,1,3,-3,-2
1522257438708640,-2,-32,-5,-9,34,-18,-5,10
1522257438721674,-10,-5,3,-6,-79,1,-13,-9
1522257438721674,57,4,5,19,91,-9,-3,-5
1522257438727690,82,1,0,7,4,9,7,10
1522257438727690,-100,-14,1,3,25,16,5,-2
1522257438744735,102,20,-5,0,21,-4,3,18
1522257438744735,-40,-24,0,2,-15,12,0,-13
1522257438745738,-46,19,3,0,-6,-9,-2,5
1522257438745738,-82,-24,-11,-11,-29,-32,-11,-9
1522257438766794,9,4,0,-10,-40,21,1,11
1522257438766794,-59,-5,-1,-4,-44,-4,1,11
1522257438768799,-5,-1,-2,6,66,-20,-8,-32
1522257438768799,-5,-1,3,2,-9,43,10,10
1522257438780831,51,20,0,5,28,-8,-2,8
1522257438780831,-49,-16,-5,-8,28,14,-5,-15
1522257438787850,44,16,1,-11,-99,-4,0,-14
1522257438787850,-3,-19,-3,11,53,-4,5,6
1522257438804895,33,-5,0,-3,25,1,-5,-13
1522257438804895,-38,9,2,4,8,9,2,-1
1522257438805898,16,-1,-6,-6,-6,-9,-1,12
1522257438805898,26,-9,1,2,-20,8,3,7
1522257438826954,-43,-6,5,1,-2,-6,-1,-12
1522257438826954,38,21,4,0,4,-15,-3,9
1522257438828959,-1,2,-2,-4,-10,9,0,2
1522257438828959,27,-5,1,-4,-10,-34,4,4
1522257438840991,-44,0,-7,-10,-95,17,-2,-11
1522257438840991,53,-19,-4,5,74,11,2,2
1522257438848010,-20,10,-3,16,-8,-7,-2,-2
1522257438848010,32,10,2,5,12,29,6,8
1522257438864053,-44,-25,0,14,31,-16,1,-18
1522257438864053,15,12,0,-9,-21,-6,-9,2
1522257438866058,60,3,-8,-6,-15,-1,-5,17
1522257438866058,47,-23,-15,-14,-15,-15,-3,13
1522257438887113,-57,58,40,7,22,3,6,-11
1522257438887113,-10,-10,-2,-1,-20,-6,-5,-20
1522257438888116,-39,11,-7,-7,16,-1,-6,-5
1522257438888116,-17,-30,0,-1,-14,4,-5,0
1522257438900149,-20,11,8,-2,20,-3,5,1
1522257438900149,42,-11,-1,7,1,-7,-2,9
1522257438909172,-33,34,13,9,-11,3,-4,-5
1522257438909172,16,-39,-11,-1,4,6,0,-3
1522257438924212,26,-13,-18,-10,-12,-2,5,12
1522257438924212,6,25,7,-3,-9,-2,4,-3
1522257438926218,-28,-31,-6,10,13,4,0,-8
1522257438926218,28,7,-3,-7,-19,-3,-1,6
1522257438947273,-1,27,7,-8,19,-5,5,-15
1522257438947273,-14,-8,-5,0,-6,-2,-5,7
1522257438948276,-10,-24,3,25,32,3,-2,-5
1522257438948276,16,31,8,2,6,0,6,3
1522257438960308,-57,3,-16,-30,-33,-3,-1,0
1522257438960308,-43,-29,-14,-11,-1,3,3,-1
1522257438969332,-37,5,9,10,22,-4,-10,-23
1522257438969332,87,45,38,68,54,2,2,23
1522257438984372,-41,-40,14,-14,-56,-2,-6,-12
1522257438984372,17,12,-36,-80,-84,-7,5,-12
1522257438986378,-4,-21,-22,-19,-7,-4,0,-12
1522257438986378,32,-19,-5,2,-21,-9,-2,-5
1522257439007433,104,-26,-5,21,73,-1,4,0
1522257439007433,87,29,18,28,25,-5,7,15
1522257439008436,15,-44,-16,-45,-82,-6,2,-8
1522257439008436,-79,14,-17,-6,-3,-4,-10,-18
1522257439020468,-8,-2,-2,27,82,7,6,13
1522257439020468,-12,-14,9,17,-2,4,-1,-1
1522257439029492,-4,24,-2,0,-2,-9,0,7
1522257439029492,-7,11,6,-10,-13,22,0,-5
1522257439044532,26,2,-7,-12,-31,-8,-2,15
1522257439044532,-108,-13,-4,1,-14,3,-13,-23
1522257439046538,57,-7,8,6,9,6,4,11
1522257439046538,-60,21,8,-9,21,-18,3,-8
1522257439066591,33,-15,-10,-3,-11,16,0,27
1522257439066591,14,0,-3,1,-8,-6,-10,-10
1522257439068596,-59,1,5,-8,-26,-6,-5,-3
1522257439068596,0,-8,-5,-11,5,-8,-6,-8
1522257439080628,-56,7,-4,0,-13,19,2,-5
1522257439080628,41,0,14,12,28,1,9,18
1522257439089652,83,30,4,-10,-50,4,-7,-1
1522257439089652,-38,-16,-11,4,66,15,-1,-8
1522257439104692,74,3,-5,-4,-43,-48,-12,1
1522257439104692,62,9,5,8,41,10,3,6
1522257439105695,-128,-15,3,15,18,29,4,-6
1522257439105695,126,-10,-11,-19,-6,-8,-1,16
1522257439126751,-49,-10,-7,18,-12,12,-4,-11
1522257439126751,49,-12,-4,0,2,-19,-9,3
1522257439128756,-31,12,7,-2,-9,-15,-3,-10
1522257439128756,-19,7,7,-1,-30,3,3,8
1522257439148809,24,-2,-3,-6,-14,-9,-4,5
1522257439148809,-7,-2,-5,2,37,-7,-5,-6
1522257439155828,-51,-7,-7,-7,18,5,-6,-4
1522257439155828,-47,-13,-5,-5,-45,4,-5,-20
1522257439164852,-17,1,5,-4,34,-10,0,2
1522257439164852,52,-9,-17,6,-16,6,-3,8
1522257439165854,-1,25,29,4,8,0,-1,0
1522257439165854,11,-3,-5,-6,-21,-5,-4,1
1522257439186910,26,-4,-1,9,62,5,-4,-6
1522257439186910,-65,-3,-3,-6,-34,-6,-4,-7
1522257439188916,45,-15,-15,-3,30,4,0,8
1522257439188916,22,2,0,-9,-20,-10,-2,6
1522257439200948,-16,22,0,-2,-21,0,-1,4
1522257439200948,-30,-31,-6,0,3,3,0,-16
1522257439209972,24,-4,-14,-5,8,-7,2,-6
1522257439209972,-1,-3,25,10,-7,8,11,5
1522257439224009,-60,16,17,14,11,-1,-5,-11
1522257439224009,-55,51,-10,6,16,6,8,6
1522257439226014,20,11,0,-8,-21,-1,8,10
1522257439226014,2,-53,-9,-4,4,3,-1,-24
1522257439247070,49,25,-21,-1,18,-2,12,-10
1522257439247070,14,-49,36,13,3,3,9,3
1522257439249076,29,26,-13,-16,-39,-9,0,-4
1522257439249076,40,15,-4,9,27,-5,-5,5
1522257439261108,3,-25,-3,-1,-13,-9,9,3
1522257439261108,31,43,-17,-33,11,14,6,6
1522257439270132,2,-26,15,2,-32,-5,0,7
1522257439270132,-3,5,-9,4,48,3,-3,5
1522257439284169,-60,10,12,4,13,-9,-4,-6
1522257439284169,-8,20,28,41,-3,0,-10,3
1522257439286174,-4,14,-24,-6,2,-6,-1,18
1522257439286174,-66,-49,5,-27,-21,0,1,-20
1522257439307230,-13,-54,-17,-12,-8,3,-7,3
1522257439307230,14,8,6,-14,-40,-9,0,-5
1522257439308233,-10,41,10,17,38,0,-4,-3
1522257439308233,5,34,3,28,8,-1,-3,11
1522257439320265,-45,-20,-9,-14,-20,3,-1,-9
1522257439320265,-17,-1,-7,-21,-24,0,5,8
1522257439329289,68,-13,-7,5,20,4,3,5
1522257439329289,-83,18,-2,-4,-4,0,-1,-14
1522257439344329,1,-3,6,0,-29,-2,-5,-7
1522257439344329,-19,5,6,11,36,-1,-2,0
1522257439350345,27,-18,-1,-1,4,-17,0,0
1522257439350345,96,2,-4,-9,-4,14,4,5
1522257439367390,-64,8,-1,1,-6,9,-3,-4
1522257439367390,51,-6,-7,1,-10,4,1,13
1522257439368393,-101,-24,-1,-4,10,0,-6,-17
1522257439368393,5,7,-2,-2,-23,-8,-4,-1
1522257439380425,40,3,4,6,9,-3,1,5
1522257439380425,76,11,7,4,-31,-10,9,17
1522257439389450,-92,-22,-5,-16,44,29,-14,-13
1522257439389450,71,17,-3,11,-12,-24,-1,18
1522257439404488,-78,-12,-2,4,-13,14,2,-13
1522257439404488,10,-15,-11,-11,-16,5,-7,-8
1522257439406494,41,5,4,4,12,-6,-1,-7
1522257439406494,-11,-6,-5,-3,12,6,0,0
1522257439426547,54,32,0,-4,-3,-11,3,12
1522257439426547,-36,-27,-1,2,6,-3,2,-5
1522257439428553,1,-3,7,0,-7,-2,8,11
1522257439428553,7,24,7,-9,-15,-8,5,6
1522257439440584,127,65,6,-43,-28,-32,3,40
1522257439440584,-115,-89,-33,35,0,41,-40,-67
1522257439449609,-3,-29,-7,9,10,13,-5,-13
1522257439449609,46,-13,-10,18,50,2,-12,-10
1522257439464648,51,5,9,4,6,7,5,14
1522257439464648,49,39,7,-24,-12,-25,4,16
1522257439465651,6,-9,-3,0,-29,-7,-4,-2
1522257439465651,-53,-4,4,-2,-15,5,4,3
1522257439486708,-12,-10,-5,-5,6,-6,-7,-10
1522257439486708,-14,8,-3,-10,-1,-15,-1,8
1522257439488713,8,-5,8,11,1,3,3,-5
1522257439488713,-94,18,3,-11,-8,-7,-1,5
1522257439500745,-5,-37,-21,3,5,3,-7,-6
1522257439500745,2,23,17,1,8,-4,-7,-22
1522257439509768,59,6,6,-1,-4,0,7,10
1522257439509768,50,-4,-13,-13,-15,-2,-4,-2
1522257439523806,-23,-1,14,11,12,9,-3,-13
1522257439523806,6,9,1,6,13,1,14,14
1522257439530825,28,1,-9,-1,-1,-5,7,8
1522257439530825,-5,36,2,12,4,2,2,-2
1522257439546867,-19,-78,5,10,8,7,0,-3
1522257439546867,-21,16,-12,-33,-40,-12,11,5
1522257439548872,-13,6,5,-14,-14,-2,9,2
1522257439548872,-18,-16,-10,0,6,-4,1,-8
1522257439569928,-7,18,1,5,12,0,1,-10
1522257439569928,26,0,3,4,16,-6,-5,10
1522257439570931,-3,-14,-5,9,2,-4,-3,5
1522257439570931,9,-3,-8,-19,-25,-8,-3,3
1522257439583966,-12,11,5,2,23,8,2,-2
1522257439583966,-4,-31,0,-3,24,-2,-5,-3
1522257439590984,-7,-9,-21,-1,-19,-3,-8,-9
1522257439590984,11,-18,27,35,48,5,-1,6
1522257439607027,-3,35,-6,-12,-40,-4,-2,-2
1522257439607027,-20,-15,-33,-35,-33,-4,0,-3
1522257439609032,12,3,22,11,17,-2,0,2
1522257439609032,0,32,18,52,50,4,1,4
1522257439629085,-22,-44,-30,-53,-74,-6,0,-9
1522257439629085,-37,66,22,-40,-38,6,8,10
1522257439631091,-8,-12,-15,-25,-17,-5,-11,-7
1522257439631091,0,-10,-14,-5,-7,-5,-4,2
1522257439644125,-10,-22,-3,37,48,-6,-12,-7
1522257439644125,15,9,4,19,-12,-12,3,-4
1522257439650141,29,22,6,-10,-9,-11,5,9
1522257439650141,-27,-28,-6,8,37,-8,-1,-4
1522257439667187,-12,7,3,18,65,33,4,-5
1522257439667187,-26,-17,0,1,4,1,1,-6
1522257439668189,1,9,7,6,15,8,0,4
1522257439668189,3,-12,-6,-26,-50,-2,0,-2
1522257439689245,33,9,1,-9,-18,-7,3,5
1522257439689245,8,12,9,21,28,-5,2,0
1522257439691251,27,-10,-4,7,2,6,-3,1
1522257439691251,-41,-11,-12,-29,-58,-14,-9,-15
1522257439704285,19,9,0,-9,4,24,1,1
1522257439704285,45,-16,2,31,21,5,1,3
1522257439710301,2,13,1,1,-5,0,5,2
1522257439710301,-80,-18,-5,-16,-27,-3,-1,-12
1522257439727346,-3,4,1,1,-1,-9,-2,13
1522257439727346,13,-4,6,3,8,-4,-6,-14
1522257439728349,97,19,2,6,-15,-31,4,10
1522257439728349,-58,-8,-17,-13,4,32,-16,-20
1522257439749405,-20,-19,-2,4,11,-6,-3,1
1522257439749405,10,5,1,-4,-2,0,2,12
1522257439751411,-24,1,0,-8,-10,-1,1,-9
1522257439751411,-15,-14,-8,9,29,3,7,12
1522257439763442,66,6,5,1,-8,-6,-4,-3
1522257439763442,-90,23,18,6,-4,-20,-2,-5
1522257439770461,-14,-5,6,1,5,28,-2,3
1522257439770461,26,-8,-5,-7,-8,1,1,-4
1522257439786504,-17,-12,-12,-2,-8,-1,1,-3
1522257439786504,22,-13,-8,-1,10,-2,-1,1
1522257439788509,-22,-1,1,4,-4,0,-2,-2
1522257439788509,62,5,7,-5,-6,-4,11,26
1522257439809565,-71,9,3,-5,11,-28,-10,-22
1522257439809565,26,-16,-19,-54,-30,-10,-15,-14
1522257439811571,1,0,0,34,-7,55,-1,-1
1522257439811571,62,11,4,13,35,3,-5,6
1522257439823602,24,9,12,34,-9,-9,0,6
1522257439823602,-4,-6,-3,4,6,-2,0,6
1522257439832626,-23,-6,-8,-30,-5,-24,-8,-3
1522257439832626,7,6,7,-10,-27,-2,0,-1
1522257439846664,-22,-2,1,-1,-1,2,6,15
1522257439846664,68,0,3,8,9,6,0,-5
1522257439848669,-40,-6,-16,-15,-5,-16,-21,-22
1522257439848669,-52,-23,-2,-4,-11,-1,-8,-9
1522257439869725,19,9,-2,-6,-3,-3,-1,0
1522257439869725,13,-9,0,12,8,12,5,6
1522257439870728,11,10,12,10,12,1,15,7
1522257439870728,20,11,0,-4,-9,-1,6,-4
1522257439882760,-14,-13,-8,-10,-6,4,-1,-5
1522257439882760,-18,-5,-4,7,3,8,5,1
1522257439891784,-3,-10,-20,-4,10,-6,6,6
1522257439891784,-18,21,21,-1,-7,-5,13,-8
1522257439906824,3,-14,6,4,-9,3,4,6
1522257439906824,-14,11,0,2,1,1,-1,-6
1522257439908829,-18,-6,-10,-6,4,-8,-1,-2
1522257439908829,24,-5,-14,-4,-5,-1,3,0
1522257439929885,15,4,4,0,2,0,3,4
1522257439929885,-19,-3,-4,3,3,1,-1,-1
1522257439930888,-7,-6,5,-2,-1,-3,-1,2
1522257439930888,13,4,9,22,30,1,-4,-2
1522257439943922,2,-1,14,39,54,6,-1,4
1522257439943922,5,3,-37,-42,-49,-9,-8,4
1522257439950941,13,-14,-6,-37,-50,0,1,-14
1522257439950941,-6,0,1,-11,-21,-9,-10,-11
1522257439966983,4,10,18,3,-6,-8,-7,-5
1522257439966983,-4,-39,4,12,15,-1,-3,-4
1522257439968989,7,9,-8,-7,-1,-3,2,8
1522257439968989,8,14,-10,-18,-13,2,0,3
1522257439989042,-6,-6,-6,0,10,0,-2,-4
1522257439989042,21,-32,-42,10,19,1,-1,9
1522257439991048,-23,65,80,25,15,2,2,-5
1522257439991048,1,-9,12,3,2,6,1,1
1522257440003079,3,36,-2,-7,-6,-2,4,-4
1522257440003079,-1,-8,17,10,-31,-1,-7,-13
1522257440012104,-46,-58,-29,14,26,-8,-11,-13
1522257440012104,16,10,-19,-25,-20,-8,-7,0
1522257440027143,3,8,-3,-21,-33,-1,1,-1
1522257440027143,-5,-8,-2,-12,-38,0,1,3
1522257440028146,13,1,2,15,57,5,0,5
1522257440028146,-16,-1,13,16,12,-17,7,-1
1522257440049202,23,-16,-17,-5,-7,29,3,5
1522257440049202,0,21,11,0,9,-3,-1,4
1522257440051207,63,10,2,4,-9,-14,-1,10
1522257440051207,-38,-3,-1,-2,-3,27,-1,-8
1522257440063239,-21,-10,-10,-8,-1,-12,-3,-8
1522257440063239,75,15,11,5,29,-12,-2,18
1522257440072263,66,6,1,-7,-12,12,4,-6
1522257440072263,-12,-16,-10,-8,-22,3,3,7
1522257440087303,-34,5,3,-7,30,-11,2,-4
1522257440087303,-39,4,5,9,-60,7,-6,-8
1522257440088306,86,-3,-12,-5,62,-13,6,23
1522257440088306,-38,-2,-5,-13,-101,-5,-3,-6
1522257440109362,0,0,1,24,65,5,-2,-2
1522257440109362,-63,3,4,7,35,19,-1,-13
1522257440111368,7,-2,-7,-2,-16,-3,-4,-1
1522257440111368,65,4,1,5,27,-1,1,5
1522257440123399,0,1,-3,-19,-86,-11,-3,-1
1522257440123399,48,5,1,-1,31,-7,4,15
1522257440132423,-73,-15,-5,-5,-24,2,-7,-12
1522257440132423,10,-5,2,-2,4,-7,-2,5
1522257440147463,15,10,4,-5,-32,-8,-4,1
1522257440147463,36,16,12,9,25,16,11,5
1522257440148466,-128,-2,-7,-6,-14,4,-9,-19
1522257440148466,51,-13,-9,0,14,-6,-2,9
1522257440169522,-57,-28,-12,-7,1,-7,-8,-27
1522257440169522,-16,-16,3,0,-9,-29,-4,-12
1522257440171527,7,14,-4,4,37,37,3,-2
1522257440171527,21,27,10,2,10,-2,-4,2
1522257440183559,41,-5,-2,-1,1,6,4,17
1522257440183559,-56,4,6,-2,4,-2,-5,-20
1522257440192583,-3,-16,-8,-3,-34,-21,-10,-10
1522257440192583,2,-3,-12,2,18,1,-5,-1
1522257440206620,-12,-13,-4,-1,14,2,-6,-4
1522257440206620,7,20,10,3,2,-1,-5,-1
1522257440208626,16,-10,1,1,-14,-7,4,8
1522257440208626,3,-9,2,0,11,8,1,-3
1522257440229682,31,-6,-12,-6,-14,-6,-1,4
1522257440229682,8,-12,5,7,14,3,5,6
1522257440230684,-9,26,2,-7,-17,-2,3,-5
1522257440230684,-4,-8,10,-2,10,-3,0,1
1522257440242716,-1,-4,-7,-9,-23,1,0,-2
1522257440242716,-11,12,-8,-9,2,3,-3,-9
1522257440251740,0,-31,6,13,2,-1,5,5
1522257440251740,6,25,-1,9,23,-1,0,1
1522257440266780,12,-17,1,-5,6,1,4,4
1522257440266780,-1,6,-16,-20,-12,0,-2,1
1522257440268785,-2,10,-5,0,33,-5,-5,-4
1522257440268785,16,-37,-16,5,-11,-6,-4,11
1522257440289842,20,51,27,27,11,4,7,3
1522257440289842,-44,15,17,-14,-3,0,-8,-46
1522257440290844,47,-17,-9,-18,-52,-6,5,19
1522257440290844,-56,-74,-4,7,28,-1,-2,-13
1522257440302876,-2,31,-5,20,46,-2,-12,5
1522257440302876,44,4,11,44,-14,0,2,12
1522257440311900,-45,-21,-23,-72,-52,-9,5,-9
1522257440311900,48,4,-20,-35,-55,2,9,6
1522257440326940,-42,-25,-7,-27,-15,-9,5,4
1522257440326940,54,-23,-3,1,-5,-9,2,27
1522257440328946,-78,13,23,51,40,-7,-14,-50
1522257440328946,107,23,5,11,55,30,16,20
1522257440348999,-88,-9,-4,-7,-1,4,0,-12
1522257440348999,-33,-14,-6,3,29,8,0,-5
1522257440351004,97,8,-3,0,-17,-16,-3,12
1522257440351004,-13,11,0,-9,-22,-6,-4,-10
1522257440363036,-52,2,7,6,-17,23,4,-9
1522257440363036,20,-9,-13,-13,-3,0,10,22
1522257440372060,-35,-6,3,2,8,13,3,1
1522257440372060,-1,26,8,7,-11,-32,1,10
1522257440387100,-6,-11,-5,-14,-11,7,-6,1
1522257440387100,72,-1,0,-8,-41,6,0,5
1522257440389105,-67,12,2,14,14,-19,-1,11
1522257440389105,12,5,-2,0,19,31,-10,-12
1522257440409158,93,-7,0,1,-16,-5,10,22
1522257440409158,-72,-4,-17,-10,-5,-4,-15,-34
1522257440411164,41,0,14,12,9,5,7,11
1522257440411164,-21,18,15,8,-11,-19,14,27
1522257440423196,-31,-23,-18,-8,-11,-10,-23,-36
1522257440423196,-5,-15,-19,-15,2,-4,-29,-30
1522257440432220,66,14,-1,-4,-18,7,-1,11
1522257440432220,-61,-6,0,5,18,-14,-7,-11
1522257440446257,113,13,8,6,15,26,14,15
1522257440446257,99,17,8,0,-10,-31,10,30
1522257440453276,-128,-28,-14,-32,-6,35,-11,-32
1522257440453276,68,10,4,1,-85,-15,4,13
1522257440469319,-27,5,-3,17,72,-6,-7,-8
1522257440469319,29,-9,-3,-1,-30,9,2,-13
1522257440471324,-26,3,7,16,50,4,6,17
1522257440471324,-19,-1,-4,1,-1,0,-8,-9
1522257440492380,15,1,-3,-9,-48,-30,-11,-10
1522257440492380,-4,10,10,5,21,1,3,11
1522257440493383,8,-5,3,-3,-15,-30,-4,-1
1522257440493383,1,-3,-4,-3,16,32,-2,-5
1522257440506417,17,-8,-4,-7,-6,-10,-5,2
1522257440506417,15,-1,-4,-4,18,6,1,0
1522257440513437,127,-25,-13,-3,-23,-8,1,4
1522257440513437,22,38,28,8,22,2,-2,-5
1522257440529478,27,-8,-5,1,-6,3,1,7
1522257440529478,-99,-15,14,14,12,2,0,-5
1522257440531484,-26,6,-11,-1,-14,5,1,8
1522257440531484,-8,-7,-48,-16,-8,-6,-2,2
1522257440551537,-48,-6,49,-7,-9,3,2,-17
1522257440551537,-56,0,-14,-33,-19,-4,1,-9
1522257440553543,-6,-44,2,30,38,3,5,3
1522257440553543,-12,64,9,32,56,2,-3,-9
1522257440566577,11,-22,-10,-32,-39,-5,10,9
1522257440566577,-20,17,8,-21,-21,4,16,5
1522257440573596,16,1,3,-33,-71,-17,-15,-12
1522257440573596,-26,-28,-7,-10,-8,-13,-2,0
1522257440589638,23,17,-3,33,46,3,0,16
1522257440589638,42,9,3,18,36,-9,-3,-10
1522257440590641,-28,-1,-3,9,-19,10,0,0
1522257440590641,-12,-16,2,-1,36,6,4,-7
1522257440611697,0,13,-2,-4,-5,-2,-2,12
1522257440611697,-13,-8,0,10,17,5,-2,-3
1522257440613702,16,53,11,23,-2,-7,-1,2
1522257440613702,-5,-47,-8,-10,-24,-4,-3,-1
1522257440626737,-19,5,-15,-19,-13,1,3,-9
1522257440626737,31,-1,-6,-5,-18,-2,-5,1
1522257440632753,20,7,-2,5,23,9,4,9
1522257440632753,21,-1,13,-1,-8,2,0,7
1522257440649798,-82,-14,-10,0,6,-5,-5,-20
1522257440649798,-16,1,8,10,2,-4,-4,0
1522257440650801,50,11,1,-5,3,8,-1,0
1522257440650801,-67,-11,2,-5,-10,2,-4,-20
1522257440671857,65,-6,-6,6,1,-3,1,11
1522257440671857,-13,1,-5,-2,-1,2,-3,-5
1522257440673862,-65,1,4,-1,44,-4,4,-5
1522257440673862,-71,-4,2,-3,-26,15,5,1
1522257440685894,-20,10,-6,-4,-13,-4,-8,-13
1522257440685894,-42,-12,-8,14,11,-5,-10,-12
1522257440692913,40,5,6,7,-5,1,5,14
1522257440692913,-27,-11,4,2,3,-35,6,-5
1522257440709958,33,6,0,-10,-37,35,-3,4
1522257440709958,-13,-6,-10,-21,6,15,-5,9
1522257440710961,9,-11,-6,-4,-10,7,-2,-11
1522257440710961,8,6,3,4,25,-26,-7,-2
1522257440732016,28,0,2,13,-85,-5,10,9
1522257440732016,66,12,0,0,27,-9,4,15
1522257440734022,-87,7,0,2,-3,-12,-4,-7
1522257440734022,60,-10,-7,-20,13,25,-16,-8
1522257440746054,22,-2,0,-9,-5,-3,-4,0
1522257440746054,-1,3,8,17,1,3,4,9
1522257440753073,-1,1,5,-6,4,-2,1,0
1522257440753073,-4,5,-1,3,-9,-5,-3,-1
1522257440769115,12,-5,-4,1,30,-7,-1,5
1522257440769115,-23,-2,-14,3,-8,9,9,5
1522257440771121,21,-22,-5,-14,-1,-14,-10,-7
1522257440771121,4,7,4,-2,-16,3,-2,-4
1522257440792177,14,-4,-6,1,-15,-5,-8,-9
1522257440792177,4,-4,11,8,53,6,4,7
1522257440793180,10,-4,-18,-5,-14,-1,-2,-1
1522257440793180,11,-2,-7,-6,-10,3,-2,3
1522257440805211,7,-11,-3,7,34,-5,4,9
1522257440805211,-17,2,2,4,-13,-5,-4,-9
1522257440814235,-8,13,-4,0,-5,7,-2,0
1522257440814235,12,9,21,1,4,4,3,2
1522257440829275,-34,-12,-2,-14,-7,-5,12,0
1522257440829275,-7,-21,-7,-2,-22,-6,-1,-2
1522257440831280,21,-14,1,20,28,0,-1,1
1522257440831280,-32,22,2,8,3,3,6,-2
1522257440852337,-20,-1,-16,-37,-16,-5,3,-2
1522257440852337,0,-26,-4,-8,-4,1,1,-2
1522257440853339,17,27,19,9,9,3,5,10
1522257440853339,37,-3,-13,-2,-19,-8,2,3
1522257440865371,10,22,11,12,22,-2,-2,-4
1522257440865371,13,-13,7,2,-9,-2,-4,1
1522257440874395,-12,31,-6,2,8,1,0,4
1522257440874395,-97,-24,10,18,22,3,-5,-5
1522257440889435,-50,-14,9,25,29,4,-2,6
1522257440889435,66,-2,-19,-55,-53,-28,-4,-6
1522257440891441,39,-19,-10,-11,-6,26,3,-6
1522257440891441,50,-10,-8,-10,-11,-5,-5,-14
1522257440912496,25,17,-2,4,11,-2,0,2
1522257440912496,-8,8,11,22,13,2,6,11
1522257440913499,1,-4,-5,-16,-19,-9,-1,-10
1522257440913499,12,4,-8,-9,-9,0,5,7
1522257440925531,-6,-8,5,10,13,-3,2,5
1522257440925531,-7,18,-1,1,-2,1,-3,-14
1522257440934555,4,-13,3,-5,-4,-3,6,8
1522257440934555,18,9,-1,3,3,3,-1,2
1522257440949595,21,-6,-2,0,7,-14,-4,9
1522257440949595,-49,-7,0,-3,-43,-5,-2,-9
1522257440951601,-18,7,-2,8,51,34,-2,-3
1522257440951601,36,-10,-5,-1,0,4,-2,5
1522257440971653,-47,-8,1,-5,-11,-8,1,-22
1522257440971653,-52,12,4,3,17,-14,-3,-9
1522257440973659,-10,-12,-7,-10,-16,-15,-12,2
1522257440973659,81,1,1,2,-10,-19,-2,10
1522257440985691,3,17,13,1,18,36,11,7
1522257440985691,-37,-1,-3,-5,-8,-14,-5,-12
1522257440994715,44,-19,-15,1,23,7,-16,-14
1522257440994715,7,-1,-4,-14,-25,-2,-6,-1
1522257441009755,8,-9,-3,4,3,-19,-5,-4
1522257441009755,34,14,13,8,9,10,11,18
1522257441010758,-15,8,2,-1,-26,-14,6,-1
1522257441010758,-3,-1,-5,-11,-4,-2,3,3
1522257441031813,-11,6,1,3,23,36,1,-5
1522257441031813,22,-5,-3,13,-15,-15,-11,4
1522257441033819,40,4,3,14,-53,9,3,9
1522257441033819,-6,7,0,10,49,-2,-2,0
1522257441045851,-28,-17,-13,-5,-12,-9,-17,-23
1522257441045851,42,-4,-15,-16,14,12,-10,7
1522257441054874,9,3,7,-7,-21,-16,4,11
1522257441054874,-72,-3,0,-1,-3,4,0,-18
1522257441069915,36,-1,2,-6,4,1,1,10
1522257441069915,4,19,-2,-5,-4,3,-3,-1
1522257441070917,-36,-32,-3,1,3,-13,-1,-6
1522257441070917,-21,32,26,4,-3,14,5,5
1522257441091973,35,-9,-3,-4,-1,-13,-3,6
1522257441091973,-7,6,-1,9,4,8,12,0
1522257441093979,-23,12,2,-3,3,-1,2,-4
1522257441093979,4,-23,-20,-4,0,1,4,-4
1522257441106011,-3,9,2,9,-6,-8,-3,-4
1522257441106011,4,-10,6,11,14,9,5,5
1522257441115034,-15,-4,-3,3,16,3,5,3
1522257441115034,9,-14,-6,-19,-30,-9,3,-1
1522257441129072,-1,18,-3,-12,-14,-7,5,-2
1522257441129072,20,-5,-9,5,21,7,2,2
1522257441131077,-8,-16,28,13,2,-7,-4,-16
1522257441131077,19,-8,-18,-14,-22,-6,-2,-2
1522257441152133,-34,10,-10,-16,-19,-3,0,0
1522257441152133,-14,-18,-8,-18,1,-1,-3,1
1522257441153136,6,54,12,10,17,-5,-7,-6
1522257441153136,10,-18,-28,-1,2,-9,0,6
1522257441165168,-14,-39,18,5,5,1,-9,-22
1522257441165168,-6,49,22,5,-1,0,-5,-9
1522257441174192,-2,20,1,1,3,-4,-5,0
1522257441174192,-10,-63,-16,-5,-4,3,-4,-5
1522257441189232,43,64,2,5,4,-1,2,30
1522257441189232,-9,-52,-1,-5,0,-1,-3,-10
1522257441191237,-8,4,1,-1,1,-4,-6,-4
1522257441191237,-30,30,18,23,28,-2,-7,5
1522257441212293,-9,-11,-12,-7,-21,-3,1,2
1522257441212293,9,-5,-11,-26,-15,6,6,7
1522257441213296,20,1,-6,-16,-12,3,11,8
1522257441213296,9,-14,-1,0,4,2,-7,-11
1522257441225328,-2,-5,7,18,11,-22,0,-4
1522257441225328,25,11,0,11,-14,25,3,1
1522257441234352,-12,-24,-14,-11,13,1,1,4
1522257441234352,17,26,14,6,-1,-2,0,6
1522257441249391,2,-11,-2,-3,1,1,-3,-13
1522257441249391,33,12,1,-1,-6,-5,1,17
1522257441251397,-70,-8,-3,-2,22,12,4,11
1522257441251397,97,19,8,-1,-52,-8,3,6
1522257441272453,-91,-25,-17,7,46,4,-11,-21
1522257441272453,-73,-19,-8,-3,6,9,-8,-20
1522257441273455,94,7,7,2,-8,-17,7,14
1522257441273455,-63,2,-1,5,7,17,2,1
1522257441285487,104,3,-3,-12,-15,-3,0,10
1522257441285487,-9,8,4,9,0,-4,1,-5
1522257441294512,-17,-12,-7,-10,-7,-8,0,1
1522257441294512,19,15,11,-1,8,-32,7,4
1522257441309551,88,24,-5,-15,3,6,-1,18
1522257441309551,7,-27,-20,-17,-88,-3,-16,-29
1522257441311557,-53,-39,-9,35,41,29,-17,-27
1522257441311557,-29,-18,-3,0,-5,5,-4,-15
1522257441331610,4,-1,9,12,-4,-13,0,8
1522257441331610,57,24,9,-8,-19,-23,8,20
1522257441333615,36,7,-3,-16,-25,3,8,3
1522257441333615,-17,-5,-1,7,4,8,3,-2
1522257441345647,-20,6,4,-3,-7,-3,6,-1
1522257441345647,-19,8,2,3,28,3,2,5
1522257441354671,-29,-6,-2,-6,-15,-2,-1,-6
1522257441354671,61,10,5,3,32,10,3,25
1522257441369711,-85,6,-9,-11,-19,-6,-11,-20
1522257441369711,31,-30,-5,-6,19,-7,-17,-28
1522257441370714,43,5,1,5,-3,-21,-10,2
1522257441370714,-1,3,-7,-8,-17,5,-9,0
1522257441391770,17,-9,-2,3,-5,9,0,4
1522257441391770,-13,18,3,12,23,7,6,5
1522257441393775,-12,-37,-21,-17,-25,-15,2,3
1522257441393775,-76,25,24,2,23,9,4,-5
1522257441405807,-33,9,9,10,0,7,-2,-7
1522257441405807,-21,10,6,8,25,-2,2,12
1522257441414831,51,40,-14,2,-5,1,3,3
1522257441414831,16,-32,5,-1,-9,0,-2,-8
1522257441428869,12,-21,-6,-14,-12,4,4,0
1522257441428869,2,11,0,-6,-6,-9,3,8
1522257441435887,6,-38,-17,-6,8,3,3,-7
1522257441435887,-10,37,-5,1,-10,-2,0,-5
1522257441451930,1,-21,5,4,-2,-9,-3,-6
1522257441451930,-2,-4,2,2,0,2,2,-1
1522257441453935,0,-3,-11,-17,-18,-4,-4,-3
1522257441453935,1,6,-14,-22,-2,-5,-3,-5
1522257441474991,-3,-15,9,-3,1,-1,-5,-1
1522257441474991,-30,39,3,9,8,4,2,7
1522257441475994,-6,-13,20,14,16,3,-5,-6
1522257441475994,16,-1,0,17,5,-4,-1,4
1522257441489028,24,14,-13,-19,-28,-3,5,7
1522257441489028,-12,-34,-6,-4,-3,2,3,-2
1522257441496047,-40,-6,9,3,1,-1,0,-5
1522257441496047,1,-16,-3,-2,-2,2,0,-6
1522257441512090,64,38,0,6,11,6,4,-1
1522257441512090,-47,-24,-7,-1,-2,-6,-17,-9
1522257441514095,-14,0,4,-14,-10,-3,-2,0
1522257441514095,7,-17,-10,3,4,-7,-3,4
1522257441534149,-8,-4,-3,9,21,3,8,5
1522257441534149,9,2,5,1,-9,-23,6,-2
1522257441536154,8,13,1,3,1,25,0,-4
1522257441536154,-20,2,-5,-1,2,3,3,-1
1522257441549188,-4,-4,0,-3,-16,-10,-4,-2
1522257441549188,49,-6,0,3,13,9,-1,-1
1522257441555204,-33,15,4,5,-8,-11,-3,-10
1522257441555204,-4,-13,-2,2,-1,1,-5,-10
1522257441572249,27,-6,3,1,8,17,4,8
1522257441572249,-26,9,5,6,-13,-17,9,22
1522257441573252,-27,-1,-15,-16,21,18,-16,-24
1522257441573252,37,8,7,-1,3,12,5,17
1522257441594309,-26,6,6,10,-4,-4,2,-14
1522257441594309,-41,3,-2,-4,14,27,-2,7
1522257441596314,127,23,3,-5,-40,-61,-2,28
1522257441596314,-116,-22,-9,-13,17,50,3,-10
1522257441608346,-61,-4,-2,-15,-84,-62,-14,1
1522257441608346,116,16,-1,27,87,73,9,-5
1522257441615364,-90,-17,3,16,-1,3,0,-8
1522257441615364,109,10,-1,11,11,0,0,2
1522257441632409,-22,-12,-3,-4,-10,-5,0,-10
1522257441632409,-17,3,3,-14,-14,-17,1,-2
1522257441633412,6,16,2,-4,-46,6,3,7
1522257441633412,-20,-9,-2,-10,10,-17,-2,-4
1522257441654468,12,-1,-4,5,20,13,-6,0
1522257441654468,-51,-14,-2,-4,-21,-18,-9,-9
1522257441656473,9,12,-4,0,19,12,0,4
1522257441656473,-17,-12,-25,-9,-31,-25,-9,-5
1522257441668505,14,21,37,9,24,14,-1,-1
1522257441668505,4,-9,-5,-1,-11,-6,-5,4
1522257441675524,5,-16,1,-2,-6,0,2,4
1522257441675524,-77,15,-15,-6,-10,-3,-7,-9
1522257441691567,40,-13,-2,4,23,6,-4,3
1522257441691567,-17,25,-6,-2,-8,-8,-4,-7
1522257441693572,1,-26,28,13,15,-4,0,-3
1522257441693572,9,-53,-30,6,-6,-8,3,4
1522257441714628,-16,71,28,-16,-17,11,11,-8
1522257441714628,-7,-8,-6,-9,15,-2,-4,-8
1522257441715631,-1,3,-11,-16,-33,4,-6,-6
1522257441715631,15,6,4,-9,-13,-12,1,2
1522257441727663,0,-33,-14,40,52,0,4,4
1522257441727663,16,-22,0,-7,-9,-4,15,0
1522257441736686,-17,23,-9,-34,-13,-1,9,2
1522257441736686,15,8,10,-9,-24,-7,4,5
1522257441751726,4,1,-22,-13,-10,-2,-5,3
1522257441751726,-17,-23,19,20,15,-6,-3,1
1522257441753732,23,4,-19,17,38,5,2,11
1522257441753732,-42,18,37,7,4,-1,1,4
1522257441774788,-11,-24,-4,3,-1,6,-6,-6
1522257441774788,15,4,-13,-1,-10,-1,-5,-4
1522257441775791,-52,-15,-2,1,-9,-8,-7,-16
1522257441775791,42,21,-11,-8,-2,-2,-5,-6
1522257441787823,13,-32,-22,-19,-2,-1,-1,1
1522257441787823,22,29,4,-7,-16,0,3,6
1522257441796846,71,8,6,0,4,6,7,8
1522257441796846,-11,1,11,13,16,5,4,-2
1522257441811886,-14,1,-3,2,5,1,-2,-9
1522257441811886,-1,-11,-2,-8,-20,-11,0,-1
1522257441813892,2,10,2,4,14,2,-1,4
1522257441813892,84,2,3,3,4,-23,0,18
1522257441834948,-24,-14,-5,-8,-15,33,2,-6
1522257441834948,34,9,0,0,0,1,-1,4
1522257441835950,-86,-5,0,3,8,-21,-9,-9
1522257441835950,59,-1,5,9,5,17,-3,3
1522257441847982,-12,12,-5,-2,-10,-38,1,13
1522257441847982,-18,-13,-10,-4,11,39,-6,-13
1522257441857006,-21,-16,3,-5,-11,-15,1,-15
1522257441857006,-99,-6,2,-6,9,36,2,0
1522257441872046,63,31,4,-5,-6,-32,-7,16
1522257441872046,16,-16,-10,-11,-53,-7,-16,-18
1522257441874052,95,-1,-6,9,-1,-1,0,22
1522257441874052,-97,-25,-4,0,37,-9,-4,-25
1522257441894105,61,-6,1,6,-7,4,2,8
1522257441894105,-90,2,9,0,1,-9,3,-2
1522257441896111,19,14,5,-4,0,11,4,2
1522257441896111,13,-7,-3,1,-20,-11,-6,-17
1522257441908142,-44,12,-19,-7,-2,7,-1,-3
1522257441908142,-1,4,26,5,14,-10,-1,0
1522257441917166,-36,20,10,3,2,12,4,3
1522257441917166,9,4,-2,-5,-19,-32,-3,2
1522257441932206,-4,-25,-16,-8,6,28,-10,-5
1522257441932206,32,2,-7,0,1,-26,-2,-2
1522257441933209,-18,-10,-2,3,-36,25,-2,-3
1522257441933209,6,1,3,2,34,4,-3,-2
1522257441954265,63,3,4,3,-3,0,4,9
1522257441954265,-20,-4,-6,0,-1,-7,-1,3
1522257441956270,-40,8,4,-4,-4,-7,-3,-2
1522257441956270,-10,-19,0,-6,-23,-6,-7,-6
1522257441968302,-21,-16,0,1,2,2,-1,-6
1522257441968302,32,-14,-15,-1,9,3,2,12
1522257441977326,9,40,13,6,18,-8,-2,-5
1522257441977326,6,7,5,11,10,13,2,-2
1522257441992366,-10,13,19,10,4,-4,3,1
1522257441992366,-5,-42,-7,-20,-18,-5,-4,0
1522257441993369,14,27,-7,2,20,5,1,1
1522257441993369,-5,-6,0,-17,-27,-5,5,-7
1522257442014425,-37,-20,-12,-5,-4,0,-4,-8
1522257442014425,21,29,8,27,6,-10,0,0
1522257442016430,-22,-39,-18,-42,-37,-10,-6,-15
1522257442016430,29,18,5,-5,8,0,1,2
1522257442028462,-15,-5,1,1,16,1,14,-7
1522257442028462,-23,-34,-20,-7,-1,3,-12,9
1522257442037486,9,28,14,29,29,0,5,9
1522257442037486,-65,0,16,10,-10,1,-1,3
1522257442051523,-3,-14,-12,-23,-15,-8,-10,-4
1522257442051523,15,10,9,10,15,2,1,-4
1522257442053529,13,-36,-11,2,7,-5,-1,-6
1522257442053529,29,-16,-24,-14,-20,-4,1,2
1522257442074585,28,14,-13,-2,3,1,5,0
1522257442074585,-30,31,33,6,4,7,8,-4
1522257442076590,39,-15,-11,-12,-10,-1,2,4
1522257442076590,23,15,-2,3,-2,-4,6,6
1522257442088622,9,-6,-1,8,14,15,-5,-9
1522257442088622,48,6,-9,-11,-10,0,1,1
1522257442097646,-35,-4,11,5,9,1,0,-5
1522257442097646,-6,-11,-3,1,-41,-1,-7,-6
1522257442111683,77,16,12,14,54,3,7,25
1522257442111683,-71,-12,-10,-4,-9,-21,-5,-13
1522257442113689,16,-4,0,1,4,26,-2,10
1522257442113689,46,9,0,-1,6,-10,-4,4
1522257442134744,-119,-15,-2,-4,-13,-7,-7,-22
1522257442134744,78,7,-3,-6,-27,2,-1,0
1522257442135747,-27,-16,-7,0,34,11,-2,3
1522257442135747,82,14,-1,-7,-1,9,6,5
1522257442147779,-57,-10,11,18,50,-21,7,6
1522257442147779,-105,-13,-10,-5,7,2,-19,-40
1522257442156803,83,-5,-8,-22,-52,-5,-11,-1
1522257442156803,-57,-4,-4,3,21,-22,-1,6
1522257442170840,70,21,7,22,0,21,7,7
1522257442170840,-4,-24,-7,-1,1,-11,9,-6
1522257442177859,76,10,-12,-13,-45,-26,-17,-4
1522257442177859,-59,-19,-6,-3,10,27,-1,-6
1522257442194904,24,-6,12,4,-5,-11,12,16
1522257442194904,63,49,-11,-3,10,-2,-13,-4
1522257442195908,-59,-15,4,0,-22,-25,9,0
1522257442195908,98,14,1,-1,8,22,2,11
1522257442207939,-80,-15,-1,-4,-24,4,-9,-18
1522257442207939,-62,5,2,0,7,6,3,6
1522257442216963,-5,-5,3,2,19,0,-3,-5
1522257442216963,-55,4,1,3,4,-18,-8,4
1522257442232003,43,7,-1,-8,-4,1,-9,4
1522257442232003,23,-1,3,-5,-17,8,0,7
1522257442234008,-10,3,-2,6,17,-7,-3,-8
1522257442234008,29,-26,-19,-1,-1,3,-2,0
1522257442254061,-10,31,33,0,-17,2,-7,-9
1522257442254061,32,1,11,13,8,-1,4,17
1522257442256067,0,-21,-5,2,3,7,2,5
1522257442256067,-40,2,-4,-4,3,3,-1,-19
1522257442268099,9,21,-29,-3,7,-4,-8,-7
1522257442268099,3,-35,-14,4,2,-1,10,17
1522257442277123,-49,62,52,-8,-7,8,18,-3
1522257442277123,-2,-12,-15,-12,-22,-1,0,-11
1522257442292163,1,17,-13,5,2,-12,-4,1
1522257442292163,13,-9,25,21,26,9,6,7
1522257442293165,-15,-9,-31,-21,-12,-1,0,2
1522257442293165,-74,8,10,-2,2,-6,3,4
1522257442314221,-25,4,-7,-8,-9,-4,-3,-10
1522257442314221,20,-5,8,11,16,0,3,8
1522257442320237,41,3,-5,11,-22,-1,1,7
1522257442320237,49,3,11,3,29,3,-4,-14
1522257442328259,41,-32,4,5,22,3,3,7
1522257442328259,8,30,4,3,-21,4,-5,0
1522257442337283,1,-59,-18,13,0,-4,-5,3
1522257442337283,-11,17,12,-29,-14,-8,-10,-12
1522257442351320,-34,10,-11,-28,-33,-1,-2,-6
1522257442351320,17,-18,-14,-23,-13,-10,-2,-11
1522257442358339,-38,17,6,20,34,6,2,0
1522257442358339,26,6,-3,18,10,-4,3,7
1522257442374382,12,-27,-1,1,9,0,1,2
1522257442374382,-97,11,1,-11,-16,-2,3,-16
1522257442376387,-15,-9,-5,4,4,4,5,3
1522257442376387,19,-8,-2,4,-1,2,3,6
1522257442388418,59,9,13,-3,-11,1,10,21
1522257442388418,-1,-6,-11,-1,-3,13,4,-15
1522257442397443,-51,-11,-5,-2,32,-11,-9,-20
1522257442397443,56,1,-2,3,29,19,0,6
1522257442411480,17,0,0,0,-15,-3,5,12
1522257442411480,74,21,10,-1,27,-16,9,33
1522257442418499,121,-2,1,-26,-104,-12,-3,-15
1522257442418499,-102,-12,-4,56,84,4,-7,-33
1522257442434541,55,-16,-7,-4,-32,15,-2,3
1522257442434541,1,-5,0,-3,3,-21,-1,3
1522257442436547,-65,12,4,-8,-42,39,-2,-5
1522257442436547,101,4,-12,-2,-70,-21,-7,23
1522257442456600,-15,-5,1,11,67,5,-10,-8
1522257442456600,50,9,2,-7,8,1,5,17
1522257442458606,-89,2,-1,3,11,-13,-5,-9
1522257442458606,55,0,-5,-17,-42,-13,-11,-10
1522257442471640,-48,-36,-11,-11,-21,-6,-10,-17
1522257442471640,-2,-9,-3,-6,4,4,-2,0
1522257442478658,-70,5,2,3,11,-3,-1,1
1522257442478658,17,21,7,5,33,14,4,2
1522257442494701,4,-11,-2,-12,-18,-15,-2,0
1522257442494701,-5,-5,-12,-1,-35,4,-3,-7
1522257442495704,24,18,16,13,33,4,4,3
1522257442495704,-40,-5,-4,-12,-10,-2,-2,2
1522257442516760,-10,19,-10,-2,-7,-10,-3,-1
1522257442516760,3,-42,3,0,-27,5,-3,3
1522257442518765,5,-5,-5,5,26,2,-1,5
1522257442518765,-10,-24,-6,-11,-28,-13,-3,2
1522257442531800,-20,5,-3,3,9,2,4,3
1522257442531800,13,18,0,4,21,8,-5,-4
1522257442537815,30,-4,-7,-9,-37,-8,-5,3
1522257442537815,8,31,17,9,29,2,7,8
1522257442554861,-1,-4,-14,17,17,1,-1,-4
1522257442554861,-19,-19,1,-8,-17,2,1,-8
1522257442555864,28,-22,3,-17,-6,-5,8,-1
1522257442555864,-17,5,-11,-6,-10,1,-3,1
1522257442576919,-25,-12,1,2,-18,2,3,-2
1522257442576919,22,5,-14,-5,6,-3,-3,-7
1522257442578927,18,20,11,14,32,-1,2,10
1522257442578927,-17,-10,-8,-20,-26,-6,3,-3
1522257442590957,3,-2,4,2,1,-3,2,-3
1522257442590957,-16,-12,-10,-14,-15,-8,-5,-2
1522257442597976,17,2,-1,7,17,1,3,1
1522257442597976,0,-17,4,12,1,1,0,5
1522257442615021,3,15,8,5,-3,-1,-6,-5
1522257442615021,-58,5,17,6,9,3,6,5
1522257442616024,-29,-1,-18,-24,-8,-3,-4,-2
1522257442616024,-20,-8,-2,-3,-4,-6,-2,-6
1522257442637079,18,1,-1,-9,-10,-5,0,-8
1522257442637079,34,2,2,5,-2,-1,-4,-8
1522257442639085,52,-2,-10,15,23,0,1,9
1522257442639085,13,33,23,0,-11,6,10,6
1522257442651117,-24,-19,-4,-10,-12,3,2,-14
1522257442651117,3,41,13,7,8,2,2,4
1522257442658135,15,-16,-1,4,8,-2,-8,1
1522257442658135,3,4,-11,-2,-9,-1,-4,-5
1522257442674178,-21,-15,-2,-2,-4,1,-2,0
1522257442674178,12,-1,-4,-2,0,-4,-1,6
1522257442676184,49,4,0,1,9,14,2,-2
1522257442676184,-43,-18,-3,-2,-7,0,-4,-11
1522257442697239,13,12,7,0,2,7,4,8
1522257442697239,16,-3,-1,3,-3,-8,-1,5
1522257442698242,15,0,-6,-7,-4,-8,-9,-5
1522257442698242,-23,-6,-3,-3,-3,-7,-5,-7
1522257442710274,17,15,11,0,5,15,5,7
1522257442710274,-88,-6,-7,-16,-9,-14,-2,-12
1522257442719298,29,-10,-4,13,-4,40,-2,3
1522257442719298,-2,14,12,10,14,-26,9,5
1522257442734338,-48,-6,-22,-22,-37,20,-26,-11
1522257442734338,64,-6,-4,7,25,15,-4,0
1522257442736343,-23,5,10,1,-7,-7,8,8
1522257442736343,27,-17,4,14,-2,-1,3,-8
1522257442757399,75,24,-5,-1,1,-11,-9,14
1522257442757399,-20,-12,-9,-6,-15,11,-4,-6
1522257442758402,-71,-11,-1,-9,5,7,-2,-7
1522257442758402,53,-4,-4,-5,-5,2,-1,12
1522257442770434,-13,3,4,-2,3,-17,3,-3
1522257442770434,33,7,1,-3,-4,0,-2,9
1522257442779458,-35,1,2,7,10,-21,1,-15
1522257442779458,-52,2,-3,-7,7,11,-4,-3
1522257442794498,41,-2,-3,-3,-31,-6,-4,1
1522257442794498,-28,-2,-5,1,9,-2,-7,-15
1522257442796503,55,1,4,5,4,-3,7,13
1522257442796503,9,1,-2,-4,-8,3,-6,-7
1522257442816556,2,-6,-1,-1,-3,-1,-1,-10
1522257442816556,20,4,-1,4,-3,-2,4,8
1522257442818563,-4,0,-6,-3,2,-7,-1,-2
1522257442818563,16,21,7,-4,-5,6,-2,-8
1522257442830594,-10,-31,1,5,12,-5,5,1
1522257442830594,-1,20,-7,0,-1,-1,2,0
1522257442839618,-14,-14,7,9,19,-6,-5,-7
1522257442839618,-6,-2,0,4,2,4,1,1
1522257442854658,-19,6,11,-9,-5,-2,8,-2
1522257442854658,3,2,-4,8,10,-2,-3,-3
1522257442855661,-20,-13,-8,3,-8,-4,4,3
1522257442855661,-17,-31,-25,-46,-52,-11,-2,-6
1522257442876716,-22,-3,-4,-4,12,4,10,-11
1522257442876716,-1,15,10,12,12,-5,-4,-9
1522257442878722,57,1,-12,2,8,-6,-1,0
1522257442878722,-6,-9,0,-1,11,-2,-4,3
1522257442890754,-7,1,1,3,-7,-4,5,12
1522257442890754,6,26,-16,-2,9,-5,-8,6
1522257442899778,-12,-41,14,9,7,-2,-5,-6
1522257442899778,15,4,11,-1,-11,2,-2,1
1522257442914817,-10,-7,-4,-3,-1,-4,-4,0
1522257442914817,-3,-6,0,6,-10,4,3,3
1522257442915820,9,44,1,4,0,-8,1,2
1522257442915820,25,-30,-1,16,25,0,1,4
1522257442936876,4,5,-5,-1,1,-3,2,4
1522257442936876,-40,-26,1,-26,-20,2,-1,-21
1522257442938882,-6,11,-6,-19,-14,3,-1,-5
1522257442938882,27,12,6,5,6,5,6,11
1522257442950914,7,-2,1,23,25,4,3,-2
1522257442950914,35,-4,1,1,-8,-9,4,0
1522257442959938,7,-6,1,-10,-11,6,1,2
1522257442959938,-26,9,-3,12,14,7,0,-5
1522257442974977,-40,2,2,1,5,1,0,2
1522257442974977,-26,-14,-7,-10,-13,0,-7,-11
1522257442975980,14,7,-1,-5,-3,-14,-4,4
1522257442975980,67,6,1,5,9,-11,0,13
1522257442997036,64,16,-3,-25,-70,17,-6,3
1522257442997036,-7,-18,-2,4,5,-5,-5,-15
1522257442999041,-31,-14,-7,10,82,-1,-6,2
1522257442999041,78,3,-4,-2,1,1,-3,2
1522257443011073,-101,-4,2,-14,16,7,-3,-13
1522257443011073,65,3,6,25,-1,-5,3,21
1522257443020098,-70,2,1,-9,-59,6,3,-5
1522257443020098,30,-1,-5,-7,1,-14,-6,-6
1522257443034135,61,42,13,-7,8,3,13,23
1522257443034135,-2,-17,-14,-22,-7,-22,-16,1
1522257443036140,-14,-25,5,30,-20,-3,15,-2
1522257443036140,-128,-5,1,2,-6,-19,3,-19
1522257443057196,87,-14,-9,-6,-2,16,-11,-1
1522257443057196,-35,8,11,24,24,5,9,1
1522257443058199,52,12,-3,-17,-19,3,-5,0
1522257443058199,-21,-3,3,4,-7,5,9,-2
1522257443070230,-1,-3,-2,5,16,-21,-2,-2
1522257443070230,10,7,0,-12,-21,3,-3,6
1522257443079255,-8,1,-2,-4,2,4,-4,-2
1522257443079255,-63,2,-4,1,-9,7,-8,-1
1522257443094294,-34,-8,-6,-2,6,-12,-9,-9
1522257443094294,52,-9,1,-1,2,11,1,1
1522257443096300,56,16,-3,-1,-8,-9,-12,-3
1522257443096300,26,4,-6,-10,7,1,-11,-5
1522257443117356,-10,-9,-1,11,-1,-5,-8,-7
1522257443117356,-41,-6,5,1,2,3,4,-5
1522257443118358,10,2,-2,-3,10,-1,-1,2
1522257443118358,30,32,-32,2,-5,3,-3,2
1522257443130391,-26,6,27,12,8,-4,3,-6
1522257443130391,-16,-20,39,10,1,13,11,2
1522257443139415,-8,2,-11,-37,-37,-3,1,-8
1522257443139415,-2,-3,-10,-15,-11,9,7,1
1522257443154454,-2,-14,-9,25,22,-10,3,3
1522257443154454,54,-41,-58,3,29,-4,2,4
1522257443156460,-30,67,72,-18,-29,0,7,-7
1522257443156460,-30,-15,4,-6,-19,-1,6,2
1522257443177515,15,-11,-12,-12,-3,-4,-6,-1
1522257443177515,-19,13,-5,1,-1,-3,-8,-10
1522257443178519,11,-35,-19,20,38,5,5,15
1522257443178519,9,-6,5,0,-5,-3,-6,-6
1522257443190551,23,14,4,-3,-2,-3,-1,-1
1522257443190551,-5,24,5,1,3,-1,-3,8
1522257443199574,-39,-21,-8,3,-3,-2,-9,-14
1522257443199574,-4,-3,14,2,3,0,0,5
1522257443214614,-13,-12,-2,17,11,-3,-3,-8
1522257443214614,-4,2,-4,-14,-13,-3,0,-1
1522257443216620,18,-4,-17,-13,-2,-3,0,-3
1522257443216620,29,15,-5,-11,3,1,3,4
1522257443236673,-30,-38,0,-4,-34,9,5,-1
1522257443236673,9,33,19,5,20,7,3,3
1522257443238678,7,7,-5,12,11,1,-2,-2
1522257443238678,-13,-21,-5,5,8,-5,0,-2
1522257443250710,5,-1,-4,-7,-8,7,0,-6
1522257443250710,-41,5,1,-9,-19,-3,1,-13
1522257443259735,-92,-17,-16,0,8,-11,-2,0
1522257443259735,-9,-10,-4,0,-4,5,-10,-16
1522257443273772,20,9,7,2,3,15,12,15
1522257443273772,-25,-7,-3,-1,27,-6,-4,-2
1522257443280790,62,2,-5,-6,-22,1,-1,16
1522257443280790,28,-4,5,4,-10,-38,2,-9
1522257443296833,-29,15,3,1,27,31,-2,-2
1522257443296833,28,-17,-13,-13,-14,-4,-9,-8
1522257443298839,-19,13,4,6,-9,-10,-3,-2
1522257443298839,26,-6,4,-3,10,17,-2,15
1522257443310870,-16,-7,-3,5,16,8,5,-7
1522257443310870,89,25,-7,-14,-13,-37,-14,19
1522257443319894,-56,-24,-4,0,5,26,-5,-16
1522257443319894,-7,0,3,0,28,3,0,4
1522257443333931,37,14,2,11,-18,-27,-2,7
1522257443333931,-66,-12,0,-6,-7,15,1,-12
1522257443340950,13,5,3,7,16,-7,-2,-1
1522257443340950,-12,-2,-3,-2,-7,6,-5,-3
1522257443356993,7,-7,-7,-16,-4,-11,-5,-9
1522257443356993,11,12,9,16,7,13,8,4
1522257443358998,31,-3,-6,-1,-7,-6,5,13
1522257443358998,-73,3,8,3,-11,11,4,-5
1522257443379052,-19,7,4,-3,7,-13,-4,-3
1522257443379052,16,0,-2,-6,-25,-20,-1,0
1522257443381057,36,-6,-8,-17,2,28,3,2
1522257443381057,73,-10,-36,16,15,-3,-4,6
1522257443393088,1,9,50,8,-11,-5,-4,-2
1522257443393088,-28,5,5,5,0,8,3,-3
1522257443402113,12,-6,3,3,10,-3,-3,-7
1522257443402113,21,8,2,-7,-11,-2,-1,3
1522257443417152,6,1,-22,-5,5,-10,-3,0
1522257443417152,-4,36,-26,4,-21,10,6,6
1522257443418155,-13,-32,44,10,12,-5,3,-5
1522257443418155,-16,-21,-5,-3,-11,-2,-5,-8
1522257443439211,-7,7,-2,-5,-13,-4,-2,0
1522257443439211,-7,-39,-13,-26,-15,-1,0,6
1522257443441217,25,53,1,19,13,-8,3,5
1522257443441217,-3,-7,4,-4,-12,4,10,2
1522257443454251,-16,-41,-16,-16,-3,-1,4,-7
1522257443454251,30,45,9,39,49,6,2,18
1522257443460268,7,-28,-20,-33,-36,-9,-5,-9
1522257443460268,-54,-22,21,-7,-16,-1,3,-15
1522257443477312,5,49,-42,-11,-14,-10,-6,15
1522257443477312,18,63,65,-1,-6,2,5,10
1522257443478315,-28,-16,-2,29,39,1,-1,5
1522257443478315,-17,-1,20,24,19,2,-2,-12
1522257443499372,-13,-7,-22,-17,-14,-7,2,-3
1522257443499372,-16,-37,7,47,50,-3,2,-2
1522257443501377,60,22,-34,-37,-36,-2,6,10
1522257443501377,-21,21,-5,-34,-16,9,10,-5
1522257443513408,1,-8,11,4,-7,-2,-9,-4
1522257443513408,8,2,-8,-23,-14,-2,3,-4
1522257443522432,-6,-15,10,29,16,-7,-4,-11
1522257443522432,18,-2,-25,-6,-6,-9,-11,-4
1522257443537472,-10,-6,17,4,8,-16,4,-2
1522257443537472,-17,12,2,-4,-3,30,-3,-6
1522257443538477,53,-16,-10,-5,-2,1,-1,7
1522257443538477,-63,5,1,0,5,1,-6,-11
1522257443559531,9,12,8,11,14,6,4,-1
1522257443559531,-23,-34,-12,-15,-19,-17,-5,-3
1522257443561536,98,22,3,-2,-6,-7,7,34
1522257443561536,-45,5,8,10,16,22,0,-15
1522257443573568,113,-11,-1,-1,4,7,-4,-2
1522257443573568,-64,-39,-25,-21,-50,-4,-12,-28
1522257443580587,-5,12,4,-1,28,-6,-1,-4
1522257443580587,127,21,4,3,-37,-22,-8,17
1522257443596630,-77,-13,-3,2,87,-22,0,2
1522257443596630,74,-4,8,-15,-65,34,9,-1
1522257443598635,-38,22,-1,35,32,4,2,-5
1522257443598635,-43,-31,-11,-20,7,-15,-17,0
1522257443619691,100,11,6,20,-15,64,9,0
1522257443619691,-49,1,-1,2,37,-36,-7,6
1522257443620694,-103,-6,-6,-20,-24,-3,-15,-22
1522257443620694,6,11,6,4,5,5,9,9
1522257443632725,-53,-7,-1,-7,-40,-18,0,-4
1522257443632725,71,7,-5,-5,8,-14,-3,12
1522257443641749,-31,-3,-1,-5,-20,4,-3,-10
1522257443641749,12,-5,-2,3,2,-4,3,6
1522257443656789,-49,14,14,3,-6,-12,8,8
1522257443656789,52,-3,-14,-2,5,18,-9,-6
1522257443658796,27,3,5,-7,-11,-8,1,2
1522257443658796,7,7,5,2,31,-34,-5,10
1522257443679851,9,-10,-8,-30,-28,20,-6,-7
1522257443679851,-46,-16,0,38,25,12,8,-3
1522257443680853,4,-4,-4,-2,-34,-5,-11,-8
1522257443680853,-51,6,5,10,-7,13,6,0
1522257443692885,11,-16,-16,1,13,-13,-7,-2
1522257443692885,7,29,-13,-21,-5,-9,-8,-7
1522257443701909,-14,-3,22,0,8,4,-2,-5
1522257443701909,45,5,7,6,-18,-8,2,8
1522257443715946,6,-18,-21,-2,-4,-7,-5,1
1522257443715946,-6,7,-43,-15,-10,-2,-5,-2
1522257443722965,7,1,77,35,18,3,10,6
1522257443722965,28,30,-1,15,12,16,10,10
1522257443740011,-18,-19,0,-23,-35,-4,2,-12
1522257443740011,12,-18,-3,-13,-5,4,-12,-9
1522257443741014,11,-6,-54,-27,-13,-10,-6,-6
1522257443741014,40,-71,-12,-1,23,4,3,3
1522257443753045,-23,47,34,13,-12,-4,-1,-21
1522257443753045,1,-5,-3,-7,-7,-12,17,4
1522257443762069,-14,-8,0,3,13,6,4,-10
1522257443762069,-16,-6,-13,-21,-33,-2,-6,-11
1522257443777109,30,-5,-15,2,18,-2,1,12
1522257443777109,-19,-11,34,8,9,0,3,3
1522257443779117,4,-7,-27,1,8,-2,-6,5
1522257443779117,-24,32,6,11,23,6,3,1
1522257443799168,26,-15,8,0,-17,1,-4,-4
1522257443799168,-78,-10,-5,-15,-19,-10,-9,-18
1522257443801173,2,34,-6,-4,4,0,-4,1
1522257443801173,26,-33,-2,15,6,-2,3,11
1522257443813205,-36,29,-5,-32,-22,-10,-10,-5
1522257443813205,14,-35,9,10,19,4,7,10
1522257443822229,6,-10,-9,-3,-8,1,4,-2
1522257443822229,14,31,4,-9,-9,0,-3,-5
1522257443837269,10,-1,-1,21,16,3,2,5
1522257443837269,-1,-17,-6,-1,3,-1,2,-2
1522257443838272,46,18,2,-7,-12,-14,2,-3
1522257443838272,-55,-4,2,1,4,23,-9,-14
1522257443859330,27,-8,-8,4,8,-3,-1,2
1522257443859330,-18,2,0,2,-5,2,-4,-9
1522257443861333,8,-11,2,1,2,-20,-4,-8
1522257443861333,7,9,-4,-11,-48,2,-7,14
1522257443873365,39,4,1,7,23,16,5,10
1522257443873365,-85,-8,1,5,6,0,-5,-21
1522257443882389,29,4,-1,-2,-3,16,2,11
1522257443882389,3,-3,-2,-8,1,-30,-10,-9
1522257443897429,-34,-9,-3,-7,-20,-30,-4,-12
1522257443897429,126,24,11,6,2,-9,-4,12
1522257443898432,-123,-25,-16,7,5,42,-6,-13
1522257443898432,-17,-2,-5,1,29,-3,-1,5
1522257443919488,8,3,14,8,10,-4,8,12
1522257443919488,103,34,2,-6,-23,-6,-3,-4
1522257443921493,-34,-33,-10,-28,-38,2,1,-4
1522257443921493,-54,-3,0,13,40,2,-2,-12
1522257443933525,-20,-7,3,1,-9,7,10,14
1522257443933525,-29,19,-1,-50,-24,-14,-2,10
1522257443942549,-17,4,5,54,54,3,-4,-2
1522257443942549,58,9,2,11,-47,0,-1,1
1522257443956586,35,5,2,24,33,5,2,8
1522257443956586,-9,-8,-4,-1,3,9,4,1
1522257443958592,-4,1,-4,-30,-15,4,0,4
1522257443958592,-52,-20,-23,-1,-3,-16,-2,4
1522257443979648,46,23,15,-3,3,3,-11,-3
1522257443979648,42,0,16,6,-5,-3,-3,11
1522257443980650,10,-25,0,-6,0,-11,-7,-10
1522257443980650,48,-4,7,0,5,4,1,-1
1522257443992682,-15,22,-20,-16,-16,0,-5,-2
1522257443992682,-23,-30,-22,16,28,4,-1,-3
1522257444001706,40,96,7,13,-1,-10,10,9
1522257444001706,-12,2,49,-9,-12,17,11,-2
1522257444016746,-8,-70,-20,7,17,-4,-26,-8
1522257444016746,-46,35,17,16,11,3,13,-4
1522257444018753,-1,5,-8,-31,-29,3,20,5
1522257444018753,30,-20,-16,1,19,-3,2,-1
1522257444039807,-11,-7,-9,5,-8,-5,7,4
1522257444039807,-2,2,-1,5,-9,4,10,9
1522257444040810,34,-9,-3,-3,-7,-7,1,3
1522257444040810,9,1,-11,-34,-30,-2,2,0
1522257444052842,-50,-5,5,-1,8,0,2,-12
1522257444052842,-1,-18,-10,7,12,-1,-5,2
1522257444061866,11,-8,1,0,5,-3,-2,3
1522257444061866,-12,44,23,19,17,1,5,-12
1522257444076906,19,29,-4,-4,-7,-6,-6,0
1522257444076906,3,-35,4,-5,-5,2,6,5
1522257444078911,-89,-11,0,-3,1,-4,-6,-28
1522257444078911,12,9,-7,2,6,0,1,3
1522257444099967,0,6,-2,-3,-7,7,6,1
1522257444099967,0,-1,0,-4,-3,4,1,1
1522257444100970,17,-7,4,5,2,0,-2,4
1522257444100970,33,11,-6,0,1,4,3,16
1522257444113002,-9,-6,1,-6,-14,-3,3,-10
1522257444113002,-17,-3,-2,2,9,8,-1,3
1522257444122026,41,-5,-5,-2,-48,-21,-17,-8
1522257444122026,-37,-6,-6,-3,34,15,-6,-8
1522257444137066,40,-2,-1,-1,-25,-1,-2,6
1522257444137066,99,13,8,11,27,20,-1,8
1522257444139072,-102,-34,-3,-10,-3,-28,-9,-20
1522257444139072,63,20,-11,-18,-17,-21,-12,7
1522257444159124,-21,-28,0,4,-8,17,-2,-9
1522257444159124,30,1,9,28,13,5,5,8
1522257444161130,54,28,5,1,16,15,-2,13
1522257444161130,-93,-24,-9,-11,-3,-29,-11,-12
1522257444173162,-73,-11,-12,-36,-37,-9,-18,-26
1522257444173162,13,1,-5,7,8,6,-2,-2
1522257444182186,36,-8,7,16,10,3,8,19
1522257444182186,19,14,1,9,10,2,2,0
1522257444197225,14,-4,-1,3,2,5,3,5
1522257444197225,-15,-1,-6,-16,-14,-16,-2,-12
1522257444198228,6,-3,2,-5,2,2,3,2
1522257444198228,8,5,0,1,-11,12,0,5
1522257444219285,-13,-1,-1,1,15,-2,2,-2
1522257444219285,-41,11,1,-7,-18,-6,-5,-2
1522257444221290,-38,14,-33,-4,-2,0,-3,1
1522257444221290,-36,-27,46,9,12,8,-1,-9
1522257444233321,5,19,4,7,17,-8,2,5
1522257444233321,14,-18,-2,-3,-5,-11,-7,-4
1522257444242346,39,6,-5,-3,5,6,-2,-1
1522257444242346,33,73,-2,16,4,-1,3,-1
1522257444256383,7,-46,14,8,5,-2,-2,-2
1522257444256383,6,-6,-27,-6,9,1,3,1
1522257444263401,-4,-2,22,-11,-6,7,20,3
1522257444263401,1,-27,-15,-17,-29,0,-7,1
1522257444279444,15,71,27,10,1,-4,3,9
1522257444279444,-23,-21,-28,-19,-24,-7,-4,-8
1522257444281450,-44,-22,-1,5,9,0,3,-2
1522257444281450,-2,8,5,15,32,1,8,2
1522257444293481,8,-14,-14,-4,-9,2,0,2
1522257444293481,-25,-9,1,-5,-6,-6,0,1
1522257444302506,15,54,-2,-3,1,-1,-3,-3
1522257444302506,45,-70,-5,3,-3,0,-6,13
1522257444316543,-6,21,3,14,18,-2,-6,-4
1522257444316543,-53,-13,16,-2,-2,-6,-6,-8
1522257444323562,42,-14,-11,-7,-1,0,-6,1
1522257444323562,-49,2,-28,-28,-31,-8,-2,-10
1522257444339604,12,35,-2,7,16,-1,4,5
1522257444339604,-23,-47,14,13,14,1,11,-4
1522257444341610,18,14,0,-15,-20,2,9,0
1522257444341610,-10,-6,-15,-15,-18,1,-4,-11
1522257444361663,12,-35,-17,-15,-10,-6,-19,-5
1522257444361663,-21,37,10,5,4,-4,-1,5
1522257444363668,-67,-31,2,16,17,-1,0,-10
1522257444363668,48,3,3,1,-6,-19,12,6
1522257444376703,-6,-5,4,2,10,24,18,19
1522257444376703,-61,-8,-12,-4,-2,12,-14,-28
1522257444382719,91,-12,-4,-3,2,-10,-7,18
1522257444382719,82,19,6,2,-2,16,2,7
1522257444399764,-68,-17,0,-1,9,-26,-8,-24
1522257444399764,53,15,0,-4,-62,-5,-5,4
1522257444400767,82,5,8,6,45,36,4,7
1522257444400767,-9,9,3,2,-24,-41,-3,-4
1522257444421822,-68,-26,-23,-35,31,55,-8,-5
1522257444421822,-18,-1,0,-1,-56,8,4,11
1522257444423828,16,0,8,46,70,-3,-2,1
1522257444423828,-7,-5,0,-9,-42,19,1,-4
1522257444436863,34,15,3,18,68,-20,2,3
1522257444436863,16,23,7,-33,5,-31,3,5
1522257444442879,-35,-10,-3,7,-32,8,-13,-3
1522257444442879,50,-20,-3,24,4,0,-1,2
1522257444459924,-57,-1,-8,-12,-33,-5,0,-5
1522257444459924,72,5,-13,-13,10,-18,-15,-1
1522257444460926,13,-4,4,-12,-11,-14,-2,2
1522257444460926,-5,5,-1,-12,9,4,-6,-14
1522257444481982,-6,-2,4,3,-26,-2,0,5
1522257444481982,38,20,8,15,34,9,9,18
1522257444483988,-6,10,-6,-12,-26,-8,-8,-11
1522257444483988,-15,-18,-10,-6,4,6,-11,6
1522257444496020,78,9,6,4,0,-10,3,7
1522257444496020,-38,3,10,12,3,10,2,-7
1522257444503038,-37,-7,1,-8,-4,-7,-7,-8
1522257444503038,2,8,-4,4,58,8,-2,2
1522257444519081,-1,-13,-1,6,-11,3,0,1
1522257444519081,-35,-15,-8,-4,3,-2,-13,-15
1522257444521086,1,-1,0,-3,4,-1,-2,-7
1522257444521086,-31,20,-1,4,20,-8,0,1
1522257444542142,13,-8,20,12,-12,-1,8,-5
1522257444542142,-14,-25,-6,1,2,11,4,-8
1522257444543145,24,13,-14,-15,-19,-7,-3,8
1522257444543145,-23,-15,3,3,-8,4,8,14
1522257444556179,24,8,4,18,16,0,11,24
1522257444556179,-38,3,10,10,3,-1,0,-30
1522257444563198,-14,-28,-14,-27,-31,-4,13,-4
1522257444563198,0,18,5,-9,-13,0,3,-13
1522257444579241,31,25,5,-6,-4,-2,5,6
1522257444579241,15,17,9,18,23,-5,4,11
1522257444581247,-8,-1,-12,10,-2,-2,2,5
1522257444581247,-1,-15,-23,-8,-1,3,5,5
1522257444602302,8,-38,24,-7,-3,-7,0,-2
1522257444602302,8,-35,-23,23,38,0,-1,9
1522257444603305,-30,12,36,-4,-51,0,-2,-6
1522257444603305,-2,3,4,-19,9,4,6,8
1522257444615337,6,17,-22,0,-30,-11,-4,-13
1522257444615337,17,16,5,29,30,0,-6,4
1522257444624361,-9,-28,-6,-30,-36,-9,4,-2
1522257444624361,8,34,-8,-33,-30,-5,4,0
1522257444639401,27,15,-18,-33,-103,-9,-16,-20
1522257444639401,-52,-70,-15,-4,69,3,-1,-11
1522257444641406,95,38,16,39,61,-5,-1,42
1522257444641406,-94,-1,17,13,-57,-4,-7,-22
1522257444662462,78,-1,-7,3,14,-26,1,10
1522257444662462,-33,24,1,4,19,28,-2,-1
1522257444663465,6,-6,-9,-2,12,-1,-6,-19
1522257444663465,20,-5,-3,-1,2,3,2,12
1522257444675497,-26,-21,2,6,1,4,0,5
1522257444675497,24,34,4,-13,-32,-6,5,1
1522257444684521,0,9,-2,-5,-19,5,2,-10
1522257444684521,27,-16,7,9,23,-9,-7,1
1522257444699561,-29,1,-6,9,24,12,-1,-20
1522257444699561,64,22,2,-16,-37,-14,11,26
1522257444705577,-27,-23,-16,-4,35,13,-13,-23
1522257444705577,-31,-31,-17,5,-3,-5,-15,-24
1522257444721619,76,19,11,1,14,4,6,27
1522257444721619,-47,-14,-5,-8,21,8,-1,-18
1522257444723625,-18,-4,0,-3,-46,-11,3,9
1522257444723625,-30,5,3,15,60,-11,-3,-6
1522257444735657,-9,-5,-3,-5,14,17,3,6
1522257444735657,17,-1,0,-10,-37,-18,-1,-1
1522257444744680,-26,1,-2,3,20,5,-5,-4
1522257444744680,23,3,6,5,-51,-3,9,14
1522257444759721,63,7,-9,-11,26,15,-5,-11
1522257444759721,62,27,11,-2,-4,-10,1,8
1522257444760726,-64,-6,-5,2,11,0,-9,-12
1522257444760726,6,-44,-19,-6,12,-1,-8,-11
1522257444781779,-39,9,9,8,1,-5,-2,0
1522257444781779,-35,23,18,1,-24,-15,6,7
1522257444783785,101,19,-6,-6,12,24,-2,4
1522257444783785,-73,-27,-6,-6,-2,-9,-8,-12
1522257444795816,6,-3,-9,0,-30,-4,-1,9
1522257444795816,32,-16,-10,-9,-21,1,-12,-14
1522257444804841,11,20,10,5,-12,-16,7,21
1522257444804841,82,0,4,8,19,9,2,0
1522257444819880,-128,-12,-7,-5,-1,-9,-11,-19
1522257444819880,5,2,-2,-12,-39,-6,-6,2
1522257444820883,-19,-7,4,9,50,-1,3,-3
1522257444820883,51,24,4,1,-1,10,1,12
1522257444841939,-87,-22,-2,-4,3,-7,-4,-22
1522257444841939,24,-1,-5,-2,-2,-2,-2,0
1522257444843944,-5,-20,-11,-4,-23,1,-1,-4
1522257444843944,3,24,0,2,23,5,3,-1
1522257444855976,4,20,12,4,2,1,5,6
1522257444855976,10,-24,-7,-4,0,-2,-5,-14
1522257444865001,-29,4,20,7,-3,-1,3,-7
1522257444865001,-28,11,10,10,1,5,7,11
1522257444879037,1,-18,-12,-2,-10,-4,3,-6
1522257444879037,-24,-1,-15,-12,-5,5,4,-11
1522257444881043,-13,-21,-8,12,21,-6,-1,1
1522257444881043,4,7,3,13,3,0,4,0
1522257444902099,14,3,-5,-37,-39,-9,1,-1
1522257444902099,5,1,-2,-17,-6,9,3,3
1522257444904104,6,5,-5,13,11,-8,-13,-16
1522257444904104,23,-3,16,13,0,-1,7,14
1522257444916136,-11,-22,-14,-25,51,4,-4,-8
1522257444916136,6,33,-29,2,9,-2,0,13
1522257444925160,-10,-6,48,-4,-32,-12,-3,-11
1522257444925160,38,-5,-9,37,27,-2,-3,8
1522257444939198,-10,-3,18,-4,-47,-3,0,9
1522257444939198,-1,-29,-8,-37,-19,5,5,0
1522257444941203,41,53,-11,-2,6,-1,1,2
1522257444941203,-22,-52,-10,-5,9,0,-7,-7
1522257444962259,29,44,17,32,24,4,4,10
1522257444962259,5,-6,9,13,7,-22,-6,8
1522257444963262,-68,-24,-13,-8,-11,17,3,-3
1522257444963262,9,19,0,-17,-20,-4,-5,-7
1522257444975293,-25,-39,-13,7,4,-2,-4,-16
1522257444975293,7,15,7,11,17,4,1,5
1522257444984317,16,-1,-5,-6,-7,-4,7,14
1522257444984317,32,8,6,-11,-13,5,6,-8
1522257444998355,-42,-14,-17,-2,15,-11,-12,-27
1522257444998355,46,5,7,6,-49,1,0,8
1522257445007379,70,4,0,-10,-26,7,8,8
1522257445007379,-21,-12,-14,-6,45,-10,-8,-15
1522257445022419,82,13,2,1,-9,26,-2,-9
1522257445022419,-84,-7,4,5,25,-21,-11,-16
1522257445023422,8,-19,-6,-1,-10,4,11,13
1522257445023422,-30,-9,-4,-11,-15,14,-13,-27
1522257445035453,127,14,3,6,-6,-30,1,21
1522257445035453,-63,-15,3,-5,25,-18,-11,-4
1522257445044477,-90,-3,-2,-12,-70,19,6,-18
1522257445044477,17,16,-4,15,67,-10,-6,3
1522257445059518,-21,-8,-1,13,22,26,5,14
1522257445059518,122,11,3,12,-11,15,5,10
1522257445061523,-26,-20,-11,-9,18,-24,-12,3
1522257445061523,-27,10,9,-15,-35,-1,9,-3
1522257445081576,2,12,-3,-6,-83,-11,-6,-3
1522257445081576,6,-4,-2,6,53,15,2,3
1522257445083581,7,4,3,6,11,4,7,5
1522257445083581,35,28,-4,-17,-15,-14,-15,-1
1522257445095613,-15,-18,-2,-2,0,-18,2,17
1522257445095613,-87,-44,-11,-12,-26,16,-6,-14
1522257445104637,-5,5,-1,6,23,-5,-6,-7
1522257445104637,41,-2,-7,-5,-42,-5,-3,0
1522257445119677,-5,4,3,4,31,1,-8,-14
1522257445119677,-7,9,4,4,-13,5,0,4
1522257445120680,44,10,3,2,23,-7,-4,6
1522257445120680,-73,-12,-15,-8,-14,-2,1,4
1522257445141736,7,37,21,2,7,6,3,7
1522257445141736,-10,-4,-7,-1,4,-5,-1,-9
