timestamp,emg1,emg2,emg3,emg4,emg5,emg6,emg7,emg8
1522257153107589,-26,-6,-3,0,-1,-1,-4,-9
1522257153107589,10,6,-1,0,-1,-3,3,-1
1522257153108592,-43,-6,-1,3,-5,-6,4,-1
1522257153108592,-21,7,0,3,1,11,4,-8
1522257153108592,39,21,5,5,2,3,6,10
1522257153108592,24,7,6,3,-1,1,-2,7
1522257153110597,-80,-22,-4,-5,2,-2,-4,-7
1522257153110597,49,-6,-7,-6,-2,-4,0,8
1522257153112605,19,-6,-3,-8,0,-3,-6,-7
1522257153112605,2,-1,-2,-1,2,-4,-4,-4
1522257153124634,20,7,3,2,-1,-6,1,3
1522257153124634,-49,-1,2,6,1,8,0,-3
1522257153135663,-7,5,2,0,-2,6,0,-3
1522257153135663,15,-7,-2,-1,8,1,6,2
1522257153139674,1,-6,-2,-5,-18,-9,0,0
1522257153139674,-41,0,8,3,16,-4,-3,-22
1522257153155717,91,37,-1,-5,-23,-7,-2,36
1522257153155717,-104,-28,-12,-8,-4,2,-10,-16
1522257153170757,35,-1,-3,-2,2,7,-3,-2
1522257153170757,13,5,-6,-6,1,-6,-2,-8
1522257153177775,-46,-10,-7,0,3,-4,0,-8
1522257153177775,18,14,4,4,1,4,6,11
1522257153217882,-3,-2,0,0,-2,-7,-2,-6
1522257153217882,-9,4,2,1,24,9,0,0
1522257153218886,7,3,1,-2,-18,-2,2,0
1522257153218886,-21,-5,3,0,2,2,4,-3
1522257153219888,-32,19,9,4,0,2,2,5
1522257153219888,97,5,-10,-8,10,-17,-3,17
1522257153221893,-90,-13,-1,7,22,1,2,-5
1522257153221893,29,-1,-13,-6,-22,4,-5,6
1522257153229918,-31,-20,-10,-5,-11,3,-11,-22
1522257153229918,-8,11,0,3,-11,1,2,-1
1522257153236932,-8,3,0,2,9,8,-2,4
1522257153236932,45,-6,3,0,7,-8,-2,4
1522257153243951,17,8,2,0,6,-2,-2,5
1522257153243951,-43,-5,5,1,-10,1,-1,-11
1522257153258992,64,7,-2,-2,-2,-13,-1,0
1522257153258992,-14,-8,-1,2,1,-25,-3,-1
1522257153267012,66,12,-3,-3,-3,31,3,4
1522257153267012,-15,-13,3,-2,1,-13,-1,-5
1522257153291076,-95,-15,1,3,-3,13,1,-11
1522257153291076,-16,0,-2,2,6,-17,-1,-1
1522257153291076,5,0,-1,-2,2,-5,2,8
1522257153291076,16,4,1,-4,-9,-6,-3,-4
1522257153305114,33,10,3,-1,-4,-1,-2,3
1522257153305114,-32,-7,-9,-6,5,6,-3,1
1522257153306117,22,-2,-8,-7,-6,-14,-3,-4
1522257153306117,-25,2,3,-2,-2,7,3,-5
1522257153327172,-11,-13,-1,-7,-5,-2,1,-7
1522257153327172,42,10,0,1,10,22,4,10
1522257153328175,-41,-5,-1,3,-47,-25,4,-7
1522257153328175,-41,-1,-6,-3,-7,-9,-5,11
1522257153351236,21,4,1,-1,3,13,0,5
1522257153351236,-1,-1,-1,8,5,0,-1,1
1522257153351236,-2,6,-2,-1,18,0,-7,-1
1522257153351236,50,5,0,5,-5,-7,-7,0
1522257153365274,2,-4,-3,1,2,-10,-2,-10
1522257153365274,-64,-9,11,2,0,18,11,-6
1522257153366277,96,26,0,-1,5,0,0,25
1522257153366277,-105,-28,-7,-11,-6,4,-10,-17
1522257153387332,44,7,1,-6,2,2,-3,7
1522257153387332,4,-5,-3,-6,-7,-2,-4,-14
1522257153388335,-79,-11,4,3,15,-2,4,-12
1522257153388335,109,20,0,5,-3,6,-3,14
1522257153410394,-12,-9,-1,4,-8,-9,1,1
1522257153410394,-24,-4,0,1,17,-14,-2,-11
1522257153411396,13,1,0,-6,-22,-2,1,4
1522257153411396,-6,0,2,-3,-15,-12,-3,-4
1522257153425433,4,-3,2,-1,10,22,-3,-3
1522257153425433,39,12,-5,1,-15,-11,-12,-4
1522257153425433,-62,-13,-9,3,18,2,-1,-15
1522257153425433,-11,-8,-2,0,-1,2,6,0
1522257153447492,87,10,0,-2,-11,-18,-3,17
1522257153447492,-62,-19,1,-5,8,1,-6,-5
1522257153448496,58,-1,-1,-3,2,-1,-4,1
1522257153448496,-84,-5,4,2,-22,-2,0,-12
1522257153470553,79,20,4,1,0,-29,5,-2
1522257153470553,-11,-8,-12,-12,-38,18,-6,-6
1522257153471556,-32,-1,3,6,37,-10,0,-1
1522257153471556,-13,5,5,2,17,-4,-3,0
1522257153484591,7,-2,-1,0,0,6,2,5
1522257153484591,-12,4,-1,2,-9,-18,-1,4
1522257153485593,10,4,2,-1,-8,12,2,-3
1522257153485593,55,-3,1,-3,6,6,6,7
1522257153507652,-45,0,-8,-3,-9,-17,-7,-11
1522257153507652,71,-3,-7,1,0,7,-2,7
1522257153508655,-28,-5,-2,0,1,19,2,-1
1522257153508655,48,-2,1,-3,4,6,2,-2
1522257153530713,-35,-2,-1,-4,-3,1,-2,-3
1522257153530713,-16,4,5,-3,1,-4,8,1
1522257153531716,2,-1,0,0,1,-14,3,2
1522257153531716,15,11,0,3,5,5,-7,-1
1522257153544751,-27,-6,-2,-2,0,6,-5,-4
1522257153544751,-26,9,3,7,31,1,-1,-2
1522257153545753,0,-14,-3,-1,-30,-10,-10,-8
1522257153545753,-14,4,-7,-5,-24,9,5,9
1522257153567812,-24,-10,-5,-4,-17,-9,-1,6
1522257153567812,25,6,2,-6,-6,7,3,5
1522257153568815,10,4,2,-2,12,-3,-1,-5
1522257153568815,-44,-25,-9,-3,5,2,3,1
1522257153590873,-12,0,4,1,6,6,0,-3
1522257153590873,16,0,-1,-1,4,-4,5,-3
1522257153591876,30,10,3,2,3,2,0,4
1522257153591876,-13,-8,0,2,1,-15,2,-7
1522257153604911,27,-7,1,-3,8,22,0,13
1522257153604911,0,7,5,3,-3,1,0,0
1522257153605913,-21,-8,5,0,3,4,3,5
1522257153605913,30,13,-5,3,18,1,-4,-5
1522257153627972,15,8,0,3,-37,-10,-4,-2
1522257153627972,-12,-1,-3,-2,-11,-17,0,0
1522257153627972,-19,2,-2,-2,-1,22,0,-7
1522257153627972,-42,-8,-4,-3,11,-3,3,-5
1522257153651033,8,8,0,-3,13,3,2,-6
1522257153651033,1,0,-4,-3,-13,2,-1,3
1522257153652036,-9,-4,0,-1,-6,-8,-2,-6
1522257153652036,1,3,1,5,9,6,3,2
1522257153664068,4,-9,-11,-1,8,-1,-3,0
1522257153664068,-27,-12,1,1,-7,1,-4,-8
1522257153672089,50,2,-2,-3,-2,-8,-3,15
1522257153672089,8,0,5,-2,-1,5,-4,-8
1522257153687129,-57,-10,-2,2,5,0,1,5
1522257153687129,25,7,2,0,0,-25,-6,0
1522257153688131,-30,-5,-2,-1,2,23,1,-5
1522257153688131,-5,-1,-2,-2,-6,-4,-2,0
1522257153711193,43,-1,-3,0,5,1,1,9
1522257153711193,-57,-9,1,2,9,5,-2,-14
1522257153711193,-20,2,0,-5,-7,-16,1,-3
1522257153711193,89,16,-2,-1,16,1,4,10
1522257153724228,-75,-10,2,0,-17,3,-1,-17
1522257153724228,60,11,-1,0,-3,2,2,8
1522257153732249,-38,-17,-7,-2,-10,-6,-4,-3
1522257153732249,-43,-17,-4,-2,-1,5,-1,-8
1522257153747289,-38,3,1,-2,6,-15,2,-5
1522257153747289,15,-4,-4,0,4,19,2,-3
1522257153748292,15,21,4,-1,2,-6,-1,5
1522257153748292,19,-5,-4,-7,-2,-9,-7,8
1522257153770350,-14,-10,4,3,0,-14,-4,-7
1522257153770350,-7,3,2,-3,-7,18,0,8
1522257153771353,15,-7,-9,-1,2,8,4,-7
1522257153771353,-28,-6,-1,2,-12,3,-5,-8
1522257153784387,30,5,3,-3,5,4,3,1
1522257153784387,-36,-4,-2,-5,4,-8,-8,-9
1522257153792409,96,10,2,-2,0,-7,0,15
1522257153792409,-9,4,-4,-3,-8,4,-1,-7
1522257153807449,37,20,0,2,3,-2,1,8
1522257153807449,-20,-11,2,5,-6,-1,4,0
1522257153808452,20,11,1,3,2,-1,5,-5
1522257153808452,-13,-4,4,0,3,-3,4,-1
1522257153830510,-26,-14,1,-4,7,-1,0,-11
1522257153830510,9,9,-5,-5,-1,6,-3,4
1522257153831513,2,-1,1,-1,-8,-9,-7,1
1522257153831513,1,2,-1,7,27,3,-1,-3
1522257153844547,-33,-6,-3,1,-26,-8,0,-10
1522257153844547,6,8,3,6,13,6,2,1
1522257153852569,27,-21,-16,-13,-19,-6,-19,1
1522257153852569,-43,-5,6,-5,-6,-2,-4,-3
1522257153867609,19,5,-1,-2,15,21,2,6
1522257153867609,-73,-9,-3,-2,-11,-17,10,-3
1522257153868612,7,2,5,0,0,-7,0,-3
1522257153868612,26,8,1,-1,-7,-6,0,5
1522257153889667,19,-9,-6,-2,-1,-3,-3,-3
1522257153889667,-23,-16,-3,0,-1,-2,-5,-9
1522257153890670,32,20,2,7,11,6,5,1
1522257153890670,-39,-4,-5,0,-10,-23,-3,2
1522257153904707,38,-6,-3,-2,1,21,0,10
1522257153904707,13,-6,-5,-8,1,-3,-6,-4
1522257153912729,-40,1,2,6,0,9,7,-4
1522257153912729,4,-5,3,-1,-16,4,3,-2
1522257153927769,5,8,-2,1,-11,-9,-4,-1
1522257153927769,-37,-5,2,0,-12,-23,-5,-6
1522257153928771,42,-6,1,0,21,24,-1,10
1522257153928771,74,19,4,0,-16,-1,4,12
1522257153957848,-44,2,-6,-4,2,-9,-1,-12
1522257153957848,-8,11,-2,-4,4,-1,2,-7
1522257153958851,-31,-11,-3,0,-16,-3,3,-2
1522257153958851,6,-4,-3,-1,5,0,1,-1
1522257153972889,58,7,-3,-3,-7,3,-2,12
1522257153972889,26,3,6,8,7,9,3,-1
1522257153973891,-39,-8,-8,-6,-2,-14,-12,-4
1522257153973891,7,3,-2,-6,-1,11,-8,-4
1522257153987928,-62,-14,1,4,6,-9,2,-9
1522257153987928,63,25,-1,-4,-1,-2,-7,8
1522257153987928,-37,-13,1,1,0,-1,1,-9
1522257153987928,26,5,-4,-1,-3,-1,-1,5
1522257154009987,-20,-2,0,0,5,-25,-6,-4
1522257154009987,14,-2,-2,0,-2,23,5,5
1522257154010990,-60,-1,-1,-3,20,-4,1,-8
1522257154010990,-5,-5,5,3,-14,-4,4,-6
1522257154024024,6,0,-2,-3,6,15,-1,-2
1522257154024024,-4,-2,-7,0,-2,-21,-10,3
1522257154033049,60,0,1,1,-10,0,-1,-1
1522257154033049,-73,-9,-3,3,16,2,1,-3
1522257154048088,12,-7,-6,-6,-5,-13,-4,5
1522257154048088,24,-4,-1,-6,-17,-7,-4,2
1522257154048088,-41,-4,1,-7,-31,-6,-2,-2
1522257154048088,22,2,1,0,-3,-3,5,3
1522257154070147,-36,-9,0,2,8,13,1,-6
1522257154070147,15,3,-1,0,13,-5,-1,1
1522257154071150,-3,3,3,3,-5,-16,-2,0
1522257154071150,9,-8,3,2,-3,8,-1,0
1522257154084185,5,12,1,0,9,-11,-2,2
1522257154084185,74,2,0,0,-5,7,4,8
1522257154092206,-59,0,-8,-4,7,14,-2,-2
1522257154092206,-11,-4,-4,-8,4,0,2,0
1522257154107246,-9,2,0,3,-16,12,8,-2
1522257154107246,-10,10,4,5,7,-8,1,-3
1522257154108249,-4,-2,3,6,3,-6,-7,-4
1522257154108249,1,4,-2,3,9,-16,-5,-1
1522257154130307,1,-10,-1,1,4,18,-2,3
1522257154130307,20,11,-3,-3,-6,2,-6,4
1522257154131310,-34,-9,2,-3,-2,-6,2,5
1522257154131310,-25,1,4,2,7,2,-3,-8
1522257154153368,18,3,9,3,3,-1,7,1
1522257154153368,72,-20,-6,-4,-6,-2,1,10
1522257154154371,58,18,0,-4,-3,3,-3,-1
1522257154154371,-57,-6,-8,-3,-11,-4,-4,-6
1522257154167406,-29,-3,-3,0,-2,-4,-7,-13
1522257154167406,-43,-3,2,0,-2,-1,0,-12
1522257154168408,29,4,-1,-1,-1,-3,4,5
1522257154168408,32,-1,-4,-4,-2,3,0,3
1522257154189464,-15,-6,-6,-1,-3,-6,-8,-4
1522257154189464,-3,8,1,0,8,13,3,5
1522257154198488,-4,2,1,1,12,-1,1,2
1522257154198488,-15,-1,7,4,-35,-1,2,-2
1522257154213528,-7,-11,-2,-4,-2,-5,2,-7
1522257154213528,-13,9,-2,0,0,-8,0,11
1522257154214531,-2,-2,0,0,30,3,2,4
1522257154214531,36,-2,2,-2,-25,-13,-1,-2
1522257154235586,-50,-3,0,0,-7,-1,2,1
1522257154235586,0,0,0,0,-4,3,-3,-4
1522257154237592,-22,-3,-3,-6,0,6,-4,-2
1522257154237592,29,1,-3,-3,20,3,-4,-1
1522257154249624,23,15,-1,-2,-5,0,1,5
1522257154249624,16,-5,-5,-3,6,-2,-3,-3
1522257154258649,16,-6,2,3,-1,1,-1,3
1522257154258649,-10,3,3,-2,6,0,-5,-7
1522257154273688,15,-10,2,-1,-1,1,1,-8
1522257154273688,-1,0,-7,-6,-1,-1,4,4
1522257154274691,-36,-4,-4,0,-16,-9,-3,-14
1522257154274691,10,-7,-5,0,0,-14,-1,-7
1522257154295747,21,12,-2,-1,12,20,-2,7
1522257154295747,-58,-8,0,-3,-1,-5,-2,-6
1522257154297752,2,-1,-3,-1,-14,2,1,-3
1522257154297752,-14,2,-10,-1,12,8,-3,5
1522257154309784,15,-1,-2,0,2,-5,-4,-6
1522257154309784,-33,0,2,4,0,-3,-2,-10
1522257154318808,40,10,0,1,-5,-10,2,3
1522257154318808,6,3,5,3,10,15,5,7
1522257154332845,-15,-9,-5,-6,-6,-3,0,-1
1522257154332845,-11,0,-4,-6,-6,0,1,5
1522257154334851,-7,-16,-3,-6,-3,-3,-3,-5
1522257154334851,3,-4,2,2,2,-4,-1,-3
1522257154355906,-26,-11,0,1,7,-3,0,-4
1522257154355906,1,10,-1,-2,-25,0,-4,-5
1522257154357912,46,1,1,4,2,1,2,5
1522257154357912,-56,-8,-2,-3,-6,-3,-2,-1
1522257154368941,65,14,0,0,7,1,-3,9
1522257154368941,-17,-1,7,3,2,1,-2,-3
1522257154378969,-83,2,1,-1,-4,1,-4,-5
1522257154378969,102,14,3,2,4,-2,5,13
1522257154393005,-35,-2,-5,-3,-3,-2,-3,-3
1522257154393005,-56,-26,-1,2,11,2,2,-4
1522257154395011,50,5,-5,-2,-7,-1,0,7
1522257154395011,2,0,-5,-1,4,-1,-1,-11
1522257154416066,17,7,-1,3,2,-9,1,1
1522257154416066,33,6,4,0,-5,-5,1,3
1522257154417069,-51,0,1,-4,2,17,4,5
1522257154417069,14,-11,-4,-9,-8,-15,-8,-2
1522257154429102,-40,-4,0,-5,-4,17,-5,-5
1522257154429102,26,-1,4,2,3,5,0,-7
1522257154438125,7,13,-4,0,-2,-4,-2,-1
1522257154438125,23,2,-4,0,-1,1,4,2
1522257154453165,-25,-5,1,0,-3,-11,3,-3
1522257154453165,-2,-5,-3,-1,17,4,-2,-2
1522257154455171,29,1,-2,1,-14,-10,2,9
1522257154455171,-56,-2,-2,1,-11,-14,-1,-8
1522257154476226,21,-4,-6,-1,-12,12,-1,-2
1522257154476226,6,1,-2,-6,0,-4,-5,2
1522257154477229,-64,-4,1,-3,8,-3,-3,-10
1522257154477229,-32,0,1,-3,9,17,-3,-1
1522257154489261,32,0,2,-1,2,-5,1,4
1522257154489261,-7,11,-4,-5,-8,-7,2,4
1522257154498285,53,-14,-2,1,-1,-1,1,-4
1522257154498285,-32,0,-2,0,-4,11,1,3
1522257154513325,-11,-11,-3,-1,-1,-7,0,1
1522257154513325,27,2,-5,-4,-3,5,1,1
1522257154515331,-12,-3,4,-3,-2,-4,-3,-2
1522257154515331,27,-3,0,2,1,1,-1,-4
1522257154535384,67,9,3,-1,-1,-7,0,7
1522257154535384,-12,-2,-8,-3,3,-4,-5,-17
1522257154537389,-69,-6,-4,2,0,3,0,3
1522257154537389,102,18,0,1,-8,-7,0,14
1522257154549421,-38,-13,-3,-1,-1,4,-3,4
1522257154549421,-43,-12,2,1,-3,-2,-4,-11
1522257154558446,13,6,1,1,5,1,1,-3
1522257154558446,-26,-4,-1,-1,1,-4,-3,-4
1522257154572482,3,3,-2,0,11,-19,4,1
1522257154572482,41,9,-2,3,6,-5,3,10
1522257154579509,-26,-2,-3,-5,-26,25,-2,-14
1522257154579509,-67,-16,-4,-4,-13,-4,3,-2
1522257154595544,95,25,2,-2,-22,11,5,11
1522257154595544,-15,-14,-1,1,4,-7,-2,7
1522257154597550,36,6,4,3,8,-13,-3,0
1522257154597550,-23,-5,1,1,7,1,-2,-7
1522257154609580,-41,-1,2,0,6,0,-2,-8
1522257154609580,16,12,1,-2,-1,-5,0,-3
1522257154618606,14,-4,2,3,4,-9,6,8
1522257154618606,-49,-5,4,1,3,23,2,0
1522257154632642,0,-2,-1,-2,-5,-7,-3,-2
1522257154632642,13,3,-6,-6,-7,7,-4,-6
1522257154639660,-9,-8,-6,0,1,-6,0,1
1522257154639660,59,12,-1,0,7,-10,1,12
1522257154655703,-42,-1,-3,1,-3,-6,-2,-4
1522257154655703,-9,-2,3,0,-5,10,1,-5
1522257154657708,27,0,3,0,6,-9,0,-5
1522257154657708,-6,-7,0,-1,0,15,-1,-7
1522257154678765,15,-1,0,-1,-10,5,-6,-1
1522257154678765,14,4,-1,-1,22,4,-9,2
1522257154679770,6,-4,1,0,-21,-16,-3,0
1522257154679770,-101,-7,-4,-2,5,15,-4,-11
1522257154692801,33,-5,-5,-2,-4,-6,1,-2
1522257154692801,-30,-1,2,-1,-2,-1,6,0
1522257154699821,23,1,-2,-2,9,2,-2,3
1522257154699821,35,2,1,1,4,-13,-2,0
1522257154715863,-14,1,0,0,26,5,-3,-5
1522257154715863,-33,-1,3,2,-36,1,-3,-13
1522257154717869,-26,-4,-2,-2,-12,-6,4,-7
1522257154717869,66,-1,-3,-2,-9,-9,-1,11
1522257154737922,-21,7,1,1,5,-8,4,1
1522257154737922,-2,-6,-2,1,16,16,4,6
1522257154739928,-7,-3,-3,0,4,-2,-4,-9
1522257154739928,46,8,-2,1,8,17,3,-4
1522257154752962,24,-9,-3,1,2,-10,1,13
1522257154752962,-72,1,2,-5,-14,-5,-5,-19
1522257154758977,17,-6,2,2,-1,2,-1,9
1522257154758977,18,-2,-4,-5,-5,-26,-10,-12
1522257154776023,24,9,-1,-3,-12,8,2,8
1522257154776023,-3,2,3,3,0,10,7,11
1522257154777026,11,-9,0,0,5,3,0,-2
1522257154777026,6,13,2,2,-3,13,7,3
1522257154798081,11,-6,2,1,-5,-8,0,-4
1522257154798081,11,4,1,-3,0,-9,-2,-6
1522257154800087,-9,10,-1,-4,7,5,-2,5
1522257154800087,-1,-11,-7,-3,18,-7,-1,8
1522257154812119,-58,-4,-5,-5,-25,1,-4,-16
1522257154812119,26,3,-3,4,5,-4,4,5
1522257154819139,-9,6,3,3,-4,1,-4,-3
1522257154819139,-5,-2,0,-2,-7,-4,-5,-5
1522257154836183,-18,2,-1,1,10,10,-2,7
1522257154836183,13,-11,-2,-2,9,-10,-4,-3
1522257154837186,28,2,-7,-4,1,15,-1,2
1522257154837186,-16,-10,-2,0,-11,-15,2,-2
1522257154858241,-4,4,5,3,1,1,5,-1
1522257154858241,-10,4,1,-1,-3,-1,0,-8
1522257154860247,36,5,0,-1,7,1,4,11
1522257154860247,-7,-2,2,-3,-12,-5,-3,-10
1522257154872279,-19,-14,-4,-3,-4,-1,-7,-4
1522257154872279,8,-1,-4,-5,-4,-13,-2,-5
1522257154881303,-37,-4,-6,0,5,0,3,-3
1522257154881303,25,9,0,0,3,5,-2,6
1522257154895340,26,0,2,-1,-1,-7,-6,-5
1522257154895340,-17,-11,-4,-2,-3,0,-7,-2
1522257154897345,-49,-4,-4,0,-5,-4,-5,-12
1522257154897345,19,0,2,5,-3,0,4,3
1522257154918401,-7,-8,-2,-2,-1,-5,-3,-6
1522257154918401,24,-1,-1,-2,3,3,4,16
1522257154919404,10,11,7,-2,13,6,3,-1
1522257154919404,-30,-5,4,-4,-27,-9,-2,-2
1522257154932439,9,8,-2,-1,-2,-9,0,0
1522257154932439,-21,-4,4,2,15,27,6,5
1522257154941463,39,3,-4,-3,-12,-11,-3,4
1522257154941463,-5,-6,-7,1,8,2,-1,4
1522257154955500,25,0,1,0,1,5,4,4
1522257154955500,-32,-6,-7,1,0,-6,-2,-10
1522257154957505,56,3,-2,5,4,2,-4,5
1522257154957505,-86,-11,0,1,0,-8,-5,-14
1522257154978562,41,10,3,1,-1,-3,0,5
1522257154978562,55,7,-3,-2,4,-6,0,11
1522257154984577,-20,-5,-2,-5,-8,-3,-2,-8
1522257154984577,-10,0,-2,-2,-9,-2,1,4
1522257154991596,-33,-6,2,-4,-3,3,-4,-11
1522257154991596,28,10,3,2,-4,-3,-2,4
1522257155000620,-23,-3,3,2,1,1,3,4
1522257155000620,7,-11,-3,1,10,2,-1,-1
1522257155015660,-56,-1,-4,0,5,6,0,-4
1522257155015660,36,8,0,1,-2,-5,1,1
1522257155017665,-21,-8,-1,0,-5,-2,2,4
1522257155017665,-41,-3,-2,-2,1,0,-5,-15
1522257155038721,19,11,4,4,-1,3,1,6
1522257155038721,21,4,1,-3,-11,-4,-4,-3
1522257155039724,-4,2,-6,-2,14,-9,-1,1
1522257155039724,0,2,-3,-3,-13,5,1,3
1522257155051755,27,-11,-2,-1,-3,5,-4,-2
1522257155051755,-46,-2,3,-1,-6,-1,-1,-6
1522257155060780,-16,-7,-1,-3,2,8,-4,-11
1522257155060780,41,2,2,-2,9,-6,-1,1
1522257155075819,-6,0,-2,2,1,-4,2,4
1522257155075819,-51,3,3,1,-3,-2,0,-10
1522257155077825,-34,-16,-3,-2,-4,-1,-1,-7
1522257155077825,61,19,-2,1,1,1,4,12
1522257155097878,14,-2,-5,-1,-4,-4,-3,6
1522257155097878,13,-6,-3,-5,0,-5,-3,-1
1522257155099884,0,13,8,0,-3,-4,-5,-8
1522257155099884,-39,-5,0,-1,2,3,-4,-4
1522257155111916,12,-1,-2,-1,5,3,5,-2
1522257155111916,35,-2,-3,0,-13,-18,0,4
1522257155120940,-22,-11,-3,1,1,13,3,-1
1522257155120940,25,9,6,3,5,19,6,15
1522257155135979,-11,-6,-5,-4,1,-9,-10,-13
1522257155135979,24,6,-5,-1,-2,0,-4,8
1522257155136982,5,-4,-3,-3,-17,-14,-6,-2
1522257155136982,-4,3,1,4,5,-1,4,-4
1522257155158038,-21,0,-1,-1,-3,-1,2,-5
1522257155158038,-10,-5,3,-1,7,1,6,0
1522257155160044,22,10,2,2,8,5,4,8
1522257155160044,-26,-2,-5,-6,-15,-6,-7,-17
1522257155172075,-18,-2,1,-5,-4,-8,-3,-6
1522257155172075,31,-8,-2,0,-23,10,1,-1
1522257155188118,45,7,-2,-3,-8,-5,-6,9
1522257155188118,18,-5,1,-1,7,-1,-1,6
1522257155196140,-41,-8,1,1,4,1,-5,-9
1522257155196140,-25,-5,5,2,5,0,-2,-1
1522257155197142,-9,0,0,1,4,2,2,-5
1522257155197142,-42,-4,-4,1,3,-17,2,-9
1522257155218198,59,16,-9,0,7,3,6,18
1522257155218198,-71,-14,-4,-1,7,22,2,-6
1522257155220204,68,10,-1,-1,-6,-2,3,18
1522257155220204,-4,-8,-6,-4,-4,-7,-9,-4
1522257155232235,-31,2,2,0,-10,-7,-2,-3
1522257155232235,31,-1,-2,-2,4,-10,-3,-7
1522257155241260,-61,-3,2,2,6,2,-1,-2
1522257155241260,25,3,-2,-2,-2,4,3,6
1522257155255297,5,1,2,-3,-1,1,4,3
1522257155255297,-6,3,0,1,1,2,2,-4
1522257155257302,-81,-17,2,-1,-9,-11,-8,-27
1522257155257302,91,26,5,7,6,7,7,32
1522257155278358,-21,-23,-14,-10,-10,-4,-6,-5
1522257155278358,-27,-5,0,-3,-2,-15,-5,-10
1522257155280363,2,-4,-1,3,13,7,1,-2
1522257155280363,-22,-10,4,2,5,-5,-6,-14
1522257155292395,6,8,5,4,-47,1,1,2
1522257155292395,18,4,-4,0,39,30,4,8
1522257155301419,36,7,-5,0,6,-11,-3,-3
1522257155301419,0,-5,1,4,2,-6,2,2
1522257155315456,20,4,1,-2,1,-8,1,1
1522257155315456,29,-12,-2,-4,-8,-13,-2,-2
1522257155317462,-15,-3,3,0,0,-14,1,6
1522257155317462,10,-10,-2,-3,-8,11,0,-5
1522257155338518,-47,-1,-2,-2,5,-1,-1,-9
1522257155338518,-37,10,-1,0,-17,-26,-8,1
1522257155339521,36,-4,-2,0,10,35,5,3
1522257155339521,-15,-2,0,-3,-8,-22,-7,4
1522257155351552,15,0,3,-1,14,20,1,2
1522257155351552,-14,-10,-5,-4,-24,0,-6,-12
1522257155360576,34,13,2,-1,-7,-8,-1,11
1522257155360576,-100,-16,-10,-3,-4,5,-5,-19
1522257155375616,7,1,-2,1,11,9,2,1
1522257155375616,33,3,0,1,9,3,7,8
1522257155377622,-31,-4,1,-2,-2,-8,-2,-7
1522257155377622,53,7,-2,-2,0,11,-2,-1
1522257155398678,-40,-10,-3,1,-11,-8,3,-1
1522257155398678,18,5,1,0,7,-24,-6,1
1522257155399681,-15,-6,-4,-4,-38,22,4,-7
1522257155399681,7,1,3,-1,21,-7,5,7
1522257155411713,1,7,-1,0,4,21,-7,-11
1522257155411713,-2,6,4,3,-3,6,1,6
1522257155420736,-4,8,1,-4,-1,-14,-7,6
1522257155420736,85,-8,-2,-2,-5,-1,-5,6
1522257155435776,-55,8,1,-1,1,-5,1,0
1522257155435776,-53,-15,-2,-1,-9,-1,-1,-12
1522257155437782,27,2,-1,3,12,7,5,1
1522257155437782,-16,3,-5,-3,-3,4,-3,0
1522257155457835,33,-10,-7,-6,1,-14,-7,0
1522257155457835,35,8,4,-2,2,4,1,1
1522257155459840,-29,-10,3,-1,4,-5,-1,-7
1522257155459840,-30,2,5,3,-19,-7,6,1
1522257155471872,11,-2,-3,-1,-7,-13,-7,-8
1522257155471872,5,-5,-7,-1,9,21,-4,-2
1522257155480896,-9,-11,-5,1,21,5,-5,-5
1522257155480896,-12,5,-4,-3,-24,-1,-1,-2
1522257155494934,28,11,5,3,-1,-17,2,1
1522257155494934,24,5,-1,-1,-5,15,4,11
1522257155501952,-15,-2,1,-1,7,-4,3,-5
1522257155501952,-14,6,-2,-5,14,4,1,-2
1522257155517995,-32,-7,2,-1,3,-2,1,-1
1522257155517995,42,16,4,6,2,-3,4,12
1522257155520000,68,-4,-8,-2,-4,1,-3,7
1522257155520000,-36,-8,5,3,-6,-3,0,-2
1522257155532032,10,2,1,0,4,0,0,-2
1522257155532032,-8,-10,-5,-4,-12,-6,-2,-6
1522257155548075,22,18,3,1,-4,-9,-3,6
1522257155548075,-89,-20,-5,-3,5,12,-3,-13
1522257155555093,37,8,2,3,6,9,1,3
1522257155555093,-1,-10,0,-2,-7,0,0,-2
1522257155562112,-12,1,-1,0,-10,-20,-1,-6
1522257155562112,32,4,-2,2,13,16,4,3
1522257155578155,-2,-11,-7,-5,-1,-4,-1,0
1522257155578155,-5,11,0,-1,3,8,-1,2
1522257155580160,-41,-12,-3,-3,-6,-4,-1,-1
1522257155580160,-3,-8,2,-2,4,-9,-6,-16
1522257155601216,22,10,2,0,0,0,0,-7
1522257155601216,-16,-9,5,1,1,-8,0,5
1522257155602219,-16,0,1,3,-2,2,3,-5
1522257155602219,25,1,-4,-2,-17,2,0,2
1522257155615253,10,15,-4,0,3,0,2,4
1522257155615253,4,-9,-2,-1,-1,0,-4,-10
1522257155622272,77,2,-9,-9,-1,-4,-4,10
1522257155622272,4,-12,0,0,6,-6,-1,3
1522257155638314,-5,-1,-1,-2,-6,-3,-1,1
1522257155638314,-14,1,2,2,6,-3,4,1
1522257155640320,15,0,-8,-3,-2,0,-7,-3
1522257155640320,-31,-4,-4,-1,-5,-26,-7,-2
1522257155660373,27,0,2,1,18,39,5,4
1522257155660373,-33,8,3,1,21,2,1,-4
1522257155662379,49,4,2,-3,-43,-2,2,15
1522257155662379,-6,-1,-1,-3,-1,-4,-2,-9
1522257155675413,2,4,8,3,3,-9,2,-3
1522257155675413,-4,-13,-4,0,2,-4,1,3
1522257155682432,-36,3,-2,3,10,4,1,-5
1522257155682432,41,5,-1,1,2,-14,-3,3
1522257155698475,-85,-14,-9,-4,-1,14,-5,-4
1522257155698475,45,6,-4,-2,0,-1,-4,8
1522257155699478,-24,-2,2,1,6,0,0,-6
1522257155699478,29,13,-1,0,-1,4,5,11
1522257155720533,-33,-6,-4,-5,-1,-9,-2,-13
1522257155720533,23,3,-4,-4,-11,-8,1,0
1522257155722539,-35,-6,1,-1,1,1,1,-4
1522257155722539,15,3,5,0,2,-9,3,12
1522257155735573,40,11,7,2,3,15,-1,14
1522257155735573,-35,-2,-6,-4,-9,-4,-5,-8
1522257155741589,-1,-5,-2,-1,6,3,2,-11
1522257155741589,-11,3,-5,1,8,8,3,-3
1522257155758634,71,6,-3,-3,2,-11,-1,12
1522257155758634,-7,-9,0,0,-28,-7,-4,-1
1522257155759637,-28,3,4,1,5,5,-2,-3
1522257155759637,-24,-3,6,3,5,7,6,3
1522257155780693,50,-18,-9,-2,-17,-30,-3,3
1522257155780693,-19,-2,-5,-6,-3,26,1,-8
1522257155782698,-5,-2,-5,-4,-6,-3,-5,-1
1522257155782698,8,10,3,-1,4,2,-5,-2
1522257155794730,5,3,7,1,6,-2,2,5
1522257155794730,-12,4,1,1,5,-7,0,1
1522257155801749,-14,-8,-1,2,-2,2,2,1
1522257155801749,8,3,4,1,0,-9,-1,-8
1522257155818795,-3,8,1,1,4,19,3,0
1522257155818795,5,-14,-8,-5,-21,-11,-5,4
1522257155819797,-35,-14,-5,-3,8,4,-3,-11
1522257155819797,20,2,-7,-5,-15,-6,-3,-2
1522257155840853,-8,-8,-6,-5,-9,-15,-7,-6
1522257155840853,-39,8,2,4,10,4,3,-5
1522257155842858,19,5,0,-1,0,-2,7,10
1522257155842858,-31,-8,-2,0,3,3,-4,-5
1522257155854890,-11,4,2,1,0,1,1,-8
1522257155854890,6,4,-1,-5,9,-2,-3,3
1522257155863914,26,4,4,-1,-2,-15,0,3
1522257155863914,11,-9,-5,-5,-1,21,-2,-1
1522257155877951,-45,-2,-1,1,-18,-2,-3,-6
1522257155877951,-8,-6,-1,0,2,-2,-6,-4
1522257155879957,14,0,-2,2,-5,-3,-3,-5
1522257155879957,-7,-3,-3,0,5,1,1,-1
1522257155901013,26,-1,0,1,3,-8,2,0
1522257155901013,-16,1,0,1,2,-4,3,10
1522257155902015,-62,-6,5,4,4,4,1,-6
1522257155902015,47,8,-2,-3,-3,-3,-3,5
1522257155914047,31,-12,-2,0,22,4,2,1
1522257155914047,27,15,2,-1,-16,-23,-1,0
1522257155923071,-63,-3,-4,-4,-7,17,-7,-7
1522257155923071,13,-4,5,0,-6,6,2,0
1522257155938111,-56,0,-2,-1,-6,1,0,-7
1522257155938111,43,3,4,4,17,2,1,-3
1522257155940117,28,0,-4,-1,3,-8,-2,3
1522257155940117,-36,-1,-4,0,-2,-2,-1,-2
1522257155961172,53,4,3,-1,-1,-18,0,1
1522257155961172,23,-13,-2,3,7,19,4,10
1522257155962175,-10,-15,-7,-7,-11,-4,-7,-6
1522257155962175,-94,-7,-5,-2,-3,18,-4,-12
1522257155974207,20,14,3,3,4,4,3,6
1522257155974207,-37,3,1,0,21,-8,-3,-10
1522257155983231,84,12,9,3,-17,-1,12,15
1522257155983231,5,-6,4,1,4,-17,1,1
1522257155998271,18,2,-4,-3,-5,13,-4,5
1522257155998271,-11,-14,-1,0,1,2,-2,-3
1522257156000277,-41,0,-6,-2,7,3,-2,-4
1522257156000277,38,-2,-3,-1,4,-2,2,-2
1522257156020330,-43,6,3,-1,-25,-6,-3,4
1522257156020330,75,16,2,-1,0,4,-1,3
1522257156022335,-3,-19,-8,-6,-10,-10,-8,-6
1522257156022335,-7,4,0,0,8,7,-1,6
1522257156034367,7,1,2,0,2,-6,-4,-1
1522257156034367,20,1,2,1,-4,5,3,3
1522257156043391,-51,-5,1,2,4,-3,1,-9
1522257156043391,73,15,-1,0,-12,-10,2,4
1522257156058431,-24,-6,1,-2,7,5,4,-7
1522257156058431,1,-1,-1,1,-8,-15,0,0
1522257156060436,21,5,-2,1,9,13,-2,-1
1522257156060436,-27,-10,-7,0,1,-5,-11,-1
1522257156080490,-21,7,-3,-3,0,8,-5,-9
1522257156080490,-32,-9,-3,-3,-7,-9,2,1
1522257156082495,13,-3,-1,1,25,13,4,1
1522257156082495,28,11,0,-1,-10,-8,-3,-1
1522257156094527,-32,-18,-5,-3,-6,-7,-2,-9
1522257156094527,-29,4,2,-5,-14,-2,-1,-7
1522257156103551,72,6,-1,-2,-9,-8,1,7
1522257156103551,-24,-2,-1,-3,1,5,5,2
1522257156118591,29,7,-2,0,4,-5,-1,-2
1522257156118591,4,-5,1,0,5,-6,1,1
1522257156119594,-59,6,-2,-5,0,11,-6,-3
1522257156119594,10,1,2,0,4,2,1,-2
1522257156140650,5,-7,0,0,-6,-4,-1,-2
1522257156140650,-20,4,0,5,4,5,-1,3
1522257156142655,27,4,-1,2,-8,-6,-4,-1
1522257156142655,-63,-18,-2,3,1,-1,1,-14
1522257156154687,23,13,-7,-4,0,0,-5,14
1522257156154687,-15,-9,3,0,-20,-11,-5,-6
1522257156163711,23,-6,-3,0,-5,-4,0,3
1522257156163711,-3,1,0,-5,-2,9,1,-3
1522257156178752,-12,-3,1,-1,6,-4,0,-7
1522257156178752,3,-2,0,-3,1,5,3,3
1522257156179754,-10,-6,1,-3,-1,-11,0,1
1522257156179754,5,-4,1,0,4,1,-1,2
1522257156200809,-18,2,-2,-3,-8,0,-1,-4
1522257156200809,8,4,-3,1,11,3,-4,-2
1522257156202815,57,13,2,3,-9,-1,5,15
1522257156202815,-7,-23,-9,-2,-9,-9,-1,3
1522257156214846,-23,4,-1,-1,0,-7,-4,4
1522257156214846,18,-5,-5,-4,-1,8,-2,-7
1522257156223871,-3,2,7,4,16,1,-2,-4
1522257156223871,-32,-17,-3,-2,3,5,-2,-6
1522257156237908,41,7,1,-2,-5,-3,4,15
1522257156237908,-49,-9,-4,-1,-2,-1,0,-9
1522257156239913,-11,-3,-2,0,-2,-1,-2,-5
1522257156239913,61,21,3,1,-4,-5,3,10
1522257156260969,-16,-14,3,1,5,4,0,-6
1522257156260969,13,-5,-8,-6,-4,-8,-6,-7
1522257156261973,-9,1,-4,-4,0,5,0,8
1522257156261973,-23,-2,2,2,1,-12,-1,-5
1522257156274004,1,3,3,1,-7,15,1,-4
1522257156274004,-7,4,0,0,1,3,-3,-8
1522257156283028,1,2,-5,-1,-5,-6,-3,5
1522257156283028,13,3,1,1,4,2,-3,-1
1522257156298068,-5,-1,-6,-4,11,-3,-5,-4
1522257156298068,3,-4,-3,1,-18,-15,-8,-10
1522257156300073,-27,-3,-1,-2,2,8,2,4
1522257156300073,4,11,6,2,0,7,0,1
1522257156321129,-6,-13,-1,-1,-1,-7,0,-1
1522257156321129,29,4,1,-3,6,9,7,22
1522257156322132,16,2,1,1,-1,-13,-7,-12
1522257156322132,-27,-2,-3,-3,-2,3,3,1
1522257156334164,-10,7,2,-1,0,0,1,-2
1522257156334164,-14,-3,-1,-2,20,-4,1,-3
1522257156343188,19,-9,-5,-1,-18,-1,1,1
1522257156343188,0,-2,-2,1,-4,-5,-1,-2
1522257156358228,-6,0,4,5,3,0,-5,-2
1522257156358228,7,7,-1,-1,10,-2,-7,-3
1522257156360233,-24,-3,3,2,-10,-5,0,-5
1522257156360233,19,2,-5,-3,-7,-3,-5,0
1522257156381289,7,-12,0,-3,-9,-8,2,-1
1522257156381289,33,-2,-5,-1,-1,3,-2,2
1522257156382292,-89,-12,2,-1,13,12,3,-13
1522257156382292,10,6,-3,-4,-5,-3,-2,4
1522257156394324,-20,-4,-1,1,0,-2,0,-4
1522257156394324,13,-3,4,1,1,8,3,-3
1522257156403348,-2,11,-6,-5,1,-9,-5,12
1522257156403348,-11,-12,-4,-4,-3,0,-6,-5
1522257156418388,7,2,2,0,7,-3,2,0
1522257156418388,-21,-1,0,0,-9,-1,-2,-9
1522257156420393,71,18,1,0,-5,-2,1,4
1522257156420393,64,0,0,1,4,-3,1,-3
1522257156440446,-82,-10,-7,-6,-6,-2,-5,-9
1522257156440446,-8,-10,-2,1,-1,1,-2,-3
1522257156442452,-5,-1,-2,1,21,-3,-4,-11
1522257156442452,14,5,-3,-1,-12,1,-1,7
1522257156454483,5,-2,-2,-1,-1,2,1,-2
1522257156454483,-30,0,0,-1,10,8,6,-3
1522257156463508,2,-6,3,2,-12,-22,3,2
1522257156463508,23,4,-4,-8,3,20,1,0
1522257156477545,-23,5,1,3,1,0,3,0
1522257156477545,69,-6,-3,-2,-5,-4,3,24
1522257156484563,-43,-14,-2,-1,5,-1,-4,-13
1522257156484563,-14,1,8,8,3,-5,2,-5
1522257156500606,51,28,5,0,-2,4,3,13
1522257156500606,-16,-7,-4,-1,7,-1,-4,-10
1522257156502612,-60,2,-4,-3,-9,-2,-1,-3
1522257156502612,34,4,-1,-4,-7,-5,-4,7
1522257156523667,-19,-2,0,-4,2,2,-8,-9
1522257156523667,24,9,1,0,0,-5,-2,11
1522257156524670,6,-5,3,0,11,5,0,0
1522257156524670,-31,6,2,1,-28,-8,-1,-5
1522257156537704,31,-3,-1,1,4,-1,4,3
1522257156537704,-35,-5,-3,-1,-12,-4,-3,-11
1522257156544724,50,2,0,0,6,4,1,3
1522257156544724,-86,-7,-3,1,14,0,-3,-7
1522257156560766,25,-2,0,0,-4,1,-2,4
1522257156560766,-52,-3,-3,-3,-8,-6,0,-4
1522257156562772,53,-3,0,-2,1,-2,3,-2
1522257156562772,35,8,-2,-3,8,8,0,3
1522257156582825,-3,-11,-1,1,-2,4,1,0
1522257156582825,-17,8,4,4,-2,2,0,-1
1522257156584830,-16,-14,-2,0,-4,-4,0,10
1522257156584830,80,14,-1,-1,24,-12,-5,0
1522257156597865,-39,2,-4,-6,-29,-7,-5,-9
1522257156597865,-3,-2,2,0,-3,-6,3,6
1522257156604883,-19,-3,-1,0,-2,5,3,-5
1522257156604883,11,-7,-3,-1,3,0,-7,2
1522257156620926,11,6,0,-1,20,10,4,3
1522257156620926,3,5,2,0,-6,-3,-2,-3
1522257156622931,-10,-4,0,-1,0,-13,0,-4
1522257156622931,-9,-2,-2,-1,-3,-9,-3,0
1522257156642984,14,5,-1,3,23,26,4,3
1522257156642984,-9,-1,-1,-1,20,-2,-2,-2
1522257156644990,-16,-10,-5,-6,-61,-23,-4,1
1522257156644990,20,12,5,6,7,0,5,3
1522257156658024,16,-2,-4,0,-11,-12,-2,-2
1522257156658024,22,-11,-2,-2,-3,2,3,-4
1522257156664040,-70,-13,-3,1,28,-4,-11,-6
1522257156664040,-2,1,-4,-4,-9,3,-1,-3
1522257156681086,18,-2,0,-3,-16,-12,-5,-5
1522257156681086,32,4,6,-1,-1,-7,3,4
1522257156682089,24,5,-2,-6,-3,26,0,-6
1522257156682089,-45,-13,-7,-3,-7,-16,-1,-3
1522257156703144,20,0,2,2,12,10,7,4
1522257156703144,-20,-7,0,0,-13,11,-2,0
1522257156705150,34,5,4,3,3,4,3,1
1522257156705150,41,17,-3,-2,2,3,-3,3
1522257156717182,-24,-11,-2,-2,-8,-16,-2,4
1522257156717182,-11,4,-2,-2,-2,-8,-2,-3
1522257156724200,37,-4,1,3,8,0,-2,-5
1522257156724200,-66,-11,2,2,7,5,1,-13
1522257156741246,39,3,-2,-1,-1,3,-3,-1
1522257156741246,18,-2,-5,-5,-23,-4,-2,6
1522257156742248,-7,-4,-2,1,9,17,2,5
1522257156742248,-50,-9,-1,-4,-11,-16,0,-5
1522257156763304,11,1,2,-1,2,-31,-6,-6
1522257156763304,-14,-1,-4,-3,9,43,5,0
1522257156765310,-42,3,-1,-3,-5,-22,2,1
1522257156765310,40,-3,-2,0,26,24,2,4
1522257156777341,-37,-18,-7,-3,-22,-6,-5,-9
1522257156777341,47,5,0,-2,-11,-14,-7,-4
1522257156786366,0,6,2,-3,1,-11,-1,9
1522257156786366,-30,-9,3,4,-9,3,-1,-7
1522257156800403,6,2,-3,0,4,5,0,2
1522257156800403,-11,5,-1,1,5,-5,0,-6
1522257156802408,40,-6,-4,-4,-4,4,-2,-4
1522257156802408,-58,-2,0,-1,8,-3,-3,-6
1522257156823464,-16,-1,-4,-7,-5,3,0,8
1522257156823464,30,-2,-1,-3,-11,-5,0,-5
1522257156824467,-9,-3,-2,0,9,-2,-1,2
1522257156824467,15,1,-1,1,-1,-2,-4,1
1522257156836499,16,4,2,4,0,-1,-2,-2
1522257156836499,-23,-4,-3,-3,3,-5,-6,0
1522257156845523,13,4,0,-4,1,-5,-1,1
1522257156845523,22,6,2,-4,-2,2,-2,2
1522257156860562,-17,4,6,2,-6,14,9,0
1522257156860562,11,7,-2,1,19,-7,4,8
1522257156862568,14,-7,-7,0,-29,15,-2,-1
1522257156862568,-47,-14,0,-2,-17,-19,-1,-8
1522257156883624,58,5,-3,-3,3,-9,-5,4
1522257156883624,-53,-6,-1,2,9,4,3,2
1522257156884627,18,8,2,2,5,-2,3,4
1522257156884627,-1,-2,3,3,2,6,6,0
1522257156896658,8,6,4,3,14,7,7,7
1522257156896658,9,-11,-5,-5,-3,-4,-3,-2
1522257156905683,24,4,-4,-1,-15,-3,-3,4
1522257156905683,8,9,1,-4,-7,0,2,1
1522257156919720,-18,-5,1,2,2,1,-3,-11
1522257156919720,13,-9,-1,0,-7,-4,-2,6
1522257156928744,9,20,-1,-3,5,-1,-3,1
1522257156928744,-7,0,1,3,0,-7,2,-2
1522257156943784,6,-2,-3,-3,6,8,-5,-4
1522257156943784,-22,-1,-1,4,28,1,-1,-6
1522257156944787,13,-3,0,0,-11,10,1,-2
1522257156944787,-24,-7,-5,-5,-12,-3,-6,-4
1522257156956818,-1,9,-1,-4,-13,-7,0,0
1522257156956818,71,-1,-3,0,-7,-3,-1,6
1522257156965843,3,-12,1,1,26,3,3,3
1522257156965843,4,-1,-1,1,-27,-22,-1,-5
1522257156980882,-36,-8,4,1,9,16,2,-4
1522257156980882,-9,9,4,2,-5,4,1,1
1522257156982888,0,7,-5,-6,4,-6,-4,-1
1522257156982888,-11,-6,1,-4,5,6,2,1
1522257157002941,-20,-5,0,0,1,-8,-4,-12
1522257157002941,-41,11,3,4,-2,-5,4,11
1522257157004947,5,1,-1,-1,0,4,-9,-8
1522257157004947,-15,-5,-5,-1,2,6,3,-1
1522257157016978,57,-19,-9,0,-5,-7,0,9
1522257157016978,-11,13,6,3,-5,3,3,2
1522257157026003,-24,-9,-4,2,-1,-9,3,5
1522257157026003,14,6,0,-1,3,4,-7,-10
1522257157041042,-41,-13,-6,-3,13,-1,-2,-6
1522257157041042,17,-5,-1,-2,-9,-4,-3,-11
1522257157042045,6,6,1,1,0,-6,-1,0
1522257157042045,13,5,1,-2,17,2,3,8
1522257157063101,4,5,3,1,-7,-2,1,-1
1522257157063101,-38,-9,-4,-1,-11,-2,-3,-10
1522257157065106,44,15,-1,-2,3,-20,-7,-1
1522257157065106,-37,-5,-6,-5,-23,17,-1,7
1522257157077138,3,-1,2,3,13,10,4,8
1522257157077138,-21,-10,-9,-6,8,1,-6,-15
1522257157093181,-35,-10,2,-1,-7,8,4,-15
1522257157093181,44,14,4,1,8,-16,1,14
1522257157101202,3,-3,-7,-5,-4,-8,-5,-2
1522257157101202,3,3,2,2,-8,14,0,3
1522257157102205,54,2,1,-1,11,-5,-5,2
1522257157102205,-15,0,-2,-4,-36,-10,-1,-1
1522257157123261,-30,6,5,2,27,23,2,-6
1522257157123261,14,1,0,0,2,-6,3,3
1522257157125266,-4,1,0,2,-12,7,0,-1
1522257157125266,-6,-6,3,4,12,0,4,1
1522257157137298,5,3,-3,-1,3,-9,-5,-8
1522257157137298,31,5,0,1,2,-4,-2,5
1522257157146322,-84,-14,-3,-2,0,6,-3,8
1522257157146322,34,-3,-9,-7,2,-1,-12,-9
1522257157160360,0,3,0,-3,-14,-4,-2,2
1522257157160360,-35,1,5,-1,8,-3,-1,-6
1522257157162365,2,-6,-1,-1,-8,-10,5,4
1522257157162365,59,14,-1,1,23,1,6,6
1522257157183421,-10,-13,-4,1,-40,-3,0,-2
1522257157183421,-15,-3,1,2,25,0,-4,-4
1522257157185426,3,-1,1,0,-24,11,0,-7
1522257157185426,-45,-6,-3,2,7,-7,-2,-2
1522257157197458,41,13,-1,-5,-22,-10,-1,11
1522257157197458,11,-14,-4,-4,29,2,-5,2
1522257157205479,-40,-8,3,1,-14,1,1,-15
1522257157205479,79,8,-2,-1,26,4,-1,13
1522257157220519,-42,2,-1,2,9,-13,3,2
1522257157220519,-24,-2,-3,-5,-17,16,3,-6
1522257157222525,55,9,3,-2,19,1,0,-1
1522257157222525,-13,-10,0,-1,-17,3,-4,-6
1522257157243580,8,-10,-5,-6,-10,-12,-8,6
1522257157243580,-13,2,1,0,-3,-11,2,-2
1522257157244584,-20,2,2,1,4,3,2,-3
1522257157244584,-5,3,4,3,-6,-13,7,-3
1522257157256615,46,13,2,0,-1,14,0,3
1522257157256615,-14,-14,-10,-5,-3,-14,-3,4
1522257157265639,-60,-7,-2,2,2,11,-3,-14
1522257157265639,20,2,1,0,2,30,1,2
1522257157280679,-26,-9,4,-3,-11,-13,-3,-4
1522257157280679,41,4,1,-2,-20,-27,1,0
1522257157282685,-26,-5,-3,-10,-23,14,-1,-3
1522257157282685,6,5,-4,7,50,15,2,8
1522257157303740,-33,-5,-5,-1,26,0,-4,-5
1522257157303740,44,10,3,0,-37,2,-2,2
1522257157304743,-5,-11,0,3,25,-14,-4,-2
1522257157304743,-19,-1,3,-3,-32,-8,-1,-5
1522257157316775,37,16,1,3,1,1,2,3
1522257157316775,-58,1,-1,3,15,20,1,-2
1522257157325799,-14,-4,-1,-1,-2,-6,-5,-7
1522257157325799,11,-10,-1,-4,1,-5,-2,-6
1522257157340839,41,2,1,2,-10,-8,-1,7
1522257157340839,57,3,-1,-4,-8,-10,-6,5
1522257157342844,-55,-20,-6,3,0,-7,-5,-10
1522257157342844,-42,3,4,2,-3,7,-1,2
1522257157362898,30,7,-9,-10,3,-16,-6,-6
1522257157362898,-26,-10,-1,-1,-2,18,2,0
1522257157364903,50,13,-3,-1,6,-3,1,7
1522257157364903,-33,-2,1,2,19,-22,-2,-3
1522257157376935,-20,-12,-4,-3,-24,18,-6,-6
1522257157376935,12,2,2,1,0,-16,7,1
1522257157385959,-9,-4,-1,1,6,20,4,2
1522257157385959,4,1,1,3,-10,-2,1,-1
1522257157399996,17,-1,1,-4,-29,0,2,3
1522257157399996,-8,-3,-6,1,38,14,-5,-11
1522257157407015,-14,3,-5,-3,-1,-18,-3,-8
1522257157407015,8,0,-3,0,0,-1,-3,-7
1522257157423058,32,-3,-2,-1,-7,-2,-1,5
1522257157423058,-21,-12,-5,0,0,-9,-4,-1
1522257157425063,49,6,-3,-7,-15,-11,-2,4
1522257157425063,21,11,-1,-4,-5,5,-2,4
1522257157437095,-87,-29,2,5,16,-3,1,-16
1522257157437095,-33,21,2,-2,-14,-11,0,2
1522257157446119,0,-6,1,2,13,16,-3,1
1522257157446119,15,0,-5,-9,-18,-7,-1,-7
1522257157460156,7,0,3,0,16,-1,4,-2
1522257157460156,35,3,-3,-2,-10,2,-2,5
1522257157467175,-2,6,-1,4,-1,0,0,-3
1522257157467175,-42,-12,-6,-1,-11,-8,-7,-4
1522257157483218,-1,9,2,5,24,9,2,4
1522257157483218,13,-12,-5,0,-18,-7,-4,-9
1522257157485223,19,5,4,2,8,-10,2,4
1522257157485223,5,-4,2,-5,-17,5,1,-1
1522257157506279,-18,0,0,-1,7,-1,4,8
1522257157506279,26,0,-3,2,-7,1,3,-2
1522257157507281,-27,8,-2,1,1,-6,-2,10
1522257157507281,-14,-2,6,-2,-5,0,0,-3
1522257157520316,-27,-5,0,0,9,3,-1,0
1522257157520316,-39,-2,1,1,-20,0,-3,-4
1522257157527335,16,6,-3,-2,-4,3,-1,-3
1522257157527335,-8,-3,-7,-1,3,-2,-3,-2
1522257157543377,-3,6,-3,0,3,0,-5,-11
1522257157543377,-10,-10,2,2,-3,-17,-3,-5
1522257157545383,41,-2,-4,3,1,19,3,12
1522257157545383,-50,-1,-3,-3,8,-5,-7,-5
1522257157565436,-2,-6,-2,2,-13,-14,2,-7
1522257157565436,1,-1,-2,-4,-5,19,2,-2
1522257157567441,9,2,4,-3,-4,-7,2,-1
1522257157567441,11,-2,1,0,0,1,2,2
1522257157580476,-21,1,2,2,12,2,0,-1
1522257157580476,14,6,3,-1,20,-1,1,5
1522257157586492,20,4,-1,-6,-26,-11,0,12
1522257157586492,36,-3,-11,-8,-3,-4,-7,4
1522257157603537,-19,-9,0,-6,-12,-8,-9,-3
1522257157603537,2,1,5,0,3,2,4,9
1522257157604540,6,7,1,0,8,-4,-5,-10
1522257157604540,25,-2,4,6,-3,2,6,0
1522257157625596,-4,4,1,-1,-3,0,3,-2
1522257157625596,-5,-5,1,-4,3,-1,-1,-3
1522257157627601,20,7,-4,-2,6,-5,-3,5
1522257157627601,-65,-6,3,1,-3,4,5,-2
1522257157639633,21,-3,-12,-8,-2,6,-7,3
1522257157639633,-22,1,-1,1,-13,2,-3,-10
1522257157646652,5,7,1,3,-2,-13,0,2
1522257157646652,3,-3,0,2,-2,-4,-2,1
1522257157663697,3,0,0,-1,7,2,6,2
1522257157663697,7,-9,-1,-1,6,-16,-2,-5
1522257157664700,4,0,-1,-7,-16,13,1,-7
1522257157664700,60,10,5,1,-3,-2,0,4
1522257157685756,-27,-8,-1,-1,-3,5,-1,-5
1522257157685756,-34,-2,-1,3,4,0,-2,-4
1522257157687761,35,4,-1,3,6,-14,2,13
1522257157687761,22,-6,0,-3,-1,10,-4,-8
1522257157699796,22,5,2,2,-1,-22,-4,9
1522257157699796,-25,-2,-2,-1,-20,21,0,-2
1522257157706811,-55,-18,1,1,14,4,1,-8
1522257157706811,32,0,1,-3,7,-1,0,9
1522257157722854,8,3,-4,-4,-18,-2,-5,-5
1522257157722854,-3,1,-2,-2,-5,-3,-4,-3
1522257157724860,65,4,-5,1,-5,-9,-7,6
1522257157724860,-73,4,-4,0,5,-4,0,-11
1522257157745916,-3,-13,-4,-1,6,-2,2,-6
1522257157745916,-8,-3,-2,-4,3,1,3,1
1522257157751932,-11,1,2,0,-2,10,1,-6
1522257157751932,-54,2,1,3,1,-7,-3,-3
1522257157758950,-4,9,8,4,14,0,2,2
1522257157758950,-30,1,1,-1,-63,4,1,2
1522257157768977,58,-6,-13,0,57,-18,-2,3
1522257157768977,8,0,-3,-4,14,28,2,-5
1522257157783014,-4,13,5,0,-11,6,5,-6
1522257157783014,23,-17,-2,-3,-11,-2,3,2
1522257157785020,-111,4,-1,-1,7,-12,-7,-11
1522257157785020,-56,-10,-4,4,-26,-4,-3,-1
1522257157806075,81,11,-7,-4,-4,-12,-4,13
1522257157806075,32,-2,0,0,26,-5,0,6
1522257157807079,-28,-9,3,2,-16,7,4,-11
1522257157807079,-28,4,2,4,20,-16,-1,-9
1522257157819112,-44,-10,-3,-2,-15,2,4,-7
1522257157819112,40,-11,-11,0,8,14,-2,16
1522257157828134,-32,-17,-1,10,40,15,0,-1
1522257157828134,31,-3,7,1,2,-6,-4,-8
1522257157843174,-64,2,9,4,-6,3,-2,-11
1522257157843174,21,7,2,-3,16,-11,-2,7
1522257157845180,68,0,-7,-9,-32,1,-2,17
1522257157845180,15,-3,-3,-4,1,-3,-2,13
1522257157866235,31,12,3,0,11,8,4,7
1522257157866235,-56,-7,4,-3,7,1,1,-20
1522257157867238,23,24,4,-5,-18,-2,3,5
1522257157867238,40,-1,-5,-3,-2,-5,3,13
1522257157879270,-81,-19,-7,-4,-50,-10,-9,-6
1522257157879270,65,10,0,5,37,1,-5,6
1522257157888294,-54,-13,-5,3,26,10,-6,-6
1522257157888294,3,0,4,8,39,11,1,1
1522257157903334,-9,-9,2,6,4,4,-1,-8
1522257157903334,5,7,-4,-5,-50,-16,-3,-11
1522257157905339,-21,2,0,4,-39,-4,2,-6
1522257157905339,-9,5,-3,4,19,2,4,-4
1522257157925392,27,8,3,7,42,13,6,9
1522257157925392,-3,2,1,-5,-17,-7,-1,1
1522257157927399,7,-6,1,-13,-6,-13,-4,-2
1522257157927399,-40,-7,2,-5,-43,10,1,-6
1522257157939432,38,2,-4,-3,17,8,0,-1
1522257157939432,-8,10,1,-5,2,-10,-2,11
1522257157948454,-14,-17,-3,-9,-31,9,-5,-5
1522257157948454,31,1,3,-5,-3,-1,4,-5
1522257157963494,-99,-19,-2,-3,-4,2,-6,-9
1522257157963494,55,26,3,9,16,7,6,11
1522257157964497,-14,-25,-7,-1,-12,-16,-8,-2
1522257157964497,0,-2,-3,-9,-14,-9,-8,2
1522257157985552,26,5,1,-2,3,0,-1,-1
1522257157985552,-3,-3,-3,-1,4,-5,0,-4
1522257157987558,25,10,4,3,11,6,1,0
1522257157987558,6,-1,-2,-4,0,2,-4,-2
1522257157999590,9,-2,1,-3,-11,-14,0,0
1522257157999590,-13,-6,4,1,9,8,-1,-3
1522257158008614,-1,7,-1,2,-5,2,11,11
1522257158008614,28,5,-3,2,-12,-14,-2,0
1522257158023653,2,-4,1,1,17,-15,-1,3
1522257158023653,-25,-4,-2,-6,4,14,1,-7
1522257158024657,12,7,1,0,-20,-1,-1,-5
1522257158024657,-35,-12,-8,-10,-8,-11,-6,-5
1522257158045712,-29,-9,-4,6,12,10,4,-4
1522257158045712,62,17,-5,0,8,-1,1,9
1522257158047718,-54,-4,1,3,11,-8,-4,-17
1522257158047718,20,2,-1,4,16,16,8,5
1522257158059750,57,13,-2,-6,-25,-2,-4,8
1522257158059750,-61,-29,-4,-8,6,-11,-13,-21
1522257158068774,-5,6,-2,0,8,1,0,1
1522257158068774,27,2,-2,-1,-14,-8,0,0
1522257158083813,26,2,-2,-3,-4,2,2,-1
1522257158083813,-24,13,13,7,9,5,3,2
1522257158084817,29,22,11,1,-9,3,1,1
1522257158084817,1,-19,3,6,2,-4,-4,2
1522257158105872,-46,8,-1,0,3,-5,-2,-7
1522257158105872,59,-16,-9,0,-33,-4,-8,1
1522257158107878,-23,10,2,0,-11,-18,2,0
1522257158107878,-9,5,1,-1,34,21,2,-1
1522257158119909,66,-15,-7,0,5,6,4,14
1522257158119909,-40,-1,-2,1,-3,-10,3,-1
1522257158128934,21,-2,3,3,23,23,2,3
1522257158128934,-56,-8,-4,-4,-25,-9,-3,-4
1522257158142971,28,10,3,0,24,3,-1,5
1522257158142971,-86,-5,-1,1,-5,-7,2,-17
1522257158144976,79,6,-1,-3,-32,-8,2,20
1522257158144976,16,7,-1,-1,7,-2,-3,3
1522257158166033,29,-6,0,5,2,-2,0,-7
1522257158166033,21,-1,1,-2,-4,3,-1,10
1522257158167035,-45,-8,-5,0,4,-3,2,-9
1522257158167035,-15,8,0,6,-15,-1,-2,7
1522257158179067,46,1,-4,0,-4,-5,-3,0
1522257158179067,-3,-5,-6,-7,16,3,-1,3
1522257158188090,23,-2,4,-8,-3,5,-6,-1
1522257158188090,-12,4,6,-4,11,-10,-4,-3
1522257158203131,-32,11,2,-1,-33,9,1,-4
1522257158203131,-15,-2,-1,4,7,-1,5,-9
1522257158205136,-19,-17,-11,4,27,3,-1,-11
1522257158205136,37,-1,-9,-4,-7,-15,-2,-6
1522257158226192,-23,-4,5,-2,-28,-6,-3,6
1522257158226192,9,-2,-9,-3,-4,2,-10,-9
1522257158227195,-25,0,4,0,30,2,-4,-8
1522257158227195,1,10,-1,3,-26,8,-1,-10
1522257158239227,-19,-22,-2,-3,15,3,5,3
1522257158239227,18,-5,-4,-1,-11,-2,4,8
1522257158248251,-26,6,0,1,4,-4,-7,-1
1522257158248251,22,-10,10,-3,-7,-7,-3,7
1522257158262288,-11,16,-1,-11,-61,-6,-6,-5
1522257158262288,1,-15,1,18,82,14,4,0
1522257158269306,-47,0,-3,3,0,1,-3,-6
1522257158269306,39,7,-7,-5,3,2,-2,10
1522257158285349,24,-10,-5,-8,5,-12,-1,-4
1522257158285349,-46,-5,-3,-10,-21,-20,0,-5
1522257158287355,-20,-21,-9,-5,-1,30,6,6
1522257158287355,23,6,3,2,6,-2,1,-1
1522257158299387,-8,-5,0,-2,6,-3,-1,-6
1522257158299387,2,12,1,5,15,5,-4,-11
1522257158308411,22,4,4,0,-7,-5,1,9
1522257158308411,12,-6,-1,-5,-15,-6,-3,-1
1522257158323450,-48,-12,-7,1,22,4,0,-3
1522257158323450,48,7,3,-2,-11,0,2,7
1522257158325456,5,-5,2,-1,-13,-8,6,0
1522257158325456,-24,-12,-11,6,38,11,-1,-26
1522257158345509,66,22,2,3,-51,-6,3,22
1522257158345509,-82,-21,-4,-4,-9,1,-4,-2
1522257158347515,-21,-2,4,-7,-29,-2,-6,-8
1522257158347515,-1,4,4,-3,10,-4,4,4
1522257158359546,3,12,5,4,31,1,0,-13
1522257158359546,70,16,-7,-3,-13,-6,-2,-1
1522257158368570,22,-5,-3,-2,5,-7,-6,1
1522257158368570,-80,-29,-8,-4,-10,4,-5,-6
1522257158382608,-20,-1,6,-1,7,3,2,1
1522257158382608,-9,-1,8,-1,-11,10,7,7
1522257158389626,45,41,9,-6,-4,-14,6,6
1522257158389626,16,3,-2,-3,-16,3,2,8
1522257158405669,20,-4,-5,8,31,2,-9,1
1522257158405669,89,24,-4,8,24,4,-1,18
1522257158407675,-71,-27,-15,2,6,2,-4,-14
1522257158407675,40,12,7,0,-27,-10,0,7
1522257158428730,-57,-2,0,-5,-9,-1,-3,-6
1522257158428730,-20,9,3,-3,-9,-2,2,-8
1522257158429733,65,7,-6,-2,0,-13,-1,-4
1522257158429733,12,-1,-6,-1,4,0,5,-3
1522257158442767,21,-19,-11,-6,25,-6,-11,-5
1522257158442767,3,-4,2,-9,-27,-6,1,6
1522257158449786,-46,-2,1,-1,-10,1,0,0
1522257158449786,-48,0,3,2,0,-11,2,-5
1522257158465829,-13,-10,2,2,8,24,-3,-4
1522257158465829,-17,-10,1,3,13,-5,3,7
1522257158467834,10,7,-1,0,6,6,4,-1
1522257158467834,-3,-4,-7,-6,-6,-6,0,-4
1522257158487887,13,10,-4,-9,-10,-6,4,7
1522257158487887,-103,-19,-7,0,7,-6,-9,-23
1522257158489893,95,23,8,6,-3,4,-1,20
1522257158489893,-13,8,0,1,18,-13,-6,5
1522257158502927,-64,-5,-6,0,-20,13,0,-8
1522257158502927,41,5,1,0,24,11,1,-3
1522257158508943,-33,0,-3,-2,-49,-15,-1,-7
1522257158508943,30,-8,-6,-1,7,10,2,4
1522257158525989,-71,-18,-1,-5,-20,-5,-2,-8
1522257158525989,39,7,-1,-1,5,13,-1,14
1522257158526991,47,1,-8,-3,32,-1,-8,-4
1522257158526991,2,16,5,2,-15,-5,-2,1
1522257158548047,3,0,4,9,47,-1,-3,-6
1522257158548047,3,2,7,-6,-49,-1,1,-4
1522257158550053,-10,-7,0,-3,-4,-26,-6,3
1522257158550053,-19,-2,0,-1,-6,29,-1,5
1522257158563087,-9,1,-6,0,14,-21,0,-2
1522257158563087,-10,-1,-3,-2,5,4,1,0
1522257158569103,12,-5,-6,-6,-5,-3,0,0
1522257158569103,-42,-17,4,1,11,14,6,-21
1522257158586149,-10,-9,5,2,17,8,4,-4
1522257158586149,94,7,-2,-4,-17,-12,0,18
1522257158587151,-101,-22,-4,-4,-5,0,-6,-11
1522257158587151,35,23,3,6,5,4,-3,2
1522257158608207,-8,-1,-7,-2,-8,3,-4,1
1522257158608207,-1,15,4,2,-11,-18,-4,-6
1522257158610213,-20,-6,3,4,21,15,-7,-5
1522257158610213,36,0,4,0,-23,-13,2,13
1522257158622244,39,3,5,3,-44,-2,1,15
1522257158622244,-57,-27,-5,4,26,31,2,-8
1522257158629263,2,4,2,2,24,3,11,3
1522257158629263,5,9,-3,-8,-10,-7,-2,0
1522257158646308,40,16,4,-6,-31,-22,1,11
1522257158646308,29,-7,0,-2,28,12,-6,-4
1522257158647311,-3,-3,-3,0,4,3,-5,-8
1522257158647311,-17,-6,0,3,6,-7,5,3
1522257158668367,2,3,-10,-1,-13,-15,2,0
1522257158668367,-36,-4,-1,-1,-4,-8,-4,0
1522257158670372,40,-6,-4,-5,-30,-5,-5,0
1522257158670372,14,-6,7,1,14,-2,1,1
1522257158682404,4,-9,-2,1,4,6,5,-4
1522257158682404,-8,-9,-5,-7,-14,-8,0,-1
1522257158691428,4,4,4,-3,11,-2,1,1
1522257158691428,0,-2,-5,-4,-10,-1,-8,-6
1522257158705465,-12,2,0,2,11,4,-3,-4
1522257158705465,73,12,-3,2,0,2,2,2
1522257158707471,-22,4,-6,2,-2,1,-1,-2
1522257158707471,35,3,-1,7,21,2,-2,5
1522257158728527,7,-7,2,2,-42,1,1,-1
1522257158728527,-76,-6,-8,2,4,-11,-3,-1
1522257158729530,6,-16,-1,-3,-6,7,7,9
1522257158729530,-43,13,10,2,4,-2,-4,-19
1522257158741562,4,19,0,-3,10,-10,-3,-4
1522257158741562,32,2,3,-1,1,4,-3,-4
1522257158750586,-37,-10,-2,0,8,-1,-6,-5
1522257158750586,40,-9,-6,-7,-16,-1,-4,17
1522257158765625,-16,5,3,-2,10,-3,-7,2
1522257158765625,-5,-4,6,0,-4,-1,0,-12
1522257158767631,-54,3,2,-3,-20,-8,6,-13
1522257158767631,56,-11,-3,-3,1,-7,10,1
1522257158788687,6,-7,-4,-7,9,19,-8,-13
1522257158788687,-57,-8,-6,-8,0,1,-8,-13
1522257158789690,-5,6,0,-1,0,3,-3,-3
1522257158789690,-58,-4,0,-2,2,-6,-1,-6
1522257158801721,23,4,-4,-5,15,-2,5,8
1522257158801721,32,21,0,1,-3,-2,-2,3
1522257158810745,-6,0,-2,1,17,-3,-5,-8
1522257158810745,-7,5,-6,5,-26,-1,3,-5
1522257158825785,13,16,1,2,17,3,6,16
1522257158825785,-42,-47,-16,-13,-30,-13,-7,-7
1522257158827791,29,16,15,1,-3,7,-4,-6
1522257158827791,-5,0,-3,-5,3,1,-7,7
1522257158848847,3,-3,0,0,16,3,1,-7
1522257158848847,11,16,4,2,-7,-18,8,13
1522257158849850,36,5,-2,1,6,15,9,19
1522257158849850,-23,-13,0,-2,11,-14,-6,-6
1522257158861881,22,-7,-6,-5,-20,10,-2,-5
1522257158861881,1,14,2,-5,9,0,-3,3
1522257158870905,7,-12,-4,0,-9,-4,1,1
1522257158870905,-33,3,4,3,-1,4,3,-3
1522257158885945,-21,-5,-3,2,-2,-3,1,-3
1522257158885945,35,7,-1,-2,-3,-7,-4,1
1522257158887951,-16,-1,5,0,11,4,3,-10
1522257158887951,-52,-25,-1,-6,1,8,4,3
1522257158908004,66,-13,-10,-4,1,-8,-12,-1
1522257158908004,-54,6,0,11,16,12,4,-3
1522257158910009,2,2,-1,-2,-43,-15,-9,-1
1522257158910009,37,7,-4,3,-41,-1,0,-5
1522257158922041,-51,-21,-3,3,44,-2,2,1
1522257158922041,-22,3,6,2,11,0,0,-2
1522257158931065,-3,0,7,22,8,-1,3,-2
1522257158931065,8,12,-1,3,2,0,-6,-6
1522257158946105,-22,2,2,-3,-15,-24,-2,4
1522257158946105,13,-14,2,1,19,21,3,-5
1522257158947108,23,10,-2,-5,16,12,2,7
1522257158947108,-32,-4,0,-8,-22,-9,-3,6
1522257158968164,74,18,-1,1,-2,6,-3,1
1522257158968164,-20,-11,-7,-9,-14,-18,1,0
1522257158970170,19,0,-6,-9,-6,-3,2,-5
1522257158970170,-10,-5,-2,1,25,12,-1,-6
1522257158982201,-36,4,3,0,-8,1,0,-7
1522257158982201,44,10,6,2,-7,1,3,8
1522257158991225,19,-2,-4,-7,2,1,-7,2
1522257158991225,-36,-5,-4,2,23,1,-3,-1
1522257159006265,-26,-7,-1,0,-21,5,-8,-5
1522257159006265,48,-4,-10,2,-10,0,-2,3
1522257159007268,6,-5,0,2,3,-4,5,-1
1522257159007268,20,18,0,-4,13,-9,0,-3
1522257159028324,-18,-14,-5,-3,-21,-5,-3,-4
1522257159028324,-62,-19,-6,2,22,-7,-4,-12
1522257159030329,-18,0,-3,-6,-18,18,9,23
1522257159030329,37,19,5,-1,2,-3,-11,-3
1522257159042361,19,12,8,1,1,-2,4,0
1522257159042361,57,17,2,0,-13,-12,-1,12
1522257159051385,-78,-20,-6,-1,17,-4,-1,-9
1522257159051385,-57,-15,4,-6,-18,6,0,-6
1522257159065422,17,-5,5,4,32,10,6,-2
1522257159065422,-3,5,4,-3,-12,-7,-2,1
1522257159067428,4,10,0,0,3,-13,-1,-9
1522257159067428,40,1,-2,5,-1,5,2,11
1522257159088483,-21,-12,-7,6,14,-7,-6,-5
1522257159088483,-25,-4,-6,6,-18,16,-1,-6
1522257159089486,-14,16,-5,-6,-14,-34,-12,4
1522257159089486,29,-12,-9,-9,-17,4,-1,-5
1522257159101518,-6,2,5,-6,2,16,2,6
1522257159101518,1,-5,1,1,6,3,2,-3
1522257159110543,-61,-3,1,5,-7,10,1,-7
1522257159110543,28,4,-3,1,25,-1,9,9
1522257159125582,16,-5,0,-4,-14,-4,1,0
1522257159125582,-30,-4,-5,-1,4,2,-1,-16
1522257159127588,20,10,6,-3,-22,-4,-6,-6
1522257159127588,27,3,-3,-2,7,-3,3,13
1522257159148643,-3,-9,-2,-4,-7,0,0,-6
1522257159148643,2,10,6,-6,-4,-3,2,2
1522257159149646,7,-6,-1,1,-23,1,-5,-3
1522257159149646,56,-5,-2,3,24,8,-2,-1
1522257159161678,-29,3,-7,2,5,-2,-2,0
1522257159161678,34,10,5,0,2,-10,-4,3
1522257159170702,-6,1,-1,-1,22,-3,-4,8
1522257159170702,-42,-8,4,-2,-10,28,-4,-11
1522257159185742,-30,-3,-5,1,7,-5,-1,-3
1522257159185742,-20,-4,-6,1,3,-2,1,-1
1522257159187748,72,3,-12,0,-5,-16,-3,4
1522257159187748,-34,-4,-6,1,-3,-14,-6,-6
1522257159208803,10,9,2,-1,5,5,1,6
1522257159208803,13,-9,-2,-10,-14,-3,6,7
1522257159209806,-19,-2,5,4,43,15,7,-1
1522257159209806,21,5,6,-3,-44,-10,5,-2
1522257159221838,-32,-13,-7,-8,-5,-7,0,-7
1522257159221838,14,4,-1,-2,-60,-3,-2,-1
1522257159230862,4,9,-8,1,18,0,-6,-3
1522257159230862,16,-3,-3,3,11,1,-7,3
1522257159245902,-59,-5,10,1,-10,-13,-4,-2
1522257159245902,-16,1,9,1,33,8,0,2
1522257159247908,0,-4,-1,-3,-3,2,4,-6
1522257159247908,-19,-2,-3,-4,3,-5,3,-10
1522257159267960,55,7,-4,0,-13,-11,-5,7
1522257159267960,5,5,-7,-4,-4,16,-8,3
1522257159269966,-42,-18,4,-6,-15,-7,-2,-5
1522257159269966,20,2,-1,-1,2,19,5,4
1522257159281998,37,17,-3,-2,2,3,4,1
1522257159281998,-68,-43,-4,-1,8,-15,-5,-4
1522257159291022,-14,0,6,2,11,-1,-7,-2
1522257159291022,37,-7,9,-5,0,-19,-5,-4
1522257159305059,-3,-6,6,0,18,9,-3,-10
1522257159305059,32,19,-6,1,-24,-6,1,4
1522257159313081,-7,-1,-5,2,-4,2,0,-6
1522257159313081,-14,-9,-2,1,0,3,-6,-2
1522257159328120,7,12,-6,-4,-10,-10,-7,0
1522257159328120,8,9,-3,0,16,-2,-2,1
1522257159330126,-1,1,1,-4,-9,3,5,3
1522257159330126,-2,4,-2,8,30,-5,6,3
1522257159342158,13,-4,4,-2,-15,15,6,7
1522257159342158,-34,-3,5,-4,-3,7,-1,-2
1522257159351182,57,-2,6,7,0,3,-1,3
1522257159351182,-9,2,-12,-3,-12,-14,-15,-3
1522257159365219,-61,-20,-9,-3,-2,8,-6,-5
1522257159365219,33,9,-1,-1,6,-3,-6,-8
1522257159372238,10,10,1,0,2,6,3,-13
1522257159372238,-32,-8,5,-2,-2,-3,6,-18
1522257159389283,19,-8,0,0,1,-4,0,2
1522257159389283,-23,4,0,-4,7,3,0,6
1522257159390286,60,1,5,3,-2,-15,-2,18
1522257159390286,-66,-3,-5,-1,15,14,0,11
1522257159411342,5,-2,-13,-5,-13,-5,-4,-3
1522257159411342,6,-8,-1,-3,-13,-8,7,4
1522257159412345,-2,3,-4,0,-10,-1,-7,-5
1522257159412345,1,-11,-10,-4,-14,-10,-3,-2
1522257159425379,27,5,-3,4,21,11,0,3
1522257159425379,-8,-2,-2,2,12,2,1,-3
1522257159432397,-18,-8,4,-4,-7,-1,-7,-21
1522257159432397,31,28,14,5,13,3,0,2
1522257159448440,-54,-20,0,-1,-14,6,4,4
1522257159448440,47,17,-3,0,-3,-9,-5,-4
1522257159450445,-20,-8,-9,-6,-14,3,2,3
1522257159450445,-14,-9,-2,-5,-7,-5,5,-2
1522257159470499,26,12,3,5,4,-13,4,-4
1522257159470499,-40,-13,-3,5,10,11,-3,-13
1522257159472504,26,1,-2,1,2,3,1,0
1522257159472504,21,6,-1,0,-9,1,-1,7
1522257159485539,-1,12,2,-6,-11,-11,-7,-4
1522257159485539,10,-3,5,-2,-1,0,-1,1
1522257159491555,2,13,2,2,12,2,0,3
1522257159491555,-40,-10,-6,1,20,4,4,1
1522257159508600,-14,-16,0,3,-14,1,5,1
1522257159508600,38,0,-4,-4,3,-6,-1,7
1522257159509603,2,-19,-6,-2,-5,4,5,1
1522257159509603,-4,1,4,-1,-10,-1,6,-1
1522257159530659,7,1,4,11,17,3,4,-10
1522257159530659,51,13,-5,2,0,-10,-3,3
1522257159532664,72,-6,-7,-3,7,0,-2,11
1522257159532664,25,-9,-8,-3,-16,7,-5,-9
1522257159544696,-38,-5,1,-2,1,3,-2,2
1522257159544696,-39,13,6,0,-16,-5,-2,1
1522257159551714,-47,-13,4,-9,6,-2,4,-7
1522257159551714,-30,5,-6,-1,-4,-2,-3,3
1522257159568760,1,14,4,-1,2,1,-2,3
1522257159568760,-38,1,3,0,3,-2,-1,-8
1522257159569763,-44,1,1,3,-2,-3,-7,-10
1522257159569763,62,-2,8,-4,15,-11,2,10
1522257159590819,-16,-2,-4,-7,43,11,-4,0
1522257159590819,-2,-5,-2,-4,-65,0,-3,-7
1522257159592824,43,6,-8,-6,-7,-4,-4,6
1522257159592824,-17,-16,-6,5,-12,1,-5,-10
1522257159604856,28,-1,0,7,14,-2,-1,-3
1522257159604856,-10,-7,3,1,28,0,-2,2
1522257159611874,-15,-4,-1,1,-6,1,2,-4
1522257159611874,-11,2,-3,-2,-9,-26,2,5
1522257159627918,11,4,-6,-4,4,9,3,-1
1522257159627918,-8,-1,-5,4,18,5,-1,-2
1522257159629923,-18,-15,-4,2,-30,0,-2,-5
1522257159629923,35,10,-1,2,9,16,-2,13
1522257159650978,-23,-9,1,-10,-34,-21,-8,-2
1522257159650978,-10,2,7,-3,0,3,3,1
1522257159652984,-13,6,10,0,16,2,3,-1
1522257159652984,-1,15,4,-2,-6,-4,2,-7
1522257159664013,-23,-7,-12,-5,-13,2,1,-3
1522257159664013,-16,-1,-6,-3,6,-5,-9,8
1522257159673037,20,7,-6,-1,4,-3,-4,1
1522257159673037,-41,-2,-5,-3,-2,-3,-10,-11
1522257159688077,16,10,1,6,51,-1,3,8
1522257159688077,-3,-8,-2,0,-62,-10,-2,1
1522257159690082,-14,-3,4,0,-9,-2,2,4
1522257159690082,-12,-3,4,4,-14,-13,0,-3
1522257159711139,10,-6,-2,0,4,27,3,-5
1522257159711139,17,73,6,5,19,9,10,-8
1522257159712141,59,76,-5,-6,0,-1,-1,15
1522257159712141,-32,15,1,-9,0,-5,-1,-3
1522257159724173,26,18,10,0,-24,-21,-1,5
1522257159724173,-101,-41,-5,0,20,14,2,-12
1522257159733197,62,4,0,2,-9,-2,4,12
1522257159733197,-45,-50,-16,-1,13,4,-6,-8
1522257159748237,56,-26,-5,-4,-10,-8,-3,2
1522257159748237,9,-33,3,2,-4,-2,-5,-7
1522257159750242,-46,-33,5,4,6,-3,-3,-7
1522257159750242,-10,-15,4,-6,-3,4,0,3
1522257159771298,17,-8,-2,-3,-55,-23,-3,0
1522257159771298,14,-9,-9,5,47,16,-6,0
1522257159772301,-15,-14,-2,2,-25,7,6,9
1522257159772301,28,7,1,5,3,8,2,2
1522257159784333,-31,4,3,4,-27,-8,-4,-5
1522257159784333,38,7,-1,-11,8,-13,-5,5
1522257159793357,-58,-13,-4,-5,28,0,-2,-12
1522257159793357,37,15,9,-1,-42,-10,0,-3
1522257159808397,-55,-1,-7,-5,30,22,0,0
1522257159808397,104,11,-12,-10,-29,-8,5,16
1522257159810403,-38,-18,-9,-3,16,6,1,-7
1522257159810403,47,11,1,3,-1,-1,7,12
1522257159830456,-22,-6,8,5,13,-7,-6,-8
1522257159830456,36,1,11,3,12,7,-3,-1
1522257159832461,-49,-26,-4,-4,-19,-2,-1,-2
1522257159832461,-41,-7,-6,-4,8,0,-6,-17
1522257159844493,27,4,2,5,2,5,-2,1
1522257159844493,-15,1,-5,0,-4,-10,-3,2
1522257159853517,20,8,0,1,3,-16,-8,-6
1522257159853517,12,3,6,3,-28,11,1,1
1522257159868556,8,2,1,-2,9,-2,8,14
1522257159868556,-41,-12,-2,-4,-21,-11,4,-6
1522257159869559,11,5,-2,0,25,28,2,-1
1522257159869559,-27,-18,-2,0,7,-5,-2,-14
1522257159890615,4,2,5,1,9,26,3,-8
1522257159890615,41,20,6,-6,-1,-15,6,9
1522257159892621,20,11,0,2,-5,-4,-3,5
1522257159892621,-14,19,-2,4,3,-7,2,9
1522257159904652,5,-9,-9,-9,-10,-19,-14,-4
1522257159904652,-62,-23,-1,0,6,-12,0,-9
1522257159913677,13,-1,6,-2,-2,31,-1,-5
1522257159913677,-8,14,3,0,0,-6,2,13
1522257159928716,-20,-4,-8,1,20,-1,0,-3
1522257159928716,-8,-4,-7,-1,-19,3,0,-1
1522257159929719,32,-4,-1,-2,23,-14,1,1
1522257159929719,6,-4,-8,-4,-26,-4,-7,-2
1522257159950775,-28,8,1,2,-13,7,4,5
1522257159950775,-37,-7,3,-4,3,3,-5,-13
1522257159952781,20,13,6,-1,-1,-20,-4,2
1522257159952781,-1,-13,-6,-1,25,29,-4,-6
1522257159964813,-5,-2,-4,-5,11,-9,3,2
1522257159964813,31,-4,-3,2,-14,1,1,-4
1522257159973836,-14,-18,-11,-3,-2,-3,0,-8
1522257159973836,-9,-5,-4,-1,3,-1,-3,1
1522257159987874,19,13,10,0,-10,-21,-3,3
1522257159987874,-17,2,10,0,23,21,-4,-5
1522257159989879,-22,-3,5,0,-9,-2,1,4
1522257159989879,33,4,-7,-1,-2,-4,0,8
1522257160010935,18,-5,-12,2,-3,2,-2,-6
1522257160010935,-19,3,-4,1,2,-15,-2,-2
1522257160012941,-25,-3,9,3,1,0,-1,-8
1522257160012941,-31,5,9,-2,2,7,1,-5
1522257160024972,82,13,4,2,-13,-2,3,5
1522257160024972,-4,-14,-6,-1,-8,0,0,-6
1522257160033996,-30,-6,-10,-2,-14,-7,0,1
1522257160033996,13,2,-4,-1,15,1,-2,1
1522257160048034,-37,-4,5,-3,-8,5,-6,-15
1522257160048034,-14,16,7,-2,0,4,-3,3
1522257160050039,8,-10,0,-4,-15,-7,-12,-6
1522257160050039,-12,-9,-10,0,-1,-8,-4,1
1522257160071095,14,12,-6,2,-10,-6,0,5
1522257160071095,12,-5,-6,4,10,-12,3,6
1522257160072098,-12,7,-1,-3,3,14,0,-6
1522257160072098,-13,-12,5,0,0,-5,3,-9
1522257160084130,-27,5,-1,4,-1,-12,7,7
1522257160084130,7,-9,-6,-6,-6,11,-3,1
1522257160101175,-17,-3,2,1,-9,1,1,-7
1522257160101175,-2,-6,1,-2,-10,1,-3,1
1522257160108193,-17,-5,5,-1,6,-4,1,-3
1522257160108193,-3,14,9,-1,6,-2,-3,2
1522257160110200,-11,18,-4,-7,-9,-4,3,12
1522257160110200,23,-30,-24,-5,2,6,-12,-19
1522257160131255,-5,28,17,6,11,10,2,9
1522257160131255,70,-14,-6,2,-4,-3,-5,7
1522257160132258,5,14,6,6,-1,-3,2,0
1522257160132258,-32,5,5,0,0,-7,-1,0
1522257160144289,-14,-16,-16,-4,-12,2,-2,-9
1522257160144289,-9,-1,-3,-1,9,11,1,-1
1522257160153314,3,-5,-1,-1,3,-5,3,7
1522257160153314,5,4,1,-6,-2,-1,4,6
1522257160168353,36,-2,-1,-3,5,3,-2,0
1522257160168353,-46,0,13,10,25,-15,6,-6
1522257160170359,113,21,-1,3,-15,-3,3,18
1522257160170359,-56,-5,-3,-5,-3,18,-1,4
1522257160190412,1,-9,-10,-12,0,1,-10,1
1522257160190412,-5,0,-5,-1,-28,-2,-3,-12
1522257160192418,-4,0,5,1,14,-7,5,-1
1522257160192418,41,15,15,8,-2,-8,1,1
1522257160204449,-11,-6,0,1,-8,6,2,-5
1522257160204449,-4,6,-6,1,0,5,2,2
1522257160213473,-22,-12,-8,-1,5,-5,-3,-7
1522257160213473,19,7,0,-5,-1,-2,-1,3
1522257160228513,-22,-9,0,-1,3,-3,-1,-8
1522257160228513,-78,11,9,3,23,5,5,6
1522257160229516,95,7,-11,-1,7,-19,0,25
1522257160229516,-50,-28,-14,-11,-11,11,-8,-18
1522257160250572,5,-3,-2,0,-10,-2,-5,0
1522257160250572,9,-2,3,-3,-5,9,1,-2
1522257160252577,-26,-15,13,5,13,10,-2,-16
1522257160252577,20,12,6,6,8,-3,4,20
1522257160264609,-20,-7,-7,4,9,-18,-1,1
1522257160264609,-27,-1,-11,-4,-11,13,-1,-12
1522257160273633,22,0,-2,0,-6,2,2,5
1522257160273633,67,3,-6,-8,-3,-11,-3,3
1522257160287670,36,4,-4,-8,-22,1,-2,1
1522257160287670,6,-5,0,-4,15,-19,-8,-1
1522257160294689,-37,-3,0,-4,-35,6,-6,-14
1522257160294689,-13,8,4,10,56,6,2,-2
1522257160310732,-73,-7,8,11,11,12,3,-6
1522257160310732,38,10,-1,1,-30,-8,0,13
1522257160312737,-30,-5,-12,-4,-4,-3,-7,-8
1522257160312737,4,-1,-8,-1,-18,-3,-1,-4
1522257160333793,-6,-1,-6,-6,4,1,0,-5
1522257160333793,79,1,4,-2,16,-3,2,1
1522257160334796,-61,-8,10,3,-5,-2,1,-12
1522257160334796,15,3,1,6,-5,-3,3,15
1522257160347831,-21,-18,-9,-5,-1,-7,-9,-10
1522257160347831,-29,-6,-3,-6,-14,-5,-4,-5
1522257160354849,-38,0,2,-5,9,-4,-3,-7
1522257160354849,-31,-10,5,-3,-12,18,1,-17
1522257160370892,102,23,5,0,3,-4,1,15
1522257160370892,-14,-25,-14,-14,-10,1,-8,4
1522257160372897,-15,-11,4,0,30,-9,-1,-9
1522257160372897,-46,-2,5,2,-37,-16,0,-9
1522257160392950,-17,5,4,4,-13,4,0,-1
1522257160392950,26,3,0,8,-14,-6,-1,-7
1522257160394956,40,-3,-14,0,2,3,-3,19
1522257160394956,-20,0,-9,-5,4,-3,-3,-5
1522257160407990,-11,-5,-6,-2,6,3,3,-7
1522257160407990,58,18,8,2,10,4,6,-1
1522257160415009,-56,-14,-10,2,8,13,9,-1
1522257160415009,83,34,-3,-4,-5,-5,2,18
1522257160431051,7,-20,-5,1,-12,-5,0,-2
1522257160431051,0,38,17,1,7,3,1,14
1522257160432054,-8,-5,15,0,-5,4,-5,-1
1522257160432054,49,-1,10,2,8,-7,1,9
1522257160453110,-26,-15,-11,-3,12,-17,-7,-14
1522257160453110,-39,-6,-4,-1,-17,20,5,-5
1522257160455116,41,8,-5,2,8,-2,-8,-7
1522257160455116,-81,-3,-9,1,8,5,-1,-13
1522257160468150,54,7,0,-7,-22,-8,-3,11
1522257160468150,-61,-13,1,-2,-26,0,1,-7
1522257160474166,57,12,-1,-8,0,-1,0,9
1522257160474166,-108,-35,-3,1,10,-13,-5,-23
1522257160491211,61,13,0,11,56,2,4,5
1522257160491211,11,8,-11,-5,-16,-8,-13,7
1522257160492214,31,2,1,-3,-17,20,10,-3
1522257160492214,-20,27,9,7,10,6,9,11
1522257160513270,-13,-11,0,-4,-20,-3,-7,-6
1522257160513270,-2,-5,4,0,17,-18,0,-2
1522257160515276,3,2,1,1,0,-5,-4,4
1522257160515276,-3,-15,-3,0,4,9,-2,-2
1522257160527307,-28,8,1,-2,-12,-1,9,2
1522257160527307,-12,-13,-5,0,6,-11,-3,-9
1522257160534326,12,11,-6,-5,-11,-14,-13,-10
1522257160534326,12,-14,0,-1,-7,-5,-2,-7
1522257160550368,-35,5,3,5,27,5,3,-2
1522257160550368,53,4,1,4,-16,-6,5,2
1522257160552375,-48,3,-5,3,-10,-17,-4,5
1522257160552375,29,7,-6,-10,-22,15,-8,-5
1522257160573430,-1,-8,1,-7,-2,18,4,5
1522257160573430,-34,-2,-1,-6,10,-1,-1,-10
1522257160575435,23,13,5,2,-4,1,2,3
1522257160575435,17,-9,-4,-1,12,10,-4,-5
1522257160587467,-32,0,1,3,-12,9,-5,0
1522257160587467,-32,-15,-10,-1,4,-6,-1,0
1522257160596491,-2,-9,-1,5,16,10,-4,-11
1522257160596491,-2,7,3,3,7,-38,-5,11
1522257160610529,-27,-13,-8,-9,-55,-10,-4,-5
1522257160610529,21,-4,-3,-5,4,-17,0,1
1522257160612534,-39,-13,-2,-9,0,19,6,-2
1522257160612534,46,12,3,-2,4,9,3,3
1522257160633590,-15,-2,0,5,33,-10,0,2
1522257160633590,-3,-4,-1,7,-19,24,2,3
1522257160634593,8,1,-4,0,-8,4,4,2
1522257160634593,-2,-8,-2,0,-15,-3,2,-5
1522257160646624,13,8,3,-3,-3,-13,-3,9
1522257160646624,9,-11,0,-4,16,-13,-8,0
1522257160655648,-28,-4,7,0,-1,8,-4,-5
1522257160655648,64,12,5,10,3,0,0,-2
1522257160670688,-37,-4,1,7,-3,4,4,-7
1522257160670688,14,-10,-9,-4,13,7,0,13
1522257160672694,-8,-6,-10,-13,-7,-25,-9,-3
1522257160672694,-17,-16,-1,-12,-30,-9,-9,-7
1522257160693750,26,15,5,2,37,16,6,0
1522257160693750,1,10,3,9,4,5,2,-10
1522257160694752,-47,-11,-11,1,-8,-9,-3,-8
1522257160694752,34,-1,-3,0,1,-3,-1,7
1522257160706784,21,1,2,-2,-5,-12,-2,-1
1522257160706784,-105,-13,2,-2,2,23,6,-5
1522257160715808,70,10,-1,1,18,-1,2,7
1522257160715808,-10,1,2,1,-5,3,3,-2
1522257160730848,3,2,3,-3,6,2,-3,-2
1522257160730848,11,2,0,-1,8,0,-1,0
1522257160732854,-17,-3,3,1,-29,-21,1,-1
1522257160732854,19,1,3,2,4,9,-2,5
1522257160752907,-49,4,-6,-4,-11,8,-7,-1
1522257160752907,34,4,-2,-2,-6,-11,-8,2
1522257160754912,8,-9,0,-1,17,9,-1,4
1522257160754912,-13,-3,-6,1,2,-8,1,0
1522257160766944,27,18,5,1,-5,-1,4,-6
1522257160766944,-43,-3,-6,3,9,7,3,-6
1522257160775968,-12,0,-1,2,-2,-1,-1,2
1522257160775968,-6,-6,-6,-8,-5,-12,2,23
1522257160791008,-40,-8,3,-3,-10,1,-7,-20
1522257160791008,32,0,4,-1,5,-5,-4,-14
1522257160792011,-20,-10,4,4,0,0,-5,-7
1522257160792011,9,3,0,3,-1,2,2,-2
1522257160813067,27,4,-2,0,2,3,4,8
1522257160813067,17,-5,-4,-4,-15,-4,-7,-5
1522257160815072,-21,2,-1,-3,8,1,6,2
1522257160815072,-19,0,-1,-1,3,2,4,-6
1522257160827104,-13,-3,-5,-1,5,-21,-2,0
1522257160827104,38,19,1,6,-2,27,6,11
1522257160836128,49,2,-10,-6,-3,-2,-6,-2
1522257160836128,20,11,5,-3,0,-1,-4,2
1522257160851168,-10,-20,-8,-4,-4,-3,-2,7
1522257160851168,-19,11,7,2,1,-7,-3,3
1522257160852171,-40,4,-1,4,2,6,5,-8
1522257160852171,-12,-40,-10,3,-3,-1,0,-2
1522257160873226,-9,15,2,2,1,3,1,1
1522257160873226,62,10,-7,-6,-2,-6,-1,7
1522257160875232,-58,-26,5,0,-15,-6,-5,-13
1522257160875232,52,29,3,1,12,-2,1,7
1522257160887264,2,-26,3,-2,-6,7,-9,-11
1522257160887264,-12,-2,10,-4,2,-2,1,-1
1522257160896288,2,28,6,-3,4,0,2,8
1522257160896288,-56,-16,-1,-5,-17,-15,1,1
1522257160911328,63,8,-11,2,30,18,-2,2
1522257160911328,-28,2,-1,6,-22,-10,-5,-1
1522257160912331,-10,0,-5,-2,5,-5,1,0
1522257160912331,-4,4,3,10,-24,9,6,-4
1522257160933386,-26,8,3,3,25,1,9,3
1522257160933386,31,-7,-7,-4,10,-6,0,1
1522257160935392,-16,-11,-1,1,9,-6,-5,2
1522257160935392,-8,0,0,-5,-5,4,-2,-11
1522257160947424,-20,-7,-1,1,6,0,-2,-4
1522257160947424,33,1,-1,0,-20,4,4,1
1522257160956448,-5,-9,0,-2,-6,-5,1,5
1522257160956448,-14,3,-5,-10,9,-5,-5,-10
1522257160970485,22,10,-1,-3,-25,0,3,16
1522257160970485,5,0,5,3,9,-4,1,3
1522257160972490,7,6,-2,-4,-8,8,-4,4
1522257160972490,-69,-15,-3,-1,14,-5,-4,-18
1522257160993547,78,5,2,5,-13,-20,1,13
1522257160993547,3,10,-1,1,-5,17,-5,-1
1522257160994549,-57,1,5,6,1,-1,0,-12
1522257160994549,5,-6,-1,-3,12,0,-5,5
1522257161006581,-34,-7,-4,-4,-14,0,4,-3
1522257161006581,-24,-15,-10,-7,4,-13,1,-5
1522257161015605,47,2,-1,-2,5,4,7,-7
1522257161015605,4,-5,3,3,5,1,2,4
1522257161030645,75,-5,-7,-9,-25,-11,-11,3
1522257161030645,-16,0,2,0,4,-4,-6,2
1522257161032651,-5,6,-1,2,0,0,-4,-1
1522257161032651,-17,7,-1,8,-15,2,-6,-6
1522257161053706,-12,-6,-3,3,34,14,1,-1
1522257161053706,-13,-6,1,-2,31,-13,-1,2
1522257161054709,7,-1,-2,-10,-52,20,2,-7
1522257161054709,45,13,1,1,14,-1,5,16
1522257161066741,-29,-5,-5,-2,-33,-7,-5,-8
1522257161066741,13,-6,-2,1,17,-4,-1,1
1522257161075765,-14,-8,-5,-2,23,-16,-1,-4
1522257161075765,15,9,1,-3,-56,-10,0,-1
1522257161089802,-23,4,1,9,29,27,-3,-13
1522257161089802,-6,3,2,4,7,-2,0,4
1522257161096821,22,-8,-3,-3,9,8,-4,0
1522257161096821,7,-7,-6,-1,7,2,1,-7
1522257161112863,-22,-4,-4,-3,-10,-14,2,-3
1522257161112863,27,-3,2,0,-9,2,-3,-16
1522257161114869,-21,-9,2,4,4,-3,-1,10
1522257161114869,42,1,0,-8,9,-3,-3,6
1522257161126901,-22,-1,-3,-7,-12,-9,2,4
1522257161126901,-40,-1,0,4,-11,-10,3,-11
1522257161135925,9,-1,0,-1,6,12,7,1
1522257161135925,42,4,-3,1,8,-11,1,4
1522257161150965,10,-6,5,-5,-3,6,-3,-10
1522257161150965,-22,-2,3,-8,-6,16,-3,-1
1522257161152970,37,10,-5,-3,4,-6,-3,9
1522257161152970,-44,-2,3,2,-4,-8,-2,-6
1522257161173023,18,5,-5,2,-13,11,-2,1
1522257161173023,-5,-9,-7,-3,-43,-9,-4,4
1522257161175029,18,6,4,7,22,1,2,-1
1522257161175029,-24,-15,-4,-4,2,4,-2,-2
1522257161187061,16,5,2,6,12,-3,3,1
1522257161187061,-47,7,0,0,-15,1,3,-7
1522257161196085,-26,1,3,1,-7,-6,0,-4
1522257161196085,45,6,-1,-4,7,3,-5,7
1522257161210122,-12,-10,-3,-6,-3,-5,-5,-4
1522257161210122,-16,-4,3,2,12,11,4,2
1522257161217141,11,6,1,7,0,-13,6,4
1522257161217141,-41,-11,-1,-1,1,0,-1,-8
1522257161233183,0,5,-3,-5,0,10,2,-4
1522257161233183,35,3,-4,-1,12,0,-4,7
1522257161235189,-30,-15,-2,-3,-9,0,-3,-2
1522257161235189,-18,-6,5,3,1,5,0,-2
1522257161247221,23,12,5,0,13,-7,-2,3
1522257161247221,-4,1,-5,-1,-22,-22,-6,-2
1522257161256245,38,-5,-2,-2,8,19,-9,-1
1522257161256245,-33,6,-2,2,0,7,3,-1
1522257161270282,-21,-10,-2,-3,1,-9,-1,1
1522257161270282,18,7,-4,0,5,-1,7,9
1522257161277300,-28,-19,0,0,-11,-12,-6,-9
1522257161277300,29,6,-4,-5,-3,-19,-1,-2
1522257161293343,-18,3,5,-2,2,20,4,-7
1522257161293343,42,-8,-4,-5,3,-6,0,7
1522257161295349,-3,9,3,0,-5,-1,5,8
1522257161295349,-18,-2,-5,-2,17,7,1,-3
1522257161316405,1,1,0,7,15,-9,-1,-7
1522257161316405,-56,2,0,-3,-22,6,-2,-5
1522257161317407,53,1,-3,0,-2,-5,-9,4
1522257161317407,-5,-10,-4,4,5,6,-1,2
1522257161330442,-5,3,0,-4,-19,-10,-3,2
1522257161330442,-21,5,4,3,20,9,6,-4
1522257161337460,57,18,-4,-2,1,-5,1,-1
1522257161337460,-35,-3,4,2,2,1,-6,-10
1522257161353503,13,2,-1,-2,-10,-6,0,5
1522257161353503,-20,-8,-3,0,-1,2,-2,-8
1522257161355509,-7,-3,-8,-1,-1,0,4,-4
1522257161355509,12,-8,-1,0,3,1,-4,1
1522257161375562,-12,-7,0,1,-10,-13,-1,-6
1522257161375562,25,6,4,2,11,13,-1,4
1522257161377567,-22,-7,-1,-5,-12,-21,-1,-2
1522257161377567,13,-13,-5,-6,6,24,-2,-5
1522257161390601,-15,-4,-1,3,-8,2,3,1
1522257161390601,-18,-6,-1,-1,-17,-11,-1,6
1522257161396618,26,13,1,-1,3,-1,0,2
1522257161396618,-5,12,3,2,-16,-7,-1,-1
1522257161413663,-23,-6,2,3,0,-6,-2,-5
1522257161413663,88,-2,-8,-6,27,-1,-3,0
1522257161414666,-25,-10,-3,-5,-28,-1,-3,-5
1522257161414666,2,-3,2,-7,4,-1,1,1
1522257161435721,-5,-2,-2,1,-1,5,-5,0
1522257161435721,-10,-5,-1,6,28,-3,-1,-8
1522257161437727,-19,-2,-3,-1,-12,-4,-1,0
1522257161437727,7,9,-5,0,-10,-4,-1,-2
1522257161449759,-18,-2,0,0,-5,-2,5,7
1522257161449759,-19,-5,0,-1,4,2,-5,-6
1522257161456777,44,14,4,4,-3,-12,-2,0
1522257161456777,-47,-22,-2,0,4,19,-1,-6
1522257161473823,14,18,2,-6,-10,-3,0,-2
1522257161473823,26,-4,1,-3,-8,0,1,3
1522257161474826,-108,-50,-8,-1,17,9,1,-11
1522257161474826,124,37,-6,-2,-6,-18,-4,25
1522257161495881,-30,-20,-5,-1,-7,-5,-7,-11
1522257161495881,-8,19,6,0,-2,2,-3,-4
1522257161497887,-5,-1,3,4,5,-1,-5,-7
1522257161497887,-22,-3,0,-3,1,-2,-3,-5
1522257161509919,40,-1,1,-1,3,2,0,4
1522257161509919,-4,3,-2,-1,-14,5,6,-2
1522257161516937,36,16,-2,1,4,7,9,8
1522257161516937,4,6,-5,1,11,-3,5,17
1522257161532980,-12,3,-2,-2,3,-4,-6,0
1522257161532980,-14,-9,5,1,-36,-14,-4,-14
1522257161534985,36,5,3,1,7,7,-4,7
1522257161534985,-3,-10,1,2,4,4,1,-9
1522257161556041,0,2,-1,-4,2,-1,2,5
1522257161556041,-19,-5,-6,-5,2,-3,1,1
1522257161557044,-10,5,4,0,1,1,2,-12
1522257161557044,57,14,5,2,-3,-4,4,10
1522257161569076,-64,-15,-14,-8,-18,0,-8,8
1522257161569076,-2,5,-1,-5,-5,3,-1,-1
1522257161578100,-7,-6,-6,-7,18,3,-3,-3
1522257161578100,-15,-7,5,1,-10,-11,4,-11
1522257161593141,17,10,9,4,4,-6,7,-3
1522257161593141,0,-2,0,2,5,2,-2,1
1522257161595145,-16,-1,0,2,29,-1,1,0
1522257161595145,-26,-6,0,4,-6,3,-4,-5
1522257161616201,7,-1,-4,0,-12,1,0,-5
1522257161616201,5,4,-9,-5,-8,-14,-8,2
1522257161617204,46,16,-3,-5,-9,9,-5,16
1522257161617204,4,-4,-4,-5,-17,0,-5,-9
1522257161629236,1,-5,0,3,34,9,0,-5
1522257161629236,-16,-14,1,3,12,1,0,-5
1522257161638260,-18,-3,2,0,-9,-1,4,4
1522257161638260,20,9,2,3,4,-2,3,2
1522257161653300,-13,-7,0,0,-13,-2,3,1
1522257161653300,10,17,10,5,-34,-14,4,0
1522257161655305,20,0,-3,6,74,25,5,8
1522257161655305,-28,-31,-13,-15,-9,-9,-9,0
1522257161676361,17,-6,-5,-2,-14,-5,-9,-17
1522257161676361,17,2,-2,-3,-3,-6,-9,2
1522257161677364,0,9,4,2,-36,-11,-2,-3
1522257161677364,-22,13,6,1,11,4,6,-8
1522257161689395,15,13,2,0,8,2,0,1
1522257161689395,10,-8,-3,-1,5,-1,0,4
1522257161698420,-26,-12,-6,-1,-10,5,-1,-8
1522257161698420,11,-5,2,3,9,0,3,-6
1522257161713459,43,3,-4,-5,-3,-2,3,8
1522257161713459,-83,-11,0,-2,34,3,3,-1
1522257161715465,55,-5,-5,-8,-47,-11,-4,1
1522257161715465,-47,-4,-1,-10,-68,-13,-6,-8
1522257161735518,3,11,12,5,11,-3,-4,0
1522257161735518,-15,-14,-8,-2,20,1,-4,-4
1522257161737524,6,3,2,5,15,0,-6,-10
1522257161737524,-36,-8,-7,6,-4,3,-1,1
1522257161749555,-7,1,1,2,-5,-1,-1,-1
1522257161749555,28,3,4,2,7,5,9,9
1522257161758580,-16,-7,-1,-4,-11,-10,0,-5
1522257161758580,29,13,-1,1,16,5,0,-1
1522257161773619,-20,3,-3,-4,8,7,-2,4
1522257161773619,-16,-2,-6,-2,11,12,-4,2
1522257161774622,-14,6,1,-2,-30,-19,-5,5
1522257161774622,56,-5,1,1,6,10,-5,2
1522257161795678,-28,-3,-2,-1,0,14,1,-4
1522257161795678,42,6,10,1,-14,1,5,-8
1522257161797684,43,11,1,-2,6,-14,7,0
1522257161797684,-31,-2,-2,-3,20,8,3,10
1522257161809715,0,-12,-5,-8,6,-24,-6,-6
1522257161809715,22,3,-3,-6,-67,9,-8,-3
1522257161818747,17,1,-2,4,36,3,1,7
1522257161818747,9,1,-5,3,4,-9,1,-4
1522257161833779,20,10,2,3,8,4,2,-3
1522257161833779,-46,-8,-1,-4,-7,-7,0,-2
1522257161834782,-22,-6,-1,-3,-12,-3,-5,-3
1522257161834782,1,2,3,3,26,3,-3,-3
1522257161855838,-7,-3,2,3,-8,10,0,-1
1522257161855838,10,0,-5,-2,-47,-20,0,-4
1522257161857843,-48,-6,0,-3,5,-13,-3,-4
1522257161857843,0,-4,-4,-2,5,26,-5,-4
1522257161869875,30,10,6,2,15,-3,5,0
1522257161869875,-14,-3,-4,2,19,4,4,-5
1522257161878900,10,4,-1,3,-7,2,6,-2
1522257161878900,-4,7,-2,-3,-3,-21,-2,8
1522257161892937,58,0,-1,-8,-4,15,-4,6
1522257161892937,18,-4,1,-4,2,2,-5,-1
1522257161894942,-91,-20,-1,-4,-4,7,-4,-10
1522257161894942,-21,6,6,4,5,-13,1,-3
1522257161915998,-13,6,-9,-5,-35,-14,0,6
1522257161915998,21,4,-6,-4,18,2,0,-3
1522257161922014,0,0,-2,2,-9,3,0,-2
1522257161922014,1,-1,0,6,-2,-1,-1,-3
1522257161930035,-4,1,-1,2,4,-9,6,4
1522257161930035,-9,3,4,-2,4,7,-8,3
1522257161938056,-18,-3,-1,-1,4,7,2,-5
1522257161938056,45,2,-4,-1,-4,1,4,8
1522257161953096,-5,-10,-5,-4,7,-3,-7,-3
1522257161953096,-10,-6,3,4,4,-3,0,2
1522257161955102,13,-5,2,-2,-10,8,-1,1
1522257161955102,-7,2,0,-3,-8,-3,0,-3
1522257161976158,-58,3,-1,2,4,3,0,-3
1522257161976158,24,2,-4,4,33,10,1,7
1522257161977161,33,4,-3,-4,-25,-32,-10,-6
1522257161977161,-9,-3,0,1,-2,18,6,4
1522257161989192,52,13,6,4,7,-3,2,-3
1522257161989192,-84,-25,-5,-4,2,-5,-2,-11
1522257161998217,9,-7,-5,-2,6,8,0,-2
1522257161998217,0,5,-6,-7,-6,-15,1,1
1522257162013256,4,1,1,0,7,-1,-2,-2
1522257162013256,49,19,-1,3,-13,2,3,3
1522257162015262,-14,-16,-1,-1,7,1,-4,1
1522257162015262,-21,1,4,-1,-1,0,-4,-8
1522257162036317,-13,-7,-1,-3,-9,3,-1,-3
1522257162036317,8,-9,-7,-5,-6,-7,-8,-6
1522257162037321,0,6,1,-3,0,5,3,5
1522257162037321,-19,-17,-5,-5,1,-4,-2,-8
1522257162049353,-11,-6,-3,-3,-3,-2,-3,-4
1522257162049353,17,0,-5,-1,4,-1,3,3
1522257162058376,38,17,-1,3,-3,2,2,5
1522257162058376,-8,-5,-4,5,14,5,4,2
1522257162073416,-16,4,-1,2,-10,-15,-2,1
1522257162073416,44,-2,2,-2,-6,5,0,2
1522257162075422,-29,-1,-4,1,13,1,-2,1
1522257162075422,-1,8,3,-2,-29,-2,-6,-1
1522257162095475,-6,-14,-1,-2,-2,6,-3,-1
1522257162095475,2,10,8,-1,-4,-9,-1,-1
1522257162097481,-8,3,2,-3,29,5,2,-1
1522257162097481,-24,1,1,-1,-8,-5,-3,-6
1522257162109512,10,-5,-3,-2,-8,-6,-2,0
1522257162109512,2,6,3,1,13,7,3,-2
1522257162118536,24,-9,-6,-2,-6,-2,4,18
1522257162118536,-18,-7,-9,-6,-1,-5,-6,-5
1522257162132573,34,4,4,-2,-3,-1,0,-2
1522257162132573,-27,2,2,5,5,-1,-1,-6
1522257162139592,-1,7,-5,6,-2,2,1,-6
1522257162139592,35,-3,-4,-2,-1,-3,2,1
1522257162155635,-23,0,1,1,-2,2,3,3
1522257162155635,1,-4,5,-1,6,0,1,8
1522257162157640,13,27,10,4,-7,1,0,2
1522257162157640,33,-9,3,-1,4,-1,-6,3
1522257162169672,-77,-8,-6,-1,-6,-8,-4,-11
1522257162169672,7,-6,-5,0,-2,5,-4,-3
1522257162178698,12,-3,-1,3,-4,6,-1,2
1522257162178698,-10,-5,-3,-1,-10,-5,0,-8
1522257162192733,12,0,1,-4,5,5,0,-2
1522257162192733,-1,-4,-7,-3,-3,-9,-1,4
1522257162199752,-43,-4,1,-4,1,-11,2,-5
1522257162199752,35,23,7,6,10,18,6,8
1522257162215795,39,-26,-11,-1,-29,-6,0,9
1522257162215795,0,10,2,-5,0,-7,-4,-8
1522257162217800,18,-21,0,1,-6,1,2,2
1522257162217800,-25,9,-3,-4,-5,-17,-5,-6
1522257162238856,-4,7,4,4,8,4,3,-2
1522257162238856,17,3,0,-5,3,1,0,2
1522257162239859,-5,-1,-5,-4,3,-1,-7,-3
1522257162239859,-6,-2,-3,0,6,0,-1,-3
1522257162252893,16,13,2,6,16,2,-2,3
1522257162252893,-20,-4,-3,4,-15,3,-2,-1
1522257162259912,23,-1,5,-2,-14,-17,-2,-2
1522257162259912,-29,-9,0,-1,9,25,1,9
1522257162275954,67,2,-9,-11,-7,-5,-7,0
1522257162275954,-28,-4,4,1,12,-4,2,-4
1522257162277960,-12,-1,-2,1,-2,1,6,3
1522257162277960,-2,5,5,-1,-7,-6,0,-4
1522257162298013,-10,7,3,-2,-3,0,-1,0
1522257162298013,6,1,2,0,0,5,3,1
1522257162300019,3,2,-5,-1,-7,-8,0,-10
1522257162300019,70,13,-3,1,34,17,6,0
1522257162313053,-37,18,0,2,-18,0,2,19
1522257162313053,29,-22,-11,-7,-13,-12,-9,-10
1522257162319069,32,13,4,-3,-15,-2,-1,-1
1522257162319069,-79,-16,-1,-3,7,-5,-7,-2
1522257162336114,-23,-5,7,4,10,2,4,-8
1522257162336114,-10,3,-1,1,6,8,8,2
1522257162337117,1,-7,-6,0,7,-1,-2,1
1522257162337117,10,1,0,4,-5,-7,-8,-3
1522257162358173,7,0,2,-1,16,9,-2,5
1522257162358173,-21,2,3,3,6,-4,-4,0
1522257162360179,-16,-11,-8,-6,-12,0,-11,-9
1522257162360179,1,0,-5,-3,-16,-8,0,-2
1522257162372210,-35,-4,-1,-1,-3,-4,2,-2
1522257162372210,25,2,-2,-2,9,0,1,2
1522257162379230,-9,0,1,-1,13,6,2,-2
1522257162379230,-44,-18,1,-1,-3,2,0,-11
1522257162396274,108,25,6,3,-7,-29,-3,12
1522257162396274,-95,-15,-9,0,11,30,8,-20
1522257162397277,10,10,1,-5,-3,23,3,-2
1522257162397277,32,-7,-6,-7,-10,-4,-3,-2
1522257162418333,-31,-2,4,1,1,2,1,-3
1522257162418333,-7,12,2,-3,-10,-15,-2,5
1522257162420339,0,-6,-1,-2,-3,-6,0,-7
1522257162420339,-13,-3,-1,-1,-4,-3,6,7
1522257162432370,-23,-5,-2,0,23,7,8,-1
1522257162432370,28,5,-4,-2,-24,-8,-1,11
1522257162439389,-8,-4,-4,-3,1,0,-3,-1
1522257162439389,16,8,2,3,13,-9,-3,-5
1522257162455431,-12,-3,-3,-3,-21,-7,-4,-3
1522257162455431,-46,-15,-5,-2,0,3,0,1
1522257162457437,81,-1,-2,-1,2,7,-3,-3
1522257162457437,-62,0,-3,-2,-3,2,1,8
1522257162478493,43,-2,0,-3,6,12,-6,-4
1522257162478493,-13,8,12,1,-13,-12,-2,-4
1522257162480498,-36,3,5,4,1,-2,0,5
1522257162480498,-9,-6,-6,-3,-14,-10,-4,-4
1522257162492530,40,1,-7,-2,-6,-4,-3,-9
1522257162492530,29,1,-3,0,4,-7,-3,1
1522257162500551,-12,-16,0,1,0,-7,-2,5
1522257162500551,2,2,-2,-2,3,7,3,3
1522257162515591,-8,1,1,-7,-11,-4,-3,-5
1522257162515591,24,-10,0,-3,-8,13,-4,-6
1522257162517597,-52,1,6,5,18,3,1,-10
1522257162517597,42,14,-3,-3,-15,-22,0,13
1522257162538654,-26,-7,-1,-3,8,3,-2,-5
1522257162538654,18,4,0,5,8,2,3,2
1522257162539656,-64,-4,-10,-5,-17,8,4,-8
1522257162539656,27,3,0,0,6,-1,2,1
1522257162551687,4,-6,3,0,-16,1,5,0
1522257162551687,-48,-9,-3,2,6,-18,-3,-3
1522257162560711,-35,-6,-1,-1,3,0,-1,-3
1522257162560711,46,6,1,1,8,5,-3,1
1522257162575751,3,-8,-2,-1,-5,-6,-10,-7
1522257162575751,9,4,5,1,2,2,-1,4
1522257162577757,8,1,1,4,15,3,-1,3
1522257162577757,-12,6,0,-3,-7,2,-6,-10
1522257162598812,-41,-4,-5,-5,-39,-7,0,-2
1522257162598812,12,3,-6,-2,2,3,-1,-1
1522257162599815,7,-10,-5,-5,-24,-17,-8,-1
1522257162599815,15,1,0,-1,13,3,-5,3
1522257162611847,-4,2,3,5,22,18,2,-2
1522257162611847,21,12,-2,-4,-21,-5,0,1
1522257162620871,-16,-7,-2,-4,-4,-15,4,-5
1522257162620871,28,-3,-6,-2,-2,7,-1,2
1522257162635911,-17,-5,1,2,17,6,2,0
1522257162635911,19,-6,-2,1,1,-4,5,-1
1522257162637917,-14,12,-1,0,2,-11,-1,7
1522257162637917,-27,3,5,5,2,9,2,1
1522257162657970,-25,-12,-11,-4,-12,4,-6,-9
1522257162657970,-12,-6,-3,0,14,-10,2,2
1522257162659976,25,12,6,0,-9,16,6,7
1522257162659976,-17,-12,5,-3,-7,-11,-8,-14
1522257162672007,12,8,2,-2,7,5,-2,1
1522257162672007,0,0,-1,4,3,0,-4,2
1522257162681031,25,-2,1,2,1,-3,-4,-2
1522257162681031,-1,-7,-5,0,-8,-17,0,3
1522257162696071,-4,-1,3,-3,17,15,3,1
1522257162696071,-5,-2,3,-10,-23,-2,2,3
1522257162697074,15,5,-1,-4,1,2,2,5
1522257162697074,-27,2,-4,-2,-5,-2,4,1
1522257162718129,3,-7,-4,5,20,-11,4,3
1522257162718129,-2,2,-4,1,-14,8,-5,-3
1522257162720135,-15,-8,-9,-3,6,5,-11,-9
1522257162720135,5,-11,4,4,3,9,0,-7
1522257162732167,47,11,0,-2,-4,-8,-3,-7
1522257162732167,-54,-6,0,-1,-14,3,-4,-6
1522257162741191,48,4,2,1,-1,-2,3,12
1522257162741191,-57,2,1,0,4,0,0,-11
1522257162756231,-10,2,3,1,0,-4,-4,0
1522257162756231,22,3,-4,1,16,-6,-1,2
1522257162757233,-3,-1,-2,-1,-2,-13,-8,-4
1522257162757233,4,3,-3,-5,2,16,3,1
1522257162778289,1,6,1,4,-4,-4,1,-5
1522257162778289,1,1,-2,3,25,11,3,-3
1522257162780296,-33,-1,-3,-1,-27,-6,-2,7
1522257162780296,67,8,8,2,-1,1,-2,6
1522257162792327,-20,-24,-5,-7,-13,-6,-1,-10
1522257162792327,9,1,1,1,2,-2,-3,-1
1522257162801351,19,3,-1,2,18,4,-4,2
1522257162801351,-42,-6,-1,-4,-12,-3,0,-15
1522257162815388,-17,7,1,-1,-12,-11,4,2
1522257162815388,18,-12,-10,-2,6,6,-3,-1
1522257162817394,-11,-4,-2,1,0,4,-1,-5
1522257162817394,16,-2,-2,-3,-11,-6,-1,12
1522257162838450,22,8,4,6,8,3,-3,-10
1522257162838450,-12,-9,0,-5,0,-6,-2,2
1522257162840455,0,-6,-2,-3,0,0,1,-1
1522257162840455,31,6,3,0,5,0,0,9
1522257162852486,-32,-7,-6,0,16,-14,-8,-13
1522257162852486,21,17,6,2,-12,11,3,5
1522257162861511,27,-2,-6,-1,-3,4,2,1
1522257162861511,-41,-10,-3,4,0,0,3,-8
1522257162875548,45,16,7,0,-4,3,7,17
1522257162875548,14,-4,-2,-4,-1,-6,-4,5
1522257162877554,-76,-12,-2,-3,2,-1,0,-11
1522257162877554,18,-9,-3,-1,-2,-5,1,-4
1522257162898610,10,-10,-5,-1,7,7,0,5
1522257162898610,-39,-4,-1,2,-2,-2,-1,-7
1522257162899613,76,31,3,-3,-19,-3,2,13
1522257162899613,28,-13,-3,-1,-1,-5,-7,1
1522257162911644,-59,4,2,0,-4,2,2,3
1522257162911644,7,2,4,2,14,-3,3,3
1522257162920668,-28,1,4,-1,23,6,0,-7
1522257162920668,38,4,-6,-7,-24,-7,-3,-1
1522257162935708,26,0,-3,-3,-18,-4,-1,2
1522257162935708,21,3,-4,2,-3,6,1,2
1522257162937713,-63,-5,-3,7,1,2,-1,-2
1522257162937713,14,5,-2,5,11,-6,-1,1
1522257162958769,-10,-14,-4,-2,-6,9,-4,-3
1522257162958769,-4,-1,-2,-4,-6,-10,0,-8
1522257162959772,7,6,8,2,4,4,1,-7
1522257162959772,4,5,2,-4,5,2,0,5
1522257162971804,-58,-14,-8,-8,-11,-7,-2,-7
1522257162971804,40,-5,-1,-4,-3,-2,-6,6
1522257162980828,47,1,-2,-2,2,1,-1,1
1522257162980828,-65,3,3,4,0,-4,1,-2
1522257162995868,8,4,-3,0,-1,-5,2,-5
1522257162995868,11,3,-1,3,3,12,2,9
1522257162997873,-10,-17,-3,1,-7,-2,1,1
1522257162997873,39,5,-1,-7,2,0,0,6
1522257163018931,-46,-4,-3,-2,-3,1,-3,-13
1522257163018931,-34,3,5,-1,1,-3,2,-6
1522257163019932,97,5,-7,-6,-11,-11,-7,7
1522257163019932,-106,-8,-2,1,2,5,0,-16
1522257163031964,46,-5,-1,-2,6,6,2,10
1522257163031964,-70,-10,0,-1,1,-10,1,-12
1522257163040988,38,5,1,-1,24,-12,-4,3
1522257163040988,22,-12,-5,-1,-19,27,0,-4
1522257163056028,-54,12,5,7,13,-3,2,11
1522257163056028,-5,-6,-10,-5,-31,2,-6,-3
1522257163057030,2,-2,4,-3,-17,-11,0,-2
1522257163057030,3,8,-3,2,0,-6,-4,-2
1522257163078086,18,0,-2,4,5,4,-1,1
1522257163078086,11,10,3,1,19,-8,4,5
1522257163080092,-32,-10,0,-3,-11,6,4,2
1522257163080092,4,-5,2,-3,10,-3,-3,-5
1522257163092123,-9,-9,0,-4,-19,-1,-5,-4
1522257163092123,52,13,-1,-2,6,-3,-4,6
1522257163101148,-31,-9,-13,1,-9,-1,-2,-2
1522257163101148,13,0,-1,-2,-6,-6,3,-10
1522257163115185,38,10,5,2,5,-2,2,2
1522257163115185,-28,-17,-5,3,1,2,-5,-3
1522257163122203,-24,0,-2,-1,2,-7,-7,0
1522257163122203,79,13,2,1,1,-3,-1,14
1522257163138246,-67,-9,-3,1,3,4,-2,-7
1522257163138246,29,2,0,-5,-5,-10,-4,-5
1522257163140252,-1,-4,4,0,3,22,5,1
1522257163140252,-5,8,2,-3,1,-9,-5,4
1522257163161307,7,7,-4,-2,-9,-4,-3,0
1522257163161307,0,5,4,2,6,1,0,-4
1522257163162310,-29,-4,0,1,-24,-12,0,-6
1522257163162310,-11,-7,4,1,-1,4,0,-2
1522257163175344,30,-6,0,-2,3,-11,-8,-4
1522257163175344,-13,-6,0,0,-26,-11,0,-2
1522257163182364,-11,-1,-9,17,100,46,0,1
1522257163182364,0,-2,-6,-3,-16,-37,-9,-5
1522257163198406,-12,2,0,-4,16,31,7,-4
1522257163198406,-13,-4,1,-6,-16,-14,-6,-3
1522257163200412,30,-3,3,-10,-21,-5,-1,-5
1522257163200412,-28,6,2,1,4,13,7,3
1522257163221467,10,-10,-8,0,13,-8,-7,5
1522257163221467,21,12,2,2,4,-3,1,2
1522257163222470,-37,5,1,-3,-18,-13,-1,-5
1522257163222470,20,-2,1,-5,11,11,0,3
1522257163235504,-2,-5,3,-3,-16,-9,1,-5
1522257163235504,4,-2,-5,1,7,7,0,6
1522257163242523,-6,-7,-2,0,-18,-16,-8,-12
1522257163242523,-33,9,-2,2,6,-1,-4,-8
1522257163258568,18,3,-2,-3,12,5,-3,7
1522257163258568,-1,-5,0,-4,-27,-1,-2,-4
1522257163259569,3,-3,-1,-4,0,3,-2,-1
1522257163259569,-28,-5,2,0,-10,-9,4,6
1522257163280625,18,1,-1,4,-4,5,3,4
1522257163280625,10,2,-2,2,19,10,2,5
1522257163282630,-16,-6,-2,-6,-13,-14,0,-4
1522257163282630,20,-4,-1,-5,3,0,-1,1
1522257163295664,-75,-10,-1,1,-5,-6,-3,-6
1522257163295664,14,-1,-4,1,6,-4,0,-8
1522257163301680,5,-8,-1,-6,-8,1,-5,2
1522257163301680,57,1,-7,3,1,6,1,8
1522257163318726,30,2,12,3,-4,-3,3,5
1522257163318726,-73,5,1,-2,3,12,-5,-21
1522257163319729,-34,-16,-3,-1,3,-2,-2,-6
1522257163319729,-20,-9,-3,-3,3,2,-1,-5
1522257163340784,50,7,-2,-2,-8,-13,1,5
1522257163340784,29,-1,-3,-5,2,-1,-2,3
1522257163342790,-17,11,2,-4,1,-23,-2,5
1522257163342790,4,0,-2,-7,-36,25,-1,3
1522257163354822,15,6,0,14,83,13,4,2
1522257163354822,-7,-1,-2,3,-29,3,5,-1
1522257163361840,-12,0,-5,2,-5,-5,1,-3
1522257163361840,-25,0,3,-2,-12,-14,-1,-10
1522257163377883,-18,-1,-1,-5,-14,-2,-1,3
1522257163377883,11,-6,-3,2,26,6,-1,-2
1522257163379889,13,6,1,-2,-1,1,5,7
1522257163379889,-16,4,0,2,1,3,-3,-9
1522257163400944,23,-6,-5,-1,-16,5,-4,-5
1522257163400944,2,3,0,-3,4,-7,-1,10
1522257163402950,41,6,0,-2,-19,1,-3,5
1522257163402950,14,11,2,-3,20,-2,-1,4
1522257163414982,-8,-24,-9,-11,-14,-10,-9,-4
1522257163414982,-14,-17,0,-2,-1,-2,-3,-9
1522257163422000,-11,4,-1,6,15,13,5,3
1522257163422000,12,1,2,5,8,-7,-6,4
1522257163438043,14,2,1,0,-14,1,5,-8
1522257163438043,5,10,7,-4,1,2,-1,8
1522257163440048,15,-3,5,-3,-2,4,-1,-1
1522257163440048,-26,-10,-2,1,0,-13,-1,-7
1522257163461104,-21,-8,-3,-6,-17,1,-1,4
1522257163461104,-4,-21,-1,0,16,2,-2,-9
1522257163462107,10,-32,-6,-1,15,3,-4,-3
1522257163462107,-9,-18,-5,-1,-43,-9,6,0
1522257163474139,26,35,23,2,-5,-3,-2,-5
1522257163474139,-8,-12,1,-2,-1,4,2,5
1522257163483163,9,-4,0,-5,7,-2,-1,2
1522257163483163,-12,-21,-9,-3,14,4,-8,-9
1522257163498202,-2,43,-7,4,1,2,7,18
1522257163498202,34,20,3,3,-9,-2,-1,6
1522257163500209,19,41,-1,-1,-8,-3,1,1
1522257163500209,-13,-19,2,1,11,-11,1,-9
1522257163521264,-28,-14,-2,-3,-2,1,-3,3
1522257163521264,-2,1,-2,3,14,3,-8,3
1522257163522267,7,3,-8,-2,-11,1,0,-2
1522257163522267,20,28,14,-3,-4,2,4,14
1522257163534298,-24,-10,2,0,2,4,0,-8
1522257163534298,-29,9,-18,-13,-12,-14,-4,-1
1522257163543323,42,-12,-1,-1,-3,6,7,1
1522257163543323,-24,13,-3,2,10,-7,-1,-4
1522257163558362,18,-19,-4,0,-4,-2,-4,-1
1522257163558362,0,-8,-5,1,1,-1,0,3
1522257163560368,-9,5,-3,1,-6,-6,-5,-3
1522257163560368,-19,-9,-7,0,9,16,-3,-6
1522257163580421,12,-2,-8,-6,-10,-4,2,11
1522257163580421,-13,-25,4,10,2,5,3,-9
1522257163582427,54,25,4,-3,2,-12,-5,8
1522257163582427,3,-7,4,-5,6,0,-1,-7
1522257163594458,1,-2,0,-10,-32,-10,-6,-2
1522257163594458,-40,-14,5,-2,-9,-20,6,0
1522257163603483,-71,-11,0,3,2,26,0,-5
1522257163603483,19,-7,-4,2,9,3,0,4
1522257163618523,5,-1,0,2,3,-1,-3,-5
1522257163618523,15,0,-5,2,-5,1,-2,2
1522257163620528,10,6,8,-1,2,-2,3,-1
1522257163620528,-6,11,2,3,2,0,-1,-12
1522257163640581,-4,4,-2,2,11,-5,7,-1
1522257163640581,-32,5,1,1,23,10,0,-19
1522257163642587,46,15,1,2,-8,2,1,15
1522257163642587,-12,-8,-11,-13,-15,-4,-9,1
1522257163654619,36,5,1,-3,-8,-6,-1,5
1522257163654619,-19,9,-7,-2,0,0,-4,-3
1522257163663643,-51,-6,0,5,4,-1,-1,-8
1522257163663643,-3,2,3,7,1,-6,4,6
1522257163678682,19,-2,-3,-1,-1,13,0,-5
1522257163678682,15,8,2,-3,4,-9,1,7
1522257163679685,-15,-6,0,-5,5,15,-1,-6
1522257163679685,13,12,6,0,-1,2,6,7
1522257163700741,-22,-8,-3,-5,1,-1,5,-8
1522257163700741,40,18,11,5,10,-10,11,12
1522257163702746,-38,2,-1,-2,14,12,-1,8
1522257163702746,-17,-2,-14,-9,-30,-4,-15,-6
1522257163714778,-14,-9,-4,-2,-8,-3,-4,-1
1522257163714778,-14,-6,-3,-1,-11,-2,-4,-2
1522257163723802,3,-12,1,1,5,-14,-2,-7
1522257163723802,-9,2,6,8,23,9,6,6
1522257163738844,3,6,0,3,2,1,2,3
1522257163738844,34,-2,1,4,-7,-15,-1,-9
1522257163739845,-14,-12,-12,-5,-4,14,2,14
1522257163739845,-34,-12,-2,-7,-1,-3,-5,-11
1522257163760901,49,4,-5,-4,-10,-25,-10,7
1522257163760901,25,13,0,0,-7,13,-5,-2
1522257163762906,1,3,6,3,-1,-8,-4,-8
1522257163762906,3,4,6,-1,1,-5,3,3
1522257163774938,-40,-5,3,3,11,5,4,-1
1522257163774938,15,9,0,-3,1,5,3,8
1522257163783962,9,-4,-5,1,-11,-7,1,-8
1522257163783962,4,1,-6,-3,4,7,2,2
1522257163797999,-1,1,4,-2,7,-1,-4,-10
1522257163797999,-26,-6,0,-2,17,12,-5,6
1522257163800005,-36,4,-5,-7,-21,-9,-4,5
1522257163800005,-10,-11,-5,-3,-24,-15,-3,-12
1522257163821061,-10,2,0,1,0,3,0,-4
1522257163821061,-25,-16,-7,-7,-9,1,0,-8
1522257163822064,-2,-5,-2,5,14,-9,-3,-7
1522257163822064,3,6,0,6,9,5,-1,5
1522257163834096,-1,0,-2,0,-10,3,-1,-3
1522257163834096,-8,-3,4,0,2,8,9,0
1522257163843119,5,0,5,1,1,-7,2,-5
1522257163843119,58,12,-1,10,1,-25,1,-3
1522257163858159,-46,-4,-4,-5,17,10,-4,8
1522257163858159,-13,-1,-8,-9,-18,-2,-10,-4
1522257163860166,59,-7,-5,-20,-45,0,-8,6
1522257163860166,-48,-7,0,-6,-13,-11,1,-10
1522257163881220,0,6,-1,6,-19,-10,-1,-8
1522257163881220,-4,1,-6,8,22,-4,0,-3
1522257163882224,-6,4,-1,7,23,-9,-1,-7
1522257163882224,16,1,1,-2,0,9,2,3
1522257163894255,-5,-1,0,-1,18,6,5,-1
1522257163894255,21,8,5,4,-16,-2,5,1
1522257163903279,-15,-4,0,-6,-23,-7,0,0
1522257163903279,13,3,8,-1,-1,-14,-4,7
1522257163917316,-2,-6,2,-5,11,23,0,1
1522257163917316,42,13,1,-3,-3,3,-2,11
1522257163924335,-28,-14,-3,0,-2,4,0,-7
1522257163924335,5,0,0,-1,1,-10,-5,-8
1522257163941380,15,-10,-4,3,1,7,-4,1
1522257163941380,-16,-6,2,1,5,1,2,-9
1522257163942383,21,-1,1,5,6,1,2,0
1522257163942383,7,10,-7,-2,6,10,3,5
1522257163954415,-1,-1,-2,0,-9,-10,1,4
1522257163954415,5,-14,-11,-4,-9,-1,-1,-1
1522257163963439,-6,2,-4,-1,2,-5,-3,-4
1522257163963439,-9,-21,6,2,7,7,4,10
1522257163978480,13,-4,-1,3,9,-1,1,-3
1522257163978480,-2,-2,-4,-5,-17,-13,-1,1
1522257163980485,-16,0,-1,1,20,-5,3,-4
1522257163980485,-2,6,-1,0,-23,10,-3,2
1522257164000538,-10,2,5,-2,-9,-8,0,-12
1522257164000538,67,24,7,6,-9,0,5,32
1522257164002543,-41,-25,-8,-10,2,13,-13,-28
1522257164002543,-7,-1,1,-5,6,6,1,-5
1522257164014575,21,-3,-5,-4,4,-3,2,6
1522257164014575,11,8,1,1,6,-5,1,-4
1522257164023599,15,16,2,6,2,-1,-1,2
1522257164023599,6,-6,5,13,11,9,-1,2
1522257164037636,-55,-15,-7,-8,-17,-16,-6,-9
1522257164037636,20,1,-4,-3,6,1,1,-2
1522257164044655,9,4,0,-2,-2,-7,2,4
1522257164044655,-10,-9,-4,-3,4,-3,0,-4
1522257164060698,8,4,2,1,4,2,-2,3
1522257164060698,-35,-12,3,-2,1,3,-2,-6
1522257164062703,-10,-6,3,-5,-11,0,3,-9
1522257164062703,8,6,1,-2,0,3,0,0
1522257164083759,0,0,-4,0,13,-2,-2,2
1522257164083759,17,-15,-15,-5,-21,-5,-14,1
1522257164084761,8,10,1,4,20,-1,4,4
1522257164084761,-24,-9,-6,-7,-14,1,6,-2
1522257164097796,29,19,10,0,-7,4,3,1
1522257164097796,-40,-10,1,-5,7,-1,-5,-4
1522257164104815,17,-9,2,1,-7,-6,-4,-1
1522257164104815,-4,-5,-5,-2,19,3,-4,-2
1522257164120857,1,4,-4,1,-16,0,6,4
1522257164120857,-35,-11,-12,-4,-10,-10,-2,-12
1522257164122863,68,18,3,0,-21,-6,1,16
1522257164122863,-20,-1,-5,1,7,3,-1,-3
1522257164142916,28,-9,-2,-1,2,0,-3,8
1522257164142916,16,-16,5,2,1,1,-5,-6
1522257164144922,-26,7,6,3,0,6,-4,4
1522257164144922,22,-39,5,5,8,8,-2,-1
1522257164157956,-39,-24,-5,-3,-9,-10,-4,-13
1522257164157956,56,3,3,-1,6,-14,0,7
1522257164164975,-52,-17,-8,-7,10,19,-1,2
1522257164164975,27,15,-1,-2,0,-5,-1,1
1522257164181017,2,13,0,-2,1,-8,2,8
1522257164181017,-25,-19,3,1,5,20,-1,-16
1522257164182020,43,3,-2,0,-4,-5,0,11
1522257164182020,-76,29,12,-3,-8,-5,-4,-2
1522257164203076,9,9,0,1,18,-3,-6,-2
1522257164203076,-38,-1,1,2,-15,-1,3,-4
1522257164205081,-12,-7,-1,-1,-4,-5,5,-8
1522257164205081,32,10,-1,2,4,2,6,5
1522257164218116,-9,4,-5,-9,-8,-6,-7,-5
1522257164218116,-45,-2,-3,1,8,2,-7,-11
1522257164224132,9,1,-8,-1,1,-2,-2,-3
1522257164224132,-26,-7,-3,0,-8,-1,2,-7
1522257164241177,23,0,-3,5,2,5,1,-5
1522257164241177,7,4,1,-1,7,-3,5,15
1522257164242180,-21,3,3,-3,-4,-3,3,-1
1522257164242180,30,0,-9,-4,-13,-5,-6,-3
1522257164263236,-1,-4,-3,2,-2,2,1,-2
1522257164263236,24,6,-1,1,3,2,2,9
1522257164265241,-30,-8,-2,-3,2,-6,-4,-4
1522257164265241,16,16,4,-1,14,-13,-5,0
1522257164277273,-26,-20,6,1,-2,26,0,1
1522257164277273,-42,6,0,-4,-7,-2,2,-2
1522257164284292,44,-18,-5,0,2,3,-2,0
1522257164284292,81,21,-3,-4,-7,-5,-4,4
1522257164301337,-22,-3,-1,-1,-2,-23,0,-10
1522257164301337,-26,8,4,3,14,22,3,-7
1522257164302340,-7,-8,0,2,1,-1,-3,-8
1522257164302340,-26,-19,3,2,-23,-4,1,7
1522257164323396,8,3,3,3,10,-8,7,9
1522257164323396,1,-2,-4,5,-41,-4,-2,-11
1522257164325401,12,19,-1,2,21,0,2,-4
1522257164325401,-9,-11,-12,-4,15,-3,-5,2
1522257164337433,-4,-2,-3,-8,-13,5,-7,-3
1522257164337433,-34,-5,-1,-5,14,-12,-4,2
1522257164344451,56,13,2,4,-10,19,3,6
1522257164344451,3,-4,7,-5,-3,5,1,-7
1522257164360494,11,-1,3,0,-8,-3,1,1
1522257164360494,79,10,-2,2,10,1,0,7
1522257164362500,-81,-5,-5,-5,-9,-16,-1,0
1522257164362500,-9,-2,0,-3,8,0,5,7
1522257164383556,71,7,-6,-5,-6,-3,-5,10
1522257164383556,-48,-23,-5,-3,0,-10,-5,-19
1522257164384558,45,14,5,5,2,-3,3,9
1522257164384558,-29,-8,-3,-1,-8,5,-2,-10
1522257164396590,16,-7,-1,-1,1,-1,-1,-4
1522257164396590,17,10,8,2,7,5,6,10
1522257164405614,-1,2,3,-4,-1,-2,-4,5
1522257164405614,-36,-8,-2,-3,-4,-1,-5,-2
1522257164420654,-23,1,-3,2,-2,-1,-5,-10
1522257164420654,30,-4,-5,3,20,-2,3,11
1522257164422660,-42,-6,-7,3,-15,-3,-5,-14
1522257164422660,31,1,4,1,-4,6,1,-5
1522257164443715,0,6,-1,-4,-29,-5,-1,4
1522257164443715,-19,-6,1,-1,0,1,0,-5
1522257164444718,-1,1,3,-3,-26,-4,3,-2
1522257164444718,-29,-11,-3,4,47,-2,2,0
1522257164456750,42,-13,-3,3,8,0,2,4
1522257164456750,-24,-5,-3,-6,-3,-2,-3,-7
1522257164465774,-22,15,-2,-4,9,-6,-6,-5
1522257164465774,44,14,-2,2,-9,-1,3,13
1522257164480814,-54,-7,0,2,11,14,4,-5
1522257164480814,40,20,0,1,3,-3,-4,2
1522257164482820,-42,-18,-4,2,-2,-1,-4,-3
1522257164482820,-21,0,4,0,-10,3,1,-9
1522257164503875,-2,-4,6,-3,2,-7,1,-4
1522257164503875,15,3,-2,-7,5,-1,-2,3
1522257164504878,11,-1,0,-1,-21,2,0,4
1522257164504878,14,2,-11,0,-1,-22,-5,-5
1522257164516910,-8,-1,-6,6,35,32,-1,0
1522257164516910,-37,-6,-2,-1,-24,0,-3,-2
1522257164525934,10,-6,-2,-7,1,-1,-4,-2
1522257164525934,34,7,1,-2,-5,2,1,14
1522257164540974,23,-1,1,-1,-8,-12,-5,-2
1522257164540974,-61,-14,-5,-2,0,-7,-4,-6
1522257164542979,25,5,2,-2,7,0,1,0
1522257164542979,-24,-8,3,-2,-4,-2,0,-8
1522257164563032,-4,-8,1,-3,-36,-7,0,-4
1522257164563032,68,25,-6,4,24,0,4,12
1522257164565038,-91,-14,-3,2,7,3,-3,-7
1522257164565038,-9,-5,3,1,2,12,-3,-2
1522257164577070,-9,6,1,-4,-4,-2,-5,-3
1522257164577070,21,-8,-1,-4,-15,-6,0,-4
1522257164586095,7,8,0,4,13,-3,-3,-6
1522257164586095,32,1,-2,1,0,10,2,3
1522257164601134,-30,1,-4,-6,-1,-20,-4,-1
1522257164601134,-35,-16,-2,-1,-9,17,-1,-18
1522257164602137,55,15,3,1,17,2,5,8
1522257164602137,-39,-11,-8,-7,-12,0,1,-6
1522257164623192,10,1,-5,3,2,-17,-4,6
1522257164623192,-28,-1,-2,0,-3,0,-6,5
1522257164625198,-39,1,14,4,4,4,3,-3
1522257164625198,14,-4,2,-2,0,-3,-6,3
1522257164637230,-4,8,3,-7,-3,5,1,-6
1522257164637230,12,0,1,-2,1,-2,-2,-5
1522257164646254,5,-1,0,5,-11,4,-1,3
1522257164646254,-16,1,-1,5,-10,-3,2,-11
1522257164661293,16,2,-1,6,13,4,6,2
1522257164661293,2,0,1,-3,2,-1,3,13
1522257164662296,17,-4,-5,-1,-1,-1,5,-1
1522257164662296,42,-5,-1,-1,-7,-7,2,1
1522257164683352,-48,-1,-6,-5,-2,3,4,2
1522257164683352,15,-3,2,-6,-7,-4,1,2
1522257164685358,-10,1,-2,-4,12,-6,-4,-2
1522257164685358,-44,-2,-4,1,1,4,-7,-1
1522257164697390,18,8,-1,0,-26,-2,1,-10
1522257164697390,19,5,-4,0,3,2,7,16
1522257164706414,-45,-14,0,-3,-8,-7,-9,-9
1522257164706414,12,32,8,5,6,3,-2,6
1522257164721453,-60,-43,-4,-1,10,-14,-14,-17
1522257164721453,46,17,3,-5,0,16,7,5
1522257164722457,29,-3,-8,-13,-4,-1,2,1
1522257164722457,27,3,0,-4,2,6,8,2
1522257164743512,3,13,2,6,27,4,1,6
1522257164743512,-31,2,2,10,-9,-7,-6,-10
1522257164745518,43,-1,-9,-7,-26,-10,-3,3
1522257164745518,-10,-5,-5,-5,0,-3,-3,-4
1522257164757549,20,2,-2,-1,-6,-11,5,7
1522257164757549,-20,-18,-3,-5,20,22,-1,1
1522257164765571,-4,10,8,0,8,-1,-5,-3
1522257164765571,-17,-7,1,5,-9,-8,-7,-6
1522257164780611,-12,-2,-9,2,3,3,-3,2
1522257164780611,37,10,-6,-3,-6,-11,-4,9
1522257164782616,13,-2,1,0,-1,6,3,-5
1522257164782616,-8,-14,0,-6,0,0,9,0
1522257164803672,-27,9,8,1,6,6,5,-3
1522257164803672,12,7,2,-2,-10,-13,-2,-11
1522257164804675,7,-3,1,0,-2,1,1,1
1522257164804675,-9,-20,-8,-4,9,-3,-5,-3
1522257164816707,21,13,11,1,4,6,-4,3
1522257164816707,-3,-15,0,0,-10,-22,-3,-9
1522257164825731,2,5,1,6,9,25,2,-1
1522257164825731,74,13,3,3,4,9,1,34
1522257164840771,-53,-12,-9,-12,-16,-5,-2,-9
1522257164840771,-14,9,6,0,-10,-10,-1,-9
1522257164842776,10,5,-3,3,15,-6,4,-13
1522257164842776,-6,1,-4,3,5,3,4,-7
1522257164863832,50,11,-5,1,-36,-1,1,11
1522257164863832,-13,1,-2,-1,7,6,-3,-1
1522257164864835,-39,-15,-3,-1,-26,-14,-8,2
1522257164864835,-15,-4,-3,-12,-2,-7,-14,-12
1522257164876867,28,2,5,3,11,-2,2,-1
1522257164876867,-38,-4,3,6,7,4,5,-10
1522257164885891,33,18,-4,0,2,-6,0,13
1522257164885891,-47,-12,-7,-3,-1,-3,2,-4
1522257164900931,2,-6,-3,-1,4,2,-2,-7
1522257164900931,-9,-6,-9,-1,-4,-2,3,3
1522257164902936,13,-26,-6,-3,1,0,2,-1
1522257164902936,20,4,5,-1,-11,-5,-4,-2
1522257164922989,-46,-7,3,3,-2,-7,0,3
1522257164922989,41,11,0,4,11,20,-3,9
1522257164924995,5,20,1,2,-2,0,-5,1
1522257164924995,-4,3,-1,-1,-4,1,0,-5
1522257164937026,19,-3,-2,-2,6,5,2,2
1522257164937026,-27,-7,-2,-3,-6,-8,-5,-5
1522257164946051,-21,-12,0,-1,2,-8,0,-10
1522257164946051,55,33,6,0,2,-3,1,-2
1522257164961090,-46,-14,-3,-2,7,-1,0,0
1522257164961090,-40,-14,-4,-5,-6,-2,-1,-6
1522257164962093,97,15,0,-6,-35,-3,-1,16
1522257164962093,-21,-8,2,2,28,4,-4,-4
1522257164983149,1,2,3,6,7,-2,-1,-4
1522257164983149,6,2,-4,3,0,-4,-2,-6
1522257164985154,-39,-11,5,0,-19,-11,2,-2
1522257164985154,-19,-6,-3,-2,-5,14,1,1
1522257164997186,-20,-5,-5,-1,23,10,2,-2
1522257164997186,25,1,2,1,-29,2,3,3
1522257165006210,-38,4,-8,2,12,-4,-2,-14
1522257165006210,75,9,-5,-4,-22,-14,-6,15
1522257165020248,-8,-2,0,-1,7,1,-5,2
1522257165020248,17,3,6,-1,14,-1,-3,-3
1522257165027266,-51,-10,10,0,15,4,0,-8
1522257165027266,6,-2,-7,-4,-11,-14,0,-1
1522257165043309,41,7,-5,1,7,15,-2,9
1522257165043309,-57,3,-6,-9,-16,-7,-1,0
1522257165045314,20,1,0,0,18,-1,1,11
1522257165045314,-17,-5,4,0,6,0,-1,-5
1522257165066370,6,-3,1,0,-9,6,5,-1
1522257165066370,22,-6,-3,5,-5,-7,0,0
1522257165067373,-24,-10,-5,3,6,1,0,-8
1522257165067373,-7,-1,-4,2,-3,-6,2,-6
1522257165080408,43,7,1,-4,-8,-2,-3,-4
1522257165080408,-38,-5,0,-3,26,3,-3,-5
1522257165087426,-31,-2,1,-6,-22,0,-3,-2
1522257165087426,-24,-4,3,0,1,11,5,-1
1522257165103469,7,-4,-2,-9,-23,-16,-4,-1
1522257165103469,26,2,-1,-8,-17,-6,-2,5
1522257165105474,21,11,0,3,45,-15,1,3
1522257165105474,-58,-19,-9,-1,3,13,2,-1
1522257165125527,-43,-4,1,2,-3,-9,-3,-4
1522257165125527,51,19,5,0,5,20,5,0
1522257165127533,-4,-3,-10,-9,-17,4,-4,0
1522257165127533,-55,-4,-1,2,5,-2,-10,-6
1522257165140567,9,7,3,9,19,1,2,0
1522257165140567,13,-3,5,4,-4,-12,-2,3
1522257165146584,-4,-4,-6,-4,-19,-4,-1,-2
1522257165146584,39,2,-1,0,-31,-15,1,-1
1522257165163629,-17,-18,-6,-5,-19,-18,-6,-2
1522257165163629,-39,-7,-5,-2,4,26,-3,-7
1522257165164632,30,4,5,1,12,12,4,9
1522257165164632,-21,-5,1,-2,9,-4,2,-1
1522257165185687,29,2,1,1,18,0,0,-2
1522257165185687,-20,1,-1,3,-11,-12,2,4
1522257165187693,28,-1,-7,-3,3,-17,0,5
1522257165187693,1,-10,-1,-5,0,35,-7,0
1522257165199725,-7,9,-2,-2,-2,-7,1,1
1522257165199725,18,1,-4,-1,14,14,4,2
1522257165208749,3,10,7,7,-7,-10,5,-2
1522257165208749,-29,9,2,1,-5,-21,-3,-4
1522257165223789,-11,-13,-2,0,-6,14,0,-8
1522257165223789,5,-6,-3,-1,-1,-10,-4,-2
1522257165224791,-26,1,2,-1,-3,5,-6,-12
1522257165224791,17,7,-5,-6,-5,-6,0,9
1522257165245847,-14,-6,-1,-2,6,19,-1,2
1522257165245847,22,9,-3,-2,-1,-9,-2,10
1522257165247853,31,-2,2,2,-5,-3,-4,0
1522257165247853,-31,-4,-2,3,15,4,-3,-16
1522257165259885,-8,7,2,-2,-55,-13,-1,1
1522257165259885,-17,-10,1,5,43,23,1,-4
1522257165266903,2,2,1,1,21,3,1,0
1522257165266903,24,-1,2,-1,-33,-11,1,0
1522257165282946,-9,-11,-7,-8,5,-1,5,2
1522257165282946,43,-2,-2,-5,-38,-34,3,-6
1522257165284951,3,-2,0,0,3,22,-2,10
1522257165284951,77,10,2,4,11,-1,-2,8
1522257165306007,-62,3,3,8,8,5,-4,-5
1522257165306007,27,6,-3,-1,-1,-3,-5,3
1522257165308013,-29,-8,0,-5,2,2,2,-7
1522257165308013,-3,-4,2,-4,-10,-9,0,-2
1522257165320044,2,-2,-2,0,8,0,2,-3
1522257165320044,-29,-10,-8,-2,12,8,-2,-13
1522257165328066,2,7,-2,2,-8,1,6,3
1522257165328066,-25,-8,-6,-5,8,-3,-2,-2
1522257165343106,47,0,2,-1,6,-4,-8,-2
1522257165343106,-7,-3,0,0,-5,-1,1,-5
1522257165345111,-16,-6,-7,-2,-11,4,-2,9
1522257165345111,18,-4,2,2,2,-4,-2,-3
1522257165366167,22,5,-6,1,15,11,-9,-14
1522257165366167,-62,-6,0,-7,-41,-24,-8,0
1522257165367170,41,-1,5,3,45,23,3,-6
1522257165367170,-15,5,-5,-1,6,-4,2,-2
1522257165379202,-43,-11,0,-2,-6,0,-1,-2
1522257165379202,-1,0,8,-1,9,-7,-2,4
1522257165388226,-2,-4,5,-1,23,-3,-2,-9
1522257165388226,3,2,-2,-4,-59,-3,3,-2
1522257165403265,31,-2,-4,-8,-10,-8,0,-4
1522257165403265,1,6,-3,-4,-23,-6,-1,4
1522257165405271,1,-4,-5,-3,-8,-9,-3,4
1522257165405271,3,3,-4,5,29,8,0,0
1522257165426327,17,-4,-4,3,-2,8,4,2
1522257165426327,43,10,-5,-1,13,-1,-1,6
1522257165427330,-73,-9,1,2,-3,9,-5,-6
1522257165427330,28,3,3,0,0,1,-3,5
1522257165439361,-23,-5,2,-4,-13,-25,-7,-2
1522257165439361,30,9,0,2,16,6,2,0
1522257165448385,-37,-6,1,-2,-9,12,4,-10
1522257165448385,17,1,-6,-5,-22,-2,-3,-5
1522257165463426,-18,9,-2,-5,29,-1,2,10
1522257165463426,34,4,-3,-11,-2,1,-6,-7
1522257165465431,-37,-21,-3,-4,-17,-14,-7,-14
1522257165465431,21,-1,2,1,16,3,5,3
1522257165485484,52,25,2,3,-5,2,1,5
1522257165485484,-72,-24,2,3,-10,-6,1,0
1522257165487490,71,14,-3,0,-9,1,-3,10
1522257165487490,-24,0,2,1,13,5,2,-1
1522257165499523,37,-9,-3,1,-2,-2,4,5
1522257165499523,-64,6,-2,6,25,8,9,-4
1522257165508546,71,12,2,-3,-30,-15,1,15
1522257165508546,15,-10,-2,2,3,-21,-3,-1
1522257165530604,-23,-2,0,-7,17,29,-2,-6
1522257165530604,-60,-14,1,-1,0,6,-3,-6
1522257165532610,33,3,-3,-6,-24,-7,-5,-7
1522257165532610,1,4,4,4,22,12,4,12
1522257165545644,-15,-13,-6,-6,-7,-16,-4,-2
1522257165545644,-3,-5,-4,1,6,-2,-5,-8
1522257165547649,13,0,-4,-4,-1,-23,1,1
1522257165547649,5,6,1,2,-2,3,6,2
1522257165559681,-2,9,-1,5,-1,2,3,0
1522257165559681,26,3,4,3,-2,9,7,2
1522257165568706,-4,-18,-3,2,18,-4,-2,-5
1522257165568706,20,21,-1,-4,-25,-5,-5,9
1522257165583745,-32,-11,-2,0,-5,-4,-4,-3
1522257165583745,-28,-3,1,2,12,-7,-7,-10
1522257165584748,21,-2,-2,-8,-42,-6,-6,0
1522257165584748,-65,-17,6,2,12,2,5,-6
1522257165605804,105,34,0,-3,9,5,-5,10
1522257165605804,-29,-10,-5,-7,-3,-19,-5,-4
1522257165607809,-27,3,1,1,11,20,4,-5
1522257165607809,-13,-15,-4,0,-5,0,7,-2
1522257165619841,-28,4,0,3,15,-4,-1,-7
1522257165619841,53,4,-3,-3,-55,-5,7,10
1522257165628865,-9,10,-1,6,64,5,5,12
1522257165628865,-50,-18,-4,-3,6,-5,-7,-16
1522257165643905,2,6,4,0,-10,3,5,6
1522257165643905,35,2,-2,-4,2,5,-7,6
1522257165644908,-60,4,5,2,5,-12,-5,-5
1522257165644908,26,-2,1,-1,-5,-4,-4,2
1522257165665963,-97,-7,-2,2,11,31,2,-10
1522257165665963,58,-9,-1,0,1,7,6,10
1522257165667969,53,6,0,-3,-16,-4,4,1
1522257165667969,-30,-4,3,-1,4,-13,-3,1
1522257165680001,17,-10,2,2,-14,-5,-1,-5
1522257165680001,-20,5,1,0,11,14,3,0
1522257165689025,-37,-11,-10,-8,-12,0,-5,-4
1522257165689025,29,2,-2,4,0,8,0,-3
1522257165703062,-4,5,-3,-1,5,-16,-6,12
1522257165703062,4,6,-1,0,-13,-3,-2,-7
1522257165705068,57,8,0,0,2,-6,0,2
1522257165705068,-36,-1,-8,-7,-34,-7,1,-4
1522257165726124,31,-5,0,1,53,-9,5,0
1522257165726124,-19,4,2,-3,-1,-10,-6,-8
1522257165727127,35,1,5,-2,-2,14,2,1
1522257165727127,-52,-21,-2,-1,2,-3,-6,-7
1522257165739159,38,-3,-7,-2,-22,-11,-8,9
1522257165739159,-30,-11,-9,1,17,10,-1,-8
1522257165748182,20,3,-1,2,-2,-7,-1,-2
1522257165748182,8,10,3,2,7,7,3,0
1522257165763222,-1,-8,3,1,-15,-16,1,-4
1522257165763222,-3,15,4,6,25,-5,-1,6
1522257165769238,-74,-16,-11,2,-25,17,5,-3
1522257165769238,-35,-1,-4,-3,15,0,-1,-9
1522257165786283,8,-3,-2,-3,-22,-3,4,8
1522257165786283,32,-14,-1,-5,5,-15,-3,5
1522257165787286,22,5,-2,-7,1,8,-2,-5
1522257165787286,16,3,3,-4,-4,0,-3,15
1522257165799318,-40,-5,3,-7,-43,11,-1,-17
1522257165799318,10,3,0,13,57,21,5,2
1522257165808342,6,11,2,5,7,-9,0,12
1522257165808342,-24,-6,-3,4,3,-12,-13,-10
1522257165823382,1,-7,-5,0,24,-5,-1,-4
1522257165823382,15,1,-3,-9,-60,-10,2,0
1522257165825388,-11,-8,-3,-6,-17,4,2,-6
1522257165825388,-1,3,3,1,4,8,4,-5
1522257165846443,21,18,7,7,2,7,5,8
1522257165846443,37,1,-10,-11,-17,-7,-11,11
1522257165847446,-55,-22,-1,-1,2,-15,-9,-12
1522257165847446,41,11,-1,-6,4,-7,4,6
1522257165859478,-42,-2,1,0,0,15,1,-11
1522257165859478,-11,6,0,1,3,3,4,-1
1522257165868502,-8,6,0,0,-3,-3,5,8
1522257165868502,33,-9,-10,0,6,-3,-3,-1
1522257165883542,33,1,-2,1,-13,-12,0,5
1522257165883542,-23,2,2,-1,-7,7,1,7
1522257165884545,-14,4,4,0,-4,0,-6,-3
1522257165884545,-20,3,5,4,7,1,-1,-1
1522257165905601,43,-1,-4,-5,-14,1,-4,3
1522257165905601,-35,-13,3,-4,28,2,-4,-10
1522257165907607,-16,-5,2,3,-13,0,1,-3
1522257165907607,-21,-8,-6,-1,2,-2,2,-5
1522257165919638,18,0,-6,-6,-3,-6,-6,-2
1522257165919638,-25,-3,-4,-5,-22,-9,-2,-1
1522257165928662,27,8,2,3,6,1,-3,0
1522257165928662,-13,-8,1,4,0,1,0,6
1522257165942699,-17,-1,-6,-5,-5,-1,-4,-6
1522257165942699,16,-2,-2,-4,4,-7,-4,-8
1522257165949718,-33,-3,-4,-3,10,9,3,-2
1522257165949718,9,0,1,-4,-18,-5,-3,-4
1522257165965760,-41,-3,4,5,12,11,8,-4
1522257165965760,70,20,3,3,-8,-18,-1,3
1522257165967766,19,-3,-3,-6,1,3,0,3
1522257165967766,-50,-2,-4,-1,4,-3,-5,-5
1522257165979798,35,-3,-4,2,4,-12,-9,1
1522257165979798,33,9,1,2,0,4,-2,-3
1522257165988822,-32,-18,1,2,-4,-9,1,-3
1522257165988822,10,-3,-3,0,0,6,2,-2
1522257166002859,-5,3,0,-2,-3,0,1,-5
1522257166002859,11,-6,-2,0,-10,5,2,7
1522257166009878,19,5,-4,-2,9,-6,-2,1
1522257166009878,16,-2,-1,-2,3,5,1,-5
1522257166025921,-12,-6,0,0,26,4,-3,-1
1522257166025921,-21,8,-1,-2,-26,1,4,0
1522257166027926,17,-5,-8,-7,-7,-11,-10,-10
1522257166027926,17,4,4,0,2,4,1,3
1522257166047979,-47,4,5,0,-11,-3,1,-9
1522257166047979,0,-12,-4,-5,-2,6,2,1
1522257166049985,-4,8,2,1,-11,-26,2,5
1522257166049985,23,11,5,2,5,25,0,1
1522257166063019,12,-9,-2,-1,9,0,1,0
1522257166063019,12,12,0,5,18,1,-1,-6
1522257166070038,3,2,3,0,-3,4,-1,3
1522257166070038,5,-1,-2,-2,-6,-13,-2,1
1522257166086080,-19,0,2,2,-6,-7,-1,7
1522257166086080,2,-2,-3,-4,-2,4,-8,-4
1522257166088087,-1,-5,0,0,4,6,2,2
1522257166088087,-1,-3,-4,-1,4,2,0,-6
1522257166108139,12,7,-2,1,-7,0,5,7
1522257166108139,25,-1,-4,-3,16,-8,-1,-7
1522257166110144,-3,1,3,2,-8,6,0,-4
1522257166110144,7,-12,1,-2,-7,-9,-2,-2
1522257166123179,-5,-11,-5,-4,-6,-2,2,3
1522257166123179,-4,2,1,0,6,-1,2,3
1522257166129195,-10,3,-2,2,12,3,1,1
1522257166129195,38,16,-1,2,-3,-3,2,-1
1522257166146240,-29,-14,-5,0,-12,-27,-3,-3
1522257166146240,-7,11,3,2,28,36,-2,4
1522257166147243,-19,-24,-6,-4,-11,1,-6,-7
1522257166147243,-9,14,7,-7,-18,-2,-1,2
1522257166168299,8,-19,0,-4,1,4,-4,0
1522257166168299,-48,-9,4,1,-8,-15,-1,-3
1522257166170304,2,2,-2,2,10,3,2,2
1522257166170304,-15,-8,-5,-3,7,0,1,-5
1522257166182336,12,-2,4,4,0,-4,6,3
1522257166182336,32,6,-6,-7,-8,-5,-5,-3
1522257166189355,-45,-7,-2,4,29,4,-1,-6
1522257166189355,30,1,-10,-5,-14,2,-2,8
1522257166206400,-8,-10,-2,-6,-11,2,-1,-7
1522257166206400,-16,4,5,2,-16,-7,0,-5
1522257166207403,12,10,2,0,-3,-5,-3,-4
1522257166207403,-12,-5,0,4,10,-2,-2,-5
1522257166228459,11,10,-1,2,1,4,-1,-2
1522257166228459,-23,-18,0,4,-1,1,3,-1
1522257166230464,47,23,-4,-3,-2,0,-2,7
1522257166230464,-49,-29,-4,-6,19,-4,-13,-18
1522257166250518,67,11,-2,1,-23,-7,1,23
1522257166250518,7,-10,-13,-7,13,2,-2,-4
1522257166252522,18,-3,2,0,-23,-2,4,-4
1522257166252522,-4,7,1,2,3,1,3,8
1522257166265557,-41,1,-1,-2,9,3,-7,-18
1522257166265557,-31,3,2,1,-4,-6,3,-4
1522257166267563,-1,4,3,5,-1,-9,6,4
1522257166267563,42,10,0,1,0,18,6,10
1522257166288618,-7,-6,-9,-5,-1,-7,-7,-9
1522257166288618,-15,0,5,3,-2,4,1,-2
1522257166289621,9,29,1,1,4,1,-5,1
1522257166289621,-20,-49,-16,-12,-22,-36,-14,-7
1522257166301653,31,14,8,-1,5,23,4,12
1522257166301653,-33,-6,-1,-4,-3,6,0,-4
1522257166310677,-13,-8,1,-4,4,1,1,-4
1522257166310677,-3,16,3,9,6,4,3,-3
1522257166325717,22,-2,-6,-2,-3,-8,1,6
1522257166325717,-22,-9,0,2,-6,-6,-2,-12
1522257166327723,-67,-10,3,0,4,4,-1,-6
1522257166327723,43,17,0,1,-1,-5,2,13
1522257166348778,-9,-3,3,-1,3,11,1,-8
1522257166348778,15,9,-2,-2,-26,-18,-6,-15
1522257166349781,-3,-10,-6,-3,-17,-15,-2,2
1522257166349781,56,5,1,0,5,26,6,13
1522257166361813,-57,1,-7,-3,-1,-4,-1,-2
1522257166361813,22,-4,1,1,7,4,-2,-1
1522257166370837,11,-11,-2,-2,1,-4,-2,-2
1522257166370837,-11,4,4,0,2,-1,5,-2
1522257166385877,24,15,-1,0,9,0,4,8
1522257166385877,16,1,-3,-1,0,-3,-1,9
1522257166387882,11,-13,-3,-1,-2,5,2,-6
1522257166387882,-23,9,-1,-3,-10,-5,-4,4
1522257166407935,-4,0,-2,-1,2,2,-4,-7
1522257166407935,7,-1,1,-7,-49,-8,-1,3
1522257166409941,33,10,4,6,62,6,-2,5
1522257166409941,-45,-12,4,-2,-12,-2,-7,-9
1522257166421973,-10,-4,0,8,40,6,-4,-2
1522257166421973,-10,1,1,1,-18,-15,-2,-1
1522257166430997,7,0,-3,-3,-16,18,-1,0
1522257166430997,30,10,-6,-4,-14,-8,1,4
1522257166446037,12,-9,1,3,0,-6,3,-3
1522257166446037,-23,-1,-5,1,14,-5,1,10
1522257166448042,7,-15,-6,-6,-9,4,-5,-8
1522257166448042,-12,6,1,3,11,-2,-2,-5
1522257166468095,-14,-15,-1,-3,-15,-5,-5,-8
1522257166468095,6,9,5,4,19,11,2,-2
1522257166470101,-17,1,-1,-4,-14,-9,1,0
1522257166470101,-44,1,2,-1,6,3,-1,-7
1522257166482133,51,9,3,-4,15,2,3,9
1522257166482133,-14,-3,2,-2,-36,-6,0,-2
1522257166491157,12,1,0,-2,0,8,-2,6
1522257166491157,-1,-4,-2,-1,-11,1,-7,-9
1522257166506196,-32,-10,-4,1,3,-1,-3,-1
1522257166506196,-17,-8,2,-2,22,-1,-3,-1
1522257166507199,39,10,1,4,-8,-4,2,13
1522257166507199,32,-8,-6,-2,7,10,5,-9
1522257166528255,-13,8,-2,-1,-19,-17,-2,1
1522257166528255,-7,7,-3,3,15,24,0,0
1522257166530261,-17,-8,5,7,-8,-12,7,2
1522257166530261,39,19,6,3,4,7,1,10
1522257166542293,-53,-34,-11,-8,-14,-8,-6,-13
1522257166542293,32,2,0,-6,-2,3,1,3
1522257166551317,-59,-8,0,-1,7,-2,-2,-13
1522257166551317,69,7,-2,-2,-6,-11,0,11
1522257166566356,-4,-4,-3,-3,-12,-3,-1,4
1522257166566356,-3,-1,0,6,22,-4,0,-2
1522257166567359,4,1,-5,0,2,11,-7,-7
1522257166567359,-55,-11,4,1,-39,-10,-2,-6
1522257166588415,27,19,8,-2,-10,6,2,5
1522257166588415,32,6,4,2,16,-4,1,7
1522257166590421,-22,4,-8,-3,-10,-33,-3,3
1522257166590421,41,-4,-5,-3,20,1,2,-1
1522257166602452,-36,-5,1,-1,-9,20,9,-2
1522257166602452,75,18,-3,-2,2,1,2,2
1522257166611477,-2,-3,0,0,1,-6,-2,-4
1522257166611477,-15,-7,2,3,7,-3,1,4
1522257166625514,7,6,-1,-1,-4,-10,-7,-6
1522257166625514,13,-3,0,4,3,9,-2,5
1522257166627519,26,-4,-5,-7,-6,2,-3,6
1522257166627519,-29,-1,-2,1,-2,-11,-1,-6
1522257166648575,-10,12,4,7,6,17,4,-6
1522257166648575,-23,-25,-12,-11,-9,1,-5,1
1522257166649578,-18,9,0,-4,-7,4,-3,2
1522257166649578,-42,-13,-3,2,7,-3,-1,-1
1522257166662613,5,-1,3,2,1,-7,-2,-2
1522257166662613,-20,9,10,3,1,-2,8,1
1522257166670633,-9,1,-1,-5,-2,0,3,-5
1522257166670633,-9,1,0,1,5,8,-1,-3
1522257166685674,24,8,-5,1,24,1,-2,3
1522257166685674,-24,-10,2,1,-21,-1,-2,-7
1522257166687679,61,6,4,4,16,-17,1,8
1522257166687679,-10,-13,2,0,-43,16,1,-2
1522257166708735,-28,-8,-15,-7,0,-11,-7,-5
1522257166708735,-12,-3,-9,-8,-9,-10,-5,-1
1522257166709738,8,-3,0,0,32,16,-2,-3
1522257166709738,3,13,-1,-1,19,-9,-5,5
1522257166721770,36,-6,3,1,0,6,3,1
1522257166721770,-9,-2,4,1,-9,-7,3,-9
1522257166730794,-39,0,-8,1,-11,-2,2,-8
1522257166730794,-11,0,-2,-7,-2,-2,5,6
1522257166744831,-19,1,3,-2,-4,-9,1,-1
1522257166744831,-34,-2,-7,-1,3,5,-1,3
1522257166759871,42,-7,1,0,-13,2,-1,3
1522257166759871,-9,-11,-9,-2,7,-2,-2,-3
1522257166768895,5,-1,-2,-3,-7,-6,-6,-5
1522257166768895,-8,1,6,0,6,-3,-1,-3
1522257166769897,-5,1,3,2,-10,-8,-1,0
1522257166769897,17,4,2,-1,9,2,-7,-2
1522257166781930,23,8,-2,1,-1,21,-3,-3
1522257166781930,-45,-17,-8,-1,-1,0,1,-5
1522257166790954,-3,12,-5,-5,-9,2,-6,-1
1522257166790954,21,4,11,1,0,-11,1,3
1522257166805993,21,-3,0,1,-8,-10,2,1
1522257166805993,-12,-11,-6,-3,25,8,0,-3
1522257166807999,-7,-10,-1,-1,-24,2,1,-3
1522257166807999,8,15,3,-2,3,3,-4,2
1522257166828052,-5,-7,-2,-6,-3,-3,-1,0
1522257166828052,10,-12,-2,-3,3,-7,0,-1
1522257166830059,-26,11,4,4,7,4,5,2
1522257166830059,-33,-18,-6,0,-2,0,2,-2
1522257166842090,18,10,0,2,0,-4,-2,-2
1522257166842090,-2,-7,-3,2,-1,-6,-5,2
1522257166851113,18,-4,-4,-5,-3,-8,-7,-1
1522257166851113,-13,-9,-6,-6,5,15,1,-3
1522257166865150,37,5,-3,-6,-12,-11,-2,6
1522257166865150,-38,-1,1,2,3,9,2,-2
1522257166872169,38,1,4,3,-6,-2,1,-2
1522257166872169,22,-12,-5,4,22,-5,-5,-9
1522257166888212,13,-4,-5,-4,-22,-11,6,12
1522257166888212,-35,-2,-2,-2,-34,-3,-11,-14
1522257166890217,-29,-5,-5,1,6,8,-4,-3
1522257166890217,-7,3,0,-1,11,2,2,-5
1522257166902249,-20,17,6,2,-10,-1,-2,-3
1522257166902249,71,5,3,-4,3,-7,-3,8
1522257166911273,-20,3,0,-4,-3,1,5,2
1522257166911273,11,-14,-5,-4,-2,-1,-2,-1
1522257166925311,-66,-15,-2,-1,5,0,-5,-6
1522257166925311,30,12,2,-1,-1,-4,5,4
1522257166932329,-24,-3,-2,-4,4,10,3,2
1522257166932329,43,7,-3,-5,-11,-7,-2,4
1522257166948372,-51,-2,1,2,5,2,1,-12
1522257166948372,0,4,-1,5,0,6,4,1
1522257166950377,-9,-4,-2,0,7,1,1,6
1522257166950377,-20,-7,-2,1,-6,-4,0,-5
1522257166971433,7,-5,1,3,2,3,2,6
1522257166971433,13,8,-1,-3,3,-9,-11,-1
1522257166972436,17,-2,5,3,-5,-18,-3,-2
1522257166972436,-26,11,3,-3,-3,25,1,-7
1522257166985470,40,-4,-4,0,4,-3,2,3
1522257166985470,-2,0,0,2,6,5,4,-1
1522257166992489,0,-4,-5,-1,1,-2,-2,-9
1522257166992489,-11,-7,1,0,-8,-8,-1,6
1522257167008532,67,12,2,-3,3,-4,-4,2
1522257167008532,-25,6,1,-3,-5,5,-3,4
1522257167010537,5,-8,-3,-4,-6,8,-1,-4
1522257167010537,-24,-9,-2,0,0,-6,4,-10
1522257167030590,17,12,1,3,5,6,0,7
1522257167030590,-37,-4,-1,3,3,-11,-2,-3
1522257167032596,25,3,-7,-3,1,2,-6,-1
1522257167032596,0,-5,-4,0,21,2,-3,-9
1522257167045630,-3,7,3,2,-19,1,0,4
1522257167045630,14,-13,1,0,-2,-1,-1,1
1522257167051646,-17,4,2,1,-1,-1,-1,-4
1522257167051646,-4,2,1,-2,-10,-4,-2,6
1522257167068692,12,-8,-2,-2,8,4,2,0
1522257167068692,9,5,2,0,3,0,0,-2
1522257167069694,2,-3,-1,0,4,2,1,2
1522257167069694,-29,4,1,-3,-6,-12,2,1
1522257167090750,38,17,4,-1,-2,-10,3,12
1522257167090750,-11,-5,0,-1,1,17,-1,-12
1522257167092756,-2,-12,4,0,-1,6,4,3
1522257167092756,5,9,-4,-3,-6,-6,-5,0
1522257167105790,-22,-5,-8,-4,9,4,-3,-5
1522257167105790,5,-6,-2,0,3,-8,4,2
1522257167111806,-37,6,-2,-1,-4,0,-5,0
1522257167111806,-35,-7,-6,-2,-9,-1,-6,-4
1522257167128851,14,-10,-6,-2,19,4,-6,-2
1522257167128851,48,7,0,3,22,0,-4,-1
1522257167129855,-15,-5,0,0,-44,-7,1,-10
1522257167129855,-35,4,3,3,-33,-4,3,-3
1522257167150910,3,8,7,0,-4,-5,3,3
1522257167150910,25,3,-5,-8,-34,3,0,2
1522257167152915,29,-11,-4,-2,39,-14,0,4
1522257167152915,-3,-1,-3,-2,16,18,2,2
1522257167164948,-34,-3,1,2,11,0,-2,-11
1522257167164948,56,2,2,-3,-9,7,2,11
1522257167171966,6,-1,2,5,-8,-7,2,3
1522257167171966,-29,0,-2,-1,-2,-11,-2,2
1522257167188008,30,-1,-3,1,-2,9,-5,-4
1522257167188008,-11,7,2,1,0,-7,-7,-2
1522257167190014,56,7,2,-3,-14,-1,1,8
1522257167190014,-19,-13,1,2,24,-2,0,-6
1522257167211070,-32,-10,-1,1,3,15,3,-8
1522257167211070,8,14,1,0,-2,-19,5,5
1522257167213076,-5,-10,-7,-5,5,3,1,4
1522257167213076,51,7,1,1,-16,1,5,12
1522257167225109,-43,-7,-6,-3,-9,11,-3,-1
1522257167225109,-12,4,-3,1,2,3,-9,-11
1522257167233129,-12,-1,-2,1,4,-2,-1,-4
1522257167233129,24,-1,4,0,-2,-19,-1,-2
