timestamp,emg1,emg2,emg3,emg4,emg5,emg6,emg7,emg8
1522257323134992,-7,40,24,11,22,2,-3,-16
1522257323134992,0,12,1,8,-5,7,16,1
1522257323138511,15,-6,-7,-8,-16,-4,-28,-1
1522257323138511,4,-76,-24,-11,-13,-10,-2,21
1522257323139507,-13,97,18,3,4,1,-3,8
1522257323139507,-10,29,18,9,12,4,-20,20
1522257323142514,-2,-29,-7,3,9,-3,6,9
1522257323142514,-6,16,11,3,-8,-18,-16,3
1522257323145522,26,-62,-9,-1,14,15,1,2
1522257323145522,-6,-36,-8,7,-1,-1,24,16
1522257323154549,72,-37,-39,-25,-45,-12,-32,-14
1522257323154549,-76,2,66,18,28,27,24,7
1522257323160562,14,-89,-12,-9,-8,-13,-7,10
1522257323160562,7,-26,-4,8,21,8,16,0
1522257323174599,-20,-48,-5,6,32,-4,3,21
1522257323174599,34,-15,-37,-33,-69,-1,24,-21
1522257323185629,-5,22,10,-2,-2,-8,-15,18
1522257323185629,-26,70,18,-3,3,12,7,-11
1522257323205682,-20,19,16,13,25,1,-8,-3
1522257323205682,12,27,5,4,13,-1,0,-1
1522257323207687,-13,-13,-8,4,-4,-8,0,4
1522257323207687,116,-36,-65,-28,-35,-23,-23,-5
1522257323218717,-46,-42,37,10,11,13,-9,-13
1522257323218717,12,-21,-6,2,-5,-2,10,2
1522257323260829,-13,-56,-6,-11,-17,-7,1,-10
1522257323260829,22,95,47,17,5,-2,-9,-4
1522257323261831,-23,-74,12,18,13,14,15,-3
1522257323261831,3,-29,-2,-1,4,0,-11,0
1522257323265841,-10,-3,0,-1,-8,-3,7,-1
1522257323265841,14,-42,-29,-12,19,9,12,-6
1522257323266844,3,27,1,-7,-38,-18,-7,-1
1522257323266844,-3,12,7,10,5,3,-3,11
1522257323271858,-11,3,-4,-1,25,2,-10,0
1522257323271858,-17,-10,-9,4,8,5,6,0
1522257323280882,4,25,-4,0,-16,-2,22,-4
1522257323280882,3,-83,-23,-14,-18,-6,6,-10
1522257323293916,31,-33,-4,6,-4,-8,2,3
1522257323293916,-42,-49,5,-2,2,2,-31,-26
1522257323302940,0,58,9,3,16,5,-1,-2
1522257323302940,-9,29,4,-6,-18,-3,1,-3
1522257323308957,43,3,-4,11,44,5,-2,4
1522257323308957,3,-21,-8,-4,-26,-10,9,36
1522257323332017,16,-79,-24,-17,-15,-10,-26,7
1522257323332017,-15,55,23,24,-6,-4,2,-3
1522257323333020,2,45,6,-9,-11,10,14,-2
1522257323333020,-1,6,4,-1,19,6,15,-2
1522257323355079,4,-41,-22,-15,-3,-11,4,-1
1522257323355079,17,-2,9,16,26,8,1,52
1522257323356082,-8,-32,-5,13,-10,-23,-28,16
1522257323356082,-34,107,17,-7,-5,4,-25,-25
1522257323370119,27,-36,-2,-32,-50,10,10,3
1522257323370119,-3,14,3,-13,3,-1,-7,-43
1522257323371122,-10,-20,0,-2,-11,-11,-6,-25
1522257323371122,36,-29,-2,10,21,5,14,3
1522257323392177,-30,19,13,11,13,-11,-4,-48
1522257323392177,-12,-4,-4,2,24,6,13,2
1522257323393180,-20,9,4,11,45,9,-8,-9
1522257323393180,30,-110,-42,-55,-110,-8,4,0
1522257323415239,-34,78,21,-1,18,14,16,7
1522257323415239,13,18,-7,-9,-25,-8,5,8
1522257323415239,36,5,-16,4,32,1,-11,11
1522257323415239,-43,-21,11,10,23,-4,-3,-8
1522257323430278,17,29,2,13,-1,7,-13,-13
1522257323430278,-4,8,-7,-12,6,2,24,-37
1522257323430278,59,-73,-32,-18,-19,-3,-17,20
1522257323430278,-34,65,31,26,11,10,19,-7
1522257323452337,2,-40,-21,0,23,3,-10,-4
1522257323452337,-25,13,6,5,14,-21,-11,-5
1522257323453340,-9,-2,-11,-16,-51,8,-8,-1
1522257323453340,13,-10,-14,1,1,-20,-3,4
1522257323474396,61,-128,-28,-22,-11,0,7,23
1522257323474396,-42,88,37,15,5,6,9,-19
1522257323475399,-50,99,47,19,7,2,6,-15
1522257323475399,-3,-14,-6,-2,16,15,-1,2
1522257323489436,-18,29,15,18,18,12,6,9
1522257323489436,19,-92,-35,-17,-3,-2,-7,21
1522257323490439,27,-99,-22,-14,-42,-19,-12,-4
1522257323490439,-35,-34,-17,-1,-2,-13,-17,-17
1522257323512497,-12,15,16,13,24,-5,-15,1
1522257323512497,35,-63,-4,3,-18,-1,-18,-4
1522257323513500,-37,-94,-11,12,41,-11,-4,-13
1522257323513500,46,6,-12,-9,-42,25,23,16
1522257323534556,32,-67,-36,-24,-22,-9,49,6
1522257323534556,-82,6,19,3,12,-8,-54,-10
1522257323535559,18,29,31,13,10,11,18,-2
1522257323535559,-5,47,13,16,4,-6,1,9
1522257323549596,-27,-19,-12,-18,-16,6,-13,-2
1522257323549596,7,3,-3,-4,-11,-2,14,-14
1522257323550599,9,-73,-17,-12,-8,-6,18,29
1522257323550599,-45,-89,-2,8,17,-2,-17,-18
1522257323572657,-30,127,41,12,-6,-14,-26,-9
1522257323572657,1,-95,-11,0,9,15,25,6
1522257323572657,5,77,9,-6,-13,0,-1,2
1522257323572657,34,-92,-15,-7,37,7,29,10
1522257323594716,-39,-48,-28,-20,-33,-8,-12,5
1522257323594716,-39,94,45,21,-4,-4,-16,-14
1522257323595719,0,85,31,-2,-21,17,6,3
1522257323595719,16,-62,-1,1,39,-23,-19,-2
1522257323609756,-5,-19,-22,6,-53,-7,-14,-2
1522257323609756,21,-15,-12,-20,3,34,51,17
1522257323610758,6,-76,-49,-26,-18,4,2,5
1522257323610758,5,127,81,28,-11,-10,-32,-5
1522257323632817,-38,34,44,35,48,-7,-24,-4
1522257323632817,27,-62,-16,7,3,6,-1,-1
1522257323632817,-13,8,-5,-5,-4,-2,27,-6
1522257323632817,38,-85,-49,-24,-19,-14,-4,-10
1522257323654876,34,26,10,3,30,5,3,13
1522257323654876,-16,8,13,-3,-5,-5,0,0
1522257323655878,2,-29,-7,-1,4,1,-21,-14
1522257323655878,0,-56,-13,-3,-12,-17,-15,-15
1522257323668913,-10,-20,-8,6,9,13,37,-114
1522257323668913,-1,2,-12,-13,-23,-16,2,-44
1522257323676934,-10,-29,-4,3,8,-2,-10,-11
1522257323676934,1,42,6,2,10,-5,-24,32
1522257323691974,3,-68,-9,-9,-6,16,33,59
1522257323691974,58,-35,-14,6,13,-6,-27,21
1522257323692977,-20,18,6,-5,0,1,3,12
1522257323692977,-18,47,11,-1,-18,5,24,12
1522257323715035,6,-8,-7,2,14,-11,-19,18
1522257323715035,27,-100,-49,-17,-10,-9,-4,9
1522257323716038,-32,117,49,20,12,6,20,15
1522257323716038,-23,34,7,-16,-21,0,-25,-2
1522257323729072,4,-17,-1,-1,2,0,6,24
1522257323729072,12,-40,1,1,-6,10,14,28
1522257323737094,17,-12,-10,7,18,-18,-24,-9
1522257323737094,6,-41,-11,-1,12,11,15,-3
1522257323752134,-72,119,50,5,-19,-2,-7,2
1522257323752134,-1,102,11,-5,-3,-8,-15,-1
1522257323753137,-1,-34,-10,-1,1,3,18,-7
1522257323753137,4,15,0,2,-5,4,6,-5
1522257323775195,39,-51,-3,16,38,-1,-11,8
1522257323775195,7,-16,-19,-9,8,-9,-38,0
1522257323775195,-40,17,13,-24,-70,-4,5,-25
1522257323775195,22,-70,-28,-14,-6,-1,8,11
1522257323789232,1,51,23,8,6,-2,-10,-6
1522257323789232,-10,81,15,8,5,3,15,-3
1522257323796251,19,-11,0,12,33,11,-2,4
1522257323796251,40,-99,-26,-12,-51,-25,-7,10
1522257323812294,-22,5,-7,-14,-4,4,12,-20
1522257323812294,-27,-52,-10,1,3,-2,4,3
1522257323813297,5,39,7,-7,-1,2,3,-1
1522257323813297,-31,43,24,19,15,1,-5,6
1522257323834352,16,-5,-12,5,14,-3,4,-7
1522257323834352,-5,-61,-6,-19,-29,2,11,-6
1522257323835355,-23,-7,-21,-8,-5,-4,-14,-8
1522257323835355,8,56,19,13,51,7,0,-1
1522257323849392,14,-3,-6,-15,-61,-19,-26,4
1522257323849392,-10,28,8,-2,8,0,-5,-5
1522257323856411,20,-9,-9,-4,1,0,20,19
1522257323856411,20,-28,-1,1,24,4,-14,-16
1522257323872454,24,82,-6,2,3,4,15,3
1522257323872454,8,-6,-19,-2,-24,-5,3,-3
1522257323873457,45,-53,-5,2,2,1,-9,5
1522257323873457,-14,31,5,-5,-11,9,26,-3
1522257323894512,15,-63,-10,0,20,4,-6,0
1522257323894512,-4,-46,-7,6,25,-1,-11,-8
1522257323895515,-12,46,6,14,-25,-15,4,-11
1522257323895515,-12,-9,-9,-11,-14,9,-8,1
1522257323917574,1,-50,-7,-4,6,-9,11,5
1522257323917574,4,23,5,1,1,-8,-5,-2
1522257323918576,-6,34,8,11,27,2,-11,-7
1522257323918576,19,33,4,-1,-2,6,16,-27
1522257323932614,-23,10,-3,-7,-30,1,-19,-34
1522257323932614,5,5,1,0,13,-6,-18,-14
1522257323932614,0,-4,3,-2,2,6,-1,0
1522257323932614,-24,-7,-7,1,-2,-13,-11,86
1522257323954672,25,-15,-8,7,8,1,15,66
1522257323954672,47,-69,-14,-5,13,-2,0,17
1522257323955675,-30,14,-3,0,-18,8,-1,1
1522257323955675,-12,76,16,5,-11,-8,15,-39
1522257323968709,6,-1,2,6,2,0,-10,-21
1522257323968709,1,16,3,3,-2,12,17,7
1522257323976731,-17,-54,-9,3,5,-5,-1,-19
1522257323976731,17,-25,-16,-13,8,-1,10,-11
1522257323993776,-30,-22,-6,-5,3,-5,-12,-5
1522257323993776,36,-38,-4,0,3,-9,-18,-5
1522257323994779,-59,81,83,32,56,28,9,-7
1522257323994779,35,-81,-13,-24,-79,-3,45,-46
1522257324014832,20,-37,-3,1,8,0,-5,-17
1522257324014832,-33,1,0,-11,-22,6,15,6
1522257324015835,26,-22,-26,-6,3,-3,-15,-9
1522257324015835,0,6,-4,8,22,2,-12,11
1522257324036891,-10,17,4,1,3,0,5,-6
1522257324036891,9,4,-1,3,-1,-4,13,16
1522257324037894,32,-17,0,10,47,-1,-14,24
1522257324037894,-11,16,-23,-3,-44,-9,-16,9
1522257324051930,4,-31,-15,-33,-42,-7,6,-15
1522257324051930,-42,114,28,8,-3,6,10,7
1522257324052933,-7,-40,-15,-15,-11,-4,12,5
1522257324052933,-7,8,-1,4,25,-13,-22,-2
1522257324074993,9,2,9,8,15,-3,-17,3
1522257324074993,6,-13,-5,-6,-11,-2,-6,-12
1522257324075996,7,-81,-8,-10,-8,-15,-11,2
1522257324075996,-17,90,14,11,17,15,11,-2
1522257324097052,18,-76,-20,-1,3,2,-8,15
1522257324097052,-22,28,14,0,-10,-3,-12,-15
1522257324098054,-7,61,-5,-9,-24,-15,1,-5
1522257324098054,-32,-44,7,10,12,-2,-27,5
1522257324112092,9,27,15,13,57,11,8,5
1522257324112092,-5,-12,-10,8,-21,0,7,1
1522257324113094,13,-44,-28,-20,-35,8,-2,-3
1522257324113094,-7,-13,-11,-18,0,-10,-3,-8
1522257324135153,11,80,21,7,18,-8,3,-7
1522257324135153,14,-58,-8,1,-7,-2,-19,9
1522257324135153,8,-13,-8,2,-11,9,21,2
1522257324135153,4,-84,-18,-5,2,5,-14,4
1522257324157210,-62,46,46,14,5,6,8,0
1522257324157210,6,-17,-2,-1,11,-9,-5,-9
1522257324158213,-16,-28,11,4,-7,-12,-24,1
1522257324158213,-1,-17,3,11,36,31,44,12
1522257324172250,33,11,-14,0,-15,-7,-7,6
1522257324172250,-6,24,-3,-17,-35,-5,9,-3
1522257324173253,-37,67,18,-3,-10,-5,-19,-12
1522257324173253,18,7,5,2,8,-7,-4,-1
1522257324194309,25,-120,-27,-1,9,4,6,8
1522257324194309,-12,127,26,14,14,8,2,-8
1522257324195312,26,0,-5,-17,-14,1,10,7
1522257324195312,-2,-2,6,7,6,1,-8,-6
1522257324217370,8,-50,-21,-13,-23,-9,-13,4
1522257324217370,47,-13,-3,0,15,-6,-1,4
1522257324218373,-2,-25,-5,-1,5,-3,-2,-3
1522257324218373,-12,33,19,7,2,3,-4,-2
1522257324239429,-17,-12,3,1,22,15,17,-5
1522257324239429,3,-42,-12,1,-13,-15,-2,-12
1522257324240432,2,-37,-9,-6,-10,-5,-6,-3
1522257324240432,-35,-78,-21,-17,-41,-17,-4,-17
1522257324254469,-4,48,15,3,-3,-2,-12,1
1522257324254469,-15,-9,7,5,27,11,4,1
1522257324262490,42,18,-5,1,-3,-11,-3,7
1522257324262490,-36,51,9,3,15,17,18,-1
1522257324277530,-9,3,-14,-6,-7,-10,0,-13
1522257324277530,-14,-43,-19,-32,-42,7,15,-1
1522257324278533,22,82,24,13,12,9,-8,7
1522257324278533,26,10,6,7,2,-5,-2,-8
1522257324299589,7,-38,-11,-2,0,2,8,3
1522257324299589,-8,18,6,16,45,5,-1,-4
1522257324300592,-4,-94,-29,-12,-24,-1,-8,7
1522257324300592,26,-17,-10,-7,15,-4,15,-10
1522257324314629,-63,88,21,11,-53,-25,-25,4
1522257324314629,12,-29,0,-5,1,4,16,9
1522257324322650,-17,18,8,7,20,-5,0,-5
1522257324322650,4,-22,1,-1,-9,-1,-5,6
1522257324337690,5,-52,-12,-2,18,6,-6,-9
1522257324337690,-17,8,-5,-10,-19,-6,11,4
1522257324337690,-10,-17,7,0,14,15,18,-1
1522257324337690,-1,61,11,7,-5,-5,-11,-2
1522257324359749,18,-5,-13,-7,-6,-8,16,12
1522257324359749,-4,-34,-5,12,42,-1,-29,-12
1522257324360752,-12,0,-8,7,-45,-2,31,1
1522257324360752,-12,64,22,-10,-3,5,-15,-2
1522257324373786,-7,-3,13,22,6,-6,-18,-8
1522257324373786,-19,3,8,-25,-29,12,30,-1
1522257324382810,-9,-25,-15,-3,18,-16,-17,-9
1522257324382810,7,-35,-11,11,17,3,6,-7
1522257324396847,8,26,5,-8,-8,8,-5,-3
1522257324396847,27,-86,-8,14,10,-15,-22,28
1522257324397850,23,75,11,-3,11,-4,-12,-9
1522257324397850,-39,1,4,-7,2,6,-8,8
1522257324419909,24,-90,-17,-5,-12,-2,14,22
1522257324419909,-30,49,10,12,15,3,-8,-5
1522257324420917,-1,-42,-11,-16,-41,-3,0,-19
1522257324420917,53,36,-12,-5,8,-8,-17,-5
1522257324433946,-23,17,-2,2,14,1,-8,18
1522257324433946,-20,71,21,7,-1,-9,-10,4
1522257324441967,-5,-12,-2,14,31,-5,7,0
1522257324441967,37,-121,-33,-39,-23,15,29,7
1522257324457007,-78,68,23,-1,26,3,10,-18
1522257324457007,21,-21,-10,-23,-67,-29,-57,0
1522257324458010,-4,45,15,4,22,30,33,15
1522257324458010,-1,-79,-18,3,-33,-23,-15,-35
1522257324480068,48,-23,-17,-15,3,9,-9,8
1522257324480068,39,80,27,6,10,7,28,-9
1522257324481071,44,-92,-6,12,20,-19,-25,-10
1522257324481071,-86,-25,18,3,7,26,14,13
1522257324494106,21,94,9,7,6,2,20,-13
1522257324494106,9,-1,-11,-8,-9,1,-7,1
1522257324502127,-5,-68,-33,-16,-26,-11,-14,-15
1522257324502127,8,20,2,12,8,-5,20,20
1522257324517167,79,-86,-29,-12,15,-8,-52,-10
1522257324517167,36,-81,-25,11,-16,-11,-2,13
1522257324518170,-101,104,35,-1,0,12,6,8
1522257324518170,0,-18,-6,2,-7,-12,12,-1
1522257324540229,-20,-79,-12,-11,-15,-4,31,-5
1522257324540229,45,-19,-28,10,29,-26,-44,-7
1522257324540229,-50,-40,4,6,19,56,59,12
1522257324540229,-12,7,0,-9,-23,-6,-16,-7
1522257324554273,-14,-7,-11,-5,-6,4,10,1
1522257324554273,-6,-57,-23,4,9,1,3,-10
1522257324562287,5,-59,-24,-5,-3,-11,-10,-3
1522257324562287,-1,-15,-3,-2,-11,-13,-21,17
1522257324577327,-5,-13,9,-5,-16,-3,7,10
1522257324577327,6,-47,3,1,23,6,7,-26
1522257324578330,-46,102,86,30,8,-7,-30,-16
1522257324578330,20,-54,2,2,-9,-2,5,1
1522257324599385,-6,-27,1,6,3,13,-7,-16
1522257324599385,-17,-117,-19,-5,-1,-2,27,22
1522257324600388,-32,-10,-17,-28,-17,-13,-1,24
1522257324600388,10,-11,6,-9,-20,0,-6,-13
1522257324614426,-23,8,14,6,9,-2,-15,9
1522257324614426,-20,-22,5,-7,-7,15,5,-17
1522257324622448,49,73,7,16,23,-4,-2,3
1522257324622448,-5,2,-2,4,9,-9,-19,-9
1522257324637490,58,-41,-24,-13,-16,4,1,14
1522257324637490,-18,112,36,19,25,1,-8,-9
1522257324638491,16,41,-6,-2,-23,8,5,-6
1522257324638491,-4,17,-2,4,20,-16,-12,6
1522257324659546,44,-69,-39,15,49,-17,-33,2
1522257324659546,-96,82,38,-8,-82,17,30,-7
1522257324660548,29,-62,-2,-22,-34,-9,5,8
1522257324660548,12,-15,-5,-2,7,12,1,-8
1522257324682607,-9,-17,-8,-9,-9,-9,-7,-15
1522257324682607,50,-56,-21,4,34,-17,-10,26
1522257324683610,24,-63,-20,9,15,2,-26,-40
1522257324683610,-56,14,18,4,-12,6,12,-7
1522257324697647,-26,14,15,-9,2,11,36,-2
1522257324697647,41,1,-13,-11,-10,-2,-3,12
1522257324698650,44,45,10,-1,-22,1,-8,12
1522257324698650,17,34,-8,7,27,-10,-19,18
1522257324719706,-11,-56,5,-2,-35,9,27,-13
1522257324719706,-21,83,26,0,15,13,5,-16
1522257324720711,9,-93,-34,-17,-1,-20,13,-4
1522257324720711,0,36,9,12,18,2,-10,0
1522257324742767,1,25,8,-2,-6,-2,-5,-4
1522257324742767,-5,-80,-21,-11,0,-2,-9,-11
1522257324743769,32,-80,-21,16,17,-20,-18,8
1522257324743769,-87,46,23,4,1,32,48,-6
1522257324757807,-6,6,5,-34,-82,-14,-7,0
1522257324757807,6,-11,-3,-8,9,-2,-16,-13
1522257324757807,28,-94,-47,-27,-8,-11,-5,22
1522257324757807,5,43,11,12,16,-9,3,0
1522257324779865,-17,34,21,25,24,4,0,-1
1522257324779865,-40,37,7,4,-9,1,7,-8
1522257324780868,15,-22,-5,-1,3,-2,-10,-9
1522257324780868,36,-24,-12,-2,0,2,-8,29
1522257324801924,-18,35,12,-1,4,7,4,-6
1522257324801924,-8,-39,-1,2,-1,-1,-5,3
1522257324802929,-13,52,11,13,42,4,-15,-25
1522257324802929,31,-44,-27,-14,-41,-3,18,3
1522257324816964,7,-8,-7,-18,9,17,9,3
1522257324816964,-2,33,4,-3,-8,1,15,9
1522257324817967,-13,13,11,10,2,0,-2,7
1522257324817967,12,-45,-11,-13,-12,-2,-21,-8
1522257324840025,-12,35,-14,8,15,-1,19,3
1522257324840025,6,34,21,3,-16,7,-4,-4
1522257324841028,-18,25,9,-2,1,-3,-1,-10
1522257324841028,27,-13,-8,2,0,-12,-18,1
1522257324862084,-13,-108,-16,7,6,9,20,5
1522257324862084,-18,29,22,16,32,-15,5,-1
1522257324863087,-15,40,10,-7,-13,22,13,12
1522257324863087,21,-37,-15,-5,-10,-15,8,22
1522257324877124,2,54,6,-6,-13,-2,-18,-26
1522257324877124,0,-17,-7,14,22,2,2,-6
1522257324878127,-4,-4,-3,-8,-19,-6,4,2
1522257324878127,12,-68,-4,4,11,-1,-10,-41
1522257324900185,-35,52,19,5,13,-17,-36,5
1522257324900185,-9,-53,-19,-12,-9,15,16,5
1522257324900185,-1,66,-2,-5,-19,-13,9,-6
1522257324900185,7,17,3,-5,7,6,-21,-1
1522257324922244,-3,15,16,11,22,-7,-15,-4
1522257324922244,-5,-53,-5,2,2,0,-1,-1
1522257324923247,0,7,-5,1,22,13,4,-1
1522257324923247,-6,3,6,3,-25,-12,7,10
1522257324937287,33,-14,5,-7,-27,-3,-17,9
1522257324937287,-16,-54,0,-7,-2,-6,10,9
1522257324938287,-19,39,14,3,-1,5,9,7
1522257324938287,13,0,0,7,32,-3,-9,-1
1522257324959342,-51,24,17,12,10,2,6,-5
1522257324959342,4,-7,-19,-18,-24,0,-2,-1
1522257324960345,-15,-45,-6,-3,-3,4,21,2
1522257324960345,-11,15,3,4,4,2,-4,-8
1522257324982404,27,-113,-40,-13,-22,2,8,10
1522257324982404,-2,69,22,12,36,-4,2,-1
1522257324983406,28,-54,-5,-14,-27,-5,6,-1
1522257324983406,-41,63,9,-5,-2,3,3,-10
1522257324997443,19,-44,-13,21,22,4,19,5
1522257324997443,31,2,-2,-5,10,20,-6,3
1522257324998446,17,34,-4,-16,-38,-14,-3,-13
1522257324998446,-7,-79,-10,-7,-3,-2,-13,-4
1522257325019502,3,120,21,3,-2,-15,-6,7
1522257325019502,-5,-16,-1,-1,10,0,-11,-9
1522257325020512,-8,-14,1,20,16,1,2,9
1522257325020512,5,-26,-13,-16,-20,4,17,0
1522257325042563,-17,23,-5,-9,13,-4,-12,-22
1522257325042563,5,65,10,2,-17,5,3,8
1522257325043566,-2,75,19,6,-5,-2,-20,0
1522257325043566,3,62,13,3,5,-2,7,5
1522257325057603,-6,-68,-13,-6,1,-1,-7,-1
1522257325057603,3,-46,-18,-9,-4,1,14,-5
1522257325058607,-17,-29,-12,-6,-7,-11,-27,-6
1522257325058607,-5,-35,6,33,45,2,17,5
1522257325079662,27,30,8,-9,-23,-5,-19,8
1522257325079662,41,51,7,-17,-36,11,26,3
1522257325080665,-24,-26,11,19,22,-3,-6,1
1522257325080665,5,-22,-7,-18,-28,8,7,2
1522257325102723,-34,5,5,13,16,-8,-5,-6
1522257325102723,-15,52,3,8,22,-9,-14,-2
1522257325102723,18,-68,-22,3,4,5,-8,2
1522257325102723,-22,28,14,-11,6,-9,-12,-2
1522257325117763,-1,25,26,29,-1,-8,3,5
1522257325117763,-46,-19,-12,-26,-50,-1,-4,2
1522257325117763,-10,-14,2,-5,16,-1,16,6
1522257325117763,15,2,-5,5,1,-1,-22,-6
1522257325139822,17,-24,-18,-15,-3,5,6,-5
1522257325139822,16,-67,-13,7,27,-20,-11,8
1522257325140825,-20,101,-6,-2,4,8,4,-20
1522257325140825,5,-45,0,4,-13,13,28,10
1522257325161880,1,-50,-10,-11,-5,1,-13,-16
1522257325161880,-5,-21,-7,6,2,0,-6,-10
1522257325162883,6,-46,-13,-10,1,-4,-10,0
1522257325162883,33,28,1,12,9,-20,-25,1
1522257325176920,-12,27,-1,-1,-18,11,4,2
1522257325176920,31,-35,-10,-22,-34,1,14,-5
1522257325177923,-20,-51,10,4,-3,0,6,-6
1522257325177923,-27,113,15,-5,1,-1,2,-10
1522257325199982,19,13,-2,10,15,-3,-5,15
1522257325199982,14,26,25,22,41,-3,-10,7
1522257325200985,-20,-51,0,-9,-28,21,37,10
1522257325200985,15,-38,-9,-7,-11,-14,-10,1
1522257325222040,-2,-10,-8,-4,-7,-9,-14,-1
1522257325222040,14,-6,-13,-8,0,3,-21,2
1522257325223044,29,22,11,3,1,-3,9,2
1522257325223044,2,37,-1,-3,9,-2,-9,-1
1522257325237084,5,30,5,-3,5,10,13,-6
1522257325237084,-11,-45,-16,15,5,-3,9,6
1522257325238084,26,-18,-13,-28,-32,-5,-21,0
1522257325238084,-11,-110,-25,-11,-4,7,20,7
1522257325260145,-2,23,2,-2,-8,-11,-8,-9
1522257325260145,-5,7,13,12,2,-13,-7,-2
1522257325260145,7,16,4,14,27,21,15,15
1522257325260145,25,-96,-21,-18,-19,-8,-4,-2
1522257325282200,7,62,18,4,9,10,16,2
1522257325282200,-31,10,9,-1,-9,0,-15,-6
1522257325283203,19,8,-6,0,11,-8,-5,6
1522257325283203,-17,12,1,1,25,7,-3,-11
1522257325297240,-20,-11,2,6,-27,-6,3,-4
1522257325297240,24,43,0,-7,-15,-3,-15,-6
1522257325298243,-28,-21,12,0,-13,-5,14,-14
1522257325298243,-9,13,4,14,25,-1,-17,6
1522257325320302,-3,-21,-3,-14,-14,-13,-15,3
1522257325320302,4,-32,-12,0,-3,-9,-11,5
1522257325320302,10,-99,-33,-14,-13,4,3,-5
1522257325320302,-31,127,28,13,18,10,6,0
1522257325342360,28,-15,-9,-8,-2,-3,-4,5
1522257325342360,-40,42,14,8,2,4,-2,-3
1522257325343363,16,-40,-8,4,5,-15,-13,-4
1522257325343363,-4,9,10,-1,-11,1,5,-12
1522257325357400,17,-38,-1,2,9,5,10,10
1522257325357400,-7,28,-3,-5,-5,-7,7,-15
1522257325358403,18,11,3,4,11,-10,-18,5
1522257325358403,23,25,-14,-5,0,-4,3,-1
1522257325379459,-30,36,25,13,-1,8,12,2
1522257325379459,16,-19,0,-5,7,9,14,2
1522257325380461,-19,3,-5,11,21,2,6,-2
1522257325380461,24,-14,-18,-14,-26,-5,-12,18
1522257325402520,14,63,-5,-30,-29,-6,6,-26
1522257325402520,-11,-36,-2,5,-1,7,-9,-3
1522257325403526,-39,15,13,3,8,5,-3,2
1522257325403526,21,-94,-12,3,1,-1,-3,9
1522257325416557,-21,2,2,8,6,3,13,5
1522257325416557,4,-40,-24,-10,-13,-7,-4,-2
1522257325424579,-5,12,4,5,24,0,-13,-16
1522257325424579,23,-89,-38,-9,-35,-15,6,2
1522257325439618,-37,-6,12,1,11,10,6,-2
1522257325439618,7,-67,-8,1,6,-8,10,0
1522257325440621,-3,8,3,-4,4,3,-12,2
1522257325440621,-8,40,8,1,1,-3,-14,-21
1522257325462680,6,-73,-28,-17,-14,-3,-10,-4
1522257325462680,14,-82,-25,-8,23,8,18,10
1522257325462680,3,52,15,6,-19,-9,-8,3
1522257325462680,-33,13,25,12,18,12,6,3
1522257325476717,13,-60,-14,2,6,-4,-18,-19
1522257325476717,54,21,8,-13,-39,-5,1,-1
1522257325484738,-50,-13,9,-4,-1,4,6,-2
1522257325484738,16,18,8,3,20,-1,-5,-13
1522257325499779,-21,-23,2,8,0,-9,10,18
1522257325499779,-4,-49,-21,7,26,1,-10,1
1522257325500781,33,50,-4,-2,-13,0,-17,-2
1522257325500781,-13,22,-1,-11,-13,6,30,-3
1522257325521837,77,-128,-47,-4,5,-15,-28,11
1522257325521837,-78,89,52,14,-10,15,32,-13
1522257325522840,8,-38,2,-8,-16,-11,-12,3
1522257325522840,11,-66,-2,1,11,13,-2,1
1522257325545901,-4,-48,-27,-9,11,3,21,3
1522257325545901,-4,-91,-19,-15,-3,-12,-48,10
1522257325545901,-13,114,58,17,-5,4,7,-23
1522257325545901,5,-47,5,1,-3,-1,0,10
1522257325559938,18,3,9,8,15,1,-2,-6
1522257325559938,-9,44,-1,11,-5,-8,-7,12
1522257325560941,7,-125,-46,-39,-10,13,31,-2
1522257325560941,20,-66,-61,-16,-6,-23,-11,-12
1522257325581997,-77,122,93,44,16,6,-18,11
1522257325581997,-17,-23,0,-4,-7,12,0,-11
1522257325583000,38,-45,-28,-1,26,-1,-9,10
1522257325583000,81,27,-28,-1,-35,-16,14,8
1522257325597037,-53,55,2,-18,-10,4,30,-16
1522257325597037,74,-91,-32,-11,-2,-1,22,3
1522257325605058,-63,-94,-30,3,-6,-13,-42,-1
1522257325605058,-79,53,110,39,35,21,5,-5
1522257325620099,9,-28,-2,0,1,-2,-18,2
1522257325620099,-48,-10,21,-1,18,1,-18,-32
1522257325621101,38,-91,-36,-5,-4,-10,26,11
1522257325621101,-17,26,1,12,5,8,-7,-8
1522257325642157,-9,-13,-14,-10,-22,-5,-2,-4
1522257325642157,-9,-5,-7,-21,-19,5,10,6
1522257325643159,25,96,29,18,17,-13,1,5
1522257325643159,-23,12,0,-11,-4,-3,-31,0
1522257325656194,19,10,-6,-5,-8,6,31,-6
1522257325656194,-8,45,5,13,10,-8,-21,9
1522257325665218,44,-60,-37,-11,-6,0,3,19
1522257325665218,-106,117,91,15,-14,-5,-24,-26
1522257325680258,38,-128,-25,-1,10,-7,-9,3
1522257325680258,16,-76,-7,-4,-2,8,16,1
1522257325680258,-16,77,22,10,30,23,19,-3
1522257325680258,20,-33,-30,-6,2,-12,0,4
1522257325702317,32,3,-27,-30,-49,-10,-9,10
1522257325702317,-19,78,24,15,6,-3,-6,-17
1522257325703320,2,42,-2,-1,-21,-10,-10,-8
1522257325703320,8,-48,-25,-8,18,16,22,9
1522257325716354,2,-16,10,15,21,4,-9,-4
1522257325716354,16,35,0,2,4,-10,-6,5
1522257325724375,25,6,7,0,-4,4,-4,2
1522257325724375,26,-76,-33,-4,3,-5,-8,-2
1522257325739416,-56,48,16,-2,-4,-2,6,-11
1522257325739416,29,39,12,6,-6,4,18,16
1522257325740418,-19,-49,-10,-2,5,12,11,-6
1522257325740418,20,5,-6,-9,-11,-4,-9,7
1522257325762476,26,-72,-26,-11,-2,-4,-2,-10
1522257325762476,-19,12,1,7,28,-10,2,5
1522257325763480,-40,19,27,20,31,3,4,-9
1522257325763480,40,-59,-15,-35,-75,10,30,1
1522257325785538,-5,22,-7,-7,-11,2,-3,-3
1522257325785538,6,22,-2,-9,-8,-4,-8,8
1522257325786541,17,-38,-7,-9,-8,-16,-23,0
1522257325786541,10,18,-16,6,26,3,-6,-4
1522257325799575,91,-78,-18,1,7,-3,12,24
1522257325799575,-103,68,72,28,16,22,17,-15
1522257325800578,-3,13,-1,-3,-7,-8,14,-7
1522257325800578,24,-71,-24,-13,-29,-8,-32,-1
1522257325822637,-8,58,5,1,2,4,14,-1
1522257325822637,53,17,3,9,1,-9,-38,-2
1522257325823639,-1,-11,3,-4,-8,-6,5,0
1522257325823639,-28,12,21,12,23,11,12,7
1522257325845698,-9,-16,-8,-6,0,0,-2,3
1522257325845698,-15,-9,-37,-22,-18,-13,-4,-15
1522257325846701,-57,57,33,7,-8,2,-15,-2
1522257325846701,-30,5,1,1,9,-4,-3,-12
1522257325859735,-13,2,8,17,25,9,2,-2
1522257325859735,63,-128,-52,-28,-35,-11,6,11
1522257325860738,37,34,5,-5,-15,13,20,-5
1522257325860738,-70,-33,26,13,18,-18,-5,-6
1522257325882796,-22,-48,8,15,31,6,-13,4
1522257325882796,39,-33,-19,-8,-6,-5,0,4
1522257325882796,98,9,-25,-12,-21,-8,-9,4
1522257325882796,37,108,1,0,-21,8,31,-2
1522257325905858,19,0,4,-1,-5,-3,-28,20
1522257325905858,-24,-2,11,11,13,4,8,-12
1522257325905858,24,-114,-36,-13,22,-3,-12,18
1522257325905858,-39,115,37,7,-10,-5,-12,-44
1522257325919896,11,95,9,4,1,-3,-13,5
1522257325919896,22,-55,-15,3,-6,8,18,4
1522257325920900,-10,-53,-12,0,2,-4,2,8
1522257325920900,-8,-79,-17,-7,-8,-8,-4,9
1522257325941954,6,-12,-12,-9,-11,4,10,-11
1522257325941954,-36,36,20,4,6,-1,-8,-12
1522257325942956,0,14,-2,-1,4,-1,-21,1
1522257325942956,7,-57,-16,0,22,3,19,12
1522257325965015,-9,11,-7,3,-8,6,-8,-3
1522257325965015,26,7,4,-21,-26,5,7,15
1522257325966018,3,8,14,-5,-4,0,-3,-12
1522257325966018,-6,29,4,3,6,6,16,8
1522257325980055,75,-35,-17,-1,2,-8,-23,8
1522257325980055,-44,67,18,11,21,-1,-7,-2
1522257325981058,-37,-75,-11,3,-8,-2,-11,-6
1522257325981058,22,-21,-7,5,-2,-12,-9,11
1522257326002113,-34,-40,6,-1,5,2,16,-11
1522257326002113,15,-47,-18,-6,-5,-1,-16,-4
1522257326003116,0,44,16,6,-13,-5,8,10
1522257326003116,33,-54,-22,-4,7,9,6,6
1522257326025175,-30,42,7,-1,-5,4,13,-13
1522257326025175,-17,14,8,10,10,3,-13,-7
1522257326025175,-42,-58,-3,8,2,-6,12,-7
1522257326025175,2,39,5,-4,-1,2,2,-4
1522257326040215,-13,-40,3,-6,-5,-3,0,5
1522257326040215,11,36,-11,3,16,2,0,2
1522257326040215,8,16,2,1,-5,5,6,0
1522257326040215,1,-50,-10,-5,-6,0,-9,8
1522257326062273,-8,37,11,19,-4,-1,-4,-13
1522257326062273,5,-29,-7,-15,-6,-11,-25,4
1522257326063276,28,59,5,3,-3,1,11,3
1522257326063276,22,-33,8,1,13,-3,-6,-1
1522257326084332,-44,-2,2,-3,-18,-13,-4,-5
1522257326084332,-11,19,8,3,9,5,3,4
1522257326085334,23,-81,-17,-18,-3,3,5,-2
1522257326085334,20,103,2,-18,-13,-4,-3,-9
1522257326099373,-69,6,27,1,14,5,8,-13
1522257326099373,43,-34,-1,20,6,-4,-3,3
1522257326100375,-22,11,11,-5,-11,0,-4,-1
1522257326100375,-4,-33,0,3,8,-2,0,1
1522257326122433,8,3,-2,-2,2,1,-4,-2
1522257326122433,-6,2,-12,1,10,0,23,1
1522257326123436,-27,28,12,16,-6,1,-1,3
1522257326123436,11,10,-3,0,4,-5,-11,-6
1522257326144492,15,-99,-24,-11,2,-4,-15,-18
1522257326144492,-9,35,6,4,-35,-7,-2,-33
1522257326145495,-21,125,13,-2,-3,6,-3,-6
1522257326145495,-28,-40,-11,-3,1,10,26,23
1522257326159532,68,83,9,-3,-6,-10,-15,15
1522257326159532,-18,-3,7,6,23,-3,-6,11
1522257326160535,-12,-32,-3,-2,6,-9,-10,7
1522257326160535,-14,-54,-7,-2,-13,4,-5,0
1522257326182593,-7,44,-11,-12,-4,1,9,9
1522257326182593,6,-40,-6,-8,-8,3,15,7
1522257326183596,81,21,-2,0,7,-7,-22,0
1522257326183596,-61,83,35,17,16,1,-8,-22
1522257326204652,-16,-21,10,10,8,9,19,9
1522257326204652,-1,-6,-6,-11,-21,-1,18,5
1522257326205655,-24,-49,-13,-18,-19,-5,2,-8
1522257326205655,27,-48,-28,-6,6,-3,-1,25
1522257326219693,3,11,9,14,-1,-3,3,-16
1522257326219693,-20,10,6,3,16,-4,-2,-14
1522257326220695,-10,-17,-4,9,32,20,17,-14
1522257326220695,26,-61,-19,-14,-30,-6,-11,-7
1522257326242753,-54,38,7,-1,6,-13,-3,8
1522257326242753,41,-71,-13,-13,-28,-1,23,16
1522257326242753,-51,63,27,11,-7,-10,-18,-22
1522257326242753,21,-53,-3,7,-1,-3,-4,-4
1522257326264812,8,45,-6,-5,6,13,2,14
1522257326264812,10,-10,-11,-10,-11,-5,-12,4
1522257326265814,-16,-13,-4,0,18,-3,13,-2
1522257326265814,-10,-8,-5,6,-15,-10,-17,-10
1522257326279851,15,28,4,-11,-10,4,-4,-4
1522257326279851,-16,63,6,6,15,7,25,12
1522257326280854,40,-69,-16,-6,-16,-1,-31,-6
1522257326280854,-17,51,13,0,22,5,12,10
1522257326301910,-16,-61,-15,-7,-20,-5,18,-8
1522257326301910,-10,29,6,-3,-12,-1,-7,-6
1522257326302913,-4,-54,-14,0,21,6,0,-2
1522257326302913,22,-36,-17,-6,-5,-13,-11,-7
1522257326324971,-34,17,17,7,-4,7,-1,11
1522257326324971,2,-5,-1,-4,-3,3,-4,2
1522257326325974,-13,-4,5,5,7,-11,-9,6
1522257326325974,44,-54,0,12,-5,-1,1,-8
1522257326340012,-31,66,9,-4,-3,6,21,-13
1522257326340012,-5,-20,-3,-12,-18,0,-12,-11
1522257326341014,6,-50,-13,-7,-11,-5,0,-1
1522257326341014,1,91,26,7,15,9,24,10
1522257326362070,32,-76,-15,-2,21,-2,-39,-2
1522257326362070,-3,-19,-7,9,10,-7,-14,-2
1522257326363073,25,10,-7,-8,-23,-12,4,11
1522257326363073,0,-25,0,-4,7,10,7,4
1522257326385131,-47,81,35,6,-3,-4,10,-10
1522257326385131,-17,6,17,14,40,7,-19,-4
1522257326385131,-14,-22,-4,-1,-28,-13,-2,-1
1522257326385131,-10,13,-2,-12,-15,12,-3,10
1522257326400171,48,18,-6,-9,-2,6,0,1
1522257326400171,-31,18,5,5,-4,-5,-14,-6
1522257326400171,-26,9,8,4,15,-2,11,-1
1522257326400171,-20,-24,-4,13,23,-1,-27,-7
1522257326422230,31,-1,-19,-29,-13,7,6,4
1522257326422230,48,14,-17,-14,-1,1,18,5
1522257326423236,-30,29,8,0,-3,2,8,2
1522257326423236,20,6,-6,-1,-2,-2,-11,-4
1522257326445291,-59,-11,30,16,17,-15,-2,-8
1522257326445291,-7,-16,3,-2,0,5,0,1
1522257326445291,1,3,-4,-8,7,8,0,-1
1522257326445291,-3,-47,-12,-4,0,-15,-19,-9
1522257326459329,89,-38,-7,31,4,5,8,5
1522257326459329,-11,-69,-12,-26,-39,-6,23,-1
1522257326467350,-21,6,3,-5,-8,3,-7,4
1522257326467350,-9,1,-13,-9,1,0,9,-6
1522257326482390,32,-87,-24,-4,6,-11,-27,5
1522257326482390,-1,-102,-15,8,15,-4,-1,2
1522257326483392,-18,87,33,18,0,7,6,-17
1522257326483392,9,24,9,-11,0,-2,12,12
1522257326504449,-24,16,-5,-10,-5,0,-6,10
1522257326504449,3,-26,-17,-2,-9,3,-10,-3
1522257326505451,26,-77,3,0,23,-7,1,8
1522257326505451,-49,45,9,4,-3,16,50,-3
1522257326519488,-10,-39,-6,-10,-22,-18,-34,-4
1522257326519488,13,6,-10,-2,1,-3,-2,-15
1522257326527510,10,-12,-2,5,-2,-2,-18,6
1522257326527510,10,48,6,13,16,9,14,-1
1522257326542549,-2,-26,-7,-2,4,7,-7,0
1522257326542549,1,-24,2,10,26,9,11,6
1522257326543553,10,9,-9,-24,-49,-5,-12,-2
1522257326543553,12,-42,-5,-9,0,-6,13,-9
1522257326564608,-52,49,9,-1,-6,5,-3,-8
1522257326564608,8,127,22,2,-4,-4,-11,-8
1522257326565611,3,-36,-2,9,10,6,20,-3
1522257326565611,-32,12,15,3,6,-5,-16,0
1522257326579648,35,-20,-18,4,10,-1,16,-7
1522257326579648,21,-18,10,8,-5,-17,-44,7
1522257326587670,16,2,-7,-10,12,13,5,10
1522257326587670,-46,-113,-17,-12,-53,-10,-4,24
1522257326602710,2,-28,-8,-6,7,-1,-3,-27
1522257326602710,-3,-45,-11,-5,-6,-5,-3,-5
1522257326602710,33,-52,-19,12,27,4,10,0
1522257326602710,-15,36,22,-18,16,-4,-31,4
1522257326624768,3,-86,-37,-12,-84,-16,31,-18
1522257326624768,-35,45,26,-8,3,13,9,-11
1522257326625771,-8,27,1,-7,-4,-7,1,-2
1522257326625771,21,0,-7,1,3,-9,-3,4
1522257326638805,27,-32,-1,-3,31,5,-7,9
1522257326638805,-16,78,1,6,-19,-5,5,-1
1522257326647829,4,8,14,10,3,5,9,4
1522257326647829,4,15,5,12,-2,-7,-7,-16
1522257326661867,2,56,12,-2,36,-5,-28,-1
1522257326661867,40,-48,-9,-5,-30,-12,10,4
1522257326662870,-41,51,1,11,59,-13,-34,-6
1522257326662870,-59,9,16,-32,-83,10,10,-4
1522257326684928,2,-79,-10,-6,0,11,27,5
1522257326684928,-3,-37,-1,-4,5,-7,-22,-3
1522257326685931,-9,-12,-14,-8,-17,-15,-5,-6
1522257326685931,26,-34,-22,6,33,4,0,-6
1522257326698966,-18,52,19,8,-2,-8,-2,3
1522257326698966,-22,5,-7,-10,-10,8,17,-10
1522257326706986,22,-50,-9,-7,-16,-4,15,19
1522257326706986,60,94,3,13,29,-12,-21,-2
1522257326722027,-8,55,22,1,-11,12,20,9
1522257326722027,10,-86,-42,-10,2,-9,-13,-6
1522257326723029,-13,25,9,-4,-19,5,-1,5
1522257326723029,7,40,15,5,5,12,5,-4
1522257326745088,-16,-58,-17,8,29,-1,0,-1
1522257326745088,9,10,10,0,10,-7,-15,-5
1522257326746091,11,16,5,6,-27,2,12,-9
1522257326746091,-21,-48,-21,-12,1,6,1,0
1522257326759125,12,-50,-7,15,45,-7,-16,10
1522257326759125,-18,54,9,1,-20,6,6,2
1522257326767146,28,-55,-11,-16,-18,-3,-15,0
1522257326767146,-1,-62,-7,3,-2,-5,-1,-5
1522257326782187,-42,88,43,7,6,0,-6,5
1522257326782187,-3,19,12,17,15,2,20,13
1522257326783189,-17,-13,-5,-10,4,9,-2,-11
1522257326783189,-12,-101,-31,-14,-10,5,34,6
1522257326805248,59,88,22,5,-13,-7,-16,4
1522257326805248,3,-19,14,6,20,2,-3,10
1522257326805248,68,-2,-5,13,-4,-7,2,4
1522257326805248,-20,27,-2,-10,-7,9,-1,-10
1522257326828309,12,-64,-21,-13,-6,6,3,-3
1522257326828309,-6,-6,-11,-9,-23,-7,-9,-9
1522257326829312,63,-56,-10,-10,3,-4,-23,1
1522257326829312,-39,65,38,22,32,1,-7,-7
1522257326842346,-16,-56,-2,12,-13,-5,25,-8
1522257326842346,9,-54,-16,-25,-15,7,15,3
1522257326843349,33,-21,-24,-15,-17,-14,-19,-4
1522257326843349,16,5,3,1,-8,8,-3,10
1522257326864405,-29,-9,-1,3,18,8,-5,1
1522257326864405,-19,-14,-8,8,3,-11,-11,-27
1522257326865407,-38,-36,0,-4,-8,0,19,11
1522257326865407,20,38,7,-5,-2,-6,-5,-4
1522257326888469,-6,15,9,15,16,5,15,2
1522257326888469,22,-62,-23,-13,-21,-3,-6,6
1522257326888469,-64,44,27,16,26,14,7,-6
1522257326888469,44,-33,-8,2,-19,-13,-20,1
1522257326902507,8,-92,-25,-4,6,3,6,-6
1522257326902507,-5,-51,-6,-6,-9,7,4,8
1522257326903509,-42,62,19,-4,-10,-3,-6,-11
1522257326903509,-9,-76,-32,-9,-4,-11,-13,-3
1522257326924565,65,35,4,-5,-3,9,-5,6
1522257326924565,-13,13,22,19,22,1,-4,1
1522257326925570,-10,-24,-6,0,0,-12,5,-18
1522257326925570,-4,6,5,-3,10,3,17,14
1522257326947626,33,-128,-37,-17,-36,-15,-38,-15
1522257326947626,-88,117,40,17,15,7,20,2
1522257326948629,-10,45,18,6,11,4,-1,-6
1522257326948629,23,-23,-3,7,-3,-3,-6,-14
1522257326962666,-22,6,-5,-11,-16,6,19,12
1522257326962666,32,-32,-16,-11,-6,-3,-11,-6
1522257326962666,4,-30,-30,-6,0,-2,1,6
1522257326962666,-6,32,41,15,14,-4,-14,-2
1522257326984725,-17,-21,-1,-5,-11,-4,-2,-3
1522257326984725,12,4,8,13,16,2,6,-1
1522257326985729,-4,-15,-10,5,14,6,11,6
1522257326985729,15,-24,-14,-22,-34,3,2,-2
1522257327007786,17,38,9,-2,-1,-1,-5,1
1522257327007786,66,-82,-11,6,29,-6,5,13
1522257327008789,-60,-41,5,3,-7,6,2,-6
1522257327008789,-4,-8,2,-1,-7,3,15,0
1522257327022826,-23,57,20,4,-14,-9,-15,-4
1522257327022826,3,8,-7,-4,7,3,-8,-1
1522257327022826,8,-25,0,3,11,7,10,7
1522257327022826,-1,-1,-2,1,-5,-6,12,-3
1522257327044885,-19,-24,-16,-5,-8,-11,-13,-6
1522257327044885,29,3,-6,-8,-3,2,-8,14
1522257327045887,10,41,9,-3,-5,-5,-11,-4
1522257327045887,-48,-29,11,10,21,-1,-5,11
1522257327066943,-10,33,6,6,-12,-1,8,-13
1522257327066943,-8,-10,-6,3,10,5,-2,-13
1522257327067946,23,-91,-17,-17,-19,-5,11,22
1522257327067946,-14,65,-8,-3,13,-7,-11,-6
1522257327081983,-10,-40,4,14,28,1,-9,1
1522257327081983,-18,-30,-8,-13,-46,6,29,-1
1522257327082986,11,18,6,0,1,5,7,-6
1522257327082986,13,-15,-9,6,-3,2,13,-10
1522257327105045,-2,9,-4,-8,7,4,-11,13
1522257327105045,-6,-20,-9,-5,-6,-17,-19,-8
1522257327106047,-30,39,18,13,14,-5,-13,-3
1522257327106047,18,-32,-15,-4,-3,2,-6,-3
1522257327127103,24,23,-2,3,2,-2,12,-10
1522257327127103,5,-30,7,5,-2,13,-3,12
1522257327128106,-22,76,5,-3,-12,-18,-3,-20
1522257327128106,0,29,-3,-12,-17,-5,-47,2
1522257327142143,-2,-50,-18,-18,2,2,22,-13
1522257327142143,-18,-7,0,4,2,-10,-6,-7
1522257327143146,30,-11,-7,5,12,-1,4,20
1522257327143146,37,21,15,9,8,8,4,-20
1522257327165204,-8,-42,11,2,-7,0,-9,-5
1522257327165204,3,-1,-2,-5,3,1,7,4
1522257327165204,-21,-11,1,2,-3,8,1,-10
1522257327165204,19,-33,-18,-1,5,-14,-4,7
1522257327187263,5,20,1,-3,-1,8,12,2
1522257327187263,3,31,10,0,-3,-1,6,-5
1522257327188266,27,15,-2,0,48,-5,-19,-2
1522257327188266,-9,-17,-25,19,-16,7,24,4
1522257327202303,13,-83,-11,-36,-62,-9,18,4
1522257327202303,-27,100,39,11,22,9,7,0
1522257327203306,-1,25,15,4,-19,1,4,-5
1522257327203306,0,-32,-6,5,34,-2,-21,6
1522257327225364,-18,8,-6,3,-2,-2,-22,-8
1522257327225364,17,-41,-20,-10,-5,0,8,-3
1522257327225364,-17,-17,-6,-7,-3,1,-18,5
1522257327225364,-3,45,21,8,4,0,9,-6
1522257327247423,5,-4,-8,2,0,-1,13,31
1522257327247423,-3,-21,-4,-4,3,-2,-22,-22
1522257327248426,6,23,7,4,-7,3,4,5
1522257327248426,-12,-110,-15,-14,-11,-5,1,-5
1522257327262463,-32,127,42,14,19,-4,-19,-1
1522257327262463,25,33,4,8,21,10,15,14
1522257327263466,-8,-49,-10,1,5,5,6,-4
1522257327263466,9,8,2,-8,-9,-1,-1,-2
1522257327284521,8,-32,-4,4,5,6,14,2
1522257327284521,-30,-8,1,0,-28,-7,0,5
1522257327285524,10,56,-2,-12,-13,3,6,-7
1522257327285524,-2,-13,-2,-3,9,5,4,-5
1522257327307583,-20,-31,-5,3,17,-13,-3,-7
1522257327307583,3,48,0,1,10,3,-2,8
1522257327308586,4,-24,-1,-13,-24,3,4,3
1522257327308586,-3,2,0,0,-11,-7,2,-2
1522257327321620,5,-7,-4,-2,-21,-2,-5,-7
1522257327321620,-22,-90,-14,-8,-10,-11,-11,1
1522257327329641,-2,72,16,8,15,11,8,0
1522257327329641,-4,-41,-2,-6,0,1,7,17
1522257327344681,-9,-12,2,13,7,-2,-7,-5
1522257327344681,14,-32,-3,-2,22,-8,-8,-15
1522257327345684,-14,-55,-3,17,-1,-9,-16,-2
1522257327345684,25,-60,-24,-24,-42,11,1,-3
1522257327367743,-60,41,16,2,10,5,-2,-12
1522257327367743,12,-18,-8,-5,-11,-7,-1,6
1522257327367743,16,-51,-20,0,19,-5,2,0
1522257327367743,-30,87,40,12,9,-3,-6,-8
1522257327381780,17,-32,-20,-14,-27,-2,-12,3
1522257327381780,6,36,5,-4,2,8,16,4
1522257327389801,-4,-56,-14,2,2,-11,0,-3
1522257327389801,4,5,15,17,-3,-8,7,8
1522257327404841,16,29,-3,-15,-13,6,4,3
1522257327404841,-7,33,3,8,9,-1,-3,3
1522257327405844,34,15,-3,-8,-21,-10,-19,-8
1522257327405844,-14,-23,1,2,3,13,15,-4
1522257327426900,23,41,17,6,38,7,30,3
1522257327426900,-32,36,6,7,-30,-6,-16,-3
1522257327427903,-13,-34,-7,-8,-7,-3,5,-3
1522257327427903,4,-81,-43,-25,6,-10,-17,1
1522257327441940,-1,77,54,22,-7,3,9,-1
1522257327441940,13,-41,6,12,29,9,3,-3
1522257327449961,-10,7,6,-21,-36,-6,11,-3
1522257327449961,-7,-17,1,10,11,-2,-5,-4
1522257327465001,45,-119,-35,-16,8,0,-8,0
1522257327465001,-54,89,20,20,17,-5,-11,-13
1522257327466004,-18,-17,2,-2,-4,9,13,25
1522257327466004,11,26,-9,-9,11,-1,-9,-1
1522257327487060,7,-121,-42,-7,-26,-24,-17,-30
1522257327487060,60,-22,-3,-7,-4,7,5,2
1522257327488062,-15,-71,-6,6,16,15,6,-2
1522257327488062,-9,27,4,4,-5,-7,-3,-7
1522257327502100,1,-20,-9,-2,9,4,6,-2
1522257327502100,3,-54,-20,-4,0,-7,-8,11
1522257327510121,35,61,-4,-2,-6,-9,10,0
1522257327510121,-36,-8,15,-6,-4,4,-11,5
1522257327525161,5,-47,-23,-6,-7,-5,-11,9
1522257327525161,11,-81,-32,-10,-1,0,4,-6
1522257327525161,-13,109,76,15,-9,1,6,4
1522257327525161,5,-19,6,3,0,-5,2,-9
1522257327547219,-11,-20,-2,2,-2,-11,-10,6
1522257327547219,-15,58,8,-1,21,14,18,-1
1522257327548223,11,-41,-20,-26,-33,-13,-38,-7
1522257327548223,16,7,-4,0,-9,-7,12,-4
1522257327561257,26,-65,-41,-20,-24,-12,-11,16
1522257327561257,-5,60,63,29,17,11,32,13
1522257327570281,-54,-53,0,10,22,8,6,2
1522257327570281,3,36,9,-4,-8,2,-7,2
1522257327585321,11,-18,-8,-1,7,11,3,-2
1522257327585321,29,-96,-37,-19,-26,-12,-9,-11
1522257327585321,6,54,15,8,12,5,1,10
1522257327585321,-12,11,19,6,13,6,14,-13
1522257327607379,-1,31,19,22,30,-2,-34,12
1522257327607379,-20,24,4,14,-1,1,0,-4
1522257327608382,19,49,1,-15,-43,4,1,13
1522257327608382,25,-33,-25,-12,2,3,-6,3
1522257327621417,-2,114,28,-2,-13,1,6,-2
1522257327621417,-8,4,0,3,7,-13,-43,-16
1522257327629438,9,-68,-26,10,38,-3,-3,-15
1522257327629438,2,-27,-5,7,-12,-5,15,19
1522257327644478,-11,30,1,-9,-8,7,9,-6
1522257327644478,-7,-48,-9,-13,-19,0,4,5
1522257327645481,21,-113,-33,-5,10,-6,-9,-21
1522257327645481,-29,52,26,8,8,-3,-1,21
1522257327667539,-52,25,30,18,41,8,8,-4
1522257327667539,5,-30,-12,-17,-44,-2,7,6
1522257327668542,2,-50,-15,1,-6,4,-4,2
1522257327668542,9,57,-11,-4,-4,-14,-19,-9
1522257327681577,23,-45,-10,1,9,-2,-10,2
1522257327681577,-54,51,17,-2,-11,2,5,4
1522257327689598,-5,0,-1,1,-8,-4,14,8
1522257327689598,4,4,2,1,-11,-19,-39,-11
1522257327704638,-3,-69,-37,-25,7,5,24,3
1522257327704638,51,85,20,-1,-10,2,0,10
1522257327705641,-24,63,15,-1,-1,-5,-49,-9
1522257327705641,-39,92,29,1,0,9,24,-5
1522257327727699,-21,-29,-2,8,4,-6,-9,5
1522257327727699,15,-17,-14,-12,-17,-7,0,-8
1522257327727699,4,11,-4,-1,2,-2,4,-8
1522257327727699,6,9,9,7,1,-5,1,-1
1522257327750761,-6,-58,-25,-12,-4,6,4,-1
1522257327750761,39,106,34,14,22,-21,-16,-2
1522257327751763,8,-90,-4,-1,2,20,26,-4
1522257327751763,31,-76,-17,-15,-10,1,-11,1
1522257327764798,-10,-13,10,-3,-17,-3,15,-6
1522257327764798,5,-111,-43,-17,4,-9,-23,-6
1522257327765801,6,66,1,1,-6,-13,4,1
1522257327765801,-13,-5,6,7,13,7,-2,2
1522257327786856,10,21,5,3,-8,7,-2,2
1522257327786856,-18,-20,-9,3,32,3,2,-4
1522257327787859,-14,7,-3,-4,-11,-5,1,0
1522257327787859,11,-62,-17,-4,-12,12,28,-4
1522257327810920,-9,-5,-5,-3,-12,-20,-38,-2
1522257327810920,-39,-58,-3,-5,16,15,19,-1
1522257327810920,18,-2,6,9,-3,-7,-16,-1
1522257327810920,-28,85,4,-7,-3,4,8,2
1522257327824958,20,29,18,-1,-17,7,3,12
1522257327824958,-7,-101,-7,-5,2,7,12,-2
1522257327825961,-12,-10,5,3,7,-2,6,12
1522257327825961,13,-50,-8,6,14,-1,-5,-13
1522257327847016,-14,30,7,6,1,-9,-1,-15
1522257327847016,-2,7,-10,1,6,1,-7,3
1522257327848019,28,-39,-16,-9,4,-9,-6,-7
1522257327848019,7,10,-2,7,-22,-10,13,10
1522257327870078,2,17,5,-8,-11,9,24,2
1522257327870078,12,4,-1,-2,-7,-7,6,0
1522257327871080,-8,-22,-8,-1,11,-3,-13,-4
1522257327871080,19,-94,-42,-6,2,-9,-39,-1
1522257327885118,-7,55,23,21,10,6,-1,-3
1522257327885118,11,27,-10,-21,-17,9,8,2
1522257327886120,-7,-13,6,1,5,7,8,2
1522257327886120,17,12,20,2,1,-1,3,-10
1522257327907176,-17,-9,10,4,-8,-2,9,3
1522257327907176,-12,-39,-6,-9,-20,-5,-20,2
1522257327908179,-24,-43,-9,-4,8,7,2,-6
1522257327908179,62,-32,-7,-9,14,-3,-8,1
1522257327930237,3,-128,-38,-14,-22,-15,-7,-8
1522257327930237,-20,43,25,20,13,0,-6,-1
1522257327931241,4,-17,-15,-5,-17,-6,23,-12
1522257327931241,-34,-30,-5,2,13,2,-5,6
1522257327945278,18,21,1,-2,7,-9,-12,13
1522257327945278,15,-31,-7,1,-13,-13,-27,-1
1522257327945278,-7,68,22,8,9,9,23,8
1522257327945278,-38,-27,6,3,-4,-3,-18,-19
1522257327967336,-2,93,13,-9,-3,10,18,-3
1522257327967336,52,-68,-15,-7,-1,-3,-12,14
1522257327968339,45,90,11,0,21,4,-2,-13
1522257327968339,-61,-16,36,38,-6,3,14,1
1522257327990397,9,-36,-9,-1,-2,2,-7,3
1522257327990397,-8,-19,-13,-6,-9,2,16,-3
1522257327991400,7,-65,-28,-10,3,-16,-2,1
1522257327991400,-4,26,11,4,10,4,-7,0
1522257328004435,3,-5,12,10,8,-2,-9,-23
1522257328004435,-20,-9,3,7,-1,1,2,-10
1522257328005437,-52,95,16,10,-5,-10,-17,-12
1522257328005437,-3,-35,-20,-16,-5,10,27,13
1522257328027496,0,-22,-9,-17,-1,5,13,-18
1522257328027496,-9,-38,-13,1,-6,-12,-6,3
1522257328028499,-7,-90,-23,-14,-6,1,-8,8
1522257328028499,8,12,-9,-10,13,-5,4,-9
1522257328050557,-16,13,5,11,3,-2,-1,2
1522257328050557,-5,15,-3,-8,-4,6,-14,-11
1522257328051560,9,-29,-1,-5,-25,-5,12,4
1522257328051560,30,-60,-25,-26,-31,-6,-1,13
1522257328064594,16,-16,2,14,14,-3,3,18
1522257328064594,-19,86,30,12,8,0,5,5
1522257328065598,-6,-30,3,10,4,2,-9,6
1522257328065598,8,33,3,-1,11,0,-4,1
1522257328087656,10,-11,-7,-4,0,-7,-10,8
1522257328087656,-3,23,0,-2,-10,-4,5,1
1522257328087656,18,8,2,-6,12,1,-41,-3
1522257328087656,-26,56,6,13,-3,19,41,-6
1522257328110717,-3,-18,1,-1,6,-5,-26,0
1522257328110717,53,-31,-3,-10,-12,-1,6,2
1522257328111720,-96,61,30,2,5,9,4,-16
1522257328111720,19,38,29,10,6,-1,-20,0
1522257328123752,-3,-35,0,5,-19,-3,31,-2
1522257328123752,-9,-86,-7,11,22,-7,-11,-2
1522257328132776,11,75,1,3,-11,-6,-23,-11
1522257328132776,22,-17,-16,-13,-5,3,-19,0
1522257328147816,-21,39,6,4,6,-1,-1,15
1522257328147816,-1,10,-6,-11,-3,9,19,2
1522257328147816,10,-67,-13,7,12,5,7,12
1522257328147816,-22,7,2,-2,-25,-9,3,-2
1522257328170877,12,16,-6,0,-2,-5,12,-7
1522257328170877,-27,44,13,3,0,-6,-19,-11
1522257328170877,68,8,8,7,1,1,13,4
1522257328170877,-9,-31,1,-4,7,-2,-7,-2
1522257328184914,17,-27,0,1,7,13,-23,3
1522257328184914,-36,-24,-13,-5,4,-2,25,-1
1522257328185917,8,7,-9,-5,-8,1,8,7
1522257328185917,14,19,10,6,16,8,-4,-16
1522257328206973,-13,4,-4,-9,-14,-1,22,-3
1522257328206973,15,-21,-6,7,6,-7,-18,-20
1522257328207976,-10,-26,-5,-7,-11,-4,3,26
1522257328207976,58,40,13,4,1,-11,-16,-9
1522257328230034,-37,50,24,10,-2,-2,-19,-2
1522257328230034,-27,-13,9,9,10,12,29,5
1522257328231037,18,-4,-21,-22,-18,-4,-13,-11
1522257328231037,34,54,14,-1,3,4,12,11
1522257328245074,-24,-29,-13,-6,-5,-14,-14,-8
1522257328245074,3,23,9,-13,-26,-2,15,-7
1522257328246077,-10,-30,7,5,3,-5,-2,-3
1522257328246077,-10,-73,-26,-6,5,-5,-4,11
1522257328267133,11,21,-8,0,14,9,12,-2
1522257328267133,27,-17,-7,4,-6,9,-7,12
1522257328268136,-19,57,18,6,5,10,14,-7
1522257328268136,-2,-34,-4,1,-8,-2,0,-1
1522257328290194,-9,-27,1,-2,1,-7,-22,-3
1522257328290194,43,-54,-24,-10,4,0,-7,-4
1522257328290194,-53,26,22,11,28,10,8,0
1522257328290194,-5,13,5,-1,2,0,18,-6
1522257328305234,15,-32,-10,2,-20,-2,7,3
1522257328305234,23,31,-12,-10,-16,-14,-14,1
1522257328305234,24,-54,-11,-6,7,2,6,-7
1522257328305234,-31,-19,-9,-3,11,0,-21,0
1522257328327293,16,-2,-1,5,16,-5,-13,2
1522257328327293,7,39,15,3,-15,-4,-3,-3
1522257328328296,-14,-44,-14,-2,-4,5,19,0
1522257328328296,-5,78,20,15,10,-12,10,3
1522257328350354,1,55,2,-16,-29,-5,-3,-9
1522257328350354,-14,10,1,3,8,-6,-15,-3
1522257328350354,-14,-18,6,-2,5,4,-2,-7
1522257328350354,11,-71,-28,-18,0,1,14,2
1522257328364391,9,-76,-7,0,-5,-7,1,-2
1522257328364391,-10,100,18,-6,-4,-9,-15,-5
1522257328372413,6,9,-2,12,-10,0,-3,-3
1522257328372413,-14,-23,-6,3,11,2,-13,-1
1522257328387452,-8,-10,-2,2,3,5,0,1
1522257328387452,-24,-67,-9,-4,-7,-1,-12,9
1522257328388456,57,-93,-31,-10,-11,-17,-14,6
1522257328388456,-91,52,21,20,30,4,-11,-16
1522257328409511,-11,-2,-9,-9,-11,15,28,-1
1522257328409511,14,-13,-4,-3,-8,-5,3,-1
1522257328410514,5,-1,2,-2,8,-4,-3,5
1522257328410514,15,-124,-23,-21,-25,-4,-10,0
1522257328432573,26,48,29,9,31,11,-4,10
1522257328432573,-33,-1,-1,2,0,5,7,20
1522257328433575,10,13,-5,-2,-6,0,-1,3
1522257328433575,-26,42,13,9,3,-2,1,-3
1522257328447613,9,-32,-7,1,5,-2,4,1
1522257328447613,13,49,9,5,3,4,-5,-9
1522257328448616,-35,-51,5,13,0,-5,3,1
1522257328448616,17,23,-2,-19,-34,-5,-1,8
1522257328469671,-9,19,-16,-6,14,-4,-9,-18
1522257328469671,6,-41,-14,-3,-2,-4,-17,-3
1522257328470674,-8,73,16,-2,-4,10,15,-10
1522257328470674,3,-33,-12,-5,8,-11,2,-3
1522257328483708,-19,20,14,13,-20,-3,28,1
1522257328483708,13,-65,-16,-4,-7,0,-16,-4
1522257328492732,3,78,13,-1,2,2,-9,-8
1522257328492732,12,28,8,1,-4,-5,-7,4
1522257328507772,0,-7,-5,-15,6,-2,-13,-5
1522257328507772,-4,-44,-8,11,14,1,19,-5
1522257328507772,-6,-6,-5,-7,-22,0,-10,1
1522257328507772,24,-113,-36,-8,-11,2,1,0
1522257328529831,-27,86,33,9,6,-2,-7,1
1522257328529831,-12,15,10,6,10,-3,3,1
1522257328530834,5,-27,-6,-10,1,1,7,3
1522257328530834,0,-17,-10,0,0,8,10,-4
1522257328543868,3,-128,-27,-17,-9,-25,-42,-12
1522257328543868,-3,72,11,-4,-33,3,13,7
1522257328551889,-23,-7,-1,4,-4,-24,-41,-11
1522257328551889,2,32,6,5,2,11,5,-3
1522257328567932,8,-19,0,19,45,6,0,3
1522257328567932,0,26,3,5,0,1,22,-1
1522257328568935,18,-67,-23,-27,-16,-2,-11,0
1522257328568935,-1,12,-2,-4,-14,-3,7,3
1522257328589991,-9,18,3,-9,-18,-4,-9,7
1522257328589991,-6,57,23,13,27,6,12,-1
1522257328590994,-10,11,10,1,11,8,9,0
1522257328590994,-1,-4,0,8,-3,-6,-13,-5
1522257328604028,1,-44,-23,-4,-11,0,5,4
1522257328604028,28,57,9,1,23,21,5,2
1522257328612049,-16,49,12,3,-16,-1,15,9
1522257328612049,3,33,11,-10,13,-7,1,0
1522257328627089,5,-5,4,-12,-32,-6,-7,-5
1522257328627089,9,-77,-24,-7,-7,-3,-6,-6
1522257328628092,9,15,3,3,7,4,0,-6
1522257328628092,11,36,4,-3,2,-1,17,2
1522257328650151,-8,91,25,10,0,-7,-26,1
1522257328650151,-12,-37,8,2,27,21,21,1
1522257328651153,3,-3,-1,5,0,-3,-9,0
1522257328651153,10,-65,-25,-11,-31,-19,-10,18
1522257328664188,16,15,-11,-17,-9,2,4,-20
1522257328664188,-16,41,8,-1,0,-7,-13,-7
1522257328672209,10,-34,0,13,16,6,6,-5
1522257328672209,-5,9,5,6,2,8,7,0
1522257328687249,31,-52,-10,1,3,2,14,11
1522257328687249,-47,4,-6,-3,-14,-15,-27,-6
1522257328688252,27,59,11,-3,0,5,18,6
1522257328688252,10,40,14,3,-2,-1,-6,-4
1522257328710310,-15,-14,3,3,7,7,27,-5
1522257328710310,12,-31,-8,11,45,-2,-13,2
1522257328710310,-4,-7,-19,-12,-31,-6,-3,-2
1522257328710310,-11,-4,-5,-13,-23,-15,-14,-7
1522257328733372,5,0,1,-3,10,14,6,-1
1522257328733372,18,-25,-8,-8,-14,-5,16,-11
1522257328733372,-25,12,11,10,12,-3,-12,-6
1522257328733372,-16,-10,5,1,26,5,1,-30
1522257328747409,-1,-45,-17,-6,-12,-5,-3,43
1522257328747409,-7,44,6,9,4,-6,-3,-7
1522257328748412,29,-94,-10,-1,0,-5,13,15
1522257328748412,-32,44,-11,-74,-23,-3,-25,-12
1522257328769468,-7,-11,-8,-6,39,12,13,-2
1522257328769468,55,-55,6,81,-54,-9,7,28
1522257328770471,-34,26,16,24,21,-1,-7,-7
1522257328770471,-6,-5,9,35,-4,0,-21,6
1522257328793532,-4,1,-4,-23,-4,-2,-4,8
1522257328793532,-15,-7,-6,-44,0,-1,1,-21
1522257328793532,3,-76,-13,-10,3,2,-17,-15
1522257328793532,6,17,2,8,2,1,15,8
1522257328807569,9,-18,-4,12,5,3,17,-15
1522257328807569,-29,-7,4,-5,-17,2,1,-7
1522257328808572,5,-6,-10,-16,-19,-15,-17,11
1522257328808572,7,-21,-9,-1,26,18,19,17
1522257328829628,25,27,11,1,-12,-9,-24,-12
1522257328829628,-6,-51,-27,-25,-10,2,2,-3
1522257328830631,28,97,28,8,13,6,2,-21
1522257328830631,2,-11,5,8,-6,1,4,7
1522257328852689,-17,8,2,12,21,3,-9,-3
1522257328852689,9,-29,-5,-12,2,-9,5,2
1522257328853692,-17,38,-2,-8,-19,3,15,2
1522257328853692,7,-28,-5,9,1,0,4,4
1522257328867729,8,-44,-4,5,12,-2,-23,-1
1522257328867729,-27,70,13,-21,-4,-5,-5,12
1522257328867729,16,-22,-15,-2,-3,-2,24,-8
1522257328867729,-28,42,31,19,-2,5,16,-8
1522257328889788,-20,84,13,9,0,-7,-13,-5
1522257328889788,3,-21,-17,-16,7,9,-2,0
1522257328890790,4,-33,-18,5,41,-7,-5,9
1522257328890790,-20,15,8,7,-17,-6,-12,-7
1522257328912849,7,3,6,-17,-38,7,-1,8
1522257328912849,4,43,16,8,26,-8,-5,-8
1522257328913852,15,35,5,-6,-40,-1,13,8
1522257328913852,19,-52,-24,-5,15,-12,-7,-7
1522257328926886,9,-98,-9,5,8,4,2,-1
1522257328926886,-11,-41,1,-16,-31,-8,2,8
1522257328927889,-17,48,12,-3,12,10,-6,-3
1522257328927889,-42,29,22,15,18,-5,4,3
1522257328949947,-22,-8,-4,5,-10,-2,4,-14
1522257328949947,12,-25,-14,-5,6,-4,-10,-2
1522257328950950,7,-57,-8,13,27,10,26,10
1522257328950950,9,-56,-27,-31,-64,-13,-52,-15
1522257328973009,12,-53,-41,-16,-19,-6,22,11
1522257328973009,6,88,36,18,22,-2,-40,-12
1522257328974012,-21,-19,1,3,22,17,24,2
1522257328974012,17,-19,-10,10,4,6,-3,-1
1522257328987046,5,-89,-21,-17,-15,-5,-7,-2
1522257328987046,48,56,-25,-14,-21,-14,-1,3
1522257328988049,-39,39,31,10,12,-21,-25,-7
1522257328988049,4,38,8,24,29,44,61,1
1522257329010107,29,10,-10,-11,-23,1,14,7
1522257329010107,3,-69,-14,11,43,6,-12,-3
1522257329011110,-33,64,49,8,-45,-16,-1,-2
1522257329011110,-14,-79,-12,-21,20,-5,-2,-6
1522257329033168,-37,16,8,1,-5,-11,-23,-9
1522257329033168,4,-12,-8,-5,-10,17,18,4
1522257329034171,-11,-128,-45,-6,-4,-16,-16,-12
1522257329034171,12,64,19,-1,-7,-8,-7,5
1522257329047206,24,5,5,9,20,-6,-4,-3
1522257329047206,-65,4,12,3,33,0,-12,2
1522257329048209,15,-40,-40,-15,-35,-6,-7,0
1522257329048209,31,-46,-17,-7,-25,-6,-3,10
1522257329070267,5,104,36,18,-3,3,27,-15
1522257329070267,19,-57,-12,-10,-17,-6,2,4
1522257329070267,16,80,28,12,16,8,-24,-2
1522257329070267,-19,-37,0,13,23,-2,-11,-1
1522257329093328,13,24,-5,-9,4,-3,-1,0
1522257329093328,-10,-57,-9,-6,-19,-4,5,-7
1522257329094331,1,2,-4,-16,0,3,5,5
1522257329094331,62,-36,-16,-9,3,-8,-13,13
1522257329107366,-23,97,32,8,-9,3,-5,-12
1522257329107366,5,16,3,8,-3,5,30,10
1522257329108369,2,-56,-7,4,5,-5,1,-8
1522257329108369,-10,-35,-8,-12,-8,1,-2,13
1522257329129424,32,-48,-24,5,54,9,7,12
1522257329129424,-77,-14,17,11,-41,7,-7,-17
1522257329130427,-8,-29,-24,-18,-7,-4,-14,-10
1522257329130427,45,-75,-23,-1,3,-6,5,7
1522257329153488,-95,69,85,19,-10,-1,3,-9
1522257329153488,5,-64,16,12,19,0,-7,3
1522257329153488,13,-41,-10,-11,-9,-11,-18,1
1522257329153488,-25,-13,0,-3,-14,20,24,-8
1522257329167526,46,-104,-40,-10,-7,-17,-17,4
1522257329167526,-7,-33,3,12,23,1,12,6
1522257329168530,-16,39,6,-9,2,20,23,8
1522257329168530,8,59,16,-6,7,-5,-25,-13
1522257329189584,-11,-33,-2,-19,-63,-23,-18,-11
1522257329189584,33,1,-8,-17,-2,4,6,9
1522257329190587,21,39,-3,7,8,10,3,-2
1522257329190587,-15,13,11,11,14,1,2,9
1522257329213648,12,-34,-18,1,17,12,-14,6
1522257329213648,44,-58,-37,-3,-12,-10,-6,-5
1522257329214651,-24,12,10,2,-6,-9,2,4
1522257329214651,58,127,34,13,21,17,15,-4
1522257329226683,-48,-5,8,12,11,-8,-3,1
1522257329226683,18,-31,-3,1,-15,-6,-5,3
1522257329234704,37,-54,-18,-5,5,-1,-7,13
1522257329234704,-18,-4,0,-2,-38,-12,15,-1
1522257329249744,-3,-45,-13,0,12,1,26,4
1522257329249744,17,37,-3,0,0,-5,-31,-9
1522257329250748,7,36,3,-3,9,0,8,2
1522257329250748,-37,-27,-8,-9,0,-7,-3,-10
1522257329272806,11,27,2,10,1,10,-5,7
1522257329272806,-18,-2,1,-9,0,1,7,-3
1522257329273808,-17,-35,-12,4,-6,-5,-27,-2
1522257329273808,25,70,25,-14,-8,12,-7,0
1522257329286843,-4,-48,0,11,10,11,21,-3
1522257329286843,-11,-6,8,8,10,-2,-16,-5
1522257329294864,-10,-40,4,2,12,1,4,-20
1522257329294864,-36,-34,-10,12,-10,-14,-12,-11
1522257329309904,15,-27,-26,-17,-12,0,-4,15
1522257329309904,17,55,31,1,10,2,-18,0
1522257329310907,0,-1,-8,3,-3,2,21,5
1522257329310907,-5,-28,-13,-1,3,-1,2,14
1522257329331963,-1,17,-15,-12,-13,-4,-12,-29
1522257329331963,-7,-76,-33,-14,-14,-7,16,2
1522257329332965,7,98,48,9,-3,3,-12,-5
1522257329332965,-17,-82,6,9,13,-6,-12,-13
1522257329347003,3,-29,10,-4,-17,-3,10,6
1522257329347003,-14,0,-1,-7,2,5,8,7
1522257329355024,-8,-17,-9,-8,-3,1,25,-4
1522257329355024,18,10,-22,0,6,0,2,-2
1522257329370064,-20,56,17,5,3,-4,-17,-10
1522257329370064,2,15,-6,1,-15,-9,16,1
1522257329371067,2,-18,-12,-9,-12,9,-12,-3
1522257329371067,-9,-6,7,10,13,-13,-2,5
1522257329392122,3,-7,-12,-5,20,10,7,3
1522257329392122,-12,38,5,-8,-28,-5,-17,-6
1522257329393125,-1,-91,-28,-3,0,-11,-1,-6
1522257329393125,-13,-52,-9,4,2,0,-6,9
1522257329407163,-16,80,12,2,5,11,12,1
1522257329407163,-14,4,4,-2,-2,0,29,-9
1522257329415184,35,-3,-9,7,23,-6,-30,-2
1522257329415184,-2,-24,-4,2,-29,4,42,-1
1522257329430224,-4,-48,5,-6,-5,-14,-5,-5
1522257329430224,33,-89,-13,-4,9,4,-7,20
1522257329430224,-36,62,35,6,-9,1,-3,-11
1522257329430224,13,-21,0,-5,2,-3,-19,-3
1522257329452283,5,-15,8,15,27,1,-13,0
1522257329452283,6,-20,-18,-33,-34,22,28,-6
1522257329453285,50,30,2,0,-1,-1,-11,28
1522257329453285,-21,100,3,-1,-9,1,-14,-17
1522257329466320,55,-69,-27,-8,-2,-4,15,2
1522257329466320,-87,76,29,20,26,-2,-5,-12
1522257329475344,-7,-49,-6,2,-16,1,9,4
1522257329475344,-5,-38,-9,-13,9,4,6,8
1522257329489381,27,-98,-41,-1,29,-18,-34,-3
1522257329489381,-35,81,42,8,1,2,-5,4
1522257329490384,2,-36,7,-23,-74,-9,12,-5
1522257329490384,-6,-52,2,1,1,0,2,0
1522257329512442,0,-67,-23,-7,4,3,-17,-3
1522257329512442,26,64,20,9,14,-8,2,-8
1522257329513445,-14,16,5,17,50,7,2,5
1522257329513445,-3,-5,1,-3,-22,-9,-8,-5
1522257329526479,-9,26,5,-4,-20,5,-16,1
1522257329526479,31,-124,-50,-17,-4,-6,3,-10
1522257329534501,-13,55,24,11,-3,-3,7,-2
1522257329534501,-29,72,21,7,15,-11,-16,4
1522257329549541,-25,-18,8,11,-6,16,30,0
1522257329549541,27,76,11,-5,-1,2,10,1
1522257329550544,-12,-65,-12,12,32,-13,-6,-4
1522257329550544,38,-30,-21,-36,-34,-4,-7,10
1522257329572602,-16,52,22,-6,-23,3,8,4
1522257329572602,17,-124,-22,-11,-12,4,7,9
1522257329573605,-18,-21,4,4,28,10,19,-5
1522257329573605,-1,127,38,26,3,-10,-29,-22
1522257329586639,69,53,-3,-1,-6,-5,-17,3
1522257329586639,1,8,1,16,18,0,19,-4
1522257329594661,-5,-17,-13,-9,-8,-10,-17,-6
1522257329594661,-7,-108,-34,-4,2,3,-8,8
1522257329609701,-2,10,12,-11,-33,-11,-1,3
1522257329609701,8,51,-3,-2,29,16,-2,-18
1522257329610706,7,-36,-13,0,-31,-18,-18,6
1522257329610706,57,-14,-14,5,29,15,32,-5
1522257329632762,-46,-52,-12,-31,-31,-5,14,10
1522257329632762,-53,87,43,11,-4,-4,-18,-7
1522257329632762,5,2,-14,-8,0,7,2,3
1522257329632762,11,-27,-5,1,15,-3,-15,-1
1522257329655823,5,-15,4,16,25,1,14,-2
1522257329655823,3,-128,-34,-14,-29,-6,2,4
1522257329655823,75,-40,-13,-9,-3,3,-22,3
1522257329655823,-26,96,30,12,-2,1,27,9
1522257329669861,-25,1,15,10,40,-12,-33,-7
1522257329669861,-9,-28,1,8,-3,4,-14,-1
1522257329670864,-6,-28,-13,1,-11,-7,5,-11
1522257329670864,20,-45,-20,-29,-34,13,44,12
1522257329691919,-11,17,-2,0,2,-17,-12,-11
1522257329691919,-16,24,-8,-8,-6,-4,11,6
1522257329692922,3,25,28,11,23,15,0,9
1522257329692922,-21,-28,-3,-2,-3,-7,-25,-14
1522257329715983,-10,14,3,-6,-5,13,6,8
1522257329715983,-2,-60,-6,9,17,-12,-21,-15
1522257329715983,14,16,-20,-24,-32,1,14,17
1522257329715983,-47,3,25,6,-3,5,19,-14
1522257329730021,14,25,2,12,10,0,-18,5
1522257329730021,57,-15,-8,0,-4,-13,2,17
1522257329731023,-34,-17,13,0,-9,5,25,-4
1522257329731023,14,-34,-9,-3,-2,-17,-43,-12
1522257329752080,5,46,3,-6,2,7,16,0
1522257329752080,1,-11,7,6,3,0,-20,-7
1522257329753082,-12,4,4,12,15,7,6,-3
1522257329753082,6,-28,-18,-11,-22,-6,23,20
1522257329775140,18,-91,-27,-7,-14,3,16,3
1522257329775140,-40,46,21,-3,-3,-8,-12,-17
1522257329776143,-32,22,13,6,19,-6,-17,-10
1522257329776143,-3,-40,-7,0,18,12,9,4
1522257329790180,-6,17,-4,0,3,13,28,-9
1522257329790180,34,-115,-46,-15,-30,-12,-20,22
1522257329790180,49,75,59,12,15,12,17,-5
1522257329790180,-12,-43,11,12,-4,-14,-21,11
1522257329812239,-5,-53,-12,1,8,-1,-11,-23
1522257329812239,4,28,10,11,2,-2,0,7
1522257329813242,45,-83,-35,-12,-3,-11,-9,1
1522257329813242,-19,62,3,-3,-12,-5,-2,-3
1522257329835301,1,51,29,5,-5,-5,-3,8
1522257329835301,-8,-44,-14,-10,6,9,11,4
1522257329836303,-44,19,-17,-3,1,-18,-33,-18
1522257329836303,92,28,2,-5,-3,3,-6,-1
1522257329850340,-82,52,38,16,-7,-2,-8,-4
1522257329850340,-13,1,17,15,17,8,33,-2
1522257329850340,-12,-48,-9,-11,-8,11,17,-3
1522257329850340,-3,-60,-15,-12,-3,0,-1,-7
1522257329872399,24,0,-18,-5,-14,0,3,-6
1522257329872399,24,49,12,1,10,3,-2,-2
1522257329873402,-14,-18,-6,4,-9,3,0,4
1522257329873402,-15,-5,-3,-4,5,-4,-4,6
1522257329895460,0,-8,-9,-7,-1,0,5,2
1522257329895460,-20,8,5,-5,6,0,-19,0
1522257329896463,14,-128,-30,-3,-5,-14,-13,-3
1522257329896463,-56,-5,-5,-9,-18,-2,3,27
1522257329909497,-7,-3,-1,-5,-3,-4,0,-42
1522257329909497,-26,91,42,9,4,12,0,-2
1522257329910500,-1,-22,-1,1,5,5,19,6
1522257329910500,15,-56,-8,13,37,-7,-25,-14
1522257329932559,9,-92,-20,1,16,15,20,17
1522257329932559,1,64,4,6,-23,0,10,4
1522257329933562,-31,74,16,-9,-14,-2,-21,-3
1522257329933562,-15,-17,4,5,-5,-5,6,-13
1522257329955620,14,2,0,-5,-7,-11,-31,1
1522257329955620,19,-26,-6,6,33,-8,-5,-12
1522257329956623,3,1,-1,0,10,6,16,27
1522257329956623,15,-78,-38,-16,-29,-10,-6,-8
1522257329969658,-16,0,-14,0,4,6,-5,3
1522257329969658,20,-9,10,-2,-16,3,19,-4
1522257329970661,0,-3,2,1,6,-1,10,-2
1522257329970661,41,-49,-12,0,22,0,-26,-5
1522257329992719,-25,50,10,10,-10,1,3,-5
1522257329992719,-40,-21,-7,-7,-10,-11,-12,-9
1522257329992719,-3,9,5,3,1,-1,4,-3
1522257329992719,10,-6,1,7,32,6,16,-2
1522257330015780,16,-48,-13,-6,-13,-19,-8,12
1522257330015780,11,38,-2,-3,0,15,3,10
1522257330016783,26,73,10,-4,-8,-5,3,-15
1522257330016783,-28,41,34,12,-3,7,22,15
1522257330029817,4,-17,-4,-3,-3,-4,14,3
1522257330029817,18,-83,-21,-11,-4,0,-29,12
1522257330030820,-1,-85,-19,9,28,-2,-17,11
1522257330030820,-56,127,36,24,-15,-9,-2,-20
1522257330051876,23,24,-1,-14,-13,18,4,8
1522257330051876,9,-65,-24,-6,-11,-5,22,-7
1522257330052879,2,-67,-13,-8,-7,0,-24,4
1522257330052879,-5,-30,0,-3,22,8,18,-4
1522257330075940,-61,76,47,14,-4,-15,0,-8
1522257330075940,-3,-31,-10,-6,-10,0,-8,-5
1522257330075940,-11,-15,0,2,18,-1,1,1
1522257330075940,-7,-96,-13,3,1,12,17,-13
1522257330089977,32,-76,-19,-17,-17,-10,-12,8
1522257330089977,-49,91,48,10,26,16,11,2
1522257330090980,-14,33,6,-4,-34,-17,27,-11
1522257330090980,1,-12,-9,-6,-1,5,-16,-3
1522257330112036,28,-62,-8,10,31,9,13,4
1522257330112036,-4,-9,-3,-10,-41,-13,-7,-4
1522257330113038,26,-27,-25,-6,-4,2,-12,6
1522257330113038,-1,70,12,-3,-10,-3,2,2
1522257330135097,0,-31,-4,1,16,-4,9,-6
1522257330135097,7,-29,-21,11,21,-9,-26,-5
1522257330136100,2,59,6,-12,-23,13,26,-11
1522257330136100,6,-75,-28,-13,-17,-6,-14,3
1522257330149134,37,-57,3,0,0,-8,-9,4
1522257330149134,-14,68,32,13,18,2,3,-10
1522257330157156,-26,-32,-5,7,-9,-2,-9,-6
1522257330157156,0,-14,-4,-5,-4,3,6,9
1522257330172196,-7,4,-9,-4,-18,14,3,-10
1522257330172196,16,-43,-20,-10,-11,1,7,-6
1522257330173198,24,-1,3,0,12,2,7,13
1522257330173198,14,79,19,6,17,-10,-17,-12
1522257330195257,-9,6,-4,-6,-16,-18,-4,7
1522257330195257,-3,-71,-29,-11,10,1,-12,-21
1522257330196260,-17,48,14,0,-23,0,3,-4
1522257330196260,-4,50,11,2,11,0,0,4
1522257330210297,0,4,6,9,-1,4,2,-3
1522257330210297,-7,-21,-9,-5,-2,-3,1,2
1522257330210297,10,-89,-18,-16,-8,-3,-23,3
1522257330210297,-37,64,16,2,-5,10,1,1
1522257330232355,6,68,20,15,12,8,12,21
1522257330232355,-9,5,9,0,23,6,11,0
1522257330233358,19,-8,-4,18,14,-4,-9,20
1522257330233358,10,-60,-21,-19,-46,-10,-4,-6
1522257330255417,5,24,-5,-6,14,-1,-20,-10
1522257330255417,30,-34,-3,-6,-26,2,26,12
1522257330256420,-2,13,13,-3,9,-2,-22,-7
1522257330256420,-7,66,8,4,10,2,6,-2
1522257330269454,17,-29,-20,-8,-4,-7,-11,9
1522257330269454,30,-87,-23,-6,0,-2,-7,0
1522257330277476,-14,127,39,15,-8,-12,-1,-13
1522257330277476,5,-40,-2,8,7,7,-2,8
1522257330292516,5,-30,-11,1,-3,2,-3,-3
1522257330292516,-3,-62,-26,-13,-4,2,7,13
1522257330293518,-23,7,0,-11,4,11,16,-4
1522257330293518,5,3,-7,-6,-6,-12,-14,7
1522257330315577,-16,5,22,7,5,-10,-10,-10
1522257330315577,-14,41,8,17,29,8,-5,-19
1522257330316580,14,-47,-16,-15,-61,-3,8,18
1522257330316580,-6,-56,-13,-11,-7,4,0,3
1522257330329614,2,78,15,3,3,1,5,-11
1522257330329614,-17,75,28,7,-6,-29,-18,12
1522257330337635,-8,-29,-10,3,17,-3,7,-24
1522257330337635,10,11,-3,-1,7,6,6,-6
1522257330352676,16,-32,-3,-6,-13,7,4,5
1522257330352676,12,-2,5,7,-2,4,9,7
1522257330353678,-20,34,2,3,9,4,3,-7
1522257330353678,13,-13,-5,-3,-8,-27,-39,-8
1522257330375737,-20,-19,5,5,12,18,34,-7
1522257330375737,-13,-6,3,-3,-9,-19,-16,-1
1522257330376739,20,-44,-7,-3,6,-7,-13,4
1522257330376739,-1,-89,-16,2,3,4,3,5
1522257330388771,-38,19,10,-33,6,7,-1,-14
1522257330388771,-4,16,-6,-1,-10,-10,-25,20
1522257330397795,11,-31,-11,30,13,7,18,-26
1522257330397795,7,16,-1,15,-1,-6,25,1
1522257330412835,3,32,1,-1,-15,5,-30,14
1522257330412835,21,4,-13,-15,-5,3,-1,-7
1522257330412835,-21,16,25,6,47,3,-5,2
1522257330412835,-10,-18,-4,-23,-32,10,5,5
1522257330435897,-13,-57,-21,-17,-9,-1,8,-4
1522257330435897,4,16,1,-1,-8,4,15,-3
1522257330435897,-20,42,23,2,14,1,-9,2
1522257330435897,-8,16,9,11,12,-12,-12,-15
1522257330448931,-14,-41,-8,6,7,-10,1,3
1522257330448931,18,-86,-30,-8,-12,12,11,-9
1522257330456952,2,-8,14,-1,-7,5,-1,9
1522257330456952,-54,102,37,12,31,-2,-16,0
1522257330471993,-6,62,1,-1,-18,0,14,-8
1522257330471993,-3,-63,-12,-14,-38,-6,-12,-3
1522257330472995,20,20,-6,-1,21,3,12,3
1522257330472995,-1,-35,-18,-22,-25,-18,-13,5
1522257330495054,17,-21,-3,21,12,-10,-8,-11
1522257330495054,15,-26,-7,-10,-22,-15,-13,7
1522257330496056,-58,-22,12,-13,-29,-13,-4,1
1522257330496056,-56,20,18,18,28,26,5,-7
1522257330509091,-22,-72,-21,-8,-4,1,20,-1
1522257330509091,22,51,23,10,12,8,5,7
1522257330517112,13,-85,-31,-15,-20,-11,-20,-7
1522257330517112,42,-8,-3,11,20,-3,6,9
1522257330532152,1,39,8,8,-3,-6,-9,-4
1522257330532152,-19,-2,11,2,10,-2,22,6
1522257330533155,-1,20,-15,-2,0,-8,-12,-28
1522257330533155,62,45,2,10,10,18,16,16
1522257330555213,-16,77,9,0,-7,10,1,7
1522257330555213,21,64,12,6,3,-4,-11,0
1522257330555213,6,22,5,-1,2,6,17,1
1522257330555213,5,-105,-25,-17,-23,4,4,-6
1522257330569251,17,-26,-4,-3,-5,-3,4,6
1522257330569251,-22,14,10,-2,21,5,17,-6
1522257330577272,-16,5,6,7,8,-3,-11,1
1522257330577272,13,-4,-11,-3,-6,3,4,-1
1522257330592312,27,-56,-12,-6,-3,-3,-15,-1
1522257330592312,-14,0,-9,10,7,1,9,3
1522257330593315,42,-4,-12,-12,-24,-3,-6,8
1522257330593315,-18,15,12,2,5,-9,-5,-8
1522257330615373,1,28,15,7,2,-4,0,4
1522257330615373,-13,-24,-1,-4,0,15,-4,-5
1522257330615373,13,-27,-15,-5,6,0,20,7
1522257330615373,12,13,-3,-5,-5,-1,0,0
1522257330638435,-12,-97,-15,-8,-17,-6,7,2
1522257330638435,-21,105,37,18,19,-1,-27,-12
1522257330638435,0,-16,0,4,-7,2,-12,16
1522257330638435,-12,-18,2,6,9,5,22,-18
1522257330652472,12,-20,-8,-12,3,-1,-2,2
1522257330652472,8,-24,-7,-7,2,-2,8,8
1522257330653475,27,-62,-28,-10,-8,10,-1,-4
1522257330653475,-11,46,16,-2,-10,-1,-16,1
1522257330674531,-4,55,11,14,6,-7,-13,3
1522257330674531,-9,-17,-3,1,3,-5,-11,-5
1522257330675534,-5,22,3,7,4,-5,3,-10
1522257330675534,8,-60,-19,-8,-2,0,-1,2
1522257330698595,-1,21,4,1,-4,-1,-2,-9
1522257330698595,23,1,-8,-7,14,2,-12,0
1522257330698595,-8,-61,-15,-12,-26,0,13,16
1522257330698595,25,96,51,9,-1,1,5,-2
1522257330712632,-43,-83,-3,5,10,-1,2,-10
1522257330712632,-12,-7,-9,-4,-9,-15,-18,-12
1522257330713635,-15,-27,-10,-5,10,0,-5,-21
1522257330713635,9,-53,-20,-4,-6,-12,-18,21
1522257330734691,13,23,2,8,15,0,13,2
1522257330734691,-10,-10,-3,-1,-15,10,12,4
1522257330735694,-10,-40,-2,19,69,-11,2,-6
1522257330735694,-15,52,-1,-1,-46,28,24,-6
1522257330757752,52,44,-5,-26,-21,-2,-4,-6
1522257330757752,-6,56,0,-3,-12,-5,-8,-4
1522257330758755,-8,21,11,-3,-6,-3,-3,-1
1522257330758755,-4,-44,-5,8,36,-6,-14,6
1522257330772792,5,-11,-6,1,6,0,-10,1
1522257330772792,-2,-16,-1,0,-3,5,13,-4
1522257330772792,2,48,7,-4,-6,-3,-14,-5
1522257330772792,13,-29,-12,-3,6,-12,-1,3
1522257330794850,-4,-8,3,7,4,-4,-7,-2
1522257330794850,34,-99,-26,-7,-6,-1,6,7
1522257330795853,-50,109,42,22,-6,-4,-7,7
1522257330795853,41,28,17,-3,-16,-8,3,-3
1522257330817912,-35,-87,3,4,5,0,8,-19
1522257330817912,-22,7,12,13,13,-2,-5,-11
1522257330818916,3,-35,-20,-10,-5,2,6,10
1522257330818916,-2,-51,-20,-9,2,-4,-9,-4
1522257330831949,-1,31,10,3,3,-5,-1,8
1522257330831949,13,2,-9,-4,-4,5,7,2
1522257330832952,17,-28,-9,-8,-9,0,0,3
1522257330832952,-19,3,-6,2,-1,-6,-4,-3
1522257330855011,3,-4,-6,-3,-2,-1,-12,6
1522257330855011,-9,-22,-2,-3,-7,-2,-2,6
1522257330856013,-1,10,-4,-11,-9,5,1,5
1522257330856013,12,-56,-10,-5,9,-6,2,-1
1522257330878071,34,78,15,26,29,-13,-35,-7
1522257330878071,-37,34,21,-13,5,39,60,1
1522257330879075,9,32,-3,-16,-43,-3,-11,-6
1522257330879075,-13,5,-7,-6,3,7,6,-23
1522257330892109,3,-43,-11,-11,-21,-8,-6,7
1522257330892109,7,0,4,13,12,-18,-20,-2
1522257330893112,6,-27,-10,-1,6,2,3,-10
1522257330893112,-19,-91,-22,-13,0,2,3,12
1522257330915170,-8,-3,-3,0,2,10,10,-7
1522257330915170,17,11,20,19,40,6,-20,-2
1522257330916174,1,-36,-11,-3,-48,-4,22,32
1522257330916174,-18,-78,-3,-4,-22,-17,-7,-7
1522257330938231,-35,4,9,1,4,-2,-13,-10
1522257330938231,0,-8,-12,-5,-13,3,7,11
1522257330939235,16,-4,2,-1,19,3,3,-9
1522257330939235,3,43,9,3,10,2,-5,13
1522257330952269,0,-28,-15,-9,-16,-2,12,2
1522257330952269,-21,-41,-8,-5,-16,-10,-24,-7
1522257330953271,1,-6,16,11,20,10,13,-7
1522257330953271,-6,30,2,-21,-10,-3,-5,-1
1522257330975330,5,13,-15,-52,-1,7,-1,-7
1522257330975330,16,-89,-20,25,-32,-19,-11,-4
1522257330975330,5,31,22,6,29,8,2,-3
1522257330975330,9,72,6,13,-1,5,2,-7
1522257330998391,-37,-26,6,-3,6,-3,-1,4
1522257330998391,-2,-33,-21,-18,-8,-9,-4,8
1522257330998391,-43,-6,20,36,-5,-3,-3,-5
1522257330998391,33,30,7,26,11,-4,1,-12
1522257331012429,9,2,4,-2,2,-1,2,3
1522257331012429,-18,54,1,-17,1,2,12,1
1522257331013431,12,-6,-12,-27,-7,-5,-20,0
1522257331013431,19,-78,-7,0,3,4,2,-4
1522257331034487,-24,39,5,9,-8,-1,-14,-10
1522257331034487,25,49,19,4,6,4,16,9
1522257331035490,-28,-21,-20,-8,5,1,-46,-11
1522257331035490,-6,0,-2,-19,-32,-12,19,3
1522257331058552,16,-15,-5,4,5,8,22,26
1522257331058552,14,-24,-5,-5,-18,-9,-4,-6
1522257331058552,19,-27,-2,-4,5,4,2,-2
1522257331058552,-51,-8,-15,3,8,-5,-23,-11
1522257331072588,-7,5,7,15,14,-1,1,4
1522257331072588,23,-25,-5,-2,-23,-4,21,4
1522257331073591,-41,20,11,-1,-3,14,-3,-8
1522257331073591,7,-44,-9,-11,-6,5,10,-6
1522257331094647,6,39,-6,-1,-9,6,6,5
1522257331094647,1,-19,-9,-5,16,-10,-26,-2
1522257331095650,25,-14,-9,1,-7,-11,8,-2
1522257331095650,-25,-6,6,3,8,-4,-5,4
1522257331117708,8,-21,2,11,8,-7,-19,-10
1522257331117708,-18,-27,2,0,-12,19,24,4
1522257331118711,13,14,-4,-9,2,-4,28,9
1522257331118711,17,14,5,-2,-7,-6,-16,-2
1522257331132748,17,-25,-1,-4,1,6,8,1
1522257331132748,7,60,6,0,9,-18,-50,-9
1522257331132748,20,-21,-11,7,3,7,33,-2
1522257331132748,7,48,18,5,9,13,12,2
1522257331154807,4,2,-12,0,-4,-5,-14,-11
1522257331154807,-32,24,13,-7,-5,6,5,0
1522257331155810,11,-40,-1,-2,1,-15,-9,-5
1522257331155810,-4,14,-9,-6,3,-4,-11,-7
1522257331177868,2,-34,-10,3,-6,3,10,3
1522257331177868,2,29,7,6,9,1,-3,-10
1522257331178872,-3,3,-3,2,6,-3,-4,9
1522257331178872,34,-81,-17,2,3,2,-3,7
1522257331191906,-20,13,16,14,19,9,30,-1
1522257331191906,-30,-24,-13,-13,-36,-14,-19,-8
1522257331199927,2,30,11,0,1,7,21,3
1522257331199927,14,-21,-13,-5,-11,11,-4,7
1522257331214967,14,-7,-2,-8,-5,-5,24,1
1522257331214967,16,5,-1,1,17,-2,-6,-6
1522257331215970,6,-20,-7,-3,-10,-8,-19,-2
1522257331215970,-29,30,5,4,13,-8,-9,-1
1522257331238028,1,6,-7,0,-8,-3,-8,5
1522257331238028,56,-52,-12,7,13,9,13,7
1522257331239031,-80,-24,19,5,-15,-9,-28,-9
1522257331239031,2,-71,-10,-1,7,19,49,6
1522257331252066,13,85,14,-11,-3,0,0,-7
1522257331252066,17,-13,-11,-2,8,1,1,-5
1522257331260087,15,-8,-15,-10,-2,-7,-26,1
1522257331260087,-15,61,8,2,3,13,21,0
1522257331275127,-31,-67,-14,6,-21,-3,-4,-6
1522257331275127,-13,-6,8,4,10,-3,-5,-2
1522257331276130,6,39,9,0,-12,4,5,2
1522257331276130,-1,-45,-10,-12,-6,-17,-21,-2
1522257331298188,11,62,24,4,4,4,-5,-1
1522257331298188,-30,-8,16,12,14,-6,5,-3
1522257331299192,12,-53,-13,-2,2,8,12,0
1522257331299192,-18,9,11,4,1,17,-9,13
1522257331311223,7,-31,-13,-8,-11,-2,-11,-5
1522257331311223,-7,-62,-6,-4,-4,-6,-5,3
1522257331320247,2,14,-8,-5,1,-8,-5,6
1522257331320247,3,96,17,3,9,8,17,-2
1522257331335287,-10,-17,-4,-2,-2,-9,-21,3
1522257331335287,-20,-14,-2,-14,-3,-1,3,-6
1522257331335287,4,-16,-5,0,-22,-14,-18,-6
1522257331335287,32,-89,-18,-8,-5,-17,-15,4
1522257331358348,-51,67,17,9,-4,3,-6,-3
1522257331358348,12,34,4,4,5,5,6,0
1522257331359351,3,-19,-9,-5,0,7,0,-2
1522257331359351,-4,9,9,6,1,-19,-19,-7
1522257331371382,9,-38,-11,-5,4,-1,-7,0
1522257331371382,-2,-6,-9,1,-14,4,10,2
1522257331380407,9,17,4,-4,11,11,0,6
1522257331380407,-12,-28,0,5,-6,-14,-12,-5
1522257331394444,-5,-4,-2,-5,10,-3,0,3
1522257331394444,3,4,-8,-2,0,12,30,-3
1522257331395446,-9,46,23,-9,-26,8,24,3
1522257331395446,-20,-22,-4,-7,-1,3,8,-9
1522257331418509,6,-6,-2,3,0,-8,-7,1
1522257331418509,-7,4,-2,2,6,0,-16,-4
1522257331418509,-4,-9,-8,6,12,-2,-1,-4
1522257331418509,8,7,-4,-2,-2,3,14,1
1522257331431542,14,-28,1,3,11,-7,-24,0
1522257331431542,-30,18,4,2,-5,-12,-14,0
1522257331439564,11,-25,-16,4,-10,-1,34,0
1522257331439564,-28,95,14,-18,-28,-6,-18,-11
1522257331454604,1,58,5,-5,-5,6,5,-5
1522257331454604,28,-1,-10,-5,-6,-6,-13,-1
1522257331455607,-4,-31,3,4,24,-6,-15,4
1522257331455607,-16,-7,-2,5,12,10,14,-6
1522257331477665,6,-33,-12,-6,-14,-7,2,-3
1522257331477665,-2,12,6,0,7,-3,-5,4
1522257331478668,2,26,7,2,0,-2,3,-7
1522257331478668,20,-22,-6,-1,1,2,3,15
1522257331491702,24,-106,-17,-8,-7,1,1,1
1522257331491702,-9,39,17,15,8,-7,-11,1
1522257331499724,-20,-29,10,20,11,7,-23,-1
1522257331499724,-26,-34,-3,-14,-21,-13,4,16
1522257331514764,-29,-7,-5,-5,-6,6,2,-25
1522257331514764,3,-24,-11,-15,-19,-2,0,-5
1522257331515767,12,-9,-6,0,1,-6,-11,-9
1522257331515767,8,24,6,11,21,2,-9,-1
1522257331537825,8,-9,-7,-3,-4,2,6,6
1522257331537825,-4,-3,-1,3,-1,4,8,2
1522257331538828,0,26,-2,-8,5,3,2,0
1522257331538828,5,-72,-9,-2,0,-4,-12,-2
1522257331560886,72,70,12,-1,8,-4,1,3
1522257331560886,-20,77,18,26,12,-12,-29,7
1522257331561889,-12,34,5,12,34,47,80,5
1522257331561889,-11,9,-5,-26,-62,-14,-27,-20
1522257331574924,-8,-41,-6,-6,-16,-6,-6,-6
1522257331574924,19,-9,-11,-14,-5,-8,3,-3
1522257331575926,9,-11,-7,-2,-2,-6,-5,-3
1522257331575926,-6,1,5,18,23,8,9,3
1522257331597985,-9,-3,4,6,6,4,0,3
1522257331597985,-3,-20,-3,-5,-6,7,11,7
1522257331598988,3,-1,-2,-4,-4,-12,-13,5
1522257331598988,7,-3,0,2,7,0,-6,-11
1522257331621046,33,-89,-41,-13,-10,-9,12,11
1522257331621046,-74,37,44,26,27,5,-3,-4
1522257331621046,4,79,12,-4,1,7,11,21
1522257331621046,-53,27,25,-1,-21,-9,-14,-37
1522257331635084,3,-58,-5,-3,-9,8,20,9
1522257331635084,-21,-28,-11,-8,0,-3,-21,-15
1522257331636086,16,-84,-27,-15,-16,-13,-22,1
1522257331636086,9,21,11,10,18,5,-4,4
1522257331657142,-26,36,17,9,18,0,-1,7
1522257331657142,29,-33,-21,-15,-8,9,7,-6
1522257331658145,-1,6,1,11,-2,-18,-15,8
1522257331658145,14,15,-9,-6,-11,-8,-29,8
1522257331680203,-12,-3,10,4,1,-1,3,-6
1522257331680203,9,-10,-2,0,-14,-4,0,-2
1522257331681206,0,-53,-12,-3,17,-3,-13,-14
1522257331681206,67,98,19,11,5,5,21,6
1522257331695243,-35,-25,8,3,-5,9,7,-4
1522257331695243,3,-45,-3,-5,-14,-3,7,2
1522257331695243,-34,-18,-1,-13,-23,-3,0,-11
1522257331695243,25,-70,-31,-8,17,-8,-2,2
1522257331717302,-3,47,2,-2,-5,-9,-31,-4
1522257331717302,24,29,3,-1,4,4,11,13
1522257331718305,15,-58,-11,-11,-7,-5,-7,-3
1522257331718305,-11,9,3,10,2,0,9,-13
1522257331740363,-4,4,-3,-3,3,5,-5,7
1522257331740363,17,-17,-13,-7,-9,1,-4,-17
1522257331741366,-1,-43,-10,11,-14,-12,13,17
1522257331741366,-25,75,19,-2,37,18,4,1
1522257331754401,-4,-9,11,4,-26,-8,7,7
1522257331754401,11,29,4,-8,4,-3,-21,-6
1522257331755403,-11,16,9,-7,-1,25,23,5
1522257331755403,10,-21,-11,-2,15,8,11,6
1522257331777462,0,-2,-4,3,-10,-11,8,-5
1522257331777462,-17,-53,-9,-6,-3,-5,6,9
1522257331778467,18,61,8,6,11,-4,-16,-9
1522257331778467,-15,-53,-8,-3,-9,0,8,3
1522257331800523,13,-29,-7,5,21,3,4,-7
1522257331800523,9,1,-15,-6,-10,-1,-13,6
1522257331801526,-14,39,13,-2,-8,2,-3,-20
1522257331801526,-8,-34,-7,-8,-8,-4,16,4
1522257331814560,15,-35,-20,-11,-2,-10,-58,3
1522257331814560,9,-4,7,7,9,16,52,3
1522257331815563,-31,-17,-2,-4,6,-3,-10,-1
1522257331815563,15,1,-4,3,11,3,-13,-3
1522257331837622,19,89,45,6,-12,-2,-3,-3
1522257331837622,7,6,-1,2,15,15,19,6
1522257331838625,18,-16,-14,-24,-35,-12,-5,-1
1522257331838625,-24,10,5,13,11,3,12,7
1522257331860683,-10,6,-8,2,-4,-4,-11,-5
1522257331860683,-2,23,1,-2,0,-3,-5,-8
1522257331861686,0,-6,4,3,12,2,1,-3
1522257331861686,9,-14,-10,-1,-9,-21,-17,10
1522257331874720,7,-26,-22,-16,10,7,10,-12
1522257331874720,-6,40,10,9,1,-14,-22,-1
1522257331875723,6,-3,4,5,1,15,16,-15
1522257331875723,15,-25,-8,-7,-31,-4,-8,3
1522257331897782,-36,-14,-6,1,14,7,14,-10
1522257331897782,3,-17,-16,-6,-22,-10,5,3
1522257331897782,15,21,11,4,9,-8,-24,-5
1522257331897782,-2,-18,0,-5,5,2,2,12
1522257331920843,5,36,3,-2,1,-5,24,7
1522257331920843,-6,1,6,-2,14,5,-5,3
1522257331921846,-19,17,14,25,10,-3,-7,-19
1522257331921846,-6,109,31,-12,-28,-8,-5,12
1522257331934880,-42,11,7,-8,-13,6,5,-4
1522257331934880,-6,-38,-8,-8,-3,-4,-9,5
1522257331935883,-3,0,-7,-4,-2,-1,-3,8
1522257331935883,5,-66,-18,8,13,-6,-1,-5
1522257331956939,1,-5,-5,2,0,1,2,-7
1522257331956939,-1,18,8,-4,-4,1,1,3
1522257331957941,3,-30,-14,-12,-1,-15,0,4
1522257331957941,15,-20,2,4,23,6,6,-1
1522257331981003,23,-63,6,30,28,4,-32,0
1522257331981003,-36,-71,-29,-36,-61,4,70,-19
1522257331981003,-5,114,27,-1,-16,-9,-11,-4
1522257331981003,6,-24,-12,-8,-13,2,2,-11
1522257331995040,-10,-7,3,1,18,6,-1,-4
1522257331995040,-6,-48,-6,12,24,-13,-28,3
1522257331996043,5,-46,-15,-8,-12,4,2,-3
1522257331996043,-9,7,2,-1,3,-1,2,-8
1522257332017099,6,-13,-4,-1,-4,-5,9,20
1522257332017099,13,29,1,5,2,-1,-17,-3
1522257332018102,-2,-16,-3,-1,11,-1,-7,16
1522257332018102,-18,8,11,6,-11,-5,-12,-13
1522257332040160,18,-1,-17,-7,-10,-1,24,-6
1522257332040160,-15,71,10,-1,-4,-3,4,1
1522257332041162,-4,7,-1,2,12,-2,-9,0
1522257332041162,-11,-23,-6,2,7,12,9,-2
1522257332055200,3,1,3,-9,-15,1,4,3
1522257332055200,7,-8,4,6,12,-2,8,2
1522257332055200,16,-76,-13,-5,4,-1,20,-7
1522257332055200,-1,93,-5,4,-33,0,1,24
1522257332077258,16,-50,6,-6,-1,-8,-14,-8
1522257332077258,-12,73,4,2,1,-1,-38,-9
1522257332078261,2,-15,12,8,11,2,6,2
1522257332078261,-11,-58,-6,10,28,10,6,6
1522257332100320,1,8,-4,-1,-20,-14,-21,6
1522257332100320,35,-59,-12,-14,-23,-1,-3,17
1522257332101323,2,-3,-7,-8,-9,-1,-4,-33
1522257332101323,-29,-5,12,4,7,2,-1,-10
1522257332115360,-13,26,9,15,17,7,12,0
1522257332115360,8,-14,-7,1,17,-6,-15,-6
1522257332115360,6,0,-8,-1,-9,1,-4,12
1522257332115360,0,-13,-10,-4,-6,-9,-15,-5
1522257332137418,-16,77,24,5,-6,-5,18,-1
1522257332137418,-2,17,12,8,-1,18,-14,-5
1522257332138421,2,-10,-8,-9,-3,-1,17,11
1522257332138421,-20,-3,6,4,30,6,-24,-12
1522257332160480,28,-95,-25,11,7,-7,-5,-5
1522257332160480,-34,80,26,-7,-23,5,-20,34
1522257332161483,4,4,6,2,-1,7,12,8
1522257332161483,41,-27,-8,-17,-19,-1,10,-7
1522257332174517,-5,23,1,-12,9,5,4,7
1522257332174517,-5,-27,5,17,1,-8,13,-4
1522257332182538,-12,-39,-15,-3,-1,-5,-11,-17
1522257332182538,-4,-2,6,7,20,-8,-17,6
1522257332197578,-20,-10,-2,0,-20,8,9,10
1522257332197578,1,23,2,-6,-5,-5,-7,-41
1522257332198581,-2,-8,-3,-8,-15,-6,-10,0
1522257332198581,30,45,-10,-11,-6,4,25,-1
1522257332220640,5,28,2,-3,-2,-7,-13,9
1522257332220640,8,-65,-12,10,19,12,0,9
1522257332221642,15,91,14,-1,-8,1,7,5
1522257332221642,-4,-48,-10,-2,1,-10,1,-14
1522257332234677,34,-5,-30,-20,2,1,-22,1
1522257332234677,-10,-94,-3,3,-11,0,23,6
1522257332242698,-39,45,28,6,2,-6,-37,-13
1522257332242698,0,44,1,7,-5,1,15,-17
1522257332257738,21,-68,-13,-6,-3,14,19,11
1522257332257738,-6,68,13,-9,5,2,8,-7
1522257332257738,-6,-26,-7,9,9,-8,20,5
1522257332257738,-19,-101,-9,-11,-15,-6,-1,-7
1522257332280799,-15,68,7,1,3,-5,-30,-14
1522257332280799,20,-9,-6,1,7,1,21,14
1522257332281802,-2,42,0,-8,-14,-15,-10,10
1522257332281802,-7,24,2,9,1,0,1,1
1522257332293834,27,17,-10,0,-4,-7,-7,-1
1522257332293834,16,-42,3,5,13,7,13,14
1522257332302858,-25,0,-5,-6,-3,-5,-7,3
1522257332302858,4,-22,-4,4,-13,-6,-11,-3
1522257332316895,-20,-70,-10,-6,0,6,14,-8
1522257332316895,18,37,1,2,6,-2,-13,-6
1522257332317898,23,-9,-6,11,14,6,3,-15
1522257332317898,21,-26,-3,-9,-8,3,-6,14
1522257332340959,-39,-21,9,-3,-7,-2,15,-7
1522257332340959,-2,72,19,6,7,-4,-1,6
1522257332340959,-1,-32,-6,-2,0,3,-6,3
1522257332340959,-9,-7,-6,-4,-11,-5,-3,0
1522257332353994,8,23,8,-5,11,7,4,0
1522257332353994,6,-27,-2,0,-10,0,17,-5
1522257332362015,18,31,2,5,4,10,0,-10
1522257332362015,-2,-29,0,1,1,3,-9,0
1522257332377055,-34,82,15,7,-2,-2,-3,-3
1522257332377055,-7,-16,-9,-3,6,-9,-3,-7
1522257332378058,5,-50,-8,-5,2,-1,-9,2
1522257332378058,16,77,7,-9,-16,-8,4,7
1522257332401119,-3,35,6,6,16,6,2,2
1522257332401119,4,-28,-11,5,9,2,-1,-19
1522257332401119,-14,-8,2,-15,-38,-2,11,13
1522257332401119,10,45,5,-2,13,3,-24,-10
1522257332414154,-5,-45,0,1,-7,5,14,-2
1522257332414154,-12,54,8,-4,-4,-16,-33,-3
1522257332422175,20,-28,-7,7,6,4,7,4
1522257332422175,-8,-25,-7,1,12,-1,6,-4
1522257332437215,7,-18,-3,-9,16,7,0,5
1522257332437215,-24,-9,-10,9,-32,-8,10,-6
1522257332438218,-6,7,0,-7,2,-6,-40,1
1522257332438218,-2,-7,3,-1,-7,7,24,6
1522257332460277,1,20,4,0,-4,-18,-5,-3
1522257332460277,14,-47,-10,-8,10,1,-5,1
1522257332461279,-4,-1,9,4,5,1,-1,8
1522257332461279,-7,21,0,2,4,2,5,-3
1522257332483338,13,-111,-31,-19,-22,-14,-9,-2
1522257332483338,32,73,-1,6,12,4,-15,-1
1522257332484341,-41,25,10,5,8,5,25,-10
1522257332484341,-25,-45,-3,-6,7,-2,9,0
1522257332497375,-16,-11,6,7,-15,-4,-11,-3
1522257332497375,-13,-63,-11,-10,-8,-1,0,1
1522257332498378,9,-2,-3,1,5,-1,0,-3
1522257332498378,-8,-1,-4,-1,4,1,2,0
1522257332520437,-4,16,3,3,-3,-5,-7,-2
1522257332520437,-1,-22,8,-3,5,-5,-6,1
1522257332521439,42,13,-11,15,10,5,10,-12
1522257332521439,16,-47,-8,-12,16,11,24,18
1522257332543498,11,-30,-14,-9,-24,-10,-24,1
1522257332543498,-9,37,9,-2,-11,-4,1,-3
1522257332543498,-7,-33,-1,-2,-13,-12,-9,3
1522257332543498,17,-6,-2,3,-11,-4,-9,-5
1522257332557535,-2,43,9,6,6,0,-1,-6
1522257332557535,-10,-33,-8,-5,8,3,1,1
1522257332558538,7,-22,-9,-8,-1,5,1,6
1522257332558538,8,-7,0,4,-7,0,0,17
1522257332580596,3,115,13,8,10,3,5,3
1522257332580596,-1,-17,1,-2,-2,-5,1,-19
1522257332581601,-12,14,-3,-5,0,2,1,-7
1522257332581601,36,3,-2,-3,-8,-8,-11,3
1522257332602655,23,-82,-5,-4,5,3,12,-3
1522257332602655,-10,91,30,2,-5,-2,1,2
1522257332603658,-3,-4,5,8,5,-1,-7,14
1522257332603658,-7,-24,-1,5,3,2,-3,-33
1522257332617695,-19,-8,0,9,21,14,1,1
1522257332617695,3,4,-24,-21,-27,-9,2,21
1522257332618698,22,-7,-4,-4,-8,4,-1,-9
1522257332618698,-27,73,13,6,0,3,-10,-1
1522257332640756,12,39,9,13,17,4,24,-1
1522257332640756,-18,40,9,3,-14,-2,3,-16
1522257332641759,-36,3,11,-2,6,-3,-7,22
1522257332641759,18,2,-3,-6,-14,-8,11,-3
1522257332662815,-44,19,-1,1,7,-2,-12,9
1522257332662815,4,-23,-10,2,8,8,-6,-14
1522257332663818,14,-18,-6,-8,-9,-1,-2,2
1522257332663818,11,-6,2,3,3,0,-7,-5
1522257332677855,-15,-55,-4,2,2,0,11,-10
1522257332677855,14,17,-7,-5,4,-8,1,12
1522257332677855,-66,101,30,25,41,2,-10,-15
1522257332677855,-28,-35,-4,-20,-50,-4,8,-3
1522257332700916,4,-30,-6,-7,-18,0,2,1
1522257332700916,-9,29,2,-4,3,2,3,-9
1522257332700916,17,-41,-15,-11,4,7,-5,-1
1522257332700916,3,45,14,18,25,-8,-19,21
1522257332722974,-15,-25,-18,-24,-36,-3,15,-24
1522257332722974,5,21,6,-5,0,5,-1,-2
1522257332723978,17,-48,-8,-5,3,7,23,3
1522257332723978,35,-45,-25,-5,1,-15,-25,-1
1522257332737012,-40,94,32,7,6,9,8,2
1522257332737012,-17,-65,3,8,-7,1,16,14
1522257332738015,23,-53,-4,-6,-10,-1,1,13
1522257332738015,-12,6,-4,4,-1,4,1,-7
1522257332760073,36,-116,-27,-9,7,-16,-14,0
1522257332760073,-22,-43,-5,0,10,3,-5,-2
1522257332761076,19,73,31,12,-4,1,4,7
1522257332761076,-15,5,1,-6,-11,-1,-4,-8
1522257332783134,7,2,5,10,-7,-2,-8,-2
1522257332783134,51,-128,-38,-16,16,7,10,8
1522257332784138,-80,43,7,2,-30,-11,-3,-15
1522257332784138,11,16,10,4,13,-8,-8,6
1522257332797172,8,90,11,8,6,-11,-27,-13
1522257332797172,-35,-93,-23,-2,-13,3,11,4
1522257332798174,51,62,-7,-11,2,3,-3,-1
1522257332798174,-16,31,23,4,-5,2,18,1
1522257332820233,11,-55,-12,16,49,12,-13,9
1522257332820233,33,-13,-8,-11,-19,-10,-18,-5
1522257332820233,-12,-61,-22,-31,-41,-12,1,-6
1522257332820233,-9,-23,-4,-11,-30,1,13,2
1522257332843294,-40,20,6,-8,-7,7,-3,-3
1522257332843294,18,42,-3,14,29,3,1,-2
1522257332844297,-1,-67,-6,15,14,-4,-1,-4
1522257332844297,-27,50,8,-4,6,10,2,-1
1522257332857331,14,69,40,10,-8,-12,-10,2
1522257332857331,-1,53,8,4,7,6,-12,-13
1522257332858334,-6,-32,1,2,-1,-9,-10,-6
1522257332858334,-16,-65,-22,2,12,-4,-6,-5
1522257332879390,56,-18,-15,-7,4,8,29,9
1522257332879390,-25,40,14,12,-7,0,14,-3
1522257332880393,3,35,6,8,36,-1,2,11
1522257332880393,0,50,-7,-10,-29,-6,-38,-17
1522257332903454,-8,-8,-3,-5,-7,-20,-2,2
1522257332903454,11,16,13,-9,-21,-7,-4,-1
1522257332903454,17,-54,-21,-8,-2,4,6,-7
1522257332903454,-6,-22,-7,-6,4,3,0,2
1522257332917491,-29,20,9,4,19,1,-8,-6
1522257332917491,25,-42,-12,3,-13,0,2,0
1522257332918495,0,-38,3,-2,-4,4,4,5
1522257332918495,7,-7,0,5,13,0,-2,11
1522257332939550,-2,-27,-13,-11,-13,-3,-7,-1
1522257332939550,-10,40,7,7,15,-4,-8,-9
1522257332940553,8,5,2,3,5,3,18,1
1522257332940553,12,-50,-13,-13,-21,0,0,5
1522257332963614,42,-32,-23,-14,-11,-6,7,-9
1522257332963614,-36,2,17,14,35,-4,-37,0
1522257332963614,18,-23,7,-3,-23,-13,13,-11
1522257332963614,-13,8,-7,-5,1,17,29,-3
1522257332985673,-32,-13,-5,-3,-4,6,13,8
1522257332985673,-36,46,11,-3,-23,-7,-15,-8
1522257332986676,-6,-36,-14,0,10,3,-16,-10
1522257332986676,3,-45,-1,8,19,-3,10,5
1522257332999710,-8,-2,-5,-9,-18,6,11,4
1522257332999710,37,-45,-7,1,-11,-19,-9,11
1522257333000713,-66,124,39,33,48,15,-1,-1
1522257333000713,44,-54,-8,-17,-12,12,17,4
1522257333022771,-38,-2,-7,-9,-12,2,-8,-10
1522257333022771,-5,35,11,0,-2,3,3,0
1522257333023774,15,-8,-9,-13,-26,-17,-10,-4
1522257333023774,-4,-2,5,10,18,-8,-18,-6
1522257333037811,-5,-3,6,5,-2,-2,0,0
1522257333037811,1,-60,-21,-7,3,0,-6,4
1522257333037811,25,-30,-14,-11,-10,4,18,15
1522257333037811,-20,54,11,8,14,3,4,1
1522257333059871,5,33,40,17,6,-1,-24,6
1522257333059871,-9,-30,3,19,-2,-36,-9,-1
1522257333060873,-20,31,-14,-18,-8,18,-11,-2
1522257333060873,1,-6,-6,3,3,8,12,-4
1522257333082931,5,-1,-16,-17,-22,-2,9,1
1522257333082931,0,-46,-4,-6,1,5,12,4
1522257333083934,15,52,7,4,3,-13,-14,1
1522257333083934,-10,5,-4,-2,-3,-13,-8,-1
1522257333096969,4,0,6,7,6,0,-5,-4
1522257333096969,34,-73,-10,-4,16,16,10,8
1522257333104990,-5,27,4,1,-22,-7,9,-13
1522257333104990,-26,85,10,5,11,6,-3,-7
1522257333120030,40,57,0,4,-3,-1,-13,-2
1522257333120030,-4,-67,-18,-13,-1,-2,16,-2
1522257333121032,-8,-4,-3,-4,-7,-3,-10,-4
1522257333121032,2,-9,8,9,1,-8,-4,2
1522257333143091,0,-3,-4,-1,4,-3,-4,-2
1522257333143091,-8,-11,-11,-7,-8,4,6,0
1522257333144094,19,-43,-9,5,6,-12,-32,4
1522257333144094,27,-15,8,-11,-8,19,13,6
1522257333157128,-15,57,2,2,6,-4,5,-14
1522257333157128,-32,4,12,-5,-17,11,12,0
1522257333165150,0,11,-1,-1,6,5,25,1
1522257333165150,-4,-28,3,9,5,-13,-10,-5
1522257333180190,8,-90,-26,-13,-12,-6,-25,1
1522257333180190,-6,91,24,5,5,7,3,-2
1522257333181192,1,-32,-13,-5,-12,0,-6,8
1522257333181192,-1,-22,-4,5,24,-5,-5,2
1522257333203251,4,-1,-2,-1,-13,0,8,4
1522257333203251,-8,3,1,-4,-6,-3,-10,-2
1522257333204254,4,-79,-14,-4,-1,16,29,6
1522257333204254,42,35,9,9,19,-7,-16,6
1522257333216285,-94,-44,-4,0,-26,-6,3,-13
1522257333216285,3,92,10,-10,15,8,-14,-7
1522257333225310,1,2,2,4,7,4,9,-5
1522257333225310,-9,-24,-5,0,-12,3,-8,-2
1522257333240350,40,-46,-6,5,5,-13,0,18
1522257333240350,7,-45,-6,-4,-23,-1,-3,13
1522257333240350,-17,11,14,11,20,-3,7,-3
1522257333240350,-9,5,10,3,7,11,2,10
1522257333263411,-10,-27,0,0,0,2,16,-10
1522257333263411,-6,4,-11,-2,-1,4,-3,-12
1522257333263411,63,32,-4,3,0,-14,-26,4
1522257333263411,-11,-73,-21,-15,-9,-3,-7,-3
1522257333276445,-15,16,10,3,18,12,16,-11
1522257333276445,3,6,-1,-2,1,0,15,-10
1522257333284467,5,2,-2,0,-3,-1,-13,-9
1522257333284467,18,6,-6,-7,-3,-4,23,8
1522257333299507,7,-19,-2,-3,-3,-2,-27,4
1522257333299507,6,24,5,1,2,0,2,-6
1522257333300510,3,-5,4,4,0,-18,-20,0
1522257333300510,6,-22,0,1,-3,4,-4,5
1522257333323571,-6,81,17,-1,5,3,20,-4
1522257333323571,12,-63,-17,2,-11,2,2,-9
1522257333323571,19,73,7,-15,-20,3,-6,1
1522257333323571,-23,-76,2,-1,-20,-6,2,-5
1522257333336605,-3,-4,2,0,0,-2,-3,5
1522257333336605,3,22,-12,5,21,0,-2,6
1522257333344627,-10,-61,-28,-11,-6,4,12,1
1522257333344627,9,52,11,6,-1,-4,-11,-11
1522257333359667,53,-2,8,7,10,1,1,5
1522257333359667,-5,-47,-21,-5,-9,-8,-18,1
1522257333360670,-42,-9,15,2,8,11,21,1
1522257333360670,16,-24,-17,-9,-7,-14,-37,-4
1522257333382728,-27,71,1,-5,-5,4,8,-5
1522257333382728,-46,16,17,6,6,-5,2,12
1522257333383731,1,5,4,1,7,-3,-6,-11
1522257333383731,4,16,8,9,-2,3,6,-5
1522257333396765,18,-75,-24,-6,5,-8,-8,7
1522257333396765,14,36,5,-13,-31,7,13,-5
1522257333404786,-20,-64,-16,-7,-7,-10,-21,-5
1522257333404786,-40,88,27,13,7,-7,0,-4
1522257333419827,21,-34,-6,-2,1,8,6,2
1522257333419827,46,59,-3,1,9,-2,-5,4
1522257333420829,-46,-28,3,5,54,5,5,4
1522257333420829,8,-26,-20,-17,-46,0,6,-5
1522257333442888,8,-47,-13,-8,-5,-7,-7,-6
1522257333442888,6,35,0,0,-8,-6,-9,-1
1522257333443890,-6,25,22,9,6,6,-3,3
1522257333443890,-12,-13,-8,2,17,-10,-7,-3
1522257333465949,-9,-20,3,0,-3,3,-20,0
1522257333465949,-17,-57,-7,-1,0,1,16,-3
1522257333465949,13,6,-7,1,-4,-3,-18,22
1522257333465949,-25,5,-3,-6,-11,4,19,-13
1522257333479986,37,-43,-20,-11,-22,1,10,2
1522257333479986,-6,2,24,18,26,-1,-12,1
1522257333480989,-27,-17,-20,-17,-6,-3,-13,-16
1522257333480989,53,-56,-17,-11,-12,-4,2,2
1522257333503048,9,115,31,7,18,8,18,9
1522257333503048,-11,-18,1,7,-17,-8,-14,-3
1522257333504051,14,-58,0,-2,2,5,9,0
1522257333504051,-21,7,-6,-7,-1,-4,1,-3
1522257333526109,-19,-66,-13,-3,3,-9,-12,-7
1522257333526109,-26,61,17,6,0,0,2,-7
1522257333526109,10,49,14,6,-8,-8,-5,-2
1522257333526109,-6,96,37,37,32,11,17,0
1522257333540147,-12,-31,-13,-21,-26,-2,8,3
1522257333540147,20,-63,-14,-24,-15,-2,10,15
1522257333541149,10,67,-2,-8,-17,-3,-7,-20
1522257333541149,-20,-2,6,6,12,0,-5,6
1522257333563207,-15,13,-2,4,8,-4,-6,-19
1522257333563207,52,-59,-23,-3,15,4,0,23
1522257333564211,-6,22,14,5,-18,-4,-8,-10
1522257333564211,16,14,5,-15,-15,-1,25,6
1522257333585266,-24,24,4,7,2,5,1,-3
1522257333585266,-9,-48,-14,-10,1,-1,6,-12
1522257333586269,19,-97,-30,-7,0,-5,-25,-2
1522257333586269,-34,70,27,9,8,0,2,-1
1522257333600306,4,-37,-10,-1,-15,12,22,8
1522257333600306,12,69,-3,-4,11,-1,0,-10
1522257333600306,-2,91,21,7,-6,-5,0,6
1522257333600306,1,-32,-18,-11,-2,-2,-21,-9
1522257333623367,-1,69,16,8,16,-1,0,9
1522257333623367,-31,-32,1,2,-9,10,4,-15
1522257333624370,1,63,18,5,-4,8,24,0
1522257333624370,-3,8,1,-3,-1,-3,-12,3
1522257333645426,-2,-23,5,21,36,-6,-9,-1
1522257333645426,-3,-4,-2,7,-7,-11,3,0
1522257333646429,0,-65,-16,-25,-36,0,-14,1
1522257333646429,31,-59,-37,-11,-13,-3,17,1
1522257333659464,-21,46,28,11,1,-6,-27,-2
1522257333659464,-2,-37,4,11,26,14,4,6
1522257333660467,32,-56,-13,-14,-13,-2,20,3
1522257333660467,26,-116,-24,-5,13,1,-11,0
1522257333683527,-47,30,21,7,3,-7,-5,3
1522257333683527,-11,29,-6,-8,-7,-2,-3,-11
1522257333683527,2,-20,-3,3,3,7,19,-3
1522257333683527,-2,-27,2,-2,3,-3,-19,3
1522257333705586,29,-16,-16,-5,-9,-1,0,-1
1522257333705586,-27,-20,11,10,13,-4,-9,-5
1522257333706589,27,12,-16,-16,-22,-5,-5,6
1522257333706589,-30,52,14,-6,-18,-1,-3,-14
1522257333719623,23,-13,-13,-5,6,1,-8,-1
1522257333719623,21,-23,-8,1,-9,-8,9,13
1522257333720626,-24,60,27,16,23,-18,-41,-17
1522257333720626,5,-40,-4,-12,-26,4,12,7
1522257333742685,7,-20,-5,-9,-11,-12,-24,-8
1522257333742685,32,-87,-23,-12,-10,-2,1,3
1522257333743687,-29,13,10,10,26,19,30,7
1522257333743687,-9,8,3,5,2,-2,-15,-7
1522257333765746,27,28,-10,-12,-9,1,14,-1
1522257333765746,-26,1,16,7,-3,1,-7,0
1522257333766749,-8,-26,-9,6,12,-5,15,-2
1522257333766749,-16,11,-2,0,3,-2,-5,6
1522257333779783,17,-60,-13,-6,-3,-1,-2,4
1522257333779783,-16,35,4,-17,-6,4,17,-3
1522257333780786,-1,-43,2,-2,-14,3,1,1
1522257333780786,-1,52,8,8,-6,-12,-19,-2
1522257333802845,30,-1,-15,-3,5,-1,13,-9
1522257333802845,-12,-32,-7,-11,0,-4,-23,2
1522257333803847,-38,59,31,12,9,7,23,2
1522257333803847,-11,-39,-2,4,13,1,-8,-7
1522257333825906,28,-57,-13,0,0,-11,-13,4
1522257333825906,-23,19,13,3,8,16,8,1
1522257333826908,21,-62,-27,-15,-13,-13,11,-2
1522257333826908,-5,-13,-8,-7,-1,-4,-9,8
1522257333839943,-19,22,8,14,0,4,9,-15
1522257333839943,6,-17,-7,-7,-6,-5,-13,7
1522257333840946,32,-38,-29,-17,-29,-2,-14,7
1522257333840946,-16,69,30,9,14,4,13,6
1522257333863004,-31,-21,4,3,-9,1,-4,0
1522257333863004,30,-11,10,7,16,3,9,-1
1522257333864007,-33,82,1,1,-5,13,0,-18
1522257333864007,10,-31,-11,-7,6,0,-3,-6
1522257333886066,4,-39,0,-1,-8,0,4,6
1522257333886066,-13,59,8,0,-2,-8,-1,-6
1522257333886066,-22,-11,2,4,3,-9,-21,-5
1522257333886066,14,-16,-19,0,18,3,5,-5
1522257333900103,-13,65,18,0,-21,-4,5,-1
1522257333900103,19,-38,-13,5,-8,-3,-33,-1
1522257333901108,9,-55,4,6,29,1,6,6
1522257333901108,-43,76,10,1,-7,-2,-6,-11
1522257333922161,-4,1,-12,-1,-1,-1,2,4
1522257333922161,-21,25,1,4,0,-1,11,-18
1522257333923164,35,-62,-21,-10,11,-3,-24,15
1522257333923164,3,-14,16,18,-6,10,29,10
1522257333945223,-6,5,5,-6,-4,1,3,2
1522257333945223,-4,-15,-3,-1,-6,1,23,-3
1522257333946226,-12,72,-2,6,9,-7,-15,-7
1522257333946226,40,-35,-12,-5,-4,-18,-18,6
1522257333960263,-20,4,10,0,-2,2,0,-3
1522257333960263,-4,27,6,-1,-12,-6,14,2
1522257333960263,3,-29,-5,-4,6,-4,-33,-9
1522257333960263,13,4,-9,-3,-6,-1,4,3
1522257333982321,-1,-28,0,-4,4,4,-7,17
1522257333982321,102,-44,-47,-20,8,-6,-15,3
1522257333983324,-32,27,47,22,-7,1,8,5
1522257333983324,-4,-31,4,-1,4,7,15,-5
1522257334005383,-10,-31,-5,1,16,8,-17,-7
1522257334005383,-2,-29,-16,-3,-18,-3,5,-2
1522257334006386,20,-28,-17,-7,-14,-9,4,1
1522257334006386,0,-23,-4,0,-1,1,-16,-1
1522257334020423,-10,23,5,9,13,2,46,-5
1522257334020423,-29,-8,-2,2,2,-9,-16,-7
1522257334020423,-3,40,5,-11,-1,-4,20,-6
1522257334020423,-10,-25,-1,-4,-10,3,-7,5
1522257334042481,-3,-17,-11,-9,3,-2,-8,-9
1522257334042481,13,-42,8,4,8,2,5,2
1522257334043484,-9,-5,-10,-10,-13,0,-6,3
1522257334043484,-6,-77,-7,-7,2,5,-3,5
1522257334065543,-28,0,23,17,10,2,-8,-14
1522257334065543,-8,37,1,3,5,-2,7,20
1522257334066545,28,-13,-11,-5,-11,1,3,4
1522257334066545,11,-2,-10,-7,4,-3,8,0
1522257334079580,-1,9,-5,-8,-6,-1,-4,-5
1522257334079580,-15,-26,-2,-1,-6,-4,-1,-9
1522257334087601,48,2,6,6,4,3,3,-4
1522257334087601,-46,46,25,17,6,-16,-12,-11
1522257334102641,20,-39,-5,7,12,-2,-12,6
1522257334102641,-35,74,10,-19,-38,1,-11,-16
1522257334103644,8,-25,-8,-9,1,10,13,-1
1522257334103644,11,21,-4,-9,-13,-3,-7,-9
1522257334125702,9,-6,-9,-12,-9,-9,-11,5
1522257334125702,7,-49,-4,6,15,-6,-10,4
1522257334126705,-29,-10,21,8,7,5,1,-5
1522257334126705,13,28,-1,-3,-1,5,18,0
1522257334139740,37,-10,3,1,2,-6,-14,11
1522257334139740,-13,32,15,13,-3,6,6,-11
1522257334147761,-32,20,1,-4,-16,-12,-23,-4
1522257334147761,10,-16,-8,-2,13,10,28,1
1522257334162801,-3,-5,-14,-14,-16,3,7,3
1522257334162801,9,12,3,0,7,2,-7,1
1522257334162801,0,-22,-8,1,3,-6,13,7
1522257334162801,22,-94,-19,-4,-3,-3,-9,-3
1522257334185862,-12,-43,-24,-7,-5,-7,-24,-10
1522257334185862,-46,-4,33,29,21,8,20,12
1522257334186865,-10,7,-11,3,7,13,17,2
1522257334186865,-15,94,11,-26,-41,5,4,-4
1522257334198897,11,-27,-8,-8,-4,-1,6,-6
1522257334198897,5,-14,-3,-1,5,-5,-18,-5
1522257334207921,2,-2,-2,4,13,-2,-3,1
1522257334207921,10,-14,-9,4,5,-2,-4,3
1522257334222961,-12,34,5,-2,-8,0,13,4
1522257334222961,0,14,-9,-10,-3,1,-7,-10
1522257334222961,-14,-5,18,17,21,-2,2,-7
1522257334222961,16,-81,-25,-9,-11,1,-12,9
1522257334246022,-63,113,65,17,11,-3,1,-6
1522257334246022,-16,-8,14,-1,-8,9,8,1
1522257334246022,17,-63,-16,-7,-6,0,4,-13
1522257334246022,-10,-3,7,8,8,-4,1,0
1522257334268081,11,-19,-10,1,-1,-5,-2,-3
1522257334268081,18,-16,-14,-8,-1,-8,-14,3
1522257334269084,-3,30,8,-2,-6,2,-3,0
1522257334269084,6,13,1,3,9,-2,-1,2
1522257334282118,12,-35,-13,1,-5,1,-10,10
1522257334282118,9,35,-5,-3,7,1,28,-17
1522257334283121,2,-17,9,6,-6,-18,-25,17
1522257334283121,37,-56,-17,-21,-27,8,18,-18
1522257334305179,-31,35,-5,-7,7,1,-9,3
1522257334305179,-16,27,-8,-8,-4,-3,-18,-9
1522257334306182,4,22,2,5,10,4,0,-5
1522257334306182,-14,2,9,13,10,-8,-7,3
1522257334319217,25,-37,-7,-4,-8,1,0,-5
1522257334319217,10,-15,-1,-1,1,-2,1,5
1522257334327238,-8,-6,-8,-7,-11,2,8,3
1522257334327238,-4,28,12,8,3,-9,-10,2
1522257334342278,12,-21,-9,-4,-6,-3,0,10
1522257334342278,60,-71,-2,10,6,-14,-8,7
1522257334343281,-81,56,25,1,-10,2,8,-26
1522257334343281,22,-91,-7,-15,-10,-2,-4,16
1522257334365339,-14,0,6,2,11,16,14,-1
1522257334365339,-6,-36,-12,-16,-28,-7,-7,3
1522257334366342,35,-39,-18,-9,-5,-7,-17,-3
1522257334366342,-11,23,2,9,15,0,9,-8
1522257334388401,-7,-12,-2,1,0,-8,-13,-2
1522257334388401,3,13,2,1,-4,-2,-6,4
1522257334389403,8,-81,-19,-5,-6,5,3,-7
1522257334389403,9,13,-11,3,21,1,-5,15
1522257334402438,20,54,25,19,2,-2,36,6
1522257334402438,-23,-50,-16,-13,-12,-5,-33,-8
1522257334403441,8,52,5,8,-4,-6,8,-11
1522257334403441,-3,-63,-13,-13,-11,-3,-6,1
1522257334425499,2,20,-8,-2,0,3,-1,-7
1522257334425499,-6,7,2,3,22,12,12,5
1522257334426502,10,-28,0,-5,-7,-1,-2,8
1522257334426502,-6,22,15,18,17,-3,-8,-4
1522257334448560,-5,-47,-12,-12,-26,-2,-9,-4
1522257334448560,-8,42,17,-1,2,4,12,0
1522257334448560,15,-23,-13,2,2,6,1,5
1522257334448560,-6,8,0,-1,-9,6,19,4
1522257334462598,-2,-67,-5,-7,-4,-16,-19,-3
1522257334462598,-64,55,17,5,-1,8,1,-8
1522257334463601,10,-30,-8,0,6,-13,-25,4
1522257334463601,-16,25,-1,7,3,0,3,-4
1522257334485659,3,-7,-6,4,4,-5,-14,-8
1522257334485659,25,4,-6,-10,-10,0,6,5
1522257334486662,2,-21,-1,-2,-7,7,21,7
1522257334486662,-22,34,6,-2,-11,0,-19,-11
1522257334507718,25,-34,-15,-15,12,-1,-1,4
1522257334507718,26,40,10,12,7,2,18,8
1522257334508720,-12,24,-9,2,0,-5,-5,-14
1522257334508720,3,39,12,-6,-12,-1,-11,11
1522257334522758,9,23,-9,-6,-4,-1,-1,4
1522257334522758,5,-70,-10,1,0,-4,7,1
1522257334522758,-9,7,-11,-12,-4,6,-6,1
1522257334522758,-6,-4,4,2,3,4,6,-11
1522257334545819,4,-3,3,2,5,-1,10,1
1522257334545819,-9,12,6,-4,11,-2,-6,-2
1522257334546822,17,-59,0,11,-14,-7,-10,7
1522257334546822,8,60,-7,-13,11,-8,24,7
1522257334567878,-50,-17,8,3,-13,2,4,0
1522257334567878,-30,26,1,8,-2,-11,-24,-27
1522257334568880,11,-12,3,-9,-8,1,2,5
1522257334568880,-47,19,22,10,10,2,-8,-9
1522257334582918,-4,-40,-14,3,9,1,-5,0
1522257334582918,17,-4,-3,9,7,10,18,10
1522257334582918,-12,27,6,-7,-2,-3,8,-7
1522257334582918,3,17,-6,3,-10,-2,-13,-9
1522257334605979,13,28,4,-8,-8,0,-8,-3
1522257334605979,1,-66,-4,-1,-6,-5,6,0
1522257334605979,-1,-13,11,1,9,-11,-23,0
1522257334605979,0,-67,-3,8,3,8,20,-4
1522257334628037,-23,-49,-8,-5,-3,11,10,-5
1522257334628037,2,5,-7,-7,-8,-5,-8,3
1522257334629040,4,7,3,3,12,3,13,0
1522257334629040,6,-4,0,-7,-5,-3,-17,-3
1522257334642075,-2,17,2,6,6,4,29,3
1522257334642075,13,-81,-24,-12,-9,-18,-42,-12
1522257334643077,-2,36,-2,0,8,2,8,5
1522257334643077,-8,65,0,3,5,-20,-36,-12
1522257334665136,15,-46,-7,-14,-8,19,34,-2
1522257334665136,-12,45,7,-5,-6,-3,-3,-6
1522257334666139,-12,-78,-3,-1,-5,-4,-7,-7
1522257334666139,-15,-5,2,3,8,3,3,-1
1522257334688197,24,17,1,2,-9,-8,-6,5
1522257334688197,20,32,-8,0,7,1,4,11
1522257334689200,-13,13,11,3,1,2,-6,3
1522257334689200,-1,-35,-4,0,-8,-8,-10,4
1522257334702234,10,-47,-6,9,5,-3,-14,-2
1522257334702234,-26,68,3,-13,0,7,13,-2
1522257334703238,17,10,-4,-16,-15,-3,-1,1
1522257334703238,-3,-17,-8,-16,-22,3,16,-3
1522257334725296,-23,21,1,2,5,-6,-8,-5
1522257334725296,0,-50,3,6,7,-2,-24,-2
1522257334726299,4,23,-11,1,9,4,13,-1
1522257334726299,2,56,8,6,-6,-12,-14,7
1522257334748357,61,-21,-7,-1,6,0,-10,4
1522257334748357,-32,4,17,2,-8,7,24,-1
1522257334749360,14,44,3,3,3,10,6,5
1522257334749360,13,-28,-1,4,5,-1,2,1
1522257334762395,-19,-4,3,-2,-5,-6,-7,0
1522257334762395,18,38,5,5,-1,-2,5,6
1522257334763397,3,2,1,-2,-6,-11,-23,-13
1522257334763397,20,-18,-17,-3,11,3,13,3
1522257334785456,-20,-57,-9,-7,-1,1,-22,0
1522257334785456,-11,51,16,2,16,0,29,-6
1522257334786459,-6,-14,-1,-1,4,2,24,6
1522257334786459,-8,9,0,-15,-33,-4,-14,-9
1522257334807515,-10,70,8,8,12,-1,-7,-2
1522257334807515,16,-64,-15,0,-12,-1,-9,-4
1522257334814533,0,3,2,9,13,-2,-2,-3
1522257334814533,0,-18,0,3,20,5,16,-1
1522257334822554,5,-27,-21,-10,-30,-6,-2,6
1522257334822554,-35,53,32,8,9,11,-3,-2
1522257334823557,-3,-16,-2,0,2,6,11,-1
1522257334823557,3,-6,-2,-5,-14,-12,-9,2
1522257334845616,5,-36,-15,-1,-8,-7,-5,-7
1522257334845616,24,-53,-13,-5,1,15,1,-3
1522257334846619,3,28,1,-1,-4,-2,-8,-3
1522257334846619,-4,-1,10,9,8,8,6,3
1522257334867674,30,17,8,2,8,-9,-8,-1
1522257334867674,-32,-48,-12,-2,-8,-6,8,6
1522257334868677,-11,12,5,-5,4,0,-26,-4
1522257334868677,15,-55,-20,-16,-8,9,25,1
1522257334882714,-23,47,21,-1,-9,-15,-39,-12
1522257334882714,16,46,6,1,-9,-7,-8,0
1522257334883717,2,-14,-7,3,24,10,7,4
1522257334883717,-3,-2,1,9,10,0,-5,2
1522257334905776,-12,32,0,-10,-19,10,30,-5
1522257334905776,17,-10,-11,-10,-19,-10,-16,4
1522257334906778,-18,-25,7,5,-6,-4,-5,-7
1522257334906778,19,47,8,7,9,4,-1,3
1522257334927834,-21,60,16,7,15,7,21,0
1522257334927834,0,-60,-13,7,7,-8,-11,-13
1522257334928837,-5,58,-3,-8,-6,2,13,22
1522257334928837,-9,-5,0,-5,-4,-8,-6,2
1522257334942874,-1,-9,6,2,9,10,17,7
1522257334942874,4,-26,-8,-7,1,-4,-26,0
1522257334942874,-6,8,4,4,-1,13,26,-6
1522257334942874,-19,-11,4,6,12,-5,-3,-10
1522257334965935,5,-17,-15,-9,-13,-12,-10,9
1522257334965935,18,-4,8,6,9,8,30,1
1522257334965935,-1,-36,-9,0,-13,1,6,-1
1522257334965935,-2,11,6,6,23,-2,-9,-6
1522257334987994,7,-18,-4,-2,-22,0,0,-6
1522257334987994,-15,-19,-12,-13,-10,-6,-20,-2
1522257334988997,-2,-42,-7,6,-7,-5,-2,0
1522257334988997,29,21,-5,-3,-6,1,11,7
1522257335002031,-15,6,9,8,12,3,3,-2
1522257335002031,-25,92,22,0,2,-1,-4,2
1522257335010053,11,-7,-24,-16,-23,1,-5,-6
1522257335010053,-2,2,14,19,14,10,-9,-12
1522257335026095,14,-56,-13,-6,-6,-2,-5,1
1522257335026095,-5,-46,-7,2,8,5,19,4
1522257335026095,-2,10,10,2,-7,-6,-12,4
1522257335026095,-16,-38,-15,-7,-5,3,-13,-6
1522257335048154,-2,27,6,4,12,2,14,-5
1522257335048154,41,-77,-15,-1,-9,-4,-1,12
1522257335049157,-6,42,1,-9,11,-7,10,-4
1522257335049157,-47,-46,4,-5,-11,-11,-19,1
1522257335062191,38,109,30,1,1,14,27,1
1522257335062191,-14,-2,-9,9,-3,5,1,-8
1522257335070213,19,-52,-15,-6,13,9,7,13
1522257335070213,-1,-2,-15,-21,-41,-18,-13,-14
1522257335085252,-16,36,18,13,12,-11,-17,-4
1522257335085252,10,28,1,0,7,-4,-10,-5
1522257335085252,4,6,10,5,-1,-4,-14,-5
1522257335085252,-1,-30,-13,1,6,2,13,5
1522257335108314,-10,-41,-18,-10,1,0,10,-1
1522257335108314,11,-18,-10,-10,-13,-8,-15,-5
1522257335109317,-4,-29,-10,-6,-19,-12,-2,-2
1522257335109317,17,64,30,5,5,-1,-6,-3
1522257335121348,-16,-3,-1,11,11,1,0,0
1522257335121348,-8,24,2,7,6,-7,-8,-2
1522257335130372,32,-27,-18,-4,0,2,5,1
1522257335130372,-5,-7,-3,0,0,8,16,6
1522257335145413,0,55,11,16,14,7,0,-6
1522257335145413,20,4,1,-10,2,-4,21,1
1522257335145413,1,-20,1,-2,-9,-9,-28,-1
1522257335145413,12,56,8,7,2,-2,25,9
1522257335168474,-28,-32,-16,-9,-1,-4,2,-2
1522257335168474,-1,-38,-7,-1,-2,-5,-41,-4
1522257335168474,52,-31,-7,1,-4,0,14,7
1522257335168474,-5,23,13,1,4,7,-1,-3
1522257335181508,-23,-80,-10,-10,-9,-4,-3,5
1522257335181508,-17,29,6,4,1,5,9,-1
1522257335189529,-3,46,-2,-6,11,11,-2,0
1522257335189529,10,-28,-12,1,-16,-11,-1,-10
1522257335204570,14,15,-5,-9,-5,-9,-10,-2
1522257335204570,-5,-9,7,-3,-12,9,-17,-3
1522257335205572,-27,12,3,6,5,-12,-7,-1
1522257335205572,37,-76,-19,-8,15,12,22,15
1522257335228634,-65,96,45,11,-9,-2,0,-13
1522257335228634,-2,-28,-12,-11,-10,-5,-8,-2
1522257335228634,-6,-21,9,16,20,7,11,1
1522257335228634,-10,16,-3,-12,-17,-6,2,4
1522257335241668,34,-27,-21,-13,-9,-10,-22,0
1522257335241668,-2,4,13,5,-5,-10,8,1
1522257335249689,-16,44,13,6,13,8,14,-4
1522257335249689,-5,40,4,-1,-2,-10,-27,-1
1522257335264729,19,-66,-18,-2,1,6,0,-1
1522257335264729,-4,0,-3,-7,3,-2,18,-2
1522257335265732,-9,-11,-5,-7,3,-8,-19,-11
1522257335265732,-2,-12,-7,3,-6,1,-4,-4
1522257335287791,44,-33,7,3,0,0,3,9
1522257335287791,-58,-57,-8,-8,-6,-1,3,-8
1522257335288793,-31,44,21,15,10,9,3,3
1522257335288793,29,-47,-12,-9,-1,8,18,3
1522257335301828,-42,83,6,-2,-12,-4,0,-10
1522257335301828,27,27,0,1,0,1,23,8
1522257335309849,-13,-17,-7,-6,-11,0,-7,-2
1522257335309849,-19,-2,4,2,6,1,-11,-6
1522257335324889,13,-22,-13,-3,7,4,4,0
1522257335324889,10,21,2,2,10,7,0,5
1522257335325892,-8,13,-2,-1,0,-16,-23,-5
1522257335325892,29,-1,2,8,18,4,10,1
1522257335347951,41,-121,-26,-19,-28,-15,15,5
1522257335347951,-25,92,18,16,7,10,1,-1
1522257335348954,0,-41,8,0,-7,-3,-2,6
1522257335348954,-18,-14,-12,-8,-9,1,-15,-8
1522257335371012,8,-10,-3,4,9,9,15,-4
1522257335371012,12,9,-4,1,1,0,-3,-1
1522257335371012,-2,-25,-19,-12,-10,-2,3,-4
1522257335371012,-9,-2,-1,1,-1,-5,4,4
1522257335385049,-12,19,7,6,4,-1,-13,-3
1522257335385049,12,18,4,0,1,0,-4,6
1522257335386052,-6,6,5,-2,17,4,0,1
1522257335386052,3,-114,-22,1,-29,-18,-6,-13
1522257335408110,-47,117,52,14,27,6,-25,5
1522257335408110,-6,15,-10,-11,-20,8,4,-9
1522257335409113,2,-38,-14,0,-18,-2,15,0
1522257335409113,-10,-11,3,-10,8,1,-13,-2
1522257335430169,6,-44,-17,-6,3,0,-6,-2
1522257335430169,10,-23,-2,1,8,-5,-2,-1
1522257335431172,-2,23,9,6,3,-2,-2,-2
1522257335431172,-8,24,-8,-2,-2,4,-3,2
1522257335445209,3,-4,1,8,-3,-11,-13,2
1522257335445209,17,2,15,16,20,11,26,7
1522257335445209,68,-9,-10,-8,-22,-12,-21,-9
1522257335445209,-61,18,11,8,10,-10,-16,1
1522257335468270,4,-20,-10,-22,-28,8,6,-1
1522257335468270,16,-11,-10,-3,3,-20,-20,0
1522257335469273,-11,-12,-5,-10,6,11,8,-3
1522257335469273,8,22,5,1,-11,-5,3,-1
1522257335490329,-7,-14,-3,7,7,-3,-11,2
1522257335490329,12,-41,-12,-6,-7,0,11,6
1522257335491332,-5,22,11,0,-4,-1,3,2
1522257335491332,0,6,2,2,8,3,4,9
1522257335505369,14,17,-3,8,7,-5,6,8
1522257335505369,1,72,16,-8,-15,6,-4,-17
1522257335505369,0,-4,0,-5,1,-6,-8,4
1522257335505369,12,-11,-3,-1,1,7,-12,-6
1522257335528430,9,31,-7,-1,3,14,34,-7
1522257335528430,-9,-47,-16,-1,4,-6,-3,8
1522257335529433,-6,6,1,1,-8,4,5,-8
1522257335529433,29,0,-1,1,-8,-8,-1,7
1522257335550489,-31,-103,-7,7,-4,-5,-9,-2
1522257335550489,8,88,8,-7,10,-7,-6,-8
1522257335552494,-13,-35,-6,-12,-16,0,20,5
1522257335552494,-29,-15,0,-2,9,1,-3,9
1522257335564526,23,3,5,10,11,-4,-14,-11
1522257335564526,-46,-44,4,5,-12,-3,-12,-8
1522257335565529,-5,70,12,7,0,-6,-17,0
1522257335565529,-28,14,10,3,15,14,28,-3
1522257335588590,-3,3,-15,-9,7,3,4,0
1522257335588590,5,-16,-1,0,-7,4,-3,3
1522257335588590,11,-7,-6,-5,-8,4,10,-1
1522257335588590,7,-2,2,0,-3,-2,-9,-4
1522257335610649,5,42,13,3,10,5,-7,2
1522257335610649,15,-63,-14,-1,-8,-10,19,7
1522257335611652,-19,-7,1,-1,3,-2,-2,-3
1522257335611652,13,47,0,3,-2,-4,-14,-3
1522257335624686,4,44,11,18,14,0,11,4
1522257335624686,7,-49,-11,-14,-24,-9,-24,5
1522257335625689,-17,84,9,2,7,5,0,-5
1522257335625689,6,-42,-17,-6,-2,0,-3,-3
1522257335647747,2,4,7,-2,0,2,-5,-6
1522257335647747,-7,-7,11,14,8,-4,-5,2
1522257335648750,-2,-21,-4,0,-3,3,1,5
1522257335648750,35,-55,-15,-5,9,6,12,-2
1522257335670809,-3,-8,-4,-13,-13,-12,-4,-1
1522257335670809,-5,92,9,5,3,20,9,-1
1522257335671812,-8,-91,-9,-5,-3,-11,-12,0
1522257335671812,7,10,3,-1,-3,-4,9,3
1522257335684846,4,-63,-17,-11,-16,-1,-8,6
1522257335684846,9,-23,-6,12,16,-12,1,-9
1522257335685849,4,-23,-11,-9,-17,7,13,4
1522257335685849,-13,26,-1,-2,-5,4,-7,-8
1522257335707907,13,-11,1,-2,0,-15,5,0
1522257335707907,-23,-26,11,-2,-6,-1,-25,-5
1522257335708910,2,8,6,10,10,3,16,2
1522257335708910,-6,3,-1,-7,-14,-6,-16,0
1522257335730968,0,59,1,-6,1,16,16,-2
1522257335730968,19,-74,-24,0,9,0,-15,-3
1522257335730968,1,28,7,6,3,-3,11,5
1522257335730968,-3,-30,4,-6,-8,-5,-10,1
1522257335745006,-16,4,1,2,0,7,11,-4
1522257335745006,-2,-9,-10,-8,2,-2,16,-1
1522257335746009,21,-34,-21,-10,-14,-15,-29,-15
1522257335746009,-19,54,26,14,15,6,10,7
1522257335768067,3,21,12,4,4,10,5,9
1522257335768067,0,-9,-3,3,5,1,21,8
1522257335769070,5,-27,-3,-7,-14,-10,-12,-5
1522257335769070,-12,-45,-8,2,-5,5,-6,-2
1522257335790126,-16,-13,-4,-11,-16,-11,1,-16
1522257335790126,25,87,-4,-15,-3,6,-5,3
1522257335791128,-46,-15,7,10,25,7,0,-2
1522257335791128,-3,44,8,5,-7,6,10,-1
1522257335804163,6,-13,-3,-2,-7,-3,7,3
1522257335804163,-16,-36,3,4,3,-3,-16,-1
1522257335813187,17,-19,-3,-3,-9,-9,1,5
1522257335813187,-31,87,10,-5,0,1,-6,-7
1522257335828227,-10,-90,-18,-9,-2,2,3,-2
1522257335828227,19,-5,-7,-3,-4,1,10,2
1522257335829231,9,-82,-9,3,4,0,-18,2
1522257335829231,-24,54,9,8,7,-4,9,-4
1522257335850286,-9,1,-6,-4,-8,-8,-8,8
1522257335850286,-15,-39,-19,-6,-6,5,3,-5
1522257335851289,5,42,2,3,4,-2,3,2
1522257335851289,30,-65,-12,-10,-8,-19,-21,-3
1522257335865325,-4,25,9,5,0,0,-1,-13
1522257335865325,-14,21,4,5,11,10,0,-1
1522257335865325,-12,-15,-1,0,-2,-5,-2,-3
1522257335865325,31,23,-11,-16,-6,1,-6,2
1522257335888387,2,5,-5,-1,-10,-5,-3,-10
1522257335888387,6,10,2,-1,-1,7,8,5
1522257335889390,14,48,11,10,12,-5,-2,2
1522257335889390,-10,-52,1,3,0,-4,2,2
1522257335910446,-11,38,1,-1,5,-3,-15,-8
1522257335910446,4,-63,-20,-12,-7,-2,7,3
1522257335911448,-28,79,29,2,-2,7,3,-10
1522257335911448,-3,-40,-8,2,-2,-8,-9,-7
1522257335924483,18,5,-2,0,0,-3,6,1
1522257335924483,0,12,-1,15,8,0,-8,-13
1522257335932504,-58,-16,11,1,6,-11,-26,4
1522257335932504,1,-58,-6,-15,-17,7,14,13
1522257335948547,-19,-23,11,-5,0,-4,-7,-4
1522257335948547,10,-29,-7,-8,-3,-8,-7,-11
1522257335948547,26,-7,-9,2,8,3,14,-3
1522257335948547,-7,41,9,21,24,2,1,-10
1522257335970605,23,-73,-26,-21,-35,-5,-1,7
1522257335970605,-6,39,23,0,1,10,10,7
1522257335971608,16,15,-2,4,-12,0,0,-4
1522257335971608,1,-6,0,-4,13,-1,-8,1
1522257335984643,12,3,9,10,15,-1,-3,3
1522257335984643,-40,34,3,-3,-15,-4,9,2
1522257335992664,-5,-26,2,-11,7,-3,-7,7
1522257335992664,16,-22,-19,2,-12,-11,-6,5
1522257336007704,-22,13,7,2,8,1,-5,-2
1522257336007704,4,-19,3,3,-5,-5,-14,2
1522257336008707,19,-42,-20,-17,-9,8,21,-5
1522257336008707,21,-53,-20,-3,4,7,23,-2
1522257336030765,-57,28,4,2,2,-5,-31,0
1522257336030765,0,-18,7,-5,-16,-2,-9,-7
1522257336031768,9,4,-11,-3,-13,0,3,16
1522257336031768,-6,-5,0,-7,5,0,-4,-10
1522257336043800,-8,27,-1,9,-2,-2,25,3
1522257336043800,-5,9,7,-2,26,-12,-40,-2
1522257336052824,8,23,13,2,5,18,25,3
1522257336052824,-2,24,9,0,1,1,9,-2
1522257336067864,14,-57,-13,3,4,1,3,-6
1522257336067864,5,34,3,-1,-12,-5,2,10
1522257336068867,15,-14,-10,-7,-6,8,9,-2
1522257336068867,-16,32,1,6,-3,-12,3,-2
1522257336090925,18,30,4,-8,-3,-2,-8,-2
1522257336090925,41,-15,-11,0,1,6,21,0
1522257336090925,-15,-42,-15,10,17,-15,-42,-15
1522257336090925,-9,39,19,-13,-14,11,7,4
1522257336103960,1,42,-2,-6,-2,5,8,0
1522257336103960,-17,-7,-2,2,-5,-4,-14,-5
1522257336112984,3,-20,-11,-2,3,-2,6,2
1522257336112984,-10,-40,-3,3,-5,-20,-25,-4
1522257336128024,14,-15,0,0,9,18,2,2
1522257336128024,6,-11,-1,-9,5,4,16,9
1522257336129026,0,14,7,9,30,1,7,-4
1522257336129026,64,45,6,-2,-29,2,-11,6
1522257336151085,-70,33,26,10,19,1,15,-4
1522257336151085,6,-3,5,17,-11,2,16,-3
1522257336151085,-15,6,0,-1,-18,-11,-35,1
1522257336151085,0,-9,-7,-8,39,24,26,-2
1522257336164120,16,-1,-7,-17,-39,-23,-7,18
1522257336164120,-2,-79,-11,-12,-1,-10,-15,-6
1522257336172141,-25,62,14,3,-4,0,6,-1
1522257336172141,-3,-18,2,6,-2,-6,-18,-1
1522257336187181,3,18,-2,12,21,6,2,-8
1522257336187181,23,-61,-9,-6,1,4,27,0
1522257336188184,-18,32,19,1,-9,-5,-30,-4
1522257336188184,-26,-20,-5,18,0,-1,4,0
1522257336210242,11,-31,-6,-5,-10,-7,-3,-4
1522257336210242,3,-10,-5,-3,10,3,8,5
1522257336211245,28,-88,-34,-14,-9,-2,12,-4
1522257336211245,-9,52,16,13,8,-6,-8,-2
1522257336224279,-3,63,18,-8,-13,-1,-4,-6
1522257336224279,-5,17,0,-3,-1,-4,6,0
1522257336232301,-1,-31,-2,6,-3,1,-3,-1
1522257336232301,5,-22,-16,-10,0,6,17,9
1522257336247341,36,-95,-30,-9,8,-2,-22,6
1522257336247341,-62,114,35,8,-3,2,-1,-8
1522257336248344,6,16,6,-1,10,-5,7,1
1522257336248344,-1,-1,-1,-1,-19,-8,-11,-9
1522257336270402,16,-33,-14,-2,-9,4,6,3
1522257336270402,-11,-72,-28,-14,-6,-5,-23,-14
1522257336271405,-6,105,29,7,1,5,8,-5
1522257336271405,-9,-48,-9,-6,-1,0,-4,-1
1522257336293463,6,0,-5,3,4,2,-1,5
1522257336293463,-6,-7,-2,9,14,-1,-13,1
1522257336293463,5,5,-11,-2,-24,-14,-8,-2
1522257336293463,5,-35,-13,-6,5,-1,0,-1
1522257336307501,-4,0,-1,-3,-5,-3,-2,-10
1522257336307501,-31,48,22,2,-2,8,1,-3
1522257336308504,4,-18,-2,-3,8,6,17,-3
1522257336308504,-20,30,17,1,-5,-7,-14,-6
1522257336330562,8,-68,-12,7,4,-2,-4,10
1522257336330562,9,13,-4,3,8,-4,-5,-19
1522257336332568,-1,-77,-16,-13,-23,-5,7,13
1522257336332568,0,-2,-12,-8,-2,-1,13,8
1522257336353623,-5,78,25,9,6,4,7,0
1522257336353623,3,38,11,-6,-6,0,0,5
1522257336353623,-13,-53,-10,-2,-2,-5,-17,4
1522257336353623,-1,14,8,4,6,7,9,0
1522257336367661,-1,-3,-6,2,10,-1,5,-7
1522257336367661,10,17,3,-15,-29,1,13,13
1522257336368663,8,-41,-10,-2,-1,-4,6,-3
1522257336368663,-3,10,-7,-1,-8,2,-24,-3
1522257336390722,-23,-10,-6,4,9,3,7,-3
1522257336390722,29,31,16,15,13,-3,14,1
1522257336391725,-12,16,4,-4,-1,6,-9,-6
1522257336391725,-1,9,1,-4,4,-3,17,-3
1522257336412780,-25,-21,-5,0,3,-6,-4,8
1522257336412780,6,-14,-7,-7,-12,-5,-7,-3
1522257336413783,-1,10,3,-9,-8,-2,0,7
1522257336413783,28,-57,1,8,19,15,12,1
1522257336426818,29,-29,-26,-13,-19,-9,-3,-3
1522257336426818,-38,56,10,16,3,2,-18,0
1522257336435842,22,68,13,9,7,7,9,-6
1522257336435842,-21,-5,-3,-3,0,-7,-10,7
1522257336450882,8,-31,-6,-9,-13,7,4,-3
1522257336450882,5,-39,-14,-5,3,-4,0,-1
1522257336451884,1,4,-8,0,2,3,-3,-4
1522257336451884,0,-5,3,-3,-2,-11,-3,-1
1522257336472940,28,-65,-22,-4,0,-1,-22,4
1522257336472940,13,73,45,21,7,-4,0,-7
1522257336473943,-23,-94,13,6,-13,6,7,-5
1522257336473943,-7,-20,5,3,8,5,4,2
1522257336486978,-16,0,8,0,-3,1,17,-2
1522257336486978,12,-49,-33,-12,-1,-1,-15,3
1522257336496002,6,52,-10,-2,8,-1,2,1
1522257336496002,-11,20,9,3,-3,-1,-2,-7
1522257336511042,2,17,2,-1,-1,-5,-2,-3
1522257336511042,-3,-25,-16,-14,-8,-6,7,6
1522257336512044,22,-46,-5,18,42,10,15,5
1522257336512044,13,-33,-13,-16,-25,-10,-11,6
1522257336533100,-30,74,21,6,-1,-6,-10,-19
1522257336533100,-8,-45,-8,-14,-25,2,20,-5
1522257336535106,-7,20,0,-4,3,-4,-6,1
1522257336535106,9,-14,-10,1,10,-1,0,0
1522257336547137,7,-32,0,4,14,0,-12,-1
1522257336547137,-7,-23,-8,-2,8,1,-2,3
1522257336556162,20,-7,-13,-4,-7,-2,0,-1
1522257336556162,11,-8,14,7,5,3,2,5
1522257336571201,-16,-49,-6,-5,-13,3,15,-13
1522257336571201,-34,110,61,21,7,-5,-19,9
1522257336573207,-31,-11,-7,-7,-5,0,5,-28
1522257336573207,18,-20,-1,3,2,5,6,0
1522257336593260,-28,-9,23,10,3,1,-3,4
1522257336593260,37,-50,-27,-7,1,-1,5,3
1522257336595266,29,-20,-13,-11,-12,-11,-13,8
1522257336595266,-50,44,15,6,1,6,3,-10
1522257336606295,30,-5,-19,-9,4,-5,-8,0
1522257336606295,9,-17,-18,-1,9,1,-14,-12
1522257336616321,6,-38,0,10,-26,-4,27,17
1522257336616321,-23,67,-3,-15,13,-8,-40,-4
1522257336630359,-4,3,9,-7,-40,5,15,13
1522257336630359,10,-90,-16,-5,2,-5,-10,4
1522257336632364,-45,-22,15,4,13,1,-10,-5
1522257336632364,1,-18,-5,-2,-8,5,35,-4
1522257336653420,-1,8,4,7,21,-4,-13,-2
1522257336653420,-1,3,-5,1,3,4,10,-4
1522257336654423,-2,29,2,-4,-3,5,0,-3
1522257336654423,2,-23,-8,1,-3,-5,4,3
1522257336666455,8,35,-1,-5,2,1,-14,-7
1522257336666455,-11,1,0,1,-6,-2,4,-3
1522257336675478,21,-7,-4,3,20,-3,-6,15
1522257336675478,7,33,2,5,-14,8,9,-10
1522257336690519,-13,-28,-8,-12,-26,-7,1,-3
1522257336690519,-16,-13,-4,-6,-2,-15,-12,-1
1522257336692524,-6,7,-2,-5,-8,-9,-24,-6
1522257336692524,2,-30,-10,3,11,10,11,-2
1522257336713580,-4,32,2,12,31,4,10,-2
1522257336713580,6,-15,-1,-3,-21,-1,0,3
1522257336714583,-16,20,6,-6,-3,7,-18,2
1522257336714583,2,-14,-4,-6,-7,-9,0,3
1522257336726615,4,11,7,5,7,6,7,-1
1522257336726615,4,-25,-9,-6,-6,-2,3,1
1522257336735639,19,50,-3,-3,-5,-3,4,3
1522257336735639,42,-45,-3,4,25,-6,-19,0
1522257336750679,-43,45,21,10,-9,3,1,-6
1522257336750679,4,17,-1,0,-12,-4,8,-1
1522257336752684,8,21,-22,-12,-14,-1,6,1
1522257336752684,14,-1,1,-2,-12,5,-7,2
1522257336772737,11,7,6,6,18,-8,8,5
1522257336772737,-10,8,-2,2,7,11,9,2
1522257336774743,-8,-43,-3,-3,-17,-10,7,-8
1522257336774743,6,-31,-13,-6,-1,-7,-13,-4
1522257336786774,-14,47,7,-1,4,11,-11,-1
1522257336786774,9,-8,-6,5,4,4,8,5
1522257336795799,-31,-53,2,0,13,2,2,-5
1522257336795799,-10,-20,-7,2,-4,-3,10,-1
1522257336810839,20,-55,-5,-3,-1,7,11,18
1522257336810839,-1,5,9,1,4,1,-5,7
1522257336811841,10,-15,4,-2,-1,-2,-13,-4
1522257336811841,-16,47,4,3,-1,-2,10,4
1522257336832897,24,-16,0,6,-5,3,-16,1
1522257336832897,-11,21,-3,-13,-14,3,4,0
1522257336834902,-3,-27,1,3,14,6,-10,-4
1522257336834902,6,34,8,-2,-5,-8,-7,-7
1522257336846934,0,20,-1,7,7,-1,24,2
1522257336846934,-7,2,2,6,4,3,0,-1
1522257336855958,9,12,1,-3,-10,3,17,-13
1522257336855958,8,-56,-13,-4,29,-6,-38,0
1522257336870998,-19,18,-7,-10,-34,-17,-13,-1
1522257336870998,28,74,13,-6,1,-1,-4,-9
1522257336872001,7,26,4,5,7,6,1,2
1522257336872001,-24,-17,-8,-8,-22,2,7,-5
1522257336893057,40,-96,-18,-1,4,-10,-27,4
1522257336893057,-72,57,36,10,-2,0,15,-3
1522257336895062,-1,11,-4,-6,-3,-3,-5,2
1522257336895062,1,32,12,2,1,2,13,-1
1522257336907094,-2,-64,-17,-10,-2,-9,-8,0
1522257336907094,37,-96,-32,5,33,0,-8,-3
1522257336916118,10,105,18,4,-13,11,28,5
1522257336916118,-20,-5,-1,-5,-17,-4,-3,-7
1522257336931158,-5,24,-10,-9,-5,-5,5,-9
1522257336931158,18,-39,-11,0,33,19,13,-2
1522257336932161,-4,-14,-5,2,-16,-21,-24,8
1522257336932161,4,-63,-27,-5,-5,1,4,-13
1522257336953217,-9,28,14,8,0,-4,-3,4
1522257336953217,10,29,8,0,-14,-8,-15,-11
1522257336955222,1,-7,0,-3,16,13,11,8
1522257336955222,6,-7,-5,-9,-25,-11,13,9
1522257336967254,-14,-58,10,0,13,-2,-29,1
1522257336967254,-17,53,4,3,11,-5,-5,3
