timestamp,emg1,emg2,emg3,emg4,emg5,emg6,emg7,emg8
1522257344723868,-2,6,-2,-1,-9,-4,-18,-45
1522257344723868,-10,-25,-20,-10,-24,-13,-10,-36
1522257344724871,57,6,9,6,1,1,14,11
1522257344724871,-20,-3,5,1,-4,-8,12,27
1522257344725873,13,11,6,2,17,20,10,41
1522257344725873,-56,1,3,0,8,1,-13,-64
1522257344726876,35,-11,-4,-6,-3,4,5,51
1522257344726876,-15,17,6,7,4,-1,-21,-31
1522257344733895,-64,-3,-13,-4,-9,-14,-6,-34
1522257344733895,52,-2,4,0,-1,-4,1,13
1522257344736903,16,12,-1,-2,4,-9,6,34
1522257344736903,21,-7,-1,-9,-14,11,26,29
1522257344753948,79,-10,-1,-1,1,9,-15,-13
1522257344753948,49,16,6,5,3,-1,3,46
1522257344761969,-46,-13,-8,2,-4,-7,-21,-81
1522257344761969,84,22,1,-2,0,0,11,47
1522257344768988,-33,-8,1,-1,-13,-12,12,25
1522257344768988,60,25,5,5,10,26,14,-28
1522257344792049,-55,-19,-1,-2,1,-18,-28,16
1522257344792049,11,3,-2,0,2,3,-1,-13
1522257344794054,5,-18,-1,1,2,-1,-10,-7
1522257344794054,-52,-16,-1,-3,-1,0,5,17
1522257344830151,33,7,4,4,5,9,19,32
1522257344830151,20,21,0,0,-8,-21,-15,-67
1522257344831153,32,-16,-1,-4,1,3,1,21
1522257344831153,-17,-12,-5,-5,2,31,3,-5
1522257344832162,14,-3,-2,-7,1,-16,-13,-7
1522257344832162,14,-3,6,5,-24,-2,3,2
1522257344836173,-58,8,8,3,4,-34,11,23
1522257344836173,8,38,5,0,-11,25,31,44
1522257344842182,-36,-36,-14,0,20,9,-61,-53
1522257344842182,-9,-18,-11,-6,11,18,-7,-3
1522257344851207,22,8,2,5,2,1,-9,4
1522257344851207,18,8,1,1,0,-15,13,31
1522257344857222,-36,2,4,6,-1,-5,19,-10
1522257344857222,-34,-13,-9,-12,-9,-2,-6,2
1522257344873265,16,19,1,-4,-9,5,8,38
1522257344873265,-36,-32,-9,-2,-8,-17,-19,-80
1522257344879281,35,1,7,2,-8,2,-2,29
1522257344879281,8,1,4,6,15,-4,-2,12
1522257344902342,68,0,-3,1,2,10,7,-14
1522257344902342,-19,0,5,0,1,-17,9,47
1522257344903345,37,3,-5,0,-3,18,7,-12
1522257344903345,64,6,1,-4,-4,-9,5,17
1522257344917382,-44,-24,-14,-11,-11,-1,4,-14
1522257344917382,22,-4,-4,-4,6,0,-24,8
1522257344918385,39,6,1,-5,-8,-13,-11,-13
1522257344918385,-113,-16,-6,-2,2,5,3,4
1522257344940443,25,-19,-6,0,-1,2,0,-17
1522257344940443,42,12,17,8,6,1,17,14
1522257344940443,-67,25,1,-4,0,1,13,-35
1522257344940443,-51,-9,-2,1,3,-11,-21,-1
1522257344962502,-2,3,-3,-7,-5,-8,-31,-44
1522257344962502,44,-2,-13,-1,1,-3,-3,-14
1522257344963505,-22,-15,5,6,-3,0,10,60
1522257344963505,60,29,8,6,13,9,16,0
1522257344977542,-81,-5,-1,-2,-21,-2,13,-17
1522257344977542,18,-11,-4,-7,-1,-13,-39,-44
1522257344978554,-8,11,-5,-3,-10,-1,7,19
1522257344978554,33,-9,0,-1,-5,-2,8,28
1522257344999601,47,-4,0,0,13,8,-6,5
1522257344999601,-32,11,3,0,0,-3,12,-9
1522257345000603,25,3,4,8,5,-27,4,13
1522257345000603,-23,5,-4,0,8,39,1,-34
1522257345022662,15,-20,-2,-1,3,0,-12,-5
1522257345022662,-8,0,-4,-1,-8,-5,-16,-20
1522257345023665,-31,18,1,-2,1,-3,19,36
1522257345023665,-10,-37,-10,-6,-8,2,-17,-14
1522257345037702,44,16,2,-2,2,-1,5,24
1522257345037702,-10,-7,-9,-6,-4,-5,-16,-12
1522257345038705,3,-7,5,6,3,6,1,3
1522257345038705,58,38,19,9,-1,-9,32,44
1522257345059761,-31,5,6,8,14,20,17,46
1522257345059761,-13,-33,-10,-9,-7,-13,-42,-47
1522257345060764,7,2,-8,-10,-15,-2,-2,-10
1522257345060764,-36,-5,-5,5,6,-13,-13,-20
1522257345082822,21,13,9,2,7,4,16,5
1522257345082822,23,11,14,9,-13,9,27,6
1522257345083825,4,7,0,0,5,-8,-17,7
1522257345083825,-13,-23,-14,-9,-8,13,1,-2
1522257345097862,92,10,-6,-6,-8,-4,-4,1
1522257345097862,42,18,2,3,11,5,7,16
1522257345098866,-114,-27,-5,-4,-2,-2,-14,-74
1522257345098866,-1,-3,1,3,6,-5,15,29
1522257345119921,-48,-3,6,3,5,5,-14,12
1522257345119921,75,5,-14,-1,-3,-9,0,-16
1522257345120923,74,24,12,-9,0,9,-11,-2
1522257345120923,-40,-5,1,0,2,-5,2,0
1522257345142982,-44,-17,-3,0,-10,-11,-25,-48
1522257345142982,1,11,9,4,0,-12,21,58
1522257345142982,14,-18,-9,2,7,14,10,-1
1522257345142982,-39,-1,-7,-12,-14,9,-28,-19
1522257345158021,-17,11,1,4,20,29,11,-3
1522257345158021,-19,-5,1,2,-9,-17,-7,5
1522257345158021,-48,-11,-1,3,-10,-8,16,-8
1522257345158021,123,34,8,-2,-5,-7,19,60
1522257345180080,-110,-29,-13,-6,-6,-9,-22,-51
1522257345180080,-5,12,3,0,16,16,0,34
1522257345181083,0,-15,1,3,3,-5,6,3
1522257345181083,67,32,2,-1,-3,-8,-3,-3
1522257345202139,-71,-11,-15,-8,-8,11,-6,-46
1522257345202139,-18,-12,2,7,12,8,10,32
1522257345203142,25,10,-4,-1,-9,-2,-14,-31
1522257345203142,-3,-19,15,7,4,-5,1,-6
1522257345217179,76,28,-2,-4,-3,-21,4,25
1522257345217179,-11,-22,-7,-6,-3,5,1,10
1522257345218181,-7,-9,-6,-4,8,0,-16,-55
1522257345218181,7,2,-5,-5,0,3,12,49
1522257345240240,-1,-5,-1,-1,-13,-25,10,7
1522257345240240,-49,-3,5,-6,-16,19,-4,-20
1522257345241243,69,10,-2,-4,13,-19,2,39
1522257345241243,-93,-11,0,14,5,18,22,12
1522257345262299,-33,-7,-2,1,6,23,-26,-66
1522257345262299,46,16,3,-2,-12,-11,8,29
1522257345263301,104,7,4,2,1,-1,20,44
1522257345263301,-100,-18,-8,-8,-7,-14,-22,-86
1522257345277339,100,2,-4,-2,-8,-13,-2,16
1522257345277339,-87,-15,-6,-4,2,-8,-12,-53
1522257345284358,15,-10,-4,-1,-5,9,-2,6
1522257345284358,55,18,18,4,6,-1,15,31
1522257345300400,3,6,7,6,1,1,-1,-8
1522257345300400,-3,5,2,-2,6,5,9,-2
1522257345300400,-23,-19,-1,-3,-5,-2,-19,6
1522257345300400,54,17,-14,-6,-4,1,-4,38
1522257345322458,-62,-3,3,1,-3,-11,-1,-1
1522257345322458,28,10,0,-2,0,0,3,20
1522257345323462,-111,-7,-3,1,-6,2,1,-9
1522257345323462,-6,-8,-4,-3,-2,-13,-1,6
1522257345336496,39,16,13,8,10,17,24,25
1522257345336496,13,-22,-21,-6,-1,2,-18,-35
1522257345344517,-63,1,-4,-5,-7,3,-21,-59
1522257345344517,14,-15,-2,-2,-4,-9,0,-31
1522257345360560,117,19,8,-3,-3,-14,-1,89
1522257345360560,-128,-12,11,7,4,13,-8,-55
1522257345360560,-27,13,-6,-4,-5,-7,-4,-13
1522257345360560,22,-4,-9,-8,-1,1,-10,2
1522257345382619,0,-21,-7,-1,0,-8,7,-15
1522257345382619,-3,6,-1,4,-2,-5,-5,22
1522257345383622,33,11,3,-4,-4,2,4,9
1522257345383622,-41,-11,-1,4,2,-14,-7,-13
1522257345396656,-43,6,1,9,-6,16,7,26
1522257345396656,61,-7,-6,0,41,8,-1,-18
1522257345404677,45,17,6,0,-12,26,20,65
1522257345404677,19,-11,-5,0,-8,-21,1,-36
1522257345419717,-24,-10,-6,-9,-11,-10,-25,-10
1522257345419717,47,24,9,2,-4,-8,5,37
1522257345420720,-6,-26,-5,-1,6,10,11,2
1522257345420720,-1,-5,-1,-7,3,11,-10,-1
1522257345442778,-8,-4,2,0,0,-4,2,-16
1522257345442778,81,6,-3,-1,-3,6,18,15
1522257345443781,-33,-7,-5,11,10,-7,-10,-18
1522257345443781,-32,12,-1,-4,-11,-4,-15,-19
1522257345456816,-84,-7,-6,-5,-10,-17,-10,-27
1522257345456816,31,-21,-7,-2,-3,1,-5,12
1522257345464837,-1,3,4,0,2,0,-1,3
1522257345464837,49,-4,-7,-4,-3,4,-8,-10
1522257345479877,-31,1,0,4,0,-10,9,9
1522257345479877,-60,-12,4,-1,-7,1,9,22
1522257345480880,39,1,-7,-8,0,-2,-3,-18
1522257345480880,-8,6,6,5,5,8,-11,-38
1522257345502938,22,3,-1,-6,2,4,11,16
1522257345502938,51,10,-2,0,-11,-26,-9,36
1522257345502938,-67,-33,-2,-4,-22,-10,-18,-17
1522257345502938,99,5,1,6,46,37,28,43
1522257345516975,-33,2,-4,-3,1,-13,-18,-45
1522257345516975,-3,-4,-5,-6,-8,-2,-12,-10
1522257345523994,58,11,-3,-3,3,-6,9,23
1522257345523994,-86,14,9,1,-8,-4,3,15
1522257345540037,-7,-2,1,2,0,13,8,7
1522257345540037,3,6,4,5,7,7,13,-1
1522257345541040,9,13,5,5,-1,3,2,11
1522257345541040,3,-12,-2,-1,-10,-6,-5,-16
1522257345563098,45,5,6,6,10,-7,6,-1
1522257345563098,-56,-7,-8,-9,-1,8,-3,-16
1522257345563098,4,8,0,0,-9,-13,10,43
1522257345563098,76,3,8,11,3,16,2,2
1522257345585157,-95,-23,-6,-3,-5,-3,4,19
1522257345585157,73,7,-4,-7,-8,-11,-34,-81
1522257345586160,11,4,2,-1,3,0,14,1
1522257345586160,2,7,-4,-1,-6,-9,-9,-9
1522257345600199,-13,-20,0,-1,2,7,7,-3
1522257345600199,-21,4,5,2,1,6,33,48
1522257345601200,31,-1,-2,-5,2,-2,-10,-5
1522257345601200,-69,-16,-9,-6,-9,-14,-22,-16
1522257345622255,52,11,0,-1,-2,5,-3,6
1522257345622255,-26,0,-7,0,-5,-8,-7,-27
1522257345623258,-22,-8,1,-2,-3,7,5,13
1522257345623258,-22,1,-2,-2,-1,0,21,-27
1522257345645317,55,2,6,4,2,-9,3,20
1522257345645317,-3,-8,2,-1,-3,25,-3,-1
1522257345646321,4,38,3,2,3,-12,-13,12
1522257345646321,-10,-27,-14,-13,-14,-9,-22,-33
1522257345660357,-10,1,-4,-3,-1,16,-3,-15
1522257345660357,15,9,11,6,5,-3,29,55
1522257345660357,-15,-14,7,9,6,4,-15,-89
1522257345660357,-31,9,3,1,-2,-6,-6,62
1522257345682434,-15,17,-2,-6,-2,0,-6,-30
1522257345682434,-38,-8,-11,-4,-2,-12,-6,3
1522257345683424,-8,2,4,1,2,6,22,22
1522257345683424,-30,6,5,2,1,-14,-2,9
1522257345705477,45,-14,-5,2,3,8,3,-10
1522257345705477,72,14,3,5,-4,-6,-5,-22
1522257345705477,-25,-17,-17,-10,5,11,-3,9
1522257345705477,-11,-3,-3,-7,-10,4,1,-15
1522257345720517,9,10,6,-4,8,20,32,54
1522257345720517,-35,4,6,23,1,-59,-57,-50
1522257345720517,61,-19,-11,-1,0,73,11,-28
1522257345720517,40,17,2,1,-2,-13,-5,-4
1522257345742575,-75,-32,-13,-14,-11,-10,-12,-19
1522257345742575,39,5,1,-9,0,-19,14,31
1522257345743578,-25,19,3,3,5,-15,2,1
1522257345743578,18,-8,-6,-3,-1,2,13,29
1522257345764634,-3,5,3,-1,-3,-13,-7,-3
1522257345764634,-57,0,-1,-3,-3,14,-6,3
1522257345765637,16,-11,0,-3,-7,-19,-14,-25
1522257345765637,38,-6,-1,-6,-2,9,13,19
1522257345779674,29,37,10,8,0,-16,13,55
1522257345779674,-32,-21,-14,-4,-4,10,-10,-13
1522257345780676,-1,-1,5,8,17,7,25,12
1522257345780676,5,-2,-1,11,-1,-20,-24,-16
1522257345801733,6,10,-3,-9,-13,-3,-14,-23
1522257345801733,-68,-22,1,-13,-10,16,11,7
1522257345809754,-4,-9,-4,-7,-6,-10,2,-25
1522257345809754,-23,-1,-1,0,11,-9,-19,-35
1522257345824794,72,-1,-2,4,5,18,3,21
1522257345824794,-12,1,4,2,-3,22,5,2
1522257345825796,-49,2,-6,2,5,-16,4,32
1522257345825796,35,5,3,-1,-8,3,13,19
1522257345847855,25,1,-1,-4,-8,-12,-26,-19
1522257345847855,1,-3,-3,-3,-2,-2,-2,-40
1522257345848858,6,18,8,2,0,-17,-9,11
1522257345848858,-8,3,-6,-1,11,31,24,33
1522257345861892,16,-8,2,3,3,-7,1,9
1522257345861892,-58,-9,2,3,4,11,19,-3
1522257345869913,86,36,10,-2,-3,-3,9,49
1522257345869913,-12,-13,-9,-11,-9,-11,-34,-72
1522257345884954,-30,-19,-5,-5,0,-17,-1,2
1522257345884954,29,-5,-3,-2,-6,9,1,-3
1522257345885956,-13,-6,0,1,-1,5,-2,-14
1522257345885956,57,21,3,5,1,5,28,50
1522257345908015,-23,2,-3,-1,2,-1,-11,5
1522257345908015,64,13,-3,-4,-4,12,26,44
1522257345908015,-16,-24,-5,2,13,-8,-28,-47
1522257345908015,-20,-3,6,1,5,9,6,7
1522257345922052,30,-11,4,6,-2,-11,0,2
1522257345922052,-60,32,5,3,8,0,-3,14
1522257345930073,81,-12,-11,-10,-13,26,-7,8
1522257345930073,-29,2,1,2,-2,-25,-12,-19
1522257345945113,20,4,3,8,17,13,13,14
1522257345945113,-10,-10,1,2,-5,-13,3,18
1522257345946116,-12,-3,-3,-4,-5,-16,-28,-54
1522257345946116,-46,-12,3,-4,2,-20,-3,0
1522257345967172,-58,2,-10,-10,-76,13,20,-15
1522257345967172,-12,-9,-3,5,55,21,-6,27
1522257345968175,-4,-8,-2,-2,-4,-11,-7,15
1522257345968175,-28,-15,-5,-5,-2,3,1,16
1522257345982213,67,16,3,-2,7,-10,-7,-9
1522257345982213,-6,-5,4,1,-11,-3,18,-14
1522257345990233,-93,-19,-8,-3,-10,-9,-12,5
1522257345990233,34,6,0,7,6,3,-8,-18
1522257346005273,47,14,5,6,19,-1,3,25
1522257346005273,-19,5,-4,-6,-9,3,-18,-47
1522257346012292,55,15,4,1,7,3,22,32
1522257346012292,-7,-19,0,0,-8,3,2,14
1522257346027332,24,-22,-17,-13,-2,-4,19,-1
1522257346027332,-46,-36,-9,-2,-1,-13,-49,-44
1522257346028335,74,17,13,14,15,25,18,30
1522257346028335,-128,1,-3,-1,-11,-1,30,46
1522257346042372,43,7,4,5,10,8,-37,-97
1522257346042372,12,-10,-6,-8,9,-34,-19,23
1522257346050393,69,6,-8,-10,-46,16,5,26
1522257346050393,31,18,7,3,2,5,28,60
1522257346065434,-25,-11,-12,-7,3,-25,-25,-26
1522257346065434,-14,-3,1,-4,7,9,8,-5
1522257346065434,-49,1,10,0,-3,-19,-6,-6
1522257346065434,62,11,-2,-5,-4,16,25,77
1522257346087493,-94,-20,-2,1,6,3,-3,-24
1522257346087493,37,-7,-12,-3,-18,12,13,7
1522257346088497,-20,0,-11,-3,6,-23,-30,-22
1522257346088497,19,5,9,5,-4,-8,-8,-42
1522257346101530,28,-8,-1,3,6,1,13,23
1522257346101530,-26,4,1,0,3,-9,-3,-9
1522257346110553,-4,5,2,-1,4,14,15,-4
1522257346110553,-25,-3,-13,-2,5,4,-9,14
1522257346125593,48,16,2,3,3,23,10,34
1522257346125593,-31,-29,-14,-9,-15,-21,-33,-108
1522257346125593,-68,-12,-3,-2,1,-4,9,40
1522257346125593,10,-11,-1,-5,1,-10,-16,-48
1522257346147652,-20,18,8,0,2,6,14,33
1522257346147652,53,25,11,3,2,14,15,-6
1522257346148655,-33,-12,-2,-3,-5,-12,-23,-23
1522257346148655,46,-7,-2,9,16,5,-1,40
1522257346170714,-33,-11,-8,-6,-9,-5,-7,-61
1522257346170714,-37,24,3,-1,-7,1,17,-30
1522257346171716,-49,-9,10,3,1,6,2,43
1522257346171716,46,5,-12,-10,-11,-8,-37,-107
1522257346184751,2,3,-1,0,5,5,21,98
1522257346184751,64,9,1,5,-5,-12,1,-9
1522257346185753,7,6,1,4,4,-3,-8,-46
1522257346185753,-6,1,2,-3,2,18,18,23
1522257346207812,50,-2,-1,1,1,-13,-17,0
1522257346207812,-24,-8,0,-2,-5,-23,-24,10
1522257346208814,-12,7,-4,1,-7,30,4,-24
1522257346208814,70,6,3,-2,1,7,-10,-9
1522257346230873,-53,-17,-4,-3,2,-9,-12,-55
1522257346230873,13,-7,3,-3,-8,4,9,83
1522257346231884,8,-5,-4,-5,-1,-12,10,-5
1522257346231884,-4,0,2,-3,-10,-16,-30,-53
1522257346244910,-8,8,4,3,1,21,6,47
1522257346244910,59,15,8,7,3,1,25,49
1522257346245913,-32,-1,-1,1,4,-18,-12,-16
1522257346245913,-27,-2,2,2,8,13,18,53
1522257346267973,53,1,-8,-9,-4,-10,-20,-55
1522257346267973,-31,-13,-12,-11,-12,-13,-20,-18
1522257346267973,19,12,1,-2,2,9,28,82
1522257346267973,-46,-10,0,-5,-9,-17,-21,-24
1522257346291033,-90,-30,1,2,-3,0,-2,-7
1522257346291033,65,14,2,4,3,8,16,43
1522257346292035,-2,-14,-18,-8,-6,-10,1,-62
1522257346292035,-6,52,22,11,6,5,1,-8
1522257346305070,-70,-6,2,-6,-2,-2,1,33
1522257346305070,4,-5,1,0,5,-2,-7,-29
1522257346306073,36,-1,5,5,5,-6,12,24
1522257346306073,-39,-21,-5,2,1,19,-6,-20
1522257346327129,-62,9,-5,-2,-4,3,-7,-36
1522257346327129,1,12,0,-8,-8,-20,16,48
1522257346328131,-15,-13,2,0,-3,34,12,-37
1522257346328131,-7,-3,-3,3,2,-59,-30,46
1522257346351192,119,20,6,9,22,8,0,-6
1522257346351192,-31,-10,1,2,-17,32,13,-16
1522257346351192,-11,5,-5,-9,-6,-14,-1,27
1522257346351192,86,14,0,-4,-6,5,19,-22
1522257346365231,32,-10,3,-1,1,-12,-5,27
1522257346365231,-118,-28,-5,1,-21,-5,-13,-9
1522257346366234,-3,-5,-5,2,11,-21,-30,-46
1522257346366234,39,-9,5,5,1,33,26,10
1522257346387288,-13,7,3,1,12,1,-1,9
1522257346387288,74,24,3,3,1,13,10,40
1522257346388291,22,-5,-3,0,-10,-12,-1,-1
1522257346388291,-80,-24,-12,-12,-4,-6,-18,-11
1522257346410350,39,-3,-2,-3,-12,-2,-5,-26
1522257346410350,-17,-9,2,2,7,-2,2,10
1522257346411353,-4,25,7,-1,-3,-10,-18,-2
1522257346411353,39,17,-4,3,2,-6,14,17
1522257346425390,23,-3,-2,-1,1,-2,21,36
1522257346425390,-73,-6,-3,-4,2,34,-24,-61
1522257346425390,-46,-19,-5,3,9,-9,-6,-9
1522257346425390,17,-2,-1,-6,-9,3,2,-8
1522257346447448,-47,-13,1,1,-11,-22,-4,23
1522257346447448,87,18,5,7,28,12,13,8
1522257346448453,13,18,-2,-1,-4,4,-12,1
1522257346448453,-63,-9,-8,-7,-11,14,5,-37
1522257346470510,-54,-29,1,5,2,3,-15,-4
1522257346470510,36,12,-5,-7,-1,-27,-23,-25
1522257346470510,23,-22,-6,-5,3,16,15,6
1522257346470510,11,-2,-5,-3,-3,-10,4,-4
1522257346485549,23,24,8,10,7,11,-5,-13
1522257346485549,18,-12,-6,0,-7,-6,11,19
1522257346485549,-3,-4,3,1,-6,-8,-9,12
1522257346485549,-12,-25,-13,-6,-2,-10,-35,-74
1522257346507608,70,10,-3,-8,-12,-8,14,28
1522257346507608,-24,14,5,-1,3,15,-5,-21
1522257346508611,11,-19,-7,3,-2,-9,-3,5
1522257346508611,14,-5,4,4,8,3,11,46
1522257346529667,-23,24,-5,-4,-3,6,0,-16
1522257346529667,127,2,9,3,3,-27,-4,17
1522257346530670,-88,-3,-1,-5,2,19,16,-4
1522257346530670,3,-9,-5,-3,-3,-3,-38,-33
1522257346544707,-5,-4,-7,-4,-3,16,-8,-20
1522257346544707,-41,-3,2,3,2,-7,7,2
1522257346545709,26,-43,-9,-4,2,-11,-1,-8
1522257346545709,41,60,24,6,-2,-1,-1,12
1522257346567768,-102,-30,-11,1,1,7,0,-27
1522257346567768,24,3,-1,0,-3,-4,3,26
1522257346568771,-20,1,-1,1,2,7,8,-16
1522257346568771,-23,-19,-6,-6,4,0,-4,-31
1522257346589827,33,11,4,-4,-11,-14,-4,5
1522257346589827,-22,3,-2,-3,-5,-9,3,-1
1522257346590829,44,13,4,4,4,2,14,28
1522257346590829,-29,-13,-3,-2,-2,13,-5,-17
1522257346604867,-4,21,-9,-3,-2,-6,3,1
1522257346604867,13,-50,-4,-5,2,3,-9,28
1522257346612888,30,34,16,2,1,-7,5,7
1522257346612888,2,12,8,8,18,4,33,36
1522257346627928,26,-15,-3,3,-8,9,-7,3
1522257346627928,-115,-3,-9,-8,-14,0,-14,-57
1522257346627928,50,13,2,-2,-4,-5,12,56
1522257346627928,-81,-17,0,0,-2,-2,-9,-54
1522257346649987,76,4,3,2,7,-4,-2,21
1522257346649987,44,2,0,1,7,2,9,16
1522257346650990,-22,5,-2,1,-4,-4,-13,-31
1522257346650990,-3,5,-7,-2,-1,1,31,58
1522257346665028,-25,-20,-7,-7,2,6,5,-10
1522257346665028,9,0,0,0,-2,-2,-23,-20
1522257346666030,0,-2,-6,-4,-2,-1,-13,-2
1522257346666030,51,-13,-1,3,-6,2,1,15
1522257346688088,-25,15,15,7,0,-1,10,-7
1522257346688088,69,1,-2,-3,-11,-29,8,11
1522257346688088,-57,3,-1,-8,11,34,11,7
1522257346688088,-3,-6,0,8,-3,-6,-9,-1
1522257346710147,-18,-1,1,0,4,-3,-5,-20
1522257346710147,-6,-1,-5,1,-2,27,-13,-13
1522257346711150,45,1,-3,-3,-7,-36,-7,7
1522257346711150,23,15,8,-4,-5,-3,9,42
1522257346724184,1,-12,-4,-5,-2,0,7,-5
1522257346724184,0,6,3,6,5,-7,19,50
1522257346732210,0,-15,-8,-1,-11,0,-42,-101
1522257346732210,16,-20,-13,-6,0,-4,1,12
1522257346747245,-48,38,7,-5,-3,-9,0,-15
1522257346747245,14,-11,-5,-5,-1,3,13,24
1522257346748252,-2,-10,1,3,1,-1,14,7
1522257346748252,-14,-9,-3,-2,-6,-8,-15,-70
1522257346770306,-3,-15,-4,6,7,6,-21,-34
1522257346770306,34,-1,-8,-10,-14,-5,-6,23
1522257346771309,-18,14,-1,-8,-8,-10,4,5
1522257346771309,-53,-16,-1,4,7,8,6,-17
1522257346784344,69,5,4,3,10,-3,17,72
1522257346784344,29,5,0,1,0,12,-26,-111
1522257346792365,-61,5,5,9,-2,7,13,53
1522257346792365,15,-9,-7,-11,-12,-10,-17,-11
1522257346807405,3,-9,-9,-5,-4,-12,-7,-26
1522257346807405,-4,12,4,5,11,1,34,7
1522257346808408,11,-3,-3,3,4,3,2,99
1522257346808408,-42,8,-4,-2,-4,-15,-33,-87
1522257346830466,32,-5,1,-2,-1,-3,-1,51
1522257346830466,-63,-8,6,-1,2,3,-2,-32
1522257346830466,-18,-11,2,-2,-4,-5,-1,-37
1522257346830466,51,19,4,-5,-5,2,16,65
1522257346844503,56,-2,2,8,7,12,-8,-25
1522257346844503,-84,5,-2,2,-6,-9,8,7
1522257346852525,14,4,7,5,18,51,6,9
1522257346852525,5,21,-5,-4,-4,-32,-4,24
1522257346867565,-101,-20,-9,-9,-10,1,-7,-25
1522257346867565,10,7,10,7,-1,-1,21,46
1522257346868568,-25,-3,3,6,-6,-22,-31,-56
1522257346868568,23,-4,3,1,7,21,26,53
1522257346889624,1,-2,-6,-6,0,-22,-13,-2
1522257346889624,1,9,-7,-6,0,7,-7,22
1522257346890628,70,-7,-8,-6,-3,-3,5,-23
1522257346890628,18,-3,-4,0,-3,7,1,-6
1522257346904663,-43,-4,-6,-5,-9,-7,-19,-25
1522257346904663,1,-4,-1,0,6,-2,-3,7
1522257346912685,25,8,9,-1,-2,-6,3,10
1522257346912685,72,3,3,2,-1,2,-14,-24
1522257346927725,-83,-12,0,2,1,-2,8,18
1522257346927725,42,1,-1,1,2,-11,-2,-2
1522257346928728,-21,21,-5,-8,-4,-4,-10,13
1522257346928728,-106,-17,-1,2,5,0,-28,-28
1522257346949784,29,1,-2,-4,-7,30,-1,-61
1522257346949784,24,13,0,-5,-3,0,-2,33
1522257346950786,8,-25,-11,-2,-1,-13,10,11
1522257346950786,-22,-4,5,3,3,-5,12,21
1522257346964825,44,17,8,5,-5,-1,11,29
1522257346964825,-36,-12,-4,-1,-5,-2,-5,-38
1522257346972845,32,17,-1,-2,3,0,-3,-18
1522257346972845,17,7,-11,-4,1,4,15,38
1522257346987885,8,-6,-2,-3,-4,1,-4,-13
1522257346987885,-14,-5,0,2,8,-8,13,16
1522257346988887,-1,-7,2,0,-7,32,-1,-35
1522257346988887,-4,3,10,4,5,-25,-4,7
1522257347009943,65,17,4,0,1,-18,21,52
1522257347009943,-37,-5,-10,-7,-8,-12,-43,-35
1522257347010946,20,4,6,-4,0,3,1,-3
1522257347010946,-79,-12,-1,-2,-8,4,0,-37
1522257347023981,-17,3,9,12,13,13,14,36
1522257347023981,-4,-23,-7,0,1,-9,21,-17
1522257347033004,23,-2,-10,-4,0,7,-35,-16
1522257347033004,4,5,-5,-9,-10,18,1,1
1522257347048045,-5,-12,-10,-9,-4,-12,-3,-4
1522257347048045,-16,-30,-9,-3,-2,4,-5,-9
1522257347048045,44,40,15,9,-2,-9,33,41
1522257347048045,-76,-25,-2,1,6,-1,-7,-2
1522257347070103,-18,-5,-2,-7,-5,2,-9,-22
1522257347070103,25,6,5,5,5,12,-5,-8
1522257347071106,-35,-21,-8,3,-4,-16,-8,-4
1522257347071106,66,8,0,2,-2,3,10,36
1522257347093164,1,3,-3,5,13,-1,4,4
1522257347093164,2,-2,3,4,2,0,-20,-26
1522257347094167,-49,-3,-2,-7,-21,-31,1,3
1522257347094167,83,-11,-5,-4,-10,13,-1,0
1522257347107202,-35,-6,-3,-4,8,26,19,10
1522257347107202,90,31,9,6,10,7,4,78
1522257347108204,-117,-25,-7,-4,6,-2,-17,-47
1522257347108204,-10,-7,-4,-3,-13,-12,3,-3
1522257347130263,12,29,12,4,-3,-11,-4,-4
1522257347130263,-19,4,5,7,5,-6,14,10
1522257347131266,15,-11,-3,0,8,12,-1,-13
1522257347131266,-7,-4,-2,-3,1,12,1,21
1522257347153325,-27,-10,-3,-3,-5,-8,-4,-7
1522257347153325,-2,8,3,-7,-7,-4,-12,-20
1522257347154327,33,12,0,2,0,-4,9,19
1522257347154327,6,-4,-4,-3,5,-5,12,-20
1522257347167362,37,-2,-1,9,3,15,-22,-28
1522257347167362,-16,9,-2,6,0,-29,-15,3
1522257347168364,11,6,-15,-11,1,11,-1,0
1522257347168364,43,-15,0,-5,-2,10,-5,3
1522257347190423,-7,-6,3,3,-2,3,4,-1
1522257347190423,-13,0,-5,-5,-6,-6,11,0
1522257347190423,78,0,2,-1,1,-12,4,11
1522257347190423,-58,11,-3,0,-1,-5,3,-17
1522257347213484,6,-1,-9,-8,-13,-14,-2,19
1522257347213484,-47,-4,5,-2,1,11,14,-21
1522257347214487,21,0,1,6,4,-3,-4,-22
1522257347214487,4,6,10,6,6,-2,-10,-13
1522257347227521,3,12,5,-1,6,-1,15,24
1522257347227521,33,-18,-8,-6,-4,18,-12,17
1522257347228524,-18,-1,4,-2,-5,4,-3,9
1522257347228524,-20,12,1,-9,-9,-21,-14,-49
1522257347250583,7,-8,-2,6,-5,8,18,75
1522257347250583,-17,2,0,2,1,-14,-24,-87
1522257347250583,59,-2,-4,0,4,33,11,14
1522257347250583,-81,-1,-3,2,-3,-14,-10,23
1522257347273644,2,-17,-11,-11,-13,-16,-4,-23
1522257347273644,-15,1,3,2,3,2,12,-13
1522257347273644,35,-16,-2,-2,1,-12,3,21
1522257347273644,-46,15,6,4,5,-12,-13,-6
1522257347295703,-43,-51,-25,-12,-2,4,-14,-31
1522257347295703,19,39,-2,-7,-3,13,2,17
1522257347296706,1,-17,17,8,1,-8,5,-7
1522257347296706,-10,6,2,13,9,20,26,34
1522257347309740,-31,5,4,3,-3,-12,-15,-32
1522257347309740,-16,-18,-11,-9,-6,4,-9,3
1522257347310743,-14,-5,-11,-9,-4,-5,0,24
1522257347310743,56,4,1,-3,1,-2,5,14
1522257347332801,24,11,3,4,4,1,-5,-13
1522257347332801,-14,-6,2,0,0,-2,2,10
1522257347333804,-44,-1,-2,-2,-6,-16,12,23
1522257347333804,6,-17,-7,1,-2,12,-5,-28
1522257347347841,3,14,3,-1,2,4,-5,1
1522257347347841,40,3,3,8,4,11,16,-5
1522257347348844,7,-2,-1,4,-4,-20,-13,17
1522257347348844,5,-2,-2,-6,-3,3,-7,21
1522257347369900,-55,2,3,0,-2,7,19,-16
1522257347369900,1,-3,-1,-2,-5,39,-7,-22
1522257347370903,-43,-5,-2,-1,-1,2,-19,-73
1522257347370903,79,4,3,-2,6,-2,1,17
1522257347392963,63,16,2,-5,-8,-14,4,21
1522257347392963,-18,-12,-2,0,4,-11,14,16
1522257347393964,-21,0,-7,0,-1,3,5,-12
1522257347393964,-9,7,-4,0,0,-3,-2,26
1522257347408001,42,-4,-3,3,-6,-5,-4,10
1522257347408001,7,8,7,0,-2,-6,-4,4
1522257347408001,-8,6,1,-4,0,2,1,-1
1522257347408001,-37,-9,3,3,3,-1,10,-45
1522257347430060,-18,-24,-12,-7,5,0,-23,6
1522257347430060,-21,2,0,-8,-6,-14,-8,5
1522257347431063,8,-8,-9,-5,-6,-2,-4,-7
1522257347431063,81,12,11,1,1,-2,3,0
1522257347453121,20,17,7,5,-3,-12,12,0
1522257347453121,-91,-17,-1,1,4,8,9,48
1522257347454124,26,4,-5,-2,1,0,-11,-29
1522257347454124,-6,-15,-15,-3,-6,10,-16,-20
1522257347467158,107,1,2,-2,-2,5,-1,-8
1522257347467158,-64,-3,2,2,0,-15,-1,-1
1522257347468161,-12,4,8,2,0,-15,18,63
1522257347468161,-11,-4,1,-3,-2,17,-9,-33
1522257347490219,1,9,6,3,6,-29,14,31
1522257347490219,1,-13,-15,-10,-7,-17,-49,-89
1522257347491222,-4,1,0,0,4,-4,8,23
1522257347491222,23,5,1,1,-8,-7,7,9
1522257347513281,-35,-2,5,0,0,7,0,-2
1522257347513281,52,3,7,7,3,9,18,42
1522257347514284,-4,10,1,0,3,-5,-13,-46
1522257347514284,-34,3,-3,-2,-2,-3,2,60
1522257347527318,-4,-8,-10,-7,-5,-1,-9,-43
1522257347527318,17,3,-7,-3,7,15,17,16
1522257347528321,-2,2,2,1,-5,6,-21,-31
1522257347528321,75,2,2,3,-2,-9,4,38
1522257347550379,-91,11,15,3,1,-4,1,-41
1522257347550379,53,2,-3,-2,2,3,-9,40
1522257347550379,3,-8,-5,-2,-7,-2,8,13
1522257347550379,-17,-13,-8,-1,0,2,15,-2
1522257347573441,8,-2,-2,0,-2,-2,7,13
1522257347573441,-7,-4,0,0,-5,-11,-18,-46
1522257347574444,-6,15,2,2,6,1,-4,-7
1522257347574444,8,-17,-4,-3,-7,-10,-5,-5
1522257347587478,27,13,-2,5,5,15,6,0
1522257347587478,-36,-14,-10,-3,-4,17,15,7
1522257347588481,19,-2,5,-1,-2,8,7,30
1522257347588481,-17,16,5,-1,4,-3,-9,-26
1522257347610539,27,-12,-3,2,8,2,-12,2
1522257347610539,22,18,10,2,-6,-7,1,-2
1522257347610539,-65,-16,-7,-5,-14,-35,-12,-6
1522257347610539,-20,-19,-5,-2,16,26,4,1
1522257347632598,9,9,6,4,-1,11,-4,-10
1522257347632598,47,3,-4,-1,-6,-17,-21,10
1522257347633601,5,-15,-7,-1,-1,2,11,17
1522257347633601,12,22,9,4,3,-5,10,-1
1522257347647638,-66,1,-6,-7,-1,6,-5,-18
1522257347647638,-45,-15,-7,-3,-2,-4,-1,-3
1522257347648641,8,3,2,1,0,2,-4,-21
1522257347648641,23,-2,3,3,0,-3,-4,-12
1522257347669697,14,4,4,-2,-1,7,4,19
1522257347669697,7,2,-2,-2,-2,-8,13,7
1522257347670699,-7,-5,-2,3,0,-10,5,28
1522257347670699,27,-3,-5,-3,-4,17,-8,-49
1522257347692758,13,-11,-6,-3,-4,-10,-9,8
1522257347692758,-30,25,20,5,6,4,8,-13
1522257347693761,15,1,3,3,4,3,-4,3
1522257347693761,-20,2,-2,-6,-4,-15,1,-18
1522257347706795,-7,-12,-14,-6,-6,-3,-9,4
1522257347706795,36,11,7,-1,-6,-3,4,16
1522257347714817,-53,7,5,4,6,9,-1,-27
1522257347714817,-11,-3,-3,-2,-5,-10,-2,0
1522257347729856,35,5,-2,0,-4,-9,1,-4
1522257347729856,-36,-11,-6,1,7,15,2,-1
1522257347730859,10,23,6,0,-4,3,-5,8
1522257347730859,-34,-16,-6,-4,-2,-19,-1,-4
1522257347752918,33,-3,2,-4,0,9,-27,-11
1522257347752918,19,-4,-3,0,-8,-11,16,17
1522257347752918,-6,-7,-4,-3,9,10,0,-2
1522257347752918,38,11,4,3,2,1,6,28
1522257347766955,-97,-20,4,4,0,-7,1,-16
1522257347766955,102,12,5,7,6,-11,-6,-11
1522257347774977,-59,-4,-9,-13,-9,-1,-16,-15
1522257347774977,28,1,-9,-6,-9,-2,-11,1
1522257347790016,0,-8,6,0,2,-3,1,-7
1522257347790016,-15,0,-3,-4,0,10,7,-20
1522257347791019,84,10,0,1,-3,-4,-3,7
1522257347791019,-75,-1,-7,-3,-7,-14,-5,7
1522257347813077,10,-24,-12,-2,3,11,-11,-14
1522257347813077,-6,5,2,-3,0,0,4,3
1522257347813077,27,1,-2,-1,4,9,15,5
1522257347813077,-27,3,2,2,-3,0,0,1
1522257347827115,2,11,7,5,-1,3,8,24
1522257347827115,-28,-26,-7,-3,-5,-15,-7,0
1522257347835136,-51,28,5,2,2,5,0,-45
1522257347835136,50,-20,-6,-5,-4,0,-16,21
1522257347850176,-17,11,-9,-7,-4,-8,2,-18
1522257347850176,19,-2,0,-1,5,4,-3,9
1522257347851179,17,-20,0,2,-6,-15,-1,-11
1522257347851179,83,29,17,11,10,5,29,23
1522257347872235,-73,-47,-21,-17,-11,27,-7,20
1522257347872235,14,-15,-13,-6,9,-2,-12,-1
1522257347873237,26,-6,-4,-5,2,6,2,39
1522257347873237,-54,-6,-3,-2,-3,-10,-10,-67
1522257347887275,41,28,14,11,-2,-11,12,25
1522257347887275,10,3,-4,-3,-1,8,9,15
1522257347895296,-18,-24,-9,-2,0,0,-1,-14
1522257347895296,17,11,9,5,4,5,13,69
1522257347910336,38,15,3,3,2,0,21,-23
1522257347910336,-53,-8,-3,-3,-10,-16,-48,-24
1522257347911339,-37,-4,0,-3,4,0,8,17
1522257347911339,37,9,-12,-6,-6,-5,-10,-1
1522257347932395,-45,-6,-7,-7,2,8,-3,-5
1522257347932395,36,16,6,1,-1,3,7,9
1522257347933398,66,3,-1,2,-5,7,12,15
1522257347933398,-86,1,3,10,3,0,-16,-4
1522257347947435,-2,-25,-1,3,-8,-26,-3,5
1522257347947435,0,0,-5,-2,2,23,3,-15
1522257347955456,2,14,5,-3,-2,-6,-6,-6
1522257347955456,27,-15,-5,-3,5,10,12,1
1522257347970496,-17,6,6,13,6,-9,9,-12
1522257347970496,0,-4,1,9,-1,-19,-27,1
1522257347970496,-17,4,-1,4,4,23,5,-5
1522257347970496,-29,7,-7,-5,3,4,0,-5
1522257347992555,85,-1,4,-7,-5,3,9,71
1522257347992555,-54,-24,-3,4,-1,-9,25,-21
1522257347993557,13,6,5,3,0,-11,-25,-14
1522257347993557,2,4,5,3,0,-2,-3,2
1522257348006592,27,10,0,-7,-5,22,13,23
1522257348006592,-7,4,-10,-8,-6,-7,-31,-69
1522257348014613,-23,16,7,-3,-4,1,12,-4
1522257348014613,-10,-23,4,-2,-2,2,19,23
1522257348029653,13,8,4,2,1,-11,-4,-19
1522257348029653,9,-2,3,1,3,-11,8,29
1522257348030657,29,-6,-8,-6,0,-9,0,15
1522257348030657,19,12,3,-4,-3,14,-1,-7
1522257348052715,-6,26,6,2,0,4,11,5
1522257348052715,-19,-19,-11,-6,-5,4,2,-7
1522257348053717,28,-3,5,1,-3,-8,-17,-9
1522257348053717,-8,-10,-2,-3,-1,-2,5,8
1522257348075776,4,16,-1,-3,-2,-7,-13,-21
1522257348075776,-17,7,0,-7,-10,-5,10,16
1522257348076778,11,2,3,11,9,6,14,2
1522257348076778,21,-10,-6,-3,-5,-18,-15,-34
1522257348089813,10,3,-1,-9,-5,-24,-30,6
1522257348089813,-52,-4,-8,-5,-37,34,16,53
1522257348090816,3,-12,-4,6,25,12,-1,-24
1522257348090816,-9,-2,0,-4,-4,0,-12,-66
1522257348112874,26,10,6,7,7,-8,-9,3
1522257348112874,-34,19,10,3,3,-4,13,19
1522257348112874,17,-16,-8,-4,-13,-2,6,48
1522257348112874,-20,-7,-4,5,13,3,-8,-13
1522257348135936,-32,-9,-6,-3,6,0,1,-8
1522257348135936,50,10,3,-4,9,-2,10,11
1522257348136938,-17,3,-2,-1,-12,5,1,-51
1522257348136938,-14,-4,-6,-4,-1,-15,-12,8
1522257348149973,-9,-4,-3,1,-5,2,-8,-8
1522257348149973,18,-5,3,5,11,0,2,1
1522257348150976,-15,-13,-4,-4,-1,-6,-9,-15
1522257348150976,20,-6,-6,-9,-11,-4,-1,-2
1522257348173034,-23,-12,-1,2,-1,3,10,0
1522257348173034,12,12,-3,2,-2,-2,-14,-27
1522257348173034,-74,-32,-13,-10,-10,-22,-8,13
1522257348173034,-13,36,20,6,3,17,6,8
1522257348196095,-12,-7,1,1,1,-1,-28,-58
1522257348196095,57,18,2,-2,2,-5,3,26
1522257348197099,6,-20,-6,2,-1,-3,-5,-9
1522257348197099,3,-11,2,3,4,9,23,58
1522257348210133,74,11,-2,-1,4,-11,-11,-21
1522257348210133,-76,-23,-6,-5,0,-9,-11,-23
1522257348211136,8,4,0,-1,-1,-6,4,22
1522257348211136,-2,-5,-4,-3,-7,18,9,-26
1522257348232191,-12,-9,1,2,5,7,15,29
1522257348232191,53,30,8,0,2,10,0,21
1522257348233194,-30,10,-12,-13,-10,-15,-19,-37
1522257348233194,-23,-26,-6,8,0,-22,-8,-12
1522257348256255,-27,4,0,-1,3,18,8,8
1522257348256255,7,-11,4,2,2,-2,5,-7
1522257348256255,38,21,8,2,2,10,27,71
1522257348256255,-21,-5,-7,0,-2,-6,-22,-29
1522257348270293,22,19,-8,-2,-2,-3,5,-11
1522257348270293,-6,-17,5,-3,-3,-8,-12,-12
1522257348271296,12,8,7,-3,-1,8,-3,-24
1522257348271296,-26,2,1,0,-3,-2,1,-32
1522257348292351,-9,6,4,-2,2,3,-1,39
1522257348292351,49,1,-2,6,5,5,13,-8
1522257348293354,0,2,-11,-4,-2,-1,5,30
1522257348293354,0,-15,5,0,-2,-5,-11,-14
1522257348315413,-20,-23,-18,-9,-6,-1,6,1
1522257348315413,-12,7,3,-1,1,1,-6,-11
1522257348316416,23,0,7,4,1,1,-2,2
1522257348316416,19,-8,-2,5,-5,-20,16,46
1522257348330452,-20,3,7,4,13,22,-8,-47
1522257348330452,-3,-33,-14,-2,-3,-5,-3,19
1522257348330452,83,56,3,-3,-7,2,8,19
1522257348330452,-57,1,10,-6,1,12,4,-3
1522257348352511,-4,0,10,4,-2,-13,9,11
1522257348352511,-9,-1,-2,2,4,-4,-8,-2
1522257348353514,-27,-22,-8,3,6,12,5,-22
1522257348353514,127,33,0,2,0,-14,7,40
1522257348375573,-82,-31,-10,-9,-10,1,-15,30
1522257348375573,24,2,-3,-2,-1,-7,8,4
1522257348376575,-33,-13,6,-2,-8,-4,-13,-6
1522257348376575,44,8,2,0,8,4,9,36
1522257348390612,-37,-5,0,0,2,4,-12,-21
1522257348390612,-4,6,-1,-1,-1,7,5,-45
1522257348390612,18,19,2,-6,-12,-19,2,55
1522257348390612,-7,-24,-10,-7,-3,12,0,2
1522257348412671,-8,0,-4,1,-3,-3,3,-13
1522257348412671,-13,9,13,6,6,0,16,50
1522257348413674,26,-16,3,10,6,-5,-12,-51
1522257348413674,-14,13,2,-1,4,4,6,31
1522257348435732,28,22,-8,-6,-5,-9,-7,-15
1522257348435732,13,-9,-6,-3,-1,-10,-1,8
1522257348436735,10,-6,14,8,5,9,2,1
1522257348436735,-91,-15,-10,-14,-19,-1,-28,-78
1522257348449770,103,20,2,3,3,9,9,58
1522257348449770,26,4,-9,-4,-9,-24,-6,-27
1522257348450773,-85,-12,-5,1,7,13,-5,-11
1522257348450773,29,7,3,4,2,-8,16,6
1522257348472831,-14,3,7,0,-8,5,6,-37
1522257348472831,-19,-6,-7,-8,-5,4,-21,-13
1522257348473834,47,2,-6,-5,1,8,3,6
1522257348473834,-28,12,-4,-8,-4,-8,-12,-24
1522257348495892,-43,-34,5,7,4,-4,1,-22
1522257348495892,84,23,4,7,6,4,11,18
1522257348496895,-96,-31,-6,4,1,-5,-12,-37
1522257348496895,21,-5,-8,6,4,9,3,41
1522257348509929,-18,22,8,0,-1,-11,-8,-5
1522257348509929,-33,-15,-11,-8,-2,2,-5,-18
1522257348510932,9,9,2,-2,-2,-8,6,10
1522257348510932,75,2,5,5,3,-8,16,26
1522257348532991,-40,11,-7,-2,-10,-4,-12,0
1522257348532991,-48,-24,-7,1,21,32,14,20
1522257348532991,-38,0,5,-6,-6,-5,3,-3
1522257348532991,39,-11,-1,-11,-2,-9,-37,-61
1522257348556053,54,1,2,2,-5,-11,15,31
1522257348556053,-76,-1,4,6,-8,-3,3,-16
1522257348557055,50,0,-11,0,-3,1,-4,40
1522257348557055,-49,-1,1,5,9,-2,15,39
1522257348570089,-2,-10,-5,-3,5,-8,-8,-24
1522257348570089,-8,-6,-7,-11,-5,1,-20,-5
1522257348571092,57,-6,-5,-2,6,4,4,-6
1522257348571092,-56,28,17,7,-4,5,-7,-13
1522257348592148,-54,10,8,5,-2,-2,-2,8
1522257348592148,35,10,2,-3,-13,-5,7,-7
1522257348593151,-35,2,0,1,6,-5,7,0
1522257348593151,56,7,-4,-4,-1,-7,-5,16
1522257348616212,62,-3,-10,-4,7,9,3,14
1522257348616212,14,5,6,1,-6,-3,-11,-26
1522257348616212,-59,-19,-7,-6,-11,14,9,-17
1522257348616212,-16,3,-2,1,0,11,3,12
1522257348629247,-39,-9,2,-3,-4,-6,-1,-52
1522257348629247,35,-3,3,7,10,-6,-31,18
1522257348637268,35,23,-2,-5,-6,-16,-6,11
1522257348637268,-1,-19,-6,-4,3,9,0,-7
1522257348652308,-42,-17,-9,-3,-2,-2,2,9
1522257348652308,-5,19,4,-2,-4,-3,3,-15
1522257348653311,15,-4,-1,6,1,7,4,6
1522257348653311,-7,-3,1,2,-1,6,12,16
1522257348675369,10,-7,-4,-2,-8,-21,-8,-8
1522257348675369,68,10,-4,-6,6,10,-4,16
1522257348676372,-36,-15,-7,-5,2,-3,-6,-14
1522257348676372,-23,-1,4,3,-9,-2,2,1
1522257348689406,33,-1,3,4,0,-11,13,28
1522257348689406,75,-4,4,5,2,19,12,-4
1522257348697428,-86,25,1,-4,-3,-14,-13,-23
1522257348697428,28,-2,-17,-11,-7,3,7,2
1522257348712468,19,-15,-3,1,4,14,-8,-5
1522257348712468,-20,-4,2,-2,-3,-17,0,20
1522257348713471,11,-5,5,-2,8,2,-1,-22
1522257348713471,-6,-10,-3,-2,0,-7,-20,-44
1522257348735529,66,25,2,-1,-8,-17,17,47
1522257348735529,-81,-19,-11,-3,-1,5,-36,-36
1522257348736532,30,-17,-11,-3,-6,-4,5,15
1522257348736532,-17,25,9,5,6,-3,-3,-12
1522257348749566,7,-8,2,2,2,11,14,20
1522257348749566,10,5,7,2,-5,-11,11,-4
1522257348757588,3,-17,2,-1,-4,-4,-14,-10
1522257348757588,-61,-15,-11,-6,3,5,0,-3
1522257348772628,75,32,4,-7,-1,-6,-16,-9
1522257348772628,-91,-10,-3,0,-3,-5,10,1
1522257348773631,27,1,0,-3,-1,4,-3,1
1522257348773631,20,-15,-3,0,-6,-5,0,-8
1522257348794686,-38,-6,-3,4,0,0,3,51
1522257348794686,49,8,-6,3,0,4,6,-22
1522257348795689,0,-19,1,3,-4,-1,-10,-14
1522257348795689,-12,0,-4,1,0,-1,-13,-12
1522257348809726,-37,3,0,-3,-2,5,-6,-11
1522257348809726,20,2,1,-7,-8,-22,14,24
1522257348817747,-43,8,0,4,11,5,12,11
1522257348817747,4,5,4,3,-1,5,-5,7
1522257348832788,22,2,-3,-6,2,8,-11,-38
1522257348832788,8,-2,-4,1,0,-2,-6,3
1522257348833790,9,20,5,-1,-6,-2,7,11
1522257348833790,-55,-14,-5,-8,-4,-13,-9,-15
1522257348854846,-23,-18,-5,-9,1,5,2,-1
1522257348854846,46,-5,4,-3,-2,7,10,5
1522257348855849,-49,-22,4,2,-4,-6,-5,-1
1522257348855849,121,44,16,11,1,8,12,25
1522257348869886,-107,-11,-8,1,-1,-2,-13,-85
1522257348869886,-1,-3,2,-1,4,3,9,32
1522257348877907,36,23,1,4,-5,-22,-1,-4
1522257348877907,-45,-50,-19,-13,6,29,15,20
1522257348892947,21,-4,-2,-4,-7,-22,-36,-77
1522257348892947,-26,-5,-7,1,1,-3,-4,13
1522257348892947,21,17,8,5,6,7,-5,14
1522257348892947,29,4,7,2,-8,-5,4,25
1522257348915006,-13,-6,0,0,0,0,6,26
1522257348915006,50,8,4,0,3,15,12,16
1522257348916009,-57,12,-8,-8,-5,-1,-8,-21
1522257348916009,14,-18,-3,0,2,-4,-17,-22
1522257348929043,-3,-5,0,6,2,-8,4,28
1522257348929043,-24,-3,-5,1,-1,-9,-13,-14
1522257348938067,45,0,0,-3,2,5,12,-27
1522257348938067,-4,31,-2,-1,1,-3,10,-10
1522257348953107,28,-35,-11,-9,-10,-4,-13,21
1522257348953107,-56,-16,-7,0,2,-5,-11,-22
1522257348953107,28,10,10,2,4,3,7,21
1522257348953107,-36,-13,-5,-1,0,-6,-10,1
1522257348975166,29,-1,-4,0,3,-4,10,-2
1522257348975166,68,17,-3,-6,-11,-4,-4,7
1522257348976169,-95,1,16,0,1,9,3,-2
1522257348976169,14,6,9,9,1,-7,9,38
1522257348998227,14,20,2,4,3,12,17,8
1522257348998227,-28,-16,-9,-7,-2,-5,-24,-34
1522257348999230,39,-7,-11,-5,1,3,21,76
1522257348999230,56,12,-2,-9,-4,-2,-3,-29
1522257349012264,-70,-6,9,5,5,-22,-7,-18
1522257349012264,-112,22,8,7,3,21,9,10
1522257349013268,98,-13,-12,-7,-6,10,-10,-24
1522257349013268,-54,-13,-4,0,-5,-26,-7,-10
1522257349035326,74,4,1,-1,-2,14,15,25
1522257349035326,-2,21,10,0,1,-11,10,13
1522257349036329,11,9,5,2,-2,-6,-6,12
1522257349036329,-1,-5,-1,3,1,2,-8,-48
1522257349058387,-10,-6,3,1,1,5,-2,2
1522257349058387,-2,-1,0,0,-2,-26,0,44
1522257349059391,-3,-9,-5,-8,3,17,-9,-9
1522257349059391,24,-2,2,-8,-2,13,11,26
1522257349072424,9,-12,-18,-4,-1,0,-1,-7
1522257349072424,-41,45,25,10,1,15,12,-13
1522257349073429,28,-14,2,3,-1,-11,25,42
1522257349073429,58,13,6,8,-4,-23,-26,-15
1522257349095486,-89,-21,-8,-6,-5,16,-15,-14
1522257349095486,81,-15,-11,-7,-4,3,9,3
1522257349095486,9,19,-8,0,0,-3,0,-17
1522257349095486,-61,-13,-6,2,2,3,-1,13
1522257349118547,-3,17,7,5,3,-5,7,-1
1522257349118547,-5,-20,-9,-7,-7,-9,-2,-28
1522257349119550,29,15,9,-2,-2,-11,-11,-3
1522257349119550,21,-2,-1,-1,8,34,6,32
1522257349132584,-13,4,3,-3,-5,-15,-19,-8
1522257349132584,56,-12,-6,1,6,16,9,6
1522257349133587,-36,1,8,8,-3,-6,-4,-1
1522257349133587,-18,-5,4,1,-2,-3,8,-19
1522257349154643,5,8,4,-2,-1,-2,-1,2
1522257349154643,22,2,7,-5,-7,-7,17,34
1522257349155646,-45,-10,-8,-3,4,2,-18,-39
1522257349155646,-9,-2,-9,-7,-3,0,-17,-15
1522257349178709,14,6,-5,-2,4,10,0,22
1522257349178709,17,14,10,4,-1,-8,-10,-37
1522257349178709,-14,10,-4,6,2,7,15,30
1522257349178709,-71,-18,-4,-2,-2,-5,3,-26
1522257349192744,42,11,3,0,-2,14,31,22
1522257349192744,25,-24,-15,-1,2,-7,-33,-14
1522257349193747,-15,-9,-11,-5,-16,-30,-21,-6
1522257349193747,20,1,-5,-1,2,13,2,-1
1522257349214803,-9,-6,-5,-1,-1,3,9,9
1522257349214803,4,6,5,-1,4,8,13,15
1522257349215806,-23,7,3,-7,-2,-9,-8,-11
1522257349215806,15,4,-4,1,-16,25,6,-11
1522257349237864,35,9,7,14,27,-19,-8,-27
1522257349237864,-64,-3,-1,3,-2,5,-9,-19
1522257349238867,-5,-16,-2,-1,1,-7,-4,-10
1522257349238867,-5,1,2,-10,-11,-11,1,6
1522257349252904,-22,7,4,-2,-6,2,-2,2
1522257349252904,67,7,-3,-2,4,-9,14,7
1522257349253907,-75,-36,-8,-3,2,9,-8,4
1522257349253907,26,8,-3,2,15,-10,-7,13
1522257349274963,35,-1,-3,-8,-11,2,-3,23
1522257349274963,-51,-4,-6,-6,-6,-3,-4,3
1522257349275966,55,3,6,3,-1,12,10,-3
1522257349275966,-14,-1,5,5,3,-8,8,3
1522257349298024,31,8,-4,-3,-4,-6,9,37
1522257349298024,34,16,10,2,-6,4,5,-16
1522257349299027,-47,-29,-26,-16,-16,-31,-37,-77
1522257349299027,-94,-38,-11,-4,2,-3,-31,-83
1522257349313064,-15,0,-5,-4,-4,-7,-8,2
1522257349313064,-1,-8,-7,-6,-3,7,2,13
1522257349313064,68,21,10,6,1,18,18,19
1522257349313064,16,23,-7,-1,-3,-15,7,29
1522257349335122,-13,-34,-12,-2,1,8,1,-37
1522257349335122,13,10,1,5,1,-8,-16,-11
1522257349336125,-19,-8,4,6,5,0,6,41
1522257349336125,62,1,-6,-13,-6,-5,8,16
1522257349358184,-11,-15,4,-1,-3,4,-10,-30
1522257349358184,-73,4,-4,-9,-2,-7,-10,3
1522257349359187,43,-1,1,3,2,4,-4,-4
1522257349359187,-22,13,1,5,2,5,18,4
1522257349372221,39,-2,7,1,-1,-3,0,27
1522257349372221,-72,-16,0,-4,-1,-7,-15,-24
1522257349373224,14,-7,1,-2,-2,17,13,1
1522257349373224,59,28,13,5,0,2,25,54
1522257349395282,10,5,3,3,-10,-17,-19,-24
1522257349395282,-56,-24,-7,4,3,13,-20,-72
1522257349396285,-90,0,-6,-2,7,16,1,17
1522257349396285,-12,-6,-6,0,-2,-1,1,8
1522257349418344,2,-2,-9,-3,0,0,10,10
1522257349418344,56,1,3,2,-2,-2,13,19
1522257349419347,28,8,0,-2,-3,-9,0,-5
1522257349419347,19,-15,-2,-5,-5,-5,-16,-15
1522257349432381,-19,10,-3,-2,4,7,13,17
1522257349432381,2,16,24,10,8,1,12,12
1522257349440402,42,21,-7,-2,-1,-3,-9,-24
1522257349440402,-39,-1,-3,-2,-1,4,-1,17
1522257349455442,42,-12,-21,-10,-9,-19,-18,-41
1522257349455442,-69,-23,-12,-5,6,2,-1,27
1522257349456445,18,4,11,5,1,6,-1,-6
1522257349456445,13,-13,-2,-4,-4,2,5,20
1522257349478504,-10,12,4,8,2,10,10,12
1522257349478504,43,-7,-13,-7,5,-2,-7,-5
1522257349479507,16,-19,4,0,-2,-8,-6,15
1522257349479507,77,37,14,6,0,-8,7,29
1522257349492541,-119,-21,-3,-5,-13,-18,-15,-76
1522257349492541,-39,-18,-1,0,-9,6,1,11
1522257349493544,41,-7,-3,1,1,10,-10,-22
1522257349493544,16,-8,2,-2,2,-4,-11,-19
1522257349515602,45,28,3,-2,5,18,11,29
1522257349515602,24,-6,-9,-1,-2,-22,1,7
1522257349515602,-14,14,3,5,2,-8,9,11
1522257349515602,-55,-5,0,9,5,2,-11,-35
1522257349538665,23,9,9,2,-12,-7,-9,-12
1522257349538665,-15,-13,-10,0,-7,4,-8,-7
1522257349538665,13,6,-7,0,0,3,6,6
1522257349538665,-28,9,-6,-7,-3,-19,-1,29
1522257349552701,82,43,15,-1,12,21,3,23
1522257349552701,-44,-11,6,4,-2,-23,11,35
1522257349553704,-20,-3,1,-4,2,21,-14,-70
1522257349553704,-46,-26,-3,-9,-6,-8,-25,20
1522257349574759,-10,-23,-8,-14,-3,-2,-16,-24
1522257349574759,83,17,-8,-4,-3,8,8,37
1522257349575762,0,1,12,-1,-2,-20,3,14
1522257349575762,-5,0,4,4,1,5,16,-6
1522257349597821,-15,-2,5,8,6,3,9,24
1522257349597821,4,1,-5,-5,-7,-21,-9,-9
1522257349598823,-8,-16,-7,-7,-7,8,3,14
1522257349598823,6,-1,0,-5,-2,1,-4,-6
1522257349611858,-22,11,7,-2,-21,-3,13,19
1522257349611858,35,4,-2,3,40,2,-9,-31
1522257349619880,5,15,3,7,-2,-38,-4,13
1522257349619880,-52,-3,8,7,8,14,-17,6
1522257349634919,32,-7,-5,2,-2,-3,5,-14
1522257349634919,-53,-8,-6,-9,-13,30,14,-17
1522257349635922,27,-4,1,-2,1,8,14,19
1522257349635922,4,16,1,4,6,-2,10,-12
1522257349657980,-16,-6,-22,-2,-4,-15,-13,8
1522257349657980,13,-11,2,-2,-5,-4,-11,-45
1522257349658984,-3,-3,2,1,5,-4,4,20
1522257349658984,15,-4,-1,2,-7,4,9,-10
1522257349672018,-32,1,7,-1,3,3,-24,-19
1522257349672018,15,18,1,0,-4,8,1,13
1522257349680039,12,-10,2,0,-2,-8,2,7
1522257349680039,18,13,3,-1,1,21,24,-3
1522257349695079,3,-4,-1,3,3,-9,9,52
1522257349695079,-13,2,0,-3,-1,8,-22,-39
1522257349696082,-7,-1,-7,-7,-5,2,2,2
1522257349696082,26,-3,-1,-1,-1,-7,-6,-12
1522257349718140,-44,-5,7,3,9,6,7,-6
1522257349718140,20,5,-1,-5,-5,-12,9,14
1522257349719145,-64,-17,-10,3,6,3,-7,4
1522257349719145,-4,36,5,0,0,2,-2,-9
1522257349732178,81,-5,-2,-7,-5,-2,-4,17
1522257349732178,52,0,5,1,-7,-8,-4,-14
1522257349740199,-99,-12,-5,-2,-4,-8,2,-32
1522257349740199,70,-14,-14,-5,-6,-10,-7,-4
1522257349755239,24,-7,3,4,2,3,9,18
1522257349755239,-42,-5,5,7,2,2,-2,0
1522257349756242,41,12,2,-4,-1,7,2,-5
1522257349756242,13,2,-2,1,-6,-18,-20,-47
1522257349778300,-69,-28,-8,-7,0,15,-14,-9
1522257349778300,-10,-11,-2,1,0,0,4,20
1522257349779305,24,1,1,1,0,9,0,0
1522257349779305,21,5,10,5,4,-5,1,15
1522257349792338,-92,-3,0,2,4,-6,8,-9
1522257349792338,71,7,-10,-10,-6,3,1,27
1522257349800359,8,-1,-3,-10,-3,-1,-14,-16
1522257349800359,-21,-10,-3,-4,2,-3,6,5
1522257349815399,36,15,7,3,3,-1,7,1
1522257349815399,-96,2,7,3,-5,-5,-4,-7
1522257349816402,11,8,3,3,-6,-2,3,12
1522257349816402,-38,-17,-4,2,5,6,5,-4
1522257349838460,77,0,-5,-3,-9,-11,-4,10
1522257349838460,11,0,-2,-8,5,32,10,15
1522257349839463,-54,3,-2,-1,-3,0,-2,-15
1522257349839463,-53,-3,4,-1,0,-1,-12,-20
1522257349851495,83,6,3,6,0,6,22,21
1522257349851495,20,29,-1,-4,-1,-19,-2,-1
1522257349860519,-7,-11,-11,0,5,14,-13,-15
1522257349860519,25,-10,-13,-2,-1,-43,1,16
1522257349875559,-47,-1,1,-6,1,6,-10,-23
1522257349875559,6,-4,6,5,-3,-3,2,-11
1522257349875559,21,9,5,-4,-2,-3,15,19
1522257349875559,25,4,1,2,-1,-1,-4,-15
1522257349897617,-3,5,2,-1,-1,4,10,2
1522257349897617,-20,-33,-13,-9,-4,-3,3,-10
1522257349898621,12,3,-3,1,-2,-11,0,11
1522257349898621,20,-5,5,7,2,18,7,9
1522257349911655,-32,4,0,0,-3,0,-15,-2
1522257349911655,32,3,4,7,2,4,4,20
1522257349919676,31,-15,-11,-4,-2,-19,-25,-49
1522257349919676,-3,7,-5,-4,-5,3,9,27
1522257349934716,-12,-3,-8,0,9,11,8,-20
1522257349934716,-78,14,8,-3,-1,-11,-20,2
1522257349935719,57,-3,-6,-4,-3,-6,3,7
1522257349935719,-77,-6,-3,-12,-2,9,5,2
1522257349957777,-8,-6,3,-4,-8,-8,-8,-5
1522257349957777,64,3,0,3,-4,3,4,14
1522257349958780,-79,-15,-4,1,-5,1,-11,-41
1522257349958780,22,13,3,6,2,9,4,9
1522257349980839,19,-15,1,5,7,-21,17,54
1522257349980839,9,-6,-9,-6,-3,2,-33,-39
1522257349981841,-11,-11,4,-1,8,22,9,14
1522257349981841,7,-22,-9,-11,-8,-12,-22,-24
1522257349994876,19,14,5,-6,-4,4,2,-8
1522257349994876,14,-17,-4,-1,0,-9,20,14
1522257349995879,23,41,15,-2,-3,-4,1,6
1522257349995879,-70,-16,-16,-7,-12,-16,-10,-6
1522257350017937,-6,-16,-2,6,13,16,-11,-20
1522257350017937,-18,-14,-4,2,-3,-9,-4,-10
1522257350017937,68,10,2,2,2,8,7,19
1522257350017937,-11,3,7,-1,-1,-5,1,-2
1522257350040998,-76,-10,-5,0,-6,-3,0,1
1522257350040998,-4,7,-5,-4,-6,-13,-25,-39
1522257350042001,62,2,5,6,4,-1,10,48
1522257350042001,-1,7,2,7,3,7,6,3
1522257350055036,30,11,-7,2,-2,6,-1,-11
1522257350055036,-58,-25,-10,-3,-2,-7,-13,-38
1522257350056038,-11,8,-2,1,1,3,19,41
1522257350056038,19,-13,-1,2,5,1,-8,-9
1522257350078098,-2,15,5,-1,-2,4,5,24
1522257350078098,10,7,14,10,0,-10,7,16
1522257350078098,6,19,0,0,8,22,-21,-16
1522257350078098,56,-21,-10,-7,-2,9,11,28
1522257350101158,-11,21,7,6,0,5,2,-19
1522257350101158,-28,-32,-6,-10,-5,-12,19,40
1522257350101158,-17,6,1,-2,-4,-14,3,-53
1522257350101158,-6,14,10,-1,1,-1,-15,32
1522257350115196,12,-18,-13,-16,-7,-14,-15,-11
1522257350115196,-21,30,7,-3,-1,13,20,24
1522257350116199,47,-11,0,2,-6,-19,-10,-7
1522257350116199,-33,-3,3,-3,4,4,-16,-74
1522257350137254,40,-11,2,-4,3,-8,-1,6
1522257350137254,11,-7,-20,-2,2,4,4,15
1522257350138257,-28,30,19,2,2,9,24,55
1522257350138257,30,8,2,3,-3,-1,-5,-2
1522257350160316,12,10,2,1,-3,2,-5,2
1522257350160316,-4,-3,0,2,-2,5,14,-3
1522257350161318,-38,-25,-7,1,-5,-9,-23,-69
1522257350161318,14,-6,-6,0,-3,-1,-4,34
1522257350175355,29,7,-15,-9,-1,-1,9,0
1522257350175355,-14,-12,20,1,4,4,-4,-6
1522257350176358,-59,-10,-1,1,-12,-32,-5,-18
1522257350176358,6,16,4,6,8,16,12,25
1522257350197414,-26,-6,-4,0,-4,2,7,-1
1522257350197414,7,6,-4,-5,1,3,-22,-43
1522257350198417,48,-3,-10,-6,3,16,9,35
1522257350198417,-35,4,3,4,0,6,14,11
1522257350220476,-38,-16,-9,-4,-3,11,-3,-25
1522257350220476,101,9,-2,-5,-7,-18,-19,-5
1522257350221479,-106,-14,2,-1,-4,-4,-10,6
1522257350221479,52,-9,-4,-2,-4,-2,4,-4
1522257350235515,-6,-1,6,1,-2,-1,3,25
1522257350235515,47,26,5,4,-4,1,22,13
1522257350235515,-31,-9,-10,0,7,6,-3,-5
1522257350235515,38,-12,-7,-1,-11,-26,-5,-7
1522257350257574,-7,7,4,3,3,15,-13,-27
1522257350257574,-28,-8,-5,4,8,21,6,17
1522257350258577,61,-3,-5,-5,2,4,-2,-10
1522257350258577,-96,1,2,1,4,2,2,-16
1522257350280636,-21,3,4,5,-2,-16,-16,11
1522257350280636,23,2,-8,-4,-4,1,-2,-7
1522257350281638,22,7,4,-2,0,3,11,6
1522257350281638,1,-2,4,-1,2,-2,8,5
1522257350294673,-25,-10,0,3,-6,-18,-18,-48
1522257350294673,-40,3,-4,3,3,23,1,18
1522257350295675,-26,-4,-7,-5,-3,-1,2,12
1522257350295675,24,-4,-3,-8,-7,-12,-2,2
1522257350317734,-6,3,6,5,7,22,13,-3
1522257350317734,18,22,14,3,0,-1,7,-2
1522257350318737,42,-13,2,0,2,-6,-1,5
1522257350318737,-55,9,-1,-1,0,2,4,-3
1522257350340795,32,-13,-14,-7,2,1,2,0
1522257350340795,24,-6,-8,-4,-3,-16,-13,4
1522257350341798,-20,13,2,2,-11,-22,10,42
1522257350341798,-57,-15,-11,-8,2,25,-27,-50
1522257350354833,-1,-7,7,7,2,-6,-5,0
1522257350354833,-49,-2,5,0,1,11,4,-8
1522257350355835,-22,5,0,-3,-5,2,7,15
1522257350355835,21,-6,-5,-5,-4,-6,-6,31
1522257350377894,-4,-17,-12,-8,-6,-11,-7,-54
1522257350377894,6,4,8,9,8,-3,7,9
1522257350378898,32,44,13,7,4,8,-4,-18
1522257350378898,-2,-30,-15,-6,-5,-19,4,6
1522257350400955,-9,3,-4,-7,0,-3,-14,-2
1522257350400955,7,-15,-9,-4,-6,-15,-2,12
1522257350401958,-11,-14,-7,-1,-2,7,-4,-31
1522257350401958,24,-7,3,-1,-4,9,7,13
1522257350414992,18,40,3,-4,-2,1,19,28
1522257350414992,54,6,20,6,-3,-7,-9,-27
1522257350415995,1,-10,-9,-2,-4,-10,-24,14
1522257350415995,-6,0,-1,2,0,-12,-10,-71
1522257350438054,-14,-28,-13,-4,-4,14,2,47
1522257350438054,39,9,-5,2,2,8,8,8
1522257350438054,-3,0,2,-1,2,2,4,-13
1522257350438054,51,1,-2,-1,3,-4,1,13
1522257350460113,-26,15,23,10,6,-13,-2,-2
1522257350460113,48,-14,-6,-4,-1,0,-1,2
1522257350468133,-1,-12,-5,-1,1,3,-5,4
1522257350468133,-31,-5,0,-1,-3,-3,5,-16
1522257350475152,16,6,2,0,1,-7,-2,-14
1522257350475152,-56,1,-1,-4,0,-4,-2,-2
1522257350476155,11,-16,-3,-1,2,-7,-2,3
1522257350476155,-2,16,7,2,-1,18,1,11
1522257350497211,12,15,-5,-1,-7,0,-2,2
1522257350497211,-3,-6,-14,-2,-4,-4,-10,-2
1522257350498213,-44,-26,-7,-6,1,-3,-15,-21
1522257350498213,3,34,7,3,-2,-3,5,-29
1522257350521275,9,-36,1,-2,2,1,-14,21
1522257350521275,11,10,1,-6,-2,2,13,-3
1522257350521275,-33,1,1,-2,-4,5,7,8
1522257350521275,28,-6,4,-3,2,5,3,2
1522257350535312,6,14,1,1,-2,-13,1,8
1522257350535312,-28,-15,-9,1,-2,-11,-10,-38
1522257350536315,42,13,8,1,4,-2,3,11
1522257350536315,-22,-6,-2,4,3,10,2,8
1522257350557370,-39,-8,-13,-7,4,2,-4,-12
1522257350557370,35,7,-4,-5,0,3,-6,15
1522257350558374,-1,-14,-5,-5,0,-6,4,-10
1522257350558374,15,9,2,2,-1,-7,11,20
1522257350580433,16,9,7,0,-3,-7,-20,2
1522257350580433,-40,-8,0,-2,0,0,0,-1
1522257350581435,-12,0,-6,-2,-7,0,-3,-20
1522257350581435,104,17,1,3,-3,-1,-2,-1
1522257350594469,-40,-8,2,5,-4,-7,20,20
1522257350594469,-108,-27,-6,-3,6,1,-8,-10
1522257350602491,64,6,-2,-4,-6,15,-6,-7
1522257350602491,-2,-11,-10,-10,-6,-2,-14,-23
1522257350617531,46,8,-3,-4,2,-12,8,-5
1522257350617531,-25,3,-2,1,0,5,-1,7
1522257350618535,-4,3,-3,-1,1,2,19,47
1522257350618535,-14,-1,-2,-1,0,1,-9,-1
1522257350640592,5,-2,2,-6,-3,8,6,-15
1522257350640592,27,24,19,5,-4,-14,7,41
1522257350641595,25,16,5,9,8,11,-9,-40
1522257350641595,12,23,14,10,3,1,21,67
1522257350654629,-39,-14,-16,-8,-9,-16,-36,-47
1522257350654629,20,-14,-12,-12,1,22,9,-5
1522257350662650,3,-4,-6,-3,-6,-12,-3,-7
1522257350662650,1,-2,0,3,-2,-5,-1,-9
1522257350677690,11,-1,4,2,1,10,18,18
1522257350677690,21,5,-4,-30,-12,-5,21,4
1522257350678693,4,-12,1,20,6,-37,-13,-25
1522257350678693,-32,-6,-4,2,3,-5,-27,1
1522257350700752,-39,-2,3,5,-5,22,14,1
1522257350700752,24,-19,-6,4,3,-4,1,-2
1522257350701755,-40,1,0,-16,-10,4,0,-7
1522257350701755,-26,-10,-2,0,1,-21,-8,-12
1522257350723813,15,10,1,5,4,-2,-5,-3
1522257350723813,-9,-4,-1,-4,-4,5,4,-1
1522257350723813,6,-12,-4,-5,-3,-15,6,17
1522257350723813,3,-6,-3,-2,3,14,-1,5
1522257350737850,14,-1,3,-5,1,1,-3,-3
1522257350737850,16,9,8,8,3,0,-2,21
1522257350738866,64,26,7,6,1,-4,19,24
1522257350738866,-100,-7,0,5,7,12,-17,-59
1522257350760912,-17,-25,-18,-14,-8,-5,-1,9
1522257350760912,-2,-3,-9,9,1,-10,-13,-40
1522257350761914,-32,-3,7,4,0,5,-6,-13
1522257350761914,65,4,2,-8,-6,2,13,22
1522257350774949,23,-2,1,3,4,6,6,-1
1522257350774949,-43,20,8,11,2,0,-7,16
1522257350782970,16,-7,-9,-11,0,8,-5,-7
1522257350782970,15,-2,-15,-12,-4,3,5,10
1522257350798010,22,32,24,10,6,2,1,6
1522257350798010,-15,-18,3,9,0,-6,2,-9
1522257350798010,18,-6,-3,0,2,10,10,20
1522257350798010,10,-3,-2,-7,-14,-41,-6,-3
1522257350821071,-11,-5,-11,-8,-4,19,-7,-32
1522257350821071,-49,-17,-8,-4,5,-2,-22,-58
1522257350822074,32,7,3,-2,-4,0,-17,2
1522257350822074,29,-12,-6,3,2,7,8,19
1522257350834106,4,8,-2,4,-4,-7,5,0
1522257350834106,38,10,4,0,-7,-2,8,14
1522257350843130,12,-14,0,0,5,9,-1,-2
1522257350843130,-36,23,9,-2,-4,-11,-12,3
1522257350857167,62,-5,-3,-6,3,0,12,29
1522257350857167,-52,-16,-2,-1,-4,-6,-16,-32
1522257350858170,-12,0,-1,0,-3,-8,-2,-6
1522257350858170,-19,3,5,6,11,13,19,25
1522257350881231,-6,-13,-3,2,-1,-2,-7,-23
1522257350881231,38,8,0,-3,2,2,-5,39
1522257350881231,-38,2,-1,-6,-5,1,2,9
1522257350881231,70,7,6,4,-4,5,-3,-6
1522257350903290,-58,-19,-15,0,3,-2,-3,11
1522257350903290,54,49,30,9,2,-2,6,16
1522257350904293,-58,-5,-5,-3,-3,-1,1,-23
1522257350904293,18,-11,-7,-5,-11,-28,0,-2
1522257350917328,-22,-4,-3,0,9,24,4,9
1522257350917328,24,-2,-10,-6,-4,4,1,7
1522257350918330,11,5,3,1,3,3,4,13
1522257350918330,-17,3,-11,-8,1,6,2,-23
1522257350940389,47,5,12,-2,-3,-12,-1,17
1522257350940389,-11,-7,-3,2,5,3,1,0
1522257350941391,-30,-6,2,1,4,6,-1,1
1522257350941391,4,4,3,0,-1,3,5,8
1522257350963450,22,5,6,3,1,-6,0,8
1522257350963450,-21,13,5,-1,-4,5,6,6
1522257350965456,37,0,-5,-1,-3,-5,3,15
1522257350965456,-20,-13,-8,-1,6,12,7,-30
1522257350977487,31,-1,-3,-3,-9,-22,-10,11
1522257350977487,-54,-7,-10,-9,4,15,24,28
1522257350978491,6,-8,-3,-1,-4,-5,-29,-43
1522257350978491,28,28,0,-1,-1,4,-6,-5
1522257351000549,30,4,4,0,-6,0,5,-9
1522257351000549,101,-27,-3,2,-2,-7,10,22
1522257351001551,-103,-7,-7,2,-2,-16,8,-9
1522257351001551,-17,-32,-2,-1,4,10,-19,34
1522257351023610,5,18,-2,7,0,-6,-1,-31
1522257351023610,-23,-7,-5,-6,-9,-1,-11,-10
1522257351024613,23,8,-4,-4,2,19,21,34
1522257351024613,-12,-20,-12,-3,-4,-8,5,-3
1522257351037647,1,13,22,9,7,3,14,11
1522257351037647,-34,-3,-3,-1,0,-9,-6,-9
1522257351038650,-40,-13,-3,0,1,2,0,-40
1522257351038650,-30,-7,-5,-5,-7,-3,-11,5
1522257351059706,-27,-22,-14,-5,-4,-4,-12,-33
1522257351059706,59,12,-6,5,1,-2,4,12
1522257351060708,2,15,21,6,-7,-11,0,21
1522257351060708,42,11,4,3,7,22,4,-9
1522257351083770,-16,1,2,1,5,10,16,16
1522257351083770,-53,-14,3,-2,-1,-9,-23,-45
1522257351083770,65,-7,-11,-5,-2,3,0,6
1522257351083770,-44,15,10,2,-5,-2,2,-5
1522257351097807,1,-21,-9,-9,-6,-3,2,37
1522257351097807,79,-4,-4,-3,3,0,-4,-17
1522257351098818,-93,26,4,1,-7,-36,-16,-10
1522257351098818,16,-23,-7,-1,11,-4,-8,-18
1522257351119866,-34,8,2,3,8,37,23,-4
1522257351119866,-6,-1,-8,-8,-4,-6,-33,-54
1522257351120868,24,-2,-3,-4,-3,15,1,1
1522257351120868,56,16,7,4,-6,-6,4,4
1522257351142927,-51,-1,-8,-7,-8,-19,1,-2
1522257351142927,-22,-1,2,1,4,8,25,6
1522257351143930,35,-1,5,1,5,6,2,11
1522257351143930,-29,-5,4,0,-2,0,1,-8
1522257351157967,21,-4,-10,-3,1,-3,-1,-5
1522257351157967,30,7,-7,-1,-3,0,3,15
1522257351157967,37,11,2,-4,-8,-4,-7,3
1522257351157967,16,-1,5,1,-5,-3,7,10
1522257351180026,-70,-9,10,13,18,1,-4,-17
1522257351180026,44,11,-6,-2,-5,-17,-3,9
1522257351181029,-68,-50,-25,-9,10,22,7,0
1522257351181029,92,88,24,4,1,5,-2,22
1522257351203087,-90,-54,-4,-16,-14,-12,-13,-15
1522257351203087,-42,-9,6,4,1,-4,-5,13
1522257351204090,7,-3,3,0,-3,-8,-6,8
1522257351204090,-14,-28,-7,-1,-3,-2,2,-29
1522257351218127,44,19,-1,6,3,11,-15,19
1522257351218127,8,8,1,-3,0,8,20,16
1522257351218127,-11,-17,-6,1,10,2,-8,-40
1522257351218127,-29,-8,2,-2,-31,-10,-2,-13
1522257351240185,58,20,2,12,46,-7,3,23
1522257351240185,-61,-3,-3,-1,1,0,-3,-7
1522257351241188,64,9,4,2,6,2,14,35
1522257351241188,-8,3,-5,-6,3,-14,-27,-31
1522257351263247,-6,-16,-5,-10,-18,-7,9,8
1522257351263247,-4,0,5,4,2,14,-9,-39
1522257351264250,41,11,-6,-4,-4,2,13,9
1522257351264250,-45,-16,-2,-2,6,16,-14,-21
1522257351277284,56,42,10,5,-11,1,1,18
1522257351277284,9,-21,-11,-8,4,13,-4,27
1522257351278287,-20,-42,-22,-8,-11,-18,-11,-41
1522257351278287,-67,18,22,4,8,3,0,3
1522257351300346,2,0,5,2,-8,-5,-5,-6
1522257351300346,9,15,2,-3,-4,-7,4,13
1522257351301348,13,13,3,1,1,6,4,-9
1522257351301348,-1,-26,-22,-3,1,0,13,11
1522257351323407,65,-11,-6,-4,-2,4,-13,-5
1522257351323407,-49,8,8,0,-10,-22,0,-7
1522257351324409,21,4,5,7,5,19,6,30
1522257351324409,-3,-20,-10,-1,1,-17,-5,-39
1522257351337444,-1,10,-2,-7,-4,9,12,-15
1522257351337444,34,-7,-2,-2,-2,-2,-6,26
1522257351338448,-71,14,9,-3,-1,-5,-7,-5
1522257351338448,25,2,-1,-5,0,4,1,20
1522257351360505,-8,9,0,0,-7,-5,7,6
1522257351360505,-19,-26,-8,-3,-8,-7,-18,-71
1522257351360505,15,7,2,3,3,-21,-5,16
1522257351360505,-21,0,3,0,6,17,7,-3
1522257351383567,69,17,-10,-9,-5,1,-6,-8
1522257351383567,19,-3,17,12,9,-1,9,35
1522257351384569,7,-9,-9,-6,-12,15,13,-2
1522257351384569,-2,-27,-11,2,-3,-4,4,16
1522257351396601,-37,-11,-8,1,-4,-9,-25,-46
1522257351396601,-6,12,-10,6,-1,-2,3,10
1522257351405625,38,25,3,5,2,2,-5,-7
1522257351405625,-15,-15,-9,-3,-3,-3,4,31
1522257351420665,-55,-11,-1,-1,2,-3,-5,-24
1522257351420665,2,-6,-4,0,-9,-17,6,9
1522257351420665,9,7,12,2,9,3,-11,-37
1522257351420665,-19,3,-2,-6,1,13,5,81
1522257351443726,5,-14,3,3,7,11,-1,-19
1522257351443726,-8,31,0,-5,-1,5,5,-10
1522257351443726,90,-13,-12,-9,-11,-6,2,30
1522257351443726,-46,-27,-4,-3,-5,-19,-9,-29
1522257351456761,-23,6,2,-4,-5,-11,-3,20
1522257351456761,-30,-11,0,-2,4,-4,-2,-1
1522257351464782,43,16,10,0,1,14,9,33
1522257351464782,38,-1,-1,-3,-4,-8,-7,-22
1522257351479822,-1,-57,-20,-9,-8,-5,-1,0
1522257351479822,-61,56,23,7,1,8,11,-6
1522257351480825,-21,-10,1,5,5,0,6,19
1522257351480825,7,18,6,3,4,-2,-11,-18
1522257351502883,-7,10,4,5,1,3,12,3
1522257351502883,15,-18,-7,-5,-2,-1,-2,1
1522257351503886,-65,-13,-9,2,-4,-6,-5,5
1522257351503886,62,51,-5,-3,1,5,16,12
1522257351516921,9,2,18,5,-6,-19,1,1
1522257351516921,14,-20,-2,-1,11,19,-2,12
1522257351524942,-69,0,7,-5,-1,-6,-11,-17
1522257351524942,5,-18,-11,-6,-11,-25,10,-6
1522257351539982,21,16,-5,3,17,34,-7,-3
1522257351539982,16,1,-5,-2,-3,-5,-16,-26
1522257351540985,36,-15,-9,-2,-7,2,1,-5
1522257351540985,-56,3,2,-5,-4,-3,7,24
1522257351563043,50,3,-4,0,-4,-14,-8,-10
1522257351563043,2,-15,2,5,5,-1,16,18
1522257351564047,-12,7,-1,-3,-3,-4,-22,-48
1522257351564047,-14,-31,-2,-1,-4,1,-2,-1
1522257351577081,-3,3,4,-1,-10,-5,-4,8
1522257351577081,15,-10,-5,-1,-3,4,0,-3
1522257351585102,-50,19,-3,-1,-5,-20,10,-5
1522257351585102,52,6,4,0,12,23,-3,1
1522257351600142,-68,5,-4,-6,1,2,-11,-14
1522257351600142,-28,-14,5,1,4,3,-4,15
1522257351601145,39,4,-1,0,1,-1,3,2
1522257351601145,-19,5,-1,3,0,1,-3,-2
1522257351623203,-11,-26,-16,-8,-4,-5,-7,-1
1522257351623203,4,29,14,4,-2,4,11,32
1522257351624206,-50,-29,-11,-6,-6,-5,-7,-16
1522257351624206,-6,-4,2,0,1,-2,-4,0
1522257351637240,32,5,3,1,-4,-7,2,-15
1522257351637240,-59,-8,-10,-5,-11,-24,-7,-13
1522257351645262,12,14,-1,3,4,17,-9,-10
1522257351645262,19,-15,4,1,2,5,0,17
1522257351660302,-9,5,4,5,-4,-15,0,-17
1522257351660302,-11,6,-2,-1,9,15,-6,4
1522257351661305,48,12,8,2,2,3,11,0
1522257351661305,-5,0,-2,-3,-8,-25,-3,-4
1522257351683363,-20,10,7,-1,-7,25,0,-17
1522257351683363,17,-2,-5,1,7,-9,2,25
1522257351684366,-57,-30,-15,3,6,-2,0,20
1522257351684366,120,60,2,-6,-3,9,-1,-3
1522257351705422,-78,-31,5,1,-2,-17,-6,-2
1522257351705422,-14,-12,-4,-4,-11,0,-3,-23
1522257351706425,-26,-4,8,3,3,1,-1,-7
1522257351706425,-10,-12,3,2,-8,-23,34,30
1522257351720462,53,17,-9,-3,5,3,-31,-12
1522257351720462,45,-10,-13,-7,0,26,-8,-18
1522257351720462,51,-6,8,0,4,-7,1,4
1522257351720462,-94,-3,-6,-1,-3,18,-4,-29
1522257351743523,61,17,1,-8,-3,-15,13,33
1522257351743523,-1,-13,2,-2,2,1,-9,-50
1522257351744526,76,12,5,2,0,-21,1,42
1522257351744526,-75,-4,-2,6,2,10,1,17
1522257351765582,-87,-14,-3,-2,-8,22,1,-25
1522257351765582,98,25,-3,-6,-13,-16,-7,5
1522257351766584,-79,0,-1,-1,-4,1,-12,-37
1522257351766584,8,-15,-4,3,7,-5,-12,-25
1522257351780622,-3,0,-2,3,6,-7,17,29
1522257351780622,-13,-3,-1,-8,-7,-13,-11,31
1522257351780622,-32,-3,-14,-9,-4,-1,-5,4
1522257351780622,37,11,23,3,5,22,-9,-46
1522257351803683,4,5,-1,0,-3,-4,7,22
1522257351803683,-4,-4,-3,0,0,-2,17,1
1522257351803683,16,-3,-3,-2,-8,-5,10,-31
1522257351803683,27,-21,-7,6,16,5,-5,46
1522257351825741,-30,31,4,-1,4,6,-4,20
1522257351825741,6,7,3,1,-7,-11,-14,-71
1522257351826744,-22,-17,-9,-3,-3,5,1,9
1522257351826744,2,-2,4,-2,-5,-2,1,-9
1522257351839779,69,8,6,0,2,-24,13,33
1522257351839779,-10,0,-4,4,11,32,13,46
1522257351840782,1,-1,-1,-5,-10,6,-29,-53
1522257351840782,-23,1,-4,-2,-10,-18,-11,-6
1522257351863843,-3,-12,-3,-3,-1,0,-3,1
1522257351863843,-26,-2,0,3,2,-1,9,12
1522257351863843,47,7,5,5,3,-4,12,25
1522257351863843,1,-16,-16,-6,-6,6,-12,-44
1522257351885901,-5,10,0,-3,-3,4,-3,-15
1522257351885901,9,1,4,-4,-2,-7,6,2
1522257351886905,-11,-5,7,0,2,4,5,-2
1522257351886905,17,5,-5,-3,-2,-7,11,24
1522257351899939,4,-17,-7,0,-5,-18,-10,-43
1522257351899939,8,27,1,-1,1,-9,-1,23
1522257351900942,-19,-27,-11,-6,4,22,-10,-7
1522257351900942,-15,20,8,2,-1,-1,2,11
1522257351923000,21,4,2,0,-2,7,11,14
1522257351923000,35,8,1,-7,-6,-2,12,7
1522257351924003,-34,-3,5,6,-2,-35,3,8
1522257351924003,2,-16,-13,-4,4,17,-39,-58
1522257351946061,48,-2,0,-3,-2,7,-1,7
1522257351946061,-37,-6,3,5,1,-14,-5,-4
1522257351947064,50,17,1,-3,1,7,10,21
1522257351947064,-34,19,4,0,3,-1,14,12
1522257351960098,-52,-37,-9,3,-1,-16,-12,-33
1522257351960098,2,-8,-7,-7,-11,16,-11,-6
1522257351961101,-13,2,1,0,0,-11,0,-8
1522257351961101,34,13,0,2,4,-5,1,-10
1522257351983160,-28,-13,0,-6,1,-2,3,41
1522257351983160,-16,-1,-1,3,4,6,8,-3
1522257351984163,23,-10,-1,0,-4,4,-7,-14
1522257351984163,-13,11,-1,-2,-5,-3,14,23
1522257352006221,11,-3,-3,-5,-3,-13,-22,-56
1522257352006221,-5,-14,-3,-1,-1,-9,-11,-1
1522257352006221,-2,7,-2,-1,-2,16,4,2
1522257352006221,33,-10,3,1,1,20,10,23
1522257352020259,2,1,1,5,3,-30,2,6
1522257352020259,-23,5,0,0,-2,-2,-9,-16
1522257352021262,-43,12,-1,-1,1,6,4,6
1522257352021262,47,17,3,-4,-2,-24,-3,22
1522257352042317,-25,-4,-5,-3,-3,25,5,1
1522257352042317,-1,-13,-2,-1,0,-3,5,4
1522257352043320,9,26,-1,0,-5,-13,1,11
1522257352043320,99,-13,12,-4,-2,3,-7,1
1522257352065378,-12,4,-3,-6,-1,3,-1,26
1522257352065378,5,-12,-1,-3,1,-9,-5,-36
1522257352066381,14,3,0,-1,2,7,17,47
1522257352066381,-22,-13,-3,3,-1,-5,11,-30
1522257352080419,-19,14,7,4,-1,16,-2,27
1522257352080419,40,-15,-3,-1,-1,-1,2,-4
1522257352081421,-39,-12,-6,-5,-3,-5,-20,-20
1522257352081421,24,-10,-4,3,3,-3,-6,0
1522257352103480,-5,2,-8,-3,1,9,8,8
1522257352103480,12,11,1,0,-2,1,7,2
1522257352104483,-7,4,8,5,2,-5,0,2
1522257352104483,16,-5,0,3,1,2,12,22
1522257352125538,16,4,-2,-3,-14,-23,-8,-23
1522257352125538,-13,-14,-10,-2,5,18,-9,-15
1522257352126541,0,-9,-5,-3,1,-1,-6,-12
1522257352126541,-30,-13,-12,0,-1,-4,-7,0
1522257352140578,-4,3,9,4,4,12,11,-40
1522257352140578,0,12,1,-3,-3,-7,-10,19
1522257352140578,33,-11,9,4,2,1,14,82
1522257352140578,-47,22,2,3,1,-1,-11,-89
1522257352162637,47,-8,-13,-9,-6,-9,-18,9
1522257352162637,-34,-28,-7,-4,-5,-1,4,-12
1522257352163640,-3,-12,-3,-3,-1,-3,-13,-45
1522257352163640,-36,3,4,-4,-6,-8,-5,21
1522257352186701,15,-2,-3,0,3,10,8,-1
1522257352186701,11,20,7,2,-3,-6,3,28
1522257352186701,-27,31,6,-1,-2,-2,3,9
1522257352186701,26,-13,-4,-4,-3,-4,3,-5
1522257352199736,-42,-8,-2,-3,2,20,3,-5
1522257352199736,-3,-17,-10,-4,-2,-9,6,9
1522257352200738,4,17,8,6,7,6,1,-19
1522257352200738,-19,4,-11,-5,-7,-4,0,12
1522257352222797,56,-13,5,-2,-1,-3,-7,26
1522257352222797,-74,1,9,5,-1,-1,-4,-16
1522257352223799,21,-4,-3,-3,-5,-7,6,-25
1522257352223799,6,-5,0,2,0,1,9,45
1522257352245858,11,23,-3,3,3,8,-18,-25
1522257352245858,57,-17,2,2,-1,6,11,13
1522257352246861,-14,-11,-5,-6,-9,-3,-14,-10
1522257352246861,-15,-5,2,3,6,7,5,24
1522257352259895,-46,9,-1,-1,-8,-31,14,11
1522257352259895,-46,-11,-7,-2,5,10,-23,-44
1522257352260899,21,-12,-4,-5,1,4,8,17
1522257352260899,110,16,-4,-6,-8,-13,-7,4
1522257352282957,-33,3,17,12,9,11,16,6
1522257352282957,61,20,5,4,0,-5,-19,-34
1522257352283960,-3,-13,-2,2,1,2,-5,12
1522257352283960,-38,-23,-25,-6,-4,1,-12,-7
1522257352306018,27,53,20,-5,-5,-8,-2,2
1522257352306018,-35,-28,-10,-4,-3,-3,17,11
1522257352307021,36,14,10,9,3,11,16,-17
1522257352307021,-50,-28,4,1,0,-19,-21,6
1522257352319052,25,-12,-5,2,6,26,5,-5
1522257352319052,-32,-4,-3,1,-6,-2,1,-4
1522257352328077,74,8,-3,1,-1,-1,0,28
1522257352328077,-5,5,-3,-1,-5,-6,6,-7
1522257352343116,41,-18,-8,-1,-8,-30,9,20
1522257352343116,-34,6,-2,-1,14,16,-8,21
1522257352343116,-29,-16,-7,-3,-6,-5,-8,-12
1522257352343116,-60,10,12,2,4,7,10,-24
1522257352366178,34,6,-19,-6,0,4,-5,12
1522257352366178,78,21,10,-3,-13,-24,8,24
1522257352366178,-97,-1,3,3,11,7,-6,-10
1522257352366178,17,3,2,-3,3,4,-1,4
1522257352380216,-18,-9,-2,1,1,6,5,-1
1522257352380216,-28,-1,-7,0,0,-1,0,-24
1522257352381218,21,-7,-10,-4,-7,-6,-6,-9
1522257352381218,28,21,4,-4,0,4,5,8
1522257352402274,-20,-16,1,1,-1,-2,-8,7
1522257352402274,49,15,6,4,-3,4,14,35
1522257352403276,-2,1,0,-6,-2,-9,-24,-29
1522257352403276,16,-13,-2,1,-1,8,2,-18
1522257352426338,-89,-14,-6,-3,-9,-10,-11,-28
1522257352426338,34,-14,-2,0,1,1,4,30
1522257352426338,9,5,8,1,-5,-9,22,51
1522257352426338,-54,-13,-8,-1,6,-6,-14,-72
1522257352439372,89,30,9,-1,1,16,-1,12
1522257352439372,-67,-20,-9,-4,-4,-2,-1,18
1522257352447394,-52,-21,-8,-1,-2,10,-3,-78
1522257352447394,-16,1,0,-3,-6,-15,12,28
1522257352462434,21,3,2,4,3,-4,13,31
1522257352462434,-6,-8,-9,-7,-5,-14,-34,-73
1522257352463437,64,9,-2,-5,-6,-8,3,43
1522257352463437,30,12,7,3,5,12,7,13
1522257352485495,-77,-17,-1,1,3,-3,3,-33
1522257352485495,19,10,5,3,-3,-6,0,5
1522257352486498,-39,-9,-5,1,-5,-5,-6,-2
1522257352486498,87,17,5,1,0,2,3,30
1522257352499532,-84,-12,-9,-12,-7,20,-1,-58
1522257352499532,104,8,0,6,13,-17,0,25
1522257352507553,-59,-16,-6,-2,3,24,-10,-39
1522257352507553,-35,5,4,6,-8,-11,-9,-6
1522257352522594,21,2,4,4,-6,-13,5,17
1522257352522594,-2,12,4,-5,0,12,0,-26
1522257352523596,35,17,8,8,4,-7,1,5
1522257352523596,-17,6,-4,-6,-5,-10,0,48
1522257352545655,-27,-58,-21,-12,-6,-6,-23,-29
1522257352545655,5,23,2,-5,-2,6,7,-4
1522257352546658,20,20,11,2,0,-16,-13,-26
1522257352546658,-21,-21,-1,2,6,11,9,14
1522257352559692,2,36,12,12,4,-6,14,42
1522257352559692,37,-20,-12,-7,-4,6,-6,-6
1522257352567713,-30,-14,-10,-6,-6,13,-4,-10
1522257352567713,-28,-13,-2,1,-8,-35,-15,-15
1522257352582753,36,24,7,-2,6,3,-8,-16
1522257352582753,-23,-11,2,2,4,13,5,2
1522257352583756,-10,0,-1,-2,2,12,2,17
1522257352583756,-7,-10,-6,-4,-5,11,-10,-40
1522257352605815,46,2,8,3,-1,-7,6,25
1522257352605815,6,30,9,7,4,5,31,58
1522257352606817,55,-8,-5,-3,-2,-14,-4,-45
1522257352606817,-66,9,-2,-2,4,10,-12,8
1522257352619853,42,-10,-2,-5,1,-15,-3,16
1522257352619853,-44,0,-3,-6,-4,-6,2,-18
1522257352627873,47,18,8,5,4,-2,19,84
1522257352627873,-35,-42,-12,-7,-12,0,-54,-104
1522257352642913,20,25,4,2,2,8,-10,17
1522257352642913,-34,-13,1,-1,-14,-7,-9,-14
1522257352643916,-11,-10,-13,-4,-2,6,19,27
1522257352643916,18,7,8,5,9,2,15,9
1522257352665974,22,15,4,2,-2,2,9,13
1522257352665974,-3,-39,-9,-3,-1,-6,-17,-17
1522257352666978,-10,11,0,-2,-1,6,-1,-12
1522257352666978,16,1,-6,-5,-3,11,9,15
1522257352680012,-19,-7,2,7,0,1,0,-16
1522257352680012,-12,13,-1,1,-4,-3,8,6
1522257352688033,82,4,0,1,5,-1,18,56
1522257352688033,-59,-2,-6,-4,-7,-25,-6,-49
1522257352703073,-82,-41,-14,-4,2,17,-12,10
1522257352703073,90,25,11,6,-2,-2,-24,-21
1522257352703073,-34,-32,-4,-6,-4,-11,-20,-26
1522257352703073,-51,10,0,0,8,20,24,37
1522257352726134,109,25,-1,-2,-5,-46,0,12
1522257352726134,-83,-40,-17,-4,0,-3,1,-43
1522257352726134,11,30,3,-3,2,-14,9,43
1522257352726134,-34,-21,-5,-7,-14,28,-7,-58
1522257352739177,-15,-10,-1,2,-4,4,5,-10
1522257352739177,7,15,5,0,5,13,8,49
1522257352748193,-34,0,-3,-4,1,-15,-5,-12
1522257352748193,50,-1,8,3,5,-5,6,-8
1522257352762230,-65,-4,-5,0,-5,11,4,-5
1522257352762230,-8,18,6,5,3,-2,-1,-2
1522257352763233,-27,-11,-9,-4,-7,-2,4,-1
1522257352763233,36,-15,-7,2,2,-10,-27,-13
1522257352786294,28,43,4,-1,4,7,-3,-1
1522257352786294,-41,3,32,10,3,-3,0,-8
1522257352786294,67,7,7,1,-3,8,2,13
1522257352786294,92,1,3,0,0,4,22,48
1522257352808353,-63,-35,-18,-6,1,-16,-29,-50
1522257352808353,-8,19,-13,-7,-4,18,-5,-18
1522257352809356,-13,4,4,2,-1,8,28,58
1522257352809356,125,17,-6,-5,-8,-29,7,-13
1522257352822390,-103,-22,2,2,10,-2,-24,-14
1522257352822390,-6,-26,-10,-7,-9,-1,-17,-10
1522257352823393,13,-12,-3,-1,-3,-1,-23,-32
1522257352823393,3,48,21,6,-1,3,29,58
1522257352845452,61,-8,5,3,2,-14,22,39
1522257352845452,-43,-14,-7,1,9,22,-9,-73
1522257352846454,63,10,-4,-1,4,-16,-5,1
1522257352846454,-104,-30,0,-2,-2,-14,-7,17
1522257352868513,5,-16,-2,-3,-8,7,-7,-14
1522257352868513,42,39,-7,-5,-2,-14,1,35
1522257352869516,-28,-21,0,2,-2,1,2,-8
1522257352869516,32,22,2,-3,-6,-3,11,2
1522257352882550,66,14,11,9,6,31,22,19
1522257352882550,47,4,-8,-1,-7,-27,-9,34
1522257352883553,-84,-37,-19,-12,-5,-49,-25,-31
1522257352883553,-83,-18,-11,-6,5,49,-27,-40
1522257352905611,36,5,-9,-8,-2,9,32,21
1522257352905611,17,-10,9,6,1,-1,34,43
1522257352906618,50,42,22,10,9,12,15,36
1522257352906618,-69,-47,-4,5,4,-16,-65,-71
1522257352928673,-34,-11,-31,-16,-21,-20,-35,-40
1522257352928673,-18,24,27,10,9,10,-7,-18
1522257352928673,-90,-29,2,2,-7,-1,-10,-28
1522257352928673,96,22,11,7,2,-4,51,42
1522257352942710,49,37,17,9,8,13,4,71
1522257352942710,-56,-63,-29,-21,-1,-7,0,-33
1522257352943713,8,0,-7,-10,-7,18,-11,5
1522257352943713,-7,4,1,-2,2,-22,-10,9
1522257352965771,-4,-10,0,-1,-1,-5,9,-2
1522257352965771,4,-11,-10,-8,-11,-21,0,3
1522257352966774,9,23,10,4,-4,7,21,50
1522257352966774,28,-25,-10,0,11,28,-13,-58
1522257352988832,-25,-3,3,-2,-6,-13,-23,-32
1522257352988832,61,32,-5,-2,-4,6,10,6
1522257352988832,-114,-19,-3,-3,0,0,-22,-63
1522257352988832,86,-6,-4,3,-3,-12,24,94
1522257353002870,-56,-15,-3,-1,0,-4,3,-50
1522257353002870,19,9,10,6,0,14,-3,9
1522257353003873,-65,1,-15,-6,-8,-20,-18,-29
1522257353003873,104,8,4,0,2,15,17,39
1522257353025931,-8,25,7,-7,2,0,5,6
1522257353025931,27,-5,-1,-3,-21,-15,-1,34
1522257353026934,-4,-10,-1,10,20,12,3,-37
1522257353026934,-27,12,-3,1,-2,-7,5,23
1522257353047990,25,-15,-4,2,-3,0,-4,-7
1522257353047990,13,5,5,0,-2,-54,-26,-44
1522257353048992,-15,11,5,4,4,96,26,8
1522257353048992,-13,-14,-9,-7,-4,-65,-21,-45
1522257353063030,-2,-9,-3,-2,-20,22,-9,-3
1522257353063030,6,0,0,-5,-3,-25,9,56
1522257353063030,4,-11,-3,-6,3,-12,-11,-62
1522257353063030,-59,25,7,-2,4,22,32,61
1522257353086091,111,23,12,7,3,-12,0,11
1522257353086091,4,-17,-17,-3,2,18,-8,8
1522257353087094,22,5,0,0,-6,-15,-12,-25
1522257353087094,17,7,-4,-3,2,13,2,2
1522257353108150,-17,-21,-14,-7,-2,-20,4,-3
1522257353108150,-60,39,20,7,6,25,3,-17
1522257353109153,71,-23,4,3,2,-14,12,68
1522257353109153,-17,17,1,1,1,20,-3,-46
1522257353123190,-10,-9,5,5,-1,11,24,62
1522257353123190,-104,-10,-10,3,11,0,-19,-81
1522257353123190,99,8,-15,-13,-28,-22,-37,-7
1522257353123190,-25,-22,-9,-11,-12,-23,-23,19
1522257353146251,115,39,8,7,36,35,25,57
1522257353146251,-95,-47,-2,-1,-4,5,7,-16
1522257353146251,73,17,2,-2,-7,-14,6,-9
1522257353146251,1,0,1,2,-17,-9,5,59
1522257353168310,-33,5,-6,-4,-7,-2,-20,-75
1522257353168310,5,-10,1,4,22,41,17,41
1522257353169312,-28,14,4,3,6,-13,-11,-23
1522257353169312,-3,-7,1,1,2,0,0,21
1522257353182347,-57,-10,-8,-3,-2,-20,-6,-30
1522257353182347,100,6,3,0,-10,2,-13,-3
1522257353183350,-60,-13,-9,-6,-7,-4,15,42
1522257353183350,-31,14,8,5,6,20,10,-15
1522257353205408,54,-14,-12,-9,-8,-49,-11,14
1522257353205408,8,-27,-4,-1,-1,13,-15,-22
1522257353206411,7,18,0,-1,-1,-1,-3,13
1522257353206411,-78,-46,-11,-3,7,-7,-17,-36
1522257353228469,-74,-13,0,1,1,11,4,-22
1522257353228469,44,23,3,2,-16,-12,19,61
1522257353229473,-18,0,1,-4,-7,-22,4,11
1522257353229473,34,1,-5,-8,-2,15,22,56
1522257353242507,-14,-17,-4,0,-7,16,-22,-82
1522257353242507,-37,-13,-8,-5,20,-1,-10,27
1522257353243510,23,6,6,9,6,10,3,17
1522257353243510,60,19,-2,-8,-12,-24,-15,-25
1522257353265568,35,9,8,4,-24,17,55,88
1522257353265568,-65,-34,-18,-7,4,40,-15,-80
1522257353266571,62,23,13,8,6,-27,-19,1
1522257353266571,-21,-22,-2,-3,2,-1,0,-12
1522257353288629,-3,11,5,2,-3,-13,-9,27
1522257353288629,6,14,2,4,-14,-1,26,15
1522257353289632,5,-4,-2,1,4,14,8,-39
1522257353289632,-46,-25,-10,0,-3,-5,-7,-15
1522257353302667,-14,14,12,-2,1,1,-2,-11
1522257353302667,5,3,8,4,8,-14,2,19
1522257353303670,1,6,3,3,7,15,11,-2
1522257353303670,-1,8,0,-1,-7,-6,-4,13
1522257353324725,-38,-36,-23,-10,-1,-10,-41,-76
1522257353324725,65,5,6,1,2,-7,17,92
1522257353325728,29,13,13,2,0,7,9,11
1522257353325728,77,33,14,14,-2,2,4,-53
1522257353348789,-92,-54,-6,0,10,-5,-33,1
1522257353348789,29,9,-13,-6,-6,2,-17,-53
1522257353348789,31,-9,-8,-6,-7,0,-3,-25
1522257353348789,6,7,-1,3,6,15,20,32
1522257353362827,37,35,9,-2,2,-13,7,14
1522257353362827,6,9,-2,-5,-5,-13,24,32
1522257353363829,-35,-1,-1,4,6,7,2,27
1522257353363829,-48,-3,-1,0,-1,1,-3,-52
1522257353384885,27,-2,-3,1,0,-10,8,49
1522257353384885,-15,-9,-2,-9,-8,-5,-16,-13
1522257353385888,-23,-7,1,-2,-5,2,19,-3
1522257353385888,-14,-1,-10,-4,-4,-9,-30,-24
1522257353407946,-93,-14,-2,-1,5,8,-7,6
1522257353407946,58,23,0,4,1,-3,4,2
1522257353408949,38,-11,-8,-4,-4,-10,-6,-1
1522257353408949,1,18,7,3,-3,2,11,19
1522257353421984,36,10,3,5,13,15,7,-21
1522257353421984,-36,-7,-4,1,2,5,6,11
1522257353430005,-67,-37,-15,-12,-5,0,-18,-55
1522257353430005,-4,35,13,4,0,-1,-2,1
1522257353445045,40,2,5,6,-2,-2,21,27
1522257353445045,-42,-37,-2,1,16,-2,-14,-18
1522257353446048,21,16,-2,-2,-13,-12,-11,32
1522257353446048,-15,-5,-6,-4,7,15,14,30
1522257353468106,55,-8,-6,-7,-12,16,-12,-69
1522257353468106,-55,17,7,-8,-1,-14,-10,7
1522257353469109,2,2,-1,8,-23,-26,7,30
1522257353469109,37,-20,-11,-2,6,28,-11,5
1522257353482143,-21,9,3,1,0,10,9,5
1522257353482143,67,3,2,-1,-2,-4,-3,-9
1522257353490165,-48,-1,-1,-7,-1,8,-3,5
1522257353490165,-4,24,11,10,-4,-23,19,2
1522257353505205,-3,2,0,8,9,10,-11,11
1522257353505205,-56,-23,-10,-8,-16,10,-13,-42
1522257353506208,13,-6,-14,-5,10,6,12,31
1522257353506208,91,32,17,9,5,4,5,6
1522257353528266,0,-9,-3,-5,-1,-6,4,11
1522257353528266,-57,0,1,5,-2,-17,2,11
1522257353529269,61,5,1,3,10,20,22,-20
1522257353529269,-22,-19,-6,-10,0,-14,-38,-15
1522257353542303,-12,-1,-7,-10,-11,-11,-11,5
1522257353542303,63,25,7,2,-4,0,16,37
1522257353550325,-39,-10,1,6,7,0,-6,-31
1522257353550325,-5,-14,-7,-5,-8,-1,6,30
1522257353565365,-14,2,1,-5,-4,-15,-3,3
1522257353565365,-17,6,-1,2,1,-2,-8,-25
1522257353566368,-1,0,-3,-7,-1,15,-2,6
1522257353566368,-14,-9,-4,-5,-7,-11,-6,-26
1522257353588426,10,4,1,5,0,0,2,10
1522257353588426,37,9,6,2,3,0,11,21
1522257353589429,58,10,6,3,4,3,0,-8
1522257353589429,-94,-24,-9,-3,1,2,7,30
1522257353602463,5,-20,0,-1,-4,-10,-14,-67
1522257353602463,2,7,-7,-6,-4,-17,-17,-21
1522257353610485,-41,2,-3,1,3,5,-18,-22
1522257353610485,12,-12,0,-3,7,6,1,6
1522257353625525,5,26,6,0,-9,-2,8,33
1522257353625525,-11,-50,-8,-2,-6,4,10,11
1522257353625525,1,24,1,-1,-7,-8,-7,10
1522257353625525,32,17,5,3,5,0,10,16
1522257353648586,4,25,3,-2,-1,3,13,16
1522257353648586,-32,-16,-7,-7,-12,-65,-17,-52
1522257353649589,-24,-21,1,12,26,83,10,34
1522257353649589,12,-1,-7,-2,7,-12,-24,-67
1522257353661621,-45,-27,0,0,-2,4,-5,-13
1522257353661621,15,23,3,-5,-12,-7,6,30
1522257353670644,-32,-15,-1,2,-7,-28,23,-14
1522257353670644,72,-10,-4,-2,-10,-2,-55,-1
1522257353685685,-40,-3,-9,-4,6,3,-7,-19
1522257353685685,-22,14,-4,-4,-7,2,-6,19
1522257353685685,-38,-3,-3,-6,-6,-12,1,-23
1522257353685685,5,0,6,1,1,12,24,10
1522257353708746,-11,-1,7,5,5,4,10,19
1522257353708746,-15,-2,-4,1,4,1,-11,-19
1522257353708746,-19,-5,-4,-2,-6,-17,-20,-35
1522257353708746,-28,1,-1,2,0,-3,5,4
1522257353730804,45,11,-2,0,0,-1,8,35
1522257353730804,40,-3,-9,-5,3,16,13,10
1522257353731807,0,-5,8,2,9,-5,-11,-13
1522257353731807,77,55,23,10,-9,-16,13,24
1522257353744842,-36,-18,-8,0,1,14,-1,-25
1522257353744842,-20,-4,11,10,5,6,21,43
1522257353745844,3,-41,-24,-14,0,-30,-29,-81
1522257353745844,-27,-21,-11,-9,-6,37,0,-20
1522257353767903,53,18,4,-2,-2,8,18,5
1522257353767903,6,5,-1,1,2,4,-13,9
1522257353768906,13,12,6,0,-4,-6,15,63
1522257353768906,-5,-9,1,0,0,-14,19,25
1522257353790964,23,-9,-8,-4,2,-10,-27,-53
1522257353790964,-31,21,9,3,2,7,-7,-25
1522257353791967,-7,-20,2,-1,-6,-7,2,13
1522257353791967,-47,-14,-3,0,2,1,-2,-19
1522257353805001,2,5,-4,1,-9,-21,3,24
1522257353805001,-13,-26,-6,-3,6,19,-2,-8
1522257353806004,35,28,8,1,-1,1,-4,28
1522257353806004,-50,-22,-12,-11,-7,-7,-17,-44
1522257353828063,26,0,4,3,1,6,7,13
1522257353828063,65,5,8,4,2,-6,-3,11
1522257353829066,-26,4,-6,-2,-1,2,3,7
1522257353829066,73,13,3,4,2,0,9,18
1522257353851124,-9,31,-3,-13,-16,-21,-8,29
1522257353851124,-15,-28,-14,-4,3,7,-12,-28
1522257353852127,-9,-8,-4,-8,-4,3,-26,-59
1522257353852127,-35,-28,-6,-2,1,-5,-2,-37
1522257353865161,52,10,6,5,6,-5,-10,-6
1522257353865161,8,20,1,0,-2,-2,12,33
1522257353866165,29,5,-1,0,-4,-1,8,28
1522257353866165,-6,9,-10,-5,-4,-2,3,14
1522257353888223,-26,-8,11,4,4,1,-8,-28
1522257353888223,-7,-9,4,8,2,0,3,-10
1522257353889226,44,14,3,3,4,0,9,26
1522257353889226,42,-2,-1,-5,-8,10,46,50
1522257353911284,-19,18,-14,-3,2,-26,-27,-19
1522257353911284,16,-7,-6,-5,-7,18,-40,-68
1522257353911284,-54,1,2,2,-2,-3,-2,5
1522257353911284,40,-5,-3,-4,-2,-3,-12,-15
1522257353925321,4,-9,8,4,4,6,24,35
1522257353925321,24,12,5,-1,2,-9,15,10
1522257353926325,5,7,-3,-8,-7,-1,1,-23
1522257353926325,23,13,8,1,-1,-2,3,34
1522257353948383,-58,-24,-6,-2,2,8,2,-1
1522257353948383,54,18,-2,1,1,11,8,21
1522257353949386,-50,-37,-1,1,2,-5,-3,3
1522257353949386,-26,28,3,4,6,2,-3,-13
1522257353970441,-36,-5,-2,6,-1,-4,-4,-30
1522257353970441,22,8,8,0,3,2,30,71
1522257353971444,32,9,1,2,0,-6,-8,-27
1522257353971444,20,-12,2,5,4,3,-14,23
1522257353985481,-63,13,-3,-5,-7,-8,3,20
1522257353985481,-38,-35,-20,-13,-7,-3,-15,-49
1522257353985481,39,19,0,1,-1,0,12,14
1522257353985481,-55,-22,-1,5,6,3,-7,-26
1522257354008543,26,-3,-1,-1,3,-26,0,-9
1522257354008543,59,11,4,1,-6,8,14,17
1522257354009545,-99,-17,4,0,-8,-22,-2,3
1522257354009545,37,21,-5,-4,-6,2,10,42
1522257354030601,27,-14,-2,-2,6,15,-7,-3
1522257354030601,-47,1,-3,0,0,-4,-9,-31
1522257354031604,16,-13,-10,-4,-2,1,-18,-29
1522257354031604,-35,0,5,5,3,-3,3,25
1522257354045641,35,7,4,-1,-1,14,14,22
1522257354045641,-21,-14,-7,-4,3,-11,1,2
1522257354045641,30,32,-1,-3,-5,5,0,10
1522257354045641,-46,-14,9,2,-4,-8,-4,-22
1522257354068702,8,-7,1,4,0,8,6,13
1522257354068702,5,3,12,11,5,3,-9,-22
1522257354068702,58,16,-5,1,4,8,0,27
1522257354068702,-63,-16,-16,-7,2,0,-5,-32
1522257354090761,-18,-14,-7,-5,-19,-4,-18,-15
1522257354090761,30,-2,1,-1,-10,-6,5,13
1522257354091764,-30,-20,-11,-8,-7,-13,1,-5
1522257354091764,8,1,9,9,6,-3,7,-9
1522257354104798,-80,17,3,3,18,37,5,40
1522257354104798,64,-8,-14,-9,-8,-16,-24,-79
1522257354105801,-6,-7,-2,-5,0,8,1,23
1522257354105801,6,1,-5,-5,-4,-7,-8,-19
1522257354127859,37,3,6,7,1,-10,18,22
1522257354127859,22,37,20,6,-14,-12,21,46
1522257354128863,-38,-32,-7,-2,-8,12,-12,-23
1522257354128863,-12,-19,-14,-5,0,-5,-30,-30
1522257354150921,9,0,0,1,0,11,2,-10
1522257354150921,-7,1,-3,-3,8,-2,0,16
1522257354151924,25,5,3,1,-11,-18,12,1
1522257354151924,13,6,-2,-4,-13,-21,1,62
1522257354164958,33,-26,-13,-9,6,36,-11,-84
1522257354164958,-44,-46,-20,-3,-1,-9,-16,-14
1522257354165961,-11,46,24,5,7,5,-1,4
1522257354165961,64,4,6,1,2,1,2,-4
1522257354188019,-37,2,0,1,-2,-19,17,58
1522257354188019,-9,-6,-2,-1,2,6,7,-31
1522257354189023,23,-20,-34,-10,0,-6,-22,-3
1522257354189023,-49,27,27,4,3,3,-4,-13
1522257354211081,41,-3,6,1,-6,-9,-5,-19
1522257354211081,-1,27,2,4,10,13,12,11
1522257354212084,-17,-26,-8,-5,-5,-9,4,42
1522257354212084,-9,-5,-7,-6,-14,-6,-6,-57
1522257354225118,88,18,3,1,13,-14,28,82
1522257354225118,-52,-4,10,1,-10,35,-34,-61
1522257354226121,-9,-2,-2,-1,5,-7,-20,-13
1522257354226121,8,-10,-11,-4,-3,6,9,47
1522257354248179,18,-6,0,1,2,0,-1,-6
1522257354248179,44,13,3,4,-1,-9,26,51
1522257354249182,49,31,19,7,-1,17,23,14
1522257354249182,-56,-35,-12,-7,-8,-22,-36,-67
1522257354271241,-12,-13,-8,0,-2,-14,-21,-25
1522257354271241,-34,14,1,2,5,-2,10,26
1522257354271241,7,-8,10,6,2,6,-2,-11
1522257354271241,31,-10,-5,2,5,1,16,35
1522257354285278,-17,13,11,-1,-7,4,-5,-30
1522257354285278,64,42,20,2,5,0,3,19
1522257354286281,-59,-14,-12,-5,1,-10,-6,8
1522257354286281,31,-15,-11,0,-2,6,-7,-49
1522257354308339,-64,-15,-5,-4,-6,0,-9,-8
1522257354308339,27,-11,-4,-2,-3,-8,-11,-32
1522257354309342,62,16,12,3,2,6,26,46
1522257354309342,-35,24,2,0,4,10,24,31
1522257354330398,33,-18,-15,-8,-10,-11,-38,-72
1522257354330398,53,10,-1,1,-1,-21,-3,13
1522257354331401,-58,-23,-6,-3,9,16,-1,-36
1522257354331401,-12,-2,-5,-2,-4,0,-5,9
1522257354344435,1,3,2,3,2,8,23,45
1522257354344435,-10,0,4,1,0,-18,19,9
1522257354352456,-7,5,2,9,4,31,-20,-34
1522257354352456,24,15,3,-6,-7,-1,5,2
1522257354368499,-25,-9,-8,-4,-5,0,-7,1
1522257354368499,-1,-16,-13,-9,-2,-2,-8,-2
1522257354369502,-38,-1,9,2,-4,-10,8,11
1522257354369502,32,7,3,0,4,-3,-3,14
1522257354390558,45,-3,0,0,-1,0,7,-2
1522257354390558,15,22,5,5,1,5,2,27
1522257354391560,20,-17,-9,-3,-5,-13,-1,6
1522257354391560,-41,-4,-4,1,7,10,-5,-12
1522257354404595,-17,-20,-9,-7,-6,-14,-16,-33
1522257354404595,-42,-16,-5,2,4,8,12,8
1522257354412617,50,8,3,-1,-4,-14,-9,-6
1522257354412617,43,16,18,7,0,0,13,40
1522257354427656,-92,-26,-16,-12,3,15,-4,-28
1522257354427656,-45,-18,-4,-4,-5,0,1,-4
1522257354428659,4,31,3,2,-3,-6,-14,-6
1522257354428659,-18,-11,-4,3,2,9,8,12
1522257354450718,9,17,0,-2,-4,-8,6,-9
1522257354450718,-11,-1,-4,-2,-5,-4,-14,1
1522257354451721,-44,-6,-1,-7,-4,-5,-4,-21
1522257354451721,107,-6,-8,-4,-2,-1,7,22
1522257354464755,38,15,3,1,2,11,20,53
1522257354464755,-31,-7,7,1,5,1,-5,-16
1522257354472776,84,17,12,10,1,-9,10,18
1522257354472776,-115,-14,-11,-3,4,7,-12,-12
1522257354487816,8,0,-1,-1,-2,6,-7,-9
1522257354487816,-17,-13,-10,-8,-11,-10,-19,-28
1522257354488819,-29,-12,-10,0,3,6,13,1
1522257354488819,108,55,26,9,2,12,15,20
1522257354510877,67,-5,0,4,-1,-11,-7,19
1522257354510877,-27,-3,3,1,3,1,15,53
1522257354511880,-5,-20,-11,-10,-3,-12,-55,-85
1522257354511880,-36,-7,-1,-5,0,-11,1,16
1522257354524915,23,15,0,4,3,-1,4,13
1522257354524915,57,5,-4,2,3,-10,2,5
1522257354532936,-55,3,-1,-4,-6,12,2,-3
1522257354532936,-10,-14,-6,0,-2,7,-5,-18
1522257354547976,-32,-1,-1,-1,-7,-6,3,26
1522257354547976,32,-16,-9,-5,3,6,-2,-32
1522257354548979,59,34,18,3,5,-2,18,28
1522257354548979,-17,3,0,-1,-3,-5,-2,-1
1522257354571037,-54,-8,2,6,-2,-5,-5,-44
1522257354571037,-34,-5,2,4,2,0,-8,-2
1522257354572040,32,2,1,0,2,5,32,67
1522257354572040,-73,-27,-13,-9,-7,-18,-30,-88
1522257354585075,109,-17,-7,-9,-1,11,-8,25
1522257354585075,-40,15,8,-2,-15,-3,-2,11
1522257354593096,-8,1,-4,6,23,-2,1,-1
1522257354593096,-35,-11,0,7,11,0,10,17
1522257354608136,-28,-7,-3,2,2,-1,7,-15
1522257354608136,-36,-9,-8,-5,-2,-1,-7,-39
1522257354608136,32,5,-4,-6,-13,-4,14,28
1522257354608136,1,-6,0,-4,-5,-12,-4,-13
1522257354631197,-2,16,3,2,2,-3,0,-11
1522257354631197,46,5,1,-2,-1,-10,-11,53
1522257354631197,77,15,3,1,-6,-1,5,5
1522257354631197,-78,-10,-9,-3,4,20,-6,-13
1522257354644232,68,4,6,2,-5,0,9,46
1522257354644232,-100,5,6,4,2,-1,2,-74
1522257354652253,-28,-25,4,7,4,10,3,11
1522257354652253,41,25,-1,-8,-4,-28,-30,-15
1522257354667293,-31,1,-7,-9,1,1,11,25
1522257354667293,10,-38,-18,-12,-15,-6,-4,-8
1522257354668296,-11,15,12,6,1,2,0,-17
1522257354668296,46,29,24,11,-1,8,10,9
1522257354690355,-46,-5,9,6,1,-14,-7,-17
1522257354690355,33,-3,-7,-1,15,15,4,31
1522257354691357,-51,-13,-13,-8,-4,11,3,-9
1522257354691357,56,-16,-9,-2,4,5,10,24
1522257354713416,32,28,-1,-2,1,-4,-3,-6
1522257354713416,5,5,11,2,-4,-19,7,9
1522257354714418,-62,-28,-20,-18,-4,-24,-21,7
1522257354714418,-27,-21,-5,3,-27,4,8,-32
1522257354727453,19,-2,-1,8,14,2,-18,-16
1522257354727453,-18,-2,-1,-2,-5,1,3,-18
1522257354728456,83,12,4,4,4,-5,16,35
1522257354728456,51,19,-1,0,-1,-9,5,39
1522257354750514,-84,-34,-12,-12,-17,-17,-34,-87
1522257354750514,30,24,4,4,5,4,10,40
1522257354751517,-16,-44,-3,1,-5,-3,-11,-47
1522257354751517,-10,-8,3,7,11,15,7,20
1522257354773576,17,30,19,10,1,-2,15,27
1522257354773576,83,-8,0,2,6,10,-5,-2
1522257354774579,-84,-15,-16,-11,-5,15,0,5
1522257354774579,10,-13,-15,-15,-16,-13,-22,-39
1522257354787613,-17,-3,2,-4,1,4,8,16
1522257354787613,0,2,-1,-3,-5,-9,8,-28
1522257354788616,25,13,2,8,3,-1,-10,15
1522257354788616,57,10,5,1,7,-7,6,19
1522257354810674,23,4,-14,-11,-13,-3,-11,-25
1522257354810674,-37,-36,-4,-3,-1,5,0,8
1522257354811677,15,9,11,7,0,2,9,-2
1522257354811677,-37,-2,-1,-1,5,-4,-4,-12
1522257354833736,16,2,2,1,-3,0,-5,-4
1522257354833736,-1,7,-3,0,0,5,1,20
1522257354833736,31,9,8,7,2,-21,17,24
1522257354833736,18,3,-6,-3,4,35,19,22
1522257354847773,-33,-20,-16,-14,-8,-8,-24,-20
1522257354847773,-29,-2,-7,-3,-1,7,-15,-31
1522257354848776,7,4,5,0,0,-9,-6,-14
1522257354848776,24,12,11,6,6,-3,15,28
1522257354870834,23,32,19,9,0,7,15,25
1522257354870834,2,-27,-11,-5,-3,-3,-6,-4
1522257354871837,-62,-5,1,0,-1,4,-2,8
1522257354871837,42,9,-6,-7,-4,-3,-3,-18
1522257354892893,-57,-18,1,4,5,5,8,6
1522257354892893,29,16,2,0,-8,-11,8,-9
1522257354893896,58,-1,-7,-3,2,5,-15,16
1522257354893896,18,-11,1,2,-1,3,-6,-15
1522257354907933,-33,-15,-5,-7,-3,-38,-13,-20
1522257354907933,10,15,1,-1,2,11,-8,-13
1522257354908935,-24,6,-7,-6,-9,3,-3,-39
1522257354908935,-6,-3,8,-1,2,-2,-2,2
1522257354930994,18,-12,0,8,7,0,0,-1
1522257354930994,42,37,6,8,-8,-21,34,74
1522257354931997,-90,-39,-22,-14,8,22,-52,-127
1522257354931997,-21,-9,-3,0,-5,-15,-8,11
1522257354953053,1,3,-7,-9,-8,17,20,32
1522257354953053,-15,-10,2,5,8,8,-4,-1
1522257354954055,44,18,8,3,-4,-2,25,44
1522257354954055,30,13,7,4,5,4,10,23
1522257354968092,-43,1,3,3,0,9,3,29
1522257354968092,-78,-21,-9,-10,-3,-27,-50,-113
1522257354968092,40,-13,-16,-8,-12,-14,-9,23
1522257354968092,-54,-1,6,-3,-3,-7,-9,1
1522257354991154,44,18,6,2,3,5,17,29
1522257354991154,8,18,8,6,3,12,19,36
1522257354992157,-9,-11,0,3,1,-1,4,0
1522257354992157,12,7,-14,-2,-1,0,-2,-42
1522257355013213,19,19,29,9,6,7,3,0
1522257355013213,-57,-4,-8,-10,-4,1,-9,-15
1522257355014215,-25,-21,-6,-7,-4,0,9,1
1522257355014215,24,4,-5,-4,-7,-6,6,1
1522257355027249,30,-9,-14,-6,-4,-5,-17,-17
1522257355027249,3,-7,3,3,-1,-15,5,21
1522257355028253,12,10,8,-1,5,21,11,24
1522257355028253,-69,-4,-6,6,-6,-1,-20,-44
1522257355051314,76,-4,-8,-3,3,25,8,14
1522257355051314,-59,-20,-2,-2,-2,-1,-6,-3
1522257355051314,-18,4,-1,-3,-3,-7,14,16
1522257355051314,55,7,6,-2,-2,-13,5,20
1522257355073372,-3,9,4,-1,-3,-7,8,2
1522257355073372,11,9,3,1,2,11,2,2
1522257355074375,10,3,2,4,0,-11,-4,-7
1522257355074375,-34,-16,-12,-1,7,12,-6,-4
1522257355087409,-77,21,11,10,2,-9,-8,-31
1522257355087409,64,1,0,-2,-2,3,-17,14
1522257355088413,29,10,3,-1,-4,-5,-8,-10
1522257355088413,-6,-10,0,-2,-3,-9,-13,-17
1522257355110471,56,4,-10,-4,-4,-4,17,22
1522257355110471,74,11,6,1,0,0,35,75
1522257355111474,-68,16,-1,-3,4,16,11,23
1522257355111474,-20,-39,-18,-9,-5,-1,-65,-60
1522257355133532,-28,4,0,-3,-6,-12,-6,17
1522257355133532,18,-2,5,2,1,2,-4,-7
1522257355134535,53,9,5,4,-2,-8,26,35
1522257355134535,-27,18,4,-1,2,-3,29,29
1522257355147570,-63,-20,-6,-2,-1,10,-17,-34
1522257355147570,-23,-19,-12,-6,-2,8,-7,-30
1522257355148573,57,6,1,0,1,-4,-5,-2
1522257355148573,-79,-2,5,0,-1,11,16,-3
1522257355170631,12,-1,-7,-6,-7,-16,-10,-9
1522257355170631,-42,11,5,4,6,1,-5,-15
1522257355171634,20,10,2,5,0,0,-5,-11
1522257355171634,15,-9,-2,-6,-12,-28,9,5
1522257355193692,-53,-21,-9,-1,14,24,7,1
1522257355193692,14,2,1,-2,-7,12,-7,-9
1522257355193692,-4,-15,1,1,0,-2,-10,17
1522257355193692,49,21,7,-2,1,2,10,22
1522257355207729,-45,-4,-11,-12,-10,-17,2,-5
1522257355207729,-4,-6,-4,1,-2,-9,-2,-23
1522257355208732,8,0,4,3,5,-6,17,12
1522257355208732,32,5,5,4,-1,18,-4,5
1522257355230791,-13,-23,-11,-5,-3,-9,-15,-12
1522257355230791,64,20,-3,-2,2,3,-2,19
1522257355231793,-8,-1,-5,-4,-8,-7,3,1
1522257355231793,54,10,3,4,5,-1,15,23
1522257355253852,0,-16,0,2,-1,-3,-7,-14
1522257355253852,-9,-3,5,3,1,3,9,28
1522257355253852,-31,-8,-5,-2,-2,-6,-24,-25
1522257355253852,-15,9,-5,-5,1,-3,-13,-8
1522257355267890,46,-2,6,5,3,-5,4,11
1522257355267890,-52,5,-1,2,2,13,6,6
1522257355268892,-12,-5,8,6,-2,-9,7,-12
1522257355268892,18,-5,9,11,15,31,16,47
1522257355290950,62,24,-13,-13,-13,-8,-14,-40
1522257355290950,-5,-12,-11,-9,-9,-20,-30,-55
1522257355291953,-41,-15,4,-2,-1,1,-10,-23
1522257355291953,-27,-5,2,3,-2,-11,5,-1
1522257355313009,70,18,6,7,4,16,33,73
1522257355313009,48,-6,-3,3,8,-5,-3,-41
1522257355314012,-51,-9,-11,-8,-10,-10,-22,-20
1522257355314012,-3,-1,-5,-5,-6,3,2,23
1522257355327046,-22,-2,4,1,3,-2,-6,-11
1522257355327046,34,0,-1,-2,-2,-8,0,8
1522257355335068,13,12,4,6,7,4,8,-3
1522257355335068,-4,-2,-3,-5,-1,-2,-17,-6
1522257355351110,-18,-16,-1,0,1,3,13,1
1522257355351110,-21,12,-1,0,-2,-8,-3,-10
1522257355352113,-14,-5,-12,-7,-4,-1,-14,14
1522257355352113,21,19,0,1,2,1,-3,-4
1522257355373169,8,4,3,5,-1,4,-1,-9
1522257355373169,-37,-14,0,-4,-1,7,14,19
1522257355374172,49,15,0,0,2,4,7,-2
1522257355374172,-102,-34,-8,-1,-6,-10,-10,-26
1522257355387206,46,11,8,4,2,9,3,9
1522257355387206,47,1,1,-1,-5,4,12,26
1522257355395228,-27,-8,-6,-5,-2,-5,-12,-2
1522257355395228,39,-2,-6,0,-13,-17,-3,-37
1522257355411270,-4,9,6,3,13,11,-3,33
1522257355411270,-21,-3,3,-1,5,7,13,29
1522257355411270,14,1,4,-4,-5,-6,-19,-40
1522257355411270,50,14,4,-2,-5,-17,-2,-6
1522257355433329,-68,-36,-12,-8,-2,24,-3,-20
1522257355433329,-13,-3,-6,-6,-5,-34,-1,10
1522257355434332,11,10,-1,0,-4,-10,14,17
1522257355434332,2,-16,0,4,15,20,14,5
1522257355447366,-40,0,-1,-1,-9,-14,-18,1
1522257355447366,86,8,8,4,-1,11,3,41
1522257355455387,61,3,1,6,-2,14,4,-19
1522257355455387,-53,1,-5,-7,-4,-5,7,-3
1522257355470428,23,3,-2,-4,-4,-8,-1,-7
1522257355470428,-36,-11,-7,-1,2,6,-4,-23
1522257355471430,0,1,0,3,2,-4,0,10
1522257355471430,35,-2,-2,-3,-3,2,-6,19
1522257355493489,6,-7,-2,-1,1,-8,-1,-13
1522257355493489,-66,-2,-1,0,-5,-2,-10,-51
1522257355494492,20,4,5,1,1,8,25,39
1522257355494492,-63,-26,-13,-8,-1,-19,-33,-10
1522257355507526,45,19,-3,-7,-8,9,8,-7
1522257355507526,-7,-14,0,4,1,-4,-14,-12
1522257355515547,-37,-6,-7,-6,-3,4,-7,-21
1522257355515547,-25,-12,-6,0,-1,3,-8,-30
1522257355529585,34,1,0,2,-6,-26,1,9
1522257355529585,-47,5,1,2,8,22,6,27
1522257355538610,7,-20,-6,-4,-1,4,-2,-23
1522257355538610,11,4,0,0,-1,0,4,-1
1522257355553649,72,30,8,3,0,-3,-2,21
1522257355553649,-49,-12,2,5,-4,-3,5,-17
1522257355554651,29,8,6,8,12,16,10,33
1522257355554651,14,6,-13,-11,-11,-7,-7,-12
1522257355566683,-10,-17,-2,0,0,-3,-13,-15
1522257355566683,-8,5,-1,-3,-1,-7,-7,6
1522257355575707,-1,-6,-4,-3,-4,-2,3,3
1522257355575707,44,9,10,5,5,11,23,35
1522257355589745,-17,9,1,2,2,-2,5,27
1522257355589745,-29,-7,-6,-4,0,-7,-4,-45
1522257355590747,92,7,-3,-2,-3,3,-5,8
1522257355590747,3,21,3,0,-3,-9,8,32
1522257355613809,-101,-6,3,0,4,9,-2,-27
1522257355613809,47,1,-9,-4,-4,1,0,0
1522257355613809,6,-12,2,-3,0,-3,-13,4
1522257355613809,-13,1,7,1,0,0,0,-5
1522257355635867,38,7,-1,1,-1,0,12,21
1522257355635867,31,-2,9,5,2,4,4,25
1522257355637873,-39,6,2,3,-3,-1,3,-19
1522257355637873,4,-11,-6,2,-1,3,0,33
1522257355649905,-26,-21,-11,-4,-2,-7,-10,-17
1522257355649905,35,36,6,-3,1,4,10,28
1522257355650908,-39,-16,-19,-16,-14,-18,-15,-5
1522257355650908,19,2,7,7,5,0,-9,-26
1522257355672966,-83,-18,0,2,-1,5,16,14
1522257355672966,45,1,-6,-3,-5,-7,-27,-29
1522257355674972,29,5,4,1,10,8,15,20
1522257355674972,0,-1,-3,-7,-1,8,-1,-1
1522257355696027,14,13,2,-5,-1,-4,-5,-19
1522257355696027,2,-19,-2,1,-5,-4,10,16
1522257355698033,-34,5,8,8,1,-1,8,18
1522257355698033,29,-9,5,7,6,-1,-23,-61
1522257355710065,4,3,-9,-7,-5,-23,13,80
1522257355710065,-18,-7,-5,-7,0,13,-13,-38
1522257355718086,79,20,-2,0,-1,3,0,14
1522257355718086,-51,-23,-4,-11,-8,-1,3,-8
1522257355733126,-35,-5,3,3,-2,-2,-15,-46
1522257355733126,10,3,3,3,3,-9,9,34
1522257355735131,-29,-9,4,6,3,-2,-6,-24
1522257355735131,75,15,6,5,-6,-20,29,57
1522257355756187,-22,-1,-1,-1,6,39,1,-25
1522257355756187,76,-3,-11,-8,-9,-27,-47,-23
1522257355757190,-79,8,2,-2,-3,-4,-8,-33
1522257355757190,-26,0,-4,-2,-2,-3,-13,-4
1522257355769222,24,2,5,3,1,-1,14,22
1522257355769222,-21,0,2,4,0,11,13,-11
1522257355778246,-14,-37,-15,-7,-11,1,-8,3
1522257355778246,83,46,18,2,-1,-4,12,32
1522257355793286,-68,-6,-4,0,2,4,16,33
1522257355793286,-17,0,-7,-4,1,3,-14,-38
1522257355795294,38,-5,1,1,0,-15,-5,-28
1522257355795294,-76,-24,-15,-5,0,5,-2,-13
1522257355816347,97,-6,-3,-3,-4,-3,-9,7
1522257355816347,3,1,3,0,0,3,11,23
1522257355817350,-36,9,4,3,2,4,8,-3
1522257355817350,-1,4,1,0,-7,-25,3,45
1522257355829382,42,-5,-6,-2,10,26,-15,-74
1522257355829382,-84,-16,-7,-4,1,6,-1,12
1522257355838405,4,-1,-4,-5,-1,-3,-13,-20
1522257355838405,35,4,-11,-9,0,4,4,-12
1522257355853446,-71,-2,5,4,-5,-27,-1,-25
1522257355853446,20,4,10,7,-4,1,11,50
1522257355855451,-21,9,4,-2,7,0,2,-18
1522257355855451,11,-7,-1,1,3,7,4,13
1522257355876507,5,-15,-4,-6,-5,-9,-10,-30
1522257355876507,43,33,3,1,0,13,6,-17
1522257355882523,28,10,5,2,-3,0,0,38
1522257355882523,-71,-17,-1,6,3,6,4,-15
1522257355889541,-23,-9,-3,-2,2,-1,-26,-28
1522257355889541,-45,-11,-2,-2,-2,1,3,1
1522257355898566,34,3,-8,-6,-3,-5,2,35
1522257355898566,14,-7,-2,-3,2,8,-4,-21
1522257355913605,-16,11,9,5,-5,-2,6,10
1522257355913605,30,0,-2,0,-2,-9,35,80
1522257355914608,-43,-5,6,5,7,8,-34,-83
1522257355914608,-14,-4,-12,-7,-2,9,-23,-3
1522257355935664,-46,-30,-14,-8,-4,-5,-3,5
1522257355935664,47,48,17,1,0,-9,0,12
1522257355937670,-28,-3,3,0,-2,0,17,19
1522257355937670,-1,-5,-4,8,1,2,1,-21
1522257355949701,96,14,3,4,1,-6,6,32
1522257355949701,-104,-18,-7,-1,-2,2,9,-18
1522257355958726,73,-8,1,2,4,-2,2,8
1522257355958726,-12,13,5,-3,0,1,-9,-19
1522257355973765,3,3,-9,-5,-8,-5,-2,9
1522257355973765,14,-7,-2,-1,4,4,-3,-13
1522257355974768,-5,1,-4,-4,-3,-19,3,5
1522257355974768,-1,-7,-2,-4,4,40,3,19
1522257355995824,28,6,4,0,1,-6,8,23
1522257355995824,-19,11,5,1,-7,3,3,-38
1522257355997830,15,0,-2,1,8,-21,-14,4
1522257355997830,14,-3,-5,-4,3,30,-3,-38
1522257356009861,-58,3,1,1,-1,-16,-5,6
1522257356009861,25,-16,-3,-9,-7,-6,-6,2
1522257356018886,-22,1,-3,-1,-4,8,17,28
1522257356018886,16,7,1,2,-4,-22,1,-21
1522257356032923,33,4,4,2,3,10,5,24
1522257356032923,29,-37,-8,4,3,2,6,19
1522257356034928,9,83,17,3,-1,5,-3,12
1522257356034928,-34,-42,-8,-6,-3,-13,-9,-1
1522257356055984,-39,-13,2,4,1,-3,-21,-71
1522257356055984,15,-8,-9,-5,2,-7,-4,9
1522257356056987,-9,-16,-4,-6,-5,8,4,5
1522257356056987,3,16,6,3,0,-8,7,17
1522257356070021,12,8,-4,-3,-2,3,15,21
1522257356070021,-3,-7,-1,2,2,0,-6,-20
1522257356079045,-16,-22,-7,0,-4,4,12,9
1522257356079045,32,21,6,2,2,-8,5,30
1522257356093082,-8,-8,-2,-2,-4,-22,-18,-51
1522257356093082,-114,0,-7,0,9,14,-18,-20
1522257356095088,39,-6,-10,-8,4,19,4,-15
1522257356095088,-24,-24,-5,-7,-7,-25,-10,-38
1522257356116144,36,10,6,3,-1,16,2,36
1522257356116144,-4,0,1,-3,-6,-14,-7,-26
1522257356117147,-22,-15,-16,-5,-6,-7,0,21
1522257356117147,-13,18,32,8,3,6,5,2
1522257356129179,16,12,1,-3,-5,-4,3,-6
1522257356129179,38,-6,1,0,-4,-5,1,23
1522257356138202,37,10,7,6,2,7,3,19
1522257356138202,-68,0,-10,-3,-4,0,4,0
1522257356153242,-99,-16,-4,1,6,-4,-14,-43
1522257356153242,94,23,1,0,-5,-2,4,9
1522257356155248,-12,-26,-11,-5,-9,-9,-8,-2
1522257356155248,50,24,-2,-3,1,9,2,14
1522257356176304,18,-16,10,7,6,9,2,14
1522257356176304,-35,-4,-3,1,7,8,0,-1
1522257356177306,-7,-8,-1,-1,-4,-10,-3,-40
1522257356177306,27,9,-2,0,1,0,16,33
1522257356189338,42,9,-6,-5,-9,-2,1,4
1522257356189338,-42,-13,0,2,5,1,-21,-38
1522257356198362,8,-5,0,1,0,-1,-1,-7
1522257356198362,-19,-5,-7,-1,-1,-6,0,16
1522257356213402,17,-6,-11,-7,-5,-5,6,8
1522257356213402,62,22,7,-1,-11,-6,2,17
1522257356215408,1,-9,-10,-4,-4,0,-4,-4
1522257356215408,-39,-10,16,9,8,6,16,29
1522257356235461,93,37,5,-3,-5,-21,-14,-16
1522257356235461,-46,-41,-7,-7,-1,2,-4,-18
1522257356237466,-41,-2,10,4,3,9,1,5
1522257356237466,36,-8,-15,-3,-2,-7,-6,-27
1522257356249498,-3,3,6,3,4,5,-4,27
1522257356249498,-19,6,3,-3,0,-2,2,-1
1522257356258522,14,-1,-4,-1,-2,-4,-2,10
1522257356258522,25,0,-1,0,-2,1,0,3
1522257356273562,-37,-2,0,-4,0,4,-4,-41
1522257356273562,-14,0,0,0,-1,-27,-1,2
1522257356274565,37,12,7,1,10,27,1,-1
1522257356274565,-91,-11,-9,-4,-11,-8,-15,-31
1522257356295622,23,7,-2,-4,-9,5,15,5
1522257356295622,-22,-11,-4,-2,-1,-4,-11,-28
1522257356297626,21,7,11,5,-4,-12,0,17
1522257356297626,5,-12,-9,3,1,-2,-10,-18
1522257356309658,-3,11,1,4,8,2,11,29
1522257356309658,39,-5,-3,-3,-4,-2,-3,16
1522257356318682,-51,16,4,-5,-1,6,2,-25
1522257356318682,28,-6,1,-4,0,3,0,23
1522257356333722,12,3,-9,1,3,-6,-2,13
1522257356333722,21,-3,-5,2,-2,-6,-22,-36
1522257356334725,-66,1,15,3,-1,-6,-5,10
1522257356334725,43,9,-5,-1,-3,-3,1,-22
1522257356355780,-12,-5,5,2,0,0,9,1
1522257356355780,6,6,1,2,8,11,16,32
1522257356357786,19,-7,-9,-6,-2,-7,-2,4
1522257356357786,5,7,7,3,4,12,26,32
1522257356369818,-18,-22,-9,-12,-12,-24,-21,-67
1522257356369818,-28,1,-6,-3,15,17,-3,21
1522257356378843,7,-13,-4,3,-9,1,-3,-23
1522257356378843,-11,-8,-8,-9,-17,3,-12,-1
1522257356392879,-51,-14,-3,-1,-1,13,6,13
1522257356392879,56,27,5,0,-6,-9,8,3
1522257356399898,-14,-4,3,9,6,-13,4,2
1522257356399898,50,4,7,2,9,-4,-1,2
1522257356415940,-31,3,4,-4,-2,-16,-5,-17
1522257356415940,-4,-2,-3,-1,-3,5,4,-1
1522257356417946,-20,-14,-8,-6,0,1,4,-19
1522257356417946,37,2,0,-4,-7,-8,1,14
1522257356429978,-70,-12,2,1,4,9,2,26
1522257356429978,60,9,0,-1,1,-2,7,24
1522257356439002,-11,3,1,1,-3,27,3,-14
1522257356439002,-21,-8,-8,-4,-8,-20,-9,-21
1522257356452036,64,3,3,0,3,5,7,25
1522257356452036,-120,-20,-5,-3,-5,-5,2,-41
1522257356461060,110,25,0,-4,-1,3,-1,41
1522257356461060,-87,-11,1,-6,4,2,-21,-52
1522257356476100,37,6,3,8,6,10,11,22
1522257356476100,-5,-3,1,6,12,-14,-8,0
1522257356477103,7,-15,-11,-4,-9,-3,5,23
1522257356477103,-18,2,-3,-1,-15,8,-5,-12
1522257356489135,24,3,-3,-3,-5,5,5,-48
1522257356489135,10,-5,3,1,0,-11,-10,20
1522257356498159,-54,-6,-4,-2,18,-21,-3,5
1522257356498159,98,12,3,5,4,21,3,20
1522257356512196,-114,-18,-7,-8,-8,3,3,2
1522257356512196,63,11,-4,-5,-19,1,-1,3
1522257356521221,29,-14,-8,-5,-2,-13,-7,-15
1522257356521221,-8,13,13,8,8,2,5,8
1522257356536260,-5,-14,-1,5,7,0,-8,-20
1522257356536260,24,-1,3,-1,2,3,4,5
1522257356537263,-65,6,1,-4,-6,-5,-4,-10
1522257356537263,14,-14,-12,-10,4,2,7,4
1522257356549295,84,24,-6,0,4,9,6,24
1522257356549295,-59,-6,4,2,1,4,-7,-13
1522257356558319,12,-1,3,-2,-6,-1,2,-5
1522257356558319,-52,-23,5,2,-1,-12,-1,-28
1522257356572356,40,13,2,3,0,-4,-16,36
1522257356572356,14,-8,-5,-2,-7,9,8,17
1522257356581380,40,14,-1,2,-3,-11,-4,-27
1522257356581380,-33,-1,-3,0,8,3,-4,0
1522257356595417,47,-5,-2,-5,-5,-4,6,13
1522257356595417,-38,14,-1,0,3,8,-4,-9
1522257356597423,0,-11,-3,-4,-5,-2,-5,-15
1522257356597423,-2,-15,-2,1,-3,-21,3,10
1522257356618479,5,1,-3,-1,0,10,2,-6
1522257356618479,-12,-10,-8,-4,-2,2,-1,-8
1522257356620484,-19,-10,-1,3,9,4,-8,-12
1522257356620484,63,17,8,1,-6,1,-5,-9
1522257356632516,-37,6,8,-2,-2,-4,0,5
1522257356632516,-17,2,0,-3,-2,-3,4,13
1522257356639534,-23,-13,-7,-3,1,-5,3,-16
1522257356639534,30,9,1,3,4,1,-1,4
1522257356655577,-29,-15,-2,2,-7,-9,-20,5
1522257356655577,19,19,8,2,-1,4,12,-10
1522257356657583,-33,-5,3,-2,-1,-3,-9,-13
1522257356657583,18,-4,-9,-5,-8,0,0,37
1522257356678639,26,10,11,-1,0,-2,2,-9
1522257356678639,-10,-9,-2,-1,7,5,-1,13
1522257356679642,2,19,9,7,3,-10,12,14
1522257356679642,24,5,-14,-11,-12,-11,6,1
1522257356692676,-47,6,9,1,1,14,-1,8
1522257356692676,-18,-24,-7,1,-3,-17,-14,-25
1522257356699695,16,7,5,1,2,3,6,6
1522257356699695,6,2,-5,-3,-1,3,5,41
1522257356715737,-78,-24,-12,-3,0,-13,-8,-45
1522257356715737,114,22,11,6,2,13,12,23
1522257356717743,-50,15,4,-1,-9,-11,-7,-26
1522257356717743,-4,-11,-3,-3,9,14,-16,-7
1522257356738799,-13,-2,-4,-4,2,4,0,6
1522257356738799,12,-1,-9,1,-3,3,8,16
1522257356739801,-2,12,0,-4,-4,-2,-7,-23
1522257356739801,-35,-27,13,9,3,-8,-4,-8
1522257356751833,-3,23,-3,-2,-5,-4,-8,-27
1522257356751833,-56,-4,-4,0,-3,-4,-4,-8
1522257356760857,107,-12,-2,-4,-5,4,12,40
1522257356760857,-113,2,1,2,-2,-11,-5,-42
1522257356775897,17,-24,2,2,8,19,4,37
1522257356775897,-3,3,-6,-8,-8,-9,-4,-31
1522257356777902,-5,-5,-2,4,2,7,-11,19
1522257356777902,-46,4,3,2,0,-2,-10,-75
1522257356797955,101,-8,-2,0,8,-13,5,31
1522257356797955,1,6,-2,-7,-18,-4,4,-10
1522257356799961,9,-11,-5,-2,-1,15,13,28
1522257356799961,63,19,-7,-1,-1,-12,-11,-16
1522257356811993,-71,-8,-1,-1,1,-7,2,0
1522257356811993,7,1,0,1,8,5,-13,-12
1522257356821017,-20,-6,2,0,1,-2,3,5
1522257356821017,19,6,-1,1,-8,-6,9,42
1522257356836057,-4,-26,-1,7,0,10,4,-37
1522257356836057,-47,11,3,0,-3,-20,-10,14
1522257356838063,9,-26,-23,-17,-1,15,1,-3
1522257356838063,-19,9,-3,-5,5,3,-6,3
1522257356858116,70,24,4,0,0,0,19,29
1522257356858116,-53,4,13,10,5,3,11,31
1522257356860122,5,-5,6,14,2,-8,14,-13
1522257356860122,55,2,-4,-5,-1,-11,-57,-62
1522257356872152,-81,-20,-7,-7,-8,2,-5,-25
1522257356872152,116,11,-15,-9,-5,2,-1,0
1522257356881177,-31,-8,8,2,-2,3,12,21
1522257356881177,5,-1,-4,-4,0,5,22,23
1522257356896217,37,5,9,4,-2,-8,-1,2
1522257356896217,-7,3,4,4,6,8,7,16
1522257356897220,-78,-16,-9,-3,-5,-8,-14,-16
1522257356897220,36,6,6,-1,2,3,10,25
1522257356918275,-10,7,-5,-1,-4,-5,-18,-30
1522257356918275,47,-1,-2,-2,1,8,19,23
1522257356920281,-38,18,2,5,-4,-11,-12,-8
1522257356920281,18,-2,0,-1,6,18,5,14
1522257356932313,-24,6,-1,-6,-3,-3,3,12
1522257356932313,31,-5,1,-4,4,5,6,6
1522257356941337,39,2,1,-1,-7,-12,-27,-33
1522257356941337,-31,0,-4,5,0,-5,14,2
1522257356956377,4,4,0,8,14,-7,-8,23
1522257356956377,-42,2,-4,-5,-10,20,-11,-45
1522257356957380,2,-20,-10,-7,-2,3,7,0
1522257356957380,41,36,21,-1,-3,-11,-5,-9
1522257356978436,-13,-30,-6,-7,-9,-8,-6,-11
1522257356978436,-4,-19,-3,0,-5,-33,6,-18
1522257356980441,-62,1,3,4,16,21,1,18
1522257356980441,11,-5,1,2,-3,14,18,37
1522257356992472,16,35,-7,-1,-3,-6,-6,-11
1522257356992472,11,-14,-10,-6,0,-4,-6,-4
1522257357001497,18,5,8,5,-3,-1,-5,-16
1522257357001497,-45,-26,-3,3,4,-3,3,9
1522257357015534,6,4,4,2,-1,0,5,2
1522257357015534,3,1,2,3,-2,5,1,19
1522257357017539,71,21,2,-4,0,6,14,39
1522257357017539,-82,-10,-7,-10,-5,-1,-15,-12
1522257357038595,13,-5,-9,-5,-9,-5,0,-14
1522257357038595,-32,-4,8,3,-4,-10,0,32
1522257357039598,24,14,4,8,14,-1,-34,-30
1522257357039598,-31,-17,2,6,0,-25,9,10
1522257357051630,84,36,-3,-2,3,20,-1,5
1522257357051630,-40,-3,-6,-7,-2,-5,2,10
1522257357060654,10,-1,4,-3,-6,-5,12,11
1522257357060654,-83,-7,-2,-5,-6,3,7,0
1522257357076696,7,-6,5,3,1,-5,10,9
1522257357076696,73,-6,-1,3,0,20,-9,-9
1522257357077699,-91,-21,-15,-13,-10,-8,-1,-4
1522257357077699,-8,3,-7,0,3,5,-4,-21
1522257357098756,49,-16,-2,-7,-13,-15,-3,17
1522257357098756,-39,-11,0,0,5,2,-3,-17
1522257357099759,35,1,-1,2,1,1,2,-11
1522257357099759,13,-4,-2,1,-2,-7,9,6
1522257357111790,-77,-17,-9,-3,3,-7,-17,-15
1522257357111790,-21,-6,2,2,1,18,-5,10
1522257357120814,27,-3,-1,-5,-2,3,9,34
1522257357120814,67,-2,-3,-2,-8,-5,-17,-45
1522257357135854,-53,-9,-7,1,-4,-1,11,13
1522257357135854,32,15,8,5,4,3,8,-5
1522257357137859,-71,8,-2,-2,-1,-7,1,-27
1522257357137859,-20,-15,-1,2,0,-3,-20,-51
1522257357158915,36,14,-21,-11,2,22,-4,3
1522257357158915,0,-8,3,-5,-3,-12,-2,7
1522257357159918,-18,29,12,4,-3,4,14,19
1522257357159918,32,-1,3,-3,0,4,14,31
1522257357171949,18,0,9,10,3,-2,-7,-13
1522257357171949,2,6,7,14,7,-13,29,6
1522257357180974,49,1,-13,-9,2,29,-22,-8
1522257357180974,-28,-20,-9,-6,-6,-37,-31,-16
1522257357196014,-8,1,0,-1,1,-2,-2,1
1522257357196014,17,-5,-6,-8,-2,-5,-8,-26
1522257357198019,21,3,10,4,-14,-27,12,8
1522257357198019,55,35,13,11,15,-1,41,127
1522257357218072,-54,-39,-18,-9,-14,69,-1,-56
1522257357218072,-41,6,2,-2,5,15,-42,-51
1522257357220078,8,-6,-4,-2,6,4,11,39
1522257357220078,-4,15,3,-5,-5,19,1,-6
1522257357232109,127,23,27,9,-2,-38,31,54
1522257357232109,-113,-1,-15,-4,-3,-1,-3,6
1522257357241134,12,-21,-12,-4,-4,0,-19,-33
1522257357241134,66,13,-6,-3,-3,5,8,-5
1522257357256173,14,11,10,3,6,-3,12,-7
1522257357256173,-40,9,-3,-2,-6,-8,-8,41
1522257357257176,-18,-4,6,6,2,-13,-6,4
1522257357257176,77,4,5,5,2,11,24,25
1522257357278233,-108,-26,-10,-6,-1,-17,-36,-29
1522257357278233,20,-14,-4,-8,-4,-3,-23,-48
1522257357280238,-29,-15,-11,-3,0,-8,0,-8
1522257357280238,52,9,3,-4,-9,-1,6,21
1522257357292269,-55,-5,-2,-1,3,8,0,-22
1522257357292269,100,10,10,4,2,1,23,28
1522257357301294,-46,-5,2,5,-2,0,1,2
1522257357301294,-128,-36,-11,-3,-1,-5,-39,-83
1522257357316333,103,17,5,6,-1,-11,1,18
1522257357316333,14,-18,-8,-2,-1,-10,0,-15
1522257357317336,-8,23,2,3,5,5,-3,17
1522257357317336,-17,-15,-4,-6,-2,0,-4,2
1522257357338392,-8,12,3,-5,0,-4,2,2
1522257357338392,45,-6,-4,0,0,1,8,28
1522257357340397,-1,19,9,6,2,4,15,33
1522257357340397,-49,-9,-17,-8,-3,-4,-11,-15
1522257357352429,26,45,11,6,7,5,9,46
1522257357352429,-15,10,12,3,1,-5,-10,-52
1522257357361453,-40,-41,-6,2,-9,-18,-1,22
1522257357361453,-22,13,4,6,6,25,5,-34
1522257357375490,105,-17,-8,-6,-7,1,12,54
1522257357375490,-32,11,-5,-2,-4,-8,5,8
1522257357377496,5,-4,-15,-19,-10,7,1,-13
1522257357377496,53,-1,0,-6,-5,-6,2,10
1522257357398552,-36,-23,-7,-6,-3,-2,2,-13
1522257357398552,-46,1,2,3,5,-12,-7,-14
1522257357399554,71,-5,-11,-7,-8,4,-1,8
1522257357399554,-64,0,-4,0,-1,0,-10,-32
1522257357412589,3,0,8,4,5,12,4,8
1522257357412589,-40,-11,1,-3,-2,-4,-2,14
1522257357420610,55,9,6,3,3,0,0,7
1522257357420610,51,4,-3,-2,-2,1,6,-8
1522257357435650,-51,-16,-2,1,3,-6,2,14
1522257357435650,16,-12,-1,4,0,-7,0,-17
1522257357437656,-14,17,4,1,5,14,4,8
1522257357437656,10,23,8,-2,1,3,-6,-17
1522257357458715,-81,-24,-4,-3,-6,-13,-17,-15
1522257357458715,7,-23,-15,-8,-1,10,19,15
1522257357459715,63,3,3,0,1,-7,-3,-5
1522257357459715,-63,3,-1,1,0,4,23,51
1522257357471746,-23,7,-1,-1,2,-8,-14,-48
1522257357471746,3,3,1,0,-6,-21,-5,26
1522257357480770,-16,-11,-3,-5,3,12,-22,-71
1522257357480770,-37,-14,4,5,5,25,9,-3
1522257357494807,10,13,-3,-1,-2,-22,-6,39
1522257357494807,10,13,7,-1,-2,27,1,15
1522257357501826,-21,-17,-13,-4,-6,-31,-24,-61
1522257357501826,1,-6,0,-1,-3,-3,-5,-1
1522257357518871,-18,-2,1,0,-3,6,5,-1
1522257357518871,56,13,4,4,7,2,14,4
1522257357519875,-38,22,9,0,-3,-6,1,31
1522257357519875,3,-6,-13,-14,-5,-5,-21,-20
1522257357540930,-57,4,12,8,5,0,18,30
1522257357540930,62,11,13,10,1,5,-25,-47
1522257357542936,-12,-17,-8,-2,-6,-5,13,11
1522257357542936,31,-7,-27,-14,-10,-12,0,30
1522257357554967,83,-30,11,-1,4,7,-12,-8
1522257357554967,-84,7,-2,-3,-4,-8,-10,-30
1522257357561986,31,19,14,15,8,8,15,13
1522257357561986,21,11,8,6,-1,-11,8,11
1522257357578029,-13,-1,-9,-6,2,14,1,-11
1522257357578029,20,1,-7,-8,-7,-1,6,-5
1522257357580035,25,8,0,-8,-4,17,12,27
1522257357580035,-37,-5,7,8,1,-14,-22,-13
1522257357601090,55,13,1,1,-1,4,1,-13
1522257357601090,-53,-9,-1,-4,-7,-10,4,-22
1522257357602093,-28,-14,-12,-1,15,1,-10,33
1522257357602093,86,7,1,2,6,24,22,28
1522257357615127,-82,2,-1,-6,-15,-5,-2,16
1522257357615127,14,-11,2,1,-5,-21,-39,-48
1522257357622146,-17,-8,5,0,-7,-10,5,-7
1522257357622146,-2,-7,3,5,3,3,-9,-38
1522257357638189,54,6,-1,2,-16,-84,-16,23
1522257357638189,-6,-2,-14,0,37,52,18,50
1522257357640194,-59,-21,-7,-9,-4,18,7,-49
1522257357640194,26,4,4,6,3,-9,-15,0
1522257357661250,-17,11,4,2,12,10,24,-5
1522257357661250,11,-16,-10,-6,-12,-22,-21,-23
1522257357662253,33,17,7,4,11,18,31,62
1522257357662253,-15,-21,-20,-18,-8,9,-13,32
1522257357675287,-41,-16,-15,-10,-21,-26,-43,-107
1522257357675287,6,2,-1,-1,-4,-2,10,27
1522257357682306,12,-13,-1,0,0,-4,-5,-23
1522257357682306,5,16,12,5,-1,2,16,30
1522257357698349,-3,8,5,9,14,27,35,54
1522257357698349,102,-1,-8,-6,-10,-5,-13,-16
1522257357700355,-47,-29,-12,-7,2,6,-36,-53
1522257357700355,2,11,1,1,-2,-13,-2,-8
1522257357721410,21,11,2,-10,1,16,-5,-3
1522257357721410,-13,14,9,2,5,-1,30,28
1522257357722413,30,13,6,3,-14,-17,-5,5
1522257357722413,10,-23,-2,6,2,0,-14,-61
1522257357735447,-72,-7,-5,4,-1,2,-5,-6
1522257357735447,51,19,-1,-4,-1,18,12,39
1522257357742466,-22,-1,-5,-2,-5,-22,-21,-23
1522257357742466,-40,-11,0,-6,-6,2,0,-16
1522257357758508,81,9,1,7,6,11,20,28
1522257357758508,-63,-20,0,7,2,-3,-14,-33
1522257357760514,-9,17,-3,-5,-7,-31,-10,13
1522257357760514,23,-4,0,1,9,13,-1,-20
1522257357780567,18,9,-9,-11,-6,1,-5,1
1522257357780567,-4,11,0,-1,0,3,18,50
1522257357782573,75,-12,6,6,5,12,17,-13
1522257357782573,-75,-4,-7,-8,-14,4,-21,-8
1522257357794604,-37,-10,-4,-2,0,4,-14,-27
1522257357794604,5,-1,-2,-4,-3,-5,9,19
1522257357803628,13,0,4,11,5,-3,-2,10
1522257357803628,43,23,2,-4,0,-14,-4,6
1522257357818669,0,-6,1,-2,-3,4,-12,-25
1522257357818669,-40,-5,-1,1,3,-5,6,15
1522257357819671,-13,-5,-2,-2,-1,-1,-2,-32
1522257357819671,-16,-19,-3,0,2,-1,-6,-18
1522257357840727,-5,-2,-1,0,-2,4,1,25
1522257357840727,32,2,4,2,-6,-6,3,8
1522257357842732,10,13,-2,2,4,20,8,16
1522257357842732,15,0,2,0,-1,-14,-4,-10
1522257357854764,-26,-9,-5,-2,3,-1,-8,-21
1522257357854764,-7,-13,-2,-3,-4,16,0,-17
1522257357863788,-13,5,2,-2,-6,-26,-20,-17
1522257357863788,-22,-1,4,4,1,-1,12,34
1522257357878828,86,14,-4,-2,-4,-3,8,32
1522257357878828,-34,-16,-7,-4,-6,1,-10,-23
1522257357879831,18,10,2,-2,-3,8,6,16
1522257357879831,3,4,-6,-3,-1,-11,3,7
1522257357900887,27,-8,9,0,5,6,-9,-24
1522257357900887,-22,17,4,-1,1,-1,2,18
1522257357902892,18,0,-4,-4,-2,-3,4,-2
1522257357902892,-4,-12,-1,8,5,0,9,4
1522257357914924,-17,-9,-1,7,1,7,10,2
1522257357914924,4,9,3,1,1,-16,-8,7
1522257357923948,23,20,-4,-8,-11,-9,9,30
1522257357923948,-45,-25,-3,-1,0,20,-11,-84
1522257357937985,15,-8,-9,-10,3,19,-13,-4
1522257357937985,-10,-13,-4,-4,-1,0,-4,-2
1522257357939991,7,7,-9,-1,1,-8,-4,-1
1522257357939991,33,23,20,5,2,-6,19,45
1522257357961047,68,24,9,3,-1,-1,5,-7
1522257357961047,-82,-4,-3,-1,-2,-5,2,-14
1522257357963052,-36,-34,-12,-7,-2,4,-7,-15
1522257357963052,11,-1,0,-1,1,-7,1,4
1522257357974081,-6,-8,-5,0,-1,-6,0,-6
1522257357974081,26,6,-2,-1,0,1,0,10
1522257357983105,9,1,6,2,-1,1,-1,0
1522257357983105,-7,-1,-8,-2,-1,0,0,13
1522257357998145,-73,-10,0,1,2,-4,0,3
1522257357998145,73,8,-1,-7,-2,-3,-3,-2
1522257358000151,24,21,5,1,3,13,11,21
1522257358000151,0,3,-2,0,-7,-17,-5,8
1522257358021207,-58,0,5,0,3,13,-7,-21
1522257358021207,-18,-19,-12,-2,-3,1,-8,-10
1522257358022210,76,27,28,17,4,7,40,86
1522257358022210,-78,6,-6,-7,-5,-9,-40,-72
1522257358034241,-14,-31,-14,-7,-10,-15,-22,-40
1522257358034241,5,-4,0,2,-1,-1,-9,-4
1522257358043265,1,-5,-2,0,4,2,-3,-1
1522257358043265,31,8,3,-1,-1,2,30,47
1522257358058305,10,7,0,-3,-2,-7,1,-4
1522257358058305,-6,3,3,-1,-1,0,4,3
1522257358060315,-43,-26,-15,-7,-9,-10,-27,-33
1522257358060315,43,10,1,2,3,5,12,26
1522257358081366,-13,-10,-4,-3,0,0,-2,-2
1522257358081366,-1,-3,4,3,3,0,6,9
1522257358082369,-5,6,4,2,0,2,-1,-27
1522257358082369,18,-3,-2,-2,-2,2,-4,17
1522257358094401,11,35,8,7,-7,-47,21,56
1522257358094401,-7,-19,-2,-3,11,54,3,-10
1522257358103425,-95,-35,-11,-10,-1,2,-27,-54
1522257358103425,-2,-4,1,1,2,1,-4,-1
1522257358118465,35,1,-4,-1,-2,4,5,21
1522257358118465,47,26,6,4,-3,-19,19,42
1522257358120471,7,-13,7,9,3,-6,-8,-12
1522257358120471,-12,-7,-5,-1,1,11,7,6
1522257358140523,7,-17,-10,-3,-4,-8,-8,-24
1522257358140523,-11,5,3,-2,-4,-7,-3,-30
1522257358142529,52,5,-4,-8,-1,3,7,78
1522257358142529,-63,-1,2,4,2,-7,1,-49
1522257358154561,50,4,-5,-2,1,14,0,26
1522257358154561,-36,-10,-4,0,-4,-4,-8,-15
1522257358163585,-16,3,-1,-4,-9,6,-9,-31
1522257358163585,97,1,4,1,-6,-8,4,32
1522257358178626,-69,-3,-4,-3,-2,5,3,-11
1522257358178626,-61,-5,-4,-3,-2,-5,0,13
1522257358179628,11,17,6,6,10,5,10,-3
1522257358179628,-3,-26,-10,-8,-3,-7,-22,3
1522257358200684,52,-1,-1,-4,1,15,5,7
1522257358200684,-6,2,-1,-3,-5,-15,-6,-3
1522257358202689,-13,10,0,2,0,-7,4,-17
1522257358202689,-26,-3,5,8,8,16,6,13
1522257358214721,-43,-6,-2,6,-2,-5,-2,-7
1522257358214721,73,-9,-7,-3,-3,-4,6,16
1522257358223745,3,8,0,-3,-6,-7,-11,-38
1522257358223745,18,33,20,5,2,7,10,29
1522257358238785,4,-8,0,-8,-8,-5,-5,14
1522257358238785,-16,-1,-5,-4,2,-4,-20,-61
1522257358239787,-2,-20,-9,-2,2,3,-1,20
1522257358239787,-9,-4,-10,-9,-13,-22,-2,-4
1522257358260843,-15,4,9,2,6,20,8,-4
1522257358260843,16,-10,-1,1,-1,0,5,-10
1522257358262849,19,5,1,-6,0,-5,-1,4
1522257358262849,-40,16,2,2,-2,-15,9,14
1522257358274880,-15,6,2,6,8,12,0,-14
1522257358274880,4,-5,0,4,2,-21,-2,15
1522257358283905,31,13,6,3,2,26,11,15
1522257358283905,62,9,6,5,2,17,13,15
1522257358297942,-61,-26,-18,-9,-12,-6,-25,-41
1522257358297942,-47,-15,-6,-5,-7,-8,-29,-36
1522257358299948,13,5,2,-1,-1,-15,-1,3
1522257358299948,-24,-36,-7,-7,4,-3,0,-14
1522257358321003,50,32,5,2,4,1,11,30
1522257358321003,13,11,5,3,4,11,12,22
1522257358323009,-20,-4,-7,-4,-9,-12,-9,-22
1522257358323009,-23,7,-2,0,1,5,-5,-21
1522257358335041,10,-23,-7,-1,-1,-6,3,5
1522257358335041,29,5,-7,-7,-6,-5,0,16
1522257358344065,26,-5,-8,-7,-5,-5,-7,-17
1522257358344065,-14,-9,0,4,3,4,1,23
1522257358358102,3,23,8,1,2,-5,-4,-48
1522257358358102,-39,-33,-12,-2,1,8,11,7
1522257358360107,77,67,34,9,-2,-3,2,21
1522257358360107,14,-4,8,-1,-1,-4,-10,-7
1522257358381163,-9,-3,1,3,-6,-20,-5,-13
1522257358381163,55,-4,0,4,6,21,5,29
1522257358382166,-73,-22,-16,-9,-2,1,9,-13
1522257358382166,-61,17,-6,-6,-7,-11,-28,-19
1522257358394198,-6,-13,0,1,1,1,-8,-2
1522257358394198,-31,8,0,-4,-3,-6,-2,-21
1522257358403222,16,-13,-5,1,-3,-22,3,6
1522257358403222,9,-3,-4,-2,5,21,15,4
1522257358417259,77,12,-2,-6,1,12,2,5
1522257358417259,-16,11,7,-1,-4,5,4,16
1522257358426283,0,-4,2,6,1,-1,6,10
1522257358426283,19,-7,-8,-3,-2,-9,7,-5
1522257358441323,-47,-11,-5,-4,-3,-11,-14,9
1522257358441323,17,12,9,5,2,-5,-2,-14
1522257358442326,5,-9,3,3,4,12,3,1
1522257358442326,-13,10,0,0,-6,-13,4,28
1522257358454358,43,-13,-16,-8,-1,11,-7,19
1522257358454358,-24,16,8,-5,-4,-5,-8,-17
1522257358463382,-37,-26,-6,-2,0,-2,-6,1
1522257358463382,12,1,10,6,1,3,-3,-5
1522257358477419,14,3,7,3,-2,-3,7,3
1522257358477419,-1,-11,-2,4,5,6,5,28
1522257358484437,-8,34,-15,-13,-4,-3,-7,-29
1522257358484437,-14,-36,-8,-11,-6,-8,-6,-17
1522257358500480,12,18,6,7,3,-1,8,19
1522257358500480,-1,-5,-1,0,2,-3,-2,-57
1522257358502486,-13,-13,2,2,-2,4,-5,28
1522257358502486,21,6,-3,1,-2,2,0,3
1522257358523541,-13,-6,-2,-5,-3,-3,10,18
1522257358523541,7,7,5,-1,1,0,-14,-8
1522257358525547,-21,-7,-3,-4,-3,-3,2,-5
1522257358525547,20,0,-5,-2,-3,-4,-14,-67
1522257358537579,1,-1,7,6,4,2,6,36
1522257358537579,-13,2,-6,0,1,5,9,12
1522257358544601,-24,-13,-10,-2,-3,10,-7,-15
1522257358544601,2,-15,1,2,-1,9,0,3
1522257358560640,69,39,4,2,-5,-7,-2,-17
1522257358560640,-45,-10,-18,-12,-10,-14,-9,-14
1522257358562646,-13,-21,3,0,0,-7,0,6
1522257358562646,23,1,-1,3,3,1,8,14
1522257358583701,-54,-1,5,6,9,6,3,0
1522257358583701,77,14,5,-2,-4,-4,-3,20
1522257358584704,25,-7,-5,-6,2,6,13,14
1522257358584704,-53,-13,-6,0,1,-1,-2,3
1522257358597739,37,5,7,-1,1,-3,-4,-21
1522257358597739,-55,9,7,1,-3,1,-11,-4
1522257358604757,-4,1,-2,1,1,3,2,7
1522257358604757,8,-7,-4,-6,-2,-1,-3,1
1522257358620800,-11,-7,-6,-4,-8,-12,5,12
1522257358620800,33,-5,0,4,6,11,7,0
1522257358622805,-41,-3,11,8,2,-1,1,-11
1522257358622805,36,23,1,2,5,-2,6,28
1522257358643861,30,-13,-8,-5,-4,-4,-18,-25
1522257358643861,-3,8,-7,-4,-6,-9,-9,-27
1522257358644864,-8,-3,2,-3,-3,-5,-6,-15
1522257358644864,24,10,-4,-3,-2,2,4,11
1522257358657898,-43,-3,2,1,0,2,-2,-5
1522257358657898,18,-11,-1,3,-1,1,3,4
1522257358664917,-20,-6,-7,-4,-5,1,-7,-2
1522257358664917,-58,-9,-3,0,2,0,6,-20
1522257358680960,37,-9,-7,-3,-3,-13,-5,-8
1522257358680960,-11,0,-4,-1,-3,-5,3,17
1522257358682966,26,8,-2,-2,3,16,4,-2
1522257358682966,-23,1,-1,-3,-8,-13,-5,11
1522257358703018,47,11,-1,-1,7,22,9,5
1522257358703018,-18,-18,-2,-5,-6,-8,-6,-2
1522257358705024,17,2,-3,1,3,-2,6,18
1522257358705024,3,7,2,-2,-3,0,3,5
1522257358717056,-53,-2,2,3,0,-7,4,-17
1522257358717056,-5,4,4,2,4,6,8,33
1522257358726080,60,0,1,1,2,2,-6,3
1522257358726080,53,9,1,-1,-2,2,-2,-7
1522257358741120,-64,-9,-1,-8,-4,-4,-7,5
1522257358741120,-48,-9,0,2,1,-7,-6,-28
1522257358742123,-45,-16,-8,-4,-5,-10,-1,-3
1522257358742123,38,1,2,1,2,-1,-5,-10
1522257358763178,8,-4,-4,-5,-11,-15,-6,-8
1522257358763178,56,-16,-5,-3,2,12,2,10
1522257358765184,22,20,5,2,1,-3,-8,-19
1522257358765184,-85,-6,-6,-5,-2,-3,-7,1
1522257358777215,-18,9,1,-1,5,15,19,11
1522257358777215,57,6,-1,0,-3,-5,17,37
1522257358786240,-31,-7,-1,1,0,-17,-33,-88
1522257358786240,31,5,1,0,-5,7,3,18
1522257358801280,-38,-8,-1,2,-3,-2,-5,-16
1522257358801280,17,-6,-2,0,2,-2,1,19
1522257358802282,36,28,1,-3,0,2,19,32
1522257358802282,-30,-22,-14,-8,-2,-6,-16,-19
1522257358823338,-27,-10,-5,1,-4,-9,-21,-46
1522257358823338,-14,11,5,7,1,5,0,-2
1522257358825344,35,-17,2,1,-2,5,-1,-12
1522257358825344,-23,-5,0,2,-6,-6,-1,-14
1522257358837376,-42,3,-5,-6,0,10,9,26
1522257358837376,22,-7,-9,-8,-5,-7,-12,-10
1522257358846400,-41,0,2,0,0,-3,3,0
1522257358846400,55,1,2,0,4,7,2,10
1522257358860437,57,2,6,1,1,-3,1,5
1522257358860437,10,20,1,-1,-3,-5,-4,-7
1522257358862443,-88,-13,-2,3,4,4,7,5
1522257358862443,46,-1,-7,-7,-10,-9,5,33
1522257358883498,7,-1,-4,-2,2,3,0,-8
1522257358883498,-5,2,5,0,0,-4,-14,-17
1522257358885503,33,6,-4,-5,-4,2,-2,8
1522257358885503,3,4,-1,1,4,-1,-2,-17
1522257358897535,-7,-11,-1,3,1,0,3,16
1522257358897535,5,-5,-5,1,0,4,4,-2
1522257358906560,-34,-15,-7,1,-2,-3,4,5
1522257358906560,1,0,2,4,4,3,-13,-12
1522257358920597,4,13,-3,-6,-5,-5,2,29
1522257358920597,41,26,5,-1,4,8,0,-5
1522257358922602,-59,-16,-1,-2,-6,-1,-5,-2
1522257358922602,3,-14,-1,3,3,5,6,8
1522257358943658,19,-13,-3,2,0,-1,-1,0
1522257358943658,58,7,1,0,-4,-3,6,1
1522257358944661,-83,2,3,-1,0,-1,-6,23
1522257358944661,38,4,-1,-3,-8,-15,1,-4
1522257358956692,-35,-20,4,6,13,17,1,-34
1522257358956692,-47,-3,-7,-1,4,8,17,1
1522257358965717,90,15,-2,0,3,-1,-4,14
1522257358965717,-55,7,5,0,3,-1,-10,-21
1522257358980757,13,3,-2,-1,-7,-7,4,16
1522257358980757,-32,-10,-5,-3,-6,-2,-5,-22
1522257358982762,11,2,1,4,-3,-4,6,-9
1522257358982762,63,16,1,-3,2,-1,5,44
1522257359003818,-27,2,-4,-8,-1,7,1,7
1522257359003818,-23,-2,1,0,3,0,1,3
1522257359004821,30,4,0,3,-3,-6,-13,-36
1522257359004821,-59,-20,-1,3,1,-1,-4,-4
1522257359016852,9,1,3,0,-1,-7,-3,8
1522257359016852,-6,-3,0,-3,-2,-2,6,7
1522257359025877,3,-6,0,-3,-3,1,11,-23
1522257359025877,51,8,6,2,0,2,3,30
1522257359040916,-28,-17,-22,-9,-7,-7,-5,9
1522257359040916,-95,14,5,-3,-12,-28,-17,-47
1522257359042922,-16,3,4,-3,2,5,-13,-23
1522257359042922,-30,-11,-4,3,3,8,1,-39
1522257359070996,19,-2,-1,4,2,0,11,43
1522257359070996,21,-6,-3,1,1,-1,-17,-32
1522257359073002,-8,-4,-5,-6,-4,-6,0,21
1522257359073002,13,-5,-2,-1,-1,5,3,16
1522257359077012,24,17,2,0,0,0,-6,-28
1522257359077012,-16,-11,2,0,-4,-15,-2,9
1522257359086036,53,5,3,-4,3,12,5,20
1522257359086036,5,-2,0,4,7,0,4,-19
1522257359101077,24,2,-2,-5,-5,-5,-5,-8
1522257359101077,-5,-2,-2,-1,0,29,19,27
1522257359102079,-74,-21,-6,3,2,0,-5,-26
1522257359102079,84,40,-3,-8,-12,-12,-3,18
1522257359123135,-36,-15,6,0,-3,-10,-8,-13
1522257359123135,-1,-7,-1,2,6,3,-5,2
1522257359125140,44,3,5,2,-2,-16,5,33
1522257359125140,-49,-2,-2,1,6,23,14,-3
1522257359137172,39,20,7,4,-2,2,6,0
1522257359137172,-39,-10,-5,-5,-3,4,-2,2
1522257359146197,64,8,-8,-6,-5,-1,3,12
1522257359146197,-51,-14,-2,0,-4,-12,-16,-29
1522257359161236,14,2,0,-2,3,-6,-4,-19
1522257359161236,15,-5,1,3,4,0,11,12
1522257359162239,-8,-3,-7,-3,-3,-3,-16,-7
1522257359162239,-31,8,7,1,-2,4,8,21
1522257359183295,34,22,10,3,2,0,0,0
1522257359183295,17,2,3,5,4,1,0,13
1522257359185300,35,6,4,3,3,3,9,14
1522257359185300,13,-7,-7,-5,-4,0,-4,3
1522257359197332,-95,-23,-9,-5,-4,-5,-11,-30
1522257359197332,54,19,3,1,-1,3,6,27
1522257359206356,-32,-11,-2,-1,-5,-2,-10,-31
1522257359206356,91,20,9,5,3,-9,12,58
1522257359221396,-34,13,1,-1,-3,10,-3,-5
1522257359221396,-48,-20,-3,-4,-3,5,-4,-18
1522257359222400,-11,2,0,0,-5,-11,7,24
1522257359222400,-24,-7,-1,-2,10,14,5,-11
1522257359243455,30,-9,-1,1,-2,-4,3,1
1522257359243455,66,10,-12,-8,-7,-12,-20,-37
1522257359245461,-4,-27,-6,-4,2,0,-6,-2
1522257359245461,-46,7,0,-3,-6,-15,-15,-44
1522257359257492,37,-13,-7,-3,-1,-2,10,22
1522257359257492,-30,-14,-1,1,-1,0,4,19
1522257359266517,23,15,-8,-2,2,-1,-9,2
1522257359266517,-49,-11,9,-1,-3,-7,-10,-26
1522257359280553,-15,-8,1,4,4,5,-1,-4
1522257359280553,26,4,6,0,1,-2,5,-1
1522257359282559,22,-7,-6,1,-3,-9,1,-11
1522257359282559,-12,-1,-9,-2,1,11,6,6
1522257359303614,-23,5,7,4,3,8,-4,-29
1522257359303614,-56,-12,-4,0,-3,-5,-6,-2
1522257359304618,28,10,-1,-4,-2,2,0,14
1522257359304618,-23,-4,-6,-2,-6,-5,-1,2
