timestamp,emg1,emg2,emg3,emg4,emg5,emg6,emg7,emg8
1522257126842785,-1,-2,1,2,-2,0,6,-6
1522257126842785,8,-19,-11,-2,-3,-4,-4,-5
1522257126845793,-7,27,-8,0,-2,1,5,4
1522257126845793,3,4,15,4,-5,-12,5,15
1522257126846796,-12,-10,-2,-1,0,17,-3,-13
1522257126846796,1,-1,1,1,36,4,1,-14
1522257126846796,58,4,3,2,-1,7,7,27
1522257126846796,-19,-1,-9,1,6,3,-3,-35
1522257126852815,-8,2,-4,-3,-4,-11,-17,29
1522257126852815,10,9,6,1,-7,-1,12,40
1522257126861836,-4,2,2,-9,-31,-24,-18,-21
1522257126861836,-12,1,3,14,69,30,3,-13
1522257126868854,-14,-9,1,1,3,-10,-2,-25
1522257126868854,51,5,-7,1,-3,19,-1,14
1522257126883894,-24,-2,4,3,8,-2,16,12
1522257126883894,30,-1,-6,-13,-46,-15,-15,14
1522257126888907,-41,-2,-5,-1,5,-1,-2,-30
1522257126888907,-23,-15,-6,-9,1,-14,-10,-21
1522257126913974,22,3,1,-1,0,3,0,11
1522257126913974,-19,-13,-9,-6,-9,2,4,12
1522257126913974,31,10,7,1,5,1,-5,-14
1522257126913974,1,4,2,4,-19,0,15,20
1522257126953087,52,15,3,0,2,2,2,27
1522257126953087,-70,-32,-5,0,-1,-5,-15,-38
1522257126953087,1,3,-7,1,9,3,5,22
1522257126953087,54,13,9,2,2,4,3,20
1522257126954082,-102,0,3,5,-13,-3,-3,-23
1522257126954082,40,2,1,1,-1,-1,3,-2
1522257126957088,-1,-8,-4,-2,-5,-1,10,12
1522257126957088,-31,-4,-11,-2,0,-14,-10,-12
1522257126964107,81,16,1,-2,10,12,20,35
1522257126964107,-48,-4,-4,-5,5,13,-3,-25
1522257126971126,-27,-14,1,0,-42,0,-14,-43
1522257126971126,31,1,-2,2,19,-5,-5,-14
1522257126980150,-35,-10,-4,-5,0,-5,-12,-30
1522257126980150,31,10,3,2,3,-5,5,23
1522257126995190,5,-8,0,0,6,-9,2,5
1522257126995190,-12,-19,-5,-8,-20,4,6,24
1522257127001206,-19,6,-2,3,20,-21,-16,-49
1522257127001206,27,-6,-1,0,0,6,-5,11
1522257127025270,-48,2,2,3,13,13,3,17
1522257127025270,29,5,-2,-3,-5,0,-2,-13
1522257127027275,-41,-17,-2,-4,1,5,-5,-1
1522257127027275,15,7,2,-2,-11,-7,8,14
1522257127039307,103,19,5,5,10,3,24,40
1522257127039307,-118,-6,-1,3,-1,-9,-28,-63
1522257127046325,-24,-17,-15,-13,-10,-1,-24,-31
1522257127046325,-6,14,0,-2,0,-7,-2,3
1522257127063371,20,-13,-5,-2,-1,1,-6,3
1522257127063371,41,15,9,2,-1,-3,23,49
1522257127064374,15,-7,-1,-3,7,-12,4,6
1522257127064374,-28,1,-5,-3,-43,27,-4,-24
1522257127085430,18,-1,-3,-2,10,-15,-8,-14
1522257127085430,5,0,-2,-2,2,8,9,43
1522257127087435,-40,6,5,0,-3,-5,4,-16
1522257127087435,-1,-2,-1,-2,-5,-24,3,6
1522257127099467,16,3,-3,-3,5,15,-7,-18
1522257127099467,-5,-8,-7,1,0,5,-3,-16
1522257127106485,-21,3,2,1,-9,3,7,20
1522257127106485,17,3,3,1,2,-11,9,21
1522257127122528,62,10,2,8,25,8,5,46
1522257127122528,-14,-14,-10,-9,-12,-17,-40,-65
1522257127124534,-24,-3,-1,0,14,12,-3,12
1522257127124534,-4,-2,0,1,7,-4,-11,-32
1522257127145590,45,2,6,1,5,0,11,27
1522257127145590,-57,5,4,5,3,10,36,45
1522257127146592,6,7,0,1,-5,-4,-13,-31
1522257127146592,20,-10,-7,-4,1,-2,-3,22
1522257127159627,-6,8,3,-5,-3,-18,5,17
1522257127159627,30,10,6,3,5,9,2,-14
1522257127166646,38,3,3,-1,-37,13,8,20
1522257127166646,-24,-6,-3,3,32,-9,5,-6
1522257127182688,40,1,-3,-1,-14,-13,-12,-2
1522257127182688,-1,6,0,-6,-24,12,7,23
1522257127184694,-69,-12,0,4,52,12,-1,9
1522257127184694,4,1,-1,-3,-3,10,-3,-17
1522257127205749,-57,-18,-4,2,6,0,9,5
1522257127205749,-19,2,-6,-2,-8,-38,-15,-36
1522257127206752,89,1,-1,-3,-16,-3,-29,-32
1522257127206752,-41,4,6,1,3,13,7,30
1522257127219787,-62,-1,-1,-4,-4,2,0,-5
1522257127219787,23,-9,-4,2,20,9,-6,-19
1522257127226805,34,5,-3,-2,-8,-7,15,32
1522257127226805,-13,3,2,0,2,-4,3,4
1522257127242848,-45,-6,-3,-4,0,11,-19,-64
1522257127242848,46,5,-2,1,5,1,2,25
1522257127244853,24,4,-3,-1,-16,-4,9,5
1522257127244853,-4,1,4,2,27,-1,-9,-16
1522257127265909,-16,-2,0,3,-7,3,20,33
1522257127265909,1,-4,-7,-5,-31,-29,-16,-54
1522257127266913,20,-4,3,5,-4,38,-6,48
1522257127266913,14,-8,-2,-3,-7,0,12,3
1522257127278944,-90,-13,-8,-9,-1,-11,-29,-44
1522257127278944,10,4,1,0,16,3,7,19
1522257127287968,53,10,3,0,-6,-12,15,36
1522257127287968,-13,-2,-4,-2,3,-1,-2,-25
1522257127303008,81,8,-1,3,-30,-29,1,12
1522257127303008,-4,-8,-11,-5,9,50,-4,-11
1522257127305013,-38,4,1,-1,-3,-10,8,16
1522257127305013,60,13,4,0,-6,1,1,9
1522257127325066,-60,-5,-1,-6,-10,-8,-2,-27
1522257127325066,27,6,6,11,14,-10,-23,-11
1522257127327072,3,-13,-5,1,-9,-3,-5,-22
1522257127327072,-17,9,-5,0,12,4,-2,5
1522257127339104,17,-6,8,1,-5,-1,7,9
1522257127339104,43,1,1,-6,-12,-12,16,22
1522257127348128,-26,-12,-10,-7,2,2,-1,11
1522257127348128,14,-3,-6,-8,5,-15,-9,0
1522257127363168,13,-8,-5,1,4,29,-4,-3
1522257127363168,-13,43,10,-4,-4,-7,11,10
1522257127364171,74,-4,2,2,-1,-15,-7,-28
1522257127364171,-16,3,3,-1,-16,-3,2,53
1522257127385226,-32,-9,-2,1,16,-1,-4,-25
1522257127385226,36,-13,-3,3,4,9,8,9
1522257127387232,-76,-4,-4,-6,5,-13,-14,-60
1522257127387232,-2,6,3,0,-18,-1,-1,47
1522257127399264,43,5,0,-1,15,9,3,22
1522257127399264,-61,-11,-5,-5,-31,-2,-3,11
1522257127408288,51,2,0,0,7,1,4,-6
1522257127408288,-34,-13,-3,1,-1,0,-2,-34
1522257127423328,8,5,-2,-4,-48,-17,-5,6
1522257127423328,67,2,-2,7,67,6,25,56
1522257127424331,-102,-5,6,7,15,24,-18,-50
1522257127424331,28,1,1,4,0,-2,5,15
1522257127445386,11,1,9,-4,1,-4,9,26
1522257127445386,-61,6,1,-4,-9,-6,-19,-62
1522257127447392,44,-14,2,-3,-6,-6,9,23
1522257127447392,4,17,0,-2,11,0,-10,-41
1522257127459424,39,-3,0,1,12,8,2,8
1522257127459424,-30,-4,-4,0,-10,-3,-9,20
1522257127468448,24,-1,1,0,9,-5,11,29
1522257127468448,28,3,2,-2,-31,3,1,5
1522257127482485,-32,1,-4,-2,0,-19,-19,-54
1522257127482485,-1,2,6,-4,0,12,2,-9
1522257127484490,-25,16,-4,-3,-7,-17,-4,8
1522257127484490,-15,-26,-2,4,24,20,5,1
1522257127505546,83,19,3,0,-20,-16,15,79
1522257127505546,6,-12,-3,-5,-71,-16,-5,-15
1522257127506549,-92,-14,-7,5,86,11,-42,-74
1522257127506549,60,-5,-3,-2,-8,-9,0,21
1522257127518581,-40,0,-5,1,12,11,-11,-11
1522257127518581,4,-12,7,-1,10,-11,13,33
1522257127527605,41,15,4,-1,-34,-9,28,47
1522257127527605,11,-3,-5,2,-4,6,-5,-8
1522257127542645,0,6,1,1,15,0,2,-50
1522257127542645,-55,1,-4,-2,-4,-6,-4,8
1522257127544650,49,-9,-4,-3,-11,9,3,1
1522257127544650,-44,8,2,-2,13,-3,-8,1
1522257127565706,-22,-8,-6,-5,-12,3,0,-1
1522257127565706,-12,2,8,5,16,7,3,-21
1522257127566709,-6,9,3,0,-16,-2,2,-5
1522257127566709,2,1,2,-1,-6,-6,13,16
1522257127578742,-13,-12,-7,-4,2,3,-2,-12
1522257127578742,12,-4,-5,-2,2,3,-11,-4
1522257127587765,119,38,5,2,-6,2,22,95
1522257127587765,-95,-30,-3,2,-9,-4,-25,-78
1522257127602805,-59,-15,-5,-2,5,2,-11,-76
1522257127602805,38,-12,-3,-4,3,-27,-32,-48
1522257127604810,-4,-4,2,-3,-3,29,6,29
1522257127604810,64,20,3,2,7,1,14,19
1522257127625866,-12,-5,-3,-1,3,9,-4,9
1522257127625866,-21,5,0,-1,11,2,10,21
1522257127626869,-5,6,2,1,-6,-19,7,-17
1522257127626869,8,4,-1,0,-8,10,-2,-15
1522257127638900,101,20,11,12,16,7,52,114
1522257127638900,30,-13,-8,-2,-9,-22,-61,-86
1522257127647925,-120,-15,-3,-3,-1,10,-25,-26
1522257127647925,66,-10,-9,-10,-9,-8,-11,11
1522257127662965,23,-4,0,-4,-10,-2,-9,6
1522257127662965,38,12,4,1,8,9,32,49
1522257127664970,-2,-5,-5,-2,-6,-7,3,-5
1522257127664970,-33,3,-1,-1,4,-5,-8,-18
1522257127685023,-15,-1,2,1,0,-2,-5,-4
1522257127685023,24,-5,-7,-1,-3,13,27,49
1522257127687029,-18,22,17,5,2,-26,-14,-44
1522257127687029,-45,-22,-13,-8,-8,2,-15,-48
1522257127699061,-91,-14,-5,0,5,10,-15,-24
1522257127699061,-68,-21,-9,-3,6,7,-5,-51
1522257127708085,72,-4,-8,-5,-11,1,11,46
1522257127708085,27,15,5,2,-5,-10,8,22
1522257127723124,4,5,0,-1,-2,-5,-7,-9
1522257127723124,-13,3,-1,-3,2,7,3,21
1522257127724128,-4,-4,1,0,-7,-6,-2,-1
1522257127724128,19,0,6,5,0,-1,1,-2
1522257127745183,60,-10,-13,-6,-1,-1,-7,48
1522257127745183,-39,25,8,4,5,5,4,-38
1522257127747189,31,-13,-9,-9,-19,-26,-15,-46
1522257127747189,-35,-14,0,2,19,30,18,24
1522257127759221,-51,-6,-2,-6,-13,-5,-24,-37
1522257127759221,16,1,0,2,1,2,9,30
1522257127768245,8,-4,-2,-3,-3,2,3,4
1522257127768245,-3,-2,0,-1,-3,-13,0,5
1522257127783285,20,8,3,2,-1,-2,13,12
1522257127783285,105,9,6,3,1,-4,2,50
1522257127784287,-100,2,-2,-1,-8,-8,-3,6
1522257127784287,-64,-17,-11,-4,13,29,-13,-54
1522257127805344,22,3,0,-1,12,9,5,36
1522257127805344,-41,-6,1,0,-7,-3,-8,-15
1522257127807348,91,8,5,1,-1,-6,13,32
1522257127807348,-59,-3,0,3,0,-15,-3,2
1522257127819386,-26,-1,-5,-2,-12,-10,-10,-45
1522257127819386,-4,-9,-6,-2,3,2,7,4
1522257127828405,32,17,-4,0,3,7,3,-14
1522257127828405,45,16,16,2,-8,-3,2,29
1522257127842442,-38,-14,-4,4,3,-2,-15,-28
1522257127842442,-40,2,1,-1,-3,-12,11,31
1522257127849460,8,-16,-12,-4,-10,5,-7,-26
1522257127849460,41,-4,-5,-3,13,15,-7,-9
1522257127865503,-52,-1,1,-4,3,-9,2,-35
1522257127865503,40,-1,0,-1,-39,9,9,10
1522257127867508,-30,-4,-2,1,20,0,7,29
1522257127867508,-14,1,-5,-6,-16,-21,-7,5
1522257127879540,63,5,1,-1,7,3,-1,16
1522257127879540,-26,0,-2,-3,0,-1,-8,-18
1522257127888564,14,-9,0,5,4,2,-2,-11
1522257127888564,33,-3,1,2,-3,-6,9,24
1522257127902601,-4,7,4,4,3,2,10,25
1522257127902601,55,-1,-3,-2,5,-15,-3,-31
1522257127908617,-40,-11,0,1,7,19,-6,18
1522257127908617,15,-1,-5,-7,-3,-5,0,-22
1522257127923658,-49,-2,-1,2,-15,-4,-1,-27
1522257127923658,17,10,5,3,6,5,-5,15
1522257127932681,54,0,0,-1,2,1,14,-9
1522257127932681,-21,-8,-8,-5,-27,-23,-8,32
1522257127947721,5,12,0,-3,8,-16,0,-49
1522257127947721,-42,-2,5,5,8,40,6,51
1522257127949727,9,-2,-7,-9,-8,15,-8,-24
1522257127949727,-15,-4,2,0,-2,-8,3,-7
1522257127970783,21,-6,-3,-1,-1,-4,-6,0
1522257127970783,8,8,4,4,1,-2,4,1
1522257127971785,-33,2,-2,-4,-4,-13,2,-3
1522257127971785,44,16,4,6,9,8,11,38
1522257127983817,-22,-2,-3,0,-7,-7,-12,-5
1522257127983817,7,-12,-5,-4,-4,-6,-6,6
1522257127992841,0,2,-5,-4,3,1,-1,-17
1522257127992841,-15,-19,-1,-4,0,-4,-1,8
1522257128007881,-17,-7,-1,-1,2,5,-3,-3
1522257128007881,4,4,-5,-5,0,-9,-5,-11
1522257128009886,1,1,2,3,0,-3,3,-3
1522257128009886,10,3,2,2,-1,9,11,23
1522257128029940,28,10,0,0,7,-4,-12,-3
1522257128029940,-92,-6,-10,-4,-14,-3,-6,2
1522257128031945,7,4,3,4,-10,-20,-17,12
1522257128031945,58,2,0,0,6,19,7,-2
1522257128043977,-4,-5,0,-3,-15,-5,-2,23
1522257128043977,3,0,2,0,23,9,7,-45
1522257128053001,-18,-4,-1,3,2,17,10,45
1522257128053001,17,-11,-3,2,-1,-9,-2,-2
1522257128068041,16,12,-8,-4,-15,-4,-7,-2
1522257128068041,38,12,13,5,11,-2,2,12
1522257128069044,-67,-14,-4,-5,-16,0,3,-32
1522257128069044,8,3,0,-1,11,-3,5,38
1522257128090100,19,-9,-7,-2,-1,5,-7,-54
1522257128090100,-7,-1,2,-3,8,-12,-7,-6
1522257128092105,40,8,5,-1,0,3,0,-13
1522257128092105,-73,7,4,5,-1,0,11,87
1522257128104137,-44,-6,-11,-5,-4,-11,-1,-26
1522257128104137,19,-4,8,1,-7,5,-16,-36
1522257128113161,7,-2,2,2,4,-6,9,51
1522257128113161,-2,7,-3,0,-6,-4,-5,-40
1522257128128201,5,5,-6,-5,5,12,-1,25
1522257128128201,-11,-10,-6,-6,-1,3,3,7
1522257128129204,18,4,-3,-2,4,-4,-7,-7
1522257128129204,-18,-26,-2,-2,-16,-8,-4,-38
1522257128150259,2,17,1,1,0,2,11,28
1522257128150259,51,5,1,-1,-3,3,3,25
1522257128152265,44,5,8,5,11,-4,7,22
1522257128152265,-12,2,-15,-6,-31,-31,-5,-29
1522257128164297,-42,-29,-4,-5,22,21,-34,-87
1522257128164297,-39,-3,-10,-4,-5,-5,3,20
1522257128173321,-7,-7,-2,-2,-1,3,-2,-9
1522257128173321,29,15,12,3,14,-4,7,-6
1522257128188361,18,5,3,5,-8,3,21,36
1522257128188361,9,-12,-1,-1,-10,-4,-11,8
1522257128189364,-28,19,6,-2,-16,-31,-12,-11
1522257128189364,5,4,-5,-5,22,2,-5,-11
1522257128210419,10,-5,4,7,2,66,16,58
1522257128210419,-55,-18,-10,-4,-4,-27,-30,-94
1522257128212425,-63,3,-1,-2,-14,-2,6,-8
1522257128212425,110,7,4,-1,7,1,-2,11
1522257128224457,28,-2,1,-6,-11,-17,3,2
1522257128224457,-39,-1,5,1,6,6,9,3
1522257128233481,22,-7,-3,2,-2,-3,5,38
1522257128233481,-9,7,-7,-3,-6,12,-22,-43
1522257128247518,24,8,2,2,8,-15,-5,-16
1522257128247518,-7,-7,-10,-7,-8,0,-4,10
1522257128249523,-39,-24,-9,-4,2,-7,-10,-53
1522257128249523,-7,23,19,7,10,14,17,29
1522257128270580,26,-1,8,1,-21,-13,27,33
1522257128270580,-39,-2,-9,-4,-7,-36,-29,-37
1522257128271582,35,-21,-3,0,9,41,-3,-2
1522257128271582,-31,4,-9,-2,3,-5,-9,-20
1522257128283615,14,-2,3,0,3,-3,-11,5
1522257128283615,20,8,7,2,-10,0,17,13
1522257128292639,81,6,1,0,2,-1,7,20
1522257128292639,-74,-10,-2,5,-24,-19,8,28
1522257128307678,5,-2,-5,2,75,20,-2,-62
1522257128307678,23,11,0,1,10,11,-2,4
1522257128309683,-28,-20,-4,1,-2,2,-9,-16
1522257128309683,41,19,8,-2,8,-2,4,5
1522257128330739,-4,7,7,1,-24,-17,12,54
1522257128330739,43,-7,0,4,7,18,26,5
1522257128331742,0,-3,-8,-4,14,-4,-33,-11
1522257128331742,10,-7,-4,-8,-16,-2,3,-7
1522257128343774,-20,-4,-9,-8,-12,-14,-12,-2
1522257128343774,31,-25,3,-1,8,12,8,18
1522257128352801,-5,15,5,6,-9,-8,24,18
1522257128352801,43,16,2,3,4,13,3,13
1522257128366835,-82,-15,-5,-2,-14,-14,-24,-31
1522257128366835,87,17,2,-3,-2,7,6,48
1522257128373854,-102,-18,-6,1,19,-14,-7,-70
1522257128373854,2,-12,-7,-1,13,28,7,34
1522257128390899,50,6,0,-5,-17,-9,-4,0
1522257128390899,-26,3,1,-5,-8,-2,-2,13
1522257128391902,115,19,9,1,1,-9,21,97
1522257128391902,-111,-8,-5,2,-1,16,-6,-87
1522257128403933,-29,-21,-7,-6,-14,-6,-32,3
1522257128403933,27,0,-3,-3,-3,-13,-12,-20
1522257128412958,14,1,2,-2,-4,5,-14,3
1522257128412958,47,9,2,2,3,-12,13,15
1522257128426995,-47,-4,-2,0,-2,-4,13,13
1522257128426995,-31,-3,-5,-1,-3,2,-5,-29
1522257128434013,-1,16,6,1,-1,11,25,25
1522257128434013,2,-18,-2,1,16,-3,-10,16
1522257128450056,-12,10,-2,-7,-12,-26,-10,-62
1522257128450056,17,-2,-3,-1,-44,18,0,33
1522257128452063,-76,-6,-10,-5,-3,-20,-11,-45
1522257128452063,1,-14,-6,-4,-13,-13,-22,-27
1522257128473117,-19,-4,4,7,23,9,16,27
1522257128473117,7,17,7,10,7,-16,20,-2
1522257128474121,77,0,-4,-5,-7,12,-21,6
1522257128474121,-79,-26,-11,-10,0,7,-16,-65
1522257128487155,31,10,0,-3,-7,3,7,16
1522257128487155,10,-4,-3,2,7,1,2,6
1522257128494173,-1,14,13,6,6,9,19,43
1522257128494173,-15,-6,-5,1,2,-19,-18,-68
1522257128510216,35,8,5,0,-11,6,2,26
1522257128510216,-29,-11,-7,-7,10,1,-4,1
1522257128512222,28,-2,-4,-2,0,1,-6,11
1522257128512222,7,5,2,-1,-6,1,6,19
1522257128533277,-8,-4,0,0,0,3,22,20
1522257128533277,5,-1,-4,0,10,-31,-12,-1
1522257128534280,-8,1,4,4,3,33,0,15
1522257128534280,-36,-14,-2,-1,-5,-18,-4,-22
1522257128547315,20,0,-2,2,11,11,-7,9
1522257128547315,-13,4,4,-1,-2,13,10,22
1522257128554333,20,1,-4,-2,19,-10,6,41
1522257128554333,-1,-11,-7,-4,-20,2,-3,-2
1522257128570376,5,-2,-3,2,-4,-10,-5,-51
1522257128570376,-85,-7,-9,-6,-5,-10,-27,-48
1522257128572381,18,6,2,-3,-19,-6,0,-20
1522257128572381,54,-7,-5,-3,3,-11,-2,54
1522257128593437,36,17,2,5,17,20,8,22
1522257128593437,21,-3,6,5,2,15,6,-9
1522257128594440,-44,-16,-9,-5,-5,-4,2,-16
1522257128594440,50,6,-1,-2,-1,-2,7,29
1522257128607475,-5,18,15,3,4,-6,-8,-2
1522257128607475,36,4,1,1,3,-16,12,74
1522257128614493,-82,0,-3,4,16,30,10,-52
1522257128614493,-1,-13,-13,-10,-30,-9,-38,-88
1522257128630536,26,7,-4,-3,26,-3,2,6
1522257128630536,6,4,1,4,16,9,6,-24
1522257128632541,-56,-14,-4,-11,-11,-32,-7,-37
1522257128632541,48,-1,5,-2,-63,-3,20,89
1522257128652595,-16,-19,-6,-6,-15,-29,-2,-5
1522257128652595,-4,38,-2,-5,-25,11,2,15
1522257128654600,12,-13,8,1,13,-9,-4,-41
1522257128654600,-113,-7,0,2,24,-10,-18,-27
1522257128667634,80,8,3,0,10,49,15,35
1522257128667634,-47,-40,-17,-8,4,3,1,-27
1522257128673650,9,8,-6,1,-10,-8,-27,-7
1522257128673650,16,25,34,13,21,14,14,-5
1522257128690696,-3,8,9,8,-10,-19,3,58
1522257128690696,5,-11,-4,0,4,0,1,-16
1522257128691699,14,13,-2,-1,-11,5,0,-8
1522257128691699,-25,-11,-9,0,17,1,4,18
1522257128712754,-16,-19,-9,-4,-7,3,5,5
1522257128712754,18,33,8,1,4,2,-1,-46
1522257128714760,-11,-25,3,2,1,-10,-9,51
1522257128714760,49,12,-7,-7,-3,8,-4,-28
1522257128726791,-53,-12,-5,-2,-12,-4,3,-7
1522257128726791,29,-5,-2,1,8,1,5,28
1522257128735816,124,14,5,-5,-46,-47,33,98
1522257128735816,-95,-8,-5,16,99,89,-19,-67
1522257128750855,26,0,-8,-5,0,-9,-20,-35
1522257128750855,25,1,2,0,-9,2,5,42
1522257128751859,20,8,-2,-4,6,-2,3,-14
1522257128751859,35,-22,4,1,-8,-22,14,25
1522257128772914,-16,29,6,0,-20,-7,-7,-3
1522257128772914,-10,-30,-8,-7,13,3,-4,22
1522257128774920,-35,8,0,-4,-15,3,-27,-86
1522257128774920,-26,-4,-7,-3,-26,-18,-8,-2
1522257128786951,15,-8,0,7,21,11,1,-1
1522257128786951,18,8,4,1,-11,-14,1,15
1522257128795975,-76,-35,-14,0,3,14,14,4
1522257128795975,79,29,10,1,-1,-4,-6,40
1522257128810013,-65,23,6,-3,-2,-14,-14,-72
1522257128810013,-10,-17,1,-1,-3,2,13,38
1522257128812018,49,6,-10,-2,0,9,-26,5
1522257128812018,-32,-8,-2,-2,10,-36,16,57
1522257128833074,-14,-11,-6,-5,-33,34,-9,-39
1522257128833074,5,14,3,-3,-8,-1,-7,-18
1522257128834077,-10,-14,3,3,9,6,-11,-36
1522257128834077,23,11,1,-1,-15,-16,21,43
1522257128846109,21,8,1,2,-12,-5,14,76
1522257128846109,13,-10,-1,7,-9,3,7,-1
1522257128855133,-84,-15,-9,-6,24,16,-33,-79
1522257128855133,7,2,-4,-7,-7,-1,19,58
1522257128870173,16,-9,-2,-1,2,-8,-1,-56
1522257128870173,10,-12,-3,-1,5,6,0,39
1522257128872178,5,15,6,1,-5,-4,14,20
1522257128872178,19,7,0,0,-9,1,-4,-17
1522257128893234,-12,-7,2,0,15,0,-8,-7
1522257128893234,39,-1,-2,-6,-15,-13,-10,-7
1522257128894237,-36,2,3,4,3,2,4,12
1522257128894237,-6,5,0,-3,-2,6,-6,-31
1522257128906269,62,3,1,-2,2,-5,8,46
1522257128906269,-41,9,3,3,-2,-25,-9,-38
1522257128915293,-21,0,3,4,13,37,16,7
1522257128915293,-14,-1,-5,-3,1,5,-20,-21
1522257128930333,1,-3,0,-2,-2,-8,2,7
1522257128930333,-17,-3,1,1,8,4,4,-13
1522257128932338,44,4,4,1,1,-9,8,36
1522257128932338,26,-6,4,1,6,9,18,47
1522257128953394,-24,-7,-13,-13,-61,-12,-12,-45
1522257128953394,-30,3,3,5,47,-2,-6,9
1522257128954398,18,3,-1,-2,-5,5,-6,-34
1522257128954398,0,3,-4,0,15,1,-8,-8
1522257128966428,-9,5,10,5,15,2,11,37
1522257128966428,0,8,1,-8,-34,-6,-2,-27
1522257128975453,60,-2,-3,-3,-10,-16,6,67
1522257128975453,10,-11,-5,-2,-1,1,-13,-39
1522257128990493,-55,-15,-9,-4,7,11,-7,-22
1522257128990493,-14,5,3,1,1,3,-8,-30
1522257128992498,14,-2,2,2,1,3,19,55
1522257128992498,32,6,3,3,-14,-19,17,7
1522257129012551,-22,2,-5,0,14,11,-14,-57
1522257129012551,29,-2,-5,-2,3,11,0,56
1522257129014556,11,8,-2,-3,-8,-13,-3,-2
1522257129014556,-101,4,5,2,-3,-1,-6,-79
1522257129026588,9,-8,0,3,4,-7,6,20
1522257129026588,-7,-6,-4,4,8,6,0,-6
1522257129035613,3,-5,-8,-5,-15,-8,-11,-7
1522257129035613,24,10,-1,-3,-8,-3,-1,1
1522257129050652,67,5,8,0,17,-12,17,96
1522257129050652,-86,-20,-9,-9,-21,7,-5,-88
1522257129051655,22,6,1,-2,6,-5,-7,5
1522257129051655,-20,-12,-6,-2,-1,4,-15,-40
1522257129072711,1,-8,-3,-3,-9,-26,-1,22
1522257129072711,39,17,7,4,0,18,5,23
1522257129074716,-21,-1,2,8,12,5,19,24
1522257129074716,66,-8,-6,-1,-20,-43,-6,-22
1522257129086748,-4,3,-2,0,24,75,4,39
1522257129086748,-9,-3,0,-2,6,-31,-8,2
1522257129095772,34,1,1,-8,-40,-3,-5,-34
1522257129095772,6,2,-2,1,21,8,2,32
1522257129110812,2,13,7,3,2,-16,9,-11
1522257129110812,-48,-4,1,2,-5,5,1,2
1522257129111815,-15,-1,-5,-5,-23,-3,-12,-53
1522257129111815,11,15,-10,-4,1,2,1,34
1522257129132871,-2,-4,5,-2,-10,-15,-4,-5
1522257129132871,15,4,1,2,5,9,14,5
1522257129134876,-42,-6,-2,2,26,-11,-19,-27
1522257129134876,52,5,5,0,-11,18,12,83
1522257129146908,-10,-11,-14,-6,-13,-21,-24,-77
1522257129146908,39,-16,-8,-7,4,-3,-11,-39
1522257129155932,-47,4,0,0,4,-2,-4,-6
1522257129155932,24,-4,1,-2,4,11,3,9
1522257129170972,8,4,5,4,6,4,5,18
1522257129170972,49,13,5,1,-22,-41,15,70
1522257129172977,-70,-24,-9,3,32,42,7,-48
1522257129172977,68,16,3,-3,0,9,-8,22
1522257129193031,-42,-13,-4,-2,-18,-9,-8,-49
1522257129193031,-6,-6,-5,-5,-4,-4,-23,-32
1522257129195036,16,7,4,-2,2,-11,10,40
1522257129195036,-28,4,5,2,-1,0,6,-2
1522257129207068,6,4,-2,0,3,3,7,11
1522257129207068,5,0,-6,-1,-4,2,0,17
1522257129216092,55,8,6,4,4,-3,0,-1
1522257129216092,-88,-17,-6,-6,-6,-23,0,-17
1522257129230129,54,2,-5,-1,-43,9,12,42
1522257129230129,-59,-14,-5,-2,31,8,-36,-98
1522257129232135,4,-2,-2,0,-3,-4,7,37
1522257129232135,9,-13,-3,1,0,0,-2,-35
1522257129253191,9,20,10,3,-5,-10,11,16
1522257129253191,-42,15,7,0,-5,7,10,40
1522257129254193,47,-7,-6,-4,-12,-30,-6,-48
1522257129254193,-18,-4,-3,-2,-5,31,-8,20
1522257129266225,28,-9,-5,2,28,-16,-11,-6
1522257129266225,27,-4,0,1,-19,5,10,38
1522257129275249,-45,-3,-6,-4,-8,-5,-7,-45
1522257129275249,6,16,5,4,-4,-2,12,21
1522257129290289,-10,-14,-3,0,0,-1,-5,-9
1522257129290289,4,4,-1,-4,0,0,-5,-20
1522257129292295,35,8,2,0,-4,-8,5,47
1522257129292295,-27,-15,-5,-3,-2,-3,-11,-38
1522257129313350,0,2,0,-1,12,10,6,7
1522257129313350,3,5,2,1,3,-3,5,42
1522257129314354,-7,-2,1,-1,0,10,-2,13
1522257129314354,11,-1,1,0,0,-1,3,-6
1522257129326385,-3,2,5,2,4,-3,-8,-4
1522257129326385,57,0,3,6,-2,7,29,88
1522257129335409,-99,-9,-9,-4,-10,-23,-6,-30
1522257129335409,0,-12,-13,-6,29,20,-14,-29
1522257129350449,-27,-14,-9,-11,-12,0,-12,-28
1522257129350449,21,10,2,-1,-1,1,-1,-12
1522257129352455,26,6,4,5,9,7,8,47
1522257129352455,-44,-4,5,5,16,-8,14,6
1522257129380529,6,6,-6,-8,-24,-7,-3,-9
1522257129380529,-10,-9,-3,1,5,7,-8,-26
1522257129382534,-2,4,-2,-5,-4,5,6,12
1522257129382534,-19,0,5,-1,-10,-13,-4,-6
1522257129395569,4,-4,2,4,19,7,5,14
1522257129395569,-9,3,-3,-5,-6,-4,-10,-33
1522257129396572,32,-5,0,2,-1,3,6,22
1522257129396572,47,1,-6,-2,-5,-1,-1,-9
1522257129410609,-60,3,-1,-5,0,-14,-2,-23
1522257129410609,63,-7,-6,-3,4,12,-7,-7
1522257129411612,-5,-6,0,-1,-5,-4,-2,8
1522257129411612,-48,-5,-5,-6,-17,-11,-13,-35
1522257129432667,26,12,-8,-2,-2,1,6,17
1522257129432667,-23,-10,0,1,2,-7,5,-15
1522257129434673,9,9,15,3,9,12,4,11
1522257129434673,10,-1,1,-1,-10,-3,2,12
1522257129455729,5,12,7,4,1,-2,1,12
1522257129455729,-23,-2,-2,1,-2,-17,-8,-14
1522257129456732,4,0,-9,-7,5,19,0,0
1522257129456732,0,-6,0,-1,-7,-6,-3,2
1522257129469766,10,6,7,8,11,8,7,15
1522257129469766,52,10,1,1,3,2,9,30
1522257129476785,2,-11,3,3,-3,-2,-11,-75
1522257129476785,-64,-13,-12,-12,-10,-13,-33,-58
1522257129492827,19,2,9,2,14,4,1,9
1522257129492827,-22,10,0,1,-14,3,0,5
1522257129494833,38,8,-1,-2,-4,-3,21,44
1522257129494833,35,8,0,3,2,8,12,28
1522257129515889,-28,-13,-4,2,-1,-7,-11,-33
1522257129515889,-1,-2,-2,-1,6,5,7,3
1522257129516892,-31,-10,-12,-8,-9,-10,-16,-30
1522257129516892,40,14,4,2,5,7,5,21
1522257129529926,53,29,12,3,3,-13,19,65
1522257129529926,-99,-43,-14,-15,-32,-5,-26,-25
1522257129536944,8,-14,-5,1,34,20,4,-44
1522257129536944,-11,-1,-3,0,5,2,3,44
1522257129552987,38,4,1,2,-3,4,4,-10
1522257129552987,61,27,8,3,0,-36,-6,7
1522257129554993,-24,-8,-1,-1,-5,9,-2,26
1522257129554993,2,-11,-1,2,-7,12,7,-3
1522257129575046,-6,-2,-5,-1,9,2,-1,-4
1522257129575046,19,14,13,5,7,3,13,11
1522257129577051,-1,-4,-4,-1,-13,-5,-13,4
1522257129577051,18,10,6,0,8,0,7,14
1522257129590086,-20,-7,-11,-7,-2,0,-6,-14
1522257129590086,-41,-17,-8,-3,-13,-3,-9,-47
1522257129596102,-5,21,5,6,3,0,7,-14
1522257129596102,-37,-21,-4,-4,-10,-11,-4,12
1522257129613147,-20,8,7,-2,-7,-6,-5,-7
1522257129613147,-30,-9,-2,3,7,18,10,11
1522257129614150,106,8,4,3,8,-4,3,26
1522257129614150,-47,11,-5,-1,-7,-15,1,-6
1522257129635206,15,-33,-12,-6,6,18,-5,10
1522257129635206,-20,5,-3,-3,6,-2,-11,-27
1522257129637211,-15,-6,4,-1,-11,-8,-4,9
1522257129637211,-5,10,8,5,-1,-14,6,9
1522257129649243,7,2,-3,-2,1,13,-5,-21
1522257129649243,-55,-7,-8,-2,3,1,-16,-16
1522257129658267,13,-7,-5,0,0,-10,-3,15
1522257129658267,17,1,-3,0,-7,7,0,-6
1522257129673307,-58,-6,-1,1,3,-6,1,4
1522257129673307,80,1,0,-2,1,2,13,33
1522257129674310,-22,2,-1,-3,1,-5,2,17
1522257129674310,48,6,5,2,9,0,-4,-62
1522257129695365,-62,-5,1,-1,-8,6,-3,-21
1522257129695365,17,-1,-1,-3,4,-4,-7,-6
1522257129697371,-20,0,-2,0,-10,3,2,-4
1522257129697371,7,-11,-6,0,7,-2,-3,18
1522257129709403,22,7,0,-1,-1,9,1,10
1522257129709403,47,13,7,3,-2,-1,7,15
1522257129718427,-70,1,6,2,8,1,2,-6
1522257129718427,23,-30,-14,-8,-11,-5,-21,-7
1522257129732464,-49,7,0,-1,-11,-16,-11,-29
1522257129732464,-3,-11,-3,0,-1,2,5,18
1522257129734470,42,6,0,0,-2,-1,2,-4
1522257129734470,8,0,1,2,4,3,8,19
1522257129755525,22,-5,-3,-2,3,0,3,16
1522257129755525,12,-5,-1,1,-3,-5,8,8
1522257129757531,-20,6,1,-1,1,7,-6,-26
1522257129757531,11,10,4,1,-2,-1,1,3
1522257129769563,-1,-7,-4,-4,-8,-9,-9,-2
1522257129769563,0,2,3,2,3,-14,-1,-17
1522257129778588,78,2,0,1,6,22,12,-3
1522257129778588,-59,-2,-4,-6,13,0,-1,7
1522257129792624,5,-4,-7,-5,-29,9,-19,-34
1522257129792624,-66,-7,-4,-2,4,-4,-5,-21
1522257129794629,12,-1,-4,-3,-11,-13,-7,8
1522257129794629,21,5,2,5,12,-2,5,1
1522257129815685,33,2,5,3,-11,0,16,37
1522257129815685,18,9,3,1,-3,7,10,16
1522257129816688,-21,-2,-6,-8,-11,-21,-18,-10
1522257129816688,8,4,3,1,-4,14,0,-13
1522257129828720,-36,-9,-1,2,13,-9,-1,0
1522257129828720,23,9,0,3,-1,-3,-2,11
1522257129837744,15,-6,-3,-2,-3,-7,0,16
1522257129837744,-39,7,-2,-6,-2,8,-5,-22
1522257129852784,-15,-6,1,-3,5,-2,-6,-11
1522257129852784,11,-11,-1,2,10,1,1,-12
1522257129854789,-17,12,-1,3,3,-4,3,46
1522257129854789,20,-4,-2,-4,-12,-8,-18,-49
1522257129875845,-14,-4,-1,1,-7,-8,-8,-13
1522257129875845,-6,-5,0,0,1,11,3,-2
1522257129876848,38,-3,-6,-3,-1,-3,6,0
1522257129876848,-25,-2,-1,-1,-8,2,12,33
1522257129888880,13,-5,2,3,9,-1,-3,-23
1522257129888880,68,12,-3,-3,2,-3,-9,-8
1522257129897904,-103,-3,1,0,-10,-14,-5,-24
1522257129897904,69,4,1,4,7,17,18,65
1522257129912944,-8,0,-3,-1,1,-5,-7,-28
1522257129912944,-21,-16,-10,-6,-3,1,-4,0
1522257129914950,31,11,5,3,1,-7,-2,14
1522257129914950,-39,-2,0,0,-1,3,-6,-30
1522257129935003,3,-2,1,-2,-2,-30,4,38
1522257129935003,-15,0,-1,-3,-2,19,0,7
1522257129937008,0,-9,-5,-4,4,26,0,-10
1522257129937008,-2,2,3,2,-5,-6,1,-12
1522257129949040,31,13,5,4,10,10,12,-5
1522257129949040,-34,-8,-2,-6,-17,-18,-19,-18
1522257129958064,33,3,0,-2,-2,-2,5,31
1522257129958064,3,-5,-5,0,-4,-16,-18,-29
1522257129973104,26,11,0,1,2,-3,9,12
1522257129973104,38,14,9,7,13,18,38,72
1522257129974107,-109,-44,-23,-10,-2,-8,-56,-86
1522257129974107,90,12,-8,-6,-20,-8,6,53
1522257129995162,-31,20,34,8,-2,4,6,9
1522257129995162,-67,-2,-2,2,2,1,13,29
1522257129997168,49,2,1,5,10,3,3,-13
1522257129997168,-35,-10,-21,-6,-11,-2,-2,-56
1522257130009200,61,-26,-22,-10,-5,-3,-14,5
1522257130009200,-4,23,10,2,1,2,-3,-13
1522257130018224,-33,2,13,3,-1,-4,6,-19
1522257130018224,84,9,9,7,9,7,16,56
1522257130033264,-7,12,-9,-1,-3,7,13,30
1522257130033264,-31,-28,-16,-12,-2,-11,-47,-36
1522257130034269,8,-5,-4,-1,-11,-5,1,49
1522257130034269,-6,5,7,-1,-1,-2,2,-15
1522257130055322,26,11,5,7,8,7,26,33
1522257130055322,24,-4,-3,2,3,-6,-1,-55
1522257130057328,40,6,6,3,-6,-27,21,111
1522257130057328,-45,0,-1,-7,6,17,-15,-13
1522257130069360,-55,-22,-13,-6,-4,-2,-43,-120
1522257130069360,-15,2,1,-3,-8,-5,-2,15
1522257130078384,8,-5,3,1,0,10,17,9
1522257130078384,54,20,11,1,-2,-35,16,52
1522257130093424,11,-13,-16,-8,-5,35,1,3
1522257130093424,-54,-35,-9,4,16,-3,-17,-63
1522257130094426,19,5,-4,2,5,-3,-1,-12
1522257130094426,-20,-38,-9,-1,4,2,4,4
1522257130115482,49,47,26,3,-6,-13,9,34
1522257130115482,29,12,7,3,-7,5,16,33
1522257130117487,-20,-18,-14,-4,-4,8,-11,-33
1522257130117487,-31,1,-3,-2,-2,-6,-12,-18
1522257130129519,-7,-12,2,2,1,2,9,24
1522257130129519,28,2,2,1,0,6,13,14
1522257130138544,-46,-2,-1,-4,1,-15,1,-11
1522257130138544,45,11,-9,-4,-1,22,4,39
1522257130152581,-40,-10,-8,-3,-5,-15,-34,-70
1522257130152581,32,2,3,-2,-3,-4,-13,25
1522257130154586,-48,-12,-5,-1,-7,-5,-8,-32
1522257130154586,-7,6,8,3,0,-4,4,-17
1522257130175642,114,27,9,1,14,-53,74,127
1522257130175642,-67,-36,-24,-18,-15,82,-68,-106
1522257130177647,-62,-3,-1,-6,-8,-41,-48,-106
1522257130177647,12,9,3,0,-6,6,3,30
1522257130188677,11,-8,-2,1,6,-16,-9,11
1522257130188677,30,17,9,4,-4,-19,36,51
1522257130197701,56,6,5,2,6,25,24,44
1522257130197701,-83,-5,1,4,4,-7,3,21
1522257130212740,13,-32,-26,-9,-17,2,-39,-97
1522257130212740,-20,34,13,2,1,-13,12,25
1522257130214746,18,-13,5,1,0,21,-6,7
1522257130214746,-3,4,7,2,3,-14,5,-8
1522257130235802,-23,-9,-9,-3,-4,20,2,12
1522257130235802,28,0,-4,-2,5,-3,18,17
1522257130236805,46,22,4,4,9,-2,18,-5
1522257130236805,41,-16,-5,-3,-6,-1,-15,-30
1522257130248836,-32,-2,6,5,0,2,8,55
1522257130248836,-14,22,8,7,14,20,44,19
1522257130257861,-40,-7,-11,-5,-18,-29,-49,-63
1522257130257861,-26,-31,-20,-17,-4,7,-37,-36
1522257130271898,-18,3,4,-2,-2,5,-25,-13
1522257130271898,71,5,6,4,1,-17,20,94
1522257130278916,-15,10,5,2,5,13,31,17
1522257130278916,-38,-11,-6,0,-3,-3,-7,-45
1522257130295962,-6,3,0,-4,1,3,-6,-1
1522257130295962,8,4,-1,-1,2,-8,-2,-1
1522257130296965,33,-3,1,2,-7,10,7,15
1522257130296965,1,5,-6,-1,-4,-11,-5,-5
1522257130308996,5,-8,4,3,1,12,18,-9
1522257130308996,56,7,-1,0,-1,-10,5,-12
1522257130318021,-80,-28,-16,-10,-3,-6,-40,-23
1522257130318021,47,10,14,5,-2,-9,11,18
1522257130332058,-6,6,6,0,2,15,8,41
1522257130332058,-20,-20,-5,2,0,-5,-14,-49
1522257130339079,47,15,-3,-4,3,2,5,36
1522257130339079,-35,1,-1,-3,-3,-42,11,69
1522257130355119,-60,-6,-8,-4,-6,65,-5,-93
1522257130355119,-34,1,3,2,3,-15,-42,-10
1522257130357125,94,0,-5,-8,-5,1,12,72
1522257130357125,-33,6,4,3,-2,-7,5,67
1522257130378181,-40,-12,-13,-10,-11,-19,-39,-67
1522257130378181,-4,-11,-1,-1,-2,-2,-7,41
1522257130379184,-14,14,7,6,8,18,15,5
1522257130379184,56,19,6,4,6,14,22,16
1522257130392218,10,-5,-3,-2,-5,-28,9,30
1522257130392218,-9,-6,-3,-1,14,20,4,-51
1522257130406255,14,-11,-4,2,-2,-17,-5,11
1522257130406255,14,17,-4,-6,-12,9,-17,-52
1522257130415279,0,4,3,0,-4,-13,9,45
1522257130415279,-22,-9,-3,-3,-10,-12,-12,-41
1522257130417284,44,12,7,3,6,11,17,25
1522257130417284,-59,-21,-5,-2,7,8,9,-4
1522257130438340,21,-2,-5,0,4,-3,-15,-67
1522257130438340,-34,0,2,0,-1,-11,-5,4
1522257130439343,81,11,4,1,5,8,22,84
1522257130439343,-18,-9,-3,-1,-18,-34,-33,-85
1522257130452377,-34,5,5,5,26,33,5,-21
1522257130452377,-26,-11,-6,-6,-8,5,-5,8
1522257130459398,-46,-6,1,0,-3,3,1,-21
1522257130459398,75,17,1,-1,-1,6,0,29
1522257130475439,52,3,7,3,-4,-14,17,66
1522257130475439,-3,-4,-4,-2,-6,-34,3,-28
1522257130477444,-56,-7,-1,-2,3,34,14,-31
1522257130477444,24,13,2,0,-2,-9,12,38
1522257130497497,-3,-6,-8,-3,1,14,-11,3
1522257130497497,-2,-2,-10,-5,-4,6,3,5
1522257130499503,1,7,2,3,-2,-13,-5,7
1522257130499503,-23,14,14,2,4,15,-9,-34
1522257130512537,-13,-7,1,3,0,-12,-3,22
1522257130512537,57,4,1,4,5,0,14,46
1522257130519556,-38,-8,-9,-3,-17,-5,-20,-68
1522257130519556,77,4,-4,-1,0,13,32,95
1522257130535599,-79,-2,-4,-2,-7,-26,-16,-84
1522257130535599,-35,-6,-7,-7,-8,3,-33,-34
1522257130537605,22,5,-1,-1,11,-12,4,15
1522257130537605,-6,-6,4,4,4,32,7,16
1522257130557657,13,-7,-4,-1,-3,-11,6,22
1522257130557657,-15,-9,-4,-4,-8,-11,4,-23
1522257130559663,-8,3,1,-2,0,-2,-5,-14
1522257130559663,-44,-10,-2,-1,2,-3,-13,-33
1522257130571694,34,1,0,2,2,3,18,51
1522257130571694,-9,-4,-3,0,-2,1,1,-10
1522257130580719,31,1,-10,-1,0,-3,1,34
1522257130580719,25,11,-8,-2,2,-2,-2,-52
1522257130595758,-34,11,21,5,-3,-6,-1,15
1522257130595758,51,-2,2,2,1,-9,8,1
1522257130596761,-60,0,2,-1,17,15,-2,25
1522257130596761,-56,-33,-21,-9,-23,-16,-26,-61
1522257130617817,19,-6,-11,-3,1,16,-6,1
1522257130617817,22,36,13,4,-1,4,7,26
1522257130619829,33,-6,-1,0,2,-4,13,29
1522257130619829,2,-1,2,-1,7,-1,-2,-18
1522257130631855,-7,-5,0,-3,-9,-13,10,17
1522257130631855,-4,-7,-2,-2,0,11,-16,-17
1522257130640879,17,5,1,3,-3,-23,6,-7
1522257130640879,-56,-9,-3,0,4,25,-2,-37
1522257130655918,3,-6,-9,-9,-8,-10,-21,-10
1522257130655918,-2,-9,-7,-6,2,3,2,19
1522257130656922,-13,0,3,-1,-5,-10,-11,-20
1522257130656922,25,7,8,4,4,7,17,35
1522257130677977,28,3,1,1,1,2,12,21
1522257130677977,-44,-4,1,-1,-2,-4,-9,-27
1522257130679983,23,1,-2,-4,-4,8,4,6
1522257130679983,35,3,4,6,7,1,28,49
1522257130692014,22,5,-9,0,4,3,-12,-2
1522257130692014,8,1,-4,-5,-9,-11,-14,15
1522257130701039,-9,-36,0,-1,-4,1,-12,-35
1522257130701039,-30,1,5,-3,0,-4,-8,-4
1522257130715076,20,15,7,1,2,-4,-2,-14
1522257130715076,8,0,4,5,5,9,21,32
1522257130717081,-20,7,-6,-6,-2,1,-5,-27
1522257130717081,-11,-15,-5,-2,-3,-12,-14,-7
1522257130738137,-3,-4,0,-3,-5,7,1,8
1522257130738137,14,5,2,1,-4,-8,1,21
1522257130739140,-5,-12,-5,-3,-4,2,-1,14
1522257130739140,60,10,5,4,-1,-14,-3,2
1522257130751172,-37,18,2,4,8,15,-6,-26
1522257130751172,-17,-26,-7,-1,-1,0,6,13
1522257130760195,-30,1,-6,-7,-9,-9,-20,-70
1522257130760195,-16,1,1,0,0,-1,-7,10
1522257130775236,-2,-2,2,0,-2,-5,8,10
1522257130775236,22,6,4,0,-1,0,10,16
1522257130777241,-10,3,3,2,2,5,-1,5
1522257130777241,13,0,1,-1,0,-1,0,-3
1522257130798297,17,-3,-2,-1,-1,-4,3,8
1522257130798297,-5,4,-1,0,1,4,0,-6
1522257130799299,50,20,7,6,4,6,24,49
1522257130799299,-39,0,-4,0,-9,-40,-18,-23
1522257130811331,-68,-1,-4,-5,7,44,-16,-18
1522257130811331,28,-13,-6,-3,2,1,-12,-78
1522257130820356,31,9,2,-1,-5,-8,-19,9
1522257130820356,-8,7,2,-2,3,8,25,46
1522257130835395,21,-3,1,0,1,-17,4,-6
1522257130835395,-4,1,4,-2,-1,-12,2,29
1522257130837401,25,7,3,3,6,20,4,25
1522257130837401,-76,-2,-4,-2,-1,5,-9,-21
1522257130858458,33,-19,-3,0,-1,-15,5,22
1522257130858458,-10,12,0,1,4,4,-1,-6
1522257130859460,-11,-5,0,-1,-3,-12,0,-10
1522257130859460,15,-2,-2,0,0,11,6,15
1522257130871491,22,7,1,0,-2,-5,-12,-5
1522257130871491,71,12,7,9,7,-4,10,44
1522257130880515,-101,-28,-16,-7,-29,-5,-24,-46
1522257130880515,19,-13,-2,-6,4,7,-6,-11
1522257130895555,-23,-11,-4,0,0,-5,9,-2
1522257130895555,-8,-4,-3,-5,1,4,-9,-15
1522257130897561,41,22,9,3,2,-7,18,50
1522257130897561,43,1,-2,-4,-2,5,3,1
1522257130917614,-23,-11,-2,-1,-5,-7,3,17
1522257130917614,-15,6,-1,-1,-9,-6,-8,-28
1522257130919620,-5,-2,-3,2,7,-8,14,-2
1522257130919620,-8,-7,-3,0,3,15,-14,-18
1522257130931651,30,28,19,1,0,-7,5,25
1522257130931651,-36,-14,-4,1,-5,-6,-11,-7
1522257130940675,2,-2,1,3,-1,-17,17,29
1522257130940675,32,11,-2,0,0,5,-32,-112
1522257130955715,-52,-10,-13,-5,-1,8,-6,32
1522257130955715,19,-3,0,-5,-7,-12,-5,-25
1522257130956718,35,2,0,-3,0,2,-2,22
1522257130956718,-8,9,3,1,3,-10,20,31
1522257130977774,33,5,-2,-1,-4,-3,2,-16
1522257130977774,-11,3,0,1,-2,5,6,22
1522257130979779,4,-9,-2,1,18,11,7,-1
1522257130979779,22,-2,2,1,-3,-3,-5,7
1522257130991811,-28,4,0,-3,-6,-1,-5,-28
1522257130991811,30,-4,-4,-2,2,5,11,50
1522257131006851,-68,-3,-3,-2,-7,-2,-20,-75
1522257131006851,-83,-15,1,0,4,4,-4,-4
1522257131015875,32,-9,-6,-2,-8,-24,-10,-2
1522257131015875,-13,0,-2,0,3,17,4,5
1522257131016878,29,11,1,-3,4,7,4,8
1522257131016878,23,-3,-3,-3,-7,-3,-3,3
1522257131037934,-15,-4,1,2,-2,-1,10,23
1522257131037934,-11,-1,0,1,-4,-11,3,-28
1522257131039939,34,-4,1,0,6,5,-5,-23
1522257131039939,37,9,6,6,8,25,31,102
1522257131051971,-54,0,-4,-4,-3,-12,-31,-93
1522257131051971,-6,-8,-6,-8,-9,-4,-6,-6
1522257131060995,-14,-4,-1,-3,-9,-6,-5,-17
1522257131060995,17,4,0,-3,-3,-10,15,42
1522257131075032,52,3,3,4,9,16,11,7
1522257131075032,-25,-3,-2,1,-1,-5,-6,-4
1522257131077038,-18,3,-2,-1,-7,-1,-2,-2
1522257131077038,12,3,-1,-1,0,-4,-9,-11
1522257131098094,8,-1,-2,0,-1,5,4,11
1522257131098094,-5,-4,-3,-2,-2,-4,-3,-13
1522257131100099,26,3,-1,-1,2,9,-2,29
1522257131100099,-19,-4,-3,-1,-3,-8,-8,-19
1522257131111128,6,-12,-3,2,-1,-5,6,-17
1522257131111128,16,12,4,3,-2,-4,-6,-6
1522257131120152,-27,-2,1,4,5,8,8,-3
1522257131120152,48,3,-5,-4,-6,-3,-4,27
1522257131135192,-5,-5,-2,-3,-2,-4,7,25
1522257131135192,-33,-5,-7,-6,-3,-2,-12,-42
1522257131137198,26,1,0,-3,4,6,-1,6
1522257131137198,-67,20,7,-2,-5,-7,-2,-23
1522257131158253,48,4,4,2,1,2,4,26
1522257131158253,-28,-13,-9,-3,-3,-3,5,14
1522257131159256,24,-4,-8,-1,-4,-18,-10,-16
1522257131159256,-18,-9,-4,3,12,20,2,-27
1522257131171288,23,4,5,3,10,1,10,34
1522257131171288,-14,-6,2,1,-7,0,3,8
1522257131180312,19,3,-4,-4,-5,-7,-14,-18
1522257131180312,-7,7,0,1,-3,-3,-1,16
1522257131194350,-28,-16,-4,-2,-3,2,-7,-18
1522257131194350,-39,8,7,2,8,3,7,8
1522257131201368,6,0,4,1,-2,-2,15,23
1522257131201368,9,6,1,0,2,-4,0,-23
1522257131218413,45,-3,-6,-2,2,-6,3,20
1522257131218413,32,7,0,-1,1,11,0,4
1522257131219419,-25,8,1,1,0,1,-4,-3
1522257131219419,-24,-13,-8,-5,-2,-1,-3,-29
1522257131231448,38,0,1,0,-4,-3,16,49
1522257131231448,-45,-13,-5,-5,-7,-6,-25,-64
1522257131240473,-10,5,3,2,8,13,6,18
1522257131240473,69,11,6,2,5,8,4,2
1522257131254509,-31,-14,-6,-2,-13,-3,-9,-12
1522257131254509,29,12,5,3,4,0,3,20
1522257131261528,33,-6,-6,0,-4,-5,6,6
1522257131261528,-44,-2,1,1,-2,2,-1,3
1522257131277570,39,23,1,-3,-2,-2,-4,14
1522257131277570,-5,-5,-8,-7,-2,-4,-3,-11
1522257131279576,-37,-1,9,0,0,-4,-18,-25
1522257131279576,24,-8,5,0,-1,-5,-3,1
1522257131300632,-20,1,-7,-1,0,4,0,-16
1522257131300632,35,14,9,4,6,3,14,24
1522257131301635,-6,-6,-3,-4,-7,-1,4,17
1522257131301635,8,0,-1,0,-4,-9,-6,-38
1522257131314669,5,3,-2,-1,4,4,15,50
1522257131314669,12,-5,-3,-3,-7,-10,-17,-2
1522257131321688,-22,-6,-1,1,1,7,-5,-29
1522257131321688,13,-4,0,-1,-2,-2,-2,39
1522257131337730,-45,2,-1,2,1,4,-6,-53
1522257131337730,7,-6,-7,-4,-2,5,15,38
1522257131339736,-1,-6,-2,0,-1,0,-8,-11
1522257131339736,-36,-2,-4,-3,-5,-5,1,-46
1522257131360792,39,5,4,0,4,1,12,44
1522257131360792,-25,2,4,4,1,-12,-2,-4
1522257131361795,19,4,-1,0,-1,1,-5,-11
1522257131361795,-13,-17,-2,2,3,2,7,18
1522257131374829,22,7,2,-4,-2,-7,-5,-16
1522257131374829,7,5,3,2,3,10,9,7
1522257131381847,-33,-8,-6,-4,-5,-6,-3,5
1522257131381847,21,-3,-4,1,0,2,18,30
1522257131397890,-1,-10,-3,0,-4,-4,-22,-28
1522257131397890,-70,-4,3,-3,1,1,-22,-50
1522257131399896,49,8,-2,-4,-5,-11,5,17
1522257131399896,-22,-3,-2,-5,2,2,-9,-12
1522257131419949,-17,-10,3,0,0,3,3,-17
1522257131419949,56,1,-4,2,8,6,16,50
1522257131421954,-29,-6,-4,-2,-9,-22,-3,-46
1522257131421954,17,2,0,0,-1,13,-1,-6
1522257131434989,-46,-7,-7,-2,-2,-4,-15,-26
1522257131434989,50,24,-1,-2,-10,-1,2,22
1522257131442007,10,-32,-1,2,5,3,7,27
1522257131442007,-17,16,7,-4,-7,-9,-6,4
1522257131458050,3,0,2,-2,1,2,-3,-6
1522257131458050,14,-6,2,4,5,-2,11,21
1522257131460056,55,14,3,5,3,9,14,14
1522257131460056,-41,-11,-8,-3,-3,-34,-15,0
1522257131480109,-17,-9,-6,-4,3,39,-12,-21
1522257131480109,-19,-8,-3,-2,-2,-14,-16,-51
1522257131482114,52,7,-3,-3,0,8,10,26
1522257131482114,39,-2,5,-3,3,-4,5,13
1522257131495149,-20,2,1,-2,-6,-16,5,-8
1522257131495149,-2,-9,-6,-2,0,5,6,18
1522257131502168,6,-6,-2,-3,3,10,11,60
1522257131502168,17,31,3,2,-3,-2,-27,-87
1522257131518210,-9,-17,-10,-4,-4,-21,-8,1
1522257131518210,-35,-11,-1,0,-2,23,3,-3
1522257131519213,-100,9,4,1,7,-6,-11,-38
1522257131519213,-30,-5,-6,-2,-10,7,8,20
1522257131540269,29,11,3,0,-7,-8,5,10
1522257131540269,41,5,2,0,-1,-8,1,6
1522257131542275,-19,-10,-3,-5,-2,1,-7,-10
1522257131542275,31,2,3,0,5,7,9,21
1522257131554306,-18,-5,-3,-1,2,-3,-9,-21
1522257131554306,-4,-7,-2,1,-2,-6,-3,16
1522257131563330,17,10,2,2,-2,-4,-2,13
1522257131563330,-93,-27,-14,-10,-8,6,-14,-66
1522257131578370,59,3,0,-2,-1,-2,2,-6
1522257131578370,-35,-30,-7,-2,-1,1,4,-4
1522257131579373,-1,6,3,-1,-4,-1,0,13
1522257131579373,12,-6,1,-2,-4,-8,-1,-1
1522257131600428,-10,4,3,3,2,2,2,6
1522257131600428,15,7,-3,1,3,2,5,1
1522257131602434,12,-7,-4,-5,-7,-7,-12,-28
1522257131602434,13,3,3,5,-2,3,8,44
1522257131614466,-12,5,6,2,0,-10,0,-24
1522257131614466,110,11,8,2,15,-37,5,14
1522257131623490,-105,-3,-14,-12,-49,58,-30,-83
1522257131623490,-26,-15,-4,2,33,8,3,22
1522257131637527,-23,-3,2,-2,2,-2,6,9
1522257131637527,17,-2,-2,-5,-16,-9,3,10
1522257131639534,32,7,3,2,1,-18,10,19
1522257131639534,38,10,1,2,-10,1,-3,2
1522257131660588,-6,-6,-2,1,-1,14,-1,11
1522257131660588,-3,3,-1,-1,3,2,-5,-9
1522257131662594,14,-2,4,3,21,-4,2,-5
1522257131662594,-36,-4,-1,1,-7,1,8,0
1522257131673623,-6,-4,2,-1,-6,3,7,59
1522257131673623,-3,0,-1,-1,-7,-10,-8,-69
1522257131682647,26,-6,-6,-6,0,-6,-14,12
1522257131682647,59,2,-3,-1,3,-8,-4,23
1522257131697687,-40,-3,-1,0,-3,0,-2,-12
1522257131697687,-22,0,-5,-1,-3,11,0,1
1522257131699693,36,12,8,6,10,-2,12,34
1522257131699693,13,5,1,1,1,-3,6,-13
1522257131720748,49,0,-3,0,-1,1,8,62
1522257131720748,-24,-4,0,0,-6,-17,-17,-60
1522257131721751,-66,-4,-4,-4,12,10,-7,-25
1522257131721751,26,-2,1,-1,1,15,7,22
1522257131733783,-39,-1,-3,-4,-1,5,-10,-44
1522257131733783,8,4,4,2,-4,6,12,60
1522257131742807,9,-3,0,0,-7,-17,-21,-25
1522257131742807,-54,-5,-1,-2,-15,-3,-2,-16
1522257131757847,24,-2,1,2,7,-1,3,-1
1522257131757847,-11,-9,-6,1,5,8,-5,8
1522257131759852,13,18,6,1,1,-9,11,9
1522257131759852,38,-4,1,1,3,0,-5,27
1522257131780908,41,2,-2,0,-3,-17,7,2
1522257131780908,-109,-16,-8,-7,-3,18,-16,-49
1522257131781913,4,-3,-4,-1,1,-5,12,10
1522257131781913,5,-3,1,0,-2,-5,-1,8
1522257131793943,-8,1,-1,-7,-10,-16,-3,7
1522257131793943,44,3,3,2,11,22,-1,2
1522257131802967,12,-5,-3,2,8,2,6,0
1522257131802967,-48,-4,-2,-2,-18,-6,2,-3
1522257131818007,-5,5,3,3,0,5,9,23
1522257131818007,-8,6,-3,-5,-9,-10,-18,-19
1522257131820012,-4,0,-4,-3,2,-10,6,33
1522257131820012,3,-14,3,3,4,7,-16,-39
1522257131840065,20,27,0,-1,-2,13,6,6
1522257131840065,-23,-12,-4,-3,7,0,11,36
1522257131842071,23,3,4,5,3,6,18,16
1522257131842071,8,1,2,1,-7,-15,-14,-11
1522257131854103,-19,-18,-2,1,0,1,-5,-43
1522257131854103,71,51,23,8,8,8,7,24
1522257131863127,-32,-18,-7,-4,2,-8,-5,-6
1522257131863127,-2,-4,-8,-6,-26,-26,2,11
1522257131878167,-27,-21,-9,-6,12,26,-7,-22
1522257131878167,25,-3,-3,0,-5,-4,1,12
1522257131879169,29,3,4,5,5,10,13,70
1522257131879169,35,21,-2,0,3,-15,-12,-70
1522257131900226,-11,-21,-8,-7,-7,-15,-11,-33
1522257131900226,-32,-14,-4,-4,-3,36,-2,-7
1522257131902231,-14,-4,-1,1,-2,-18,-12,-21
1522257131902231,6,-1,-3,-4,5,5,8,42
1522257131914263,72,21,10,3,4,-42,34,80
1522257131914263,-18,-22,-9,-7,-49,15,-2,-28
1522257131923287,56,13,-4,-4,16,7,-39,-32
1522257131923287,31,-7,-8,-3,-2,11,12,57
1522257131938327,-62,-2,-4,-4,2,2,-18,-52
1522257131938327,35,19,16,9,3,-21,25,82
1522257131939330,-2,10,8,2,-4,-6,1,-26
1522257131939330,-51,-14,-3,0,-1,4,-12,-52
1522257131960385,-27,-30,-14,-5,-9,-6,-17,-28
1522257131960385,19,22,5,0,7,-7,9,20
1522257131962390,-36,6,5,0,-7,6,10,-24
1522257131962390,10,7,2,1,18,10,10,51
1522257131982444,50,16,10,9,1,6,-2,-3
1522257131982444,-58,-29,-17,-4,10,-7,-2,-8
1522257131983447,-35,-18,-9,-7,-7,-9,-34,-28
1522257131983447,22,8,6,0,-12,-10,14,59
1522257131997484,10,0,0,0,-5,13,-2,-16
1522257131997484,47,9,5,-8,-8,-34,26,41
1522257131998486,-7,16,4,13,2,54,24,89
1522257131998486,-89,-37,-22,-14,-5,-25,-52,-104
1522257132019543,23,8,-1,4,2,6,-18,24
1522257132019543,-53,-17,-5,-2,16,-16,-29,-32
1522257132020546,9,17,7,-5,-20,-17,24,33
1522257132020546,44,3,12,4,2,9,7,-8
1522257132042604,55,12,2,5,11,7,23,33
1522257132042604,-15,-23,-10,-4,-13,-4,4,8
1522257132042604,6,-14,-20,-10,-6,-14,-21,-47
1522257132042604,12,19,13,4,8,16,4,-8
1522257132056641,-29,-6,6,-4,-1,-7,-3,11
1522257132056641,35,5,7,7,11,13,2,19
1522257132064662,26,-8,-7,-2,-6,-13,-5,-30
1522257132064662,-6,-3,-7,-3,7,2,6,25
1522257132079702,-15,-27,-10,-4,-11,-3,1,11
1522257132079702,-30,25,-1,3,3,7,-13,-49
1522257132080705,7,-4,7,-2,4,-2,23,29
1522257132080705,56,12,6,2,10,-42,25,47
1522257132102764,-61,-16,-14,-15,-82,26,-50,-122
1522257132102764,-12,-6,-5,-2,8,11,-18,42
1522257132102764,-11,-18,-7,-6,-12,-12,-21,-56
1522257132102764,1,2,1,5,25,16,16,21
1522257132116801,39,9,8,6,15,-12,33,69
1522257132116801,-26,3,-4,-2,-5,-11,-15,-54
1522257132117804,34,-1,1,0,-11,5,15,15
1522257132117804,-63,3,-1,-1,-13,1,-8,-10
1522257132139862,-23,-4,-6,-5,8,-12,-14,-50
1522257132139862,35,-5,0,0,-4,11,15,19
1522257132140865,-50,-8,2,5,15,-4,-2,2
1522257132140865,-14,-7,-3,0,-7,6,-11,-17
1522257132161921,57,15,12,9,21,5,10,42
1522257132161921,9,-3,4,3,1,-15,10,-16
1522257132162924,32,-3,1,4,11,20,0,54
1522257132162924,30,0,-4,1,2,8,4,19
1522257132176961,-69,-12,-6,-5,0,-11,-28,-62
1522257132176961,71,8,6,1,-4,-16,9,25
1522257132184982,16,11,5,-1,-13,-19,3,10
1522257132184982,17,15,4,2,7,40,49,102
1522257132200022,-49,-14,-19,-13,-28,7,-49,-52
1522257132200022,-57,-16,-4,1,27,-1,-33,-88
1522257132201025,-4,0,-3,-2,0,-1,0,34
1522257132201025,99,8,3,1,-3,-1,8,15
1522257132222080,-20,30,10,8,7,-30,40,86
1522257132222080,-62,-18,-14,-6,-8,29,-22,-71
1522257132223084,-10,-9,0,-4,-6,-1,4,14
1522257132223084,19,-6,0,-2,-4,-12,-12,-24
1522257132236118,42,12,11,9,21,19,31,70
1522257132236118,-65,-17,-8,-7,-3,-5,-31,-66
1522257132245142,69,19,8,6,13,0,11,71
1522257132245142,-128,-18,-8,-4,-14,-11,-27,-65
1522257132260182,43,9,1,1,10,4,-4,2
1522257132260182,48,17,6,2,-8,-4,24,63
1522257132260182,20,-3,1,-3,-5,4,-3,-35
1522257132260182,7,-12,-1,-4,4,-10,-1,2
1522257132282240,5,-1,-1,1,-35,-6,8,3
1522257132282240,14,0,-2,-3,0,-24,-23,-43
1522257132283243,-86,-4,-5,-2,-2,5,0,-2
1522257132283243,35,4,1,0,11,8,13,61
1522257132296278,24,-2,-3,-7,2,-4,5,0
1522257132296278,19,3,5,5,1,1,40,80
1522257132305302,-55,-2,-12,-6,-6,-10,-67,-128
1522257132305302,-94,-23,-7,-9,-30,-12,-6,5
1522257132319339,18,4,1,1,12,1,9,30
1522257132319339,-20,-2,0,1,-1,6,10,20
1522257132320342,11,2,2,1,8,-3,18,4
1522257132320342,18,4,-1,3,6,7,-14,-34
1522257132350422,18,-5,0,1,7,-8,10,-2
1522257132350422,38,3,0,2,9,15,2,25
1522257132351425,-39,-5,-2,-1,-6,-6,10,12
1522257132351425,-42,1,2,4,0,11,12,-12
1522257132356438,20,-7,-8,-8,0,-9,-39,-63
1522257132356438,76,-1,-1,-3,-9,-5,-8,37
1522257132364459,-42,5,2,3,2,4,8,10
1522257132364459,-13,0,-4,-5,-2,-6,-2,3
1522257132379499,25,6,-4,-4,3,-6,12,-9
1522257132379499,29,2,-2,0,0,2,7,40
1522257132380502,-27,-13,-7,-3,-1,0,-7,-56
1522257132380502,-13,-4,7,-2,0,-7,-19,-38
1522257132402560,12,8,8,5,6,10,13,27
1522257132402560,28,3,-3,-3,-7,-15,0,35
1522257132403563,71,-4,-7,-2,3,16,7,-4
1522257132403563,-37,-2,-7,-1,-8,-6,-2,9
1522257132416598,-32,-4,-6,-4,3,6,-15,-37
1522257132416598,-29,-5,12,5,3,2,11,15
1522257132424619,51,-3,1,2,2,-6,10,48
1522257132424619,-15,4,2,4,2,8,-10,-115
1522257132439659,-9,-9,-5,3,-3,-17,-34,30
1522257132439659,58,16,3,3,1,7,11,46
1522257132440662,-65,2,5,0,-1,11,8,-23
1522257132440662,56,2,-4,-1,-3,-3,2,91
1522257132462720,-53,1,4,3,4,0,17,-63
1522257132462720,-6,7,-6,-12,-1,3,-2,-6
1522257132462720,-11,-5,9,4,4,-5,-17,3
1522257132462720,39,14,6,6,-1,-14,-1,-1
1522257132476757,-8,-8,-3,1,10,30,6,16
1522257132476757,-18,0,-2,1,-2,-4,6,2
1522257132484779,52,16,-1,-5,-2,-7,3,8
1522257132484779,-33,-15,-3,0,1,3,-4,2
1522257132499819,5,2,-1,-1,-8,-11,5,18
1522257132499819,-57,-14,0,-2,-3,3,-17,-79
1522257132500822,44,9,-1,0,3,2,12,31
1522257132500822,61,0,3,0,2,5,2,12
1522257132521877,-71,-7,-6,-4,-7,-14,-5,-12
1522257132521877,27,-3,4,2,8,25,11,-39
1522257132522880,-48,0,4,-1,-3,-6,-15,18
1522257132522880,43,-3,-3,-1,-4,-5,-14,-1
1522257132536917,19,10,6,3,5,6,12,28
1522257132536917,-10,-6,-10,-2,-4,-5,7,20
1522257132544938,-7,-2,-4,-3,-3,-8,-10,-39
1522257132544938,-12,3,-3,0,3,7,-1,-25
1522257132559979,18,-8,-6,-1,2,4,12,36
1522257132559979,-14,1,0,-3,-1,-12,-12,-10
1522257132560981,2,2,2,0,-6,-8,5,-2
1522257132560981,53,5,-4,-2,2,16,5,0
1522257132582037,-22,1,-2,-2,-6,-7,-14,-31
1522257132582037,-42,-24,-14,-8,-10,-7,-15,-24
1522257132583040,-4,-14,-2,-2,-4,-4,6,22
1522257132583040,-6,4,2,-1,0,-7,-3,-40
1522257132605098,17,6,4,0,9,5,13,20
1522257132605098,15,9,3,-1,1,-2,-7,6
1522257132606101,0,-9,-6,-1,-3,-3,1,8
1522257132606101,12,6,-6,-1,-6,0,2,32
1522257132620139,37,13,12,7,3,9,9,29
1522257132620139,-48,21,1,-1,1,4,23,73
1522257132620139,-4,-2,-7,-6,-1,-12,-29,-82
1522257132620139,-75,-29,-6,-7,-19,-18,-14,-22
1522257132642197,-2,-7,-3,-4,8,-19,-34,-69
1522257132642197,-5,-8,0,4,1,4,12,21
1522257132643200,13,8,4,0,5,30,16,27
1522257132643200,29,11,-5,-5,-3,-10,13,32
1522257132665258,-21,-6,-5,-5,-3,17,2,-11
1522257132665258,18,0,-1,3,-4,-8,-8,-16
1522257132666261,33,21,7,5,0,-2,4,17
1522257132666261,60,2,9,6,4,7,35,105
1522257132679296,-22,-11,-6,-5,-5,-3,-36,-70
1522257132679296,-38,-5,-5,-2,2,-5,-13,-11
1522257132680298,-83,-19,-12,-4,0,1,-2,40
1522257132680298,-4,-1,-6,-1,5,-5,-16,9
1522257132702357,16,6,6,-1,-5,2,27,47
1522257132702357,14,-4,2,1,0,4,-6,-38
1522257132703360,34,-13,-4,-4,-5,-10,-5,14
1522257132703360,-2,24,4,1,8,6,5,-17
1522257132724416,-4,-5,4,4,4,3,5,18
1522257132724416,17,9,5,3,-1,-24,22,81
1522257132725418,3,8,-7,-5,-6,28,-12,-67
1522257132725418,12,-19,-4,-8,5,5,-31,-4
1522257132739456,45,0,3,1,-5,-2,1,59
1522257132739456,9,-5,-4,-3,-5,6,-12,1
1522257132740459,50,13,10,9,-1,-11,29,33
1522257132740459,-34,2,2,0,-5,-2,3,-40
1522257132762517,-33,-4,-4,-7,1,-2,2,-10
1522257132762517,17,10,6,0,4,0,10,-18
1522257132763520,27,0,-8,-1,1,-11,-10,11
1522257132763520,31,11,1,4,1,2,-5,6
1522257132784576,-18,-27,-6,0,-4,-9,5,-8
1522257132784576,-20,-5,-4,-1,-7,-24,-26,12
1522257132785578,33,-9,1,2,8,26,-7,-29
1522257132785578,-59,-7,0,0,1,-4,-2,-23
1522257132799615,8,1,-1,2,1,7,16,29
1522257132799615,15,6,5,2,0,11,1,-12
1522257132800618,-30,3,-1,-3,-7,-22,6,17
1522257132800618,28,-6,-4,-1,2,4,-11,31
1522257132822677,-17,5,-8,0,3,2,-18,-68
1522257132822677,10,-3,2,-5,0,2,-4,-15
1522257132822677,-11,4,16,-2,-8,-8,-3,5
1522257132822677,-12,-3,2,0,2,3,15,10
1522257132844735,27,4,2,2,0,-7,5,11
1522257132844735,-43,-9,-13,-2,-3,-1,-24,-30
1522257132845738,47,5,-2,0,-7,-40,4,8
1522257132845738,9,5,0,2,1,32,3,3
1522257132859776,-25,-11,-8,-10,6,9,-29,-37
1522257132859776,37,9,3,0,-25,11,26,35
1522257132860778,-7,-10,-5,-2,14,-4,-2,19
1522257132860778,30,2,1,3,-1,-14,6,-27
1522257132881834,-35,3,0,2,-1,-4,13,-3
1522257132881834,18,3,-4,-3,5,10,3,11
1522257132882837,-23,-10,-4,-6,-9,8,-11,-42
1522257132882837,-41,-2,-1,-5,-6,-11,-9,-16
1522257132904895,32,1,3,4,9,12,14,59
1522257132904895,-4,-3,1,0,10,-12,-10,-27
1522257132905898,-39,0,0,6,1,-5,-9,1
1522257132905898,17,-3,-1,-2,-18,-5,4,4
1522257132919935,64,6,2,-2,-5,11,22,48
1522257132919935,-107,-10,-10,-7,-6,-17,-30,-88
1522257132920938,53,5,4,0,6,14,1,29
1522257132920938,-36,-13,-5,-4,-1,-5,-4,-8
1522257132941994,38,21,9,6,1,-2,9,62
1522257132941994,-61,-19,-10,-5,-7,-14,-13,-76
1522257132950015,-16,3,-2,0,11,10,2,9
1522257132950015,-2,3,3,-3,-11,-35,13,29
1522257132965055,-30,-9,-4,-5,8,46,-19,-62
1522257132965055,58,8,2,6,13,-2,21,60
1522257132966058,-22,-5,-6,-1,-3,-4,-11,-30
1522257132966058,-12,0,-1,2,-1,-2,-3,5
1522257132980095,32,0,-4,-6,-7,-30,-2,2
1522257132980095,-9,8,8,4,4,23,10,4
1522257132981098,-9,3,-1,-4,-3,2,5,10
1522257132981098,17,-7,-2,-3,-6,0,3,19
1522257133002154,-12,-2,-5,-3,-13,-11,-23,-34
1522257133002154,44,-2,-1,1,2,8,14,72
1522257133003157,-81,0,4,4,2,-7,-8,-63
1522257133003157,-26,-5,-1,1,11,4,-7,-31
1522257133025215,27,-2,5,4,4,-16,8,39
1522257133025215,-25,1,6,-1,-3,4,3,-3
1522257133025215,94,14,4,1,1,20,20,88
1522257133025215,-95,-13,-4,-2,-5,-5,-18,-107
1522257133040255,2,-9,-1,-2,-12,-27,-5,63
1522257133040255,15,-11,-8,-6,3,14,-13,-53
1522257133040255,14,-5,0,3,-1,6,6,11
1522257133040255,18,4,-3,-5,4,7,-3,2
1522257133062313,-35,5,-1,-3,5,-7,-7,-24
1522257133062313,24,7,2,-6,-9,-7,7,31
1522257133063317,-19,-7,-1,-1,-3,-6,-10,-5
1522257133063317,38,-2,-1,1,6,2,-7,-19
1522257133084372,-31,-1,1,2,7,3,12,-24
1522257133084372,18,-4,0,-2,-14,-2,1,29
1522257133085375,-37,-2,-4,-9,-4,-9,-8,-12
1522257133085375,53,4,4,5,4,0,0,35
1522257133099413,-27,-8,-2,0,-1,8,1,-20
1522257133099413,2,5,-13,0,0,1,-4,-8
1522257133100415,37,2,15,2,3,-3,-2,4
1522257133100415,-54,-9,-1,-1,1,4,3,-8
1522257133122473,33,3,0,1,-3,-3,0,4
1522257133122473,-32,-16,-6,-1,5,-12,-7,-17
1522257133123476,20,6,-10,0,-21,-27,2,7
1522257133123476,57,19,1,4,25,37,8,15
1522257133144532,-16,-16,0,0,23,4,-7,-27
1522257133144532,-24,-6,2,-1,1,2,10,12
1522257133145535,16,-3,-3,-3,0,-7,-14,-25
1522257133145535,-33,1,0,-4,-6,-10,-4,6
1522257133159572,54,1,-6,-1,-9,-7,10,34
1522257133159572,7,21,-3,0,7,17,1,-44
1522257133160575,52,-9,14,8,2,9,5,34
1522257133160575,-12,14,17,6,-5,-1,-11,-20
1522257133182633,-11,7,-1,-6,-13,-1,-1,12
1522257133182633,-3,-14,5,-5,-19,-19,-9,-4
1522257133182633,-28,-4,-4,0,-1,0,25,-1
1522257133182633,0,0,-8,-2,9,-3,8,45
1522257133204692,37,4,-1,-1,-25,-12,11,48
1522257133204692,25,8,-7,3,14,-9,-32,-98
1522257133205695,-59,-19,-14,-5,9,39,-10,-15
1522257133205695,3,-5,-3,-6,-18,-12,12,18
1522257133219732,-49,0,0,-2,3,-2,-9,-17
1522257133219732,35,-6,-4,-3,-1,0,14,54
1522257133220735,-15,4,0,-5,0,-10,1,-4
1522257133220735,38,-9,-6,-8,-2,-3,-14,-37
1522257133242793,-20,2,-1,-4,-8,8,-2,-6
1522257133242793,10,20,9,3,-2,-9,0,9
1522257133242793,-28,7,2,1,8,4,-21,-25
1522257133242793,-6,-17,-6,2,-7,-3,-4,4
1522257133264852,-1,-7,-7,3,0,-2,-10,-2
1522257133264852,21,8,8,1,8,8,14,55
1522257133265855,56,-13,-6,-3,-7,-11,6,8
1522257133265855,-30,1,-2,-3,-1,-3,-4,-25
1522257133279892,17,-17,4,4,1,3,-5,-32
1522257133279892,-56,3,-1,5,-1,-2,-4,17
1522257133280895,20,7,4,-3,-6,-9,0,20
1522257133280895,49,-1,-5,-1,-2,0,13,46
1522257133301950,-85,-3,-5,-2,3,-3,-12,-59
1522257133301950,2,-6,1,-6,-3,3,1,-30
1522257133302953,26,7,-3,2,-6,-2,-1,4
1522257133302953,-22,-7,-3,0,1,-5,-6,-11
1522257133325012,23,16,3,-2,-1,-4,4,37
1522257133325012,12,-1,-1,-2,0,13,9,-6
1522257133326014,-92,-8,-9,-7,4,-3,-13,-9
1522257133326014,11,-8,1,-1,-6,1,-6,3
1522257133339050,-27,3,2,-7,-5,3,2,12
1522257133339050,-1,-6,-4,-2,-6,-7,0,-3
1522257133347070,12,8,5,3,0,-1,5,6
1522257133347070,45,17,1,3,5,5,0,9
1522257133362110,1,-5,4,5,6,-4,21,44
1522257133362110,41,-6,0,-1,4,-7,-19,-38
1522257133363113,-26,-4,-9,-5,-4,-7,-22,-53
1522257133363113,29,-6,-1,-2,2,4,0,47
1522257133385172,-8,-6,-6,-3,2,1,-17,-69
1522257133385172,4,-2,6,2,-1,-1,3,24
1522257133385172,-9,-1,1,4,-9,-15,10,-20
1522257133385172,8,4,-3,0,-10,6,-7,13
1522257133399209,12,1,1,-2,7,5,11,18
1522257133399209,20,-6,-1,2,3,15,3,19
1522257133407230,49,28,4,-1,3,-2,0,2
1522257133407230,-45,-18,-5,-2,3,-18,9,13
1522257133422270,30,3,0,0,6,6,7,40
1522257133422270,-117,-21,-12,-9,-17,-3,-43,-102
1522257133423274,89,2,1,-2,-6,-5,5,47
1522257133423274,-3,6,0,1,1,-1,9,-6
1522257133444329,-3,-1,-4,-3,-10,-11,-7,-17
1522257133444329,23,-3,-4,-2,1,-3,16,53
1522257133445331,-18,-8,7,4,0,7,-4,-8
1522257133445331,-22,-2,7,2,5,4,5,-3
1522257133459372,49,-6,2,0,-3,-13,-3,-5
1522257133459372,-30,2,1,0,9,16,6,30
1522257133467390,19,-1,-2,-1,-3,5,14,-18
1522257133467390,-23,-15,-20,-6,-5,-6,-5,-20
1522257133482430,16,4,-2,-1,-9,0,-25,-11
1522257133482430,36,9,4,-1,-2,-8,3,19
1522257133483433,32,0,0,-3,2,6,16,38
1522257133483433,-11,9,8,2,7,-1,6,36
1522257133504489,-44,-13,-12,-5,-5,-7,-10,-93
1522257133504489,8,10,-1,-1,8,6,-9,-7
1522257133505492,-5,-2,0,0,3,3,5,4
1522257133505492,-44,-4,4,-4,-4,-2,-3,-21
1522257133519529,43,15,6,5,2,-10,12,65
1522257133519529,-9,-1,0,-2,-32,6,-2,7
1522257133527550,-99,-13,-10,-2,33,-1,-30,-67
1522257133527550,56,8,0,0,0,-4,-4,-34
1522257133542590,49,-3,-1,-7,-10,7,13,48
1522257133542590,-25,0,5,13,27,-9,13,21
1522257133542590,28,-12,-5,-1,-7,0,12,41
1522257133542590,-19,-3,-7,-6,-12,-4,-30,-70
1522257133564649,26,14,10,-1,6,-34,-6,12
1522257133564649,-45,-17,-8,-1,-15,17,16,12
1522257133565651,-32,0,3,-2,-6,7,-6,-10
1522257133565651,2,-3,1,2,14,0,4,12
1522257133578687,-10,0,0,-1,-12,11,-8,-34
1522257133578687,88,23,7,-1,-1,-22,8,46
1522257133587710,-41,-1,2,2,11,-9,4,8
1522257133587710,49,-7,1,0,-12,29,18,49
1522257133602750,-53,-8,-10,-4,-20,-19,-22,-87
1522257133602750,-16,0,-9,-4,-6,-10,-6,-26
1522257133602750,24,7,6,2,2,-2,6,20
1522257133602750,-7,5,-2,-5,2,-13,-10,-40
1522257133624808,-33,-1,0,6,15,27,18,68
1522257133624808,47,-22,-12,-10,-1,-8,-32,-61
1522257133625811,5,-8,-2,-5,-16,1,-2,0
1522257133625811,-20,-11,5,-2,-3,-4,8,19
1522257133638846,-35,-10,3,0,8,10,-3,-15
1522257133638846,21,8,3,0,-3,-5,11,26
1522257133646867,35,4,-2,3,-2,-2,-10,13
1522257133646867,13,3,1,6,2,-14,-12,-58
1522257133661907,-15,4,-12,-6,1,15,-3,23
1522257133661907,-12,6,1,1,6,-6,14,26
1522257133662910,24,3,-1,-3,-10,6,8,-12
1522257133662910,8,-9,-7,-3,3,8,3,6
1522257133684968,29,-5,0,-2,-6,-9,-13,-45
1522257133684968,-21,6,-2,0,-2,2,4,21
1522257133685971,-15,-5,-1,3,1,0,2,21
1522257133685971,7,9,5,2,-5,-7,-3,-25
1522257133699007,-15,-11,7,0,3,0,12,23
1522257133699007,-1,-5,1,-1,0,1,-5,11
1522257133707027,-13,-2,-2,-5,-2,-3,2,25
1522257133707027,2,6,-2,-1,1,4,-13,-41
1522257133722067,6,3,-2,3,8,6,-9,0
1522257133722067,33,0,3,4,2,-17,-3,-8
1522257133723070,-21,-10,-4,-1,0,21,5,-7
1522257133723070,34,37,2,0,4,3,5,34
1522257133745128,-31,-16,1,0,-4,3,0,-14
1522257133745128,-36,-5,-3,-6,-11,-6,-18,-45
1522257133745128,68,2,1,0,-3,-6,3,21
1522257133745128,-25,-10,-2,0,-1,-1,1,6
1522257133768190,-40,-7,-4,1,8,-9,3,4
1522257133768190,85,9,-2,-4,2,6,-6,9
1522257133769192,-67,-3,-1,4,7,-11,-4,-12
1522257133769192,23,3,0,0,-12,21,10,19
1522257133782227,0,2,-2,-1,7,-2,-6,-17
1522257133782227,-41,0,4,5,-8,-2,8,10
1522257133783229,29,1,-4,-6,-10,-27,-6,-18
1522257133783229,-30,-2,-1,1,1,-20,7,37
1522257133805288,21,-3,-4,-1,22,46,23,25
1522257133805288,20,9,-10,-6,-10,-14,-20,-16
1522257133805288,-41,12,9,5,3,12,-7,-31
1522257133805288,69,1,10,3,-1,-12,-7,1
1522257133828350,-78,22,7,0,-12,-15,0,-10
1522257133828350,-17,-30,-5,1,16,12,15,24
1522257133828350,45,1,-9,-7,-6,-6,1,1
1522257133828350,-57,-6,-3,-3,2,-3,5,10
1522257133842387,25,1,3,2,-3,9,-5,0
1522257133842387,-5,2,-3,-6,-1,3,-16,-26
1522257133843390,-38,0,-4,-4,-8,-7,-14,-29
1522257133843390,23,-2,-4,-1,4,1,3,14
1522257133864445,18,-13,-9,-2,10,7,14,16
1522257133864445,-3,5,-2,1,-14,-16,16,26
1522257133865448,-1,-11,-2,2,3,20,-7,-52
1522257133865448,-16,-3,-3,1,8,2,-1,-3
1522257133887507,-3,10,4,0,-15,-12,-5,8
1522257133887507,16,3,1,-5,4,-7,-5,-7
1522257133888509,32,19,8,4,-2,3,10,58
1522257133888509,10,-3,-3,1,-2,7,4,-17
1522257133902547,-83,-19,-14,-5,-8,-17,-27,-43
1522257133902547,-16,7,6,-3,15,15,9,6
1522257133903550,12,-2,6,-4,-12,-2,3,2
1522257133903550,-7,-16,-1,-2,5,1,-12,-12
1522257133924605,62,8,-2,1,-2,-3,10,0
1522257133924605,5,3,1,5,0,1,-4,1
1522257133925608,-46,-14,-8,3,6,0,-6,-16
1522257133925608,7,6,0,1,-3,-3,14,40
1522257133947666,73,6,-5,-2,-7,-13,2,23
1522257133947666,-72,-1,2,-1,-3,14,-12,-60
1522257133947666,44,-6,1,-3,-1,-20,2,58
1522257133947666,-53,-16,-7,-10,-6,21,-29,-98
1522257133962706,10,2,-1,-2,-2,-1,2,48
1522257133962706,-3,9,6,1,4,-1,6,-4
1522257133962706,-11,0,-1,-4,-9,-6,1,8
1522257133962706,7,0,-5,-1,-1,-7,0,9
1522257133984765,11,-4,3,-2,0,1,5,3
1522257133984765,8,6,-3,-3,-3,-10,-4,-23
1522257133985768,74,4,0,-1,8,2,16,70
1522257133985768,-86,-10,-2,-3,-1,-2,-32,-81
1522257134007826,-49,-18,-15,-7,-5,-5,-31,-44
1522257134007826,-2,-3,3,-1,-7,-4,2,54
1522257134014845,0,-6,-3,1,-2,6,2,-20
1522257134014845,1,15,8,4,0,-2,26,56
1522257134021864,19,-2,5,2,-1,2,-1,2
1522257134021864,10,-2,-4,-2,8,4,-7,-25
1522257134022867,-20,7,-5,-1,-7,-1,11,10
1522257134022867,2,-4,-4,-1,-3,-2,-1,13
1522257134044925,34,21,10,1,7,11,10,30
1522257134044925,-45,-16,-8,-3,0,-7,-17,-48
1522257134045928,-80,-2,0,0,2,10,-19,-62
1522257134045928,30,-1,0,-3,4,-21,-2,14
1522257134066984,4,9,8,-1,-27,-11,21,37
1522257134066984,-20,-5,-2,5,39,31,1,-23
1522257134067986,24,-23,-8,-3,5,-4,-5,-8
1522257134067986,17,10,-5,1,3,5,13,16
1522257134082024,1,-15,3,2,10,-4,-1,8
1522257134082024,45,18,7,-9,-37,-35,10,62
1522257134083026,-80,-10,-3,-3,-34,1,-13,-81
1522257134083026,-51,-29,-11,-3,11,20,-30,-59
1522257134105085,-34,15,-6,1,-3,3,12,20
1522257134105085,47,-8,-2,-2,10,0,3,15
1522257134106087,-53,-8,4,-1,0,-16,8,17
1522257134106087,52,10,-3,-3,-16,-9,7,-22
1522257134127143,60,7,3,5,13,8,-5,-44
1522257134127143,17,29,18,10,-1,0,7,77
1522257134128146,-35,-14,-12,-7,-3,-4,-27,-90
1522257134128146,33,6,9,-1,-19,-4,6,54
1522257134142183,-61,15,15,1,2,2,-13,-61
1522257134142183,67,9,2,3,7,6,10,27
1522257134143186,46,-3,-4,3,17,11,11,29
1522257134143186,30,-7,1,5,1,0,-5,11
1522257134165245,-5,-8,-13,-5,-8,-13,-7,-8
1522257134165245,-1,-1,-4,-3,-16,-20,-5,-11
1522257134165245,-79,1,2,-3,15,21,2,-8
1522257134165245,73,15,3,-1,-1,2,26,72
1522257134187303,2,-8,-9,-12,0,-1,-9,20
1522257134187303,-85,-29,-7,-4,-1,-2,-17,-69
1522257134188306,101,4,-5,0,2,3,18,61
1522257134188306,-119,4,3,-3,4,-14,-20,-20
1522257134202343,46,-6,-3,2,-16,29,6,-34
1522257134202343,0,-4,-6,-1,-5,-11,-2,-27
1522257134203346,-37,-10,1,-2,-5,-4,-11,-10
1522257134203346,104,20,11,1,3,5,22,92
1522257134224402,-74,-30,-10,-2,4,-15,1,11
1522257134224402,-17,-3,3,1,-3,3,-5,-5
1522257134225405,13,14,14,5,4,-4,24,20
1522257134225405,42,-15,-14,-7,-5,-24,-46,-67
1522257134247463,-79,15,-12,-4,-18,-9,-1,16
1522257134247463,57,-3,9,1,1,16,19,32
1522257134248466,-7,1,-2,0,-4,-15,-23,-28
1522257134248466,-50,-9,-5,0,1,-14,7,-23
1522257134262503,93,9,5,1,23,34,5,51
1522257134262503,-23,6,-3,1,-16,-17,-20,-87
1522257134263506,22,14,-2,0,-5,7,2,23
1522257134263506,-91,-24,-4,3,-1,-9,-2,-15
1522257134284562,67,10,5,4,8,-7,9,29
1522257134284562,-35,-10,-4,-1,4,12,5,6
1522257134285565,71,5,4,-1,0,4,19,43
1522257134285565,-25,4,2,5,-5,-9,-13,3
1522257134307623,67,14,3,2,8,4,10,25
1522257134307623,-15,1,-10,-2,0,-13,-5,13
1522257134307623,-85,-23,-5,-5,-4,11,-9,-16
1522257134307623,38,10,-13,-9,-5,-6,4,6
1522257134322663,-23,17,34,10,6,6,4,12
1522257134322663,25,18,1,-1,-2,9,-5,-6
1522257134322663,32,-2,-4,-1,0,-14,11,1
1522257134322663,-21,-4,-1,4,9,22,6,7
1522257134344722,-11,-23,-14,-5,0,-17,-20,-30
1522257134344722,-11,-1,-8,-8,-25,-9,-1,-43
1522257134345725,-25,4,-2,-7,-1,-1,-31,-41
1522257134345725,41,-1,7,5,1,-20,14,15
1522257134367783,35,-5,-1,1,0,31,9,4
1522257134367783,27,-7,1,-3,11,-15,-11,44
1522257134367783,-10,5,4,5,-10,24,3,-24
1522257134367783,101,21,2,-4,-9,27,-4,47
1522257134381820,-122,-26,-3,4,-5,-15,-3,-58
1522257134381820,-28,-5,-3,-5,-1,8,11,9
1522257134382823,63,4,4,-1,2,-10,1,16
1522257134382823,-7,6,9,4,2,-1,-4,6
1522257134404882,28,2,-1,3,2,0,8,6
1522257134404882,-11,-8,-7,-1,-4,2,-4,-14
1522257134405884,57,0,-1,1,0,-12,-11,28
1522257134405884,-78,-12,-6,-6,-1,-3,4,-37
1522257134426940,13,-8,-13,-10,-9,-10,-11,-11
1522257134426940,-25,-1,3,0,3,7,2,-7
1522257134427943,10,9,-2,-4,0,-10,10,5
1522257134427943,-30,-7,-10,-9,-1,3,-20,-18
1522257134441980,9,-9,3,3,-1,-8,-2,-12
1522257134441980,4,13,5,3,2,9,2,32
1522257134442983,13,19,11,8,4,1,8,-1
1522257134442983,4,-1,0,-1,-1,3,23,11
1522257134465041,-25,-3,-12,-1,10,-5,-22,-34
1522257134465041,33,-11,0,0,2,9,16,47
1522257134466044,-22,6,3,-3,-4,0,-9,-15
1522257134466044,68,-3,2,-3,-12,4,18,-2
1522257134487100,-95,-18,-11,-10,-23,-38,-28,-40
1522257134487100,63,9,11,5,12,-2,1,18
1522257134488103,-97,-15,-11,-6,0,15,-9,-26
1522257134488103,-22,-27,-14,-3,0,4,-5,16
1522257134502140,1,25,2,4,5,-2,6,-50
1522257134502140,-26,-23,-2,-3,-11,-9,-12,-14
1522257134510161,44,22,8,5,5,1,19,27
1522257134510161,5,22,11,6,5,2,10,22
1522257134525201,-52,-48,-19,-7,-18,-31,-29,-29
1522257134525201,-37,-8,-6,0,19,30,12,27
1522257134525201,7,6,-6,-1,-3,-7,-8,-29
1522257134525201,-27,-18,-7,-2,6,-12,-13,0
1522257134547260,21,15,5,1,1,26,16,15
1522257134547260,18,5,-1,-6,-11,1,-22,-31
1522257134548263,-5,-5,-7,-9,-5,-25,3,29
1522257134548263,9,21,10,3,5,25,4,-17
1522257134561297,-9,3,15,11,11,2,20,62
1522257134561297,67,29,4,3,-6,-8,2,1
1522257134570321,-10,-20,-12,-8,5,16,-5,13
1522257134570321,-33,-24,-11,-1,-13,-26,-35,-86
1522257134584359,113,48,7,-5,2,2,1,23
1522257134584359,-63,11,12,3,4,-1,9,-5
1522257134585362,14,-13,-8,0,3,2,7,44
1522257134585362,-15,-4,6,-1,-1,-3,-11,-49
1522257134607420,-33,-10,-5,-3,0,11,17,30
1522257134607420,-27,-3,-6,2,-5,-39,-5,-17
1522257134608423,3,1,2,1,-4,29,-28,-44
1522257134608423,-14,-15,-6,-2,1,2,18,40
1522257134621457,22,5,0,-1,-5,4,-4,-1
1522257134621457,-12,-14,-5,0,0,-4,4,10
1522257134629478,-11,5,2,5,-4,-14,3,-4
1522257134629478,77,24,8,6,-1,1,23,85
1522257134644518,-61,-19,-10,-8,13,14,-47,-95
1522257134644518,-15,-7,-9,-14,-11,6,-13,-16
1522257134645521,39,3,4,4,1,-10,-7,5
1522257134645521,-8,11,2,1,1,13,17,24
1522257134667580,24,6,6,3,-4,-6,26,43
1522257134667580,5,18,-1,0,3,8,-22,-16
1522257134668583,-5,-23,-3,-6,0,-1,17,9
1522257134668583,-9,17,8,0,-2,-32,8,56
1522257134681617,-30,1,-3,0,13,33,-24,-81
1522257134681617,21,7,-6,-3,-7,-1,-5,-7
1522257134689638,-28,31,20,5,-1,-8,-4,0
1522257134689638,31,-13,-3,-3,-4,-3,3,-13
1522257134704678,-39,-19,-4,-6,-5,-12,21,21
1522257134704678,0,-7,-3,4,10,16,21,40
1522257134705681,7,-3,-6,2,0,-14,-8,9
1522257134705681,-26,11,0,0,-1,14,-17,-44
1522257134727740,27,-6,0,4,-3,-16,-3,6
1522257134727740,-7,-6,-3,-2,2,-3,-12,14
1522257134727740,21,9,1,1,-11,-8,16,34
1522257134727740,0,2,3,5,7,17,1,-67
1522257134741777,-13,14,4,-4,-6,-8,0,18
1522257134741777,14,-21,-5,-3,-9,-37,-8,-49
1522257134749798,2,-1,-2,1,12,65,14,-13
1522257134749798,1,-7,-1,-1,-1,-31,-8,36
1522257134764838,45,1,2,0,-3,5,-1,13
1522257134764838,-19,-9,-6,-4,-4,-11,14,11
1522257134765841,-22,0,-2,-1,0,-5,-13,-14
1522257134765841,-2,7,1,0,4,18,9,6
1522257134786897,10,-4,-1,-1,0,-21,19,25
1522257134786897,-41,-6,-2,-1,-5,18,-2,34
1522257134787899,-25,-34,-20,-5,-4,-16,-24,-69
1522257134787899,-2,-2,-1,-6,-2,1,-13,-34
1522257134801937,38,-4,-1,0,-1,-7,-3,18
1522257134801937,48,30,16,4,3,12,14,42
1522257134809958,-72,-15,-3,0,-6,-24,-4,-14
1522257134809958,-3,-3,-6,0,8,18,-3,11
1522257134824998,3,-17,-6,1,1,1,12,19
1522257134824998,45,15,5,-22,-5,-1,-6,-8
1522257134826001,-7,8,3,-8,9,1,8,15
1522257134826001,1,4,7,34,5,3,33,84
1522257134847056,-62,-14,-6,20,-3,19,-44,-102
1522257134847056,18,8,5,30,4,-8,3,45
1522257134848059,58,12,2,-4,-1,-17,-1,14
1522257134848059,-17,-14,-7,-15,-10,-5,-7,3
1522257134862097,25,1,-3,-10,5,19,33,44
1522257134862097,4,-10,2,0,-2,5,6,-4
1522257134870118,46,11,4,-5,-4,3,8,58
1522257134870118,-83,-20,-7,-15,-3,-4,-10,-53
1522257134885158,-12,-10,-5,-6,-7,-14,-16,-71
1522257134885158,38,4,-4,-8,-1,-1,-18,-12
1522257134885158,-24,-12,0,0,2,-5,3,-14
1522257134885158,23,5,-1,0,-1,1,2,11
1522257134907216,-15,6,-2,-4,-6,-6,1,56
1522257134907216,-18,-14,-8,0,-1,5,7,-71
1522257134908220,92,5,4,11,-5,-20,21,43
1522257134908220,-89,8,-1,-1,8,30,-21,-15
1522257134930278,11,3,-6,-7,-1,-18,-13,-47
1522257134930278,-59,0,-4,-3,-1,19,-6,-4
1522257134931281,0,2,-3,-4,-4,-4,-25,-67
1522257134931281,62,-1,0,-5,-2,-6,9,21
1522257134945318,30,9,4,0,5,-4,11,65
1522257134945318,-51,-9,-2,1,4,0,10,-14
1522257134945318,-36,-3,-2,-2,0,2,4,-9
1522257134945318,7,-9,-3,-4,-3,-9,3,5
1522257134967377,14,4,4,-1,-6,-5,1,11
1522257134967377,29,-3,-2,3,6,3,3,2
1522257134968379,81,6,0,2,3,12,14,96
1522257134968379,-75,0,-2,0,-5,-40,-68,-105
1522257134990438,3,-20,-10,-8,5,8,-3,51
1522257134990438,19,-9,-1,-6,-3,0,-4,-25
1522257134991441,-19,-8,0,-2,-9,5,8,24
1522257134991441,40,7,6,-3,-5,3,19,10
1522257135004475,-7,5,4,-3,-8,-15,1,1
1522257135004475,-14,-4,-6,-1,1,-1,-1,-4
1522257135005478,-16,4,-2,0,11,8,4,-7
1522257135005478,24,-1,1,5,-3,-6,-11,-22
1522257135027536,37,5,5,6,0,3,11,9
1522257135027536,52,44,12,7,3,7,28,88
1522257135028539,-74,-64,-27,-18,-24,-38,-77,-100
1522257135028539,40,-1,-5,-7,9,12,6,33
1522257135049595,44,2,-1,-7,-7,22,9,-7
1522257135049595,28,4,5,6,12,-15,16,28
1522257135050598,-27,10,2,4,-7,-9,8,-5
1522257135050598,3,-14,-6,-3,-3,-7,2,1
1522257135064635,14,8,2,3,6,-2,1,32
1522257135064635,8,-5,-22,-8,-6,10,-10,-62
1522257135065638,-47,34,49,14,11,12,-4,1
1522257135065638,-9,2,3,-3,-2,2,7,20
1522257135087696,-34,9,4,1,-1,-1,0,-10
1522257135087696,0,-25,-9,-18,-7,-23,-13,8
1522257135087696,-2,-24,-14,12,-6,29,4,-11
1522257135087696,13,17,1,0,8,19,1,-10
1522257135109755,-15,1,6,6,2,-9,3,-18
1522257135109755,-5,4,4,0,-3,-6,-11,8
1522257135110757,64,-2,-9,-10,2,-32,6,31
1522257135110757,-35,-4,0,-1,-3,12,-7,8
1522257135124795,-7,2,-9,-6,0,49,6,17
1522257135124795,25,-23,2,5,-7,-29,-6,-21
1522257135125798,69,19,2,-6,1,15,11,12
1522257135125798,-62,-5,-2,-2,-3,-10,15,20
1522257135147856,-16,-1,2,-5,3,-6,0,31
1522257135147856,-13,-29,-7,1,10,28,-9,-66
1522257135147856,16,30,-8,0,-13,-12,0,19
1522257135147856,-36,-4,19,7,2,-9,-17,-45
1522257135169915,25,-3,-2,2,-7,-12,-2,2
1522257135169915,-48,-7,2,-1,1,-4,15,29
1522257135170917,-4,-17,-13,-2,6,-11,-16,-13
1522257135170917,81,9,-10,-7,7,5,0,8
1522257135184955,-12,13,8,3,-8,-10,2,-12
1522257135184955,30,1,-4,6,-3,1,-1,-7
1522257135185958,-82,-9,-6,-4,0,-2,-10,-5
1522257135185958,62,4,-4,-1,-6,1,18,46
1522257135207013,-42,-10,-3,0,5,-33,-20,-31
1522257135207013,-49,7,-1,0,2,32,4,28
1522257135208016,8,-2,4,-1,1,19,19,-24
1522257135208016,4,-10,5,1,2,11,14,43
1522257135230074,-2,-1,-4,-6,0,-14,-25,-60
1522257135230074,-51,-12,-5,-7,-10,-21,-3,-2
1522257135231077,-10,-9,3,4,4,-3,-7,32
1522257135231077,-4,12,-10,-1,-9,-2,-8,-39
1522257135245115,33,-14,7,3,-2,-6,-1,-4
1522257135245115,19,19,5,3,3,3,7,7
1522257135246117,6,-15,-4,-1,8,11,6,4
1522257135246117,-27,-12,-8,-5,-6,-13,-8,-19
1522257135267174,50,-6,-6,-2,-3,5,4,31
1522257135267174,18,4,0,-1,0,-1,7,40
1522257135268176,-22,-4,-2,-5,0,0,-10,-23
1522257135268176,40,14,-1,-3,-19,-12,-9,2
1522257135290235,11,11,-3,-3,-1,3,5,-19
1522257135290235,1,-1,4,-8,-10,-30,-10,4
1522257135290235,2,-1,1,3,19,34,8,10
1522257135290235,-2,-14,-2,4,1,-3,0,13
1522257135305274,68,-2,-4,-2,-4,2,5,-12
1522257135305274,-89,-4,-1,-2,0,-8,-18,-10
1522257135305274,32,27,8,1,-6,-14,13,19
1522257135305274,-35,-32,-9,-7,3,-5,-21,-56
1522257135327333,-12,-9,-3,0,3,17,31,79
1522257135327333,-23,2,-2,-6,1,-3,-27,-96
1522257135328336,70,15,10,1,-4,-17,-1,4
1522257135328336,61,12,-10,-4,10,8,-2,-17
1522257135349392,-54,-22,-8,-5,-1,-6,-4,2
1522257135349392,-33,1,-1,0,0,3,-3,8
1522257135350395,-67,-18,-3,-2,-4,-7,-5,-13
1522257135350395,97,15,17,10,1,1,22,30
1522257135364431,-70,4,-2,-5,-1,-6,-8,-18
1522257135364431,-32,-10,-2,-3,2,6,13,14
1522257135365434,63,2,-29,-3,-10,-23,4,16
1522257135365434,-73,-1,15,2,11,41,8,5
1522257135387493,-30,0,31,-7,-1,6,5,23
1522257135387493,86,-3,-42,8,-2,-1,-34,-5
1522257135388496,-108,-11,30,11,-5,-7,-10,-69
1522257135388496,10,13,-4,9,0,-12,7,8
1522257135409552,10,6,6,4,3,-2,-9,-11
1522257135409552,54,12,15,-5,-4,2,18,75
1522257135410555,14,-29,-21,-8,-3,12,-18,-74
1522257135410555,-27,-8,-2,-6,-4,-14,-1,21
1522257135424592,-57,-6,-10,-6,2,-3,1,-18
1522257135424592,65,16,5,0,-2,-14,9,1
1522257135425595,-37,7,3,5,5,1,10,26
1522257135425595,13,-11,6,-2,-6,4,6,75
1522257135447653,-20,7,-18,-2,-7,-15,-32,-93
1522257135447653,-42,-16,-1,5,-1,-1,4,-17
1522257135447653,28,25,8,0,-4,5,-3,12
1522257135447653,9,-10,-15,-2,2,-1,2,2
1522257135469711,57,10,-1,5,10,0,-3,15
1522257135469711,44,-20,15,-1,-25,3,4,-12
1522257135470714,-3,5,-5,0,-5,-17,1,4
1522257135470714,-72,-8,-8,2,3,31,-3,-29
1522257135484752,1,7,-8,8,5,-24,-3,24
1522257135484752,6,0,7,-1,12,2,-16,4
1522257135485754,29,5,-6,-4,0,-2,-2,2
1522257135485754,-29,-7,-8,3,0,-14,-13,-51
1522257135507813,6,15,8,5,-10,16,21,48
1522257135507813,10,12,8,-7,-30,-26,0,-3
1522257135507813,-8,-12,-12,-1,18,44,2,-22
1522257135507813,6,-2,-3,-3,1,-20,-1,20
1522257135529871,9,-5,-1,3,4,11,5,0
1522257135529871,81,9,-4,0,-4,-8,2,27
1522257135530874,-72,-12,-1,-2,-1,-2,-6,4
1522257135530874,51,9,12,4,0,-11,12,5
1522257135544911,119,22,6,3,8,-2,-13,-2
1522257135544911,-107,-23,-12,-10,-6,9,-28,-58
1522257135545914,52,-4,6,-8,1,14,4,10
1522257135545914,-4,-5,4,-4,-1,-4,1,0
1522257135566970,14,-19,-5,-5,-7,-1,8,-12
1522257135566970,46,13,10,9,15,6,21,41
1522257135567973,-82,16,-5,-4,-16,-19,-12,-22
1522257135567973,14,-19,4,1,-5,-6,-7,-16
1522257135590031,-6,2,0,-2,-5,1,0,11
1522257135590031,-17,-5,6,1,12,19,0,-66
1522257135591036,6,-5,-1,4,2,-1,3,62
1522257135591036,4,12,-7,1,5,3,7,1
1522257135605071,-47,7,-11,-8,-10,-1,-10,-27
1522257135605071,4,-4,-11,2,4,-3,-12,-30
1522257135606074,55,-7,-6,-5,-4,-22,-28,-14
1522257135606074,-10,-1,-6,5,-4,-2,8,25
1522257135627130,-19,-12,0,-1,5,9,-4,-11
1522257135627130,-48,9,10,5,-5,-24,20,37
1522257135628132,110,17,10,6,13,37,-5,-6
1522257135628132,-53,-19,3,-9,-13,-18,-13,-34
1522257135650191,-20,-14,-1,-7,-12,-17,-4,-25
1522257135650191,26,6,8,3,3,7,15,40
1522257135650191,39,-3,2,2,-1,-9,27,32
1522257135650191,16,11,-9,-3,-9,1,-16,-53
1522257135673252,-46,-1,-7,-6,-2,3,-16,2
1522257135673252,2,6,1,-4,1,5,4,14
1522257135674255,-31,-19,5,-6,3,3,4,-2
1522257135674255,49,8,3,0,-4,-6,11,19
1522257135687289,53,3,2,-6,-1,21,6,10
1522257135687289,-60,-11,-6,-4,4,9,-9,-15
1522257135688292,14,-26,-18,-11,-6,-7,-1,28
1522257135688292,9,48,12,-4,-4,-2,-8,-40
1522257135709348,0,-7,-2,3,-4,-16,-16,-14
1522257135709348,-20,-17,-16,-1,11,0,-3,8
1522257135710351,-33,-20,-7,7,4,1,8,-10
1522257135710351,8,-12,-9,-2,-10,-9,-4,15
1522257135724388,80,25,1,4,-10,6,-7,2
1522257135724388,-48,-16,0,-9,-9,-11,-5,-8
1522257135732410,-16,-11,6,2,2,15,1,-4
1522257135732410,-30,-24,-2,1,13,15,12,20
1522257135747449,-33,-7,2,-4,1,-9,5,-6
1522257135747449,54,9,1,0,-3,3,12,52
1522257135748452,26,12,-3,1,1,19,-2,-5
1522257135748452,-27,6,-2,-3,9,-4,-14,-37
1522257135769508,-29,5,-4,1,-2,1,12,6
1522257135769508,-11,-10,-11,-4,-9,-15,-18,-21
1522257135770511,-11,7,8,-2,-10,-26,5,11
1522257135770511,29,-9,2,3,5,9,0,6
1522257135784548,-5,-1,0,5,4,-10,9,38
1522257135784548,36,12,9,3,6,12,2,-13
1522257135792569,-19,6,-4,4,-3,-10,3,-2
1522257135792569,27,-4,-13,-8,1,-6,-15,-43
1522257135807609,22,11,6,-4,-1,-21,-9,0
1522257135807609,3,-3,-3,-4,12,23,8,-2
1522257135807609,6,16,7,-4,2,-11,0,1
1522257135807609,8,-9,0,2,-4,2,9,28
1522257135829668,-3,1,0,1,0,9,7,-22
1522257135829668,44,-4,3,-1,-1,3,-7,23
1522257135830671,-64,-5,-4,-4,-3,-2,-7,-1
1522257135830671,-7,11,-5,-2,-2,-4,10,13
1522257135843705,21,-2,-3,3,-3,5,5,-28
1522257135843705,-29,-21,-8,5,-1,3,-10,-5
1522257135852729,-41,-5,-4,0,-7,-7,6,21
1522257135852729,31,-13,-1,-5,-10,-4,-2,-13
1522257135867769,-19,2,-2,0,1,12,4,19
1522257135867769,51,10,2,3,-3,-27,-5,-25
1522257135867769,-24,-17,-3,2,-6,7,-8,13
1522257135867769,47,20,2,2,4,24,11,41
1522257135889828,-58,-10,-11,-12,-3,-14,-3,-1
1522257135889828,-19,2,-6,2,3,14,-15,-34
1522257135890831,-17,5,-3,-4,2,-9,1,-16
1522257135890831,-19,-7,5,3,-2,-4,-2,31
1522257135903865,18,-5,11,5,4,5,6,29
1522257135903865,-37,-4,-1,-6,3,4,8,7
1522257135911886,54,-11,-5,-2,0,1,-9,-34
1522257135911886,-22,14,-4,-5,-2,-5,2,9
1522257135926927,36,26,-13,-3,4,-7,-1,3
1522257135926927,41,16,18,-4,-8,3,11,4
1522257135927929,-31,-18,2,-3,-6,-14,12,7
1522257135927929,-28,-14,-9,-7,4,0,-41,-77
1522257135949988,7,-8,7,1,3,0,-8,-1
1522257135949988,62,18,-14,-2,5,-4,0,42
1522257135950990,-32,9,-2,-2,-1,0,-1,-10
1522257135950990,-16,-9,4,2,-4,-23,-3,-1
1522257135964025,-64,-37,-16,-6,0,19,-2,-33
1522257135964025,18,13,6,2,2,1,8,18
1522257135972046,54,6,6,-4,-11,-5,3,17
1522257135972046,-63,-2,-5,3,-1,-19,9,11
1522257135987086,24,11,12,6,23,34,15,30
1522257135987086,33,2,-4,-3,-5,-15,7,-3
1522257135988089,-27,8,1,-1,3,12,-17,-14
1522257135988089,12,-9,1,-3,-3,-9,-4,7
1522257136010148,7,10,4,-3,-7,-15,-3,-17
1522257136010148,-35,-6,-3,2,3,4,-8,-51
1522257136010148,63,-11,-11,9,5,2,24,52
1522257136010148,-2,18,-1,-4,-6,-8,-56,-47
1522257136033209,-33,-17,0,-4,-12,-26,-16,-24
1522257136033209,-19,11,-5,-3,-1,-3,-13,-8
1522257136034212,21,-5,7,3,0,-1,-7,-11
1522257136034212,32,9,4,0,2,8,19,10
1522257136047246,34,-3,2,3,0,-4,-1,19
1522257136047246,22,2,5,0,5,27,12,6
1522257136048249,-49,1,-10,-11,-2,6,-7,-41
1522257136048249,31,-23,-6,-6,-6,9,13,32
1522257136070307,-31,14,8,-2,-6,2,-5,-6
1522257136070307,-15,-6,4,2,-4,0,6,34
1522257136070307,10,17,6,1,2,-10,-14,-30
1522257136070307,40,2,-1,5,0,15,22,65
1522257136093369,16,-7,-9,1,4,9,-16,-69
1522257136093369,-53,-11,-9,-4,-7,-6,-10,9
1522257136093369,-9,8,-3,-10,3,-3,-11,-7
1522257136093369,-28,-4,3,-2,-1,-8,10,12
1522257136107406,40,1,4,5,1,-10,15,31
1522257136107406,55,13,6,2,-8,15,15,-7
1522257136108409,-38,6,5,1,5,-3,-3,25
1522257136108409,-84,-25,-5,-9,2,-17,-2,-31
1522257136129465,-14,1,-13,-7,0,8,-14,-12
1522257136129465,30,17,26,10,7,0,-12,-23
1522257136130468,2,-7,1,5,-3,1,6,11
1522257136130468,25,6,1,2,-4,7,17,4
1522257136153529,-22,-12,-1,-2,-3,-2,5,11
1522257136153529,-2,-12,-18,-10,-14,-17,-13,19
1522257136153529,75,13,3,2,-2,10,8,7
1522257136153529,-61,-2,-3,-5,0,10,-4,-17
1522257136167566,89,15,0,-1,-3,-13,7,29
1522257136167566,13,0,-11,-8,-1,8,0,-33
1522257136168569,-4,-6,0,-1,-2,-18,-22,5
1522257136168569,17,-3,-8,2,2,12,-3,27
1522257136189625,-73,-8,0,-6,-5,20,-17,-75
1522257136189625,-21,2,7,5,9,-5,16,24
1522257136190627,25,-5,-3,3,9,6,6,-11
1522257136190627,76,1,-3,-2,-7,-10,12,40
1522257136212686,-18,20,5,1,-11,-17,6,18
1522257136212686,-11,-27,-15,-10,-12,-7,-16,-30
1522257136213689,0,1,-3,-5,-8,-6,1,-16
1522257136213689,-13,5,3,-2,7,3,-9,-1
1522257136227726,50,19,6,7,13,3,2,22
1522257136227726,5,2,3,0,-4,-4,4,-3
1522257136227726,-26,-10,-10,0,-11,2,3,-23
1522257136227726,-22,-8,4,5,5,2,12,-5
1522257136249785,8,-16,-9,-4,-2,-1,-16,-25
1522257136249785,4,21,1,3,7,-11,6,6
1522257136250787,-9,-31,8,5,6,15,-5,39
1522257136250787,-25,23,3,3,-3,1,-2,-25
1522257136272846,-46,-9,0,2,8,-9,-21,-10
1522257136272846,55,7,2,0,6,11,19,47
1522257136272846,-35,-1,-12,-5,-15,-4,-10,-49
1522257136272846,57,-14,-10,-7,-17,-13,-11,-7
1522257136286883,-26,-4,-4,-1,-14,-16,-3,38
1522257136286883,1,-4,-10,-8,4,21,1,-11
1522257136287886,42,14,2,-3,10,-5,9,3
1522257136287886,-13,-4,4,5,15,24,-8,-44
1522257136309944,11,-9,-5,-2,-8,-46,-13,34
1522257136309944,40,-8,11,10,7,-5,-11,3
1522257136310947,-77,-15,-5,5,-2,5,6,-20
1522257136310947,-17,16,-4,-1,-8,1,-11,-34
1522257136332003,85,15,1,-3,-2,17,36,60
1522257136332003,-55,-12,-2,-4,-5,-12,-7,-24
1522257136333006,41,14,2,-11,1,13,-7,24
1522257136333006,-49,5,7,0,-5,-10,9,31
1522257136347043,-43,-12,-1,3,4,1,-4,-27
1522257136347043,-21,-7,-1,5,3,-5,3,11
1522257136348046,41,4,0,3,-18,-11,8,14
1522257136348046,3,11,3,0,5,1,-8,-5
1522257136370104,-9,-3,-7,-5,3,15,-1,16
1522257136370104,-27,-7,0,-3,-5,-4,-14,-45
1522257136371107,22,9,2,0,9,-4,11,20
1522257136371107,33,-7,-2,2,0,-12,-15,9
1522257136392163,-14,-5,1,-1,3,8,0,-41
1522257136392163,7,2,-4,0,-11,7,10,24
1522257136393166,-20,0,3,1,-3,-5,-4,-24
1522257136393166,-22,0,-9,0,3,0,3,5
1522257136407203,52,-3,-5,-2,6,-3,9,20
1522257136407203,-77,1,1,3,0,1,13,13
1522257136408206,77,2,4,-1,-4,0,2,-9
1522257136408206,-78,-22,1,-2,-11,-8,-6,-19
1522257136430265,28,27,17,11,-6,-10,-8,1
1522257136430265,34,-8,0,3,5,23,6,20
1522257136430265,-29,-8,-8,-7,3,-3,2,-24
1522257136430265,51,-9,-7,-4,8,-7,6,21
1522257136452323,-23,-8,-3,-6,-5,6,-5,-32
1522257136452323,-57,-17,-11,-6,-3,-14,-11,-7
1522257136453326,-11,19,2,-3,6,-2,0,0
1522257136453326,46,7,11,4,6,10,3,11
1522257136467363,36,10,-4,-3,-11,-10,6,-5
1522257136467363,80,17,-3,-1,0,4,-1,22
1522257136468365,-49,-28,-16,-3,-8,-2,-18,-6
1522257136468365,31,18,1,-1,-11,-9,-2,-49
1522257136489421,10,-8,1,2,6,10,10,27
1522257136489421,-21,-8,-2,-5,-8,-14,-4,-24
1522257136490424,62,25,6,6,10,-5,0,17
1522257136490424,0,-3,-2,-4,9,18,-1,8
1522257136512483,-21,-7,0,-1,-3,-4,0,18
1522257136512483,-49,-22,-5,-1,-6,1,-15,-79
1522257136513486,3,14,4,2,-13,-11,17,48
1522257136513486,-13,1,-1,6,0,11,5,-6
1522257136527522,20,0,2,2,-1,5,1,9
1522257136527522,-8,17,1,0,4,3,13,24
1522257136528525,53,6,1,1,4,0,-6,-2
1522257136528525,0,-12,-1,0,-4,-9,-5,-8
1522257136549581,40,-12,-4,-4,-1,1,1,2
1522257136549581,-89,-8,3,-3,2,2,0,-1
1522257136550584,72,7,1,3,7,4,3,23
1522257136550584,-83,-21,-15,-12,-15,-23,-13,-13
1522257136572643,3,1,-4,-2,5,21,-6,-34
1522257136572643,-27,2,8,5,4,3,2,5
1522257136573645,-33,-2,7,2,4,4,16,11
1522257136573645,60,13,1,0,-5,-5,-12,5
1522257136587683,-56,-9,-8,-5,-6,-8,-8,5
1522257136587683,39,2,-4,-8,3,-7,2,-32
1522257136587683,-36,-11,-3,-8,-1,5,-6,0
1522257136587683,-9,13,9,0,-5,-8,-1,-23
1522257136609741,-12,5,9,5,-1,1,0,7
1522257136609741,43,-10,0,8,3,-2,9,30
1522257136610744,7,3,-4,4,-4,-8,-12,-16
1522257136610744,22,-4,-17,0,10,18,-10,5
1522257136632802,10,10,-2,-6,-17,-18,-4,-18
1522257136632802,51,-3,2,-5,6,9,-8,4
1522257136632802,-28,-9,-1,-7,-3,1,2,-15
1522257136632802,30,-1,4,2,7,6,22,41
1522257136646840,-4,5,3,9,13,3,15,24
1522257136646840,44,6,1,3,0,-16,0,-15
1522257136654861,-104,-27,-14,-6,-10,-15,-41,-28
1522257136654861,-20,1,2,-4,1,15,3,-5
1522257136669901,57,-3,-6,-9,-4,-1,2,9
1522257136669901,0,1,-9,-6,-10,-10,-5,-3
1522257136670904,29,11,8,3,3,4,6,12
1522257136670904,5,-8,5,4,12,-2,-5,-1
1522257136691959,23,18,10,9,-28,-15,13,18
1522257136691959,-30,-22,-15,-8,-8,9,-16,-20
1522257136692962,25,-1,-8,-7,2,4,1,-9
1522257136692962,-17,-14,-1,-1,-3,-6,-8,-5
1522257136707000,-12,2,2,3,20,5,10,11
1522257136707000,-10,-4,4,-1,-8,-18,-10,-10
1522257136715021,4,6,-3,2,0,-15,1,7
1522257136715021,11,10,2,-3,17,20,11,15
1522257136730061,-22,1,-3,-4,-15,-4,-9,-8
1522257136730061,-36,5,-1,3,-3,0,2,0
1522257136731064,16,-5,2,5,0,4,3,11
1522257136731064,16,9,2,5,-9,-14,-9,-18
1522257136752120,66,12,-3,-4,8,8,-23,-14
1522257136752120,-56,0,-2,-3,3,4,20,56
1522257136753122,-49,-3,15,4,-3,-10,-21,-87
1522257136753122,-10,-6,5,-5,-1,10,-5,24
1522257136767160,8,-8,4,6,10,12,1,-10
1522257136767160,29,-7,-12,-7,-4,-14,-15,-29
1522257136775181,-1,9,-7,3,2,18,32,53
1522257136775181,32,3,-14,-5,-14,-7,1,4
1522257136790221,-86,-4,-9,0,3,-9,-9,-39
1522257136790221,44,1,1,9,-4,-12,0,6
1522257136790221,-28,13,2,1,5,12,19,20
1522257136790221,-58,-25,-6,-7,-14,7,-6,-47
1522257136812279,27,9,10,1,4,5,17,60
1522257136812279,-2,1,8,3,-4,-5,-22,-18
1522257136813282,-34,-12,-4,-3,3,-20,-13,-18
1522257136813282,17,-1,4,4,9,16,11,-4
1522257136826317,71,15,4,6,15,13,19,44
1522257136826317,-50,-17,-10,-6,3,0,-6,-15
1522257136835341,-4,-6,-2,-8,-28,-22,-40,-35
1522257136835341,9,0,-1,-8,-7,-10,-1,7
1522257136849378,-43,-9,-1,4,-6,-3,16,22
1522257136849378,50,12,9,9,9,0,-7,-23
1522257136850381,53,4,5,1,9,12,11,41
1522257136850381,0,-6,-6,-9,-8,-14,3,-6
1522257136872439,-86,-11,1,-5,1,-24,7,-15
1522257136872439,83,15,1,1,2,29,25,34
1522257136873442,-32,-11,-7,5,0,22,-16,-21
1522257136873442,-15,7,3,3,-15,-40,-6,34
1522257136886476,45,6,-5,0,7,42,-16,-30
1522257136886476,-101,-19,-2,3,-4,-13,6,-1
1522257136894498,37,0,-4,-6,-6,-8,10,-7
1522257136894498,31,3,0,3,16,-5,-1,-17
1522257136909538,-37,-14,-8,-12,-11,-10,-15,-13
1522257136909538,-7,11,-4,-9,1,-1,-11,-34
1522257136910541,27,7,7,1,8,-2,25,73
1522257136910541,-24,8,3,7,-5,6,10,20
1522257136932599,48,-2,-1,-2,0,12,-21,-39
1522257136932599,-51,-8,-7,-6,-10,-29,-21,-59
1522257136933602,-40,-16,-11,-2,-8,6,-6,-27
1522257136933602,21,20,-4,-5,-4,-21,3,24
1522257136955660,-24,-24,3,3,0,-8,11,15
1522257136955660,42,2,6,4,1,-1,11,55
1522257136956663,75,-2,-8,-6,-1,6,5,-11
1522257136956663,-27,2,7,5,5,4,5,-1
1522257136969698,-38,-7,-1,-1,-1,27,4,10
1522257136969698,12,12,3,-4,-4,-15,-1,5
1522257136970701,-31,-14,-9,-7,-4,-2,-10,-36
1522257136970701,77,7,-6,-1,3,15,6,2
1522257136992759,-55,-8,-5,19,11,-5,10,-6
1522257136992759,45,15,-3,10,1,10,-14,37
1522257136992759,75,8,7,6,0,-10,6,23
1522257136992759,-89,-21,-1,-6,-7,-9,-15,-12
1522257137015820,46,6,1,-5,0,4,10,86
1522257137015820,-67,-16,-8,-10,-8,-20,-22,-93
1522257137015820,74,13,2,-10,7,5,-2,21
1522257137015820,-66,0,-2,-5,-1,-16,1,26
1522257137029858,-32,-2,-3,-6,-6,-2,-6,-25
1522257137029858,33,-7,2,3,13,24,7,28
1522257137030860,-52,-5,-8,-2,-13,5,-3,-27
1522257137030860,32,6,1,-2,4,1,-5,-9
1522257137051916,3,-1,4,-5,-5,-15,1,-11
1522257137051916,5,6,4,1,0,-16,8,-1
1522257137052919,-7,-3,4,2,5,11,-7,-48
1522257137052919,36,-1,-3,3,-6,3,10,66
1522257137075980,-80,2,-2,-5,-7,-9,-18,-40
1522257137075980,2,2,-2,-5,-3,4,-12,-4
1522257137075980,-17,-2,-7,3,2,-8,2,27
1522257137075980,70,13,-2,5,-2,-2,-9,-44
1522257137090018,14,-13,-8,-8,0,-5,-4,-4
1522257137090018,-21,-1,0,-3,0,11,10,31
1522257137091020,-22,-5,7,7,-2,-1,1,-14
1522257137091020,25,2,4,3,-4,11,6,13
1522257137112076,8,4,7,1,2,5,10,31
1522257137112076,56,13,5,0,3,-31,-13,-20
1522257137113079,-40,-17,-11,-11,0,11,4,10
1522257137113079,-11,-12,-3,-4,-4,-12,-1,-18
1522257137135138,-31,-7,3,1,6,13,2,-13
1522257137135138,43,14,6,6,1,2,4,19
1522257137136140,96,4,5,2,1,15,18,38
1522257137136140,-97,6,-4,6,5,15,-29,2
1522257137150178,-6,-2,-2,-6,-21,-35,-23,-31
1522257137150178,10,-17,-17,-9,-13,3,4,37
1522257137150178,63,11,-8,-1,4,-9,-5,-21
1522257137150178,-62,-5,1,-2,10,15,7,-28
1522257137172236,87,15,3,0,-2,4,2,20
1522257137172236,-30,-10,1,-1,-7,2,-11,-17
1522257137173239,-50,-19,-6,-3,-3,-9,2,2
1522257137173239,6,-12,-9,-1,-6,-9,2,-2
1522257137195297,-34,11,-4,-4,2,4,-10,-35
1522257137195297,2,-3,7,5,13,11,16,7
1522257137196300,10,8,6,9,-2,0,13,44
1522257137196300,14,-6,-9,-5,3,-6,-9,-35
1522257137210337,19,-8,-5,-7,-2,-16,0,-7
1522257137210337,34,-8,1,-3,1,4,14,3
1522257137210337,-120,6,6,-1,8,-3,-12,-20
1522257137210337,49,-4,5,0,-9,-10,-25,-29
1522257137232396,79,5,-4,1,-3,5,-7,0
1522257137232396,-7,-15,-3,2,-3,12,10,44
1522257137233399,-51,-5,0,-2,5,-8,-7,-3
1522257137233399,61,8,10,0,-10,-12,12,10
1522257137255457,-101,-4,0,-1,1,7,-3,-52
1522257137255457,31,17,-2,-1,4,6,13,29
1522257137256460,15,7,-2,-2,-3,-9,-2,-17
1522257137256460,10,4,-1,-1,1,17,1,6
1522257137269495,35,11,7,6,10,-6,-9,1
1522257137269495,-74,-9,-1,-1,-11,0,-5,-13
1522257137270498,126,14,-7,-1,-15,-8,-17,10
1522257137270498,-92,-3,4,-5,5,-7,8,12
1522257137292556,-2,-8,-2,-5,-4,-20,5,-17
1522257137292556,-43,-4,3,-3,7,11,-7,-6
1522257137293559,95,-4,5,0,1,-4,5,18
1522257137293559,53,3,2,4,6,14,-9,14
1522257137315617,-28,-11,-2,1,-10,5,8,46
1522257137315617,-20,0,-6,-6,0,-14,2,-45
1522257137316620,-4,12,6,4,-6,10,19,34
1522257137316620,18,-9,-6,-4,-1,-2,-2,-18
1522257137329654,-50,11,5,2,-2,4,-2,-13
1522257137329654,76,-2,-3,7,3,-2,2,27
1522257137330657,-62,-17,-5,-4,-1,-7,-2,-17
1522257137330657,-69,-2,-5,-6,-4,-6,-9,-17
1522257137352716,46,-13,-10,-3,-12,-5,-6,-12
1522257137352716,-7,-13,-7,2,20,10,-6,-13
1522257137352716,-22,-2,4,-1,-17,-3,-5,-18
1522257137352716,13,1,11,4,4,6,14,12
1522257137375777,79,4,9,-3,15,1,4,25
1522257137375777,58,7,4,1,-3,-2,11,32
1522257137376780,11,6,-6,-2,38,5,5,-25
1522257137376780,-21,1,-14,10,-6,-8,-19,-37
1522257137389814,7,-4,-13,-11,-63,-17,-11,13
1522257137389814,16,-1,-1,-5,-34,-14,-18,-43
1522257137390817,-22,-19,-6,-7,-14,-5,-15,12
1522257137390817,24,2,4,-2,15,11,12,19
1522257137411873,18,-5,-2,-1,32,5,-1,5
1522257137411873,-40,-2,-3,2,1,3,-11,-37
1522257137412876,-37,-4,4,-3,-3,-12,-5,-7
1522257137412876,87,7,6,4,8,3,14,32
1522257137434934,-54,0,-1,6,11,2,-7,-17
1522257137434934,20,-9,-6,-8,-7,-11,7,2
1522257137435937,-84,7,0,-2,-2,-1,9,20
1522257137435937,26,-14,-6,-4,-4,-1,-10,-16
1522257137448971,37,13,-10,-4,-2,-6,-4,-14
1522257137448971,-70,-8,-2,0,0,-5,-16,5
1522257137456993,-36,-6,-4,4,4,-6,-18,-48
1522257137456993,50,1,-4,3,-17,-11,1,12
1522257137472033,-63,5,8,4,16,53,24,15
1522257137472033,4,-1,1,-4,-2,-4,-15,-18
1522257137473036,66,11,6,-4,22,-7,9,21
1522257137473036,-21,7,2,-10,-14,4,-5,-9
1522257137495094,27,-11,-3,-10,-25,-24,-8,-13
1522257137495094,-31,12,8,6,15,22,24,30
1522257137496097,-16,-7,-1,3,-14,-1,-2,-11
1522257137496097,76,14,1,5,-8,-7,8,20
1522257137510134,-59,-11,-10,4,5,-10,-7,-27
1522257137510134,8,8,-1,-3,-9,4,-5,16
1522257137511137,38,-5,0,3,9,5,9,8
1522257137511137,-38,7,2,0,8,-4,6,11
1522257137532192,110,-4,-13,-7,-5,3,-7,32
1522257137532192,-91,-18,4,-4,-1,-5,-7,-32
1522257137533196,43,15,3,2,3,8,0,4
1522257137533196,-41,-16,-4,1,1,-6,-2,-16
1522257137555254,41,8,8,-1,2,-8,4,24
1522257137555254,14,-3,1,9,11,6,15,62
1522257137555254,-29,-1,4,4,-3,-4,-10,-56
1522257137555254,38,-2,-6,-6,-5,-18,10,49
1522257137569292,-69,-22,-8,-3,2,12,-22,-95
1522257137569292,86,14,-7,-1,1,18,6,34
1522257137577313,-22,-10,1,-3,-8,-5,0,-22
1522257137577313,-65,-9,-5,-10,-8,-3,-7,-17
1522257137592352,8,-2,-1,6,-3,-10,2,24
1522257137592352,13,2,-3,-2,3,-14,-6,-9
1522257137593355,-31,-10,-1,-4,-10,-1,-3,0
1522257137593355,57,1,4,1,-14,26,4,-1
1522257137614411,49,34,5,1,14,-7,9,31
1522257137614411,-92,-30,-12,-5,-9,0,-8,-28
1522257137615414,21,6,1,4,11,-3,1,30
1522257137615414,-101,-8,-5,-2,5,-4,1,-24
1522257137629451,-6,-12,1,4,-7,5,12,38
1522257137629451,50,16,2,2,-1,-5,-5,-44
1522257137637472,65,-4,-7,-6,-8,0,-13,28
1522257137637472,-49,5,6,-6,-4,-5,-4,-1
1522257137652512,30,-8,7,0,-4,5,-4,2
1522257137652512,-18,10,4,2,4,-1,20,36
1522257137653515,-10,-6,-11,0,-5,-16,-10,-14
1522257137653515,-3,2,0,4,15,23,1,-23
1522257137674571,29,9,-2,0,13,-13,-11,25
1522257137674571,85,-2,-1,-2,-5,2,12,64
1522257137675574,-107,-6,-8,-1,-12,10,-7,-84
1522257137675574,-11,-12,-4,-3,-10,7,-4,5
1522257137689611,-3,-14,3,1,1,-10,2,-15
1522257137689611,5,-11,3,1,1,23,-2,-40
1522257137697632,22,9,-1,-1,9,-28,2,54
1522257137697632,56,18,7,2,3,-11,-1,27
1522257137712672,-61,-10,-2,-9,-8,-26,-21,-35
1522257137712672,-53,-3,1,-3,16,-19,-22,-16
1522257137713675,77,4,-2,-3,-14,49,17,16
1522257137713675,-42,6,-3,-2,0,3,6,10
1522257137734731,-6,-8,-2,2,0,9,1,-43
1522257137734731,3,-2,-3,-8,-12,21,17,8
1522257137735734,26,-7,5,-2,1,-14,-4,7
1522257137735734,-17,-5,-4,-1,4,-7,4,24
1522257137748768,-11,7,0,-2,-1,-2,-10,-43
1522257137748768,-10,5,-9,-2,0,-29,-10,-8
1522257137757792,17,-9,-1,-2,-7,32,6,25
1522257137757792,-29,0,2,3,-1,-4,-11,-16
1522257137771830,43,-5,1,-2,-1,8,19,50
1522257137771830,-99,-1,-5,-1,-4,-11,-10,-58
1522257137779851,44,9,2,-4,13,-5,5,42
1522257137779851,25,0,0,-4,0,1,-3,-15
1522257137794891,-55,-15,-4,-3,-4,-6,-13,-7
1522257137794891,43,8,10,3,-1,-1,-1,-15
1522257137795893,-29,2,-6,5,-26,-5,7,38
1522257137795893,29,6,-10,1,12,0,-5,-58
1522257137808928,37,2,-6,-7,-7,1,18,33
1522257137808928,35,-7,-5,-5,-12,3,2,13
1522257137816950,28,1,2,0,9,-18,-5,-8
1522257137816950,5,-16,6,3,6,19,-7,9
1522257137831989,-43,-11,5,3,13,-4,-2,-22
1522257137831989,10,1,3,7,12,12,2,-3
1522257137832992,23,0,-1,-4,-7,-28,5,13
1522257137832992,-53,10,-5,8,-13,19,1,17
1522257137855050,-16,3,-4,0,6,16,0,13
1522257137855050,3,-8,-1,-3,-18,-6,5,-1
1522257137856054,-17,33,9,-3,15,-2,-1,-7
1522257137856054,74,-1,-4,-14,-20,-23,-3,-10
1522257137878112,-27,2,-4,-3,5,-7,-3,12
1522257137878112,-50,12,3,-1,3,20,15,-8
1522257137879115,86,3,7,5,2,-1,-7,53
1522257137879115,-86,-7,1,-1,5,-10,-25,-85
1522257137892149,37,15,7,10,6,13,17,23
1522257137892149,21,-1,-4,5,7,-6,4,12
1522257137893152,-33,-15,-16,-4,-8,-10,2,-29
1522257137893152,11,-5,-4,-2,14,13,0,21
1522257137915210,-2,1,-6,2,-16,-14,-4,-9
1522257137915210,15,9,3,0,6,9,3,14
1522257137915210,-1,5,8,0,1,11,10,-5
1522257137915210,10,5,4,-7,-10,-9,17,40
1522257137938272,-49,-15,-1,-2,-1,0,-3,-26
1522257137938272,28,10,-9,-1,0,-8,-15,-14
1522257137939275,-26,-25,-7,-3,-5,12,-10,-17
1522257137939275,-44,-2,0,-4,2,-14,0,0
1522257137952309,37,10,7,2,-8,4,5,55
1522257137952309,-25,-9,1,-1,16,-15,-10,-26
1522257137953312,-13,-5,-7,-1,-16,-3,-13,-44
1522257137953312,11,13,-3,3,9,-5,12,26
1522257137974368,70,10,-1,4,-10,4,3,33
1522257137974368,-55,-15,5,1,-8,2,1,-2
1522257137975371,6,11,-7,-2,4,1,-9,-27
1522257137975371,-30,-22,1,-1,3,-1,4,4
1522257137998432,-8,-2,-2,-7,1,-16,-2,-22
1522257137998432,78,4,3,0,2,15,4,35
1522257137998432,-54,0,-5,2,-2,0,0,-14
1522257137998432,48,6,0,5,-5,-13,-2,9
1522257138012469,-4,-12,6,-2,11,13,-6,-9
1522257138012469,28,-1,5,-3,-11,-10,-8,3
1522257138013472,27,21,7,-2,7,12,23,58
1522257138013472,15,21,-4,2,5,9,20,2
1522257138034528,-71,-20,-18,-3,-5,-10,-51,-76
1522257138034528,10,0,-3,-1,-3,-2,-9,2
1522257138035531,25,-6,9,2,14,-5,-1,-6
1522257138035531,11,-14,4,-7,-23,4,3,10
1522257138057589,6,10,-4,-6,-12,-6,11,10
1522257138057589,-24,-4,-9,1,2,-8,-6,-8
1522257138058592,-8,-15,-7,7,11,-2,-13,6
1522257138058592,125,9,3,8,11,3,5,34
1522257138072629,-44,11,7,6,2,-3,13,-13
1522257138072629,-4,-12,-8,-8,-6,1,-16,-27
1522257138073632,-2,-7,-2,1,-2,1,9,-14
1522257138073632,-63,-23,5,-4,-9,-9,-22,-43
1522257138094687,32,6,3,-5,-1,7,-1,-8
1522257138094687,16,6,4,7,-6,-9,8,20
1522257138095690,18,5,-4,5,-5,3,2,-6
1522257138095690,-26,7,-6,-1,2,-10,-9,-17
1522257138117749,40,-5,-5,2,14,20,12,27
1522257138117749,30,11,2,-2,5,2,18,27
1522257138118751,-18,-11,-7,-7,0,-6,-36,-34
1522257138118751,-52,5,-2,0,12,-10,-11,-20
1522257138132789,-50,-9,6,-2,-12,-15,3,-5
1522257138132789,10,-7,-1,-7,-15,19,7,2
1522257138132789,-19,1,-2,4,-1,3,-13,-41
1522257138132789,11,-7,-9,-6,-5,-11,-1,9
1522257138154848,19,11,-1,2,12,-7,0,3
1522257138154848,7,-4,1,1,4,3,0,13
1522257138155850,-21,-2,-7,-8,-5,-8,-2,3
1522257138155850,50,-1,-4,3,5,14,7,6
1522257138177908,-31,18,6,2,2,10,17,29
1522257138177908,22,-3,-2,-2,-6,-8,-2,-10
1522257138178914,-39,-9,-4,-11,-9,-5,2,-9
1522257138178914,80,-3,-1,2,-2,-1,5,29
1522257138191946,-98,-3,4,-2,0,8,8,-34
1522257138191946,73,15,0,-12,-3,-16,-13,-1
1522257138192949,-122,-21,2,-1,-5,2,-1,11
1522257138192949,-28,-22,-15,-6,-11,-17,-28,-67
1522257138215007,25,-11,-11,4,10,21,-6,11
1522257138215007,-23,11,-1,7,7,-1,7,1
1522257138216010,29,1,8,0,1,-7,-3,21
1522257138216010,26,12,9,4,-5,0,-5,2
1522257138238069,33,-12,-8,0,-6,-17,-12,-2
1522257138238069,-98,-21,-5,1,-9,10,7,-22
1522257138239072,42,-3,-4,-2,-5,1,8,8
1522257138239072,-19,13,7,-2,5,13,7,15
1522257138252106,16,19,11,0,6,-11,23,47
1522257138252106,-15,-31,0,-10,10,-11,-15,-56
1522257138253109,15,4,3,-4,-26,14,1,10
1522257138253109,38,17,6,2,8,-2,-2,10
1522257138275167,-43,-13,-4,-4,-10,-6,-8,-23
1522257138275167,14,8,1,3,4,-3,-1,39
1522257138275167,9,4,1,-5,4,8,-2,3
1522257138275167,-7,7,1,-3,-6,8,13,31
1522257138298228,87,-12,-8,-4,-3,8,-6,-41
1522257138298228,-72,1,4,5,3,4,3,-4
1522257138299233,20,1,1,10,2,13,17,22
1522257138299233,-13,0,-4,12,18,-27,-24,1
1522257138312266,29,-4,-2,1,-6,0,-2,-15
1522257138312266,30,3,-5,-3,-11,-22,-2,41
1522257138313269,-49,-3,-6,-9,2,5,2,-31
1522257138313269,-2,3,4,-5,6,13,18,13
1522257138335327,-18,-2,1,-2,10,6,5,40
1522257138335327,-15,2,-6,-2,-6,-3,-16,-65
1522257138335327,44,18,5,4,-3,-5,5,36
1522257138335327,-42,-17,3,1,-4,6,2,-46
1522257138358388,31,11,-1,1,-3,-18,-15,-24
1522257138358388,-20,8,-5,-1,-32,-2,29,50
1522257138358388,-11,-13,-1,0,7,17,-12,27
1522257138358388,57,6,-2,-3,8,-6,-8,-54
1522257138372425,-107,-18,0,-6,1,0,-8,-18
1522257138372425,51,-1,4,2,20,0,4,31
1522257138373429,14,9,3,2,0,-11,-4,-43
1522257138373429,-6,-6,-2,-1,-9,8,14,22
1522257138394484,39,-14,-8,2,-6,1,-6,0
1522257138394484,22,-1,-11,2,-1,-2,-15,-8
1522257138395487,-61,-13,-16,-2,-2,-18,2,-10
1522257138395487,-20,6,-6,-4,-1,20,11,29
1522257138418549,43,20,5,3,0,-14,12,34
1522257138418549,-33,-14,2,-2,1,6,-15,-26
1522257138418549,47,-30,0,3,10,22,3,39
1522257138418549,-71,-34,-15,-11,-13,-10,-22,-45
1522257138432586,49,-13,0,-4,-2,-6,3,-2
1522257138432586,-65,2,2,0,21,8,6,5
1522257138433589,82,9,-3,0,-13,-10,-10,-15
1522257138433589,-40,-2,3,7,1,0,-2,26
1522257138454644,-30,-13,-3,3,-13,-8,-3,8
1522257138454644,19,1,-3,3,12,-3,2,-43
1522257138455647,-30,11,-4,2,4,-5,13,28
1522257138455647,12,13,3,-6,-4,1,-5,-13
1522257138477705,33,13,5,-4,-6,10,5,13
1522257138477705,-25,-14,1,-4,-1,-11,-8,-13
1522257138478709,28,-3,8,-1,1,6,2,5
1522257138478709,16,-3,2,3,-13,-4,0,-1
1522257138492745,-45,2,0,2,3,1,-14,-26
1522257138492745,55,1,-8,-2,-5,-4,-2,31
1522257138492745,-24,7,-5,-5,0,-16,-7,-50
1522257138492745,36,8,2,2,5,15,-1,3
1522257138514804,-104,-1,-5,-5,-5,0,-2,-13
1522257138514804,119,15,6,-5,-2,-5,0,22
1522257138515807,-15,12,15,1,4,13,9,3
1522257138515807,-17,-9,2,1,-1,-11,5,17
1522257138537865,55,5,-2,1,15,12,0,-9
1522257138537865,-33,1,2,4,-6,-8,8,8
1522257138538869,3,8,3,-4,5,-6,17,26
1522257138538869,22,-2,-1,-2,4,1,-6,12
1522257138551903,49,-12,-6,-8,-10,-10,-14,-16
1522257138551903,-23,24,-1,4,-2,7,0,15
1522257138559924,-71,-4,5,-1,-7,-8,-27,-65
1522257138559924,16,4,-2,0,-2,3,12,40
1522257138574964,-7,-2,3,5,5,2,5,5
1522257138574964,12,-5,-5,-8,-6,-12,-4,-28
1522257138575967,-14,-4,-3,-1,-4,6,10,15
1522257138575967,-48,-4,-5,-3,5,-10,-13,-36
1522257138597022,37,5,-1,-4,4,6,5,24
1522257138597022,-8,-1,-5,1,-7,-2,2,3
1522257138598026,4,4,0,2,1,-4,-3,-11
1522257138598026,-14,-1,3,-7,-8,-6,-11,-13
1522257138612062,13,10,6,6,8,-2,-8,-15
1522257138612062,25,0,4,2,-6,12,9,9
1522257138620084,37,-2,-6,3,7,-5,-3,15
1522257138620084,-45,-23,-6,3,-4,-2,-6,-11
1522257138635124,-14,-7,1,0,-16,-7,-2,11
1522257138635124,-43,-1,7,-5,-4,0,1,-2
1522257138636126,-11,-5,1,2,-1,-7,-2,-13
1522257138636126,71,5,-4,0,10,8,21,-4
1522257138657182,4,-9,-7,-3,6,4,-29,1
1522257138657182,-18,-4,-4,2,-9,5,-12,-20
1522257138658185,17,5,-2,-3,0,-4,4,15
1522257138658185,-10,5,3,-2,-1,-9,-4,-18
1522257138672222,1,-4,-2,1,-5,-7,17,10
1522257138672222,26,-5,-5,-2,4,-5,5,11
1522257138680244,3,7,-3,-10,0,1,4,19
1522257138680244,20,15,0,-3,-7,1,3,17
1522257138695283,-28,-7,-10,-3,-3,4,0,-14
1522257138695283,48,-12,1,2,12,6,8,24
1522257138695283,-98,-3,5,7,-1,-1,-16,-34
1522257138695283,14,-7,2,-3,-6,-1,-11,-5
1522257138717342,11,7,4,-1,-1,-7,-5,20
1522257138717342,15,-5,0,2,1,-6,-4,-10
1522257138718345,44,-4,-2,-1,-1,-4,9,9
1522257138718345,-25,4,-6,0,-4,7,2,3
1522257138731379,20,-1,9,5,6,1,18,1
1522257138731379,8,1,-8,-6,-20,10,-12,-32
1522257138739402,29,8,-4,-3,5,-4,-9,3
1522257138739402,-9,3,-5,-2,2,-4,3,12
1522257138754442,-2,-1,-3,0,1,-5,-10,-21
1522257138754442,5,15,4,2,6,5,16,52
1522257138755444,-26,-6,1,0,-10,-11,-10,-60
1522257138755444,26,-15,-4,-8,3,-9,-8,-6
1522257138777502,-39,-6,-3,-7,1,5,9,13
1522257138777502,-14,-11,7,0,-8,-4,-6,-35
1522257138778506,-11,0,-2,-1,-2,4,-3,5
1522257138778506,14,2,1,5,-1,3,8,19
1522257138791539,-14,11,1,1,-2,3,-1,-9
1522257138791539,-27,-6,1,1,5,1,-4,1
1522257138799561,106,10,4,-5,5,-4,15,55
1522257138799561,-61,-19,-2,2,0,-8,-12,-54
1522257138814601,-9,12,-9,-6,-5,4,6,25
1522257138814601,-33,2,-4,0,-2,-9,-21,-35
1522257138815604,16,-4,0,-2,-3,4,-9,-22
1522257138815604,47,10,1,-2,-3,-7,9,23
1522257138837662,-29,-12,-1,-2,-3,-3,-2,-16
1522257138837662,33,2,3,2,-3,15,19,72
1522257138838665,-60,-16,0,-4,-7,-25,-11,-1
1522257138838665,-37,4,6,-1,6,20,-3,-4
1522257138860723,7,3,2,3,-5,-11,0,-3
1522257138860723,14,-4,2,1,17,1,6,-5
1522257138861726,4,9,-1,3,-17,3,7,5
1522257138861726,4,6,-1,-2,-15,-27,2,27
1522257138874761,25,4,1,3,14,36,9,4
1522257138874761,49,8,10,-4,3,0,1,-19
1522257138875763,-47,-12,-4,-7,-3,-2,-16,-38
1522257138875763,25,-6,2,2,12,2,4,12
1522257138897822,-14,-6,3,1,-12,-3,-2,-18
1522257138897822,9,9,-1,4,18,-8,-1,21
1522257138897822,-39,-16,-16,0,1,-4,-27,-21
1522257138897822,-4,-4,-7,2,-16,0,-4,-37
1522257138920883,32,1,2,1,4,-9,-7,25
1522257138920883,-98,-15,-5,0,-8,0,12,11
1522257138920883,54,20,-3,1,8,5,-8,-29
1522257138920883,-66,2,-5,-3,-5,-5,-17,-20
1522257138934920,42,2,-6,0,-5,0,5,-1
1522257138934920,-17,-8,-5,-3,-8,-17,-2,-13
1522257138935923,33,-3,-1,1,15,25,17,19
1522257138935923,13,5,-1,-1,2,10,9,16
1522257138956979,-1,3,-2,-1,-1,-10,-2,-13
1522257138956979,-5,-7,-8,-2,-2,-4,-7,2
1522257138957982,-21,-3,0,-5,-5,-11,-7,0
1522257138957982,54,12,5,3,0,16,8,23
1522257138981043,-33,7,1,-3,12,-7,-11,-28
1522257138981043,48,-2,-7,-4,-16,-3,0,25
1522257138981043,-11,4,4,2,0,-10,5,-38
1522257138981043,30,1,-2,-1,2,18,-4,52
1522257138995080,-39,-3,-4,-6,-6,15,1,-1
1522257138995080,17,-7,0,-2,-1,2,-6,-11
1522257138996083,5,3,4,1,6,-1,18,16
1522257138996083,36,3,2,3,10,-13,2,27
1522257139017139,37,-3,-9,-4,-30,-18,-18,-11
1522257139017139,-76,7,-1,-2,-5,-11,-9,-39
1522257139018142,32,-15,-9,-6,-8,-1,8,33
1522257139018142,-83,4,3,0,8,-7,-8,-37
1522257139041203,13,-6,2,8,17,-13,6,17
1522257139041203,25,3,-1,1,2,23,1,-12
1522257139042206,3,20,4,2,-12,-16,7,29
1522257139042206,-9,-13,-6,-3,-3,16,2,-14
1522257139055240,-9,1,0,0,2,6,6,-3
1522257139055240,-2,2,6,3,15,0,-5,-7
1522257139055240,68,9,3,4,-8,-35,-1,29
1522257139055240,-31,-6,-1,-1,6,41,-5,-23
1522257139077299,-25,4,3,-2,-6,-4,0,-10
1522257139077299,-6,-18,-15,-3,5,9,-15,-11
1522257139078302,32,-2,2,-4,4,4,10,24
1522257139078302,94,10,11,4,-2,-16,10,-15
1522257139100361,-91,-20,-9,-5,-7,-29,-21,-20
1522257139100361,82,9,-1,-8,-2,28,19,21
1522257139101363,-10,12,0,0,2,10,-15,-22
1522257139101363,47,2,-2,-1,-10,-14,4,7
1522257139114397,-3,3,2,6,9,7,0,-18
1522257139114397,38,13,9,9,2,-14,-3,-26
1522257139115400,-88,-15,-9,0,2,16,-6,11
1522257139115400,-19,-2,-1,0,-5,-6,7,22
1522257139137459,14,2,-7,0,-7,-1,7,24
1522257139137459,-32,-4,-1,-5,1,-15,-6,-17
1522257139138462,23,6,5,4,-6,18,12,1
1522257139138462,-26,-5,0,1,-6,-19,-12,-18
1522257139160520,30,3,2,-2,-11,-25,-11,6
1522257139160520,-17,-1,-7,-7,9,27,1,19
1522257139161523,-35,-7,1,-6,6,6,-8,-48
1522257139161523,-8,-11,-8,0,-7,-12,-6,-6
1522257139174557,-15,4,4,2,14,9,10,21
1522257139174557,9,4,5,4,-8,-6,5,19
1522257139175560,29,12,1,-3,8,-1,-5,3
1522257139175560,-87,-21,-8,-15,-15,-27,-5,-35
1522257139197619,28,-8,-1,-2,8,35,8,-1
1522257139197619,31,5,-3,-1,1,-6,14,44
1522257139198621,-54,-10,-4,2,4,3,-17,-42
1522257139198621,68,8,-1,4,-3,0,-3,-4
1522257139220680,-36,-6,-2,0,-1,-5,-12,-15
1522257139220680,-25,-8,-8,-6,-15,-10,-9,-15
1522257139221683,53,11,3,10,3,7,10,32
1522257139221683,-1,-1,1,-7,1,-1,-9,-3
1522257139234717,-13,1,-1,-2,-5,1,7,12
1522257139234717,14,-4,0,-8,-12,-12,-12,-24
1522257139235720,-12,4,6,-3,4,-3,15,9
1522257139235720,9,1,3,5,21,4,7,16
1522257139257778,25,-10,-3,1,-19,-5,2,0
1522257139257778,-3,7,0,2,-14,-37,4,20
1522257139257778,89,-1,-4,-1,5,36,-21,1
1522257139257778,-97,-5,-2,1,4,2,-5,-27
1522257139280840,37,-5,-5,-6,6,4,7,13
1522257139280840,-26,1,4,0,2,0,-1,4
1522257139281843,-10,1,0,-1,-3,-10,5,8
1522257139281843,27,4,-2,0,-2,5,-5,-2
1522257139294877,9,-1,2,2,-2,2,-3,-5
1522257139294877,-34,-11,-7,1,0,-1,-3,-12
1522257139295880,-18,-7,-1,-7,-3,-7,6,6
1522257139295880,31,10,2,2,-2,3,10,29
1522257139316936,-46,-3,0,0,1,-11,1,-10
1522257139316936,9,0,-2,-2,2,6,-8,-29
1522257139317939,18,8,0,-3,-1,5,1,-6
1522257139317939,-24,-18,4,-5,-7,-2,3,4
1522257139340999,-8,-7,1,-2,2,-4,-14,-18
1522257139340999,-1,2,-3,-1,4,5,-6,-7
1522257139340999,8,3,-2,5,-1,-7,1,24
1522257139340999,44,7,-7,0,8,-2,-1,15
1522257139355037,-53,0,0,2,-3,2,2,-21
1522257139355037,19,-8,1,2,3,13,17,39
1522257139356040,-67,0,-11,-2,-11,-11,-2,-18
1522257139356040,33,-17,-2,-1,-7,-3,-11,-9
1522257139377095,22,31,12,4,6,3,-11,0
1522257139377095,-24,1,-2,3,10,-8,-4,-5
1522257139378099,14,0,6,-2,-13,-4,13,12
1522257139378099,36,-6,-9,-6,-5,-8,9,-4
1522257139400157,37,1,-7,-4,0,8,-1,5
1522257139400157,-7,-16,-5,-6,-9,-4,-11,-19
1522257139401160,-26,-11,0,-4,5,1,-4,-1
1522257139401160,-14,4,2,0,-2,-9,2,-15
1522257139415197,82,16,4,3,-8,-34,16,67
1522257139415197,-1,6,-4,-8,-42,43,0,-7
1522257139415197,-109,-24,-6,10,76,-2,-25,-72
1522257139415197,-35,-3,-1,-2,4,12,-8,10
1522257139437255,4,-11,1,-5,0,2,-4,-16
1522257139437255,16,6,5,-1,17,-16,11,20
1522257139438258,77,18,3,2,-29,5,53,93
1522257139438258,31,28,0,3,-8,3,5,16
1522257139460317,-45,-32,-16,-9,3,-16,-46,-51
1522257139460317,-12,-3,2,0,-12,-22,-24,-5
1522257139461320,-12,-12,-1,-1,-8,-3,-11,-4
1522257139461320,36,6,13,3,13,4,24,52
1522257139474354,17,1,2,2,-6,17,23,18
1522257139474354,4,16,-4,3,8,1,1,-13
1522257139482375,-16,-10,-4,-1,-14,-2,-5,-9
1522257139482375,-19,2,-2,5,5,3,5,12
1522257139497416,28,5,4,6,4,4,0,-12
1522257139497416,-29,2,2,0,10,2,2,21
1522257139498418,16,-9,-12,-8,-5,-23,-24,-44
1522257139498418,-63,-20,-7,-6,-9,13,-15,-18
1522257139520477,-25,-6,2,-5,-6,-2,-14,-27
1522257139520477,36,7,6,2,9,-1,25,50
1522257139521479,-39,-2,-3,-6,-19,-6,-16,-48
1522257139521479,43,-13,2,4,21,-23,-10,1
1522257139534514,-76,-9,-8,-4,4,27,-2,-24
1522257139534514,4,-6,-3,-1,-1,7,7,22
1522257139542535,1,0,6,6,22,4,3,-8
1522257139542535,11,2,-3,-5,-4,-14,-8,0
1522257139557575,52,12,-3,1,-6,-7,4,-2
1522257139557575,-26,-15,-7,-3,-3,-15,-10,-33
1522257139558578,-12,-1,1,-2,-14,4,2,16
1522257139558578,-8,-2,-1,-4,0,3,1,-11
1522257139580637,32,5,0,0,3,6,23,73
1522257139580637,-7,2,0,-3,-6,-12,-16,-65
1522257139581639,43,12,-5,-3,-6,12,15,30
1522257139581639,-19,-1,3,-1,-6,-7,-5,1
1522257139594674,-37,2,2,1,4,26,10,2
1522257139594674,12,-12,3,4,4,-6,-6,0
1522257139602695,24,6,4,2,2,0,5,48
1522257139602695,48,7,1,3,-6,-10,-9,-3
1522257139617735,-49,-7,-4,-4,-1,-12,-2,4
1522257139617735,77,-3,2,1,10,10,-4,-13
1522257139617735,10,-4,-5,-8,-19,1,7,5
1522257139617735,-26,0,1,-2,-1,-12,6,6
1522257139640796,31,-2,0,4,-2,6,3,-30
1522257139640796,6,13,0,6,10,22,12,40
1522257139641799,-53,-16,-14,-8,-27,-46,-26,-57
1522257139641799,32,10,6,-1,15,7,-6,-15
1522257139653831,6,-3,3,-4,-23,-7,-5,27
1522257139653831,-38,-4,-1,-3,9,-16,0,5
1522257139662855,26,8,0,0,7,31,7,12
1522257139662855,-31,-3,-7,0,-6,0,7,8
1522257139676892,106,12,0,1,-10,-6,11,20
1522257139676892,-81,-3,-3,-2,-7,-2,-20,-47
1522257139677895,17,-24,1,-2,5,-14,-15,-22
1522257139677895,31,2,-4,-5,-16,5,2,-13
1522257139700956,-60,-9,-5,5,19,-6,1,-17
1522257139700956,58,15,1,-2,-2,3,-3,40
1522257139700956,30,19,5,-10,-62,-11,16,64
1522257139700956,-49,7,-1,4,46,27,0,-17
1522257139713991,-45,-13,-5,-5,-4,-5,-16,-77
1522257139713991,2,15,-3,-5,-4,-4,-2,2
1522257139722012,-22,-1,8,2,8,4,-3,0
1522257139722012,45,14,9,2,-23,-1,23,58
1522257139737052,12,4,-3,-2,-1,-8,-1,19
1522257139737052,-2,-27,-8,2,6,-3,6,-27
1522257139738055,71,24,2,4,12,2,-8,42
1522257139738055,-60,-31,-17,-15,-22,-7,-2,-32
1522257139760113,-13,-6,1,2,14,6,-8,11
1522257139760113,-26,-2,3,-2,-15,1,-6,-5
1522257139761116,30,9,6,3,17,7,9,22
1522257139761116,7,0,0,2,1,-21,-1,-4
1522257139783175,73,5,0,-4,-2,-11,3,24
1522257139783175,-68,2,-5,-3,3,51,14,6
1522257139784178,-33,-7,-12,-2,-36,-16,-18,-87
1522257139784178,2,-5,-4,-1,23,5,-23,-16
1522257139797212,-22,-6,-6,-9,-11,-11,-3,5
1522257139797212,43,-3,1,4,2,-13,4,8
1522257139798215,4,6,8,5,25,13,16,28
1522257139798215,-22,-3,0,-1,-22,3,-10,-30
1522257139820274,40,7,9,5,-4,-2,6,39
1522257139820274,30,1,2,0,-2,-5,5,-11
1522257139820274,-78,-22,-6,4,27,9,18,31
1522257139820274,24,-12,-9,-7,-8,-17,-47,-106
1522257139843335,9,0,3,4,15,10,10,47
1522257139843335,86,9,-4,-4,-10,-12,0,13
1522257139844337,-8,-2,-1,-4,-1,-5,2,9
1522257139844337,-7,6,3,5,3,10,21,42
1522257139857372,-83,-13,-9,-3,-11,-19,-13,-53
1522257139857372,-19,-6,-4,4,5,12,-5,7
1522257139858375,-2,2,4,1,6,1,-8,-24
1522257139858375,2,-2,2,-4,-5,3,1,20
1522257139879431,22,9,5,0,-3,-22,-2,14
1522257139879431,1,1,4,-1,-5,-15,-9,-57
1522257139880433,-2,-8,-6,-3,26,45,7,25
1522257139880433,-25,2,-1,-1,-6,2,-21,-26
1522257139903495,23,8,5,2,2,12,8,8
1522257139903495,-3,0,-3,1,-3,-15,2,22
1522257139903495,6,-7,-3,1,-7,-9,-4,-12
1522257139903495,39,9,7,5,-6,5,21,19
1522257139917532,-43,-8,-5,-2,12,9,3,-20
1522257139917532,62,-5,0,-3,-7,-6,2,31
1522257139918535,13,18,2,-3,-10,-5,2,6
1522257139918535,-65,-17,-8,-5,-4,-8,-5,-24
1522257139939591,31,-3,-5,-4,-6,-1,-5,7
1522257139939591,18,0,4,5,10,11,11,15
1522257139940594,-38,12,1,-2,3,-10,-26,-53
1522257139940594,15,2,2,3,1,-4,0,19
1522257139962652,-26,6,-1,-3,-4,-18,-6,0
1522257139962652,-16,-11,-5,-2,8,29,2,5
1522257139963654,33,-3,-2,2,15,-13,-1,5
1522257139963654,25,1,5,0,-6,21,12,41
1522257139977692,1,-12,0,-3,-16,-14,-11,-21
1522257139977692,-18,-2,-1,2,-3,-1,-4,-21
1522257139978697,-8,-3,-3,1,-5,-6,2,-8
1522257139978697,4,-1,-8,-2,5,-4,2,15
1522257139999750,-5,8,6,5,13,18,13,22
1522257139999750,-77,-8,-6,-8,-10,-21,-9,-21
1522257140000753,35,3,-7,-3,-3,-4,-4,-5
1522257140000753,4,-9,-5,-5,-7,-4,-1,5
1522257140022812,-4,11,1,0,0,-20,10,-1
1522257140022812,15,5,-7,-13,-15,22,-3,13
1522257140023815,28,-9,8,4,34,28,4,11
1522257140023815,-67,-3,4,1,10,-12,-24,-42
1522257140037852,57,-6,1,-1,-3,2,5,20
1522257140037852,20,10,6,7,13,-12,0,18
1522257140037852,46,26,3,2,-17,-1,19,36
1522257140037852,-31,-13,-11,3,1,-2,12,14
1522257140059911,-12,-6,-9,-2,5,-2,-17,-53
1522257140059911,-48,-5,-2,-8,-14,4,-11,-8
1522257140060913,22,14,-8,-3,-9,-3,-18,-38
1522257140060913,32,-13,14,5,2,4,15,39
1522257140082972,-19,14,11,3,0,10,-2,-13
1522257140082972,18,2,1,6,15,-12,4,0
1522257140083974,4,-6,1,4,-16,-2,14,13
1522257140083974,50,13,-9,-2,21,17,4,8
1522257140097009,-83,-20,-9,-13,-38,-9,-24,-51
1522257140097009,17,-7,0,-1,-5,-11,-4,-2
1522257140098012,-34,2,0,-1,10,-2,-3,-23
1522257140098012,31,16,8,4,-2,-5,10,15
1522257140120070,113,15,11,1,-9,-3,26,92
1522257140120070,-42,16,-4,0,27,23,9,25
1522257140121073,-78,-34,-12,-11,-16,-2,-31,-73
1522257140121073,11,0,-2,-3,-6,-8,-14,6
1522257140143131,-10,-5,-1,5,14,13,-2,4
1522257140143131,28,7,7,2,-24,-22,4,8
1522257140144134,6,0,6,1,12,0,26,56
1522257140144134,33,2,-4,-9,-21,0,-18,-53
1522257140157169,-60,-17,-14,9,43,-1,-10,-37
1522257140157169,-6,2,-6,1,-3,-11,-3,-4
1522257140158172,-18,-5,-3,0,7,5,-4,17
1522257140158172,71,-4,3,0,3,-4,17,46
1522257140180230,-65,4,-8,-6,-28,6,-2,-31
1522257140180230,-7,-68,-21,-13,-5,-8,-24,-47
1522257140180230,-23,38,25,2,-1,-5,-9,-15
1522257140180230,0,3,6,2,3,-4,4,17
1522257140203291,22,-3,-5,-4,-3,-6,16,27
1522257140203291,88,12,-1,4,12,24,31,68
1522257140204294,-104,-30,-16,-5,-18,-21,-56,-111
1522257140204294,25,8,-2,-1,-9,1,8,40
1522257140217328,16,-7,-1,-3,2,-9,-5,-5
1522257140217328,2,0,2,-2,-43,-13,9,13
1522257140218331,38,-8,-4,-1,16,13,6,-11
1522257140218331,-4,18,5,2,-13,-6,2,13
1522257140239387,-6,-5,-5,3,27,17,-25,-62
1522257140239387,-37,13,3,-4,-6,5,-8,0
1522257140240390,72,3,3,5,-5,-7,9,37
1522257140240390,-40,-6,-3,-1,9,-1,-14,-42
1522257140263451,75,2,2,-5,-8,1,8,7
1522257140263451,-64,10,3,0,-12,-23,-42,-55
1522257140263451,26,-9,-3,0,0,-3,3,38
1522257140263451,-69,0,-3,-3,3,4,-2,-42
1522257140285510,53,6,5,3,-5,8,22,66
1522257140285510,-52,-4,-1,-2,9,3,6,-38
1522257140286512,20,-1,-3,-5,-3,-6,-6,4
1522257140286512,39,-18,-4,1,1,2,18,43
1522257140299548,-33,11,-11,-8,-6,-4,-19,-44
1522257140299548,23,14,0,-1,7,-3,3,12
1522257140300550,-13,-8,6,-4,-11,-5,6,9
1522257140300550,-24,-11,-4,3,-7,0,7,-1
1522257140322608,21,-4,-1,3,22,9,18,20
1522257140322608,0,-7,-10,-3,3,-8,-11,-18
1522257140323611,12,5,-6,-5,-12,-10,-19,-5
1522257140323611,-20,-2,5,-1,4,1,-13,-29
1522257140337648,-1,2,13,3,-9,-20,-3,8
1522257140337648,25,10,5,2,-6,17,0,-1
1522257140338652,-83,6,4,-1,50,3,22,25
1522257140338652,32,-13,-11,-1,5,9,14,-4
1522257140359707,-51,-4,-13,-8,-28,-3,-19,-5
1522257140359707,26,0,-2,-2,2,-4,-14,-22
1522257140360710,54,7,0,5,-12,-4,-4,22
1522257140360710,-37,8,4,0,3,-4,2,31
1522257140382769,-27,-21,0,-2,10,1,-4,-23
1522257140382769,16,3,-1,-2,-1,-8,5,3
1522257140383771,1,-10,-7,2,-6,4,11,19
1522257140383771,20,5,-2,-3,5,-8,1,14
1522257140396806,-41,-2,-1,-1,-37,15,19,-15
1522257140396806,6,0,0,6,15,-30,-54,-60
1522257140404827,16,3,3,-2,-13,-18,1,-4
1522257140404827,23,-3,2,2,12,16,0,-5
1522257140419867,-15,-6,-1,-4,1,3,4,45
1522257140419867,-35,-18,4,-5,-5,-8,19,13
1522257140420870,-10,4,0,-4,1,11,-4,-22
1522257140420870,31,17,-1,1,-10,-7,-4,2
1522257140442928,37,-7,-8,2,9,6,-6,1
1522257140442928,1,22,6,8,3,4,24,62
1522257140443931,-39,-31,-13,-5,-13,-14,-33,-88
1522257140443931,-24,-11,-10,-8,-9,6,-7,-18
1522257140456965,19,8,5,1,5,-2,-6,7
1522257140456965,4,0,5,2,-1,5,18,15
1522257140464987,32,2,2,-2,-5,0,18,20
1522257140464987,-12,-8,-3,-2,-4,-7,-10,-41
1522257140480027,-2,0,-7,1,10,-4,-5,-22
1522257140480027,64,7,5,5,-13,2,16,46
1522257140481029,-42,17,1,0,16,8,-5,53
1522257140481029,-39,-14,-8,-8,-4,-1,-6,-11
1522257140503088,-4,-10,-1,-4,3,-5,-24,-46
1522257140503088,-24,-2,1,-2,12,6,-2,17
1522257140504091,12,-1,0,5,-16,-6,7,1
1522257140504091,27,13,3,1,-4,-6,-1,24
1522257140517125,9,5,9,1,-1,6,11,21
1522257140517125,-5,-5,-1,-2,4,1,7,-12
1522257140525147,116,2,2,-10,-2,-19,-3,32
1522257140525147,-96,4,6,7,-48,24,11,-1
1522257140540187,-31,-23,-9,3,22,7,-4,-47
1522257140540187,23,-10,-9,-1,1,-5,-9,-24
1522257140541190,-17,9,-1,8,7,7,11,6
1522257140541190,46,5,3,-5,2,-6,6,30
1522257140563248,13,12,0,-9,-26,-9,6,18
1522257140563248,-42,-2,-3,-3,-3,-3,3,7
1522257140564251,70,-2,1,2,4,21,19,22
1522257140564251,27,0,-11,-8,8,-19,-32,-32
1522257140576282,-85,-2,-2,-1,5,1,-3,-9
1522257140576282,-11,-1,3,-3,3,-3,-17,-44
1522257140585306,5,-11,8,5,-4,10,38,72
1522257140585306,19,2,1,4,6,-11,-50,-101
1522257140600347,18,2,4,5,-2,-1,6,31
1522257140600347,-25,-3,-5,-2,-10,3,-1,7
1522257140600347,-8,-2,3,-4,9,-24,8,0
1522257140600347,-16,-2,6,6,-22,41,26,23
1522257140623408,80,-2,-12,-4,0,3,-10,-14
1522257140623408,-32,25,9,1,6,-1,-9,-17
1522257140623408,-8,3,-1,-2,7,12,-11,-25
1522257140623408,-2,-2,-5,-7,-15,-33,5,20
1522257140636442,41,1,-1,-2,-2,-6,5,39
1522257140636442,56,-4,-7,0,-1,13,13,6
1522257140644464,-72,-6,-6,-4,-7,-5,-10,-24
1522257140644464,-32,6,-8,-7,5,-2,-10,-26
1522257140659504,18,-1,18,7,4,5,5,8
1522257140659504,12,1,-1,0,4,-1,9,39
1522257140660507,10,5,-1,0,-33,-10,-8,-6
1522257140660507,-26,-10,-2,5,30,-9,1,-17
1522257140683568,7,10,2,2,9,8,9,50
1522257140683568,-25,-6,-5,-3,-12,-17,-18,-67
1522257140683568,16,-1,-2,-6,7,10,-8,-16
1522257140683568,29,2,-1,-2,-17,13,16,43
1522257140696602,4,-3,-3,-3,0,-18,-4,-53
1522257140696602,-28,-11,6,1,2,12,5,36
1522257140704623,29,-5,-5,2,19,12,0,-20
1522257140704623,65,9,8,-4,-30,-15,-8,4
1522257140719664,-32,-4,3,13,80,-15,4,22
1522257140719664,33,-8,-7,0,1,8,-19,-24
1522257140720666,-69,-2,-3,3,-11,0,3,4
1522257140720666,21,-19,-5,-3,24,-2,11,25
1522257140742725,17,18,4,-2,-34,3,2,6
1522257140742725,-11,4,-1,-4,-8,-5,-4,-14
1522257140743728,4,-4,-11,0,12,-3,-11,-11
1522257140743728,11,2,1,6,-3,4,11,34
1522257140765786,4,28,5,0,-10,7,6,16
1522257140765786,-61,-24,-3,-3,25,1,2,-29
1522257140766789,11,6,3,-10,-54,-5,-16,-27
1522257140766789,-26,-6,-2,-2,10,-5,-4,-32
1522257140779824,-15,-17,-6,-5,-24,-4,-5,-13
1522257140779824,50,25,6,1,6,-1,10,45
1522257140780826,-12,-8,2,2,17,3,13,15
1522257140780826,-63,-17,0,1,8,-1,-16,-23
1522257140802885,121,15,0,-3,-4,6,-11,27
1522257140802885,-86,-15,-6,0,-18,-33,-6,-31
1522257140803888,-60,-15,-11,-1,4,38,-5,0
1522257140803888,-8,-6,-6,-2,8,-6,-5,-25
1522257140825946,-15,7,0,-1,-7,-2,7,7
1522257140825946,33,5,7,-2,-6,-4,-1,13
1522257140825946,30,3,4,-1,-8,-12,-2,14
1522257140825946,-10,12,4,0,3,4,5,23
1522257140839983,28,-12,-4,2,0,7,9,17
1522257140839983,98,-2,-7,-4,-3,1,0,-31
1522257140840986,-86,12,-1,-4,4,-10,-2,-7
1522257140840986,-25,-28,-9,-11,-2,-13,-19,-51
1522257140863044,-36,-26,-7,-4,-5,-7,-16,-19
1522257140863044,32,10,5,-3,2,7,4,26
1522257140864048,22,-1,12,4,5,2,13,28
1522257140864048,5,14,-1,4,-1,1,5,9
1522257140886106,-28,4,-5,-2,-6,-2,1,-17
1522257140886106,-22,-1,-5,3,-1,3,1,2
1522257140886106,25,-8,-6,-2,-6,-9,-9,-13
1522257140886106,0,6,0,6,18,5,6,19
1522257140900144,53,7,3,0,-7,-9,0,33
1522257140900144,-62,7,-4,-5,-23,19,-1,-8
1522257140901146,-25,-15,-9,5,31,-22,-25,-57
1522257140901146,25,-11,-1,2,8,21,2,9
1522257140923205,2,4,1,-1,-12,-1,3,6
1522257140923205,16,7,8,-4,7,0,18,37
1522257140924208,16,5,8,-3,-19,-11,-7,-1
1522257140924208,17,5,4,2,3,-3,2,-3
1522257140945263,-67,8,-3,2,11,7,2,-20
1522257140945263,99,0,-1,-1,-2,-3,-4,18
1522257140946266,-93,-12,11,2,9,5,5,-8
1522257140946266,2,-9,-5,-5,-29,-7,-3,-26
1522257140960303,11,-13,-3,-2,-7,0,0,-8
1522257140960303,-33,-4,-6,0,-5,2,-5,-15
1522257140960303,71,14,-4,-7,0,2,2,8
1522257140960303,3,-1,3,1,-4,-6,5,6
1522257140982362,-30,3,-8,-2,-6,-2,-10,-16
1522257140982362,-44,-5,2,0,-4,-5,-12,-29
1522257140983365,46,4,-2,-1,-5,3,9,34
1522257140983365,-22,11,6,0,4,-6,4,18
1522257141005423,4,-14,-3,-4,2,-3,-4,-4
1522257141005423,2,11,4,-1,9,0,5,14
1522257141006426,26,-5,-3,3,-10,-4,-2,-16
1522257141006426,-14,3,-1,1,1,3,1,12
1522257141019460,25,-11,6,6,11,6,11,20
1522257141019460,-81,-20,-10,-1,-8,-11,-24,-72
1522257141020463,3,9,-9,-11,-13,-11,-11,-4
1522257141020463,-28,17,6,-3,3,14,-8,-19
1522257141042522,29,3,12,4,4,9,8,35
1522257141042522,-30,-9,-2,-1,8,-6,19,3
1522257141043524,33,-4,-2,8,21,-1,25,32
1522257141043524,77,3,-11,-13,-28,-7,-13,-33
1522257141065583,-52,7,-2,-1,-6,-2,-2,-22
1522257141065583,-13,-14,-9,-2,-6,0,-14,11
1522257141066586,-2,6,3,3,3,-3,-5,-3
1522257141066586,29,-2,6,4,10,-2,13,55
1522257141079620,-4,-5,-2,-6,-9,-13,3,5
1522257141079620,-6,-8,-5,9,41,18,-11,-70
1522257141080623,-10,-4,-9,-1,-13,12,-10,8
1522257141080623,-33,17,-10,-1,-3,-3,7,12
1522257141102681,-8,-14,3,1,2,-1,-12,-21
1522257141102681,42,20,11,5,-7,-10,13,49
1522257141102681,6,-13,4,-4,2,0,1,-16
1522257141102681,-25,-9,2,1,12,9,9,6
1522257141125743,87,-3,-10,-8,-5,-4,4,12
1522257141125743,-59,-2,-7,-10,-13,-8,-13,-40
1522257141126746,-10,-3,-7,-7,-13,-9,-23,-39
1522257141126746,-23,-10,-2,-1,-10,-13,-18,-37
1522257141139780,31,13,3,4,4,8,6,13
1522257141139780,-4,-1,0,4,-4,-7,9,15
1522257141140783,46,11,4,2,3,9,22,36
1522257141140783,47,-6,-2,2,11,12,-11,39
1522257141162841,-92,-37,-10,-3,-4,-3,-32,-116
1522257141162841,56,13,2,-4,1,3,7,83
1522257141162841,-23,8,1,-2,-6,-7,2,-13
1522257141162841,63,5,4,-3,-7,-16,4,34
1522257141185902,-17,-17,-1,-2,5,7,-1,-7
1522257141185902,-13,1,3,-1,-10,5,3,5
1522257141186906,40,4,4,4,12,-5,13,27
1522257141186906,-14,-1,-5,-2,14,6,-5,-44
1522257141199940,-25,5,-6,3,5,3,-13,32
1522257141199940,-21,-3,-5,-3,2,-8,-11,-22
1522257141200943,-1,-2,1,1,-19,0,-6,-3
1522257141200943,-17,12,11,4,15,-2,9,5
1522257141221998,-6,15,5,-4,-14,-17,12,19
1522257141221998,45,-5,-1,0,1,32,7,0
1522257141223001,-52,-3,-4,-2,26,9,-11,-24
1522257141223001,-21,-29,-6,-6,-26,-14,-14,12
1522257141246062,34,9,3,1,8,10,1,-13
1522257141246062,8,8,5,0,-24,-10,15,39
1522257141246062,27,-10,-3,-1,-7,-5,4,14
1522257141246062,-83,-1,4,3,7,10,11,-21
1522257141260100,6,0,-7,-1,-6,-8,-1,24
1522257141260100,18,7,-1,-1,14,-5,-2,-15
1522257141261103,11,2,-2,-3,-1,-4,-7,-4
1522257141261103,31,3,-1,-4,-15,-1,-7,-22
1522257141282159,-6,10,-2,0,4,4,7,29
1522257141282159,19,-2,-5,-5,-16,-8,-19,-36
1522257141283161,-51,-15,-1,0,3,-3,-4,-1
1522257141283161,5,4,2,1,1,11,9,27
1522257141305220,3,16,5,0,-3,-11,8,-6
1522257141305220,11,-6,1,-4,15,-5,1,13
1522257141306223,94,0,0,6,9,64,6,-7
1522257141306223,-28,-19,-12,1,7,-11,-2,-10
1522257141320260,23,-1,-5,-2,-12,-22,-10,2
1522257141320260,20,12,4,0,7,-14,-9,1
1522257141320260,-8,-5,4,-2,7,-32,-4,-3
1522257141320260,28,-2,0,-2,-14,13,7,3
1522257141342318,-13,-2,0,-3,-6,-1,9,-2
1522257141342318,11,17,3,-2,-14,-1,9,22
1522257141343321,20,-19,-9,-4,-8,-7,-13,-21
1522257141343321,-41,1,-2,2,13,-2,-7,-6
1522257141365380,-17,14,8,-1,8,-6,-3,-23
1522257141365380,33,-8,-3,5,-5,6,20,67
1522257141366382,-35,-13,-17,-7,0,-6,-25,-54
1522257141366382,32,37,17,3,7,-1,1,-6
1522257141379421,-1,-14,-6,-3,-6,-7,-7,-9
1522257141379421,7,0,2,-2,-10,18,2,12
1522257141387438,-22,-7,-2,-1,0,7,13,19
1522257141387438,45,3,-8,-6,-9,-30,-12,30
1522257141402478,-14,3,2,2,12,30,1,-42
1522257141402478,-2,-13,-4,-2,2,-7,-9,-20
1522257141403481,-1,12,0,-1,-10,-10,11,33
1522257141403481,-30,-6,-1,6,13,2,-7,-24
1522257141425539,53,2,-1,2,-2,2,4,12
1522257141425539,-17,-12,-4,1,0,-7,0,12
1522257141426542,-1,-1,2,-6,-4,-1,0,-11
1522257141426542,11,1,1,-5,-27,4,6,0
1522257141439577,11,4,-4,-2,3,-2,-6,23
1522257141439577,-8,-22,-4,-5,-1,-2,-10,-22
1522257141447598,15,41,9,0,-9,-7,7,19
