timestamp,emg1,emg2,emg3,emg4,emg5,emg6,emg7,emg8
1522257262227108,-40,-8,-1,19,4,1,-3,-9
1522257262227108,-8,-8,-9,-24,-12,-3,-4,7
1522257262228110,7,-1,-3,23,33,-8,-4,-9
1522257262228110,48,13,8,8,27,6,1,8
1522257262230116,-37,-2,0,-5,4,-7,0,-15
1522257262230116,3,-2,-2,-19,-5,-4,3,2
1522257262231118,-1,-6,-7,-13,-4,9,3,6
1522257262231118,-10,-4,-1,3,-41,-8,-2,-12
1522257262237135,20,5,2,-9,-2,-6,4,7
1522257262237135,-16,-6,3,2,5,-4,-8,-13
1522257262243150,-10,-3,-4,-11,-11,-3,-5,-6
1522257262243150,36,10,0,-7,41,2,2,10
1522257262258195,30,-1,-2,1,7,-4,-3,-3
1522257262258195,-52,-11,-8,-53,-26,12,5,-11
1522257262269223,5,-1,2,28,-11,-8,1,0
1522257262269223,-25,1,7,60,22,11,1,-9
1522257262273230,28,5,3,-15,-1,-1,2,10
1522257262273230,34,2,3,43,-15,-1,5,16
1522257262298297,-26,-5,-7,-13,3,-3,-5,-19
1522257262298297,-78,-6,-3,-24,-12,0,0,-1
1522257262336404,7,-1,-2,-4,21,3,-3,8
1522257262336404,-7,-6,-6,-19,-7,-1,-1,-12
1522257262337401,-16,1,5,19,-8,5,0,-8
1522257262337401,-3,-8,-5,5,-2,-1,-1,-9
1522257262338403,8,1,-5,-4,-12,-4,1,9
1522257262338403,-5,0,2,-14,29,11,-2,-6
1522257262340409,9,-1,-2,-15,-24,-12,-4,-4
1522257262340409,-36,-4,2,19,-13,-20,1,3
1522257262349433,16,0,1,-22,3,-18,-1,-2
1522257262349433,15,2,2,31,29,14,2,12
1522257262355448,-4,0,-8,-49,-55,-5,2,-7
1522257262355448,-3,-3,2,18,8,19,14,7
1522257262363470,7,-2,-3,33,-17,-9,-8,-13
1522257262363470,-19,4,1,14,-9,-7,-4,9
1522257262378511,-3,5,1,-2,15,-1,-2,2
1522257262378511,16,-3,-3,-26,14,-4,-6,-16
1522257262386531,-9,1,1,-6,-3,6,0,-7
1522257262386531,5,5,3,-8,-18,0,6,3
1522257262409592,0,-2,3,15,24,6,0,5
1522257262409592,-8,-4,-4,-6,-11,-3,-1,14
1522257262410596,12,0,-3,0,16,9,1,-1
1522257262410596,-35,-3,-5,-2,-11,-15,-7,-16
1522257262423630,11,0,-6,-44,-9,-5,2,3
1522257262423630,24,3,4,58,15,12,0,2
1522257262424633,-29,-3,5,11,-30,-3,0,-2
1522257262424633,14,2,-6,-67,-16,-4,1,1
1522257262446691,17,2,6,78,58,9,0,6
1522257262446691,-1,-3,0,-5,-18,4,4,1
1522257262447694,-30,-2,-4,-1,0,-6,-2,-16
1522257262447694,54,4,2,6,-3,-1,-5,-6
1522257262469752,-4,-3,1,-20,-9,-8,0,10
1522257262469752,-10,9,4,-15,15,2,1,6
1522257262470755,-32,-21,-16,5,8,-4,-18,-33
1522257262470755,-6,-10,-3,-1,1,-1,-2,-7
1522257262483790,9,-4,-2,-2,18,2,-1,6
1522257262483790,38,3,0,4,-15,-2,-4,6
1522257262484792,6,5,3,-8,-3,3,8,14
1522257262484792,-20,-3,0,8,-8,-2,-1,-6
1522257262506851,18,3,1,7,-4,-2,-5,3
1522257262506851,-25,3,0,-11,10,4,3,-11
1522257262507854,-8,0,-3,-15,10,7,2,-5
1522257262507854,24,1,1,10,-15,-2,5,25
1522257262529912,-12,-7,-1,11,8,-5,1,-22
1522257262529912,-11,-5,-7,-16,2,-19,-11,-13
1522257262530915,18,14,7,-1,-3,3,0,13
1522257262530915,8,1,-5,-9,3,-6,6,6
1522257262543949,19,3,-1,-15,40,3,4,7
1522257262543949,6,-2,0,38,-1,1,0,3
1522257262544952,9,-2,-2,7,5,-4,3,-4
1522257262544952,-53,0,2,3,-27,18,-1,0
1522257262567011,-2,-5,-2,-7,-28,-9,-3,8
1522257262567011,50,0,-2,-24,6,-7,-3,0
1522257262568014,17,5,0,-1,8,2,4,10
1522257262568014,-3,-5,0,9,9,-2,-4,-6
1522257262590072,3,4,-1,-7,-12,4,-2,-2
1522257262590072,-65,-5,0,-26,-30,-7,-6,-2
1522257262590072,48,11,0,-4,13,12,2,8
1522257262590072,-7,3,2,17,26,1,-2,5
1522257262604109,2,-6,-6,7,-22,0,-2,-16
1522257262604109,-29,-5,-6,-3,-11,-11,-9,-12
1522257262605112,-17,-7,0,-23,-17,1,-5,-1
1522257262605112,-4,0,-6,-90,-8,-13,-6,-15
1522257262627170,-29,4,8,86,24,1,0,12
1522257262627170,5,1,0,6,-7,7,0,1
1522257262628174,29,5,1,33,3,4,8,9
1522257262628174,-24,-3,0,15,15,4,0,-3
1522257262649229,20,-2,-7,-40,-38,-7,-6,2
1522257262649229,20,0,-2,-31,6,-5,-5,12
1522257262650232,-5,-3,3,21,-12,2,0,16
1522257262650232,-10,-5,-4,21,-11,-8,-10,-29
1522257262664270,-35,-3,1,-9,13,1,0,-10
1522257262664270,43,8,0,11,9,8,1,12
1522257262665272,-30,4,3,-19,-2,-2,2,5
1522257262665272,-44,-5,1,4,-37,-4,7,-7
1522257262687330,-25,-10,-5,-11,17,2,-2,0
1522257262687330,6,-1,0,-2,19,-5,1,1
1522257262688334,8,1,-3,-13,-40,-7,2,3
1522257262688334,40,4,1,-1,55,-13,-11,22
1522257262709389,6,8,3,-12,-7,-3,4,4
1522257262709389,9,-4,-6,12,32,23,11,2
1522257262710392,-19,-1,-1,21,-31,-15,-5,-21
1522257262710392,-10,-1,1,9,66,25,6,-10
1522257262724429,22,5,6,14,13,-13,3,19
1522257262724429,-19,-13,-10,-40,-73,0,-13,-20
1522257262724429,38,2,2,14,57,-2,-9,5
1522257262724429,23,1,1,13,-22,2,5,-16
1522257262747491,-16,-5,-1,-15,11,-6,-8,-9
1522257262747491,5,-7,-7,-14,10,7,30,-48
1522257262748493,-28,-9,-7,-20,24,9,-2,-18
1522257262748493,62,3,1,1,-61,-15,-2,45
1522257262769549,-38,-1,-6,-7,-20,1,-9,-67
1522257262769549,-24,-5,0,11,-2,-15,-5,-13
1522257262770552,7,5,-3,-7,33,4,0,-2
1522257262770552,20,3,5,9,12,9,0,17
1522257262783586,2,-13,-10,-57,-11,1,4,-13
1522257262783586,-10,2,7,57,-40,-13,-8,9
1522257262784589,-3,1,1,18,-6,1,0,-2
1522257262784589,-4,7,1,-12,-32,-6,-1,-11
1522257262807650,38,2,0,16,6,19,2,26
1522257262807650,-32,-6,-4,-44,28,7,-4,2
1522257262807650,-47,-4,-1,0,-41,-8,-3,-2
1522257262807650,16,1,-4,-14,-62,-27,-6,8
1522257262829709,-11,2,4,15,50,13,-8,16
1522257262829709,15,1,0,42,19,6,2,-5
1522257262830712,2,-5,-5,-8,-27,-1,8,-4
1522257262830712,-47,-3,1,2,22,11,1,0
1522257262851768,17,-1,-2,-11,8,-15,-13,-8
1522257262851768,10,4,-2,-16,-13,-4,-4,8
1522257262852770,17,6,8,-7,-12,-4,2,8
1522257262852770,-13,-5,-2,0,16,-4,-6,-26
1522257262866807,-11,-5,-5,11,-23,-1,6,12
1522257262866807,37,-1,-2,-2,13,-10,-5,20
1522257262867810,-28,-7,-5,-30,-39,-4,-6,-16
1522257262867810,26,1,1,9,25,8,4,8
1522257262889869,2,1,4,25,2,6,-3,2
1522257262889869,-13,-2,-1,13,21,1,1,2
1522257262890872,41,10,6,-9,43,25,2,22
1522257262890872,-29,-3,1,11,7,3,-6,-16
1522257262902903,-1,-3,-5,-37,0,-2,-2,5
1522257262902903,34,-6,-4,18,-27,-35,-9,-6
1522257262911928,26,-2,-4,-26,-10,-16,-7,-3
1522257262911928,-8,0,4,17,18,3,4,-5
1522257262926967,4,4,2,23,-15,4,12,6
1522257262926967,-11,6,1,-20,0,6,0,3
1522257262926967,13,0,-1,12,14,5,8,16
1522257262926967,7,7,-1,8,0,-6,-3,-2
1522257262950028,-3,-1,4,-6,-3,-6,-4,-7
1522257262950028,9,-1,-4,-47,8,1,-7,2
1522257262950028,16,-1,4,53,20,9,0,-5
1522257262950028,12,-2,0,0,11,9,6,1
1522257262963063,-66,-7,-6,0,-47,-9,-6,-6
1522257262963063,8,0,2,-8,-21,-5,1,6
1522257262971085,0,0,-5,-21,-7,10,4,-3
1522257262971085,33,1,-1,7,-8,-8,-4,4
1522257262986125,38,6,2,14,18,8,6,10
1522257262986125,-27,1,2,7,6,13,14,7
1522257262987127,-26,-16,-7,-16,6,-5,-6,-32
1522257262987127,11,-6,-6,-17,-14,-4,-7,13
1522257263009186,-34,-11,-9,-17,-49,-16,-10,1
1522257263009186,-3,5,6,30,-6,10,5,5
1522257263016204,-13,2,-3,-31,27,-1,0,-7
1522257263016204,-5,1,4,55,-10,-6,0,-16
1522257263023223,19,2,-3,-2,0,-1,5,-2
1522257263023223,24,3,-4,-12,17,-14,-5,21
1522257263031245,-44,-1,3,-13,2,-7,-1,5
1522257263031245,7,-5,-5,-22,12,0,-10,-32
1522257263046284,38,-1,1,-9,-13,-5,1,-6
1522257263046284,6,-1,0,6,-3,-12,-3,-6
1522257263047287,-48,-12,1,19,-10,4,-3,-9
1522257263047287,-73,-5,-5,-19,0,2,13,14
1522257263069346,60,9,4,13,40,5,2,-3
1522257263069346,15,3,1,-12,0,-5,-5,-3
1522257263070349,43,5,-2,1,-19,-9,-3,8
1522257263070349,-20,-4,-2,-1,3,-3,6,-3
1522257263083383,-9,-2,-1,-10,4,13,12,14
1522257263083383,-13,-6,-1,-2,7,6,-9,-23
1522257263091404,20,5,2,19,25,-18,-10,8
1522257263091404,39,-5,-3,0,-22,10,7,18
1522257263106444,-47,-1,3,18,-1,1,2,4
1522257263106444,-1,6,3,12,12,7,6,11
1522257263107447,-15,4,-2,-3,-4,6,-10,1
1522257263107447,55,4,-1,-24,26,1,4,47
1522257263129506,-1,-3,3,11,-9,-9,-17,-29
1522257263129506,-16,-4,-4,-5,-6,2,-8,1
1522257263130509,7,-2,-2,-1,-32,-14,-7,-18
1522257263130509,-13,-2,-2,7,26,4,8,-2
1522257263143543,40,12,6,-3,32,14,5,22
1522257263143543,-82,-3,-1,0,-36,-6,-2,-11
1522257263151565,30,2,0,-15,-9,-5,-7,-4
1522257263151565,-28,-2,-4,4,2,-7,-4,-28
1522257263166605,-4,-5,-4,-7,-6,-1,2,4
1522257263166605,79,8,2,11,33,2,2,14
1522257263167609,-53,-7,1,-3,-4,14,8,5
1522257263167609,-22,-4,-2,-3,-6,-5,-11,-29
1522257263189666,19,-3,-1,-17,-33,-2,-3,10
1522257263189666,-20,-1,-4,-16,-7,8,3,-14
1522257263190669,17,1,1,36,-6,-2,0,8
1522257263190669,1,-4,-6,-9,-8,0,-2,-13
1522257263203710,3,9,4,9,7,-13,-3,-16
1522257263203710,-8,-4,0,-14,7,0,-3,5
1522257263211725,4,3,6,-21,65,13,10,13
1522257263211725,11,1,-1,7,6,-11,-8,10
1522257263226765,-15,-5,-5,21,-49,-39,-1,-1
1522257263226765,-16,-6,-4,-11,6,2,2,-28
1522257263227767,-10,-1,-2,1,-34,-3,-6,-8
1522257263227767,58,4,4,-9,2,10,9,-1
1522257263249825,-15,0,-2,-15,12,1,-5,6
1522257263249825,5,0,2,1,7,3,-1,-1
1522257263250828,8,-5,-10,4,12,-8,4,12
1522257263250828,0,15,-1,-4,15,18,-12,23
1522257263271884,-8,-11,3,0,-27,-2,-3,-15
1522257263271884,-2,-1,-1,8,10,9,3,-2
1522257263272887,24,-5,-4,-4,-28,-19,2,-6
1522257263272887,-34,-2,-4,-1,-16,-4,5,8
1522257263286924,-7,-11,-8,-12,29,3,-1,-35
1522257263286924,17,-3,-2,7,-12,4,-8,6
1522257263286924,-3,0,-1,-38,-7,-1,3,-4
1522257263286924,38,4,7,23,-5,-6,0,6
1522257263307980,-27,5,-1,4,25,15,1,11
1522257263307980,35,-3,0,25,-17,-18,-10,-5
1522257263317004,-12,4,-1,7,3,0,-2,3
1522257263317004,-17,-12,-3,-22,-55,-8,-7,-21
1522257263333047,1,-4,-3,-8,18,11,4,15
1522257263333047,5,1,-6,-3,-8,-5,3,-1
1522257263334050,-1,7,9,-1,12,-4,1,-7
1522257263334050,-14,-2,5,21,-4,6,-3,-6
1522257263355105,-6,-2,-5,10,14,6,2,2
1522257263355105,-8,-4,-6,-11,-4,3,-3,21
1522257263356108,7,4,-3,3,7,0,-4,-17
1522257263356108,2,-9,2,-6,16,-3,3,23
1522257263368140,6,-9,0,5,9,-1,3,3
1522257263368140,-10,3,2,-5,-40,-4,6,5
1522257263377164,-23,-10,-3,-2,-18,-9,1,-2
1522257263377164,-14,-1,0,5,23,5,6,7
1522257263392204,12,5,-4,-10,-10,-4,-9,-14
1522257263392204,4,3,2,-23,-57,1,-12,10
1522257263394209,33,-1,-1,46,33,22,-3,8
1522257263394209,-84,-9,-4,7,-4,26,1,-23
1522257263415265,28,-3,-5,-12,2,-10,-7,0
1522257263415265,-13,3,1,7,28,5,1,-5
1522257263416268,51,14,0,-21,13,-7,-1,3
1522257263416268,-67,-9,-5,-10,-64,-13,-9,-1
1522257263428300,-7,4,9,48,-14,11,5,7
1522257263428300,-6,3,-2,-13,22,-10,-1,-9
1522257263437324,15,-8,-2,7,1,4,8,32
1522257263437324,17,3,-5,-13,26,-11,-5,-29
1522257263452364,-3,4,-2,-21,-13,-9,0,-2
1522257263452364,25,7,1,8,4,-1,-3,15
1522257263453366,-65,-4,7,-4,-5,3,4,-4
1522257263453366,1,-2,-1,-5,-2,-1,-2,-5
1522257263474422,17,-4,-6,-4,8,-1,-7,-20
1522257263474422,0,-2,1,6,29,14,-1,19
1522257263476428,-5,-3,-3,-8,-4,-14,-8,-10
1522257263476428,22,-1,0,-1,22,3,2,2
1522257263488460,-3,3,-1,-1,-38,-9,3,10
1522257263488460,-7,-2,-4,-2,40,-2,2,-5
1522257263497484,14,-4,-3,-16,-24,-12,-9,-20
1522257263497484,32,9,7,3,-6,-12,-4,3
1522257263512524,-83,-15,-3,16,-3,7,6,-14
1522257263512524,26,-3,-2,-2,13,-3,4,-8
1522257263513526,5,5,-2,10,-28,-3,-3,2
1522257263513526,56,0,-5,-19,8,2,1,10
1522257263534582,-2,1,0,-43,3,-9,1,9
1522257263534582,-21,-1,7,34,-7,-6,-3,-19
1522257263536588,-37,1,6,25,6,11,9,6
1522257263536588,4,15,-6,7,5,1,-7,18
1522257263548619,4,-18,-11,-17,10,-8,-11,-13
1522257263548619,-14,0,6,-18,-10,2,4,13
1522257263557644,12,-4,-2,-3,6,0,1,-8
1522257263557644,1,-1,3,0,-8,-7,4,-2
1522257263572683,-39,-1,-8,5,23,6,3,-1
1522257263572683,3,-3,-7,-3,-30,-3,1,-4
1522257263573687,4,5,3,3,-5,6,0,5
1522257263573687,33,0,-5,2,10,-13,1,-1
1522257263594742,-40,4,4,6,28,15,-6,-1
1522257263594742,-3,-7,-3,-5,-36,21,10,-10
1522257263596748,25,0,-3,-5,15,-9,4,16
1522257263596748,-26,-4,-2,0,-24,-2,-1,-29
1522257263608779,55,-2,-4,-14,-6,-3,-2,17
1522257263608779,-23,5,3,-20,67,-18,-10,-1
1522257263617803,20,-7,-9,-37,-109,-6,-3,6
1522257263617803,-12,-4,6,66,66,8,0,-8
1522257263631840,27,1,4,-4,-35,-6,1,5
1522257263631840,-12,0,-7,-54,10,7,-1,-17
1522257263633846,30,-1,0,-14,26,-6,0,6
1522257263633846,-42,-13,-1,-28,-23,6,10,-1
1522257263654902,24,3,5,36,-1,9,-4,-6
1522257263654902,1,5,-2,9,0,-9,-2,14
1522257263655905,23,7,4,17,46,-1,-5,2
1522257263655905,-29,-2,-1,-2,-57,-16,-14,-15
1522257263667937,6,2,-3,-1,40,8,8,19
1522257263667937,22,-1,-3,0,-26,-17,-1,-28
1522257263676968,-21,1,4,41,26,10,0,0
1522257263676968,-23,-4,0,-4,25,4,-4,-6
1522257263692001,25,5,-4,-16,-32,-16,-5,4
1522257263692001,0,-9,-5,-35,-9,-6,-1,4
1522257263698017,-24,-4,-3,-47,-70,-18,-3,-17
1522257263698017,38,6,5,63,16,6,9,12
1522257263715062,19,7,11,27,-20,16,5,10
1522257263715062,-19,-5,-5,37,2,10,1,-7
1522257263716065,-11,-7,-6,-14,39,-3,-7,-8
1522257263716065,6,-2,-4,-29,7,14,-4,9
1522257263728096,1,2,7,-12,-8,-4,0,1
1522257263728096,-35,6,4,15,19,-7,-3,-9
1522257263737120,9,-3,-4,-8,-12,5,1,-3
1522257263737120,1,-3,-1,-14,-8,-13,0,3
1522257263752164,-12,-4,-5,11,31,3,0,-11
1522257263752164,26,-1,-4,-12,-26,-4,-2,1
1522257263758177,44,5,6,21,38,10,2,8
1522257263758177,-23,3,0,-29,-16,-20,-1,13
1522257263775222,-30,-7,-3,16,1,9,-6,-31
1522257263775222,-10,1,-2,6,-19,-1,-7,-7
1522257263776225,1,-1,-5,-8,31,5,-6,-11
1522257263776225,36,-2,-3,-1,1,-13,-6,-5
1522257263797280,9,-2,2,21,-43,-8,-1,-5
1522257263797280,3,-2,0,-14,-29,7,8,0
1522257263799286,-64,-5,-2,26,26,10,7,-7
1522257263799286,13,-4,-5,-24,4,-8,-3,-4
1522257263811318,-25,-9,-7,-21,-54,-7,-4,-14
1522257263811318,25,2,3,43,7,-2,1,7
1522257263818337,4,-10,4,9,3,9,7,6
1522257263818337,23,3,-4,-7,16,6,-1,-1
1522257263834379,-52,6,9,-10,24,0,-4,3
1522257263834379,18,3,-1,1,-5,-8,-3,11
1522257263836384,-7,4,-1,-25,-15,7,0,4
1522257263836384,58,-4,-2,13,23,15,2,13
1522257263857440,0,1,-3,6,-11,-8,2,-4
1522257263857440,-12,-4,-6,-15,8,-4,-3,-10
1522257263858444,-20,-5,-8,-32,1,-1,-5,-9
1522257263858444,4,2,4,2,-5,-6,3,0
1522257263871477,25,5,3,11,-51,-10,5,21
1522257263871477,-23,-2,0,13,2,-5,-14,-14
1522257263878496,-10,0,-6,-23,-13,-17,-2,-6
1522257263878496,-3,-5,-5,9,-16,17,-2,5
1522257263894539,12,-1,0,-8,35,8,-4,-6
1522257263894539,19,5,6,20,25,7,5,13
1522257263896544,13,7,1,15,-27,-1,-1,-5
1522257263896544,25,-5,-4,-27,46,9,2,-6
1522257263917600,-7,-5,-15,-33,-42,-3,2,6
1522257263917600,-20,-8,2,25,12,6,-1,-14
1522257263918603,-9,-1,3,14,7,-3,2,-13
1522257263918603,3,3,2,3,-4,-6,3,3
1522257263931637,45,4,-1,-23,-5,-6,2,24
1522257263931637,-13,-3,-5,-71,-4,11,3,-14
1522257263938658,-1,-5,-2,74,-5,-8,-6,-2
1522257263938658,-12,0,-2,-10,-61,-11,-2,9
1522257263954698,21,2,3,13,52,-2,5,7
1522257263954698,-3,0,0,-5,-19,-10,-3,-5
1522257263956704,-3,-6,5,-3,3,6,-1,1
1522257263956704,-55,5,-4,-20,24,0,-1,-4
1522257263976757,-27,-13,-12,-19,2,-11,-9,-20
1522257263976757,11,4,3,30,18,5,15,8
1522257263978763,13,5,8,-10,0,3,-5,3
1522257263978763,-1,3,6,21,-16,-15,3,3
1522257263991797,8,1,-3,-12,15,-1,2,5
1522257263991797,4,2,-4,-26,-4,-1,-1,-2
1522257263998816,-9,-5,-4,-9,3,-7,0,7
1522257263998816,-7,2,-3,6,-4,4,1,-11
1522257264014858,-3,1,2,5,52,14,-1,-7
1522257264014858,12,-1,-1,7,-61,-7,-2,18
1522257264015862,-6,5,-2,-28,-27,6,-6,-1
1522257264015862,7,0,2,-19,-39,-6,-13,9
1522257264036918,-1,0,4,31,17,4,5,7
1522257264036918,-13,-13,-5,-6,56,2,-7,-15
1522257264038923,1,3,3,8,10,0,4,15
1522257264038923,1,0,1,25,-10,-2,-1,-9
1522257264050955,33,7,1,7,-6,-2,0,1
1522257264050955,21,4,2,-10,15,-9,4,11
1522257264059979,-97,-5,-6,3,-10,-1,-3,-16
1522257264059979,12,-16,-12,-13,17,0,-11,-11
1522257264075019,4,-5,-3,-15,-4,0,2,10
1522257264075019,9,2,7,8,0,1,-1,1
1522257264076021,29,-2,-5,-27,-15,-12,1,3
1522257264076021,-27,0,2,43,20,3,5,-5
1522257264097077,3,3,-3,-3,-15,-3,-3,13
1522257264097077,9,-10,-8,11,-15,-1,-15,-17
1522257264099083,12,8,8,-5,22,5,0,-5
1522257264099083,-13,-1,2,-15,22,10,0,-2
1522257264111114,3,-2,-2,5,-36,-21,-7,9
1522257264111114,2,6,-3,-21,-52,-11,0,-1
1522257264120139,19,-11,-8,-26,78,21,6,2
1522257264120139,21,1,5,49,1,1,0,20
1522257264135181,10,5,5,7,62,2,0,-14
1522257264135181,-19,4,2,2,-31,-7,1,7
1522257264136182,22,-8,-15,-51,-79,-7,3,-7
1522257264136182,-26,-3,2,29,20,0,11,-8
1522257264157237,-27,0,-4,-9,-2,6,-4,-7
1522257264157237,58,7,-5,-36,3,0,1,5
1522257264159242,-43,-3,8,69,19,-2,1,14
1522257264159242,-36,-7,-1,-9,-62,-4,-2,-23
1522257264171274,12,-3,-12,1,-14,0,-7,-16
1522257264171274,24,-2,0,-22,26,0,-5,1
1522257264180299,0,-1,3,-21,-33,-1,3,-2
1522257264180299,7,2,9,26,62,2,1,13
1522257264194335,7,0,-1,1,-69,-12,5,2
1522257264194335,-34,-1,7,13,45,6,4,-11
1522257264196341,10,-1,-2,37,-6,-3,-10,-16
1522257264196341,7,-5,-13,-90,-29,-23,-6,-5
1522257264217397,-24,5,4,21,89,17,7,-7
1522257264217397,19,1,4,33,-19,44,13,18
1522257264219421,-3,-3,0,40,-41,-29,7,-24
1522257264219421,-11,6,-3,-17,-10,0,-2,-5
1522257264230431,48,-12,-4,-26,12,-7,1,9
1522257264230431,-70,1,0,-5,21,-7,0,3
1522257264245471,7,0,-7,-7,26,8,-3,9
1522257264245471,55,4,-3,5,-4,12,0,4
1522257264254495,-21,2,8,-5,-20,-4,-2,-4
1522257264254495,-19,3,1,18,-8,-4,-2,0
1522257264256501,-66,-9,0,-4,-12,-2,-9,4
1522257264256501,-20,-4,-6,-16,4,-4,0,-12
1522257264277557,7,3,-2,-4,-13,4,-9,16
1522257264277557,-6,-12,-4,-10,-23,-10,-14,-33
1522257264278560,34,6,-3,-26,8,-2,-1,9
1522257264278560,4,1,5,3,-1,4,4,11
1522257264290592,-15,-6,11,24,-24,3,-2,-11
1522257264290592,-3,8,4,14,6,2,5,11
1522257264299615,17,6,-5,-61,-28,-1,-3,-7
1522257264299615,7,-9,-2,33,-5,-6,-4,2
1522257264314655,7,7,2,24,13,25,4,4
1522257264314655,31,2,0,3,48,6,20,-1
1522257264316661,-58,-8,-1,13,-38,-19,-13,-7
1522257264316661,12,0,-4,-35,-32,-2,-5,6
1522257264337716,-31,-4,-7,-6,33,7,1,-7
1522257264337716,47,2,-1,3,-19,-7,7,11
1522257264338721,12,1,1,12,37,14,7,-1
1522257264338721,-22,-10,-5,-11,-27,-7,-6,-10
1522257264350751,-25,2,-3,-10,-3,-5,-6,-13
1522257264350751,-27,-9,2,1,2,4,-7,1
1522257264359775,75,5,0,5,10,0,2,16
1522257264359775,9,-4,-2,-14,11,1,0,1
1522257264374815,-21,-6,-4,-10,-35,8,-4,-10
1522257264374815,-3,5,3,12,-35,7,-7,-4
1522257264376821,13,4,4,19,0,1,2,13
1522257264376821,14,-1,-4,-7,32,7,6,3
1522257264396874,9,-5,-4,-14,-17,-15,-3,-15
1522257264396874,-10,0,-2,-7,-5,-9,-6,-14
1522257264398879,-33,-6,-1,12,8,5,1,-14
1522257264398879,14,9,2,-2,1,2,-6,28
1522257264410911,20,0,-2,-9,28,-6,1,11
1522257264410911,1,-3,-6,-37,-34,-15,-10,7
1522257264419936,19,1,7,60,54,5,8,10
1522257264419936,-20,0,1,2,9,-10,-1,-29
1522257264434976,-2,-5,3,0,43,1,-5,-7
1522257264434976,5,0,-3,70,-48,-7,-3,2
1522257264435978,-11,0,4,-25,5,5,7,-2
1522257264435978,14,4,-1,4,-36,3,4,11
1522257264457034,-2,-10,-10,-21,8,-6,-10,-8
1522257264457034,17,4,0,-34,53,-15,-2,-4
1522257264459040,14,1,-4,22,-40,30,3,2
1522257264459040,-93,-11,0,-6,-9,-10,-9,-24
1522257264471071,4,4,0,-4,-16,0,3,11
1522257264471071,-4,-7,-1,-4,25,7,3,8
1522257264480095,15,5,1,-11,1,-11,-5,0
1522257264480095,32,4,2,-1,11,8,6,11
1522257264495135,-12,1,-3,10,-22,-6,3,5
1522257264495135,33,-13,-24,5,-12,5,1,4
1522257264496138,-14,14,18,-16,3,-10,-6,-7
1522257264496138,-35,12,16,-15,-7,-4,2,-6
1522257264517193,29,-4,2,8,34,6,-1,3
1522257264517193,7,1,1,-9,9,-15,-4,5
1522257264519199,19,-17,-20,-13,-12,23,-3,-11
1522257264519199,9,3,-3,28,56,1,-1,-14
1522257264531231,-20,-3,1,12,-7,3,-2,5
1522257264531231,-23,-3,-7,-37,-30,-13,-4,-1
1522257264540255,3,1,4,32,-1,13,-1,5
1522257264540255,29,2,1,-4,-33,4,1,4
1522257264554292,6,1,-9,-27,-10,-4,-7,0
1522257264554292,-16,1,5,31,31,21,8,-4
1522257264556298,-18,-3,2,-19,16,-22,4,4
1522257264556298,27,2,-5,-6,11,1,-3,4
1522257264577353,-3,-4,-6,15,-31,-3,1,0
1522257264577353,-19,1,4,-16,-12,-1,-3,-8
1522257264579359,8,3,7,14,0,-17,-5,7
1522257264579359,-37,-9,-5,1,0,2,-5,-11
1522257264590388,7,3,-2,-13,0,9,1,7
1522257264590388,1,6,3,-2,5,-3,-1,1
1522257264599412,20,-3,-8,-39,10,-19,-5,2
1522257264599412,-65,-9,-6,-19,8,1,3,1
1522257264614452,18,5,10,25,-4,-15,1,7
1522257264614452,-22,-6,-6,24,-4,-4,-7,-27
1522257264616457,9,-4,-10,-26,-3,18,-2,7
1522257264616457,24,1,0,-6,-31,-26,-8,16
1522257264637513,-15,7,9,21,28,-10,2,-14
1522257264637513,6,2,2,-2,3,5,3,16
1522257264638516,-1,-3,-3,10,-9,24,-8,-11
1522257264638516,11,-7,-13,-12,1,-8,2,7
1522257264650548,-15,-5,-1,-14,9,-11,-1,-19
1522257264650548,13,6,5,-5,-22,10,-4,11
1522257264659572,-19,-1,0,24,48,-13,2,-10
1522257264659572,19,0,-1,0,-17,16,7,8
1522257264673610,38,8,1,9,52,11,5,13
1522257264673610,-93,-11,4,-4,-3,40,-1,-4
1522257264680628,-26,-7,-15,-9,11,-18,-10,-15
1522257264680628,8,6,14,20,-16,-1,1,15
1522257264697673,-1,-5,2,-40,-10,-7,-6,-22
1522257264697673,16,0,1,12,-13,-23,0,7
1522257264698677,-5,-3,-4,-22,-3,-9,4,8
1522257264698677,14,1,-3,32,-11,3,1,4
1522257264719732,21,7,-4,-10,-13,-5,6,13
1522257264719732,-5,-5,5,-12,0,9,3,-11
1522257264721737,-12,-2,-1,-3,6,-9,-6,-3
1522257264721737,13,-4,5,-18,-17,-4,-5,-8
1522257264733769,-12,-4,-1,-3,-2,0,0,5
1522257264733769,21,0,-6,20,-10,-37,-1,-1
1522257264740788,92,14,1,-18,-30,0,2,23
1522257264740788,-104,-9,-4,2,40,-13,-13,-31
1522257264756831,27,-7,-4,10,-21,-4,-9,-9
1522257264756831,15,3,-2,-7,31,13,4,6
1522257264758836,3,4,8,20,9,-3,-11,8
1522257264758836,57,7,6,12,-17,-1,11,10
1522257264779892,-22,6,4,3,-37,-17,-6,-5
1522257264779892,-16,-8,-5,-13,8,44,7,-7
1522257264780894,-1,-4,2,8,37,-9,1,-19
1522257264780894,9,-7,-4,-22,-28,4,-6,11
1522257264793929,-3,-2,0,14,-1,11,9,13
1522257264793929,10,1,4,-11,42,10,-4,18
1522257264800947,-34,-9,-7,25,-102,-28,-5,-32
1522257264800947,7,-1,-2,-10,-11,8,5,-23
1522257264816990,14,5,1,-11,1,-7,-2,8
1522257264816990,11,10,3,10,49,-14,5,18
1522257264818996,-25,-5,1,-17,6,20,1,-15
1522257264818996,-20,-4,-11,-12,23,-14,-1,-7
1522257264840052,6,-6,0,18,-25,12,3,4
1522257264840052,-20,-6,0,10,7,10,1,-12
1522257264841054,31,3,-7,-21,-3,-4,3,12
1522257264841054,29,0,-9,8,10,5,3,6
1522257264854089,-37,7,15,-2,10,4,-6,-23
1522257264854089,8,-3,-5,-19,-12,-8,-8,-1
1522257264861108,-13,-2,1,-40,-60,-11,-3,3
1522257264861108,21,2,9,83,62,0,1,14
1522257264885172,0,-6,-10,-3,-4,-1,11,1
1522257264885172,-20,-1,-2,2,-43,16,-10,-23
1522257264886174,33,2,-1,-14,21,24,8,12
1522257264886174,-42,-7,-4,-26,-6,2,-4,-28
1522257264899209,-59,-11,-8,-8,-29,2,10,10
1522257264899209,87,13,5,-10,20,-41,2,19
1522257264901215,-48,0,1,25,50,48,4,13
1522257264901215,30,-6,-4,-13,-20,-11,-5,-14
1522257264914249,30,6,-1,6,14,-6,5,9
1522257264914249,10,-2,-4,-13,-22,-14,-11,-21
1522257264921267,22,-7,-4,20,64,4,-2,3
1522257264921267,-1,-1,1,0,-71,-14,1,1
1522257264937310,-3,4,3,-11,7,10,4,6
1522257264937310,2,-2,-2,5,13,-13,1,-3
1522257264939316,-32,-2,1,-22,-43,-2,0,-6
1522257264939316,1,7,4,50,30,15,-3,1
1522257264959368,-9,0,-6,-1,0,-6,-9,-9
1522257264959368,-5,2,3,6,14,6,1,-5
1522257264961374,38,0,-3,-20,-7,-13,-3,-10
1522257264961374,-7,-1,1,-11,24,19,7,28
1522257264973406,0,-3,-1,3,-20,3,-4,-7
1522257264973406,-4,-3,-3,5,13,-17,-5,-13
1522257264982431,-30,-8,-7,-15,-24,18,9,1
1522257264982431,21,7,4,-5,-12,-6,4,23
1522257264997470,8,0,1,16,18,21,-5,-8
1522257264997470,-19,-6,-5,-7,-26,-4,-7,1
1522257264998473,31,6,2,11,-5,-15,-1,21
1522257264998473,-4,-2,-5,-10,3,5,2,-4
1522257265019529,-19,-7,-2,-2,9,-3,-4,-10
1522257265019529,27,1,3,-3,-17,-2,2,4
1522257265021534,-15,-2,0,20,-19,-5,-3,4
1522257265021534,-16,-1,-2,-8,13,5,-1,0
1522257265033566,0,2,-2,-17,-2,-7,0,3
1522257265033566,6,1,1,7,-2,8,1,14
1522257265042590,-29,4,5,15,13,-17,-1,-3
1522257265042590,-1,-5,-9,-26,-1,-14,-11,-2
1522257265057630,34,3,-3,-6,7,5,-5,12
1522257265057630,-21,-4,-9,-38,-36,-3,-3,-27
1522257265058634,-11,-4,8,73,18,-17,-3,0
1522257265058634,26,5,4,0,3,3,5,-1
1522257265079688,12,-1,-2,-5,-13,1,-3,-11
1522257265079688,-51,-2,-1,5,15,-4,4,4
1522257265081694,5,-5,-7,-41,3,7,-3,-11
1522257265081694,-48,-6,-7,-26,-27,14,-3,0
1522257265093726,-8,-6,5,61,8,-6,-10,-15
1522257265093726,10,-1,-2,11,-12,-3,-1,8
1522257265102750,8,-1,-2,-6,-5,-1,5,4
1522257265102750,31,4,0,-10,3,-6,-4,0
1522257265116787,-11,1,-6,-24,9,5,5,1
1522257265116787,-20,6,4,5,-6,3,3,11
1522257265118793,-1,-3,-3,-1,-12,-9,-10,-20
1522257265118793,-3,-7,1,1,10,-2,-1,-2
1522257265139849,-3,-4,-4,-10,-11,-10,-1,-5
1522257265139849,16,-3,2,11,1,-6,3,3
1522257265141854,33,2,-3,1,24,12,2,4
1522257265141854,-52,-4,-6,2,-1,-2,1,-10
1522257265152883,-15,1,-1,-6,-21,-5,-5,-14
1522257265152883,-24,-5,1,0,3,7,2,1
1522257265161907,-17,3,9,1,-6,-1,-2,-8
1522257265161907,20,0,-1,-2,12,-3,-3,-10
1522257265176947,29,-1,-6,-48,3,1,2,21
1522257265176947,-11,-2,3,49,3,-10,-4,-16
1522257265178953,49,5,0,11,-2,1,2,-4
1522257265178953,-59,-6,1,-68,41,15,0,2
1522257265200008,-3,1,0,-26,-39,-16,-6,-4
1522257265200008,43,1,-1,-2,-17,-21,10,-2
1522257265201011,-13,-6,-4,2,6,65,6,-2
1522257265201011,-44,-6,-4,50,11,-48,-10,-22
1522257265213043,-3,-2,-4,35,21,33,-5,-6
1522257265213043,-17,-2,3,30,21,14,-5,2
1522257265222067,7,-1,-1,21,-21,-54,-6,6
1522257265222067,43,7,1,-2,-33,2,2,6
1522257265237107,-25,-1,-3,-13,6,2,2,2
1522257265237107,5,-1,-3,-1,-4,-16,-1,-5
1522257265239112,-18,-3,-2,-4,8,-1,-2,0
1522257265239112,20,-3,-3,-11,-2,9,-1,4
1522257265260169,5,1,3,14,-9,-19,4,13
1522257265260169,14,-4,-3,-5,20,24,-1,-23
1522257265261171,-2,1,-5,-16,-1,-7,1,7
1522257265261171,-2,0,1,13,-5,6,3,3
1522257265273203,4,1,5,1,-18,5,1,5
1522257265273203,40,9,1,-43,6,-19,-10,-8
1522257265282227,-91,-12,-1,24,14,10,-3,-10
1522257265282227,58,0,-4,4,-7,-4,-2,3
1522257265297267,2,-1,-12,-10,16,0,1,-2
1522257265297267,0,-3,2,-12,-4,-3,1,16
1522257265299273,43,5,5,-4,38,-38,-8,14
1522257265299273,-3,-6,-8,-6,-74,80,3,-30
1522257265319325,2,3,8,14,37,-18,-4,7
1522257265319325,-37,-1,-1,29,2,12,11,7
1522257265321331,-5,-4,-7,1,0,-8,-6,-21
1522257265321331,2,3,1,8,2,-4,8,16
1522257265333363,9,0,-4,-33,-10,-9,-4,-2
1522257265333363,-1,-2,-1,0,-17,9,-4,5
1522257265342387,-6,2,2,-4,5,7,2,11
1522257265342387,1,-3,6,-15,32,-22,-7,-12
1522257265357426,-2,0,-9,10,-25,2,0,-11
1522257265357426,-19,-4,2,-4,14,-2,3,11
1522257265358429,-15,-2,1,-26,-42,-7,0,7
1522257265358429,-6,-5,-1,19,5,-11,-9,-19
1522257265379485,-23,-5,-1,6,2,-1,-1,-5
1522257265379485,1,0,0,-12,-1,11,-1,2
1522257265381490,13,1,-4,4,-10,1,5,12
1522257265381490,19,7,7,19,9,-10,4,19
1522257265393522,5,-4,-4,-28,17,-19,2,-11
1522257265393522,-21,-3,-3,17,15,15,-5,-8
1522257265402547,-5,-4,-3,-9,-41,-5,6,-12
1522257265402547,4,4,4,3,12,-6,2,18
1522257265416584,3,3,4,25,4,-17,3,0
1522257265416584,9,-2,-6,-40,-30,14,-2,0
1522257265423602,15,1,-6,-52,-13,-37,-12,1
1522257265423602,-14,-4,0,73,56,63,2,3
1522257265439645,9,1,7,-4,15,10,5,6
1522257265439645,30,3,2,16,-25,-22,3,15
1522257265441651,-27,-8,-12,-29,-7,-3,-11,-36
1522257265441651,-30,-5,-10,-47,6,-15,2,3
1522257265453683,0,2,8,54,-2,1,-3,-7
1522257265453683,6,2,1,-2,-38,-9,1,10
1522257265462706,2,4,7,13,1,-9,-2,5
1522257265462706,16,-1,-5,-36,-31,-25,-3,5
1522257265477746,0,-2,-4,2,-1,14,-4,3
1522257265477746,-4,-1,0,-18,23,-6,-1,1
1522257265479752,35,0,0,2,6,11,4,6
1522257265479752,40,9,2,3,38,-3,4,26
1522257265499805,-77,-10,4,-5,-24,-15,-10,-31
1522257265499805,16,-5,-7,-28,-71,-9,-14,-25
1522257265501811,-11,-4,-1,42,3,7,4,-5
1522257265501811,23,-1,-6,16,-27,-12,4,-11
1522257265513842,21,5,0,-18,15,-3,4,14
1522257265513842,-14,1,-4,3,39,0,-1,-3
1522257265522866,1,2,7,-6,2,9,-2,3
1522257265522866,-3,-3,-1,-31,-19,-15,-3,-5
1522257265536904,2,-2,3,4,15,7,-3,0
1522257265536904,-14,-3,5,23,8,-11,-5,-1
1522257265538912,17,7,6,8,12,10,0,14
1522257265538912,-11,-1,-1,-7,5,-10,-4,-32
1522257265559965,-15,0,-2,-5,-2,-1,-3,-17
1522257265559965,-19,-2,-6,-7,40,-19,0,6
1522257265560968,-5,-6,-11,9,-52,-21,-1,11
1522257265560968,15,-1,-5,6,17,-6,2,9
1522257265573000,39,6,-1,-17,-46,-9,6,16
1522257265573000,-3,-8,-3,1,31,5,-10,-40
1522257265582023,-7,1,2,-8,19,7,-1,-1
1522257265582023,-17,-4,-4,-25,-16,-6,-6,-5
1522257265596061,15,-1,-6,31,13,21,7,13
1522257265596061,-3,-1,-6,-6,-2,-5,9,17
1522257265603079,-10,-7,-4,-7,6,10,0,2
1522257265603079,-1,4,4,4,-10,6,-8,-10
1522257265620125,17,8,1,-12,0,-2,0,6
1522257265620125,-39,-6,-2,3,16,1,-8,-12
1522257265621127,9,-3,3,4,-5,19,14,-9
1522257265621127,-25,-3,3,-1,-6,-12,2,5
1522257265633159,-36,-12,-8,-14,-24,0,-8,-6
1522257265633159,22,5,-3,-20,-20,4,3,8
1522257265642183,8,5,-2,23,31,3,-5,11
1522257265642183,21,6,3,13,6,-2,-2,-1
1522257265657223,0,0,-3,-11,-4,1,4,-9
1522257265657223,6,0,-1,7,9,13,8,13
1522257265671260,15,0,0,-12,17,-1,1,-11
1522257265671260,-41,-2,0,-7,-14,-10,-3,-4
1522257265679282,-2,-2,-6,4,-1,-6,-11,-9
1522257265679282,37,5,-7,-37,17,-27,2,15
1522257265681287,6,-4,5,52,25,30,-5,-16
1522257265681287,12,-4,2,7,-29,-6,-7,-20
1522257265702343,9,-5,7,12,5,11,7,1
1522257265702343,12,-4,1,-1,-5,-2,-1,6
1522257265704348,10,5,-5,-17,7,-14,0,5
1522257265704348,-7,2,-3,0,7,16,5,3
1522257265716380,3,6,1,-8,7,-4,-6,3
1522257265716380,16,2,0,3,-1,12,-8,-11
1522257265723399,-24,5,2,-7,-17,-9,2,17
1522257265723399,-2,-5,1,-7,4,7,-7,-21
1522257265739444,24,0,1,-14,-11,-12,-1,7
1522257265739444,-60,-5,2,15,-7,3,1,2
1522257265741448,-15,-7,-9,-15,-5,-6,-6,-17
1522257265741448,16,1,-7,-2,4,-4,0,21
1522257265762503,17,5,4,-2,-3,1,5,-15
1522257265762503,-44,3,3,11,0,10,4,2
1522257265763506,4,-3,3,-8,11,6,-3,-3
1522257265763506,12,-3,-2,5,-2,-15,3,6
1522257265776540,4,-6,-7,-2,-14,6,-4,-8
1522257265776540,0,-3,-2,3,-7,7,5,8
1522257265783559,-24,-7,-3,-10,-17,-9,0,-2
1522257265783559,18,5,-1,-14,14,-4,2,15
1522257265799602,-1,0,-4,10,5,3,1,2
1522257265799602,16,6,-2,-1,-16,-9,-4,-6
1522257265801607,7,4,-2,2,11,3,3,8
1522257265801607,14,1,3,12,9,8,-1,6
1522257265822663,-12,-2,-1,-17,-17,-6,-9,-18
1522257265822663,3,-11,7,4,41,9,0,-1
1522257265823666,-35,-4,1,-10,-76,-28,-3,-2
1522257265823666,-50,-5,-5,-2,-32,0,0,3
1522257265836700,25,7,0,1,2,0,3,1
1522257265836700,-11,4,3,8,0,-5,0,-3
1522257265843719,41,3,2,1,29,5,1,8
1522257265843719,-50,0,4,-5,1,-5,-8,-5
1522257265859763,9,-4,-4,-15,6,-2,1,17
1522257265859763,45,0,-6,16,-7,1,-3,-13
1522257265861767,-20,-2,-4,4,1,6,-1,-5
1522257265861767,-11,-1,-2,6,-8,-2,0,1
1522257265881820,14,-4,1,-10,16,0,1,6
1522257265881820,-34,-11,-3,-26,-13,0,0,6
1522257265883826,-18,-2,4,14,14,0,3,-11
1522257265883826,22,5,1,-17,-1,2,3,2
1522257265896860,-26,3,5,13,-17,-6,-9,0
1522257265896860,20,2,5,-2,-30,0,-11,3
1522257265903879,33,-4,1,-8,4,1,-5,-6
1522257265903879,-75,-6,-2,-2,6,1,3,4
1522257265919922,-7,-3,-9,-4,7,-9,4,-8
1522257265919922,-28,3,-4,5,11,15,2,-16
1522257265920924,14,7,-1,-1,-1,-2,-1,26
1522257265920924,56,0,3,7,14,6,0,-10
1522257265941980,-17,-1,7,3,13,-1,5,20
1522257265941980,-36,-3,-9,-15,-22,-3,-2,-5
1522257265943985,7,-7,1,-10,13,-18,-3,-17
1522257265943985,47,3,0,5,-24,39,8,-5
1522257265956017,-19,0,1,46,18,-9,-13,-12
1522257265956017,8,1,-5,13,-18,-1,6,4
1522257265965042,-14,0,-6,-8,8,-10,-3,8
1522257265965042,19,2,2,-14,2,-17,-2,6
1522257265987100,15,0,-5,-54,-8,-27,0,-4
1522257265987100,29,0,3,47,55,51,-2,0
1522257265989105,-1,4,5,5,-62,-17,-4,3
1522257265989105,7,2,4,13,1,-10,7,13
1522257266002140,-26,-7,-6,-19,-23,1,-4,-15
1522257266002140,3,-4,-2,-10,19,-16,-3,-2
1522257266004145,6,-3,-4,-2,17,10,4,-2
1522257266004145,16,-1,-4,-6,-4,-2,-3,15
1522257266016177,3,-2,2,10,7,12,-4,-5
1522257266016177,16,-8,-3,-12,-6,-16,-3,-4
1522257266025202,-63,-1,0,5,-1,23,-1,-15
1522257266025202,20,5,-2,-2,-7,-6,3,10
1522257266040241,-5,5,-2,10,10,27,7,-5
1522257266040241,-5,-2,0,-4,-22,-10,-11,-4
1522257266041244,4,0,-2,-15,19,-8,7,-6
1522257266041244,-9,-8,-7,-15,11,-2,-1,-7
1522257266062300,6,-3,-3,0,-16,22,-1,8
1522257266062300,20,-5,0,-11,-17,17,8,-4
1522257266064305,-18,-1,5,38,-30,-38,-5,-1
1522257266064305,-9,1,1,6,52,39,4,-6
1522257266076337,24,9,2,7,-19,-14,8,23
1522257266076337,-17,1,-4,-27,-10,-12,-7,-30
1522257266085361,14,-6,-6,-16,12,11,-7,-10
1522257266085361,6,-1,3,15,-7,-12,-6,-7
1522257266099400,-18,2,2,-13,-20,-4,-2,22
1522257266099400,-13,2,5,5,7,-5,1,0
1522257266101404,4,-3,-4,-3,-2,3,-6,-4
1522257266101404,6,-2,-2,0,-7,-9,-8,-9
1522257266122459,12,0,-1,4,22,7,0,5
1522257266122459,27,2,-1,11,21,-7,5,8
1522257266123462,8,-6,-5,1,-5,-5,11,-7
1522257266123462,24,4,-1,-8,-31,3,0,11
1522257266135494,-47,-4,-2,8,19,26,-1,-17
1522257266135494,17,0,0,5,-15,-1,1,17
1522257266152540,-36,0,3,-15,-12,2,-8,-4
1522257266152540,-15,0,-9,-10,-3,-10,-3,-3
1522257266159558,3,2,-10,-2,-2,-26,-2,-15
1522257266159558,-6,0,-13,-30,-19,32,0,-4
1522257266161564,12,-5,3,68,18,14,12,15
1522257266161564,2,-9,3,7,-6,-8,-1,-1
1522257266182620,-10,-3,5,-3,8,-16,-5,-18
1522257266182620,-7,0,4,-20,30,52,6,4
1522257266183623,22,3,0,-19,12,-16,-6,8
1522257266183623,21,-1,0,2,-29,1,-6,-8
1522257266195654,4,-3,4,-4,-8,-6,1,-15
1522257266195654,-4,10,7,-1,-22,-31,-4,8
1522257266204678,0,5,1,-14,6,20,-6,-3
1522257266204678,-3,2,0,9,20,-4,1,-1
1522257266219718,22,0,-8,-11,2,12,-1,7
1522257266219718,9,-1,1,11,20,-35,4,14
1522257266221724,12,-3,-1,-12,-25,9,-4,-6
1522257266221724,-20,-6,1,4,-10,-18,-6,-6
1522257266241777,-22,-10,6,-12,-1,22,-2,-8
1522257266241777,-17,-7,1,25,0,-14,-4,-6
1522257266243782,-6,-1,-6,-25,8,-7,0,1
1522257266243782,-2,-6,-8,11,20,12,0,2
1522257266255814,15,3,-2,3,-27,-28,0,22
1522257266255814,-15,4,-2,-2,15,8,10,-11
1522257266264838,11,-4,-3,-15,22,39,-5,-21
1522257266264838,-61,-3,2,33,-56,-73,-9,-11
1522257266279878,25,4,4,6,13,9,1,20
1522257266279878,19,-5,2,-11,-22,-31,-3,-1
1522257266281884,23,1,4,0,5,-4,-3,4
1522257266281884,-10,3,-4,-19,18,23,1,-10
1522257266301937,-7,0,-7,5,-6,-16,-1,4
1522257266301937,10,6,-9,8,1,-2,-2,9
1522257266303942,-15,2,-2,-3,2,-1,9,8
1522257266303942,15,4,2,-5,23,4,2,-13
1522257266315974,-15,-10,0,3,-33,14,-3,-18
1522257266315974,21,-5,3,-8,9,8,-10,7
1522257266324998,-30,-7,0,36,27,-2,2,-1
1522257266324998,-3,6,-8,-34,-28,-24,1,11
1522257266340038,13,8,7,51,15,13,9,-4
1522257266340038,0,2,4,-2,-5,-5,2,-8
1522257266341041,10,6,6,-2,-11,-10,5,19
1522257266341041,-9,-1,0,-7,9,-4,-3,-12
1522257266362096,5,-8,-14,-65,-13,29,-5,-25
1522257266362096,-61,-3,-5,57,-15,-36,-12,-8
1522257266364102,-13,-1,-4,13,-46,20,1,7
1522257266364102,14,4,1,1,20,35,3,4
1522257266376134,-4,-4,1,-12,-29,-4,-4,5
1522257266376134,22,-9,-2,-16,0,0,2,1
1522257266385158,0,-2,-5,3,-5,-3,-5,-12
1522257266385158,-13,-8,-3,8,21,11,0,-3
1522257266400198,4,3,0,16,16,-10,5,11
1522257266400198,14,2,2,-11,1,3,3,5
1522257266401201,0,0,0,-6,26,-9,-1,10
1522257266401201,-28,-5,-2,-11,-26,-3,-8,-21
1522257266422256,0,2,2,5,97,-8,2,5
1522257266422256,-43,-6,-3,-36,-95,-19,-4,-5
1522257266424262,14,2,-1,-39,-3,-1,2,-3
1522257266424262,12,-2,1,2,-9,6,4,4
1522257266436294,-6,5,8,5,4,0,-2,0
1522257266436294,28,5,-4,21,23,7,-1,5
1522257266445318,-13,3,-3,-1,-2,-4,-5,-5
1522257266445318,4,6,-3,-15,-7,0,-4,0
1522257266459356,-2,-4,0,3,15,-64,4,-2
1522257266459356,7,-2,5,48,12,51,-1,-8
1522257266461360,32,4,-5,8,-4,-13,2,9
1522257266461360,60,4,-1,16,31,11,0,5
1522257266482416,-18,-8,-5,-15,-34,-8,2,10
1522257266482416,12,-14,-9,-23,0,-21,-8,-13
1522257266483419,23,2,3,-20,16,8,-5,4
1522257266483419,3,4,7,38,-17,-25,-4,2
1522257266495451,44,11,6,11,-14,24,-2,9
1522257266495451,5,1,4,5,1,-15,2,4
1522257266504475,-58,-14,-14,5,4,-20,-3,-33
1522257266504475,-8,-2,-4,-21,20,2,-3,-6
1522257266519515,-17,-1,-2,-5,-20,3,-4,-5
1522257266519515,4,-3,-2,-14,-12,-6,6,19
1522257266521520,15,0,4,-5,-4,-1,-6,-4
1522257266521520,-8,-9,8,-2,-7,2,-2,5
1522257266542576,17,0,-1,7,4,-2,1,2
1522257266542576,-77,1,0,-6,24,12,1,-12
1522257266543579,16,8,-2,0,-7,-5,5,14
1522257266543579,-21,3,-5,3,8,12,9,-1
1522257266555611,3,-2,-3,1,-21,3,-5,3
1522257266555611,25,2,-4,-11,1,-5,-1,-8
1522257266564635,-1,-12,-3,3,-9,-5,-1,-12
1522257266564635,7,-6,3,-3,-4,0,-1,7
1522257266578673,-21,0,3,-3,0,-6,5,1
1522257266578673,14,1,-1,-4,5,14,0,-6
1522257266585691,-7,0,1,-6,7,-32,-3,-8
1522257266585691,45,1,0,1,16,5,-6,0
1522257266602736,15,-1,1,2,-4,23,0,-2
1522257266602736,2,-1,-1,2,-5,-4,0,-5
1522257266603739,12,1,2,3,23,20,1,3
1522257266603739,-17,2,-7,-13,-38,-6,2,-10
1522257266624795,33,1,-6,-6,7,-8,-5,-1
1522257266624795,-64,-5,2,-1,8,-1,-2,4
1522257266626800,47,3,-4,-3,-5,9,0,24
1522257266626800,8,-5,-4,-3,-1,-8,-3,-8
1522257266638832,-32,-6,-4,-1,1,3,-8,-14
1522257266638832,17,9,3,-3,11,-4,-2,-1
1522257266647859,-27,-3,1,-1,-11,-5,4,7
1522257266647859,-14,0,-1,-2,-28,4,6,3
1522257266661893,7,-6,-6,2,11,-2,3,-1
1522257266661893,5,-2,-7,-2,1,-1,-1,1
1522257266663899,3,-1,-2,2,2,-8,-3,2
1522257266663899,-65,-4,5,-1,6,7,0,4
1522257266684955,-36,-3,-4,-31,-3,-11,-15,-23
1522257266684955,40,-2,2,26,-13,12,4,6
1522257266685957,27,1,5,-4,13,17,9,9
1522257266685957,-21,-3,2,14,10,-21,-8,-23
1522257266697989,-13,1,-5,3,-40,-8,1,-5
1522257266697989,-2,3,-4,-8,8,-2,0,4
1522257266707013,28,1,-3,-3,-12,-5,-6,-4
1522257266707013,-2,-5,-10,-12,13,11,3,11
1522257266722053,-38,-7,-1,6,16,-3,2,3
1522257266722053,25,-6,2,-7,6,-7,-1,-12
1522257266724059,-15,-7,6,6,-27,-1,3,2
1522257266724059,69,17,3,-2,1,-1,3,12
1522257266745114,-29,8,-3,9,8,3,-9,-7
1522257266745114,-13,-3,-4,-3,8,-1,-4,4
1522257266746117,-23,-5,-1,-4,-24,-18,-14,-9
1522257266746117,-5,-5,2,0,-3,15,5,4
1522257266759152,33,7,1,3,5,11,5,5
1522257266759152,-4,-3,-2,-4,2,-2,1,11
1522257266766170,-22,2,-2,3,2,1,-4,-20
1522257266766170,26,-10,-3,-1,-12,-13,-2,-2
1522257266782213,2,2,5,-7,8,-7,-3,6
1522257266782213,14,2,-2,12,8,19,1,0
1522257266784218,11,6,1,4,-18,2,4,9
1522257266784218,-23,-1,-4,-1,-3,2,4,-3
1522257266804272,11,-7,-2,-24,5,-55,2,-8
1522257266804272,2,-1,0,-1,2,67,11,11
1522257266806277,-13,-8,1,14,-2,-12,-7,-3
1522257266806277,-11,2,2,27,-12,-3,-3,-15
1522257266819313,2,-3,5,7,-1,-20,0,0
1522257266819313,23,-4,0,-13,-15,-21,-5,-11
1522257266826330,-19,1,-1,-11,26,21,12,27
1522257266826330,-10,2,-3,-9,-13,-5,-10,-3
1522257266842373,14,4,-3,0,-9,17,3,5
1522257266842373,14,4,-4,-10,2,-22,-7,1
1522257266844378,-7,1,-1,1,5,11,1,-6
1522257266844378,2,2,-7,-2,8,-13,1,1
1522257266864432,8,-9,-7,5,-1,12,4,12
1522257266864432,-16,1,-2,1,1,-6,5,-8
1522257266866437,22,4,0,8,0,-6,0,5
1522257266866437,25,1,-1,-5,-1,6,-4,-15
1522257266878469,-14,-9,8,7,1,13,0,11
1522257266878469,-17,0,0,-2,-7,-12,-4,1
1522257266887493,-15,-1,2,-10,-12,-6,-6,-16
1522257266887493,-5,-3,-4,-10,9,13,-3,11
1522257266902533,-10,-2,-1,11,1,14,1,-7
1522257266902533,8,4,-3,-1,-2,-5,-1,-8
1522257266903536,-28,-3,-7,-7,-2,-9,-1,-2
1522257266903536,46,3,-1,-5,19,16,2,16
1522257266924591,-61,-7,1,0,-11,22,1,-12
1522257266924591,22,1,-4,-27,-25,-34,-14,-2
1522257266926597,7,-3,-3,-4,-1,1,-1,-14
1522257266926597,4,-5,6,58,16,-1,1,-6
1522257266938631,-1,-3,4,4,8,-3,3,3
1522257266938631,7,2,10,12,17,4,0,3
1522257266947653,-11,-6,-7,-10,2,16,-2,-1
1522257266947653,-43,-6,-8,-25,-42,-38,-3,-2
1522257266962692,18,6,-10,5,4,1,2,5
1522257266962692,-7,5,1,3,-24,-8,4,3
1522257266963696,24,-3,-4,2,10,-5,-2,-17
1522257266963696,-6,-2,-1,-2,3,4,-3,9
1522257266984751,16,-2,0,1,-4,-2,-4,-6
1522257266984751,-6,2,1,-4,26,2,-1,5
1522257266986757,17,-3,-3,3,-26,-10,-1,-1
1522257266986757,-22,-4,2,-6,8,5,-4,-5
1522257266998788,-2,-2,1,-11,1,14,-6,-17
1522257266998788,-5,-2,2,8,8,8,4,3
1522257267007812,-3,2,-2,4,-18,-38,-7,5
1522257267007812,9,2,-3,-10,-4,23,4,-1
1522257267021850,17,3,7,3,5,-3,-3,8
1522257267021850,-7,-1,-2,-7,8,11,0,-2
1522257267023855,-8,1,-3,2,5,9,0,0
1522257267023855,3,4,0,-12,9,-17,-2,5
1522257267044911,-35,0,-1,-37,-8,-37,6,-1
1522257267044911,21,-8,-2,15,5,55,5,-29
1522257267045914,-20,-4,-1,43,4,8,-1,4
1522257267045914,-16,-10,-6,-12,7,-2,0,-8
1522257267057946,27,3,2,-6,-60,-2,-4,8
1522257267057946,-18,-2,0,22,27,-22,-2,-1
1522257267066970,20,1,-6,-13,7,7,7,0
1522257267066970,4,5,-4,1,-2,0,2,2
1522257267082010,-4,1,-2,-9,13,-4,-1,-1
1522257267082010,16,-5,-2,-11,-10,-7,4,13
1522257267084015,-5,2,0,-2,-9,6,2,8
1522257267084015,-18,4,7,-2,27,-11,2,-2
1522257267105071,16,-5,-1,8,-9,18,-1,-4
1522257267105071,-15,-1,-3,-11,-33,-26,-11,-6
1522257267106074,3,-1,0,-5,11,-8,5,-2
1522257267106074,9,3,-2,16,-15,15,-2,1
1522257267118106,24,6,-4,16,27,-11,-6,7
1522257267118106,-7,-2,2,3,15,8,4,11
1522257267127130,-41,-15,-8,-62,-34,9,-9,-9
1522257267127130,8,1,8,38,10,-13,-3,3
1522257267142170,2,1,3,0,26,-10,-1,-8
1522257267142170,14,-1,1,-7,-24,3,-4,8
1522257267144175,29,6,5,26,-14,-34,7,12
1522257267144175,-41,-8,-9,-31,3,9,0,-18
1522257267165231,9,0,-8,12,-41,28,-6,0
1522257267165231,-5,5,-3,12,4,-51,-6,-3
1522257267166234,28,-1,-1,-1,19,13,0,6
1522257267166234,-8,-5,-2,-11,-21,-23,-2,-24
1522257267178265,-19,1,-2,-17,-5,-7,-1,-3
1522257267178265,-13,-2,-4,-14,32,23,3,4
1522257267187290,0,1,5,18,-16,6,-4,-2
1522257267187290,45,7,4,5,-16,6,4,17
1522257267202329,-59,-8,1,-3,15,-4,5,-2
1522257267202329,-5,-9,-2,-6,-7,4,-14,-27
1522257267204335,-6,0,5,-3,29,26,-4,-4
1522257267204335,2,2,-2,-3,8,-11,0,6
1522257267224388,28,-4,-1,2,12,-12,-4,-8
1522257267224388,-4,0,-4,4,-43,6,-2,-5
1522257267226394,3,5,-3,-9,12,12,1,8
1522257267226394,-3,-3,-4,-18,-12,-9,-5,-14
1522257267238425,8,-6,-8,-26,11,65,3,-5
1522257267238425,-31,-1,-2,30,11,18,9,6
1522257267247450,0,-8,2,-1,-6,7,-3,-6
1522257267247450,5,5,1,-9,-30,-28,-2,11
1522257267262490,2,1,7,14,-16,2,5,3
1522257267262490,34,-1,-3,-37,-14,-13,-2,-8
1522257267263493,-52,-4,-5,31,23,6,-2,-3
1522257267263493,-38,-6,-5,-7,9,16,2,-1
1522257267284548,14,-7,-2,11,8,-21,-11,-9
1522257267284548,-33,3,1,1,35,-2,0,-5
1522257267286554,20,7,0,-5,-42,-25,0,2
1522257267286554,23,7,-5,-5,2,7,0,2
1522257267298587,12,8,0,8,8,-12,1,4
1522257267298587,0,-4,-3,5,-10,-6,-1,-12
1522257267307610,14,-9,1,-5,23,10,1,0
1522257267307610,-20,-20,-2,-2,4,25,3,6
1522257267322649,6,-7,-4,-3,-34,-11,-1,9
1522257267322649,5,0,-1,2,11,-8,6,16
1522257267323652,-12,8,2,-6,-23,3,0,-14
1522257267323652,2,5,3,1,2,15,-2,-5
1522257267344708,1,2,0,-2,15,17,3,-6
1522257267344708,16,-2,6,-22,26,6,2,21
1522257267346714,-33,-9,-7,-1,-31,-23,-3,-10
1522257267346714,29,-3,-4,-6,20,-12,-4,-1
1522257267358745,44,10,2,22,-30,-8,4,28
1522257267358745,-50,2,-1,-12,-6,-9,-4,-14
1522257267367770,-53,-6,-1,-7,20,-2,-11,-24
1522257267367770,-32,3,6,9,13,3,5,13
1522257267381807,26,4,-2,-11,-1,-16,-6,-11
1522257267381807,57,2,2,5,-15,-2,1,19
1522257267383812,19,2,1,0,10,10,-4,9
1522257267383812,-16,-7,-4,0,-4,-1,-1,-17
1522257267404868,-12,3,-1,0,18,0,6,-1
1522257267404868,4,7,0,9,-7,-1,0,5
1522257267405871,15,2,-2,-3,-12,-3,1,4
1522257267405871,-10,3,1,0,-1,3,0,-1
1522257267418906,0,-2,-3,1,56,-3,-4,4
1522257267418906,-10,-4,-7,4,-30,-8,-7,-10
1522257267427929,11,-1,-3,-12,-6,-3,-4,6
1522257267427929,11,-6,2,7,1,3,-3,-5
1522257267441966,-26,-12,0,-4,-19,-42,7,-11
1522257267441966,19,1,-3,-3,18,49,4,-2
1522257267443972,41,15,4,7,15,8,9,17
1522257267443972,-23,-5,3,5,-8,-8,-10,-11
1522257267465028,-83,-1,3,-8,13,5,-6,-6
1522257267465028,59,-5,-8,-3,-17,-12,-12,-10
1522257267466030,33,1,2,21,22,4,9,12
1522257267466030,27,2,-5,3,-24,6,-1,-10
1522257267478062,-28,-10,-2,1,13,2,-5,-3
1522257267478062,-3,-1,2,-7,-14,-11,2,12
1522257267487086,-29,1,1,-4,2,2,2,5
1522257267487086,18,2,1,2,3,-6,1,6
1522257267501124,24,6,1,3,-3,12,1,9
1522257267501124,-58,-24,-15,9,-9,-13,-2,-8
1522257267508142,3,-3,-10,-7,-3,-6,-6,-14
1522257267508142,9,15,19,-1,5,2,3,3
1522257267525187,-14,5,-1,-5,-1,3,3,2
1522257267525187,17,7,-2,-5,-41,-19,4,5
1522257267526190,-10,-7,-7,-5,7,-1,-2,-9
1522257267526190,-33,-9,-4,-7,3,14,5,-9
1522257267547246,30,-4,-4,0,-32,-8,-2,-11
1522257267547246,-16,1,9,1,5,-3,-3,-2
1522257267549252,-12,2,4,2,15,10,-9,-1
1522257267549252,32,5,-5,-25,-14,-16,-2,6
1522257267561283,12,-1,-1,2,-8,-30,-7,-5
1522257267561283,-30,-1,1,19,24,48,6,4
1522257267568302,32,7,-2,15,-1,-29,-3,-2
1522257267568302,-35,-7,0,3,11,1,6,15
1522257267584345,39,3,-2,-1,-5,-2,3,11
1522257267584345,-37,2,-3,-20,-6,-13,-6,-17
1522257267586351,1,-3,-5,-8,7,0,-1,5
1522257267586351,30,2,-1,7,-5,2,-4,0
1522257267607406,-78,-14,0,-3,16,9,-1,1
1522257267607406,21,0,10,7,6,-3,-1,7
1522257267608409,-15,-3,3,-5,-39,-6,7,7
1522257267608409,3,1,-7,2,11,-9,-6,-16
1522257267621443,20,3,-1,5,-5,7,-11,-12
1522257267621443,-1,1,-4,5,3,-10,2,-12
1522257267628462,-17,-3,-1,-10,46,10,10,8
1522257267628462,10,-1,-1,11,-58,0,-2,-1
1522257267644504,26,5,0,3,15,5,0,7
1522257267644504,-5,4,5,3,2,-11,-4,-3
1522257267646510,-45,-9,-3,-18,-18,-17,-14,-8
1522257267646510,24,-4,-6,-52,64,-22,-1,11
1522257267667566,-35,-7,2,30,-89,26,-2,-8
1522257267667566,15,-1,-5,-5,-24,-7,2,-17
1522257267668573,32,10,4,38,-3,18,8,-2
1522257267668573,-28,-3,-3,0,21,0,-5,-11
1522257267681603,23,-1,-3,-21,13,-9,-6,-2
1522257267681603,2,0,-1,-4,4,-6,8,17
1522257267688622,20,0,1,-11,-11,-5,2,23
1522257267688622,-30,-7,0,1,-16,-4,-2,-13
1522257267704664,7,-5,-3,-4,14,-11,-1,-19
1522257267704664,15,0,2,6,20,0,-11,5
1522257267706670,22,-3,-5,-8,-4,-3,-5,-13
1522257267706670,-83,-3,1,11,-22,16,-2,6
1522257267727726,36,8,1,0,4,5,10,44
1522257267727726,-34,-7,-6,-4,23,-5,-4,-33
1522257267728729,21,4,-5,-10,-14,1,1,11
1522257267728729,16,4,5,8,2,1,5,11
1522257267741763,-16,-3,3,-4,12,0,5,-3
1522257267741763,3,-3,0,1,2,-7,0,16
1522257267748781,-5,-4,-2,-3,17,-59,-6,-14
1522257267748781,25,4,-6,-14,-64,20,5,6
1522257267764824,-3,5,-5,-6,17,14,-3,-24
1522257267764824,-9,-3,-5,24,1,10,-4,7
1522257267766830,-21,-3,0,16,5,17,4,-4
1522257267766830,20,-4,-4,4,22,-18,-12,-7
1522257267786883,-18,-6,-1,-10,-28,-12,-8,-28
1522257267786883,30,3,0,-14,5,-8,1,17
1522257267788888,-43,0,1,1,15,25,-4,-19
1522257267788888,-8,-2,-3,6,6,-4,5,27
1522257267801923,27,0,-1,5,28,15,-4,-14
1522257267801923,-9,-4,1,-5,-19,-5,1,-16
1522257267807939,13,-3,2,-15,-16,6,3,0
1522257267807939,49,5,-1,-1,14,8,4,11
1522257267824984,-75,-10,-8,-10,14,-8,0,1
1522257267824984,16,5,4,9,-11,-27,-5,6
1522257267825987,6,-2,2,-9,13,55,12,-15
1522257267825987,3,1,1,-3,-10,-36,0,21
1522257267847043,18,-4,2,20,-9,32,10,28
1522257267847043,-3,-3,-6,-48,10,-45,-9,2
1522257267849048,-7,-3,-6,26,-10,21,8,-5
1522257267849048,16,9,12,29,-1,12,-9,-6
1522257267861080,22,2,-4,7,-16,-14,3,10
1522257267861080,-19,-5,-2,-4,27,-2,-4,-17
1522257267870104,18,-2,-7,-15,-11,-23,-13,-8
1522257267870104,10,-3,-5,-14,6,16,1,-9
1522257267885144,16,1,1,9,0,-12,-2,13
1522257267885144,-8,4,1,-15,-28,24,-6,0
1522257267886147,-3,4,-1,-5,23,-6,6,12
1522257267886147,0,-3,-3,-3,-17,-15,-6,-20
1522257267907203,5,-1,-3,-27,2,-23,-1,-5
1522257267907203,-25,-3,0,17,32,15,17,-1
1522257267909208,4,0,0,-2,-29,8,-6,9
1522257267909208,18,1,3,8,-13,-9,4,4
1522257267921240,-71,-4,1,-7,18,-8,-5,-15
1522257267921240,19,-3,3,6,-29,29,14,11
1522257267930264,-30,-7,-2,-6,-1,-37,-12,-20
1522257267930264,0,0,-4,0,10,14,-6,-13
1522257267944301,15,2,-5,-27,3,-14,-1,5
1522257267944301,18,2,0,40,56,36,1,8
1522257267946307,-5,1,4,19,-73,42,3,9
1522257267946307,-22,-2,-3,9,0,-21,-13,-19
1522257267967363,-11,4,4,-1,-9,3,3,2
1522257267967363,-7,2,-4,-36,-17,-20,-1,11
1522257267969368,21,-5,-2,20,46,-13,-1,-14
1522257267969368,-27,-2,-1,11,-10,25,6,11
1522257267980398,10,2,4,14,0,18,7,22
1522257267980398,17,5,2,-10,-22,-17,-8,-10
1522257267989421,-12,-3,-5,-21,9,-20,-11,-15
1522257267989421,-13,-6,-3,-6,28,11,-1,-10
1522257268004461,13,2,-1,-2,-11,-4,-3,4
1522257268004461,8,3,0,8,-30,-5,-1,6
1522257268006467,-6,1,0,-8,-2,6,12,4
1522257268006467,13,4,2,12,5,8,12,4
1522257268027523,5,-5,-1,3,24,7,-4,-6
1522257268027523,-64,-10,0,-7,2,-24,-7,-9
1522257268028525,7,3,1,-1,-18,-14,-13,-7
1522257268028525,12,0,-4,-19,8,-17,2,9
1522257268040557,-3,2,-1,16,-17,71,1,-1
1522257268040557,5,-7,-4,39,-10,-35,-6,13
1522257268049581,-1,1,4,-15,13,-4,0,2
1522257268049581,-16,-3,0,-11,-6,3,0,-10
1522257268064621,16,-4,-6,-27,-2,15,4,-4
1522257268064621,-4,-5,-3,3,-6,7,1,-6
1522257268066627,27,5,0,15,24,13,3,19
1522257268066627,-17,-6,0,5,8,-10,-3,-10
1522257268087683,52,8,0,5,-29,-22,5,15
1522257268087683,-37,1,-3,-12,12,15,-12,-42
1522257268088685,-3,-12,-7,-15,-10,-15,-6,-3
1522257268088685,9,-1,-1,4,10,-16,3,-3
1522257268100717,6,-6,0,2,6,-17,0,14
1522257268100717,47,1,3,-5,0,13,9,8
1522257268109741,-14,0,5,0,17,-7,-10,-4
1522257268109741,-12,0,1,-3,6,4,-1,3
1522257268124781,-10,-1,-1,-1,-52,-35,-8,-12
1522257268124781,10,7,1,0,-6,-3,5,19
1522257268126787,-20,1,-4,-1,-6,-13,-7,-29
1522257268126787,13,1,-2,0,-8,-4,5,11
1522257268146840,-20,1,-7,-1,29,23,3,7
1522257268146840,2,5,0,-1,23,9,-3,-16
1522257268148845,17,0,-4,-2,-19,-10,-3,5
1522257268148845,-66,-12,-2,-6,-11,5,-7,-16
1522257268160877,14,1,1,6,13,-5,-3,-6
1522257268160877,12,-5,-4,-11,0,6,10,-2
1522257268169901,31,5,-2,-4,0,11,7,8
1522257268169901,5,6,3,2,40,10,2,-1
1522257268184941,-15,-5,-1,-8,-30,-32,-12,-10
1522257268184941,10,-3,5,-14,-35,23,-1,16
1522257268185944,0,0,2,14,-2,1,7,13
1522257268185944,-1,-5,0,7,-1,-3,-7,-16
1522257268206999,-19,-2,0,1,19,-8,-5,-19
1522257268206999,27,4,-2,1,4,-4,0,2
1522257268209005,-29,-6,-2,-14,23,-7,-6,2
1522257268209005,25,-3,-4,9,-19,-3,7,21
1522257268221037,-30,1,-4,4,-9,19,7,-8
1522257268221037,18,2,-1,-2,-41,-23,-6,-9
1522257268230061,-15,5,0,-7,-3,5,5,1
1522257268230061,32,1,0,-10,-3,-8,4,11
1522257268244098,44,3,2,2,28,1,-1,1
1522257268244098,-114,-16,-8,1,9,0,-4,-14
1522257268251117,39,3,2,-1,0,0,3,6
1522257268251117,-7,0,0,-3,-5,8,-4,-1
1522257268267159,22,4,8,10,-6,-5,-2,10
1522257268267159,31,8,3,7,18,7,-2,6
1522257268269165,-30,3,4,4,-6,-7,0,-5
1522257268269165,16,2,-1,0,-12,26,3,-2
1522257268281197,-63,-9,-4,2,1,-4,-2,-13
1522257268281197,3,-9,-3,3,8,2,-2,-3
1522257268290221,-8,-2,-6,-3,-2,-1,-6,-3
1522257268290221,51,4,-2,-6,-1,-16,-3,-1
1522257268305261,-38,-2,-4,-12,26,1,1,-2
1522257268305261,-38,-6,-2,-4,-46,7,-7,-5
1522257268306264,-1,-6,-3,-9,18,7,2,1
1522257268306264,14,3,2,13,-1,-4,-7,-1
1522257268327319,-12,0,-1,-3,13,2,-9,-9
1522257268327319,36,0,-4,6,12,-6,1,5
1522257268329325,21,0,-1,-5,9,4,0,15
1522257268329325,-31,-3,-4,-28,-44,-5,6,-2
1522257268341356,16,-5,-1,23,15,-5,1,-12
1522257268341356,6,5,-1,6,9,7,4,3
1522257268350381,17,4,2,7,-17,-3,2,17
1522257268350381,-1,-5,-2,-4,12,0,0,-1
1522257268364418,-8,-4,1,-5,-13,-7,0,-2
1522257268364418,2,0,-4,-1,7,-12,1,1
1522257268366423,11,2,-1,-2,-4,10,-1,-5
1522257268366423,4,0,6,0,16,4,-7,-8
1522257268387479,-9,0,1,-4,-15,-1,-1,5
1522257268387479,21,3,-1,-7,-3,-17,0,28
1522257268388482,-16,-1,-2,-1,5,17,5,-23
1522257268388482,18,1,-4,-1,1,-1,-3,-11
1522257268400514,1,-3,-4,7,3,-1,2,-2
1522257268400514,1,-1,1,-3,6,-7,5,10
1522257268409538,-17,-2,1,-10,-2,-13,-3,4
1522257268409538,-20,-3,0,-4,3,12,2,3
1522257268424578,18,2,1,-8,-2,-6,-1,-1
1522257268424578,5,0,-1,-4,4,8,-3,-17
1522257268430594,-11,0,4,-1,-6,-7,-7,-4
1522257268430594,20,-7,-5,9,-7,-13,6,1
1522257268447639,-60,-8,4,11,-2,5,5,12
1522257268447639,17,-6,-1,13,0,5,-1,0
1522257268448642,-14,-4,-7,11,4,-4,-8,-35
1522257268448642,17,6,-3,5,-22,-15,-3,7
1522257268460674,26,7,-1,0,3,1,-1,8
1522257268460674,-4,-8,-2,-3,1,6,-3,-18
1522257268469698,-17,-4,-1,-1,-14,-11,-4,6
1522257268469698,-22,-4,-4,-6,16,25,7,8
1522257268483735,23,1,-3,-21,-14,4,-1,-44
1522257268483735,-8,6,2,-23,18,5,6,58
1522257268490754,44,1,0,-24,-18,-21,1,9
1522257268490754,-68,-3,7,6,31,4,-3,-22
1522257268506796,-54,-9,-2,-2,-1,-32,-5,-22
1522257268506796,18,0,2,10,4,18,5,-10
1522257268508802,30,1,-3,-2,-7,6,-12,-46
1522257268508802,-36,-7,0,-2,-10,-40,-4,17
1522257268529858,14,4,2,-15,10,19,3,-4
1522257268529858,-45,-4,-7,-2,5,1,-2,-9
1522257268531863,52,7,2,19,4,-9,4,29
1522257268531863,62,5,3,9,-13,3,-3,-3
1522257268543895,-33,-5,-5,8,0,1,-3,6
1522257268543895,33,3,-3,-6,-14,-12,-2,-13
1522257268550914,1,2,-2,5,10,23,13,17
1522257268550914,2,-3,-2,6,25,3,-8,-17
1522257268566956,22,-5,-5,-7,-34,-10,2,16
1522257268566956,-2,5,2,2,12,7,-2,2
1522257268568962,-22,-3,0,-2,-10,-5,6,0
1522257268568962,-23,3,1,-8,-7,1,-3,-10
1522257268590017,26,-1,0,1,25,-4,3,13
1522257268590017,-5,-9,-2,1,-21,5,-1,-2
1522257268591020,-20,-4,-4,-6,-6,-17,-1,-1
1522257268591020,10,2,0,1,0,17,9,6
1522257268604055,5,6,5,0,-17,11,-9,-3
1522257268604055,30,2,1,2,-10,-20,-7,-2
1522257268611073,-11,1,0,-13,-1,-6,-4,-3
1522257268611073,43,0,-5,19,39,-3,-6,20
1522257268627116,15,-5,-5,-33,28,-12,10,7
1522257268627116,-54,-5,2,47,-20,21,-8,-19
1522257268629121,12,-3,1,7,-6,21,-5,17
1522257268629121,-26,3,0,0,9,-7,1,-22
1522257268650178,38,6,2,10,4,0,-2,20
1522257268650178,10,1,1,-19,3,-10,7,12
1522257268651180,3,-3,-4,-2,3,-5,1,-7
1522257268651180,0,-11,0,-6,-5,6,-6,4
1522257268664215,3,-2,-4,-8,-16,1,-1,8
1522257268664215,-18,-2,1,-10,9,-1,-1,0
1522257268671233,-33,0,1,9,-1,-2,-5,-11
1522257268671233,13,6,1,-12,-32,-10,4,6
1522257268687276,-7,0,-4,1,-13,8,1,9
1522257268687276,-28,-4,0,-1,-3,-20,-7,-25
1522257268689282,6,-4,-1,2,8,0,-2,-1
1522257268689282,4,-1,-8,-7,5,1,3,-4
1522257268709334,4,3,3,13,-22,16,-1,-11
1522257268709334,-10,1,-3,-24,1,-3,2,5
1522257268711340,1,-3,-2,-5,18,-25,-2,-5
1522257268711340,2,2,-1,4,-67,-5,-3,14
1522257268724374,18,2,-1,11,20,-25,-3,7
1522257268724374,22,-1,-1,22,9,5,5,-3
1522257268731393,-17,-6,1,-5,4,7,-1,-11
1522257268731393,-20,-7,-8,-14,11,10,-9,-4
1522257268747436,21,3,3,27,-9,-15,-4,5
1522257268747436,-9,-1,-1,-18,10,-3,1,-2
1522257268748439,-5,5,1,8,-17,30,0,8
1522257268748439,-28,-7,3,2,6,1,2,-5
1522257268769494,9,-1,0,-13,-5,8,2,8
1522257268769494,13,4,-2,0,-3,-1,0,0
1522257268771500,15,-5,-4,0,20,-20,4,-15
1522257268771500,-8,1,0,-5,-13,-2,0,-14
1522257268783532,8,-5,-1,-3,7,6,1,-2
1522257268783532,-2,0,-7,5,9,-7,-5,3
1522257268792556,5,-1,3,-7,-17,-9,1,10
1522257268792556,3,2,-1,-11,0,16,4,4
1522257268807595,-12,-4,-1,-18,1,-43,-3,5
1522257268807595,-14,-5,-6,-18,13,-4,-13,-12
1522257268808599,-8,0,-8,-9,-47,21,-8,-27
1522257268808599,-35,0,11,59,53,-6,2,-11
1522257268829654,24,0,1,8,1,11,0,-1
1522257268829654,6,-8,-5,-11,11,-4,0,-6
1522257268831660,18,-3,-4,-20,22,-12,-4,9
1522257268831660,-24,-1,0,-12,-8,18,-5,8
1522257268843691,-19,0,-4,11,-9,8,0,-10
1522257268843691,21,3,-1,8,-1,1,4,10
1522257268852716,7,0,2,5,0,-5,1,0
1522257268852716,24,3,-4,-10,-8,-12,2,13
1522257268867756,-71,-4,-4,-5,5,3,-4,-31
1522257268867756,12,4,4,-10,-9,10,10,18
1522257268868758,-18,9,8,6,6,-3,-4,-4
1522257268868758,33,-9,-3,-12,-2,-3,-5,2
1522257268889814,12,1,-2,-1,-3,4,-2,-3
1522257268889814,7,-2,0,7,3,-3,-4,3
1522257268891820,-58,-2,-2,-3,-50,13,-1,1
1522257268891820,13,0,0,8,4,-4,2,11
1522257268903851,-2,-7,-1,15,10,7,5,-2
1522257268903851,13,2,1,5,-35,-18,-3,-7
1522257268912875,22,3,1,2,26,18,-3,8
1522257268912875,-5,-1,-2,-17,-10,3,-2,-7
1522257268926913,14,5,-4,-3,-1,-5,2,11
1522257268926913,6,2,1,-23,-35,57,5,-8
1522257268928918,-16,2,3,46,-4,-30,-5,-5
1522257268928918,8,-3,-2,-3,1,-13,0,6
1522257268949974,-17,-2,3,1,6,9,-7,-10
1522257268949974,-38,-8,-5,-2,8,-13,-2,-11
1522257268950977,40,1,-1,-22,26,6,5,6
1522257268950977,-7,-4,-5,-1,-9,8,4,4
1522257268963009,1,2,2,-5,16,-15,4,19
1522257268963009,17,2,-3,-1,-1,-5,-12,-19
1522257268972033,13,-1,4,2,-5,-1,4,8
1522257268972033,-44,-2,3,4,8,-9,-5,-1
1522257268987073,8,0,-1,-7,-7,9,5,14
1522257268987073,-16,-7,-1,5,5,-10,-6,-26
1522257268989078,13,-5,-1,3,12,4,1,11
1522257268989078,3,3,-1,-4,-12,3,2,-6
1522257269010134,36,0,-8,-9,4,-5,-4,-5
1522257269010134,42,10,5,1,12,-10,3,18
1522257269011137,-61,-10,-5,1,24,3,3,-7
1522257269011137,36,1,-2,-10,-22,-3,-4,2
1522257269023170,-17,-2,0,3,-24,-1,-1,1
1522257269023170,34,-5,0,13,20,-10,5,9
1522257269032192,-1,1,2,-8,-21,-7,-8,-5
1522257269032192,2,0,-1,-2,-11,-13,6,11
1522257269047232,-45,-5,-1,-2,18,4,-13,-33
1522257269047232,-18,3,-2,7,-12,3,3,3
1522257269049238,-7,-1,-3,-8,-6,2,1,-12
1522257269049238,18,2,0,6,-2,-3,2,10
1522257269069291,47,1,-2,-10,-6,-7,3,5
1522257269069291,-22,3,2,-15,23,-3,-4,6
1522257269071297,-49,-7,-7,-5,-18,-51,-1,-4
1522257269071297,18,-5,-1,8,15,11,-7,-13
1522257269083329,-17,-2,2,10,2,17,1,5
1522257269083329,2,0,2,4,-5,-6,-4,8
1522257269092353,31,5,1,4,7,10,5,15
1522257269092353,-23,3,2,-2,15,1,1,-7
1522257269107392,90,9,-2,-2,-23,-10,1,6
1522257269107392,-81,-6,-3,5,-20,-1,-8,-11
1522257269109398,36,3,1,-6,7,9,1,2
1522257269109398,-12,-1,-1,1,-7,-2,-5,-4
1522257269129451,-32,-15,-3,-13,-23,3,0,-6
1522257269129451,33,2,-1,-3,3,3,2,5
1522257269131456,28,12,6,2,6,10,1,6
1522257269131456,-4,-1,4,-5,25,-3,0,-3
1522257269143488,-37,-2,-4,-20,16,-23,-2,-15
1522257269143488,11,-4,1,29,0,-2,0,-18
1522257269152512,-45,-7,-2,0,-11,-4,1,-16
1522257269152512,20,0,-7,-1,7,14,5,6
1522257269167553,9,1,-4,5,-22,-14,-9,6
1522257269167553,7,-7,-4,-7,-4,6,3,6
1522257269168555,9,-2,-1,0,-7,1,-4,-2
1522257269168555,21,4,0,1,5,-9,-4,6
1522257269189611,-74,-4,0,-6,24,13,-2,-18
1522257269189611,19,8,3,-2,-22,1,8,27
1522257269191616,2,-1,-3,4,-9,-5,-5,-18
1522257269191616,-2,-4,1,-8,-2,-3,0,-5
1522257269203648,-37,-8,-3,-3,5,7,-4,-12
1522257269203648,10,3,3,1,-14,-1,-1,1
1522257269212672,-42,1,-3,-2,3,-1,6,5
1522257269212672,28,-8,-5,-8,-16,-6,-9,-10
1522257269227712,13,1,4,3,22,15,2,3
1522257269227712,-38,-3,-4,5,-14,-30,-6,0
1522257269228715,26,-1,-2,1,3,21,6,6
1522257269228715,-35,3,-4,-4,-13,-14,-4,-19
1522257269249771,42,0,-4,-9,-13,11,7,3
1522257269249771,-59,-9,-1,-18,17,-12,-5,-1
1522257269251776,19,0,0,15,17,-11,-6,14
1522257269251776,-3,-1,2,-5,7,3,0,8
1522257269263808,23,1,-2,-19,-53,-17,-4,-9
1522257269263808,10,1,2,30,21,34,0,-9
1522257269272833,16,0,3,13,12,2,6,6
1522257269272833,-35,-1,0,12,3,-4,1,-4
1522257269286869,6,3,1,12,-17,-8,-3,7
1522257269286869,-5,0,-4,-21,7,6,-5,14
1522257269288875,7,-5,-4,-6,-3,-2,-7,-2
1522257269288875,17,0,1,-1,4,10,3,10
1522257269309931,-14,-12,-1,-5,16,-3,-1,-17
1522257269309931,23,0,-1,-5,-13,-1,3,2
1522257269310933,-8,19,9,3,7,8,1,1
1522257269310933,6,-2,-1,1,-5,-12,4,-1
1522257269322965,13,6,-3,6,5,13,6,15
1522257269322965,9,-8,-4,6,20,17,-2,-6
1522257269331989,-6,-3,-4,-7,-31,-1,-8,-22
1522257269331989,-2,3,-2,-13,-2,1,2,12
1522257269347029,16,-5,-1,0,-3,-5,-7,4
1522257269347029,-19,-5,-4,-10,1,-5,2,-7
1522257269353045,-11,-5,-1,-15,-15,12,-1,-14
1522257269353045,7,3,5,48,37,12,1,9
1522257269370090,1,1,1,15,-33,7,5,8
1522257269370090,-3,4,-1,-17,-4,-6,0,-2
1522257269371093,11,-1,-2,-6,-1,-10,-5,-12
1522257269371093,3,-1,-3,-9,-13,-11,-12,-5
1522257269383125,-29,-3,0,-4,19,4,4,1
1522257269383125,3,0,-1,4,8,6,-1,4
1522257269392149,-2,-1,-4,-4,6,2,0,3
1522257269392149,0,1,-2,-13,-10,20,6,-12
1522257269406187,16,1,5,8,10,-22,-8,-3
1522257269406187,-2,-1,1,-3,-24,-7,2,1
1522257269413205,-21,-7,-4,2,7,3,0,1
1522257269413205,-7,-4,-6,-22,36,6,-8,-5
1522257269430250,1,1,0,-12,-19,-2,0,3
1522257269430250,13,1,7,48,-2,-12,-1,-11
1522257269431253,17,2,2,14,-21,27,5,15
1522257269431253,-13,4,1,9,-6,-13,3,5
1522257269452309,-63,-5,-4,4,28,-2,-12,-37
1522257269452309,2,-2,-6,-34,-3,1,4,-6
1522257269454315,3,-2,-1,-10,-3,-42,2,10
1522257269454315,30,2,2,8,17,33,5,13
1522257269466346,-35,-1,3,12,-1,7,0,-7
1522257269466346,11,2,-2,15,-12,-1,-6,-8
1522257269473365,7,-2,-4,3,4,-11,0,5
1522257269473365,-6,-1,-3,-17,-10,-9,0,-8
1522257269489408,8,-1,-3,1,-4,-18,1,17
1522257269489408,-11,-4,-3,2,-3,8,-7,-18
1522257269491413,3,0,5,-1,31,7,-4,10
1522257269491413,11,-1,-2,-17,-15,-1,-3,-2
1522257269512469,26,5,-1,-4,-51,-21,6,9
1522257269512469,0,1,-4,-17,-11,7,1,6
1522257269513472,7,4,3,5,26,9,6,1
1522257269513472,-23,-7,-3,-1,-7,-4,-13,-11
1522257269525503,4,-3,3,9,-10,5,-1,1
1522257269525503,36,3,0,-15,0,-42,-3,8
1522257269534527,-80,-4,0,6,-28,2,-3,-17
1522257269534527,2,0,1,-2,2,-7,6,7
1522257269549567,14,1,-1,2,50,12,3,18
1522257269549567,7,-1,-2,-14,-30,-2,-1,-10
1522257269551573,10,-2,-7,-10,13,4,-1,7
1522257269551573,-18,-2,-1,3,-24,-23,-4,-17
1522257269572629,5,6,-1,-2,-8,20,-1,-3
1522257269572629,14,4,2,7,20,9,4,9
1522257269573632,30,-2,-1,0,-1,-2,-3,0
1522257269573632,-67,-13,-6,-6,-28,-2,-7,-13
1522257269586666,20,-4,-4,-2,33,-2,0,5
1522257269586666,-8,-1,-2,-18,10,14,-3,-16
1522257269593684,27,2,2,-10,-28,-16,3,0
1522257269593684,55,7,5,25,42,24,7,17
1522257269609727,-80,-3,2,9,5,18,7,9
1522257269609727,-25,-9,-10,-14,-20,-18,-9,-35
1522257269611733,5,-4,-5,-7,39,16,-3,-2
1522257269611733,-4,1,1,11,-77,-29,-6,-13
1522257269631786,31,4,3,-6,-41,25,4,21
1522257269631786,1,-2,2,16,32,14,0,12
1522257269633792,-13,-6,-2,-8,7,0,3,-11
1522257269633792,10,-3,2,23,10,22,-8,20
1522257269646826,8,-2,-2,-15,-17,-10,-8,-13
1522257269646826,-19,-1,-1,11,7,-12,-1,5
1522257269653845,1,-3,-6,-7,-14,0,-5,-21
1522257269653845,7,1,-1,-14,19,-10,3,16
1522257269669887,14,2,-1,6,10,-9,1,3
1522257269669887,-21,-3,-3,-2,-16,-3,1,-6
1522257269671893,-11,-5,0,2,16,8,3,1
1522257269671893,-7,-5,-2,-13,7,-11,3,-15
1522257269691946,22,3,-4,-8,-8,-13,-5,-1
1522257269691946,21,4,3,8,2,9,7,0
1522257269693951,-13,4,3,-2,-27,-11,-10,0
1522257269693951,6,5,1,-4,-9,-1,2,-2
1522257269706986,-6,-2,-3,-27,49,-6,1,-8
1522257269706986,9,2,2,27,22,-8,-11,0
1522257269713002,3,-4,0,53,-29,36,12,6
1522257269713002,-16,-2,-4,4,-28,-21,-2,-1
1522257269730047,6,-3,-2,13,22,-10,-5,-10
1522257269730047,18,6,1,-35,7,4,5,18
1522257269731050,-15,-4,2,-11,55,6,-3,-5
1522257269731050,-8,-6,-2,10,6,-6,-3,-20
1522257269760127,20,-1,-4,0,-28,1,8,24
1522257269760127,-39,-7,-2,2,9,-5,-11,5
1522257269761130,15,1,-1,-13,-29,-10,-1,2
1522257269761130,17,-1,1,-13,10,3,-1,0
1522257269766143,-27,-8,-6,2,8,0,-7,-13
1522257269766143,-3,1,-1,0,-11,6,5,-1
1522257269775167,-2,-1,-5,-3,-9,-31,-6,-13
1522257269775167,-3,3,1,-10,-3,12,-5,9
1522257269790207,19,3,3,1,-1,-13,-7,-15
1522257269790207,16,0,1,6,0,0,9,11
1522257269792212,-2,1,5,-6,-8,-4,-3,3
1522257269792212,15,1,-3,-1,7,-5,1,-6
1522257269812266,-18,0,2,3,-4,35,7,4
1522257269812266,20,5,-1,-3,7,2,4,4
1522257269814271,2,1,-2,-8,-6,-8,-4,0
1522257269814271,-1,-1,-1,8,-23,-2,2,2
1522257269826303,9,1,0,4,3,-4,-5,-2
1522257269826303,-7,-3,-4,0,-2,-3,1,0
1522257269835327,7,0,-2,7,-8,1,-1,19
1522257269835327,1,4,-1,-3,8,-7,-12,0
1522257269849364,-12,-1,-3,-11,-10,-2,0,9
1522257269849364,21,-4,-4,1,-10,-2,-5,-11
1522257269851370,-4,4,-1,-10,46,-10,3,15
1522257269851370,-35,-1,3,33,-5,46,13,-16
1522257269872425,31,4,4,4,-28,-23,-10,-19
1522257269872425,-21,2,6,-3,-13,9,-4,13
1522257269873428,26,-4,0,-2,31,-6,-6,-7
1522257269873428,-19,-4,-6,-28,-46,-12,-1,-4
1522257269885460,-16,-5,-4,2,21,4,4,-11
1522257269885460,40,0,-1,5,-12,-9,3,5
1522257269894484,-5,0,-3,-10,-15,2,2,-9
1522257269894484,2,-3,-2,-5,25,-2,1,7
1522257269909524,-10,-19,-6,-1,-7,-5,-12,-29
1522257269909524,7,11,2,-3,0,-5,1,9
1522257269911529,-11,6,5,4,-18,5,2,-4
1522257269911529,35,0,-1,-4,11,-1,-5,-1
1522257269932585,-4,-5,1,4,-1,-13,-4,-1
1522257269932585,-17,6,-3,-2,12,8,-3,-1
1522257269933588,0,2,1,7,14,4,5,14
1522257269933588,-4,9,-1,2,-17,-11,2,6
1522257269945620,10,0,-6,-7,-14,-1,5,-15
1522257269945620,7,-10,-14,-3,-3,0,-2,10
1522257269954644,-11,0,12,2,-13,-1,1,1
1522257269954644,-40,-19,-3,-7,12,-8,-3,-22
1522257269969684,-7,-7,0,3,17,8,2,19
1522257269969684,11,9,2,3,0,6,7,-12
1522257269971690,10,-3,-7,0,-7,0,-5,3
1522257269971690,34,2,1,-1,34,3,-5,-5
1522257269992745,-31,1,-4,-5,-36,-12,-5,3
1522257269992745,-30,2,0,-3,9,-12,2,-6
1522257269993748,44,-3,-5,-6,-67,-15,-9,5
1522257269993748,-12,-2,3,-4,8,-2,2,-1
1522257270005780,-16,11,4,11,12,10,8,16
1522257270005780,38,-5,1,-3,-2,1,2,8
1522257270014804,2,-6,-2,-3,10,-11,-3,-17
1522257270014804,-10,0,-6,-19,-14,-6,0,6
1522257270029844,29,7,-1,24,3,2,-2,11
1522257270029844,-58,-6,2,-6,-9,3,3,-10
1522257270031849,19,4,-4,3,15,9,-1,0
1522257270031849,1,-2,-4,-1,-8,-2,-1,7
1522257270051902,10,-4,1,-10,10,-3,-6,-7
1522257270051902,16,2,0,3,3,4,-5,-3
1522257270053908,-48,0,0,0,-5,0,-2,-13
1522257270053908,17,-3,-3,-1,2,-11,-2,2
1522257270065940,20,10,8,-3,2,2,1,8
1522257270065940,-20,-4,-1,-7,-10,-28,8,-6
1522257270074964,-14,-3,-4,-3,17,9,7,-12
1522257270074964,15,-6,-7,1,-53,-8,0,-2
1522257270090004,-1,-2,0,-5,7,-8,-1,-6
1522257270090004,-55,-3,1,-3,-21,-24,-7,-13
1522257270091006,3,0,-4,-16,10,4,-8,2
1522257270091006,-4,-1,-1,12,35,13,-5,-5
1522257270112062,-9,-4,-4,1,-16,0,11,-4
1522257270112062,13,-1,-2,-2,-6,6,-5,2
1522257270114068,-1,3,2,3,-7,-17,1,12
1522257270114068,-18,2,4,-2,7,-20,1,-7
1522257270126100,-3,-1,1,-6,-3,44,2,-8
1522257270126100,8,-8,-5,-1,7,-11,-8,-10
1522257270135124,4,-1,0,14,-2,0,11,7
1522257270135124,-3,1,-2,8,-7,-2,-4,0
1522257270150164,-10,1,-5,5,7,-18,-7,-4
1522257270150164,14,1,-2,2,-1,12,-1,3
1522257270151166,-11,-1,2,-9,-8,-3,-6,-14
1522257270151166,4,3,2,-9,4,-7,-4,14
1522257270172223,11,-11,-4,-12,3,-6,1,4
1522257270172223,25,-15,-4,-4,7,14,2,0
1522257270174228,-24,13,3,1,-6,-2,-4,9
1522257270174228,7,0,12,6,6,8,-2,-3
1522257270186259,-4,-4,-3,5,30,5,2,-6
1522257270186259,31,-5,-3,9,-30,-25,-9,-9
1522257270195284,4,-4,-2,5,-3,11,10,11
1522257270195284,-14,-2,-3,-2,-6,4,2,8
1522257270210323,5,4,1,-3,-6,-25,-6,-12
1522257270210323,-13,2,0,3,34,-14,-10,1
1522257270211326,8,-3,-5,-6,-34,54,7,-2
1522257270211326,-4,2,-6,-32,-4,-4,4,2
1522257270232382,-15,0,0,-17,-41,11,-3,-3
1522257270232382,-5,14,7,65,25,27,6,4
1522257270234388,20,-1,3,6,-12,-33,-7,0
1522257270234388,19,0,5,4,24,13,2,-1
1522257270246420,50,-3,-7,-33,-9,-7,-6,2
1522257270246420,-7,-5,-6,-32,1,4,-3,-7
1522257270254441,-13,-5,-3,8,13,2,-4,3
1522257270254441,17,1,4,9,-11,-13,2,-5
1522257270269480,-18,3,-3,12,5,-9,3,15
1522257270269480,-15,6,3,-3,-13,25,-9,-31
1522257270271486,27,-1,0,6,11,-15,-2,2
1522257270271486,-36,3,-1,-7,2,4,0,2
1522257270292542,-8,-4,-1,4,2,-4,-5,-2
1522257270292542,-5,-1,0,-4,13,2,1,2
1522257270293545,-10,-3,-3,-17,-1,-6,-2,-4
1522257270293545,-4,-1,-4,3,-3,22,-2,5
1522257270305577,1,1,3,13,13,8,7,3
1522257270305577,26,0,-1,-10,-10,-1,7,13
1522257270314601,25,-3,-1,-4,-1,-7,-2,-13
1522257270314601,-33,-6,0,4,-2,-21,-9,-8
1522257270328638,-20,-9,-6,-12,7,-1,-7,-16
1522257270328638,5,0,-7,-49,7,4,-9,3
1522257270335656,17,5,9,27,9,22,15,21
1522257270335656,29,1,-1,20,-3,-13,-5,-1
1522257270352702,-4,1,4,27,2,25,8,-7
1522257270352702,-5,1,2,-1,-10,-47,-3,17
1522257270353705,-19,-8,-9,-11,-1,0,-7,-22
1522257270353705,-5,-2,-8,-22,-5,5,3,-5
1522257270365737,-13,5,1,-5,8,-4,-3,3
1522257270365737,-1,-1,-2,-4,-17,17,0,-7
1522257270374760,-19,-6,-3,-8,6,-26,-11,2
1522257270374760,5,-2,0,1,-14,7,8,-1
1522257270388798,3,-2,-2,0,6,0,-3,5
1522257270388798,-21,-3,-5,5,1,2,3,1
1522257270395816,14,1,3,1,1,3,2,15
1522257270395816,-57,-10,-6,-2,6,-4,-8,-16
1522257270411859,11,-1,2,-2,10,-1,-2,-1
1522257270411859,12,-2,-1,-1,-21,-3,-2,11
1522257270413865,3,-5,-7,-8,-2,8,-3,-25
1522257270413865,-45,5,3,0,3,11,7,7
1522257270434920,14,4,-2,-18,-14,-9,-3,-6
1522257270434920,7,-1,3,28,19,18,3,-11
1522257270435923,-35,0,1,-4,-4,-13,1,9
1522257270435923,39,-1,-4,7,25,5,3,3
1522257270448958,-11,-2,-3,-6,-30,-3,-4,-7
1522257270448958,4,1,3,4,13,9,-2,0
1522257270455976,-14,0,2,-5,0,15,3,-1
1522257270455976,3,-3,-3,29,12,23,-1,-8
1522257270472019,5,3,3,-16,12,-27,-2,11
1522257270472019,6,0,-3,-5,4,3,5,-2
1522257270474024,-7,4,1,7,-29,-10,-4,0
1522257270474024,8,0,1,-6,5,4,-2,0
1522257270495080,4,-1,-1,5,34,-48,-7,5
1522257270495080,21,3,0,0,-42,8,12,6
1522257270496083,-34,-6,-3,-9,15,16,-2,-8
1522257270496083,30,3,0,-11,-23,1,0,-2
1522257270509117,0,0,-1,11,11,-2,-3,10
1522257270509117,-14,-2,0,-5,15,-4,-6,-16
1522257270516136,13,-2,-3,3,-10,-32,-4,9
1522257270516136,22,0,-1,-2,-2,4,1,5
1522257270532179,-43,-3,-1,-2,10,18,7,-5
1522257270532179,-13,-8,-5,-6,-16,-5,-6,-21
1522257270534185,-5,0,-5,-6,3,19,4,-2
1522257270534185,13,2,1,11,-5,-32,0,27
1522257270555240,6,1,0,13,12,20,4,1
1522257270555240,-4,-5,-2,-11,-31,-7,4,-7
1522257270556243,-20,-3,1,4,5,-17,-12,-12
1522257270556243,-16,-4,-4,8,-9,-9,2,-10
1522257270569277,12,5,0,6,-12,14,-2,-1
1522257270569277,2,1,3,6,17,-9,-7,1
1522257270576296,12,-1,-1,-12,-8,-3,-4,1
1522257270576296,7,-2,-1,-11,-9,-20,-9,2
1522257270592339,12,-2,-4,4,18,34,-1,1
1522257270592339,20,1,1,8,10,-16,-3,-2
1522257270594344,-56,-3,-1,-13,-20,3,6,4
1522257270594344,-15,0,2,-3,-11,-7,-8,2
1522257270614397,7,-3,-1,3,4,-11,1,-6
1522257270614397,-5,6,1,10,-20,-1,1,7
1522257270616403,41,-3,-3,6,9,2,5,14
1522257270616403,-4,-1,-2,-14,9,3,-5,-16
1522257270629437,14,0,-4,-16,-29,1,3,10
1522257270629437,-24,-1,-1,-2,21,4,-2,-7
1522257270635453,-13,-1,-1,-7,2,-1,8,6
1522257270635453,8,-4,-2,3,-1,3,-9,-11
1522257270652498,3,1,2,1,-7,7,4,9
1522257270652498,-5,1,2,-4,5,-4,-8,-2
1522257270658518,29,-3,-9,9,-8,-9,-2,-2
1522257270658518,3,3,8,-6,12,8,2,5
1522257270674557,-30,-1,9,7,-21,-8,-4,-15
1522257270674557,-17,-4,-4,-3,-17,11,2,6
1522257270676563,6,-2,1,-6,1,3,-2,-2
1522257270676563,37,-1,-7,-3,10,-2,2,4
1522257270688594,-29,-7,-6,0,3,4,-4,-1
1522257270688594,-13,1,0,-4,4,7,11,4
1522257270704637,17,2,-2,3,18,-3,-4,-4
1522257270704637,5,3,2,-4,-19,-12,5,4
1522257270712658,-9,1,0,0,-6,-21,0,-12
1522257270712658,25,2,1,1,6,3,-2,3
1522257270713661,-2,0,-1,-2,0,-6,-5,-11
1522257270713661,-65,-12,-9,-10,7,24,0,-13
1522257270742739,-1,-4,-4,-9,-17,-6,-5,-7
1522257270742739,0,-3,-1,1,7,-5,-3,4
1522257270750760,22,3,2,6,4,3,1,0
1522257270750760,-1,2,0,4,-5,-2,5,-7
1522257270751763,8,2,-1,-4,2,2,6,5
1522257270751763,43,6,7,-17,3,-8,1,17
1522257270757779,-7,2,7,26,23,12,-8,-14
1522257270757779,-27,-6,-7,-2,-1,32,7,1
1522257270771816,1,0,-4,-2,-26,-14,-10,3
1522257270771816,-3,-4,-3,1,-14,-12,-3,2
1522257270773821,8,2,-1,-4,-8,-1,1,8
1522257270773821,31,0,3,2,13,-7,2,1
1522257270794877,8,1,3,8,14,9,5,15
1522257270794877,-11,-19,-7,-4,4,9,3,11
1522257270796882,-7,7,-4,-3,-1,-9,-14,-22
1522257270796882,2,23,23,7,6,4,4,5
1522257270808914,-43,-5,-4,-7,1,-10,-9,-20
1522257270808914,-8,2,-1,1,-27,-10,5,4
1522257270824957,8,-9,-9,-4,1,1,2,5
1522257270824957,-20,-8,-7,-5,-4,-4,-4,-15
1522257270831975,-6,1,3,-2,5,-1,-1,-3
1522257270831975,10,2,0,6,12,-8,3,5
1522257270833981,-10,-3,-4,-3,-1,7,5,-1
1522257270833981,3,-2,-1,3,-12,-9,-3,-5
1522257270855037,25,4,2,5,4,1,2,6
1522257270855037,-48,-5,-2,1,7,-4,-6,-10
1522257270856040,26,-1,3,-6,4,6,3,11
1522257270856040,-16,-8,-3,-10,20,-33,-7,9
1522257270868071,7,-2,-4,2,-7,22,3,-9
1522257270868071,5,4,-2,-3,-46,6,0,0
1522257270877096,-12,2,4,3,5,-2,2,-17
1522257270877096,18,-1,-1,1,-7,-9,-4,-3
1522257270891133,22,5,-1,3,12,3,5,16
1522257270891133,-62,-7,-5,-13,20,2,-10,-14
1522257270900157,-11,-3,0,-16,4,0,1,4
1522257270900157,10,-6,-2,29,3,9,5,1
1522257270915196,0,-2,0,-6,-16,-8,-5,-6
1522257270915196,16,5,0,6,19,0,2,0
1522257270916202,4,-3,-3,-4,-10,-10,-8,4
1522257270916202,-5,-2,-3,-9,-4,2,-2,-11
1522257270928231,23,-3,-7,-3,8,0,-4,13
1522257270928231,22,1,0,0,0,12,-1,-5
1522257270937255,-14,1,-1,1,5,2,7,11
1522257270937255,4,-2,-3,-7,-9,-2,-3,-7
1522257270952295,0,-3,-2,3,-39,-8,-2,-5
1522257270952295,-21,-1,-1,-3,15,-2,-3,-1
1522257270954301,24,-2,-2,-28,-13,-5,0,3
1522257270954301,6,1,1,34,5,6,0,-1
1522257270974354,0,-2,-1,-2,9,-4,3,-3
1522257270974354,21,8,0,5,3,-1,-8,-3
1522257270976360,-19,-10,0,-16,32,-1,-6,-8
1522257270976360,7,2,1,-24,-39,-2,0,-4
1522257270988391,15,6,5,27,11,6,1,7
1522257270988391,-15,-1,5,5,-4,-10,3,-5
1522257270997415,17,-4,-4,1,-4,6,-1,1
1522257270997415,5,0,-2,-16,5,0,-1,12
1522257271012455,-39,-10,-9,-78,-28,-14,-2,-16
1522257271012455,1,5,12,87,33,13,9,-1
1522257271013458,-5,0,-2,12,-2,-2,-4,-3
1522257271013458,33,-3,-4,26,-2,6,4,4
1522257271034514,-35,4,-2,0,-15,-3,-2,7
1522257271034514,-7,-5,-6,-35,-10,-8,-6,10
1522257271036519,-14,-3,-1,9,-9,-4,-2,-2
1522257271036519,9,0,-5,-14,-2,0,-5,-1
1522257271048551,4,1,4,0,14,-2,-2,-5
1522257271048551,20,-7,-3,-22,-7,0,0,-1
1522257271057575,6,3,4,16,4,-2,-1,4
1522257271057575,-12,0,-9,-13,6,1,4,11
1522257271072615,-1,-8,-7,11,-13,-7,-5,-15
1522257271072615,-12,5,2,2,-4,1,2,4
1522257271073618,3,0,6,-1,-6,-4,1,-8
1522257271073618,6,-6,2,-3,15,11,5,-18
1522257271094674,-30,0,-2,11,17,6,-3,2
1522257271094674,35,5,-3,-23,-10,-3,-7,-2
1522257271096679,-2,-4,-1,-27,-11,-3,-3,4
1522257271096679,5,3,9,39,14,-10,-9,14
1522257271108711,31,-1,-4,8,8,9,5,11
1522257271108711,-20,-1,-3,-7,-2,-2,-3,-3
1522257271117735,6,0,-3,-7,-23,0,3,2
1522257271117735,-16,-4,-7,-21,-14,-8,3,5
1522257271131772,4,2,-2,-5,13,2,-2,-25
1522257271131772,8,2,2,1,-3,-1,-3,2
1522257271133778,-2,2,2,20,-1,-4,2,-3
1522257271133778,-6,-2,-1,-4,4,6,8,15
1522257271154834,23,-1,1,10,4,1,-1,-4
1522257271154834,-1,-3,-2,-14,2,-6,-6,4
1522257271156839,-2,2,-4,4,5,1,-4,-5
1522257271156839,3,1,-2,-20,-4,-4,-1,-7
1522257271168871,-30,-10,-2,19,20,10,-7,-10
1522257271168871,10,3,5,-11,-15,11,3,0
1522257271177895,-39,-3,3,45,11,1,2,1
1522257271177895,-22,-1,3,5,2,0,-11,-10
1522257271191932,22,-1,-5,-14,-7,-9,2,17
1522257271191932,15,2,-6,-11,20,3,0,-7
1522257271193938,2,2,-7,-32,-33,-29,-6,9
1522257271193938,9,-7,2,30,31,26,3,-9
1522257271214993,10,3,4,27,-10,-23,1,5
1522257271214993,-21,-10,-4,14,-13,-6,2,-9
1522257271215996,15,6,0,-11,5,2,3,0
1522257271215996,-4,-2,3,-25,-11,-19,-6,1
1522257271228028,-2,-3,2,-9,3,14,-3,0
1522257271228028,-5,-3,-3,1,26,10,7,8
1522257271237052,-13,-7,-5,-7,-13,-1,-8,-25
1522257271237052,31,3,-2,1,-20,-9,2,11
1522257271252092,-61,1,3,-2,0,4,-1,-6
1522257271252092,-14,-6,-1,-15,-15,-7,1,9
1522257271258108,-21,0,-2,-2,21,11,-2,-5
1522257271258108,-20,4,4,18,-9,-2,-1,-14
1522257271275153,24,7,0,-12,-12,-4,2,7
1522257271275153,20,4,3,-20,31,-27,-8,-1
1522257271276156,4,-5,0,40,-40,14,9,9
1522257271276156,9,-2,-8,-30,23,14,-3,-2
1522257271288188,-13,5,4,34,46,0,-6,3
1522257271288188,9,0,1,-4,-67,-12,-2,-7
1522257271297212,14,1,-3,7,44,7,-4,1
1522257271297212,-4,-5,-3,-5,-72,-22,-3,-6
1522257271311249,7,-9,-6,-23,17,2,-2,-6
1522257271311249,-7,-3,-3,5,-2,9,1,-4
1522257271318268,8,3,1,-18,15,-3,0,0
1522257271318268,-13,-1,-3,-2,15,0,-2,0
1522257271335313,14,3,1,-11,-10,4,5,19
1522257271335313,-17,-6,-3,-7,1,-1,-4,-19
1522257271336316,30,-3,3,3,-4,-1,0,11
1522257271336316,-83,-1,-1,2,26,-3,-3,-3
1522257271357372,12,6,5,1,-4,1,-3,-22
1522257271357372,5,7,7,12,-15,0,2,4
1522257271359377,49,2,-2,-16,7,2,7,9
1522257271359377,-11,-6,-9,20,-4,0,7,15
1522257271371409,-10,-4,-8,-1,-24,-29,-9,-10
1522257271371409,-14,3,-2,6,-18,-3,-2,0
1522257271378428,5,-3,1,16,18,-3,-3,17
1522257271378428,4,3,4,-1,7,40,20,17
1522257271394470,-31,-3,-2,0,-11,8,-11,-34
1522257271394470,13,-3,-4,5,51,4,-1,3
1522257271396476,-3,-4,-4,-56,-85,-24,-6,1
1522257271396476,5,0,7,55,60,-6,0,-1
1522257271417532,6,-2,-4,-3,-14,7,6,12
1522257271417532,-10,-3,2,6,-14,2,-2,-8
1522257271432572,-9,2,1,-5,-16,7,-3,-4
1522257271432572,11,-4,-6,-44,-19,-10,-8,-5
1522257271433575,5,-2,0,1,-8,-3,4,4
1522257271433575,10,-5,-3,9,19,2,-1,2
1522257271438588,-32,4,-2,4,17,4,4,-3
1522257271438588,6,2,0,-8,-6,-6,-3,1
1522257271454630,27,7,5,2,3,-4,5,10
1522257271454630,-27,3,-2,-10,3,18,1,-10
1522257271456636,-35,-7,-3,6,-15,-21,-1,-9
1522257271456636,22,-2,-1,38,-7,-4,-5,-4
1522257271477692,0,0,0,4,3,25,2,2
1522257271477692,-19,-7,-5,0,6,-14,-6,-2
1522257271478694,-19,-2,-2,-34,-2,26,0,-15
1522257271478694,22,1,3,3,16,-3,-11,1
1522257271491729,19,-1,-2,8,20,3,6,20
1522257271491729,9,3,-1,27,-23,9,-2,-25
1522257271498750,-7,0,1,13,5,-5,-1,-15
1522257271498750,-1,-2,-2,-12,-15,-14,-2,5
1522257271514790,9,3,2,-15,-1,-5,-7,-3
1522257271514790,-8,-8,-4,-35,62,19,-6,-7
1522257271516796,0,-5,-1,12,6,-9,4,13
1522257271516796,52,7,4,-6,-75,-16,-2,1
1522257271536849,-20,0,2,7,-6,-3,4,-7
1522257271536849,28,-3,0,-3,-19,-8,-4,10
1522257271538855,4,-3,2,-10,45,16,0,-4
1522257271538855,-9,-2,-4,-11,24,7,-6,1
1522257271551889,15,-3,-4,9,-19,-14,-4,-1
1522257271551889,6,-1,-8,6,9,2,1,9
1522257271558908,-2,6,8,17,0,-3,1,1
1522257271558908,-15,0,2,-14,-13,-9,-3,-11
1522257271574950,-6,-5,-5,-13,-8,0,2,-1
1522257271574950,-2,1,1,6,13,-4,5,5
1522257271576956,3,6,-5,0,-10,-17,-3,-3
1522257271576956,5,4,-1,-1,2,8,4,8
1522257271597009,53,8,5,-7,10,5,1,12
1522257271597009,-98,-20,-5,-4,-14,-6,-6,-25
1522257271599014,51,-1,1,-13,0,-7,-3,28
1522257271599014,-12,-2,-5,-19,8,0,6,-20
1522257271620072,-1,-2,-4,0,-5,-11,-7,-9
1522257271620072,47,6,-1,2,-17,-17,11,28
1522257271621073,-10,-8,-6,14,12,3,-8,-34
1522257271621073,-19,-2,-1,1,-18,-3,5,9
1522257271635110,-6,3,-3,-2,6,1,2,-3
1522257271635110,4,4,8,-11,-26,-9,-2,-3
1522257271636113,-17,-6,1,-11,7,7,2,-4
1522257271636113,16,1,2,-19,9,0,-1,5
1522257271657169,-12,6,3,33,14,5,3,9
1522257271657169,4,2,-1,5,-16,2,-8,-27
1522257271659184,12,-3,-4,10,4,11,0,0
1522257271659184,-79,-10,-9,6,-7,-2,-2,-13
1522257271671206,2,-3,-2,-8,-23,-6,-5,-1
1522257271671206,21,1,0,7,-5,4,2,11
1522257271680230,10,2,0,3,3,0,1,12
1522257271680230,11,0,-3,-15,4,-3,1,-1
1522257271695270,3,6,8,-6,8,3,-3,-9
1522257271695270,44,6,2,-4,12,16,17,31
1522257271696273,-14,-1,-3,15,16,-4,-6,-24
1522257271696273,-9,-6,-1,10,-4,1,0,-4
1522257271717329,-57,-11,-4,2,-16,0,-1,-25
1522257271717329,13,9,-2,-8,-21,-13,0,4
1522257271719334,5,1,0,-8,-9,-1,2,9
1522257271719334,21,2,-1,-6,11,8,-2,5
1522257271731366,17,-23,-8,-12,15,1,5,10
1522257271731366,16,14,6,-3,3,1,-7,-1
1522257271740391,-22,9,12,9,-3,3,4,9
1522257271740391,-3,-8,-4,3,-2,-7,-6,-3
1522257271754427,3,-6,1,-8,-10,-4,1,1
1522257271754427,-26,-11,-6,0,9,4,0,-13
1522257271756433,5,-3,-9,-38,-26,-12,-9,-6
1522257271756433,28,4,-3,27,5,0,5,4
1522257271777488,-12,6,-1,-5,47,6,-9,-12
1522257271777488,11,-4,-2,46,-21,-3,0,25
1522257271778492,-23,0,-1,-1,-17,-10,-5,-27
1522257271778492,-9,-4,-4,-6,-5,1,-8,-4
1522257271790523,0,1,-1,-10,-25,-12,-3,-4
1522257271790523,1,-1,2,-23,26,0,-2,-6
1522257271799547,-12,-3,-3,-6,4,2,6,13
1522257271799547,-9,-2,2,-21,-3,-3,3,-12
1522257271814587,13,6,4,5,5,6,-2,-1
1522257271814587,6,-8,0,0,10,0,-6,-4
1522257271816593,22,-6,-9,19,-14,2,2,12
1522257271816593,30,-2,-8,11,-1,1,3,-8
1522257271837648,23,29,10,0,-5,2,0,9
1522257271837648,-85,3,29,8,-5,-1,-4,-17
1522257271838651,-19,-2,2,6,12,-10,-2,11
1522257271838651,18,-7,-8,-14,2,5,-6,0
1522257271850683,21,-9,-9,1,-10,2,2,-7
1522257271850683,14,-2,-8,-3,0,0,0,10
1522257271859707,-18,0,2,6,17,1,-1,-6
1522257271859707,1,0,-1,-14,-35,-1,-3,2
1522257271874747,0,-7,-7,-62,-3,-14,1,0
1522257271874747,5,3,2,67,14,14,-5,-29
1522257271876752,-4,-3,0,-14,9,14,2,-19
1522257271876752,40,4,3,1,10,0,-4,24
1522257271897808,-103,-13,-4,-1,-3,-3,-7,-15
1522257271897808,30,-3,-9,-31,-13,-9,3,5
1522257271898814,24,-2,-4,13,0,1,2,10
1522257271898814,-20,2,2,-2,13,1,0,-10
1522257271910843,29,-2,0,8,-9,-8,1,2
1522257271910843,-7,1,-3,-13,33,9,3,16
1522257271919867,-4,-5,-3,-1,-24,-4,-8,-9
1522257271919867,-5,8,4,-5,-5,-9,-5,13
1522257271934907,10,0,-3,14,0,-1,0,11
1522257271934907,13,-8,-1,-7,-11,-7,7,6
1522257271936912,21,-1,3,-13,14,0,-11,-8
1522257271936912,-24,-1,1,5,16,-14,-10,-17
1522257271956965,3,4,-3,21,-37,23,8,1
1522257271956965,16,11,-2,8,6,3,7,10
1522257271958971,8,0,0,9,-9,0,11,17
1522257271958971,-100,-11,-3,-6,11,4,-8,-46
1522257271971003,14,-3,-1,-6,1,-1,-1,1
1522257271971003,5,-9,-11,-47,-6,-5,-2,2
1522257271980027,4,3,7,22,-1,3,-6,-17
1522257271980027,16,0,-7,27,-17,4,10,6
1522257271995066,6,0,-4,-23,-11,-3,-2,-20
1522257271995066,-17,0,2,34,-9,23,-4,6
1522257271996069,9,1,-1,-14,-39,-20,4,-26
1522257271996069,0,-4,4,15,11,9,7,5
1522257272017125,-19,0,0,-1,25,-3,-4,27
1522257272017125,32,4,-6,-11,-3,-6,-6,-21
1522257272019144,-19,3,-2,0,15,7,1,11
1522257272019144,-14,2,4,-7,-16,-16,0,-7
1522257272031162,13,-3,2,-1,13,13,5,1
1522257272031162,-4,-1,1,-9,-28,-19,0,15
1522257272040187,-8,-5,0,-2,0,-2,-4,11
1522257272040187,22,-1,-3,-6,-1,-4,1,-1
1522257272055226,-5,3,2,5,-3,-15,0,13
1522257272055226,-17,-4,-5,0,12,17,2,-10
1522257272056230,13,2,-3,16,31,8,-1,1
1522257272056230,5,-1,-1,-1,-4,3,-3,8
1522257272077285,7,-2,-2,-7,0,1,3,3
1522257272077285,2,-4,-4,-13,36,-24,0,-9
1522257272079291,0,-2,-3,-38,-63,-5,-6,8
1522257272079291,39,5,-4,9,-10,21,-10,8
1522257272091322,-64,-2,3,27,8,-2,-3,-12
1522257272091322,-15,-3,0,-11,-2,-5,-3,-26
1522257272100347,-15,-3,-3,3,3,0,-1,-11
1522257272100347,12,0,-6,-13,30,-7,5,18
1522257272114384,13,1,-3,-18,-14,-10,-8,-9
1522257272114384,5,-1,11,36,7,22,4,11
1522257272116390,-11,-4,2,10,-36,-13,-11,-18
1522257272116390,24,-2,5,-20,4,-35,5,-10
1522257272137445,-7,4,10,19,-13,17,4,3
1522257272137445,-28,-5,-2,8,15,-7,0,-6
1522257272139451,11,1,-2,-4,27,-12,8,25
1522257272139451,19,7,-4,17,-22,4,1,3
1522257272150480,17,-5,-5,-2,12,-5,-6,-10
1522257272150480,-2,-2,-1,-12,-8,-7,-10,-4
1522257272159504,-6,-2,3,25,1,9,3,5
1522257272159504,-3,0,-3,-22,2,4,-1,9
1522257272174544,12,4,-4,1,-2,3,4,2
1522257272174544,27,5,0,0,-6,0,-2,-1
1522257272176549,-19,0,-6,-34,5,-2,-5,-7
1522257272176549,3,-5,2,17,0,5,5,-3
1522257272197605,-26,-4,-4,-8,10,-3,-4,-10
1522257272197605,14,-4,-5,-18,-5,-2,-4,-4
1522257272198608,21,6,3,34,-28,-11,0,15
1522257272198608,-5,2,11,-16,-1,12,-10,-1
1522257272210640,19,-1,-1,2,-12,19,1,2
1522257272210640,-24,-7,-3,-42,24,5,4,3
1522257272219664,-5,-4,-1,18,21,1,4,-10
1522257272219664,11,1,1,5,-39,1,3,5
1522257272233701,11,-2,3,-4,-50,-10,0,4
1522257272233701,6,1,-5,2,-11,-6,-4,13
1522257272240719,37,0,-6,-6,50,17,-4,6
1522257272240719,-81,-4,-3,-6,-8,2,3,2
1522257272257765,14,-3,3,6,74,9,-7,-17
1522257272257765,-23,-7,-2,-9,-81,-19,-4,-11
1522257272258769,3,3,1,-13,2,-6,2,8
1522257272258769,14,0,-4,-9,11,-1,-2,-2
1522257272270799,-9,8,-2,-25,7,-12,2,13
1522257272270799,-14,6,5,23,26,6,1,-3
1522257272279824,-2,-7,-3,1,3,6,3,1
1522257272279824,10,4,-3,7,7,-2,-5,-7
1522257272293861,1,-5,-4,-4,4,-10,-6,-12
1522257272293861,21,2,-3,-36,-4,5,3,3
1522257272300879,-47,-2,6,40,-8,1,-2,-1
1522257272300879,2,-5,2,35,7,5,-1,-1
1522257272316922,14,-6,2,26,-4,-4,-4,8
1522257272316922,24,8,0,23,9,-5,-3,-1
1522257272318927,0,2,0,-64,-4,2,0,-10
1522257272318927,-11,-7,-7,10,0,-4,-1,-6
1522257272339984,5,2,1,8,34,-14,5,-12
1522257272339984,-14,-6,-3,-17,-49,11,3,22
1522257272340986,4,4,-3,0,2,2,3,5
1522257272340986,13,3,-2,-2,16,-4,-8,-21
1522257272354020,3,1,-2,-6,-64,-13,-3,1
1522257272354020,-7,2,2,-11,11,-2,2,0
1522257272361039,3,2,2,2,-24,-5,3,8
1522257272361039,16,-8,0,9,16,-22,8,-3
1522257272377082,-41,3,1,-11,-1,14,0,16
1522257272377082,5,-1,3,8,2,-13,2,-17
1522257272379088,28,0,1,3,19,-2,-5,1
1522257272379088,29,-1,-7,-44,-42,21,-2,13
1522257272400143,-85,-3,0,24,16,-30,-6,-14
1522257272400143,-2,-5,0,20,13,-4,-8,2
1522257272401146,29,4,-1,15,-16,-2,4,9
1522257272401146,-25,-5,-3,-8,-3,-10,-6,-21
1522257272414180,46,6,-1,-18,-6,12,14,25
1522257272414180,-9,-6,-4,3,13,6,2,-15
1522257272421199,7,3,-2,8,20,-11,-8,-6
1522257272421199,7,1,0,-6,0,6,8,24
1522257272437242,-4,-9,-5,0,-12,0,-3,-21
1522257272437242,4,0,0,-6,19,-1,2,6
1522257272439247,-34,-3,1,-16,-18,-3,-1,-7
1522257272439247,-4,6,7,3,20,3,-3,-8
1522257272460304,26,4,0,4,-15,1,-2,0
1522257272460304,-13,-1,-5,10,-29,-11,-1,11
1522257272461306,3,-4,-1,-11,-1,6,-1,-7
1522257272461306,2,0,1,-8,71,15,1,3
1522257272474340,8,-12,1,6,-68,-19,-6,-3
1522257272474340,-8,-2,-2,-29,-21,10,-8,-14
1522257272481359,-10,3,-2,-6,-36,-3,1,-15
1522257272481359,0,11,1,25,27,-24,3,23
1522257272497401,66,7,-7,-29,43,34,10,-4
1522257272497401,-62,-10,-6,31,-18,7,2,5
1522257272499408,14,-5,-4,17,6,4,-4,-15
1522257272499408,-20,-10,-5,10,-10,5,-4,1
1522257272519460,18,-2,0,10,42,-8,-7,-3
1522257272519460,41,11,3,-25,-26,-8,5,15
1522257272521466,7,5,5,-22,19,11,12,26
1522257272521466,-37,-11,1,7,-20,-8,-7,-28
1522257272534500,3,-9,0,-9,10,7,-1,7
1522257272534500,7,8,-13,-3,13,2,-5,-17
1522257272540516,8,14,30,13,-15,-7,-2,10
1522257272540516,21,7,7,-1,-21,4,9,29
1522257272557561,-44,-14,-5,-11,15,-3,-13,-35
1522257272557561,7,1,-1,9,55,7,5,4
1522257272558564,-20,-11,-15,43,15,-5,-6,-11
1522257272558564,5,6,-1,-25,-31,-4,0,14
1522257272579621,16,3,-3,-38,-64,-30,7,25
1522257272579621,9,-7,-4,16,24,19,2,16
1522257272581626,-34,-8,2,33,24,-14,-7,-6
1522257272581626,-9,-9,1,-6,54,13,3,-15
1522257272593657,35,10,3,11,-33,-14,-1,12
1522257272593657,16,9,7,-19,-16,-17,-1,25
1522257272602682,-31,-5,-8,-28,-28,5,-4,-33
1522257272602682,23,1,-4,1,-15,0,-11,-9
1522257272617721,-24,3,2,11,39,3,3,-13
1522257272617721,-49,-3,1,5,-12,-5,-3,-3
1522257272618725,41,1,-11,1,13,6,3,25
1522257272618725,16,7,6,-1,0,-3,11,17
1522257272639780,-10,-10,0,0,-7,5,-7,-47
1522257272639780,18,-3,6,-3,11,0,-6,-15
1522257272641785,-9,-4,-5,9,12,5,-2,2
1522257272641785,29,1,-7,-14,-19,-7,-2,17
1522257272653817,-39,4,6,6,-17,4,-1,10
1522257272653817,30,-9,-3,-24,-5,1,-10,-27
1522257272662842,42,3,3,7,16,11,5,21
1522257272662842,-72,-11,-2,19,1,-2,5,-19
1522257272676878,-19,-6,-3,21,4,4,-14,-40
1522257272676878,-17,-1,-2,28,-15,-23,-9,-18
1522257272678884,26,-3,-17,-101,-65,-4,6,1
1522257272678884,24,6,6,50,13,69,7,0
1522257272699941,-83,1,0,13,22,21,1,37
1522257272699941,-31,-15,-4,-5,-10,-8,-6,-69
1522257272701946,-8,-4,-1,-1,20,-9,-4,-4
1522257272701946,11,3,1,-20,-8,-11,-2,-6
1522257272712975,10,-3,-1,-18,-15,-5,4,17
1522257272712975,4,6,5,11,-11,-1,5,27
1522257272728014,12,6,2,2,-8,-6,7,26
1522257272728014,-20,-11,-11,-20,39,-13,-9,-38
1522257272737038,-2,-3,-9,0,-49,-21,-14,-53
1522257272737038,15,3,1,-4,1,-2,3,13
1522257272739047,2,-1,3,9,23,1,3,14
1522257272739047,35,2,-1,-18,-40,-24,-2,4
1522257272760100,27,2,-3,-21,13,23,7,36
1522257272760100,-15,-1,-5,44,26,16,7,9
1522257272761103,-68,-4,4,-14,25,1,-6,-13
1522257272761103,22,-3,3,39,-22,-5,-13,-2
1522257272773135,-28,-1,1,13,15,1,2,8
1522257272773135,52,4,3,-31,-8,-15,-6,28
1522257272782158,-21,-6,-8,-31,39,-7,7,-15
1522257272782158,21,2,5,30,-31,68,26,6
1522257272797198,11,-3,-4,13,5,-30,-11,-22
1522257272797198,-4,7,5,28,27,9,10,29
1522257272799204,-7,-3,0,11,-27,11,-11,-33
1522257272799204,-7,3,-3,-48,0,-29,0,40
1522257272820260,15,11,4,-9,5,-2,4,6
1522257272820260,28,-7,-3,-4,6,15,-2,-27
1522257272821263,-51,-6,-8,-15,-9,-14,-19,-14
1522257272821263,-51,-5,-5,5,14,-12,-8,-8
1522257272833295,44,10,9,18,16,11,12,54
1522257272833295,4,-6,-5,-16,-12,-22,-5,-28
1522257272850340,13,-6,1,18,-8,8,9,-1
1522257272850340,1,0,-2,-9,-3,-18,-13,-12
1522257272857358,-15,-2,-3,-18,17,9,4,-7
1522257272857358,-25,1,3,2,-18,-3,6,-1
1522257272859365,51,-2,-3,-24,-28,-5,-2,5
1522257272859365,-32,-1,-1,35,11,-7,0,-12
1522257272879417,40,-4,-1,-16,-8,2,4,17
1522257272879417,-24,2,5,25,20,10,0,-17
1522257272881422,-7,10,12,16,27,11,12,39
1522257272881422,31,-8,-9,-52,-32,-24,-17,-17
1522257272893454,32,4,3,21,22,9,6,-2
1522257272893454,-85,-9,-5,-3,-35,-23,-8,-9
1522257272902479,21,-2,-7,-10,1,-4,9,4
1522257272902479,1,6,6,12,-26,14,12,20
1522257272917518,-19,-7,0,26,29,0,-5,-18
1522257272917518,22,4,1,-14,-50,-3,-4,4
1522257272918521,-5,-8,-11,10,6,-13,-6,-14
1522257272918521,-20,-2,-2,-26,0,-9,-8,-17
1522257272939577,13,1,5,-5,8,16,1,-2
1522257272939577,-19,0,-1,-10,26,7,1,13
1522257272941582,10,-5,0,3,-12,-1,-7,-5
1522257272941582,-67,-7,-7,0,-1,-3,-5,-23
1522257272953614,-3,3,2,6,-14,-5,1,14
1522257272953614,33,9,-1,-6,27,10,4,20
1522257272962638,8,2,1,11,-10,-1,-3,-17
1522257272962638,43,0,1,-1,21,-6,2,9
1522257272977678,-63,0,-3,-40,-32,-8,0,3
1522257272977678,57,-7,-3,4,-13,-1,-9,-4
1522257272978681,-2,-4,0,17,-11,-16,-6,-5
1522257272978681,0,0,-4,-22,31,43,9,16
1522257272999736,16,5,-2,28,-6,-20,-8,-12
1522257272999736,4,1,-4,1,51,-11,-4,-5
1522257273001742,16,12,5,-10,-19,21,3,18
1522257273001742,4,-3,0,-6,-9,-14,-3,-11
1522257273013774,-3,-8,-2,-13,-22,8,0,-5
1522257273013774,-6,-3,-2,-17,-1,-1,1,-11
1522257273022798,51,4,-4,7,18,-6,-1,19
1522257273022798,-54,1,3,-5,-1,-15,-2,-3
1522257273037838,8,-1,5,12,67,23,7,19
1522257273037838,-14,-8,0,0,11,-2,-14,-46
1522257273038842,-35,-8,-9,1,-95,-18,-10,-7
1522257273038842,20,1,2,19,4,3,3,22
1522257273059897,-7,-6,-7,-11,-27,-14,-4,-20
1522257273059897,6,0,2,-16,16,7,9,26
1522257273061902,-12,-2,0,32,48,13,1,-13
1522257273061902,34,4,-5,-19,-13,-6,-6,-8
1522257273073934,-60,-1,-3,-9,-23,-25,-2,-12
1522257273073934,-29,0,-3,-3,12,29,-1,20
1522257273090479,-7,-1,2,6,-46,-56,-1,-3
1522257273090479,1,-1,1,39,43,28,-2,-45
1522257273097498,57,3,5,-6,21,15,3,27
1522257273097498,82,6,5,-15,-8,-9,0,-16
1522257273099006,-115,-19,-2,-20,4,9,-6,-22
1522257273099006,62,-2,-4,-6,-11,-13,-3,3
1522257273120061,34,9,0,4,-1,1,3,15
1522257273120061,3,-6,-5,1,2,-6,-4,-27
1522257273121065,18,6,-2,-2,18,14,8,29
1522257273121065,-14,1,-1,-3,10,-14,-7,-5
1522257273133096,-23,-9,-4,-4,-15,10,-3,-23
1522257273133096,1,3,-1,12,-13,-14,4,21
1522257273142120,9,-4,2,13,37,18,2,-4
1522257273142120,-18,-4,-7,0,-39,-15,0,15
1522257273157663,-5,-13,-9,-2,7,-3,-16,-27
1522257273157663,-12,3,3,24,-28,-5,1,22
1522257273159167,-17,3,-2,-8,9,4,-3,-24
1522257273159167,-4,2,1,-7,7,-4,5,16
1522257273180224,6,1,-2,-17,13,13,4,-15
1522257273180224,29,1,-6,-16,-21,-22,-3,9
1522257273181227,-39,0,2,14,23,36,8,-6
1522257273181227,-20,2,2,-9,-40,-15,10,11
1522257273193258,29,-1,0,12,11,-20,-4,8
1522257273193258,-4,0,2,-31,-12,9,-2,-14
1522257273202282,5,-15,-8,-22,22,-8,-10,-11
1522257273202282,19,0,1,0,-3,8,-4,8
1522257273216320,-1,-1,-3,-17,-1,-9,2,20
1522257273216320,53,16,-7,9,-9,11,6,27
1522257273223338,37,0,9,9,-4,-8,-8,-13
1522257273223338,-52,-9,5,13,29,1,-3,-21
1522257273239381,11,-1,-2,6,0,2,-4,7
1522257273239381,-14,-4,-1,8,-45,-19,-1,2
1522257273241386,49,7,-7,-4,-6,14,4,22
1522257273241386,-44,-5,-3,-10,-1,0,-5,-14
1522257273262442,-11,-1,2,4,-3,-3,-2,-1
1522257273262442,-25,-7,-4,0,10,8,-3,-3
1522257273264448,30,9,2,-8,-2,-6,0,15
1522257273264448,26,-2,-4,-10,-9,-5,-7,-16
1522257273276480,-5,-1,-4,0,64,12,-3,-12
1522257273276480,-44,-3,0,-2,-50,-18,2,11
1522257273283498,24,7,3,2,-22,3,-1,3
1522257273283498,44,8,6,14,3,-1,5,19
1522257273299541,-51,-7,-5,-18,-14,17,1,-16
1522257273299541,45,-2,5,34,35,34,3,0
1522257273301546,-24,0,0,-12,10,-16,-1,5
1522257273301546,-31,-7,-9,4,-6,-5,-5,-13
1522257273322602,12,-1,2,7,-6,-3,3,10
1522257273322602,-3,-1,1,-15,14,1,-2,2
1522257273323605,44,5,2,6,-27,-5,5,14
1522257273323605,-4,6,5,1,16,-4,-6,-12
1522257273336639,35,3,0,-7,-36,-9,0,7
1522257273336639,-72,-1,-2,-7,31,-2,1,7
1522257273343658,-3,-4,-3,5,-18,-7,1,-7
1522257273343658,11,-4,-4,-11,-9,-13,-3,-1
1522257273360703,14,2,0,21,-3,-4,-3,5
1522257273360703,9,-3,0,9,-5,-2,4,1
1522257273361706,-21,-8,-3,-2,41,10,-7,-15
1522257273361706,16,5,3,-8,-21,-1,5,27
1522257273382762,-3,1,-1,-7,-25,-5,0,-12
1522257273382762,-30,-8,-8,-15,13,3,-3,-17
1522257273383765,-5,-9,-8,-12,5,-10,-4,0
1522257273383765,16,-2,-2,23,-7,3,-6,-4
1522257273396799,7,0,2,8,14,5,6,2
1522257273396799,7,-2,-2,-46,-24,-20,8,15
1522257273403818,-24,-1,0,30,-8,-3,-6,-34
1522257273403818,15,6,0,9,51,10,1,5
1522257273419861,-40,-2,-3,10,-48,-7,-7,-10
1522257273419861,15,-1,-2,-14,-7,2,0,-5
1522257273421866,17,7,4,2,25,10,9,28
1522257273421866,-52,-10,-6,-16,-41,-9,-13,-24
1522257273441919,-29,0,2,-8,0,-3,1,-2
1522257273441919,50,-4,1,8,18,-11,-4,1
1522257273443925,51,14,3,-29,-23,12,10,6
1522257273443925,-89,-13,-3,33,18,2,2,-12
1522257273456959,61,-6,-4,0,4,-1,-5,-6
1522257273456959,7,0,2,1,-18,-9,-8,-7
1522257273462975,17,-4,-1,22,28,6,1,-10
1522257273462975,23,7,-3,-57,-27,-5,11,24
1522257273480021,-5,6,7,47,19,3,4,9
1522257273480021,-21,-7,-2,0,15,4,-15,-33
1522257273481023,-13,-2,-1,10,10,-2,-1,4
1522257273481023,17,4,-2,-12,5,3,1,-2
1522257273502079,-12,0,-4,-61,-19,-15,-2,12
1522257273502079,12,5,2,14,-49,13,5,11
1522257273504085,-25,-4,1,36,20,-18,-4,4
1522257273504085,26,5,3,38,15,-5,-3,0
1522257273516117,6,-4,1,10,17,15,3,-7
1522257273516117,-53,-8,-5,-3,17,-4,-6,-12
1522257273525140,5,-1,-6,-37,-30,-3,-4,-28
1522257273525140,-77,-7,-2,-13,4,-8,-3,33
1522257273540181,15,-2,-3,-1,7,1,-5,8
1522257273540181,27,1,1,-14,-19,-1,2,7
1522257273541183,-14,-3,3,15,5,-5,-1,4
1522257273541183,26,-1,1,-6,-7,-1,4,-20
1522257273562239,-12,1,-3,-3,3,-3,5,12
1522257273562239,8,8,6,19,9,3,5,5
1522257273564245,-30,0,1,-7,-9,6,1,12
1522257273564245,14,3,4,-4,4,5,-3,-22
1522257273576276,-2,-3,-2,-14,-29,-9,-3,8
1522257273576276,16,2,-8,20,3,-2,-9,-6
1522257273585301,-7,-1,-8,-41,-4,-8,-3,-2
1522257273585301,35,0,-4,-26,15,9,2,11
1522257273600340,-63,-9,-3,48,-16,4,-3,-20
1522257273600340,3,-1,3,23,-19,-17,3,-5
1522257273601343,8,-2,-2,5,18,8,0,11
1522257273601343,12,-2,2,-11,-5,-3,0,6
1522257273622399,29,0,-3,-35,17,-15,-4,-8
1522257273622399,-23,-5,-4,-33,-4,67,2,4
1522257273624404,6,-1,6,26,-22,-29,-7,-23
1522257273624404,3,1,3,5,-16,2,3,17
1522257273636436,21,5,1,6,3,-1,9,7
1522257273636436,3,-1,-2,0,37,2,3,6
1522257273644457,22,-1,-2,-21,-22,0,3,8
1522257273644457,18,0,2,8,2,9,-1,-5
1522257273659501,-12,-3,1,2,-3,-5,-3,3
1522257273659501,13,2,-2,4,4,-18,-2,3
1522257273661503,4,1,-3,-3,6,12,-12,-6
1522257273661503,10,2,0,10,-5,-9,8,1
1522257273682559,-39,0,-4,-8,16,6,-3,-3
1522257273682559,-48,-10,-5,19,8,-8,-3,-13
1522257273683561,-2,-8,-8,-14,4,4,1,1
1522257273683561,10,4,9,-15,-64,-26,-6,-10
1522257273695593,14,4,6,36,-12,8,4,1
1522257273695593,-1,1,3,16,2,-16,-6,0
1522257273704617,20,1,-1,-4,7,5,5,16
1522257273704617,-72,-11,-9,9,18,17,-10,-27
1522257273719657,15,-1,2,-11,-20,7,9,5
1522257273719657,9,1,2,-3,22,-15,-3,-3
1522257273721663,-15,-1,-1,5,-20,13,1,-4
1522257273721663,37,3,-3,-9,-21,-18,0,27
1522257273742718,3,3,-2,-16,1,-3,-5,-4
1522257273742718,-13,-3,-2,-4,4,9,-1,-12
1522257273743721,-2,3,2,-7,3,-4,2,9
1522257273743721,5,1,0,3,35,7,-1,-17
1522257273755753,18,-4,-2,-3,-34,-8,0,13
1522257273755753,-30,-3,6,-8,11,4,5,7
1522257273764777,27,-1,-1,-4,-1,-8,-9,-10
1522257273764777,15,3,1,10,-10,-17,-2,0
1522257273779818,-69,-10,-7,-12,10,14,-4,-14
1522257273779818,23,2,-2,2,-6,-3,1,6
1522257273781823,-40,-7,-3,9,20,1,-4,-23
1522257273781823,27,4,-2,-10,13,5,1,8
1522257273802880,36,8,2,7,12,-7,-1,15
1522257273802880,17,6,1,-26,-8,-16,6,-1
1522257273803882,-1,1,3,5,-26,-18,-6,19
1522257273803882,-15,-5,-5,-9,24,27,8,-7
1522257273815914,19,-7,2,0,-11,-13,-6,-6
1522257273815914,3,0,0,7,17,8,1,6
1522257273824938,31,3,-4,-4,15,-3,2,11
1522257273824938,-8,0,4,-4,-17,-5,-6,-9
1522257273839977,-12,-3,1,6,-8,3,1,-9
1522257273839977,11,-3,-2,1,3,2,-1,-1
1522257273841983,-22,3,1,-1,15,3,1,-8
1522257273841983,-13,-4,-3,10,-6,1,-2,0
1522257273862036,4,-2,-5,-2,15,-2,2,-4
1522257273862036,7,2,0,-9,-28,-6,-4,-2
1522257273864041,-25,-3,-2,-15,-7,1,5,-1
1522257273864041,1,5,0,-14,5,-13,3,2
1522257273876073,1,1,-1,7,37,14,-4,-9
1522257273876073,-5,1,2,7,-16,2,-1,2
1522257273885097,-3,-1,1,6,-46,-30,1,7
1522257273885097,45,0,4,9,-3,19,-4,4
1522257273900137,16,0,-4,-36,0,-28,-4,3
1522257273900137,-39,-4,-3,26,20,45,4,-1
1522257273901140,9,-6,-4,34,1,2,-4,-11
1522257273901140,-13,-2,4,0,-6,-11,1,-11
1522257273922196,14,1,0,1,3,0,2,-3
1522257273922196,21,4,1,-20,24,-6,6,14
1522257273924201,8,0,-1,-2,-11,5,2,5
1522257273924201,0,-5,-4,16,62,20,9,11
1522257273936233,-3,-5,-7,-8,-78,-23,-14,-10
1522257273936233,-8,-4,-4,-12,-15,-11,2,-6
1522257273945257,-8,1,1,-11,34,15,-1,-9
1522257273945257,-10,-5,1,3,-9,-11,-6,-5
1522257273960297,-13,0,0,-14,19,6,-1,-2
1522257273960297,7,3,-3,12,-31,-19,1,6
1522257273961300,-13,-2,-8,22,-10,-11,-7,0
1522257273961300,9,4,-6,-26,-14,-1,-3,0
1522257273982356,7,-1,4,50,33,27,6,5
1522257273982356,-11,-8,-1,-51,-24,-6,-5,-8
1522257273984361,29,0,0,-15,3,4,3,4
1522257273984361,-31,5,8,-17,5,-2,3,7
1522257273996393,-47,-2,-1,29,-6,-4,-6,-12
1522257273996393,13,-6,-4,-19,5,-8,-9,-18
1522257274005417,-11,1,2,38,12,10,1,5
1522257274005417,22,-7,-6,27,1,-6,-4,-3
1522257274019455,11,4,0,-8,-32,-4,0,4
1522257274019455,-16,6,1,14,18,4,1,3
1522257274021460,3,-7,-2,-27,12,3,-1,-5
1522257274021460,9,-3,-2,-7,-29,1,-1,-2
1522257274042515,23,-5,0,13,26,9,9,22
1522257274042515,-15,1,1,10,9,-6,-2,-22
1522257274044521,-12,5,4,-24,-39,-10,-3,-2
1522257274044521,8,4,2,19,18,-2,6,35
1522257274055550,-14,-7,-9,-33,-33,-15,-11,-35
1522257274055550,21,-1,-3,-1,-3,7,0,20
1522257274064574,-5,8,1,-8,11,3,-3,-19
1522257274064574,14,-12,4,16,8,0,-4,-14
1522257274079614,1,-1,-2,-9,15,-2,3,12
1522257274079614,-16,-4,-4,14,-1,-2,4,-1
1522257274081619,13,-7,-11,-33,-19,10,-2,-4
1522257274081619,23,10,10,51,2,-2,4,7
1522257274102675,23,1,0,-22,-1,0,0,0
1522257274102675,12,2,5,14,15,-12,0,0
1522257274103678,-52,-9,-6,-45,-10,4,-2,-10
1522257274103678,-16,4,-5,36,5,3,-1,-5
1522257274115710,9,-2,1,1,29,13,-2,4
1522257274115710,20,-3,-2,17,-37,-13,-4,9
1522257274124734,2,-1,1,-2,8,-6,1,12
1522257274124734,7,-2,0,-17,-14,-2,-3,-16
1522257274138772,-11,-1,0,14,26,3,7,11
1522257274138772,32,-1,-5,-14,-3,9,-2,4
1522257274145790,10,3,1,8,-14,-10,-1,-5
1522257274145790,-8,-4,-4,-19,1,-3,-2,-8
1522257274162835,-30,-2,-1,-15,-11,-2,-3,-5
1522257274162835,14,-6,-4,-24,12,3,0,1
1522257274163838,-11,4,5,36,3,-1,-1,-2
1522257274163838,-6,-4,-11,-35,-19,-2,-1,-6
1522257274175870,-6,4,5,9,28,-13,-8,-1
1522257274175870,-6,-2,2,15,-39,-2,-6,-11
1522257274184894,19,5,3,10,12,1,3,16
1522257274184894,-7,1,-1,-23,3,0,2,8
1522257274198931,-14,-3,-4,4,1,-1,3,-5
1522257274198931,-33,3,-3,9,14,0,1,-2
1522257274205950,51,1,-2,4,10,7,-3,2
1522257274205950,-67,-3,0,-35,-19,-9,-1,-2
1522257274221992,10,-6,1,31,-5,0,1,-2
1522257274221992,10,1,3,46,19,3,0,4
1522257274223998,4,-6,-5,1,-4,-2,1,-1
1522257274223998,37,8,2,4,8,3,4,19
1522257274245053,-36,-4,0,-24,-18,-3,-10,-35
1522257274245053,7,-3,-2,-28,-4,-3,0,3
1522257274246056,-17,-2,6,6,5,-5,-1,-1
1522257274246056,12,-3,-6,-24,-10,-1,-1,-2
1522257274259092,-1,3,2,10,-4,7,-4,1
1522257274259092,6,1,0,14,29,3,2,1
1522257274266110,-56,-9,-5,7,-14,-2,-2,-5
1522257274266110,19,0,-3,8,-22,-8,-5,-6
1522257274282152,22,-1,-2,-17,-15,0,1,3
1522257274282152,-17,-1,-1,1,-14,1,-1,10
1522257274284158,7,1,-1,2,51,9,5,0
1522257274284158,-5,-3,-3,-3,-24,-14,-2,-5
1522257274305214,-11,-5,5,-48,5,8,-4,-9
1522257274305214,12,4,-11,18,86,12,5,11
1522257274306216,-4,2,-11,38,-64,-10,-1,3
1522257274306216,1,2,15,32,-2,5,2,-11
1522257274319251,6,4,-1,4,-4,-5,6,8
1522257274319251,-33,-7,3,-31,-5,-8,-2,-13
1522257274326269,-14,-2,9,-21,22,1,-1,-11
1522257274326269,-6,-3,-14,2,14,1,-6,2
1522257274342312,20,7,3,24,-18,-1,2,11
1522257274342312,38,-1,0,-19,1,7,-2,-4
1522257274344318,-25,-6,-10,-6,-9,-7,-5,-3
1522257274344318,-16,-1,6,-18,-11,3,8,23
1522257274365373,-10,-8,-1,-14,8,-2,-8,-24
1522257274365373,-2,0,-16,-20,-10,-8,0,0
1522257274366376,19,4,16,31,8,3,-1,-5
1522257274366376,11,6,6,10,-11,0,0,8
1522257274379411,23,1,-3,9,7,-4,3,12
1522257274379411,-60,-7,-1,-3,-9,8,2,-18
1522257274386429,14,-4,-6,-17,-21,-16,-2,7
1522257274386429,-14,-9,-9,-41,43,22,-2,-15
1522257274402472,8,-1,0,42,-8,-5,2,16
1522257274402472,6,1,3,-3,-42,-12,-11,-6
1522257274404478,8,7,5,7,9,6,8,4
1522257274404478,-4,-1,0,-4,11,-8,0,-2
1522257274424530,-10,0,-6,-21,-5,5,6,0
1522257274424530,11,1,3,23,-12,-6,-3,3
1522257274426536,0,3,-1,30,10,6,-3,-4
1522257274426536,31,3,-3,1,19,-1,2,10
1522257274438568,9,1,1,-10,-34,-6,-3,3
1522257274438568,-65,-8,2,-14,-1,-5,1,-11
1522257274447592,17,-6,-3,-20,-38,-10,-5,-5
1522257274447592,-1,-2,0,12,14,2,-4,-7
1522257274462632,23,3,0,4,7,1,-1,18
1522257274462632,32,3,1,-11,-3,3,1,9
1522257274463635,-16,1,1,-42,3,3,-4,-13
1522257274463635,-11,-1,-4,38,-4,-4,0,-3
1522257274484690,0,-1,5,-5,-7,-1,-1,-1
1522257274484690,-5,-2,-3,6,-4,-3,-2,2
1522257274486696,11,-4,3,2,14,4,-3,6
1522257274486696,-14,-4,-5,-12,1,-2,-5,-15
1522257274498729,-5,1,-2,-2,-10,-3,3,0
1522257274498729,12,-4,-5,0,-4,-1,0,2
1522257274507752,-2,-3,-5,-18,0,-7,-3,-11
1522257274507752,0,-1,2,25,4,0,-4,1
1522257274522792,-16,-2,-9,1,-4,-5,-3,-7
1522257274522792,39,5,7,-24,-4,-8,4,17
1522257274523794,-42,-1,-4,39,37,-3,3,-8
1522257274523794,-8,-6,3,6,-85,-23,-7,-9
1522257274544850,-1,-2,-1,11,12,11,0,-5
1522257274544850,-2,0,-1,3,-7,5,1,3
1522257274546856,10,0,0,9,18,-1,2,6
1522257274546856,5,0,1,-18,25,3,0,2
1522257274558887,4,-5,1,13,10,-3,-2,2
1522257274558887,-4,0,-2,0,22,-3,0,2
1522257274567912,4,2,8,-14,-16,1,3,2
1522257274567912,2,0,-14,-14,-16,0,-2,-15
1522257274589970,1,0,-18,-9,-4,8,1,-3
1522257274589970,5,1,9,12,6,9,-2,-3
1522257274591976,-12,0,5,-7,-13,1,-1,8
1522257274591976,-15,-1,7,-3,1,6,-1,1
1522257274605010,-3,-1,-3,-26,-4,-8,-1,-1
1522257274605010,-10,-3,-10,10,1,-3,-2,-4
1522257274606013,6,0,-5,10,-16,-3,0,6
1522257274606013,13,3,0,6,5,-4,-2,1
1522257274618045,18,-1,0,10,38,13,-1,-3
1522257274618045,-25,-1,2,4,-6,1,-1,-3
1522257274627069,-3,-7,-8,-51,-33,-27,-11,-16
1522257274627069,-58,-6,-1,7,-13,59,15,-4
1522257274642108,-3,2,5,10,2,-1,-1,5
1522257274642108,7,1,1,-10,-2,0,4,0
1522257274644114,15,4,-3,8,23,17,2,2
1522257274644114,15,0,-4,-5,1,-13,-2,17
1522257274665170,-3,-4,-1,-7,2,-3,-7,-16
1522257274665170,-8,-7,-2,-8,1,2,-8,4
1522257274666173,2,0,-3,3,13,-1,4,13
1522257274666173,11,-3,-4,-18,-7,-14,-5,-18
1522257274678205,-32,0,3,11,4,7,6,6
1522257274678205,11,1,1,0,-11,-17,-3,-9
1522257274687229,5,2,-2,-10,-27,-6,-6,-6
1522257274687229,-23,-2,-2,-11,15,-4,-4,3
1522257274702269,-7,3,1,13,-29,-14,-4,-1
1522257274702269,-2,-2,-1,19,11,3,4,0
1522257274704276,7,1,1,11,-2,4,5,6
1522257274704276,11,0,0,-10,5,-8,1,-1
1522257274724327,1,-1,-1,0,13,-3,-2,-1
1522257274724327,-6,-1,-3,-4,-10,2,-4,-3
1522257274726333,0,1,-3,1,6,5,1,1
1522257274726333,7,1,1,-20,8,-20,0,0
1522257274738365,-8,-5,-2,4,-8,4,-3,-8
1522257274738365,-1,-5,-4,-40,-12,3,-6,-12
1522257274747388,-1,2,3,39,-3,-10,-3,0
1522257274747388,6,6,-2,-3,12,15,3,6
1522257274762429,5,0,2,-3,-2,-3,1,5
1522257274762429,-2,-2,-2,1,-1,-4,-2,3
1522257274764434,-4,-2,-2,-20,-2,11,7,-2
1522257274764434,11,-1,5,23,1,-3,-1,2
1522257274784487,15,3,0,0,8,-1,4,15
1522257274784487,26,4,0,9,9,5,0,-11
1522257274790504,-75,-7,-4,-16,-9,-12,-4,-20
1522257274790504,-1,-7,-4,5,-3,0,-6,4
1522257274798525,-14,-1,-2,-13,-18,-19,-4,-13
1522257274798525,0,1,0,-8,4,20,-1,7
1522257274807549,33,4,4,14,-6,0,-1,8
1522257274807549,-1,1,0,-5,-16,-6,1,-3
1522257274822588,-1,-3,-2,-10,4,-12,2,5
1522257274822588,-6,-3,-1,8,9,7,3,2
1522257274823591,9,7,2,7,17,8,3,-4
1522257274823591,-2,-7,-7,8,-3,-3,-2,-4
1522257274844647,11,2,-3,-5,39,11,0,-4
1522257274844647,-24,-5,-3,11,-14,-9,-5,-11
1522257274846652,3,2,-2,-20,-37,-11,-1,8
1522257274846652,33,0,-5,-5,1,-4,-2,10
1522257274858685,18,2,-1,-12,-2,2,-6,-5
1522257274858685,-8,-2,-1,-8,15,-6,-1,-4
1522257274867709,6,1,6,14,12,1,-1,5
1522257274867709,4,2,2,12,-4,-2,2,-3
1522257274882748,11,-2,0,4,6,0,2,1
1522257274882748,-5,-1,-2,15,-12,-4,3,5
1522257274883751,5,0,-4,-5,-4,1,0,3
1522257274883751,9,1,0,3,1,-2,3,6
1522257274904807,-23,-12,-6,-7,-5,1,7,0
1522257274904807,10,5,-1,-1,22,2,-1,11
1522257274906812,-34,4,8,-19,-7,6,-6,-17
1522257274906812,-5,-1,5,-5,-12,-6,-2,0
1522257274918844,-16,2,5,-12,-20,-7,-2,2
1522257274918844,20,-2,-3,1,4,-8,1,6
1522257274927868,23,-2,-8,0,5,1,3,4
1522257274927868,-13,-1,-2,5,13,7,-1,2
1522257274941905,1,-1,-4,-2,-16,-4,0,5
1522257274941905,-2,-1,-1,6,-4,-3,-2,-8
1522257274943911,-1,-3,-6,1,12,7,-2,-2
1522257274943911,-14,-2,-2,3,-6,-7,-3,-8
1522257274964966,3,-2,-1,3,1,1,-5,1
1522257274964966,-10,-2,1,-7,-13,0,1,-2
1522257274965970,23,3,-1,-34,2,-2,3,26
1522257274965970,-8,-5,-3,22,26,10,-1,-31
1522257274979005,-9,-1,-1,-1,-8,-4,-4,-16
1522257274979005,-11,-1,-2,12,-42,-12,-1,-5
1522257274987025,-30,-6,-2,-7,-21,-9,-2,-6
1522257274987025,18,1,1,-7,6,1,4,14
1522257275002065,19,5,-1,2,6,2,-2,6
1522257275002065,-4,-2,0,-1,7,-1,-2,-2
1522257275004071,23,4,-3,4,5,-2,0,-2
1522257275004071,-13,3,-2,-3,46,4,-1,5
1522257275025126,0,-3,-1,-6,-35,-5,-4,-2
1522257275025126,24,2,1,-5,-6,-7,-2,5
1522257275026130,-26,-4,-2,-2,-30,-12,-4,-10
1522257275026130,25,-3,2,-4,-57,-13,0,-14
1522257275038161,-31,-4,-1,-8,23,3,3,6
1522257275038161,23,5,3,3,-9,6,2,17
1522257275047185,-34,-10,-4,4,36,9,0,-16
1522257275047185,-4,-5,-11,-44,24,-10,-4,-9
1522257275061223,29,3,4,71,-14,4,4,4
1522257275061223,15,1,0,2,-11,1,1,0
1522257275076262,33,2,3,19,21,2,-5,0
1522257275076262,-92,-16,-5,-27,-44,-7,-12,-17
1522257275085286,49,7,-2,-21,44,7,2,12
1522257275085286,-102,-10,-6,-7,42,9,-11,-37
1522257275086290,56,0,-5,3,-51,-15,-1,-4
1522257275086290,13,7,7,13,11,12,3,12
1522257275098321,24,3,5,-5,-9,1,-3,3
1522257275098321,-25,-2,-2,3,-15,-6,-3,-2
1522257275107345,-17,0,-3,-21,30,17,2,1
1522257275107345,-9,-2,2,-4,17,-1,3,5
1522257275121383,-5,-3,1,-15,1,-2,2,-3
1522257275121383,8,5,4,-7,-6,9,7,13
1522257275128401,-23,-6,-2,7,26,-5,-11,-10
1522257275128401,14,3,5,51,-19,0,2,15
1522257275144444,-15,-5,-4,-2,5,-2,-1,-19
1522257275144444,25,2,-2,0,8,-3,5,7
1522257275146449,11,2,-4,0,-39,-6,1,-3
1522257275146449,-29,1,1,5,-1,-3,-2,1
1522257275167505,-14,-7,-4,2,5,-4,-6,-11
1522257275167505,19,2,-3,7,2,-4,-1,17
1522257275168508,3,0,-5,-1,2,3,1,5
1522257275168508,32,2,2,-16,5,2,4,8
1522257275181542,5,2,2,-15,1,5,4,5
1522257275181542,10,-2,0,-5,-11,-17,2,5
1522257275188561,2,-1,3,-5,-6,23,1,3
1522257275188561,0,-1,-1,0,-24,-9,-4,-8
1522257275204604,7,2,-1,-1,9,-1,-5,-2
1522257275204604,-49,-4,-3,-19,-7,-6,0,-8
1522257275206609,4,0,2,8,1,17,2,-2
1522257275206609,4,-2,-4,21,19,10,1,8
1522257275227665,-14,0,-4,7,-14,-9,0,5
1522257275227665,11,2,3,-5,-19,-4,-2,-5
1522257275228667,0,-1,4,-10,-8,-13,-1,-3
1522257275228667,39,-5,-7,-24,-25,-1,-2,0
1522257275241702,-95,-9,-5,5,44,7,-2,-19
1522257275241702,30,2,2,35,23,4,-4,-1
1522257275248721,-21,-3,-2,3,11,-7,-4,-14
1522257275248721,35,7,2,3,-19,-9,-2,6
1522257275264763,8,-3,-3,-13,-18,-13,0,2
1522257275264763,-73,-1,4,-17,6,20,1,12
1522257275266769,-11,1,4,13,2,-5,0,-5
1522257275266769,-25,-4,-11,-11,19,3,-2,-6
1522257275287825,6,-10,-13,-10,-36,-13,-5,-19
1522257275287825,27,5,4,4,34,4,6,5
1522257275288828,24,1,4,-2,-1,-32,-4,16
1522257275288828,-20,6,7,1,-23,22,5,7
1522257275301862,11,3,-5,-1,-20,1,1,7
1522257275301862,49,1,-1,-2,9,3,-2,16
1522257275308881,-21,3,2,-14,2,3,8,8
1522257275308881,-17,-6,-5,-27,12,-20,-16,-17
1522257275324923,-18,3,9,11,-6,3,-2,-4
1522257275324923,-37,-11,-8,-8,-12,-13,-6,-22
1522257275326929,16,0,-1,19,-31,31,-5,22
1522257275326929,-28,-3,0,27,-20,-10,-3,-22
1522257275346982,-3,-2,2,-14,22,19,6,-3
1522257275346982,11,0,-2,15,-4,-1,-6,-15
1522257275348988,13,2,-5,-16,32,9,5,21
1522257275348988,3,-4,-5,13,20,6,8,8
1522257275362022,12,-3,4,15,-12,-12,-6,-9
1522257275362022,8,1,-2,-9,-38,-4,2,-7
1522257275368038,5,3,-1,2,-8,-10,0,-2
1522257275368038,26,8,-2,-6,18,3,6,15
1522257275385083,-1,-5,-2,-11,6,-17,-8,-9
1522257275385083,-21,-6,-3,-1,-1,4,4,-9
1522257275386086,-3,-2,-3,-31,37,9,-1,8
1522257275386086,21,1,7,2,-42,-21,-8,-8
1522257275407142,-13,0,-4,-16,-19,2,-2,10
1522257275407142,11,-2,-1,-7,-11,-15,-7,-11
1522257275409147,-18,-8,-5,0,3,-7,1,-28
1522257275409147,24,0,0,-12,51,30,3,18
1522257275421179,-17,2,5,17,4,-1,-1,-2
1522257275421179,23,4,-3,1,16,-1,1,22
1522257275430203,1,-3,-1,-12,-30,-5,-7,-23
1522257275430203,-52,-6,-1,24,11,-5,-7,-11
1522257275445243,17,1,-5,-6,-14,-3,-1,-1
1522257275445243,20,2,-1,5,23,10,4,16
1522257275446246,-23,0,0,10,-12,-7,-1,12
1522257275446246,-6,-7,-3,-13,-21,-3,2,-27
1522257275467302,17,-1,0,7,8,-25,-4,7
1522257275467302,4,-4,-2,-2,-11,44,7,-8
1522257275469307,8,0,0,24,5,-27,-8,-6
1522257275469307,-3,-2,1,9,-5,-2,2,-6
1522257275481339,5,5,2,-7,48,9,5,15
1522257275481339,20,1,0,-49,-47,-20,-8,-5
1522257275490363,-47,-3,-3,39,6,1,2,-5
1522257275490363,-2,1,-5,-27,-42,0,-5,-5
1522257275504400,6,-3,-5,14,-12,10,2,3
1522257275504400,-7,1,4,3,27,-18,-8,-4
1522257275506406,20,5,1,-25,8,26,10,14
1522257275506406,14,1,2,4,-7,-19,-7,-4
1522257275527462,15,2,3,8,-10,12,4,2
1522257275527462,-15,-6,-5,-4,-9,-11,-7,-13
1522257275529467,-29,1,-2,-5,-6,-18,-2,3
1522257275529467,-7,0,-1,1,28,7,7,3
1522257275541499,26,4,-1,-20,-17,6,3,4
1522257275541499,5,2,0,33,9,-1,5,9
1522257275549521,16,-7,1,-10,-4,0,-4,-19
1522257275549521,9,0,-2,-3,6,1,-1,12
1522257275564560,-12,-1,3,-1,16,9,-3,-1
1522257275564560,-1,2,-3,5,-22,-12,2,4
1522257275566566,-1,-2,-6,3,2,23,-2,-14
1522257275566566,11,0,-3,-2,15,-9,-3,2
1522257275587621,11,-1,-2,-16,-12,-13,4,17
1522257275587621,-32,-11,-8,-35,-15,20,9,-9
1522257275588624,12,-1,8,50,13,-2,-9,-15
1522257275588624,8,4,4,6,-4,-8,4,10
1522257275600656,-1,0,0,-4,14,9,-4,-3
1522257275600656,16,5,-1,-9,6,3,3,14
1522257275609680,-3,-2,-3,-9,-4,3,1,0
1522257275609680,-7,-1,-2,7,0,-2,0,-4
1522257275624720,6,0,-2,14,12,10,3,8
1522257275624720,13,4,-1,5,11,-5,-1,24
1522257275626726,-7,-7,-4,-18,-42,-7,-2,-38
1522257275626726,-41,-11,-7,10,11,18,-6,-9
1522257275647781,-10,0,6,-4,-28,-13,-2,-7
1522257275647781,-4,-1,2,11,5,2,-5,-6
1522257275648784,33,5,-2,-6,10,-13,1,24
1522257275648784,8,1,1,-9,3,-2,4,11
1522257275660816,-22,-4,-3,-5,-6,8,1,-9
1522257275660816,3,-4,0,4,2,-15,-4,-8
1522257275669840,5,3,1,-10,2,-4,2,10
1522257275669840,24,6,6,-7,-1,0,6,6
1522257275683877,32,14,8,9,80,3,6,52
1522257275683877,-81,-19,-10,-6,-92,3,-22,-74
1522257275692901,-10,-2,-4,-13,-13,-9,-4,-12
1522257275692901,-8,-6,-4,-3,-5,4,-6,-12
1522257275706939,14,1,-2,1,-6,-1,0,3
1522257275706939,28,11,9,12,29,3,10,21
1522257275708944,-7,0,-2,-5,8,-4,1,3
1522257275708944,3,0,-5,2,-10,-7,-1,4
1522257275720976,-5,-3,-3,-16,-3,-1,-3,-13
1522257275720976,6,-1,0,19,15,-3,-2,2
1522257275730000,7,-1,2,-1,-8,0,1,13
1522257275730000,9,2,10,39,33,-34,-9,2
1522257275745040,-13,-5,-7,0,-68,-15,-3,-16
1522257275745040,-10,-3,-5,-6,15,3,3,-5
1522257275746043,18,2,0,-4,13,-6,-2,14
1522257275746043,-2,2,-3,-13,-30,1,3,-2
1522257275767099,-11,-5,-1,1,-2,6,-4,-5
1522257275767099,12,2,-1,3,-1,-9,0,12
1522257275769104,5,2,1,6,15,9,3,-4
1522257275769104,-2,-1,0,-5,3,10,2,9
1522257275781136,11,1,-1,7,-1,-3,1,-13
1522257275781136,-10,3,5,1,20,6,5,17
1522257275790160,-17,-10,-2,-5,16,1,2,-13
1522257275790160,6,-3,-2,-9,-29,4,-5,4
1522257275805200,-26,2,0,1,-14,-2,-4,-7
1522257275805200,30,4,0,5,13,1,3,2
1522257275806203,4,3,1,5,8,4,4,22
1522257275806203,-11,-2,-2,-5,-9,-9,-3,-14
1522257275827258,20,0,-3,2,3,3,0,-3
1522257275827258,3,3,0,1,8,0,-3,2
1522257275829264,-9,0,-2,0,-10,10,0,0
1522257275829264,2,1,-5,-9,11,5,2,-1
1522257275841296,-17,0,-2,-16,2,4,-1,0
1522257275841296,-8,-2,-2,-50,19,-22,-5,-9
1522257275850320,-3,1,8,52,-33,-12,-4,12
1522257275850320,16,4,5,8,18,11,16,26
1522257275865360,-22,-11,-8,1,-21,-6,-22,-51
1522257275865360,9,0,-2,0,-12,-11,-2,-1
1522257275866363,-14,-4,-3,-19,21,6,-6,-10
1522257275866363,0,-1,2,-3,1,-10,6,21
1522257275887418,1,0,2,5,6,7,10,13
1522257275887418,-37,1,4,8,-6,6,-9,16
1522257275889424,-1,-7,-5,-16,-6,-6,-6,-22
1522257275889424,17,2,0,7,-3,3,-6,-12
1522257275901456,-33,-3,-5,-6,3,-8,2,4
1522257275901456,47,3,-2,9,-14,3,1,-10
1522257275910479,-5,3,0,-3,17,9,5,24
1522257275910479,-4,-1,-3,-8,-4,4,-10,-18
1522257275924517,-39,-6,-2,1,20,-7,-3,22
1522257275924517,-7,1,-2,10,-27,5,4,-11
1522257275926522,6,0,-1,-3,16,-4,-5,-12
1522257275926522,6,-2,-1,-11,-22,-3,5,-5
1522257275947578,16,5,5,0,22,4,4,33
1522257275947578,4,-5,-2,-1,-6,-6,-19,-51
1522257275948581,-6,1,-2,-12,18,-19,-3,3
1522257275948581,14,-6,-1,29,10,22,-4,23
1522257275960613,44,1,1,32,-16,-2,4,-16
1522257275960613,-36,-2,-2,4,29,12,9,15
1522257275969637,-61,-11,-4,-23,-16,-29,-7,-20
1522257275969637,-37,-5,-7,-22,5,-5,-11,-20
1522257275984677,-66,-7,-3,-11,10,-4,-1,3
1522257275984677,60,5,0,-2,-40,-8,7,18
1522257275986682,-10,-5,-8,4,-20,-11,-3,-20
1522257275986682,-4,3,0,10,5,15,4,9
1522257276007738,13,-5,-1,-14,-15,3,-2,-24
1522257276007738,-16,0,2,28,18,0,4,6
1522257276008741,15,5,5,7,-19,9,4,15
1522257276008741,-9,-4,2,-13,9,-6,-5,-15
1522257276020773,44,1,-3,-11,6,-5,-1,11
1522257276020773,-31,1,0,-23,2,3,2,7
1522257276029797,20,-1,-3,-10,26,15,3,7
1522257276029797,-3,-2,-2,-8,18,7,-5,-22
1522257276043834,-6,-1,-2,-4,-42,-1,1,7
1522257276043834,19,2,-1,1,-26,-6,-1,-17
1522257276050853,23,6,-2,9,-22,5,-7,35
1522257276050853,-26,-2,-1,10,-10,-14,6,2
1522257276067898,11,4,-4,-21,3,-37,-1,-9
1522257276067898,-25,-10,-5,35,0,6,-1,-48
1522257276068901,5,-5,3,2,34,-4,-1,9
1522257276068901,23,3,0,12,-5,5,0,10
1522257276089957,5,0,1,2,-9,8,-2,10
1522257276089957,35,5,1,-16,12,-5,-3,22
1522257276091962,7,1,1,-20,-13,4,3,-15
1522257276091962,4,0,0,-17,-8,-13,2,0
1522257276103994,3,2,-1,29,36,17,4,-10
1522257276103994,-11,-4,-2,0,-27,-3,0,-2
1522257276111012,6,1,7,20,-26,4,1,4
1522257276111012,11,0,0,7,3,-4,-2,3
1522257276127055,6,0,1,14,-3,2,2,-4
1522257276127055,-4,0,-2,0,43,-8,-1,-1
1522257276129061,5,-1,-2,1,12,8,-5,2
1522257276129061,14,0,-2,-7,-17,-7,10,14
1522257276150116,11,0,4,-2,-32,-19,-3,-9
1522257276150116,-16,-6,-2,-11,-23,11,-10,-21
1522257276151119,-25,-2,-4,5,11,2,-3,-12
1522257276151119,7,-2,-6,-42,-18,-9,-2,0
1522257276164154,3,-2,-2,17,21,13,-3,9
1522257276164154,32,7,3,17,23,-22,-1,22
1522257276171172,13,6,-1,-8,-7,32,3,5
1522257276171172,-32,-6,0,9,19,-6,-14,-19
1522257276187215,-8,-5,-9,-17,-7,3,1,-30
1522257276187215,-3,-3,-5,-23,-20,-21,-7,-7
1522257276189221,3,-1,-1,4,1,-20,-1,-10
1522257276189221,-25,1,5,7,1,8,1,9
1522257276210276,-12,-2,0,-10,-19,1,0,-1
1522257276210276,10,-3,-1,-3,9,12,0,12
1522257276211279,12,0,-2,-7,-12,0,8,11
1522257276211279,-75,-10,-4,-2,-13,-2,-10,-33
1522257276224313,3,-1,2,1,16,-4,-4,16
1522257276224313,-10,-5,-2,-6,3,3,0,-2
1522257276231332,6,1,-2,-16,-28,-14,10,-2
1522257276231332,47,7,-2,0,43,-15,8,4
1522257276247375,23,4,3,20,-30,33,-7,5
1522257276247375,-9,-1,0,0,-2,12,-9,-4
1522257276249380,5,-4,1,0,47,0,-5,-9
1522257276249380,6,-3,-2,-5,-79,-19,-2,9
1522257276269433,-18,-4,-4,-30,7,-6,2,-11
1522257276269433,40,6,6,28,-10,-2,3,16
1522257276271439,8,3,1,9,-15,-23,-1,3
1522257276271439,-19,1,-3,3,25,10,-9,-28
1522257276284473,9,-2,-2,-5,12,-7,-3,6
1522257276284473,-22,0,-6,-9,-7,7,3,-1
1522257276291492,-15,-1,4,-11,5,-6,3,3
1522257276291492,20,-2,1,12,14,1,1,4
1522257276307535,18,-3,2,1,-6,2,1,-4
1522257276307535,-42,-3,-2,-4,19,-1,-1,-6
1522257276308538,9,-1,-5,-16,-7,15,1,5
1522257276308538,28,5,4,4,4,9,3,11
1522257276329594,6,5,-6,-5,3,-2,-2,14
1522257276329594,4,0,2,7,9,14,13,16
1522257276331599,-25,-8,-3,7,-7,-5,-20,-57
1522257276331599,0,-3,1,3,9,7,2,8
1522257276343631,4,1,0,1,-1,-38,-4,-4
1522257276343631,-31,-3,-2,-20,3,5,3,14
1522257276352655,4,0,2,16,-10,-5,1,7
1522257276352655,-7,-6,-3,-8,1,-2,0,-3
1522257276367695,-1,-1,2,11,-13,-3,0,-5
1522257276367695,18,1,-3,0,-10,-7,-6,4
1522257276368697,8,3,-1,4,19,2,3,4
1522257276368697,5,5,5,10,-2,3,4,14
1522257276389753,-13,-3,-2,-12,12,8,2,-6
1522257276389753,40,3,1,-6,7,-4,-1,-1
1522257276391759,4,-6,-8,-5,-10,5,1,-5
1522257276391759,-20,-4,-6,-2,-26,-10,-6,-1
1522257276403790,6,1,4,-7,-18,-1,-1,2
1522257276403790,-9,-1,2,4,-3,-2,0,-6
1522257276412815,32,3,-3,-3,10,2,4,14
1522257276412815,14,3,-3,-1,20,3,2,-2
1522257276427854,6,1,3,7,7,3,2,29
1522257276427854,-32,-4,-1,-3,-1,-3,-9,-27
1522257276428858,-7,-3,1,-6,-27,-16,-5,3
1522257276428858,8,-5,-4,-7,-18,13,2,0
1522257276449913,-25,-2,1,0,13,8,-2,-10
1522257276449913,23,-2,-2,1,2,2,5,7
1522257276451919,-14,-7,-3,-5,-7,3,0,0
1522257276451919,-2,6,-7,8,4,-6,-4,-3
1522257276463950,3,14,7,2,6,1,0,-8
1522257276463950,3,-2,-3,-7,1,-18,3,15
1522257276472975,-8,6,5,-1,18,14,5,-8
1522257276472975,24,-11,-2,11,15,21,-14,-16
1522257276487012,-32,-10,-9,-6,-30,-15,-4,-1
1522257276487012,-20,-1,-4,-3,-66,-15,-7,-28
1522257276489017,4,-3,0,-3,-5,-8,-4,6
1522257276489017,30,5,2,-9,35,0,2,14
1522257276510073,-32,-3,-2,2,15,12,0,-1
1522257276510073,12,-4,0,-1,12,5,1,6
1522257276511076,7,2,0,5,11,2,0,-3
1522257276511076,13,4,3,0,-7,2,6,12
1522257276532132,-19,-8,-6,-2,2,-4,-2,-38
1522257276532132,-1,-6,-3,-2,-1,0,0,13
1522257276534137,-1,3,4,4,0,0,2,-3
1522257276534137,-5,-7,-1,-3,-10,3,0,-4
1522257276547171,-7,-4,0,-1,-1,-4,1,5
1522257276547171,29,7,0,1,23,12,5,18
1522257276549177,-1,-2,-4,1,-23,0,-15,-37
1522257276549177,-25,-3,-2,-2,10,-15,-2,17
1522257276570233,30,6,-1,0,-16,0,1,5
1522257276570233,-17,-4,2,1,9,5,-1,1
1522257276571236,15,3,2,4,7,3,2,-4
1522257276571236,-55,-3,-5,0,-13,-12,0,4
1522257276583268,12,-10,-6,-4,-22,-3,-5,-25
1522257276583268,-1,2,2,0,11,-5,-5,-12
1522257276592291,30,5,1,-1,-10,2,4,22
1522257276592291,-39,4,2,-4,-1,-10,-1,4
1522257276608334,12,-2,-3,0,3,2,0,3
1522257276608334,-5,0,2,1,-6,3,7,0
1522257276610340,-3,-14,-9,1,10,-1,-1,-6
1522257276610340,20,13,3,-1,-3,2,9,34
1522257276629390,-2,-4,3,-2,7,-2,-11,-26
1522257276629390,-26,-2,-2,-3,5,0,-8,-13
1522257276631396,-10,-2,-2,4,13,1,2,9
1522257276631396,33,-4,-2,-2,-42,-11,-5,-30
1522257276643427,-72,-5,-2,1,28,6,5,8
1522257276643427,30,2,2,-1,-25,-4,1,2
1522257276652452,-19,-5,-3,-2,19,-1,-7,-7
1522257276652452,12,-2,-2,-4,-12,-2,-3,16
1522257276667491,22,2,-2,2,4,-5,-6,2
1522257276667491,2,0,-4,0,6,2,-1,-1
1522257276669497,-14,3,2,2,-5,3,8,26
1522257276669497,3,1,-1,-3,-2,-4,-6,-23
1522257276689550,20,-4,-7,-5,7,1,0,-1
1522257276689550,-21,0,4,-4,-18,-1,-3,3
1522257276691555,20,14,6,1,-10,-2,2,17
1522257276691555,-28,-11,-2,2,19,8,-3,-27
1522257276703587,5,-5,0,1,-9,-8,0,13
1522257276703587,-19,-3,-1,0,-4,6,-2,-13
1522257276712611,17,-6,-5,-3,-18,-2,0,11
1522257276712611,11,5,0,3,31,3,4,1
1522257276727651,1,7,1,4,28,12,6,5
1522257276727651,20,-1,-3,-6,-29,-8,-2,16
1522257276728654,15,-1,2,-5,-36,-19,1,-16
1522257276728654,-87,-14,-2,-10,-2,22,-4,-12
1522257276749710,-3,-4,-2,10,8,0,-9,-11
1522257276749710,2,5,3,0,31,7,3,0
1522257276751715,33,4,2,2,5,7,6,18
1522257276751715,1,-1,-6,-6,-7,-17,-9,-29
1522257276763747,-24,-4,-2,-7,-2,-5,-2,4
1522257276763747,6,-1,-2,1,-2,2,0,-9
1522257276772771,-31,-1,1,0,-1,-1,2,12
1522257276772771,10,2,1,3,-1,-3,4,-1
1522257276787811,18,2,0,-2,-4,1,-5,3
1522257276787811,4,2,-1,2,4,-5,2,1
1522257276788814,-14,-7,-1,-2,7,-16,-13,-12
1522257276788814,48,1,2,5,-5,10,2,-4
1522257276809870,-49,5,3,2,-24,-7,2,8
1522257276809870,-14,-1,-4,-4,6,2,0,-5
1522257276811875,-23,-5,-5,-4,6,0,-10,-15
1522257276811875,-1,-3,-2,-3,9,-3,4,2
1522257276823907,37,2,0,-2,-9,-3,5,12
1522257276823907,24,1,4,1,-9,3,-1,18
1522257276832932,0,-6,-1,-2,3,3,-5,-31
1522257276832932,-63,-3,0,0,1,-7,-2,-5
1522257276846968,17,2,2,-11,18,36,1,11
1522257276846968,-1,-1,-5,21,53,3,0,-2
1522257276848974,5,2,1,2,-47,9,6,-1
1522257276848974,36,3,-2,-3,-27,-14,-2,18
1522257276870030,-1,1,-1,3,-13,-12,-3,-20
1522257276870030,-30,-4,-4,-8,8,-11,-3,-14
1522257276871033,16,-1,-8,-9,30,4,4,2
1522257276871033,19,0,3,13,9,24,3,24
1522257276883064,-81,-9,-2,-6,-2,-8,-2,1
1522257276883064,32,7,3,6,-18,3,-1,-4
1522257276892088,-53,-4,-2,0,-10,-12,-4,-8
1522257276892088,33,-1,1,-7,2,-4,0,2
1522257276907128,24,0,-4,-5,2,0,-4,-15
1522257276907128,8,1,0,-2,10,5,-1,-2
1522257276909133,-32,-4,-2,5,17,9,6,1
1522257276909133,-8,-4,-2,-4,-17,-17,-5,-11
1522257276930190,15,1,-2,1,-19,2,4,9
1522257276930190,-21,-2,-5,-10,-41,-16,-2,-10
1522257276931192,37,9,3,0,14,5,3,21
1522257276931192,-9,1,-4,4,14,1,-7,-18
1522257276943224,-2,-8,0,1,-2,1,0,-14
1522257276943224,-19,-3,-2,-4,5,-1,-2,2
1522257276952248,2,-1,-1,0,-4,-9,-6,6
1522257276952248,15,2,-2,-5,9,-15,3,7
1522257276966286,17,5,4,20,9,3,-3,1
1522257276966286,-1,-1,-3,0,-1,13,-4,0
1522257276975309,-2,1,0,0,24,7,-2,-5
1522257276975309,-17,-1,-1,-3,-33,-8,2,-5
1522257276990349,23,-1,-4,-5,-16,-14,4,11
1522257276990349,11,-5,-1,-3,1,-16,2,2
1522257276991352,33,2,0,-3,-7,1,1,-1
1522257276991352,-14,-1,2,-4,52,33,1,4
1522257277003384,2,-3,0,2,-5,13,1,3
1522257277003384,2,-5,0,0,-30,-11,-10,-16
1522257277012408,10,-2,-5,-4,-6,1,-3,-2
1522257277012408,10,-1,-1,-5,6,-12,-2,7
