timestamp,emg1,emg2,emg3,emg4,emg5,emg6,emg7,emg8
1530692505746739,-4,-10,-2,0,-3,-14,-7,-1
1530692505746739,1,3,-2,-1,0,3,-2,-2
1530692505747768,-14,6,2,0,1,6,2,4
1530692505747768,17,4,-2,0,-3,-5,-1,-2
1530692505769677,-3,-12,0,-2,-2,2,-1,-3
1530692505769677,14,7,1,-1,1,-3,-1,0
1530692505770675,7,3,-4,-4,-3,-1,0,1
1530692505770675,7,-1,1,1,1,-13,-2,1
1530692505784638,12,1,-4,-1,-2,6,0,-3
1530692505784638,-10,-11,2,1,-1,-5,-4,-4
1530692505785636,8,12,-1,-3,0,8,2,2
1530692505785636,-1,-3,-1,-3,-1,5,3,1
1530692505806579,-2,-5,-1,2,1,1,2,2
1530692505806579,-30,-6,-4,-3,-1,-1,-5,-12
1530692505807576,9,6,1,1,-2,0,-1,0
1530692505807576,-3,-8,1,0,-1,-10,-3,4
1530692505829527,2,2,-1,-1,4,3,2,-4
1530692505829527,30,4,-1,-3,-9,6,7,3
1530692505830515,-23,-4,0,1,2,11,4,-1
1530692505830515,5,-6,-3,-2,0,-1,2,-3
1530692505844477,30,16,4,1,-2,-11,-2,6
1530692505844477,-38,-20,-4,-2,2,-2,-4,-2
1530692505845482,21,0,-1,-2,2,5,-5,-2
1530692505845482,-3,-2,-1,-1,0,5,3,0
1530692505866419,8,-1,-2,-3,-2,4,0,-3
1530692505866419,-22,-2,-2,-1,-1,-3,-2,-2
1530692505867416,-24,-10,0,0,-2,0,-3,-6
1530692505867416,-1,1,-1,-1,1,1,-1,6
1530692505889357,4,0,1,-1,-2,-2,0,0
1530692505889357,-7,-2,-1,1,0,-4,-1,3
1530692505890355,21,4,-1,-1,-1,-24,-1,0
1530692505890355,-14,-8,-1,1,3,15,-3,-6
1530692505904317,-41,-3,-2,-3,-12,-13,-8,-3
1530692505904317,58,6,1,-1,-1,-13,5,7
1530692505905315,-28,8,-1,0,0,3,-2,-1
1530692505905315,5,-7,-3,0,3,2,5,4
1530692505926259,-3,-5,-5,-2,-1,-6,-2,-8
1530692505926259,-15,-6,0,1,0,3,-1,-3
1530692505927256,3,-6,-1,-2,-1,-13,-11,-6
1530692505927256,-3,4,0,0,-4,5,2,0
1530692505950195,-12,-3,-3,-2,3,-11,-1,0
1530692505950195,18,13,4,0,4,36,8,1
1530692505950195,12,-13,-3,-2,-4,-14,-7,-2
1530692505950195,-14,2,2,2,-2,5,2,-3
1530692505964157,-10,-8,-2,-1,-3,-19,-5,-2
1530692505964157,-26,2,-3,-3,0,-1,-7,-4
1530692505965155,22,-14,-5,-1,1,9,2,3
1530692505965155,7,9,3,0,-1,0,1,2
1530692505987096,-29,2,0,-1,0,7,2,-3
1530692505987096,6,-6,-2,-2,-2,-16,-4,-7
1530692505987096,-19,-1,0,1,-3,8,5,1
1530692505987096,-4,-6,-6,-3,0,-31,-12,-11
1530692506010035,20,6,1,0,0,-15,-7,1
1530692506010035,-4,-4,-2,0,-1,16,4,4
1530692506011032,4,-3,1,1,0,15,3,-10
1530692506011032,-22,-4,0,2,6,13,-1,-1
1530692506023997,15,8,-2,-3,-13,4,4,4
1530692506023997,5,-2,-1,0,0,-11,0,1
1530692506024995,8,1,1,-1,-2,3,2,4
1530692506024995,-7,-10,-3,-1,-4,1,-4,-4
1530692506046936,2,0,-2,-2,4,8,-2,-4
1530692506046936,10,6,-2,-3,-5,-17,-14,-4
1530692506046936,-1,2,0,-1,1,4,4,8
1530692506046936,-7,-1,-2,0,-6,-16,2,2
1530692506069874,30,2,-2,-2,2,21,7,-2
1530692506069874,-3,-11,-3,2,4,-27,-4,-1
1530692506070872,-12,3,0,-1,-10,20,10,-3
1530692506070872,2,1,0,1,-3,-17,-22,3
1530692506083837,14,2,0,-4,4,-19,1,-6
1530692506083837,-2,-1,2,0,0,16,14,5
1530692506084835,-6,2,-2,0,5,-10,-5,-7
1530692506084835,20,0,3,0,-1,24,12,5
1530692506106776,-19,-3,0,0,-3,10,-6,-4
1530692506106776,-5,-2,-4,-3,12,22,6,1
1530692506107773,5,1,-1,-1,-7,-38,-5,6
1530692506107773,23,7,1,-1,-2,1,1,1
1530692506129714,-29,-3,0,3,0,1,1,3
1530692506129714,-7,3,0,-1,-3,14,-6,-4
1530692506130712,5,-2,-3,-3,-2,-27,-4,0
1530692506130712,-26,-6,2,0,2,-6,2,0
1530692506143678,74,22,2,2,2,1,-3,10
1530692506143678,-19,-5,-2,-2,-5,4,7,-4
1530692506151656,-11,-4,-3,-1,0,2,-7,-7
1530692506151656,18,-5,-5,-3,-5,30,7,3
1530692506166616,-24,-9,0,2,-1,7,-1,-4
1530692506166616,32,7,1,0,-3,7,7,8
1530692506167614,-7,-1,0,-1,5,26,-3,-8
1530692506167614,-2,-7,-6,-3,-7,-44,-13,-8
1530692506189555,13,1,3,1,1,27,12,-1
1530692506189555,-1,-8,-2,0,-2,-24,-17,8
1530692506190552,-27,5,0,0,6,9,3,-1
1530692506190552,-5,1,-1,0,1,-2,14,2
1530692506203517,-3,1,-1,-1,-6,3,-14,-4
1530692506203517,-11,-10,-5,5,-1,12,-4,-15
1530692506211496,11,4,3,-1,2,-10,14,9
1530692506211496,43,22,2,-1,0,14,-3,2
1530692506226456,-21,-11,-8,-5,0,-11,0,-9
1530692506226456,11,-2,0,-2,0,-21,-2,3
1530692506227453,5,7,-3,-3,-5,6,-10,-3
1530692506227453,27,-2,-1,-2,-2,3,2,-2
1530692506249395,-65,-4,-3,-3,-2,2,5,10
1530692506249395,15,-2,0,-1,-1,-10,-4,-3
1530692506250392,-2,-2,-4,0,-2,15,3,1
1530692506250392,-21,-3,1,1,0,-16,-1,-1
1530692506263357,8,-2,-1,-1,7,9,2,1
1530692506263357,-7,0,-1,-2,-13,-10,-6,0
1530692506271336,-24,-2,0,-3,-5,-10,-3,-8
1530692506271336,8,-4,-1,2,10,16,3,8
1530692506286296,-9,-10,-2,-1,-7,-4,-7,-2
1530692506286296,2,10,3,-1,3,2,13,4
1530692506287293,27,1,2,3,-1,-4,-7,-1
1530692506287293,-33,-2,-2,0,-1,-4,-1,-7
1530692506310232,35,10,-1,0,3,-9,-1,1
1530692506310232,3,-2,-2,-4,3,3,3,3
1530692506310232,-45,-10,0,-2,-11,-13,-6,-4
1530692506310232,11,5,-6,6,1,4,3,0
1530692506323197,-43,-14,-3,-4,-13,-3,-2,-7
1530692506323197,19,8,2,12,2,-7,-4,-1
1530692506331176,28,5,-2,4,0,5,0,-2
1530692506331176,5,3,1,-6,2,8,2,-4
1530692506346136,-8,-8,-2,-5,-4,-15,-6,-9
1530692506346136,36,24,1,-4,-4,4,0,6
1530692506347133,-52,-41,-9,-8,5,-17,0,-5
1530692506347133,-28,3,3,4,-5,5,-2,2
1530692506370072,38,6,2,6,0,-14,-5,-6
1530692506370072,-52,-17,-4,-5,-1,4,-2,-12
1530692506370072,52,26,4,3,1,8,1,9
1530692506370072,-6,-11,-1,-4,2,-14,-7,-6
1530692506383037,-41,-13,-4,-1,-6,3,15,3
1530692506383037,2,4,1,1,-2,-11,-4,-4
1530692506392013,11,8,2,2,0,6,1,6
1530692506392013,-20,-1,1,-4,-2,-7,-2,0
1530692506406973,21,-3,-1,1,2,-2,-4,3
1530692506406973,-1,-7,-2,0,0,0,2,-4
1530692506406973,-15,4,0,1,6,15,6,15
1530692506406973,21,-1,0,-2,-3,4,-2,-1
1530692506429912,14,1,1,-2,4,10,6,6
1530692506429912,-16,-2,-1,-2,0,-11,-2,-8
1530692506430909,6,-2,0,-2,-3,-22,-16,-10
1530692506430909,-1,-12,-5,-1,-2,6,4,6
1530692506443874,-4,5,2,-1,-1,-8,-10,-5
1530692506443874,-9,-11,-1,-1,1,8,1,0
1530692506451853,12,11,1,-3,-5,-14,-2,-3
1530692506451853,-14,0,-2,0,-8,0,-3,-7
1530692506466813,5,-6,-1,-9,13,18,4,2
1530692506466813,-7,-3,0,9,-2,-2,7,-2
1530692506467811,12,0,-5,0,-3,-1,-1,-4
1530692506467811,7,-2,-2,-3,-7,-15,-4,-1
1530692506489751,-36,-2,2,1,-5,0,-8,1
1530692506489751,19,24,-2,-9,3,6,-2,-4
1530692506490749,12,-17,1,2,3,4,13,2
1530692506490749,-5,12,-2,-1,-3,-10,-5,-1
1530692506512690,22,6,2,2,-1,-18,0,3
1530692506512690,-33,-13,-4,-2,-2,11,-10,-8
1530692506512690,3,-6,-8,1,2,13,1,-9
1530692506512690,11,10,1,-1,3,4,-2,0
1530692506526653,1,-7,-2,0,-1,-8,2,-2
1530692506526653,-5,2,4,0,-1,6,3,5
1530692506527650,15,5,2,0,-1,-4,-1,-3
1530692506527650,-10,-6,0,-2,1,0,1,-1
1530692506549592,-17,3,-6,-2,-5,-16,-5,0
1530692506549592,8,-7,-3,1,1,12,-2,2
1530692506550589,-9,5,0,-3,5,9,-4,-2
1530692506550589,-31,-10,-1,1,-5,-9,-2,-5
1530692506572530,31,5,2,3,2,29,8,0
1530692506572530,5,-2,-4,-3,-5,-15,-7,5
1530692506573528,-7,0,3,2,3,-2,-1,4
1530692506573528,6,-14,-3,-3,0,-6,1,4
1530692506586493,-48,-14,-4,-1,-1,11,-5,-7
1530692506586493,7,9,5,-1,0,-2,0,-2
1530692506587491,28,3,-3,-3,-4,-1,2,16
1530692506587491,-40,-4,-1,1,1,-3,-1,-12
1530692506609431,-14,5,0,-1,2,8,4,3
1530692506609431,-10,-11,-2,-3,1,-4,-3,-3
1530692506610429,-2,0,-1,-2,-9,-4,-2,-8
1530692506610429,22,14,3,1,-2,2,3,6
1530692506632370,21,5,0,-2,-3,-1,-1,1
1530692506632370,-18,-14,-2,-1,-2,-5,-4,-6
1530692506633368,-20,3,-2,-1,-1,-5,-3,-2
1530692506633368,18,2,-4,0,4,12,1,1
1530692506646333,5,0,0,1,-1,-7,-1,0
1530692506646333,33,9,1,-2,-5,-11,-2,7
1530692506647330,-63,-23,-2,-5,-1,6,-6,-6
1530692506647330,41,9,-2,4,5,7,12,6
1530692506670269,8,2,0,-5,-1,-23,-19,-1
1530692506670269,16,3,0,8,7,7,6,5
1530692506670269,-16,-7,-2,-1,0,-8,-9,-13
1530692506670269,2,-6,0,-7,-4,7,-4,2
1530692506692210,6,2,0,15,-1,-1,7,2
1530692506692210,3,3,0,-7,5,5,1,5
1530692506693208,14,5,0,-3,-11,-9,0,3
1530692506693208,-23,-10,-1,1,-2,-6,-2,-3
1530692506706173,14,2,-2,-6,-1,2,0,-2
1530692506706173,-12,-5,0,0,-1,-2,-4,-9
1530692506707170,20,7,-1,1,2,5,3,2
1530692506707170,1,4,-1,-3,-1,-5,-4,-2
1530692506730109,-5,-12,-1,-1,-1,-2,3,4
1530692506730109,-4,0,-2,1,-1,3,1,1
1530692506730109,10,-1,-1,-3,1,-8,0,-1
1530692506730109,7,1,0,1,-3,17,0,0
1530692506752051,-6,-1,-2,-5,-5,-2,-3,-4
1530692506752051,-20,-5,-3,-2,-3,-4,0,-7
1530692506753048,13,12,-1,-1,-1,-3,-1,-6
1530692506753048,-2,-3,-1,-3,5,8,3,3
1530692506767010,-3,5,-3,2,-3,-9,3,-4
1530692506767010,3,-3,0,-1,0,2,0,1
1530692506767010,12,3,1,1,-1,-4,1,6
1530692506767010,4,1,0,0,-3,-7,-2,-3
1530692506788952,3,-3,1,-1,1,15,3,1
1530692506788952,-15,-1,-2,-3,-5,-19,-2,2
1530692506789949,-18,-6,-2,-7,3,5,-2,-6
1530692506789949,-20,-8,-3,7,-1,-6,-7,-9
1530692506811890,25,12,1,1,1,4,3,4
1530692506811890,-18,-14,-4,-5,-3,0,-1,-6
1530692506812888,60,12,3,9,-1,5,4,3
1530692506812888,-52,-9,-1,-8,-5,-12,-5,-1
1530692506826850,31,-7,-3,-2,-4,2,-1,-3
1530692506826850,-14,13,2,1,1,-12,-6,1
1530692506827848,-8,-11,-7,-2,8,31,10,-1
1530692506827848,8,3,0,-6,-6,-23,-6,-4
1530692506848792,-10,3,1,-2,3,-18,-6,1
1530692506848792,44,6,2,2,-2,6,3,10
1530692506849790,-31,-10,-4,-1,-3,-9,-5,-7
1530692506849790,-8,10,0,1,3,12,4,4
1530692506872728,-39,-30,-4,-5,-1,4,0,-6
1530692506872728,-5,-1,-2,-2,-4,-6,-4,-2
1530692506872728,-17,0,-1,1,1,2,-2,1
1530692506872728,35,2,1,-3,0,0,1,4
1530692506886690,5,7,1,3,-3,-1,0,5
1530692506886690,10,2,0,-1,-2,4,-2,-10
1530692506887688,-12,3,1,-1,-3,-2,-3,2
1530692506887688,-22,-26,-4,-2,-2,-3,-4,-5
1530692506908632,15,16,1,0,2,-3,0,0
1530692506908632,35,5,0,1,0,6,6,8
1530692506909629,-14,0,0,0,-4,-5,-4,-3
1530692506909629,-2,-6,-1,0,-1,-6,-2,-3
1530692506932567,-10,-2,0,0,-1,5,0,-1
1530692506932567,-12,-7,-3,-4,-2,0,-2,-4
1530692506933565,10,-3,0,-2,1,-7,-2,-1
1530692506933565,-7,-1,-1,1,-1,2,0,2
1530692506946530,4,1,-1,-1,-1,2,0,1
1530692506946530,1,7,0,2,0,2,-1,2
1530692506947528,-1,-13,-2,-1,-4,-4,-1,0
1530692506947528,-2,6,1,2,1,2,6,2
1530692506969469,-8,-2,-5,-2,-1,-4,-5,-8
1530692506969469,-15,-11,-4,-2,-1,-3,-1,5
1530692506969469,17,17,5,3,0,0,-3,-7
1530692506969469,-23,-4,-1,-2,1,2,3,2
1530692506992407,6,7,2,-1,-1,-3,-2,-3
1530692506992407,-5,-8,-2,0,-1,5,0,-7
1530692506993405,-20,-7,-1,-1,-4,-15,-6,-4
1530692506993405,43,12,0,-2,-1,1,0,3
1530692507006370,11,-10,-3,0,1,23,9,9
1530692507006370,-19,-2,-1,-2,-2,-16,-14,-14
1530692507007367,-16,-9,-3,-1,7,16,8,4
1530692507007367,-20,7,4,2,-7,-17,-5,-3
1530692507029309,-6,-7,-7,-3,2,16,2,-3
1530692507029309,10,2,-2,-2,-4,0,3,3
1530692507030306,-9,0,-1,-2,-4,2,3,2
1530692507030306,4,3,-3,-3,5,-3,-3,-3
1530692507052248,-12,0,2,0,-1,-5,-3,-9
1530692507052248,-1,-1,-1,2,1,2,-2,-11
1530692507053245,20,3,0,-2,2,-4,-3,2
1530692507053245,-6,-3,-2,-1,-2,5,0,-1
1530692507066210,-16,5,2,0,0,-8,0,-1
1530692507066210,16,4,1,-2,-1,-3,1,2
1530692507067207,-1,-8,-1,-1,-2,1,1,1
1530692507067207,11,1,-2,-2,0,2,-3,-3
1530692507089148,-39,-7,-6,-3,-4,-14,-6,-8
1530692507089148,-12,-4,1,-1,0,-13,-2,-2
1530692507090146,11,10,-1,-1,0,29,0,2
1530692507090146,23,-6,-1,2,2,6,1,2
1530692507112093,4,6,0,-3,-2,1,0,-4
1530692507112093,12,2,2,1,2,13,4,3
1530692507113085,-11,-13,-3,-2,-3,-26,-12,-4
1530692507113085,3,10,-1,-1,-2,-3,5,-6
1530692507126050,3,-19,-3,-2,-2,-14,-3,9
1530692507126050,4,8,-1,0,-1,11,5,0
1530692507134029,-3,-8,-3,1,0,-6,-5,-2
1530692507134029,5,5,2,-1,-1,6,0,0
1530692507148989,28,10,-1,-1,0,-6,-1,3
1530692507148989,-10,-9,-2,-2,-1,-4,1,7
1530692507149987,6,7,0,0,5,9,1,0
1530692507149987,-23,-14,-7,-3,-17,-20,-3,-2
1530692507171927,2,0,0,2,-2,-9,1,-2
1530692507171927,-1,-3,-1,-1,-2,-9,-3,2
1530692507172925,-3,1,-1,0,2,14,6,1
1530692507172925,5,-2,-1,-1,5,7,-1,-3
1530692507185890,9,2,3,0,-1,5,1,1
1530692507185890,10,-4,-3,-2,-4,0,-2,-4
1530692507193868,-17,-4,0,-3,-1,4,7,0
1530692507193868,-15,4,0,-2,-1,-36,-10,0
1530692507208828,-21,-11,0,1,-1,3,-4,-3
1530692507208828,19,3,-1,1,-8,-6,2,5
1530692507209826,-12,-6,-1,-2,-3,-25,0,2
1530692507209826,-1,-6,-3,-3,-1,39,10,-5
1530692507232764,10,6,2,-1,1,1,1,2
1530692507232764,-20,-1,-3,-1,2,-3,-5,-2
1530692507232764,1,-16,-4,0,2,23,7,2
1530692507232764,-1,-1,2,0,-16,-9,-2,-4
1530692507245736,6,5,3,3,3,-41,-16,-2
1530692507245736,-7,-2,-3,-1,2,5,4,-1
1530692507253709,15,10,3,0,1,-7,-4,-1
1530692507253709,0,-4,-1,2,1,19,6,6
1530692507268669,11,-3,0,-1,-2,14,3,0
1530692507268669,-14,2,2,-3,-1,-5,-3,0
1530692507269666,-9,0,-4,-1,-1,-24,-7,-8
1530692507269666,5,1,1,-1,9,48,-1,0
1530692507292605,24,5,-2,-2,-6,-6,-3,-1
1530692507292605,-8,-1,0,-1,4,6,1,5
1530692507292605,7,6,0,-3,-9,-11,1,6
1530692507292605,-14,-1,0,-4,4,-3,-3,-1
1530692507305570,20,4,-4,0,-3,18,10,4
1530692507305570,-4,-14,2,3,2,-5,-11,-5
1530692507314546,23,10,-2,-3,-3,-11,-5,-1
1530692507314546,-3,-4,1,3,5,-27,-5,-3
1530692507329506,-2,5,0,-2,10,44,1,3
1530692507329506,-13,-11,-3,0,7,62,9,-5
1530692507329506,-24,-3,-1,-4,-21,-59,-9,2
1530692507329506,4,1,0,2,1,-5,4,5
1530692507352445,27,3,-1,-2,2,-6,6,3
1530692507352445,-37,2,-2,-2,-13,-27,-8,-7
1530692507353442,8,-1,0,1,2,30,4,0
1530692507353442,4,2,0,-1,-2,-15,-4,-6
1530692507366408,-25,-14,2,-2,-1,-16,-10,4
1530692507366408,10,6,-2,1,5,6,7,-11
1530692507374386,-17,-11,-1,0,8,59,8,-2
1530692507374386,18,9,-2,-4,-6,-69,-1,2
1530692507389346,14,16,4,3,2,-13,4,5
1530692507389346,-21,-4,1,-2,-6,-4,-5,-1
1530692507390344,13,10,0,2,-3,4,-6,-6
1530692507390344,-22,-32,-3,2,4,25,6,-1
1530692507412290,-26,-11,-2,-3,0,-36,-13,-5
1530692507412290,22,17,2,0,-4,-14,-5,2
1530692507413282,-13,-8,-4,-3,2,-1,0,-5
1530692507413282,-2,1,-3,-2,0,9,-3,-3
1530692507435223,-10,-3,0,-2,-2,3,5,-4
1530692507435223,-2,-5,-5,-6,-2,-4,-1,-4
1530692507435223,4,3,0,0,-2,-11,-5,-5
1530692507435223,7,4,1,-2,-1,17,1,1
1530692507449186,-13,-7,-1,14,7,35,6,-2
1530692507449186,28,5,1,-3,-6,-7,-3,9
1530692507450183,-46,-6,-1,-4,-1,-3,2,-3
1530692507450183,19,4,3,5,-2,-10,-3,-1
1530692507472124,-24,-6,-3,-6,-10,-6,-2,-4
1530692507472124,34,15,-1,3,5,8,4,4
1530692507473122,40,10,-1,-1,2,-5,-2,6
1530692507473122,-43,-10,-4,-6,-4,2,-5,-3
1530692507495066,9,-2,0,-2,-3,1,-3,-5
1530692507495066,-19,-9,-2,1,-1,-5,1,-1
1530692507496061,7,6,0,-2,-4,-3,-1,-2
1530692507496061,2,0,-2,-2,0,6,-2,-4
1530692507509025,-11,-10,-2,0,2,-1,1,-6
1530692507509025,15,3,1,-2,2,-9,3,5
1530692507510024,3,3,1,4,2,4,-3,-6
1530692507510024,9,4,0,0,-2,-17,-4,0
1530692507531964,-8,1,-4,-7,-10,15,4,-5
1530692507531964,-16,-10,1,5,10,3,-1,-7
1530692507532962,35,4,-2,0,3,-1,1,1
1530692507532962,4,2,1,1,-5,12,1,-4
1530692507554903,5,9,2,-1,-2,-2,4,7
1530692507554903,5,0,-2,-3,-7,-8,-1,-2
1530692507555900,-16,-6,2,1,0,4,2,2
1530692507555900,11,8,-2,-1,1,-6,-5,-3
1530692507568866,20,-6,0,-2,3,0,1,3
1530692507568866,-1,11,2,-2,-8,8,4,6
1530692507569863,-6,-9,-2,0,3,-10,-4,-1
1530692507569863,0,4,0,-1,5,2,2,3
1530692507591804,-14,-7,-1,3,-5,-4,-2,0
1530692507591804,-11,-9,-1,2,-8,1,0,-1
1530692507592802,-7,-5,-1,-1,4,-9,-4,6
1530692507592802,22,7,-1,-3,3,1,1,0
1530692507614743,-1,3,-1,-1,3,0,1,-6
1530692507614743,-7,-3,-3,-4,0,-18,-7,-4
1530692507615741,35,6,0,-2,-3,31,8,9
1530692507615741,-36,-8,1,0,7,2,-2,-4
1530692507628706,28,3,-1,1,-9,-43,-13,-4
1530692507628706,-21,-4,1,2,-1,-4,6,-4
1530692507629704,-3,-14,-2,-4,-4,-10,-5,-2
1530692507629704,-6,-4,-2,-2,0,11,-3,-4
1530692507652641,39,17,-1,-2,1,15,4,10
1530692507652641,1,-11,-2,1,2,3,-4,-4
1530692507652641,-23,-2,-2,-1,-3,-3,3,-4
1530692507652641,9,0,-1,-1,-1,-5,-3,2
1530692507674583,-22,-7,-2,-1,0,0,-4,-4
1530692507674583,1,-2,-1,-3,-3,3,-1,2
1530692507675580,-7,9,3,2,1,-8,3,0
1530692507675580,20,-5,-3,-2,-2,25,2,5
1530692507689543,-19,4,-2,-2,5,16,3,-2
1530692507689543,-17,-3,-4,-3,-4,-26,-17,-5
1530692507689543,-10,-9,-1,2,-5,-12,2,-3
1530692507689543,-7,4,2,-1,-4,-23,3,1
1530692507712482,-16,-11,3,1,-6,-16,-14,-4
1530692507712482,44,16,0,1,4,17,16,11
1530692507713480,7,26,4,2,3,21,-2,-6
1530692507713480,-16,-30,-1,3,-2,4,-1,-2
1530692507734423,39,22,-5,-3,2,5,4,9
1530692507734423,-30,-10,1,-1,2,-4,-4,-2
1530692507735421,-3,-9,-1,-3,-5,-9,-4,-4
1530692507735421,-16,-6,-3,-3,-3,0,0,-3
1530692507749383,38,7,0,0,2,-6,-1,-4
1530692507749383,-82,-21,-2,1,3,-1,-4,-6
1530692507750380,34,11,-2,-1,-5,8,2,3
1530692507750380,-9,4,-1,-2,-2,-11,-6,-3
1530692507772321,-24,-10,-2,-2,-1,-10,-2,2
1530692507772321,32,5,0,-1,3,22,11,3
1530692507773319,-30,-15,-2,0,-5,-29,-11,-9
1530692507773319,4,9,2,1,7,1,1,4
1530692507795261,11,-4,0,-2,-13,-5,2,-3
1530692507795261,-9,1,-1,-2,-1,6,1,-8
1530692507795261,16,20,6,1,2,-20,0,3
1530692507795261,41,-11,-7,-1,-2,21,6,10
1530692507809223,-43,-12,-1,0,2,-4,-5,-14
1530692507809223,6,-1,0,-2,0,5,1,-1
1530692507810221,-19,-10,-5,-1,-1,0,0,-6
1530692507810221,5,32,5,1,-6,-15,-4,-2
1530692507832161,4,-37,-3,-1,3,15,8,11
1530692507832161,13,9,2,0,-3,-12,-4,-4
1530692507833159,10,-6,-8,-5,2,12,4,5
1530692507833159,16,10,1,0,-1,3,0,1
1530692507855100,-2,5,2,-1,-1,0,-4,-6
1530692507855100,1,-5,-2,-1,-3,-4,-8,-2
1530692507855100,1,-2,-3,-4,1,7,8,9
1530692507855100,-30,-20,-2,-6,-1,4,-4,-11
1530692507870060,28,29,-1,9,-2,-11,-4,1
1530692507870060,-16,-16,1,6,8,26,6,4
1530692507871058,-1,19,1,-2,5,-4,-7,-7
1530692507871058,-5,-11,-7,-10,-19,-7,-3,1
1530692507892001,-1,2,-3,-6,-9,2,5,3
1530692507892001,-2,-1,-2,0,1,-8,-6,-2
1530692507892999,-4,-11,-2,0,1,8,1,-2
1530692507892999,-15,-3,2,4,0,-13,-4,-8
1530692507914940,-36,-5,-5,-4,2,-3,-5,-5
1530692507914940,43,20,-1,0,-5,-4,4,9
1530692507915938,-1,-20,-1,2,0,0,1,2
1530692507915938,-23,0,0,0,0,-8,-8,-1
1530692507928903,-9,-2,-2,2,-1,10,8,-1
1530692507928903,13,12,1,-3,-1,-8,-6,-2
1530692507929901,-15,-8,-3,0,-1,4,-1,-2
1530692507929901,31,9,1,2,-4,-12,-3,2
1530692507951842,-13,-19,-2,0,5,4,4,2
1530692507951842,0,4,1,-6,-2,-5,-7,0
1530692507952839,16,-1,-2,0,0,-4,-4,4
1530692507952839,-6,2,2,-1,2,6,4,0
1530692507974780,9,4,1,-8,4,3,0,3
1530692507974780,-10,-10,1,30,-1,-13,1,-1
1530692507975778,1,0,-2,-4,-11,5,2,-3
1530692507975778,7,5,1,3,5,8,0,-1
1530692507988743,-5,2,3,6,1,-14,1,-1
1530692507988743,9,-7,-3,-14,2,18,4,0
1530692507989740,-53,-22,-1,2,-6,-2,1,-6
1530692507989740,29,34,3,3,1,-8,1,9
1530692508011682,-21,-13,-5,-13,-4,-4,-5,-5
1530692508011682,5,3,-4,1,-1,-3,-4,-7
1530692508012679,-1,3,2,3,1,2,1,-1
1530692508012679,-7,-15,-6,-6,1,8,-3,-3
1530692508034621,-8,3,3,2,-3,-8,-2,3
1530692508034621,23,9,1,-7,-5,-4,6,1
1530692508035618,-10,3,0,-5,1,11,-4,-6
1530692508035618,5,-17,-4,-2,1,-5,-2,2
1530692508048583,-12,3,3,9,5,6,-3,-1
1530692508048583,-5,11,-1,-6,-6,-3,-2,2
1530692508056561,74,4,-2,-4,-5,-20,-2,4
1530692508056561,-19,2,3,4,1,18,3,2
1530692508071521,-5,-11,-4,-6,-3,7,3,-1
1530692508071521,-1,0,-7,-5,-4,-12,-2,2
1530692508072519,-15,-12,-2,5,2,22,8,-3
1530692508072519,9,5,-1,-4,1,-11,-2,4
1530692508094460,-24,-3,-1,-4,-1,2,-6,-5
1530692508094460,-9,-17,-1,-1,-7,-9,-2,3
1530692508095458,19,27,3,0,0,24,5,3
1530692508095458,25,-5,-1,2,0,-19,-6,4
1530692508108423,-32,0,1,0,6,2,4,-1
1530692508108423,34,4,0,-2,-5,-4,-2,-3
1530692508116401,-56,-12,0,-2,1,-6,-4,1
1530692508116401,-7,-2,-1,-5,-5,2,3,-8
1530692508131361,23,3,-3,-3,0,14,7,1
1530692508131361,-11,-8,-4,-3,4,-1,-4,-4
1530692508132359,-12,-8,-1,0,0,-17,-7,5
1530692508132359,-3,1,-3,-3,-3,1,0,-4
1530692508154300,6,-5,0,-1,-2,-6,-8,-6
1530692508154300,-20,9,1,15,6,9,6,-4
1530692508155297,63,-4,-3,-6,-7,-34,-17,4
1530692508155297,-73,-14,0,2,0,2,6,-10
1530692508168263,42,7,-1,0,-3,-8,-6,3
1530692508168263,5,-6,-1,-4,1,5,-1,4
1530692508176241,-2,16,1,1,3,12,-2,-4
1530692508176241,24,-2,-2,1,-3,0,13,16
1530692508191201,-12,-3,2,1,-1,15,9,2
1530692508191201,-2,4,0,-4,-4,-30,-18,-12
1530692508192199,-23,-14,-3,-1,1,-17,-4,-5
1530692508192199,2,-1,-1,1,9,46,2,-6
1530692508215137,11,8,-2,-5,-17,-20,-2,2
1530692508215137,4,-5,2,-2,2,2,0,5
1530692508215137,-7,-5,-7,-1,-1,-3,3,-8
1530692508215137,18,13,2,-10,-8,16,-7,7
1530692508228103,-23,-6,-3,2,1,-45,-5,-8
1530692508228103,62,-1,4,7,10,27,13,15
1530692508237078,-21,-1,-2,19,-6,7,-3,-13
1530692508237078,-13,-15,0,0,1,-4,4,0
1530692508252039,25,9,-3,-6,1,-9,-13,0
1530692508252039,-21,-3,0,-6,-7,-5,-2,-4
1530692508252039,-30,3,4,-5,4,4,0,-1
1530692508252039,37,-7,-3,0,-2,-21,0,11
1530692508274977,-26,-5,1,7,5,24,4,-7
1530692508274977,-20,-12,-4,-9,-3,-13,-13,-9
1530692508275975,71,32,2,-2,0,17,4,10
1530692508275975,-44,-21,-5,3,-5,-25,-7,-8
1530692508296919,31,3,-3,-3,-2,11,13,2
1530692508296919,-16,19,2,0,2,6,8,6
1530692508297916,13,-20,-1,-6,-1,-1,-2,-6
1530692508297916,9,23,4,12,9,-11,-6,8
1530692508311879,20,2,-2,-7,-9,-8,-19,-3
1530692508311879,-40,-32,-9,-8,-10,-2,7,-3
1530692508312876,1,6,-1,16,4,-6,1,2
1530692508312876,0,10,-1,-4,0,7,1,-10
1530692508334818,-30,-18,-3,-4,0,6,-5,-14
1530692508334818,12,7,-1,0,-2,-3,-7,-4
1530692508335815,-45,-19,-1,-13,-3,-9,-3,5
1530692508335815,34,22,1,4,1,1,4,4
1530692508357756,7,6,-3,1,-4,-1,-5,-2
1530692508357756,-4,-6,-2,-3,1,-10,-7,-7
1530692508357756,-4,-4,-4,-7,1,17,11,8
1530692508357756,-15,-6,-1,-2,-8,-4,-3,-5
1530692508371719,8,4,4,0,1,15,8,6
1530692508371719,-10,2,-3,-1,-2,30,0,-3
1530692508372716,-9,9,2,-4,-3,-14,-7,-1
1530692508372716,10,-16,-4,-4,-3,-59,-16,-5
1530692508394658,10,-18,-9,7,2,-3,-12,2
1530692508394658,-13,20,4,4,2,20,12,6
1530692508395655,-14,-12,-3,-3,-3,3,-2,-8
1530692508395655,-8,1,1,-2,0,13,1,-4
1530692508417596,50,4,6,-1,-2,-3,-2,4
1530692508417596,-30,-10,-8,-2,-3,-29,-9,-8
1530692508417596,-22,-10,-2,-4,-4,7,-2,-5
1530692508417596,17,11,1,0,5,9,-3,-4
1530692508431559,-17,-4,0,-5,-11,18,12,8
1530692508431559,15,19,2,6,7,22,-9,-4
1530692508432556,13,-14,-3,-3,-9,-60,2,7
1530692508432556,-56,-35,-5,-17,0,11,-4,-7
1530692508454497,0,13,3,19,4,-15,3,3
1530692508454497,30,5,0,2,3,15,-7,7
1530692508455496,5,9,-1,-1,-1,11,4,-4
1530692508455496,0,-5,-2,0,-3,10,6,3
1530692508478433,-26,-2,-2,-8,1,-14,-3,-5
1530692508478433,-11,-9,3,-3,-4,-18,2,3
1530692508478433,66,16,0,0,5,59,4,19
1530692508478433,-60,-16,-2,-1,-7,-50,-2,-5
1530692508491399,26,9,-3,-3,-3,-16,4,-1
1530692508491399,-30,-9,0,13,1,-3,0,-3
1530692508492396,3,-13,-5,-5,1,-19,-8,-5
1530692508492396,-17,3,-3,-5,8,36,8,-2
1530692508514337,0,5,1,-4,-4,41,3,8
1530692508514337,-3,-1,-1,9,-2,-13,7,-5
1530692508515335,-1,-1,-1,0,-3,-18,-5,-6
1530692508515335,-9,-9,-3,0,0,31,-8,-3
1530692508537276,-35,0,-2,-2,3,-20,-7,-16
1530692508537276,27,1,-1,-9,0,28,4,8
1530692508538273,-5,9,-1,-5,-8,-56,-7,-6
1530692508538273,3,-13,-4,0,4,24,3,-6
1530692508551238,3,7,0,3,-4,-15,-23,2
1530692508551238,5,-14,-1,7,1,2,7,3
1530692508552236,2,5,3,3,5,18,6,3
1530692508552236,-2,-2,-1,0,-1,-2,-1,-2
1530692508575174,6,6,1,-2,-6,-19,-1,-3
1530692508575174,9,2,-2,-13,-1,13,0,4
1530692508575174,-31,-16,-3,0,3,-5,-10,-12
1530692508575174,14,20,7,9,-8,1,0,13
1530692508597116,18,15,0,-4,-11,-5,6,-8
1530692508597116,-17,-35,-6,-4,-1,-10,2,1
1530692508598113,3,6,-1,-5,0,11,7,6
1530692508598113,18,-2,-3,-5,-3,-16,-10,-7
1530692508620054,-21,-13,-3,7,12,22,8,2
1530692508620054,5,6,2,-5,-8,3,-2,6
1530692508621052,5,0,0,2,5,-33,-1,-1
1530692508621052,-4,-3,0,3,-1,-15,3,3
1530692508635015,13,-1,-1,-4,-2,2,3,5
1530692508635015,-2,1,-6,-8,0,11,-1,-9
1530692508636012,-8,1,4,-1,2,16,-7,-2
1530692508636012,19,0,-2,15,4,3,2,-2
1530692508656956,-45,-3,-2,-18,-9,-2,-2,0
1530692508656956,3,6,-1,3,-7,-21,1,-3
1530692508657954,-32,-21,-5,0,-9,-46,9,2
1530692508657954,40,16,3,7,5,22,-10,-6
1530692508671916,-43,-7,0,17,12,-47,-2,-3
1530692508671916,36,4,0,-6,2,-3,-4,-5
1530692508671916,-52,-20,-1,-10,-2,39,3,-6
1530692508671916,69,29,-1,-13,-7,-19,5,15
1530692508694854,-26,-26,-6,-3,1,25,3,0
1530692508694854,-6,5,1,-8,-2,-24,-9,-5
1530692508695852,23,9,3,5,1,4,1,1
1530692508695852,-14,-12,-1,-3,-4,-8,-4,-4
1530692508716796,16,3,0,0,4,18,-3,0
1530692508716796,-9,-6,-6,-1,-5,11,7,0
1530692508717793,-6,2,-5,1,4,9,-13,-8
1530692508717793,-15,-6,0,0,-6,-22,-9,-2
1530692508731756,17,4,2,-4,-13,-30,3,-1
1530692508731756,-36,-5,2,-1,2,-17,1,3
1530692508732753,51,12,-3,6,7,22,2,9
1530692508732753,-13,7,-4,-8,-7,-18,7,1
1530692508754694,20,-4,0,2,8,22,7,-3
1530692508754694,-27,-15,1,-1,-2,-10,-13,0
1530692508755692,-9,3,0,2,-5,-2,-1,-4
1530692508755692,14,10,3,1,5,24,5,-1
1530692508777635,14,-11,-7,-6,1,10,5,9
1530692508777635,-24,0,-1,-2,-6,-14,-9,-11
1530692508777635,11,6,5,0,1,9,2,4
1530692508777635,-27,-17,-3,-1,0,0,-1,-3
1530692508791596,27,33,1,0,-3,6,-8,-13
1530692508791596,-2,-39,-8,-4,0,-5,-2,2
1530692508792593,-13,9,2,0,0,3,0,-2
1530692508792593,1,3,0,1,3,-8,-1,4
1530692508814534,-11,-1,0,0,-4,24,6,-5
1530692508814534,8,2,-1,0,-4,-26,-23,-7
1530692508815532,18,-2,1,2,-10,-2,7,10
1530692508815532,-7,3,-1,1,0,5,2,-1
1530692508837473,38,17,-2,-3,5,4,2,6
1530692508837473,-1,1,1,-2,0,20,4,-3
1530692508838471,-55,-21,-2,-7,1,9,-1,-3
1530692508838471,36,24,3,11,-2,-6,-1,6
1530692508851435,-19,-16,0,3,-2,-12,-8,-5
1530692508851435,15,7,-5,-1,2,7,4,2
1530692508852433,23,3,0,-3,-2,0,-3,-3
1530692508852433,-4,-1,-2,-7,-3,0,10,10
1530692508874374,-28,-19,-2,0,2,-6,-7,-13
1530692508874374,11,2,2,5,2,0,2,0
1530692508875372,6,15,0,0,0,-3,-1,-6
1530692508875372,-24,-23,-2,-1,-4,-5,-2,-4
1530692508897313,18,1,-1,-1,5,-8,-4,7
1530692508897313,-7,5,0,0,-3,26,6,-4
1530692508898310,10,3,-2,-2,-7,-1,-1,-8
1530692508898310,1,-2,2,-2,1,4,-10,-5
1530692508911276,-50,-17,0,-1,1,14,11,4
1530692508911276,77,23,2,4,5,-7,-5,10
1530692508912274,-7,9,0,1,0,15,11,6
1530692508912274,-14,-10,-5,-4,-1,-4,-3,-7
1530692508935212,-17,3,-1,0,-1,-6,-5,0
1530692508935212,-8,4,-1,-1,-2,2,-3,-8
1530692508935212,-16,-8,0,0,-2,-8,-2,-1
1530692508935212,9,-4,-1,-4,-1,-3,-4,-3
1530692508957153,33,23,2,2,-1,-2,2,7
1530692508957153,-9,-2,-1,-2,-3,-7,-1,0
1530692508958151,-31,-8,-3,-1,-3,-18,-5,2
1530692508958151,-3,6,-1,-1,1,17,1,-7
1530692508971115,-23,-22,-1,-5,-2,7,0,-2
1530692508971115,20,5,1,1,7,-5,-3,-4
1530692508972113,-28,-3,0,-1,-9,-20,-6,-4
1530692508972113,-2,-2,-3,-4,-8,49,15,3
1530692508995052,4,-4,-4,-3,-5,-23,-13,-4
1530692508995052,-16,-1,0,0,5,12,5,3
1530692508996049,27,9,0,-1,0,-10,-5,-4
1530692508996049,-18,-10,-1,-5,1,-12,-4,-1
1530692509016993,-1,-4,1,-5,0,5,-1,-2
1530692509016993,1,6,3,1,2,-2,2,-2
1530692509017990,40,11,-1,-2,3,10,0,11
1530692509017990,-28,-19,-3,2,-1,-10,-2,-11
1530692509039932,31,13,0,-5,-1,-2,-2,4
1530692509039932,-22,-9,-2,-5,-3,-11,-2,-2
1530692509040929,14,-4,0,9,2,12,2,-2
1530692509040929,9,11,1,-2,-2,-15,-5,-1
1530692509054892,-3,2,0,1,0,2,-1,-5
1530692509054892,28,-4,-5,-2,-5,-3,1,8
1530692509055889,-39,-13,-1,-5,-3,-8,-1,-5
1530692509055889,18,4,-5,1,1,8,1,-4
1530692509077831,-23,-14,-1,2,-4,-10,-8,-3
1530692509077831,-3,16,2,1,-4,-5,1,4
1530692509077831,17,-7,-2,-5,10,11,-1,-2
1530692509077831,-3,-1,-2,-1,-10,4,4,1
1530692509090795,15,17,3,-3,5,-17,-6,-3
1530692509090795,-13,-6,0,1,-7,4,7,5
1530692509098774,3,-10,-3,0,0,-6,-2,0
1530692509098774,-9,3,4,0,0,-13,-8,0
1530692509113734,9,-1,1,3,1,8,5,-2
1530692509113734,-6,4,-3,-2,-2,-6,-3,-4
1530692509114732,5,-7,-2,-3,0,4,1,3
1530692509114732,-7,0,0,-3,0,-12,-3,-11
1530692509137670,-11,-2,2,-4,-2,11,4,6
1530692509137670,-12,2,5,16,2,-4,-4,-6
1530692509137670,-1,-12,-11,-3,-7,-1,-8,-5
1530692509137670,-12,5,0,0,7,15,8,6
1530692509150636,-2,-1,-3,-1,-3,-8,0,4
1530692509150636,-17,-4,-2,-5,-2,3,-1,-11
1530692509159612,-33,2,2,0,-1,-4,-1,-5
1530692509159612,57,16,-2,-5,-3,2,-2,7
1530692509174571,-16,-8,-4,-21,-2,-8,4,-4
1530692509174571,5,7,6,31,10,-15,-6,1
1530692509174571,25,2,-4,12,8,35,6,-3
1530692509174571,-38,-5,-1,-3,-12,-33,-17,0
1530692509197510,17,8,2,-2,-5,4,7,4
1530692509197510,-12,-17,-2,-15,1,19,4,-2
1530692509198508,15,5,-1,-3,0,-7,4,-1
1530692509198508,6,-4,0,0,2,19,5,-1
1530692509211473,-3,2,-2,3,-3,-2,0,-2
1530692509211473,3,3,1,-7,-9,-15,-8,-2
1530692509219451,-17,-7,-3,-1,0,9,2,3
1530692509219451,-17,-11,0,-1,0,-13,-9,-8
1530692509234411,43,15,-2,2,0,-8,-6,5
1530692509234411,5,-13,-4,-3,0,-2,3,2
1530692509234411,-5,20,7,-3,-4,4,2,4
1530692509234411,-5,-7,-4,-1,3,-3,0,-2
1530692509257350,4,-19,-4,5,-9,-10,-4,-3
1530692509257350,0,9,-1,-4,-4,-10,0,2
1530692509258348,5,-6,0,-3,-4,-15,-4,-7
1530692509258348,3,12,2,4,2,11,8,4
1530692509271313,-23,6,-3,2,8,17,-2,0
1530692509271313,-8,-14,-4,-11,-13,2,-5,-2
1530692509279291,-5,0,5,6,-2,-6,-5,-1
1530692509279291,-21,-14,-5,-5,2,-17,-5,-5
1530692509294252,-2,1,-2,6,3,15,8,3
1530692509294252,24,10,-1,-2,1,-2,3,0
1530692509295249,-1,4,1,-9,-2,-11,-10,2
1530692509295249,-3,11,3,3,-3,5,-1,-1
1530692509317190,14,-20,-1,1,3,1,-2,2
1530692509317190,-9,-9,-7,-8,-1,2,-3,-6
1530692509318188,-15,-16,-2,0,-3,-2,3,-2
1530692509318188,38,22,0,0,-1,4,4,2
1530692509340129,-39,-21,-3,2,-2,13,1,-1
1530692509340129,5,3,3,1,-2,-37,-10,-1
1530692509340129,-3,17,0,-2,9,26,1,4
1530692509340129,10,-15,-5,-1,-14,-21,-3,3
1530692509354091,-10,-2,1,2,0,2,0,-7
1530692509354091,0,-2,-2,1,0,-3,3,-5
1530692509355089,-2,-7,-5,-3,-1,18,-1,-5
1530692509355089,-1,-6,-2,-4,0,7,-7,-5
1530692509377030,9,17,3,2,-3,-5,3,0
1530692509377030,-58,-24,-4,1,2,10,2,-5
1530692509378028,17,0,0,-3,-2,-12,-1,4
1530692509378028,5,7,1,0,-2,-9,-2,3
1530692509399969,-19,2,3,-1,1,1,-2,0
1530692509399969,40,13,-5,-4,1,-4,1,8
1530692509400967,-6,-3,-4,-1,-1,9,5,-5
1530692509400967,-23,-11,1,3,0,-18,-1,-6
1530692509413931,10,-4,-1,1,3,-10,-8,2
1530692509413931,13,13,3,-2,1,10,1,1
1530692509414929,-8,-4,1,-1,-4,-5,0,2
1530692509414929,9,-8,-2,-2,4,6,3,-1
1530692509436870,-4,0,-2,-2,-2,-7,-4,-5
1530692509436870,19,-4,-2,0,1,11,3,0
1530692509437867,-11,9,1,0,1,-15,-6,4
1530692509437867,-15,-8,-4,-1,-9,7,5,0
1530692509459809,12,13,3,-1,-4,-3,-1,-2
1530692509459809,7,-11,-4,2,1,3,-9,1
1530692509460806,-20,-11,-1,0,-2,-13,-4,-8
1530692509460806,43,27,2,1,10,-2,5,12
1530692509473772,-4,-11,-4,-3,-5,6,2,-3
1530692509473772,-22,-9,0,1,1,-6,2,-3
1530692509474769,20,6,0,-1,-2,-16,-3,-2
1530692509474769,-3,-7,-2,1,3,9,1,1
1530692509497708,-2,-6,-3,-3,-1,7,4,-1
1530692509497708,10,13,1,-3,-1,0,-3,-6
1530692509497708,-4,-8,-2,-4,-4,-12,-7,-3
1530692509497708,2,1,1,0,3,10,9,-1
1530692509519649,-8,2,0,2,2,-9,-1,-1
1530692509519649,-14,-11,-2,-2,-5,-8,1,0
1530692509520646,-6,-3,1,-1,-3,-3,-1,-1
1530692509520646,28,9,-2,-5,0,2,-2,-2
1530692509542587,-25,-18,-3,0,-1,-13,-10,-5
1530692509542587,12,10,5,-2,4,19,5,2
1530692509543585,4,-11,-8,-6,-8,-3,0,-2
1530692509543585,-15,-3,0,8,-2,1,0,-3
1530692509557547,-23,8,2,4,0,-9,-2,-7
1530692509557547,43,-2,-7,-4,1,7,6,6
1530692509558545,-23,7,6,0,2,9,1,-1
1530692509558545,7,-4,0,-4,0,-5,-6,1
1530692509579489,-1,1,-3,-2,0,17,0,5
1530692509579489,-16,1,0,0,-11,-26,-6,-1
1530692509580486,18,1,-3,3,1,17,4,-4
1530692509580486,-33,-19,-2,2,1,5,9,-2
1530692509594449,17,3,1,-1,-3,-16,-4,1
1530692509594449,20,18,3,0,-1,-15,-5,1
1530692509594449,-8,-10,-3,-1,-1,-12,-1,5
1530692509594449,-22,-4,-1,0,1,5,-5,-14
1530692509617387,6,2,0,-3,-1,-4,0,1
1530692509617387,-21,-9,-4,-1,-1,23,3,-4
1530692509618385,17,7,4,4,4,-3,-1,2
1530692509618385,1,9,-3,-3,-2,1,-3,3
1530692509639328,-14,-14,0,0,1,-3,0,-2
1530692509639328,3,5,3,1,-4,-8,4,1
1530692509640326,18,-9,-4,0,4,-10,-6,2
1530692509640326,-9,-14,-6,-6,5,10,-2,-3
1530692509654289,1,-1,-1,1,1,-3,-15,-4
1530692509654289,-21,7,3,12,-4,36,18,4
1530692509655286,-1,-5,-2,-3,-7,-26,-7,-12
1530692509655286,7,-3,-4,-5,-3,12,2,2
1530692509677228,34,22,2,-4,4,17,-11,6
1530692509677228,-12,-8,-2,-2,9,-30,3,-5
1530692509678225,-32,4,0,3,-3,18,3,3
1530692509678225,2,-6,1,4,2,-1,-3,-1
1530692509700166,-8,-5,-3,-4,-4,2,7,-2
1530692509700166,20,18,3,-9,-2,-4,-11,0
1530692509700166,2,-11,-4,8,5,-1,4,4
1530692509700166,-5,14,3,11,-2,-16,5,-7
1530692509714129,1,-3,0,2,-2,-17,3,11
1530692509714129,-13,-6,-3,0,-3,11,-7,-5
1530692509715126,9,7,-2,-9,-3,4,2,-5
1530692509715126,0,-6,0,-1,-4,-8,-3,1
1530692509737067,-29,5,2,5,-1,-12,-6,-5
1530692509737067,8,-3,1,-2,-1,-11,4,8
1530692509738065,11,4,0,-2,3,16,1,1
1530692509738065,2,-3,-2,-5,4,-10,-10,-3
1530692509760006,4,-5,-1,1,-8,-1,14,-2
1530692509760006,-15,-8,-2,-7,4,6,-6,4
1530692509761003,5,8,1,-1,0,-4,-4,-1
1530692509761003,-7,-7,0,6,-3,-8,-2,2
1530692509773969,25,-1,-4,-1,11,-27,2,1
1530692509773969,-21,8,-1,3,-11,14,6,0
1530692509774966,72,0,1,-3,-8,4,3,13
1530692509774966,-41,13,1,-9,-1,-1,-1,-2
1530692509797905,26,2,-1,-1,-4,15,0,0
1530692509797905,-8,2,-2,0,5,2,0,-6
1530692509798902,-25,-27,-6,-3,5,-8,-3,-9
1530692509798902,32,18,3,-1,-6,5,-2,6
1530692509819846,-40,-31,-8,-3,0,5,4,4
1530692509819846,9,5,0,0,0,-6,-14,-10
1530692509820844,0,17,3,1,-2,14,6,0
1530692509820844,13,-7,0,0,1,-9,-7,-8
1530692509833809,-14,0,-1,-2,-1,8,-1,-3
1530692509833809,24,0,-3,-4,-2,-11,1,12
1530692509834806,-9,2,0,0,-2,-3,-4,-6
1530692509834806,-30,-14,-4,-2,2,-6,3,-2
1530692509857744,23,9,1,-1,-8,-3,-3,0
1530692509857744,6,-5,-3,-1,-4,-5,2,-3
1530692509857744,-22,-3,0,-1,-3,-13,1,-2
1530692509857744,29,3,0,1,1,11,1,3
1530692509879686,-59,-9,-3,-3,1,4,1,-10
1530692509879686,35,13,3,4,4,0,-2,2
1530692509880683,-53,-14,1,-1,-1,8,-2,4
1530692509880683,9,-4,-3,-2,-7,-4,0,-2
1530692509893648,9,5,-2,0,1,-9,2,-3
1530692509893648,-45,-19,2,-3,13,25,-1,-1
1530692509894646,48,30,1,9,-7,-16,6,3
1530692509894646,0,-1,0,-4,2,19,3,7
1530692509917584,20,3,-1,-3,-3,3,2,-1
1530692509917584,-8,-3,0,1,1,-6,-2,-3
1530692509918582,-10,-9,-5,-6,-1,-5,-3,3
1530692509918582,-2,-6,-2,0,-4,-9,-2,2
1530692509939526,13,6,-1,-1,2,-3,-6,-2
1530692509939526,-20,-11,-2,-2,-4,9,5,0
1530692509940523,29,11,0,-2,-8,-29,-8,-4
1530692509940523,-34,-21,-4,0,-2,-8,4,-3
1530692509953488,41,20,3,0,4,11,4,5
1530692509953488,1,1,0,1,1,-6,1,6
1530692509961467,20,7,-3,-3,2,4,-5,-3
1530692509961467,-36,-1,-2,-3,-6,-4,-6,-4
1530692509977425,-30,-18,0,0,2,19,4,-4
1530692509977425,30,14,-1,1,-2,0,6,4
1530692509978422,-18,0,-2,-1,0,4,-2,-2
1530692509978422,29,-6,-3,-1,-3,-18,-6,1
1530692509999366,-14,-5,-1,-1,-5,0,-3,-1
1530692509999366,-6,-8,-4,-2,-6,-2,-6,-6
1530692510000363,-14,2,1,1,1,4,-1,-5
1530692510000363,21,13,1,-1,0,-2,-3,3
1530692510013328,4,-8,-1,1,-1,0,0,-3
1530692510013328,-23,-18,-5,-1,-1,-4,0,-5
1530692510021307,5,3,3,1,9,3,-3,7
1530692510021307,-6,0,0,1,-9,14,4,-4
1530692510037264,14,4,1,-2,0,-1,1,2
1530692510037264,-11,-3,-1,-3,-6,-19,-7,-4
1530692510038262,-18,-9,-2,0,3,30,5,-4
1530692510038262,16,7,0,1,0,-1,4,4
1530692510060203,-25,-5,2,1,-2,-3,-4,-1
1530692510060203,16,23,1,-2,-1,-1,-5,-6
1530692510061201,31,-11,1,-2,-2,-1,4,2
1530692510061201,-36,-6,-2,-1,1,0,3,10
1530692510073168,-5,-7,-3,0,-3,-3,-5,-9
1530692510073168,-15,-8,0,3,2,1,3,1
1530692510082144,-11,8,1,0,-5,-5,-5,-7
1530692510082144,19,7,-1,-2,2,-4,-3,-4
1530692510096107,22,-6,-2,-1,0,-3,1,4
1530692510096107,30,5,0,-2,-1,-2,2,12
1530692510105083,-13,-10,-3,-2,-4,-3,-2,-9
1530692510105083,-14,-6,-1,1,0,-5,-12,-13
1530692510120043,9,6,-3,-3,6,3,0,-1
1530692510120043,-1,-3,0,0,-4,-6,0,-1
1530692510121041,-1,7,1,-2,-3,-14,-2,2
1530692510121041,-18,-22,-3,-5,2,55,16,0
1530692510133008,42,20,-1,3,-3,-33,-18,1
1530692510133008,-27,-17,-2,-1,2,-4,-4,-3
1530692510142982,22,29,1,1,4,-2,10,9
1530692510142982,-18,-31,-7,-2,-3,-11,-5,-5
1530692510155947,-18,2,1,-2,0,20,7,-1
1530692510155947,-3,-4,-2,-4,-3,-4,-4,8
1530692510164923,-7,0,1,5,-2,-5,-4,-6
1530692510164923,34,19,1,-3,1,-7,1,8
1530692510179883,-27,-18,-4,-3,-4,1,-1,-7
1530692510179883,4,0,-3,0,-1,-8,-3,-11
1530692510181878,-14,-10,0,-1,1,8,1,4
1530692510181878,66,37,2,0,3,-7,-1,5
1530692510193846,-43,1,1,-1,-1,0,-2,3
1530692510193846,5,6,3,2,-2,7,2,-3
1530692510202822,-8,-17,-3,-5,-4,-12,-4,-5
1530692510202822,-12,-3,2,4,5,1,1,-2
1530692510215787,6,5,1,-5,-8,-5,4,1
1530692510215787,-8,-4,-3,-3,0,6,3,-4
1530692510224763,1,-6,-5,2,0,4,-3,-4
1530692510224763,-30,-2,1,-1,4,-17,-2,0
1530692510239723,5,-5,-2,0,-4,-14,-12,-8
1530692510239723,-2,4,4,1,1,11,5,4
1530692510241718,19,0,-3,-6,-2,-5,-1,4
1530692510241718,19,38,2,-1,-1,-2,-3,-8
1530692510253686,-41,-57,-8,6,2,10,5,2
1530692510253686,-2,-3,-7,-3,-2,-7,-2,0
1530692510262662,-19,-4,0,1,1,14,0,-5
1530692510262662,-2,-11,-1,0,-5,-4,-5,5
1530692510275627,24,15,6,-2,0,-7,3,-2
1530692510275627,1,-2,2,0,-1,-2,-4,-2
1530692510284603,-4,-14,-8,-3,2,9,3,1
1530692510284603,-26,-15,-6,-8,-6,-16,-1,-6
1530692510299563,22,13,1,1,1,13,-1,-2
1530692510299563,12,14,4,2,2,-2,-1,-2
1530692510301559,-18,-13,0,-4,-2,-1,-2,1
1530692510301559,-9,-16,-1,3,6,10,2,-2
1530692510322501,13,18,1,-2,-10,-24,-5,1
1530692510322501,7,-10,-1,0,-2,7,4,1
1530692510323499,-26,7,2,-2,-1,-5,1,-4
1530692510323499,21,2,2,5,-2,-10,-5,3
1530692510336464,2,1,0,1,5,9,-1,-7
1530692510336464,-23,12,0,-2,0,7,-4,-2
1530692510345441,59,6,-4,-3,-3,-4,4,10
1530692510345441,-25,-17,-5,-3,-1,2,0,-2
1530692510359403,19,14,1,-3,2,3,-2,0
1530692510359403,-9,-16,-3,-1,1,-3,0,0
1530692510361399,-19,-4,-1,1,-4,0,-4,-6
1530692510361399,-2,8,-2,-4,-4,-6,-2,-6
1530692510382342,-18,-13,-6,-4,-1,-1,0,0
1530692510382342,21,6,0,1,-3,-6,-1,4
1530692510384336,-4,2,2,1,3,4,4,3
1530692510384336,6,-6,0,-1,-1,1,-1,-4
1530692510396304,-34,-6,-1,-1,-1,2,0,3
1530692510396304,4,3,-1,-4,-2,-21,-4,-5
1530692510405280,2,0,-3,-1,-1,14,-3,-5
1530692510405280,3,-3,0,0,-2,24,4,-1
1530692510420240,-8,3,-1,-6,-3,-25,-16,-4
1530692510420240,12,-11,-1,-7,5,6,3,0
1530692510421238,-1,5,-2,16,1,-5,0,0
1530692510421238,-8,0,-1,2,-7,6,6,-4
1530692510442181,-29,-6,1,-3,8,24,-1,4
1530692510442181,28,6,-3,0,-20,-19,-8,-2
1530692510444177,-18,-4,0,-10,-6,-6,-3,3
1530692510444177,19,2,-2,5,4,-3,-4,0
1530692510456144,19,15,1,1,-1,-8,7,1
1530692510456144,-68,-32,-7,-5,5,22,-5,-8
1530692510465120,36,12,0,-3,1,-6,-4,0
1530692510465120,-22,-9,-2,2,-2,-13,-1,-4
1530692510480080,4,15,3,3,-3,1,3,0
1530692510480080,26,-19,-7,3,1,0,2,3
1530692510481078,23,13,1,-3,-2,4,6,2
1530692510481078,-18,-6,-3,-4,-1,-14,-13,1
1530692510502022,0,-5,0,1,0,-7,-2,-5
1530692510502022,-14,4,1,0,1,11,8,-4
1530692510504017,0,-3,3,3,4,-12,-9,1
1530692510504017,6,-3,-2,-2,-2,0,-2,0
1530692510515985,13,-1,-3,-4,-4,1,1,3
1530692510515985,1,10,1,1,7,8,-2,-3
1530692510524961,-23,-14,-5,-2,-5,-24,-1,0
1530692510524961,7,16,6,4,0,12,7,2
1530692510539920,15,-4,-4,2,-4,7,3,4
1530692510539920,-14,0,-2,-8,-4,3,-3,-7
1530692510541915,-4,-8,1,-3,2,-2,-5,-7
1530692510541915,8,-1,0,-3,0,-10,-5,-4
1530692510561862,-20,-3,-2,0,0,11,6,0
1530692510561862,17,-2,7,1,1,-8,-2,2
1530692510563856,-3,4,-3,2,0,-14,-4,0
1530692510563856,4,4,-1,0,-7,-15,-2,2
1530692510575824,-3,-8,-4,1,0,8,-1,0
1530692510575824,7,14,0,1,1,-11,-4,-3
1530692510584801,-13,-15,-1,-2,4,13,6,-4
1530692510584801,22,4,1,-4,-3,23,10,2
1530692510599760,6,4,-3,-3,-5,-19,-6,-2
1530692510599760,-19,-1,-1,1,1,11,5,1
1530692510601755,-2,5,3,-1,3,-3,-6,0
1530692510601755,11,-4,-8,-8,-8,-17,-5,-1
1530692510622699,11,-7,2,-4,-1,4,6,-1
1530692510622699,-4,3,-2,1,-4,18,0,-2
1530692510623696,-10,4,2,9,6,1,-7,-4
1530692510623696,-11,-11,-3,-1,4,8,1,-1
1530692510635664,17,6,2,-4,-2,-4,4,9
1530692510635664,2,2,1,-5,-1,3,2,1
1530692510644640,-45,-2,-4,-4,-5,4,-1,-8
1530692510644640,-6,-1,3,0,1,-11,-6,-1
1530692510659600,-8,2,-1,2,1,10,0,-6
1530692510659600,21,4,0,2,0,-10,3,12
1530692510661595,4,-8,-5,-3,-4,-5,-1,-2
1530692510661595,-16,8,0,0,2,5,-1,-4
1530692510682539,37,-7,-3,1,1,-8,1,3
1530692510682539,-40,0,-1,3,-1,5,-2,-4
1530692510683536,17,0,-4,-4,-5,0,2,-1
1530692510683536,12,-1,2,-3,4,3,-2,-4
1530692510695504,-16,2,2,1,-1,-5,4,-2
1530692510695504,25,5,-8,6,-2,-23,-14,-3
1530692510705478,1,0,0,-3,-5,-7,-3,2
1530692510705478,4,3,2,4,5,10,2,5
1530692510719440,-6,-6,-1,-4,-2,5,-4,-6
1530692510719440,-8,-9,1,-8,-3,-6,-2,-3
1530692510721435,-6,-1,-3,0,6,-10,-9,3
1530692510721435,-13,-9,1,6,-2,1,16,-4
1530692510742378,-14,-1,-4,0,6,7,-2,-1
1530692510742378,18,3,5,-3,-2,8,6,7
1530692510744374,22,8,-3,-3,-6,-5,-1,1
1530692510744374,-10,-7,-2,0,-2,-8,-5,-2
1530692510756341,-14,-7,0,2,-2,7,0,-5
1530692510756341,-14,-1,-3,-2,0,-8,-1,-4
1530692510765317,35,6,2,-1,-3,13,3,0
1530692510765317,-7,-1,-3,-3,-3,1,1,3
1530692510780277,-19,13,2,2,-2,-17,-6,0
1530692510780277,11,-5,-3,-1,1,0,-2,2
1530692510781275,-17,-3,1,2,-2,14,6,-4
1530692510781275,3,-4,-4,0,-3,3,0,2
1530692510802219,14,-2,1,-2,-3,-11,-2,3
1530692510802219,-7,1,-2,-1,0,-18,-3,-1
1530692510804213,-22,-10,-3,-2,1,10,-4,-10
1530692510804213,9,5,0,-1,-1,13,1,0
1530692510816181,-5,-2,2,0,7,18,0,0
1530692510816181,19,7,0,1,-15,-15,-4,0
1530692510825158,-9,-7,-1,-1,-3,-2,4,4
1530692510825158,-11,-7,-2,-2,-2,-15,-9,-6
1530692510840117,9,19,2,0,1,9,-2,0
1530692510840117,-10,-26,-5,-5,2,2,3,0
1530692510841115,4,-3,0,8,0,-10,2,-1
1530692510841115,-5,0,-1,0,1,1,1,3
1530692510862058,0,-10,-2,-1,-4,-6,-3,-6
1530692510862058,-3,11,3,0,2,5,-2,-3
1530692510864054,16,3,-2,-8,-3,-21,1,1
1530692510864054,-1,-1,-2,-2,2,18,3,2
1530692510876021,8,2,2,4,1,8,6,5
1530692510876021,-10,-6,-1,-1,0,3,1,-8
1530692510884998,7,0,1,5,3,10,0,-2
1530692510884998,-19,11,1,-5,-4,-18,-2,4
1530692510899957,-10,-6,-4,-4,-4,-10,-5,-5
1530692510899957,2,-3,0,1,6,14,0,2
1530692510901952,-13,-5,0,-1,-9,-6,-1,-2
1530692510901952,-24,-7,1,2,1,-9,-4,-7
1530692510921899,36,6,-4,-3,-5,-13,0,4
1530692510921899,-11,-6,-2,1,2,-9,-6,-2
1530692510923893,-12,1,-1,0,3,7,1,-2
1530692510923893,27,-2,-2,-1,-1,0,-2,3
1530692510935861,-60,-22,-4,1,1,1,7,-1
1530692510935861,21,10,-1,0,-2,5,1,2
1530692510944838,-2,4,-3,-3,-1,-3,-3,-4
1530692510944838,-1,1,0,0,-1,-12,-6,-6
1530692510959797,14,3,0,2,0,30,0,1
1530692510959797,-8,-5,-2,2,1,-1,5,0
1530692510961792,0,3,0,-1,4,9,0,1
1530692510961792,-13,-3,1,-1,-1,15,2,-1
1530692510982736,18,1,-3,-2,-1,-30,-11,-3
1530692510982736,18,15,2,-1,-3,-1,1,3
1530692510983733,-19,-6,-6,-4,-3,2,1,1
1530692510983733,51,20,2,2,8,26,0,0
1530692510995701,-15,-13,-3,-2,-13,-10,-11,0
1530692510995701,13,11,3,0,-6,-10,-5,5
1530692511004678,-10,-2,0,0,3,-2,-4,-9
1530692511004678,14,-1,-1,-4,0,0,0,5
1530692511019637,-24,-16,-6,-5,-1,-19,0,-2
1530692511019637,-25,-5,-3,1,0,22,-7,-7
1530692511021632,26,7,-1,-2,1,16,14,4
1530692511021632,-7,6,1,-4,-4,0,1,-2
1530692511042576,3,2,4,1,-3,-36,-12,-2
1530692511042576,-12,-12,-6,-1,4,-2,1,-2
1530692511043574,3,7,0,-1,-1,27,2,3
1530692511043574,-4,-6,-2,1,1,-24,-12,-7
1530692511055541,-3,-2,0,-1,-6,24,10,2
1530692511055541,-8,-4,-1,-6,-3,-10,-3,-7
1530692511064517,3,-3,-4,-2,-5,-20,-9,3
1530692511064517,-5,-3,1,5,1,2,1,-4
1530692511079477,22,9,0,-5,4,7,-1,2
1530692511079477,-30,-5,0,2,2,10,19,-5
1530692511086458,26,4,1,-2,1,3,3,14
1530692511086458,1,0,-2,-3,-7,-24,-6,-6
1530692511102416,-6,17,4,5,6,-5,-1,-2
1530692511102416,11,-23,-5,-3,-2,8,-4,-8
1530692511104411,-22,2,-2,-2,0,-6,-3,-1
1530692511104411,-1,-4,3,1,-11,-17,-6,1
1530692511116379,7,-5,0,0,5,1,5,0
1530692511116379,20,12,-1,0,-1,-12,-5,5
1530692511125355,-12,-14,1,1,4,27,3,-4
1530692511125355,-18,1,-4,-2,-6,-13,-11,3
1530692511139317,5,2,-1,-1,4,23,10,-13
1530692511139317,-27,-12,0,-1,-12,-8,-3,-2
1530692511146298,14,8,2,2,2,-14,-9,-3
1530692511146298,19,12,4,-1,5,17,14,4
1530692511162256,-12,-14,-3,-4,-5,-7,-4,-2
1530692511162256,-17,5,-3,1,3,-4,-4,1
1530692511164251,8,-1,0,-3,-2,-3,-1,-2
1530692511164251,6,1,-1,-1,0,-1,1,-3
1530692511176218,12,-1,-1,-1,-1,-9,-5,0
1530692511176218,-15,1,-4,-2,0,6,-4,-2
1530692511185195,-10,-9,-3,-1,-4,-6,3,-5
1530692511185195,22,15,2,0,1,-8,4,10
1530692511199157,-2,-9,-3,0,1,0,2,4
1530692511199157,17,9,2,-2,-5,20,6,9
1530692511206138,-5,-4,0,1,0,-33,-14,3
1530692511206138,-13,-16,-4,0,10,0,-5,-4
1530692511222096,-32,3,1,-2,-19,-13,0,-3
1530692511222096,35,11,-2,-1,-2,-3,-2,5
1530692511224091,-17,1,-2,-3,-5,-3,-3,-10
1530692511224091,-22,-28,-3,-3,0,-11,-4,-3
1530692511245034,24,18,1,3,6,19,0,7
1530692511245034,-3,1,1,1,2,1,4,-2
1530692511246032,12,4,-3,-1,-4,1,5,1
1530692511246032,-5,5,-3,-2,-1,5,1,4
1530692511258997,-35,-3,-3,-3,-2,1,0,-4
1530692511258997,9,-12,-1,-2,-1,-9,-4,0
1530692511265978,-5,7,0,-1,2,-1,-1,-4
1530692511265978,7,-5,-5,-2,-3,2,3,1
1530692511281936,8,-5,0,2,3,3,-5,-4
1530692511281936,1,10,4,2,1,-16,-1,-2
1530692511283930,-3,-13,1,1,-3,8,3,3
1530692511283930,-1,3,-2,1,-1,-3,6,3
1530692511304874,3,-2,-1,0,5,35,5,1
1530692511304874,-4,-1,-2,0,5,-12,-3,-6
1530692511306869,9,1,-1,-6,-2,-24,-4,0
1530692511306869,-27,-9,0,3,-14,-9,-9,-8
1530692511318837,39,25,1,-1,1,0,6,7
1530692511318837,-39,-26,0,1,1,5,3,-1
1530692511325818,51,9,1,2,3,11,2,12
1530692511325818,-15,9,1,-2,1,6,9,-2
1530692511342773,-8,-4,-4,-5,-5,-9,-9,-9
1530692511342773,-24,4,4,2,3,1,5,1
1530692511343771,1,-25,-10,-4,-5,-2,-3,4
1530692511343771,-10,-5,2,2,-1,4,-2,-1
1530692511364714,-11,-7,-4,-4,-4,-8,-4,-12
1530692511364714,24,6,-2,-2,-3,-16,-4,2
1530692511366709,-12,-1,1,0,4,18,2,-7
1530692511366709,8,4,-1,-3,1,19,9,4
1530692511379674,0,-8,-1,1,2,-9,2,14
1530692511379674,7,3,0,-1,-2,-2,-5,-7
1530692511385658,-14,3,2,1,-2,1,-1,-5
1530692511385658,27,-1,-3,-1,-1,3,-7,2
1530692511402613,-31,-5,0,0,-1,-21,-2,5
1530692511402613,-34,-16,-1,1,4,3,-3,-8
1530692511403610,84,34,0,0,-9,4,7,8
1530692511403610,-45,-2,-1,-4,-1,-21,-11,-11
1530692511424554,14,-1,4,3,-1,9,1,5
1530692511424554,7,-8,-4,-2,1,5,-3,-8
1530692511426549,-42,-13,-3,-2,2,4,2,1
1530692511426549,46,3,2,3,1,-4,-1,2
1530692511438517,4,14,1,3,-1,-5,-5,-8
1530692511438517,8,-4,-6,-3,-3,5,2,4
1530692511447493,-16,-4,-1,-3,1,4,-2,-5
1530692511447493,10,1,-1,-2,-1,-11,-4,-1
1530692511462453,-9,-15,-1,-1,0,-5,0,6
1530692511462453,19,14,2,1,-1,38,10,5
1530692511464448,-18,-2,-4,-3,-6,-9,0,-6
1530692511464448,-9,-3,-3,3,10,-8,-3,-1
1530692511484394,4,4,1,-2,0,-16,-11,-1
1530692511484394,-4,-2,-1,-3,-2,-13,-12,-3
1530692511486389,8,13,7,2,-1,3,5,0
1530692511486389,-18,-23,-4,0,-1,13,7,6
1530692511498357,16,-5,-3,0,1,9,5,-6
1530692511498357,8,1,0,1,-2,-12,-6,-2
1530692511507333,-76,-10,-1,1,3,-4,-4,-5
1530692511507333,25,11,1,-2,-2,-1,0,2
1530692511522293,8,-3,-2,1,-2,-3,-1,-3
1530692511522293,-9,-2,-2,-2,-2,0,1,-4
1530692511524288,20,-8,0,2,2,-4,-3,-1
1530692511524288,24,24,-3,-6,-5,0,0,6
1530692511545232,4,-7,-7,-4,-3,5,-1,1
1530692511545232,-20,0,2,1,1,0,4,1
1530692511546229,9,-3,-2,-2,-2,-2,-3,-4
1530692511546229,-16,-10,1,0,-1,-1,-3,-9
1530692511558197,5,7,1,-2,0,2,3,0
1530692511558197,6,3,-1,-1,-1,4,-2,3
1530692511567173,5,-15,-4,-2,-4,-27,1,2
1530692511567173,4,7,3,1,3,33,-2,-3
1530692511583130,-29,-13,-3,-1,1,-3,-4,-7
1530692511583130,36,11,-1,-3,-6,-4,4,5
1530692511588117,-19,-17,1,1,0,1,-1,0
1530692511588117,18,18,1,0,-3,-8,0,2
1530692511605071,-20,-8,1,-1,-2,2,1,2
1530692511605071,2,-8,-3,-4,0,-7,-4,0
1530692511606069,-9,11,5,0,0,0,-2,-2
1530692511606069,-63,-26,-7,-3,-2,-2,-1,-11
1530692511618037,70,25,2,-1,1,0,1,9
1530692511618037,-14,-6,-2,-1,0,-4,2,-2
1530692511627013,0,-4,-8,-3,-2,2,-6,-9
1530692511627013,-2,0,-4,0,-1,-4,-4,0
1530692511641973,-5,-4,3,1,0,-1,-2,-4
1530692511641973,-19,-8,-1,0,0,4,5,4
1530692511643968,19,14,2,0,-1,2,0,0
1530692511643968,-15,-17,-3,-3,-3,10,2,0
1530692511664912,-6,6,-2,2,-3,-12,3,1
1530692511664912,30,3,1,1,4,1,4,2
1530692511666906,-39,-8,-1,4,7,-3,-3,-2
1530692511666906,29,5,-3,-4,-11,-15,-8,-4
1530692511678874,-2,0,-1,-3,4,9,3,2
1530692511678874,-12,-5,-1,-1,-7,-9,2,-2
1530692511687850,15,13,3,-2,0,2,0,6
1530692511687850,0,-2,-4,-3,1,-5,1,2
1530692511702810,-25,-14,-5,-3,-3,3,-2,-6
1530692511702810,1,11,1,-2,0,-2,-9,-9
1530692511703808,-12,-15,0,-1,-1,7,-2,-2
1530692511703808,27,10,1,1,-2,-5,-1,1
1530692511724751,-13,-1,-1,0,-1,1,-1,-1
1530692511724751,-2,11,1,0,1,2,0,1
1530692511726746,31,-4,-5,-4,-6,-7,0,9
1530692511726746,-14,-6,2,4,-1,-20,-1,-2
1530692511738714,-4,-8,-3,-2,3,44,0,-12
1530692511738714,2,7,0,-1,-1,-18,-11,-7
1530692511747690,-10,-15,-2,-1,-4,25,6,1
1530692511747690,-7,-1,-1,-4,3,-34,-26,-6
1530692511762650,6,5,1,6,4,6,10,4
1530692511762650,-2,-13,-5,-1,-4,2,3,4
1530692511763648,29,12,0,-2,1,11,0,-2
1530692511763648,-16,-8,-1,-8,-4,6,2,-4
1530692511784592,-5,1,1,-6,-1,-15,-8,-8
1530692511784592,-2,-7,-2,-2,0,9,1,-1
1530692511786586,1,9,-1,2,-4,-34,-1,0
1530692511786586,23,-15,0,1,10,12,4,13
1530692511798554,-13,4,0,-1,-13,-4,-3,-7
1530692511798554,43,6,-1,-4,1,-10,4,13
1530692511807530,-24,3,3,1,0,11,0,-7
1530692511807530,-2,3,-1,0,0,-12,-1,-5
1530692511822490,20,3,0,0,3,-2,13,8
1530692511822490,-43,-13,-2,4,-3,-11,-16,-9
1530692511823488,6,5,-1,-4,-2,9,3,2
1530692511823488,0,10,4,-2,-1,9,7,7
1530692511844431,-7,-20,-7,-6,1,2,1,-2
1530692511844431,-3,-3,-1,18,1,-1,-2,-2
1530692511846426,-5,2,-1,11,7,-4,-8,-4
1530692511846426,-1,7,2,1,-4,39,14,-10
1530692511858394,4,4,3,-3,-1,-14,-7,9
1530692511858394,-12,-1,1,-8,1,6,3,0
1530692511867371,8,-2,-4,-7,-6,-15,-11,-9
1530692511867371,-14,-8,0,1,3,-4,1,-1
1530692511882330,11,8,3,2,-4,-5,-3,4
1530692511882330,27,17,3,-2,0,11,5,8
1530692511884325,-30,-25,-1,-3,3,14,-1,3
1530692511884325,22,1,-8,-6,-4,-29,-7,-5
1530692511905269,-46,-5,0,3,2,-3,-3,-5
1530692511905269,13,-1,1,-1,3,6,-1,-2
1530692511906266,-20,-11,0,-2,-2,-8,-3,-7
1530692511906266,34,14,-5,-1,0,3,7,17
1530692511918234,-12,-4,-3,0,-3,7,-9,-12
1530692511918234,6,5,0,-3,-4,-13,2,1
1530692511927210,-2,-5,-3,-2,9,35,0,-8
1530692511927210,-19,3,2,-4,-6,-19,-10,-9
1530692511942170,1,-23,0,1,5,27,11,14
1530692511942170,18,-3,-6,-17,-4,-4,-7,-10
1530692511944165,-40,-5,2,13,-4,-29,-7,4
1530692511944165,5,-2,3,14,2,3,-1,-2
1530692511965109,10,25,-1,-7,-6,-15,-9,7
1530692511965109,-15,-4,1,-6,5,21,4,-2
1530692511966106,9,-8,-5,-3,-12,-19,0,-4
1530692511966106,-22,0,4,-1,-2,18,6,-1
1530692511978074,5,-3,-9,-1,0,-12,-1,-3
1530692511978074,-22,-13,0,4,0,1,0,3
1530692511987050,32,24,1,-6,1,-4,-2,-1
1530692511987050,-18,-18,-1,1,-1,-22,1,5
1530692512002010,8,-3,0,1,-1,18,-2,-6
1530692512002010,4,-2,-2,-2,-2,-3,-3,-2
1530692512004005,-21,2,1,-2,2,6,3,-1
1530692512004005,36,22,1,-3,-4,3,-2,4
1530692512024949,-7,-15,-4,0,6,16,8,-2
1530692512024949,1,12,-4,-1,-10,-57,-9,-2
1530692512026944,10,-19,-3,-1,0,-27,-5,-2
1530692512026944,-17,3,-1,1,4,15,-5,-3
1530692512038911,12,13,3,-5,-4,-13,7,9
1530692512038911,-33,-20,0,3,1,27,4,-15
1530692512047888,8,7,-3,9,2,8,4,2
1530692512047888,-6,0,-1,-4,-4,-23,-9,-7
1530692512061850,-4,-3,-1,-1,3,15,-2,-4
1530692512061850,11,4,0,2,2,3,-2,9
1530692512063845,22,10,-1,-5,-3,-2,-4,-1
1530692512063845,22,3,2,1,5,22,7,10
1530692512084788,-45,-3,2,2,-4,-16,-6,-4
1530692512084788,25,5,0,-1,-1,0,3,4
1530692512086784,-5,-15,-6,-7,-3,8,-6,-8
1530692512086784,-13,-1,-3,-1,2,8,3,-6
1530692512098751,9,7,-1,-1,-11,-28,-6,-3
1530692512098751,7,-3,2,1,-3,18,3,2
1530692512107727,41,11,3,-1,4,37,-8,11
1530692512107727,-50,-18,-4,-7,-6,-32,-8,-3
1530692512121690,3,-3,2,1,-2,-28,-7,-8
1530692512121690,10,12,-2,-3,1,-7,7,-4
1530692512128671,3,2,0,-11,3,38,-2,-4
1530692512128671,-4,-8,-4,39,8,6,-1,-5
1530692512144629,-12,-20,-2,-2,-1,-1,-1,-6
1530692512144629,9,4,0,-2,3,-14,-5,7
1530692512146623,-1,10,-1,-12,-10,2,16,-2
1530692512146623,-22,-28,-7,-13,-8,9,-6,-4
1530692512167567,-9,0,-2,1,1,-36,2,2
1530692512167567,-3,-7,-5,3,4,3,1,-4
1530692512168565,-3,-5,5,2,1,-8,4,4
1530692512168565,3,13,4,-7,-1,1,2,6
1530692512181530,16,-5,-1,5,8,16,-4,-3
1530692512181530,37,-1,0,-6,-13,7,1,8
1530692512188511,-82,-4,-5,1,-3,-28,0,1
1530692512188511,46,13,0,-6,1,13,-3,-5
1530692512204468,4,-5,1,9,1,-20,-6,0
1530692512204468,-12,13,-3,-1,11,5,5,-5
1530692512206464,30,-5,-3,1,1,17,15,3
1530692512206464,-67,-10,-3,-14,-19,-8,2,9
1530692512227407,12,20,5,-11,4,34,-8,-7
1530692512227407,-10,-16,-4,12,-3,-33,-17,-9
1530692512229402,15,6,-1,0,-3,25,-1,-2
1530692512229402,4,7,5,-4,10,-17,3,6
1530692512241370,28,7,-1,-2,-16,-23,-1,-2
1530692512241370,-46,-28,-6,-8,-3,11,3,6
1530692512248351,-37,1,-3,-2,4,-2,-1,1
1530692512248351,12,2,0,-3,0,3,-4,-8
1530692512265306,24,0,-5,-5,-2,6,-2,2
1530692512265306,16,-8,1,1,-1,3,4,-8
1530692512266304,4,17,3,0,-2,-17,-6,1
1530692512266304,-8,-25,-4,-1,-3,23,8,0
1530692512287247,-33,-5,-2,0,2,-10,-8,-1
1530692512287247,-17,6,2,0,-6,-9,-1,-3
1530692512289242,25,-13,-5,0,1,-23,-12,2
1530692512289242,5,13,1,4,2,1,5,-5
1530692512301210,12,3,-1,-5,13,40,4,3
1530692512301210,-11,-6,-2,-3,-12,-17,-2,1
1530692512308191,4,5,7,-1,-6,-2,6,-1
1530692512308191,1,2,-3,-1,3,50,7,3
1530692512325146,8,-10,-4,-2,-5,-37,-2,7
1530692512325146,0,15,5,1,2,7,-6,-1
1530692512326143,-11,-11,0,-3,0,-5,0,-6
1530692512326143,46,23,-2,-7,-3,-4,-8,-3
1530692512347087,-2,-46,-5,5,7,19,13,12
1530692512347087,-68,13,-1,9,2,-2,-6,-4
1530692512349082,5,-13,-3,3,0,-6,-1,1
1530692512349082,2,6,3,-1,-1,-15,-3,-4
1530692512362047,-12,4,-2,-10,-7,-1,-7,-11
1530692512362047,37,-9,-2,-2,7,24,7,18
1530692512368031,14,20,2,-2,-6,-17,-9,-6
1530692512368031,-16,-9,-3,1,2,-1,4,-2
1530692512384986,-27,0,2,2,-2,-9,3,-9
1530692512384986,32,12,1,-4,2,6,-5,3
1530692512385983,-26,-6,-2,2,-4,-9,-2,-3
1530692512385983,17,-2,-5,-3,0,-18,3,3
1530692512407924,17,12,6,2,-1,27,6,3
1530692512407924,5,-3,-6,1,0,6,-4,-5
1530692512409919,-11,-3,-4,-3,7,5,0,-4
1530692512409919,-4,-5,-1,1,-8,3,-1,2
1530692512421887,1,0,-2,-3,-8,-29,0,3
1530692512421887,-3,-1,-1,-5,0,-16,2,-5
1530692512428868,8,0,0,3,-2,1,-11,-5
1530692512428868,12,-8,-3,-2,0,-8,1,6
1530692512444826,2,11,-3,1,-6,12,-2,-8
1530692512444826,-40,-7,-1,-4,-5,-3,-2,1
1530692512446821,20,-7,1,2,1,-8,1,2
1530692512446821,-57,-14,-1,0,0,-2,-6,-20
1530692512467764,100,48,1,0,-3,-12,-6,8
1530692512467764,-15,-17,3,2,5,1,1,-4
1530692512468762,-50,-20,-2,2,-4,7,4,0
1530692512468762,15,12,-5,-5,-3,-5,-10,-8
1530692512480729,-24,-14,1,2,2,-2,-1,0
1530692512480729,11,1,-1,-5,4,19,0,-7
1530692512489706,2,-1,0,-5,-14,-46,-16,5
1530692512489706,12,3,2,6,3,23,16,4
1530692512504666,-13,-4,-4,1,1,11,1,-1
1530692512504666,6,5,1,-1,3,-15,-6,-2
1530692512506661,17,-3,-1,0,4,-16,-5,-1
1530692512506661,-5,5,2,0,-2,-10,-10,0
1530692512527604,-14,-1,0,-2,-2,7,6,4
1530692512527604,-21,-7,0,0,-2,36,-7,-20
1530692512528602,79,25,1,-1,6,9,12,17
1530692512528602,-23,-33,-4,1,1,-12,-6,-6
1530692512540570,-49,2,2,2,-1,0,-2,-6
1530692512540570,-6,0,0,-4,-8,-1,-2,1
1530692512549546,-30,1,0,1,1,8,-2,-13
1530692512549546,48,18,2,-1,2,5,2,6
1530692512564506,3,-4,-5,-3,-3,3,-3,4
1530692512564506,-6,-5,-1,-1,-2,-11,-1,-3
1530692512566501,-10,-1,-3,0,0,6,4,-4
1530692512566501,-4,9,3,-1,-1,-8,0,4
