timestamp,emg1,emg2,emg3,emg4,emg5,emg6,emg7,emg8
1530692446788414,-23,7,0,-1,-8,10,1,-14
1530692446788414,10,-9,-3,-2,10,14,6,5
1530692446795403,0,15,6,1,-8,4,-27,-19
1530692446795403,-15,-15,3,4,4,30,2,-3
1530692446811380,14,0,-7,-3,6,31,16,6
1530692446811380,-6,-16,-7,-2,-2,-31,-4,-4
1530692446813348,-1,16,1,-3,-3,43,10,9
1530692446813348,-3,-1,-1,-1,-5,-33,-9,0
1530692446834291,-24,-5,3,2,0,22,0,-18
1530692446834291,57,24,1,1,8,-29,-10,16
1530692446836286,-30,-7,-1,-2,-9,5,19,3
1530692446836286,10,11,-1,-1,4,16,5,1
1530692446848254,-17,-17,-3,0,-5,-56,-9,-14
1530692446848254,-32,-14,0,0,6,-13,-27,-9
1530692446855235,19,10,0,0,4,20,-2,-1
1530692446855235,-39,-10,-4,-2,-1,0,-4,-6
1530692446872189,81,29,0,-1,3,-4,10,11
1530692446872189,-53,-34,-3,-2,-9,-24,7,10
1530692446873187,7,5,-1,-1,-13,-14,-26,2
1530692446873187,-33,-4,-3,-1,5,68,15,3
1530692446894140,6,15,5,4,-4,-13,-4,-6
1530692446894140,-10,-14,-3,-1,7,-1,-8,-4
1530692446896126,9,0,-4,-1,-2,-10,18,10
1530692446896126,9,1,-3,-4,-3,13,10,-3
1530692446908094,2,-3,1,-1,2,2,-10,0
1530692446908094,18,8,2,-2,-6,-10,4,0
1530692446915075,-10,0,3,2,11,14,8,-3
1530692446915075,-18,-11,-3,-5,-15,-27,-7,2
1530692446932029,1,-2,-4,-1,-1,-17,1,0
1530692446932029,16,9,3,3,1,1,-7,-10
1530692446933028,-31,-21,-3,1,2,-1,-1,0
1530692446933028,36,20,3,2,5,-1,6,11
1530692446953971,-10,-2,-2,-2,-7,11,9,-3
1530692446953971,-4,7,0,0,3,36,-1,-10
1530692446955966,-6,-5,-4,-5,-4,-51,-29,-6
1530692446955966,64,29,4,3,2,-21,6,12
1530692446968931,-63,-31,-6,-2,-4,27,5,-3
1530692446968931,15,9,-1,-2,-1,-25,-15,-5
1530692446974915,-12,-2,-3,-2,4,21,17,-5
1530692446974915,10,-8,-3,-1,-9,-5,-2,2
1530692446991870,48,31,5,1,6,-1,-4,2
1530692446991870,-27,-22,-8,-1,-5,-4,-10,-1
1530692446993873,-20,-18,-1,-2,-4,-5,3,-8
1530692446993873,13,25,2,-2,1,-1,-9,-8
1530692447013811,29,9,-1,-3,0,5,12,14
1530692447013811,-35,-36,-3,-3,-5,-8,9,10
1530692447015806,17,20,8,3,-2,3,-4,-6
1530692447015806,-32,-21,-3,-1,3,-19,-10,4
1530692447028771,-11,-8,-3,-3,-1,13,-8,-11
1530692447028771,-3,-10,-2,-1,3,1,-1,-5
1530692447035752,9,29,3,1,-3,19,-1,-2
1530692447035752,3,-16,2,-1,-4,-53,4,13
1530692447051709,4,2,-3,-1,-6,-3,0,0
1530692447051709,12,9,3,-2,6,10,1,-8
1530692447053704,-6,-3,-3,-2,-15,-15,-3,-4
1530692447053704,-23,-14,-3,-2,1,-4,-17,-14
1530692447074648,21,3,-4,-2,-2,-5,0,9
1530692447074648,-8,11,3,1,1,-12,9,0
1530692447075646,11,-17,-5,1,3,4,2,7
1530692447075646,0,7,0,1,-3,15,-7,-9
1530692447087614,3,3,-3,-2,-3,3,3,-2
1530692447087614,-3,7,0,-1,-4,16,13,7
1530692447096590,12,9,2,-1,3,-11,-12,-10
1530692447096590,-17,-18,-5,3,8,10,1,-9
1530692447111549,-29,-4,-1,-3,-6,-2,2,-4
1530692447111549,45,14,-3,-1,-2,40,2,11
1530692447113544,19,21,2,-2,-5,-38,-4,-4
1530692447113544,-13,-11,-4,-5,1,1,-3,1
1530692447134488,-12,-16,1,4,9,36,7,2
1530692447134488,-16,2,-1,-1,-3,-19,-14,-7
1530692447135486,5,-10,-2,1,4,-7,12,12
1530692447135486,6,11,2,-2,-5,17,-23,-12
1530692447147453,-12,6,4,2,7,10,10,0
1530692447147453,-8,-17,-3,-2,-5,-30,-22,-5
1530692447156429,-5,12,0,-1,-1,10,-15,-11
1530692447156429,-24,-21,-3,0,1,-1,27,1
1530692447171389,34,10,-1,-4,-3,-10,-1,12
1530692447171389,-12,6,0,1,-2,-3,11,-7
1530692447173384,-20,-18,-2,-1,2,-3,-2,-1
1530692447173384,42,16,0,1,0,9,-2,17
1530692447194328,-31,-7,0,-1,-5,-16,-14,-8
1530692447194328,-6,-2,-2,-1,3,14,18,-5
1530692447196323,2,-8,-4,-1,-9,3,-10,1
1530692447196323,17,-5,0,1,-10,-10,26,9
1530692447208291,-3,4,3,0,0,43,-10,1
1530692447208291,8,-6,1,0,-4,-59,-31,-3
1530692447217267,-3,3,-4,-2,2,51,21,-10
1530692447217267,22,15,2,-1,2,-26,-13,0
1530692447231230,-35,-32,-5,-3,-2,11,13,-3
1530692447231230,6,-6,-2,2,2,29,4,10
1530692447233225,18,14,2,-1,-5,-11,-1,6
1530692447233225,-9,0,-4,-3,-4,10,8,-8
1530692447254168,6,4,-2,-2,-1,-21,-11,-9
1530692447254168,-31,-20,2,0,0,1,0,4
1530692447256163,16,6,1,3,5,-21,-10,1
1530692447256163,-4,2,0,0,3,12,-2,-11
1530692447268131,-12,-7,-4,-2,-4,-22,-5,-12
1530692447268131,-4,11,5,0,-3,-1,9,5
1530692447277107,13,11,-2,-2,2,-3,-3,9
1530692447277107,-8,-31,-4,-1,6,22,-8,-16
1530692447292067,3,20,2,2,-4,-16,-4,-12
1530692447292067,37,6,1,1,-6,-7,-5,10
1530692447293064,-8,-16,-1,-2,4,19,10,-5
1530692447293064,-34,13,4,1,3,-17,-10,7
1530692447314008,-24,15,1,-4,-3,16,12,-11
1530692447314008,26,-20,-10,-1,0,-2,1,-3
1530692447316003,16,1,-1,-1,-1,-12,-24,2
1530692447316003,-9,-3,1,-1,-2,27,23,9
1530692447327970,-1,3,3,4,5,-2,12,6
1530692447327970,-13,3,-4,-6,-11,-25,-10,-6
1530692447336947,-8,-7,-5,-2,9,13,0,-9
1530692447336947,-3,1,0,-2,-4,-6,-2,4
1530692447351907,25,6,1,0,-2,-5,-8,5
1530692447351907,-41,-16,0,0,9,-2,-4,-14
1530692447352904,21,12,2,3,-10,-6,16,7
1530692447352904,-27,-12,-3,1,1,2,9,20
1530692447373848,-9,-4,-4,-5,-3,-23,-7,-2
1530692447373848,15,2,-2,0,7,27,8,-5
1530692447381827,-10,23,8,1,-2,2,-1,-3
1530692447381827,1,-23,-4,-1,-2,-23,-9,-4
1530692447387811,12,-7,-5,-1,0,9,13,6
1530692447387811,14,18,2,-3,-1,-5,-18,4
1530692447396787,-59,-23,0,1,1,-15,-16,-29
1530692447396787,90,44,3,2,-1,9,3,-1
1530692447411747,-11,-8,-4,0,2,0,-2,5
1530692447411747,0,1,-3,0,-7,-27,-2,-3
1530692447413741,-19,-2,-3,-3,-4,22,8,1
1530692447413741,3,2,1,-1,-3,2,-6,-4
1530692447433688,9,-8,0,-1,1,-8,-1,2
1530692447433688,-2,13,2,-2,-6,30,7,-11
1530692447435683,-33,-37,-9,-2,3,-37,-2,11
1530692447435683,2,20,5,3,0,7,1,-1
1530692447447651,15,4,0,-1,-1,-8,-13,-6
1530692447447651,-29,-5,-2,-1,-2,25,12,-2
1530692447456626,21,-5,-8,-4,-9,-35,-20,-6
1530692447456626,-22,4,1,2,5,13,15,9
1530692447471586,-3,-6,0,0,-1,-14,-4,-3
1530692447471586,-7,-4,-2,-2,4,-7,2,-4
1530692447473582,39,28,4,-1,-13,27,13,7
1530692447473582,0,-13,-7,-5,-2,-11,-1,2
1530692447494525,-16,-8,0,-2,-4,-9,-12,-5
1530692447494525,14,13,4,2,4,-17,-8,5
1530692447495523,23,12,1,0,0,4,-2,-1
1530692447495523,-26,-27,-4,-1,-2,-20,-14,-5
1530692447507491,12,25,6,2,2,27,18,-1
1530692447507491,-4,-27,-6,-4,-3,-12,-6,5
1530692447516467,8,-2,0,1,5,9,11,3
1530692447516467,-11,1,-2,-2,0,2,-6,-10
1530692447531427,6,3,0,1,7,24,-4,-4
1530692447531427,2,8,-2,-5,-20,-83,-5,0
1530692447533422,-18,-11,-3,-3,1,-22,-5,1
1530692447533422,25,9,-4,-2,3,27,11,0
1530692447554365,-13,-12,-1,-3,0,-1,-1,-1
1530692447554365,26,24,3,1,1,30,8,9
1530692447555363,-31,-48,-11,-21,-10,1,9,9
1530692447555363,-7,13,1,-19,1,-29,-17,-6
1530692447568328,13,-5,2,37,13,-3,9,6
1530692447568328,-2,2,2,13,11,20,1,-5
1530692447577304,-5,5,-1,-25,-23,-7,-2,3
1530692447577304,47,14,-8,-55,-8,41,4,6
1530692447591266,-9,-1,12,60,9,-59,-24,-6
1530692447591266,-11,-11,2,57,7,21,-1,1
1530692447593261,10,19,7,9,10,12,5,-6
1530692447593261,-16,-18,-7,-8,-12,9,-1,0
1530692447614205,9,-6,-13,-52,-16,3,5,4
1530692447614205,-7,-4,-3,-14,-2,-26,-19,-11
1530692447616200,-6,-10,-6,10,2,14,0,-5
1530692447616200,12,30,7,8,-4,-13,0,2
1530692447628168,-16,-30,-6,-7,-4,-6,-3,1
1530692447628168,44,13,1,-4,-1,6,10,19
1530692447637144,-23,0,-3,-8,1,8,-5,-9
1530692447637144,-12,-6,3,18,7,-19,2,1
1530692447652104,-1,3,-1,1,4,3,5,-2
1530692447652104,0,9,0,-16,-7,13,-7,-5
1530692447653102,-7,-11,1,3,2,-17,-3,-8
1530692447653102,-35,-33,-8,17,4,-3,0,-5
1530692447674045,16,26,4,-12,-8,-4,0,13
1530692447674045,-5,3,0,-15,5,40,2,5
1530692447676040,32,10,5,12,3,1,3,12
1530692447676040,-25,-7,-1,13,-7,-30,-13,-10
1530692447688008,16,-7,-5,-13,7,44,21,1
1530692447688008,-15,-6,-2,-9,-1,-5,2,-6
1530692447696984,11,22,3,9,10,-9,-10,3
1530692447696984,-25,-27,-5,-1,1,38,11,0
1530692447710946,-3,6,-4,-9,-13,-31,-29,-11
1530692447710946,-7,-9,0,0,2,15,17,2
1530692447717928,21,9,1,3,2,-17,-7,7
1530692447717928,-28,-6,0,3,3,-13,-10,-1
1530692447733885,10,7,-1,-4,-7,-16,1,2
1530692447733885,0,0,-1,-1,4,22,13,2
1530692447735880,-27,-20,-2,-3,0,5,5,-6
1530692447735880,20,14,1,3,-4,4,-1,1
1530692447747848,-13,-6,0,-2,-1,-38,0,-3
1530692447747848,-13,0,-4,-8,-7,-42,-4,-5
1530692447756824,-9,-16,-1,-3,5,32,8,2
1530692447756824,16,10,5,16,5,0,4,-1
1530692447770786,11,2,-1,-4,-2,26,6,8
1530692447770786,-10,5,0,-5,-3,-15,-22,-13
1530692447777769,-6,-6,-5,0,3,9,8,-4
1530692447777769,-12,-6,2,-1,-3,-12,3,4
1530692447793726,-3,1,0,-6,-5,-25,-18,-11
1530692447793726,1,-5,0,0,2,30,3,-2
1530692447795721,3,8,1,3,3,10,-14,0
1530692447795721,-4,-4,-3,3,2,0,9,6
1530692447816664,22,10,0,4,3,19,8,4
1530692447816664,-14,-5,-3,-2,-7,-28,5,4
1530692447818659,-8,-1,-1,-7,-1,-22,-22,-19
1530692447818659,-10,-3,0,6,1,-2,-9,-2
1530692447830627,15,-13,-6,2,8,25,21,0
1530692447830627,8,10,1,-3,-2,5,-2,0
1530692447837608,10,5,3,2,1,23,25,11
1530692447837608,-14,-17,-2,-5,-3,-43,-25,-9
1530692447854563,-14,0,1,-1,-4,22,-15,-9
1530692447854563,1,-1,-3,-2,-4,4,3,-1
1530692447855560,-8,-6,-3,2,-5,-17,2,0
1530692447855560,17,19,5,-1,6,7,-2,-4
1530692447876504,4,-13,-4,-5,-5,43,17,13
1530692447876504,-3,-5,1,-5,0,-27,-15,-9
1530692447878499,-9,4,0,-4,-10,-16,-9,-7
1530692447878499,23,17,1,-5,3,19,-3,-11
1530692447891465,-20,-11,0,16,1,-11,-9,-1
1530692447891465,-15,-7,-2,-6,-6,-8,-4,-5
1530692447897448,15,14,2,2,10,15,2,6
1530692447897448,19,4,-5,-12,-19,17,6,-6
1530692447914403,-9,2,-1,-20,-1,-11,12,12
1530692447914403,21,20,7,29,10,-12,-12,-4
1530692447916399,-14,-29,-6,25,4,6,-4,1
1530692447916399,1,-3,-6,-15,-12,-25,-11,-1
1530692447936346,15,8,-3,-48,-21,-5,-6,-7
1530692447936346,-7,-8,6,-6,26,-8,-1,11
1530692447938339,-7,0,3,51,11,9,12,1
1530692447938339,-18,-4,-6,-1,4,-5,-3,-7
1530692447951304,8,3,-3,0,-8,-1,5,3
1530692447951304,-5,-3,-6,-39,-14,9,0,-8
1530692447958285,5,-2,-1,-15,-3,1,1,5
1530692447958285,-16,-7,3,4,4,-48,9,4
1530692447974244,-23,-6,-8,-6,-4,-15,-21,-12
1530692447974244,20,-1,-5,4,-9,1,7,9
1530692447976239,7,12,2,-6,-5,-2,-10,-11
1530692447976239,3,4,2,-4,-4,18,12,5
1530692447997181,-53,-27,6,21,12,-12,-18,-6
1530692447997181,31,9,2,14,5,22,-9,-7
1530692447998179,2,-9,-5,-14,-13,-15,10,-1
1530692447998179,-3,16,5,-17,-3,11,13,4
1530692448011144,-2,-15,-1,18,0,-17,1,4
1530692448011144,-22,-10,-6,-8,1,21,-1,-7
1530692448018125,-5,-2,1,-3,10,45,-12,-2
1530692448018125,-1,-6,-2,3,0,-7,-5,-3
1530692448034082,10,14,0,2,-4,-15,10,7
1530692448034082,-22,-21,-7,-4,-6,-4,16,9
1530692448036077,6,11,-1,-5,3,24,21,3
1530692448036077,24,-10,3,10,3,-27,-32,1
1530692448057021,2,6,-1,8,1,5,-7,0
1530692448057021,-4,-14,-6,-9,-11,-30,9,12
1530692448058019,-3,29,0,-13,1,-8,5,-3
1530692448058019,8,-15,1,5,2,21,13,6
1530692448069986,11,22,2,4,2,46,4,-4
1530692448069986,-33,-36,-2,3,4,-24,-4,-7
1530692448078962,8,-2,0,4,-2,-28,3,4
1530692448078962,18,18,-2,2,-9,17,9,11
1530692448093922,-25,-11,1,-14,0,23,7,-11
1530692448093922,16,19,4,24,3,25,-4,-3
1530692448095917,-7,-8,-4,-11,-8,-40,-21,-2
1530692448095917,-4,-5,2,-2,5,4,-9,-11
1530692448116861,12,32,5,14,3,-25,-10,-12
1530692448116861,-15,-53,-15,-11,-9,-15,17,-2
1530692448117858,-7,15,-3,-17,-11,-4,-24,11
1530692448117858,23,13,-7,-5,-5,-59,-7,-5
1530692448130824,-34,-20,2,13,11,18,4,-10
1530692448130824,-9,25,7,2,1,7,1,-2
1530692448146781,56,22,1,-4,6,17,5,5
1530692448146781,-50,-36,-9,-14,-4,16,5,2
1530692448153762,12,18,-1,-13,1,-6,-11,-7
1530692448153762,8,8,-2,14,-4,-4,-6,1
1530692448155757,-24,-29,-4,-3,-3,-27,-10,-22
1530692448155757,7,24,6,5,2,20,-4,-7
1530692448176701,4,-26,-3,5,-1,-29,1,15
1530692448176701,-13,6,-6,-9,-2,22,10,-5
1530692448178696,2,5,3,-3,-4,-16,-9,1
1530692448178696,1,-4,2,18,6,-61,-16,2
1530692448190663,-21,-16,0,-8,1,10,8,-11
1530692448190663,26,16,2,-5,5,2,-4,4
1530692448205623,18,-8,-5,-4,-15,-13,6,-2
1530692448205623,-44,-40,-7,-6,1,35,17,-1
1530692448214600,10,15,5,-1,1,-20,-30,0
1530692448214600,20,16,-2,-5,-8,-16,-9,1
1530692448215598,-6,-17,-2,-4,4,-3,14,7
1530692448215598,-27,3,4,16,4,25,-2,-5
1530692448236541,29,2,-6,-7,-5,-3,1,-7
1530692448236541,-8,11,4,-4,0,3,-6,1
1530692448238536,-37,-32,-8,-10,-1,6,11,16
1530692448238536,8,-4,-4,-5,-5,-3,6,1
1530692448250504,9,17,2,6,3,41,5,2
1530692448250504,-26,-18,-2,-7,-4,-18,-5,-2
1530692448259480,3,2,-3,6,-6,-11,-5,-2
1530692448259480,7,21,6,-9,-1,28,2,-6
1530692448274440,0,-18,-10,-13,-1,-18,13,10
1530692448274440,-38,-27,2,17,11,10,-22,-17
1530692448275437,86,65,4,1,-9,21,21,19
1530692448275437,5,-19,-3,2,-2,-12,-6,1
1530692448304359,-11,5,-3,-6,-12,-8,-7,-9
1530692448304359,8,-1,-2,-9,3,2,2,-1
1530692448306355,-40,-21,0,4,4,-5,-13,-16
1530692448306355,10,9,-3,-2,2,20,16,15
1530692448310343,15,12,3,-2,-1,-7,2,5
1530692448310343,-8,-18,-3,0,4,-6,6,9
1530692448319320,12,21,5,-2,-7,-9,-14,-5
1530692448319320,2,-17,0,-2,3,9,6,-4
1530692448334279,-22,-10,-5,15,6,4,6,-4
1530692448334279,-1,6,1,-4,-7,15,5,0
1530692448336274,8,-3,-1,2,0,2,-14,-7
1530692448336274,18,12,-4,-11,1,-23,-7,-1
1530692448356221,-26,-17,1,9,12,31,31,17
1530692448356221,51,22,0,2,-17,-3,-14,5
1530692448358216,3,-3,-5,-13,3,8,12,5
1530692448358216,-42,-22,1,23,13,-4,-2,-11
1530692448370183,-4,18,7,14,-2,-3,-7,-3
1530692448370183,14,-7,-8,-6,-4,-23,2,3
1530692448379160,-29,-9,1,0,-1,19,17,-5
1530692448379160,15,19,2,-5,1,16,0,1
1530692448394119,40,-5,-5,-9,0,-9,-5,2
1530692448394119,-7,8,6,12,-1,-8,-2,-4
1530692448396115,-28,-23,-6,-4,-4,-11,-6,-8
1530692448396115,4,0,0,-6,-1,20,1,-5
1530692448417058,-8,6,1,10,-8,-36,-11,9
1530692448417058,2,0,-5,-17,-6,2,0,-6
1530692448418056,-4,-6,-1,-2,9,15,-1,3
1530692448418056,-1,12,1,7,-1,2,6,-7
1530692448430024,-7,-6,-3,-11,-9,-15,-10,-5
1530692448430024,30,11,-1,1,10,16,6,4
1530692448438999,-46,-16,-1,-1,-10,-4,3,-3
1530692448438999,30,10,0,-1,-5,0,-7,10
1530692448453959,3,3,-1,-11,-7,-27,-12,-11
1530692448453959,-21,-5,-1,-2,9,39,21,-1
1530692448459944,8,-6,4,0,-4,-26,-20,2
1530692448459944,9,21,2,12,-5,-8,3,1
1530692448476898,19,-33,-6,-4,-1,8,4,4
1530692448476898,0,21,3,0,-3,-3,2,0
1530692448477896,5,-6,0,-5,0,-10,-7,1
1530692448477896,-40,-37,-6,-4,-8,-17,-4,-9
1530692448489863,-6,11,-2,-11,-2,21,6,2
1530692448489863,17,-26,-1,2,10,2,6,9
1530692448499837,9,14,5,30,7,9,-4,-13
1530692448499837,-14,22,2,-12,-6,-1,-2,-15
1530692448513799,31,-38,-10,-3,2,-3,3,5
1530692448513799,-18,17,2,-14,-5,-11,-6,10
1530692448515795,-16,1,2,-1,-1,3,8,-2
1530692448515795,3,-7,0,7,4,24,5,-2
1530692448536738,-7,8,0,-12,-2,-6,-1,-16
1530692448536738,16,11,7,5,-2,-35,-15,5
1530692448538733,-4,-15,-7,5,3,14,2,-5
1530692448538733,15,20,0,-6,-2,1,-2,10
1530692448550701,4,10,6,5,4,21,16,6
1530692448550701,-11,-11,-6,7,-9,-21,-15,-14
1530692448559677,-7,6,2,-7,3,-28,-5,-2
1530692448559677,-1,-22,-3,7,3,-19,-2,7
1530692448574637,-6,8,1,3,6,3,-5,-1
1530692448574637,-11,-1,1,3,-3,12,15,2
1530692448575635,36,23,-1,-10,-2,3,5,-3
1530692448575635,6,-9,0,-3,0,-5,-9,-25
1530692448596578,19,17,7,3,0,-5,-12,37
1530692448596578,-18,-11,-6,2,-1,-3,-12,-22
1530692448598573,45,19,-3,-3,7,20,-2,10
1530692448598573,-51,-43,-5,-7,-12,-21,8,-22
1530692448610541,-25,-3,-4,0,-3,11,-8,34
1530692448610541,0,-7,-3,-15,-8,-19,-2,-1
1530692448619517,43,15,1,-20,-1,-41,6,28
1530692448619517,6,-18,-7,30,24,16,-3,-4
1530692448633479,-35,8,2,0,-17,-33,4,-37
1530692448633479,1,-3,2,-8,8,-6,-4,8
1530692448640461,-24,-10,5,27,3,9,-17,-25
1530692448640461,3,16,-2,-14,0,-10,-26,-2
1530692448656418,19,2,-1,-1,-3,29,2,-11
1530692448656418,13,12,-3,-6,-10,7,17,8
1530692448658413,-33,-48,-1,2,2,12,2,-5
1530692448658413,29,25,3,-6,-2,-6,11,20
1530692448670381,-13,-31,-5,5,-5,6,-21,-13
1530692448670381,10,20,-1,-2,-6,1,7,4
1530692448679357,-38,-12,-3,0,-3,-19,-7,-5
1530692448679357,-7,-1,-2,1,1,17,5,5
1530692448693320,21,15,0,-13,0,-22,-12,-26
1530692448693320,17,-7,4,9,10,23,8,19
1530692448700300,-16,-31,-8,2,-9,15,16,8
1530692448700300,7,15,-3,-9,-1,-9,-11,12
1530692448716258,3,23,2,-2,0,24,15,3
1530692448716258,4,-14,1,7,5,26,-16,-17
1530692448718253,19,26,-3,-11,-10,-55,-12,2
1530692448718253,6,-2,7,-1,-4,9,13,12
1530692448747175,-50,-34,-14,-7,12,25,13,-7
1530692448747175,-7,9,6,46,-3,-43,-32,-26
1530692448748173,-19,-9,-2,-8,-1,40,8,7
1530692448748173,-3,-23,-5,-20,-10,-24,1,15
1530692448753159,28,25,4,2,1,-31,-6,-3
1530692448753159,-33,-15,-3,-6,2,6,-12,-11
1530692448760141,-1,10,-5,-10,-2,10,22,11
1530692448760141,2,16,8,7,-6,0,-12,-23
1530692448777095,22,-2,1,-3,0,9,11,7
1530692448777095,6,-4,-6,-9,-6,1,12,11
1530692448778093,-7,2,3,11,1,2,-11,-31
1530692448778093,-1,-9,-4,-4,1,7,3,82
1530692448799037,-53,-10,-2,3,-7,-10,-4,-42
1530692448799037,-9,9,0,-8,-5,-23,0,-2
1530692448801031,35,18,3,-1,4,65,1,11
1530692448801031,-17,-11,-1,5,0,-15,4,-14
1530692448813997,29,1,5,26,23,-26,-15,8
1530692448813997,-20,-13,-6,-8,-16,-5,-7,-17
1530692448819980,-38,-4,4,14,2,12,6,6
1530692448819980,43,14,-7,-15,-4,10,-2,-9
1530692448836935,8,11,0,-9,-11,-14,-1,10
1530692448836935,-10,-15,-5,-6,1,5,5,-10
1530692448837933,15,-8,0,-12,1,-4,0,3
1530692448837933,4,9,-3,1,-4,-9,-20,-26
1530692448858877,-19,-26,-7,1,-3,-20,8,8
1530692448858877,37,27,5,3,7,25,10,15
1530692448860871,-20,-3,-3,-8,-8,19,-2,-21
1530692448860871,-1,-6,-3,-2,-1,-35,2,-4
1530692448873837,5,5,0,-11,-5,7,-4,2
1530692448873837,16,0,-1,-3,-7,-16,-4,8
1530692448880818,-5,-3,-2,-6,-2,-14,-1,-12
1530692448880818,-32,1,1,5,3,24,0,-18
1530692448896775,5,-4,-2,7,7,26,5,15
1530692448896775,2,19,6,-13,-4,-32,-11,-7
1530692448898770,34,-11,-8,14,8,3,32,28
1530692448898770,-5,-2,2,-8,-11,4,-17,-17
1530692448918716,-11,-4,2,-9,-2,5,2,5
1530692448918716,-10,3,-2,3,4,77,19,10
1530692448920712,-17,-8,-6,-21,-20,-91,-33,-13
1530692448920712,21,14,6,9,16,4,2,1
1530692448933676,2,4,1,16,-3,12,-4,-5
1530692448933676,-14,-7,-1,3,8,9,-4,-13
1530692448940658,9,19,3,0,1,17,-9,1
1530692448940658,21,-19,-7,-3,-6,4,2,-8
1530692448956615,-12,-2,0,-7,-7,-29,-7,-8
1530692448956615,8,1,-2,-2,0,7,9,-19
1530692448958610,-8,2,3,6,2,6,-15,16
1530692448958610,-15,1,2,-1,-1,-1,8,3
1530692448979554,-1,-7,-10,-15,2,18,6,12
1530692448979554,22,1,1,16,-12,-29,4,0
1530692448980552,-29,-11,-4,-15,2,69,-4,-17
1530692448980552,12,-1,-1,-20,-25,-61,-21,-1
1530692448992519,8,17,2,18,18,17,28,13
1530692448992519,-47,-37,3,39,12,-14,-13,-2
1530692449001495,40,42,3,18,7,-2,5,-13
1530692449001495,0,-10,-2,10,-4,26,2,12
1530692449016455,-12,-11,-4,-31,-16,-2,-1,-1
1530692449016455,20,19,2,-22,-4,-21,-18,-9
1530692449018450,-43,-20,3,4,4,-13,1,-1
1530692449018450,25,7,-8,-10,2,32,9,3
1530692449039394,3,8,0,-4,-4,-19,-8,0
1530692449039394,-15,-10,1,6,10,9,17,3
1530692449040391,43,23,0,-3,-9,-19,1,4
1530692449040391,-24,-21,-3,1,16,25,9,7
1530692449053357,2,7,4,9,-7,-60,-20,-4
1530692449053357,12,1,-5,-21,1,-4,-3,6
1530692449062333,-14,-10,-2,1,-2,20,12,-34
1530692449062333,5,14,6,23,9,-59,-25,31
1530692449076295,-7,-11,-6,-6,-2,26,20,0
1530692449076295,30,11,-7,-14,-4,12,1,5
1530692449078290,-19,-19,-6,-1,1,-26,-15,-3
1530692449078290,-4,12,-2,-7,-6,1,10,-14
1530692449099234,-16,-15,-2,-5,1,35,4,12
1530692449099234,-17,6,8,20,2,-11,-6,-4
1530692449101229,5,3,0,2,2,1,2,7
1530692449101229,-25,-8,-7,-6,-9,8,10,-14
1530692449113196,-9,-10,3,-7,-3,-4,-16,-13
1530692449113196,24,5,-8,-15,-3,16,12,7
1530692449122172,5,-8,1,4,1,-31,-5,7
1530692449122172,-13,-8,-2,4,5,11,-1,-7
1530692449137132,46,22,-2,-1,2,15,5,9
1530692449137132,-35,-16,0,-1,6,-40,-7,0
1530692449138130,-10,-1,1,-24,-7,-20,0,5
1530692449138130,7,3,1,20,-11,-42,1,-9
1530692449159074,15,3,3,2,3,41,6,-12
1530692449159074,6,-9,-7,-2,3,19,8,8
1530692449161068,18,18,1,1,0,10,-20,-6
1530692449161068,-27,-24,-6,-11,2,3,1,-4
1530692449173036,-14,3,5,15,2,-18,-9,-16
1530692449173036,19,20,1,-4,-7,-1,-9,3
1530692449182013,-23,-14,-1,1,0,-9,15,3
1530692449182013,52,21,-4,-8,0,39,15,25
1530692449196972,-14,-3,4,7,2,-12,-27,-21
1530692449196972,-3,-1,0,-14,-5,-4,1,8
1530692449197970,21,16,2,17,2,8,4,5
1530692449197970,-84,-33,-1,5,11,16,-2,-12
1530692449218914,-4,-14,-7,-11,-15,-22,12,9
1530692449218914,7,2,-4,-6,-6,1,-5,-7
1530692449220909,24,-3,-4,-1,0,21,10,10
1530692449220909,-2,3,5,3,-1,-22,-30,-13
1530692449232876,30,24,-2,-1,2,8,9,8
1530692449232876,-54,-33,-7,-12,3,-2,-7,-15
1530692449241852,-18,-12,3,10,3,1,5,2
1530692449241852,63,27,2,14,6,21,12,5
1530692449256812,-13,-3,-2,8,6,29,-9,0
1530692449256812,3,0,1,2,-5,-8,-2,-2
1530692449258807,-12,0,-4,-11,-6,3,-6,-14
1530692449258807,0,0,0,-21,-1,-2,2,-6
1530692449278754,7,-2,-1,-6,-5,-7,-7,7
1530692449278754,-2,-9,1,4,1,-21,-8,-12
1530692449280749,2,14,-4,-2,-3,9,21,13
1530692449280749,0,-12,-1,3,-4,9,2,-10
1530692449292717,4,11,-1,2,3,-7,-1,14
1530692449292717,21,20,2,-1,-2,19,2,3
1530692449301693,-61,-51,-1,-1,4,-25,-21,-28
1530692449301693,-2,14,3,-4,-11,2,-1,-8
1530692449316652,16,0,-4,-5,-7,-39,-18,-1
1530692449316652,-4,-2,0,0,5,5,11,12
1530692449318647,5,10,7,5,-3,23,3,-2
1530692449318647,36,15,-4,-5,3,-4,5,4
1530692449339591,-11,-13,-3,-10,1,-4,-3,-1
1530692449339591,-13,1,7,38,5,17,6,4
1530692449340588,9,7,-1,2,1,12,-15,-12
1530692449340588,-17,-27,-7,8,2,-46,8,-1
1530692449352556,52,21,1,-2,5,15,24,7
1530692449352556,-54,-31,-14,-25,-18,-59,-26,-11
1530692449361532,71,10,-4,0,-3,-8,14,27
1530692449361532,-49,-2,5,-3,-2,15,-28,-13
1530692449376492,-30,-27,-9,-10,0,6,13,-4
1530692449376492,56,21,2,3,5,8,5,-9
1530692449378487,-90,-19,-1,-2,-7,-9,-6,11
1530692449378487,62,24,3,-4,1,6,8,0
1530692449399431,-30,-18,0,7,0,-11,-7,9
1530692449399431,-4,-4,-1,-4,-6,20,-5,-16
1530692449400428,1,-5,-5,1,2,-8,11,-5
1530692449400428,0,0,-3,-6,0,-4,3,9
1530692449412396,-11,16,2,1,-5,22,-9,-15
1530692449412396,-13,-18,-1,-1,0,47,2,13
1530692449422370,27,9,-1,-12,1,-31,7,0
1530692449422370,-13,3,-3,-12,-5,0,-14,5
1530692449436332,1,-5,7,20,-4,-26,-28,-12
1530692449436332,-41,-17,0,3,12,18,47,2
1530692449438327,51,3,-8,3,-5,-22,-45,-5
1530692449438327,-27,24,4,-4,-6,2,33,1
1530692449459271,8,-40,-6,-11,4,4,12,10
1530692449459271,8,17,0,-9,-7,-6,-17,4
1530692449461266,-15,-4,0,3,-4,-5,-25,-5
1530692449461266,7,7,-5,0,-4,-5,-13,-21
1530692449473233,55,2,-6,-7,-3,-1,23,17
1530692449473233,-37,-18,-5,1,-1,-10,6,0
1530692449482210,3,13,4,6,3,17,9,7
1530692449482210,10,2,2,-2,-3,14,-9,4
1530692449497170,-19,2,2,5,3,-25,-14,-6
1530692449497170,19,-3,-6,-11,-6,14,10,7
1530692449498167,6,8,-1,-14,5,-7,19,-4
1530692449498167,-8,-4,4,34,15,22,-27,-19
1530692449519111,-36,-21,1,6,1,-21,-2,-8
1530692449519111,42,17,-1,1,-6,-21,-9,2
1530692449521106,-40,0,0,-5,-8,-5,-10,-7
1530692449521106,9,-10,-3,-13,9,23,19,14
1530692449533073,-26,-13,0,18,5,1,0,-15
1530692449533073,20,19,1,-1,4,4,-6,2
1530692449542050,-7,-18,-6,-3,-6,20,13,16
1530692449542050,13,21,-2,-3,-7,-15,-8,2
1530692449556012,16,26,5,-7,-7,-8,-6,-5
1530692449556012,5,-42,-7,0,1,19,18,-5
1530692449562993,1,12,3,6,4,-18,3,-2
1530692449562993,-7,-4,1,-4,-5,-3,-12,9
1530692449578951,-12,0,-7,-7,-1,-2,8,0
1530692449578951,9,14,5,1,-2,8,-11,0
1530692449580946,5,-12,-1,1,-10,-2,11,-8
1530692449580946,19,12,-1,-4,-4,-21,8,10
1530692449592914,-7,3,1,-4,8,29,-2,0
1530692449592914,-28,-13,-6,-2,8,-15,-12,-4
1530692449601890,34,14,4,26,-7,5,13,8
1530692449601890,-15,-8,-3,-8,-8,42,11,-4
1530692449615852,3,7,-1,3,0,-12,-8,-7
1530692449615852,-8,-1,-3,-5,-4,16,-6,6
1530692449622833,-8,-18,-3,-10,1,-39,-18,-1
1530692449622833,25,9,0,-11,-6,0,14,2
1530692449638791,18,5,-1,-3,-3,10,2,-1
1530692449638791,-2,5,2,4,-3,-7,-14,-8
1530692449640786,17,28,4,-2,4,26,-11,-3
1530692449640786,-37,-67,-9,7,0,-19,13,11
1530692449661729,-46,14,-1,-8,0,17,-7,-8
1530692449661729,33,3,-3,-2,-8,-37,3,9
1530692449663724,-30,-9,1,0,0,-23,-1,-7
1530692449663724,8,8,3,1,12,13,-19,-29
1530692449675693,29,7,-4,-6,-18,-15,10,23
1530692449675693,-10,-9,-2,-6,2,-2,7,4
1530692449682674,6,9,-1,-18,-3,-2,-12,-6
1530692449682674,-32,-22,3,24,6,-21,1,-22
1530692449699628,6,-12,-4,26,-1,37,-19,4
1530692449699628,12,19,-2,-10,2,-25,11,-7
1530692449700626,-22,-25,-3,0,0,-8,-12,-5
1530692449700626,1,15,-1,-4,-5,-9,-3,12
1530692449721569,-13,-1,0,-13,3,2,5,1
1530692449721569,-2,-3,0,12,-3,22,-7,-6
1530692449723564,15,16,3,4,5,3,4,-18
1530692449723564,24,-11,-9,-14,-3,2,-2,40
1530692449736529,-25,10,3,3,-5,-28,7,-3
1530692449736529,29,-2,2,0,4,19,3,8
1530692449742519,-7,3,-4,-1,5,-4,5,-9
1530692449742519,-1,-10,-3,3,-3,-6,2,-7
1530692449759472,30,17,1,-8,1,3,16,10
1530692449759472,-15,-15,1,1,2,2,-16,-7
1530692449760466,-9,-7,-1,-4,-11,4,0,5
1530692449760466,-18,6,2,-8,-3,-26,-2,4
1530692449781410,-3,-11,-8,2,-2,-17,-10,-30
1530692449781410,-11,9,4,-3,3,6,14,-4
1530692449784402,12,-13,0,20,5,-15,-3,9
1530692449784402,-14,6,-3,-12,-7,48,5,-16
1530692449796370,11,8,-1,-13,-5,-17,-18,3
1530692449796370,-33,-15,-4,19,5,-4,11,7
1530692449803351,0,0,0,-10,-4,31,-6,2
1530692449803351,9,3,1,-10,-4,-17,13,-2
1530692449819308,-50,-34,-2,6,-3,6,-27,-8
1530692449819308,54,19,1,11,-3,-11,8,2
1530692449821303,-24,-16,-7,-6,3,3,11,12
1530692449821303,-1,10,5,7,-1,16,-8,-39
1530692449842248,-10,-18,-6,-12,-2,-71,-4,50
1530692449842248,-23,-5,0,-5,-10,-26,3,12
1530692449843252,3,0,1,1,-10,21,-12,5
1530692449843252,14,4,-7,1,-3,-15,-6,-1
1530692449856209,14,11,8,1,6,35,8,-18
1530692449856209,-6,6,-2,-5,-2,-4,-9,-7
1530692449863191,-6,-4,0,1,7,0,4,1
1530692449863191,-9,2,-3,-4,-1,-11,-4,12
1530692449879148,15,-1,-2,0,-3,5,11,-11
1530692449879148,-16,-12,0,-2,-2,-3,2,-1
1530692449881143,8,8,0,-3,-2,1,-8,-10
1530692449881143,-14,-11,-1,4,-3,1,-4,4
1530692449902087,5,8,3,-1,-1,-15,-2,-16
1530692449902087,18,19,-4,-13,1,16,-7,0
1530692449903084,-8,-21,-3,9,6,59,17,10
1530692449903084,-3,12,6,10,-2,-46,-9,3
1530692449915052,15,5,-5,-2,7,8,6,-4
1530692449915052,9,9,1,-4,-14,-25,-4,13
1530692449924028,32,15,2,-7,1,0,-3,-6
1530692449924028,-53,-37,-6,-3,5,9,0,4
1530692449938988,-35,5,7,6,0,6,12,-46
1530692449938988,51,2,-6,-10,-2,-1,-11,61
1530692449940983,-14,3,0,-9,-1,-7,15,-7
1530692449940983,11,11,6,17,3,17,-16,-1
1530692449961926,-8,-16,-8,-2,-2,2,9,18
1530692449961926,-29,-7,2,7,11,-2,-9,-27
1530692449962924,17,22,2,-2,5,0,-4,-1
1530692449962924,19,-13,-9,-22,-19,33,-4,9
1530692449974892,1,6,6,3,10,33,18,11
1530692449974892,-5,2,2,2,-11,-28,-20,-17
1530692449984866,8,1,-3,2,-2,-13,-5,1
1530692449984866,4,3,0,0,6,4,1,-18
1530692449998828,-17,-5,-4,-12,-6,16,-4,1
1530692449998828,-9,1,3,0,0,2,-9,-17
1530692450000823,-2,-11,-6,0,1,-10,7,-13
1530692450000823,-4,3,1,2,6,-4,6,23
1530692450021767,4,-3,1,3,-1,-7,5,30
1530692450021767,-16,-20,-4,0,-6,-3,-6,-60
1530692450023761,3,10,0,1,-5,-18,-3,17
1530692450023761,13,0,-3,-2,6,3,10,-3
1530692450035729,-10,-8,0,5,0,-2,-12,-1
1530692450035729,-22,-2,-1,2,4,12,3,-1
1530692450044713,5,-8,-2,-3,-1,0,2,4
1530692450044713,12,11,-6,-11,-14,-12,12,-2
1530692450059672,9,3,2,-28,4,40,-6,-2
1530692450059672,-6,-5,3,45,13,-33,-17,1
1530692450060663,0,-4,-4,-8,-2,6,10,1
1530692450060663,7,-4,-1,2,2,8,-1,6
1530692450081607,4,18,6,-18,-4,18,14,-19
1530692450081607,-3,-1,-1,5,-1,-20,-15,7
1530692450083601,-1,-12,-4,8,3,13,7,-5
1530692450083601,10,6,-3,-5,-17,-16,-25,-13
1530692450095569,27,18,17,14,1,-12,3,5
1530692450095569,-8,7,-4,-14,2,21,10,5
1530692450104545,-12,-1,-3,4,3,-8,5,-3
1530692450104545,5,-14,-7,-1,1,-1,-2,-6
1530692450119505,1,-18,-8,5,0,-16,-3,5
1530692450119505,5,13,3,-8,-9,9,5,3
1530692450120503,-29,-24,-7,-19,-9,-5,-16,-12
1530692450120503,23,15,4,5,9,-5,6,15
1530692450141446,6,6,-2,11,-7,-33,-11,-14
1530692450141446,-6,-12,-4,-7,2,37,12,-26
1530692450143447,12,17,4,14,2,37,23,57
1530692450143447,-25,-18,3,1,0,-48,-8,-5
1530692450155409,0,6,-3,3,6,11,3,7
1530692450155409,4,-14,-14,-23,-23,8,4,-2
1530692450164385,9,12,2,-2,-3,-51,-12,-19
1530692450164385,-11,-3,5,-1,10,-5,1,7
1530692450179345,3,-4,-7,15,-3,8,-2,-7
1530692450179345,8,17,2,-7,-1,-9,-2,9
1530692450181340,1,-11,-1,0,0,11,-11,-10
1530692450181340,-29,2,1,0,2,12,6,11
1530692450201286,6,-5,-5,-5,-4,-5,7,-1
1530692450201286,-9,-7,2,-1,0,4,4,4
1530692450203281,1,-1,2,6,4,-19,-18,-4
1530692450203281,-14,-3,0,3,0,17,2,-16
1530692450215249,-3,-9,-11,-7,-8,-11,-21,-6
1530692450215249,15,19,13,4,6,8,20,-29
1530692450224225,29,9,-4,-14,1,23,13,68
1530692450224225,-3,2,0,1,-9,-27,-17,-37
1530692450239185,-3,-11,-1,26,5,14,2,25
1530692450239185,-30,-17,-3,-1,-2,-19,-35,-7
1530692450241180,-5,-1,0,-2,0,10,15,-37
1530692450241180,25,8,-1,-4,-6,-28,19,17
1530692450262124,-3,12,0,-19,8,-4,-11,-5
1530692450262124,-21,-32,-3,16,6,31,11,5
1530692450263121,-9,9,6,25,-7,-30,-20,-13
1530692450263121,20,-11,-2,1,11,24,15,9
1530692450275089,-4,20,1,-7,-16,-17,3,-12
1530692450275089,-35,-25,-5,-7,1,3,10,16
1530692450284065,-14,0,0,-4,11,28,-8,-17
1530692450284065,-21,0,-1,5,-13,-22,-23,-23
1530692450299025,10,1,1,3,4,5,-4,-2
1530692450299025,3,-1,-4,-8,-3,-7,-9,25
1530692450301020,38,10,-1,-4,-3,-4,18,-31
1530692450301020,13,1,2,2,6,18,11,14
1530692450321964,-1,4,-3,-2,-6,-25,-19,-14
1530692450321964,-2,9,2,-8,1,62,23,0
1530692450327948,-28,-9,0,-2,-5,-48,-36,-9
1530692450327948,39,10,-5,-11,14,16,14,7
1530692450334929,-11,-24,-3,15,-7,-27,17,0
1530692450334929,2,7,-2,-2,-4,-22,-9,-2
1530692450343905,-8,-8,2,2,2,34,4,2
1530692450343905,5,18,2,-8,-1,14,0,4
1530692450358865,4,-7,-4,-11,-5,6,-7,2
1530692450358865,9,0,0,2,0,-18,1,-25
1530692450360860,0,-16,-8,-14,-9,-9,1,46
1530692450360860,5,15,3,2,2,0,-5,-2
1530692450381804,-1,-8,3,-6,-1,-15,-9,-1
1530692450381804,18,6,-5,0,2,-14,0,-2
1530692450383799,-17,8,8,2,-5,26,22,-8
1530692450383799,26,-6,2,7,-2,-22,-12,4
1530692450395766,-4,-18,-5,-3,10,45,-5,-7
1530692450395766,-2,4,-2,-1,-4,-5,13,0
1530692450404743,-11,-1,-4,1,1,-57,-22,-14
1530692450404743,-14,-18,-5,3,1,7,16,14
1530692450419702,42,32,1,-6,-9,2,14,4
1530692450419702,-9,-15,1,2,5,-7,-10,6
1530692450420700,-1,4,-4,-7,-4,12,-10,-8
1530692450420700,0,-9,-6,-10,-3,-2,2,-3
1530692450441644,-18,-13,-2,-4,0,-23,-2,-16
1530692450441644,6,12,4,22,7,7,-20,4
1530692450443638,-1,-8,0,0,-12,-17,2,-2
1530692450443638,-8,3,-3,-4,-7,6,-16,-11
1530692450455606,-22,1,-4,-8,1,-4,9,4
1530692450455606,-2,-17,-7,-13,-1,15,9,11
1530692450464583,26,16,0,8,4,17,17,0
1530692450464583,-45,-13,-1,2,-4,-6,-15,-5
1530692450479542,46,13,1,2,1,9,5,12
1530692450479542,7,10,2,-6,-7,6,-12,-7
1530692450480540,-44,-27,-6,-13,10,11,8,6
1530692450480540,-1,12,3,7,-2,-23,-11,-52
1530692450501484,-14,-19,-2,6,-2,4,14,68
1530692450501484,17,14,-2,0,-1,11,8,14
1530692450503478,1,4,-4,-10,-5,-35,-18,-5
1530692450503478,-7,2,3,0,2,8,-8,-10
1530692450515446,-28,-12,-3,-2,2,19,-10,-31
1530692450515446,32,26,2,-1,-14,-35,-16,-3
1530692450524423,-26,-43,-7,-2,1,42,22,3
1530692450524423,0,25,1,-3,1,22,16,8
1530692450538385,14,5,-1,5,-1,-16,-1,0
1530692450538385,-12,-14,-4,-6,2,0,9,6
1530692450545366,12,16,1,1,1,-8,-16,-18
1530692450545366,-18,-18,-5,4,-8,7,-4,3
1530692450561323,1,0,0,-2,1,2,-6,-10
1530692450561323,-1,4,-2,-3,0,3,16,14
1530692450563319,12,-3,1,3,1,-43,8,-2
1530692450563319,11,-2,-2,-4,-4,-10,-10,13
1530692450575286,-5,-4,-1,-3,-1,6,17,-1
1530692450575286,-8,-3,3,3,1,-7,-4,-6
1530692450584262,-3,0,-1,-2,3,-25,-27,-8
1530692450584262,35,7,-1,-8,-5,25,20,18
1530692450598225,-6,17,3,-1,-4,-23,-4,-4
1530692450598225,-9,-32,-2,5,5,7,2,1
1530692450605206,2,13,4,1,5,20,-2,0
1530692450605206,9,5,-1,-1,1,1,1,2
1530692450622161,-3,-15,-2,-3,5,2,-11,-3
1530692450622161,20,13,1,-4,-12,12,3,-12
1530692450623159,-5,-8,-3,3,-4,-1,-15,-8
1530692450623159,-30,-2,2,1,3,31,4,-1
1530692450644102,7,4,2,-2,-4,-7,-15,-8
1530692450644102,-37,-13,0,-3,-2,-31,-18,-14
1530692450646097,57,20,-4,-8,-6,6,-6,6
1530692450646097,-20,-17,-2,6,-2,-1,3,8
1530692450659063,-5,1,-4,2,-4,-8,-1,0
1530692450659063,-25,-12,-2,-12,5,8,1,-6
1530692450665046,-11,15,5,1,0,16,16,1
1530692450665046,20,-2,-3,5,3,-14,0,-3
1530692450682001,-18,-16,-1,5,1,2,-7,-5
1530692450682001,9,10,-3,0,-5,-11,-2,-3
1530692450682999,-4,1,1,-3,-7,-9,-3,0
1530692450682999,12,-1,-1,-7,4,-1,-5,2
1530692450703942,4,-6,-2,2,-2,-1,5,8
1530692450703942,-2,11,5,3,6,12,-1,-15
1530692450705937,-3,-6,0,3,-2,22,11,1
1530692450705937,-37,-17,-2,2,-6,-47,-16,-7
1530692450718902,-2,4,-2,-1,4,42,8,-5
1530692450718902,45,22,0,0,-5,-60,-15,18
1530692450725884,-10,-13,0,0,2,67,18,7
1530692450725884,-10,-6,-4,-4,0,-17,2,-7
1530692450741841,3,15,5,3,2,12,-4,-7
1530692450741841,-12,-37,-11,-12,2,-11,19,12
1530692450743836,0,14,2,3,-2,-11,-26,-6
1530692450743836,10,7,0,4,-4,5,6,10
1530692450763782,29,6,-2,0,-4,6,12,-6
1530692450763782,-16,1,1,2,3,15,-7,1
1530692450765777,-21,-8,0,0,-1,-34,-8,-5
1530692450765777,1,-4,1,-6,-1,6,-4,-6
1530692450778743,-36,-12,-8,-11,-4,-21,-1,3
1530692450778743,8,20,2,3,1,6,-6,-5
1530692450785724,3,-1,1,3,-5,-4,24,4
1530692450785724,4,-6,-2,0,-5,7,-12,0
1530692450801681,-12,-19,0,3,3,31,4,-7
1530692450801681,-2,-7,-2,-1,-1,-9,-4,2
1530692450803676,20,6,-1,2,4,-4,3,17
1530692450803676,-27,-4,-2,2,3,-1,7,-10
1530692450824619,14,16,3,-5,-7,-5,-8,-3
1530692450824619,-2,-4,0,2,8,10,-1,-1
1530692450825617,-1,-11,0,-1,-2,-23,6,6
1530692450825617,-14,5,0,8,-3,-6,11,-6
1530692450838582,-7,-3,0,-2,-1,21,0,7
1530692450838582,18,0,2,3,2,-8,-16,-5
1530692450845564,-6,12,-4,-4,-2,-22,-10,-9
1530692450845564,15,-8,-2,-6,1,17,4,10
1530692450861520,-14,7,-1,0,0,-17,-5,-7
1530692450861520,-11,-16,-4,0,-4,7,18,-2
1530692450863516,16,13,0,-2,-2,3,-12,-4
1530692450863516,-8,-3,-3,-3,0,3,-3,-1
1530692450884459,-3,-4,2,-2,1,-25,9,0
1530692450884459,34,5,0,-6,-6,-15,6,1
1530692450885457,-8,5,1,3,10,33,12,-6
1530692450885457,-16,-34,-5,-1,-5,-38,-25,-2
1530692450897425,6,1,-2,-2,-2,-21,-4,-4
1530692450897425,13,17,1,-4,-5,8,-6,3
1530692450906401,-36,-26,-4,-1,-3,6,7,6
1530692450906401,22,15,-3,-2,2,16,10,-9
1530692450921361,2,-2,-2,-7,-3,-11,-8,0
1530692450921361,-31,-15,-2,1,2,19,24,4
1530692450923356,17,10,6,10,-1,-1,-11,-1
1530692450923356,15,13,2,3,7,22,-15,7
1530692450944299,-16,-18,-4,3,1,-23,-19,-13
1530692450944299,-8,16,-2,-1,-10,41,3,-9
1530692450946294,-8,-3,0,-7,1,-67,-1,-4
1530692450946294,9,6,4,6,-3,-11,13,1
1530692450958262,0,-8,-3,6,-1,14,11,12
1530692450958262,-27,0,-2,-1,-3,-20,-14,-11
1530692450967238,44,-4,-4,-2,-2,13,6,16
1530692450967238,-13,23,8,-2,4,13,-1,-9
1530692450982198,25,9,-1,-3,-9,-30,-7,3
1530692450982198,-10,-12,1,5,7,-6,-3,9
1530692450983196,3,-5,-4,-1,4,19,5,-32
1530692450983196,3,-10,-3,-6,-4,-8,3,23
1530692451004139,1,13,5,1,5,10,3,-7
1530692451004139,-16,-14,-7,-3,-6,0,-13,10
1530692451006135,-13,8,6,-3,0,3,-8,-15
1530692451006135,30,-10,-9,-3,-4,0,4,10
1530692451018102,-17,-5,-5,-1,3,6,6,-3
1530692451018102,-3,8,2,1,2,9,3,-6
1530692451027079,-5,-8,-5,-3,-8,9,-9,1
1530692451027079,-14,-2,-1,-1,0,10,10,1
1530692451042038,5,5,3,3,3,5,-2,2
1530692451042038,17,-5,-2,-3,0,-8,1,2
1530692451043036,-14,0,-2,-1,-4,22,-2,3
1530692451043036,-19,-12,-2,-2,-3,-25,-7,-5
1530692451063979,2,-9,-3,-3,0,0,-8,-15
1530692451063979,44,34,7,1,9,15,-3,15
1530692451065974,4,-13,-5,1,-16,-27,11,4
1530692451065974,-14,-4,2,0,-6,7,-13,-8
1530692451077942,2,1,1,-1,5,20,12,4
1530692451077942,-13,-5,0,0,-1,-52,-16,-13
1530692451086918,-8,-9,-1,0,1,-10,-8,1
1530692451086918,45,20,0,-1,0,-6,6,2
1530692451101878,-45,-26,-1,-1,-5,21,2,4
1530692451101878,26,13,-1,4,7,23,1,10
1530692451102875,-2,7,-5,-6,2,-55,-11,-7
1530692451102875,-20,-6,0,0,-3,-2,30,-5
1530692451131798,17,-1,4,1,5,-16,-25,5
1530692451131798,-13,-4,-4,-4,-10,-10,2,-15
1530692451133793,5,1,1,-1,5,27,-4,8
1530692451133793,-25,-11,-5,-5,0,-18,7,-1
1530692451137782,35,-3,-8,6,-4,-5,-9,8
1530692451137782,-4,-4,3,-2,-3,13,7,18
1530692451146758,-7,-4,2,2,0,4,-1,-7
1530692451146758,9,9,3,-3,1,3,0,1
1530692451161718,-20,-3,5,0,-1,20,-7,-13
1530692451161718,14,-3,-5,-2,-2,-32,-7,4
1530692451163713,-19,3,0,0,-3,31,15,4
1530692451163713,-8,5,7,3,1,-19,-30,-18
1530692451184657,0,-2,-1,-1,2,11,7,-1
1530692451184657,-12,0,0,0,-3,7,11,-9
1530692451185654,14,-1,-3,-3,1,4,10,5
1530692451185654,-6,-12,-4,-2,1,5,-6,10
1530692451197622,2,15,0,-4,-6,-16,-4,-8
1530692451197622,-19,-11,-4,-3,0,2,1,-6
1530692451206598,11,-1,0,1,6,10,-4,-2
1530692451206598,18,8,1,1,-8,-3,9,-1
1530692451221558,-14,-1,-2,-7,1,5,-9,-3
1530692451221558,10,0,-1,6,1,-8,5,5
1530692451223553,-32,-36,-7,-2,-1,-35,-16,-25
1530692451223553,30,22,1,1,3,7,-5,8
1530692451244497,-16,5,0,-2,-5,-9,8,12
1530692451244497,11,9,-1,-6,-6,14,13,-7
1530692451245494,-25,-16,1,4,-2,-1,-10,3
1530692451245494,-3,3,-3,0,7,21,2,-26
1530692451257462,25,-2,-1,0,-3,-12,5,-2
1530692451257462,-11,22,2,-1,-3,6,-3,15
1530692451266438,12,8,2,4,-1,-19,1,5
1530692451266438,-20,-19,-4,1,0,-3,-5,-1
1530692451281398,-9,5,-2,-3,-7,21,1,-11
1530692451281398,10,-2,5,2,1,-5,-2,-6
1530692451283393,6,2,-4,-6,-3,8,-2,10
1530692451283393,-33,-10,-4,-4,-5,-13,-11,-11
1530692451304336,13,8,-1,-3,14,49,16,7
1530692451304336,10,-4,-1,5,-14,-60,-35,-5
1530692451306332,3,10,1,-5,-1,14,-1,-2
1530692451306332,-2,-4,0,4,3,15,16,8
1530692451318299,-16,-8,0,-1,2,-6,-12,-13
1530692451318299,14,6,-1,-3,0,18,17,-7
1530692451327275,12,-20,-6,-1,-2,0,4,-4
1530692451327275,-9,15,6,-2,-3,-11,-17,-7
1530692451342235,14,-4,-1,-1,-6,-11,9,-12
1530692451342235,-18,0,4,7,9,8,-14,0
1530692451343233,8,8,1,3,-4,2,-7,8
1530692451343233,3,-9,-4,-3,-2,5,13,-16
1530692451364177,-2,-3,-1,2,-10,-12,14,28
1530692451364177,-6,-13,-4,-6,-2,-12,-11,-3
1530692451366171,15,21,1,-5,-3,-3,0,4
1530692451366171,12,-3,-2,-2,-1,2,-2,8
1530692451378139,-17,-14,0,1,3,-10,-4,-1
1530692451378139,-13,-10,-4,-4,-5,61,12,-4
1530692451387116,-2,1,-2,1,6,-32,2,-1
1530692451387116,-14,5,-1,-3,-13,-9,-17,-5
1530692451402075,35,15,-2,-1,-3,-29,0,6
1530692451402075,-20,-14,0,1,0,9,-8,-3
1530692451403073,20,15,4,4,6,22,1,0
1530692451403073,-11,-10,-2,-1,0,-2,-4,4
1530692451424016,3,4,-1,-3,3,16,-4,-1
1530692451424016,-7,6,0,-1,0,-5,5,-5
1530692451426011,6,-3,-4,-4,-8,-9,1,1
1530692451426011,-2,-7,-1,-1,1,1,6,6
1530692451437979,-39,0,-7,-3,-5,-12,2,-7
1530692451437979,7,-3,3,1,5,1,-13,0
1530692451446955,-10,9,3,2,1,-5,-8,-5
1530692451446955,23,-11,-3,-1,3,19,11,14
1530692451460918,2,-4,-3,-2,1,-2,-6,-3
1530692451460918,-14,-6,-2,-4,-9,-41,2,-7
1530692451467899,4,0,-4,0,1,2,10,-18
1530692451467899,-6,2,1,-1,6,-5,-11,63
1530692451483857,11,18,4,1,-2,1,0,-2
1530692451483857,18,-14,-2,0,5,7,27,10
1530692451485851,-16,-8,-2,-3,-5,17,-41,-8
1530692451485851,18,9,1,0,-1,-25,3,-20
1530692451497819,-31,-10,1,0,4,15,9,2
1530692451497819,-11,-5,-4,-4,-8,-12,-14,0
1530692451506795,5,-5,2,1,1,9,15,2
1530692451506795,3,20,2,-1,10,10,-11,-9
1530692451520758,0,-33,-6,-1,-7,-25,-6,5
1530692451520758,-11,0,-3,-1,4,21,14,-8
1530692451527739,1,5,1,-2,-5,-9,5,8
1530692451527739,-12,-9,0,2,-1,7,-4,-17
1530692451544694,14,21,3,-1,-3,-14,-3,-2
1530692451544694,27,-5,-5,-1,-2,-2,-3,10
1530692451545691,-32,-12,-3,-3,-2,-7,6,4
1530692451545691,-4,-6,-1,0,2,13,5,-6
1530692451566635,3,5,0,0,-14,-47,-7,-10
1530692451566635,6,-1,-3,0,12,17,10,5
1530692451568630,4,4,-3,-3,-6,19,2,3
1530692451568630,-1,-2,-2,-3,-2,-3,7,-6
1530692451581595,17,13,4,4,4,-9,-9,8
1530692451581595,-7,1,1,1,0,-7,-18,-13
1530692451587579,6,-4,-6,-5,1,7,8,7
1530692451587579,-16,-10,-6,0,-11,-5,-4,-4
1530692451604533,-12,4,1,1,0,7,3,0
1530692451604533,49,1,-3,-3,-4,4,17,6
1530692451605531,-17,1,3,2,7,3,-4,3
1530692451605531,-5,-1,0,1,-5,1,6,-3
1530692451626475,-6,-5,-2,-3,-1,-26,-11,2
1530692451626475,-15,-8,1,1,-2,10,-11,-14
1530692451628470,19,23,3,2,1,-3,5,-9
1530692451628470,-21,-19,-2,1,2,3,5,11
1530692451641435,2,-11,-4,-2,4,74,15,5
1530692451641435,-19,-6,0,-1,-6,-61,-21,-6
1530692451647419,4,2,1,-2,-4,12,10,1
1530692451647419,-20,-2,3,-2,1,-21,-15,-14
1530692451664374,61,11,-2,-1,1,17,1,2
1530692451664374,-23,-5,-1,-1,-2,7,2,3
1530692451666368,2,-4,-5,-1,-2,1,-10,0
1530692451666368,6,0,1,1,2,9,11,3
1530692451686315,-9,-12,0,-1,-5,-20,-8,-9
1530692451686315,6,18,3,2,2,6,-1,2
1530692451688310,-3,-4,-2,-1,-2,7,6,-9
1530692451688310,12,9,-2,0,-2,-32,-23,-12
1530692451701275,-5,-13,-3,1,4,10,-6,-4
1530692451701275,9,7,4,2,2,-9,4,10
1530692451708256,-24,-16,-4,-2,-3,37,-10,-4
1530692451708256,24,1,-8,-5,-3,-20,2,-6
1530692451724213,-35,6,5,0,0,-12,2,2
1530692451724213,-22,-13,-2,3,4,46,1,-9
1530692451726209,46,28,4,2,-3,-51,-8,2
1530692451726209,17,-12,0,0,5,26,6,8
1530692451747152,-8,7,-3,-2,-4,-21,-5,-1
1530692451747152,-9,-5,-3,-4,1,32,28,2
1530692451748150,-26,-3,1,1,5,0,-14,-3
1530692451748150,5,18,0,-2,-9,-5,-8,-7
1530692451761115,-1,-12,1,0,-1,-16,-11,-6
1530692451761115,22,4,-1,-1,-2,-10,-1,12
1530692451768096,3,1,-2,0,3,7,7,-4
1530692451768096,-22,-4,0,-1,-4,-5,3,2
1530692451785051,67,23,-1,-2,4,14,10,20
1530692451785051,-3,14,6,-1,-6,-30,-7,-11
1530692451787046,-18,-15,-3,-3,3,-4,-6,-4
1530692451787046,-12,-12,-5,-4,0,-9,-3,0
1530692451806992,-21,-5,1,1,3,11,19,-16
1530692451806992,15,-1,-4,-2,-10,11,1,7
1530692451807990,-4,-12,-1,0,-6,-28,-10,1
1530692451807990,-7,18,2,0,6,-31,15,-11
1530692451819958,-3,-12,-6,-3,-4,-15,-26,1
1530692451819958,15,16,5,0,-1,-3,-13,-2
1530692451828934,30,5,1,0,0,3,-2,0
1530692451828934,7,-9,-3,-3,-7,12,0,-7
1530692451843893,-1,15,2,0,-3,2,7,4
1530692451843893,-21,-11,0,0,2,-7,-5,-6
1530692451845888,-15,-12,-1,1,-1,4,3,7
1530692451845888,10,7,3,3,0,4,0,1
1530692451866832,1,-3,-4,-2,1,4,3,-4
1530692451866832,-28,-24,-3,-4,-1,0,-1,2
1530692451868827,-1,4,4,5,6,2,3,-12
1530692451868827,-5,-3,-3,-4,-3,-2,1,3
1530692451880795,-21,-5,2,1,2,-19,-17,-7
1530692451880795,37,-2,-5,0,-2,5,6,-10
1530692451889771,24,14,4,-3,-2,-7,8,30
1530692451889771,-20,-7,1,0,-2,-3,-7,-4
1530692451903733,-5,-6,-4,-4,-3,5,-20,-7
1530692451903733,-39,-20,-4,-4,2,37,16,-2
1530692451905729,7,-9,-7,-5,-5,-24,17,1
1530692451905729,17,16,2,1,1,28,2,3
1530692451926672,-12,-15,-2,-1,-1,-10,0,-1
1530692451926672,-11,5,-3,1,-3,2,8,-3
1530692451928667,-11,-7,1,-1,-1,9,-12,3
1530692451928667,21,21,-3,0,5,10,-6,-11
1530692451940635,-52,-28,-1,0,-8,-4,17,4
1530692451940635,6,2,-2,0,-4,2,-10,2
1530692451949611,-11,-1,4,-2,-1,7,9,-4
1530692451949611,12,15,7,-1,-3,-10,-4,9
1530692451964571,13,-8,-4,-2,0,16,3,-8
1530692451964571,2,4,-1,-1,1,-16,1,3
1530692451965568,-11,0,-2,-3,-4,-27,-13,-5
1530692451965568,-4,-12,-2,-3,-8,28,-10,-8
1530692451986512,9,7,-1,1,4,12,25,9
1530692451986512,-7,-7,2,2,1,-21,3,6
1530692451988507,15,11,-2,1,6,9,-4,-16
1530692451988507,-17,-15,-5,-2,0,-1,16,14
1530692452000475,37,9,-2,2,-6,7,-27,-6
1530692452000475,-19,7,-2,-3,5,-12,1,-6
1530692452009451,-7,-16,-2,0,-2,3,-5,-2
1530692452009451,-5,1,1,3,5,-13,6,10
1530692452023413,7,13,6,-2,-2,9,0,-3
1530692452023413,-29,-17,-2,1,1,-6,-22,-15
1530692452032390,25,16,-2,-1,-2,0,7,5
1530692452032390,10,12,-1,-2,-5,4,-1,-7
1530692452046352,-19,-16,-4,-3,-1,-14,-1,8
1530692452046352,20,16,1,-2,1,-11,4,1
1530692452048347,-28,-18,-3,1,0,34,0,-1
1530692452048347,-24,-16,0,-2,-3,-8,-11,-4
1530692452060315,-1,18,0,-3,-2,-15,4,-4
1530692452060315,11,0,-2,-1,1,1,-24,-3
1530692452069291,16,11,3,2,3,30,7,-6
1530692452069291,11,-8,-2,-2,-1,-9,2,2
1530692452084251,-24,-5,1,0,-1,-14,2,-6
1530692452084251,4,2,3,0,-1,4,-4,4
1530692452086246,-10,0,-6,0,-2,-25,-31,-10
1530692452086246,5,4,1,-2,6,28,12,-8
1530692452107189,-14,-8,2,2,-5,4,18,-2
1530692452107189,13,7,-5,-4,-6,34,8,0
1530692452108187,3,-21,1,0,2,-12,12,19
1530692452108187,11,13,2,3,-5,-50,-35,-2
1530692452120155,9,-2,-4,-3,6,14,16,7
1530692452120155,-14,-8,-1,-1,-5,2,3,4
1530692452129131,-12,-4,-3,-5,-5,-2,-3,-9
1530692452129131,-6,-14,-4,-1,-3,2,3,3
1530692452144091,10,8,-1,-2,3,-1,-7,0
1530692452144091,16,18,3,1,1,0,-2,-4
1530692452146086,-7,-27,-6,-4,0,-2,7,4
1530692452146086,24,21,4,2,5,11,17,10
1530692452167029,-3,3,1,1,-9,-20,-28,-8
1530692452167029,-4,-9,-3,-1,-4,-25,0,-11
1530692452168027,-14,2,-4,-3,-3,-11,5,5
1530692452168027,-35,-11,-2,-1,1,37,-2,-11
1530692452179995,35,3,-2,-3,-1,3,15,18
1530692452179995,-14,0,-5,-4,-1,-9,11,-2
1530692452188971,-5,7,2,2,-1,-19,-11,-5
1530692452188971,0,-14,-3,-1,-1,9,1,-4
1530692452203931,-15,-2,1,1,-1,14,4,1
1530692452203931,1,1,2,-1,3,-60,-21,-6
1530692452205926,6,-11,-3,0,-6,8,14,4
1530692452205926,-10,12,2,-2,-1,-7,-9,-8
1530692452226869,3,-27,-8,0,0,-6,0,9
1530692452226869,14,15,0,-2,1,25,9,10
1530692452228864,-3,7,2,1,0,0,-1,-9
1530692452228864,6,-8,-3,-1,-2,-16,-13,1
1530692452240832,-20,-3,-2,-1,4,9,4,-9
1530692452240832,7,-5,-2,-2,-8,18,15,6
1530692452249808,2,15,4,-4,-3,-18,-30,2
1530692452249808,0,-11,-3,-1,-2,-1,-7,-13
1530692452263771,12,8,-5,4,0,-16,3,1
1530692452263771,-29,-19,1,5,6,9,9,0
1530692452271750,22,11,-3,-3,-2,-1,24,0
1530692452271750,-5,-10,-1,0,-5,-13,-12,19
1530692452286709,-11,-2,-1,-2,1,-10,-24,-10
1530692452286709,-8,-6,-5,-5,-3,-10,3,-9
1530692452288704,5,11,3,2,5,74,10,-6
1530692452288704,-19,-20,-6,0,-8,-56,9,1
1530692452300672,18,10,3,-1,4,3,0,1
1530692452300672,6,15,4,1,-1,4,-7,6
1530692452309648,-11,-7,-3,-5,0,-1,-1,-1
1530692452309648,1,-9,-4,-3,1,8,3,-6
1530692452324608,-10,9,3,-1,-5,16,-3,-4
1530692452324608,-2,-10,-6,-4,-2,4,-1,-6
1530692452325606,-1,0,0,1,4,-14,-13,-2
1530692452325606,14,18,-3,-6,-2,11,8,11
1530692452346549,-29,-38,-2,6,6,-6,-4,-7
1530692452346549,20,14,0,-1,-4,5,12,10
1530692452348544,-7,1,0,-2,-3,-3,-10,-10
1530692452348544,5,5,1,-3,-2,-1,-2,4
1530692452360512,-9,-5,-2,-1,2,-6,-6,-10
1530692452360512,13,6,-6,-3,-1,-6,-1,2
1530692452369488,-12,-8,0,1,-4,5,-3,-9
1530692452369488,20,5,1,3,2,-1,14,8
1530692452384448,1,12,2,-3,-6,-7,-11,7
1530692452384448,5,5,9,4,3,-11,-4,-5
1530692452385445,27,10,-5,-4,-6,-1,1,4
1530692452385445,-7,-3,2,5,4,-16,4,-4
1530692452406389,-1,12,-3,-3,0,2,6,1
1530692452406389,-6,-30,-5,-3,0,-8,-8,7
1530692452408390,-4,0,1,2,3,-14,-8,-1
1530692452408390,-15,5,0,4,1,20,16,0
1530692452420352,25,0,0,-1,-1,5,-7,-2
1530692452420352,5,14,2,3,2,16,9,-7
1530692452429328,-30,-18,-3,-2,-4,-11,-5,-4
1530692452429328,14,1,-4,-2,-4,5,-5,0
1530692452443291,-1,17,10,-2,1,-6,5,2
1530692452443291,3,-9,-3,0,3,2,-5,5
1530692452450272,1,-1,-2,-2,-6,33,2,2
1530692452450272,-11,-11,0,1,10,-5,16,2
1530692452467226,-9,-1,-2,-3,-3,-14,-2,-3
1530692452467226,0,18,2,2,0,-6,0,-1
1530692452468224,-16,-20,-10,-2,-1,-8,11,-1
1530692452468224,7,11,-2,-3,-3,14,-13,-3
1530692452480192,-9,-40,-6,2,4,-8,-1,1
1530692452480192,5,33,9,1,-2,-9,1,-3
1530692452489168,19,13,1,0,3,-4,-2,-3
1530692452489168,25,4,-5,-3,-7,6,-4,11
1530692452503131,1,-6,1,1,4,13,4,-1
1530692452503131,-12,-7,-7,-5,-8,3,-13,-4
1530692452518090,6,-8,0,-1,2,-42,-1,8
1530692452518090,-11,-11,-2,-1,6,17,8,-22
1530692452527067,-3,18,1,-2,-4,7,-5,-5
1530692452527067,-4,-22,-4,-4,-4,-11,-9,3
1530692452528064,-12,-2,5,5,-2,24,-3,-8
1530692452528064,8,3,0,1,2,17,10,5
1530692452549008,-12,-2,-7,-5,-14,-66,-9,-2
1530692452549008,8,-4,0,0,9,21,20,-2
1530692452551003,17,16,0,-6,-5,-29,-14,0
1530692452551003,-45,-30,-4,-4,-4,1,-10,-9
1530692452562970,-2,7,1,-1,4,36,9,4
1530692452562970,9,-2,-3,3,-3,-11,-13,3
1530692452571947,-12,-8,1,1,8,-5,3,0
1530692452571947,23,8,-1,-2,-3,-11,5,-2
1530692452586906,-13,-22,-7,-2,1,5,-1,-3
1530692452586906,52,53,15,1,0,3,-13,3
1530692452587904,-5,-4,-2,0,2,16,9,-1
1530692452587904,1,10,2,0,2,-27,-8,-2
1530692452608848,-3,-4,2,-1,-3,24,8,2
1530692452608848,-29,-21,-10,-1,-1,-12,-8,-13
1530692452610843,3,-8,-1,2,-1,-7,-7,0
1530692452610843,9,13,7,0,-7,46,17,0
1530692452623808,-2,-19,-5,1,6,-7,-16,-1
1530692452623808,15,13,0,-3,-8,9,-12,-1
1530692452630789,-18,-6,0,-2,-2,-16,10,0
1530692452630789,0,2,-2,2,1,3,5,-2
1530692452646746,11,-1,0,-2,-6,-29,-10,5
1530692452646746,-13,-12,-2,-1,-2,8,0,-6
1530692452648741,-7,-8,0,-1,3,58,5,2
1530692452648741,-6,1,0,0,0,-53,-37,-15
1530692452669685,-3,0,1,0,2,27,17,2
1530692452669685,8,4,0,-3,1,-12,1,9
1530692452670683,-26,-22,-3,-2,-3,3,6,0
1530692452670683,3,0,-5,-1,0,2,-6,-1
1530692452683648,19,17,3,-3,-2,4,-4,-3
1530692452683648,-27,-26,-5,-1,-1,-9,5,-8
1530692452690629,1,10,0,-9,-11,-8,9,5
1530692452690629,29,5,-2,-9,8,27,-12,4
1530692452706587,2,7,2,37,2,-40,-7,-15
1530692452706587,-31,-22,-8,-7,-14,5,9,1
1530692452708581,21,30,7,5,5,-45,-15,-1
1530692452708581,-38,-25,-2,13,-2,-12,5,9
1530692452729525,21,-3,-5,-20,2,29,1,2
1530692452729525,9,10,7,27,8,9,10,-5
1530692452730523,24,15,-5,-16,-12,-14,-7,7
1530692452730523,-34,-15,-3,-31,-12,-13,-12,-10
1530692452743488,-8,-2,-1,8,3,-5,1,2
1530692452743488,-21,-21,-7,18,7,1,-6,-3
1530692452750469,10,-2,0,12,2,-4,-4,-3
1530692452750469,12,-8,-4,6,-2,6,9,0
1530692452766426,-19,14,5,-17,-4,24,5,5
1530692452766426,26,-10,-7,-23,-2,-49,-9,9
1530692452768421,25,11,5,6,0,32,2,-9
1530692452768421,-18,-3,1,-3,-6,-33,-2,7
1530692452789365,-6,-16,-9,-9,5,7,9,-3
1530692452789365,19,16,2,4,-7,12,6,14
1530692452791360,2,6,1,-5,2,-1,-7,-17
1530692452791360,0,-8,3,-1,1,-1,0,-4
1530692452803328,1,12,5,19,-6,12,10,2
1530692452803328,8,15,4,-10,6,-15,-25,-10
1530692452812304,-29,-22,-9,-6,-5,-6,9,-5
1530692452812304,-4,0,0,11,4,25,-25,-6
1530692452826266,14,14,-1,7,0,5,-6,-1
1530692452826266,-17,4,4,-7,1,29,11,-5
1530692452828261,14,-7,-6,2,-3,-16,1,4
1530692452828261,7,16,1,-7,-2,10,10,1
1530692452849205,0,-11,-3,-6,-2,-13,-2,0
1530692452849205,3,-2,-1,-2,-8,-9,1,7
1530692452851200,-16,-5,-2,-12,7,9,7,-1
1530692452851200,-4,11,3,10,-4,-10,-2,5
1530692452863168,17,2,-6,-4,-3,-6,-6,-11
1530692452863168,-53,-46,-3,-5,-3,-1,9,-4
1530692452872144,48,49,-1,-3,1,13,-11,10
1530692452872144,15,-5,-1,0,0,-38,5,2
1530692452887104,-34,-4,-1,-4,-3,-25,22,5
1530692452887104,3,2,0,-7,1,-15,-10,-4
1530692452888101,-27,-25,-4,4,-1,23,0,-17
1530692452888101,25,8,0,0,4,22,2,4
1530692452909045,14,22,4,5,-3,8,0,-3
1530692452909045,-34,-42,-7,-7,8,-6,9,-4
1530692452911040,-3,19,7,14,-1,-18,-6,9
1530692452911040,5,-14,-5,-3,-5,3,-17,0
1530692452923008,3,9,4,-7,-2,-2,17,-4
1530692452923008,-16,-7,-8,-6,-4,8,-7,-3
1530692452931984,19,-8,-3,0,-3,-12,-3,-7
1530692452931984,-47,1,-2,-1,3,18,4,-13
1530692452946943,17,9,8,-3,0,-16,-5,6
1530692452946943,23,19,0,2,5,25,4,3
1530692452947941,-11,-7,3,-3,-6,-16,-8,-3
1530692452947941,4,4,1,0,-4,-8,1,-6
1530692452968885,-13,-7,-7,-4,1,8,-6,-1
1530692452968885,5,1,3,1,2,9,16,4
1530692452970880,-23,-7,3,4,3,-19,-27,-6
1530692452970880,35,15,1,7,7,11,9,8
1530692452982847,-20,-14,-2,-2,-3,2,3,-2
1530692452982847,12,15,-3,-8,-8,10,6,8
1530692452991824,-27,-11,-7,-10,0,9,8,3
1530692452991824,-1,-8,-1,6,6,-11,-11,-5
1530692453006783,-3,-3,-2,-5,-14,-4,7,2
1530692453006783,-11,-2,0,4,-5,-16,-13,-7
1530692453008778,14,12,4,0,5,8,12,8
1530692453008778,-8,-21,-2,-4,-4,7,-6,-6
1530692453029722,8,1,-7,-4,3,16,-4,11
1530692453029722,22,13,5,4,-1,-11,13,2
1530692453030720,-7,-6,1,0,-4,-25,-12,3
1530692453030720,8,8,0,-5,0,38,14,3
1530692453042687,-6,-11,-4,0,5,-22,-14,-6
1530692453042687,0,-1,-1,3,-9,-35,-37,-15
1530692453051664,4,-2,0,-3,5,18,17,7
1530692453051664,-18,-21,-4,-3,-5,-17,-2,0
1530692453066624,19,27,0,-5,0,2,-5,-1
1530692453066624,3,0,-2,5,0,-17,-1,1
1530692453068619,-15,-16,-7,16,6,2,17,-3
1530692453068619,-1,4,0,-6,-3,-11,-8,-4
1530692453089562,-5,-5,2,11,3,-3,-7,-5
1530692453089562,3,7,0,-11,-1,16,11,5
1530692453090560,-1,1,-1,0,-1,7,5,-2
1530692453090560,18,4,-4,-3,-3,-28,-4,5
1530692453102528,3,-6,1,-3,-2,12,13,8
1530692453102528,-5,2,0,-4,-1,2,-3,-4
1530692453119482,0,-2,-3,-3,2,21,-15,-9
1530692453119482,10,14,4,0,0,-18,-12,-3
1530692453126464,8,9,3,3,-2,-5,1,-5
1530692453126464,-8,-39,-9,4,6,1,8,8
1530692453128458,14,12,1,-4,-8,-27,2,8
1530692453128458,-18,3,0,-7,-7,5,2,0
1530692453149402,-7,-6,-2,1,1,2,-8,-6
1530692453149402,-1,-8,-7,-2,-1,8,4,-5
1530692453150400,1,3,1,-4,2,7,-3,1
1530692453150400,0,-7,-1,4,-1,33,16,8
1530692453163365,-13,-3,1,-4,0,-65,-16,-10
1530692453163365,16,7,-2,11,1,8,-2,-5
1530692453172341,12,2,-2,-5,-3,5,-1,3
1530692453172341,11,-1,-3,2,-5,-34,-6,0
1530692453186303,-12,-15,-3,-10,-10,47,18,0
1530692453186303,5,13,2,-1,2,14,-9,4
1530692453188298,2,-8,2,3,2,-2,9,-3
1530692453188298,-11,2,-2,2,3,-7,7,-4
1530692453209242,9,2,-2,-4,-3,3,-19,0
1530692453209242,-1,7,2,-3,-4,-15,-18,-4
1530692453211237,-7,8,2,-9,-9,5,-11,-9
1530692453211237,-2,-23,-4,-3,3,-10,1,-2
1530692453223205,10,16,1,21,7,4,2,6
1530692453223205,-7,2,-2,0,-3,-2,5,-3
1530692453232181,-5,-12,0,-6,0,3,-1,-9
1530692453232181,16,31,6,-1,-2,7,-6,-5
1530692453247141,-13,-13,-4,-6,-1,0,2,6
1530692453247141,27,15,5,4,1,1,3,14
1530692453248139,-14,-8,-7,-3,-1,-4,1,1
1530692453248139,-10,-2,0,-1,-4,-12,11,-1
1530692453269082,0,-4,-1,-3,0,25,-1,7
1530692453269082,34,41,3,-4,1,-44,-1,-6
1530692453271077,-44,-60,-11,-5,-2,0,11,4
1530692453271077,7,8,1,-1,2,5,-3,-5
1530692453283045,-4,-5,-4,-4,-4,-23,-14,-7
1530692453283045,-56,-22,0,5,1,16,-7,-14
1530692453292021,18,18,2,4,2,13,25,21
1530692453292021,4,-10,-2,-2,1,1,-15,0
1530692453306981,-17,-12,-4,0,-6,-5,-3,-11
1530692453306981,5,2,0,-5,-1,5,1,0
1530692453307978,-6,10,3,2,1,-1,-5,-4
1530692453307978,8,6,1,-2,-6,-6,22,5
1530692453328922,18,5,0,14,1,0,-16,-2
1530692453328922,-11,-11,0,12,3,20,26,5
1530692453330917,3,6,2,11,1,-19,-17,0
1530692453330917,-10,-8,-5,-11,-4,-10,1,-3
1530692453342884,-2,3,1,-8,3,16,-7,-8
1530692453342884,-10,-7,-2,-12,-16,48,13,3
1530692453351861,50,12,2,4,5,-42,-26,-5
1530692453351861,-24,-6,-1,10,-1,3,-3,6
1530692453365823,0,-4,-3,-11,-3,-10,8,2
1530692453365823,-1,9,5,-1,3,19,1,-2
1530692453372805,10,10,2,-4,-2,35,12,4
1530692453372805,15,8,-4,-6,-8,-39,-24,-10
1530692453389759,-3,-14,-2,1,7,-3,-5,7
1530692453389759,-4,-3,2,0,-3,10,14,3
1530692453390758,-5,-2,-4,-5,-10,-20,-19,-6
1530692453390758,-2,10,2,0,1,21,8,-6
1530692453402725,-11,-22,-3,1,-3,-7,18,6
1530692453402725,6,-1,-1,-2,0,-15,-14,-6
1530692453411701,-8,-1,0,5,0,-3,-2,-1
1530692453411701,10,12,2,-8,3,22,7,11
1530692453425663,-7,-2,0,1,-4,-9,-7,-9
1530692453425663,-9,-9,-5,-2,1,-14,-15,-3
1530692453432645,0,5,3,-4,-2,3,8,-2
1530692453432645,-6,-13,-4,-6,0,11,5,1
1530692453449599,-3,11,4,-2,-1,-1,3,-3
1530692453449599,14,2,2,4,4,-17,-4,3
1530692453450597,-21,-3,-3,-2,-5,0,1,-4
1530692453450597,-36,-20,-4,3,3,-12,-10,-6
1530692453471540,32,25,0,-1,-3,7,6,3
1530692453471540,-4,-24,-1,0,4,0,1,9
1530692453473536,2,2,-2,-4,-2,-12,-1,-3
1530692453473536,-9,1,1,-7,-16,37,5,-7
1530692453486501,-16,0,-1,-23,7,-71,-18,-12
1530692453486501,-23,-11,-3,22,7,13,10,5
1530692453492485,47,17,2,19,6,5,3,8
1530692453492485,6,4,2,5,4,-5,3,6
1530692453509439,0,-8,-3,-7,-6,21,4,1
1530692453509439,8,17,3,-30,-9,-11,-10,1
1530692453510437,-22,-21,-5,-6,-2,-11,-6,-5
1530692453510437,4,19,2,7,-5,-1,5,-3
1530692453531381,-17,-4,0,-10,-1,17,6,7
1530692453531381,37,6,2,-8,9,-8,-3,3
1530692453533375,12,0,-5,-2,-4,5,-3,-1
1530692453533375,-16,6,-3,4,3,-2,-2,-9
1530692453546341,-6,-8,2,9,0,6,-3,-6
1530692453546341,-18,-11,-7,-9,-10,-6,-19,-6
1530692453553322,38,33,4,-7,1,4,10,2
1530692453553322,-21,-43,-7,-3,4,-23,1,5
1530692453569279,6,3,0,2,-2,15,20,6
1530692453569279,-22,-5,-3,13,-6,25,13,3
1530692453571274,-12,-9,-5,8,5,-19,-29,-27
1530692453571274,6,7,1,-3,-1,-10,-12,0
1530692453592218,-4,-1,0,4,-2,7,-3,-6
1530692453592218,3,-9,-4,-8,-5,-19,10,4
1530692453593216,-29,3,6,1,4,28,-8,-8
1530692453593216,21,4,0,4,3,-5,-19,-2
1530692453606181,6,1,-2,-2,0,9,15,0
1530692453606181,2,3,-1,2,-3,-12,0,-9
1530692453613162,-13,-4,-5,-5,-6,3,17,24
1530692453613162,0,18,3,-1,0,9,0,-6
1530692453629119,57,-28,-6,4,3,7,1,19
1530692453629119,-25,8,2,3,-2,-7,-14,-15
1530692453631114,0,-12,-2,-6,-9,-8,9,7
1530692453631114,-26,-15,5,4,8,19,10,-2
1530692453652058,-21,7,-3,4,0,5,-10,-4
1530692453652058,48,13,-5,-5,-2,-7,-1,-5
1530692453653055,-28,-16,-1,-9,-1,5,-1,-5
1530692453653055,17,2,-3,-1,-6,3,6,6
1530692453666020,-13,1,0,6,-1,7,-16,-7
1530692453666020,-6,-6,-2,0,-1,1,-4,-9
1530692453673002,-6,-5,-3,-16,-8,29,6,-3
1530692453673002,15,2,-2,-8,3,-23,1,0
1530692453688959,-13,0,6,22,10,19,2,-3
1530692453688959,-3,2,1,7,-3,-11,-2,2
1530692453690954,9,7,5,0,7,-45,-11,1
1530692453690954,-3,-8,-1,-7,-2,2,17,0
1530692453711898,3,15,1,-8,-1,7,0,-2
1530692453711898,32,11,-1,-4,-3,-8,5,17
1530692453712895,-20,-14,-2,0,-3,-5,-3,-4
1530692453712895,15,-3,-1,2,0,11,-7,5
1530692453725861,-28,-7,-2,-2,-1,-25,-10,-10
1530692453725861,4,3,2,6,-1,14,-1,-10
1530692453741818,15,-3,-6,-3,-2,-4,4,0
1530692453741818,-6,6,0,7,2,12,-5,-1
1530692453748799,-8,-23,-2,1,-3,-19,-4,5
1530692453748799,-28,-11,-6,-4,1,-16,4,-1
1530692453750794,49,15,4,3,3,12,-6,6
1530692453750794,-25,-11,-7,-3,-4,-3,7,-12
1530692453771738,-4,5,-4,-6,-9,-13,0,-6
1530692453771738,1,-5,0,-7,3,-22,-15,-1
1530692453773733,-20,-4,-1,-1,-2,11,4,-10
1530692453773733,20,7,1,1,7,70,6,2
1530692453785701,40,24,1,10,-9,-48,-6,7
1530692453785701,-17,-8,1,11,3,11,-6,-2
1530692453794676,-22,-5,-3,-6,-2,-13,1,0
1530692453794676,12,-6,-3,2,3,20,1,5
1530692453809636,3,15,4,-4,-11,19,-3,2
1530692453809636,-14,-20,-8,-14,-8,-1,1,-6
1530692453810634,-36,-8,0,6,1,-3,19,2
1530692453810634,13,4,-2,-5,-3,-14,-21,-1
1530692453831578,-64,-25,0,-10,5,10,-1,-11
1530692453831578,79,30,0,5,2,-8,-11,7
1530692453833573,-26,-17,-1,-1,1,7,3,-7
1530692453833573,2,18,5,3,-4,-30,-1,-7
1530692453845541,34,7,-1,-1,9,36,-6,5
1530692453845541,-46,-23,1,-3,-15,10,1,2
1530692453854517,8,0,-6,0,3,-51,3,3
1530692453854517,19,1,0,-9,5,-1,-6,-4
1530692453869477,-25,1,5,23,-16,-21,-13,-6
1530692453869477,2,14,3,3,10,63,15,1
1530692453870474,44,9,-2,1,4,-13,-20,2
1530692453870474,-4,0,1,10,-3,-15,19,10
1530692453891418,8,3,-6,-16,2,-9,-5,-1
1530692453891418,-24,-15,-3,-11,-5,2,-11,-14
1530692453893413,5,6,0,2,-3,19,-8,-4
1530692453893413,1,0,2,-4,0,-8,7,3
1530692453905381,5,0,-3,-6,1,-3,13,5
1530692453905381,3,9,-1,1,0,-18,-3,0
1530692453914357,-19,1,7,-2,0,20,0,2
1530692453914357,5,-5,-6,0,-1,-13,-9,-6
1530692453929316,-16,-37,-4,-4,4,0,6,-4
1530692453929316,14,4,-1,2,-7,-7,0,4
1530692453931311,47,35,1,4,12,9,5,7
1530692453931311,-13,-8,2,-1,0,-11,-8,2
1530692453951258,11,4,1,-4,-23,-2,-13,-9
1530692453951258,-37,-15,-5,-8,8,2,6,-9
1530692453953253,10,-3,6,15,-8,-2,8,1
1530692453953253,5,15,2,17,3,9,-1,5
1530692453965220,-4,-7,-1,-16,7,-8,-6,0
1530692453965220,-18,-15,-5,11,7,-12,-19,-9
1530692453974197,-3,9,-7,9,-15,-4,4,-1
1530692453974197,-26,-14,-3,1,0,-14,-6,-2
1530692453989156,-6,3,0,12,8,17,10,-5
1530692453989156,18,13,3,-7,-10,-16,-2,10
1530692453991151,-4,6,0,-13,0,-2,-1,-3
1530692453991151,-16,-33,-5,-9,-3,-5,-3,3
1530692454012095,9,27,1,-2,-1,6,6,6
1530692454012095,14,-1,-2,-5,1,-5,9,5
1530692454013092,-27,-15,-1,0,0,4,9,-2
1530692454013092,32,17,-3,-5,-7,6,-9,-2
1530692454025061,2,0,-6,-8,3,-5,-2,-7
1530692454025061,38,33,5,29,3,8,10,8
1530692454034036,-35,-54,-3,-7,-3,-16,-6,-5
1530692454034036,-38,2,0,-1,-1,4,0,-2
1530692454048996,36,20,1,-4,3,-17,7,7
1530692454048996,-21,-3,-3,-11,-4,-7,-21,-9
1530692454050991,-14,0,3,1,0,36,7,-8
1530692454050991,33,3,-5,24,8,30,0,5
1530692454071935,-16,-10,2,9,-6,-67,-5,-2
1530692454071935,-2,6,0,-18,0,-1,12,-5
1530692454072933,10,3,-4,-5,-2,3,-3,-2
1530692454072933,-6,-10,0,3,-2,-17,-18,2
1530692454085898,3,19,-1,4,0,40,26,6
1530692454085898,-42,-34,-2,3,4,-11,-7,-15
1530692454094874,56,18,-7,-13,-2,-3,-10,5
1530692454094874,-51,2,2,-7,-9,-7,9,3
1530692454108836,-8,7,0,-7,4,10,-2,-9
1530692454108836,11,-44,-8,-5,0,-1,1,11
1530692454110832,-28,3,0,-2,2,-9,-3,-2
1530692454110832,18,-3,-1,-7,0,26,5,-17
1530692454131775,-11,-2,-1,-7,-6,-7,3,7
1530692454131775,-1,12,-1,-1,1,11,-9,0
1530692454133770,37,20,3,5,1,-3,-10,-5
1530692454133770,-4,0,4,-5,-4,-11,0,-1
1530692454145738,-20,-34,-6,-4,0,-8,0,-4
1530692454145738,-6,15,0,-2,4,4,1,-7
1530692454154714,-20,-40,-8,20,0,-32,-16,7
1530692454154714,31,18,2,-4,-16,-1,14,-1
1530692454169674,5,8,0,0,2,16,-2,-3
1530692454169674,0,3,3,1,-2,-7,-2,5
1530692454170672,-3,12,-1,-10,1,67,2,-10
1530692454170672,-25,-24,-3,-5,8,-67,-13,-3
1530692454191615,48,7,-6,3,2,27,17,7
1530692454191615,-4,2,2,7,-3,-2,20,9
1530692454193610,-16,15,6,-2,-3,6,-11,-4
1530692454193610,20,-22,-7,-3,3,22,8,4
1530692454205577,3,18,4,4,-4,-16,-32,2
1530692454205577,10,5,0,-3,0,1,8,3
1530692454214554,-11,-17,-3,-1,-2,-14,2,3
1530692454214554,-10,4,-2,-2,-4,-4,6,-7
1530692454229514,-16,-3,1,-3,2,-3,-3,6
1530692454229514,-8,19,7,2,5,6,-8,-11
1530692454230511,33,-1,-3,9,-2,-7,4,1
1530692454230511,5,12,0,-9,-6,16,-3,3
1530692454251455,-1,-34,-6,-4,0,0,-12,2
1530692454251455,-11,-1,0,-3,-5,-3,-6,-5
1530692454253450,0,10,-1,-15,6,-28,-1,0
1530692454253450,-14,-12,-1,17,10,9,7,6
1530692454265418,3,10,6,-6,-2,-11,-5,-7
1530692454265418,19,-6,0,20,-2,-6,-15,1
1530692454274394,-14,1,-5,-12,-1,4,8,-8
1530692454274394,-10,-15,-8,-12,-8,-14,-11,-1
1530692454289354,-20,-7,-1,-2,11,7,-2,-5
1530692454289354,7,4,0,0,2,-11,0,4
1530692454291349,15,-5,0,3,2,21,5,6
1530692454291349,-42,-9,1,-2,-3,-29,-15,-12
1530692454311295,32,13,-3,-1,-5,3,1,3
1530692454311295,12,2,-1,-7,-1,8,7,4
1530692454313290,-26,-4,2,1,-4,-4,-4,-2
1530692454313290,5,-4,-1,-1,-1,0,2,0
1530692454325258,-11,9,-3,-1,-2,-2,-1,-13
1530692454325258,27,13,0,-1,2,16,5,1
1530692454334234,-23,-21,1,11,-1,-8,-7,7
1530692454334234,5,1,-4,0,-1,7,0,-7
1530692454348196,3,-8,-1,-13,-3,-8,11,1
1530692454348196,-16,-8,-2,-7,-5,7,-1,-2
1530692454355177,5,7,2,19,8,7,-19,-5
1530692454355177,-9,-2,1,-1,-9,6,11,-1
1530692454372132,35,28,1,0,-10,24,-10,2
1530692454372132,-39,-59,-12,-10,-6,-43,5,10
1530692454373130,0,6,1,-2,5,1,5,-3
1530692454373130,5,5,-3,-3,4,-1,-5,4
1530692454394074,-26,-12,1,5,-8,7,-25,-15
1530692454394074,23,20,4,-6,0,3,-4,3
1530692454396068,-11,-2,-4,-4,-6,-5,8,1
1530692454396068,12,2,0,5,2,-22,-2,6
1530692454409033,11,0,-1,0,3,13,17,3
1530692454409033,-30,-16,0,2,2,-9,0,-11
1530692454415017,-10,18,-2,-5,-7,-5,-13,-9
1530692454415017,25,3,3,-7,2,12,8,7
1530692454431972,-14,-14,-5,3,3,-12,-6,0
1530692454431972,-12,-2,2,6,6,13,7,-3
1530692454432970,16,4,-2,-9,-6,-21,3,-3
1530692454432970,7,19,2,-4,-4,50,-2,-1
1530692454453913,-36,-37,-5,0,1,-41,0,-2
1530692454453913,16,6,-2,8,-2,-13,-5,4
1530692454455908,-12,-13,0,-7,-2,9,8,6
1530692454455908,6,14,1,1,1,-11,-16,-10
1530692454468873,-13,-7,-1,0,0,-6,7,4
1530692454468873,24,14,-3,-8,-3,38,2,-2
1530692454475855,4,-11,-5,0,1,-6,1,7
1530692454475855,-12,-11,0,-3,-3,-13,-3,4
1530692454491812,27,33,2,3,0,9,7,0
1530692454491812,-34,-16,-2,-2,-3,-12,-1,-8
1530692454493807,11,-8,1,3,7,8,2,6
1530692454493807,1,-4,-3,1,2,-11,8,4
1530692454513754,-5,9,0,1,-4,-8,-6,-7
1530692454513754,-17,-7,-2,-1,2,7,0,1
1530692454515748,24,9,-2,-9,-4,9,-4,-1
1530692454515748,-18,3,-1,1,-2,-10,4,-11
1530692454528713,21,-10,-2,6,4,9,-5,14
1530692454528713,8,17,5,-2,-2,7,-8,-10
1530692454535695,-30,-22,-2,1,3,-8,9,-2
1530692454535695,15,-5,-8,-13,-8,-17,-5,-8
1530692454551652,-11,6,4,4,1,15,5,4
1530692454551652,-4,0,-4,-6,-6,0,-4,-4
1530692454553647,-6,5,-2,-5,-1,1,-5,0
1530692454553647,2,-1,0,7,5,9,18,-1
1530692454574591,0,-5,-2,-5,1,-10,-15,-8
1530692454574591,3,2,3,8,1,-11,-9,2
1530692454575588,17,25,2,-9,-5,-3,-2,-9
1530692454575588,-21,-29,-2,-1,4,-2,11,1
1530692454588553,11,-7,-7,0,-6,-3,1,4
1530692454588553,3,5,-1,-5,-4,-7,0,1
1530692454595535,-5,0,-1,2,-6,46,-6,-2
1530692454595535,21,20,1,0,-7,-56,-11,1
1530692454611492,-46,-36,-5,1,4,5,7,-1
1530692454611492,-7,2,-1,-2,-3,-14,-8,1
1530692454613487,-3,15,1,-1,1,10,6,0
1530692454613487,11,-19,-3,-2,-4,32,4,7
1530692454634431,-6,-2,-4,-11,-2,-27,-2,-7
1530692454634431,-9,6,0,3,-9,-13,-6,-1
1530692454635428,3,-12,1,18,1,-10,8,-1
1530692454635428,-11,18,2,2,2,7,-15,-5
1530692454648394,9,13,4,-1,0,-2,9,2
1530692454648394,-1,-7,-4,-4,-1,8,-3,-4
1530692454657370,27,-15,-4,-14,-1,-25,3,11
1530692454657370,-6,5,1,22,2,9,1,-2
1530692454671332,5,1,1,0,-2,11,-3,-1
1530692454671332,1,4,1,0,1,3,-1,-6
1530692454673327,-4,4,-5,-5,-8,-13,-5,1
1530692454673327,15,-1,-2,-3,-1,1,-2,-6
1530692454694271,-4,6,1,4,2,7,1,6
1530692454694271,-3,12,11,10,7,3,-15,-24
1530692454696265,48,0,-10,-10,-5,-11,5,27
1530692454696265,-8,4,0,-18,-5,0,-7,11
1530692454708233,-2,-3,1,14,7,6,1,-24
1530692454708233,11,27,7,5,6,4,6,-8
1530692454717210,-9,-51,-10,-2,-4,2,-2,0
1530692454717210,44,28,-2,-23,-8,-7,-3,2
1530692454732169,-10,1,-3,-19,-9,-21,-7,-4
1530692454732169,3,-10,0,39,15,6,3,3
1530692454733167,-15,-1,5,20,12,2,-12,1
1530692454733167,5,6,-4,-6,-12,-33,-4,-7
1530692454754111,-10,-14,-3,-18,-7,-11,12,1
1530692454754111,6,-6,-9,-27,-1,31,-8,7
1530692454756105,-16,8,5,10,-1,-15,14,-5
1530692454756105,-17,-11,2,5,6,16,-2,3
1530692454768073,-4,0,1,-5,-5,-3,-1,0
1530692454768073,19,10,-4,-8,-4,-16,13,4
1530692454777049,-17,-19,-1,-5,-3,9,-32,-20
1530692454777049,-16,-8,-2,1,3,3,-5,-3
1530692454792010,0,9,1,5,3,1,0,9
1530692454792010,2,-9,-5,-6,-3,9,1,12
1530692454793007,7,16,5,-1,-7,32,3,-7
1530692454793007,-29,-13,0,3,4,-16,-3,-3
1530692454813951,15,0,2,12,8,5,-5,-15
1530692454813951,58,20,4,-3,5,-9,-1,16
1530692454815945,-13,-3,-2,-16,-9,11,4,-6
1530692454815945,-12,-1,1,12,0,-6,-25,-37
1530692454827913,-12,0,2,20,3,18,-2,79
1530692454827913,21,1,-1,-6,-2,16,16,3
1530692454836889,8,19,-1,-5,-4,-32,0,-7
1530692454836889,-31,-24,-2,-15,2,3,14,6
1530692454851849,34,9,-3,-6,-2,9,3,6
1530692454851849,-28,-18,-6,-2,-4,-17,-10,-9
1530692454853844,-15,10,2,-1,2,-7,-1,-3
1530692454853844,15,2,-1,2,4,22,6,4
1530692454873791,-13,-6,0,1,-4,-10,-8,-10
1530692454873791,-2,-13,0,0,-6,-7,1,5
1530692454875785,-37,-1,2,-2,3,3,-4,-10
1530692454875785,23,8,-3,1,0,10,2,7
1530692454887753,22,16,5,-1,0,-1,4,-12
1530692454887753,-18,-5,-2,-5,-4,41,3,-10
1530692454896729,-3,-27,-8,2,-3,-29,-1,11
1530692454896729,-3,7,4,2,9,5,-3,15
1530692454911689,-2,4,-2,-8,-12,-1,11,-9
1530692454911689,5,16,7,7,2,1,1,-7
1530692454913684,-2,-9,-5,-2,3,-6,-19,-10
1530692454913684,12,18,0,5,3,12,14,-3
1530692454934628,-4,-5,-2,-15,-5,-1,-24,-24
1530692454934628,-16,-12,-1,18,7,-20,8,6
1530692454935626,11,12,4,22,5,-2,7,2
1530692454935626,13,-5,1,0,-2,-5,-18,1
1530692454947593,-46,-14,-8,-4,-2,9,0,-11
1530692454947593,-1,-5,-4,-15,-10,-8,4,2
1530692454956569,-18,3,-1,-10,-1,2,5,7
1530692454956569,16,-6,-7,0,-9,5,2,0
1530692454971529,21,31,7,-2,5,-4,4,-2
1530692454971529,-21,-52,-12,-6,-7,-19,-5,4
1530692454973524,3,11,3,-2,-1,6,16,11
1530692454973524,-8,0,3,-2,-5,0,-1,0
1530692454994468,0,-4,-5,-3,-5,-4,-4,-12
1530692454994468,0,-3,-2,6,6,-10,-15,-9
1530692454995465,-13,-1,-3,-3,3,16,8,-4
1530692454995465,13,6,1,1,-10,-50,-4,-1
1530692455007433,15,-5,2,7,10,12,11,11
1530692455007433,-14,20,2,-6,-8,-8,-13,-2
1530692455017407,46,-5,-6,-5,2,6,11,-4
1530692455017407,-8,23,4,5,-3,-11,-8,1
1530692455031369,-12,-23,-4,2,12,23,5,4
1530692455031369,-15,-13,-8,-6,-4,-10,2,3
1530692455033364,-6,7,4,-1,-7,11,4,2
1530692455033364,10,4,-5,-9,0,1,-3,-2
1530692455053310,25,13,1,12,-5,-2,0,0
1530692455053310,-2,2,1,-6,4,1,-7,-1
1530692455062287,-9,-20,-5,4,-1,-11,-1,-6
1530692455062287,-28,29,9,3,-1,14,0,-8
1530692455068270,7,-48,-9,-8,-3,-16,-9,6
1530692455068270,-7,17,2,-5,-1,-1,-4,-11
1530692455077247,6,0,-3,-6,0,-27,0,-4
1530692455077247,-24,-26,-2,3,2,78,10,-4
1530692455092207,30,16,3,6,2,-9,16,8
1530692455092207,-1,-7,0,-3,-6,-60,-26,-17
1530692455098191,2,12,0,15,2,19,-17,2
1530692455098191,-7,-9,-6,-4,-2,5,13,-1
1530692455114148,-3,7,2,-2,5,13,-10,-6
1530692455114148,-1,-14,-7,0,-5,11,11,-5
1530692455116143,-35,17,5,-6,-5,-16,13,9
1530692455116143,25,0,-1,1,3,-9,-1,0
1530692455128111,-19,-6,-7,-1,-5,0,-5,-3
1530692455128111,10,15,3,-2,1,-1,1,-3
1530692455137087,-10,-33,-5,-1,-6,7,-1,8
1530692455137087,3,2,0,1,2,-5,-4,-9
1530692455152046,-28,-5,-2,-7,-4,-9,-14,-12
1530692455152046,17,18,6,2,2,13,11,10
1530692455153044,32,11,2,-1,3,4,3,8
1530692455153044,-22,-17,-7,-6,-5,-23,-4,-2
1530692455173988,-10,-5,-3,0,2,1,-2,-7
1530692455173988,-20,-8,-3,1,0,18,4,2
1530692455175983,28,5,0,0,0,2,-2,-2
1530692455175983,-24,-3,2,3,4,-46,-22,-3
1530692455187950,-16,-9,-3,-7,-17,-13,1,-2
1530692455187950,4,-1,-6,-4,1,10,20,9
1530692455196927,-1,3,1,-3,1,2,-6,-1
1530692455196927,20,-2,-4,-2,0,1,2,5
1530692455211886,10,12,2,2,-1,8,2,-2
1530692455211886,4,-4,2,1,0,4,-2,8
1530692455213881,-12,-8,-6,-5,-3,-13,-15,-19
1530692455213881,-2,-2,-1,-1,4,21,17,14
1530692455233827,1,4,-3,-3,-5,-18,1,1
1530692455233827,21,17,-1,-4,-7,-14,0,-1
1530692455235823,-24,-35,-5,-1,2,-7,17,5
1530692455235823,-11,-3,1,2,0,22,-16,-1
1530692455247790,18,3,-1,-2,0,0,1,-5
1530692455247790,-15,-2,-6,0,-3,6,-6,-3
1530692455256766,-4,18,4,2,2,-17,-19,-7
1530692455256766,10,-27,-6,-6,-13,-13,27,11
1530692455270729,-9,1,4,6,5,-2,1,-2
1530692455270729,-5,4,4,2,2,13,1,-7
1530692455277710,12,9,-1,-3,-4,3,-3,0
1530692455277710,-7,1,2,-1,0,7,0,-2
1530692455294665,10,8,-2,-2,3,1,-12,1
1530692455294665,-23,-27,-5,-3,-2,-2,-6,-9
1530692455295663,3,11,1,-3,1,6,5,-7
1530692455295663,2,-5,-3,1,-1,-8,-4,0
1530692455307631,-4,-3,-1,-1,-5,1,6,2
1530692455307631,3,6,3,-1,1,-16,-4,3
1530692455316606,4,-24,-2,1,2,18,8,5
1530692455316606,-3,21,3,-1,0,-4,-10,2
1530692455331567,0,-16,0,1,-2,10,4,5
1530692455331567,-7,0,-3,1,-1,5,3,4
1530692455337550,-8,0,-1,0,-1,-7,-5,-11
1530692455337550,11,4,-2,-3,1,18,24,9
1530692455354505,16,0,1,-2,-8,-59,-29,-7
1530692455354505,34,-8,1,3,5,-5,4,13
1530692455355502,3,15,-5,-4,-9,-3,-13,-1
1530692455355502,-6,-13,-3,-2,1,23,6,-2
1530692455376446,3,15,-1,-1,0,14,18,-7
1530692455376446,-23,-16,2,1,0,1,9,-3
1530692455378441,11,3,2,2,5,-10,-27,-9
1530692455378441,3,5,-1,-7,-6,-16,-11,-3
1530692455391406,-23,-9,-3,1,3,5,-2,-2
1530692455391406,8,1,-1,3,3,8,-1,4
1530692455398388,-22,-1,4,1,-5,-22,1,0
1530692455398388,25,1,-3,0,4,9,-7,-2
1530692455414345,-14,17,3,-1,3,16,5,-2
1530692455414345,-9,-7,-1,-3,-6,-17,-4,-1
1530692455416340,-12,-18,-5,0,-1,7,12,6
1530692455416340,1,3,-4,0,-1,-16,-13,-16
1530692455437284,-3,3,3,0,1,6,3,1
1530692455437284,11,-1,-4,-2,-3,6,-3,0
1530692455438281,-1,-3,-2,-4,3,-4,1,0
1530692455438281,-4,-6,0,2,-9,3,-3,1
1530692455451246,-5,3,1,3,6,5,9,3
1530692455451246,-1,3,0,0,-2,7,10,-5
1530692455458228,5,19,6,0,2,-7,-20,-6
1530692455458228,-25,-36,-10,-5,-3,-15,4,-2
1530692455474185,-7,-5,0,4,4,13,-11,-6
1530692455474185,-4,2,-1,-1,2,-16,-20,-7
1530692455476179,0,-7,0,1,-4,21,25,3
1530692455476179,2,19,3,-1,2,30,10,-3
1530692455497124,-18,-20,-6,-7,-1,-55,-7,-7
1530692455497124,63,12,2,-1,0,-23,3,18
1530692455498121,-17,12,3,-5,-4,-8,-1,4
1530692455498121,-7,-1,4,2,0,-7,-15,-8
1530692455511086,0,-1,-2,-3,0,25,-1,-4
1530692455511086,-14,-13,-7,-4,-2,6,-9,-1
1530692455518068,3,-4,-4,-3,-4,-12,9,4
1530692455518068,11,24,6,11,13,5,-2,-1
1530692455534025,-2,-14,-7,-2,-19,-7,8,11
1530692455534025,-18,3,1,-2,-1,5,-9,-8
1530692455536020,13,-6,-2,-3,-3,5,1,5
1530692455536020,-3,7,0,-3,1,-12,3,-5
1530692455556963,3,3,-1,-1,0,3,-2,1
1530692455556963,9,0,-3,-2,-2,2,5,2
1530692455557961,-30,-36,-7,1,-2,-13,0,-1
1530692455557961,6,-1,2,1,3,13,-12,-5
1530692455570926,6,7,-2,0,0,5,-3,-2
1530692455570926,-1,4,-1,-6,-3,-22,5,3
1530692455577908,16,13,0,6,-2,4,4,1
1530692455577908,-11,-13,-1,-1,0,-10,1,-2
1530692455593865,0,7,5,0,-2,9,7,6
1530692455593865,-16,-2,-2,1,2,15,3,-10
1530692455595860,-5,3,1,-3,6,43,-13,-7
1530692455595860,19,-21,-4,-1,-10,-49,-21,4
1530692455616804,12,17,5,5,6,0,-8,-5
1530692455616804,-25,-1,-3,-2,-3,-9,0,-10
1530692455618798,10,8,-2,1,1,6,-2,-5
1530692455618798,-27,-8,1,-6,-4,9,8,3
1530692455630766,1,-19,-5,-7,-1,-2,-3,-4
1530692455630766,4,0,2,-3,-3,8,-1,4
1530692455639742,6,15,0,-2,2,-13,5,0
1530692455639742,-13,-8,-8,4,1,2,2,0
1530692455654702,7,-2,0,-1,-1,-9,1,0
1530692455654702,5,8,2,0,2,-1,6,1
1530692455655700,8,1,0,-12,-2,6,-18,-9
1530692455655700,14,14,4,-1,-1,-1,14,-3
1530692455676643,-11,5,3,6,1,15,1,4
1530692455676643,-7,-7,-3,-9,-6,-5,-8,-3
1530692455678638,3,-16,-5,2,1,-7,3,5
1530692455678638,9,19,5,2,6,10,3,5
1530692455690606,-14,-28,-8,0,-9,-19,-9,0
1530692455690606,-17,0,1,8,2,10,2,-10
1530692455699582,-5,-1,1,7,1,2,14,-2
1530692455699582,12,-4,-1,-3,2,29,9,-2
1530692455714542,13,9,-2,-8,1,-84,3,9
1530692455714542,-7,8,5,3,-1,-3,-16,4
1530692455715540,0,-4,-5,-2,-4,6,-13,-10
1530692455715540,-21,-2,0,-2,-4,-7,-5,-11
1530692455736483,12,11,-1,-1,1,24,3,-5
1530692455736483,-12,-23,-7,-1,-1,-2,-2,2
1530692455738478,-4,-3,5,-1,-1,-5,4,2
1530692455738478,-5,-8,-4,-2,-7,-8,0,6
1530692455750446,3,8,-2,-4,-2,18,-2,-5
1530692455750446,-1,3,1,0,6,6,-2,-2
1530692455759422,-12,-13,-1,2,-7,-10,1,-3
1530692455759422,27,8,1,-1,1,-4,1,3
1530692455774382,-7,2,4,-1,1,15,-7,-1
1530692455774382,-18,-2,-1,-5,0,9,-5,-9
1530692455776377,-1,-3,-1,-1,8,24,6,4
1530692455776377,4,9,-3,-2,-17,-32,-9,0
1530692455796323,-7,-9,2,3,6,-11,1,5
1530692455796323,13,6,0,4,2,30,8,-6
1530692455798318,21,18,0,1,2,-10,4,11
1530692455798318,-26,-16,-2,-1,1,3,-3,-7
1530692455810286,17,6,-1,-2,-5,14,-10,5
1530692455810286,-13,-11,-2,10,3,-38,14,-2
1530692455819262,1,-9,-4,-3,4,-7,2,5
1530692455819262,22,14,0,7,-2,12,-6,-6
1530692455834222,0,-9,-5,-4,-5,-16,-16,1
1530692455834222,24,-9,-3,-1,-5,13,-4,7
1530692455836217,2,23,4,4,4,-2,10,-5
1530692455836217,6,1,-4,-4,3,-15,3,2
1530692455857161,-26,-31,-9,-4,-3,-9,2,-2
1530692455857161,6,14,-1,-3,-8,-7,-9,1
1530692455858159,9,-5,-3,-4,-7,9,-13,-14
1530692455858159,-15,0,-1,-4,2,5,7,3
1530692455870126,9,-7,-2,2,2,10,12,7
1530692455870126,6,4,-2,-5,3,-1,9,5
1530692455879102,-28,-4,3,4,-8,-11,-11,-2
1530692455879102,-14,-13,-2,-4,-1,-5,-2,-4
1530692455894062,15,7,0,2,-1,-4,-12,-5
1530692455894062,-21,-12,-4,-6,3,17,15,-4
1530692455896057,2,0,-4,-5,-2,-8,-8,-6
1530692455896057,3,3,1,16,3,0,-1,2
1530692455917001,-6,4,2,0,2,17,11,-3
1530692455917001,16,4,2,0,-5,-13,-17,1
1530692455917998,2,1,-2,-3,-4,16,2,1
1530692455917998,-1,-1,0,-5,0,-55,-22,-5
1530692455929966,27,-3,-2,1,0,30,-6,-10
1530692455929966,-46,-3,1,2,-2,6,12,-3
1530692455938942,47,12,3,-1,-5,-21,8,19
1530692455938942,-34,-8,-1,-3,2,16,-4,-6
1530692455952904,2,9,-3,1,-5,-19,2,-4
1530692455952904,-9,-15,0,5,16,0,1,0
1530692455961881,-15,5,1,-2,-1,11,15,-4
1530692455961881,11,-2,-1,-1,7,7,-14,5
1530692455983822,6,13,5,0,-11,-1,-1,-3
1530692455983822,6,-1,-3,-2,-9,-5,-3,-4
1530692455985817,-39,-16,-6,4,2,-24,-13,-11
1530692455985817,11,10,-4,-7,-3,17,12,11
1530692455990804,-9,-4,-2,-2,1,-7,0,1
1530692455990804,33,13,4,-2,-7,11,-1,6
1530692455999780,1,-15,-4,-2,2,22,2,2
1530692455999780,4,7,1,-1,3,10,10,4
1530692456014739,-16,-9,-3,-2,-1,10,6,-2
1530692456014739,2,9,-2,-10,-11,-24,-7,-4
1530692456015737,8,-4,-3,-1,-4,4,-3,2
1530692456015737,0,-9,-2,1,-3,-4,10,3
1530692456036681,-7,-6,0,3,5,-2,-6,3
1530692456036681,3,0,-3,5,5,28,7,-8
1530692456038675,-2,4,-1,0,-3,-9,-3,-1
1530692456038675,4,-6,0,2,-1,10,-18,1
1530692456050643,-10,1,1,-1,6,3,15,-1
1530692456050643,17,9,0,-2,-16,-19,-10,8
1530692456059620,-5,-14,-7,-4,-1,2,4,1
1530692456059620,-8,2,0,-7,-5,-11,-7,-5
1530692456074579,-5,2,1,4,3,7,4,-2
1530692456074579,-1,1,3,14,6,9,-9,-5
1530692456075577,18,10,4,-2,-2,-9,1,3
1530692456075577,2,-10,-2,-1,-1,-9,0,1
1530692456096521,0,13,-1,-3,-5,11,10,2
1530692456096521,-22,-22,-4,-4,-7,-22,2,-3
1530692456098515,4,7,2,3,2,-24,-14,-4
1530692456098515,5,6,1,1,3,6,-1,-10
1530692456110483,-7,-5,-1,-2,-1,-11,-10,-5
1530692456110483,4,5,0,-3,2,9,9,8
1530692456119459,-29,-13,-3,-5,-5,-4,-6,-9
1530692456119459,12,3,-3,2,4,-12,6,1
1530692456134419,2,6,-1,-2,0,-27,-22,-7
1530692456134419,8,0,-1,0,2,30,7,-4
1530692456136414,2,3,1,-2,3,24,-3,-2
1530692456136414,2,-8,-3,-7,-15,-27,-7,-3
1530692456156360,-6,-4,-3,-4,1,4,16,9
1530692456156360,3,-3,-3,-2,-1,-12,-4,0
1530692456158355,6,2,0,13,6,21,3,3
1530692456158355,-6,3,0,-3,-2,19,11,-2
1530692456170323,20,0,4,2,4,11,-11,-3
1530692456170323,-25,2,-3,-8,-6,-15,-34,-9
1530692456179299,17,-8,-6,-7,-3,-9,14,9
1530692456179299,-15,-8,1,0,5,-4,-15,-2
1530692456194259,-7,-6,2,9,2,17,15,-5
1530692456194259,30,17,5,2,1,33,10,5
1530692456196254,-42,-14,-2,-4,-6,-44,-13,-1
1530692456196254,-14,-35,-4,6,4,5,3,3
1530692456217198,20,21,0,-4,2,26,7,5
1530692456217198,8,-7,-2,-3,-5,-50,-19,-7
1530692456218195,-1,15,8,-1,-3,6,-11,-10
1530692456218195,6,1,-3,8,-3,-3,11,1
1530692456230164,-18,-1,0,3,3,13,4,7
1530692456230164,-7,-11,-3,0,-2,-7,23,10
1530692456239139,6,4,1,-5,-2,4,-1,6
1530692456239139,5,0,-2,1,-3,-43,-17,-15
1530692456253102,2,4,-1,1,7,25,10,-9
1530692456253102,9,-4,-1,1,7,-17,14,8
1530692456260083,8,-4,-1,-1,-1,-5,7,0
1530692456260083,-8,-1,1,-3,1,26,10,3
1530692456277038,-3,-3,-5,-8,-13,-57,-30,-4
1530692456277038,2,-2,-4,-8,1,25,-1,-2
1530692456278035,-19,-3,1,18,8,23,3,-5
1530692456278035,-10,6,-2,-1,-4,-19,-1,-1
1530692456298979,40,2,2,4,-6,-1,6,0
1530692456298979,-24,-7,-3,-3,1,6,-5,-3
1530692456300974,14,5,-2,-5,-1,-4,-1,-9
1530692456300974,-39,-12,4,-5,-1,13,-1,4
1530692456313939,-17,2,-7,-5,-5,-13,-4,-2
1530692456313939,3,-10,3,3,2,16,1,-2
1530692456319923,31,10,-5,-9,-8,-24,4,16
1530692456319923,-17,-11,-2,1,5,26,-6,-6
1530692456336878,4,-4,-2,-2,-4,4,18,2
1530692456336878,-9,2,-1,1,-2,-15,-9,-5
1530692456338873,-13,-1,-2,-4,0,5,2,1
1530692456338873,16,6,-1,-5,-3,3,9,7
1530692456358819,1,0,3,4,6,18,-16,-6
1530692456358819,-18,-7,-6,-4,-9,-30,-4,-10
1530692456360814,19,-7,-1,0,-2,-29,-5,9
1530692456360814,6,17,2,-1,-6,18,11,-3
1530692456373779,-11,-9,-1,-3,-3,11,5,1
1530692456373779,29,15,0,0,3,18,-4,-2
1530692456380760,-27,-20,-3,-4,-2,-1,-6,-6
1530692456380760,43,25,3,-2,6,0,-8,2
1530692456396718,-35,-10,0,0,10,-6,3,0
1530692456396718,16,-7,-3,-1,-20,-2,-20,-17
1530692456398713,-11,4,3,-4,-2,-7,-5,2
1530692456398713,5,-7,-3,-1,-10,-11,5,-2
1530692456419656,6,0,2,3,7,0,4,6
1530692456419656,-15,10,-2,-1,9,0,-2,0
1530692456420654,0,3,2,0,5,86,20,-7
1530692456420654,5,-6,-3,-4,-5,-68,-14,5
1530692456433619,-2,8,1,0,-6,-12,-10,-7
1530692456433619,-33,-32,-4,-3,-8,-23,9,9
1530692456440601,22,26,1,-3,-1,30,0,10
1530692456440601,-10,-2,-1,-4,10,21,-6,-20
1530692456456558,3,-2,-2,-3,-3,35,12,4
1530692456456558,-10,-7,1,7,2,-14,-8,0
1530692456458553,11,20,2,4,-6,-8,-16,-10
1530692456458553,-8,-21,-7,-6,-5,8,-3,7
1530692456479496,4,12,2,-11,-2,17,-15,-10
1530692456479496,-23,0,-2,-16,6,-65,-1,-4
1530692456480494,-1,-39,0,21,4,12,31,20
1530692456480494,1,17,6,9,-4,15,-8,-4
1530692456493459,-2,-1,-7,-2,-7,-16,2,-7
1530692456493459,16,14,2,-4,-1,40,1,2
1530692456500440,22,-3,-5,-17,-3,-35,-11,7
1530692456500440,-6,-8,-2,-4,-1,-12,4,-4
1530692456516398,-9,-11,-1,5,-6,-10,0,0
1530692456516398,9,7,-2,-1,1,1,-5,3
1530692456518393,-16,-10,-3,-1,7,-11,-7,-19
1530692456518393,17,12,0,6,-1,28,11,8
1530692456539336,2,1,-1,-3,-5,-27,-9,4
1530692456539336,0,1,1,2,-6,4,3,5
1530692456541331,-2,11,1,0,-5,15,-1,-5
1530692456541331,-16,-11,-2,18,5,-3,2,2
1530692456553299,3,-13,-3,-1,10,49,3,4
1530692456553299,23,8,1,1,-4,-58,17,9
1530692456562275,-8,-1,4,1,-4,19,-25,-18
1530692456562275,6,16,1,-15,-6,-7,-2,-3
1530692456577235,-12,-26,-7,15,-1,-3,8,5
1530692456577235,-2,14,6,6,11,39,7,6
1530692456578233,49,15,-6,-5,-2,-26,-5,0
1530692456578233,-40,-24,2,-1,-5,11,-2,4
1530692456599176,16,17,0,-5,-3,-34,-8,-4
1530692456599176,-5,-7,-1,2,0,38,4,-6
1530692456601171,-19,0,-1,-4,2,-35,-11,-11
1530692456601171,2,-9,-6,-7,-5,1,-2,1
1530692456613139,8,8,3,-2,-1,-11,1,6
1530692456613139,8,-11,-1,0,4,14,-8,-1
1530692456622115,-24,-1,-2,-2,-6,-15,4,-2
1530692456622115,11,10,5,5,9,18,3,-2
1530692456637075,41,-9,-5,-5,-15,-32,-6,9
1530692456637075,9,6,0,1,-1,-2,-1,-10
1530692456638072,0,1,1,3,3,-21,-3,6
1530692456638072,-21,-7,-3,-4,-2,-13,0,-6
1530692456660014,-36,-11,1,-3,3,-11,-1,-7
1530692456660014,44,4,-4,-1,1,7,-6,2
1530692456662008,-26,-11,-2,0,-3,16,9,-9
1530692456662008,-7,-12,-6,-5,-4,-23,-8,0
1530692456681955,-1,1,3,0,5,37,0,-4
1530692456681955,-8,0,0,-3,-3,-8,10,7
1530692456682953,-4,5,1,9,3,-8,-14,-1
1530692456682953,-9,-9,-6,-2,3,16,-6,-14
1530692456696915,-6,21,-1,-1,-9,-45,-6,6
1530692456696915,-11,-27,-1,5,3,46,14,-1
1530692456697913,18,12,1,-4,2,-5,0,10
1530692456697913,-6,1,2,1,-2,-1,11,4
1530692456718856,-15,-14,-2,1,2,-9,-24,-28
1530692456718856,24,36,5,2,6,-12,-8,-1
1530692456720851,-34,-18,-3,0,-7,2,8,-12
1530692456720851,26,0,-3,-5,2,-2,4,13
1530692456732819,-14,4,0,-3,-7,-4,5,0
1530692456732819,-14,-9,-4,0,2,9,1,-5
1530692456741795,-3,-7,0,-1,2,10,-3,-4
1530692456741795,13,12,-2,-1,-4,-14,-7,3
1530692456756755,33,8,0,1,2,-5,-1,11
1530692456756755,-60,-12,-3,1,-1,7,-1,-9
1530692456758750,28,21,0,-4,-4,-9,0,4
1530692456758750,-38,-17,-4,-5,-7,-4,-14,-11
1530692456779694,32,-16,-4,0,4,5,10,15
1530692456779694,6,13,1,-3,-7,-23,7,5
1530692456780691,7,4,2,7,-2,1,-12,6
1530692456780691,-17,14,0,0,0,9,8,-10
1530692456792659,9,-5,-2,-2,-1,-20,-10,-8
1530692456792659,0,2,-2,0,2,5,3,9
1530692456801635,-26,-8,-2,-4,-2,-7,0,-13
1530692456801635,21,7,2,3,7,1,-3,9
1530692456816595,-21,-21,-5,-1,-4,23,7,1
1530692456816595,7,17,2,-8,-3,25,-5,-8
1530692456818590,-18,-25,-6,2,3,-26,-5,0
1530692456818590,29,8,0,-1,0,5,3,10
1530692456839534,-19,5,2,5,-2,-9,0,-2
1530692456839534,29,11,1,-2,0,15,0,2
1530692456840531,-30,-27,-5,-6,1,26,9,-2
1530692456840531,16,9,-1,1,-4,-14,0,5
1530692456852499,-33,-6,-2,-5,1,30,-9,-4
1530692456852499,-7,-8,-3,1,-7,-53,-17,-4
1530692456862472,29,30,4,0,-4,2,17,4
1530692456862472,-47,-55,-6,-6,3,8,4,-6
1530692456876435,8,10,-2,-3,-7,6,-1,1
1530692456876435,-24,-20,-4,1,5,-6,-18,-10
1530692456878430,27,30,3,-1,-3,-9,-7,-1
1530692456878430,-8,-25,-5,-1,-2,-4,6,8
1530692456906355,0,15,2,1,5,6,-2,-10
1530692456906355,1,-19,-2,2,4,1,-7,10
1530692456908350,-8,3,-1,-2,-5,-5,3,4
1530692456908350,32,20,3,-2,-7,-12,-9,-8
1530692456913336,-15,0,-1,-7,7,-11,1,2
1530692456913336,-28,-7,2,14,-1,15,24,-8
1530692456922312,24,-18,-7,-6,3,3,-9,0
1530692456922312,13,10,0,-1,0,5,-2,3
1530692456937272,-5,10,3,-3,0,-10,-6,-6
1530692456937272,12,3,2,-4,-2,3,-4,-2
1530692456938270,-19,-8,-2,0,1,9,5,5
1530692456938270,8,11,-2,0,-5,-12,-7,-9
1530692456959214,6,-7,0,-1,-1,5,7,1
1530692456959214,-12,-14,-5,-5,-1,34,-6,6
1530692456961208,-1,-7,0,1,-9,-24,-2,-4
1530692456961208,-2,19,2,-3,3,-4,-4,2
1530692456973176,13,2,1,0,-7,-1,2,1
1530692456973176,-1,4,-1,-5,-1,1,-8,-10
1530692456982152,-12,-8,-3,-9,10,8,5,-4
1530692456982152,7,13,3,12,-5,2,3,-1
1530692456997112,-4,-8,-4,-7,-2,4,4,-2
1530692456997112,9,-3,1,7,-6,-46,-13,8
1530692456998110,-16,-2,-2,-13,0,11,-2,-12
1530692456998110,4,10,0,3,2,4,2,-2
1530692457019053,22,8,-3,-4,1,1,2,2
1530692457019053,4,-11,-1,-8,-6,-16,-7,2
1530692457021048,-5,8,2,-1,1,6,3,1
1530692457021048,-40,-25,-2,-1,2,3,0,-7
1530692457033016,17,-4,0,6,-2,-9,-4,-6
1530692457033016,18,35,3,-5,-1,-2,13,8
1530692457041992,-12,-30,-5,6,-1,18,3,5
1530692457041992,25,13,0,-3,3,-13,-10,5
1530692457056952,-35,-28,-3,3,-6,2,-1,-1
1530692457056952,-14,0,-2,1,-1,-2,10,-6
1530692457057950,10,-3,-2,2,1,2,4,0
1530692457057950,12,-1,2,-2,-2,5,4,-1
1530692457078894,-23,0,-1,-5,-3,2,3,1
1530692457078894,17,-1,-3,-1,0,-9,-15,-3
1530692457080888,-2,9,-1,3,6,41,-2,-6
1530692457080888,1,-8,-1,-5,3,-68,-15,-1
1530692457092856,-1,9,2,0,-25,-35,17,-2
1530692457092856,-8,-16,-4,2,-8,20,-3,2
1530692457101832,1,10,2,1,0,-5,-3,-6
1530692457101832,-1,1,0,1,-1,16,0,3
1530692457116792,8,7,-2,-1,10,4,1,6
1530692457116792,-3,2,-2,-3,-1,-20,-4,-5
1530692457118787,-11,-16,-5,-3,-2,-7,-2,2
1530692457118787,18,12,2,1,4,32,8,2
1530692457139731,-1,-24,-5,0,0,-28,-16,0
1530692457139731,-18,7,1,-1,3,7,2,6
1530692457140728,37,11,1,4,-5,-7,9,10
1530692457140728,-19,2,-3,-2,-5,12,4,-10
1530692457152696,-21,-19,-4,-2,-1,17,0,-8
1530692457152696,26,14,3,-1,4,-36,-7,-2
1530692457161672,12,30,3,-6,-3,-11,10,-4
1530692457161672,-23,-45,-7,-10,-4,-2,12,20
1530692457176632,-16,9,3,5,1,-8,-22,-16
1530692457176632,56,29,1,-3,-2,20,4,-1
1530692457182616,-18,-32,-5,0,-1,-10,-13,-9
1530692457182616,-1,10,-1,-2,-1,-49,12,-1
1530692457199571,-1,6,1,0,9,3,-13,3
1530692457199571,-10,-13,-3,-1,-2,5,-9,-5
1530692457200568,-6,7,2,-3,-5,-11,-3,-14
1530692457200568,7,6,-4,-16,5,117,16,7
1530692457212536,-14,-22,-1,5,-1,-49,-25,-3
1530692457212536,-20,-2,6,31,-8,-4,8,2
1530692457221512,39,29,5,-3,-2,2,14,12
1530692457221512,-65,-26,-4,1,1,-5,-7,-11
1530692457236472,33,25,0,-13,-1,21,5,0
1530692457236472,-31,-25,-5,-14,2,12,0,-8
1530692457243453,22,18,6,6,1,-3,-12,2
1530692457243453,-2,-18,-1,3,-6,-8,-2,0
1530692457259411,15,13,-3,-13,1,-12,-5,3
1530692457259411,-39,-26,-1,-3,6,8,16,6
1530692457260408,-1,-10,-3,5,-1,33,-7,-12
1530692457260408,-14,5,-5,-5,2,-68,-6,-10
1530692457281352,19,4,3,3,-3,-1,15,11
1530692457281352,-36,-14,-9,-6,2,24,12,-3
1530692457283347,-11,12,2,-1,2,-60,-20,5
1530692457283347,50,8,-1,-5,5,17,-3,8
1530692457296312,-29,-9,0,5,-4,0,-2,-2
1530692457296312,0,1,0,-5,-5,-18,5,0
1530692457303293,0,-5,-9,-9,-6,27,-1,1
1530692457303293,53,18,0,12,-1,-14,3,0
1530692457319250,0,6,1,-5,11,23,4,3
1530692457319250,4,-6,2,1,1,-14,-21,-17
1530692457321246,-27,-7,1,4,5,-7,3,0
1530692457321246,27,19,1,4,6,16,4,2
1530692457342189,8,-5,-5,-3,-19,-2,13,10
1530692457342189,-5,-5,-2,-6,-4,15,-1,-8
1530692457343187,-25,-14,1,-6,7,-39,-16,-6
1530692457343187,11,4,-2,7,-6,15,3,1
1530692457356152,25,14,3,-3,4,26,13,9
1530692457356152,-24,-28,-7,-5,-6,-42,-14,-14
1530692457363133,2,12,3,-1,-5,-14,5,4
1530692457363133,-27,-28,-4,-17,-8,20,-13,-5
1530692457379091,-2,-5,0,12,10,8,15,1
1530692457379091,21,20,1,-1,3,-6,-12,6
1530692457381085,-4,-20,-7,10,4,13,3,-3
1530692457381085,-1,4,3,4,-9,-18,-7,-7
1530692457402029,-27,11,0,-3,7,33,8,-4
1530692457402029,9,2,0,-10,-5,-15,1,4
1530692457403027,-1,4,-2,-3,-3,22,-9,-11
1530692457403027,-14,-7,1,5,-3,14,7,-7
1530692457415992,-1,8,3,3,3,-23,-2,0
1530692457415992,36,0,-3,2,-4,10,10,13
1530692457422973,12,-6,-5,-6,7,42,18,17
1530692457422973,-10,5,4,3,-11,-56,-22,-12
1530692457438930,-5,-7,-1,-1,7,14,0,-2
1530692457438930,-38,-6,-2,2,4,-2,-4,-13
1530692457440925,16,9,0,11,-8,-13,-1,7
1530692457440925,-5,-3,1,2,7,-15,-3,5
1530692457461869,4,2,-2,2,-6,23,-14,-10
1530692457461869,2,-1,1,9,-5,3,6,1
1530692457463864,-9,-4,4,0,0,-9,4,0
1530692457463864,-25,-9,-3,-4,0,4,-7,-7
1530692457475832,9,13,-2,-7,-7,-16,2,1
1530692457475832,24,-1,3,2,7,51,11,-1
1530692457482813,-33,-8,1,-3,-4,-30,-22,-8
1530692457482813,27,32,2,1,-1,6,5,14
1530692457499768,-4,-24,-6,-4,1,-13,-2,0
1530692457499768,-10,5,-5,-7,1,29,5,-11
1530692457500766,-10,-2,-2,-5,-14,-26,2,1
1530692457500766,9,13,4,6,11,14,3,-4
1530692457521709,-19,-28,-4,9,-6,-15,-13,-5
1530692457521709,13,15,3,2,2,-17,5,10
1530692457523704,1,2,-3,-4,-3,7,-7,-6
1530692457523704,-12,-11,-3,-5,-6,10,6,5
1530692457535672,31,11,4,4,3,72,20,0
1530692457535672,-26,2,-2,-6,-5,-93,-22,-5
1530692457544648,23,-16,-11,-13,1,4,-14,-11
1530692457544648,-18,-7,1,14,-12,-4,8,-1
1530692457559608,-21,-12,0,17,2,15,-3,-2
1530692457559608,-5,5,2,-3,11,17,-8,0
1530692457560605,21,16,0,-3,-10,-4,15,4
1530692457560605,-16,-12,-3,-9,-2,-6,3,0
1530692457581549,-21,-17,0,-5,2,-14,0,14
1530692457581549,-1,-7,-9,-6,-8,-1,-21,-12
1530692457583544,-19,-7,4,-9,8,-18,10,4
1530692457583544,23,9,3,1,13,24,12,8
1530692457595512,-5,12,4,25,1,-14,0,-12
1530692457595512,10,-4,-1,0,0,-20,-6,6
1530692457604488,24,15,3,6,2,-1,3,9
1530692457604488,-38,-20,-1,-10,-9,-19,-18,-17
1530692457619448,36,15,-7,-17,4,-3,0,4
1530692457619448,-18,-20,-2,-1,-3,11,6,-2
1530692457620445,-12,5,5,19,10,34,-5,-3
1530692457620445,3,-1,-4,-2,-12,-28,-11,0
1530692457641389,-4,3,1,-9,-3,-13,20,-4
1530692457641389,20,11,5,4,-2,13,-1,5
1530692457643384,-18,-20,-5,-3,-6,0,-2,-6
1530692457643384,3,16,3,0,4,10,-8,7
1530692457655352,-16,-5,-1,-3,-9,-64,-24,-7
1530692457655352,23,5,3,1,7,41,22,6
1530692457664328,13,17,-2,1,15,-14,7,8
1530692457664328,-12,-16,-5,3,-4,18,2,-7
1530692457679288,7,3,-2,-8,-3,-3,-11,-4
1530692457679288,-18,-2,-2,5,-6,2,7,-1
1530692457681283,-11,-7,2,5,8,9,-7,-4
1530692457681283,47,27,2,1,-5,-19,5,11
1530692457702226,-24,5,-1,-6,-3,17,-1,-13
1530692457702226,16,-17,-4,0,4,3,3,21
1530692457703224,-14,4,-5,-7,-10,6,-3,-8
1530692457703224,-11,-12,-2,0,1,6,1,-3
1530692457715192,33,8,0,-4,2,-1,-3,2
1530692457715192,-25,4,1,-2,-7,-2,-9,-19
1530692457724168,24,-26,-5,-3,-5,0,0,9
1530692457724168,-17,-5,-1,0,1,-20,-5,-4
1530692457739128,1,6,1,-3,4,11,1,-3
1530692457739128,17,7,-1,0,4,-7,-1,-5
1530692457741123,-4,13,4,-5,-7,22,8,7
1530692457741123,-9,11,-3,-7,20,73,4,-12
1530692457762066,13,-29,-1,-1,-17,-82,-6,15
1530692457762066,29,21,0,0,-4,-19,-17,-9
1530692457763064,-19,-25,-3,-1,-7,-1,-1,-4
1530692457763064,-3,0,-2,-5,2,2,-3,5
1530692457775032,-6,4,0,-5,3,19,6,-5
1530692457775032,-6,-8,0,-1,-3,27,8,10
1530692457785005,6,-1,-4,-3,-2,-22,-6,-2
1530692457785005,8,-2,0,-1,-4,-15,-8,-10
1530692457798968,-47,-3,-3,-1,-6,12,-4,-9
1530692457798968,18,-1,0,-2,-3,-11,3,-1
1530692457800963,-13,6,-1,8,10,26,2,-1
1530692457800963,30,3,1,4,0,-9,2,6
1530692457821906,15,2,-2,4,4,13,1,1
1530692457821906,9,15,-2,-3,-1,0,4,1
1530692457823901,-39,-1,3,-4,-7,-7,-2,-2
1530692457823901,6,-23,-8,-2,1,-3,1,-2
1530692457835869,-1,10,-1,1,3,-4,-9,0
1530692457835869,6,-6,-2,-3,-9,18,6,-1
1530692457844845,-17,12,6,3,-3,-9,-5,-10
1530692457844845,60,-19,-9,-3,-3,-33,-8,17
1530692457859805,30,14,-3,-1,7,20,-6,-1
1530692457859805,-28,0,3,2,8,-9,10,4
1530692457860802,12,-2,0,-3,1,-1,4,-3
1530692457860802,-27,4,-5,-6,-13,4,-5,-10
1530692457881746,7,-6,3,2,-5,4,-5,-2
1530692457881746,5,5,1,3,11,8,9,6
1530692457883741,22,-1,-2,-3,-2,-16,-1,6
1530692457883741,-19,0,2,1,1,13,-1,-10
1530692457895709,-10,-10,-7,-6,-5,-9,-3,-3
1530692457895709,-2,5,0,-11,-3,-12,-9,6
1530692457904686,11,1,-2,4,8,20,10,9
1530692457904686,-10,-7,-1,-2,-12,-12,4,4
1530692457919645,-9,-7,-2,-6,-13,9,7,3
1530692457919645,-19,-7,0,2,1,-24,-13,-12
1530692457920642,21,0,-1,5,1,-18,8,-4
1530692457920642,4,21,3,-2,4,4,6,0
1530692457941586,-16,-5,-6,-1,2,-5,4,2
1530692457941586,-7,-17,-5,-2,-6,1,-1,-6
1530692457943581,32,0,1,0,-4,-2,-18,-1
1530692457943581,-46,12,4,-2,-2,-2,-4,-10
1530692457955549,6,-18,-11,-2,-4,12,-4,-3
1530692457955549,-27,-2,1,2,18,27,25,-7
1530692457964525,13,-9,-3,7,-20,-10,-12,12
1530692457964525,18,12,4,-14,-2,-13,10,1
1530692457979485,-16,2,2,21,1,10,-13,-7
1530692457979485,37,13,1,2,-9,-12,-6,-3
1530692457980482,-38,-13,-10,-19,-1,-23,-22,-18
1530692457980482,3,-10,2,21,13,9,-3,11
1530692458001426,27,38,9,5,0,-14,15,10
1530692458001426,23,-13,-3,-2,0,-1,-2,-1
1530692458003421,-24,-19,-6,-4,-1,14,-2,-5
1530692458003421,3,0,-2,-6,-9,-11,-6,5
1530692458015389,-9,0,0,-7,3,4,3,-13
1530692458015389,-18,1,-1,1,-4,-6,-6,1
1530692458024365,8,21,4,-3,-7,-11,1,0
1530692458024365,-5,-21,-5,7,20,50,-10,-7
1530692458039325,28,3,-2,-3,-6,-64,13,14
1530692458039325,-12,1,4,-6,-13,-3,-12,-1
1530692458041320,12,9,0,11,0,15,3,3
1530692458041320,-36,-16,-4,1,-3,-17,-2,-6
1530692458062263,-10,1,3,-15,9,26,-4,-9
1530692458062263,40,-24,-9,-15,-10,5,5,4
1530692458063262,-37,-11,-2,5,7,-2,15,0
1530692458063262,36,19,5,13,6,16,-3,9
1530692458075229,1,-2,-2,-3,-9,-7,-3,4
1530692458075229,-12,8,0,0,4,11,-1,-4
1530692458084205,-3,-13,-1,-8,3,16,7,-10
1530692458084205,3,20,2,-9,-15,-15,-1,-10
1530692458099165,-33,-43,-7,-4,2,6,2,11
1530692458099165,-24,11,0,2,4,27,0,-4
1530692458101160,19,-2,-1,-1,-2,24,5,2
1530692458101160,4,11,-4,-3,-17,-54,-20,-1
1530692458122103,41,15,2,7,1,7,1,0
1530692458122103,-17,-3,-1,6,2,3,-16,-8
1530692458123101,-10,19,8,1,6,17,4,-6
1530692458123101,15,-20,-6,-7,-11,-32,-4,5
1530692458135069,-29,-10,1,6,11,12,-12,-17
1530692458135069,29,0,-1,-4,4,1,11,18
1530692458144045,23,9,-2,-5,-4,11,7,13
1530692458144045,13,3,4,0,2,8,1,-3
1530692458159005,-12,-1,-3,-4,-7,48,-28,-12
1530692458159005,-11,-5,-5,-10,-4,-16,-5,-3
1530692458164989,6,-3,-2,-18,-15,-88,-14,-14
1530692458164989,-19,3,2,22,6,2,11,10
1530692458181944,9,-14,0,10,4,7,20,5
1530692458181944,12,18,1,7,-2,12,0,-16
1530692458183938,-2,-16,-7,-9,1,6,2,13
1530692458183938,28,18,-5,-16,-8,17,-3,1
1530692458203885,-26,-21,0,-5,3,-10,6,7
1530692458203885,-5,-3,3,5,-2,-19,-4,4
1530692458205880,-11,-5,-2,2,2,6,13,2
1530692458205880,-8,16,3,-4,1,3,-3,-24
1530692458218845,-15,-28,-6,2,1,-4,7,28
1530692458218845,22,15,0,2,-1,-12,1,-3
1530692458225826,-67,-25,2,3,7,40,-5,-11
1530692458225826,39,30,2,3,2,-19,-13,-17
1530692458241783,6,5,3,-6,-3,-18,1,-7
1530692458241783,7,-13,-3,-1,0,5,0,13
1530692458243778,8,13,2,8,0,22,7,4
1530692458243778,-30,-22,-1,-7,-7,26,6,-4
1530692458264722,6,8,-4,1,2,-50,-28,-10
1530692458264722,20,8,3,8,-4,-1,2,0
1530692458265719,-29,-23,-4,5,6,-6,-16,-16
1530692458265719,-14,-21,-1,-2,5,18,10,6
1530692458278685,-8,17,-3,-10,0,-16,-3,0
1530692458278685,-12,-8,-1,-1,-7,34,5,3
1530692458285666,23,12,2,-1,-7,-7,-3,-4
1530692458285666,3,-11,-7,-3,9,-14,-16,3
1530692458300626,-17,10,4,4,-7,0,6,-10
1530692458300626,-12,0,0,2,1,-8,7,1
1530692458301623,17,5,-1,0,0,-9,3,9
1530692458301623,-23,-7,0,-1,-1,-4,-2,-5
1530692458323565,28,3,-5,0,-1,15,0,-1
1530692458323565,-27,5,-5,-6,-3,-27,-12,-6
1530692458324562,43,7,0,-2,-1,6,2,3
1530692458324562,-20,-8,1,2,6,0,-1,1
1530692458339522,34,3,-3,-3,-17,-10,3,5
1530692458339522,-31,-14,2,-1,-1,9,13,-5
1530692458346503,23,13,1,3,4,-4,-14,-18
1530692458346503,-1,-1,-3,1,0,-3,9,15
1530692458361463,10,2,1,-1,7,27,10,-3
1530692458361463,-15,2,-6,-2,1,6,-5,0
1530692458361463,-9,-3,1,1,-4,-9,-2,-11
1530692458361463,-2,-4,-3,0,4,-20,2,10
1530692458383405,-5,2,2,-2,-4,-4,0,-5
1530692458383405,23,0,-3,-3,3,5,2,-6
1530692458384402,-4,7,2,1,4,16,-9,4
1530692458384402,-10,-22,-3,-1,-7,2,-4,1
1530692458398365,-9,6,-4,-2,5,6,1,-1
1530692458398365,-14,-1,-1,1,10,1,0,-6
1530692458406343,37,1,-3,-2,-17,-43,-8,12
1530692458406343,-8,-2,0,-2,4,57,19,-1
1530692458421303,19,19,5,1,-3,-54,-9,-9
1530692458421303,-44,-17,-1,6,7,-22,-6,0
1530692458422301,18,4,-7,-10,-4,-14,-3,4
1530692458422301,-21,-10,3,19,4,1,1,-7
1530692458443244,22,5,-3,1,-3,27,7,-1
1530692458443244,-2,0,3,1,5,0,-7,-2
1530692458444242,-24,-5,-6,-10,-8,-15,11,10
1530692458444242,7,3,-3,-5,-7,3,-5,-1
1530692458458205,-14,-22,-3,-1,3,1,8,2
1530692458458205,17,13,5,1,-9,-26,-26,5
1530692458466183,-18,-7,-1,0,1,10,-5,-16
1530692458466183,6,2,1,-2,10,-30,-4,5
1530692458481143,15,8,-2,-2,-11,21,-1,-1
1530692458481143,14,10,0,-3,-2,-2,1,-1
1530692458482141,-20,-9,-1,3,7,7,1,4
1530692458482141,-3,-1,2,2,1,-11,-2,-1
1530692458504082,-6,-5,-1,-3,5,-8,-3,1
1530692458504082,-1,1,-4,-3,-7,20,-8,-17
1530692458504082,16,15,3,3,0,-55,-6,-1
1530692458504082,-4,-22,-4,-1,9,21,12,2
1530692458527021,-48,-12,-3,-4,-7,0,-13,-10
1530692458527021,74,20,-3,-2,-3,4,9,20
1530692458528018,-15,0,2,5,1,21,2,-3
1530692458528018,4,4,2,-4,-12,-7,-3,-3
1530692458540983,-12,-1,3,-2,1,-4,-7,-13
1530692458540983,-27,-6,-2,0,-1,3,5,-3
1530692458541981,-12,-16,-4,2,-6,-2,-5,1
1530692458541981,7,13,-2,-2,-4,-1,0,3
1530692458563922,25,11,0,-2,3,-4,-7,9
1530692458563922,-32,-23,-4,0,-9,11,5,-5
1530692458563922,6,18,3,-3,8,19,15,7
1530692458563922,32,3,-3,-4,-6,-1,1,-3
1530692458585863,-9,7,6,2,2,-3,-1,-4
1530692458585863,10,4,-3,-3,-1,-8,-5,2
1530692458586861,-22,-27,-2,2,0,5,-8,-1
1530692458586861,-20,-13,-1,0,-4,-11,-5,-9
1530692458600823,40,27,2,-1,4,9,7,13
1530692458600823,-21,-10,1,-1,-1,-20,-3,-11
1530692458601821,14,7,-1,0,6,16,2,-1
1530692458601821,-10,3,-4,-3,-4,-27,7,2
1530692458623762,-9,-6,0,0,-5,9,-21,1
1530692458623762,-9,-5,-2,-3,-1,0,-2,-2
1530692458624759,17,10,3,1,-2,11,8,7
1530692458624759,-6,1,0,-1,-2,-12,-2,4
1530692458645703,-24,-13,-3,0,6,16,4,-14
1530692458645703,18,6,-2,-3,-6,-30,-8,6
1530692458646701,-27,-25,1,3,5,20,2,2
1530692458646701,24,15,0,-3,-3,13,14,7
1530692458660663,2,-11,-4,0,-1,4,9,2
1530692458660663,1,13,-1,-2,0,1,1,3
1530692458661660,28,21,2,-2,1,-8,-3,-7
1530692458661660,22,0,-1,-1,-2,1,-11,10
1530692458683602,-25,-17,-1,-1,-3,-14,-3,-7
1530692458683602,35,9,-2,0,-1,-10,0,5
1530692458684599,3,3,2,1,1,11,0,-2
1530692458684599,-26,-1,-5,0,9,37,-8,-11
1530692458706541,6,1,-4,-5,-6,-14,-4,-6
1530692458706541,-4,-8,2,0,-13,-30,-9,4
1530692458706541,9,3,-2,-2,-4,-15,4,0
1530692458706541,-6,0,3,2,7,28,-6,-5
1530692458721501,-7,-9,-4,0,0,-43,-5,-3
1530692458721501,-1,-6,0,0,7,30,17,6
1530692458721501,-4,5,2,0,-3,0,-5,-2
1530692458721501,8,1,-5,-4,-6,-19,-1,-9
1530692458743442,-20,6,3,1,2,22,-31,-6
1530692458743442,2,-28,-1,-3,2,20,10,5
1530692458744439,13,17,0,0,-2,-12,-4,1
1530692458744439,-4,-10,1,0,2,12,-5,-4
1530692458766380,1,3,1,-1,1,-11,14,5
1530692458766380,-21,-2,-1,1,0,-2,-5,-14
1530692458767378,-1,-5,-6,-4,1,-8,-10,-6
1530692458767378,-18,-7,0,-1,-3,-11,-4,-12
1530692458781340,4,2,-1,-1,1,22,11,6
1530692458781340,-4,-6,0,0,-1,-27,-9,-1
1530692458782338,15,9,-1,5,8,22,17,9
1530692458782338,-3,4,2,-2,-10,-5,-4,-8
1530692458803282,5,5,4,3,-9,-17,-8,-2
1530692458803282,12,-21,-4,-1,11,27,16,11
1530692458804279,-28,-5,-1,-4,-4,-13,-5,-2
1530692458804279,-1,-6,0,-1,-3,-14,5,3
1530692458826220,14,6,2,2,11,4,-1,-3
1530692458826220,-12,4,0,-1,-9,-18,-5,-10
1530692458827218,31,22,0,-2,2,-13,-12,3
1530692458827218,-30,-40,-7,-3,-6,-18,11,-1
1530692458841181,13,5,-1,0,0,5,-1,1
1530692458841181,1,10,-1,-3,3,12,4,-1
1530692458842178,-35,-24,-7,-4,-7,7,-1,-3
1530692458842178,-19,-1,2,2,12,12,-13,-9
1530692458864119,30,16,-2,0,-15,-25,4,11
1530692458864119,-19,-14,3,1,-1,10,1,7
1530692458864119,-7,-1,-2,-2,-1,0,-3,-4
1530692458864119,-6,-1,-3,-3,-2,-1,-5,-2
1530692458886060,-18,-4,-4,-2,2,13,8,0
1530692458886060,24,16,1,3,3,2,-9,-6
1530692458887058,-39,-31,-3,0,-3,3,12,10
1530692458887058,48,17,-2,0,-5,-41,-7,5
1530692458901020,5,-7,1,0,1,34,6,2
1530692458901020,-4,11,-1,-1,-1,-20,-14,-18
1530692458902018,-10,-18,-2,1,7,30,3,4
1530692458902018,4,10,1,-1,-12,7,9,-5
1530692458923959,-2,-14,-2,0,2,-3,-15,0
1530692458923959,-32,7,2,1,2,44,3,-4
1530692458923959,28,5,0,-2,-3,-53,-14,0
1530692458923959,-10,-5,0,3,9,14,2,5
1530692458945901,-5,9,-3,-5,-11,-8,2,-3
1530692458945901,8,-4,-1,-1,0,5,3,-1
1530692458946898,9,-1,2,-1,-3,6,0,5
1530692458946898,11,15,2,0,2,6,-13,-8
1530692458960860,-24,-21,-2,0,1,-9,4,-3
1530692458960860,10,3,0,-2,-4,-7,2,12
1530692458961858,-24,-1,-3,-2,-1,-4,-1,-9
1530692458961858,19,25,5,0,1,-16,-4,1
1530692458983799,-66,-59,-7,-1,-5,-1,0,-13
1530692458983799,48,20,-3,-3,1,-5,-6,7
1530692458984797,-13,3,2,0,-1,18,4,-12
1530692458984797,-9,-9,-6,-3,-6,-4,-3,2
1530692459005740,6,21,5,2,6,-2,3,-7
1530692459005740,-16,-26,-6,-1,-4,-3,2,4
1530692459006738,16,13,1,3,8,20,7,3
1530692459006738,-8,-14,-9,-6,-21,-31,-13,-5
1530692459020700,8,8,4,0,1,-5,8,3
1530692459020700,-1,-1,0,1,3,-16,-3,-2
1530692459021698,17,9,0,1,-2,11,1,1
1530692459021698,-22,-3,3,1,5,10,4,-1
1530692459043639,11,0,-4,-2,-1,1,-2,5
1530692459043639,20,0,-2,0,-2,-5,-3,-3
1530692459044637,-36,-11,-2,0,-4,-28,0,-10
1530692459044637,0,4,1,0,3,30,6,4
1530692459066577,28,-3,-2,-2,-2,0,0,10
1530692459066577,-12,11,2,-1,-1,-2,-2,-12
1530692459066577,11,-1,-3,-4,-1,-1,-9,2
1530692459066577,-8,-4,-1,-1,-2,-6,4,1
1530692459081537,3,7,-1,-3,1,7,-8,-8
1530692459081537,-15,-33,-4,-1,1,-20,-8,-3
1530692459081537,44,30,2,0,-5,-8,9,11
1530692459081537,-36,1,4,0,0,8,-3,-1
1530692459103479,-1,1,0,3,-1,-4,0,-2
1530692459103479,-7,-2,-2,1,9,-4,4,4
1530692459104476,-17,-5,-2,-3,-3,32,-3,-8
1530692459104476,38,-14,-8,-3,-3,-2,2,6
1530692459126418,-3,18,4,-2,-3,-10,1,2
1530692459126418,-11,6,0,-2,-2,-2,2,-1
1530692459126418,-8,-26,-2,0,5,4,-4,6
1530692459126418,17,14,-2,0,2,-18,0,-6
1530692459141378,-27,-13,-2,-1,-2,1,-5,-12
1530692459141378,47,15,-1,-2,-2,24,11,11
1530692459142375,-20,-16,-4,-3,-2,-24,-9,-5
1530692459142375,-9,1,3,1,4,0,4,1
1530692459163319,-1,7,-2,0,-5,-12,-6,-7
1530692459163319,7,-2,-4,-1,-2,-5,-2,-1
1530692459164317,-10,-15,-4,-3,-6,12,3,2
1530692459164317,4,5,3,2,5,-12,-3,-9
1530692459186257,3,-5,-1,-3,4,30,4,10
1530692459186257,-9,12,4,-3,-7,-11,-8,-6
1530692459187255,26,1,-6,-2,2,8,0,1
1530692459187255,-19,-11,2,2,2,9,4,-2
1530692459201217,26,6,-1,-3,-9,-33,-13,4
1530692459201217,-43,-11,0,1,-3,25,20,-2
1530692459202215,-1,14,4,1,-1,-14,-9,-6
1530692459202215,13,-6,-5,-3,-1,28,2,5
1530692459223159,-4,16,4,-1,-2,-25,-5,-3
1530692459223159,-4,-23,-4,0,10,16,0,4
1530692459224156,-13,11,3,0,1,19,-9,-9
1530692459224156,-15,-13,-4,-3,-13,-90,-18,-5
1530692459246098,22,3,-1,0,-2,46,26,9
1530692459246098,-22,-18,-5,-4,-3,-6,-3,1
1530692459247095,3,-1,4,2,-1,11,2,-5
1530692459247095,23,5,-6,-4,-1,20,0,-5
1530692459260060,-15,-11,-3,-1,1,-26,-19,-6
1530692459260060,5,4,3,1,-1,-4,0,2
1530692459269036,21,26,9,7,9,-3,-7,-1
1530692459269036,4,-26,-7,-3,-12,4,6,1
1530692459291975,2,-2,-4,2,-3,8,-11,-2
1530692459291975,-4,8,-5,-5,-6,-6,-2,-3
1530692459292972,16,-2,-2,-2,4,-8,4,8
1530692459292972,-9,6,2,2,6,66,4,2
1530692459305937,4,5,-1,-1,1,-33,-9,-8
1530692459305937,22,-3,2,1,-2,-21,-2,6
1530692459306935,-29,-4,-4,-1,-5,4,7,-2
1530692459306935,17,19,4,1,2,8,4,-4
1530692459320897,-31,-20,5,-1,3,11,1,0
1530692459320897,-3,-8,-7,-1,0,0,-5,-4
1530692459328876,-14,-7,-4,-3,-7,-16,7,-1
1530692459328876,23,16,4,1,2,9,-4,9
1530692459343836,27,15,0,0,3,5,10,0
1530692459343836,-10,-9,-4,-4,-1,-11,-2,-8
1530692459344834,3,9,4,2,-5,-8,-3,-2
1530692459344834,-18,-8,-3,0,7,2,-1,-3
1530692459365777,-4,0,0,0,-6,4,0,-2
1530692459365777,3,3,-2,0,3,-15,-6,-6
1530692459366775,0,-17,-7,-6,-13,-4,-5,1
1530692459366775,-26,7,1,1,3,1,-5,-6
1530692459380737,8,-1,2,0,0,12,7,5
1530692459380737,1,5,3,4,5,49,12,2
1530692459388716,-3,-8,-5,-3,-3,-47,-23,-3
1530692459388716,7,4,2,1,-3,-9,5,6
1530692459403676,-9,-11,-5,-4,-4,-5,6,2
1530692459403676,-24,2,0,0,-3,2,-10,-14
1530692459404674,-11,-15,1,3,5,12,7,3
1530692459404674,22,19,1,-3,-4,-12,-11,-6
1530692459425617,-29,-32,-11,-3,4,11,9,10
1530692459425617,7,1,-1,0,0,-3,-6,-6
1530692459426615,-18,21,4,-1,-1,18,14,1
1530692459426615,4,-13,-1,2,8,-30,7,3
1530692459440578,24,33,5,1,-1,17,-14,0
1530692459440578,6,-20,-2,-2,-8,-16,-1,1
1530692459448556,0,-2,-3,-3,6,49,-2,-5
1530692459448556,-12,-14,-7,0,-6,4,14,1
1530692459463516,-7,7,2,-3,-1,-19,-7,-5
1530692459463516,25,5,-2,0,-1,3,7,5
1530692459464514,4,0,-6,0,0,20,9,5
1530692459464514,-7,-3,1,-2,-2,-8,-15,-4
1530692459486454,8,-4,-2,0,1,-4,0,2
1530692459486454,-16,14,3,-1,-4,4,-6,-4
1530692459487452,0,-10,0,-2,-2,-23,-5,-5
1530692459487452,21,7,-2,-2,2,8,6,6
1530692459500417,-29,-5,2,2,3,7,4,-4
1530692459500417,10,4,1,1,0,-18,-5,4
1530692459508396,7,7,0,-1,-3,-29,-1,2
1530692459508396,-17,-13,-1,1,1,23,-1,-3
1530692459523356,21,5,0,0,2,8,7,0
1530692459523356,-13,-11,-7,-2,5,8,2,-1
1530692459524354,-5,-4,-3,-2,-6,-19,-15,-8
1530692459524354,1,11,1,-3,-10,-1,6,-4
1530692459546295,-2,2,3,4,10,45,-4,-6
1530692459546295,-19,-12,-8,-5,-14,-59,-4,-4
1530692459547292,20,-1,0,2,1,1,2,-2
1530692459547292,3,5,3,1,2,-3,-1,13
1530692459560257,-12,-4,-5,-3,1,24,-1,-9
1530692459560257,7,14,1,-1,-2,-5,-2,-6
1530692459568236,0,-7,-3,0,-1,-12,8,4
1530692459568236,-18,-5,-3,-1,-3,-5,-8,-11
1530692459583196,6,-4,-2,-1,-2,-12,-1,4
1530692459583196,-3,4,3,0,3,18,0,8
1530692459584194,-9,-6,-4,-2,-2,-11,-2,-8
1530692459584194,-5,-1,-1,0,-1,5,-2,2
1530692459606135,10,-2,-4,-1,-3,-19,1,0
1530692459606135,6,5,1,1,3,8,10,2
1530692459607132,18,4,1,1,0,-7,-2,9
1530692459607132,0,1,-2,-3,0,-5,0,-5
1530692459620097,-8,-2,-4,-2,-4,-13,-3,-6
1530692459620097,-1,0,3,2,-2,9,4,0
1530692459629073,0,-6,-1,0,-1,7,0,-5
1530692459629073,-1,5,2,2,-1,-5,-5,4
1530692459644033,-18,-13,-3,0,-2,-31,1,2
1530692459644033,18,6,-3,1,8,43,1,-2
1530692459644033,14,-6,0,-4,-9,-43,-20,10
1530692459644033,-1,0,-4,-5,-5,-14,-1,1
1530692459665975,2,2,1,0,-1,35,7,0
1530692459665975,-5,-6,-1,-1,-3,-57,-16,-3
1530692459666972,-9,0,0,-1,1,3,4,-7
1530692459666972,-10,-5,3,3,9,15,1,0
1530692459680934,25,2,2,0,1,-6,5,6
1530692459680934,-57,-8,-1,-3,-5,-1,-20,-9
1530692459688913,54,19,-1,-1,0,26,3,9
1530692459688913,-15,-12,1,0,3,-3,-3,0
1530692459703873,-13,-11,-6,-2,-10,-10,0,-5
1530692459703873,13,-3,2,1,1,4,5,-2
1530692459704871,-12,4,-3,-3,-4,-12,3,-1
1530692459704871,-2,-1,-4,-3,-3,0,-6,-6
1530692459725815,-7,-3,1,0,2,1,0,0
1530692459725815,8,0,-2,-1,-3,2,0,0
1530692459726812,-17,-9,0,-1,0,14,3,-3
1530692459726812,14,3,0,1,-3,-8,-5,-7
1530692459740775,5,-6,-3,-1,4,7,15,14
1530692459740775,-16,3,1,-1,-6,-33,-18,-1
1530692459748753,-2,1,-1,0,2,10,6,-3
1530692459748753,-7,-4,1,2,1,7,-1,-3
1530692459763713,9,0,-1,-1,4,-51,-14,-8
1530692459763713,-18,-6,-4,-5,-15,-13,16,5
1530692459764711,-21,6,5,3,10,35,6,2
1530692459764711,45,-8,-5,-1,-1,-19,1,9
1530692459785654,2,9,-2,-1,0,20,-5,-6
1530692459785654,44,19,4,0,5,11,2,18
1530692459786652,-33,-10,-4,-3,-8,-23,-6,-16
1530692459786652,-15,-2,-1,-1,0,44,14,-6
1530692459800615,16,-1,-1,0,4,-22,-26,-2
1530692459800615,12,-4,-4,-3,5,-68,-4,-7
1530692459807596,-12,-15,-7,-2,-14,-10,-7,1
1530692459807596,0,15,5,1,-1,39,23,11
1530692459823553,18,0,-1,1,2,17,3,0
1530692459823553,-15,19,6,1,4,30,-3,-8
1530692459824551,18,-3,-3,-3,4,-11,-2,5
1530692459824551,-20,-8,-3,-1,-3,-34,-9,-2
1530692459846492,-25,-3,-3,-5,-7,0,6,1
1530692459846492,34,11,3,2,2,33,2,-5
1530692459846492,-34,-32,-3,2,4,-2,5,14
1530692459846492,8,6,-3,-5,-5,-1,-5,-7
1530692459868433,-6,-2,1,1,-2,21,20,7
1530692459868433,-12,-5,0,2,3,-17,-22,-11
1530692459869431,20,9,1,0,0,5,2,-1
1530692459869431,4,1,2,0,-1,-10,-6,3
1530692459883393,-19,-6,-1,-2,-2,-4,-2,-2
1530692459883393,5,-6,-4,-1,-4,7,7,4
1530692459884391,-1,1,0,-4,-1,5,-1,-8
1530692459884391,6,6,0,-2,10,49,-8,3
1530692459906332,14,-2,1,1,-11,-33,11,2
1530692459906332,-28,-14,-4,0,0,19,6,-3
1530692459907330,47,26,-3,-3,0,-14,-1,10
1530692459907330,-35,-18,-1,0,-2,-8,-4,-5
1530692459928273,-12,-8,-5,-3,-2,9,-5,-5
1530692459928273,-4,-5,1,1,0,6,0,5
1530692459929271,-18,-4,2,0,2,12,8,-1
1530692459929271,8,6,1,-2,-1,-37,-18,-8
1530692459943233,-15,4,1,-2,-1,18,7,-1
1530692459943233,22,3,0,0,-1,-11,-1,7
1530692459944231,30,20,3,3,4,24,5,1
1530692459944231,-21,-23,-9,-5,-4,-21,-2,-11
1530692459966172,-1,0,-2,0,-3,-6,-10,6
1530692459966172,-15,9,5,1,2,25,8,-4
1530692459967169,5,-5,-3,-1,-6,-4,-9,-9
1530692459967169,-14,1,-3,-2,-3,-4,5,9
1530692459989110,-11,3,0,0,0,-9,-2,-6
1530692459989110,36,24,2,1,2,15,-8,-10
1530692459989110,-41,-35,-1,1,5,-13,-4,2
1530692459989110,26,3,-7,-3,-16,-22,2,0
1530692460004070,-1,8,2,-2,5,1,0,5
1530692460004070,-12,-13,-8,-3,-1,5,0,0
1530692460004070,6,11,5,0,2,-36,9,-8
1530692460004070,9,11,7,6,8,-1,-1,13
1530692460026012,1,-9,-4,-3,-6,-17,-15,-12
1530692460026012,2,-1,-2,0,-2,-1,1,1
1530692460027009,-26,-8,-5,-6,-10,1,-8,-17
1530692460027009,2,-10,-1,-1,-2,-14,1,1
1530692460048950,13,6,0,0,-1,13,0,-3
1530692460048950,2,-10,1,-2,-2,-16,2,8
1530692460048950,-1,26,3,1,2,17,1,3
1530692460048950,8,-10,-5,-1,0,6,4,-5
1530692460063910,-3,5,-1,-1,1,-1,-7,-10
1530692460063910,-12,-12,-5,-3,-5,10,1,-3
1530692460064908,-6,-12,-3,2,1,3,-1,5
1530692460064908,1,1,-1,0,10,4,-10,-11
1530692460085852,2,5,0,-1,-15,-21,0,-3
1530692460085852,-17,-18,-2,-1,1,20,-2,1
1530692460086850,23,25,4,0,3,7,11,1
1530692460086850,38,0,-2,0,1,-4,-1,4
1530692460108790,-11,-3,1,0,3,-8,-11,-10
1530692460108790,3,3,-1,-1,-3,-2,21,7
1530692460109788,-25,-18,-4,-3,3,49,-3,-5
1530692460109788,-21,-1,-1,-1,-9,-14,13,-2
1530692460123751,14,3,2,2,4,-6,-3,12
1530692460123751,-9,-1,1,-1,1,-23,2,2
1530692460124748,23,20,3,0,-2,0,-8,-7
1530692460124748,-6,-14,-10,-6,-3,12,7,6
1530692460145692,-7,4,2,2,1,4,2,3
1530692460145692,-8,10,0,-1,-1,5,-4,-7
1530692460146689,-1,-15,-4,-1,-1,-10,4,6
1530692460146689,-19,3,6,3,-1,3,-6,-6
1530692460168630,15,-3,-6,-2,1,-2,-1,2
1530692460168630,-7,-4,-1,-3,5,7,-12,-12
1530692460169628,21,12,5,0,-9,-14,0,2
1530692460169628,10,12,2,2,1,-15,0,2
1530692460183590,-1,-7,-1,0,2,4,2,3
1530692460183590,0,5,-1,2,5,13,1,-4
1530692460184588,11,-15,-7,-3,1,-15,-6,-5
1530692460184588,-17,4,-3,-1,0,18,3,0
1530692460206529,4,3,-1,-2,-3,-7,1,2
1530692460206529,-2,-1,-2,-4,-6,-13,-2,1
1530692460206529,-25,-14,0,2,0,-8,-7,-2
1530692460206529,-5,-2,0,0,-1,-1,-2,-11
1530692460228470,34,10,-1,0,5,8,6,7
1530692460228470,-13,2,-1,-1,-5,-11,-4,-7
1530692460229468,-5,-8,-3,0,-4,-7,-4,-3
1530692460229468,8,20,6,3,2,5,-1,0
1530692460243430,11,-5,-6,-2,1,-17,-10,-8
1530692460243430,-16,-4,0,-3,-2,30,3,1
1530692460244428,7,4,2,-2,-7,-5,6,7
1530692460244428,-16,-8,0,1,-2,-19,-7,-9
1530692460266369,-20,-1,0,3,10,21,6,-1
1530692460266369,26,-3,-3,-1,-10,-16,-25,-3
1530692460267367,-5,4,0,-1,-1,-14,-11,-5
1530692460267367,15,11,0,-2,-1,2,-2,4
1530692460288310,-10,-10,-1,-3,-1,29,8,-4
1530692460288310,17,9,-1,-2,-2,-8,10,10
1530692460289308,-34,-35,-7,-2,0,-9,-3,-5
1530692460289308,5,-3,-2,-4,-1,15,-6,0
1530692460303270,-17,-10,1,-3,3,17,-5,-4
1530692460303270,7,5,-1,2,3,-6,6,-7
1530692460304268,12,3,-6,-2,-4,-7,2,-10
1530692460304268,-11,3,1,0,-1,-9,3,2
1530692460326209,17,13,2,0,-5,-3,-3,7
1530692460326209,-5,-7,0,-1,4,-5,-5,-2
1530692460327206,-9,-13,-4,-3,0,-6,-5,-1
1530692460327206,-1,6,0,2,3,56,5,-3
1530692460348150,8,-8,-4,1,-5,-45,-6,-6
1530692460348150,13,18,4,1,3,-1,3,0
1530692460349147,-30,-32,-8,-4,2,13,18,20
1530692460349147,-19,-7,2,-2,-3,3,-5,-5
1530692460363110,-3,-3,-1,-2,-2,-2,-2,-2
1530692460363110,-11,-3,0,-2,-2,-28,8,-5
1530692460371089,45,19,0,0,6,35,-4,3
1530692460371089,-9,-4,-1,-1,-2,-5,19,11
1530692460386049,-5,-3,-1,-1,-1,-25,-18,-12
1530692460386049,-10,-23,-6,-1,0,-2,3,4
1530692460387047,-36,-4,-4,-4,-10,1,2,-2
1530692460387047,11,2,-1,-3,-1,-19,-5,1
1530692460408988,23,12,1,4,4,0,-6,-7
1530692460408988,-16,2,2,0,-3,22,-3,-5
1530692460408988,4,7,3,2,4,-15,-19,-9
1530692460408988,4,0,-6,-4,3,12,8,10
1530692460422950,-30,-18,0,-1,-5,5,18,6
1530692460422950,13,3,0,4,1,0,-2,-2
1530692460430929,2,9,4,2,2,8,3,2
1530692460430929,9,3,0,-1,-3,-26,-8,-8
1530692460445889,13,28,5,-3,1,19,-3,2
1530692460445889,14,-31,-7,-3,6,36,5,3
1530692460446886,2,32,4,0,-8,-42,-22,-1
1530692460446886,-39,-45,-8,-4,0,-10,0,-9
1530692460468827,-21,6,1,-1,-7,-3,1,5
1530692460468827,49,23,1,0,4,10,2,9
1530692460469825,-15,-2,2,1,1,-10,-1,-5
1530692460469825,35,9,0,0,1,6,-4,-2
1530692460482790,-14,3,-2,-2,-3,0,-10,-20
1530692460482790,-24,-6,4,-1,-10,-18,-5,4
1530692460490769,11,-35,-3,-3,2,20,11,10
1530692460490769,-3,23,2,-2,-9,-33,-10,4
1530692460505729,8,-13,-6,-2,1,24,4,3
1530692460505729,-9,2,-4,-2,1,-8,-4,-9
1530692460506727,10,6,2,1,1,-1,1,-3
1530692460506727,1,1,1,-1,-5,0,4,0
1530692460528667,-12,-20,-6,-5,2,18,13,9
1530692460528667,-11,-1,-1,0,-3,47,5,-1
1530692460529665,-29,1,-2,-5,-11,-50,-22,-10
1530692460529665,25,-2,-2,3,5,10,-1,2
1530692460542630,26,3,-2,0,-4,-5,19,9
1530692460542630,-17,11,1,-2,3,6,-15,2
1530692460551606,16,-22,-9,-4,-5,1,-5,-8
1530692460551606,-20,-1,-4,-2,-4,7,5,-8
1530692460566566,21,8,7,2,2,-11,-7,-5
1530692460566566,-32,-37,-4,-2,-4,-16,8,0
1530692460566566,19,31,3,2,2,2,-2,1
1530692460566566,3,-11,-2,-1,1,-13,-5,-2
1530692460588508,-32,-1,2,0,0,-2,9,0
1530692460588508,25,15,3,-1,8,-7,-7,-7
1530692460589505,-7,-23,-4,0,-2,18,8,1
1530692460589505,-23,1,1,-2,-6,13,-6,3
1530692460603467,-15,-10,-2,-1,-2,-68,-19,-11
1530692460603467,2,3,-1,1,-4,-26,-8,1
1530692460611446,39,39,5,4,5,20,8,1
1530692460611446,0,-20,-1,0,6,-3,5,12
1530692460626406,-1,1,3,-1,-7,27,-1,-15
1530692460626406,17,2,-6,-1,-4,-25,-10,0
1530692460627404,-33,-5,0,3,11,39,26,-6
1530692460627404,48,10,-2,-1,-3,5,-5,2
1530692460648347,-11,-2,-4,-4,-1,0,7,13
1530692460648347,-3,-6,-1,-4,-5,-2,3,-5
1530692460649345,-21,-13,-1,0,2,10,-11,0
1530692460649345,-1,9,-1,-1,-12,-30,-15,-19
1530692460663307,-6,-12,-6,2,7,9,-8,-1
1530692460663307,7,8,4,1,-3,5,11,11
1530692460671286,-2,-7,1,-2,-4,-26,-12,-4
1530692460671286,-22,-3,2,0,6,30,6,3
1530692460686246,9,10,-1,-1,2,-65,-3,-9
1530692460686246,-33,-38,-5,-1,-17,1,-3,2
1530692460687244,31,18,6,1,1,20,4,-2
1530692460687244,11,-6,-6,-1,-3,1,15,7
1530692460708188,-58,15,5,3,3,60,-6,-10
1530692460708188,74,18,-4,-5,4,-44,-7,9
1530692460709185,-10,-38,-4,-1,-1,25,-11,11
1530692460709185,-1,6,0,0,1,-43,27,6
1530692460723148,8,2,0,3,1,-59,-30,0
1530692460723148,-20,-14,-7,-2,-1,27,2,-16
1530692460731126,-2,22,2,1,-5,-12,6,-6
1530692460731126,1,0,2,1,0,28,-14,-15
1530692460746086,9,-15,0,-1,-1,19,11,25
1530692460746086,-13,0,-4,1,3,-21,1,-8
1530692460747083,-41,0,-6,-3,2,9,-3,-26
1530692460747083,-27,-9,-1,-1,2,-22,-21,-3
1530692460769025,15,6,3,1,-4,15,9,2
1530692460769025,12,1,1,-2,-5,-12,-5,5
1530692460769025,13,6,-5,-6,-2,12,4,6
1530692460769025,-12,0,-1,1,5,10,4,-2
1530692460791964,27,8,4,-2,-5,2,16,11
1530692460791964,-17,14,4,2,2,20,0,-7
1530692460792961,-42,-39,-7,-1,-4,-26,-23,-4
1530692460792961,11,14,-4,-2,0,-3,-9,-4
1530692460805926,11,1,-4,-5,-8,-16,-10,-2
1530692460805926,-22,7,4,1,10,14,14,-4
1530692460806924,25,7,1,0,-1,2,11,6
1530692460806924,-3,-16,-1,2,-5,-6,9,2
1530692460828864,-9,14,-1,-1,3,18,-10,-3
1530692460828864,2,-9,-4,-4,-2,-6,1,2
1530692460829862,19,15,4,1,0,-16,-4,3
1530692460829862,14,7,4,2,8,34,-2,-5
1530692460851803,-37,-18,-6,0,-1,6,2,-18
1530692460851803,-22,-22,-6,0,2,14,-3,1
1530692460852801,48,24,3,2,-2,-8,-5,7
1530692460852801,-26,-3,-1,-3,-2,2,4,-22
1530692460874742,31,1,-5,-5,-4,-26,-5,13
1530692460874742,-32,7,6,1,-2,30,-14,-12
1530692460874742,37,6,-1,-2,4,12,24,18
1530692460874742,-6,5,2,-3,-5,-30,-18,-13
1530692460888705,9,-36,-9,-4,-3,-7,-12,-7
1530692460888705,23,19,2,-1,-6,13,7,13
1530692460889702,-14,-3,0,0,1,-6,4,-6
1530692460889702,7,6,1,2,2,-3,5,12
1530692460911643,-4,-2,-4,0,-1,24,-3,-9
1530692460911643,3,-6,1,3,4,-37,-7,8
1530692460912641,-2,4,-1,-3,-9,4,13,3
1530692460912641,-11,-6,-1,1,5,11,1,-1
1530692460926603,30,17,1,2,0,19,11,9
1530692460926603,-4,-10,-1,1,6,-19,-5,-13
1530692460926603,-16,14,2,0,0,33,-5,-4
1530692460926603,-8,-17,-5,-7,-15,-39,2,14
1530692460948544,-7,-2,0,2,3,21,-2,-7
1530692460948544,-2,17,-1,-1,-9,-9,14,-7
1530692460949542,12,1,-1,-1,8,-2,1,5
1530692460949542,-37,3,0,-3,0,40,0,-19
1530692460971483,31,-7,-5,-2,12,-12,-12,46
1530692460971483,-10,2,-1,-3,-14,-20,2,1
1530692460971483,-13,3,3,1,-2,34,-15,-4
1530692460971483,11,5,3,3,6,-7,-14,-3
1530692460986443,-11,3,0,-1,6,1,-6,-19
1530692460986443,12,2,-1,0,2,22,6,9
1530692460987441,-26,-16,-6,-3,0,-20,-11,-9
1530692460987441,28,12,5,2,1,1,-5,0
1530692461008385,-22,-8,-2,-3,-9,-10,-6,-12
1530692461008385,18,0,0,-1,-4,13,-1,5
1530692461009382,-13,-8,0,0,-2,-18,13,-11
1530692461009382,23,0,-2,2,0,-8,-2,17
1530692461031323,-17,-7,-2,-2,-3,-11,8,-4
1530692461031323,-16,-3,-2,-2,3,1,-5,-8
1530692461032321,24,12,0,-4,0,-17,13,2
1530692461032321,8,-21,-3,-2,0,26,0,13
1530692461046283,-14,7,5,0,-12,-7,-3,-1
1530692461046283,26,3,-5,-2,11,3,-12,-4
1530692461047281,-30,-4,3,3,-5,-12,-11,-10
1530692461047281,-1,12,0,0,-2,1,6,4
1530692461068224,0,-12,-4,-2,-1,-73,2,3
1530692461068224,-6,-2,2,2,-3,61,-3,-11
1530692461069222,9,5,1,-1,2,-28,-17,-4
1530692461069222,-27,-19,-6,-3,-6,18,10,-2
1530692461091163,21,7,2,1,1,3,2,-6
1530692461091163,10,19,5,0,-1,-27,2,12
1530692461092161,2,-35,-10,-2,-3,-11,7,12
1530692461092161,-20,0,-2,-3,-1,3,4,-10
1530692461106124,-26,-1,-1,-1,0,-10,0,-11
1530692461106124,5,10,2,1,-2,-12,-4,-5
1530692461107121,-2,-16,0,1,2,1,-10,7
1530692461107121,4,1,-2,1,2,-9,-2,3
1530692461129062,-6,-10,-2,-2,-2,41,4,1
1530692461129062,-5,9,3,-1,2,-2,11,6
1530692461129062,25,16,0,0,-6,-21,16,8
1530692461129062,7,6,-3,0,2,-1,-13,-11
1530692461151003,-20,-7,2,0,5,5,-7,-16
1530692461151003,-16,-35,-8,-3,-9,19,4,6
1530692461152001,-12,-8,0,-2,3,26,6,7
1530692461152001,-5,12,1,-2,-8,-13,-15,-4
1530692461165963,-3,0,2,2,3,10,22,3
1530692461165963,16,6,-7,-6,-7,-54,-12,-10
1530692461166961,5,8,-1,-2,-3,-23,-3,4
1530692461166961,51,26,3,2,-3,0,-12,0
1530692461188902,-18,-12,2,1,9,46,9,7
1530692461188902,-21,-14,-4,-1,-9,-28,-5,-3
1530692461189900,-15,3,-2,0,0,25,-2,-11
1530692461189900,7,4,0,-4,-4,-15,-1,-3
1530692461210843,-19,-15,-6,-3,-3,-13,-1,-7
1530692461210843,47,8,3,0,3,0,4,14
1530692461211841,-9,7,1,-1,-2,5,-6,-2
1530692461211841,-6,-16,-4,2,4,-14,-2,-6
1530692461225803,-12,7,0,0,-6,12,5,-20
1530692461225803,31,14,0,0,7,-9,-5,23
1530692461226801,-14,-32,-4,-2,0,-5,15,-3
1530692461226801,18,9,3,-2,-1,-21,11,3
1530692461248742,-23,-8,-2,0,-5,-18,-44,6
1530692461248742,-18,-3,-3,0,-8,-36,-17,-9
1530692461249740,5,0,2,3,28,42,-2,-3
1530692461249740,-20,-6,1,1,-8,26,30,7
1530692461270683,32,9,1,-2,-1,11,16,0
1530692461270683,-52,-1,2,0,-2,13,-5,-10
1530692461271680,5,-11,-8,-5,-7,-17,-10,-6
1530692461271680,19,-13,-6,-3,-1,-6,-29,4
1530692461286640,-26,2,-2,0,2,-32,10,8
1530692461286640,1,-1,0,0,15,40,12,0
1530692461286640,-27,-5,-2,-1,-12,-15,7,-6
1530692461286640,-6,5,4,0,5,-4,-2,6
1530692461308582,44,20,2,-5,-11,4,-6,7
1530692461308582,-16,-36,-4,1,13,44,15,0
1530692461309579,-17,5,2,-2,-14,-75,-12,-13
1530692461309579,1,-7,-2,3,4,25,7,13
1530692461331520,5,4,0,1,5,7,-5,3
1530692461331520,-6,0,3,-1,-3,3,3,-11
1530692461331520,15,5,-3,-1,2,17,2,1
1530692461331520,3,3,-3,-4,1,13,4,10
1530692461346480,-14,0,4,-1,0,3,15,-3
1530692461346480,16,16,4,5,3,-11,-8,-1
1530692461347478,28,4,-5,-3,-6,24,9,12
1530692461347478,-21,-12,1,-1,-1,-26,-5,-10
1530692461368422,1,2,-6,0,6,22,3,-5
1530692461368422,-1,0,2,-4,-8,-4,-9,-13
1530692461369419,-16,-4,-1,1,2,-5,-7,-6
1530692461369419,10,-4,-1,0,4,-10,4,14
1530692461391360,-14,-12,-5,-2,-14,-5,5,1
1530692461391360,18,18,3,0,3,12,5,-5
1530692461392358,-5,-12,-2,-2,-3,-13,-11,-5
1530692461392358,-12,-2,4,0,10,-7,-3,-8
1530692461406321,24,0,0,1,-7,-10,2,10
1530692461406321,16,17,1,1,1,-16,-10,-5
1530692461407318,-13,-43,-7,-2,1,12,17,16
1530692461407318,34,18,0,-3,-3,29,-9,-13
1530692461428262,-14,-2,-1,-3,1,-21,-28,-12
1530692461428262,6,-4,-4,-3,-3,-2,21,8
1530692461429259,-16,5,4,0,-1,25,-19,-20
1530692461429259,-8,5,-2,-1,-4,-5,3,-12
1530692461451200,66,4,-3,-2,6,7,9,18
1530692461451200,-22,-10,-3,-2,-3,-6,11,-11
1530692461452198,7,19,1,-1,-2,-24,-18,3
1530692461452198,-9,-5,2,2,-6,-20,-4,-9
1530692461466160,-18,-6,-2,-1,4,32,-4,-10
1530692461466160,13,13,1,1,-9,-28,6,9
1530692461467158,7,-23,-3,0,1,5,27,17
1530692461467158,4,11,1,0,7,3,-26,-6
1530692461489099,-13,3,1,-2,-5,-8,13,-4
1530692461489099,-15,-8,-3,-6,0,5,-10,2
1530692461489099,6,21,3,-5,-1,3,2,-6
1530692461489099,-13,-15,-3,0,-7,-13,16,7
1530692461511040,-1,-1,-1,0,1,0,-12,3
1530692461511040,-20,-13,-2,2,2,3,-12,-16
1530692461512038,49,28,4,0,4,12,-3,5
1530692461512038,-30,-19,-7,-4,-6,4,9,9
1530692461526000,-21,5,3,-1,-1,-14,-1,-7
1530692461526000,39,-1,-1,-3,0,20,-5,7
1530692461526998,2,13,2,3,3,-11,-3,-3
1530692461526998,-22,-32,-8,-4,-3,27,-7,-3
1530692461548939,35,7,-3,-3,-6,-8,8,5
1530692461548939,-32,-10,-1,-1,-2,-4,2,1
1530692461548939,-6,0,5,3,4,14,5,-2
1530692461548939,4,-3,2,0,-2,-50,-17,-10
1530692461570880,11,19,4,0,-3,11,5,3
1530692461570880,-30,-41,-9,-3,-3,-18,-20,0
1530692461571878,-10,13,0,-1,-8,-5,-1,-11
1530692461571878,-7,0,-5,-3,0,13,-2,-9
1530692461585840,9,-3,-1,2,9,28,3,-2
1530692461585840,-2,-1,-1,-2,3,-1,8,7
1530692461593819,-19,-7,0,-2,-14,-6,-5,2
1530692461593819,28,21,-1,-1,0,16,2,5
1530692461608779,1,0,1,-1,-5,-38,-11,4
1530692461608779,-14,-4,-2,1,6,21,6,-4
1530692461609776,4,-1,-3,-4,-4,-18,-7,-5
1530692461609776,5,12,5,2,1,6,0,5
1530692461630720,1,7,2,1,-2,23,8,-4
1530692461630720,-7,-22,-9,-4,-3,46,-8,-10
1530692461631718,-19,-11,-2,0,-3,-61,-14,0
1530692461631718,-7,3,0,-1,-6,1,7,3
1530692461645680,-4,-13,-2,1,3,21,3,0
