timestamp,emg1,emg2,emg3,emg4,emg5,emg6,emg7,emg8
1530692371955544,10,-33,-7,4,5,0,16,22
1530692371955544,0,12,-1,-3,-16,-13,-15,-21
1530692371967511,0,0,1,-3,3,3,-12,-10
1530692371967511,-5,-8,-6,-5,-28,4,10,8
1530692371976487,-9,-31,-8,-1,18,-2,-10,-9
1530692371976487,3,18,8,6,-7,-5,-8,-8
1530692371990450,-1,-7,-5,2,14,2,19,1
1530692371990450,3,26,-1,-1,9,-4,-1,3
1530692371997431,-1,-13,-1,0,-24,3,-4,-14
1530692371997431,-11,-5,-2,-7,-24,-6,6,14
1530692372013388,3,-8,-2,0,13,15,1,0
1530692372013388,2,-25,-7,-1,8,5,15,18
1530692372015383,-8,38,5,0,7,-8,-5,10
1530692372015383,-7,-13,-8,-10,-28,-13,-7,-19
1530692372036326,5,-9,0,5,-9,5,12,-8
1530692372036326,-2,3,0,0,45,1,-15,4
1530692372037324,12,12,12,0,3,6,7,-1
1530692372037324,14,48,9,2,-2,-5,5,8
1530692372050289,2,21,2,2,-17,-3,2,-9
1530692372050289,-26,-20,-10,-8,-9,1,6,-1
1530692372057271,0,-8,-9,-7,0,-13,-11,-12
1530692372057271,-2,-37,-8,-1,-2,8,-3,14
1530692372073228,1,20,8,3,2,-8,-6,-4
1530692372073228,6,15,1,3,4,0,-10,10
1530692372075223,-17,-12,-8,-5,-10,7,5,-20
1530692372075223,-5,-35,-5,1,9,10,3,-3
1530692372096167,29,7,-6,-4,-2,-12,-34,2
1530692372096167,2,32,15,-2,-30,-11,12,-11
1530692372097164,-2,-14,-4,7,-2,-4,-29,9
1530692372097164,0,74,18,2,22,4,-1,-21
1530692372110129,7,-33,-8,0,22,1,1,14
1530692372110129,-4,-12,-9,-4,-9,-7,-4,7
1530692372117110,-6,5,-1,-7,-18,-1,21,2
1530692372117110,-20,-42,-14,-1,13,1,9,13
1530692372133068,-7,-11,-6,-2,-18,-3,4,-12
1530692372133068,27,73,29,10,2,-2,-7,23
1530692372135063,-8,8,-5,-2,2,2,-11,-20
1530692372135063,10,-29,-2,0,5,3,4,23
1530692372156006,5,7,2,-6,-5,1,17,4
1530692372156006,-10,-7,-7,-4,1,-1,29,6
1530692372158002,-11,1,1,3,9,4,-55,-9
1530692372158002,13,9,5,-1,-2,-2,16,0
1530692372169969,-1,-10,-11,-4,-1,5,-9,5
1530692372169969,-4,-1,6,2,-3,1,-4,-16
1530692372176951,5,10,1,-1,6,2,25,10
1530692372176951,0,-10,-8,-2,-6,-4,-18,2
1530692372193905,-7,-17,-1,-1,-2,-4,15,7
1530692372193905,-10,1,-3,0,7,3,-14,-35
1530692372194908,5,-7,-3,-2,-1,-4,3,33
1530692372194908,19,1,4,3,1,3,-1,9
1530692372215847,-17,74,7,-2,-1,0,-5,-12
1530692372215847,-3,-26,-2,0,0,-9,-3,-10
1530692372217841,-2,-6,-6,-7,-9,3,12,-1
1530692372217841,-8,1,0,1,-21,-7,18,-9
1530692372229809,21,-1,9,9,34,16,-15,23
1530692372229809,-26,-20,-7,-3,8,1,-5,-14
1530692372236790,2,-2,-3,0,-11,-9,17,-5
1530692372236790,4,-6,-4,-5,-3,7,-34,15
1530692372253745,-20,-12,-1,2,-11,-11,8,-19
1530692372253745,0,-36,-12,-8,9,23,-5,17
1530692372254743,5,22,-2,-1,-4,-11,5,-13
1530692372254743,-14,-21,-1,1,0,-4,4,-11
1530692372275686,28,66,29,8,1,-7,2,15
1530692372275686,-8,-15,-11,-5,-8,1,3,2
1530692372277681,8,-27,-8,0,9,5,0,10
1530692372277681,-13,9,-11,-5,0,-7,2,-14
1530692372289649,-11,14,2,0,-4,1,-8,-12
1530692372289649,1,-8,1,1,-2,-2,14,10
1530692372298625,0,14,5,2,-9,-2,-14,-20
1530692372298625,5,-3,2,3,16,-2,7,-5
1530692372313585,-16,-30,-7,-6,3,-1,-7,-6
1530692372313585,9,14,1,1,-11,-9,-1,8
1530692372315580,-2,-10,-2,-1,-22,8,19,10
1530692372315580,-5,-19,-5,-2,38,8,-9,-10
1530692372336523,17,6,-12,-11,-23,-9,13,14
1530692372336523,2,0,7,3,2,-2,-4,-4
1530692372337521,-8,6,0,2,-4,-17,-32,-9
1530692372337521,-6,15,13,3,-16,9,10,-10
1530692372349489,-4,-34,-17,-7,-3,4,17,20
1530692372349489,1,3,-3,-7,-10,-12,-9,-20
1530692372358465,-3,2,-4,-33,-9,-1,7,0
1530692372358465,-6,-13,-11,-31,-2,-13,-27,2
1530692372373425,-4,-6,15,71,35,10,-21,-21
1530692372373425,2,-6,3,64,6,12,26,28
1530692372375420,13,14,4,2,11,-2,4,-17
1530692372375420,-5,8,-8,-7,-11,-8,-15,-3
1530692372396364,6,-49,-2,-13,-12,-9,-10,4
1530692372396364,5,83,18,-15,14,0,25,3
1530692372397361,-25,-68,-17,0,4,6,-16,-28
1530692372397361,19,81,10,-1,-6,-4,1,31
1530692372409329,0,-30,-12,-22,-10,-2,-10,-45
1530692372409329,2,-25,-9,-9,-8,-2,-4,8
1530692372418305,1,20,6,-5,-2,-4,-4,8
1530692372418305,3,-33,-2,6,9,2,20,3
1530692372433265,8,4,-2,-4,-5,-5,-29,4
1530692372433265,-5,-2,-3,-13,-9,-6,10,-5
1530692372435260,-9,-2,4,6,3,0,19,-1
1530692372435260,7,-26,-4,16,14,15,-13,5
1530692372456203,-3,1,-8,-8,-21,-12,1,-13
1530692372456203,20,37,29,-3,14,6,1,3
1530692372457201,5,-14,-5,4,12,3,-2,25
1530692372457201,-13,-5,-7,4,-4,-3,21,-6
1530692372469169,0,-15,-4,-12,-22,5,4,10
1530692372469169,-18,-32,-16,-9,31,-11,-27,-17
1530692372479142,13,20,10,7,-13,5,22,22
1530692372479142,10,-5,-3,3,7,5,-21,0
1530692372493105,-23,-3,1,-10,5,11,22,-7
1530692372493105,9,12,-5,-4,-16,-15,-12,-11
1530692372495100,5,2,1,1,11,-6,-3,44
1530692372495100,7,8,2,-7,-26,-16,7,-4
1530692372516044,-11,3,0,-3,-2,-3,3,10
1530692372516044,3,-13,-4,-1,-5,2,13,0
1530692372518039,-7,-9,-8,13,15,7,-19,-11
1530692372518039,-1,-4,6,-13,-9,6,32,-2
1530692372530006,8,6,-4,-8,-1,-4,-13,7
1530692372530006,-10,5,2,-7,7,-4,2,7
1530692372538983,-2,-37,-13,0,-29,-4,-9,-10
1530692372538983,7,41,6,11,24,-11,-7,8
1530692372553942,-11,3,3,-11,12,-2,-5,-31
1530692372553942,-17,-58,-24,-15,-22,3,-7,13
1530692372554940,9,0,0,4,-4,-4,10,-6
1530692372554940,-30,27,9,-2,-38,-6,-7,-23
1530692372575883,28,-10,1,7,44,-1,-13,24
1530692372575883,5,-8,-8,-4,-6,1,0,-6
1530692372577878,-4,-4,-7,-8,-8,3,26,6
1530692372577878,-11,-37,-8,-4,-10,-2,-34,-24
1530692372589846,1,26,5,-9,-13,0,11,4
1530692372589846,-7,-12,-2,10,1,5,1,0
1530692372598822,6,-17,-1,-6,13,-6,-25,0
1530692372598822,3,39,5,2,-12,6,10,-8
1530692372613782,-18,17,12,6,-9,-5,5,-13
1530692372613782,-10,-20,-3,0,8,4,-16,-24
1530692372614780,10,81,17,3,24,1,6,15
1530692372614780,6,-51,-12,-2,4,-7,0,5
1530692372635724,0,-5,-6,3,1,14,33,-3
1530692372635724,7,-12,-2,-5,-14,2,-31,12
1530692372637718,-15,9,9,1,-16,-12,-18,-26
1530692372637718,5,-21,2,3,10,2,9,10
1530692372649686,13,62,5,4,2,-1,-8,8
1530692372649686,16,10,5,0,-16,6,15,10
1530692372658662,1,-32,-2,5,43,-2,-1,-9
1530692372658662,-26,12,-15,-9,-15,-15,-32,-17
1530692372673622,-14,-13,8,10,-1,0,9,0
1530692372673622,5,-7,-4,-9,-23,-4,2,6
1530692372674620,14,22,3,-6,1,8,4,2
1530692372674620,19,-2,3,6,-14,-12,-9,20
1530692372696561,-25,-23,-12,-3,4,0,-34,-29
1530692372696561,10,9,5,-1,6,-6,-17,-16
1530692372697558,-9,14,-1,1,-1,16,15,-8
1530692372697558,5,8,9,3,13,2,14,-14
1530692372709526,14,6,-1,-7,-32,-8,-1,65
1530692372709526,-10,-6,-2,-3,7,-3,3,7
1530692372718503,-12,-12,-2,13,-2,-12,-10,-11
1530692372718503,16,-12,-9,0,-18,19,17,14
1530692372732465,-11,9,-1,1,48,-4,-31,-22
1530692372732465,-22,-39,-7,-3,-3,9,27,-6
1530692372739446,2,42,3,-12,-19,-17,-44,-28
1530692372739446,2,11,9,3,-8,2,65,34
1530692372756401,1,-46,-13,-1,0,1,-1,-5
1530692372756401,3,11,-1,-2,4,-4,-26,-1
1530692372757398,-4,-8,-6,1,-2,3,13,-11
1530692372757398,-11,9,3,1,10,1,-23,-9
1530692372769366,16,8,5,-2,-10,-2,22,23
1530692372769366,-31,-5,-8,-1,0,-9,-1,-29
1530692372778343,7,-13,1,1,-2,-2,-28,39
1530692372778343,-15,-18,-9,-1,7,4,-7,-83
1530692372793302,1,-1,-2,-7,-14,-8,-2,12
1530692372793302,11,38,17,14,8,3,-24,3
1530692372795297,3,-30,1,-8,-7,6,64,12
1530692372795297,-4,-23,-6,-2,-3,-4,-32,13
1530692372816241,10,28,1,6,26,6,34,-4
1530692372816241,1,-8,-8,-2,-22,-24,-11,12
1530692372817238,-12,3,-4,2,-2,16,-20,-29
1530692372817238,9,-26,-8,-7,-22,-7,6,17
1530692372829206,-6,-2,5,2,11,0,0,-15
1530692372829206,10,17,4,4,0,3,-8,-2
1530692372838182,5,6,4,-2,4,-7,22,12
1530692372838182,-3,-10,-8,-7,-12,-10,-38,5
1530692372853142,-10,-5,-1,-1,-3,10,-1,-25
1530692372853142,5,6,-1,7,16,6,15,27
1530692372855137,-7,-12,-3,-2,-6,-10,-36,-29
1530692372855137,1,-14,0,1,5,-2,12,10
1530692372876081,3,-33,-8,-4,-12,-7,5,39
1530692372876081,8,77,19,4,15,5,1,-44
1530692372878076,-3,-6,-3,-1,2,3,17,-4
1530692372878076,0,3,-4,0,18,-6,-40,-10
1530692372890043,-19,-18,-5,-3,-20,-9,-14,-25
1530692372890043,-3,-40,-14,-10,-9,-3,-3,38
1530692372899020,4,5,-1,-1,0,0,15,-25
1530692372899020,4,17,8,0,7,5,42,73
1530692372912982,7,-2,0,0,-26,-7,-12,-21
1530692372912982,-14,-22,-4,4,5,-3,-48,-18
1530692372919964,4,-2,-1,-4,21,-2,-3,17
1530692372919964,-11,4,0,2,9,4,2,-32
1530692372935921,7,-20,-3,-2,-8,-2,20,33
1530692372935921,6,50,12,-1,-21,11,18,-5
1530692372937916,5,-19,-2,1,-6,18,33,47
1530692372937916,-19,3,-3,1,29,-24,-49,-64
1530692372958860,-9,-3,8,0,-13,11,-2,-14
1530692372958860,0,0,-5,0,14,-4,13,10
1530692372959858,0,4,-7,-6,-29,7,-5,4
1530692372959858,3,-1,4,2,-10,15,53,15
1530692372972822,-12,-12,-8,-5,8,-9,-13,-19
1530692372972822,3,4,-3,-2,-2,-1,1,-4
1530692372979803,2,29,14,6,1,-5,-4,3
1530692372979803,7,-13,-8,-4,-3,-1,-4,-1
1530692373003739,-10,2,4,-1,1,-10,-20,-28
1530692373003739,-4,-31,-16,-9,3,9,41,79
1530692373004737,-16,-36,-8,-4,-4,-14,-3,-27
1530692373004737,14,52,5,2,4,7,-3,-23
1530692373018700,0,11,-2,1,-6,-2,-6,-5
1530692373018700,5,-13,-4,-4,-6,-15,-5,-1
1530692373019697,-11,-9,-1,2,-6,2,-20,0
1530692373019697,7,-9,-2,1,2,11,29,17
1530692373032662,12,10,-2,5,17,-3,-16,12
1530692373032662,-12,1,3,-4,2,-9,4,-30
1530692373039643,4,-16,-2,-6,4,-6,0,4
1530692373039643,-1,-7,4,-3,-25,-9,-6,13
1530692373056599,5,20,5,15,34,16,6,-1
1530692373056599,1,-15,-2,-1,6,13,-10,-2
1530692373057597,-4,-2,-5,-3,10,-11,16,-12
1530692373057597,9,-10,1,0,-10,-9,-19,9
1530692373078544,-7,-2,-5,-8,-14,-10,42,14
1530692373078544,3,-6,4,4,-8,-8,-9,-6
1530692373080535,4,12,2,-2,1,19,-41,5
1530692373080535,1,1,-6,0,-2,1,6,-7
1530692373092503,-1,-22,-10,-1,4,6,18,11
1530692373092503,3,-1,4,-1,-3,-5,-16,31
1530692373099484,-7,5,3,-3,-10,-9,11,-59
1530692373099484,-6,-5,0,2,12,1,-7,-2
1530692373116438,5,-1,1,-3,7,5,-5,-22
1530692373116438,6,3,5,2,5,-7,25,2
1530692373117437,12,11,1,3,4,7,-35,20
1530692373117437,-8,-11,0,-1,-6,9,9,-5
1530692373138379,9,4,-2,-7,-11,4,-13,12
1530692373138379,-25,4,9,9,11,-7,10,-28
1530692373140374,8,-7,-2,-7,-11,-7,6,17
1530692373140374,-10,5,-3,-4,-36,4,19,-16
1530692373152343,-1,-8,-2,4,21,8,-50,6
1530692373152343,19,-8,-5,1,20,-10,5,13
1530692373159323,-25,-21,-13,-1,-2,8,3,-24
1530692373159323,20,64,19,3,12,7,5,10
1530692373176278,3,-7,-5,-11,-36,-10,11,35
1530692373176278,-29,-21,-8,-4,-27,-13,-21,-86
1530692373177276,11,-1,-1,4,23,13,32,32
1530692373177276,-22,-18,-6,-3,25,-5,-27,-6
1530692373198219,2,35,13,0,-16,-8,5,-18
1530692373198219,14,-10,-8,-3,6,3,-24,15
1530692373200215,-3,10,-2,-3,-30,-23,-12,-27
1530692373200215,1,-7,-4,-1,18,24,21,11
1530692373212182,-10,-11,-4,-5,4,-22,-18,-6
1530692373212182,-9,-8,-1,-2,-22,16,1,-12
1530692373221159,4,28,6,1,16,-1,-6,4
1530692373221159,2,-19,-4,1,0,-3,7,13
1530692373235121,-6,10,-17,-7,3,3,40,3
1530692373235121,11,-11,11,6,-14,-5,-50,-10
1530692373244097,5,6,1,3,43,1,-4,5
1530692373244097,14,16,7,0,5,-5,-1,24
1530692373258059,-24,-13,6,8,-12,-8,17,-9
1530692373258059,-1,8,-7,-8,-13,-7,31,-1
1530692373260054,12,-14,0,4,-3,15,-3,-2
1530692373260054,-6,-30,-9,-1,6,-9,-15,-7
1530692373272022,8,-3,-4,-2,-17,8,1,-4
1530692373272022,7,7,4,0,18,8,24,32
1530692373281000,-8,-2,-4,-2,-23,-5,17,-7
1530692373281000,-1,-1,-3,0,8,4,-21,7
1530692373295958,0,-15,2,0,-13,-3,0,-6
1530692373295958,2,48,0,-3,17,-7,-18,-15
1530692373297953,-7,-12,-3,-1,3,12,18,22
1530692373297953,-2,-4,1,3,-8,-22,-5,-9
1530692373318896,6,8,7,3,2,13,-39,7
1530692373318896,2,-20,-13,-8,-16,-8,9,1
1530692373319894,-16,-4,-4,-7,-3,-14,19,-17
1530692373319894,16,-9,-3,2,-42,-6,-11,18
1530692373331862,11,23,15,4,53,10,16,-5
1530692373331862,4,28,5,1,26,14,-15,6
1530692373340838,-1,20,2,1,-5,1,11,16
1530692373340838,2,-32,-7,-7,-8,-16,1,-19
1530692373355798,-14,-10,-5,-2,-28,-9,-13,-20
1530692373355798,-7,-15,0,2,14,4,-2,3
1530692373357793,8,20,-3,-3,-5,0,12,4
1530692373357793,-1,1,4,-1,0,4,-25,-3
1530692373378743,2,-16,-9,-1,6,-2,6,15
1530692373378743,-4,17,3,2,-14,-4,0,-12
1530692373379738,-4,-6,2,0,5,3,-11,-7
1530692373379738,-19,-3,-4,5,38,9,-10,0
1530692373391702,4,-5,-3,-3,-16,4,15,-4
1530692373391702,13,10,5,3,-1,9,6,0
1530692373400678,10,28,12,4,-13,-14,-4,0
1530692373400678,14,9,3,3,12,4,10,21
1530692373415638,-14,-6,-5,-9,-32,-1,4,30
1530692373415638,-16,-8,-5,2,6,-13,23,-44
1530692373417634,16,-11,-3,2,19,26,-23,24
1530692373417634,-18,-15,-4,-5,-7,-25,-3,-31
1530692373438576,9,-4,-1,12,17,4,-23,-11
1530692373438576,21,49,13,-4,-42,-11,9,28
1530692373440571,-9,-20,-6,-5,-4,-8,-3,-11
1530692373440571,-19,-18,-6,-5,8,8,-14,-32
1530692373452539,9,17,0,-3,-5,-8,0,-4
1530692373452539,-5,-19,-4,-2,6,3,5,9
1530692373461520,-12,-14,2,7,4,-14,-33,-24
1530692373461520,-15,-13,-3,-12,-11,15,25,9
1530692373476476,8,51,4,1,1,-9,1,5
1530692373476476,4,-26,5,1,14,-1,-16,-1
1530692373477473,11,5,-8,-10,-16,5,21,16
1530692373477473,0,-15,-3,6,5,3,8,-15
1530692373498417,6,6,-5,0,3,22,-37,-1
1530692373498417,6,-23,6,3,5,11,26,7
1530692373500412,-10,-7,3,0,2,-9,-28,-23
1530692373500412,9,25,-1,-8,-11,-10,28,41
1530692373512380,-13,-13,4,4,8,-5,-9,-32
1530692373512380,-10,-7,-7,0,8,14,-7,-1
1530692373521356,6,3,-1,-4,-19,-11,-8,-5
1530692373521356,20,22,7,7,4,0,12,17
1530692373536315,-5,9,3,-4,0,-4,3,4
1530692373536315,-4,-18,-10,-2,0,21,9,-11
1530692373537313,-20,-15,-6,-1,14,-3,-3,1
1530692373537313,9,-23,-6,-6,-10,-2,-10,4
1530692373558257,21,73,21,7,1,-7,0,8
1530692373558257,-7,-19,-6,-6,-4,-14,-12,-19
1530692373560251,-26,-11,-2,2,-12,11,10,-19
1530692373560251,-4,9,0,5,-2,-9,-22,-17
1530692373572220,12,-29,-10,-3,9,-1,10,15
1530692373572220,-9,-11,-4,-6,-9,12,-3,2
1530692373581196,15,47,10,4,-13,2,6,9
1530692373581196,-14,-14,1,4,41,8,3,17
1530692373596160,3,9,6,1,-6,-8,-1,-7
1530692373596160,5,-12,-5,-2,-5,-19,16,-13
1530692373597153,11,-28,-3,-4,-13,-2,-54,20
1530692373597153,0,0,-4,-3,-7,0,22,1
1530692373618096,-18,-6,5,-3,4,3,7,2
1530692373618096,4,-8,-10,5,4,7,13,25
1530692373620092,17,6,1,-3,-16,-18,-20,4
1530692373620092,-12,-21,-5,-1,14,12,7,-25
1530692373632059,-11,-25,-4,1,9,3,-6,7
1530692373632059,-7,7,0,-6,-26,-15,-6,-14
1530692373641035,8,34,6,3,11,-1,16,28
1530692373641035,4,-5,-1,-2,-13,3,26,8
1530692373655995,5,-3,-7,-2,-33,-5,-51,-14
1530692373655995,-36,14,5,-2,20,0,-17,-3
1530692373657990,28,-40,-8,1,21,-6,13,-32
1530692373657990,-32,2,7,2,-1,5,-20,12
1530692373678941,19,52,6,-1,4,0,49,18
1530692373678941,18,-23,-7,-5,-25,-2,6,11
1530692373679932,-24,-24,-6,2,3,-7,-3,-7
1530692373679932,0,20,2,-3,-6,-14,9,-12
1530692373691899,-14,-26,0,4,12,7,-8,-27
1530692373691899,6,3,-5,1,10,23,6,21
1530692373700876,-2,2,1,-7,-13,-8,23,3
1530692373700876,6,-10,-7,-1,24,26,2,-8
1530692373715835,-1,-21,-5,0,-26,-29,-18,30
1530692373715835,-6,21,0,-6,7,1,1,-27
1530692373717831,-10,-24,-4,0,3,11,15,26
1530692373717831,-4,17,2,-3,-30,-12,2,-39
1530692373738774,-4,-26,-2,4,27,-5,5,1
1530692373738774,-2,51,12,1,3,6,15,25
1530692373739771,3,7,3,3,-2,-4,-26,-22
1530692373739771,-1,0,-8,-1,-3,1,-21,22
1530692373751739,-7,-5,3,-5,-8,3,3,-74
1530692373751739,9,-21,-8,1,-5,0,30,33
1530692373760715,-6,14,0,1,10,11,-5,8
1530692373760715,7,-2,2,1,-6,-13,-2,10
1530692373775675,-15,-28,-15,-6,-1,-8,8,-10
1530692373775675,4,25,7,1,10,10,-19,-11
1530692373777672,-3,-11,1,0,-25,-7,12,9
1530692373777672,1,-15,3,10,42,-7,-10,-38
1530692373798614,-2,-10,-9,-10,-20,10,11,12
1530692373798614,20,39,13,4,4,-2,-28,-15
1530692373800609,-3,-9,-4,-8,-8,-3,18,3
1530692373800609,6,35,0,-1,-17,4,18,-2
1530692373812576,1,-17,-1,0,4,-6,-21,15
1530692373812576,-33,-30,-7,3,4,-11,-31,-37
1530692373821552,3,27,4,-1,9,4,12,-2
1530692373821552,-3,0,2,4,-13,1,-31,5
1530692373835515,11,-3,-3,-1,30,2,37,11
1530692373835515,7,-21,-8,-6,-19,2,8,23
1530692373842496,0,2,4,4,3,4,-6,26
1530692373842496,-3,11,5,-1,8,-9,-11,-14
1530692373858454,-22,-15,-8,-3,-5,5,-1,-18
1530692373858454,14,0,6,6,-11,-14,-31,-12
1530692373860449,11,36,12,2,1,-2,16,20
1530692373860449,14,-3,-9,-3,10,29,22,3
1530692373881392,-25,-22,-2,0,-6,-7,-20,-21
1530692373881392,-10,15,-2,-2,7,-1,14,-2
1530692373882390,10,-16,-4,-3,6,-3,-31,1
1530692373882390,-24,-13,-3,-4,-51,-13,-8,-10
1530692373895361,21,-3,-5,-3,34,12,15,29
1530692373895361,2,8,-2,2,-6,-13,-15,-22
1530692373902337,-16,2,-5,-2,6,11,-14,-19
1530692373902337,15,-4,3,-9,-8,-7,20,27
1530692373918299,-1,-17,-9,-2,-37,-9,-27,-1
1530692373918299,6,1,9,4,14,-1,3,2
1530692373920289,-18,-26,-8,0,28,3,20,-4
1530692373920289,15,41,5,-1,-25,3,-36,-22
1530692373941232,-21,-9,-5,-1,14,-5,35,-11
1530692373941232,3,-16,-3,-6,-25,-1,31,33
1530692373942230,0,-26,-11,-2,-7,6,-10,-18
1530692373942230,2,60,7,-4,7,-20,3,-2
1530692373955195,-11,1,10,8,-6,32,3,18
1530692373955195,-12,8,-8,0,13,-10,-12,-36
1530692373962181,-9,-20,-1,0,21,-9,-16,-17
1530692373962181,2,-23,-14,-4,-1,1,-15,-9
1530692373978134,13,40,7,1,-2,-3,4,12
1530692373978134,0,-51,-9,-3,-28,11,27,25
1530692373980129,8,40,6,2,14,-1,-3,-4
1530692373980129,-7,1,8,2,10,-1,-10,-2
1530692374001073,-6,-17,-4,-2,-3,-14,10,9
1530692374001073,-2,23,-7,-4,-7,13,17,-27
1530692374003067,17,-16,-4,-3,-19,1,2,-12
1530692374003067,-19,-14,-11,1,-1,-6,17,53
1530692374015035,29,8,28,10,5,3,-44,-18
1530692374015035,-4,-14,-6,-4,3,-14,-4,4
1530692374022016,-9,2,5,1,-7,-2,15,-6
1530692374022016,1,-11,-8,-1,-9,14,-9,-8
1530692374038971,-2,-2,-10,-2,3,-3,6,8
1530692374038971,7,4,2,0,37,11,-14,7
1530692374039969,1,5,0,-2,-17,-13,0,12
1530692374039969,-8,-32,0,3,15,7,13,0
1530692374060913,12,21,-1,-1,-13,-1,8,23
1530692374060913,0,-4,7,-1,-8,3,-19,-5
1530692374062913,-25,6,-5,-5,-27,1,11,-20
1530692374062913,3,7,3,5,17,-9,6,3
1530692374074875,21,9,0,1,20,6,-3,9
1530692374074875,4,-26,-7,-1,3,-4,0,-5
1530692374081856,-7,19,11,4,-4,3,-14,-3
1530692374081856,9,-8,3,-5,-27,-12,31,15
1530692374098811,-30,-13,-7,-3,11,7,-39,-27
1530692374098811,2,-15,-7,1,14,3,9,12
1530692374099809,-8,-15,-13,-5,-8,4,5,6
1530692374099809,20,17,10,5,7,-13,-25,19
1530692374120752,-17,12,8,2,0,4,14,-31
1530692374120752,-9,-7,-5,-12,-27,-2,2,-11
1530692374122747,6,4,7,8,18,2,6,-19
1530692374122747,2,-12,-6,-4,3,12,10,17
1530692374135712,24,13,6,5,-11,-21,-13,11
1530692374135712,-18,11,4,5,23,-15,-43,-9
1530692374141696,-13,-23,-10,-5,-8,7,20,-22
1530692374141696,-4,-25,-2,-1,3,1,3,-11
1530692374165632,24,34,1,-4,-13,2,21,31
1530692374165632,2,-8,11,6,-4,10,6,-2
1530692374167627,16,-13,-7,-11,-6,-16,-7,56
1530692374167627,-31,9,-1,1,-2,3,-6,-86
1530692374180592,-13,-31,-14,-6,7,-5,14,25
1530692374180592,1,16,0,3,-11,5,7,18
1530692374182587,19,-3,0,-1,-5,5,-22,31
1530692374182587,0,7,5,0,-1,-12,13,-9
1530692374194555,-13,-7,-4,4,31,14,4,1
1530692374194555,9,-7,-2,-4,-1,2,16,3
1530692374203531,-32,16,6,7,1,-3,3,-19
1530692374203531,19,0,-4,-5,-8,7,-6,37
1530692374218491,-4,-11,-2,-1,-5,-7,-27,-57
1530692374218491,10,-2,-2,-1,3,0,29,42
1530692374220486,-7,10,4,-3,-8,-6,-34,-29
1530692374220486,5,-10,-1,0,1,-9,-36,-31
1530692374241429,18,38,3,-5,-13,-1,39,52
1530692374241429,-11,-4,-2,-1,27,13,-13,-23
1530692374242427,21,-20,-6,-1,-12,-9,-13,18
1530692374242427,-12,-7,-3,-2,11,1,18,-10
1530692374254395,-4,-8,-3,-6,-25,0,-3,-8
1530692374254395,17,-2,-1,-2,-5,-4,-2,15
1530692374263371,-17,6,-9,-7,12,0,38,13
1530692374263371,5,8,3,6,7,9,-27,21
1530692374278331,-8,-5,5,7,-18,18,17,-33
1530692374278331,-9,-2,-1,-6,25,-29,-23,-14
1530692374280326,0,-3,-3,1,7,10,21,-3
1530692374280326,-10,-6,-3,-4,-19,4,7,-1
1530692374301269,2,-34,-6,1,7,-4,-10,11
1530692374301269,-6,69,3,-1,-15,-6,-28,-11
1530692374302267,12,-11,1,-1,-7,-15,-18,-8
1530692374302267,3,17,0,0,5,6,-7,-4
1530692374314235,-7,-20,-5,-5,-11,-19,24,16
1530692374314235,-12,-13,-12,-5,-14,0,5,-23
1530692374323210,9,-3,3,5,16,10,-37,4
1530692374323210,-14,16,8,3,-3,1,9,-17
1530692374338170,1,19,3,2,35,4,-19,3
1530692374338170,10,-28,-5,-2,-25,-15,-6,-27
1530692374340165,8,16,0,-2,-3,-6,5,24
1530692374340165,6,-24,-3,-5,-13,-4,-10,-3
1530692374361109,-6,29,-4,0,12,-2,-3,-7
1530692374361109,8,-13,-4,-8,-10,7,0,-35
1530692374363104,-8,-5,5,0,-13,-15,-26,-10
1530692374363104,1,5,-7,-2,-10,-11,15,7
1530692374375072,-35,-27,-7,-8,-21,-2,-1,-29
1530692374375072,17,29,3,8,57,15,10,34
1530692374384048,-1,-13,1,3,-4,-1,16,5
1530692374384048,-23,3,-3,-3,9,-5,-12,2
1530692374398011,13,10,2,-5,-19,0,-2,-5
1530692374398011,-10,-14,-1,3,-10,0,9,20
1530692374400006,10,2,-1,1,8,5,22,11
1530692374400006,-20,-2,-3,-2,-11,-21,-17,-22
1530692374420949,11,-21,-7,4,28,25,2,10
1530692374420949,13,9,9,3,-21,-5,-11,4
1530692374422944,5,21,7,3,-11,12,8,8
1530692374422944,-3,-14,-6,2,59,12,1,-5
1530692374434912,10,5,-1,-9,-21,-15,-8,21
1530692374434912,-8,-14,-1,3,-2,-22,-5,10
1530692374443888,0,6,-1,5,-9,13,11,0
1530692374443888,-11,-33,-12,-11,-27,3,-10,20
1530692374458848,14,32,16,1,1,-1,13,16
1530692374458848,-10,8,6,-2,11,8,28,-12
1530692374459846,1,-26,-6,-7,2,-6,-42,17
1530692374459846,6,-13,-3,1,-12,-6,21,15
1530692374480789,-15,-40,-15,-3,4,-3,-26,-50
1530692374480789,2,18,15,3,-18,4,20,41
1530692374482784,-2,5,-6,-6,-6,-12,19,-15
1530692374482784,15,3,2,0,10,18,-2,22
1530692374494752,-7,-19,-5,3,-3,12,-5,8
1530692374494752,-16,-3,-5,0,-1,-21,-26,-28
1530692374503728,6,9,1,2,12,15,37,-2
1530692374503728,15,-4,-4,-1,-11,-9,-36,-10
1530692374518688,-3,17,3,-3,-5,-14,-1,40
1530692374518688,-8,-11,-3,-1,0,20,1,-6
1530692374519686,5,-2,-4,-1,-6,-3,1,-14
1530692374519686,5,-8,1,0,4,3,17,4
1530692374540629,7,21,2,-1,3,1,3,-12
1530692374540629,-1,1,4,2,4,-1,-11,25
1530692374542624,-1,-17,-8,-6,3,-9,13,-8
1530692374542624,-23,7,3,4,-8,0,-47,-19
1530692374554592,6,-8,-1,0,-10,-14,-11,-1
1530692374554592,-1,-6,-7,-4,-6,3,35,6
1530692374563568,-9,-22,-8,-2,1,-7,-27,2
1530692374563568,11,11,0,-2,-9,2,34,8
1530692374578528,-15,-6,-2,0,10,7,-11,-2
1530692374578528,2,-6,-1,1,-9,3,13,-20
1530692374580522,5,24,5,0,3,-3,-15,18
1530692374580522,5,-17,-9,-2,13,2,31,10
1530692374600469,-4,-2,5,0,-7,-11,-18,-37
1530692374600469,3,-8,-10,1,4,5,-5,4
1530692374602464,-24,5,13,0,-5,-6,3,-19
1530692374602464,0,5,-3,-4,-10,-14,-1,-3
1530692374614432,21,3,1,2,-1,5,9,11
1530692374614432,-7,-12,-3,0,3,19,-15,-10
1530692374623408,16,7,-4,-1,-2,-1,3,-5
1530692374623408,1,-2,3,1,-1,10,-6,20
1530692374638368,3,50,7,-2,32,4,15,3
1530692374638368,18,-12,-3,1,-9,-6,-12,0
1530692374640363,-25,-14,-8,-5,1,-2,9,-21
1530692374640363,13,10,10,7,-18,-25,-17,12
1530692374661306,-7,-17,-13,-5,-21,19,15,8
1530692374661306,-8,-4,-2,-1,7,-3,5,7
1530692374662304,-13,-23,-5,-3,-1,1,-1,-27
1530692374662304,9,38,6,2,8,0,5,-12
1530692374674272,0,-25,0,1,-14,-25,-12,10
1530692374674272,14,19,-3,-5,3,-3,-3,18
1530692374683248,6,-9,1,1,-1,18,21,27
1530692374683248,-9,-19,-6,-5,4,-1,-11,-11
1530692374698208,-17,-9,5,2,7,-5,-13,-29
1530692374698208,9,4,4,0,-13,-2,-2,-8
1530692374700203,13,18,-2,-2,0,-11,-6,12
1530692374700203,-22,-17,-5,-3,9,-13,-9,-45
1530692374721147,14,17,3,1,-13,19,11,34
1530692374721147,-17,-17,-7,-1,28,-6,-20,-19
1530692374722144,13,7,4,6,14,-5,-4,-10
1530692374722144,3,3,-2,-7,-22,27,39,59
1530692374735109,-15,-31,-10,-5,25,-5,-7,-51
1530692374735109,-4,18,4,-1,11,-6,-3,6
1530692374744085,-12,24,3,2,0,-3,-27,-15
1530692374744085,8,12,8,0,-4,-2,5,-1
1530692374758048,-5,-1,-1,1,-15,-12,-12,-1
1530692374758048,15,9,-3,-7,-6,0,11,19
1530692374760043,-18,-14,-6,-3,6,3,10,-3
1530692374760043,6,-8,-5,0,-4,4,-7,-12
1530692374780986,0,22,3,1,-2,8,28,5
1530692374780986,9,14,5,3,-6,-18,-36,23
1530692374782981,16,-12,-2,-1,-8,-5,-1,-21
1530692374782981,2,1,-2,-1,-1,13,5,9
1530692374794950,3,-15,-4,1,11,3,8,10
1530692374794950,-12,-6,-3,-2,-4,1,-1,15
1530692374803925,1,-7,-5,-5,-10,-12,-2,-23
1530692374803925,11,15,2,2,8,7,10,10
1530692374817887,1,12,10,5,1,0,-17,-5
1530692374817887,-6,6,-2,0,-10,4,13,-18
1530692374824869,-23,-23,-4,0,2,-3,-21,-25
1530692374824869,2,0,-9,-4,-3,-6,20,13
1530692374840826,11,-13,0,-4,-14,-26,-20,14
1530692374840826,2,-11,3,5,-12,6,-10,-37
1530692374842821,-3,4,-2,4,32,7,-18,11
1530692374842821,4,-9,0,1,-2,-13,-8,5
1530692374863765,-2,4,-1,-1,4,32,23,2
1530692374863765,2,-8,-4,-3,-14,-15,0,20
1530692374864762,-6,-16,-2,-6,-16,-12,1,10
1530692374864762,0,29,10,3,6,-6,-13,13
1530692374877728,-5,-9,-12,-5,-7,-2,-23,-73
1530692374877728,-3,4,7,-3,-6,7,31,-22
1530692374884709,19,20,5,9,2,9,-30,-6
1530692374884709,-16,-14,-5,-2,46,9,-9,2
1530692374900666,2,-30,-10,-7,-8,3,-6,19
1530692374900666,-20,25,0,-2,-6,3,15,-27
1530692374902661,-4,-5,2,-2,-22,-6,9,15
1530692374902661,5,16,2,2,-9,-9,-29,-15
1530692374923605,9,21,5,0,11,-5,-10,17
1530692374923605,2,-19,-2,-4,-4,-1,-4,9
1530692374929589,1,-5,-9,-7,-2,12,47,17
1530692374929589,3,-7,7,4,-5,-1,1,-10
1530692374937568,-6,4,1,-1,-1,-4,9,36
1530692374937568,-20,-18,-7,-2,2,-9,-17,-66
1530692374944549,-8,15,-4,-7,-12,-11,9,18
1530692374944549,-4,-7,1,-1,5,4,2,-7
1530692374961503,5,12,7,2,-9,-7,5,-18
1530692374961503,7,-1,-7,-4,-5,-11,5,61
1530692374962501,-8,-14,-7,-1,9,23,12,-19
1530692374962501,2,-16,-7,-6,-6,3,-4,17
1530692374983445,1,21,2,-1,4,-2,19,0
1530692374983445,-8,-3,-2,-2,-11,-6,-16,-6
1530692374985440,15,12,4,-1,15,-5,-4,17
1530692374985440,-11,-9,1,-3,-38,-7,22,6
1530692374997408,-5,13,1,3,29,2,-17,-25
1530692374997408,15,-28,-6,2,16,7,-9,26
1530692375004389,-4,2,3,0,-19,-13,-8,2
1530692375004389,-2,23,12,-3,-14,-4,-8,-36
1530692375021344,-25,-24,-10,-3,-15,-6,-9,-19
1530692375021344,6,-7,0,4,-3,-3,-3,29
1530692375022341,-13,-13,-9,-3,12,8,25,-6
1530692375022341,13,6,-1,4,7,1,-34,-27
1530692375043285,3,-5,-8,-4,-8,0,18,12
1530692375043285,-5,0,2,3,7,-9,-9,9
1530692375045280,15,3,10,3,-1,-7,-3,-13
1530692375045280,-21,3,-10,-1,6,1,-14,-7
1530692375058245,5,-15,-3,-4,-13,20,15,16
1530692375058245,1,2,-1,-1,9,-11,5,26
1530692375064229,-2,2,-3,-5,3,-1,-3,-60
1530692375064229,13,14,10,3,-3,-12,-15,31
1530692375081184,-13,0,0,0,-5,0,-4,-16
1530692375081184,-9,11,-2,-7,-9,5,20,-2
1530692375082181,4,-19,2,1,-14,-3,-20,10
1530692375082181,8,12,-3,-1,15,12,30,7
1530692375103125,-7,-27,-7,0,21,-13,-23,1
1530692375103125,11,30,12,3,3,2,18,-28
1530692375105120,-8,-7,-6,-1,-2,6,-8,20
1530692375105120,6,-7,-7,-6,-24,-2,14,9
1530692375117087,-21,-12,-2,-3,4,4,-15,-3
1530692375117087,8,-9,-7,-4,7,0,19,-10
1530692375126064,7,13,7,4,-29,-1,-35,14
1530692375126064,2,-7,-1,2,51,-3,8,-14
1530692375141023,-1,3,-3,-3,-26,-9,13,4
1530692375141023,3,-2,2,3,3,5,-11,-2
1530692375143018,6,20,7,-6,-16,0,-5,13
1530692375143018,-21,-16,-3,2,-3,-3,7,-3
1530692375163962,12,-3,-6,-2,13,7,-9,15
1530692375163962,-3,26,12,4,3,5,24,-8
1530692375164960,-14,-21,-9,-4,2,-2,3,-7
1530692375164960,-1,3,0,-4,-16,-10,20,-2
1530692375176928,-4,-17,1,2,6,-2,-52,-16
1530692375176928,5,12,-3,-1,-6,3,-8,21
1530692375185904,0,-24,-3,-1,6,0,10,40
1530692375185904,-3,8,4,-1,8,3,5,-24
1530692375200863,15,29,5,0,-25,-8,23,39
1530692375200863,-18,-32,-11,-4,15,4,-18,-17
1530692375202858,9,23,8,0,5,-5,-4,-17
1530692375202858,-12,-13,-5,2,-5,0,-18,-5
1530692375223802,16,9,3,-3,-5,-3,21,3
1530692375223802,-4,-5,-2,-3,-30,-10,-10,9
1530692375224800,-21,4,-1,4,7,13,13,-24
1530692375224800,8,-1,-2,-5,15,-5,-33,12
1530692375236767,9,21,3,2,5,5,22,-20
1530692375236767,-15,-28,-10,-10,-20,-3,-12,-31
1530692375245743,-4,-3,-1,1,0,-9,-1,5
1530692375245743,8,38,6,3,-7,5,4,7
1530692375260703,-16,-44,-9,-1,3,-9,-14,-9
1530692375260703,1,20,0,2,4,1,16,-19
1530692375262699,11,15,4,-1,7,9,-17,10
1530692375262699,-14,-29,-7,-2,-13,4,41,23
1530692375283642,7,36,2,-1,1,-3,3,3
1530692375283642,2,-13,1,-2,1,-1,6,-7
1530692375284640,4,5,-1,1,8,-3,4,24
1530692375284640,-7,-6,-5,-4,1,-2,-7,-33
1530692375297605,-8,-3,3,-1,-2,-3,3,-20
1530692375297605,17,6,-2,-1,-8,-7,10,29
1530692375306581,16,-1,1,1,11,8,-20,-5
1530692375306581,-5,-8,2,-1,-15,-10,-35,5
1530692375321541,-1,-10,-3,2,-4,9,20,3
1530692375321541,-29,6,3,-3,19,-2,-7,-32
1530692375322538,10,6,2,2,-23,-11,5,12
1530692375322538,-3,-4,-5,-2,18,9,17,2
1530692375343482,8,-3,-2,-1,4,-10,-18,-15
1530692375343482,4,29,15,4,-4,13,11,14
1530692375345477,-12,2,-3,-2,6,-10,-4,-15
1530692375345477,9,-22,-4,0,-31,1,-17,10
1530692375357445,-10,7,-2,0,8,9,9,-20
1530692375357445,5,-25,-7,0,7,-8,-4,6
1530692375366421,-10,1,-1,-1,4,7,17,-13
1530692375366421,6,4,0,-4,-7,-13,-18,-13
1530692375381381,0,-10,-3,0,7,-4,11,28
1530692375381381,-8,0,-1,-5,-15,-1,-8,-33
1530692375382378,12,5,4,1,1,9,39,38
1530692375382378,-8,-7,-5,1,12,-8,-15,1
1530692375403322,-15,10,4,-2,-4,1,1,-10
1530692375403322,22,-28,-3,0,-4,-4,-18,13
1530692375405317,-10,32,-1,-2,-2,-6,1,-18
1530692375405317,14,-25,-4,-2,3,4,7,18
1530692375417285,-17,5,0,-2,-10,-1,-2,-18
1530692375417285,2,16,-4,-3,-11,-8,13,-6
1530692375426261,3,5,13,9,14,3,-36,4
1530692375426261,-3,-2,-7,1,2,9,12,-18
1530692375441221,11,4,3,-2,-9,-6,-11,19
1530692375441221,3,-9,-5,-3,13,3,5,4
1530692375442218,-7,-16,-12,-7,-19,-5,11,-10
1530692375442218,2,16,8,1,-7,-6,16,1
1530692375463162,11,-6,2,8,11,6,11,39
1530692375463162,-3,-3,-3,-1,20,-10,-42,-61
1530692375465157,19,-3,-1,2,-6,-5,-8,7
1530692375465157,-8,-11,-6,-2,1,1,-5,-24
1530692375477125,16,-6,2,-6,-18,-2,6,50
1530692375477125,2,3,4,2,-4,6,14,25
1530692375486101,-8,57,10,0,-2,-9,-12,-48
1530692375486101,-3,-4,-3,1,4,8,-7,-6
1530692375508042,5,-6,-2,-3,-2,-4,4,-22
1530692375508042,1,-8,-4,1,5,15,10,44
1530692375510037,-8,-27,-16,-12,-11,-15,1,6
1530692375510037,-13,8,0,0,-1,4,30,-7
1530692375523002,-12,-2,-3,-4,1,-8,10,-35
1530692375523002,6,2,3,4,-4,1,-43,28
1530692375524997,-4,-16,-9,-4,17,-12,-9,-2
1530692375524997,3,0,-1,-6,-10,22,-7,2
1530692375536964,-3,-6,1,2,-1,-3,11,18
1530692375536964,-8,-6,2,5,4,4,20,-23
1530692375545941,-9,10,0,-4,-13,3,-12,-42
1530692375545941,8,1,9,7,7,-11,-19,39
1530692375559903,-4,-23,-5,-3,-11,-19,-25,-1
1530692375559903,3,44,0,-4,-9,3,7,25
1530692375566885,1,-6,5,4,1,-1,0,-29
1530692375566885,-15,-14,-6,-2,24,6,33,-15
1530692375583839,17,5,-4,-1,-13,8,-32,-16
1530692375583839,8,2,0,-1,2,-12,-4,21
1530692375584837,3,-21,-1,3,-1,12,4,21
1530692375584837,-15,3,0,-5,-11,-7,-11,-13
1530692375596805,-6,4,0,0,-4,-14,4,4
1530692375596805,-10,-20,-5,-5,-10,3,-17,-19
1530692375605780,-7,2,1,2,8,3,9,0
1530692375605780,12,-1,0,3,11,-1,-7,5
1530692375620741,-4,1,-2,-4,0,5,41,15
1530692375620741,8,10,4,3,-4,3,-26,-11
1530692375622735,1,6,-1,-6,3,3,38,16
1530692375622735,-4,6,3,3,-7,-6,-12,-3
1530692375643680,10,10,2,-4,10,5,-1,41
1530692375643680,-20,-16,-6,-7,-24,-5,-1,-74
1530692375644677,-3,-26,-5,3,15,-8,-15,6
1530692375644677,4,21,6,2,14,-2,11,-6
1530692375656644,10,-6,-6,0,-3,8,-5,21
1530692375656644,-18,-43,-1,3,2,0,8,-16
1530692375666618,1,40,6,-5,-11,2,-23,18
1530692375666618,8,-18,-9,-5,-16,-8,7,-24
1530692375680580,-8,12,7,3,16,1,-12,-9
1530692375680580,-8,-18,-5,-4,-23,-10,-8,-18
1530692375682576,10,-13,-10,-4,18,-4,8,14
1530692375682576,-27,6,4,1,-11,3,-11,-3
1530692375703519,6,-6,-3,-2,2,-1,-32,-25
1530692375703519,21,24,9,3,15,7,19,46
1530692375705514,1,-5,-1,-3,-14,-13,-16,3
1530692375705514,-2,5,0,-4,-4,-6,4,15
1530692375717482,-13,-3,-2,4,1,-1,-7,-59
1530692375717482,14,2,-2,-2,-1,17,15,27
1530692375726458,5,8,2,0,-4,-1,1,23
1530692375726458,10,-17,-1,-2,-2,9,4,1
1530692375740421,6,9,1,-1,-7,-12,7,-15
1530692375740421,-13,9,6,2,3,-11,-17,-6
1530692375747402,1,-23,-5,2,12,11,18,-3
1530692375747402,-4,-1,2,4,-8,-19,-41,-11
1530692375763359,2,11,-3,-4,-27,0,13,0
1530692375763359,-3,0,-6,-3,23,-8,6,9
1530692375765354,-12,-7,-2,-3,-11,25,20,-9
1530692375765354,15,0,1,5,11,-7,-5,-4
1530692375786298,3,5,1,0,1,3,0,12
1530692375786298,-23,-32,-7,-2,-2,-8,-13,-12
1530692375787295,-2,15,-5,1,2,2,25,0
1530692375787295,20,-6,-1,-6,-13,-15,0,15
1530692375800260,-8,-15,-1,1,5,8,4,6
1530692375800260,-30,9,-3,-6,1,3,-10,-14
1530692375807242,-13,-52,-11,-1,-37,-7,-13,-10
1530692375807242,11,32,7,5,42,6,17,15
1530692375823199,1,13,-1,-3,-3,-2,-11,26
1530692375823199,17,7,2,2,0,4,32,-11
1530692375825194,-2,-7,7,6,7,14,-34,-1
1530692375825194,-12,-14,-9,-7,-19,-15,-13,-11
1530692375846138,-9,12,3,2,14,10,1,-18
1530692375846138,13,-6,-2,-4,-5,-10,-6,28
1530692375848133,15,20,4,2,-3,0,20,-14
1530692375848133,-22,-19,-10,-2,-1,-1,2,-21
1530692375860101,-7,-9,4,2,9,-2,-7,-9
1530692375860101,20,33,-2,2,-7,2,-15,8
1530692375867082,0,1,4,1,12,-13,8,4
1530692375867082,-22,-20,-8,-3,0,14,-8,-22
1530692375884036,10,-17,-4,-2,-10,-3,5,-3
1530692375884036,2,15,6,1,6,-1,-12,-14
1530692375885034,-1,-13,1,0,17,-12,5,14
1530692375885034,3,19,1,0,-7,8,5,18
1530692375905978,-3,-4,-3,1,5,-4,0,-7
1530692375905978,8,-3,-2,-1,-9,-9,-4,16
1530692375907973,6,-1,0,2,3,0,16,6
1530692375907973,2,-5,-1,-8,-7,1,7,-23
1530692375919940,1,11,-1,0,0,-4,18,41
1530692375919940,-32,-44,-10,-4,-7,1,-55,-21
1530692375926922,0,29,2,-2,16,-5,3,-61
1530692375926922,-4,1,7,7,1,3,-30,14
1530692375943877,17,-11,-3,-2,-2,19,11,23
1530692375943877,3,-2,2,5,4,1,11,6
1530692375944874,-21,7,-9,-6,-10,-3,-14,-20
1530692375944874,13,0,0,0,-3,-4,5,5
1530692375965818,-5,-2,-3,-4,2,-10,2,0
1530692375965818,-1,5,3,3,-4,2,18,-5
1530692375967813,4,-3,1,0,14,3,-8,-2
1530692375967813,23,8,1,3,1,8,6,22
1530692375980777,-26,-1,0,-1,1,-8,-28,-26
1530692375980777,10,4,-1,-6,-38,-2,20,13
1530692375986762,17,1,7,5,16,-2,-14,16
1530692375986762,-4,7,-2,-4,-5,-2,21,16
1530692376003716,-6,-10,1,4,19,7,-22,-94
1530692376003716,-7,-6,-2,3,16,1,1,5
1530692376004714,18,22,-1,-4,-29,-6,-17,13
1530692376004714,-13,-22,0,-3,-5,-5,-4,1
1530692376025658,4,43,6,-1,-5,0,16,-9
1530692376025658,15,1,7,0,4,-1,7,58
1530692376027653,-14,-22,-11,-5,-10,3,-14,-17
1530692376027653,-10,-26,-12,-6,-1,-8,26,-6
1530692376040618,-37,-3,-3,-5,-13,-12,-15,-24
1530692376040618,1,10,-1,1,15,2,0,-16
1530692376047599,9,-7,-1,0,-2,2,12,36
1530692376047599,0,3,-2,-2,-5,-1,-8,-6
1530692376063557,9,-21,-2,4,-1,-1,16,46
1530692376063557,-1,22,6,2,6,7,-10,-25
1530692376065551,-7,-6,1,-4,-7,-10,-28,-12
1530692376065551,-6,7,-4,-5,-6,2,32,3
1530692376086495,4,-4,-1,5,5,5,2,21
1530692376086495,-8,1,-2,0,16,0,3,-20
1530692376087493,-2,-7,2,-4,-11,-2,-5,-12
1530692376087493,3,16,3,2,-13,-2,1,12
1530692376099461,4,1,-3,-1,-19,-5,-27,-2
1530692376099461,11,11,1,0,59,9,22,17
1530692376108436,-36,-26,0,5,4,3,10,-22
1530692376108436,8,11,-1,-5,-2,-7,-25,4
1530692376123396,10,0,-5,-3,-18,-7,20,11
1530692376123396,-7,-29,-10,-3,-15,-8,-8,0
1530692376125391,6,10,4,7,11,9,24,-2
1530692376125391,0,4,6,0,1,1,-30,2
1530692376146335,0,-11,-2,-3,2,2,-7,-7
1530692376146335,-1,4,-5,-9,-15,-5,10,0
1530692376147333,1,2,5,3,4,-5,1,11
1530692376147333,-5,-8,-1,4,7,8,3,-14
1530692376159300,4,7,6,3,11,9,-5,5
1530692376159300,2,-9,-4,-2,-14,-5,-2,-22
1530692376168276,10,8,-6,-2,11,-1,8,16
1530692376168276,11,2,-3,-5,-5,13,17,16
1530692376183236,-6,6,-1,-2,-32,-8,-6,-2
1530692376183236,-6,2,6,6,65,2,17,-18
1530692376185231,22,48,6,5,-26,-4,-46,57
1530692376185231,-5,-15,-6,-2,8,-17,-8,-19
1530692376206175,4,-4,0,-1,4,4,22,21
1530692376206175,-6,-19,-9,-4,-36,-2,-4,-3
1530692376207172,0,-14,-6,-5,2,1,-1,-5
1530692376207172,5,20,7,0,7,-5,1,16
1530692376220138,11,-8,-3,-3,-12,-3,-14,6
1530692376220138,-39,-8,1,4,-6,-1,-15,-38
1530692376229114,-2,-8,-5,0,17,-5,19,-5
1530692376229114,-12,0,-4,-4,-19,3,-25,-13
1530692376243076,1,-31,-4,-1,17,-3,-6,-16
1530692376243076,10,49,5,-2,-13,0,-7,18
1530692376245071,-7,-17,-6,-3,-8,1,12,-13
1530692376245071,-2,-6,-1,1,1,-6,0,-7
1530692376266015,3,5,-2,-2,4,-1,10,13
1530692376266015,12,3,6,5,3,9,-10,-5
1530692376268010,-19,-9,2,0,-1,6,-5,-15
1530692376268010,11,46,7,-4,-2,-11,13,-20
1530692376279977,12,-1,0,2,13,-5,-13,77
1530692376279977,-1,5,-4,-3,-19,-6,-4,-8
1530692376288954,1,-27,-4,-4,-2,-1,30,-22
1530692376288954,6,-1,-1,1,4,-4,-36,5
1530692376303913,-2,7,2,6,-29,6,-6,-30
1530692376303913,17,-8,-1,4,75,6,19,28
1530692376304912,-2,-4,2,0,-15,5,-17,2
1530692376304912,-6,-23,-10,-4,-2,3,12,-11
1530692376325855,1,9,4,-2,-3,-1,2,-4
1530692376325855,-7,-31,-12,-10,-37,-13,0,3
1530692376327850,0,36,9,1,10,1,-5,-7
1530692376327850,-3,-5,3,8,2,4,1,7
1530692376339817,-21,-5,-8,-10,-8,-6,-3,-26
1530692376339817,27,-12,-3,-2,13,17,8,24
1530692376348794,-27,-17,-5,-1,0,-16,-26,-50
1530692376348794,2,28,4,3,-11,-1,15,-2
1530692376363754,-4,-9,-4,-2,15,7,-2,13
1530692376363754,2,18,3,-3,-16,-8,7,31
1530692376364751,0,-12,-8,-6,-5,10,4,-33
1530692376364751,15,7,3,8,7,-2,-1,61
1530692376385695,-17,-40,-4,0,14,6,21,-55
1530692376385695,12,30,4,-1,-15,-3,-32,4
1530692376387690,-3,-14,-6,-5,-9,-7,9,15
1530692376387690,-11,-19,-2,1,10,3,21,-10
1530692376399658,2,11,0,-2,-9,-9,-50,6
1530692376399658,1,-19,-4,-1,-15,1,22,8
1530692376408634,5,25,5,-10,-5,-4,-12,5
1530692376408634,-9,-2,-4,-4,0,5,2,-17
1530692376423593,5,12,6,5,36,-12,-6,4
1530692376423593,-19,-21,-6,2,-20,-1,-11,-59
1530692376425588,22,-2,1,6,33,3,-6,45
1530692376425588,5,-14,6,1,-11,15,4,12
1530692376446532,-11,28,2,-3,-4,-14,-7,-36
1530692376446532,7,-2,2,3,-2,-11,-22,11
1530692376447530,2,0,-5,-7,-13,5,19,31
1530692376447530,-8,-9,2,-1,-11,-1,-5,0
1530692376459497,15,50,10,5,24,17,33,4
1530692376459497,-16,-19,-7,-2,-2,-6,-5,-5
1530692376468474,-2,5,-1,2,-11,2,7,-18
1530692376468474,9,-22,-2,-1,5,-5,-50,21
1530692376483434,0,-7,-3,1,-18,-1,18,3
1530692376483434,22,11,3,-4,4,7,2,19
1530692376485428,2,1,-5,-1,9,-5,12,-2
1530692376485428,-18,-5,3,-5,-4,1,-16,-47
1530692376506372,5,-26,-11,-6,-11,-2,31,13
1530692376506372,-17,0,0,-2,1,-7,-29,-9
1530692376507370,-2,-14,-3,2,-8,-6,11,-23
1530692376507370,5,-11,-7,-2,-19,-7,12,79
1530692376519337,5,22,5,-3,-2,4,-1,-27
1530692376519337,-8,-38,2,1,4,1,0,20
1530692376528314,16,6,-2,4,21,4,20,38
1530692376528314,-18,9,-2,-1,7,-13,-10,-35
1530692376543274,8,-23,-8,-2,-20,3,-13,17
1530692376543274,-7,10,0,-6,3,-1,7,-31
1530692376545268,1,-11,1,0,1,0,-7,12
1530692376545268,11,31,4,0,1,10,42,-5
1530692376566212,-7,-16,-2,2,-7,-33,-72,7
1530692376566212,-18,10,0,-1,16,18,25,-26
1530692376567210,-5,-6,-3,-4,-21,-23,10,33
1530692376567210,-5,-8,2,4,22,14,-21,-80
1530692376579177,-16,-6,-6,-5,-3,7,-2,-19
1530692376579177,19,19,-1,1,-8,-6,0,50
1530692376589151,-8,-5,6,1,2,5,1,-36
1530692376589151,0,1,-7,1,-30,-6,6,3
1530692376603113,14,21,7,-1,26,6,33,25
1530692376603113,2,-30,-8,-5,-9,-2,-17,14
1530692376605108,3,1,-4,-4,-35,2,-2,-8
1530692376605108,-10,-6,-5,2,38,-10,8,29
1530692376626052,-5,-19,-2,0,-15,5,-41,-58
1530692376626052,15,22,-2,-5,-15,-2,46,15
1530692376628047,-30,-10,0,2,15,0,-33,-20
1530692376628047,4,-14,-9,-8,-14,-7,9,6
1530692376640015,-4,5,-3,-1,-1,6,16,18
1530692376640015,-1,14,3,4,10,-8,-19,-11
1530692376648991,13,6,2,2,-10,1,1,-8
1530692376648991,-3,-14,-3,-1,4,0,-3,1
1530692376662953,4,-15,-3,2,15,6,26,13
1530692376662953,15,21,8,-3,-21,-15,-13,-26
1530692376669935,-3,-2,3,6,-3,5,-2,8
1530692376669935,0,22,-1,-2,60,32,-16,-6
1530692376685892,-9,-8,14,3,-2,-4,18,-4
1530692376685892,-2,25,0,2,-11,0,3,-2
1530692376687887,-1,-26,-8,-3,-4,-13,-32,-6
1530692376687887,17,1,-2,0,-21,-7,4,22
1530692376699855,-11,-7,-10,-9,-10,-7,-2,19
1530692376699855,-9,-15,-7,3,-9,7,10,-30
1530692376708831,-2,11,2,0,23,0,-13,2
1530692376708831,5,-11,-2,-1,-1,5,18,77
1530692376722793,1,23,-1,-1,-4,14,31,-51
1530692376722793,7,-4,3,-4,6,-18,-65,-34
1530692376729775,-2,7,3,-2,-7,7,16,-1
1530692376729775,1,-14,-4,-1,-3,12,1,2
1530692376745732,-21,-11,-1,1,2,-17,-19,3
1530692376745732,-5,12,2,1,-9,1,9,-15
1530692376747727,-8,38,7,-3,-2,2,14,63
1530692376747727,8,-8,-5,-8,-5,-18,-40,-71
1530692376768671,-7,-15,-6,1,-26,-7,3,13
1530692376768671,-5,-13,-5,0,73,14,15,8
1530692376769668,-10,-16,-12,-7,-7,-1,19,-9
1530692376769668,3,12,7,1,-13,0,18,-2
1530692376782634,12,10,4,-3,-14,-7,-8,0
1530692376782634,-12,-18,-2,4,-17,5,-22,-10
1530692376789615,6,0,-4,-6,33,20,18,31
1530692376789615,2,-11,-6,-6,-26,-6,42,51
1530692376806569,13,-9,-2,4,13,3,-36,-61
1530692376806569,5,83,20,1,11,-8,5,4
1530692376807567,-6,-30,-4,2,-6,-6,-2,-8
1530692376807567,-3,20,-1,2,-2,-10,-28,-6
1530692376828510,0,-10,-1,1,4,10,24,27
1530692376828510,-8,-30,-6,-7,-14,3,14,-18
1530692376830505,22,26,4,1,-9,-6,-35,29
1530692376830505,3,-10,4,2,12,0,12,-35
1530692376842473,-6,29,-1,-5,0,1,30,14
1530692376842473,2,-24,-2,2,-8,1,-1,-9
1530692376851449,4,18,4,0,-7,-13,5,-2
1530692376851449,-13,-15,1,3,0,-9,-51,-43
1530692376865412,11,-18,-4,-1,10,17,17,24
1530692376865412,-12,-6,3,0,-8,1,1,5
1530692376873391,-2,52,9,6,5,0,-6,-37
1530692376873391,2,-1,1,-3,-8,-7,-5,19
1530692376888351,-7,-27,-4,-1,2,-7,-12,-21
1530692376888351,11,33,3,2,-6,-6,11,67
1530692376890345,-10,-20,-17,-5,-25,4,7,-81
1530692376890345,5,-1,2,5,56,-3,-18,34
1530692376903310,8,0,0,-1,-24,3,2,3
1530692376903310,-20,-47,-14,-7,2,-3,1,-9
1530692376909295,0,-6,2,0,7,-1,-8,-1
1530692376909295,-3,11,-3,-2,-21,2,15,8
1530692376926249,18,3,1,1,12,7,-10,16
1530692376926249,-15,-5,2,1,-36,-16,-11,-24
1530692376927247,0,-7,-4,0,1,3,-21,25
1530692376927247,-1,-8,-4,-9,0,-3,28,-14
1530692376948191,-17,4,-4,-7,-17,-13,11,8
1530692376948191,11,-19,-7,-2,-2,7,-20,-22
1530692376950185,3,-18,6,3,4,4,11,29
1530692376950185,13,35,10,0,5,18,15,10
1530692376963151,-8,14,3,-1,-12,-9,-5,-2
1530692376963151,-8,-35,-17,-5,43,-4,5,-1
1530692376970132,9,-21,-1,-4,-29,-14,1,3
1530692376970132,-16,2,-6,2,1,5,-2,-15
1530692376986089,-3,-8,-1,-1,4,10,30,31
1530692376986089,0,17,5,1,5,0,-58,-17
1530692376988084,-17,-4,-6,-3,4,-2,2,-46
1530692376988084,0,5,2,-5,-33,-10,7,-5
1530692377008030,6,15,5,9,22,-1,-22,21
1530692377008030,-2,-14,-6,-2,-11,4,48,31
1530692377010026,6,-8,-2,-3,1,1,-15,3
1530692377010026,-12,18,4,-5,-28,-16,9,-11
1530692377021993,-3,-13,-3,9,24,-4,-6,-24
1530692377021993,4,6,4,-6,-21,-4,-21,9
1530692377030969,0,-10,-4,-2,16,7,23,1
1530692377030969,-10,-29,-7,-1,-9,-3,5,-11
1530692377045929,6,54,7,4,20,15,-15,11
1530692377045929,3,-8,-2,3,-5,7,25,-5
1530692377047924,5,6,1,-4,1,-4,-23,27
1530692377047924,-28,-28,-5,2,7,2,-10,-21
1530692377068868,-8,28,5,-2,-2,-10,-15,-16
1530692377068868,3,-9,-3,-4,-7,-1,-6,-11
1530692377069865,5,-17,-3,-2,-6,-3,16,1
1530692377069865,12,-12,-9,2,25,0,2,9
1530692377081833,9,38,24,5,-7,2,-12,0
1530692377081833,0,-5,-7,-1,-1,1,19,0
1530692377090809,-2,-4,1,1,-5,-5,-5,-10
1530692377090809,-7,10,-2,0,-6,-6,-23,-21
1530692377105769,-8,-32,-9,-10,-11,-6,7,9
1530692377105769,0,4,0,6,17,13,73,28
1530692377107764,10,-12,-4,-2,-3,-4,-48,12
1530692377107764,-12,12,6,0,-9,2,-14,-43
1530692377128708,22,-18,0,2,5,-5,2,6
1530692377128708,-7,21,10,3,-6,-8,-17,1
1530692377129706,0,-1,-3,2,4,1,10,22
1530692377129706,3,-15,-2,-1,3,3,8,11
1530692377141673,-1,-16,-12,-8,-29,-8,-26,-19
1530692377141673,-11,0,1,0,12,-1,3,-5
1530692377151647,-1,16,3,4,7,0,1,-6
1530692377151647,10,3,2,0,13,10,2,11
1530692377165609,-2,-19,-14,-7,-13,-4,11,1
1530692377165609,24,13,15,9,4,-1,-26,1
1530692377167604,-21,22,-1,-2,2,2,11,-17
1530692377167604,2,-10,-5,1,-3,-6,9,0
1530692377188548,4,-12,-8,-6,-7,0,-7,2
1530692377188548,-2,-12,-9,-9,-15,-2,0,-42
1530692377190543,11,-31,-2,1,5,-11,-1,72
1530692377190543,-8,51,3,0,6,0,26,8
1530692377202510,6,-5,3,3,2,-7,-67,22
1530692377202510,-13,-1,-7,0,-1,4,-3,-80
1530692377211487,-7,-29,-7,-8,-7,3,8,-22
1530692377211487,23,28,3,5,-10,3,9,39
1530692377226446,-9,-24,-6,-1,7,-1,20,5
1530692377226446,-8,24,7,1,1,-6,-12,9
1530692377227444,-20,-14,-4,-1,1,0,-8,-37
1530692377227444,8,-10,2,-2,-4,-3,-2,1
1530692377248388,5,11,-5,-4,-3,0,-7,-15
1530692377248388,-7,-14,-6,0,9,4,5,12
1530692377250384,6,30,7,2,-6,-4,30,-13
1530692377250384,5,-13,-2,-5,-8,-2,-29,7
1530692377262350,-12,2,-2,5,-37,-7,0,0
1530692377262350,-1,-20,-10,-6,23,3,-16,-7
1530692377271326,-9,-11,0,4,52,3,2,18
1530692377271326,7,34,-3,-4,-11,6,0,4
1530692377286286,-27,-37,-9,-6,2,0,16,-15
1530692377286286,3,13,-1,2,-26,3,-4,27
1530692377287284,6,13,4,-2,-16,-4,-21,-20
1530692377287284,0,-20,-9,-3,13,1,28,-5
1530692377308227,-11,4,7,3,11,2,-6,-10
1530692377308227,8,-1,-2,-1,1,-10,7,5
1530692377310223,-1,9,4,1,-9,-5,-15,-8
1530692377310223,-7,-16,0,6,8,-2,-8,-5
1530692377322190,6,5,-1,-5,5,10,22,17
1530692377322190,15,-6,-3,-5,-12,-9,-7,-18
1530692377331166,5,1,-1,-2,-5,7,7,14
1530692377331166,-10,-15,-1,-4,-15,-5,-13,0
1530692377346126,0,26,6,3,15,3,15,-23
1530692377346126,-1,-4,-6,-4,2,-3,-18,-25
1530692377348121,7,0,-1,-2,-12,-1,17,81
1530692377348121,-14,-13,0,-2,-3,-1,-5,-80
1530692377368068,-2,-8,-6,-1,12,-1,0,35
1530692377368068,-10,-19,-1,-2,-11,-5,11,-47
1530692377370063,2,34,3,1,-6,0,-10,-20
1530692377370063,13,-5,1,0,5,3,5,45
1530692377382030,-17,-3,-2,-1,1,-5,9,-22
1530692377382030,13,2,3,-1,-5,-4,-36,9
1530692377391006,-9,-4,-4,-2,0,-5,6,9
1530692377391006,-1,-3,3,-3,-16,-2,-36,1
1530692377405966,17,1,-4,-1,24,9,23,0
1530692377405966,15,2,2,1,-14,6,23,24
1530692377407961,-25,-4,-4,-3,13,1,-6,-35
1530692377407961,-7,-15,-1,1,-6,-9,-31,-13
1530692377428905,-4,-2,-5,1,-1,-4,-6,33
1530692377428905,7,-24,7,4,-13,4,0,-8
1530692377429903,-6,24,-5,-3,10,-2,-5,5
1530692377429903,0,44,11,4,-4,0,13,-26
1530692377441870,9,-11,1,2,31,-5,-18,10
1530692377441870,-5,-3,-5,-1,-2,10,18,30
1530692377450846,4,-17,-2,-4,-21,-2,10,-12
1530692377450846,-1,-21,-5,2,-9,-1,11,4
1530692377465806,-11,22,0,-5,-17,-13,-53,-31
1530692377465806,-10,4,-4,1,18,6,19,33
1530692377467801,11,-3,2,1,-4,1,9,-32
1530692377467801,0,0,-2,-3,1,-3,-8,13
1530692377488745,12,1,4,-2,-17,-11,-2,-10
1530692377488745,-26,-12,-6,-2,-7,-3,1,-3
1530692377489742,11,10,1,5,15,16,-37,-7
1530692377489742,-7,-28,-11,-4,9,10,35,-20
1530692377501710,22,-19,1,3,-22,-16,-14,23
1530692377501710,6,94,23,9,36,-1,-27,-22
1530692377510686,3,-18,-9,-2,10,-1,42,33
1530692377510686,-12,-25,-13,-6,-4,-2,-16,-13
1530692377525646,6,24,6,1,7,6,20,16
1530692377525646,8,3,-3,-8,-22,-5,-6,14
1530692377527641,8,21,8,4,-14,-2,-3,7
1530692377527641,-6,-7,-2,0,12,-2,4,8
1530692377548585,-7,-12,-3,0,1,-6,3,2
1530692377548585,-17,-16,-8,-6,-11,-3,-5,5
1530692377550579,0,-2,-2,1,6,12,6,-10
1530692377550579,-10,-4,-3,-6,-19,-17,-13,3
1530692377562547,15,17,11,4,14,12,21,4
1530692377562547,-8,-10,0,3,11,3,-10,-3
1530692377571524,2,-14,0,-6,-18,-11,-10,-22
1530692377571524,6,14,-6,-2,-23,-1,-9,4
1530692377586483,-1,-3,2,3,-6,8,1,-35
1530692377586483,-2,2,5,-1,25,-15,11,32
1530692377587481,-3,-31,-8,7,19,-2,-48,24
1530692377587481,-2,40,2,0,-13,1,45,-62
1530692377608425,-1,-2,6,-4,-6,15,12,29
1530692377608425,9,-26,-10,-2,2,-1,-6,-23
1530692377610420,-17,-12,2,-4,-18,-16,-5,-28
1530692377610420,6,18,3,6,17,3,-19,19
1530692377622387,0,21,-10,-7,-17,-4,30,23
1530692377622387,-10,-10,4,1,-4,-1,21,-19
1530692377631364,6,9,-1,-5,-14,6,-12,5
1530692377631364,10,2,15,5,18,14,10,9
1530692377645326,-12,-6,-8,-4,4,0,-10,-33
1530692377645326,6,-13,-9,0,2,1,4,69
1530692377652307,3,16,5,0,-9,-8,-4,5
1530692377652307,9,-3,2,-3,-13,-5,0,-5
1530692377668265,-22,-18,-3,0,25,-4,-34,-13
1530692377668265,-4,-2,-4,-7,-40,3,40,9
1530692377670260,-5,-19,-3,2,10,-1,-6,-42
1530692377670260,5,8,4,1,20,6,9,50
1530692377691203,15,-11,-3,-2,-7,-3,-1,14
1530692377691203,-2,-8,-7,-3,2,-2,-24,-46
1530692377693198,-4,10,-2,-7,-21,-13,9,-6
1530692377693198,-9,-26,-3,2,7,9,18,20
1530692377705166,-15,1,-3,-3,-3,-1,-17,-49
1530692377705166,8,-6,-2,0,-5,2,2,23
1530692377712147,14,13,2,-1,3,5,15,21
1530692377712147,-5,-30,-3,2,10,-11,-18,-13
1530692377728105,9,21,6,3,-2,0,-3,23
1530692377728105,-3,-26,-2,3,9,10,25,-22
1530692377730100,-3,46,0,-7,-4,-13,-47,-2
1530692377730100,4,-18,2,-1,0,-10,-32,-32
1530692377751043,-7,17,-4,1,-26,5,20,8
1530692377751043,3,-13,1,4,43,6,-9,13
1530692377753038,-11,-17,-6,0,-12,-6,18,-49
1530692377753038,-3,13,1,-5,-20,1,-17,84
1530692377765006,2,-22,-7,0,54,19,21,12
1530692377765006,28,16,-1,-5,-15,1,32,18
1530692377771987,-22,3,12,4,9,11,1,-12
1530692377771987,4,40,12,4,-19,-14,-20,-17
1530692377788942,-5,-14,-9,-6,-24,-8,5,-14
1530692377788942,8,-12,2,3,3,-6,-25,-12
1530692377789939,20,-13,-4,1,1,8,22,31
1530692377789939,-22,-9,-16,-8,-3,0,12,-44
1530692377810883,7,-14,4,-2,7,-2,-21,2
1530692377810883,3,22,13,3,0,-1,-22,-1
1530692377812878,-3,-16,-8,-5,-9,-7,5,-18
1530692377812878,-15,-22,-7,-1,14,-1,-13,23
1530692377825844,13,-15,-8,-5,-12,0,27,-11
1530692377825844,-11,4,-1,-3,-24,-6,-5,5
1530692377831827,1,7,6,7,15,25,27,10
1530692377831827,0,3,6,0,64,10,1,-16
1530692377848782,2,5,3,3,-13,-4,-5,-15
1530692377848782,-13,0,-4,-8,-20,-14,-39,7
1530692377849780,15,9,0,2,-10,-7,7,15
1530692377849780,-12,2,-4,-9,-25,-8,2,-55
1530692377870723,-2,3,2,4,2,1,11,26
1530692377870723,8,-30,0,3,4,-2,-8,-10
1530692377872718,-8,68,-1,-3,2,0,-8,27
1530692377872718,-7,-21,0,2,-4,0,9,-32
1530692377885683,-20,-5,-7,-3,-17,-11,-39,-30
1530692377885683,15,8,4,4,6,4,22,34
1530692377892665,-11,-31,-8,-2,10,-4,-17,-19
1530692377892665,2,0,1,2,-33,-3,11,18
1530692377908622,-17,-2,-2,-4,35,3,-1,-16
1530692377908622,-7,-4,-7,-2,-5,4,0,25
1530692377910617,2,-17,-7,-12,-2,-15,-22,-66
1530692377910617,8,12,5,4,-19,5,0,-12
1530692377931561,-7,-12,-1,-1,2,-5,-8,21
1530692377931561,2,21,-4,-1,-2,-4,7,-9
1530692377932558,-6,-13,-1,3,27,8,40,5
1530692377932558,-5,-5,-1,-4,-15,2,-4,35
1530692377945523,11,5,-3,2,22,3,7,-39
1530692377945523,-7,26,15,-5,-3,-3,-44,32
1530692377952505,9,-16,-12,-1,-18,0,3,13
1530692377952505,3,-6,3,2,9,0,0,7
1530692377968462,6,-29,-6,-2,-14,-9,-3,-47
1530692377968462,-6,1,-2,2,-5,-2,2,46
1530692377970457,1,10,4,1,4,5,27,-10
1530692377970457,32,-6,-9,2,-22,8,-4,77
1530692377991400,-19,9,-2,-5,44,-7,2,-31
1530692377991400,-3,-20,-6,0,-13,4,2,-22
1530692377992398,4,-1,2,2,-11,0,-17,12
1530692377992398,-7,3,-3,-2,32,-1,6,-25
1530692378004366,4,22,10,2,-27,4,19,63
1530692378004366,15,20,0,2,14,-3,-17,-35
1530692378013342,-30,-11,-2,-4,-11,-8,-8,-34
1530692378013342,8,-23,-4,4,5,-1,-7,6
1530692378028302,5,-1,-16,-4,-4,7,1,-19
1530692378028302,3,53,25,6,23,5,15,44
1530692378030297,6,10,1,-1,-15,-1,3,-13
1530692378030297,-12,-10,-6,-7,-13,-11,7,-3
1530692378051240,-23,-23,0,4,-6,0,-1,6
1530692378051240,4,1,-15,-8,-13,-5,16,-17
1530692378052238,5,5,7,8,-4,5,-33,14
1530692378052238,-7,6,-7,-9,44,-8,-7,-38
1530692378064206,8,6,14,7,2,14,2,10
1530692378064206,-14,-14,-7,-9,-3,-3,18,-14
1530692378074179,10,-14,1,3,3,-2,-16,4
1530692378074179,-7,18,-2,1,1,-3,46,-20
1530692378088142,15,20,10,-2,-21,-7,-27,16
1530692378088142,-16,-33,-7,-6,-5,-11,8,-47
1530692378090137,10,10,-1,2,-41,4,9,16
1530692378090137,16,12,14,4,60,27,-15,12
1530692378111081,-11,10,2,2,25,0,53,27
1530692378111081,4,-2,-5,-2,-15,2,20,24
1530692378113075,-32,-23,-9,-13,-16,-22,-4,-14
1530692378113075,10,-20,-6,10,-21,25,-6,1
1530692378125043,4,-6,2,-4,-12,-8,-47,-6
1530692378125043,-8,12,6,3,17,2,6,25
1530692378134019,-5,-20,-14,-7,4,-6,15,-35
1530692378134019,-2,-6,-2,-4,-26,-12,40,66
1530692378148980,-5,-21,2,2,-4,5,-52,-26
1530692378148980,1,21,-6,-6,-5,2,11,-18
1530692378149977,7,-17,4,2,8,4,9,28
1530692378149977,-16,17,0,-2,8,-1,-13,-26
1530692378170920,12,-10,0,-2,-18,-13,11,9
1530692378170920,9,12,-2,-2,-23,-18,-27,-42
1530692378172916,-5,-11,5,-1,21,18,-1,38
1530692378172916,-7,-17,-12,-11,-1,-9,15,-13
1530692378184883,-3,18,-1,0,-5,-7,-9,15
1530692378184883,-8,2,-4,3,-23,4,-24,-31
1530692378193859,1,-4,2,-3,42,-1,25,13
1530692378193859,-1,24,4,2,-2,-6,-39,-32
1530692378208819,13,0,-8,-8,-29,6,1,32
1530692378208819,11,-17,4,6,11,12,19,-5
1530692378209817,-35,-61,-16,-5,-4,-7,-39,3
1530692378209817,20,88,18,4,-11,-12,-5,66
1530692378230760,-5,-17,-10,-6,-3,-1,20,-40
1530692378230760,5,-2,-4,2,1,-5,-44,32
1530692378232755,20,22,1,-4,-26,4,13,-43
1530692378232755,-17,-44,-11,-1,-11,-2,-21,-23
1530692378244723,-16,2,4,2,24,1,-11,-16
1530692378244723,-1,-36,-11,-8,-34,-1,22,31
1530692378253700,32,97,30,17,34,11,8,4
1530692378253700,-7,-46,-15,-11,-13,-12,-27,-4
1530692378268659,-3,9,-7,-9,-28,-5,35,-14
1530692378268659,-18,-55,-8,0,11,2,-8,-23
1530692378269657,-12,31,-2,0,-9,-1,-10,11
1530692378269657,20,24,14,14,9,2,14,4
1530692378290600,-10,-8,-5,-4,-13,0,52,-1
1530692378290600,-3,5,-1,-1,23,-5,-75,6
1530692378292595,0,-7,2,6,7,-2,14,-27
1530692378292595,8,4,2,-12,-56,-3,-6,-10
1530692378304563,-2,-57,-11,-3,12,-14,-37,-14
1530692378304563,24,88,11,14,61,24,50,55
1530692378313539,-7,22,14,-1,-26,-8,-5,-28
1530692378313539,7,-84,-11,-5,-7,-12,-17,-3
1530692378328499,-3,88,9,5,3,17,-12,13
1530692378328499,-9,-38,-8,-8,12,-4,11,-67
1530692378330494,-2,1,-4,-1,5,0,1,33
1530692378330494,-1,-9,0,-3,-3,-9,9,24
1530692378351438,-3,9,-7,-3,-21,-3,5,9
1530692378351438,8,-20,-1,-3,9,11,31,-19
1530692378352435,-15,-6,-1,-1,-6,-9,-48,-24
1530692378352435,5,16,0,0,9,2,13,-2
1530692378364403,8,-11,9,3,-28,-3,-5,0
1530692378364403,-13,14,0,4,48,-7,-38,-21
1530692378373379,1,-39,-8,-2,0,6,10,-4
1530692378373379,-7,-14,-11,-3,5,6,14,18
1530692378388339,-5,-15,7,3,2,5,3,-7
1530692378388339,-2,3,1,-5,-44,-13,2,9
1530692378394323,15,-7,1,4,0,9,26,91
1530692378394323,-10,24,2,9,37,-1,-63,-83
1530692378411278,21,41,13,0,9,-4,17,42
1530692378411278,-29,-31,-10,-2,-32,17,41,13
1530692378412275,6,-9,-4,0,19,-3,-40,8
1530692378412275,-20,-3,1,-4,-5,-1,34,-18
1530692378424243,11,-9,-6,4,11,-1,-5,-17
1530692378424243,0,-24,2,0,-1,-21,-14,-22
1530692378433219,3,-5,-10,-14,-65,0,14,1
1530692378433219,10,1,-4,3,21,9,17,18
1530692378448179,-3,27,1,3,32,-5,-7,-8
1530692378448179,2,28,7,2,-7,7,20,-4
1530692378450174,-19,-40,-15,-8,-21,-16,-30,-15
1530692378450174,0,4,4,5,-1,0,2,-23
1530692378471117,7,-12,-9,-3,9,5,29,73
1530692378471117,-2,-19,-1,3,7,-18,-5,23
1530692378473113,6,22,-10,-7,-12,-11,0,-46
1530692378473113,13,48,28,-3,14,22,-21,9
1530692378485080,4,-10,4,12,-13,-9,-33,-28
1530692378485080,-2,24,-10,-12,-69,-3,53,60
1530692378494056,-21,-71,-13,-3,50,-6,-65,-72
1530692378494056,13,8,-1,8,55,6,27,26
1530692378509016,-14,-9,-7,-4,10,21,5,-12
1530692378509016,5,-14,0,-7,3,-21,-25,-34
1530692378510014,21,30,13,-5,-72,-11,60,110
1530692378510014,3,6,-1,5,-18,-3,-16,48
1530692378530958,-8,-44,-1,4,20,16,11,-50
1530692378530958,7,75,11,0,-25,-15,-27,-18
1530692378532952,-9,-14,-7,-4,28,6,1,2
1530692378532952,-24,-33,-15,-4,-8,-1,7,3
1530692378544920,16,-12,3,-3,-29,-12,0,16
1530692378544920,0,-11,-5,-1,20,4,-16,48
1530692378553896,-3,46,9,5,3,5,7,-59
1530692378553896,5,-6,5,4,2,-17,-13,37
1530692378567859,12,-2,-9,-9,-32,-17,-12,1
1530692378567859,-25,-23,-9,2,-11,10,-9,-48
1530692378574840,18,7,8,2,72,19,-7,16
1530692378574840,-5,1,-8,-4,-32,6,16,19
1530692378590797,-3,0,-2,-7,-27,-19,-8,-2
1530692378590797,6,-3,-1,1,8,4,-23,-45
1530692378592792,-9,-30,3,12,82,11,25,37
1530692378592792,3,-12,-13,-5,-32,3,13,-14
1530692378604760,-1,41,22,4,25,2,-42,1
1530692378604760,5,15,-1,-2,-29,7,35,24
1530692378613736,0,-14,-9,-3,-32,-13,-10,-16
1530692378613736,-24,-21,-4,-2,14,-1,17,-34
1530692378627699,-1,8,-2,-2,-18,-24,-10,-11
1530692378627699,-19,-10,5,4,13,13,7,-20
1530692378642659,6,-14,-5,-5,-7,3,-4,31
1530692378642659,9,21,7,6,-4,1,26,-29
1530692378650638,-5,-14,-14,-11,-27,-10,-18,-16
1530692378650638,-2,-4,9,6,27,-6,-20,-21
1530692378652633,-7,11,3,10,30,10,9,-6
1530692378652633,0,-12,-5,-5,-23,0,-3,-18
1530692378673576,6,10,6,4,-12,16,29,58
1530692378673576,20,-7,0,-1,34,2,-11,5
1530692378675571,-13,8,0,-4,-33,-13,-28,-41
1530692378675571,6,-1,-6,-3,4,-5,-37,0
1530692378687539,-26,-54,-9,1,48,14,-3,-48
1530692378687539,16,38,27,2,-31,-18,-18,54
1530692378694520,-7,-3,5,-1,-10,10,15,-2
1530692378694520,5,30,-6,-1,-3,-1,34,36
1530692378711475,7,-31,-8,-3,19,-3,-23,-38
1530692378711475,-13,-37,-13,-1,6,8,17,-17
1530692378712472,5,33,1,-4,-19,-8,-1,-2
1530692378712472,-6,-21,-5,-6,-5,-8,-5,-2
1530692378733416,3,13,4,-2,-40,-2,-5,29
1530692378733416,-1,3,-11,5,65,5,-17,-18
1530692378735411,6,-23,-5,-2,-25,8,78,8
1530692378735411,-8,51,18,1,0,-5,-93,-38
1530692378747379,-5,-26,-10,-1,-13,-9,5,17
1530692378747379,13,60,14,7,-3,6,17,14
1530692378754360,15,-18,-9,-6,-7,-6,15,11
1530692378754360,-22,-32,-7,-4,-18,-9,-27,2
1530692378771315,-6,-1,-5,-2,1,-4,8,-23
1530692378771315,10,-21,10,14,23,29,8,16
1530692378772313,0,22,-6,-4,0,-2,0,-5
1530692378772313,4,-7,-2,0,2,-5,1,-39
1530692378793257,11,-19,1,-3,-7,-8,-12,46
1530692378793257,12,36,11,-4,-29,-3,12,17
1530692378795252,-25,2,-2,9,-13,1,22,-8
1530692378795252,13,-18,-2,0,45,18,15,19
1530692378808216,-15,-41,-16,-1,19,3,0,-5
1530692378808216,6,66,13,-7,-18,-15,15,-45
1530692378814200,-5,-7,3,1,-17,-14,-50,36
1530692378814200,-5,-10,0,2,-57,-11,-15,-11
1530692378831155,-15,-16,-11,-4,32,10,10,-25
1530692378831155,3,-13,-8,-7,11,-2,-3,16
1530692378833150,10,4,6,1,-1,6,15,-32
1530692378833150,9,0,-2,2,9,-2,17,54
1530692378853096,5,25,-2,-1,10,9,25,-13
1530692378853096,-19,-48,-11,-13,-33,-18,-49,-28
1530692378855091,-4,-23,-1,3,16,3,21,0
1530692378855091,12,44,17,-1,-4,7,9,10
1530692378868056,1,22,6,5,13,-3,-3,-6
1530692378868056,-18,-35,-14,0,7,5,11,-9
1530692378875037,-14,-10,-6,-4,-22,-14,-41,-7
1530692378875037,18,-16,-7,-2,0,0,17,-8
1530692378890995,-19,29,10,3,20,2,-4,42
1530692378890995,-22,-28,-10,-5,-11,-9,-2,-32
1530692378892990,25,29,3,-4,1,4,22,42
1530692378892990,3,-28,-1,6,-17,-7,-60,-50
1530692378913934,0,36,9,3,33,-4,-12,-99
1530692378913934,13,-43,-7,-5,5,-1,-1,124
1530692378914931,-5,2,3,3,14,0,8,1
1530692378914931,-20,-19,-6,-7,-5,0,14,-86
1530692378926899,23,22,5,5,-6,11,26,79
1530692378926899,16,60,6,1,5,1,13,-4
1530692378935875,-22,-28,-1,0,-7,-11,-55,-36
1530692378935875,-4,16,1,-4,3,3,24,34
1530692378950835,-5,-42,-16,-3,13,1,-7,-1
1530692378950835,-29,-10,-4,-5,-37,-1,18,-30
1530692378952830,22,20,0,-2,19,5,-2,23
1530692378952830,-20,-23,-5,4,9,-2,-14,-7
1530692378973774,-2,8,4,-6,-19,-4,2,-8
1530692378973774,7,-15,-4,1,-17,-10,-15,0
1530692378974771,-1,6,-4,-2,5,3,5,-18
1530692378974771,-3,4,-2,-2,1,-5,-2,4
1530692378986739,15,29,8,0,-45,0,13,50
1530692378986739,-13,-9,-3,-6,23,2,-16,-44
1530692378996712,4,7,0,6,-1,2,-31,1
1530692378996712,4,-3,0,-7,-13,-6,30,-48
1530692379010675,-9,-7,-8,-6,-3,-4,-21,-1
1530692379010675,-15,-43,-3,2,-17,-3,-10,7
1530692379012670,9,60,4,0,-3,1,31,-12
1530692379012670,10,10,10,3,16,-2,-20,20
1530692379033614,3,-1,0,-8,-20,-2,-8,-11
1530692379033614,17,-4,-3,6,21,11,17,0
1530692379035608,-13,-21,-3,-6,-3,-8,-22,-7
1530692379035608,-5,11,-1,-1,-4,-3,10,32
1530692379047576,4,6,-2,-3,-8,1,14,1
1530692379047576,-3,-17,-9,4,-7,-5,-34,-12
1530692379056552,7,7,3,1,8,5,32,30
1530692379056552,18,-4,1,-1,-2,0,-5,20
1530692379071512,-25,-14,-6,-3,0,-3,17,48
1530692379071512,0,12,-14,-12,-16,-6,-11,-90
1530692379072510,23,-8,8,4,29,3,-24,4
1530692379072510,-16,3,-5,0,-6,10,68,-4
1530692379093453,-2,-16,-3,-3,7,-10,-60,-29
1530692379093453,-5,8,0,1,-17,-6,14,31
1530692379095448,-10,-11,-3,-3,9,-11,-20,-25
1530692379095448,9,-6,0,-3,16,1,-22,16
1530692379107416,-14,-10,-3,-20,-9,1,26,-32
1530692379107416,7,0,1,31,9,6,-5,46
1530692379116392,4,-12,-4,-8,-42,-5,4,-39
1530692379116392,-23,-5,2,4,34,-4,-34,7
1530692379131352,13,-1,-4,-1,-10,5,24,29
1530692379131352,17,9,3,0,-6,0,-9,-30
1530692379132350,-19,-12,-3,-3,46,3,3,-8
1530692379132350,-8,19,-5,-3,-24,-3,-3,28
1530692379153293,-5,-26,3,3,15,4,-8,-12
1530692379153293,11,12,0,-12,-14,-12,3,-11
1530692379155288,5,-12,-4,5,-14,10,28,26
1530692379155288,-4,4,-4,-7,-7,-14,-43,-25
1530692379167256,12,11,-2,11,7,-1,-1,-18
1530692379167256,-2,-12,4,-5,-4,-2,6,56
1530692379176233,-14,-16,-9,-6,-30,-4,3,0
1530692379176233,0,-10,-3,2,46,10,20,47
1530692379191192,22,26,4,2,-25,-5,-11,-42
1530692379191192,-7,-13,0,0,22,5,-2,10
1530692379193187,0,9,4,-8,-18,-2,-3,2
1530692379193187,10,-5,1,5,-21,4,19,16
1530692379213133,-8,26,12,10,6,-5,-8,3
1530692379213133,-16,-13,-8,-1,55,4,-5,-51
1530692379215128,10,4,6,0,-15,-6,-42,57
1530692379215128,15,-1,-4,-1,-42,-3,41,8
1530692379227096,-20,-25,-2,-1,31,7,-25,4
1530692379227096,-25,-15,-2,-1,-9,-3,-6,-42
1530692379236072,16,64,27,8,6,4,21,38
1530692379236072,5,-9,-3,-6,-15,-9,17,19
1530692379251032,1,-4,-6,0,-18,-2,-24,-33
1530692379251032,2,-9,6,1,17,9,-3,18
1530692379253027,-10,-16,-10,-2,-1,-14,-5,-23
1530692379253027,-3,7,-3,-8,-16,-5,10,2
1530692379273971,9,-12,1,8,24,11,27,20
1530692379273971,-18,16,1,-3,-14,3,-18,-53
1530692379274969,3,6,0,3,14,9,21,27
1530692379274969,4,-3,8,-1,11,-6,-1,-9
1530692379286936,-4,-8,-4,1,-2,-10,-29,-6
1530692379286936,0,-10,-4,-5,-11,-2,13,-29
1530692379295913,0,8,-2,4,3,-1,1,-4
1530692379295913,-7,-21,-4,4,-30,10,10,-25
1530692379310872,9,36,11,0,37,3,3,50
1530692379310872,11,-13,-9,-9,-28,-2,8,5
1530692379312867,-5,24,-1,-3,-5,-1,-14,-16
1530692379312867,-1,-1,-2,3,13,-1,-18,-16
1530692379333811,4,5,-4,-3,-36,-7,24,9
1530692379333811,10,-16,4,4,7,8,36,65
1530692379334809,-9,-24,-17,-9,8,-10,-71,-57
1530692379334809,-19,18,7,5,15,11,15,-31
1530692379346776,3,0,-7,-5,-18,-3,5,7
1530692379346776,3,8,6,-3,-12,-4,1,13
1530692379355752,11,-22,-12,-8,-21,1,41,30
1530692379355752,6,23,7,2,-3,4,-39,11
1530692379370712,-29,-34,-7,1,40,7,14,-9
1530692379370712,5,31,6,2,17,6,-1,-8
1530692379372707,0,-9,-5,-2,-16,-9,-4,-15
1530692379372707,15,-12,2,0,14,-1,-28,-9
1530692379393651,-15,-1,1,-3,-15,2,24,12
1530692379393651,13,14,-1,-3,-3,-5,7,20
1530692379395646,-13,-20,-2,-2,-5,0,6,-4
1530692379395646,0,36,1,-3,-14,-12,-12,5
1530692379407613,8,9,3,8,25,4,-7,-8
1530692379407613,7,-14,-4,4,20,-3,5,23
1530692379416590,-4,6,-1,-6,-18,8,-4,-28
1530692379416590,-4,0,0,-1,10,-2,-9,-12
1530692379431549,14,-6,0,-2,-19,5,1,-12
1530692379431549,-17,-13,-7,-4,-14,-14,-34,-6
1530692379432547,2,-9,-1,4,14,6,46,10
1530692379432547,-9,-3,4,4,-4,-13,-74,-53
1530692379453490,12,11,6,2,-1,-2,6,30
1530692379453490,-7,3,1,-1,8,-5,-20,-10
1530692379455485,0,-6,-5,-2,6,4,6,6
1530692379455485,-13,-8,-5,-9,-8,3,31,-12
1530692379467453,-5,11,3,0,-24,-11,-11,-1
1530692379467453,13,7,3,-2,-9,-3,-7,31
1530692379476430,-14,-1,5,3,-7,2,-17,-37
1530692379476430,14,3,-7,4,60,17,24,30
1530692379491389,-7,-14,-8,-12,-15,-11,37,5
1530692379491389,-5,-16,-8,-3,-1,5,-6,-6
1530692379492387,15,21,11,10,15,9,22,15
1530692379492387,3,-5,6,3,-7,-10,-12,24
1530692379513330,-3,13,-1,5,4,5,-47,-72
1530692379513330,0,-2,-5,-8,-14,-2,8,32
1530692379515325,3,-35,-12,-7,-7,-10,5,13
1530692379515325,-26,9,4,6,0,4,28,14
1530692379527293,20,12,8,5,12,-5,-54,-17
1530692379527293,-18,-15,-9,-12,-28,0,47,-26
1530692379536269,6,-1,-1,-1,16,-1,-9,50
1530692379536269,12,-21,-11,-8,-20,1,12,-19
1530692379550232,-2,17,-1,-3,-19,-8,-17,26
1530692379550232,1,-5,1,12,8,9,25,-17
1530692379557213,-9,-11,0,-3,29,-2,-43,-15
1530692379557213,12,14,1,-3,3,8,27,0
1530692379573170,-12,-22,-7,-2,11,0,14,9
1530692379573170,5,3,2,3,0,-10,-19,0
1530692379575165,-6,11,1,0,-26,-5,10,-59
1530692379575165,-3,-43,-4,-1,-33,-7,-28,61
1530692379596109,34,33,11,2,34,12,13,14
1530692379596109,-1,34,2,0,0,-2,-25,-29
1530692379598104,2,12,1,7,8,0,10,-22
1530692379598104,-20,-43,-14,-9,-6,-8,-20,-7
1530692379610072,6,13,-4,-5,-29,-8,10,6
1530692379610072,-1,-21,-5,-3,7,2,-15,19
1530692379617053,-4,8,-6,-4,20,5,7,21
1530692379617053,17,31,7,4,5,-4,-8,-46
1530692379634008,-3,-10,-4,-1,-40,8,19,40
1530692379634008,-12,-21,-6,-3,13,-13,-20,8
1530692379635005,-12,-2,0,-4,-19,-9,-15,-49
1530692379635005,-2,-1,-2,3,5,17,40,27
1530692379655949,-6,-13,-2,0,-1,-9,-18,-28
1530692379655949,8,19,9,1,-10,5,-6,-7
1530692379657944,4,-15,-7,-3,2,-5,12,23
1530692379657944,-14,1,-1,1,-26,-5,26,-22
1530692379669912,-12,-14,2,3,12,0,-25,-18
1530692379669912,13,35,-1,-4,-15,2,13,28
1530692379678888,-4,-35,1,-1,4,-3,-4,15
1530692379678888,15,74,19,5,-33,-3,12,-76
1530692379693848,-8,-23,-3,0,46,11,5,72
1530692379693848,-9,-20,-8,-2,11,2,-9,-31
1530692379694845,-9,-2,-5,-1,-12,3,6,27
1530692379694845,5,-5,-1,-6,-8,-6,-4,9
1530692379715789,4,9,9,5,-20,-13,0,-18
1530692379715789,-1,-4,4,-3,3,1,-19,-6
1530692379717784,11,11,-4,-6,-6,-1,44,8
1530692379717784,-17,-18,-7,-4,19,-11,-59,-10
1530692379730749,-13,12,2,5,-18,8,45,-37
1530692379730749,-2,-15,-2,0,26,0,-23,23
1530692379736733,0,13,6,11,-5,2,-6,-32
1530692379736733,9,-5,-12,-6,24,6,17,31
1530692379753688,3,-46,-7,-6,4,-10,-7,12
1530692379753688,11,47,5,1,-26,2,21,-24
1530692379754685,-12,18,12,-2,-39,-1,-30,-12
1530692379754685,4,28,1,7,51,-7,-19,57
1530692379775629,-17,-26,-13,-9,-20,6,24,-61
1530692379775629,6,-14,1,1,3,0,31,33
1530692379777625,-2,-5,-5,-1,2,-8,-30,5
1530692379777625,-7,-26,-6,-4,-13,15,32,-16
1530692379790589,8,4,-4,-2,0,-13,-44,-30
1530692379790589,-14,6,2,0,7,4,14,45
1530692379797570,23,5,5,0,5,-2,-5,-25
1530692379797570,-6,7,-3,-4,-16,-4,8,-4
1530692379813528,2,3,0,-5,-29,-8,-1,6
1530692379813528,1,1,2,6,35,13,9,1
1530692379815523,-2,-7,-4,-1,16,0,-2,22
1530692379815523,6,-31,-1,0,10,-1,0,5
1530692379836466,-15,34,-3,-4,-6,-3,5,16
1530692379836466,14,15,4,-3,-38,-6,-19,-28
1530692379837464,-16,-41,-8,-1,8,-2,7,-9
1530692379837464,6,5,0,-3,3,-4,-3,23
1530692379849432,-10,-4,0,4,-22,-8,-9,-60
1530692379849432,7,-3,0,4,48,8,0,-5
1530692379858408,14,20,3,-1,-5,7,2,25
1530692379858408,-18,-27,-6,0,15,-6,-19,-1
1530692379873368,3,11,5,0,-12,-3,-11,17
1530692379873368,-2,-17,-3,0,-8,-5,30,0
1530692379875363,-7,-5,-6,-2,25,3,-12,-61
1530692379875363,-16,7,-1,-5,-10,-9,-8,19
1530692379896306,14,-2,2,1,-3,14,39,80
1530692379896306,-18,-35,-9,-4,-8,-15,-30,-47
1530692379897304,17,34,11,4,0,5,11,15
1530692379897304,8,-14,-3,1,-7,6,-4,8
1530692379909272,2,20,1,-3,7,1,4,-71
1530692379909272,1,-11,1,-1,-4,6,15,33
1530692379924231,-14,3,-6,-1,-9,-10,-4,6
1530692379924231,4,-13,-5,-4,-32,-3,25,-15
1530692379933208,1,-35,0,1,29,0,-53,16
1530692379933208,12,58,5,3,5,16,4,-18
1530692379935203,-10,-15,-2,-3,-16,-12,-9,-8
1530692379935203,-22,-10,-4,-6,0,-5,14,-21
1530692379956146,-3,-7,-2,0,-22,0,-9,36
1530692379956146,6,-11,-4,-2,21,-2,13,-45
1530692379958141,10,1,0,-11,3,3,10,38
1530692379958141,-7,14,3,8,-17,6,-29,-36
1530692379970109,12,7,3,-10,57,-2,20,13
1530692379970109,-2,-8,-3,30,-40,-15,-21,-6
1530692379977090,-4,2,-1,-2,55,16,25,-1
1530692379977090,16,4,0,18,-12,0,-11,9
1530692379993048,-17,-4,-6,1,-23,-2,0,-69
1530692379993048,5,1,7,-14,4,-3,-4,36
1530692379995043,8,11,3,-4,-45,-7,0,3
1530692379995043,21,-9,0,-8,12,-3,15,25
1530692380015987,-55,-59,-15,-9,0,-2,-22,-46
1530692380015987,10,69,-2,-3,22,12,26,29
1530692380017981,-4,2,2,4,-13,-5,-21,-19
1530692380017981,4,-14,-5,-7,4,9,9,-13
1530692380029949,8,23,5,1,-15,-4,19,56
1530692380029949,-9,-34,-6,-2,-1,-8,-13,17
1530692380038925,-12,-5,-4,3,-6,6,-3,-19
1530692380038925,6,17,4,4,13,-3,5,8
1530692380053885,15,1,2,8,26,10,5,12
1530692380053885,-5,-7,-3,-5,-13,7,20,10
1530692380054882,8,8,3,5,12,-2,-19,3
1530692380054882,8,-2,-3,-7,-21,-3,7,42
1530692380075826,8,27,9,10,22,-2,-10,-13
1530692380075826,-4,9,8,1,-15,-2,-31,-10
1530692380077821,-19,-39,-20,-5,6,9,28,-51
1530692380077821,1,-10,4,1,13,2,-23,-8
1530692380089788,22,45,-6,-3,-13,-5,3,40
1530692380089788,-8,-21,6,-4,-20,-3,11,43
1530692380098765,8,-23,-2,-1,32,2,3,5
1530692380098765,-14,11,-4,-12,-33,-7,-25,-41
1530692380113725,10,-13,6,35,51,20,5,21
1530692380113725,-8,-12,-3,-8,-12,-8,-6,-22
1530692380114722,11,26,4,0,-6,-5,1,36
1530692380114722,-10,-6,3,-11,-25,-8,-4,-13
1530692380135666,1,1,-3,-9,-6,-1,-7,-34
1530692380135666,-9,-5,-7,1,31,5,30,22
1530692380137661,-8,-8,4,-4,-15,-5,-44,-44
1530692380137661,7,16,2,1,19,-3,10,16
1530692380149629,0,-12,-6,-12,-45,-9,2,1
1530692380149629,-25,-15,-7,5,8,2,1,-42
1530692380158606,2,10,-2,-2,8,3,26,26
1530692380158606,0,-5,1,3,1,1,-33,-7
1530692380173565,-4,0,-3,-5,-2,2,5,10
1530692380173565,9,-10,-6,-10,-35,-14,4,-41
1530692380175560,-4,8,8,6,4,-3,-23,13
1530692380175560,3,-12,-6,-2,14,-3,8,-2
1530692380196503,-6,29,1,-5,-2,5,14,36
1530692380196503,15,-8,1,0,-3,0,-17,-31
1530692380197502,-8,-7,-10,-3,-28,-8,-2,-8
1530692380197502,-20,-5,-1,4,7,-2,21,-40
1530692380209469,-5,-30,-4,-5,-8,-5,-30,-7
1530692380209469,-4,4,-1,0,3,3,-6,-9
1530692380218445,3,9,-2,-1,2,-7,-10,-21
1530692380218445,-3,-10,-2,-8,-22,7,15,75
1530692380233405,-8,18,6,2,37,3,12,-6
1530692380233405,4,3,6,7,11,6,-15,-11
1530692380235400,8,-10,-7,1,17,4,22,12
1530692380235400,-6,6,0,4,6,-10,-42,-36
1530692380256343,5,-9,-2,-4,-24,-1,15,21
1530692380256343,3,0,4,-2,-11,-7,14,44
1530692380257341,-16,29,7,5,10,1,-11,1
1530692380257341,22,19,3,4,-25,-7,-2,-38
1530692380269309,-13,-10,-1,0,31,2,9,-18
1530692380269309,6,-29,-12,-6,1,-8,-17,2
1530692380278285,2,6,13,6,-14,0,22,13
1530692380278285,-5,3,2,-3,11,2,5,0
1530692380293245,-9,-10,-5,3,-21,-11,-27,-62
1530692380293245,15,12,7,5,25,5,-2,31
1530692380295240,6,-10,-6,-12,-26,-5,-3,26
1530692380295240,4,6,-3,3,20,9,6,-5
1530692380316184,1,-31,-3,-5,-16,-1,19,-3
1530692380316184,-11,15,0,1,29,9,-16,43
1530692380318178,19,12,5,2,6,-1,-15,-7
1530692380318178,-13,-12,1,-1,8,-6,19,-7
1530692380330146,12,2,-3,3,1,3,32,30
1530692380330146,-4,5,-9,-8,-28,-7,-18,-19
1530692380339122,6,-11,-1,-1,0,-3,-8,17
1530692380339122,-14,-5,-3,0,2,0,-9,9
1530692380353084,12,23,13,-3,-8,-2,-10,7
1530692380353084,-11,-8,-10,-3,-45,-3,24,-43
1530692380355079,6,5,0,-1,15,1,-2,15
1530692380355079,4,1,2,5,17,9,3,25
1530692380376024,-4,18,2,3,2,0,-10,-61
1530692380376024,23,-11,0,-4,8,0,-8,42
1530692380378018,-17,-8,-2,-3,-31,-3,21,-51
1530692380378018,-14,-3,-3,4,4,-15,-28,-8
1530692380389986,7,-4,-6,-6,8,10,28,6
1530692380389986,0,-5,-2,-3,-27,-11,-38,0
1530692380398962,-4,13,-1,4,-3,1,14,0
1530692380398962,5,5,4,1,31,7,22,27
1530692380413922,-19,-12,-6,0,2,-4,-27,6
1530692380413922,-1,12,-1,2,0,-5,-19,-106
1530692380414920,-26,-45,0,-3,-20,1,-12,62
1530692380414920,14,11,0,0,4,3,14,-7
1530692380435863,4,1,-3,-3,-3,-2,0,7
1530692380435863,3,-17,-5,-3,3,2,10,39
1530692380437858,-10,13,-7,-4,1,-4,-7,-35
1530692380437858,6,5,4,1,-3,0,5,26
1530692380449826,-12,-18,-8,-6,-37,-9,-34,-55
1530692380449826,0,9,1,0,9,-2,28,22
1530692380458802,17,-8,0,6,50,7,-11,-14
1530692380458802,-13,-6,-7,-7,-22,-7,-1,-4
1530692380472765,-1,4,0,-8,-4,-7,-1,27
1530692380472765,-9,3,7,10,-10,2,21,-2
1530692380480743,13,6,-2,-6,-5,-1,-55,4
1530692380480743,-11,-10,-6,-5,18,7,24,59
1530692380495703,14,0,-1,-4,-17,-6,-7,-41
1530692380495703,-8,8,-1,2,22,-1,14,10
1530692380497698,3,1,5,2,-12,-5,28,46
1530692380497698,20,-20,-3,-2,-26,6,-18,-10
1530692380509666,-6,14,4,4,40,3,4,-27
1530692380509666,9,13,-2,-5,-5,-5,-1,89
1530692380518642,-3,6,9,4,2,0,7,-36
1530692380518642,-9,-17,-13,-4,-14,-6,0,-14
1530692380532604,17,10,7,2,-4,5,9,25
1530692380532604,-6,-14,2,2,2,0,-5,-30
1530692380539586,-20,-19,-12,-4,-7,-4,-13,5
1530692380539586,4,16,1,3,-4,-5,-20,-28
1530692380556540,2,-21,-4,1,14,-3,-4,31
1530692380556540,-11,6,-4,-8,-44,0,-6,-48
1530692380557539,15,6,5,5,88,9,22,29
1530692380557539,-9,-7,-3,-2,-9,-3,24,-1
1530692380578482,10,25,14,12,-8,-1,-54,-25
1530692380578482,6,-6,-5,-5,-16,6,-37,-25
1530692380580477,-24,-11,-5,3,-5,-2,9,-10
1530692380580477,11,20,7,-1,2,-5,-9,14
1530692380593442,0,-1,2,1,-19,-8,14,19
1530692380593442,-16,-1,1,4,28,7,19,-68
1530692380595437,6,-8,2,-5,-23,8,0,-22
1530692380595437,9,14,-5,-8,0,-6,-20,59
1530692380616381,1,-9,-5,-3,0,-1,35,-8
1530692380616381,-8,-14,-5,-6,-1,-11,-6,1
1530692380617378,4,9,-3,4,-7,6,7,2
1530692380617378,5,-8,5,3,13,4,0,-15
1530692380638322,-6,0,-5,-6,-6,2,11,34
1530692380638322,8,29,4,0,7,3,9,-12
1530692380640317,7,-7,0,1,-2,-4,1,30
1530692380640317,17,22,14,1,-10,0,-3,-31
1530692380653282,-29,-21,-3,2,4,4,-11,13
1530692380653282,-1,-4,-5,-3,-18,-3,10,24
1530692380659266,1,-1,-5,-2,-9,3,11,-1
1530692380659266,0,-23,-3,3,14,4,1,-41
1530692380676221,21,10,3,1,1,8,8,62
1530692380676221,-27,19,5,-3,30,-9,-23,-14
1530692380677218,-3,2,-2,-4,-28,-10,0,-19
1530692380677218,-3,-3,-7,0,-5,-1,2,-7
1530692380698162,-6,-14,-9,-10,-15,-4,19,18
1530692380698162,14,-4,3,0,0,-4,-37,13
1530692380700157,8,-1,-2,-2,-1,4,12,-3
1530692380700157,-21,-5,-7,-3,5,-5,0,-20
1530692380713122,-3,-3,-4,-4,-5,0,11,2
1530692380713122,8,-11,2,3,1,-8,12,31
1530692380720103,-17,2,-5,-6,-9,6,10,-46
1530692380720103,3,1,-1,-2,-2,5,-17,8
1530692380736060,6,5,7,5,2,16,16,-12
1530692380736060,-16,1,0,1,-6,-22,7,-20
1530692380738055,11,-12,0,4,-5,3,-2,19
1530692380738055,11,23,16,5,1,19,-7,4
1530692380758999,-16,-7,-10,-5,4,-41,-11,-13
1530692380758999,-9,-2,-2,6,34,12,4,-12
1530692380759997,-13,-30,-12,-11,-14,-10,5,24
1530692380759997,6,4,3,-1,-72,-9,-15,-37
1530692380771964,-18,-18,-9,-5,38,11,23,-16
1530692380771964,-5,-9,-4,-2,28,5,3,36
1530692380780941,-4,43,22,5,-18,-9,-20,-33
1530692380780941,18,-23,-18,-8,14,1,41,78
1530692380795901,-23,11,-2,-6,-28,-3,2,-37
1530692380795901,0,-15,-15,-3,-17,1,15,8
1530692380797895,9,-9,-4,0,9,-4,-18,-24
1530692380797895,-18,-2,1,5,27,7,6,-9
1530692380818839,1,-11,-7,-5,-4,-7,-17,-5
1530692380818839,-5,-5,2,-2,-10,-3,6,32
1530692380819837,7,7,-1,3,28,39,16,18
1530692380819837,-7,-10,0,-5,-3,-7,2,-8
1530692380831804,5,20,5,5,-25,-4,-38,45
1530692380831804,17,4,4,2,20,-4,-1,-52
1530692380840780,0,-5,-6,3,22,-5,26,15
1530692380840780,-18,7,6,6,-1,-6,-25,-12
1530692380855740,8,3,0,1,14,0,-20,8
1530692380855740,31,-5,1,-2,-39,2,17,43
1530692380857735,-24,-18,-11,-5,-33,-12,8,-30
1530692380857735,-15,-7,-1,0,38,-4,-16,53
1530692380878679,12,-10,-5,-5,-16,4,-4,-44
1530692380878679,16,53,10,4,17,13,32,11
1530692380880674,-10,-16,-14,-10,-9,-18,7,-7
1530692380880674,2,13,3,2,1,5,6,35
1530692380892642,1,-14,3,1,-4,0,-7,-57
1530692380892642,0,-4,1,0,-14,13,7,-5
1530692380901618,-1,8,7,4,13,-11,-18,11
1530692380901618,-16,-8,-11,-5,-16,-4,-23,-51
1530692380916578,12,8,2,3,15,-4,23,25
1530692380916578,2,-2,3,0,-2,9,-16,-6
1530692380917575,3,4,3,-4,-16,-3,-6,6
1530692380917575,12,-5,-6,-2,3,-2,5,-16
1530692380938519,-25,-12,-2,-1,12,1,3,3
1530692380938519,-16,-19,-7,-2,-2,1,-17,-11
1530692380940514,19,20,7,1,-10,-26,-22,13
1530692380940514,-3,-2,-1,-1,-1,22,19,-19
1530692380952482,10,4,1,3,1,24,-6,-18
1530692380952482,-2,-15,-4,-4,-5,-7,-12,44
1530692380961458,7,-17,-2,-2,3,-1,9,20
1530692380961458,1,22,2,0,0,-9,-12,-29
1530692380976418,-13,5,-1,0,3,-3,-10,-15
1530692380976418,-15,-16,0,2,-10,-6,-11,-27
1530692380977415,26,-19,-8,-5,10,7,8,39
1530692380977415,9,60,16,3,-13,-9,13,2
1530692380998359,-33,-48,-8,-4,20,-13,-17,-7
1530692380998359,13,36,-5,-4,-7,-1,-10,-5
1530692381000354,-7,-10,3,6,-11,3,-1,-23
1530692381000354,10,-27,-9,-4,9,0,14,20
1530692381012322,31,-14,-7,-5,-41,0,30,34
1530692381012322,-2,49,16,5,27,-7,-15,3
1530692381021298,-27,-22,-9,-3,-18,-1,-23,-36
1530692381021298,-15,-24,-2,2,14,2,3,-11
1530692381036258,8,20,3,-6,6,4,4,8
1530692381036258,-12,-39,-4,3,-32,-13,14,11
1530692381037255,15,32,4,3,31,10,-2,10
1530692381037255,-11,-30,-10,-4,-4,-6,-6,-29
1530692381058199,4,18,4,5,7,5,-1,16
1530692381058199,13,-4,-2,-1,-15,2,-2,-1
1530692381060194,-23,0,1,-5,4,4,8,-16
1530692381060194,8,2,-5,-6,-17,-13,1,6
1530692381072162,2,6,11,4,12,-2,-7,-3
1530692381072162,-1,-3,-2,-1,25,18,4,16
1530692381081138,11,-13,-8,-1,-23,-1,-10,-45
1530692381081138,5,3,-5,2,48,-1,-4,14
1530692381096098,21,39,19,7,-11,2,39,56
1530692381096098,-13,-40,-13,-9,-10,-10,-27,-53
1530692381098092,7,-4,-5,-3,-16,-3,-14,45
1530692381098092,-24,-40,-12,-5,-13,-2,-24,-54
1530692381119036,2,33,0,3,11,-1,-4,-7
1530692381119036,0,-2,-7,-4,-9,8,9,-2
1530692381120034,9,4,0,-3,24,-6,8,21
1530692381120034,-3,13,8,4,-18,1,4,-18
1530692381132002,-15,-19,-12,-3,4,1,-26,-22
1530692381132002,6,-3,4,-3,-24,1,-12,1
1530692381140978,-9,12,1,1,21,15,21,9
1530692381140978,17,-3,1,0,-5,0,17,54
1530692381155937,6,-3,-2,0,-5,-6,2,-52
1530692381155937,1,-9,1,3,-2,-10,-23,3
1530692381157932,-16,8,8,0,-7,-5,6,-15
1530692381157932,4,-4,-10,-10,-10,-3,-6,22
1530692381178876,6,-22,-1,3,-19,4,9,27
1530692381178876,10,43,8,1,34,-2,-4,-19
1530692381179874,-6,21,18,6,-7,0,-2,-5
1530692381179874,8,-7,-2,7,3,5,-2,0
1530692381191842,-26,-28,-15,-8,-11,-13,-13,-29
1530692381191842,-4,-24,-2,-2,-4,10,6,19
1530692381200818,15,-8,-9,-6,-4,0,6,19
1530692381200818,0,33,17,5,3,-5,-7,-14
1530692381215778,0,-15,-4,-2,9,5,3,15
1530692381215778,-4,-1,1,0,-10,-13,10,-12
1530692381217772,-9,-13,-14,-8,-12,-5,-16,-10
1530692381217772,-1,-4,0,-1,3,-6,15,1
1530692381238716,-8,5,-4,-4,3,7,0,-3
1530692381238716,1,-11,-1,0,9,6,-5,-10
1530692381239714,11,-7,5,6,6,0,-4,0
1530692381239714,-10,22,-10,-11,-42,-15,-36,-32
1530692381252679,23,35,16,9,22,6,11,20
1530692381252679,-10,-11,2,-1,20,5,10,6
1530692381261655,-18,27,1,2,-30,-5,-11,-33
1530692381261655,-4,-18,-13,-3,18,0,9,12
1530692381275618,2,-7,-1,-6,-12,-1,-7,0
1530692381275618,-3,-25,-10,-7,-41,-6,-26,-4
1530692381277613,3,17,7,7,43,8,44,11
1530692381277613,8,15,16,3,-3,7,-48,8
1530692381298556,2,-5,-7,1,3,12,47,23
1530692381298556,-5,-4,-5,-3,8,-9,7,-38
1530692381300551,-23,-20,-7,-5,-13,0,-11,0
1530692381300551,-1,-8,3,-5,-16,-6,12,2
1530692381312519,3,19,3,-3,-8,-3,-6,6
1530692381312519,1,6,4,0,16,-11,4,19
1530692381321495,10,9,3,14,-1,11,-12,8
1530692381321495,-4,-17,-3,3,17,11,26,-20
1530692381336455,-3,2,2,-2,-7,-15,-6,-6
1530692381336455,2,10,3,-8,-18,4,-25,-9
1530692381337452,5,-13,-8,-6,33,7,18,9
1530692381337452,5,1,-2,-4,-8,2,-2,29
1530692381358396,-24,-32,-11,-4,0,-11,-21,-55
1530692381358396,23,38,13,6,10,-12,19,12
1530692381360391,-10,-9,-4,-5,-33,-1,-26,23
1530692381360391,-1,-4,0,0,33,2,8,-27
1530692381372359,-5,-10,-7,-2,1,14,6,-3
1530692381372359,-11,-8,-6,0,6,-5,13,16
1530692381381335,10,16,5,-2,-20,-15,-17,-15
1530692381381335,-8,-14,-5,-4,-29,0,18,-7
1530692381395297,10,12,8,5,17,-6,-26,0
1530692381395297,-4,-23,-9,4,15,12,10,-21
1530692381402279,9,7,-4,-6,-18,-13,-9,15
1530692381402279,-1,-18,7,-2,-7,-3,21,14
1530692381418236,14,11,1,0,-4,-9,-46,16
1530692381418236,-21,2,-1,1,-24,12,-4,-20
1530692381420231,0,-10,-4,-4,32,1,3,-7
1530692381420231,11,2,-5,1,-5,0,-2,22
1530692381432199,1,4,7,6,6,-3,-10,-42
1530692381432199,-1,-12,-1,-11,-18,-14,4,4
1530692381441175,-13,-7,-8,1,-32,9,5,-25
1530692381441175,-11,-2,-4,-3,43,0,-3,1
1530692381456135,-1,-10,-7,-4,-7,2,23,21
1530692381456135,-2,4,-8,-1,-6,-7,-2,-18
1530692381462119,-2,-5,8,-5,-9,-4,10,-20
1530692381462119,-6,14,5,3,-10,3,-15,-6
1530692381478076,4,-12,-9,-5,-19,-4,11,53
1530692381478076,-10,6,3,3,34,7,16,-34
1530692381480071,-4,7,6,-1,-13,-4,-30,18
1530692381480071,-8,-7,-5,5,23,-1,13,-54
1530692381501015,4,-21,-3,-5,-10,-2,-11,3
1530692381501015,11,13,4,3,1,8,-14,28
1530692381503009,13,19,11,2,9,-2,11,21
1530692381503009,8,18,0,-3,-32,-5,-25,-2
1530692381514977,-29,-9,-3,4,0,-9,5,-29
1530692381514977,3,-26,-14,-4,25,11,-11,-1
1530692381521959,2,-16,-4,0,8,3,24,-13
1530692381521959,8,8,9,-2,-3,-5,-39,33
1530692381538913,10,6,-5,-5,-37,1,9,-6
1530692381538913,-7,14,13,6,6,-10,7,34
1530692381539911,7,-8,-4,7,19,-6,-12,-6
1530692381539911,-20,-8,-1,3,-6,4,17,-12
1530692381560854,-1,14,-5,-6,0,-1,-22,32
1530692381560854,-4,-4,-3,-2,-3,-1,-8,-33
1530692381562850,14,-17,-11,-7,2,0,15,14
1530692381562850,2,7,6,-1,2,0,4,12
1530692381575815,-10,-7,1,0,8,4,-2,-18
1530692381575815,5,4,-9,-4,-9,1,21,14
1530692381581799,-4,6,11,4,0,-4,-13,7
1530692381581799,7,-25,-19,-8,-18,-7,0,9
1530692381598753,-5,13,14,9,42,8,23,3
1530692381598753,9,-16,-2,-2,-11,-10,-29,-1
1530692381599751,-73,-38,-18,-14,-52,-17,-31,-71
1530692381599751,22,10,4,4,58,8,35,36
1530692381620695,0,-37,3,-1,-4,-1,-36,-18
1530692381620695,8,73,16,6,2,7,45,21
1530692381622689,1,3,-8,1,-1,-6,-31,-8
1530692381622689,-2,-10,-2,-6,-24,-2,-3,8
1530692381635655,-1,-3,-1,-1,15,5,17,-5
1530692381635655,-5,-15,-8,-1,5,2,-3,9
1530692381642636,16,23,6,-1,-2,3,6,-5
1530692381642636,-17,-6,-8,-6,-17,-6,-10,-20
1530692381658594,6,13,1,-3,8,0,11,-5
1530692381658594,6,-7,-3,-3,-6,7,5,29
1530692381660588,7,-1,1,7,13,2,21,23
1530692381660588,18,-3,-3,-2,3,0,-10,-9
1530692381681532,-2,-9,5,8,1,1,-10,-11
1530692381681532,9,24,6,-1,3,3,10,41
1530692381682530,1,28,8,0,11,1,-2,-64
1530692381682530,3,-11,-5,4,-1,-3,1,33
1530692381695494,-5,7,-2,-7,-15,-11,2,49
1530692381695494,-23,-34,-8,-6,-20,-6,-10,-21
1530692381702476,26,8,0,-4,10,3,12,17
1530692381702476,-16,-4,5,3,-5,-1,18,-37
1530692381718433,7,1,-9,-3,-6,2,-31,7
1530692381718433,-6,-14,0,4,-8,-8,0,-15
1530692381720428,1,-4,-1,-1,39,0,-15,0
1530692381720428,-30,3,5,0,-30,-5,-2,-28
1530692381741372,18,9,2,4,33,6,39,6
1530692381741372,-3,-11,-9,1,12,-4,-42,-26
1530692381742370,-3,-2,5,1,8,12,3,9
1530692381742370,-7,17,0,-6,-4,4,-24,27
1530692381754337,-9,8,0,-4,-23,-17,20,-34
1530692381754337,6,-8,4,-1,-24,-6,12,-12
1530692381763313,4,-15,-11,-10,-19,-8,7,19
1530692381763313,-5,6,2,6,42,-6,-6,-15
1530692381778274,-10,-6,-3,7,-35,7,-14,23
1530692381778274,15,-16,-6,-3,44,9,28,45
1530692381780270,12,26,-1,-2,-18,5,-22,25
1530692381780270,3,0,3,0,-11,-13,22,-9
1530692381801212,10,-47,-7,-6,-20,-13,-37,-24
1530692381801212,-4,55,4,-2,-10,3,-4,29
1530692381802209,-9,12,12,5,31,7,12,-13
1530692381802209,9,-3,-3,0,-19,5,26,21
1530692381815175,1,-15,-6,0,28,2,-34,-14
1530692381815175,0,-22,-7,-2,-14,-4,6,-6
1530692381824151,-1,-12,1,-2,2,3,0,13
1530692381824151,-2,11,8,4,3,-3,-10,-10
1530692381846092,5,18,-1,-3,-7,0,19,29
1530692381846092,-14,-3,1,-2,-15,-4,-3,-57
1530692381848087,-5,3,-6,1,6,-11,-30,0
1530692381848087,7,-12,-3,-2,-11,0,-2,0
1530692381861052,-12,22,0,1,29,5,12,-20
1530692381861052,13,-25,-2,1,-3,-2,-8,59
1530692381863047,10,33,15,2,-16,0,25,-25
1530692381863047,-2,-18,-1,0,-3,-8,-30,34
1530692381875014,-10,13,-7,-9,-35,-7,10,-56
1530692381875014,-3,-12,-4,1,44,20,4,0
1530692381883991,-3,-33,-17,-4,-54,-13,19,14
1530692381883991,-1,14,16,4,40,4,-5,-4
1530692381898950,12,-13,1,-1,3,-8,-27,24
1530692381898950,-6,37,10,2,-24,-3,-12,-66
1530692381899948,4,-34,-13,-9,-4,-3,15,39
1530692381899948,8,27,-4,0,-8,-2,-1,-22
1530692381920892,-5,-11,0,-3,3,8,2,28
1530692381920892,1,-13,-2,-3,-5,-4,-8,1
1530692381922886,-6,2,-1,0,-1,-7,0,2
1530692381922886,-13,2,-3,2,2,6,11,-9
1530692381934855,10,3,2,2,4,4,11,14
1530692381934855,7,14,-1,-5,3,8,-23,-3
1530692381943831,-6,31,14,8,10,-1,6,-12
1530692381943831,-1,-38,-18,-9,-18,-10,6,13
1530692381958791,-6,7,6,6,12,6,4,1
1530692381958791,6,-53,-6,1,27,-5,-5,0
1530692381959788,1,79,5,-2,-7,-1,-2,-16
1530692381959788,8,-25,5,5,4,2,-20,-3
1530692381980731,3,9,-7,-8,-21,-4,13,-2
1530692381980731,-26,-53,-25,-6,-14,-4,-3,-18
1530692381982727,11,20,15,1,-1,10,12,14
1530692381982727,-14,-13,-17,-6,11,-19,-12,15
1530692381994694,3,24,12,6,-10,12,16,-10
1530692381994694,-3,-18,-10,-2,-8,-10,0,18
1530692382003671,-11,-27,-1,2,8,8,-14,-9
1530692382003671,3,2,-7,-7,-19,3,26,16
1530692382018630,-2,8,2,7,15,-1,-12,-17
1530692382018630,1,4,3,-6,-22,0,12,11
1530692382020625,-8,-18,-3,5,9,-5,-16,7
1530692382020625,21,20,1,-4,-2,9,2,-2
1530692382041569,-2,-12,0,1,9,-12,-9,12
1530692382041569,-16,15,1,-2,-15,-6,13,-8
1530692382042567,10,-38,-10,-3,16,4,11,19
1530692382042567,9,29,10,1,-4,7,-7,-14
1530692382054534,-6,19,-9,-6,-5,-8,-11,11
1530692382054534,-1,-17,5,8,9,-5,-1,5
1530692382063511,-9,40,8,2,-5,-7,-33,-52
1530692382063511,-32,-31,-2,1,9,2,13,-24
1530692382078470,19,2,4,-3,-8,-2,-6,3
1530692382078470,-2,12,-2,-1,6,4,13,9
1530692382080465,-3,-30,-15,-2,-9,-9,-10,-21
1530692382080465,0,-18,-1,2,18,3,14,10
1530692382101409,-8,37,19,6,2,9,-14,-71
1530692382101409,15,38,6,-4,-7,-10,-23,16
1530692382102407,10,-29,-4,-2,-48,-1,6,19
1530692382102407,-24,2,-4,-3,46,-2,-17,-35
1530692382114374,-2,-21,-6,-4,-21,-5,0,11
1530692382114374,14,23,7,9,23,4,-2,-4
1530692382123350,-2,-14,-6,3,21,15,7,5
1530692382123350,-1,1,-4,-7,-39,-3,1,15
1530692382138310,-11,-7,-5,-2,9,-7,6,-3
1530692382138310,-8,-16,-2,1,-3,1,2,-16
1530692382140305,21,8,7,-5,-4,-6,9,43
1530692382140305,-13,14,-2,-1,-4,2,-17,-42
1530692382161249,-19,-32,-13,-6,10,7,37,-54
1530692382161249,-7,-49,-9,0,-12,-15,-46,0
1530692382162247,9,80,7,0,14,5,22,-14
1530692382162247,9,-16,-6,-4,-5,0,1,3
1530692382175211,13,-11,-3,-1,-6,5,12,25
1530692382175211,-10,-8,-4,-3,-7,-5,-10,-20
1530692382184188,2,4,-3,0,16,6,24,7
1530692382184188,15,13,9,1,-10,-3,-10,-8
1530692382198150,-30,4,-2,-1,-3,-4,-11,12
1530692382198150,0,2,-2,-3,8,7,13,3
1530692382200146,-10,-28,-4,-5,-1,-10,-14,-24
1530692382200146,20,17,6,0,-9,4,-6,1
1530692382221089,-6,-9,4,5,8,-6,-2,48
1530692382221089,-12,5,-3,-8,-11,5,8,-38
1530692382223084,3,-37,-5,-27,-1,-2,-1,41
1530692382223084,8,36,11,56,7,4,-3,26
1530692382235052,10,-6,-3,-5,18,2,4,-7
1530692382235052,-12,22,-1,1,-24,-5,37,32
1530692382244028,-19,-57,-18,-9,-7,-14,-55,-80
1530692382244028,19,46,9,-18,16,7,34,24
1530692382258988,10,56,12,4,1,-2,-8,2
1530692382258988,21,11,4,7,-3,1,-2,11
1530692382259986,-6,-38,-6,-5,-5,-6,2,9
1530692382259986,-7,-17,-8,-2,-12,1,7,12
1530692382280929,-4,1,-5,-46,14,-1,-18,-24
1530692382280929,0,-1,2,-51,-30,-8,-6,-7
1530692382282924,-6,17,18,58,63,23,17,9
1530692382282924,1,-13,1,40,1,3,21,3
1530692382294891,4,-5,-8,-9,-9,-7,-3,26
1530692382294891,6,-2,-4,-18,-21,-4,-4,-13
1530692382303868,3,-15,-7,-42,-18,-1,-7,26
1530692382303868,-13,-2,-4,-13,7,-2,-28,-49
1530692382318827,5,-1,1,12,-8,6,51,69
1530692382318827,12,-17,-5,-2,16,-1,-18,25
1530692382319825,3,3,-9,9,-18,1,2,5
1530692382319825,-7,-2,6,-14,-3,1,2,-16
1530692382340769,0,2,-2,0,-3,0,-5,25
1530692382340769,-7,-4,9,16,15,0,-5,-47
1530692382342764,-7,-6,-9,5,-2,-1,-7,13
1530692382342764,-20,-39,-10,-14,-17,-6,4,4
1530692382354732,13,-5,-3,-7,-1,-1,-18,-2
1530692382354732,-6,51,16,21,20,5,4,18
1530692382363708,8,7,7,1,-17,-3,12,-3
1530692382363708,-5,-2,-5,-20,25,-2,-13,-23
1530692382377670,-13,-27,3,14,-17,-3,-4,-14
1530692382377670,7,-1,-3,6,16,9,12,16
1530692382384651,12,2,-1,-24,18,-1,-4,5
1530692382384651,-7,-6,-6,-54,-44,-4,-5,16
1530692382400609,11,-9,-1,11,51,13,32,13
1530692382400609,-2,8,14,59,10,-3,-20,-62
1530692382402604,-11,9,-3,-17,-4,3,-6,-6
1530692382402604,-6,6,8,-7,-14,-13,-19,-1
1530692382423547,-1,-22,-13,-44,-24,-9,-27,-31
1530692382423547,-6,-4,-9,-18,0,-3,24,39
1530692382425543,4,-38,-9,8,-22,5,20,-40
1530692382425543,8,20,1,-4,19,0,-10,0
1530692382437510,-6,20,12,16,2,-2,-15,-13
1530692382437510,-6,-10,-4,-8,-7,2,8,-4
1530692382444492,-12,-13,-4,5,3,-11,-38,12
1530692382444492,-3,-67,-16,-3,-11,6,3,-13
1530692382461446,21,95,7,7,12,1,7,53
1530692382461446,-3,7,4,-3,-29,-3,-9,4
1530692382462444,5,-14,-6,-18,42,-3,-13,-10
1530692382462444,4,8,-1,18,-18,1,39,2
1530692382483388,-5,-31,-6,7,-3,0,-28,23
1530692382483388,14,-17,-3,-12,12,8,0,-14
1530692382485382,-6,55,12,4,-1,5,19,15
1530692382485382,6,-6,0,-7,11,-6,-20,-31
1530692382498348,-15,-32,-6,13,-34,-7,8,21
1530692382498348,7,50,6,1,17,1,4,2
1530692382504331,12,-5,-2,-9,-9,-7,-15,-12
1530692382504331,3,-5,6,-3,29,11,17,10
1530692382521286,-40,-76,-16,-2,-24,-12,-33,-19
1530692382521286,2,79,9,-4,-8,-5,-5,13
1530692382522284,-3,18,4,5,-10,-5,11,-10
1530692382522284,-6,5,-8,-26,-13,-6,1,34
1530692382543227,-1,-15,-4,18,0,-6,-25,-70
1530692382543227,-4,-16,8,-3,12,2,19,21
1530692382545222,13,20,-2,4,0,0,-13,-30
1530692382545222,4,15,7,2,-25,-6,1,20
1530692382558187,1,-16,-2,-7,8,1,6,-23
1530692382558187,11,-30,-15,-10,26,3,4,7
1530692382565169,-31,3,7,8,-18,1,9,8
1530692382565169,10,-7,-1,4,0,-6,-18,-22
1530692382581126,16,5,-5,-1,-12,5,10,11
1530692382581126,9,-27,-5,-9,0,-9,1,-21
1530692382583121,-11,18,15,4,0,0,-17,-38
1530692382583121,-12,27,3,12,11,-2,-7,28
1530692382604065,-1,22,8,0,-1,3,19,-44
1530692382604065,-27,-31,-9,-3,-27,-17,-17,11
1530692382605062,13,-27,0,1,-3,6,4,39
1530692382605062,8,32,12,9,8,0,-2,-10
1530692382618027,-10,-1,-7,-15,-8,-7,12,-10
1530692382618027,-5,-21,-6,-3,1,0,16,31
1530692382625009,-20,-25,-12,0,5,0,-14,-71
1530692382625009,6,-21,-20,-8,-11,-4,-16,7
1530692382640966,-6,37,19,-5,17,0,8,-20
1530692382640966,20,18,-4,1,-26,5,21,53
1530692382642961,-2,-31,2,7,6,3,20,20
1530692382642961,0,12,1,1,37,1,-9,-3
1530692382663905,9,5,-10,-11,-8,-5,-8,-14
1530692382663905,-31,-50,-4,-9,-12,1,-13,-39
1530692382664902,16,59,12,45,14,2,1,2
1530692382664902,-12,-12,4,9,3,1,-31,-31
1530692382676870,15,-1,0,-7,-1,0,-4,5
1530692382676870,10,-1,1,-11,-4,-1,-10,-11
1530692382685846,-13,-10,-4,-2,-20,-5,-9,41
1530692382685846,2,-22,-6,-6,-8,-2,17,-1
1530692382700806,7,26,7,21,16,5,3,86
1530692382700806,5,-11,-12,-22,-11,-7,-25,-97
1530692382702801,8,-17,2,-17,-13,3,26,-2
1530692382702801,-8,-2,0,13,11,9,24,33
1530692382723745,-16,-19,-4,-11,-2,-3,-11,9
1530692382723745,5,47,11,16,20,12,22,4
1530692382724742,-6,-47,-17,-11,-7,-13,-14,1
1530692382724742,-8,29,6,1,-5,0,-3,-10
1530692382737707,-6,-27,-10,-5,-8,1,4,-10
1530692382737707,2,-22,-7,5,4,-3,-10,3
1530692382746683,18,33,9,-2,2,4,18,4
1530692382746683,-38,-31,-5,-3,21,2,-19,0
1530692382768625,11,-7,0,7,25,3,2,-3
1530692382768625,-18,5,-7,-1,1,-4,-17,-12
1530692382770619,32,13,6,-9,-7,0,19,60
1530692382770619,7,-10,-6,-9,-30,-7,-13,-17
1530692382783585,-4,1,1,11,6,2,16,-12
1530692382783585,1,12,6,8,9,6,9,42
1530692382785580,-10,-10,-8,-9,10,-5,-32,-21
1530692382785580,2,-20,-7,-9,-15,-5,8,-11
1530692382797547,-2,19,22,-2,-2,5,-1,18
1530692382797547,22,-3,-2,-4,-31,-3,13,30
1530692382806524,-8,-9,-2,5,49,-1,7,-32
1530692382806524,-1,8,-5,0,-39,1,52,-13
1530692382821483,10,-11,-10,-9,41,1,-42,-2
1530692382821483,-23,-5,0,3,-6,-7,-3,-10
1530692382822481,-15,-23,-5,-7,-18,-5,-6,2
1530692382822481,23,34,16,8,3,3,-1,27
1530692382843425,-13,21,-4,-5,-10,-1,12,-27
1530692382843425,-1,-16,-2,-3,4,-3,-7,1
1530692382845419,-14,9,-5,1,-21,-5,-12,-26
1530692382845419,14,-11,2,11,7,-2,3,12
1530692382857387,9,-5,-4,0,-1,3,-2,12
1530692382857387,-8,11,9,-5,14,0,-16,-34
1530692382866363,0,16,-5,-14,-20,-6,18,43
1530692382866363,9,-4,1,3,-2,-4,-19,68
1530692382880326,-22,-21,2,0,-5,0,10,-42
1530692382880326,21,18,0,3,16,0,-11,5
1530692382888305,14,-5,-3,-10,-11,7,-1,20
1530692382888305,-22,-1,1,-6,-4,-3,22,-19
1530692382903265,-7,-18,-7,-3,-9,-13,-7,-14
1530692382903265,8,10,-2,2,-11,1,-3,25
1530692382905259,13,1,4,16,6,8,-24,-19
1530692382905259,-10,-8,-8,-6,45,7,17,6
1530692382917227,18,10,3,9,-14,2,0,-70
1530692382917227,-6,-25,0,1,-25,-5,14,71
1530692382926204,-4,-1,-5,-3,8,-1,-5,-64
1530692382926204,2,-24,0,0,-3,-1,-4,1
1530692382941163,8,63,4,-9,-8,-6,1,13
1530692382941163,-12,-13,-2,-3,3,3,3,8
1530692382943158,6,-7,-4,-2,-21,-6,18,15
1530692382943158,16,4,2,1,0,0,-36,-15
1530692382963105,-7,-27,-10,-10,-6,-7,22,52
1530692382963105,-11,-4,-2,1,-10,-7,-12,-51
1530692382965099,-12,-11,1,-3,4,5,-5,2
1530692382965099,-5,12,2,8,27,9,4,-20
1530692382977067,10,8,2,1,-4,-6,-14,10
1530692382977067,-17,-8,-5,-5,-11,-2,12,-41
1530692382986043,9,-12,-8,-11,-3,-1,-3,30
1530692382986043,10,11,-1,-1,15,2,21,35
1530692383001003,-17,-6,4,1,-33,8,-24,-47
1530692383001003,4,6,3,8,41,2,17,-40
1530692383002998,7,14,2,6,12,0,-3,4
1530692383002998,2,-6,-7,-5,-28,-5,-12,18
1530692383023942,-6,-5,-6,-11,-18,-7,-5,-5
1530692383023942,10,-44,-9,-3,32,3,13,23
1530692383024940,-29,66,9,10,-4,6,-7,-35
1530692383024940,2,-24,-2,-2,-10,-8,0,15
1530692383036907,-5,-13,-2,-2,-1,-3,8,-3
1530692383036907,2,24,4,5,-25,-5,-28,3
1530692383045883,12,-56,-11,-10,13,-2,16,14
1530692383045883,-19,51,9,0,-1,1,-11,-32
1530692383060843,-17,-9,1,-1,9,3,20,0
1530692383060843,16,-3,-6,8,-9,-2,-24,2
1530692383062838,-10,-3,4,2,9,-5,2,-38
1530692383062838,-3,-3,-6,-2,-20,-4,3,-8
1530692383083782,15,-6,4,6,10,4,-10,16
1530692383083782,11,20,3,-7,-2,-1,19,13
1530692383084779,-24,-16,-9,1,2,-3,1,17
1530692383084779,27,29,21,4,-12,8,5,-10
1530692383096747,-15,-25,-13,-1,10,-7,-21,-9
1530692383096747,14,29,1,0,12,3,23,22
1530692383106721,-8,13,5,-9,-46,-13,-44,-22
1530692383106721,3,-21,-14,1,50,3,16,24
1530692383120683,9,-3,3,5,-5,4,3,-12
1530692383120683,0,5,3,-3,21,-1,7,83
1530692383122678,-2,-4,2,6,-8,-3,0,-79
1530692383122678,4,-9,-4,-4,7,-2,-3,24
1530692383142624,1,24,-1,-6,-17,-2,-7,-21
1530692383142624,-13,-16,0,-8,-6,-4,-14,-34
1530692383143622,-11,-12,-1,13,-2,-10,-7,43
1530692383143622,-9,3,-7,-2,-6,2,-6,-38
1530692383165563,19,-22,3,3,14,4,22,36
1530692383165563,7,18,5,2,-14,-1,-2,-20
1530692383166561,-23,-28,-7,-12,1,4,20,22
1530692383166561,-2,-5,-13,-6,-22,-13,-21,-35
1530692383180523,-5,-16,-2,-3,-3,-4,11,27
1530692383180523,-2,5,0,6,24,2,-22,-6
1530692383181521,3,3,1,-5,-4,4,21,1
1530692383181521,-1,-17,-4,0,12,-4,-11,-16
1530692383202465,1,13,3,-2,11,6,18,20
1530692383202465,4,4,2,0,-1,5,9,-16
1530692383203462,-1,-1,-7,-6,-17,-15,-15,21
1530692383203462,-13,-3,3,2,1,-1,12,-48
1530692383225403,12,-4,-2,-11,-16,2,-11,32
1530692383225403,-13,-3,-1,9,-9,-4,4,-68
1530692383226401,21,13,2,0,18,12,42,52
1530692383226401,-7,38,10,4,-12,-2,-47,-21
1530692383240363,-5,-8,-1,6,12,5,10,-15
1530692383240363,-14,-20,-15,-11,-14,-7,-19,-3
1530692383241360,2,3,4,1,-5,-6,-2,2
1530692383241360,-4,-22,-17,-6,-1,7,19,14
1530692383263302,11,43,19,9,15,-9,-27,-14
1530692383263302,-12,-21,-2,-6,-18,-2,0,7
1530692383263302,-2,5,-3,2,10,4,-16,-7
1530692383263302,-3,3,-8,-9,-21,-8,15,-4
1530692383285244,-6,2,-7,0,-21,-1,-8,23
1530692383285244,8,-9,0,0,15,9,28,-35
1530692383286241,31,17,6,0,17,12,-20,44
1530692383286241,-25,-26,0,-1,-17,-8,-22,-24
1530692383300203,5,13,-6,-4,3,-7,-7,-19
1530692383300203,3,-1,4,2,-10,-4,9,21
1530692383301201,6,-16,-2,-7,5,20,-4,-14
1530692383301201,11,50,12,7,-22,-20,-10,21
1530692383323141,2,0,4,4,17,9,-10,-13
1530692383323141,-21,-17,-7,3,14,7,20,-2
1530692383324139,8,-26,3,-1,-2,-6,12,-17
1530692383324139,11,14,5,-1,-2,-3,-15,34
1530692383345083,-28,-6,-9,-8,-12,-9,0,-20
1530692383345083,6,-4,-6,-6,-5,-7,-14,3
1530692383346081,-5,11,-2,1,2,1,10,50
1530692383346081,-3,-33,-9,-5,-3,3,4,-82
1530692383360043,13,-7,3,2,0,-4,-2,15
1530692383360043,17,12,2,-1,10,8,-2,13
1530692383368022,-25,7,-1,2,2,-10,-18,-51
1530692383368022,11,-9,-1,1,16,8,13,81
1530692383382982,6,-1,-7,-4,2,1,8,-6
1530692383382982,10,-10,14,4,-16,4,-9,10
1530692383383979,-15,12,-9,-8,-10,-13,-7,0
1530692383383979,-8,-1,4,2,5,4,15,-2
1530692383404923,-2,-24,-14,-3,15,3,4,2
1530692383404923,2,8,0,-3,-15,-6,-13,1
1530692383405920,-7,8,4,3,-1,-7,-23,-24
1530692383405920,-3,-15,-4,-1,10,7,28,15
1530692383419883,-8,-13,-9,-6,-14,-12,-30,-1
1530692383419883,4,12,1,3,-58,-1,12,27
1530692383427861,-4,14,1,3,40,12,6,-85
1530692383427861,29,14,12,0,12,4,-16,37
1530692383442821,-1,7,-4,-6,-8,-1,30,14
1530692383442821,7,-6,-6,-7,-6,-10,-5,-25
1530692383443819,-13,-29,-5,6,-17,7,8,-2
1530692383443819,-6,14,-2,-1,-10,-14,2,18
1530692383465760,9,-12,1,-1,10,7,9,-9
1530692383465760,-17,17,2,7,5,-2,-21,-26
1530692383465760,1,4,-6,-9,-4,-9,3,54
1530692383465760,-11,-26,-10,0,6,2,-17,-34
1530692383479723,3,52,12,0,-3,5,28,33
1530692383479723,-15,11,-6,-11,-28,-15,-42,-27
1530692383487702,6,-17,-5,7,36,11,26,39
1530692383487702,1,-8,-4,1,62,12,9,-37
1530692383502662,-8,-20,-1,-3,-50,-15,-34,-31
1530692383502662,2,2,-1,-6,32,7,27,51
1530692383503659,4,-2,8,2,-23,-5,11,-51
1530692383503659,4,32,-8,-4,-31,-13,-39,-16
1530692383525601,-1,-44,-3,1,-3,5,7,6
1530692383525601,18,22,3,1,30,-1,-1,-24
1530692383526598,-6,-6,5,-2,-10,-5,2,26
1530692383526598,-16,-10,-14,-6,-5,-2,11,-10
1530692383539563,10,14,6,3,-5,1,-4,49
1530692383539563,-14,-11,0,4,19,13,10,-66
1530692383547541,6,16,4,3,-1,-4,-30,9
1530692383547541,2,-30,1,2,-4,10,29,5
1530692383562501,-11,17,-3,1,0,-6,-15,12
1530692383562501,0,-25,-1,-2,-7,-3,11,-2
1530692383563499,-5,-9,-4,-3,-29,-6,-1,1
1530692383563499,4,4,2,5,-10,-6,-28,-11
1530692383585440,-2,5,4,3,61,16,13,-5
1530692383585440,9,33,6,2,14,12,-14,23
1530692383586438,11,-7,-1,2,5,-5,8,-36
1530692383586438,13,26,10,-8,-52,-6,1,83
1530692383599403,-46,-39,-15,-3,-17,-10,-27,-60
1530692383599403,2,0,-4,-2,12,-9,15,21
1530692383608379,0,21,7,4,-2,7,-34,-1
1530692383608379,0,7,2,1,1,0,35,16
1530692383623339,7,-8,0,3,6,0,-12,-72
1530692383623339,-1,-23,-5,-2,-17,-5,5,58
1530692383623339,2,-5,0,-5,3,-2,-2,-6
1530692383623339,2,-14,0,-3,0,3,16,6
1530692383645280,-14,10,1,1,17,-5,-36,11
1530692383645280,-6,-9,-4,-3,-46,1,2,-47
1530692383646278,5,27,7,2,52,-2,2,48
1530692383646278,-8,-20,-1,2,8,0,-9,-26
1530692383659247,2,28,0,-5,-7,0,11,-2
1530692383659247,7,-41,-7,0,-8,1,-6,27
1530692383668219,4,40,6,3,-5,3,24,29
1530692383668219,-32,-22,-11,-7,0,-5,-30,-50
1530692383691157,10,-6,1,-5,-13,1,13,17
1530692383691157,-5,-3,-3,6,23,5,1,10
1530692383692155,-8,-16,-9,-11,-9,-10,-15,-55
1530692383692155,19,7,7,1,-6,-4,1,39
1530692383705120,6,41,9,8,16,10,32,-16
1530692383705120,-17,10,4,-5,4,-2,-32,1
1530692383706118,3,-13,-8,1,-2,-1,22,28
1530692383706118,5,-1,0,-2,7,3,-39,-31
1530692383720080,6,-16,2,-3,-27,-2,10,45
1530692383720080,1,-15,-5,-5,-13,-9,23,-2
1530692383728059,-14,56,19,17,58,9,-15,-21
1530692383728059,-8,-38,-17,-1,22,10,5,-28
1530692383743019,13,-3,10,4,-9,1,14,-2
1530692383743019,-3,30,3,-7,-12,-5,-10,56
1530692383744017,5,-12,-11,-10,-42,-14,-10,-72
1530692383744017,-11,-16,0,0,-3,-6,2,14
1530692383764960,12,-4,-1,7,18,4,-3,5
1530692383764960,-20,-28,-14,-8,24,-7,-23,12
1530692383765957,4,9,0,-6,-22,-7,-2,-48
1530692383765957,-2,33,10,-1,-11,-5,15,4
1530692383788896,-3,-9,-2,4,10,15,14,-21
1530692383788896,14,-21,-9,1,-7,-4,-51,47
1530692383788896,-9,-34,-14,-3,7,0,8,34
1530692383788896,12,33,5,-1,-10,3,22,38
1530692383802859,-9,12,1,-3,-14,-17,-12,-31
1530692383802859,-26,10,8,-2,12,3,-3,-84
1530692383803856,11,-16,-5,-3,-30,-2,10,62
1530692383803856,2,-11,-10,-5,-22,-1,10,6
1530692383825798,10,-1,1,5,17,-3,-18,62
1530692383825798,4,19,1,0,20,5,12,-100
1530692383825798,-5,-22,-6,-8,-16,8,22,55
1530692383825798,-15,-11,0,-3,-17,-5,-24,-85
1530692383847739,-8,10,-4,-2,-7,-7,-9,18
1530692383847739,7,0,6,10,-6,4,35,-2
1530692383848736,12,-21,-3,-6,2,0,-22,6
1530692383848736,-9,5,-1,0,2,-2,3,19
1530692383862698,-5,21,8,0,2,-5,-13,-22
1530692383862698,10,4,-1,-4,-3,-8,3,8
1530692383863696,-17,-18,-2,-3,-9,-12,-6,-18
1530692383863696,11,26,4,3,-8,8,-15,-4
1530692383885637,-5,-37,-8,-3,9,-6,-5,-23
1530692383885637,5,24,3,3,55,9,38,28
1530692383886635,24,-1,3,-3,-14,4,-2,85
1530692383886635,-27,-13,-4,-2,-8,-12,1,-70
1530692383907579,5,4,-3,-8,-37,-12,21,19
1530692383907579,-1,-7,-9,0,-11,-4,-32,-5
1530692383908577,-4,-3,-1,2,30,8,-3,-23
1530692383908577,8,24,16,7,11,2,0,31
1530692383922539,10,-4,-7,-1,-1,11,31,50
1530692383922539,-4,-13,-3,-10,-8,-10,-6,-21
1530692383923536,-16,9,0,-1,-21,-5,-12,-16
1530692383923536,5,-22,-6,-2,5,1,20,-23
1530692383945478,0,-3,-4,-2,-3,5,-23,16
1530692383945478,18,15,7,9,4,4,19,-2
1530692383946475,-13,5,-2,3,-1,2,-5,-10
1530692383946475,16,-7,1,-2,15,3,-1,14
1530692383967419,6,-4,-3,2,3,-3,16,40
1530692383967419,-22,-7,-1,-3,-10,-6,-12,5
1530692383968416,-2,-8,-4,-1,-33,3,39,-12
1530692383968416,-12,8,-3,0,64,3,-14,2
1530692383983377,17,-20,-1,-1,8,6,-10,45
1530692383983377,-7,4,5,3,-11,-7,-24,-59
1530692383983377,7,17,3,-2,-12,-8,-20,-51
1530692383983377,-10,-1,-2,-2,-19,-7,12,100
1530692384005317,-4,-5,-10,-5,2,8,10,-45
1530692384005317,-8,-14,4,3,-4,-5,-20,13
1530692384006315,0,-1,-5,0,15,-1,5,-29
1530692384006315,22,-16,-1,-2,-12,2,13,19
1530692384028256,-10,9,7,2,12,1,-12,7
1530692384028256,-14,-16,-4,-5,-13,1,-1,5
1530692384028256,-8,-31,-8,1,9,-5,-12,-28
1530692384028256,22,56,8,6,4,2,3,22
1530692384043217,-14,17,9,-2,-13,-5,3,-102
1530692384043217,17,1,-7,-2,-5,9,8,85
1530692384043217,-15,-1,-2,-1,11,5,-6,-13
1530692384043217,7,-24,-5,3,-5,-4,-3,-14
1530692384065157,9,19,2,1,0,-1,4,12
1530692384065157,-5,-15,-8,-7,-22,-9,-24,-7
1530692384066155,18,28,8,8,25,9,26,32
1530692384066155,2,-22,-2,2,-4,5,3,-8
1530692384088096,-23,4,-4,-2,9,-10,-32,-8
1530692384088096,21,2,0,-3,4,4,12,3
1530692384089093,-2,2,-1,-4,-38,-2,3,11
1530692384089093,-3,-2,-2,3,64,7,-1,-21
1530692384103056,6,-10,-7,-1,1,4,11,39
1530692384103056,0,-2,1,3,8,-2,1,5
1530692384104053,15,8,3,-4,-14,-6,0,-18
1530692384104053,-18,-6,1,-3,-36,-8,1,-19
1530692384124998,1,-5,-12,-6,1,-3,3,10
1530692384124998,0,3,3,8,5,11,31,63
1530692384125995,-2,11,4,0,0,-3,-35,19
1530692384125995,-4,-9,-4,-6,-20,-4,-8,-34
1530692384147936,-11,-20,-5,-5,-5,-10,-3,-36
1530692384147936,3,23,4,5,-2,4,4,18
1530692384148934,-7,-31,-10,-5,8,1,-5,-35
1530692384148934,14,18,2,-6,-2,6,3,54
1530692384162896,-14,6,5,2,-9,-5,-28,-101
1530692384162896,5,13,2,-4,-12,-6,17,-4
1530692384163894,-4,-10,2,5,13,3,2,25
1530692384163894,-6,-19,-11,-5,-15,-11,-7,5
1530692384185834,-2,14,6,4,-1,5,-4,-56
1530692384185834,18,-1,-5,-1,8,1,-2,-27
1530692384185834,-12,-6,0,-2,5,-8,-10,12
1530692384185834,1,-1,4,-2,-64,-3,16,40
1530692384207776,4,-2,1,5,40,7,28,80
1530692384207776,2,1,0,0,53,13,-9,-99
1530692384208778,-7,7,7,4,-8,-6,-13,2
1530692384208778,3,4,-2,-2,7,7,-3,17
1530692384222736,-2,-14,-4,-6,-49,-10,-17,2
1530692384222736,9,-4,-1,1,0,-6,-6,30
1530692384223733,7,8,4,0,-10,-8,-2,10
1530692384223733,-17,-2,1,2,46,16,-17,-48
1530692384245675,11,-8,-7,0,6,2,7,39
1530692384245675,-13,-2,-4,-7,-21,-10,-23,-7
1530692384246672,24,10,5,3,-6,-5,19,6
1530692384246672,-9,-7,-8,-1,-7,-6,17,-2
1530692384267616,3,10,5,-1,10,10,-2,10
1530692384267616,-11,-13,-6,-3,-15,-7,5,-45
1530692384268613,10,7,-5,-4,2,2,8,44
1530692384268613,4,-2,8,9,-19,-1,-17,-23
1530692384282576,-8,-1,1,-2,18,-6,-11,-39
1530692384282576,10,1,-2,-3,-30,-3,3,37
1530692384283573,5,24,9,5,44,14,11,17
1530692384283573,-17,-19,-10,-8,-5,-15,-12,-1
1530692384305515,-12,-3,-1,1,-18,-1,12,-4
1530692384305515,-5,-3,6,0,-4,-3,-21,7
1530692384306516,4,10,-11,-6,1,-1,-1,-7
1530692384306516,12,-10,-4,-4,1,-4,-3,19
1530692384327456,14,19,3,-1,-15,1,18,33
1530692384327456,-28,-7,-2,2,23,4,-1,-17
1530692384328454,4,-10,-3,-5,-7,-4,12,-8
1530692384328454,9,3,8,6,11,11,-2,-34
1530692384342424,-18,-13,-11,-7,-8,-7,-16,-18
1530692384342424,11,7,-1,-1,-5,3,14,30
1530692384343414,-23,-9,-10,-4,-6,-7,-14,-37
1530692384343414,24,1,2,-2,-3,-8,14,53
1530692384365355,5,-1,1,5,16,2,-23,-39
1530692384365355,-12,4,4,4,12,17,15,4
1530692384366352,8,-13,-3,-2,5,1,1,62
1530692384366352,-4,12,1,-5,-3,-20,7,-35
1530692384388293,9,-10,0,-5,-51,16,-5,35
1530692384388293,-1,-3,-5,-6,29,-9,14,-9
1530692384388293,-16,-2,1,9,1,8,-15,22
1530692384388293,2,-13,-2,0,14,2,23,0
1530692384403253,-8,22,7,0,-9,-12,-18,-20
1530692384403253,10,-5,-4,-3,-24,2,36,3
1530692384403253,-14,-13,-9,-7,-7,-6,-25,-19
1530692384403253,8,-8,-8,2,20,10,-8,31
1530692384425195,-4,18,10,0,-14,0,6,-27
1530692384425195,16,2,4,3,9,-1,-16,-9
1530692384426197,8,14,8,5,14,-1,9,-13
1530692384426197,-14,-9,-7,-7,-21,-6,-30,3
1530692384448133,16,-13,-9,-3,3,-2,9,49
1530692384448133,0,-6,0,1,5,-5,-11,-5
1530692384449131,-5,-6,4,0,3,11,26,-7
1530692384449131,-23,4,-1,-4,0,-1,-4,-7
1530692384463093,-3,-1,0,1,5,-9,-19,-3
1530692384463093,0,4,1,1,7,1,4,15
1530692384464091,7,-18,-4,-7,-27,-5,-13,-20
1530692384464091,-6,17,6,7,-2,9,35,-11
1530692384485034,-2,-9,-4,0,-8,-7,-30,4
1530692384485034,-6,-3,-1,-3,23,-4,17,-4
1530692384486032,15,8,2,-3,-14,12,11,18
1530692384486032,-32,-9,-8,-2,1,-11,-22,-38
1530692384507973,13,-3,1,1,2,-2,12,9
1530692384507973,-11,13,-2,-5,-33,-3,-18,-10
1530692384508971,4,2,4,4,16,1,4,10
1530692384508971,4,-21,-6,-3,-10,0,2,-36
1530692384521936,-1,-5,-4,-2,22,-6,15,53
1530692384521936,-7,13,3,3,3,2,-38,-20
1530692384530912,-1,42,11,4,0,-6,19,-9
1530692384530912,3,-25,-2,1,-2,3,-41,9
1530692384545872,6,16,-1,0,14,4,17,-22
1530692384545872,11,-7,-1,-2,-6,2,14,17
1530692384545872,-10,-22,-10,-4,-10,-6,-13,-6
1530692384545872,0,18,3,-1,-13,-6,0,38
1530692384567813,3,-11,-4,2,13,5,12,31
1530692384567813,-11,-11,-4,-4,-6,-4,13,-40
1530692384568811,-17,-5,-5,-4,13,-4,-24,-50
1530692384568811,17,13,1,0,12,2,-19,18
1530692384581775,-38,-19,-6,-6,-18,-12,-5,-51
1530692384581775,0,5,2,-1,-47,-2,18,18
1530692384590751,11,-6,-1,6,85,12,-2,23
1530692384590751,-5,12,2,-7,-15,-8,-12,-30
1530692384605712,9,2,3,1,4,10,31,22
1530692384605712,-15,-36,-7,-1,-15,-9,-42,-25
1530692384606709,9,81,11,0,-29,-9,17,8
1530692384606709,-5,-21,-12,-6,9,-1,0,22
1530692384627653,28,30,6,3,1,-1,-31,-72
1530692384627653,5,-26,-8,-5,-3,-4,1,35
1530692384628650,7,-18,3,4,-2,9,7,7
1530692384628650,-5,12,3,-3,5,-9,-1,-28
1530692384642617,-10,-21,-7,-3,-4,-5,3,18
1530692384642617,7,12,-3,-3,5,0,-3,-11
1530692384650592,10,-2,0,2,-5,11,27,11
1530692384650592,15,13,7,2,12,9,0,-3
1530692384665552,-13,-28,-13,-8,-17,-16,-15,-2
1530692384665552,-9,18,6,7,16,8,9,27
1530692384666549,-2,-20,-9,-6,-7,-10,-21,7
1530692384666549,-5,1,0,2,-14,3,13,-7
1530692384687493,0,5,1,2,22,3,20,3
1530692384687493,-4,-3,-5,-5,0,-4,-16,5
1530692384688490,-12,-37,-6,-2,-29,-8,-10,1
1530692384688490,18,39,14,8,2,7,9,-3
1530692384711429,8,-3,-4,-2,29,3,-8,-16
1530692384711429,9,38,10,2,-10,1,5,-12
1530692384711429,-13,-19,-7,-2,-10,-3,-9,12
1530692384711429,-5,-4,-6,-6,-7,1,2,76
1530692384725392,0,-13,-6,-6,-18,6,34,-31
1530692384725392,4,-4,2,2,12,2,-5,7
1530692384726389,-12,-8,-7,-4,-12,-15,-26,-41
1530692384726389,-10,-3,2,2,-9,3,21,4
1530692384748330,-4,6,0,0,10,0,-7,11
1530692384748330,8,-19,-4,-4,3,3,1,18
1530692384748330,14,24,8,2,11,0,19,-3
1530692384748330,-20,-5,-6,-3,-7,-3,1,-30
1530692384762293,0,-10,1,0,-16,-1,-18,5
1530692384762293,-1,7,0,3,12,-2,-9,-4
1530692384770271,-2,-12,1,1,4,5,1,2
1530692384770271,-2,-9,-2,1,10,1,1,-20
1530692384785231,3,1,-3,-1,-11,-1,1,-1
1530692384785231,-6,8,-2,-2,-7,1,18,97
1530692384786229,-20,-16,-2,1,4,-3,-9,-62
1530692384786229,26,33,2,-4,2,-4,3,9
1530692384808170,9,3,6,1,-5,-8,-21,40
1530692384808170,-1,-15,-5,-3,-3,7,23,-1
1530692384809168,9,-8,-4,-3,-7,1,-1,-26
1530692384809168,-3,9,-4,-2,4,-4,-25,-10
1530692384822133,-5,-16,3,2,-13,6,18,10
1530692384822133,8,6,2,-1,-31,0,11,-24
1530692384830112,-13,-1,-1,3,47,1,2,28
1530692384830112,10,-21,-2,1,-3,0,-23,-19
1530692384845072,-16,8,-1,0,8,-5,5,-4
1530692384845072,2,-18,-3,-6,-21,-7,-17,0
1530692384846069,2,-1,-2,-2,-3,11,21,20
1530692384846069,2,-12,-5,-2,-10,-11,-3,13
1530692384868010,-8,3,-1,-3,10,8,16,-9
1530692384868010,-6,-3,2,3,0,-10,-35,51
1530692384869008,-2,-2,-1,-6,-16,-2,-13,-67
1530692384869008,17,12,8,4,13,1,3,12
1530692384881973,1,0,-7,-1,-8,0,10,20
1530692384881973,-12,-3,-4,-3,6,-7,-11,-23
1530692384889951,16,-8,-1,-2,-12,-2,-12,36
1530692384889951,-12,-14,1,2,10,0,-2,-23
1530692384905909,4,23,1,1,-1,1,6,-9
1530692384905909,-5,-3,0,0,19,-4,-15,-18
1530692384905909,-2,-4,-1,-4,-37,-10,-11,1
1530692384905909,-3,-3,-3,-4,-7,0,7,-5
1530692384927850,-7,-31,-6,3,-5,9,4,33
1530692384927850,0,24,3,6,62,1,-5,-62
1530692384928848,1,-1,4,2,-5,0,8,16
1530692384928848,-18,-24,-12,-8,-22,-3,2,0
1530692384941813,-9,-13,-3,-1,-1,0,-6,-23
1530692384941813,12,10,-1,0,-27,-13,-8,-27
1530692384950789,-1,-6,-5,-3,-1,3,22,39
1530692384950789,-12,22,13,8,33,7,-41,-19
1530692384965749,19,-13,-3,-2,1,5,-8,16
1530692384965749,-5,-15,-3,-2,-8,4,18,-4
1530692384965749,25,36,-1,2,3,0,5,24
1530692384965749,-10,-19,0,0,-8,0,7,5
1530692384987690,-2,21,2,-1,-2,-12,-2,-20
1530692384987690,5,7,7,0,-9,8,11,-4
1530692384988688,-19,-6,-4,1,-4,-3,-35,11
1530692384988688,-10,-7,-5,-1,10,8,36,-6
1530692385010629,-8,7,-2,-1,-1,-5,-33,-43
1530692385010629,0,-6,1,3,1,-1,25,2
1530692385011626,6,-6,-8,-2,-1,-2,-6,2
1530692385011626,19,19,13,0,-1,1,28,34
1530692385025595,-14,-15,0,-4,-28,-10,-33,1
1530692385025595,-1,0,-9,-4,-2,12,12,4
1530692385026587,-4,-18,-3,-2,82,4,-2,-23
1530692385026587,10,3,-1,7,-4,-4,-12,31
1530692385047530,13,16,5,-5,-2,2,35,32
1530692385047530,-12,-17,-4,-3,-20,-12,-15,36
1530692385048528,-5,10,2,0,-25,-2,-4,-35
1530692385048528,-7,-12,-11,-7,7,-2,17,2
1530692385070469,8,12,5,4,11,-1,11,4
1530692385070469,-8,7,-6,-4,-12,-3,-8,11
1530692385071466,-5,-1,7,7,12,-5,-12,17
1530692385071466,9,-27,-6,-3,-10,2,18,-24
1530692385085428,-3,-1,-7,-1,8,0,4,16
1530692385085428,13,9,6,0,8,12,-8,-3
1530692385086426,4,12,2,-3,-10,-2,21,13
1530692385086426,12,-4,-5,-2,-6,6,15,21
1530692385108367,-14,-17,-3,0,0,-3,-16,-16
1530692385108367,-9,22,4,1,10,-3,22,6
1530692385108367,-3,-11,0,1,-13,-2,-36,-13
1530692385108367,8,29,7,3,3,-2,-20,11
1530692385130309,3,0,2,4,11,-2,5,-35
1530692385130309,0,-6,-9,-12,-19,-10,-10,34
1530692385131306,0,-11,-4,0,-7,3,16,24
1530692385131306,-25,9,1,-5,-40,-8,-8,-54
1530692385145269,12,-1,-3,4,23,5,10,21
1530692385145269,-2,2,5,6,42,-4,-6,-22
1530692385146266,10,-4,-3,-4,-20,1,-25,-1
1530692385146266,5,15,-3,-4,-2,-1,1,23
1530692385168207,-13,11,-4,-6,-19,-3,-6,-13
1530692385168207,2,10,12,1,-13,-2,-10,-6
1530692385169205,3,0,-2,0,3,-2,36,41
1530692385169205,-16,-17,-3,2,6,7,8,-87
1530692385190148,10,-13,-4,1,14,4,-21,3
1530692385190148,3,-1,-2,2,13,3,13,-13
1530692385191146,-7,3,1,-2,-14,-1,11,-3
1530692385191146,-5,-6,-1,-1,-3,-7,-32,7
1530692385205109,-15,11,6,1,15,8,20,-52
1530692385205109,1,-14,-7,-3,-11,-2,-11,54
1530692385206106,5,6,5,-2,-13,-3,3,28
1530692385206106,5,-10,-6,-2,9,-5,0,-57
1530692385228047,-10,3,5,2,-7,2,1,3
1530692385228047,-7,2,-3,1,6,6,35,-16
1530692385229045,-6,-3,-7,-3,-2,-4,-69,-48
1530692385229045,-1,-4,-2,-6,-4,-5,7,38
1530692385249989,9,1,3,8,12,-10,-20,32
1530692385249989,-11,-17,-3,-1,-5,3,-4,-37
1530692385250986,3,4,2,1,2,7,26,3
1530692385250986,17,-5,-1,-1,-1,-1,4,31
1530692385264949,-1,9,1,-3,-1,-4,-9,6
1530692385264949,-5,-8,-7,-3,-14,-5,-9,-17
1530692385265946,12,-3,0,-1,-12,6,17,-6
1530692385265946,-29,-2,-4,-1,37,-4,-29,-10
1530692385287887,1,-7,-1,2,7,3,23,12
1530692385287887,5,2,-1,-1,4,-5,-7,-10
1530692385288885,-5,13,3,-5,-35,-7,-6,-46
1530692385288885,6,-3,-2,0,5,2,8,28
1530692385310826,-19,-5,-1,-2,20,3,-24,-44
1530692385310826,-2,2,5,5,-4,1,3,-1
1530692385310826,-3,-6,-8,-8,3,0,29,4
1530692385310826,10,7,0,1,-20,-1,-22,-38
1530692385325786,-8,-1,1,1,-6,2,2,29
1530692385325786,-1,2,2,1,-1,-1,-1,-28
1530692385325786,-12,-30,-7,3,2,-6,-41,-1
1530692385325786,-1,36,11,1,18,-2,23,17
1530692385347727,16,3,-3,-2,-22,1,21,40
1530692385347727,-7,-14,-9,-9,-15,-8,-19,-69
1530692385348725,6,6,4,6,6,2,15,20
1530692385348725,-20,-21,-8,-8,26,-6,-16,8
1530692385370666,8,-4,-2,-1,-4,-4,-11,21
1530692385370666,-4,-13,1,0,-25,-4,-3,22
1530692385371663,6,25,-6,-3,28,3,-12,-6
1530692385371663,4,-16,1,6,2,2,-4,7
1530692385385626,3,6,0,-4,-12,-2,12,-1
1530692385385626,-3,-4,-11,-6,2,-3,-5,27
1530692385386624,-15,-1,0,-1,-10,-6,-19,-26
1530692385386624,-5,1,1,-2,-13,-4,12,12
1530692385407567,5,-4,-2,-1,9,-1,1,-18
1530692385407567,8,2,2,-1,-9,4,-5,-2
1530692385408565,12,9,1,-1,3,-3,26,52
1530692385408565,-7,-4,-2,1,-6,-4,-25,-39
1530692385430506,-3,-4,-4,-6,-21,1,-4,0
1530692385430506,-2,5,2,3,30,-10,2,7
1530692385431503,-21,-5,1,3,7,-5,-2,-64
1530692385431503,13,-3,-2,0,-27,5,-7,53
1530692385445466,8,2,0,2,8,8,5,-29
1530692385445466,-8,-1,2,-3,-13,-1,3,-11
1530692385446463,6,4,-4,-4,-2,-8,-4,9
1530692385446463,4,-3,3,4,-10,-1,0,-12
1530692385468405,0,-6,-4,-6,-38,-12,-14,-11
1530692385468405,-22,-4,-3,1,47,12,43,13
1530692385468405,12,-2,3,3,0,0,-45,-18
1530692385468405,-5,-2,-2,-1,-7,5,61,-6
1530692385490346,13,14,5,3,6,0,-49,35
1530692385490346,-8,1,-4,-11,-29,-7,9,-43
1530692385491344,12,5,0,1,5,-1,21,73
1530692385491344,-8,-13,-4,-2,-9,-1,-9,-16
1530692385505306,-11,-1,-2,-1,35,3,10,29
1530692385505306,16,14,12,10,-17,8,2,-2
1530692385506303,6,-8,-4,-6,1,0,4,4
1530692385506303,-5,-26,-14,-2,-7,-7,0,-27
