timestamp,emg1,emg2,emg3,emg4,emg5,emg6,emg7,emg8
1530692392885569,20,2,7,24,18,-3,-15,-21
1530692392885569,-14,-2,-2,-3,-4,3,-13,3
1530692392886566,9,-4,-3,-3,-1,2,20,3
1530692392886566,-24,-3,1,8,-2,7,7,-75
1530692392908507,-11,-5,-3,14,3,-7,-24,-72
1530692392908507,3,0,-2,-31,-29,-5,23,55
1530692392909505,-34,-4,-2,-24,34,0,-43,-67
1530692392909505,31,-1,-1,27,4,9,4,-25
1530692392931446,-25,3,1,-35,5,14,8,-28
1530692392931446,24,-4,-4,4,-4,-20,-25,-29
1530692392932443,6,2,1,2,-30,-14,-8,-10
1530692392932443,8,12,12,28,42,12,-5,8
1530692392945409,12,4,1,-3,-11,-4,0,-76
1530692392945409,-16,-5,-5,-4,-3,0,25,120
1530692392946406,28,0,1,-5,0,18,-4,49
1530692392946406,19,-2,-2,2,-4,-14,-32,-22
1530692392968347,7,-3,-3,4,-14,-9,8,27
1530692392968347,-11,-4,-1,2,4,-1,16,17
1530692392969345,-38,-4,1,1,-1,-2,-9,19
1530692392969345,-87,-14,-6,-6,-2,1,2,-99
1530692392991286,44,3,-1,-6,-6,-3,12,59
1530692392991286,-10,-2,-8,-41,-25,-8,-19,-27
1530692392992284,28,6,7,23,19,12,27,27
1530692392992284,-10,-5,-2,0,2,8,-10,-22
1530692393005248,-7,-8,-5,5,-9,-12,0,-2
1530692393005248,14,2,-2,-25,-3,-2,-11,-10
1530692393006250,-12,0,1,10,-5,-2,22,-10
1530692393006250,15,-1,-4,-3,8,-1,4,96
1530692393029184,-5,3,5,-4,-3,-1,2,62
1530692393029184,-22,-7,-2,-2,5,9,-19,-88
1530692393029184,24,1,-2,-1,0,7,6,-17
1530692393029184,-12,-1,-3,-4,-8,-13,-6,55
1530692393051126,31,-7,-9,-23,-22,-9,11,-34
1530692393051126,-34,-3,1,18,12,2,-15,70
1530692393052123,25,-5,-4,-7,-2,6,-4,-32
1530692393052123,-34,2,3,-4,-2,7,16,35
1530692393065088,-47,-5,-4,-3,7,0,15,81
1530692393065088,34,6,4,30,-2,-1,12,37
1530692393066088,26,0,-6,-5,-14,-12,7,-25
1530692393066088,25,3,-1,-10,0,-3,-19,49
1530692393089025,-34,-1,-1,-15,1,18,-4,-61
1530692393089025,4,4,8,11,23,-4,10,52
1530692393090030,19,1,-3,-15,-6,3,-14,24
1530692393090030,24,-2,-2,-1,-16,-8,27,18
1530692393110966,8,4,3,33,12,-6,-23,36
1530692393110966,-29,-3,0,-7,1,0,-14,-84
1530692393111963,27,4,-1,-12,-13,5,-8,-32
1530692393111963,-7,3,3,32,21,1,7,42
1530692393125926,11,1,-3,-17,-3,-12,-12,-53
1530692393125926,-35,3,4,-10,1,14,26,66
1530692393125926,-18,-1,1,3,24,-3,-13,-99
1530692393125926,33,-6,-8,-8,-23,-3,0,46
1530692393148864,1,0,-1,-6,2,3,16,5
1530692393148864,19,-1,-3,2,-17,-12,-15,-91
1530692393149862,15,0,-4,-11,-26,-4,-1,92
1530692393149862,-43,-1,2,-3,43,2,-8,-64
1530692393170806,11,1,2,1,-13,5,21,-1
1530692393170806,25,2,-1,-1,8,3,7,-79
1530692393171803,-38,-1,-2,1,-15,-5,-14,35
1530692393171803,-41,-1,-1,19,-4,-12,2,24
1530692393186763,-7,-4,-3,8,15,-3,-19,-2
1530692393186763,-24,-4,-3,7,-11,3,9,3
1530692393187761,22,1,2,-9,-4,-7,17,89
1530692393187761,26,8,4,34,8,11,8,-57
1530692393208704,32,-4,-3,-15,-15,-15,-15,-75
1530692393208704,14,-2,-3,-16,4,7,13,85
1530692393209702,-6,-1,1,34,9,-1,-9,-30
1530692393209702,2,-5,-5,-28,-22,0,-17,16
1530692393231643,-7,0,-3,-11,-14,-7,13,71
1530692393231643,-23,-5,0,30,17,-22,-21,-38
1530692393231643,-8,-6,-4,-11,10,34,9,-77
1530692393231643,35,4,-2,-35,-15,-14,-4,-17
1530692393245606,-33,0,3,17,9,5,5,0
1530692393245606,15,4,1,-22,-8,-22,1,-32
1530692393246603,-38,0,3,41,-8,-2,-30,-47
1530692393246603,8,1,-2,-5,-3,14,7,58
1530692393268544,6,-3,-7,-20,-12,-6,-14,-71
1530692393268544,14,2,5,1,14,6,7,9
1530692393269542,-7,-3,0,18,19,-7,12,0
1530692393269542,5,4,1,5,-27,-3,-5,1
1530692393291483,9,-1,3,17,19,3,-4,-21
1530692393291483,-26,-4,-6,-6,-17,12,2,30
1530692393292481,15,-2,-15,-23,-13,-12,-9,-56
1530692393292481,-30,-4,15,23,19,5,2,-59
1530692393305445,1,-3,0,-18,-9,-3,-2,-40
1530692393305445,-35,-2,-5,-10,-42,0,9,102
1530692393313424,11,4,10,27,62,17,-14,-28
1530692393313424,26,-11,-18,-19,-15,-5,1,-49
1530692393328384,-37,4,8,35,2,0,-4,-6
1530692393328384,47,4,1,9,12,4,-26,-100
1530692393329382,-12,-3,-3,1,-21,-3,19,3
1530692393329382,-17,-4,0,-5,-15,7,11,-12
1530692393351323,-6,-2,-5,-40,-11,21,21,105
1530692393351323,52,1,1,57,27,2,-16,-68
1530692393352320,-20,1,0,-19,9,-6,6,88
1530692393352320,-30,1,3,0,2,-8,-17,-32
1530692393365286,-6,-4,-8,-21,-24,-1,16,20
1530692393365286,-23,-3,3,15,3,-3,-22,8
1530692393366283,5,-5,-3,1,2,-10,13,-6
1530692393366283,18,4,1,-7,-1,-1,-6,-22
1530692393388224,-16,2,2,13,3,-9,-5,28
1530692393388224,18,-3,-5,-22,5,6,3,16
1530692393389222,0,0,0,-13,-13,-4,7,-19
1530692393389222,-1,-8,-5,-2,6,0,-5,57
1530692393411163,6,-7,-8,15,7,0,-2,-75
1530692393411163,-2,4,5,-9,-5,-6,5,30
1530692393412161,15,1,-1,-31,-24,-3,9,-4
1530692393412161,12,4,0,9,35,-6,-16,49
1530692393425126,31,-2,-4,-13,1,-8,-2,-31
1530692393425126,-87,-1,-1,4,-4,19,33,103
1530692393433104,10,-4,0,7,-24,-22,-25,6
1530692393433104,-2,6,0,-39,1,8,20,23
1530692393448064,-6,1,7,69,21,-1,-26,-78
1530692393448064,47,2,-9,-26,7,9,37,33
1530692393449062,-15,0,-8,-8,-10,-4,1,-1
1530692393449062,-11,2,19,17,-12,-8,-26,-34
1530692393471003,3,2,-3,-11,18,6,26,9
1530692393471003,-8,2,3,9,-11,0,-13,3
1530692393472000,23,-3,-6,1,15,-5,-36,-64
1530692393472000,12,-1,-8,-19,-15,-6,7,-34
1530692393493942,-10,0,1,9,0,-1,-5,-10
1530692393493942,75,2,2,16,2,2,12,46
1530692393494939,-61,-8,-1,-2,-1,2,11,72
1530692393494939,13,7,-1,-17,7,-1,-51,-7
1530692393507904,-24,-3,-3,0,-27,-18,-3,26
1530692393507904,10,2,-6,-29,23,18,-6,53
1530692393508902,32,1,2,-24,-11,2,19,14
1530692393508902,-80,-2,5,49,-5,6,23,60
1530692393530843,15,-11,-4,1,4,5,13,38
1530692393530843,-15,-3,0,-1,-2,-29,-57,-39
1530692393531840,39,6,3,20,12,7,22,30
1530692393531840,23,2,-5,-8,-4,-1,3,28
1530692393544806,-5,2,-4,-27,-6,-1,0,-16
1530692393544806,-48,-11,-6,17,-18,-6,-4,-30
1530692393552784,-3,-7,0,3,12,3,-18,-82
1530692393552784,3,-1,-2,30,12,3,17,-3
1530692393567744,45,7,3,-18,-16,-17,-8,24
1530692393567744,41,-2,0,10,5,-5,11,4
1530692393568742,-74,-4,0,11,13,5,6,55
1530692393568742,31,-6,-4,21,-4,5,7,-23
1530692393591680,-33,-1,0,-2,-3,-8,-5,13
1530692393591680,-19,-3,-1,-2,3,-7,13,-54
1530692393591680,27,6,2,16,3,16,-35,7
1530692393591680,-5,-7,-3,-2,-5,-5,-7,-21
1530692393604645,-34,-5,-2,-4,-5,2,-13,31
1530692393604645,10,-1,-2,-14,6,-2,12,36
1530692393612624,13,2,-2,-13,-20,-9,-3,-63
1530692393612624,4,-8,-2,-20,4,-2,10,-82
1530692393627584,10,3,-1,-15,-2,1,-20,9
1530692393627584,15,-2,-1,0,-10,-8,-28,-47
1530692393628581,-13,3,0,-3,2,-3,8,67
1530692393628581,50,6,1,-14,-1,1,17,29
1530692393651520,-14,-4,-2,-6,-3,-1,-30,69
1530692393651520,4,4,2,-13,2,8,17,-29
1530692393652517,33,2,1,8,3,1,12,4
1530692393652517,-7,-3,-5,-7,-16,-7,9,-43
1530692393665483,17,7,6,2,11,12,-14,4
1530692393665483,-19,-1,-1,-10,0,-11,-2,-58
1530692393673462,17,4,2,5,-4,-3,-2,-6
1530692393673462,-63,-17,-15,-57,-14,-10,-5,-63
1530692393688421,4,6,11,42,28,12,-13,-8
1530692393688421,-3,-1,-3,-34,-23,2,-3,-38
1530692393688421,1,-2,-2,12,-4,-19,-4,-22
1530692393688421,-21,4,4,17,35,16,-13,-47
1530692393711360,-24,-4,-8,-21,-15,-7,1,-26
1530692393711360,19,2,1,11,-7,-3,3,3
1530692393712358,-17,-7,-4,-5,-8,-6,6,65
1530692393712358,11,4,2,18,2,4,-5,-18
1530692393724325,31,2,-1,-7,17,17,-4,-1
1530692393724325,-38,-6,0,15,-1,-7,-8,15
1530692393733301,-20,-10,-6,-17,-3,-5,-3,-25
1530692393733301,31,3,-1,-2,-8,-7,-1,46
1530692393748261,-63,-8,0,-7,-5,-5,14,-24
1530692393748261,46,-2,-5,-4,-7,-1,-11,16
1530692393749259,14,2,0,-4,2,6,8,94
1530692393749259,15,-4,1,42,13,-1,-8,68
1530692393771200,32,6,1,0,-7,-10,37,14
1530692393771200,-7,5,0,-7,-12,3,-10,1
1530692393772198,-12,1,7,3,12,1,-6,-32
1530692393772198,27,6,3,-5,5,11,28,49
1530692393794139,-1,-2,-4,4,-2,-3,-8,-88
1530692393794139,-23,-4,-2,0,2,3,17,36
1530692393794139,45,2,-5,-9,-11,-4,-12,8
1530692393794139,-26,-1,1,11,2,-9,-13,-69
1530692393808101,-29,-11,-1,-5,1,3,0,64
1530692393808101,18,-1,-4,-4,-2,9,32,12
1530692393809099,-22,0,2,1,3,1,-4,4
1530692393809099,5,2,1,17,1,4,4,-40
1530692393831040,52,4,-3,3,-8,-8,-5,87
1530692393831040,-78,-8,-2,-6,7,-6,-26,-87
1530692393832038,54,0,-1,1,-9,4,0,9
1530692393832038,-78,-10,-9,-21,-4,-17,4,28
1530692393853979,2,-1,-3,-18,-7,-1,-7,-14
1530692393853979,26,4,6,51,5,6,1,54
1530692393854976,-13,-1,-3,-9,1,-1,3,-60
1530692393854976,3,-5,-5,-23,-21,1,-10,17
1530692393867941,4,1,4,17,17,3,-2,-18
1530692393867941,11,-6,-8,-44,-8,-6,-6,-22
1530692393868939,1,-1,0,4,-8,4,12,-23
1530692393868939,6,5,2,4,8,-7,-6,108
1530692393890880,2,2,-3,-12,-2,1,17,-42
1530692393890880,0,-3,-3,-1,-2,-3,-18,2
1530692393891878,-54,-11,-5,-4,-1,-7,-10,-56
1530692393891878,-2,-6,-2,-11,-7,9,4,-8
1530692393913819,-1,2,-1,14,-3,-6,-11,-17
1530692393913819,22,8,6,4,10,2,17,95
1530692393914816,-10,-2,-2,-2,1,7,4,-68
1530692393914816,-9,0,1,3,-4,-3,-2,-40
1530692393927781,10,-8,-5,-2,-7,-3,16,44
1530692393927781,49,-2,-6,-14,-5,4,10,64
1530692393928779,-51,9,2,14,7,-4,8,10
1530692393928779,-17,-7,-5,-39,-11,-14,-15,-28
1530692393951717,10,3,8,22,28,13,-19,-41
1530692393951717,15,0,-1,5,3,-5,19,78
1530692393951717,-18,1,2,-22,-7,-33,-25,-85
1530692393951717,30,5,-2,12,-17,4,0,9
1530692393973659,0,-3,-3,-18,-5,4,16,28
1530692393973659,-19,0,-4,2,-9,-24,-8,-29
1530692393974657,25,2,4,-1,10,19,9,86
1530692393974657,-1,-3,-3,-7,8,10,6,0
1530692393988619,-34,-2,-1,-7,1,-32,2,-20
1530692393988619,-14,-3,3,31,-1,8,-27,-65
1530692393988619,25,5,-2,8,-9,2,23,127
1530692393988619,24,-2,-3,-47,-1,7,-1,-29
1530692394011558,-11,-3,6,52,8,34,28,-23
1530692394011558,12,3,-1,-1,7,-2,3,58
1530692394011558,-16,-4,-1,-7,-2,-6,2,-12
1530692394011558,-13,-2,0,16,0,0,-11,-55
1530692394033501,60,0,-10,-55,-46,-11,3,79
1530692394033501,-34,6,11,63,41,3,-23,8
1530692394034497,-23,-11,-4,-2,3,-5,6,-108
1530692394034497,16,5,0,7,11,7,-28,-37
1530692394048459,-29,-1,1,4,4,-17,8,-70
1530692394048459,25,3,-2,-39,-19,16,16,-88
1530692394048459,-49,-4,-4,-12,-12,2,-37,46
1530692394048459,4,-7,-2,29,7,-15,-6,-105
1530692394071398,-74,-5,-2,-37,-4,22,0,-21
1530692394071398,53,6,0,-4,-8,-18,-10,82
1530692394072395,-58,-19,-5,19,8,-4,-8,-128
1530692394072395,-68,1,2,4,1,-1,14,81
1530692394093339,36,4,0,32,-6,-8,-21,90
1530692394093339,-27,-9,-4,-25,-2,11,18,-18
1530692394094336,19,7,2,0,0,-11,-6,58
1530692394094336,33,-5,0,-14,5,14,19,14
1530692394108299,16,5,-2,12,4,-17,2,20
1530692394108299,-77,-14,-11,-38,-15,-29,19,-68
1530692394108299,56,7,7,41,-11,-44,8,110
1530692394108299,-29,2,2,-6,4,2,-22,25
1530692394131237,27,3,3,33,5,-7,-25,34
1530692394131237,-6,-5,-3,-17,10,25,13,-75
1530692394132235,33,7,-5,-25,-28,11,12,-15
1530692394132235,24,-2,-5,-6,19,-21,-20,64
1530692394153178,3,-1,7,77,16,18,14,-48
1530692394153178,-41,-8,-7,-4,-14,-17,-17,70
1530692394154176,19,3,2,-1,13,8,6,2
1530692394154176,47,2,-1,0,-16,0,1,50
1530692394168138,-14,-3,-9,-55,-14,49,11,-50
1530692394168138,24,8,8,45,25,-32,5,18
1530692394169136,20,1,-1,-6,0,32,-23,-44
1530692394169136,17,3,-1,5,-10,-3,26,0
1530692394191077,-2,-1,-2,-20,7,-3,-29,1
1530692394191077,13,5,5,-17,-14,-14,-20,22
1530692394192075,-23,-4,-3,-16,-18,-11,22,65
1530692394192075,0,-7,1,41,0,-22,-4,40
1530692394214016,-5,-6,-5,-15,5,-12,-4,-51
1530692394214016,22,1,-2,7,-7,28,-10,-63
1530692394214016,-8,2,-2,-36,18,-19,-4,-12
1530692394214016,-7,0,-2,5,-22,-6,24,-93
1530692394227978,-3,5,3,2,-4,3,6,8
1530692394227978,2,-22,-9,8,12,4,-9,-24
1530692394228976,-1,1,-3,-11,-11,7,8,33
1530692394228976,11,7,4,1,13,6,1,26
1530692394250917,-34,-2,-3,-17,-16,-9,-12,-44
1530692394250917,-7,-3,0,3,4,7,-9,-102
1530692394251914,-39,-17,-7,-4,-8,-2,-1,-37
1530692394251914,-11,0,-4,-23,1,4,15,53
1530692394273856,57,5,-1,-3,-9,-6,12,96
1530692394273856,-13,4,1,-4,-8,4,-17,12
1530692394274853,12,2,1,-15,11,1,25,-42
1530692394274853,-2,-3,-1,-9,1,13,-14,-8
1530692394287818,-16,-1,1,6,9,-2,-9,44
1530692394287818,-12,-2,-8,-21,-14,10,4,-3
1530692394295797,51,15,14,65,27,-14,-34,43
1530692394295797,-24,-12,-7,-34,-10,5,12,-3
1530692394310757,-13,-2,-3,-13,-6,-6,-5,-59
1530692394310757,22,8,2,5,-3,13,-7,108
1530692394311754,42,2,-3,-12,-10,8,-3,-84
1530692394311754,-8,-1,2,13,7,2,-11,-7
1530692394333696,-14,-4,-5,-3,-6,-18,14,-7
1530692394333696,-3,5,0,-2,4,-1,1,-7
1530692394334693,-64,-7,-3,-6,-4,10,18,-35
1530692394334693,22,10,7,18,0,-11,-27,-39
1530692394347658,8,-3,-2,-7,1,9,25,-12
1530692394347658,-2,-10,-7,-8,-15,-4,1,35
1530692394348656,21,7,1,4,3,-7,-5,36
1530692394348656,-22,-6,-3,-4,18,24,5,-63
1530692394371594,31,-1,0,-32,-25,-38,-40,49
1530692394371594,-22,1,6,11,24,14,24,-56
1530692394371594,-3,4,6,-7,-28,2,7,20
1530692394371594,38,-1,1,42,22,-6,-3,12
1530692394393536,-2,1,-2,-6,3,20,12,-4
1530692394393536,6,-1,0,-15,-9,-16,-18,-62
1530692394394533,-16,-8,-5,10,7,22,-9,-7
1530692394394533,-2,2,-2,4,-3,-41,1,23
1530692394407499,-27,-2,-2,-27,6,11,7,-86
1530692394407499,25,-2,3,44,29,11,-7,96
1530692394415477,2,-5,-8,-22,-29,-3,27,-25
1530692394415477,8,6,1,5,6,17,-12,5
1530692394431434,-17,-6,-5,-11,-1,-37,-21,-12
1530692394431434,31,5,3,-11,-12,2,25,49
1530692394432432,63,-1,0,26,20,26,-2,-7
1530692394432432,29,-3,0,-2,-19,-7,-28,127
1530692394453375,30,2,-1,-5,-1,-5,-18,16
1530692394453375,-7,7,4,19,7,20,19,9
1530692394454373,7,-6,-1,-5,3,-8,-18,52
1530692394454373,-30,1,-5,-9,-12,3,29,-2
1530692394467338,2,1,1,20,10,12,-5,-37
1530692394467338,0,1,-3,-11,-18,-55,-24,-8
1530692394475317,-31,1,-1,-23,18,20,18,-31
1530692394475317,-23,-2,5,13,-8,-6,-22,39
1530692394491275,0,-1,0,3,-4,28,28,-15
1530692394491275,24,-1,-5,22,10,-5,-14,34
1530692394492272,-35,-4,0,19,3,-33,12,-3
1530692394492272,-21,6,1,2,-14,-11,2,-23
1530692394513216,-31,-5,-4,-11,-11,-2,47,116
1530692394513216,39,-2,-3,8,9,10,-25,-78
1530692394514213,-68,-3,0,-3,15,-4,-36,70
1530692394514213,40,-7,-15,-77,-29,-6,9,-2
1530692394527178,-36,8,15,83,-4,-4,-7,2
1530692394527178,23,1,1,-12,13,17,46,-42
1530692394535157,24,-15,-9,-10,-4,22,-26,4
1530692394535157,-36,8,2,-12,5,-4,5,-60
1530692394550117,51,-1,-6,-13,-20,-13,-14,-29
1530692394550117,-43,-12,-5,-8,2,-31,-40,-43
1530692394551114,46,4,0,8,-5,-24,5,-12
1530692394551114,-18,1,1,10,5,26,8,17
1530692394574053,-8,-2,-5,-24,-5,-4,-15,-73
1530692394574053,-40,2,3,15,13,16,6,32
1530692394574053,91,-3,-3,0,-2,0,6,0
1530692394574053,34,-5,-3,12,1,-5,6,-1
1530692394587018,15,-1,-2,-24,-17,1,5,70
1530692394587018,-48,8,1,-37,5,1,4,-63
1530692394595994,-27,6,6,29,13,9,16,30
1530692394595994,-4,-12,-5,-3,-4,-11,12,-9
1530692394610954,31,-3,0,21,21,-44,-22,-33
1530692394610954,11,-4,-3,-18,-26,-43,-24,52
1530692394610954,-34,3,-1,-18,-7,37,9,-44
1530692394610954,8,-3,3,0,-12,5,-3,-128
1530692394633893,-38,-1,-3,-8,1,21,0,52
1530692394633893,61,-4,-6,-34,-16,-54,1,57
1530692394634891,-51,7,10,58,27,27,6,-46
1530692394634891,29,2,-2,1,-11,6,-15,-20
1530692394647856,19,6,5,-4,18,0,-20,5
1530692394647856,-56,-3,-4,-20,-22,23,14,10
1530692394655834,39,-3,0,37,4,1,20,-7
1530692394655834,-48,-13,-3,-20,2,4,-2,45
1530692394670794,51,11,4,6,2,-1,1,-23
1530692394670794,-35,-6,2,19,12,19,-1,50
1530692394671792,6,-4,-9,-33,-16,-21,-14,-83
1530692394671792,-21,6,2,10,0,-3,-12,-23
1530692394693733,-5,-12,-4,5,0,-2,-5,-13
1530692394693733,7,-2,-2,7,-7,14,22,84
1530692394694730,-21,1,-2,-42,-13,-12,-18,-21
1530692394694730,45,-3,2,21,11,11,-5,39
1530692394707696,-23,-9,-2,21,11,-3,2,-10
1530692394707696,-5,2,2,8,1,16,8,-39
1530692394715674,4,-4,-6,-19,-15,-18,-18,-19
1530692394715674,-12,-1,-4,-25,-16,-14,-1,-2
1530692394730634,15,7,3,-10,26,21,1,13
1530692394730634,-26,-4,2,21,10,1,18,-49
1530692394731632,-30,-1,0,-6,-7,-10,17,30
1530692394731632,-44,-12,-9,-26,8,25,12,89
1530692394753572,11,4,6,36,-25,-43,-32,36
1530692394753572,28,-9,-5,18,-5,-6,-1,-128
1530692394754570,-21,6,7,8,20,14,30,104
1530692394754570,7,2,4,13,-4,-25,27,-7
1530692394776511,3,1,-6,-44,-10,12,-24,-67
1530692394776511,-16,5,-2,-9,-5,10,7,99
1530692394777509,9,0,1,4,-6,-19,-37,-100
1530692394777509,-3,3,1,12,9,17,5,73
1530692394790474,18,-4,-5,0,4,9,31,-3
1530692394790474,18,5,1,-6,-15,8,-15,-59
1530692394791472,-7,-7,-5,-21,0,-19,-7,-15
1530692394791472,40,6,3,23,15,-2,-21,-20
1530692394813413,-37,-5,-3,-6,9,9,3,2
1530692394813413,-7,0,-1,-20,-4,-7,6,9
1530692394814410,12,-3,-9,-27,-20,8,0,92
1530692394814410,49,1,5,52,14,0,-2,-96
1530692394836351,-62,-8,-5,-8,-14,-5,-6,68
1530692394836351,-10,1,-2,-15,-9,-11,-54,-30
1530692394837349,-1,8,2,24,22,20,33,20
1530692394837349,27,-4,0,-18,-15,-7,-20,-28
1530692394850314,-2,-2,-2,3,8,60,42,11
1530692394850314,-15,-5,-2,-6,-1,-26,-8,43
1530692394851312,21,-1,0,-3,-2,14,-5,25
1530692394851312,-2,7,4,-4,6,-15,3,16
1530692394873253,-8,0,-3,-2,0,9,-7,-32
1530692394873253,14,4,3,6,2,15,6,-4
1530692394874250,-1,-9,-7,-18,-15,-19,-21,-36
1530692394874250,-42,0,1,27,15,11,16,71
1530692394896191,17,-4,-3,-6,-6,-14,1,-4
1530692394896191,32,5,0,-8,-8,13,18,-12
1530692394897189,-58,-8,-2,12,0,-22,-10,86
1530692394897189,37,3,-7,-49,-17,7,6,-78
1530692394910154,7,0,4,40,-4,7,-10,74
1530692394910154,-18,-6,0,-1,25,-11,-9,-13
1530692394911152,-6,7,7,1,-3,-15,-9,-32
1530692394911152,-61,-8,-3,-18,-9,25,3,-2
1530692394934090,52,8,0,-27,12,-6,18,-2
1530692394934090,8,2,-3,3,2,2,1,9
1530692394934090,19,-7,-3,-13,-17,-3,-11,-14
1530692394934090,-6,-3,-5,-5,-2,-18,-3,4
1530692394956031,-53,-6,-2,-9,2,-16,-2,-93
1530692394956031,-32,0,2,3,4,19,22,5
1530692394957029,30,7,3,3,1,4,-10,-4
1530692394957029,-52,-16,-9,-5,-13,-12,-20,-68
1530692394969994,33,7,-1,-9,-11,-3,6,23
1530692394969994,-32,-2,0,-3,3,-3,20,-14
1530692394978970,39,7,3,25,-3,2,-15,-33
1530692394978970,63,1,2,10,16,3,8,62
1530692394993930,-9,-7,-4,3,-6,-8,-16,-35
1530692394993930,40,3,3,36,-3,12,16,15
1530692394994927,-11,-2,-1,-12,-7,-14,-5,32
1530692394994927,10,-1,-1,-2,11,0,-1,31
1530692395015871,-61,-10,-5,-5,0,-5,-2,25
1530692395015871,-9,-5,-4,1,1,-7,-25,16
1530692395016869,-8,-5,-4,-12,-3,29,20,-4
1530692395016869,30,8,0,0,-10,-24,-9,80
1530692395030831,12,-3,0,-8,4,-6,-6,-44
1530692395030831,-5,-2,-4,3,-11,-10,-12,3
1530692395030831,10,4,4,10,0,6,12,43
1530692395030831,-68,-8,-4,-6,14,4,-1,-76
1530692395053770,22,4,2,2,-4,1,-7,62
1530692395053770,41,3,-1,-32,-9,-1,11,70
1530692395054768,-33,-13,-6,-5,6,-3,-8,-60
1530692395054768,35,8,2,7,-4,6,9,13
1530692395075711,1,-2,0,8,-2,-1,3,-53
1530692395075711,20,5,-2,-13,-7,1,-10,-14
1530692395077706,2,-1,0,1,2,-5,-1,29
1530692395077706,-30,1,0,-18,-5,-25,2,-89
1530692395090671,17,-5,-1,-17,-13,39,-11,-7
1530692395090671,-17,-1,4,21,50,25,10,1
1530692395091669,21,-1,-2,-3,-12,0,-8,-41
1530692395091669,-1,-4,0,16,4,-5,-3,-19
1530692395113610,-26,2,-5,-21,-14,-29,9,26
1530692395113610,22,0,1,24,-8,18,-18,-84
1530692395115605,-9,-1,-2,6,9,9,-15,90
1530692395115605,5,3,1,-5,-10,-35,38,74
1530692395136548,-16,-2,0,4,5,17,-36,-62
1530692395136548,-24,-4,-3,-12,-12,-3,17,20
1530692395137546,-3,1,0,3,10,-7,3,-74
1530692395137546,24,4,1,4,-8,6,-6,100
1530692395149514,-1,1,0,3,4,-6,21,12
1530692395149514,7,-4,-4,4,0,-6,-23,-29
1530692395158490,22,9,2,-2,8,-6,10,25
1530692395158490,-15,9,6,4,1,25,-1,-52
1530692395173450,69,-3,-4,6,-5,-41,4,91
1530692395173450,-40,-11,-7,-35,-35,-8,-23,-49
1530692395175445,24,-2,0,3,-7,-12,6,-7
1530692395175445,-21,-2,3,-3,30,25,-11,-18
1530692395196388,21,-3,-1,-12,8,12,15,-36
1530692395196388,9,3,-1,-6,-14,-15,-37,-5
1530692395197386,14,-2,-7,-19,1,10,3,-47
1530692395197386,-59,-11,-5,-1,-12,-10,-12,77
1530692395210351,7,8,6,14,3,1,-12,-3
1530692395210351,-23,-8,-6,-26,-9,-18,23,-50
1530692395219327,6,3,6,13,-3,19,7,-10
1530692395219327,13,4,2,7,8,-4,1,-56
1530692395233290,-15,-6,-1,12,7,28,15,30
1530692395233290,58,5,0,-1,-4,-15,-18,44
1530692395235285,9,4,0,1,0,6,5,74
1530692395235285,14,-4,-6,13,1,0,9,-46
1530692395256229,-16,1,0,-4,-14,-6,-2,7
1530692395256229,-16,3,6,24,9,0,3,39
1530692395258223,-2,0,-3,3,4,3,9,-22
1530692395258223,-36,-12,-6,-13,-20,-5,-10,-33
1530692395270191,24,8,3,4,31,40,31,5
1530692395270191,-17,-3,4,29,8,-25,-11,-7
1530692395279168,-2,-2,-2,-17,-10,-18,-29,-66
1530692395279168,29,2,2,21,12,6,8,45
1530692395294127,-87,-14,-7,-19,-6,-11,-7,-52
1530692395294127,16,-3,-2,10,-10,9,8,21
1530692395295125,-10,2,0,7,-3,-4,12,-19
1530692395295125,13,-4,-2,-10,-4,-11,-33,78
1530692395316068,17,5,0,17,-12,-21,-8,-71
1530692395316068,3,0,0,-5,11,14,23,38
1530692395318063,-22,-6,-5,7,8,-9,1,66
1530692395318063,18,-1,-3,-5,-15,2,1,-68
1530692395330031,-44,-4,-4,0,1,25,16,42
1530692395330031,15,-6,-6,-1,2,-17,-9,4
1530692395339009,12,-2,-2,-24,-7,0,-9,12
1530692395339009,13,2,3,38,26,3,19,7
1530692395353967,-12,-1,-5,-6,-15,-3,-18,31
1530692395353967,52,0,-3,-16,4,90,39,-41
1530692395354966,-24,-17,-4,-27,-6,-61,11,20
1530692395354966,25,2,-6,-37,-23,32,-11,57
1530692395375908,-21,-11,-6,26,-17,-52,-5,-67
1530692395375908,-6,2,4,23,36,25,19,-48
1530692395377904,4,-2,-7,-35,-37,4,-16,0
1530692395377904,4,9,14,82,49,15,11,-19
1530692395389872,21,2,0,-8,-4,-26,-21,-66
1530692395389872,-21,-10,-9,-24,-16,-7,-18,-16
1530692395398848,-28,-2,0,10,12,1,10,73
1530692395398848,8,6,1,-19,-15,-16,4,59
1530692395413807,0,1,0,-14,2,9,17,76
1530692395413807,-7,-1,3,10,-13,-31,-32,-34
1530692395415802,3,5,-1,8,13,8,-17,35
1530692395415802,58,-12,-4,-19,-9,4,0,11
1530692395435748,8,10,8,14,17,10,6,70
1530692395435748,37,-7,-2,-17,-18,-17,-8,121
1530692395437743,-9,-8,-7,5,0,-1,7,-64
1530692395437743,4,4,-3,-15,-11,6,-1,32
1530692395449711,-12,-3,0,-14,4,9,-8,20
1530692395449711,0,7,5,27,11,-24,-17,-25
1530692395458687,-8,-3,-1,19,11,33,9,-48
1530692395458687,24,0,-2,15,-16,-24,0,-51
1530692395473656,8,1,1,-34,2,19,-4,70
1530692395473656,-37,2,3,12,16,-3,22,7
1530692395479631,1,5,9,23,25,45,-36,26
1530692395479631,-45,-4,-5,-23,-15,1,13,37
1530692395496586,38,-10,-9,2,-6,-11,11,14
1530692395496586,36,10,-1,-14,-18,-9,-11,94
1530692395497583,-57,-2,-1,-2,-8,-28,-28,-43
1530692395497583,44,6,4,-3,16,6,-3,-67
1530692395509551,37,-4,-1,5,-8,4,12,41
1530692395509551,-11,2,0,5,-9,-27,2,68
1530692395518527,7,4,4,3,10,-11,5,102
1530692395518527,-51,-9,-4,-14,1,10,20,-9
1530692395532490,-17,0,0,8,-7,-30,-46,-84
1530692395532490,-40,-10,-6,-39,-19,9,-2,-62
1530692395541466,-46,-6,-3,18,0,10,28,79
1530692395541466,-7,0,-3,-29,-6,-17,-2,-91
1530692395556446,28,-3,-3,-1,-1,10,-13,-21
1530692395556446,-44,-1,3,8,2,4,0,38
1530692395557424,-20,-4,-3,-2,-6,-14,4,-6
1530692395557424,16,-3,0,-23,-9,7,-16,71
1530692395569391,-17,-1,-6,-8,-9,-4,19,-13
1530692395569391,-6,9,8,2,21,14,-21,-70
1530692395579365,63,0,1,3,-8,26,27,7
1530692395579365,-30,-5,-3,0,-2,-10,15,43
1530692395592330,31,4,2,6,2,-24,-31,-1
1530692395592330,-25,-12,-7,-5,0,2,3,-75
1530692395601306,12,6,0,-3,-8,-14,-2,-28
1530692395601306,-16,1,-2,0,3,-6,-14,-12
1530692395616265,1,2,3,8,5,5,13,-54
1530692395616265,1,-4,-3,-17,-3,1,-7,89
1530692395618260,42,2,-1,-8,-4,4,-6,-124
1530692395618260,-1,7,1,3,-7,-5,5,82
1530692395630228,3,-5,1,12,8,-22,-5,-112
1530692395630228,-8,0,-4,1,-2,27,13,76
1530692395639205,63,13,2,-21,-7,-15,6,99
1530692395639205,8,-3,4,87,10,4,-11,-26
1530692395652170,-77,-4,1,-14,16,35,9,38
1530692395652170,46,8,4,2,-4,-15,-3,-4
1530692395661146,-20,-7,-3,-6,-9,-30,-17,-85
1530692395661146,12,2,-2,-12,9,6,-17,-3
1530692395676105,-51,-1,0,-8,-8,14,8,65
1530692395676105,37,3,5,65,16,1,16,-67
1530692395678101,-50,-5,-3,-10,-15,-29,-7,-75
1530692395678101,-11,-2,-2,-18,-9,-13,-6,-15
1530692395699044,19,-1,0,10,5,17,-29,62
1530692395699044,37,4,-4,-32,-4,1,19,23
1530692395700042,-12,2,1,16,2,25,-3,38
1530692395700042,-2,-1,-2,-21,-7,1,1,-91
1530692395712009,-21,-8,-7,-33,-11,-15,4,-19
1530692395712009,-41,-4,-1,4,11,4,-9,32
1530692395720985,14,5,2,7,9,6,6,-47
1530692395720985,-46,-4,-2,-9,-7,14,19,19
1530692395735945,-8,-3,-4,-15,-8,-5,-2,18
1530692395735945,12,7,4,16,13,-10,-8,-85
1530692395737940,0,-1,2,9,7,3,-15,21
1530692395737940,-21,-4,-5,-58,-8,-11,9,-9
1530692395758884,18,10,6,-4,8,26,26,-10
1530692395758884,-32,-14,-8,-44,-16,-15,-31,19
1530692395759882,42,4,1,-1,8,-9,26,13
1530692395759882,20,2,0,5,-3,-5,-23,-33
1530692395772853,-24,-2,2,24,-3,-12,0,19
1530692395772853,28,3,-2,3,9,46,21,-43
1530692395781824,-25,-6,-1,15,-6,-34,-17,20
1530692395781824,6,-3,-3,-3,-15,16,2,37
1530692395795785,-16,-1,7,38,17,-13,-24,18
1530692395795785,6,2,1,3,-21,9,25,-38
1530692395797781,37,-4,-8,-24,10,20,8,2
1530692395797781,-41,-2,2,53,17,-11,-1,-48
1530692395818724,39,1,0,-3,-4,-4,4,-21
1530692395818724,-28,3,-1,-9,-6,-11,14,23
1530692395820719,-49,-10,-3,4,-16,9,-24,4
1530692395820719,30,5,2,-22,-7,-8,-12,42
1530692395832687,41,4,1,21,17,-19,1,16
1530692395832687,35,4,3,19,5,21,14,43
1530692395841663,-6,-8,-7,-23,-10,14,26,-75
1530692395841663,-25,-4,-1,0,6,-10,-27,60
1530692395856624,-10,0,-3,-8,-22,-31,-5,3
1530692395856624,41,0,-4,-32,13,57,13,-16
1530692395857621,-7,-6,-2,-2,-3,-54,-48,-9
1530692395857621,-7,0,-1,3,6,22,38,10
1530692395878564,21,-1,0,14,1,7,-7,2
1530692395878564,-25,-2,-6,-25,-15,-34,-5,20
1530692395880559,19,5,3,7,6,27,-8,-33
1530692395880559,-15,-9,-3,-8,-2,-8,14,71
1530692395892527,7,-2,-7,-6,-19,-13,-18,-76
1530692395892527,-26,-5,1,16,7,-6,-15,45
1530692395901503,62,0,-5,-34,-10,3,24,15
1530692395901503,-2,-2,-2,3,0,-9,-9,-81
1530692395916463,-11,-1,-4,-21,-1,23,16,74
1530692395916463,-29,-8,-10,26,4,-23,-31,60
1530692395917460,-6,4,15,2,1,23,25,-54
1530692395917460,22,0,-6,-8,-10,-9,-6,19
1530692395938404,-31,-5,6,-10,-2,2,8,-13
1530692395938404,-2,2,3,10,1,-19,-15,-37
1530692395940400,4,5,-2,10,3,-18,-4,73
1530692395940400,-5,-5,-8,-28,-9,10,-4,15
1530692395952367,-13,0,1,37,11,-17,-4,-75
1530692395952367,14,-7,-7,-22,-20,-6,13,10
1530692395961343,-26,-6,-3,34,18,-4,-1,88
1530692395961343,63,5,6,-9,4,22,2,-13
1530692395976303,31,-1,-6,-7,2,-1,6,2
1530692395976303,45,0,3,5,-11,-12,-19,-34
1530692395978298,-9,1,-5,-10,-16,33,21,47
1530692395978298,-35,3,1,1,21,-27,-34,-74
1530692395998244,-3,-9,-4,8,3,2,28,28
1530692395998244,-14,-2,-4,-18,-10,-9,3,-32
1530692396000239,-19,3,4,27,16,11,-11,-33
1530692396000239,-29,-2,1,6,-19,-9,-17,-11
1530692396012207,15,9,2,20,23,18,-3,93
1530692396012207,-22,-2,2,0,-2,-4,29,-109
1530692396021183,-20,-3,-8,-17,-8,-11,11,-6
1530692396021183,-4,2,5,2,-8,6,-13,-7
1530692396036143,2,2,-2,-19,-7,-8,-4,-94
1530692396036143,-25,-8,-5,6,5,1,2,55
1530692396038141,-1,5,2,1,-1,-1,-5,2
1530692396038141,18,-7,-4,2,1,-1,10,0
1530692396059081,29,-1,-1,-9,3,8,-14,-38
1530692396059081,-45,-2,2,3,0,-12,3,84
1530692396060079,36,3,-1,-10,1,27,4,-69
1530692396060079,-35,-2,-2,10,2,-19,-13,7
1530692396072047,7,-9,-6,-13,-10,2,-2,-49
1530692396072047,13,5,2,15,9,-6,21,41
1530692396081023,-17,-4,2,-8,4,-4,-26,-47
1530692396081023,19,1,-5,-7,-5,10,6,14
1530692396095983,12,10,-1,-33,-9,0,8,32
1530692396095983,11,-5,-2,25,10,16,0,34
1530692396097978,9,-4,-5,1,-1,-16,-12,35
1530692396097978,-11,7,5,26,9,4,2,-45
1530692396118921,-31,-6,-6,-18,-16,-9,-3,82
1530692396118921,23,6,-1,-13,-11,-3,-2,-76
1530692396119919,-37,-1,1,2,-6,-12,4,77
1530692396119919,42,-6,-4,-10,0,1,-6,0
1530692396131887,-59,-3,2,9,-4,8,13,34
1530692396131887,21,5,0,-3,10,-12,-16,-56
1530692396141860,-46,-12,-5,0,-14,5,7,26
1530692396141860,11,6,4,0,6,1,-14,-5
1530692396155823,3,0,-2,0,-2,-2,-8,-89
1530692396155823,-2,-4,-1,0,1,3,0,11
1530692396157818,43,8,-2,-14,-1,4,12,24
1530692396157818,-44,-9,-3,-2,-5,-15,10,47
1530692396178761,14,-4,-1,16,0,-5,-16,-34
1530692396178761,-11,-3,-2,-27,-4,0,12,36
1530692396180756,8,2,1,15,-8,-3,-11,19
1530692396180756,-1,-3,-5,-56,-13,5,-34,-111
1530692396192724,0,1,0,26,13,0,18,78
1530692396192724,-2,0,3,-14,-1,-4,19,-9
1530692396201700,25,-2,-3,4,3,-4,3,7
1530692396201700,37,6,6,15,3,1,-17,-26
1530692396216660,-43,1,1,-8,-6,1,28,79
1530692396216660,7,-5,-7,-12,-8,-2,-36,-39
1530692396217658,21,-8,-2,-2,3,-1,16,12
1530692396217658,-5,4,0,15,3,3,9,-49
1530692396238601,21,5,1,-18,-2,2,0,3
1530692396238601,18,-6,0,7,-6,-6,1,-24
1530692396240596,-3,1,2,6,11,-1,-4,60
1530692396240596,-73,-8,-1,0,-4,-1,-1,18
1530692396252564,49,3,1,-4,3,0,-6,47
1530692396252564,-39,-4,-3,-9,-3,4,-4,-90
1530692396261540,23,2,-1,-13,-3,-1,-16,-107
1530692396261540,-22,-2,-3,-1,3,3,27,70
1530692396276500,-15,0,1,-27,-4,-2,-22,-11
1530692396276500,27,-1,-3,6,-3,-3,13,17
1530692396277498,-28,1,2,-7,-7,-3,-17,-14
1530692396277498,44,4,-1,-4,2,4,22,29
1530692396298441,0,-2,-1,-14,-6,-3,-10,-32
1530692396298441,-17,6,11,30,30,11,-19,34
1530692396300436,-28,-6,-4,4,-4,-9,3,-63
1530692396300436,24,-2,-3,11,-6,-1,4,109
1530692396312404,6,-2,-3,7,-5,-1,-5,-18
1530692396312404,-40,-7,-3,-6,-9,-2,-3,-11
1530692396321380,-1,0,0,-27,-2,-3,4,41
1530692396321380,0,2,5,39,4,5,-18,-81
1530692396336340,33,-3,-3,9,17,0,5,-33
1530692396336340,16,6,0,4,-6,-7,5,94
1530692396337338,-42,-4,-1,-3,1,-1,-5,21
1530692396337338,21,-5,-5,-14,-8,-5,0,-18
1530692396358282,-41,-9,-4,7,-4,-2,10,67
1530692396358282,3,-5,-4,0,-1,-3,0,5
1530692396360276,1,-2,0,8,1,1,0,-16
1530692396360276,22,4,1,6,1,-1,4,36
1530692396372244,7,5,2,-11,-2,2,-4,31
1530692396372244,-4,-4,0,13,-3,-1,15,47
1530692396381220,-5,1,0,10,7,2,-27,-18
1530692396381220,-11,-13,-9,-13,-2,-12,4,-10
1530692396396180,-29,-5,-3,-11,-7,4,-13,0
1530692396396180,9,4,1,-14,-2,-5,-3,-46
1530692396398175,37,6,2,30,-1,0,5,53
1530692396398175,-5,4,4,3,-1,19,-3,14
1530692396419118,-37,-2,1,6,13,-9,1,-68
1530692396419118,19,-1,-4,5,-10,1,1,68
1530692396420116,1,5,6,9,8,-4,-35,-38
1530692396420116,-11,1,1,-14,-4,3,-1,0
1530692396432084,28,2,1,7,-2,-4,-7,-48
1530692396432084,-18,-3,-3,1,3,1,6,11
1530692396441060,26,-6,-8,-15,-7,-2,2,-27
1530692396441060,6,1,2,-3,-6,-4,10,50
1530692396456020,19,2,0,-6,-1,7,-3,0
1530692396456020,-17,1,0,25,5,-1,-4,21
1530692396458015,10,-4,-4,-24,-1,2,18,21
1530692396458015,-5,1,-7,23,22,-1,1,10
1530692396478959,-18,-5,9,19,-5,1,17,-20
1530692396478959,-11,5,-4,-13,-2,-1,-32,-29
1530692396479956,-3,-4,-3,0,-18,-9,14,59
1530692396479956,-1,1,-1,7,5,-6,-8,-37
1530692396491924,-1,0,-8,-28,-10,5,-6,29
1530692396491924,23,1,7,11,6,0,-4,32
1530692396500900,-17,-6,-4,-10,4,2,5,-64
1530692396500900,-43,-5,-1,-1,-2,-4,4,-45
1530692396515860,-9,1,0,15,-1,3,5,-10
1530692396515860,7,-1,-1,-11,-6,-5,3,-106
1530692396517855,21,3,-2,-23,-26,-14,-8,-2
1530692396517855,-25,-1,4,10,34,3,0,12
1530692396538799,-6,-7,-5,-1,-7,-16,-17,-73
1530692396538799,-16,-1,-1,-11,4,0,5,57
1530692396540793,-13,0,2,11,4,3,7,-87
1530692396540793,18,2,0,-23,-19,-1,6,31
1530692396552761,-9,4,-1,4,4,-5,-14,20
1530692396552761,15,-3,5,-8,-4,0,7,-4
1530692396561737,-4,-1,-5,-1,3,4,4,25
1530692396561737,15,-4,-3,0,-6,-1,0,9
1530692396575700,10,4,0,14,10,2,-4,-15
1530692396575700,9,-4,0,1,-5,-1,-7,-9
1530692396582681,-18,10,6,5,5,-1,2,20
1530692396582681,-1,-3,-4,0,-3,-3,-3,-6
1530692396598638,-2,11,-4,-1,-3,-1,5,29
1530692396598638,-21,-11,5,-15,-8,-5,-14,58
1530692396600633,-21,-5,-5,3,0,-5,4,-23
1530692396600633,11,0,-2,-4,-7,3,0,-6
1530692396612601,14,-7,-9,-21,-21,-4,12,-21
1530692396612601,-42,5,9,66,43,6,-15,-20
1530692396621578,1,-8,-6,-5,-7,-5,-7,95
1530692396621578,31,0,0,3,-5,-3,-13,17
1530692396635540,0,-7,-4,-6,-5,2,17,34
1530692396635540,17,7,-3,-17,-5,-1,-1,-32
1530692396642521,-2,-5,-1,12,5,2,-4,-19
1530692396642521,-8,-2,-3,-9,-10,-2,3,-9
1530692396658478,-31,-2,2,4,3,2,-5,13
1530692396658478,68,-2,-7,-11,-9,-3,8,52
1530692396660473,-4,-3,-2,-3,5,0,-6,17
1530692396660473,-8,4,3,1,-4,1,2,24
1530692396681417,36,0,4,6,6,1,-4,5
1530692396681417,-18,-2,-10,-8,-8,-2,6,-35
1530692396682415,10,2,1,-2,1,4,20,100
1530692396682415,31,5,2,1,1,1,-2,-56
1530692396695380,8,-7,-1,-10,2,5,19,26
1530692396695380,48,3,-2,2,-19,-10,-34,-18
1530692396702361,-7,-1,5,8,13,-1,-18,-81
1530692396702361,-28,0,-1,13,10,-3,5,-2
1530692396718318,62,3,-5,-25,-11,-5,10,76
1530692396718318,-12,5,2,-3,4,9,21,57
1530692396720313,-3,-2,-3,-2,-7,5,30,-47
1530692396720313,-20,1,2,5,-2,-2,-9,77
1530692396741257,9,-1,1,0,7,-7,-40,-18
1530692396741257,-31,-7,-6,-11,-5,1,10,2
1530692396743252,-18,4,-1,-13,-7,3,5,-44
1530692396743252,14,3,5,27,11,7,-7,44
1530692396755220,-26,-3,-2,-1,-3,-1,8,-72
1530692396755220,-1,2,-2,-8,-1,-2,-3,-21
1530692396762201,-53,-5,1,6,3,-2,-3,29
1530692396762201,40,-5,-4,-22,-10,-5,4,-121
1530692396779156,31,-1,0,9,3,1,-14,36
1530692396779156,-27,3,0,-5,-1,-2,-5,-57
1530692396780153,55,-8,-6,-1,1,1,0,-64
1530692396780153,-24,5,7,-7,-7,-7,-10,-47
1530692396801097,-22,0,4,2,-3,-3,-2,6
1530692396801097,-21,-4,2,7,13,1,11,16
1530692396803092,33,0,-6,-8,-5,-2,1,3
1530692396803092,-33,-12,-7,-7,-5,1,12,8
1530692396815059,-12,-1,-3,5,-5,0,-5,36
1530692396815059,-2,2,0,-14,2,-6,-4,10
1530692396822041,-10,2,1,34,7,2,-13,-4
1530692396822041,9,-13,-11,-20,-9,-6,7,-17
1530692396838996,-39,-4,-2,-11,-9,-3,-1,-55
1530692396838996,19,-2,2,28,6,4,9,11
1530692396839993,7,-1,-2,-15,0,-2,0,37
1530692396839993,15,-1,-1,-2,-5,2,1,15
1530692396860937,-27,-3,0,25,11,6,2,14
1530692396860937,7,-2,-4,-15,-6,-6,-1,-61
1530692396862932,16,2,-1,-4,-2,2,4,58
1530692396862932,-19,2,2,-6,0,0,-13,-8
1530692396874900,23,2,-1,3,2,-1,5,-13
1530692396874900,7,-12,-4,-12,-6,-3,-23,-40
1530692396883876,3,6,1,5,1,1,12,73
1530692396883876,-1,3,-2,-6,-2,2,10,-45
1530692396898836,-4,16,9,5,9,0,-4,-81
1530692396898836,-10,-4,-4,-6,-9,-2,3,61
1530692396899833,49,-10,-7,-13,-11,-7,-5,6
1530692396899833,-13,-3,3,-10,3,2,-3,6
1530692396920777,5,-1,1,21,2,-3,-1,-3
1530692396920777,4,-2,-5,-22,-12,-1,2,1
1530692396922772,15,8,7,-11,15,6,2,74
1530692396922772,12,9,5,21,10,0,-5,18
1530692396934740,-23,-3,2,1,-3,0,-19,-4
1530692396934740,27,5,-3,-10,-6,-2,5,5
1530692396943716,-7,0,1,7,-2,-1,1,13
1530692396943716,-35,-5,-5,-9,-6,-4,-4,52
1530692396958675,36,0,-2,-2,8,4,27,37
1530692396958675,-4,2,3,6,-1,1,-7,-28
1530692396960670,-33,-6,-3,-2,-3,-5,-16,-119
1530692396960670,-29,-5,-5,-5,-1,-3,5,114
1530692396981614,43,0,-3,-9,-3,-1,2,-61
1530692396981614,-16,-2,-3,-8,1,-1,5,-76
1530692396982612,25,1,5,20,-1,-4,-11,-1
1530692396982612,-1,-5,-3,9,1,1,0,-28
1530692396994580,-25,-6,-3,-4,-7,-5,-6,47
1530692396994580,25,4,-4,4,3,5,10,85
1530692397003556,-3,1,2,-7,-1,-2,-8,-6
1530692397003556,6,0,1,-2,-9,-5,-5,-52
1530692397018516,-10,-2,-1,19,6,-3,11,76
1530692397018516,-10,3,2,5,7,1,-3,-38
1530692397020510,-32,4,-1,-6,-1,-2,-9,-15
1530692397020510,14,1,3,42,13,5,-7,82
1530692397041454,36,-4,-3,-7,-7,-1,-3,75
1530692397041454,-39,-1,1,3,-11,-7,-1,-70
1530692397042452,-21,0,-2,-7,0,2,-2,-14
1530692397042452,33,5,0,-5,-2,-3,6,68
1530692397054419,0,3,-2,-7,-1,-1,-6,-39
1530692397054419,-15,-6,-3,1,1,0,6,41
1530692397064393,-2,-5,-2,13,1,-1,-3,-22
1530692397064393,13,-1,-2,-13,-6,-1,6,-27
1530692397078356,-13,-6,-5,4,0,0,0,-38
1530692397078356,9,2,-1,-9,-1,5,8,90
1530692397080350,37,3,1,13,0,-3,7,-7
1530692397080350,-94,-10,-2,-8,-3,-2,-22,-25
1530692397101294,21,3,2,-30,-11,0,7,-3
1530692397101294,-1,0,5,16,17,3,-9,-53
1530692397103289,-27,4,-5,-19,-6,0,-4,88
1530692397103289,55,-6,-8,-14,-3,2,21,59
1530692397115257,-60,-7,-4,-19,-7,2,1,-44
1530692397115257,-5,-5,-3,7,-9,-3,-9,-46
1530692397124233,-14,-4,1,-10,2,-6,-12,-54
1530692397124233,24,-1,-2,-10,-2,1,10,-35
1530692397139193,-26,-1,-2,7,3,1,2,-10
1530692397139193,11,-3,-4,-8,-2,-1,-1,52
1530692397140191,-15,2,1,9,2,1,7,10
1530692397140191,6,3,1,-2,0,-1,-3,18
1530692397161134,18,-3,-1,6,3,-2,-9,-32
1530692397161134,-8,-9,-2,-9,-11,-1,5,-15
1530692397163129,0,-2,-3,-10,2,-2,-17,19
1530692397163129,24,15,5,13,4,3,-2,-7
1530692397175097,-32,-1,3,-14,-15,-2,-6,-20
1530692397175097,9,-3,-5,-14,19,6,12,20
1530692397184073,32,2,5,24,-2,2,11,64
1530692397184073,9,-5,-4,-2,3,-9,-29,-71
1530692397199033,5,-7,-7,3,2,1,-12,32
1530692397199033,20,6,5,0,-9,-2,5,-10
1530692397200030,-11,-8,-5,-17,-6,2,10,-19
1530692397200030,-8,1,2,4,0,-1,0,-12
1530692397220974,0,-1,1,5,1,-2,-1,2
1530692397220974,-6,1,0,2,-3,-4,-3,17
1530692397222969,9,1,0,0,4,4,9,32
1530692397222969,-15,-2,-1,-1,0,-1,0,-90
1530692397234937,-8,-7,-6,0,-9,2,5,4
1530692397234937,66,1,0,-6,-4,-1,-7,76
1530692397243913,-58,1,0,7,-3,-4,3,-105
1530692397243913,-46,-1,2,4,10,1,-25,-31
1530692397258873,-19,2,-2,-35,5,-2,-3,31
1530692397258873,-16,-1,0,34,-3,-4,-21,-113
1530692397259871,36,5,2,-14,-3,-5,4,93
1530692397259871,-24,-8,-1,-1,0,0,14,9
1530692397280814,35,4,1,-10,6,5,9,-26
1530692397280814,-80,-15,-7,-8,-10,-3,12,3
1530692397282809,11,4,1,-2,-4,-1,-6,-6
1530692397282809,16,-3,-5,-7,-7,-3,4,78
1530692397294777,24,6,2,11,-1,-2,-1,-27
1530692397294777,-21,-1,-2,3,0,2,4,12
1530692397303753,17,-1,0,10,2,1,-12,-6
1530692397303753,-11,-1,-1,-4,-6,1,3,4
1530692397318713,13,-5,-1,7,2,-3,1,4
1530692397318713,2,4,2,4,4,2,0,13
1530692397320708,-38,-6,-6,-46,-12,-1,2,-9
1530692397320708,64,3,8,75,15,5,6,24
1530692397341651,-28,-1,0,-3,-1,-3,-10,23
1530692397341651,-3,-9,-5,-12,-16,-2,20,-50
1530692397342649,-24,3,6,29,29,5,-23,-10
1530692397342649,39,-5,-9,-30,-15,-5,0,-5
1530692397354617,-13,2,0,0,-3,-3,-1,-5
1530692397354617,-20,0,4,7,9,10,8,63
1530692397363593,4,-12,-10,-11,-16,-8,10,17
1530692397363593,-36,5,0,-17,-8,2,-1,-37
1530692397378553,67,4,5,23,16,5,-10,-59
1530692397378553,21,5,-1,-18,-8,-8,-8,56
1530692397384537,5,-4,-4,-1,0,0,7,-59
1530692397384537,-23,-6,-3,-28,-4,-1,1,-27
1530692397401491,-13,6,4,19,2,5,7,92
1530692397401491,16,-3,-4,-4,-1,-4,2,46
1530692397402489,6,-5,-1,10,0,0,9,13
1530692397402489,-17,3,0,-32,-17,-9,0,34
1530692397414456,16,1,1,-5,-1,-4,-9,-65
1530692397414456,-37,7,8,15,20,2,-26,-13
1530692397423433,6,4,-2,-15,-2,2,9,-36
1530692397423433,25,-1,5,21,-2,-2,-15,1
1530692397438393,-3,0,-5,-19,-10,-3,19,44
1530692397438393,2,3,2,0,7,-6,-14,-63
1530692397440388,3,-2,-4,6,-4,0,-1,10
1530692397440388,13,2,1,4,4,2,3,-21
1530692397461331,-19,-3,-2,-2,-3,-2,-6,-19
1530692397461331,-19,0,-1,-3,-5,-1,-1,7
1530692397463326,71,4,3,3,0,-1,5,-32
1530692397463326,-39,-4,-4,-2,0,-1,1,1
1530692397475294,0,-2,-4,-18,3,1,-2,65
1530692397475294,23,4,1,-5,-4,3,3,-56
1530692397484270,-24,-5,-2,4,-2,1,-2,-31
1530692397484270,-10,-5,-2,-4,4,0,0,52
1530692397498233,-27,-1,0,-15,-5,-1,1,0
1530692397498233,55,0,-1,-7,2,-1,-2,37
1530692397505214,-47,-5,-4,13,-13,-4,-14,-43
1530692397505214,31,2,-2,-2,11,0,3,52
1530692397521171,-32,-10,-10,-22,-8,-4,0,-19
1530692397521171,5,1,6,27,10,-8,-19,-29
1530692397523166,-20,3,1,3,4,7,3,-22
1530692397523166,-6,-7,-10,-26,-8,-3,-2,32
1530692397535134,35,8,6,46,4,0,5,36
1530692397535134,-40,-14,-10,-25,-5,-3,-1,-89
1530692397544110,2,-7,-5,-14,-4,-8,-3,83
1530692397544110,2,0,-1,10,-1,3,5,-48
1530692397558073,-15,13,6,-1,5,1,-6,-3
1530692397558073,72,6,-5,-22,-10,-1,11,60
1530692397565054,-58,1,4,2,7,-1,-7,7
1530692397565054,72,-11,-4,-6,-7,-8,-11,-100
1530692397581011,51,0,1,7,1,3,15,94
1530692397581011,-44,2,-2,3,2,-1,-4,-18
1530692397583006,-20,-4,-1,12,-5,3,2,106
1530692397583006,37,13,5,-6,5,1,6,37
1530692397603950,13,-3,2,-1,0,5,2,3
1530692397603950,-17,-13,-8,-16,-5,-7,5,-1
1530692397604948,20,1,0,-1,3,6,-8,-36
1530692397604948,-36,1,-3,-4,-6,0,7,3
1530692397618910,-16,-5,-1,26,1,-2,-10,-95
1530692397618910,28,-6,-8,-37,-9,2,12,113
1530692397619908,18,9,4,-6,-7,-5,-2,-57
1530692397619908,-27,4,4,8,1,6,0,22
1530692397640851,43,-7,-8,-8,10,-3,-19,-121
1530692397640851,-35,1,1,16,-1,1,4,17
1530692397642847,18,-6,-5,-22,-1,-7,6,44
1530692397642847,-51,7,6,16,-1,0,-5,70
1530692397663790,38,-4,-3,-24,-14,-8,-5,-47
1530692397663790,11,5,4,12,6,0,-6,54
1530692397665785,40,5,3,24,0,-1,-3,15
1530692397665785,-59,-8,-4,-16,-3,1,9,-115
1530692397677752,10,-5,-5,-3,2,0,-1,58
1530692397677752,1,1,-2,25,-3,-5,-9,-64
1530692397684734,-1,1,0,-15,-1,-4,-1,79
1530692397684734,10,-3,-6,-12,-13,-3,4,-44
1530692397700691,-23,-2,5,6,12,0,-2,32
1530692397700691,21,0,-2,-8,-6,-1,-1,-48
1530692397702686,-1,3,3,8,4,2,-8,13
1530692397702686,-15,-4,-2,15,6,-2,-5,-2
1530692397723630,-5,0,-4,-6,-12,-7,-9,11
1530692397723630,1,-5,0,9,0,2,3,23
1530692397725625,11,1,-1,0,0,-2,3,-33
1530692397725625,18,-1,0,-3,-2,-2,-8,2
1530692397737592,-43,10,2,11,2,1,3,-31
1530692397737592,7,3,6,-2,1,3,-2,-16
1530692397744574,-24,-6,-6,-6,-2,-4,0,6
1530692397744574,36,0,-1,-19,-3,3,7,30
1530692397761529,-16,-6,-4,26,-6,1,9,106
1530692397761529,15,0,-1,-45,-2,1,-9,-105
1530692397762526,2,7,8,38,24,5,7,-12
1530692397762526,-11,-1,7,64,8,-2,-5,55
1530692397783470,-13,-14,-11,3,-10,-1,-3,-78
1530692397783470,-27,2,0,-10,-3,-4,-5,14
1530692397786462,33,-7,-5,-3,-7,-10,-2,77
1530692397786462,-52,1,-2,-15,-2,-3,4,19
1530692397798430,-45,-5,1,-7,0,-3,-14,-72
1530692397798430,16,5,4,13,-1,0,-1,-86
1530692397804414,-34,-5,-3,-11,-12,-3,2,26
1530692397804414,-1,-6,-7,-2,11,-4,-14,-99
1530692397821368,6,4,4,-30,-5,2,5,64
1530692397821368,-13,-3,-5,-14,-10,-5,-3,50
1530692397822366,-31,5,10,64,29,17,35,-21
1530692397822366,37,6,2,-6,-7,-1,-33,-11
1530692397843310,-7,-1,-1,-29,-2,-2,-17,-50
1530692397843310,2,-2,-2,29,0,-1,14,72
1530692397845305,41,-3,-2,-29,-15,-11,-23,-74
1530692397845305,5,-4,-3,11,-2,3,15,104
1530692397857272,-2,10,6,1,-7,1,2,-26
1530692397857272,24,3,1,-4,20,5,6,50
1530692397866249,37,3,4,20,13,8,-11,-128
1530692397866249,-1,-2,-7,-27,-4,-7,0,22
1530692397881208,29,5,1,-7,-5,0,3,50
1530692397881208,-46,-10,0,31,-12,-10,-17,-84
1530692397883203,-44,-2,-1,-18,5,6,5,-48
1530692397883203,11,3,1,-13,3,5,17,61
1530692397904147,17,-1,-2,3,-2,-1,2,66
1530692397904147,-41,-8,-8,-2,-7,-2,-9,-91
1530692397905145,-2,-2,-5,-19,-7,-3,-3,56
1530692397905145,-2,3,4,17,2,-4,-11,3
1530692397917112,14,-1,-1,0,3,-1,11,-37
1530692397917112,21,4,3,7,6,2,6,49
1530692397926088,-32,-7,-3,-16,-11,-8,-9,-14
1530692397926088,2,0,-2,-11,-3,1,1,-38
1530692397941048,11,0,-1,13,5,2,16,0
1530692397941048,8,-2,1,-8,1,0,-12,1
1530692397943043,16,8,-5,-11,-7,-5,-1,-4
1530692397943043,2,-5,-2,7,-1,-2,-9,-38
1530692397963987,-18,0,5,7,7,3,1,-27
1530692397963987,4,-1,-1,-2,-2,3,7,85
1530692397964985,-1,-3,-3,-12,-9,-2,10,-1
1530692397964985,20,-1,1,4,2,-1,-8,13
1530692397976952,-22,-4,-1,-2,2,-2,-6,-17
1530692397976952,-18,-3,-5,-12,3,2,14,48
1530692397985928,21,4,2,-4,-5,4,7,54
1530692397985928,0,-2,-3,-7,-3,0,7,-19
1530692398000888,-41,1,3,42,8,-4,-10,-1
1530692398000888,63,0,0,-16,-3,-2,-9,-28
1530692398002883,9,-3,-5,1,4,0,2,69
1530692398002883,15,1,-3,-22,-16,2,25,22
1530692398023827,-13,-1,-2,12,5,-6,-8,-79
1530692398023827,31,1,5,41,6,1,0,-57
1530692398025822,-35,-6,-2,-11,-2,-2,-7,58
1530692398025822,29,-1,-2,-20,-6,-1,-9,-91
1530692398037790,-4,2,-3,-25,-2,-6,-1,21
1530692398037790,0,1,-2,-15,-5,-1,-11,-31
1530692398046766,-6,-4,-1,7,1,-3,-3,-89
1530692398046766,-4,-6,-3,12,-3,-5,-9,72
1530692398060729,-24,1,-1,1,-1,3,4,9
1530692398060729,-9,1,-2,-1,0,2,6,-9
1530692398062723,7,-5,-2,-2,-5,-1,17,2
1530692398062723,-21,1,0,0,3,3,-1,-49
1530692398083667,15,-6,-3,6,5,4,12,81
1530692398083667,-26,4,2,-4,-4,-3,-8,21
1530692398085662,-14,-5,-3,8,-4,-3,-11,-48
1530692398085662,-17,2,1,2,0,-2,0,-36
1530692398097629,41,4,4,-7,3,2,9,127
1530692398097629,-38,-4,-2,-10,-3,-1,0,-10
1530692398106606,-18,2,-2,-2,0,-3,2,8
1530692398106606,44,-3,-5,-11,1,-5,-17,-12
1530692398128547,-29,-3,-3,-7,-20,-3,-11,-43
1530692398128547,8,4,8,50,28,5,12,27
1530692398130542,6,5,6,10,3,0,-17,89
1530692398130542,-2,2,1,5,6,3,18,28
1530692398143507,-3,-6,-6,-16,-12,5,-2,6
1530692398143507,7,-3,-3,-6,-5,-10,-6,-44
1530692398145502,-12,3,3,-4,1,4,5,-84
1530692398145502,17,4,4,10,2,0,5,91
1530692398157469,32,6,2,-11,-3,3,14,-45
1530692398157469,-44,-6,-2,-6,0,2,-10,38
1530692398166446,35,-2,-3,11,-1,-3,-16,-39
1530692398166446,28,2,3,-9,10,-5,11,47
1530692398181405,-17,-3,0,27,7,0,8,-7
1530692398181405,25,-3,-6,-13,-5,-7,-10,-18
1530692398182403,-7,-2,-4,-2,-12,-6,0,-1
1530692398182403,-10,-1,-1,-2,3,3,3,13
1530692398203347,-16,-8,-6,-10,2,-3,-32,-38
1530692398203347,12,1,0,11,-7,1,0,-19
1530692398205342,-5,-9,-12,-51,-20,0,11,38
1530692398205342,-12,1,7,39,24,7,-4,-58
1530692398217310,-1,-4,0,5,-7,-9,5,12
1530692398217310,2,-1,-1,-23,-3,4,3,40
1530692398226286,16,-2,-1,-13,-2,6,-5,-36
1530692398226286,-70,3,0,-1,-1,-10,-16,17
1530692398241246,50,2,0,15,0,0,6,-23
1530692398241246,-42,-6,-5,-9,-5,-3,-4,5
1530692398243240,4,4,-1,-15,-9,-2,9,73
1530692398243240,22,-2,0,9,11,6,-14,-59
1530692398264184,-21,-2,0,-1,5,-2,-8,-7
1530692398264184,13,2,1,5,-2,-1,8,-37
1530692398265182,1,-1,7,12,6,-4,-12,-107
1530692398265182,32,-2,-5,-3,-4,-4,-6,-28
1530692398277149,14,-1,-2,-10,-2,-1,0,12
1530692398277149,1,5,1,-11,-3,2,8,0
1530692398286125,-25,-8,-4,23,7,2,-4,3
1530692398286125,-1,2,-1,-17,-12,0,24,27
1530692398301085,8,6,5,27,1,-2,-23,-3
1530692398301085,0,-1,1,-19,1,3,10,1
1530692398303081,-15,-5,-4,-12,-3,-5,9,80
1530692398303081,-4,-2,-3,-15,-10,0,-1,-31
1530692398324024,-10,3,0,-2,4,5,23,25
1530692398324024,22,4,6,41,6,-7,-33,85
1530692398325022,17,2,1,2,6,-6,8,97
1530692398325022,-22,-4,-3,25,-7,-2,0,-8
1530692398336989,38,-10,-8,-21,-5,-15,-8,49
1530692398336989,-9,0,-3,-15,-6,17,7,16
1530692398345966,11,2,0,6,6,-7,-6,6
1530692398345966,-2,0,2,14,-5,-3,-7,-45
1530692398360925,-5,-1,-1,-29,-5,-3,-9,-37
1530692398360925,5,1,-1,3,2,-2,7,-4
1530692398362920,5,1,-2,-12,-4,2,-1,-93
1530692398362920,1,-2,-4,-12,-6,0,-3,48
1530692398383864,-21,-2,-4,-17,0,4,6,-32
1530692398383864,-12,-3,7,25,-2,-3,1,-93
1530692398385859,4,4,2,21,7,6,-21,-99
1530692398385859,-6,-2,-6,-3,1,-4,9,74
1530692398397827,-27,0,5,-10,-7,4,12,17
1530692398397827,38,-1,-6,-24,-13,-5,0,77
1530692398406803,45,6,5,23,29,10,16,11
1530692398406803,-64,-3,-1,-20,-4,1,3,-113
1530692398420765,-37,-4,-7,16,0,-4,-6,51
1530692398420765,22,-6,-4,-22,-10,-2,4,-9
1530692398422760,4,-4,-3,-11,-8,-1,7,-29
1530692398422760,53,-4,-5,-2,0,7,-11,59
1530692398443704,-21,1,0,-14,2,1,15,9
1530692398443704,4,3,0,12,-3,-7,-4,-69
1530692398445699,11,3,-3,-62,-16,-9,1,53
1530692398445699,-59,-4,5,5,6,14,25,-39
1530692398457667,72,7,4,34,30,5,-34,-66
1530692398457667,-4,-9,-3,-1,-4,-9,-19,26
1530692398466643,-22,-4,-2,19,3,0,3,12
1530692398466643,-11,3,-3,-27,-20,-5,3,37
1530692398480605,12,-6,-4,-14,-2,-4,-7,35
1530692398480605,19,3,0,-2,8,4,12,-52
1530692398487587,-56,0,1,11,-23,1,-15,-39
1530692398487587,100,1,1,9,19,-3,-4,-2
1530692398503544,-93,-9,-4,-7,-7,-5,2,-33
1530692398503544,-3,9,4,8,6,-2,-11,64
1530692398505539,28,-8,-3,-9,-5,1,-3,-44
1530692398505539,-60,-6,-3,27,-8,-5,-8,-37
1530692398526483,18,5,7,23,17,5,4,62
1530692398526483,39,8,-2,-17,-8,-2,-2,-88
1530692398527480,-53,-2,-1,-17,-9,-7,10,78
1530692398527480,-41,-4,1,42,22,0,-3,25
1530692398540445,-6,-6,-2,-8,-8,-3,-2,-55
1530692398540445,4,-3,-1,-6,-7,-4,3,45
1530692398547427,48,10,3,25,6,-2,-10,29
1530692398547427,40,0,1,-6,1,2,7,9
1530692398563384,-31,-5,0,-2,-8,-4,-1,-14
1530692398563384,-5,-1,-1,-6,-14,1,3,78
1530692398565379,10,-2,-3,0,9,-1,-7,2
1530692398565379,-9,8,3,21,2,-5,-21,-31
1530692398586323,50,-8,-5,-1,-1,0,12,-34
1530692398586323,-38,-9,-5,-6,4,2,2,15
1530692398588318,16,0,-2,-5,-4,-1,20,7
1530692398588318,-8,1,0,-13,-9,-9,-10,1
1530692398600285,-3,4,3,8,0,2,-6,11
1530692398600285,11,-1,-2,11,0,-2,2,-29
1530692398607267,-13,1,1,0,6,4,-5,53
1530692398607267,1,-1,0,-7,-3,-3,4,23
1530692398624221,46,1,-2,-6,-8,3,8,-29
1530692398624221,-20,0,1,-7,-1,-6,-24,-27
1530692398625219,25,8,5,44,13,4,6,41
1530692398625219,-61,-14,-7,-7,-10,-16,-11,-48
1530692398646163,55,8,7,-4,1,12,7,102
1530692398646163,-8,2,-1,10,6,-1,17,-60
1530692398648158,-30,-5,-2,26,10,-1,-22,35
1530692398648158,32,-4,-5,-32,-24,-2,0,-3
1530692398660125,-2,4,3,25,3,-7,2,9
1530692398660125,-4,-4,-4,-12,0,2,21,4
1530692398669102,-16,-1,1,-9,3,-3,-18,-32
1530692398669102,74,-4,-2,-15,-5,-2,7,67
1530692398684062,-106,-12,-8,-20,-12,-6,-18,-46
1530692398684062,16,0,-1,0,2,0,-3,16
1530692398685059,-8,0,-3,-9,-7,-2,14,-2
1530692398685059,17,-5,0,3,6,13,13,-41
1530692398706003,20,11,0,1,-2,-3,-1,101
1530692398706003,-31,-5,1,9,5,2,-5,1
1530692398707998,10,-2,-2,-5,-4,-2,-6,-9
1530692398707998,-11,6,2,-1,1,-1,-7,49
1530692398720963,50,6,-2,-19,-3,0,11,-50
1530692398720963,-54,-6,-1,37,5,-1,8,38
1530692398726947,30,-7,-4,-12,-6,0,-2,43
1530692398726947,45,3,2,-32,-9,1,-14,20
1530692398743902,-40,-2,3,-4,10,-4,-11,-71
1530692398743902,18,-6,-4,-8,-2,-3,-1,28
1530692398744899,33,2,1,1,2,8,18,36
1530692398744899,-93,-3,-3,-9,-2,-1,-1,-66
1530692398765843,19,0,-2,4,-2,-7,-15,7
1530692398765843,7,4,1,-8,-1,3,-7,-32
1530692398767837,63,4,2,1,3,-1,8,11
1530692398767837,2,0,-3,8,-3,-2,-2,-12
1530692398780803,-9,1,-1,8,-4,8,10,44
1530692398780803,-15,-5,-6,4,2,-7,0,-23
1530692398794765,-24,-11,-3,-2,-4,-7,-15,-60
1530692398794765,42,13,1,11,-5,-3,-6,17
1530692398803741,-25,-9,-4,1,-6,2,8,-62
1530692398803741,46,4,-1,-8,3,4,3,39
1530692398805736,-60,-3,0,-10,-7,-3,-7,-34
1530692398805736,-35,-5,-1,-5,5,0,3,17
1530692398826680,30,0,1,30,6,-2,6,52
1530692398826680,1,-5,-4,-8,-4,2,11,25
1530692398827678,-15,-4,-4,-11,-6,-6,-33,-75
1530692398827678,-31,-1,0,6,6,4,18,19
1530692398839645,4,-4,-5,-23,-9,0,4,49
1530692398839645,27,3,2,-16,-1,-4,-2,4
1530692398848621,-2,3,0,12,7,7,5,52
1530692398848621,27,2,1,2,2,-3,6,10
1530692398863581,-18,-2,-2,-3,-2,-2,-25,-26
1530692398863581,-8,-2,-2,-6,-5,0,3,13
1530692398865576,-19,-3,-5,-8,-7,-3,20,29
1530692398865576,5,1,0,4,3,-1,-6,-19
1530692398886520,-10,-5,-1,-6,-1,-1,14,-19
1530692398886520,27,15,9,12,2,-3,-17,3
1530692398887518,-14,-6,-2,0,0,-2,-9,-51
1530692398887518,6,-3,-2,5,0,-3,-5,62
1530692398900482,4,-2,-1,-2,-2,-3,-9,-9
1530692398900482,-11,-5,-6,-5,-2,3,14,-1
1530692398907464,38,6,2,1,-1,1,12,3
1530692398907464,-38,-5,0,-8,2,-2,-6,-105
1530692398923421,-2,-5,-4,13,-7,-5,-4,48
1530692398923421,-60,-3,3,-2,3,-1,-10,-40
1530692398925416,-4,0,-1,-1,3,5,-1,30
1530692398925416,12,1,-2,9,2,3,2,38
1530692398946360,3,7,2,11,-2,-1,2,-13
1530692398946360,-40,-10,-8,-42,-7,-1,-3,-78
1530692398947357,2,0,4,47,15,-3,-9,-23
1530692398947357,-3,4,1,-8,3,3,14,104
1530692398960322,69,-1,-5,-17,-3,1,-13,-43
1530692398960322,-4,3,1,7,-6,-4,5,-1
1530692398969299,-35,-10,-5,-43,-10,-2,15,71
1530692398969299,7,1,-2,9,3,1,-11,-65
1530692398983261,29,4,2,0,2,1,4,10
1530692398983261,-56,-3,-4,-13,-8,0,-3,19
1530692398985256,-5,0,6,-9,15,3,-1,-101
1530692398985256,19,0,3,11,-4,5,-6,48
1530692399006200,-51,-10,-5,-23,-6,-3,11,-2
1530692399006200,25,5,4,9,3,4,-9,-89
1530692399008195,-8,-4,-6,-3,-14,-6,3,-29
1530692399008195,-44,-2,0,2,9,-2,-5,-14
1530692399020162,23,1,-2,14,5,0,1,-38
1530692399020162,43,-4,-2,-22,-1,-2,-2,77
1530692399029138,-18,1,0,12,-2,6,-7,13
1530692399029138,9,0,-3,-2,-6,-3,1,-28
1530692399051080,11,-5,-5,-7,-4,-3,-5,4
1530692399051080,-2,-1,-2,11,1,0,-1,-41
1530692399053074,50,-1,-2,-12,-5,5,6,-21
1530692399053074,18,2,2,0,-4,-16,-25,88
1530692399066040,-55,-4,0,7,1,-2,11,93
1530692399066040,6,-1,1,-1,-4,-2,5,59
1530692399068035,-5,3,0,10,1,0,-10,-56
1530692399068035,-18,-5,-2,1,-1,6,13,-23
1530692399080003,14,-2,-3,-16,-8,-4,2,-17
1530692399080003,12,-3,-3,13,-9,-12,-29,25
1530692399088979,34,7,8,25,22,3,11,50
1530692399088979,-24,-1,-2,-19,-1,0,-1,-52
1530692399103939,-32,-1,0,15,-8,1,-6,-18
1530692399103939,-14,1,-2,-8,-9,0,-1,-5
1530692399104936,51,2,3,21,15,-2,9,74
1530692399104936,-33,-9,-8,-19,-10,-5,-22,-38
1530692399125880,-18,4,4,3,9,5,-2,-25
1530692399125880,1,6,6,38,-8,0,9,30
1530692399127875,-35,-4,-7,-32,-2,-7,-12,23
1530692399127875,70,3,6,32,22,14,10,-2
1530692399139842,-24,-3,-4,-20,-4,-5,-40,-112
1530692399139842,24,3,-2,2,8,-3,-17,11
1530692399148818,11,0,-5,-9,-15,-5,9,43
1530692399148818,4,1,0,-13,-8,-1,6,21
1530692399163778,-45,-2,1,3,1,-3,7,-72
1530692399163778,42,3,1,6,8,5,8,36
1530692399165773,-60,-4,-2,-2,-9,-2,-11,13
1530692399165773,21,-3,-3,-4,-2,-11,4,52
1530692399186717,60,3,0,2,0,-3,2,-19
1530692399186717,-94,-19,-6,-3,3,-3,1,39
1530692399187715,3,13,-3,-16,-13,-4,-13,-13
1530692399187715,-2,-2,1,3,5,2,4,-20
1530692399199682,12,4,2,-48,-4,1,8,71
1530692399199682,28,-1,0,43,0,-5,-11,-45
1530692399208658,-36,-5,4,37,19,7,6,-31
1530692399208658,-3,-1,-2,2,-9,-3,2,30
1530692399223618,10,4,-2,-33,-12,13,6,1
1530692399223618,-12,4,1,8,10,-11,-2,-17
1530692399225613,36,-2,-3,-21,-9,28,-5,56
1530692399225613,1,3,0,3,-7,3,24,29
1530692399246557,-4,-4,-1,12,14,44,12,50
1530692399246557,49,9,6,-12,-11,-43,-35,51
1530692399247554,-64,-20,-6,-2,-4,6,15,-52
1530692399247554,4,11,-1,-9,-5,-22,-17,96
1530692399259522,16,-1,-1,-6,-7,11,34,-6
1530692399259522,24,4,7,34,22,16,-8,-34
1530692399268498,24,-7,-9,-29,-15,-24,4,-83
1530692399268498,-44,-2,-1,11,7,7,-25,-87
1530692399283458,39,-2,-5,17,-3,-17,3,15
1530692399283458,-8,7,5,-26,-1,14,12,-38
1530692399285453,13,2,3,-13,-4,-11,1,41
1530692399285453,11,-8,-4,33,2,7,8,-128
1530692399306397,56,13,6,12,3,-13,-8,89
1530692399306397,-44,-15,-7,-13,6,5,-23,-57
1530692399307395,-46,-4,-6,-19,-11,-6,-14,-7
1530692399307395,30,5,3,-7,-5,6,17,75
1530692399320359,3,-3,4,24,10,-15,-7,14
1530692399320359,1,-7,-5,-25,-14,3,10,15
1530692399329336,24,1,1,-6,4,1,9,-14
1530692399329336,5,5,0,-1,-15,-10,-19,36
1530692399343298,-60,-9,-3,-1,14,-7,-20,-65
1530692399343298,17,-6,-6,0,1,11,34,16
1530692399345293,25,4,-2,-14,13,8,-6,6
1530692399345293,2,-1,1,-7,-7,-2,0,-5
1530692399366237,-12,2,1,3,-7,-3,2,-9
1530692399366237,-62,-6,-5,-27,-13,-5,1,15
1530692399368232,73,5,2,23,5,2,19,76
1530692399368232,-17,-15,-7,-18,-6,-3,-4,-1
1530692399380200,-22,1,-3,6,-7,-20,-15,35
1530692399380200,1,1,-1,3,18,14,0,-30
1530692399389176,11,2,1,-1,-10,3,17,23
1530692399389176,-19,7,4,16,9,7,16,-39
1530692399403138,-2,-16,-9,-26,-12,-8,-17,-83
1530692399403138,7,4,2,12,-1,0,6,73
1530692399410120,-3,6,2,17,2,-8,-9,-75
1530692399410120,-14,-8,-6,-9,3,8,-22,10
1530692399426077,-4,2,-1,-3,-3,-12,-19,-52
1530692399426077,-14,-1,4,21,8,-5,-2,22
1530692399428072,-8,-2,-1,-3,-11,-1,5,-42
1530692399428072,7,-2,-4,-54,-10,-1,5,-11
1530692399440040,35,10,11,72,32,28,16,33
1530692399440040,7,1,-4,-14,-7,-11,5,80
1530692399449016,-41,-5,2,5,1,-12,-15,17
1530692399449016,-1,-6,-4,-15,-11,-2,5,-53
1530692399462978,-1,10,2,-24,7,5,5,50
1530692399462978,9,-8,-5,2,-8,-4,-5,-81
1530692399469960,-1,-1,-2,1,-4,-9,-2,41
1530692399469960,19,-2,0,1,-1,3,0,35
1530692399485917,-26,-7,-3,-7,-1,-2,-5,-61
1530692399485917,8,3,3,7,-1,4,-5,7
1530692399487912,-14,0,1,-10,-5,-10,0,-3
1530692399487912,15,-3,-3,1,-5,-7,-5,-20
1530692399508856,-1,-8,-5,-14,-20,4,9,46
1530692399508856,32,-2,-4,-8,9,2,1,-8
1530692399509853,9,4,4,1,-2,5,-17,-19
1530692399509853,31,-2,-2,0,10,-11,13,63
1530692399522818,-10,3,5,-11,-1,-2,-13,-16
1530692399522818,15,7,6,52,0,6,10,-88
1530692399529799,3,-13,-8,-24,1,-4,-1,-6
1530692399529799,-14,2,1,18,14,1,-13,-54
1530692399545757,-4,0,0,-8,-3,-16,-3,15
1530692399545757,6,-5,-2,-15,-8,4,7,-4
1530692399547752,-2,2,0,2,0,1,-22,-42
1530692399547752,-16,-4,-1,25,-3,5,17,42
1530692399568695,1,-3,-4,-14,-1,-27,-10,5
1530692399568695,7,1,-1,-17,-3,5,-4,16
1530692399570690,-17,-1,0,3,2,6,7,39
1530692399570690,-1,0,1,-6,2,-1,-10,-45
1530692399582658,-27,-1,0,-2,-1,9,14,14
1530692399582658,2,2,-2,-11,-1,0,28,32
1530692399589640,-23,-7,-7,-3,-5,-13,-24,33
1530692399589640,12,-2,-1,-4,0,6,13,58
1530692399606594,8,-5,-1,22,-6,-2,2,-67
1530692399606594,-35,2,-2,-32,-14,-9,1,-13
1530692399607592,-1,-1,3,19,16,8,22,-12
1530692399607592,-25,0,0,-12,-3,1,-12,-23
1530692399628535,32,-3,0,34,3,1,-7,-29
1530692399628535,-41,1,-6,-30,-7,-4,-10,-20
1530692399630530,19,-7,-14,0,-11,-3,4,27
1530692399630530,0,1,10,-5,-2,-6,-14,-40
1530692399643495,12,4,0,-14,-9,2,22,74
1530692399643495,-7,-8,-4,26,19,12,3,23
1530692399649479,20,4,0,4,-1,-1,-18,-14
1530692399649479,13,5,0,12,7,-2,-4,37
1530692399666434,-37,-5,-3,-11,-5,2,-9,37
1530692399666434,26,2,1,-4,-4,-10,-13,-32
1530692399667432,-16,4,3,0,-15,-1,7,-54
1530692399667432,3,2,-1,0,17,5,24,13
1530692399688376,1,-2,-3,-9,7,4,18,29
1530692399688376,-3,-1,-1,1,9,8,18,22
1530692399690371,11,-1,4,-6,-8,-4,-76,42
1530692399690371,-11,-9,-5,-14,-11,-3,33,-26
1530692399703336,0,10,-3,-20,3,-3,-2,-32
1530692399703336,-9,-19,-4,3,-20,-16,16,60
1530692399710317,19,9,1,3,12,10,-20,-11
1530692399710317,-29,6,0,17,-2,0,20,45
1530692399726274,70,3,4,16,25,-1,-38,74
1530692399726274,18,-1,-5,-7,-8,13,-8,-84
1530692399728269,-34,-18,-7,-17,-8,-6,53,71
1530692399728269,36,6,6,17,1,-7,-51,34
1530692399749213,-9,-1,-4,-1,3,9,18,-46
1530692399749213,11,-1,0,-3,-2,-6,-9,36
1530692399750211,-10,2,1,-1,-4,-8,21,25
1530692399750211,0,1,3,22,7,8,10,-40
1530692399762178,-14,-2,-2,-5,-9,2,-18,-4
1530692399762178,5,2,2,19,6,-1,-1,14
1530692399771154,6,-9,-6,-7,8,5,-9,-74
1530692399771154,-51,-7,-8,-16,-11,2,31,-19
1530692399786114,30,8,5,4,-2,2,-5,25
1530692399786114,-28,-1,-2,-13,0,-19,-28,18
1530692399788109,96,17,7,29,-9,6,11,-17
1530692399788109,44,-3,-1,27,12,-15,-32,-36
1530692399809053,-63,-10,-3,-28,-16,1,19,-58
1530692399809053,35,3,-1,-9,12,2,-15,49
1530692399810050,-79,-1,1,-7,0,7,3,-81
1530692399810050,39,-6,-3,-16,8,2,-15,18
1530692399822018,16,20,3,14,-4,1,27,127
1530692399822018,-4,-3,3,-3,-1,4,8,48
1530692399830994,3,1,-3,-4,-3,-5,0,61
1530692399830994,-9,-1,-1,-6,-11,1,12,33
1530692399845954,-15,-10,-8,-2,5,-5,-20,-73
1530692399845954,-5,4,5,1,-1,9,1,-38
1530692399847949,-76,-4,-2,6,10,-2,7,0
1530692399847949,18,3,-2,-14,-6,9,5,-17
1530692399868892,-2,0,3,16,-1,5,-11,14
1530692399868892,-42,-4,-5,-10,-7,-7,29,-5
1530692399869890,12,-6,0,32,8,2,-3,1
1530692399869890,-49,1,0,-4,1,-10,-36,-12
1530692399882855,-53,-13,-8,-37,-38,-7,0,3
1530692399882855,5,-5,1,47,32,17,8,74
1530692399891832,8,0,4,-10,17,1,17,1
1530692399891832,-7,16,3,11,14,10,3,41
1530692399905794,28,0,1,7,-10,-22,-3,16
1530692399905794,10,-5,-6,-23,-17,-12,-25,-116
1530692399907790,-53,-5,-5,-16,-17,-15,-20,-36
1530692399907790,17,-15,-4,-10,-2,4,-2,-29
1530692399928733,-10,3,0,6,6,0,-9,10
1530692399928733,67,20,6,-5,-6,-2,-12,-45
1530692399930728,18,4,3,4,12,4,14,32
1530692399930728,-71,-16,-7,-6,-14,-5,1,-22
1530692399942695,-4,-8,-2,4,7,3,12,12
1530692399942695,11,8,5,3,-3,-12,-6,18
1530692399951671,17,-3,-6,-5,-4,8,1,22
1530692399951671,6,0,0,-5,-2,-11,-13,-10
1530692399966631,11,-5,-3,11,-1,5,3,8
1530692399966631,16,5,-2,-7,6,3,13,51
1530692399967629,-15,3,5,57,1,-5,-11,-5
1530692399967629,39,4,3,-26,-14,-2,39,-8
1530692399988573,-11,1,-3,-7,5,0,-11,-19
1530692399988573,-4,-4,-2,-4,0,1,-6,17
1530692399990567,-20,-6,-4,-3,4,3,2,12
1530692399990567,-25,-6,-5,5,-3,-2,-18,20
1530692400002536,0,-1,3,7,-1,-7,-2,30
1530692400002536,-4,-2,-4,-11,-6,4,9,2
1530692400011512,-6,5,1,-15,-11,-8,2,-5
1530692400011512,21,0,-2,0,-4,1,2,-24
1530692400026471,-8,-14,-2,-5,3,2,7,8
1530692400026471,-41,2,0,8,-3,-6,-12,-35
1530692400027469,-25,2,1,-13,-2,-7,-1,-10
1530692400027469,-22,-2,-2,2,11,1,3,-22
1530692400048412,31,17,8,4,1,8,22,-27
1530692400048412,-23,-3,2,1,0,3,-6,-29
1530692400050408,39,3,0,-6,-8,-2,1,54
1530692400050408,12,-1,-5,-4,0,0,-4,10
1530692400062375,1,-11,-10,0,2,0,-1,-6
1530692400062375,-4,4,2,-2,2,-17,-11,-19
1530692400071352,-26,-9,-2,-25,-5,-4,-6,20
1530692400071352,27,0,-3,8,-1,7,2,-34
1530692400086311,-67,0,4,1,2,-1,-33,-6
1530692400086311,14,-2,-4,-8,-16,3,7,62
1530692400088306,16,4,5,4,20,2,4,5
1530692400088306,-25,-3,4,-1,-13,-9,-3,-69
1530692400109250,11,3,0,-24,-1,-10,-13,26
1530692400109250,-20,-9,-10,-6,-5,0,-4,-37
1530692400110247,15,3,1,28,5,2,6,63
1530692400110247,13,5,3,3,-9,-1,-1,57
1530692400122215,59,4,3,-3,2,6,-11,4
1530692400122215,10,-12,-10,-11,-5,2,7,-85
1530692400131191,0,-3,-3,-15,-1,-4,-33,6
1530692400131191,24,6,4,6,2,-3,5,37
1530692400146151,-11,-11,-3,7,0,-3,1,-18
1530692400146151,10,8,1,3,-4,5,12,25
1530692400148146,-7,1,1,-7,-13,6,15,-75
1530692400148146,-10,0,4,5,-10,-23,-18,56
1530692400169090,-27,-6,-5,-5,4,-6,8,-72
1530692400169090,-20,0,5,4,12,14,21,69
1530692400170087,28,3,-1,7,-5,1,-10,-36
1530692400170087,6,6,-4,-16,-2,7,3,34
1530692400182055,25,-4,-5,-8,-3,3,6,94
1530692400182055,8,0,2,12,5,-3,11,-12
1530692400191031,-10,0,-2,-15,5,-5,-9,22
1530692400191031,-3,-1,3,13,14,2,-4,-82
1530692400205991,25,6,2,10,-10,1,9,74
1530692400205991,42,0,1,-7,-1,-1,-10,-6
1530692400211975,-2,-10,-9,-20,-9,2,-15,-63
1530692400211975,8,-4,-1,25,9,6,24,-20
1530692400228930,5,5,1,2,7,9,25,54
1530692400228930,-58,-5,-2,7,-2,-15,-31,-64
1530692400229927,25,5,5,-5,-1,5,12,64
1530692400229927,-27,-8,-7,-4,1,-9,-8,-28
1530692400241895,8,9,4,13,1,7,-22,40
1530692400241895,24,-4,0,10,3,-6,-11,26
1530692400251869,-21,0,-2,28,-10,26,29,57
1530692400251869,-13,-3,0,-13,9,-5,8,28
1530692400265831,6,-1,-3,0,-3,-13,-20,-57
1530692400265831,-50,-6,-1,-3,1,2,-24,-9
1530692400267826,10,-7,-6,-12,-1,-3,18,-21
1530692400267826,20,6,4,-1,-6,9,2,0
1530692400288770,39,-4,-4,3,0,-5,-17,-62
1530692400288770,-52,-3,-6,-17,-9,-7,1,16
1530692400290765,21,3,-3,-14,-3,-2,7,17
1530692400290765,-27,-2,1,-4,-2,2,8,-15
1530692400302732,-8,4,2,-29,-4,-4,23,19
1530692400302732,-33,-20,-9,-6,8,9,-13,-87
1530692400311709,7,0,-2,-25,-9,-13,-19,-1
1530692400311709,13,7,3,10,-16,-5,-4,70
1530692400326668,1,-9,-5,-14,-1,7,25,-2
1530692400326668,26,11,6,-11,1,9,0,50
1530692400327666,-35,-4,0,10,5,10,12,-80
1530692400327666,23,-5,-3,21,19,-17,-18,71
1530692400348609,-31,1,0,12,-18,5,-13,82
1530692400348609,4,2,1,8,-7,-2,10,45
1530692400350605,41,7,2,10,9,10,16,78
1530692400350605,-26,-7,-6,-17,-2,-2,-18,-98
1530692400362572,15,3,3,24,22,9,31,-12
1530692400362572,-20,9,6,5,-6,-11,-18,77
1530692400371549,-28,0,1,-10,-1,-2,14,18
1530692400371549,-21,-2,-2,-3,-2,10,-8,-12
1530692400385511,-93,-13,-4,-2,-7,-56,-41,-65
1530692400385511,75,9,0,-7,-2,18,2,-14
1530692400392492,58,0,2,12,11,13,33,74
1530692400392492,2,-4,-2,-3,0,-1,3,13
1530692400408450,-5,0,-1,0,-1,20,0,-24
1530692400408450,24,0,2,3,1,-49,0,86
1530692400410445,-11,-2,1,34,2,-13,-11,0
1530692400410445,5,-3,-7,-36,-5,14,11,-33
1530692400431388,51,5,-1,-7,-1,4,-7,75
1530692400431388,18,2,-1,-44,-18,-3,-14,103
1530692400432386,-74,-4,2,53,25,0,-18,-109
1530692400432386,13,-4,-3,-15,-11,-11,1,93
1530692400445351,-9,3,4,19,10,3,23,-8
1530692400445351,-46,-5,-4,-18,-11,1,-3,-70
1530692400452332,27,-4,-9,-42,-23,-6,-21,-117
1530692400452332,-80,-5,1,11,9,-7,-20,73
1530692400468290,42,6,-2,-12,-2,8,25,-45
1530692400468290,100,-2,-3,17,1,14,17,-17
1530692400470285,-10,-12,-7,-33,-10,-22,-29,-18
1530692400470285,30,10,10,67,7,37,21,0
1530692400491228,12,-2,-2,3,1,-16,-6,36
1530692400491228,13,-11,-4,4,-3,-3,13,-103
1530692400493223,-47,6,4,2,3,-2,-22,98
1530692400493223,14,-2,-8,-36,-5,-2,20,-21
1530692400505191,8,3,4,8,-10,-5,-43,-6
1530692400505191,-60,7,5,12,-8,2,15,29
1530692400512172,52,2,-1,-21,3,27,-16,-78
1530692400512172,27,3,1,1,11,6,0,17
1530692400529127,-49,-10,-9,-30,-19,5,31,-67
1530692400529127,-35,-5,7,73,37,5,-9,-14
1530692400530125,19,5,4,-14,-17,0,-8,-54
1530692400530125,45,5,0,-16,2,-8,-15,-44
1530692400551068,10,-2,-3,0,-1,0,-2,-87
1530692400551068,-2,-2,-6,-29,-1,9,16,-2
1530692400553063,-34,-1,2,6,2,-14,11,42
1530692400553063,-1,0,3,14,-2,-6,-32,-50
1530692400566028,8,-1,-3,-1,1,12,-12,-71
1530692400566028,7,2,-1,0,6,-3,-10,72
1530692400572012,-88,-15,-5,7,0,-14,-22,-51
1530692400572012,34,5,-2,-9,-7,-10,13,127
1530692400588967,65,0,5,7,3,6,0,58
1530692400588967,27,14,3,-2,5,6,8,19
1530692400589964,21,-6,-6,-4,-5,6,8,78
1530692400589964,-4,-3,-4,-16,-5,-30,1,3
1530692400610908,-46,-2,0,7,1,4,8,5
1530692400610908,4,2,1,19,17,11,6,-56
1530692400612903,43,1,-1,-2,-12,-14,-10,27
1530692400612903,-10,-4,-4,0,-5,3,-8,35
1530692400625868,-38,0,1,5,7,34,-5,-27
1530692400625868,-9,-13,-10,-58,-27,-42,-25,-24
1530692400632850,53,6,4,63,10,-25,46,45
1530692400632850,-76,-4,3,6,10,10,-15,-17
1530692400648807,31,6,1,1,20,22,3,76
1530692400648807,18,-3,-2,-1,-9,14,3,-66
1530692400650802,-6,-8,-7,-23,-9,-20,-20,57
1530692400650802,58,6,3,2,-8,21,16,17
1530692400670749,-27,3,1,11,3,-11,18,-22
1530692400670749,3,-12,-5,-5,-5,1,-17,48
1530692400672743,3,7,0,-15,-8,-3,21,-19
1530692400672743,-6,-4,-2,7,-5,9,-2,-107
1530692400685708,-1,0,-1,-11,7,-22,-14,12
1530692400685708,-65,-12,-5,0,-4,2,-10,-25
1530692400692689,-48,5,2,26,0,13,18,60
1530692400692689,-1,1,0,-22,-2,-7,-20,61
1530692400708647,25,2,1,2,-12,3,4,45
1530692400708647,2,5,5,12,15,1,11,10
1530692400710641,8,-1,-3,-29,13,3,-36,-51
1530692400710641,-3,0,-1,-19,-16,-3,15,-35
1530692400731586,-12,-1,-1,5,8,9,-2,51
1530692400731586,2,1,-2,-2,-9,-50,-4,-53
1530692400732583,29,0,0,-3,-4,10,9,21
1530692400732583,-1,1,1,-6,9,-12,7,11
1530692400744551,-8,-5,-4,-10,-12,6,9,-1
1530692400744551,-17,2,0,6,4,3,-11,-12
1530692400753527,-8,-2,2,-2,1,18,-10,-51
1530692400753527,-4,-2,-2,17,9,-6,3,48
1530692400768487,-21,-10,-3,0,-5,-20,-12,-103
1530692400768487,-3,-1,-1,-9,-10,16,6,124
1530692400770482,36,2,0,-17,3,-25,10,-26
1530692400770482,-34,-5,1,18,1,4,-24,-13
1530692400791425,7,2,-1,-6,-11,-12,-12,-28
1530692400791425,54,6,3,0,-6,22,31,27
1530692400792423,-84,-3,3,10,12,15,-3,-20
1530692400792423,50,1,-3,-1,-16,-1,-3,-40
1530692400805389,-19,-1,1,-2,13,-3,-5,7
1530692400805389,26,2,3,10,0,-11,-11,-25
1530692400814364,8,0,-2,-16,-5,3,26,40
1530692400814364,31,2,0,27,2,-6,-8,11
1530692400828327,-36,-8,-4,-11,-11,16,1,73
1530692400828327,18,-1,-2,-8,0,3,5,24
1530692400830322,52,0,-1,19,29,42,11,2
1530692400830322,-6,-2,-3,-30,-17,-35,6,21
1530692400851265,5,-3,-4,-11,2,-34,-23,32
1530692400851265,-30,-10,-4,29,3,21,-18,-15
1530692400853260,11,-2,-5,-11,-23,-37,-8,2
1530692400853260,-8,-3,0,22,8,60,24,-50
1530692400865228,5,-1,0,-9,-7,-17,19,19
1530692400865228,19,-1,-3,-27,39,-47,-17,29
1530692400874204,-43,-4,2,1,-55,-8,14,-11
1530692400874204,-12,6,5,31,21,-34,-26,-35
1530692400889164,36,4,5,52,13,25,6,-44
1530692400889164,-15,-11,-8,-17,-17,-9,10,25
1530692400890162,47,5,-1,-19,15,14,4,-84
1530692400890162,-54,-11,-7,-20,3,-9,-1,56
1530692400911105,51,8,6,-8,-11,11,24,56
1530692400911105,-85,-10,-6,7,5,-32,-1,-18
1530692400913100,38,6,1,5,2,30,-14,24
1530692400913100,28,-3,-4,-19,-13,-88,-20,-23
1530692400925068,35,7,2,29,25,38,-39,64
1530692400925068,-32,6,4,-11,13,75,37,-12
1530692400934044,37,0,0,-15,9,-33,-23,38
1530692400934044,-93,0,6,7,0,75,7,-62
1530692400949004,39,-3,-6,-40,-22,-16,-3,-56
1530692400949004,4,6,6,44,15,30,0,25
1530692400950002,-11,-6,-6,3,-11,-13,7,-27
1530692400950002,18,7,1,5,8,54,13,-8
1530692400970945,-59,-9,-3,-3,-6,-39,-5,-25
1530692400970945,61,9,1,-4,-9,26,10,81
1530692400972940,-62,-4,-1,-10,5,-29,-28,-96
1530692400972940,22,5,-2,3,1,55,50,118
1530692400984908,-13,-2,-2,5,3,-15,-9,14
1530692400984908,-76,-15,-11,-14,-16,-11,12,-50
1530692400993884,18,8,3,16,-6,-12,-20,56
1530692400993884,25,-4,1,-6,-6,-41,-7,-11
1530692401008844,-8,-2,-1,0,0,4,17,-4
1530692401008844,37,3,0,-12,-3,-25,4,-18
1530692401010839,0,-1,-3,15,0,-61,-31,37
1530692401010839,-13,-1,-3,-28,-12,67,19,33
1530692401030785,5,8,4,3,21,33,16,43
1530692401030785,111,-6,-5,-19,-15,-12,-7,-31
1530692401032780,2,1,2,39,19,58,-6,112
1530692401032780,90,-3,-7,-32,-20,-46,-28,-60
1530692401044748,-3,5,1,6,-9,11,-20,53
1530692401044748,-4,5,7,2,-15,-3,13,29
1530692401053724,-46,-3,-1,-9,4,7,7,-10
1530692401053724,44,-2,-6,-31,-5,-12,-5,-52
1530692401068684,33,-2,0,-2,10,13,4,67
1530692401068684,-26,2,0,13,-10,-13,-20,-3
1530692401070679,58,-2,-4,-17,-5,-1,25,-38
1530692401070679,-27,-1,4,1,13,-12,-1,38
1530692401091622,-9,-9,-8,0,-18,-13,6,-95
1530692401091622,-8,6,3,-7,-6,-3,-23,87
1530692401092621,-35,-6,-2,-19,4,16,16,-30
1530692401092621,-24,-6,-3,24,0,3,16,-27
1530692401104588,34,1,0,-6,2,-33,-7,-74
1530692401104588,-54,-9,-5,16,14,47,1,-108
1530692401113564,9,10,4,-13,-47,-14,-21,42
1530692401113564,-58,-5,3,57,51,-36,-1,-35
1530692401128524,-39,-5,-5,-34,-22,-25,-14,-64
1530692401128524,29,4,0,35,-12,-7,8,-56
1530692401130519,30,1,-5,-1,41,46,25,-24
1530692401130519,-3,1,2,1,-25,-9,3,6
1530692401151463,10,-8,-9,-17,-19,-35,-6,75
1530692401151463,68,-2,0,25,10,48,7,1
1530692401152460,-94,-7,-3,-20,2,-2,-5,38
1530692401152460,-19,-3,-5,-34,-17,-7,-5,52
1530692401165426,20,8,9,56,13,1,3,13
1530692401165426,41,10,2,-22,-7,-20,-21,-9
1530692401173404,14,-4,-1,6,1,-14,24,11
1530692401173404,1,-2,-4,0,11,20,8,14
1530692401188364,-4,0,-2,-13,-5,1,-4,-12
1530692401188364,15,-1,-2,-9,6,-10,7,5
1530692401190359,31,3,3,14,-2,3,-16,61
1530692401190359,2,-2,-1,-12,0,-19,-7,-1
1530692401211302,6,-2,-4,-2,-8,3,3,20
1530692401211302,67,3,4,3,4,-14,-1,67
1530692401213297,-110,-20,-9,-8,14,47,7,-88
1530692401213297,76,9,2,7,-13,-17,-16,33
1530692401225265,5,-2,0,-9,19,18,0,29
1530692401225265,-77,-4,-1,-19,-22,-27,-8,-31
1530692401234241,55,3,4,27,5,-84,-39,21
1530692401234241,18,-5,-5,9,-23,34,23,41
1530692401249201,-4,1,1,1,30,19,10,36
1530692401249201,-20,2,-3,-37,-8,-17,-6,-78
1530692401250199,-5,6,5,43,15,6,13,0
1530692401250199,-46,-14,-4,11,-6,9,-7,-10
1530692401271143,-62,-3,-3,3,-11,-56,-13,-64
1530692401271143,0,2,-1,3,2,38,24,-13
1530692401273137,34,3,-1,-27,-16,-9,-19,19
1530692401273137,2,7,3,0,10,10,4,-22
1530692401285105,-16,-6,-3,1,-3,25,23,4
1530692401285105,-33,-2,0,-1,4,-12,-13,-26
1530692401294081,-35,-1,-1,-5,-7,16,3,-22
1530692401294081,24,4,2,-5,9,-1,-8,80
1530692401308044,9,1,0,0,0,15,10,-40
1530692401308044,2,-6,-3,0,3,-1,-1,-51
1530692401315025,48,4,1,-12,-11,-2,1,113
1530692401315025,-28,0,0,15,11,-9,-17,-100
1530692401330982,-32,0,0,-8,-31,0,4,1
1530692401330982,38,2,0,-3,16,-9,-19,34
1530692401332977,-6,-6,-2,5,8,50,38,-81
1530692401332977,13,-2,-6,-12,-14,-17,-25,-36
1530692401344945,19,1,1,-10,20,-9,-10,-7
1530692401344945,2,0,-1,4,-35,-13,15,62
1530692401353921,-39,-4,3,28,33,8,2,55
1530692401353921,-42,-9,-7,-14,-4,-8,-4,-5
1530692401367884,70,19,7,12,-6,-3,-1,45
1530692401367884,-12,-16,-6,13,0,-9,-8,30
1530692401374865,50,2,-1,-32,-8,0,-1,-40
1530692401374865,31,6,2,-11,0,8,4,65
1530692401390822,-92,-17,-4,14,-5,-5,-11,-74
1530692401390822,24,5,1,-28,6,18,17,72
1530692401392818,-26,1,-1,-31,-32,-16,-1,-42
1530692401392818,-60,-10,-3,14,20,-8,-24,-94
1530692401413761,32,-2,-4,-6,3,23,4,58
1530692401413761,-33,0,1,15,5,-17,-16,-63
1530692401415756,-10,-4,-9,-36,-25,-28,-6,-40
1530692401415756,27,7,-1,-100,-41,35,12,-55
1530692401427724,-100,-10,2,65,51,-10,2,103
1530692401427724,51,-1,6,71,25,13,-16,-91
1530692401434705,-40,-6,-6,-1,4,12,15,26
1530692401434705,68,2,-3,-13,-21,-30,-17,44
1530692401451660,-35,-1,-1,-9,-12,-6,-14,-71
1530692401451660,10,-3,-3,-20,-5,1,16,49
1530692401452657,62,-1,0,10,-17,-16,-5,-41
1530692401452657,-7,0,1,16,14,2,5,41
1530692401473601,28,2,0,-6,18,20,8,39
1530692401473601,-1,14,4,-4,4,-2,-6,23
1530692401475596,31,-3,-4,-12,-11,-3,-9,-93
1530692401475596,-10,0,2,34,3,-10,6,30
1530692401487564,77,1,-1,-14,-22,-10,-2,-11
1530692401487564,-36,-3,-5,-12,-3,-3,5,19
1530692401496540,22,0,-2,15,14,-4,-7,27
1530692401496540,-12,5,3,-8,-4,-4,0,38
1530692401511500,45,2,1,-11,2,-11,-28,41
1530692401511500,-55,-1,-3,-5,-5,13,20,3
1530692401512498,-17,-4,-1,4,0,-3,11,-73
1530692401512498,-9,7,8,64,28,25,7,-9
1530692401533441,-24,-8,-9,-55,-20,-5,-9,-114
1530692401533441,105,7,1,-11,-10,2,15,95
1530692401535436,-33,-8,-6,-9,-4,-14,1,25
1530692401535436,-56,-2,3,16,10,-10,13,-4
1530692401548401,-44,-1,-2,11,-6,4,10,-57
1530692401548401,70,4,2,26,-12,7,-7,-27
1530692401555383,-21,-1,-1,-21,12,11,15,-14
1530692401555383,38,4,-1,-27,11,0,13,36
1530692401571340,28,-2,1,27,1,2,-5,75
1530692401571340,-39,-7,-5,-14,-9,-20,-16,-28
1530692401573335,55,10,4,3,5,-4,-24,52
1530692401573335,33,-7,-7,-10,-9,-1,-4,-48
1530692401593281,-70,-5,-7,-23,-24,5,25,4
1530692401593281,-70,2,6,16,23,4,-8,3
1530692401595276,51,5,3,43,9,-4,1,-40
1530692401595276,8,-3,0,4,2,-2,7,-51
1530692401608241,36,-2,-3,-9,-6,4,-26,-45
1530692401608241,-77,-11,-7,-30,-23,-9,-5,-28
1530692401615222,-12,5,3,-21,0,-2,0,20
1530692401615222,-13,0,7,70,36,-7,3,83
1530692401631180,9,2,-1,-8,-11,7,19,12
1530692401631180,-31,-7,-4,-21,5,8,8,45
1530692401633174,36,2,4,18,4,-1,-14,2
1530692401633174,-19,3,-4,-26,-28,-1,4,-4
1530692401654118,29,7,4,17,11,-2,5,21
1530692401654118,7,0,-2,4,8,-8,-1,23
1530692401655116,-43,-8,-2,0,-7,2,2,-89
1530692401655116,-3,-9,-6,-13,-16,-1,-6,33
1530692401667083,-30,2,2,3,8,1,-12,-87
1530692401667083,37,8,0,-1,19,3,18,3
1530692401676060,-9,-9,-5,-1,-19,-3,-3,22
1530692401676060,-1,-2,-4,-23,-6,-4,-12,-101
1530692401691019,3,-4,-4,-44,-34,-15,3,33
1530692401691019,3,7,13,41,31,7,2,24
1530692401693015,-32,-4,-3,-25,14,16,-1,-2
1530692401693015,-9,-9,-9,-3,-7,-8,-3,-50
1530692401713958,42,9,5,-15,0,8,-23,-30
1530692401713958,-33,-6,-4,3,-11,-3,-5,-73
1530692401714956,-85,-7,-2,23,-8,1,11,-30
1530692401714956,7,6,4,9,10,7,-1,-41
1530692401727921,-12,-5,-2,-3,-1,-9,-5,-52
1530692401727921,48,3,-2,-11,-6,-3,16,51
1530692401735899,5,3,1,2,6,0,-22,34
1530692401735899,-13,-2,-3,-13,-23,-7,-6,41
1530692401750860,38,4,4,24,14,4,11,12
1530692401750860,-10,-6,-2,-11,-4,-2,-28,5
1530692401752855,20,5,1,-6,0,-2,4,13
1530692401752855,46,-2,-3,4,-1,-2,-13,-68
1530692401773798,43,-5,-6,0,-6,-3,26,20
1530692401773798,6,-5,-8,-23,-27,-4,-8,-116
1530692401775793,-31,-1,-1,0,-2,-6,15,127
1530692401775793,-47,0,9,43,45,10,-35,-82
1530692401787761,13,-10,-4,-3,2,6,13,92
1530692401787761,0,-10,-9,-24,-7,2,-12,-46
1530692401796738,69,2,-2,-3,-17,-9,4,-31
1530692401796738,-39,-2,-4,-8,-6,-4,10,90
1530692401811697,-12,10,2,1,-6,2,-6,76
1530692401811697,7,-9,-3,21,4,-1,16,24
1530692401812695,-10,-1,-3,6,12,3,-2,-28
1530692401812695,47,4,0,-17,-12,-5,19,61
1530692401833638,-107,-9,1,13,5,-5,-39,-125
1530692401833638,24,0,2,39,18,4,18,99
1530692401835633,13,10,5,4,-5,8,-11,-38
1530692401835633,-3,-1,-1,-9,3,1,8,26
1530692401847601,59,5,4,2,-15,0,6,8
1530692401847601,-8,-3,-8,-71,4,-6,-11,-15
1530692401856577,-6,-4,0,36,10,1,5,-24
1530692401856577,-46,-1,1,-5,-13,-5,-5,-66
1530692401871537,14,-2,-6,-4,19,0,-3,70
1530692401871537,-33,4,2,-19,-7,-1,-27,-83
1530692401872534,32,-2,-3,-16,-8,-4,12,111
1530692401872534,-56,2,-2,6,-1,3,7,-29
1530692401893479,-70,-8,-2,19,4,-6,11,17
1530692401893479,34,6,1,18,-4,-8,-9,-21
1530692401895473,10,8,5,-15,-14,14,-12,12
1530692401895473,-40,-9,-1,9,17,9,12,22
1530692401916417,32,3,-1,-18,-8,16,12,39
1530692401916417,-12,-4,2,33,10,-2,11,-29
1530692401917414,37,2,2,16,7,5,23,68
1530692401917414,-15,-4,-2,-23,-5,-1,-21,-56
1530692401931377,-4,4,-1,5,7,17,9,38
1530692401931377,11,-5,-4,-20,-18,-19,23,-32
1530692401932374,9,-4,-4,-18,2,-4,0,-14
1530692401932374,36,2,3,2,1,-6,-14,-2
1530692401953318,-4,-2,-1,-6,3,0,-7,-42
1530692401953318,-5,3,3,15,-11,3,9,41
1530692401955313,31,-4,-3,0,-1,-7,1,-101
1530692401955313,58,11,4,4,-1,1,12,61
1530692401967281,-53,-15,-9,-10,-6,-9,-24,-128
1530692401967281,-8,2,0,-15,-11,-20,-22,88
1530692401976257,11,-1,1,42,8,-24,11,46
1530692401976257,-36,6,1,-6,19,38,9,31
1530692401991217,70,8,3,-18,-14,-10,-10,-12
1530692401991217,-40,-5,-3,-8,-11,7,0,-5
1530692401993212,-38,-4,-1,-12,11,-5,-11,-53
1530692401993212,63,-6,-3,22,-13,-11,-2,67
1530692402014155,-20,9,3,1,4,-12,15,96
1530692402014155,10,9,5,12,12,-10,-40,50
1530692402015153,-20,0,-4,-20,-18,2,-17,65
1530692402015153,-46,-13,-7,-19,-6,-8,-6,-128
1530692402027121,14,-1,1,9,3,8,-3,16
1530692402027121,-27,-5,-4,-4,2,16,69,40
1530692402036097,-35,-1,2,-2,-1,-3,-29,51
1530692402036097,21,9,6,4,-3,4,-10,-22
1530692402051057,34,-2,-3,5,1,-5,-18,-43
1530692402051057,11,-5,-2,-11,0,-4,-3,-128
1530692402053052,-14,-2,-3,-12,4,6,23,55
1530692402053052,2,-7,-6,-27,-31,-14,-2,9
1530692402073996,36,-2,-9,-32,5,-7,11,44
1530692402073996,-29,3,10,72,37,13,-8,55
1530692402074993,-27,-9,-2,-1,-12,6,-8,-112
1530692402074993,86,1,-5,-7,1,-12,-14,48
1530692402086961,-85,1,-3,0,-10,6,0,-18
1530692402086961,11,-2,-4,-11,-16,-8,-5,82
1530692402096934,1,0,-5,-3,5,-15,-3,-101
1530692402096934,-42,0,0,-1,-8,-10,-9,101
1530692402110897,12,-3,-1,7,16,10,17,-89
1530692402110897,19,3,0,-10,-2,3,-19,-33
1530692402112892,-54,-10,-5,-2,-7,-3,-3,46
1530692402112892,24,0,0,-3,-3,8,35,61
1530692402133835,17,-3,0,22,10,-9,-18,-33
1530692402133835,-32,3,0,-6,-8,-1,-3,-3
1530692402135830,68,-1,-4,-15,-2,1,-4,-13
1530692402135830,-27,-4,1,8,13,-2,17,5
1530692402147798,-30,1,2,9,0,-4,-12,13
1530692402147798,34,2,0,-16,-17,-6,6,-5
1530692402156774,13,2,-5,-38,-14,10,-4,57
1530692402156774,-42,-7,-3,-1,-6,-4,-2,-128
1530692402170737,4,6,12,85,27,10,21,27
1530692402170737,62,-1,-3,11,6,7,-7,5
1530692402172732,-70,-7,-6,-28,-4,-13,0,0
1530692402172732,0,2,5,12,2,18,-18,-60
1530692402193676,-19,-6,-3,-34,-13,-7,2,7
1530692402193676,11,5,3,-6,1,-8,-27,-71
1530692402195670,21,6,2,23,14,-5,14,4
1530692402195670,-30,-4,-2,-5,0,5,0,74
1530692402207638,10,1,1,-11,-6,-3,15,-2
1530692402207638,-42,-7,-6,-8,-13,4,20,53
1530692402216614,38,16,9,10,9,2,-7,32
1530692402216614,-7,4,2,1,11,-2,0,-2
1530692402230576,29,2,1,-8,-9,0,6,-11
1530692402230576,-43,-12,-5,-9,-2,-5,-29,21
1530692402237558,20,-5,-5,-7,-3,4,15,-10
1530692402237558,45,8,5,47,6,0,8,13
1530692402253516,48,4,-1,-5,1,-4,-5,6
1530692402253516,6,-4,-2,-1,-4,2,4,-39
1530692402255510,-28,-3,0,3,-8,-4,-8,-3
1530692402255510,45,0,-4,-27,6,-13,3,48
1530692402267478,-35,-7,-2,6,7,14,-2,-82
1530692402267478,7,0,1,-15,4,5,7,15
1530692402276454,54,6,8,37,19,24,20,9
1530692402276454,-24,4,0,-16,-20,-12,4,-55
1530692402290417,19,-2,-4,-27,-13,-22,-37,10
1530692402290417,-38,-7,-5,7,14,40,30,-16
1530692402297398,-19,3,6,1,-1,-9,-25,-10
1530692402297398,81,4,-2,-9,-6,10,9,14
1530692402313355,-49,-5,-2,26,5,-1,5,-34
1530692402313355,8,3,-2,-14,-12,-13,-11,-27
1530692402315350,42,-5,-3,-8,-1,0,17,74
1530692402315350,-30,-8,-4,8,8,-1,-22,-65
1530692402336294,-8,-4,-3,-7,-14,-3,-10,-24
1530692402336294,6,6,-2,-11,-10,-8,-5,-2
1530692402338289,-12,-3,1,18,8,-8,-16,-16
1530692402338289,-9,-7,-3,-11,-4,-4,-11,-18
1530692402350256,-17,-4,-3,-15,-1,1,14,64
1530692402350256,-2,-2,2,5,0,-4,2,18
1530692402357238,-42,-2,-4,-44,-14,-20,-21,-120
1530692402357238,7,-6,-2,18,-9,16,6,87
1530692402374192,43,9,2,-12,9,0,-5,-9
1530692402374192,-22,-1,0,30,14,7,31,29
1530692402375190,16,-2,-5,-19,-11,-5,-17,-8
1530692402375190,-2,-2,0,16,12,-6,7,-46
1530692402396134,-4,-4,-4,-24,-30,-6,12,39
1530692402396134,-32,-1,0,-2,17,-5,-27,4
1530692402398129,15,9,10,33,9,6,-10,7
1530692402398129,39,4,-4,-19,-10,2,-5,-70
1530692402410096,-58,-11,-3,4,1,-3,23,38
1530692402410096,11,-10,-8,-15,2,3,7,-105
1530692402417078,10,-1,1,9,1,-2,-17,23
1530692402417078,-38,12,4,0,3,-7,-17,52
1530692402434032,32,-1,0,1,-2,-1,-2,63
1530692402434032,2,5,3,-2,-6,-8,-15,-26
1530692402435030,-38,-9,-6,0,0,13,10,-7
1530692402435030,-35,-5,-2,-3,1,-3,14,17
1530692402455974,-8,-5,-3,-8,2,0,-10,-35
1530692402455974,35,5,2,15,1,-7,1,63
1530692402457969,17,-4,-2,4,-7,6,6,18
1530692402457969,-30,-2,-2,-17,5,-13,6,1
1530692402470934,-13,4,3,17,2,11,-16,-67
1530692402470934,32,0,4,-27,-21,-8,6,93
1530692402476918,-48,2,1,21,17,11,-9,-92
1530692402476918,18,-6,-5,-13,21,4,11,43
1530692402493873,-16,1,1,-10,-6,5,-8,-3
1530692402493873,-33,-1,-2,8,-8,-24,-3,-2
1530692402495867,40,-4,-7,-8,-13,-3,9,-46
1530692402495867,-41,-14,-4,0,-15,-22,-7,2
1530692402515814,21,8,1,21,12,3,-3,41
1530692402515814,12,-1,-2,-6,4,3,-10,34
1530692402517809,-10,-2,-1,-4,-5,-3,-4,4
1530692402517809,25,-2,-1,13,-1,3,15,66
1530692402530774,12,-3,-1,5,-1,-9,-3,-18
1530692402530774,-7,6,3,-3,-5,8,9,44
1530692402537755,-19,-9,-4,-1,3,-3,8,52
1530692402537755,25,10,5,2,-3,3,-14,54
1530692402553713,-33,0,-2,-5,-4,-5,-4,-45
1530692402553713,-23,-6,-3,-7,1,-2,-3,-96
1530692402555708,16,12,8,15,4,8,17,59
1530692402555708,22,-3,-5,-16,-5,0,14,-8
1530692402576651,-13,-3,1,7,4,3,-27,-40
1530692402576651,28,-3,-5,-7,-3,-8,-1,32
1530692402577649,3,1,-2,-33,-6,-14,2,9
1530692402577649,22,4,2,1,5,8,6,-40
1530692402589617,-57,-15,-9,-12,-9,-14,-1,28
1530692402589617,57,3,-3,36,2,7,5,29
1530692402598592,28,-1,-4,-27,-14,-10,-20,-52
1530692402598592,-28,0,-1,13,26,14,-9,54
1530692402613553,20,2,5,11,11,-1,17,58
1530692402613553,-6,1,4,4,3,0,-17,-23
1530692402615547,-19,-1,-8,-12,-17,-3,26,74
1530692402615547,4,-9,-7,-3,-14,-17,-35,-53
1530692402636491,10,2,1,11,-8,3,12,45
1530692402636491,-46,-10,-4,-9,-1,4,15,12
1530692402637489,33,2,3,3,15,3,-12,-105
1530692402637489,-20,-5,-4,-10,-13,-9,-34,-40
1530692402649456,46,3,0,-5,0,4,16,-40
1530692402649456,50,3,2,2,-1,0,0,-1
1530692402658432,-77,-3,-2,5,2,1,-3,91
1530692402658432,49,0,1,16,2,1,7,62
1530692402673393,11,4,1,-5,-5,-7,-20,-70
1530692402673393,10,-6,-5,-21,-2,-2,-3,19
1530692402675387,20,4,4,11,-2,-3,-4,28
1530692402675387,-8,1,-1,-39,-26,-6,-7,-125
1530692402696331,23,-1,0,20,13,7,10,89
1530692402696331,-32,1,1,0,7,7,4,-44
1530692402698326,20,0,2,-4,6,-2,6,-64
1530692402698326,28,3,1,15,17,14,21,-26
1530692402710294,-64,-6,-5,-14,-6,0,-9,-15
1530692402710294,-15,-6,-5,-14,-13,-7,-11,-52
1530692402719270,33,-1,-2,5,-9,1,5,-7
1530692402719270,-12,-2,-3,-20,-7,-1,11,22
1530692402734230,-19,-3,0,-6,-4,-6,-4,66
1530692402734230,24,1,2,11,5,0,-8,-2
1530692402735227,-23,-5,-4,2,2,1,0,32
1530692402735227,-18,-1,2,7,-3,-1,-1,-51
1530692402756171,30,5,0,0,1,1,6,61
1530692402756171,-48,-3,-1,-2,-2,-4,0,-33
1530692402758166,3,2,0,4,0,0,-7,12
1530692402758166,-7,1,2,10,1,-3,-1,14
1530692402770134,-3,3,1,-12,1,1,-2,-79
1530692402770134,-4,-1,0,4,-3,-2,-2,76
1530692402779111,31,-4,-5,5,4,-4,0,-62
1530692402779111,-25,2,1,6,2,0,7,111
1530692402794070,-22,-10,-6,-33,-21,-7,8,61
1530692402794070,19,-3,-7,-46,-9,-7,-16,63
1530692402795067,13,1,7,35,34,6,-7,-55
1530692402795067,4,5,3,-4,-1,3,13,75
1530692402816011,44,5,1,-1,3,-1,-2,34
1530692402816011,-56,-8,-5,-19,-13,0,13,11
1530692402818006,0,-8,-4,-9,-10,1,-1,-57
1530692402818006,44,-2,-1,6,2,-7,0,25
1530692402829973,-4,11,3,-3,3,4,-7,-58
1530692402829973,29,-6,-5,10,4,-1,-1,-11
1530692402838950,-40,-4,-2,-2,-4,-1,11,13
1530692402838950,-12,-9,-3,6,-7,-1,-1,-30
1530692402853910,-32,-3,3,14,-6,-5,-4,-25
1530692402853910,27,10,4,21,27,5,-3,-10
1530692402854907,19,-3,-4,-15,-16,-10,-2,47
1530692402854907,-25,-2,0,8,-6,10,11,-72
1530692402875851,30,2,1,-26,-11,-6,0,10
1530692402875851,-55,-6,1,16,10,12,-6,66
1530692402877846,68,1,-8,-45,-13,-9,0,57
1530692402877846,6,2,5,40,24,-4,-22,-63
1530692402889814,9,1,3,31,5,-1,23,25
1530692402889814,22,7,1,2,-2,0,10,-65
1530692402898790,-7,-10,-5,-24,-11,-4,6,112
1530692402898790,-14,0,-4,-15,-14,-6,-8,17
1530692402913750,-10,5,6,12,12,8,11,-22
1530692402913750,50,2,-3,-16,-11,-11,-9,-2
1530692402915744,15,7,4,27,4,4,-13,-54
1530692402915744,32,-1,-1,-8,-3,3,1,-4
1530692402936689,-14,-8,-5,3,3,-1,-15,-65
1530692402936689,6,6,7,5,0,-3,-2,49
1530692402937686,-8,-4,-5,1,2,0,-8,-40
1530692402937686,-18,1,4,2,-8,7,-5,-3
1530692402949653,41,1,-2,-18,0,-3,-8,-61
1530692402949653,-45,-3,-1,6,-7,8,-3,10
1530692402958630,6,3,3,-9,3,-3,8,38
1530692402958630,-13,-4,-1,-21,7,-12,5,-72
1530692402973590,-36,-4,-5,28,3,8,-12,-36
1530692402973590,12,6,7,23,14,4,9,-18
1530692402975584,-29,-1,-1,1,0,-7,-12,-16
1530692402975584,16,-4,-3,4,-1,2,-5,-47
1530692402996528,64,10,0,-8,-10,-3,18,122
1530692402996528,-64,-16,-6,-2,-2,-2,-20,-29
1530692402997526,-27,6,3,7,-2,-12,0,12
1530692402997526,-3,2,2,8,-4,-1,-1,39
1530692403009494,20,1,-2,-9,16,8,-5,-36
1530692403009494,13,-5,-2,0,4,6,9,-128
1530692403018470,-31,0,2,7,-1,4,-6,-11
1530692403018470,3,-1,-3,-10,-4,-4,1,22
1530692403033430,-8,-7,0,16,-4,-9,11,3
1530692403033430,-19,-1,-4,-12,-10,-12,-22,-47
1530692403035425,-11,-3,2,15,11,8,11,41
1530692403035425,-21,0,-3,-20,-8,-3,1,28
1530692403056368,-9,-3,-3,27,-4,3,4,83
1530692403056368,8,2,2,0,7,1,20,61
1530692403058363,27,3,-7,-45,-25,-13,-11,-5
1530692403058363,35,-4,5,94,42,29,24,73
1530692403070331,1,-7,-2,-43,-14,0,-21,-65
1530692403070331,20,7,3,8,2,-11,-8,15
1530692403079307,-2,-1,-2,-8,-7,9,13,12
1530692403079307,-31,-3,-4,-34,-14,-9,0,1
1530692403093270,26,1,-1,11,5,-6,-16,-77
1530692403093270,17,0,0,-7,-7,2,20,1
1530692403095264,4,-8,-4,1,-17,0,2,-11
1530692403095264,4,-1,-3,-9,25,4,-5,46
1530692403116208,10,0,2,3,-1,2,0,48
1530692403116208,14,1,-4,-11,-11,-5,-1,-54
1530692403118203,-27,-6,-1,12,5,-6,-14,-21
1530692403118203,-15,0,0,-1,-12,-10,-6,-33
1530692403130171,1,-2,-5,-27,-10,-3,-8,20
1530692403130171,49,0,1,25,10,-1,-7,90
1530692403139147,-28,0,4,9,-3,2,20,11
1530692403139147,14,3,-1,-37,-1,7,-20,-7
1530692403154107,-62,-6,-3,28,11,-4,9,61
1530692403154107,-6,-4,-5,-4,-9,-1,15,1
1530692403155105,14,-1,-2,2,9,4,-12,-1
1530692403155105,20,3,-2,-23,-21,-12,2,-28
1530692403176048,-14,1,3,-4,7,8,9,-4
1530692403176048,9,-3,1,-3,3,6,2,26
1530692403178043,-10,-1,-2,4,10,0,9,80
1530692403178043,24,0,-6,-50,-42,-19,-5,57
1530692403190011,-19,0,5,60,30,-14,-21,-84
1530692403190011,25,3,-2,-1,5,5,-10,2
1530692403198987,4,1,1,-8,6,3,12,-22
1530692403198987,-4,-3,0,17,6,-2,-30,53
1530692403212949,34,1,-5,-32,-26,-3,11,98
1530692403212949,-1,7,6,-1,-4,-5,-3,-22
1530692403219931,-29,-11,-8,5,1,-8,-9,-13
1530692403219931,14,4,1,4,0,1,-7,-27
1530692403235888,-19,-9,-4,-11,-3,-1,7,17
1530692403235888,42,9,-1,-13,-5,0,-9,-14
1530692403237883,-52,-5,1,6,0,-1,-5,-66
1530692403237883,-17,-2,-1,16,11,1,3,-99
1530692403258827,11,-3,-5,-24,0,3,2,-23
1530692403258827,-27,-3,0,1,-1,-1,3,23
1530692403260822,8,-1,-6,-36,-16,-14,-1,-25
1530692403260822,-35,-4,2,30,17,9,-2,37
1530692403272789,17,1,-1,-4,2,2,0,33
1530692403272789,-41,-3,0,-4,-10,-6,10,-43
1530692403279771,28,3,-1,2,6,27,0,-19
1530692403279771,14,-3,-4,-8,1,-4,28,68
1530692403296725,-2,3,1,-2,-8,4,14,36
1530692403296725,-7,-16,-10,-14,25,-12,-33,78
1530692403297723,15,5,5,13,-5,1,10,-2
1530692403297723,0,0,0,-5,-2,-3,9,-77
1530692403318667,15,-5,-1,-1,-11,1,-16,0
1530692403318667,4,4,1,-4,-12,-1,4,-61
1530692403320662,-7,14,8,8,10,-3,-8,-86
1530692403320662,-23,-7,-4,31,-1,-1,-4,-31
1530692403332629,16,-5,-4,-26,-8,-8,5,-28
1530692403332629,-26,-1,1,24,2,1,-11,-30
1530692403339611,0,5,3,2,8,1,-4,83
1530692403339611,13,4,0,-11,-21,-1,13,22
1530692403356565,-3,-2,-1,22,25,1,-14,-43
1530692403356565,36,2,1,-3,-4,1,4,98
1530692403357563,13,-2,-2,8,-1,4,8,5
1530692403357563,-23,1,-2,-6,-6,-5,9,2
1530692403378507,-7,-2,-3,-24,-3,-1,-8,55
1530692403378507,15,5,7,27,1,-3,1,8
1530692403380502,34,2,-1,-12,-7,-4,0,50
1530692403380502,-17,-4,-2,-5,-2,-5,-7,65
1530692403393467,19,2,-1,0,-4,-11,-1,-10
1530692403393467,-16,-5,-2,1,1,15,11,-19
1530692403400448,-49,-6,-4,7,-4,-12,10,-14
1530692403400448,60,3,1,-3,32,15,-6,-30
1530692403416405,0,-3,-1,21,-17,-9,-12,-76
1530692403416405,-78,-9,-3,-28,-16,-4,-2,-69
1530692403417403,29,-3,-4,-1,-7,-12,-11,-39
1530692403417403,-7,2,3,-2,-3,-1,-7,53
1530692403438347,-22,-5,-3,-19,3,-1,-2,82
1530692403438347,-32,-3,-2,-9,1,10,23,-40
1530692403440342,4,-2,0,-1,0,3,-4,26
1530692403440342,-18,1,1,-1,-7,-14,-20,6
1530692403453307,9,8,4,0,0,4,5,54
1530692403453307,-2,-9,-8,1,-2,-1,16,54
1530692403460288,-17,-5,1,9,3,1,-7,-1
1530692403460288,26,-5,-5,-8,-3,2,-6,-40
1530692403476245,-6,0,0,19,2,0,-3,-119
1530692403476245,-17,0,-1,1,0,-4,-4,39
1530692403478240,2,-2,-4,-14,-8,-4,-3,-4
1530692403478240,1,3,2,11,-8,4,15,6
1530692403499184,10,3,0,-9,20,16,8,-25
1530692403499184,-10,1,2,8,0,-9,-25,-88
1530692403500181,-1,0,-2,-20,-6,-1,14,30
1530692403500181,-28,0,1,37,0,6,-18,4
1530692403513147,-55,-4,-1,-13,-9,-8,6,3
1530692403513147,23,3,1,-1,-7,1,-1,-3
1530692403520129,54,6,4,9,34,2,11,70
1530692403520129,-48,-9,-6,-3,-3,-1,-7,-12
1530692403536086,1,-8,-5,-17,-13,-2,-10,-109
1530692403536086,52,6,0,7,1,-3,9,9
1530692403538081,-20,0,0,2,-10,7,4,41
1530692403538081,38,8,2,-20,-1,-6,5,-92
1530692403559024,-18,-3,1,6,2,-1,7,49
1530692403559024,30,7,0,-9,-7,-7,-30,-4
1530692403560022,19,2,3,-1,0,6,-19,-33
1530692403560022,-6,2,4,16,6,0,4,14
1530692403571989,-50,2,-2,15,7,-1,-5,-46
1530692403571989,4,-7,-4,-7,3,1,8,32
1530692403580965,40,1,-3,-13,-9,-7,8,17
1530692403580965,-20,-8,-5,-25,-3,-3,1,99
1530692403595925,-39,-8,-8,-2,-9,-3,15,-76
1530692403595925,11,4,3,5,6,9,-7,-21
1530692403597920,-32,-5,2,17,5,-10,-11,-5
1530692403597920,17,-8,-6,-19,-15,-11,-6,-47
1530692403618864,16,5,-2,-4,10,8,1,-7
1530692403618864,41,-3,1,4,1,-5,-5,35
1530692403620859,-4,-3,-3,-7,-10,1,-8,-61
1530692403620859,-3,2,2,9,5,-1,2,14
1530692403632827,55,1,-3,-36,-11,-4,-7,-72
1530692403632827,-23,-4,0,46,22,6,5,44
1530692403641803,27,4,1,7,-5,3,0,34
1530692403641803,-14,-6,-5,-9,1,-1,0,-92
1530692403656763,26,-2,1,19,-5,-1,7,85
1530692403656763,20,-3,-6,-36,-7,-1,-7,3
1530692403657760,-85,-12,-7,-3,-4,-2,-5,-8
1530692403657760,22,10,5,10,3,1,7,39
1530692403678704,26,5,0,-12,-6,-9,-14,2
1530692403678704,-101,-12,-4,-12,-9,-4,-3,-43
1530692403680699,37,5,-2,9,6,1,6,40
1530692403680699,51,-1,-4,-5,-2,-1,-2,-7
1530692403692666,-83,-12,-4,-1,-15,-3,-4,-6
1530692403692666,43,2,-5,-3,5,-1,11,5
1530692403701643,-11,-1,5,11,5,0,-5,-2
1530692403701643,-6,-1,-4,-11,0,10,11,66
1530692403716602,40,10,4,-1,-3,-8,-13,21
1530692403716602,-38,-2,1,11,5,-2,0,-64
1530692403717600,-23,-2,-3,-15,-8,-7,1,56
1530692403717600,-22,0,1,18,10,14,-3,-30
1530692403738544,19,4,2,9,5,9,14,25
1530692403738544,5,-1,2,17,3,2,-22,30
1530692403740539,8,-1,-1,13,8,-1,-2,-128
1530692403740539,9,3,2,-16,-1,-10,5,61
1530692403752506,-24,2,-2,4,-3,2,7,25
1530692403752506,55,5,1,-11,-2,-8,14,74
1530692403761483,25,-1,-1,-3,-4,5,4,-63
1530692403761483,13,-8,-7,-4,-11,-9,-13,-42
1530692403776442,36,3,5,6,10,7,4,68
1530692403776442,-30,-1,-5,-15,-19,-7,9,80
1530692403777440,-6,1,3,-1,-2,-5,-18,-12
1530692403777440,6,-6,-3,-2,-1,4,15,5
1530692403798384,67,-6,0,5,14,-2,-7,11
1530692403798384,-27,3,3,-2,0,2,-1,-48
1530692403800379,9,-3,-6,-6,-6,-5,-13,-56
1530692403800379,-2,6,3,4,-3,-6,-1,56
1530692403812347,-41,-6,-2,-2,-3,-15,-21,-67
1530692403812347,-11,-8,-1,-9,-10,-9,-7,-27
1530692403821323,14,1,-2,-19,-6,6,19,7
1530692403821323,-49,0,0,12,17,1,-18,-21
1530692403836282,38,3,1,-4,-3,11,0,-37
1530692403836282,19,2,-3,-1,10,2,12,-24
1530692403838277,-32,-4,-6,-27,-17,-5,8,-17
1530692403838277,19,-1,-1,10,-4,-7,-20,-47
1530692403859221,-10,-2,0,-5,-4,8,12,65
1530692403859221,-19,2,2,17,6,0,5,-43
1530692403860219,-4,-1,0,4,7,0,-8,-17
1530692403860219,-41,0,1,-2,-1,2,12,-62
1530692403872186,-31,-4,-1,1,-3,-1,-5,15
1530692403872186,35,-3,-5,-8,-10,-14,-1,-14
1530692403881162,-38,-5,-1,8,0,8,5,-23
1530692403881162,40,1,-3,-2,10,2,-9,21
1530692403896122,-17,1,2,2,-1,3,-7,-8
1530692403896122,-29,2,2,4,-1,0,6,68
1530692403898117,10,3,-4,0,2,-3,-6,31
1530692403898117,-27,-3,5,-9,-15,-4,-4,-102
1530692403919061,45,1,-6,-12,1,0,14,88
1530692403919061,6,-2,2,-23,-1,2,6,73
1530692403920059,-4,11,5,8,4,2,-27,33
1530692403920059,69,5,0,-35,-8,6,-8,-2
1530692403932026,-74,-5,-1,13,2,-9,5,1
1530692403932026,38,-7,-5,45,13,-1,-7,-32
1530692403941002,5,-2,0,-23,-17,-6,5,-26
1530692403941002,-9,-1,-1,18,17,5,5,28
1530692403955963,7,2,-1,1,-9,0,10,27
1530692403955963,-2,-5,-4,-18,-11,5,-10,62
1530692403957957,-4,-2,2,8,-1,-6,-13,22
1530692403957957,-5,-3,-8,0,-4,-7,16,44
1530692403978901,1,-3,-1,-6,-1,-1,-1,-47
1530692403978901,-7,-1,-2,1,1,1,-5,15
1530692403979899,29,-17,-6,-1,0,-1,-3,-16
1530692403979899,-19,8,1,-3,-8,-4,-1,-17
1530692403992864,8,-44,-8,4,1,-6,2,19
1530692403992864,15,31,-12,-19,-7,0,9,28
1530692404001840,19,73,58,24,10,-4,-13,20
1530692404001840,-32,-23,-12,-2,-4,-2,2,13
1530692404016800,-24,5,-10,-14,3,-4,7,-14
1530692404016800,37,-22,3,38,-8,-1,-15,-48
1530692404017797,-21,-12,-15,-24,4,3,13,43
1530692404017797,60,7,4,47,15,2,0,35
1530692404038741,-22,-13,-2,33,-1,-3,-24,-31
1530692404038741,13,1,-1,-16,-7,0,-8,-26
1530692404040736,-3,-7,-8,8,-8,0,15,-85
1530692404040736,2,-1,-1,-17,-9,0,1,79
1530692404052704,4,-2,-5,-23,18,1,3,5
1530692404052704,-10,11,11,-8,-3,0,-2,60
1530692404061680,-39,-20,-10,12,6,0,-2,-25
1530692404061680,-39,-8,-4,-23,-4,2,8,3
1530692404076640,30,16,7,1,-4,-8,-3,16
1530692404076640,-14,0,-1,-5,0,-2,6,-102
1530692404077637,-12,-20,-11,-10,2,-3,-10,69
1530692404077637,25,5,-2,5,-14,-9,2,46
1530692404098581,-18,11,8,-16,-9,0,-19,-56
1530692404098581,31,0,6,49,31,6,-2,26
1530692404100576,24,-6,-9,1,-11,1,-2,-8
1530692404100576,-6,-2,-2,-11,-8,0,5,3
1530692404112543,-28,5,-2,-1,-5,3,-3,-48
1530692404112543,1,-3,0,-32,-2,0,12,5
1530692404121520,1,2,9,50,25,-12,-25,1
1530692404121520,-69,9,3,-11,-4,0,-13,-54
1530692404135482,40,-2,-3,-10,-9,1,3,27
1530692404135482,-60,-1,-6,-28,-15,3,36,10
1530692404142464,23,-2,0,0,9,3,-5,-5
1530692404142464,27,-6,-1,30,3,-3,-16,25
1530692404158421,14,2,1,11,22,2,0,84
1530692404158421,-14,-6,-5,-10,-11,-3,-15,-30
1530692404160416,24,4,1,-16,-11,1,4,22
1530692404160416,-6,-3,-2,-8,-5,0,8,-39
1530692404181360,-20,-3,0,-6,-1,-7,10,28
1530692404181360,14,4,3,2,-2,-7,-53,-32
1530692404183354,-1,-4,-9,-17,2,-2,-5,28
1530692404183354,13,-3,2,-2,3,3,26,90
1530692404195322,-7,11,6,5,-1,8,-10,-76
1530692404195322,19,-9,-5,0,-5,1,5,-17
1530692404202303,-1,-4,-5,0,-3,-3,2,-13
1530692404202303,60,12,6,-2,5,-1,0,3
1530692404219258,-45,-2,-1,17,-2,2,17,-26
1530692404219258,2,-3,-4,-10,-8,-1,1,-2
1530692404220256,-21,-7,-5,-5,4,4,7,92
1530692404220256,-9,-7,-6,-2,-2,-4,2,24
1530692404241200,39,9,4,0,-7,-4,-3,-3
1530692404241200,-51,-5,-1,0,12,4,4,-31
1530692404243194,6,-7,-3,2,-6,3,19,87
1530692404243194,-28,6,2,-7,-3,0,-4,-102
1530692404255162,-31,-3,-1,-3,-1,-5,-6,51
1530692404255162,57,-4,-5,-1,-3,-2,-11,48
1530692404262144,-52,-2,-2,-25,-6,-2,20,-54
1530692404262144,14,-1,3,-18,2,4,-20,-33
1530692404279098,-22,-13,-5,2,-3,6,6,20
1530692404279098,28,15,1,2,-2,-4,-20,-9
1530692404280096,-10,0,6,-3,-4,-3,27,34
1530692404280096,-20,-5,0,21,9,5,-31,-41
1530692404301039,58,-1,-6,-3,-3,-1,17,101
1530692404301039,-80,-12,-3,-11,-15,-3,-1,30
1530692404303035,24,0,-3,-11,-3,-4,-3,-13
1530692404303035,-9,0,1,8,12,1,-4,-25
1530692404315999,77,1,-1,3,-2,-2,-3,-35
1530692404315999,22,3,1,2,-4,4,9,-11
1530692404321984,-21,0,-1,2,-1,-2,-7,-77
1530692404321984,47,-3,-2,-7,-1,5,10,102
1530692404337941,-34,-7,-7,3,-15,-2,24,-5
1530692404337941,-2,8,5,-5,16,1,-26,31
1530692404346917,6,-3,-1,13,19,8,-8,67
1530692404346917,-10,-8,-4,-8,-4,-3,1,-51
1530692404360880,-12,16,7,-2,-3,-4,2,-14
1530692404360880,3,-1,3,3,-5,1,14,-3
1530692404362874,6,-3,-1,11,4,0,1,-1
1530692404362874,-13,2,-1,0,-6,-3,-7,17
1530692404375840,-51,-4,-5,-29,-2,-4,20,-22
1530692404375840,27,0,3,27,7,0,-7,-96
1530692404382821,35,5,-2,-6,0,3,-8,-21
1530692404382821,-40,-7,-3,-4,-8,-10,1,12
1530692404398778,15,2,2,0,1,-1,-16,-5
1530692404398778,-10,-4,-4,-8,2,0,9,-55
1530692404400773,7,-1,-3,-3,-9,-4,-11,-63
1530692404400773,-2,2,3,2,-12,-4,10,33
1530692404421717,14,-4,-3,3,6,1,-5,33
1530692404421717,-17,-5,-2,-6,-2,-5,-16,-3
1530692404422714,12,6,-1,6,-10,-5,11,25
1530692404422714,-10,-2,-2,1,4,-2,5,-22
1530692404435679,37,3,1,-1,1,1,-10,-19
1530692404435679,-22,-10,-5,-17,1,-2,12,-8
1530692404442661,-15,-4,1,-3,-1,-7,11,5
1530692404442661,-4,-4,-4,11,-4,-1,-13,-18
1530692404458618,-24,2,1,4,-4,-11,-17,-28
1530692404458618,31,-6,-3,9,-2,-3,19,-34
1530692404460613,-21,4,1,-4,-6,-5,-18,-43
1530692404460613,7,1,-4,-12,10,-1,5,25
1530692404481557,-35,-7,-2,0,-5,4,-8,87
1530692404481557,-5,3,-2,-6,-3,-2,2,-16
1530692404482554,4,-9,-2,-2,-3,1,-7,-27
1530692404482554,25,6,0,-11,-10,-1,3,0
1530692404494522,-47,0,0,9,7,0,-5,-6
1530692404494522,27,-1,-1,-2,-3,8,28,43
1530692404504496,-21,-2,0,8,12,10,-9,-33
1530692404504496,-21,-3,-3,-9,-5,-4,-17,12
1530692404518458,46,-1,-2,2,0,-1,-2,-19
1530692404518458,-17,5,2,3,0,0,14,66
1530692404520453,14,-6,-1,1,-4,-6,3,46
1530692404520453,55,4,-3,-13,0,4,11,6
1530692404541397,-26,15,7,24,-2,-6,-29,-32
1530692404541397,-38,-8,-5,-23,-6,-2,1,-5
1530692404543391,28,4,1,9,1,14,26,24
1530692404543391,-50,-9,1,2,11,3,-6,-38
1530692404555360,25,-4,-5,-6,12,-4,-7,-89
1530692404555360,-3,2,0,0,-6,-3,-6,27
1530692404564336,28,3,2,-1,-7,-7,-10,4
1530692404564336,-29,-1,-2,3,-12,-8,-5,-28
1530692404578298,36,0,-1,-10,-8,4,3,-10
1530692404578298,-30,-5,0,7,14,0,-16,-59
1530692404580293,-6,-4,-5,-13,-15,-4,20,12
1530692404580293,-7,8,6,15,6,0,9,21
1530692404601236,-1,-4,1,-6,-5,1,-19,7
1530692404601236,45,6,-2,-4,5,-3,-9,23
1530692404603232,-33,-4,0,8,3,1,-10,5
1530692404603232,-5,0,1,-9,-3,-12,5,-40
1530692404615199,-70,-1,2,3,5,17,10,5
1530692404615199,30,-3,-2,-2,-9,-5,-9,16
1530692404624175,20,0,-2,-15,-8,-6,-1,8
1530692404624175,20,1,1,21,5,3,-21,-1
1530692404639135,-7,-8,-7,-12,-1,5,40,77
1530692404639135,-11,1,3,-14,16,-10,-21,-43
1530692404640133,-50,0,-3,1,2,-3,-12,72
1530692404640133,16,-7,-2,-12,-12,-15,-3,-45
1530692404661077,49,6,3,7,-4,13,-2,82
1530692404661077,-32,2,2,3,-4,-1,17,-28
1530692404663071,38,7,0,4,2,-8,17,43
1530692404663071,-14,1,-1,-1,6,0,-3,39
1530692404675039,-44,-1,0,0,2,-14,-40,-74
1530692404675039,-1,-5,-2,-1,-10,1,5,-1
1530692404684016,14,3,-1,-1,6,2,-12,0
1530692404684016,4,-1,0,9,-2,3,16,12
1530692404698975,-9,0,-1,-6,-2,-2,1,-2
1530692404698975,-22,-4,0,5,-1,2,0,-54
1530692404699973,6,-3,0,2,-2,0,-19,-6
1530692404699973,-17,-6,-6,-9,-1,5,3,-62
1530692404720917,-16,1,0,-2,-3,-5,-2,-22
1530692404720917,54,0,-6,-3,5,-6,-6,38
1530692404722912,-37,-1,3,5,-3,9,17,-43
1530692404722912,-1,-1,0,2,-4,7,8,52
1530692404734879,29,-6,-6,-12,4,8,4,43
1530692404734879,-27,7,5,11,-2,2,-7,26
1530692404743855,7,-1,-1,2,-4,-2,3,-24
1530692404743855,20,-3,-2,-4,7,-6,-14,-36
1530692404758815,5,0,-1,-1,-2,-1,-2,-10
1530692404758815,12,-7,-8,-4,-6,0,14,40
1530692404760810,1,7,3,7,6,-4,-14,8
1530692404760810,-13,1,3,-2,-10,-4,-2,13
1530692404781754,0,-5,-4,0,-4,-11,0,-16
1530692404781754,8,1,1,3,1,5,9,5
1530692404782752,-3,-1,-1,0,3,3,1,17
1530692404782752,5,7,2,5,10,6,-3,11
1530692404794719,-10,-7,-2,-4,-9,-10,-1,-32
1530692404794719,22,2,5,8,-5,-5,-11,65
1530692404803696,-56,-14,-9,-11,-24,1,10,-67
1530692404803696,3,1,-2,1,26,5,-5,90
1530692404818655,8,7,5,7,5,2,6,-31
1530692404818655,12,0,-4,-3,0,2,17,-19
1530692404820650,33,-3,-3,1,-1,-8,-35,31
1530692404820650,-44,-14,-7,-5,-7,-4,6,-6
1530692404841594,-48,-6,1,2,-2,-3,0,11
1530692404841594,-11,-5,-1,-4,-11,0,-6,-23
1530692404842592,35,3,0,0,6,10,12,8
1530692404842592,4,24,7,3,-6,1,12,38
1530692404854559,52,-10,-6,-5,-3,-3,11,67
1530692404854559,-12,5,-1,0,2,-1,8,43
1530692404864533,-24,-9,-2,0,2,-8,-29,-56
1530692404864533,-23,-7,-4,-1,-14,0,5,-19
1530692404878495,8,-7,-2,-1,9,-5,10,-19
1530692404878495,-2,-2,2,1,-3,-1,-8,8
1530692404880490,5,8,2,2,11,8,-1,7
1530692404880490,47,-4,-3,0,4,1,-4,-40
1530692404901434,-35,2,0,-1,-4,3,6,-2
1530692404901434,-74,-6,-5,3,1,0,2,-26
1530692404902432,13,5,2,2,3,-7,-3,20
1530692404902432,36,2,2,-1,-14,-6,-4,-61
1530692404924372,-24,2,4,2,5,6,-5,-31
1530692404924372,16,0,1,0,9,6,-6,56
1530692404925371,37,-7,-6,-8,-6,1,24,14
1530692404925371,63,4,-2,-2,-3,-1,9,-36
1530692404938335,-49,-13,-8,-5,-9,-10,-16,9
1530692404938335,11,-1,0,-1,-8,-1,21,39
1530692404940330,6,5,2,3,3,-1,-10,62
1530692404940330,4,9,3,-3,1,-1,1,-23
1530692404961274,33,0,-1,0,0,3,-2,16
1530692404961274,7,8,-3,0,-5,-3,1,-18
1530692404963269,16,-10,-1,2,3,0,10,20
1530692404963269,-69,-7,-3,0,6,-3,-8,-23
1530692404975237,33,7,1,-2,-10,-1,8,6
1530692404975237,-19,-3,-5,0,7,-4,-21,-14
1530692404984213,16,-8,-4,-7,-27,-3,4,10
1530692404984213,-68,2,1,1,17,5,2,35
1530692404999172,3,-9,-4,-1,1,-2,-6,-50
1530692404999172,20,3,-2,-1,0,-2,-3,-2
1530692405000170,-43,1,1,0,-4,1,6,-27
1530692405000170,-15,-9,-5,1,-2,2,-18,10
1530692405021114,21,2,0,-5,-5,-4,12,-17
1530692405021114,-19,-9,-6,-1,2,-5,-33,-45
1530692405023109,2,0,0,1,9,3,8,16
1530692405023109,-1,0,1,-3,-9,-4,9,20
1530692405035076,-6,9,4,0,0,-1,-18,-30
1530692405035076,19,-3,0,-2,-5,-3,13,-25
1530692405044053,-42,-2,-4,-1,4,-5,-29,35
1530692405044053,32,-14,-5,-5,-22,0,1,14
1530692405058015,8,6,-2,3,22,4,14,45
1530692405058015,14,7,6,0,-6,1,2,-3
1530692405064997,-34,-2,-2,-3,6,-1,4,-16
1530692405064997,27,-1,-1,0,-3,-2,-9,67
1530692405080954,-69,-3,-3,-1,-14,-7,1,67
1530692405080954,20,1,3,-2,1,5,-2,-72
1530692405082949,-10,0,0,4,14,1,-5,-42
1530692405082949,-8,-5,3,3,-2,-3,-4,-10
1530692405094917,27,-4,-3,-3,-4,-3,-3,-20
1530692405094917,0,3,1,2,6,-1,2,25
1530692405103893,14,-11,-7,-5,-9,-1,0,-18
1530692405103893,-3,7,-1,-1,0,-1,2,12
1530692405117855,9,22,19,4,4,3,-6,5
1530692405117855,-1,-6,-5,-2,-11,0,8,16
1530692405124836,19,1,-2,-1,9,-1,8,-9
1530692405124836,-24,-5,-1,-1,0,-5,-1,-19
1530692405141791,-1,-9,-8,-2,-4,1,-4,-4
1530692405141791,9,7,3,1,2,-3,0,-4
1530692405142789,-52,-17,-2,-4,-13,-5,-15,-93
1530692405142789,56,16,-1,-1,6,-1,3,64
1530692405163732,31,-3,-1,0,-7,-1,11,6
1530692405163732,-33,-7,-4,-2,1,6,-6,15
1530692405165727,7,-2,-6,-3,20,1,9,-1
1530692405165727,-11,10,1,0,-14,1,-3,-14
1530692405177695,31,5,4,1,-3,-4,-11,-34
1530692405177695,19,-3,0,1,-4,-8,-5,17
1530692405184677,-17,-1,3,-2,-8,-4,-14,-9
1530692405184677,14,-3,0,0,8,4,13,31
1530692405201631,31,4,-6,-1,0,0,-3,24
1530692405201631,-88,-12,-4,-4,-4,-3,18,19
1530692405202629,70,15,5,2,0,2,-6,102
1530692405202629,-57,-9,-3,-4,0,-1,-3,-60
1530692405223572,33,0,0,-2,-3,-4,-31,-2
1530692405223572,15,5,1,-6,2,0,6,-3
1530692405225567,-8,8,3,23,-1,-2,2,-22
1530692405225567,19,3,1,3,-6,0,-7,-16
1530692405238532,-25,-13,-7,-2,5,3,19,27
1530692405238532,5,3,0,-9,6,-3,-19,14
1530692405244516,-4,-3,-1,-6,-11,3,12,54
1530692405244516,-8,-6,-4,-2,-3,-4,-8,-80
1530692405261471,24,-3,-3,-24,-6,1,6,-63
1530692405261471,-94,-9,-1,6,3,-2,-14,-107
1530692405262468,59,11,-1,2,16,2,16,63
1530692405262468,-4,-15,-5,-2,-10,-1,7,-15
1530692405283412,6,-5,-3,-2,-3,-3,-14,-58
1530692405283412,39,5,-3,3,-6,0,-4,-6
1530692405285407,-27,-2,0,-10,-18,-3,0,-90
1530692405285407,-14,-3,0,-4,8,1,10,96
1530692405298373,2,1,1,7,3,-1,1,72
1530692405298373,53,-3,-3,-1,3,6,1,-17
1530692405305354,-36,8,5,1,-1,2,-2,-30
1530692405305354,25,4,7,2,4,-2,3,19
1530692405322308,-6,3,-4,5,1,-1,-1,-9
1530692405322308,-23,-5,-1,-2,-8,-5,-14,3
1530692405324304,27,-2,-5,-9,2,2,26,46
1530692405324304,-30,-7,-5,-2,4,-1,-12,-58
1530692405344250,-25,-2,1,3,-4,-1,-7,0
1530692405344250,3,-3,-3,2,-4,-2,5,26
1530692405345247,18,2,0,-3,15,9,-2,-14
1530692405345247,-16,-11,-5,-2,1,-13,7,14
1530692405358212,10,-5,-2,0,-9,0,31,2
1530692405358212,9,5,1,-1,-2,3,-27,35
1530692405365194,-8,0,1,3,-8,-20,-10,-3
1530692405365194,20,10,2,2,20,8,9,-12
1530692405381151,1,-2,0,1,-2,3,-1,39
1530692405381151,-1,-3,-4,-1,-6,-4,17,55
1530692405383146,32,8,3,-1,-5,0,-29,12
1530692405383146,-14,-1,-1,-1,-2,-1,-27,16
1530692405404090,-43,0,-1,-1,0,-6,4,-34
1530692405404090,-12,-9,-2,-1,-1,2,26,92
1530692405405087,-24,2,0,0,0,-1,4,-20
1530692405405087,15,3,2,0,-19,4,-9,32
1530692405417055,0,1,1,2,26,11,-8,-71
1530692405417055,73,5,-2,0,-2,1,14,26
1530692405426031,-27,-6,-5,-4,-3,-1,-3,21
1530692405426031,-22,-8,1,-1,-9,-7,-6,0
1530692405440991,1,7,0,1,1,2,-5,-33
1530692405440991,18,2,0,-1,0,0,1,-51
1530692405442986,-47,-1,2,1,2,-4,-13,-13
1530692405442986,37,1,-2,2,1,4,3,53
1530692405463930,14,-7,-6,-1,-3,-7,-4,54
1530692405463930,14,5,-2,-3,-2,-6,10,5
1530692405464927,14,-3,-3,-3,-6,0,1,-15
1530692405464927,6,2,1,1,6,4,-2,-27
1530692405477892,-36,-7,-2,0,4,7,5,45
1530692405477892,-12,0,1,-1,6,2,-2,-20
1530692405486869,-3,-5,-3,-3,-5,3,3,-12
1530692405486869,-28,3,-1,-3,3,1,22,57
1530692405500831,10,-6,-3,-1,-5,-11,-28,53
1530692405500831,-8,4,2,-3,-16,0,0,-65
1530692405502826,-14,0,0,0,8,5,0,-76
1530692405502826,-25,-5,-2,0,0,-19,-3,50
1530692405523770,-51,0,0,-1,-3,4,15,-31
1530692405523770,5,-10,-3,-6,-7,-9,-24,11
1530692405525764,44,6,3,3,2,4,11,44
1530692405525764,51,4,-2,-2,-7,-1,-3,-13
1530692405537732,-5,-3,-1,0,10,3,12,-100
1530692405537732,-32,-1,-1,1,-3,-5,-5,67
1530692405546708,33,2,-1,-1,1,-2,-23,-1
1530692405546708,-8,-3,-3,-5,-6,0,-2,-72
1530692405561668,53,4,2,1,-5,-5,-11,37
1530692405561668,-78,-7,-2,1,4,3,11,-73
1530692405562666,-74,-3,-2,-3,-7,-6,-7,76
1530692405562666,20,-1,-1,2,0,2,8,27
1530692405583609,25,2,0,0,-6,-4,-32,-43
1530692405583609,44,0,2,4,6,1,10,-12
1530692405585604,-33,-6,-2,-4,1,1,4,6
1530692405585604,-10,1,0,-3,1,4,13,-29
1530692405597572,-26,-3,-2,-1,-6,-6,3,52
1530692405597572,6,3,2,1,13,9,0,29
1530692405606548,24,-4,-4,-1,-10,-3,11,-17
1530692405606548,51,1,0,-4,-11,-6,-14,-23
1530692405621508,-62,2,2,-2,4,1,9,27
1530692405621508,37,-4,-4,2,-3,2,-8,7
1530692405622506,-11,-2,-1,2,2,-1,3,22
1530692405622506,-2,7,1,4,10,4,16,41
1530692405643449,53,0,-2,-5,-15,-7,-20,6
1530692405643449,-31,-6,-4,-3,1,0,37,64
1530692405645445,-4,6,3,5,15,-2,-50,-20
1530692405645445,16,-6,-3,-4,-18,-5,-1,-65
1530692405657412,-34,-3,-3,-3,6,4,32,-16
1530692405657412,-19,7,4,2,4,2,-2,14
1530692405666388,46,-2,-3,2,3,-1,10,11
1530692405666388,-13,-4,-3,2,5,9,-13,-49
1530692405681348,21,4,0,2,0,-3,-9,26
1530692405681348,35,2,0,-4,-6,4,6,-15
1530692405683343,-5,-2,1,0,-3,-7,-7,-6
1530692405683343,-24,-6,-3,-2,2,-6,-9,-12
1530692405703290,31,-6,-7,-20,-11,-2,6,-28
1530692405703290,-3,2,2,19,2,-10,-43,-77
1530692405705284,9,0,-1,8,5,3,28,57
1530692405705284,0,-2,3,3,7,9,-15,6
1530692405717252,-10,-2,-1,7,-11,-1,16,-34
1530692405717252,1,0,-4,-21,-1,-7,-4,-3
1530692405726228,8,-2,-2,-8,-2,-2,-20,-103
1530692405726228,16,-2,-6,-1,-16,2,38,35
1530692405741188,-9,-8,0,-1,11,0,-9,12
1530692405741188,-13,1,1,13,15,20,-10,87
1530692405743183,12,-3,-2,-5,-12,-11,8,40
1530692405743183,6,-1,-2,-4,2,0,-4,-73
1530692405764127,-5,2,-2,-2,3,-2,-5,23
1530692405764127,-1,3,1,1,-19,-3,-6,-32
1530692405765125,23,1,1,1,0,4,25,81
1530692405765125,-30,-4,-5,-6,3,-11,-16,-16
1530692405777092,-13,-3,0,4,2,7,11,18
1530692405777092,21,3,-1,-2,1,-1,-1,-13
1530692405788064,-12,-3,-2,0,-4,-2,-9,-9
1530692405788064,-40,-3,0,-8,8,8,3,39
1530692405801028,12,0,1,10,1,6,-9,-26
1530692405801028,-52,2,-1,-3,2,-5,-15,1
1530692405803023,31,-9,-5,-11,-13,0,16,50
1530692405803023,7,2,0,7,-7,3,12,91
1530692405823967,33,-2,-4,1,16,4,5,-35
1530692405823967,-23,2,4,17,1,-3,-3,9
1530692405824964,-58,-3,2,-5,0,-4,-22,-50
1530692405824964,35,5,-1,-3,-13,-6,-2,43
1530692405837929,-8,-1,-2,-4,-2,-3,-8,7
1530692405837929,31,2,-1,-6,-6,-11,-12,-4
1530692405846906,-18,1,-1,-1,4,8,20,1
1530692405846906,2,-4,0,11,7,-1,-7,-59
1530692405860868,10,-1,0,-7,-10,6,9,21
1530692405860868,0,2,-2,-16,0,-14,-4,-17
1530692405862864,7,2,1,8,-1,13,-1,-17
1530692405862864,-72,-4,1,0,0,-6,-21,-1
1530692405883807,72,-4,-5,-4,3,1,17,8
1530692405883807,-28,-4,-2,-4,-7,3,11,21
1530692405885801,46,-6,-5,-4,6,-2,-19,9
1530692405885801,-1,7,2,-1,-3,-4,11,43
1530692405897769,-22,-5,-2,5,-4,1,-7,-1
1530692405897769,12,-3,2,-10,-6,-1,0,15
1530692405906746,-23,1,-2,0,1,5,13,-44
1530692405906746,12,-3,-3,-4,8,-19,-8,26
1530692405921705,-10,9,3,0,-7,-4,-3,15
1530692405921705,37,1,0,1,5,7,9,42
1530692405922703,-8,-4,-1,-7,-9,-7,-31,-22
1530692405922703,-32,-6,-1,14,2,4,7,-98
1530692405943646,-16,9,4,1,6,-3,-2,107
1530692405943646,3,-2,-3,-4,-21,2,6,-5
1530692405945642,38,9,6,17,20,-11,-22,-20
1530692405945642,-6,-5,-2,-6,-4,6,-10,-14
1530692405957609,-9,-5,-4,-7,-5,-7,-4,26
1530692405957609,-41,-4,-3,3,5,7,3,-65
1530692405966585,-3,-2,-1,-11,-17,-4,1,52
1530692405966585,54,4,4,-2,4,3,9,27
1530692405981545,-59,5,1,5,0,-3,-18,-50
1530692405981545,27,-5,-4,-6,-4,5,1,-72
1530692405982543,-28,-7,-4,-2,1,2,9,-75
1530692405982543,-7,4,2,-1,8,5,-8,36
1530692406003487,-2,-11,-7,-4,-12,5,24,69
1530692406003487,-15,-3,-1,3,15,-8,-12,-25
1530692406005482,20,5,2,-1,-12,-5,8,-15
1530692406005482,-1,3,-3,-2,-4,4,-14,11
1530692406017449,21,4,3,0,-3,0,-12,-23
1530692406017449,9,-1,-3,0,11,3,-2,5
1530692406026426,-22,3,4,-4,-2,-2,6,34
1530692406026426,50,6,7,20,7,2,-32,18
1530692406040388,-53,-13,-11,-11,-7,-7,27,-78
1530692406040388,-5,-3,4,8,8,-2,4,9
1530692406047369,15,2,-5,-4,-2,0,-23,-17
1530692406047369,-36,-8,-4,-10,-5,-5,2,-91
1530692406063326,30,10,5,5,2,1,-9,-12
1530692406063326,-12,5,-1,2,-5,-5,-13,17
1530692406065322,-20,-2,5,4,6,7,14,-66
1530692406065322,-10,-6,-9,-10,-6,-2,21,-38
1530692406077289,-1,-2,3,5,7,-3,-23,-36
1530692406077289,8,-7,-3,-8,-5,-3,17,21
1530692406086265,-32,2,-1,1,0,1,5,29
1530692406086265,-5,7,5,-3,-8,1,-4,17
1530692406100228,-19,-4,-3,4,3,-5,-9,9
1530692406100228,-4,-3,-4,-3,3,3,-3,8
1530692406107209,3,-4,-3,-3,0,-2,-10,34
1530692406107209,29,0,-3,-4,8,9,28,17
1530692406124164,-10,0,0,-3,-11,4,-1,-17
1530692406124164,-8,-10,-4,-1,-9,-19,-26,30
1530692406125161,32,1,-1,-2,9,5,5,14
1530692406125161,-39,3,2,-6,-7,-8,1,30
1530692406146105,-26,-6,-4,1,3,2,-3,-53
1530692406146105,49,12,5,-1,-4,5,8,5
1530692406148100,-48,-8,-4,-1,-6,-5,8,-4
1530692406148100,-19,-3,-4,2,4,0,-6,25
1530692406161065,15,-10,-2,-3,-5,-2,22,8
1530692406161065,8,-1,-2,-4,-7,1,-16,21
1530692406167049,12,8,-2,0,-4,-5,6,109
1530692406167049,0,1,2,0,-7,-1,-11,-14
1530692406184004,12,-7,-1,3,9,6,0,80
1530692406184004,10,1,-1,3,12,-1,13,-23
1530692406185001,27,-6,-6,1,-3,1,-5,-20
1530692406185001,30,-36,-1,-7,-8,-2,3,22
1530692406205945,-86,36,-2,0,-1,-4,-7,73
1530692406205945,3,31,12,0,-1,3,3,-4
1530692406207940,6,-10,-3,-1,-2,-2,2,-83
1530692406207940,34,7,-8,-3,2,-10,-14,-57
1530692406220905,25,-22,-1,3,-15,-4,-9,2
1530692406220905,10,-6,-2,3,20,15,18,-53
1530692406227887,-21,3,-2,-5,-3,-3,14,49
1530692406227887,-22,-10,-1,-2,-8,-1,6,22
1530692406243844,24,8,4,-1,6,2,-2,9
1530692406243844,-26,-3,-2,2,-2,6,-38,-40
1530692406245839,2,-10,-2,-2,-5,-10,13,3
1530692406245839,-9,6,-3,-1,1,-6,-20,4
1530692406265785,31,-2,-2,-3,-6,-3,-4,-7
1530692406265785,13,-4,2,3,-1,1,11,106
1530692406267781,-34,-5,-4,-4,0,-1,0,15
1530692406267781,6,8,3,2,-8,1,1,20
1530692406280745,-3,7,2,1,18,0,7,-22
1530692406280745,50,-3,-1,1,0,2,24,62
1530692406287726,-29,2,4,2,-3,5,6,-30
1530692406287726,-12,6,0,1,0,-4,1,-45
1530692406303684,37,-3,1,-4,-3,-1,-3,35
1530692406303684,4,-8,-3,-3,-4,-9,-6,-52
1530692406305679,17,3,0,1,-2,2,2,6
1530692406305679,-44,4,-1,-3,-1,3,-5,-25
1530692406326622,5,-3,1,1,6,-3,-13,-84
1530692406326622,2,-4,-4,-5,-7,-5,9,-65
1530692406327620,-10,-5,-6,-6,-14,-1,-23,28
1530692406327620,-26,-5,-2,-1,13,-6,-11,-8
1530692406340585,-16,4,0,-1,-6,-7,-13,-23
1530692406340585,-10,6,-1,2,-5,-2,17,23
1530692406347567,39,-2,1,-1,10,1,-4,45
1530692406347567,8,9,3,1,-3,2,1,-6
1530692406363524,-2,-11,-6,-1,-3,-3,13,21
1530692406363524,-19,-7,-5,-5,-10,1,4,-5
1530692406365519,28,11,4,-2,0,7,5,-10
1530692406365519,-29,-12,-5,-3,8,-8,-10,-14
1530692406386462,-4,4,3,1,3,-7,-11,2
1530692406386462,1,-6,-3,-11,-7,-10,28,100
1530692406387460,10,-2,-1,19,-9,2,-28,3
1530692406387460,15,7,0,-2,12,8,5,4
1530692406400425,-42,-4,0,0,-3,7,26,34
1530692406400425,-48,-1,3,13,2,-7,-23,12
1530692406409401,36,5,1,-16,-3,-3,3,-28
1530692406409401,28,0,3,9,-3,0,4,60
1530692406423364,62,5,3,9,2,7,22,20
1530692406423364,-88,-9,-1,-8,-6,-3,7,28
1530692406425359,-13,2,0,7,1,-2,-19,-25
1530692406425359,28,-7,-5,-9,-10,4,4,-20
1530692406446302,3,-2,-2,-9,17,1,3,-75
1530692406446302,1,2,0,3,-1,-4,-42,-62
1530692406448297,-38,-8,-2,-2,-1,-4,11,9
1530692406448297,27,3,0,0,-6,1,-3,30
1530692406460265,32,-2,0,2,-12,-1,1,14
1530692406460265,13,-3,-1,-13,13,4,15,22
1530692406469242,-7,-4,-4,-4,-10,-3,0,27
1530692406469242,7,1,0,-4,4,1,0,-16
1530692406484201,-2,-5,-1,-2,-7,-5,-6,-36
1530692406484201,47,5,-1,6,1,-8,-13,12
1530692406485199,-46,-5,3,-1,6,1,5,-9
1530692406485199,27,11,5,5,-11,-2,5,66
1530692406506142,-12,-5,-6,-6,-4,16,6,81
1530692406506142,52,0,0,-5,27,-3,-29,-64
1530692406508137,-17,1,0,9,-8,1,22,4
1530692406508137,-9,-9,-5,-8,-1,-1,42,-9
1530692406520105,10,6,2,8,-2,-4,-43,58
1530692406520105,-7,6,2,-2,-6,-3,-7,-46
1530692406529081,2,4,0,10,14,10,7,75
1530692406529081,-17,1,2,-4,-18,9,13,-46
1530692406544041,24,2,-1,-7,-2,-29,-2,34
1530692406544041,-26,-7,-4,-2,-4,1,-12,-73
1530692406545039,-6,2,4,-5,-1,-9,-5,-19
1530692406545039,21,-2,-3,1,2,-1,-2,19
1530692406565982,-25,0,0,-1,-3,6,-9,-83
1530692406565982,-13,-8,-3,3,-6,0,6,17
1530692406567977,31,1,0,-2,3,-5,17,59
1530692406567977,-41,0,-1,3,0,-2,-29,-22
1530692406579945,26,-1,0,0,-3,3,22,-5
1530692406579945,-69,-8,-2,1,4,3,2,-14
1530692406588921,27,3,2,-6,-7,2,-1,8
1530692406588921,-16,-2,-2,7,7,-3,-10,-4
1530692406603881,-9,0,0,-12,-6,-5,8,-29
1530692406603881,0,-1,-5,-6,1,7,11,52
1530692406605876,22,-9,-7,5,6,4,-18,12
1530692406605876,-9,-2,-5,-14,-5,-14,35,23
1530692406625822,-27,1,2,16,9,-14,-46,-30
1530692406625822,19,-3,-4,6,-13,20,30,84
1530692406632804,-3,-4,-7,-17,-10,-26,-26,-124
1530692406632804,17,-2,0,-1,14,10,-10,2
1530692406639785,16,-2,-2,-2,-6,5,10,-4
1530692406639785,10,3,1,1,1,-9,-19,-21
1530692406648761,10,2,1,3,-9,7,16,0
1530692406648761,-13,-3,0,5,-10,31,11,4
1530692406663721,26,-2,-3,-5,13,15,-13,-25
1530692406663721,-21,1,1,2,-6,9,-1,13
1530692406665716,10,-5,-3,-10,-8,-5,4,-39
1530692406665716,2,7,6,7,14,37,-18,-16
1530692406686660,9,3,2,3,1,-1,-20,29
1530692406686660,9,4,1,-3,-2,-43,-14,-31
1530692406687658,-15,-2,-5,-1,7,26,1,96
1530692406687658,15,0,-1,-1,-2,6,12,16
1530692406699625,-63,-15,-7,-4,-6,-13,-17,-101
1530692406699625,13,-5,-5,-2,-2,10,-4,-13
1530692406708601,-41,-7,-2,-2,4,-28,-30,-18
1530692406708601,-17,-3,0,5,-2,-6,4,58
1530692406723561,13,9,1,-6,-1,5,45,-2
1530692406723561,13,-1,-1,-3,-18,-15,4,-32
1530692406725556,33,7,3,3,6,16,19,30
1530692406725556,-71,-4,2,2,25,-9,-15,1
1530692406746500,10,-1,-3,-3,-6,-2,-8,-11
1530692406746500,2,-2,-1,-1,1,24,10,56
1530692406747497,6,4,3,0,-11,-10,-12,-38
1530692406747497,7,2,-2,0,-6,-26,-30,-60
1530692406759465,-4,4,0,-2,13,-14,17,60
1530692406759465,-2,-3,1,4,0,17,1,15
1530692406769439,12,-3,-1,2,-2,2,-25,-11
1530692406769439,-9,-7,-7,-6,-8,-39,-2,-47
1530692406784398,50,5,2,-6,-13,-1,-7,36
1530692406784398,-21,-3,0,19,2,-11,10,-62
1530692406786394,2,-3,-1,-8,13,42,27,-8
1530692406786394,25,2,2,4,3,-23,-26,4
1530692406806339,10,-1,-1,3,-3,1,0,92
1530692406806339,14,4,1,-2,3,-12,-13,-56
1530692406808334,-3,-3,-5,-5,-11,3,2,75
1530692406808334,13,-3,-2,-1,0,0,27,60
1530692406820302,-33,0,2,-13,0,21,5,33
1530692406820302,36,1,1,-2,-8,-10,9,51
1530692406829278,-42,-4,2,9,11,-12,-22,-93
1530692406829278,29,-3,0,-3,9,4,-22,-13
1530692406844238,-10,3,1,-2,-30,-30,31,55
1530692406844238,28,2,0,-5,21,38,-5,-3
1530692406845236,-25,-5,-2,3,-10,-17,12,-31
1530692406845236,50,0,-3,-6,-8,-3,-13,-41
1530692406866180,1,1,1,5,6,10,12,-6
1530692406866180,-52,-5,-2,-2,-5,-31,-11,38
1530692406868174,36,9,4,-3,-3,-11,-8,-80
1530692406868174,-14,1,-4,-3,-3,0,13,-4
1530692406880142,24,-9,-7,-2,-6,10,6,12
1530692406880142,-61,2,3,0,-5,15,13,78
1530692406889119,4,-2,-2,-5,-2,-15,-17,-65
1530692406889119,-17,0,-2,-3,-8,0,-18,16
1530692406904078,-10,-2,-2,7,8,-19,15,1
1530692406904078,18,1,-1,-26,1,17,7,-46
1530692406905076,-1,2,0,-3,-3,12,3,-32
1530692406905076,-35,0,2,1,-2,-35,16,58
1530692406926020,-5,0,-1,-13,4,13,-35,-58
1530692406926020,14,-6,-4,3,-9,-2,-4,-9
1530692406928014,-19,-3,-2,1,0,-21,9,24
1530692406928014,47,5,0,1,-6,40,15,18
1530692406939982,-27,0,0,23,11,-4,-12,-24
1530692406939982,5,3,1,3,-4,-30,-13,-91
1530692406948958,-34,-4,-2,-3,-1,11,-3,66
1530692406948958,-8,-5,-1,1,-3,-5,5,-38
1530692406962921,21,7,5,4,3,2,-7,-10
1530692406962921,-2,1,-2,5,0,4,-16,9
1530692406969902,8,-1,-5,-2,-2,-16,-4,71
1530692406969902,7,0,0,1,-1,-1,-2,16
1530692406985859,-4,-5,-1,1,6,8,-3,-62
1530692406985859,10,-3,0,-6,-11,-2,10,-1
1530692406987855,-8,-2,-1,0,3,0,10,33
1530692406987855,-23,-4,-3,-3,-1,-4,1,33
1530692406999822,5,-1,-2,-5,-5,8,7,1
1530692406999822,32,5,-1,-14,-10,-7,-2,5
1530692407008798,-1,2,1,43,26,-7,-7,1
1530692407008798,-68,-7,0,-4,-10,15,22,-59
1530692407022761,-10,-6,-1,0,2,-8,-15,5
1530692407022761,-13,-4,-3,-6,12,9,-1,12
1530692407029742,50,6,1,-30,-5,-10,6,-69
1530692407029742,-50,0,0,-2,-11,6,-4,-64
1530692407046697,-7,0,0,5,-10,-11,-12,1
1530692407046697,14,-6,-4,-10,-9,15,-10,-5
1530692407047694,-11,7,9,5,9,7,-15,-25
1530692407047694,41,8,-1,5,7,17,22,-13
1530692407068638,22,-2,0,-13,-2,1,14,-5
1530692407068638,-89,-7,-2,12,7,-3,8,1
1530692407070633,47,5,1,-1,-4,10,-12,-35
1530692407070633,19,0,-3,-1,-1,0,-7,7
1530692407083598,-8,-2,-3,0,-3,22,-1,40
1530692407083598,-2,0,0,6,6,-24,-4,-55
1530692407089582,-5,-4,-1,1,-2,9,-5,7
1530692407089582,-18,1,1,-7,6,-17,6,54
1530692407106537,-38,-3,-2,0,-6,20,13,-11
1530692407106537,25,2,-1,7,16,10,-10,79
1530692407107534,-12,-4,-4,-10,-21,1,5,-44
1530692407107534,10,0,3,4,17,-17,-14,-55
1530692407128478,2,3,-2,1,-2,-2,0,30
1530692407128478,14,-1,-2,-8,-17,9,11,14
1530692407130473,7,-3,-3,-3,9,-8,4,42
1530692407130473,31,2,-1,6,-5,-6,-3,14
1530692407143438,-51,-4,2,26,16,6,-1,-76
1530692407143438,-7,3,1,6,-5,-9,-12,47
1530692407150419,24,1,-3,-17,-7,-1,5,-52
1530692407150419,-1,-2,-1,-1,-6,3,-24,-2
1530692407166377,-71,-4,2,-16,11,-7,24,-17
1530692407166377,-12,5,-1,3,-3,-4,-6,0
1530692407168371,13,2,0,2,-3,-2,0,35
1530692407168371,21,1,-1,-6,3,11,12,-14
1530692407189316,33,4,0,-2,-8,-30,-32,22
1530692407189316,-1,-1,5,10,-2,10,5,-17
1530692407190313,-18,-2,1,-4,9,-4,-5,18
1530692407190313,0,-7,-5,-6,-8,3,-2,-14
1530692407203278,9,-1,-2,-5,11,9,4,78
1530692407203278,21,1,-2,0,1,-7,-1,-22
1530692407210259,16,5,1,9,-4,1,15,62
1530692407210259,-20,-6,-4,-3,-7,-1,-10,-51
1530692407226216,20,-6,-7,-7,-8,-5,1,-18
1530692407226216,-8,-5,-2,-1,-1,-16,-3,-3
1530692407228211,7,5,2,2,-1,15,1,29
1530692407228211,-10,-1,1,0,-1,-4,-7,24
1530692407249155,35,0,-3,-7,-11,-9,-2,-1
1530692407249155,5,3,-3,0,7,12,8,1
1530692407250153,-25,-6,-1,-2,-4,-6,3,-14
1530692407250153,-16,-7,-3,-1,2,2,-7,28
1530692407263118,-24,-6,-3,1,-8,-8,-10,-45
1530692407263118,42,4,2,-4,-3,-3,2,15
1530692407270100,-44,-7,-4,7,-2,16,17,12
1530692407270100,53,8,1,-4,7,7,4,-20
1530692407286057,-3,7,5,4,-1,-6,-49,-83
1530692407286057,-34,-16,-8,-4,-2,4,12,-26
1530692407288052,43,7,2,-2,-4,-2,-16,-38
1530692407288052,-19,-3,-2,-1,-2,-10,28,51
1530692407308995,30,1,-1,1,-3,3,5,17
1530692407308995,0,2,2,2,10,2,-16,4
1530692407309993,-15,-3,-3,0,-1,-6,-2,21
1530692407309993,29,0,1,3,-5,1,-6,-26
1530692407321960,-70,-7,-1,-4,6,2,11,17
1530692407321960,20,4,0,-1,-6,-2,2,19
1530692407331934,4,-4,-2,-3,-1,-3,3,-4
1530692407331934,62,-4,-2,0,-2,-10,-8,-36
1530692407345896,42,5,1,-3,-9,-3,4,16
1530692407345896,-15,-3,1,4,2,9,1,-20
1530692407347891,27,-1,0,0,23,4,-1,1
1530692407347891,6,1,-1,-3,-4,-7,-7,11
1530692407368835,-25,-7,-4,-5,-2,7,10,9
1530692407368835,21,7,3,2,-6,-12,-11,14
1530692407370830,-36,-2,-1,-2,-6,0,-8,-21
1530692407370830,-20,3,1,3,2,4,17,81
1530692407382798,32,-4,-2,-1,-1,-3,14,1
1530692407382798,-13,-4,-3,-3,-4,5,0,14
1530692407391774,-3,-1,-1,0,5,1,-5,-3
1530692407391774,14,-6,-3,-1,-2,-6,-7,26
1530692407406734,2,5,1,2,0,4,6,25
1530692407406734,34,-1,-1,-3,-3,-1,18,-6
1530692407407732,-52,-4,-1,-1,-7,-5,-16,-21
1530692407407732,-22,-3,0,1,4,1,9,2
1530692407428675,22,12,1,1,-5,-2,-22,-7
1530692407428675,-24,-8,-5,-4,5,-6,-3,-21
1530692407430671,0,2,0,-1,-4,-4,3,43
1530692407430671,23,1,-3,0,-4,3,-1,13
1530692407442638,-43,-6,-1,1,3,-3,4,-22
1530692407442638,12,1,1,-1,-7,0,2,38
1530692407451614,-67,-9,-5,-4,6,1,3,-2
