timestamp,emg1,emg2,emg3,emg4,emg5,emg6,emg7,emg8
1530692348672809,41,11,-1,4,-6,-23,-8,-13
1530692348672809,64,17,0,-6,-2,8,20,36
1530692348673807,-42,1,9,10,1,-34,-14,9
1530692348673807,80,-10,-2,-3,2,67,3,-3
1530692348686771,8,-11,-1,2,16,-49,13,-16
1530692348686771,-68,-7,-2,0,-6,-4,-7,-11
1530692348694750,-62,5,0,1,0,3,6,29
1530692348694750,-59,-3,-6,-8,-4,5,-5,3
1530692348709710,-21,-2,-5,-7,-12,25,-1,-31
1530692348709710,70,2,8,18,5,-8,-5,0
1530692348710707,-49,-12,-5,-4,-3,-25,-16,-59
1530692348710707,-34,13,-5,-4,-1,5,12,36
1530692348732649,-2,-28,1,2,8,56,-3,-1
1530692348732649,-75,-2,-5,-8,-5,-28,-4,-24
1530692348733646,97,0,2,2,0,-32,4,30
1530692348733646,-41,-5,-4,-1,-3,6,0,-24
1530692348755587,-25,15,4,2,4,-4,-10,-6
1530692348755587,-24,-8,-4,-1,3,17,0,-23
1530692348756585,-67,-9,-3,2,8,-4,23,92
1530692348756585,24,16,1,-5,-3,4,-12,-12
1530692348770547,88,7,3,-1,-9,-25,-3,5
1530692348770547,-3,-8,-3,0,7,42,0,0
1530692348770547,18,-5,-4,-1,-18,2,13,31
1530692348770547,-32,-1,5,5,10,-34,-4,9
1530692348793486,-48,-15,-14,-7,-8,-17,-15,-29
1530692348793486,34,-1,-1,-6,1,-5,-4,-33
1530692348794484,104,11,0,-2,1,38,4,16
1530692348794484,-87,-12,3,19,-1,10,9,10
1530692348806451,93,19,1,0,-7,-20,0,25
1530692348806451,-25,-13,-3,-4,0,28,12,13
1530692348815427,-28,-15,-3,-4,-2,-16,-11,-20
1530692348815427,65,-9,-5,-4,-4,-4,-3,12
1530692348830387,26,33,8,4,8,10,2,-30
1530692348830387,-66,6,1,4,3,-14,-3,23
1530692348831385,-19,5,2,0,-6,-30,-15,-33
1530692348831385,37,-12,-3,-9,-10,23,6,-10
1530692348852329,20,-11,0,3,10,14,8,-4
1530692348852329,-28,16,3,-2,-8,16,7,65
1530692348853326,-25,-4,2,3,11,2,-1,-20
1530692348853326,-46,-6,-6,-6,-5,-14,-3,4
1530692348875268,-6,-9,-1,-3,-3,-4,-4,5
1530692348875268,-15,2,3,4,4,32,3,19
1530692348876265,17,-2,0,0,5,27,-21,-64
1530692348876265,114,30,0,0,6,-64,-1,24
1530692348890227,-42,-8,-9,-11,-28,22,3,20
1530692348890227,52,-6,-4,4,-4,-27,-5,-15
1530692348891225,-22,-11,-4,-1,-1,27,-3,-12
1530692348891225,27,-17,0,-1,2,23,3,-19
1530692348912168,-24,15,-1,-1,5,-28,-3,-6
1530692348912168,-9,-5,-8,-11,-5,-20,-14,-20
1530692348913166,-47,-1,-1,3,-6,22,19,11
1530692348913166,23,4,4,4,3,0,8,-30
1530692348927129,-91,-1,-7,-6,-3,-19,1,54
1530692348927129,-5,-3,-3,-6,-7,-18,0,-53
1530692348935108,40,5,-1,-1,3,7,0,28
1530692348935108,-6,0,4,2,0,16,1,5
1530692348950068,33,-20,-4,-7,-5,-31,4,4
1530692348950068,43,24,1,7,3,19,-4,22
1530692348951065,-19,-13,0,-1,-3,6,-6,-45
1530692348951065,7,11,3,1,-10,-1,6,46
1530692348973006,23,-8,-2,-2,10,35,15,-8
1530692348973006,76,-14,4,2,-5,-32,-9,10
1530692348973006,-67,35,3,-1,-2,-11,-13,10
1530692348973006,59,8,3,2,8,16,1,3
1530692348995944,-57,-27,-3,2,-2,26,11,-49
1530692348995944,-33,-34,-3,0,0,-22,-5,6
1530692348996942,40,9,-6,-3,-3,49,17,34
1530692348996942,-34,-1,-1,0,-1,-20,-17,-38
1530692349009907,-22,4,5,4,2,-2,-11,10
1530692349009907,76,7,-3,-6,-2,-6,13,28
1530692349010905,-69,-17,-3,-3,0,24,-15,-31
1530692349010905,-8,1,-3,0,-2,6,-5,-29
1530692349032846,26,-13,-1,2,-7,-30,1,41
1530692349032846,-36,-3,-3,-2,-3,18,-11,-16
1530692349033843,34,16,5,2,7,-10,5,26
1530692349033843,14,-2,-7,-6,-2,16,16,55
1530692349055785,-37,9,5,3,1,3,-15,-24
1530692349055785,-16,3,0,-4,6,-10,9,2
1530692349056782,-30,-16,-9,-5,-7,-17,-10,-45
1530692349056782,38,-2,-2,-3,-4,-57,-16,-34
1530692349069747,79,4,4,3,8,12,7,10
1530692349069747,-47,0,-2,-2,-6,-2,5,-19
1530692349070745,14,4,5,5,3,3,-6,1
1530692349070745,27,3,1,3,2,-12,-3,0
1530692349092685,-55,-4,-4,-4,1,-3,-15,-24
1530692349092685,-7,11,1,-5,-28,0,0,-12
1530692349093684,8,1,4,4,6,20,26,36
1530692349093684,20,-1,-2,-1,2,1,5,7
1530692349123603,-4,0,3,1,5,24,-10,-24
1530692349123603,45,22,2,2,5,-4,-2,23
1530692349123603,9,-2,-4,-5,-11,23,-4,-27
1530692349123603,12,7,3,0,2,16,13,12
1530692349129587,42,4,-1,0,-3,-14,-7,6
1530692349129587,-21,-12,-3,-3,0,-9,6,-1
1530692349130584,34,4,-2,-3,-1,-31,-3,7
1530692349130584,34,-5,-1,1,10,54,1,4
1530692349152526,42,2,-4,-4,-3,-45,-17,16
1530692349152526,-26,6,6,7,1,30,1,-20
1530692349153523,-35,-14,-4,-5,-11,-15,0,12
1530692349153523,-59,-9,5,2,-2,6,-11,-26
1530692349175465,8,4,-6,-5,0,5,3,24
1530692349175465,23,-5,0,0,5,-3,-1,-14
1530692349175465,38,7,-3,0,3,-9,6,31
1530692349175465,-36,-4,-4,-2,-11,-27,-14,-14
1530692349190425,8,-7,-5,-1,0,25,16,4
1530692349190425,27,6,6,0,4,-11,4,20
1530692349190425,-60,-5,4,4,3,-27,-6,2
1530692349190425,49,10,-3,-2,-3,8,-11,-37
1530692349212365,54,-7,0,-3,-2,17,16,26
1530692349212365,-15,-1,-2,0,14,32,-9,-18
1530692349213363,-6,-28,-8,-6,-22,-47,-16,-31
1530692349213363,-57,-2,-4,-4,-6,11,12,69
1530692349235304,-34,35,4,2,4,-15,-14,-24
1530692349235304,21,-18,-6,0,-1,3,-7,10
1530692349236302,127,26,-1,-5,-3,-38,11,-7
1530692349236302,-38,-17,1,7,14,54,-9,-10
1530692349250265,-27,-3,1,4,3,29,9,-8
1530692349250265,-23,2,0,-2,-6,-13,-13,-13
1530692349251262,64,12,1,5,7,18,-4,50
1530692349251262,-13,-26,-7,-4,-5,-23,13,-9
1530692349272206,-46,5,2,0,2,0,-5,-15
1530692349272206,-32,-5,-7,-4,-1,-11,-4,24
1530692349273203,-18,-13,4,-1,3,-2,2,-6
1530692349273203,30,14,4,1,15,11,12,24
1530692349295145,9,-11,-6,-7,-19,-1,-9,-21
1530692349295145,-19,-4,-1,-1,-10,-38,-5,15
1530692349296142,-24,4,-1,0,-2,-6,-13,-29
1530692349296142,29,4,1,-2,-1,-6,4,-18
1530692349310104,-26,-16,-4,-5,6,0,7,12
1530692349310104,-26,12,5,6,9,92,11,-20
1530692349311102,9,-20,-4,-3,3,-49,-14,18
1530692349311102,-5,4,-1,-1,-7,-5,2,-12
1530692349333043,30,3,0,-1,-6,9,12,49
1530692349333043,18,2,-1,-5,0,-1,-6,-34
1530692349333043,-34,-5,-4,-4,0,31,13,10
1530692349333043,-81,-2,-1,0,-1,-25,-17,-28
1530692349354984,45,-4,4,4,4,-2,4,25
1530692349354984,-40,3,-2,-3,-2,-27,3,-36
1530692349355982,57,14,3,1,4,17,14,44
1530692349355982,15,-5,0,-2,-4,-27,-13,-22
1530692349369944,-44,-2,-1,1,2,0,2,-29
1530692349369944,45,3,2,0,1,-51,-17,22
1530692349370942,-35,-7,-6,-3,-4,78,15,-18
1530692349370942,-52,11,4,3,3,-5,-2,-5
1530692349392883,89,-11,-4,-3,-4,1,-4,21
1530692349392883,-81,-19,-10,-4,1,-9,-4,-42
1530692349392883,41,8,3,1,-2,-2,-17,-18
1530692349392883,34,0,-2,0,-3,10,11,19
1530692349414824,-19,9,4,1,5,29,-2,2
1530692349414824,47,-10,-7,-4,-12,-30,-13,-12
1530692349415822,20,11,3,-1,-3,0,7,16
1530692349415822,21,-20,-5,-3,2,-2,-1,-3
1530692349429784,-54,9,4,2,-6,-17,-19,-42
1530692349429784,52,-5,-2,-2,9,16,13,21
1530692349430782,-86,-19,-5,-1,-5,-18,-8,-26
1530692349430782,62,30,7,2,1,-11,1,4
1530692349452723,43,3,2,2,2,1,20,60
1530692349452723,-66,-13,-2,-4,2,4,-3,-20
1530692349453721,33,-6,-3,-1,-4,-16,2,14
1530692349453721,21,-2,-5,-3,-10,10,-2,-22
1530692349474664,-29,-1,3,5,2,38,-15,-29
1530692349474664,52,17,5,4,4,-36,-6,9
1530692349475662,-6,-13,2,2,7,22,-7,-2
1530692349475662,-20,-5,0,-3,-5,-13,-1,18
1530692349489625,88,15,-6,-5,-4,-11,-7,-40
1530692349489625,-1,2,3,5,-1,3,7,29
1530692349490622,-18,5,3,2,15,7,3,-11
1530692349490622,-1,-5,0,-3,-5,31,7,-16
1530692349512563,-41,-23,-3,4,1,-39,-17,-14
1530692349512563,43,14,-2,-2,-1,6,5,1
1530692349513561,16,6,2,0,-1,-18,-7,-22
1530692349513561,-37,-7,-2,0,9,14,7,26
1530692349535501,-3,-1,-1,-2,0,-11,3,-8
1530692349535501,2,-12,-1,-2,-10,-10,-3,-16
1530692349535501,-29,-12,-6,0,3,18,7,-1
1530692349535501,-15,25,0,-3,-6,-16,4,70
1530692349550462,-79,-10,1,1,-3,-6,-7,-18
1530692349550462,19,-6,-4,-2,0,6,9,9
1530692349550462,28,-9,-2,-3,-4,-9,-6,19
1530692349550462,1,-14,-8,-3,-2,-6,11,45
1530692349572403,-26,7,1,-4,-2,-9,3,3
1530692349572403,38,-1,1,0,5,16,8,11
1530692349573400,-52,13,4,-2,-4,-9,-5,-18
1530692349573400,-19,-6,2,6,5,-2,-21,-26
1530692349595341,40,12,1,-2,-7,-26,9,-12
1530692349595341,-25,-18,-6,-3,-6,-28,-15,-24
1530692349596339,42,13,0,-1,-2,61,12,-8
1530692349596339,-14,-15,-4,-3,-4,-36,-11,8
1530692349610301,36,2,1,1,5,17,-6,20
1530692349610301,69,23,5,2,1,5,9,-7
1530692349611299,-34,1,-2,-1,-3,-23,0,-12
1530692349611299,17,5,-2,-3,-3,3,-14,-18
1530692349632243,36,-15,-6,-3,-4,-5,-5,-2
1530692349632243,30,6,-3,-4,13,113,15,19
1530692349633240,3,-17,-6,-6,-16,-50,-28,17
1530692349633240,9,3,2,4,4,16,1,-21
1530692349655181,53,20,3,-2,1,2,-8,6
1530692349655181,-98,-19,-3,-1,0,7,9,13
1530692349656179,20,10,-2,-2,3,6,6,-17
1530692349656179,-76,-6,0,-5,-7,-10,-9,-12
1530692349670142,-21,-7,-6,-1,0,-8,-4,-16
1530692349670142,-5,6,-2,0,-2,-20,-11,1
1530692349671139,5,-7,0,-2,2,-3,4,17
1530692349671139,17,18,3,0,-4,-15,2,-16
1530692349693080,7,-1,-1,1,-1,10,1,-10
1530692349693080,-80,-8,0,1,7,44,16,-1
1530692349693080,72,-4,-1,2,-16,-41,-23,-5
1530692349693080,110,6,4,6,13,19,7,19
1530692349715021,-119,-24,-5,-3,-5,-2,2,-15
1530692349715021,101,42,7,3,9,5,1,0
1530692349716019,12,-8,-3,-6,-23,-28,2,-11
1530692349716019,-34,-11,-3,-5,-7,-4,-8,-25
1530692349728984,22,-5,-1,2,3,7,7,-7
1530692349728984,-58,-21,-5,-4,-9,-43,-3,10
1530692349737960,-28,12,3,1,10,12,7,0
1530692349737960,111,-1,-2,-4,-4,-5,-1,2
1530692349752920,-33,-5,-2,1,-1,-5,6,27
1530692349752920,54,6,0,0,-5,-5,-10,-6
1530692349752920,14,10,6,4,7,13,-1,-9
1530692349752920,-13,-9,-4,-2,-2,24,8,-14
1530692349774862,13,8,-2,-5,-2,-41,-12,23
1530692349774862,-16,-21,-5,-2,7,10,-5,-17
1530692349775867,51,27,-1,-1,-7,35,15,42
1530692349775867,-71,-6,2,0,-3,-6,1,-11
1530692349789822,-12,-1,1,2,0,11,2,-3
1530692349789822,28,-4,0,-2,-7,-22,-5,-6
1530692349797801,10,-1,-4,-5,3,-20,0,26
1530692349797801,-16,3,2,2,-2,-3,6,0
1530692349812760,20,2,-1,-4,-3,20,9,8
1530692349812760,66,-10,-4,-4,-16,-22,-10,-60
1530692349813758,-11,-1,1,4,10,14,5,-14
1530692349813758,-57,-14,-5,-1,0,-4,-1,-17
1530692349834712,-26,-1,-2,0,-2,-1,6,61
1530692349834712,25,11,7,4,-1,-28,-13,-13
1530692349835700,-37,-6,-2,1,7,22,4,16
1530692349835700,-61,-16,0,2,14,-2,4,-23
1530692349849661,101,23,0,-3,-16,-30,1,-2
1530692349849661,-30,-5,-2,-2,-2,12,8,24
1530692349857640,-53,-16,1,1,1,1,2,-6
1530692349857640,86,-2,-7,-6,1,-3,-7,17
1530692349872600,0,1,4,1,3,5,-14,-56
1530692349872600,-74,1,0,0,0,-18,8,45
1530692349873598,1,-1,-1,-4,-4,-14,-12,-35
1530692349873598,-3,1,-1,-1,7,23,-6,-14
1530692349895539,1,-7,-2,-5,-11,-47,-13,14
1530692349895539,4,-3,-3,-4,-2,95,19,-12
1530692349895539,17,-3,4,3,-6,-73,-4,37
1530692349895539,-83,0,-5,-4,-9,3,2,-43
1530692349909501,26,5,3,2,7,22,4,0
1530692349909501,13,6,-1,1,-5,-20,-9,33
1530692349917484,35,-7,-1,1,5,24,11,41
1530692349917484,-23,4,-4,-5,-6,-5,-1,-20
1530692349932440,-128,-8,4,2,-4,5,-2,32
1530692349932440,31,-19,-7,-2,-5,-34,-23,-111
1530692349933438,28,-2,-3,0,5,19,3,11
1530692349933438,24,0,2,4,-1,-14,-7,37
1530692349955379,23,-4,-4,-5,-1,8,5,9
1530692349955379,49,17,2,1,3,5,11,36
1530692349956376,-45,-18,-5,-4,-9,-15,-19,-53
1530692349956376,39,21,10,6,3,29,6,36
1530692349969341,22,-12,-8,-5,1,-25,7,-38
1530692349969341,-35,-5,0,-1,5,-15,4,59
1530692349977320,31,0,1,-2,-12,-8,-16,-50
1530692349977320,-19,-8,-6,-7,-3,11,20,37
1530692349992280,1,6,5,6,0,26,-6,1
1530692349992280,17,4,1,0,-3,-31,-11,-6
1530692349993277,-22,8,0,-1,9,2,9,24
1530692349993277,47,-8,-2,0,-2,-1,-15,-22
1530692350015219,-50,8,-1,-3,2,8,0,-9
1530692350015219,26,-7,-4,2,1,2,2,18
1530692350016216,-9,6,-2,-2,-4,5,0,-15
1530692350016216,33,3,5,3,-4,-16,-8,-15
1530692350029181,-66,-3,-2,-2,0,6,2,-7
1530692350029181,64,-4,-2,-3,-1,-9,3,39
1530692350037160,-65,-14,-3,1,4,12,-13,-55
1530692350037160,25,4,-4,-5,-5,-16,-2,3
1530692350052120,14,-6,1,1,3,6,3,10
1530692350052120,-30,-2,1,1,8,19,2,-15
1530692350053118,-21,-8,-9,-6,-10,-7,-2,-2
1530692350053118,30,1,3,3,-1,-17,-9,28
1530692350075059,-12,-10,-5,-3,8,3,-3,-30
1530692350075059,-1,12,3,0,-6,23,6,-16
1530692350076056,68,14,4,1,5,11,23,29
1530692350076056,-11,-11,-1,0,-2,-29,-5,19
1530692350089021,30,-11,-2,0,2,18,-6,-21
1530692350089021,38,-11,-5,-1,-1,-15,-8,-30
1530692350097997,50,16,4,3,5,4,5,20
1530692350097997,-46,-4,-3,-3,0,16,10,2
1530692350112957,64,2,2,1,-4,-38,-11,3
1530692350112957,-86,-3,-1,-4,-5,-5,-10,-29
1530692350112957,-4,-2,-1,2,3,9,10,22
1530692350112957,20,7,-4,-6,-3,18,11,3
1530692350134898,12,-7,-2,-1,-2,-12,-3,-9
1530692350134898,-36,1,-4,-1,-6,-18,-8,-20
1530692350135896,-27,-9,-3,2,4,16,-7,60
1530692350135896,16,0,-4,-5,-9,-18,8,-6
1530692350157837,5,1,-5,-5,-2,54,15,-23
1530692350157837,-66,9,6,0,-11,-28,-5,25
1530692350158835,-9,-13,-2,-3,-2,4,2,-27
1530692350158835,38,16,0,0,6,3,-3,12
1530692350172797,8,-1,1,1,0,12,3,12
1530692350172797,53,6,5,2,8,-14,-1,15
1530692350173795,-50,5,2,0,0,8,-10,-9
1530692350173795,-51,-7,-3,-2,-5,-50,-18,-33
1530692350194739,26,7,3,2,4,8,11,36
1530692350194739,-1,-4,-4,-5,-5,7,-6,-26
1530692350195736,14,-1,5,6,17,-18,-18,-35
1530692350195736,56,5,2,3,-1,1,4,29
1530692350218675,19,-3,-6,-5,-18,-1,-10,-40
1530692350218675,-43,-7,-3,-4,-1,-7,-4,15
1530692350218675,-24,-5,-7,-5,-3,11,2,-4
1530692350218675,-14,-2,4,3,6,-7,-12,-35
1530692350232637,34,1,-5,-4,-2,0,4,0
1530692350232637,-21,-2,5,5,6,5,4,19
1530692350233639,54,2,4,-1,0,5,9,-16
1530692350233639,-107,-1,-2,-2,2,10,-2,-4
1530692350255576,3,2,-1,2,-4,14,-14,16
1530692350255576,-1,-5,-5,-5,-1,-51,-9,-23
1530692350255576,52,7,0,3,1,-12,-2,3
1530692350255576,-13,-7,0,2,0,17,2,-27
1530692350278515,-45,-5,-2,-1,3,3,3,13
1530692350278515,27,-4,-4,0,2,13,2,42
1530692350279513,32,-1,-2,-1,0,-3,12,17
1530692350279513,-48,-18,0,-3,1,-24,-24,-23
1530692350292477,-11,16,4,0,-1,-5,-4,-7
1530692350292477,58,-1,-3,2,-3,24,5,-26
1530692350293475,-53,2,1,-2,-7,-14,-13,-6
1530692350293475,50,6,1,0,3,24,5,0
1530692350315416,-15,-6,1,1,-5,-26,-2,11
1530692350315416,5,-2,1,1,0,-2,1,28
1530692350315416,8,3,-4,-6,-5,45,4,-25
1530692350315416,16,4,-1,1,1,-32,-1,16
1530692350337357,-48,-11,-3,-3,2,-13,-4,-44
1530692350337357,71,13,1,0,-3,8,16,45
1530692350338355,-104,-14,-4,-2,-2,2,-20,-55
1530692350338355,29,10,2,3,3,48,11,17
1530692350352317,22,-11,-1,-2,-1,-16,-4,-2
1530692350352317,10,-1,-2,-2,-11,-19,-5,-20
1530692350353315,25,17,6,5,7,-9,13,15
1530692350353315,12,-17,-3,-5,-3,12,-8,-11
1530692350375256,3,11,0,3,7,6,-1,12
1530692350375256,-69,1,-1,1,6,19,7,17
1530692350376253,12,-11,-1,-2,-8,-35,0,-16
1530692350376253,50,9,1,2,-7,-14,3,-3
1530692350397197,12,3,-2,2,9,15,3,17
1530692350397197,-46,-8,1,-3,-6,32,-11,23
1530692350398194,67,10,-5,-6,-7,-23,10,-23
1530692350398194,-62,-18,-3,-1,0,11,5,-13
1530692350412157,59,12,2,1,10,-28,-7,17
1530692350412157,-3,1,-1,-2,-11,11,2,-3
1530692350413155,-19,-6,-2,-4,-12,-12,-11,18
1530692350413155,41,10,-1,-3,1,5,10,11
1530692350435096,6,-12,2,2,0,21,11,8
1530692350435096,-80,-14,-5,0,3,-21,-9,-27
1530692350436093,42,4,-3,-2,5,13,11,36
1530692350436093,-28,-28,-5,-1,-2,-20,-12,-23
1530692350458034,-9,11,1,2,-3,9,2,10
1530692350458034,22,4,-1,-3,6,7,1,-15
1530692350458034,-33,-9,0,-2,-5,-26,-14,-7
1530692350458034,47,9,-1,-1,3,14,8,40
1530692350472995,-18,-10,0,0,-2,0,-8,-29
1530692350472995,26,9,0,1,2,-3,0,3
1530692350472995,-53,-5,2,3,5,10,2,18
1530692350472995,-22,14,-3,-2,-6,-4,-11,-40
1530692350494936,1,-2,1,0,3,1,-2,-3
1530692350494936,43,2,3,2,5,-8,5,8
1530692350495933,-8,5,-1,-1,7,9,5,6
1530692350495933,1,7,5,4,0,-3,-11,2
1530692350517874,-3,0,-2,-2,-10,-25,19,21
1530692350517874,-1,-5,-2,0,0,-15,-20,-49
1530692350518872,1,-7,-2,1,-2,-5,-7,9
1530692350518872,-14,-5,-3,-1,5,14,-1,9
1530692350532834,80,5,0,2,-2,-10,1,-22
1530692350532834,-52,1,-2,-1,1,7,12,16
1530692350533832,-15,-2,-3,-2,-2,-1,-4,1
1530692350533832,-11,-3,2,1,-2,-1,2,-2
1530692350554776,3,12,4,0,0,2,-7,3
1530692350554776,-71,-11,-3,-4,-3,0,-1,-41
1530692350555773,89,0,-1,0,-2,13,6,78
1530692350555773,-56,5,-1,-3,-4,-5,-7,-23
1530692350577714,-41,-14,-2,-3,-4,-19,-12,-8
1530692350577714,-3,-6,-4,-3,14,42,7,-10
1530692350578712,17,15,2,2,-12,-69,-13,-41
1530692350578712,5,-4,-1,1,-5,-20,-3,20
1530692350592674,20,-1,-2,-1,-1,16,9,2
1530692350592674,14,-5,0,-1,-2,-20,-12,38
1530692350593672,22,5,4,2,9,32,18,-16
1530692350593672,-23,8,1,2,0,6,12,30
1530692350614616,17,-20,-6,1,4,-8,-19,-22
1530692350614616,-9,10,5,2,0,19,19,17
1530692350615613,1,-4,-1,-2,-2,11,-3,12
1530692350615613,-29,-4,-4,-7,-7,-8,-4,-22
1530692350637554,-20,10,3,2,4,19,2,19
1530692350637554,32,-5,-3,-2,-6,-11,-2,-2
1530692350638552,-37,-2,1,-1,2,16,3,-6
1530692350638552,17,-8,-1,-1,0,11,3,28
1530692350651517,46,3,0,-1,-1,-4,-1,-33
1530692350651517,109,7,0,1,-2,-5,-4,11
1530692350660493,-14,3,2,2,3,20,4,-9
1530692350660493,2,-16,-4,1,9,-41,-8,-1
1530692350675453,49,17,2,-1,-8,-31,11,31
1530692350675453,-81,-8,-3,-1,1,15,2,-16
1530692350675453,44,25,-1,-2,-15,-8,-17,-21
1530692350675453,-64,-20,-3,-1,1,22,13,8
1530692350697394,4,-15,-6,0,11,4,2,22
1530692350697394,-35,12,3,0,-17,-25,-18,-53
1530692350698392,31,-2,0,1,5,12,7,25
1530692350698392,44,0,-4,-6,-9,2,0,-2
1530692350712354,-24,-3,-3,-6,-6,-23,-5,15
1530692350712354,-7,1,-3,0,12,18,7,-7
1530692350713352,20,17,1,-1,6,32,13,-2
1530692350713352,19,1,2,2,-5,-26,-4,8
1530692350735293,-22,-8,0,1,4,-8,3,-10
1530692350735293,-11,-9,-2,-2,3,-7,-5,50
1530692350736290,-70,-14,-4,-1,-6,-18,-10,-61
1530692350736290,52,18,4,4,19,32,8,21
1530692350757234,-30,1,-3,-3,-7,9,8,19
1530692350757234,34,-7,-1,-1,-5,-16,14,24
1530692350758232,-38,-14,-2,0,0,2,-11,-21
1530692350758232,35,17,4,0,-6,-8,-10,4
1530692350781170,-45,-8,-3,-2,2,15,-10,-46
1530692350781170,27,-2,-3,-2,-5,-4,2,13
1530692350781170,25,-4,-1,-1,-2,-22,-12,4
1530692350781170,-26,-17,-3,1,-1,1,-1,-27
1530692350795133,44,22,1,0,0,18,3,27
1530692350795133,-50,-5,-1,-3,6,-8,3,-36
1530692350796130,15,-3,-1,2,2,-5,2,24
1530692350796130,-6,1,-4,-1,-1,1,-9,-9
1530692350817074,-65,-2,4,5,6,24,5,-21
1530692350817074,12,-1,-4,-3,-2,-14,-7,-13
1530692350818072,-4,3,3,3,-2,11,6,14
1530692350818072,34,7,1,2,5,-1,5,-14
1530692350832034,-13,-11,-1,-1,-2,2,-4,17
1530692350832034,4,4,3,2,-2,21,-1,-19
1530692350840013,-3,-7,-3,-4,-5,-35,-16,-24
1530692350840013,-36,-7,-3,-2,-4,15,8,11
1530692350854973,7,14,3,2,1,4,-8,-17
1530692350854973,37,3,1,0,-2,-6,3,11
1530692350855970,-57,-10,-3,-2,3,-3,-1,-4
1530692350855970,52,1,-3,-3,-7,29,2,10
1530692350877911,-46,-16,-7,-7,-14,-26,-1,-19
1530692350877911,12,11,4,5,12,17,6,1
1530692350877911,-11,-6,-1,-3,1,9,9,16
1530692350877911,-3,-2,-2,-1,-5,-12,-4,69
1530692350891874,35,4,-1,0,1,-17,-16,-81
1530692350891874,-7,-2,-4,-2,-3,-6,-2,26
1530692350899853,-9,-4,-4,-2,-3,11,14,-8
1530692350899853,-37,-13,-2,-5,-2,-24,-9,-18
1530692350914813,-29,-4,-5,-4,-3,10,0,14
1530692350914813,87,8,-1,2,2,-8,-4,-10
1530692350915811,28,-1,-1,-1,-11,-12,-8,-6
1530692350915811,26,-2,-1,1,4,37,17,-1
1530692350937752,-66,-5,-4,-8,0,-2,-19,-9
1530692350937752,-21,4,6,1,-14,-25,-10,-14
1530692350938749,-13,1,1,1,-4,-11,-18,-18
1530692350938749,-2,3,2,-1,3,16,-3,-19
1530692350951714,17,3,0,2,-6,3,2,22
1530692350951714,23,-7,-6,-2,7,3,4,17
1530692350959692,-23,2,-4,-4,0,11,0,-6
1530692350959692,-94,-4,-1,1,-1,-15,-5,1
1530692350974653,42,-15,-3,-5,-2,0,11,23
1530692350974653,-36,-4,1,-1,-3,-13,-8,-8
1530692350975650,15,-3,2,2,1,3,5,27
1530692350975650,119,21,1,1,2,-8,2,0
1530692350997591,-97,-11,-5,-3,-3,5,2,-35
1530692350997591,58,-4,0,-1,4,19,5,12
1530692350998589,58,-16,-3,-3,-11,-19,-4,12
1530692350998589,-85,3,-1,0,5,17,6,-40
1530692351011554,110,13,7,2,-4,-36,3,36
1530692351011554,-105,-11,-5,-2,-10,8,-25,-51
1530692351020530,-1,-1,2,-1,10,8,13,29
1530692351020530,-51,5,4,2,-1,-9,-13,-26
1530692351035490,17,-3,-2,-1,1,5,8,27
1530692351035490,23,5,-2,-3,-1,13,5,1
1530692351035490,54,6,-2,-2,-1,-37,-5,6
1530692351035490,-11,-2,1,-2,-1,3,12,14
1530692351057432,-21,5,4,2,6,9,-2,-16
1530692351057432,48,5,2,-1,-3,-8,-10,28
1530692351058429,27,1,-4,-2,7,16,1,-38
1530692351058429,98,-2,-5,-8,-10,41,9,7
1530692351072391,12,0,-2,-2,4,-59,-7,12
1530692351072391,10,2,2,0,-11,-9,-5,-12
1530692351080370,-28,-11,0,1,0,-9,-4,10
1530692351080370,-23,1,0,2,3,-7,-18,-28
1530692351095330,46,0,-3,-2,1,31,16,35
1530692351095330,-28,8,5,1,1,-1,-2,-10
1530692351096327,-21,-4,-3,-2,5,1,2,16
1530692351096327,19,-5,2,1,-2,-12,-6,-22
1530692351117271,-33,-8,-1,1,0,40,6,-10
1530692351117271,-26,0,0,1,1,-41,-22,-1
1530692351118269,13,13,-1,-1,0,24,7,13
1530692351118269,-9,-8,-1,-3,-4,-19,-3,-2
1530692351132231,24,1,-2,-2,-7,7,-9,-62
1530692351132231,-10,8,4,1,5,-15,-7,-1
1530692351140210,40,1,-1,2,-2,31,6,13
1530692351140210,12,-3,0,-1,-2,-7,8,9
1530692351155170,16,6,0,-2,0,-12,-6,-28
1530692351155170,9,5,-2,-3,4,1,12,52
1530692351156168,-98,-17,-4,-1,-6,14,-7,-35
1530692351156168,53,16,-2,-1,0,-25,-4,64
1530692351177111,-53,3,7,7,4,25,-1,-66
1530692351177111,-41,-9,-6,-3,-1,-63,3,-8
1530692351178109,18,-6,3,3,9,-1,5,5
1530692351178109,19,-8,-6,-3,-1,2,-4,-19
1530692351201047,-37,-8,-4,-2,-3,2,0,33
1530692351201047,19,15,-1,-3,-4,28,9,-17
1530692351202045,18,1,0,-2,-1,-6,-7,-15
1530692351202045,-21,-8,-1,-1,-3,-12,2,-19
1530692351215010,7,-4,3,1,1,-8,-15,30
1530692351215010,32,-6,-8,-2,0,-2,3,-6
1530692351216008,-28,7,-2,-3,-2,18,9,-22
1530692351216008,71,-12,0,2,0,-8,-6,56
1530692351237949,-31,24,4,0,-4,-15,-9,13
1530692351237949,35,-12,-1,0,4,27,15,26
1530692351237949,3,9,2,-2,0,-10,-4,-30
1530692351237949,14,-14,-4,-6,-6,-6,-2,-8
1530692351260887,-7,-2,-4,0,5,8,1,-2
1530692351260887,102,-3,-4,-3,-18,25,4,26
1530692351261885,36,6,2,3,5,-39,-12,7
1530692351261885,-12,8,3,4,7,29,10,-28
1530692351274850,80,-16,-2,-1,-4,-22,1,49
1530692351274850,-45,3,-2,-2,3,26,-2,-67
1530692351275848,4,0,-3,-3,-3,2,-1,31
1530692351275848,-22,2,0,0,-4,-20,-9,-22
1530692351297788,-30,-4,-1,-2,2,20,4,9
1530692351297788,-37,-8,1,1,7,-9,-1,11
1530692351298786,46,1,-2,-2,-14,-25,5,-28
1530692351298786,2,2,1,0,8,3,5,103
1530692351320727,8,7,-4,-4,-5,-6,1,-86
1530692351320727,-17,-7,3,2,2,-6,-8,3
1530692351321725,-27,-2,-2,-2,2,10,2,19
1530692351321725,32,6,-2,-1,-4,0,-7,-42
1530692351334690,-15,-4,0,2,3,10,0,29
1530692351334690,44,4,0,-2,-11,-31,-7,7
1530692351335688,-42,-8,-4,0,1,13,14,-3
1530692351335688,15,3,-3,-4,-13,-26,-19,-8
1530692351357629,20,-2,2,4,7,2,16,34
1530692351357629,-29,-2,0,0,2,4,-6,-68
1530692351358626,39,4,0,-2,-1,-14,0,28
1530692351358626,-47,-9,-3,-3,-1,11,19,17
1530692351380567,-72,-10,-6,-1,-2,-12,-4,-17
1530692351380567,36,2,-1,-2,-1,-6,-4,15
1530692351381565,10,-3,-3,0,-2,5,-2,-18
1530692351381565,-24,2,-4,-4,-3,-3,-12,3
1530692351395527,40,5,1,-3,-4,-2,2,21
1530692351395527,10,-21,-5,-2,0,10,8,-3
1530692351395527,-25,3,0,-5,-3,10,-11,-3
1530692351395527,27,5,-1,2,-1,-3,1,-18
1530692351417469,8,-11,-3,-1,2,-34,-6,23
1530692351417469,18,5,-1,0,1,14,10,5
1530692351418466,-7,-4,-3,-2,-3,-1,-2,19
1530692351418466,-35,-5,-2,-1,0,-4,-1,-38
1530692351440407,21,11,3,0,2,30,-10,-10
1530692351440407,-42,-19,-2,0,-1,19,23,41
1530692351441405,9,7,2,0,-1,4,-10,-24
1530692351441405,-11,12,2,1,-3,-14,9,3
1530692351455367,37,-10,-5,-4,-7,-13,-8,-32
1530692351455367,-6,9,-1,3,5,-5,-2,-6
1530692351456365,15,-10,-2,1,0,-4,1,22
1530692351456365,-40,-9,-3,-1,0,9,2,15
1530692351477308,29,15,5,4,-1,6,-1,26
1530692351477308,-31,-7,1,0,0,-12,-17,-46
1530692351478306,49,3,-4,1,-2,1,5,48
1530692351478306,11,13,6,2,2,-16,-7,-61
1530692351500247,2,-10,-5,-3,-2,1,-3,-20
1530692351500247,-20,6,2,1,11,36,7,47
1530692351501245,-26,8,2,0,-9,-20,-12,-14
1530692351501245,-41,-8,-2,-1,-2,18,6,10
1530692351515207,81,6,0,-3,-4,-2,13,40
1530692351515207,-80,-4,-4,-1,3,-36,-24,-66
1530692351516205,7,-6,-1,-3,7,25,9,4
1530692351516205,65,1,2,1,-8,-17,-18,-9
1530692351537148,-2,2,1,1,2,17,12,19
1530692351537148,-23,-2,-1,2,4,-3,1,-8
1530692351538146,17,6,0,0,2,4,1,-8
1530692351538146,-29,-7,-4,-2,0,27,-1,-12
1530692351560087,-44,-4,3,-2,-6,-55,-15,0
1530692351560087,39,2,-2,-2,-4,10,6,5
1530692351561085,9,6,-1,-1,-2,0,-1,-12
1530692351561085,-2,-5,-4,-6,3,24,9,8
1530692351575047,-26,1,0,-2,-8,1,-19,-42
1530692351575047,39,3,-1,-2,-5,-1,15,45
1530692351576045,-13,-5,1,0,-3,-15,-6,-5
1530692351576045,-63,-6,-3,-1,4,-9,0,-12
1530692351597985,50,10,1,1,5,49,12,16
1530692351597985,24,-3,-2,0,-2,-23,-21,19
1530692351597985,16,0,1,0,-14,-8,5,-30
1530692351597985,-8,1,1,-2,0,-15,1,63
1530692351619927,-39,-6,-2,-1,6,-4,6,-33
1530692351619927,-39,7,-1,-1,-2,5,-12,-17
1530692351620925,-39,-9,-1,0,3,8,-5,11
1530692351620925,67,3,1,3,-1,6,7,-10
1530692351634887,-34,-7,1,3,10,18,2,-16
1530692351634887,56,-3,-3,-4,-12,-11,2,13
1530692351635885,13,2,-2,-2,1,0,-1,14
1530692351635885,26,0,2,0,0,-13,1,8
1530692351657826,40,3,-1,-1,-3,5,-8,2
1530692351657826,-24,-11,1,-2,4,-19,2,-11
1530692351658823,-6,-6,-4,-2,7,23,-3,-6
1530692351658823,18,-9,-1,0,-3,-6,11,56
1530692351679767,-20,11,-4,1,-12,-33,-10,-50
1530692351679767,0,-8,0,1,-5,-9,-18,-23
1530692351680765,-29,7,6,2,0,-7,-5,-42
1530692351680765,-58,-5,-6,-4,2,2,0,-11
1530692351694727,5,-4,3,-1,-3,7,1,0
1530692351694727,17,-5,-4,-3,-4,-5,3,0
1530692351695724,-2,-3,-3,0,5,16,5,-4
1530692351695724,27,-5,-1,0,0,-4,-10,-42
1530692351717666,-29,8,-2,-4,-5,-13,-3,9
1530692351717666,-7,5,2,1,0,7,2,6
1530692351718663,9,-5,-1,0,7,17,6,25
1530692351718663,29,1,-1,0,-6,-23,-3,-22
1530692351739607,29,-4,-4,-1,1,6,10,35
1530692351739607,-45,2,1,-1,4,29,13,28
1530692351740604,23,-3,-1,-3,-10,-40,-16,-52
1530692351740604,9,4,-6,-5,-3,-46,9,33
1530692351755565,-35,-22,-1,1,6,29,1,11
1530692351755565,42,5,1,-2,-7,-27,-13,-24
1530692351755565,-44,-8,-7,-4,3,17,17,38
1530692351755565,-1,20,3,-2,-1,30,-1,-35
1530692351777506,23,-4,2,1,1,-3,8,31
1530692351777506,-24,2,-3,-3,-4,-6,-2,1
1530692351778503,24,-1,0,1,3,-8,-14,-20
1530692351778503,11,1,2,3,-1,18,-2,-42
1530692351800444,-17,-4,0,-1,-2,-20,0,19
1530692351800444,-1,-3,-2,-1,6,33,13,-16
1530692351800444,-21,-8,-3,-2,-1,-14,-6,7
1530692351800444,26,9,-4,-5,0,46,-5,2
1530692351814407,25,-3,3,3,2,-62,0,-14
1530692351814407,-44,3,4,2,0,9,3,41
1530692351822385,-16,-5,-2,-3,-5,-2,-2,-20
1530692351822385,60,-5,-2,1,3,10,10,20
1530692351837346,29,6,-1,-1,3,15,11,8
1530692351837346,-44,-6,-4,-5,-11,-10,-18,-12
1530692351838343,27,14,2,0,1,11,9,17
1530692351838343,-47,-3,2,2,-3,-12,-11,-3
1530692351860284,31,6,0,1,0,12,3,-4
1530692351860284,14,-5,-1,-1,-3,-11,4,6
1530692351861282,-32,-9,-4,-4,-11,-19,-11,-18
1530692351861282,45,1,3,3,8,19,0,-11
1530692351874247,-78,-4,-5,-6,-4,-17,-7,-11
1530692351874247,11,-5,-6,-2,2,9,8,-16
1530692351882225,-4,-2,2,1,-2,-7,-4,5
1530692351882225,35,5,2,1,3,-2,-2,23
1530692351897185,-34,0,-3,-3,-9,20,-8,-10
1530692351897185,91,8,2,2,-6,-44,-5,-17
1530692351898183,-93,-7,0,1,5,8,8,31
1530692351898183,15,-3,-2,-1,-4,-1,-6,-14
1530692351920124,20,16,1,-3,0,15,3,12
1530692351920124,-33,-4,1,-1,-5,-16,-7,4
1530692351921122,15,3,3,2,3,8,7,-12
1530692351921122,5,-9,-3,-4,-6,-26,-4,9
1530692351934087,43,4,0,-3,4,18,15,26
1530692351934087,14,4,2,1,5,23,-3,14
1530692351943063,2,0,-2,-3,-6,-12,-12,-22
1530692351943063,-6,1,0,2,-1,-13,-9,2
1530692351958023,21,-3,1,4,1,4,2,4
1530692351958023,-18,2,-3,-2,1,10,-1,-8
1530692351958023,54,7,-3,-2,0,-7,3,7
1530692351958023,2,-10,-2,-2,5,-13,-9,-8
1530692351979964,4,6,-4,-3,-13,-11,-9,-15
1530692351979964,2,1,2,1,-7,27,15,-2
1530692351980962,-12,-5,-3,-1,-2,8,1,101
1530692351980962,25,1,-1,-4,-2,-3,-2,-68
1530692351994924,-70,-6,-1,0,1,8,-12,-25
1530692351994924,-62,-11,-3,-1,9,-10,-6,-2
1530692352002903,82,13,6,0,2,11,5,-9
1530692352002903,-26,-12,-4,-1,-5,1,0,11
1530692352017863,28,2,-1,-2,0,-4,0,14
1530692352017863,-32,2,-3,-1,-4,6,4,4
1530692352018860,-22,-2,-3,-1,0,-6,-6,-28
1530692352018860,-13,-1,0,0,1,-2,0,0
1530692352039804,13,6,2,0,0,-9,0,-6
1530692352039804,63,-4,0,0,2,-6,7,20
1530692352040802,63,6,-1,0,0,-1,1,-16
1530692352040802,-107,0,2,2,-1,1,-10,-6
1530692352054764,0,-6,-4,-4,0,-16,4,6
1530692352054764,35,-2,-4,-4,-18,-34,-19,-27
1530692352062743,-20,-8,3,4,19,54,11,9
1530692352062743,60,5,-2,-2,4,-17,0,24
1530692352077703,-27,-5,-3,-2,-10,10,-2,16
1530692352077703,12,-3,0,-3,5,-9,-8,-60
1530692352078701,-28,-1,-2,-2,-10,16,19,30
1530692352078701,4,-17,-7,-5,0,-7,-8,14
1530692352099644,-67,5,-1,3,3,-1,-13,-52
1530692352099644,50,3,0,1,0,10,6,34
1530692352100642,-22,-14,-2,0,-1,-11,-9,-19
1530692352100642,5,-3,0,4,0,9,4,-9
1530692352123580,29,-9,2,0,-2,-12,-2,2
1530692352123580,-5,2,-3,0,0,12,6,16
1530692352124578,-43,3,-1,-2,-2,-19,-5,-11
1530692352124578,23,6,1,-1,-6,-4,4,7
1530692352137543,-23,-13,-8,-7,-6,-9,2,-10
1530692352137543,-21,4,3,-1,6,31,2,7
1530692352138540,36,1,2,1,-4,-20,-12,-2
1530692352138540,-47,2,4,2,-1,3,-5,1
1530692352160481,55,-7,-5,-6,1,-1,3,-6
1530692352160481,-13,1,2,3,1,14,-2,31
1530692352160481,2,15,-5,-3,-2,-9,2,8
1530692352160481,7,2,0,-2,-8,43,2,-12
1530692352183420,21,1,3,2,1,-25,-6,3
1530692352183420,-53,-14,2,2,13,-25,-15,-25
1530692352184418,-14,1,0,-1,-10,23,8,-12
1530692352184418,-10,-2,-2,0,0,-1,2,18
1530692352197383,44,-9,-3,1,4,17,3,-5
1530692352197383,17,22,-2,-2,-2,2,4,9
1530692352198380,22,-10,-2,-2,-3,-16,-2,11
1530692352198380,0,4,5,0,5,1,5,2
1530692352220321,46,6,0,0,0,17,-2,13
1530692352220321,-13,-7,0,1,-7,-22,-3,-6
1530692352221319,35,3,2,-1,5,19,-3,4
1530692352221319,-23,-13,-6,-3,-5,-67,6,0
1530692352243260,-52,-3,2,2,0,-31,-21,-44
1530692352243260,108,5,1,2,4,19,18,39
1530692352244257,-71,-7,-2,-3,-5,-17,-17,-29
1530692352244257,-13,-2,-1,0,-3,3,-8,-10
1530692352257223,17,5,0,0,8,15,13,22
1530692352257223,5,6,2,-1,0,-13,-8,-24
1530692352258220,71,-3,-1,0,-5,-3,1,17
1530692352258220,-74,-5,-4,0,2,4,1,-26
1530692352280161,60,12,2,2,-5,-12,10,-8
1530692352280161,-97,-17,-5,-5,1,20,6,35
1530692352281159,56,9,3,3,0,-14,-7,3
1530692352281159,-3,0,3,-2,-1,21,-2,8
1530692352303100,1,-1,-3,-1,1,-15,-6,-4
1530692352303100,34,-2,-5,-1,-11,-1,2,0
1530692352304098,-96,-6,0,1,4,-2,-5,-22
1530692352304098,68,1,-2,-3,-5,-11,7,4
1530692352318060,-62,-7,1,-3,1,14,8,19
1530692352318060,19,3,1,-1,2,7,1,-27
1530692352318060,17,3,-1,0,-2,1,-12,24
1530692352318060,11,-7,-5,-2,-5,-75,-17,-26
1530692352340001,6,-3,1,4,7,18,7,8
1530692352340001,-9,-1,0,2,-6,-10,-4,-14
1530692352340999,-10,-3,-1,-3,4,5,11,1
1530692352340999,12,-3,0,-2,1,23,-8,2
1530692352362940,-24,2,-1,-1,-10,10,1,46
1530692352362940,-103,-8,-1,-3,-2,-19,6,-19
1530692352363937,-11,-5,-3,-3,-5,-12,1,-11
1530692352363937,-8,4,2,5,18,46,-3,-2
1530692352377900,-5,-6,-6,-6,-19,-28,1,-24
1530692352377900,44,-7,0,0,2,12,-6,20
1530692352378898,-59,-3,-1,0,-1,-10,-4,-29
1530692352378898,44,10,1,-2,-2,-3,6,49
1530692352399842,-15,-8,2,1,5,10,-2,3
1530692352399842,-27,-1,-5,-5,-5,-11,-5,-17
1530692352400839,66,-8,7,4,1,-11,-4,-17
1530692352400839,-84,2,-3,-4,-5,-1,-1,-17
1530692352423777,29,7,1,0,1,0,-6,31
1530692352423777,21,-2,-2,-2,2,27,9,-24
1530692352423777,-12,-1,-6,-5,-4,-19,0,41
1530692352423777,19,4,3,1,-3,9,0,-18
1530692352437740,-3,-2,3,1,1,11,-1,0
1530692352437740,-26,10,1,1,5,-20,-6,-11
1530692352438737,-17,-4,-5,1,0,43,9,-29
1530692352438737,6,-9,-3,0,-5,-1,8,88
1530692352459681,40,1,-1,-1,-3,-8,-1,-36
1530692352459681,16,5,1,-1,-4,-5,-7,-1
1530692352460679,10,1,2,2,7,22,6,22
1530692352460679,-37,-5,1,-3,-11,-19,1,17
1530692352483617,10,-3,-1,0,2,18,11,16
1530692352483617,25,10,0,0,2,18,3,-3
1530692352484615,36,-9,-5,-5,-7,-20,-12,4
1530692352484615,11,6,-1,0,2,1,-2,-21
1530692352497580,9,-1,-3,-2,-1,-10,-1,1
1530692352497580,-28,-8,0,3,-1,-7,-5,-4
1530692352498578,22,7,1,-1,1,-13,1,-8
1530692352498578,24,-4,-1,-1,-1,11,1,-19
1530692352520518,-23,-3,-4,-2,-2,19,-2,-9
1530692352520518,23,5,-1,-2,-4,-8,-2,29
1530692352520518,-45,-13,-4,-4,-6,-27,-6,-14
1530692352520518,27,6,1,2,2,26,-6,-21
1530692352543457,5,0,1,-1,3,1,2,6
1530692352543457,-19,-3,-1,-2,-1,-30,-18,-6
1530692352544455,19,-3,-2,-1,-5,-23,-2,-7
1530692352544455,-25,0,1,1,-3,23,15,-1
1530692352557420,-16,-3,-2,-1,-5,-26,-10,23
1530692352557420,4,-8,-5,-2,-1,-23,-4,-41
1530692352558417,27,12,2,2,4,4,-1,58
1530692352558417,23,-6,-5,-4,-1,-5,-6,-1
1530692352580358,-31,-1,2,4,0,13,-2,-5
1530692352580358,60,-3,-4,-5,0,19,17,26
1530692352581356,-58,-7,-3,-4,-9,-22,-3,8
1530692352581356,15,-3,-2,-1,-2,18,11,-34
1530692352603297,47,8,-1,0,1,-16,-10,-29
1530692352603297,-1,-3,-1,2,2,11,10,42
1530692352604295,55,10,4,3,1,7,2,25
1530692352604295,-60,-16,-7,-5,-2,-23,-10,-35
1530692352617260,62,13,3,-3,-5,-7,-5,-2
1530692352617260,-20,-1,2,-4,-6,9,4,-17
1530692352618258,-14,-5,-3,-4,-9,51,8,-19
1530692352618258,26,10,3,1,1,-52,-19,25
1530692352640198,-64,-10,-5,-1,-1,2,14,-1
1530692352640198,4,5,3,1,3,-3,-16,-31
1530692352641196,-9,-4,-3,2,5,0,7,-8
1530692352641196,-22,-8,-5,-2,-3,33,-11,-4
1530692352663137,8,-3,-3,-1,-4,-6,7,18
1530692352663137,14,2,-3,-3,-7,-13,-3,4
1530692352664135,-72,-6,0,0,2,-26,-5,-62
1530692352664135,81,7,-4,-1,5,20,26,67
1530692352678097,-23,4,2,2,9,-16,-17,5
1530692352678097,17,7,3,2,1,24,9,-5
1530692352678097,32,-5,-2,-3,-1,-5,1,10
1530692352678097,-5,4,-2,-2,-1,-2,8,-11
1530692352700038,-54,-11,-1,-4,-5,8,8,-7
1530692352700038,14,3,2,2,2,-6,-10,11
1530692352701036,10,5,1,1,2,20,4,-5
1530692352701036,-61,-1,0,-1,3,-19,-10,-7
1530692352730955,7,-1,-2,-5,-11,-33,-13,-10
1530692352730955,15,-4,1,0,9,71,12,10
1530692352731953,-9,-3,-1,-3,4,-21,-11,8
1530692352731953,42,3,4,2,-1,1,-16,-15
1530692352736940,-1,4,1,2,3,-15,-9,-25
1530692352736940,5,-7,-4,-1,0,7,7,37
1530692352744918,-6,3,-1,0,-2,17,7,-8
1530692352744918,1,-8,-2,-1,-3,-14,-3,-3
1530692352759878,-89,-5,-5,-1,2,17,-1,-10
1530692352759878,22,-3,-1,0,-2,-19,0,-1
1530692352760876,31,4,2,0,0,9,-13,-41
1530692352760876,-6,0,5,4,5,-9,0,-3
1530692352782818,-21,-8,-4,-4,-16,8,-2,-18
1530692352782818,-26,0,1,2,-8,-11,-3,33
1530692352784812,-25,-4,-2,-1,-2,6,-6,-40
1530692352784812,20,3,-2,-2,1,34,7,9
1530692352796780,39,5,2,-1,12,31,6,-2
1530692352796780,-36,-5,-5,-5,-8,-70,-27,-30
1530692352804758,55,6,2,1,3,15,8,16
1530692352804758,-62,-2,2,3,2,-2,-3,0
1530692352819718,44,3,0,1,8,13,12,-16
1530692352819718,-35,-8,-3,-2,-8,-16,-4,28
1530692352820716,9,-1,-2,-4,-6,-13,1,-1
1530692352820716,36,10,0,-1,-1,-4,2,57
1530692352842657,-79,-12,-3,-1,-3,-15,-10,-31
1530692352842657,-16,3,1,-4,-2,5,3,-25
1530692352843655,41,-2,-2,-1,1,35,-4,3
1530692352843655,14,2,0,-2,-16,-47,0,-9
1530692352856620,1,4,1,1,1,5,-14,13
1530692352856620,52,8,-1,-2,3,15,5,-1
1530692352865596,-40,6,-1,0,0,-2,-4,2
1530692352865596,-61,-7,-2,-3,-4,2,-7,-43
1530692352880556,26,-3,0,0,2,-4,0,15
1530692352880556,5,-8,-3,-2,4,-13,-3,-34
1530692352880556,18,1,2,-2,-5,-17,-3,29
1530692352880556,-74,-6,-4,-1,-1,2,3,-30
1530692352902497,47,17,5,1,-7,-29,-15,36
1530692352902497,30,-4,-1,1,6,23,20,10
1530692352903495,32,6,1,2,0,-6,1,19
1530692352903495,-25,-9,-1,1,-2,5,-1,-12
1530692352916460,15,6,3,0,9,6,8,7
1530692352916460,-17,-5,-2,-1,-4,-7,-13,-18
1530692352925435,-20,7,1,-2,2,-2,-6,28
1530692352925435,24,-7,2,1,-1,-28,12,-5
1530692352940395,5,2,-5,-3,-4,-37,-7,-8
1530692352940395,30,4,-2,-1,-7,3,9,19
1530692352941393,-13,-3,0,1,0,-12,6,-7
1530692352941393,45,2,-3,-4,3,25,6,10
1530692352962337,32,-2,2,3,4,33,-4,-15
1530692352962337,13,-9,0,1,1,-24,-6,15
1530692352963335,-88,-20,-9,-5,-9,-18,-17,-49
1530692352963335,31,13,0,-2,2,9,9,9
1530692352986273,-3,-1,-1,-1,-7,5,11,58
1530692352986273,-11,-17,0,2,5,20,-8,-93
1530692352986273,89,12,0,-2,-7,-7,12,44
1530692352986273,-56,-2,-3,-4,1,-5,-20,-40
1530692353000236,-55,-3,0,2,-1,-25,3,-11
1530692353000236,-20,-2,-2,-4,1,35,8,19
1530692353001233,0,-7,0,1,5,-24,-4,15
1530692353001233,57,2,4,2,-4,-13,18,22
1530692353022177,16,-3,-2,-4,-8,-16,-6,-17
1530692353022177,-17,2,0,1,-5,-3,-1,7
1530692353023175,-31,-4,-2,0,7,-4,3,-5
1530692353023175,23,11,1,-1,-2,7,-5,11
1530692353037137,20,-11,0,-2,0,19,4,2
1530692353037137,-41,9,-2,-6,-5,-9,2,8
1530692353045115,11,3,1,2,1,15,7,6
1530692353045115,9,-2,-1,-2,-2,-6,-5,47
1530692353060075,13,-13,-5,-2,-4,14,-2,-63
1530692353060075,-26,9,-4,-2,-4,-5,-6,-6
1530692353061073,12,0,0,-1,0,-10,-3,-12
1530692353061073,6,-8,-1,1,-2,15,-1,32
1530692353083014,17,-4,-3,-2,3,-6,-5,-60
1530692353083014,39,-1,-1,2,1,0,7,32
1530692353083014,-37,0,0,-3,1,-2,-10,-22
1530692353083014,3,-4,-3,-3,0,-13,-6,-1
1530692353105953,1,2,0,1,5,10,14,36
1530692353105953,-13,-2,0,0,4,-4,-1,1
1530692353106950,-8,-5,-1,-2,-2,20,-13,-33
1530692353106950,0,-3,-4,-5,-2,-41,-6,-3
1530692353119916,-41,-1,-2,-1,-2,8,-1,4
1530692353119916,37,-1,2,1,0,3,0,-41
1530692353120913,34,1,-3,0,-2,7,16,114
1530692353120913,-42,-8,0,-2,3,26,1,-74
1530692353142854,52,9,-5,-6,-15,-14,-8,11
1530692353142854,-33,-21,-3,3,-3,-18,-12,-15
1530692353143852,61,10,1,4,8,11,6,-10
1530692353143852,-3,15,5,5,-8,1,2,13
1530692353173771,-25,-6,-4,-5,1,-16,-8,6
1530692353173771,-15,3,3,3,4,37,13,11
1530692353173771,0,-2,0,-3,-7,-36,-11,-5
1530692353173771,-29,-10,-5,-2,0,10,-7,-16
1530692353179755,14,2,3,1,7,8,-2,7
1530692353179755,-22,3,0,-4,-4,-4,-1,10
1530692353180753,-2,-5,-2,-1,2,22,3,-13
1530692353180753,-34,5,3,2,0,-4,-11,-15
1530692353202694,-21,1,1,0,-1,-11,-8,-5
1530692353202694,31,4,-3,-5,-4,-17,-5,-3
1530692353203692,2,-1,0,1,-1,4,12,-3
1530692353203692,-22,-1,-1,0,0,1,-3,-3
1530692353225633,-17,-1,0,-1,-2,11,3,13
1530692353225633,19,7,3,-9,-2,2,4,29
1530692353226630,-22,-11,-8,-2,-8,-24,-13,-41
1530692353226630,29,7,4,22,6,4,-5,-2
1530692353240593,-53,-14,-3,23,7,7,1,-1
1530692353240593,79,14,1,-1,-1,16,6,13
1530692353240593,-25,16,2,-2,1,-37,-20,-34
1530692353240593,-24,-12,-7,-15,-11,-30,3,23
1530692353262534,58,16,5,-7,-17,-3,0,-6
1530692353262534,-3,-10,-4,-1,0,0,-9,19
1530692353263532,-28,-4,-4,-5,-2,14,9,-41
1530692353263532,34,-2,1,-2,6,16,-4,-13
1530692353285473,16,4,1,-2,3,-11,-2,9
1530692353285473,5,9,1,1,-3,-5,-8,-4
1530692353286470,-29,1,0,1,2,20,-3,-27
1530692353286470,52,-4,-2,0,-7,-40,-1,43
1530692353300433,1,-7,-5,-6,4,0,1,15
1530692353300433,3,2,3,3,-3,17,6,-52
1530692353300433,-90,-22,1,5,3,11,-2,5
1530692353300433,-8,10,-2,-4,1,8,-6,-15
1530692353322374,-5,4,0,-3,-2,-2,1,-3
1530692353322374,-23,-6,2,5,14,8,0,13
1530692353323372,22,-3,-4,-4,-19,-2,1,27
1530692353323372,-23,-13,0,-2,-1,-42,5,-31
1530692353345312,-2,-7,-4,-2,1,6,0,13
1530692353345312,19,4,-4,-3,-2,-9,-2,-3
1530692353346310,-16,-5,0,2,2,16,-3,2
1530692353346310,38,6,5,2,7,21,-13,-11
1530692353360273,-20,6,1,-1,-1,1,9,55
1530692353360273,73,-8,-3,-1,-3,-16,-7,-14
1530692353361270,-29,1,0,-5,-2,-7,-7,-19
1530692353361270,-8,-11,-3,-1,2,20,11,0
1530692353382214,106,9,2,1,4,5,2,-10
1530692353382214,-109,-4,-1,0,-9,-14,-13,-48
1530692353383211,57,0,-2,-3,-1,-7,4,34
1530692353383211,39,9,1,3,12,46,19,19
1530692353406150,-48,-16,-3,-1,-7,11,-8,-37
1530692353406150,3,2,-1,-1,-2,-32,7,48
1530692353406150,14,5,1,3,-2,22,4,-9
1530692353406150,0,5,2,0,2,-42,-6,7
1530692353420113,-34,-27,-4,-2,4,1,-2,0
1530692353420113,77,17,-2,-4,-6,-1,4,-2
1530692353421110,-71,-7,-1,-2,0,-10,-1,-8
1530692353421110,2,-3,-2,-2,-7,18,-8,-8
1530692353443052,40,9,0,0,-1,-3,-3,-2
1530692353443052,-32,-15,-1,-1,3,-15,-5,-10
1530692353443052,52,13,6,5,5,8,4,13
1530692353443052,-48,1,-5,-5,-8,4,0,-10
1530692353465990,-6,0,0,-2,-1,-10,4,2
1530692353465990,-92,-21,-3,-3,0,11,-2,-18
1530692353466988,87,15,1,2,4,-1,9,16
1530692353466988,15,0,-4,-1,-2,-1,-8,-14
1530692353479952,-67,1,1,0,-1,0,-4,-6
1530692353479952,45,-4,-1,0,0,7,5,17
1530692353487931,-21,12,4,1,-6,-16,-13,-6
1530692353487931,54,-3,-3,-4,-4,4,9,13
1530692353502892,-10,-5,-2,-4,6,5,-8,-22
1530692353502892,-7,0,2,-1,-11,-27,-2,12
1530692353503889,-17,-18,-9,-6,-7,3,-1,-4
1530692353503889,-31,-3,1,0,8,-12,-9,-11
1530692353525830,9,6,3,1,-8,-4,8,-26
1530692353525830,-31,0,-3,0,1,9,-7,43
1530692353526828,-30,-7,-3,-4,0,-1,6,8
1530692353526828,-9,-2,-3,-2,-6,2,4,-10
1530692353539792,66,-7,0,-1,1,-15,-17,7
1530692353539792,37,12,0,2,4,3,9,-15
1530692353540790,35,0,-4,-3,-3,-1,11,35
1530692353540790,-3,-4,-5,-6,3,15,-23,-53
1530692353562731,-18,0,2,4,-2,0,11,16
1530692353562731,12,11,0,-3,0,23,7,3
1530692353563729,-21,-12,-3,-2,3,4,0,8
1530692353563729,-1,-1,-1,2,-2,-12,7,-1
1530692353585670,15,7,1,-2,3,10,5,29
1530692353585670,-59,-13,-6,-8,-13,7,-24,-41
1530692353586667,-11,1,0,-8,3,-29,17,-8
1530692353586667,26,4,3,22,4,-12,-10,24
1530692353599633,-17,-3,-6,-4,-3,5,-1,-16
1530692353599633,33,-1,-1,0,5,3,3,3
1530692353600630,-12,-7,-1,-6,-1,-6,-10,-19
1530692353600630,69,9,6,0,-1,11,7,-9
1530692353622571,21,2,-2,1,-2,-3,0,7
1530692353622571,-15,-9,-3,0,1,-2,2,-2
1530692353623569,-3,-19,-2,3,2,-1,-6,34
1530692353623569,41,20,0,-6,-3,10,1,-42
1530692353645510,-23,4,5,3,-2,-12,-13,-16
1530692353645510,10,-19,-2,2,5,3,3,24
1530692353646508,-20,1,0,5,4,-5,-9,-16
1530692353646508,-31,-12,-2,-3,-11,3,2,31
1530692353659472,17,1,-3,-6,-5,-2,4,-13
1530692353659472,-12,4,-1,-1,0,-6,-3,-4
1530692353667451,1,5,1,4,5,4,0,11
1530692353667451,-12,-12,-5,-5,-9,-9,7,-3
1530692353682411,8,8,7,4,6,17,-9,-16
1530692353682411,-34,0,-1,-3,-6,-17,-18,-1
1530692353683409,74,4,-1,4,2,2,-5,-23
1530692353683409,-30,0,-2,-4,0,-8,-1,15
1530692353705350,8,-13,-5,-1,-4,51,5,5
1530692353705350,79,12,1,3,1,-36,-7,3
1530692353706347,-27,-2,-1,-1,-3,5,-8,-21
1530692353706347,-35,-9,-3,-3,-2,7,-7,1
1530692353719313,17,3,-3,-3,0,10,12,-4
1530692353719313,-3,6,5,3,2,2,-3,-8
1530692353727291,-11,1,-1,-2,-2,-2,4,15
1530692353727291,2,-6,1,0,1,8,7,30
1530692353742251,-29,-13,-5,0,6,-18,-11,-26
1530692353742251,-18,23,2,-2,-3,26,15,22
1530692353743249,29,-12,-1,-3,-18,-37,-16,-17
1530692353743249,-2,-4,0,2,1,4,8,16
1530692353766188,-10,7,1,0,-1,-10,-2,-2
1530692353766188,-14,-10,0,1,6,7,-3,-13
1530692353766188,5,3,0,-2,-1,16,10,9
1530692353766188,-14,0,0,-2,3,-2,-11,-12
1530692353779153,27,5,-3,-1,-8,-37,8,36
1530692353779153,-79,-5,-3,2,2,14,1,-30
1530692353788129,7,2,1,1,-2,-5,-6,-1
1530692353788129,15,4,3,2,8,-3,5,4
1530692353802091,-30,-7,-3,-3,0,10,6,22
1530692353802091,42,5,2,-2,-2,-10,-1,-6
1530692353803088,2,8,2,-3,2,-1,3,0
1530692353803088,-13,-8,-1,2,1,-2,-4,-1
1530692353826027,44,9,2,2,1,21,5,-23
1530692353826027,-30,-16,-2,1,-3,-5,-1,8
1530692353827025,1,1,-5,-1,1,-4,9,5
1530692353827025,12,15,8,5,7,-13,-1,2
1530692353838993,-10,-3,-1,-2,2,0,-4,-2
1530692353838993,16,2,0,-3,-5,6,7,15
1530692353847969,5,-3,-1,-1,-4,-12,-13,-27
1530692353847969,-5,-4,-4,-4,2,25,5,8
1530692353862928,-26,-2,1,0,-3,-20,4,21
1530692353862928,44,-2,1,1,5,12,-17,-94
1530692353862928,-60,-17,-5,-1,-1,14,-2,74
1530692353862928,91,33,-5,-3,-11,-20,-11,3
1530692353885867,-31,-12,-3,-1,-2,-10,-2,-11
1530692353885867,7,-4,0,0,0,9,6,10
1530692353886865,16,-2,-1,-1,0,-18,0,-12
1530692353886865,-16,-6,-1,-1,4,18,5,10
1530692353899830,-29,-3,-7,-5,-10,-11,-10,-4
1530692353899830,61,9,4,2,-9,-12,-4,22
1530692353907809,-15,7,2,3,9,25,13,13
1530692353907809,-101,-21,-6,-6,-12,-11,-6,-32
1530692353922768,44,9,3,3,5,-1,-1,25
1530692353922768,35,-8,-3,-1,2,3,14,17
1530692353923766,-21,6,0,0,-2,-6,-19,-18
1530692353923766,-30,-12,-4,-2,-9,-2,6,-25
1530692353944710,28,7,2,2,3,1,-9,-1
1530692353944710,35,4,-3,-2,2,-3,11,38
1530692353945708,-25,-14,0,-2,-3,8,4,-15
1530692353945708,2,0,0,2,4,41,11,12
1530692353959670,-25,-3,-1,-4,-4,-32,-28,-36
1530692353959670,6,6,-1,2,0,12,10,-3
1530692353967648,37,3,0,2,7,6,2,-38
1530692353967648,-12,-2,-2,-7,0,5,4,60
1530692353982608,-3,-8,-1,-4,-3,8,14,11
1530692353982608,-16,3,-2,2,-1,-13,-3,8
1530692353983606,45,-2,-2,-2,2,7,-7,-20
1530692353983606,0,2,2,3,-11,-25,-4,-10
1530692354005547,-25,-5,-2,-4,3,0,-6,-14
1530692354005547,19,-4,-4,-3,-5,5,10,3
1530692354005547,-75,6,4,3,-5,3,-6,10
1530692354005547,33,1,-1,-1,1,-6,-3,8
1530692354028486,-11,-3,-2,0,-1,-4,5,-16
1530692354028486,16,-5,0,-2,4,10,-4,-34
1530692354029483,-50,-1,-2,-4,-10,-13,-8,-23
1530692354029483,42,7,3,3,5,10,1,-3
1530692354042448,9,-8,-2,1,3,77,17,40
1530692354042448,-24,5,2,1,-4,-63,-24,10
1530692354043446,46,4,-1,0,2,28,4,-21
1530692354043446,13,-5,-3,-2,-3,-21,-4,14
1530692354065387,-6,-1,0,2,1,-8,-6,-24
1530692354065387,-45,-12,-5,-5,-2,9,-4,-49
1530692354066385,81,10,3,2,-2,-20,-6,75
1530692354066385,-54,5,2,2,1,7,-15,-42
1530692354096304,55,-7,-6,-3,-2,-21,11,17
1530692354096304,-14,2,3,5,-3,6,-1,16
1530692354096304,19,0,-4,-1,1,22,14,15
1530692354096304,5,-9,-3,-2,0,-53,-13,-15
1530692354102288,-21,-7,-8,-7,-4,6,20,-27
1530692354102288,-114,-10,-2,-2,-1,-10,-6,9
1530692354103286,9,6,4,3,3,11,3,25
1530692354103286,13,-4,-4,0,10,35,12,48
1530692354125227,12,12,2,1,-13,-12,-12,-66
1530692354125227,-6,-1,2,5,6,1,-14,-9
1530692354126225,59,-5,-1,-1,-6,-5,9,-12
1530692354126225,19,9,1,-2,2,0,-5,-12
1530692354148166,5,1,2,3,3,-10,-9,24
1530692354148166,18,7,1,-1,-2,19,14,24
1530692354149163,-12,2,-3,-5,0,-17,-4,-5
1530692354149163,5,-11,1,3,-1,-13,-9,-34
1530692354162129,-36,-6,-1,0,3,12,0,-17
1530692354162129,25,1,-4,-6,-8,-10,-6,35
1530692354163126,-9,-5,-1,-1,6,-1,4,8
1530692354163126,-21,-2,-2,-3,-3,2,-8,-31
1530692354185067,50,14,3,2,-5,11,18,29
1530692354185067,-33,-13,-2,2,19,-49,-20,-18
1530692354186065,-88,-5,-2,-1,-17,-4,3,-18
1530692354186065,42,-4,-3,0,-4,-12,-2,19
1530692354208005,-35,1,-3,-4,-1,9,-1,-33
1530692354208005,61,6,2,-1,1,13,12,44
1530692354209003,8,3,-1,0,2,0,1,-14
1530692354209003,-11,-1,0,1,-4,-7,3,15
1530692354222966,-62,-11,0,2,1,-7,-3,-1
1530692354222966,50,-4,-5,-6,-5,15,2,-23
1530692354222966,6,-5,-4,0,-1,-19,-7,0
1530692354222966,16,5,2,1,-1,16,13,18
1530692354244907,2,-2,-1,-2,1,-30,-11,16
1530692354244907,16,0,1,0,14,48,10,-2
1530692354245905,62,4,-1,-2,-23,-33,-9,22
1530692354245905,-52,3,0,0,-4,1,-1,-28
1530692354267846,29,4,3,4,3,14,5,31
1530692354267846,5,-5,-2,-3,-5,-37,-12,-9
1530692354268843,-1,-12,-4,-4,5,8,-6,-27
1530692354268843,23,-1,-1,-2,4,4,4,-3
1530692354282806,5,-3,1,0,0,-6,1,22
1530692354282806,-25,1,-6,-5,-10,11,7,5
1530692354283803,-17,-7,-3,-1,6,17,1,-4
1530692354283803,15,-6,-3,-2,-3,-19,-10,-23
1530692354304747,-8,7,0,2,3,14,-3,-4
1530692354304747,-3,-4,-4,-3,-7,13,10,5
1530692354305744,12,6,3,1,7,-24,-19,0
1530692354305744,-38,-3,0,0,-5,-15,16,-18
1530692354328683,13,-10,-2,1,12,2,9,31
1530692354328683,34,15,4,6,-14,-8,-16,-33
1530692354328683,-90,-1,-3,-2,-3,10,-4,-41
1530692354328683,8,-8,-4,-5,-6,6,1,21
1530692354342646,-1,4,-1,-3,1,-20,-3,-1
1530692354342646,-18,-13,-4,-4,-2,10,12,0
1530692354343643,20,3,3,2,4,-3,4,19
1530692354343643,-66,1,0,0,0,3,-8,-27
1530692354365584,14,0,-4,-4,-7,-7,-7,-2
1530692354365584,0,-2,-4,-4,1,8,4,8
1530692354365584,27,3,5,3,1,4,4,-4
1530692354365584,17,1,2,2,4,11,2,37
1530692354388523,-14,-6,-2,-1,-4,-11,-10,-3
1530692354388523,-16,-2,1,1,8,3,5,-20
1530692354389521,12,0,-2,-1,-6,11,1,20
1530692354389521,-16,-1,0,0,3,6,2,13
1530692354402486,21,2,-1,2,0,9,0,-10
1530692354402486,-9,7,1,-2,-6,-12,-6,15
1530692354403483,-25,-4,-2,-1,0,-6,4,-1
1530692354403483,4,-3,-4,-1,3,15,0,-20
1530692354425424,-29,-2,1,0,-9,-19,-20,-16
1530692354425424,5,-4,-1,-1,0,-6,6,32
1530692354426422,-38,4,5,3,10,27,-6,-48
1530692354426422,35,-6,-7,-7,-5,18,-6,22
1530692354448363,22,1,3,0,-11,-47,-3,-8
1530692354448363,-56,-9,-3,-2,-4,-15,3,29
1530692354449360,47,0,-6,-3,2,5,5,-7
1530692354449360,4,6,4,3,1,-10,0,-10
1530692354462326,13,-2,-2,-3,-2,21,-4,-4
1530692354462326,65,5,6,5,10,23,-5,-10
1530692354463323,13,-12,-5,-5,-7,-26,-3,-12
1530692354463323,-14,-3,-3,-1,-1,-9,7,23
1530692354485264,31,10,2,0,-1,-4,-4,1
1530692354485264,-27,-3,2,3,3,-7,-10,-13
1530692354486262,-21,-9,-4,-1,-2,4,-1,-19
1530692354486262,40,6,-1,-2,-4,-7,4,37
1530692354508203,21,0,0,-2,1,7,-2,-8
1530692354508203,14,2,-4,-3,-1,6,1,0
1530692354509201,-13,0,3,3,1,3,-5,-9
1530692354509201,6,-2,0,0,-1,-21,-13,-22
1530692354522166,12,-8,-5,-4,-12,8,15,19
1530692354522166,-21,8,2,3,2,0,-13,-16
1530692354523163,-30,-4,-4,-5,1,-15,-3,-11
1530692354523163,23,-3,1,2,-11,7,-1,-5
1530692354545104,26,7,2,0,12,57,8,12
1530692354545104,-6,-7,-5,-6,-6,-71,-6,-14
1530692354546102,1,6,2,5,2,6,8,29
1530692354546102,10,-1,-2,-2,4,-5,-2,-1
1530692354568043,-51,-6,-4,-2,-4,-3,-10,-29
1530692354568043,-12,-1,0,-2,-4,30,3,2
1530692354569040,24,-2,0,-1,-1,-7,1,34
1530692354569040,7,0,-1,-1,3,-10,-18,-52
1530692354582006,-24,-13,-7,-5,-3,-1,15,19
1530692354582006,33,14,9,5,4,-12,-16,-6
1530692354589984,-44,-1,-3,-1,-5,-1,-2,-8
1530692354589984,-12,1,0,2,6,21,-2,6
1530692354604944,-23,-9,-5,-6,-14,-31,-11,-48
1530692354604944,18,-3,-3,-2,1,42,21,77
1530692354605942,44,-6,1,0,1,4,4,24
1530692354605942,-44,5,-2,-3,-9,-37,-7,-23
1530692354627883,-1,1,2,1,6,25,20,29
1530692354627883,57,-7,-6,-3,-6,-27,-17,-24
1530692354628880,-13,9,1,1,-2,4,-1,5
1530692354628880,-3,-4,-3,-3,3,14,14,25
1530692354641845,22,5,3,3,4,0,-13,-8
1530692354641845,-34,-7,-4,-5,-8,-54,10,-1
1530692354649824,31,8,4,5,9,19,-1,16
1530692354649824,-17,-8,-3,-1,0,15,-11,-42
1530692354664784,7,6,-4,-5,-15,-46,-6,23
1530692354664784,-25,-1,-2,1,2,50,9,-8
1530692354665782,15,-5,-6,-4,-5,-11,0,-24
1530692354665782,40,6,1,1,-2,-4,7,65
1530692354688720,-4,-5,0,0,9,10,-1,1
1530692354688720,6,3,1,1,-1,2,-3,10
1530692354688720,-25,0,0,-2,-6,-7,10,6
1530692354688720,28,-9,-1,1,1,-4,-6,0
1530692354701685,25,-4,-3,0,5,8,-4,-16
1530692354701685,-38,4,1,3,1,-14,-7,-16
1530692354709664,34,-7,-10,-7,-3,26,12,21
1530692354709664,10,2,2,1,2,7,-16,-17
1530692354724624,-25,1,1,1,3,-17,-5,12
1530692354724624,-13,-2,0,0,-1,-4,-8,-28
1530692354725621,-10,-2,1,0,-1,-2,-4,-6
1530692354725621,-4,4,2,0,-1,0,8,2
1530692354748560,-1,0,2,3,9,10,0,1
1530692354748560,14,1,-2,-5,-9,-9,1,5
1530692354749558,-24,-1,-1,-2,-2,8,-2,3
1530692354749558,47,0,-3,-1,-1,-19,-16,0
1530692354761525,-89,2,-1,-1,-1,7,6,-56
1530692354761525,56,6,2,0,1,9,-1,3
1530692354770501,-42,-2,-1,0,-3,-4,3,16
1530692354770501,21,2,2,2,-2,-4,5,0
1530692354785462,20,6,1,3,-2,-28,-15,0
1530692354785462,-26,-12,-7,-4,0,9,-2,-12
1530692354792443,37,0,3,4,4,1,0,-2
1530692354792443,-79,-15,-8,-6,-4,6,3,1
1530692354808400,23,3,0,-1,-7,-6,15,31
1530692354808400,5,-1,1,1,5,17,0,-12
1530692354809398,6,6,3,1,7,-13,-13,-7
1530692354809398,2,4,-3,-7,-18,-33,-7,-2
1530692354822362,59,-18,-3,-2,-2,21,9,23
1530692354822362,19,2,1,1,0,-5,-8,3
1530692354830341,46,-3,-1,-2,-2,9,4,-35
1530692354830341,18,4,1,2,8,3,4,-1
1530692354845301,-28,0,-2,0,4,4,-3,-8
1530692354845301,11,2,0,1,-2,-2,3,23
1530692354846299,-12,-2,-3,-5,-3,-19,-10,-23
1530692354846299,-16,0,1,3,0,16,8,-1
1530692354868240,-23,-2,-1,1,-1,3,-10,-8
1530692354868240,-10,-6,-4,-3,0,7,19,-5
1530692354869238,-1,4,-3,-1,-4,5,-7,17
1530692354869238,6,-2,2,2,-1,-10,-7,-9
1530692354882203,-22,0,1,-3,1,-2,-5,-6
1530692354882203,-39,-2,-4,-1,2,1,-5,-27
1530692354890181,15,3,1,1,-2,-9,-2,11
1530692354890181,12,0,-1,-4,0,5,7,-2
1530692354905141,-24,-5,-1,0,1,0,1,12
1530692354905141,38,0,-2,-3,-1,-1,-4,3
1530692354906139,-16,-2,-5,-2,1,5,4,-10
1530692354906139,-4,-2,-1,0,-2,-13,4,21
1530692354928080,18,2,-1,0,-3,-4,-4,-11
1530692354928080,-10,-8,1,-1,-3,-4,2,15
1530692354929077,23,-1,-3,-2,3,-22,-1,0
1530692354929077,-13,-3,-5,-5,0,41,5,-6
1530692354942042,13,-2,-1,-3,-4,-8,-6,3
1530692354942042,-11,2,4,1,0,-6,-7,-7
1530692354950021,29,1,-3,-4,-6,-5,4,2
1530692354950021,3,-1,-3,0,-1,-9,-5,-8
1530692354964981,5,5,2,3,4,5,3,7
1530692354964981,-12,2,-4,-4,-5,4,-1,-10
1530692354965979,-34,2,-2,-2,-1,-21,-5,-1
1530692354965979,-11,-1,2,2,3,-3,1,-7
1530692354987920,-1,-6,-3,-2,-1,14,4,-17
1530692354987920,-46,-4,-3,-3,-1,5,-1,5
1530692354988917,9,-3,-1,0,-3,24,6,2
1530692354988917,-8,-1,1,-1,7,-4,-9,-13
1530692355018837,52,1,0,1,-3,-10,6,5
1530692355018837,-39,-6,-1,-1,-6,0,4,9
1530692355018837,10,-6,1,0,-1,8,3,8
1530692355018837,3,-2,-1,-2,-4,-3,-5,-14
1530692355024821,-4,0,0,1,2,-15,-14,-7
1530692355024821,15,0,-1,1,6,28,11,0
1530692355025819,-41,-2,0,0,-8,-12,1,0
1530692355025819,18,7,5,6,5,-11,-12,-7
1530692355048757,-18,-1,-6,-5,-2,9,3,13
1530692355048757,46,-4,-3,-1,1,-9,-1,6
1530692355048757,13,8,4,3,3,8,-10,-2
1530692355048757,-10,-6,-8,-6,-14,4,9,10
1530692355070698,-11,5,7,2,-4,-23,-4,20
1530692355070698,-6,-2,-2,2,4,26,3,-53
1530692355071696,1,-7,0,-1,0,-15,-7,57
1530692355071696,-9,7,3,2,-1,-5,-12,-34
1530692355084661,6,-3,-5,-3,3,14,-3,-8
1530692355084661,0,-3,0,-1,-14,-19,-1,-6
1530692355085659,-6,0,1,-1,0,-7,-1,-2
1530692355085659,-1,3,3,1,3,2,2,18
1530692355107600,-4,-5,-3,-3,-2,10,0,-5
1530692355107600,9,0,5,5,9,20,-5,-3
1530692355108597,-3,3,-3,-2,-2,-10,-3,-21
1530692355108597,-16,-5,-2,-1,1,-4,1,17
1530692355130538,1,-1,-1,-1,-1,-2,5,-5
1530692355130538,5,1,-2,-2,1,-13,-12,1
1530692355131536,-10,0,-2,0,-1,13,5,0
1530692355131536,-4,2,1,-1,1,15,15,27
1530692355145498,26,-4,-1,0,2,-3,-14,-53
1530692355145498,-48,-3,2,1,-5,-6,3,67
1530692355145498,-4,-11,-3,-2,1,10,6,-10
1530692355145498,29,9,-2,-2,-3,-21,-12,-26
1530692355169435,33,5,0,-1,-1,11,16,89
1530692355169435,-51,-8,-3,-4,-2,-30,-25,-97
1530692355169435,54,3,0,-2,-4,21,-3,6
1530692355169435,-71,-16,-3,0,0,-1,6,7
1530692355190378,8,2,0,0,0,6,5,-6
1530692355190378,38,8,0,-1,2,2,1,18
1530692355191376,-29,-12,-5,1,-5,-39,-5,5
1530692355191376,18,4,2,2,9,47,2,-27
1530692355205339,-10,-7,0,-1,-2,-29,-15,19
1530692355205339,10,6,-1,0,2,-8,-1,-22
1530692355206336,22,0,2,0,2,7,4,-2
1530692355206336,23,-1,0,2,0,-2,-13,-9
1530692355227279,-23,-4,1,2,3,15,14,11
1530692355227279,-85,-3,-7,-6,-7,-4,-6,-8
1530692355228277,65,17,4,3,-1,-12,2,18
1530692355228277,-1,-9,-2,-4,1,13,15,-7
1530692355251216,-7,3,2,-1,-11,-27,-11,-54
1530692355251216,47,-4,1,2,0,7,6,36
1530692355251216,-46,-11,-3,-4,-2,10,0,-5
1530692355251216,-12,-4,-5,-6,-4,-11,12,-20
1530692355265179,9,-4,-3,-4,3,-21,-11,30
1530692355265179,-25,0,8,4,1,17,17,5
1530692355266176,52,19,-2,-3,1,-13,-25,-47
1530692355266176,-43,-12,-5,-2,-7,-1,-1,4
1530692355288117,19,1,0,-2,-4,17,13,3
1530692355288117,21,3,-2,0,-1,-17,-9,11
1530692355288117,-102,-14,-3,-3,3,6,7,6
1530692355288117,10,-4,0,-1,-5,8,1,-20
1530692355311056,36,15,1,-1,-4,-31,-18,-14
1530692355311056,14,-3,2,1,-2,11,-2,8
1530692355312053,13,4,2,3,6,22,7,3
1530692355312053,28,2,-2,-1,-5,-67,-14,2
1530692355325018,-44,-12,-4,-1,0,11,21,-4
1530692355325018,86,5,-1,-3,1,7,1,60
1530692355326016,-2,-10,-3,-1,-6,7,-6,-27
1530692355326016,105,7,0,-4,-4,-10,-4,-3
1530692355347957,37,9,6,7,12,37,-4,19
1530692355347957,-31,-2,-1,0,-9,-10,-5,-26
1530692355347957,43,9,6,3,2,5,6,16
1530692355347957,-89,-25,-10,-9,-10,-8,-16,0
1530692355370896,17,3,-4,-3,-3,-6,-5,-30
1530692355370896,20,0,-2,-5,-4,4,8,7
1530692355371893,-65,-9,-1,-1,-3,-10,-2,-14
1530692355371893,32,7,-1,0,-1,0,14,4
1530692355384858,-9,-11,-5,-4,-3,25,-2,12
1530692355384858,-60,-8,-3,0,5,-15,-7,-21
1530692355385856,28,1,-1,0,-3,-5,3,37
1530692355385856,14,-7,-3,-2,0,3,3,-27
1530692355407797,0,6,-1,2,-1,-7,0,12
1530692355407797,4,-9,-6,-6,-3,9,0,-21
1530692355408795,-22,-1,-1,-3,-4,-5,-8,-30
1530692355408795,47,2,1,5,11,-28,3,33
1530692355430735,-8,-2,1,-1,-2,-20,0,-7
1530692355430735,19,-1,-2,-2,-4,6,-4,-24
1530692355431733,3,-3,-4,-4,-3,-30,-13,-8
1530692355431733,-83,5,1,2,5,38,-1,21
1530692355444698,40,-8,-4,-2,2,14,2,-33
1530692355444698,-13,0,1,1,-4,-36,-2,-6
1530692355445696,17,-6,-1,0,2,14,0,2
1530692355445696,16,13,7,3,1,-1,1,21
1530692355467637,-19,-2,-3,0,-1,15,-3,-1
1530692355467637,8,10,2,1,7,16,10,24
1530692355468635,1,-5,-4,-4,-4,-4,12,6
1530692355468635,29,7,2,1,-2,-9,-8,8
1530692355490576,-109,-4,-2,-2,-7,-6,1,-22
1530692355490576,52,-8,-4,0,2,-6,-9,6
1530692355491573,-15,13,6,1,0,6,10,9
1530692355491573,-18,-3,1,0,-1,0,-5,1
1530692355505536,-29,1,-2,-1,-3,-9,-3,-9
1530692355505536,-93,-14,-3,0,-3,3,-3,-13
1530692355505536,11,9,6,4,6,16,-7,-15
1530692355505536,49,-9,-6,-7,-6,2,-4,30
1530692355527477,15,7,2,1,5,10,0,-49
1530692355527477,41,11,3,2,3,-12,6,85
1530692355528475,-7,-10,-6,-3,1,-7,-1,-35
1530692355528475,-5,-1,3,0,0,42,6,-9
1530692355550415,-7,1,4,3,4,-7,-3,-9
1530692355550415,32,7,3,1,-1,2,10,22
1530692355551414,10,-4,-2,1,2,-12,-8,-21
1530692355551414,21,5,1,1,2,17,11,4
1530692355564378,-18,-5,2,0,-2,-19,-20,11
1530692355564378,-14,-4,-4,-3,-3,0,-2,-36
1530692355572357,-29,-9,-3,0,-3,2,1,20
1530692355572357,23,12,2,0,5,-4,8,23
1530692355589312,-64,-19,-12,-8,-9,-4,-5,-23
1530692355589312,15,5,3,4,7,3,2,-8
1530692355590309,42,6,0,-1,0,-20,-2,2
1530692355590309,-83,-10,0,-3,-15,18,6,6
1530692355611253,-2,-4,3,2,3,12,5,3
1530692355611253,58,4,-2,-2,-1,-14,-8,-20
1530692355611253,72,26,2,2,1,12,11,46
1530692355611253,-41,-2,-2,0,2,-10,-7,-18
1530692355624218,4,4,4,5,4,-9,-4,10
1530692355624218,-33,-18,-6,-4,-6,12,0,-14
1530692355632197,-12,-2,4,2,-4,-7,-7,-1
1530692355632197,20,-3,-4,-2,3,-12,-1,-13
1530692355647157,2,-1,-2,-1,-1,-14,4,20
1530692355647157,64,11,-1,-2,-1,-2,-3,-22
1530692355648154,-94,-22,-10,-6,-5,6,1,-10
1530692355648154,49,6,5,5,4,-16,-4,18
1530692355671093,-1,-9,-3,0,6,71,2,-14
1530692355671093,5,6,-1,1,-4,-10,13,14
1530692355672090,-59,-11,-9,-6,-5,-15,-6,10
1530692355672090,23,3,-1,-1,-6,3,-7,-29
1530692355684058,24,8,1,-2,4,-2,8,1
1530692355684058,-50,2,5,2,4,15,-18,32
1530692355693034,14,-9,-4,-1,-3,-8,4,2
1530692355693034,5,-4,-2,-1,7,3,-6,-16
1530692355707994,-18,11,1,2,-6,-28,-6,21
1530692355707994,-29,-7,-2,-4,-3,-6,1,-9
1530692355707994,13,-9,-1,-4,-4,2,-11,-19
1530692355707994,27,3,2,1,-1,-6,5,33
1530692355730933,46,19,7,3,-2,-3,-7,-4
1530692355730933,33,-2,0,0,12,-18,-5,0
1530692355731932,28,-3,-3,-3,-13,11,17,-17
1530692355731932,-3,-10,-3,-1,-1,-10,2,5
1530692355744895,-51,-6,-5,-6,-6,4,-9,-29
1530692355744895,7,-1,4,4,-3,-19,6,1
1530692355752874,104,17,2,3,7,0,-6,11
1530692355752874,-15,-5,-7,-4,-2,58,5,-21
1530692355767834,59,-12,-4,-4,-5,-71,-6,34
1530692355767834,0,5,0,0,0,19,3,7
1530692355768832,-7,-10,-4,-2,-3,-27,-4,-7
1530692355768832,-82,-10,-7,-6,-16,1,-19,-40
1530692355790773,78,5,-2,-3,8,14,11,29
1530692355790773,-47,-11,-4,0,1,8,-1,-20
1530692355791770,-8,-3,-2,-1,0,6,3,18
1530692355791770,-5,4,2,1,2,-35,-1,20
1530692355804735,-26,-9,-4,-4,1,32,-2,-12
1530692355804735,-17,-8,-6,-7,-4,-26,10,-11
1530692355812714,79,16,4,-1,-15,48,13,12
1530692355812714,-41,-20,-5,-3,2,-84,-16,-4
1530692355827674,4,11,4,2,-2,-1,1,13
1530692355827674,57,-2,-3,1,12,14,-2,-19
1530692355828672,-104,-10,0,0,-8,-16,-12,-1
1530692355828672,27,6,1,-3,-3,28,5,-40
1530692355850613,-61,-13,-1,1,0,-11,13,68
1530692355850613,-6,26,9,2,-1,-27,-6,-50
1530692355851610,-35,-10,-1,-2,11,24,-1,-10
1530692355851610,-2,-1,0,4,12,42,4,27
1530692355864575,4,-16,-8,-5,-35,-71,-10,-48
1530692355864575,-2,-1,2,3,3,23,1,6
1530692355872554,12,9,2,2,6,-15,-13,-3
1530692355872554,-7,5,3,1,3,5,6,-6
1530692355887514,15,-8,-4,-3,7,24,7,27
1530692355887514,6,5,-3,-8,-15,-19,-11,11
1530692355888512,-76,-2,-3,-3,0,-17,-3,-18
1530692355888512,-16,-1,1,3,3,6,-2,-23
1530692355910453,34,1,-8,-4,-15,-2,-11,-8
1530692355910453,-4,-3,2,0,-4,-12,3,-15
1530692355911450,1,3,7,7,9,14,3,17
1530692355911450,-27,3,-2,-4,-9,-6,-18,-36
1530692355934389,19,7,5,1,9,-8,5,7
1530692355934389,-80,-8,-5,-4,-2,37,15,44
1530692355935386,41,3,1,4,2,-5,-12,-24
1530692355935386,7,-14,-5,-2,-5,-9,6,49
1530692355947354,52,15,4,-2,6,5,-15,-87
1530692355947354,24,0,0,0,-12,-2,-12,33
1530692355948351,21,6,5,4,5,1,16,22
1530692355948351,-19,-6,-1,2,-2,-12,0,11
1530692355971290,33,-8,-2,0,3,33,10,-22
1530692355971290,22,1,-1,-1,2,-14,0,18
1530692355971290,-51,3,-1,-3,3,5,3,29
1530692355971290,74,-5,-5,-5,-11,9,-1,-15
1530692355993231,-3,3,5,6,3,-54,-8,9
1530692355993231,8,-2,-3,-2,-4,-19,-15,-31
1530692355994229,6,-2,-5,-1,7,31,6,2
1530692355994229,9,7,1,-1,-18,-15,7,20
1530692356007194,-38,-5,1,0,7,35,3,-12
1530692356007194,9,4,1,-1,0,54,1,-4
1530692356008192,2,-7,2,3,-6,-46,-10,-7
1530692356008192,3,2,-3,-4,3,-16,0,25
1530692356031130,13,11,6,4,2,14,3,-6
1530692356031130,2,-8,-4,-1,4,-5,2,-28
1530692356032128,-48,-5,-5,-7,-3,11,-25,15
1530692356032128,28,-2,-3,-1,4,23,18,11
1530692356053071,-25,-2,-5,-7,-11,-14,1,37
1530692356053071,-16,-5,-1,0,4,8,3,-34
1530692356054069,67,-1,-4,-2,-5,-10,5,-4
1530692356054069,-57,4,3,0,2,-21,-9,3
1530692356068031,19,10,4,0,2,34,8,-5
1530692356068031,42,0,-2,0,-4,-18,-3,55
1530692356068031,-60,-19,-5,-4,-4,-49,-1,-63
1530692356068031,72,-11,0,3,7,13,-1,67
1530692356090970,-51,12,-7,-4,-1,1,1,28
1530692356090970,15,6,2,-1,-5,-19,0,-26
1530692356091967,38,-8,-4,-1,0,35,7,8
1530692356091967,-20,-9,-2,-4,-3,-23,-11,-35
1530692356112911,41,-11,-1,0,-5,-5,-8,0
1530692356112911,-34,-5,-3,-2,0,1,-5,-15
1530692356113909,-9,1,-1,-1,2,1,1,5
1530692356113909,-1,-1,-2,0,-3,7,4,-16
1530692356127871,39,-8,-2,0,4,11,6,10
1530692356127871,-105,-6,-6,-7,-5,-7,-9,-35
1530692356128869,83,7,5,2,-4,17,7,3
1530692356128869,-58,5,-1,-2,1,6,8,23
1530692356150810,-55,-1,5,6,5,-23,-23,-33
1530692356150810,111,6,1,-1,4,2,15,17
1530692356151808,-84,-13,-4,-2,-15,-18,5,39
1530692356151808,71,19,2,3,4,0,-27,-36
1530692356173748,-38,-13,-3,0,-2,9,11,11
1530692356173748,14,6,5,4,3,18,-2,-2
1530692356173748,30,8,0,-1,1,-10,-15,-25
1530692356173748,21,4,3,2,-1,-17,12,13
1530692356187711,-35,-13,-5,-2,1,27,-13,-22
1530692356187711,11,0,-2,-1,-2,-8,1,-5
1530692356188709,69,0,0,-2,1,-4,3,14
1530692356188709,-64,-5,-3,-3,-5,6,-1,20
1530692356210650,48,1,-1,0,-1,14,6,10
1530692356210650,-53,-10,0,-4,-6,-8,0,8
1530692356211647,15,5,1,1,2,7,-3,-16
1530692356211647,16,-3,-4,-2,3,-4,5,16
1530692356233589,-26,2,-2,-4,-13,-17,-4,-63
1530692356233589,44,-6,1,3,4,-2,9,70
1530692356234586,-43,0,-1,1,3,8,-4,-16
1530692356234586,-2,-5,1,-2,-6,-6,-8,-23
1530692356247551,0,6,-1,0,5,45,2,1
1530692356247551,18,-3,-2,-1,-11,-21,-7,15
1530692356248549,8,2,0,-2,3,12,4,-42
1530692356248549,16,-6,-2,-1,-4,4,5,6
1530692356270490,102,12,2,0,7,3,8,45
1530692356270490,-18,-14,-5,-1,-2,6,-7,6
1530692356270490,43,12,0,0,1,12,0,9
1530692356270490,27,15,2,2,2,7,7,11
1530692356293428,-6,-10,-6,-5,-7,-33,-11,-40
1530692356293428,-7,4,1,4,3,4,-8,11
1530692356294426,21,-1,1,0,-5,-8,4,16
1530692356294426,-9,-3,0,3,4,10,-1,-25
1530692356307391,-46,-4,1,-1,-3,-16,6,27
1530692356307391,43,-2,-4,-3,-1,-3,-1,-11
1530692356308389,-30,-4,0,-1,1,5,8,5
1530692356308389,13,-1,0,-1,0,10,-6,-10
1530692356330330,-26,-4,1,2,0,-7,1,14
1530692356330330,10,5,1,-2,1,-8,-6,-2
1530692356331327,-6,-2,0,1,0,12,13,-14
1530692356331327,4,-4,-1,-2,3,-34,-8,30
1530692356353269,-12,2,-1,0,-3,12,7,1
1530692356353269,20,4,-2,-1,-2,-35,6,-37
1530692356354266,16,3,0,0,7,-18,-18,3
1530692356354266,-46,-8,-1,0,-12,-17,-7,6
1530692356367231,75,5,-1,-3,3,-4,6,-21
1530692356367231,-69,-11,-4,0,-5,4,-4,-15
1530692356368228,-10,8,1,-1,-3,-5,-9,-5
1530692356368228,-41,-1,1,-1,1,20,9,-10
1530692356390170,60,6,-2,-4,-4,-29,-5,21
1530692356390170,-15,7,5,1,0,26,0,-11
1530692356391167,-43,-11,0,-3,0,-7,-7,-17
1530692356391167,19,10,2,3,6,12,-4,-11
1530692356413108,-37,-11,-5,-7,-13,-11,13,8
1530692356413108,-53,-6,-4,-3,10,14,-2,-4
1530692356414106,45,0,-3,-1,-8,-8,2,29
1530692356414106,-5,-2,0,0,4,2,8,-23
1530692356428068,3,-3,-4,-2,0,-3,-1,7
1530692356428068,22,-7,-5,-4,-5,1,5,5
1530692356428068,-11,-10,0,2,13,5,3,8
1530692356428068,47,8,-2,-4,-6,-4,-15,18
1530692356450010,-24,-9,-1,1,6,-5,5,-29
1530692356450010,3,-2,-2,-4,-2,14,3,3
1530692356451007,-71,3,-2,0,0,8,0,-5
1530692356451007,3,-10,-2,-3,1,-3,0,-42
1530692356472948,2,4,2,0,-1,9,-10,11
1530692356472948,1,-3,-2,-1,4,0,-7,-1
1530692356473946,-13,2,1,-1,-3,-2,-4,-21
1530692356473946,-3,-5,-5,-3,-2,-12,3,0
1530692356487908,-20,0,0,-2,-3,-15,-16,-5
1530692356487908,-24,-4,-1,2,4,7,-6,-8
1530692356488906,46,4,0,2,2,22,-3,-51
1530692356488906,-3,-3,-4,-3,-20,-35,-22,5
1530692356509850,15,7,6,4,14,-14,11,9
1530692356509850,0,-5,0,1,-13,-30,5,27
1530692356510847,15,-3,-4,-5,-4,10,-1,2
1530692356510847,55,7,-1,-2,2,-5,3,-22
1530692356533786,-55,-1,3,1,4,55,-2,-23
1530692356533786,88,7,0,-1,-10,-25,-7,0
1530692356533786,-39,-8,-2,0,-4,-24,7,22
1530692356533786,7,2,1,2,2,21,4,-6
1530692356546751,41,0,-3,-3,-2,-10,5,24
1530692356546751,-74,1,0,-3,0,16,-1,-28
1530692356554729,13,-1,-1,0,-5,-13,-19,0
1530692356554729,6,-4,-2,0,4,22,23,38
1530692356569690,-42,-1,-2,-3,-5,4,7,-31
1530692356569690,-31,7,1,1,5,3,1,70
1530692356570688,27,2,-2,-3,-1,-4,0,-13
1530692356570688,-15,-2,2,1,1,24,-15,-15
1530692356593626,-5,-12,-4,-4,-4,-6,-11,-9
1530692356593626,70,7,-5,-2,-2,4,6,-22
1530692356593626,34,5,2,-1,-2,-6,5,29
1530692356593626,-67,4,4,3,5,2,2,12
1530692356606591,43,-5,-3,-1,-2,-2,-10,-4
1530692356606591,-16,-5,1,-1,2,10,2,-52
1530692356615567,13,-6,-7,-3,1,7,1,10
1530692356615567,5,-4,1,-1,-8,-22,-1,-14
1530692356630527,35,13,2,2,-2,-3,1,37
1530692356630527,-9,-13,-5,-5,-1,8,-8,-9
1530692356630527,-46,17,9,2,4,-4,0,-5
1530692356630527,1,-11,-4,-2,-3,33,2,-30
1530692356653466,-71,-6,-3,2,-4,-48,-21,38
1530692356653466,-3,-2,4,4,3,9,2,-26
1530692356654463,23,-7,-7,-4,-8,-11,3,39
1530692356654463,-63,-1,-2,-3,2,21,9,-20
1530692356667428,10,10,4,0,8,45,6,-5
1530692356667428,20,2,2,1,-8,-57,-14,1
1530692356675407,-4,0,2,4,-3,24,8,-39
1530692356675407,16,1,-3,-3,-2,-44,-11,34
1530692356690367,-12,-3,0,1,1,17,-6,-64
1530692356690367,15,-1,-1,2,3,0,2,21
1530692356691364,-40,3,-3,-1,3,33,0,-2
1530692356691364,-36,0,-2,0,5,0,2,8
1530692356713305,24,-3,-1,-4,-7,-30,2,-10
1530692356713305,11,-2,-1,0,1,-3,3,24
1530692356714303,16,-7,0,-3,-5,-8,-5,-21
1530692356714303,31,1,0,0,3,9,3,5
1530692356727268,-26,-6,-3,-1,-2,0,-3,29
1530692356727268,-1,5,-1,-2,-1,22,0,-19
1530692356735247,21,3,-2,-3,-1,-4,3,42
1530692356735247,-28,-2,1,2,2,4,0,-9
1530692356750207,23,-7,-1,-1,-8,-27,-14,-23
1530692356750207,24,-2,-3,-4,6,-9,8,18
1530692356751205,39,-5,-3,-4,-16,5,7,11
1530692356751205,-56,-11,-3,-2,-1,3,9,-8
1530692356773145,3,12,6,6,6,8,-6,19
1530692356773145,-5,0,-1,-1,-1,8,-4,-55
1530692356774143,-35,-5,-4,-1,4,-7,8,42
1530692356774143,47,-4,-2,-3,-9,-27,-9,-29
1530692356787108,0,-1,1,2,8,30,18,9
1530692356787108,-2,-1,-5,-2,-3,-9,-11,13
1530692356795087,-15,-1,5,0,-1,-5,-4,-7
1530692356795087,-7,2,-1,1,3,21,-6,-30
1530692356810047,32,0,-4,-3,-2,-9,11,35
1530692356810047,-59,3,4,0,-1,21,1,-5
1530692356811044,-53,-10,-1,3,1,-17,-22,-29
1530692356811044,67,9,3,1,-1,-10,3,26
1530692356832985,-66,-4,-2,-2,-8,-10,-17,-36
1530692356832985,-36,-6,-3,1,7,4,6,4
1530692356833983,22,-1,-5,-4,-8,-8,7,11
1530692356833983,30,12,3,0,0,-3,-11,-10
1530692356855924,27,8,3,0,-3,5,0,9
1530692356855924,1,-13,-5,-5,-5,-16,1,17
1530692356856922,-8,1,-4,-1,4,-7,6,-24
1530692356856922,-52,-9,-1,1,9,11,-6,-2
1530692356869887,18,1,-2,-3,-8,2,17,20
1530692356869887,-2,-7,-2,-1,-7,-6,-7,-11
1530692356870885,10,-2,-1,-3,0,-8,-10,-5
1530692356870885,16,2,1,1,3,47,24,25
1530692356892825,5,-8,-3,-2,0,-32,-8,4
1530692356892825,-44,0,0,2,3,17,-4,-44
1530692356893823,59,7,1,-1,1,-8,6,38
1530692356893823,-29,-4,-2,-2,-1,-2,-10,-17
1530692356915764,13,-4,-3,-2,-12,1,-5,-8
1530692356915764,39,-2,-3,1,-2,-8,13,24
1530692356916762,5,7,0,0,7,6,-1,-21
1530692356916762,1,4,3,1,-3,-21,-15,-18
1530692356929727,-26,-6,-5,0,6,8,6,21
1530692356929727,11,3,0,-3,-2,5,-5,-26
1530692356930724,-4,1,-1,-2,0,2,3,21
1530692356930724,0,-9,-2,-3,0,-12,5,2
1530692356952665,-13,-5,-1,-1,1,2,-3,-4
1530692356952665,41,17,4,2,-1,2,-3,13
1530692356953663,-11,6,3,1,2,0,0,1
1530692356953663,34,-10,-5,-4,-9,-28,-4,-8
1530692356975604,-55,0,-1,-1,1,21,-11,-20
1530692356975604,15,-1,1,0,11,38,19,50
1530692356976602,-31,-13,-5,-2,-7,-19,-4,-25
1530692356976602,40,14,7,5,6,-10,-4,11
1530692356990564,3,-2,3,3,-3,-8,-5,-12
1530692356990564,9,4,-2,-2,6,4,-9,28
1530692356990564,9,-2,-1,-2,-4,14,8,-11
1530692356990564,-21,-3,-5,-3,-4,0,4,17
1530692357013503,33,-1,-1,-3,5,11,8,-2
1530692357013503,-15,-4,-4,-5,-9,-22,-11,-6
1530692357014500,-11,4,3,2,0,0,-4,18
1530692357014500,13,0,-3,-8,-10,-11,3,7
1530692357035444,-15,-5,-1,3,5,12,-7,-44
1530692357035444,35,1,-2,-4,-20,-40,0,46
1530692357036442,-22,-9,2,0,2,12,-18,-87
1530692357036442,7,7,1,3,8,28,7,8
1530692357050404,26,7,-1,-4,-3,-3,9,-11
1530692357050404,-12,-8,-3,-3,-4,-14,-5,10
1530692357051402,43,-2,-7,-4,-1,-19,11,45
1530692357051402,17,7,1,-1,-6,-9,-9,56
1530692357073343,-59,-2,5,6,14,-33,-6,-1
1530692357073343,-13,4,6,7,-5,23,8,-14
1530692357074341,40,5,0,-3,-5,-17,-18,-1
1530692357074341,1,-8,-3,0,1,6,-4,-22
1530692357096282,48,10,-3,-1,2,-3,-7,-19
1530692357096282,-43,-3,-2,-1,2,-8,-12,-25
1530692357096282,-3,-9,-7,-4,-3,23,8,29
1530692357096282,1,7,0,2,0,-5,-4,-12
1530692357110244,-5,-5,-1,-3,-10,-43,-1,13
1530692357110244,3,3,-2,0,11,41,-7,-23
1530692357111241,10,3,4,2,-2,22,14,-8
1530692357111241,-73,-16,-6,-6,-9,-34,-9,-11
1530692357133183,31,-1,2,1,-6,2,11,8
1530692357133183,-29,5,3,-1,2,24,-8,-21
1530692357134180,-20,-3,-3,-3,7,-50,-27,28
1530692357134180,27,-1,-4,-4,1,32,5,-80
1530692357156121,5,-6,-3,-3,-2,-32,8,36
1530692357156121,-12,-2,-1,-2,3,-22,1,1
1530692357157119,20,4,2,0,-4,16,-23,-38
1530692357157119,-48,-1,-3,-2,-5,-21,-3,-10
1530692357170084,-5,-5,-6,-5,1,34,10,-7
1530692357170084,18,-5,-1,0,-8,8,6,-16
1530692357171082,0,2,5,7,5,-34,-7,33
1530692357171082,33,-2,0,-3,-2,26,22,-15
1530692357193022,-42,-3,-5,-2,3,16,0,-8
1530692357193022,-18,-13,-6,-7,-13,-22,-1,-37
1530692357194020,13,1,0,1,5,30,15,24
1530692357194020,-44,3,0,-2,-5,-11,-1,14
1530692357215961,94,-2,-1,0,-1,27,-8,4
1530692357215961,12,3,2,0,6,-7,-4,19
1530692357216959,15,-8,-4,-2,-4,1,11,13
1530692357216959,-32,6,-1,-3,-5,-13,-12,-17
1530692357229924,0,-2,-1,-1,7,-6,1,-16
1530692357229924,2,2,2,-1,-7,61,9,33
1530692357230921,8,-2,-1,-1,-2,-43,-17,-39
1530692357230921,-49,-10,-1,5,6,5,1,2
1530692357252863,10,4,-3,-4,-3,1,-4,11
1530692357252863,21,0,-4,0,-2,-10,-3,-15
1530692357253860,-4,2,-2,-3,-4,12,18,28
1530692357253860,7,-8,0,0,8,19,-4,-19
1530692357275801,-63,3,1,-3,-13,-28,-20,-17
1530692357275801,36,-2,-5,-3,0,-13,6,10
1530692357276799,-34,4,2,2,5,33,8,0
1530692357276799,13,2,3,3,-4,-36,-9,-30
1530692357289764,9,0,2,0,1,29,11,44
1530692357289764,56,5,-2,-3,1,-25,-7,-14
1530692357290762,-116,-6,0,0,3,8,5,25
1530692357290762,102,-4,-4,-4,-6,11,-3,32
1530692357313700,-2,-1,-1,0,-4,-12,-4,-39
1530692357313700,-43,3,4,4,2,-2,4,34
1530692357313700,19,-4,-4,-1,-1,9,-4,-27
1530692357313700,16,4,3,1,3,-6,4,15
1530692357335641,-12,-10,-5,-4,-1,1,6,35
1530692357335641,-23,1,3,-3,-11,-15,-7,-32
1530692357336639,6,1,0,1,2,-4,-9,-19
1530692357336639,-22,-6,-6,-4,-9,45,10,14
1530692357350601,52,-1,0,2,-3,-51,7,16
1530692357350601,-26,-6,-3,-1,4,-11,-3,-4
1530692357350601,52,11,-3,-6,-10,0,3,33
1530692357350601,-67,-15,-3,-2,1,-6,-5,-67
1530692357373540,-15,1,-2,-2,0,20,2,14
1530692357373540,2,-3,0,0,2,-2,2,23
1530692357374538,47,-2,0,0,-3,-17,-1,-1
1530692357374538,-45,4,0,-2,-4,-10,-2,-10
1530692357395481,39,8,4,3,1,7,1,-10
1530692357395481,-27,-3,1,2,3,18,11,3
1530692357396479,8,-7,-2,-2,-4,-40,-18,-31
1530692357396479,-7,13,6,5,4,10,-8,57
1530692357410441,0,4,2,1,-1,2,-11,-33
1530692357410441,-2,3,2,3,1,7,-7,-14
1530692357410441,-12,-6,-6,-5,-2,5,2,13
1530692357410441,65,3,2,0,8,2,9,-13
1530692357433380,-33,-2,0,-3,-15,-27,-15,6
1530692357433380,-64,-1,-3,-2,-2,-10,-5,-31
1530692357434377,11,5,3,0,5,14,29,6
1530692357434377,-3,-11,-8,-4,-9,-43,0,68
1530692357456318,37,5,-1,0,5,44,12,2
1530692357456318,15,-8,-3,-3,-3,-5,-10,-15
1530692357456318,-43,-8,-2,0,3,31,4,-15
1530692357456318,51,3,-2,-4,-11,-75,-10,-9
1530692357469284,-6,6,1,2,3,4,3,12
1530692357469284,-6,-4,-1,1,1,-4,1,19
1530692357477263,-8,2,-1,-1,1,1,5,-4
1530692357477263,-12,-2,-1,0,0,11,-4,-3
1530692357493220,-33,-6,-2,-4,5,40,5,-8
1530692357493220,45,5,-2,-2,-10,-51,-12,-8
1530692357494217,-11,0,-1,0,-7,3,-7,1
1530692357494217,7,0,2,1,5,18,13,-7
1530692357516158,4,5,1,3,-2,-28,-29,17
1530692357516158,-47,-4,0,0,8,14,7,34
1530692357516158,-32,-8,-2,-3,-4,13,-16,-98
1530692357516158,75,6,2,2,1,13,11,66
1530692357529124,31,3,3,-1,-2,-4,1,-20
1530692357529124,8,3,0,1,5,6,3,31
1530692357538100,-50,-3,-1,2,-4,-26,-15,-13
1530692357538100,9,-3,-2,0,5,21,2,-18
1530692357553060,32,2,2,-1,-3,-15,4,29
1530692357553060,15,1,-2,-1,-2,24,1,-19
1530692357553060,-16,-7,-3,-2,-1,-17,-3,-2
1530692357553060,-9,-1,0,-1,2,10,3,-4
1530692357575998,4,-1,1,1,15,12,-1,-13
1530692357575998,-77,-1,-3,-4,-19,-16,14,21
1530692357576996,44,0,0,0,-8,-7,8,-7
1530692357576996,-26,-2,1,1,2,11,-3,-9
1530692357597941,-16,-1,-10,-7,-7,-21,4,-20
1530692357597941,-9,-3,1,1,10,30,-5,45
1530692357598938,14,0,1,1,3,8,-11,-40
1530692357598938,-14,-1,3,1,-4,-19,0,32
1530692357612900,-65,-18,-6,-3,-6,18,7,-21
1530692357612900,82,7,-1,-3,0,-9,-1,5
1530692357613898,-9,-2,-1,-4,-3,-9,1,18
1530692357613898,13,7,-3,0,-4,-3,-10,-11
1530692357635838,-15,-4,1,-1,-3,5,7,16
1530692357635838,49,-5,2,1,2,-5,-7,-34
1530692357636836,-31,-3,-3,1,4,6,6,39
1530692357636836,45,7,1,-3,2,17,-4,-18
1530692357649801,18,2,1,0,-1,2,7,39
1530692357649801,-17,-9,-6,-4,-4,-13,-11,-54
1530692357657780,34,3,3,1,0,12,0,-1
1530692357657780,-18,0,0,0,-2,-4,-2,3
1530692357672740,-11,-3,-2,1,1,14,-7,-50
1530692357672740,38,0,0,-2,-3,-11,-3,35
1530692357673737,-37,-2,1,0,5,19,-8,-55
1530692357673737,-7,-8,-5,-5,-10,-17,-4,11
1530692357695678,63,10,2,0,-1,5,10,23
1530692357695678,-70,7,2,3,7,8,1,-30
1530692357696676,-17,-5,-1,-3,-5,-7,-8,-26
1530692357696676,-3,-1,-4,1,2,-7,-8,-3
1530692357709641,-14,-8,-2,-2,1,-3,18,52
1530692357709641,8,-4,-3,-2,-4,17,0,-51
1530692357717620,23,2,1,0,1,-1,1,27
1530692357717620,-19,-4,1,0,1,-16,-4,15
1530692357732580,5,3,-1,0,-4,-15,-7,5
1530692357732580,-9,-10,-3,-2,0,-2,6,-8
1530692357733577,-1,3,1,1,5,-11,0,-13
1530692357733577,20,-1,0,-1,0,41,13,16
1530692357755518,-38,-10,-1,2,-3,-4,-15,-44
1530692357755518,24,0,1,1,-2,-11,-4,36
1530692357756516,29,7,0,-1,-1,-10,-5,-2
1530692357756516,-107,-10,-1,-1,4,10,37,15
1530692357778457,-16,1,2,0,-2,-38,-27,-23
1530692357778457,18,-2,1,2,0,-8,-7,-12
1530692357779455,32,-2,-1,1,0,11,0,51
1530692357779455,15,2,-4,0,1,-3,0,-5
1530692357792419,-10,-7,-4,-2,-1,14,11,-5
1530692357792419,-12,4,0,-2,1,-12,0,-5
1530692357793417,17,-2,-2,-3,-10,-6,5,39
1530692357793417,34,11,6,1,0,5,-15,-23
1530692357816355,-4,-4,-2,-2,0,3,-3,-7
1530692357816355,10,4,0,-1,1,3,7,47
1530692357816355,-15,-7,-9,-5,-7,0,2,-52
1530692357816355,15,-1,3,2,3,-3,-15,-34
1530692357838297,50,9,2,3,2,-6,-1,29
1530692357838297,-42,2,-2,-1,0,2,-1,-10
1530692357839294,-11,2,-2,0,3,21,18,40
1530692357839294,13,4,2,2,-2,-13,-26,-5
1530692357852260,5,-4,-4,-2,-2,14,-7,-88
1530692357852260,-40,-6,-3,-5,4,-14,9,4
1530692357853257,-24,4,7,5,-9,5,2,17
1530692357853257,12,-7,-8,-7,-9,-25,-16,-30
1530692357875198,22,2,2,-1,0,72,8,26
1530692357875198,-32,-2,3,5,3,-60,-33,-16
1530692357876196,46,7,1,1,10,10,35,32
1530692357876196,-31,-20,-10,-8,-9,5,-18,4
1530692357898137,-12,4,1,-1,-5,7,5,-33
1530692357898137,22,-3,-3,-2,0,14,0,-9
1530692357899135,-9,-4,-1,-2,1,-3,-16,3
1530692357899135,3,6,1,2,-2,0,8,15
1530692357913097,-35,-2,-2,-4,-2,-18,-2,8
1530692357913097,57,-4,-2,-3,0,-8,9,23
1530692357913097,6,3,1,0,-6,-6,-18,-78
1530692357913097,8,2,4,3,18,59,28,-11
1530692357936035,-28,-1,-8,-8,-15,-96,-20,60
1530692357936035,8,8,3,4,-1,35,22,-6
1530692357937033,13,-9,-5,-2,3,-34,2,41
1530692357937033,-26,-3,-1,-4,-3,-16,5,-14
1530692357957977,-18,-9,-1,1,12,38,-8,-59
1530692357957977,27,11,2,2,-14,12,9,45
1530692357958974,-27,-8,-3,-3,-1,-16,-9,-12
1530692357958974,13,7,1,1,-1,4,2,9
1530692357972937,-22,-3,-4,-1,4,0,11,25
1530692357972937,16,-10,-4,-5,-2,-1,-13,-58
1530692357973935,-9,6,5,4,3,14,-7,-5
1530692357973935,25,6,1,1,-1,-14,-17,-7
1530692357995876,10,3,5,3,2,7,7,6
1530692357995876,-36,-2,-2,-3,0,-2,-2,-6
1530692357996873,11,-8,-3,-2,-4,21,6,5
1530692357996873,57,7,3,4,1,-19,-10,-11
1530692358018814,-51,-8,-5,-4,-5,-9,3,26
1530692358018814,34,5,3,3,3,15,-5,-5
1530692358018814,-45,3,0,1,2,-1,-9,-12
1530692358018814,18,-3,-6,-5,-6,-5,5,27
1530692358032777,-18,1,1,-2,-6,-1,1,-16
1530692358032777,-24,-3,-2,0,4,8,-8,-15
1530692358033774,3,-5,-5,-4,0,19,3,10
1530692358033774,-17,-6,-1,-1,5,-12,-4,-15
1530692358055715,-2,0,4,2,0,-38,0,12
1530692358055715,10,-3,-3,-1,-2,3,5,6
1530692358056713,44,3,-1,-2,3,1,1,8
1530692358056713,-32,5,-1,-3,-3,-2,8,-1
1530692358078654,22,-1,1,5,15,25,9,22
1530692358078654,-20,-2,-8,0,0,30,-6,-35
1530692358078654,2,2,2,3,-6,2,-22,31
1530692358078654,29,-4,-3,-2,1,16,10,28
1530692358092617,-12,2,1,-1,-1,-6,-14,-13
1530692358092617,55,10,3,-2,-2,22,18,7
1530692358093615,-34,-10,-4,-2,-2,-23,-5,-23
1530692358093615,18,-1,-2,-1,-1,-3,-5,-10
1530692358115556,3,-3,-1,2,-4,-2,-11,-19
1530692358115556,10,1,1,-2,-1,-14,2,20
1530692358116554,-20,-7,-3,-6,-3,-10,0,-19
1530692358116554,-25,-5,1,4,-2,3,6,-5
1530692358138494,51,1,-1,-2,0,11,5,14
1530692358138494,-66,-4,-5,-2,-7,-3,-6,19
1530692358139491,77,16,-1,0,1,-15,1,-22
1530692358139491,-47,-14,-5,-3,-3,-5,-5,3
1530692358152457,69,3,0,-2,-3,3,-3,-14
1530692358152457,-2,-2,-4,-2,2,0,3,58
1530692358153454,-5,0,0,0,-4,-7,-1,-13
1530692358153454,-25,-4,-2,-1,-4,-8,-2,-25
1530692358175395,-12,2,-2,-1,-5,3,0,35
1530692358175395,16,-5,-4,-3,-1,-10,-9,-39
1530692358176393,15,-1,0,1,-3,-2,9,24
1530692358176393,2,1,2,-3,-2,1,-2,1
1530692358198334,3,4,5,4,9,22,7,-24
1530692358198334,-13,-9,-4,-4,-12,-25,-6,50
1530692358199332,-66,-2,-2,-1,4,-19,5,-43
1530692358199332,18,-6,4,4,-8,2,-10,-2
1530692358212297,3,4,-2,-2,-2,-6,1,7
1530692358212297,23,-12,-2,-1,2,-7,0,-4
1530692358213295,16,-1,-2,0,3,10,0,20
1530692358213295,45,9,-2,-3,4,9,5,-27
1530692358236233,-66,-6,-2,-1,-16,8,-8,7
1530692358236233,-19,-3,-1,1,0,-67,-30,-88
1530692358236233,21,-10,-7,-5,-2,17,10,61
1530692358236233,35,6,0,0,4,13,22,32
1530692358258174,-13,-15,-5,-4,0,5,-8,-9
1530692358258174,22,-10,2,1,3,16,6,-15
1530692358259172,-57,-7,-3,-1,-18,-8,-18,-43
1530692358259172,78,17,4,-1,-3,-34,-15,6
1530692358273134,39,0,0,1,3,15,20,31
1530692358273134,34,10,4,-1,0,-3,4,11
1530692358273134,-38,-7,1,-1,4,-5,-13,-32
1530692358273134,-23,-5,-4,-3,0,4,-2,13
1530692358296073,-7,-3,-4,-3,-3,-5,-3,-16
1530692358296073,-8,-2,-7,-2,5,20,8,-1
1530692358297070,64,0,-7,-8,-7,7,25,43
1530692358297070,-35,-1,8,-7,1,-2,-9,-10
1530692358318014,-9,1,0,17,3,-9,-9,-34
1530692358318014,20,0,1,-3,-1,-2,7,40
1530692358319012,-30,4,-1,-1,8,16,14,79
1530692358319012,-42,-18,-10,-5,-7,-25,-23,-34
1530692358332974,18,-1,-1,-9,-2,-16,8,20
1530692358332974,-35,-2,-1,-1,0,58,10,11
1530692358332974,42,2,1,2,15,-52,-15,-22
1530692358332974,-17,1,4,5,-8,14,8,-10
1530692358355913,24,10,0,-2,4,-5,-10,-7
1530692358355913,-68,-6,-1,0,-6,-4,-11,-12
1530692358356910,-39,-7,1,3,2,18,-4,-59
1530692358356910,11,2,-2,1,-4,-16,0,57
1530692358378852,-3,-14,-9,-4,-3,-5,9,25
1530692358378852,12,4,3,-1,-2,-8,3,-20
1530692358378852,76,18,9,5,0,7,-13,-15
1530692358378852,-32,-4,-4,0,3,-9,-7,-23
1530692358392814,18,3,0,-3,-7,3,0,17
1530692358392814,41,-3,-2,-4,7,12,19,21
1530692358393812,-13,1,2,2,-11,-26,-11,13
1530692358393812,78,4,-2,0,-1,37,28,78
1530692358415753,-73,-3,-1,-2,1,-24,-30,-110
1530692358415753,18,12,3,3,6,4,7,2
1530692358416750,14,-1,-1,-1,-2,46,3,8
1530692358416750,-21,-3,-6,-3,-5,-59,7,38
1530692358438691,20,6,5,-1,-2,18,7,-15
1530692358438691,4,16,5,2,3,0,6,8
1530692358438691,7,-10,-2,-1,8,82,1,1
1530692358438691,-75,-11,-1,-4,-17,-49,-27,-54
1530692358451657,19,2,0,1,1,-4,-4,-8
1530692358451657,4,-13,-8,-4,-12,-22,-22,5
1530692358460632,-6,-6,-3,-1,2,12,16,9
1530692358460632,35,10,2,6,6,60,-11,-13
1530692358475593,-81,-14,-2,-4,-10,-33,3,19
1530692358475593,33,8,-1,-3,-2,7,2,14
1530692358476590,-6,-1,-1,1,-3,-35,-4,-7
1530692358476590,18,-2,-1,-1,6,21,8,5
1530692358498531,1,4,-3,-1,2,23,-3,12
1530692358498531,-60,-6,-4,-4,-10,0,10,31
1530692358499529,17,-4,0,-4,-2,-27,-13,-28
1530692358499529,-59,5,6,4,4,5,4,0
1530692358512494,-10,-9,-5,-5,1,4,9,28
1530692358512494,30,4,5,4,1,-8,-24,-40
1530692358520473,20,1,-7,-4,-8,-19,7,2
1530692358520473,-35,5,6,5,4,7,-4,-6
1530692358535432,34,-2,-5,-4,0,0,9,20
1530692358535432,-2,-4,-2,2,-1,-1,-3,-13
1530692358536430,35,16,6,3,-2,-4,-1,18
1530692358536430,-53,-17,-12,-8,-2,-16,-21,-71
1530692358558371,49,15,11,9,10,14,11,42
1530692358558371,6,-2,3,1,1,-6,-13,-10
1530692358559369,7,11,1,1,9,11,-4,-12
1530692358559369,24,-8,-8,-8,-13,42,-2,-14
1530692358572334,-40,-1,1,0,-6,-37,-6,17
1530692358572334,19,-8,-5,-5,-3,-2,-5,-14
1530692358580312,33,-2,-2,0,-2,15,21,11
1530692358580312,2,2,1,3,12,-6,2,8
1530692358596270,30,5,-1,0,0,2,-14,-20
1530692358596270,42,1,-1,0,1,5,8,18
1530692358596270,-8,0,0,-1,-4,-18,-10,-5
1530692358596270,-6,-7,-4,-6,-1,-6,7,7
1530692358618211,2,1,-1,-3,-4,0,-9,-20
1530692358618211,3,-8,-1,1,4,-15,4,6
1530692358619209,-49,0,1,2,-1,-14,1,3
1530692358619209,3,-2,-5,2,5,22,5,-20
1530692358632174,71,-5,-4,-3,-6,-11,-4,65
1530692358632174,36,5,2,3,-1,9,-2,-16
1530692358640153,-66,-10,-1,-2,-3,-14,-14,-32
1530692358640153,51,7,3,-1,0,8,2,31
1530692358656110,-2,-3,-1,-3,4,-38,3,-42
1530692358656110,-44,2,-3,-2,-4,-4,-13,-10
1530692358657108,-18,-3,0,1,-1,-8,2,8
1530692358657108,21,1,-2,-2,0,-17,-8,-8
1530692358678051,-3,-5,-2,-1,1,24,0,-3
1530692358678051,-6,-2,-6,-2,3,-13,8,16
1530692358680046,57,11,1,-2,1,-3,-2,0
1530692358680046,-64,3,3,-1,-5,-2,-4,-28
1530692358692014,-6,-5,-6,-3,-4,1,6,-8
1530692358692014,-1,-2,1,-1,0,7,-4,-18
1530692358699993,24,-3,-6,-3,-2,2,-2,13
1530692358699993,32,4,3,-1,-2,-29,13,25
1530692358714953,-24,-9,-4,-4,-4,52,-6,-31
1530692358714953,-44,-7,-1,-1,-5,-39,-14,0
1530692358723929,9,7,-1,-4,9,59,8,5
1530692358723929,-5,-1,-1,3,-7,-79,-17,1
1530692358737892,-12,12,3,-8,-5,-20,-10,-43
1530692358737892,-4,-18,-1,5,3,11,16,64
1530692358739886,33,5,-5,17,-11,-19,0,3
1530692358739886,-10,2,4,0,10,31,-5,-31
1530692358760830,-15,0,3,32,19,27,11,38
1530692358760830,78,8,-4,-36,-6,15,13,-28
1530692358762825,-90,-14,-2,23,6,-32,-15,5
1530692358762825,51,-8,-4,2,-6,10,6,-48
1530692358774792,-70,0,4,-4,-2,25,1,9
1530692358774792,13,0,1,0,-6,-9,-17,-46
1530692358783769,-56,-9,-1,-17,0,16,8,1
1530692358783769,36,10,-3,-9,-5,13,0,1
1530692358798729,-74,-11,0,2,4,25,-7,-21
1530692358798729,9,-6,-6,0,-2,1,2,48
1530692358799727,14,-6,-3,-11,-7,-13,-1,-93
1530692358799727,-14,1,0,4,6,4,11,58
1530692358820670,75,6,-2,-10,-5,-12,-6,-34
1530692358820670,-1,6,3,10,-3,2,4,42
1530692358822665,-5,1,-1,-5,4,-40,-2,18
1530692358822665,-11,-4,-3,1,0,48,17,33
1530692358834632,22,-3,-2,-5,0,-30,-9,2
1530692358834632,37,12,-3,0,-1,-14,-1,-7
1530692358843609,-38,-12,-4,-6,-3,14,4,-14
1530692358843609,49,-2,0,-3,-2,-5,0,4
1530692358858568,-7,4,-6,-1,1,-19,-1,24
1530692358858568,-51,-11,0,5,2,-2,11,-38
1530692358859566,-9,4,6,-1,-1,-53,-46,-8
1530692358859566,6,3,-1,-2,1,12,11,-11
1530692358880510,-44,-20,-8,-2,-2,-4,4,25
1530692358880510,21,13,6,5,2,3,-5,-60
1530692358882505,37,-4,-5,-6,-4,26,27,78
1530692358882505,21,2,5,3,0,-13,-4,-15
1530692358894472,8,-1,-4,-1,-1,-32,1,22
1530692358894472,-23,-7,-4,-4,-2,-7,-12,7
1530692358903449,1,-9,-2,-2,-3,12,-2,-47
1530692358903449,-21,-5,0,4,5,-6,-3,6
1530692358918408,42,3,0,-4,-6,6,-1,-14
1530692358918408,-8,0,-2,1,-2,8,0,37
1530692358920403,58,5,2,4,0,-3,-1,-29
1530692358920403,-51,-5,-8,-8,-7,13,11,28
1530692358940349,6,3,3,3,-2,-27,-10,-8
1530692358940349,-25,-3,0,0,6,31,8,-22
1530692358942345,-5,-11,-6,-12,0,-3,-24,59
1530692358942345,29,5,0,13,2,-28,6,-63
1530692358954313,3,4,0,-5,-17,37,4,39
1530692358954313,-65,-8,-7,-5,-5,-22,-4,-27
1530692358963288,13,11,4,5,-1,-12,8,19
1530692358963288,86,-5,-1,-9,5,-18,-17,-8
1530692358978248,-21,-5,-1,-2,0,-1,16,19
1530692358978248,-21,3,2,1,-2,41,-8,5
1530692358980243,29,9,0,8,8,-9,4,-24
1530692358980243,-17,-2,-2,6,-7,-18,-9,24
1530692359001187,18,-1,-2,-1,1,4,2,-8
1530692359001187,27,2,1,-2,1,14,2,9
1530692359002184,-49,-11,-4,-3,-4,14,15,5
1530692359002184,-21,1,6,-3,1,6,-4,24
1530692359014153,30,14,-1,-1,-1,-2,-2,-7
1530692359014153,-21,-5,-3,15,-3,-18,-5,6
1530692359023128,-4,3,-1,-1,-3,3,5,13
1530692359023128,-27,-13,-6,-10,-13,0,-5,-10
1530692359038089,0,0,5,-25,7,2,1,-6
1530692359038089,0,-11,-6,16,5,-18,-1,26
1530692359040083,21,8,5,10,7,54,16,-21
1530692359040083,-26,-8,-6,-9,-15,-64,-41,-31
1530692359061027,42,12,4,8,-14,-8,-9,-27
1530692359061027,-5,-4,0,-20,-3,5,3,28
1530692359062025,16,-11,-6,-6,-6,-33,2,-23
1530692359062025,-13,13,5,4,13,52,25,14
1530692359073992,-4,-7,-3,10,0,-9,-8,1
1530692359073992,-43,-6,-2,-3,-4,-17,-8,-38
1530692359083966,74,11,-2,-6,2,12,8,72
1530692359083966,-103,-21,-7,-10,-12,-30,-10,-90
1530692359097929,16,0,0,6,10,13,18,39
1530692359097929,42,3,2,0,3,26,15,-11
1530692359099923,-5,1,4,2,9,-2,-7,-15
1530692359099923,6,0,-4,-3,-9,56,15,32
1530692359120867,22,-6,-4,-2,-6,-68,-21,-49
1530692359120867,-75,-5,-4,-4,1,-10,-3,-23
1530692359122862,10,7,2,-7,-4,-14,-16,-2
1530692359122862,29,1,-1,3,5,26,6,21
1530692359134830,-35,-9,-1,-4,2,25,20,21
1530692359134830,56,11,2,-4,-6,-27,-20,-33
1530692359143806,-29,-3,1,1,-4,14,8,0
1530692359143806,-42,0,0,18,8,15,-13,-19
1530692359158766,27,7,-2,0,8,-44,-14,-9
1530692359158766,44,4,1,-4,-4,-5,16,58
1530692359159763,37,2,-1,0,2,5,-3,-27
1530692359159763,3,-1,-3,-10,-9,-29,8,21
1530692359180707,-82,-10,0,4,3,31,-5,-40
1530692359180707,45,9,5,1,0,21,3,0
1530692359182702,-13,-9,-3,1,-7,-25,-15,-8
1530692359182702,33,12,3,1,6,-2,8,57
1530692359194669,-47,-12,-10,-8,-12,-6,-6,-53
1530692359194669,32,6,5,6,0,-6,9,42
1530692359203646,-31,-5,2,-4,-7,19,-12,-56
1530692359203646,-3,4,0,0,4,-13,-11,19
1530692359218606,41,-11,-6,-5,5,-33,18,5
1530692359218606,-13,3,3,2,-4,15,3,5
1530692359219603,-23,-5,-3,-3,-10,-39,-22,-19
1530692359219603,1,-4,0,-2,-1,15,-1,-6
1530692359240547,55,6,3,3,3,45,-3,25
1530692359240547,20,-8,-7,-4,0,-14,8,2
1530692359242542,-12,-4,-5,-4,6,-3,7,25
1530692359242542,4,2,4,3,-4,-6,-2,29
1530692359254509,-18,6,1,0,-10,13,13,37
1530692359254509,-22,-4,-1,-1,3,-5,-8,-31
1530692359263486,-35,-5,-2,1,-1,32,13,28
1530692359263486,25,12,3,-1,10,3,14,3
1530692359278445,-71,-3,6,4,-1,-8,-16,-26
1530692359278445,-1,-4,-2,0,5,-4,1,9
1530692359280441,-37,-8,-3,-4,-5,-3,-18,0
1530692359280441,-1,-2,0,-1,-1,-21,5,13
1530692359300387,102,2,0,0,11,35,4,4
1530692359300387,-13,-1,-5,-4,-6,16,-3,-18
1530692359302382,58,6,3,5,4,-1,7,2
1530692359302382,7,-11,-8,-7,-14,-14,-12,0
1530692359314350,9,0,-3,1,-1,9,4,-2
1530692359314350,41,-2,-4,-4,0,7,-5,-3
1530692359323326,-14,5,-3,3,-4,3,18,24
1530692359323326,-34,-3,-2,-5,-2,-3,-10,-38
1530692359338286,-18,1,0,3,5,4,5,21
1530692359338286,-31,4,8,4,-3,-4,7,14
1530692359340280,-3,-5,-6,-7,-8,-38,1,-20
1530692359340280,9,2,0,-2,8,20,3,-5
1530692359361224,-14,-6,-3,-2,-1,1,0,5
1530692359361224,3,3,-2,-1,2,-3,-7,-18
1530692359362222,29,11,2,1,3,22,5,27
1530692359362222,16,-6,-4,0,-1,-6,2,-13
1530692359374189,-7,-5,-4,-9,-11,-23,-2,1
1530692359374189,15,-7,-4,-2,-3,-10,5,4
1530692359383165,-102,-10,-4,-10,-11,24,0,-5
1530692359383165,107,5,1,-8,0,-26,-20,-8
1530692359398126,-6,4,-2,-2,4,39,45,55
1530692359398126,44,6,1,5,-2,-18,-12,2
1530692359400120,23,-6,5,57,9,-14,-10,-25
1530692359400120,41,-1,-2,-11,1,4,18,49
1530692359421064,-13,-2,-7,-39,-25,15,-16,-2
1530692359421064,23,-5,-5,-20,-12,-24,-2,-18
1530692359422062,26,9,9,-25,24,45,14,32
1530692359422062,-26,0,6,53,14,-24,-12,-33
1530692359434029,39,-5,-4,5,1,-5,-7,-8
1530692359434029,-50,-4,-4,-13,-3,18,13,8
1530692359444003,-32,-13,-7,-38,-20,-5,-21,-26
1530692359444003,54,1,-5,-15,-3,13,3,11
1530692359457965,-56,2,0,4,1,-13,-11,-29
1530692359457965,14,-5,-2,-4,-2,-1,8,36
1530692359459960,-45,-1,-3,-4,1,-27,-2,-44
1530692359459960,-20,-7,-3,-5,-5,28,3,20
1530692359480905,66,15,7,18,2,-16,-10,-40
1530692359480905,-23,-10,-1,0,5,4,-8,-9
1530692359482899,54,5,-1,5,3,-12,5,15
1530692359482899,-91,-7,-1,-1,-8,-8,-3,-13
1530692359494867,7,0,-1,-3,6,-18,-13,-16
1530692359494867,-1,4,5,8,0,79,23,26
1530692359503843,78,5,0,15,-8,-81,-21,11
1530692359503843,-25,-5,-2,-7,-4,-18,-8,-63
1530692359518803,15,6,-2,1,7,19,-7,0
1530692359518803,5,2,2,5,4,-20,-16,0
1530692359519800,-87,-9,-5,-2,-8,-1,2,-49
1530692359519800,24,7,-2,-13,5,47,16,69
1530692359540744,-43,-10,4,12,3,-21,-7,-23
1530692359540744,-6,1,0,15,4,-3,-1,40
1530692359542739,19,1,-3,2,-4,8,2,-13
1530692359542739,-37,-2,0,-4,7,-5,-12,-49
1530692359554707,-10,0,2,-3,-11,3,8,26
1530692359554707,0,-3,-3,-8,-4,-28,-19,-59
1530692359563683,2,7,1,-2,4,17,8,25
1530692359563683,-35,-7,0,3,0,0,-11,-42
1530692359577645,58,6,1,5,3,11,14,58
1530692359577645,-86,-16,-6,-3,-3,1,-13,-54
1530692359584627,42,3,-1,-2,-1,-12,-12,12
1530692359584627,31,-3,-4,-8,-10,3,0,-8
1530692359600584,-11,-7,-5,-9,4,-32,-7,-10
1530692359600584,47,9,4,20,8,20,14,53
1530692359602579,-37,-7,0,-5,3,9,9,-23
1530692359602579,4,12,2,0,-6,-10,-2,11
1530692359614547,17,-4,2,-2,-2,-8,-12,-22
1530692359614547,35,6,-1,-4,-2,-5,4,13
1530692359623523,-99,-7,-4,-2,4,4,-10,3
1530692359623523,98,3,2,6,7,-1,17,47
1530692359637485,-68,-7,-7,-8,-10,4,-4,-27
1530692359637485,3,13,6,4,1,-28,-5,-39
1530692359644467,56,0,1,-6,-4,18,8,40
1530692359644467,-34,-5,-2,6,3,12,-2,-15
1530692359668403,-2,-1,-1,1,5,33,13,8
1530692359668403,-8,-2,-3,-8,4,-32,-6,11
1530692359670398,77,4,1,-7,-12,6,0,4
1530692359670398,-62,-6,-3,-1,4,32,5,-3
1530692359683362,-33,5,0,3,-5,-42,-23,0
1530692359683362,-14,-17,-7,-6,0,0,-6,-16
1530692359685357,30,1,-3,3,1,-3,-3,-2
1530692359685357,16,-6,0,-3,-3,-6,2,-17
1530692359697325,62,11,4,6,3,25,1,5
1530692359697325,-40,-1,-4,-6,-8,-4,-6,-9
1530692359704307,-2,-10,-9,-6,-1,4,8,16
1530692359704307,4,-5,-1,-12,-4,-9,-2,13
1530692359721261,-62,-5,5,0,-11,-24,-11,-26
1530692359721261,49,10,4,-5,8,41,12,1
1530692359722259,9,-6,-4,9,-15,-78,-15,2
1530692359722259,-8,5,6,10,21,33,2,0
1530692359743203,10,0,-16,10,-8,-2,12,-4
1530692359743203,7,-4,11,-3,-2,8,-4,-14
1530692359745197,-40,3,0,2,2,16,3,28
1530692359745197,36,11,14,-18,-11,-25,-4,-15
1530692359758163,-64,-3,-7,-8,1,-3,-6,8
1530692359758163,-6,-5,-5,3,-4,0,-2,-3
1530692359764147,-24,0,-2,-12,3,20,2,-5
1530692359764147,39,3,0,8,-5,-34,-14,-5
1530692359781102,89,1,3,-3,3,21,17,30
1530692359781102,-62,-9,-9,-2,-5,-29,-25,-14
1530692359782099,-2,1,5,-1,3,28,11,7
1530692359782099,-9,-5,-8,0,-12,-27,-11,-17
1530692359803043,37,-6,2,8,10,14,12,32
1530692359803043,-33,-2,-3,-8,-5,-7,7,-17
1530692359805038,74,7,4,1,3,8,5,14
1530692359805038,-108,-7,-3,10,-3,4,9,10
1530692359818003,12,0,1,-8,-1,-11,-15,-55
1530692359818003,15,-2,-1,3,-4,5,1,24
1530692359824984,-10,-4,2,-2,6,9,0,-4
1530692359824984,22,-3,-6,-7,-6,-19,5,4
1530692359840941,-17,-6,1,1,1,13,6,-5
1530692359840941,27,2,1,6,6,-3,-5,4
1530692359842936,-1,24,1,1,-9,-9,-2,-8
1530692359842936,40,-4,-2,-6,2,6,1,-5
1530692359862882,-6,-2,1,0,0,-7,-2,21
1530692359862882,48,-6,-3,3,-4,1,6,-4
1530692359864877,-50,-6,-7,-11,-3,-9,-3,-11
1530692359864877,12,9,2,-5,1,26,11,9
1530692359876845,32,1,2,13,-2,4,-10,-1
1530692359876845,-74,-5,-4,-10,6,19,10,-1
1530692359885822,32,-4,3,15,4,-8,-9,4
1530692359885822,1,-8,-5,-8,-8,4,-2,-21
1530692359900781,3,12,-6,-12,-8,-24,-1,22
1530692359900781,49,3,0,-2,-2,14,0,-1
1530692359902776,-21,-10,-4,-8,-2,22,-6,-14
1530692359902776,0,-1,2,7,4,-19,-20,-9
1530692359923720,3,-5,-1,1,-1,5,11,4
1530692359923720,16,7,3,5,3,-1,-7,-5
1530692359924717,-16,-5,-2,-3,-2,-12,-2,-2
1530692359924717,18,-7,-5,2,-3,-3,11,22
1530692359936685,-56,-1,1,-4,0,-6,-5,11
1530692359936685,-9,0,-3,-5,-6,9,9,-43
1530692359945661,-3,-6,-3,1,-1,-3,10,18
1530692359945661,-10,1,-2,1,0,1,-3,12
1530692359960621,5,-4,-3,-6,2,-2,-1,-4
1530692359960621,10,-5,0,6,-2,-10,-5,-7
1530692359962616,42,3,0,0,1,-14,4,7
1530692359962616,-50,3,-8,-7,-8,16,5,25
1530692359983560,53,-2,0,-4,-5,19,-3,-22
1530692359983560,-2,2,-3,-3,-1,-72,-7,0
1530692359985555,-14,-3,3,-1,0,-6,4,2
1530692359985555,11,9,5,4,9,5,-5,-3
1530692359997522,78,-4,-4,-3,-9,-24,-12,-9
1530692359997522,-17,0,-1,-1,1,28,14,46
1530692360006498,33,6,0,10,1,0,-16,-41
1530692360006498,-62,-3,0,0,4,-9,-4,-20
1530692360020461,10,2,3,4,3,11,-2,-9
1530692360020461,2,-4,-3,-5,-4,-4,0,-3
1530692360022456,-73,-10,-2,-2,2,10,-2,23
1530692360022456,78,13,0,2,-7,0,3,-31
1530692360043400,-42,-3,0,4,5,2,10,15
1530692360043400,-17,-2,1,2,0,4,-6,-27
1530692360045395,-48,-5,-1,-2,-2,8,-2,-6
1530692360045395,11,-6,-3,-1,-4,-4,3,-7
1530692360057362,-7,0,1,-5,-2,-10,-4,1
1530692360057362,-17,2,2,2,8,35,19,17
1530692360066339,-12,-6,-3,2,4,-8,-4,-13
1530692360066339,-12,0,1,-3,3,-13,-5,12
1530692360081299,-2,-1,-2,-2,-17,-37,-25,-9
1530692360081299,9,3,-3,0,-4,8,-3,-12
1530692360082296,26,-2,-4,-3,-3,-5,6,21
1530692360082296,6,3,4,4,9,6,4,-24
1530692360103240,-64,-19,-7,-4,-2,-12,-7,11
1530692360103240,63,-1,-3,-4,-5,3,-2,5
1530692360105235,16,21,4,-1,-2,10,0,18
1530692360105235,-14,-24,-11,-7,-10,-40,-20,-44
1530692360117202,2,6,1,2,8,69,20,-18
1530692360117202,25,-4,0,-2,-3,-23,-6,14
1530692360126179,34,11,5,3,5,5,-1,16
1530692360126179,-18,-8,-4,-3,0,7,-7,-7
1530692360141138,1,5,3,2,5,1,-3,-16
1530692360141138,-62,6,0,1,-2,-11,-10,-3
1530692360142136,18,-6,-6,-5,-6,4,20,21
1530692360142136,18,7,7,7,7,24,-6,2
1530692360163080,-42,-5,-2,-2,-1,-32,-16,-12
1530692360163080,80,-6,-4,0,9,35,2,10
1530692360165075,-18,12,5,2,-13,-81,-17,-16
1530692360165075,77,-5,-3,-3,-7,-7,-2,4
1530692360177043,5,-2,-3,-3,0,8,7,19
1530692360177043,-19,2,2,1,-3,-16,1,1
1530692360186019,39,-17,-5,-3,4,47,-7,-36
1530692360186019,-46,9,2,1,1,-4,3,-36
1530692360200979,38,8,3,1,-2,-7,5,15
1530692360200979,-27,-7,-2,-6,-1,-1,0,23
1530692360202973,-28,-5,1,-3,-1,0,-8,-36
1530692360202973,7,1,3,13,-2,2,8,30
1530692360222920,60,2,0,1,9,25,9,24
1530692360222920,-63,2,-1,-3,-5,-14,-25,-57
1530692360224914,-11,-5,0,1,3,27,11,7
1530692360224914,13,-1,0,-7,1,-19,-5,17
1530692360236882,-25,5,2,1,0,-7,3,-9
1530692360236882,-3,-5,-3,-5,-4,-9,0,5
1530692360245859,31,2,1,0,0,1,6,17
1530692360245859,-10,3,1,2,7,16,-11,-27
1530692360260818,-49,-7,-4,-4,-10,-17,3,0
1530692360260818,-8,3,2,2,-6,45,7,7
1530692360262813,12,-5,-5,0,7,-19,-14,-46
1530692360262813,-43,2,1,1,0,13,4,58
1530692360283757,27,-5,-2,-4,1,-11,-20,-51
1530692360283757,23,5,2,2,0,15,3,4
1530692360284755,-11,4,0,1,2,22,9,13
1530692360284755,-36,-10,-1,-6,-6,-35,-14,-27
1530692360296722,50,8,7,8,5,21,2,6
1530692360296722,-46,-9,-2,0,1,-22,-4,-17
1530692360305698,7,3,-2,1,2,-2,-10,5
1530692360305698,-2,2,-1,-6,0,-12,26,6
1530692360320658,-13,4,2,1,-11,-24,-16,-23
1530692360320658,12,-12,-5,-2,0,-3,7,27
1530692360322653,70,2,0,-2,2,-16,3,18
1530692360322653,-86,-7,-3,-1,-1,22,0,-22
1530692360343597,83,-3,-5,-3,1,5,4,22
1530692360343597,48,5,2,0,-2,-19,-2,-8
1530692360344594,-35,-15,-6,-5,-11,7,-14,-18
1530692360344594,31,1,-9,-5,-4,5,-2,21
1530692360357560,-49,-3,2,-4,2,21,18,-14
1530692360357560,11,7,6,4,3,-39,-2,12
1530692360366536,-7,-1,-2,-1,-8,15,-7,-16
1530692360366536,29,-6,-5,-4,-3,4,13,39
1530692360380498,-72,0,-4,3,10,4,13,50
1530692360380498,-32,-8,-3,-5,2,21,-2,-36
1530692360382493,-2,11,1,-1,-5,-45,11,31
1530692360382493,28,2,-1,-2,-1,0,-1,-4
1530692360403437,-54,-12,-4,-7,-4,-4,-10,-7
1530692360403437,15,-1,-1,15,10,8,8,13
1530692360405432,10,-13,-3,-6,-8,4,8,0
1530692360405432,13,0,2,9,1,3,5,7
1530692360417400,38,9,-2,-4,-1,33,7,-6
1530692360417400,-8,1,1,-3,-3,-11,-1,3
1530692360426376,-21,-2,-3,-3,-3,-4,-1,-4
1530692360426376,44,2,0,-2,-3,6,-3,14
1530692360441335,6,-1,1,1,-1,-10,-2,-17
1530692360441335,-25,1,-2,-4,-5,-11,-8,-12
1530692360442333,-14,1,4,4,0,19,8,17
1530692360442333,-3,-6,-5,-5,-2,-12,-7,-8
1530692360463277,-25,-1,-2,0,2,32,18,18
1530692360463277,-67,5,4,-1,1,-51,-41,-50
1530692360465272,38,4,7,4,-7,-26,-9,78
1530692360465272,-53,3,0,2,-4,0,-3,-67
1530692360477240,26,0,-3,-2,4,17,7,5
1530692360477240,25,3,1,-3,-2,7,4,11
1530692360486216,-32,-4,-1,-1,3,19,-3,-34
1530692360486216,-18,-1,0,2,6,1,-2,29
1530692360501176,10,1,2,2,-22,-52,-24,-25
1530692360501176,-17,2,0,-1,7,21,15,3
1530692360502173,27,-9,-6,-5,-1,-1,7,13
1530692360502173,62,6,1,-2,-1,13,-3,26
1530692360523117,-39,0,-3,-4,6,5,18,-26
1530692360523117,25,-1,-3,-1,-4,4,-7,15
1530692360525112,49,-1,1,1,1,5,0,-25
1530692360525112,-2,-7,-2,-4,13,-39,-2,12
1530692360537080,23,4,3,4,-17,5,-10,10
1530692360537080,13,-4,-3,-3,-2,14,18,1
1530692360546056,15,4,-1,-2,1,1,-18,10
1530692360546056,-72,-2,0,-1,0,15,-1,-36
1530692360560018,23,0,1,-2,6,-21,-10,1
1530692360560018,25,-4,-1,-1,12,12,9,12
1530692360566999,-39,-4,-1,-1,-17,-31,-21,-58
1530692360566999,21,-2,-2,-3,-4,1,26,90
1530692360582957,19,-1,1,3,7,-1,-3,12
1530692360582957,-21,-6,-4,-1,-7,11,3,4
1530692360584952,-17,4,-3,-4,9,-4,-3,-17
1530692360584952,32,0,-1,3,-3,31,-5,-31
1530692360596919,-6,-6,-4,-4,-13,-72,-16,-3
1530692360596919,24,-2,2,1,-1,-15,8,21
1530692360605896,-3,-6,-3,-2,4,8,6,-11
1530692360605896,-26,4,0,1,-4,-10,-13,-30
1530692360619858,10,-13,-2,-1,5,29,-1,-14
1530692360619858,-1,4,-3,-5,-8,6,-1,25
1530692360626839,-12,-3,-2,1,-1,-20,-10,-26
1530692360626839,5,2,1,-1,-3,8,12,4
1530692360643794,17,2,-2,0,7,17,4,7
1530692360643794,29,-5,-1,-3,2,-21,4,13
1530692360644791,-26,-4,-2,0,-8,27,-8,-4
1530692360644791,-34,4,-1,-2,-4,6,8,28
1530692360665735,-23,0,-1,0,5,-3,-11,-7
1530692360665735,24,-3,-4,-2,-10,-4,0,-27
1530692360667730,-3,-2,-5,-4,1,6,18,47
1530692360667730,64,-1,4,3,4,-1,-6,43
1530692360680696,-32,-2,-3,-3,-6,3,11,-7
1530692360680696,-8,0,1,1,6,8,-6,-8
1530692360686680,28,1,-3,0,2,-7,-2,-7
1530692360686680,-26,-2,1,-1,-5,0,-3,-4
1530692360703634,45,-9,-5,-3,1,12,10,10
1530692360703634,-1,6,4,3,5,-3,1,6
1530692360704632,21,1,-1,0,-2,-3,-11,21
1530692360704632,0,-7,-2,1,-3,-20,-19,-38
1530692360725575,-10,3,-3,-4,-2,28,10,-16
1530692360725575,7,8,4,4,-1,-18,-32,-28
1530692360727570,-59,-6,1,1,2,-4,8,1
1530692360727570,26,4,3,1,3,33,2,-22
1530692360740535,-25,-5,-5,-4,-7,-7,-3,0
1530692360740535,29,-2,0,1,-7,-21,-16,-3
1530692360747517,-36,1,-2,-1,8,19,27,15
1530692360747517,15,-4,-3,-2,-2,-11,-4,0
1530692360763474,-42,2,0,-2,-1,-23,-1,14
1530692360763474,42,-2,-2,-1,1,28,11,-20
1530692360765469,-10,3,3,2,1,-2,-1,2
1530692360765469,-12,-5,-5,-2,2,8,13,14
1530692360786414,13,0,-5,-1,3,-22,-13,-8
1530692360786414,-21,-1,-2,-2,-13,7,-2,-10
1530692360788408,-14,-2,0,-2,-2,7,4,-7
1530692360788408,11,3,1,0,-1,-6,2,39
1530692360800375,20,3,6,4,10,-12,-10,-47
1530692360800375,-5,-3,-2,-2,-10,-9,-5,10
1530692360807357,0,6,2,1,2,12,-3,3
1530692360807357,36,5,-1,-2,-3,-5,10,-10
1530692360823314,-7,-3,1,1,-3,-5,-11,9
1530692360823314,30,0,-3,-3,0,-1,3,-6
1530692360825309,-70,-2,3,1,9,-17,1,-1
1530692360825309,2,-7,-4,-4,-13,0,-18,-26
1530692360846252,14,2,4,5,1,-6,-2,12
1530692360846252,12,-5,-7,-3,9,26,6,-11
1530692360847251,-2,-10,-6,-6,-21,-24,9,15
1530692360847251,79,11,3,0,-6,-14,6,58
1530692360860215,-15,0,2,0,-1,5,-6,-3
1530692360860215,-43,1,4,4,2,-7,-6,-1
1530692360867197,47,-6,-5,-5,0,11,1,-22
1530692360867197,-34,-7,-2,-2,2,0,-3,-47
1530692360883154,7,-3,-2,-1,-7,9,3,58
1530692360883154,18,8,4,0,-2,0,7,8
1530692360885149,13,2,0,4,4,6,-7,-3
1530692360885149,-32,-4,1,1,1,6,-6,-16
1530692360906093,5,4,1,0,6,-10,-8,-12
1530692360906093,-8,-5,-3,-3,-3,-5,3,7
1530692360907090,-23,-2,3,2,-2,-8,5,-5
1530692360907090,69,6,-3,-6,-5,7,1,-1
1530692360919058,-84,-10,-5,-4,1,12,0,-3
1530692360919058,12,0,-1,-2,0,10,7,17
1530692360928034,21,2,5,5,8,-16,-36,-51
1530692360928034,14,7,6,3,3,3,9,31
1530692360942994,69,-7,-7,-6,-4,11,21,34
1530692360942994,-30,4,0,-1,-4,-15,-8,18
1530692360944989,51,-3,1,-1,4,17,-4,-27
1530692360944989,-31,-9,-4,-4,-2,-12,-8,-53
1530692360965933,17,16,9,7,5,4,-6,61
1530692360965933,-19,-8,-3,-3,-3,6,10,20
1530692360967927,39,5,-2,-2,-7,3,19,43
1530692360967927,-45,-8,1,4,8,4,0,-15
1530692360979895,-19,3,-4,-4,-10,-7,3,-17
1530692360979895,-24,-6,-4,-4,-2,-17,-5,-5
1530692360988871,-6,3,2,0,3,33,-3,-39
1530692360988871,-2,3,-2,-2,1,-21,-13,-10
1530692361003831,-87,-9,1,2,-2,-1,8,-4
1530692361003831,25,9,0,1,-3,6,-4,-10
1530692361004829,24,1,-4,-2,-2,-28,-14,-6
1530692361004829,-29,-5,-2,-2,1,-2,2,34
1530692361025772,49,2,-1,-4,-6,-9,0,-45
1530692361025772,26,-5,-5,-4,4,6,3,-16
1530692361027767,-33,-5,-3,1,1,7,8,14
1530692361027767,33,3,-2,-4,-3,5,-4,0
1530692361039735,-49,-1,1,0,3,-11,-11,-34
1530692361039735,-56,-3,3,3,0,17,22,25
1530692361048711,-46,1,-3,-1,-2,-4,-1,-23
1530692361048711,10,-3,-2,-1,-2,-2,1,17
1530692361063671,0,10,1,2,-2,3,-10,-32
1530692361063671,1,-4,0,0,2,-9,-3,14
1530692361064669,6,-5,-6,-3,-3,-1,2,24
1530692361064669,-40,-8,0,-1,-2,-21,-8,-18
1530692361085613,52,-4,0,0,-3,23,8,2
1530692361085613,24,3,0,-1,0,-5,5,14
1530692361087607,19,3,0,-2,-4,8,1,3
1530692361087607,6,-1,-4,-2,5,-12,-1,6
1530692361099575,14,-2,-1,-4,-5,-29,-8,-9
1530692361099575,-13,-4,1,-1,-5,2,-7,-11
1530692361108551,-27,0,0,-2,1,-32,-3,8
1530692361108551,17,0,-1,4,4,17,1,-6
1530692361123511,-2,-3,-3,-2,-1,9,3,7
1530692361123511,-38,-5,-5,-3,0,2,2,-14
1530692361125506,24,5,3,-1,2,-5,-10,19
1530692361125506,3,6,3,3,-6,21,3,-31
1530692361145452,-49,-12,-6,-6,-4,-18,-9,39
1530692361145452,34,13,4,4,3,-17,-10,-5
1530692361147448,-8,-4,-3,0,0,22,1,-5
1530692361147448,-3,8,4,-1,-2,2,7,21
1530692361159415,11,0,-1,4,10,19,0,-15
1530692361159415,-1,-5,-5,-4,-14,-10,-2,-6
1530692361168391,-17,-9,1,-1,1,-8,6,1
1530692361168391,-32,-2,-3,-1,0,2,1,4
1530692361183351,35,-1,-5,-6,-7,-15,-1,2
1530692361183351,0,-1,4,3,7,4,-7,-19
1530692361185346,-12,6,2,3,1,9,9,31
1530692361185346,15,-10,-1,-2,-3,2,-1,-28
1530692361206290,31,3,2,1,-2,0,-14,-55
1530692361206290,29,2,-3,-1,-3,0,15,93
1530692361207287,14,-1,-1,-2,-4,3,7,-22
1530692361207287,-9,-2,-5,-2,3,1,-3,-1
1530692361219255,-4,-2,-2,-2,3,-7,4,1
1530692361219255,3,-3,-2,-3,-3,16,6,-3
1530692361228231,11,4,1,-1,-1,-5,5,16
1530692361228231,-12,0,0,1,2,8,-18,-13
1530692361243191,5,-7,-4,-2,0,-7,1,17
1530692361243191,-63,1,3,2,-7,9,3,-33
1530692361245186,19,-3,-5,-6,-7,-26,-13,2
1530692361245186,7,5,3,1,-1,-5,4,5
1530692361266130,-21,-8,-5,-4,-2,11,8,3
1530692361266130,57,13,7,5,7,-3,-16,-7
1530692361267127,-35,-11,-8,-7,-10,-3,-3,-10
1530692361267127,11,2,1,2,0,-16,-8,-10
1530692361279095,50,8,3,1,-1,1,-3,23
1530692361279095,-45,-7,-3,-3,1,0,1,-11
1530692361288071,29,11,1,-1,4,17,18,29
1530692361288071,-9,-10,-5,-5,-10,-9,-3,-14
1530692361303031,-4,1,3,4,5,13,13,8
1530692361303031,10,2,0,3,3,-15,-9,-11
1530692361305026,-2,-6,0,0,-5,9,-18,-15
1530692361305026,50,5,-2,-2,1,18,10,21
1530692361325970,-2,4,0,1,1,-6,-1,-4
1530692361325970,3,-7,-4,-4,-5,-13,-5,-13
1530692361331954,-16,-6,1,2,8,20,10,-4
1530692361331954,35,10,8,6,-3,-15,-7,25
1530692361339932,-37,-10,-4,-2,1,17,6,0
1530692361339932,6,-9,-6,-4,-8,-17,-18,-61
1530692361348908,-20,3,-1,0,-5,5,-4,9
1530692361348908,-12,-2,-3,-3,-1,13,11,16
1530692361362871,-24,0,1,-1,-1,-11,-13,-8
1530692361362871,-22,-7,-5,-4,-8,2,20,-7
1530692361364866,8,-5,3,4,9,25,7,23
1530692361364866,24,12,1,0,-7,-20,-1,19
1530692361385810,5,-11,-4,-2,-1,-9,-9,-48
1530692361385810,30,0,1,-1,4,-6,-2,24
1530692361387804,-20,-3,0,1,0,-3,-7,-14
1530692361387804,-29,-5,-3,-3,6,-1,-3,-10
1530692361399773,9,5,2,0,-4,0,6,18
1530692361399773,31,7,3,0,6,8,-2,8
1530692361408749,17,-2,-3,-3,-6,-4,-1,-19
1530692361408749,-55,-16,-4,0,4,-14,-12,-12
1530692361423708,-5,9,-3,-5,-1,3,-4,-4
1530692361423708,-28,-3,2,1,-4,-17,-9,14
1530692361424706,11,6,0,-2,2,-5,5,-31
1530692361424706,-19,2,-1,0,-2,-1,-4,-52
1530692361445650,-2,-5,-3,-1,-3,-5,4,82
1530692361445650,-4,-2,-3,-1,-1,0,-2,24
1530692361447645,-66,-10,-4,-2,-4,-2,2,-31
1530692361447645,16,0,-3,-1,-5,7,9,-16
1530692361459612,11,-4,-1,-1,-3,-6,-9,-33
1530692361459612,-2,0,-5,-3,0,8,3,15
1530692361468589,7,-1,-1,-1,-6,-6,11,19
1530692361468589,14,-1,0,-1,4,7,6,20
1530692361482551,25,8,4,1,-5,-7,-2,-8
1530692361482551,-31,-2,-1,1,8,6,3,-2
1530692361489532,16,-1,-3,-2,-3,-5,-6,-2
1530692361489532,-25,0,3,2,3,4,-9,-26
1530692361505490,8,3,0,-1,6,53,1,0
1530692361505490,29,3,-1,-4,-15,-86,-18,-26
1530692361507484,0,-2,1,1,4,-8,-1,27
1530692361507484,-79,-16,-6,-7,-5,2,5,-6
1530692361519452,-44,3,1,1,4,5,-6,-45
1530692361519452,15,-3,-2,0,3,27,12,9
1530692361528429,-27,5,4,1,1,-3,-15,-19
1530692361528429,19,5,0,-1,-2,-15,2,20
1530692361542391,5,-8,-4,-2,-5,-6,4,-4
1530692361542391,10,-3,1,1,5,20,9,41
1530692361549372,23,10,0,1,-1,-20,-7,-54
1530692361549372,-20,-5,-3,-1,2,21,1,59
1530692361566327,19,3,-4,-4,-11,-13,15,-15
1530692361566327,11,0,1,4,7,35,8,-12
1530692361567325,45,-5,-4,-2,-7,-15,-19,11
1530692361567325,46,2,-1,-2,-4,-9,-7,14
1530692361588268,-38,4,3,3,4,-3,-17,-15
1530692361588268,43,-2,-4,-3,-1,-5,-5,22
1530692361590263,11,0,2,-1,2,5,2,-16
1530692361590263,35,-2,-3,-2,-3,10,8,4
1530692361602231,17,5,4,1,1,-20,7,68
1530692361602231,-39,1,1,0,8,5,-4,-57
1530692361609212,5,8,2,2,-7,4,7,24
1530692361609212,-1,0,-1,1,-5,-20,-6,24
1530692361626167,-3,-7,-5,-2,0,36,8,-17
1530692361626167,-18,2,2,1,1,5,1,0
1530692361627165,28,-9,-5,-4,0,-1,-3,24
1530692361627165,-40,10,9,7,5,17,-14,-16
1530692361648108,26,-4,-6,-3,2,-63,0,28
1530692361648108,3,-1,3,4,-7,-13,-12,-21
1530692361650103,-4,-7,-3,-2,-2,2,1,-6
1530692361650103,14,6,-1,-2,-1,-3,13,-21
1530692361663068,8,-5,1,0,6,27,5,32
1530692361663068,-66,-8,-7,-8,-6,0,-4,-2
1530692361669052,38,11,1,-2,0,-15,-2,-14
1530692361669052,13,-6,-3,-2,2,6,-3,-36
1530692361686007,-25,2,2,2,1,-12,-1,-1
1530692361686007,25,-7,-5,-3,-7,26,11,-3
1530692361687004,-76,-2,-2,1,-3,-4,-1,-14
1530692361687004,-1,-2,-3,-2,-1,-5,1,2
1530692361707948,-3,-3,-1,1,10,-8,5,-2
1530692361707948,32,1,3,-1,-10,0,7,3
1530692361709943,-56,-8,-5,-5,8,-40,-4,2
1530692361709943,17,-6,-1,-2,-15,-28,-5,10
1530692361722908,-38,-9,-6,-6,-3,2,-1,-18
1530692361722908,39,26,12,5,8,6,0,17
1530692361729890,37,6,3,3,-1,20,9,26
1530692361729890,-63,-17,-6,0,0,-13,-8,-25
1530692361745847,24,-4,-4,-1,-5,-4,-4,-19
1530692361745847,-37,-3,-3,-1,3,18,10,1
1530692361747842,54,8,-2,-2,-3,8,-3,16
1530692361747842,-52,-3,1,0,2,1,2,-13
1530692361768785,66,8,3,3,-4,11,5,33
1530692361768785,-85,-6,-1,-1,1,-22,-5,-26
1530692361769783,-4,0,2,5,8,10,4,7
1530692361769783,33,3,-2,-1,4,24,13,15
1530692361783746,12,2,2,-1,-8,-14,-9,-5
1530692361783746,22,-1,-1,-2,5,36,5,6
1530692361789729,-18,-3,1,0,-2,-59,-12,-33
1530692361789729,8,-7,-3,0,7,1,7,49
1530692361805687,35,13,5,3,-3,18,-6,-92
1530692361805687,31,-4,-4,-1,0,-13,-7,15
1530692361807682,-20,-5,-3,-3,1,26,4,-12
1530692361807682,0,7,4,3,5,9,-3,57
1530692361828626,-10,-4,-2,-3,1,-16,-7,-47
1530692361828626,44,-2,-3,-2,-6,-14,6,24
1530692361829623,-53,-10,-3,-2,7,4,0,-19
1530692361829623,46,8,-2,-5,-16,0,12,-7
1530692361842588,-106,-1,6,3,1,11,-4,20
1530692361842588,27,0,-2,0,1,24,-3,3
1530692361849569,11,-5,-7,-4,-6,-16,-25,10
1530692361849569,9,-4,0,1,3,-2,-1,-35
1530692361865527,83,13,-2,-5,-10,-4,8,26
1530692361865527,-57,-8,-1,0,1,-6,-8,-7
1530692361867522,3,7,6,2,1,26,5,22
1530692361867522,-25,-11,-12,-8,-2,2,-12,-45
1530692361888465,-4,-1,2,4,10,12,18,45
1530692361888465,19,2,2,2,-2,-17,-22,5
1530692361890460,-4,6,0,-2,0,14,1,-33
1530692361890460,3,-1,-3,-4,-9,-31,-16,17
1530692361902428,-36,-11,-2,-1,1,-10,-6,1
1530692361902428,-32,-6,-3,-1,6,-3,12,-5
1530692361911404,-43,-10,-8,-6,-10,11,-4,8
1530692361911404,28,6,6,2,2,13,-2,-3
1530692361926364,-76,-10,-5,-5,-10,-11,-9,-21
1530692361926364,58,6,1,1,-6,-41,-13,14
1530692361927362,98,8,2,0,2,1,16,20
1530692361927362,3,-3,-3,-4,-3,-4,-8,-20
1530692361948306,-17,-1,1,-2,-3,7,-3,4
1530692361948306,-30,-1,-1,-1,2,-10,-11,-21
1530692361950300,-17,2,2,3,-2,20,11,20
1530692361950300,32,-3,-3,-2,-2,-5,9,-15
1530692361962268,-21,6,1,1,3,22,-4,36
1530692361962268,-33,-11,-7,-6,1,-48,8,-35
1530692361971244,-47,-5,-1,3,-1,-15,-18,-20
1530692361971244,20,1,3,2,-2,8,7,1
1530692361986204,26,4,1,3,2,-10,-3,-5
1530692361986204,-7,-4,-3,-5,-4,12,1,11
1530692361987201,26,-8,-5,-2,-5,0,-1,-18
1530692361987201,-15,-3,0,3,9,4,-7,-2
1530692362008145,-44,3,-4,-3,-7,1,2,0
1530692362008145,2,1,-5,-5,-10,5,-1,-1
1530692362010140,30,-5,1,0,-4,-3,14,24
1530692362010140,-15,7,4,2,3,17,0,-10
1530692362022108,24,-6,-5,-3,6,-28,-15,-4
1530692362022108,-24,-1,-1,2,2,25,3,25
1530692362031085,-43,-6,-3,-3,-5,-9,0,-15
1530692362031085,-49,-5,-1,-1,0,7,1,-2
1530692362046044,51,0,0,3,-3,-7,-7,-21
1530692362046044,-1,-1,1,-1,-6,-8,17,8
1530692362047042,3,-2,1,-1,8,-5,-11,-12
1530692362047042,64,1,-1,-1,-4,9,9,34
1530692362067985,20,3,1,0,-3,9,14,9
1530692362067985,-27,-3,-4,-4,-7,-8,-32,-50
1530692362069980,14,4,3,4,6,13,3,13
1530692362069980,3,-6,-3,-3,-11,-23,3,1
1530692362081948,6,-10,-9,-11,-12,-39,-8,3
1530692362081948,38,8,7,4,8,11,-8,-16
1530692362090924,-1,13,4,1,1,12,1,7
1530692362090924,5,-3,-3,-4,-1,7,-13,-20
1530692362105884,2,-3,-2,-2,-1,26,11,8
1530692362105884,15,-7,-5,-3,-5,0,3,3
1530692362107879,48,3,4,3,4,-22,-12,24
1530692362107879,-68,-8,-3,-2,-2,-15,-3,-39
1530692362128823,-1,-1,-1,2,12,20,0,9
1530692362128823,22,-2,-1,-1,-2,24,26,31
1530692362129821,-55,-4,-4,-3,-6,1,0,21
1530692362129821,34,8,2,0,3,-4,-1,22
1530692362141788,4,-3,1,-1,0,0,-3,-21
1530692362141788,-10,3,1,0,5,3,-8,-4
1530692362150764,0,-1,-4,-3,-10,-40,-11,-4
1530692362150764,-10,0,2,2,3,25,15,13
1530692362165724,8,3,-1,0,-2,-29,-4,-5
1530692362165724,-48,-1,-2,-2,-4,31,-3,-13
1530692362167719,1,-7,1,-3,2,-1,-2,-21
1530692362167719,-7,1,-4,-3,-3,-27,-18,-6
1530692362188662,52,1,4,3,-4,8,6,7
1530692362188662,1,2,3,1,4,-3,1,1
1530692362189660,22,1,-2,-2,0,17,-4,-10
1530692362189660,-20,1,3,3,4,9,-3,-1
1530692362201628,-41,-9,-2,-2,-3,-1,-9,4
1530692362201628,22,-5,-4,-1,-4,-23,-6,-33
1530692362210604,26,1,-3,-2,2,24,11,9
1530692362210604,24,4,0,0,-4,0,8,19
1530692362225564,4,1,-1,0,-1,4,-6,-8
1530692362225564,1,-11,-6,-5,-3,-10,-4,-8
1530692362227559,29,5,2,2,-1,-19,-2,-4
1530692362227559,-23,4,4,1,9,17,0,5
1530692362248503,-81,-9,-5,-6,-4,13,5,-15
1530692362248503,42,10,6,5,8,3,1,-1
1530692362250497,4,-9,-5,-2,-3,-9,-2,54
1530692362250497,32,2,-3,-1,-11,-33,-10,-54
1530692362262465,3,1,4,4,3,-1,1,13
1530692362262465,19,-1,-1,0,2,10,10,37
1530692362271442,-10,-2,0,-1,-3,3,-1,-19
1530692362271442,-22,0,-2,-5,-2,24,19,38
1530692362285404,36,-7,-6,-3,12,-21,-37,-81
1530692362285404,23,14,4,3,-14,6,20,55
1530692362287399,2,0,0,-4,0,-6,-2,-65
1530692362287399,-63,-5,-2,-1,-3,5,-6,14
1530692362308342,13,0,-1,2,5,12,6,2
1530692362308342,23,-8,-4,-3,3,-6,3,23
1530692362310337,-13,0,-3,-3,-3,8,-1,-36
1530692362310337,27,-5,-4,-2,-2,-6,12,36
1530692362322305,5,4,1,2,-1,3,-2,14
1530692362322305,7,2,3,1,-4,-29,-23,-53
1530692362331281,-2,-3,-3,1,-1,24,13,27
1530692362331281,-11,-6,-3,-1,-2,-13,-12,-34
1530692362346241,66,-5,-4,-2,-7,-1,21,27
1530692362346241,15,0,5,1,3,2,-6,-1
1530692362347239,-59,2,-1,0,0,-3,0,5
1530692362347239,37,6,0,-2,-6,-17,-2,-3
1530692362368183,-73,-7,-2,-3,3,6,7,5
1530692362368183,53,0,-3,-3,-1,4,3,12
1530692362370178,8,-1,0,2,2,-22,-13,0
1530692362370178,32,1,1,1,1,21,10,8
1530692362382145,-52,-1,-3,-4,-6,1,8,11
1530692362382145,-55,-4,-5,-2,4,7,-2,-9
1530692362391121,11,1,-2,-1,5,4,2,5
1530692362391121,-49,-6,-2,-2,-8,-5,-7,-17
1530692362406081,37,3,2,2,-1,1,-3,4
1530692362406081,-36,-4,-3,-2,0,0,-1,-2
1530692362407079,-1,-6,-3,-2,-3,-3,1,7
1530692362407079,11,6,3,-1,2,-11,-4,-26
1530692362428022,17,7,4,5,-2,4,-5,46
1530692362428022,-61,3,-1,0,-3,-28,-9,-11
1530692362430017,60,0,1,1,9,27,9,2
1530692362430017,-45,-8,-4,-2,-9,-24,-4,0
1530692362441985,26,5,4,1,-1,14,4,0
1530692362441985,-11,0,-2,-2,-3,-6,-8,9
1530692362450961,10,2,5,2,-2,5,-1,8
1530692362450961,-14,-3,-2,0,5,10,-3,-19
1530692362464924,-3,0,-2,-3,-2,-8,7,4
1530692362464924,30,-9,-4,-3,-6,-29,-8,3
1530692362471905,6,0,-4,-2,0,25,22,24
1530692362471905,17,1,-1,0,6,-8,-18,-4
1530692362488860,-12,8,2,3,-2,-3,1,-10
1530692362488860,12,-3,-3,-4,-4,10,-3,-24
1530692362489858,-32,-3,0,0,0,8,0,7
1530692362489858,-15,-1,1,-2,-2,-19,-1,30
1530692362501825,40,-5,0,1,11,18,-3,-38
1530692362501825,-24,-1,-6,-6,-9,5,2,-8
1530692362510801,60,4,1,2,-8,-13,-6,4
1530692362510801,-21,-2,-3,-2,6,4,6,2
1530692362524764,-16,-5,-5,-5,-9,-17,-13,-16
1530692362524764,-1,-4,0,3,6,8,-4,0
1530692362531745,-30,1,1,1,-1,13,-1,-3
1530692362531745,44,-5,-2,-2,-6,4,2,-26
1530692362548700,-55,-3,-3,-1,2,-25,-19,-5
1530692362548700,-18,-1,0,0,1,6,3,10
1530692362549697,19,9,-1,-3,0,-3,11,13
1530692362549697,-22,-11,-5,-2,-2,-9,-16,-14
1530692362570641,0,9,5,-1,0,30,12,1
1530692362570641,-4,-3,0,0,4,13,6,-4
1530692362572636,21,-1,-1,0,-5,-18,-15,-4
1530692362572636,8,2,2,1,1,10,9,16
1530692362585601,-36,-11,-7,-6,-8,-16,-5,-19
1530692362585601,8,8,4,2,4,0,-10,-6
1530692362591585,5,-4,-3,-2,-8,-11,-14,-48
1530692362591585,29,0,-1,-1,-1,-9,20,92
1530692362608540,-5,-4,-3,-2,-1,14,-6,-45
1530692362608540,-2,-3,0,-1,-1,6,-1,7
1530692362610535,-8,-3,0,-1,5,2,-6,6
1530692362610535,51,6,3,3,0,-6,3,-17
1530692362630481,14,3,0,0,3,-2,9,18
1530692362630481,-1,2,1,0,-12,-33,6,3
1530692362632476,12,-7,-4,-2,2,12,-5,14
1530692362632476,6,1,-1,-1,2,17,-7,-21
1530692362645441,0,0,0,0,-3,-2,4,24
1530692362645441,0,2,-1,2,5,-4,0,-14
1530692362652422,-2,-5,-5,-7,-9,-17,7,14
1530692362652422,-8,2,3,1,3,30,4,-4
1530692362668380,82,5,1,-1,-3,-21,-4,34
1530692362668380,-39,-5,-3,-1,-1,3,-8,-44
1530692362670375,16,4,-2,-2,5,-2,8,30
1530692362670375,-36,0,-1,1,1,6,-11,-39
1530692362698300,-6,-5,0,-1,-2,-16,7,29
1530692362698300,39,0,2,3,6,26,-6,-15
1530692362700295,-18,-5,-1,-1,-14,-23,-2,12
1530692362700295,-2,3,3,2,0,-20,-4,-27
1530692362705281,-18,-4,-3,-2,0,19,2,-8
1530692362705281,12,3,0,-3,-1,-15,2,11
1530692362712262,-26,-5,-1,-1,3,15,0,-13
1530692362712262,-5,3,3,1,-1,1,-2,13
1530692362728220,8,-5,-6,-3,-5,-11,8,9
1530692362728220,-35,0,1,-2,-6,2,3,13
1530692362730215,62,-1,-2,1,3,18,2,-24
1530692362730215,-23,-4,-4,-2,-4,-7,3,21
1530692362751158,31,2,-3,-3,-2,-10,-2,-6
1530692362751158,-26,4,0,-1,0,1,4,23
1530692362752156,-11,-5,-6,-3,-7,-18,-9,-12
1530692362752156,-26,-4,-2,-1,2,-2,-12,-16
1530692362765121,-9,-3,-3,-1,0,33,6,-12
1530692362765121,32,0,-1,-3,-6,-12,-3,14
1530692362772102,-71,1,5,4,6,-12,-3,-4
1530692362772102,15,2,1,1,1,-18,-6,-6
1530692362788060,14,5,1,0,-4,2,-5,-5
1530692362788060,8,-3,0,1,2,-9,-1,12
1530692362790055,15,3,1,0,2,22,8,-7
1530692362790055,-1,-5,-4,-3,-1,-9,-6,-16
1530692362810998,-38,-5,0,-1,0,-12,7,9
1530692362810998,-1,-4,-4,-2,5,26,18,52
1530692362811996,-42,12,8,3,1,-12,-11,-41
1530692362811996,17,-4,-3,-2,0,6,-4,-2
1530692362824961,43,6,0,-2,-11,-10,-6,27
1530692362824961,-14,-5,-3,-2,-3,-10,-1,-16
1530692362833937,7,-5,-2,-2,-2,7,10,15
1530692362833937,8,0,-1,1,2,12,2,3
1530692362848897,-23,12,8,4,5,-28,-7,7
1530692362848897,-23,-5,-1,-2,5,27,0,-35
1530692362849895,11,-2,-4,-6,0,-1,2,-2
1530692362849895,25,3,1,7,-2,10,30,34
1530692362870838,-11,-8,-4,-7,-2,-7,-15,-24
1530692362870838,27,5,1,4,1,-7,-14,-7
1530692362872833,-40,-4,-3,-3,-2,51,9,10
1530692362872833,16,-7,-7,-5,-3,-39,-17,-24
1530692362884801,9,-3,-3,-2,-1,8,6,-17
1530692362884801,0,-5,1,0,-2,-4,0,-21
1530692362893777,61,6,-3,-2,0,-14,-16,43
1530692362893777,-55,-2,-1,-3,-8,17,7,-21
1530692362908737,-20,-5,-1,-3,-1,0,-4,-19
1530692362908737,2,-2,-1,-2,-2,4,-8,0
1530692362909735,21,-3,1,4,1,-14,-2,-12
1530692362909735,10,2,3,-1,2,-1,-7,5
1530692362930678,-35,-8,-9,-4,-3,-5,-4,-1
1530692362930678,-8,-3,2,0,-2,1,-4,-16
1530692362932673,-26,-6,-5,-2,-3,-15,10,17
1530692362932673,6,3,6,2,2,-2,-14,-11
1530692362944641,-13,2,5,2,7,18,-8,4
1530692362944641,42,-5,-6,-4,-3,5,16,13
1530692362953617,-64,-7,-1,0,-1,-6,-9,-38
1530692362953617,22,3,-3,-2,-3,-23,-1,12
1530692362968577,18,-2,1,5,0,-8,1,-5
1530692362968577,8,-2,2,1,1,15,0,62
1530692362969574,-56,3,-1,-2,0,-3,-5,-65
1530692362969574,-5,-4,-6,-5,-5,2,5,-3
1530692362989521,52,6,4,3,0,6,-1,13
1530692362989521,-6,-2,0,1,3,-11,-19,4
1530692362998498,-6,-1,-2,-1,-4,2,6,-45
1530692362998498,43,1,0,-3,4,4,-1,40
1530692363004481,-15,-3,-3,-4,-1,-8,-2,-20
1530692363004481,4,-1,0,-2,-6,-15,0,-4
1530692363013458,21,-3,2,0,5,28,-1,21
1530692363013458,-1,8,0,-3,-2,-13,15,-18
1530692363028417,-50,-7,-3,-2,1,-8,-11,0
1530692363028417,2,3,-1,0,1,-1,-3,-14
1530692363030412,14,-2,0,-2,-12,-49,-9,24
1530692363030412,-2,6,7,5,5,24,-5,-8
1530692363051355,21,0,-2,2,6,16,0,-3
1530692363051355,-14,-1,0,0,-15,-17,-6,-23
1530692363052353,59,7,-2,-3,1,-1,-6,22
1530692363052353,-80,-13,-6,-3,0,14,1,1
1530692363064321,31,3,2,1,0,-1,7,10
1530692363064321,17,3,1,3,-4,-6,0,-3
1530692363073297,18,0,-1,-2,4,5,7,27
1530692363073297,1,2,-2,-3,-5,2,-2,12
1530692363088257,5,-3,-3,-1,-2,-11,-4,-5
1530692363088257,5,0,-3,-4,-1,2,3,-10
1530692363090252,-43,-2,-2,2,6,21,17,16
1530692363090252,-1,-4,-1,0,2,9,3,-18
1530692363111195,-22,-2,-4,-3,-2,5,-3,-3
1530692363111195,11,3,2,5,6,1,-6,-14
1530692363112193,3,3,1,1,-1,-8,-3,-13
1530692363112193,17,-7,-4,-3,2,-3,0,6
1530692363124161,23,1,1,-4,-7,-1,8,7
1530692363124161,-94,-6,-5,-4,3,-5,4,-12
1530692363133137,-38,1,1,2,-2,-1,0,2
1530692363133137,43,1,0,1,7,-7,-15,21
1530692363148097,15,-4,-4,0,-4,64,19,-36
1530692363148097,-35,-2,-1,-6,-4,-52,-16,10
1530692363150092,-50,2,1,-2,-1,13,4,11
1530692363150092,1,-2,-3,0,-8,2,8,-1
1530692363171035,8,0,0,1,2,-4,-8,5
1530692363171035,49,0,-1,1,3,20,2,-9
1530692363173030,-1,-5,1,-2,-5,-12,-11,6
1530692363173030,25,3,0,0,-1,-2,-3,1
1530692363184998,-44,2,1,1,2,-11,-3,3
1530692363184998,12,-8,-6,-4,-2,8,16,11
1530692363193974,60,0,-2,2,-2,-15,-8,-9
1530692363193974,18,1,-1,-1,-1,4,-2,-17
1530692363208934,-5,-2,-2,1,-3,-6,1,15
1530692363208934,4,5,1,-3,-5,-13,-1,-8
1530692363210929,23,-5,1,2,5,-7,-11,-30
1530692363210929,-21,-3,0,-2,3,-4,2,-1
1530692363230875,22,0,-4,-3,-2,-15,9,13
1530692363230875,18,2,3,3,1,18,-1,28
1530692363232870,5,-5,-6,-3,-5,-34,9,-19
1530692363232870,-26,0,2,0,-4,18,-12,-34
1530692363244838,-8,0,0,-2,4,0,5,30
1530692363244838,42,-1,-2,0,7,1,12,10
1530692363253814,-36,1,-2,-6,-12,5,-15,11
1530692363253814,-7,0,-1,8,2,10,6,11
1530692363267777,18,1,-2,-4,-5,-8,-4,-40
1530692363267777,-21,0,-3,-1,2,11,12,40
1530692363281739,-4,-3,-2,-2,0,-3,-1,10
1530692363281739,-9,0,1,-2,0,-1,4,1
1530692363290715,-28,-2,-2,0,-2,3,-13,-18
1530692363290715,18,-3,-3,-3,-6,-7,-3,-11
1530692363292710,-8,-11,-4,-1,0,5,3,-4
1530692363292710,-7,-2,0,1,-1,-1,-4,-4
1530692363304678,-9,-8,-1,0,-1,-3,9,18
1530692363304678,24,3,0,-2,-2,-2,-5,-2
