timestamp,emg1,emg2,emg3,emg4,emg5,emg6,emg7,emg8
1530692420020999,-16,-38,-4,2,5,-19,-7,-8
1530692420020999,-53,30,1,-4,-7,3,-3,-45
1530692420022996,21,-13,-4,-3,-4,-11,0,-48
1530692420022996,65,11,11,6,5,9,8,45
1530692420034966,39,48,-2,-1,-4,-10,4,68
1530692420034966,60,62,12,6,11,48,1,-100
1530692420043938,21,-77,-20,-8,-9,-62,-18,-39
1530692420043938,3,27,6,0,-1,4,16,16
1530692420058897,28,-18,2,-2,-2,6,-1,-25
1530692420058897,70,-10,-4,-2,-3,-10,-15,29
1530692420060893,83,20,22,8,6,31,20,40
1530692420060893,-40,10,-20,-8,-9,-5,-9,23
1530692420081836,11,0,-1,1,0,-1,-4,-6
1530692420081836,19,5,-1,-1,-2,-11,-3,43
1530692420082834,6,35,33,16,13,14,26,82
1530692420082834,127,-54,-16,-6,-2,-4,-12,27
1530692420094802,-42,30,0,-1,-2,-4,9,61
1530692420094802,3,-18,-6,-3,2,3,-9,-88
1530692420103778,-95,-4,-6,-6,-5,3,-17,-75
1530692420103778,92,-60,-4,1,3,2,2,31
1530692420118738,82,-40,-7,-3,-4,-4,-1,35
1530692420118738,-30,4,-7,-1,-7,-8,-15,22
1530692420120733,-6,-1,-3,-2,0,7,14,69
1530692420120733,-52,-20,4,1,3,-27,-7,20
1530692420141676,-47,-54,-9,-1,0,12,-2,-87
1530692420141676,2,-36,-17,-12,-13,-21,-10,38
1530692420142674,90,64,0,0,0,6,-7,-51
1530692420142674,9,25,-7,-4,-2,11,9,33
1530692420154641,33,1,6,3,3,2,7,25
1530692420154641,98,58,24,11,8,-3,0,76
1530692420163617,-76,-100,-52,-23,-20,-6,-27,-60
1530692420163617,89,60,29,14,12,8,12,3
1530692420178577,-79,-35,-18,-9,-12,-6,-2,31
1530692420178577,17,-13,-3,-1,1,6,12,50
1530692420180573,15,42,12,4,4,6,7,3
1530692420180573,18,-4,9,1,-1,-5,-12,-128
1530692420201516,-95,-67,-16,-7,-3,-6,-9,-15
1530692420201516,83,2,0,0,-2,-3,4,16
1530692420203511,10,-20,2,0,2,-3,-5,-62
1530692420203511,46,34,12,5,7,42,14,41
1530692420215482,111,20,-5,-3,-6,-56,8,-60
1530692420215482,-125,-4,-14,-8,-4,-18,-17,37
1530692420224460,17,-9,2,3,2,9,15,77
1530692420224460,22,4,1,0,-2,2,16,20
1530692420238418,-44,21,8,2,1,16,-13,69
1530692420238418,117,64,16,6,7,8,25,-14
1530692420245399,-66,-15,-23,-14,-11,-24,-17,16
1530692420245399,25,-29,-3,-2,-3,-3,-10,2
1530692420260359,127,19,14,5,4,18,5,-23
1530692420260359,-93,-49,-10,-9,-4,1,4,-85
1530692420261357,31,20,-7,-3,-2,-5,-20,67
1530692420261357,-71,-20,-2,0,-3,-7,-5,-61
1530692420283304,-15,29,2,2,0,3,5,-119
1530692420283304,5,-2,6,6,0,2,1,-27
1530692420284295,-46,-30,-3,-6,-4,5,-3,-49
1530692420284295,15,27,-5,-2,-3,-13,-4,67
1530692420297260,107,22,5,2,5,13,-4,-4
1530692420297260,-9,-12,-2,-1,5,3,-2,83
1530692420306236,-3,-2,-7,-10,-18,-1,-20,-47
1530692420306236,-64,34,11,7,1,-69,-2,44
1530692420329175,14,-53,-9,-4,-3,8,2,46
1530692420329175,-94,-8,-4,-1,-1,19,-8,-92
1530692420330172,57,-73,0,7,9,0,6,36
1530692420330172,-4,9,-11,-7,-7,11,10,8
1530692420343137,-80,-2,9,3,4,8,5,51
1530692420343137,77,-17,-14,-7,-8,-22,-20,41
1530692420344135,55,13,3,1,2,4,15,93
1530692420344135,-10,8,4,2,3,22,-4,-70
1530692420358098,-10,-24,-9,-4,-4,-13,0,90
1530692420358098,7,2,5,1,-4,-2,3,-58
1530692420366077,-55,39,12,6,5,4,-3,-60
1530692420366077,-11,-48,-12,-6,-6,-3,-4,40
1530692420381036,-12,24,-2,-2,0,15,5,-56
1530692420381036,14,36,2,-3,3,16,-7,-24
1530692420382033,59,34,2,-1,-4,-36,-17,-58
1530692420382033,8,-32,-2,1,1,9,-1,-83
1530692420402977,-86,-37,-4,-3,1,36,-9,-97
1530692420402977,21,41,-5,-5,-8,-38,10,88
1530692420403975,60,7,7,7,7,5,-1,-21
1530692420403975,6,11,0,-4,-2,2,6,0
1530692420417938,-56,2,-4,1,-3,-18,-16,-43
1530692420417938,102,-11,7,6,5,29,13,98
1530692420425916,-6,2,-8,-6,-3,-3,-5,-4
1530692420425916,-90,-43,-3,-4,-4,-5,-4,44
1530692420440876,39,80,6,0,2,0,6,-23
1530692420440876,-19,-14,0,-1,-2,-11,0,31
1530692420441874,17,13,7,5,0,16,25,45
1530692420441874,-21,3,9,7,4,3,7,-5
1530692420462817,-77,-53,-25,-13,-11,-10,-8,98
1530692420462817,-62,-37,-5,-2,-1,-11,14,59
1530692420463815,96,-28,4,2,-1,13,-7,-54
1530692420463815,-11,23,-4,-4,-2,-7,10,-27
1530692420486753,66,40,13,6,2,6,6,64
1530692420486753,-34,-17,-6,-3,1,25,11,-3
1530692420487751,-87,1,-1,-1,-4,-35,-22,-60
1530692420487751,76,-26,2,2,5,14,-1,96
1530692420500716,51,-20,-25,-14,-13,-31,-19,-18
1530692420500716,104,26,11,6,4,16,13,53
1530692420501714,10,17,6,-1,1,15,14,-34
1530692420501714,-4,4,-7,-2,-4,-16,-18,-32
1530692420523655,97,26,15,10,9,23,16,-2
1530692420523655,-18,-51,-19,-11,-11,-35,-31,-58
1530692420523655,-71,19,3,3,5,9,11,76
1530692420523655,-106,-61,-19,-9,-6,21,13,-57
1530692420537617,62,-8,0,0,-2,-22,-16,58
1530692420537617,-18,19,5,2,0,-1,0,-40
1530692420553575,36,-19,7,2,2,-18,-7,-9
1530692420553575,3,50,1,-3,-1,22,-2,57
1530692420560556,63,-57,3,5,5,18,13,-30
1530692420560556,-41,-11,-22,-10,-10,-64,-16,-55
1530692420561554,40,-4,1,0,2,17,7,60
1530692420561554,83,53,2,2,2,4,7,79
1530692420583495,-51,-9,12,4,3,-8,-11,-95
1530692420583495,32,17,11,3,1,25,2,-41
1530692420584492,10,0,-8,-2,5,-2,11,58
1530692420584492,13,-17,-7,-5,-4,-15,-6,3
1530692420597457,89,40,0,2,5,17,5,-30
1530692420597457,-49,-29,-9,0,-1,-4,9,16
1530692420605436,118,68,26,6,-2,7,4,15
1530692420605436,55,8,-1,1,-1,0,-1,-25
1530692420620396,-45,8,10,4,0,-12,-20,-81
1530692420620396,-105,-105,-31,-12,-6,-7,-18,-54
1530692420621394,127,92,4,3,3,29,3,87
1530692420621394,0,4,8,2,1,-26,-18,-103
1530692420643335,-112,-79,-19,-7,-4,15,14,38
1530692420643335,62,112,15,5,-3,0,3,-5
1530692420644332,-92,-33,-10,-5,-3,-6,-4,-30
1530692420644332,82,-21,9,5,5,28,13,-15
1530692420666274,-65,21,-8,-5,-5,-30,-17,-44
1530692420666274,84,24,20,9,7,-2,-18,-5
1530692420667271,107,14,1,0,0,1,8,12
1530692420667271,44,-9,-6,1,5,17,0,27
1530692420681234,41,24,14,3,1,4,18,30
1530692420681234,-7,-1,3,-2,2,15,9,69
1530692420681234,-97,-11,-8,-4,-1,-4,-12,-58
1530692420681234,-63,-41,-12,-4,-14,-18,1,5
1530692420703175,54,5,-3,0,1,-7,-13,50
1530692420703175,-40,-2,6,2,2,5,18,37
1530692420704172,-68,-75,-24,-11,-8,-9,-24,64
1530692420704172,-77,-41,-2,-5,-2,-10,-15,64
1530692420726113,24,22,-1,-1,-6,-5,5,21
1530692420726113,-71,-6,3,1,-1,21,3,-62
1530692420727111,-52,6,10,5,1,-7,-1,-50
1530692420727111,-66,41,-6,-8,-7,-20,-20,-50
1530692420741073,25,-38,-1,0,6,50,23,-26
1530692420741073,-32,-14,-16,-7,-6,-47,-38,-71
1530692420741073,52,9,7,2,-2,5,7,56
1530692420741073,-40,-18,-3,1,2,-9,0,-12
1530692420763015,122,43,17,11,7,7,-11,91
1530692420763015,-14,-56,-12,-7,-8,11,11,30
1530692420764012,41,0,-2,-1,-3,-18,-10,-31
1530692420764012,31,69,8,1,0,22,19,58
1530692420785954,68,-41,-10,-4,-1,-14,8,7
1530692420785954,-24,-9,7,5,10,16,-10,-33
1530692420786951,13,-2,-4,-3,-4,-15,4,29
1530692420786951,74,12,-3,0,-1,-7,-4,66
1530692420800913,49,32,0,-1,-3,-9,1,-47
1530692420800913,69,18,5,4,3,7,14,58
1530692420801911,-43,-27,-2,1,2,14,3,-55
1530692420801911,126,34,9,4,3,2,3,-8
1530692420822855,-103,-44,-15,-11,-7,-18,-6,-22
1530692420822855,127,28,4,-1,0,4,3,34
1530692420823852,4,21,-3,-2,0,5,4,22
1530692420823852,77,-101,-12,-1,0,-13,-7,-65
1530692420846790,-36,35,6,1,-2,3,-6,29
1530692420846790,22,12,1,-1,1,4,-3,-74
1530692420846790,57,-7,4,2,0,-4,6,-46
1530692420846790,61,49,10,6,0,8,3,37
1530692420860753,-49,-21,-5,-4,-1,-4,-14,-42
1530692420860753,-23,-9,-6,-4,-4,-4,0,-22
1530692420861751,-41,11,5,2,3,5,9,42
1530692420861751,-32,-20,1,-4,-1,3,-2,-100
1530692420883692,-35,-29,-5,-1,-2,-23,1,40
1530692420883692,-49,3,14,5,4,10,4,-31
1530692420883692,36,-8,-10,-6,-4,2,11,72
1530692420883692,33,-26,-10,-3,-3,-8,-12,-51
1530692420905633,42,27,0,-2,-2,0,9,18
1530692420905633,29,9,-1,1,1,7,-5,-7
1530692420906631,-8,-20,2,4,3,-3,2,53
1530692420906631,-44,-3,1,-1,-3,-4,-1,-12
1530692420920593,119,114,19,3,2,3,11,56
1530692420920593,-17,-89,-34,-10,-9,-20,-30,0
1530692420921591,97,66,0,-1,2,15,6,1
1530692420921591,28,12,2,-2,2,-7,-4,21
1530692420943532,40,4,4,2,1,2,4,-2
1530692420943532,101,87,20,7,6,11,18,15
1530692420944529,-32,-53,-16,-7,-5,-15,-8,-1
1530692420944529,6,-30,-4,-2,-2,14,6,-37
1530692420965473,-38,-47,-5,-2,0,-6,-6,9
1530692420965473,52,36,6,-1,1,0,3,13
1530692420966471,-11,-27,3,6,4,-3,-12,-52
1530692420966471,92,49,4,2,4,1,7,51
1530692420980433,-128,-41,-12,-8,-6,0,-12,-51
1530692420980433,87,24,-5,1,-2,-9,6,23
1530692420981431,-91,-21,3,-2,-4,5,-4,-23
1530692420981431,59,13,-1,-2,-1,-9,3,102
1530692421003373,-15,-39,-4,1,1,14,14,65
1530692421003373,67,-27,-4,-6,-2,-13,-24,-58
1530692421004370,36,38,-9,-5,-5,-4,-1,6
1530692421004370,-105,-35,-25,-15,-13,-28,-35,-39
1530692421025313,127,18,10,4,3,4,8,38
1530692421025313,-128,-69,-14,-4,-4,-2,-1,11
1530692421026311,117,45,8,-1,2,43,4,-10
1530692421026311,108,-87,10,10,9,-21,-6,-47
1530692421041271,-56,90,1,-4,-8,-14,5,-18
1530692421041271,11,-9,1,2,0,-1,-5,44
1530692421041271,-1,-57,-7,0,1,2,1,11
1530692421041271,-8,58,17,7,2,13,16,55
1530692421063212,114,38,-7,-9,-7,-3,-10,20
1530692421063212,-33,-105,0,3,5,12,30,63
1530692421064210,77,-25,-7,-5,-8,-22,-10,-36
1530692421064210,6,18,6,3,0,12,13,50
1530692421086150,76,2,10,4,6,1,-5,23
1530692421086150,-44,52,-1,1,1,9,12,39
1530692421086150,-96,-15,4,2,-1,-14,-10,-99
1530692421086150,-109,-51,-14,-10,-7,-1,-16,6
1530692421101110,58,10,5,5,3,18,6,-86
1530692421101110,65,-62,-5,-6,-6,-38,-27,-108
1530692421101110,-44,32,1,3,5,31,11,56
1530692421101110,-81,2,-8,-6,-7,2,-6,-40
1530692421123052,12,-38,9,9,6,-33,6,79
1530692421123052,0,115,4,1,4,17,-5,-10
1530692421124051,-55,14,18,6,7,-1,15,27
1530692421124051,2,19,-5,-1,6,6,-1,-85
1530692421145991,100,14,7,0,-3,11,-7,66
1530692421145991,67,-31,1,-1,-5,-10,2,127
1530692421146988,69,77,11,3,5,-4,13,1
1530692421146988,-26,20,2,-1,-3,1,-15,-22
1530692421160950,-128,-122,-24,0,2,3,3,-57
1530692421160950,120,40,10,-2,-4,-2,-13,-107
1530692421161948,75,14,-10,-5,-5,1,0,24
1530692421161948,58,25,12,6,1,1,15,13
1530692421183896,-101,-43,-25,-13,-9,-15,-45,-77
1530692421183896,-27,-3,9,-3,-3,-2,7,64
1530692421184887,79,-9,-7,1,0,-5,-6,18
1530692421184887,-108,59,-3,-4,-5,-9,-4,-13
1530692421205831,65,-39,-5,0,3,4,1,-84
1530692421205831,-79,-12,3,7,8,17,18,85
1530692421206828,-70,-105,-4,-9,-10,-18,-24,-94
1530692421206828,37,-29,-9,-1,0,-2,4,13
1530692421220790,-34,15,15,3,5,30,12,10
1530692421220790,72,19,-17,-11,-12,-34,-10,-38
1530692421221788,-94,-15,2,-2,1,2,-8,1
1530692421221788,51,-59,-19,-11,-13,-21,-1,10
1530692421243729,-35,21,8,5,3,11,0,-38
1530692421243729,-46,-42,0,2,0,-7,-11,-10
1530692421243729,-3,11,-7,-2,1,23,2,53
1530692421243729,19,16,8,4,5,0,16,96
1530692421265671,13,63,5,-1,-1,-8,1,46
1530692421265671,79,66,9,2,0,14,18,14
1530692421266668,-79,-32,-36,-15,-12,-17,-35,53
1530692421266668,41,5,11,6,7,32,29,30
1530692421280630,127,62,17,6,-1,-24,25,108
1530692421280630,-128,-90,-22,-6,-6,-1,-31,-47
1530692421281628,127,73,7,2,2,-2,13,-31
1530692421281628,57,56,16,6,4,7,9,-62
1530692421303569,-11,-87,-23,-11,-13,-13,-17,-22
1530692421303569,126,108,20,8,13,14,8,-46
1530692421303569,-3,9,15,7,4,-8,5,8
1530692421303569,-19,-83,-29,-10,-8,-7,-18,-7
1530692421325510,93,43,7,4,8,23,2,-43
1530692421325510,-84,-54,-11,-6,-13,-26,-4,17
1530692421326508,9,-24,6,4,0,43,10,-3
1530692421326508,86,39,1,1,1,-45,2,-1
1530692421340470,-128,-1,-5,-4,-4,0,-2,23
1530692421340470,16,30,3,3,4,10,10,87
1530692421341468,15,-35,-9,-1,-2,-21,-6,-15
1530692421341468,-105,21,2,0,-4,3,-12,-10
1530692421363409,54,68,5,0,1,5,-5,52
1530692421363409,-45,14,5,3,5,7,19,-49
1530692421364406,28,-7,-5,-1,-3,-11,-5,-2
1530692421364406,49,-5,9,5,6,7,-39,-56
1530692421385350,65,54,15,8,4,-4,25,75
1530692421385350,97,-24,-7,-4,-4,10,-8,-43
1530692421386348,79,20,8,5,4,-7,12,97
1530692421386348,78,1,-5,-7,-5,0,-4,-24
1530692421400310,13,11,-6,1,-1,7,10,26
1530692421400310,46,-19,2,0,1,-13,-6,49
1530692421408289,-69,-4,-8,-6,0,5,12,-39
1530692421408289,21,26,10,5,4,-9,-9,111
1530692421423249,33,-56,-10,-4,-1,9,-9,12
1530692421423249,-107,43,-4,-4,-10,-17,2,-18
1530692421424246,-29,-10,5,1,0,-3,-1,-70
1530692421424246,88,9,10,8,5,17,26,107
1530692421446187,-128,-75,-25,-12,-9,-12,-28,-113
1530692421446187,73,10,-1,-3,2,6,9,97
1530692421446187,97,24,21,10,11,4,11,-6
1530692421446187,-46,-5,4,0,-3,1,-7,-16
1530692421460150,61,-14,-1,-2,-1,-4,8,-18
1530692421460150,68,79,12,4,4,8,3,-35
1530692421476108,55,-39,-8,-6,-6,-11,-11,85
1530692421476108,55,0,-11,-8,-3,2,2,43
1530692421483089,-71,2,-6,-3,-5,-9,-6,-51
1530692421483089,-98,-31,-1,-3,-3,0,-2,-20
1530692421484086,49,14,2,2,-1,-2,-4,-22
1530692421484086,-40,21,0,-3,-3,1,-3,-45
1530692421506027,104,-69,-5,-1,2,-2,22,100
1530692421506027,-49,48,-11,-7,-7,-10,-15,-65
1530692421507025,-12,16,1,0,0,14,4,-24
1530692421507025,-9,-8,-9,-6,-6,-14,-16,-2
1530692421520987,-103,-67,-1,1,0,5,-4,-24
1530692421520987,94,3,-8,-5,-1,-18,2,44
1530692421521985,78,36,-3,-2,-2,-4,5,-36
1530692421521985,98,5,13,9,11,32,16,58
1530692421542929,60,43,-4,-5,-5,-10,-9,-81
1530692421542929,-59,-57,-11,-3,-8,-3,-8,-29
1530692421543926,44,-37,-1,-5,-3,21,-4,2
1530692421543926,-89,18,3,1,1,-23,12,-3
1530692421565868,-78,-50,-6,-4,-3,-19,-34,8
1530692421565868,53,8,4,6,5,6,3,-29
1530692421566865,27,30,-3,-3,-6,-7,-7,-20
1530692421566865,-75,-73,-8,0,2,20,8,-42
1530692421579830,6,23,2,0,-2,0,2,-19
1530692421579830,-47,-52,-15,-9,-9,4,-3,-38
1530692421587809,-84,12,10,5,6,-13,-8,-37
1530692421587809,-2,-2,2,0,1,6,8,35
1530692421603766,-83,20,-20,-13,-10,1,-20,-113
1530692421603766,-19,-5,10,6,5,-12,3,96
1530692421603766,90,-1,-3,-1,1,5,11,9
1530692421603766,57,-45,-21,-10,-9,-11,-5,-35
1530692421625708,-47,-11,19,7,5,9,20,76
1530692421625708,127,39,6,4,7,23,17,93
1530692421626706,-113,-79,-37,-19,-17,-30,-37,-91
1530692421626706,57,16,11,4,2,-2,-11,5
1530692421639670,86,29,5,2,3,-5,10,71
1530692421639670,-22,-23,7,8,3,3,-5,-62
1530692421648647,-82,1,-2,1,1,-7,7,18
1530692421648647,9,-5,-15,-9,-6,10,6,-29
1530692421663606,78,72,18,7,8,1,-9,-40
1530692421663606,2,-10,5,0,1,7,13,6
1530692421663606,112,15,7,5,3,-3,3,99
1530692421663606,-24,30,-14,-8,-6,-13,-16,-27
1530692421685548,-42,54,12,0,1,11,17,29
1530692421685548,-26,-3,0,-1,-1,7,-15,3
1530692421686545,-42,-7,5,3,1,-9,11,85
1530692421686545,34,26,8,2,0,8,13,-4
1530692421700508,-22,-36,-7,-2,-5,-8,-7,-31
1530692421700508,1,24,-2,-2,-4,-11,-5,-11
1530692421708486,-94,-23,0,3,3,19,1,18
1530692421708486,-102,-26,-4,-5,-2,-2,-13,-51
1530692421723446,-14,-3,-8,-4,-5,-9,-2,100
1530692421723446,-3,-34,3,2,3,14,4,-101
1530692421724444,-16,12,3,4,-1,-21,-6,-6
1530692421724444,-58,13,4,5,5,0,-1,3
1530692421745387,-5,25,6,0,-2,17,1,37
1530692421745387,59,-11,-5,-3,-8,-41,-3,38
1530692421746385,39,-28,-4,-2,-2,-23,-13,64
1530692421746385,-7,4,5,2,0,9,1,-36
1530692421769323,56,6,-1,0,3,1,0,-55
1530692421769323,5,-23,-4,-2,1,25,16,92
1530692421769323,5,31,3,0,-1,-5,-1,-74
1530692421769323,27,33,11,3,1,-13,1,-54
1530692421783286,93,-35,-13,0,-2,8,-11,-114
1530692421783286,51,2,0,0,2,1,2,39
1530692421785281,52,-1,-4,-3,-5,-11,-7,28
1530692421785281,99,23,1,-1,-3,11,-1,66
1530692421806225,-22,-26,-3,-1,0,-9,-2,-58
1530692421806225,10,-16,9,5,6,13,5,-28
1530692421806225,-60,6,-12,-11,-8,10,-1,-54
1530692421806225,98,43,15,8,6,-10,14,56
1530692421829163,-69,14,13,6,-1,-15,-13,24
1530692421829163,73,-58,-14,-7,-3,-4,-19,-23
1530692421830161,23,14,2,2,0,-9,2,53
1530692421830161,21,-20,-3,-2,-9,-2,4,-40
1530692421843126,-72,-38,0,1,8,1,21,-30
1530692421843126,-76,46,3,-1,2,12,-6,27
1530692421844123,99,45,7,0,-8,-2,9,-47
1530692421844123,-32,-110,-20,-6,7,1,-9,45
1530692421866065,83,28,0,-2,-4,-2,-9,-33
1530692421866065,-128,-3,-11,-8,-6,-13,-9,-66
1530692421867062,63,-20,5,5,8,27,2,-29
1530692421867062,-33,-25,-10,-7,-8,-16,-12,-37
1530692421889003,71,4,-8,-5,-11,2,-1,-18
1530692421889003,45,-4,-5,-3,-2,3,1,9
1530692421890001,-33,-18,7,3,1,-4,-7,-37
1530692421890001,-82,-2,0,-1,-3,1,16,23
1530692421902967,107,-28,-5,-2,4,-2,-10,81
1530692421902967,86,64,7,5,-1,7,8,-33
1530692421903964,-55,-12,-10,-5,-2,-7,-6,-51
1530692421903964,103,88,15,3,-5,5,13,12
1530692421925904,-62,-55,-23,-8,1,-7,-16,-102
1530692421925904,-5,16,3,-3,1,-4,6,44
1530692421926902,-49,-22,-3,1,5,37,19,-42
1530692421926902,8,9,2,-1,-8,-19,3,-21
1530692421947846,23,21,4,1,-2,37,16,35
1530692421947846,11,-23,-1,1,-1,-64,1,44
1530692421948843,-86,-15,-12,-10,-5,-9,-13,23
1530692421948843,-83,-28,-6,-3,1,25,1,-81
1530692421962806,81,3,6,3,2,-6,12,34
1530692421962806,-76,-39,-13,-4,-5,-2,-33,-72
1530692421963803,25,18,1,1,0,7,20,68
1530692421963803,9,-33,-9,4,-1,-15,-13,-17
1530692421985745,-9,20,10,0,-1,-4,10,82
1530692421985745,40,-21,-12,-3,1,16,-10,-97
1530692421986742,-46,30,-2,-11,-15,-17,-4,-6
1530692421986742,94,-69,-18,0,5,10,-2,-37
1530692422008684,4,33,14,6,3,-3,-2,40
1530692422008684,-20,16,4,1,-1,5,-2,-57
1530692422008684,82,-14,0,7,9,6,-21,-19
1530692422008684,-73,4,-6,-6,-2,-4,-10,-73
1530692422023643,-55,-30,-14,-9,-10,3,2,65
1530692422023643,-28,6,9,4,3,-12,-5,-3
1530692422023643,116,45,8,5,0,-3,7,2
1530692422023643,59,-3,-2,0,-1,12,-11,-33
1530692422045584,12,-6,0,-1,-12,-45,1,29
1530692422045584,65,52,5,3,4,19,11,73
1530692422046582,27,6,2,-5,-2,14,4,-65
1530692422046582,11,-29,1,0,2,7,-5,8
1530692422068523,-22,63,3,3,7,16,8,-41
1530692422068523,99,-11,2,3,0,-1,8,78
1530692422069521,-13,32,-1,-4,-4,-10,5,22
1530692422069521,-16,39,7,3,2,0,8,79
1530692422083483,-12,-19,-3,2,2,-4,-15,29
1530692422083483,-5,-49,-7,-6,-5,-3,4,88
1530692422084481,-44,-21,3,1,1,0,-2,5
1530692422084481,14,30,8,-1,-1,2,5,45
1530692422105425,-111,-17,-14,-4,-3,-11,-15,-82
1530692422105425,26,3,0,-2,-1,12,6,-32
1530692422106422,10,-28,-9,-3,-3,-2,11,82
1530692422106422,42,-13,1,-3,-1,-13,-23,-76
1530692422129360,74,18,-5,3,5,15,20,22
1530692422129360,2,3,-2,-6,-6,-9,1,-3
1530692422129360,-121,-65,-11,-5,-3,-7,-1,15
1530692422129360,78,21,10,2,0,6,-1,-16
1530692422143323,73,3,17,8,4,5,16,3
1530692422143323,-66,-43,-31,-15,-14,-14,-26,-34
1530692422144321,107,-11,-5,-1,-1,1,5,58
1530692422144321,-46,2,1,-3,-3,-21,-16,-66
1530692422166262,25,-7,7,0,-2,2,-8,-5
1530692422166262,-94,9,-5,0,2,31,7,6
1530692422166262,36,30,21,10,6,-23,-13,58
1530692422166262,-87,-23,-23,-9,-6,-9,-26,-55
1530692422188203,112,40,-2,-3,-1,-3,14,70
1530692422188203,-15,-5,8,3,0,14,6,12
1530692422189201,48,7,0,-1,0,-1,-5,-11
1530692422189201,-65,7,-2,-5,-1,15,15,18
1530692422203163,57,-30,-9,-5,-5,-19,-5,14
1530692422203163,51,19,10,7,2,6,-2,-28
1530692422204161,6,18,-4,-1,-2,4,9,-16
1530692422204161,45,-38,2,5,5,-3,10,127
1530692422226102,-121,37,0,-4,0,11,4,4
1530692422226102,127,25,14,5,4,-13,-20,11
1530692422226102,-98,-15,-15,-8,-7,-13,-16,-92
1530692422226102,-20,72,31,11,5,4,22,-48
1530692422248043,79,-6,-9,-2,0,8,-11,-34
1530692422248043,9,31,19,5,6,6,37,104
1530692422249044,62,-41,-21,-11,-10,-6,-9,-78
1530692422249044,-43,62,10,6,6,9,14,93
1530692422263003,73,-44,-7,-3,-4,6,-9,-72
1530692422263003,-42,15,1,2,1,-19,-7,-117
1530692422264001,121,80,18,4,3,8,16,13
1530692422264001,-84,-92,-24,-7,-5,-2,6,58
1530692422285942,98,46,14,4,2,-4,7,28
1530692422285942,-79,-53,-15,-7,-4,3,5,3
1530692422286939,-121,-10,-7,-2,-3,4,-10,-75
1530692422286939,105,2,4,2,-1,-8,-9,80
1530692422307883,-100,16,3,-2,-4,-1,-3,71
1530692422307883,80,-14,5,3,3,3,13,33
1530692422308881,-20,1,8,5,3,4,6,83
1530692422308881,-10,-22,-15,-9,-8,-8,-16,61
1530692422322843,-4,-67,-19,-6,-3,-1,-10,13
1530692422322843,36,41,4,-3,-5,-7,-9,-78
1530692422323841,31,9,9,6,5,-14,-5,67
1530692422323841,16,7,-3,0,-3,13,3,-49
1530692422345782,-24,7,5,-2,-1,16,12,6
1530692422345782,91,10,-1,-3,-5,-15,-1,71
1530692422346779,54,0,-1,-1,0,3,-8,-3
1530692422346779,-40,-3,-3,-2,-1,-6,-5,-62
1530692422368720,59,24,-2,2,3,-5,-4,-1
1530692422368720,-55,1,2,1,0,21,2,-51
1530692422368720,-9,-42,-7,-5,-1,-2,-6,-128
1530692422368720,70,-7,-9,-8,-5,-15,-20,-7
1530692422383680,-82,-28,-5,-1,2,26,7,-58
1530692422383680,82,29,13,3,3,-24,-12,-27
1530692422383680,-52,-77,-23,-5,-6,-1,-8,21
1530692422383680,-2,-15,2,3,3,7,-5,-80
1530692422405624,-72,-50,-5,-4,-6,-4,-12,-2
1530692422405624,37,94,5,-3,-6,4,-3,-1
1530692422406619,55,36,1,1,3,9,10,-22
1530692422406619,127,62,15,6,2,9,21,24
1530692422428560,26,-6,-16,-6,-4,-27,-25,-35
1530692422428560,23,33,23,11,7,9,15,29
1530692422429558,-85,-20,-33,-19,-20,-27,-30,-32
1530692422429558,-28,12,13,9,9,19,17,72
1530692422443520,-22,-46,5,-2,-3,-21,5,-54
1530692422443520,28,-11,-16,-4,4,7,-3,-35
1530692422444518,112,-5,0,0,1,18,-5,127
1530692422444518,-81,-65,-25,-9,-10,-15,-6,-33
1530692422465461,-12,33,4,-1,-5,-8,-11,-13
1530692422465461,4,-57,-10,-2,0,11,9,4
1530692422466460,91,29,21,8,7,-6,10,-28
1530692422466460,122,31,1,-4,-5,-6,16,57
1530692422488400,-60,-50,-26,-9,-4,-11,-2,-9
1530692422488400,86,26,8,2,1,7,-15,-3
1530692422489398,115,77,41,19,18,65,48,105
1530692422489398,-85,-97,-45,-20,-16,-78,-50,-111
1530692422503360,127,79,21,8,10,12,19,105
1530692422503360,-60,-15,-4,-5,-7,-13,-15,48
1530692422504358,-44,8,1,5,4,-1,13,93
1530692422504358,13,-19,-4,-5,-3,16,-9,-6
1530692422526300,-26,31,5,1,-1,4,24,82
1530692422526300,12,-42,-13,-3,-5,-14,-18,6
1530692422526300,-19,43,22,8,10,14,19,-43
1530692422526300,-52,-76,-51,-31,-23,-15,-18,-30
1530692422548240,127,55,16,9,6,0,5,-45
1530692422548240,46,0,-1,3,4,12,19,94
1530692422549240,-80,-88,-29,-16,-12,-19,2,12
1530692422549240,127,93,26,9,4,12,30,127
1530692422562203,60,28,20,10,10,14,14,-39
1530692422562203,-4,-67,-30,-11,-8,-10,-26,-111
1530692422578160,78,5,8,3,2,-7,-8,9
1530692422578160,-37,48,15,8,6,6,-9,-63
1530692422586139,-24,-21,-7,-4,-4,0,-9,32
1530692422586139,-98,-29,5,7,4,4,19,1
1530692422586139,-46,-22,-14,-8,-3,-12,-13,-81
1530692422586139,15,46,18,10,5,14,8,-6
1530692422608080,-27,-29,-6,-1,-1,-4,-16,-10
1530692422608080,-54,13,5,-2,-1,-5,-10,-29
1530692422609078,21,0,-14,-7,-6,-6,-18,-127
1530692422609078,-68,-23,1,4,3,22,23,125
1530692422623041,-73,-22,-9,-2,0,-13,-8,55
1530692422623041,109,16,8,1,1,1,-27,41
1530692422631019,-53,-12,6,-1,-2,4,23,15
1530692422631019,-42,-46,-16,-9,-2,-6,-17,-128
1530692422645979,77,-14,-9,-5,-8,3,16,15
1530692422645979,-86,11,1,-3,2,-20,0,26
1530692422646976,96,85,15,6,1,4,-1,-57
1530692422646976,12,-23,-6,-3,-1,4,5,41
1530692422667920,-103,-11,7,4,0,4,-6,-77
1530692422667920,97,-22,-20,-10,-8,-3,1,76
1530692422668918,-12,4,9,6,1,-5,-2,51
1530692422668918,8,-8,7,5,4,-10,-13,-80
1530692422682880,23,36,6,1,-1,4,-18,-60
1530692422682880,70,26,8,3,1,9,33,37
1530692422690859,-91,-114,-43,-17,-12,-29,-37,48
1530692422690859,-11,16,10,-3,-5,0,6,127
1530692422705819,-125,18,0,-1,-4,-12,-30,1
1530692422705819,15,-23,0,4,-1,6,0,5
1530692422706816,64,36,7,1,3,2,5,127
1530692422706816,13,-28,-7,1,1,-12,-8,16
1530692422727760,-57,-55,-20,-7,-5,5,-5,-39
1530692422727760,-105,37,2,-1,0,-2,-4,17
1530692422728758,96,24,19,14,0,-16,1,-54
1530692422728758,38,21,2,-2,-4,-1,-23,-73
1530692422742720,127,-27,-11,-3,-4,1,9,98
1530692422742720,-57,33,-2,-3,-2,6,-1,-71
1530692422750705,-4,-36,6,3,6,7,-12,57
1530692422750705,62,41,13,8,6,5,13,-68
1530692422765661,-8,-24,-9,-8,-5,-3,-2,-2
1530692422765661,3,-80,-24,-10,-7,-16,-15,6
1530692422766661,64,62,8,3,-1,5,3,69
1530692422766661,-12,-15,-1,-1,1,-3,22,75
1530692422788598,-1,-5,1,1,3,5,-2,-19
1530692422788598,-42,-17,2,0,0,11,23,-14
1530692422788598,-56,78,36,14,10,11,28,62
1530692422788598,27,7,-20,-3,-2,1,-6,0
1530692422802560,34,52,12,4,0,-7,-2,5
1530692422802560,-49,6,-4,0,-1,-3,0,14
1530692422810539,-47,-18,3,-1,2,12,3,-17
1530692422810539,9,18,5,1,2,-8,8,-6
1530692422825499,117,20,11,4,5,12,10,0
1530692422825499,-5,0,2,0,-1,-8,6,41
1530692422826496,-40,-34,-25,-12,-11,-21,-19,-80
1530692422826496,78,35,15,11,7,10,0,27
1530692422848438,81,-52,-25,-12,-5,-4,-14,62
1530692422848438,17,-14,9,5,-4,-20,-1,31
1530692422849439,85,12,-5,-1,3,13,19,63
1530692422849439,36,-6,-8,-7,-9,-12,-25,102
1530692422862400,-7,-69,-3,0,2,-3,13,86
1530692422862400,32,71,6,2,1,3,0,27
1530692422870379,-36,-16,-11,-5,-3,-4,-4,-5
1530692422870379,20,-4,4,2,4,15,8,43
1530692422885339,-32,23,5,3,0,-13,-8,49
1530692422885339,-43,-44,-11,-4,-3,2,-2,37
1530692422886338,96,56,19,9,2,-4,-9,-21
1530692422886338,-48,-21,-4,-2,-2,2,-8,-65
1530692422908278,41,24,0,-1,-2,-3,-6,37
1530692422908278,-40,-20,-6,-2,2,12,31,123
1530692422909275,-29,-24,-14,-11,-10,13,-19,17
1530692422909275,49,-7,1,-3,-1,-49,-30,-32
1530692422922240,93,48,14,8,3,5,15,16
1530692422922240,20,42,5,0,1,7,-10,-79
1530692422931216,-58,-88,-2,5,3,0,2,-46
1530692422931216,4,11,-14,-8,-7,12,3,91
1530692422946176,-16,0,-2,-2,-2,-12,2,30
1530692422946176,71,16,22,7,9,5,-17,-77
1530692422946176,1,17,-9,-2,1,6,-5,-56
1530692422946176,-34,20,7,3,-7,-15,2,-18
1530692422968117,-58,3,6,4,4,6,3,-87
1530692422968117,62,-20,-11,-7,-3,9,7,-71
1530692422969115,-77,-13,-9,-4,-2,-10,3,46
1530692422969115,-45,4,5,6,9,24,10,28
1530692422991056,26,39,2,-3,-2,-8,-13,-84
1530692422991056,89,20,-2,-1,1,-2,6,23
1530692422992054,38,-76,-29,-13,-14,-21,-27,-78
1530692422992054,36,25,12,5,5,19,6,-71
1530692423006016,-47,0,10,4,2,8,5,-71
1530692423006016,-83,-25,-13,-4,-6,-29,-40,4
1530692423007013,127,34,8,4,4,10,6,-36
1530692423007013,47,16,14,2,0,-5,2,-10
1530692423027958,-1,17,-9,-4,-5,15,17,123
1530692423027958,26,-75,-12,-4,-1,-11,-6,39
1530692423028955,-32,-11,-7,-4,-2,1,3,57
1530692423028955,0,31,12,3,2,4,1,-1
1530692423051893,5,-24,-9,-2,-2,-8,-3,67
1530692423051893,-13,12,1,-1,1,8,2,-18
1530692423051893,-29,2,-6,-3,-2,-3,-8,-43
1530692423051893,-15,18,0,-1,-1,4,5,-56
1530692423065862,87,-12,4,2,0,-6,6,36
1530692423065862,-41,-25,-9,-2,-3,1,0,-20
1530692423066855,75,-5,-11,-12,-6,-17,-10,30
1530692423066855,-117,-47,-1,0,1,9,-13,-73
1530692423088795,68,-1,-13,-9,-7,-8,-23,-78
1530692423088795,-71,-7,22,14,11,20,29,85
1530692423088795,22,-1,-10,-8,-8,-34,-58,83
1530692423088795,38,22,14,8,6,3,18,43
1530692423110736,7,19,9,7,3,4,-6,-113
1530692423110736,-35,-46,-23,-10,-11,-6,-15,8
1530692423111733,3,38,23,10,9,17,19,-15
1530692423111733,-9,-30,-10,-4,-2,-6,-4,11
1530692423125696,63,48,18,7,6,6,-2,9
1530692423125696,100,50,5,1,2,5,-10,-80
1530692423126694,61,-47,-20,-4,-2,-5,12,20
1530692423126694,21,-1,8,4,3,4,-7,-63
1530692423148635,-128,-100,-45,-22,-17,-23,-18,-68
1530692423148635,127,69,19,11,4,6,-8,-55
1530692423148635,-100,-69,-11,-4,-1,-1,16,105
1530692423148635,64,34,4,2,1,-4,-16,30
1530692423170576,-16,48,31,11,11,13,10,30
1530692423170576,-20,-99,-46,-23,-26,-35,-56,-50
1530692423171574,-84,-11,2,0,-4,6,21,67
1530692423171574,32,64,11,5,1,-4,14,47
1530692423185536,-29,-72,-7,0,1,-6,-8,77
1530692423185536,9,10,-1,-2,2,0,13,-36
1530692423186534,-7,65,14,3,1,12,12,-82
1530692423186534,-123,-102,-33,-14,-6,-12,-1,99
1530692423216453,127,88,6,2,1,12,18,82
1530692423216453,64,39,36,20,18,5,-15,-24
1530692423217451,-20,-56,-33,-20,-16,-2,-36,33
1530692423217451,55,10,7,-4,-3,-2,16,79
1530692423230416,-104,-35,-20,-6,-6,-3,-10,-15
1530692423230416,22,41,6,3,3,28,23,95
1530692423231415,-86,31,20,8,2,-30,-14,-123
1530692423231415,127,-28,-9,-4,-4,1,-7,94
1530692423245376,-37,-27,-13,-5,-5,-10,-14,-8
1530692423245376,38,47,20,8,8,16,27,98
1530692423246374,-25,-33,-17,-4,-3,7,3,-78
1530692423246374,40,19,-7,-6,-4,-1,27,75
1530692423268314,58,1,9,1,2,0,14,22
1530692423268314,23,20,3,-2,-5,-12,-14,44
1530692423269312,127,-24,3,9,13,15,13,67
1530692423269312,-68,49,-8,-9,-11,-8,-27,-128
1530692423291253,-91,7,4,-3,-4,-4,-1,19
1530692423291253,34,10,2,1,4,0,19,57
1530692423291253,-75,3,-5,-5,-6,-21,-23,-36
1530692423291253,33,-66,-12,-2,0,13,-6,-91
1530692423306213,-4,22,13,6,6,-17,2,8
1530692423306213,-29,-1,-11,-9,-7,34,-8,-70
1530692423306213,93,87,16,6,8,-38,-8,-19
1530692423306213,-13,-16,0,2,-3,-7,13,89
1530692423328155,11,34,10,5,2,4,-1,-7
1530692423328155,-36,-32,-10,-1,-2,-3,3,-67
1530692423329152,-87,-32,-2,-2,0,15,10,-3
1530692423329152,20,4,7,3,5,4,-9,-128
1530692423351093,72,-12,-3,-2,4,-1,18,122
1530692423351093,-53,30,5,-1,-6,-28,-34,-97
1530692423351093,47,-5,7,4,2,19,15,118
1530692423351093,86,41,6,8,10,9,35,97
1530692423366053,-96,-51,-19,-8,-6,-3,-23,1
1530692423366053,86,10,1,-1,3,-7,15,-23
1530692423367051,10,32,17,9,5,21,8,-13
1530692423367051,37,-7,-3,-5,-6,-19,-23,-42
1530692423387995,24,-43,-23,-10,-5,6,2,-28
1530692423387995,-48,-35,-6,-1,-2,3,5,77
1530692423388993,102,-49,5,1,0,-4,3,-20
1530692423388993,-94,54,-1,2,4,5,24,-15
1530692423410933,-10,3,5,2,1,-3,-9,-70
1530692423410933,-75,-40,-14,-11,-8,-10,15,76
1530692423411931,111,42,5,2,4,18,1,-66
1530692423411931,-73,-79,-16,-6,-3,-5,-21,48
1530692423425893,18,54,6,0,-2,-3,6,18
1530692423425893,78,-9,0,4,6,17,9,80
1530692423426891,-82,-17,-7,-5,-5,-11,-10,3
1530692423426891,109,41,8,-2,-2,-6,1,21
1530692423447835,0,-24,-16,-6,-2,1,-18,-86
1530692423447835,-26,-1,2,-2,-2,-3,8,4
1530692423448832,-73,10,-1,1,0,-10,-8,36
1530692423448832,-15,-8,1,2,2,33,-18,6
1530692423470773,-32,-19,6,2,0,7,26,24
1530692423470773,-24,22,-4,-1,-2,-13,-7,-45
1530692423471771,-104,-78,-32,-18,-14,-14,-21,-33
1530692423471771,64,34,-5,-2,-4,-16,-9,62
1530692423485733,79,-19,1,-2,-4,8,1,-40
1530692423485733,-6,-2,7,6,7,-1,8,108
1530692423486731,-29,26,-17,-8,-9,-6,25,127
1530692423486731,1,-59,-3,-1,2,0,-14,-66
1530692423508672,127,49,24,11,7,10,14,48
1530692423508672,28,-35,-27,-13,-9,-1,-12,-71
1530692423508672,71,25,12,7,3,-13,-7,-35
1530692423508672,18,0,5,2,0,3,5,-58
1530692423530613,117,30,-2,1,1,3,28,127
1530692423530613,7,14,11,3,1,1,-10,0
1530692423531611,127,19,13,8,6,11,16,84
1530692423531611,-128,-21,-8,-3,-2,-5,-20,-42
1530692423545573,-1,19,2,-2,-4,-25,-26,73
1530692423545573,-10,-9,3,1,4,3,4,35
1530692423546571,127,43,14,5,5,-1,-26,-123
1530692423546571,-40,-90,-31,-15,-13,-16,-4,-9
1530692423568512,32,36,0,-1,2,28,36,25
1530692423568512,97,-17,-4,-5,-7,-2,11,60
1530692423569509,-63,-23,-9,-3,-3,10,-10,-27
1530692423569509,-16,-18,-2,-3,-7,-9,0,95
1530692423590453,-78,2,-1,-4,-7,-12,-19,-44
1530692423590453,13,-40,-3,-1,5,-10,26,25
1530692423591451,1,42,19,5,5,20,19,-2
1530692423591451,7,33,-10,-2,-3,2,5,-36
1530692423605413,-28,31,1,-1,0,-4,-14,-55
1530692423605413,-1,-49,-9,-2,1,3,-1,-57
1530692423606410,-59,-30,-8,-6,-6,-7,-14,3
1530692423606410,-41,33,11,8,5,21,-9,-56
1530692423628352,72,-5,-1,4,7,-15,17,39
1530692423628352,27,-10,-5,-5,-8,-4,-17,-27
1530692423629349,-40,20,6,6,4,1,7,35
1530692423629349,8,-13,10,3,2,3,-1,124
1530692423650293,-50,1,-5,-3,-3,8,9,51
1530692423650293,39,79,16,5,5,-2,-16,60
1530692423651290,-17,-83,-29,-13,-8,-5,7,72
1530692423651290,127,28,11,5,3,-6,2,69
1530692423665253,-80,-19,-11,-6,-6,-1,-11,-66
1530692423665253,47,22,4,5,1,4,-6,7
1530692423666250,60,-23,-1,-1,-1,20,7,-9
1530692423666250,42,9,13,7,5,-6,31,123
1530692423688192,-101,-82,-26,-10,-11,-14,-49,-94
1530692423688192,-118,38,4,-4,-2,8,-1,98
1530692423689189,-14,65,12,6,4,6,18,40
1530692423689189,-97,-80,-26,-14,-6,6,-5,-44
1530692423711130,22,-16,10,9,7,10,4,-15
1530692423711130,40,60,13,4,1,-11,12,7
1530692423711130,82,23,9,2,6,8,-5,-103
1530692423711130,-46,-83,-23,-9,-5,-16,-13,36
1530692423725093,13,34,6,0,-3,-3,2,72
1530692423725093,-11,-27,-11,-4,-4,-2,-6,-92
1530692423733072,53,62,15,10,5,6,17,58
1530692423733072,-60,-53,-12,-11,-11,-12,-21,-91
1530692423748032,55,19,2,3,0,3,4,-2
1530692423748032,28,-80,-11,-5,-6,-5,-5,14
1530692423749029,11,34,6,-1,-2,-9,-13,-55
1530692423749029,28,61,18,8,11,22,20,-28
1530692423770970,65,-28,-12,-5,-4,-8,-5,60
1530692423770970,2,-15,-5,-1,-3,-18,-15,-75
1530692423771968,68,-14,-4,-3,-1,-1,10,55
1530692423771968,-40,27,3,0,5,1,-4,84
1530692423784933,38,12,-10,-8,-6,3,-3,-31
1530692423784933,7,54,30,13,10,24,26,87
1530692423792911,-35,-40,-37,-19,-13,-26,-25,-31
1530692423792911,127,8,24,13,9,8,26,45
1530692423807871,-119,-11,5,4,4,4,-16,-52
1530692423807871,-5,-3,-14,-2,-1,-10,-11,-48
1530692423808869,-64,27,4,-4,-7,-2,-19,49
1530692423808869,23,28,12,6,-2,6,6,34
1530692423830810,-33,-4,6,0,-1,17,8,36
1530692423830810,-128,-109,-39,-13,-5,-35,-38,-117
1530692423831808,94,5,7,4,-2,0,30,4
1530692423831808,65,29,14,7,5,5,-21,-74
1530692423844773,127,42,13,6,8,11,33,110
1530692423844773,-41,-36,-20,-15,-12,13,-13,113
1530692423853749,34,-32,-8,-1,2,-12,10,-9
1530692423853749,-14,17,-6,-6,-8,-14,12,84
1530692423868709,32,-7,5,4,3,8,9,12
1530692423868709,13,41,10,1,1,42,13,51
1530692423868709,-62,33,11,5,5,-44,-26,-4
1530692423868709,127,15,1,2,-3,-5,-20,-26
1530692423890650,-46,21,8,5,9,7,21,-32
1530692423890650,-21,-11,-23,-13,-10,-13,-26,-13
1530692423891648,28,-26,9,4,3,25,9,-33
1530692423891648,89,94,38,18,13,15,30,46
1530692423904613,-98,27,-23,-12,-10,-16,-39,-10
1530692423904613,101,59,14,3,0,-4,16,71
1530692423913589,47,-22,-4,-1,0,15,1,27
1530692423913589,-9,7,1,3,3,-12,2,-57
1530692423928549,-45,-25,-2,-2,-8,-11,-5,33
1530692423928549,18,-22,5,2,0,-2,18,-20
1530692423929546,18,13,-7,-5,-2,-3,-9,47
1530692423929546,23,-39,-8,-5,-1,11,2,-19
1530692423950490,-46,-24,-5,-4,-3,-10,-19,5
1530692423950490,99,67,20,10,7,23,18,20
1530692423951488,39,-24,-17,-8,-4,-63,-8,-71
1530692423951488,18,17,-3,-2,-2,1,-3,-10
1530692423965451,116,0,1,-4,0,-18,-5,-1
1530692423965451,-53,-50,17,10,10,18,5,-74
1530692423973429,34,70,9,0,1,29,26,99
1530692423973429,-128,-14,-40,-24,-17,-34,-57,-48
1530692423988389,121,24,22,9,5,12,-1,-94
1530692423988389,90,28,2,1,0,-18,-2,17
1530692423989386,-128,-127,-26,-9,-12,1,-33,-37
1530692423989386,105,36,15,6,3,-42,-1,17
1530692424010330,-66,-34,-32,-22,-18,-9,4,-31
1530692424010330,42,-1,-1,-1,0,47,12,9
1530692424011327,59,65,7,1,0,-29,-1,37
1530692424011327,-2,-67,-6,1,4,23,22,-19
1530692424025290,26,-5,2,2,0,-3,-6,6
1530692424025290,-65,-1,0,2,-3,-33,-15,-23
1530692424033269,-8,11,0,-3,2,37,12,8
1530692424033269,-72,-32,-6,-6,-6,-19,-7,-36
1530692424048229,127,44,9,5,5,5,13,25
1530692424048229,-108,-91,-36,-18,-15,-21,-23,-95
1530692424049226,127,43,9,4,4,21,9,-17
1530692424049226,-48,-16,-1,-1,2,13,2,35
1530692424071167,62,41,18,8,4,8,22,26
1530692424071167,-76,26,8,0,0,-17,-21,-56
1530692424071167,-128,-61,-18,-5,-5,0,-11,64
1530692424071167,-16,68,-4,-8,-9,-3,-7,-33
1530692424094106,-65,-92,-10,1,10,60,7,65
1530692424094106,127,40,11,-1,-9,-81,-1,5
1530692424095104,-45,29,10,3,-1,-7,-15,-66
1530692424095104,-48,-38,-12,-3,-3,-3,-12,4
1530692424108069,15,11,5,4,4,13,15,0
1530692424108069,-104,-31,-15,-6,2,20,-6,-38
1530692424109066,89,-5,1,3,2,9,9,52
1530692424109066,80,51,5,-1,-5,-11,8,14
1530692424131007,-76,-69,-12,-5,-6,-24,-25,-92
1530692424131007,80,27,11,5,7,13,20,82
1530692424132005,-109,-10,-10,-9,-7,-3,-1,-29
1530692424132005,83,-6,13,11,10,30,21,101
1530692424153946,44,-16,-14,-11,-14,-36,-30,1
1530692424153946,24,33,-9,-5,-4,1,6,38
1530692424154944,105,-13,4,5,2,17,15,24
1530692424154944,-28,-6,0,-2,-3,-9,-1,65
1530692424167909,47,-4,13,4,5,-1,8,75
1530692424167909,15,4,-13,-2,-2,2,-1,-19
1530692424168906,22,-25,5,2,4,0,-8,-9
1530692424168906,-118,-45,-15,-4,-7,0,-2,-94
1530692424190847,97,6,0,1,0,-20,-9,36
1530692424190847,-100,-44,-2,-4,-4,4,5,-51
1530692424191845,85,71,12,4,6,58,11,42
1530692424191845,61,-62,-12,-2,2,-21,-15,-73
1530692424213786,-11,48,6,0,-7,-16,21,-75
1530692424213786,-57,2,5,5,3,-6,-12,29
1530692424214784,68,-17,3,3,1,-17,-15,-56
1530692424214784,40,-28,-15,-12,-7,7,-15,-24
1530692424228746,-43,51,10,4,5,13,-1,-39
1530692424228746,89,-13,-6,-4,-4,17,13,52
1530692424228746,-49,-23,-2,2,-3,-28,-16,39
1530692424228746,13,101,34,8,6,10,16,7
1530692424250687,-128,-115,-21,-7,-5,-8,-15,-91
1530692424250687,85,16,-7,-5,-2,10,12,49
1530692424251685,-128,11,-1,-4,-4,-9,3,67
1530692424251685,101,22,-5,-1,1,3,4,69
1530692424273626,-10,15,5,2,0,6,12,-16
1530692424273626,20,-17,7,0,3,29,-4,-18
1530692424274623,91,37,9,5,2,-52,12,-43
1530692424274623,-98,-67,-36,-18,-14,-5,-36,-51
1530692424296565,51,25,7,2,-4,-12,3,95
1530692424296565,20,2,3,5,2,-9,3,-54
1530692424297562,-22,-5,-3,-4,-3,7,5,76
1530692424297562,87,39,24,14,11,17,21,3
1530692424310527,-86,-82,-29,-13,-4,0,-17,51
1530692424310527,69,18,-1,-2,-5,-20,1,13
1530692424311525,72,49,14,4,2,18,6,38
1530692424311525,-106,-40,-9,-4,-3,-7,-6,-44
1530692424333466,-9,-11,6,6,4,4,4,-2
1530692424333466,62,64,14,3,5,13,0,-79
1530692424334463,57,-112,-22,-10,-9,-17,-12,-38
1530692424334463,126,76,6,2,-1,30,6,49
1530692424348426,-47,-22,-1,-2,1,-57,-19,-42
1530692424348426,48,24,11,6,4,6,2,-49
1530692424349423,-128,-66,-27,-11,-9,-15,-34,-86
1530692424349423,75,0,-3,-1,-1,1,11,-8
1530692424370367,127,60,8,2,3,6,-1,20
1530692424370367,-67,-21,-5,0,-3,-4,-6,119
1530692424371365,-44,3,9,2,2,7,-1,-49
1530692424371365,-48,33,4,2,-2,3,6,-20
1530692424393306,-3,27,-10,-7,-8,22,11,53
1530692424393306,54,-17,5,5,2,-18,-2,-7
1530692424394304,-37,60,8,2,4,13,7,-29
1530692424394304,104,-82,-11,-2,1,-1,-4,-70
1530692424408266,-10,11,-8,-9,-8,1,6,110
1530692424408266,16,10,-2,-2,-3,5,-6,-46
1530692424409264,7,28,14,8,7,-20,-11,51
1530692424409264,20,-5,-4,-1,-1,36,23,78
1530692424431204,40,5,-3,0,0,-33,-11,18
1530692424431204,12,8,6,0,-1,2,10,48
1530692424431204,3,-32,-5,-4,-3,12,-12,-71
1530692424431204,-117,-1,0,-2,-1,-25,-6,40
1530692424453146,-43,-10,0,-1,-6,11,-1,-68
1530692424453146,88,34,-4,-2,-1,3,16,121
1530692424454143,67,-13,-5,-3,-6,-8,3,75
1530692424454143,16,-11,1,1,1,15,1,2
1530692424468106,55,41,9,3,4,-4,-10,-13
1530692424468106,-57,-26,-11,-4,-6,-18,-2,86
1530692424469103,-4,3,4,3,4,14,-1,66
1530692424469103,-90,-16,3,0,-1,-4,6,-46
1530692424491045,57,34,4,3,2,27,6,86
1530692424491045,-105,-21,1,-1,-5,-34,-27,-48
1530692424492042,11,-6,-10,-4,-1,14,4,19
1530692424492042,37,1,1,2,1,-10,-9,87
1530692424512986,51,56,17,9,11,14,-7,-82
1530692424512986,-1,-79,-12,-3,-1,13,-4,-95
1530692424513983,78,3,0,-3,-3,-30,4,-19
1530692424513983,-6,71,1,-2,-1,-16,-18,-44
1530692424527946,-56,-27,-1,-1,-2,4,-1,-100
1530692424527946,-36,-57,-35,-18,-13,-19,-34,4
1530692424528944,-72,10,6,6,4,17,4,-55
1530692424528944,61,5,4,1,-3,-12,7,77
1530692424550884,-18,-7,-5,-1,1,-4,0,8
1530692424550884,-47,22,-5,-1,-2,11,4,99
1530692424551882,29,-22,6,4,4,14,7,78
1530692424551882,-3,9,-4,-7,-6,-11,-16,7
1530692424572826,-16,-12,2,4,3,12,9,58
1530692424572826,99,29,14,5,5,5,27,2
1530692424573823,66,17,-9,-5,-3,-2,12,108
1530692424573823,64,-48,-7,-3,-1,9,0,20
1530692424587786,9,-39,-2,0,-2,-13,3,-58
1530692424587786,-9,23,5,0,1,2,9,16
1530692424595764,-21,26,0,-1,0,7,-2,-69
1530692424595764,-16,-42,-9,-2,-1,-2,23,30
1530692424610725,3,-4,-8,0,2,14,6,-28
1530692424610725,-45,-8,1,0,-1,-23,-11,33
1530692424611722,64,-16,2,-1,-2,0,9,39
1530692424611722,-33,21,0,-1,1,6,2,64
1530692424633663,-51,-10,-2,-1,-2,-9,0,87
1530692424633663,-26,-41,-26,-11,-16,-20,-30,-79
1530692424633663,-36,0,-1,-4,-4,-1,-9,-72
1530692424633663,57,-3,8,5,6,-3,-4,-3
1530692424648623,52,3,8,2,2,11,17,-36
1530692424648623,13,8,-8,-2,-1,-3,-40,-44
1530692424648623,8,-23,-4,-1,-2,0,11,-84
1530692424648623,-47,11,8,5,3,-2,-17,-9
1530692424670564,64,-49,-8,-4,-4,-2,-15,-35
1530692424670564,23,44,12,4,4,5,22,63
1530692424671562,-30,-1,-7,-3,-2,-25,-17,-58
1530692424671562,-7,-3,1,0,-3,17,5,-20
1530692424693503,-28,23,4,0,0,25,8,-28
1530692424693503,19,-10,-3,-3,-1,-10,7,9
1530692424694501,34,18,3,1,-1,5,6,123
1530692424694501,21,5,-10,-5,-2,-18,0,20
1530692424707465,69,6,-5,-2,-1,2,-21,-52
1530692424707465,-53,-4,13,3,5,20,22,-82
1530692424715444,85,74,6,1,1,-5,-19,-65
1530692424715444,-128,-2,-4,-5,0,24,-10,-34
1530692424730404,-66,-26,-2,-2,-15,-50,9,19
1530692424730404,86,19,13,11,12,28,17,13
1530692424731402,-102,-31,-9,-5,-8,-8,-34,-37
1530692424731402,47,-29,-12,-2,0,-24,-18,-74
1530692424753343,97,47,11,2,3,1,6,127
1530692424753343,25,47,15,8,5,7,22,118
1530692424754341,68,-23,-4,-3,-1,16,1,41
1530692424754341,44,-9,0,0,1,-14,7,16
1530692424767306,-45,-19,-9,-1,0,22,-17,16
1530692424767306,34,9,10,6,1,-23,-10,62
1530692424776282,-94,-24,-4,-2,0,16,16,1
1530692424776282,80,47,9,3,-1,-15,-1,-82
1530692424791242,53,-10,-8,-6,-6,3,-2,8
1530692424791242,46,61,5,-2,-1,13,3,-1
1530692424791242,-97,-32,-20,-8,-4,-8,3,4
1530692424791242,70,21,12,3,1,3,1,81
1530692424813183,29,9,-1,-2,3,1,7,15
1530692424813183,3,-47,-8,-7,-4,-7,-18,32
1530692424814181,-77,15,-2,-5,-6,-24,-12,-90
1530692424814181,40,-25,-5,-1,-1,7,6,92
1530692424827146,13,9,9,2,4,18,11,97
1530692424827146,-84,-50,-21,-7,-6,-24,6,35
1530692424836121,118,35,24,13,12,21,14,63
1530692424836121,-38,-53,-21,-7,-5,-12,-17,-70
1530692424851081,51,92,16,3,-2,-28,-30,-89
1530692424851081,-63,-20,2,6,5,-3,-11,-57
1530692424852079,105,32,13,10,5,15,14,121
1530692424852079,-21,-14,-13,-10,-10,1,-7,35
1530692424873023,79,-26,-2,-1,1,-3,11,-8
1530692424873023,105,76,20,6,5,25,2,-55
1530692424874020,19,-23,-17,-12,-11,-35,-18,-45
1530692424874020,-36,10,10,8,6,7,20,32
1530692424887983,-7,21,-4,-1,-1,-5,-5,-54
1530692424887983,19,-12,-5,-1,-1,3,8,24
1530692424895962,-20,-8,3,4,3,9,10,36
1530692424895962,7,15,17,8,5,11,12,29
1530692424910922,-75,-52,-40,-15,-11,-21,-33,-23
1530692424910922,48,10,4,-2,0,5,0,-36
1530692424911919,98,68,21,7,6,9,33,91
1530692424911919,7,15,0,-2,-9,-22,-38,-124
1530692424932863,40,-6,2,1,-1,14,18,58
1530692424932863,3,6,-7,-3,-5,-22,-12,11
1530692424933861,17,-4,0,1,3,18,6,-24
1530692424933861,92,93,38,15,12,-6,30,15
1530692424947823,-5,-64,-43,-20,-15,-1,-28,-29
1530692424947823,-2,11,-6,-5,-3,2,-13,87
1530692424955801,-36,-1,-4,-1,-1,-1,0,-4
1530692424955801,52,18,-1,1,-1,0,1,-16
1530692424970762,-122,-57,4,4,6,7,2,-22
1530692424970762,64,35,4,2,-2,6,5,66
1530692424971759,-52,-48,-19,-7,-1,-3,-9,-46
1530692424971759,-117,-41,-7,-3,-5,-10,-21,-27
1530692424993700,31,-68,-16,-5,-4,-9,14,-54
1530692424993700,-71,7,1,-4,-4,0,-9,-26
1530692424993700,-40,-9,4,3,0,4,-10,-40
1530692424993700,72,-24,-11,-4,-2,9,10,-9
1530692425007663,-8,14,11,0,-3,-8,-6,33
1530692425007663,62,3,0,3,5,1,6,-30
1530692425015642,58,-19,-5,-4,-4,-8,-13,-28
1530692425015642,-30,-19,-3,1,-5,-6,4,40
1530692425030601,69,51,15,6,5,23,14,-8
1530692425030601,-53,15,1,-3,-4,-19,15,-89
1530692425031599,2,-27,-13,-5,1,-2,4,84
1530692425031599,50,-6,-6,-2,0,2,3,88
1530692425053540,38,43,13,4,2,-15,-6,1
1530692425053540,54,-2,7,6,3,25,30,26
1530692425054538,-64,-28,-12,-8,-7,-15,-21,4
1530692425054538,-46,15,-5,-4,0,-7,-2,-27
1530692425076479,10,-15,11,6,2,10,9,23
1530692425076479,50,-39,-5,1,4,10,-1,40
1530692425077476,-27,35,-4,-5,-8,-15,-9,-50
1530692425077476,107,-3,-9,-6,-2,8,-2,-25
1530692425090441,-42,41,18,8,9,3,9,24
1530692425090441,0,-11,-11,-8,-5,-14,-17,-73
1530692425091439,-49,-18,0,1,-2,1,-12,-84
1530692425091439,-14,-67,-9,-4,-4,-5,-7,-22
1530692425113380,-39,24,3,1,5,12,7,-14
1530692425113380,-10,1,-8,-6,-5,-10,4,-43
1530692425114378,127,-32,-15,-7,-10,-11,-1,-9
1530692425114378,11,1,1,-2,-4,27,2,2
1530692425136319,29,11,-1,-1,0,-70,-2,71
1530692425136319,-27,-9,-11,-6,-1,18,1,-28
1530692425137317,46,77,18,4,5,22,4,94
1530692425137317,-73,-42,-15,-4,-3,-14,8,80
1530692425151279,-36,0,0,-1,-5,9,0,13
1530692425151279,73,-25,-1,-1,2,0,-9,16
1530692425151279,-122,-9,-4,-2,-2,-16,-9,-88
1530692425151279,110,60,10,2,5,6,0,-10
1530692425173220,57,-39,-4,0,2,8,-1,28
1530692425173220,-59,-18,-10,-3,-3,3,2,-31
1530692425174218,-8,-14,-1,-4,-6,5,1,-18
1530692425174218,-2,8,8,0,4,-10,5,64
1530692425196159,11,-62,-30,-13,-10,1,-21,-30
1530692425196159,45,23,11,7,6,34,-15,34
1530692425197156,-43,9,-3,0,-3,-25,10,57
1530692425197156,24,-11,1,3,2,-11,-29,-45
1530692425211119,127,93,14,4,5,0,5,1
1530692425211119,-43,-29,-3,-3,-4,21,-11,-43
1530692425211119,127,-4,8,6,11,22,32,107
1530692425211119,-58,-45,-16,-8,-5,-8,-13,-75
1530692425233060,-113,-70,-16,-7,-6,1,-4,53
1530692425233060,117,107,2,-3,-4,-15,-7,20
1530692425234058,-7,-1,3,1,0,-4,-16,-73
1530692425234058,67,12,8,4,2,14,36,127
1530692425255999,-107,39,0,-1,-2,-7,-21,23
1530692425255999,54,-49,-4,-4,-7,-16,21,112
1530692425256996,-45,-37,-8,-2,1,40,5,12
1530692425256996,53,52,-2,-2,-3,-65,-9,-8
1530692425270959,111,36,16,8,3,15,0,2
1530692425270959,-4,-31,2,2,3,-11,0,-65
1530692425271956,-50,43,4,0,2,-3,-26,-74
1530692425271956,-2,4,3,2,0,15,4,71
1530692425292900,-48,3,0,-2,-3,-18,6,-19
1530692425292900,-2,16,13,6,4,-5,-12,-17
1530692425293897,111,31,23,15,16,14,34,76
1530692425293897,22,-25,-36,-18,-13,7,-7,-14
1530692425316836,66,12,21,7,3,-20,-4,24
1530692425316836,30,11,-6,-2,-2,6,1,-41
1530692425316836,73,7,5,1,-2,-10,8,80
1530692425316836,-8,19,4,3,3,12,-10,-40
1530692425330799,116,36,4,3,1,28,15,11
1530692425330799,5,-49,-11,-6,-6,-15,-4,70
1530692425331796,41,66,5,4,3,35,5,0
1530692425331796,-99,24,6,2,0,-54,-30,-128
1530692425353737,48,-48,-4,-2,-1,15,13,-53
1530692425353737,-128,30,-5,-4,0,-8,0,-102
1530692425353737,87,-38,-10,-5,-1,-7,-29,-6
1530692425353737,-18,-12,3,0,-2,17,16,51
1530692425376676,-80,-7,-4,0,-1,-9,-2,-59
1530692425376676,82,-38,-6,-3,-4,4,-2,82
1530692425377674,-102,-34,-13,-8,-6,-19,-4,-28
1530692425377674,112,26,13,6,7,24,0,-77
1530692425391636,-40,-70,-21,-6,-3,-4,2,43
1530692425391636,22,-49,-2,0,-2,-8,-4,9
1530692425391636,-105,18,-8,-3,-4,-7,-7,-80
1530692425391636,62,-24,7,2,2,14,20,118
1530692425413577,-39,27,0,-1,-2,-2,-6,-29
1530692425413577,-68,27,4,-4,-3,-16,-20,-70
1530692425414575,-27,-57,-11,-2,-2,-3,9,95
1530692425414575,5,10,0,1,-2,16,0,-19
1530692425436516,27,-5,-3,-3,-1,-21,-3,3
1530692425436516,-78,4,-1,1,4,14,18,36
1530692425437514,-3,4,0,-1,-2,-10,-1,-50
1530692425437514,-11,-15,-8,-4,-7,-2,-3,39
1530692425450478,72,42,-7,-6,-3,-1,-12,-2
1530692425450478,108,-56,1,4,2,-1,12,5
1530692425451476,-79,-36,-10,-6,-3,-12,-2,-42
1530692425451476,77,2,-4,-2,0,19,-4,-12
1530692425473417,16,-1,-2,1,6,25,5,-16
1530692425473417,78,44,14,6,-3,-31,-11,21
1530692425474415,3,-60,-26,-16,-17,1,-30,-70
1530692425474415,-128,19,-11,-8,-8,-13,-14,-6
1530692425495359,-62,-50,-1,1,-1,-4,-11,25
1530692425495359,-81,29,5,1,0,0,-3,-49
1530692425496356,127,67,7,3,4,13,10,53
1530692425496356,8,20,16,7,8,-32,18,8
1530692425510319,-81,-14,-17,-12,-10,-22,-26,-84
1530692425510319,18,-55,-11,2,4,35,3,-13
1530692425511316,127,31,12,5,1,-26,0,74
1530692425511316,4,2,0,-1,5,20,12,14
1530692425541236,-74,11,0,-2,-4,2,-1,-10
1530692425541236,53,28,2,1,3,-3,-1,33
1530692425542234,-21,28,8,3,4,10,9,-102
1530692425542234,37,-18,5,6,4,8,9,80
1530692425556196,93,-26,8,3,1,4,12,-11
1530692425556196,-100,-6,-15,-5,-7,-7,-20,6
1530692425556196,59,17,5,1,1,1,10,12
1530692425556196,-51,19,7,2,-1,4,4,43
1530692425571156,34,-45,-2,0,2,5,0,45
1530692425571156,51,13,2,-1,-5,-14,4,64
1530692425571156,-78,-1,-1,-1,-1,-3,-6,-20
1530692425571156,4,-44,-2,-1,-1,-12,-13,-55
1530692425593097,-71,34,-5,-2,2,11,18,27
1530692425593097,-45,26,0,0,2,-4,-19,-20
1530692425594095,-18,-54,-2,0,-4,29,9,55
1530692425594095,10,-31,-7,-3,-1,-22,-4,-40
1530692425616036,11,23,5,1,-2,6,9,-47
1530692425616036,0,13,-1,-2,-3,-7,0,45
1530692425617034,20,-5,12,4,2,-12,-8,9
1530692425617034,-74,8,-19,-11,-8,8,-14,-28
1530692425629999,39,-12,-7,-6,-7,-9,3,5
1530692425629999,23,29,8,2,4,3,10,0
1530692425637977,22,-21,-4,0,3,-3,8,-27
1530692425637977,40,-15,-15,-9,-6,5,-9,-98
1530692425652937,60,20,15,10,8,-4,1,84
1530692425652937,-23,-40,-20,-14,-13,-8,-17,46
1530692425653935,-7,32,3,0,1,-3,1,1
1530692425653935,-38,-41,-14,-7,-3,11,3,-44
1530692425675876,1,46,10,1,-2,-12,-10,-10
1530692425675876,-2,-18,2,1,2,7,3,-70
1530692425676873,-8,19,5,5,6,-4,-16,29
1530692425676873,-103,7,-1,-3,-10,-4,4,71
1530692425689838,58,21,2,0,-1,-1,-8,24
1530692425689838,83,-45,-1,1,1,-2,-9,58
1530692425697817,-20,39,-1,-2,-5,14,7,30
1530692425697817,77,0,8,3,2,-17,-2,-56
1530692425713774,-20,-72,-18,-9,-3,7,-5,24
1530692425713774,-46,56,3,-2,-2,-5,10,-47
1530692425713774,100,14,4,3,3,23,11,-22
1530692425713774,62,-22,-4,-2,-3,-11,-12,106
1530692425735716,-81,12,4,3,1,-3,-5,-46
1530692425735716,-25,-30,1,-2,-4,10,14,-9
1530692425736713,26,-1,-14,-6,-1,-13,0,3
1530692425736713,22,65,19,10,7,13,16,16
1530692425749678,51,10,12,8,6,-2,7,58
1530692425749678,-83,-67,-32,-17,-10,-4,-11,-67
1530692425758655,69,-9,-11,-8,-12,-9,8,-17
1530692425758655,65,-25,6,5,3,-20,-39,-91
1530692425773614,118,26,4,1,3,14,5,-5
1530692425773614,21,65,12,10,12,23,13,-21
1530692425773614,38,-13,3,1,-1,-6,23,108
1530692425773614,-128,-10,-13,-6,-5,-5,-20,-70
1530692425795556,15,-32,-5,-5,-4,-26,-1,18
1530692425795556,19,20,5,3,0,-3,-2,23
1530692425796553,-47,-76,-9,-6,-6,-10,-26,-15
1530692425796553,48,55,10,6,10,16,26,34
1530692425810516,16,9,1,1,-1,5,1,46
1530692425810516,23,-11,-3,-1,0,2,5,35
1530692425818494,-115,-19,-2,-5,-2,-22,-21,-69
1530692425818494,66,17,9,5,2,5,8,125
1530692425833455,-65,-12,-8,-6,-4,-1,-14,-118
1530692425833455,127,-1,1,4,5,7,12,39
1530692425834452,-66,-24,11,0,-4,-1,-8,-49
1530692425834452,-71,-18,-5,2,0,0,0,-24
1530692425855396,30,-4,-2,-3,-4,9,-2,-12
1530692425855396,-72,-33,-12,-7,-4,-17,-13,-59
1530692425856393,56,44,15,8,6,2,9,30
1530692425856393,14,2,-1,-1,-1,3,10,68
1530692425879332,28,48,8,6,2,4,2,9
1530692425879332,-42,-15,-9,-3,-2,7,2,-112
1530692425879332,-9,-11,-10,-6,2,35,-5,49
1530692425879332,-7,9,-1,-3,-10,-65,1,15
1530692425893294,-5,-9,-2,1,1,4,-3,18
1530692425893294,9,21,4,0,-6,-3,-8,-11
1530692425894292,55,14,-1,3,3,-9,7,66
1530692425894292,40,-23,-8,-4,1,21,-1,-33
1530692425916233,-107,-29,-1,0,0,5,4,-32
1530692425916233,82,18,6,2,-1,0,3,48
1530692425916233,96,-27,-4,-1,1,-3,3,-10
1530692425916233,-87,-16,-7,-6,-4,2,-14,-53
1530692425930196,-2,3,-2,-2,-5,-7,12,-7
1530692425930196,-37,14,12,7,6,2,-20,-67
1530692425938174,-15,17,0,-3,-6,-14,6,58
1530692425938174,-25,-11,-2,-2,-2,18,4,21
1530692425953135,64,40,-2,-1,1,2,5,67
1530692425953135,-25,-3,9,-2,-4,-6,-2,-6
1530692425954132,0,4,-14,-4,-5,-16,-9,-12
1530692425954132,54,-5,6,0,-1,4,6,21
1530692425976073,-45,-6,-4,1,1,-2,-7,30
1530692425976073,45,-16,-1,-2,-2,5,16,127
1530692425977071,-53,10,-10,-5,-1,-13,-27,-62
1530692425977071,49,16,6,3,5,12,21,44
1530692425999012,10,-20,-3,-3,-4,36,-11,-65
1530692425999012,78,5,6,5,2,-45,5,42
1530692426000009,17,33,4,1,0,-11,0,13
1530692426000009,-53,5,2,0,1,23,-17,-68
1530692426012974,102,9,6,2,2,-3,19,1
1530692426012974,-128,-73,-39,-18,-14,-12,-46,-122
1530692426013972,25,-41,3,3,6,32,15,28
1530692426013972,28,22,-2,-3,-4,-13,-8,-2
1530692426035913,7,23,10,5,5,-14,-12,95
1530692426035913,-36,-14,-3,0,0,10,9,-27
1530692426036911,-85,1,2,3,5,-11,-28,-56
1530692426036911,107,-34,-1,1,-2,0,-14,11
1530692426058852,-87,-19,-14,-10,-12,-19,-3,-46
1530692426058852,44,22,7,3,3,14,18,70
1530692426059849,6,-23,-4,-2,-4,-6,10,-14
1530692426059849,-35,17,8,3,2,-1,-5,-53
1530692426072814,-8,-39,-2,-2,1,-3,3,7
1530692426072814,-8,78,4,1,3,11,-3,-11
1530692426073811,-71,-26,-16,-12,-9,-3,-8,-58
1530692426073811,98,23,9,5,-1,-17,24,64
1530692426095753,-58,-39,-15,-8,-7,-17,-27,-42
1530692426095753,35,-21,4,4,4,44,1,28
1530692426096750,124,34,11,5,3,-25,19,22
1530692426096750,22,24,-2,-3,1,9,-2,-46
1530692426118692,66,49,-2,0,0,-6,14,-10
1530692426118692,90,-62,-12,-4,-2,4,3,-43
1530692426119689,51,82,14,4,0,9,-2,-6
1530692426119689,-66,-42,-11,-6,-2,3,-6,0
1530692426133652,52,13,5,6,2,5,15,-10
1530692426133652,106,8,2,1,0,-18,-11,-58
1530692426133652,-59,-27,-7,-3,-5,0,1,8
1530692426133652,71,31,6,2,5,0,-2,-35
1530692426155593,-89,-26,-12,-6,-5,1,-5,26
1530692426155593,-7,31,4,0,0,-8,14,58
1530692426156591,3,-33,1,4,4,-3,-6,-26
1530692426156591,28,38,0,-2,-2,11,8,61
1530692426179529,85,-44,0,-2,1,-5,-1,82
1530692426179529,-78,-6,-7,-4,-7,-4,-10,-68
1530692426179529,24,1,-2,3,3,25,6,45
1530692426179529,-8,-2,-2,-1,-7,-20,-5,16
1530692426193491,96,0,10,6,10,2,8,48
1530692426193491,7,11,1,-2,-7,-11,1,19
1530692426194489,-16,32,-2,-1,13,6,-20,-35
1530692426194489,-50,-31,-2,-2,-15,-11,-10,-121
1530692426215433,66,35,6,0,4,4,29,70
1530692426215433,-61,-30,-18,-9,-5,-7,-1,40
1530692426216430,88,71,17,5,-7,-11,-19,-17
1530692426216430,2,-58,-8,-1,4,2,1,21
1530692426239369,4,31,5,1,-19,-3,-13,-95
1530692426239369,97,51,17,8,35,11,14,111
1530692426239369,-46,1,-3,1,4,-2,33,89
1530692426239369,-48,-19,-10,-4,1,14,-26,-17
1530692426253332,16,26,-12,-8,-10,-2,-14,17
1530692426253332,-23,-15,5,3,-4,33,-1,95
1530692426254329,-9,-33,8,2,-3,-74,-7,-2
1530692426254329,4,37,8,3,5,13,22,33
1530692426276270,-25,-22,-9,-5,0,10,-18,-49
1530692426276270,-15,1,6,5,8,-10,10,-18
1530692426276270,88,42,10,2,-8,-1,-10,15
1530692426276270,-66,-76,-22,-10,-8,-5,-11,-75
1530692426299209,1,-13,-1,1,2,-4,-3,-33
1530692426299209,35,24,6,2,2,-13,2,75
1530692426300207,-47,-52,-7,-2,2,29,11,-89
1530692426300207,13,41,10,4,4,-12,5,-7
1530692426313171,-54,-12,-2,4,7,22,-1,3
1530692426313171,-40,-8,4,1,-3,-34,-21,-51
1530692426314169,-88,-5,-16,-13,-6,27,-5,-22
1530692426314169,107,16,8,6,2,32,18,-31
1530692426336110,-109,-1,-5,-8,-3,-53,-8,-56
1530692426336110,53,-10,0,7,-5,-7,5,19
1530692426337108,24,-55,3,3,0,-12,-12,26
1530692426337108,-33,13,-24,-14,-8,-12,-22,-62
1530692426359049,127,7,26,7,5,21,27,73
1530692426359049,-76,-65,-27,-17,-13,-11,-19,-104
1530692426360046,67,19,-5,-3,-3,2,1,-12
1530692426360046,27,26,8,7,4,7,7,43
1530692426373012,-50,-14,-6,-3,-2,-4,-5,-29
1530692426373012,7,23,8,-2,-2,0,2,8
1530692426374010,70,-1,-8,-2,-1,12,9,33
1530692426374010,-99,-41,4,2,3,-1,-1,10
1530692426395950,74,96,6,4,1,-20,-17,26
1530692426395950,121,46,20,9,5,13,50,70
1530692426396948,-38,-76,-23,-8,-5,13,8,13
1530692426396948,127,44,7,0,-1,-6,-2,3
1530692426418889,24,5,-3,0,-3,-6,-31,-65
1530692426418889,-25,-50,-1,2,5,19,8,14
1530692426419886,11,16,6,3,1,0,18,56
1530692426419886,-23,71,17,2,3,19,2,88
1530692426432851,4,-78,-30,-8,-3,10,17,-34
1530692426432851,-121,-76,-29,-17,-17,-22,-44,-115
1530692426433849,-39,68,11,1,-2,8,-4,-18
1530692426433849,100,-23,-17,-10,-5,-22,-22,-71
1530692426455790,-34,-16,4,3,2,2,1,63
1530692426455790,23,-29,-5,-4,-3,6,9,-1
1530692426456788,-21,15,-9,-2,0,2,1,-10
1530692426456788,-70,4,-2,-4,-6,-21,-13,30
1530692426478729,74,17,10,6,7,19,11,10
1530692426478729,-52,-16,-3,-1,-8,-7,0,28
1530692426479726,-39,-29,-15,-9,-7,-4,-36,-95
1530692426479726,-122,-43,-7,-2,-1,-11,-12,-46
1530692426501667,75,-16,-6,-1,3,8,9,18
1530692426501667,87,70,22,6,-1,8,-15,-56
1530692426502665,-28,-22,-4,-2,0,-16,-3,-24
1530692426502665,55,0,2,3,4,11,0,0
1530692426515630,-101,-43,-6,-3,-3,-4,-10,-28
1530692426515630,36,25,5,2,7,5,15,49
1530692426516628,64,32,10,4,-2,-11,-4,-57
1530692426516628,36,-56,-14,-6,-4,8,29,54
1530692426538569,-60,2,-5,-5,-5,-7,-15,-43
1530692426538569,-76,5,-2,-4,-3,-5,0,52
1530692426539566,-4,11,13,3,0,-1,-1,32
1530692426539566,66,27,14,9,9,11,26,106
1530692426553529,-96,-54,-28,-13,-10,-33,-42,-30
1530692426553529,68,-21,1,3,-1,17,1,-27
1530692426554526,119,17,8,4,2,13,13,44
1530692426554526,-102,-54,-32,-17,-20,-13,-33,-72
1530692426575470,45,49,31,11,12,5,34,61
1530692426575470,21,25,-8,-2,1,-19,-34,-70
1530692426576468,-19,-14,2,0,1,17,30,110
1530692426576468,36,66,18,6,-2,-6,-8,-44
1530692426599406,-78,-83,-46,-22,-21,33,-23,-80
1530692426599406,51,16,-3,-7,-5,-49,-6,-58
1530692426599406,127,28,12,8,7,8,4,43
1530692426599406,1,1,10,3,2,0,13,-8
1530692426612371,37,3,1,-2,-2,-3,0,4
1530692426612371,97,-15,-7,2,0,18,21,-10
1530692426620350,-55,-24,-3,1,1,-4,-31,-112
1530692426620350,-5,-39,-15,-7,-7,-6,-2,64
1530692426636308,93,101,20,9,5,-1,3,40
1530692426636308,-97,-39,-7,-4,0,-4,-1,14
1530692426636308,-58,-49,-16,-9,-10,5,-8,-52
1530692426636308,109,41,10,4,6,6,12,4
1530692426658249,98,-21,12,7,7,6,12,60
1530692426658249,-89,18,-9,-9,-7,-4,-6,-54
1530692426659246,78,19,18,9,9,17,10,108
1530692426659246,-128,-51,-27,-11,-11,22,-21,-59
1530692426672211,115,53,16,6,5,-38,13,29
1530692426672211,-6,-40,-3,4,2,8,-6,-16
1530692426681188,-4,-1,-2,-2,0,-29,6,28
1530692426681188,115,6,3,5,2,26,16,37
1530692426696147,27,24,6,3,3,10,7,-7
1530692426696147,127,19,2,-2,1,22,4,37
1530692426696147,-101,-13,-8,-3,-5,-5,-5,-59
1530692426696147,60,37,12,5,6,-10,14,38
1530692426718089,-6,-27,-10,-4,-3,-10,-2,-66
1530692426718089,63,44,11,3,1,-2,0,59
1530692426719086,54,23,-7,-7,-1,23,8,109
1530692426719086,-19,-13,7,8,9,-14,9,10
1530692426733049,8,-9,7,2,-2,-6,2,-12
1530692426733049,39,53,6,2,-2,-4,-12,-46
1530692426741027,-96,-7,-3,-2,-1,11,16,-1
1530692426741027,100,-57,1,5,3,-5,12,43
1530692426755987,-69,-26,-16,-10,-7,11,-26,-29
1530692426755987,42,72,4,5,1,-5,0,0
1530692426756985,42,-17,14,5,0,-32,-11,-29
1530692426756985,86,93,9,-3,-1,12,2,-22
1530692426777929,-108,-17,0,7,5,36,11,42
1530692426777929,107,39,14,8,2,-32,25,97
1530692426778927,-51,-63,-16,-7,-2,-10,-16,-71
1530692426778927,7,-32,-4,-3,2,-6,-6,33
1530692426801865,123,74,21,10,5,9,5,27
1530692426801865,-28,-96,-29,-13,-2,17,2,7
1530692426801865,116,32,-4,-4,-16,-42,6,69
1530692426801865,-6,-77,-10,-2,0,10,9,18
1530692426815827,119,58,24,12,9,0,14,-27
1530692426815827,-128,-118,-23,-9,-7,-7,-44,-40
1530692426816825,76,105,24,10,10,1,18,-35
1530692426816825,-128,-68,-32,-16,-11,53,1,40
1530692426838766,-95,43,1,-2,-5,-38,-2,-11
1530692426838766,89,-3,17,9,6,13,23,55
1530692426838766,-123,34,-4,-3,-1,-8,-8,-77
1530692426838766,49,18,-5,-3,-1,-20,-14,63
1530692426852729,57,-5,-9,-6,-6,6,-3,22
1530692426852729,-128,-66,-6,-3,-4,-14,-10,-50
1530692426860707,-25,33,-6,-4,-6,8,-20,101
1530692426860707,-9,49,22,9,10,-8,7,-46
1530692426875667,-62,-62,-23,-11,-13,-16,-19,-50
1530692426875667,-3,1,9,5,4,10,11,26
1530692426876665,22,-29,-6,-4,-2,39,1,-3
1530692426876665,-18,12,-1,-4,-5,-93,-26,-107
1530692426898606,-54,-80,-7,0,3,-2,1,-11
1530692426898606,82,96,14,6,6,36,18,85
1530692426899604,61,-68,-2,3,2,1,-34,-39
1530692426899604,53,42,-18,-8,-8,3,21,55
1530692426912568,-49,34,-3,-7,-7,-12,-8,-86
1530692426912568,33,23,18,7,3,12,17,16
1530692426920547,44,-43,-17,-8,-4,-30,-13,44
1530692426920547,2,4,7,6,2,-9,-14,-20
1530692426935507,4,12,8,3,4,12,11,34
1530692426935507,-114,-30,-25,-13,-10,3,-11,55
1530692426936505,39,14,2,0,3,16,35,32
1530692426936505,78,26,17,7,-5,-41,-18,97
1530692426958446,-122,-77,-36,-17,-10,3,-9,-78
1530692426958446,94,40,-6,-5,-2,-12,-16,-6
1530692426959443,85,18,4,3,2,2,21,-13
1530692426959443,4,-20,-4,0,1,9,-17,3
1530692426981385,53,-26,9,5,4,17,11,55
1530692426981385,-77,1,-10,-3,-8,-16,-3,-12
1530692426982382,-39,-6,-2,-2,0,1,-11,-81
1530692426982382,15,-4,-6,-5,-1,17,21,10
1530692426995347,97,5,8,5,7,4,7,98
1530692426995347,-41,4,-8,-8,-11,2,-16,-1
1530692426996345,-126,-38,-8,-7,-6,3,-3,72
1530692426996345,-64,55,15,5,5,-42,-7,-46
1530692427018286,-10,36,4,0,-4,4,-5,-62
1530692427018286,104,-1,2,5,8,3,7,-79
1530692427019284,50,15,5,0,-4,-5,14,96
1530692427019284,-96,-39,-6,1,0,-5,-19,-75
1530692427041224,86,22,2,0,3,18,9,116
1530692427041224,-53,23,7,2,-7,-24,-3,-34
1530692427042222,112,-44,-8,-1,-1,10,0,-51
1530692427042222,28,16,4,1,3,32,36,29
1530692427056184,39,58,23,11,6,5,19,80
1530692427056184,88,-21,-11,-6,-3,-25,-31,-38
1530692427056184,-47,-18,-13,-3,-2,-1,-26,-120
1530692427056184,85,39,20,6,6,48,18,48
1530692427078126,-61,-54,-36,-18,-19,-88,-45,-111
1530692427078126,110,26,16,9,12,33,16,100
1530692427079123,-1,21,5,-1,3,-3,7,-14
1530692427079123,-9,-60,-12,-3,-5,-13,-18,-11
1530692427101064,78,31,8,4,1,19,15,37
1530692427101064,78,3,6,2,3,23,9,10
1530692427102062,29,7,1,2,-4,-48,-39,-27
1530692427102062,-28,-9,-9,-7,-4,28,-10,-74
1530692427116024,9,14,7,5,5,-2,0,110
1530692427116024,-66,-47,-10,-6,-7,-12,-3,-53
1530692427117022,-1,54,19,10,9,11,19,68
1530692427117022,101,-29,3,3,0,48,-5,-20
1530692427137966,-126,60,-1,0,-1,-71,-3,-70
1530692427137966,86,-31,-20,-11,-7,-6,-16,-92
1530692427138963,-84,-86,-15,-6,0,5,-1,-42
1530692427138963,72,45,16,7,4,2,20,38
1530692427161902,-107,-82,-23,-12,-12,17,-18,-21
1530692427161902,76,33,14,5,4,4,25,60
1530692427161902,50,34,5,4,2,1,16,-13
1530692427161902,7,-30,-6,1,2,-7,-8,-18
1530692427175864,109,26,13,2,1,7,2,60
1530692427175864,-128,-35,-17,-7,-7,-16,-11,-29
1530692427176862,104,-16,-9,-8,-4,1,-14,43
1530692427176862,-60,8,-3,-6,-4,7,12,33
1530692427198803,-14,-12,1,-1,-1,-7,-21,-30
1530692427198803,-128,11,0,0,0,0,-17,-46
1530692427198803,100,-27,1,-2,-8,-8,12,-71
1530692427198803,10,5,-6,2,2,-18,-12,58
1530692427221742,82,10,-4,1,0,12,3,39
1530692427221742,27,26,14,5,8,35,22,48
1530692427222739,-45,4,6,2,-1,-23,-9,28
1530692427222739,13,-46,-6,-3,-2,-11,7,-24
1530692427235704,-45,-14,-2,-1,2,21,-12,-128
1530692427235704,-67,-28,-4,-2,0,-11,19,103
1530692427236702,-128,-1,-15,-8,-3,27,-13,-49
1530692427236702,-14,-11,-7,-7,-4,-22,2,-15
1530692427258643,21,-2,9,4,2,3,12,9
1530692427258643,44,39,8,4,3,5,-9,-15
1530692427258643,9,-22,-4,0,2,1,8,-34
1530692427258643,-116,-2,-9,-3,3,48,-6,-77
1530692427281582,116,-1,-1,0,-7,-67,3,76
1530692427281582,-7,-16,-3,-4,-7,-28,-16,31
1530692427282579,105,13,-1,-1,2,7,4,41
1530692427282579,-35,18,15,8,5,-1,-1,-25
1530692427295544,-54,-16,-27,-13,-7,15,-10,100
1530692427295544,60,-16,0,-2,-2,6,3,17
1530692427296542,-44,12,6,5,-1,-7,-6,-13
1530692427296542,49,-44,-13,-8,-4,-17,-12,-93
1530692427318483,11,-45,1,1,-4,18,-9,-10
1530692427318483,-23,26,5,3,1,-8,5,-70
1530692427319481,26,-25,-11,-4,-4,9,6,41
1530692427319481,97,29,13,4,0,-11,4,38
1530692427341422,46,26,8,3,3,21,24,-51
1530692427341422,-14,-2,-3,0,-3,3,-3,-49
1530692427342419,-64,1,4,5,4,-17,-8,17
1530692427342419,-109,-11,-14,-8,-8,34,-6,65
1530692427355384,8,-8,0,1,5,-7,4,-33
1530692427355384,-25,59,9,3,3,-4,2,1
1530692427356382,16,-50,-13,-11,-7,-7,-12,-42
1530692427356382,123,20,-5,-4,-6,-29,-17,29
1530692427378323,-45,-39,-1,-1,4,33,16,63
1530692427378323,125,31,6,1,-2,0,-7,46
1530692427379320,-56,43,6,-1,4,4,6,-11
1530692427379320,-6,-9,-3,0,-2,-3,-4,-69
1530692427401262,-38,-12,0,0,0,-3,0,-110
1530692427401262,106,11,3,1,2,-4,17,61
1530692427402260,83,30,6,3,2,4,12,68
1530692427402260,-71,-6,-6,-1,-2,-6,-2,35
1530692427416222,-71,68,13,4,2,15,-9,-61
1530692427416222,5,-46,-6,1,2,-4,16,57
1530692427416222,-25,17,0,0,0,2,-8,127
1530692427416222,15,1,-4,-8,-7,-5,9,-20
1530692427438163,16,-35,-2,-1,-3,13,-2,4
1530692427438163,-33,-17,-2,0,-1,-29,-11,-57
1530692427439160,62,24,8,3,1,5,2,-4
1530692427439160,79,-9,4,-1,-8,-21,22,-7
1530692427461101,18,38,-4,-2,0,5,-4,20
1530692427461101,-112,-22,-1,2,-1,4,-13,-33
1530692427462099,-11,-5,-3,-3,0,-1,11,-9
1530692427462099,38,-13,-7,-1,0,-12,-16,26
1530692427476062,4,7,1,-3,-2,10,7,36
1530692427476062,45,21,-2,-2,0,10,11,27
1530692427477059,-53,-5,0,1,1,-5,-22,-98
1530692427477059,63,28,15,6,8,12,20,98
1530692427498003,-73,-80,-32,-18,-15,-29,-19,-83
1530692427498003,116,58,17,4,4,13,3,5
1530692427499001,-68,-61,-33,-17,-12,-6,4,1
1530692427499001,-114,-20,-1,1,1,12,-1,84
1530692427521939,127,75,22,13,10,-13,4,-3
1530692427521939,-104,-87,-25,-12,-7,2,-15,-13
1530692427521939,-72,4,4,4,2,11,21,22
1530692427521939,29,20,2,-1,-4,-37,-29,-76
1530692427534904,-20,-65,-9,-1,-1,14,1,49
1530692427534904,-58,0,2,-2,-2,-3,8,36
1530692427542883,27,-35,2,6,10,21,2,17
1530692427542883,16,58,5,2,1,6,4,-15
1530692427558840,-23,-6,2,2,0,-10,-4,-54
1530692427558840,34,19,1,1,1,33,5,-4
1530692427558840,78,-9,-11,-7,-9,-22,-18,24
1530692427558840,-102,-33,-5,-2,0,-2,-4,-95
1530692427581779,42,82,14,3,1,-3,9,30
1530692427581779,49,-16,3,3,2,9,15,-19
1530692427582776,-59,-50,-25,-16,-16,-25,-34,-3
1530692427582776,127,27,-2,-1,-1,-7,-3,-26
1530692427594744,8,15,12,6,5,10,-1,-69
1530692427594744,36,-3,-8,-6,-4,7,1,41
1530692427603720,24,42,18,8,5,1,11,67
1530692427603720,-11,-5,-3,-2,-6,-17,-14,-41
1530692427618680,-92,-16,-10,-4,-2,10,1,21
1530692427618680,42,19,4,-1,-2,21,-6,19
1530692427618680,-13,4,1,2,0,-50,-32,-112
1530692427618680,-48,-7,6,5,4,5,7,108
1530692427641619,82,8,-10,-5,-4,2,24,74
1530692427641619,48,-3,-3,2,0,-13,-12,25
1530692427642616,5,19,8,0,1,21,12,12
1530692427642616,95,-6,3,4,4,0,5,52
1530692427655581,-27,52,14,2,-3,-6,-6,-40
1530692427655581,-15,-68,-28,-11,-8,-7,-20,-48
1530692427663560,-47,12,-1,-2,-6,-7,6,-33
1530692427663560,8,34,7,6,6,4,14,10
1530692427678520,41,-33,-6,-1,1,15,-8,75
1530692427678520,-63,26,6,1,-4,-20,4,-24
1530692427679518,-19,18,8,5,2,4,1,-19
1530692427679518,-5,-25,-13,-8,-5,37,12,57
1530692427701459,-6,24,12,4,4,-41,-13,-13
1530692427701459,-94,-81,-16,-7,1,6,-14,-101
1530692427702456,126,19,6,2,-1,7,5,22
1530692427702456,-2,7,5,4,3,8,-5,-23
1530692427715422,-52,-25,-24,-16,-15,-12,-25,-3
1530692427715422,-8,16,14,7,3,-6,2,61
1530692427723400,82,-21,3,1,2,15,15,-33
1530692427723400,-36,-41,-5,-6,-4,-11,-2,-13
1530692427738360,26,9,4,4,0,8,2,83
1530692427738360,105,28,19,11,6,-7,-2,-59
1530692427739358,20,16,-26,-16,-14,-7,-10,85
1530692427739358,63,4,3,2,2,8,6,-57
1530692427761299,31,10,6,3,-1,-18,2,28
1530692427761299,3,-14,5,7,4,-2,3,17
1530692427762296,-28,5,-3,0,3,10,-3,-19
1530692427762296,-105,-1,-6,-7,-4,0,-9,-10
1530692427775261,63,-33,-1,-2,-1,10,11,-59
1530692427775261,-13,9,-4,-1,-6,-15,3,23
1530692427783240,-72,31,13,3,3,1,-1,-31
1530692427783240,-9,-23,-12,-5,-4,-8,-3,37
1530692427798201,10,2,6,2,5,17,-5,-57
1530692427798201,-52,18,-4,-4,-4,5,12,13
1530692427799198,-119,-14,-6,-1,-1,17,-5,-21
1530692427799198,91,26,1,0,-1,-74,-23,-76
1530692427821139,-71,-89,-23,-10,-11,-2,-24,-30
1530692427821139,47,14,7,1,3,0,16,4
1530692427822136,124,94,17,5,4,-3,-24,23
1530692427822136,55,-11,0,4,7,26,22,48
1530692427835101,1,53,17,9,6,9,0,-67
1530692427835101,127,-39,-11,-4,-3,-9,6,107
1530692427843080,88,10,3,-1,0,1,13,-14
1530692427843080,-13,8,6,3,-2,-8,-4,-15
1530692427858040,25,7,-1,-1,2,4,25,115
1530692427858040,-26,22,1,-2,-2,9,-23,-109
1530692427859038,-78,-89,-19,-5,-2,-5,0,31
1530692427859038,-16,56,22,9,4,9,13,121
1530692427880979,-58,-46,-27,-10,-9,-8,-4,-9
1530692427880979,35,3,1,-3,-2,-6,-7,-27
1530692427881976,40,7,-1,-2,-3,-7,12,-12
1530692427881976,36,22,11,2,3,23,-8,-3
1530692427903918,-10,-40,-13,-5,-5,-22,-17,62
1530692427903918,-43,11,5,-2,0,-10,-9,-30
1530692427904915,48,21,2,2,2,10,13,19
1530692427904915,-40,-24,-4,-1,-2,-3,-5,-11
1530692427917880,81,41,14,4,4,17,21,46
1530692427917880,-92,-18,-31,-17,-12,-32,-17,18
1530692427918878,-5,-7,6,-1,-2,1,3,-15
1530692427918878,40,-19,-1,1,3,17,14,-31
1530692427940818,-15,-27,-7,-3,-2,-1,-20,-19
1530692427940818,67,40,-2,-1,-2,-2,3,-10
1530692427941816,41,-9,7,4,1,12,-7,-11
1530692427941816,35,-36,-7,-8,-7,-16,5,21
1530692427963757,3,67,13,8,6,-6,14,44
1530692427963757,43,2,4,2,3,48,25,95
1530692427964755,-83,-46,-18,-9,-5,-28,-13,-37
1530692427964755,-106,-2,-2,-1,2,11,20,68
1530692427978717,25,-54,-13,-5,-7,12,-23,-51
1530692427978717,20,63,13,6,1,-67,-30,60
1530692427978717,83,-9,13,10,9,34,38,59
1530692427978717,-19,-37,-17,-8,-5,-13,-5,48
1530692428000659,77,-6,3,0,1,5,20,-72
1530692428000659,-94,-3,2,-2,-4,14,0,60
1530692428001656,61,-3,5,5,6,-1,-5,-26
1530692428001656,15,40,4,-1,-3,-11,-17,-85
1530692428023597,-43,-46,-15,-6,-2,1,-7,19
1530692428023597,32,-39,8,4,3,4,2,-38
1530692428024595,-14,50,1,0,0,5,3,-21
1530692428024595,-119,-7,-10,-5,-6,-3,-6,5
1530692428038557,12,19,-1,-4,-3,-1,-7,-61
1530692428038557,127,58,16,7,5,14,20,-43
1530692428039555,34,-103,-19,-11,-10,-17,-28,-25
1530692428039555,100,60,6,1,-4,-19,-6,69
1530692428060499,117,81,19,10,5,9,7,45
1530692428060499,-63,-33,-9,-1,1,24,10,55
1530692428061496,46,-11,-1,-1,-1,0,26,21
1530692428061496,-5,5,-5,-8,-5,-4,-16,-108
1530692428084434,69,15,6,4,7,-14,5,31
1530692428084434,-127,-95,-33,-16,-18,12,-20,-128
1530692428084434,62,53,19,7,4,-9,8,78
1530692428084434,-93,-31,-14,-6,-3,15,-22,-128
1530692428098397,106,-4,0,-3,-1,9,14,87
1530692428098397,-26,17,-1,0,2,-7,-10,-9
1530692428099395,79,92,20,6,3,7,11,79
1530692428099395,75,-41,-15,-2,-3,-29,-16,-22
1530692428120339,-110,25,1,0,-1,15,7,-39
1530692428120339,-57,-44,-1,-2,0,-1,-1,-9
1530692428121336,-2,35,-1,-1,-5,-16,-14,-61
1530692428121336,-18,4,5,3,4,24,8,6
1530692428144275,26,-9,3,2,1,-35,5,-31
1530692428144275,55,10,2,2,4,15,-8,-50
1530692428145272,-12,-78,-13,-5,-5,-7,-12,-34
1530692428145272,-19,12,3,0,0,-1,17,44
1530692428158237,28,7,1,-2,-1,-2,-3,-40
1530692428158237,42,-18,-10,-3,-3,-17,-12,-32
1530692428159235,-57,-23,-9,-4,1,8,-6,65
1530692428159235,127,0,3,4,3,13,-1,40
1530692428181176,60,68,10,2,2,4,6,50
1530692428181176,-26,3,8,4,-3,-16,1,52
1530692428181176,18,-14,8,4,-1,2,-7,58
1530692428181176,88,73,-8,-5,-2,-1,9,92
1530692428204115,-8,-72,-9,-2,0,9,-7,-28
1530692428204115,23,4,5,8,4,4,17,106
1530692428205112,40,-14,0,6,1,3,0,-53
1530692428205112,-57,-24,-11,-1,-8,-13,-13,21
1530692428218077,-22,-23,3,4,2,0,-2,-26
1530692428218077,-70,56,-8,-9,-7,0,-5,-5
1530692428219075,-47,-26,-8,-13,-2,-21,3,-19
1530692428219075,62,30,24,15,20,50,36,45
1530692428241016,65,-61,-34,-31,-20,-10,-27,68
1530692428241016,-35,-21,2,14,-3,-53,2,18
1530692428242013,18,47,8,2,2,-10,-38,-72
1530692428242013,29,-29,0,-2,-5,-11,4,53
1530692428263954,14,52,12,6,10,12,11,-51
1530692428263954,109,-8,10,4,9,17,16,50
1530692428264952,40,-50,-32,-20,-19,-9,-25,-34
1530692428264952,-5,8,1,0,-1,-6,-2,26
1530692428277917,-64,-22,10,9,3,5,4,13
1530692428277917,127,32,14,5,8,14,7,61
1530692428278915,-34,23,14,10,8,13,12,-54
1530692428278915,109,-29,-22,-14,-10,-16,-26,-42
1530692428300856,-128,-55,-6,4,-4,5,12,40
1530692428300856,92,65,8,-6,-5,1,-5,-6
1530692428301853,-88,48,11,2,6,2,8,119
1530692428301853,-11,-59,-5,4,-1,-2,-4,6
1530692428323794,39,29,-3,-1,-1,-11,-8,-12
1530692428323794,21,-6,4,3,4,9,0,-82
1530692428324792,127,21,16,10,8,10,1,35
1530692428324792,-87,22,-25,-16,-10,-8,-4,16
1530692428338755,24,-16,3,5,-5,-14,-19,47
1530692428338755,-13,-10,1,-5,-3,13,-2,-6
1530692428338755,-22,12,0,0,9,-10,19,95
1530692428338755,-50,-17,10,5,-3,27,-7,25
1530692428360696,19,30,4,0,-2,-26,6,46
1530692428360696,20,-21,-12,-6,-4,1,8,-20
1530692428361693,-48,-20,-13,-6,-6,10,9,-3
1530692428361693,-50,12,12,6,10,-13,-22,-101
1530692428383634,-15,20,6,1,1,-2,-3,-67
1530692428383634,-111,-51,-20,-13,-10,-11,-32,-88
1530692428384632,-47,-66,-18,-6,-12,-23,6,66
1530692428384632,-75,-10,1,-2,-2,6,-6,-79
1530692428398594,5,9,3,0,-2,5,26,48
1530692428398594,-73,-11,-4,0,1,-5,-10,-32
1530692428399592,81,6,-3,-2,-3,8,13,-45
1530692428399592,123,3,-2,-3,-3,-3,14,51
1530692428420536,21,-15,-2,-2,3,4,-19,-77
1530692428420536,-71,-23,-18,-10,-8,-15,7,84
1530692428421534,45,19,6,2,2,15,-2,-2
1530692428421534,-43,-6,16,6,4,-5,8,10
1530692428444472,72,31,1,1,0,-1,2,-2
1530692428444472,39,10,2,-1,4,50,10,23
1530692428444472,-42,4,-5,-3,-10,-31,-8,-21
1530692428444472,-27,-19,-10,-8,-4,-3,-5,-69
1530692428457437,2,-10,1,2,0,-4,9,75
1530692428457437,-86,-16,-3,-1,-10,3,6,-47
1530692428465416,110,56,23,10,14,11,5,18
1530692428465416,67,-46,-30,-14,-3,-16,-21,48
1530692428480376,52,8,0,-2,1,28,14,-20
1530692428480376,43,5,2,0,-2,-22,-5,111
1530692428481373,-30,-12,-6,-1,-3,3,7,-25
1530692428481373,-93,-30,17,7,5,-4,3,-65
1530692428504312,2,45,-7,-1,-1,6,-17,-61
1530692428504312,73,-62,-11,-3,0,-4,15,86
1530692428505309,-37,30,12,3,0,-3,-25,-110
1530692428505309,-75,8,-17,-12,-8,-10,0,62
1530692428517277,-113,-66,-15,-8,-5,4,-2,-16
1530692428517277,127,42,9,5,3,-11,-15,-40
1530692428526253,48,6,-2,0,-2,-1,2,53
1530692428526253,-6,25,6,3,-1,4,16,26
1530692428541213,-67,-35,-11,-5,-7,-14,-16,-53
1530692428541213,-27,36,3,3,3,5,1,-60
1530692428541213,-70,-46,-11,-5,-3,18,-9,8
1530692428541213,84,33,12,8,-5,-37,-16,-31
1530692428564152,-36,-10,4,1,4,10,28,61
1530692428564152,-24,-11,0,-1,-1,-17,-21,-39
1530692428565149,-5,-3,-12,-3,-1,21,8,-19
1530692428565149,67,34,10,3,2,6,8,75
1530692428578114,-18,-29,-1,0,3,-3,-15,-12
1530692428578114,-66,-22,-5,-5,3,9,7,-70
1530692428586093,77,30,4,4,1,-8,12,27
1530692428586093,28,-11,-11,-6,-3,1,0,58
1530692428601053,127,65,28,10,2,0,1,16
1530692428601053,48,26,2,1,4,3,10,-20
1530692428602050,68,-43,-11,-1,-4,-11,-4,61
1530692428602050,-82,-17,-2,1,2,7,4,5
1530692428623992,-23,-5,-3,0,2,6,2,88
1530692428623992,85,5,-3,-2,-6,-13,-6,102
1530692428624989,-4,18,6,1,6,-4,-4,-58
1530692428624989,115,9,-3,3,7,22,6,10
1530692428637954,-12,-16,0,0,1,3,2,8
1530692428637954,-42,2,-2,-2,-11,-20,-1,40
1530692428645933,-61,9,-3,-6,-5,5,11,44
1530692428645933,119,24,14,5,2,0,6,-1
1530692428660893,79,29,3,2,-1,-7,-8,6
1530692428660893,-50,5,-3,1,4,10,10,-47
1530692428661891,55,-36,3,-1,2,10,5,42
1530692428661891,50,-19,-2,-2,1,1,2,-24
1530692428683831,12,-4,-1,-2,1,-11,-11,-23
1530692428683831,-68,43,9,2,1,0,4,-51
1530692428684829,22,-7,-5,-3,-6,-5,-8,-42
1530692428684829,-83,-36,-8,-5,-13,-2,-7,-55
1530692428697794,-94,-27,-1,0,-2,-4,3,64
1530692428697794,63,-8,3,0,0,4,-9,-37
1530692428705773,-112,26,-4,-5,-1,-9,-5,-25
1530692428705773,8,16,7,6,5,8,5,-63
1530692428720733,47,13,-6,-5,0,-3,-8,-22
1530692428720733,-26,-30,-2,2,6,-3,8,-21
1530692428721730,-60,10,1,-4,-9,-9,-6,-13
1530692428721730,35,11,-11,-2,0,8,7,22
1530692428743672,-27,18,6,1,-3,-22,0,67
1530692428743672,43,3,4,4,8,31,4,-18
1530692428744669,-35,-60,-20,-9,-14,-7,-2,-35
1530692428744669,40,5,6,2,-1,-9,12,76
1530692428757634,-105,-56,-19,-9,0,-2,-22,-118
1530692428757634,-6,43,1,-2,-1,-17,-10,25
1530692428765613,1,-6,1,0,0,14,9,-57
1530692428765613,-8,15,7,0,-3,-12,6,66
1530692428780574,127,1,-5,-2,0,24,15,-60
1530692428780574,-76,-70,-9,-7,-7,-6,-7,67
1530692428782568,23,43,-4,0,2,-3,-5,-7
1530692428782568,-11,-27,-6,-4,-4,-3,-21,2
1530692428804509,13,-35,-6,-3,-9,-9,-2,-7
1530692428804509,125,48,13,3,7,6,-4,79
1530692428804509,-89,-39,-11,-2,4,0,-7,14
1530692428804509,6,6,7,1,-7,-31,-17,-59
1530692428826450,-46,-30,2,-1,-1,-3,-7,24
1530692428826450,26,-14,-16,-8,-8,14,18,56
1530692428827448,65,24,12,6,1,-22,-1,-13
1530692428827448,27,4,-5,-1,5,12,-6,-25
1530692428840413,-33,4,-1,2,-2,-4,7,-8
1530692428840413,31,20,9,4,1,6,0,-18
1530692428841410,8,-9,0,-1,-1,13,3,22
1530692428841410,-58,11,1,0,1,-15,11,49
1530692428864349,-9,16,-1,-2,-1,5,0,-29
1530692428864349,-9,0,4,0,3,-5,-5,44
1530692428864349,98,-6,-4,1,1,11,-4,25
1530692428864349,-4,-7,-1,-2,-4,2,-3,60
1530692428886290,95,34,10,5,4,5,22,18
1530692428886290,-77,-84,-24,-11,-12,-5,-14,8
1530692428887288,75,51,16,8,3,0,-13,-45
1530692428887288,57,14,3,4,5,11,13,-32
1530692428901250,22,-37,-13,-11,-11,-9,-11,-53
1530692428901250,6,5,5,3,5,-5,-9,-128
1530692428901250,62,-10,-6,-7,-6,-6,-6,72
1530692428901250,42,6,-6,-4,-3,4,7,-7
1530692428924189,-68,13,5,3,3,2,-1,15
1530692428924189,81,24,4,5,-4,2,8,-39
1530692428925186,30,4,-5,-2,-2,-8,2,-5
1530692428925186,16,-20,-1,1,8,15,1,-6
1530692428946130,97,24,-2,-4,-1,-2,11,30
1530692428946130,25,25,1,-2,0,-9,-10,-18
1530692428947128,-41,-19,-4,1,-3,1,16,31
1530692428947128,-47,-10,-6,-5,-6,-1,-12,-28
1530692428961090,-25,24,1,-1,2,3,-3,1
1530692428961090,78,32,7,4,1,-2,3,18
1530692428962088,-74,-61,-5,-3,-3,-6,-17,-16
1530692428962088,-52,-57,-10,-2,-5,-1,-8,-28
1530692428984028,77,-17,-13,-7,-7,-2,24,67
1530692428984028,27,17,-2,-4,-2,-4,4,60
1530692428985026,-87,-34,-9,-4,-5,0,10,15
1530692428985026,-15,-9,7,3,0,0,-24,-73
1530692429006967,-23,9,5,4,9,6,-1,-11
1530692429006967,46,-9,-4,-5,0,2,3,27
1530692429006967,-56,-1,3,3,8,49,2,-82
1530692429006967,-45,-19,-8,-4,-9,-64,2,34
1530692429020930,4,3,-8,-6,-10,5,12,-19
1530692429020930,70,-17,-12,-5,-3,-9,-1,-31
1530692429021928,-26,16,12,2,1,0,-25,-49
1530692429021928,83,41,13,4,4,13,-2,-100
1530692429042871,-52,22,9,5,6,2,-14,-10
1530692429042871,24,-28,-11,-4,-3,-1,-1,53
1530692429043869,82,21,-1,-1,-1,-14,10,28
1530692429043869,-22,-10,1,-2,1,11,6,16
1530692429066807,-43,6,0,-1,-1,-15,-18,-51
1530692429066807,41,10,6,3,-1,2,1,-24
1530692429067805,-55,23,2,2,0,-15,4,-4
1530692429067805,48,28,-1,-4,-1,11,17,52
1530692429080770,91,-39,-8,-1,-1,32,22,88
1530692429080770,-49,-1,-3,-5,-4,-7,-21,-128
1530692429081768,20,-53,-4,2,4,2,7,71
1530692429081768,69,66,3,0,2,-4,-2,-13
1530692429103709,16,22,8,2,-5,-10,5,-1
1530692429103709,2,-6,2,2,-2,-8,-24,15
1530692429103709,7,6,-9,-9,-7,-15,-11,-52
1530692429103709,102,31,10,3,3,20,15,44
1530692429126647,-56,-62,-18,-4,-2,-4,-8,6
1530692429126647,45,-2,10,3,3,-8,10,63
1530692429127645,48,-43,-12,-3,-2,-8,-12,-49
1530692429127645,-68,-15,-12,-3,-3,2,4,51
1530692429140610,60,31,10,2,0,-6,-13,-41
1530692429140610,-86,-25,-1,0,-2,1,15,-14
1530692429141607,99,8,4,3,6,9,6,-5
1530692429141607,35,36,10,0,2,66,22,38
1530692429163549,-28,-53,-32,-14,-15,-92,-46,-89
1530692429163549,56,28,4,4,9,18,8,41
1530692429164546,41,32,5,2,1,-5,8,-10
1530692429164546,92,-21,-5,-2,3,-1,-9,-66
1530692429186488,-21,19,12,5,-1,28,-4,-70
1530692429186488,-108,11,0,-1,-2,-11,-10,-13
1530692429187485,76,31,5,4,-1,-12,-22,6
1530692429187485,-3,22,7,2,-1,-21,-3,-52
1530692429200450,72,-77,-17,0,8,14,2,-9
1530692429200450,-68,3,-14,-11,-11,-17,-23,-65
1530692429201447,63,30,15,3,0,9,18,99
1530692429201447,-85,-29,-5,-1,4,1,24,60
1530692429223389,-12,-4,13,5,4,2,1,55
1530692429223389,-57,9,-7,-8,-9,3,-1,-23
1530692429224386,40,0,-6,-2,-3,41,11,16
1530692429224386,-89,-30,2,3,-2,-48,-22,-31
1530692429246327,1,47,3,-4,-1,-14,-10,93
1530692429246327,105,-47,-13,-3,-3,-11,5,1
1530692429247325,-101,-90,-23,-11,-9,-15,-22,-38
1530692429247325,46,1,-14,-7,-7,-11,-22,-21
1530692429261287,-80,21,-4,-3,-3,33,-12,-78
1530692429261287,84,-5,6,2,3,26,20,-13
1530692429261287,68,23,-9,-5,-8,-39,-1,-15
1530692429261287,-88,-15,-6,-5,-7,-5,-13,-45
1530692429283228,60,37,10,0,2,0,19,13
1530692429283228,18,9,11,9,6,6,2,-27
1530692429284226,-38,12,2,-1,1,5,11,4
1530692429284226,-25,-22,-2,1,1,-4,-10,-116
1530692429306167,43,64,15,7,4,24,19,97
1530692429306167,3,-8,-2,2,2,-22,-29,-30
1530692429307164,74,23,5,0,-3,-3,2,-8
1530692429307164,0,-14,-4,-6,-1,4,0,11
1530692429321127,96,-14,-1,4,4,3,18,59
1530692429321127,-96,-32,-15,-9,-6,-7,-14,-19
1530692429322125,6,19,7,-6,4,1,6,54
1530692429322125,127,0,2,8,-7,4,12,48
1530692429343068,39,-12,-7,8,-2,-1,-13,-29
1530692429343068,19,-10,4,4,-7,-3,13,24
1530692429344066,-15,24,12,11,21,2,-6,42
1530692429344066,-48,-5,-1,-8,16,14,7,37
1530692429367004,-45,-21,-6,-4,-22,-12,-7,-27
1530692429367004,11,5,-2,-1,11,11,17,100
1530692429367004,-52,-38,-9,-8,-8,1,-13,41
1530692429367004,115,5,3,5,-7,11,-12,-92
1530692429380968,-29,36,5,-2,1,3,15,69
1530692429380968,11,37,7,5,-3,-10,0,42
1530692429381965,11,0,-8,-6,-7,-12,-5,-26
1530692429381965,50,22,3,3,7,3,-12,31
1530692429402908,67,7,6,3,-1,-7,4,-19
1530692429402908,-8,7,8,-3,-1,36,17,-29
1530692429403906,71,5,-1,1,2,-37,-11,66
1530692429403906,-18,46,9,3,1,6,-3,1
1530692429426844,-48,-43,-13,-8,-3,-4,-10,-58
1530692429426844,47,31,1,2,4,13,5,-83
1530692429426844,49,-13,0,2,-2,5,1,62
1530692429426844,-96,18,1,-1,-9,2,9,23
1530692429439810,-28,-63,-16,-7,1,3,-5,-76
1530692429439810,-45,30,2,-2,-1,-11,-1,-41
1530692429448786,-124,-63,-22,-7,-10,3,-5,-34
1530692429448786,94,9,6,4,1,-4,1,12
1530692429463747,-64,-5,-8,-9,-1,-16,-35,-28
1530692429463747,7,-18,-2,3,-5,-22,-4,-65
1530692429463747,75,36,14,1,-8,5,21,57
1530692429463747,-128,-62,-12,-6,3,14,-8,-60
1530692429486684,29,-15,-15,-11,-1,-23,-37,-57
1530692429486684,61,9,8,9,6,9,10,121
1530692429487682,56,24,-20,-13,-10,-12,-11,-61
1530692429487682,-53,-70,-19,-6,-7,-2,24,33
1530692429500647,85,60,35,6,4,7,6,-26
1530692429500647,-25,-21,-6,4,0,-8,3,13
1530692429508626,-16,21,18,11,3,10,10,-8
1530692429508626,65,5,-5,-3,3,15,11,41
1530692429523586,-59,-12,-13,-7,-2,-25,-6,-91
1530692429523586,-46,-9,1,-4,-5,-24,-13,2
1530692429524583,-62,2,7,3,0,12,21,45
1530692429524583,21,3,-1,-3,-7,-33,-15,-78
1530692429546524,-15,27,16,9,7,32,15,127
1530692429546524,80,-31,-8,-5,6,8,-7,48
1530692429547522,-61,1,-1,-1,-1,-19,-15,-81
1530692429547522,-42,19,-3,-4,-3,0,-6,41
1530692429560487,33,-2,2,2,0,3,16,8
1530692429560487,102,37,10,6,7,18,17,72
1530692429568466,-76,-67,-23,-12,-9,-5,-27,-117
1530692429568466,103,39,11,5,4,-3,12,118
1530692429583426,-24,-21,-8,-2,-4,1,-17,-38
1530692429583426,27,13,5,-3,-3,-3,5,34
1530692429584423,29,-10,13,9,8,6,5,-84
1530692429584423,-65,20,-2,-2,1,1,4,-48
1530692429606364,-48,-61,-20,-10,-8,-9,-3,14
1530692429606364,10,53,2,-4,-2,43,1,-10
1530692429607362,8,-68,0,7,5,-62,-10,64
1530692429607362,40,-8,-4,-3,-4,-13,-10,-50
1530692429620327,64,11,1,0,-1,5,8,73
1530692429620327,53,-6,-3,-5,-5,-3,1,-70
1530692429628306,101,30,-8,-8,-3,5,-11,89
1530692429628306,-15,-11,7,8,1,-3,-5,-36
1530692429643266,66,29,14,7,7,-4,16,70
1530692429643266,-24,-75,-29,-14,-12,-15,-29,50
1530692429644263,69,52,2,4,6,16,6,28
1530692429644263,117,43,10,-1,0,4,27,48
1530692429666204,-90,-35,0,-1,-1,6,-1,-9
1530692429666204,40,-54,-3,6,0,-1,12,42
1530692429667202,-68,41,3,3,2,8,13,-33
1530692429667202,64,13,2,-1,0,6,-12,-50
1530692429680167,-79,4,-3,-1,-5,-22,-36,-92
1530692429680167,80,24,5,0,1,1,19,-27
1530692429688146,-101,3,9,4,1,5,-8,-37
1530692429688146,-72,12,2,-1,-2,5,-5,-18
1530692429703106,34,5,2,4,5,7,9,-30
1530692429703106,-83,-13,-5,-4,-2,30,-11,3
1530692429704103,-11,12,3,-1,0,-38,30,-26
1530692429704103,-83,-26,-5,-2,-10,-23,-20,-3
1530692429726044,127,60,18,7,13,25,33,37
1530692429726044,-128,-91,-48,-25,-16,-33,-61,24
1530692429727041,97,36,-2,-2,-4,21,0,75
1530692429727041,51,18,8,2,-1,21,4,12
1530692429740007,85,38,-1,1,-5,-26,6,63
1530692429740007,1,14,20,10,8,6,12,-19
1530692429747986,-37,-15,-4,-1,0,10,-8,-33
1530692429747986,-16,-24,-7,1,0,-14,-4,3
1530692429762946,17,-12,5,-3,0,18,-5,-24
1530692429762946,2,94,3,-3,-6,-20,-3,27
1530692429763943,-7,-38,0,2,2,8,2,41
1530692429763943,27,13,-4,-3,-1,-1,-12,-16
1530692429786882,-19,-73,-22,-6,-5,-16,15,64
1530692429786882,-23,1,5,0,2,-2,-5,-87
1530692429786882,107,-8,-4,-5,-7,7,4,-6
1530692429786882,-62,-22,-8,2,7,57,4,3
1530692429808823,-45,7,5,-1,1,-70,-15,-44
1530692429808823,26,-4,10,7,4,0,3,60
1530692429809821,5,14,-6,-3,-3,-6,15,29
1530692429809821,16,-44,-5,-3,2,1,0,-72
1530692429823783,18,16,3,4,5,23,-12,-60
1530692429823783,4,19,8,4,3,0,20,15
1530692429823783,-90,-10,8,3,-5,37,-23,12
1530692429823783,-23,5,-11,-5,-6,-86,-9,30
1530692429846722,64,-11,-7,0,5,28,20,50
1530692429846722,-39,-47,-29,-14,-12,-16,-24,-127
1530692429847719,-52,-2,9,-4,2,10,-9,-53
1530692429847719,-11,-17,-2,1,-5,-1,8,104
1530692429868663,-21,26,12,6,0,11,-11,27
1530692429868663,2,-25,-7,-3,-2,-19,-20,-72
1530692429869661,18,15,1,3,3,4,9,5
1530692429869661,-13,-4,4,1,1,3,3,71
1530692429883623,-16,-6,-3,-4,-5,-9,1,60
1530692429883623,1,-1,1,1,4,15,-5,-35
1530692429884621,15,-8,-1,0,-1,12,1,-18
1530692429884621,11,12,6,2,-1,-23,-9,24
1530692429906562,39,28,4,1,-1,15,15,4
1530692429906562,-50,-8,2,0,0,-4,7,39
1530692429907559,30,42,3,1,2,-3,1,-33
1530692429907559,126,-37,-7,-4,-1,8,-6,15
1530692429929500,-3,10,-4,-7,-6,8,4,-21
1530692429929500,-69,-42,-6,-3,-5,-24,-16,-99
1530692429929500,-14,4,-4,-3,-1,-4,-2,50
1530692429929500,101,23,9,-2,1,10,2,37
1530692429943463,-21,-7,0,5,1,14,7,-54
1530692429943463,-32,-11,-2,-1,0,4,-12,-1
1530692429944460,30,-59,-19,-3,-3,-5,-10,13
1530692429944460,105,0,8,3,1,1,32,-54
1530692429966401,6,13,-5,-2,-5,-18,-35,41
1530692429966401,-19,12,5,3,1,3,21,-19
1530692429967399,14,0,-3,-2,0,-20,-18,-44
1530692429967399,-2,5,-5,-5,-2,3,-5,6
1530692429989340,10,-21,-4,-3,-4,27,29,62
1530692429989340,13,22,3,1,-2,-5,6,57
1530692429989340,6,42,6,0,2,7,0,30
1530692429989340,-56,-31,-5,1,-1,9,0,1
1530692430003303,-17,13,-1,-3,0,-17,-12,-63
1530692430003303,127,40,10,5,3,6,9,43
1530692430004301,-71,-63,-12,-6,-7,6,-3,-75
1530692430004301,36,34,0,2,1,-14,5,39
1530692430026241,-71,-49,-10,-9,-10,-6,-20,-39
1530692430026241,110,38,13,3,2,-12,12,56
1530692430027243,-39,-39,-3,1,3,23,21,-33
1530692430027243,-94,14,-6,-2,-4,2,-43,-23
1530692430049180,26,12,-1,-3,-10,-17,-2,-109
1530692430049180,-95,-60,-5,-3,0,0,4,-2
1530692430050178,70,12,2,3,2,-12,-6,53
1530692430050178,-40,-18,-6,-3,-1,6,3,-13
1530692430063143,-22,25,5,5,8,60,10,-33
1530692430063143,-9,-3,-1,-4,-8,-76,-28,16
1530692430064140,65,38,2,1,1,-3,9,2
1530692430064140,-97,-19,-5,-3,-2,8,8,-8
1530692430086081,-6,-19,-11,-4,0,-2,-1,16
1530692430086081,27,11,0,-1,-2,8,17,44
1530692430087079,-20,-1,4,2,4,10,4,-38
1530692430087079,21,7,3,1,3,-20,-2,28
1530692430109020,1,-3,0,-2,-3,2,8,10
1530692430109020,-9,23,7,3,3,30,-2,-47
1530692430110018,54,-19,-8,-6,-8,-20,7,-4
1530692430110018,-19,7,5,0,0,4,-21,-48
1530692430122983,127,48,16,12,16,16,16,91
1530692430122983,-31,-60,-31,-14,-18,-22,-28,-83
1530692430123980,-20,-1,8,3,3,0,2,-33
1530692430123980,79,9,0,-2,-3,6,5,-100
1530692430145921,32,-7,-7,-4,-1,-16,5,66
1530692430145921,63,65,13,6,6,43,14,34
1530692430146919,-37,-42,-7,-2,-2,-51,-10,31
1530692430146919,-60,-16,-7,-3,-2,3,-1,14
1530692430168860,-18,9,-3,0,-4,-34,-34,-67
1530692430168860,81,-4,1,3,5,22,16,28
1530692430169858,-45,4,7,-1,-2,7,6,3
1530692430169858,56,-44,-15,-4,-1,2,8,-12
1530692430183820,72,-1,6,-3,-1,-13,2,21
1530692430183820,8,45,1,2,1,2,-4,22
1530692430183820,95,22,9,4,4,8,6,18
1530692430183820,-53,-22,-11,-6,-6,-8,-7,52
1530692430206759,-21,25,5,2,0,4,2,22
1530692430206759,-31,-53,2,3,4,21,13,-22
1530692430207756,66,31,-3,-4,-3,-12,-19,27
1530692430207756,-100,-9,-5,-6,-7,-13,-12,-44
1530692430228700,81,4,5,4,1,-6,18,93
1530692430228700,-45,-1,3,2,4,15,5,0
1530692430229698,64,7,-4,0,-5,10,2,-22
1530692430229698,82,27,6,3,3,7,-7,11
1530692430243660,2,-19,-2,1,0,-7,-1,-33
1530692430243660,-24,7,-3,-4,-6,-14,0,-19
1530692430243660,-58,-15,-6,-5,-2,11,6,39
1530692430243660,58,34,6,1,1,-4,13,-12
1530692430265601,-128,-31,-4,-4,-2,5,-7,-42
1530692430265601,127,-6,-3,0,1,36,4,92
1530692430266599,-51,-46,-11,-8,-8,-61,-11,-19
1530692430266599,43,48,10,5,1,1,7,78
1530692430289537,-97,-19,-13,-8,-5,-5,-8,-50
1530692430289537,45,-15,-5,-4,-3,-7,-9,12
1530692430289537,-21,-16,4,5,4,21,4,34
1530692430289537,-92,22,13,2,0,16,10,35
1530692430303500,-7,4,-7,-3,-3,-25,-16,-59
1530692430303500,24,-10,-6,-3,-4,-13,9,-13
1530692430304498,-91,32,5,1,0,12,-10,-64
1530692430304498,86,-32,-8,-1,0,-11,3,-84
1530692430325441,60,-5,-5,-3,0,17,18,83
1530692430325441,-26,-17,-3,-4,-1,-11,10,-6
1530692430326439,14,65,6,0,0,16,22,30
1530692430326439,23,-4,-3,0,1,-22,-12,33
1530692430349377,-60,-3,-5,-4,-3,21,-7,18
1530692430349377,-4,-27,-3,1,1,-14,-6,-74
1530692430349377,-3,1,-1,0,-4,2,8,-1
1530692430349377,19,3,4,3,2,-6,-6,53
1530692430362343,-2,9,4,2,-2,35,13,30
1530692430362343,36,-36,-4,-2,-1,-72,-26,-56
1530692430371319,7,15,-6,-1,3,5,-15,33
1530692430371319,-45,3,4,3,-2,20,20,-52
1530692430386279,102,1,5,5,5,-13,-13,-3
1530692430386279,21,45,7,4,1,23,4,-1
1530692430386279,-73,-42,-11,-9,-6,-6,-21,-96
1530692430386279,80,-11,-5,-2,1,1,-1,67
1530692430409217,107,-3,6,4,5,9,10,50
1530692430409217,-110,-30,-16,-13,-15,-3,-5,-5
1530692430410215,60,28,7,4,1,-12,-17,11
1530692430410215,-13,14,3,0,-1,7,-13,4
1530692430423180,12,-47,-12,-5,-4,0,6,-72
1530692430423180,-79,8,7,3,2,1,5,-24
1530692430431158,-4,27,-1,0,0,-10,-10,-15
1530692430431158,2,-33,-6,-1,1,-7,-7,-22
1530692430446118,-96,10,7,4,1,-6,8,4
1530692430446118,61,51,13,4,3,11,2,7
1530692430447116,25,-33,-6,-3,4,18,3,-40
1530692430447116,32,-8,-9,1,-1,-5,-20,-77
1530692430469057,72,15,12,1,-2,-20,4,8
1530692430469057,-79,10,-6,-3,-4,19,-8,-55
1530692430470055,103,-1,5,2,-5,-7,9,122
1530692430470055,-30,26,-2,-4,0,60,12,2
1530692430483020,2,-50,-12,-6,-11,-72,-15,-15
1530692430483020,86,-12,-1,-1,0,1,23,27
1530692430490999,55,-20,-2,0,-2,10,0,-69
1530692430490999,62,13,-7,-5,-6,-19,-8,33
1530692430505959,-74,-22,-12,-7,-4,20,-2,18
1530692430505959,13,42,12,3,5,-1,-2,-14
1530692430506956,-44,-17,1,4,6,-6,-12,-10
1530692430506956,-29,-13,8,3,0,6,21,9
1530692430528897,33,13,-1,1,1,14,1,-65
1530692430528897,19,15,2,0,2,-4,1,67
1530692430529895,36,12,-5,-1,-5,4,2,-8
1530692430529895,-4,-28,-3,0,-4,-21,-14,-32
1530692430542860,-43,27,2,0,1,-2,-4,-24
1530692430542860,-14,-27,-7,-2,-2,7,-16,-27
1530692430550838,-9,-9,3,2,5,3,27,35
1530692430550838,-58,5,-3,-3,-3,-9,-8,-14
1530692430565798,-90,-35,-16,-8,-7,3,-2,12
1530692430565798,61,18,6,5,4,-1,-12,20
1530692430566796,28,-6,-3,-3,-1,7,4,89
1530692430566796,-20,-12,0,-1,-5,-3,19,-13
1530692430588737,39,61,14,12,10,0,9,-10
1530692430588737,-12,-20,-8,-3,-3,-13,-19,-55
1530692430589735,-60,-51,-21,-13,-8,-7,-1,3
1530692430589735,117,3,0,-2,0,17,-6,-21
1530692430602700,89,10,6,-1,5,13,2,8
1530692430602700,17,24,2,1,-1,6,7,77
1530692430610679,24,-12,4,3,0,-1,-12,-48
1530692430610679,-49,5,0,0,-1,-4,-4,8
1530692430625639,-3,-25,-3,-2,-3,-2,3,67
1530692430625639,-103,51,7,0,2,-3,15,-42
1530692430626636,83,-30,3,4,7,7,-9,46
1530692430626636,-57,-4,-3,-3,-4,-7,-4,-60
1530692430648577,89,-16,-8,-4,-4,-22,-19,102
1530692430648577,43,25,9,4,0,8,10,-43
1530692430649574,-29,13,3,1,-1,12,11,-60
1530692430649574,82,-11,-2,1,2,-14,-7,76
1530692430662540,-6,26,7,1,0,18,-4,-30
1530692430662540,16,-29,-4,-2,-1,-7,4,67
1530692430670518,-63,11,6,-2,-5,-16,-12,-79
1530692430670518,18,4,-1,5,6,0,4,35
1530692430685478,-32,12,2,-1,0,4,-18,-51
1530692430685478,-3,-26,-3,0,4,3,1,45
1530692430686476,-28,21,5,4,-1,-4,-8,-1
1530692430686476,19,22,7,0,2,16,9,65
1530692430709415,-65,-12,-2,-1,-2,8,-10,-104
1530692430709415,-40,-6,-3,-1,-4,-37,9,2
1530692430709415,-20,16,-3,-2,-2,5,-4,-11
1530692430709415,-17,-5,-5,-4,-5,-16,-5,-65
1530692430731356,80,45,7,2,3,10,3,60
1530692430731356,38,-48,-6,-3,1,24,8,88
1530692430732353,-92,-2,-6,-5,-8,-10,-15,-66
1530692430732353,21,9,1,-2,-1,-9,15,-48
1530692430746316,-18,-20,-5,-3,-7,13,10,-22
1530692430746316,9,4,-1,2,7,2,-20,-41
1530692430746316,95,30,6,3,1,0,32,68
1530692430746316,-55,-30,-3,0,-1,0,-12,-10
1530692430769254,-80,-16,-7,-4,-3,-3,9,21
1530692430769254,26,18,8,6,1,2,-33,-55
1530692430770252,69,32,11,4,6,2,2,-20
1530692430770252,-22,-11,-3,-2,-1,-4,0,-33
1530692430791196,-17,-3,0,2,2,-9,-4,36
1530692430791196,-15,0,-2,-5,-7,-3,6,0
1530692430792193,-5,-21,-10,-5,-1,5,-5,-31
1530692430792193,29,-3,4,1,1,9,8,84
1530692430806156,77,42,10,5,2,-11,-3,-22
1530692430806156,-54,-56,-20,-6,-5,-4,8,61
1530692430806156,65,36,3,0,0,2,-7,12
1530692430806156,24,0,-4,-4,-4,-4,19,56
1530692430829094,72,-15,-10,-5,-4,-9,-15,83
1530692430829094,23,23,8,2,1,6,6,56
1530692430830092,-30,-8,-7,-1,2,2,-3,7
1530692430830092,14,2,2,0,0,-4,-4,2
1530692430852033,-4,13,5,2,2,17,32,-42
1530692430852033,28,28,9,5,4,-13,-37,-94
1530692430852033,-26,-13,-2,-2,-5,-11,2,39
1530692430852033,-37,12,3,0,3,-1,-17,-72
1530692430865996,12,-38,-9,-4,0,33,21,-6
1530692430865996,-44,-19,-6,-5,-7,-24,14,-6
1530692430866993,16,1,1,1,4,9,11,25
1530692430866993,6,20,0,-1,-3,5,-9,42
1530692430888934,9,-51,-13,-7,-9,-18,4,-41
1530692430888934,100,28,13,9,9,29,12,63
1530692430889932,-61,-9,-8,-4,-7,-10,-7,-27
1530692430889932,23,-4,2,0,-1,2,5,12
1530692430911873,-92,-35,-12,-9,-6,-16,-10,-76
1530692430911873,78,40,5,1,1,0,-6,15
1530692430912871,69,-22,-5,-1,-2,5,-1,-79
1530692430912871,-14,-19,-3,1,1,-1,-2,21
1530692430925836,37,43,8,4,3,-2,6,97
1530692430925836,14,-34,-13,-9,-9,-1,-5,-15
1530692430926833,-36,-1,-4,-1,-3,-1,-4,19
1530692430926833,-1,18,1,-3,-4,-3,5,26
1530692430948774,16,3,3,4,5,-6,-11,-16
1530692430948774,23,-7,-3,-4,-2,-1,8,5
1530692430949772,-25,7,-2,0,0,13,5,33
1530692430949772,-14,-18,-3,-2,-7,-32,-15,-34
1530692430971713,-46,11,9,3,1,7,3,3
1530692430971713,-33,6,-2,-3,-4,1,-11,-80
1530692430972711,-31,-11,0,-2,1,47,18,49
1530692430972711,-51,-20,1,2,2,-68,-9,-17
1530692430985676,53,45,7,0,-1,-2,-9,56
1530692430985676,96,-72,-22,-10,-5,15,38,113
1530692430986673,20,34,9,4,2,-5,-22,56
1530692430986673,35,-14,-5,-1,-3,18,-8,-61
1530692431008614,-98,-30,-12,-7,-5,-22,-13,-4
1530692431008614,-48,25,7,6,4,5,11,25
1530692431009612,72,6,-4,-2,-1,-12,-6,5
1530692431009612,-4,-2,-5,-4,0,17,9,30
1530692431031553,-19,-9,2,4,-3,-22,-24,-71
1530692431031553,-41,42,4,0,4,14,-4,-88
1530692431032551,52,-38,-8,-2,-5,-10,-4,-47
1530692431032551,-88,10,-5,-5,-5,5,-3,31
1530692431045515,-27,-7,-6,-1,1,12,-18,37
1530692431045515,-47,0,-2,-2,-7,-17,-3,-78
1530692431046513,-36,-29,10,5,0,-6,17,127
1530692431046513,76,21,1,2,3,-8,-1,-1
1530692431069451,61,14,-1,-4,-4,0,1,6
1530692431069451,-36,-12,-2,-2,1,-5,-26,-11
1530692431069451,43,-1,-1,-1,1,4,16,14
1530692431069451,52,23,9,2,1,-9,-4,-3
1530692431091393,3,6,-3,2,-1,-13,-31,-60
1530692431091393,55,24,7,5,5,10,7,-26
1530692431092390,27,5,5,0,0,-9,5,-5
1530692431092390,109,29,-5,-4,-5,32,7,31
1530692431106353,-11,-22,-6,-1,3,-1,25,17
1530692431106353,-9,0,-1,-1,-5,-14,-5,30
1530692431106353,-79,-45,-17,-11,-8,2,-25,-104
1530692431106353,73,35,18,11,11,19,31,117
1530692431129291,-30,-49,-7,-4,-5,-21,-21,-73
1530692431129291,0,23,-8,-6,-1,10,-13,-19
1530692431130289,21,-24,-8,-7,-2,-21,-13,-78
1530692431130289,-27,5,4,2,0,24,-9,-37
1530692431151233,-2,4,4,0,-4,-18,31,-25
1530692431151233,-109,-51,-3,1,2,2,1,8
1530692431152231,57,76,11,3,2,-2,-5,5
1530692431152231,35,8,17,7,9,2,17,30
1530692431166193,-34,-59,-24,-5,0,12,-11,-75
1530692431166193,113,94,35,14,8,7,20,119
1530692431166193,-80,-85,-42,-19,-18,-24,-17,-6
1530692431166193,-57,-29,-2,-4,-1,11,5,-64
1530692431189131,127,71,-1,2,2,18,35,92
1530692431189131,5,-16,6,1,-3,-9,-11,26
1530692431190129,-8,-1,16,8,1,-1,-2,9
1530692431190129,-103,28,-10,-5,-6,-9,-17,-26
1530692431211073,-39,-70,-9,-3,1,-6,-4,-13
1530692431211073,-14,23,-18,-13,-10,-8,-14,-85
1530692431212070,48,5,12,10,9,16,18,-5
1530692431212070,-53,-19,-1,-5,-6,-9,-10,-13
1530692431226033,-80,-11,2,3,3,9,-6,-28
1530692431226033,-90,15,-2,-2,-4,-12,-9,-30
1530692431227030,70,6,8,2,5,35,-9,17
1530692431227030,-46,31,17,11,8,-45,-3,-23
1530692431248972,-5,-14,-3,-5,-7,-22,-7,-37
1530692431248972,106,-14,7,2,4,9,-5,88
1530692431249969,-123,-20,-10,-9,-5,-21,2,-29
1530692431249969,-10,-34,-29,-13,-11,20,-15,-20
1530692431271910,127,83,32,11,8,15,12,101
1530692431271910,-74,-39,-31,-13,-8,-11,-9,33
1530692431271910,22,27,18,7,4,27,-14,15
1530692431271910,59,51,9,4,3,-22,2,60
1530692431285873,88,-17,-14,-9,-10,-30,-14,-89
1530692431285873,56,-20,6,3,1,6,12,67
1530692431286870,48,46,4,0,-1,-6,-10,29
1530692431286870,62,-24,0,5,6,24,3,-91
1530692431308811,-27,57,-1,-3,-3,11,0,34
1530692431308811,-50,-46,-6,-2,0,-7,-5,28
1530692431309809,24,10,4,3,-1,-12,3,-42
1530692431309809,56,-45,-12,-6,-6,2,-5,-62
1530692431331750,-1,27,3,3,4,0,7,61
1530692431331750,-56,5,-6,-8,-4,1,12,-105
1530692431332748,-128,-79,-19,-6,-4,13,-5,-53
1530692431332748,26,3,-1,-3,-3,-10,-6,-58
1530692431344715,74,2,8,6,6,27,11,62
1530692431344715,127,13,-1,-2,-1,-10,14,59
1530692431353691,11,21,-2,-4,-5,-21,-8,13
1530692431353691,10,-26,-3,2,6,36,14,12
1530692431368651,75,42,10,2,-2,-19,-17,18
1530692431368651,4,53,14,8,3,0,14,-33
1530692431369649,-39,-71,-32,-14,-6,-27,-23,-53
1530692431369649,89,-13,-9,-4,-5,24,5,127
1530692431391590,-14,13,13,0,0,4,6,-14
1530692431391590,49,-24,-7,0,-1,3,-10,-72
1530692431392587,103,40,14,8,4,-4,19,127
1530692431392587,-102,-4,-9,-8,-10,-17,-24,-90
1530692431405553,-19,-74,-9,1,5,9,-11,45
1530692431405553,-39,24,6,2,-1,-6,6,47
1530692431413531,119,11,5,1,1,-14,1,8
1530692431413531,-19,7,3,2,5,44,13,21
1530692431428491,6,-9,-6,-4,-7,-33,2,3
1530692431428491,-73,-67,-15,-5,-3,-5,-15,-25
1530692431429489,111,79,14,7,4,30,29,96
1530692431429489,-10,-13,7,1,-2,-37,-14,-62
1530692431451430,-42,-5,-4,-1,2,24,-2,15
1530692431451430,98,-18,3,-1,2,-4,0,72
1530692431452428,-84,-9,-16,-6,-7,5,-13,-10
1530692431452428,54,59,13,7,6,-2,16,74
1530692431465393,95,-2,-8,-4,-5,5,3,5
1530692431465393,112,20,-2,1,-4,0,9,-1
1530692431473371,50,70,38,14,12,-4,12,35
1530692431473371,-64,-109,-40,-16,-12,-15,-28,-34
1530692431488331,57,25,8,4,3,-5,-2,0
1530692431488331,7,52,7,4,3,6,1,-30
1530692431489329,31,-11,-7,-3,-5,-7,6,49
1530692431489329,-54,-21,2,0,2,7,10,-24
1530692431511270,-73,0,3,-1,-1,8,-1,-47
1530692431511270,2,-34,-5,-2,1,6,-16,-73
1530692431512268,-50,-34,-4,3,-1,-24,-13,-7
1530692431512268,31,31,5,-2,0,-16,-2,42
1530692431525233,-67,-54,-7,-2,-5,11,-15,-90
1530692431525233,61,61,11,5,2,9,1,32
1530692431533211,-81,-65,-7,-7,-2,-44,-1,-87
1530692431533211,84,25,-14,-6,-5,2,0,44
1530692431548172,51,-8,4,3,2,10,13,26
1530692431548172,-57,-8,-4,-4,-2,4,-2,5
1530692431549169,37,10,6,4,1,2,-11,-87
1530692431549169,-4,2,7,0,2,1,7,-36
1530692431571110,-103,-7,-1,2,1,-18,1,8
1530692431571110,77,20,5,2,2,18,-5,38
1530692431572107,-124,-13,-12,-7,-5,-1,6,-44
1530692431572107,116,23,8,4,0,13,11,6
1530692431585073,-48,-32,-6,-4,-5,-4,-12,-16
1530692431585073,-55,-23,-6,-4,-2,-6,-10,-20
1530692431593051,29,47,5,2,3,16,23,80
1530692431593051,8,27,11,8,4,-7,-13,-21
1530692431608011,-57,-25,-15,-11,-5,2,-20,-64
1530692431608011,-97,-16,-3,-2,-11,-31,0,0
1530692431609009,105,21,-11,-6,-3,7,11,68
1530692431609009,-9,-4,6,3,0,-4,9,-24
1530692431631947,127,57,14,6,8,14,5,47
1530692431631947,-107,-47,-15,-9,-8,-21,-11,-28
1530692431631947,78,8,0,2,2,17,1,8
1530692431631947,64,0,5,2,3,12,-16,58
1530692431644913,48,11,2,5,1,-53,-5,55
1530692431644913,18,-62,-6,-6,-1,5,10,-44
1530692431652891,-94,3,-1,-1,-5,2,-4,7
1530692431652891,-5,-18,-6,-2,1,-3,7,35
1530692431668849,-72,-13,-7,-5,-6,21,12,-19
1530692431668849,7,15,3,2,1,-2,-10,-60
1530692431668849,89,30,13,4,7,5,1,1
1530692431668849,-47,-27,-10,-6,-8,-15,-9,-1
1530692431691787,69,8,-7,-5,-4,-1,-1,81
1530692431691787,26,9,-1,-2,-2,11,24,21
1530692431692785,61,-4,5,4,5,9,-14,-100
1530692431692785,107,25,-10,-8,-10,-5,19,20
1530692431713729,3,-17,-4,-2,-6,-43,-19,20
1530692431713729,-6,-19,5,5,2,14,6,84
1530692431714726,-18,-28,-8,-5,-4,3,-9,-47
1530692431714726,-49,-15,2,2,2,4,2,-5
1530692431728689,69,59,11,4,5,13,3,4
1530692431728689,-49,-70,-18,-7,-7,-7,-19,-51
1530692431728689,4,20,3,-2,1,0,14,80
1530692431728689,-99,-33,-6,0,0,-16,-11,5
1530692431751627,0,50,10,-2,-2,55,9,0
1530692431751627,125,-12,-1,6,5,-55,4,64
1530692431752625,-55,-13,-10,-8,-8,-3,7,102
1530692431752625,-7,9,3,0,2,-4,8,-29
1530692431773569,-108,-16,3,-1,1,8,-12,-19
1530692431773569,116,19,5,6,1,20,14,-24
1530692431775564,-10,27,-1,1,-1,0,1,-34
1530692431775564,15,0,7,6,3,-9,-7,-3
1530692431788529,-95,-25,-20,-8,-5,-6,1,26
1530692431788529,21,27,6,-1,1,13,-6,-68
1530692431789527,26,-8,3,3,1,1,9,122
1530692431789527,-10,-39,-9,-7,-7,-2,-12,31
1530692431811467,57,36,11,8,8,-3,7,1
1530692431811467,-71,-29,-8,-6,-6,-8,6,5
1530692431812465,38,21,1,-1,-2,-8,-19,-119
1530692431812465,100,50,10,3,2,30,28,89
1530692431834406,-40,-18,-9,-2,-2,-32,-5,-64
1530692431834406,10,24,-9,-5,-1,-1,-5,95
1530692431834406,-27,-9,-2,-3,-4,6,5,23
1530692431834406,38,-2,5,1,-1,-10,-18,-20
1530692431848369,7,6,1,1,4,11,3,54
1530692431848369,74,43,2,3,0,16,9,50
1530692431849366,-22,-8,-1,-2,-3,-28,-16,57
1530692431849366,-12,-8,-4,-1,-1,15,8,52
1530692431871307,13,12,8,3,4,10,12,31
1530692431871307,-77,-32,3,0,1,0,-22,-104
1530692431872305,62,0,-11,-6,-4,7,12,54
1530692431872305,-22,-9,-13,-8,-10,-27,-12,-26
1530692431894246,127,-11,-1,0,-2,25,22,26
1530692431894246,82,42,12,5,5,-12,-18,60
1530692431895244,50,48,9,4,5,-4,-10,-43
1530692431895244,-128,-81,-27,-9,-6,-12,-5,-93
1530692431908208,27,13,8,3,-3,61,12,-27
1530692431908208,23,19,-1,0,-2,-57,-3,12
1530692431909206,-26,-2,4,2,5,7,14,44
1530692431909206,-73,-26,-12,-8,-5,-10,-27,64
1530692431931147,-14,-2,-19,-10,-5,-4,-12,-60
1530692431931147,15,-32,-2,-3,-3,20,9,32
1530692431932145,-44,-29,-1,1,-1,-3,-5,-17
1530692431932145,88,60,12,3,0,4,11,57
1530692431954086,-3,-83,-14,-3,-2,-15,-15,-21
1530692431954086,-40,34,4,-1,-4,10,6,14
1530692431955083,-14,-15,-4,-3,0,-3,15,32
1530692431955083,-8,5,4,2,3,5,-19,-24
1530692431968049,26,34,8,2,-1,-25,1,10
1530692431968049,-9,-15,0,3,3,19,9,-42
1530692431969046,62,-26,-6,-3,-3,2,-11,4
1530692431969046,-22,8,1,2,1,11,13,-22
1530692431991985,39,20,4,3,2,-21,-3,-5
1530692431991985,66,37,14,8,5,11,15,72
1530692431991985,-123,-72,-19,-8,-7,0,-8,-83
1530692431991985,66,30,7,1,4,6,-22,-65
1530692432013926,-96,-4,0,-2,-4,-18,14,49
1530692432013926,-67,-27,-8,-3,2,12,5,-109
1530692432014923,100,19,4,1,-1,-3,-19,-43
1530692432014923,92,54,3,1,1,-12,5,31
1530692432027888,51,-22,4,6,1,1,-2,55
1530692432027888,-88,-11,2,0,-2,-6,-32,-31
1530692432028886,-34,-16,-3,0,1,2,14,-42
1530692432028886,-7,-7,-3,-5,-4,-2,3,21
1530692432051824,52,31,6,3,3,8,1,46
1530692432051824,-56,-35,-15,-11,-9,-12,-10,-25
1530692432052822,50,12,3,4,3,-1,0,8
1530692432052822,17,-17,1,2,-1,7,-3,-106
1530692432073766,-5,-17,-4,-1,0,3,0,0
1530692432073766,24,18,1,-2,1,-1,1,3
1530692432074763,-82,-12,2,-1,-1,-4,4,43
1530692432074763,-68,-8,-8,-4,-4,-12,-3,-2
1530692432088726,43,-3,-3,-3,-3,-6,-1,-51
1530692432088726,-48,-3,-8,-6,-3,-5,-6,-34
1530692432088726,29,19,6,2,2,5,-6,68
1530692432088726,123,-36,1,5,4,35,29,-14
1530692432111664,53,30,4,-4,-3,-18,8,23
1530692432111664,87,8,3,1,-1,4,-12,27
1530692432112662,-42,-16,-6,-1,-3,-2,5,42
1530692432112662,-19,23,1,-1,-5,-15,-11,47
1530692432133606,-8,-24,-5,0,2,6,-5,-8
1530692432133606,60,-5,-3,-3,-9,-6,1,-39
1530692432134603,9,28,3,1,-3,-6,-6,-47
1530692432134603,38,25,0,0,2,-10,1,30
1530692432148566,19,-3,1,1,1,10,0,-27
1530692432148566,-33,-31,0,2,4,27,18,102
1530692432149563,-25,-11,-11,-9,-8,-29,-25,-61
1530692432149563,1,16,10,6,4,9,12,48
1530692432171504,-1,-15,-6,-7,-6,-22,-14,-4
1530692432171504,36,38,0,1,3,16,-3,-31
1530692432172502,41,2,1,3,2,17,24,-29
1530692432172502,-58,-19,-6,-4,1,-3,-4,-44
1530692432194443,101,37,14,7,0,6,-1,62
1530692432194443,-91,1,-4,-2,-5,-5,-6,-42
1530692432194443,74,-21,-5,0,1,-12,-7,8
1530692432194443,108,24,17,5,2,-7,1,47
1530692432208405,-74,0,-4,-2,-1,-7,-20,-90
1530692432208405,91,-61,-5,2,3,7,19,-11
1530692432209403,-83,64,-9,-11,-9,-10,-13,-43
1530692432209403,93,-12,-2,-1,-2,-2,1,11
1530692432231344,38,13,6,4,2,1,8,11
1530692432231344,-38,3,2,0,4,24,-2,13
1530692432232342,95,-17,-2,-1,-5,-14,-6,-56
1530692432232342,-128,-7,-7,-2,-1,8,6,12
1530692432254283,-25,5,-3,-1,-3,-5,-16,1
1530692432254283,11,12,1,-2,-2,-20,-4,45
1530692432255280,-12,14,10,5,10,18,15,0
1530692432255280,-60,-58,-13,-3,0,13,2,71
1530692432267248,-27,-24,-6,-2,-2,-6,-2,-22
1530692432267248,13,12,2,2,-1,50,2,11
1530692432276224,31,21,5,0,0,-70,-5,79
1530692432276224,19,-18,-9,-6,-2,-9,12,-29
1530692432291184,-62,15,1,0,-1,6,14,-27
1530692432291184,56,1,3,1,-2,-32,-36,31
1530692432298166,-29,-76,-11,0,-5,30,23,69
1530692432298166,94,40,5,2,-1,-5,-1,-15
1530692432314123,-6,-37,-12,-6,-3,-21,-2,-7
1530692432314123,23,56,16,8,10,-8,6,-8
1530692432315121,14,-46,-6,-5,3,26,-12,-95
1530692432315121,30,86,2,2,8,2,-12,-64
1530692432328085,92,-11,3,1,-2,28,30,70
1530692432328085,-25,-29,-12,-8,-14,-43,-21,37
1530692432336064,95,-13,1,6,10,15,4,19
1530692432336064,54,34,-1,-6,-15,-7,-23,28
1530692432352022,44,56,15,5,-1,22,0,21
1530692432352022,-36,-76,-15,-4,3,-12,15,-22
1530692432352022,-22,9,2,0,-3,7,-1,-52
1530692432352022,-103,-42,-1,-4,4,-7,-15,-69
1530692432373963,-76,1,-7,-2,0,-8,19,69
1530692432373963,23,6,2,-1,6,24,-8,6
1530692432374961,63,13,2,0,-4,4,-14,76
1530692432374961,-47,-21,0,0,-3,-5,30,16
1530692432387925,9,8,-2,-2,-7,14,-9,-14
1530692432387925,-7,-9,-4,0,2,-11,0,-26
1530692432395904,-15,24,0,-1,0,11,0,-12
1530692432395904,-27,-9,2,3,1,0,-5,-31
1530692432411861,-10,-22,-5,-2,2,-12,-15,6
1530692432411861,29,23,5,2,-2,9,12,-39
1530692432412859,-72,-25,-11,-9,-7,-24,-9,52
1530692432412859,127,15,-2,-4,-5,-12,-9,0
1530692432433803,-128,-73,-17,-6,0,-2,-29,-60
1530692432433803,81,34,-6,-5,-4,-4,3,91
1530692432434800,30,16,9,6,-1,14,3,-25
1530692432434800,-86,-35,3,3,4,0,-10,-14
1530692432447766,45,57,1,-2,2,14,26,112
1530692432447766,-11,-26,2,0,0,2,11,-3
1530692432455744,-23,11,-1,-4,-3,8,7,-32
1530692432455744,71,-5,5,3,1,-22,-9,16
1530692432471701,12,-3,4,4,6,57,14,16
1530692432471701,100,46,6,4,-1,-78,-24,-12
1530692432472699,87,13,-2,-2,-2,46,34,104
1530692432472699,-128,-35,-19,-11,-7,-11,-24,-47
1530692432493643,81,-21,2,0,-1,-5,1,28
1530692432493643,-119,-8,-3,-3,-2,16,18,-60
1530692432494640,32,38,5,3,0,-24,-5,77
1530692432494640,17,32,6,1,4,32,6,-52
1530692432507605,23,-67,-11,-6,-1,-17,-22,-16
1530692432507605,-128,1,-1,-4,-9,-12,4,69
1530692432515584,92,17,5,-1,1,-15,-25,-122
1530692432515584,53,-27,-4,0,-1,10,26,29
1530692432530544,-104,28,-3,-4,-3,-19,-13,-94
1530692432530544,81,-25,-7,-4,0,25,9,76
1530692432539520,-103,-18,0,1,-1,-13,-6,70
1530692432539520,37,-6,-4,-2,-6,-6,-1,24
1530692432554480,4,30,12,3,4,-6,4,36
1530692432554480,106,28,0,3,1,34,13,-22
1530692432555478,-116,-39,-8,-3,-4,-59,-27,-117
1530692432555478,93,36,1,-1,2,-2,-2,-19
1530692432567446,62,31,11,5,0,5,23,99
1530692432567446,-71,-32,-10,-6,-7,8,-20,-51
1530692432576422,-1,-28,-1,0,0,10,18,57
1530692432576422,-75,40,14,7,3,3,-3,99
1530692432590384,67,41,-3,-3,-1,-10,-7,-2
1530692432590384,-27,-13,9,8,7,3,2,-86
1530692432599360,61,-4,-16,-10,-13,-5,-12,-43
1530692432599360,-19,-36,-2,-3,-3,-9,5,14
1530692432614320,-9,3,-4,-4,-1,11,-9,-28
1530692432614320,32,30,7,2,1,-39,10,34
1530692432615318,11,20,10,6,5,22,10,-8
1530692432615318,-30,-28,-5,-1,-2,0,-15,-75
1530692432636262,-17,18,0,1,5,-10,-3,-16
1530692432636262,13,-5,-6,-8,-21,0,-12,-44
1530692432638256,-29,6,8,2,10,14,6,24
1530692432638256,108,68,10,2,6,0,10,11
1530692432650224,-90,-128,-38,-14,-15,0,-11,42
1530692432650224,107,89,16,4,8,-10,-10,77
1530692432659200,-59,-79,-19,-7,-9,0,-13,-26
1530692432659200,7,-20,-10,-5,-6,2,12,50
1530692432674160,-84,-5,12,7,8,3,27,49
1530692432674160,66,-50,-20,-9,-6,-7,-13,98
1530692432676155,65,29,4,2,-3,-13,-4,34
1530692432676155,35,6,9,3,3,-7,10,18
1530692432696102,-3,15,5,-3,-3,-25,-14,-30
1530692432696102,76,-19,-10,-3,0,8,14,17
1530692432698096,-40,28,16,6,10,26,7,-45
1530692432698096,-56,-42,-9,-1,0,16,-23,-70
1530692432710064,-11,40,4,-3,-8,28,27,-24
1530692432710064,-74,4,7,3,3,-42,-32,-71
1530692432719040,86,76,-7,-9,-1,43,4,77
1530692432719040,31,-3,-12,-2,-7,-43,-9,-5
1530692432734000,27,15,9,4,5,19,-10,37
1530692432734000,25,0,-2,-4,-7,-14,7,-17
1530692432735995,-30,5,5,3,0,-18,-4,-58
1530692432735995,-20,0,5,1,8,51,23,35
1530692432756939,42,-17,-7,-3,-3,-29,-20,-72
1530692432756939,-18,15,1,0,5,33,6,-27
1530692432757936,3,-11,0,2,2,5,7,103
1530692432757936,32,21,-3,-2,-14,-8,14,5
1530692432769904,-4,-21,-8,-2,4,-7,3,15
1530692432769904,-33,-12,3,3,8,13,6,-3
1530692432778881,74,19,10,2,1,-2,1,-11
1530692432778881,-97,1,-9,-5,-2,-9,-12,36
1530692432793840,84,-44,4,-2,-8,-3,-23,-55
1530692432793840,96,105,18,9,7,23,30,74
1530692432795835,-21,-89,-18,-5,-4,-28,-22,-77
1530692432795835,-20,13,6,-2,2,22,-8,83
1530692432816779,31,49,7,4,2,-14,-4,-22
1530692432816779,-69,-53,1,2,1,-10,-24,-48
1530692432817776,-122,-49,-30,-15,-17,-9,-6,-41
1530692432817776,117,22,21,8,5,-13,4,33
1530692432829744,-47,37,-8,-5,1,36,8,-78
1530692432829744,-117,-55,-13,-5,-4,-52,-5,16
1530692432838720,75,26,2,-1,4,8,14,53
1530692432838720,71,25,6,4,1,-7,-3,-43
1530692432853680,-53,-58,-19,-8,-8,-20,-4,-28
1530692432853680,-37,-58,-6,-4,-11,55,-12,17
1530692432855675,22,27,14,4,3,-23,12,53
1530692432855675,123,-12,-11,-4,4,3,14,62
1530692432876619,101,18,8,7,11,-15,4,85
1530692432876619,41,61,10,4,-2,-7,-25,-23
1530692432878613,-34,17,9,3,1,5,15,-10
1530692432878613,-2,-44,-8,-6,-6,-9,-18,2
1530692432898560,39,10,9,6,3,48,5,88
1530692432898560,-63,-48,-24,-12,-8,-73,-6,-99
1530692432900555,116,56,6,3,-3,12,2,-60
1530692432900555,65,7,5,5,2,15,17,63
1530692432914517,88,-41,-6,-3,-4,-15,6,41
1530692432914517,20,39,4,-3,-2,13,7,3
1530692432915515,-71,9,3,5,5,3,2,83
1530692432915515,-128,-37,-15,-9,-9,-31,-16,-40
1530692432936459,15,-1,5,3,2,9,9,41
1530692432936459,11,-4,-5,-3,1,21,16,88
1530692432938453,-46,16,-6,-4,-3,-7,-10,12
1530692432938453,44,-12,3,-1,0,-10,-3,-93
1530692432950421,5,9,-6,-4,-3,19,6,14
1530692432950421,-31,-27,-9,-5,-1,-26,-4,24
1530692432959397,42,16,5,-2,-6,-11,-26,-99
1530692432959397,53,-9,11,11,16,50,26,53
1530692432974357,-128,-29,-19,-7,-11,-61,-41,-30
1530692432974357,15,3,-5,-6,-9,14,-12,-2
1530692432975355,95,-26,6,5,10,4,10,117
1530692432975355,-61,17,-5,-3,-9,-12,4,-21
1530692432996299,127,33,7,3,4,14,3,66
1530692432996299,29,53,8,3,3,21,10,11
1530692432998293,46,-55,-12,-5,-6,-22,-15,-21
1530692432998293,-55,1,-3,-2,-1,5,-14,-32
1530692433010261,-72,-53,-10,-4,-2,-16,1,-81
1530692433010261,56,46,19,8,7,5,12,33
1530692433019238,85,-18,0,-3,-4,15,1,-36
1530692433019238,-64,-11,-4,3,0,-11,-1,-40
1530692433034197,31,-8,-4,-2,-3,-8,-8,14
1530692433034197,96,-38,-4,-2,-1,18,24,-68
1530692433035195,-41,51,0,-1,1,17,-8,1
1530692433035195,-66,-3,-1,1,-1,-72,-17,12
1530692433056138,28,8,6,0,-7,-4,-8,-18
1530692433056138,-10,-2,8,7,14,35,12,38
1530692433058133,36,17,-11,-7,-16,-30,-9,-54
1530692433058133,-84,-29,-4,0,1,33,4,15
1530692433070101,-29,1,-3,-3,-4,-46,-39,-91
1530692433070101,4,-2,1,0,1,-7,-4,14
1530692433079078,-24,-10,3,4,8,16,27,14
1530692433079078,33,60,5,-1,-5,8,1,48
1530692433094037,-58,-11,-3,0,-2,-2,8,-94
1530692433094037,-27,7,-2,-2,-3,12,-5,-39
1530692433096032,-121,-51,-5,-2,-1,-30,-31,-76
1530692433096032,-48,-10,-4,-5,-2,45,28,-23
1530692433116976,27,6,2,4,5,-13,-15,55
1530692433116976,29,-26,-3,0,-3,7,-5,-21
1530692433117973,-20,39,11,4,4,3,9,37
1530692433117973,68,-13,-12,-7,-4,3,-16,-67
1530692433129941,-15,36,3,-4,-5,11,23,40
1530692433129941,6,-82,-17,-3,-2,-15,-6,43
1530692433138917,56,29,10,4,6,20,5,44
1530692433138917,103,-7,-7,-4,-3,-5,-7,-48
1530692433153877,27,-5,9,5,4,5,10,-61
1530692433153877,53,28,-13,-10,-14,-17,-33,-74
1530692433155872,72,41,9,2,3,11,9,49
1530692433155872,23,34,14,2,2,-13,1,117
1530692433176816,30,-64,-13,-3,-2,-3,9,40
1530692433176816,-126,-17,-2,-4,-3,1,7,46
1530692433177813,-40,-29,-11,-5,-2,37,21,33
1530692433177813,-34,23,5,0,-4,-68,-17,-20
1530692433189781,-10,29,4,2,7,26,16,-9
1530692433189781,-15,-20,-7,0,5,-9,-2,-15
1530692433198757,55,-5,-12,-11,-18,-23,-17,86
1530692433198757,-41,-13,0,3,2,24,17,0
1530692433213717,-3,48,1,-4,-8,-24,-5,-83
1530692433213717,127,42,16,9,11,35,23,-1
1530692433215712,-29,-89,-34,-17,-16,-36,-20,-60
1530692433215712,0,-15,-2,3,2,10,-23,-77
1530692433236655,76,39,6,1,3,-4,-5,79
1530692433236655,54,37,14,10,5,7,14,34
1530692433238651,-51,-39,-6,-1,2,4,10,-20
1530692433238651,-26,-12,-9,-4,-2,21,1,29
1530692433250618,99,-26,-4,-2,-1,-17,-11,-4
1530692433250618,-128,-41,-11,-8,-7,8,8,31
1530692433259595,-101,2,1,1,3,-13,8,11
1530692433259595,124,7,-7,-5,-3,5,4,34
1530692433274554,-62,3,2,3,-1,18,3,29
1530692433274554,-44,16,3,-4,-9,-15,-4,-27
1530692433275552,77,-3,9,7,7,-6,-7,26
1530692433275552,-55,-46,-20,-15,-9,3,-19,-40
1530692433296496,-5,27,2,2,2,12,6,46
1530692433296496,17,0,-5,-2,-1,2,1,75
1530692433298490,-39,14,6,0,-2,-5,-8,-46
1530692433298490,-9,23,10,6,9,25,15,50
1530692433310458,-21,-24,-5,-3,-5,-25,-11,-80
1530692433310458,25,18,1,-2,1,-2,-11,-71
1530692433319435,72,12,8,2,6,-10,16,-14
1530692433319435,80,-45,-3,4,2,11,9,59
1530692433334394,29,16,-1,1,-1,10,6,97
1530692433334394,73,19,6,5,3,12,-4,-81
1530692433335392,52,7,-1,-1,2,8,-1,-19
1530692433335392,-35,13,6,0,-3,-20,11,-1
1530692433356336,61,29,12,6,6,19,23,26
1530692433356336,-76,-82,-18,-5,-5,-15,-7,-4
1530692433358331,-46,29,-4,-3,-2,4,-22,-7
1530692433358331,17,33,5,2,4,4,9,6
1530692433370298,-9,-7,5,2,1,-9,-11,-104
1530692433370298,24,3,-5,-6,-6,-10,-1,89
1530692433379275,18,-5,0,-1,0,9,15,46
1530692433379275,-127,-15,-2,-2,-1,-5,0,43
1530692433394234,-41,-2,2,-3,-4,-9,-14,-66
1530692433394234,24,33,0,2,3,13,1,80
1530692433395232,-36,-30,-3,-1,-1,50,-6,-38
1530692433395232,21,12,8,1,-4,-90,-13,21
1530692433416176,-59,-27,-10,-3,-2,13,2,55
1530692433416176,25,35,-8,-7,-7,-11,-6,47
1530692433418171,-35,-38,3,4,4,-4,-15,-21
1530692433418171,89,20,8,4,6,27,6,-12
1530692433430138,49,14,-1,-3,-3,10,7,58
1530692433430138,0,-5,-1,3,1,-40,-9,50
1530692433439114,74,21,11,4,1,-4,14,-10
1530692433439114,-16,20,-6,-4,-5,9,3,74
1530692433453077,37,-28,-4,-2,3,2,-13,-65
1530692433453077,81,28,18,7,7,14,18,63
1530692433462053,-73,-66,-17,-9,-13,-13,-14,-50
1530692433462053,85,31,-6,-3,-3,0,4,16
1530692433477013,-12,22,4,0,-3,-20,-15,-15
1530692433477013,2,-33,3,2,3,17,18,-30
1530692433478011,38,27,0,2,5,-7,2,24
1530692433478011,20,26,5,1,-5,-8,-11,-53
1530692433489978,-128,-41,-12,-7,-4,5,5,-18
1530692433489978,31,-18,0,-3,-4,-16,-16,-112
1530692433498954,-7,28,-1,0,1,49,8,29
1530692433498954,16,6,5,1,1,-38,8,43
1530692433512917,-2,-17,-3,1,-1,0,-5,35
1530692433512917,-40,-30,-6,-3,2,2,4,32
1530692433519898,-98,25,-2,-1,-7,-8,4,13
1530692433519898,-39,-30,-3,-1,-1,12,-22,-20
1530692433536853,72,33,4,1,0,12,4,45
1530692433536853,-10,-16,-2,-1,-3,-10,-12,-93
1530692433537851,99,47,0,-5,-2,-15,8,92
1530692433537851,-60,-36,-5,-3,-1,7,4,-64
1530692433549818,-21,27,6,3,4,1,-1,17
1530692433549818,-94,-8,-10,-6,-5,3,7,-44
1530692433558794,127,54,17,7,6,12,-2,61
1530692433558794,-19,-76,-19,-8,-9,-20,-8,-50
1530692433573754,37,15,3,0,2,27,29,37
1530692433573754,76,12,5,3,1,-18,-18,-27
1530692433579739,-85,-3,-3,-2,-1,6,1,0
1530692433579739,3,12,4,1,1,23,-2,-26
1530692433596693,57,-3,-1,-2,2,-41,-4,-35
1530692433596693,-7,-8,-4,-5,-3,2,-3,0
1530692433598688,-16,-35,-5,2,5,-12,18,-70
1530692433598688,55,9,0,0,-3,-5,-25,44
1530692433618634,-102,31,-11,-3,-5,17,19,57
1530692433618634,-7,28,2,-3,-4,-17,1,67
1530692433620629,75,5,1,3,2,4,6,-34
1530692433620629,15,-22,-9,-5,0,19,6,39
1530692433633594,44,-5,5,3,-3,-24,-15,17
1530692433633594,28,42,4,0,5,18,14,76
1530692433640575,-40,-18,-12,-5,-9,-21,-13,-71
1530692433640575,20,25,11,3,3,-2,-1,2
1530692433656533,-20,-39,-9,-5,-3,60,-11,20
1530692433656533,-4,30,10,4,3,-53,-13,67
1530692433658528,14,-27,-10,-4,1,9,10,-16
1530692433658528,82,25,1,-1,-3,-11,-26,-103
1530692433679472,-85,-13,8,0,-2,0,-10,-128
1530692433679472,26,11,-11,-4,3,6,-4,-24
1530692433680469,4,-14,2,1,-2,-8,23,-4
1530692433680469,15,-32,-17,-9,-10,-28,-34,-44
1530692433693434,73,48,10,1,3,-10,-3,-25
1530692433693434,59,-28,-4,-1,3,73,11,54
1530692433700415,-102,-33,-21,-14,-10,-77,-40,-65
1530692433700415,22,1,3,5,2,29,2,22
1530692433716373,93,-10,4,-1,-9,-50,-4,-16
1530692433716373,-12,10,4,1,-5,-5,7,-54
1530692433718368,0,52,14,3,1,12,-34,31
1530692433718368,-8,-36,-4,2,5,26,26,93
1530692433739311,22,9,-3,-2,-2,-22,-14,1
1530692433739311,-28,-46,0,4,2,3,9,23
1530692433740309,33,50,0,-4,-5,12,-14,-31
1530692433740309,19,-29,-2,-1,0,-13,9,48
1530692433752277,-116,-13,-4,0,2,7,3,35
1530692433752277,-57,2,9,5,1,3,-7,-41
1530692433761253,97,10,7,2,2,5,21,93
1530692433761253,40,29,-1,-3,1,10,10,39
1530692433776213,11,-56,-14,-4,0,-5,7,19
1530692433776213,41,55,10,1,-5,2,0,-74
1530692433778208,64,-11,-15,-5,-6,-11,-21,13
1530692433778208,-83,-22,-3,1,4,8,29,-69
1530692433799152,94,34,2,-3,-1,-2,-15,-29
1530692433799152,-56,-15,-3,0,-2,-4,6,18
1530692433801146,62,-12,6,5,3,2,7,-1
1530692433801146,-75,34,1,-4,-6,-1,6,-31
1530692433813114,99,-29,-10,1,4,13,-6,34
1530692433813114,-93,-29,-3,-4,-9,-27,-6,-2
1530692433822090,14,20,11,4,5,16,11,94
1530692433822090,84,-3,-1,2,1,1,-10,62
1530692433837050,-41,-17,-3,-4,1,11,12,-39
1530692433837050,116,-14,-9,-3,-8,-8,3,20
1530692433838048,-71,-1,-1,-2,-2,4,6,33
1530692433838048,77,-18,-5,-3,-2,0,-6,13
1530692433858991,1,3,10,2,-1,8,12,29
1530692433858991,-14,13,-7,-3,-1,-31,-28,-44
1530692433860986,-15,-40,-1,0,0,82,12,-54
1530692433860986,-90,47,14,4,3,-78,-13,0
1530692433872954,107,41,19,8,4,3,17,68
1530692433872954,64,-69,-45,-23,-14,-7,-23,-5
1530692433881930,56,5,4,3,-1,-2,-1,-57
1530692433881930,77,33,2,0,-1,17,-12,-21
1530692433896890,39,-7,12,4,0,5,16,19
1530692433896890,-105,-35,-24,-13,-11,-18,-30,-53
1530692433897887,73,23,9,2,5,-10,4,48
1530692433897887,-76,-20,-4,-2,-1,18,-6,10
1530692433918832,-35,-1,-13,-7,-4,-14,-12,-48
1530692433918832,24,38,12,7,5,17,22,78
1530692433920826,-20,-46,-14,-4,-4,-10,12,90
1530692433920826,-69,-12,0,0,2,0,5,-57
1530692433932794,-87,4,-6,-4,-4,-3,-13,70
1530692433932794,-58,0,9,3,0,20,10,28
1530692433941770,72,38,13,6,3,-36,-4,34
1530692433941770,3,-13,-3,-3,2,93,29,23
1530692433956730,87,-76,-20,-7,-7,-86,-37,19
1530692433956730,121,51,7,3,1,4,-11,-83
1530692433957728,-62,7,4,3,2,-12,4,28
1530692433957728,108,56,11,3,-4,7,-7,53
1530692433978671,-128,-61,-19,-10,-8,8,-23,-128
1530692433978671,121,-1,5,5,5,5,5,-2
1530692433980667,-58,-6,5,-1,-6,-9,-8,19
1530692433980667,23,-17,-3,3,3,-14,-3,-33
1530692434001610,-25,15,1,1,3,21,23,44
1530692434001610,106,14,13,2,5,-11,12,62
1530692434003605,-12,21,-13,-9,-5,5,-17,-64
1530692434003605,-26,0,-3,-2,3,23,17,-4
1530692434016570,42,12,10,3,-7,-32,28,52
1530692434016570,-93,-26,-5,1,7,40,-1,-2
1530692434018565,-33,-9,4,1,-1,-50,-18,-39
1530692434018565,7,-21,-5,-4,-4,-4,12,-19
1530692434039509,127,66,6,5,6,8,-9,-95
1530692434039509,-126,-26,-4,-1,-2,-3,11,-10
1530692434040506,-19,23,-2,-3,-3,5,6,39
1530692434040506,-16,-56,-11,-2,-4,-2,0,-2
1530692434052474,-23,9,4,-2,2,-6,-5,22
1530692434052474,-21,1,3,2,0,3,-1,-15
1530692434061450,-11,-28,-7,-4,1,11,1,-67
1530692434061450,70,6,-1,0,1,-26,-7,57
1530692434076410,-107,-2,-10,-5,-3,17,-10,-25
1530692434076410,20,9,6,3,1,-2,-1,-33
1530692434078405,106,22,-4,-2,1,19,2,0
1530692434078405,-41,-70,-9,-5,-8,-31,3,-25
1530692434099349,63,-50,-9,0,0,3,3,16
1530692434099349,-47,13,5,-2,0,7,-2,21
1530692434100346,43,3,1,0,3,6,6,22
1530692434100346,-92,-3,-7,-7,-5,-3,-9,-8
1530692434112314,36,33,6,1,2,21,0,-67
1530692434112314,6,-28,-4,0,-4,-53,-7,37
1530692434121290,20,-36,-8,-3,1,5,3,44
1530692434121290,88,55,8,2,0,13,6,-29
1530692434136250,-94,-21,-11,-6,-8,-24,11,63
1530692434136250,47,21,5,3,3,8,-4,-34
1530692434138245,64,13,2,-1,-3,4,4,105
1530692434138245,-20,14,-1,1,0,-28,-4,74
1530692434159189,-59,-3,-1,-1,0,9,-3,-12
1530692434159189,48,-27,-1,1,-2,21,15,93
1530692434161183,-27,34,3,2,1,-8,-3,-94
1530692434161183,-17,-5,-2,-3,-2,-6,5,22
1530692434173151,35,14,-1,-2,2,15,2,-27
1530692434173151,47,-8,9,4,5,-3,-4,26
1530692434182128,-43,17,-3,-2,-8,-10,-4,-22
1530692434182128,6,-12,-5,-4,-3,7,-8,-128
1530692434196090,-82,-25,-8,-4,-1,12,-17,47
1530692434196090,87,31,1,-4,-2,-50,5,-3
1530692434198085,-80,-56,-14,-8,-5,-2,9,-85
1530692434198085,-56,5,5,6,3,-2,-20,-38
1530692434219029,118,23,3,2,-2,18,13,87
1530692434219029,-85,4,2,0,-2,2,-19,-73
1530692434221023,-95,-27,-4,-1,0,7,17,-1
1530692434221023,-19,-20,-6,-5,-5,-18,-10,38
1530692434232991,-22,22,-2,-6,-2,-6,-7,-70
1530692434232991,-50,-48,-10,-3,-1,28,21,81
1530692434241967,98,6,4,2,1,-11,-22,-92
1530692434241967,120,30,1,-2,2,9,12,109
1530692434256927,77,-17,7,6,0,-10,13,-33
1530692434256927,-78,-73,-32,-20,-15,-12,-22,-32
1530692434257925,49,5,2,3,2,1,-3,39
1530692434257925,16,40,8,2,0,47,4,-20
1530692434278868,50,27,3,1,-2,-35,-8,40
1530692434278868,-40,-23,-9,0,2,9,15,-1
1530692434280863,27,5,4,-1,-1,6,-5,104
1530692434280863,-13,23,-2,-3,-3,-2,-3,-45
1530692434292831,-16,-21,-5,-1,2,13,20,42
1530692434292831,-33,6,6,6,1,-3,-7,-82
