timestamp,emg1,emg2,emg3,emg4,emg5,emg6,emg7,emg8
1576753843287878,1,0,-3,-1,0,-2,0,0
1576753843287878,0,2,-2,-2,0,3,5,-2
1576753843288877,-3,-1,1,1,-1,-3,-2,1
1576753843288877,-4,-1,-1,-4,-1,-2,-7,1
1576753843292960,-8,-3,-1,2,-1,1,2,5
1576753843292960,-2,2,1,1,2,0,3,1
1576753843294954,-5,1,-3,1,-1,0,1,-3
1576753843294954,-14,-1,1,1,-3,-3,2,-3
1576753843298887,2,3,1,0,-2,1,-2,2
1576753843298887,6,-3,-2,0,0,2,-1,0
1576753843307920,-10,-2,-2,-1,0,0,-4,-4
1576753843307920,-7,0,0,-3,-2,-3,-2,0
1576753843322820,5,-3,-2,-3,0,-3,-1,-2
1576753843322820,5,-2,-1,2,1,0,0,1
1576753843328763,-2,1,3,-2,0,-2,-1,-3
1576753843328763,1,-3,-1,-2,-5,0,-3,-5
1576753843340769,12,-1,2,-3,0,-3,1,-2
1576753843340769,0,-3,-2,-3,-3,2,-3,3
1576753843360707,6,-5,-3,-1,0,-2,0,0
1576753843360707,0,-2,-4,-1,0,-2,-1,-2
1576753843361675,4,1,1,2,-1,2,-1,-2
1576753843361675,-1,-3,0,1,0,0,-1,-2
1576753843407555,0,-2,2,1,-2,-4,-2,0
1576753843407555,6,0,-2,1,0,0,1,3
1576753843407555,-1,-2,1,2,2,0,0,-3
1576753843407555,-5,-1,-2,-2,-1,-2,1,0
1576753843408548,0,3,-1,0,0,-2,-4,-4
1576753843408548,8,-1,-5,-2,-1,-1,-2,-2
1576753843411542,-1,-3,-1,-1,0,1,0,-3
1576753843411542,-7,0,1,-1,-3,-2,1,-1
1576753843418624,-7,1,0,1,-3,-1,0,0
1576753843418624,2,2,0,0,1,1,0,-1
1576753843426620,-2,1,0,0,0,1,0,-2
1576753843426620,1,-2,0,-1,-1,-1,-2,-4
1576753843435520,-2,-3,-1,-2,0,-2,1,2
1576753843435520,1,1,1,-3,-1,-1,-1,0
1576753843448544,-7,-1,1,1,1,2,3,-1
1576753843448544,-3,-1,1,1,-1,-1,-5,-3
1576753843457417,-4,2,-3,-2,-2,-3,-2,-4
1576753843457417,-3,-6,1,0,0,3,0,2
1576753843480472,2,-1,-1,-3,-2,-2,1,1
1576753843480472,-5,-4,0,-1,-1,-4,0,-3
1576753843481352,-4,-1,-3,-1,-1,0,2,-1
1576753843481352,4,3,0,0,0,0,0,-6
1576753843494416,1,-1,-1,-1,-1,0,-3,1
1576753843494416,2,-1,-2,0,2,-1,0,0
1576753843501299,-2,-3,2,0,-1,0,0,-1
1576753843501299,0,0,-3,-2,-2,-4,-1,-1
1576753843517362,11,-1,1,4,0,0,-2,-1
1576753843517362,-6,3,-3,1,-2,1,-4,-6
1576753843519252,-2,-1,1,0,-2,0,-3,1
1576753843519252,-7,-2,-1,-1,1,-1,3,-4
1576753843540296,-7,1,0,-3,-1,2,-1,-5
1576753843540296,-14,-1,1,3,2,1,1,8
1576753843541197,3,-1,-2,-3,-2,1,-3,0
1576753843541197,1,0,0,-1,0,0,1,-1
1576753843554202,0,1,-1,-1,0,-2,-2,0
1576753843554202,1,-2,-3,-3,-2,0,-3,1
1576753843561244,-7,-4,0,-2,1,-1,2,-1
1576753843561244,-1,0,-3,-1,-1,0,-2,-1
1576753843578094,0,-1,-1,-1,-1,-2,0,-1
1576753843578094,-5,1,-1,-1,-3,-1,-4,-3
1576753843579094,-1,-2,-2,-1,-3,-3,-1,2
1576753843579094,3,-3,0,0,1,0,0,-2
1576753843600138,-3,3,-2,1,1,-1,-1,-3
1576753843600138,-3,-1,-2,-1,-2,0,1,-5
1576753843602031,-1,1,-1,-2,0,-1,-1,-4
1576753843602031,-3,1,3,0,0,0,2,1
1576753843614104,-5,-3,-2,-3,-2,0,-2,-3
1576753843614104,-8,-2,-2,-3,0,-5,0,-2
1576753843621032,-9,-2,1,1,-1,-1,1,-3
1576753843621032,2,0,-5,-4,-4,-2,-2,-4
1576753843637933,-2,-3,1,0,1,0,0,-4
1576753843637933,-9,-4,-1,-2,-1,-2,-3,-1
1576753843638937,4,0,-1,1,-2,1,0,0
1576753843638937,-1,1,-1,0,-1,-2,-3,1
1576753843659877,-4,-1,1,0,-1,-1,-2,-1
1576753843659877,0,2,0,0,1,1,1,0
1576753843661923,5,0,-1,-1,-1,-3,-4,-3
1576753843661923,-1,-2,-3,-1,-1,0,-1,3
1576753843674867,4,1,-3,-2,-3,0,0,2
1576753843674867,8,1,2,1,0,-5,1,-3
1576753843680925,5,-1,1,-1,0,1,-4,-4
1576753843680925,-1,-3,-1,-1,1,-1,0,-2
1576753843697822,-2,-2,-2,-1,0,-1,0,1
1576753843697822,2,0,2,-1,-3,0,-3,-1
1576753843698796,2,0,-5,0,-2,1,0,-1
1576753843698796,10,0,-2,2,-1,-1,-3,-5
1576753843719715,3,0,1,-1,1,1,-3,-3
1576753843719715,8,-1,1,-2,-2,1,1,2
1576753843721714,0,-2,2,-1,-3,-2,-2,-1
1576753843721714,0,0,1,0,1,-1,0,1
1576753843733780,-4,-3,-4,-2,-3,-4,0,0
1576753843733780,0,-2,3,2,-2,-3,-2,-1
1576753843742657,3,1,-1,-3,2,-1,-1,-1
1576753843742657,-2,-1,-1,0,0,-3,0,-1
1576753843757716,-2,-4,-2,-2,0,-3,1,2
1576753843757716,-1,-3,-5,0,-1,0,0,-1
1576753843758617,-5,-2,-4,-1,0,1,-1,0
1576753843758617,-2,-2,1,1,0,2,-3,-4
1576753843780568,1,3,-2,-2,-1,-2,-5,-3
1576753843780568,6,0,-1,-1,-1,-4,-3,-3
1576753843781552,2,-2,-2,-1,0,0,-2,3
1576753843781552,10,-2,0,-1,-1,2,2,-1
1576753843793620,0,1,-1,-1,-1,1,-2,-1
1576753843793620,2,-2,-1,0,-1,2,0,-2
1576753843802494,1,1,-2,-1,1,2,1,-1
1576753843802494,6,-2,1,0,-3,1,1,5
1576753843817557,4,-4,1,-1,1,-2,-2,-2
1576753843817557,-1,0,-4,-4,-1,-2,-4,1
1576753843819449,-2,-2,2,3,1,-1,2,-2
1576753843819449,-12,1,-1,0,1,-1,3,0
1576753843840499,2,3,-2,1,-1,1,1,0
1576753843840499,-2,0,0,1,0,1,1,0
1576753843841391,3,-1,-1,-3,-2,0,-1,-1
1576753843841391,-2,1,-3,-1,-2,-1,-2,0
1576753843853357,-5,-2,-2,-1,-2,-1,-1,-1
1576753843853357,0,-2,-4,-1,1,-1,-3,-4
1576753843862381,-2,0,0,1,1,2,2,-4
1576753843862381,1,0,0,0,-2,-1,0,2
1576753843877393,-1,-2,-1,-4,-3,-1,3,0
1576753843877393,0,0,-2,-2,-1,0,-1,-4
1576753843879294,-5,-2,0,-1,2,1,-2,1
1576753843879294,-3,-2,-1,-1,0,0,-2,-2
1576753843900338,-2,2,1,-1,0,1,1,-2
1576753843900338,-10,-3,-2,-1,-1,1,1,3
1576753843901262,-3,0,1,0,-2,-1,0,2
1576753843901262,-1,-2,-4,-2,-1,0,0,-1
1576753843914214,0,2,1,0,0,-2,-5,-2
1576753843914214,-2,1,-1,2,0,-1,-1,0
1576753843922272,2,1,-2,-1,-2,-1,-3,-3
1576753843922272,2,1,-2,-2,-2,-2,1,-3
1576753843937178,-2,-1,-2,1,0,1,1,2
1576753843937178,6,1,-1,-1,-1,1,-1,1
1576753843939130,2,-1,-1,0,-1,-4,1,1
1576753843939130,-4,1,0,1,1,1,-6,2
1576753843960177,0,-4,-4,-1,-2,-1,-1,0
1576753843960177,1,0,0,-2,-2,0,0,-2
1576753843962067,-1,0,-1,0,0,-1,-4,0
1576753843962067,-3,-2,0,3,0,1,3,-5
1576753843974143,-2,1,4,-1,0,-2,-4,0
1576753843974143,-2,-3,-1,-1,-2,1,-2,-6
1576753843983013,-2,0,-1,-3,-3,2,1,-4
1576753843983013,-3,-1,0,-2,-4,-2,-3,0
1576753843998023,-6,0,-2,2,-2,-2,1,-1
1576753843998023,-6,-2,0,0,1,-2,1,0
1576753843998971,-11,0,-2,-2,-1,-2,-3,-4
1576753843998971,-5,-1,-1,-3,-1,-2,0,0
1576753844019912,-7,-3,-1,-1,0,0,4,3
1576753844019912,-2,3,1,0,0,-2,-2,-1
1576753844021911,2,-4,-6,-4,0,-1,0,4
1576753844021911,-2,-2,0,0,0,2,1,-1
1576753844033925,2,-1,-1,-3,-3,-4,-2,-1
1576753844033925,-2,2,-2,-1,-3,-1,-2,-1
1576753844042852,5,0,2,2,-2,-3,-1,3
1576753844042852,1,-3,-4,-2,-1,-3,1,-1
1576753844057861,2,0,-2,-1,-1,0,0,1
1576753844057861,-1,-3,-2,-2,1,0,0,2
1576753844058809,3,-1,0,-1,0,2,1,-1
1576753844058809,1,-2,2,-2,-2,-1,-1,-1
1576753844079802,9,2,0,0,-2,-1,-3,-2
1576753844079802,0,0,0,0,-1,-3,2,1
1576753844081749,2,-2,-1,-3,-1,-1,-1,4
1576753844081749,2,2,-1,-3,0,-3,-2,-6
1576753844093758,-1,0,2,-2,3,0,-1,-3
1576753844093758,-1,-2,1,1,0,-2,-1,-2
1576753844102691,2,0,-2,-1,-1,1,1,-4
1576753844102691,6,2,0,1,0,-1,-2,2
1576753844117703,-1,0,-3,0,-1,0,-4,-2
1576753844117703,0,0,-2,-3,-1,2,1,0
1576753844118680,2,-1,-2,-2,-2,-4,-5,-1
1576753844118680,4,1,0,1,2,1,2,0
1576753844139596,-1,-3,-2,0,-1,-2,-2,2
1576753844139596,0,1,-2,-4,-3,-2,0,0
1576753844141592,1,3,0,1,1,0,-4,-5
1576753844141592,2,0,1,1,1,0,0,-1
1576753844153556,-3,-4,0,0,-2,-3,-4,-1
1576753844153556,2,-1,2,1,-1,2,0,-1
1576753844162533,3,1,-3,-2,0,-2,1,0
1576753844162533,-4,-4,-6,-1,-3,1,-2,-3
1576753844176527,-2,0,0,-3,1,-1,2,0
1576753844176527,7,-2,1,-3,-3,-3,-2,-1
1576753844183512,1,0,1,2,-1,1,2,-2
1576753844183512,-1,2,-1,1,0,-1,-4,-1
1576753844200433,5,-1,-2,-1,-2,3,1,-1
1576753844200433,-4,-3,-1,-1,-1,1,-1,-3
1576753844201431,3,-1,-2,-3,-1,0,-1,1
1576753844201431,-1,-3,-3,-1,-2,-3,-1,0
1576753844222370,-2,1,-2,-1,-3,0,-3,-2
1576753844222370,4,1,3,1,-1,-2,0,-2
1576753844224370,-6,0,-1,-1,0,2,3,3
1576753844224370,-3,-1,2,-2,-1,1,-2,-1
1576753844237335,-1,1,0,0,-2,0,2,-2
1576753844237335,-4,0,0,-2,0,-1,1,-1
1576753844239330,5,-4,-1,-2,-2,-2,0,0
1576753844239330,-7,0,-2,-2,-1,-1,-2,-2
1576753844260272,-9,-1,-1,-1,1,-1,2,-2
1576753844260272,1,1,-3,1,2,-2,-5,1
1576753844261266,-2,-2,0,0,-2,0,-3,-3
1576753844261266,-2,-1,0,-2,1,0,-1,-5
1576753844282239,1,-1,-1,-1,-3,-2,-3,0
1576753844282239,3,-2,-2,-2,-2,1,0,-1
1576753844284206,-2,1,-2,0,-1,1,0,-1
1576753844284206,-2,-1,-4,-2,-2,-1,-2,-2
1576753844297170,2,-1,2,3,1,0,-1,1
1576753844297170,-5,-1,-3,-1,1,1,-4,0
1576753844299169,2,3,-1,1,0,1,0,0
1576753844299169,1,-1,-1,0,-2,1,3,0
1576753844320111,2,0,1,-2,-4,-4,0,1
1576753844320111,-1,-2,-1,-2,-3,-1,-1,2
1576753844321120,-3,-1,-1,0,2,1,-1,0
1576753844321120,-2,0,-2,-3,1,-1,-3,-3
1576753844342051,2,-2,-1,-3,1,-4,0,-6
1576753844342051,-1,1,-1,0,1,-1,-2,-5
1576753844344046,-5,-2,-4,-3,-3,-4,1,-2
1576753844344046,-1,3,0,0,-1,-3,-2,0
1576753844357016,-8,2,-1,-2,-3,1,-1,-2
1576753844357016,6,2,1,3,2,3,1,-2
1576753844363997,-1,-4,1,-1,0,0,1,-4
1576753844363997,-2,1,1,0,-2,2,3,0
1576753844378957,-5,-3,-3,-1,-2,-1,-1,-2
1576753844378957,-2,-2,-1,-2,-3,-3,1,1
1576753844387928,8,1,-3,-2,-2,2,1,1
1576753844387928,-1,-4,1,0,2,-1,0,5
1576753844402888,11,1,-3,-1,-1,2,2,4
1576753844402888,-9,-1,-2,0,0,0,-2,1
1576753844403886,3,1,2,1,0,-1,-2,0
1576753844403886,7,-1,2,3,0,-2,0,-1
1576753844424830,0,-1,-2,-2,-2,-2,-1,-5
1576753844424830,1,0,0,-1,1,0,-2,-2
1576753844426824,8,-4,-4,-3,-1,1,-1,3
1576753844426824,-1,-1,-2,0,1,1,-3,-3
1576753844438793,1,0,-1,-1,-2,-4,-2,-4
1576753844438793,1,-4,-1,-1,-1,-1,1,-2
1576753844447769,0,-1,0,0,3,1,-1,-4
1576753844447769,-1,0,0,0,0,1,2,-1
1576753844462729,-1,-1,-2,0,4,2,0,0
1576753844462729,2,-2,-1,-1,-4,0,-3,3
1576753844468716,6,0,1,1,-2,0,1,0
1576753844468716,0,0,0,-2,-1,1,0,-2
1576753844484669,2,1,2,4,3,4,-2,-3
1576753844484669,1,-3,-1,-2,-4,-3,0,0
1576753844486664,6,0,0,-2,1,-1,1,1
1576753844486664,-1,-4,-1,0,1,-3,4,5
1576753844498632,-2,-4,-2,-2,-3,-2,-3,-4
1576753844498632,0,2,1,1,1,0,1,-3
1576753844507608,3,-3,-1,-1,-2,-1,-3,0
1576753844507608,-6,2,-2,-1,0,-3,-2,-2
1576753844522577,0,1,-3,-1,0,0,0,-1
1576753844522577,3,-4,0,-1,-2,-1,0,0
1576753844524566,4,2,-1,-1,-1,1,0,2
1576753844524566,-1,-2,0,1,0,1,-2,-1
1576753844544509,2,-1,0,0,-3,-1,-1,1
1576753844544509,0,1,-3,1,1,0,0,2
1576753844546503,-1,1,1,-2,0,-2,1,-2
1576753844546503,-2,0,0,-2,-4,0,1,-3
1576753844558471,-3,0,-1,0,-2,-1,-2,1
1576753844558471,-7,-3,0,0,2,-1,1,-4
1576753844567447,1,-1,-2,-5,-4,-2,-2,3
1576753844567447,2,-3,-1,-1,0,-3,-2,4
1576753844582407,2,-1,1,-1,-2,-1,0,0
1576753844582407,4,0,0,-2,-1,-3,1,-1
1576753844584402,3,3,-2,0,-2,-2,1,-1
1576753844584402,-6,-2,0,-1,-1,0,0,-5
1576753844605346,-1,-2,-2,-1,1,-3,-2,2
1576753844605346,-5,-1,-2,-1,-1,-1,-1,0
1576753844606343,3,0,-3,0,2,0,-1,-3
1576753844606343,2,-3,0,-2,1,1,2,2
1576753844618311,4,2,0,-2,-2,-3,-1,4
1576753844618311,1,2,0,-2,-1,-1,0,-1
1576753844627287,4,-1,-1,1,0,-1,1,-3
1576753844627287,2,-3,-1,-1,2,-3,-4,0
1576753844642251,1,-1,-3,0,-2,0,2,-9
1576753844642251,6,-2,0,-1,-2,0,-1,-1
1576753844644245,1,-4,-1,1,0,2,1,1
1576753844644245,9,-1,-3,-5,-2,-2,-4,-2
1576753844665188,-3,0,-2,2,2,2,-1,-2
1576753844665188,2,1,-2,-2,0,-2,-4,-5
1576753844666186,-8,-3,-1,-1,0,0,-1,-2
1576753844666186,-2,-2,-1,-1,-2,-3,-5,1
1576753844687129,0,-1,1,0,0,0,-2,-1
1576753844687129,-1,1,1,0,-2,1,-1,4
1576753844689128,3,0,-2,-1,-2,1,-2,-2
1576753844689128,0,-1,0,0,-1,-3,0,2
1576753844702093,-1,-1,-1,0,1,-3,3,1
1576753844702093,-3,-3,-4,1,-1,-1,-2,-4
1576753844709071,7,-3,-2,1,0,2,-2,0
1576753844709071,8,3,2,-1,-2,0,3,2
1576753844725030,5,0,-3,-1,-1,4,-1,0
1576753844725030,4,-3,-1,-2,-2,-1,-3,2
1576753844727027,-3,-1,1,-1,1,-1,1,-2
1576753844727027,-2,2,-3,2,0,-1,1,-5
1576753844747971,-8,-2,-1,-2,0,-4,-2,-3
1576753844747971,2,-2,-1,-1,-2,0,1,1
1576753844748968,-5,0,-1,-1,-1,-1,-2,-3
1576753844748968,-4,-2,0,-2,-1,1,1,-5
1576753844762930,-2,0,3,0,1,0,3,3
1576753844762930,-2,0,-1,-1,-1,-1,-4,-4
1576753844763924,12,-2,0,2,0,-4,0,0
1576753844763924,-5,0,-2,0,-2,-2,1,-1
1576753844784868,5,-2,1,-1,-2,-3,-4,-3
1576753844784868,1,0,-1,-1,2,2,1,-7
1576753844786863,2,1,1,1,-2,-1,-1,1
1576753844786863,-3,-2,1,-1,-2,1,0,4
1576753844807807,3,-3,2,-3,-3,-1,1,-2
1576753844807807,-3,-2,-1,0,1,-1,1,2
1576753844808803,0,1,-2,0,1,-1,0,-3
1576753844808803,2,4,1,2,-1,0,-3,-3
1576753844821773,-4,-4,0,-5,0,1,-4,2
1576753844821773,0,2,-4,-1,-2,-3,2,1
1576753844828793,-2,-1,-3,-2,-2,0,5,1
1576753844828793,2,-1,-3,1,-3,1,1,-4
1576753844844711,2,0,-4,0,-2,0,-4,-3
1576753844844711,2,-2,0,-2,-2,-2,-5,0
1576753844846709,13,-2,-3,-1,-2,0,-5,-1
1576753844846709,4,0,1,-3,0,-1,0,-4
1576753844867689,-8,2,-2,1,0,0,-1,1
1576753844867689,3,-3,-2,-1,-1,0,2,2
1576753844868647,-1,0,1,0,0,-3,-1,3
1576753844868647,-5,-1,-4,-1,0,1,-1,2
1576753844881614,-2,-2,-1,0,-2,-2,-4,-3
1576753844881614,3,4,-2,1,0,0,-1,-2
1576753844888593,-1,-5,-4,-3,-1,-3,-1,0
1576753844888593,9,1,-1,0,0,0,1,3
1576753844904553,2,-3,0,0,1,0,1,-1
1576753844904553,1,0,-1,0,-2,-3,1,0
1576753844906546,-4,-1,1,-2,-1,-2,-3,-1
1576753844906546,-1,-2,0,1,-2,1,-3,-3
1576753844927516,-1,-4,-2,1,-2,3,1,-1
1576753844927516,1,-2,-1,-4,-1,1,1,0
1576753844929482,4,2,-1,2,1,-1,0,-3
1576753844929482,1,0,-1,1,0,-3,-1,-3
1576753844941486,-1,4,3,0,-2,-1,0,-2
1576753844941486,2,-2,-1,0,-2,-1,-1,-4
1576753844948429,-7,-1,0,-1,-1,0,-1,1
1576753844948429,-5,-1,-2,-3,-1,-3,-2,-2
1576753844965439,1,0,-2,0,-1,-2,0,-3
1576753844965439,-1,-1,0,-1,2,0,0,1
1576753844966381,2,1,-3,-1,0,1,0,1
1576753844966381,2,-2,1,-1,0,-1,0,0
1576753844987326,-3,-1,-1,-2,0,-1,0,-2
1576753844987326,-6,-2,2,-1,-3,-1,0,-5
1576753844989324,9,-1,-1,4,1,2,-1,0
1576753844989324,-6,0,-3,-1,-1,-2,0,-1
1576753845002286,3,-1,-2,-1,1,-4,1,-2
1576753845002286,6,-3,-3,-2,0,-1,-1,-3
1576753845008338,5,1,3,-2,-2,3,3,-2
1576753845008338,2,-4,-2,0,0,-1,-2,2
1576753845025295,5,-1,-3,-1,0,-4,0,-1
1576753845025295,2,2,0,0,0,2,-5,3
1576753845026224,-7,0,-1,-2,-1,1,1,-5
1576753845026224,-8,-2,-2,-2,-3,0,0,0
1576753845047210,3,-2,-6,-1,0,-3,-1,-2
1576753845047210,3,-1,1,0,0,2,-1,-1
1576753845049174,2,0,-2,0,0,-2,-2,1
1576753845049174,4,-5,-2,-2,-2,-1,-3,-5
1576753845062228,-8,0,1,0,-2,-2,1,0
1576753845062228,-1,-1,1,-1,3,-3,0,-2
1576753845069108,-2,0,-1,-1,-1,-3,0,-2
1576753845069108,5,3,0,-1,2,1,1,2
1576753845085171,-2,-1,0,-1,-2,-1,0,0
1576753845085171,5,-2,-3,-1,-3,-4,2,-2
1576753845087068,1,-1,-1,0,0,1,-4,-1
1576753845087068,1,-2,0,0,2,-4,-3,-4
1576753845108050,-6,-2,0,-1,0,0,-1,-7
1576753845108050,-2,0,0,0,-1,-1,1,0
1576753845109002,6,-2,1,0,-1,-1,-4,-4
1576753845109002,0,1,-1,-1,1,-1,-1,-5
1576753845121996,-1,-1,-1,0,2,0,-1,-1
1576753845121996,-10,1,-4,0,-1,-2,0,-5
1576753845129068,-3,-1,2,-1,-1,0,1,1
1576753845129068,-1,2,1,2,-2,-2,-6,-2
1576753845145009,-1,-2,0,-4,-4,-3,-1,-2
1576753845145009,0,-3,-4,-1,-1,-2,1,0
1576753845146904,4,1,-1,-2,-3,0,-1,0
1576753845146904,4,-2,-2,-2,-1,-1,-1,-4
1576753845167968,0,0,-1,-1,-1,1,0,1
1576753845167968,1,1,-1,-1,0,0,-2,-1
1576753845168845,-2,-1,0,-2,-1,-1,-1,0
1576753845168845,5,-3,-1,-2,-2,-1,0,-1
1576753845180813,5,-1,0,0,-1,-2,0,3
1576753845180813,3,-1,0,2,-1,0,-1,2
1576753845189879,5,-1,-1,0,1,0,4,0
1576753845189879,-3,-1,1,-1,0,1,0,-2
1576753845204844,2,-2,-3,0,0,-1,-1,0
1576753845204844,-6,2,3,-2,-2,-1,4,2
1576753845206744,7,-1,-2,1,0,-1,-1,0
1576753845206744,-5,1,2,-1,2,1,-4,0
1576753845227786,2,1,0,0,-2,0,-2,-2
1576753845227786,5,-3,-1,-1,-2,-2,0,0
1576753845228683,-3,-3,-2,-5,-1,-3,-3,0
1576753845228683,1,-1,-3,1,0,-2,3,0
1576753845241695,-1,0,2,1,0,1,-3,0
1576753845241695,-7,-4,0,0,0,1,-2,-2
1576753845250625,1,2,-1,-1,0,-3,1,-2
1576753845250625,6,0,-2,-2,-5,-2,-3,-5
1576753845265596,5,-1,-3,0,0,-1,-1,-1
1576753845265596,-4,-1,1,0,-3,0,-5,-5
1576753845266585,0,0,-1,-1,-1,-1,0,-3
1576753845266585,8,-3,0,0,-1,0,1,0
1576753845287545,5,0,1,2,2,2,-2,-3
1576753845287545,8,2,-3,-2,0,0,-1,-3
1576753845289528,7,3,0,-1,-1,-1,-1,2
1576753845289528,-8,-2,-2,-1,-2,-1,-1,1
1576753845301597,3,-1,-1,0,-1,2,0,-2
1576753845301597,-1,-2,-1,-1,3,-1,0,0
1576753845310473,3,-2,-1,0,-1,0,2,0
1576753845310473,-5,0,-1,1,1,0,-2,2
1576753845325536,0,-2,0,-2,-2,-3,-2,-1
1576753845325536,1,-3,-2,-3,-2,-3,-1,-3
1576753845326432,0,0,-2,-1,-3,-1,0,1
1576753845326432,-1,-1,-1,-1,0,2,3,-1
1576753845347402,-3,-4,-2,-2,0,-1,-3,-1
1576753845347402,4,-1,-1,-1,0,2,-3,5
1576753845349373,3,-4,-1,-1,-1,-2,-3,0
1576753845349373,-4,-1,-1,1,-1,0,1,2
1576753845361423,-5,3,0,0,-1,-4,0,2
1576753845361423,10,-3,-2,-2,-2,-1,1,4
1576753845370303,-6,1,-1,-3,0,0,-2,-2
1576753845370303,6,0,-5,0,-2,-1,-5,-2
1576753845384366,1,1,-1,-1,-1,-2,1,-2
1576753845384366,-2,-2,-1,1,0,-1,0,-1
1576753845392334,2,-3,-2,0,-2,2,-2,-5
1576753845392334,1,1,3,-2,1,-2,1,-4
1576753845408203,-1,2,0,-2,-2,-2,2,0
1576753845408203,1,2,-2,0,1,1,2,-1
1576753845409209,2,-2,0,0,-1,0,3,-2
1576753845409209,2,-2,1,-1,0,-1,2,0
1576753845421203,-6,1,1,-2,-1,1,0,-1
1576753845421203,7,0,-3,1,-1,0,0,-2
1576753845430144,0,0,0,1,2,0,-1,0
1576753845430144,-1,-1,1,0,-2,-3,0,1
1576753845445202,7,0,-5,-1,0,-1,-1,1
1576753845445202,-2,-2,1,0,0,-2,-1,-3
1576753845447137,4,-2,0,-1,-1,1,0,2
1576753845447137,2,-2,1,-2,-1,-3,-1,-4
1576753845468045,-3,-5,-2,-2,-1,4,-2,-5
1576753845468045,3,1,0,-3,-1,1,0,2
1576753845469044,-4,2,-4,-2,0,0,-1,-3
1576753845469044,-2,-2,0,-2,-3,1,-4,0
1576753845481051,-3,-3,-2,-1,-2,0,0,2
1576753845481051,3,0,0,0,0,-2,-3,-2
1576753845489987,-3,-2,0,-3,-1,-1,-2,-3
1576753845489987,0,-1,-3,1,0,0,1,-1
1576753845504988,-3,-3,0,1,1,-1,-1,-1
1576753845504988,0,1,-2,-1,-3,1,-2,-2
1576753845506941,5,0,-1,-1,-1,-2,0,0
1576753845506941,-7,1,-1,-1,0,-1,0,-1
1576753845527993,-1,1,2,-1,-2,-2,-1,-2
1576753845527993,7,2,0,1,0,0,0,-1
1576753845528878,-2,0,-2,0,-1,-1,-1,1
1576753845528878,-4,-2,-3,-2,0,-1,1,-2
1576753845540948,1,-1,-1,-4,0,-3,2,2
1576753845540948,0,-1,0,-1,0,-3,-1,-4
1576753845549869,-5,-2,-1,0,1,2,0,2
1576753845549869,-7,-3,-2,-1,-3,2,-1,1
1576753845564821,0,0,-4,1,-1,0,-1,0
1576753845564821,0,2,1,1,2,-1,2,-2
1576753845566784,5,-1,-1,0,-1,-1,-3,-1
1576753845566784,7,2,1,-1,1,-2,-5,1
1576753845587777,2,-3,-3,0,-1,1,-1,-1
1576753845587777,2,-3,-4,-3,-2,1,3,0
1576753845588727,9,-1,-2,1,-1,-2,-1,0
1576753845588727,0,0,-2,-2,-2,-1,-2,2
1576753845610662,2,3,1,-1,0,-1,-4,-3
1576753845610662,1,0,-2,2,-1,0,-3,-1
1576753845611659,-1,0,-2,-2,0,-4,-2,-2
1576753845611659,3,-1,0,-2,-2,-1,-1,-1
1576753845625629,1,-3,-1,-4,-2,-1,-1,2
1576753845625629,4,0,1,-1,1,-1,-1,-1
1576753845626627,6,-3,1,0,-1,1,-1,5
1576753845626627,-9,2,-3,-2,0,0,3,-2
1576753845647662,8,1,0,1,0,-1,1,-2
1576753845647662,-1,-1,1,0,-3,1,3,6
1576753845649598,9,2,-1,-2,0,-1,-3,-6
1576753845649598,7,-1,-4,-2,-1,-3,1,3
1576753845670505,-8,-1,0,1,0,2,-1,2
1576753845670505,-3,-1,-4,0,-1,-4,-4,-2
1576753845671538,3,1,2,2,1,-2,-1,-4
1576753845671538,0,-1,1,1,-1,1,-1,0
1576753845685460,6,2,-1,-1,0,-4,-2,-3
1576753845685460,6,-1,1,-2,-2,-2,2,-4
1576753845686458,3,-2,2,-1,0,2,2,2
1576753845686458,6,-5,-2,0,-2,0,-1,-3
1576753845707503,-2,-1,-1,1,-1,3,0,-2
1576753845707503,4,3,-1,-2,0,1,-1,-1
1576753845709401,1,1,-6,-3,-1,-2,0,-1
1576753845709401,-2,-1,1,-3,-3,1,-1,2
1576753845730446,4,-4,-3,0,0,2,0,3
1576753845730446,8,-5,-3,-1,-1,-4,1,2
1576753845731344,-1,-2,-2,0,-3,0,0,1
1576753845731344,3,3,-2,0,0,-1,0,1
1576753845744398,-4,-1,-3,-1,-2,-2,0,-1
1576753845744398,0,-2,0,-4,-1,-1,-4,-1
1576753845751380,-3,-4,-4,-1,-2,0,1,-1
1576753845751380,2,-1,-1,0,-1,-4,0,-3
1576753845767341,-3,-1,2,-2,-1,0,-1,2
1576753845767341,1,0,1,0,-1,-2,2,3
1576753845769237,5,-2,-1,0,-1,2,1,0
1576753845769237,-2,0,1,0,-1,0,0,0
1576753845790277,1,-3,0,-1,-1,-1,-1,0
1576753845790277,-1,-1,-3,0,0,1,3,2
1576753845792182,-1,2,-1,-1,-2,0,-5,1
1576753845792182,0,0,-1,1,-1,-2,-2,-8
1576753845804185,2,-1,0,-1,-2,-2,-2,-3
1576753845804185,-2,0,-2,0,0,-1,-4,-4
1576753845811221,-3,-1,-1,0,1,0,0,-1
1576753845811221,0,0,0,1,2,-1,1,-5
1576753845828078,-7,2,6,1,1,-3,8,8
1576753845828078,-3,0,-4,-2,-2,1,-1,-7
1576753845829082,0,-1,0,-1,-1,0,2,-1
1576753845829082,-2,-3,1,0,0,-2,-5,0
1576753845850119,3,0,-1,0,-1,-4,-2,-3
1576753845850119,7,-1,-1,1,0,1,0,0
1576753845852015,-2,-1,-1,0,-1,-3,0,0
1576753845852015,-3,-4,-3,-1,-2,0,-3,2
1576753845864981,-6,-1,-3,-2,2,-1,-5,-4
1576753845864981,1,-2,-1,-1,-2,-1,-2,-2
1576753845871018,-4,-2,1,-3,-3,-3,0,-3
1576753845871018,-4,-3,0,0,0,-2,0,0
1576753845888001,-5,-4,-1,0,-3,0,1,-4
1576753845888001,-2,1,1,0,-1,0,0,-2
1576753845888928,-6,-2,-3,1,2,0,-1,-1
1576753845888928,-3,1,0,-3,-2,-2,-3,0
1576753845909905,0,1,0,-2,-1,-1,-2,-3
1576753845909905,1,2,-3,0,-3,2,1,1
1576753845911861,-1,-2,0,1,-1,-3,0,-2
1576753845911861,0,-2,-3,-1,-2,0,2,-3
1576753845924865,2,-1,-3,0,-2,-2,-4,-7
1576753845924865,4,0,0,1,1,0,-4,-1
1576753845931801,0,-1,-1,-1,1,0,0,-3
1576753845931801,3,3,1,-1,2,-1,-1,-1
1576753845947859,5,0,-4,-2,-2,3,-1,-2
1576753845947859,1,-4,0,0,1,-4,-2,0
1576753845948766,6,1,2,0,0,1,-4,-1
1576753845948766,2,0,-2,-4,-3,0,-2,2
1576753845969699,-4,-3,-1,-1,0,-2,-5,-3
1576753845969699,4,2,0,-1,-2,2,2,-2
1576753845971703,2,-2,0,-2,0,2,-3,-1
1576753845971703,1,-2,-1,1,-1,2,3,-4
1576753845983766,-3,1,0,2,1,-1,0,-5
1576753845983766,1,-1,-1,-1,-1,0,-1,2
1576753845992639,4,1,0,-3,1,-2,0,-2
1576753845992639,1,-1,-2,1,1,2,-3,-7
1576753846007698,7,-3,-6,-3,-3,-1,-2,3
1576753846007698,2,-1,1,-1,2,1,1,-1
1576753846009602,8,1,-1,1,0,-2,2,2
1576753846009602,-2,-3,0,-1,-1,2,-1,-1
1576753846030583,2,-1,-2,0,1,-2,3,0
1576753846030583,1,-1,-3,-4,0,-4,-1,0
1576753846031536,-1,0,-3,0,-1,-2,-1,1
1576753846031536,0,-2,-1,1,1,-3,0,-2
1576753846044509,9,-1,0,1,-2,1,-1,0
1576753846044509,10,-1,-2,-3,-3,1,-1,0
1576753846051480,0,0,-1,-1,-2,2,0,-1
1576753846051480,3,-1,1,-1,-4,-4,-1,4
1576753846067440,-3,0,0,0,0,-3,-1,0
1576753846067440,-2,-3,-1,1,4,2,-4,-2
1576753846069433,0,-2,-2,-2,1,2,0,-2
1576753846069433,-2,-1,1,-3,-1,0,-1,0
1576753846090377,4,0,0,-1,-2,1,-2,1
1576753846090377,6,-4,-1,0,-2,-4,-3,6
1576753846091375,5,-1,-2,-2,-1,-4,-4,-3
1576753846091375,-1,1,1,-1,-1,0,-3,-5
1576753846103385,3,-1,-1,-1,0,0,5,-1
1576753846103385,2,0,-5,-3,-2,0,-5,-4
1576753846112317,2,-4,-1,0,-1,0,-2,0
1576753846112317,2,1,-2,-2,-1,-1,-1,3
1576753846127313,0,2,0,-1,1,-2,-4,-1
1576753846127313,4,-1,1,0,-2,1,0,-2
1576753846129275,2,-2,-5,1,0,1,1,0
1576753846129275,2,1,-1,0,-1,-1,-1,-3
1576753846150215,-7,-4,0,-1,-1,-1,1,-1
1576753846150215,-3,0,0,-4,0,-2,0,2
1576753846151214,3,3,1,2,0,0,1,-2
1576753846151214,-2,-2,-3,1,-2,-2,0,1
1576753846163203,-2,2,3,0,-1,2,-3,-3
1576753846163203,-8,-2,-2,-1,0,-2,0,2
1576753846172160,-6,-2,-2,0,-1,0,-1,-2
1576753846172160,2,0,-2,0,-1,-1,-2,-2
1576753846187116,3,-4,-1,-2,-2,-3,-1,-4
1576753846187116,-1,1,-2,-1,1,0,1,1
1576753846189117,1,3,-1,1,0,1,-1,-1
1576753846189117,-6,-2,1,-1,0,1,-3,-3
1576753846210103,-11,-2,-2,-1,-1,1,3,-1
1576753846210103,1,2,0,0,-2,0,1,-1
1576753846212056,-1,-1,-2,-3,-1,0,-1,2
1576753846212056,-5,3,2,-1,-1,0,-3,-1
1576753846224061,3,3,-1,0,1,-1,-1,-1
1576753846224061,-2,-1,-1,2,3,0,2,-4
1576753846233004,0,0,1,-3,-3,-2,-3,-1
1576753846233004,-5,-3,1,-1,0,-2,1,1
1576753846247966,3,0,-2,0,-3,1,0,-2
1576753846247966,3,1,-1,2,-3,0,-1,-5
1576753846248954,-11,0,1,0,-2,1,-1,0
1576753846248954,1,-3,-3,-1,1,-1,0,3
1576753846269929,-7,-2,0,0,-1,-2,1,-3
1576753846269929,6,-1,-1,0,2,-3,-1,1
1576753846271895,4,-1,-1,-2,0,2,0,-1
1576753846271895,1,-2,0,-2,-3,1,-2,-1
1576753846283927,2,-2,-2,-1,-1,-3,1,4
1576753846283927,-3,-2,1,0,1,2,-2,0
1576753846292846,-4,-1,-2,-1,-2,-1,1,-4
1576753846292846,0,3,-1,0,-1,-2,-1,-2
1576753846307863,5,0,-1,-2,-3,2,-1,1
1576753846307863,1,-3,2,0,-3,-2,0,-2
1576753846308812,-1,1,-1,-2,-2,-2,-4,1
1576753846308812,4,-3,-1,-1,-1,-1,-1,-4
1576753846329841,0,2,-3,0,2,2,-2,-1
1576753846329841,-1,0,-1,-2,0,-1,1,1
1576753846331732,6,-2,2,0,-1,-1,2,-2
1576753846331732,-1,-3,2,-2,-1,-5,-1,-2
1576753846343801,-1,0,-1,-3,-2,0,3,-1
1576753846343801,2,3,-1,0,1,2,-2,-5
1576753846352674,1,-1,-3,-2,-2,-4,1,0
1576753846352674,-2,2,-2,-2,-2,-2,-2,-1
1576753846367689,1,1,1,-1,0,0,-3,-1
1576753846367689,0,-3,-3,-1,-2,0,1,0
1576753846369631,8,-2,0,-2,1,0,-2,0
1576753846369631,3,3,-3,-1,-1,0,0,0
1576753846389681,-5,-3,0,-2,-1,0,3,4
1576753846389681,1,0,0,1,1,0,1,1
1576753846391575,1,-1,-4,0,0,-3,-3,-2
1576753846391575,-2,-4,-2,0,0,-2,-1,-1
1576753846403540,-5,-3,-3,-2,-1,-3,-4,0
1576753846403540,2,0,0,-1,0,0,-2,-1
1576753846412517,-2,-3,-1,-2,-1,0,0,3
1576753846412517,3,-2,0,0,-2,-1,-1,-1
1576753846427476,6,0,1,1,-1,0,2,2
1576753846427476,1,-4,-1,-2,-2,1,-1,-2
1576753846429474,8,1,-1,0,0,-1,-3,-3
1576753846429474,1,-1,-3,-2,-1,3,2,-4
1576753846450516,-6,-1,0,0,-1,-2,-1,-5
1576753846450516,3,-3,-3,-1,0,-2,2,0
1576753846451410,-3,0,3,3,0,0,-2,-1
1576753846451410,-3,-2,4,-2,0,1,-4,-5
1576753846463421,-9,1,-3,-2,0,-2,-1,-2
1576753846463421,-6,0,2,-4,-3,-2,3,-1
1576753846472386,-2,-2,0,-2,2,0,-1,-2
1576753846472386,5,1,-2,-1,-1,0,-4,1
1576753846487352,-4,-2,2,-2,-3,0,-4,1
1576753846487352,3,1,-1,0,1,0,-2,0
1576753846489320,1,-1,1,0,-1,-1,-1,3
1576753846489320,-2,-1,2,1,-1,-1,-2,0
1576753846510265,7,-3,-4,0,-1,-3,-2,-3
1576753846510265,-4,0,1,0,-3,-1,-1,1
1576753846511297,5,0,-1,-2,0,0,0,4
1576753846511297,0,-2,-1,-1,0,0,3,4
1576753846524256,1,-4,1,-2,-1,-3,-2,2
1576753846524256,6,0,-2,-1,0,0,-2,2
1576753846533194,-3,-1,-2,-2,-1,-2,1,-1
1576753846533194,-1,-2,-1,-1,0,-1,-2,4
1576753846548153,11,1,1,-1,0,-2,-4,0
1576753846548153,4,-1,-3,0,-1,-1,1,2
1576753846549158,5,2,1,-1,-2,2,3,-2
1576753846549158,-3,1,-3,-2,-3,-2,-3,-4
1576753846570106,0,-1,-3,0,-1,-3,-1,-6
1576753846570106,0,-2,1,-1,-1,2,-2,1
1576753846572115,3,0,1,1,0,2,0,-1
1576753846572115,3,-1,-5,-2,0,0,-3,-6
1576753846593033,1,0,1,2,1,-1,-2,-6
1576753846593033,-1,0,-2,-1,0,0,0,-3
1576753846594034,-10,0,-4,-2,-1,-1,-1,-1
1576753846594034,-1,0,1,-2,-3,-1,0,2
1576753846608033,-2,2,-4,-1,0,0,-1,1
1576753846608033,1,0,0,-2,-2,-1,0,-2
1576753846609008,4,0,0,-1,-3,2,-1,0
1576753846609008,4,-3,-1,-1,1,-2,4,2
1576753846630038,-6,-3,0,-1,0,1,1,1
1576753846630038,2,-3,-1,0,0,-2,0,-1
1576753846631935,0,0,-1,0,0,-1,-1,2
1576753846631935,1,0,2,1,0,-2,-2,0
1576753846652872,0,-2,-3,-2,-2,0,0,-2
1576753846652872,2,-2,-2,-3,-1,-2,-2,-1
1576753846653874,0,1,1,-1,0,-2,0,-4
1576753846653874,-4,1,-1,2,-2,-1,-2,0
1576753846667868,0,-2,-2,-1,1,-1,0,-5
1576753846667868,2,2,2,2,0,0,-2,-1
1576753846668831,0,0,-4,-1,1,-2,-1,-1
1576753846668831,-6,-1,-1,0,1,-2,3,5
1576753846689874,1,2,-1,0,-3,0,-4,0
1576753846689874,4,0,1,0,0,1,2,3
1576753846691778,-3,-2,-1,1,0,-2,2,1
1576753846691778,0,1,0,-2,-2,0,2,-4
1576753846712816,-1,0,0,-2,-3,0,-3,-5
1576753846712816,2,-2,0,-2,1,-3,3,-1
1576753846714708,-5,-6,1,-1,-1,0,-1,2
1576753846714708,-6,2,-1,1,2,0,-4,-2
1576753846726686,10,1,1,0,0,1,-1,-3
1576753846726686,-2,1,1,1,0,1,1,-5
1576753846733761,2,-1,-2,-2,-1,1,-2,-3
1576753846733761,6,0,2,-2,-1,0,-2,-4
1576753846750621,3,-4,2,-2,-1,-1,-1,5
1576753846750621,3,-1,-4,-3,0,0,-4,2
1576753846751609,4,-2,1,1,1,-2,-4,-4
1576753846751609,2,-2,-2,-1,-1,1,-1,-3
1576753846772653,-3,-2,-1,-1,1,0,-4,-3
1576753846772653,5,-2,-2,1,0,2,3,-1
1576753846774556,-5,1,-2,0,-2,-2,2,-1
1576753846774556,3,0,-3,-1,0,-2,-2,-1
1576753846786516,0,-1,-4,1,-1,-2,0,1
1576753846786516,0,0,0,-1,0,-1,-1,-2
1576753846793599,6,-1,-3,0,-2,-3,-2,0
1576753846793599,-1,-3,-1,0,1,0,0,-4
1576753846810492,-1,4,2,-1,2,2,1,3
1576753846810492,-2,-5,-4,-2,-2,0,-2,-3
1576753846811460,0,-2,0,0,-2,2,-1,-2
1576753846811460,0,-2,-2,-4,-3,-2,-3,-6
1576753846832495,8,-2,-2,-2,-2,-1,0,3
1576753846832495,-9,-1,-1,1,3,1,2,2
1576753846834394,2,1,0,-2,0,-3,0,-5
1576753846834394,-1,-5,-2,0,-1,-1,-1,1
1576753846847404,-2,2,-2,-2,-3,-2,-2,-5
1576753846847404,-3,-1,-1,-1,-1,-3,-2,-5
1576753846853336,-1,-1,-1,1,-2,0,0,2
1576753846853336,0,-1,-1,1,0,-2,-1,-3
1576753846870295,-4,1,1,0,0,1,-2,2
1576753846870295,3,-1,-3,-2,-3,0,-2,-2
1576753846871295,4,1,0,-2,0,2,1,-3
1576753846871295,6,-3,-1,-2,-2,-3,2,4
1576753846892333,-2,-1,-4,-1,0,-1,-1,-3
1576753846892333,2,1,0,0,-1,-1,-1,-3
1576753846894231,6,-1,-3,-1,-1,-1,-1,3
1576753846894231,-8,1,2,2,0,1,1,0
1576753846907239,3,-2,2,-1,0,-2,1,-4
1576753846907239,6,1,-1,-2,0,0,-2,-2
1576753846914221,3,-3,0,1,-3,-2,1,0
1576753846914221,0,-4,0,1,0,0,0,-1
1576753846930231,8,1,-2,-1,-2,-3,2,0
1576753846930231,4,-1,-3,-2,-2,-1,-2,0
1576753846932152,-6,-1,-1,-1,-1,-2,-2,-5
1576753846932152,0,0,1,0,1,1,1,3
1576753846953071,-8,-1,-2,-1,-1,0,1,2
1576753846953071,3,-1,4,3,0,-2,2,1
1576753846954077,5,0,-2,-1,-2,1,-2,2
1576753846954077,-3,-1,-1,-2,-2,-2,-3,-2
1576753846967134,-3,2,-1,0,0,-2,-3,-5
1576753846967134,-1,0,-3,0,0,0,1,-3
1576753846974124,6,-3,0,-3,-1,-1,-2,2
1576753846974124,9,2,2,0,1,2,0,0
1576753846990071,-3,-2,-1,-1,-2,0,-2,-4
1576753846990071,-5,0,-1,-2,-4,-2,-3,0
1576753846991976,-1,-1,-1,0,2,0,-2,-4
1576753846991976,-7,0,-1,-2,-3,-1,0,0
1576753847012995,-1,-2,-1,-2,0,-2,-1,-1
1576753847012995,-4,-2,0,-1,-1,2,2,3
1576753847013915,-12,-2,0,-3,-1,-1,-1,-2
1576753847013915,1,1,-1,1,1,-2,-2,-3
1576753847026876,0,-3,-3,0,1,-2,1,1
1576753847026876,2,-3,-3,-1,1,-2,-2,-4
1576753847033955,2,-2,-1,-3,0,-1,-1,-1
1576753847033955,5,0,-3,-2,-1,0,0,-2
1576753847049911,-7,-2,0,-2,-2,0,-3,2
1576753847049911,5,-1,-2,1,0,-1,0,-2
1576753847051807,4,0,-1,2,2,1,3,1
1576753847051807,-4,-3,-3,-2,-1,0,2,-3
1576753847072850,-2,-2,-1,-2,0,0,0,-1
1576753847072850,-1,4,-1,1,0,2,3,3
1576753847073757,1,1,1,-1,-2,-3,-1,-3
1576753847073757,0,1,-2,-3,0,0,-2,-2
1576753847086712,-1,2,-2,1,0,1,-2,-5
1576753847086712,2,-2,0,-3,-4,-2,-1,-1
1576753847095688,0,-1,-1,-2,-2,-1,-1,-5
1576753847095688,-2,1,0,-1,-2,-1,1,-2
1576753847109689,2,-2,-2,0,-1,2,3,6
1576753847109689,7,-1,0,-1,2,0,-3,-1
1576753847111693,-2,1,0,0,0,0,-1,-2
1576753847111693,-4,-1,-2,-3,-2,-3,-3,0
1576753847132693,-1,-1,1,2,0,0,1,-5
1576753847132693,4,1,-3,-1,0,-2,-2,-4
1576753847134629,-1,1,0,-1,0,-3,1,-1
1576753847134629,-1,2,-1,0,-1,-2,-3,2
1576753847146664,3,2,1,-1,-2,2,-1,-4
1576753847146664,0,0,0,-3,0,0,-2,1
1576753847155536,-1,-1,-1,-2,-1,-3,0,-5
1576753847155536,-1,-1,2,0,0,-1,2,0
1576753847170519,4,-3,-1,2,1,-2,0,0
1576753847170519,-1,1,3,1,0,0,-2,-1
1576753847171494,-1,-1,-3,0,-2,1,0,-1
1576753847171494,5,0,0,0,0,-2,0,1
1576753847192531,-1,0,-4,-3,-1,-2,0,-5
1576753847192531,2,-3,-1,1,-1,0,4,1
1576753847194435,0,0,-3,0,-1,0,2,2
1576753847194435,-3,-3,-1,0,0,0,-2,-4
1576753847206494,5,0,-4,-2,0,-2,-3,-1
1576753847206494,7,-4,1,0,0,-1,3,2
1576753847215416,4,0,-2,-3,0,0,-3,-1
1576753847215416,2,-2,-3,-3,-1,-2,-4,-2
1576753847230424,2,-1,1,0,0,0,1,3
1576753847230424,-1,-2,-1,-1,-2,1,1,-2
1576753847231340,3,-2,-2,-3,0,-1,-1,4
1576753847231340,4,-3,-3,2,-1,2,-2,-4
1576753847252269,1,-1,1,0,1,1,-4,-4
1576753847252269,-2,-2,-4,-3,-1,-1,-1,0
1576753847254263,-4,-4,1,-2,0,4,-2,-5
1576753847254263,-4,-1,-3,-2,-5,-3,0,-1
1576753847266250,5,1,2,3,0,-4,-2,0
1576753847266250,-2,0,-2,2,0,0,1,-3
1576753847275216,-3,-5,2,2,-1,-2,2,3
1576753847275216,-3,-1,-2,-3,1,0,1,-2
1576753847290266,6,-2,3,0,0,-3,3,1
1576753847290266,3,-1,0,-2,-1,-1,-1,1
1576753847292163,3,-1,-5,-3,-1,-2,-5,0
1576753847292163,2,0,2,0,1,0,-2,1
1576753847313109,2,-4,-4,-2,-2,1,-2,1
1576753847313109,2,-3,-3,0,1,0,-2,-2
1576753847314112,4,0,1,0,1,1,1,-2
1576753847314112,1,-2,1,0,-1,-1,2,5
1576753847326173,-9,-1,0,-2,0,1,3,-1
1576753847326173,-1,0,-1,1,0,0,-4,1
1576753847335050,-2,0,-2,1,-2,-3,-1,-4
1576753847335050,3,3,0,-1,-1,-2,-2,0
1576753847350109,4,-2,-2,-5,-2,-2,-1,-1
1576753847350109,0,-2,-2,-1,0,-1,-1,-2
1576753847352005,9,3,0,0,-1,-2,2,2
1576753847352005,-1,-1,-2,1,-2,-2,0,-4
1576753847373020,-5,-1,0,-1,-1,-3,-3,1
1576753847373020,-4,1,-3,0,-2,-1,-1,-2
1576753847373957,-4,-3,0,0,2,0,0,-4
1576753847373957,4,-2,0,1,1,-2,1,-4
1576753847385913,-3,-2,2,1,-1,4,1,-2
1576753847385913,-6,-1,-1,-1,-3,-1,-4,-1
1576753847394889,-5,1,1,1,-2,-2,-1,-2
1576753847394889,-9,0,-1,-2,-3,-2,-2,-3
1576753847409950,-8,0,0,-2,0,-2,-3,-2
1576753847409950,3,2,1,2,2,1,2,-1
1576753847411847,3,0,-3,-1,-1,1,-2,-1
1576753847411847,-3,-1,-1,-1,-1,-1,-2,2
1576753847432889,-2,-2,-2,0,-3,-3,1,-2
1576753847432889,1,-1,2,-1,1,-3,-2,0
1576753847434783,1,-1,-3,-2,-1,-1,-1,3
1576753847434783,-4,-2,-2,-5,-1,2,0,-1
1576753847446752,5,-1,-1,-2,-1,-1,-2,0
1576753847446752,6,-1,-1,-3,-2,-2,-3,-1
1576753847455727,-3,-5,1,-1,0,-3,-1,1
1576753847455727,5,1,0,1,-1,0,-2,2
1576753847469688,-1,4,0,0,1,0,0,-1
1576753847469688,1,-3,-5,0,-1,2,1,-6
1576753847471687,7,-1,-1,-1,-5,-2,-1,4
1576753847471687,-2,-4,2,-1,1,-1,1,1
1576753847492665,3,-2,-2,-2,-1,-2,-2,-1
1576753847492665,2,2,-1,-2,-1,2,2,0
1576753847494668,0,0,1,0,2,0,-2,-3
1576753847494668,3,3,-2,1,-2,-3,0,-1
1576753847515564,-2,-3,0,-1,-2,-1,-3,0
1576753847515564,-8,-2,-4,-3,0,0,-1,1
1576753847516562,-4,-1,0,2,0,-1,2,-2
1576753847516562,1,-2,0,1,0,1,1,0
1576753847530567,-5,3,1,-1,-1,-1,-1,0
1576753847530567,1,-2,1,0,0,2,1,-2
1576753847531528,-3,-1,0,-3,-1,1,2,4
1576753847531528,-1,0,0,2,2,0,-3,1
1576753847552468,2,-3,1,1,1,-1,-2,-1
1576753847552468,7,1,1,-1,-2,-3,1,-2
1576753847554471,8,0,-3,-2,-2,0,-5,-3
1576753847554471,11,-3,3,1,-1,0,-1,1
1576753847575513,0,-2,-5,-2,-2,0,-2,-1
1576753847575513,-7,-1,-1,-2,0,0,-2,1
1576753847576415,3,1,1,2,-1,-2,0,-2
1576753847576415,-2,0,-3,-1,0,-1,-2,1
1576753847590474,6,-1,-2,-1,0,1,-3,0
1576753847590474,-2,-1,1,0,0,-1,2,0
1576753847591373,4,1,-7,-2,0,0,-2,-4
1576753847591373,-1,-2,-2,-1,1,1,1,-4
1576753847612352,-3,2,0,1,-1,-3,0,-4
1576753847612352,11,-2,-1,-2,-1,-4,1,1
1576753847614310,1,1,1,-3,-2,-1,-1,1
1576753847614310,0,-1,-2,-1,-1,0,-3,-2
1576753847635247,6,-2,2,1,-1,3,4,-1
1576753847635247,4,3,-1,0,-2,-1,-2,-2
1576753847636244,-4,-3,-1,1,0,-2,-2,-1
1576753847636244,8,0,0,1,0,-2,0,0
1576753847649309,-7,-2,-3,0,-1,1,0,-3
1576753847649309,-3,-4,0,0,2,1,-3,2
1576753847656232,6,2,-1,1,0,1,1,1
1576753847656232,-8,-1,-3,-2,-2,0,-3,2
1576753847673148,3,2,0,0,-1,-2,1,-1
1576753847673148,3,-3,0,-1,-1,0,0,0
1576753847674142,7,0,-5,-2,1,0,-4,-4
1576753847674142,1,-2,0,-3,-1,-2,-4,-3
1576753847695186,-2,0,-3,-1,-1,-2,0,-3
1576753847695186,3,-1,-1,0,0,1,-5,-1
1576753847697123,3,-2,2,2,-3,-2,-1,-2
1576753847697123,-6,-1,-1,-1,-2,1,0,-4
1576753847709148,3,-2,-1,-2,-1,1,2,0
1576753847709148,-4,1,1,0,-1,-1,1,3
1576753847716130,0,-1,4,1,1,0,0,1
1576753847716130,1,-1,-2,2,0,0,-1,2
1576753847733031,1,0,-1,0,1,-5,1,0
1576753847733031,2,1,-1,-2,-1,-2,-3,-2
1576753847733984,-5,-1,-2,-3,-3,-1,1,4
1576753847733984,-4,-2,2,0,1,-3,0,-1
1576753847754969,-1,0,-2,-1,-1,1,-2,-2
1576753847754969,-2,0,-4,1,-1,0,-1,-4
1576753847756964,-9,-2,1,1,-2,-3,0,-3
1576753847756964,-7,-1,-1,-2,2,-3,-1,-2
1576753847769909,-2,0,1,-1,1,-1,-6,3
1576753847769909,-5,1,0,1,-2,0,1,-1
1576753847775914,-3,-4,1,-2,0,1,-1,-2
1576753847775914,-7,-1,-1,-3,-2,0,0,-2
1576753847792863,2,0,0,0,1,1,1,-1
1576753847792863,5,1,0,1,0,-1,0,-1
1576753847793830,-2,-3,2,1,-1,-4,2,-1
1576753847793830,-1,-1,0,-2,-2,-1,-3,0
1576753847814866,1,1,-1,-2,-1,-2,-1,-3
1576753847814866,-2,-4,1,-1,1,-2,-3,-2
1576753847816769,-1,5,-3,-2,1,0,-1,2
1576753847816769,2,-3,-1,-1,-1,0,-3,0
1576753847829767,7,-1,-3,-1,-1,-5,-1,0
1576753847829767,1,-5,-1,1,0,-1,1,0
1576753847836708,3,2,-2,-1,-1,-1,-1,-2
1576753847836708,3,-2,0,-1,0,-4,-1,-6
1576753847852664,6,-1,0,-1,-2,2,-4,-2
1576753847852664,-3,0,0,-1,-1,-2,1,-2
1576753847854660,-4,1,-1,-2,-2,0,-2,0
1576753847854660,9,2,-1,0,-1,0,1,0
1576753847875607,-5,-4,-2,1,0,2,3,1
1576753847875607,2,6,1,0,0,0,-1,0
1576753847876614,2,-3,-1,-3,-1,2,1,-6
1576753847876614,11,1,1,-1,-2,-4,1,2
1576753847889668,-7,-3,1,-1,0,2,0,0
1576753847889668,10,-2,-1,-1,-3,-3,0,1
1576753847896658,2,-2,-1,1,0,1,-4,-1
1576753847896658,-7,1,0,-2,-2,2,0,-2
1576753847912564,2,0,0,-3,-1,-2,-3,-2
1576753847912564,-3,0,-3,0,1,0,-1,-3
1576753847914541,-1,-1,-1,-2,-2,0,-1,-1
1576753847914541,4,3,0,0,2,-2,0,-1
1576753847935444,3,-5,0,1,1,0,-1,-1
1576753847935444,5,3,-2,-2,-3,0,-2,-5
1576753847936440,6,-2,-1,1,-1,0,0,-2
1576753847936440,-4,-2,-3,-1,-2,1,0,-2
1576753847949509,9,3,-1,1,-1,0,2,-3
1576753847949509,12,-1,-2,-2,-1,0,0,-1
1576753847956429,2,-1,-3,-1,0,-3,2,-4
1576753847956429,1,-2,-1,-2,-2,-2,-2,1
1576753847972441,-1,2,1,-1,1,1,0,-2
1576753847972441,-5,-2,-2,-1,-1,-3,-2,-1
1576753847974350,2,-1,-2,-2,-3,-1,-1,-2
1576753847974350,3,-2,0,-2,1,0,1,-2
1576753847995383,-1,-2,-4,0,-1,-2,0,-4
1576753847995383,0,0,1,0,1,3,-1,3
1576753847996290,0,-3,-2,-3,0,-1,-1,1
1576753847996290,5,0,-2,-1,-2,1,-2,1
1576753848009246,0,-2,-2,-1,-2,-1,-1,1
1576753848009246,2,-3,2,1,-1,-1,-2,-2
1576753848017326,-1,1,5,1,1,3,0,1
1576753848017326,-6,0,0,-1,-3,-1,1,-2
1576753848033184,-3,1,-1,-3,-1,-3,-5,3
1576753848033184,3,-1,-1,-1,-1,-1,0,-2
1576753848034188,-4,0,-5,-1,1,0,-1,-2
1576753848034188,1,-3,0,0,0,-1,-1,-2
1576753848055223,3,-3,-1,0,0,0,1,-1
1576753848055223,-3,1,-1,-2,-1,3,1,-1
1576753848057118,-2,-1,-2,-2,-2,-1,-2,1
1576753848057118,1,1,-1,-1,-2,0,0,-1
1576753848078091,-3,0,-3,-1,-1,-1,0,1
1576753848078091,0,-5,1,-1,2,-3,-1,0
1576753848079065,3,-1,1,2,0,-2,0,0
1576753848079065,-8,1,0,-1,0,-1,-2,-3
1576753848093065,-3,-1,1,-4,-1,-2,-1,-4
1576753848093065,5,0,-3,-2,-2,-1,-1,-1
1576753848094030,4,-2,-1,-2,-1,0,-2,0
1576753848094030,-1,-1,-1,0,0,-3,-1,3
1576753848123014,-4,-1,-4,-1,-2,2,-2,-4
1576753848123014,2,1,0,3,3,1,5,0
1576753848123951,2,-2,-1,-2,-2,-3,-5,-3
1576753848123951,1,-3,-1,1,-1,2,1,0
1576753848129025,-4,-1,-2,-2,-3,0,-2,-4
1576753848129025,-3,-3,-2,-2,-2,-2,-2,0
1576753848137946,-3,-2,3,1,-1,0,4,-2
1576753848137946,6,0,-1,0,1,-1,-1,-1
1576753848152862,1,-2,2,1,-3,0,0,1
1576753848152862,-1,-2,2,-1,-1,3,0,-6
1576753848153860,-1,-3,-4,-3,-1,-2,0,-2
1576753848153860,-2,-1,0,-1,0,0,-4,-3
1576753848174903,3,-2,0,0,0,-1,1,1
1576753848174903,3,3,-1,0,0,-4,-2,1
1576753848176805,1,1,-3,-1,0,0,-4,-3
1576753848176805,-8,-3,-1,-3,-1,-3,3,-3
1576753848188804,3,-1,-2,0,-1,1,0,-1
1576753848188804,2,2,1,-4,0,-2,2,-3
1576753848197746,5,2,0,-1,0,-1,-3,0
1576753848197746,4,-1,-2,1,0,-1,-1,-4
1576753848212804,8,1,0,2,0,0,-2,-1
1576753848212804,-1,-4,-1,-1,-1,0,-2,1
1576753848214696,4,-2,-1,-2,0,0,0,-4
1576753848214696,7,1,-3,-3,-3,0,1,-2
1576753848235641,-2,0,-2,0,1,0,0,-1
1576753848235641,1,-1,1,0,-1,1,0,2
1576753848236638,1,-1,2,1,1,-3,0,-2
1576753848236638,-2,-3,-1,1,-4,0,1,3
1576753848248706,-2,0,1,-1,2,-4,3,0
1576753848248706,2,-3,-4,-3,-1,1,0,-1
1576753848257583,0,3,0,-1,-2,-2,1,1
1576753848257583,0,-1,-1,1,1,0,0,2
1576753848272643,10,-3,-2,0,-2,-3,-1,-1
1576753848272643,-2,-1,-1,-1,1,-1,3,0
1576753848274580,8,-1,-2,-1,-4,-2,-2,1
1576753848274580,3,0,-4,-1,-2,-2,-2,-4
1576753848295526,4,-3,0,-1,0,2,0,2
1576753848295526,-5,-4,-1,0,0,0,-1,-3
1576753848296478,0,-2,-3,-1,0,-1,0,-1
1576753848296478,-6,-2,-1,-2,-1,-1,-3,0
1576753848308548,0,3,-2,-2,2,0,-1,-3
1576753848308548,-6,2,0,0,-1,-1,0,1
1576753848317468,-4,-4,0,0,-3,-1,-2,-1
1576753848317468,1,-1,-1,-1,0,-1,1,0
1576753848332484,6,1,-2,-1,-1,-3,2,1
1576753848332484,1,-1,0,-1,0,0,-3,-1
1576753848334380,2,1,0,1,1,3,1,1
1576753848334380,-1,-1,-2,-1,-3,-2,1,0
1576753848355416,4,-2,2,0,-2,0,-3,-4
1576753848355416,2,1,0,0,-1,-2,3,0
1576753848356328,-3,-1,-2,-1,-2,-1,-1,1
1576753848356328,2,4,3,-1,-1,1,-4,-3
1576753848369286,-2,1,1,1,0,1,-1,2
1576753848369286,-1,-2,0,-1,0,-3,0,1
1576753848377357,-3,-1,-3,-4,0,-1,-1,0
1576753848377357,3,-2,-1,0,-1,-3,-1,1
1576753848392322,-7,0,-1,-1,0,-3,1,-1
1576753848392322,7,-1,1,-1,-1,-1,-3,-1
1576753848394227,3,-1,0,0,0,-3,2,1
1576753848394227,4,-1,0,-1,2,1,-1,-4
1576753848415260,-1,-3,-6,-3,-3,-4,-1,0
1576753848415260,1,-2,-3,0,0,-1,-2,-4
1576753848417161,3,4,-1,2,-1,1,0,0
1576753848417161,1,-1,-1,-1,0,-3,-4,-3
1576753848438104,2,1,-1,0,1,2,-1,1
1576753848438104,-2,-6,-2,-2,-1,1,-3,-2
1576753848439103,2,1,1,-1,1,0,-4,-3
1576753848439103,7,0,-1,-2,-1,0,1,2
1576753848453059,-12,-2,1,-1,-1,-1,1,-2
1576753848453059,-7,2,-1,-1,0,-2,2,-2
1576753848454064,-1,0,-1,-1,-2,-1,1,-1
1576753848454064,-5,-2,0,0,1,0,-3,-1
1576753848475036,-2,-5,-1,-3,-1,-3,-3,0
1576753848475036,0,-1,-2,-2,-1,-1,0,-6
1576753848477003,1,-1,2,1,0,2,0,2
1576753848477003,0,0,-1,-1,-3,-2,1,0
1576753848498050,1,1,0,-2,-2,2,-4,-2
1576753848498050,-3,-1,1,1,-1,-3,-5,1
1576753848498938,3,0,0,-2,-2,-2,0,-1
1576753848498938,4,-1,-1,-2,-1,-2,0,1
1576753848513009,7,0,-3,-1,-1,2,0,1
1576753848513009,1,-3,-4,-1,-2,4,-2,1
1576753848513896,3,-1,-3,-2,-1,-2,-2,0
1576753848513896,2,-1,-1,-1,-1,-2,-1,-2
1576753848534841,0,0,0,2,2,-1,2,-3
1576753848534841,8,2,-2,-2,1,0,1,1
1576753848536842,4,-4,-2,-2,2,0,1,-3
1576753848536842,-2,-1,1,-3,-1,-3,0,-2
1576753848557879,0,-1,-1,-1,-1,2,1,0
1576753848557879,7,0,-2,0,-3,-1,-1,-1
1576753848558785,0,2,0,0,-1,-1,2,-2
1576753848558785,1,0,-1,2,2,-2,0,-3
1576753848572839,3,1,0,-2,0,-1,-3,0
1576753848572839,5,2,-1,-1,1,0,-2,-2
1576753848574743,6,1,0,-1,-3,-1,2,2
1576753848574743,2,1,0,-1,-2,-1,0,-3
1576753848595679,-3,-1,-1,-2,-1,1,0,-4
1576753848595679,-3,-2,1,-2,0,-2,-1,0
1576753848596683,1,2,-1,1,3,0,-3,-1
1576753848596683,2,-2,-2,-3,-3,-1,0,0
1576753848617737,4,-4,2,2,1,-1,-1,0
1576753848617737,0,1,-3,-1,-1,-2,0,-2
1576753848619613,-1,-4,1,-1,0,3,-2,2
1576753848619613,-1,0,-1,1,2,-1,-1,3
1576753848632579,-3,-4,-3,1,0,0,-2,0
1576753848632579,-3,0,1,-1,-1,-3,-1,-2
1576753848638606,-1,-2,0,-2,-2,-4,-3,-4
1576753848638606,3,0,0,0,-1,-1,0,1
1576753848655564,1,1,0,0,1,-2,0,3
1576753848655564,0,-2,-2,0,0,-2,-1,-3
1576753848656526,0,0,2,2,1,0,0,1
1576753848656526,-4,-2,0,-2,0,3,0,0
1576753848677559,-2,1,-2,-3,-3,0,3,0
1576753848677559,7,-1,-4,-1,-2,-3,0,0
1576753848679459,2,-1,-3,-2,-3,0,1,-2
1576753848679459,1,-1,0,0,-2,-2,0,0
1576753848692444,3,-1,-1,-1,-1,-7,0,-2
1576753848692444,-4,0,1,-2,0,1,-1,2
1576753848698510,3,1,-1,0,0,0,-2,-2
1576753848698510,-2,-1,-3,-1,-2,1,-2,2
1576753848715471,1,-1,-1,-1,-1,4,0,-5
1576753848715471,-3,-1,-4,-1,-1,0,1,-1
1576753848716400,-3,-3,-2,-2,-1,-2,-3,-3
1576753848716400,0,-1,3,1,1,0,-2,-4
1576753848737363,-9,-1,-1,-1,0,-1,1,4
1576753848737363,-3,1,0,0,0,-1,1,1
1576753848739304,-3,-2,-4,0,-1,-1,2,3
1576753848739304,0,-1,-2,0,1,-3,-1,-2
1576753848752260,2,-1,-2,0,-1,3,-1,-3
1576753848752260,2,-1,2,2,0,-2,0,-5
1576753848759280,8,1,0,-3,-2,-1,-2,-4
1576753848759280,-6,-2,0,-2,-1,0,-1,-2
1576753848775297,5,0,1,1,1,-2,0,2
1576753848775297,-10,0,3,-4,-2,2,-5,-3
1576753848777199,0,3,-1,0,-3,0,1,1
1576753848777199,-2,-3,-2,-2,-1,1,0,2
1576753848798138,2,0,-1,-3,-1,0,-1,-5
1576753848798138,0,-1,1,-1,0,-1,0,2
1576753848799142,0,-1,-2,-2,1,-2,2,-2
1576753848799142,-2,0,-2,-2,-2,0,-4,-4
1576753848812143,1,-2,-3,0,0,-1,-1,-2
1576753848812143,2,-1,2,0,-1,-2,-5,-2
1576753848819079,-2,-2,-1,0,-2,-2,2,2
1576753848819079,-2,-1,1,0,1,-1,-2,2
1576753848835039,-2,-3,-2,-3,-1,-2,-1,-6
1576753848835039,6,0,-2,1,-3,2,0,-1
1576753848837039,-5,-1,-2,-1,1,-1,-4,-2
1576753848837039,1,2,0,-1,0,3,0,-4
1576753848858049,1,-1,0,1,-1,0,-1,2
1576753848858049,5,0,-3,0,-2,-2,0,-1
1576753848858985,-2,-2,-1,0,-2,-2,-2,0
1576753848858985,-3,-3,-1,-4,-2,1,0,1
1576753848880014,-3,0,1,1,-1,1,-4,-1
1576753848880014,-8,1,0,-1,-2,1,5,-4
1576753848881919,0,-3,0,2,-1,0,-1,0
1576753848881919,-1,2,-2,2,1,-4,0,-4
1576753848894923,-8,1,-2,-1,2,-1,0,-4
1576753848894923,1,-2,-1,0,0,-1,-1,0
1576753848896880,1,0,0,-1,-5,-2,-5,-3
1576753848896880,-5,0,1,-3,-1,0,0,1
1576753848917864,-1,1,-1,1,-2,-2,1,-2
1576753848917864,2,-1,-3,-1,-1,0,0,1
1576753848918815,-3,1,1,-1,0,-1,-1,-4
1576753848918815,5,1,-2,3,-2,-1,-3,-2
1576753848931781,7,-2,-1,-2,0,0,2,-2
1576753848931781,0,-2,0,-2,-1,1,-4,-2
1576753848940756,-3,-1,0,-2,-2,-2,1,0
1576753848940756,4,-1,0,-2,0,-1,0,0
1576753848954819,-2,0,-2,2,-3,-2,-4,1
1576753848954819,2,0,1,-1,0,-2,0,-1
1576753848956721,0,-3,0,0,1,3,0,-1
1576753848956721,0,-1,-1,-1,0,-1,-1,1
1576753848977756,3,-2,-2,-1,1,0,-1,-1
1576753848977756,1,-1,0,-1,0,-1,-2,2
1576753848979693,2,-4,0,-4,-1,-5,-1,-3
1576753848979693,4,-2,-1,1,0,0,2,-1
1576753848991713,7,-1,1,-1,-3,0,-2,0
1576753848991713,0,1,-1,2,-1,-4,-4,0
1576753849000637,1,-2,-3,0,1,-2,-2,2
1576753849000637,3,0,-2,-2,-3,-1,-1,-3
1576753849015602,4,-4,2,0,3,-1,0,-3
1576753849015602,7,1,-2,0,-1,-4,-4,0
1576753849016553,-5,1,-1,-2,-1,0,-2,-2
1576753849016553,0,-3,-1,-1,0,1,0,4
1576753849037507,-7,1,1,1,0,0,3,2
1576753849037507,-4,-4,-6,-2,-2,0,2,1
1576753849039496,2,-1,-1,-1,-1,0,0,1
1576753849039496,-1,1,-3,0,-1,-3,1,0
1576753849051460,3,0,-3,-1,0,-1,-3,-2
1576753849051460,0,-1,1,1,0,-3,-4,-3
1576753849060471,1,-1,-1,-1,-1,-4,0,-4
1576753849060471,3,-3,-1,1,-1,0,2,-1
1576753849075505,4,2,-2,-3,-1,0,0,2
1576753849075505,1,-2,0,-1,0,0,-3,0
1576753849076404,8,-3,-2,2,1,2,1,0
1576753849076404,7,-1,1,-1,-1,-4,-2,0
1576753849097433,3,-2,-2,2,1,-2,-1,0
1576753849097433,5,1,-3,1,0,3,0,0
1576753849099340,2,-4,0,0,-2,-2,1,1
1576753849099340,-1,-1,-3,-1,0,-1,-1,2
1576753849111395,3,-5,-1,-2,-1,0,-1,0
1576753849111395,-3,0,-2,2,-1,-1,2,-1
1576753849120279,2,1,0,0,-1,-2,-3,-2
1576753849120279,-1,-1,1,-1,-1,3,0,-4
1576753849135281,1,2,0,-2,0,-2,-1,-2
1576753849135281,-2,-2,2,-2,-1,1,3,-1
1576753849137231,-2,-3,-3,-3,-1,-1,-1,1
1576753849137231,2,0,2,1,1,-1,-1,-3
1576753849158173,-3,3,-2,0,-2,-3,-2,-3
1576753849158173,2,-1,1,-2,0,0,-1,3
1576753849159176,-6,1,1,0,1,1,1,-3
1576753849159176,0,-2,-1,-2,-2,-3,-3,-3
1576753849171238,-4,-2,-3,-2,0,-2,-3,-3
1576753849171238,5,0,-2,1,1,0,-1,-2
1576753849180122,2,3,-1,-2,0,-2,-2,-3
1576753849180122,-6,2,0,-1,-2,2,-4,-1
1576753849195121,8,-2,0,-1,-2,0,-1,2
1576753849195121,-2,2,0,-3,-2,1,-1,-1
1576753849201109,0,0,1,-2,0,2,1,3
1576753849201109,7,0,-2,2,0,1,-1,-4
1576753849218015,-2,0,-1,0,-1,1,1,-1
1576753849218015,5,-3,1,1,0,-1,-1,-4
1576753849219011,5,1,-2,-1,-1,-1,-3,-1
1576753849219011,2,-1,1,1,2,1,0,-4
1576753849231079,-7,-2,-2,-1,-1,1,1,-2
1576753849231079,1,-3,-3,-3,-2,0,0,-1
1576753849240000,2,-4,0,1,-1,1,-1,-4
1576753849240000,-2,0,-2,-1,-2,-3,-1,5
1576753849255014,-7,0,-3,-1,0,0,1,-4
1576753849255014,-5,-3,0,0,-2,-3,-1,-3
1576753849256912,0,1,1,0,-1,-1,2,-3
1576753849256912,-2,-1,-1,-2,-1,-2,0,-3
1576753849277855,-9,-1,-2,-3,0,0,-4,-1
1576753849277855,7,2,-1,-1,1,-1,-1,-1
1576753849285834,-6,-3,-2,-1,-2,-5,-2,0
1576753849285834,5,1,1,-2,-2,1,-2,-1
1576753849291824,3,-2,-2,0,1,-2,2,-2
1576753849291824,-4,-2,-1,2,1,1,2,-3
1576753849299889,4,0,-1,0,-2,2,-1,0
1576753849299889,1,-2,-1,-2,-3,-1,1,0
1576753849314855,-1,-1,-1,-2,-1,-1,0,1
1576753849314855,-6,-3,-2,-2,0,-1,1,1
1576753849316757,3,3,-1,1,2,1,-4,2
1576753849316757,-6,-1,-2,0,0,1,0,-4
1576753849337790,3,-2,-2,-4,1,-3,2,1
1576753849337790,-5,-1,-1,-3,0,-2,-1,-3
1576753849339698,1,1,-2,0,1,-3,-1,-2
1576753849339698,14,-4,-2,-1,0,-1,-2,-1
1576753849351657,2,0,1,0,-3,2,-2,-7
1576753849351657,8,-1,-2,0,-2,-2,-1,-1
1576753849360676,-2,-1,-2,-2,1,0,-1,-2
1576753849360676,6,-1,-1,1,-2,2,-3,2
1576753849375630,-2,0,2,-3,1,2,-1,-5
1576753849375630,0,0,0,1,1,-1,-1,1
1576753849376605,-1,-2,1,1,-1,1,-1,-3
1576753849376605,0,-1,-3,0,0,0,-2,-2
1576753849397633,5,-1,-2,1,-4,1,0,-1
1576753849397633,1,0,-1,-3,-2,-2,0,1
1576753849399543,0,-4,0,-2,-2,-3,2,5
1576753849399543,-6,2,-3,-1,-1,1,-1,-2
1576753849420508,5,-1,-3,0,1,-1,-2,4
1576753849420508,-2,-2,-3,1,-2,1,-2,-1
1576753849421484,3,-1,-1,0,1,0,0,-2
1576753849421484,2,-2,-4,-1,0,-2,2,-2
1576753849435433,2,-3,3,0,-1,-3,-1,0
1576753849435433,5,0,0,0,1,0,-1,-1
1576753849436430,6,1,0,0,-1,-1,2,-1
1576753849436430,4,-2,-1,0,1,0,3,-1
1576753849457379,-1,1,-1,2,0,1,-4,1
1576753849457379,10,1,-2,-3,-2,-2,-1,2
1576753849459377,5,-2,0,-1,0,0,1,0
1576753849459377,-2,-2,0,-2,-2,-1,1,-1
1576753849480408,1,0,-2,1,1,0,1,0
1576753849480408,-1,-1,-2,-1,-2,2,-2,-2
1576753849481357,1,0,-2,-2,-3,-2,1,0
1576753849481357,1,-1,-3,1,0,-1,-2,-1
1576753849495372,-1,3,1,1,-2,2,-1,4
1576753849495372,2,1,0,0,-1,-4,1,-3
1576753849496313,8,-1,-4,-3,-2,-3,-4,-4
1576753849496313,2,-2,1,0,-1,0,0,-2
1576753849517314,1,-2,-1,-2,-2,0,-1,-2
1576753849517314,-3,-2,-1,-1,0,-2,1,-1
1576753849519209,7,-1,1,-2,0,2,1,1
1576753849519209,-1,0,1,1,1,-2,-2,2
1576753849540250,2,-4,-3,-1,0,1,-1,-3
1576753849540250,5,-1,-2,-1,-2,-3,-2,-4
1576753849542154,-5,0,-2,0,-2,2,-2,2
1576753849542154,0,-2,-3,-4,-1,-2,-1,-1
1576753849554225,2,-1,0,-2,-1,0,2,-2
1576753849554225,-4,1,1,0,-1,-1,-1,2
1576753849561198,0,-1,-1,-1,0,-3,0,-1
1576753849561198,-1,1,-1,-1,0,-1,4,1
1576753849578097,-5,-1,-3,-1,-2,0,-3,0
1576753849578097,-2,-1,-1,-1,-2,3,2,-1
1576753849579057,2,1,1,2,-1,1,0,0
1576753849579057,-2,0,1,-3,0,-4,-2,-1
1576753849600092,1,-2,-2,-1,-2,-3,-1,-3
1576753849600092,4,-3,-1,0,0,0,-1,1
1576753849601987,-4,-1,-2,-2,-3,-1,-2,-1
1576753849601987,5,-2,0,1,-1,-2,1,-3
1576753849614952,-6,0,0,-2,0,3,-1,-1
1576753849614952,-3,-1,0,0,3,1,-6,-2
1576753849620979,1,-2,0,0,-1,-2,1,-1
1576753849620979,2,0,-4,-1,-2,1,-3,0
1576753849637990,0,0,3,-1,0,-2,-1,-1
1576753849637990,-4,-3,0,-1,-2,0,2,2
1576753849638895,-8,0,0,1,1,1,2,-2
1576753849638895,-1,-2,-1,-1,-1,-1,0,-2
1576753849659877,2,-2,1,0,0,1,3,2
1576753849659877,-5,0,-1,-3,-1,-1,0,-7
1576753849661863,0,1,-1,-1,-1,-2,-4,0
1576753849661863,-5,0,0,0,-1,0,-3,3
1576753849674885,1,-2,1,0,-1,-5,0,-1
1576753849674885,2,-2,-2,2,0,1,1,-2
1576753849681782,2,-4,-4,-4,-2,-2,-2,-1
1576753849681782,0,-2,3,2,3,1,1,-4
1576753849697831,-3,-1,-4,-1,-2,-1,-6,-1
1576753849697831,0,3,0,-1,-1,-1,-3,-5
1576753849699726,3,-5,-3,2,1,-1,0,1
1576753849699726,0,0,1,-1,1,1,1,1
1576753849719675,1,-1,0,0,-2,-1,2,-3
1576753849719675,7,-1,-2,-1,-2,-1,-2,5
1576753849721675,4,1,1,0,-1,1,-1,-3
1576753849721675,-1,0,-2,-3,-2,-1,-1,-4
1576753849734634,4,-1,-1,0,0,2,0,-5
1576753849734634,1,-5,-2,-2,-1,-2,0,1
1576753849741697,-2,-4,-1,1,-1,-2,-4,-1
1576753849741697,6,2,-5,-2,-1,-1,-1,-2
1576753849757569,13,-3,-1,0,1,-1,-3,1
1576753849757569,-2,-1,1,-2,-2,-2,2,-2
1576753849759564,3,-1,-1,-1,-1,-3,-1,-7
1576753849759564,1,0,0,0,-3,1,1,0
1576753849780569,-3,0,-1,-1,1,-2,-3,1
1576753849780569,6,0,0,0,1,0,0,0
1576753849781509,1,2,1,2,2,0,2,-2
1576753849781509,4,-2,0,-3,-3,4,-4,-1
1576753849794572,-4,0,-2,-3,-2,-2,-1,-1
1576753849794572,-2,-3,-2,0,-1,-1,2,1
1576753849801454,0,1,1,-2,1,-1,-3,-1
1576753849801454,-5,-2,-5,-1,0,-1,3,-1
1576753849817459,-1,0,-1,-1,-1,-3,2,-1
1576753849817459,-1,-2,-1,0,-1,-2,-1,-5
1576753849819405,0,-1,-2,-1,-3,1,-2,-6
1576753849819405,-3,-3,-2,0,0,-2,-2,0
1576753849840448,-3,2,-3,0,-2,0,-1,-3
1576753849840448,2,1,-1,0,1,2,-3,-3
1576753849841357,4,-2,0,-2,-4,-2,1,1
1576753849841357,-1,0,0,-2,-3,-1,-1,0
1576753849854411,6,0,-1,0,2,-3,-2,1
1576753849854411,-3,-2,0,1,-2,-1,-1,-1
1576753849861388,5,-1,0,1,2,0,-1,-1
1576753849861388,8,0,-3,-1,1,-1,1,0
1576753849878250,-5,-4,0,-2,-1,-3,0,3
1576753849878250,-8,1,0,-2,1,2,3,2
1576753849879253,6,2,-2,0,-2,1,1,0
1576753849879253,1,-1,1,1,-3,-2,-1,-6
1576753849900285,-5,0,-2,-2,-1,2,1,-2
1576753849900285,2,-1,-1,-1,-2,-2,0,-3
1576753849901188,-6,-2,-1,-1,0,-1,-1,2
1576753849901188,4,-1,0,0,0,-1,-1,-2
1576753849914220,1,-2,-1,1,0,1,-1,1
1576753849914220,3,1,-2,-1,-1,-2,-4,-3
1576753849923137,-1,-2,-2,-2,0,1,5,-1
1576753849923137,2,-2,1,2,0,-4,0,-3
1576753849938128,-3,-3,0,-3,-1,-1,1,-4
1576753849938128,6,-1,2,-1,0,-2,0,-1
1576753849939095,1,3,-2,-3,-2,1,0,2
1576753849939095,1,-1,-1,0,-1,1,-1,1
1576753849960126,-6,1,-1,-1,-2,3,0,-6
1576753849960126,-2,-2,-3,-2,-5,-2,-3,0
1576753849962068,5,-3,-4,-2,-3,-3,2,2
1576753849962068,0,-1,-3,-2,0,0,2,-2
1576753849973997,3,-2,-1,-1,0,-1,-1,-3
1576753849973997,-2,-1,0,-1,-3,1,0,0
1576753849983011,-4,-4,-1,2,0,-4,-3,2
1576753849983011,-2,0,-3,-3,-4,-3,-3,0
1576753849998041,-3,1,3,2,3,1,-3,-2
1576753849998041,-10,2,3,0,-1,0,1,-1
1576753849998927,3,-3,-3,-1,0,-1,2,-2
1576753849998927,-3,-2,2,1,1,-1,-2,-1
1576753850019911,-5,2,-1,0,-1,-1,-1,-2
1576753850019911,3,4,0,-3,-1,-4,-6,-4
1576753850021907,3,0,1,-2,0,-1,-2,-6
1576753850021907,-2,-3,-2,-1,-1,-3,-4,-2
1576753850033932,-3,-1,-2,-2,-1,0,-1,-2
1576753850033932,9,-3,0,1,-1,-3,0,-1
1576753850042821,-3,2,-2,0,-1,1,-4,-3
1576753850042821,-1,3,-1,0,-2,0,0,0
1576753850057868,-8,-5,-2,-1,-2,-3,-1,1
1576753850057868,2,-3,-1,1,0,-1,-1,-4
1576753850058775,-1,-2,1,1,-1,3,1,-1
1576753850058775,-4,1,-1,-2,0,-3,-1,4
1576753850080708,0,1,-2,0,0,-1,0,0
1576753850080708,0,-3,-1,-2,0,1,1,0
1576753850081711,-7,2,4,0,1,-2,1,-2
1576753850081711,4,0,-1,1,-1,1,-1,-3
1576753850093771,6,0,1,1,-2,0,-1,0
1576753850093771,1,0,-1,0,0,0,0,-2
1576753850102647,1,-2,-3,-3,-2,-3,0,0
1576753850102647,5,-3,1,-1,2,-1,2,1
1576753850117621,10,2,-1,-1,-2,2,0,0
1576753850117621,-3,-5,-5,-1,1,-1,2,-2
1576753850119610,4,1,-3,-2,-1,-2,-1,2
1576753850119610,5,-3,1,-1,0,-1,0,-1
1576753850140595,-1,1,1,-1,0,-2,2,0
1576753850140595,-2,0,-2,1,-2,0,-2,-1
1576753850141551,5,2,0,0,-3,-1,0,0
1576753850141551,-1,-3,-2,0,0,1,1,0
1576753850153556,1,-1,0,-1,-1,0,-2,-2
1576753850153556,-1,-2,0,0,0,-2,-1,-2
1576753850162515,4,-3,-3,-2,0,0,-1,-1
1576753850162515,2,1,-2,-1,-1,0,0,-2
1576753850177547,5,-2,0,1,0,-2,1,3
1576753850177547,0,1,-1,-1,-2,-2,1,3
1576753850179450,8,-2,-3,0,-2,0,-3,1
1576753850179450,1,2,-1,-5,-2,-1,0,-3
1576753850207466,2,-3,-3,-2,-1,-1,-2,-2
1576753850207466,-2,0,2,-1,1,0,2,1
1576753850209372,-1,2,-1,2,1,-2,0,-2
1576753850209372,0,-3,-1,-2,-4,-2,-2,1
1576753850214350,-2,-2,-5,-3,-1,-2,-3,-3
1576753850214350,10,2,0,1,0,-2,-3,2
1576753850222425,-2,0,2,-2,-1,-1,1,-3
1576753850222425,0,-1,-2,0,1,2,-1,-3
1576753850237291,4,0,-3,-2,-1,-3,2,-5
1576753850237291,2,0,-1,2,0,0,-3,-6
1576753850239292,-1,0,0,0,-2,-2,-1,2
1576753850239292,4,-1,-1,-1,1,-3,-2,2
1576753850260330,1,0,0,-2,1,-4,0,-5
1576753850260330,-2,1,-2,-4,-2,0,2,-2
1576753850262221,4,-2,-2,0,-2,-2,0,3
1576753850262221,-1,4,1,1,0,-2,-2,-4
1576753850274240,7,-2,-1,1,1,-1,-3,2
1576753850274240,-2,0,0,-3,-3,1,-2,0
1576753850283218,-1,0,-2,-3,0,2,-1,-5
1576753850283218,1,0,1,4,1,-2,3,1
1576753850298134,-3,-4,-4,-4,-4,-3,-2,5
1576753850298134,-1,-2,0,1,0,-2,0,0
1576753850299131,2,1,-2,-1,-2,1,1,1
1576753850299131,3,0,-1,-3,-1,-4,0,-5
1576753850320109,2,3,1,2,0,0,0,-1
1576753850320109,-7,-3,-4,-1,-1,-1,-1,-2
1576753850322069,0,0,-2,-1,0,2,-1,-1
1576753850322069,0,-5,-4,-1,-1,1,-1,-2
1576753850343045,-4,1,2,0,1,1,2,2
1576753850343045,2,-1,2,-1,-2,-2,-3,1
1576753850344002,3,-4,-3,-1,-1,-1,0,-1
1576753850344002,0,1,0,-2,-1,0,-1,0
1576753850358040,-7,-4,0,1,1,0,-2,-2
1576753850358040,5,-1,-6,-1,-1,-1,2,0
1576753850358972,-1,0,2,0,-3,-4,3,0
1576753850358972,0,-1,-2,2,-1,-1,-1,-2
1576753850380006,-5,-4,1,0,-1,3,-2,-4
1576753850380006,-2,3,0,1,1,-1,-1,1
1576753850381908,10,-5,0,1,3,-2,-4,3
1576753850381908,-3,-2,-1,-1,1,0,1,-1
1576753850402848,6,1,-3,-1,-2,-3,0,-3
1576753850402848,-4,-2,-2,-3,0,-1,2,0
1576753850403850,-2,-2,-2,-1,-2,1,-1,-7
1576753850403850,2,-2,1,-1,-1,-1,3,5
1576753850417806,8,-1,0,-2,0,0,1,3
1576753850417806,9,2,-1,-2,-2,-2,-4,-1
1576753850418803,6,1,0,-1,0,-5,0,-4
1576753850418803,9,-4,-1,0,0,-1,-2,3
1576753850439847,-5,0,-4,-2,-1,2,-2,-3
1576753850439847,4,-3,0,-1,-2,1,1,0
1576753850441772,3,-2,1,-1,0,0,1,1
1576753850441772,0,-1,-3,0,-1,0,-1,0
1576753850462787,-3,0,-1,0,0,0,0,1
1576753850462787,3,-2,-1,0,0,0,-2,0
1576753850464680,-5,1,1,-1,0,-1,-2,-1
1576753850464680,3,1,-2,-3,1,-1,-2,-3
1576753850477689,3,3,0,3,1,1,-3,-1
1576753850477689,2,0,-3,-1,-2,0,1,0
1576753850479692,2,-1,1,-3,-1,0,0,5
1576753850479692,-5,0,-1,-3,1,2,1,1
1576753850500654,-2,1,3,-1,-1,-3,3,-1
1576753850500654,-1,-1,1,-1,0,-2,0,-3
1576753850501588,1,2,0,4,2,3,-1,1
1576753850501588,5,-2,-3,0,-3,-1,-4,-1
1576753850522625,0,-4,-4,-4,-1,-3,0,-3
1576753850522625,-2,-1,1,0,-2,0,2,-2
1576753850524529,-3,1,-1,-1,-1,-2,-1,-1
1576753850524529,0,-2,1,-2,0,1,-1,-6
1576753850537504,1,-2,-3,2,0,0,-1,-4
1576753850537504,-1,-1,0,-2,-3,-2,0,-2
1576753850543569,-1,-1,-1,0,1,-1,1,1
1576753850543569,5,0,0,1,0,1,-3,-5
1576753850560535,-7,3,2,-1,1,2,-1,5
1576753850560535,-6,0,-1,-1,1,1,-1,-3
1576753850561437,-1,-1,-5,-2,-3,0,0,1
1576753850561437,-1,-2,2,-1,2,-3,1,3
1576753850582467,-1,-1,-1,-2,-1,0,1,-2
1576753850582467,1,0,-3,-2,0,2,-1,0
1576753850584361,1,-2,1,2,0,-1,-2,-5
1576753850584361,-1,2,-2,0,-1,-3,0,1
1576753850597423,-3,2,2,0,-1,-1,-3,-2
1576753850597423,-3,-2,1,-1,-1,2,0,-4
1576753850603346,6,-2,-2,-3,-4,-3,-1,-2
1576753850603346,-4,-1,0,0,-3,3,2,3
1576753850620283,2,-2,-1,-1,1,-3,-2,0
1576753850620283,3,-1,-1,-2,-1,-4,-5,1
1576753850621303,-8,-2,-1,-2,-1,1,0,-6
1576753850621303,-5,-1,-1,0,-1,3,2,-3
1576753850642249,3,-1,-3,-3,-6,-1,-1,-4
1576753850642249,-3,0,-1,0,2,-1,1,2
1576753850644203,2,-1,-3,-1,-1,1,1,-1
1576753850644203,-2,-3,-1,-2,0,2,-3,0
1576753850657263,-11,-2,-3,-1,-3,-1,3,1
1576753850657263,2,0,-2,0,-2,-3,-1,2
1576753850664214,1,-2,-1,-1,-1,0,-2,1
1576753850664214,2,1,-1,-2,-1,0,-2,-1
1576753850680204,9,-4,0,0,1,-1,3,3
1576753850680204,-2,1,1,1,-1,-1,-3,-4
1576753850682140,3,-1,-3,-3,-1,-3,0,0
1576753850682140,4,-1,-4,0,1,1,1,-3
1576753850703085,2,-2,0,-1,-2,-1,-1,-2
1576753850703085,1,-2,-2,-2,-2,0,0,-1
1576753850704041,3,0,-1,0,0,2,-1,-2
1576753850704041,1,0,0,0,0,0,-3,-4
1576753850717105,2,-4,-2,-2,-1,-1,2,-1
1576753850717105,0,-1,-2,1,0,0,2,0
1576753850724086,-3,1,0,-1,-1,-3,1,0
1576753850724086,1,-5,-1,-2,-2,-2,1,2
1576753850740043,2,2,1,1,-2,-1,-1,-4
1576753850740043,1,-3,-2,-1,-1,-2,-2,-2
1576753850741949,6,-2,1,0,0,-1,-3,-2
1576753850741949,-1,-1,0,0,0,-3,0,-2
1576753850762993,-7,-1,-2,-2,0,-2,-5,-1
1576753850762993,-3,2,-2,0,-2,0,-2,-1
1576753850763892,-6,-2,-1,-1,-1,0,-2,-2
1576753850763892,6,1,-1,-1,-2,1,-1,1
1576753850776945,3,1,0,1,1,-1,-2,-1
1576753850776945,2,-2,-2,-4,-2,-2,-4,-2
1576753850783885,-5,-3,-4,-1,0,0,1,-2
1576753850783885,3,1,-1,1,-2,0,2,2
1576753850800790,-4,1,3,-1,0,-1,-3,-1
1576753850800790,4,2,-3,0,0,0,-1,-5
1576753850801778,-6,-1,0,-1,-1,0,3,-3
1576753850801778,2,-2,1,-1,-2,-2,0,3
1576753850822822,5,-2,-2,-1,-2,-1,2,-1
1576753850822822,5,-2,0,0,1,0,-1,-1
1576753850824725,1,1,-1,0,-1,-2,-1,-1
1576753850824725,1,0,-1,0,-1,0,-2,-3
1576753850836688,2,0,-3,1,0,2,-2,-3
1576753850836688,-3,-2,3,0,0,-2,-1,-1
1576753850845707,11,-1,0,0,-2,1,0,3
1576753850845707,6,-4,-1,-1,-2,0,-1,-1
1576753850860624,-2,1,-2,-2,-1,-2,-3,1
1576753850860624,7,-3,-1,1,-2,0,1,-1
1576753850861631,5,0,1,0,1,1,-3,3
1576753850861631,6,4,-1,0,0,-2,-3,-1
1576753850882666,-2,-3,-2,1,-1,-1,-3,-3
1576753850882666,-4,-1,-1,-1,-1,-2,1,0
1576753850884558,1,-2,-4,-1,-2,-2,0,-2
1576753850884558,-1,-1,-4,-1,-2,0,1,0
1576753850896624,0,0,1,-1,1,-3,-2,-1
1576753850896624,1,1,-1,-1,-1,-1,-2,3
1576753850905509,8,-1,1,0,2,-3,2,-1
1576753850905509,-8,1,0,-1,2,0,3,1
1576753850920469,1,-3,1,1,-2,0,0,0
1576753850920469,3,-3,-1,-2,1,0,0,-1
1576753850921459,1,-1,-2,-3,-3,-1,-2,3
1576753850921459,-3,2,-1,-2,0,-2,0,-4
1576753850942447,-1,-2,2,-1,-1,0,2,-3
1576753850942447,2,0,-3,1,-1,0,-2,2
1576753850944405,7,-1,-4,-2,0,0,-3,-5
1576753850944405,8,2,1,0,-1,-1,-1,-4
1576753850956465,-5,-1,-2,-2,-1,1,0,-2
1576753850956465,-3,-2,1,-2,-2,-2,0,1
1576753850965388,2,-2,0,0,-3,0,2,0
1576753850965388,2,-1,-1,3,0,0,-1,0
1576753850980396,9,1,-2,0,1,-1,-3,-2
1576753850980396,5,0,-1,2,0,3,1,-3
1576753850981345,-2,0,-1,-2,0,-2,-3,-2
1576753850981345,3,-5,1,0,1,-2,2,2
1576753851002243,-1,-1,1,-2,1,-1,-2,-1
1576753851002243,7,1,-1,-2,-3,-3,2,-1
1576753851004244,-2,2,-2,1,-1,-3,2,3
1576753851004244,-2,-1,-4,-3,-2,2,-2,-2
1576753851016306,2,-1,-4,-1,0,0,-1,-6
1576753851016306,7,-1,1,0,2,-2,-2,-3
1576753851025186,-5,-1,1,-2,0,0,0,-2
1576753851025186,-2,-3,-2,-2,0,-3,-2,4
1576753851040242,1,1,1,0,0,1,3,1
1576753851040242,-5,-1,-3,0,-2,1,-1,0
1576753851042142,1,-1,1,-3,0,-1,-2,0
1576753851042142,1,0,-1,0,1,1,2,-4
1576753851063180,0,-5,0,-2,-2,0,0,3
1576753851063180,-5,-1,-1,0,1,0,3,-1
1576753851065117,2,-3,-1,-1,0,0,2,0
1576753851065117,-7,0,-1,-2,-2,-2,-3,-4
1576753851076144,-3,0,0,-2,-3,1,0,1
1576753851076144,-1,-1,-2,-3,-1,1,-2,-2
1576753851085022,4,0,-2,-1,-1,1,-3,-5
1576753851085022,-2,3,-2,-3,-2,0,-3,-6
1576753851100081,2,-2,-3,0,0,1,2,3
1576753851100081,-4,3,-2,-4,-3,-1,-1,-3
1576753851101977,8,-1,-2,2,-1,1,0,-3
1576753851101977,6,-3,0,0,-2,-3,0,2
1576753851123032,-3,-4,-1,-2,-3,-6,0,-6
1576753851123032,0,0,0,-1,-2,-3,-3,-1
1576753851123927,3,0,2,0,1,-1,-3,-2
1576753851123927,-3,-6,-4,-1,1,0,-2,0
1576753851136883,-7,-1,2,1,1,-4,0,3
1576753851136883,2,-4,-2,-1,-2,-1,-1,1
1576753851144918,1,0,-1,-1,-2,-1,0,1
1576753851144918,-8,1,0,-3,-2,0,1,0
1576753851159921,-3,-1,-4,0,-1,3,0,-2
1576753851159921,-4,0,-1,0,0,-2,-2,-1
1576753851161823,4,-1,0,-1,-1,-1,0,1
1576753851161823,0,2,0,-1,-1,-3,0,-7
1576753851182860,4,0,-1,0,1,0,-1,1
1576753851182860,2,-1,0,0,1,1,-2,-1
1576753851184755,-9,1,-4,-6,-3,0,3,-2
1576753851184755,-2,2,1,0,-1,0,-2,2
1576753851196771,-2,1,-1,-2,0,0,-3,-4
1576753851196771,-4,-4,0,0,-2,-1,-4,2
1576753851205709,2,0,1,1,-2,0,-2,-3
1576753851205709,1,-2,-3,0,0,-1,-1,1
1576753851220659,-5,2,0,0,0,1,1,-3
1576753851220659,6,0,-1,-1,0,-1,0,-3
1576753851221668,0,-3,-3,-1,1,0,-1,0
1576753851221668,-4,2,2,1,3,1,4,4
1576753851242700,6,-1,-1,-1,-1,-1,-4,-3
1576753851242700,1,-1,1,0,-1,-1,2,-2
1576753851244598,2,-2,0,1,0,-1,-1,0
1576753851244598,7,0,-3,-1,-1,-3,-3,1
1576753851256672,1,1,-3,0,-3,-3,-1,0
1576753851256672,4,0,-2,-1,0,-1,-2,-1
1576753851265585,5,-1,2,-1,-1,0,2,1
1576753851265585,5,-2,-2,-1,0,1,-1,-5
1576753851280571,5,3,1,-2,-1,-1,0,0
1576753851280571,2,-2,2,-1,-4,0,2,0
1576753851281499,0,0,-2,-1,1,-1,0,-1
1576753851281499,1,-2,-1,0,0,-2,1,2
1576753851302447,-1,-1,-3,-1,0,1,-1,-2
1576753851302447,0,-2,-2,0,-2,-1,2,-2
1576753851304435,0,-1,-1,-2,1,2,-1,0
1576753851304435,9,-4,0,0,-1,1,0,-1
1576753851325421,-3,-1,-1,-2,-1,-2,-1,-2
1576753851325421,-1,0,-1,0,-1,-1,0,-2
1576753851326374,3,-2,-3,-1,-2,-2,-1,-1
1576753851326374,5,-1,-2,-1,-1,-1,-2,-1
1576753851340374,4,3,1,0,-2,0,-3,-8
1576753851340374,3,-1,-3,-1,2,1,1,1
1576753851341336,0,2,0,-1,0,-1,1,2
1576753851341336,7,0,0,0,-3,2,-3,-1
1576753851362322,0,-2,0,-2,-2,0,-1,2
1576753851362322,6,1,-1,-2,-1,-1,-1,-1
1576753851364278,7,0,0,-1,0,3,-3,0
1576753851364278,-4,1,0,0,0,1,4,2
1576753851385253,-4,-4,1,3,1,-3,2,3
1576753851385253,6,0,0,-2,-3,1,-1,4
1576753851386218,-4,-3,0,-1,-1,1,0,-2
1576753851386218,0,-1,-2,-3,-1,-4,-2,-2
1576753851400220,1,0,0,0,1,-1,-1,-2
1576753851400220,3,-2,-2,-2,0,-1,1,-1
1576753851401174,8,-1,-3,1,1,-1,-1,2
1576753851401174,-2,1,0,-3,-3,-1,-1,1
1576753851423115,-2,-1,0,-1,-1,-3,-1,-1
1576753851423115,6,-3,0,0,-2,-2,0,4
1576753851424117,3,-2,1,-2,-3,3,1,-3
1576753851424117,3,1,-1,-1,1,-3,-4,-1
1576753851445100,-5,0,-1,-3,0,0,-3,0
1576753851445100,-4,-1,0,0,-1,-1,1,-3
1576753851447055,1,1,1,1,0,-2,-5,2
1576753851447055,-1,-1,-1,-1,2,1,0,-4
1576753851459022,-6,1,0,-2,-1,2,1,-4
1576753851459022,6,2,2,0,0,-6,-4,-4
1576753851466000,2,0,-3,-1,0,-4,-1,-6
1576753851466000,2,1,-3,0,1,-3,0,-1
1576753851482957,-6,0,-3,0,1,0,-1,-1
1576753851482957,-10,-3,-2,-3,-1,2,-1,-3
1576753851483953,2,0,-2,-1,0,1,3,1
1576753851483953,1,1,-1,1,0,-1,-2,1
1576753851504897,-3,-5,-1,-1,-2,-2,-1,-2
1576753851504897,-4,0,-2,-1,0,-1,0,5
1576753851506892,0,-3,-3,-1,-3,-4,-3,-2
1576753851506892,-5,-1,-3,-1,-2,1,1,-3
1576753851519857,-8,-2,2,-1,0,0,-2,-1
1576753851519857,-2,-1,-3,0,-1,-1,0,-4
1576753851525841,-8,-4,-1,-1,-1,1,0,1
1576753851525841,1,-1,3,-3,-3,-1,-2,1
1576753851542795,5,0,0,-1,1,-3,-1,-2
1576753851542795,0,1,-1,-1,-1,1,-3,-3
1576753851543793,1,-1,2,1,1,-1,0,-3
1576753851543793,-3,-2,1,1,-1,-2,-1,-3
1576753851564737,-4,-5,-1,-2,-3,0,-1,2
1576753851564737,-12,2,-2,0,0,0,0,-3
1576753851566733,-1,-2,-3,-4,-1,-2,-2,2
1576753851566733,3,-1,0,2,1,3,1,0
1576753851579697,-9,1,0,1,0,-1,-5,-3
1576753851579697,7,-2,-1,-1,-1,-2,0,-4
1576753851586680,-3,2,0,0,-1,-4,-3,-1
1576753851586680,-2,-2,-1,-4,0,-1,1,-3
1576753851609617,3,-1,-2,-3,-2,-1,0,1
1576753851609617,-1,2,0,-3,0,0,-3,0
1576753851611613,-3,1,1,1,1,1,5,4
1576753851611613,3,-2,-2,-2,-1,0,-1,2
1576753851624577,-2,0,0,0,-1,0,-1,-1
1576753851624577,-2,-2,-1,-3,0,-2,-2,-1
1576753851626572,6,2,-3,-1,-1,2,-1,-2
1576753851626572,-3,-2,1,-3,-1,-1,-1,-3
1576753851639537,7,-2,-4,-2,-2,0,0,1
1576753851639537,2,-4,-2,2,-1,2,-2,-2
1576753851646519,-1,2,1,-1,0,-1,-4,-3
1576753851646519,4,1,-2,1,0,0,-2,-1
1576753851662476,7,-1,-1,-2,-1,1,-4,0
1576753851662476,-3,2,1,2,-1,-3,1,-1
1576753851664471,1,-3,-2,-1,-2,0,-1,-4
1576753851664471,4,-2,-1,-1,-1,0,-2,-3
1576753851685413,4,2,1,-1,-1,-1,3,3
1576753851685413,3,0,0,-3,0,5,-2,0
1576753851686411,4,0,-1,0,-1,-3,0,3
1576753851686411,-1,-2,-2,1,0,1,3,-3
1576753851700373,0,-3,-2,-2,-1,0,1,-2
1576753851700373,-2,-1,-1,0,-1,0,-1,-1
1576753851706358,3,0,-2,-2,-1,-1,1,-3
1576753851706358,10,-1,1,0,-1,-3,-2,1
1576753851722316,5,-3,-4,-2,-2,-2,0,-2
1576753851722316,8,-4,-1,0,0,1,0,-3
1576753851724311,6,-1,1,-2,-1,-3,1,0
1576753851724311,-5,0,0,0,0,-1,0,4
1576753851745257,-3,-2,1,3,-1,-2,-2,-8
1576753851745257,0,0,0,-1,0,1,4,0
1576753851746257,5,-1,2,-2,0,1,-4,-4
1576753851746257,-6,-3,-3,0,2,1,-2,-5
1576753851759219,10,1,-1,1,1,-1,0,-2
1576753851759219,-8,-4,-2,-2,-1,-4,-3,1
1576753851766200,4,0,-2,-2,0,-1,1,-1
1576753851766200,1,-1,-1,0,0,2,0,-1
1576753851782158,-7,0,1,0,0,-2,0,1
1576753851782158,2,-4,0,-2,-3,-2,0,-2
1576753851784150,4,0,0,-1,0,-1,-1,1
1576753851784150,-4,-2,-1,-1,-1,2,-4,0
1576753851805095,8,-2,-1,2,1,0,-1,2
1576753851805095,0,2,0,1,1,-2,0,1
1576753851807097,3,-4,-1,-1,-2,-2,0,-5
1576753851807097,0,-2,-2,-1,1,0,2,3
1576753851819057,-4,1,-1,1,-1,-2,0,-2
1576753851819057,3,1,-1,-1,-2,-1,-1,0
1576753851828033,8,0,0,1,0,2,-3,4
1576753851828033,-2,2,-2,-1,0,-4,1,-3
1576753851842992,-2,1,0,-1,-2,-4,-1,0
1576753851842992,0,-2,-3,-1,-1,1,-1,-1
1576753851843990,-1,1,-1,1,-1,0,-2,-2
1576753851843990,2,1,1,-1,0,1,-1,0
1576753851864943,-5,0,1,-1,0,0,-4,-1
1576753851864943,7,-3,1,-4,-2,-1,0,-1
1576753851866929,-8,-3,-2,1,-1,2,3,-1
1576753851866929,-1,2,-1,-1,-1,-4,-5,-4
1576753851878899,-10,0,-1,-3,0,2,2,-1
1576753851878899,-6,-1,-4,1,0,-4,-2,-6
1576753851887873,-6,-5,-1,-2,-2,-1,-2,-1
1576753851887873,0,-1,3,-2,-1,-1,-2,-1
1576753851902834,4,1,-2,0,-4,-4,-6,-2
1576753851902834,-3,-3,0,0,-1,-3,-1,0
1576753851903830,1,-1,-2,-1,-1,1,1,-3
1576753851903830,2,-4,-3,-2,-2,1,-2,1
1576753851924774,0,0,1,-2,0,0,-1,-2
1576753851924774,3,0,1,1,1,-1,3,4
1576753851926771,4,1,-3,-2,-1,-2,-2,-1
1576753851926771,4,1,0,-2,-2,-2,0,-1
1576753851938737,-1,-1,-4,2,-2,-1,0,-2
1576753851938737,2,2,1,-3,0,0,-2,4
1576753851947713,5,-3,-3,-1,-2,-1,2,2
1576753851947713,0,-3,0,-1,-1,-3,0,-2
1576753851962672,-11,-2,-2,-3,-1,-3,-1,-4
1576753851962672,2,0,1,1,0,0,1,-4
1576753851964668,0,-1,0,2,0,-4,-4,1
1576753851964668,-2,1,-2,-1,-2,3,-1,-1
1576753851985612,2,-5,-3,-2,0,-1,1,0
1576753851985612,8,1,-3,0,-2,3,-2,0
1576753851986612,2,1,-1,-3,0,2,-1,-5
1576753851986612,1,-1,-1,2,-1,0,3,1
1576753851998576,-9,0,-1,-2,0,1,-3,-5
1576753851998576,5,1,-2,-2,-2,1,-1,0
1576753852007555,3,-1,-1,-1,2,-1,-3,-3
1576753852007555,0,1,-2,-1,0,-2,-4,2
1576753852022514,12,-1,2,2,0,1,1,1
1576753852022514,-1,-2,-3,0,0,-1,0,0
1576753852024509,1,0,2,0,-2,1,-2,2
1576753852024509,4,-2,0,1,1,1,-2,-3
1576753852045450,-2,-2,-1,-2,-1,0,4,3
1576753852045450,3,-1,-1,-1,0,-6,1,-2
1576753852046448,6,1,-2,0,-3,-1,1,0
1576753852046448,-8,-2,-1,-2,-2,1,-1,-2
1576753852058416,4,1,0,0,-1,1,0,5
1576753852058416,-2,-3,-3,-2,-2,0,-4,-6
1576753852067393,3,2,0,0,0,3,-2,1
1576753852067393,13,0,0,1,-2,0,5,3
1576753852082354,2,-1,-1,-1,0,-2,-2,0
1576753852082354,-5,0,-1,0,2,-2,0,-1
1576753852084347,10,1,-4,0,1,-1,-1,1
1576753852084347,7,-1,-2,-1,-1,1,0,-5
1576753852105293,2,0,0,-2,-2,0,-4,0
1576753852105293,-1,0,0,-1,-1,-4,0,-3
1576753852106291,-4,-2,-2,-4,-1,0,-1,-1
1576753852106291,-1,-4,-1,-2,1,-3,-3,0
1576753852118257,-5,-1,-2,-1,-1,-1,2,1
1576753852118257,6,-3,-2,-2,-1,-1,-9,-6
1576753852127233,0,-1,-6,0,0,-2,-1,-2
1576753852127233,-2,0,-2,-1,0,-1,1,1
1576753852142194,4,-2,-1,-2,-2,-3,-1,-3
1576753852142194,3,1,0,3,0,0,2,4
1576753852148177,0,-1,-1,-1,0,-3,1,1
1576753852148177,-6,-1,-1,-1,-4,1,1,-3
1576753852165135,-1,0,1,0,-1,-4,-7,-10
1576753852165135,-3,-2,-1,-3,1,4,3,1
1576753852167126,-1,-1,0,-1,-1,-1,-1,0
1576753852167126,0,0,-1,1,1,1,-2,0
1576753852179145,3,-1,0,3,0,-2,2,-1
1576753852179145,-3,-3,-4,-3,-2,-2,-1,2
1576753852188073,3,-2,0,-1,0,0,2,3
1576753852188073,-4,-3,-1,-3,-1,0,-3,0
1576753852203071,5,-3,-2,-3,-3,1,1,1
1576753852203071,-5,0,-1,-1,1,-3,-1,-1
1576753852204029,4,-1,1,0,-2,0,0,-3
1576753852204029,0,1,0,0,0,-5,-3,-1
1576753852225008,3,0,-2,0,2,-1,1,1
1576753852225008,4,0,-2,-2,-3,-3,-2,3
1576753852226967,0,0,-3,0,2,1,-2,-5
1576753852226967,5,-4,0,-2,-1,-2,0,-4
1576753852247980,-1,-5,-2,-2,-3,0,-2,-3
1576753852247980,-9,-1,-1,0,1,4,1,-3
1576753852248932,-2,0,1,-2,-1,-5,-2,2
1576753852248932,0,0,0,-1,-1,-1,1,-4
1576753852262941,-5,1,0,-3,-1,-3,-2,-2
1576753852262941,0,0,0,0,-4,-2,-2,-2
1576753852263881,-7,0,-2,0,-1,1,0,2
1576753852263881,-3,-1,-1,0,-1,-2,-1,-1
1576753852284811,-6,1,-3,-1,0,-1,-2,-1
1576753852284811,3,-1,2,-1,-1,0,-3,-2
1576753852286811,8,-1,0,0,-1,-3,1,1
1576753852286811,0,-1,-1,0,-2,-4,-1,1
1576753852307752,-7,-3,1,-1,-3,-1,1,2
1576753852307752,6,-1,1,0,1,0,-4,-3
1576753852308784,1,-3,0,-2,-1,-3,1,-2
1576753852308784,0,1,-1,2,1,-1,-3,1
1576753852322814,9,1,0,3,-1,0,-2,-5
1576753852322814,-6,0,-3,-2,-2,-1,-3,1
1576753852324709,2,1,-2,-2,0,4,-2,-1
1576753852324709,6,-2,-2,0,0,-2,-1,1
1576753852345649,-1,-1,-2,-1,0,-1,2,1
1576753852345649,2,-2,1,-1,0,-2,0,1
1576753852346648,5,-2,-5,0,-1,-2,-1,-2
1576753852346648,-2,1,-4,-2,-2,-1,0,-2
1576753852367624,-6,-1,0,-1,1,1,0,-4
1576753852367624,6,2,-1,1,-3,-1,3,-6
1576753852369589,0,-1,0,0,0,1,0,-2
1576753852369589,4,-4,-1,-1,-1,2,-2,-2
1576753852382550,5,0,-1,-2,1,0,0,-4
1576753852382550,3,0,-4,-3,-1,-3,-2,-2
1576753852388637,5,1,1,1,0,0,-1,-4
1576753852388637,-3,2,0,1,-2,-4,-1,-4
1576753852405567,1,-2,-5,-2,-1,0,0,3
1576753852405567,-3,-2,1,0,2,1,-2,3
1576753852406486,7,1,-3,-1,-1,0,0,0
1576753852406486,4,0,0,-1,0,0,0,-1
1576753852427533,6,-4,0,0,-2,0,-1,1
1576753852427533,0,-5,-1,2,0,-1,1,2
1576753852429426,-2,-1,1,-2,0,-2,0,4
1576753852429426,0,-1,-3,-1,1,-1,2,7
1576753852442437,-2,4,2,-1,-3,-1,-1,4
1576753852442437,1,0,2,-3,0,-3,-1,1
1576753852449371,-1,2,1,-1,0,0,-1,-5
1576753852449371,-1,1,0,0,0,1,-3,-11
1576753852465430,-1,-1,-2,0,-3,1,-3,-10
1576753852465430,-5,1,-2,1,1,1,-1,-3
1576753852466366,-3,0,0,-1,1,1,2,5
1576753852466366,0,0,-4,-1,-2,1,-2,2
1576753852487373,-1,-3,-1,-1,-1,-3,0,-3
1576753852487373,5,-1,0,-2,-3,-2,0,2
1576753852489269,-2,-5,-3,-1,-1,0,2,-2
1576753852489269,0,2,-1,-1,0,-1,-2,1
1576753852502236,-2,-1,0,0,-1,1,0,-1
1576753852502236,7,1,-3,0,-1,-4,-4,1
1576753852509258,1,-4,0,-2,-1,-2,1,1
1576753852509258,-5,-2,-1,-4,-2,-1,-3,-2
1576753852525173,0,-1,-2,1,1,-3,-1,1
1576753852525173,3,-2,1,-2,-1,2,3,-4
1576753852527168,-1,-1,-1,-1,-1,-2,-2,0
1576753852527168,-2,-2,-1,-1,0,-3,-2,-2
1576753852548144,-2,-1,-3,0,0,-1,-2,0
1576753852548144,-3,-2,2,1,-1,3,1,-2
1576753852549112,-2,-1,-2,-1,-3,0,-3,0
1576753852549112,-1,-2,-1,-1,-1,-1,1,-1
1576753852562081,-1,-1,1,-1,-1,1,-4,-1
1576753852562081,-3,2,-3,0,0,-2,0,-1
1576753852569074,-3,1,1,-2,-3,0,1,-2
1576753852569074,4,-3,0,1,-1,0,-2,1
1576753852585008,3,-1,-1,-1,0,0,0,3
1576753852585008,-5,0,-3,-1,0,-1,-1,-5
1576753852587009,-3,-3,-3,-1,-1,2,3,1
1576753852587009,6,-2,0,1,0,0,0,-2
1576753852607991,2,1,-1,-3,0,0,0,-2
1576753852607991,4,1,0,-2,-2,-3,3,-2
1576753852608946,4,0,-1,-1,-1,-3,-1,0
1576753852608946,-2,-2,-2,-2,-1,1,0,0
1576753852621913,-6,1,0,-2,0,0,-1,-4
1576753852621913,2,2,0,1,-1,-1,1,-2
1576753852628991,5,-1,-2,0,-1,-2,-1,-2
1576753852628991,-2,2,-1,-1,-1,-1,0,-2
1576753852644948,2,0,0,-3,-3,-2,-7,-6
1576753852644948,-3,-1,-4,-3,-1,1,-2,-2
1576753852646851,3,1,1,-2,-1,1,0,-3
1576753852646851,-6,-2,-2,-2,0,1,0,1
1576753852667790,-14,-1,-2,-3,0,-3,4,3
1576753852667790,2,-2,0,0,-2,0,-1,-3
1576753852669783,2,0,-1,2,-1,0,1,-1
1576753852669783,3,-1,-1,-1,-1,2,-2,-3
1576753852681852,3,-1,-1,0,0,0,-2,0
1576753852681852,-2,0,-2,-3,-1,-1,2,2
1576753852688735,2,-1,0,0,0,0,1,-1
1576753852688735,-4,1,2,0,-1,-1,-1,0
1576753852705687,-3,0,-2,1,-1,0,-1,-7
1576753852705687,0,-3,0,-3,-2,-2,2,-1
1576753852706700,0,-2,0,1,0,-4,-5,-3
1576753852706700,-1,0,1,0,-1,1,1,0
1576753852727727,4,-3,-1,1,0,-2,-2,1
1576753852727727,4,-2,0,0,0,-2,-3,-2
1576753852729669,2,-2,-1,-1,-2,-1,0,-4
1576753852729669,7,1,0,-2,-2,-1,3,2
1576753852741635,-1,3,-1,-1,-2,-2,1,4
1576753852741635,-1,-2,-1,1,1,4,-2,-3
1576753852750568,2,-2,-3,1,1,1,1,-3
1576753852750568,-3,1,-1,-2,1,1,-1,-1
1576753852765590,-1,2,2,0,-2,-2,0,-2
1576753852765590,6,1,0,-1,-3,-2,-5,2
1576753852766525,-1,-4,-1,-1,1,-1,-2,1
1576753852766525,-2,-1,-2,0,-2,-1,-1,-4
1576753852787567,0,0,1,-1,-1,0,4,-3
1576753852787567,-6,-3,-3,-1,-2,-3,1,-1
1576753852789467,6,1,-1,-1,0,0,1,-2
1576753852789467,-6,-1,-1,3,-1,0,-1,7
1576753852801431,2,-3,1,-1,-2,-2,-2,-3
1576753852801431,10,1,-2,-1,0,0,-1,-1
1576753852810450,-4,2,-1,-5,-1,-1,0,2
1576753852810450,0,0,0,0,-2,-3,-1,-3
1576753852825466,-8,-1,-4,0,-1,-2,4,2
1576753852825466,-1,0,-1,-2,-1,-1,-2,3
1576753852826373,6,-1,-2,1,0,3,0,-1
1576753852826373,-2,-1,2,-1,1,-1,0,0
1576753852847403,0,-4,1,0,0,1,-2,-4
1576753852847403,3,-2,-2,-2,-1,-2,-1,-1
1576753852849344,4,2,1,-2,0,-2,-2,0
1576753852849344,-1,-4,-3,-1,1,-3,3,-3
1576753852861365,0,-1,-1,0,-2,1,0,-3
1576753852861365,-3,-4,-1,1,1,-1,0,1
1576753852870250,0,4,-2,0,0,-2,-1,-3
1576753852870250,0,-1,1,-1,0,2,-1,-4
1576753852884249,7,0,-5,-1,1,-3,-1,2
1576753852884249,-2,-2,-2,-1,-2,1,-1,-4
1576753852885210,-12,0,3,1,0,0,0,-1
1576753852885210,-2,0,-1,-2,-3,0,-2,-3
1576753852907182,-5,2,0,1,0,-3,2,-2
1576753852907182,0,0,-3,1,-3,1,-1,-1
1576753852908150,-14,-2,1,-1,1,0,-1,0
1576753852908150,-2,-2,-2,-1,-1,-1,-1,0
1576753852929188,0,1,3,0,1,1,1,2
1576753852929188,4,2,2,0,2,1,0,2
1576753852930089,-6,-4,-2,0,-2,-2,-3,-1
1576753852930089,4,0,0,-2,-1,0,-2,1
1576753852945047,5,-1,-2,0,-1,-2,-3,3
1576753852945047,-3,-1,-1,1,-1,-3,0,1
1576753852945047,-4,-3,-2,-1,0,0,-1,1
1576753852945047,4,2,-3,0,0,-2,2,0
1576753852966988,-4,-2,-1,-2,-1,-1,-3,-3
1576753852966988,-4,-1,-1,-1,-1,-3,-1,0
1576753852967984,1,-1,0,0,-1,0,-5,-4
1576753852967984,-9,1,-5,1,-1,-3,-2,-1
1576753852989972,-4,-1,0,-3,-1,-1,-4,-2
1576753852989972,-1,-2,-4,-2,-1,1,-3,-1
1576753852989972,1,0,-1,-3,-2,-3,-3,-1
1576753852989972,0,-1,-2,-2,-2,-1,-1,-2
1576753853004912,2,-1,2,0,1,-2,-2,1
1576753853004912,-11,-2,3,-3,-1,-2,0,-2
1576753853004912,1,2,-2,0,0,-2,1,-2
1576753853004912,-5,1,1,-3,-2,0,0,-5
1576753853026872,-11,0,-2,-2,0,1,-1,-1
1576753853026872,0,-2,0,-1,-1,-3,-1,-4
1576753853027828,2,-4,-3,-2,-3,-1,0,3
1576753853027828,-6,-2,0,-1,-1,-4,-3,1
1576753853049792,-16,-1,-2,0,1,0,1,6
1576753853049792,-4,2,-1,-1,2,0,-1,-4
1576753853049792,-4,1,0,0,-3,0,4,-2
1576753853049792,-2,-1,-3,1,0,-1,1,2
1576753853072804,3,0,0,0,-3,0,-4,-3
1576753853072804,1,-3,-1,0,1,-1,-1,-1
1576753853073711,1,0,1,0,0,1,0,0
1576753853073711,-10,-2,-2,0,0,0,1,1
1576753853086709,-7,-3,-1,-1,-4,-3,-1,2
1576753853086709,8,0,-2,-2,-2,0,0,-1
1576753853087669,-6,-2,-2,-1,2,-4,-2,-3
1576753853087669,2,-2,2,-1,0,-5,-1,-3
1576753853109705,-3,-3,3,0,-2,0,0,-2
1576753853109705,-3,0,-4,-1,-2,2,0,1
1576753853110645,3,-3,-2,0,-2,0,-1,-3
1576753853110645,2,0,-2,1,1,0,1,1
1576753853124665,-1,2,-2,0,-1,-4,-1,-3
1576753853124665,2,-2,-1,-2,1,0,-2,1
1576753853125575,4,0,1,0,-1,-1,0,0
1576753853125575,2,-3,3,-2,-1,-1,-4,-2
1576753853147506,-7,-2,-3,-2,1,1,-2,-1
1576753853147506,4,2,0,0,0,2,1,-4
1576753853147506,-4,0,-2,0,-1,2,-1,2
1576753853147506,2,2,0,0,-2,-1,1,-3
1576753853169470,-2,-1,-3,-4,-1,-2,0,0
1576753853169470,8,-1,-1,1,0,-3,-1,1
1576753853170450,-4,2,-2,-3,1,1,-1,-1
1576753853170450,0,-1,-2,1,-1,-1,-3,-2
1576753853184407,-4,-2,-1,1,-1,-3,-2,-4
1576753853184407,1,-3,-1,-1,-3,-2,2,3
1576753853185445,2,1,-1,0,0,1,2,0
1576753853185445,-3,-4,-2,-1,-1,0,1,-4
1576753853207423,-1,-1,-3,-1,0,0,-2,-4
1576753853207423,-4,0,0,-2,0,-2,-2,-1
1576753853207423,1,-1,0,0,-1,0,1,1
1576753853207423,3,-1,1,0,0,2,-1,2
1576753853229384,3,1,-2,-1,-2,-4,0,0
1576753853229384,3,-2,0,1,-2,-3,-2,-1
1576753853230294,4,-3,-3,-1,-4,-3,-2,4
1576753853230294,0,1,-1,0,-1,1,-2,-2
1576753853244345,7,-1,0,0,1,0,1,-2
1576753853244345,0,0,-1,0,2,1,0,-1
1576753853245248,-5,0,1,0,1,0,-2,0
1576753853245248,-7,-2,0,-2,-2,-3,-1,-5
1576753853267186,-7,-1,-2,-1,-2,3,-1,-3
1576753853267186,3,2,-3,-1,0,0,-1,0
1576753853268182,6,0,-1,-1,-1,1,-3,-4
1576753853268182,2,-1,-3,2,0,0,-2,-2
1576753853289224,2,1,2,1,0,-2,0,-1
1576753853289224,-2,-2,-1,-4,-4,0,-3,-3
1576753853290124,-4,-1,1,-1,-1,1,1,6
1576753853290124,-2,-2,0,-1,0,0,-3,0
1576753853304127,2,-2,0,-1,0,-3,-3,-2
1576753853304127,-13,-3,0,0,-1,2,3,-1
1576753853305084,2,-3,-2,-3,-2,-1,2,-2
1576753853305084,5,-1,-3,0,-1,0,-2,0
1576753853327035,1,-1,-1,-2,-2,-2,-5,-5
1576753853327035,-5,1,2,-1,1,3,1,-1
1576753853328065,7,1,-3,-1,0,0,-1,1
1576753853328065,-1,-3,-4,-1,1,-3,-2,-2
1576753853350040,-5,-1,1,-2,-1,-4,-3,-1
1576753853350040,-3,-1,-1,-2,-3,0,-1,-5
1576753853350040,-2,0,-1,2,0,-1,-2,-4
1576753853350040,-6,-2,-3,-1,-1,2,1,1
1576753853364970,-6,-1,-2,-1,0,1,-1,1
1576753853364970,-3,0,0,2,-1,-5,-4,-3
1576753853364970,3,-4,1,0,-2,-2,2,-2
1576753853364970,1,2,-1,0,0,0,0,0
1576753853386966,0,-4,0,2,0,1,-2,2
1576753853386966,0,-1,-1,-1,0,-3,0,0
1576753853387909,-2,-2,0,0,0,0,-2,-3
1576753853387909,-4,0,-1,-2,-4,-4,2,-3
1576753853409892,-2,1,1,2,-1,3,0,0
1576753853409892,-2,0,0,0,-1,2,-1,-2
1576753853409892,-7,3,0,-1,-1,-3,-3,-1
1576753853409892,0,-2,2,0,0,-2,-1,-2
1576753853432843,-3,-3,-3,-2,-1,-2,0,2
1576753853432843,-6,-1,-2,-1,-1,-2,-1,-1
1576753853433741,-6,-2,0,-1,0,0,-1,-2
1576753853433741,-8,0,0,-1,0,-2,-1,-3
1576753853446808,2,0,-2,-2,-1,-2,2,-4
1576753853446808,-1,-1,-2,0,-1,0,-2,1
1576753853447711,-1,-4,-1,-1,0,0,-2,-4
1576753853447711,-6,0,-2,0,-3,-1,2,8
1576753853469647,-1,-2,-2,-2,-2,0,-2,0
1576753853469647,-4,-2,-2,0,-3,-1,2,0
1576753853470650,-17,3,2,1,2,-2,3,0
1576753853470650,1,-1,0,-2,0,-3,-2,-3
1576753853483607,-6,-5,1,-1,-2,-2,-2,0
1576753853483607,0,0,-2,-2,1,-3,-2,-1
1576753853492584,-1,0,-1,-1,-4,-1,-3,0
1576753853492584,-6,-1,0,-1,-1,-1,-2,-1
1576753853506643,1,0,-1,0,0,-2,1,2
1576753853506643,3,-1,-2,2,-1,-3,-2,0
1576753853507545,0,-6,-3,-3,1,-5,-3,0
1576753853507545,2,-1,3,-1,-1,2,-1,-4
1576753853529582,2,0,-1,-1,0,2,1,1
1576753853529582,-1,3,1,-1,-1,-2,1,1
1576753853530524,-6,0,0,0,0,1,-3,-2
1576753853530524,-4,3,1,-1,-1,-2,-4,1
1576753853543545,0,0,0,0,0,-1,-1,-3
1576753853543545,2,-1,0,0,1,-2,2,-1
1576753853552455,-3,-3,-3,-1,-2,-2,0,-1
1576753853552455,-1,-2,-1,-1,0,0,0,-3
1576753853567392,-4,1,-1,-1,-2,2,-3,2
1576753853567392,-6,-4,0,-3,-1,-1,0,-1
1576753853567392,5,2,0,3,0,-3,1,-5
1576753853567392,1,-5,-1,0,-1,-1,-5,1
1576753853589418,5,2,-1,1,-2,-1,-1,-3
1576753853589418,8,-3,0,-2,-1,-1,1,0
1576753853590367,-5,-1,-2,-1,-1,-2,2,2
1576753853590367,1,-2,0,0,0,2,0,-3
1576753853604285,6,-2,-1,-1,-2,0,-1,-3
1576753853604285,0,3,-1,0,-2,2,-2,0
1576753853612370,-7,0,0,-1,-1,1,-2,-3
1576753853612370,-1,-2,-3,-1,-2,-4,1,1
1576753853627232,-3,-2,-3,-1,1,-1,1,5
1576753853627232,-1,-3,-5,-1,-3,-4,-6,-2
1576753853628219,-6,2,-1,-3,-2,-2,-1,-2
1576753853628219,-4,0,-2,0,0,-2,-1,-1
1576753853650162,-1,0,0,-2,0,2,-2,-3
1576753853650162,-2,-2,-3,0,-1,2,1,0
1576753853650162,-6,2,0,1,-1,-1,-1,1
1576753853650162,-2,0,0,-2,-1,-3,-3,-1
1576753853664234,4,0,-2,0,-1,-2,0,-4
1576753853664234,-5,0,2,-1,-4,-3,-2,1
1576753853672146,1,-1,1,0,-1,0,-3,-2
1576753853672146,-6,-3,-2,-1,-1,3,-1,-2
1576753853687162,1,-4,-2,-1,-1,-3,-1,-3
1576753853687162,1,-1,-2,-1,0,-1,0,-2
1576753853688068,0,0,-1,1,-1,0,1,1
1576753853688068,-4,-1,-3,-2,-2,-1,-1,-2
1576753853710002,-4,0,0,-1,-1,-2,1,-2
1576753853710002,2,1,0,-2,-1,-1,-4,-4
1576753853710002,0,-4,0,-1,0,-4,-4,-3
1576753853710002,6,2,0,0,0,0,-2,-2
1576753853724062,2,0,1,-1,-1,1,0,2
1576753853724062,-3,-4,0,1,2,1,-2,-2
1576753853732043,-7,0,-2,-1,0,-2,-2,1
1576753853732043,2,3,-1,-1,-4,1,-1,2
1576753853747006,0,-3,2,-2,-2,0,-3,-1
1576753853747006,-6,1,0,0,-1,-1,2,-3
1576753853747947,-1,-1,-1,-3,0,1,-4,2
1576753853747947,0,-1,-1,1,-1,-4,-1,-5
1576753853769845,-2,2,-4,-1,-2,-2,1,-1
1576753853769845,-6,-2,-2,0,0,2,3,0
1576753853769845,1,-5,-2,-1,-1,-1,-1,-1
1576753853769845,-5,0,1,-1,0,1,1,2
1576753853783805,11,-2,-1,-1,-1,-5,-2,-1
1576753853783805,-5,-1,1,-2,-3,-3,-3,0
1576753853791882,1,-1,-4,-3,-3,-3,1,-3
1576753853791882,-1,-2,-1,0,1,-1,-1,0
1576753853806842,-1,2,-3,3,-1,3,2,-1
1576753853806842,4,-1,-2,-1,-1,-2,0,-3
1576753853807745,0,-4,0,2,0,0,0,0
1576753853807745,-1,0,0,-3,-1,-4,-3,-5
1576753853829784,-4,-3,-2,-2,-1,-1,-2,-1
1576753853829784,4,-1,0,-1,0,-5,-1,1
1576753853830689,4,0,-1,1,1,-2,-3,-6
1576753853830689,1,-1,0,-1,-1,-2,-2,-3
1576753853843746,4,1,0,1,-1,0,2,2
1576753853843746,5,-4,-2,0,0,1,-2,1
1576753853851665,1,4,-1,-1,-3,0,-2,2
1576753853851665,0,-2,0,2,0,-2,2,1
1576753853866637,-6,0,-1,-1,-1,-3,0,-3
1576753853866637,-1,0,0,0,-1,1,-3,-6
1576753853867581,1,-2,-2,-2,0,0,3,2
1576753853867581,-1,-2,-3,-1,-1,2,0,2
1576753853889623,-2,-1,0,0,-2,-1,1,3
1576753853889623,2,3,0,-1,-1,1,-1,1
1576753853890528,7,0,-1,0,1,2,2,-2
1576753853890528,-3,-1,-1,-1,0,-1,1,0
1576753853903527,4,-1,0,0,-2,0,-1,-2
1576753853903527,2,-1,-2,0,1,-2,0,-1
1576753853912507,3,0,0,1,-2,1,0,2
1576753853912507,0,-2,-4,-2,-2,-3,0,-2
1576753853927466,-5,0,0,0,1,-2,0,2
1576753853927466,-1,0,0,0,3,0,-2,0
1576753853927466,9,1,-1,0,-2,2,4,1
1576753853927466,1,-2,1,0,0,0,2,1
1576753853949463,-8,-2,-1,-4,-1,-2,-5,-2
1576753853949463,9,0,-1,0,-1,2,-1,2
1576753853950359,-1,-1,-1,-1,2,-2,0,0
1576753853950359,3,0,-2,0,-2,0,-3,1
1576753853972395,-3,0,0,-1,1,-2,-3,-2
1576753853972395,-4,-4,-4,-3,0,1,4,3
1576753853973298,7,0,1,1,1,-1,0,2
1576753853973298,4,1,0,0,-3,-1,-2,0
1576753853995341,0,1,-1,2,0,1,-1,-3
1576753853995341,-2,1,0,0,0,0,-4,-2
1576753853996246,1,-3,0,-1,-2,1,1,-2
1576753853996246,-3,-1,-1,-2,0,-1,0,-3
1576753854009301,4,-1,0,0,-4,0,-1,2
1576753854009301,-1,1,-1,-1,-2,-1,0,0
1576753854010201,0,-3,-3,-1,0,-1,1,-4
1576753854010201,0,0,-1,0,3,-2,-1,-3
1576753854033140,-2,-3,-5,1,0,1,-1,-3
1576753854033140,-1,-2,-4,0,-1,0,-1,-4
1576753854033140,1,-2,-1,-2,-5,-1,-2,3
1576753854033140,3,-1,1,0,1,0,1,3
1576753854047136,-3,-2,-3,-1,-1,-3,-1,-3
1576753854047136,1,2,4,2,0,-3,-1,2
1576753854048137,0,-1,-5,-1,0,0,2,0
1576753854048137,-2,-1,1,-3,0,0,-3,-3
1576753854070041,-17,2,2,0,2,4,8,6
1576753854070041,-4,0,-2,-1,-1,-1,-1,-4
1576753854070041,-1,0,1,-1,-1,0,-1,-4
1576753854070041,0,0,-1,1,-2,0,-1,1
1576753854092078,2,1,0,-3,-2,-1,-3,0
1576753854092078,4,-2,0,-1,1,1,2,2
1576753854092984,8,-2,0,-1,-1,1,0,-2
1576753854092984,-12,-1,-2,-1,-2,-3,0,-5
1576753854107038,10,0,3,-1,-1,-2,-7,-1
1576753854107038,1,-1,-2,-1,-1,-4,3,0
1576753854107981,6,0,0,1,0,-1,-2,-2
1576753854107981,5,-1,-1,0,-2,2,0,-6
1576753854129919,2,-3,-3,-3,-1,-1,-1,0
1576753854129919,-1,-4,-2,-1,0,0,-3,-1
1576753854129919,-9,-1,2,-2,0,-2,-4,-1
1576753854129919,-2,-2,-4,1,-1,1,2,-1
1576753854151826,-3,1,0,1,1,-3,2,2
1576753854151826,-4,0,-1,-2,-2,2,-2,1
1576753854152821,-6,-1,1,2,0,-1,-3,2
1576753854152821,-3,-2,0,-3,-3,-2,-4,0
1576753854166780,-11,2,-1,-1,-1,0,2,-6
1576753854166780,1,-1,0,-1,0,-1,2,-1
1576753854167777,-8,-1,-1,-1,1,-4,-1,-1
1576753854167777,-5,-1,-3,-1,0,0,1,-3
1576753854189818,-3,-1,-3,1,-1,-4,-1,-3
1576753854189818,-3,0,-1,-2,-2,2,-2,-1
1576753854190726,-3,0,1,-1,-1,0,-2,-3
1576753854190726,-3,-4,-3,-2,-1,-2,1,0
1576753854211710,6,-4,2,1,0,1,1,-2
1576753854211710,-3,1,1,0,0,-1,-1,-2
1576753854212657,-2,-4,-4,-2,-2,-1,-3,-2
1576753854212657,8,1,0,0,-4,-2,-2,0
1576753854226721,12,1,-1,-2,1,4,-1,4
1576753854226721,2,3,0,0,-2,-3,-1,0
1576753854227618,-5,-1,-1,-2,0,-2,-1,-2
1576753854227618,0,-1,2,0,2,-1,0,0
1576753854249677,-5,-3,-3,-1,-1,-2,-2,-3
1576753854249677,3,-2,-1,-2,0,-2,-2,-3
1576753854250601,2,0,-4,2,-1,3,-2,-5
1576753854250601,-5,1,0,-1,-2,-1,0,6
1576753854272506,1,-5,-1,-2,-2,-1,-1,-3
1576753854272506,9,-2,-3,0,-1,-2,0,1
1576753854272506,-8,3,1,-1,-2,1,1,-1
1576753854272506,1,-1,-2,-1,1,1,-2,-1
1576753854287459,3,-1,0,0,-1,0,-1,0
1576753854287459,-1,-2,-1,0,-2,-1,2,1
1576753854287459,-2,-2,1,0,-1,-1,-3,0
1576753854287459,4,0,-1,1,1,0,4,0
1576753854309499,-6,1,-1,0,-1,-1,-1,-6
1576753854309499,-3,-1,-2,-4,-1,0,-3,-2
1576753854310439,5,2,-2,-4,-2,0,0,1
1576753854310439,-5,0,1,-2,-1,-3,1,-1
1576753854332422,-5,-4,-1,0,-1,-1,-2,-2
1576753854332422,3,1,-2,-2,1,1,3,-1
1576753854332422,1,-1,2,0,0,-1,0,-3
1576753854332422,-2,2,0,0,-1,-3,-2,-3
1576753854347403,6,2,2,0,-1,-2,1,-2
1576753854347403,-1,-4,-2,0,-2,1,0,-3
1576753854347403,0,0,-3,-1,-2,0,1,-1
1576753854347403,6,-2,-2,-1,-2,-3,-2,0
1576753854369305,0,-3,-2,3,2,-3,-4,4
1576753854369305,1,4,2,0,0,-2,1,3
1576753854370241,-10,-2,0,-2,-1,2,2,1
1576753854370241,-4,0,-3,-1,1,-1,-1,-3
1576753854392179,-1,0,-1,-3,-2,-1,-2,-1
1576753854392179,2,-3,-2,1,-2,-1,-2,-3
1576753854393178,-5,-2,-3,1,1,-2,-2,0
1576753854393178,1,-1,0,0,-1,-2,-1,-2
1576753854407237,-2,-2,0,-2,-2,-1,0,-1
1576753854407237,-1,-2,0,-1,-2,-2,-1,-3
1576753854408144,-1,3,-1,0,-1,1,0,-1
1576753854408144,-1,-3,-1,1,-1,1,0,0
1576753854430076,-4,0,-1,0,2,2,2,0
1576753854430076,-6,-1,0,-1,-1,0,-1,-1
1576753854430076,-7,-2,-1,-1,-1,-4,1,0
1576753854430076,-1,1,2,0,2,2,-1,1
1576753854452063,-3,1,-3,-1,-1,-1,0,-2
1576753854452063,-1,2,-2,0,-2,-2,1,-1
1576753854453022,3,-2,1,-2,0,-2,-4,1
1576753854453022,1,-3,-1,-1,-3,-2,-1,-4
1576753854466978,10,-1,-1,-2,-3,3,2,1
1576753854466978,0,1,-1,-2,1,1,-4,-1
1576753854467975,1,-1,-2,0,-1,2,-4,-1
1576753854467975,-5,2,1,-1,-2,0,-1,0
1576753854489956,-5,1,-2,-1,-3,-1,1,-2
1576753854489956,4,-5,1,-1,0,-2,-1,-3
1576753854489956,-4,-2,0,1,0,1,-1,-2
1576753854489956,-4,0,-3,-2,-2,-2,-1,2
1576753854519936,0,-1,1,-1,0,-2,-2,-1
1576753854519936,6,1,-3,-1,1,1,0,3
1576753854520834,0,0,0,0,-1,-3,-2,-1
1576753854520834,4,-1,0,1,1,-2,-2,0
1576753854526917,-6,-1,0,-1,2,-1,2,1
1576753854526917,-2,-2,-1,-2,-3,-2,-2,1
1576753854527823,1,1,0,1,0,1,0,-1
1576753854527823,-8,-2,-1,-1,-1,0,-3,-3
1576753854549821,-3,-4,-3,-1,-1,-1,-4,-2
1576753854549821,4,2,0,2,1,0,-2,-1
1576753854550754,1,-3,-1,-2,0,0,-1,0
1576753854550754,-3,1,2,1,0,1,0,0
1576753854571699,0,-2,-2,-2,-1,0,1,-1
1576753854571699,-2,1,1,-1,-2,-4,0,-1
1576753854572699,2,1,-3,0,0,-2,-2,-3
1576753854572699,-3,0,-3,0,0,-1,0,0
1576753854586692,-2,-1,-3,-1,-2,1,-4,-3
1576753854586692,10,4,0,3,3,1,-3,-7
1576753854587658,-3,1,3,1,-2,-2,2,-1
1576753854587658,2,-2,0,-2,-2,-1,2,1
1576753854609696,-11,0,-3,-1,1,-2,-2,-3
1576753854609696,0,-2,-4,-5,-4,0,-3,-1
1576753854610603,-3,-1,2,1,5,1,1,1
1576753854610603,-8,-1,2,-3,-5,-3,0,-2
1576753854632540,4,1,0,1,2,-2,0,-1
1576753854632540,-4,-1,-4,-2,-2,0,0,3
1576753854632540,-19,-2,-3,-1,-3,0,-2,-1
1576753854632540,-2,-2,-3,-3,-2,0,0,-5
1576753854647508,3,-1,3,0,-2,0,-3,0
1576753854647508,-4,-5,-1,-2,-3,-1,0,-4
1576753854647508,6,2,-1,0,-1,-5,-1,-4
1576753854647508,3,0,1,1,1,0,-3,1
1576753854669438,2,-1,-1,-2,-3,-1,-3,-4
1576753854669438,-6,-6,-2,-1,1,0,0,2
1576753854670439,1,-2,-1,-3,-2,-1,0,1
1576753854670439,-2,6,1,-1,-2,1,0,-5
1576753854692426,2,4,0,0,-1,-2,-2,1
1576753854692426,-6,-1,-2,0,1,-1,3,2
1576753854692426,5,-5,-2,-3,-2,-3,-4,-1
1576753854692426,0,-1,-1,-2,0,-1,-3,-2
1576753854715413,-2,0,-1,-1,-2,0,-3,-2
1576753854715413,-3,0,1,-2,-1,-1,-4,-5
1576753854716350,1,1,3,2,2,1,1,-2
1576753854716350,-1,-3,-1,-1,1,-1,0,-3
1576753854729375,-5,-4,-3,-1,-4,-1,2,-1
1576753854729375,-9,1,1,1,1,1,4,2
1576753854730285,9,-1,-3,-2,0,0,0,-1
1576753854730285,-7,-1,-1,0,1,-1,0,-2
1576753854752260,-2,-2,-1,2,0,-1,-1,0
1576753854752260,-4,-5,-2,-1,-1,-3,-3,-2
1576753854753221,1,0,-1,1,0,1,2,-2
1576753854753221,-2,-2,-2,-1,-2,-2,1,3
1576753854766239,-3,2,2,-3,-1,-2,-1,-3
1576753854766239,-3,0,0,-2,0,0,-5,-2
1576753854774249,2,-2,2,1,-1,-3,-2,1
1576753854774249,-8,-1,-5,-4,-3,0,-5,-2
1576753854789215,-9,-2,-3,-2,0,1,-1,-2
1576753854789215,-1,-1,0,-1,-2,-2,-3,-4
1576753854790119,2,1,-3,0,-2,1,0,0
1576753854790119,0,1,2,0,-2,-3,-4,0
1576753854812099,4,0,-2,-1,0,-1,0,0
1576753854812099,0,0,-1,0,1,3,0,0
1576753854813095,1,0,-1,0,-2,-2,-3,-1
1576753854813095,-3,0,-2,1,-1,-2,0,-2
1576753854826116,-9,-3,0,-1,1,0,1,-1
1576753854826116,1,2,0,1,1,1,0,-1
1576753854835005,-2,-3,-2,-2,-3,-3,-1,-2
1576753854835005,1,1,0,1,0,-2,-3,2
1576753854849953,4,1,-1,0,-1,-4,-2,0
1576753854849953,-1,-1,-1,0,-3,-1,-1,0
1576753854849953,1,0,-2,-3,1,0,-1,-1
1576753854849953,-2,0,-1,-2,-2,-1,1,-3
1576753854871994,-3,1,0,-1,-1,0,-2,4
1576753854871994,0,-3,-3,0,-1,-1,0,1
1576753854872935,4,4,1,1,-2,0,0,-2
1576753854872935,1,-2,-2,-4,-1,-3,-7,-7
1576753854885923,0,-1,-1,0,-2,0,-3,-8
1576753854885923,0,-1,0,-3,-1,-3,-1,-2
1576753854894944,-7,-1,-1,0,-1,-2,-1,4
1576753854894944,-5,-2,3,4,-2,0,3,-1
1576753854909804,-9,-2,-3,-2,-1,-2,0,1
1576753854909804,0,-1,0,1,-1,1,-4,-1
1576753854909804,0,-1,1,-3,1,2,0,-3
1576753854909804,-4,-1,-1,0,0,-1,-4,-1
1576753854931834,-2,0,0,2,1,-3,-2,-1
1576753854931834,1,-2,-2,-5,-2,-4,-1,3
1576753854932737,-10,1,0,-3,0,-2,-2,-2
1576753854932737,-6,-1,1,-1,0,4,0,0
1576753854946747,-7,-3,1,-4,-2,-1,1,1
1576753854946747,-10,1,-2,0,1,-1,-2,-6
1576753854954775,1,-2,0,1,-3,-2,-3,1
1576753854954775,-3,2,-3,-2,0,-2,1,-4
1576753854969733,-13,-1,-3,1,0,-2,-3,-4
1576753854969733,1,0,-2,-2,-1,-1,2,-1
1576753854970641,-3,-2,0,1,0,0,0,-3
1576753854970641,-14,-5,2,0,1,-1,-4,-4
1576753854992574,9,3,-2,-2,0,4,0,2
1576753854992574,7,1,1,2,-1,0,2,3
1576753854992574,-2,-4,-3,-1,1,-1,-2,-2
1576753854992574,-3,0,-2,-1,0,0,-1,0
1576753855006634,-6,0,0,-2,-2,-2,4,-1
1576753855006634,-3,0,1,-1,-3,-1,-1,0
1576753855014613,-4,1,-2,0,0,-2,-1,1
1576753855014613,1,-3,2,-1,-2,-1,-2,-3
1576753855029573,-9,-3,0,1,0,-2,-5,-3
1576753855029573,-5,1,-2,2,1,0,2,-2
1576753855030513,-5,-4,-3,-1,-2,-1,0,-2
1576753855030513,1,0,-3,-3,0,-2,2,-2
1576753855052489,3,-1,1,0,-2,0,-1,-3
1576753855052489,1,-1,-1,0,1,2,-1,3
1576753855052489,6,-3,2,-3,-4,1,-2,-5
1576753855052489,-1,-5,-3,-1,-2,-5,3,-1
1576753855075450,-4,0,0,1,-1,2,0,3
1576753855075450,7,3,-1,-2,0,1,-1,-2
1576753855076360,0,-2,0,-3,-1,0,1,3
1576753855076360,-2,0,1,1,0,-1,1,-1
1576753855089409,-1,-2,0,0,-1,-3,1,-1
1576753855089409,-1,-2,-1,-1,0,-2,-4,-5
1576753855090356,3,1,-1,0,1,2,-1,4
1576753855090356,-2,-2,-1,0,-3,-3,-4,6
1576753855112362,-4,0,1,-2,0,-1,-2,-4
1576753855112362,0,-2,-1,-3,0,1,1,-1
1576753855113248,-8,0,-3,-1,1,-2,-3,-2
1576753855113248,-3,-2,-1,-4,-3,-1,-2,1
1576753855135236,-3,-3,-5,-2,0,-1,1,5
1576753855135236,6,1,-2,0,0,-3,3,1
1576753855136231,-4,-1,-1,0,-2,-1,1,4
1576753855136231,2,-2,-4,-1,1,-2,0,-2
1576753855149251,12,0,-3,-1,-1,3,-3,-3
1576753855149251,-1,-4,1,1,1,-1,-1,3
1576753855150151,10,-1,-1,-1,2,-3,-2,-1
1576753855150151,8,-1,-3,-1,-2,0,0,0
1576753855172193,8,0,1,-2,-2,-1,0,1
1576753855172193,7,0,1,1,-3,1,-2,1
1576753855173098,6,2,2,1,-1,-2,-4,-6
1576753855173098,0,0,0,0,-2,-1,-3,-4
1576753855195150,-2,0,-1,-2,1,-5,-2,-3
1576753855195150,12,-2,-5,-1,-5,0,-1,-3
1576753855196039,-4,-1,0,1,1,-2,-1,-1
1576753855196039,2,-2,2,1,1,3,5,2
1576753855210018,9,-1,-2,-1,-1,0,3,3
1576753855210018,3,0,-4,-1,1,1,-1,-1
1576753855210018,0,-1,2,-1,-1,-1,1,1
1576753855210018,-1,0,-3,-2,0,1,-3,-1
1576753855232031,-3,-3,1,-1,-2,-2,0,1
1576753855232031,1,1,1,0,-1,-4,1,1
1576753855232970,8,-2,-3,-1,0,-2,1,2
1576753855232970,-1,0,-2,-4,-1,3,-3,2
1576753855254970,-2,-2,-4,-1,0,-3,-1,-4
1576753855254970,-5,1,-3,-2,-2,0,2,3
1576753855255868,-3,0,1,1,-1,2,0,-2
1576753855255868,-3,-2,-2,1,0,-3,-3,1
1576753855269919,3,0,-3,0,1,2,2,-2
1576753855269919,-4,-5,-1,-1,1,-4,-2,-7
1576753855269919,-9,0,-3,-3,-3,2,-2,-1
1576753855269919,-7,2,1,-2,0,1,4,2
1576753855291871,-3,1,1,-1,-3,-6,-3,0
1576753855291871,-4,-2,0,0,0,0,-1,0
1576753855292774,0,1,-5,-2,-3,-1,1,-1
1576753855292774,-2,1,1,-2,-2,1,-3,-5
1576753855315708,-3,2,-2,-1,0,0,-2,-4
1576753855315708,-8,1,-1,-3,2,1,0,-6
1576753855315708,-6,-4,1,-2,-2,-3,-2,4
1576753855315708,4,1,-2,-1,-1,-2,0,2
1576753855329773,6,1,0,-1,1,3,-1,-1
1576753855329773,-9,-1,-1,0,1,-1,-2,3
1576753855330710,8,-2,-2,0,-2,-3,0,1
1576753855330710,0,0,2,4,0,1,1,0
1576753855351615,0,-5,-1,-2,-3,-3,-1,1
1576753855351615,8,0,0,-3,-2,1,-3,-4
1576753855352610,-6,-1,-1,-1,1,2,-1,-4
1576753855352610,4,1,-1,-1,0,-4,-2,-3
1576753855374597,-3,1,-1,-1,-1,-1,1,-1
1576753855374597,-3,-3,-1,1,2,1,1,0
1576753855375590,0,-4,-1,-1,0,-2,-3,-1
1576753855375590,7,-2,-1,-1,1,-1,-4,-3
1576753855389612,2,-1,0,1,1,2,4,-1
1576753855389612,8,2,-2,-1,-1,-4,0,3
1576753855390521,-2,1,1,-1,1,0,-2,0
1576753855390521,2,0,-2,-2,0,-1,-1,-3
1576753855412495,-5,1,0,-1,-2,0,-3,0
1576753855412495,-9,1,1,-3,-1,-1,3,-1
1576753855412495,1,-1,-2,0,-2,-1,-1,-2
1576753855412495,-3,-3,1,-2,-1,-1,3,-2
1576753855434390,-1,-2,-3,-3,-1,0,-3,-3
1576753855434390,6,1,-1,3,1,1,1,1
1576753855435395,5,0,-1,-3,-4,0,-2,-3
1576753855435395,1,0,-1,0,1,-2,0,-1
1576753855449402,0,-2,-1,-1,0,-2,-1,-3
1576753855449402,0,-2,0,-1,-1,-5,-1,2
1576753855450349,-1,0,-1,-1,1,0,-1,-1
1576753855450349,-2,-2,-2,-1,-2,-2,-3,1
1576753855472394,2,0,-2,0,-1,-3,-4,-1
1576753855472394,3,-1,-5,-1,-1,2,-4,-1
1576753855472394,-9,-2,2,1,-1,-1,3,3
1576753855472394,2,-2,4,-2,-2,1,0,-2
1576753855494332,5,-1,0,0,-1,2,1,3
1576753855494332,3,2,0,1,1,2,0,-2
1576753855495232,5,-2,-1,-1,-1,-2,-1,1
1576753855495232,0,3,-1,-2,-2,-3,0,-7
1576753855509283,3,-1,1,-2,1,-3,1,-1
1576753855509283,4,4,-1,1,-1,-2,-1,-2
1576753855510194,-3,2,-3,-2,-2,-3,-1,-2
1576753855510194,5,-2,-3,0,-1,-1,-1,3
1576753855532229,-6,-1,-2,-1,0,-1,-3,-4
1576753855532229,-6,-2,-1,-3,-2,-1,0,-2
1576753855533127,-1,-3,-5,-1,-1,1,0,-3
1576753855533127,-7,-1,-4,-2,-2,-3,-3,4
1576753855555069,0,-2,2,-1,-1,0,-1,-2
1576753855555069,-4,-4,-2,-1,1,-2,-1,2
1576753855555069,1,-2,-1,1,1,-3,-3,-3
1576753855555069,1,1,1,0,0,0,-1,-1
1576753855569041,4,-2,0,0,-1,0,-2,1
1576753855569041,-4,-1,-1,0,-3,1,0,-1
1576753855570028,-3,-3,-1,-2,-1,-2,1,1
1576753855570028,-9,-1,0,0,0,3,2,3
1576753855592059,-5,0,-3,-2,-2,-1,-1,-3
1576753855592059,-3,-1,-2,-1,-1,-3,-3,0
1576753855593012,0,2,0,-1,0,0,0,-1
1576753855593012,1,-3,-2,0,-1,0,0,-2
1576753855614969,-6,-1,-1,-3,0,-4,-1,1
1576753855614969,4,-3,-2,-1,1,2,-2,2
1576753855614969,-1,1,1,0,-1,-2,-1,1
1576753855614969,-1,0,0,0,2,0,-3,-3
1576753855629917,2,-1,-1,0,-1,0,-1,-2
1576753855629917,-2,2,-2,-1,-1,-5,-2,-11
1576753855629917,-1,-2,-1,-1,3,0,-5,-3
1576753855629917,5,-1,-4,-3,0,-2,0,-1
1576753855651851,-1,1,3,5,0,1,-3,-4
1576753855651851,-12,1,-2,-4,-3,-2,0,-1
1576753855652810,-1,-2,-2,-2,-2,-1,-1,0
1576753855652810,-1,-1,-1,-1,-1,-3,0,0
1576753855674853,-3,-3,0,1,1,0,-2,-2
1576753855674853,-2,0,-3,0,0,0,0,2
1576753855675748,-4,1,-3,0,0,-1,0,-1
1576753855675748,-3,-3,-2,-2,-5,-1,0,-1
1576753855688807,-2,-1,-2,-2,1,-1,1,2
1576753855688807,-6,-3,2,-3,0,1,2,0
1576753855696791,-4,0,0,-1,-2,-2,-2,-2
1576753855696791,0,1,-1,-1,-1,-1,1,0
1576753855712648,1,2,-1,-3,-2,0,0,2
1576753855712648,-1,-1,-2,-1,2,0,1,-1
1576753855712648,1,0,0,0,-2,0,0,-3
1576753855712648,-1,0,0,-1,-2,-1,-1,-1
1576753855734587,4,-1,-2,-1,-1,2,-1,-2
1576753855734587,1,-3,-1,-1,-1,-2,0,0
1576753855735593,0,0,-2,2,0,1,2,-3
1576753855735593,6,-1,3,-1,-2,0,2,0
1576753855749548,9,1,-4,0,-1,0,2,5
1576753855749548,-2,0,0,1,-1,-3,0,-1
1576753855757548,-3,0,3,1,-1,-1,-2,-3
1576753855757548,2,2,-3,-1,-1,-4,-1,-7
1576753855772508,-4,-1,-4,-1,1,0,-1,-2
1576753855772508,10,-1,-2,-1,-1,-1,-4,-2
1576753855772508,3,-6,1,-2,0,-1,-1,0
1576753855772508,-4,0,-1,1,1,-2,-1,1
1576753855794528,-4,0,0,-1,-4,-1,-2,-3
1576753855794528,-2,-3,2,-2,-1,2,-2,-3
1576753855795468,7,3,-2,-1,0,-1,-2,-1
1576753855795468,-2,-1,0,1,0,0,-2,-2
1576753855809390,-6,-2,-2,-3,0,-3,-3,-2
1576753855809390,-1,0,2,2,3,-1,-2,2
1576753855817366,0,-2,-2,-1,-3,0,1,0
1576753855817366,-3,-3,-2,-1,-2,0,-1,0
1576753855832420,4,1,-3,1,0,1,1,1
1576753855832420,4,-4,-4,-2,-1,-4,-3,1
1576753855832420,-1,2,-2,-2,0,1,2,1
1576753855832420,-2,-2,1,-2,-1,1,-1,1
1576753855854367,-1,-1,0,-3,-1,2,0,-3
1576753855854367,6,0,0,0,-1,-1,0,-1
1576753855855270,3,1,-2,-2,-2,-1,0,-1
1576753855855270,-3,-2,-1,0,-2,-1,-2,0
1576753855869270,-3,2,0,1,-1,2,-2,4
1576753855869270,-2,3,2,0,0,0,-1,-4
1576753855877313,2,-3,0,-1,-2,-1,-4,-4
1576753855877313,-1,3,-3,1,2,-2,-1,0
1576753855892261,-2,-5,-1,-3,-2,-2,0,-4
1576753855892261,1,0,1,0,-1,-1,-4,-6
1576753855893206,-1,-1,-1,0,1,-1,0,-2
1576753855893206,-3,-4,-3,-3,-1,0,-1,-3
1576753855914207,4,-2,-1,-1,0,-2,2,-2
1576753855914207,-5,-1,2,1,-2,1,2,-3
1576753855915106,-12,-3,-1,-2,-2,-2,-1,1
1576753855915106,2,-3,-3,-1,-1,2,1,4
1576753855929167,0,0,-2,0,-1,0,-3,-1
1576753855929167,-9,-2,0,2,1,0,2,-1
1576753855937146,-4,1,0,-3,0,-2,-1,-2
1576753855937146,3,1,-1,0,0,-4,1,1
1576753855952042,-7,-3,-1,0,-1,0,-1,0
1576753855952042,-3,0,-2,-3,-3,-2,0,4
1576753855953011,-5,-1,3,-1,0,-1,2,-2
1576753855953011,2,1,0,0,1,2,-2,1
1576753855974991,0,0,-1,-1,-1,-3,1,-1
1576753855974991,-1,-3,-2,-2,1,1,0,-1
1576753855974991,0,-2,-3,-1,0,-4,-1,0
1576753855974991,-1,-1,-2,-2,-2,1,2,-2
1576753855997985,-2,2,2,1,0,-3,-1,0
1576753855997985,-2,0,-3,0,-2,1,0,-4
1576753855998924,-9,-1,1,0,0,2,-1,-2
1576753855998924,0,-1,1,-2,-4,-2,0,-3
1576753856011946,15,-1,1,1,1,-1,-2,7
1576753856011946,1,1,-1,-2,-1,-1,0,-2
1576753856012855,2,-2,-3,0,-2,-2,-4,-3
1576753856012855,-9,-1,1,-2,1,-1,3,-1
1576753856034788,-11,1,-1,-3,-1,1,-1,-5
1576753856034788,-7,1,-1,0,0,-3,0,-2
1576753856035790,-1,-3,-4,-1,-1,-3,-1,1
1576753856035790,-1,-2,-1,0,1,1,-2,3
1576753856057823,-3,-1,-1,-3,-4,-1,-4,-1
1576753856057823,-3,0,-1,0,0,2,0,-1
1576753856058731,-7,1,-1,0,-2,1,-1,0
1576753856058731,-1,1,3,-1,-2,0,-2,-3
1576753856071788,10,-2,-3,-5,-3,-2,1,3
1576753856071788,2,-1,-1,-2,-1,1,-3,2
1576753856072688,0,0,0,0,0,2,0,3
1576753856072688,9,-1,-1,-2,-2,-4,-1,0
1576753856094724,2,-4,-1,0,0,-1,1,-3
1576753856094724,-1,-4,-2,0,-1,-1,-1,0
1576753856095667,0,-1,-3,-1,-1,1,-2,1
1576753856095667,-1,-1,-3,-1,-1,-2,-3,1
1576753856117564,3,-2,-2,0,-2,-3,-1,0
1576753856117564,1,-1,3,1,2,-2,-3,-2
1576753856118564,1,1,0,-3,0,-1,-2,0
1576753856118564,-1,-1,-3,-2,0,0,-2,-3
1576753856132567,13,2,1,2,1,2,4,0
1576753856132567,9,-2,-3,0,-1,-2,0,3
1576753856132567,8,-4,-2,-2,-2,0,-1,0
1576753856132567,2,-3,-3,-1,-1,0,-4,-2
1576753856154565,-9,3,2,1,1,-1,2,3
1576753856154565,-4,-1,-1,-3,-1,-1,0,0
1576753856155493,6,0,-1,2,-1,-2,-1,0
1576753856155493,-10,0,2,1,-1,2,4,6
1576753856177503,0,-3,-3,-2,-1,-1,-1,-2
1576753856177503,4,1,-2,0,-2,1,0,-1
1576753856178413,-1,-1,2,-3,-2,-1,1,1
1576753856178413,3,-2,-1,-2,-1,-1,-2,0
1576753856192421,5,1,-1,-1,2,0,0,0
1576753856192421,-8,-3,-4,-4,1,-2,1,-1
1576753856192421,2,-2,1,4,4,1,1,1
1576753856192421,0,-2,-3,-1,-1,0,-2,-2
1576753856214401,-3,1,0,-1,-1,-2,-1,0
1576753856214401,3,0,2,2,-2,-1,0,-2
1576753856215306,4,0,-3,-1,0,0,-2,-1
1576753856215306,2,-1,1,-2,0,-1,1,0
1576753856238240,-6,1,-3,0,0,0,-1,-2
1576753856238240,4,-3,2,1,-1,1,2,2
1576753856238240,-3,-2,-2,-1,0,-1,0,-2
1576753856238240,2,0,1,1,-1,0,-1,-5
1576753856252279,8,-3,-2,0,0,0,1,-1
1576753856252279,-7,1,2,0,0,0,-2,-4
1576753856253209,-4,2,-1,-2,0,1,2,-1
1576753856253209,-2,0,0,0,-1,-2,1,-1
1576753856275142,4,3,1,0,-1,2,-1,2
1576753856275142,-2,1,-2,0,0,-2,1,2
1576753856275142,-5,-1,0,2,-2,1,-1,-3
1576753856275142,-5,0,0,0,-1,-1,0,-2
1576753856298129,2,-3,-2,-3,-4,0,-2,-1
1576753856298129,-4,1,-5,-3,-1,-3,-2,-1
1576753856298129,-7,1,0,-2,0,0,-3,2
1576753856298129,-3,-1,-4,-1,0,-1,-1,0
1576753856312143,3,-2,0,-1,0,1,-2,2
1576753856312143,-1,-2,-1,-1,-2,-1,-3,-2
1576753856313084,-2,1,-3,-2,-2,-5,-1,-1
1576753856313084,4,2,-1,-1,-1,-1,-4,-4
1576753856334981,-6,1,0,0,-1,1,-1,-1
1576753856334981,-2,-3,2,0,0,-2,-1,-1
1576753856334981,-4,-2,-1,-1,-2,0,0,-5
1576753856334981,1,-1,-3,-2,-1,1,-2,-3
1576753856357931,-7,-2,-2,1,0,-5,-3,-3
1576753856357931,-5,1,-2,-3,-1,0,2,0
1576753856358947,0,-1,1,0,0,-1,1,-1
1576753856358947,2,3,-2,0,-1,-3,-2,1
1576753856371983,4,-1,2,1,-1,-2,0,-4
1576753856371983,-11,-1,1,1,-4,1,2,-2
1576753856372923,-10,-2,-4,-4,-2,0,1,0
1576753856372923,-5,-2,-1,1,1,-3,2,0
1576753856394934,-14,-1,-1,0,-1,-1,-3,-3
1576753856394934,-12,-2,1,-1,-1,-1,-2,-2
1576753856395821,5,1,1,0,-2,-3,-4,-1
1576753856395821,-9,-1,0,0,-2,1,-1,1
1576753856417803,-7,0,1,-3,-1,-2,-2,-3
1576753856417803,0,-2,0,0,0,-1,-1,-1
1576753856418765,-4,1,-2,-1,-2,-2,-3,-2
1576753856418765,4,-3,-4,-2,-2,-2,-3,-1
1576753856432720,-3,-4,-3,0,-1,-1,-2,-1
1576753856432720,-12,-2,2,0,-2,1,-2,-4
1576753856432720,-2,0,-1,-2,-2,-3,-1,-4
1576753856432720,1,-1,1,1,0,-1,-2,-3
1576753856454759,-2,1,-1,1,1,2,2,-4
1576753856454759,-10,-3,-1,-2,0,-2,-5,1
1576753856455669,-1,-4,-4,-4,-2,0,2,-2
1576753856455669,-1,-1,-2,-4,-1,2,1,-1
1576753856477701,-3,1,-2,-1,-1,1,0,-1
1576753856477701,2,0,7,6,-1,-3,-2,-3
1576753856478638,-3,-1,6,7,0,-3,1,-3
1576753856478638,4,0,-1,-1,-1,-3,-1,2
1576753856492561,6,-7,-5,-7,-1,0,0,3
1576753856492561,1,0,-10,-7,-3,-1,-2,-3
1576753856492561,8,0,-3,-3,0,0,2,-1
1576753856492561,-17,-1,3,-1,0,0,-3,-1
1576753856514603,-2,-2,2,0,0,-2,-3,-1
1576753856514603,-9,1,3,-2,-2,-1,1,-2
1576753856515544,6,-3,2,0,2,0,-5,1
1576753856515544,-4,-1,-2,-1,-2,-2,-3,1
1576753856537545,-14,3,-1,1,0,-1,0,-2
1576753856537545,10,1,-1,-1,0,-2,2,1
1576753856538443,-1,-2,1,0,0,2,-3,1
1576753856538443,7,1,0,1,0,-1,1,-3
1576753856552443,5,2,1,3,-1,1,3,-1
1576753856552443,-8,-3,-3,-3,0,0,-1,3
1576753856552443,-5,-1,-2,-2,-2,-5,-3,14
1576753856552443,-4,1,-1,-2,-1,-3,1,22
1576753856574438,0,-1,0,0,-1,-3,0,10
1576753856574438,-1,-3,0,0,-2,0,0,-19
1576753856575343,5,1,-1,1,-1,0,-1,-27
1576753856575343,8,-1,0,-1,1,1,0,-37
1576753856597386,-10,-2,-3,-2,0,-2,-2,-17
1576753856597386,2,2,1,0,4,3,2,-4
1576753856598278,-4,1,-2,1,-1,-2,-2,-7
1576753856598278,-4,-2,-5,2,-2,1,-2,7
1576753856611342,0,-2,1,-1,-1,0,-2,4
1576753856611342,-12,0,1,-1,0,-1,-1,5
1576753856619322,-4,-3,-1,-5,0,0,-1,3
1576753856619322,-2,1,0,0,-2,-1,0,2
1576753856634183,0,0,0,-1,0,-1,-1,1
1576753856634183,3,-4,-4,0,-3,-4,-3,2
1576753856635183,0,0,-2,-2,-2,-2,0,7
1576753856635183,-1,-1,-1,-2,-1,-4,2,4
1576753856657220,1,0,1,-1,0,0,-2,-2
1576753856657220,4,-1,-4,0,-3,-3,-2,4
1576753856658127,-6,1,0,1,-2,0,-2,2
1576753856658127,-1,-2,1,-1,0,-1,-1,0
1576753856671093,-4,-2,-1,0,-1,-2,1,1
1576753856671093,7,-1,-4,-1,0,3,-4,2
1576753856680100,1,1,-2,-1,0,-2,2,0
1576753856680100,2,-4,2,0,-1,3,-4,0
1576753856695024,0,0,0,0,-1,0,0,0
1576753856695024,9,1,-2,-2,-3,-4,-3,3
1576753856695024,1,-2,-1,-1,0,-4,-3,-2
1576753856695024,3,2,-2,-2,0,3,0,-2
1576753856716961,-5,-3,2,-1,-2,0,-2,-1
1576753856716961,4,0,2,2,0,-1,2,-3
1576753856717962,-2,-1,-4,-1,-1,-1,-2,0
1576753856717962,-1,-2,1,-1,0,0,-3,-2
1576753856731923,2,-1,-2,0,0,-1,0,-1
1576753856731923,10,0,-3,-3,-1,0,-1,-1
1576753856739995,-5,-3,3,0,1,-2,1,-2
1576753856739995,5,2,2,1,-2,-3,1,-1
1576753856754917,4,3,-4,-2,0,0,0,2
1576753856754917,-1,-2,-1,0,1,-2,-2,-5
1576753856754917,-2,1,-1,-1,-2,-1,-2,3
1576753856754917,2,-4,-1,0,-1,-1,0,2
1576753856776900,2,0,-1,-2,-1,0,2,-3
1576753856776900,10,-3,-2,-2,1,-1,2,2
1576753856777803,-1,-1,-2,-2,-2,1,2,-3
1576753856777803,-3,1,0,-2,-1,-2,-2,2
1576753856791770,-3,-3,-4,0,-1,-2,-2,-5
1576753856791770,-1,-1,1,0,0,2,-1,1
1576753856799741,-1,3,1,1,1,-2,-1,0
1576753856799741,-2,-1,0,-1,-2,-2,-2,-2
1576753856814799,1,-1,1,-2,0,0,0,2
1576753856814799,0,0,1,-1,1,0,2,-2
1576753856815733,3,-1,-3,-3,0,-2,-1,-3
1576753856815733,1,1,-2,2,-1,4,3,-2
1576753856837639,0,-1,0,-1,2,-3,-3,-2
1576753856837639,3,0,1,-1,-1,0,-1,-1
1576753856837639,0,-1,0,0,-1,1,0,3
1576753856837639,-3,-2,-1,-1,-1,-3,1,-3
1576753856851636,1,-2,-3,-1,-1,0,-2,0
1576753856851636,5,2,-3,-1,-1,-2,-3,-1
1576753856859588,-5,-2,0,0,0,0,-3,-6
1576753856859588,2,-3,-2,-3,0,-1,0,2
1576753856874647,-5,-2,-1,0,0,0,-1,3
1576753856874647,-7,0,0,-1,-3,-2,-3,-1
1576753856875545,-7,1,1,-2,-1,1,1,0
1576753856875545,-6,2,-2,-2,-1,1,-4,-2
1576753856897491,6,0,-2,0,-1,-2,2,-3
1576753856897491,0,0,-2,-1,-1,-1,-1,2
1576753856897491,-7,-4,1,0,0,-2,2,0
1576753856897491,-4,0,1,1,0,-1,-1,2
1576753856911485,9,2,0,-1,-1,-2,-1,1
1576753856911485,-7,0,0,3,1,3,4,1
1576753856919421,7,-1,1,2,0,1,-3,3
1576753856919421,-2,1,0,-3,1,0,-2,-2
1576753856934380,-1,-4,-2,-1,-3,3,1,-3
1576753856934380,6,-3,1,-1,-1,-2,0,1
1576753856935412,-1,-1,-2,-1,-1,-2,0,0
1576753856935412,4,-3,1,2,-2,-2,-1,0
1576753856957426,0,3,-3,-1,1,-1,0,0
1576753856957426,2,-4,-1,-2,-1,-1,0,-5
1576753856958326,-1,-2,-2,-2,-2,2,2,-2
1576753856958326,4,-2,-4,-2,-1,-3,-1,-3
1576753856980356,1,-1,1,-1,0,-2,0,-2
1576753856980356,8,-1,-2,-1,-1,0,-1,3
1576753856981301,8,-1,-1,-1,0,-1,-3,-2
1576753856981301,1,-1,-1,-2,-1,-2,-1,-1
1576753856994224,5,1,2,1,1,-1,0,-1
1576753856994224,-5,2,-3,0,0,0,-1,-3
1576753856995219,5,4,-1,0,0,-3,-3,0
1576753856995219,-3,0,0,-2,-1,-3,-3,-4
1576753857017211,-4,0,-4,-1,-1,-1,-4,-3
1576753857017211,-1,-1,-1,-1,-2,1,-3,-3
1576753857018164,0,2,-1,0,-1,-2,-1,-2
1576753857018164,5,2,2,-1,0,-1,0,0
1576753857040101,6,0,0,-1,1,1,1,3
1576753857040101,2,0,-1,0,-1,-1,1,2
1576753857041156,-2,-5,-2,-5,-3,-2,-2,-1
1576753857041156,0,-1,-1,-1,1,-1,-3,-1
1576753857055066,25,3,0,-1,1,2,2,5
1576753857055066,-2,0,-2,1,0,0,-1,-6
1576753857055066,7,0,0,-1,0,-1,1,-1
1576753857055066,7,0,-4,0,0,2,3,0
1576753857077000,-7,-2,0,1,0,-1,-4,-1
1576753857077000,4,0,1,0,1,-3,-2,-1
1576753857078000,-6,2,1,-1,-1,-1,-2,0
1576753857078000,-5,-1,2,-1,-2,0,1,3
1576753857099977,-5,-1,0,-2,-1,0,-1,0
1576753857099977,6,1,0,-1,-1,1,-1,3
1576753857100978,1,-1,-3,0,-1,0,-4,-6
1576753857100978,4,0,-1,-2,-1,0,2,-2
1576753857114897,1,-2,-3,0,0,3,1,-1
1576753857114897,-8,-1,0,-2,1,-3,-4,-4
1576753857114897,2,0,0,-2,1,1,0,-2
1576753857114897,-4,-1,-2,0,-1,-1,2,-4
1576753857136844,-2,-3,0,-2,-1,-3,-3,-2
1576753857136844,-6,-1,-1,-1,-2,-3,1,-2
1576753857137841,3,-1,1,1,0,-1,2,2
1576753857137841,-3,-3,-1,-1,-2,-1,0,-2
1576753857160775,-11,2,-2,0,-3,-3,-1,-3
1576753857160775,-7,0,0,-1,-1,-1,1,-2
1576753857160775,-3,-3,-3,-1,0,-2,-3,0
1576753857160775,-5,-1,-1,1,0,-1,-2,1
1576753857174774,11,0,-1,-1,-2,0,-1,-3
1576753857174774,-7,-1,0,-1,-2,3,1,1
1576753857175745,-2,-1,-1,0,-2,-2,-2,-3
1576753857175745,-4,-2,0,1,0,0,0,-3
1576753857196779,-2,0,1,-2,-1,-2,-1,-3
1576753857196779,-10,-3,-1,-1,-1,1,3,2
1576753857197679,-1,1,3,4,1,1,-1,0
1576753857197679,1,-1,-3,-1,-3,0,-4,6
1576753857220654,-11,0,1,0,-1,0,3,2
1576753857220654,2,0,-4,0,-2,-2,-3,-4
1576753857220654,-6,-4,0,-3,-2,-1,-2,-3
1576753857220654,-2,0,-1,-4,-2,-2,-3,1
1576753857234584,10,0,0,4,1,0,0,-1
1576753857234584,-1,-1,-1,-3,-1,-3,2,1
1576753857235581,-1,1,-2,-3,-3,-3,-1,1
1576753857235581,-5,0,3,2,2,-2,-2,-3
1576753857257516,2,0,-1,1,-1,-1,-1,2
1576753857257516,-1,0,3,0,-1,-1,-2,-3
1576753857257516,-1,-3,-4,0,1,1,0,-2
1576753857257516,1,1,0,-2,-1,-1,-1,-3
1576753857280554,-3,-3,-2,-2,-1,-2,-1,2
1576753857280554,-12,-3,-3,-4,-1,-3,-3,-3
1576753857281450,-1,3,1,-1,-1,0,1,-1
1576753857281450,-1,0,-1,-1,0,5,1,0
1576753857294516,-5,-1,-1,-3,1,1,0,0
1576753857294516,-2,1,3,0,-1,-2,-3,0
1576753857295456,-7,-1,0,-2,-1,1,-2,-3
1576753857295456,0,1,2,1,0,0,6,0
1576753857317392,-5,1,3,0,-1,1,0,2
1576753857317392,8,-2,-3,-1,0,0,0,-1
1576753857317392,-6,-3,-3,0,-2,-4,-2,3
1576753857317392,11,0,-5,0,0,-2,-1,4
1576753857340297,1,-1,-1,0,-2,-4,-2,-9
1576753857340297,4,-1,2,1,1,0,-2,1
1576753857341299,2,-1,-1,0,-2,1,2,-1
1576753857341299,2,-3,-2,-3,-1,-1,0,-2
1576753857354357,4,0,-3,-2,-1,2,-2,-3
1576753857354357,8,-4,-4,-1,-2,-1,0,0
1576753857355258,3,-2,-1,-1,-1,-2,-1,-3
1576753857355258,-2,-1,0,-2,0,2,0,-4
1576753857377303,-1,-1,0,-1,1,1,2,0
1576753857377303,-2,-2,-2,1,-1,-1,0,-3
1576753857378236,-2,-2,-3,-1,-1,-1,-4,6
1576753857378236,3,-1,-5,-1,-2,-3,-3,-1
1576753857400134,-3,-3,0,0,0,0,-3,2
1576753857400134,-1,3,0,-2,-1,1,-2,-5
1576753857401135,7,-1,-2,0,-1,0,1,0
1576753857401135,-2,0,-1,-4,-1,-3,-2,-4
1576753857415094,4,0,-4,-1,0,2,-1,-2
1576753857415094,-6,-1,2,0,-2,-4,-3,1
1576753857415094,4,0,-2,-3,-2,0,-1,-1
1576753857415094,3,1,0,1,-1,-1,-1,2
1576753857437135,-2,-3,-1,-1,-1,0,3,-1
1576753857437135,-3,-2,0,0,0,2,1,7
1576753857438059,-3,2,3,0,0,1,1,0
1576753857438059,1,-1,-2,-2,0,0,-2,0
1576753857459978,11,-4,1,-1,-2,-5,-4,1
1576753857459978,5,0,-1,2,-1,-3,-2,-5
1576753857461007,-7,-2,-3,-2,-2,-1,-2,-5
1576753857461007,4,-3,0,2,-1,1,-1,2
1576753857474968,2,-2,-6,-3,-3,-2,-1,-4
1576753857474968,-4,1,0,-1,1,0,-2,-2
1576753857474968,2,-2,2,3,2,-1,0,-4
1576753857474968,0,1,0,-2,-2,-2,-1,-2
1576753857496975,-10,1,0,0,1,1,-2,-2
1576753857496975,-2,3,1,0,-3,1,-2,-1
1576753857497876,7,0,0,0,0,1,1,-3
1576753857497876,0,1,1,-2,-1,-2,-2,2
1576753857519814,3,0,0,1,-1,1,0,-2
1576753857519814,-10,-2,-2,-1,0,0,-1,-1
1576753857520824,-8,4,3,-1,0,-2,0,-3
1576753857520824,1,-3,-4,0,-1,1,-1,-4
1576753857533775,0,0,-3,1,-1,-2,-3,0
1576753857533775,3,-5,-4,-1,-1,-1,1,-1
1576753857541765,-1,1,2,0,-3,-3,-1,2
1576753857541765,-6,-3,-2,-1,1,-3,1,-2
1576753857556815,-6,-1,3,1,1,3,5,11
1576753857556815,11,-1,2,-1,1,-3,-3,0
1576753857557712,7,-3,-2,-1,-2,-1,-1,0
1576753857557712,-3,1,0,1,0,4,1,0
1576753857580696,-8,-1,1,-4,-4,-3,-1,-3
1576753857580696,0,0,0,0,0,1,3,-2
1576753857580696,-1,0,-3,0,-1,0,-4,0
1576753857580696,2,-1,1,0,-1,1,-2,-3
1576753857593717,3,0,-1,0,1,-1,-2,0
1576753857593717,-2,0,1,-2,1,1,-3,3
1576753857602592,-4,-1,0,-4,-2,-2,1,-1
1576753857602592,1,-1,-4,0,1,0,1,-4
1576753857616598,-6,0,-2,1,0,1,-2,-3
1576753857616598,0,0,-3,-3,-2,-3,1,-3
1576753857617553,6,-2,-1,-1,-1,-3,-3,-2
1576753857617553,8,1,-4,-2,0,1,-3,-2
1576753857640604,1,-3,0,-1,-2,0,-1,1
1576753857640604,-6,-3,0,-2,0,2,-2,1
1576753857641501,-6,-3,-3,-1,-1,-4,-6,0
1576753857641501,4,-1,-2,0,-1,-3,1,-1
1576753857653487,7,-1,0,2,0,0,-1,-6
1576753857653487,6,-1,-2,0,-2,1,-1,0
1576753857662459,-6,2,-2,-1,1,0,1,0
1576753857662459,-5,-1,0,0,-2,0,1,-1
1576753857677393,-1,-1,-3,-2,-2,-1,0,-2
1576753857677393,2,0,0,0,1,-7,1,0
1576753857677393,6,-2,-1,0,-2,4,2,-1
1576753857677393,0,0,0,-3,-1,-1,-2,1
1576753857700331,-2,0,0,-2,0,0,-2,0
1576753857700331,3,-3,-3,0,1,1,1,2
1576753857701333,4,1,0,0,0,0,0,-1
1576753857701333,0,0,-1,-1,-1,-1,0,-1
1576753857714341,2,0,-2,-4,-2,-3,-2,-3
1576753857714341,-8,2,2,4,1,0,2,-1
1576753857722369,-2,-2,-3,-2,-2,-2,-1,0
1576753857722369,-4,-1,1,-3,0,2,1,-2
1576753857737332,2,1,-1,0,-1,2,1,-2
1576753857737332,-1,-1,-2,-1,-2,-1,-2,-5
1576753857738240,3,-2,-3,0,1,0,1,0
1576753857738240,2,-2,0,-1,-1,-4,-4,-4
1576753857760218,5,-2,-2,-3,0,-3,0,1
1576753857760218,5,-2,-1,1,-1,1,0,0
1576753857761211,-3,2,1,-1,-1,-4,-1,-3
1576753857761211,0,1,-1,-1,0,-4,2,2
1576753857774248,-2,-4,-2,0,0,1,0,0
1576753857774248,1,-2,-4,-1,-3,-2,-6,-4
1576753857782182,0,-3,1,-1,0,-2,0,-3
1576753857782182,0,0,-1,0,1,-1,0,0
1576753857797172,-7,1,0,1,0,-2,-2,-5
1576753857797172,-3,1,0,-2,-1,-4,2,1
1576753857798113,-2,-1,-2,0,-1,3,1,-1
1576753857798113,-6,-2,1,-1,-3,-2,-2,-1
1576753857820018,4,0,-1,0,0,-1,-2,-3
1576753857820018,-8,-2,-4,-4,-2,-2,-2,1
1576753857820018,-4,1,1,1,-1,1,-1,-2
1576753857820018,5,-2,-4,-2,-1,3,0,-1
1576753857833974,-1,-2,1,0,0,-1,1,-2
1576753857833974,-11,1,-2,-1,-2,1,-5,-4
1576753857842054,-4,-1,-2,-2,-2,-2,1,-1
1576753857842054,-2,1,1,1,-1,-2,1,-2
1576753857856950,-2,2,0,1,-3,0,0,-1
1576753857856950,5,0,-1,-2,-3,-3,-2,-1
1576753857857942,1,-1,-1,-1,0,2,-1,1
1576753857857942,-3,0,0,0,1,-1,-2,-1
1576753857879936,-3,-4,-3,-3,-2,-3,-1,-2
1576753857879936,-2,1,1,0,-1,-2,-3,-2
1576753857879936,6,-1,-1,-2,-2,-2,-2,-1
1576753857879936,2,-2,3,-1,-2,-1,1,-1
1576753857893914,-5,1,-4,0,-1,-1,-1,1
1576753857893914,3,-2,0,-1,-2,0,0,0
1576753857901801,-17,-2,0,1,0,1,4,0
1576753857901801,-8,-1,-1,0,-1,1,-1,6
1576753857916753,3,-4,-2,-3,-2,1,-2,-1
1576753857916753,0,-3,0,1,-1,-2,-2,-2
1576753857917763,-2,0,-1,0,1,1,-1,-1
1576753857917763,-6,-2,1,-2,-2,-3,1,0
1576753857939793,-4,0,-1,0,0,-1,2,5
1576753857939793,-6,-4,1,-2,-1,0,2,-3
1576753857940698,-3,0,-4,0,-2,-2,-4,-4
1576753857940698,-4,1,-2,-1,-1,0,-2,-5
1576753857962731,-1,-1,0,3,-1,-3,1,-2
1576753857962731,-5,-1,1,-1,1,-1,-1,-5
1576753857963671,-3,-2,0,0,1,0,1,0
1576753857963671,3,-3,-2,0,-1,0,-1,3
1576753857977590,4,0,-1,0,0,0,0,1
1576753857977590,-2,-2,1,2,-1,-3,-3,2
1576753857977590,7,2,-1,-3,-3,-1,0,-1
1576753857977590,8,-1,-2,0,1,1,-2,-3
1576753857999532,0,0,1,-1,0,-1,1,-3
1576753857999532,-6,-2,-4,0,-1,2,-2,-4
1576753858000530,4,-2,-2,0,0,-2,-5,-1
1576753858000530,-7,-2,0,0,-1,-3,-3,-2
1576753858022569,2,-1,0,-1,0,2,-1,0
1576753858022569,-4,0,-4,-1,1,-3,-2,-2
1576753858023471,-7,-4,-1,-2,-2,-3,0,-2
1576753858023471,3,1,-2,-1,-1,0,0,1
1576753858037475,7,1,0,-2,-1,1,1,0
1576753858037475,-3,1,-1,0,0,-1,-2,-1
1576753858037475,6,0,1,0,0,-2,0,-2
1576753858037475,1,-3,-1,-5,-2,-2,-3,-1
1576753858059471,7,-3,0,2,1,-1,-2,1
1576753858059471,-8,0,-2,-1,0,4,-1,2
1576753858060412,6,1,-3,1,-2,-3,-1,21
1576753858060412,-3,0,-4,1,0,-3,-2,33
1576753858082328,-4,0,-2,-3,0,-2,-3,2
1576753858082328,-4,0,1,-1,-2,-3,1,-22
1576753858083307,-5,-1,-3,-4,-3,1,0,-31
1576753858083307,7,1,0,-1,0,-1,1,-36
1576753858098272,15,3,-2,-1,0,2,2,-13
1576753858098272,-1,-1,2,0,1,-1,1,-6
1576753858099265,-3,2,1,0,-1,0,-2,-7
1576753858099265,-3,-2,-1,0,-1,-1,-1,7
1576753858119311,7,-2,-2,1,-1,0,-2,5
1576753858119311,-3,-2,-2,0,-2,1,2,3
1576753858120210,9,-2,-2,-1,0,-2,1,11
1576753858120210,0,0,3,-3,-2,-1,4,3
1576753858143199,-11,-3,-1,-1,-1,-3,-2,-1
1576753858143199,2,-2,-1,-1,-1,-2,-4,4
1576753858143199,-5,-1,-2,0,-1,1,-2,3
1576753858143199,-1,-2,-2,0,-1,-1,1,-1
1576753858157214,-5,2,-2,-4,0,0,1,-4
1576753858157214,-4,0,0,-1,0,-3,1,3
1576753858158117,-6,-6,-3,-2,0,1,-1,-1
1576753858158117,3,-1,-3,-2,-2,0,-3,-9
1576753858180049,-4,-3,1,0,0,-2,3,2
1576753858180049,-2,0,-1,-3,-3,1,0,3
1576753858180049,0,1,2,1,-1,0,-1,-2
1576753858180049,-4,0,1,0,0,1,3,0
1576753858203098,-9,-2,-3,-4,-2,-1,-4,4
1576753858203098,-14,1,3,2,3,4,2,4
1576753858203985,-1,0,-2,-1,-1,1,-3,1
1576753858203985,-4,-2,-1,-2,0,-1,0,0
1576753858216949,-6,1,1,0,-1,0,-1,-4
1576753858216949,-2,-5,-2,-3,0,-4,-1,1
1576753858217951,-5,1,2,-1,-1,-1,-3,-2
1576753858217951,2,0,0,1,1,2,1,-1
1576753858239979,-3,-1,-1,-2,-1,2,-3,-2
1576753858239979,5,1,-4,0,-1,-2,-4,-3
1576753858239979,1,-2,3,-1,-1,-3,0,2
1576753858239979,2,-2,-1,-1,-1,0,0,-3
1576753858262931,-5,-3,-1,-1,-1,-2,-1,-4
1576753858262931,9,0,0,-1,-1,0,0,-1
1576753858263829,-2,0,-1,-1,-4,-3,2,-2
1576753858263829,-3,2,1,1,1,0,0,-2
1576753858276889,-16,0,2,1,0,0,-1,-5
1576753858276889,-3,-3,-2,-6,-2,1,-2,-3
1576753858277792,-3,-4,-2,2,-1,-2,-2,0
1576753858277792,-5,-4,-2,-2,-1,-3,0,-2
1576753858299729,-2,-2,-1,-1,-1,-2,1,4
1576753858299729,2,-2,-2,1,-2,0,-4,-4
1576753858300726,0,-2,1,-4,-3,-1,-2,-7
1576753858300726,2,0,-2,0,2,-2,-5,-3
1576753858322767,-10,0,0,-1,0,-2,5,3
1576753858322767,11,0,-1,0,0,0,1,-4
1576753858323718,0,-1,-2,0,-2,2,1,0
1576753858323718,2,0,-2,-1,-1,0,1,-1
1576753858337627,-5,0,-1,-2,-3,-3,-1,-2
1576753858337627,6,0,-2,2,-1,-2,1,3
1576753858337627,-2,-1,0,-1,0,-1,0,0
1576753858337627,2,0,1,0,-3,0,-3,1
1576753858359671,0,1,-1,-2,-1,-2,-2,-1
1576753858359671,2,-2,-1,-4,-4,-4,0,2
1576753858360608,3,0,0,2,3,-1,-2,-2
1576753858360608,5,-1,-1,-1,-2,-1,-3,-2
1576753858382508,3,-1,0,0,1,-1,1,-2
1576753858382508,8,1,0,0,-1,2,0,-1
1576753858383505,-1,3,-1,2,-1,-1,-3,0
1576753858383505,-1,-1,0,-1,0,2,-4,4
1576753858397507,5,0,-3,1,-1,-1,-1,0
1576753858397507,-6,2,-2,2,-1,-2,0,1
1576753858397507,2,-3,0,-3,-1,-1,0,2
1576753858397507,-2,-2,-1,-3,-3,-3,0,-1
1576753858419508,4,-2,0,0,1,1,-1,-4
1576753858419508,0,-1,2,-1,0,1,-2,-2
1576753858420451,2,-1,-1,-1,-1,0,0,1
1576753858420451,-5,-1,1,0,-2,0,0,-3
1576753858442444,2,-1,-2,-3,-3,0,-4,3
1576753858442444,3,-2,-1,0,0,-2,-1,1
1576753858443349,-3,-2,-2,-2,-1,-2,1,0
1576753858443349,-1,-1,-2,0,1,2,2,0
1576753858457415,2,0,3,3,2,-1,-1,0
1576753858457415,8,1,-1,-1,0,-1,-1,-1
1576753858458307,1,-3,-1,-1,1,2,-2,-1
1576753858458307,11,2,-3,2,-1,-2,1,3
1576753858479348,3,-2,-2,0,-1,-3,-1,0
1576753858479348,-1,-3,-1,-2,-3,2,0,-3
1576753858480248,8,1,2,2,0,-4,-1,-1
1576753858480248,3,-2,1,-2,-3,2,3,-1
1576753858503222,0,1,-3,0,0,1,1,3
1576753858503222,6,1,0,0,1,-2,0,0
1576753858503222,4,2,-2,-2,-2,-1,-1,-4
1576753858503222,-16,-2,2,-2,1,-1,3,7
1576753858517205,6,0,0,-3,-1,0,-2,-2
1576753858517205,2,-1,-3,-2,-1,-1,0,0
1576753858518157,-2,1,-1,-1,-3,-3,-1,2
1576753858518157,4,0,-1,0,-1,0,-2,-3
1576753858540086,0,-1,0,-1,-2,0,-2,-5
1576753858540086,-5,-1,-1,1,0,-2,1,2
1576753858540086,2,2,-1,-1,0,-1,1,2
1576753858540086,3,-1,0,-1,0,3,0,-3
1576753858563134,-2,-1,-2,-3,-2,-2,-2,-1
1576753858563134,-1,-1,0,-2,0,1,-3,-4
1576753858564021,-3,-2,-2,0,-1,-1,1,-1
1576753858564021,6,0,-2,-2,-1,-3,-1,-3
1576753858576026,0,-2,2,2,-1,2,1,1
1576753858576026,-1,0,-1,-1,2,-3,-2,-1
1576753858584964,-6,-3,-5,-1,0,0,0,-1
1576753858584964,7,-2,-4,-1,0,0,0,-1
1576753858599925,2,0,-1,-1,1,0,-1,2
1576753858599925,-4,-3,-2,1,-1,-2,1,-2
1576753858599925,4,-2,2,-2,-2,0,-2,-3
1576753858599925,3,0,-2,0,-3,2,-1,-1
1576753858622967,5,-1,-1,1,-1,-1,1,0
1576753858622967,8,0,1,0,-1,-2,-1,0
1576753858623867,0,-2,-1,-1,0,3,3,-4
1576753858623867,1,0,-1,-1,-1,-5,-2,-2
1576753858636873,-6,-1,-1,-3,-1,-1,4,-1
1576753858636873,0,-1,-1,-1,-3,0,0,-3
1576753858644927,-2,0,-1,0,0,-1,2,1
1576753858644927,-4,0,1,-1,0,-3,0,-4
1576753858659868,-5,2,-1,2,-1,-1,-3,-1
1576753858659868,-5,-2,-2,-2,-2,-1,-3,-2
1576753858660761,-1,-2,0,-3,-2,1,-1,-1
1576753858660761,1,0,0,0,-1,-3,2,-1
1576753858682703,-2,0,1,2,1,0,-2,-2
1576753858682703,-12,-1,2,1,1,4,0,0
1576753858683704,2,0,-6,-4,-1,-2,-2,-6
1576753858683704,4,-4,1,-1,0,1,-1,-1
1576753858696787,-3,-2,-4,-2,-2,-4,-1,-2
1576753858696787,-9,-1,-2,-1,-2,1,-1,0
1576753858704749,-2,-1,-3,-1,0,0,-1,1
1576753858704749,3,0,-2,1,0,-1,1,0
1576753858719709,-1,-1,0,-1,0,-2,-3,-3
1576753858719709,2,-2,0,0,1,-3,-2,0
1576753858720604,0,0,0,0,0,-2,-2,1
1576753858720604,-7,0,-5,-1,-1,-1,-2,-6
1576753858742647,2,-3,-2,-3,-5,-1,-1,-1
1576753858742647,5,-2,0,2,0,1,2,1
1576753858743543,4,0,-2,0,-1,0,1,-1
1576753858743543,0,2,1,-1,-1,-2,-5,-1
1576753858756611,2,-3,1,-2,-1,-2,-3,-2
1576753858756611,-9,1,-2,-1,-2,-3,-3,-3
1576753858764591,-2,-1,0,-2,-2,-4,-2,1
1576753858764591,2,-5,-1,0,0,2,3,1
1576753858779548,-3,1,0,0,1,0,-2,1
1576753858779548,-1,2,-1,-1,-1,-2,-4,0
1576753858780445,3,0,2,-1,-1,3,-1,1
1576753858780445,-3,-4,1,-1,-3,-2,-3,2
1576753858802487,-1,-2,0,0,0,-3,3,3
1576753858802487,0,-4,-5,0,1,1,2,-3
1576753858803381,-7,1,2,1,-1,-1,1,0
1576753858803381,2,0,0,-1,2,1,-3,-2
1576753858825422,2,-1,-4,-1,-2,0,-4,3
1576753858825422,3,-2,1,-2,0,-3,-1,-2
1576753858826327,7,0,0,2,0,-1,-1,0
1576753858826327,4,-1,-2,-2,0,0,-1,-1
1576753858839381,12,2,2,2,-2,2,2,0
1576753858839381,-4,-3,-1,-4,-2,1,1,3
1576753858840285,-1,-3,-1,-1,0,0,-3,1
1576753858840285,1,3,1,0,-1,-1,-2,2
1576753858863219,-2,-1,-4,-3,0,-1,-4,-7
1576753858863219,3,0,0,1,0,0,3,-3
1576753858863219,0,-1,-1,0,-2,0,0,-4
1576753858863219,-2,-4,-4,-2,-2,2,0,0
1576753858876187,-3,2,-3,0,1,1,-1,-2
1576753858876187,-1,1,1,0,0,-2,-1,1
1576753858884164,-7,-5,-2,-1,-1,-1,1,-2
1576753858884164,4,1,-1,-2,0,-1,-2,-2
1576753858899125,10,-2,0,2,0,1,1,3
1576753858899125,-4,0,1,-2,-2,-2,-2,-1
1576753858900136,6,0,-1,0,-1,-2,-3,-6
